1650281438.00
64.000000
-0.00
-0.00
-0.00
-0.00
-0.00
-0.00
-0.00
-0.00
-0.00
-0.00
0.00
0.01
0.01
-0.00
-0.03
-0.05
-0.05
0.00
0.13
0.36
0.66
1.01
1.37
1.72
2.06
2.40
2.79
3.24
3.80
4.42
5.06
5.66
6.20
6.68
7.15
7.68
8.31
9.14
10.09
11.04
11.88
12.56
13.14
13.76
14.65
15.96
17.91
20.32
22.90
25.38
27.58
29.57
31.68
34.32
37.81
42.54
48.15
54.10
59.83
64.97
69.58
74.14
79.35
85.71
93.77
103.00
112.61
121.72
129.76
136.75
143.33
150.80
157.84
166.69
177.91
191.61
206.60
220.02
227.58
224.64
207.83
176.23
132.17
79.44
22.37
-35.79
-93.44
-150.25
-206.33
-261.40
-314.69
-364.82
-410.93
-452.34
-488.37
-518.02
-539.76
-551.75
-552.29
-540.46
-516.28
-481.15
-437.22
-386.94
-332.64
-276.19
-219.11
-162.74
-108.50
-57.78
-12.01
27.83
61.40
89.06
111.68
130.15
145.06
156.48
164.10
167.55
166.93
162.96
156.91
150.14
143.65
137.76
132.08
125.87
118.32
108.83
97.10
83.30
68.54
55.15
46.45
45.76
54.82
72.54
94.86
116.04
130.70
135.82
131.50
120.28
105.51
90.16
75.55
62.14
50.20
40.35
33.46
30.10
30.03
32.12
34.70
36.06
35.29
32.39
28.19
23.85
20.33
17.96
16.39
14.85
12.57
9.27
5.22
1.10
-2.32
-4.57
-5.63
-5.90
-5.95
-6.34
-7.29
-8.61
-9.67
-9.68
-8.12
-5.06
-1.38
1.56
2.52
1.01
-2.42
-6.49
-9.86
-11.74
-12.21
-11.85
-11.32
-10.87
-10.38
-9.65
-8.71
-7.91
-7.70
-8.33
-9.64
-11.15
-12.24
-12.41
-11.47
-9.59
-7.18
-4.72
-2.63
-1.06
0.10
1.12
2.23
3.51
4.88
6.16
7.22
8.05
8.70
9.19
9.47
9.44
9.02
8.23
7.15
5.91
4.61
3.37
2.30
1.55
1.22
1.33
1.79
2.43
3.11
3.77
4.49
5.35
6.41
7.59
8.78
9.80
10.50
10.71
10.29
9.09
7.12
4.53
1.53
-1.55
-4.37
-6.61
-8.07
-8.69
-8.55
-7.86
-6.96
-6.12
-5.50
-5.12
-4.89
-4.75
-4.75
-5.01
-5.67
-6.68
-7.82
-8.71
-9.02
-8.63
-7.65
-6.36
-5.05
-3.88
-2.89
-2.05
-1.31
-0.71
-0.32
-0.23
-0.47
-0.97
-1.62
-2.26
-2.78
-3.10
-3.27
-3.32
-3.34
-3.37
-3.45
-3.55
-3.67
-3.82
-4.02
-4.26
-4.57
-4.95
-5.34
-5.73
-6.08
-6.36
-6.55
-6.60
-6.45
-6.01
-5.24
-4.12
-2.72
-1.15
0.45
1.82
2.79
3.30
3.42
3.29
3.06
2.85
2.71
2.71
2.89
3.30
3.94
4.72
5.47
6.01
6.18
5.97
5.46
4.80
4.13
3.56
3.11
2.75
2.43
2.10
1.74
1.35
0.91
0.42
-0.14
-0.83
-1.67
-2.69
-3.80
-4.88
-5.78
-6.39
-6.72
-6.93
-7.22
-7.74
-8.48
-9.29
-9.90
-10.09
-9.74
-8.88
-7.60
-5.98
-4.08
-1.96
0.28
2.48
4.42
5.95
7.02
7.71
8.17
8.52
8.83
9.07
9.18
9.09
8.79
8.33
7.77
7.16
6.50
5.78
4.97
4.08
3.16
2.30
1.59
1.06
0.69
0.43
0.23
0.03
-0.15
-0.27
-0.29
-0.18
0.02
0.24
0.37
0.33
0.09
-0.34
-0.86
-1.40
-1.92
-2.43
-2.98
-3.60
-4.29
-4.98
-5.58
-5.94
-5.96
-5.57
-4.77
-3.66
-2.35
-1.00
0.29
1.45
2.44
3.28
3.93
4.39
4.63
4.64
4.46
4.15
3.78
3.45
3.25
3.26
3.53
4.04
4.70
5.39
6.00
6.47
6.79
6.93
6.87
6.59
6.08
5.41
4.68
4.02
3.53
3.20
2.96
2.74
2.42
1.98
1.41
0.71
-0.12
-1.07
-2.13
-3.25
-4.38
-5.44
-6.35
-7.03
-7.40
-7.43
-7.11
-6.53
-5.81
-5.10
-4.52
-4.07
-3.68
-3.21
-2.61
-1.87
-1.09
-0.42
0.09
0.45
0.76
1.12
1.58
2.07
2.46
2.63
2.54
2.24
1.85
1.44
1.04
0.64
0.22
-0.19
-0.52
-0.71
-0.71
-0.61
-0.51
-0.57
-0.83
-1.28
-1.80
-2.31
-2.75
-3.14
-3.49
-3.81
-4.05
-4.17
-4.20
-4.18
-4.19
-4.25
-4.35
-4.41
-4.39
-4.25
-3.97
-3.53
-2.88
-1.98
-0.81
0.52
1.81
2.88
3.57
3.87
3.82
3.49
2.93
2.17
1.25
0.34
-0.35
-0.63
-0.43
0.14
0.81
1.29
1.38
1.09
0.64
0.29
0.21
0.39
0.67
0.85
0.79
0.52
0.19
-0.05
-0.12
-0.03
0.09
0.18
0.18
0.14
0.07
-0.04
-0.26
-0.62
-1.13
-1.67
-2.10
-2.26
-2.05
-1.54
-0.87
-0.23
0.22
0.40
0.32
0.08
-0.21
-0.43
-0.50
-0.40
-0.17
0.14
0.43
0.61
0.62
0.39
-0.10
-0.82
-1.63
-2.37
-2.87
-3.05
-2.90
-2.55
-2.13
-1.73
-1.38
-1.07
-0.77
-0.46
-0.16
0.10
0.32
0.47
0.55
0.54
0.41
0.12
-0.32
-0.92
-1.62
-2.39
-3.16
-3.87
-4.42
-4.77
-4.90
-4.82
-4.60
-4.26
-3.84
-3.33
-2.72
-2.06
-1.40
-0.83
-0.35
0.06
0.48
0.99
1.58
2.20
2.73
3.09
3.27
3.39
3.58
3.94
4.45
4.94
5.21
5.12
4.69
4.07
3.47
3.06
2.86
2.75
2.59
2.25
1.73
1.07
0.36
-0.32
-0.92
-1.40
-1.75
-1.97
-2.11
-2.28
-2.59
-3.12
-3.85
-4.64
-5.32
-5.72
-5.76
-5.45
-4.86
-4.03
-3.00
-1.79
-0.44
0.97
2.33
3.56
4.60
5.47
6.21
6.85
7.38
7.78
8.02
8.15
8.19
8.19
8.09
7.84
7.35
6.58
5.57
4.39
3.16
1.99
0.99
0.20
-0.42
-0.93
-1.40
-1.90
-2.42
-2.95
-3.41
-3.72
-3.87
-3.86
-3.71
-3.49
-3.26
-3.05
-2.91
-2.85
-2.84
-2.86
-2.83
-2.67
-2.29
-1.62
-0.65
0.56
1.85
3.01
3.87
4.32
4.39
4.19
3.85
3.49
3.18
2.95
2.84
2.86
3.03
3.28
3.49
3.51
3.27
2.83
2.35
2.04
2.01
2.21
2.46
2.54
2.36
1.99
1.58
1.30
1.23
1.33
1.52
1.76
2.09
2.58
3.23
3.95
4.54
4.84
4.80
4.46
3.95
3.38
2.79
2.18
1.56
1.02
0.70
0.72
1.07
1.60
1.99
1.94
1.20
-0.25
-2.26
-4.57
-6.92
-9.11
-11.09
-12.87
-14.51
-16.05
-17.47
-18.75
-19.87
-20.87
-21.88
-23.08
-24.64
-26.62
-28.82
-30.84
-32.06
-31.82
-29.63
-25.32
-19.18
-11.92
-4.66
1.34
5.05
5.92
4.19
0.74
-3.26
-6.89
-9.75
-11.96
-13.93
-15.85
-17.61
-18.87
-19.32
-18.95
-18.02
-16.75
-15.19
-13.23
-10.86
-8.51
-6.98
-7.01
-8.78
-11.53
-13.80
-14.04
-11.30
-5.62
2.11
10.60
18.62
25.40
30.60
34.37
37.26
40.15
44.11
50.01
58.22
68.32
79.11
89.05
96.68
101.11
102.25
100.66
97.24
92.88
88.23
83.66
79.39
75.59
72.39
69.85
67.79
65.75
63.09
59.20
53.65
46.36
37.55
27.66
17.22
6.89
-2.67
-10.85
-17.29
-22.09
-25.84
-29.39
-33.52
-38.54
-44.14
-49.55
-53.85
-56.46
-57.23
-56.48
-54.73
-52.43
-49.83
-46.94
-43.70
-40.09
-36.24
-32.44
-29.03
-26.26
-24.25
-22.87
-21.90
-21.11
-20.41
-19.90
-19.75
-20.03
-20.54
-20.80
-20.21
-18.33
-15.10
-10.92
-6.53
-2.72
-0.03
1.43
1.97
2.11
2.29
2.61
2.70
1.82
-0.93
-6.29
-14.56
-25.43
-37.92
-50.50
-61.35
-68.67
-71.15
-68.19
-60.19
-48.42
-34.80
-21.42
-10.07
-1.86
3.02
5.22
6.03
6.98
9.33
13.70
19.81
26.60
32.63
36.60
37.92
36.89
34.54
32.30
31.49
32.91
36.70
42.35
48.84
54.93
59.46
61.65
61.24
58.54
54.25
49.16
43.78
38.20
32.08
24.93
16.37
6.37
-4.77
-16.60
-28.75
-41.06
-53.40
-65.40
-76.13
-84.19
-88.16
-87.26
-81.93
-73.80
-65.27
-58.61
-55.24
-55.32
-57.87
-61.24
-63.85
-64.61
-63.22
-60.16
-56.45
-53.21
-51.12
-49.98
-48.73
-45.83
-39.98
-30.76
-18.94
-6.12
5.90
15.84
23.30
28.54
32.07
34.24
35.15
34.74
33.21
31.02
28.82
27.06
25.75
24.44
22.51
19.50
15.38
10.62
5.99
2.28
0.02
-0.63
0.11
1.74
3.77
5.77
7.55
9.07
10.35
11.41
12.17
12.54
12.49
12.11
11.58
11.13
10.93
11.00
11.24
11.53
11.73
11.74
11.46
10.64
9.03
6.36
2.59
-2.02
-6.90
-11.34
-14.72
-16.73
-17.43
-17.15
-16.30
-15.16
-13.79
-12.06
-9.81
-7.01
-3.79
-0.49
2.50
4.88
6.52
7.51
8.06
8.42
8.80
9.25
9.74
10.18
10.48
10.57
10.45
10.12
9.51
8.53
7.10
5.24
3.15
1.20
-0.20
-0.76
-0.49
0.34
1.25
1.79
1.72
1.06
0.03
-1.06
-2.00
-2.69
-3.14
-3.39
-3.47
-3.41
-3.21
-2.95
-2.71
-2.57
-2.56
-2.61
-2.57
-2.28
-1.63
-0.60
0.71
2.17
3.60
4.86
5.87
6.63
7.16
7.54
7.81
7.99
8.08
8.11
8.19
8.46
9.02
9.84
10.78
11.56
11.92
11.77
11.21
10.48
9.84
9.36
8.93
8.29
7.25
5.75
3.98
2.22
0.69
-0.60
-1.80
-3.21
-5.10
-7.64
-10.82
-14.54
-18.54
-22.46
-25.73
-27.69
-27.64
-25.10
-20.01
-12.82
-4.47
3.87
11.09
16.37
19.32
19.98
18.67
15.85
11.99
7.58
3.05
-1.17
-4.67
-7.15
-8.39
-8.36
-7.24
-5.34
-3.06
-0.74
1.37
3.20
4.83
6.43
8.16
10.07
12.11
14.08
15.80
17.13
18.00
18.48
18.71
18.87
19.08
19.43
19.93
20.48
20.94
21.13
20.88
20.08
18.73
16.95
14.98
13.07
11.44
10.15
9.18
8.46
7.94
7.64
7.68
8.16
9.14
10.53
12.15
13.74
14.95
15.42
14.83
12.92
9.63
5.10
-0.28
-5.94
-11.33
-15.95
-19.49
-21.85
-23.07
-23.38
-23.10
-22.61
-22.24
-22.18
-22.43
-22.78
-22.92
-22.55
-21.48
-19.66
-17.18
-14.23
-11.07
-7.98
-5.25
-3.18
-1.97
-1.72
-2.32
-3.47
-4.69
-5.50
-5.54
-4.66
-3.02
-0.98
1.01
2.56
3.45
3.69
3.47
3.09
2.80
2.79
3.04
3.41
3.57
3.19
2.03
0.05
-2.45
-4.97
-6.86
-7.62
-7.02
-5.17
-2.49
0.49
3.31
5.72
7.62
9.02
9.90
10.19
9.81
8.75
7.19
5.42
3.78
2.52
1.68
1.11
0.57
-0.13
-1.02
-1.97
-2.80
-3.38
-3.68
-3.82
-3.91
-4.06
-4.27
-4.51
-4.76
-5.02
-5.35
-5.78
-6.25
-6.67
-6.89
-6.81
-6.43
-5.83
-5.17
-4.57
-4.14
-3.86
-3.63
-3.26
-2.55
-1.34
0.39
2.52
4.81
6.99
8.87
10.34
11.38
12.02
12.24
12.05
11.49
10.68
9.78
9.01
8.47
8.17
7.99
7.76
7.35
6.70
5.87
5.02
4.29
3.83
3.67
3.76
3.93
3.99
3.80
3.30
2.52
1.59
0.63
-0.29
-1.14
-1.92
-2.63
-3.24
-3.74
-4.10
-4.35
-4.51
-4.61
-4.64
-4.57
-4.41
-4.16
-3.84
-3.40
-2.77
-1.83
-0.56
0.91
2.33
3.42
3.98
3.99
3.62
3.10
2.65
2.36
2.18
2.03
1.80
1.48
1.08
0.68
0.36
0.18
0.16
0.26
0.41
0.53
0.55
0.50
0.41
0.38
0.45
0.58
0.68
0.67
0.50
0.20
-0.15
-0.44
-0.64
-0.78
-0.94
-1.21
-1.62
-2.13
-2.66
-3.11
-3.41
-3.56
-3.66
-3.83
-4.20
-4.83
-5.66
-6.52
-7.19
-7.53
-7.52
-7.23
-6.73
-6.06
-5.16
-3.95
-2.42
-0.71
0.99
2.44
3.53
4.29
4.83
5.29
5.69
5.95
6.01
5.85
5.54
5.20
4.92
4.68
4.38
3.92
3.28
2.56
1.95
1.61
1.59
1.85
2.20
2.44
2.46
2.24
1.87
1.51
1.25
1.13
1.07
0.92
0.54
-0.09
-0.91
-1.76
-2.47
-2.96
-3.23
-3.34
-3.36
-3.35
-3.33
-3.34
-3.43
-3.63
-3.91
-4.16
-4.25
-4.04
-3.50
-2.69
-1.71
-0.67
0.38
1.39
2.29
2.98
3.35
3.36
3.09
2.72
2.45
2.38
2.48
2.57
2.45
1.98
1.16
0.12
-0.95
-1.88
-2.56
-2.97
-3.13
-3.04
-2.76
-2.37
-1.92
-1.48
-1.06
-0.67
-0.30
-0.00
0.14
0.05
-0.26
-0.70
-1.17
-1.56
-1.90
-2.26
-2.73
-3.34
-4.04
-4.77
-5.50
-6.30
-7.28
-8.47
-9.77
-11.00
-11.98
-12.62
-13.02
-13.37
-13.92
-14.81
-16.12
-17.75
-19.50
-21.05
-21.95
-21.77
-20.17
-17.04
-12.53
-7.06
-1.18
4.55
9.71
14.03
17.45
19.99
21.72
22.71
23.02
22.75
22.03
21.07
20.06
19.15
18.32
17.50
16.54
15.43
14.31
13.43
12.97
12.93
13.12
13.25
13.15
12.81
12.42
12.21
12.30
12.62
12.98
13.08
12.65
11.49
9.47
6.66
3.32
-0.08
-3.04
-5.21
-6.54
-7.36
-8.14
-9.30
-11.00
-13.09
-15.31
-17.39
-19.21
-20.69
-21.77
-22.31
-22.14
-21.25
-19.75
-17.97
-16.20
-14.62
-13.25
-11.98
-10.67
-9.20
-7.49
-5.45
-2.95
0.10
3.66
7.46
11.07
14.06
16.17
17.38
17.90
18.00
17.91
17.66
17.23
16.55
15.67
14.72
13.82
12.97
11.99
10.52
8.21
4.90
0.79
-3.60
-7.55
-10.40
-11.85
-12.10
-11.72
-11.37
-11.52
-12.17
-12.94
-13.33
-12.97
-11.89
-10.43
-9.02
-7.91
-7.06
-6.20
-5.04
-3.50
-1.80
-0.37
0.39
0.28
-0.65
-2.13
-3.79
-5.32
-6.51
-7.30
-7.70
-7.77
-7.55
-7.07
-6.34
-5.35
-4.04
-2.36
-0.25
2.32
5.31
8.58
11.87
14.86
17.25
18.82
19.48
19.32
18.52
17.31
15.86
14.31
12.72
11.12
9.62
8.32
7.35
6.69
6.14
5.38
4.03
1.90
-0.95
-4.16
-7.26
-9.82
-11.64
-12.77
-13.44
-13.90
-14.33
-14.74
-15.09
-15.25
-15.15
-14.82
-14.31
-13.77
-13.25
-12.75
-12.14
-11.26
-10.02
-8.51
-6.95
-5.61
-4.70
-4.27
-4.16
-4.19
-4.13
-3.90
-3.50
-3.00
-2.46
-1.87
-1.13
-0.14
1.14
2.57
3.87
4.67
4.72
3.97
2.66
1.18
-0.07
-0.87
-1.23
-1.27
-1.14
-0.91
-0.58
-0.13
0.36
0.73
0.80
0.49
-0.09
-0.74
-1.19
-1.29
-1.03
-0.51
0.16
0.91
1.74
2.66
3.62
4.53
5.28
5.77
5.95
5.85
5.49
4.94
4.28
3.62
3.06
2.67
2.40
2.13
1.70
1.04
0.21
-0.60
-1.10
-1.12
-0.61
0.29
1.34
2.34
3.16
3.73
3.99
3.80
3.01
1.51
-0.67
-3.35
-6.17
-8.76
-10.77
-11.96
-12.20
-11.52
-10.07
-8.13
-5.94
-3.65
-1.18
1.75
5.46
10.08
15.36
20.70
25.33
28.61
30.21
30.26
29.15
27.35
25.20
22.82
20.24
17.43
14.50
11.66
9.13
7.05
5.41
4.07
2.88
1.73
0.65
-0.32
-1.14
-1.82
-2.50
-3.29
-4.27
-5.39
-6.52
-7.50
-8.19
-8.54
-8.62
-8.54
-8.43
-8.36
-8.36
-8.36
-8.34
-8.26
-8.16
-8.09
-8.10
-8.18
-8.27
-8.27
-8.05
-7.46
-6.40
-4.85
-2.90
-0.69
1.58
3.70
5.52
6.90
7.77
8.06
7.81
7.16
6.30
5.47
4.86
4.53
4.44
4.46
4.46
4.37
4.18
3.90
3.55
3.16
2.79
2.47
2.24
2.07
1.93
1.76
1.51
1.19
0.80
0.32
-0.26
-0.97
-1.79
-2.64
-3.44
-4.13
-4.70
-5.19
-5.67
-6.11
-6.46
-6.64
-6.57
-6.24
-5.70
-4.96
-4.03
-2.94
-1.72
-0.51
0.54
1.33
1.83
2.14
2.37
2.60
2.83
2.98
2.99
2.84
2.63
2.48
2.50
2.73
3.12
3.61
4.12
4.57
4.91
5.12
5.15
5.01
4.72
4.30
3.80
3.26
2.72
2.22
1.76
1.36
0.98
0.56
0.04
-0.65
-1.51
-2.55
-3.69
-4.84
-5.89
-6.73
-7.32
-7.69
-7.96
-8.30
-8.86
-9.75
-10.88
-12.02
-12.83
-12.99
-12.36
-11.02
-9.26
-7.49
-6.02
-4.99
-4.39
-4.08
-3.95
-3.96
-4.12
-4.46
-4.94
-5.47
-5.97
-6.40
-6.75
-7.02
-7.20
-7.21
-7.00
-6.56
-5.98
-5.42
-5.07
-5.00
-5.16
-5.36
-5.31
-4.78
-3.61
-1.83
0.42
2.98
5.74
8.66
11.70
14.70
17.39
19.40
20.38
20.21
18.98
16.99
14.59
12.07
9.58
7.23
5.14
3.47
2.40
2.04
2.34
3.14
4.18
5.24
6.17
6.88
7.34
7.53
7.45
7.13
6.71
6.32
6.09
6.00
5.88
5.50
4.66
3.31
1.65
0.02
-1.18
-1.72
-1.56
-0.89
0.00
0.87
1.60
2.24
2.91
3.70
4.62
5.52
6.21
6.51
6.37
5.81
4.88
3.54
1.72
-0.68
-3.62
-6.85
-9.94
-12.43
-13.94
-14.40
-13.94
-12.89
-11.52
-10.02
-8.42
-6.74
-5.02
-3.41
-2.11
-1.30
-1.02
-1.19
-1.66
-2.27
-2.89
-3.40
-3.70
-3.65
-3.13
-2.13
-0.75
0.79
2.24
3.43
4.33
5.02
5.64
6.27
6.94
7.58
8.14
8.63
9.17
9.92
11.00
12.36
13.78
14.87
15.21
14.49
12.56
9.45
5.37
0.65
-4.27
-8.86
-12.54
-14.91
-15.76
-15.19
-13.55
-11.22
-8.47
-5.36
-1.83
2.25
6.87
11.78
16.54
20.57
23.33
24.44
23.83
21.71
18.56
14.90
11.19
7.67
4.40
1.31
-1.71
-4.70
-7.66
-10.46
-12.99
-15.09
-16.71
-17.89
-18.75
-19.48
-20.27
-21.21
-22.29
-23.31
-24.04
-24.21
-23.66
-22.39
-20.57
-18.54
-16.69
-15.33
-14.64
-14.65
-15.23
-16.24
-17.53
-18.97
-20.43
-21.81
-23.01
-23.95
-24.54
-24.66
-24.08
-22.52
-19.72
-15.55
-10.12
-3.74
3.14
10.08
16.72
22.81
28.11
32.37
35.31
36.69
36.40
34.49
31.21
26.93
22.04
16.97
12.09
7.74
4.21
1.67
0.13
-0.57
-0.68
-0.44
-0.04
0.48
1.15
2.00
3.02
4.07
4.93
5.37
5.18
4.32
2.88
1.09
-0.74
-2.31
-3.42
-4.03
-4.26
-4.32
-4.47
-4.92
-5.83
-7.26
-9.19
-11.49
-13.96
-16.27
-18.02
-18.81
-18.34
-16.54
-13.60
-9.92
-6.02
-2.32
0.96
3.83
6.46
9.04
11.67
14.32
16.88
19.17
21.01
22.22
22.58
21.88
20.03
17.14
13.52
9.72
6.27
3.60
1.89
1.06
0.84
0.91
0.95
0.74
0.17
-0.75
-1.91
-3.11
-4.12
-4.74
-4.89
-4.68
-4.34
-4.17
-4.36
-4.88
-5.51
-5.90
-5.75
-4.92
-3.51
-1.76
-0.00
1.48
2.52
3.04
3.13
2.91
2.56
2.22
1.95
1.72
1.43
1.02
0.48
-0.10
-0.58
-0.84
-0.82
-0.55
-0.07
0.53
1.23
1.97
2.68
3.27
3.71
4.01
4.24
4.51
4.86
5.23
5.45
5.32
4.71
3.63
2.25
0.86
-0.28
-1.06
-1.55
-1.93
-2.38
-2.99
-3.74
-4.52
-5.28
-6.04
-6.94
-8.13
-9.72
-11.63
-13.68
-15.62
-17.25
-18.45
-19.15
-19.24
-18.57
-17.01
-14.52
-11.30
-7.79
-4.53
-1.99
-0.39
0.37
0.60
0.68
0.84
1.16
1.55
1.93
2.29
2.68
3.23
3.99
4.95
5.98
6.96
7.79
8.47
9.07
9.69
10.36
11.01
11.50
11.65
11.38
10.68
9.64
8.47
7.34
6.41
5.72
5.23
4.84
4.42
3.96
3.47
2.98
2.48
1.92
1.22
0.39
-0.49
-1.21
-1.60
-1.56
-1.16
-0.59
-0.05
0.30
0.40
0.31
0.09
-0.16
-0.36
-0.41
-0.23
0.28
1.17
2.40
3.84
5.29
6.48
7.22
7.40
7.08
6.41
5.59
4.78
4.06
3.46
2.97
2.58
2.24
1.91
1.51
0.94
0.18
-0.72
-1.65
-2.43
-2.96
-3.23
-3.31
-3.36
-3.49
-3.70
-3.92
-4.03
-3.97
-3.71
-3.31
-2.80
-2.19
-1.41
-0.43
0.70
1.85
2.78
3.31
3.38
3.08
2.61
2.17
1.89
1.84
1.94
2.11
2.24
2.24
2.08
1.77
1.39
1.06
0.90
0.94
1.15
1.42
1.58
1.51
1.19
0.64
0.01
-0.61
-1.12
-1.49
-1.73
-1.87
-1.94
-1.99
-2.04
-2.16
-2.39
-2.75
-3.19
-3.59
-3.79
-3.62
-3.03
-2.08
-0.92
0.23
1.20
1.87
2.22
2.32
2.25
2.11
1.96
1.81
1.66
1.50
1.34
1.23
1.22
1.37
1.69
2.13
2.61
3.04
3.35
3.54
3.64
3.69
3.67
3.51
3.13
2.45
1.50
0.38
-0.79
-1.87
-2.80
-3.57
-4.18
-4.63
-4.90
-4.97
-4.89
-4.74
-4.60
-4.50
-4.42
-4.26
-3.94
-3.42
-2.72
-1.92
-1.13
-0.45
0.09
0.46
0.69
0.83
0.93
1.06
1.26
1.53
1.84
2.12
2.33
2.41
2.38
2.29
2.17
2.07
1.96
1.77
1.41
0.85
0.11
-0.74
-1.66
-2.58
-3.49
-4.35
-5.12
-5.71
-6.10
-6.26
-6.25
-6.17
-6.08
-6.03
-6.04
-6.11
-6.23
-6.37
-6.46
-6.43
-6.16
-5.64
-4.92
-4.11
-3.36
-2.72
-2.16
-1.59
-0.91
-0.12
0.68
1.35
1.76
1.85
1.64
1.21
0.67
0.14
-0.27
-0.46
-0.39
-0.11
0.24
0.51
0.57
0.42
0.13
-0.17
-0.37
-0.43
-0.38
-0.27
-0.18
-0.14
-0.14
-0.15
-0.19
-0.25
-0.36
-0.54
-0.76
-0.96
-1.06
-1.04
-0.97
-0.96
-1.15
-1.55
-2.07
-2.54
-2.82
-2.86
-2.74
-2.64
-2.66
-2.81
-2.93
-2.85
-2.42
-1.69
-0.83
-0.04
0.49
0.76
0.84
0.90
1.03
1.21
1.34
1.31
1.11
0.80
0.52
0.40
0.50
0.78
1.14
1.46
1.66
1.76
1.80
1.86
2.01
2.26
2.54
2.75
2.79
2.60
2.19
1.59
0.90
0.24
-0.34
-0.77
-1.04
-1.15
-1.11
-0.96
-0.75
-0.59
-0.58
-0.79
-1.22
-1.79
-2.37
-2.87
-3.28
-3.66
-4.09
-4.62
-5.22
-5.78
-6.21
-6.42
-6.43
-6.28
-6.04
-5.77
-5.48
-5.13
-4.66
-4.00
-3.15
-2.18
-1.22
-0.42
0.14
0.48
0.69
0.85
0.98
1.03
0.89
0.51
-0.05
-0.66
-1.13
-1.36
-1.35
-1.18
-0.94
-0.65
-0.28
0.23
0.82
1.38
1.77
1.87
1.72
1.43
1.17
1.05
1.06
1.10
1.06
0.85
0.46
-0.10
-0.79
-1.60
-2.51
-3.44
-4.33
-5.06
-5.57
-5.80
-5.75
-5.45
-4.93
-4.20
-3.31
-2.34
-1.41
-0.63
-0.12
0.07
-0.05
-0.41
-0.90
-1.37
-1.64
-1.53
-0.94
0.13
1.57
3.16
4.69
5.96
6.89
7.42
7.53
7.18
6.38
5.21
3.84
2.47
1.30
0.40
-0.21
-0.58
-0.75
-0.78
-0.75
-0.74
-0.88
-1.25
-1.87
-2.65
-3.47
-4.17
-4.66
-4.92
-4.94
-4.77
-4.45
-4.03
-3.58
-3.15
-2.77
-2.44
-2.09
-1.65
-1.04
-0.17
0.97
2.35
3.88
5.40
6.72
7.67
8.16
8.16
7.75
7.08
6.32
5.61
4.99
4.46
3.99
3.54
3.12
2.77
2.48
2.25
2.01
1.71
1.33
0.89
0.45
0.04
-0.30
-0.60
-0.84
-0.95
-0.89
-0.61
-0.17
0.31
0.66
0.78
0.65
0.35
-0.04
-0.48
-1.00
-1.69
-2.56
-3.54
-4.44
-5.03
-5.15
-4.76
-3.96
-2.90
-1.76
-0.63
0.43
1.39
2.22
2.86
3.25
3.38
3.30
3.09
2.89
2.75
2.69
2.71
2.74
2.78
2.83
2.93
3.09
3.25
3.36
3.36
3.27
3.15
3.10
3.16
3.31
3.46
3.47
3.28
2.86
2.26
1.54
0.71
-0.18
-1.08
-1.92
-2.59
-3.06
-3.41
-3.79
-4.36
-5.13
-5.94
-6.54
-6.71
-6.42
-5.83
-5.20
-4.73
-4.45
-4.22
-3.80
-3.03
-1.89
-0.49
0.95
2.17
3.00
3.40
3.42
3.24
3.06
3.01
3.07
3.08
2.86
2.23
1.17
-0.21
-1.72
-3.18
-4.47
-5.54
-6.41
-7.15
-7.87
-8.71
-9.81
-11.22
-12.88
-14.52
-15.73
-16.08
-15.24
-13.18
-10.16
-6.72
-3.44
-0.82
0.92
1.82
2.10
2.03
1.90
1.92
2.25
2.99
4.12
5.47
6.70
7.48
7.62
7.15
6.34
5.58
5.15
5.15
5.45
5.80
5.98
5.89
5.61
5.37
5.49
6.29
8.03
10.79
14.44
18.63
22.84
26.50
29.10
30.34
30.18
28.77
26.44
23.53
20.36
17.16
14.10
11.29
8.86
6.88
5.41
4.41
3.80
3.49
3.41
3.61
4.24
5.44
7.31
9.78
12.66
15.63
18.33
20.47
21.89
22.59
22.61
22.04
20.92
19.31
17.35
15.32
13.62
12.66
12.66
13.49
14.63
15.37
15.01
13.14
9.78
5.24
-0.02
-5.55
-10.98
-15.96
-20.02
-22.61
-23.23
-21.69
-18.31
-13.84
-9.29
-5.61
-3.49
-3.21
-4.69
-7.54
-11.11
-14.56
-16.99
-17.69
-16.33
-13.16
-8.92
-4.53
-0.71
2.22
4.35
5.95
7.18
8.00
8.30
8.11
7.77
7.90
9.04
11.32
14.26
16.89
18.28
17.90
15.96
13.20
10.53
8.64
7.75
7.61
7.72
7.50
6.48
4.40
1.32
-2.29
-5.52
-7.25
-6.54
-3.12
2.18
7.41
10.04
7.91
0.25
-11.74
-25.08
-36.08
-41.75
-41.02
-34.99
-26.37
-18.17
-12.49
-9.98
-10.05
-11.57
-13.66
-16.02
-18.79
-22.14
-25.85
-29.37
-32.05
-33.52
-33.96
-33.96
-34.19
-34.96
-36.04
-36.78
-36.57
-35.22
-33.04
-30.62
-28.26
-25.63
-21.89
-16.11
-8.00
1.81
11.94
21.01
28.20
33.59
37.93
41.92
45.70
48.64
49.66
47.84
42.87
35.26
26.14
17.02
9.34
4.32
2.59
3.99
7.54
11.63
14.58
15.28
13.66
10.61
7.50
5.47
4.87
5.26
5.80
5.78
4.98
3.67
2.22
0.84
-0.63
-2.52
-5.05
-8.16
-11.42
-14.26
-16.22
-17.08
-16.92
-15.98
-14.60
-13.08
-11.66
-10.46
-9.48
-8.54
-7.35
-5.59
-3.08
0.20
4.03
8.10
12.05
15.51
18.16
19.66
19.85
18.75
16.70
14.26
12.02
10.35
9.27
8.49
7.57
6.17
4.22
1.89
-0.57
-2.92
-5.02
-6.85
-8.40
-9.66
-10.61
-11.25
-11.61
-11.72
-11.58
-11.16
-10.45
-9.39
-7.97
-6.17
-4.02
-1.60
0.91
3.16
4.76
5.37
4.83
3.31
1.28
-0.70
-2.13
-2.81
-2.89
-2.77
-2.89
-3.54
-4.69
-6.05
-7.14
-7.54
-7.00
-5.54
-3.51
-1.61
-0.90
-2.63
-7.88
-17.01
-29.32
-42.92
-55.21
-63.82
-67.49
-66.58
-62.83
-58.48
-55.18
-53.28
-51.92
-49.71
-45.72
-39.87
-32.78
-25.07
-16.84
-7.83
1.95
11.59
19.34
23.52
23.74
21.48
19.50
20.29
24.64
31.20
37.40
41.10
41.75
40.34
38.14
35.58
31.88
26.05
18.27
10.52
5.88
6.58
12.39
20.25
25.79
25.65
19.41
9.67
0.48
-5.10
-6.60
-6.11
-6.69
-10.37
-16.97
-24.41
-30.07
-32.35
-31.42
-28.77
-26.20
-24.68
-24.02
-23.19
-21.01
-16.80
-10.58
-2.95
5.26
13.31
20.81
27.70
34.24
40.67
46.94
52.45
56.11
56.76
53.76
47.46
39.12
30.40
22.62
16.27
11.01
6.24
1.61
-2.69
-6.08
-8.06
-8.56
-7.92
-6.66
-5.15
-3.57
-2.07
-0.93
-0.59
-1.36
-3.17
-5.40
-7.18
-7.76
-6.89
-4.97
-2.85
-1.42
-1.21
-2.25
-4.02
-5.79
-6.87
-6.84
-5.74
-3.93
-1.90
0.01
1.78
3.55
5.39
6.98
7.51
5.99
1.79
-4.84
-12.68
-19.90
-24.83
-26.53
-24.98
-20.67
-13.96
-4.67
7.78
23.75
42.64
62.61
80.87
94.46
101.21
100.20
91.72
76.87
57.10
34.05
9.69
-13.70
-33.66
-48.24
-56.66
-59.80
-59.94
-59.94
-62.14
-67.47
-75.31
-83.92
-91.36
-96.18
-97.75
-96.04
-91.28
-83.57
-72.89
-59.29
-43.14
-25.43
-7.57
8.97
23.18
34.92
45.04
55.10
66.68
80.69
96.83
113.61
128.79
140.19
146.54
147.80
145.03
139.77
133.32
126.21
118.29
108.98
97.88
85.11
71.35
57.59
44.72
33.16
22.72
12.72
2.29
-9.37
-22.70
-37.83
-54.61
-72.65
-91.22
-109.13
-124.55
-135.27
-139.19
-135.09
-123.27
-105.53
-84.70
-63.63
-44.49
-28.49
-16.05
-7.30
-2.29
-0.92
-2.67
-6.59
-11.45
-16.26
-20.57
-24.39
-27.88
-30.91
-32.94
-33.29
-31.63
-28.19
-23.72
-19.10
-14.99
-11.76
-9.66
-9.11
-10.68
-14.81
-21.37
-29.48
-37.69
-44.60
-49.40
-52.05
-53.01
-52.65
-50.86
-47.12
-41.02
-32.94
-24.28
-17.01
-12.75
-11.85
-13.17
-14.69
-14.49
-11.68
-6.62
-0.45
5.62
10.91
15.34
19.23
22.95
26.74
30.67
34.76
38.90
42.80
45.98
47.90
48.11
46.51
43.24
38.60
32.83
26.08
18.53
10.46
2.38
-5.15
-11.61
-16.75
-20.62
-23.56
-25.99
-28.33
-30.86
-33.66
-36.73
-39.94
-43.06
-45.70
-47.30
-47.22
-45.03
-40.78
-35.14
-29.25
-24.33
-21.15
-19.76
-19.52
-19.57
-19.21
-18.17
-16.53
-14.44
-11.86
-8.56
-4.34
0.75
6.25
11.42
15.54
18.22
19.45
19.53
18.91
18.02
17.27
16.98
17.45
18.85
21.17
24.14
27.29
30.06
31.92
32.48
31.51
28.99
25.08
20.24
15.12
10.49
7.06
5.21
4.92
5.76
7.08
8.25
8.85
8.67
7.67
5.91
3.44
0.39
-3.00
-6.35
-9.28
-11.45
-12.77
-13.31
-13.28
-12.91
-12.35
-11.64
-10.76
-9.67
-8.35
-6.81
-5.06
-3.20
-1.33
0.44
2.05
3.51
4.87
6.15
7.26
8.03
8.25
7.80
6.78
5.41
3.99
2.77
1.82
1.08
0.42
-0.29
-1.05
-1.85
-2.65
-3.46
-4.26
-4.99
-5.49
-5.51
-4.85
-3.43
-1.37
1.02
3.33
5.21
6.43
6.93
6.81
6.31
5.69
5.20
4.95
4.94
5.01
5.03
4.92
4.68
4.39
4.09
3.71
3.15
2.33
1.28
0.17
-0.82
-1.56
-2.08
-2.53
-3.05
-3.66
-4.28
-4.73
-4.96
-5.07
-5.32
-6.00
-7.28
-9.07
-11.06
-12.79
-13.88
-14.07
-13.38
-12.00
-10.26
-8.44
-6.73
-5.16
-3.68
-2.18
-0.63
0.89
2.23
3.17
3.52
3.15
2.00
0.17
-2.09
-4.40
-6.29
-7.38
-7.52
-6.81
-5.57
-4.15
-2.81
-1.57
-0.33
1.01
2.45
3.83
4.88
5.38
5.25
4.58
3.57
2.45
1.42
0.55
-0.16
-0.72
-1.08
-1.17
-0.85
-0.04
1.18
2.63
4.01
5.05
5.61
5.69
5.36
4.69
3.76
2.68
1.66
1.04
1.16
2.17
3.91
5.95
7.80
9.12
9.87
10.26
10.56
10.87
11.10
11.06
10.63
9.84
8.83
7.71
6.48
5.05
3.31
1.31
-0.74
-2.48
-3.54
-3.69
-2.81
-1.02
1.45
4.22
6.91
9.21
10.98
12.26
13.20
13.94
14.50
14.71
14.30
13.08
11.07
8.55
5.97
3.72
2.05
0.95
0.25
-0.25
-0.68
-1.10
-1.48
-1.84
-2.22
-2.70
-3.33
-4.13
-5.08
-6.10
-7.13
-8.08
-8.82
-9.17
-8.97
-8.07
-6.41
-4.03
-1.06
2.29
5.77
9.10
12.08
14.58
16.64
18.38
19.96
21.48
22.91
24.09
24.87
25.19
25.13
24.87
24.60
24.45
24.42
24.48
24.52
24.49
24.31
23.88
23.02
21.53
19.24
16.17
12.57
8.86
5.51
2.84
0.93
-0.31
-1.06
-1.42
-1.34
-0.72
0.42
1.86
3.13
3.65
2.99
1.05
-1.83
-5.03
-7.92
-10.06
-11.36
-12.03
-12.40
-12.68
-12.88
-12.82
-12.30
-11.27
-9.90
-8.50
-7.38
-6.68
-6.32
-6.09
-5.77
-5.28
-4.69
-4.18
-3.98
-4.21
-4.93
-6.09
-7.58
-9.26
-10.96
-12.48
-13.62
-14.14
-13.87
-12.72
-10.73
-8.07
-5.05
-1.99
0.83
3.19
5.00
6.21
6.85
6.96
6.63
6.02
5.30
4.69
4.33
4.25
4.38
4.59
4.76
4.84
4.86
4.89
4.95
4.98
4.84
4.41
3.64
2.59
1.40
0.21
-0.89
-1.86
-2.74
-3.53
-4.22
-4.75
-5.00
-4.88
-4.30
-3.25
-1.78
-0.01
1.92
3.86
5.64
7.13
8.16
8.63
8.48
7.76
6.64
5.35
4.11
3.09
2.34
1.79
1.36
0.97
0.62
0.34
0.21
0.22
0.35
0.49
0.54
0.45
0.29
0.13
0.04
-0.04
-0.25
-0.71
-1.48
-2.42
-3.31
-3.88
-3.92
-3.39
-2.34
-0.91
0.73
2.38
3.86
5.04
5.86
6.36
6.64
6.76
6.73
6.49
5.97
5.21
4.37
3.66
3.27
3.24
3.49
3.87
4.24
4.53
4.70
4.72
4.55
4.10
3.36
2.38
1.33
0.35
-0.44
-1.06
-1.60
-2.18
-2.90
-3.75
-4.66
-5.51
-6.20
-6.58
-6.54
-6.00
-4.97
-3.55
-1.94
-0.34
1.11
2.35
3.41
4.28
4.94
5.33
5.41
5.20
4.80
4.33
3.93
3.63
3.47
3.40
3.39
3.43
3.46
3.43
3.29
3.03
2.69
2.33
1.98
1.66
1.34
1.00
0.61
0.20
-0.24
-0.70
-1.25
-1.96
-2.90
-4.02
-5.16
-6.08
-6.52
-6.35
-5.58
-4.40
-3.05
-1.74
-0.58
0.43
1.35
2.24
3.07
3.76
4.21
4.37
4.28
4.02
3.70
3.37
3.05
2.71
2.35
2.01
1.76
1.65
1.71
1.93
2.23
2.55
2.82
2.98
2.97
2.75
2.29
1.63
0.83
0.01
-0.73
-1.35
-1.84
-2.26
-2.66
-3.11
-3.63
-4.25
-4.96
-5.76
-6.62
-7.46
-8.19
-8.63
-8.66
-8.14
-7.05
-5.47
-3.55
-1.49
0.46
2.05
3.11
3.54
3.37
2.78
2.03
1.37
0.96
0.84
0.95
1.24
1.66
2.19
2.82
3.49
4.11
4.58
4.86
5.01
5.15
5.37
5.71
6.10
6.40
6.47
6.20
5.56
4.59
3.37
2.02
0.62
-0.77
-2.14
-3.53
-4.97
-6.48
-8.00
-9.37
-10.42
-11.00
-10.99
-10.41
-9.31
-7.77
-5.92
-3.91
-1.92
-0.14
1.30
2.35
3.10
3.66
4.18
4.69
5.18
5.56
5.77
5.80
5.71
5.54
5.32
5.07
4.76
4.39
4.00
3.64
3.40
3.33
3.46
3.74
4.04
4.21
4.15
3.80
3.22
2.53
1.86
1.29
0.81
0.33
-0.25
-1.00
-1.91
-2.92
-3.88
-4.70
-5.30
-5.62
-5.62
-5.28
-4.54
-3.42
-1.97
-0.35
1.25
2.65
3.75
4.55
5.09
5.46
5.70
5.82
5.85
5.78
5.68
5.57
5.48
5.40
5.34
5.32
5.38
5.54
5.76
5.96
6.03
5.91
5.61
5.24
4.93
4.79
4.79
4.85
4.77
4.42
3.73
2.75
1.64
0.56
-0.36
-1.09
-1.68
-2.21
-2.76
-3.37
-4.05
-4.78
-5.50
-6.13
-6.57
-6.76
-6.64
-6.22
-5.49
-4.44
-3.01
-1.19
1.00
3.44
5.88
8.06
9.72
10.67
10.82
10.26
9.17
7.89
6.75
6.06
5.96
6.38
7.01
7.46
7.37
6.55
5.08
3.25
1.49
0.16
-0.54
-0.66
-0.41
-0.10
0.07
0.03
-0.16
-0.36
-0.53
-0.69
-0.96
-1.44
-2.11
-2.87
-3.58
-4.20
-4.79
-5.50
-6.46
-7.66
-8.95
-10.07
-10.76
-10.83
-10.22
-8.99
-7.31
-5.36
-3.35
-1.42
0.32
1.83
3.10
4.15
4.93
5.41
5.55
5.35
4.87
4.25
3.62
3.10
2.78
2.69
2.78
2.95
3.08
3.04
2.76
2.22
1.46
0.60
-0.22
-0.89
-1.32
-1.52
-1.56
-1.55
-1.56
-1.65
-1.79
-1.94
-2.06
-2.16
-2.24
-2.35
-2.51
-2.71
-2.93
-3.16
-3.41
-3.74
-4.18
-4.73
-5.35
-5.91
-6.31
-6.45
-6.26
-5.74
-4.89
-3.76
-2.46
-1.15
-0.03
0.73
1.08
1.07
0.86
0.59
0.34
0.10
-0.20
-0.57
-0.94
-1.17
-1.13
-0.81
-0.29
0.21
0.52
0.56
0.35
-0.01
-0.46
-0.94
-1.39
-1.67
-1.61
-1.10
-0.17
0.89
1.60
1.52
0.39
-1.68
-4.26
-6.80
-8.82
-10.05
-10.47
-10.20
-9.40
-8.29
-7.09
-6.05
-5.33
-4.91
-4.56
-3.90
-2.62
-0.66
1.69
3.91
5.49
6.17
6.03
5.45
4.94
4.91
5.60
6.94
8.62
10.20
11.12
10.97
9.55
7.07
4.07
1.33
-0.44
-0.78
0.31
2.42
4.88
7.07
8.59
9.33
9.37
8.85
7.79
6.14
3.87
1.09
-1.93
-4.84
-7.38
-9.55
-11.63
-13.94
-16.71
-19.81
-22.72
-24.74
-25.16
-23.61
-20.13
-15.22
-9.56
-3.88
1.29
5.62
9.01
11.47
13.04
13.79
13.85
13.42
12.80
12.26
12.02
12.11
12.41
12.70
12.76
12.43
11.73
10.73
9.62
8.59
7.90
7.76
8.25
9.18
10.13
10.50
9.88
8.23
5.97
3.72
2.03
1.01
0.38
-0.34
-1.47
-2.98
-4.57
-5.86
-6.68
-7.19
-7.74
-8.65
-10.04
-11.72
-13.34
-14.48
-14.88
-14.49
-13.47
-12.12
-10.79
-9.74
-9.05
-8.64
-8.29
-7.81
-7.08
-6.13
-5.12
-4.24
-3.68
-3.56
-4.01
-5.10
-6.83
-9.08
-11.56
-13.90
-15.72
-16.81
-17.26
-17.41
-17.69
-18.43
-19.72
-21.29
-22.70
-23.44
-23.13
-21.57
-18.80
-14.99
-10.40
-5.32
-0.02
5.23
10.20
14.73
18.78
22.44
25.95
29.61
33.65
38.12
42.81
47.28
51.06
53.73
55.16
55.43
54.76
53.37
51.34
48.61
45.06
40.67
35.55
30.00
24.42
19.09
14.13
9.46
4.90
0.27
-4.51
-9.47
-14.56
-19.75
-24.95
-29.95
-34.40
-37.84
-39.84
-40.19
-38.96
-36.42
-32.92
-28.73
-24.07
-19.13
-14.29
-10.11
-7.27
-6.33
-7.50
-10.52
-14.62
-18.74
-21.78
-22.97
-22.01
-19.21
-15.24
-10.89
-6.85
-3.49
-0.97
0.69
1.43
1.23
0.13
-1.54
-3.25
-4.37
-4.44
-3.39
-1.54
0.48
2.08
2.89
2.87
2.29
1.53
0.95
0.71
0.76
0.93
0.94
0.64
-0.02
-0.90
-1.79
-2.50
-2.94
-3.14
-3.17
-3.10
-2.87
-2.39
-1.63
-0.64
0.39
1.21
1.64
1.64
1.32
0.86
0.42
0.06
-0.22
-0.47
-0.72
-1.00
-1.35
-1.78
-2.30
-2.87
-3.39
-3.74
-3.85
-3.74
-3.50
-3.27
-3.13
-3.09
-3.10
-3.10
-3.08
-3.06
-3.11
-3.30
-3.67
-4.24
-5.00
-5.90
-6.89
-7.84
-8.59
-8.95
-8.79
-8.07
-6.84
-5.25
-3.48
-1.67
0.05
1.64
3.05
4.24
5.19
5.83
6.11
6.01
5.55
4.80
3.89
2.97
2.19
1.67
1.39
1.31
1.33
1.37
1.40
1.45
1.52
1.57
1.48
1.13
0.45
-0.52
-1.58
-2.51
-3.16
-3.52
-3.74
-3.98
-4.36
-4.81
-5.18
-5.32
-5.20
-4.93
-4.64
-4.41
-4.19
-3.82
-3.12
-2.05
-0.74
0.57
1.65
2.38
2.78
2.97
3.04
3.07
3.06
3.03
3.01
3.09
3.37
3.85
4.45
5.04
5.48
5.71
5.70
5.49
5.13
4.62
3.94
3.11
2.17
1.19
0.27
-0.54
-1.19
-1.68
-2.06
-2.39
-2.75
-3.15
-3.59
-3.99
-4.29
-4.42
-4.32
-4.00
-3.44
-2.66
-1.65
-0.45
0.90
2.31
3.69
4.92
5.93
6.63
6.95
6.86
6.35
5.52
4.53
3.58
2.84
2.40
2.19
2.10
1.98
1.76
1.44
1.11
0.89
0.82
0.94
1.22
1.60
2.02
2.38
2.58
2.55
2.28
1.83
1.32
0.84
0.42
0.02
-0.49
-1.18
-2.06
-3.03
-3.93
-4.66
-5.19
-5.61
-5.97
-6.28
-6.42
-6.17
-5.33
-3.89
-2.00
-0.03
1.67
2.84
3.42
3.57
3.53
3.52
3.60
3.73
3.79
3.66
3.35
2.94
2.55
2.29
2.19
2.20
2.23
2.22
2.14
1.99
1.79
1.53
1.22
0.86
0.53
0.28
0.18
0.21
0.25
0.16
-0.17
-0.79
-1.63
-2.58
-3.53
-4.42
-5.23
-5.93
-6.45
-6.70
-6.59
-6.07
-5.20
-4.08
-2.82
-1.51
-0.17
1.22
2.69
4.26
5.88
7.45
8.81
9.84
10.43
10.56
10.28
9.69
8.88
7.89
6.73
5.40
3.94
2.42
0.94
-0.48
-1.84
-3.19
-4.57
-5.99
-7.45
-8.91
-10.29
-11.51
-12.46
-13.06
-13.23
-12.98
-12.35
-11.39
-10.14
-8.56
-6.61
-4.26
-1.52
1.50
4.58
7.42
9.69
11.05
11.29
10.37
8.47
5.96
3.34
1.08
-0.42
-1.00
-0.73
0.15
1.28
2.29
2.90
2.97
2.53
1.71
0.68
-0.47
-1.66
-2.93
-4.27
-5.63
-6.84
-7.67
-7.95
-7.66
-6.93
-6.01
-5.11
-4.31
-3.49
-2.45
-1.07
0.61
2.42
4.11
5.54
6.70
7.68
8.55
9.29
9.75
9.74
9.17
8.09
6.71
5.31
4.10
3.18
2.53
2.03
1.58
1.09
0.53
-0.12
-0.82
-1.53
-2.20
-2.76
-3.18
-3.47
-3.69
-3.96
-4.34
-4.84
-5.37
-5.82
-6.05
-6.00
-5.68
-5.20
-4.68
-4.27
-4.03
-3.96
-3.99
-4.01
-3.89
-3.56
-2.97
-2.15
-1.12
0.04
1.21
2.24
3.02
3.45
3.53
3.33
2.94
2.47
1.91
1.26
0.50
-0.32
-1.06
-1.57
-1.72
-1.51
-1.08
-0.66
-0.46
-0.58
-1.03
-1.75
-2.64
-3.67
-4.82
-6.09
-7.46
-8.91
-10.41
-11.92
-13.38
-14.72
-15.82
-16.62
-17.06
-17.16
-16.92
-16.37
-15.50
-14.31
-12.77
-10.74
-8.02
-4.31
0.61
6.75
13.69
20.72
26.99
31.82
34.96
36.60
37.24
37.39
37.41
37.38
37.22
36.80
36.06
35.02
33.72
32.21
30.51
28.63
26.65
24.69
22.89
21.36
20.12
19.03
17.88
16.38
14.27
11.37
7.67
3.25
-1.67
-6.81
-11.84
-16.46
-20.45
-23.71
-26.26
-28.26
-29.90
-31.36
-32.68
-33.74
-34.33
-34.16
-33.08
-31.11
-28.51
-25.67
-23.01
-20.79
-19.08
-17.73
-16.52
-15.27
-13.97
-12.72
-11.73
-11.15
-11.02
-11.24
-11.63
-12.03
-12.31
-12.41
-12.27
-11.81
-10.95
-9.62
-7.83
-5.73
-3.64
-1.96
-1.02
-0.97
-1.62
-2.47
-2.91
-2.45
-0.87
1.66
4.75
7.88
10.68
12.93
14.59
15.74
16.50
17.04
17.51
18.00
18.46
18.68
18.32
17.04
14.65
11.20
6.97
2.40
-2.02
-5.81
-8.57
-10.03
-10.11
-9.01
-7.18
-5.20
-3.62
-2.71
-2.39
-2.27
-1.87
-0.79
1.11
3.72
6.78
9.99
13.07
15.82
18.19
20.25
22.22
24.40
27.00
29.98
32.89
34.98
35.33
33.26
28.54
21.59
13.27
4.70
-3.08
-9.43
-14.09
-17.25
-19.23
-20.40
-20.96
-20.98
-20.48
-19.55
-18.42
-17.36
-16.61
-16.24
-16.12
-16.07
-15.95
-15.78
-15.70
-15.82
-16.14
-16.50
-16.66
-16.44
-15.82
-14.93
-13.96
-13.07
-12.27
-11.52
-10.74
-9.96
-9.26
-8.71
-8.32
-7.98
-7.52
-6.82
-5.91
-4.93
-4.05
-3.30
-2.48
-1.28
0.50
2.82
5.27
7.31
8.50
8.69
8.09
7.05
5.92
4.75
3.40
1.63
-0.60
-3.11
-5.44
-7.14
-7.93
-7.81
-7.05
-5.98
-4.89
-3.94
-3.17
-2.57
-2.13
-1.87
-1.74
-1.59
-1.18
-0.26
1.31
3.47
5.92
8.25
10.11
11.33
11.99
12.39
12.89
13.75
15.01
16.47
17.80
18.65
18.82
18.31
17.25
15.82
14.18
12.36
10.33
8.07
5.60
3.03
0.50
-1.86
-3.98
-5.85
-7.46
-8.77
-9.64
-9.96
-9.71
-9.04
-8.23
-7.62
-7.43
-7.64
-8.00
-8.08
-7.51
-6.06
-3.81
-1.04
1.86
4.48
6.50
7.78
8.35
8.42
8.29
8.27
8.48
8.82
8.95
8.50
7.21
5.05
2.22
-0.95
-4.20
-7.30
-10.08
-12.32
-13.73
-14.07
-13.25
-11.47
-9.18
-6.95
-5.28
-4.42
-4.32
-4.67
-5.08
-5.21
-4.90
-4.16
-3.11
-1.88
-0.55
0.82
2.21
3.50
4.57
5.26
5.44
5.08
4.26
3.16
2.04
1.19
0.81
0.96
1.55
2.33
3.07
3.62
4.02
4.40
4.91
5.61
6.41
7.18
7.77
8.07
8.02
7.58
6.70
5.40
3.81
2.17
0.81
-0.03
-0.27
-0.09
0.17
0.17
-0.34
-1.41
-2.88
-4.45
-5.81
-6.66
-6.80
-6.19
-4.96
-3.32
-1.46
0.46
2.39
4.29
6.11
7.71
8.90
9.54
9.55
8.91
7.62
5.63
2.89
-0.57
-4.51
-8.52
-12.04
-14.67
-16.17
-16.59
-16.11
-14.90
-13.11
-10.80
-8.03
-4.94
-1.80
1.15
3.73
5.91
7.81
9.58
11.27
12.75
13.76
14.04
13.47
12.21
10.66
9.25
8.29
7.82
7.64
7.44
7.02
6.33
5.52
4.80
4.30
4.03
3.86
3.62
3.19
2.54
1.72
0.90
0.23
-0.22
-0.46
-0.61
-0.84
-1.24
-1.85
-2.63
-3.54
-4.57
-5.73
-6.93
-7.97
-8.52
-8.29
-7.16
-5.31
-3.11
-1.04
0.52
1.45
1.86
1.98
2.00
2.01
1.96
1.79
1.48
1.12
0.82
0.69
0.68
0.65
0.41
-0.16
-1.02
-1.98
-2.77
-3.22
-3.30
-3.13
-2.95
-2.94
-3.16
-3.58
-4.08
-4.51
-4.83
-5.06
-5.29
-5.63
-6.18
-6.95
-7.89
-8.87
-9.74
-10.39
-10.78
-10.89
-10.73
-10.22
-9.28
-7.82
-5.85
-3.53
-1.07
1.35
3.69
6.03
8.44
10.79
12.71
13.64
13.12
11.06
7.82
4.06
0.45
-2.62
-5.24
-7.82
-10.83
-14.49
-18.63
-22.75
-26.18
-28.31
-28.66
-26.99
-23.30
-17.84
-11.13
-3.80
3.55
10.55
17.09
23.29
29.21
34.75
39.59
43.30
45.65
46.69
46.78
46.35
45.70
44.81
43.44
41.32
38.31
34.52
30.26
25.94
21.89
18.27
15.09
12.31
9.93
8.10
7.04
6.90
7.64
9.04
10.73
12.36
13.72
14.79
15.69
16.48
17.15
17.50
17.28
16.34
14.72
12.72
10.78
9.31
8.51
8.29
8.33
8.30
8.05
7.62
7.14
6.68
6.11
5.19
3.83
2.21
0.88
0.42
1.10
2.59
4.05
4.53
3.45
0.94
-2.19
-4.93
-6.51
-6.80
-6.27
-5.72
-5.87
-7.01
-9.03
-11.50
-13.98
-16.23
-18.26
-20.25
-22.40
-24.77
-27.24
-29.56
-31.51
-33.10
-34.59
-36.43
-39.00
-42.37
-46.12
-49.54
-51.90
-52.80
-52.33
-50.92
-49.06
-46.99
-44.66
-41.81
-38.25
-34.03
-29.38
-24.59
-19.81
-15.01
-10.09
-5.08
-0.19
4.21
7.77
10.31
11.85
12.51
12.50
11.98
11.08
9.97
8.81
7.80
7.09
6.74
6.70
6.84
6.99
6.99
6.69
6.08
5.22
4.24
3.33
2.62
2.16
1.88
1.63
1.25
0.67
-0.11
-1.03
-2.01
-3.00
-3.99
-4.92
-5.75
-6.40
-6.84
-7.00
-6.86
-6.40
-5.60
-4.50
-3.22
-1.94
-0.85
-0.09
0.33
0.50
0.50
0.41
0.28
0.17
0.17
0.42
0.99
1.80
2.65
3.29
3.56
3.45
3.10
2.71
2.38
2.14
1.95
1.75
1.53
1.27
0.94
0.50
-0.15
-1.02
-2.08
-3.21
-4.29
-5.20
-5.83
-6.14
-6.06
-5.58
-4.77
-3.74
-2.65
-1.66
-0.82
-0.10
0.59
1.31
2.04
2.66
3.04
3.12
2.92
2.59
2.28
2.12
2.12
2.22
2.32
2.33
2.18
1.91
1.55
1.14
0.68
0.15
-0.49
-1.25
-2.09
-2.92
-3.63
-4.10
-4.30
-4.28
-4.12
-3.96
-3.91
-4.05
-4.38
-4.84
-5.29
-5.61
-5.70
-5.52
-5.14
-4.64
-4.06
-3.38
-2.54
-1.47
-0.23
1.00
2.00
2.59
2.75
2.62
2.44
2.40
2.53
2.74
2.90
2.89
2.74
2.53
2.40
2.41
2.60
2.95
3.42
3.93
4.34
4.47
4.18
3.38
2.11
0.54
-1.07
-2.49
-3.54
-4.21
-4.58
-4.85
-5.24
-5.93
-7.00
-8.36
-9.82
-11.14
-12.11
-12.64
-12.74
-12.49
-11.94
-11.09
-9.90
-8.32
-6.41
-4.31
-2.28
-0.62
0.44
0.79
0.51
-0.16
-0.93
-1.48
-1.65
-1.45
-1.13
-1.12
-1.89
-3.78
-6.86
-10.80
-14.93
-18.37
-20.32
-20.28
-18.22
-14.52
-9.84
-4.79
0.17
4.79
8.92
12.37
14.92
16.39
16.82
16.51
15.97
15.72
16.06
16.99
18.22
19.35
20.00
19.98
19.32
18.17
16.78
15.37
14.08
12.94
11.88
10.77
9.50
8.03
6.42
4.80
3.35
2.27
1.76
1.97
3.00
4.83
7.29
10.12
12.99
15.62
17.86
19.69
21.13
22.20
22.82
22.83
22.07
20.45
18.05
15.07
11.77
8.46
5.44
3.01
1.41
0.81
1.17
2.20
3.43
4.31
4.43
3.60
1.90
-0.38
-2.90
-5.34
-7.47
-9.13
-10.28
-10.94
-11.25
-11.40
-11.58
-11.87
-12.27
-12.65
-12.87
-12.82
-12.52
-12.05
-11.52
-11.00
-10.49
-9.98
-9.44
-8.91
-8.46
-8.22
-8.23
-8.47
-8.82
-9.19
-9.46
-9.65
-9.81
-10.00
-10.26
-10.57
-10.82
-10.90
-10.73
-10.24
-9.46
-8.42
-7.15
-5.71
-4.12
-2.45
-0.76
0.88
2.39
3.71
4.83
5.68
6.24
6.48
6.40
6.05
5.51
4.87
4.23
3.62
3.08
2.65
2.37
2.26
2.31
2.44
2.54
2.50
2.32
2.04
1.80
1.67
1.65
1.64
1.48
1.06
0.38
-0.49
-1.43
-2.30
-3.05
-3.64
-4.03
-4.17
-4.01
-3.50
-2.68
-1.65
-0.55
0.50
1.44
2.28
3.02
3.69
4.29
4.77
5.10
5.24
5.22
5.09
4.95
4.85
4.80
4.78
4.75
4.66
4.52
4.35
4.17
3.94
3.60
3.10
2.42
1.61
0.77
-0.02
-0.71
-1.31
-1.90
-2.54
-3.33
-4.28
-5.36
-6.46
-7.39
-7.98
-8.08
-7.68
-6.84
-5.67
-4.27
-2.70
-1.00
0.73
2.35
3.67
4.53
4.83
4.60
4.00
3.22
2.50
1.97
1.70
1.69
1.89
2.23
2.69
3.22
3.77
4.22
4.44
4.33
3.87
3.18
2.46
1.87
1.49
1.25
1.01
0.63
0.07
-0.66
-1.50
-2.38
-3.27
-4.17
-5.01
-5.68
-6.01
-5.87
-5.18
-4.00
-2.51
-0.94
0.45
1.54
2.29
2.74
3.01
3.18
3.27
3.27
3.19
3.05
2.92
2.86
2.90
3.00
3.11
3.19
3.23
3.26
3.29
3.30
3.22
3.02
2.67
2.22
1.73
1.26
0.81
0.32
-0.25
-0.93
-1.70
-2.48
-3.26
-4.03
-4.81
-5.61
-6.37
-6.95
-7.23
-7.06
-6.44
-5.45
-4.21
-2.83
-1.36
0.18
1.81
3.41
4.82
5.84
6.33
6.27
5.80
5.17
4.57
4.15
3.96
3.96
4.11
4.35
4.60
4.76
4.72
4.39
3.77
2.93
2.02
1.16
0.42
-0.19
-0.74
-1.30
-1.91
-2.59
-3.35
-4.17
-5.07
-6.04
-7.05
-8.02
-8.86
-9.46
-9.71
-9.54
-8.94
-7.91
-6.48
-4.71
-2.69
-0.59
1.41
3.12
4.42
5.27
5.74
5.93
5.98
5.96
5.90
5.80
5.63
5.40
5.13
4.87
4.69
4.60
4.61
4.65
4.61
4.39
3.91
3.20
2.34
1.45
0.61
-0.14
-0.83
-1.49
-2.19
-2.93
-3.72
-4.53
-5.36
-6.16
-6.85
-7.31
-7.38
-6.99
-6.11
-4.82
-3.25
-1.56
0.11
1.64
2.92
3.86
4.41
4.61
4.54
4.33
4.10
3.89
3.73
3.62
3.60
3.67
3.80
3.91
3.90
3.68
3.24
2.62
1.95
1.30
0.71
0.20
-0.23
-0.59
-0.87
-1.14
-1.47
-2.00
-2.77
-3.81
-5.00
-6.20
-7.25
-8.03
-8.53
-8.74
-8.68
-8.36
-7.75
-6.83
-5.61
-4.13
-2.49
-0.82
0.75
2.06
3.03
3.59
3.78
3.69
3.49
3.35
3.38
3.61
3.98
4.37
4.66
4.77
4.69
4.45
4.13
3.81
3.56
3.37
3.22
3.07
2.86
2.60
2.28
1.91
1.44
0.86
0.10
-0.79
-1.73
-2.63
-3.36
-3.91
-4.24
-4.38
-4.33
-4.09
-3.65
-3.00
-2.17
-1.17
-0.06
1.13
2.31
3.37
4.21
4.72
4.88
4.73
4.38
3.96
3.60
3.39
3.37
3.53
3.85
4.26
4.63
4.89
4.93
4.73
4.29
3.70
3.08
2.50
1.98
1.48
0.91
0.19
-0.66
-1.58
-2.49
-3.34
-4.14
-4.95
-5.80
-6.71
-7.63
-8.47
-9.17
-9.61
-9.70
-9.37
-8.60
-7.45
-6.02
-4.48
-2.96
-1.54
-0.25
0.93
1.99
2.91
3.67
4.21
4.55
4.71
4.77
4.79
4.79
4.75
4.62
4.34
3.90
3.36
2.84
2.42
2.15
1.99
1.82
1.56
1.14
0.56
-0.18
-1.01
-1.88
-2.68
-3.33
-3.79
-4.10
-4.39
-4.78
-5.34
-6.01
-6.59
-6.93
-6.93
-6.65
-6.20
-5.68
-5.04
-4.17
-2.93
-1.29
0.60
2.47
4.01
5.04
5.53
5.63
5.53
5.40
5.32
5.31
5.32
5.31
5.29
5.31
5.40
5.58
5.82
6.00
6.02
5.81
5.39
4.82
4.20
3.64
3.15
2.70
2.22
1.61
0.80
-0.24
-1.49
-2.88
-4.27
-5.48
-6.35
-6.83
-6.97
-6.92
-6.87
-6.93
-7.13
-7.40
-7.60
-7.59
-7.23
-6.43
-5.13
-3.31
-1.05
1.46
3.98
6.29
8.26
9.85
11.10
12.06
12.67
12.83
12.42
11.40
9.83
7.89
5.80
3.74
1.79
-0.04
-1.80
-3.51
-5.11
-6.45
-7.31
-7.46
-6.81
-5.47
-3.77
-2.20
-1.23
-1.09
-1.71
-2.71
-3.56
-3.82
-3.27
-2.00
-0.34
1.34
2.75
3.80
4.58
5.28
5.98
6.63
7.05
7.00
6.31
5.02
3.32
1.57
0.12
-0.75
-0.91
-0.34
0.88
2.62
4.79
7.20
9.68
11.94
13.61
14.35
13.94
12.41
10.10
7.54
5.33
3.86
3.24
3.30
3.71
4.07
4.07
3.44
2.06
0.03
-2.16
-3.69
-3.58
-1.11
3.77
10.29
16.98
22.27
25.00
24.88
22.45
18.65
14.37
9.97
5.25
-0.18
-6.50
-13.21
-19.06
-22.25
-21.00
-14.20
-1.91
14.48
32.55
49.44
62.60
70.29
71.81
67.38
57.94
44.93
30.13
15.56
3.07
-6.16
-12.04
-15.65
-18.67
-22.43
-27.29
-32.36
-35.96
-36.68
-34.10
-28.86
-22.10
-14.78
-7.24
0.39
7.69
13.61
16.56
15.04
8.70
-1.22
-12.28
-21.81
-28.22
-31.17
-31.17
-28.80
-24.81
-19.72
-14.10
-8.84
-4.69
-2.81
-3.75
-7.10
-11.82
-17.54
-23.98
-30.64
-36.43
-39.17
-37.95
-32.73
-24.23
-14.15
-5.88
-2.53
-5.76
-15.09
-27.13
-39.42
-49.85
-56.66
-59.49
-60.58
-62.72
-68.04
-77.29
-88.73
-102.83
-120.79
-143.54
-160.14
-161.23
-143.12
-109.50
-77.55
-47.86
-20.04
4.10
25.34
41.27
49.17
49.46
46.29
45.83
54.29
71.19
91.08
106.65
111.51
102.44
81.27
53.82
27.49
9.53
2.22
4.48
13.54
25.65
36.83
44.01
45.76
42.61
37.35
32.18
28.74
27.94
29.65
33.11
37.47
41.98
45.88
48.60
49.07
46.81
42.56
38.02
35.18
35.33
38.45
43.28
47.91
50.29
49.07
44.00
35.97
26.91
19.38
15.80
17.69
24.86
35.22
45.31
51.40
50.97
43.65
31.32
17.26
4.79
-4.00
-8.90
-11.22
-12.97
-15.70
-19.92
-24.98
-29.67
-32.93
-34.42
-34.65
-34.58
-35.14
-36.67
-38.90
-41.14
-42.73
-43.36
-43.24
-42.88
-42.79
-43.11
-43.45
-43.05
-41.18
-37.57
-32.71
-27.62
-23.40
-20.68
-19.24
-18.15
-16.25
-12.76
-7.74
-2.03
3.08
6.38
7.23
5.68
2.39
-1.65
-5.37
-7.96
-9.00
-8.54
-6.99
-4.94
-2.84
-0.94
0.80
2.47
4.07
5.38
6.08
5.95
5.05
3.72
2.43
1.53
1.05
0.78
0.39
-0.38
-1.62
-3.22
-5.02
-6.87
-8.63
-10.16
-11.21
-11.54
-10.99
-9.56
-7.50
-5.10
-2.61
-0.08
2.54
5.26
7.78
9.56
9.99
8.80
6.29
3.31
0.90
-0.29
-0.30
0.17
0.15
-1.00
-3.23
-5.80
-7.64
-7.89
-6.39
-3.78
-1.20
0.18
-0.29
-2.54
-5.98
-9.92
-13.98
-18.20
-22.73
-27.54
-32.29
-36.50
-39.81
-42.17
-43.54
-43.54
-41.33
-35.89
-26.82
-15.09
-3.07
6.27
10.79
10.52
7.88
6.75
10.66
21.10
36.63
53.40
66.66
72.69
70.21
60.58
46.89
32.40
19.35
8.49
-0.36
-7.37
-12.12
-13.67
-11.26
-5.05
3.61
12.57
19.64
23.36
23.29
19.90
14.30
7.88
2.13
-1.67
-2.79
-1.25
2.24
6.60
10.98
15.01
18.72
22.11
24.81
26.04
25.08
21.78
16.85
11.55
7.14
4.20
2.46
0.96
-1.40
-5.41
-11.21
-18.19
-25.05
-29.99
-31.17
-27.24
-17.99
-4.70
10.00
22.83
30.84
32.40
27.67
18.49
7.73
-1.68
-7.59
-9.15
-6.84
-2.04
3.59
8.77
12.93
16.20
19.00
21.70
24.29
26.34
27.28
26.54
23.67
18.19
9.59
-2.54
-17.99
-35.53
-52.78
-66.81
-75.18
-76.97
-73.16
-66.22
-59.12
-54.34
-53.09
-55.09
-58.61
-60.82
-58.50
-48.99
-31.47
-7.70
18.09
40.54
55.23
60.32
57.03
48.72
39.15
30.91
24.98
21.03
18.39
16.62
15.60
15.32
15.54
15.83
15.71
14.84
12.94
9.73
4.91
-1.47
-8.58
-14.70
-17.53
-15.05
-6.55
6.83
22.14
35.44
42.88
41.91
32.04
15.12
-5.08
-23.80
-36.56
-40.49
-35.08
-22.24
-5.47
11.28
24.79
33.06
35.33
31.90
23.87
13.11
2.12
-6.35
-10.18
-8.65
-2.88
4.52
10.57
13.14
11.71
7.34
2.00
-2.44
-4.75
-4.56
-2.09
2.07
7.13
12.11
15.96
17.83
17.36
14.90
11.39
7.89
5.20
3.52
2.61
2.13
1.98
2.40
3.79
6.27
9.45
12.36
13.92
13.33
10.54
6.18
1.32
-3.03
-6.30
-8.43
-9.74
-10.62
-11.32
-11.82
-12.04
-11.89
-11.48
-11.02
-10.79
-10.97
-11.57
-12.50
-13.66
-15.09
-17.04
-19.77
-23.35
-27.39
-31.03
-33.16
-32.85
-29.76
-24.26
-17.37
-10.28
-4.02
0.91
4.51
7.17
9.36
11.39
13.28
14.84
15.75
15.73
14.67
12.64
9.90
6.73
3.39
0.01
-3.47
-7.22
-11.49
-16.48
-22.24
-28.59
-35.10
-41.26
-46.63
-51.03
-54.71
-58.15
-61.87
-66.06
-70.34
-73.73
-74.94
-72.73
-66.34
-55.68
-41.39
-24.59
-6.65
11.12
27.65
42.23
54.47
64.36
72.09
78.08
82.81
86.81
90.46
93.89
96.86
98.64
98.26
94.83
87.99
78.13
66.38
54.11
42.45
31.86
22.10
12.47
2.39
-8.29
-19.10
-29.15
-37.44
-43.22
-46.17
-46.40
-44.35
-40.65
-36.00
-31.12
-26.63
-23.00
-20.48
-19.09
-18.69
-19.09
-20.07
-21.39
-22.80
-24.00
-24.63
-24.41
-23.14
-20.76
-17.30
-12.84
-7.47
-1.45
4.70
10.29
14.60
17.27
18.46
18.85
19.31
20.48
22.47
24.91
27.20
28.85
29.68
29.82
29.47
28.79
27.79
26.45
24.81
22.96
20.98
18.85
16.38
13.40
9.86
5.94
2.01
-1.48
-4.22
-6.12
-7.30
-7.98
-8.33
-8.47
-8.45
-8.38
-8.39
-8.66
-9.26
-10.14
-11.19
-12.28
-13.33
-14.27
-14.97
-15.19
-14.60
-13.01
-10.43
-7.21
-3.85
-0.84
1.55
3.30
4.56
5.51
6.23
6.71
6.89
6.73
6.25
5.53
4.71
3.93
3.28
2.75
2.25
1.63
0.81
-0.11
-0.82
-0.94
-0.20
1.38
3.42
5.35
6.58
6.77
5.88
4.12
1.85
-0.61
-3.05
-5.32
-7.31
-8.87
-9.80
-9.95
-9.32
-8.10
-6.71
-5.63
-5.22
-5.56
-6.42
-7.39
-8.05
-8.15
-7.67
-6.80
-5.74
-4.60
-3.35
-1.90
-0.12
2.00
4.43
7.16
10.19
13.60
17.40
21.50
25.65
29.45
32.49
34.38
34.85
33.79
31.23
27.36
22.62
17.63
13.10
9.63
7.52
6.66
6.67
7.10
7.61
8.03
8.25
8.16
7.56
6.30
4.45
2.29
0.29
-1.19
-2.08
-2.60
-3.11
-3.87
-4.86
-5.79
-6.34
-6.28
-5.68
-4.78
-3.92
-3.38
-3.31
-3.67
-4.32
-5.07
-5.75
-6.29
-6.73
-7.15
-7.59
-8.02
-8.30
-8.28
-7.87
-7.11
-6.17
-5.23
-4.38
-3.62
-2.89
-2.17
-1.56
-1.19
-1.17
-1.43
-1.74
-1.82
-1.52
-0.91
-0.37
-0.33
-1.06
-2.46
-4.00
-4.97
-4.70
-2.89
0.33
4.38
8.46
11.74
13.53
13.53
11.89
9.20
6.28
3.82
1.99
0.34
-2.04
-6.08
-12.22
-20.15
-28.91
-37.20
-43.82
-47.92
-49.06
-47.24
-42.77
-36.25
-28.48
-20.31
-12.45
-5.34
0.86
6.19
10.70
14.34
17.06
18.84
19.80
20.17
20.22
20.12
19.87
19.33
18.33
16.82
14.99
13.26
12.15
12.06
13.08
14.90
16.92
18.40
18.74
17.60
15.00
11.22
6.78
2.29
-1.67
-4.69
-6.54
-7.29
-7.19
-6.58
-5.79
-5.02
-4.39
-3.89
-3.50
-3.19
-2.92
-2.64
-2.35
-2.08
-1.91
-1.94
-2.26
-2.89
-3.79
-4.87
-5.99
-7.01
-7.77
-8.13
-8.03
-7.49
-6.60
-5.49
-4.31
-3.21
-2.31
-1.68
-1.36
-1.32
-1.47
-1.73
-2.02
-2.35
-2.77
-3.34
-4.08
-4.89
-5.60
-6.00
-5.97
-5.53
-4.87
-4.24
-3.88
-3.92
-4.28
-4.77
-5.10
-5.09
-4.69
-4.06
-3.50
-3.31
-3.72
-4.70
-6.03
-7.27
-7.90
-7.51
-5.96
-3.56
-0.93
1.13
1.95
1.20
-0.97
-4.00
-7.04
-9.16
-9.59
-7.95
-4.44
0.22
4.95
8.72
10.94
11.67
11.54
11.41
12.00
13.63
16.27
19.69
23.66
27.94
32.22
36.01
38.64
39.37
37.64
33.22
26.44
18.07
9.24
1.09
-5.53
-10.25
-13.23
-14.95
-15.89
-16.39
-16.47
-16.00
-14.88
-13.21
-11.29
-9.49
-8.14
-7.37
-7.11
-7.14
-7.18
-6.99
-6.53
-5.91
-5.39
-5.21
-5.45
-5.95
-6.38
-6.39
-5.83
-4.80
-3.65
-2.75
-2.36
-2.51
-3.01
-3.58
-4.06
-4.41
-4.81
-5.47
-6.55
-8.00
-9.61
-11.06
-12.08
-12.48
-12.29
-11.64
-10.67
-9.56
-8.41
-7.33
-6.39
-5.66
-5.16
-4.84
-4.60
-4.29
-3.82
-3.12
-2.25
-1.37
-0.71
-0.49
-0.72
-1.22
-1.61
-1.47
-0.51
1.25
3.53
5.96
8.27
10.43
12.55
14.71
16.75
18.31
18.93
18.38
16.79
14.62
12.44
10.64
9.26
8.10
6.85
5.33
3.63
1.97
0.58
-0.40
-0.97
-1.21
-1.19
-0.96
-0.58
-0.17
0.11
0.08
-0.33
-1.09
-2.04
-2.96
-3.64
-3.90
-3.68
-2.99
-2.00
-0.94
-0.09
0.34
0.31
-0.06
-0.51
-0.78
-0.75
-0.45
-0.07
0.16
0.14
-0.12
-0.42
-0.49
-0.13
0.65
1.63
2.42
2.61
1.99
0.60
-1.17
-2.76
-3.67
-3.60
-2.59
-0.97
0.77
2.15
2.80
2.56
1.54
0.10
-1.22
-1.85
-1.43
0.06
2.29
4.70
6.73
8.06
8.63
8.61
8.31
7.97
7.77
7.78
8.00
8.40
8.89
9.33
9.58
9.52
9.09
8.30
7.24
6.04
4.83
3.76
2.90
2.24
1.69
1.10
0.33
-0.73
-2.06
-3.61
-5.27
-6.97
-8.63
-10.18
-11.54
-12.57
-13.17
-13.31
-13.09
-12.71
-12.40
-12.34
-12.64
-13.31
-14.28
-15.42
-16.55
-17.46
-17.93
-17.78
-16.99
-15.65
-14.00
-12.36
-10.99
-10.04
-9.53
-9.35
-9.34
-9.41
-9.53
-9.82
-10.43
-11.48
-12.94
-14.61
-16.24
-17.62
-18.66
-19.42
-19.97
-20.36
-20.57
-20.49
-20.05
-19.23
-18.00
-16.27
-13.81
-10.41
-5.96
-0.67
4.98
10.36
14.87
18.16
20.17
21.01
20.80
19.59
17.42
14.36
10.66
6.75
3.10
0.14
-1.91
-2.98
-3.12
-2.42
-0.91
1.39
4.41
7.93
11.54
14.73
17.01
18.12
18.04
17.05
15.56
13.97
12.62
11.78
11.61
12.25
13.70
15.77
18.14
20.44
22.46
24.19
25.86
27.68
29.71
31.77
33.53
34.70
35.18
35.01
34.28
33.02
31.15
28.61
25.54
22.24
19.16
16.64
14.77
13.39
12.15
10.72
8.93
6.74
4.20
1.44
-1.48
-4.48
-7.44
-10.20
-12.53
-14.19
-14.99
-14.93
-14.22
-13.29
-12.63
-12.55
-13.07
-13.86
-14.45
-14.47
-13.88
-12.99
-12.30
-12.16
-12.60
-13.24
-13.51
-12.89
-11.18
-8.58
-5.61
-2.89
-0.88
0.21
0.50
0.32
0.08
0.10
0.56
1.45
2.57
3.50
3.70
2.68
0.21
-3.43
-7.48
-10.95
-13.06
-13.59
-12.99
-12.11
-11.70
-12.03
-12.81
-13.49
-13.67
-13.36
-12.94
-12.85
-13.27
-13.93
-14.28
-13.74
-12.00
-9.03
-5.03
-0.22
5.28
11.37
17.76
23.77
28.30
30.12
28.36
23.05
15.29
7.05
0.42
-3.13
-3.31
-0.98
2.40
5.44
7.34
7.98
7.70
6.86
5.63
4.02
2.08
0.07
-1.47
-1.98
-1.03
1.37
4.84
8.73
12.41
15.47
17.81
19.57
20.97
22.14
23.08
23.69
23.74
22.88
20.57
16.16
9.21
-0.05
-10.45
-19.93
-26.19
-27.69
-24.47
-18.35
-12.23
-8.89
-9.78
-14.62
-21.68
-28.77
-34.20
-37.24
-37.99
-37.02
-34.82
-31.71
-27.92
-23.78
-19.78
-16.44
-14.10
-12.73
-11.92
-11.13
-9.87
-7.86
-5.17
-2.07
1.04
3.84
6.20
8.22
10.17
12.27
14.57
16.79
18.42
18.87
17.80
15.30
11.95
8.61
6.09
4.83
4.78
5.52
6.42
6.97
6.91
6.26
5.30
4.35
3.67
3.26
2.92
2.29
1.08
-0.70
-2.69
-4.29
-4.87
-4.08
-2.05
0.68
3.42
5.53
6.70
6.93
6.46
5.61
4.70
3.97
3.55
3.42
3.44
3.48
3.57
4.05
5.61
9.12
15.30
24.20
34.98
45.86
54.56
58.95
57.69
50.66
39.06
25.11
11.61
1.22
-4.14
-3.81
1.42
9.55
18.01
24.33
26.85
25.03
19.36
11.00
1.38
-8.04
-15.91
-21.12
-22.94
-21.36
-17.21
-12.05
-7.66
-5.46
-6.00
-8.91
-13.22
-17.90
-22.30
-26.27
-29.99
-33.59
-36.90
-39.48
-40.80
-40.51
-38.57
-35.20
-30.71
-25.42
-19.61
-13.66
-8.10
-3.56
-0.56
0.66
0.30
-1.03
-2.54
-3.46
-3.35
-2.05
0.22
3.03
5.83
8.10
9.53
10.08
10.00
9.68
9.49
9.55
9.74
9.73
9.21
8.03
6.25
4.12
1.90
-0.23
-2.18
-3.89
-5.30
-6.28
-6.66
-6.35
-5.34
-3.79
-1.98
-0.23
1.15
1.99
2.30
2.21
1.95
1.73
1.66
1.70
1.72
1.57
1.18
0.58
-0.17
-0.98
-1.79
-2.57
-3.26
-3.74
-3.91
-3.76
-3.36
-2.90
-2.55
-2.44
-2.53
-2.72
-2.90
-3.03
-3.13
-3.24
-3.39
-3.58
-3.78
-4.03
-4.41
-5.00
-5.78
-6.61
-7.24
-7.39
-6.96
-6.03
-4.91
-3.97
-3.45
-3.36
-3.50
-3.59
-3.42
-2.98
-2.39
-1.83
-1.41
-1.11
-0.83
-0.46
0.02
0.53
0.95
1.24
1.44
1.62
1.86
2.17
2.48
2.72
2.82
2.80
2.68
2.55
2.50
2.63
3.06
3.84
4.96
6.32
7.72
8.98
9.96
10.61
10.92
10.88
10.51
9.81
8.83
7.66
6.41
5.15
3.88
2.55
1.06
-0.60
-2.34
-3.97
-5.26
-6.04
-6.29
-6.18
-5.99
-5.97
-6.19
-6.49
-6.56
-6.09
-4.98
-3.40
-1.69
-0.19
0.88
1.54
1.95
2.31
2.72
3.15
3.52
3.69
3.61
3.27
2.72
2.00
1.20
0.38
-0.37
-0.98
-1.38
-1.60
-1.68
-1.66
-1.59
-1.47
-1.32
-1.17
-1.09
-1.17
-1.46
-1.94
-2.49
-2.99
-3.33
-3.46
-3.45
-3.32
-3.08
-2.68
-2.07
-1.28
-0.45
0.25
0.69
0.87
0.88
0.89
0.96
1.08
1.18
1.21
1.21
1.30
1.52
1.82
2.02
1.93
1.45
0.69
-0.11
-0.70
-0.89
-0.69
-0.22
0.32
0.75
0.96
0.89
0.53
-0.07
-0.84
-1.63
-2.25
-2.48
-2.23
-1.54
-0.69
-0.09
-0.12
-0.97
-2.50
-4.30
-5.85
-6.78
-6.95
-6.56
-5.89
-5.18
-4.51
-3.78
-2.86
-1.69
-0.39
0.83
1.75
2.29
2.48
2.48
2.44
2.52
2.78
3.27
3.97
4.89
6.02
7.35
8.82
10.35
11.79
13.03
13.98
14.68
15.22
15.70
16.13
16.29
15.83
14.37
11.69
7.87
3.30
-1.43
-5.74
-9.25
-11.79
-13.36
-14.03
-13.81
-12.76
-11.07
-9.09
-7.31
-6.08
-5.49
-5.30
-5.11
-4.63
-3.91
-3.22
-2.83
-2.74
-2.67
-2.24
-1.31
-0.09
0.96
1.50
1.49
1.14
0.62
-0.19
-1.67
-4.11
-7.33
-10.51
-12.53
-12.55
-10.44
-6.90
-3.05
0.12
2.13
3.07
3.30
3.17
2.83
2.35
1.78
1.29
1.07
1.11
1.11
0.49
-1.24
-4.25
-8.13
-12.02
-14.90
-15.99
-15.00
-12.17
-8.03
-3.19
1.90
6.91
11.53
15.37
18.01
19.12
18.66
16.95
14.60
12.25
10.41
9.32
8.95
9.08
9.26
8.99
7.74
5.17
1.36
-3.11
-7.31
-10.29
-11.49
-11.01
-9.47
-7.65
-6.07
-4.79
-3.54
-2.12
-0.59
0.63
1.06
0.44
-1.03
-2.86
-4.47
-5.53
-6.02
-6.18
-6.21
-6.21
-6.12
-5.89
-5.61
-5.54
-5.94
-6.90
-8.29
-9.77
-11.07
-12.11
-13.04
-14.07
-15.21
-16.24
-16.72
-16.25
-14.67
-12.13
-8.95
-5.51
-2.15
0.91
3.40
5.16
6.11
6.39
6.31
6.17
6.05
5.73
4.75
2.73
-0.38
-4.18
-8.01
-11.20
-13.35
-14.42
-14.58
-14.07
-13.04
-11.59
-9.81
-7.93
-6.25
-5.00
-4.21
-3.56
-2.57
-0.84
1.69
4.57
6.95
7.95
7.11
4.68
1.64
-0.74
-1.36
0.20
3.55
7.70
11.57
14.30
15.54
15.34
14.01
11.91
9.38
6.79
4.54
2.92
2.03
1.56
0.85
-0.82
-3.89
-8.23
-13.13
-17.53
-20.52
-21.60
-20.78
-18.35
-14.65
-9.85
-3.99
2.77
10.01
16.99
22.87
27.01
29.14
29.36
27.89
24.88
20.43
14.73
8.33
2.10
-2.93
-6.04
-7.11
-6.60
-5.27
-3.77
-2.33
-0.76
1.25
3.93
7.14
10.42
13.06
14.31
13.52
10.37
5.01
-1.85
-9.10
-15.56
-20.40
-23.39
-24.86
-25.37
-25.45
-25.38
-25.26
-25.15
-25.11
-25.04
-24.51
-22.75
-18.92
-12.52
-3.86
5.93
15.24
22.64
27.38
29.54
29.79
28.87
27.17
24.73
21.42
17.35
13.03
9.21
6.60
5.40
5.28
5.52
5.34
4.33
2.48
0.14
-2.34
-4.77
-7.18
-9.73
-12.52
-15.49
-18.41
-20.99
-22.93
-24.01
-24.12
-23.24
-21.43
-18.81
-15.55
-11.87
-7.99
-4.08
-0.24
3.52
7.28
11.08
14.89
18.59
21.96
24.87
27.27
29.28
31.07
32.73
34.14
34.87
34.32
31.91
27.26
20.43
11.86
2.37
-7.10
-15.64
-22.52
-27.22
-29.37
-28.81
-25.59
-20.08
-13.05
-5.57
1.18
6.27
9.29
10.44
10.48
10.35
10.80
12.07
13.78
15.10
15.26
14.02
11.90
10.01
9.44
10.55
12.64
14.19
13.59
9.97
3.56
-4.49
-12.82
-20.46
-27.15
-33.05
-38.26
-42.54
-45.33
-46.26
-45.53
-43.95
-42.58
-42.09
-42.42
-42.74
-42.01
-39.53
-35.40
-30.45
-25.82
-22.35
-20.22
-18.82
-17.10
-14.11
-9.47
-3.55
2.73
8.34
12.61
15.52
17.55
19.32
21.16
22.85
23.73
23.00
20.23
15.46
9.22
2.29
-4.60
-10.86
-16.05
-19.78
-21.71
-21.60
-19.46
-15.59
-10.53
-4.89
0.83
6.41
11.81
17.08
22.19
26.97
31.17
34.62
37.32
39.36
40.89
41.92
42.30
41.89
40.64
38.74
36.57
34.48
32.58
30.69
28.40
25.39
21.67
17.64
13.94
11.17
9.63
9.24
9.58
10.13
10.40
10.03
8.85
6.90
4.36
1.59
-0.97
-2.89
-3.88
-3.82
-2.82
-1.19
0.69
2.41
3.65
4.29
4.49
4.62
5.17
6.51
8.73
11.56
14.53
17.11
18.88
19.68
19.55
18.66
17.17
15.16
12.65
9.58
5.96
1.90
-2.35
-6.50
-10.30
-13.59
-16.38
-18.73
-20.75
-22.55
-24.18
-25.71
-27.12
-28.24
-28.76
-28.28
-26.48
-23.43
-19.60
-15.79
-12.71
-10.58
-8.99
-7.09
-4.01
0.60
6.27
11.87
16.00
17.50
15.81
11.08
3.90
-4.94
-14.83
-25.35
-36.15
-46.73
-56.36
-64.10
-69.11
-70.85
-69.18
-64.25
-56.29
-45.53
-32.37
-17.75
-3.26
8.93
16.79
19.04
15.76
8.35
-0.93
-9.67
-15.99
-18.87
-18.14
-14.06
-7.20
1.70
11.72
21.75
30.67
37.50
41.59
42.66
41.07
37.42
32.25
25.88
18.53
10.60
2.89
-3.48
-7.49
-8.20
-5.32
0.45
7.71
14.75
20.31
24.03
26.27
27.61
28.94
30.92
33.80
37.89
43.60
51.79
63.42
78.83
93.90
103.64
104.51
97.02
85.33
73.95
65.43
59.83
55.40
49.74
41.71
32.55
23.13
14.79
8.37
4.15
1.74
0.30
-1.18
-3.05
-5.25
-7.88
-10.09
-12.17
-14.92
-19.13
-25.17
-32.81
-41.02
-48.58
-54.74
-59.33
-62.92
-66.15
-69.17
-71.60
-72.71
-71.71
-68.19
-62.41
-55.00
-46.88
-38.82
-31.28
-24.48
-18.59
-13.84
-10.59
-9.18
-9.69
-11.87
-14.96
-17.88
-19.66
-19.84
-18.64
-16.90
-15.58
-15.17
-15.48
-15.68
-14.70
-11.81
-6.97
-0.81
5.67
11.54
16.21
19.52
21.54
22.48
22.57
22.05
21.26
20.57
20.31
20.59
21.22
21.71
21.48
20.07
17.27
13.18
8.06
2.23
-4.07
-10.68
-17.41
-23.99
-30.02
-35.02
-38.57
-40.46
-40.75
-39.75
-37.91
-35.73
-33.62
-31.83
-30.40
-29.19
-27.90
-26.15
-23.62
-20.08
-15.55
-10.27
-4.58
1.22
6.94
12.47
17.64
22.25
26.06
28.95
30.95
32.27
33.26
34.21
35.19
36.00
36.27
35.64
33.94
31.02
26.92
21.87
16.25
10.55
5.27
0.90
-2.26
-4.16
-5.43
-6.80
-8.68
-10.90
-12.94
-14.23
-14.52
-13.94
-12.94
-12.72
-14.04
-16.54
-18.84
-19.40
-17.52
-13.53
-8.71
-4.57
-3.31
-6.02
-11.88
-18.39
-22.82
-23.61
-20.67
-15.35
-9.65
-7.06
-10.23
-19.72
-34.04
-50.85
-68.18
-84.50
-98.89
-101.60
-87.02
-58.31
-26.74
-3.60
6.31
4.98
-1.41
-6.31
-5.36
0.74
8.39
13.99
16.04
15.68
14.26
14.84
18.65
24.99
30.78
32.93
30.05
22.54
12.04
0.22
-11.53
-22.33
-31.46
-39.08
-45.62
-49.26
-49.38
-46.15
-40.55
-33.87
-27.62
-23.16
-21.76
-23.86
-28.56
-33.98
-37.59
-37.37
-32.49
-23.79
-13.12
-2.69
5.85
11.97
16.01
19.07
22.34
26.35
30.44
32.82
31.37
24.85
13.89
1.09
-9.80
-15.48
-14.62
-8.40
0.27
8.32
14.02
17.62
20.74
25.37
32.57
41.74
50.87
57.37
59.26
56.00
48.56
38.82
28.60
18.96
10.06
1.64
-6.21
-12.63
-16.22
-15.75
-10.95
-2.85
6.59
15.19
21.41
24.75
25.61
24.89
23.49
22.08
21.06
20.73
21.46
23.61
27.41
32.73
38.98
45.11
49.84
51.98
50.78
46.11
38.43
28.55
17.43
6.07
-4.49
-13.06
-18.47
-19.86
-17.19
-11.46
-4.61
1.16
4.09
3.39
-0.66
-7.04
-14.45
-21.66
-27.59
-31.36
-32.29
-30.12
-25.23
-18.64
-11.79
-6.08
-2.40
-1.00
-1.60
-3.64
-6.57
-9.91
-13.35
-16.63
-19.60
-22.23
-24.60
-26.93
-29.42
-32.22
-35.34
-38.67
-42.04
-45.28
-48.27
-50.97
-53.47
-55.99
-58.89
-62.49
-66.88
-71.75
-76.37
-79.77
-81.08
-79.97
-76.80
-72.57
-68.52
-65.59
-64.04
-63.32
-62.29
-59.73
-54.80
-47.35
-37.84
-26.99
-15.38
-3.27
9.30
22.16
34.70
45.89
54.62
60.13
62.44
62.27
60.67
58.60
56.53
54.54
52.61
50.93
50.04
50.63
53.18
57.70
63.61
69.97
75.99
81.31
86.19
91.27
97.12
103.86
110.98
117.54
122.53
125.28
125.72
124.25
121.60
118.59
115.95
114.15
113.25
112.73
111.36
107.40
99.16
85.65
67.17
45.40
23.01
2.84
-12.96
-23.55
-29.51
-32.49
-34.45
-36.96
-40.64
-45.06
-49.03
-51.22
-50.81
-47.80
-42.93
-37.23
-31.56
-26.25
-21.25
-16.37
-11.65
-7.42
-4.06
-1.85
-0.76
-0.47
-0.59
-0.82
-1.02
-1.11
-0.97
-0.44
0.68
2.49
4.92
7.76
10.70
13.44
15.69
17.21
17.83
17.47
16.21
14.27
12.04
9.95
8.31
7.17
6.26
5.07
3.10
0.26
-3.11
-6.32
-8.62
-9.52
-9.05
-7.86
-7.09
-7.97
-11.22
-16.86
-24.27
-32.32
-39.75
-45.40
-48.57
-49.12
-47.35
-43.49
-37.92
-31.17
-23.94
-16.89
-10.53
-5.32
-1.72
-0.12
0.34
0.77
1.90
3.67
5.42
6.29
5.61
3.29
0.12
-0.51
4.36
15.31
29.86
43.98
54.11
58.50
57.34
52.34
48.83
51.16
60.46
74.43
89.67
103.96
116.81
128.69
140.32
156.19
179.50
210.17
244.76
279.10
310.51
337.90
360.55
352.53
298.49
202.74
89.05
-16.53
-99.83
-159.19
-199.79
-228.28
-249.66
-262.21
-263.08
-252.05
-233.16
-212.62
-195.62
-184.69
-179.60
-178.15
-174.33
-163.56
-145.19
-122.81
-101.58
-85.22
-74.86
-69.52
-67.23
-64.22
-58.19
-49.30
-40.02
-33.04
-29.53
-28.90
-29.62
-30.22
-29.02
-25.45
-20.28
-15.19
-11.68
-10.15
-10.03
-10.18
-9.55
-7.23
-3.04
2.42
8.01
12.71
15.95
17.75
18.47
18.61
18.55
18.45
18.41
18.46
18.75
19.50
20.93
23.14
26.13
29.80
33.97
38.37
42.52
45.67
46.87
45.29
40.23
31.68
20.38
7.53
-5.68
-18.41
-30.14
-40.46
-48.69
-53.98
-55.57
-53.34
-48.15
-41.51
-35.01
-29.72
-25.94
-23.35
-21.45
-19.89
-18.69
-18.08
-18.15
-18.62
-18.88
-18.35
-16.80
-14.43
-11.78
-9.39
-7.71
-6.66
-5.74
-4.29
-1.99
0.97
3.99
6.34
7.52
7.03
5.04
2.42
0.25
-0.77
-0.47
0.94
3.14
5.87
8.08
9.22
9.59
9.92
10.62
11.66
12.71
13.26
12.75
9.18
1.47
-9.79
-22.97
-36.56
-49.59
-61.47
-71.72
-79.94
-87.75
-96.11
-104.43
-111.35
-116.05
-118.52
-119.10
-118.17
-104.03
-73.27
-32.56
7.57
41.09
67.29
87.34
102.03
111.49
115.79
113.77
105.70
93.86
81.07
68.81
56.91
44.67
31.83
19.11
6.61
-5.09
-14.78
-21.55
-25.61
-27.94
-29.29
-29.71
-29.59
-28.57
-26.74
-23.97
-20.03
-14.90
-8.76
-1.96
5.01
11.41
16.16
18.55
18.89
18.25
17.81
18.24
19.66
21.71
23.85
25.45
26.00
25.48
24.26
22.93
22.10
22.21
23.32
25.26
27.09
27.39
25.01
19.61
11.76
2.60
-6.80
-15.89
-24.81
-34.11
-44.28
-55.48
-67.49
-80.00
-92.79
-105.78
-118.79
-131.35
-142.73
-152.10
-159.03
-163.69
-166.97
-170.12
-174.20
-179.74
-186.67
-194.48
-202.59
-210.57
-218.24
-225.63
-232.74
-239.36
-244.86
-248.08
-247.33
-240.73
-226.68
-204.41
-174.33
-137.94
-97.31
-54.32
-10.03
35.52
82.97
132.80
184.62
236.67
286.17
330.05
365.89
392.51
410.07
419.57
422.20
418.91
410.38
397.35
380.92
362.57
343.79
325.62
308.26
291.23
273.66
254.77
234.19
211.86
187.95
162.60
135.75
107.24
76.83
44.46
10.38
-24.78
-59.92
-93.68
-124.67
-151.74
-174.25
-192.02
-205.25
-214.25
-219.32
-220.71
-218.65
-213.41
-205.25
-194.39
-180.91
-164.92
-146.68
-126.69
-105.78
-84.69
-64.15
-44.72
-26.67
-10.02
5.41
19.80
33.17
45.36
56.25
65.60
73.07
78.33
81.22
81.72
79.97
76.20
70.79
64.67
58.78
53.77
49.79
46.69
44.10
41.62
38.97
36.16
34.40
34.56
36.37
38.63
40.14
40.29
39.11
37.00
34.40
33.60
35.79
40.24
44.95
48.47
50.57
51.75
52.57
53.38
57.60
67.31
81.63
97.48
112.07
124.13
133.48
140.33
145.03
152.22
164.83
181.97
199.94
215.56
227.73
236.61
242.57
219.05
155.26
63.24
-30.79
-106.94
-158.96
-189.24
-203.38
-207.64
-207.67
-203.75
-196.20
-187.25
-180.10
-176.54
-175.56
-174.75
-171.94
-166.15
-154.47
-136.35
-114.51
-93.61
-77.22
-66.42
-60.55
-58.37
-58.39
-57.28
-52.94
-45.68
-37.60
-30.82
-26.39
-24.52
-24.88
-26.92
-29.06
-30.21
-30.29
-30.02
-30.08
-30.59
-31.29
-31.78
-31.72
-30.49
-27.79
-23.77
-18.90
-13.70
-8.55
-3.74
0.49
3.99
6.65
8.42
9.35
9.57
9.33
8.97
8.83
9.14
9.94
11.06
12.18
12.97
13.19
12.75
11.76
10.42
9.02
7.77
6.78
6.04
5.40
4.75
4.03
3.22
2.34
1.35
0.10
-1.54
-3.72
-6.44
-9.62
-13.08
-16.66
-20.21
-23.61
-26.78
-29.61
-31.96
-33.72
-34.71
-34.79
-33.86
-31.99
-29.43
-26.65
-24.13
-22.18
-20.84
-19.80
-18.59
-16.76
-14.12
-10.77
-7.12
-3.69
-0.86
1.28
2.95
4.67
6.99
10.32
14.62
19.40
23.93
27.56
29.95
31.10
31.36
31.27
31.44
32.27
33.88
36.07
38.43
40.29
40.90
39.71
36.81
32.96
29.11
25.98
23.80
22.45
21.51
20.55
19.47
18.59
18.41
18.87
19.16
17.97
14.18
7.15
-3.07
-15.75
-29.41
-40.57
-45.20
-41.04
-29.41
-13.70
2.30
15.08
21.71
20.22
10.12
-7.58
-30.11
-53.43
-73.07
-85.73
-90.58
-89.08
-83.84
-77.31
-72.30
-68.61
-65.40
-61.94
-58.25
-55.49
-55.08
-57.64
-62.69
-69.17
-75.97
-81.47
-84.35
-83.86
-80.35
-74.45
-66.43
-56.08
-43.18
-27.20
-7.22
17.34
46.79
80.33
117.04
156.89
200.73
249.43
291.43
314.94
312.89
287.02
244.04
191.52
136.41
84.62
40.32
5.31
-17.73
-31.13
-36.94
-37.66
-35.65
-32.54
-29.33
-26.79
-25.62
-24.90
-24.25
-22.97
-21.32
-19.87
-18.87
-18.33
-18.22
-18.63
-18.75
-17.98
-16.18
-14.15
-12.77
-12.29
-12.36
-12.32
-11.49
-8.97
-4.90
-0.86
0.54
-2.99
-12.19
-26.21
-43.15
-60.47
-75.07
-80.43
-71.19
-47.49
-15.99
13.81
33.28
36.74
22.77
-5.01
-39.88
-74.08
-100.94
-116.09
-118.03
-108.04
-89.62
-69.19
-49.11
-32.14
-20.96
-16.94
-19.57
-26.58
-35.03
-42.32
-46.57
-46.47
-42.30
-35.53
-28.25
-22.37
-18.96
-17.73
-18.12
-19.12
-19.51
-19.09
-18.50
-18.85
-21.06
-25.20
-30.26
-34.46
-35.74
-32.62
-25.28
-15.36
-5.18
3.34
9.54
14.12
18.38
23.28
28.67
33.13
34.96
33.31
28.86
23.66
20.11
19.77
22.76
27.78
32.81
36.04
36.44
33.89
28.85
22.08
14.61
7.80
3.20
2.03
4.31
8.26
10.70
8.39
-0.25
-14.01
-29.13
-41.01
-46.21
-43.89
-35.81
-25.09
-14.68
-6.14
0.41
5.75
10.66
15.41
19.60
22.48
23.37
22.12
19.46
16.96
16.47
19.18
24.71
30.82
34.27
32.37
24.51
12.92
1.89
-4.13
-2.56
6.14
18.80
31.25
40.32
45.28
47.75
50.42
55.32
62.56
70.25
75.52
76.11
71.52
63.27
54.25
47.35
44.31
45.15
48.35
51.57
52.54
49.73
42.56
31.38
17.26
1.72
-13.50
-26.83
-37.14
-43.91
-47.17
-47.20
-44.34
-38.95
-31.64
-23.45
-15.83
-10.25
-7.54
-7.48
-8.81
-9.84
-9.26
-6.80
-3.33
-0.33
0.84
-0.43
-3.88
-8.68
-14.02
-19.51
-25.16
-31.04
-36.78
-41.47
-43.86
-43.02
-38.90
-32.46
-25.40
-19.46
-15.80
-14.67
-15.48
-17.15
-18.54
-18.88
-17.84
-15.52
-12.24
-8.20
-3.34
2.72
10.28
19.21
28.66
37.20
43.32
46.11
45.70
43.12
39.83
37.02
35.16
34.01
32.91
31.24
28.77
25.63
22.19
18.82
15.75
13.02
10.55
8.19
5.77
3.16
0.30
-2.70
-5.57
-7.89
-9.25
-9.44
-8.51
-6.81
-4.83
-3.02
-1.66
-0.79
-0.36
-0.27
-0.52
-1.15
-2.16
-3.38
-4.56
-5.37
-5.58
-5.19
-4.38
-3.47
-2.77
-2.48
-2.67
-3.30
-4.34
-5.79
-7.70
-10.08
-12.83
-15.60
-17.90
-19.12
-18.78
-16.64
-12.74
-7.40
-1.11
5.49
11.57
16.16
18.27
17.24
13.12
6.88
0.19
-5.06
-7.58
-7.12
-4.53
-1.31
1.12
1.91
0.95
-1.29
-4.17
-7.09
-9.66
-11.54
-12.47
-12.22
-10.74
-8.20
-4.97
-1.54
1.65
4.39
6.73
9.00
11.57
14.64
18.00
20.99
22.72
22.48
20.13
16.18
11.69
7.80
5.25
4.16
4.08
4.34
4.37
3.95
3.12
2.08
0.97
-0.02
-0.62
-0.38
1.28
4.72
9.89
16.09
22.20
27.09
30.03
30.92
30.10
28.06
25.07
21.17
16.31
10.62
4.55
-1.29
-6.29
-10.06
-12.48
-13.57
-13.41
-12.13
-9.97
-7.44
-5.19
-3.83
-3.65
-4.40
-5.46
-6.03
-5.47
-3.60
-0.71
2.65
5.86
8.47
10.32
11.50
12.29
13.07
14.19
15.89
18.17
20.70
22.87
23.93
23.31
20.84
16.87
12.16
7.64
4.14
2.11
1.64
2.52
4.37
6.84
9.63
12.56
15.44
18.12
20.46
22.31
23.51
23.75
22.51
19.14
13.13
4.47
-6.14
-17.36
-27.61
-35.65
-41.01
-43.96
-45.20
-45.24
-44.12
-41.56
-37.35
-31.90
-26.29
-21.91
-19.81
-20.18
-22.26
-24.77
-26.47
-26.75
-25.66
-23.68
-21.23
-18.32
-14.61
-9.75
-3.86
2.25
7.21
9.62
8.81
5.22
0.48
-3.16
-3.70
-0.17
6.99
16.23
25.50
33.06
37.98
40.18
40.07
38.11
34.49
29.26
22.52
14.75
6.89
0.10
-4.60
-6.72
-6.36
-4.18
-1.10
1.91
4.06
4.77
3.75
1.10
-2.68
-6.67
-9.80
-11.24
-10.78
-9.09
-7.44
-7.27
-9.50
-14.09
-20.03
-25.82
-30.05
-32.02
-31.99
-30.94
-30.13
-30.47
-32.17
-34.63
-36.75
-37.38
-35.70
-31.49
-25.06
-17.10
-8.40
0.29
8.31
15.05
19.92
22.55
22.89
21.41
19.01
16.73
15.37
15.24
16.11
17.40
18.53
19.09
19.03
18.52
17.83
17.19
16.67
16.24
15.83
15.43
15.15
15.19
15.65
16.45
17.18
17.28
16.24
13.89
10.61
7.23
4.71
3.76
4.53
6.58
9.09
11.21
12.33
12.18
10.87
8.72
6.21
3.86
2.15
1.38
1.67
2.90
4.77
6.95
9.08
10.81
11.77
11.56
9.83
6.41
1.45
-4.61
-11.09
-17.33
-22.85
-27.49
-31.31
-34.54
-37.38
-39.96
-42.28
-44.28
-45.77
-46.49
-46.13
-44.43
-41.33
-37.06
-32.09
-27.00
-22.29
-18.16
-14.50
-10.87
-6.76
-1.71
4.55
12.00
20.31
28.87
36.91
43.74
48.88
52.20
53.83
53.95
52.62
49.73
45.17
39.02
31.67
23.78
16.03
8.91
2.67
-2.60
-6.71
-9.42
-10.47
-9.90
-8.17
-6.07
-4.50
-4.03
-4.72
-6.08
-7.42
-8.10
-7.81
-6.52
-4.47
-2.02
0.45
2.57
4.05
4.75
4.81
4.53
4.34
4.53
5.13
5.94
6.59
6.74
6.24
5.03
3.19
0.79
-2.01
-4.94
-7.58
-9.46
-10.30
-10.15
-9.45
-8.83
-8.84
-9.72
-11.27
-12.98
-14.26
-14.62
-13.76
-11.51
-7.79
-2.61
3.84
11.03
18.00
23.49
26.32
25.74
21.76
15.14
7.14
-0.91
-8.06
-13.84
-18.21
-21.24
-22.94
-23.24
-22.14
-20.01
-17.60
-15.83
-15.31
-16.02
-17.18
-17.64
-16.51
-13.62
-9.70
-5.98
-3.56
-2.87
-3.50
-4.51
-4.98
-4.43
-2.98
-1.13
0.57
1.76
2.28
1.98
0.67
-1.94
-5.98
-11.08
-16.35
-20.57
-22.64
-22.10
-19.39
-15.61
-12.08
-9.71
-8.70
-8.61
-8.69
-8.33
-7.31
-5.81
-4.16
-2.69
-1.53
-0.66
-0.03
0.46
0.83
1.11
1.30
1.37
1.29
1.08
0.87
0.83
1.23
2.16
3.54
5.13
6.59
7.70
8.42
8.86
9.18
9.49
9.75
9.89
9.90
9.85
9.91
10.19
10.68
11.17
11.34
10.89
9.70
7.92
5.88
3.98
2.53
1.60
1.11
0.83
0.54
0.13
-0.41
-0.98
-1.46
-1.74
-1.79
-1.71
-1.63
-1.73
-2.11
-2.78
-3.60
-4.38
-4.89
-4.94
-4.40
-3.28
-1.68
0.15
1.94
3.39
4.28
4.52
4.17
3.36
2.30
1.21
0.20
-0.72
-1.62
-2.62
-3.71
-4.74
-5.32
-5.03
-3.56
-0.86
2.77
6.78
10.59
13.73
15.97
17.27
17.78
17.68
17.17
16.44
15.70
15.17
14.95
15.02
15.22
15.33
15.30
15.36
15.99
17.73
20.80
24.88
29.13
32.50
34.16
33.76
31.54
28.12
24.23
20.53
17.46
15.19
13.53
11.93
9.58
5.77
0.17
-6.88
-14.58
-21.93
-28.20
-33.06
-36.37
-37.91
-37.30
-34.09
-28.25
-20.36
-11.63
-3.43
3.23
8.03
11.28
13.54
15.14
15.88
15.23
12.65
8.06
2.03
-4.37
-10.06
-14.42
-17.56
-20.10
-22.70
-25.72
-29.00
-32.11
-34.77
-36.96
-38.94
-40.92
-42.81
-44.14
-44.29
-42.76
-39.48
-34.77
-29.26
-23.60
-18.31
-13.62
-9.45
-5.50
-1.39
3.12
7.98
12.78
16.88
19.66
20.74
20.11
18.12
15.39
12.59
10.29
8.77
7.95
7.48
6.84
5.59
3.50
0.60
-2.80
-6.28
-9.39
-11.66
-12.83
-12.82
-11.87
-10.43
-9.06
-8.18
-7.97
-8.33
-8.94
-9.50
-9.71
-9.46
-8.66
-7.33
-5.51
-3.35
-1.09
1.02
2.72
3.84
4.28
3.99
3.01
1.48
-0.30
-1.94
-3.08
-3.56
-3.45
-3.02
-2.55
-2.20
-1.86
-1.31
-0.32
1.16
3.00
4.93
6.61
7.76
8.18
7.70
6.26
3.81
0.46
-3.61
-8.06
-12.51
-16.53
-19.76
-21.97
-23.14
-23.44
-23.24
-22.95
-22.95
-23.35
-24.07
-24.79
-25.15
-24.78
-23.32
-20.44
-15.87
-9.55
-1.79
6.67
14.81
21.71
26.93
30.62
33.36
35.72
37.86
39.38
39.58
37.89
34.21
29.03
23.20
17.54
12.67
8.85
6.16
4.57
4.08
4.62
6.02
7.92
9.80
11.14
11.48
10.63
8.68
5.98
3.10
0.61
-1.05
-1.74
-1.60
-1.01
-0.42
-0.18
-0.45
-1.19
-2.25
-3.41
-4.54
-5.50
-6.23
-6.64
-6.73
-6.51
-6.06
-5.46
-4.74
-3.85
-2.74
-1.39
0.15
1.74
3.21
4.46
5.46
6.24
6.86
7.36
7.70
7.82
7.65
7.16
6.36
5.28
4.03
2.71
1.45
0.33
-0.61
-1.38
-2.02
-2.62
-3.22
-3.84
-4.49
-5.11
-5.62
-5.96
-6.04
-5.89
-5.56
-5.16
-4.79
-4.49
-4.25
-4.03
-3.81
-3.60
-3.39
-3.13
-2.72
-2.02
-0.99
0.30
1.67
2.91
3.83
4.39
4.66
4.71
4.61
4.36
3.94
3.34
2.60
1.83
1.19
0.79
0.68
0.81
1.07
1.32
1.46
1.43
1.27
1.03
0.76
0.45
0.10
-0.30
-0.77
-1.33
-1.99
-2.74
-3.56
-4.34
-4.97
-5.34
-5.39
-5.23
-5.01
-4.94
-5.18
-5.77
-6.60
-7.43
-7.95
-7.86
-7.00
-5.39
-3.31
-1.25
0.21
0.61
-0.28
-2.33
-5.10
-7.92
-10.12
-11.23
-11.05
-9.74
-7.80
-5.92
-4.84
-5.23
-7.54
-11.92
-18.14
-25.59
-33.31
-40.11
-44.88
-46.85
-45.81
-42.08
-36.30
-29.10
-20.95
-12.13
-2.92
6.29
14.93
22.46
28.51
33.00
36.06
37.91
38.71
38.65
37.97
37.05
36.33
36.13
36.44
36.95
37.14
36.52
34.75
31.79
27.79
23.12
18.32
14.02
10.85
9.13
8.80
9.26
9.68
9.41
8.28
6.76
5.66
5.66
6.90
8.83
10.46
10.86
9.59
6.85
3.34
-0.12
-2.94
-4.96
-6.36
-7.47
-8.55
-9.73
-11.03
-12.45
-13.97
-15.59
-17.21
-18.61
-19.50
-19.65
-19.00
-17.73
-16.23
-14.93
-14.20
-14.19
-14.71
-15.31
-15.33
-14.16
-11.45
-7.34
-2.42
2.46
6.55
9.48
11.34
12.46
13.19
13.61
13.55
12.75
11.14
8.92
6.53
4.45
2.98
2.12
1.62
1.04
-0.08
-2.06
-4.93
-8.29
-11.33
-12.87
-11.71
-7.05
1.07
11.60
22.52
31.41
36.23
36.00
31.20
23.68
15.92
10.25
8.09
9.62
13.98
19.81
25.81
31.01
34.89
37.09
37.38
35.58
31.73
26.18
19.63
12.96
6.98
2.17
-1.42
-4.09
-6.26
-8.32
-10.45
-12.67
-14.92
-17.10
-18.99
-20.25
-20.36
-18.76
-15.05
-9.28
-1.99
5.92
13.38
19.48
23.64
25.59
25.30
22.84
18.40
12.39
5.44
-1.51
-7.54
-11.93
-14.47
-15.56
-16.02
-16.78
-18.53
-21.58
-25.80
-30.78
-35.80
-39.95
-42.11
-41.21
-36.62
-28.56
-18.27
-7.75
0.84
6.04
7.44
5.74
2.23
-1.87
-5.85
-9.62
-13.31
-16.81
-19.47
-20.19
-17.95
-12.43
-4.47
4.09
10.99
14.51
14.08
10.43
5.07
-0.47
-5.29
-9.33
-13.02
-16.85
-20.94
-25.04
-28.75
-31.81
-34.20
-36.04
-37.42
-38.21
-38.07
-36.54
-33.37
-28.61
-22.75
-16.61
-11.16
-7.21
-5.12
-4.78
-5.70
-7.21
-8.80
-10.18
-11.31
-12.24
-12.96
-13.39
-13.43
-12.99
-12.15
-11.07
-9.97
-9.00
-8.18
-7.38
-6.39
-5.06
-3.42
-1.66
-0.07
1.17
2.10
2.99
4.19
5.92
8.17
10.71
13.25
15.65
17.96
20.35
23.05
26.14
29.60
33.26
36.93
40.44
43.72
46.76
49.61
52.34
54.96
57.49
59.97
62.54
65.31
68.24
70.95
72.63
72.25
68.87
62.02
51.91
39.43
25.90
12.70
1.13
-7.75
-13.12
-14.62
-12.57
-8.21
-3.54
-0.85
-1.87
-7.19
-15.98
-26.39
-36.28
-44.00
-48.80
-50.82
-50.76
-49.42
-47.45
-45.23
-42.97
-40.80
-38.75
-36.88
-35.20
-33.69
-32.23
-30.52
-28.16
-24.73
-20.01
-14.14
-7.64
-1.29
4.14
8.03
10.07
10.19
8.56
5.57
1.96
-1.21
-2.69
-1.47
2.81
9.66
17.92
26.18
33.28
38.59
42.02
43.73
43.87
42.55
39.94
36.41
32.48
28.55
24.68
20.43
15.19
8.61
0.97
-6.80
-13.53
-18.27
-20.74
-21.34
-20.93
-20.41
-20.47
-21.42
-23.28
-25.84
-28.65
-31.16
-32.85
-33.48
-33.31
-32.95
-33.00
-33.57
-33.92
-32.78
-28.94
-22.10
-13.22
-4.21
2.89
6.84
7.72
6.71
5.36
4.75
5.06
5.70
5.79
4.78
2.62
-0.23
-3.17
-5.64
-7.33
-8.06
-7.79
-6.56
-4.56
-2.16
0.10
1.65
2.13
1.53
0.21
-1.28
-2.46
-3.07
-3.11
-2.75
-2.11
-1.16
0.28
2.46
5.60
9.77
14.92
20.77
26.82
32.27
36.02
36.89
33.93
26.81
16.00
2.71
-11.44
-24.89
-36.40
-45.24
-51.11
-54.02
-54.18
-51.96
-47.87
-42.55
-36.63
-30.59
-24.67
-18.85
-13.01
-7.06
-1.03
4.91
10.57
15.80
20.59
24.97
28.92
32.24
34.66
35.90
35.84
34.57
32.38
29.62
26.67
23.90
21.70
20.38
20.01
20.29
20.61
20.20
18.51
15.44
11.41
7.06
2.95
-0.70
-4.03
-7.33
-10.79
-14.41
-17.86
-20.67
-22.31
-22.48
-21.18
-18.85
-16.26
-14.19
-13.11
-12.79
-12.39
-10.72
-6.84
-0.55
7.37
15.34
21.49
24.33
23.30
18.99
13.09
7.95
5.95
8.80
16.95
29.24
42.93
54.18
59.03
54.60
40.24
18.10
-7.23
-30.35
-47.22
-57.05
-62.63
-68.77
-79.37
-94.51
-109.42
-116.13
-107.17
-79.58
-36.88
11.97
56.16
87.41
102.59
103.85
96.31
85.27
74.43
65.67
59.87
57.47
58.16
59.81
58.20
48.28
26.90
-4.70
-40.19
-70.40
-87.30
-87.67
-74.38
-54.60
-36.01
-23.30
-16.81
-13.59
-10.03
-4.16
3.44
10.56
15.05
16.28
15.43
14.69
15.92
19.49
23.93
26.75
25.79
20.44
12.10
3.52
-2.68
-5.41
-5.65
-5.80
-8.15
-13.41
-20.14
-25.53
-27.03
-23.87
-17.61
-11.30
-7.96
-9.09
-14.23
-21.45
-28.56
-33.94
-36.72
-36.44
-32.52
-24.40
-12.13
2.91
17.93
29.51
35.01
33.75
27.34
18.94
11.80
8.00
7.93
10.57
14.18
16.99
17.57
15.09
9.49
1.51
-7.42
-15.71
-22.24
-26.75
-29.62
-31.07
-30.47
-26.30
-17.11
-2.81
14.46
30.81
42.17
46.28
43.72
37.32
30.51
25.61
23.16
22.53
22.95
23.90
24.53
22.97
16.75
4.68
-11.11
-24.63
-28.26
-17.15
7.04
35.56
56.12
58.80
40.93
8.25
-28.34
-58.06
-74.54
-77.03
-68.58
-53.08
-33.26
-10.59
13.60
36.91
55.80
66.42
66.24
55.27
36.35
14.36
-5.21
-18.01
-22.10
-18.35
-9.85
-0.54
6.25
8.82
7.40
3.56
-0.76
-4.25
-6.71
-9.03
-12.54
-18.16
-25.71
-33.74
-39.88
-41.82
-38.37
-30.10
-19.23
-8.80
-1.44
1.63
0.92
-1.89
-4.90
-6.93
-7.86
-8.35
-9.11
-10.37
-11.74
-12.49
-12.13
-10.70
-8.79
-7.17
-6.33
-6.25
-6.49
-6.49
-5.96
-5.04
-4.21
-3.99
-4.58
-5.74
-6.91
-7.45
-6.95
-5.37
-3.02
-0.36
2.16
4.20
5.54
6.06
5.75
4.72
3.24
1.62
0.13
-1.11
-2.15
-3.13
-4.16
-5.24
-6.26
-7.02
-7.40
-7.32
-6.83
-6.03
-5.08
-4.16
-3.38
-2.79
-2.30
-1.76
-1.03
-0.15
0.67
1.12
0.93
0.07
-1.23
-2.62
-3.79
-4.61
-5.15
-5.53
-5.79
-6.01
-6.26
-6.77
-7.84
-9.67
-12.23
-15.16
-17.95
-20.15
-21.57
-22.24
-22.23
-21.47
-19.67
-16.46
-11.63
-5.36
1.75
8.74
14.64
18.75
20.86
21.24
20.49
19.29
18.11
17.15
16.44
15.96
15.74
15.93
16.60
17.77
19.32
21.14
23.14
25.33
27.61
29.70
31.08
31.18
29.55
26.11
21.13
15.19
8.98
3.11
-1.98
-6.14
-9.47
-12.28
-14.92
-17.57
-20.15
-22.31
-23.59
-23.74
-22.80
-21.19
-19.44
-17.96
-16.76
-15.54
-13.85
-11.43
-8.31
-4.83
-1.38
1.87
5.05
8.51
12.46
16.71
20.59
23.19
23.74
22.04
18.54
14.16
9.95
6.72
4.76
3.90
3.69
3.56
3.13
2.25
1.05
-0.20
-1.23
-1.99
-2.70
-3.73
-5.44
-7.98
-11.21
-14.75
-18.08
-20.63
-21.74
-20.67
-16.69
-9.32
1.44
14.79
29.21
42.75
53.49
60.02
61.71
58.73
51.88
42.41
31.73
21.34
12.52
6.22
2.72
1.66
2.06
2.78
2.91
2.15
0.72
-0.85
-2.15
-3.10
-3.99
-5.16
-6.85
-9.01
-11.50
-14.16
-17.03
-20.17
-23.48
-26.58
-28.77
-29.34
-27.88
-24.60
-20.27
-15.98
-12.68
-10.86
-10.38
-10.68
-11.13
-11.32
-11.23
-11.04
-10.97
-11.01
-10.98
-10.61
-9.80
-8.69
-7.65
-7.01
-6.90
-7.13
-7.27
-6.80
-5.34
-2.76
0.74
4.71
8.51
11.48
13.08
13.15
12.01
10.50
9.69
10.45
13.05
16.96
20.99
23.83
24.55
22.94
19.48
15.01
10.40
6.31
3.12
1.13
0.53
1.42
3.62
6.61
9.64
11.88
12.73
12.03
10.09
7.53
5.07
3.23
2.24
1.91
1.84
1.61
0.91
-0.26
-1.73
-3.17
-4.29
-4.90
-4.89
-4.28
-3.17
-1.69
-0.06
1.50
2.83
3.84
4.48
4.75
4.55
3.77
2.32
0.25
-2.19
-4.61
-6.63
-8.02
-8.83
-9.46
-10.43
-12.17
-14.80
-18.03
-21.20
-23.58
-24.62
-24.17
-22.56
-20.36
-18.22
-16.63
-15.85
-15.98
-16.98
-18.74
-21.07
-23.59
-25.69
-26.65
-25.78
-22.64
-17.27
-10.24
-2.48
5.00
11.48
16.76
21.14
25.18
29.35
33.72
38.00
41.62
44.13
45.42
45.70
45.32
44.60
43.64
42.40
40.87
39.13
37.39
35.76
34.09
31.98
28.87
24.35
18.38
11.36
4.00
-2.95
-8.98
-13.90
-17.81
-20.97
-23.59
-25.75
-27.37
-28.31
-28.51
-28.05
-27.22
-26.41
-25.97
-26.00
-26.33
-26.50
-26.01
-24.53
-22.05
-18.96
-15.83
-13.19
-11.32
-10.19
-9.52
-9.01
-8.47
-7.91
-7.41
-7.05
-6.80
-6.51
-6.02
-5.26
-4.32
-3.44
-2.89
-2.78
-3.06
-3.48
-3.78
-3.83
-3.80
-4.08
-5.11
-7.07
-9.82
-12.85
-15.57
-17.53
-18.63
-19.05
-19.01
-18.61
-17.77
-16.34
-14.41
-12.34
-10.75
-10.13
-10.67
-12.18
-14.21
-16.35
-18.30
-19.75
-20.19
-18.74
-14.55
-7.26
2.37
12.47
20.55
24.60
24.07
20.16
15.28
11.91
11.47
13.87
17.90
22.17
25.77
28.49
30.26
30.52
28.08
21.63
10.80
-3.07
-16.84
-26.57
-29.05
-23.15
-10.44
5.34
19.63
28.66
30.78
26.93
20.18
14.56
13.57
18.98
30.28
44.97
59.49
70.30
74.76
71.76
61.81
47.09
30.91
17.04
8.62
7.14
11.83
19.93
27.83
32.66
33.52
31.71
29.91
30.71
35.24
42.60
50.19
54.63
52.68
42.00
21.81
-6.60
-39.63
-71.76
-96.71
-109.34
-107.41
-92.53
-69.52
-44.50
-22.85
-7.76
-0.01
1.26
-2.23
-8.31
-14.33
-17.09
-13.60
-2.36
15.30
34.64
48.32
48.59
30.09
-7.64
-59.17
-114.04
-159.65
-184.71
-182.60
-153.24
-103.01
-42.67
15.57
61.20
87.49
92.49
78.51
50.85
16.13
-19.12
-49.34
-70.43
-79.92
-77.06
-63.06
-41.10
-15.96
7.18
24.18
33.17
34.85
31.68
26.53
21.28
16.40
11.27
5.32
-1.24
-7.39
-11.69
-13.13
-11.70
-8.24
-4.07
-0.39
2.20
3.80
5.06
6.79
9.64
13.79
18.98
24.43
28.95
31.42
31.13
28.10
23.03
16.83
10.06
2.86
-5.25
-14.87
-26.02
-37.74
-48.34
-56.21
-60.85
-63.17
-64.61
-67.01
-71.97
-80.01
-90.05
-99.73
-106.23
-107.13
-100.98
-86.33
-63.45
-34.75
-4.02
25.29
51.21
73.53
93.10
110.98
129.40
148.60
166.08
177.94
181.71
177.85
169.43
160.66
155.30
157.95
170.11
189.32
210.45
228.67
241.19
247.22
247.22
225.93
177.63
110.24
40.33
-19.35
-64.87
-97.86
-121.45
-138.43
-150.70
-157.12
-156.91
-151.01
-141.73
-131.12
-120.22
-109.43
-99.96
-91.49
-82.11
-70.62
-57.48
-44.55
-33.61
-26.52
-24.40
-27.43
-34.75
-43.44
-50.50
-54.27
-54.84
-53.24
-50.63
-47.80
-45.09
-42.59
-39.73
-36.04
-31.33
-25.60
-18.76
-10.81
-2.40
5.88
12.88
17.78
20.33
20.91
20.11
18.50
16.49
14.36
12.42
10.91
9.87
9.10
8.06
6.20
3.35
0.05
-2.92
-4.34
-3.73
-1.35
1.98
5.39
8.35
10.69
12.59
14.16
15.42
16.12
16.15
15.73
15.46
16.08
18.07
21.45
25.72
30.11
33.80
36.29
37.58
38.09
38.38
38.67
38.87
38.58
37.36
34.96
31.51
27.44
23.13
20.04
18.74
19.19
20.61
21.73
21.09
17.53
10.58
0.75
-10.64
-22.15
-32.73
-42.12
-50.86
-59.66
-68.66
-77.04
-83.32
-86.13
-85.22
-81.52
-76.62
-71.87
-67.51
-62.43
-54.74
-42.59
-24.97
-2.20
24.23
51.76
77.11
96.58
106.51
104.09
88.18
59.96
22.90
-17.80
-56.54
-88.69
-111.65
-125.06
-130.41
-129.88
-125.43
-118.08
-107.96
-94.82
-78.78
-60.84
-43.02
-27.83
-17.52
-13.33
-15.05
-21.14
-29.40
-37.75
-44.85
-50.08
-53.16
-53.65
-50.90
-44.52
-35.07
-24.44
-15.31
-10.17
-10.07
-14.04
-19.40
-22.93
-22.10
-15.99
-5.30
8.11
22.08
34.75
44.96
52.14
56.16
57.13
55.29
51.10
45.22
38.55
32.08
26.66
22.82
20.56
19.44
18.87
18.39
17.96
17.95
18.81
20.60
22.67
23.78
22.54
18.14
10.85
2.12
-5.94
-11.40
-13.26
-11.78
-8.31
-4.60
-2.17
-1.66
-2.81
-4.55
-5.55
-4.72
-1.72
2.88
7.71
11.14
11.92
9.82
5.72
1.38
-1.27
-0.77
3.34
10.49
19.34
28.16
35.33
39.63
40.49
38.10
33.31
27.41
21.65
16.86
13.16
10.09
6.99
3.40
-0.56
-4.29
-6.94
-7.83
-6.87
-4.60
-2.12
-0.68
-1.32
-4.58
-10.36
-18.02
-26.59
-34.96
-42.06
-46.96
-48.98
-47.77
-43.45
-36.68
-28.52
-20.19
-12.74
-6.82
-2.72
-0.55
-0.49
-2.80
-7.64
-14.69
-22.87
-30.35
-35.02
-35.06
-29.64
-19.13
-5.12
10.12
24.14
34.87
41.02
42.52
40.31
36.12
32.13
30.38
32.17
37.58
45.50
53.98
61.13
65.46
66.34
64.15
60.11
55.66
51.73
48.14
43.57
36.57
25.99
11.66
-5.03
-21.45
-34.73
-43.02
-46.13
-45.28
-41.21
-34.90
-27.46
-19.65
-11.43
-2.27
8.32
20.48
34.10
51.14
72.42
96.73
121.89
146.27
168.98
189.07
205.05
215.04
220.94
223.73
222.75
217.27
208.79
200.74
196.56
198.05
204.78
218.76
238.04
256.15
265.42
261.80
246.08
222.05
193.94
135.99
43.07
-67.77
-171.73
-255.21
-316.50
-357.64
-379.79
-382.99
-367.79
-334.59
-285.32
-227.37
-171.49
-126.19
-95.00
-77.06
-68.91
-66.47
-62.75
-57.86
-53.06
-51.06
-52.83
-56.99
-61.40
-64.76
-67.33
-68.41
-68.98
-71.33
-78.23
-90.43
-105.90
-120.49
-129.19
-128.26
-116.21
-96.25
-75.34
-60.94
-56.04
-57.06
-55.91
-44.78
-21.02
11.40
43.68
67.30
78.35
79.37
76.92
76.93
81.10
86.44
87.72
81.17
66.94
48.68
31.54
19.48
13.60
12.44
13.64
15.71
18.88
24.65
34.35
47.87
63.19
76.96
85.90
88.17
83.98
75.41
65.35
56.16
48.81
42.98
37.76
32.63
28.02
24.99
24.54
26.59
29.55
30.80
28.05
20.68
10.35
0.30
-6.34
-7.96
-5.11
-0.31
3.14
2.45
-3.75
-15.30
-30.83
-48.72
-66.85
-82.75
-94.23
-100.00
-99.96
-94.90
-86.07
-74.68
-62.63
-51.26
-41.27
-33.29
-28.11
-26.21
-27.00
-28.73
-29.09
-27.51
-23.88
-18.47
-12.50
-8.32
-8.43
-14.22
-25.35
-40.30
-58.82
-79.87
-101.11
-119.56
-132.44
-137.37
-132.54
-117.55
-84.51
-37.18
10.14
43.28
58.13
59.77
56.56
54.94
57.77
65.16
74.12
82.67
90.92
99.69
109.26
118.93
127.28
132.64
133.29
126.76
112.50
92.56
70.49
49.67
32.34
19.23
9.75
2.27
-6.02
-16.98
-31.00
-47.33
-64.71
-81.75
-96.94
-108.49
-114.83
-115.28
-109.78
-99.31
-85.40
-69.56
-52.81
-35.88
-19.43
-4.95
5.65
11.06
10.65
5.62
-0.79
-4.54
-2.85
5.14
17.31
30.66
42.92
52.12
57.71
61.20
64.94
70.06
76.39
80.89
80.44
73.32
58.08
34.51
4.70
-28.05
-61.24
-92.91
-123.84
-155.10
-176.11
-178.54
-163.13
-138.34
-112.10
-94.62
-81.15
-67.87
-53.08
-36.76
-17.64
2.15
21.17
39.23
56.41
73.48
89.51
104.01
117.25
128.41
135.73
138.22
135.80
128.80
118.72
106.20
92.20
77.86
63.25
47.61
31.11
15.03
0.98
-9.29
-15.54
-18.19
-18.06
-16.43
-14.83
-13.78
-12.93
-11.66
-9.46
-6.76
-4.36
-3.04
-3.30
-5.47
-8.84
-12.21
-14.65
-16.08
-17.32
-19.37
-22.71
-27.08
-32.53
-38.31
-43.15
-45.65
-44.76
-39.78
-30.46
-17.29
-1.66
12.90
24.40
32.98
39.82
45.37
48.86
49.01
45.05
37.57
26.13
12.96
1.90
-4.30
-6.48
-8.65
-16.07
-33.49
-63.62
-109.54
-168.08
-229.83
-282.51
-316.24
-326.16
-312.77
-280.96
-217.00
-127.15
-33.60
42.25
94.07
126.31
145.77
157.92
166.16
172.70
174.75
172.58
165.78
154.69
138.96
118.37
93.81
67.17
41.25
15.32
-8.17
-25.71
-35.56
-39.64
-42.00
-46.05
-55.19
-65.64
-72.92
-71.42
-57.21
-29.86
6.77
46.78
84.97
115.65
135.59
142.34
134.98
113.72
80.84
41.18
1.92
-29.36
-47.62
-51.75
-45.47
-34.82
-25.44
-20.20
-19.27
-21.85
-27.98
-36.87
-47.22
-56.08
-59.43
-54.79
-43.35
-30.45
-23.66
-28.93
-46.81
-71.93
-93.68
-101.89
-91.03
-61.80
-20.24
24.56
64.09
90.14
98.17
91.68
78.76
66.56
59.17
57.96
62.00
68.31
72.05
69.54
55.33
26.11
-16.80
-65.89
-108.67
-133.15
-132.88
-108.93
-68.05
-19.36
29.61
71.01
96.47
104.36
99.36
87.82
74.12
60.67
49.02
40.64
36.34
35.84
37.91
39.97
39.12
34.05
26.21
18.89
15.16
16.03
20.22
25.25
28.26
27.05
21.01
11.15
-0.51
-12.67
-24.16
-33.69
-39.58
-40.56
-36.39
-27.92
-16.83
-5.35
3.88
8.38
6.29
-2.82
-17.33
-33.96
-48.51
-57.24
-58.41
-53.16
-44.82
-37.52
-34.14
-35.22
-39.15
-43.41
-45.82
-45.17
-40.96
-32.78
-20.42
-4.69
11.78
24.77
30.23
26.74
17.12
7.52
4.29
10.07
21.76
31.78
32.12
19.15
-3.84
-27.68
-42.08
-40.22
-22.24
4.92
30.85
46.66
48.98
40.82
29.16
20.82
18.95
21.91
25.05
23.96
17.04
5.92
-6.05
-16.22
-23.83
-29.53
-33.95
-36.67
-36.26
-31.37
-21.95
-9.54
3.56
15.46
25.31
33.03
38.48
41.03
39.89
35.07
28.01
21.35
17.68
18.13
21.62
25.55
27.19
25.16
19.95
13.26
7.07
2.62
-0.07
-1.99
-4.40
-8.08
-13.02
-18.57
-23.90
-28.49
-32.29
-35.63
-38.80
-41.75
-44.05
-45.15
-44.80
-43.29
-41.29
-39.58
-38.61
-38.28
-38.01
-37.00
-34.47
-29.84
-22.70
-12.88
-0.51
13.78
28.77
42.93
54.78
63.43
68.77
71.35
72.01
71.27
69.14
65.04
58.22
48.19
35.09
19.85
3.98
-10.87
-23.28
-32.41
-38.07
-40.65
-40.94
-39.91
-38.45
-37.08
-35.73
-33.71
-30.02
-23.92
-15.53
-5.96
3.00
9.58
12.79
12.71
10.28
6.73
2.99
-0.51
-3.74
-6.75
-9.49
-11.75
-13.39
-14.43
-15.12
-15.78
-16.69
-17.92
-19.24
-20.26
-20.48
-19.56
-17.44
-14.39
-10.94
-7.65
-4.98
-3.10
-1.91
-1.16
-0.62
-0.20
-0.06
-0.49
-1.79
-4.13
-7.54
-11.89
-16.71
-21.07
-23.52
-22.40
-16.52
-5.95
7.56
20.91
30.73
34.67
32.26
24.81
14.55
3.45
-7.41
-17.79
-27.57
-36.20
-42.48
-45.07
-43.16
-37.00
-27.88
-17.78
-8.67
-1.94
1.90
3.26
3.21
3.02
3.71
5.61
8.24
10.41
10.83
8.65
4.04
-1.87
-7.24
-10.22
-9.59
-5.20
1.96
10.04
16.87
20.65
20.40
16.36
9.85
2.89
-2.57
-5.40
-5.80
-5.39
-6.57
-11.55
-21.12
-33.76
-45.54
-50.98
-44.84
-24.26
9.87
52.87
97.65
136.91
165.11
179.49
179.86
167.75
145.64
116.44
83.57
50.87
22.10
0.16
-13.85
-20.85
-23.45
-24.96
-28.49
-36.17
-48.69
-65.11
-82.62
-96.84
-102.59
-95.45
-73.52
-38.68
3.48
45.31
79.46
101.18
109.04
104.46
90.11
68.66
42.26
12.97
-16.69
-43.63
-64.76
-78.00
-82.92
-80.75
-73.68
-63.90
-53.00
-41.71
-30.21
-18.39
-6.17
6.34
18.68
30.07
39.32
45.12
46.39
42.73
34.73
23.81
11.87
0.66
-8.69
-15.78
-20.69
-23.50
-24.03
-21.76
-16.33
-7.86
2.75
13.94
23.94
31.20
34.79
34.45
30.55
23.89
15.55
6.65
-1.71
-8.67
-13.67
-16.48
-17.24
-16.30
-14.18
-11.43
-8.60
-6.09
-4.13
-2.81
-2.14
-2.09
-2.58
-3.49
-4.56
-5.41
-5.66
-5.03
-3.53
-1.37
1.11
3.60
5.89
7.86
9.40
10.43
10.83
10.56
9.72
8.52
7.27
6.31
5.89
6.12
6.94
8.04
8.95
9.20
8.43
6.52
3.66
0.22
-3.35
-6.72
-9.72
-12.36
-14.70
-16.75
-18.39
-19.39
-19.51
-18.63
-16.82
-14.28
-11.29
-8.12
-4.99
-2.17
-0.02
1.00
0.53
-1.48
-4.56
-7.79
-10.06
-10.59
-9.19
-6.35
-2.84
0.72
4.18
7.78
11.80
16.07
19.83
21.95
21.37
17.71
11.38
3.42
-4.97
-12.79
-19.40
-24.53
-28.02
-29.84
-29.99
-28.61
-26.01
-22.60
-18.84
-15.15
-11.90
-9.39
-7.84
-7.41
-8.06
-9.60
-11.68
-13.88
-15.86
-17.39
-18.36
-18.72
-18.34
-17.01
-14.51
-10.77
-6.08
-1.03
3.60
7.16
9.33
10.19
10.10
9.51
8.78
8.12
7.65
7.44
7.57
8.09
8.97
10.13
11.44
12.75
13.83
14.39
14.13
12.94
10.97
8.65
6.46
4.70
3.33
1.99
0.23
-2.22
-5.33
-8.78
-12.12
-15.03
-17.38
-19.23
-20.79
-22.23
-23.70
-25.19
-26.52
-27.48
-28.04
-28.36
-28.73
-29.30
-29.87
-29.66
-27.47
-22.13
-13.19
-1.46
11.09
21.98
28.96
30.69
26.96
18.51
6.81
-6.54
-20.14
-32.79
-43.54
-52.06
-59.01
-66.02
-75.01
-86.33
-98.41
-107.77
-109.71
-99.79
-75.94
-39.86
3.31
46.77
85.55
116.63
138.49
150.98
154.94
151.35
140.88
124.19
102.70
80.48
61.28
46.28
34.57
24.63
15.23
6.02
-1.87
-5.69
0.37
20.24
52.48
91.34
129.61
160.99
181.56
190.66
176.36
137.78
88.17
43.22
9.60
-13.89
-30.21
-41.18
-47.83
-51.50
-52.62
-51.89
-52.13
-55.59
-62.15
-69.91
-77.06
-83.08
-88.76
-94.01
-96.08
-95.83
-95.20
-95.62
-97.70
-101.53
-106.81
-112.82
-117.57
-119.68
-119.97
-119.84
-119.83
-119.28
-116.86
-111.45
-102.73
-90.83
-76.53
-61.21
-45.16
-27.17
-5.38
21.05
50.75
80.13
104.87
121.69
129.35
129.49
125.60
121.24
118.53
117.71
117.65
116.96
114.73
110.71
105.22
98.85
92.29
86.28
81.55
78.51
77.16
76.96
77.15
77.05
76.21
74.27
70.78
65.19
57.02
46.24
33.54
20.31
8.10
-1.84
-9.04
-13.79
-16.80
-18.57
-19.00
-17.27
-12.18
-2.73
11.30
29.18
49.57
71.08
92.66
113.47
132.25
146.66
153.45
149.58
133.80
107.88
76.40
45.15
18.95
-0.04
-12.45
-20.55
-26.46
-31.09
-34.29
-35.89
-36.81
-39.32
-46.28
-59.93
-80.98
-108.32
-139.56
-171.88
-202.71
-230.13
-252.78
-269.70
-280.05
-283.07
-278.06
-264.41
-241.81
-210.46
-171.30
-126.22
-77.97
-29.84
14.90
53.57
84.53
107.44
123.20
133.62
140.97
147.42
154.53
162.95
172.42
181.90
189.95
195.28
197.14
195.65
191.66
186.31
180.33
173.58
165.12
153.91
139.84
124.33
109.99
99.36
93.22
89.79
85.18
75.16
57.25
31.69
0.97
-31.91
-65.41
-100.31
-138.93
-183.11
-232.60
-284.76
-335.80
-382.48
-422.92
-456.30
-481.51
-496.33
-497.78
-483.57
-453.82
-411.38
-360.73
-305.81
-248.57
-189.34
-128.89
-70.61
-20.91
12.85
25.93
19.29
-0.06
-21.43
-34.34
-32.37
-15.01
12.97
44.03
70.79
88.31
95.19
93.22
86.23
78.58
73.85
74.12
79.81
90.14
103.69
118.58
132.50
142.86
147.18
143.93
133.25
116.85
97.34
77.01
57.17
38.23
20.44
4.69
-7.36
-14.09
-14.90
-10.85
-4.35
1.88
6.09
8.31
10.28
14.53
22.87
35.31
49.87
63.45
73.37
78.78
81.20
83.98
90.58
102.49
118.11
133.32
143.46
145.53
139.75
129.24
118.93
113.29
114.13
119.85
126.51
129.52
125.02
110.45
84.26
47.34
3.56
-40.83
-78.43
-102.47
-109.11
-99.29
-78.43
-54.73
-33.74
-15.97
1.47
21.49
44.39
66.23
79.68
76.85
52.15
7.49
-47.55
-100.05
-138.84
-157.22
-154.33
-134.30
-97.58
-54.03
-17.79
5.05
18.59
28.73
37.66
43.67
44.10
38.27
27.40
15.94
9.28
10.09
16.85
25.93
33.92
38.95
40.66
38.60
32.98
24.40
13.83
0.37
-15.40
-31.20
-44.08
-51.89
-54.80
-53.88
-50.15
-44.39
-37.38
-29.79
-22.84
-18.52
-18.60
-23.45
-30.85
-36.70
-37.52
-32.76
-25.07
-18.93
-18.31
-24.14
-33.18
-39.05
-35.60
-20.33
4.03
30.98
53.24
65.85
67.84
61.79
52.00
42.56
36.09
33.65
35.22
40.13
46.99
53.48
56.15
51.09
35.48
9.57
-22.27
-52.15
-71.50
-74.71
-61.77
-38.17
-12.29
8.37
20.04
23.14
20.51
15.01
7.95
-0.56
-10.25
-19.46
-25.19
-24.54
-16.53
-3.05
11.74
23.26
28.50
27.16
21.31
13.96
7.46
2.69
-0.83
-3.93
-6.96
-9.60
-11.50
-13.07
-15.46
-19.79
-26.00
-32.33
-35.89
-34.27
-26.95
-15.78
-4.00
5.42
11.18
13.89
15.22
16.66
18.66
20.61
21.44
20.43
17.62
13.84
10.44
8.73
9.40
11.86
14.15
13.38
6.96
-5.80
-23.04
-40.98
-55.76
-65.52
-71.32
-76.26
-83.51
-94.26
-107.12
-119.02
-126.98
-129.21
-124.99
-113.89
-95.11
-68.08
-33.76
4.35
40.54
68.86
85.63
91.07
89.01
84.95
83.67
87.41
95.63
106.07
116.27
124.64
130.69
134.56
136.37
135.76
132.01
124.49
113.21
99.03
83.53
68.40
54.76
42.71
31.40
19.49
6.00
-9.17
-25.06
-40.09
-52.74
-62.09
-67.98
-70.82
-71.11
-69.00
-64.27
-56.73
-46.70
-35.20
-23.75
-13.66
-5.44
1.39
7.83
14.71
22.04
28.97
34.35
37.50
38.72
39.18
40.34
43.16
47.69
53.02
57.70
60.21
59.35
54.58
46.10
34.81
22.14
9.63
-1.54
-10.81
-18.17
-23.94
-28.35
-31.37
-32.85
-32.84
-31.69
-30.08
-28.64
-27.69
-27.12
-26.51
-25.28
-22.94
-19.14
-13.86
-7.59
-1.38
3.16
4.30
0.62
-8.41
-22.23
-39.30
-57.45
-74.27
-87.47
-95.24
-96.50
-91.18
-80.20
-65.25
-48.31
-31.23
-15.41
-1.73
9.41
18.05
24.65
30.08
35.39
41.36
47.95
53.96
57.30
55.66
47.60
33.31
14.80
-4.64
-21.49
-33.14
-38.63
-38.74
-35.38
-30.58
-25.69
-20.86
-15.30
-7.96
1.67
12.99
24.43
34.13
40.80
44.32
45.65
46.15
46.64
46.95
46.12
43.17
37.91
31.29
25.02
20.75
19.16
19.70
20.81
20.77
18.38
13.41
6.51
-1.17
-8.43
-14.33
-18.38
-20.54
-21.18
-20.88
-20.33
-20.06
-20.35
-21.18
-22.32
-23.47
-24.43
-25.11
-25.40
-25.15
-24.09
-21.97
-18.68
-14.40
-9.54
-4.59
0.01
4.04
7.36
9.84
11.21
11.13
9.36
6.06
1.85
-2.24
-5.12
-6.03
-4.80
-1.88
1.85
5.39
7.91
8.96
8.53
6.98
4.77
2.16
-0.93
-4.89
-9.97
-15.88
-21.61
-25.74
-27.07
-25.31
-21.40
-17.24
-14.95
-16.02
-20.77
-28.27
-36.82
-44.76
-51.24
-56.58
-62.02
-68.91
-77.70
-87.54
-96.44
-102.27
-103.77
-101.03
-95.11
-87.18
-77.77
-66.71
-53.65
-38.79
-22.97
-7.29
7.61
21.80
35.74
49.35
61.60
70.63
74.70
73.23
67.18
58.59
49.58
41.38
33.91
26.17
17.01
5.86
-6.68
-18.90
-28.45
-33.26
-32.42
-26.72
-18.32
-9.75
-2.59
3.33
9.67
18.31
29.85
42.85
54.33
61.36
62.68
59.35
54.23
50.33
49.40
51.18
53.80
54.83
52.54
46.55
37.86
28.27
19.55
12.77
8.09
4.88
2.22
-0.53
-3.44
-6.04
-7.69
-8.07
-7.45
-6.58
-6.39
-7.48
-9.93
-13.32
-17.09
-20.84
-24.62
-28.74
-33.41
-38.38
-42.72
-45.08
-44.20
-39.55
-31.62
-21.78
-11.82
-3.31
2.79
6.14
6.68
4.35
-1.06
-9.66
-20.95
-33.45
-44.67
-51.66
-51.85
-43.92
-28.25
-6.90
17.05
40.27
60.08
74.88
84.24
88.72
89.29
86.93
82.26
75.41
66.13
54.07
39.21
22.43
5.65
-8.51
-17.67
-20.79
-18.82
-14.55
-11.45
-12.09
-16.86
-23.62
-28.87
-29.76
-26.06
-20.56
-17.84
-21.93
-33.91
-50.69
-66.17
-73.82
-69.58
-53.63
-29.80
-3.56
20.47
40.01
55.33
67.84
78.48
86.97
91.85
92.21
88.48
81.94
73.80
64.74
54.61
43.12
31.13
20.45
14.52
16.31
25.52
37.28
44.23
39.07
17.58
-19.02
-64.90
-109.20
-140.04
-149.65
-137.84
-111.02
-81.16
-62.18
-64.46
-92.12
-138.52
-189.01
-227.82
-244.45
-234.57
-201.49
-153.79
-91.70
-25.61
31.57
73.16
99.99
114.99
122.58
129.24
138.71
154.27
176.16
203.45
233.15
260.14
264.60
236.46
178.95
107.21
39.82
-11.60
-43.33
-57.76
-60.23
-55.81
-45.20
-27.99
-5.48
18.34
37.19
46.56
45.63
36.02
21.11
6.79
-2.12
-3.61
1.18
8.73
15.52
19.18
18.59
13.80
6.77
-0.57
-4.99
-4.56
1.60
13.58
30.64
51.00
72.00
90.85
104.26
108.90
102.06
83.23
54.85
21.90
-9.81
-35.70
-53.94
-66.01
-75.90
-88.77
-108.95
-138.77
-177.98
-223.65
-270.63
-312.52
-343.16
-358.21
-356.28
-338.90
-309.59
-272.27
-230.00
-184.42
-135.77
-83.32
-25.96
36.67
102.87
167.77
223.42
260.54
271.88
255.52
216.63
166.43
118.52
84.31
69.45
72.73
87.56
105.11
117.51
119.90
110.92
92.02
66.20
36.88
7.09
-20.99
-46.16
-68.11
-87.04
-103.14
-115.93
-124.03
-125.47
-118.69
-103.63
-82.18
-57.60
-33.15
-10.76
9.53
28.94
48.91
70.03
91.89
113.42
133.27
149.86
161.26
165.50
161.58
150.55
135.71
121.52
111.57
106.64
104.21
99.56
87.81
65.75
32.52
-11.01
-62.70
-118.97
-174.06
-219.96
-247.80
-250.25
-223.80
-170.77
-99.79
-24.17
40.95
82.77
94.01
74.73
32.46
-18.94
-63.39
-87.61
-85.17
-58.43
-16.11
29.94
68.27
90.37
93.08
78.09
50.77
18.84
-9.91
-28.44
-32.20
-18.78
8.32
40.48
69.70
93.21
115.98
137.41
152.07
152.55
132.98
87.45
19.90
-58.39
-132.48
-187.64
-214.53
-210.85
-180.93
-132.70
-74.42
-12.35
47.95
92.55
108.02
90.46
48.46
-1.73
-42.60
-61.41
-53.90
-25.47
12.80
51.13
83.85
108.52
125.05
129.96
119.08
90.97
48.78
0.45
-43.21
-72.42
-82.48
-77.27
-65.79
-56.37
-52.76
-53.94
-56.19
-55.59
-50.24
-41.43
-32.48
-26.58
-25.25
-28.33
-34.60
-42.03
-47.31
-46.50
-36.84
-18.54
4.49
25.46
36.87
33.52
15.21
-12.35
-39.50
-56.87
-58.28
-42.48
-12.87
24.64
63.25
96.79
120.39
130.08
122.99
98.76
61.02
17.60
-20.92
-43.75
-46.93
-34.28
-15.61
-1.67
0.93
-8.05
-24.36
-42.72
-59.80
-75.02
-87.27
-93.99
-91.21
-75.89
-48.49
-14.27
18.62
41.64
51.03
48.69
40.02
31.11
25.72
24.35
25.26
26.28
26.16
24.97
23.55
22.63
22.50
23.05
23.73
24.15
24.14
23.82
23.55
23.64
24.07
24.60
24.84
24.53
23.96
23.99
25.69
29.57
34.68
38.61
38.31
31.57
18.26
0.85
-16.92
-31.19
-39.72
-42.58
-41.38
-37.97
-33.41
-28.05
-22.47
-18.14
-17.09
-20.70
-28.34
-37.11
-43.08
-43.34
-37.44
-27.35
-16.15
-6.02
2.62
10.50
18.02
24.23
27.00
24.58
17.03
6.73
-2.67
-8.10
-8.53
-5.30
-1.00
2.06
2.99
2.38
1.54
1.43
2.08
2.71
2.46
1.10
-0.71
-1.84
-1.31
1.11
4.65
7.83
9.12
7.60
3.42
-2.29
-7.81
-11.53
-12.55
-10.99
-7.89
-4.62
-2.30
-1.23
-0.69
0.46
3.60
9.98
20.38
34.50
50.53
65.02
73.59
72.43
60.10
38.81
14.04
-7.42
-20.39
-23.59
-20.16
-15.97
-16.56
-24.44
-38.02
-52.64
-63.20
-66.68
-63.36
-56.14
-48.67
-43.30
-40.25
-38.18
-35.66
-32.48
-29.87
-29.55
-32.32
-37.31
-42.34
-45.21
-44.85
-41.57
-36.35
-29.65
-20.87
-8.74
7.40
26.67
46.57
64.09
77.02
84.78
88.15
88.26
85.77
80.60
72.56
62.12
50.82
40.92
34.54
32.78
35.25
40.11
44.62
45.99
42.17
32.68
19.04
4.56
-6.60
-10.87
-6.68
4.89
20.50
35.82
46.96
51.42
48.39
38.40
23.06
4.68
-13.88
-29.74
-40.73
-46.12
-46.94
-45.49
-44.14
-44.15
-45.01
-44.85
-41.54
-34.06
-23.12
-10.97
-0.36
6.68
9.71
9.80
8.87
8.60
9.65
11.62
13.53
14.70
15.23
15.94
17.86
21.56
26.76
32.50
37.58
41.12
42.94
43.44
43.35
43.29
43.44
43.61
43.52
43.13
42.76
42.87
43.35
43.05
39.80
31.18
15.80
-5.69
-30.58
-55.07
-75.79
-91.00
-100.80
-106.62
-110.18
-112.83
-115.29
-117.70
-119.52
-119.49
-115.74
-106.43
-90.80
-69.99
-47.07
-25.95
-9.69
0.74
6.58
10.32
14.12
18.76
23.57
27.26
28.99
28.94
28.23
28.27
30.23
34.63
41.31
49.61
58.29
65.56
69.29
67.67
60.02
47.38
32.30
17.99
6.93
-0.02
-3.86
-6.55
-9.93
-14.79
-20.76
-26.91
-32.44
-37.18
-41.52
-45.83
-50.02
-53.38
-54.86
-53.62
-49.49
-43.14
-35.83
-28.94
-23.48
-19.72
-17.25
-15.30
-13.12
-10.37
-7.20
-4.07
-1.48
0.32
1.40
2.02
2.59
3.42
4.70
6.47
8.57
10.70
12.58
14.02
15.13
16.27
17.74
19.64
21.56
22.67
21.87
18.19
11.26
1.59
-9.50
-20.18
-28.78
-34.19
-36.01
-34.36
-29.77
-23.24
-16.34
-11.37
-10.92
-16.87
-29.11
-44.74
-58.59
-65.28
-61.69
-48.67
-30.76
-14.02
-3.12
0.73
-0.10
-1.41
0.41
6.58
15.77
25.25
32.58
36.78
38.43
38.73
38.59
38.15
36.97
34.61
31.10
27.08
23.46
20.83
19.05
17.17
13.92
8.21
-0.15
-10.13
-19.60
-25.95
-27.09
-22.39
-13.07
-1.86
8.09
14.43
16.41
14.88
11.40
7.41
3.59
0.02
-3.25
-5.82
-6.88
-5.71
-2.13
3.25
9.31
14.96
19.53
22.88
25.23
26.73
27.28
26.50
24.04
19.88
14.58
9.12
4.50
1.25
-0.94
-3.08
-6.51
-12.15
-20.01
-29.08
-37.64
-43.94
-46.83
-46.16
-42.70
-37.74
-32.48
-27.59
-23.03
-18.34
-12.96
-6.56
0.91
9.50
19.50
31.34
45.29
60.84
76.39
89.36
96.77
96.19
86.65
69.17
46.54
22.52
0.75
-16.26
-27.60
-33.70
-35.67
-34.55
-31.01
-25.45
-18.45
-10.97
-4.21
0.83
3.81
5.10
5.44
5.35
4.69
2.78
-1.12
-7.07
-13.98
-19.71
-21.87
-18.98
-11.27
-0.81
9.28
16.08
17.96
15.00
8.53
0.30
-8.21
-16.01
-22.28
-26.17
-26.92
-24.37
-19.51
-14.45
-11.68
-12.97
-18.37
-26.16
-33.59
-38.16
-38.67
-35.55
-30.40
-25.16
-21.17
-18.80
-17.45
-15.96
-13.31
-9.20
-4.46
-0.96
-1.03
-6.48
-17.55
-32.57
-48.55
-62.52
-72.92
-80.21
-86.18
-92.53
-99.49
-105.38
-107.53
-103.97
-94.77
-82.09
-68.93
-57.28
-47.03
-36.33
-23.18
-7.10
10.24
25.88
37.36
44.20
48.10
51.98
58.21
67.36
77.97
87.57
94.13
97.08
97.49
97.29
98.25
101.10
105.26
109.28
111.58
111.16
107.90
102.39
95.50
87.98
80.30
72.76
65.65
59.26
53.82
49.35
45.63
42.40
39.41
36.61
34.03
31.77
29.97
28.79
28.28
28.26
28.19
27.22
24.40
19.12
11.41
2.00
-7.98
-17.47
-25.86
-33.11
-39.55
-45.49
-50.94
-55.56
-58.83
-60.41
-60.38
-59.30
-57.99
-57.21
-57.34
-58.28
-59.62
-60.94
-62.05
-62.99
-63.84
-64.43
-64.13
-62.02
-57.25
-49.52
-39.39
-28.41
-18.67
-12.24
-10.50
-13.67
-20.74
-29.84
-38.74
-45.57
-49.19
-49.34
-46.36
-40.84
-33.28
-23.96
-13.05
-0.81
12.24
25.34
37.57
48.12
56.55
62.91
67.65
71.44
74.75
77.69
79.95
81.00
80.42
78.09
74.32
69.62
64.55
59.57
55.05
51.26
48.46
46.71
45.69
44.60
42.28
37.68
30.34
20.80
10.48
1.22
-5.42
-8.65
-8.68
-6.41
-3.01
0.48
3.37
5.32
6.20
5.91
4.43
1.86
-1.47
-4.87
-7.38
-7.86
-5.17
1.51
12.36
26.41
41.15
52.49
55.47
45.90
22.18
-13.39
-54.93
-94.60
-125.22
-142.54
-146.05
-138.22
-122.88
-103.62
-83.01
-62.77
-44.15
-28.24
-15.84
-7.06
-1.20
3.02
7.02
11.86
17.82
24.43
30.49
34.60
35.78
34.04
30.50
27.08
25.68
27.23
31.25
36.00
39.32
39.63
36.68
31.55
26.20
22.71
22.58
26.38
33.41
41.59
47.41
46.45
34.73
10.46
-24.51
-64.46
-101.51
-128.30
-140.65
-138.65
-125.88
-107.21
-86.72
-66.73
-48.15
-31.51
-17.62
-7.37
-1.06
2.15
4.11
6.86
11.75
18.87
27.16
34.91
40.46
42.74
41.62
37.91
33.18
29.29
27.80
29.51
34.18
40.72
47.60
53.46
57.46
59.43
59.67
58.62
56.50
53.24
48.54
42.19
34.35
25.67
17.04
9.29
2.93
-2.00
-5.79
-8.84
-11.49
-13.91
-16.11
-17.85
-18.76
-18.36
-16.31
-12.63
-7.89
-3.02
1.00
3.47
4.27
3.67
2.11
-0.11
-2.99
-6.76
-11.58
-17.29
-23.22
-28.29
-31.40
-31.82
-29.56
-25.26
-19.87
-14.09
-8.06
-1.55
5.55
12.72
18.81
22.52
23.35
21.90
19.67
18.00
17.30
17.00
16.24
14.86
13.86
14.79
18.50
24.04
28.68
29.04
22.76
9.75
-7.75
-26.28
-42.61
-54.85
-62.63
-66.45
-67.02
-64.70
-59.65
-52.04
-42.47
-32.02
-22.01
-13.49
-6.89
-1.77
2.88
8.17
14.77
22.47
30.43
37.68
43.67
48.55
53.05
57.88
63.12
68.01
71.18
71.42
68.38
63.04
57.53
54.51
56.32
64.17
77.59
94.47
111.57
125.43
133.37
134.07
127.64
115.16
98.18
78.22
56.79
35.57
16.45
1.35
-8.38
-12.49
-12.09
-9.33
-6.73
-6.25
-8.74
-13.77
-19.88
-25.20
-28.10
-27.72
-24.17
-18.33
-11.41
-4.44
2.10
8.29
14.54
21.24
28.50
36.01
43.14
49.00
52.67
53.30
50.31
43.58
33.52
21.06
7.37
-6.46
-19.74
-32.24
-44.04
-55.17
-65.34
-73.91
-80.04
-83.03
-82.63
-79.18
-73.52
-66.91
-60.70
-56.20
-54.32
-55.41
-59.04
-64.07
-68.94
-72.21
-73.01
-71.27
-67.47
-62.29
-56.20
-49.36
-41.79
-33.63
-25.23
-17.07
-9.55
-2.90
2.75
7.10
9.66
9.86
7.43
2.71
-3.32
-9.36
-14.34
-17.84
-20.03
-21.47
-22.66
-23.83
-24.96
-25.92
-26.70
-27.41
-28.14
-28.83
-29.22
-28.96
-27.87
-25.99
-23.62
-21.15
-18.94
-17.24
-16.18
-15.75
-15.79
-16.01
-15.99
-15.45
-14.37
-13.15
-12.44
-12.87
-14.64
-17.41
-20.36
-22.58
-23.40
-22.61
-20.44
-17.28
-13.48
-9.34
-5.15
-1.40
1.22
2.01
0.59
-2.71
-6.81
-9.99
-10.48
-7.14
-0.09
9.17
18.09
23.97
24.95
20.72
12.55
2.75
-6.24
-12.73
-16.12
-16.80
-15.61
-13.34
-10.50
-7.38
-4.20
-1.37
0.68
1.66
1.68
1.28
1.21
2.07
3.98
6.50
8.84
10.31
10.64
10.15
9.55
9.65
10.99
13.71
17.54
21.88
25.89
28.68
29.55
28.23
25.16
21.28
17.72
15.17
13.57
12.20
10.20
7.08
3.12
-0.77
-3.51
-4.41
-3.54
-1.62
0.33
1.47
1.36
0.04
-2.14
-4.75
-7.45
-9.93
-11.93
-13.13
-13.20
-11.93
-9.33
-5.78
-1.94
1.36
3.45
3.95
2.98
1.04
-1.03
-2.30
-2.09
-0.21
2.91
6.33
8.89
9.70
8.54
6.02
3.47
2.46
4.24
9.23
16.80
25.33
32.59
36.28
34.56
26.61
12.99
-4.15
-21.38
-34.77
-41.16
-39.26
-30.25
-17.36
-4.66
4.58
8.98
9.28
7.40
5.32
3.98
3.14
1.93
-0.28
-3.27
-5.93
-6.77
-4.64
0.61
8.03
15.78
21.75
24.22
22.36
16.44
7.75
-1.81
-10.24
-15.99
-18.41
-17.81
-15.27
-12.24
-9.95
-9.18
-10.04
-12.14
-14.71
-16.83
-17.53
-15.94
-11.61
-4.72
3.81
12.46
19.62
24.09
25.51
24.34
21.54
18.13
14.88
12.16
10.08
8.63
7.86
7.81
8.55
10.02
12.06
14.35
16.47
18.01
18.65
18.36
17.44
16.42
15.84
15.99
16.74
17.59
17.94
17.41
16.10
14.52
13.36
13.06
13.55
14.26
14.31
12.89
9.56
4.41
-1.99
-8.74
-14.77
-19.08
-20.91
-19.99
-16.69
-12.02
-7.35
-3.95
-2.43
-2.46
-2.91
-2.45
-0.27
3.46
7.70
11.21
13.23
13.92
14.04
14.32
14.77
14.56
12.45
7.59
0.05
-9.12
-18.42
-26.56
-32.85
-37.19
-39.79
-40.87
-40.55
-38.90
-36.11
-32.45
-28.20
-23.66
-19.09
-14.79
-11.08
-8.26
-6.35
-5.13
-4.20
-3.18
-1.86
-0.19
1.93
4.62
8.05
12.10
16.32
20.01
22.58
23.93
24.49
24.90
25.50
25.94
25.37
22.94
18.43
12.59
6.84
2.67
0.99
1.76
4.28
7.56
10.80
13.48
15.29
15.84
14.68
11.41
6.09
-0.60
-7.40
-12.92
-16.22
-17.15
-16.45
-15.28
-14.57
-14.55
-14.59
-13.58
-10.53
-5.22
1.64
8.60
14.12
17.24
17.87
16.63
14.35
11.63
8.64
5.38
2.04
-0.82
-2.46
-2.51
-1.37
-0.15
-0.22
-2.39
-6.33
-10.63
-13.38
-13.19
-9.81
-4.35
1.25
4.99
5.55
2.73
-2.62
-9.08
-15.17
-19.80
-22.55
-23.56
-23.31
-22.30
-20.87
-19.17
-17.26
-15.22
-13.16
-11.16
-9.16
-6.95
-4.29
-1.14
2.21
5.19
7.15
7.66
6.71
4.75
2.46
0.52
-0.63
-0.90
-0.50
0.21
0.91
1.37
1.51
1.29
0.64
-0.62
-2.67
-5.61
-9.28
-13.31
-17.22
-20.59
-23.28
-25.42
-27.29
-29.19
-31.31
-33.67
-36.19
-38.78
-41.35
-43.87
-46.29
-48.54
-50.57
-52.37
-54.04
-55.72
-57.38
-58.62
-58.63
-56.43
-51.31
-43.31
-33.42
-23.23
-14.34
-7.68
-3.20
-0.06
2.82
6.22
10.41
15.19
20.27
25.57
31.21
37.32
43.83
50.27
55.89
59.89
61.64
60.89
57.85
53.19
47.92
43.16
39.84
38.51
39.22
41.60
45.03
48.81
52.22
54.60
55.35
54.08
50.83
46.18
41.30
37.65
36.44
38.22
42.65
48.57
54.43
58.76
60.50
59.30
55.48
49.86
43.55
37.50
32.18
27.40
22.45
16.53
9.27
0.96
-7.49
-15.14
-21.46
-26.57
-30.99
-35.04
-38.50
-40.62
-40.72
-38.80
-35.82
-33.42
-33.12
-35.53
-40.08
-45.36
-49.75
-52.13
-52.13
-49.94
-45.99
-40.70
-34.38
-27.48
-20.62
-14.57
-9.95
-7.00
-5.49
-4.89
-4.64
-4.46
-4.34
-4.40
-4.66
-4.90
-4.73
-3.83
-2.07
0.42
3.34
6.47
9.69
13.00
16.37
19.69
22.70
25.07
26.50
26.80
25.91
23.86
20.73
16.60
11.56
5.80
-0.30
-6.05
-10.60
-13.16
-13.40
-11.65
-8.93
-6.68
-6.21
-8.25
-12.76
-19.03
-26.01
-32.75
-38.59
-43.23
-46.57
-48.56
-49.05
-47.84
-44.70
-39.50
-32.21
-22.87
-11.69
0.89
14.04
26.52
36.85
43.74
46.57
45.72
42.51
38.67
35.71
34.36
34.37
34.79
34.53
32.88
29.77
25.71
21.56
17.99
15.24
12.99
10.60
7.51
3.68
-0.22
-3.06
-3.66
-1.40
3.45
9.69
15.55
19.32
19.85
16.85
10.90
3.14
-5.14
-12.80
-18.98
-23.13
-24.86
-23.85
-19.83
-12.68
-2.68
9.38
22.04
33.40
41.55
45.02
43.35
37.20
28.14
18.09
8.80
1.39
-3.65
-6.35
-7.05
-6.35
-5.02
-3.91
-3.74
-4.84
-6.93
-9.22
-10.76
-10.86
-9.38
-6.73
-3.64
-0.79
1.46
3.05
4.20
5.18
6.28
7.69
9.61
12.24
15.77
20.31
25.71
31.59
37.32
42.29
46.11
48.76
50.42
51.21
50.85
48.49
42.93
33.12
18.74
0.52
-19.85
-40.31
-59.06
-75.09
-88.28
-99.07
-107.99
-115.20
-120.46
-123.33
-123.59
-121.55
-118.05
-114.17
-110.68
-107.42
-103.16
-95.74
-82.87
-63.06
-36.40
-4.75
28.70
60.41
87.57
108.69
123.63
132.90
136.79
134.80
125.56
107.12
77.68
36.25
-16.49
-77.67
-141.88
-201.81
-249.66
-279.07
-286.83
-273.44
-242.52
-199.16
-148.35
-93.92
-38.53
15.78
66.90
112.44
150.13
178.37
196.60
205.47
206.48
201.56
192.60
181.02
167.56
152.36
135.25
116.26
95.94
75.40
56.00
38.87
24.71
13.65
5.56
0.17
-2.73
-3.47
-2.68
-1.34
-0.65
-1.57
-4.47
-8.97
-14.12
-18.84
-22.38
-24.53
-25.58
-26.07
-26.60
-27.63
-29.43
-32.06
-35.27
-38.56
-41.29
-42.82
-42.78
-41.14
-38.26
-34.73
-31.24
-28.32
-26.24
-24.98
-24.21
-23.46
-22.24
-20.26
-17.51
-14.29
-11.11
-8.52
-6.96
-6.62
-7.43
-9.08
-11.07
-12.83
-13.90
-13.93
-12.92
-11.08
-8.83
-6.54
-4.40
-2.43
-0.49
1.46
3.31
4.81
5.66
5.76
5.24
4.43
3.72
3.43
3.68
4.41
5.45
6.60
7.70
8.57
9.10
9.27
9.16
8.94
8.80
8.78
8.75
8.45
7.61
6.17
4.29
2.33
0.64
-0.57
-1.36
-1.94
-2.54
-3.19
-3.72
-3.84
-3.37
-2.32
-0.94
0.46
1.69
2.74
3.78
4.99
6.39
7.75
8.72
8.94
8.27
6.80
4.88
2.98
1.47
0.48
-0.11
-0.61
-1.39
-2.70
-4.52
-6.61
-8.53
-9.89
-10.49
-10.46
-10.26
-10.47
-11.56
-13.58
-16.07
-18.21
-19.15
-18.38
-16.01
-12.73
-9.59
-7.70
-8.02
-11.22
-17.62
-27.08
-38.85
-51.62
-63.67
-73.36
-79.60
-82.13
-81.27
-77.38
-70.29
-59.06
-42.46
-19.74
8.50
39.99
71.15
97.99
117.32
127.57
129.16
124.17
115.42
105.52
96.04
87.23
78.33
68.35
56.78
44.06
31.28
19.66
10.03
2.67
-2.36
-5.03
-5.27
-3.29
-0.00
3.07
4.31
2.81
-1.14
-6.21
-10.75
-13.57
-14.29
-13.07
-10.09
-5.09
2.53
13.20
26.69
41.92
57.33
71.34
82.77
90.91
95.40
96.09
93.07
87.01
79.20
71.42
65.54
62.91
63.92
67.95
73.75
79.99
85.67
90.33
93.85
96.20
97.13
96.14
92.68
86.36
77.21
65.84
53.42
41.35
30.85
22.49
15.86
9.60
1.80
-9.23
-24.36
-43.13
-63.80
-83.72
-100.19
-111.22
-116.29
-116.58
-114.49
-112.71
-112.96
-115.26
-118.06
-119.18
-117.19
-112.45
-107.00
-103.48
-103.54
-106.69
-110.46
-111.60
-107.93
-99.51
-88.51
-78.06
-70.66
-67.16
-66.75
-67.67
-68.11
-66.69
-62.37
-54.35
-42.06
-25.58
-6.05
14.28
32.64
46.69
55.27
58.62
58.01
55.09
51.48
48.59
47.66
49.57
54.48
61.43
68.40
72.80
72.55
66.94
56.86
44.34
31.50
19.75
9.46
0.43
-7.61
-14.47
-19.66
-22.78
-23.96
-23.96
-23.89
-24.60
-26.32
-28.63
-30.72
-31.96
-32.16
-31.52
-30.36
-28.63
-25.78
-20.89
-13.30
-3.08
8.58
19.75
28.43
33.37
34.47
32.58
28.95
24.55
19.82
14.78
9.38
3.84
-1.42
-5.86
-9.22
-11.54
-13.16
-14.47
-15.71
-16.90
-17.92
-18.53
-18.54
-17.86
-16.49
-14.57
-12.37
-10.17
-8.22
-6.65
-5.42
-4.35
-3.26
-2.06
-0.73
0.60
1.79
2.79
3.62
4.43
5.45
6.94
9.08
11.91
15.30
18.88
22.23
24.95
26.85
27.99
28.61
28.98
29.21
29.21
28.68
27.31
24.84
21.19
16.40
10.60
4.02
-3.03
-10.14
-16.81
-22.60
-27.17
-30.40
-32.36
-33.23
-33.19
-32.35
-30.77
-28.51
-25.72
-22.68
-19.74
-17.30
-15.70
-15.15
-15.73
-17.36
-19.79
-22.65
-25.51
-27.99
-29.79
-30.73
-30.72
-29.70
-27.65
-24.62
-20.80
-16.58
-12.47
-8.99
-6.48
-5.00
-4.26
-3.79
-3.06
-1.74
0.27
2.78
5.37
7.58
8.98
9.36
8.68
7.10
4.96
2.68
0.70
-0.61
-0.96
-0.28
1.29
3.43
5.71
7.75
9.30
10.32
10.91
11.25
11.47
11.68
11.88
12.06
12.15
12.11
11.85
11.33
10.54
9.58
8.63
7.94
7.70
7.95
8.53
9.11
9.29
8.82
7.62
5.82
3.62
1.17
-1.47
-4.34
-7.48
-10.80
-14.15
-17.35
-20.35
-23.21
-26.09
-29.12
-32.24
-35.18
-37.56
-39.05
-39.57
-39.35
-38.88
-38.63
-38.88
-39.44
-39.72
-38.94
-36.48
-32.18
-26.40
-19.89
-13.45
-7.68
-2.89
0.88
3.63
5.34
6.05
5.91
5.35
4.93
5.12
6.09
7.55
8.92
9.61
9.33
8.22
6.72
5.37
4.53
4.34
4.72
5.58
6.86
8.55
10.59
12.82
14.96
16.76
18.07
18.91
19.35
19.42
19.01
17.98
16.28
14.04
11.59
9.32
7.49
6.15
5.13
4.15
2.96
1.48
-0.25
-2.03
-3.64
-4.90
-5.71
-6.09
-6.14
-6.01
-5.82
-5.67
-5.51
-5.27
-4.88
-4.31
-3.61
-2.86
-2.14
-1.53
-1.04
-0.66
-0.34
-0.02
0.41
1.04
1.88
2.85
3.75
4.40
4.69
4.69
4.60
4.68
5.12
5.94
7.02
8.12
9.03
9.64
9.94
10.08
10.21
10.46
10.92
11.53
12.21
12.90
13.54
14.13
14.64
15.01
15.13
14.86
14.16
13.04
11.59
9.90
8.03
6.09
4.21
2.62
1.53
1.03
1.00
1.09
0.90
0.08
-1.52
-3.80
-6.49
-9.26
-11.84
-13.98
-15.53
-16.31
-16.18
-15.05
-13.02
-10.40
-7.71
-5.48
-4.12
-3.69
-3.87
-4.13
-3.92
-2.96
-1.36
0.50
2.15
3.28
3.79
3.81
3.48
2.91
2.17
1.31
0.51
-0.03
-0.11
0.30
1.04
1.80
2.36
2.61
2.72
2.96
3.61
4.84
6.66
8.90
11.33
13.63
15.54
16.83
17.41
17.35
16.85
16.12
15.29
14.30
12.92
10.92
8.24
5.07
1.84
-0.95
-2.92
-3.94
-4.08
-3.58
-2.63
-1.35
0.18
1.82
3.30
4.32
4.65
4.33
3.63
3.00
2.84
3.26
4.07
4.78
4.87
4.02
2.27
-0.06
-2.54
-4.81
-6.73
-8.29
-9.51
-10.22
-10.12
-8.89
-6.43
-2.97
0.91
4.52
7.31
9.00
9.62
9.37
8.46
7.07
5.32
3.30
1.11
-1.13
-3.34
-5.40
-7.22
-8.67
-9.66
-10.19
-10.37
-10.39
-10.42
-10.56
-10.77
-10.98
-11.16
-11.35
-11.62
-12.01
-12.45
-12.81
-13.05
-13.29
-13.78
-14.82
-16.62
-19.23
-22.48
-26.06
-29.50
-32.28
-33.84
-33.75
-31.78
-28.06
-22.96
-17.04
-10.82
-4.68
1.11
6.38
11.05
15.12
18.71
22.06
25.42
28.93
32.49
35.84
38.65
40.73
42.11
43.07
43.98
45.17
46.81
48.88
51.18
53.48
55.50
57.05
57.99
58.29
57.98
57.20
56.18
55.22
54.64
54.55
54.77
54.73
53.69
51.02
46.59
40.87
34.80
29.33
25.02
21.83
19.24
16.56
13.31
9.41
5.11
0.80
-3.17
-6.66
-9.64
-12.21
-14.42
-16.34
-17.99
-19.44
-20.80
-22.30
-24.30
-27.19
-31.34
-36.96
-44.00
-52.14
-60.87
-69.60
-77.67
-84.35
-89.07
-91.68
-92.88
-94.17
-97.29
-103.16
-110.94
-117.70
-119.30
-111.93
-93.79
-65.93
-31.83
4.06
37.84
67.20
91.31
110.00
122.83
128.71
126.32
115.05
95.93
71.89
47.17
25.92
10.72
1.56
-3.81
-8.68
-15.60
-25.19
-35.93
-45.01
-49.59
-47.94
-39.85
-26.54
-10.25
6.27
20.30
29.78
33.94
33.67
31.22
29.33
29.95
33.43
38.48
43.06
45.50
45.33
43.31
40.79
38.97
38.38
39.01
40.69
43.46
47.59
53.25
60.19
67.52
74.00
78.42
80.02
78.80
75.38
70.78
66.04
61.99
58.99
57.00
55.58
54.08
51.81
48.30
43.44
37.57
31.42
25.87
21.80
19.85
20.25
22.71
26.24
29.14
29.42
25.48
16.96
5.24
-6.92
-16.39
-21.12
-21.11
-18.45
-16.26
-17.16
-22.08
-30.03
-39.00
-47.11
-53.47
-58.28
-62.15
-65.36
-67.54
-68.01
-66.36
-62.98
-59.10
-56.15
-55.18
-56.40
-59.24
-62.85
-66.49
-69.79
-72.58
-74.60
-75.42
-74.53
-71.62
-66.74
-60.28
-52.70
-44.26
-35.08
-25.42
-16.00
-8.01
-2.78
-1.18
-3.13
-7.45
-12.30
-15.95
-17.42
-16.80
-14.99
-13.19
-12.60
-14.41
-19.90
-30.46
-47.12
-69.89
-96.88
-124.06
-145.69
-155.77
-149.99
-127.42
-91.13
-47.29
-3.03
35.96
66.90
89.95
106.96
119.83
129.59
136.54
141.13
144.64
149.02
155.94
165.61
176.56
186.34
192.86
195.26
193.79
188.72
179.29
163.48
139.03
105.14
63.72
19.48
-21.48
-53.94
-75.52
-87.42
-93.56
-98.58
-105.59
-114.97
-124.48
-130.67
-130.83
-124.40
-113.45
-101.84
-93.45
-90.57
-92.90
-97.90
-101.93
-101.88
-96.34
-86.10
-73.28
-60.09
-47.84
-36.67
-25.80
-14.14
-1.03
13.41
27.97
40.94
50.69
56.01
56.31
51.66
42.91
31.61
19.87
9.34
1.43
-2.89
-3.49
-1.48
0.91
1.15
-2.93
-12.13
-27.18
-47.00
-68.37
-86.97
-99.42
-104.59
-103.21
-97.65
-90.24
-85.80
-87.13
-93.07
-99.11
-100.35
-94.01
-79.50
-59.48
-37.66
-23.05
-22.39
-36.06
-58.43
-82.40
-103.30
-118.97
-131.35
-142.97
-162.83
-197.54
-247.12
-305.61
-365.97
-423.52
-474.55
-518.03
-509.84
-425.89
-280.93
-121.64
8.97
92.95
127.78
138.39
146.10
165.98
197.30
231.85
261.97
280.05
280.81
262.66
230.52
192.22
158.66
134.59
122.10
122.30
134.75
155.57
177.12
191.98
194.13
183.38
161.34
133.30
107.09
90.34
87.50
98.21
118.98
143.69
166.61
181.70
185.17
176.50
158.12
134.07
108.31
84.33
64.09
48.54
37.17
29.00
23.18
19.48
18.35
20.67
27.86
41.09
60.83
85.72
112.00
133.88
145.26
142.02
123.89
94.68
60.97
29.72
5.97
-8.53
-15.40
-18.35
-21.52
-27.85
-38.14
-51.09
-64.20
-74.93
-81.75
-84.44
-83.85
-81.26
-77.79
-74.07
-70.22
-65.94
-60.60
-53.48
-44.04
-32.24
-18.63
-4.17
10.00
22.76
33.11
40.03
42.57
40.16
32.95
22.04
9.08
-4.29
-17.26
-30.10
-43.87
-59.63
-77.83
-97.93
-118.60
-138.07
-154.71
-167.24
-174.93
-177.58
-175.44
-169.13
-159.58
-147.86
-134.92
-121.31
-106.89
-90.91
-72.38
-50.77
-26.62
-1.81
20.90
38.67
49.56
53.19
50.77
44.53
36.98
30.22
25.63
23.83
24.70
27.57
31.41
35.07
37.52
38.12
36.80
34.17
31.56
30.82
33.79
41.52
53.65
68.19
82.08
92.30
97.01
96.04
90.65
82.61
73.30
63.32
52.79
41.84
31.06
21.32
13.33
7.18
2.23
-2.47
-7.65
-13.37
-19.04
-23.86
-27.23
-29.17
-30.25
-31.25
-32.70
-34.54
-36.01
-35.93
-33.29
-27.71
-19.63
-10.10
-0.33
8.79
16.73
23.23
28.00
30.61
30.70
28.34
24.30
19.92
16.67
15.54
16.57
18.92
21.22
22.27
21.43
18.85
15.31
11.83
9.28
8.05
7.99
8.47
8.68
7.90
5.72
2.12
-2.61
-8.03
-13.63
-18.88
-23.26
-26.22
-27.38
-26.59
-24.02
-20.07
-15.19
-9.68
-3.66
2.77
9.34
15.54
20.69
24.25
26.04
26.29
25.52
24.23
22.73
21.12
19.54
18.19
17.45
17.59
18.66
20.37
22.21
23.69
24.51
24.49
23.56
21.53
18.13
13.23
7.02
0.15
-6.41
-11.77
-15.48
-17.75
-19.30
-21.02
-23.52
-26.89
-30.75
-34.55
-37.88
-40.73
-43.37
-46.12
-49.14
-52.29
-55.35
-58.17
-60.75
-63.08
-65.00
-66.01
-65.40
-62.51
-56.99
-48.91
-38.70
-26.95
-14.30
-1.38
11.08
22.27
31.30
37.49
40.51
40.53
38.19
34.42
30.20
26.36
23.32
21.15
19.65
18.60
18.03
18.34
20.21
24.26
30.80
39.55
49.64
59.78
68.53
74.60
77.17
76.08
71.86
65.54
58.31
51.07
44.19
37.47
30.43
22.68
14.24
5.54
-2.67
-9.58
-14.52
-17.17
-17.60
-16.31
-14.23
-12.46
-11.93
-13.02
-15.43
-18.29
-20.52
-21.29
-20.27
-17.64
-13.93
-9.83
-5.96
-2.75
-0.29
1.76
4.03
7.21
11.60
16.78
21.59
24.57
24.57
21.35
15.76
9.40
3.97
0.50
-0.94
-1.16
-1.35
-2.48
-4.85
-8.09
-11.49
-14.41
-16.60
-18.16
-19.35
-20.23
-20.55
-19.89
-17.92
-14.63
-10.38
-5.74
-1.22
2.94
6.71
10.18
13.37
16.19
18.43
19.96
20.77
20.96
20.68
20.05
19.09
17.82
16.28
14.60
13.00
11.67
10.69
10.01
9.43
8.75
7.82
6.62
5.27
3.94
2.75
1.76
0.96
0.25
-0.47
-1.31
-2.38
-3.77
-5.55
-7.73
-10.15
-12.55
-14.60
-16.00
-16.60
-16.39
-15.53
-14.23
-12.74
-11.31
-10.14
-9.40
-9.16
-9.37
-9.90
-10.60
-11.32
-11.87
-12.01
-11.43
-9.85
-7.21
-3.73
0.11
3.71
6.65
8.80
10.34
11.69
13.32
15.71
19.20
23.98
29.94
36.67
43.47
49.52
54.04
56.53
56.85
55.18
51.94
47.65
42.83
37.96
33.48
29.73
26.93
25.05
23.75
22.45
20.41
16.99
11.84
4.99
-3.14
-11.95
-20.74
-28.89
-35.89
-41.41
-45.37
-47.91
-49.32
-49.90
-49.73
-48.68
-46.48
-43.03
-38.60
-33.90
-29.75
-26.69
-24.63
-22.81
-20.26
-16.31
-11.08
-5.54
-1.04
1.35
1.38
-0.24
-2.20
-3.30
-2.98
-1.53
0.26
1.49
1.71
0.99
-0.21
-1.36
-2.08
-2.29
-2.01
-1.29
-0.05
1.78
4.22
7.06
9.97
12.51
14.34
15.27
15.28
14.50
13.16
11.58
10.09
8.96
8.27
7.91
7.56
6.81
5.34
3.02
-0.11
-3.92
-8.32
-13.25
-18.62
-24.30
-30.06
-35.65
-40.90
-45.80
-50.41
-54.82
-58.99
-62.73
-65.73
-67.63
-68.02
-66.57
-62.99
-57.25
-49.60
-40.68
-31.38
-22.56
-14.81
-8.19
-2.29
3.48
9.57
15.96
22.14
27.33
30.77
32.07
31.37
29.29
26.65
24.26
22.60
21.77
21.52
21.45
21.18
20.56
19.61
18.44
17.17
15.76
14.11
12.18
10.03
7.96
6.34
5.47
5.44
6.05
6.93
7.66
7.96
7.75
7.17
6.47
5.93
5.68
5.76
6.02
6.28
6.40
6.32
6.11
5.85
5.64
5.48
5.37
5.26
5.17
5.11
5.10
5.05
4.86
4.41
3.67
2.69
1.58
0.47
-0.61
-1.69
-2.81
-3.99
-5.20
-6.37
-7.46
-8.48
-9.47
-10.47
-11.48
-12.45
-13.32
-14.01
-14.47
-14.63
-14.40
-13.73
-12.59
-11.03
-9.16
-7.15
-5.14
-3.29
-1.72
-0.51
0.31
0.79
1.00
1.05
1.06
1.13
1.36
1.81
2.50
3.39
4.30
5.02
5.38
5.33
4.99
4.57
4.29
4.18
4.13
3.90
3.30
2.26
0.91
-0.54
-1.86
-2.92
-3.68
-4.16
-4.44
-4.61
-4.78
-5.06
-5.57
-6.36
-7.43
-8.67
-9.93
-11.05
-11.81
-12.02
-11.52
-10.22
-8.16
-5.59
-2.92
-0.58
1.08
1.95
2.18
2.13
2.18
2.58
3.38
4.38
5.36
6.13
6.61
6.85
6.90
6.73
6.29
5.55
4.58
3.64
3.02
2.94
3.42
4.25
5.07
5.47
5.17
4.05
2.20
-0.17
-2.74
-5.29
-7.77
-10.37
-13.53
-17.60
-22.64
-28.21
-33.37
-36.99
-38.13
-36.39
-32.02
-25.85
-19.07
-13.03
-9.06
-8.19
-10.75
-16.10
-22.52
-27.62
-29.19
-26.04
-18.60
-8.75
0.97
8.35
12.31
13.01
11.57
9.34
7.50
6.79
7.58
9.93
13.62
18.05
22.30
25.31
26.30
25.03
21.99
18.05
14.12
10.70
7.74
4.83
1.53
-2.29
-6.35
-10.09
-13.00
-14.82
-15.63
-15.66
-15.10
-13.94
-12.05
-9.34
-5.94
-2.26
1.26
4.34
7.01
9.55
12.19
14.93
17.44
19.30
20.24
20.30
19.71
18.66
17.13
15.00
12.22
9.10
6.26
4.34
3.62
3.78
4.05
3.58
1.89
-0.86
-3.99
-6.67
-8.22
-8.44
-7.58
-6.22
-5.03
-4.58
-5.08
-6.40
-8.03
-9.37
-10.00
-9.89
-9.44
-9.20
-9.51
-10.23
-10.70
-10.06
-7.73
-3.76
1.06
5.57
8.66
9.79
9.15
7.51
5.91
5.26
6.07
8.36
11.78
15.77
19.70
22.98
25.16
25.96
25.34
23.49
20.85
18.00
15.53
13.96
13.64
14.75
17.29
21.09
25.80
30.95
35.98
40.38
43.78
45.96
46.90
46.67
45.49
43.81
42.23
41.41
41.68
42.77
43.50
42.14
37.06
27.55
14.47
-0.01
-13.13
-22.77
-28.33
-30.84
-32.32
-34.63
-38.61
-43.80
-48.89
-52.59
-54.28
-54.24
-53.30
-52.17
-51.08
-49.72
-47.55
-44.29
-40.09
-35.48
-31.07
-27.27
-24.19
-21.78
-20.03
-19.03
-18.92
-19.73
-21.27
-23.06
-24.42
-24.64
-23.23
-20.17
-16.05
-11.96
-9.15
-8.44
-9.75
-12.15
-14.39
-15.67
-16.33
-17.83
-22.17
-30.95
-44.57
-61.97
-80.76
-97.65
-108.99
-111.35
-102.37
-81.67
-51.39
-16.01
18.86
48.30
69.75
83.56
92.38
99.46
107.04
115.70
124.73
133.18
140.71
147.70
154.46
160.53
164.44
164.30
158.89
148.49
134.86
120.45
107.23
95.93
86.00
76.28
65.82
54.47
42.83
31.96
22.81
15.95
11.46
8.99
7.87
7.29
6.47
4.84
2.11
-1.71
-6.41
-11.68
-17.16
-22.39
-26.82
-29.89
-31.25
-30.90
-29.30
-27.19
-25.30
-24.10
-23.63
-23.64
-23.75
-23.75
-23.62
-23.48
-23.49
-23.67
-24.01
-24.49
-25.27
-26.72
-29.25
-33.07
-37.94
-43.16
-47.69
-50.62
-51.40
-50.03
-46.89
-42.51
-37.35
-31.80
-26.26
-21.19
-17.04
-14.03
-12.09
-10.78
-9.63
-8.34
-6.96
-5.79
-5.08
-4.82
-4.76
-4.52
-3.93
-3.11
-2.38
-2.09
-2.31
-2.86
-3.38
-3.59
-3.42
-3.06
-2.84
-3.05
-3.93
-5.52
-7.77
-10.53
-13.58
-16.63
-19.39
-21.71
-23.56
-25.05
-26.33
-27.43
-28.22
-28.49
-28.02
-26.79
-24.95
-22.79
-20.61
-18.53
-16.52
-14.42
-12.10
-9.53
-6.79
-4.03
-1.38
1.08
3.40
5.80
8.82
13.42
20.77
31.91
47.21
65.83
85.66
103.70
116.79
122.45
119.46
108.10
90.01
67.67
43.74
20.43
-1.03
-20.45
-38.43
-55.71
-72.66
-88.93
-103.70
-116.11
-125.66
-132.29
-136.11
-137.12
-135.11
-129.83
-121.22
-109.60
-95.49
-79.41
-61.77
-42.98
-23.65
-4.74
12.54
27.05
38.03
45.32
49.24
50.29
48.99
45.78
41.15
35.74
30.31
25.60
22.13
19.98
18.83
18.18
17.68
17.41
17.86
19.65
23.02
27.60
32.46
36.55
39.17
40.24
40.08
38.98
36.85
33.26
27.87
20.76
12.54
3.89
-4.90
-14.18
-24.62
-36.45
-48.97
-60.56
-69.38
-74.30
-75.51
-74.28
-72.19
-70.20
-68.24
-65.38
-60.55
-53.20
-43.47
-32.13
-20.21
-8.75
1.23
8.85
13.51
15.10
14.15
11.73
8.99
6.64
4.67
2.48
-0.67
-5.17
-10.75
-16.67
-21.95
-25.71
-27.24
-25.95
-21.30
-12.90
-0.88
13.88
29.76
44.88
57.85
68.39
77.34
85.95
94.92
103.74
110.96
115.05
115.27
111.93
105.90
97.85
87.73
75.04
59.60
42.15
24.51
8.87
-3.02
-10.58
-14.57
-16.77
-19.30
-23.96
-31.67
-42.27
-54.51
-66.35
-75.52
-80.13
-79.10
-72.28
-60.40
-44.77
-27.19
-9.76
5.30
16.01
21.02
19.91
13.21
2.24
-11.36
-25.85
-39.73
-51.71
-60.84
-66.60
-68.98
-68.61
-66.57
-63.92
-61.16
-57.81
-52.58
-44.01
-31.22
-14.57
4.43
23.63
41.04
55.38
66.18
73.53
77.72
79.13
78.27
75.89
72.86
70.05
68.06
67.23
67.77
69.79
73.29
77.90
82.74
86.47
87.64
85.19
78.86
69.04
56.46
41.67
24.88
6.10
-14.56
-36.67
-59.64
-82.90
-105.94
-128.09
-148.14
-164.15
-173.79
-175.09
-167.28
-151.28
-129.48
-105.07
-81.00
-59.40
-41.28
-26.81
-15.55
-6.74
0.56
7.39
14.63
22.72
31.57
40.44
48.12
53.14
54.12
50.14
41.08
27.96
12.78
-1.79
-13.23
-19.91
-21.51
-18.91
-13.64
-7.18
-0.51
5.78
11.28
15.56
18.23
19.14
18.49
16.75
14.46
12.00
9.58
7.41
5.84
5.23
5.77
7.21
8.86
9.83
9.46
7.82
5.70
4.19
3.99
5.10
6.97
8.83
10.14
10.81
11.16
11.58
12.25
12.74
12.57
11.66
10.44
9.63
9.75
10.89
12.81
15.05
16.48
16.31
14.58
12.21
10.33
9.73
10.74
13.31
17.00
19.69
19.47
15.83
9.99
3.69
-1.90
-6.50
-10.29
-13.66
-19.16
-28.58
-41.39
-54.68
-65.16
-70.83
-71.51
-67.91
-61.52
-57.16
-59.23
-69.60
-87.29
-110.65
-138.92
-172.30
-209.90
-230.70
-218.94
-174.25
-112.14
-50.11
1.74
40.25
65.59
80.80
89.81
93.55
92.30
87.23
80.63
74.16
67.92
59.21
48.00
34.54
17.23
-4.45
-28.10
-48.05
-57.91
-48.79
-22.37
15.05
54.79
87.70
108.31
116.28
115.68
111.65
107.62
103.69
99.11
93.05
85.12
77.35
71.40
68.58
68.02
66.32
58.43
41.98
18.61
-6.36
-25.90
-33.99
-28.79
-14.16
2.55
13.86
15.98
9.57
-1.29
-11.12
-15.36
-12.07
-2.74
8.05
14.64
13.08
2.95
-12.53
-28.01
-38.47
-41.20
-36.37
-26.47
-15.06
-5.46
0.07
0.74
-2.81
-8.76
-15.02
-20.14
-23.91
-27.13
-31.03
-36.41
-42.88
-48.69
-51.13
-47.76
-36.75
-18.38
5.02
29.35
50.10
64.14
70.58
70.40
66.46
61.17
55.57
49.86
44.26
40.13
39.80
45.24
56.15
68.90
77.70
76.16
60.96
33.82
1.11
-28.64
-48.35
-54.85
-50.28
-39.97
-29.62
-22.59
-19.56
-19.42
-20.65
-22.35
-24.38
-27.04
-30.35
-34.50
-39.13
-43.98
-49.29
-55.77
-64.44
-75.89
-89.26
-100.90
-106.41
-101.14
-83.05
-54.32
-20.97
9.43
30.91
41.37
42.81
39.45
35.43
32.80
31.40
30.06
28.06
25.65
23.77
23.24
24.00
25.23
25.92
25.22
23.25
20.92
19.44
19.69
21.60
24.05
25.38
24.25
20.42
15.02
10.11
7.55
8.13
11.14
14.74
17.04
17.01
14.90
12.01
9.92
9.57
10.86
12.92
14.62
15.28
14.92
14.19
13.68
13.51
13.22
12.35
11.06
10.25
10.66
11.46
9.76
1.77
-14.49
-37.02
-59.33
-72.85
-71.19
-52.96
-22.49
12.55
44.71
69.15
83.69
87.41
79.39
59.13
28.33
-7.84
-41.31
-63.79
-70.04
-60.13
-39.02
-14.16
7.42
21.37
26.74
25.34
20.27
14.31
8.89
3.63
-3.10
-12.72
-24.51
-35.49
-41.31
-38.66
-27.74
-12.85
-0.54
3.59
-2.42
-16.13
-32.11
-44.39
-48.78
-43.92
-31.05
-13.14
6.01
22.40
32.73
35.15
29.64
18.26
4.07
-10.05
-22.30
-32.28
-40.75
-48.84
-57.26
-65.17
-70.52
-70.31
-62.14
-45.51
-22.78
1.45
22.12
35.65
41.34
41.31
38.63
35.50
32.38
28.52
23.42
17.63
12.87
10.98
12.60
16.63
20.80
22.91
21.77
17.95
13.29
9.97
9.44
11.82
15.97
20.13
22.83
23.56
22.92
22.29
23.22
26.99
33.84
42.88
52.05
58.46
59.21
52.55
38.73
20.24
1.13
-14.57
-24.24
-27.59
-26.30
-22.98
-19.81
-17.80
-16.79
-16.11
-15.22
-14.02
-12.77
-11.68
-10.78
-9.80
-8.46
-6.61
-4.44
-2.38
-0.91
-0.24
-0.26
-0.49
-0.28
0.89
3.14
6.09
8.96
10.83
11.16
9.95
7.74
5.21
2.87
0.70
-1.75
-5.05
-9.59
-15.22
-21.14
-26.26
-29.53
-30.30
-28.48
-24.60
-19.71
-15.19
-12.25
-11.45
-12.56
-14.63
-16.40
-16.89
-15.78
-12.58
-7.78
-2.03
4.30
11.14
18.37
25.46
31.38
35.00
35.70
33.60
29.62
24.94
20.25
15.58
10.60
5.28
0.27
-3.21
-4.27
-2.73
0.63
4.43
7.35
8.65
8.42
7.37
6.51
6.48
7.64
9.99
13.27
16.95
20.36
22.94
24.50
25.32
25.46
25.11
24.72
24.97
26.55
29.80
34.70
40.91
47.93
54.18
58.35
60.09
60.20
59.96
60.22
61.07
61.84
61.41
56.91
46.08
28.60
6.65
-16.26
-36.84
-53.00
-64.32
-71.95
-80.42
-94.39
-116.51
-146.35
-181.29
-218.19
-254.35
-287.85
-303.82
-291.99
-252.20
-195.33
-135.30
-81.36
-36.99
-2.11
24.64
44.90
58.07
63.73
62.95
58.64
54.15
51.69
51.91
54.23
57.59
59.39
57.72
52.49
45.51
39.22
35.30
34.04
34.67
35.99
35.92
33.13
27.75
21.35
15.85
12.50
11.38
11.69
12.39
12.10
9.96
5.76
0.01
-6.35
-11.82
-14.34
-11.71
-2.47
12.68
30.76
47.28
58.10
61.13
57.15
49.05
40.17
32.70
26.54
20.66
14.21
7.59
2.31
-0.00
1.09
4.22
6.86
6.69
3.19
-2.23
-7.00
-8.99
-7.68
-4.19
-0.50
1.88
2.37
1.45
-0.06
-1.62
-3.22
-5.08
-7.17
-9.13
-10.50
-11.07
-11.11
-11.11
-11.43
-12.28
-13.36
-13.64
-11.65
-6.36
2.35
13.44
25.05
35.07
41.32
42.68
39.87
35.14
30.82
28.35
27.88
28.58
29.19
27.72
22.71
14.61
5.60
-2.17
-6.86
-7.67
-4.90
0.09
3.86
2.37
-7.20
-25.62
-52.23
-84.97
-120.07
-152.17
-167.83
-156.83
-121.36
-74.66
-30.51
3.27
25.11
37.42
44.03
48.05
49.62
47.49
41.52
33.71
26.96
23.58
24.41
28.69
34.44
38.45
38.08
33.21
26.21
20.20
17.53
18.87
23.36
29.01
33.04
33.37
29.88
24.37
19.31
16.64
17.40
21.80
29.22
37.83
44.91
47.58
43.65
32.44
15.85
-2.97
-19.84
-31.49
-37.06
-38.08
-37.20
-36.58
-36.83
-37.72
-38.43
-38.21
-36.77
-34.08
-30.18
-25.48
-20.40
-15.95
-12.96
-11.50
-10.51
-8.52
-4.65
0.79
6.63
11.73
15.54
18.15
19.58
19.40
16.89
11.81
5.22
-0.62
-3.43
-2.41
1.18
4.78
5.92
3.45
-2.59
-11.47
-22.30
-33.92
-44.47
-51.20
-51.16
-42.71
-26.58
-6.23
13.63
29.10
38.68
43.37
45.58
47.51
48.60
47.76
43.41
34.81
23.03
10.83
1.37
-3.35
-3.62
-1.85
-1.08
-3.50
-9.24
-16.40
-22.37
-25.55
-26.26
-26.54
-28.72
-33.68
-40.41
-46.52
-49.62
-48.72
-44.62
-39.17
-33.96
-29.23
-23.71
-15.63
-3.86
11.42
28.84
46.62
63.17
77.19
87.31
91.95
89.55
79.51
62.97
43.00
23.41
7.19
-4.82
-13.97
-22.48
-31.70
-40.90
-47.65
-49.41
-45.34
-37.11
-28.19
-22.09
-20.64
-23.28
-27.73
-31.52
-33.30
-33.29
-32.60
-32.20
-32.20
-31.79
-29.87
-25.69
-19.24
-11.26
-2.93
4.36
9.28
10.82
8.75
3.89
-1.95
-6.41
-7.53
-4.58
1.61
9.01
15.43
19.39
20.70
20.17
19.01
18.21
18.23
19.26
21.37
24.43
27.79
30.17
30.01
26.24
19.05
10.14
2.12
-2.72
-3.55
-1.54
0.81
0.97
-2.29
-8.38
-15.36
-21.12
-24.50
-25.72
-25.92
-26.30
-27.32
-28.46
-28.68
-27.24
-24.32
-21.00
-18.68
-18.20
-19.40
-21.18
-22.18
-21.52
-19.22
-16.07
-13.21
-11.39
-10.67
-10.29
-9.14
-6.29
-1.56
4.26
9.62
12.94
13.30
10.90
6.93
3.06
0.70
0.57
2.56
6.02
10.13
14.08
17.21
18.97
18.99
17.15
13.71
9.23
4.41
-0.18
-4.13
-7.20
-9.19
-9.83
-8.93
-6.51
-3.03
0.64
3.43
4.44
3.25
0.03
-4.66
-10.14
-15.82
-21.22
-25.88
-29.26
-31.02
-31.19
-30.33
-29.23
-28.36
-27.52
-25.97
-22.97
-18.36
-12.69
-6.64
-0.39
6.57
14.89
24.39
33.52
39.81
41.17
37.17
29.34
20.34
12.43
6.38
1.45
-3.45
-8.60
-12.83
-14.16
-11.08
-3.66
6.19
15.55
21.88
24.14
23.05
20.48
18.35
17.70
18.45
19.87
21.29
22.59
24.13
26.30
29.02
31.73
33.83
35.25
36.76
39.61
44.76
52.15
60.54
67.98
72.73
73.92
71.86
67.58
62.22
56.50
50.62
44.56
38.45
32.80
28.33
25.62
24.70
24.97
25.29
24.39
21.33
15.84
8.49
0.51
-6.66
-11.82
-14.50
-15.01
-14.25
-13.19
-12.48
-12.27
-12.30
-12.25
-12.07
-11.98
-12.40
-13.66
-15.75
-18.37
-20.98
-23.03
-24.17
-24.32
-23.74
-22.79
-21.80
-20.84
-19.72
-18.13
-15.90
-13.15
-10.27
-7.73
-5.80
-4.39
-3.15
-1.70
0.10
2.04
3.61
4.35
3.99
2.66
0.76
-1.20
-2.83
-3.95
-4.62
-4.97
-5.12
-5.08
-4.84
-4.49
-4.32
-4.73
-6.08
-8.39
-11.27
-14.11
-16.29
-17.48
-17.68
-17.05
-15.64
-13.27
-9.58
-4.43
1.91
8.66
14.82
19.60
22.71
24.42
25.31
25.82
26.06
25.72
24.32
21.58
17.65
13.09
8.70
5.15
2.75
1.33
0.33
-0.94
-2.99
-5.93
-9.45
-12.99
-15.94
-17.90
-18.72
-18.49
-17.47
-15.96
-14.33
-12.96
-12.25
-12.50
-13.81
-15.96
-18.46
-20.71
-22.19
-22.61
-22.07
-20.84
-19.24
-17.44
-15.42
-13.03
-10.16
-6.88
-3.41
0.02
3.31
6.62
10.21
14.29
18.81
23.42
27.62
30.91
32.95
33.54
32.60
30.16
26.43
21.89
17.19
13.03
9.88
7.86
6.79
6.35
6.37
6.82
7.75
9.07
10.39
11.08
10.47
8.14
4.17
-0.89
-6.21
-11.02
-14.84
-17.63
-19.76
-21.73
-23.94
-26.54
-29.41
-32.24
-34.62
-36.17
-36.58
-35.60
-33.10
-29.19
-24.24
-18.83
-13.62
-9.19
-5.82
-3.51
-2.00
-0.98
-0.17
0.53
1.07
1.41
1.53
1.49
1.39
1.27
1.10
0.88
0.72
0.89
1.67
3.11
4.90
6.38
6.82
5.79
3.36
0.06
-3.32
-6.06
-7.72
-8.22
-7.76
-6.67
-5.31
-3.91
-2.52
-1.05
0.60
2.39
4.06
5.20
5.43
4.66
3.12
1.30
-0.32
-1.51
-2.35
-3.11
