1653563143.00
64.000000
-0.00
-0.00
-0.00
-0.00
-0.00
-0.00
-0.00
-0.00
-0.00
-0.00
0.00
0.01
0.01
-0.00
-0.03
-0.05
-0.05
0.00
0.13
0.36
0.66
1.01
1.37
1.72
2.06
2.40
2.79
3.24
3.80
4.42
5.06
5.66
6.20
6.68
7.15
7.68
8.31
9.14
10.09
11.04
11.88
12.56
13.14
13.76
14.65
15.96
17.91
20.32
22.90
25.38
27.58
29.57
31.68
34.32
37.81
42.54
48.15
54.10
59.83
64.97
69.58
74.14
79.34
85.71
93.76
103.00
112.62
121.73
129.77
136.75
143.30
150.75
157.77
166.64
177.95
191.79
206.97
220.57
228.25
225.36
208.53
176.87
132.76
80.05
23.07
-34.94
-92.44
-149.16
-205.23
-260.37
-313.74
-363.87
-409.83
-450.91
-486.51
-515.75
-537.23
-549.20
-549.92
-538.32
-514.18
-478.71
-434.02
-382.71
-327.40
-270.30
-213.11
-157.12
-103.38
-52.78
-6.35
35.05
70.78
100.59
124.68
143.56
157.92
168.41
175.58
179.81
181.37
180.56
177.75
173.38
167.86
161.55
154.65
147.25
139.36
131.08
122.59
114.18
106.13
98.59
91.53
84.68
77.72
70.42
62.78
55.13
47.95
41.68
36.51
32.21
28.24
23.99
19.03
13.41
7.62
2.40
-1.67
-4.39
-6.06
-7.33
-8.88
-11.16
-14.40
-18.65
-23.72
-28.96
-32.97
-33.78
-29.43
-18.95
-3.19
15.16
32.36
44.97
51.29
51.62
47.85
42.35
36.84
31.94
27.54
23.50
20.34
19.13
20.83
25.45
31.64
36.94
38.82
35.91
28.70
19.28
10.25
3.52
-0.45
-2.48
-3.86
-5.47
-7.34
-8.88
-9.45
-8.93
-7.76
-6.62
-5.97
-5.84
-5.72
-4.98
-3.24
-0.57
2.46
5.09
6.66
6.88
5.86
4.14
2.39
1.14
0.73
1.16
2.12
3.18
3.92
4.09
3.74
3.12
2.57
2.41
2.78
3.62
4.74
5.95
7.11
8.25
9.39
10.59
11.81
12.90
13.62
13.74
13.15
11.85
10.02
7.96
5.76
3.50
1.12
-1.41
-4.13
-7.04
-10.03
-12.93
-15.51
-17.52
-18.71
-18.94
-18.21
-16.71
-14.74
-12.60
-10.56
-8.76
-7.26
-6.06
-5.18
-4.64
-4.43
-4.46
-4.60
-4.66
-4.54
-4.22
-3.74
-3.20
-2.69
-2.27
-1.91
-1.57
-1.23
-0.90
-0.59
-0.37
-0.27
-0.32
-0.51
-0.78
-1.05
-1.25
-1.30
-1.15
-0.83
-0.41
0.04
0.40
0.61
0.64
0.50
0.26
0.01
-0.18
-0.29
-0.32
-0.31
-0.32
-0.38
-0.54
-0.82
-1.20
-1.71
-2.40
-3.27
-4.21
-5.05
-5.56
-5.62
-5.16
-4.29
-3.20
-2.07
-1.02
-0.05
0.93
2.08
3.52
5.34
7.50
9.81
12.03
13.81
14.89
15.08
14.40
12.98
11.09
8.96
6.78
4.67
2.74
1.06
-0.31
-1.32
-1.99
-2.37
-2.56
-2.62
-2.61
-2.57
-2.59
-2.77
-3.26
-4.16
-5.44
-6.95
-8.44
-9.68
-10.51
-10.86
-10.79
-10.40
-9.84
-9.30
-8.94
-8.90
-9.18
-9.69
-10.19
-10.45
-10.23
-9.43
-8.01
-6.03
-3.61
-0.92
1.83
4.36
6.44
7.91
8.76
9.08
9.03
8.74
8.30
7.77
7.22
6.74
6.45
6.38
6.46
6.53
6.41
5.96
5.26
4.51
3.97
3.83
4.09
4.58
5.00
5.10
4.84
4.34
3.84
3.55
3.53
3.67
3.79
3.72
3.41
2.89
2.29
1.68
1.09
0.46
-0.28
-1.20
-2.31
-3.63
-5.14
-6.84
-8.73
-10.71
-12.61
-14.17
-15.11
-15.21
-14.37
-12.71
-10.49
-8.09
-5.82
-3.89
-2.34
-1.05
0.13
1.32
2.50
3.55
4.35
4.83
5.04
5.15
5.33
5.68
6.18
6.70
7.11
7.38
7.53
7.65
7.81
8.00
8.12
8.10
7.86
7.41
6.77
6.00
5.13
4.18
3.19
2.23
1.38
0.65
0.04
-0.54
-1.15
-1.84
-2.57
-3.27
-3.86
-4.37
-4.85
-5.39
-6.09
-6.96
-8.01
-9.16
-10.30
-11.25
-11.83
-11.90
-11.38
-10.25
-8.54
-6.24
-3.37
0.05
3.88
7.84
11.50
14.40
16.17
16.64
15.84
13.97
11.25
7.91
4.14
0.18
-3.69
-7.15
-9.83
-11.48
-11.97
-11.33
-9.80
-7.73
-5.53
-3.56
-2.05
-1.08
-0.52
-0.17
0.25
0.93
1.96
3.31
4.83
6.28
7.42
8.05
8.08
7.48
6.35
4.86
3.24
1.70
0.42
-0.58
-1.43
-2.33
-3.46
-4.84
-6.35
-7.75
-8.85
-9.61
-10.11
-10.47
-10.72
-10.77
-10.45
-9.64
-8.35
-6.71
-4.90
-3.09
-1.36
0.25
1.69
2.90
3.86
4.54
5.00
5.30
5.47
5.53
5.47
5.30
5.08
4.90
4.80
4.76
4.68
4.39
3.76
2.77
1.48
0.02
-1.49
-2.99
-4.49
-6.01
-7.53
-8.91
-9.96
-10.54
-10.59
-10.23
-9.68
-9.21
-9.03
-9.24
-9.83
-10.69
-11.59
-12.28
-12.46
-11.89
-10.45
-8.23
-5.45
-2.44
0.47
3.07
5.22
6.85
7.95
8.58
8.84
8.89
8.91
9.02
9.25
9.50
9.66
9.62
9.37
8.94
8.41
7.83
7.23
6.70
6.29
6.12
6.21
6.47
6.70
6.65
6.12
5.10
3.75
2.31
1.03
0.02
-0.73
-1.32
-1.84
-2.34
-2.83
-3.29
-3.72
-4.20
-4.81
-5.64
-6.76
-8.16
-9.71
-11.22
-12.42
-13.06
-12.95
-12.08
-10.54
-8.52
-6.28
-3.97
-1.73
0.36
2.23
3.81
5.02
5.79
6.14
6.16
6.04
5.97
6.09
6.44
6.92
7.36
7.62
7.61
7.35
6.97
6.58
6.23
5.91
5.53
5.05
4.46
3.84
3.28
2.87
2.60
2.41
2.20
1.87
1.40
0.78
0.03
-0.83
-1.80
-2.85
-3.93
-4.95
-5.85
-6.58
-7.18
-7.75
-8.38
-9.11
-9.86
-10.43
-10.55
-10.02
-8.76
-6.90
-4.69
-2.45
-0.39
1.37
2.86
4.10
5.13
5.87
6.23
6.16
5.67
4.92
4.12
3.49
3.20
3.28
3.66
4.19
4.68
5.02
5.15
5.09
4.92
4.66
4.33
3.91
3.34
2.65
1.87
1.06
0.28
-0.50
-1.30
-2.18
-3.13
-4.09
-4.98
-5.79
-6.56
-7.41
-8.46
-9.73
-11.12
-12.33
-13.02
-12.91
-11.85
-9.92
-7.41
-4.71
-2.24
-0.30
0.98
1.62
1.81
1.79
1.83
2.11
2.76
3.75
4.96
6.16
7.09
7.56
7.49
6.92
5.98
4.83
3.63
2.44
1.32
0.25
-0.70
-1.47
-1.97
-2.09
-1.82
-1.24
-0.47
0.33
1.10
1.79
2.37
2.80
2.96
2.76
2.21
1.47
0.77
0.36
0.28
0.41
0.49
0.32
-0.12
-0.68
-1.08
-1.10
-0.64
0.27
1.55
3.08
4.76
6.45
7.94
8.98
9.33
8.87
7.63
5.78
3.64
1.47
-0.46
-2.04
-3.21
-3.95
-4.28
-4.21
-3.81
-3.15
-2.36
-1.53
-0.71
0.08
0.85
1.54
2.02
2.13
1.74
0.89
-0.23
-1.34
-2.16
-2.57
-2.59
-2.39
-2.21
-2.28
-2.72
-3.57
-4.77
-6.16
-7.58
-8.87
-9.86
-10.42
-10.46
-9.90
-8.76
-7.09
-5.03
-2.77
-0.56
1.35
2.76
3.58
3.86
3.78
3.62
3.61
3.89
4.44
5.13
5.79
6.27
6.50
6.44
6.10
5.45
4.53
3.38
2.12
0.91
-0.14
-0.93
-1.43
-1.67
-1.74
-1.74
-1.75
-1.85
-2.01
-2.18
-2.32
-2.43
-2.60
-2.91
-3.43
-4.17
-5.11
-6.20
-7.44
-8.85
-10.36
-11.80
-12.86
-13.22
-12.68
-11.27
-9.22
-6.91
-4.64
-2.62
-0.90
0.54
1.71
2.58
3.11
3.29
3.19
2.94
2.72
2.67
2.88
3.34
3.95
4.57
5.09
5.46
5.68
5.82
5.92
5.99
6.03
6.01
5.92
5.76
5.56
5.31
4.97
4.49
3.78
2.82
1.68
0.49
-0.61
-1.48
-2.13
-2.66
-3.27
-4.13
-5.32
-6.78
-8.37
-9.91
-11.28
-12.40
-13.23
-13.69
-13.67
-13.02
-11.69
-9.75
-7.41
-4.97
-2.68
-0.68
1.07
2.67
4.26
5.87
7.44
8.85
9.99
10.83
11.40
11.76
11.99
12.10
12.16
12.22
12.40
12.79
13.40
14.11
14.65
14.71
14.09
12.81
11.05
9.16
7.47
6.11
5.00
3.88
2.52
0.82
-1.21
-3.39
-5.58
-7.68
-9.67
-11.59
-13.44
-15.23
-16.98
-18.69
-20.38
-21.96
-23.27
-24.07
-24.13
-23.32
-21.70
-19.49
-17.02
-14.63
-12.60
-11.11
-10.27
-10.08
-10.49
-11.42
-12.76
-14.40
-16.25
-18.18
-20.05
-21.68
-22.90
-23.59
-23.63
-22.93
-21.38
-18.87
-15.32
-10.79
-5.56
-0.03
5.34
10.18
14.32
17.75
20.59
22.95
24.92
26.52
27.83
28.98
30.12
31.37
32.68
33.87
34.64
34.77
34.17
32.99
31.47
29.81
28.10
26.29
24.26
21.95
19.42
16.87
14.48
12.33
10.39
8.49
6.49
4.31
2.03
-0.16
-2.01
-3.33
-4.02
-4.15
-3.90
-3.55
-3.33
-3.39
-3.69
-4.06
-4.32
-4.30
-4.00
-3.48
-2.87
-2.28
-1.74
-1.29
-0.88
-0.49
-0.10
0.30
0.68
1.01
1.22
1.32
1.30
1.22
1.09
0.90
0.60
0.16
-0.37
-0.91
-1.39
-1.77
-2.09
-2.42
-2.80
-3.21
-3.61
-4.04
-4.54
-5.23
-6.13
-7.12
-7.97
-8.42
-8.34
-7.74
-6.77
-5.61
-4.40
-3.20
-2.02
-0.83
0.37
1.57
2.73
3.82
4.80
5.63
6.29
6.76
7.03
7.14
7.14
7.09
7.04
6.99
6.98
6.96
6.90
6.73
6.40
5.88
5.19
4.38
3.53
2.69
1.93
1.26
0.71
0.27
-0.08
-0.39
-0.77
-1.32
-2.10
-3.08
-4.12
-5.10
-5.92
-6.61
-7.21
-7.75
-8.19
-8.40
-8.25
-7.72
-6.89
-5.92
-4.89
-3.77
-2.43
-0.72
1.34
3.59
5.71
7.35
8.30
8.51
8.09
7.20
6.02
4.63
3.12
1.53
-0.03
-1.39
-2.41
-2.98
-3.09
-2.82
-2.28
-1.59
-0.78
0.14
1.17
2.30
3.42
4.33
4.83
4.72
3.95
2.56
0.75
-1.21
-3.10
-4.72
-6.01
-6.93
-7.55
-7.93
-8.21
-8.52
-8.99
-9.72
-10.69
-11.79
-12.86
-13.69
-14.11
-13.97
-13.23
-11.91
-10.13
-8.07
-5.96
-3.99
-2.30
-0.90
0.24
1.20
2.06
2.87
3.66
4.44
5.23
5.97
6.58
6.94
6.94
6.62
6.09
5.57
5.28
5.32
5.62
5.94
6.00
5.61
4.78
3.75
2.86
2.42
2.53
3.05
3.67
4.08
4.09
3.68
2.91
1.89
0.71
-0.48
-1.47
-2.02
-1.93
-1.26
-0.34
0.29
0.11
-1.08
-3.05
-5.16
-6.64
-6.92
-5.87
-3.76
-1.15
1.37
3.43
4.91
5.90
6.52
6.80
6.68
6.10
5.07
3.81
2.61
1.77
1.41
1.48
1.77
2.04
2.15
2.17
2.29
2.71
3.53
4.60
5.63
6.28
6.32
5.74
4.75
3.65
2.72
2.10
1.79
1.65
1.50
1.19
0.65
-0.10
-1.03
-2.05
-3.10
-4.11
-5.04
-5.85
-6.58
-7.31
-8.17
-9.28
-10.69
-12.24
-13.60
-14.34
-14.14
-12.90
-10.75
-8.05
-5.12
-2.18
0.63
3.26
5.58
7.39
8.51
8.84
8.50
7.75
6.93
6.29
5.96
5.91
6.05
6.30
6.64
7.04
7.53
8.10
8.71
9.31
9.78
10.01
9.90
9.43
8.66
7.75
6.86
6.14
5.60
5.15
4.62
3.84
2.71
1.30
-0.21
-1.55
-2.53
-3.09
-3.35
-3.56
-4.01
-4.82
-5.95
-7.17
-8.19
-8.69
-8.50
-7.58
-5.99
-3.91
-1.57
0.78
2.90
4.62
5.90
6.84
7.65
8.62
9.96
11.71
13.61
15.22
16.04
15.71
14.18
11.78
9.11
6.82
5.49
5.45
6.80
9.39
12.84
16.59
19.90
21.95
22.04
19.75
15.15
8.79
1.64
-5.19
-10.66
-14.11
-15.37
-14.76
-12.96
-10.78
-9.02
-8.26
-8.77
-10.50
-13.12
-16.08
-18.72
-20.45
-20.89
-19.99
-18.02
-15.52
-13.12
-11.41
-10.72
-11.05
-12.09
-13.32
-14.21
-14.42
-13.88
-12.81
-11.58
-10.56
-9.99
-9.92
-10.23
-10.75
-11.29
-11.76
-12.13
-12.39
-12.49
-12.41
-12.14
-11.69
-11.19
-10.81
-10.73
-11.01
-11.57
-12.19
-12.56
-12.42
-11.70
-10.45
-8.93
-7.41
-6.12
-5.22
-4.71
-4.51
-4.46
-4.42
-4.29
-4.05
-3.71
-3.26
-2.70
-1.99
-1.12
-0.11
0.97
1.98
2.81
3.38
3.69
3.82
3.86
3.87
3.90
3.97
4.13
4.44
4.99
5.84
6.98
8.35
9.79
11.09
12.04
12.46
12.29
11.57
10.43
9.02
7.49
5.91
4.29
2.57
0.73
-1.24
-3.29
-5.35
-7.35
-9.25
-11.08
-12.84
-14.55
-16.09
-17.29
-17.93
-17.78
-16.74
-14.83
-12.27
-9.34
-6.35
-3.50
-0.89
1.46
3.54
5.28
6.59
7.34
7.52
7.22
6.61
5.92
5.38
5.12
5.22
5.68
6.49
7.56
8.77
10.01
11.15
12.16
13.06
13.86
14.56
15.11
15.43
15.49
15.30
14.93
14.42
13.80
13.05
12.21
11.31
10.41
9.54
8.66
7.61
6.22
4.35
2.02
-0.61
-3.24
-5.51
-7.14
-7.96
-7.96
-7.29
-6.18
-4.92
-3.75
-2.91
-2.53
-2.64
-3.19
-4.04
-4.97
-5.77
-6.25
-6.26
-5.76
-4.74
-3.26
-1.39
0.73
2.96
5.11
6.99
8.43
9.34
9.70
9.58
9.12
8.50
7.90
7.42
7.07
6.70
6.09
5.05
3.50
1.48
-0.87
-3.42
-6.11
-8.93
-11.92
-15.04
-18.15
-21.04
-23.51
-25.45
-26.81
-27.57
-27.69
-27.08
-25.68
-23.48
-20.58
-17.15
-13.35
-9.24
-4.82
-0.04
4.98
9.99
14.57
18.34
21.10
22.88
23.90
24.44
24.70
24.78
24.66
24.32
23.78
23.08
22.24
21.30
20.26
19.15
17.99
16.78
15.53
14.23
12.92
11.71
10.69
9.91
9.25
8.51
7.49
6.13
4.56
3.00
1.66
0.60
-0.29
-1.16
-2.15
-3.24
-4.33
-5.26
-5.93
-6.30
-6.47
-6.53
-6.59
-6.68
-6.77
-6.75
-6.55
-6.17
-5.75
-5.56
-5.88
-6.87
-8.46
-10.36
-12.10
-13.18
-13.22
-12.00
-9.51
-5.90
-1.50
3.31
8.04
12.18
15.25
16.91
17.06
15.88
13.80
11.37
9.07
7.20
5.83
4.84
4.08
3.45
2.90
2.44
2.05
1.69
1.28
0.78
0.21
-0.41
-1.04
-1.67
-2.34
-3.07
-3.92
-4.92
-6.03
-7.13
-8.07
-8.65
-8.71
-8.11
-6.84
-4.96
-2.67
-0.22
2.16
4.30
6.20
7.91
9.56
11.14
12.57
13.70
14.36
14.50
14.16
13.40
12.31
10.95
9.43
7.99
6.87
6.25
6.10
6.17
6.10
5.64
4.75
3.61
2.45
1.40
0.43
-0.62
-1.84
-3.21
-4.60
-5.91
-7.21
-8.67
-10.49
-12.69
-15.06
-17.20
-18.72
-19.43
-19.42
-19.01
-18.58
-18.43
-18.61
-18.96
-19.21
-19.08
-18.47
-17.38
-15.94
-14.27
-12.42
-10.40
-8.24
-6.05
-4.04
-2.46
-1.49
-1.05
-0.83
-0.40
0.66
2.48
4.93
7.60
10.06
12.00
13.37
14.30
14.99
15.56
16.01
16.24
16.16
15.79
15.27
14.81
14.57
14.55
14.65
14.66
14.40
13.76
12.78
11.63
10.52
9.70
9.30
9.30
9.52
9.68
9.47
8.74
7.52
6.09
4.81
3.99
3.77
4.05
4.53
4.92
4.98
4.63
3.84
2.68
1.13
-0.79
-3.04
-5.49
-7.93
-10.15
-11.98
-13.37
-14.32
-14.90
-15.20
-15.29
-15.25
-15.19
-15.21
-15.38
-15.74
-16.28
-16.95
-17.66
-18.28
-18.70
-18.79
-18.51
-17.91
-17.12
-16.26
-15.40
-14.52
-13.57
-12.51
-11.35
-10.29
-9.57
-9.45
-10.11
-11.51
-13.42
-15.45
-17.19
-18.30
-18.63
-18.24
-17.34
-16.24
-15.31
-14.86
-15.14
-16.21
-17.91
-19.79
-21.22
-21.59
-20.46
-17.72
-13.62
-8.57
-3.04
2.61
8.13
13.32
17.92
21.66
24.27
25.57
25.55
24.42
22.42
19.80
16.64
12.96
8.74
4.06
-0.87
-5.75
-10.30
-14.36
-17.84
-20.77
-23.16
-25.00
-26.27
-27.01
-27.34
-27.41
-27.35
-27.21
-26.97
-26.56
-25.96
-25.16
-24.18
-22.93
-21.24
-18.84
-15.51
-11.14
-5.92
-0.30
5.07
9.56
12.82
14.97
16.61
18.51
21.36
25.37
30.22
35.22
39.62
42.90
44.95
45.95
46.13
45.58
44.17
41.66
37.89
32.96
27.29
21.50
16.23
11.91
8.70
6.47
4.92
3.79
2.88
2.09
1.32
0.35
-1.11
-3.37
-6.62
-10.78
-15.52
-20.34
-24.69
-28.20
-30.72
-32.30
-33.10
-33.25
-32.79
-31.73
-30.14
-28.27
-26.49
-25.16
-24.43
-24.10
-23.68
-22.57
-20.36
-16.99
-12.78
-8.23
-3.85
0.07
3.48
6.47
9.22
11.88
14.62
17.62
20.98
24.73
28.67
32.43
35.58
37.76
38.93
39.35
39.52
39.89
40.63
41.52
41.94
41.22
38.87
34.83
29.52
23.63
17.98
13.28
10.07
8.63
8.99
10.85
13.54
16.16
17.82
17.89
16.28
13.44
10.19
7.39
5.62
5.04
5.39
6.20
7.01
7.52
7.69
7.57
7.27
6.74
5.86
4.46
2.48
0.02
-2.64
-5.16
-7.24
-8.72
-9.56
-9.83
-9.63
-9.04
-8.12
-6.91
-5.52
-4.04
-2.63
-1.43
-0.58
-0.18
-0.28
-0.89
-1.95
-3.31
-4.74
-5.99
-6.75
-6.82
-6.07
-4.58
-2.60
-0.57
1.04
1.81
1.54
0.34
-1.47
-3.45
-5.20
-6.47
-7.17
-7.30
-6.81
-5.65
-3.78
-1.33
1.40
3.96
5.92
7.02
7.21
6.64
5.52
4.03
2.33
0.62
-0.85
-1.76
-1.84
-1.03
0.49
2.33
4.00
5.07
5.31
4.70
3.42
1.71
-0.11
-1.69
-2.69
-2.80
-1.86
0.12
2.86
5.89
8.67
10.75
11.91
12.15
11.61
10.50
9.00
7.20
5.16
2.92
0.55
-1.82
-4.09
-6.14
-7.84
-9.13
-10.00
-10.49
-10.74
-10.90
-11.10
-11.45
-11.97
-12.67
-13.47
-14.23
-14.77
-14.92
-14.55
-13.60
-12.13
-10.27
-8.25
-6.33
-4.82
-3.95
-3.81
-4.29
-5.13
-5.94
-6.39
-6.33
-5.73
-4.64
-3.11
-1.08
1.45
4.40
7.46
10.21
12.19
13.15
13.05
12.13
10.75
9.23
7.82
6.60
5.58
4.79
4.23
3.95
3.93
4.03
4.07
3.79
2.98
1.56
-0.46
-2.90
-5.59
-8.31
-10.90
-13.24
-15.24
-16.83
-17.95
-18.60
-18.81
-18.60
-18.03
-17.14
-16.01
-14.74
-13.54
-12.59
-12.04
-11.89
-11.97
-11.96
-11.44
-10.08
-7.72
-4.45
-0.66
3.09
6.21
8.26
9.07
8.77
7.74
6.50
5.54
5.25
5.88
7.51
9.97
12.89
15.69
17.79
18.73
18.35
16.78
14.40
11.63
8.83
6.22
3.98
2.23
1.18
0.98
1.65
3.03
4.75
6.36
7.47
7.89
7.66
6.98
6.09
5.22
4.52
4.13
4.15
4.62
5.55
6.82
8.23
9.52
10.42
10.75
10.42
9.57
8.45
7.36
6.56
6.02
5.49
4.57
2.91
0.47
-2.44
-5.29
-7.53
-8.81
-9.06
-8.46
-7.21
-5.50
-3.41
-1.00
1.53
3.87
5.58
6.23
5.58
3.68
0.85
-2.38
-5.48
-7.98
-9.60
-10.21
-9.84
-8.62
-6.84
-4.86
-3.11
-1.89
-1.36
-1.52
-2.27
-3.55
-5.37
-7.67
-10.27
-12.73
-14.47
-14.96
-13.97
-11.67
-8.56
-5.28
-2.40
-0.27
1.01
1.50
1.31
0.55
-0.62
-2.07
-3.56
-4.86
-5.73
-6.09
-6.05
-5.91
-6.02
-6.61
-7.68
-9.03
-10.31
-11.21
-11.53
-11.22
-10.30
-8.82
-6.87
-4.57
-2.07
0.49
3.00
5.41
7.69
9.77
11.55
12.83
13.48
13.43
12.79
11.76
10.59
9.51
8.65
7.97
7.35
6.54
5.32
3.57
1.32
-1.23
-3.86
-6.36
-8.66
-10.75
-12.66
-14.32
-15.61
-16.33
-16.37
-15.73
-14.61
-13.31
-12.15
-11.35
-11.06
-11.26
-11.90
-12.86
-14.04
-15.33
-16.61
-17.78
-18.75
-19.43
-19.82
-19.90
-19.62
-18.89
-17.57
-15.55
-12.82
-9.53
-5.95
-2.45
0.67
3.28
5.42
7.28
9.07
10.96
13.00
15.14
17.26
19.26
21.04
22.52
23.57
24.06
23.87
22.97
21.40
19.31
16.85
14.15
11.28
8.27
5.19
2.16
-0.61
-2.90
-4.46
-5.17
-5.06
-4.30
-3.15
-1.89
-0.72
0.29
1.15
1.91
2.55
3.00
3.16
2.99
2.55
1.98
1.44
1.06
0.87
0.86
0.97
1.09
1.13
1.01
0.68
0.19
-0.38
-0.89
-1.30
-1.59
-1.87
-2.27
-2.85
-3.56
-4.26
-4.70
-4.62
-3.83
-2.27
-0.04
2.49
4.81
6.34
6.70
5.79
3.88
1.51
-0.70
-2.23
-2.86
-2.62
-1.79
-0.75
0.12
0.55
0.44
-0.16
-1.02
-1.88
-2.44
-2.53
-2.08
-1.15
0.09
1.43
2.68
3.71
4.47
4.99
5.39
5.76
6.18
6.67
7.19
7.62
7.82
7.65
7.08
6.20
5.20
4.32
3.70
3.33
3.05
2.64
1.90
0.81
-0.54
-1.95
-3.23
-4.21
-4.78
-4.92
-4.62
-3.98
-3.21
-2.58
-2.33
-2.62
-3.41
-4.46
-5.47
-6.14
-6.32
-6.03
-5.48
-4.93
-4.63
-4.73
-5.25
-6.08
-7.04
-7.91
-8.55
-8.84
-8.74
-8.22
-7.26
-5.93
-4.32
-2.65
-1.13
0.06
0.92
1.51
2.01
2.51
3.02
3.46
3.74
3.83
3.79
3.73
3.72
3.81
4.01
4.33
4.81
5.44
6.18
6.91
7.48
7.77
7.80
7.66
7.51
7.48
7.59
7.76
7.87
7.78
7.44
6.87
6.16
5.47
4.92
4.55
4.36
4.26
4.18
4.04
3.78
3.36
2.76
1.98
1.08
0.14
-0.72
-1.42
-1.95
-2.41
-2.91
-3.55
-4.35
-5.26
-6.18
-7.01
-7.61
-7.82
-7.52
-6.65
-5.33
-3.79
-2.34
-1.23
-0.55
-0.26
-0.22
-0.33
-0.58
-1.05
-1.82
-2.86
-4.06
-5.22
-6.16
-6.76
-7.01
-6.96
-6.70
-6.27
-5.71
-5.03
-4.27
-3.50
-2.84
-2.42
-2.28
-2.39
-2.58
-2.67
-2.52
-2.11
-1.56
-1.08
-0.82
-0.85
-1.09
-1.39
-1.64
-1.82
-1.96
-2.12
-2.28
-2.38
-2.38
-2.26
-2.09
-1.99
-2.02
-2.21
-2.54
-2.93
-3.36
-3.82
-4.23
-4.47
-4.39
-3.85
-2.82
-1.40
0.19
1.71
2.97
3.91
4.54
4.93
5.15
5.26
5.30
5.31
5.30
5.28
5.24
5.16
5.01
4.79
4.51
4.25
4.06
3.99
4.00
4.00
3.88
3.61
3.22
2.82
2.50
2.28
2.11
1.88
1.53
1.04
0.48
-0.08
-0.64
-1.23
-1.88
-2.59
-3.28
-3.83
-4.21
-4.49
-4.77
-5.17
-5.67
-6.21
-6.66
-6.93
-7.00
-6.92
-6.72
-6.41
-5.95
-5.31
-4.50
-3.58
-2.64
-1.79
-1.08
-0.49
0.03
0.56
1.10
1.62
2.03
2.28
2.39
2.47
2.69
3.20
4.03
5.13
6.34
7.52
8.54
9.35
9.90
10.13
9.99
9.45
8.54
7.37
6.11
4.93
3.95
3.21
2.65
2.17
1.61
0.84
-0.21
-1.49
-2.88
-4.24
-5.42
-6.38
-7.15
-7.79
-8.37
-8.87
-9.21
-9.27
-8.97
-8.29
-7.33
-6.23
-5.14
-4.17
-3.34
-2.62
-1.95
-1.28
-0.62
0.02
0.61
1.12
1.52
1.85
2.08
2.27
2.43
2.61
2.81
3.03
3.25
3.44
3.64
3.87
4.13
4.39
4.52
4.40
3.92
3.13
2.14
1.15
0.30
-0.33
-0.78
-1.12
-1.44
-1.77
-2.16
-2.60
-3.15
-3.86
-4.72
-5.69
-6.70
-7.63
-8.40
-8.92
-9.14
-8.96
-8.31
-7.21
-5.75
-4.17
-2.73
-1.62
-0.90
-0.41
0.01
0.52
1.11
1.67
2.07
2.26
2.30
2.31
2.38
2.53
2.70
2.84
2.96
3.13
3.46
3.97
4.60
5.19
5.62
5.81
5.80
5.63
5.34
4.90
4.27
3.41
2.39
1.36
0.47
-0.21
-0.75
-1.30
-2.03
-3.07
-4.42
-5.97
-7.51
-8.85
-9.76
-10.09
-9.76
-8.78
-7.28
-5.44
-3.47
-1.54
0.22
1.77
3.10
4.21
5.06
5.65
6.02
6.22
6.35
6.46
6.55
6.55
6.35
5.92
5.30
4.59
3.94
3.45
3.17
3.04
2.99
2.92
2.74
2.35
1.65
0.63
-0.65
-2.01
-3.21
-4.04
-4.47
-4.61
-4.69
-4.95
-5.48
-6.21
-6.97
-7.55
-7.82
-7.76
-7.35
-6.64
-5.64
-4.38
-2.93
-1.41
0.03
1.28
2.31
3.18
3.96
4.68
5.27
5.60
5.57
5.16
4.47
3.68
2.97
2.45
2.12
1.93
1.78
1.61
1.40
1.15
0.86
0.51
0.04
-0.58
-1.38
-2.40
-3.61
-5.00
-6.52
-8.15
-9.87
-11.71
-13.72
-15.92
-18.28
-20.71
-23.15
-25.51
-27.80
-29.98
-31.98
-33.60
-34.59
-34.71
-33.83
-31.98
-29.27
-25.81
-21.61
-16.65
-10.89
-4.51
2.19
8.79
14.85
20.12
24.48
28.03
30.86
33.03
34.50
35.20
35.06
34.10
32.51
30.55
28.48
26.44
24.44
22.38
20.15
17.73
15.24
12.86
10.71
8.86
7.23
5.69
4.10
2.43
0.67
-1.11
-2.82
-4.40
-5.74
-6.75
-7.32
-7.39
-6.97
-6.06
-4.75
-3.13
-1.30
0.65
2.58
4.36
5.88
7.05
7.86
8.36
8.61
8.67
8.54
8.20
7.67
7.02
6.42
6.03
5.97
6.24
6.70
7.14
7.42
7.46
7.32
7.08
6.80
6.44
5.92
5.13
4.06
2.75
1.35
0.02
-1.09
-1.91
-2.48
-2.90
-3.32
-3.82
-4.43
-5.04
-5.52
-5.71
-5.53
-4.95
-3.99
-2.66
-0.99
0.95
3.02
5.02
6.72
8.00
8.84
9.38
9.75
10.02
10.13
10.00
9.54
8.82
8.04
7.41
7.07
6.97
6.97
6.83
6.43
5.76
4.88
3.88
2.80
1.63
0.32
-1.17
-2.86
-4.76
-6.87
-9.17
-11.58
-13.98
-16.16
-17.96
-19.29
-20.19
-20.76
-21.11
-21.22
-20.98
-20.19
-18.71
-16.51
-13.75
-10.63
-7.34
-4.02
-0.73
2.44
5.27
7.50
8.85
9.26
8.88
8.05
7.12
6.31
5.63
4.98
4.25
3.48
2.79
2.39
2.38
2.71
3.28
3.95
4.61
5.22
5.73
6.10
6.23
6.08
5.61
4.91
4.10
3.29
2.54
1.85
1.15
0.35
-0.61
-1.76
-3.10
-4.60
-6.18
-7.76
-9.20
-10.29
-10.85
-10.72
-9.86
-8.37
-6.48
-4.49
-2.63
-1.09
0.06
0.79
1.15
1.20
1.06
0.92
0.95
1.31
2.05
3.08
4.21
5.24
6.07
6.67
7.14
7.55
7.96
8.34
8.61
8.74
8.68
8.45
8.04
7.50
6.81
5.98
5.02
3.94
2.74
1.38
-0.07
-1.55
-3.00
-4.37
-5.70
-7.10
-8.64
-10.24
-11.67
-12.60
-12.74
-12.02
-10.53
-8.53
-6.24
-3.84
-1.41
0.96
3.12
4.86
6.00
6.46
6.34
5.83
5.17
4.52
3.99
3.65
3.54
3.68
4.04
4.54
5.04
5.41
5.60
5.59
5.42
5.13
4.73
4.22
3.61
2.98
2.42
2.00
1.68
1.32
0.73
-0.21
-1.51
-3.07
-4.69
-6.24
-7.63
-8.84
-9.85
-10.58
-10.91
-10.73
-10.02
-8.80
-7.22
-5.40
-3.45
-1.43
0.57
2.43
3.98
5.06
5.61
5.68
5.46
5.17
4.99
5.00
5.18
5.48
5.83
6.22
6.68
7.20
7.74
8.19
8.41
8.33
7.96
7.38
6.68
5.97
5.24
4.46
3.55
2.47
1.17
-0.34
-2.09
-4.11
-6.43
-9.09
-12.03
-15.08
-17.90
-20.09
-21.23
-21.01
-19.34
-16.37
-12.47
-8.15
-3.89
-0.09
3.00
5.26
6.66
7.30
7.32
6.91
6.29
5.66
5.18
4.94
4.97
5.25
5.67
6.09
6.38
6.45
6.31
6.03
5.74
5.52
5.37
5.23
4.97
4.52
3.85
3.04
2.16
1.26
0.35
-0.60
-1.59
-2.57
-3.46
-4.21
-4.81
-5.34
-5.85
-6.34
-6.69
-6.69
-6.17
-5.02
-3.39
-1.55
0.18
1.57
2.57
3.22
3.66
3.97
4.17
4.22
4.08
3.75
3.27
2.68
2.05
1.41
0.80
0.29
-0.06
-0.19
-0.08
0.20
0.48
0.54
0.17
-0.73
-2.10
-3.72
-5.37
-6.90
-8.30
-9.69
-11.22
-12.92
-14.73
-16.48
-18.04
-19.37
-20.55
-21.75
-23.12
-24.74
-26.56
-28.40
-29.94
-30.82
-30.72
-29.48
-27.20
-24.13
-20.61
-16.93
-13.18
-9.31
-5.14
-0.51
4.65
10.28
16.20
22.18
27.95
33.22
37.69
41.09
43.30
44.32
44.37
43.77
42.83
41.81
40.76
39.66
38.40
36.93
35.29
33.58
31.97
30.55
29.37
28.33
27.23
25.78
23.67
20.67
16.73
12.00
6.79
1.46
-3.70
-8.58
-13.17
-17.48
-21.43
-24.83
-27.50
-29.38
-30.65
-31.70
-32.93
-34.52
-36.35
-38.02
-39.12
-39.39
-38.87
-37.73
-36.17
-34.23
-31.83
-28.86
-25.38
-21.66
-18.10
-15.05
-12.61
-10.61
-8.66
-6.39
-3.62
-0.46
2.77
5.69
8.01
9.65
10.66
11.18
11.32
11.12
10.63
9.96
9.29
8.79
8.55
8.54
8.60
8.52
8.17
7.49
6.54
5.47
4.44
3.65
3.22
3.23
3.63
4.29
5.03
5.70
6.19
6.49
6.64
6.68
6.60
6.40
6.09
5.73
5.39
5.16
5.05
5.03
4.98
4.79
4.38
3.76
3.00
2.28
1.75
1.56
1.78
2.38
3.24
4.19
5.06
5.72
6.16
6.40
6.55
6.66
6.71
6.58
6.17
5.47
4.54
3.58
2.74
2.06
1.45
0.80
0.07
-0.65
-1.12
-1.12
-0.55
0.51
1.85
3.21
4.39
5.31
5.96
6.38
6.60
6.64
6.47
6.13
5.66
5.15
4.67
4.28
3.96
3.65
3.28
2.82
2.33
1.91
1.65
1.58
1.64
1.72
1.68
1.43
0.92
0.16
-0.80
-1.89
-2.99
-4.02
-4.93
-5.74
-6.45
-7.09
-7.67
-8.22
-8.79
-9.48
-10.34
-11.33
-12.25
-12.82
-12.74
-11.90
-10.34
-8.28
-5.96
-3.57
-1.23
0.96
2.95
4.67
6.09
7.20
8.05
8.65
9.04
9.24
9.31
9.38
9.57
9.94
10.45
10.96
11.33
11.43
11.23
10.80
10.23
9.59
8.88
8.07
7.08
5.83
4.27
2.40
0.31
-1.86
-3.93
-5.78
-7.35
-8.68
-9.85
-10.96
-12.07
-13.19
-14.31
-15.42
-16.48
-17.43
-18.18
-18.57
-18.41
-17.58
-16.07
-14.04
-11.72
-9.36
-7.11
-5.06
-3.21
-1.59
-0.33
0.47
0.74
0.57
0.20
-0.08
-0.02
0.48
1.36
2.45
3.57
4.56
5.34
5.90
6.20
6.26
6.07
5.71
5.28
4.89
4.64
4.55
4.57
4.62
4.65
4.66
4.70
4.76
4.77
4.59
4.04
3.06
1.66
-0.01
-1.79
-3.50
-5.07
-6.46
-7.66
-8.65
-9.38
-9.78
-9.76
-9.27
-8.30
-6.95
-5.32
-3.55
-1.74
0.04
1.71
3.14
4.20
4.74
4.72
4.26
3.58
2.93
2.51
2.38
2.53
2.86
3.30
3.77
4.25
4.65
4.93
5.02
4.92
4.68
4.37
4.02
3.66
3.29
2.86
2.34
1.70
0.94
0.13
-0.65
-1.31
-1.80
-2.14
-2.44
-2.83
-3.43
-4.30
-5.45
-6.84
-8.38
-9.96
-11.43
-12.57
-13.13
-12.91
-11.85
-10.06
-7.81
-5.41
-3.14
-1.11
0.66
2.18
3.47
4.47
5.14
5.47
5.53
5.46
5.36
5.31
5.29
5.27
5.25
5.24
5.27
5.35
5.44
5.49
5.41
5.20
4.85
4.42
3.96
3.51
3.05
2.55
2.01
1.42
0.83
0.29
-0.17
-0.53
-0.82
-1.09
-1.43
-1.91
-2.59
-3.48
-4.56
-5.74
-6.88
-7.81
-8.32
-8.25
-7.54
-6.23
-4.51
-2.66
-1.00
0.21
0.83
0.87
0.42
-0.32
-1.20
-2.05
-2.73
-3.12
-3.13
-2.70
-1.85
-0.69
0.61
1.86
2.89
3.64
4.19
4.68
5.27
6.04
6.90
7.66
8.06
7.98
7.41
6.52
5.55
4.69
4.06
3.62
3.30
2.95
2.47
1.72
0.60
-0.94
-2.90
-5.11
-7.30
-9.17
-10.48
-11.08
-10.97
-10.24
-9.07
-7.67
-6.25
-4.98
-3.98
-3.29
-2.84
-2.54
-2.26
-1.95
-1.55
-1.06
-0.49
0.09
0.61
0.97
1.14
1.18
1.27
1.57
2.18
3.05
3.98
4.74
5.18
5.28
5.12
4.81
4.43
3.96
3.37
2.63
1.81
0.96
0.16
-0.59
-1.34
-2.17
-3.11
-4.14
-5.17
-6.05
-6.59
-6.67
-6.20
-5.26
-4.01
-2.67
-1.44
-0.41
0.44
1.20
1.93
2.63
3.20
3.50
3.47
3.14
2.63
2.12
1.72
1.43
1.21
0.97
0.67
0.30
-0.11
-0.54
-0.97
-1.38
-1.77
-2.11
-2.35
-2.46
-2.44
-2.36
-2.31
-2.35
-2.47
-2.61
-2.68
-2.66
-2.62
-2.76
-3.24
-4.11
-5.27
-6.46
-7.40
-7.85
-7.68
-6.92
-5.64
-3.96
-2.01
0.03
1.98
3.64
4.87
5.61
5.89
5.79
5.44
4.99
4.59
4.37
4.41
4.70
5.13
5.54
5.78
5.79
5.61
5.40
5.28
5.33
5.49
5.68
5.76
5.67
5.36
4.84
4.15
3.31
2.35
1.29
0.16
-0.99
-2.09
-3.05
-3.75
-4.11
-4.16
-4.06
-4.06
-4.43
-5.32
-6.66
-8.21
-9.64
-10.63
-11.03
-10.81
-10.03
-8.78
-7.10
-5.04
-2.72
-0.32
1.89
3.62
4.71
5.11
4.96
4.51
4.03
3.74
3.73
3.92
4.14
4.21
4.05
3.69
3.29
3.00
2.94
3.10
3.38
3.63
3.72
3.57
3.14
2.46
1.60
0.65
-0.27
-1.05
-1.63
-2.00
-2.20
-2.30
-2.40
-2.59
-2.92
-3.43
-4.08
-4.83
-5.63
-6.45
-7.27
-8.07
-8.75
-9.23
-9.40
-9.18
-8.55
-7.49
-6.01
-4.13
-1.92
0.44
2.70
4.60
5.95
6.72
7.03
7.09
7.05
6.97
6.81
6.52
6.08
5.53
5.00
4.59
4.34
4.28
4.38
4.59
4.84
5.06
5.14
5.00
4.60
3.96
3.18
2.37
1.64
1.03
0.50
-0.03
-0.65
-1.40
-2.27
-3.22
-4.19
-5.21
-6.33
-7.57
-8.93
-10.33
-11.60
-12.60
-13.18
-13.25
-12.78
-11.74
-10.16
-8.13
-5.83
-3.48
-1.35
0.43
1.83
2.93
3.87
4.71
5.45
5.98
6.22
6.14
5.83
5.45
5.14
4.99
4.97
5.03
5.15
5.32
5.56
5.87
6.15
6.30
6.19
5.76
5.07
4.22
3.33
2.49
1.72
0.98
0.19
-0.67
-1.57
-2.43
-3.16
-3.75
-4.24
-4.74
-5.43
-6.38
-7.57
-8.86
-10.01
-10.77
-10.97
-10.58
-9.66
-8.38
-6.88
-5.26
-3.56
-1.75
0.11
1.90
3.41
4.44
4.93
4.98
4.83
4.70
4.73
4.91
5.12
5.29
5.42
5.60
5.90
6.29
6.68
6.97
7.12
7.15
7.16
7.12
6.97
6.58
5.88
4.93
3.85
2.80
1.82
0.91
0.00
-0.94
-1.88
-2.77
-3.59
-4.40
-5.29
-6.32
-7.46
-8.62
-9.64
-10.38
-10.75
-10.69
-10.22
-9.37
-8.21
-6.83
-5.33
-3.82
-2.37
-1.07
0.01
0.81
1.29
1.45
1.35
1.08
0.75
0.45
0.24
0.17
0.26
0.50
0.88
1.32
1.76
2.17
2.52
2.82
3.05
3.15
3.00
2.49
1.60
0.40
-0.93
-2.15
-3.12
-3.80
-4.26
-4.61
-4.98
-5.50
-6.19
-7.05
-8.02
-8.96
-9.74
-10.17
-10.14
-9.58
-8.49
-6.95
-5.12
-3.12
-1.11
0.82
2.56
4.01
5.10
5.76
6.01
5.91
5.66
5.43
5.38
5.57
5.93
6.30
6.51
6.44
6.07
5.52
4.97
4.57
4.37
4.30
4.16
3.76
3.02
2.00
0.86
-0.21
-1.13
-1.95
-2.80
-3.76
-4.88
-6.11
-7.39
-8.66
-9.89
-11.01
-11.89
-12.37
-12.29
-11.59
-10.32
-8.58
-6.49
-4.15
-1.62
0.98
3.48
5.65
7.25
8.18
8.48
8.37
8.08
7.83
7.69
7.61
7.47
7.15
6.63
6.03
5.49
5.19
5.18
5.40
5.70
5.93
5.97
5.81
5.49
5.01
4.35
3.45
2.33
1.07
-0.17
-1.22
-2.02
-2.62
-3.16
-3.77
-4.50
-5.31
-6.20
-7.17
-8.29
-9.58
-11.00
-12.36
-13.35
-13.65
-13.03
-11.47
-9.09
-6.16
-3.02
0.05
2.83
5.18
7.01
8.32
9.12
9.45
9.41
9.08
8.56
7.95
7.29
6.63
6.03
5.59
5.37
5.40
5.62
5.91
6.14
6.22
6.09
5.75
5.22
4.52
3.69
2.85
2.11
1.56
1.21
0.97
0.71
0.28
-0.33
-1.07
-1.85
-2.62
-3.41
-4.35
-5.55
-7.04
-8.71
-10.36
-11.69
-12.43
-12.42
-11.64
-10.22
-8.33
-6.22
-4.07
-2.01
-0.14
1.46
2.72
3.61
4.11
4.30
4.27
4.22
4.32
4.69
5.34
6.17
7.04
7.82
8.49
9.10
9.73
10.39
10.98
11.29
11.16
10.55
9.58
8.47
7.44
6.61
5.98
5.43
4.80
3.94
2.76
1.27
-0.40
-2.06
-3.52
-4.66
-5.47
-6.09
-6.69
-7.40
-8.25
-9.19
-10.06
-10.71
-10.98
-10.73
-9.87
-8.37
-6.29
-3.83
-1.24
1.16
3.17
4.65
5.64
6.24
6.59
6.79
6.87
6.85
6.73
6.58
6.46
6.47
6.65
6.98
7.39
7.77
8.03
8.10
7.95
7.56
6.96
6.15
5.21
4.22
3.27
2.38
1.47
0.46
-0.76
-2.17
-3.64
-5.00
-6.13
-7.04
-7.86
-8.77
-9.91
-11.28
-12.78
-14.27
-15.56
-16.51
-16.95
-16.70
-15.66
-13.78
-11.27
-8.43
-5.61
-3.08
-0.94
0.84
2.36
3.65
4.67
5.35
5.64
5.64
5.51
5.47
5.70
6.26
7.09
8.10
9.13
10.04
10.72
11.07
11.06
10.73
10.13
9.35
8.46
7.47
6.36
5.11
3.69
2.14
0.53
-1.07
-2.60
-3.98
-5.19
-6.20
-7.00
-7.63
-8.21
-8.88
-9.77
-10.90
-12.10
-13.13
-13.64
-13.38
-12.28
-10.41
-8.05
-5.50
-3.02
-0.76
1.24
2.99
4.48
5.64
6.40
6.71
6.59
6.16
5.59
5.05
4.66
4.43
4.36
4.43
4.58
4.78
4.98
5.10
5.07
4.85
4.46
3.95
3.37
2.74
2.07
1.31
0.44
-0.47
-1.37
-2.17
-2.83
-3.39
-3.92
-4.54
-5.30
-6.24
-7.29
-8.38
-9.37
-10.10
-10.38
-10.09
-9.19
-7.74
-5.88
-3.78
-1.57
0.64
2.78
4.71
6.26
7.24
7.59
7.37
6.83
6.24
5.85
5.80
6.03
6.44
6.89
7.31
7.67
7.98
8.19
8.26
8.13
7.79
7.33
6.81
6.29
5.72
4.99
4.03
2.82
1.48
0.19
-0.91
-1.82
-2.68
-3.66
-4.89
-6.32
-7.80
-9.11
-10.09
-10.67
-10.85
-10.65
-10.00
-8.83
-7.07
-4.77
-2.11
0.62
3.12
5.16
6.64
7.58
8.03
8.07
7.77
7.18
6.43
5.61
4.86
4.23
3.72
3.30
2.94
2.59
2.21
1.80
1.32
0.78
0.24
-0.22
-0.53
-0.70
-0.80
-0.98
-1.34
-1.94
-2.71
-3.56
-4.39
-5.14
-5.84
-6.53
-7.30
-8.20
-9.19
-10.20
-11.09
-11.68
-11.86
-11.58
-10.85
-9.71
-8.23
-6.46
-4.44
-2.28
-0.14
1.76
3.25
4.23
4.75
4.89
4.82
4.66
4.52
4.49
4.65
5.02
5.56
6.18
6.75
7.15
7.31
7.19
6.77
6.10
5.22
4.25
3.28
2.40
1.66
0.97
0.24
-0.63
-1.72
-3.03
-4.55
-6.22
-8.00
-9.78
-11.40
-12.62
-13.23
-13.10
-12.25
-10.82
-9.05
-7.11
-5.12
-3.11
-1.14
0.70
2.25
3.35
3.92
4.01
3.80
3.51
3.30
3.27
3.43
3.73
4.12
4.60
5.13
5.65
6.06
6.23
6.07
5.58
4.83
3.97
3.15
2.42
1.77
1.11
0.36
-0.50
-1.42
-2.35
-3.27
-4.27
-5.52
-7.13
-9.02
-10.93
-12.40
-13.02
-12.56
-11.05
-8.82
-6.27
-3.78
-1.58
0.28
1.82
3.09
4.05
4.66
4.90
4.82
4.58
4.35
4.25
4.34
4.60
4.93
5.26
5.53
5.76
5.95
6.10
6.17
6.12
5.90
5.51
4.98
4.33
3.58
2.70
1.66
0.46
-0.86
-2.21
-3.47
-4.58
-5.48
-6.23
-6.95
-7.79
-8.85
-10.14
-11.53
-12.77
-13.53
-13.52
-12.55
-10.66
-8.09
-5.21
-2.39
0.08
2.08
3.60
4.68
5.40
5.80
5.93
5.84
5.64
5.42
5.28
5.25
5.29
5.35
5.39
5.44
5.52
5.68
5.92
6.17
6.28
6.12
5.62
4.79
3.71
2.51
1.28
0.10
-1.02
-2.06
-3.03
-3.93
-4.78
-5.61
-6.49
-7.46
-8.52
-9.62
-10.63
-11.40
-11.77
-11.62
-10.93
-9.67
-7.93
-5.75
-3.26
-0.60
2.04
4.42
6.35
7.70
8.47
8.79
8.82
8.72
8.60
8.50
8.43
8.40
8.41
8.44
8.49
8.49
8.43
8.29
8.07
7.78
7.41
6.94
6.32
5.53
4.57
3.45
2.23
0.98
-0.25
-1.39
-2.41
-3.29
-4.05
-4.76
-5.48
-6.32
-7.32
-8.50
-9.78
-10.99
-11.93
-12.38
-12.20
-11.30
-9.76
-7.70
-5.35
-2.96
-0.75
1.10
2.51
3.49
4.08
4.36
4.37
4.14
3.71
3.16
2.65
2.35
2.37
2.75
3.45
4.31
5.18
5.89
6.29
6.30
5.87
5.07
4.00
2.81
1.60
0.42
-0.72
-1.89
-3.10
-4.30
-5.41
-6.34
-7.04
-7.59
-8.15
-8.89
-9.92
-11.13
-12.29
-13.06
-13.14
-12.37
-10.76
-8.44
-5.58
-2.37
0.99
4.28
7.23
9.58
11.18
12.01
12.24
12.11
11.88
11.71
11.64
11.60
11.46
11.10
10.46
9.61
8.69
7.90
7.39
7.22
7.30
7.44
7.42
7.08
6.37
5.38
4.22
3.06
2.03
1.19
0.56
0.09
-0.31
-0.76
-1.39
-2.33
-3.62
-5.23
-7.00
-8.64
-9.77
-10.06
-9.33
-7.62
-5.27
-2.73
-0.44
1.33
2.58
3.44
4.12
4.71
5.13
5.24
4.92
4.21
3.29
2.44
1.88
1.65
1.66
1.74
1.75
1.70
1.66
1.77
2.05
2.40
2.63
2.56
2.10
1.28
0.22
-0.92
-1.97
-2.84
-3.48
-3.90
-4.18
-4.43
-4.81
-5.43
-6.36
-7.53
-8.70
-9.57
-9.85
-9.33
-7.98
-5.96
-3.53
-0.97
1.47
3.66
5.48
6.85
7.69
7.96
7.71
7.11
6.37
5.66
5.11
4.70
4.38
4.08
3.78
3.49
3.28
3.19
3.22
3.31
3.34
3.14
2.55
1.51
0.06
-1.64
-3.37
-4.90
-6.06
-6.80
-7.17
-7.31
-7.42
-7.68
-8.16
-8.83
-9.52
-9.95
-9.84
-9.02
-7.43
-5.15
-2.34
0.81
4.12
7.42
10.55
13.36
15.77
17.78
19.47
21.00
22.54
24.20
25.99
27.83
29.59
31.08
32.15
32.65
32.49
31.67
30.28
28.48
26.47
24.45
22.58
20.92
19.39
17.80
15.85
13.23
9.71
5.20
-0.14
-6.04
-12.15
-18.19
-23.97
-29.41
-34.42
-38.92
-42.77
-45.86
-48.13
-49.54
-50.05
-49.56
-47.96
-45.18
-41.32
-36.63
-31.53
-26.45
-21.70
-17.48
-13.82
-10.76
-8.31
-6.51
-5.33
-4.66
-4.33
-4.16
-4.06
-4.03
-4.14
-4.44
-4.91
-5.41
-5.73
-5.66
-5.11
-4.14
-2.99
-2.03
-1.67
-2.17
-3.58
-5.67
-8.02
-10.14
-11.62
-12.21
-11.87
-10.68
-8.79
-6.38
-3.68
-0.95
1.48
3.30
4.31
4.47
3.95
3.02
1.96
0.97
0.12
-0.61
-1.22
-1.74
-2.17
-2.62
-3.21
-4.08
-5.20
-6.37
-7.23
-7.46
-6.91
-5.70
-4.13
-2.52
-1.04
0.28
1.47
2.57
3.48
4.15
4.63
5.13
5.98
7.50
9.76
12.60
15.65
18.49
20.81
22.45
23.38
23.58
23.01
21.66
19.63
17.13
14.53
12.20
10.41
9.28
8.74
8.65
8.83
9.11
9.34
9.35
9.02
8.29
7.16
5.75
4.17
2.57
1.08
-0.23
-1.28
-2.10
-2.82
-3.63
-4.75
-6.27
-8.06
-9.79
-11.07
-11.58
-11.16
-9.86
-7.88
-5.43
-2.76
-0.10
2.29
4.17
5.40
5.92
5.85
5.36
4.66
3.96
3.42
3.16
3.23
3.61
4.13
4.54
4.60
4.22
3.46
2.53
1.68
1.05
0.59
0.15
-0.49
-1.45
-2.71
-4.14
-5.54
-6.73
-7.66
-8.40
-9.15
-10.14
-11.58
-13.53
-15.90
-18.43
-20.77
-22.62
-23.85
-24.48
-24.72
-24.77
-24.78
-24.71
-24.39
-23.58
-22.22
-20.48
-18.87
-18.06
-18.63
-20.72
-23.94
-27.38
-29.98
-30.92
-29.98
-27.62
-24.72
-22.25
-20.85
-20.50
-20.37
-18.81
-13.67
-2.88
14.78
38.92
67.11
95.24
118.51
132.94
136.64
130.36
117.07
100.73
84.82
71.42
61.02
53.10
46.91
42.02
38.36
35.92
34.31
32.82
30.70
27.76
24.70
22.94
24.03
28.89
37.23
47.50
57.48
65.03
68.91
69.20
67.13
64.59
63.54
65.57
71.49
81.05
92.67
103.56
110.41
110.40
102.24
86.63
65.76
42.35
18.57
-4.22
-25.15
-43.08
-56.37
-63.23
-62.79
-55.83
-44.84
-33.35
-24.91
-22.31
-27.31
-40.62
-61.87
-89.40
-120.30
-150.73
-176.84
-195.71
-206.18
-208.74
-204.89
-196.24
-183.90
-168.73
-151.88
-135.34
-121.74
-113.61
-112.24
-116.88
-124.73
-131.90
-134.85
-131.71
-122.89
-110.47
-97.07
-84.25
-71.59
-56.62
-35.71
-5.59
35.03
84.30
137.01
185.50
221.59
238.90
234.90
211.90
176.46
137.52
103.59
80.19
68.52
65.90
67.50
68.68
66.66
60.81
51.86
40.68
27.52
11.99
-6.10
-25.86
-45.15
-61.11
-71.44
-75.37
-73.94
-69.36
-63.87
-58.67
-53.66
-47.90
-40.46
-31.32
-21.53
-12.97
-7.44
-5.98
-8.35
-13.22
-18.74
-23.22
-25.72
-26.23
-25.39
-24.07
-22.87
-21.90
-20.76
-18.87
-15.79
-11.45
-6.23
-0.77
4.27
8.43
11.57
13.80
15.43
16.76
18.00
19.22
20.31
21.07
21.28
20.75
19.47
17.59
15.47
13.56
12.32
12.04
12.77
14.28
16.10
17.72
18.67
18.77
18.04
16.69
14.99
13.16
11.32
9.52
7.77
6.12
4.68
3.55
2.82
2.44
2.29
2.19
2.01
1.72
1.46
1.38
1.56
1.88
2.06
1.76
0.79
-0.82
-2.77
-4.61
-5.95
-6.55
-6.43
-5.86
-5.18
-4.77
-4.86
-5.48
-6.42
-7.29
-7.65
-7.13
-5.62
-3.24
-0.36
2.60
5.25
7.31
8.65
9.20
8.96
8.04
6.64
5.06
3.62
2.58
1.97
1.68
1.52
1.33
1.09
0.93
0.96
1.24
1.69
2.15
2.42
2.39
2.02
1.37
0.55
-0.34
-1.22
-2.01
-2.67
-3.16
-3.52
-3.79
-4.12
-4.65
-5.47
-6.57
-7.74
-8.63
-8.88
-8.22
-6.66
-4.42
-1.95
0.30
2.03
3.13
3.68
3.89
3.96
4.02
4.14
4.32
4.57
4.83
5.07
5.19
5.12
4.80
4.25
3.57
2.91
2.39
2.06
1.83
1.49
0.89
-0.08
-1.32
-2.64
-3.81
-4.69
-5.31
-5.87
-6.58
-7.60
-8.94
-10.44
-11.83
-12.80
-13.09
-12.55
-11.15
-9.01
-6.41
-3.66
-1.02
1.33
3.38
5.14
6.62
7.69
8.21
8.08
7.35
6.23
5.03
4.00
3.24
2.68
2.16
1.58
0.94
0.31
-0.20
-0.55
-0.76
-0.87
-0.91
-0.86
-0.63
-0.15
0.60
1.53
2.44
3.10
3.33
3.13
2.63
2.08
1.71
1.67
2.00
2.66
3.63
4.89
6.40
8.08
9.73
11.11
12.04
12.42
12.32
11.91
11.33
10.70
10.10
9.55
9.11
8.82
8.75
8.87
9.12
9.32
9.29
8.85
7.92
6.58
5.00
3.40
1.98
0.86
0.04
-0.58
-1.16
-1.90
-2.88
-4.14
-5.58
-7.09
-8.60
-10.09
-11.61
-13.22
-14.88
-16.40
-17.50
-17.89
-17.39
-16.02
-13.91
-11.25
-8.17
-4.79
-1.19
2.50
6.03
9.13
11.56
13.18
13.96
13.93
13.18
11.83
10.06
8.10
6.19
4.52
3.20
2.26
1.66
1.40
1.47
1.83
2.37
2.91
3.25
3.28
3.10
2.94
3.05
3.54
4.28
4.97
5.25
4.89
3.85
2.25
0.26
-1.95
-4.24
-6.41
-8.22
-9.35
-9.52
-8.60
-6.66
-3.93
-0.76
2.46
5.41
7.85
9.63
10.71
11.13
11.01
10.48
9.66
8.72
7.81
7.11
6.77
6.84
7.25
7.81
8.29
8.56
8.58
8.45
8.31
8.22
8.17
8.06
7.79
7.30
6.59
5.69
4.59
3.23
1.50
-0.71
-3.38
-6.42
-9.62
-12.71
-15.41
-17.50
-18.77
-19.12
-18.52
-17.01
-14.76
-11.91
-8.69
-5.26
-1.83
1.44
4.36
6.79
8.65
9.93
10.66
10.88
10.64
9.99
9.04
7.96
6.94
6.10
5.46
4.97
4.55
4.19
3.95
3.92
4.13
4.48
4.81
4.91
4.70
4.22
3.57
2.88
2.16
1.32
0.24
-1.17
-2.89
-4.77
-6.59
-8.15
-9.36
-10.22
-10.83
-11.34
-11.89
-12.59
-13.52
-14.67
-15.97
-17.25
-18.24
-18.67
-18.33
-17.12
-15.07
-12.33
-9.09
-5.58
-2.02
1.35
4.26
6.50
7.96
8.65
8.76
8.56
8.30
8.20
8.32
8.62
8.98
9.32
9.58
9.81
10.03
10.29
10.53
10.66
10.58
10.24
9.72
9.14
8.66
8.35
8.18
8.07
7.88
7.54
7.02
6.36
5.62
4.81
3.93
2.95
1.85
0.64
-0.72
-2.26
-4.03
-6.04
-8.19
-10.33
-12.27
-13.90
-15.19
-16.22
-17.05
-17.67
-17.96
-17.78
-17.00
-15.60
-13.68
-11.42
-8.95
-6.40
-3.89
-1.49
0.72
2.72
4.50
6.07
7.41
8.48
9.21
9.58
9.63
9.47
9.22
8.91
8.50
7.87
6.97
5.82
4.58
3.44
2.56
1.99
1.65
1.38
1.01
0.42
-0.42
-1.43
-2.41
-3.11
-3.28
-2.77
-1.63
-0.07
1.61
3.17
4.52
5.77
7.04
8.36
9.54
10.17
9.83
8.21
5.32
1.47
-2.78
-6.76
-9.92
-11.93
-12.76
-12.66
-12.07
-11.51
-11.38
-11.83
-12.75
-13.76
-14.38
-14.17
-12.86
-10.46
-7.30
-3.95
-1.10
0.64
0.92
-0.23
-2.38
-4.84
-6.97
-8.34
-8.87
-8.79
-8.39
-7.88
-7.30
-6.59
-5.68
-4.64
-3.65
-2.94
-2.66
-2.80
-3.18
-3.58
-3.80
-3.77
-3.54
-3.26
-3.04
-2.96
-2.93
-2.87
-2.67
-2.35
-2.04
-1.86
-1.83
-1.77
-1.35
-0.19
1.93
4.94
8.47
12.01
15.06
17.29
18.59
19.03
18.74
17.88
16.55
14.84
12.87
10.72
8.52
6.35
4.32
2.51
1.06
0.06
-0.43
-0.45
-0.12
0.31
0.67
0.83
0.82
0.72
0.61
0.46
0.11
-0.64
-1.95
-3.85
-6.19
-8.67
-10.94
-12.68
-13.71
-13.95
-13.48
-12.46
-11.17
-9.89
-8.88
-8.32
-8.25
-8.58
-9.06
-9.37
-9.19
-8.27
-6.53
-4.08
-1.19
1.82
4.65
7.10
9.06
10.48
11.39
11.84
11.91
11.74
11.44
11.08
10.69
10.24
9.74
9.20
8.74
8.48
8.48
8.72
9.05
9.26
9.18
8.70
7.84
6.71
5.45
4.18
2.97
1.86
0.81
-0.20
-1.19
-2.16
-3.09
-3.91
-4.56
-5.01
-5.29
-5.50
-5.73
-6.06
-6.55
-7.21
-8.10
-9.21
-10.52
-11.87
-12.98
-13.57
-13.43
-12.52
-10.96
-9.01
-6.89
-4.72
-2.61
-0.59
1.22
2.68
3.67
4.16
4.24
4.07
3.81
3.58
3.42
3.34
3.33
3.40
3.57
3.86
4.24
4.66
5.06
5.36
5.52
5.47
5.15
4.53
3.68
2.69
1.71
0.84
0.09
-0.57
-1.18
-1.77
-2.28
-2.63
-2.78
-2.79
-2.79
-3.00
-3.57
-4.58
-5.96
-7.50
-8.95
-10.08
-10.69
-10.66
-9.94
-8.56
-6.60
-4.29
-1.90
0.22
1.85
2.93
3.57
3.97
4.33
4.72
5.10
5.39
5.50
5.46
5.39
5.40
5.59
5.96
6.41
6.79
6.95
6.84
6.50
6.09
5.78
5.62
5.58
5.47
5.15
4.54
3.70
2.76
1.84
0.97
0.10
-0.83
-1.86
-2.95
-4.02
-5.02
-5.95
-6.86
-7.81
-8.88
-10.09
-11.39
-12.63
-13.60
-14.04
-13.76
-12.68
-10.90
-8.62
-6.10
-3.58
-1.23
0.87
2.63
4.00
4.94
5.46
5.59
5.43
5.11
4.75
4.44
4.25
4.22
4.31
4.42
4.47
4.40
4.23
4.03
3.90
3.92
4.09
4.38
4.70
4.94
5.01
4.85
4.42
3.77
2.95
2.07
1.21
0.41
-0.32
-0.99
-1.63
-2.26
-2.90
-3.56
-4.26
-5.03
-5.87
-6.83
-7.90
-9.08
-10.24
-11.20
-11.76
-11.75
-11.07
-9.77
-7.95
-5.77
-3.40
-1.03
1.17
3.02
4.43
5.37
5.91
6.15
6.21
6.15
6.01
5.83
5.67
5.62
5.73
5.96
6.25
6.47
6.56
6.53
6.41
6.27
6.15
6.03
5.88
5.62
5.22
4.66
3.96
3.18
2.37
1.57
0.79
0.02
-0.74
-1.46
-2.10
-2.64
-3.08
-3.49
-3.96
-4.56
-5.35
-6.30
-7.39
-8.59
-9.87
-11.16
-12.24
-12.86
-12.72
-11.67
-9.75
-7.24
-4.50
-1.91
0.33
2.13
3.58
4.76
5.72
6.41
6.78
6.74
6.34
5.71
5.07
4.68
4.68
5.07
5.70
6.34
6.77
6.94
6.93
6.87
6.89
6.95
6.94
6.71
6.18
5.41
4.53
3.68
2.95
2.32
1.73
1.12
0.49
-0.15
-0.76
-1.33
-1.85
-2.35
-2.87
-3.46
-4.16
-5.02
-6.09
-7.32
-8.61
-9.80
-10.69
-11.17
-11.19
-10.77
-9.95
-8.75
-7.18
-5.29
-3.18
-1.07
0.79
2.22
3.18
3.79
4.24
4.70
5.22
5.72
6.04
6.07
5.80
5.33
4.76
4.19
3.64
3.12
2.61
2.11
1.66
1.29
1.03
0.89
0.85
0.88
0.92
0.89
0.73
0.39
-0.15
-0.87
-1.72
-2.65
-3.60
-4.49
-5.29
-5.95
-6.52
-7.08
-7.73
-8.51
-9.33
-9.99
-10.26
-9.93
-8.91
-7.30
-5.26
-3.02
-0.78
1.29
3.06
4.43
5.35
5.82
5.91
5.77
5.55
5.39
5.38
5.54
5.80
6.09
6.32
6.45
6.50
6.53
6.58
6.66
6.71
6.65
6.38
5.88
5.17
4.35
3.52
2.74
2.04
1.35
0.58
-0.28
-1.22
-2.16
-3.01
-3.70
-4.28
-4.82
-5.43
-6.23
-7.29
-8.62
-10.12
-11.63
-12.89
-13.67
-13.76
-13.07
-11.66
-9.67
-7.31
-4.80
-2.31
0.01
2.02
3.66
4.86
5.67
6.12
6.32
6.36
6.30
6.19
6.04
5.91
5.82
5.84
5.99
6.27
6.64
7.04
7.40
7.66
7.78
7.74
7.47
6.94
6.12
5.09
3.99
3.00
2.27
1.86
1.64
1.44
1.07
0.44
-0.40
-1.33
-2.19
-2.92
-3.52
-4.08
-4.68
-5.35
-6.13
-7.04
-8.13
-9.40
-10.78
-12.08
-13.02
-13.31
-12.81
-11.50
-9.55
-7.19
-4.64
-2.10
0.27
2.33
3.97
5.10
5.71
5.90
5.82
5.64
5.50
5.45
5.52
5.67
5.91
6.22
6.60
7.03
7.43
7.72
7.83
7.70
7.39
6.99
6.64
6.39
6.24
6.06
5.71
5.13
4.32
3.40
2.53
1.78
1.20
0.72
0.28
-0.17
-0.67
-1.21
-1.82
-2.52
-3.32
-4.20
-5.10
-5.97
-6.82
-7.68
-8.65
-9.78
-11.06
-12.34
-13.39
-13.92
-13.68
-12.56
-10.61
-8.05
-5.20
-2.38
0.18
2.35
4.08
5.36
6.19
6.59
6.63
6.42
6.11
5.87
5.79
5.87
6.06
6.27
6.42
6.53
6.63
6.76
6.89
6.96
6.89
6.63
6.20
5.65
5.08
4.54
4.06
3.62
3.22
2.83
2.44
2.03
1.55
0.94
0.17
-0.74
-1.71
-2.66
-3.50
-4.24
-4.89
-5.51
-6.11
-6.72
-7.41
-8.26
-9.32
-10.58
-11.88
-12.99
-13.65
-13.67
-13.01
-11.68
-9.78
-7.36
-4.52
-1.35
1.92
4.98
7.47
9.07
9.62
9.18
7.97
6.41
4.90
3.78
3.26
3.34
3.90
4.75
5.71
6.57
7.18
7.46
7.36
6.91
6.25
5.51
4.79
4.17
3.63
3.14
2.64
2.09
1.43
0.59
-0.48
-1.78
-3.20
-4.55
-5.64
-6.33
-6.68
-6.87
-7.14
-7.71
-8.65
-9.87
-11.21
-12.44
-13.35
-13.75
-13.47
-12.38
-10.48
-7.86
-4.82
-1.72
1.04
3.23
4.78
5.76
6.30
6.49
6.35
5.87
5.13
4.33
3.75
3.63
4.04
4.90
5.96
6.94
7.67
8.06
8.14
7.96
7.57
7.03
6.39
5.71
5.08
4.55
4.16
3.88
3.64
3.35
2.94
2.38
1.70
0.96
0.24
-0.41
-1.01
-1.60
-2.27
-3.11
-4.20
-5.61
-7.30
-9.17
-11.01
-12.56
-13.56
-13.84
-13.32
-12.06
-10.20
-7.95
-5.53
-3.19
-1.06
0.79
2.37
3.73
4.84
5.63
6.02
5.95
5.54
4.99
4.55
4.42
4.63
5.07
5.59
6.04
6.35
6.54
6.65
6.71
6.75
6.74
6.65
6.39
5.95
5.31
4.52
3.67
2.83
2.04
1.30
0.62
-0.02
-0.62
-1.20
-1.76
-2.33
-2.91
-3.52
-4.23
-5.13
-6.28
-7.72
-9.36
-11.02
-12.43
-13.32
-13.51
-12.94
-11.65
-9.79
-7.55
-5.11
-2.67
-0.41
1.57
3.21
4.46
5.32
5.80
5.95
5.83
5.60
5.42
5.38
5.53
5.81
6.12
6.38
6.57
6.73
6.98
7.39
7.96
8.60
9.15
9.45
9.39
8.95
8.17
7.10
5.77
4.26
2.61
0.93
-0.69
-2.22
-3.68
-5.15
-6.69
-8.30
-9.87
-11.28
-12.42
-13.23
-13.74
-14.03
-14.13
-14.07
-13.84
-13.34
-12.46
-11.08
-9.10
-6.56
-3.64
-0.63
2.17
4.53
6.35
7.65
8.53
9.03
9.15
8.89
8.29
7.50
6.72
6.19
6.01
6.17
6.52
6.86
7.05
7.00
6.75
6.39
6.00
5.57
5.12
4.59
3.99
3.33
2.62
1.87
1.01
0.02
-1.12
-2.32
-3.48
-4.46
-5.17
-5.62
-5.87
-6.04
-6.26
-6.63
-7.21
-8.00
-8.95
-9.87
-10.56
-10.77
-10.34
-9.25
-7.54
-5.37
-2.90
-0.31
2.20
4.38
5.97
6.81
6.90
6.44
5.75
5.17
4.89
4.95
5.25
5.64
6.01
6.34
6.66
6.98
7.32
7.64
7.89
7.99
7.92
7.66
7.26
6.76
6.22
5.62
4.95
4.19
3.32
2.38
1.42
0.50
-0.35
-1.12
-1.83
-2.50
-3.18
-3.89
-4.70
-5.68
-6.87
-8.27
-9.73
-11.05
-11.94
-12.21
-11.78
-10.77
-9.40
-7.93
-6.53
-5.22
-3.90
-2.47
-0.90
0.70
2.15
3.29
4.03
4.44
4.64
4.75
4.82
4.87
4.89
4.90
4.96
5.11
5.37
5.68
5.94
6.04
5.91
5.57
5.09
4.59
4.12
3.65
3.10
2.37
1.44
0.40
-0.59
-1.37
-1.91
-2.30
-2.70
-3.31
-4.18
-5.30
-6.57
-7.94
-9.36
-10.80
-12.18
-13.38
-14.19
-14.42
-13.96
-12.82
-11.10
-8.95
-6.57
-4.10
-1.72
0.44
2.28
3.73
4.80
5.51
5.90
6.04
6.02
5.91
5.82
5.82
5.96
6.23
6.59
6.96
7.29
7.52
7.68
7.76
7.82
7.83
7.77
7.55
7.08
6.32
5.27
3.99
2.60
1.23
-0.04
-1.13
-2.01
-2.64
-3.02
-3.19
-3.24
-3.32
-3.65
-4.38
-5.56
-7.14
-8.92
-10.62
-11.99
-12.84
-13.05
-12.63
-11.61
-10.04
-7.97
-5.47
-2.69
0.20
2.96
5.36
7.26
8.61
9.44
9.85
9.94
9.83
9.58
9.24
8.86
8.51
8.27
8.19
8.32
8.61
8.93
9.10
8.98
8.45
7.49
6.13
4.45
2.53
0.53
-1.39
-3.02
-4.20
-4.91
-5.24
-5.41
-5.65
-6.11
-6.79
-7.58
-8.35
-8.97
-9.42
-9.73
-9.99
-10.28
-10.66
-11.19
-11.89
-12.74
-13.59
-14.24
-14.40
-13.82
-12.37
-10.07
-7.11
-3.76
-0.31
2.99
5.95
8.42
10.31
11.54
12.14
12.19
11.87
11.36
10.81
10.31
9.91
9.63
9.44
9.36
9.36
9.38
9.33
9.13
8.72
8.10
7.35
6.55
5.76
5.00
4.24
3.47
2.67
1.86
1.03
0.17
-0.78
-1.81
-2.92
-4.07
-5.19
-6.24
-7.21
-8.08
-8.88
-9.64
-10.46
-11.47
-12.71
-14.09
-15.35
-16.11
-16.04
-14.94
-12.88
-10.10
-6.95
-3.75
-0.72
1.98
4.24
6.00
7.22
7.94
8.23
8.21
7.99
7.64
7.23
6.79
6.36
6.00
5.81
5.88
6.28
6.99
7.89
8.75
9.33
9.47
9.12
8.34
7.32
6.25
5.30
4.55
3.98
3.51
3.03
2.46
1.76
0.92
-0.03
-1.09
-2.21
-3.32
-4.37
-5.28
-6.04
-6.79
-7.72
-9.03
-10.76
-12.73
-14.51
-15.59
-15.58
-14.32
-11.98
-8.93
-5.61
-2.40
0.45
2.81
4.60
5.81
6.45
6.60
6.43
6.16
5.98
5.99
6.19
6.48
6.80
7.09
7.38
7.72
8.12
8.50
8.75
8.76
8.46
7.90
7.18
6.43
5.72
5.08
4.45
3.74
2.93
1.99
0.99
-0.01
-0.95
-1.81
-2.57
-3.24
-3.85
-4.43
-5.05
-5.81
-6.85
-8.26
-10.04
-12.03
-13.93
-15.36
-15.95
-15.52
-14.01
-11.63
-8.65
-5.46
-2.36
0.45
2.89
4.96
6.67
7.96
8.78
9.08
8.88
8.31
7.61
6.96
6.46
6.10
5.80
5.47
5.09
4.68
4.29
3.91
3.53
3.14
2.77
2.50
2.37
2.37
2.42
2.33
1.97
1.26
0.28
-0.81
-1.78
-2.51
-2.97
-3.27
-3.59
-4.08
-4.80
-5.72
-6.70
-7.66
-8.55
-9.36
-10.06
-10.55
-10.67
-10.25
-9.19
-7.51
-5.36
-2.93
-0.46
1.86
3.89
5.57
6.89
7.87
8.49
8.73
8.59
8.08
7.29
6.40
5.60
5.02
4.74
4.70
4.80
4.90
4.92
4.78
4.48
3.99
3.33
2.52
1.62
0.69
-0.22
-1.10
-1.93
-2.75
-3.59
-4.52
-5.58
-6.80
-8.12
-9.46
-10.67
-11.65
-12.39
-12.94
-13.40
-13.80
-14.06
-13.94
-13.21
-11.72
-9.50
-6.79
-3.87
-1.04
1.53
3.74
5.55
6.90
7.75
8.10
8.06
7.82
7.56
7.40
7.30
7.15
6.84
6.37
5.83
5.42
5.28
5.43
5.77
6.11
6.27
6.13
5.67
4.93
3.99
2.94
1.83
0.68
-0.53
-1.82
-3.19
-4.59
-5.87
-6.88
-7.48
-7.67
-7.54
-7.32
-7.23
-7.45
-8.00
-8.75
-9.48
-9.95
-9.97
-9.48
-8.51
-7.10
-5.31
-3.15
-0.70
1.94
4.59
7.07
9.25
11.10
12.57
13.62
14.13
13.95
13.03
11.44
9.42
7.28
5.36
3.87
2.90
2.42
2.36
2.62
3.10
3.69
4.27
4.73
4.94
4.85
4.42
3.66
2.64
1.48
0.31
-0.74
-1.61
-2.24
-2.65
-2.90
-3.08
-3.33
-3.73
-4.38
-5.29
-6.46
-7.82
-9.30
-10.81
-12.26
-13.55
-14.62
-15.42
-15.96
-16.28
-16.44
-16.50
-16.43
-16.10
-15.28
-13.71
-11.26
-7.97
-4.12
-0.13
3.55
6.60
8.89
10.45
11.34
11.64
11.40
10.72
9.76
8.76
7.91
7.31
6.96
6.77
6.63
6.50
6.39
6.34
6.36
6.43
6.49
6.45
6.26
5.88
5.32
4.60
3.75
2.80
1.80
0.77
-0.23
-1.19
-2.13
-3.13
-4.30
-5.78
-7.66
-9.96
-12.57
-15.23
-17.59
-19.22
-19.76
-19.00
-16.96
-13.89
-10.17
-6.22
-2.39
1.07
4.06
6.54
8.52
9.99
10.96
11.40
11.31
10.73
9.76
8.60
7.48
6.64
6.18
6.13
6.35
6.66
6.87
6.85
6.54
5.92
5.07
4.03
2.88
1.69
0.49
-0.66
-1.72
-2.63
-3.32
-3.73
-3.90
-3.94
-4.05
-4.48
-5.43
-6.99
-9.09
-11.50
-13.86
-15.78
-16.94
-17.13
-16.31
-14.55
-12.00
-8.92
-5.60
-2.37
0.44
2.59
3.99
4.72
5.01
5.16
5.38
5.77
6.31
6.89
7.48
8.09
8.78
9.59
10.47
11.37
12.20
12.87
13.34
13.55
13.48
13.06
12.28
11.18
9.88
8.52
7.25
6.11
5.07
4.06
2.98
1.76
0.33
-1.33
-3.27
-5.44
-7.75
-9.99
-11.86
-13.04
-13.32
-12.66
-11.20
-9.19
-6.92
-4.62
-2.44
-0.51
1.07
2.24
2.96
3.27
3.32
3.26
3.24
3.35
3.61
3.97
4.38
4.79
5.18
5.49
5.65
5.57
5.19
4.52
3.66
2.74
1.89
1.19
0.57
-0.06
-0.81
-1.70
-2.64
-3.53
-4.27
-4.87
-5.44
-6.15
-7.11
-8.30
-9.60
-10.76
-11.54
-11.72
-11.21
-10.02
-8.27
-6.14
-3.83
-1.52
0.61
2.48
3.99
5.10
5.78
6.07
6.04
5.81
5.51
5.25
5.08
5.00
4.97
4.94
4.88
4.77
4.63
4.49
4.38
4.28
4.14
3.84
3.30
2.47
1.37
0.10
-1.21
-2.49
-3.69
-4.81
-5.88
-6.97
-8.14
-9.44
-10.90
-12.46
-13.93
-15.03
-15.43
-14.86
-13.21
-10.59
-7.33
-3.83
-0.50
2.40
4.76
6.63
8.07
9.16
9.86
10.14
10.01
9.53
8.86
8.16
7.50
6.90
6.33
5.76
5.21
4.74
4.41
4.21
4.10
3.97
3.68
3.12
2.25
1.11
-0.21
-1.58
-2.85
-3.93
-4.76
-5.32
-5.68
-5.95
-6.31
-6.97
-8.08
-9.64
-11.45
-13.15
-14.30
-14.52
-13.60
-11.58
-8.72
-5.34
-1.81
1.59
4.67
7.30
9.40
10.91
11.75
11.92
11.50
10.66
9.64
8.71
8.05
7.72
7.67
7.74
7.80
7.72
7.47
7.03
6.46
5.78
5.03
4.24
3.43
2.55
1.57
0.41
-0.96
-2.51
-4.15
-5.73
-7.08
-8.07
-8.68
-8.96
-9.06
-9.16
-9.45
-10.09
-11.17
-12.64
-14.29
-15.81
-16.76
-16.81
-15.73
-13.54
-10.47
-6.85
-3.07
0.54
3.71
6.29
8.20
9.46
10.13
10.35
10.27
10.01
9.63
9.15
8.60
8.05
7.61
7.44
7.61
8.13
8.85
9.53
9.95
9.99
9.66
9.05
8.31
7.51
6.65
5.71
4.70
3.69
2.76
1.91
1.04
-0.03
-1.41
-3.08
-4.87
-6.55
-8.01
-9.34
-10.74
-12.35
-14.09
-15.62
-16.43
-16.14
-14.60
-12.01
-8.78
-5.37
-2.09
0.88
3.49
5.75
7.61
9.02
9.92
10.31
10.25
9.92
9.48
9.07
8.76
8.54
8.32
8.02
7.61
7.15
6.79
6.68
6.88
7.33
7.89
8.34
8.51
8.34
7.84
7.08
6.10
4.97
3.70
2.33
0.91
-0.48
-1.77
-2.96
-4.06
-5.15
-6.30
-7.60
-9.07
-10.66
-12.19
-13.39
-13.96
-13.66
-12.40
-10.24
-7.35
-3.93
-0.24
3.47
6.92
9.79
11.79
12.74
12.64
11.69
10.25
8.69
7.31
6.33
5.84
5.82
6.19
6.83
7.58
8.26
8.74
8.90
8.75
8.33
7.73
7.05
6.31
5.49
4.49
3.23
1.74
0.13
-1.40
-2.71
-3.74
-4.58
-5.37
-6.24
-7.27
-8.47
-9.82
-11.32
-12.95
-14.63
-16.14
-17.22
-17.55
-17.01
-15.63
-13.64
-11.37
-9.09
-6.93
-4.90
-2.96
-1.09
0.61
1.96
2.77
2.91
2.46
1.58
0.53
-0.46
-1.19
-1.49
-1.21
-0.20
1.56
3.91
6.54
9.01
10.93
12.02
12.19
11.45
9.93
7.81
5.35
2.84
0.56
-1.30
-2.71
-3.77
-4.64
-5.49
-6.37
-7.28
-8.17
-8.94
-9.51
-9.83
-9.89
-9.73
-9.45
-9.15
-8.84
-8.46
-7.90
-7.05
-5.88
-4.46
-2.91
-1.38
0.04
1.32
2.48
3.64
4.89
6.28
7.72
9.01
9.87
10.05
9.49
8.30
6.74
5.12
3.61
2.22
0.88
-0.46
-1.77
-2.94
-3.84
-4.46
-4.95
-5.53
-6.44
-7.74
-9.33
-11.00
-12.49
-13.60
-14.26
-14.42
-14.10
-13.26
-11.89
-10.03
-7.79
-5.39
-3.01
-0.80
1.22
3.07
4.76
6.20
7.20
7.59
7.36
6.70
5.96
5.53
5.59
6.05
6.65
7.03
7.02
6.66
6.13
5.67
5.38
5.20
4.97
4.52
3.78
2.75
1.51
0.10
-1.51
-3.37
-5.58
-8.10
-10.80
-13.39
-15.53
-16.89
-17.30
-16.74
-15.37
-13.48
-11.35
-9.24
-7.32
-5.65
-4.22
-3.03
-2.07
-1.36
-0.92
-0.72
-0.70
-0.84
-1.22
-1.95
-3.22
-5.06
-7.33
-9.71
-11.85
-13.59
-15.02
-16.46
-18.32
-20.92
-24.38
-28.60
-33.35
-38.36
-43.36
-48.17
-52.72
-57.08
-61.42
-65.94
-70.82
-76.06
-81.54
-87.02
-92.32
-97.27
-101.79
-105.85
-109.47
-112.70
-115.58
-117.95
-119.19
-118.07
-112.89
-101.89
-83.89
-58.77
-27.69
7.22
43.45
78.61
110.81
138.70
161.28
177.85
187.97
191.70
189.70
183.28
174.07
163.73
153.44
143.78
134.68
125.77
116.68
107.31
97.89
88.85
80.57
73.28
67.07
61.97
58.11
55.62
54.56
54.73
55.70
56.93
57.99
58.85
59.94
62.21
66.87
75.01
86.95
101.52
115.77
125.37
125.90
114.59
91.72
60.86
27.85
-1.05
-20.93
-29.23
-25.82
-12.51
7.34
29.01
46.73
54.57
48.05
25.89
-8.98
-50.09
-89.46
-120.34
-139.16
-146.06
-143.82
-136.12
-125.96
-115.04
-103.92
-92.79
-81.90
-71.79
-62.94
-55.54
-49.44
-44.39
-40.31
-37.44
-36.22
-36.98
-39.58
-43.27
-46.85
-49.01
-48.72
-45.55
-39.77
-32.22
-24.06
-16.38
-9.96
-5.14
-1.79
0.48
2.11
3.39
4.39
4.99
5.00
4.38
3.29
2.15
1.49
1.78
3.22
5.65
8.51
11.07
12.61
12.73
11.37
8.88
5.77
2.64
-0.10
-2.17
-3.52
-4.28
-4.67
-4.95
-5.32
-5.90
-6.67
-7.55
-8.45
-9.26
-9.98
-10.66
-11.38
-12.30
-13.55
-15.19
-17.13
-19.11
-20.67
-21.29
-20.55
-18.31
-14.80
-10.46
-5.87
-1.53
2.29
5.55
8.29
10.57
12.35
13.53
14.03
13.91
13.34
12.62
12.01
11.67
11.59
11.65
11.65
11.44
10.96
10.22
9.31
8.30
7.23
6.12
4.95
3.73
2.50
1.33
0.27
-0.68
-1.60
-2.62
-3.83
-5.27
-6.86
-8.47
-9.93
-11.13
-12.05
-12.80
-13.55
-14.48
-15.65
-17.02
-18.41
-19.61
-20.42
-20.75
-20.53
-19.78
-18.45
-16.51
-13.94
-10.82
-7.34
-3.79
-0.42
2.50
4.80
6.32
6.94
6.68
5.76
4.67
4.08
4.62
6.64
10.00
14.17
18.35
21.78
23.97
24.72
24.15
22.49
20.07
17.22
14.29
11.60
9.44
7.96
7.18
6.92
6.87
6.64
5.87
4.41
2.36
0.18
-1.53
-2.18
-1.49
0.41
2.97
5.39
6.89
6.91
5.26
2.15
-1.88
-6.10
-9.77
-12.26
-13.26
-12.77
-11.08
-8.69
-6.08
-3.66
-1.69
-0.23
0.78
1.49
2.04
2.52
2.90
3.13
3.15
3.00
2.81
2.75
2.94
3.40
3.97
4.49
4.81
4.88
4.70
4.29
3.71
2.96
2.10
1.20
0.35
-0.43
-1.18
-2.02
-3.02
-4.19
-5.40
-6.49
-7.36
-8.03
-8.63
-9.36
-10.37
-11.69
-13.21
-14.68
-15.80
-16.26
-15.81
-14.38
-12.09
-9.20
-6.04
-2.90
0.02
2.64
4.88
6.63
7.78
8.24
8.08
7.47
6.69
6.00
5.56
5.40
5.44
5.58
5.77
5.99
6.24
6.53
6.85
7.13
7.29
7.23
6.87
6.18
5.16
3.83
2.27
0.52
-1.31
-3.08
-4.68
-6.00
-7.01
-7.77
-8.37
-8.94
-9.64
-10.56
-11.78
-13.25
-14.79
-16.07
-16.72
-16.37
-14.88
-12.36
-9.12
-5.59
-2.12
1.09
3.93
6.36
8.30
9.60
10.10
9.79
8.84
7.59
6.44
5.72
5.53
5.74
6.09
6.36
6.46
6.45
6.52
6.77
7.19
7.60
7.78
7.55
6.88
5.87
4.67
3.42
2.14
0.83
-0.54
-1.94
-3.27
-4.39
-5.22
-5.80
-6.23
-6.68
-7.30
-8.17
-9.32
-10.67
-12.07
-13.28
-14.05
-14.10
-13.25
-11.47
-8.88
-5.74
-2.43
0.74
3.46
5.55
6.92
7.60
7.69
7.39
6.90
6.41
6.02
5.78
5.67
5.69
5.79
5.99
6.27
6.60
6.90
7.09
7.11
6.93
6.60
6.18
5.73
5.26
4.75
4.17
3.50
2.72
1.82
0.79
-0.39
-1.69
-3.06
-4.34
-5.39
-6.11
-6.50
-6.71
-6.98
-7.59
-8.71
-10.31
-12.12
-13.67
-14.49
-14.22
-12.78
-10.33
-7.26
-3.99
-0.91
1.76
3.89
5.46
6.52
7.18
7.54
7.69
7.72
7.62
7.39
7.03
6.61
6.24
6.06
6.10
6.35
6.69
7.00
7.22
7.34
7.41
7.42
7.30
6.96
6.35
5.49
4.49
3.49
2.56
1.72
0.89
-0.02
-1.08
-2.25
-3.47
-4.64
-5.71
-6.70
-7.70
-8.84
-10.15
-11.53
-12.80
-13.70
-14.03
-13.73
-12.85
-11.51
-9.87
-8.04
-6.10
-4.13
-2.24
-0.55
0.86
1.97
2.82
3.47
3.95
4.26
4.39
4.32
4.10
3.83
3.60
3.49
3.54
3.74
4.03
4.37
4.70
4.97
5.17
5.30
5.31
5.19
4.88
4.31
3.45
2.35
1.09
-0.20
-1.42
-2.50
-3.48
-4.41
-5.41
-6.57
-7.97
-9.60
-11.36
-13.03
-14.29
-14.80
-14.37
-12.94
-10.72
-8.03
-5.23
-2.62
-0.40
1.40
2.81
3.90
4.74
5.38
5.80
6.00
5.99
5.83
5.62
5.47
5.43
5.51
5.67
5.86
6.05
6.23
6.37
6.44
6.37
6.11
5.70
5.21
4.70
4.20
3.61
2.83
1.80
0.52
-0.91
-2.35
-3.70
-4.95
-6.12
-7.27
-8.49
-9.78
-11.15
-12.52
-13.78
-14.73
-15.14
-14.80
-13.59
-11.55
-8.86
-5.86
-2.85
-0.08
2.33
4.35
5.97
7.19
8.02
8.46
8.56
8.43
8.18
7.93
7.75
7.68
7.68
7.72
7.77
7.78
7.76
7.71
7.65
7.56
7.41
7.12
6.66
6.04
5.31
4.57
3.85
3.13
2.32
1.34
0.18
-1.11
-2.40
-3.60
-4.72
-5.87
-7.15
-8.63
-10.24
-11.79
-12.98
-13.56
-13.34
-12.26
-10.41
-7.97
-5.15
-2.17
0.76
3.42
5.59
7.10
7.85
7.90
7.44
6.72
5.98
5.37
4.94
4.71
4.61
4.62
4.70
4.79
4.85
4.88
4.90
4.98
5.13
5.31
5.43
5.38
5.10
4.63
4.02
3.36
2.66
1.88
0.94
-0.17
-1.41
-2.65
-3.74
-4.60
-5.23
-5.79
-6.48
-7.52
-9.00
-10.81
-12.66
-14.14
-14.86
-14.58
-13.25
-11.03
-8.18
-5.02
-1.81
1.22
3.90
6.12
7.79
8.84
9.29
9.18
8.65
7.87
7.06
6.36
5.89
5.65
5.62
5.73
5.91
6.08
6.16
6.03
5.63
4.96
4.10
3.21
2.44
1.86
1.42
0.98
0.39
-0.40
-1.39
-2.44
-3.42
-4.25
-4.95
-5.63
-6.48
-7.65
-9.21
-11.10
-13.10
-14.89
-16.13
-16.50
-15.82
-14.10
-11.51
-8.37
-5.02
-1.79
1.10
3.52
5.42
6.81
7.73
8.23
8.41
8.37
8.24
8.09
7.96
7.81
7.61
7.35
7.07
6.89
6.88
7.08
7.44
7.83
8.10
8.12
7.79
7.11
6.12
4.90
3.57
2.22
0.93
-0.26
-1.32
-2.29
-3.19
-4.08
-4.98
-5.92
-6.90
-7.93
-9.06
-10.33
-11.75
-13.21
-14.52
-15.41
-15.65
-15.09
-13.75
-11.77
-9.32
-6.61
-3.77
-0.94
1.73
4.09
5.98
7.29
7.99
8.16
7.96
7.61
7.31
7.25
7.51
8.07
8.84
9.66
10.38
10.89
11.10
10.97
10.48
9.66
8.58
7.35
6.16
5.19
4.54
4.18
3.94
3.56
2.85
1.73
0.31
-1.20
-2.59
-3.73
-4.60
-5.29
-5.93
-6.64
-7.52
-8.64
-10.07
-11.74
-13.46
-14.91
-15.72
-15.55
-14.27
-11.95
-8.81
-5.20
-1.47
2.01
4.94
7.09
8.32
8.70
8.42
7.79
7.11
6.60
6.38
6.44
6.70
7.03
7.30
7.41
7.36
7.20
7.05
6.97
6.97
6.95
6.76
6.31
5.58
4.71
3.86
3.16
2.69
2.42
2.26
2.06
1.71
1.10
0.20
-0.90
-2.06
-3.12
-4.01
-4.80
-5.69
-6.88
-8.47
-10.33
-12.13
-13.43
-13.88
-13.30
-11.74
-9.43
-6.65
-3.71
-0.85
1.73
3.90
5.59
6.80
7.59
8.06
8.31
8.39
8.37
8.29
8.20
8.14
8.16
8.30
8.55
8.91
9.30
9.69
9.97
10.04
9.83
9.28
8.41
7.31
6.10
4.85
3.62
2.37
1.04
-0.34
-1.69
-2.87
-3.77
-4.36
-4.78
-5.22
-5.89
-6.90
-8.23
-9.73
-11.22
-12.47
-13.33
-13.70
-13.52
-12.77
-11.48
-9.67
-7.44
-4.90
-2.24
0.33
2.61
4.41
5.68
6.44
6.84
7.00
7.02
6.95
6.78
6.54
6.25
5.99
5.81
5.78
5.84
5.89
5.81
5.50
4.96
4.27
3.49
2.67
1.77
0.73
-0.45
-1.66
-2.72
-3.50
-3.96
-4.23
-4.55
-5.16
-6.16
-7.50
-9.04
-10.64
-12.18
-13.58
-14.72
-15.40
-15.41
-14.59
-12.97
-10.75
-8.27
-5.82
-3.55
-1.49
0.38
2.03
3.34
4.18
4.49
4.42
4.18
4.02
4.05
4.22
4.44
4.61
4.70
4.78
4.90
5.08
5.32
5.55
5.73
5.80
5.72
5.43
4.90
4.15
3.24
2.23
1.22
0.23
-0.74
-1.74
-2.86
-4.20
-5.86
-7.91
-10.28
-12.77
-15.11
-16.99
-18.14
-18.43
-17.83
-16.39
-14.26
-11.61
-8.63
-5.50
-2.40
0.56
3.29
5.75
7.89
9.63
10.88
11.60
11.79
11.56
11.11
10.60
10.19
9.94
9.83
9.81
9.81
9.80
9.75
9.61
9.30
8.73
7.83
6.62
5.21
3.78
2.45
1.26
0.12
-1.11
-2.53
-4.10
-5.70
-7.13
-8.22
-8.95
-9.37
-9.69
-10.12
-10.82
-11.84
-13.10
-14.33
-15.23
-15.44
-14.75
-13.07
-10.48
-7.18
-3.45
0.37
3.91
6.80
8.77
9.70
9.71
9.08
8.17
7.30
6.64
6.23
6.02
5.97
6.08
6.35
6.76
7.25
7.70
7.98
8.03
7.85
7.51
7.12
6.79
6.58
6.49
6.50
6.50
6.37
6.01
5.31
4.28
2.98
1.49
-0.05
-1.56
-3.00
-4.32
-5.51
-6.55
-7.44
-8.26
-9.11
-10.05
-11.08
-12.00
-12.51
-12.31
-11.23
-9.32
-6.86
-4.22
-1.74
0.40
2.13
3.53
4.62
5.41
5.87
5.97
5.78
5.45
5.16
5.04
5.13
5.35
5.57
5.70
5.69
5.58
5.43
5.29
5.19
5.13
5.11
5.14
5.22
5.34
5.45
5.48
5.35
5.03
4.51
3.82
2.96
1.89
0.57
-1.01
-2.80
-4.69
-6.53
-8.26
-9.92
-11.58
-13.29
-14.91
-16.15
-16.65
-16.10
-14.41
-11.73
-8.39
-4.76
-1.14
2.22
5.12
7.39
8.87
9.50
9.36
8.72
7.93
7.29
6.93
6.82
6.82
6.83
6.82
6.90
7.14
7.51
7.85
7.90
7.48
6.54
5.22
3.81
2.57
1.67
1.11
0.76
0.44
0.02
-0.56
-1.26
-2.04
-2.87
-3.74
-4.66
-5.59
-6.50
-7.39
-8.32
-9.45
-10.94
-12.77
-14.67
-16.18
-16.78
-16.09
-14.09
-11.06
-7.51
-3.92
-0.66
2.11
4.37
6.14
7.44
8.21
8.45
8.19
7.56
6.77
6.04
5.56
5.37
5.45
5.66
5.89
6.09
6.28
6.48
6.65
6.70
6.48
5.92
5.05
4.01
2.99
2.09
1.33
0.61
-0.18
-1.11
-2.16
-3.26
-4.35
-5.39
-6.35
-7.26
-8.15
-9.08
-10.09
-11.16
-12.19
-12.97
-13.26
-12.92
-11.95
-10.48
-8.71
-6.76
-4.65
-2.39
-0.02
2.29
4.31
5.83
6.76
7.20
7.30
7.26
7.18
7.08
6.92
6.67
6.26
5.68
4.98
4.25
3.66
3.41
3.61
4.25
5.16
6.04
6.63
6.71
6.19
5.17
3.78
2.20
0.64
-0.77
-1.91
-2.70
-3.12
-3.26
-3.28
-3.43
-3.96
-5.03
-6.64
-8.59
-10.52
-12.04
-12.75
-12.43
-11.01
-8.61
-5.53
-2.15
1.10
3.90
6.00
7.37
8.07
8.21
7.93
7.34
6.58
5.80
5.16
4.76
4.60
4.59
4.56
4.39
4.06
3.62
3.17
2.77
2.42
2.04
1.54
0.85
-0.03
-1.09
-2.31
-3.61
-4.92
-6.17
-7.28
-8.22
-8.98
-9.55
-9.95
-10.21
-10.43
-10.75
-11.28
-12.06
-12.97
-13.74
-14.03
-13.57
-12.25
-10.13
-7.43
-4.42
-1.34
1.60
4.21
6.32
7.80
8.57
8.67
8.26
7.56
6.78
6.09
5.58
5.27
5.14
5.19
5.39
5.66
5.89
5.99
5.90
5.61
5.20
4.72
4.23
3.69
3.09
2.43
1.72
0.99
0.23
-0.57
-1.46
-2.42
-3.38
-4.28
-5.07
-5.83
-6.68
-7.78
-9.13
-10.59
-11.82
-12.46
-12.22
-11.01
-8.94
-6.28
-3.37
-0.50
2.14
4.45
6.41
7.99
9.18
9.94
10.25
10.13
9.68
8.99
8.17
7.26
6.29
5.31
4.46
3.93
3.95
4.64
5.98
7.79
9.77
11.65
13.19
14.28
14.84
14.88
14.43
13.58
12.50
11.34
10.24
9.19
8.10
6.85
5.37
3.69
1.94
0.27
-1.28
-2.74
-4.22
-5.78
-7.42
-9.01
-10.42
-11.57
-12.42
-13.06
-13.53
-13.88
-14.09
-14.10
-13.82
-13.19
-12.21
-10.92
-9.40
-7.78
-6.17
-4.64
-3.24
-2.00
-0.98
-0.24
0.19
0.38
0.50
0.75
1.23
1.93
2.65
3.16
3.25
2.86
2.04
0.94
-0.28
-1.49
-2.62
-3.69
-4.80
-6.10
-7.73
-9.72
-11.97
-14.24
-16.28
-17.87
-18.90
-19.30
-19.01
-17.96
-16.12
-13.59
-10.68
-7.86
-5.66
-4.42
-4.18
-4.72
-5.67
-6.68
-7.62
-8.53
-9.59
-10.92
-12.52
-14.24
-15.86
-17.21
-18.23
-18.97
-19.49
-19.77
-19.65
-18.84
-17.07
-14.18
-10.21
-5.43
-0.22
4.94
9.69
13.76
17.04
19.56
21.40
22.60
23.17
23.02
22.07
20.29
17.80
14.92
12.05
9.61
7.86
6.85
6.47
6.50
6.76
7.17
7.71
8.42
9.23
9.96
10.41
10.44
10.12
9.69
9.48
9.70
10.39
11.34
12.25
12.82
12.89
12.50
11.82
11.10
10.57
10.42
10.69
11.33
12.12
12.79
13.05
12.67
11.59
9.91
7.84
5.63
3.43
1.26
-1.00
-3.56
-6.56
-9.94
-13.46
-16.71
-19.34
-21.14
-22.14
-22.56
-22.59
-22.37
-21.88
-21.06
-19.87
-18.38
-16.78
-15.30
-14.08
-13.15
-12.45
-11.87
-11.33
-10.81
-10.28
-9.71
-8.96
-7.82
-6.11
-3.70
-0.69
2.72
6.18
9.39
12.12
14.25
15.72
16.50
16.60
16.11
15.24
14.21
13.25
12.48
11.83
11.13
10.15
8.75
6.93
4.83
2.72
0.89
-0.40
-0.90
-0.47
0.95
3.25
6.16
9.30
12.23
14.56
16.11
16.88
17.07
16.96
16.82
16.77
16.83
16.91
16.89
16.70
16.38
16.00
15.68
15.46
15.30
15.07
14.64
13.94
12.99
11.86
10.58
9.09
7.29
5.10
2.55
-0.16
-2.78
-5.06
-6.94
-8.51
-9.99
-11.61
-13.45
-15.49
-17.59
-19.57
-21.21
-22.34
-22.78
-22.43
-21.26
-19.32
-16.78
-13.81
-10.59
-7.24
-3.87
-0.61
2.41
5.01
7.05
8.44
9.20
9.46
9.43
9.40
9.60
10.17
11.13
12.33
13.58
14.69
15.58
16.25
16.75
17.12
17.33
17.31
16.96
16.23
15.12
13.65
11.79
9.54
6.87
3.81
0.47
-2.97
-6.31
-9.34
-11.94
-14.05
-15.69
-16.90
-17.75
-18.26
-18.49
-18.44
-18.15
-17.64
-16.91
-15.96
-14.76
-13.32
-11.69
-9.97
-8.23
-6.54
-4.87
-3.17
-1.35
0.58
2.55
4.39
5.89
6.90
7.31
7.09
6.29
5.00
3.32
1.36
-0.77
-3.01
-5.33
-7.75
-10.31
-13.05
-15.90
-18.69
-21.16
-22.99
-23.96
-24.01
-23.26
-21.98
-20.46
-18.92
-17.43
-15.90
-14.18
-12.13
-9.67
-6.81
-3.63
-0.26
3.11
6.26
8.97
11.07
12.49
13.36
13.89
14.34
14.83
15.36
15.82
16.11
16.21
16.16
16.06
15.90
15.62
15.12
14.36
13.42
12.43
11.53
10.71
9.87
8.84
7.52
5.96
4.29
2.71
1.33
0.15
-0.98
-2.19
-3.60
-5.16
-6.69
-7.95
-8.67
-8.71
-8.00
-6.60
-4.62
-2.25
0.30
2.78
4.94
6.61
7.68
8.19
8.22
7.86
7.17
6.18
4.97
3.70
2.62
1.94
1.77
2.01
2.44
2.79
2.83
2.45
1.63
0.42
-1.11
-2.84
-4.63
-6.28
-7.61
-8.42
-8.62
-8.16
-7.07
-5.46
-3.53
-1.52
0.27
1.61
2.35
2.46
2.09
1.49
0.98
0.81
1.10
1.80
2.77
3.84
4.94
6.04
7.12
8.11
8.81
9.01
8.55
7.45
5.85
4.01
2.12
0.32
-1.36
-2.91
-4.31
-5.53
-6.60
-7.57
-8.57
-9.65
-10.73
-11.65
-12.14
-12.02
-11.27
-10.08
-8.80
-7.78
-7.32
-7.49
-8.19
-9.20
-10.22
-10.97
-11.26
-10.99
-10.11
-8.67
-6.75
-4.48
-2.07
0.25
2.26
3.77
4.75
5.22
5.30
5.10
4.68
4.10
3.43
2.83
2.48
2.53
3.05
3.93
5.00
6.04
6.84
7.28
7.28
6.80
5.86
4.51
2.88
1.09
-0.75
-2.62
-4.53
-6.47
-8.38
-10.08
-11.36
-11.99
-11.87
-11.01
-9.56
-7.69
-5.62
-3.55
-1.61
0.04
1.30
2.12
2.53
2.65
2.63
2.65
2.80
3.11
3.59
4.23
5.06
6.09
7.27
8.48
9.48
10.04
10.01
9.41
8.38
7.13
5.82
4.52
3.17
1.69
0.04
-1.79
-3.70
-5.59
-7.39
-8.98
-10.28
-11.16
-11.51
-11.26
-10.42
-9.09
-7.42
-5.57
-3.71
-1.96
-0.42
0.85
1.76
2.25
2.27
1.83
1.03
0.02
-0.97
-1.70
-2.03
-1.93
-1.55
-1.12
-0.92
-1.18
-2.00
-3.32
-4.95
-6.66
-8.22
-9.52
-10.54
-11.39
-12.20
-13.09
-14.13
-15.32
-16.61
-17.86
-18.88
-19.40
-19.18
-18.07
-16.07
-13.35
-10.21
-6.96
-3.93
-1.34
0.67
2.04
2.82
3.14
3.20
3.24
3.43
3.87
4.54
5.34
6.10
6.72
7.16
7.46
7.69
7.91
8.11
8.19
7.98
7.33
6.17
4.53
2.53
0.27
-2.14
-4.69
-7.35
-10.09
-12.78
-15.23
-17.21
-18.50
-18.92
-18.33
-16.70
-14.10
-10.73
-6.93
-3.13
0.27
2.98
4.88
6.01
6.55
6.75
6.84
7.05
7.52
8.35
9.52
10.93
12.39
13.72
14.79
15.55
16.00
16.18
16.09
15.71
15.00
13.98
12.70
11.26
9.73
8.14
6.47
4.68
2.73
0.60
-1.66
-3.94
-6.08
-7.87
-9.05
-9.40
-8.81
-7.27
-4.94
-2.09
1.00
4.00
6.64
8.75
10.20
10.98
11.18
10.97
10.57
10.25
10.17
10.41
10.89
11.43
11.78
11.75
11.27
10.39
9.27
8.07
6.90
5.76
4.54
3.07
1.18
-1.18
-3.90
-6.78
-9.53
-11.88
-13.73
-15.10
-16.15
-17.07
-17.98
-18.84
-19.50
-19.75
-19.38
-18.24
-16.28
-13.53
-10.10
-6.21
-2.09
1.97
5.73
8.95
11.44
13.15
14.07
14.36
14.20
13.82
13.39
12.97
12.54
12.00
11.35
10.60
9.86
9.23
8.70
8.17
7.50
6.58
5.38
4.01
2.62
1.34
0.23
-0.73
-1.59
-2.39
-3.12
-3.78
-4.33
-4.80
-5.21
-5.58
-5.91
-6.14
-6.19
-6.03
-5.66
-5.17
-4.71
-4.43
-4.46
-4.80
-5.34
-5.79
-5.80
-5.03
-3.28
-0.61
2.68
6.12
9.20
11.53
12.96
13.54
13.49
13.06
12.40
11.57
10.57
9.39
8.06
6.69
5.42
4.30
3.32
2.42
1.51
0.62
-0.14
-0.63
-0.81
-0.76
-0.69
-0.84
-1.34
-2.20
-3.28
-4.41
-5.45
-6.29
-6.95
-7.42
-7.75
-7.98
-8.19
-8.44
-8.84
-9.40
-10.05
-10.69
-11.16
-11.34
-11.20
-10.81
-10.33
-9.98
-9.91
-10.17
-10.69
-11.24
-11.57
-11.41
-10.57
-8.96
-6.56
-3.48
0.07
3.79
7.34
10.42
12.80
14.42
15.31
15.69
15.80
15.91
16.20
16.75
17.54
18.50
19.53
20.55
21.49
22.29
22.85
23.06
22.79
22.01
20.74
19.09
17.22
15.24
13.20
11.06
8.76
6.27
3.58
0.72
-2.26
-5.34
-8.44
-11.50
-14.36
-16.86
-18.88
-20.35
-21.33
-21.94
-22.42
-23.05
-24.10
-25.76
-28.12
-31.02
-34.09
-36.82
-38.70
-39.33
-38.56
-36.43
-33.15
-28.94
-24.01
-18.53
-12.65
-6.54
-0.40
5.58
11.19
16.32
20.85
24.73
27.95
30.53
32.53
34.02
35.04
35.54
35.49
34.81
33.57
31.93
30.17
28.54
27.19
26.11
25.18
24.18
22.94
21.34
19.36
17.04
14.49
11.89
9.45
7.38
5.81
4.68
3.80
2.92
1.81
0.42
-1.22
-2.97
-4.76
-6.54
-8.31
-10.08
-11.85
-13.58
-15.24
-16.80
-18.17
-19.24
-19.83
-19.77
-19.00
-17.59
-15.71
-13.56
-11.35
-9.20
-7.19
-5.39
-3.79
-2.41
-1.23
-0.22
0.62
1.27
1.70
1.95
2.11
2.30
2.66
3.23
3.96
4.76
5.53
6.23
6.86
7.46
7.99
8.37
8.48
8.23
7.61
6.65
5.44
4.02
2.40
0.58
-1.43
-3.53
-5.58
-7.42
-8.93
-10.10
-11.01
-11.79
-12.55
-13.34
-14.08
-14.54
-14.46
-13.54
-11.59
-8.60
-4.78
-0.55
3.58
7.11
9.64
11.01
11.24
10.55
9.28
7.77
6.35
5.25
4.58
4.33
4.42
4.74
5.18
5.64
6.04
6.33
6.43
6.25
5.74
4.87
3.73
2.47
1.29
0.32
-0.34
-0.74
-1.02
-1.32
-1.74
-2.33
-3.05
-3.83
-4.62
-5.35
-5.99
-6.51
-6.95
-7.34
-7.82
-8.55
-9.66
-11.20
-13.06
-14.94
-16.39
-16.95
-16.34
-14.54
-11.83
-8.66
-5.49
-2.66
-0.29
1.57
2.94
3.75
3.97
3.62
2.82
1.78
0.70
-0.34
-1.33
-2.32
-3.32
-4.20
-4.82
-5.00
-4.71
-4.01
-3.07
-2.09
-1.25
-0.75
-0.71
-1.15
-1.99
-3.02
-4.00
-4.75
-5.19
-5.42
-5.55
-5.70
-5.87
-5.97
-5.95
-5.82
-5.67
-5.66
-5.87
-6.32
-6.93
-7.62
-8.28
-8.81
-9.00
-8.65
-7.53
-5.55
-2.80
0.39
3.58
6.36
8.40
9.57
9.86
9.41
8.47
7.31
6.25
5.54
5.30
5.46
5.89
6.42
6.96
7.54
8.23
9.05
9.90
10.59
10.93
10.84
10.35
9.64
8.90
8.29
7.94
7.87
8.09
8.57
9.23
9.97
10.67
11.26
11.63
11.70
11.35
10.51
9.17
7.40
5.38
3.35
1.46
-0.20
-1.59
-2.69
-3.39
-3.59
-3.17
-2.17
-0.76
0.78
2.16
3.16
3.64
3.52
2.77
1.39
-0.57
-3.02
-5.79
-8.73
-11.68
-14.56
-17.32
-19.89
-22.20
-24.05
-25.23
-25.51
-24.75
-22.97
-20.34
-17.15
-13.74
-10.41
-7.40
-4.90
-3.04
-1.94
-1.65
-2.06
-2.96
-4.05
-5.04
-5.76
-6.17
-6.33
-6.31
-6.18
-5.92
-5.47
-4.80
-3.84
-2.54
-0.84
1.30
3.88
6.89
10.22
13.75
17.29
20.64
23.55
25.80
27.26
27.86
27.63
26.66
25.07
22.97
20.50
17.82
15.15
12.68
10.61
8.98
7.74
6.72
5.77
4.78
3.74
2.69
1.75
0.94
0.25
-0.42
-1.20
-2.21
-3.50
-4.99
-6.54
-7.96
-9.11
-9.95
-10.54
-10.99
-11.47
-12.13
-13.09
-14.43
-16.13
-18.06
-19.96
-21.51
-22.44
-22.61
-22.09
-21.09
-19.88
-18.73
-17.84
-17.36
-17.38
-17.93
-18.94
-20.22
-21.55
-22.66
-23.35
-23.47
-22.88
-21.42
-18.96
-15.47
-11.01
-5.80
-0.16
5.62
11.23
16.45
21.03
24.76
27.41
28.89
29.18
28.46
27.00
25.16
23.26
21.55
20.12
18.91
17.75
16.43
14.81
12.88
10.79
8.80
7.20
6.24
6.01
6.44
7.30
8.25
8.96
9.14
8.64
7.39
5.48
3.07
0.38
-2.33
-4.78
-6.76
-8.13
-8.89
-9.16
-9.10
-8.86
-8.49
-7.94
-7.11
-5.92
-4.36
-2.58
-0.81
0.65
1.57
1.82
1.46
0.65
-0.35
-1.34
-2.19
-2.88
-3.47
-4.05
-4.71
-5.51
-6.45
-7.48
-8.49
-9.29
-9.65
-9.37
-8.35
-6.59
-4.28
-1.69
0.87
3.14
4.92
6.12
6.75
6.92
6.79
6.56
6.38
6.33
6.39
6.47
6.50
6.44
6.30
6.10
5.84
5.50
5.07
4.53
3.85
3.02
2.02
0.82
-0.55
-2.03
-3.56
-5.04
-6.45
-7.81
-9.19
-10.66
-12.27
-13.97
-15.65
-17.12
-18.15
-18.49
-17.97
-16.55
-14.40
-11.77
-9.02
-6.44
-4.19
-2.28
-0.67
0.74
1.96
2.94
3.58
3.80
3.61
3.14
2.60
2.25
2.26
2.75
3.72
5.11
6.82
8.72
10.67
12.47
13.92
14.85
15.18
14.91
14.11
12.83
11.08
8.82
5.99
2.57
-1.35
-5.59
-9.82
-13.67
-16.71
-18.55
-18.93
-17.88
-15.70
-12.98
-10.40
-8.45
-7.25
-6.50
-5.64
-4.06
-1.42
2.34
6.96
12.10
17.43
22.66
27.53
31.74
34.99
37.04
37.82
37.43
36.12
34.06
31.34
27.96
23.95
19.52
15.04
10.95
7.56
4.95
2.99
1.45
0.18
-0.90
-1.76
-2.44
-3.01
-3.60
-4.26
-4.97
-5.64
-6.18
-6.57
-6.83
-6.98
-7.00
-6.78
-6.24
-5.36
-4.26
-3.14
-2.14
-1.32
-0.62
0.09
0.90
1.83
2.85
3.87
4.81
5.62
6.24
6.68
6.93
6.97
6.80
6.34
5.56
4.38
2.83
0.93
-1.17
-3.29
-5.25
-6.89
-8.13
-9.00
-9.61
-10.14
-10.70
-11.28
-11.73
-11.80
-11.23
-9.90
-7.88
-5.40
-2.80
-0.38
1.68
3.32
4.59
5.56
6.26
6.70
6.83
6.64
6.20
5.62
5.08
4.70
4.54
4.55
4.62
4.65
4.61
4.56
4.55
4.61
4.63
4.44
3.90
2.99
1.83
0.63
-0.41
-1.20
-1.80
-2.38
-3.11
-4.03
-5.05
-5.93
-6.43
-6.46
-6.08
-5.53
-5.06
-4.90
-5.11
-5.65
-6.39
-7.19
-7.91
-8.43
-8.63
-8.39
-7.66
-6.44
-4.82
-2.92
-0.88
1.17
3.11
4.84
6.25
7.25
7.82
7.98
7.82
7.45
6.95
6.39
5.79
5.16
4.54
4.00
3.55
3.19
2.88
2.54
2.10
1.56
0.93
0.28
-0.33
-0.89
-1.39
-1.90
-2.46
-3.19
-4.16
-5.43
-6.93
-8.50
-9.88
-10.83
-11.20
-10.99
-10.35
-9.46
-8.48
-7.44
-6.34
-5.12
-3.83
-2.59
-1.58
-0.96
-0.83
-1.15
-1.79
-2.55
-3.25
-3.76
-4.03
-4.07
-3.92
-3.65
-3.29
-2.91
-2.52
-2.22
-2.04
-2.05
-2.23
-2.52
-2.85
-3.14
-3.38
-3.64
-4.00
-4.60
-5.47
-6.57
-7.73
-8.66
-9.12
-8.87
-7.86
-6.13
-3.89
-1.39
1.08
3.30
5.08
6.39
7.25
7.76
8.05
8.18
8.14
7.87
7.32
6.49
5.51
4.54
3.74
3.18
2.78
2.41
1.88
1.06
-0.08
-1.48
-2.99
-4.48
-5.86
-7.11
-8.30
-9.55
-10.94
-12.55
-14.42
-16.55
-18.89
-21.26
-23.34
-24.68
-24.85
-23.56
-20.81
-16.84
-12.12
-7.14
-2.32
2.02
5.72
8.69
10.90
12.39
13.30
13.81
14.13
14.40
14.66
14.83
14.80
14.43
13.64
12.46
10.99
9.38
7.84
6.48
5.36
4.43
3.55
2.58
1.45
0.15
-1.21
-2.51
-3.64
-4.61
-5.51
-6.50
-7.73
-9.26
-11.04
-12.88
-14.49
-15.60
-15.91
-15.26
-13.63
-11.18
-8.20
-5.06
-2.06
0.58
2.81
4.64
6.12
7.27
8.09
8.57
8.74
8.72
8.65
8.72
9.06
9.72
10.66
11.71
12.63
13.19
13.23
12.72
11.68
10.20
8.32
6.10
3.62
1.03
-1.44
-3.55
-5.14
-6.20
-6.88
-7.41
-8.01
-8.84
-9.91
-11.13
-12.33
-13.26
-13.69
-13.40
-12.25
-10.21
-7.43
-4.14
-0.65
2.71
5.71
8.19
10.05
11.29
11.93
12.06
11.84
11.47
11.09
10.82
10.63
10.47
10.27
10.01
9.74
9.53
9.41
9.35
9.25
9.06
8.77
8.39
7.97
7.49
6.89
6.10
5.06
3.77
2.31
0.79
-0.64
-1.90
-2.96
-3.91
-4.89
-6.02
-7.37
-8.89
-10.44
-11.87
-13.04
-13.84
-14.18
-13.95
-13.10
-11.57
-9.45
-6.95
-4.34
-1.89
0.22
1.92
3.23
4.20
4.91
5.40
5.70
5.84
5.88
5.89
5.94
6.08
6.30
6.56
6.76
6.85
6.81
6.71
6.62
6.57
6.50
6.30
5.89
5.20
4.25
3.10
1.79
0.42
-0.93
-2.17
-3.22
-4.10
-4.89
-5.75
-6.75
-7.86
-8.87
-9.46
-9.36
-8.44
-6.75
-4.51
-1.98
0.59
3.02
5.19
7.00
8.39
9.31
9.76
9.78
9.48
9.02
8.55
8.21
8.08
8.15
8.33
8.49
8.46
8.13
7.44
6.46
5.34
4.28
3.44
2.88
2.51
2.15
1.63
0.85
-0.18
-1.39
-2.67
-3.92
-5.07
-6.07
-6.87
-7.51
-8.08
-8.72
-9.56
-10.61
-11.77
-12.76
-13.29
-13.12
-12.11
-10.29
-7.81
-4.93
-2.00
0.69
2.89
4.51
5.60
6.30
6.80
7.21
7.57
7.85
8.01
7.99
7.81
7.50
7.09
6.66
6.23
5.83
5.47
5.13
4.81
4.48
4.13
3.75
3.29
2.72
2.00
1.15
0.19
-0.79
-1.74
-2.61
-3.45
-4.31
-5.24
-6.26
-7.31
-8.34
-9.33
-10.28
-11.22
-12.10
-12.73
-12.82
-12.09
-10.45
-8.01
-5.12
-2.18
0.49
2.77
4.66
6.21
7.43
8.24
8.62
8.60
8.32
7.94
7.56
7.23
6.90
6.51
6.09
5.67
5.32
5.08
4.94
4.85
4.73
4.52
4.20
3.75
3.20
2.56
1.84
1.03
0.09
-0.98
-2.13
-3.27
-4.30
-5.12
-5.76
-6.31
-6.93
-7.76
-8.85
-10.15
-11.49
-12.63
-13.31
-13.30
-12.52
-11.02
-8.98
-6.63
-4.15
-1.70
0.59
2.60
4.19
5.19
5.55
5.34
4.74
4.05
3.49
3.21
3.23
3.46
3.81
4.13
4.30
4.24
3.92
3.45
3.01
2.78
2.86
3.15
3.43
3.46
3.06
2.26
1.18
0.01
-1.13
-2.22
-3.27
-4.29
-5.29
-6.25
-7.20
-8.18
-9.26
-10.41
-11.47
-12.17
-12.20
-11.36
-9.66
-7.31
-4.68
-2.12
0.07
1.76
2.93
3.65
3.97
3.97
3.77
3.47
3.24
3.19
3.39
3.85
4.49
5.20
5.87
6.39
6.73
6.88
6.90
6.86
6.79
6.67
6.44
6.05
5.45
4.65
3.69
2.60
1.40
0.16
-1.04
-2.10
-2.90
-3.45
-3.86
-4.34
-5.04
-6.06
-7.34
-8.69
-9.88
-10.71
-10.99
-10.66
-9.73
-8.31
-6.56
-4.69
-2.87
-1.22
0.19
1.34
2.21
2.74
2.90
2.71
2.23
1.59
0.94
0.38
-0.02
-0.26
-0.29
-0.07
0.48
1.34
2.44
3.57
4.51
5.11
5.29
5.15
4.81
4.38
3.85
3.16
2.18
0.86
-0.80
-2.72
-4.80
-6.91
-8.90
-10.63
-11.95
-12.82
-13.25
-13.39
-13.41
-13.43
-13.50
-13.49
-13.19
-12.38
-10.92
-8.80
-6.15
-3.23
-0.31
2.34
4.53
6.19
7.34
8.08
8.54
8.83
9.01
9.10
9.09
8.94
8.65
8.20
7.63
7.00
6.38
5.85
5.48
5.23
5.02
4.71
4.17
3.38
2.39
1.36
0.42
-0.34
-0.98
-1.60
-2.35
-3.30
-4.42
-5.59
-6.65
-7.49
-8.11
-8.58
-9.00
-9.46
-9.93
-10.32
-10.47
-10.26
-9.66
-8.72
-7.56
-6.30
-5.04
-3.82
-2.61
-1.36
-0.06
1.25
2.45
3.41
4.02
4.23
4.12
3.83
3.54
3.38
3.40
3.56
3.77
3.97
4.14
4.29
4.41
4.48
4.42
4.14
3.67
3.12
2.68
2.47
2.49
2.58
2.50
2.09
1.34
0.38
-0.55
-1.32
-1.89
-2.37
-2.88
-3.50
-4.25
-5.12
-6.06
-7.06
-8.05
-8.92
-9.49
-9.57
-9.03
-7.77
-5.84
-3.42
-0.76
1.83
4.04
5.66
6.69
7.33
7.94
8.92
10.52
12.75
15.33
17.80
19.68
20.53
20.14
18.52
15.95
12.89
9.87
7.37
5.68
4.80
4.48
4.34
4.00
3.25
2.09
0.68
-0.78
-2.12
-3.33
-4.47
-5.59
-6.66
-7.58
-8.21
-8.54
-8.66
-8.79
-9.11
-9.68
-10.45
-11.23
-11.87
-12.29
-12.57
-12.76
-12.89
-12.82
-12.35
-11.24
-9.36
-6.77
-3.71
-0.55
2.38
4.74
6.31
6.96
6.69
5.62
4.04
2.33
0.96
0.28
0.43
1.24
2.35
3.36
3.98
4.17
4.08
3.93
3.87
3.93
4.04
4.09
3.96
3.65
3.18
2.65
2.16
1.80
1.62
1.57
1.55
1.33
0.66
-0.69
-2.85
-5.75
-9.09
-12.40
-15.19
-17.13
-18.15
-18.43
-18.35
-18.29
-18.49
-19.04
-19.82
-20.46
-20.35
-18.71
-14.90
-8.77
-0.91
7.38
14.40
18.77
19.82
17.89
14.07
9.73
6.00
3.51
2.36
2.34
3.10
4.30
5.63
6.79
7.51
7.53
6.74
5.25
3.40
1.66
0.47
0.05
0.31
0.87
1.29
1.20
0.51
-0.56
-1.63
-2.31
-2.50
-2.39
-2.47
-3.30
-5.30
-8.48
-12.46
-16.50
-19.75
-21.52
-21.37
-19.27
-15.45
-10.41
-4.74
0.92
6.04
10.20
13.22
15.09
15.94
15.94
15.25
13.99
12.29
10.27
8.09
5.86
3.67
1.51
-0.60
-2.60
-4.34
-5.67
-6.43
-6.58
-6.17
-5.37
-4.41
-3.47
-2.73
-2.24
-1.99
-1.92
-1.95
-2.03
-2.15
-2.37
-2.74
-3.32
-4.09
-4.99
-5.88
-6.66
-7.23
-7.59
-7.76
-7.80
-7.68
-7.37
-6.75
-5.76
-4.39
-2.69
-0.79
1.21
3.26
5.33
7.40
9.40
11.23
12.78
13.98
14.84
15.42
15.78
15.99
16.07
16.05
15.98
15.90
15.79
15.65
15.41
15.04
14.57
14.01
13.43
12.81
12.11
11.24
10.14
8.81
7.28
5.59
3.75
1.76
-0.38
-2.55
-4.61
-6.35
-7.64
-8.47
-8.94
-9.25
-9.60
-10.12
-10.81
-11.56
-12.18
-12.43
-12.08
-10.93
-8.91
-6.14
-2.90
0.42
3.43
5.81
7.42
8.28
8.51
8.24
7.61
6.73
5.74
4.85
4.26
4.16
4.58
5.45
6.53
7.59
8.45
9.03
9.34
9.42
9.26
8.81
8.01
6.82
5.32
3.67
2.03
0.57
-0.63
-1.54
-2.23
-2.83
-3.48
-4.29
-5.31
-6.48
-7.64
-8.63
-9.28
-9.56
-9.50
-9.26
-9.00
-8.89
-9.04
-9.44
-10.02
-10.55
-10.76
-10.40
-9.32
-7.54
-5.25
-2.74
-0.28
1.95
3.85
5.40
6.60
7.44
7.92
8.05
7.89
7.51
6.99
6.43
5.92
5.57
5.48
5.72
6.23
6.90
7.52
7.92
8.06
7.98
7.82
7.68
7.55
7.32
6.83
5.98
4.85
3.59
2.43
1.53
0.91
0.48
0.09
-0.39
-1.01
-1.71
-2.42
-3.09
-3.75
-4.47
-5.31
-6.30
-7.40
-8.54
-9.58
-10.40
-10.88
-10.91
-10.44
-9.48
-8.15
-6.61
-5.04
-3.57
-2.23
-0.99
0.18
1.27
2.16
2.68
2.70
2.25
1.52
0.84
0.61
1.07
2.27
4.03
6.01
7.90
9.44
10.57
11.30
11.65
11.61
11.13
10.20
8.93
7.59
6.51
5.96
6.00
6.46
7.03
7.36
7.24
6.60
5.53
4.17
2.70
1.24
-0.06
-1.10
-1.79
-2.13
-2.17
-2.01
-1.77
-1.47
-1.09
-0.52
0.30
1.38
2.59
3.74
4.62
5.08
5.11
4.77
4.22
3.56
2.86
2.08
1.19
0.14
-1.04
-2.27
-3.50
-4.69
-5.87
-7.11
-8.43
-9.82
-11.17
-12.34
-13.16
-13.55
-13.52
-13.14
-12.53
-11.78
-10.93
-9.92
-8.68
-7.17
-5.42
-3.59
-1.88
-0.52
0.35
0.76
0.81
0.70
0.57
0.44
0.30
0.04
-0.44
-1.19
-2.27
-3.65
-5.29
-7.06
-8.74
-10.07
-10.79
-10.77
-10.08
-8.91
-7.50
-6.09
-4.78
-3.61
-2.59
-1.78
-1.32
-1.37
-2.06
-3.34
-4.97
-6.53
-7.61
-7.92
-7.43
-6.29
-4.80
-3.22
-1.72
-0.35
0.93
2.18
3.39
4.55
5.59
6.48
7.20
7.71
7.96
7.88
7.42
6.59
5.46
4.19
3.01
2.09
1.52
1.27
1.17
1.02
0.65
-0.03
-1.00
-2.14
-3.28
-4.24
-4.85
-4.97
-4.53
-3.51
-2.00
-0.12
1.95
4.04
6.00
7.67
8.94
9.72
10.01
9.91
9.56
9.16
8.86
8.76
8.86
9.12
9.50
9.94
10.41
10.87
11.23
11.39
11.21
10.53
9.26
7.37
4.95
2.22
-0.52
-2.96
-4.85
-6.05
-6.60
-6.61
-6.27
-5.72
-5.07
-4.36
-3.65
-2.96
-2.33
-1.78
-1.36
-1.10
-1.08
-1.42
-2.21
-3.47
-5.11
-6.91
-8.56
-9.71
-10.09
-9.56
-8.14
-6.02
-3.55
-1.11
0.98
2.52
3.43
3.78
3.71
3.42
3.11
2.97
3.12
3.60
4.32
5.07
5.66
6.00
6.13
6.20
6.36
6.63
6.91
6.99
6.72
6.07
5.17
4.23
3.42
2.81
2.36
1.96
1.50
0.91
0.15
-0.76
-1.74
-2.71
-3.56
-4.23
-4.68
-5.00
-5.32
-5.78
-6.50
-7.50
-8.68
-9.89
-10.90
-11.48
-11.43
-10.67
-9.23
-7.26
-5.01
-2.68
-0.48
1.48
3.12
4.39
5.22
5.62
5.64
5.41
5.12
4.94
4.91
4.94
4.88
4.64
4.24
3.83
3.63
3.75
4.18
4.76
5.29
5.61
5.68
5.55
5.31
5.00
4.66
4.29
3.90
3.49
3.05
2.53
1.88
1.05
0.09
-0.94
-1.94
-2.85
-3.70
-4.50
-5.33
-6.25
-7.30
-8.46
-9.65
-10.74
-11.54
-11.90
-11.70
-10.93
-9.65
-8.00
-6.14
-4.24
-2.44
-0.85
0.49
1.54
2.34
2.88
3.20
3.31
3.26
3.14
3.06
3.11
3.28
3.46
3.55
3.46
3.23
2.98
2.80
2.74
2.77
2.80
2.77
2.67
2.51
2.29
1.95
1.40
0.59
-0.46
-1.63
-2.74
-3.64
-4.30
-4.81
-5.32
-5.98
-6.89
-8.02
-9.25
-10.40
-11.27
-11.72
-11.62
-10.91
-9.60
-7.73
-5.46
-2.99
-0.59
1.53
3.21
4.40
5.13
5.44
5.40
5.11
4.66
4.21
3.93
3.95
4.29
4.84
5.39
5.74
5.75
5.44
4.93
4.41
4.01
3.73
3.46
3.06
2.43
1.57
0.60
-0.35
-1.19
-1.92
-2.61
-3.35
-4.17
-5.07
-6.01
-6.97
-7.99
-9.16
-10.48
-11.92
-13.26
-14.22
-14.50
-13.87
-12.33
-10.02
-7.26
-4.41
-1.78
0.46
2.25
3.62
4.63
5.37
5.86
6.17
6.36
6.51
6.67
6.83
6.99
7.10
7.18
7.28
7.48
7.83
8.31
8.79
9.11
9.16
8.87
8.30
7.56
6.76
5.95
5.14
4.28
3.32
2.28
1.20
0.16
-0.79
-1.65
-2.47
-3.31
-4.22
-5.21
-6.23
-7.29
-8.39
-9.61
-11.00
-12.53
-14.02
-15.17
-15.64
-15.15
-13.64
-11.27
-8.38
-5.34
-2.46
0.11
2.33
4.23
5.82
7.07
7.93
8.41
8.57
8.57
8.56
8.65
8.86
9.12
9.35
9.49
9.55
9.61
9.74
9.97
10.29
10.59
10.73
10.60
10.13
9.38
8.48
7.58
6.80
6.16
5.62
5.10
4.57
4.06
3.60
3.21
2.85
2.41
1.80
1.01
0.12
-0.72
-1.41
-1.91
-2.35
-2.88
-3.61
-4.57
-5.64
-6.69
-7.60
-8.35
-9.08
-10.00
-11.26
-12.90
-14.71
-16.32
-17.28
-17.28
-16.19
-14.11
-11.33
-8.18
-5.00
-2.01
0.63
2.82
4.53
5.75
6.60
7.20
7.70
8.21
8.76
9.35
9.92
10.45
10.91
11.28
11.55
11.69
11.70
11.54
11.23
10.76
10.14
9.39
8.48
7.45
6.32
5.15
3.97
2.80
1.65
0.53
-0.52
-1.44
-2.17
-2.71
-3.09
-3.38
-3.65
-3.93
-4.21
-4.47
-4.73
-5.03
-5.40
-5.83
-6.26
-6.58
-6.70
-6.64
-6.52
-6.56
-6.99
-7.96
-9.45
-11.22
-12.90
-14.09
-14.52
-14.07
-12.81
-10.97
-8.81
-6.60
-4.51
-2.65
-1.06
0.29
1.43
2.39
3.19
3.80
4.19
4.41
4.49
4.52
4.62
4.85
5.28
5.90
6.69
7.58
8.43
9.11
9.53
9.67
9.59
9.40
9.15
8.89
8.55
8.09
7.48
6.78
6.06
5.38
4.73
4.02
3.15
2.06
0.79
-0.55
-1.80
-2.87
-3.76
-4.56
-5.38
-6.28
-7.24
-8.19
-9.10
-9.99
-10.95
-11.98
-12.94
-13.60
-13.60
-12.75
-11.01
-8.59
-5.80
-2.98
-0.36
1.95
3.92
5.51
6.69
7.43
7.72
7.66
7.38
7.03
6.73
6.54
6.44
6.35
6.22
6.01
5.76
5.52
5.40
5.45
5.67
6.00
6.33
6.54
6.53
6.22
5.60
4.71
3.67
2.61
1.72
1.12
0.82
0.75
0.74
0.61
0.20
-0.50
-1.42
-2.45
-3.47
-4.42
-5.26
-6.01
-6.71
-7.38
-8.07
-8.83
-9.77
-10.88
-12.12
-13.29
-14.14
-14.39
-13.87
-12.56
-10.59
-8.22
-5.72
-3.30
-1.07
0.90
2.58
3.91
4.84
5.33
5.42
5.19
4.80
4.41
4.18
4.19
4.48
5.01
5.69
6.42
7.07
7.55
7.78
7.75
7.45
6.99
6.45
5.95
5.55
5.24
4.92
4.50
3.90
3.15
2.34
1.57
0.92
0.40
-0.06
-0.53
-1.07
-1.71
-2.44
-3.26
-4.11
-4.94
-5.67
-6.28
-6.81
-7.42
-8.29
-9.53
-11.07
-12.67
-13.93
-14.47
-14.09
-12.79
-10.81
-8.45
-5.99
-3.59
-1.32
0.77
2.61
4.09
5.08
5.53
5.50
5.17
4.74
4.38
4.17
4.09
4.09
4.14
4.26
4.48
4.83
5.27
5.73
6.08
6.22
6.08
5.64
4.96
4.17
3.40
2.75
2.27
1.93
1.67
1.40
1.06
0.61
0.03
-0.67
-1.48
-2.37
-3.24
-4.02
-4.67
-5.19
-5.68
-6.27
-7.06
-8.11
-9.39
-10.76
-12.02
-12.95
-13.36
-13.07
-12.03
-10.25
-7.89
-5.18
-2.40
0.18
2.35
4.02
5.14
5.79
6.02
5.93
5.62
5.22
4.85
4.61
4.55
4.64
4.81
5.02
5.26
5.54
5.89
6.26
6.58
6.75
6.70
6.44
6.02
5.48
4.82
4.06
3.21
2.39
1.71
1.25
0.96
0.68
0.22
-0.52
-1.51
-2.55
-3.47
-4.18
-4.70
-5.15
-5.66
-6.32
-7.19
-8.25
-9.52
-10.95
-12.43
-13.82
-14.90
-15.48
-15.43
-14.67
-13.21
-11.13
-8.58
-5.77
-2.98
-0.46
1.59
3.11
4.12
4.75
5.13
5.35
5.50
5.62
5.76
6.01
6.42
7.06
7.92
8.91
9.89
10.73
11.32
11.61
11.63
11.41
11.00
10.36
9.44
8.18
6.59
4.82
3.10
1.68
0.69
0.09
-0.32
-0.80
-1.50
-2.42
-3.42
-4.32
-5.07
-5.73
-6.43
-7.29
-8.27
-9.26
-10.12
-10.80
-11.39
-12.00
-12.73
-13.51
-14.13
-14.30
-13.77
-12.45
-10.40
-7.82
-4.99
-2.14
0.49
2.75
4.53
5.79
6.60
7.04
7.23
7.26
7.16
7.00
6.80
6.65
6.61
6.75
7.04
7.39
7.68
7.80
7.74
7.59
7.42
7.27
7.08
6.71
6.05
5.12
4.06
3.08
2.37
1.96
1.70
1.38
0.80
-0.13
-1.33
-2.67
-3.95
-5.03
-5.84
-6.40
-6.81
-7.20
-7.73
-8.46
-9.41
-10.47
-11.47
-12.21
-12.48
-12.09
-10.95
-9.09
-6.64
-3.86
-1.07
1.44
3.46
4.86
5.63
5.85
5.64
5.19
4.67
4.24
4.01
4.00
4.20
4.57
5.09
5.68
6.28
6.79
7.14
7.31
7.33
7.27
7.15
6.96
6.63
6.11
5.44
4.69
3.98
3.39
2.92
2.45
1.87
1.09
0.11
-1.03
-2.27
-3.51
-4.73
-5.90
-7.02
-8.10
-9.17
-10.27
-11.41
-12.50
-13.40
-13.87
-13.71
-12.79
-11.14
-8.96
-6.48
-3.94
-1.52
0.72
2.71
4.40
5.69
6.47
6.74
6.58
6.17
5.75
5.49
5.49
5.71
6.12
6.61
7.12
7.58
7.89
8.01
7.91
7.65
7.36
7.12
6.94
6.72
6.31
5.61
4.63
3.50
2.42
1.49
0.76
0.11
-0.58
-1.42
-2.40
-3.45
-4.47
-5.35
-6.08
-6.66
-7.19
-7.80
-8.62
-9.70
-11.01
-12.38
-13.57
-14.33
-14.45
-13.83
-12.50
-10.55
-8.14
-5.42
-2.59
0.17
2.67
4.73
6.22
7.08
7.36
7.14
6.60
5.93
5.35
5.02
5.03
5.40
6.03
6.81
7.57
8.20
8.58
8.68
8.52
8.17
7.70
7.15
6.57
5.93
5.27
4.65
4.12
3.71
3.37
2.98
2.46
1.75
0.88
-0.07
-1.02
-1.95
-2.84
-3.71
-4.57
-5.40
-6.18
-6.93
-7.67
-8.48
-9.41
-10.51
-11.74
-13.00
-14.09
-14.72
-14.61
-13.55
-11.57
-8.90
-5.96
-3.16
-0.78
1.09
2.48
3.52
4.31
4.89
5.33
5.66
5.94
6.19
6.38
6.45
6.36
6.17
6.02
6.05
6.36
6.93
7.60
8.17
8.46
8.41
8.04
7.47
6.82
6.16
5.52
4.86
4.14
3.33
2.45
1.52
0.60
-0.32
-1.25
-2.18
-3.08
-3.89
-4.54
-4.97
-5.21
-5.40
-5.71
-6.34
-7.37
-8.75
-10.26
-11.58
-12.35
-12.31
-11.35
-9.58
-7.24
-4.64
-2.06
0.28
2.22
3.68
4.65
5.16
5.31
5.24
5.07
4.89
4.71
4.54
4.35
4.18
4.07
4.07
4.21
4.47
4.81
5.19
5.58
5.93
6.15
6.14
5.81
5.13
4.20
3.20
2.32
1.68
1.24
0.87
0.39
-0.34
-1.33
-2.47
-3.59
-4.51
-5.15
-5.54
-5.79
-6.08
-6.58
-7.35
-8.37
-9.52
-10.59
-11.35
-11.57
-11.11
-9.91
-8.05
-5.72
-3.19
-0.73
1.42
3.12
4.33
5.07
5.42
5.45
5.28
5.00
4.74
4.61
4.63
4.79
5.00
5.17
5.27
5.33
5.43
5.64
5.92
6.13
6.12
5.79
5.16
4.42
3.75
3.24
2.86
2.43
1.79
0.88
-0.20
-1.29
-2.23
-2.97
-3.52
-3.98
-4.44
-4.97
-5.66
-6.56
-7.75
-9.18
-10.71
-12.12
-13.16
-13.62
-13.38
-12.42
-10.79
-8.62
-6.11
-3.55
-1.23
0.64
1.99
2.89
3.47
3.89
4.22
4.49
4.69
4.85
5.03
5.22
5.41
5.53
5.57
5.57
5.64
5.88
6.26
6.69
7.01
7.06
6.79
6.25
5.54
4.79
4.09
3.53
3.12
2.84
2.60
2.26
1.68
0.80
-0.32
-1.52
-2.63
-3.55
-4.28
-4.96
-5.73
-6.71
-7.93
-9.30
-10.67
-11.83
-12.56
-12.68
-12.06
-10.68
-8.65
-6.17
-3.53
-0.99
1.22
2.98
4.26
5.10
5.55
5.69
5.57
5.30
4.95
4.64
4.44
4.39
4.50
4.74
5.06
5.45
5.87
6.30
6.67
6.89
6.84
6.45
5.71
4.73
3.66
2.71
1.96
1.40
0.92
0.37
-0.34
-1.23
-2.20
-3.15
-4.01
-4.78
-5.51
-6.27
-7.09
-7.98
-8.92
-9.87
-10.76
-11.46
-11.80
-11.59
-10.68
-9.06
-6.86
-4.34
-1.83
0.40
2.17
3.46
4.31
4.87
5.24
5.49
5.66
5.76
5.83
5.88
5.95
6.04
6.16
6.30
6.45
6.62
6.80
6.96
7.08
7.08
6.93
6.63
6.21
5.67
5.01
4.23
3.32
2.33
1.36
0.48
-0.28
-0.96
-1.65
-2.46
-3.41
-4.46
-5.54
-6.59
-7.61
-8.67
-9.85
-11.17
-12.51
-13.66
-14.34
-14.31
-13.50
-11.98
-9.91
-7.51
-4.92
-2.24
0.41
2.83
4.77
6.01
6.49
6.34
5.84
5.32
5.01
5.00
5.22
5.57
5.98
6.44
6.95
7.51
8.04
8.43
8.54
8.28
7.66
6.78
5.81
4.93
4.24
3.74
3.32
2.84
2.17
1.28
0.22
-0.89
-1.93
-2.84
-3.63
-4.38
-5.21
-6.22
-7.39
-8.70
-10.03
-11.30
-12.44
-13.39
-14.07
-14.34
-14.00
-12.87
-10.91
-8.26
-5.20
-2.08
0.79
3.22
5.14
6.56
7.49
8.01
8.18
8.13
7.99
7.88
7.84
7.87
7.91
7.96
8.03
8.17
8.38
8.62
8.82
8.90
8.79
8.48
7.97
7.29
6.50
5.69
4.95
4.34
3.84
3.32
2.62
1.61
0.30
-1.19
-2.59
-3.71
-4.44
-4.87
-5.22
-5.70
-6.48
-7.56
-8.88
-10.31
-11.74
-13.04
-14.04
-14.51
-14.22
-13.02
-10.94
-8.21
-5.18
-2.24
0.32
2.32
3.73
4.56
4.88
4.82
4.51
4.14
3.89
3.88
4.14
4.60
5.13
5.57
5.82
5.87
5.79
5.68
5.65
5.74
5.92
6.12
6.27
6.28
6.10
5.67
4.98
4.02
2.81
1.45
0.06
-1.22
-2.28
-3.09
-3.69
-4.19
-4.75
-5.53
-6.58
-7.88
-9.28
-10.57
-11.51
-11.88
-11.53
-10.40
-8.56
-6.23
-3.69
-1.24
0.92
2.68
4.05
5.07
5.76
6.11
6.14
5.88
5.46
5.04
4.75
4.65
4.76
5.06
5.55
6.18
6.88
7.51
7.93
8.03
7.78
7.24
6.48
5.59
4.63
3.67
2.78
2.02
1.38
0.78
0.10
-0.79
-1.93
-3.23
-4.49
-5.56
-6.35
-6.93
-7.44
-8.08
-8.98
-10.16
-11.51
-12.82
-13.81
-14.19
-13.76
-12.47
-10.41
-7.83
-5.03
-2.26
0.28
2.46
4.21
5.49
6.29
6.67
6.77
6.73
6.67
6.60
6.56
6.53
6.55
6.66
6.91
7.28
7.66
7.99
8.20
8.30
8.28
8.16
7.94
7.59
7.12
6.54
5.89
5.18
4.41
3.55
2.62
1.67
0.73
-0.17
-1.04
-1.92
-2.85
-3.84
-4.84
-5.83
-6.78
-7.76
-8.84
-10.08
-11.43
-12.72
-13.70
-14.12
-13.81
-12.75
-11.06
-8.92
-6.52
-4.01
-1.52
0.81
2.82
4.40
5.51
6.17
6.47
6.52
6.42
6.27
6.14
6.11
6.21
6.43
6.67
6.85
6.91
6.86
6.78
6.76
6.81
6.87
6.81
6.49
5.87
5.01
4.04
3.11
2.29
1.59
0.95
0.28
-0.49
-1.37
-2.30
-3.23
-4.09
-4.88
-5.61
-6.35
-7.19
-8.20
-9.41
-10.77
-12.15
-13.31
-13.98
-13.94
-13.07
-11.41
-9.11
-6.43
-3.59
-0.84
1.64
3.68
5.17
6.10
6.50
6.53
6.33
6.04
5.76
5.55
5.44
5.50
5.74
6.16
6.65
7.10
7.40
7.52
7.50
7.43
7.32
7.14
6.78
6.16
5.28
4.25
3.23
2.34
1.62
0.99
0.36
-0.35
-1.18
-2.08
-3.02
-3.97
-4.93
-5.95
-7.07
-8.32
-9.72
-11.23
-12.76
-14.15
-15.19
-15.68
-15.50
-14.63
-13.15
-11.20
-8.92
-6.41
-3.74
-1.05
1.49
3.66
5.27
6.28
6.76
6.90
6.88
6.81
6.71
6.52
6.23
5.92
5.69
5.66
5.84
6.20
6.61
6.98
7.23
7.31
7.20
6.84
6.21
5.29
4.16
2.97
1.89
1.09
0.64
0.49
0.52
0.51
0.30
-0.21
-1.03
-2.10
-3.34
-4.68
-6.12
-7.64
-9.21
-10.70
-11.96
-12.85
-13.25
-13.13
-12.48
-11.32
-9.64
-7.49
-4.99
-2.30
0.36
2.78
4.81
6.33
7.31
7.72
7.64
7.18
6.56
6.01
5.72
5.73
5.94
6.20
6.35
6.37
6.33
6.33
6.42
6.57
6.65
6.52
6.14
5.54
4.83
4.13
3.46
2.79
2.04
1.15
0.12
-0.94
-1.92
-2.73
-3.38
-3.98
-4.65
-5.48
-6.49
-7.61
-8.76
-9.90
-11.01
-12.10
-13.11
-13.89
-14.22
-13.87
-12.71
-10.77
-8.22
-5.35
-2.44
0.23
2.50
4.26
5.49
6.22
6.55
6.60
6.47
6.25
6.00
5.76
5.59
5.58
5.80
6.23
6.80
7.33
7.63
7.59
7.23
6.65
6.03
5.49
5.05
4.64
4.15
3.50
2.68
1.74
0.74
-0.26
-1.26
-2.25
-3.24
-4.20
-5.07
-5.84
-6.56
-7.34
-8.35
-9.62
-11.09
-12.48
-13.48
-13.79
-13.25
-11.85
-9.75
-7.13
-4.27
-1.39
1.27
3.48
5.11
6.16
6.73
6.98
7.07
7.03
6.83
6.46
5.93
5.39
4.99
4.84
4.96
5.24
5.54
5.74
5.78
5.63
5.32
4.86
4.27
3.61
2.97
2.41
1.94
1.49
0.98
0.34
-0.44
-1.30
-2.16
-2.96
-3.68
-4.33
-4.94
-5.57
-6.27
-7.12
-8.16
-9.43
-10.89
-12.43
-13.91
-15.10
-15.74
-15.61
-14.54
-12.52
-9.71
-6.46
-3.20
-0.28
2.07
3.82
5.07
5.97
6.61
7.03
7.23
7.20
7.02
6.80
6.70
6.76
6.97
7.24
7.47
7.60
7.67
7.72
7.79
7.84
7.76
7.45
6.86
6.05
5.12
4.23
3.45
2.82
2.29
1.79
1.25
0.56
-0.28
-1.25
-2.27
-3.22
-4.02
-4.66
-5.23
-5.86
-6.71
-7.82
-9.11
-10.45
-11.57
-12.25
-12.28
-11.56
-10.07
-7.90
-5.24
-2.32
0.62
3.36
5.69
7.46
8.58
9.07
9.08
8.84
8.59
8.45
8.43
8.43
8.32
8.04
7.63
7.18
6.86
6.74
6.87
7.18
7.54
7.78
7.76
7.37
6.67
5.77
4.87
4.13
3.57
3.10
2.53
1.74
0.69
-0.47
-1.55
-2.37
-2.89
-3.19
-3.47
-3.91
-4.65
-5.73
-7.02
-8.34
-9.49
-10.27
-10.53
-10.24
-9.38
-8.06
-6.37
-4.41
-2.32
-0.26
1.58
3.05
4.04
4.56
4.72
4.68
4.58
4.50
4.46
4.41
4.33
4.19
4.03
3.87
3.77
3.76
3.88
4.09
4.30
4.36
4.14
3.55
2.65
1.56
0.46
-0.53
-1.35
-1.99
-2.50
-2.94
-3.38
-3.90
-4.60
-5.57
-6.83
-8.31
-9.84
-11.24
-12.30
-12.93
-13.07
-12.72
-11.92
-10.68
-9.01
-6.96
-4.63
-2.14
0.32
2.57
4.49
6.06
7.33
8.43
9.49
10.59
11.77
12.99
14.16
15.18
15.95
16.39
16.44
16.12
15.49
14.66
13.76
12.86
11.95
10.96
9.81
8.45
6.92
5.25
3.47
1.59
-0.45
-2.71
-5.25
-8.06
-11.12
-14.34
-17.56
-20.58
-23.18
-25.15
-26.32
-26.62
-26.06
-24.74
-22.88
-20.74
-18.59
-16.64
-15.03
-13.78
-12.86
-12.19
-11.68
-11.26
-10.84
-10.36
-9.74
-8.95
-8.03
-7.08
-6.22
-5.57
-5.21
-5.20
-5.53
-6.19
-7.12
-8.24
-9.53
-10.97
-12.61
-14.53
-16.76
-19.28
-21.97
-24.64
-27.04
-28.91
-30.07
-30.40
-29.90
-28.61
-26.56
-23.76
-20.19
-15.83
-10.74
-5.13
0.69
6.36
11.56
16.11
19.97
23.24
26.00
28.32
30.20
31.61
32.54
32.98
32.97
32.56
31.82
30.81
29.63
28.36
27.09
25.82
24.50
23.05
21.33
19.29
16.95
14.39
11.78
9.30
7.10
5.28
3.85
2.74
1.85
1.07
0.28
-0.55
-1.42
-2.28
-3.08
-3.75
-4.31
-4.79
-5.31
-6.00
-6.98
-8.27
-9.81
-11.40
-12.75
-13.55
-13.49
-12.42
-10.33
-7.42
-4.03
-0.63
2.35
4.61
6.07
6.90
7.45
8.08
9.03
10.30
11.63
12.68
13.13
12.91
12.13
11.09
10.11
9.41
9.13
9.30
9.83
10.57
11.28
11.65
11.43
10.45
8.75
6.51
4.00
1.46
-0.95
-3.18
-5.18
-6.97
-8.51
-9.81
-10.94
-12.02
-13.24
-14.75
-16.70
-19.10
-21.85
-24.66
-27.13
-28.75
-29.12
-27.99
-25.44
-21.76
-17.44
-12.98
-8.78
-5.12
-2.09
0.30
2.04
3.12
3.54
3.28
2.44
1.19
-0.20
-1.49
-2.48
-3.05
-3.13
-2.67
-1.64
-0.04
2.02
4.25
6.35
8.02
9.16
9.82
10.17
10.37
10.45
10.43
10.33
10.28
10.45
11.03
12.04
13.33
14.65
15.73
16.44
16.82
16.94
16.90
16.68
16.15
15.20
13.73
11.84
9.75
7.78
6.29
5.53
5.57
6.32
7.53
8.88
10.13
11.09
11.72
12.08
12.25
12.28
12.20
12.08
11.99
12.06
12.41
13.09
14.01
15.01
15.88
16.44
16.62
16.37
15.71
14.60
12.96
10.74
7.97
4.85
1.66
-1.20
-3.42
-4.79
-5.30
-5.12
-4.56
-3.99
-3.77
-4.17
-5.32
-7.23
-9.76
-12.65
-15.55
-18.08
-19.85
-20.59
-20.19
-18.73
-16.47
-13.75
-10.86
-7.92
-4.94
-1.86
1.31
4.36
7.02
8.99
10.18
10.76
11.08
11.57
12.51
14.01
16.02
18.37
20.88
23.30
25.34
26.72
27.25
26.94
26.00
24.69
23.20
21.56
19.66
17.35
14.61
11.53
8.23
4.72
0.93
-3.26
-7.93
-12.98
-18.29
-23.67
-29.04
-34.27
-39.12
-43.20
-46.02
-47.19
-46.62
-44.52
-41.36
-37.65
-33.80
-29.99
-26.37
-23.03
-20.17
-18.00
-16.67
-16.14
-16.18
-16.44
-16.54
-16.25
-15.57
-14.74
-14.15
-14.21
-15.21
-17.16
-19.79
-22.65
-25.23
-27.15
-28.21
-28.44
-27.94
-26.81
-25.14
-22.97
-20.37
-17.47
-14.43
-11.35
-8.30
-5.27
-2.29
0.51
2.94
4.75
5.77
6.01
5.66
5.08
4.71
4.95
6.13
8.41
11.76
15.98
20.56
24.84
27.98
29.28
28.34
25.32
20.97
16.53
13.32
12.30
13.76
17.12
21.26
24.86
26.96
27.24
26.01
23.99
21.88
20.09
18.64
17.29
15.68
13.56
10.91
8.10
5.88
5.29
7.37
12.70
21.06
31.33
41.69
50.19
55.36
56.66
54.48
49.84
43.87
37.35
30.54
23.33
15.54
7.21
-1.24
-9.09
-15.60
-20.20
-22.70
-23.19
-22.02
-19.57
-16.27
-12.52
-8.71
-5.28
-2.53
-0.63
0.47
1.01
1.32
1.65
2.12
2.65
3.02
3.03
2.56
1.69
0.67
-0.20
-0.67
-0.64
-0.22
0.26
0.40
-0.17
-1.64
-3.94
-6.77
-9.76
-12.60
-15.15
-17.46
-19.63
-21.70
-23.51
-24.79
-25.24
-24.64
-22.98
-20.47
-17.45
-14.29
-11.32
-8.77
-6.73
-5.23
-4.22
-3.60
-3.23
-2.96
-2.66
-2.27
-1.79
-1.28
-0.85
-0.58
-0.48
-0.54
-0.70
-0.88
-0.99
-0.95
-0.70
-0.26
0.27
0.72
0.88
0.62
-0.02
-0.87
-1.70
-2.29
-2.62
-2.83
-3.22
-4.12
-5.73
-8.09
-11.01
-14.17
-17.11
-19.37
-20.56
-20.45
-18.98
-16.30
-12.70
-8.57
-4.32
-0.31
3.15
5.89
7.84
9.03
9.61
9.72
9.47
8.96
8.23
7.30
6.21
5.01
3.74
2.42
1.12
-0.11
-1.16
-1.96
-2.53
-3.03
-3.68
-4.70
-6.20
-8.09
-10.14
-12.07
-13.67
-14.90
-15.80
-16.44
-16.85
-16.99
-16.88
-16.61
-16.37
-16.31
-16.47
-16.63
-16.40
-15.37
-13.25
-10.10
-6.20
-2.03
1.97
5.48
8.35
10.53
12.04
12.89
13.11
12.75
11.98
11.03
10.17
9.54
9.19
8.95
8.64
8.09
7.29
6.37
5.52
4.85
4.32
3.77
3.02
1.99
0.70
-0.70
-2.07
-3.31
-4.38
-5.32
-6.15
-6.94
-7.77
-8.76
-10.02
-11.60
-13.36
-14.97
-16.02
-16.11
-15.00
-12.68
-9.36
-5.45
-1.36
2.57
6.05
8.96
11.21
12.80
13.75
14.13
14.05
13.66
13.16
12.70
12.39
12.23
12.11
11.93
11.56
11.00
10.27
9.47
8.67
7.90
7.12
6.28
5.32
4.22
2.97
1.57
0.08
-1.47
-3.00
-4.47
-5.84
-7.10
-8.31
-9.59
-11.06
-12.83
-14.89
-17.06
-19.01
-20.31
-20.59
-19.62
-17.42
-14.20
-10.32
-6.13
-1.97
1.94
5.42
8.33
10.58
12.10
12.89
13.06
12.77
12.27
11.77
11.45
11.35
11.44
11.56
11.60
11.43
11.08
10.60
10.10
9.64
9.21
8.76
8.21
7.53
6.74
5.89
4.99
3.99
2.80
1.37
-0.26
-1.95
-3.57
-5.03
-6.42
-7.90
-9.67
-11.80
-14.18
-16.50
-18.38
-19.46
-19.50
-18.43
-16.31
-13.34
-9.75
-5.84
-1.92
1.72
4.86
7.34
9.11
10.21
10.77
10.92
10.86
10.73
10.65
10.69
10.84
11.09
11.37
11.58
11.68
11.62
11.39
11.01
10.48
9.78
8.89
7.78
6.43
4.87
3.17
1.41
-0.33
-2.00
-3.55
-4.96
-6.26
-7.50
-8.77
-10.22
-11.97
-14.08
-16.45
-18.80
-20.76
-21.91
-21.93
-20.68
-18.23
-14.82
-10.81
-6.57
-2.44
1.34
4.64
7.35
9.42
10.83
11.59
11.75
11.42
10.78
10.00
9.27
8.72
8.38
8.23
8.19
8.16
8.05
7.83
7.52
7.16
6.79
6.41
5.99
5.45
4.76
3.89
2.87
1.72
0.47
-0.85
-2.22
-3.61
-4.96
-6.23
-7.43
-8.66
-10.08
-11.85
-13.96
-16.22
-18.16
-19.26
-19.08
-17.44
-14.50
-10.69
-6.55
-2.54
1.03
4.04
6.48
8.36
9.71
10.57
11.00
11.12
11.04
10.84
10.55
10.16
9.67
9.11
8.54
8.03
7.61
7.24
6.84
6.34
5.74
5.08
4.47
3.96
3.55
3.14
2.63
1.91
0.96
-0.20
-1.46
-2.74
-3.95
-5.05
-6.04
-6.96
-7.91
-9.02
-10.41
-12.11
-13.97
-15.69
-16.84
-17.00
-15.88
-13.49
-10.05
-6.00
-1.82
2.09
5.48
8.23
10.34
11.84
12.76
13.14
13.04
12.57
11.88
11.14
10.50
10.03
9.75
9.63
9.64
9.74
9.86
9.91
9.84
9.61
9.22
8.70
8.11
7.43
6.64
5.68
4.54
3.27
1.96
0.72
-0.39
-1.35
-2.23
-3.08
-3.95
-4.90
-5.98
-7.29
-8.85
-10.65
-12.51
-14.17
-15.28
-15.63
-15.13
-13.88
-12.11
-10.07
-7.96
-5.87
-3.87
-1.95
-0.22
1.25
2.34
3.05
3.46
3.74
4.09
4.60
5.27
5.97
6.52
6.83
6.88
6.76
6.60
6.47
6.39
6.25
5.97
5.45
4.71
3.83
2.96
2.26
1.80
1.56
1.43
1.24
0.86
0.22
-0.69
-1.88
-3.40
-5.32
-7.68
-10.39
-13.19
-15.67
-17.37
-17.91
-17.13
-15.14
-12.26
-8.94
-5.62
-2.60
-0.05
2.02
3.64
4.87
5.77
6.37
6.73
6.92
7.00
7.06
7.11
7.13
7.07
6.86
6.47
5.87
5.12
4.31
3.58
3.04
2.75
2.71
2.81
2.87
2.73
2.30
1.51
0.41
-0.94
-2.44
-3.97
-5.41
-6.69
-7.79
-8.83
-10.00
-11.45
-13.20
-15.09
-16.79
-17.93
-18.19
-17.42
-15.61
-12.92
-9.55
-5.75
-1.80
1.98
5.27
7.81
9.47
10.30
10.50
10.32
10.04
9.79
9.62
9.47
9.26
8.94
8.53
8.13
7.82
7.60
7.43
7.21
6.85
6.34
5.69
4.99
4.28
3.56
2.80
1.97
1.05
0.09
-0.89
-1.87
-2.88
-4.02
-5.37
-7.04
-9.03
-11.27
-13.56
-15.60
-17.06
-17.67
-17.29
-15.93
-13.71
-10.86
-7.61
-4.22
-0.93
2.09
4.71
6.87
8.57
9.78
10.49
10.67
10.37
9.73
8.97
8.33
7.93
7.77
7.72
7.63
7.39
6.97
6.42
5.79
5.13
4.45
3.78
3.13
2.47
1.77
0.96
-0.01
-1.13
-2.29
-3.36
-4.23
-4.88
-5.43
-6.06
-6.96
-8.24
-9.89
-11.82
-13.82
-15.62
-16.90
-17.34
-16.71
-14.91
-12.06
-8.48
-4.61
-0.92
2.24
4.69
6.41
7.49
8.02
8.10
7.82
7.29
6.69
6.19
5.93
5.95
6.19
6.54
6.88
7.13
7.27
7.28
7.18
6.95
6.64
6.26
5.83
5.35
4.81
4.16
3.37
2.45
1.42
0.33
-0.79
-1.94
-3.16
-4.50
-6.02
-7.72
-9.61
-11.59
-13.50
-15.09
-16.08
-16.23
-15.34
-13.37
-10.45
-6.87
-3.02
0.67
3.86
6.37
8.13
9.24
9.79
9.89
9.64
9.13
8.51
7.90
7.42
7.11
6.93
6.80
6.70
6.61
6.57
6.59
6.59
6.47
6.10
5.44
4.55
3.54
2.54
1.60
0.67
-0.36
-1.55
-2.88
-4.24
-5.45
-6.39
-7.03
-7.51
-8.00
-8.71
-9.76
-11.12
-12.60
-13.89
-14.63
-14.52
-13.39
-11.27
-8.40
-5.12
-1.76
1.41
4.25
6.69
8.66
10.11
10.96
11.17
10.78
9.93
8.81
7.67
6.76
6.27
6.34
6.95
7.92
8.94
9.67
9.86
9.43
8.51
7.37
6.22
5.19
4.23
3.24
2.12
0.86
-0.47
-1.78
-3.03
-4.25
-5.50
-6.81
-8.12
-9.39
-10.57
-11.76
-13.11
-14.74
-16.61
-18.43
-19.74
-20.04
-19.00
-16.62
-13.19
-9.25
-5.28
-1.67
1.44
4.05
6.24
8.05
9.45
10.39
10.86
10.91
10.65
10.22
9.73
9.27
8.85
8.55
8.41
8.47
8.77
9.24
9.76
10.12
10.16
9.76
8.92
7.78
6.54
5.37
4.36
3.47
2.59
1.59
0.44
-0.85
-2.21
-3.61
-5.06
-6.61
-8.32
-10.23
-12.37
-14.71
-17.14
-19.47
-21.41
-22.61
-22.76
-21.67
-19.38
-16.10
-12.20
-8.11
-4.20
-0.74
2.12
4.33
5.90
6.92
7.49
7.78
7.92
8.04
8.20
8.41
8.67
8.95
9.26
9.62
10.01
10.36
10.54
10.41
9.91
9.09
8.10
7.11
6.20
5.39
4.55
3.57
2.37
0.95
-0.63
-2.30
-3.96
-5.52
-6.90
-8.02
-8.86
-9.45
-9.93
-10.48
-11.27
-12.36
-13.68
-14.98
-15.92
-16.16
-15.47
-13.77
-11.16
-7.86
-4.15
-0.31
3.43
6.83
9.71
11.89
13.28
13.90
13.88
13.39
12.61
11.68
10.69
9.72
8.85
8.19
7.83
7.77
7.92
8.13
8.23
8.09
7.68
7.07
6.39
5.73
5.18
4.71
4.25
3.68
2.93
1.98
0.89
-0.24
-1.31
-2.26
-3.09
-3.86
-4.66
-5.62
-6.80
-8.26
-9.96
-11.79
-13.50
-14.78
-15.33
-14.93
-13.55
-11.33
-8.57
-5.55
-2.56
0.24
2.73
4.83
6.50
7.67
8.35
8.57
8.42
8.01
7.49
6.96
6.52
6.21
6.05
5.97
5.92
5.85
5.73
5.58
5.41
5.26
5.11
4.97
4.80
4.54
4.14
3.56
2.78
1.85
0.82
-0.25
-1.32
-2.40
-3.52
-4.72
-6.01
-7.40
-8.89
-10.44
-12.03
-13.57
-14.89
-15.80
-16.09
-15.63
-14.40
-12.48
-9.98
-7.09
-3.93
-0.63
2.61
5.59
8.00
9.61
10.28
10.09
9.30
8.26
7.31
6.68
6.42
6.44
6.61
6.82
6.99
7.09
7.06
6.86
6.40
5.67
4.71
3.63
2.55
1.57
0.71
-0.10
-0.94
-1.89
-2.97
-4.17
-5.44
-6.73
-8.01
-9.21
-10.36
-11.48
-12.71
-14.15
-15.85
-17.69
-19.34
-20.38
-20.39
-19.13
-16.64
-13.18
-9.15
-5.01
-1.13
2.22
4.85
6.72
7.89
8.54
8.92
9.28
9.74
10.31
10.82
11.10
11.01
10.57
9.90
9.27
8.88
8.83
9.07
9.42
9.68
9.66
9.31
8.65
7.79
6.81
5.79
4.73
3.60
2.42
1.21
0.05
-1.00
-1.89
-2.70
-3.53
-4.51
-5.73
-7.30
-9.24
-11.52
-14.00
-16.39
-18.33
-19.41
-19.33
-17.96
-15.38
-11.88
-7.87
-3.79
-0.07
2.98
5.20
6.61
7.38
7.76
7.97
8.13
8.24
8.23
8.10
7.88
7.65
7.51
7.45
7.46
7.54
7.72
8.10
8.72
9.51
10.26
10.68
10.57
9.90
8.82
7.60
6.49
5.58
4.84
4.10
3.21
2.06
0.64
-1.00
-2.75
-4.52
-6.21
-7.82
-9.39
-11.00
-12.77
-14.72
-16.74
-18.56
-19.85
-20.25
-19.54
-17.68
-14.82
-11.29
-7.44
-3.62
-0.09
3.02
5.65
7.80
9.47
10.67
11.38
11.65
11.60
11.33
10.99
10.62
10.24
9.78
9.20
8.52
7.84
7.27
6.89
6.71
6.62
6.49
6.20
5.72
5.11
4.49
3.92
3.42
2.92
2.29
1.44
0.40
-0.75
-1.90
-2.99
-4.03
-5.05
-6.08
-7.13
-8.20
-9.29
-10.47
-11.81
-13.32
-14.85
-16.14
-16.86
-16.74
-15.65
-13.66
-10.98
-7.88
-4.60
-1.32
1.80
4.61
6.96
8.72
9.83
10.35
10.40
10.15
9.76
9.29
8.78
8.26
7.80
7.49
7.44
7.64
8.00
8.35
8.51
8.41
8.05
7.52
6.90
6.23
5.51
4.71
3.80
2.76
1.65
0.52
-0.59
-1.62
-2.55
-3.34
-4.04
-4.69
-5.38
-6.22
-7.28
-8.65
-10.32
-12.27
-14.32
-16.18
-17.48
-17.85
-17.05
-15.09
-12.20
-8.83
-5.42
-2.31
0.36
2.60
4.49
6.10
7.39
8.32
8.86
9.05
8.97
8.73
8.37
7.89
7.28
6.58
5.87
5.27
4.88
4.73
4.72
4.72
4.60
4.30
3.86
3.35
2.85
2.37
1.83
1.14
0.24
-0.82
-1.93
-2.94
-3.75
-4.39
-4.97
-5.63
-6.46
-7.50
-8.76
-10.23
-11.91
-13.75
-15.57
-17.05
-17.83
-17.64
-16.34
-14.07
-11.09
-7.73
-4.26
-0.91
2.16
4.79
6.85
8.21
8.85
8.89
8.54
8.10
7.81
7.82
8.11
8.54
8.93
9.17
9.23
9.16
9.06
9.03
9.07
9.13
9.11
8.92
8.49
7.84
7.00
6.03
4.95
3.76
2.43
0.94
-0.68
-2.37
-4.03
-5.59
-7.01
-8.30
-9.52
-10.75
-12.04
-13.40
-14.79
-16.09
-17.13
-17.71
-17.61
-16.66
-14.76
-12.00
-8.61
-4.95
-1.43
1.64
4.10
5.93
7.26
8.18
8.78
9.06
9.04
8.74
8.26
7.73
7.30
7.09
7.10
7.28
7.51
7.68
7.69
7.54
7.29
7.00
6.72
6.43
6.07
5.54
4.83
3.95
2.98
1.98
0.97
-0.05
-1.14
-2.31
-3.59
-4.96
-6.43
-7.98
-9.63
-11.35
-13.05
-14.57
-15.67
-16.11
-15.71
-14.38
-12.22
-9.43
-6.33
-3.24
-0.42
1.98
3.92
5.42
6.50
7.13
7.29
7.02
6.41
5.67
5.03
4.68
4.65
4.87
5.16
5.40
5.54
5.61
5.65
5.69
5.69
5.57
5.30
4.89
4.38
3.79
3.13
2.34
1.40
0.29
-0.97
-2.32
-3.72
-5.13
-6.56
-8.02
-9.54
-11.13
-12.77
-14.34
-15.59
-16.21
-15.93
-14.60
-12.31
-9.37
-6.16
-3.04
-0.24
2.17
4.23
5.98
7.41
8.47
9.06
9.21
9.00
8.57
8.08
7.65
7.32
7.09
6.89
6.65
6.34
5.95
5.54
5.16
4.87
4.71
4.65
4.62
4.52
4.22
3.64
2.74
1.59
0.26
-1.11
-2.42
-3.61
-4.69
-5.74
-6.90
-8.25
-9.86
-11.66
-13.48
-15.06
-16.15
-16.51
-15.98
-14.54
-12.29
-9.45
-6.26
-3.01
0.08
2.85
5.19
7.07
8.50
9.53
10.24
10.72
11.04
11.24
11.35
11.36
11.32
11.25
11.22
11.24
11.27
11.26
11.11
10.77
10.26
9.64
8.96
8.25
7.46
6.51
5.39
4.14
2.88
1.74
0.76
-0.08
-0.92
-1.89
-3.09
-4.53
-6.19
-7.98
-9.79
-11.50
-12.91
-13.84
-14.10
-13.61
-12.37
-10.53
-8.26
-5.79
-3.26
-0.81
1.44
3.38
4.90
5.95
6.51
6.66
6.52
6.24
5.94
5.69
5.51
5.37
5.22
5.03
4.78
4.48
4.15
3.80
3.45
3.10
2.70
2.20
1.56
0.77
-0.13
-1.03
-1.88
-2.65
-3.42
-4.25
-5.22
-6.34
-7.60
-8.95
-10.33
-11.66
-12.78
-13.44
-13.39
-12.46
-10.68
-8.30
-5.74
-3.38
-1.50
-0.11
0.88
1.66
2.32
2.86
3.24
3.41
3.43
3.44
3.54
3.77
4.07
4.31
4.43
4.44
4.41
4.42
4.46
4.46
4.31
3.92
3.28
2.43
1.47
0.48
-0.53
-1.53
-2.53
-3.55
-4.66
-5.91
-7.35
-8.98
-10.68
-12.24
-13.38
-13.81
-13.36
-11.98
-9.75
-6.84
-3.52
-0.10
3.09
5.79
7.82
9.09
9.67
9.72
9.40
8.90
8.34
7.78
7.26
6.75
6.25
5.75
5.32
5.03
4.93
4.99
5.09
5.08
4.83
4.28
3.51
2.62
1.68
0.72
-0.27
-1.32
-2.42
-3.55
-4.70
-5.91
-7.29
-8.93
-10.80
-12.75
-14.45
-15.49
-15.54
-14.40
-12.15
-9.07
-5.54
-1.96
1.38
4.34
6.87
8.94
10.54
11.63
12.21
12.34
12.18
11.85
11.47
11.08
10.66
10.16
9.55
8.86
8.16
7.51
6.97
6.54
6.19
5.80
5.23
4.36
3.11
1.52
-0.27
-2.07
-3.75
-5.27
-6.71
-8.22
-9.95
-11.97
-14.21
-16.52
-18.60
-20.14
-20.78
-20.28
-18.51
-15.60
-11.86
-7.74
-3.69
-0.07
2.98
5.43
7.37
8.84
9.87
10.45
10.62
10.44
10.07
9.60
9.13
8.67
8.23
7.84
7.50
7.23
6.98
6.66
6.19
5.48
4.53
3.37
2.07
0.65
-0.87
-2.47
-4.10
-5.73
-7.34
-8.97
-10.71
-12.66
-14.81
-17.04
-19.05
-20.49
-21.05
-20.56
-19.00
-16.48
-13.20
-9.37
-5.22
-1.03
2.92
6.37
9.09
10.99
12.10
12.57
12.62
12.48
12.30
12.15
12.02
11.84
11.54
11.05
10.38
9.62
8.90
8.36
8.04
7.90
7.76
7.45
6.81
5.79
4.42
2.82
1.09
-0.66
-2.40
-4.09
-5.71
-7.24
-8.70
-10.15
-11.69
-13.39
-15.16
-16.78
-17.86
-18.02
-16.99
-14.74
-11.50
-7.61
-3.48
0.58
4.35
7.68
10.47
12.64
14.16
15.08
15.53
15.69
15.71
15.65
15.47
15.10
14.53
13.83
13.17
12.69
12.48
12.51
12.65
12.75
12.68
12.37
11.80
10.97
9.90
8.67
7.39
6.22
5.25
4.50
3.85
3.12
2.18
1.01
-0.33
-1.73
-3.09
-4.42
-5.76
-7.17
-8.62
-10.06
-11.39
-12.52
-13.50
-14.39
-15.34
-16.44
-17.74
-19.20
-20.69
-22.00
-22.87
-23.04
-22.27
-20.43
-17.54
-13.75
-9.35
-4.71
-0.16
4.00
7.56
10.40
12.46
13.77
14.43
14.62
14.53
14.34
14.14
13.95
13.70
13.30
12.75
12.05
11.29
10.57
9.95
9.45
9.08
8.81
8.56
8.21
7.64
6.75
5.57
4.21
2.85
1.69
0.85
0.34
0.07
-0.11
-0.32
-0.62
-0.98
-1.40
-1.92
-2.59
-3.47
-4.55
-5.73
-6.87
-7.86
-8.68
-9.47
-10.41
-11.70
-13.35
-15.23
-17.07
-18.52
-19.29
-19.15
-18.02
-15.88
-12.87
-9.25
-5.38
-1.65
1.60
4.23
6.24
7.77
9.00
9.96
10.61
10.85
10.60
9.95
9.09
8.24
7.52
7.00
6.63
6.36
6.19
6.12
6.15
6.28
6.44
6.53
6.48
6.23
5.76
5.08
4.26
3.43
2.70
2.13
1.68
1.22
0.57
-0.37
-1.60
-3.03
-4.50
-5.87
-7.08
-8.11
-9.03
-9.94
-10.98
-12.25
-13.86
-15.78
-17.84
-19.71
-20.96
-21.15
-19.97
-17.35
-13.49
-8.84
-3.92
0.73
4.72
7.83
10.02
11.35
11.94
11.94
11.52
10.86
10.15
9.56
9.14
8.89
8.69
8.44
8.13
7.85
7.73
7.93
8.45
9.18
9.89
10.38
10.53
10.35
9.89
9.22
8.33
7.20
5.82
4.25
2.62
1.04
-0.39
-1.70
-2.96
-4.25
-5.57
-6.89
-8.15
-9.29
-10.34
-11.33
-12.29
-13.25
-14.27
-15.42
-16.81
-18.48
-20.32
-22.02
-23.11
-23.14
-21.86
-19.33
-15.84
-11.85
-7.74
-3.78
-0.11
3.20
6.09
8.44
10.17
11.24
11.68
11.60
11.14
10.48
9.81
9.30
9.04
9.04
9.20
9.34
9.38
9.31
9.19
9.11
9.07
8.98
8.72
8.18
7.42
6.55
5.71
5.00
4.39
3.76
3.00
2.02
0.82
-0.54
-1.93
-3.27
-4.45
-5.45
-6.27
-6.97
-7.65
-8.44
-9.47
-10.82
-12.50
-14.43
-16.37
-17.99
-18.89
-18.74
-17.39
-14.88
-11.51
-7.67
-3.76
-0.12
3.02
5.55
7.42
8.66
9.35
9.62
9.66
9.63
9.63
9.69
9.75
9.73
9.58
9.31
8.97
8.67
8.50
8.47
8.53
8.56
8.40
7.93
7.14
6.07
4.87
3.67
2.57
1.57
0.59
-0.49
-1.73
-3.13
-4.62
-6.08
-7.43
-8.62
-9.63
-10.49
-11.29
-12.12
-13.12
-14.34
-15.72
-17.06
-18.01
-18.21
-17.44
-15.70
-13.14
-10.05
-6.70
-3.28
0.07
3.19
5.90
8.00
9.33
9.88
9.83
9.44
9.00
8.67
8.50
8.43
8.41
8.41
8.47
8.64
8.92
9.22
9.38
9.28
8.85
8.17
7.33
6.41
5.43
4.35
3.19
2.02
0.96
0.10
-0.57
-1.23
-2.10
-3.34
-4.97
-6.79
-8.59
-10.17
-11.51
-12.71
-13.92
-15.25
-16.69
-18.13
-19.43
-20.39
-20.84
-20.63
-19.65
-17.83
-15.21
-11.90
-8.14
-4.23
-0.48
2.86
5.63
7.79
9.37
10.45
11.14
11.50
11.63
11.56
11.34
11.01
10.58
10.10
9.65
9.33
9.25
9.48
9.99
10.64
11.28
11.71
11.82
11.55
10.97
10.14
9.15
8.04
6.82
5.47
4.02
2.54
1.11
-0.20
-1.38
-2.48
-3.56
-4.67
-5.79
-6.87
-7.90
-8.89
-9.91
-11.04
-12.35
-13.81
-15.31
-16.64
-17.60
-17.95
-17.54
-16.34
-14.38
-11.82
-8.89
-5.82
-2.80
0.02
2.56
4.75
6.54
7.88
8.74
9.14
9.17
8.98
8.71
8.49
8.37
8.36
8.43
8.55
8.70
8.86
9.01
9.12
9.16
9.09
8.92
8.62
8.22
7.73
7.10
6.29
5.27
4.02
2.59
1.04
-0.52
-2.00
-3.36
-4.58
-5.65
-6.59
-7.42
-8.19
-8.97
-9.88
-11.01
-12.43
-14.14
-15.99
-17.77
-19.18
-19.93
-19.78
-18.59
-16.37
-13.26
-9.54
-5.54
-1.58
2.08
5.28
7.93
9.98
11.43
12.26
12.51
12.24
11.61
10.84
10.16
9.72
9.57
9.65
9.82
9.95
9.96
9.85
9.65
9.42
9.18
8.92
8.59
8.18
7.69
7.14
6.54
5.90
5.19
4.39
3.45
2.34
1.07
-0.36
-1.90
-3.47
-4.94
-6.22
-7.24
-8.04
-8.71
-9.35
-10.07
-10.97
-12.14
-13.64
-15.46
-17.44
-19.24
-20.40
-20.51
-19.30
-16.77
-13.15
-8.85
-4.32
0.09
4.06
7.44
10.13
12.09
13.32
13.90
13.96
13.72
13.42
13.29
13.43
13.75
14.09
14.27
14.24
14.11
14.08
14.31
14.86
15.60
16.35
16.94
17.29
17.40
17.35
17.23
17.13
17.15
17.34
17.66
18.03
18.32
18.46
18.49
18.54
18.78
19.29
20.02
20.79
21.40
21.71
21.67
21.33
20.81
20.22
19.67
19.24
18.88
18.48
17.75
16.40
14.16
10.87
6.58
1.48
-4.07
-9.63
-14.67
-18.68
-21.43
-23.11
-24.35
-25.96
-28.55
-32.22
-36.57
-41.08
-45.53
-50.13
-55.36
-61.47
-67.99
-73.73
-77.13
-76.95
-72.78
-65.11
-54.98
-43.42
-31.01
-17.87
-3.88
10.89
25.91
40.20
52.52
61.98
68.41
72.50
75.46
78.31
81.34
83.94
84.93
83.31
78.85
72.22
64.54
56.71
48.87
40.63
31.81
23.13
16.24
12.70
12.71
14.35
14.19
9.06
-2.12
-17.60
-33.78
-47.26
-56.78
-63.65
-70.54
-79.35
-89.81
-99.57
-105.64
-106.21
-101.52
-93.58
-84.94
-77.57
-72.26
-68.83
-66.57
-64.68
-62.54
-59.74
-56.22
-52.21
-48.13
-44.36
-41.04
-37.93
-34.63
-30.77
-26.18
-20.86
-14.76
-7.65
0.75
10.45
21.01
31.51
40.97
48.80
55.07
60.30
64.99
69.11
72.05
72.95
71.18
66.70
60.06
52.06
43.39
34.43
25.45
16.83
9.28
3.59
0.35
-0.43
0.67
2.80
5.20
7.52
9.78
12.15
14.62
16.92
18.60
19.20
18.57
16.84
14.44
11.84
9.38
7.17
5.17
3.22
1.20
-0.93
-3.06
-5.01
-6.59
-7.69
-8.33
-8.69
-8.98
-9.32
-9.69
-9.89
-9.68
-8.99
-7.97
-7.00
-6.55
-6.99
-8.53
-11.03
-13.92
-16.12
-16.20
-12.92
-5.85
4.18
15.11
24.45
30.17
31.50
29.00
24.01
17.96
11.83
6.16
1.27
-2.51
-4.84
-5.62
-5.13
-3.89
-2.38
-0.80
0.95
3.01
5.24
7.28
8.59
8.61
6.98
3.49
-1.91
-9.13
-18.07
-28.68
-41.05
-55.17
-70.75
-86.85
-101.84
-113.83
-121.36
-124.06
-123.00
-120.33
-118.45
-119.03
-122.34
-127.15
-131.32
-132.49
-128.93
-120.01
-106.18
-88.52
-68.14
-45.62
-21.06
5.58
33.78
62.00
87.75
108.20
121.23
126.44
125.36
120.94
116.36
113.84
113.94
115.72
117.39
116.69
111.11
98.03
75.66
44.69
9.89
-19.91
-34.42
-26.63
2.62
43.51
80.42
98.68
91.01
60.38
17.90
-22.82
-51.58
-64.62
-64.07
-55.07
-42.65
-30.25
-19.71
-11.96
-7.49
-6.31
-7.54
-9.42
-9.82
-6.97
-0.06
10.56
23.55
36.92
48.50
56.38
59.38
57.30
50.99
42.16
32.80
24.58
18.28
13.76
10.12
6.37
1.91
-3.13
-8.06
-12.05
-14.58
-15.77
-16.15
-16.36
-16.76
-17.23
-17.29
-16.37
-14.13
-10.56
-6.04
-1.11
3.62
7.70
10.87
13.11
14.57
15.52
16.19
16.74
17.23
17.63
17.88
17.90
17.65
17.18
16.55
15.88
15.29
14.90
14.79
14.97
15.38
15.86
16.20
16.21
15.76
14.83
13.49
11.87
10.12
8.36
6.65
5.02
3.43
1.82
0.12
-1.72
-3.69
-5.73
-7.73
-9.57
-11.20
-12.64
-13.97
-15.33
-16.82
-18.48
-20.24
-21.90
-23.18
-23.77
-23.37
-21.82
-19.15
-15.56
-11.44
-7.20
-3.19
0.35
3.32
5.69
7.45
8.63
9.29
9.59
9.74
9.96
10.39
11.00
11.64
12.12
12.38
12.47
12.54
12.74
13.08
13.43
13.66
13.66
13.46
13.17
12.92
12.74
12.56
12.24
11.67
10.82
9.74
8.53
7.31
6.11
4.91
3.68
2.41
1.12
-0.13
-1.31
-2.46
-3.66
-4.99
-6.45
-7.94
-9.36
-10.62
-11.76
-12.94
-14.33
-15.99
-17.84
-19.58
-20.81
-21.15
-20.37
-18.45
-15.57
-12.05
-8.23
-4.35
-0.59
2.95
6.13
8.80
10.78
11.99
12.50
12.57
12.48
12.46
12.57
12.73
12.82
12.80
12.74
12.75
12.88
13.10
13.34
13.49
13.55
13.52
13.42
13.20
12.76
11.99
10.89
9.56
8.18
6.94
5.92
5.12
4.46
3.83
3.15
2.40
1.54
0.60
-0.46
-1.60
-2.80
-3.98
-5.01
-5.86
-6.53
-7.14
-7.86
-8.83
-10.13
-11.77
-13.63
-15.57
-17.36
-18.74
-19.41
-19.17
-17.96
-15.92
-13.36
-10.62
-7.93
-5.36
-2.85
-0.37
2.01
4.06
5.56
6.41
6.67
6.58
6.38
6.23
6.18
6.18
6.21
6.25
6.36
6.55
6.78
7.00
7.10
7.05
6.82
6.47
6.02
5.52
4.97
4.38
3.74
3.09
2.41
1.70
0.93
0.05
-0.96
-2.10
-3.33
-4.61
-5.89
-7.09
-8.14
-8.99
-9.62
-10.12
-10.67
-11.50
-12.77
-14.47
-16.33
-17.94
-18.84
-18.74
-17.59
-15.52
-12.77
-9.60
-6.26
-2.96
0.11
2.72
4.75
6.15
7.02
7.53
7.84
8.07
8.29
8.49
8.61
8.62
8.48
8.17
7.72
7.21
6.75
6.42
6.29
6.34
6.47
6.59
6.61
6.48
6.18
5.73
5.17
4.54
3.89
3.24
2.58
1.90
1.17
0.37
-0.49
-1.36
-2.24
-3.13
-4.10
-5.19
-6.41
-7.72
-8.95
-9.98
-10.73
-11.27
-11.79
-12.51
-13.60
-15.12
-16.91
-18.70
-20.15
-20.93
-20.82
-19.75
-17.84
-15.29
-12.39
-9.38
-6.43
-3.62
-0.98
1.44
3.59
5.38
6.74
7.68
8.25
8.53
8.63
8.59
8.46
8.28
8.06
7.88
7.76
7.75
7.84
7.98
8.11
8.16
8.08
7.83
7.39
6.79
6.07
5.31
4.59
3.98
3.50
3.06
2.51
1.71
0.61
-0.70
-2.03
-3.13
-3.84
-4.20
-4.36
-4.53
-4.87
-5.38
-6.01
-6.66
-7.33
-8.12
-9.16
-10.54
-12.27
-14.18
-16.03
-17.51
-18.39
-18.52
-17.85
-16.43
-14.40
-11.91
-9.14
-6.27
-3.48
-0.96
1.15
2.78
3.93
4.70
5.20
5.52
5.71
5.79
5.76
5.67
5.55
5.41
5.23
5.00
4.73
4.50
4.43
4.54
4.80
5.05
5.08
4.79
4.22
3.48
2.72
2.01
1.32
0.59
-0.22
-1.03
-1.74
-2.29
-2.73
-3.22
-3.93
-4.93
-6.11
-7.28
-8.27
-9.02
-9.70
-10.50
-11.59
-12.95
-14.38
-15.55
-16.15
-15.99
-15.05
-13.45
-11.36
-8.99
-6.51
-4.05
-1.71
0.43
2.25
3.67
4.62
5.11
5.27
5.26
5.27
5.42
5.73
6.10
6.42
6.55
6.48
6.25
5.99
5.80
5.74
5.78
5.82
5.76
5.48
4.95
4.20
3.33
2.47
1.71
1.07
0.49
-0.15
-0.94
-1.92
-3.03
-4.20
-5.31
-6.30
-7.18
-7.98
-8.82
-9.79
-10.99
-12.45
-14.05
-15.59
-16.80
-17.40
-17.22
-16.24
-14.54
-12.28
-9.66
-6.84
-4.03
-1.41
0.85
2.64
3.93
4.81
5.36
5.71
5.94
6.07
6.16
6.22
6.30
6.38
6.45
6.47
6.39
6.24
6.04
5.87
5.80
5.87
6.07
6.33
6.47
6.31
5.72
4.71
3.41
2.03
0.79
-0.17
-0.84
-1.32
-1.75
-2.28
-2.97
-3.82
-4.81
-5.91
-7.08
-8.34
-9.69
-11.09
-12.51
-13.82
-14.87
-15.48
-15.49
-14.83
-13.49
-11.54
-9.10
-6.35
-3.44
-0.57
2.10
4.41
6.26
7.60
8.44
8.83
8.85
8.57
8.07
7.45
6.79
6.21
5.79
5.63
5.76
6.23
7.05
8.23
9.68
11.29
12.85
14.11
14.85
14.96
14.43
13.38
12.01
10.52
9.02
7.60
6.25
5.00
3.90
3.05
2.52
2.26
2.10
1.74
0.87
-0.68
-2.86
-5.41
-7.98
-10.26
-12.08
-13.40
-14.27
-14.72
-14.73
-14.25
-13.23
-11.67
-9.69
-7.45
-5.13
-2.85
-0.71
1.25
3.00
4.55
5.88
6.99
7.82
8.36
8.60
8.60
8.49
8.40
8.45
8.63
8.85
8.90
8.68
8.17
7.52
6.97
6.72
6.85
7.27
7.77
8.07
7.99
7.45
6.52
5.35
4.09
2.81
1.48
0.05
-1.51
-3.14
-4.73
-6.16
-7.40
-8.56
-9.81
-11.27
-12.90
-14.42
-15.44
-15.57
-14.61
-12.59
-9.79
-6.64
-3.49
-0.61
1.90
4.04
5.87
7.40
8.63
9.51
10.07
10.40
10.62
10.80
10.96
11.05
11.01
10.84
10.63
10.48
10.47
10.54
10.56
10.38
9.92
9.20
8.32
7.38
6.41
5.38
4.27
3.03
1.70
0.28
-1.19
-2.70
-4.19
-5.62
-6.89
-7.99
-8.98
-10.01
-11.28
-12.91
-14.86
-16.91
-18.69
-19.87
-20.20
-19.59
-18.12
-15.91
-13.13
-9.94
-6.50
-3.01
0.32
3.32
5.87
7.95
9.62
10.95
12.01
12.81
13.39
13.74
13.91
13.98
14.02
14.10
14.24
14.39
14.48
14.42
14.16
13.69
13.07
12.32
11.43
10.34
9.03
7.52
5.94
4.48
3.24
2.25
1.38
0.47
-0.58
-1.74
-2.89
-3.88
-4.62
-5.09
-5.36
-5.55
-5.76
-6.11
-6.72
-7.74
-9.21
-11.09
-13.15
-15.07
-16.47
-17.05
-16.63
-15.21
-12.94
-10.14
-7.18
-4.39
-1.96
0.08
1.80
3.27
4.53
5.50
6.10
6.32
6.31
6.28
6.43
6.81
7.31
7.74
7.92
7.80
7.47
7.05
6.67
6.38
6.17
6.01
5.88
5.77
5.72
5.74
5.86
6.06
6.27
6.37
6.22
5.70
4.73
3.39
1.79
0.11
-1.50
-2.99
-4.35
-5.65
-6.96
-8.36
-9.89
-11.58
-13.40
-15.25
-16.91
-18.08
-18.44
-17.77
-16.03
-13.40
-10.25
-6.98
-3.92
-1.24
1.03
2.99
4.67
6.09
7.16
7.79
7.98
7.83
7.52
7.25
7.16
7.26
7.44
7.60
7.63
7.56
7.50
7.54
7.72
7.96
8.07
7.88
7.33
6.50
5.61
4.88
4.38
4.08
3.85
3.55
3.16
2.70
2.26
1.82
1.32
0.63
-0.32
-1.55
-2.94
-4.36
-5.69
-6.86
-7.90
-8.89
-9.94
-11.17
-12.59
-14.16
-15.69
-16.89
-17.45
-17.11
-15.78
-13.55
-10.68
-7.52
-4.40
-1.55
0.90
2.89
4.39
5.40
5.94
6.09
5.99
5.77
5.52
5.29
5.08
4.93
4.91
5.05
5.36
5.74
6.03
6.14
6.09
5.99
5.99
6.12
6.31
6.37
6.18
5.73
5.16
4.64
4.25
3.94
3.56
2.99
2.23
1.36
0.54
-0.13
-0.63
-1.01
-1.36
-1.73
-2.16
-2.65
-3.21
-3.85
-4.62
-5.56
-6.68
-7.96
-9.32
-10.66
-11.88
-12.83
-13.43
-13.57
-13.15
-12.16
-10.65
-8.82
-6.97
-5.42
-4.39
-3.93
-3.93
-4.12
-4.20
-3.91
-3.13
-1.87
-0.25
1.54
3.32
4.91
6.21
7.17
7.76
8.00
7.90
7.58
7.14
6.76
6.54
6.49
6.51
6.45
6.19
5.68
5.03
4.39
3.93
3.75
3.83
4.09
4.35
4.51
4.50
4.35
4.11
3.83
3.52
3.12
2.58
1.86
0.98
0.01
-0.98
-1.93
-2.88
-3.85
-4.87
-5.94
-7.05
-8.20
-9.44
-10.81
-12.31
-13.80
-15.03
-15.72
-15.66
-14.78
-13.20
-11.12
-8.81
-6.45
-4.13
-1.93
0.10
1.92
3.47
4.72
5.68
6.35
6.72
6.80
6.59
6.14
5.57
5.02
4.62
4.43
4.42
4.52
4.66
4.80
4.90
4.96
4.95
4.88
4.76
4.58
4.35
4.04
3.63
3.11
2.49
1.82
1.12
0.43
-0.26
-0.95
-1.65
-2.34
-3.02
-3.73
-4.46
-5.19
-5.85
-6.40
-6.83
-7.25
-7.87
-8.86
-10.32
-12.14
-14.05
-15.69
-16.67
-16.75
-15.84
-14.06
-11.65
-8.94
-6.21
-3.65
-1.35
0.69
2.45
3.89
4.95
5.63
6.01
6.23
6.44
6.76
7.15
7.53
7.80
7.90
7.89
7.82
7.77
7.73
7.68
7.56
7.40
7.22
7.07
6.96
6.85
6.66
6.32
5.85
5.31
4.83
4.47
4.25
4.09
3.84
3.38
2.65
1.69
0.59
-0.52
-1.56
-2.52
-3.45
-4.42
-5.48
-6.64
-7.90
-9.26
-10.74
-12.32
-13.94
-15.41
-16.43
-16.74
-16.14
-14.60
-12.27
-9.42
-6.32
-3.24
-0.37
2.13
4.19
5.76
6.87
7.57
7.95
8.08
8.03
7.82
7.45
6.93
6.31
5.67
5.12
4.75
4.64
4.77
5.08
5.48
5.84
6.05
6.04
5.74
5.15
4.31
3.30
2.27
1.35
0.63
0.15
-0.17
-0.48
-0.91
-1.54
-2.38
-3.35
-4.33
-5.24
-6.00
-6.64
-7.25
-7.93
-8.80
-9.85
-10.98
-11.98
-12.57
-12.50
-11.61
-9.88
-7.46
-4.61
-1.65
1.14
3.55
5.46
6.83
7.62
7.87
7.66
7.13
6.51
6.00
5.74
5.75
5.94
6.18
6.37
6.50
6.56
6.60
6.61
6.60
6.51
6.33
6.05
5.68
5.20
4.64
3.99
3.23
2.33
1.25
-0.00
-1.37
-2.72
-3.92
-4.89
-5.64
-6.29
-6.96
-7.73
-8.63
-9.65
-10.78
-12.02
-13.26
-14.31
-14.89
-14.78
-13.84
-12.15
-9.93
-7.45
-4.92
-2.50
-0.28
1.67
3.29
4.55
5.47
6.12
6.59
6.91
7.06
6.98
6.67
6.24
5.88
5.75
5.94
6.38
6.94
7.46
7.85
8.12
8.32
8.47
8.52
8.40
8.04
7.46
6.75
6.03
5.36
4.74
4.13
3.47
2.74
1.93
1.05
0.06
-1.04
-2.21
-3.35
-4.33
-5.07
-5.59
-6.05
-6.64
-7.58
-8.94
-10.65
-12.47
-14.08
-15.14
-15.39
-14.70
-13.13
-10.88
-8.24
-5.48
-2.83
-0.41
1.73
3.55
5.03
6.12
6.81
7.14
7.17
7.00
6.76
6.57
6.49
6.51
6.57
6.59
6.52
6.33
6.12
5.97
5.97
6.14
6.43
6.74
7.00
7.14
7.14
6.96
6.60
6.06
5.36
4.57
3.77
3.02
2.35
1.78
1.30
0.86
0.39
-0.19
-0.97
-1.96
-3.10
-4.29
-5.41
-6.44
-7.43
-8.49
-9.69
-10.98
-12.20
-13.09
-13.37
-12.89
-11.62
-9.67
-7.30
-4.77
-2.31
-0.07
1.91
3.63
5.06
6.14
6.81
7.04
6.93
6.64
6.37
6.20
6.11
6.04
5.92
5.77
5.67
5.69
5.84
6.03
6.15
6.08
5.81
5.38
4.90
4.43
4.01
3.59
3.13
2.61
2.01
1.35
0.66
-0.07
-0.81
-1.57
-2.36
-3.17
-4.03
-4.92
-5.85
-6.84
-7.90
-9.06
-10.29
-11.51
-12.56
-13.26
-13.45
-13.07
-12.13
-10.76
-9.10
-7.31
-5.50
-3.78
-2.19
-0.76
0.47
1.52
2.36
3.01
3.48
3.81
4.04
4.22
4.41
4.62
4.86
5.14
5.44
5.75
6.00
6.15
6.14
5.96
5.66
5.30
4.91
4.50
4.02
3.47
2.88
2.27
1.66
1.04
0.33
-0.53
-1.53
-2.67
-3.90
-5.19
-6.53
-7.91
-9.30
-10.65
-11.88
-12.93
-13.71
-14.16
-14.17
-13.69
-12.65
-11.06
-9.01
-6.62
-4.03
-1.42
1.05
3.22
4.97
6.23
7.00
7.38
7.49
7.50
7.50
7.51
7.52
7.49
7.46
7.47
7.57
7.77
7.99
8.14
8.12
7.94
7.65
7.34
7.04
6.71
6.29
5.74
5.12
4.47
3.82
3.13
2.29
1.22
-0.04
-1.39
-2.65
-3.73
-4.64
-5.50
-6.43
-7.54
-8.83
-10.30
-11.87
-13.48
-14.99
-16.19
-16.80
-16.57
-15.42
-13.42
-10.84
-8.02
-5.26
-2.70
-0.39
1.72
3.66
5.38
6.80
7.84
8.48
8.80
8.93
9.04
9.23
9.52
9.91
10.33
10.75
11.19
11.63
12.07
12.49
12.82
13.01
12.99
12.72
12.19
11.44
10.55
9.58
8.56
7.43
6.13
4.63
2.92
1.10
-0.71
-2.44
-4.04
-5.52
-6.90
-8.21
-9.44
-10.62
-11.80
-13.01
-14.33
-15.76
-17.25
-18.67
-19.87
-20.69
-21.00
-20.69
-19.68
-17.97
-15.63
-12.80
-9.69
-6.57
-3.67
-1.20
0.78
2.30
3.47
4.45
5.31
6.11
6.80
7.31
7.62
7.72
7.66
7.50
7.28
7.06
6.86
6.74
6.74
6.85
7.04
7.21
7.24
7.06
6.64
6.06
5.39
4.70
4.04
3.42
2.83
2.28
1.73
1.18
0.57
-0.14
-1.02
-2.02
-3.06
-4.03
-4.84
-5.50
-6.10
-6.83
-7.86
-9.29
-11.04
-12.92
-14.62
-15.77
-16.11
-15.47
-13.90
-11.55
-8.72
-5.69
-2.71
0.02
2.36
4.20
5.49
6.25
6.60
6.71
6.78
6.93
7.19
7.45
7.58
7.50
7.21
6.84
6.54
6.45
6.61
6.98
7.46
7.90
8.16
8.10
7.65
6.81
5.71
4.51
3.43
2.61
2.08
1.78
1.56
1.26
0.78
0.09
-0.81
-1.84
-2.94
-4.03
-5.03
-5.96
-6.87
-7.88
-9.06
-10.38
-11.65
-12.58
-12.87
-12.31
-10.88
-8.75
-6.19
-3.48
-0.88
1.45
3.44
5.03
6.21
7.01
7.48
7.71
7.80
7.83
7.84
7.82
7.76
7.66
7.55
7.50
7.62
7.93
8.40
8.92
9.30
9.40
9.15
8.53
7.67
6.70
5.77
4.94
4.22
3.56
2.94
2.33
1.71
1.05
0.28
-0.70
-1.93
-3.34
-4.76
-5.97
-6.83
-7.40
-7.90
-8.65
-9.88
-11.59
-13.59
-15.53
-17.06
-17.90
-17.88
-16.96
-15.17
-12.67
-9.72
-6.64
-3.74
-1.27
0.72
2.28
3.56
4.68
5.65
6.42
6.93
7.15
7.17
7.08
7.03
7.08
7.24
7.51
7.85
8.23
8.61
8.92
9.09
9.04
8.77
8.36
7.92
7.55
7.26
6.97
6.57
5.96
5.15
4.22
3.30
2.47
1.71
0.97
0.13
-0.85
-1.94
-3.05
-4.07
-4.93
-5.67
-6.38
-7.23
-8.36
-9.86
-11.70
-13.74
-15.74
-17.38
-18.33
-18.36
-17.37
-15.45
-12.82
-9.80
-6.67
-3.67
-0.92
1.50
3.55
5.20
6.46
7.34
7.90
8.23
8.40
8.50
8.57
8.63
8.68
8.68
8.58
8.38
8.09
7.81
7.62
7.60
7.76
8.00
8.17
8.11
7.75
7.09
6.26
5.37
4.56
3.86
3.26
2.68
2.02
1.24
0.33
-0.68
-1.68
-2.60
-3.44
-4.21
-4.98
-5.78
-6.63
-7.52
-8.45
-9.45
-10.54
-11.65
-12.63
-13.24
-13.25
-12.53
-11.11
-9.13
-6.80
-4.26
-1.62
1.04
3.61
5.91
7.77
9.03
9.70
9.84
9.63
9.24
8.80
8.39
8.04
7.73
7.47
7.24
7.06
6.96
6.98
7.11
7.28
7.40
7.35
7.07
6.58
5.94
5.29
4.73
4.27
3.88
3.47
2.99
2.35
1.53
0.50
-0.72
-2.08
-3.49
-4.82
-5.94
-6.79
-7.41
-7.91
-8.48
-9.24
-10.30
-11.65
-13.24
-14.94
-16.56
-17.83
-18.49
-18.29
-17.12
-15.05
-12.34
-9.31
-6.28
-3.45
-0.93
1.27
3.16
4.72
5.90
6.69
7.09
7.22
7.22
7.24
7.41
7.76
8.22
8.68
9.00
9.11
9.03
8.84
8.63
8.46
8.35
8.25
8.15
8.04
7.91
7.75
7.52
7.16
6.63
5.92
5.05
4.08
3.05
2.04
1.08
0.22
-0.55
-1.25
-1.89
-2.50
-3.11
-3.74
-4.45
-5.33
-6.47
-7.94
-9.71
-11.67
-13.56
-15.12
-16.10
-16.37
-15.89
-14.74
-13.08
-11.04
-8.78
-6.37
-3.91
-1.50
0.75
2.69
4.22
5.30
5.98
6.36
6.54
6.61
6.60
6.49
6.30
6.09
5.96
6.03
6.37
6.92
7.54
8.01
8.12
7.83
7.21
6.47
5.82
5.40
5.20
5.08
4.86
4.40
3.66
2.71
1.68
0.70
-0.17
-0.95
-1.67
-2.40
-3.14
-3.92
-4.76
-5.75
-7.00
-8.60
-10.50
-12.50
-14.23
-15.31
-15.43
-14.51
-12.72
-10.37
-7.77
-5.17
-2.67
-0.33
1.83
3.72
5.22
6.25
6.81
7.03
7.09
7.15
7.28
7.45
7.58
7.59
7.47
7.27
7.08
6.94
6.89
6.88
6.87
6.82
6.68
6.41
5.98
5.36
4.58
3.73
2.94
2.30
1.82
1.39
0.89
0.22
-0.63
-1.58
-2.53
-3.43
-4.32
-5.30
-6.43
-7.71
-9.10
-10.54
-12.01
-13.52
-15.05
-16.49
-17.65
-18.25
-18.06
-16.98
-15.05
-12.48
-9.53
-6.49
-3.60
-1.01
1.17
2.90
4.20
5.13
5.80
6.34
6.86
7.42
7.96
8.37
8.52
8.42
8.15
7.93
7.91
8.12
8.43
8.62
8.52
8.12
7.54
6.97
6.52
6.16
5.75
5.15
4.36
3.44
2.54
1.71
0.92
0.07
-0.94
-2.08
-3.23
-4.21
-4.92
-5.37
-5.68
-6.00
-6.48
-7.20
-8.18
-9.41
-10.85
-12.37
-13.73
-14.63
-14.76
-13.91
-12.07
-9.46
-6.40
-3.26
-0.33
2.20
4.27
5.85
6.98
7.70
8.12
8.36
8.54
8.75
8.99
9.23
9.38
9.40
9.31
9.16
9.04
8.99
9.01
9.02
8.94
8.72
8.39
7.98
7.53
7.06
6.54
5.96
5.33
4.66
3.96
3.23
2.41
1.48
0.47
-0.54
-1.42
-2.10
-2.57
-2.93
-3.36
-3.98
-4.90
-6.13
-7.63
-9.35
-11.17
-12.94
-14.43
-15.41
-15.67
-15.09
-13.66
-11.50
-8.80
-5.87
-2.99
-0.43
1.64
3.20
4.35
5.21
5.89
6.41
6.79
7.02
7.15
7.25
7.38
7.52
7.61
7.58
7.43
7.21
7.00
6.89
6.86
6.82
6.69
6.38
5.88
5.26
4.59
3.96
3.41
2.89
2.36
1.74
0.98
0.09
-0.87
-1.87
-2.88
-3.90
-4.93
-5.98
-7.03
-8.08
-9.18
-10.46
-12.00
-13.77
-15.57
-17.04
-17.79
-17.53
-16.23
-14.06
-11.34
-8.39
-5.45
-2.67
-0.14
2.08
3.93
5.37
6.44
7.21
7.75
8.04
8.06
7.78
7.27
6.70
6.25
6.08
6.17
6.38
6.51
6.44
6.20
5.90
5.66
5.50
5.30
4.91
4.27
3.41
2.50
1.75
1.25
0.98
0.80
0.55
0.12
-0.54
-1.37
-2.24
-3.02
-3.62
-3.99
-4.23
-4.50
-5.01
-5.86
-7.08
-8.53
-10.06
-11.50
-12.75
-13.70
-14.24
-14.22
-13.50
-12.03
-9.90
-7.35
-4.65
-2.08
0.21
2.20
3.89
5.31
6.46
7.31
7.87
8.19
8.37
8.48
8.58
8.68
8.73
8.72
8.68
8.65
8.71
8.84
9.02
9.16
9.19
9.05
8.78
8.39
7.90
7.31
6.63
5.91
5.22
4.62
4.13
3.66
3.07
2.22
1.10
-0.22
-1.56
-2.78
-3.80
-4.62
-5.30
-5.95
-6.67
-7.55
-8.67
-10.05
-11.60
-13.10
-14.28
-14.83
-14.56
-13.43
-11.58
-9.22
-6.63
-4.03
-1.59
0.57
2.40
3.88
5.03
5.86
6.43
6.80
7.05
7.27
7.54
7.89
8.28
8.65
8.92
9.06
9.10
9.11
9.15
9.22
9.27
9.23
9.01
8.61
8.05
7.40
6.70
5.96
5.15
4.23
3.24
2.22
1.28
0.46
-0.23
-0.89
-1.64
-2.57
-3.74
-5.09
-6.54
-8.02
-9.52
-11.06
-12.66
-14.30
-15.85
-17.16
-18.02
-18.28
-17.82
-16.60
-14.69
-12.20
-9.35
-6.39
-3.53
-0.96
1.26
3.09
4.54
5.60
6.29
6.61
6.63
6.48
6.32
6.28
6.43
6.75
7.19
7.66
8.12
8.54
8.89
9.16
9.29
9.24
8.96
8.50
7.89
7.23
6.55
5.87
5.18
4.47
3.73
2.97
2.17
1.30
0.35
-0.71
-1.82
-2.90
-3.89
-4.75
-5.50
-6.20
-6.92
-7.69
-8.54
-9.52
-10.70
-12.10
-13.65
-15.13
-16.22
-16.58
-15.96
-14.36
-12.00
-9.24
-6.48
-3.95
-1.73
0.24
2.07
3.79
5.32
6.53
7.30
7.64
7.70
7.68
7.73
7.89
8.05
8.09
7.92
7.63
7.37
7.31
7.48
7.78
8.01
8.03
7.79
7.34
6.85
6.40
6.01
5.61
5.11
4.43
3.62
2.76
1.98
1.34
0.83
0.37
-0.11
-0.69
-1.39
-2.16
-2.97
-3.77
-4.55
-5.35
-6.20
-7.14
-8.23
-9.46
-10.80
-12.15
-13.36
-14.25
-14.64
-14.42
-13.53
-11.99
-9.92
-7.53
-5.03
-2.65
-0.53
1.25
2.67
3.77
4.58
5.15
5.55
5.82
6.04
6.21
6.33
6.37
6.31
6.20
6.13
6.17
6.33
6.57
6.78
6.88
6.85
6.68
6.40
6.06
5.65
5.18
4.67
4.13
3.55
2.91
2.19
1.35
0.41
-0.63
-1.71
-2.79
-3.80
-4.68
-5.39
-6.00
-6.66
-7.58
-8.92
-10.66
-12.59
-14.31
-15.47
-15.79
-15.26
-13.97
-12.11
-9.82
-7.24
-4.49
-1.80
0.60
2.47
3.71
4.37
4.64
4.75
4.85
5.03
5.25
5.44
5.56
5.59
5.55
5.50
5.50
5.61
5.84
6.17
6.51
6.78
6.90
6.84
6.58
6.16
5.58
4.87
4.08
3.25
2.47
1.78
1.18
0.60
-0.07
-0.91
-1.95
-3.10
-4.25
-5.27
-6.10
-6.75
-7.33
-7.98
-8.80
-9.84
-11.08
-12.45
-13.81
-14.98
-15.77
-15.98
-15.46
-14.13
-12.04
-9.38
-6.44
-3.51
-0.84
1.45
3.34
4.87
6.07
6.94
7.47
7.64
7.54
7.28
7.07
7.02
7.16
7.40
7.59
7.66
7.61
7.53
7.53
7.64
7.79
7.84
7.69
7.28
6.68
5.99
5.30
4.66
4.07
3.51
2.97
2.46
1.97
1.48
0.92
0.22
-0.65
-1.69
-2.79
-3.87
-4.86
-5.76
-6.63
-7.54
-8.55
-9.67
-10.85
-11.97
-12.84
-13.29
-13.11
-12.21
-10.59
-8.41
-5.90
-3.33
-0.92
1.20
2.98
4.43
5.59
6.45
7.00
7.26
7.30
7.22
7.14
7.17
7.30
7.50
7.67
7.72
7.61
7.37
7.03
6.66
6.33
6.07
5.89
5.77
5.63
5.39
4.99
4.41
3.68
2.84
1.93
0.97
-0.04
-1.09
-2.10
-3.01
-3.76
-4.37
-4.91
-5.53
-6.36
-7.47
-8.83
-10.32
-11.77
-13.00
-13.84
-14.21
-13.99
-13.14
-11.62
-9.48
-6.89
-4.17
-1.64
0.46
2.03
3.17
4.04
4.79
5.41
5.84
5.99
5.86
5.56
5.30
5.25
5.48
5.94
6.47
6.90
7.13
7.13
6.95
6.69
6.46
6.30
6.18
6.00
5.71
5.27
4.72
4.13
3.53
2.92
2.26
1.49
0.63
-0.24
-1.03
-1.69
-2.27
-2.86
-3.56
-4.38
-5.26
-6.07
-6.78
-7.42
-8.12
-9.03
-10.18
-11.53
-12.90
-14.08
-14.87
-15.08
-14.59
-13.34
-11.38
-8.88
-6.08
-3.29
-0.75
1.38
3.04
4.25
5.05
5.50
5.70
5.79
5.91
6.15
6.51
6.88
7.12
7.16
7.01
6.78
6.60
6.53
6.58
6.66
6.72
6.69
6.56
6.33
6.00
5.59
5.14
4.71
4.36
4.09
3.88
3.61
3.23
2.72
2.13
1.56
1.10
0.77
0.54
0.30
-0.07
-0.65
-1.46
-2.46
-3.55
-4.63
-5.60
-6.39
-7.04
-7.64
-8.34
-9.29
-10.54
-11.97
-13.35
-14.36
-14.73
-14.34
-13.20
-11.49
-9.41
-7.15
-4.85
-2.60
-0.53
1.26
2.65
3.62
4.24
4.64
4.96
5.27
5.59
5.84
5.98
6.00
6.01
6.10
6.36
6.76
7.19
7.48
7.54
7.36
7.00
6.58
6.18
5.85
5.56
5.24
4.85
4.37
3.79
3.17
2.51
1.86
1.23
0.56
-0.20
-1.06
-2.02
-3.00
-3.90
-4.67
-5.36
-6.08
-6.96
-8.02
-9.22
-10.41
-11.49
-12.38
-13.04
-13.42
-13.44
-12.96
-11.88
-10.23
-8.14
-5.85
-3.57
-1.46
0.42
2.05
3.42
4.50
5.24
5.63
5.74
5.64
5.46
5.29
5.21
5.25
5.39
5.62
5.89
6.17
6.42
6.62
6.71
6.66
6.44
6.08
5.60
5.09
4.59
4.14
3.72
3.27
2.72
2.03
1.21
0.35
-0.43
-0.99
-1.32
-1.50
-1.72
-2.21
-3.09
-4.38
-5.98
-7.75
-9.56
-11.35
-13.05
-14.50
-15.49
-15.76
-15.15
-13.68
-11.51
-8.95
-6.26
-3.68
-1.35
0.69
2.38
3.72
4.75
5.47
5.94
6.17
6.22
6.17
6.10
6.10
6.19
6.35
6.52
6.64
6.67
6.63
6.54
6.40
6.18
5.86
5.45
5.00
4.54
4.12
3.75
3.41
3.08
2.74
2.38
1.97
1.47
0.86
0.14
-0.68
-1.53
-2.36
-3.10
-3.75
-4.33
-4.94
-5.68
-6.68
-7.95
-9.39
-10.80
-11.96
-12.65
-12.75
-12.24
-11.12
-9.45
-7.35
-5.00
-2.66
-0.61
0.96
2.03
2.69
3.13
3.51
3.88
4.22
4.45
4.52
4.46
4.33
4.21
4.20
4.31
4.52
4.78
5.02
5.21
5.34
5.46
5.57
5.63
5.57
5.32
4.87
4.31
3.77
3.34
3.03
2.72
2.24
1.46
0.36
-0.95
-2.32
-3.63
-4.84
-6.03
-7.28
-8.62
-10.00
-11.24
-12.08
-12.32
-11.83
-10.66
-8.99
-7.05
-5.07
-3.17
-1.37
0.35
1.96
3.42
4.64
5.54
6.12
6.47
6.71
6.93
7.17
7.36
7.42
7.28
6.99
6.68
6.53
6.67
7.10
7.72
8.30
8.63
8.58
8.13
7.39
6.49
5.54
4.61
3.75
2.96
2.23
1.55
0.88
0.19
-0.54
-1.34
-2.27
-3.35
-4.65
-6.14
-7.73
-9.32
-10.79
-12.11
-13.28
-14.30
-15.11
-15.50
-15.25
-14.20
-12.40
-10.07
-7.52
-5.03
-2.76
-0.74
1.05
2.62
3.92
4.92
5.56
5.91
6.06
6.13
6.23
6.40
6.65
6.92
7.17
7.35
7.45
7.50
7.53
7.56
7.63
7.73
7.82
7.82
7.68
7.34
6.82
6.17
5.49
4.89
4.42
4.07
3.75
3.32
2.67
1.77
0.72
-0.37
-1.39
-2.29
-3.14
-4.02
-5.00
-6.11
-7.33
-8.65
-10.06
-11.56
-13.06
-14.38
-15.23
-15.38
-14.66
-13.12
-10.95
-8.42
-5.81
-3.30
-0.99
1.07
2.87
4.37
5.50
6.28
6.76
7.08
7.37
7.73
8.12
8.41
8.45
8.20
7.77
7.37
7.18
7.22
7.36
7.42
7.31
7.06
6.83
6.73
6.75
6.74
6.52
5.96
5.09
4.06
3.07
2.27
1.66
1.15
0.62
-0.01
-0.75
-1.52
-2.21
-2.77
-3.28
-3.89
-4.76
-6.00
-7.56
-9.24
-10.75
-11.80
-12.19
-11.84
-10.80
-9.16
-7.08
-4.73
-2.32
-0.03
1.98
3.62
4.89
5.84
6.50
6.91
7.08
7.03
6.80
6.53
6.34
6.35
6.57
6.95
7.36
7.66
7.76
7.65
7.36
6.99
6.63
6.34
6.13
5.97
5.84
5.67
5.43
5.08
4.63
4.09
3.48
2.83
2.11
1.32
0.41
-0.60
-1.69
-2.79
-3.84
-4.76
-5.50
-6.06
-6.49
-6.90
-7.46
-8.34
-9.64
-11.31
-13.10
-14.67
-15.61
-15.64
-14.68
-12.85
-10.44
-7.79
-5.23
-2.97
-1.09
0.44
1.67
2.67
3.45
4.01
4.38
4.67
4.98
5.41
5.94
6.45
6.78
6.83
6.65
6.37
6.21
6.27
6.55
6.93
7.26
7.43
7.41
7.22
6.88
6.41
5.81
5.14
4.48
3.89
3.41
2.98
2.51
1.91
1.20
0.44
-0.28
-0.94
-1.55
-2.21
-2.98
-3.89
-4.85
-5.78
-6.60
-7.32
-7.99
-8.69
-9.52
-10.51
-11.64
-12.83
-13.91
-14.67
-14.88
-14.35
-13.04
-11.05
-8.66
-6.19
-3.91
-1.95
-0.33
1.05
2.27
3.36
4.31
5.05
5.55
5.82
5.96
6.05
6.18
6.39
6.65
6.91
7.10
7.16
7.08
6.91
6.69
6.51
6.39
6.34
6.33
6.31
6.20
5.92
5.42
4.67
3.79
2.92
2.25
1.90
1.84
