1653040767.00
64.000000
-0.00
-0.00
-0.00
-0.00
-0.00
-0.00
-0.00
-0.00
-0.00
-0.00
0.00
0.01
0.01
-0.00
-0.03
-0.05
-0.05
0.00
0.13
0.36
0.66
1.01
1.37
1.72
2.06
2.40
2.79
3.24
3.80
4.42
5.06
5.66
6.20
6.68
7.15
7.68
8.31
9.14
10.09
11.04
11.88
12.56
13.14
13.76
14.65
15.96
17.91
20.32
22.90
25.38
27.58
29.57
31.68
34.32
37.82
42.54
48.15
54.10
59.83
64.97
69.58
74.16
79.39
85.76
93.79
102.96
112.46
121.43
129.32
136.18
142.67
150.09
157.12
165.98
177.23
190.97
206.02
219.48
227.08
224.17
207.37
175.75
131.62
78.78
21.53
-36.82
-94.65
-151.59
-207.72
-262.78
-316.08
-366.30
-412.65
-454.46
-491.00
-521.17
-543.33
-555.59
-556.26
-544.52
-520.52
-485.74
-442.38
-392.84
-339.29
-283.51
-226.94
-170.92
-116.96
-66.54
-21.15
18.19
51.18
78.20
100.10
117.78
131.90
142.69
150.14
153.97
153.96
149.98
142.36
132.21
121.68
113.73
111.30
116.10
127.65
143.23
158.77
170.46
176.05
175.42
170.00
161.69
151.92
141.24
129.75
117.67
105.58
94.37
84.71
76.70
69.83
63.42
56.67
49.32
41.71
34.55
28.59
24.17
21.14
18.92
16.80
14.28
11.31
8.19
5.36
3.13
1.58
0.49
-0.48
-1.53
-2.71
-3.86
-4.73
-5.23
-5.37
-5.32
-5.23
-5.22
-5.36
-5.72
-6.34
-7.11
-7.71
-7.64
-6.46
-4.11
-1.10
1.63
3.18
3.10
1.67
-0.33
-2.04
-3.00
-3.22
-3.09
-3.00
-3.11
-3.29
-3.33
-3.10
-2.70
-2.32
-2.13
-2.18
-2.41
-2.63
-2.70
-2.55
-2.24
-1.91
-1.70
-1.70
-1.89
-2.16
-2.32
-2.27
-1.99
-1.58
-1.22
-1.02
-1.01
-1.12
-1.21
-1.13
-0.81
-0.24
0.55
1.48
2.45
3.41
4.29
5.06
5.72
6.30
6.80
7.30
7.77
8.17
8.42
8.39
7.99
7.18
6.04
4.57
2.86
1.02
-0.85
-2.67
-4.42
-6.05
-7.50
-8.68
-9.51
-9.89
-9.83
-9.40
-8.78
-8.17
-7.68
-7.32
-6.98
-6.57
-6.03
-5.47
-5.03
-4.80
-4.79
-4.86
-4.82
-4.57
-4.12
-3.62
-3.24
-3.06
-3.02
-2.97
-2.82
-2.55
-2.27
-2.10
-2.08
-2.10
-2.04
-1.82
-1.49
-1.22
-1.18
-1.39
-1.73
-1.96
-1.82
-1.22
-0.23
0.92
2.01
2.84
3.35
3.52
3.42
3.11
2.65
2.10
1.53
1.02
0.62
0.41
0.43
0.68
1.15
1.75
2.38
2.91
3.23
3.27
3.08
2.74
2.37
2.06
1.80
1.55
1.28
0.94
0.58
0.25
0.02
-0.09
-0.13
-0.19
-0.39
-0.80
-1.43
-2.25
-3.17
-4.09
-4.97
-5.76
-6.48
-7.12
-7.67
-8.07
-8.28
-8.31
-8.25
-8.25
-8.52
-9.18
-10.28
-11.72
-13.34
-14.94
-16.40
-17.68
-18.78
-19.72
-20.40
-20.71
-20.49
-19.61
-18.07
-15.92
-13.28
-10.26
-6.93
-3.33
0.50
4.47
8.37
11.92
14.82
16.87
18.04
18.51
18.55
18.41
18.21
17.94
17.56
17.07
16.55
16.12
15.86
15.71
15.56
15.31
14.91
14.42
13.91
13.41
12.88
12.26
11.51
10.65
9.71
8.70
7.60
6.37
5.03
3.68
2.47
1.47
0.65
-0.10
-0.90
-1.76
-2.59
-3.21
-3.49
-3.41
-3.12
-2.82
-2.71
-2.91
-3.43
-4.21
-5.16
-6.15
-7.01
-7.58
-7.71
-7.35
-6.56
-5.47
-4.24
-3.01
-1.90
-0.97
-0.25
0.25
0.60
0.88
1.19
1.59
2.06
2.52
2.86
3.01
2.99
2.89
2.80
2.77
2.78
2.76
2.69
2.58
2.52
2.56
2.73
2.96
3.14
3.16
2.97
2.60
2.16
1.80
1.61
1.64
1.78
1.90
1.80
1.39
0.67
-0.20
-1.06
-1.74
-2.21
-2.54
-2.83
-3.19
-3.68
-4.30
-5.02
-5.81
-6.58
-7.19
-7.53
-7.48
-6.99
-6.13
-5.02
-3.83
-2.71
-1.77
-1.04
-0.54
-0.19
0.12
0.52
1.09
1.81
2.53
3.06
3.28
3.16
2.82
2.46
2.24
2.22
2.33
2.46
2.49
2.40
2.28
2.23
2.34
2.60
2.93
3.22
3.39
3.42
3.40
3.39
3.42
3.38
3.06
2.28
0.99
-0.68
-2.41
-3.89
-4.91
-5.47
-5.77
-6.02
-6.33
-6.67
-6.90
-6.90
-6.71
-6.48
-6.38
-6.44
-6.53
-6.38
-5.74
-4.54
-2.92
-1.09
0.73
2.41
3.92
5.18
6.06
6.33
5.85
4.64
2.95
1.15
-0.36
-1.35
-1.78
-1.74
-1.42
-0.99
-0.54
-0.12
0.30
0.75
1.24
1.76
2.24
2.60
2.77
2.75
2.59
2.40
2.25
2.13
1.97
1.70
1.29
0.76
0.16
-0.44
-1.06
-1.69
-2.34
-2.98
-3.57
-4.06
-4.43
-4.69
-4.85
-4.88
-4.70
-4.22
-3.43
-2.39
-1.26
-0.23
0.60
1.20
1.62
1.96
2.26
2.52
2.69
2.78
2.84
2.98
3.27
3.71
4.15
4.43
4.42
4.12
3.66
3.18
2.81
2.54
2.32
2.05
1.66
1.16
0.59
0.02
-0.51
-0.95
-1.30
-1.56
-1.72
-1.82
-1.93
-2.10
-2.39
-2.83
-3.42
-4.08
-4.71
-5.13
-5.22
-4.93
-4.30
-3.47
-2.60
-1.82
-1.13
-0.48
0.20
0.93
1.64
2.20
2.51
2.55
2.41
2.18
1.95
1.72
1.45
1.12
0.74
0.40
0.19
0.11
0.13
0.12
0.00
-0.23
-0.54
-0.86
-1.21
-1.64
-2.27
-3.15
-4.24
-5.39
-6.41
-7.15
-7.63
-7.98
-8.42
-9.19
-10.39
-11.98
-13.83
-15.73
-17.49
-18.97
-20.03
-20.54
-20.36
-19.37
-17.52
-14.91
-11.75
-8.31
-4.85
-1.55
1.50
4.30
6.84
9.05
10.88
12.29
13.30
14.02
14.55
14.93
15.13
15.08
14.73
14.11
13.37
12.68
12.15
11.79
11.51
11.15
10.60
9.82
8.88
7.86
6.86
5.91
5.03
4.19
3.37
2.60
1.90
1.32
0.84
0.41
-0.03
-0.55
-1.13
-1.65
-1.97
-1.94
-1.55
-0.86
-0.06
0.69
1.26
1.68
2.00
2.32
2.70
3.08
3.39
3.51
3.39
3.05
2.65
2.35
2.31
2.58
3.05
3.50
3.72
3.65
3.37
3.08
2.96
3.01
3.09
2.96
2.49
1.72
0.87
0.21
-0.10
-0.10
0.01
0.01
-0.23
-0.68
-1.18
-1.58
-1.84
-2.04
-2.33
-2.81
-3.48
-4.27
-5.08
-5.83
-6.50
-7.06
-7.48
-7.67
-7.54
-7.05
-6.21
-5.08
-3.79
-2.46
-1.18
-0.03
0.94
1.68
2.16
2.38
2.37
2.25
2.16
2.23
2.53
3.06
3.71
4.33
4.80
5.06
5.13
5.07
4.93
4.73
4.46
4.12
3.75
3.36
3.00
2.69
2.43
2.20
1.97
1.69
1.29
0.73
0.01
-0.81
-1.61
-2.25
-2.66
-2.85
-2.94
-3.11
-3.49
-4.11
-4.87
-5.63
-6.25
-6.67
-6.93
-7.07
-7.11
-6.98
-6.59
-5.90
-4.95
-3.87
-2.80
-1.80
-0.88
0.02
0.94
1.85
2.68
3.35
3.78
3.98
4.00
3.92
3.80
3.69
3.65
3.71
3.86
4.08
4.32
4.51
4.64
4.72
4.78
4.80
4.74
4.55
4.20
3.72
3.19
2.73
2.37
2.10
1.83
1.48
1.05
0.61
0.26
0.04
-0.08
-0.25
-0.62
-1.24
-2.00
-2.75
-3.34
-3.73
-4.02
-4.39
-4.97
-5.81
-6.82
-7.80
-8.56
-8.98
-9.01
-8.69
-8.10
-7.34
-6.48
-5.60
-4.70
-3.79
-2.89
-2.00
-1.18
-0.44
0.16
0.64
1.02
1.32
1.57
1.79
1.98
2.13
2.25
2.33
2.40
2.49
2.62
2.81
3.05
3.29
3.50
3.63
3.66
3.58
3.41
3.19
2.95
2.69
2.41
2.09
1.74
1.37
0.99
0.61
0.23
-0.13
-0.47
-0.73
-0.91
-1.03
-1.18
-1.43
-1.82
-2.33
-2.84
-3.24
-3.44
-3.36
-2.99
-2.37
-1.57
-0.71
0.05
0.54
0.66
0.47
0.11
-0.20
-0.28
-0.13
0.17
0.42
0.51
0.44
0.34
0.37
0.68
1.31
2.16
3.08
3.90
4.52
4.85
4.90
4.73
4.41
4.07
3.81
3.68
3.66
3.69
3.70
3.62
3.42
3.08
2.64
2.15
1.71
1.46
1.45
1.58
1.60
1.14
-0.09
-2.17
-4.88
-7.80
-10.40
-12.28
-13.20
-13.20
-12.49
-11.36
-10.13
-9.02
-8.14
-7.47
-6.88
-6.18
-5.23
-3.97
-2.48
-0.91
0.55
1.72
2.53
3.02
3.31
3.56
3.88
4.28
4.70
5.09
5.38
5.58
5.73
5.81
5.82
5.74
5.61
5.49
5.40
5.31
5.13
4.77
4.19
3.50
2.82
2.26
1.81
1.40
0.93
0.42
-0.04
-0.40
-0.65
-0.91
-1.32
-1.97
-2.78
-3.57
-4.16
-4.44
-4.49
-4.47
-4.57
-4.92
-5.46
-6.08
-6.56
-6.75
-6.56
-6.05
-5.31
-4.47
-3.60
-2.73
-1.83
-0.90
0.04
0.94
1.75
2.46
3.10
3.69
4.21
4.65
4.92
5.03
4.97
4.80
4.59
4.40
4.29
4.31
4.46
4.68
4.87
4.91
4.69
4.21
3.55
2.83
2.17
1.58
1.01
0.37
-0.36
-1.16
-1.94
-2.61
-3.14
-3.59
-4.05
-4.59
-5.25
-6.00
-6.78
-7.57
-8.35
-9.16
-10.03
-10.99
-12.02
-13.10
-14.15
-15.10
-15.85
-16.29
-16.36
-16.08
-15.56
-14.99
-14.60
-14.49
-14.66
-14.93
-15.06
-14.88
-14.30
-13.33
-12.03
-10.45
-8.54
-6.24
-3.51
-0.35
3.12
6.68
10.04
12.96
15.23
16.82
17.84
18.47
18.90
19.21
19.37
19.29
18.85
18.02
16.85
15.44
13.93
12.47
11.15
10.04
9.13
8.35
7.57
6.67
5.58
4.29
2.92
1.62
0.57
-0.13
-0.48
-0.56
-0.48
-0.36
-0.23
-0.08
0.19
0.60
1.14
1.76
2.40
3.02
3.59
4.08
4.43
4.60
4.58
4.43
4.27
4.18
4.17
4.19
4.14
3.97
3.69
3.39
3.17
3.03
2.94
2.81
2.59
2.33
2.07
1.90
1.79
1.67
1.41
0.95
0.30
-0.42
-1.10
-1.67
-2.11
-2.50
-2.86
-3.23
-3.60
-3.98
-4.43
-5.01
-5.73
-6.54
-7.26
-7.72
-7.78
-7.41
-6.68
-5.72
-4.66
-3.63
-2.70
-1.91
-1.28
-0.75
-0.28
0.21
0.76
1.38
2.04
2.69
3.24
3.66
3.88
3.88
3.65
3.28
2.88
2.59
2.51
2.68
3.05
3.50
3.87
4.04
3.93
3.58
3.12
2.69
2.39
2.22
2.09
1.86
1.44
0.85
0.17
-0.44
-0.90
-1.17
-1.29
-1.32
-1.33
-1.36
-1.47
-1.71
-2.13
-2.76
-3.57
-4.50
-5.43
-6.21
-6.69
-6.77
-6.42
-5.75
-4.92
-4.09
-3.38
-2.77
-2.17
-1.45
-0.57
0.41
1.33
1.97
2.18
1.90
1.24
0.42
-0.28
-0.66
-0.60
-0.11
0.70
1.68
2.68
3.59
4.29
4.69
4.77
4.56
4.13
3.59
3.04
2.52
2.06
1.68
1.41
1.23
1.11
0.95
0.67
0.21
-0.40
-1.07
-1.69
-2.18
-2.55
-2.83
-3.09
-3.35
-3.64
-3.94
-4.31
-4.79
-5.39
-6.05
-6.61
-6.91
-6.78
-6.21
-5.26
-4.09
-2.83
-1.57
-0.33
0.87
2.00
3.00
3.81
4.40
4.84
5.18
5.50
5.79
5.99
6.02
5.80
5.33
4.70
4.00
3.37
2.85
2.49
2.26
2.12
2.03
1.95
1.84
1.69
1.49
1.25
0.97
0.69
0.41
0.09
-0.29
-0.78
-1.40
-2.12
-2.90
-3.68
-4.37
-4.95
-5.40
-5.75
-6.06
-6.40
-6.79
-7.18
-7.46
-7.49
-7.14
-6.37
-5.23
-3.82
-2.26
-0.63
0.99
2.55
3.99
5.18
5.99
6.31
6.12
5.57
4.92
4.40
4.18
4.25
4.44
4.61
4.65
4.65
4.74
5.00
5.42
5.83
6.08
6.06
5.77
5.28
4.65
3.87
2.95
1.94
0.98
0.23
-0.22
-0.41
-0.54
-0.82
-1.37
-2.14
-2.95
-3.58
-3.95
-4.09
-4.15
-4.26
-4.54
-4.98
-5.59
-6.33
-7.15
-7.94
-8.57
-8.84
-8.61
-7.86
-6.70
-5.33
-3.94
-2.67
-1.54
-0.52
0.45
1.41
2.38
3.30
4.07
4.59
4.75
4.60
4.24
3.92
3.81
3.97
4.33
4.72
5.01
5.20
5.33
5.48
5.63
5.67
5.49
5.05
4.44
3.80
3.25
2.83
2.47
2.06
1.53
0.88
0.19
-0.41
-0.83
-1.02
-1.03
-0.95
-0.93
-1.06
-1.40
-1.88
-2.44
-3.00
-3.56
-4.12
-4.71
-5.30
-5.83
-6.25
-6.55
-6.77
-6.93
-7.03
-6.94
-6.56
-5.82
-4.79
-3.63
-2.51
-1.55
-0.80
-0.21
0.31
0.84
1.45
2.18
3.00
3.82
4.48
4.83
4.81
4.46
3.96
3.50
3.26
3.25
3.43
3.66
3.85
3.95
4.00
4.05
4.10
4.10
3.94
3.53
2.88
2.08
1.28
0.58
-0.01
-0.56
-1.15
-1.80
-2.43
-2.88
-3.07
-3.01
-2.82
-2.70
-2.73
-2.90
-3.09
-3.18
-3.13
-3.03
-3.01
-3.17
-3.55
-4.08
-4.65
-5.19
-5.64
-5.99
-6.20
-6.16
-5.78
-4.97
-3.75
-2.27
-0.76
0.52
1.40
1.86
1.99
1.97
1.97
2.07
2.26
2.45
2.57
2.58
2.50
2.39
2.30
2.24
2.25
2.37
2.68
3.24
3.97
4.68
5.05
4.86
4.06
2.85
1.61
0.69
0.30
0.41
0.80
1.18
1.32
1.14
0.68
0.10
-0.49
-0.97
-1.31
-1.51
-1.60
-1.67
-1.79
-2.09
-2.61
-3.35
-4.23
-5.05
-5.61
-5.78
-5.49
-4.79
-3.82
-2.71
-1.60
-0.60
0.22
0.83
1.23
1.47
1.62
1.75
1.91
2.11
2.31
2.44
2.45
2.31
2.03
1.70
1.42
1.31
1.45
1.85
2.43
3.03
3.47
3.61
3.41
2.95
2.39
1.90
1.60
1.50
1.48
1.39
1.09
0.51
-0.29
-1.15
-1.91
-2.45
-2.75
-2.92
-3.07
-3.30
-3.66
-4.12
-4.60
-5.04
-5.42
-5.71
-5.87
-5.89
-5.70
-5.28
-4.56
-3.51
-2.19
-0.70
0.78
2.10
3.17
4.01
4.69
5.28
5.77
6.12
6.28
6.22
6.01
5.72
5.40
5.07
4.74
4.42
4.10
3.76
3.32
2.67
1.77
0.70
-0.38
-1.26
-1.86
-2.26
-2.60
-3.02
-3.48
-3.87
-4.01
-3.88
-3.55
-3.16
-2.81
-2.46
-2.00
-1.30
-0.39
0.54
1.23
1.47
1.21
0.57
-0.23
-1.03
-1.77
-2.51
-3.29
-4.08
-4.73
-5.04
-4.89
-4.31
-3.48
-2.66
-2.01
-1.58
-1.28
-0.94
-0.47
0.17
0.91
1.63
2.21
2.60
2.78
2.81
2.78
2.80
2.92
3.11
3.32
3.41
3.31
2.99
2.48
1.84
1.12
0.37
-0.34
-0.95
-1.38
-1.60
-1.66
-1.66
-1.72
-1.93
-2.30
-2.79
-3.35
-3.92
-4.49
-5.03
-5.52
-5.97
-6.44
-7.08
-8.05
-9.41
-11.11
-12.91
-14.57
-15.91
-16.88
-17.56
-18.01
-18.25
-18.19
-17.77
-16.96
-15.87
-14.60
-13.26
-11.80
-10.12
-8.08
-5.62
-2.80
0.24
3.31
6.26
8.99
11.43
13.52
15.21
16.46
17.29
17.72
17.84
17.69
17.34
16.78
16.05
15.15
14.16
13.15
12.19
11.31
10.50
9.75
9.00
8.24
7.46
6.63
5.71
4.66
3.48
2.22
1.01
-0.03
-0.76
-1.14
-1.18
-0.98
-0.62
-0.18
0.27
0.70
1.10
1.47
1.84
2.22
2.65
3.12
3.61
4.01
4.22
4.15
3.79
3.22
2.59
2.08
1.76
1.62
1.56
1.46
1.21
0.81
0.32
-0.14
-0.50
-0.70
-0.79
-0.83
-0.86
-0.91
-0.99
-1.06
-1.15
-1.29
-1.55
-1.95
-2.48
-3.09
-3.69
-4.25
-4.77
-5.28
-5.78
-6.23
-6.49
-6.41
-5.89
-4.91
-3.61
-2.22
-0.94
0.06
0.76
1.26
1.65
2.05
2.47
2.91
3.35
3.79
4.25
4.72
5.13
5.36
5.34
5.05
4.59
4.12
3.84
3.83
4.06
4.41
4.66
4.68
4.38
3.81
3.05
2.22
1.41
0.66
-0.00
-0.60
-1.14
-1.64
-2.12
-2.56
-2.95
-3.30
-3.62
-3.92
-4.25
-4.60
-4.97
-5.29
-5.47
-5.45
-5.20
-4.78
-4.25
-3.66
-3.00
-2.24
-1.33
-0.32
0.67
1.52
2.12
2.49
2.68
2.78
2.79
2.68
2.39
1.94
1.43
0.99
0.71
0.59
0.57
0.56
0.52
0.47
0.47
0.55
0.70
0.87
1.05
1.23
1.42
1.62
1.80
1.93
2.02
2.10
2.22
2.38
2.52
2.55
2.41
2.10
1.73
1.42
1.22
1.14
1.06
0.88
0.51
-0.03
-0.69
-1.37
-2.02
-2.59
-3.08
-3.45
-3.66
-3.69
-3.52
-3.20
-2.83
-2.50
-2.32
-2.33
-2.56
-2.98
-3.53
-4.13
-4.68
-5.08
-5.26
-5.20
-4.90
-4.45
-3.91
-3.33
-2.74
-2.11
-1.44
-0.73
-0.03
0.62
1.17
1.58
1.83
1.92
1.86
1.71
1.57
1.56
1.74
2.13
2.61
3.01
3.20
3.13
2.85
2.50
2.18
1.91
1.63
1.24
0.68
-0.05
-0.87
-1.71
-2.52
-3.26
-3.86
-4.24
-4.29
-3.94
-3.24
-2.33
-1.39
-0.56
0.17
0.85
1.56
2.31
3.03
3.60
3.95
4.11
4.16
4.16
4.10
3.93
3.59
3.17
2.81
2.68
2.84
3.18
3.49
3.55
3.31
2.85
2.34
1.93
1.65
1.44
1.17
0.78
0.29
-0.19
-0.58
-0.86
-1.08
-1.32
-1.61
-1.90
-2.12
-2.18
-2.09
-1.92
-1.77
-1.76
-1.95
-2.37
-3.04
-3.94
-5.05
-6.29
-7.51
-8.55
-9.26
-9.51
-9.29
-8.65
-7.67
-6.46
-5.08
-3.55
-1.88
-0.10
1.70
3.37
4.82
6.01
6.97
7.79
8.48
8.98
9.20
9.04
8.53
7.77
6.90
6.04
5.22
4.44
3.73
3.17
2.82
2.69
2.69
2.70
2.60
2.34
1.97
1.51
0.99
0.38
-0.32
-1.09
-1.84
-2.50
-3.03
-3.49
-3.96
-4.52
-5.20
-5.93
-6.63
-7.22
-7.61
-7.73
-7.52
-6.95
-6.04
-4.92
-3.74
-2.66
-1.70
-0.82
0.06
0.99
1.89
2.61
3.04
3.19
3.18
3.18
3.29
3.52
3.77
3.92
3.93
3.82
3.65
3.49
3.35
3.21
3.03
2.80
2.56
2.34
2.16
2.00
1.86
1.71
1.57
1.49
1.45
1.39
1.20
0.80
0.24
-0.35
-0.77
-0.88
-0.70
-0.43
-0.31
-0.53
-1.12
-1.98
-2.99
-4.05
-5.10
-6.09
-6.93
-7.46
-7.58
-7.27
-6.60
-5.75
-4.86
-4.00
-3.16
-2.31
-1.41
-0.51
0.32
1.02
1.60
2.11
2.62
3.12
3.57
3.89
4.01
3.96
3.79
3.58
3.32
2.94
2.36
1.60
0.78
0.11
-0.31
-0.52
-0.71
-1.10
-1.73
-2.47
-3.06
-3.27
-3.07
-2.65
-2.27
-2.13
-2.26
-2.49
-2.64
-2.56
-2.27
-1.93
-1.73
-1.78
-2.08
-2.47
-2.77
-2.81
-2.56
-2.13
-1.67
-1.30
-1.05
-0.82
-0.45
0.16
0.96
1.79
2.41
2.68
2.63
2.46
2.41
2.68
3.29
4.05
4.72
5.02
4.85
4.30
3.58
2.96
2.58
2.44
2.39
2.30
2.07
1.75
1.44
1.22
1.11
1.05
0.95
0.77
0.54
0.31
0.15
0.05
-0.04
-0.19
-0.45
-0.85
-1.42
-2.11
-2.87
-3.55
-4.01
-4.10
-3.74
-2.96
-1.85
-0.54
0.85
2.24
3.59
4.92
6.26
7.59
8.79
9.69
10.13
10.07
9.66
9.15
8.76
8.52
8.26
7.68
6.58
5.02
3.23
1.52
0.09
-1.04
-1.93
-2.57
-2.80
-2.39
-1.22
0.59
2.63
4.40
5.50
5.89
5.85
5.93
6.61
8.08
10.11
12.11
13.43
13.67
12.88
11.55
10.35
9.76
9.90
10.50
11.17
11.60
11.73
11.62
11.35
10.88
10.07
8.82
7.20
5.43
3.64
1.69
-0.89
-4.74
-10.26
-17.42
-25.59
-33.77
-40.85
-45.91
-48.44
-48.31
-45.78
-41.41
-36.05
-30.68
-26.28
-23.59
-22.86
-23.81
-25.66
-27.45
-28.30
-27.68
-25.54
-22.26
-18.53
-15.02
-12.13
-9.93
-8.17
-6.45
-4.42
-2.01
0.59
3.03
5.00
6.33
7.07
7.42
7.56
7.64
7.65
7.52
7.14
6.50
5.65
4.74
3.98
3.54
3.54
4.03
4.92
6.07
7.32
8.54
9.64
10.61
11.40
11.95
12.14
11.95
11.44
10.80
10.27
10.05
10.17
10.48
10.70
10.56
9.92
8.80
7.41
6.04
4.97
4.38
4.29
4.59
4.98
5.16
4.83
3.80
2.10
-0.08
-2.41
-4.48
-5.95
-6.60
-6.38
-5.45
-4.09
-2.64
-1.36
-0.40
0.27
0.77
1.30
2.00
2.90
3.89
4.80
5.46
5.81
5.88
5.80
5.71
5.68
5.72
5.80
5.88
5.94
5.97
5.93
5.71
5.19
4.32
3.14
1.86
0.77
0.14
0.10
0.55
1.19
1.59
1.41
0.53
-0.93
-2.63
-4.15
-5.19
-5.61
-5.48
-5.01
-4.42
-3.93
-3.69
-3.79
-4.22
-4.85
-5.46
-5.77
-5.58
-4.85
-3.71
-2.38
-1.11
0.01
1.03
2.13
3.47
5.11
6.87
8.46
9.54
9.90
9.49
8.50
7.18
5.84
4.69
3.85
3.41
3.37
3.71
4.29
4.92
5.34
5.35
4.84
3.87
2.58
1.20
-0.07
-1.07
-1.73
-2.09
-2.27
-2.41
-2.61
-2.86
-3.07
-3.13
-3.02
-2.80
-2.60
-2.51
-2.49
-2.36
-1.89
-0.96
0.32
1.56
2.28
2.09
0.85
-1.27
-3.86
-6.44
-8.56
-9.93
-10.40
-10.02
-8.90
-7.24
-5.30
-3.36
-1.69
-0.48
0.16
0.26
-0.02
-0.41
-0.66
-0.54
0.02
0.90
1.87
2.71
3.27
3.51
3.51
3.39
3.25
3.16
3.23
3.52
4.09
4.87
5.68
6.27
6.45
6.18
5.59
4.94
4.46
4.24
4.24
4.35
4.46
4.56
4.66
4.70
4.61
4.29
3.76
3.12
2.56
2.21
2.00
1.73
1.14
0.12
-1.24
-2.68
-3.87
-4.57
-4.71
-4.41
-3.84
-3.24
-2.80
-2.69
-3.03
-3.83
-5.01
-6.36
-7.70
-8.87
-9.82
-10.58
-11.21
-11.78
-12.32
-12.83
-13.29
-13.62
-13.73
-13.47
-12.74
-11.52
-9.93
-8.24
-6.72
-5.55
-4.74
-4.14
-3.52
-2.69
-1.63
-0.44
0.69
1.59
2.20
2.54
2.73
2.87
3.05
3.33
3.73
4.27
4.96
5.79
6.73
7.70
8.60
9.27
9.60
9.49
8.89
7.81
6.36
4.74
3.18
1.90
1.02
0.55
0.40
0.42
0.48
0.52
0.56
0.58
0.57
0.46
0.17
-0.33
-1.00
-1.73
-2.37
-2.78
-2.87
-2.61
-2.08
-1.43
-0.86
-0.53
-0.51
-0.74
-1.04
-1.22
-1.17
-0.92
-0.59
-0.26
0.10
0.58
1.26
2.06
2.78
3.14
3.01
2.46
1.78
1.33
1.31
1.69
2.29
2.83
3.14
3.16
2.96
2.62
2.19
1.68
1.10
0.51
-0.01
-0.33
-0.38
-0.20
0.09
0.29
0.19
-0.26
-0.98
-1.78
-2.43
-2.73
-2.66
-2.34
-1.99
-1.85
-2.10
-2.76
-3.70
-4.68
-5.43
-5.74
-5.52
-4.82
-3.77
-2.55
-1.30
-0.20
0.62
1.01
0.86
0.20
-0.78
-1.79
-2.45
-2.50
-1.84
-0.56
1.05
2.68
4.07
5.08
5.74
6.18
6.55
6.94
7.36
7.74
7.97
8.02
7.88
7.62
7.33
7.07
6.85
6.70
6.61
6.60
6.68
6.83
7.02
7.20
7.28
7.22
7.02
6.67
6.20
5.68
5.15
4.71
4.44
4.34
4.42
4.55
4.58
4.38
3.84
2.96
1.81
0.52
-0.81
-2.11
-3.40
-4.71
-6.09
-7.56
-9.06
-10.48
-11.72
-12.70
-13.37
-13.74
-13.79
-13.46
-12.71
-11.54
-10.11
-8.67
-7.50
-6.77
-6.40
-6.13
-5.64
-4.75
-3.50
-2.18
-1.10
-0.43
-0.07
0.24
0.74
1.51
2.43
3.31
4.06
4.78
5.64
6.70
7.78
8.49
8.43
7.48
5.90
4.20
2.92
2.32
2.32
2.61
2.87
2.94
2.86
2.71
2.52
2.17
1.47
0.35
-1.03
-2.31
-3.05
-2.97
-2.12
-0.88
0.25
0.88
0.94
0.65
0.37
0.34
0.51
0.65
0.49
-0.09
-0.95
-1.82
-2.50
-2.98
-3.47
-4.19
-5.12
-5.98
-6.28
-5.63
-4.01
-1.78
0.46
2.21
3.27
3.65
3.48
2.85
1.91
0.86
0.09
-0.08
0.46
1.40
2.13
2.07
1.04
-0.70
-2.54
-3.93
-4.68
-4.96
-5.13
-5.44
-5.98
-6.65
-7.41
-8.30
-9.36
-10.55
-11.71
-12.53
-12.73
-12.13
-10.80
-8.99
-7.07
-5.34
-3.93
-2.77
-1.69
-0.60
0.42
1.14
1.32
0.89
-0.01
-1.05
-1.95
-2.54
-2.83
-2.97
-3.07
-3.18
-3.24
-3.19
-3.00
-2.77
-2.64
-2.76
-3.24
-4.02
-4.96
-5.87
-6.59
-7.03
-7.23
-7.22
-7.04
-6.69
-6.20
-5.63
-5.10
-4.72
-4.53
-4.42
-4.21
-3.75
-3.04
-2.24
-1.59
-1.22
-1.04
-0.76
-0.05
1.26
3.10
5.17
7.11
8.68
9.84
10.67
11.30
11.80
12.08
12.04
11.66
10.98
10.21
9.54
9.11
8.97
9.05
9.29
9.62
10.00
10.48
11.14
12.05
13.21
14.50
15.63
16.22
15.89
14.49
12.12
9.17
6.20
3.74
2.16
1.56
1.88
2.87
4.23
5.61
6.67
7.13
6.85
5.91
4.62
3.36
2.51
2.25
2.54
3.15
3.73
3.93
3.51
2.42
0.79
-1.05
-2.68
-3.71
-3.91
-3.29
-2.08
-0.61
0.77
1.84
2.53
2.85
2.88
2.72
2.46
2.16
1.89
1.68
1.50
1.32
1.04
0.62
0.08
-0.48
-0.89
-0.99
-0.76
-0.31
0.15
0.40
0.34
0.02
-0.40
-0.81
-1.16
-1.52
-1.97
-2.56
-3.25
-3.94
-4.51
-4.98
-5.42
-5.93
-6.59
-7.40
-8.25
-9.02
-9.55
-9.75
-9.57
-9.03
-8.21
-7.19
-6.07
-4.94
-3.90
-3.03
-2.37
-1.88
-1.48
-1.07
-0.62
-0.12
0.37
0.81
1.24
1.68
2.18
2.69
3.07
3.18
2.97
2.48
1.91
1.44
1.21
1.25
1.45
1.70
1.85
1.80
1.50
0.96
0.26
-0.46
-1.06
-1.45
-1.69
-1.93
-2.30
-2.86
-3.53
-4.20
-4.77
-5.26
-5.81
-6.51
-7.37
-8.17
-8.68
-8.74
-8.39
-7.88
-7.50
-7.43
-7.64
-7.98
-8.27
-8.48
-8.68
-8.97
-9.32
-9.56
-9.43
-8.84
-7.89
-6.92
-6.35
-6.43
-7.15
-8.26
-9.39
-10.24
-10.69
-10.79
-10.68
-10.48
-10.20
-9.84
-9.35
-8.81
-8.34
-8.16
-8.41
-9.10
-10.05
-10.91
-11.34
-11.13
-10.23
-8.72
-6.68
-4.08
-0.76
3.43
8.56
14.45
20.75
27.00
32.84
37.99
42.33
45.78
48.36
50.13
51.23
51.84
52.15
52.26
52.20
51.98
51.58
51.02
50.32
49.40
48.16
46.51
44.52
42.37
40.33
38.55
36.98
35.32
33.19
30.27
26.44
21.79
16.58
11.13
5.77
0.76
-3.71
-7.61
-11.04
-14.31
-17.78
-21.78
-26.45
-31.68
-37.11
-42.29
-46.79
-50.34
-52.82
-54.19
-54.46
-53.67
-51.90
-49.31
-46.17
-42.77
-39.35
-36.06
-32.90
-29.78
-26.64
-23.43
-20.20
-17.00
-13.92
-11.09
-8.67
-6.85
-5.74
-5.30
-5.34
-5.52
-5.53
-5.21
-4.58
-3.78
-3.01
-2.38
-1.87
-1.42
-0.92
-0.33
0.34
1.08
1.90
2.78
3.64
4.33
4.67
4.51
3.90
3.05
2.25
1.76
1.65
1.78
1.96
2.03
1.99
1.95
2.03
2.25
2.59
2.93
3.23
3.49
3.70
3.83
3.77
3.43
2.82
2.06
1.37
0.88
0.63
0.53
0.46
0.38
0.33
0.37
0.53
0.70
0.74
0.57
0.27
0.02
0.02
0.37
0.96
1.61
2.09
2.25
2.08
1.65
1.07
0.43
-0.20
-0.75
-1.14
-1.33
-1.37
-1.34
-1.37
-1.53
-1.80
-2.08
-2.29
-2.38
-2.40
-2.42
-2.52
-2.76
-3.19
-3.78
-4.49
-5.20
-5.72
-5.89
-5.59
-4.87
-3.90
-2.91
-2.07
-1.40
-0.81
-0.18
0.54
1.27
1.90
2.29
2.37
2.19
1.82
1.40
1.05
0.89
0.98
1.32
1.83
2.36
2.77
2.97
2.96
2.81
2.62
2.49
2.50
2.64
2.88
3.17
3.41
3.51
3.38
2.98
2.36
1.63
0.92
0.37
0.01
-0.19
-0.29
-0.41
-0.59
-0.87
-1.23
-1.68
-2.26
-3.01
-3.93
-4.90
-5.74
-6.22
-6.25
-5.85
-5.26
-4.69
-4.30
-4.08
-3.87
-3.51
-2.95
-2.28
-1.71
-1.41
-1.39
-1.54
-1.69
-1.71
-1.61
-1.48
-1.45
-1.56
-1.75
-1.90
-1.91
-1.73
-1.43
-1.10
-0.86
-0.74
-0.72
-0.75
-0.70
-0.47
-0.02
0.61
1.27
1.77
1.97
1.91
1.79
1.84
2.22
2.84
3.36
3.40
2.70
1.26
-0.66
-2.73
-4.68
-6.38
-7.83
-9.00
-9.74
-9.76
-8.82
-6.88
-4.25
-1.51
0.60
1.59
1.45
0.65
-0.04
-0.03
0.79
1.92
2.56
2.11
0.58
-1.42
-3.05
-3.74
-3.55
-3.02
-2.80
-3.10
-3.62
-3.76
-3.11
-1.79
-0.37
0.50
0.49
-0.15
-0.85
-1.03
-0.49
0.50
1.46
1.97
1.92
1.46
0.88
0.38
-0.07
-0.60
-1.34
-2.21
-2.95
-3.25
-2.93
-2.13
-1.16
-0.44
-0.14
-0.19
-0.30
-0.17
0.33
1.04
1.74
2.23
2.48
2.57
2.57
2.49
2.25
1.86
1.46
1.27
1.45
1.97
2.59
3.01
3.03
2.69
2.17
1.73
1.51
1.47
1.48
1.46
1.41
1.40
1.48
1.59
1.61
1.44
1.04
0.54
0.11
-0.15
-0.25
-0.35
-0.65
-1.30
-2.32
-3.61
-4.99
-6.23
-7.08
-7.33
-6.86
-5.69
-4.06
-2.35
-0.92
-0.03
0.34
0.38
0.34
0.40
0.58
0.78
0.87
0.86
0.85
1.01
1.47
2.21
3.08
3.89
4.48
4.81
4.93
4.96
5.02
5.14
5.31
5.46
5.49
5.36
5.06
4.60
4.05
3.43
2.75
2.01
1.21
0.37
-0.46
-1.29
-2.13
-3.07
-4.14
-5.33
-6.50
-7.46
-8.04
-8.13
-7.69
-6.80
-5.53
-3.98
-2.24
-0.47
1.11
2.30
2.93
3.02
2.77
2.47
2.40
2.68
3.25
3.90
4.42
4.67
4.64
4.44
4.19
3.99
3.86
3.76
3.65
3.48
3.19
2.78
2.28
1.74
1.25
0.89
0.68
0.59
0.56
0.53
0.44
0.29
0.12
-0.07
-0.27
-0.46
-0.62
-0.70
-0.65
-0.39
0.08
0.73
1.49
2.23
2.90
3.45
3.92
4.34
4.68
4.88
4.82
4.42
3.72
2.87
2.08
1.53
1.32
1.42
1.74
2.21
2.79
3.36
3.78
3.83
3.35
2.36
1.09
-0.11
-0.90
-1.12
-0.85
-0.34
0.11
0.34
0.33
0.18
0.04
-0.03
-0.09
-0.24
-0.55
-1.00
-1.42
-1.64
-1.52
-1.08
-0.49
0.06
0.45
0.71
0.97
1.35
1.89
2.50
3.03
3.36
3.45
3.33
3.10
2.87
2.75
2.87
3.30
4.10
5.22
6.48
7.65
8.48
8.79
8.57
7.98
7.25
6.65
6.28
6.11
5.97
5.68
5.13
4.34
3.42
2.51
1.71
1.01
0.38
-0.23
-0.78
-1.21
-1.40
-1.28
-0.87
-0.20
0.61
1.41
2.04
2.39
2.41
2.14
1.68
1.20
0.77
0.44
0.17
-0.06
-0.27
-0.40
-0.38
-0.19
0.11
0.37
0.43
0.21
-0.24
-0.80
-1.30
-1.62
-1.76
-1.77
-1.77
-1.83
-2.01
-2.33
-2.78
-3.35
-4.03
-4.81
-5.65
-6.48
-7.23
-7.82
-8.18
-8.27
-8.04
-7.50
-6.71
-5.73
-4.65
-3.53
-2.38
-1.24
-0.14
0.84
1.60
2.07
2.21
2.08
1.74
1.30
0.90
0.63
0.58
0.78
1.17
1.65
2.06
2.25
2.16
1.86
1.51
1.33
1.44
1.83
2.32
2.69
2.73
2.34
1.59
0.65
-0.28
-0.98
-1.38
-1.52
-1.50
-1.51
-1.67
-2.06
-2.67
-3.38
-4.05
-4.51
-4.61
-4.29
-3.49
-2.30
-0.89
0.52
1.70
2.48
2.83
2.85
2.73
2.67
2.75
2.98
3.26
3.47
3.55
3.51
3.41
3.34
3.35
3.44
3.59
3.76
3.92
4.07
4.20
4.28
4.29
4.22
4.07
3.87
3.66
3.44
3.19
2.89
2.53
2.10
1.62
1.07
0.43
-0.28
-1.03
-1.74
-2.34
-2.76
-3.03
-3.23
-3.45
-3.81
-4.33
-4.98
-5.64
-6.15
-6.35
-6.13
-5.49
-4.51
-3.38
-2.30
-1.40
-0.72
-0.25
0.10
0.42
0.73
1.05
1.36
1.69
2.04
2.44
2.85
3.21
3.43
3.48
3.38
3.24
3.16
3.22
3.38
3.57
3.70
3.77
3.82
3.93
4.11
4.29
4.35
4.19
3.79
3.23
2.65
2.19
1.89
1.77
1.73
1.68
1.51
1.13
0.44
-0.58
-1.84
-3.17
-4.34
-5.16
-5.57
-5.62
-5.42
-5.08
-4.64
-4.08
-3.42
-2.67
-1.90
-1.21
-0.62
-0.16
0.24
0.57
0.82
0.91
0.81
0.50
0.07
-0.36
-0.71
-0.90
-0.92
-0.81
-0.60
-0.34
-0.08
0.15
0.30
0.34
0.24
-0.02
-0.42
-0.93
-1.45
-1.89
-2.18
-2.26
-2.16
-1.96
-1.76
-1.68
-1.75
-1.98
-2.32
-2.69
-3.02
-3.28
-3.45
-3.61
-3.83
-4.15
-4.60
-5.14
-5.69
-6.17
-6.50
-6.61
-6.47
-6.08
-5.45
-4.63
-3.69
-2.68
-1.68
-0.76
0.05
0.73
1.26
1.67
1.99
2.25
2.46
2.64
2.82
3.04
3.31
3.65
3.96
4.14
4.06
3.72
3.21
2.69
2.36
2.30
2.47
2.73
2.92
2.92
2.73
2.37
1.96
1.55
1.21
0.96
0.81
0.74
0.71
0.67
0.58
0.38
0.07
-0.33
-0.80
-1.27
-1.67
-1.93
-2.07
-2.17
-2.37
-2.84
-3.70
-4.89
-6.22
-7.43
-8.24
-8.51
-8.22
-7.46
-6.40
-5.16
-3.86
-2.56
-1.31
-0.15
0.90
1.84
2.63
3.25
3.60
3.65
3.41
2.99
2.55
2.27
2.24
2.42
2.71
2.99
3.16
3.16
3.01
2.73
2.39
2.06
1.83
1.76
1.85
2.04
2.20
2.21
2.00
1.59
1.09
0.61
0.25
0.05
-0.03
-0.10
-0.28
-0.66
-1.25
-1.96
-2.68
-3.28
-3.73
-4.05
-4.33
-4.68
-5.11
-5.62
-6.15
-6.66
-7.11
-7.44
-7.55
-7.33
-6.65
-5.50
-3.97
-2.30
-0.73
0.54
1.47
2.13
2.65
3.12
3.58
3.98
4.25
4.34
4.24
3.97
3.59
3.17
2.75
2.39
2.13
2.00
2.00
2.12
2.31
2.51
2.68
2.75
2.72
2.59
2.41
2.26
2.19
2.22
2.31
2.40
2.41
2.30
2.08
1.80
1.51
1.21
0.84
0.36
-0.26
-0.96
-1.65
-2.28
-2.87
-3.47
-4.11
-4.74
-5.16
-5.17
-4.65
-3.62
-2.28
-0.89
0.33
1.28
2.00
2.57
3.03
3.41
3.68
3.84
3.90
3.93
3.93
3.91
3.83
3.67
3.41
3.11
2.81
2.56
2.38
2.27
2.21
2.21
2.27
2.37
2.45
2.47
2.36
2.09
1.66
1.10
0.47
-0.18
-0.80
-1.36
-1.86
-2.29
-2.71
-3.16
-3.67
-4.29
-5.00
-5.78
-6.53
-7.13
-7.42
-7.31
-6.78
-5.94
-4.93
-3.91
-2.99
-2.17
-1.40
-0.67
0.05
0.72
1.31
1.80
2.22
2.55
2.78
2.88
2.84
2.67
2.43
2.19
2.03
1.97
2.03
2.21
2.52
2.89
3.22
3.39
3.28
2.85
2.17
1.40
0.71
0.21
-0.10
-0.32
-0.59
-1.01
-1.60
-2.26
-2.87
-3.32
-3.61
-3.81
-4.04
-4.43
-5.01
-5.76
-6.53
-7.17
-7.53
-7.51
-7.09
-6.32
-5.29
-4.13
-2.94
-1.84
-0.86
-0.02
0.70
1.32
1.85
2.28
2.59
2.78
2.85
2.80
2.65
2.46
2.28
2.15
2.13
2.22
2.41
2.63
2.82
2.96
3.03
3.03
2.96
2.78
2.48
2.03
1.44
0.77
0.10
-0.52
-1.02
-1.40
-1.65
-1.81
-1.94
-2.16
-2.55
-3.21
-4.12
-5.19
-6.28
-7.23
-7.93
-8.28
-8.24
-7.75
-6.85
-5.60
-4.16
-2.72
-1.45
-0.44
0.30
0.87
1.38
1.93
2.53
3.12
3.58
3.80
3.73
3.41
2.97
2.58
2.37
2.35
2.47
2.61
2.66
2.59
2.43
2.22
2.03
1.89
1.81
1.79
1.79
1.73
1.50
1.05
0.41
-0.32
-1.01
-1.58
-2.01
-2.41
-2.89
-3.54
-4.30
-4.99
-5.41
-5.39
-4.87
-3.96
-2.83
-1.63
-0.49
0.57
1.56
2.51
3.40
4.18
4.77
5.08
5.11
4.88
4.47
3.99
3.55
3.22
3.04
3.04
3.15
3.31
3.46
3.55
3.54
3.47
3.38
3.31
3.23
3.06
2.73
2.21
1.59
1.00
0.57
0.29
0.01
-0.49
-1.38
-2.65
-4.10
-5.44
-6.41
-6.94
-7.07
-6.97
-6.79
-6.61
-6.40
-6.10
-5.59
-4.84
-3.84
-2.66
-1.40
-0.15
1.02
2.04
2.88
3.48
3.82
3.88
3.73
3.51
3.38
3.44
3.60
3.70
3.59
3.28
2.98
2.97
3.38
4.11
4.79
5.02
4.64
3.77
2.78
2.07
1.75
1.64
1.37
0.66
-0.51
-1.91
-3.15
-3.95
-4.23
-4.17
-4.06
-4.18
-4.66
-5.47
-6.41
-7.23
-7.70
-7.70
-7.23
-6.39
-5.33
-4.21
-3.12
-2.10
-1.12
-0.14
0.86
1.86
2.76
3.47
3.92
4.10
4.09
4.01
3.98
4.09
4.34
4.70
5.09
5.49
5.85
6.15
6.33
6.29
5.97
5.35
4.53
3.68
3.01
2.65
2.59
2.72
2.84
2.74
2.32
1.59
0.67
-0.24
-0.98
-1.48
-1.80
-2.10
-2.55
-3.22
-4.09
-5.02
-5.93
-6.78
-7.61
-8.44
-9.16
-9.56
-9.40
-8.56
-7.15
-5.45
-3.77
-2.28
-1.00
0.19
1.42
2.67
3.82
4.68
5.14
5.19
4.94
4.57
4.21
3.96
3.80
3.68
3.55
3.39
3.25
3.20
3.28
3.48
3.73
3.91
3.95
3.83
3.62
3.42
3.25
3.13
2.98
2.78
2.52
2.22
1.88
1.47
0.92
0.17
-0.77
-1.81
-2.82
-3.67
-4.29
-4.70
-4.95
-5.14
-5.37
-5.70
-6.16
-6.76
-7.47
-8.18
-8.80
-9.19
-9.23
-8.81
-7.92
-6.59
-4.95
-3.21
-1.55
-0.15
0.93
1.66
2.08
2.28
2.33
2.33
2.37
2.52
2.79
3.17
3.58
3.95
4.24
4.41
4.46
4.39
4.24
4.07
3.94
3.92
4.05
4.30
4.55
4.65
4.48
4.00
3.28
2.48
1.78
1.30
1.05
0.92
0.79
0.54
0.15
-0.33
-0.81
-1.22
-1.58
-1.97
-2.48
-3.16
-4.03
-5.00
-5.95
-6.75
-7.30
-7.51
-7.34
-6.77
-5.83
-4.61
-3.28
-1.96
-0.78
0.25
1.17
2.03
2.89
3.70
4.39
4.89
5.15
5.21
5.13
5.02
4.97
5.02
5.14
5.30
5.41
5.43
5.38
5.29
5.22
5.16
5.07
4.82
4.32
3.55
2.59
1.57
0.61
-0.22
-0.89
-1.44
-1.87
-2.19
-2.40
-2.54
-2.72
-3.02
-3.52
-4.19
-4.95
-5.69
-6.35
-6.95
-7.57
-8.25
-8.93
-9.41
-9.49
-9.03
-8.06
-6.71
-5.17
-3.60
-2.08
-0.63
0.70
1.84
2.71
3.26
3.55
3.72
3.90
4.17
4.52
4.84
5.04
5.08
5.02
4.98
5.06
5.32
5.70
6.05
6.21
6.10
5.76
5.30
4.88
4.58
4.39
4.22
3.96
3.57
3.09
2.56
2.03
1.49
0.93
0.32
-0.29
-0.88
-1.39
-1.83
-2.23
-2.62
-3.03
-3.47
-3.96
-4.55
-5.30
-6.25
-7.34
-8.43
-9.29
-9.67
-9.43
-8.54
-7.11
-5.35
-3.51
-1.78
-0.32
0.85
1.76
2.50
3.16
3.80
4.38
4.86
5.15
5.22
5.09
4.85
4.64
4.55
4.65
4.91
5.26
5.55
5.67
5.55
5.23
4.80
4.37
4.04
3.79
3.56
3.27
2.87
2.39
1.89
1.43
0.99
0.52
-0.06
-0.75
-1.49
-2.18
-2.74
-3.14
-3.44
-3.74
-4.16
-4.75
-5.49
-6.31
-7.10
-7.79
-8.35
-8.79
-9.15
-9.41
-9.50
-9.32
-8.79
-7.87
-6.66
-5.27
-3.84
-2.46
-1.17
0.00
1.02
1.83
2.38
2.65
2.69
2.62
2.56
2.61
2.81
3.14
3.57
4.06
4.55
4.99
5.31
5.43
5.31
4.98
4.52
4.01
3.52
3.09
2.72
2.41
2.17
1.98
1.78
1.47
0.94
0.18
-0.70
-1.53
-2.16
-2.53
-2.73
-2.94
-3.34
-4.04
-5.01
-6.09
-7.11
-7.84
-8.13
-7.88
-7.10
-5.90
-4.46
-2.98
-1.60
-0.35
0.81
1.92
2.97
3.90
4.60
5.06
5.32
5.51
5.73
5.98
6.21
6.31
6.24
6.05
5.81
5.57
5.35
5.09
4.74
4.32
3.88
3.49
3.19
2.95
2.72
2.42
2.00
1.47
0.85
0.19
-0.48
-1.10
-1.68
-2.22
-2.76
-3.35
-4.02
-4.77
-5.60
-6.48
-7.43
-8.39
-9.30
-10.01
-10.37
-10.26
-9.64
-8.61
-7.32
-5.95
-4.59
-3.26
-1.93
-0.57
0.78
2.05
3.14
3.96
4.52
4.85
5.06
5.22
5.38
5.56
5.72
5.78
5.71
5.47
5.12
4.75
4.49
4.41
4.49
4.63
4.70
4.57
4.20
3.63
2.96
2.28
1.63
0.99
0.32
-0.38
-1.11
-1.80
-2.41
-2.94
-3.44
-3.96
-4.54
-5.19
-5.90
-6.67
-7.49
-8.32
-9.06
-9.53
-9.52
-8.91
-7.69
-6.06
-4.33
-2.77
-1.56
-0.65
0.13
0.99
2.05
3.27
4.49
5.51
6.17
6.41
6.28
5.88
5.35
4.83
4.42
4.18
4.14
4.30
4.61
5.01
5.41
5.72
5.85
5.72
5.32
4.68
3.89
3.08
2.34
1.73
1.21
0.72
0.17
-0.48
-1.26
-2.12
-3.01
-3.84
-4.58
-5.22
-5.84
-6.51
-7.32
-8.27
-9.25
-10.07
-10.53
-10.45
-9.80
-8.60
-6.97
-5.11
-3.20
-1.44
0.01
1.07
1.75
2.09
2.21
2.20
2.13
2.06
2.06
2.20
2.51
2.94
3.41
3.77
3.93
3.88
3.68
3.48
3.37
3.42
3.57
3.73
3.77
3.58
3.10
2.38
1.50
0.59
-0.24
-0.93
-1.52
-2.07
-2.62
-3.19
-3.75
-4.30
-4.84
-5.43
-6.10
-6.80
-7.39
-7.68
-7.49
-6.75
-5.50
-3.92
-2.19
-0.44
1.23
2.77
4.13
5.23
6.01
6.43
6.55
6.46
6.28
6.10
5.90
5.62
5.23
4.75
4.27
3.92
3.77
3.80
3.92
4.02
4.02
3.94
3.81
3.62
3.37
2.98
2.42
1.69
0.84
-0.07
-0.99
-1.89
-2.74
-3.49
-4.10
-4.54
-4.86
-5.18
-5.63
-6.28
-7.08
-7.88
-8.45
-8.60
-8.25
-7.43
-6.30
-5.01
-3.68
-2.33
-0.96
0.45
1.83
3.06
3.99
4.55
4.77
4.78
4.75
4.79
4.93
5.10
5.23
5.29
5.27
5.24
5.23
5.26
5.27
5.19
4.96
4.57
4.08
3.58
3.15
2.82
2.54
2.20
1.72
1.09
0.34
-0.42
-1.13
-1.77
-2.36
-2.97
-3.58
-4.17
-4.71
-5.23
-5.78
-6.47
-7.36
-8.40
-9.41
-10.17
-10.46
-10.12
-9.13
-7.56
-5.62
-3.56
-1.63
-0.01
1.26
2.24
3.03
3.72
4.30
4.73
4.98
5.09
5.19
5.40
5.78
6.29
6.77
7.07
7.09
6.88
6.52
6.12
5.73
5.40
5.13
4.91
4.72
4.52
4.28
3.93
3.46
2.88
2.22
1.50
0.71
-0.15
-1.08
-2.02
-2.88
-3.54
-3.95
-4.11
-4.13
-4.16
-4.30
-4.61
-5.05
-5.55
-6.05
-6.55
-7.05
-7.60
-8.17
-8.67
-8.96
-8.91
-8.46
-7.64
-6.55
-5.30
-3.96
-2.58
-1.18
0.23
1.60
2.83
3.81
4.48
4.81
4.85
4.70
4.48
4.30
4.19
4.19
4.30
4.56
5.00
5.59
6.24
6.80
7.12
7.12
6.81
6.29
5.62
4.88
4.07
3.23
2.44
1.82
1.47
1.42
1.57
1.77
1.84
1.70
1.32
0.77
0.08
-0.69
-1.52
-2.39
-3.27
-4.15
-5.00
-5.81
-6.58
-7.29
-7.94
-8.51
-8.99
-9.34
-9.51
-9.45
-9.09
-8.41
-7.44
-6.25
-4.90
-3.46
-1.99
-0.56
0.73
1.79
2.53
2.95
3.09
3.05
2.96
2.89
2.89
2.98
3.16
3.43
3.78
4.15
4.47
4.65
4.62
4.37
3.99
3.60
3.32
3.16
3.08
2.95
2.68
2.24
1.69
1.12
0.60
0.13
-0.31
-0.76
-1.22
-1.66
-2.04
-2.38
-2.75
-3.27
-3.98
-4.91
-5.93
-6.84
-7.43
-7.53
-7.09
-6.20
-5.02
-3.76
-2.54
-1.41
-0.32
0.76
1.84
2.83
3.63
4.19
4.55
4.79
5.02
5.24
5.38
5.35
5.07
4.60
4.10
3.73
3.58
3.66
3.85
4.02
4.09
4.01
3.85
3.66
3.48
3.33
3.13
2.81
2.29
1.54
0.61
-0.40
-1.31
-2.00
-2.42
-2.62
-2.74
-2.93
-3.35
-4.04
-4.96
-5.98
-6.97
-7.80
-8.39
-8.68
-8.63
-8.22
-7.44
-6.32
-4.95
-3.46
-2.02
-0.73
0.32
1.12
1.72
2.18
2.52
2.78
3.00
3.19
3.41
3.66
3.93
4.13
4.19
4.06
3.82
3.64
3.70
4.10
4.75
5.42
5.87
5.89
5.50
4.82
4.07
3.41
2.95
2.63
2.35
1.96
1.31
0.35
-0.88
-2.22
-3.44
-4.35
-4.92
-5.30
-5.69
-6.27
-7.08
-7.96
-8.71
-9.15
-9.21
-8.94
-8.44
-7.80
-7.05
-6.19
-5.23
-4.17
-3.03
-1.84
-0.60
0.66
1.91
3.05
4.01
4.74
5.22
5.50
5.66
5.80
5.97
6.17
6.40
6.63
6.89
7.21
7.59
8.02
8.38
8.54
8.37
7.80
6.86
5.69
4.44
3.27
2.29
1.53
0.94
0.44
-0.08
-0.73
-1.54
-2.52
-3.59
-4.63
-5.51
-6.16
-6.60
-6.95
-7.39
-8.06
-8.96
-9.95
-10.78
-11.19
-11.00
-10.19
-8.84
-7.17
-5.35
-3.53
-1.80
-0.20
1.24
2.46
3.41
4.00
4.20
4.07
3.74
3.36
3.08
2.94
2.92
2.97
3.05
3.14
3.24
3.35
3.41
3.36
3.18
2.92
2.68
2.52
2.41
2.25
1.90
1.30
0.51
-0.30
-0.94
-1.34
-1.53
-1.65
-1.83
-2.10
-2.44
-2.77
-3.09
-3.41
-3.83
-4.41
-5.13
-5.87
-6.46
-6.74
-6.64
-6.15
-5.34
-4.27
-3.03
-1.66
-0.25
1.09
2.24
3.10
3.65
3.94
4.07
4.17
4.30
4.47
4.66
4.86
5.05
5.25
5.46
5.65
5.79
5.87
5.90
5.91
5.94
5.95
5.90
5.73
5.45
5.09
4.74
4.43
4.15
3.78
3.23
2.42
1.38
0.21
-0.92
-1.91
-2.69
-3.31
-3.90
-4.66
-5.71
-7.07
-8.54
-9.79
-10.53
-10.62
-10.20
-9.53
-8.86
-8.25
-7.53
-6.44
-4.87
-2.93
-0.94
0.77
2.03
2.86
3.44
3.97
4.50
4.96
5.16
4.94
4.26
3.21
2.08
1.17
0.76
0.93
1.52
2.23
2.75
2.92
2.78
2.51
2.26
2.13
2.07
1.96
1.77
1.50
1.16
0.77
0.29
-0.33
-1.06
-1.84
-2.58
-3.22
-3.83
-4.45
-5.16
-5.94
-6.70
-7.34
-7.77
-7.93
-7.75
-7.18
-6.16
-4.79
-3.25
-1.80
-0.66
0.15
0.73
1.26
1.80
2.26
2.45
2.28
1.81
1.28
0.97
1.03
1.42
1.98
2.54
3.02
3.44
3.85
4.27
4.63
4.85
4.89
4.76
4.48
4.10
3.63
3.07
2.42
1.71
0.96
0.26
-0.33
-0.78
-1.08
-1.33
-1.68
-2.28
-3.19
-4.37
-5.65
-6.82
-7.69
-8.13
-8.14
-7.76
-7.07
-6.15
-5.08
-3.91
-2.71
-1.53
-0.45
0.50
1.30
1.97
2.55
3.04
3.41
3.60
3.58
3.39
3.17
3.10
3.30
3.77
4.37
4.90
5.20
5.22
5.02
4.71
4.39
4.09
3.80
3.52
3.24
2.97
2.69
2.34
1.85
1.16
0.32
-0.58
-1.42
-2.08
-2.55
-2.88
-3.18
-3.54
-4.00
-4.51
-4.97
-5.23
-5.17
-4.71
-3.84
-2.66
-1.33
-0.01
1.14
2.07
2.74
3.18
3.42
3.48
3.41
3.27
3.13
3.04
3.04
3.12
3.24
3.40
3.57
3.75
3.90
3.94
3.81
3.47
2.98
2.40
1.86
1.41
1.06
0.79
0.55
0.30
0.01
-0.35
-0.78
-1.28
-1.82
-2.39
-2.99
-3.65
-4.37
-5.12
-5.81
-6.30
-6.46
-6.19
-5.52
-4.51
-3.28
-1.97
-0.72
0.36
1.18
1.72
1.96
1.94
1.74
1.46
1.21
1.11
1.25
1.60
2.06
2.49
2.78
2.89
2.90
2.93
3.07
3.34
3.62
3.81
3.78
3.51
3.05
2.48
1.89
1.36
0.94
0.64
0.45
0.31
0.21
0.12
0.02
-0.08
-0.24
-0.51
-0.95
-1.59
-2.44
-3.42
-4.45
-5.44
-6.31
-6.99
-7.44
-7.63
-7.54
-7.19
-6.59
-5.78
-4.79
-3.66
-2.47
-1.32
-0.33
0.41
0.87
1.09
1.13
1.09
1.01
0.92
0.85
0.83
0.91
1.17
1.63
2.25
2.96
3.66
4.23
4.62
4.80
4.75
4.50
4.07
3.53
2.96
2.48
2.18
2.08
2.13
2.22
2.24
2.11
1.81
1.41
0.95
0.51
0.07
-0.35
-0.76
-1.14
-1.47
-1.76
-2.03
-2.36
-2.80
-3.40
-4.11
-4.85
-5.45
-5.77
-5.70
-5.22
-4.37
-3.29
-2.13
-1.05
-0.11
0.68
1.40
2.10
2.77
3.35
3.76
3.89
3.73
3.36
2.92
2.53
2.32
2.30
2.45
2.70
2.95
3.13
3.15
2.99
2.63
2.15
1.63
1.14
0.73
0.39
0.08
-0.26
-0.64
-1.05
-1.43
-1.73
-1.95
-2.13
-2.31
-2.53
-2.78
-3.02
-3.20
-3.35
-3.52
-3.82
-4.34
-5.06
-5.84
-6.51
-6.88
-6.87
-6.48
-5.83
-5.03
-4.17
-3.29
-2.39
-1.47
-0.57
0.25
0.93
1.47
1.85
2.12
2.30
2.42
2.47
2.44
2.34
2.14
1.88
1.56
1.25
1.03
0.94
1.03
1.27
1.57
1.83
1.96
1.92
1.72
1.44
1.12
0.79
0.44
0.03
-0.42
-0.89
-1.32
-1.67
-1.96
-2.24
-2.58
-3.02
-3.56
-4.13
-4.73
-5.33
-5.99
-6.72
-7.47
-8.06
-8.25
-7.85
-6.81
-5.29
-3.58
-1.99
-0.74
0.11
0.66
1.06
1.45
1.87
2.25
2.51
2.59
2.53
2.45
2.47
2.67
3.02
3.41
3.67
3.72
3.60
3.42
3.34
3.40
3.59
3.80
3.90
3.81
3.56
3.19
2.79
2.35
1.84
1.26
0.63
0.02
-0.50
-0.90
-1.21
-1.52
-1.91
-2.45
-3.12
-3.87
-4.66
-5.43
-6.16
-6.80
-7.22
-7.33
-7.02
-6.26
-5.10
-3.68
-2.18
-0.75
0.48
1.44
2.12
2.53
2.72
2.74
2.64
2.51
2.37
2.23
2.10
1.97
1.86
1.82
1.89
2.11
2.40
2.67
2.82
2.77
2.53
2.20
1.87
1.64
1.50
1.41
1.26
1.00
0.61
0.13
-0.36
-0.79
-1.15
-1.46
-1.77
-2.11
-2.48
-2.86
-3.23
-3.62
-4.09
-4.72
-5.50
-6.34
-7.10
-7.57
-7.67
-7.38
-6.80
-6.03
-5.14
-4.14
-3.00
-1.74
-0.44
0.80
1.86
2.71
3.37
3.89
4.29
4.58
4.74
4.78
4.71
4.56
4.38
4.18
4.04
4.04
4.22
4.58
5.02
5.36
5.41
5.12
4.53
3.82
3.17
2.69
2.38
2.19
2.05
1.93
1.81
1.71
1.60
1.39
1.00
0.37
-0.43
-1.31
-2.09
-2.71
-3.19
-3.62
-4.18
-4.94
-5.88
-6.89
-7.74
-8.26
-8.32
-7.92
-7.11
-5.99
-4.67
-3.22
-1.71
-0.21
1.16
2.28
3.01
3.31
3.21
2.88
2.52
2.29
2.25
2.36
2.47
2.49
2.40
2.27
2.21
2.31
2.54
2.82
3.02
3.06
2.95
2.71
2.43
2.16
1.89
1.62
1.29
0.85
0.31
-0.32
-0.95
-1.52
-1.96
-2.28
-2.57
-2.95
-3.51
-4.30
-5.26
-6.25
-7.09
-7.59
-7.62
-7.11
-6.11
-4.72
-3.13
-1.49
0.07
1.46
2.64
3.55
4.12
4.32
4.19
3.85
3.47
3.21
3.15
3.28
3.50
3.71
3.86
3.94
3.97
3.97
3.98
4.01
4.11
4.31
4.62
4.99
5.29
5.37
5.14
4.58
3.74
2.75
1.69
0.62
-0.44
-1.43
-2.27
-2.87
-3.21
-3.33
-3.40
-3.59
-4.05
-4.77
-5.66
-6.50
-7.10
-7.31
-7.08
-6.44
-5.48
-4.32
-3.06
-1.80
-0.60
0.50
1.46
2.27
2.90
3.32
3.54
3.56
3.46
3.35
3.33
3.47
3.73
4.06
4.34
4.51
4.54
4.47
4.34
4.19
4.05
3.94
3.82
3.67
3.44
3.12
2.74
2.34
1.97
1.64
1.30
0.83
0.17
-0.67
-1.56
-2.35
-2.93
-3.30
-3.57
-3.90
-4.39
-5.07
-5.82
-6.52
-7.02
-7.25
-7.15
-6.74
-6.04
-5.08
-3.92
-2.63
-1.29
-0.00
1.17
2.19
3.03
3.66
4.07
4.26
4.23
4.04
3.74
3.41
3.14
2.99
3.00
3.15
3.35
3.49
3.48
3.28
2.95
2.56
2.20
1.88
1.58
1.25
0.91
0.62
0.48
0.57
0.84
1.14
1.30
1.18
0.75
0.14
-0.46
-0.88
-1.04
-1.02
-0.99
-1.13
-1.55
-2.21
-3.00
-3.74
-4.31
-4.62
-4.65
-4.40
-3.86
-3.07
-2.07
-0.95
0.16
1.16
1.98
2.55
2.86
2.90
2.72
2.42
2.12
1.92
1.89
2.02
2.24
2.50
2.71
2.85
2.87
2.79
2.62
2.41
2.21
2.08
2.01
1.91
1.69
1.24
0.58
-0.20
-0.95
-1.57
-2.03
-2.38
-2.75
-3.17
-3.66
-4.16
-4.62
-5.04
-5.44
-5.82
-6.12
-6.27
-6.14
-5.71
-5.02
-4.19
-3.29
-2.38
-1.43
-0.39
0.70
1.75
2.61
3.20
3.53
3.67
3.73
3.78
3.82
3.87
3.94
4.08
4.31
4.59
4.85
4.99
4.95
4.72
4.33
3.86
3.35
2.83
2.31
1.82
1.36
0.94
0.56
0.17
-0.29
-0.87
-1.59
-2.41
-3.28
-4.09
-4.79
-5.37
-5.88
-6.38
-6.93
-7.51
-8.04
-8.42
-8.56
-8.44
-8.07
-7.47
-6.70
-5.79
-4.79
-3.77
-2.83
-2.04
-1.45
-1.01
-0.67
-0.35
-0.04
0.27
0.56
0.82
1.07
1.31
1.58
1.85
2.14
2.42
2.71
3.02
3.32
3.57
3.74
3.78
3.69
3.52
3.33
3.17
3.08
3.03
2.97
2.79
2.39
1.75
0.93
0.07
-0.66
-1.16
-1.49
-1.77
-2.15
-2.72
-3.44
-4.24
-4.99
-5.65
-6.23
-6.72
-7.08
-7.15
-6.80
-5.93
-4.57
-2.91
-1.16
0.47
1.90
3.13
4.22
5.19
6.00
6.57
6.85
6.83
6.61
6.32
6.10
5.99
6.01
6.09
6.17
6.23
6.25
6.24
6.18
6.01
5.68
5.16
4.50
3.83
3.28
2.95
2.84
2.83
2.76
2.55
2.18
1.74
1.38
1.19
1.17
1.26
1.31
1.24
1.00
0.62
0.17
-0.30
-0.79
-1.34
-2.03
-2.86
-3.79
-4.71
-5.43
-5.83
-5.82
-5.44
-4.75
-3.87
-2.86
-1.79
-0.70
0.38
1.43
2.43
3.36
4.15
4.72
5.00
5.00
4.78
4.47
4.15
3.87
3.60
3.32
3.01
2.74
2.62
2.68
2.90
3.17
3.34
3.33
3.14
2.85
2.54
2.25
1.99
1.70
1.34
0.88
0.37
-0.13
-0.55
-0.86
-1.11
-1.41
-1.83
-2.45
-3.22
-4.08
-4.94
-5.73
-6.41
-6.91
-7.18
-7.13
-6.74
-6.07
-5.20
-4.23
-3.17
-2.01
-0.75
0.54
1.70
2.56
3.00
3.06
2.90
2.72
2.68
2.85
3.19
3.61
3.99
4.23
4.29
4.14
3.87
3.55
3.31
3.21
3.21
3.21
3.10
2.81
2.36
1.89
1.51
1.29
1.19
1.10
0.91
0.55
0.06
-0.48
-1.00
-1.44
-1.83
-2.21
-2.63
-3.11
-3.61
-4.11
-4.59
-5.07
-5.57
-6.15
-6.77
-7.38
-7.85
-8.05
-7.89
-7.35
-6.48
-5.41
-4.27
-3.16
-2.12
-1.19
-0.34
0.44
1.16
1.80
2.35
2.77
3.02
3.08
2.97
2.74
2.47
2.28
2.22
2.31
2.50
2.69
2.80
2.78
2.64
2.45
2.25
2.05
1.83
1.55
1.18
0.74
0.28
-0.12
-0.44
-0.72
-1.01
-1.36
-1.75
-2.07
-2.23
-2.22
-2.11
-2.09
-2.32
-2.88
-3.74
-4.72
-5.63
-6.37
-6.92
-7.34
-7.70
-8.02
-8.25
-8.29
-8.04
-7.45
-6.52
-5.34
-4.03
-2.66
-1.20
0.43
2.21
3.91
5.15
5.62
5.31
4.57
4.01
4.09
4.91
6.12
7.14
7.51
7.15
6.32
5.42
4.73
4.27
3.89
3.47
3.02
2.72
2.79
3.31
4.22
5.29
6.23
6.74
6.72
6.21
5.41
4.61
3.99
3.59
3.28
2.86
2.19
1.29
0.33
-0.49
-1.04
-1.39
-1.68
-2.04
-2.53
-3.03
-3.39
-3.49
-3.33
-2.97
-2.50
-1.97
-1.35
-0.69
-0.11
0.17
-0.04
-0.79
-1.93
-3.11
-3.98
-4.33
-4.16
-3.67
-3.14
-2.76
-2.60
-2.59
-2.60
-2.53
-2.34
-2.12
-1.98
-2.01
-2.22
-2.52
-2.77
-2.88
-2.82
-2.68
-2.56
-2.51
-2.53
-2.52
-2.44
-2.30
-2.19
-2.23
-2.54
-3.08
-3.74
-4.34
-4.73
-4.82
-4.61
-4.13
-3.44
-2.57
-1.57
-0.50
0.56
1.51
2.30
2.91
3.32
3.55
3.61
3.53
3.34
3.11
2.90
2.74
2.63
2.57
2.53
2.53
2.58
2.69
2.82
2.87
2.80
2.56
2.21
1.83
1.51
1.29
1.15
1.08
1.03
0.95
0.78
0.49
0.05
-0.50
-1.10
-1.68
-2.21
-2.69
-3.20
-3.82
-4.57
-5.38
-6.10
-6.56
-6.63
-6.28
-5.59
-4.69
-3.70
-2.67
-1.62
-0.54
0.51
1.43
2.11
2.47
2.58
2.54
2.50
2.51
2.56
2.55
2.44
2.24
2.06
2.02
2.11
2.24
2.25
2.05
1.66
1.26
1.05
1.14
1.49
1.90
2.11
1.95
1.41
0.61
-0.23
-0.91
-1.35
-1.57
-1.69
-1.81
-2.04
-2.40
-2.89
-3.47
-4.10
-4.73
-5.30
-5.74
-5.98
-5.96
-5.65
-5.06
-4.24
-3.25
-2.20
-1.15
-0.16
0.71
1.47
2.09
2.58
2.96
3.23
3.38
3.40
3.30
3.13
2.93
2.80
2.77
2.86
3.06
3.30
3.53
3.70
3.79
3.79
3.72
3.57
3.31
2.94
2.48
1.99
1.50
1.02
0.53
0.01
-0.51
-0.96
-1.29
-1.46
-1.53
-1.64
-1.89
-2.35
-3.01
-3.79
-4.58
-5.33
-5.98
-6.45
-6.63
-6.40
-5.71
-4.69
-3.53
-2.49
-1.70
-1.15
-0.68
-0.15
0.53
1.29
2.00
2.53
2.87
3.11
3.38
3.72
4.09
4.37
4.45
4.31
4.01
3.65
3.29
2.95
2.61
2.24
1.84
1.47
1.18
1.00
0.89
0.79
0.63
0.36
-0.02
-0.44
-0.84
-1.15
-1.38
-1.56
-1.74
-2.00
-2.34
-2.73
-3.07
-3.27
-3.25
-2.96
-2.43
-1.68
-0.78
0.20
1.18
2.08
2.78
3.23
3.42
3.42
3.32
3.24
3.28
3.42
3.60
3.75
3.85
3.93
4.07
4.29
4.53
4.66
4.55
4.14
3.47
2.70
1.96
1.31
0.68
0.00
-0.78
-1.57
-2.23
-2.63
-2.72
-2.62
-2.53
-2.63
-2.98
-3.56
-4.22
-4.87
-5.46
-5.98
-6.45
-6.84
-7.05
-6.97
-6.48
-5.58
-4.33
-2.88
-1.40
-0.04
1.14
2.12
2.90
3.51
3.91
4.05
3.93
3.58
3.13
2.72
2.49
2.47
2.62
2.87
3.15
3.44
3.71
3.94
4.09
4.10
3.97
3.76
3.52
3.29
3.06
2.73
2.23
1.56
0.77
-0.05
-0.84
-1.55
-2.19
-2.74
-3.18
-3.50
-3.72
-3.88
-4.06
-4.26
-4.49
-4.73
-4.98
-5.25
-5.53
-5.72
-5.63
-5.10
-4.05
-2.57
-0.91
0.62
1.77
2.47
2.83
3.05
3.30
3.64
3.96
4.09
3.89
3.38
2.72
2.14
1.82
1.79
1.92
2.05
2.06
1.98
1.92
1.95
2.07
2.19
2.18
2.02
1.75
1.49
1.28
1.09
0.78
0.24
-0.54
-1.45
-2.30
-2.93
-3.26
-3.34
-3.32
-3.35
-3.54
-3.94
-4.51
-5.14
-5.70
-6.06
-6.09
-5.72
-4.93
-3.81
-2.47
-1.09
0.22
1.38
2.36
3.19
3.85
4.32
4.57
4.60
4.47
4.27
4.12
4.05
4.04
4.00
3.85
3.59
3.28
3.05
2.96
3.00
3.07
3.05
2.89
2.61
2.26
1.90
1.51
1.08
0.59
0.06
-0.45
-0.89
-1.29
-1.70
-2.20
-2.81
-3.52
-4.24
-4.92
-5.53
-6.02
-6.37
-6.49
-6.26
-5.59
-4.51
-3.15
-1.75
-0.53
0.40
1.06
1.58
2.08
2.62
3.12
3.46
3.54
3.35
3.00
2.65
2.42
2.34
2.40
2.53
2.68
2.84
2.96
3.02
3.01
2.92
2.77
2.59
2.41
2.22
1.97
1.65
1.27
0.84
0.40
-0.07
-0.57
-1.15
-1.81
-2.54
-3.32
-4.12
-4.93
-5.69
-6.34
-6.77
-6.91
-6.67
-6.06
-5.11
-3.90
-2.54
-1.13
0.23
1.49
2.61
3.55
4.28
4.77
4.99
4.94
4.65
4.19
3.66
3.14
2.69
2.33
2.07
1.88
1.77
1.70
1.60
1.42
1.14
0.81
0.54
0.42
0.48
0.65
0.80
0.79
0.53
0.05
-0.56
-1.22
-1.87
-2.51
-3.20
-3.96
-4.76
-5.49
-5.97
-6.09
-5.75
-4.99
-3.94
-2.75
-1.57
-0.49
0.46
1.25
1.87
2.31
2.62
2.86
3.12
3.43
3.73
3.91
3.89
3.67
3.36
3.12
3.07
3.21
3.39
3.47
3.33
2.97
2.47
1.97
1.59
1.38
1.33
1.36
1.36
1.18
0.74
0.02
-0.91
-1.96
-3.01
-4.02
-4.99
-5.91
-6.75
-7.43
-7.77
-7.64
-7.00
-5.90
-4.46
-2.87
-1.28
0.18
1.40
2.30
2.84
3.03
3.00
2.88
2.81
2.87
3.04
3.22
3.30
3.19
2.85
2.34
1.76
1.25
0.93
0.86
1.04
1.37
1.70
1.88
1.81
1.46
0.91
0.25
-0.42
-1.00
-1.47
-1.82
-2.07
-2.33
-2.70
-3.29
-4.15
-5.18
-6.20
-6.94
-7.19
-6.84
-5.95
-4.70
-3.36
-2.12
-1.08
-0.22
0.57
1.38
2.22
3.04
3.73
4.23
4.52
4.67
4.78
4.91
5.06
5.19
5.26
5.27
5.25
5.26
5.31
5.38
5.39
5.27
5.01
4.64
4.25
3.87
3.50
3.08
2.58
2.00
1.36
0.77
0.24
-0.20
-0.60
-1.00
-1.43
-1.89
-2.41
-2.99
-3.62
-4.25
-4.79
-5.10
-5.15
-5.04
-4.98
-5.23
-5.90
-6.91
-8.02
-8.87
-9.22
-8.96
-8.16
-7.00
-5.66
-4.22
-2.74
-1.21
0.32
1.75
2.95
3.79
4.24
4.35
4.27
4.16
4.18
4.38
4.75
5.20
5.60
5.86
5.95
5.87
5.68
5.43
5.16
4.89
4.61
4.35
4.11
3.91
3.72
3.48
3.14
2.64
1.95
1.06
0.00
-1.16
-2.36
-3.51
-4.57
-5.55
-6.51
-7.44
-8.32
-9.03
-9.45
-9.47
-9.11
-8.44
-7.58
-6.61
-5.55
-4.39
-3.20
-2.07
-1.19
-0.68
-0.51
-0.54
-0.57
-0.45
-0.16
0.22
0.56
0.78
0.87
0.83
0.69
0.49
0.32
0.33
0.74
1.70
3.24
5.20
7.23
8.91
9.88
9.96
9.21
7.84
6.17
4.47
2.92
1.59
0.47
-0.50
-1.37
-2.17
-2.98
-3.89
-4.92
-6.09
-7.24
-8.19
-8.70
-8.62
-7.90
-6.65
-5.07
-3.42
-1.92
-0.72
0.14
0.72
1.12
1.47
1.83
2.25
2.69
3.10
3.44
3.71
3.93
4.16
4.43
4.70
4.90
4.93
4.76
4.41
3.96
3.50
3.05
2.56
1.97
1.26
0.49
-0.25
-0.89
-1.40
-1.78
-2.10
-2.43
-2.82
-3.30
-3.90
-4.57
-5.25
-5.85
-6.27
-6.44
-6.32
-5.89
-5.16
-4.17
-2.98
-1.71
-0.51
0.51
1.30
1.90
2.35
2.74
3.06
3.26
3.29
3.14
2.87
2.58
2.41
2.44
2.68
3.06
3.44
3.71
3.82
3.83
3.80
3.82
3.91
4.00
3.98
3.76
3.35
2.85
2.38
2.01
1.71
1.38
0.87
0.15
-0.72
-1.62
-2.42
-3.10
-3.74
-4.40
-5.12
-5.84
-6.43
-6.80
-6.93
-6.85
-6.60
-6.17
-5.50
-4.53
-3.29
-1.91
-0.60
0.45
1.19
1.69
2.12
2.59
3.14
3.70
4.13
4.34
4.32
4.15
3.93
3.78
3.73
3.73
3.71
3.61
3.41
3.15
2.87
2.62
2.37
2.08
1.67
1.16
0.57
-0.01
-0.53
-1.03
-1.59
-2.26
-3.05
-3.87
-4.62
-5.24
-5.70
-6.04
-6.24
-6.26
-5.99
-5.34
-4.32
-3.02
-1.63
-0.30
0.88
1.88
2.70
3.33
3.73
3.83
3.62
3.16
2.59
2.06
1.71
1.59
1.64
1.72
1.71
1.57
1.36
1.17
1.13
1.25
1.46
1.66
1.70
1.54
1.20
0.74
0.25
-0.17
-0.47
-0.69
-0.92
-1.32
-2.05
-3.18
-4.63
-6.19
-7.53
-8.37
-8.54
-8.00
-6.89
-5.42
-3.77
-2.12
-0.58
0.80
1.98
2.95
3.70
4.24
4.55
4.63
4.48
4.17
3.81
3.47
3.25
3.17
3.21
3.33
3.46
3.56
3.54
3.39
3.09
2.67
2.21
1.76
1.35
1.00
0.66
0.32
-0.04
-0.45
-0.92
-1.49
-2.17
-2.96
-3.80
-4.60
-5.31
-5.89
-6.36
-6.74
-7.03
-7.16
-7.05
-6.67
-6.01
-5.13
-4.09
-2.96
-1.78
-0.59
0.55
1.54
2.33
2.90
3.29
3.58
3.85
4.15
4.50
4.87
5.24
5.56
5.81
5.92
5.88
5.65
5.28
4.85
4.46
4.19
4.06
3.99
3.86
3.49
2.82
1.86
0.72
-0.39
-1.35
-2.09
-2.67
-3.16
-3.67
-4.21
-4.74
-5.24
-5.68
-6.08
-6.42
-6.64
-6.60
-6.13
-5.17
-3.76
-2.11
-0.47
0.96
2.08
2.87
3.39
3.68
3.78
3.74
3.66
3.66
3.81
4.11
4.43
4.60
4.50
4.16
3.70
3.30
3.06
2.97
2.91
2.78
2.52
2.19
1.89
1.70
1.61
1.54
1.39
1.09
0.65
0.16
-0.29
-0.68
-1.03
-1.38
-1.81
-2.36
-3.03
-3.81
-4.63
-5.40
-5.99
-6.28
-6.16
-5.61
-4.66
-3.42
-2.01
-0.58
0.74
1.81
2.54
2.92
3.00
2.90
2.74
2.58
2.43
2.23
1.97
1.64
1.32
1.06
0.92
0.93
1.07
1.28
1.51
1.68
1.73
1.61
1.33
0.91
0.41
-0.12
-0.63
-1.10
-1.51
-1.88
-2.21
-2.56
-2.96
-3.49
-4.14
-4.88
-5.56
-6.00
-6.03
-5.56
-4.64
-3.44
-2.18
-1.05
-0.11
0.67
1.38
2.07
2.70
3.20
3.50
3.59
3.54
3.40
3.20
2.95
2.63
2.26
1.91
1.67
1.58
1.62
1.70
1.75
1.74
1.69
1.67
1.71
1.82
1.91
1.93
1.83
1.58
1.19
0.69
0.10
-0.54
-1.19
-1.81
-2.37
-2.85
-3.30
-3.77
-4.37
-5.16
-6.14
-7.21
-8.17
-8.77
-8.78
-8.10
-6.79
-5.10
-3.30
-1.66
-0.29
0.79
1.66
2.37
2.91
3.26
3.41
3.43
3.42
3.48
3.65
3.87
4.06
4.15
4.15
4.16
4.26
4.42
4.56
4.52
4.24
3.74
3.18
2.72
2.43
2.26
2.10
1.84
1.48
1.10
0.78
0.51
0.22
-0.21
-0.85
-1.64
-2.47
-3.22
-3.87
-4.42
-4.91
-5.33
-5.64
-5.73
-5.55
-5.07
-4.33
-3.38
-2.29
-1.14
-0.02
0.99
1.81
2.44
2.90
3.27
3.56
3.77
3.87
3.85
3.74
3.59
3.46
3.36
3.25
3.11
2.93
2.73
2.57
2.45
2.35
2.20
1.94
1.55
1.01
0.34
-0.44
-1.27
-2.07
-2.72
-3.15
-3.35
-3.42
-3.52
-3.78
-4.28
-4.98
-5.79
-6.60
-7.33
-7.93
-8.36
-8.54
-8.42
-7.94
-7.09
-5.90
-4.46
-2.88
-1.30
0.15
1.31
2.09
2.47
2.50
2.33
2.09
1.89
1.78
1.73
1.73
1.77
1.87
2.04
2.28
2.53
2.75
2.92
3.04
3.15
3.28
3.38
3.38
3.20
2.80
2.23
1.61
1.09
0.76
0.63
0.62
0.60
0.47
0.18
-0.23
-0.69
-1.15
-1.56
-1.91
-2.19
-2.37
-2.43
-2.36
-2.15
-1.84
-1.47
-1.06
-0.63
-0.17
0.30
0.77
1.19
1.52
1.73
1.82
1.82
1.78
1.71
1.60
1.47
1.34
1.26
1.31
1.53
1.91
2.34
2.65
2.72
2.55
2.24
1.94
1.77
1.74
1.71
1.54
1.13
0.55
-0.02
-0.38
-0.44
-0.27
-0.11
-0.20
-0.67
-1.47
-2.44
-3.36
-4.13
-4.72
-5.24
-5.76
-6.24
-6.57
-6.59
-6.21
-5.45
-4.46
-3.36
-2.27
-1.20
-0.15
0.90
1.92
2.81
3.52
4.00
4.29
4.44
4.51
4.55
4.57
4.60
4.65
4.75
4.88
5.04
5.16
5.23
5.24
5.24
5.24
5.23
5.14
4.86
4.33
3.56
2.60
1.57
0.58
-0.32
-1.10
-1.76
-2.32
-2.78
-3.17
-3.57
-4.08
-4.77
-5.66
-6.66
-7.62
-8.41
-8.95
-9.21
-9.24
-9.04
-8.64
-8.05
-7.27
-6.35
-5.34
-4.24
-3.10
-1.92
-0.76
0.27
1.01
1.38
1.34
1.03
0.67
0.45
0.50
0.80
1.22
1.57
1.72
1.63
1.38
1.11
0.93
0.93
1.14
1.50
1.89
2.19
2.28
2.10
1.67
1.12
0.55
0.08
-0.27
-0.54
-0.77
-0.99
-1.20
-1.39
-1.64
-2.04
-2.69
-3.53
-4.39
-4.97
-5.03
-4.47
-3.37
-1.93
-0.40
1.05
2.32
3.40
4.26
4.87
5.18
5.18
4.91
4.48
4.03
3.65
3.40
3.25
3.17
3.13
3.11
3.13
3.18
3.26
3.31
3.31
3.22
3.09
2.97
2.89
2.84
2.73
2.43
1.85
0.98
-0.09
-1.19
-2.18
-2.97
-3.58
-4.10
-4.64
-5.28
-6.03
-6.81
-7.48
-7.90
-7.96
-7.59
-6.83
-5.79
-4.59
-3.30
-1.98
-0.61
0.79
2.17
3.39
4.36
4.98
5.26
5.29
5.21
5.13
5.10
5.13
5.15
5.11
4.98
4.78
4.54
4.34
4.25
4.31
4.50
4.75
4.94
4.94
4.64
4.04
3.20
2.30
1.52
0.98
0.68
0.46
0.12
-0.51
-1.45
-2.58
-3.72
-4.74
-5.62
-6.38
-7.07
-7.68
-8.07
-8.11
-7.73
-6.92
-5.80
-4.52
-3.20
-1.94
-0.82
0.13
0.87
1.41
1.81
2.16
2.53
2.92
3.31
3.63
3.85
3.98
4.07
4.21
4.44
4.73
5.00
5.12
5.02
4.69
4.22
3.74
3.38
3.20
3.18
3.24
3.27
3.16
2.86
2.32
1.57
0.64
-0.36
-1.35
-2.24
-2.98
-3.63
-4.23
-4.85
-5.51
-6.17
-6.78
-7.29
-7.65
-7.78
-7.65
-7.23
-6.49
-5.45
-4.19
-2.81
-1.43
-0.15
0.95
1.82
2.45
2.79
2.86
2.71
2.43
2.13
1.94
1.92
2.05
2.25
2.43
2.50
2.44
2.32
2.18
2.07
1.94
1.77
1.51
1.15
0.74
0.32
-0.08
-0.43
-0.75
-1.04
-1.28
-1.48
-1.65
-1.83
-2.06
-2.41
-2.91
-3.56
-4.38
-5.34
-6.39
-7.44
-8.34
-8.90
-9.00
-8.58
-7.67
-6.37
-4.84
-3.22
-1.64
-0.18
1.11
2.19
3.03
3.62
3.96
4.09
4.06
3.94
3.78
3.61
3.44
3.28
3.13
3.00
2.89
2.81
2.77
2.71
2.62
2.46
2.21
1.90
1.58
1.30
1.09
0.91
0.72
0.50
0.24
-0.03
-0.30
-0.59
-0.97
-1.51
-2.21
-2.98
-3.71
-4.27
-4.60
-4.68
-4.53
-4.16
-3.57
-2.77
-1.76
-0.59
0.70
2.03
3.32
4.43
5.23
5.62
5.59
5.24
4.76
4.32
4.03
3.91
3.91
3.98
4.07
4.18
4.25
4.23
4.04
3.65
3.07
2.42
1.82
1.37
1.11
1.00
0.95
0.86
0.67
0.36
-0.08
-0.65
-1.34
-2.15
-3.08
-4.06
-5.07
-6.06
-7.00
-7.90
-8.72
-9.34
-9.62
-9.39
-8.54
-7.15
-5.40
-3.56
-1.90
-0.54
0.51
1.30
1.92
2.39
2.72
2.91
3.00
3.11
3.34
3.73
4.27
4.81
5.22
5.44
5.50
5.55
5.74
6.13
6.63
7.04
7.17
6.91
6.31
5.51
4.65
3.79
2.94
2.01
1.00
-0.10
-1.20
-2.25
-3.23
-4.14
-5.04
-5.96
-6.92
-7.87
-8.70
-9.26
-9.42
-9.13
-8.42
-7.40
-6.20
-4.95
-3.70
-2.52
-1.42
-0.42
0.50
1.39
2.27
3.10
3.80
4.22
4.27
3.96
3.43
2.87
2.45
2.22
2.17
2.24
2.37
2.56
2.81
3.11
3.39
3.56
3.49
3.13
2.50
1.69
0.82
0.02
-0.65
-1.16
-1.53
-1.84
-2.16
-2.57
-3.13
-3.88
-4.77
-5.74
-6.63
-7.28
-7.58
-7.50
-7.10
-6.49
-5.76
-4.97
-4.07
-3.02
-1.79
-0.43
0.92
2.07
2.88
3.30
3.39
3.32
3.26
3.32
3.52
3.78
4.00
4.09
4.04
3.88
3.69
3.54
3.50
3.57
3.72
3.89
4.03
4.07
3.99
3.78
3.46
3.03
2.50
1.83
1.03
0.11
-0.89
-1.87
-2.80
-3.60
-4.28
-4.82
-5.23
-5.48
-5.51
-5.27
-4.69
-3.78
-2.54
-1.11
0.40
1.82
3.03
3.94
4.55
4.87
4.95
4.85
4.64
4.41
4.20
4.02
3.84
3.61
3.30
2.97
2.70
2.60
2.70
2.93
3.17
3.30
3.23
2.97
2.58
2.12
1.63
1.15
0.69
0.31
0.03
-0.16
-0.35
-0.64
-1.16
-1.96
-2.97
-4.07
-5.09
-5.92
-6.52
-6.98
-7.40
-7.86
-8.37
-8.83
-9.09
-8.99
-8.47
-7.54
-6.27
-4.80
-3.21
-1.60
-0.09
1.22
2.21
2.82
3.06
3.05
2.94
2.92
3.12
3.54
4.12
4.69
5.10
5.28
5.22
5.02
4.79
4.66
4.66
4.75
4.85
4.88
4.80
4.64
4.45
4.27
4.09
3.88
3.58
3.16
2.65
2.10
1.60
1.24
1.02
0.92
0.86
0.76
0.50
0.01
-0.75
-1.73
-2.81
-3.81
-4.61
-5.15
-5.53
-5.90
-6.40
-7.06
-7.77
-8.32
-8.57
-8.44
-8.01
-7.36
-6.57
-5.66
-4.60
-3.39
-2.13
-0.94
0.04
0.77
1.29
1.72
2.18
2.74
3.34
3.90
4.28
4.44
4.41
4.31
4.34
4.58
5.04
5.56
5.92
5.99
5.75
5.32
4.89
4.59
4.40
4.24
3.97
3.54
3.00
2.45
1.98
1.60
1.26
0.89
0.49
0.08
-0.27
-0.53
-0.71
-0.87
-1.07
-1.36
-1.71
-2.07
-2.39
-2.64
-2.85
-3.05
-3.31
-3.66
-4.14
-4.76
-5.49
-6.25
-6.95
-7.45
-7.63
-7.42
-6.83
-5.92
-4.81
-3.63
-2.50
-1.47
-0.61
0.07
0.56
0.88
1.07
1.21
1.39
1.66
2.03
2.48
2.95
3.37
3.66
3.76
3.66
3.36
2.93
2.48
2.12
1.94
1.97
2.13
2.27
2.25
1.98
1.46
0.82
0.17
-0.37
-0.77
-1.05
-1.23
-1.33
-1.37
-1.38
-1.38
-1.43
-1.53
-1.68
-1.87
-2.09
-2.38
-2.82
-3.41
-4.09
-4.73
-5.17
-5.27
-5.01
-4.44
-3.66
-2.76
-1.79
-0.79
0.21
1.16
1.99
2.66
3.15
3.49
3.72
3.86
3.89
3.84
3.79
3.83
4.09
4.59
5.23
5.80
6.06
5.89
5.33
4.55
3.80
3.21
2.83
2.57
2.31
2.01
1.65
1.30
0.99
0.75
0.55
0.36
0.14
-0.10
-0.37
-0.67
-1.02
-1.46
-2.03
-2.73
-3.56
-4.49
-5.45
-6.37
-7.17
-7.79
-8.16
-8.26
-8.09
-7.71
-7.15
-6.46
-5.63
-4.63
-3.42
-2.03
-0.57
0.76
1.73
2.22
2.25
2.02
1.81
1.83
2.16
2.67
3.18
3.49
3.55
3.42
3.22
3.04
2.92
2.84
2.76
2.68
2.60
2.55
2.52
2.47
2.38
2.29
2.21
2.18
2.19
2.19
2.08
1.83
1.40
0.82
0.12
-0.64
-1.40
-2.10
-2.69
-3.14
-3.46
-3.72
-3.97
-4.28
-4.63
-4.99
-5.26
-5.37
-5.28
-4.98
-4.53
-3.95
-3.30
-2.61
-1.92
-1.27
-0.69
-0.19
0.26
0.68
1.12
1.55
1.96
2.28
2.43
2.39
2.17
1.86
1.56
1.38
1.42
1.72
2.23
2.82
3.35
3.63
3.58
3.22
2.65
2.01
1.42
0.96
0.67
0.55
0.58
0.72
0.89
0.94
0.79
0.41
-0.13
-0.70
-1.20
-1.59
-1.93
-2.31
-2.76
-3.22
-3.60
-3.78
-3.74
-3.48
-3.06
-2.50
-1.83
-1.05
-0.18
0.76
1.68
2.53
3.20
3.62
3.73
3.55
3.14
2.65
2.19
1.84
1.57
1.34
1.11
0.91
0.81
0.85
1.00
1.17
1.25
1.18
0.99
0.80
0.68
0.66
0.66
0.55
0.23
-0.32
-0.99
-1.65
-2.21
-2.65
-3.05
-3.51
-4.08
-4.76
-5.52
-6.25
-6.89
-7.37
-7.63
-7.62
-7.29
-6.62
-5.68
-4.56
-3.37
-2.24
-1.22
-0.36
0.34
0.90
1.34
1.69
1.95
2.14
2.29
2.41
2.52
2.65
2.81
2.98
3.14
3.27
3.39
3.52
3.67
3.86
4.02
4.09
4.01
3.79
3.47
3.12
2.79
2.49
2.13
1.67
1.07
0.38
-0.34
-1.01
-1.63
-2.21
-2.82
-3.47
-4.15
-4.80
-5.37
-5.79
-5.98
-5.89
-5.47
-4.73
-3.73
-2.57
-1.36
-0.20
0.82
1.61
2.12
2.32
2.24
2.01
1.77
1.60
1.50
1.42
1.31
1.22
1.25
1.48
1.90
2.40
2.82
3.06
3.11
3.04
2.94
2.87
2.83
2.81
2.79
2.74
2.60
2.20
1.48
0.48
-0.57
-1.31
-1.52
-1.19
-0.65
-0.34
-0.62
-1.55
-2.93
-4.41
-5.68
-6.61
-7.19
-7.48
-7.45
-7.03
-6.18
-4.98
-3.64
-2.42
-1.51
-0.96
-0.65
-0.43
-0.18
0.16
0.56
0.95
1.27
1.45
1.46
1.29
0.98
0.65
0.41
0.38
0.59
1.01
1.53
2.06
2.55
3.00
3.37
3.59
3.58
3.30
2.80
2.24
1.85
1.76
2.02
2.52
3.09
3.56
3.80
3.76
3.44
2.84
2.01
0.97
-0.19
-1.39
-2.46
-3.24
-3.55
-3.33
-2.61
-1.57
-0.48
0.44
1.05
1.35
1.44
1.44
1.43
1.45
1.52
1.65
1.84
2.06
2.25
2.34
2.27
2.07
1.82
1.61
1.52
1.53
1.55
1.45
1.15
0.65
0.04
-0.52
-0.95
-1.20
-1.33
-1.43
-1.57
-1.78
-2.04
-2.29
-2.55
-2.87
-3.31
-3.90
-4.58
-5.19
-5.50
-5.38
-4.80
-3.86
-2.71
-1.52
-0.40
0.62
1.51
2.23
2.77
3.10
3.24
3.24
3.18
3.09
3.00
2.89
2.77
2.67
2.63
2.69
2.84
3.03
3.20
3.31
3.33
3.29
3.20
3.08
2.90
2.66
2.35
1.98
1.59
1.21
0.85
0.44
-0.11
-0.89
-1.92
-3.13
-4.35
-5.35
-5.95
-6.09
-5.81
-5.26
-4.57
-3.87
-3.18
-2.46
-1.67
-0.76
0.22
1.21
2.09
2.76
3.15
3.22
3.02
2.66
2.30
2.07
2.08
2.30
2.63
2.89
2.92
2.66
2.16
1.61
1.19
1.05
1.21
1.55
1.87
1.99
1.79
1.30
0.62
-0.07
-0.66
-1.10
-1.46
-1.82
-2.25
-2.78
-3.38
-4.03
-4.68
-5.29
-5.79
-6.04
-5.91
-5.33
-4.35
-3.15
-1.97
-0.98
-0.23
0.34
0.87
1.39
1.89
2.26
2.41
2.35
2.18
2.05
2.04
2.16
2.36
2.55
2.71
2.85
3.03
3.26
3.53
3.77
3.90
3.86
3.62
3.22
2.69
2.12
1.57
1.09
0.69
0.31
-0.10
-0.61
-1.21
-1.84
-2.38
-2.72
-2.86
-2.85
-2.82
-2.93
-3.28
-3.86
-4.58
-5.27
-5.74
-5.85
-5.58
-4.97
-4.15
-3.24
-2.34
-1.44
-0.50
0.52
1.58
2.59
3.39
3.86
3.98
3.86
3.64
3.50
3.54
3.78
4.17
4.60
4.98
5.27
5.42
5.41
5.27
5.01
4.68
4.31
3.92
3.51
3.07
2.57
2.02
1.43
0.85
0.30
-0.22
-0.77
-1.39
-2.06
-2.76
-3.38
-3.84
-4.07
-4.07
-3.95
-3.84
-3.93
-4.37
-5.20
-6.33
-7.55
-8.58
-9.16
-9.19
-8.72
-7.94
-7.06
-6.18
-5.32
-4.37
-3.29
-2.10
-0.93
0.07
0.79
1.21
1.39
1.43
1.40
1.34
1.32
1.36
1.50
1.76
2.11
2.49
2.85
3.14
3.32
3.36
3.24
2.96
2.56
2.14
1.78
1.54
1.41
1.32
1.18
0.93
0.55
0.07
-0.47
-0.98
-1.40
-1.69
-1.88
-1.99
-2.10
-2.26
-2.52
-2.92
-3.45
-4.09
-4.78
-5.37
-5.66
-5.54
-4.98
-4.11
-3.15
-2.29
-1.61
-1.02
-0.41
0.34
1.17
1.94
2.44
2.58
2.38
2.03
1.77
1.75
2.03
2.53
3.09
3.54
3.75
3.70
3.43
3.08
2.81
2.71
2.79
2.97
3.10
3.08
2.88
2.56
2.20
1.88
1.59
1.28
0.90
0.43
-0.09
-0.62
-1.15
-1.66
-2.17
-2.70
-3.27
-3.88
-4.55
-5.24
-5.90
-6.42
-6.69
-6.68
-6.37
-5.82
-5.08
-4.19
-3.18
-2.09
-0.99
0.01
0.78
1.26
1.43
1.33
1.08
0.83
0.69
0.71
0.86
1.05
1.15
1.09
0.89
0.65
0.48
0.47
0.62
0.87
1.13
1.32
1.41
1.40
1.28
1.03
0.61
0.02
-0.73
-1.57
-2.38
-3.05
-3.50
-3.71
-3.74
-3.68
-3.64
-3.70
-3.88
-4.18
-4.57
-5.00
-5.39
-5.65
-5.64
-5.28
-4.55
-3.51
-2.30
-1.04
0.10
1.05
1.75
2.21
2.45
2.53
2.50
2.43
2.35
2.34
2.43
2.66
3.00
3.37
3.65
3.76
3.68
3.45
3.23
3.11
3.15
3.26
3.29
3.11
2.68
2.05
1.36
0.71
0.17
-0.25
-0.56
-0.80
-0.97
-1.11
-1.28
-1.59
-2.14
-3.00
-4.13
-5.40
-6.60
-7.48
-7.85
-7.62
-6.83
-5.62
-4.23
-2.87
-1.70
-0.74
0.09
0.90
1.81
2.82
3.87
4.82
5.55
6.02
6.25
6.34
6.34
6.27
6.11
5.83
5.50
5.25
5.24
5.54
6.05
6.57
6.84
6.74
6.30
5.66
5.00
4.45
3.96
3.49
2.95
2.37
1.78
1.27
0.84
0.46
0.08
-0.37
-0.90
-1.49
-2.11
-2.71
-3.31
-3.94
-4.61
-5.29
-5.90
-6.29
-6.35
-6.02
-5.31
-4.35
-3.26
-2.17
-1.14
-0.17
0.73
1.57
2.33
3.00
3.55
3.94
4.16
4.21
4.14
4.01
3.92
3.93
4.05
4.24
4.43
4.58
4.72
4.86
5.02
5.17
5.23
5.13
4.83
4.36
3.82
3.30
2.86
2.47
2.07
1.62
1.09
0.50
-0.10
-0.69
-1.25
-1.81
-2.38
-2.97
-3.59
-4.24
-4.94
-5.68
-6.48
-7.27
-7.97
-8.48
-8.69
-8.55
-8.07
-7.30
-6.31
-5.18
-3.93
-2.60
-1.23
0.11
1.32
2.30
2.99
3.35
3.41
3.23
2.91
2.51
2.11
1.74
1.48
1.41
1.58
2.02
2.66
3.35
3.89
4.12
3.97
3.55
3.05
2.66
2.48
2.47
2.48
2.34
1.98
1.41
0.75
0.11
-0.42
-0.85
-1.18
-1.45
-1.66
-1.82
-1.97
-2.16
-2.44
-2.83
-3.30
-3.73
-4.01
-4.05
-3.80
-3.29
-2.61
-1.87
-1.14
-0.47
0.15
0.76
1.37
1.98
2.51
2.89
3.10
3.14
3.07
2.96
2.86
2.80
2.82
2.93
3.16
3.52
3.96
4.44
4.87
5.17
5.31
5.30
5.17
4.96
4.72
4.48
4.27
4.07
3.86
3.59
3.17
2.60
1.89
1.11
0.34
-0.37
-1.03
-1.64
-2.24
-2.81
-3.35
-3.89
-4.48
-5.19
-6.09
-7.15
-8.24
-9.13
-9.63
-9.62
-9.11
-8.25
-7.21
-6.13
-5.04
-3.94
-2.79
-1.62
-0.51
0.44
1.21
1.83
2.38
2.92
3.42
3.82
4.04
4.04
3.86
3.61
3.34
3.10
2.85
2.57
2.23
1.87
1.51
1.17
0.88
0.65
0.49
0.44
0.50
0.65
0.86
1.04
1.14
1.10
0.90
0.53
0.04
-0.53
-1.10
-1.62
-2.10
-2.54
-2.99
-3.48
-4.01
-4.59
-5.22
-5.90
-6.61
-7.28
-7.78
-7.95
-7.66
-6.91
-5.78
-4.42
-3.02
-1.68
-0.46
0.64
1.58
2.32
2.83
3.10
3.16
3.06
2.87
2.64
2.43
2.28
2.22
2.27
2.42
2.66
2.99
3.40
3.90
4.42
4.86
5.09
5.00
4.57
3.87
3.09
2.40
1.94
1.74
1.76
1.84
1.87
1.74
1.41
0.92
0.36
-0.18
-0.66
-1.06
-1.39
-1.68
-1.99
-2.36
-2.79
-3.29
-3.85
-4.42
-4.96
-5.41
-5.74
-5.89
-5.83
-5.49
-4.88
-4.04
-3.07
-2.11
-1.25
-0.56
0.01
0.52
1.05
1.57
2.01
2.28
2.34
2.25
2.11
2.05
2.13
2.30
2.49
2.62
2.68
2.76
2.95
3.29
3.72
4.07
4.18
3.95
3.42
2.76
2.14
1.68
1.40
1.20
0.95
0.57
0.05
-0.55
-1.11
-1.55
-1.82
-1.98
-2.08
-2.19
-2.36
-2.63
-3.02
-3.51
-4.07
-4.59
-4.93
-4.91
-4.45
-3.56
-2.38
-1.10
0.05
0.95
1.57
1.95
2.20
2.41
2.61
2.78
2.88
2.85
2.69
2.44
2.21
2.12
2.22
2.51
2.89
3.23
3.41
3.38
3.16
2.83
2.47
2.15
1.93
1.85
1.93
2.12
2.34
2.45
2.38
2.08
1.63
1.09
0.53
-0.02
-0.61
-1.24
-1.87
-2.45
-2.92
-3.31
-3.70
-4.22
-4.94
-5.87
-6.90
-7.87
-8.59
-8.89
-8.69
-8.02
-7.01
-5.82
-4.63
-3.51
-2.50
-1.58
-0.72
0.05
0.67
1.09
1.33
1.45
1.56
1.76
2.09
2.50
2.89
3.14
3.22
3.18
3.15
3.29
3.65
4.16
4.62
4.80
4.56
3.94
3.10
2.26
1.60
1.19
1.00
0.92
0.87
0.78
0.61
0.36
-0.02
-0.54
-1.17
-1.86
-2.54
-3.15
-3.67
-4.15
-4.66
-5.24
-5.85
-6.38
-6.69
-6.66
-6.27
-5.56
-4.65
-3.64
-2.60
-1.58
-0.59
0.31
1.07
1.64
1.98
2.10
2.06
1.92
1.74
1.57
1.42
1.31
1.26
1.28
1.38
1.57
1.82
2.12
2.41
2.65
2.79
2.78
2.65
2.44
2.22
2.04
1.89
1.73
1.53
1.29
1.07
0.89
0.72
0.47
0.01
-0.69
-1.55
-2.36
-2.92
-3.16
-3.22
-3.37
-3.85
-4.74
-5.83
-6.79
-7.29
-7.20
-6.59
-5.66
-4.59
-3.50
-2.40
-1.33
-0.34
0.48
1.09
1.53
1.90
2.31
2.77
3.21
3.51
3.60
3.48
3.24
3.00
2.85
2.83
2.92
3.08
3.24
3.32
3.27
3.06
2.70
2.29
1.92
1.65
1.52
1.48
1.47
1.43
1.34
1.17
0.89
0.45
-0.14
-0.85
-1.61
-2.33
-2.99
-3.57
-4.10
-4.57
-4.91
-4.97
-4.66
-3.94
-2.91
-1.77
-0.69
0.22
0.97
1.57
2.08
2.48
2.72
2.80
2.77
2.72
2.76
2.91
3.12
3.30
3.39
3.45
3.54
3.73
3.99
4.21
4.26
4.07
3.71
3.31
3.00
2.79
2.62
2.37
1.98
1.49
0.98
0.55
0.24
-0.03
-0.35
-0.81
-1.43
-2.14
-2.86
-3.50
-4.01
-4.41
-4.72
-5.02
-5.33
-5.63
-5.84
-5.84
-5.55
-4.95
-4.09
-3.08
-2.03
-1.03
-0.13
0.61
1.10
1.28
1.12
0.70
0.21
-0.13
-0.17
0.12
0.65
1.26
1.78
2.17
2.43
2.61
2.75
2.83
2.83
2.72
2.48
2.09
1.55
0.84
0.01
-0.85
-1.58
-2.06
-2.24
-2.19
-2.10
-2.17
-2.53
-3.17
-3.98
-4.79
-5.45
-5.86
-5.97
-5.74
-5.19
-4.31
-3.18
-1.89
-0.59
0.57
1.45
2.02
2.32
2.44
2.50
2.58
2.73
2.92
3.09
3.22
3.31
3.41
3.58
3.82
4.08
4.28
4.31
4.13
3.77
3.35
3.02
2.88
2.95
3.12
3.23
3.09
2.63
1.88
0.94
-0.01
-0.88
-1.63
-2.32
-2.99
-3.65
-4.25
-4.76
-5.18
-5.57
-5.99
-6.47
-6.96
-7.26
-7.21
-6.71
-5.78
-4.58
-3.31
-2.17
-1.23
-0.49
0.11
0.67
1.29
1.98
2.71
3.38
3.84
4.02
3.94
3.71
3.51
3.47
3.62
3.91
4.22
4.45
4.55
4.54
4.43
4.23
3.95
3.64
3.36
3.17
3.09
3.08
3.06
2.95
2.73
2.44
2.14
1.87
1.63
1.38
1.05
0.63
0.13
-0.43
-1.01
-1.62
-2.30
-3.08
-3.97
-4.95
-5.92
-6.76
-7.37
-7.71
-7.78
-7.61
-7.22
-6.58
-5.68
-4.53
-3.23
-1.96
-0.90
-0.11
0.46
0.95
1.52
2.22
3.00
3.74
4.36
4.82
5.16
5.40
5.55
5.61
5.55
5.44
5.34
5.33
5.44
5.62
5.78
5.83
5.73
5.52
5.28
5.11
5.03
5.01
4.93
4.70
4.27
3.69
3.04
2.41
1.85
1.34
0.90
0.52
0.24
0.03
-0.15
-0.43
-0.87
-1.47
-2.15
-2.78
-3.33
-3.82
-4.38
-5.08
-5.90
-6.74
-7.41
-7.81
-7.88
-7.66
-7.23
-6.63
-5.88
-5.02
-4.08
-3.16
-2.33
-1.63
-1.04
-0.52
-0.03
0.44
0.89
1.32
1.72
2.09
2.41
2.66
2.82
2.91
2.97
3.04
3.16
3.31
3.42
3.42
3.25
2.94
2.56
2.23
2.02
1.97
2.03
2.08
2.03
1.84
1.60
1.41
1.41
1.59
1.84
1.95
1.74
1.16
0.29
-0.75
-1.82
-2.90
-3.97
-4.99
-5.82
-6.31
-6.33
-5.87
-5.07
-4.15
-3.27
-2.53
-1.89
-1.25
-0.53
0.28
1.14
1.97
2.68
3.20
3.52
3.66
3.68
3.65
3.63
3.65
3.70
3.76
3.81
3.83
3.78
3.68
3.51
3.31
3.13
2.99
2.88
2.75
2.52
2.17
1.73
1.31
1.02
0.90
0.91
0.92
0.81
0.48
-0.05
-0.73
-1.48
-2.22
-2.91
-3.52
-4.00
-4.35
-4.60
-4.89
-5.30
-5.90
-6.60
-7.20
-7.50
-7.34
-6.73
-5.78
-4.66
-3.52
-2.41
-1.33
-0.27
0.72
1.52
2.03
2.21
2.13
1.93
1.81
1.90
2.22
2.71
3.21
3.58
3.72
3.62
3.35
2.99
2.63
2.30
2.01
1.78
1.63
1.60
1.69
1.85
1.99
2.00
1.83
1.49
1.10
0.76
0.55
0.47
0.46
0.43
0.35
0.22
0.05
-0.16
-0.45
-0.85
-1.36
-1.89
-2.36
-2.71
-2.98
-3.26
-3.66
-4.23
-4.89
-5.44
-5.68
-5.46
-4.78
-3.74
-2.48
-1.14
0.17
1.38
2.43
3.24
3.75
3.93
3.85
3.66
3.51
3.51
3.66
3.84
3.89
3.73
3.36
2.89
2.44
2.07
1.78
1.52
1.26
1.00
0.83
0.76
0.78
0.83
0.82
0.73
0.61
0.55
0.59
0.67
0.69
0.54
0.16
-0.40
-1.00
-1.52
-1.92
-2.25
-2.62
-3.12
-3.76
-4.51
-5.27
-5.98
-6.55
-6.93
-7.05
-6.85
-6.31
-5.47
-4.46
-3.43
-2.48
-1.67
-0.94
-0.21
0.54
1.22
1.72
1.91
1.80
1.51
1.22
1.07
1.12
1.29
1.53
1.79
2.10
2.50
2.94
3.31
3.45
3.27
2.79
2.18
1.61
1.21
1.00
0.89
0.77
0.57
0.26
-0.13
-0.57
-1.01
-1.44
-1.86
-2.30
-2.76
-3.25
-3.71
-4.06
-4.23
-4.17
-3.92
-3.57
-3.27
-3.10
-3.11
-3.23
-3.32
-3.23
-2.87
-2.28
-1.56
-0.88
-0.37
-0.08
-0.00
-0.02
-0.06
-0.04
0.05
0.19
0.34
0.47
0.58
0.70
0.90
1.26
1.80
2.43
3.02
3.39
3.47
3.35
3.18
3.16
3.35
3.65
3.84
3.73
3.25
2.51
1.67
0.90
0.25
-0.32
-0.88
-1.51
-2.20
-2.91
-3.58
-4.15
-4.58
-4.82
-4.84
-4.67
-4.33
-3.91
-3.47
-3.06
-2.66
-2.23
-1.71
-1.12
-0.52
-0.04
0.26
0.33
0.25
0.15
0.17
0.41
0.84
1.39
1.93
2.34
2.58
2.67
2.66
2.57
2.42
2.19
1.86
1.43
0.94
0.46
0.05
-0.27
-0.51
-0.70
-0.90
-1.20
-1.66
-2.35
-3.26
-4.31
-5.36
-6.24
-6.83
-7.03
-6.79
-6.08
-4.92
-3.38
-1.59
0.24
1.88
3.18
4.08
4.62
4.93
5.11
5.22
5.24
5.15
4.92
4.58
4.18
3.78
3.38
2.99
2.61
2.24
1.92
1.68
1.56
1.55
1.61
1.64
1.52
1.17
0.60
-0.11
-0.77
-1.24
-1.43
-1.42
-1.35
-1.40
-1.69
-2.23
-2.90
-3.55
-4.05
-4.32
-4.33
-4.09
-3.64
-3.02
-2.27
-1.46
-0.68
0.01
0.56
0.97
1.29
1.57
1.90
2.27
2.63
2.88
2.94
2.78
2.44
2.06
1.77
1.69
1.83
2.11
2.41
2.60
2.60
2.39
2.01
1.53
0.99
0.42
-0.16
-0.73
-1.24
-1.65
-1.94
-2.14
-2.34
-2.65
-3.14
-3.81
-4.57
-5.31
-5.87
-6.18
-6.20
-5.94
-5.44
-4.71
-3.75
-2.59
-1.33
-0.12
0.87
1.48
1.66
1.48
1.12
0.76
0.56
0.60
0.84
1.20
1.56
1.84
1.99
2.05
2.04
2.03
2.04
2.05
1.98
1.77
1.35
0.70
-0.12
-1.01
-1.82
-2.40
-2.70
-2.76
-2.71
-2.76
-3.06
-3.70
-4.62
-5.66
-6.65
-7.45
-7.93
-8.06
-7.78
-7.08
-6.00
-4.65
-3.23
-1.98
-1.09
-0.61
-0.47
-0.51
-0.50
-0.26
0.31
1.21
2.33
3.49
4.53
5.36
5.97
6.40
6.71
6.88
6.83
6.49
5.86
5.02
4.18
3.51
3.11
2.95
2.93
2.98
3.07
3.25
3.55
3.98
4.43
4.80
4.95
4.86
4.53
4.06
3.52
2.98
2.46
1.99
1.59
1.25
0.95
0.63
0.21
-0.38
-1.16
-2.08
-3.04
-3.89
-4.49
-4.75
-4.65
-4.19
-3.45
-2.51
-1.47
-0.43
0.55
1.40
2.13
2.74
3.22
3.54
3.66
3.56
3.31
3.06
2.94
3.08
3.46
3.96
4.41
4.66
4.65
4.44
4.14
3.90
3.78
3.76
3.74
3.59
3.21
2.62
1.90
1.25
0.81
0.59
0.51
0.40
0.14
-0.33
-0.92
-1.51
-2.00
-2.36
-2.63
-2.83
-2.98
-3.07
-3.07
-3.00
-2.93
-2.95
-3.17
-3.63
-4.32
-5.11
-5.84
-6.32
-6.42
-6.11
-5.49
-4.70
-3.88
-3.08
-2.22
-1.24
-0.09
1.15
2.31
3.23
3.83
4.14
4.29
4.43
4.63
4.83
4.94
4.83
4.46
3.90
3.27
2.72
2.33
2.14
2.08
2.09
2.12
2.12
2.08
2.00
1.85
1.63
1.39
1.15
0.95
0.78
0.61
0.42
0.25
0.15
0.18
0.34
0.53
0.61
0.43
-0.04
-0.73
-1.47
-2.08
-2.44
-2.52
-2.39
-2.17
-1.99
-1.95
-2.13
-2.51
-3.05
-3.61
-4.04
-4.18
-3.96
-3.38
-2.56
-1.63
-0.71
0.15
0.92
1.59
2.12
2.47
2.63
2.63
2.57
2.52
2.52
2.53
2.54
2.57
2.65
2.79
2.96
3.04
2.93
2.62
2.22
1.87
1.69
1.69
1.80
1.94
2.04
2.10
2.11
2.07
1.97
1.81
1.62
1.45
1.29
1.11
0.82
0.34
-0.33
-1.13
-1.98
-2.81
-3.59
-4.33
-5.04
-5.65
-6.06
-6.15
-5.89
-5.35
-4.66
-3.95
-3.29
-2.67
-2.02
-1.29
-0.50
0.29
0.96
1.45
1.76
1.93
2.02
2.04
1.96
1.79
1.55
1.32
1.20
1.26
1.48
1.76
2.00
2.15
2.21
2.27
2.38
2.52
2.66
2.71
2.65
2.49
2.27
2.03
1.74
1.38
0.93
0.42
-0.10
-0.56
-0.90
-1.11
-1.19
-1.19
-1.21
-1.35
-1.74
-2.46
-3.54
-4.94
-6.51
-8.02
-9.23
-9.93
-9.99
-9.41
-8.33
-6.97
-5.62
-4.51
-3.77
-3.38
-3.27
-3.29
-3.26
-3.05
-2.59
-1.92
-1.14
-0.43
0.06
0.23
0.13
-0.14
-0.43
-0.60
-0.61
-0.46
-0.21
0.12
0.50
0.91
1.33
1.73
2.07
2.32
2.45
2.45
2.36
2.20
2.01
1.84
1.72
1.69
1.75
1.89
2.04
2.16
2.17
2.05
1.79
1.40
0.93
0.39
-0.17
-0.75
-1.35
-1.97
-2.60
-3.22
-3.77
-4.19
-4.41
-4.41
-4.24
-4.00
-3.77
-3.59
-3.39
-3.06
-2.47
-1.61
-0.62
0.32
0.99
1.28
1.26
1.06
0.88
0.80
0.86
1.02
1.23
1.45
1.67
1.85
1.94
1.88
1.64
1.22
0.68
0.13
-0.33
-0.55
-0.46
-0.08
0.49
1.05
1.40
1.39
1.02
0.42
-0.21
-0.70
-0.98
-1.07
-1.09
-1.11
-1.20
-1.34
-1.53
-1.79
-2.13
-2.56
-3.01
-3.33
-3.39
-3.10
-2.47
-1.64
-0.75
0.07
0.79
1.46
2.13
2.78
3.33
3.66
3.67
3.41
2.98
2.56
2.25
2.09
2.04
2.03
2.08
2.22
2.49
2.87
3.27
3.56
3.66
3.60
3.50
3.50
3.66
3.92
4.13
4.14
3.87
3.34
2.71
2.10
1.62
1.26
0.96
0.64
0.25
-0.21
-0.68
-1.16
-1.61
-2.07
-2.55
-3.06
-3.59
-4.12
-4.62
-5.02
-5.27
-5.28
-5.03
-4.51
-3.79
-2.97
-2.12
-1.28
-0.43
0.43
1.24
1.93
2.38
2.56
2.53
2.40
2.33
2.36
2.49
2.66
2.82
2.96
3.09
3.23
3.35
3.40
3.33
3.11
2.81
2.52
2.33
2.25
2.21
2.13
1.92
1.57
1.16
0.78
0.51
0.38
0.30
0.17
-0.10
-0.55
-1.13
-1.74
-2.29
-2.77
-3.24
-3.76
-4.39
-5.12
-5.87
-6.53
-7.00
-7.22
-7.15
-6.80
-6.23
-5.51
-4.76
-4.08
-3.55
-3.16
-2.82
-2.43
-1.91
-1.25
-0.56
0.06
0.51
0.78
0.92
1.03
1.21
1.51
1.89
2.28
2.55
2.64
2.55
2.31
2.04
1.80
1.59
1.41
1.23
1.05
0.85
0.62
0.30
-0.14
-0.66
-1.17
-1.54
-1.71
-1.69
-1.61
-1.61
-1.76
-2.05
-2.42
-2.81
-3.18
-3.47
-3.62
-3.52
-3.07
-2.29
-1.30
-0.27
0.65
1.41
2.00
2.41
2.64
2.64
2.46
2.22
2.07
2.15
2.44
2.83
3.16
3.34
3.40
3.47
3.63
3.90
4.21
4.45
4.55
4.51
4.37
4.16
3.86
3.44
2.88
2.23
1.58
1.02
0.58
0.23
-0.09
-0.45
-0.86
-1.31
-1.75
-2.16
-2.57
-3.01
-3.47
-3.92
-4.24
-4.34
-4.14
-3.67
-3.01
-2.38
-1.99
-2.04
-2.60
-3.57
-4.71
-5.66
-6.05
-5.60
-4.24
-2.11
0.45
3.00
5.17
6.71
7.60
7.97
8.03
7.92
7.73
7.39
6.87
6.13
5.22
4.26
3.33
2.48
1.66
0.80
-0.20
-1.33
-2.52
-3.61
-4.45
-4.96
-5.17
-5.22
-5.29
-5.55
-6.04
-6.69
-7.32
-7.78
-7.95
-7.81
-7.41
-6.79
-5.98
-4.98
-3.84
-2.66
-1.57
-0.71
-0.18
0.06
0.11
0.12
0.17
0.29
0.42
0.52
0.55
0.55
0.58
0.69
0.90
1.17
1.47
1.73
1.92
2.04
2.07
2.02
1.88
1.69
1.49
1.37
1.39
1.58
1.92
2.32
2.63
2.70
2.44
1.88
1.16
0.47
-0.03
-0.30
-0.38
-0.42
-0.57
-0.89
-1.38
-1.94
-2.50
-3.00
-3.41
-3.73
-3.93
-3.99
-3.89
-3.65
-3.27
-2.80
-2.26
-1.68
-1.10
-0.53
-0.02
0.41
0.75
1.02
1.23
1.42
1.61
1.81
2.04
2.29
2.56
2.84
3.12
3.37
3.58
3.71
3.75
3.68
3.50
3.24
2.93
2.62
2.35
2.16
2.10
2.20
2.46
2.85
3.23
3.45
3.37
2.96
2.26
1.42
0.54
-0.26
-0.98
-1.62
-2.18
-2.64
-2.95
-3.12
-3.24
-3.45
-3.93
-4.76
-5.84
-6.93
-7.71
-7.94
-7.53
-6.59
-5.37
-4.13
-3.03
-2.11
-1.30
-0.51
0.30
1.10
1.86
2.50
2.98
3.28
3.41
3.38
3.26
3.16
3.16
3.34
3.68
4.09
4.42
4.57
4.54
4.40
4.25
4.18
4.17
4.15
4.03
3.76
3.36
2.93
2.56
2.33
2.20
2.10
1.94
1.64
1.23
0.74
0.28
-0.11
-0.48
-0.87
-1.35
-1.92
-2.52
-3.10
-3.62
-4.14
-4.71
-5.37
-6.03
-6.57
-6.82
-6.71
-6.24
-5.54
-4.71
-3.83
-2.91
-1.94
-0.91
0.08
0.96
1.62
2.03
2.22
2.26
2.25
2.22
2.19
2.16
2.15
2.20
2.37
2.66
3.03
3.37
3.63
3.77
3.84
3.90
3.98
4.05
4.03
3.85
3.53
3.11
2.67
2.24
1.82
1.36
0.86
0.35
-0.14
-0.56
-0.95
-1.38
-1.89
-2.50
-3.18
-3.87
-4.54
-5.17
-5.77
-6.27
-6.59
-6.56
-6.09
-5.19
-3.98
-2.68
-1.46
-0.42
0.48
1.32
2.16
2.95
3.60
3.99
4.10
3.99
3.81
3.67
3.66
3.78
4.01
4.24
4.42
4.47
4.35
4.08
3.73
3.36
3.02
2.70
2.39
2.10
1.84
1.69
1.66
1.71
1.73
1.57
1.18
0.59
-0.09
-0.70
-1.18
-1.55
-1.87
-2.22
-2.65
-3.18
-3.82
-4.60
-5.53
-6.55
-7.54
-8.31
-8.68
-8.56
-7.92
-6.88
-5.57
-4.15
-2.71
-1.35
-0.12
0.92
1.76
2.40
2.92
3.33
3.67
3.93
4.10
4.14
4.02
3.77
3.40
2.99
2.61
2.34
2.22
2.23
2.32
2.44
2.54
2.66
2.81
3.00
3.15
3.20
3.07
2.77
2.40
2.07
1.85
1.74
1.65
1.45
1.04
0.37
-0.53
-1.54
-2.57
-3.49
-4.22
-4.74
-5.05
-5.20
-5.31
-5.49
-5.81
-6.30
-6.88
-7.41
-7.70
-7.61
-7.08
-6.15
-4.93
-3.57
-2.21
-0.94
0.17
1.05
1.68
2.06
2.24
2.31
2.37
2.51
2.77
3.12
3.54
3.96
4.32
4.58
4.75
4.86
4.97
5.18
5.45
5.73
5.91
5.89
5.63
5.21
4.70
4.17
3.63
3.02
2.36
1.68
1.06
0.56
0.17
-0.14
-0.43
-0.71
-0.97
-1.17
-1.31
-1.44
-1.63
-1.94
-2.36
-2.85
-3.39
-3.97
-4.64
-5.39
-6.15
-6.79
-7.17
-7.15
-6.69
-5.80
-4.60
-3.22
-1.78
-0.43
0.72
1.59
2.15
2.44
2.53
2.50
2.43
2.39
2.42
2.57
2.85
3.23
3.65
4.02
4.27
4.38
4.37
4.27
4.14
4.00
3.89
3.81
3.78
3.79
3.80
3.77
3.65
3.45
3.21
2.99
2.79
2.58
2.30
1.84
1.15
0.25
-0.78
-1.83
-2.76
-3.48
-3.97
-4.32
-4.69
-5.25
-6.09
-7.19
-8.39
-9.41
-10.00
-9.99
-9.39
-8.34
-7.06
-5.72
-4.40
-3.09
-1.77
-0.44
0.81
1.86
2.60
3.05
3.27
3.38
3.47
3.59
3.73
3.87
4.00
4.14
4.29
4.41
4.51
4.59
4.70
4.93
5.31
5.78
6.19
6.35
6.11
5.48
4.56
3.58
2.72
2.07
1.64
1.32
1.00
0.61
0.13
-0.42
-1.00
-1.60
-2.21
-2.89
-3.64
-4.47
-5.33
-6.14
-6.87
-7.53
-8.18
-8.84
-9.51
-10.02
-10.21
-9.90
-9.06
-7.78
-6.27
-4.70
-3.20
-1.79
-0.46
0.81
1.98
3.00
3.77
4.26
4.43
4.32
4.04
3.73
3.51
3.43
3.51
3.69
3.90
4.12
4.35
4.62
4.89
5.09
5.14
4.98
4.64
4.20
3.79
3.48
3.28
3.13
2.96
2.69
2.28
1.75
1.14
0.50
-0.15
-0.77
-1.35
-1.92
-2.52
-3.20
-4.03
-5.02
-6.18
-7.45
-8.73
-9.87
-10.71
-11.08
-10.90
-10.16
-9.00
-7.64
-6.26
-4.99
-3.82
-2.66
-1.42
-0.12
1.10
2.09
2.70
2.89
2.73
2.40
2.07
1.90
1.97
2.28
2.77
3.33
3.85
4.23
4.46
4.57
4.65
4.73
4.84
4.91
4.88
4.71
4.41
4.02
3.62
3.28
3.01
2.77
2.50
2.11
1.54
0.73
-0.34
-1.66
-3.16
-4.74
-6.20
-7.37
-8.07
-8.25
-7.97
-7.36
-6.57
-5.70
-4.75
-3.69
-2.47
-1.12
0.29
1.63
2.80
3.72
4.38
4.77
4.94
4.96
4.90
4.85
4.85
4.92
5.02
5.09
5.10
5.10
5.14
5.27
5.47
5.64
5.66
5.47
5.07
4.57
4.11
3.75
3.51
3.30
3.01
2.56
1.93
1.16
0.31
-0.52
-1.28
-1.97
-2.60
-3.25
-3.97
-4.81
-5.83
-7.00
-8.25
-9.44
-10.35
-10.78
-10.59
-9.76
-8.44
-6.85
-5.23
-3.77
-2.51
-1.40
-0.38
0.58
1.42
2.04
2.35
2.37
2.18
1.94
1.81
1.89
2.20
2.72
3.41
4.19
4.97
5.68
6.24
6.61
6.77
6.75
6.58
6.30
5.97
5.63
5.31
4.98
4.61
4.13
3.51
2.75
1.90
1.06
0.34
-0.23
-0.64
-0.99
-1.40
-1.97
-2.73
-3.64
-4.58
-5.43
-6.13
-6.69
-7.17
-7.58
-7.86
-7.88
-7.49
-6.62
-5.33
-3.80
-2.23
-0.80
0.43
1.47
2.34
3.05
3.55
3.81
3.83
3.67
3.46
3.33
3.33
3.41
3.48
3.42
3.21
2.93
2.78
2.93
3.42
4.18
4.95
5.48
5.58
5.22
4.53
3.78
3.21
3.01
3.18
3.60
4.05
4.29
4.15
3.57
2.57
1.30
-0.09
-1.44
-2.64
-3.65
-4.53
-5.33
-6.15
-7.05
-8.05
-9.09
-10.08
-10.86
-11.27
-11.16
-10.47
-9.26
-7.70
-6.02
-4.37
-2.90
-1.63
-0.57
0.26
0.82
1.09
1.09
0.92
0.68
0.48
0.36
0.30
0.29
0.38
0.61
1.04
1.60
2.16
2.54
2.65
2.51
2.26
2.09
2.09
2.22
2.31
2.23
1.91
1.42
0.92
0.50
0.18
-0.12
-0.50
-1.01
-1.62
-2.29
-3.01
-3.80
-4.66
-5.55
-6.30
-6.72
-6.61
-5.90
-4.65
-3.05
-1.32
0.35
1.80
3.01
4.00
4.80
5.43
5.89
6.14
6.18
6.01
5.69
5.31
5.01
4.87
4.93
5.15
5.41
5.63
5.72
5.69
5.61
5.51
5.44
5.36
5.21
4.94
4.54
4.05
3.55
3.09
2.67
2.24
1.76
1.15
0.41
-0.42
-1.26
-2.02
-2.65
-3.14
-3.59
-4.10
-4.79
-5.70
-6.76
-7.83
-8.75
-9.34
-9.50
-9.13
-8.21
-6.81
-5.07
-3.22
-1.48
-0.03
1.08
1.90
2.55
3.08
3.48
3.68
3.64
3.42
3.15
2.99
3.03
3.22
3.41
3.47
3.36
3.18
3.09
3.21
3.54
3.96
4.29
4.38
4.21
3.86
3.47
3.13
2.86
2.62
2.31
1.89
1.34
0.72
0.10
-0.50
-1.07
-1.60
-2.09
-2.54
-2.99
-3.54
-4.27
-5.28
-6.51
-7.78
-8.80
-9.30
-9.13
-8.30
-7.02
-5.52
-4.01
-2.62
-1.40
-0.33
0.61
1.46
2.20
2.82
3.25
3.47
3.45
3.24
2.93
2.63
2.43
2.35
2.36
2.40
2.42
2.42
2.43
2.46
2.49
2.46
2.32
2.07
1.77
1.50
1.31
1.18
1.01
0.74
0.37
-0.04
-0.38
-0.59
-0.69
-0.76
-0.91
-1.19
-1.60
-2.16
-2.87
-3.76
-4.79
-5.89
-6.88
-7.59
-7.88
-7.69
-7.04
-6.05
-4.81
-3.47
-2.14
-0.93
0.11
1.00
1.78
2.50
3.18
3.79
4.29
4.65
4.88
5.05
5.19
5.34
5.48
5.59
5.66
5.72
5.79
5.89
5.97
5.97
5.83
5.54
5.13
4.65
4.13
3.55
2.88
2.10
1.24
0.36
-0.49
-1.28
-2.00
-2.65
-3.24
-3.79
-4.37
-5.05
-5.90
-6.88
-7.84
-8.56
-8.86
-8.64
-7.97
-7.00
-5.86
-4.64
-3.38
-2.09
-0.84
0.29
1.21
1.89
2.36
2.69
2.96
3.24
3.54
3.81
4.03
4.16
4.19
4.14
4.05
3.94
3.89
3.90
3.95
4.00
3.96
3.76
3.39
2.90
2.40
2.00
1.70
1.45
1.12
0.60
-0.12
-0.96
-1.76
-2.37
-2.73
-2.90
-3.02
-3.22
-3.59
-4.15
-4.82
-5.51
-6.12
-6.56
-6.73
-6.59
-6.10
-5.31
-4.31
-3.23
-2.17
-1.20
-0.30
0.53
1.33
2.04
2.62
3.01
3.18
3.17
3.06
2.92
2.82
2.79
2.83
2.92
3.07
3.26
3.43
3.55
3.58
3.50
3.34
3.17
3.04
2.99
3.00
3.01
2.99
2.89
2.70
2.41
2.01
1.49
0.89
0.28
-0.26
-0.66
-0.92
-1.14
-1.41
-1.84
-2.42
-3.11
-3.81
-4.47
-5.11
-5.75
-6.38
-6.91
-7.22
-7.16
-6.68
-5.81
-4.64
-3.31
-1.93
-0.60
0.61
1.64
2.46
3.06
3.48
3.77
3.99
4.18
4.33
4.42
4.40
4.22
3.89
3.43
2.92
2.44
2.08
1.87
1.78
1.73
1.63
1.43
1.10
0.71
0.36
0.13
0.06
0.10
0.13
0.01
-0.31
-0.81
-1.38
-1.88
-2.22
-2.41
-2.52
-2.64
-2.86
-3.17
-3.55
-3.92
-4.26
-4.58
-4.92
-5.33
-5.84
-6.47
-7.19
-7.98
-8.77
-9.42
-9.74
-9.53
-8.69
-7.31
-5.63
-3.97
-2.61
-1.66
-1.04
-0.56
-0.03
0.64
1.40
2.15
2.75
3.15
3.36
3.47
3.55
3.69
3.90
4.18
4.51
4.82
5.07
5.19
5.16
4.98
4.70
4.40
4.16
4.01
3.91
3.79
3.60
3.29
2.84
2.30
1.73
1.20
0.78
0.49
0.32
0.21
0.08
-0.08
-0.27
-0.49
-0.69
-0.89
-1.13
-1.48
-2.00
-2.74
-3.70
-4.79
-5.87
-6.72
-7.14
-7.02
-6.42
-5.48
-4.36
-3.22
-2.11
-1.03
0.03
1.00
1.79
2.29
2.49
2.43
2.23
2.01
1.82
1.68
1.55
1.41
1.31
1.29
1.42
1.66
1.92
2.10
2.16
2.13
2.12
2.24
2.53
2.91
3.23
3.39
3.33
3.11
2.81
2.52
2.27
2.04
1.78
1.47
1.11
0.70
0.26
-0.21
-0.67
-1.11
-1.49
-1.82
-2.10
-2.38
-2.74
-3.26
-3.96
-4.80
-5.68
-6.44
-6.96
-7.15
-7.00
-6.54
-5.86
-5.00
-4.04
-3.02
-1.99
-1.01
-0.17
0.47
0.84
0.93
0.81
0.58
0.37
0.32
0.45
0.73
1.06
1.36
1.57
1.69
1.75
1.79
1.84
1.91
1.97
1.99
1.93
1.77
1.50
1.12
0.67
0.23
-0.12
-0.34
-0.44
-0.47
-0.55
-0.73
-1.03
-1.42
-1.83
-2.23
-2.65
-3.13
-3.72
-4.35
-4.87
-5.11
-4.98
-4.49
-3.76
-2.92
-2.06
-1.18
-0.23
0.79
1.83
2.78
3.48
3.81
3.76
3.41
2.92
2.45
2.15
2.08
2.25
2.63
3.15
3.73
4.27
4.65
4.78
4.63
4.27
3.82
3.43
3.14
2.91
2.60
2.10
1.37
0.50
-0.35
-1.01
-1.42
-1.61
-1.67
-1.76
-1.99
-2.40
-3.02
-3.82
-4.72
-5.62
-6.39
-6.92
-7.11
-6.92
-6.35
-5.49
-4.41
-3.23
-2.00
-0.77
0.49
1.74
2.91
3.85
4.39
4.43
3.98
3.24
2.47
1.90
1.62
1.57
1.58
1.51
1.32
1.09
0.92
0.89
1.02
1.21
1.36
1.39
1.26
0.98
0.56
0.04
-0.53
-1.11
-1.67
-2.16
-2.60
-3.01
-3.40
-3.82
-4.25
-4.64
-4.93
-5.06
-5.04
-4.98
-5.03
-5.35
-5.99
-6.85
-7.69
-8.26
-8.35
-7.93
-7.05
-5.90
-4.60
-3.27
-1.94
-0.64
0.62
1.79
2.81
3.62
4.15
4.41
4.42
4.34
4.36
4.63
5.21
6.03
6.87
7.50
7.76
7.59
7.09
6.39
5.65
5.01
4.49
4.10
3.78
3.51
3.24
2.98
2.69
2.38
2.04
1.65
1.21
0.69
0.11
-0.52
-1.13
-1.68
-2.10
-2.39
-2.58
-2.73
-2.95
-3.29
-3.81
-4.46
-5.18
-5.88
-6.46
-6.83
-6.92
-6.67
-6.07
-5.14
-3.93
-2.55
-1.14
0.19
1.34
2.28
2.99
3.54
3.96
4.32
4.65
4.95
5.17
5.24
5.09
4.74
4.28
3.86
3.64
3.66
3.86
4.10
4.28
4.34
4.35
4.40
4.49
4.57
4.50
4.24
3.80
3.32
2.92
2.64
2.39
2.04
1.48
0.74
-0.08
-0.82
-1.40
-1.85
-2.29
-2.87
-3.65
-4.60
-5.56
-6.32
-6.73
-6.71
-6.30
-5.58
-4.64
-3.56
-2.40
-1.20
-0.05
0.98
1.86
2.56
3.11
3.59
3.99
4.33
4.56
4.66
4.63
4.52
4.40
4.32
4.29
4.30
4.28
4.22
4.10
3.94
3.77
3.59
3.35
3.00
2.48
1.76
0.93
0.15
-0.44
-0.73
-0.75
-0.65
-0.64
-0.87
-1.38
-2.04
-2.66
-3.08
-3.24
-3.22
-3.23
-3.43
-3.96
-4.85
-6.01
-7.29
-8.51
-9.49
-10.05
-10.05
-9.46
-8.31
-6.77
-5.07
-3.44
-2.04
-0.93
-0.08
0.58
1.14
1.63
2.07
2.45
2.75
2.96
3.05
3.04
2.94
2.84
2.82
2.99
3.40
3.99
4.65
5.25
5.69
5.94
6.00
5.90
5.60
5.11
4.45
3.71
3.03
2.52
2.21
2.03
1.82
1.43
0.85
0.16
-0.47
-0.93
-1.21
-1.44
-1.78
-2.34
-3.15
-4.14
-5.22
-6.26
-7.18
-7.89
-8.30
-8.34
-8.00
-7.37
-6.58
-5.76
-4.96
-4.13
-3.20
-2.12
-0.90
0.31
1.39
2.22
2.78
3.14
3.40
3.63
3.86
4.06
4.17
4.16
4.04
3.85
3.69
3.64
3.71
3.84
3.92
3.86
3.57
3.10
2.52
1.94
1.49
1.22
1.13
1.13
1.10
0.94
0.59
0.08
-0.52
-1.08
-1.52
-1.80
-1.94
-1.99
-2.02
-2.08
-2.20
-2.44
-2.84
-3.45
-4.28
-5.25
-6.17
-6.80
-6.88
-6.29
-5.06
-3.39
-1.61
0.00
1.26
2.11
2.65
2.98
3.19
3.34
3.44
3.50
3.57
3.71
3.93
4.22
4.52
4.74
4.83
4.80
4.70
4.59
4.50
4.45
4.36
4.20
3.91
3.49
2.95
2.30
1.60
0.85
0.10
-0.63
-1.31
-1.93
-2.44
-2.83
-3.13
-3.42
-3.79
-4.32
-4.99
-5.68
-6.20
-6.34
-6.04
-5.34
-4.36
-3.25
-2.12
-0.98
0.19
1.39
2.58
3.66
4.51
5.02
5.15
4.92
4.44
3.86
3.34
2.98
2.82
2.83
2.91
2.97
2.93
2.71
2.34
1.87
1.39
1.04
0.89
0.96
1.12
1.23
1.12
0.72
0.09
-0.64
-1.31
-1.82
-2.16
-2.42
-2.75
-3.30
-4.11
-5.16
-6.29
-7.30
-7.99
-8.20
-7.91
-7.20
-6.20
-5.05
-3.88
-2.76
-1.72
-0.77
0.11
0.92
1.62
2.16
2.44
2.39
2.03
1.48
0.98
0.71
0.82
1.27
1.91
2.52
2.96
3.14
3.10
2.93
2.74
2.62
2.61
2.68
2.77
2.77
2.57
2.11
1.38
0.41
-0.70
-1.86
-2.96
-3.90
-4.60
-5.08
-5.36
-5.58
-5.87
-6.27
-6.77
-7.20
-7.35
-7.04
-6.20
-4.89
-3.33
-1.74
-0.33
0.77
1.55
2.05
2.37
2.54
2.63
2.69
2.76
2.85
2.92
2.93
2.79
2.49
2.07
1.63
1.31
1.19
1.33
1.66
2.09
2.50
2.76
2.83
2.67
2.30
1.76
1.11
0.42
-0.26
-0.87
-1.40
-1.86
-2.29
-2.67
-3.04
-3.37
-3.72
-4.13
-4.67
-5.32
-5.99
-6.55
-6.79
-6.60
-5.93
-4.85
-3.47
-1.94
-0.40
1.03
2.28
3.26
3.94
4.34
4.51
4.55
4.53
4.52
4.54
4.61
4.72
4.83
4.90
4.85
4.64
4.30
3.88
3.49
3.21
3.06
3.02
3.00
2.89
2.62
2.16
1.51
0.73
-0.09
-0.88
-1.57
-2.12
-2.51
-2.81
-3.13
-3.60
-4.31
-5.29
-6.40
-7.45
-8.20
-8.44
-8.10
-7.22
-5.97
-4.54
-3.12
-1.78
-0.57
0.54
1.56
2.43
3.09
3.48
3.59
3.49
3.31
3.17
3.11
3.13
3.17
3.17
3.12
3.03
2.95
2.94
3.01
3.18
3.41
3.63
3.72
3.58
3.15
2.45
1.62
0.81
0.16
-0.29
-0.62
-0.97
-1.45
-2.08
-2.83
-3.59
-4.34
-5.09
-5.87
-6.71
-7.53
-8.21
-8.60
-8.62
-8.24
-7.51
-6.51
-5.29
-3.91
-2.47
-1.07
0.16
1.13
1.83
2.34
2.74
3.09
3.41
3.69
3.92
4.14
4.39
4.71
5.10
5.51
5.89
6.21
6.45
6.61
6.66
6.57
6.33
5.96
5.53
5.10
4.71
4.34
3.95
3.51
3.01
2.47
1.91
1.33
0.69
-0.07
-0.99
-2.02
-3.07
-4.01
-4.73
-5.17
-5.31
-5.16
-4.76
-4.15
-3.35
-2.45
-1.58
-0.87
-0.44
-0.33
-0.51
-0.88
-1.34
-1.78
-2.13
-2.34
-2.35
-2.13
-1.71
-1.18
-0.67
-0.33
-0.24
-0.35
-0.57
-0.77
-0.89
-0.92
-0.92
-0.93
-0.95
-0.94
-0.91
-0.88
-0.90
-1.04
-1.29
-1.61
-1.90
-2.10
-2.18
-2.17
-2.13
-2.10
-2.09
-2.09
-2.07
-2.01
-1.89
-1.68
-1.32
-0.78
-0.05
0.84
1.81
2.73
3.48
3.99
4.24
4.31
4.29
4.29
4.34
4.45
4.56
4.65
4.67
4.59
4.37
3.95
3.26
2.30
1.16
0.02
-0.92
-1.49
-1.65
-1.46
-1.08
-0.67
-0.29
0.03
0.33
0.59
0.81
0.92
0.86
0.61
0.16
-0.48
-1.34
-2.42
-3.66
-4.94
-6.04
-6.74
-6.86
-6.35
-5.30
-3.89
-2.35
-0.87
0.42
1.40
2.00
2.19
1.98
1.47
0.87
0.41
0.29
0.56
1.13
1.85
2.55
3.21
3.87
4.62
5.47
6.30
6.89
7.03
6.65
5.87
4.88
3.90
2.99
2.13
1.25
0.32
-0.58
-1.29
-1.68
-1.71
-1.46
-1.09
-0.76
-0.55
-0.52
-0.67
-1.02
-1.61
-2.46
-3.52
-4.67
-5.66
-6.26
-6.29
-5.70
-4.62
-3.27
-1.87
-0.60
0.47
1.37
2.11
2.68
3.07
3.24
3.18
2.94
2.56
2.07
1.53
1.01
0.63
0.53
0.82
1.46
2.29
3.11
3.73
4.10
4.25
4.22
4.05
3.70
3.15
2.47
1.79
1.29
1.09
1.14
1.31
1.39
1.25
0.86
0.28
-0.36
-0.94
-1.41
-1.79
-2.10
-2.42
-2.81
-3.31
-3.90
-4.57
-5.26
-5.87
-6.28
-6.41
-6.14
-5.48
-4.48
-3.27
-2.03
-0.91
0.04
0.80
1.43
1.95
2.35
2.63
2.78
2.86
2.93
3.03
3.16
3.23
3.13
2.83
2.39
1.95
1.64
1.56
1.66
1.85
2.01
2.10
2.12
2.16
2.25
2.40
2.56
2.62
2.49
2.14
1.58
0.90
0.19
-0.44
-0.96
-1.40
-1.81
-2.25
-2.73
-3.21
-3.67
-4.08
-4.47
-4.89
-5.37
-5.86
-6.24
-6.36
-6.09
-5.38
-4.31
-3.03
-1.71
-0.51
0.50
1.27
1.83
2.19
2.39
2.49
2.51
2.54
2.62
2.77
2.97
3.14
3.20
3.08
2.79
2.39
1.97
1.65
1.49
1.50
1.66
1.90
2.15
2.35
2.48
2.54
2.58
2.60
2.62
2.61
2.48
2.16
1.56
0.66
-0.50
-1.77
-2.97
-3.93
-4.60
-4.99
-5.22
-5.40
-5.52
-5.50
-5.20
-4.53
-3.54
-2.42
-1.40
-0.64
-0.17
0.09
0.28
0.47
0.67
0.80
0.83
0.76
0.66
0.62
0.70
0.89
1.16
1.43
1.66
1.81
1.85
1.77
1.59
1.37
1.17
1.04
0.95
0.86
0.68
0.37
-0.08
-0.63
-1.20
-1.73
-2.20
-2.64
-3.10
-3.59
-4.14
-4.70
-5.23
-5.68
-5.97
-6.05
-5.89
-5.47
-4.80
-3.93
-2.97
-2.00
-1.08
-0.26
0.49
1.13
1.63
1.97
2.10
2.08
1.99
1.96
2.05
2.24
2.45
2.53
2.39
2.00
1.44
0.85
0.37
0.08
-0.02
0.01
0.04
-0.02
-0.24
-0.67
-1.25
-1.93
-2.58
-3.10
-3.41
-3.52
-3.51
-3.50
-3.60
-3.90
-4.38
-5.01
-5.71
-6.39
-6.97
-7.30
-7.27
-6.81
-5.93
-4.75
-3.44
-2.17
-1.02
-0.01
0.87
1.64
2.28
2.75
3.05
3.26
3.48
3.79
4.23
4.72
5.12
5.34
5.34
5.20
5.01
4.87
4.85
4.90
4.96
5.00
4.99
4.89
4.67
4.28
3.65
2.80
1.85
0.95
0.28
-0.08
-0.20
-0.22
-0.34
-0.67
-1.23
-1.98
-2.79
-3.61
-4.41
-5.15
-5.78
-6.17
-6.18
-5.72
-4.83
-3.63
-2.32
-1.05
0.11
1.14
2.08
2.95
3.71
4.28
4.60
4.62
4.36
3.89
3.32
2.77
2.37
2.18
2.20
2.36
2.53
2.58
2.43
2.10
1.61
1.06
0.48
-0.09
-0.67
-1.26
-1.85
-2.41
-2.88
-3.25
-3.51
-3.69
-3.82
-3.92
-4.04
-4.28
-4.70
-5.33
-6.10
-6.83
-7.32
-7.41
-7.10
-6.45
-5.63
-4.75
-3.87
-2.98
-2.06
-1.09
-0.10
0.88
1.84
2.74
3.57
4.30
4.93
5.48
6.02
6.62
7.28
7.96
8.57
8.98
9.15
9.09
8.89
8.64
8.35
8.00
7.48
6.73
5.72
4.52
3.28
2.21
1.44
1.01
0.85
0.81
0.73
0.49
0.06
-0.58
-1.41
-2.45
-3.71
-5.12
-6.53
-7.72
-8.46
-8.61
-8.14
-7.18
-5.97
-4.72
-3.59
-2.63
-1.81
-1.05
-0.31
0.43
1.10
1.66
2.04
2.28
2.39
2.42
2.39
2.30
2.16
1.98
1.84
1.79
1.87
2.05
2.26
2.42
2.48
2.44
2.32
2.16
1.99
1.82
1.68
1.53
1.36
1.12
0.81
0.42
0.04
-0.29
-0.56
-0.82
-1.19
-1.76
-2.59
-3.59
-4.63
-5.54
-6.20
-6.52
-6.51
-6.24
-5.77
-5.18
-4.50
-3.73
-2.83
-1.78
-0.63
0.53
1.54
2.27
2.69
2.88
2.99
3.16
3.42
3.74
4.03
4.22
4.33
4.43
4.59
4.83
5.10
5.28
5.28
5.07
4.67
4.18
3.64
3.11
2.60
2.12
1.67
1.27
0.97
0.77
0.63
0.50
0.27
-0.12
-0.66
-1.27
-1.81
-2.18
-2.34
-2.35
-2.35
-2.47
-2.81
-3.35
-4.00
-4.63
-5.13
-5.43
-5.50
-5.33
-4.95
-4.35
-3.57
-2.63
-1.62
-0.63
0.17
0.70
0.95
0.99
0.97
1.01
1.16
1.39
1.62
1.77
1.81
1.76
1.68
1.61
1.58
1.57
1.57
1.54
1.50
1.46
1.48
1.59
1.82
2.11
2.37
2.49
2.40
2.11
1.72
1.38
1.18
1.14
1.16
1.09
0.78
0.17
-0.66
-1.55
-2.28
-2.73
-2.89
-2.85
-2.77
-2.79
-3.00
-3.43
-4.03
-4.71
-5.32
-5.69
-5.67
-5.15
-4.14
-2.76
-1.20
0.31
1.57
2.44
2.93
3.10
3.08
2.97
2.86
2.78
2.73
2.69
2.67
2.67
2.69
2.76
2.87
3.03
3.22
3.44
3.69
3.90
4.03
4.00
3.75
3.31
2.76
2.21
1.78
1.52
1.42
1.37
1.22
0.89
0.38
-0.24
-0.85
-1.36
-1.78
-2.21
-2.73
-3.39
-4.14
-4.87
-5.47
-5.94
-6.32
-6.68
-7.01
-7.25
-7.28
-7.04
-6.54
-5.85
-5.06
-4.18
-3.19
-2.06
-0.81
0.40
1.38
1.94
2.06
1.88
1.63
1.55
1.80
2.31
2.94
3.49
3.83
3.96
3.99
4.02
4.11
4.25
4.36
4.38
4.29
4.09
3.81
3.44
2.98
2.43
1.85
1.30
0.85
0.49
0.20
-0.07
-0.33
-0.58
-0.81
-1.06
-1.36
-1.72
-2.13
-2.52
-2.87
-3.22
-3.64
-4.24
-5.01
-5.88
-6.67
-7.20
-7.35
-7.07
-6.40
-5.36
-4.03
-2.52
-0.95
0.49
1.62
2.35
2.68
2.69
2.53
2.33
2.23
2.28
2.50
2.85
3.23
3.57
3.79
3.90
3.93
3.94
3.96
4.01
4.07
4.12
4.13
4.09
3.97
3.75
3.41
2.96
2.43
1.90
1.44
1.14
1.00
0.95
0.86
0.58
0.04
-0.71
-1.51
-2.21
-2.73
-3.16
-3.68
-4.45
-5.48
-6.62
-7.59
-8.14
-8.15
-7.67
-6.85
-5.83
-4.68
-3.43
-2.08
-0.72
0.54
1.52
2.12
2.34
2.32
2.23
2.22
2.35
2.59
2.79
2.84
2.68
2.36
1.99
1.73
1.69
1.82
2.03
2.13
2.01
1.64
1.15
0.69
0.41
0.33
0.37
0.40
0.32
0.10
-0.21
-0.53
-0.83
-1.09
-1.38
-1.72
-2.15
-2.60
-3.07
-3.54
-4.02
-4.53
-5.06
-5.52
-5.78
-5.69
-5.18
-4.26
-3.08
-1.84
-0.72
0.17
0.83
1.32
1.73
2.11
2.47
2.82
3.12
3.37
3.57
3.71
3.78
3.75
3.63
3.45
3.26
3.09
2.99
2.94
2.93
2.96
3.03
3.12
3.19
3.20
3.11
2.91
2.64
2.31
1.95
1.51
0.97
0.33
-0.35
-0.94
-1.33
-1.49
-1.50
-1.54
-1.80
-2.38
-3.26
-4.25
-5.12
-5.64
-5.69
-5.31
-4.62
-3.82
-3.05
-2.36
-1.70
-1.03
-0.33
0.36
0.96
1.43
1.77
2.03
2.29
2.59
2.89
3.14
3.29
3.30
3.19
3.00
2.77
2.53
2.32
2.13
1.95
1.75
1.52
1.31
1.16
1.14
1.23
1.34
1.34
1.09
0.55
-0.18
-0.91
-1.44
-1.65
-1.54
-1.22
-0.85
-0.59
-0.49
-0.58
-0.81
-1.17
-1.64
-2.24
-2.95
-3.67
-4.26
-4.55
-4.44
-3.88
-2.96
-1.84
-0.70
0.32
1.12
1.69
2.07
2.31
2.48
2.65
2.88
3.19
3.53
3.84
4.04
4.10
4.03
3.86
3.64
3.41
3.21
3.03
2.86
2.70
2.56
2.46
2.44
2.50
2.66
2.89
3.11
3.20
3.07
2.70
2.14
1.50
0.87
0.31
-0.19
-0.66
-1.13
-1.62
-2.12
-2.61
-3.07
-3.48
-3.82
-4.06
-4.22
-4.32
-4.41
-4.55
-4.75
-4.98
-5.19
-5.32
-5.33
-5.20
-4.91
-4.43
-3.76
-2.89
-1.88
-0.84
0.14
0.93
1.47
1.72
1.72
1.54
1.30
1.11
1.06
1.17
1.40
1.69
1.96
2.18
2.34
2.43
2.45
2.39
2.23
2.01
1.74
1.44
1.15
0.87
0.61
0.38
0.19
0.08
0.03
0.04
0.02
-0.12
-0.47
-1.06
-1.84
-2.65
-3.33
-3.72
-3.79
-3.64
-3.43
-3.30
-3.31
-3.39
-3.41
-3.24
-2.82
-2.17
-1.39
-0.61
0.08
0.63
1.05
1.39
1.71
2.00
2.26
2.44
2.54
2.59
2.62
2.64
2.65
2.64
2.63
2.67
2.82
3.14
3.58
4.03
4.35
4.41
4.17
3.68
3.01
2.32
1.69
1.21
0.87
0.65
0.46
0.26
0.03
-0.19
-0.37
-0.49
-0.57
-0.66
-0.84
-1.18
-1.69
-2.35
-3.09
-3.83
-4.50
-5.07
-5.48
-5.72
-5.76
-5.58
-5.15
-4.46
-3.53
-2.40
-1.18
0.02
1.06
1.90
2.50
2.90
3.16
3.32
3.39
3.38
3.30
3.16
3.01
2.86
2.72
2.54
2.29
1.98
1.66
1.38
1.20
1.07
0.94
0.74
0.41
0.00
-0.42
-0.77
-0.98
-1.02
-0.93
-0.77
-0.63
-0.59
-0.69
-0.90
-1.15
-1.31
-1.32
-1.22
-1.12
-1.15
-1.44
-1.98
-2.72
-3.59
-4.51
-5.39
-6.14
-6.63
-6.71
-6.32
-5.50
-4.38
-3.19
-2.10
-1.23
-0.58
-0.06
0.41
0.89
1.38
1.82
2.12
2.20
2.04
1.70
1.29
0.96
0.82
0.91
1.19
1.63
2.15
2.73
3.31
3.82
4.16
4.26
4.11
3.80
3.44
3.13
2.88
2.55
2.01
1.19
0.15
-0.93
-1.80
-2.32
-2.53
-2.62
-2.81
-3.25
-3.95
-4.74
-5.43
-5.87
-6.04
-5.99
-5.75
-5.31
-4.60
-3.58
-2.28
-0.85
0.51
1.63
2.42
2.93
3.24
3.44
3.56
3.60
3.56
3.49
3.45
3.49
3.58
3.62
3.48
3.09
2.51
1.87
1.37
1.10
1.03
1.02
0.90
0.59
0.12
-0.38
-0.81
-1.13
-1.36
-1.62
-1.96
-2.36
-2.72
-2.92
-2.89
-2.66
-2.41
-2.34
-2.66
-3.43
-4.52
-5.69
-6.63
-7.12
-7.11
-6.69
-6.05
-5.32
-4.53
-3.64
-2.59
-1.39
-0.18
0.89
1.67
2.12
2.32
2.38
2.41
2.47
2.57
2.73
2.94
3.19
3.44
3.63
3.73
3.74
3.69
3.66
3.67
3.69
3.67
3.56
3.33
3.00
2.63
2.28
2.02
1.88
1.78
1.63
1.29
0.67
-0.21
-1.22
-2.16
-2.88
-3.39
-3.80
-4.29
-4.96
-5.77
-6.54
-7.07
-7.24
-7.06
-6.58
-5.90
-5.06
-4.06
-2.94
-1.78
-0.70
0.18
0.84
1.29
1.62
1.94
2.29
2.69
3.13
3.61
4.08
4.51
4.82
4.99
4.99
4.90
4.82
4.78
4.78
4.74
4.58
4.29
3.94
3.63
3.46
3.43
3.44
3.33
2.98
2.34
1.50
0.63
-0.11
-0.64
-1.01
-1.34
-1.75
-2.34
-3.09
-3.96
-4.86
-5.73
-6.50
-7.08
-7.35
-7.20
-6.59
-5.57
-4.30
-2.98
-1.77
-0.76
0.01
0.58
0.96
1.20
1.32
1.36
1.34
1.27
1.14
0.97
0.77
0.63
0.60
0.74
1.09
1.60
2.18
2.73
3.12
3.28
3.19
2.89
2.48
2.05
1.64
1.26
0.85
0.36
-0.22
-0.83
-1.41
-1.90
-2.33
-2.77
-3.32
-4.02
-4.78
-5.44
-5.79
-5.71
-5.17
-4.27
-3.17
-2.01
-0.86
0.24
1.32
2.35
3.28
3.99
4.37
4.36
3.98
3.35
2.67
2.08
1.69
1.51
1.49
1.51
1.51
1.44
1.29
1.06
0.76
0.41
0.05
-0.28
-0.59
-0.85
-1.09
-1.31
-1.50
-1.66
-1.79
-1.88
-1.92
-1.88
-1.75
-1.56
-1.38
-1.33
-1.48
-1.83
-2.29
-2.70
-2.88
-2.72
-2.21
-1.38
-0.35
0.75
1.80
2.72
3.46
4.03
4.44
4.72
4.85
4.84
4.70
4.47
4.22
4.04
3.96
3.97
4.01
4.03
4.02
4.03
4.13
4.38
4.77
5.19
5.47
5.46
5.10
4.45
3.65
2.88
2.21
1.65
1.10
0.53
-0.08
-0.68
-1.18
-1.62
-2.09
-2.69
-3.49
-4.42
-5.26
-5.76
-5.71
-5.03
-3.85
-2.42
-1.03
0.13
0.99
1.61
2.11
2.56
3.00
3.35
3.58
3.65
3.58
3.43
3.20
2.90
2.50
2.00
1.44
0.93
0.55
0.36
0.33
0.38
0.41
0.33
0.06
-0.47
-1.26
-2.31
-3.54
-4.83
-6.09
-7.21
-8.14
-8.86
-9.35
-9.55
-9.41
-8.90
-8.01
-6.81
-5.39
-3.86
-2.33
-0.91
0.29
1.16
1.64
1.73
1.50
1.10
0.73
0.54
0.63
0.98
1.54
2.20
2.83
3.32
3.64
3.75
3.69
3.55
3.39
3.23
3.07
2.88
2.63
2.33
2.01
1.65
1.17
0.43
-0.62
-1.96
-3.37
-4.54
-5.19
-5.22
-4.74
-4.00
-3.22
-2.53
-1.84
-0.98
0.17
1.60
3.17
4.67
5.93
6.89
7.59
8.10
8.48
8.75
8.96
9.15
9.38
9.72
10.15
10.63
11.06
11.40
11.65
11.83
11.93
11.86
11.46
10.57
9.10
7.11
4.73
2.15
-0.48
-3.05
-5.51
-7.78
-9.81
-11.59
-13.14
-14.53
-15.82
-17.00
-17.91
-18.35
-18.13
-17.21
-15.73
-13.97
-12.20
-10.57
-9.05
-7.54
-5.93
-4.24
-2.60
-1.23
-0.25
0.33
0.59
0.70
0.76
0.80
0.81
0.75
0.63
0.51
0.48
0.59
0.87
1.31
1.86
2.49
3.14
3.78
4.36
4.84
5.18
5.37
5.40
5.27
5.02
4.66
4.20
3.64
3.02
2.37
1.72
1.10
0.50
-0.15
-0.90
-1.80
-2.84
-3.94
-4.96
-5.77
-6.24
-6.35
-6.10
-5.57
-4.85
-4.04
-3.19
-2.33
-1.44
-0.48
0.55
1.64
2.68
3.56
4.15
4.45
4.52
4.48
4.44
4.43
4.37
4.19
3.85
3.41
3.01
2.78
2.77
2.96
3.20
3.37
3.36
3.12
2.68
2.12
1.59
1.19
1.02
1.05
1.19
1.27
1.16
0.85
0.47
0.18
0.10
0.26
0.53
0.76
0.82
0.65
0.29
-0.20
-0.79
-1.40
-1.98
-2.44
-2.73
-2.89
-3.02
-3.29
-3.87
-4.76
-5.86
-6.95
-7.79
-8.16
-7.95
-7.17
-5.93
-4.43
-2.91
-1.60
-0.62
0.02
0.40
0.66
0.91
1.21
1.54
1.89
2.25
2.64
3.10
3.62
4.20
4.79
5.30
5.67
5.84
5.71
5.25
4.45
3.37
2.15
1.03
0.22
-0.09
0.12
0.73
1.48
2.12
2.45
2.45
2.21
1.90
1.69
1.68
1.83
2.08
2.31
2.41
2.34
2.06
1.61
1.01
0.32
-0.42
-1.09
-1.57
-1.77
-1.61
-1.12
-0.42
0.33
1.02
1.58
2.04
2.43
2.78
3.10
3.39
3.64
3.82
3.87
3.70
3.23
2.44
1.44
0.44
-0.34
-0.76
-0.81
-0.62
-0.37
-0.17
-0.08
-0.08
-0.13
-0.23
-0.39
-0.61
-0.88
-1.16
-1.40
-1.58
-1.74
-1.94
-2.23
-2.62
-3.06
-3.49
-3.83
-4.08
-4.27
-4.45
-4.66
-4.88
-5.09
-5.26
-5.39
-5.46
-5.45
-5.32
-5.04
-4.54
-3.81
-2.87
-1.83
-0.78
0.14
0.85
1.32
1.54
1.57
1.43
1.17
0.84
0.49
0.17
-0.08
-0.25
-0.36
-0.47
-0.59
-0.72
-0.81
-0.80
-0.65
-0.44
-0.25
-0.15
-0.17
-0.23
-0.19
0.04
0.45
0.91
1.26
1.34
1.12
0.65
0.08
-0.43
-0.82
-1.09
-1.29
-1.46
-1.60
-1.64
-1.52
-1.17
-0.61
0.09
0.77
1.29
1.58
1.62
1.51
1.38
1.34
1.43
1.60
1.79
1.92
2.00
2.08
2.21
2.41
2.64
2.78
2.76
2.54
2.19
1.82
1.53
1.38
1.32
1.23
0.96
0.42
-0.38
-1.38
-2.44
-3.46
-4.39
-5.19
-5.87
-6.35
-6.54
-6.38
-5.83
-4.98
-3.99
-3.00
-2.14
-1.44
-0.86
-0.34
0.14
0.57
0.90
1.08
1.06
0.88
0.59
0.25
-0.06
-0.32
-0.49
-0.55
-0.49
-0.32
-0.07
0.20
0.40
0.50
0.51
0.46
0.41
0.35
0.24
0.03
-0.30
-0.68
-1.05
-1.35
-1.64
-2.02
-2.61
-3.45
-4.44
-5.35
-5.95
-6.07
-5.70
-4.98
-4.13
-3.34
-2.71
-2.25
-1.90
-1.62
-1.38
-1.21
-1.16
-1.22
-1.36
-1.49
-1.54
-1.48
-1.31
-1.09
-0.84
-0.56
-0.21
0.29
0.96
1.79
2.71
3.64
4.51
5.25
5.85
6.30
6.63
6.81
6.83
6.61
6.12
5.39
4.52
3.64
2.88
2.27
1.75
1.24
0.66
0.00
-0.61
-1.08
-1.31
-1.33
-1.18
-0.97
-0.71
-0.39
0.08
0.73
1.56
2.48
3.34
3.98
4.27
4.21
3.88
3.44
3.06
2.81
2.66
2.52
2.31
2.01
1.68
1.41
1.24
1.13
1.02
0.89
0.76
0.68
0.69
0.78
0.86
0.82
0.65
0.35
-0.01
-0.40
-0.78
-1.19
-1.63
-2.07
-2.48
-2.82
-3.12
-3.43
-3.85
-4.46
-5.27
-6.19
-7.06
-7.64
-7.75
-7.31
-6.36
-5.09
-3.70
-2.38
-1.22
-0.29
0.43
0.92
1.22
1.38
1.50
1.65
1.88
2.16
2.39
2.53
2.58
2.61
2.70
2.88
3.15
3.44
3.68
3.85
3.95
3.98
3.90
3.64
3.20
2.58
1.88
1.19
0.60
0.15
-0.16
-0.38
-0.58
-0.77
-0.99
-1.22
-1.46
-1.66
-1.83
-1.98
-2.17
-2.47
-2.92
-3.48
-4.05
-4.47
-4.65
-4.53
-4.15
-3.56
-2.79
-1.91
-0.98
-0.10
0.62
1.07
1.27
1.30
1.30
1.40
1.63
1.93
2.19
2.33
2.35
2.30
2.31
2.48
2.81
3.24
3.58
3.62
3.25
2.50
1.58
0.81
0.41
0.46
0.79
1.13
1.19
0.84
0.17
-0.64
-1.36
-1.88
-2.21
-2.43
-2.67
-2.99
-3.45
-4.01
-4.61
-5.18
-5.61
-5.77
-5.60
-5.08
-4.28
-3.30
-2.31
-1.42
-0.68
-0.11
0.33
0.67
0.96
1.20
1.39
1.52
1.60
1.67
1.77
1.93
2.18
2.50
2.84
3.14
3.36
3.47
3.48
3.47
3.48
3.56
3.69
3.86
3.99
4.04
4.00
3.87
3.67
3.39
3.03
2.58
2.04
1.47
0.94
0.45
0.00
-0.48
-1.06
-1.78
-2.62
-3.50
-4.31
-4.98
-5.45
-5.71
-5.78
-5.65
-5.33
-4.84
-4.18
-3.34
-2.35
-1.26
-0.19
0.70
1.24
1.34
1.07
0.65
0.30
0.19
0.35
0.64
0.90
1.04
1.08
1.14
1.30
1.58
1.89
2.13
2.20
2.14
2.01
1.91
1.91
1.98
2.08
2.17
2.20
2.16
2.02
1.76
1.40
0.99
0.62
0.38
0.28
0.27
0.25
0.09
-0.27
-0.81
-1.46
-2.12
-2.74
-3.26
-3.69
-4.03
-4.35
-4.73
-5.27
-6.01
-6.90
-7.80
-8.46
-8.73
-8.53
-7.92
-7.06
-6.10
-5.15
-4.26
-3.45
-2.72
-2.05
-1.41
-0.75
-0.06
0.66
1.35
1.94
2.35
2.55
2.62
2.69
2.86
3.19
3.65
4.10
4.40
4.44
4.21
3.78
3.31
2.95
2.76
2.71
2.69
2.58
2.34
2.00
1.66
1.37
1.15
0.91
0.61
0.24
-0.14
-0.43
-0.57
-0.57
-0.49
-0.41
-0.36
-0.34
-0.31
-0.30
-0.37
-0.59
-1.04
-1.68
-2.40
-3.06
-3.52
-3.68
-3.51
-3.07
-2.45
-1.74
-1.00
-0.25
0.53
1.33
2.13
2.85
3.40
3.71
3.77
3.64
3.40
3.14
2.91
2.76
2.71
2.78
2.98
3.29
3.65
3.99
4.27
4.42
4.41
4.25
3.94
3.53
3.04
2.54
2.06
1.63
1.26
0.92
0.58
0.22
-0.14
-0.49
-0.77
-0.98
-1.11
-1.21
-1.32
-1.48
-1.70
-1.99
-2.35
-2.81
-3.37
-4.03
-4.77
-5.53
-6.27
-6.94
-7.53
-8.02
-8.40
-8.63
-8.63
-8.29
-7.54
-6.39
-4.96
-3.49
-2.19
-1.20
-0.53
-0.04
0.42
0.95
1.56
2.17
2.69
3.14
3.56
4.05
4.61
5.18
5.64
5.91
6.02
6.05
6.10
6.23
6.44
6.66
6.82
6.88
6.82
6.65
6.35
5.89
5.29
4.58
3.84
3.15
2.59
2.14
1.73
1.24
0.63
-0.10
-0.80
-1.33
-1.60
-1.68
-1.74
-2.02
-2.61
-3.52
-4.58
-5.59
-6.43
-7.05
-7.46
-7.67
-7.60
-7.14
-6.22
-4.85
-3.17
-1.41
0.19
1.50
2.45
3.09
3.45
3.59
3.54
3.34
3.03
2.71
2.44
2.29
2.31
2.50
2.79
3.09
3.24
3.16
2.86
2.46
2.15
2.08
2.29
2.64
2.93
2.96
2.67
2.16
1.61
1.20
1.00
0.97
1.04
1.11
1.13
1.05
0.86
0.55
0.09
-0.47
-1.08
-1.62
-2.05
-2.34
-2.56
-2.81
-3.19
-3.75
-4.45
-5.22
-5.92
-6.44
-6.66
-6.53
-6.01
-5.13
-3.94
-2.56
-1.15
0.18
1.32
2.24
2.97
3.50
3.86
4.02
3.98
3.73
3.30
2.74
2.10
1.46
0.88
0.42
0.15
0.11
0.24
0.45
0.59
0.56
0.35
0.05
-0.18
-0.23
-0.06
0.26
0.58
0.74
0.62
0.15
-0.63
-1.59
-2.54
-3.30
-3.77
-3.97
-4.01
-4.07
-4.29
-4.72
-5.34
-6.09
-6.91
-7.72
-8.42
-8.88
-8.93
-8.45
-7.43
-5.93
-4.14
-2.27
-0.49
1.03
2.21
3.02
3.50
3.71
3.74
3.66
3.51
3.32
3.13
2.98
2.91
2.90
2.92
2.88
2.76
2.57
2.39
2.29
2.34
2.52
2.78
3.06
3.28
3.40
3.39
3.18
2.74
2.04
1.12
0.06
-0.98
-1.89
-2.56
-2.99
-3.26
-3.50
-3.87
-4.45
-5.24
-6.14
-7.00
-7.65
-7.95
-7.78
-7.09
-5.87
-4.25
-2.41
-0.63
0.86
1.95
2.68
3.17
3.58
3.96
4.26
4.39
4.27
3.93
3.43
2.88
2.38
2.00
1.78
1.76
1.93
2.21
2.48
2.61
2.54
2.30
1.99
1.71
1.54
1.46
1.42
1.35
1.16
0.81
0.29
-0.35
-1.01
-1.57
-1.93
-2.11
-2.20
-2.34
-2.59
-2.91
-3.18
-3.29
-3.19
-2.92
-2.54
-2.08
-1.52
-0.86
-0.14
0.57
1.18
1.69
2.20
2.85
3.68
4.57
5.26
5.49
5.19
4.60
4.14
4.23
5.08
6.53
8.15
9.45
10.09
9.98
9.33
8.51
7.83
7.42
7.21
6.92
6.28
5.13
3.51
1.62
-0.32
-2.04
-3.22
-3.37
-1.92
1.44
6.40
11.82
15.96
17.24
15.01
10.02
4.16
-0.43
-2.40
-1.74
0.37
2.38
3.24
2.93
2.29
2.37
3.77
6.25
8.95
10.83
11.32
10.57
9.35
8.56
8.71
9.69
10.78
11.03
9.75
6.83
2.76
-1.62
-5.45
-8.23
-9.89
-10.80
-11.48
-12.33
-13.50
-14.80
-15.88
-16.46
-16.42
-15.90
-15.23
-14.74
-14.64
-14.95
-15.53
-16.20
-16.84
-17.42
-17.98
-18.52
-18.92
-18.96
-18.44
-17.33
-15.85
-14.44
-13.54
-13.34
-13.63
-13.92
-13.67
-12.60
-10.87
-8.92
-7.23
-5.99
-5.01
-3.95
-2.51
-0.78
0.84
1.87
1.99
1.38
0.60
0.35
1.13
2.95
5.37
7.67
9.21
9.68
9.25
8.48
8.03
8.46
9.95
12.25
14.79
16.85
17.84
17.45
15.67
12.78
9.22
5.49
2.08
-0.59
-2.25
-2.81
-2.45
-1.57
-0.68
-0.23
-0.49
-1.42
-2.85
-4.53
-6.28
-8.00
-9.55
-10.69
-11.13
-10.62
-9.16
-7.04
-4.70
-2.61
-0.95
0.39
1.70
3.20
4.87
6.38
7.32
7.43
6.81
5.93
5.44
5.88
7.52
10.25
13.61
16.98
19.65
20.97
20.48
18.04
13.91
8.76
3.49
-1.01
-4.19
-5.96
-6.68
-6.92
-7.17
-7.63
-8.27
-8.90
-9.40
-9.76
-10.06
-10.31
-10.42
-10.24
-9.69
-8.92
-8.26
-8.07
-8.51
-9.44
-10.42
-10.96
-10.71
-9.66
-8.00
-6.04
-3.93
-1.55
1.43
5.37
10.42
16.37
22.69
28.60
33.32
36.23
36.92
35.23
31.23
25.31
18.14
10.71
4.12
-0.75
-3.49
-4.34
-4.03
-3.41
-3.12
-3.36
-3.93
-4.47
-4.74
-4.74
-4.65
-4.74
-5.14
-5.82
-6.60
-7.29
-7.79
-8.09
-8.27
-8.37
-8.33
-7.96
-7.05
-5.48
-3.27
-0.62
2.24
5.16
8.08
10.90
13.33
14.86
14.98
13.45
10.61
7.34
4.71
3.54
4.01
5.61
7.45
8.64
8.62
7.27
4.84
1.77
-1.45
-4.33
-6.49
-7.72
-8.04
-7.71
-7.08
-6.45
-5.97
-5.59
-5.12
-4.37
-3.21
-1.63
0.26
2.28
4.18
5.79
6.95
7.65
7.98
8.08
8.10
8.05
7.86
7.39
6.57
5.50
4.44
3.68
3.42
3.56
3.74
3.47
2.40
0.53
-1.81
-4.13
-6.08
-7.66
-9.18
-11.02
-13.33
-15.88
-18.17
-19.74
-20.43
-20.46
-20.28
-20.28
-20.60
-21.09
-21.51
-21.70
-21.62
-21.31
-20.69
-19.52
-17.50
-14.55
-10.94
-7.20
-3.82
-0.98
1.59
4.33
7.47
10.71
13.31
14.43
13.67
11.31
8.18
5.16
2.76
0.94
-0.69
-2.51
-4.56
-6.58
-8.21
-9.27
-9.88
-10.37
-11.10
-12.19
-13.50
-14.78
-15.79
-16.47
-16.79
-16.76
-16.33
-15.34
-13.71
-11.44
-8.77
-6.08
-3.78
-2.17
-1.18
-0.40
0.88
3.30
7.06
11.61
15.70
17.88
17.16
13.62
8.48
3.51
0.20
-0.95
-0.54
0.31
0.71
0.51
0.19
0.34
1.13
2.05
2.27
1.24
-0.93
-3.41
-5.10
-5.25
-3.81
-1.45
0.86
2.33
2.76
2.53
2.40
3.05
4.72
7.14
9.72
11.87
13.31
14.14
14.64
14.99
15.13
14.76
13.65
11.83
9.69
7.72
6.24
5.15
3.98
2.23
-0.31
-3.32
-6.10
-7.94
-8.52
-8.09
-7.30
-6.87
-7.16
-8.02
-8.92
-9.23
-8.60
-7.06
-4.98
-2.78
-0.76
1.08
2.95
5.16
7.90
11.18
14.81
18.46
21.73
24.35
26.16
27.20
27.67
27.89
28.23
29.05
30.61
32.92
35.63
38.05
39.33
38.79
36.28
32.35
28.13
24.85
23.29
23.28
23.74
23.14
20.28
15.06
8.53
2.51
-1.43
-2.74
-2.24
-1.56
-2.22
-4.71
-8.23
-11.27
-12.54
-11.74
-9.62
-7.37
-5.84
-5.11
-4.63
-3.81
-2.53
-1.29
-0.87
-1.78
-3.90
-6.48
-8.53
-9.27
-8.48
-6.53
-4.10
-1.90
-0.40
0.32
0.51
0.60
0.94
1.55
2.09
2.02
0.86
-1.52
-4.80
-8.37
-11.63
-14.22
-16.15
-17.69
-19.10
-20.45
-21.60
-22.30
-22.40
-21.94
-21.17
-20.39
-19.83
-19.53
-19.36
-19.08
-18.45
-17.36
-15.84
-14.06
-12.25
-10.61
-9.21
-8.00
-6.92
-5.94
-5.20
-4.91
-5.20
-6.07
-7.24
-8.33
-8.98
-9.02
-8.59
-8.02
-7.64
-7.61
-7.88
-8.28
-8.61
-8.79
-8.84
-8.80
-8.66
-8.40
-8.11
-7.99
-8.40
-9.65
-11.83
-14.66
-17.57
-19.93
-21.26
-21.41
-20.48
-18.79
-16.69
-14.55
-12.67
-11.29
-10.52
-10.27
-10.32
-10.42
-10.41
-10.40
-10.69
-11.62
-13.38
-15.81
-18.40
-20.41
-21.23
-20.59
-18.83
-16.72
-15.23
-15.03
-16.14
-17.94
-19.55
-20.25
-19.88
-18.71
-17.30
-16.19
-15.97
-17.44
-21.52
-28.48
-36.95
-43.39
-42.82
-30.95
-6.44
27.96
66.14
100.92
126.51
139.92
140.81
130.43
110.56
83.33
51.59
19.08
-9.98
-32.00
-45.12
-49.56
-47.18
-40.48
-31.83
-23.08
-15.43
-9.47
-5.23
-2.39
-0.56
0.43
0.33
