1650285592.00
64.000000
-0.00
-0.00
-0.00
-0.00
-0.00
-0.00
-0.00
-0.00
-0.00
-0.00
0.00
0.01
0.01
-0.00
-0.03
-0.05
-0.05
0.00
0.13
0.36
0.66
1.01
1.37
1.72
2.06
2.40
2.79
3.24
3.80
4.42
5.06
5.66
6.20
6.68
7.15
7.68
8.31
9.14
10.09
11.04
11.88
12.56
13.14
13.76
14.65
15.96
17.91
20.32
22.90
25.38
27.58
29.57
31.68
34.32
37.81
42.54
48.15
54.10
59.83
64.97
69.59
74.15
79.34
85.70
93.75
102.99
112.63
121.77
129.82
136.80
143.30
150.64
157.52
166.23
177.40
191.17
206.32
219.94
227.64
224.74
207.83
176.03
131.77
78.94
21.91
-36.08
-93.51
-150.20
-206.35
-261.72
-315.43
-365.93
-412.18
-453.35
-488.87
-517.95
-539.39
-551.62
-553.00
-542.36
-519.24
-484.54
-440.14
-388.64
-332.90
-275.57
-218.79
-164.03
-112.20
-63.72
-18.97
21.62
57.48
87.94
112.45
130.81
143.34
150.94
154.92
156.53
156.72
155.90
153.95
150.48
145.08
137.48
127.53
115.33
101.54
87.80
76.74
71.39
73.92
84.47
100.57
117.87
131.72
138.92
138.80
132.92
123.89
113.95
104.27
94.98
85.89
77.23
69.41
62.93
57.89
53.84
49.87
45.03
38.83
31.50
23.90
17.17
12.24
9.51
8.64
8.79
8.98
8.48
7.11
5.14
3.10
1.50
0.61
0.32
0.29
0.06
-0.71
-2.13
-4.06
-6.25
-8.33
-9.87
-10.41
-9.56
-7.20
-3.67
0.24
3.44
5.00
4.52
2.29
-0.88
-4.06
-6.59
-8.25
-9.10
-9.25
-8.74
-7.54
-5.75
-3.62
-1.59
-0.02
0.90
1.22
1.06
0.60
-0.04
-0.73
-1.32
-1.72
-1.95
-2.15
-2.57
-3.36
-4.40
-5.35
-5.83
-5.65
-4.91
-3.92
-2.95
-2.07
-1.08
0.25
2.02
4.03
5.99
7.62
8.87
9.88
10.83
11.76
12.49
12.74
12.26
11.04
9.28
7.33
5.53
4.11
3.05
2.21
1.35
0.20
-1.37
-3.34
-5.46
-7.37
-8.67
-9.10
-8.59
-7.34
-5.77
-4.35
-3.51
-3.47
-4.16
-5.33
-6.55
-7.44
-7.70
-7.26
-6.19
-4.69
-3.00
-1.39
-0.11
0.61
0.59
-0.21
-1.65
-3.42
-5.11
-6.41
-7.15
-7.37
-7.25
-6.98
-6.64
-6.19
-5.57
-4.72
-3.65
-2.44
-1.15
0.15
1.38
2.44
3.16
3.42
3.23
2.73
2.19
1.87
1.92
2.28
2.79
3.25
3.51
3.54
3.32
2.85
2.06
0.92
-0.60
-2.42
-4.26
-5.76
-6.63
-6.68
-5.96
-4.71
-3.34
-2.29
-1.92
-2.39
-3.67
-5.61
-7.98
-10.66
-13.60
-16.84
-20.34
-23.86
-26.91
-28.91
-29.33
-27.93
-24.82
-20.43
-15.29
-9.88
-4.56
0.40
4.70
7.99
10.00
10.64
10.14
8.93
7.57
6.48
5.92
6.00
6.75
8.24
10.53
13.60
17.20
20.87
23.96
25.82
25.95
24.19
20.79
16.39
11.80
7.82
4.92
3.19
2.31
1.79
1.21
0.36
-0.73
-1.94
-3.20
-4.56
-6.13
-7.93
-9.74
-11.14
-11.59
-10.75
-8.58
-5.47
-2.07
0.90
2.97
3.98
4.04
3.41
2.29
0.74
-1.27
-3.72
-6.42
-8.97
-10.83
-11.54
-10.92
-9.13
-6.63
-4.00
-1.69
0.06
1.25
2.05
2.65
3.14
3.51
3.69
3.63
3.30
2.78
2.17
1.61
1.20
1.00
0.99
1.11
1.22
1.17
0.82
0.07
-1.14
-2.84
-4.98
-7.46
-10.05
-12.41
-14.16
-14.95
-14.55
-12.95
-10.35
-7.09
-3.59
-0.26
2.57
4.71
6.09
6.76
6.90
6.72
6.42
6.15
5.95
5.80
5.62
5.36
4.98
4.50
3.98
3.47
3.04
2.72
2.54
2.41
2.18
1.69
0.82
-0.41
-1.80
-3.00
-3.61
-3.33
-2.11
-0.12
2.25
4.57
6.46
7.66
8.08
7.74
6.75
5.29
3.59
1.90
0.43
-0.62
-1.20
-1.35
-1.19
-0.86
-0.45
-0.02
0.44
0.93
1.43
1.89
2.27
2.49
2.44
1.95
0.89
-0.77
-2.85
-4.95
-6.57
-7.30
-6.96
-5.70
-3.87
-1.88
-0.03
1.50
2.63
3.29
3.43
3.05
2.24
1.24
0.30
-0.41
-0.81
-0.91
-0.75
-0.30
0.45
1.47
2.58
3.50
3.94
3.75
2.93
1.63
-0.03
-1.99
-4.30
-6.97
-9.85
-12.55
-14.53
-15.30
-14.55
-12.30
-8.91
-4.89
-0.76
3.10
6.50
9.36
11.59
13.03
13.52
12.94
11.41
9.24
6.93
4.92
3.50
2.68
2.26
1.96
1.59
1.12
0.64
0.29
0.12
0.10
0.10
-0.01
-0.28
-0.71
-1.23
-1.73
-2.11
-2.21
-1.86
-0.88
0.81
3.15
5.88
8.64
11.04
12.75
13.63
13.64
12.89
11.53
9.77
7.85
6.02
4.46
3.30
2.52
1.97
1.43
0.68
-0.39
-1.77
-3.26
-4.59
-5.54
-5.99
-6.02
-5.85
-5.76
-5.96
-6.48
-7.19
-7.83
-8.13
-7.89
-7.00
-5.44
-3.32
-0.81
1.85
4.41
6.59
8.22
9.22
9.61
9.48
8.92
8.00
6.78
5.34
3.79
2.27
0.90
-0.24
-1.13
-1.80
-2.35
-2.79
-3.11
-3.21
-2.99
-2.41
-1.57
-0.67
0.04
0.36
0.26
-0.08
-0.40
-0.40
0.09
1.08
2.44
3.96
5.41
6.62
7.48
7.97
8.13
8.04
7.75
7.33
6.82
6.27
5.73
5.25
4.80
4.34
3.76
3.01
2.11
1.15
0.26
-0.50
-1.12
-1.66
-2.19
-2.73
-3.27
-3.78
-4.27
-4.80
-5.41
-6.10
-6.75
-7.16
-7.11
-6.42
-5.06
-3.16
-0.99
1.14
2.98
4.43
5.52
6.37
7.04
7.53
7.75
7.60
7.05
6.17
5.14
4.16
3.34
2.68
2.10
1.47
0.73
-0.13
-1.05
-2.00
-2.92
-3.82
-4.69
-5.50
-6.24
-6.86
-7.32
-7.62
-7.77
-7.76
-7.53
-7.05
-6.26
-5.19
-3.89
-2.48
-1.04
0.35
1.63
2.73
3.56
4.03
4.06
3.66
2.92
2.04
1.26
0.72
0.51
0.52
0.56
0.44
0.05
-0.56
-1.21
-1.69
-1.90
-1.90
-1.89
-2.10
-2.66
-3.57
-4.70
-5.84
-6.78
-7.34
-7.41
-6.97
-6.03
-4.73
-3.24
-1.77
-0.47
0.59
1.43
2.14
2.81
3.43
3.96
4.25
4.19
3.76
3.01
2.08
1.13
0.30
-0.31
-0.65
-0.76
-0.75
-0.76
-0.97
-1.48
-2.28
-3.26
-4.29
-5.25
-6.09
-6.82
-7.46
-7.95
-8.21
-8.14
-7.67
-6.79
-5.50
-3.84
-1.89
0.20
2.21
3.89
5.01
5.47
5.31
4.67
3.73
2.66
1.59
0.59
-0.26
-0.90
-1.28
-1.40
-1.34
-1.24
-1.22
-1.39
-1.76
-2.30
-2.94
-3.68
-4.56
-5.62
-6.83
-8.03
-8.96
-9.36
-9.06
-8.07
-6.55
-4.74
-2.85
-1.01
0.78
2.53
4.27
5.95
7.48
8.70
9.46
9.63
9.15
8.08
6.58
4.90
3.32
2.03
1.09
0.43
-0.13
-0.73
-1.47
-2.32
-3.20
-4.01
-4.69
-5.26
-5.82
-6.48
-7.37
-8.52
-9.83
-11.03
-11.80
-11.83
-10.93
-9.09
-6.51
-3.43
-0.15
3.06
5.98
8.40
10.12
11.02
11.13
10.59
9.65
8.57
7.51
6.52
5.54
4.52
3.45
2.37
1.38
0.54
-0.12
-0.65
-1.13
-1.62
-2.24
-3.08
-4.25
-5.84
-7.81
-9.96
-11.96
-13.41
-14.02
-13.65
-12.40
-10.53
-8.33
-6.03
-3.77
-1.56
0.61
2.81
5.04
7.26
9.37
11.18
12.47
13.02
12.68
11.45
9.44
6.91
4.18
1.55
-0.70
-2.41
-3.48
-3.93
-3.86
-3.44
-2.92
-2.58
-2.70
-3.45
-4.81
-6.54
-8.23
-9.40
-9.64
-8.78
-6.85
-4.11
-0.95
2.21
5.05
7.37
9.10
10.30
11.04
11.38
11.34
10.92
10.20
9.33
8.49
7.80
7.24
6.63
5.78
4.58
3.15
1.77
0.69
0.03
-0.33
-0.73
-1.49
-2.80
-4.62
-6.66
-8.53
-9.83
-10.29
-9.78
-8.31
-6.00
-3.07
0.25
3.66
6.91
9.72
11.90
13.30
13.86
13.61
12.71
11.43
10.06
8.85
7.95
7.36
6.97
6.64
6.26
5.78
5.23
4.63
4.00
3.28
2.41
1.30
-0.17
-2.00
-4.13
-6.38
-8.46
-10.08
-11.02
-11.15
-10.48
-9.13
-7.26
-5.06
-2.70
-0.32
1.96
4.02
5.74
6.98
7.58
7.42
6.43
4.78
2.81
1.05
-0.03
-0.19
0.46
1.48
2.29
2.48
1.93
0.88
-0.29
-1.29
-2.02
-2.67
-3.51
-4.74
-6.35
-8.11
-9.72
-10.84
-11.26
-10.87
-9.69
-7.79
-5.35
-2.59
0.24
2.94
5.33
7.31
8.82
9.85
10.38
10.41
10.01
9.25
8.29
7.29
6.37
5.62
5.04
4.56
4.15
3.77
3.39
3.00
2.58
2.03
1.30
0.35
-0.74
-1.87
-2.89
-3.78
-4.61
-5.52
-6.63
-7.87
-9.03
-9.77
-9.76
-8.82
-6.96
-4.38
-1.38
1.68
4.41
6.53
7.87
8.39
8.27
7.77
7.21
6.88
6.98
7.64
8.84
10.44
12.11
13.40
13.81
13.06
11.17
8.54
5.77
3.47
1.98
1.31
1.19
1.22
1.07
0.52
-0.51
-2.00
-3.85
-5.87
-7.76
-9.04
-9.17
-7.67
-4.29
0.77
6.90
13.20
18.74
22.85
25.27
26.21
26.06
25.22
23.90
22.07
19.65
16.61
13.10
9.36
5.62
2.00
-1.51
-5.02
-8.58
-12.16
-15.67
-18.98
-22.05
-24.89
-27.48
-29.74
-31.48
-32.59
-33.05
-33.08
-33.01
-33.15
-33.54
-33.86
-33.54
-32.02
-29.03
-24.70
-19.53
-14.21
-9.37
-5.43
-2.61
-0.90
-0.20
-0.35
-1.15
-2.27
-3.40
-4.32
-5.08
-5.79
-6.56
-7.34
-7.87
-7.69
-6.28
-3.39
0.68
5.05
8.63
10.54
10.20
7.43
2.46
-4.10
-11.39
-18.41
-24.08
-27.23
-26.68
-21.75
-12.52
0.09
14.65
29.59
43.53
54.31
59.65
58.63
52.53
43.91
35.11
27.40
21.19
16.39
12.81
10.46
9.53
9.99
11.35
12.93
14.21
15.17
16.22
17.85
20.27
23.14
25.57
26.53
25.59
23.36
21.18
20.66
22.89
27.88
34.42
40.54
44.33
44.76
41.99
37.22
32.00
27.49
24.11
21.56
19.18
16.41
13.08
9.44
5.93
2.85
0.12
-2.61
-5.67
-9.10
-12.59
-15.62
-17.75
-18.91
-19.40
-19.79
-20.58
-21.98
-23.80
-25.61
-26.99
-27.75
-28.00
-28.03
-28.16
-28.58
-29.24
-29.92
-30.30
-30.15
-29.37
-28.06
-26.42
-24.66
-22.97
-21.41
-20.01
-18.76
-17.72
-16.92
-16.38
-16.05
-15.80
-15.56
-15.27
-14.99
-14.76
-14.60
-14.46
-14.18
-13.64
-12.79
-11.71
-10.59
-9.66
-9.09
-8.97
-9.26
-9.87
-10.73
-11.75
-12.87
-13.99
-14.96
-15.55
-15.52
-14.69
-13.02
-10.61
-7.71
-4.64
-1.74
0.65
2.25
2.89
2.58
1.60
0.43
-0.37
-0.36
0.51
1.89
3.11
3.52
2.82
1.17
-0.81
-2.33
-2.81
-2.12
-0.72
0.54
0.73
-0.72
-3.74
-7.44
-10.39
-11.00
-8.06
-1.11
9.40
22.25
35.86
48.74
60.03
69.75
78.85
88.79
100.70
114.36
127.59
136.39
136.10
123.09
96.31
58.01
13.25
-31.41
-69.63
-96.61
-110.00
-109.94
-98.76
-80.18
-58.57
-38.14
-22.30
-13.28
-11.96
-17.92
-29.73
-45.19
-61.72
-76.82
-88.50
-95.69
-98.30
-97.11
-93.39
-88.38
-82.90
-77.14
-70.66
-62.74
-52.78
-40.78
-27.51
-14.30
-2.62
6.43
12.43
15.51
16.16
14.83
11.79
7.11
0.91
-6.46
-14.34
-21.85
-28.08
-32.33
-34.23
-33.75
-31.14
-26.74
-20.91
-14.05
-6.53
1.22
8.82
15.84
21.94
26.74
29.98
31.45
31.15
29.28
26.25
22.54
18.57
14.61
10.78
7.15
3.86
1.20
-0.50
-1.00
-0.28
1.47
3.93
6.73
9.55
12.12
14.20
15.59
16.17
16.01
15.38
14.71
14.45
14.92
16.19
18.12
20.45
22.92
25.36
27.65
29.64
31.11
31.79
31.54
30.36
28.47
26.23
23.92
21.68
19.43
16.99
14.22
11.15
8.03
5.17
2.85
1.13
-0.18
-1.39
-2.85
-4.76
-7.16
-9.85
-12.47
-14.61
-15.90
-16.09
-15.06
-12.86
-9.75
-6.06
-2.22
1.36
4.37
6.64
8.15
8.99
9.33
9.28
8.93
8.28
7.31
6.07
4.65
3.24
2.03
1.14
0.54
0.15
-0.21
-0.69
-1.36
-2.30
-3.52
-4.98
-6.53
-7.88
-8.63
-8.38
-6.93
-4.37
-1.04
2.54
5.91
8.77
11.03
12.71
13.85
14.48
14.63
14.38
13.85
13.20
12.55
11.91
11.23
10.42
9.42
8.24
6.91
5.49
4.04
2.59
1.17
-0.19
-1.50
-2.75
-3.91
-4.95
-5.74
-6.17
-6.09
-5.44
-4.25
-2.61
-0.71
1.29
3.21
4.90
6.18
6.92
7.05
6.59
5.67
4.49
3.25
2.11
1.17
0.46
-0.06
-0.49
-0.93
-1.47
-2.17
-3.03
-3.98
-4.96
-5.92
-6.90
-8.00
-9.33
-10.92
-12.68
-14.35
-15.64
-16.28
-16.10
-15.03
-13.10
-10.38
-6.99
-3.11
1.02
5.04
8.60
11.43
13.41
14.62
15.26
15.52
15.55
15.41
15.12
14.70
14.21
13.69
13.14
12.47
11.57
10.31
8.72
6.95
5.24
3.78
2.61
1.63
0.63
-0.53
-1.80
-2.92
-3.57
-3.51
-2.74
-1.49
-0.06
1.35
2.71
4.06
5.41
6.55
7.16
6.93
5.84
4.20
2.57
1.45
1.08
1.36
1.95
2.50
2.86
3.00
2.98
2.81
2.41
1.68
0.61
-0.70
-2.07
-3.37
-4.56
-5.71
-6.89
-8.09
-9.12
-9.68
-9.49
-8.41
-6.63
-4.59
-2.89
-2.07
-2.41
-3.78
-5.70
-7.45
-8.38
-8.12
-6.68
-4.37
-1.67
0.93
3.09
4.63
5.51
5.83
5.77
5.55
5.36
5.24
5.09
4.70
3.82
2.34
0.29
-2.17
-4.82
-7.44
-9.77
-11.55
-12.51
-12.51
-11.59
-10.04
-8.25
-6.60
-5.34
-4.55
-4.20
-4.27
-4.68
-5.31
-5.91
-6.19
-5.90
-5.00
-3.62
-2.04
-0.41
1.22
2.98
4.96
7.17
9.43
11.52
13.26
14.60
15.57
16.24
16.62
16.55
15.81
14.22
11.79
8.78
5.68
3.05
1.33
0.69
0.98
1.84
2.85
3.76
4.48
5.06
5.56
6.00
6.28
6.28
5.88
4.97
3.52
1.58
-0.68
-2.96
-4.89
-6.16
-6.66
-6.56
-6.26
-6.18
-6.57
-7.46
-8.63
-9.81
-10.83
-11.71
-12.57
-13.53
-14.57
-15.52
-16.14
-16.27
-15.87
-15.00
-13.76
-12.23
-10.45
-8.42
-6.20
-3.95
-1.93
-0.44
0.30
0.21
-0.55
-1.67
-2.74
-3.44
-3.64
-3.41
-2.99
-2.66
-2.66
-3.09
-3.89
-4.86
-5.74
-6.26
-6.34
-6.10
-5.91
-6.19
-7.26
-9.12
-11.43
-13.64
-15.19
-15.69
-15.02
-13.25
-10.58
-7.19
-3.30
0.79
4.73
8.11
10.60
12.07
12.62
12.59
12.41
12.45
12.89
13.69
14.62
15.41
15.88
15.98
15.82
15.54
15.21
14.81
14.19
13.15
11.55
9.39
6.82
4.16
1.77
-0.09
-1.25
-1.72
-1.62
-1.11
-0.33
0.58
1.51
2.27
2.74
2.81
2.49
1.87
1.10
0.31
-0.39
-0.98
-1.44
-1.82
-2.13
-2.41
-2.67
-2.94
-3.22
-3.51
-3.82
-4.18
-4.63
-5.22
-5.93
-6.68
-7.37
-7.84
-7.98
-7.65
-6.79
-5.34
-3.31
-0.81
1.99
4.88
7.63
10.05
12.01
13.43
14.25
14.49
14.18
13.39
12.18
10.63
8.75
6.57
4.12
1.53
-1.03
-3.31
-5.16
-6.50
-7.42
-8.06
-8.54
-8.98
-9.40
-9.82
-10.21
-10.56
-10.80
-10.83
-10.50
-9.69
-8.39
-6.66
-4.72
-2.81
-1.20
-0.05
0.61
0.87
0.94
1.12
1.66
2.72
4.29
6.20
8.19
10.02
11.58
12.81
13.72
14.27
14.35
13.89
12.88
11.43
9.74
8.02
6.37
4.79
3.24
1.65
0.10
-1.29
-2.34
-2.89
-2.86
-2.27
-1.20
0.20
1.77
3.30
4.64
5.61
6.10
6.08
5.60
4.83
4.03
3.45
3.25
3.39
3.68
3.86
3.76
3.37
2.86
2.47
2.34
2.43
2.56
2.44
1.87
0.81
-0.62
-2.17
-3.54
-4.46
-4.70
-4.14
-2.76
-0.64
1.97
4.69
7.03
8.56
9.07
8.60
7.43
5.92
4.35
2.83
1.34
-0.14
-1.59
-2.90
-4.01
-4.98
-6.00
-7.29
-8.95
-10.81
-12.54
-13.74
-14.18
-13.91
-13.24
-12.58
-12.31
-12.62
-13.44
-14.51
-15.46
-15.85
-15.33
-13.73
-11.09
-7.69
-3.93
-0.26
2.94
5.48
7.35
8.65
9.53
10.09
10.37
10.38
10.17
9.79
9.36
8.97
8.65
8.39
8.15
7.90
7.66
7.51
7.48
7.54
7.58
7.41
6.88
5.94
4.62
3.03
1.28
-0.58
-2.46
-4.27
-5.78
-6.73
-6.87
-6.07
-4.44
-2.27
0.08
2.27
4.05
5.32
6.08
6.35
6.19
5.66
4.84
3.83
2.76
1.73
0.84
0.15
-0.30
-0.53
-0.58
-0.53
-0.49
-0.52
-0.62
-0.66
-0.48
0.03
0.88
1.94
3.02
3.94
4.66
5.24
5.85
6.60
7.50
8.44
9.20
9.61
9.52
8.90
7.81
6.32
4.58
2.73
0.94
-0.66
-1.98
-2.95
-3.56
-3.81
-3.73
-3.38
-2.87
-2.36
-2.00
-1.88
-2.04
-2.41
-2.90
-3.37
-3.73
-3.95
-4.04
-4.06
-4.09
-4.20
-4.43
-4.75
-5.11
-5.42
-5.65
-5.75
-5.72
-5.53
-5.15
-4.54
-3.66
-2.54
-1.27
0.01
1.11
1.85
2.10
1.84
1.20
0.39
-0.33
-0.78
-0.93
-0.87
-0.75
-0.72
-0.80
-0.95
-1.05
-1.05
-0.94
-0.77
-0.61
-0.49
-0.41
-0.40
-0.49
-0.73
-1.11
-1.57
-1.96
-2.13
-1.97
-1.50
-0.83
-0.14
0.43
0.81
1.02
1.10
1.08
0.96
0.70
0.27
-0.30
-0.93
-1.46
-1.72
-1.64
-1.30
-0.91
-0.73
-0.98
-1.68
-2.70
-3.82
-4.82
-5.59
-6.12
-6.46
-6.68
-6.80
-6.85
-6.89
-6.93
-6.98
-6.99
-6.81
-6.32
-5.45
-4.23
-2.78
-1.31
-0.02
0.92
1.41
1.48
1.25
0.91
0.65
0.62
0.83
1.17
1.47
1.59
1.48
1.20
0.86
0.55
0.28
0.05
-0.22
-0.52
-0.83
-1.09
-1.27
-1.42
-1.59
-1.89
-2.37
-3.00
-3.71
-4.35
-4.78
-4.87
-4.51
-3.69
-2.44
-0.87
0.88
2.66
4.28
5.56
6.34
6.57
6.31
5.74
5.13
4.69
4.54
4.63
4.82
4.99
5.07
5.06
4.98
4.83
4.53
3.99
3.17
2.07
0.81
-0.49
-1.76
-2.95
-4.06
-5.10
-6.02
-6.74
-7.12
-7.06
-6.50
-5.46
-4.07
-2.49
-0.92
0.48
1.61
2.44
2.99
3.28
3.28
2.96
2.28
1.28
0.08
-1.14
-2.21
-3.07
-3.76
-4.41
-5.14
-5.94
-6.69
-7.17
-7.24
-6.94
-6.45
-6.09
-6.15
-6.73
-7.77
-9.03
-10.19
-10.99
-11.20
-10.71
-9.50
-7.68
-5.42
-2.95
-0.50
1.76
3.74
5.42
6.75
7.68
8.10
7.95
7.27
6.22
5.07
4.08
3.42
3.11
3.04
3.03
2.90
2.59
2.10
1.52
0.89
0.18
-0.70
-1.90
-3.49
-5.40
-7.47
-9.50
-11.35
-12.97
-14.34
-15.41
-16.00
-15.88
-14.83
-12.86
-10.20
-7.31
-4.59
-2.30
-0.46
1.09
2.46
3.62
4.32
4.28
3.38
1.78
-0.12
-1.81
-2.88
-3.25
-3.04
-2.53
-1.90
-1.15
-0.06
1.69
4.28
7.65
11.43
15.05
17.90
19.57
19.96
19.31
18.09
16.86
16.09
16.06
16.83
18.27
20.15
22.26
24.41
26.48
28.29
29.67
30.40
30.33
29.40
27.73
25.54
23.01
20.30
17.48
14.68
12.09
10.02
8.76
8.40
8.80
9.59
10.32
10.61
10.25
9.22
7.63
5.62
3.34
0.93
-1.44
-3.60
-5.41
-6.75
-7.59
-7.92
-7.75
-7.10
-5.99
-4.48
-2.67
-0.70
1.30
3.20
4.87
6.19
7.06
7.43
7.30
6.81
6.17
5.59
5.20
4.98
4.83
4.62
4.30
3.98
3.83
4.01
4.56
5.35
6.09
6.40
5.94
4.47
1.95
-1.41
-5.20
-8.93
-12.11
-14.41
-15.67
-15.94
-15.41
-14.33
-13.04
-11.93
-11.47
-12.02
-13.81
-16.78
-20.58
-24.68
-28.48
-31.48
-33.35
-34.01
-33.57
-32.34
-30.74
-29.15
-27.84
-26.88
-26.11
-25.25
-24.02
-22.28
-20.12
-17.81
-15.71
-14.14
-13.26
-13.01
-13.16
-13.42
-13.54
-13.37
-12.82
-11.80
-10.27
-8.18
-5.58
-2.62
0.44
3.36
5.95
8.12
9.82
11.00
11.59
11.52
10.82
9.64
8.23
6.89
5.85
5.17
4.82
4.64
4.50
4.28
3.94
3.45
2.82
2.07
1.26
0.44
-0.34
-1.09
-1.84
-2.61
-3.36
-3.94
-4.16
-3.81
-2.76
-1.03
1.27
3.88
6.48
8.70
10.23
10.84
10.52
9.38
7.67
5.66
3.57
1.60
-0.07
-1.24
-1.80
-1.80
-1.46
-1.14
-1.11
-1.46
-2.05
-2.56
-2.72
-2.37
-1.51
-0.22
1.48
3.51
5.77
7.96
9.63
10.34
9.83
8.22
5.97
3.76
2.15
1.45
1.57
2.24
3.13
4.06
5.00
6.01
7.08
8.08
8.79
9.05
8.85
8.36
7.82
7.43
7.17
6.87
6.32
5.39
4.13
2.78
1.58
0.70
0.14
-0.25
-0.69
-1.38
-2.41
-3.70
-5.10
-6.42
-7.50
-8.28
-8.80
-9.16
-9.45
-9.76
-10.16
-10.70
-11.32
-11.86
-12.06
-11.61
-10.29
-8.09
-5.30
-2.47
-0.19
1.01
0.94
-0.24
-2.08
-3.96
-5.36
-5.94
-5.70
-4.83
-3.68
-2.46
-1.24
0.12
1.82
3.93
6.31
8.61
10.40
11.38
11.50
10.99
10.23
9.57
9.25
9.26
9.50
9.81
10.13
10.51
10.98
11.53
12.03
12.26
12.00
11.17
9.83
8.18
6.50
5.01
3.86
3.07
2.55
2.14
1.64
0.84
-0.35
-1.91
-3.66
-5.34
-6.73
-7.72
-8.37
-8.84
-9.32
-9.93
-10.70
-11.59
-12.47
-13.23
-13.70
-13.67
-12.96
-11.42
-9.08
-6.13
-2.92
0.13
2.66
4.50
5.62
6.14
6.19
5.92
5.36
4.52
3.42
2.09
0.63
-0.84
-2.22
-3.44
-4.47
-5.30
-5.88
-6.15
-6.02
-5.47
-4.58
-3.53
-2.59
-2.02
-1.97
-2.47
-3.40
-4.59
-5.81
-6.87
-7.60
-7.85
-7.54
-6.63
-5.18
-3.33
-1.28
0.76
2.63
4.21
5.48
6.45
7.13
7.55
7.74
7.74
7.63
7.49
7.39
7.35
7.37
7.42
7.46
7.47
7.44
7.29
6.98
6.43
5.62
4.60
3.47
2.31
1.18
0.06
-1.11
-2.35
-3.63
-4.83
-5.74
-6.16
-5.89
-4.87
-3.20
-1.12
1.01
2.85
4.16
4.88
5.05
4.81
4.24
3.43
2.45
1.40
0.41
-0.39
-0.91
-1.15
-1.20
-1.15
-1.10
-1.10
-1.09
-1.05
-0.95
-0.82
-0.78
-0.94
-1.41
-2.21
-3.32
-4.66
-6.13
-7.60
-8.90
-9.86
-10.28
-10.04
-9.07
-7.44
-5.28
-2.81
-0.31
1.96
3.73
4.86
5.31
5.18
4.68
4.00
3.29
2.60
1.93
1.27
0.69
0.26
0.06
0.08
0.25
0.46
0.59
0.55
0.32
-0.08
-0.63
-1.29
-2.03
-2.82
-3.63
-4.44
-5.20
-5.86
-6.26
-6.23
-5.64
-4.42
-2.71
-0.73
1.22
2.90
4.20
5.14
5.81
6.28
6.56
6.63
6.43
5.94
5.18
4.23
3.24
2.40
1.86
1.74
1.98
2.40
2.75
2.79
2.43
1.75
0.90
0.08
-0.61
-1.19
-1.75
-2.43
-3.31
-4.36
-5.44
-6.32
-6.74
-6.52
-5.59
-4.06
-2.14
-0.11
1.82
3.53
4.96
6.06
6.77
7.00
6.73
6.06
5.17
4.30
3.63
3.17
2.86
2.56
2.17
1.70
1.22
0.76
0.32
-0.18
-0.85
-1.73
-2.80
-3.95
-5.05
-6.01
-6.79
-7.38
-7.80
-8.03
-7.99
-7.58
-6.71
-5.28
-3.28
-0.77
2.08
5.03
7.75
9.95
11.43
12.11
12.05
11.40
10.36
9.15
7.96
6.92
6.09
5.47
5.01
4.67
4.47
4.49
4.76
5.25
5.80
6.21
6.28
5.89
5.07
3.88
2.39
0.66
-1.21
-3.06
-4.62
-5.60
-5.86
-5.44
-4.62
-3.78
-3.18
-2.85
-2.51
-1.73
-0.18
2.21
5.16
8.16
10.75
12.73
14.24
15.64
17.21
18.99
20.70
21.95
22.50
22.44
22.10
21.90
22.02
22.33
22.48
22.09
20.94
19.08
16.74
14.20
11.66
9.16
6.69
4.23
1.78
-0.62
-2.88
-4.89
-6.57
-7.87
-8.78
-9.37
-9.70
-9.83
-9.73
-9.41
-8.87
-8.25
-7.79
-7.76
-8.29
-9.30
-10.48
-11.44
-11.87
-11.76
-11.35
-10.97
-10.85
-10.94
-10.96
-10.55
-9.47
-7.80
-5.80
-3.81
-2.07
-0.68
0.26
0.64
0.24
-1.04
-3.10
-5.50
-7.57
-8.59
-8.02
-5.67
-1.67
3.49
9.17
14.68
19.39
22.93
25.17
26.24
26.41
25.93
24.95
23.41
21.21
18.24
14.53
10.26
5.72
1.23
-2.99
-6.83
-10.29
-13.41
-16.19
-18.63
-20.67
-22.31
-23.59
-24.59
-25.35
-25.78
-25.67
-24.80
-23.01
-20.33
-17.04
-13.60
-10.49
-8.07
-6.53
-5.79
-5.68
-5.98
-6.55
-7.31
-8.21
-9.21
-10.22
-11.16
-12.01
-12.83
-13.70
-14.71
-15.80
-16.86
-17.73
-18.33
-18.67
-18.85
-18.95
-18.95
-18.74
-18.17
-17.12
-15.53
-13.45
-10.94
-8.06
-4.89
-1.47
2.10
5.72
9.27
12.63
15.74
18.61
21.29
23.89
26.46
28.98
31.33
33.34
34.81
35.65
35.78
35.15
33.73
31.51
28.55
24.97
20.97
16.72
12.35
7.92
3.49
-0.86
-4.98
-8.72
-12.00
-14.85
-17.39
-19.74
-21.95
-23.99
-25.78
-27.25
-28.41
-29.28
-29.94
-30.41
-30.62
-30.44
-29.67
-28.13
-25.65
-22.21
-17.90
-13.07
-8.20
-3.83
-0.39
1.99
3.53
4.77
6.33
8.59
11.49
14.50
16.86
17.92
17.52
16.00
14.10
12.57
11.87
11.99
12.59
13.21
13.46
13.13
12.11
10.31
7.64
4.18
0.28
-3.41
-6.14
-7.34
-6.90
-5.19
-2.84
-0.51
1.41
2.75
3.51
3.71
3.34
2.44
1.16
-0.22
-1.37
-2.07
-2.28
-2.07
-1.58
-0.88
-0.03
0.87
1.63
1.94
1.51
0.18
-2.03
-4.91
-8.14
-11.42
-14.53
-17.28
-19.51
-21.09
-21.94
-22.14
-21.88
-21.50
-21.28
-21.34
-21.53
-21.49
-20.82
-19.20
-16.56
-13.03
-8.85
-4.33
0.28
4.72
8.70
11.87
13.84
14.29
13.06
10.32
6.56
2.54
-0.93
-3.16
-3.84
-3.10
-1.40
0.63
2.47
3.88
4.90
5.80
6.80
7.89
8.85
9.34
9.12
8.22
6.97
5.85
5.22
5.16
5.52
6.00
6.45
7.00
7.91
9.46
11.66
14.15
16.38
17.83
18.25
17.81
16.93
16.02
15.29
14.61
13.71
12.38
10.66
8.87
7.48
6.83
6.96
7.55
8.15
8.39
8.13
7.52
6.85
6.28
5.72
4.85
3.25
0.71
-2.67
-6.45
-10.11
-13.20
-15.51
-17.11
-18.10
-18.55
-18.40
-17.54
-15.96
-13.80
-11.37
-8.99
-6.90
-5.15
-3.64
-2.26
-0.92
0.35
1.50
2.51
3.40
4.23
5.04
5.83
6.52
7.04
7.38
7.57
7.70
7.81
7.89
7.87
7.71
7.39
7.00
6.68
6.51
6.49
6.48
6.27
5.72
4.85
3.89
3.23
3.27
4.26
6.15
8.65
11.27
13.58
15.31
16.43
17.03
17.22
17.01
16.34
15.15
13.54
11.78
10.22
9.11
8.48
8.14
7.81
7.26
6.47
5.52
4.52
3.42
1.99
-0.09
-3.06
-6.90
-11.30
-15.74
-19.72
-22.89
-25.12
-26.49
-27.10
-27.06
-26.48
-25.46
-24.21
-22.93
-21.75
-20.63
-19.40
-17.89
-16.11
-14.40
-13.33
-13.49
-15.22
-18.45
-22.74
-27.45
-31.96
-35.82
-38.68
-40.28
-40.43
-39.07
-36.39
-32.86
-29.03
-25.38
-22.10
-18.96
-15.48
-11.17
-5.77
0.50
7.00
12.86
17.17
19.30
19.09
16.88
13.45
9.70
6.40
3.99
2.51
1.72
1.26
0.84
0.26
-0.57
-1.55
-2.47
-3.01
-2.75
-1.38
1.20
4.75
8.75
12.51
15.51
17.52
18.69
19.40
19.97
20.49
20.69
20.14
18.44
15.46
11.36
6.44
1.00
-4.88
-11.27
-18.24
-25.68
-33.16
-39.96
-45.25
-48.26
-48.49
-45.79
-40.39
-32.86
-23.98
-14.53
-5.13
3.91
12.59
21.07
29.44
37.66
45.43
52.41
58.33
63.14
67.04
70.40
73.56
76.74
79.85
82.56
84.32
84.56
82.78
78.66
72.13
63.33
52.62
40.54
27.69
14.57
1.54
-11.40
-24.40
-37.62
-50.92
-63.74
-75.07
-83.79
-89.08
-90.72
-89.16
-85.28
-79.97
-73.86
-67.18
-59.97
-52.33
-44.62
-37.35
-30.95
-25.49
-20.64
-15.90
-10.88
-5.58
-0.33
4.40
8.36
11.58
14.35
16.96
19.49
21.79
23.56
24.53
24.58
23.79
22.32
20.35
18.02
15.42
12.61
9.72
6.95
4.55
2.82
1.91
1.87
2.52
3.59
4.82
6.01
7.11
8.13
9.08
9.93
10.51
10.69
10.37
9.58
8.46
7.24
6.06
5.03
4.17
3.41
2.71
2.05
1.41
0.84
0.36
-0.02
-0.35
-0.74
-1.30
-2.15
-3.31
-4.73
-6.27
-7.74
-8.93
-9.65
-9.73
-9.04
-7.53
-5.26
-2.43
0.61
3.47
5.84
7.51
8.52
8.99
9.13
9.06
8.84
8.43
7.82
7.05
6.21
5.48
4.97
4.75
4.75
4.81
4.77
4.52
4.02
3.28
2.34
1.23
-0.08
-1.61
-3.31
-5.09
-6.80
-8.29
-9.42
-10.16
-10.48
-10.38
-9.84
-8.88
-7.47
-5.65
-3.47
-1.05
1.49
3.97
6.20
7.97
9.14
9.62
9.46
8.75
7.65
6.33
4.96
3.71
2.70
2.00
1.63
1.50
1.48
1.42
1.18
0.68
-0.10
-1.12
-2.32
-3.60
-4.87
-6.10
-7.28
-8.44
-9.65
-10.89
-12.09
-13.03
-13.47
-13.16
-11.99
-10.01
-7.45
-4.60
-1.79
0.74
2.86
4.50
5.66
6.40
6.78
6.90
6.86
6.74
6.63
6.59
6.64
6.74
6.85
6.87
6.74
6.40
5.89
5.28
4.65
4.07
3.56
3.07
2.53
1.89
1.05
-0.03
-1.39
-3.00
-4.73
-6.31
-7.43
-7.77
-7.18
-5.68
-3.49
-0.95
1.64
4.11
6.42
8.55
10.48
12.03
13.01
13.26
12.77
11.75
10.56
9.56
8.99
8.86
8.92
8.84
8.34
7.34
5.97
4.46
3.04
1.82
0.81
0.01
-0.55
-0.86
-1.14
-1.91
-3.90
-7.67
-13.14
-19.35
-24.61
-27.22
-26.14
-21.55
-14.67
-7.23
-0.70
4.12
7.16
8.71
9.08
8.37
6.67
4.19
1.55
-0.39
-0.71
1.11
4.93
9.82
14.42
17.35
17.84
15.98
12.68
9.26
6.82
5.80
5.88
6.29
6.24
5.34
3.67
1.60
-0.46
-2.27
-3.79
-5.03
-5.99
-6.58
-6.68
-6.21
-5.18
-3.65
-1.75
0.30
2.19
3.55
4.03
3.36
1.46
-1.60
-5.59
-10.20
-15.01
-19.44
-22.78
-24.33
-23.69
-20.96
-16.83
-12.40
-8.75
-6.59
-6.10
-6.95
-8.62
-10.59
-12.56
-14.36
-15.88
-16.98
-17.53
-17.46
-16.87
-15.92
-14.82
-13.62
-12.19
-10.31
-7.82
-4.75
-1.41
1.75
4.31
6.08
7.12
7.74
8.28
9.00
10.00
11.17
12.28
13.03
13.16
12.53
11.13
9.11
6.82
4.65
2.99
2.04
1.75
1.83
1.84
1.34
0.04
-2.19
-5.27
-9.01
-12.99
-16.59
-19.06
-19.66
-18.00
-14.25
-9.19
-3.94
0.44
3.38
4.94
5.67
6.23
7.05
8.15
9.24
9.93
10.00
9.46
8.51
7.44
6.47
5.73
5.23
4.92
4.74
4.63
4.59
4.60
4.70
4.87
5.00
4.89
4.33
3.20
1.56
-0.30
-1.97
-3.05
-3.33
-2.79
-1.60
-0.00
1.81
3.69
5.53
7.19
8.54
9.41
9.66
9.28
8.31
6.91
5.33
3.80
2.50
1.54
0.89
0.45
0.13
-0.11
-0.25
-0.26
-0.15
-0.05
-0.09
-0.40
-1.02
-1.90
-2.91
-3.93
-4.89
-5.71
-6.31
-6.56
-6.32
-5.50
-4.11
-2.30
-0.32
1.55
3.11
4.27
5.11
5.75
6.33
6.92
7.50
7.97
8.24
8.29
8.14
7.91
7.68
7.49
7.32
7.04
6.52
5.69
4.54
3.16
1.69
0.27
-1.02
-2.19
-3.34
-4.59
-6.01
-7.52
-8.88
-9.77
-9.89
-9.09
-7.44
-5.19
-2.73
-0.41
1.51
2.94
3.93
4.59
5.05
5.38
5.58
5.57
5.28
4.71
3.89
2.96
2.05
1.26
0.62
0.05
-0.55
-1.24
-2.09
-3.07
-4.14
-5.25
-6.36
-7.46
-8.62
-9.89
-11.35
-12.92
-14.44
-15.65
-16.30
-16.30
-15.71
-14.74
-13.62
-12.49
-11.35
-10.12
-8.74
-7.18
-5.42
-3.45
-1.15
1.61
4.94
8.71
12.60
16.13
18.82
20.40
20.88
20.45
19.36
17.82
15.91
13.68
11.21
8.70
6.37
4.42
2.92
1.79
0.87
-0.04
-1.09
-2.32
-3.71
-5.13
-6.35
-7.11
-7.18
-6.46
-4.99
-3.01
-0.82
1.26
3.03
4.38
5.30
5.82
6.01
5.95
5.72
5.42
5.13
4.95
4.92
5.05
5.35
5.81
6.41
7.14
7.93
8.66
9.22
9.46
9.29
8.62
7.35
5.41
2.75
-0.59
-4.40
-8.28
-11.69
-14.10
-15.17
-14.90
-13.58
-11.79
-10.10
-8.95
-8.45
-8.46
-8.69
-8.82
-8.72
-8.37
-7.93
-7.56
-7.37
-7.32
-7.32
-7.23
-6.96
-6.52
-5.97
-5.43
-4.93
-4.50
-4.10
-3.75
-3.48
-3.36
-3.43
-3.64
-3.93
-4.23
-4.54
-4.97
-5.67
-6.69
-7.96
-9.24
-10.17
-10.45
-9.88
-8.48
-6.41
-3.95
-1.34
1.25
3.77
6.17
8.37
10.13
11.12
11.06
9.81
7.59
4.89
2.33
0.47
-0.49
-0.66
-0.36
0.11
0.62
1.28
2.26
3.65
5.36
7.11
8.55
9.40
9.49
8.79
7.33
5.17
2.45
-0.64
-3.84
-6.82
-9.25
-10.80
-11.24
-10.48
-8.66
-6.08
-3.18
-0.41
1.91
3.63
4.81
5.58
6.07
6.38
6.56
6.59
6.49
6.22
5.77
5.14
4.39
3.62
2.97
2.54
2.34
2.29
2.22
1.93
1.25
0.13
-1.38
-3.11
-4.82
-6.28
-7.28
-7.73
-7.66
-7.26
-6.79
-6.49
-6.49
-6.71
-6.84
-6.48
-5.31
-3.23
-0.45
2.63
5.54
7.93
9.62
10.54
10.69
10.07
8.75
6.86
4.71
2.69
1.18
0.42
0.47
1.15
2.22
3.43
4.62
5.76
6.85
7.85
8.69
9.21
9.28
8.88
8.05
6.94
5.69
4.40
3.18
2.13
1.41
1.17
1.49
2.36
3.69
5.36
7.30
9.48
11.85
14.27
16.46
18.05
18.68
18.20
16.66
14.36
11.67
8.93
6.38
4.15
2.30
0.87
-0.09
-0.59
-0.74
-0.77
-0.95
-1.47
-2.35
-3.46
-4.55
-5.44
-6.06
-6.52
-7.00
-7.64
-8.53
-9.64
-10.88
-12.12
-13.20
-13.89
-13.98
-13.25
-11.64
-9.24
-6.34
-3.29
-0.45
1.91
3.67
4.81
5.40
5.53
5.32
4.84
4.17
3.41
2.65
2.04
1.66
1.59
1.85
2.35
2.98
3.58
4.01
4.16
4.00
3.55
2.86
1.99
0.98
-0.13
-1.35
-2.65
-4.00
-5.36
-6.65
-7.76
-8.57
-8.89
-8.54
-7.38
-5.41
-2.77
0.21
3.13
5.64
7.58
8.92
9.81
10.37
10.68
10.71
10.44
9.86
9.05
8.17
7.36
6.67
6.05
5.41
4.64
3.70
2.64
1.54
0.52
-0.35
-1.04
-1.57
-2.02
-2.44
-2.89
-3.39
-3.96
-4.64
-5.48
-6.52
-7.65
-8.65
-9.14
-8.78
-7.42
-5.16
-2.38
0.42
2.81
4.58
5.76
6.50
6.97
7.22
7.20
6.83
6.07
5.04
3.97
3.11
2.65
2.61
2.86
3.17
3.38
3.37
3.17
2.84
2.44
1.99
1.54
1.10
0.73
0.46
0.24
-0.06
-0.65
-1.69
-3.19
-4.99
-6.77
-8.17
-8.87
-8.74
-7.78
-6.18
-4.20
-2.16
-0.32
1.10
1.99
2.35
2.24
1.74
0.98
0.09
-0.79
-1.56
-2.12
-2.48
-2.70
-2.89
-3.16
-3.57
-4.12
-4.78
-5.57
-6.54
-7.71
-9.05
-10.44
-11.70
-12.68
-13.30
-13.59
-13.56
-13.19
-12.34
-10.81
-8.47
-5.33
-1.63
2.22
5.80
8.74
10.85
12.08
12.46
12.09
11.05
9.47
7.57
5.57
3.76
2.34
1.36
0.76
0.37
-0.01
-0.51
-1.15
-1.91
-2.70
-3.46
-4.14
-4.70
-5.15
-5.49
-5.77
-6.07
-6.54
-7.32
-8.44
-9.82
-11.19
-12.18
-12.45
-11.78
-10.17
-7.79
-4.96
-2.02
0.72
3.03
4.77
5.88
6.42
6.50
6.29
5.96
5.61
5.32
5.13
5.11
5.27
5.54
5.75
5.64
5.02
3.85
2.30
0.67
-0.75
-1.85
-2.68
-3.42
-4.25
-5.25
-6.42
-7.68
-8.93
-10.04
-10.83
-11.04
-10.41
-8.79
-6.27
-3.11
0.23
3.34
5.90
7.77
8.93
9.45
9.43
9.03
8.41
7.73
7.10
6.58
6.15
5.79
5.48
5.19
4.85
4.37
3.67
2.74
1.69
0.69
-0.15
-0.84
-1.55
-2.52
-3.90
-5.70
-7.79
-9.95
-12.00
-13.77
-15.06
-15.60
-15.11
-13.35
-10.33
-6.32
-1.85
2.50
6.19
8.93
10.57
11.18
10.87
9.77
8.06
5.99
3.90
2.26
1.53
2.03
3.77
6.40
9.26
11.57
12.66
12.15
10.05
6.68
2.55
-1.74
-5.64
-8.68
-10.56
-11.18
-10.68
-9.41
-7.86
-6.50
-5.63
-5.30
-5.27
-5.15
-4.53
-3.21
-1.22
1.17
3.59
5.73
7.46
8.78
9.77
10.45
10.77
10.68
10.19
9.43
8.65
8.04
7.66
7.36
6.89
6.04
4.73
3.07
1.31
-0.26
-1.41
-2.06
-2.25
-2.09
-1.77
-1.45
-1.29
-1.37
-1.78
-2.62
-3.92
-5.67
-7.70
-9.69
-11.19
-11.80
-11.27
-9.61
-7.09
-4.09
-0.94
2.07
4.77
7.01
8.61
9.44
9.43
8.70
7.47
6.11
4.91
4.10
3.77
3.85
4.22
4.66
5.01
5.11
4.90
4.40
3.69
2.87
1.98
1.00
-0.08
-1.28
-2.55
-3.80
-4.98
-6.10
-7.20
-8.29
-9.26
-9.88
-9.89
-9.07
-7.39
-4.98
-2.10
0.93
3.81
6.33
8.34
9.74
10.53
10.74
10.50
9.97
9.33
8.68
8.07
7.53
7.07
6.74
6.57
6.53
6.52
6.36
5.88
5.01
3.84
2.54
1.31
0.30
-0.49
-1.14
-1.81
-2.66
-3.81
-5.30
-7.08
-8.97
-10.76
-12.17
-12.93
-12.82
-11.73
-9.70
-6.90
-3.70
-0.51
2.27
4.38
5.76
6.51
6.80
6.78
6.54
6.15
5.67
5.20
4.83
4.61
4.47
4.30
3.97
3.40
2.64
1.78
0.92
0.14
-0.57
-1.25
-1.93
-2.63
-3.33
-4.02
-4.70
-5.44
-6.33
-7.42
-8.69
-9.96
-10.92
-11.27
-10.75
-9.35
-7.26
-4.83
-2.43
-0.31
1.40
2.75
3.81
4.62
5.17
5.41
5.34
5.01
4.50
3.88
3.19
2.42
1.60
0.81
0.18
-0.20
-0.30
-0.24
-0.22
-0.42
-0.92
-1.66
-2.47
-3.14
-3.58
-3.77
-3.87
-4.05
-4.50
-5.30
-6.38
-7.58
-8.62
-9.20
-9.12
-8.25
-6.62
-4.38
-1.72
1.12
3.93
6.49
8.60
10.05
10.69
10.44
9.31
7.49
5.31
3.17
1.43
0.31
-0.18
-0.19
0.04
0.26
0.33
0.19
-0.13
-0.58
-1.10
-1.67
-2.24
-2.81
-3.44
-4.20
-5.20
-6.50
-8.04
-9.64
-11.02
-11.90
-12.10
-11.55
-10.32
-8.58
-6.54
-4.39
-2.29
-0.34
1.35
2.73
3.77
4.48
4.90
5.09
5.11
5.04
4.93
4.84
4.78
4.73
4.64
4.43
4.10
3.68
3.23
2.79
2.36
1.85
1.18
0.29
-0.84
-2.11
-3.46
-4.81
-6.15
-7.45
-8.62
-9.51
-9.91
-9.67
-8.77
-7.34
-5.59
-3.79
-2.11
-0.67
0.47
1.28
1.73
1.83
1.60
1.13
0.57
0.05
-0.31
-0.48
-0.50
-0.44
-0.39
-0.42
-0.56
-0.84
-1.23
-1.73
-2.35
-3.01
-3.66
-4.22
-4.68
-5.04
-5.41
-5.93
-6.72
-7.79
-9.00
-10.07
-10.65
-10.43
-9.27
-7.24
-4.63
-1.79
0.92
3.29
5.23
6.78
7.95
8.76
9.19
9.23
8.89
8.26
7.42
6.50
5.58
4.76
4.08
3.58
3.22
2.92
2.62
2.22
1.70
1.06
0.38
-0.25
-0.78
-1.20
-1.63
-2.25
-3.21
-4.56
-6.19
-7.81
-9.03
-9.47
-8.88
-7.18
-4.53
-1.23
2.33
5.78
8.84
11.40
13.41
14.88
15.78
16.06
15.70
14.82
13.61
12.30
11.07
9.97
8.92
7.82
6.59
5.22
3.79
2.33
0.86
-0.68
-2.37
-4.24
-6.27
-8.37
-10.45
-12.44
-14.30
-15.96
-17.37
-18.40
-18.89
-18.70
-17.78
-16.17
-14.01
-11.50
-8.78
-5.96
-3.15
-0.44
1.97
3.86
5.07
5.53
5.39
4.88
4.30
3.83
3.51
3.24
2.91
2.45
1.87
1.26
0.71
0.24
-0.18
-0.63
-1.21
-1.97
-2.92
-4.07
-5.39
-6.88
-8.51
-10.22
-11.85
-13.15
-13.81
-13.59
-12.39
-10.30
-7.60
-4.63
-1.68
1.05
3.47
5.52
7.15
8.30
8.96
9.13
8.90
8.40
7.76
7.08
6.41
5.75
5.04
4.25
3.41
2.59
1.92
1.45
1.13
0.81
0.26
-0.67
-1.98
-3.56
-5.23
-6.78
-8.06
-8.87
-9.05
-8.40
-6.88
-4.55
-1.71
1.31
4.16
6.63
8.64
10.19
11.27
11.84
11.83
11.22
10.02
8.33
6.31
4.13
2.00
0.07
-1.53
-2.82
-3.86
-4.75
-5.59
-6.38
-7.12
-7.77
-8.36
-8.92
-9.53
-10.25
-11.06
-11.91
-12.66
-13.14
-13.10
-12.29
-10.47
-7.47
-3.36
1.54
6.68
11.42
15.24
17.89
19.40
20.05
20.14
19.84
19.17
18.06
16.49
14.57
12.50
10.49
8.61
6.79
4.88
2.83
0.70
-1.34
-3.10
-4.53
-5.70
-6.79
-8.02
-9.52
-11.34
-13.45
-15.71
-17.93
-19.82
-21.06
-21.35
-20.55
-18.70
-16.07
-13.00
-9.87
-6.96
-4.46
-2.47
-1.05
-0.20
0.10
-0.08
-0.63
-1.43
-2.32
-3.11
-3.53
-3.31
-2.30
-0.52
1.77
4.20
6.32
7.76
8.25
7.67
6.06
3.66
0.92
-1.63
-3.46
-4.28
-4.03
-2.90
-1.13
1.07
3.59
6.29
9.01
11.47
13.47
14.90
15.85
16.52
17.05
17.48
17.73
17.67
17.22
16.40
15.34
14.14
12.91
11.69
10.50
9.35
8.22
7.03
5.69
4.10
2.25
0.15
-2.07
-4.31
-6.49
-8.60
-10.67
-12.76
-14.79
-16.62
-18.01
-18.68
-18.43
-17.24
-15.24
-12.68
-9.84
-6.95
-4.18
-1.64
0.53
2.21
3.29
3.75
3.72
3.43
3.09
2.85
2.75
2.77
2.85
2.94
2.99
2.94
2.72
2.28
1.63
0.87
0.14
-0.47
-0.97
-1.47
-2.15
-3.16
-4.56
-6.25
-8.05
-9.70
-10.96
-11.60
-11.37
-10.08
-7.62
-4.10
0.17
4.63
8.69
11.82
13.75
14.49
14.24
13.35
12.18
11.05
10.19
9.73
9.66
9.86
10.11
10.21
10.00
9.40
8.44
7.24
5.96
4.79
3.85
3.20
2.81
2.56
2.26
1.75
0.92
-0.30
-1.87
-3.65
-5.46
-7.00
-7.94
-8.00
-7.07
-5.20
-2.64
0.26
3.14
5.72
7.85
9.45
10.49
10.96
10.89
10.35
9.45
8.35
7.22
6.23
5.50
5.06
4.86
4.74
4.52
4.04
3.26
2.27
1.24
0.33
-0.40
-0.97
-1.49
-2.07
-2.81
-3.76
-5.00
-6.54
-8.35
-10.19
-11.69
-12.42
-12.05
-10.51
-8.02
-5.01
-1.89
1.06
3.69
5.99
7.90
9.34
10.19
10.38
9.96
9.08
8.00
6.96
6.15
5.64
5.36
5.19
4.94
4.45
3.68
2.67
1.55
0.45
-0.58
-1.58
-2.65
-3.83
-5.10
-6.37
-7.55
-8.63
-9.64
-10.63
-11.52
-12.10
-12.02
-10.98
-8.89
-5.90
-2.43
1.02
4.03
6.35
7.94
8.86
9.20
8.99
8.29
7.18
5.84
4.51
3.46
2.85
2.69
2.87
3.21
3.51
3.66
3.55
3.14
2.42
1.45
0.32
-0.83
-1.88
-2.81
-3.70
-4.71
-5.96
-7.44
-8.97
-10.20
-10.78
-10.43
-9.11
-6.96
-4.29
-1.45
1.26
3.61
5.51
6.88
7.70
8.02
7.87
7.36
6.60
5.73
4.91
4.25
3.85
3.73
3.83
4.02
4.13
3.99
3.52
2.72
1.67
0.51
-0.63
-1.66
-2.57
-3.38
-4.14
-4.93
-5.81
-6.77
-7.75
-8.57
-9.01
-8.86
-7.95
-6.29
-4.01
-1.42
1.15
3.42
5.20
6.46
7.25
7.64
7.66
7.29
6.54
5.49
4.34
3.32
2.63
2.36
2.44
2.67
2.83
2.78
2.44
1.85
1.13
0.39
-0.32
-0.97
-1.65
-2.45
-3.45
-4.69
-6.06
-7.39
-8.46
-9.09
-9.18
-8.75
-7.83
-6.50
-4.83
-2.90
-0.80
1.28
3.16
4.65
5.65
6.12
6.09
5.65
4.90
3.95
2.96
2.08
1.47
1.19
1.21
1.42
1.64
1.73
1.58
1.18
0.58
-0.13
-0.85
-1.49
-2.04
-2.56
-3.17
-4.01
-5.15
-6.52
-7.93
-9.07
-9.62
-9.38
-8.32
-6.58
-4.45
-2.23
-0.16
1.62
3.06
4.19
5.02
5.52
5.68
5.47
4.91
4.15
3.36
2.70
2.29
2.14
2.13
2.08
1.82
1.30
0.54
-0.34
-1.22
-2.00
-2.69
-3.32
-3.95
-4.61
-5.30
-6.04
-6.84
-7.68
-8.54
-9.32
-9.86
-9.96
-9.45
-8.24
-6.37
-4.04
-1.49
1.00
3.17
4.81
5.77
5.99
5.50
4.45
3.15
1.92
1.05
0.67
0.69
0.86
0.90
0.64
0.10
-0.56
-1.14
-1.53
-1.75
-1.90
-2.16
-2.62
-3.31
-4.24
-5.37
-6.64
-7.98
-9.21
-10.09
-10.33
-9.73
-8.24
-6.03
-3.41
-0.78
1.58
3.48
4.91
5.92
6.54
6.75
6.52
5.86
4.90
3.84
2.88
2.17
1.73
1.47
1.24
0.96
0.57
0.11
-0.38
-0.91
-1.48
-2.15
-2.97
-4.01
-5.30
-6.87
-8.65
-10.49
-12.09
-13.15
-13.38
-12.62
-10.85
-8.20
-4.94
-1.44
1.89
4.70
6.72
7.90
8.34
8.21
7.68
6.88
5.90
4.83
3.81
3.01
2.54
2.42
2.54
2.71
2.74
2.54
2.08
1.40
0.55
-0.42
-1.52
-2.75
-4.17
-5.80
-7.63
-9.58
-11.42
-12.83
-13.48
-13.14
-11.78
-9.59
-6.88
-4.03
-1.32
1.07
3.10
4.79
6.21
7.39
8.30
8.89
9.03
8.67
7.86
6.74
5.52
4.41
3.53
2.88
2.35
1.80
1.12
0.27
-0.73
-1.84
-3.01
-4.20
-5.42
-6.67
-8.01
-9.44
-10.91
-12.28
-13.29
-13.65
-13.11
-11.56
-9.07
-5.90
-2.39
1.08
4.23
6.86
8.84
10.12
10.71
10.69
10.17
9.33
8.35
7.37
6.53
5.89
5.46
5.18
4.95
4.70
4.38
4.00
3.60
3.18
2.71
2.08
1.18
-0.07
-1.68
-3.56
-5.56
-7.51
-9.21
-10.47
-11.09
-10.90
-9.86
-8.02
-5.59
-2.82
0.06
2.87
5.50
7.90
10.02
11.74
12.94
13.52
13.42
12.71
11.59
10.30
9.13
8.27
7.79
7.63
7.60
7.51
7.22
6.69
5.99
5.18
4.30
3.36
2.27
1.00
-0.44
-2.02
-3.69
-5.41
-7.18
-8.93
-10.48
-11.54
-11.78
-10.93
-8.96
-6.09
-2.72
0.69
3.80
6.42
8.48
10.01
10.99
11.38
11.20
10.54
9.61
8.67
7.93
7.47
7.19
6.91
6.47
5.79
4.94
4.05
3.21
2.42
1.62
0.76
-0.19
-1.17
-2.09
-2.93
-3.76
-4.72
-5.93
-7.40
-8.99
-10.41
-11.36
-11.57
-10.90
-9.35
-7.06
-4.31
-1.43
1.22
3.42
5.07
6.27
7.22
8.14
9.15
10.21
11.12
11.67
11.69
11.19
10.29
9.24
8.26
7.49
6.96
6.60
6.29
5.93
5.41
4.68
3.69
2.43
0.94
-0.68
-2.26
-3.63
-4.69
-5.44
-6.05
-6.79
-7.90
-9.44
-11.26
-12.98
-14.11
-14.26
-13.28
-11.25
-8.48
-5.33
-2.13
0.93
3.71
6.12
8.03
9.32
9.93
9.92
9.44
8.72
7.96
7.32
6.85
6.51
6.21
5.84
5.33
4.64
3.81
2.91
2.04
1.27
0.65
0.13
-0.38
-0.96
-1.68
-2.50
-3.36
-4.20
-4.99
-5.78
-6.67
-7.70
-8.84
-9.90
-10.64
-10.81
-10.25
-8.96
-7.05
-4.73
-2.22
0.29
2.65
4.71
6.35
7.50
8.13
8.27
8.03
7.52
6.85
6.10
5.36
4.71
4.19
3.85
3.61
3.38
3.04
2.55
1.92
1.25
0.58
-0.07
-0.76
-1.55
-2.44
-3.32
-4.08
-4.69
-5.20
-5.78
-6.60
-7.71
-9.01
-10.27
-11.20
-11.57
-11.22
-10.11
-8.24
-5.75
-2.91
-0.05
2.43
4.23
5.26
5.61
5.52
5.27
5.03
4.85
4.68
4.46
4.17
3.87
3.60
3.41
3.25
3.06
2.80
2.46
2.10
1.77
1.49
1.19
0.79
0.22
-0.55
-1.47
-2.47
-3.51
-4.55
-5.60
-6.65
-7.70
-8.71
-9.61
-10.32
-10.73
-10.73
-10.21
-9.14
-7.58
-5.69
-3.65
-1.63
0.32
2.16
3.88
5.38
6.49
7.05
7.02
6.51
5.78
5.08
4.59
4.30
4.09
3.85
3.54
3.27
3.12
3.13
3.16
3.03
2.59
1.81
0.81
-0.23
-1.15
-1.94
-2.68
-3.47
-4.38
-5.38
-6.40
-7.34
-8.18
-8.96
-9.73
-10.48
-11.15
-11.57
-11.57
-10.99
-9.78
-8.01
-5.87
-3.57
-1.32
0.72
2.42
3.71
4.58
5.07
5.23
5.14
4.85
4.41
3.86
3.26
2.71
2.29
2.08
2.06
2.18
2.34
2.47
2.53
2.53
2.49
2.39
2.19
1.80
1.19
0.32
-0.75
-1.96
-3.22
-4.46
-5.64
-6.74
-7.78
-8.76
-9.63
-10.32
-10.66
-10.52
-9.76
-8.34
-6.30
-3.80
-1.12
1.44
3.58
5.11
5.95
6.22
6.09
5.77
5.43
5.14
4.95
4.85
4.85
4.94
5.06
5.11
4.98
4.62
4.09
3.53
3.08
2.82
2.70
2.57
2.26
1.64
0.72
-0.43
-1.69
-2.97
-4.26
-5.61
-7.08
-8.69
-10.34
-11.87
-13.02
-13.56
-13.37
-12.46
-10.97
-9.09
-7.04
-4.95
-2.88
-0.92
0.81
2.13
2.86
2.88
2.30
1.37
0.47
-0.07
-0.11
0.29
0.94
1.59
2.04
2.22
2.11
1.74
1.12
0.31
-0.63
-1.58
-2.41
-3.02
-3.41
-3.68
-4.01
-4.59
-5.51
-6.76
-8.16
-9.40
-10.13
-10.09
-9.17
-7.44
-5.15
-2.59
-0.02
2.37
4.50
6.31
7.72
8.66
9.08
9.03
8.64
8.08
7.49
6.93
6.36
5.75
5.07
4.35
3.68
3.13
2.71
2.38
2.00
1.47
0.72
-0.25
-1.40
-2.62
-3.80
-4.88
-5.85
-6.76
-7.72
-8.81
-10.03
-11.26
-12.24
-12.66
-12.22
-10.75
-8.29
-5.09
-1.56
1.84
4.78
7.08
8.69
9.65
9.99
9.70
8.79
7.36
5.65
3.98
2.67
1.90
1.66
1.81
2.16
2.57
2.98
3.34
3.60
3.68
3.47
2.93
2.08
1.06
-0.02
-1.11
-2.26
-3.61
-5.22
-7.09
-8.99
-10.57
-11.47
-11.39
-10.25
-8.17
-5.42
-2.31
0.87
3.88
6.53
8.63
10.04
10.67
10.57
9.92
8.98
7.99
7.10
6.35
5.71
5.17
4.71
4.38
4.14
3.91
3.56
2.98
2.21
1.40
0.74
0.36
0.22
0.13
-0.19
-0.98
-2.33
-4.16
-6.22
-8.20
-9.78
-10.66
-10.64
-9.67
-7.88
-5.50
-2.86
-0.25
2.15
4.24
5.98
7.33
8.24
8.62
8.43
7.76
6.78
5.73
4.83
4.26
4.04
4.11
4.32
4.52
4.58
4.44
4.09
3.57
2.92
2.16
1.30
0.32
-0.79
-2.01
-3.35
-4.80
-6.34
-7.88
-9.29
-10.35
-10.81
-10.45
-9.14
-6.94
-4.02
-0.68
2.77
6.01
8.80
10.97
12.40
13.03
12.86
11.92
10.36
8.39
6.30
4.36
2.79
1.68
1.02
0.72
0.69
0.88
1.24
1.69
2.13
2.35
2.17
1.44
0.13
-1.69
-3.86
-6.25
-8.74
-11.20
-13.41
-15.07
-15.82
-15.32
-13.47
-10.43
-6.65
-2.71
0.83
3.60
5.48
6.57
7.08
7.26
7.28
7.26
7.27
7.30
7.31
7.23
7.00
6.51
5.72
4.62
3.31
2.00
0.94
0.40
0.52
1.30
2.58
4.05
5.32
6.05
5.97
4.96
3.07
0.56
-2.13
-4.44
-5.85
-5.99
-4.78
-2.41
0.75
4.28
7.78
10.96
13.60
15.55
16.75
17.24
17.14
16.66
15.93
14.99
13.79
12.20
10.20
7.88
5.45
3.10
0.94
-1.02
-2.80
-4.39
-5.70
-6.62
-7.12
-7.29
-7.36
-7.54
-8.03
-8.94
-10.37
-12.40
-15.07
-18.19
-21.34
-23.81
-24.85
-23.95
-21.05
-16.62
-11.47
-6.49
-2.37
0.56
2.29
3.05
3.09
2.67
1.99
1.22
0.57
0.29
0.59
1.58
3.14
4.94
6.49
7.29
7.06
5.80
3.83
1.64
-0.32
-1.76
-2.67
-3.24
-3.76
-4.48
-5.54
-6.94
-8.53
-10.06
-11.24
-11.78
-11.48
-10.25
-8.12
-5.22
-1.76
2.00
5.74
9.16
11.95
13.92
14.98
15.20
14.75
13.85
12.69
11.43
10.15
8.94
7.86
6.93
6.12
5.36
4.57
3.70
2.77
1.79
0.79
-0.26
-1.39
-2.64
-4.01
-5.46
-6.91
-8.34
-9.75
-11.14
-12.47
-13.57
-14.21
-14.11
-13.12
-11.20
-8.54
-5.44
-2.30
0.56
2.95
4.81
6.20
7.21
7.89
8.26
8.31
8.05
7.57
7.02
6.57
6.34
6.36
6.58
6.86
7.06
7.09
6.89
6.46
5.84
5.08
4.20
3.19
2.04
0.70
-0.86
-2.70
-4.83
-7.19
-9.62
-11.82
-13.41
-13.97
-13.20
-11.01
-7.54
-3.22
1.41
5.77
9.39
11.97
13.41
13.74
13.15
11.89
10.26
8.59
7.14
6.07
5.37
4.91
4.52
4.05
3.43
2.68
1.88
1.04
0.12
-0.94
-2.18
-3.54
-4.93
-6.22
-7.34
-8.34
-9.35
-10.49
-11.79
-13.16
-14.35
-15.08
-15.05
-14.10
-12.21
-9.51
-6.28
-2.83
0.49
3.38
5.62
7.15
8.01
8.34
8.34
8.16
7.89
7.50
6.95
6.24
5.38
4.49
3.67
3.02
2.55
2.21
1.88
1.46
0.88
0.14
-0.72
-1.62
-2.50
-3.32
-4.12
-4.97
-5.93
-7.07
-8.36
-9.70
-10.90
-11.72
-11.88
-11.19
-9.58
-7.12
-4.07
-0.78
2.39
5.13
7.29
8.80
9.75
10.22
10.32
10.11
9.62
8.91
8.06
7.17
6.37
5.69
5.14
4.63
4.06
3.33
2.38
1.25
0.02
-1.20
-2.29
-3.21
-4.00
-4.73
-5.51
-6.43
-7.55
-8.88
-10.40
-12.05
-13.67
-15.03
-15.81
-15.70
-14.53
-12.30
-9.26
-5.79
-2.32
0.80
3.35
5.25
6.52
7.24
7.52
7.45
7.14
6.75
6.40
6.18
6.12
6.14
6.12
5.95
5.55
4.98
4.27
3.48
2.63
1.70
0.71
-0.29
-1.25
-2.13
-2.98
-3.91
-5.04
-6.45
-8.09
-9.86
-11.56
-12.95
-13.76
-13.75
-12.74
-10.71
-7.83
-4.41
-0.84
2.49
5.35
7.58
9.13
9.97
10.15
9.80
9.15
8.51
8.15
8.16
8.44
8.75
8.83
8.55
7.91
7.05
6.09
5.09
4.05
2.89
1.55
0.04
-1.65
-3.45
-5.35
-7.28
-9.18
-11.02
-12.77
-14.45
-16.07
-17.54
-18.67
-19.14
-18.64
-17.01
-14.28
-10.76
-6.91
-3.19
0.10
2.79
4.93
6.62
7.95
8.96
9.65
9.99
10.01
9.81
9.50
9.21
9.03
8.95
8.92
8.81
8.50
7.90
6.99
5.85
4.59
3.36
2.25
1.24
0.25
-0.85
-2.13
-3.61
-5.24
-6.91
-8.53
-10.00
-11.18
-11.87
-11.83
-10.87
-8.95
-6.23
-3.06
0.09
2.84
4.93
6.33
7.16
7.57
7.69
7.60
7.30
6.82
6.20
5.57
5.00
4.60
4.36
4.25
4.19
4.11
3.98
3.76
3.47
3.07
2.54
1.83
0.89
-0.26
-1.57
-2.96
-4.36
-5.78
-7.30
-9.02
-11.04
-13.27
-15.50
-17.37
-18.54
-18.79
-18.07
-16.53
-14.39
-11.89
-9.24
-6.61
-4.14
-1.98
-0.21
1.11
2.02
2.63
3.09
3.52
4.06
4.80
5.77
6.97
8.28
9.54
10.51
11.00
10.94
10.41
9.59
8.68
7.83
7.07
6.34
5.54
4.56
3.33
1.80
-0.06
-2.20
-4.48
-6.65
-8.33
-9.20
-9.04
-7.83
-5.75
-3.14
-0.36
2.24
4.42
6.07
7.17
7.80
8.08
8.10
7.91
7.53
6.96
6.24
5.50
4.89
4.56
4.59
4.91
5.34
5.69
5.77
5.50
4.87
3.96
2.82
1.52
0.06
-1.52
-3.20
-4.95
-6.78
-8.76
-10.93
-13.26
-15.56
-17.56
-18.89
-19.26
-18.51
-16.71
-14.13
-11.12
-8.07
-5.23
-2.76
-0.68
1.00
2.28
3.09
3.35
3.05
2.30
1.32
0.39
-0.29
-0.66
-0.85
-1.05
-1.40
-1.94
-2.55
-3.10
-3.47
-3.69
-3.85
-4.13
-4.62
-5.33
-6.19
-7.11
-8.06
-9.09
-10.26
-11.64
-13.20
-14.79
-16.16
-17.00
-16.98
-15.81
-13.30
-9.41
-4.27
1.76
8.13
14.24
19.53
23.64
26.44
28.03
28.68
28.64
28.08
27.09
25.62
23.65
21.19
18.38
15.37
12.37
9.50
6.80
4.28
1.94
-0.21
-2.16
-3.92
-5.52
-7.06
-8.58
-10.07
-11.45
-12.61
-13.44
-13.89
-13.93
-13.55
-12.77
-11.64
-10.22
-8.56
-6.73
-4.73
-2.62
-0.47
1.60
3.45
4.94
5.96
6.46
6.40
5.78
4.70
3.34
1.99
0.97
0.52
0.69
1.34
2.20
2.96
3.37
3.35
2.90
2.11
1.10
-0.05
-1.25
-2.43
-3.56
-4.65
-5.74
-6.87
-8.02
-9.11
-9.94
-10.26
-9.86
-8.63
-6.63
-4.07
-1.22
1.65
4.35
6.76
8.79
10.38
11.43
11.87
11.69
10.93
9.71
8.25
6.78
5.50
4.56
4.01
3.76
3.65
3.47
3.07
2.40
1.49
0.46
-0.56
-1.46
-2.15
-2.58
-2.72
-2.61
-2.30
-1.85
-1.31
-0.59
0.49
2.14
4.42
7.18
10.05
12.55
14.32
15.24
15.43
15.10
14.41
13.33
11.76
9.66
7.14
4.55
2.29
0.69
-0.16
-0.39
-0.32
-0.25
-0.43
-0.93
-1.66
-2.48
-3.24
-3.86
-4.36
-4.81
-5.33
-6.02
-6.96
-8.23
-9.88
-11.90
-14.15
-16.32
-17.99
-18.72
-18.21
-16.39
-13.48
-9.84
-5.90
-2.03
1.52
4.57
7.03
8.86
10.05
10.64
10.70
10.34
9.69
8.88
8.08
7.42
6.98
6.71
6.50
6.18
5.63
4.86
3.98
3.15
2.53
2.17
2.02
1.95
1.76
1.26
0.32
-1.13
-3.05
-5.28
-7.58
-9.60
-10.94
-11.26
-10.30
-8.07
-4.84
-1.14
2.44
5.39
7.47
8.70
9.30
9.53
9.54
9.31
8.76
7.81
6.53
5.15
3.95
3.21
3.12
3.68
4.78
6.26
7.90
9.48
10.78
11.54
11.53
10.57
8.65
5.97
2.89
-0.23
-3.11
-5.67
-7.99
-10.19
-12.27
-14.07
-15.28
-15.59
-14.80
-12.96
-10.28
-7.10
-3.75
-0.51
2.40
4.78
6.50
7.50
7.80
7.56
6.99
6.32
5.74
5.36
5.16
5.08
5.00
4.80
4.40
3.78
2.96
2.08
1.26
0.61
0.16
-0.17
-0.52
-1.02
-1.74
-2.68
-3.77
-4.96
-6.22
-7.53
-8.90
-10.20
-11.25
-11.81
-11.67
-10.76
-9.17
-7.07
-4.70
-2.26
0.08
2.21
4.04
5.53
6.65
7.41
7.84
7.96
7.81
7.47
7.01
6.52
6.08
5.70
5.36
5.00
4.58
4.07
3.45
2.69
1.80
0.81
-0.19
-1.10
-1.86
-2.49
-3.12
-3.87
-4.81
-5.91
-7.06
-8.20
-9.27
-10.31
-11.23
-11.87
-11.95
-11.23
-9.61
-7.25
-4.48
-1.68
0.84
2.92
4.52
5.64
6.30
6.56
6.49
6.20
5.82
5.45
5.15
4.88
4.59
4.22
3.72
3.10
2.38
1.64
0.93
0.33
-0.13
-0.49
-0.86
-1.34
-2.03
-2.92
-3.91
-4.81
-5.44
-5.72
-5.66
-5.46
-5.37
-5.64
-6.40
-7.62
-9.11
-10.52
-11.47
-11.67
-10.98
-9.45
-7.35
-5.00
-2.73
-0.78
0.71
1.75
2.40
2.78
3.03
3.24
3.47
3.71
3.93
4.10
4.23
4.37
4.60
4.93
5.30
5.59
5.67
5.44
4.88
4.02
2.96
1.76
0.49
-0.76
-1.93
-2.95
-3.85
-4.69
-5.60
-6.66
-7.94
-9.35
-10.78
-12.07
-13.12
-13.88
-14.33
-14.43
-14.09
-13.21
-11.74
-9.72
-7.38
-5.01
-2.90
-1.24
-0.10
0.56
0.82
0.80
0.60
0.33
0.14
0.12
0.32
0.69
1.08
1.32
1.34
1.21
1.13
1.33
1.92
2.81
3.72
4.33
4.39
3.87
2.93
1.87
0.95
0.34
0.08
0.10
0.31
0.59
0.75
0.58
-0.12
-1.44
-3.23
-5.17
-6.82
-7.77
-7.80
-6.92
-5.31
-3.26
-1.07
1.06
3.00
4.64
5.93
6.80
7.22
7.24
6.95
6.52
6.13
5.86
5.76
5.77
5.79
5.74
5.56
5.25
4.82
4.27
3.59
2.80
1.90
0.96
0.06
-0.75
-1.46
-2.13
-2.84
-3.71
-4.78
-6.06
-7.51
-9.00
-10.33
-11.31
-11.66
-11.18
-9.72
-7.32
-4.17
-0.65
2.82
5.88
8.30
10.07
11.25
11.95
12.24
12.13
11.64
10.83
9.83
8.79
7.78
6.79
5.75
4.63
3.51
2.65
2.28
2.53
3.28
4.21
4.91
5.03
4.48
3.37
1.99
0.67
-0.34
-0.96
-1.28
-1.56
-2.10
-3.14
-4.73
-6.62
-8.36
-9.45
-9.52
-8.48
-6.52
-4.03
-1.45
0.85
2.58
3.61
3.89
3.50
2.58
1.40
0.23
-0.73
-1.34
-1.59
-1.51
-1.16
-0.60
0.13
0.96
1.80
2.59
3.28
3.84
4.26
4.50
4.50
4.18
3.47
2.39
0.98
-0.68
-2.54
-4.51
-6.50
-8.32
-9.72
-10.43
-10.27
-9.22
-7.41
-5.07
-2.50
0.04
2.32
4.19
5.60
6.53
7.00
7.04
6.69
5.99
5.01
3.90
2.84
1.98
1.38
1.01
0.75
0.48
0.16
-0.16
-0.38
-0.43
-0.34
-0.20
-0.17
-0.38
-0.89
-1.71
-2.79
-4.05
-5.44
-6.90
-8.34
-9.63
-10.63
-11.16
-11.13
-10.49
-9.30
-7.67
-5.79
-3.84
-2.04
-0.61
0.24
0.42
-0.03
-0.82
-1.58
-1.89
-1.50
-0.39
1.23
3.03
4.68
5.96
6.76
7.07
6.90
6.33
5.49
4.60
3.92
3.64
3.83
4.44
5.31
6.26
7.15
7.88
8.35
8.46
8.14
7.36
6.18
4.75
3.31
2.03
0.97
0.06
-0.83
-1.83
-2.94
-4.06
-4.93
-5.31
-5.04
-4.09
-2.63
-0.91
0.81
2.31
3.45
4.19
4.55
4.51
4.06
3.21
2.00
0.58
-0.83
-2.00
-2.76
-3.05
-3.00
-2.76
-2.53
-2.39
-2.29
-2.14
-1.81
-1.29
-0.67
-0.12
0.21
0.21
-0.12
-0.71
-1.49
-2.43
-3.54
-4.77
-6.03
-7.14
-7.85
-7.99
-7.49
-6.43
-5.01
-3.41
-1.80
-0.24
1.22
2.54
3.65
4.49
5.00
5.24
5.28
5.27
5.33
5.51
5.81
6.10
6.26
6.14
5.66
4.78
3.59
2.25
0.98
-0.04
-0.70
-1.06
-1.28
-1.63
-2.35
-3.58
-5.29
-7.31
-9.35
-11.06
-12.15
-12.38
-11.66
-10.03
-7.69
-4.96
-2.17
0.37
2.45
3.99
4.99
5.50
5.62
5.44
5.08
4.58
4.00
3.34
2.61
1.88
1.26
0.88
0.81
1.01
1.34
1.60
1.68
1.58
1.37
1.14
0.88
0.49
-0.18
-1.21
-2.58
-4.14
-5.75
-7.28
-8.63
-9.70
-10.33
-10.32
-9.49
-7.79
-5.33
-2.38
0.68
3.50
5.80
7.43
8.36
8.67
8.53
8.12
7.63
7.15
6.71
6.26
5.76
5.17
4.52
3.82
3.12
2.43
1.78
1.22
0.81
0.59
0.52
0.46
0.25
-0.24
-1.04
-2.05
-3.12
-4.13
-5.05
-5.92
-6.80
-7.65
-8.35
-8.67
-8.36
-7.21
-5.17
-2.27
1.24
5.06
8.79
12.07
14.62
16.33
17.28
17.67
17.74
17.64
17.40
16.87
15.86
14.15
11.68
8.52
4.99
1.56
-1.22
-2.92
-3.43
-3.00
-2.21
-1.77
-2.22
-3.74
-6.08
-8.74
-11.19
-13.04
-14.16
-14.63
-14.60
-14.26
-13.74
-13.13
-12.43
-11.61
-10.57
-9.26
-7.70
-6.02
-4.43
-3.08
-2.01
-1.17
-0.47
0.15
0.68
1.03
1.15
1.13
1.12
1.31
1.84
2.65
3.58
4.39
4.86
4.89
4.54
3.91
3.13
2.34
1.58
0.87
0.20
-0.43
-1.01
-1.53
-1.96
-2.24
-2.35
-2.23
-1.91
-1.47
-1.05
-0.80
-0.83
-1.07
-1.33
-1.36
-0.95
-0.06
1.15
2.40
3.39
3.92
3.95
3.55
2.83
1.94
1.05
0.36
0.09
0.50
1.74
3.79
6.40
9.11
11.40
12.83
13.21
12.60
11.29
9.63
7.89
6.25
4.75
3.40
2.19
1.18
0.38
-0.23
-0.80
-1.50
-2.53
-3.96
-5.72
-7.54
-9.04
-9.85
-9.73
-8.67
-6.84
-4.51
-1.99
0.48
2.74
4.60
5.88
6.40
6.07
4.94
3.25
1.34
-0.44
-1.79
-2.53
-2.65
-2.22
-1.44
-0.54
0.21
0.64
0.69
0.45
0.07
-0.33
-0.71
-1.14
-1.75
-2.57
-3.57
-4.63
-5.63
-6.46
-7.13
-7.65
-7.98
-8.01
-7.58
-6.57
-4.98
-2.99
-0.85
1.19
3.01
4.58
5.93
7.05
7.81
8.05
7.66
6.69
5.36
3.95
2.70
1.67
0.81
0.00
-0.82
-1.65
-2.39
-2.96
-3.33
-3.58
-3.81
-4.14
-4.62
-5.20
-5.84
-6.44
-6.98
-7.49
-8.05
-8.75
-9.60
-10.50
-11.27
-11.64
-11.37
-10.34
-8.53
-6.12
-3.34
-0.50
2.11
4.26
5.82
6.78
7.27
7.44
7.45
7.36
7.15
6.78
6.19
5.41
4.52
3.57
2.62
1.65
0.66
-0.36
-1.35
-2.22
-2.94
-3.51
-4.05
-4.67
-5.47
-6.47
-7.62
-8.85
-10.14
-11.47
-12.79
-13.93
-14.58
-14.43
-13.28
-11.14
-8.28
-5.12
-2.07
0.61
2.80
4.54
5.90
6.90
7.53
7.77
7.63
7.19
6.59
5.99
5.49
5.16
4.99
4.93
4.92
4.88
4.73
4.38
3.73
2.71
1.35
-0.26
-1.92
-3.49
-4.88
-6.14
-7.37
-8.61
-9.78
-10.70
-11.11
-10.81
-9.73
-7.93
-5.55
-2.77
0.23
3.25
6.07
8.43
10.10
10.98
11.12
10.76
10.18
9.62
9.17
8.81
8.41
7.90
7.26
6.59
6.00
5.55
5.22
4.91
4.52
3.98
3.28
2.44
1.49
0.45
-0.67
-1.88
-3.16
-4.52
-5.91
-7.24
-8.37
-9.10
-9.19
-8.48
-6.91
-4.57
-1.74
1.26
4.11
6.58
8.56
10.02
10.99
11.47
11.47
11.02
10.23
9.24
8.29
7.56
7.10
6.86
6.67
6.35
5.82
5.12
4.37
3.71
3.14
2.61
1.99
1.22
0.35
-0.52
-1.30
-2.01
-2.76
-3.71
-4.91
-6.24
-7.42
-8.08
-7.97
-6.97
-5.21
-2.94
-0.45
1.98
4.14
5.94
7.32
8.32
8.94
9.22
9.15
8.70
7.91
6.84
5.66
4.54
3.63
3.05
2.78
2.70
2.65
2.42
1.86
0.91
-0.34
-1.69
-2.93
-3.90
-4.57
-5.10
-5.73
-6.71
-8.20
-10.18
-12.48
-14.81
-16.84
-18.25
-18.81
-18.41
-17.06
-14.87
-12.05
-8.82
-5.45
-2.21
0.65
2.94
4.51
5.35
5.51
5.19
4.63
4.09
3.79
3.85
4.25
4.85
5.46
5.90
6.13
6.20
6.25
6.37
6.54
6.60
6.38
5.74
4.70
3.40
2.03
0.73
-0.49
-1.73
-3.09
-4.57
-5.98
-7.01
-7.36
-6.84
-5.48
-3.52
-1.30
0.88
2.81
4.46
5.85
7.04
8.03
8.71
8.95
8.64
7.82
6.67
5.49
4.57
4.13
4.19
4.57
4.98
5.18
5.04
4.58
3.92
3.19
2.44
1.65
0.75
-0.29
-1.42
-2.57
-3.63
-4.58
-5.45
-6.33
-7.26
-8.19
-8.94
-9.33
-9.17
-8.44
-7.21
-5.66
-3.95
-2.19
-0.47
1.09
2.31
2.94
2.82
1.90
0.38
-1.43
-3.19
-4.67
-5.80
-6.59
-7.05
-7.14
-6.77
-5.90
-4.63
-3.19
-1.88
-0.90
-0.30
0.09
0.46
0.94
1.54
2.09
2.44
2.51
2.34
2.05
1.78
1.59
1.45
1.34
1.28
1.39
1.83
2.68
3.89
5.27
6.58
7.60
8.23
8.49
8.47
8.27
7.97
7.58
7.13
6.63
6.12
5.66
5.25
4.89
4.52
4.11
3.64
3.17
2.75
2.45
2.26
2.15
2.02
1.79
1.42
0.92
0.32
-0.33
-1.02
-1.77
-2.59
-3.49
-4.40
-5.20
-5.74
-5.87
-5.55
-4.81
-3.76
-2.56
-1.38
-0.37
0.38
0.82
0.95
0.78
0.30
-0.45
-1.45
-2.63
-3.92
-5.19
-6.33
-7.23
-7.85
-8.22
-8.47
-8.74
-9.15
-9.76
-10.55
-11.45
-12.37
-13.23
-13.95
-14.47
-14.74
-14.80
-14.73
-14.65
-14.62
-14.58
-14.33
-13.59
-12.14
-9.91
-7.06
-3.86
-0.66
2.29
4.85
6.99
8.70
9.98
10.79
11.11
10.95
10.38
9.53
8.53
7.50
6.53
5.65
4.86
4.16
3.59
3.17
2.90
2.74
2.57
2.23
1.62
0.70
-0.46
-1.72
-2.89
-3.84
-4.54
-5.04
-5.48
-5.93
-6.41
-6.80
-6.92
-6.59
-5.72
-4.31
-2.43
-0.24
2.13
4.47
6.59
8.27
9.39
9.87
9.78
9.23
8.33
7.21
5.95
4.70
3.60
2.74
2.15
1.68
1.10
0.23
-0.97
-2.38
-3.74
-4.81
-5.43
-5.62
-5.48
-5.16
-4.81
-4.58
-4.60
-4.99
-5.76
-6.82
-7.87
-8.57
-8.61
-7.88
-6.45
-4.56
-2.45
-0.26
1.96
4.18
6.32
8.18
9.58
10.36
10.47
9.96
8.96
7.57
5.90
4.07
2.27
0.67
-0.57
-1.37
-1.78
-1.87
-1.73
-1.42
-0.99
-0.49
0.03
0.49
0.83
0.96
0.76
0.06
-1.24
-3.13
-5.34
-7.43
-8.83
-9.12
-8.21
-6.37
-4.14
-2.13
-0.72
-0.00
0.21
0.16
0.01
-0.28
-0.81
-1.65
-2.72
-3.81
-4.64
-5.01
-4.79
-3.86
-1.98
1.21
6.08
12.79
21.07
30.19
39.12
46.75
52.23
55.10
55.28
53.06
48.88
43.24
36.59
29.27
21.59
13.82
6.30
-0.54
-6.27
-10.53
-13.10
-14.03
-13.58
-12.20
-10.37
-8.57
-7.17
-6.35
-6.13
-6.40
-6.97
-7.67
-8.39
-9.07
-9.69
-10.21
-10.57
-10.75
-10.73
-10.61
-10.50
-10.55
-10.80
-11.18
-11.59
-11.89
-12.04
-12.08
-12.13
-12.33
-12.79
-13.53
-14.48
-15.51
-16.42
-17.00
-17.06
-16.44
-15.09
-13.00
-10.28
-7.07
-3.59
-0.10
3.14
5.89
7.93
9.20
9.68
9.47
8.69
7.48
5.96
4.27
2.56
1.00
-0.27
-1.17
-1.70
-1.92
-1.97
-1.96
-1.98
-2.04
-2.12
-2.20
-2.33
-2.58
-3.07
-3.86
-4.99
-6.34
-7.71
-8.84
-9.40
-9.18
-8.10
-6.28
-3.97
-1.48
0.89
2.97
4.67
6.01
7.00
7.67
8.05
8.15
8.01
7.66
7.12
6.41
5.55
4.60
3.63
2.72
1.93
1.32
0.88
0.59
0.40
0.20
-0.09
-0.56
-1.22
-2.06
-3.00
-3.96
-4.87
-5.67
-6.32
-6.78
-7.01
-7.00
-6.69
-6.11
-5.28
-4.23
-3.02
-1.67
-0.18
1.44
3.14
4.81
6.30
7.43
8.08
8.23
7.96
7.43
6.80
6.18
5.59
5.03
4.53
4.16
3.99
4.08
4.40
4.81
5.13
5.19
4.89
4.23
3.25
2.03
0.65
-0.91
-2.68
-4.66
-6.84
-9.06
-11.09
-12.62
-13.40
-13.27
-12.27
-10.54
-8.31
-5.80
-3.17
-0.55
1.95
4.20
6.09
7.52
8.41
8.68
8.33
7.40
6.00
4.36
2.73
1.36
0.40
-0.18
-0.47
-0.68
-0.95
-1.36
-1.92
-2.59
-3.30
-4.06
-4.90
-5.85
-6.96
-8.20
-9.52
-10.83
-11.97
-12.72
-12.85
-12.20
-10.72
-8.59
-6.15
-3.79
-1.76
-0.10
1.37
2.94
4.82
6.99
9.17
10.95
11.94
11.97
11.10
9.63
7.97
6.48
5.33
4.54
3.97
3.45
2.90
2.31
1.77
1.32
1.01
0.80
0.67
0.59
0.53
0.44
0.18
-0.43
-1.52
-3.03
-4.70
-6.07
-6.64
-6.12
-4.53
-2.24
0.25
2.46
4.16
5.43
6.52
7.80
9.47
11.52
13.72
15.69
17.06
17.58
17.16
15.87
13.86
11.36
8.62
5.93
3.61
2.03
1.42
1.85
3.11
4.72
6.03
6.48
5.73
3.80
1.06
-1.94
-4.67
-6.81
-8.33
-9.42
-10.35
-11.28
-12.19
-12.91
-13.20
-12.91
-12.02
-10.65
-8.95
-7.07
-5.08
-3.05
-1.07
0.75
2.25
3.33
3.96
4.15
4.00
3.60
3.04
2.42
1.86
1.50
1.38
1.46
1.56
1.48
1.05
0.24
-0.79
-1.83
-2.68
-3.28
-3.71
-4.11
-4.61
-5.23
-5.90
-6.50
-6.98
-7.36
-7.70
-8.01
-8.18
-8.01
-7.26
-5.82
-3.73
-1.28
1.17
3.33
5.05
6.41
7.60
8.82
10.15
11.47
12.55
13.18
13.22
12.69
11.74
10.51
9.10
7.50
5.70
3.67
1.53
-0.51
-2.18
-3.21
-3.44
-2.91
-1.87
-0.72
0.05
0.03
-1.01
-3.07
-5.90
-9.08
-12.15
-14.65
-16.15
-16.37
-15.17
-12.61
-9.02
-4.95
-1.07
2.04
4.03
4.92
5.05
4.87
4.76
4.85
5.06
5.20
5.22
5.24
5.56
6.40
7.78
9.40
10.81
11.58
11.52
10.63
9.12
7.15
4.83
2.25
-0.48
-3.13
-5.41
-7.07
-8.00
-8.31
-8.24
-8.08
-8.03
-8.13
-8.28
-8.27
-7.87
-6.91
-5.38
-3.43
-1.37
0.49
1.88
2.72
3.09
3.15
3.05
2.89
2.68
2.40
2.08
1.79
1.62
1.58
1.64
1.68
1.55
1.16
0.49
-0.41
-1.41
-2.36
-3.18
-3.80
-4.25
-4.60
-4.98
-5.47
-6.14
-6.90
-7.63
-8.14
-8.25
-7.83
-6.87
-5.39
-3.52
-1.39
0.86
3.08
5.06
6.64
7.66
8.06
7.88
7.25
6.36
5.37
4.44
3.69
3.18
2.94
2.93
3.02
3.08
2.93
2.48
1.75
0.88
0.07
-0.49
-0.70
-0.64
-0.53
-0.65
-1.26
-2.47
-4.21
-6.22
-8.14
-9.62
-10.40
-10.40
-9.67
-8.34
-6.57
-4.51
-2.30
-0.08
1.98
3.71
5.02
5.88
6.33
6.45
6.32
6.00
5.52
4.91
4.27
3.70
3.28
3.05
2.97
2.95
2.90
2.74
2.39
1.82
0.99
-0.14
-1.56
-3.23
-5.03
-6.82
-8.47
-9.87
-10.93
-11.51
-11.45
-10.55
-8.74
-6.14
-3.07
0.03
2.71
4.68
5.91
6.57
6.90
7.07
7.11
6.97
6.55
5.86
5.01
4.20
3.61
3.31
3.25
3.29
3.26
3.07
2.69
2.13
1.42
0.58
-0.40
-1.47
-2.57
-3.62
-4.61
-5.61
-6.79
-8.32
-10.23
-12.36
-14.28
-15.46
-15.37
-13.72
-10.60
-6.43
-1.92
2.19
5.34
7.24
7.97
7.83
7.30
6.85
6.87
7.57
8.89
10.56
12.08
12.92
12.63
11.00
8.11
4.29
0.06
-4.00
-7.35
-9.54
-10.36
-9.82
-8.22
-6.10
-4.03
-2.53
-1.89
-2.17
-3.25
-4.90
-6.88
-8.89
-10.60
-11.68
-11.82
-10.88
-8.93
-6.26
-3.31
-0.50
1.82
3.45
4.33
4.52
4.19
3.53
2.79
2.16
1.77
1.66
1.79
2.10
2.45
2.74
2.84
2.65
2.11
1.23
0.10
-1.11
-2.24
-3.20
-3.98
-4.64
-5.30
-6.05
-6.89
-7.72
-8.40
-8.73
-8.55
-7.82
-6.56
-4.93
-3.09
-1.21
0.57
2.16
3.49
4.54
5.31
5.87
6.26
6.55
6.78
6.96
7.09
7.12
7.01
6.76
6.34
5.76
5.03
4.17
3.22
2.25
1.32
0.48
-0.30
-1.07
-1.94
-2.97
-4.19
-5.56
-7.01
-8.41
-9.63
-10.54
-10.95
-10.70
-9.64
-7.77
-5.23
-2.32
0.60
3.20
5.24
6.63
7.37
7.55
7.32
6.82
6.20
5.57
5.01
4.54
4.17
3.87
3.61
3.31
2.93
2.41
1.76
1.02
0.26
-0.45
-1.13
-1.86
-2.78
-3.98
-5.46
-7.11
-8.65
-9.77
-10.20
-9.77
-8.48
-6.48
-4.02
-1.40
1.12
3.37
5.25
6.74
7.83
8.51
8.73
8.46
7.75
6.73
5.65
4.73
4.14
3.88
3.82
3.79
3.62
3.28
2.78
2.17
1.50
0.76
-0.11
-1.14
-2.38
-3.87
-5.59
-7.46
-9.34
-10.94
-11.92
-11.97
-10.94
-8.90
-6.14
-3.07
-0.06
2.64
4.97
6.95
8.58
9.81
10.50
10.54
9.97
8.99
7.89
6.95
6.30
5.88
5.50
4.98
4.26
3.39
2.49
1.63
0.84
0.04
-0.84
-1.84
-3.00
-4.33
-5.84
-7.51
-9.20
-10.69
-11.64
-11.78
-10.95
-9.21
-6.75
-3.89
-0.92
1.89
4.38
6.43
7.99
9.03
9.54
9.53
9.03
8.13
7.02
5.93
5.09
4.61
4.44
4.40
4.24
3.78
3.00
2.03
1.05
0.20
-0.48
-1.07
-1.73
-2.59
-3.69
-5.01
-6.44
-7.81
-8.88
-9.40
-9.15
-7.97
-5.86
-3.03
0.22
3.51
6.51
9.01
10.88
12.08
12.55
12.30
11.39
10.00
8.41
6.90
5.69
4.83
4.22
3.71
3.20
2.65
2.11
1.59
1.05
0.39
-0.47
-1.55
-2.78
-4.06
-5.31
-6.53
-7.73
-8.87
-9.78
-10.17
-9.76
-8.35
-6.00
-2.95
0.39
3.62
6.42
8.62
10.18
11.10
11.47
11.37
10.89
10.17
9.34
8.51
7.75
7.07
6.49
5.99
5.56
5.19
4.83
4.41
3.84
3.08
2.10
0.94
-0.36
-1.77
-3.27
-4.89
-6.59
-8.33
-10.00
-11.38
-12.22
-12.27
-11.31
-9.32
-6.45
-3.09
0.32
3.35
5.73
7.40
8.47
9.15
9.61
9.95
10.18
10.23
10.02
9.55
8.85
7.99
7.03
6.00
4.88
3.63
2.26
0.85
-0.47
-1.55
-2.28
-2.67
-2.84
-2.94
-3.14
-3.60
-4.39
-5.52
-6.88
-8.30
-9.54
-10.36
-10.55
-9.97
-8.58
-6.48
-3.84
-0.92
2.01
4.70
6.96
8.64
9.67
9.99
9.62
8.64
7.24
5.66
4.17
2.97
2.13
1.61
1.25
0.92
0.52
-0.01
-0.65
-1.40
-2.23
-3.07
-3.86
-4.53
-5.09
-5.59
-6.17
-6.96
-7.98
-9.15
-10.25
-10.99
-11.12
-10.48
-9.05
-6.96
-4.42
-1.70
0.98
3.42
5.48
7.09
8.18
8.68
8.54
7.78
6.52
5.05
3.73
2.88
2.66
2.96
3.51
3.95
4.03
3.65
2.92
2.02
1.11
0.26
-0.54
-1.38
-2.31
-3.39
-4.66
-6.13
-7.77
-9.40
-10.76
-11.56
-11.54
-10.60
-8.85
-6.51
-3.87
-1.19
1.35
3.61
5.48
6.85
7.62
7.74
7.27
6.40
5.32
4.28
3.43
2.85
2.52
2.36
2.28
2.17
1.96
1.65
1.24
0.75
0.17
-0.55
-1.48
-2.66
-4.05
-5.58
-7.16
-8.69
-10.03
-11.08
-11.66
-11.58
-10.69
-8.98
-6.58
-3.76
-0.84
1.88
4.20
6.03
7.28
7.93
7.96
7.40
6.39
5.15
3.94
3.00
2.51
2.45
2.65
2.86
2.84
2.47
1.79
0.96
0.16
-0.47
-0.95
-1.41
-2.01
-2.87
-4.03
-5.43
-6.99
-8.56
-10.02
-11.15
-11.74
-11.55
-10.41
-8.36
-5.62
-2.57
0.36
2.87
4.83
6.29
7.32
7.99
8.25
8.05
7.37
6.32
5.16
4.14
3.44
3.11
3.02
2.95
2.71
2.21
1.50
0.70
-0.06
-0.70
-1.24
-1.76
-2.37
-3.13
-4.06
-5.14
-6.39
-7.80
-9.32
-10.82
-12.01
-12.57
-12.19
-10.73
-8.30
-5.22
-1.94
1.15
3.74
5.69
6.96
7.56
7.51
6.85
5.74
4.41
3.16
2.23
1.76
1.70
1.89
2.11
2.19
2.08
1.79
1.39
0.90
0.35
-0.28
-0.99
-1.73
-2.49
-3.26
-4.08
-5.03
-6.19
-7.51
-8.83
-9.89
-10.38
-10.07
-8.91
-6.99
-4.55
-1.85
0.85
3.33
5.41
6.98
7.96
8.36
8.26
7.80
7.10
6.28
5.46
4.74
4.20
3.89
3.74
3.62
3.38
2.88
2.10
1.12
0.11
-0.82
-1.62
-2.35
-3.13
-4.08
-5.23
-6.57
-7.99
-9.37
-10.55
-11.36
-11.65
-11.26
-10.10
-8.14
-5.48
-2.36
0.86
3.80
6.11
7.59
8.24
8.20
7.76
7.15
6.56
6.03
5.52
5.00
4.45
3.96
3.57
3.27
2.96
2.47
1.75
0.82
-0.15
-0.99
-1.64
-2.18
-2.80
-3.70
-4.92
-6.38
-7.91
-9.29
-10.35
-10.98
-11.10
-10.64
-9.56
-7.87
-5.66
-3.07
-0.26
2.58
5.25
7.56
9.31
10.34
10.59
10.10
9.05
7.68
6.26
4.97
3.97
3.29
2.92
2.78
2.75
2.74
2.64
2.40
1.98
1.37
0.57
-0.40
-1.54
-2.82
-4.21
-5.70
-7.26
-8.85
-10.37
-11.63
-12.42
-12.48
-11.63
-9.79
-7.06
-3.70
-0.11
3.27
6.07
8.04
9.13
9.42
9.09
8.35
7.39
6.39
5.51
4.87
4.55
4.47
4.48
4.36
3.98
3.29
2.38
1.41
0.52
-0.22
-0.82
-1.37
-1.96
-2.66
-3.50
-4.52
-5.68
-6.94
-8.16
-9.13
-9.59
-9.32
-8.20
-6.28
-3.76
-0.95
1.83
4.33
6.33
7.74
8.48
8.55
8.05
7.12
6.00
4.94
4.13
3.68
3.54
3.58
3.59
3.42
3.00
2.38
1.69
1.05
0.52
0.05
-0.48
-1.17
-2.04
-3.06
-4.17
-5.32
-6.52
-7.74
-8.87
-9.63
-9.70
-8.84
-7.01
-4.41
-1.44
1.49
4.06
6.14
7.69
8.71
9.23
9.25
8.87
8.24
7.54
6.93
6.48
6.17
5.91
5.63
5.28
4.87
4.42
3.95
3.44
2.87
2.21
1.42
0.51
-0.53
-1.66
-2.86
-4.12
-5.45
-6.87
-8.30
-9.57
-10.37
-10.39
-9.40
-7.39
-4.62
-1.48
1.61
4.32
6.53
8.22
9.40
10.07
10.17
9.72
8.82
7.69
6.62
5.83
5.41
5.26
5.21
5.04
4.65
4.06
3.37
2.70
2.11
1.54
0.88
0.03
-1.05
-2.27
-3.55
-4.83
-6.10
-7.40
-8.71
-9.89
-10.70
-10.85
-10.16
-8.62
-6.39
-3.76
-1.04
1.54
3.81
5.66
7.03
7.88
8.21
8.06
7.49
6.60
5.55
4.51
3.66
3.13
2.94
3.01
3.19
3.34
3.38
3.31
3.17
2.97
2.69
2.27
1.66
0.87
-0.06
-1.05
-2.12
-3.33
-4.74
-6.33
-7.92
-9.21
-9.86
-9.64
-8.48
-6.52
-4.02
-1.30
1.33
3.61
5.38
6.53
7.06
7.03
6.54
5.70
4.62
3.40
2.18
1.11
0.32
-0.10
-0.18
-0.06
0.09
0.16
0.08
-0.10
-0.33
-0.58
-0.91
-1.41
-2.18
-3.23
-4.48
-5.82
-7.12
-8.29
-9.27
-9.97
-10.25
-9.97
-9.01
-7.39
-5.27
-2.92
-0.64
1.31
2.80
3.78
4.31
4.47
4.35
4.02
3.53
2.94
2.33
1.78
1.35
1.12
1.06
1.11
1.17
1.14
0.95
0.61
0.18
-0.29
-0.78
-1.32
-1.96
-2.79
-3.83
-5.06
-6.38
-7.63
-8.59
-9.11
-9.08
-8.49
-7.40
-5.90
-4.09
-2.08
0.04
2.15
4.07
5.62
6.64
7.05
6.85
6.15
5.08
3.80
2.49
1.32
0.45
-0.02
-0.12
0.06
0.30
0.44
0.36
0.07
-0.33
-0.73
-1.08
-1.43
-1.89
-2.55
-3.49
-4.67
-6.00
-7.35
-8.52
-9.33
-9.58
-9.15
-7.96
-6.07
-3.64
-0.91
1.78
4.13
5.88
6.92
7.24
6.95
6.23
5.26
4.21
3.24
2.45
1.91
1.55
1.24
0.80
0.11
-0.81
-1.78
-2.57
-2.98
-3.02
-2.90
-2.90
-3.26
-4.05
-5.18
-6.47
-7.76
-8.95
-9.93
-10.55
-10.60
-9.90
-8.38
-6.21
-3.73
-1.32
0.74
2.37
3.63
4.62
5.37
5.78
5.74
5.21
4.29
3.23
2.30
1.68
1.37
1.21
1.02
0.65
0.11
-0.51
-1.09
-1.55
-1.91
-2.31
-2.88
-3.73
-4.91
-6.36
-7.92
-9.43
-10.68
-11.48
-11.65
-11.09
-9.74
-7.66
-5.02
-2.04
0.95
3.67
5.87
7.38
8.16
8.25
7.78
6.89
5.81
4.73
3.83
3.19
2.80
2.52
2.17
1.63
0.89
0.07
-0.64
-1.10
-1.35
-1.60
-2.11
-3.11
-4.64
-6.55
-8.57
-10.38
-11.69
-12.30
-12.05
-10.85
-8.75
-5.87
-2.54
0.90
4.12
6.90
9.12
10.78
11.83
12.27
12.05
11.26
10.05
8.68
7.40
6.36
5.58
4.90
4.17
3.23
2.07
0.79
-0.48
-1.60
-2.55
-3.38
-4.24
-5.23
-6.46
-7.98
-9.70
-11.50
-13.12
-14.20
-14.43
-13.56
-11.52
-8.45
-4.67
-0.59
3.40
6.98
9.93
12.13
13.54
14.14
13.97
13.12
11.77
10.17
8.61
7.32
6.42
5.84
5.39
4.84
4.06
3.07
1.95
0.85
-0.21
-1.29
-2.48
-3.90
-5.57
-7.42
-9.30
-11.03
-12.36
-13.03
-12.77
-11.43
-8.99
-5.67
-1.85
2.04
5.64
8.70
11.11
12.84
13.85
14.12
13.67
12.63
11.28
9.93
8.86
8.16
7.73
7.34
6.79
6.00
5.01
3.97
3.02
2.19
1.42
0.61
-0.37
-1.60
-3.14
-5.04
-7.31
-9.81
-12.26
-14.16
-15.00
-14.44
-12.44
-9.25
-5.36
-1.25
2.74
6.40
9.62
12.26
14.09
14.93
14.70
13.53
11.76
9.82
8.20
7.21
7.01
7.50
8.36
9.12
9.31
8.65
7.15
5.09
2.91
0.99
-0.50
-1.63
-2.63
-3.80
-5.31
-7.21
-9.37
-11.55
-13.44
-14.67
-14.90
-13.88
-11.57
-8.11
-3.87
0.66
4.98
8.68
11.46
13.17
13.78
13.40
12.29
10.77
9.22
7.94
7.09
6.69
6.59
6.60
6.56
6.35
5.95
5.35
4.56
3.58
2.45
1.25
0.07
-1.01
-2.02
-3.10
-4.40
-6.08
-8.09
-10.21
-12.05
-13.15
-13.19
-12.00
-9.65
-6.44
-2.71
1.13
4.75
7.92
10.46
12.27
13.25
13.42
12.84
11.71
10.32
8.95
7.83
7.01
6.44
5.96
5.46
4.88
4.20
3.45
2.64
1.77
0.86
-0.06
-0.94
-1.78
-2.62
-3.53
-4.58
-5.78
-7.11
-8.54
-10.03
-11.51
-12.80
-13.61
-13.57
-12.42
-10.09
-6.80
-3.00
0.83
4.22
6.92
8.81
9.91
10.32
10.18
9.63
8.81
7.84
6.79
5.73
4.75
3.96
3.46
3.27
3.25
3.22
2.96
2.34
1.39
0.23
-0.95
-2.05
-3.02
-3.91
-4.77
-5.68
-6.66
-7.76
-9.02
-10.42
-11.84
-13.03
-13.66
-13.39
-12.03
-9.60
-6.37
-2.77
0.76
3.84
6.31
8.12
9.32
9.96
10.05
9.62
8.75
7.60
6.41
5.39
4.69
4.31
4.15
4.00
3.69
3.13
2.33
1.37
0.36
-0.60
-1.48
-2.32
-3.18
-4.09
-5.11
-6.24
-7.45
-8.75
-10.12
-11.52
-12.85
-13.87
-14.28
-13.80
-12.26
-9.69
-6.32
-2.54
1.21
4.51
7.08
8.83
9.79
10.11
9.94
9.40
8.57
7.50
6.29
5.08
4.03
3.23
2.70
2.32
1.97
1.54
1.04
0.52
0.01
-0.50
-1.11
-1.94
-3.01
-4.28
-5.64
-6.98
-8.25
-9.48
-10.66
-11.79
-12.76
-13.40
-13.54
-13.03
-11.77
-9.78
-7.18
-4.17
-1.01
2.01
4.64
6.68
8.05
8.73
8.77
8.25
7.34
6.18
4.94
3.79
2.80
2.00
1.35
0.80
0.29
-0.23
-0.77
-1.34
-1.94
-2.59
-3.28
-4.00
-4.71
-5.42
-6.14
-6.99
-8.08
-9.51
-11.21
-12.95
-14.31
-14.84
-14.23
-12.41
-9.57
-6.14
-2.56
0.76
3.60
5.85
7.49
8.52
8.94
8.80
8.19
7.27
6.27
5.38
4.73
4.34
4.11
3.87
3.45
2.78
1.86
0.82
-0.22
-1.19
-2.12
-3.07
-4.10
-5.22
-6.42
-7.67
-9.01
-10.44
-11.89
-13.14
-13.82
-13.63
-12.36
-10.11
-7.16
-3.93
-0.75
2.16
4.69
6.73
8.18
8.95
9.00
8.45
7.56
6.60
5.81
5.25
4.86
4.46
3.94
3.22
2.36
1.45
0.61
-0.11
-0.74
-1.36
-2.09
-3.00
-4.12
-5.45
-6.95
-8.59
-10.31
-11.97
-13.37
-14.18
-14.09
-12.91
-10.64
-7.52
-3.93
-0.31
3.01
5.83
8.05
9.63
10.55
10.80
10.43
9.53
8.29
6.94
5.68
4.67
3.97
3.56
3.32
3.08
2.67
2.01
1.11
0.05
-1.07
-2.22
-3.41
-4.68
-6.09
-7.63
-9.28
-10.99
-12.66
-14.10
-15.00
-15.00
-13.81
-11.34
-7.82
-3.72
0.41
4.12
7.15
9.44
11.02
11.93
12.19
11.82
10.93
9.73
8.51
7.52
6.90
6.64
6.55
6.42
6.05
5.35
4.32
3.06
1.68
0.27
-1.11
-2.46
-3.79
-5.10
-6.40
-7.77
-9.29
-11.01
-12.83
-14.49
-15.55
-15.58
-14.31
-11.77
-8.30
-4.44
-0.72
2.49
5.04
6.96
8.34
9.22
9.60
9.41
8.68
7.52
6.18
4.98
4.15
3.77
3.72
3.76
3.61
3.11
2.24
1.15
0.04
-0.95
-1.81
-2.61
-3.46
-4.42
-5.52
-6.77
-8.19
-9.86
-11.75
-13.59
-14.78
-14.51
-12.01
-6.98
0.22
8.57
16.73
23.48
28.12
30.53
31.03
30.13
28.22
25.54
22.23
18.50
14.66
11.11
8.13
5.80
3.99
2.47
1.00
-0.52
-2.01
-3.32
-4.33
-5.03
-5.53
-6.03
-6.73
-7.76
-9.15
-10.88
-12.89
-15.02
-17.05
-18.60
-19.19
-18.42
-16.07
-12.22
-7.30
-1.96
3.17
7.57
10.99
13.40
14.85
15.43
15.25
14.45
13.20
11.81
10.53
9.56
8.98
8.66
8.46
8.23
7.88
7.46
7.03
6.64
6.33
6.02
5.58
4.84
3.63
1.77
-0.80
-4.05
-7.80
-11.71
-15.31
-18.07
-19.48
-19.24
-17.29
-13.86
-9.44
-4.64
-0.01
4.03
7.30
9.75
11.40
12.29
12.39
11.68
10.26
8.37
6.45
5.04
4.54
5.05
6.23
7.40
7.78
6.75
4.19
0.51
-3.40
-6.47
-7.80
-6.97
-4.17
-0.18
3.89
6.95
8.22
7.42
4.85
1.25
-2.46
-5.39
-6.91
-6.72
-4.89
-1.78
2.07
6.08
9.68
12.46
14.12
14.57
13.90
12.39
10.40
8.31
6.39
4.77
3.39
2.18
1.04
-0.00
-0.90
-1.61
-2.15
-2.65
-3.24
-4.03
-5.02
-6.16
-7.34
-8.52
-9.69
-10.96
-12.39
-14.01
-15.76
-17.40
-18.67
-19.27
-18.99
-17.78
-15.75
-13.14
-10.27
-7.42
-4.87
-2.85
-1.54
-1.08
-1.50
-2.70
-4.38
-6.12
-7.40
-7.75
-6.81
-4.49
-0.96
3.36
7.92
12.11
15.44
17.59
18.51
18.38
17.53
16.29
14.90
13.43
11.79
9.84
7.47
4.77
2.00
-0.41
-2.04
-2.55
-1.80
0.09
2.77
5.75
8.53
10.67
11.94
12.20
11.48
9.82
7.30
4.07
0.41
-3.28
-6.52
-8.88
-10.20
-10.63
-10.52
-10.32
-10.31
-10.52
-10.79
-10.90
-10.74
-10.38
-10.04
-9.96
-10.32
-11.14
-12.33
-13.69
-14.96
-15.89
-16.18
-15.61
-14.08
-11.70
-8.82
-5.90
-3.38
-1.47
-0.13
0.85
1.76
2.76
3.82
4.81
5.60
6.15
6.54
6.88
7.21
7.42
7.33
6.75
5.62
4.05
2.24
0.41
-1.30
-2.91
-4.54
-6.33
-8.34
-10.51
-12.73
-14.79
-16.55
-17.81
-18.41
-18.14
-16.86
-14.52
-11.27
-7.41
-3.40
0.38
3.66
6.32
8.37
9.84
10.75
11.13
10.99
10.43
9.59
8.65
7.73
6.87
6.05
5.19
4.25
3.22
2.14
1.06
-0.01
-1.10
-2.28
-3.60
-5.12
-6.81
-8.63
-10.51
-12.36
-14.08
-15.48
-16.34
-16.39
-15.41
-13.30
-10.17
-6.27
-1.97
2.34
6.33
9.79
12.62
14.79
16.32
17.22
17.53
17.29
16.56
15.48
14.19
12.83
11.52
10.31
9.20
8.17
7.22
6.38
5.63
4.93
4.17
3.22
1.96
0.33
-1.65
-3.93
-6.42
-9.08
-11.81
-14.48
-16.87
-18.64
-19.46
-19.06
-17.38
-14.59
-11.07
-7.23
-3.47
-0.02
3.01
5.53
7.43
8.60
8.95
8.51
7.47
6.12
4.77
3.62
2.77
2.19
1.82
1.58
1.42
1.30
1.18
0.99
0.67
0.20
-0.41
-1.14
-1.99
-3.01
-4.28
-5.88
-7.81
-9.95
-12.02
-13.62
-14.33
-13.83
-12.01
-9.01
-5.14
-0.82
3.56
7.67
11.29
14.24
16.38
17.62
17.95
17.45
16.34
14.87
13.30
11.84
10.62
9.69
9.02
8.53
8.07
7.51
6.75
5.78
4.65
3.45
2.24
1.05
-0.18
-1.48
-2.91
-4.48
-6.24
-8.23
-10.44
-12.74
-14.81
-16.22
-16.49
-15.28
-12.53
-8.53
-3.81
1.04
5.45
9.10
11.83
13.66
14.68
14.98
14.65
13.79
12.55
11.15
9.82
8.76
8.05
7.67
7.47
7.28
6.94
6.38
5.55
4.49
3.23
1.83
0.35
-1.12
-2.54
-3.85
-5.08
-6.29
-7.59
-9.07
-10.76
-12.52
-14.05
-14.90
-14.62
-12.96
-9.94
-5.92
-1.49
2.77
6.40
9.22
11.26
12.65
13.47
13.77
13.53
12.78
11.61
10.19
8.70
7.30
6.06
4.97
4.00
3.12
2.30
1.53
0.80
0.03
-0.84
-1.88
-3.12
-4.52
-6.02
-7.57
-9.16
-10.83
-12.69
-14.79
-17.08
-19.37
-21.32
-22.52
-22.66
-21.58
-19.35
-16.28
-12.81
-9.42
-6.54
-4.41
-3.08
-2.36
-1.89
-1.23
0.00
2.00
4.74
7.96
11.28
14.32
16.82
18.62
19.69
20.07
19.83
19.08
17.94
16.50
14.85
13.06
11.20
9.38
7.71
6.33
5.33
4.67
4.23
3.77
3.10
2.04
0.56
-1.23
-3.20
-5.16
-6.96
-8.53
-9.88
-11.13
-12.48
-14.06
-15.92
-17.89
-19.56
-20.43
-20.02
-18.06
-14.61
-10.03
-4.86
0.30
4.98
8.90
11.94
14.12
15.51
16.22
16.37
16.07
15.45
14.64
13.77
12.91
12.01
10.94
9.48
7.49
5.00
2.26
-0.34
-2.39
-3.64
-4.09
-3.98
-3.68
-3.51
-3.69
-4.29
-5.31
-6.73
-8.56
-10.74
-13.08
-15.20
-16.58
-16.76
-15.48
-12.83
-9.22
-5.17
-1.20
2.34
5.27
7.50
8.94
9.53
9.30
8.43
7.22
6.04
5.10
4.47
4.07
3.76
3.44
3.11
2.78
2.45
2.05
1.48
0.69
-0.25
-1.22
-2.09
-2.83
-3.55
-4.41
-5.59
-7.09
-8.78
-10.39
-11.59
-12.12
-11.82
-10.64
-8.69
-6.15
-3.25
-0.24
2.71
5.48
8.02
10.31
12.33
14.01
15.28
16.10
16.55
16.74
16.86
16.98
17.09
17.09
16.82
16.19
15.21
13.99
12.65
11.25
9.79
8.16
6.23
3.88
1.07
-2.19
-5.80
-9.59
-13.35
-16.77
-19.48
-21.08
-21.33
-20.19
-17.92
-14.98
-11.91
-9.13
-6.89
-5.22
-4.03
-3.22
-2.69
-2.36
-2.20
-2.19
-2.34
-2.69
-3.26
-4.05
-5.05
-6.17
-7.35
-8.55
-9.73
-10.86
-11.84
-12.55
-12.88
-12.79
-12.32
-11.64
-10.89
-10.22
-9.69
-9.27
-8.84
-8.23
-7.26
-5.78
-3.72
-1.10
1.94
5.21
8.47
11.54
14.29
16.63
18.49
19.79
20.48
20.53
20.03
19.11
17.98
16.79
15.66
14.56
13.41
12.04
10.34
8.25
5.83
3.22
0.56
-2.06
-4.59
-7.08
-9.55
-12.02
-14.42
-16.63
-18.56
-20.13
-21.25
-21.78
-21.56
-20.43
-18.34
-15.42
-11.95
-8.31
-4.90
-2.04
0.03
1.19
1.45
0.96
0.04
-0.95
-1.66
-1.95
-1.87
-1.64
-1.50
-1.58
-1.83
-2.15
-2.40
-2.56
-2.68
-2.82
-3.05
-3.34
-3.70
-4.17
-4.82
-5.78
-7.09
-8.67
-10.28
-11.56
-12.17
-11.81
-10.36
-7.84
-4.44
-0.45
3.78
7.91
11.67
14.86
17.37
19.16
20.21
20.55
20.24
19.45
18.42
17.39
16.55
15.95
15.50
15.04
14.40
13.50
12.33
10.92
9.33
7.59
5.76
3.87
1.95
0.04
-1.85
-3.67
-5.32
-6.60
-7.31
-7.26
-6.36
-4.64
-2.28
0.43
3.19
5.68
7.65
8.97
9.64
9.74
9.43
8.88
8.20
7.45
6.67
5.91
5.24
4.75
4.47
4.39
4.38
4.28
3.91
3.15
1.98
0.44
-1.38
-3.35
-5.42
-7.54
-9.72
-11.89
-13.92
-15.52
-16.29
-15.91
-14.27
-11.56
-8.28
-5.02
-2.30
-0.38
0.73
1.16
1.08
0.60
-0.20
-1.17
-2.06
-2.57
-2.45
-1.68
-0.43
0.96
2.11
2.73
2.71
1.99
0.63
-1.32
-3.81
-6.70
-9.82
-12.94
-15.75
-17.91
-19.08
-18.98
-17.46
-14.58
-10.66
-6.20
-1.71
2.38
5.79
8.36
10.02
10.72
10.51
9.56
8.23
6.86
5.63
4.46
3.10
1.27
-1.10
-3.80
-6.38
-8.38
-9.53
-9.87
-9.69
-9.43
-9.41
-9.80
-10.52
-11.41
-12.28
-13.10
-13.93
-14.86
-15.87
-16.73
-17.11
-16.71
-15.45
-13.53
-11.27
-8.98
-6.78
-4.57
-2.18
0.50
3.40
6.23
8.58
10.00
10.15
8.98
6.70
3.85
1.06
-1.09
-2.26
-2.37
-1.60
-0.27
1.29
2.76
3.87
4.34
3.94
2.53
0.15
-2.85
-5.92
-8.34
-9.43
-8.67
-5.85
-1.09
5.20
12.37
19.68
26.31
31.52
34.73
35.66
34.44
31.62
27.96
24.25
21.03
18.46
16.41
14.58
12.68
10.53
8.05
5.24
2.08
-1.39
-5.08
-8.83
-12.48
-15.92
-19.21
-22.50
-25.91
-29.39
-32.60
-35.00
-36.05
-35.47
-33.32
-30.00
-26.06
-21.95
-17.95
-14.13
-10.57
-7.47
-5.13
-3.89
-3.94
-5.19
-7.35
-10.01
-12.77
-15.32
-17.29
-18.18
-17.27
-13.74
-7.00
2.97
15.44
29.00
41.90
52.55
59.99
64.03
65.20
64.39
62.57
60.53
58.79
57.69
57.38
57.90
59.11
60.77
62.48
63.80
64.29
63.62
61.61
58.24
53.51
47.47
40.07
31.33
21.49
11.09
0.96
-7.98
-15.09
-20.32
-24.16
-27.43
-30.85
-34.68
-38.73
-42.52
-45.68
-48.17
-50.19
-52.06
-53.94
-55.74
-57.13
-57.66
-56.92
-54.55
-50.34
-44.28
-36.67
-28.21
-19.88
-12.70
-7.43
-4.32
-3.09
-3.11
-3.68
-4.26
-4.58
-4.62
-4.47
-4.17
-3.58
-2.39
-0.16
3.45
8.48
14.57
20.97
26.69
30.87
32.98
32.96
31.13
27.95
23.89
19.37
14.80
10.71
7.72
6.44
7.23
9.97
14.02
18.39
21.96
23.84
23.64
21.45
17.80
13.35
8.77
4.52
0.91
-1.87
-3.74
-4.67
-4.79
-4.36
-3.81
-3.64
-4.21
-5.67
-7.82
-10.27
-12.52
-14.26
-15.49
-16.45
-17.54
-19.08
-21.17
-23.66
-26.27
-28.72
-30.84
-32.56
-33.86
-34.65
-34.80
-34.14
-32.63
-30.37
-27.55
-24.38
-20.94
-17.17
-12.94
-8.27
-3.38
1.21
4.90
7.19
7.92
7.35
6.01
4.50
3.33
2.69
2.55
2.73
3.07
3.48
3.93
4.40
4.83
5.13
5.19
4.97
4.46
3.69
2.70
1.47
-0.03
-1.80
-3.75
-5.69
-7.38
-8.61
-9.30
-9.52
-9.35
-8.85
-7.97
-6.57
-4.52
-1.87
1.13
4.05
6.43
7.96
8.62
8.61
8.24
7.81
7.47
7.22
6.99
6.70
6.30
5.78
5.10
4.24
3.24
2.18
1.23
0.55
0.22
0.12
-0.04
-0.59
-1.79
-3.66
-5.98
-8.24
-9.89
-10.47
-9.75
-7.83
-5.07
-1.93
1.16
3.99
6.51
8.76
10.73
12.30
13.29
13.53
12.99
11.77
10.05
8.05
5.98
4.01
2.34
1.08
0.25
-0.23
-0.56
-0.92
-1.43
-2.05
-2.70
-3.27
-3.74
-4.13
-4.53
-5.01
-5.66
-6.50
-7.52
-8.62
-9.58
-10.09
-9.85
-8.67
-6.58
-3.83
-0.82
2.07
4.54
6.49
7.94
8.92
9.49
9.64
9.37
8.71
7.80
6.83
6.02
5.54
5.41
5.55
5.78
5.86
5.64
5.01
3.99
2.64
1.02
-0.78
-2.67
-4.54
-6.24
-7.67
-8.79
-9.65
-10.38
-11.10
-11.82
-12.36
-12.45
-11.80
-10.25
-7.86
-4.94
-1.86
0.99
3.38
5.25
6.61
7.50
7.91
7.84
7.27
6.34
5.27
4.32
3.66
3.32
3.18
3.00
2.60
1.86
0.84
-0.33
-1.49
-2.47
-3.21
-3.72
-4.09
-4.42
-4.84
-5.41
-6.18
-7.13
-8.27
-9.55
-10.86
-11.98
-12.61
-12.43
-11.20
-8.93
-5.84
-2.34
1.17
4.35
7.02
9.09
10.49
11.14
11.00
10.15
8.82
7.38
6.26
5.73
5.83
6.35
6.88
7.03
6.59
5.63
4.38
3.16
2.17
1.43
0.81
0.15
-0.71
-1.84
-3.23
-4.81
-6.45
-7.98
-9.15
-9.73
-9.53
-8.44
-6.50
-3.83
-0.64
2.81
6.16
9.00
10.94
11.75
11.42
10.20
8.53
6.80
5.32
4.16
3.28
2.55
1.92
1.34
0.82
0.32
-0.18
-0.71
-1.28
-1.82
-2.27
-2.61
-2.93
-3.36
-4.09
-5.20
-6.64
-8.19
-9.53
-10.27
-10.14
-9.01
-6.96
-4.19
-1.02
2.26
5.37
8.07
10.17
11.55
12.17
12.11
11.57
10.76
9.84
8.93
8.06
7.23
6.48
5.84
5.30
4.80
4.21
3.43
2.46
1.41
0.47
-0.25
-0.79
-1.38
-2.28
-3.61
-5.29
-6.95
-8.15
-8.50
-7.81
-6.15
-3.75
-0.95
1.95
4.69
7.06
8.92
10.14
10.71
10.67
10.18
9.42
8.56
7.73
7.01
6.39
5.85
5.34
4.78
4.09
3.21
2.16
1.02
-0.04
-0.86
-1.37
-1.67
-1.98
-2.56
-3.59
-5.08
-6.85
-8.61
-10.01
-10.75
-10.57
-9.40
-7.28
-4.43
-1.21
1.97
4.75
6.90
8.36
9.19
9.47
9.32
8.81
8.04
7.16
6.33
5.69
5.28
5.06
4.84
4.48
3.88
3.09
2.26
1.57
1.09
0.78
0.46
-0.07
-0.92
-2.09
-3.43
-4.74
-5.80
-6.44
-6.61
-6.27
-5.46
-4.22
-2.61
-0.69
1.45
3.67
5.76
7.48
8.61
9.03
8.75
7.94
6.82
5.63
4.51
3.54
2.75
2.13
1.65
1.28
0.94
0.56
0.10
-0.37
-0.79
-1.11
-1.35
-1.63
-2.08
-2.78
-3.76
-4.97
-6.31
-7.64
-8.79
-9.56
-9.76
-9.24
-7.98
-6.14
-3.98
-1.80
0.17
1.80
3.05
3.88
4.28
4.22
3.76
3.02
2.21
1.53
1.12
0.99
1.05
1.12
1.05
0.75
0.22
-0.46
-1.16
-1.77
-2.21
-2.53
-2.80
-3.20
-3.82
-4.73
-5.89
-7.17
-8.36
-9.25
-9.62
-9.33
-8.32
-6.65
-4.50
-2.12
0.21
2.28
3.98
5.25
6.07
6.45
6.38
5.87
5.00
3.93
2.85
1.97
1.41
1.19
1.21
1.34
1.42
1.37
1.12
0.64
-0.10
-1.07
-2.24
-3.50
-4.72
-5.79
-6.66
-7.38
-8.01
-8.64
-9.26
-9.84
-10.26
-10.43
-10.26
-9.71
-8.75
-7.43
-5.85
-4.16
-2.54
-1.16
-0.13
0.51
0.73
0.51
-0.14
-1.15
-2.36
-3.57
-4.52
-5.06
-5.18
-5.02
-4.81
-4.77
-5.00
-5.43
-5.90
-6.25
-6.38
-6.34
-6.21
-6.10
-6.04
-6.01
-5.95
-5.81
-5.56
-5.18
-4.68
-4.02
-3.12
-1.92
-0.38
1.43
3.35
5.14
6.58
7.49
7.83
7.67
7.16
6.41
5.52
4.55
3.57
2.68
2.03
1.72
1.76
2.04
2.37
2.55
2.45
2.04
1.34
0.43
-0.63
-1.75
-2.82
-3.73
-4.37
-4.67
-4.66
-4.41
-3.99
-3.43
-2.68
-1.73
-0.57
0.73
2.08
3.38
4.58
5.70
6.72
7.62
8.32
8.65
8.50
7.78
6.54
4.93
3.18
1.53
0.17
-0.81
-1.39
-1.63
-1.66
-1.61
-1.60
-1.75
-2.13
-2.76
-3.58
-4.48
-5.31
-6.00
-6.52
-6.96
-7.48
-8.20
-9.17
-10.30
-11.34
-11.95
-11.78
-10.60
-8.35
-5.20
-1.48
2.35
5.81
8.50
10.17
10.83
10.64
9.89
8.89
7.85
6.90
6.07
5.35
4.67
3.93
2.99
1.72
0.11
-1.64
-3.18
-4.12
-4.23
-3.55
-2.38
-1.14
-0.19
0.31
0.35
0.03
-0.58
-1.40
-2.34
-3.22
-3.76
-3.66
-2.72
-0.93
1.51
4.25
6.92
9.23
11.05
12.34
13.14
13.52
13.51
13.19
12.63
11.94
11.18
10.35
9.39
8.28
6.99
5.60
4.20
2.88
1.63
0.34
-1.10
-2.75
-4.54
-6.26
-7.64
-8.48
-8.77
-8.67
-8.52
-8.71
-9.51
-10.96
-12.79
-14.47
-15.34
-14.84
-12.71
-9.14
-4.72
-0.24
3.57
6.30
7.90
8.58
8.62
8.17
7.26
5.90
4.29
2.79
1.88
1.87
2.77
4.29
5.97
7.39
8.33
8.80
8.89
8.71
8.32
7.68
6.82
5.78
4.62
3.40
2.14
0.82
-0.52
-1.78
-2.73
-3.17
-2.92
-1.96
-0.35
1.74
4.11
6.54
8.80
10.66
11.83
12.11
11.39
9.79
7.63
5.36
3.48
2.32
1.96
2.19
2.62
2.81
2.45
1.50
0.15
-1.29
-2.58
-3.60
-4.44
-5.21
-6.04
-6.91
-7.77
-8.53
-9.20
-9.82
-10.41
-10.90
-11.10
-10.80
-9.83
-8.17
-5.95
-3.42
-0.84
1.58
3.68
5.34
6.45
6.91
6.71
5.91
4.71
3.39
2.20
1.33
0.84
0.67
0.70
0.81
0.87
0.78
0.45
-0.17
-1.07
-2.14
-3.22
-4.17
-4.90
-5.44
-5.88
-6.35
-6.99
-7.86
-8.94
-10.11
-11.17
-11.86
-11.93
-11.23
-9.79
-7.78
-5.51
-3.33
-1.51
-0.23
0.52
0.90
1.17
1.64
2.42
3.36
4.05
3.97
2.67
-0.03
-4.08
-9.25
-15.21
-21.62
-28.04
-33.91
-38.56
-41.43
-42.15
-40.70
-37.26
-32.07
-25.29
-17.02
-7.47
2.88
13.27
22.82
30.80
36.86
40.99
43.47
44.60
44.62
43.70
42.05
40.01
37.97
36.28
35.06
34.14
33.10
31.44
28.85
25.29
21.03
16.49
12.08
8.05
4.50
1.43
-1.16
-3.29
-4.97
-6.29
-7.43
-8.64
-10.15
-12.15
-14.69
-17.71
-21.06
-24.55
-27.94
-30.95
-33.15
-34.05
-33.11
-29.96
-24.62
-17.54
-9.57
-1.68
5.25
10.69
14.44
16.61
17.40
17.07
15.92
14.31
12.64
11.18
10.01
8.94
7.60
5.70
3.11
-0.07
-3.67
-7.46
-11.24
-14.75
-17.59
-19.28
-19.42
-17.96
-15.25
-12.02
-9.02
-6.81
-5.53
-5.02
-5.06
-5.55
-6.55
-8.17
-10.35
-12.78
-14.95
-16.36
-16.70
-15.96
-14.40
-12.41
-10.28
-8.22
-6.26
-4.39
-2.62
-1.02
0.28
1.15
1.57
1.64
1.56
1.56
1.81
2.34
3.08
3.82
4.37
4.58
4.43
3.97
3.33
2.67
2.09
1.64
1.30
0.98
0.60
0.05
-0.69
-1.64
-2.72
-3.80
-4.70
-5.22
-5.17
-4.46
-3.08
-1.17
1.03
3.20
4.98
6.05
6.24
5.58
4.28
2.68
1.18
0.08
-0.50
-0.60
-0.39
-0.10
0.08
-0.01
-0.42
-1.16
-2.17
-3.31
-4.41
-5.32
-5.97
-6.41
-6.83
-7.43
-8.36
-9.66
-11.27
-13.03
-14.80
-16.40
-17.70
-18.49
-18.56
-17.72
-15.94
-13.36
-10.28
-7.10
-4.12
-1.47
0.89
3.05
5.07
6.86
8.29
9.24
9.73
9.90
9.98
10.20
10.66
11.33
12.02
12.53
12.69
12.41
11.70
10.69
9.50
8.25
7.00
5.74
4.45
3.11
1.71
0.25
-1.25
-2.78
-4.23
-5.44
-6.14
-6.02
-4.88
-2.70
0.34
3.85
7.37
10.47
12.82
14.22
14.60
14.02
12.63
10.72
8.59
6.57
4.87
3.60
2.75
2.21
1.87
1.57
1.22
0.72
0.04
-0.78
-1.64
-2.39
-2.93
-3.25
-3.45
-3.72
-4.26
-5.18
-6.43
-7.83
-9.07
-9.80
-9.75
-8.80
-7.03
-4.65
-2.00
0.58
2.82
4.55
5.74
6.39
6.53
6.14
5.25
3.92
2.37
0.85
-0.37
-1.13
-1.48
-1.59
-1.70
-1.99
-2.49
-3.13
-3.79
-4.37
-4.84
-5.19
-5.46
-5.70
-5.99
-6.41
-7.06
-7.96
-8.99
-9.89
-10.32
-9.98
-8.74
-6.66
-3.95
-0.87
2.32
5.48
8.45
11.08
13.19
14.57
15.13
14.94
14.22
13.27
12.33
11.50
10.78
10.11
9.41
8.68
7.92
7.13
6.29
5.38
4.43
3.53
2.79
2.28
1.93
1.60
1.14
0.46
-0.38
-1.20
-1.71
-1.63
-0.73
1.09
3.77
7.08
10.64
14.02
16.80
18.72
19.72
19.89
19.43
18.59
17.57
16.59
15.84
15.44
15.36
15.39
15.25
14.66
13.64
12.50
11.73
11.73
12.56
13.88
15.05
15.48
14.84
13.11
10.53
7.35
3.74
-0.15
-4.12
-7.89
-11.06
-13.35
-14.67
-15.16
-15.12
-14.90
-14.75
-14.83
-15.14
-15.58
-15.98
-16.19
-16.08
-15.68
-15.08
-14.47
-13.96
-13.57
-13.17
-12.56
-11.56
-10.11
-8.31
-6.32
-4.36
-2.61
-1.14
-0.01
0.77
1.21
1.35
1.24
0.95
0.56
0.17
-0.08
-0.07
0.30
1.08
2.24
3.65
5.08
6.27
7.00
7.16
6.81
6.08
5.16
4.19
3.28
2.45
1.72
1.14
0.79
0.70
0.86
1.19
1.54
1.81
1.95
1.95
1.83
1.62
1.28
0.77
0.04
-0.92
-2.05
-3.29
-4.53
-5.70
-6.74
-7.59
-8.18
-8.42
-8.16
-7.34
-5.94
-4.12
-2.11
-0.24
1.26
2.29
2.87
3.16
3.30
3.38
3.40
3.35
3.26
3.20
3.28
3.60
4.15
4.80
5.33
5.53
5.25
4.47
3.35
2.07
0.82
-0.31
-1.36
-2.39
-3.48
-4.63
-5.79
-6.86
-7.74
-8.38
-8.71
-8.68
-8.25
-7.41
-6.22
-4.81
-3.40
-2.15
-1.20
-0.55
-0.14
0.12
0.28
0.32
0.23
0.00
-0.32
-0.65
-0.90
-1.04
-1.11
-1.22
-1.46
-1.83
-2.31
-2.80
-3.25
-3.65
-4.02
-4.35
-4.66
-4.98
-5.35
-5.91
-6.76
-7.96
-9.46
-11.09
-12.62
-13.83
-14.55
-14.73
-14.37
-13.54
-12.30
-10.68
-8.68
-6.27
-3.50
-0.51
2.43
4.95
6.75
7.74
8.03
7.98
8.00
8.42
9.40
10.94
12.94
15.26
17.73
20.16
22.28
23.83
24.56
24.39
23.41
21.84
19.89
17.74
15.38
12.71
9.66
6.23
2.58
-1.00
-4.21
-6.74
-8.46
-9.31
-9.37
-8.82
-7.88
-6.83
-5.98
-5.64
-5.96
-6.92
-8.26
-9.62
-10.62
-11.02
-10.81
-10.11
-9.14
-8.04
-6.88
-5.65
-4.32
-2.98
-1.74
-0.81
-0.28
-0.16
-0.32
-0.53
-0.63
-0.51
-0.23
0.00
-0.04
-0.60
-1.77
-3.50
-5.53
-7.53
-9.10
-9.96
-10.02
-9.40
-8.38
-7.29
-6.33
-5.54
-4.80
-3.93
-2.79
-1.34
0.34
2.10
3.76
5.15
6.15
6.64
6.59
6.09
5.32
4.58
4.20
4.48
5.63
7.66
10.37
13.39
16.25
18.48
19.79
20.03
19.30
17.78
15.70
13.27
10.60
7.81
4.92
1.95
-1.17
-4.46
-7.90
-11.31
-14.28
-16.29
-16.83
-15.66
-12.91
-9.13
-5.08
-1.50
1.10
2.55
2.98
2.70
2.01
1.15
0.29
-0.45
-0.91
-0.98
-0.60
0.16
1.13
2.06
2.76
3.11
3.10
2.79
2.27
1.59
0.79
-0.06
-0.92
-1.77
-2.64
-3.58
-4.63
-5.79
-7.01
-8.15
-9.08
-9.68
-9.82
-9.36
-8.19
-6.21
-3.45
-0.10
3.49
6.91
9.83
12.03
13.51
14.36
14.74
14.74
14.43
13.83
12.99
12.03
11.06
10.21
9.53
9.03
8.65
8.34
8.02
7.62
7.04
6.22
5.14
3.86
2.50
1.19
-0.02
-1.16
-2.33
-3.64
-5.11
-6.64
-8.03
-8.99
-9.29
-8.79
-7.48
-5.50
-3.09
-0.50
2.02
4.29
6.22
7.75
8.83
9.43
9.51
9.08
8.19
6.98
5.63
4.37
3.36
2.66
2.20
1.80
1.30
0.65
-0.09
-0.77
-1.25
-1.54
-1.76
-2.10
-2.74
-3.75
-5.08
-6.59
-8.15
-9.64
-10.95
-11.93
-12.39
-12.14
-11.10
-9.29
-6.90
-4.21
-1.49
1.03
3.24
5.06
6.48
7.46
7.96
7.98
7.59
6.90
6.06
5.18
4.33
3.50
2.64
1.70
0.68
-0.38
-1.42
-2.39
-3.26
-4.00
-4.60
-5.01
-5.23
-5.31
-5.32
-5.42
-5.75
-6.36
-7.19
-8.04
-8.64
-8.72
-8.13
-6.86
-5.05
-2.93
-0.73
1.31
3.03
4.28
4.95
5.03
4.60
3.86
3.05
2.33
1.81
1.48
1.27
1.17
1.13
1.14
1.14
1.00
0.64
-0.02
-0.91
-1.92
-2.86
-3.62
-4.17
-4.58
-5.03
-5.66
-6.57
-7.68
-8.79
-9.62
-9.90
-9.47
-8.29
-6.47
-4.18
-1.64
0.89
3.21
5.09
6.41
7.11
7.25
6.98
6.49
5.98
5.60
5.40
5.35
5.30
5.11
4.64
3.89
2.97
2.04
1.25
0.63
0.09
-0.52
-1.30
-2.25
-3.31
-4.39
-5.44
-6.46
-7.40
-8.17
-8.59
-8.46
-7.71
-6.43
-4.82
-3.18
-1.71
-0.49
0.53
1.39
2.09
2.54
2.61
2.23
1.44
0.43
-0.54
-1.26
-1.62
-1.68
-1.58
-1.48
-1.48
-1.61
-1.86
-2.23
-2.73
-3.42
-4.33
-5.45
-6.70
-7.96
-9.13
-10.16
-11.04
-11.77
-12.27
-12.38
-11.89
-10.63
-8.60
-5.96
-3.03
-0.17
2.37
4.45
6.06
7.23
7.93
8.11
7.73
6.85
5.65
4.41
3.40
2.75
2.44
2.31
2.16
1.86
1.41
0.89
0.39
0.01
-0.28
-0.56
-0.93
-1.50
-2.33
-3.42
-4.74
-6.17
-7.59
-8.79
-9.55
-9.66
-8.97
-7.45
-5.16
-2.32
0.79
3.85
6.58
8.79
10.40
11.43
11.94
12.03
11.79
11.29
10.66
9.99
9.39
8.92
8.51
8.06
7.50
6.77
5.93
5.05
4.16
3.25
2.25
1.15
-0.04
-1.28
-2.53
-3.84
-5.27
-6.87
-8.58
-10.20
-11.44
-12.00
-11.67
-10.40
-8.26
-5.44
-2.21
1.11
4.20
6.81
8.73
9.87
10.26
9.98
9.21
8.10
6.88
5.73
4.81
4.18
3.81
3.54
3.18
2.58
1.67
0.50
-0.78
-2.05
-3.20
-4.23
-5.17
-6.06
-6.91
-7.69
-8.39
-8.98
-9.51
-9.98
-10.35
-10.49
-10.23
-9.42
-8.00
-6.06
-3.75
-1.31
1.07
3.23
5.06
6.47
7.36
7.69
7.47
6.84
6.03
5.28
4.80
4.65
4.74
4.87
4.85
4.55
3.99
3.32
2.69
2.22
1.92
1.70
1.42
0.95
0.19
-0.93
-2.40
-4.17
-6.09
-7.92
-9.37
-10.12
-9.98
-8.90
-6.96
-4.39
-1.45
1.56
4.37
6.75
8.51
9.57
9.99
9.90
9.46
8.79
7.98
7.06
6.09
5.20
4.48
4.02
3.82
3.75
3.67
3.48
3.16
2.81
2.54
2.46
2.56
2.74
2.82
2.58
1.85
0.55
-1.27
-3.37
-5.41
-7.03
-7.92
-7.95
-7.17
-5.76
-4.00
-2.16
-0.50
0.81
1.65
1.95
1.74
1.12
0.24
-0.69
-1.50
-2.06
-2.36
-2.45
-2.45
-2.42
-2.41
-2.39
-2.34
-2.22
-2.08
-2.02
-2.15
-2.54
-3.18
-4.00
-4.91
-5.81
-6.71
-7.63
-8.61
-9.63
-10.59
-11.29
-11.52
-11.10
-9.96
-8.14
-5.81
-3.16
-0.42
2.19
4.47
6.25
7.45
8.09
8.22
7.96
7.42
6.68
5.83
4.96
4.18
3.55
3.10
2.79
2.54
2.26
1.92
1.55
1.17
0.76
0.29
-0.34
-1.18
-2.20
-3.33
-4.50
-5.63
-6.68
-7.62
-8.36
-8.77
-8.64
-7.86
-6.41
-4.48
-2.35
-0.32
1.40
2.75
3.77
4.54
5.12
5.47
5.55
5.31
4.77
3.96
2.96
1.84
0.69
-0.37
-1.19
-1.60
-1.52
-0.97
-0.15
0.69
1.30
1.55
1.47
1.16
0.75
0.31
-0.20
-0.85
-1.70
-2.69
-3.63
-4.29
-4.45
-3.99
-2.91
-1.31
0.63
2.72
4.74
6.44
7.64
8.21
8.15
7.58
6.71
5.75
4.88
4.15
3.56
3.04
2.54
2.06
1.62
1.23
0.89
0.57
0.19
-0.32
-0.98
-1.72
-2.44
-2.97
-3.23
-3.24
-3.12
-3.00
-2.93
-2.82
-2.44
-1.56
-0.10
1.84
4.02
6.13
7.97
9.48
10.67
11.58
12.16
12.33
12.02
11.23
10.02
8.50
6.77
4.92
3.03
1.22
-0.35
-1.51
-2.13
-2.18
-1.74
-0.99
-0.14
0.57
0.97
0.97
0.57
-0.14
-1.07
-2.15
-3.35
-4.63
-5.86
-6.82
-7.26
-7.00
-6.04
-4.60
-2.98
-1.46
-0.20
0.81
1.61
2.23
2.63
2.77
2.59
2.11
1.39
0.49
-0.50
-1.47
-2.24
-2.61
-2.46
-1.83
-0.96
-0.19
0.20
0.12
-0.30
-0.79
-1.18
-1.49
-1.98
-3.01
-4.82
-7.37
-10.31
-13.10
-15.23
-16.36
-16.38
-15.40
-13.61
-11.24
-8.52
-5.67
-2.91
-0.45
1.58
3.10
4.13
4.74
5.03
5.12
5.12
5.13
5.21
5.38
5.60
5.81
5.95
5.99
5.93
5.78
5.50
5.07
4.44
3.63
2.65
1.56
0.36
-0.90
-2.15
-3.27
-4.08
-4.45
-4.34
-3.82
-3.00
-2.02
-0.95
0.14
1.17
2.00
2.51
2.66
2.55
2.44
2.54
2.94
3.50
3.94
4.02
3.69
3.13
2.61
2.33
2.29
2.30
2.11
1.64
0.95
0.25
-0.27
-0.60
-0.90
-1.46
-2.47
-3.92
-5.59
-7.12
-8.14
-8.43
-7.92
-6.72
-5.04
-3.14
-1.20
0.61
2.26
3.70
4.94
5.92
6.54
6.73
6.46
5.83
5.04
4.35
3.92
3.80
3.87
3.98
3.96
3.78
3.44
3.01
2.48
1.80
0.90
-0.21
-1.45
-2.68
-3.75
-4.59
-5.19
-5.57
-5.74
-5.62
-5.11
-4.11
-2.60
-0.65
1.58
3.93
6.20
8.23
9.88
11.02
11.56
11.45
10.71
9.42
7.69
5.68
3.57
1.56
-0.15
-1.40
-2.16
-2.49
-2.58
-2.62
-2.77
-3.09
-3.50
-3.91
-4.22
-4.43
-4.61
-4.86
-5.29
-5.91
-6.68
-7.47
-8.12
-8.44
-8.31
-7.64
-6.44
-4.82
-2.92
-0.95
0.92
2.48
3.62
4.29
4.53
4.46
4.18
3.75
3.18
2.51
1.78
1.11
0.71
0.73
1.21
2.09
3.20
4.37
5.48
6.48
7.33
7.94
8.23
8.08
7.50
6.61
5.61
4.69
3.96
3.38
2.88
2.38
1.93
1.62
1.57
1.77
2.14
2.50
2.71
2.69
2.50
2.24
1.97
1.72
1.44
1.08
0.62
0.10
-0.41
-0.80
-1.00
-0.96
-0.70
-0.30
0.11
0.40
0.46
0.24
-0.22
-0.90
-1.75
-2.77
-4.00
-5.49
-7.23
-9.14
-11.13
-13.04
-14.70
-15.94
-16.56
-16.44
-15.52
-13.90
-11.75
-9.37
-7.02
-4.90
-3.16
-1.82
-0.86
-0.18
0.30
0.62
0.82
0.91
0.93
0.97
1.18
1.67
2.44
3.37
4.21
4.74
4.84
4.56
4.07
3.55
3.15
2.88
2.69
2.47
2.12
1.56
0.75
-0.31
-1.57
-2.85
-3.90
-4.49
-4.44
-3.79
-2.73
-1.55
-0.51
0.23
0.67
0.84
0.75
0.36
-0.38
-1.46
-2.71
-3.90
-4.80
-5.30
-5.47
-5.45
-5.42
-5.46
-5.53
-5.54
-5.41
-5.14
-4.77
-4.41
-4.09
-3.87
-3.74
-3.69
-3.71
-3.84
-4.13
-4.65
-5.42
-6.40
-7.43
-8.23
-8.53
-8.10
-6.86
-4.91
-2.45
0.28
3.06
5.71
8.07
9.98
11.31
12.01
12.14
11.89
11.53
11.29
11.27
11.40
11.52
11.48
11.23
10.85
10.43
10.02
9.57
8.86
7.68
5.90
3.57
0.89
-1.84
-4.39
-6.64
-8.59
-10.27
-11.74
-12.98
-13.91
-14.43
-14.42
-13.79
-12.48
-10.52
-8.02
-5.17
-2.24
0.52
2.90
4.76
6.07
6.90
7.35
7.54
7.58
7.54
7.42
7.20
6.88
6.47
6.02
5.60
5.27
5.02
4.81
4.56
4.18
3.59
2.76
1.67
0.34
-1.20
-2.90
-4.73
-6.61
-8.52
-10.38
-12.12
-13.60
-14.62
-14.98
-14.51
-13.17
-11.13
-8.64
-6.05
-3.61
-1.45
0.41
1.97
3.22
4.11
4.57
4.61
4.32
3.85
3.37
3.02
2.83
2.80
2.90
3.09
3.33
3.60
3.84
4.03
4.14
4.14
4.00
3.62
2.92
1.83
0.36
-1.40
-3.33
-5.27
-7.09
-8.64
-9.81
-10.46
-10.50
-9.86
-8.60
-6.88
-4.90
-2.87
-0.92
0.85
2.43
3.79
4.88
5.61
5.91
5.72
5.08
4.12
3.06
2.17
1.63
1.55
1.91
2.56
3.31
3.95
4.29
4.21
3.72
2.93
2.04
1.25
0.67
0.27
-0.11
-0.67
-1.56
-2.82
-4.33
-5.85
-7.08
-7.71
-7.52
-6.42
-4.49
-2.01
0.67
3.16
5.20
6.68
7.63
8.14
8.24
7.93
7.20
6.10
4.76
3.43
2.31
1.52
1.06
0.79
0.55
0.23
-0.17
-0.59
-0.96
-1.21
-1.37
-1.46
-1.56
-1.69
-1.91
-2.25
-2.73
-3.39
-4.21
-5.14
-6.03
-6.70
-6.96
-6.64
-5.66
-4.04
-1.89
0.62
3.26
5.83
8.11
9.92
11.13
11.68
11.57
10.91
9.87
8.67
7.55
6.69
6.17
5.95
5.82
5.54
4.92
3.87
2.48
0.91
-0.62
-1.94
-2.99
-3.79
-4.46
-5.16
-6.06
-7.31
-8.94
-10.81
-12.56
-13.75
-13.93
-12.80
-10.35
-6.84
-2.74
1.43
5.19
8.24
10.42
11.74
12.30
12.24
11.65
10.63
9.29
7.75
6.24
4.92
3.91
3.22
2.75
2.38
2.01
1.65
1.26
0.82
0.22
-0.68
-1.89
-3.34
-4.81
-6.10
-7.07
-7.75
-8.29
-8.82
-9.37
-9.84
-10.01
-9.67
-8.69
-7.05
-4.87
-2.29
0.51
3.36
6.11
8.57
10.55
11.86
12.40
12.15
11.23
9.84
8.20
6.51
4.91
3.49
2.27
1.26
0.42
-0.29
-0.94
-1.57
-2.20
-2.81
-3.39
-3.95
-4.52
-5.14
-5.85
-6.67
-7.64
-8.82
-10.27
-11.97
-13.72
-15.16
-15.87
-15.54
-14.14
-11.93
-9.35
-6.81
-4.57
-2.63
-0.87
0.84
2.54
4.14
5.53
6.58
7.27
7.68
7.92
8.07
8.16
8.12
7.83
7.26
6.43
5.49
4.66
4.11
3.89
3.91
3.98
3.87
3.47
2.72
1.71
0.54
-0.72
-2.04
-3.36
-4.56
-5.39
-5.52
-4.67
-2.70
0.20
3.63
7.03
9.92
12.00
13.21
13.70
13.67
13.30
12.71
11.95
11.07
10.14
9.24
8.43
7.75
7.21
6.75
6.31
5.86
5.36
4.76
4.02
3.10
2.02
0.86
-0.25
-1.15
-1.80
-2.31
-2.90
-3.84
-5.31
-7.28
-9.50
-11.55
-12.97
-13.40
-12.68
-10.84
-8.17
-5.03
-1.86
0.93
3.06
4.39
4.89
4.68
3.92
2.85
1.70
0.73
0.13
-0.02
0.25
0.76
1.26
1.52
1.40
0.86
0.01
-1.00
-1.99
-2.85
-3.53
-4.05
-4.47
-4.87
-5.30
-5.78
-6.34
-7.00
-7.77
-8.64
-9.49
-10.11
-10.25
-9.70
-8.37
-6.35
-3.89
-1.31
1.10
3.17
4.83
6.10
6.97
7.43
7.44
7.04
6.33
5.45
4.59
3.85
3.26
2.75
2.20
1.54
0.74
-0.18
-1.16
-2.16
-3.21
-4.35
-5.65
-7.12
-8.70
-10.25
-11.60
-12.61
-13.24
-13.56
-13.59
-13.30
-12.48
-10.84
-8.19
-4.53
-0.15
4.49
8.90
12.77
15.95
18.40
20.12
21.06
21.22
20.71
19.74
18.65
17.66
16.86
16.14
15.34
14.31
13.01
11.47
9.78
7.98
6.09
4.14
2.15
0.21
-1.61
-3.27
-4.79
-6.25
-7.75
-9.35
-11.01
-12.59
-13.85
-14.51
-14.34
-13.33
-11.64
-9.55
-7.36
-5.25
-3.27
-1.44
0.16
1.39
2.02
1.94
1.22
0.12
-0.99
-1.75
-2.02
-1.79
-1.15
-0.22
0.90
2.13
3.31
4.25
4.76
4.75
4.22
3.32
2.22
1.05
-0.18
-1.56
-3.17
-5.03
-6.98
-8.75
-9.98
-10.40
-9.88
-8.52
-6.55
-4.26
-1.93
0.29
2.37
4.35
6.29
8.16
9.83
11.09
11.70
11.49
10.52
9.02
7.34
5.88
4.86
4.34
4.19
4.18
4.10
3.82
3.29
2.50
1.45
0.07
-1.67
-3.78
-6.19
-8.74
-11.23
-13.42
-15.10
-16.09
-16.28
-15.61
-14.15
-12.01
-9.44
-6.70
-4.08
-1.83
-0.12
0.96
1.42
1.39
1.07
0.68
0.37
0.25
0.31
0.52
0.81
1.12
1.38
1.50
1.38
0.95
0.23
-0.68
-1.62
-2.45
-3.12
-3.68
-4.27
-5.04
-6.08
-7.37
-8.79
-10.04
-10.79
-10.74
-9.72
-7.81
-5.28
-2.52
0.11
2.41
4.30
5.83
7.03
7.88
8.28
8.15
7.52
6.53
5.44
4.48
3.81
3.44
3.31
3.28
3.25
3.13
2.90
2.50
1.88
1.02
-0.06
-1.23
-2.37
-3.39
-4.27
-5.07
-5.89
-6.77
-7.65
-8.34
-8.62
-8.30
-7.32
-5.72
-3.70
-1.45
0.82
2.96
4.86
6.43
7.60
8.28
8.46
8.18
7.60
6.90
6.26
5.79
5.46
5.20
4.90
4.50
4.03
3.55
3.17
2.92
2.76
2.58
2.22
1.61
0.68
-0.54
-1.98
-3.59
-5.26
-6.87
-8.25
-9.22
-9.60
-9.30
-8.31
-6.72
-4.67
-2.37
0.01
2.27
4.28
5.89
7.02
7.60
7.66
7.31
6.73
6.08
5.50
5.01
4.57
4.06
3.44
2.69
1.87
1.08
0.36
-0.28
-0.88
-1.44
-1.96
-2.41
-2.80
-3.19
-3.71
-4.50
-5.62
-7.00
-8.45
-9.69
-10.41
-10.39
-9.52
-7.82
-5.49
-2.81
-0.11
2.33
4.33
5.81
6.76
7.25
7.32
7.04
6.53
5.90
5.30
4.85
4.60
4.51
4.45
4.29
3.91
3.30
2.53
1.73
1.06
0.60
0.34
0.18
-0.01
-0.38
-1.03
-2.02
-3.34
-4.94
-6.67
-8.27
-9.50
-10.12
-10.01
-9.15
-7.65
-5.66
-3.35
-0.92
1.44
3.48
5.01
5.89
6.13
5.88
5.37
4.84
4.44
4.23
4.20
4.28
4.44
4.64
4.87
5.06
5.09
4.80
4.10
2.98
1.61
0.20
-1.03
-1.96
-2.66
-3.25
-3.90
-4.73
-5.75
-6.89
-8.00
-8.92
-9.48
-9.51
-8.91
-7.66
-5.84
-3.61
-1.21
1.12
3.16
4.74
5.77
6.29
6.39
6.22
5.91
5.55
5.19
4.83
4.51
4.26
4.14
4.11
4.13
4.06
3.82
3.33
2.64
1.83
0.99
0.23
-0.42
-0.98
-1.51
-2.11
-2.89
-3.89
-5.10
-6.40
-7.62
-8.55
-8.99
-8.82
-7.99
-6.57
-4.69
-2.54
-0.33
1.74
3.53
4.94
5.91
6.44
6.56
6.33
5.84
5.22
4.61
4.14
3.89
3.87
4.01
4.18
4.26
4.15
3.85
3.43
2.98
2.57
2.19
1.76
1.18
0.40
-0.53
-1.54
-2.56
-3.61
-4.76
-6.09
-7.50
-8.77
-9.56
-9.60
-8.81
-7.35
-5.53
-3.63
-1.82
-0.14
1.43
2.83
3.97
4.72
5.02
4.91
4.56
4.16
3.86
3.74
3.80
3.99
4.24
4.46
4.58
4.56
4.38
4.05
3.57
2.94
2.16
1.25
0.24
-0.74
-1.58
-2.18
-2.55
-2.77
-3.07
-3.68
-4.78
-6.37
-8.27
-10.11
-11.51
-12.20
-12.09
-11.31
-10.08
-8.64
-7.16
-5.76
-4.53
-3.56
-2.92
-2.65
-2.63
-2.68
-2.60
-2.21
-1.48
-0.48
0.66
1.82
2.89
3.77
4.37
4.63
4.53
4.11
3.48
2.78
2.11
1.48
0.82
0.05
-0.91
-2.07
-3.39
-4.76
-6.08
-7.21
-8.02
-8.41
-8.32
-7.83
-7.08
-6.28
-5.59
-5.04
-4.57
-4.01
-3.21
-2.10
-0.73
0.84
2.56
4.40
6.38
8.43
10.37
11.98
13.10
13.70
13.94
14.05
14.23
14.47
14.61
14.41
13.69
12.41
10.69
8.70
6.57
4.37
2.10
-0.25
-2.66
-5.04
-7.24
-9.12
-10.52
-11.40
-11.73
-11.61
-11.15
-10.49
-9.68
-8.74
-7.56
-6.06
-4.19
-2.03
0.27
2.48
4.42
6.00
7.21
8.07
8.63
8.90
8.92
8.79
8.62
8.55
8.62
8.74
8.70
8.24
7.21
5.63
3.66
1.56
-0.45
-2.30
-4.02
-5.69
-7.36
-9.00
-10.51
-11.77
-12.66
-13.13
-13.14
-12.68
-11.81
-10.58
-9.14
-7.66
-6.31
-5.23
-4.44
-3.92
-3.57
-3.31
-3.10
-2.96
-2.96
-3.17
-3.61
-4.18
-4.74
-5.12
-5.21
-5.01
-4.60
-4.12
-3.72
-3.50
-3.54
-3.87
-4.48
-5.32
-6.29
-7.24
-8.05
-8.64
-9.02
-9.23
-9.29
-9.17
-8.78
-8.03
-6.90
-5.44
-3.73
-1.82
0.23
2.37
4.45
6.23
7.45
7.89
7.55
6.63
5.49
4.49
3.88
3.75
4.00
4.42
4.85
5.16
5.30
5.29
5.19
5.06
4.95
4.87
4.82
4.73
4.51
4.01
3.08
1.66
-0.22
-2.36
-4.41
-6.00
-6.83
-6.76
-5.79
-4.12
-2.03
0.20
2.29
4.00
5.21
5.86
6.00
5.78
5.45
5.24
5.39
6.00
7.08
8.52
10.16
11.79
13.27
14.49
15.40
16.00
16.27
16.22
15.85
15.18
14.26
13.15
11.94
10.70
9.49
8.39
7.45
6.73
6.29
6.16
6.33
6.72
7.24
7.75
8.12
8.24
7.99
7.28
6.08
4.39
2.32
0.02
-2.29
-4.42
-6.24
-7.70
-8.84
-9.75
-10.56
-11.36
-12.19
-13.05
-13.89
-14.65
-15.26
-15.75
-16.18
-16.65
-17.22
-17.83
-18.32
-18.44
-18.02
-17.03
-15.57
-13.89
-12.21
-10.69
-9.38
-8.18
-6.95
-5.57
-3.95
-2.12
-0.15
1.81
3.58
4.97
5.83
6.10
5.81
5.13
4.28
3.54
3.13
3.17
3.67
4.46
5.26
5.70
5.49
4.45
2.65
0.41
-1.81
-3.46
-4.11
-3.55
-1.81
0.83
3.95
7.07
9.79
11.78
12.92
13.23
12.89
12.11
11.09
9.92
8.55
6.88
4.85
2.50
-0.02
-2.44
-4.51
-6.05
-6.94
-7.17
-6.78
-5.85
-4.44
-2.71
-0.83
0.92
2.25
2.84
2.50
1.18
-0.96
-3.58
-6.28
-8.67
-10.44
-11.38
-11.33
-10.21
-8.01
-4.85
-1.03
3.06
7.00
10.46
13.27
15.43
16.98
17.93
18.20
17.71
16.48
14.73
12.81
11.13
9.96
9.32
8.99
8.66
8.04
7.01
5.58
3.84
1.87
-0.34
-2.81
-5.56
-8.48
-11.37
-13.89
-15.67
-16.41
-15.96
-14.42
-12.06
-9.28
-6.43
-3.73
-1.21
1.22
3.70
6.25
8.77
11.07
12.94
14.28
15.13
15.60
15.88
16.11
16.36
16.66
16.99
17.27
17.42
17.36
16.96
16.13
14.79
12.90
10.47
7.57
4.30
0.80
-2.76
-6.20
-9.33
-12.03
-14.22
-15.83
-16.85
-17.25
-17.03
-16.20
-14.81
-12.97
-10.89
-8.85
-7.14
-6.00
-5.49
-5.48
-5.73
-5.95
-5.98
-5.77
-5.40
-4.97
-4.54
-4.10
-3.62
-3.09
-2.59
-2.19
-1.98
-2.00
-2.22
-2.60
-3.11
-3.74
-4.52
-5.47
-6.55
-7.65
-8.58
-9.11
-9.04
-8.26
-6.77
-4.72
-2.36
0.05
2.30
4.25
5.86
7.12
8.03
8.57
8.71
8.43
7.83
7.04
6.23
5.52
4.94
4.44
3.94
3.37
2.73
2.10
1.52
1.02
0.57
0.02
-0.73
-1.76
-3.07
-4.52
-5.94
-7.16
-8.04
-8.53
-8.67
-8.47
-7.97
-7.12
-5.89
-4.27
-2.37
-0.39
1.46
3.00
4.14
4.90
5.36
5.55
5.46
5.12
4.58
3.99
3.55
3.40
3.53
3.81
4.03
4.00
3.70
3.21
2.64
2.04
1.38
0.56
-0.48
-1.73
-3.12
-4.50
-5.75
-6.78
-7.50
-7.85
-7.78
-7.22
-6.18
-4.72
-2.96
-1.07
0.80
2.51
3.99
5.18
6.05
6.61
6.85
6.77
6.40
5.79
5.01
4.16
3.35
2.70
2.28
2.06
1.92
1.70
1.25
0.53
-0.41
-1.46
-2.50
-3.50
-4.46
-5.41
-6.38
-7.39
-8.45
-9.56
-10.68
-11.72
-12.51
-12.91
-12.78
-12.10
-10.91
-9.29
-7.30
-5.05
-2.67
-0.36
1.65
3.18
4.18
4.70
4.86
4.77
4.50
4.10
3.63
3.22
3.01
3.09
3.47
4.00
4.49
4.75
4.65
4.23
3.60
2.93
2.35
1.87
1.39
0.75
-0.15
-1.32
-2.60
-3.76
-4.59
-4.93
-4.78
-4.20
-3.31
-2.25
-1.12
-0.01
1.00
1.86
2.52
2.95
3.09
2.93
2.51
1.91
1.24
0.61
0.07
-0.35
-0.67
-0.83
-0.81
-0.56
-0.12
0.37
0.68
0.62
0.15
-0.57
-1.25
-1.62
-1.56
-1.19
-0.81
-0.76
-1.23
-2.17
-3.38
-4.58
-5.52
-6.08
-6.25
-6.03
-5.44
-4.50
-3.25
-1.83
-0.39
0.89
1.88
2.51
2.77
2.69
2.34
1.81
1.18
0.56
0.03
-0.29
-0.35
-0.11
0.35
0.90
1.33
1.47
1.26
0.76
0.13
-0.49
-1.03
-1.55
-2.20
-3.06
-4.16
-5.35
-6.47
-7.31
-7.75
-7.70
-7.14
-6.03
-4.37
-2.17
0.45
3.28
6.06
8.54
10.51
11.90
12.69
12.95
12.75
12.15
11.23
10.08
8.81
7.55
6.35
5.20
4.04
2.76
1.33
-0.24
-1.84
-3.37
-4.75
-5.99
-7.17
-8.37
-9.60
-10.80
-11.88
-12.79
-13.54
-14.23
-14.94
-15.61
-16.07
-16.00
-15.09
-13.17
-10.26
-6.61
-2.55
1.54
5.32
8.53
11.00
12.63
13.45
13.58
13.22
12.60
11.97
11.53
11.44
11.73
12.29
12.89
13.22
13.00
12.03
10.30
7.96
5.24
2.38
-0.45
-3.14
-5.61
-7.77
-9.53
-10.86
-11.85
-12.67
-13.47
-14.36
-15.24
-15.92
-16.11
-15.61
-14.28
-12.17
-9.40
-6.17
-2.73
0.62
3.60
5.98
7.65
8.61
8.99
8.93
8.60
8.13
7.64
7.25
7.00
6.90
6.86
6.77
6.55
6.23
5.88
5.63
5.49
5.37
5.12
4.57
3.61
2.22
0.44
-1.71
-4.22
-7.03
-10.04
-12.98
-15.52
-17.31
-18.11
-17.87
-16.69
-14.80
-12.43
-9.86
-7.30
-4.99
-3.08
-1.63
-0.54
0.47
1.71
3.46
5.84
8.79
12.09
15.47
18.67
21.43
23.58
24.93
25.41
25.01
23.88
22.25
20.40
18.59
16.94
15.51
14.24
13.05
11.82
10.48
9.01
7.50
6.17
5.29
5.13
5.82
7.32
9.33
11.42
13.13
14.10
14.16
13.38
11.90
9.91
7.46
4.54
1.14
-2.62
-6.41
-9.77
-12.26
-13.69
-14.18
-14.16
-14.14
-14.47
-15.22
-16.18
-17.02
-17.49
-17.55
-17.36
-17.15
-17.09
-17.20
-17.35
-17.42
-17.33
-17.09
-16.74
-16.23
-15.38
-13.99
-11.89
-9.15
-6.03
-2.95
-0.31
1.64
2.90
3.62
3.99
4.17
4.21
4.14
3.95
3.70
3.46
3.32
3.28
3.32
3.36
3.34
3.26
3.13
2.98
2.80
2.55
2.16
1.56
0.72
-0.36
-1.63
-3.02
-4.46
-5.87
-7.21
-8.38
-9.29
-9.82
-9.86
-9.36
-8.32
-6.83
-4.99
-2.96
-0.87
1.13
2.92
4.34
5.29
5.74
5.77
5.54
5.26
5.09
5.08
5.21
5.40
5.59
5.72
5.73
5.57
5.15
4.44
3.48
2.41
1.43
0.65
0.06
-0.52
-1.31
-2.44
-3.87
-5.40
-6.74
-7.65
-8.01
-7.80
-7.08
-5.91
-4.36
-2.52
-0.51
1.51
3.39
4.99
6.21
7.03
7.46
7.53
7.32
6.91
6.36
5.71
5.02
4.34
3.74
3.30
3.08
3.02
3.04
2.95
2.64
2.05
1.23
0.27
-0.77
-1.89
-3.19
-4.76
-6.64
-8.65
-10.52
-11.90
-12.47
-12.06
-10.68
-8.43
-5.54
-2.25
1.18
4.49
7.40
9.66
11.09
11.64
11.37
10.51
9.27
7.92
6.63
5.49
4.50
3.59
2.59
1.30
-0.44
-2.74
-5.53
-8.63
-11.71
-14.45
-16.57
-17.93
-18.52
-18.44
-17.88
-17.07
-16.23
-15.53
-15.04
-14.67
-14.19
-13.30
-11.73
-9.33
-6.18
-2.56
1.16
4.62
7.52
9.69
11.08
11.79
11.98
11.88
11.66
11.41
11.12
10.70
10.13
9.45
8.78
8.25
7.91
7.69
7.41
6.96
6.28
5.45
4.57
3.68
2.75
1.74
0.64
-0.48
-1.56
-2.58
-3.63
-4.81
-6.15
-7.49
-8.47
-8.71
-7.94
-6.17
-3.66
-0.84
1.88
4.23
6.08
7.39
8.17
8.40
8.10
7.36
6.39
5.43
4.68
4.21
3.95
3.74
3.48
3.14
2.81
2.63
2.68
2.92
3.16
3.18
2.81
2.00
0.87
-0.37
-1.52
-2.47
-3.22
-3.86
-4.49
-5.13
-5.67
-5.85
-5.38
-4.00
-1.67
1.48
5.08
8.64
11.66
13.72
14.55
14.08
12.41
9.83
6.77
3.72
1.07
-0.94
-2.30
-3.19
-3.85
-4.51
-5.27
-6.18
-7.16
-8.16
-9.10
-9.95
-10.67
-11.27
-11.77
-12.24
-12.74
-13.32
-14.05
-14.89
-15.77
-16.47
-16.73
-16.28
-14.88
-12.45
-9.05
-4.92
-0.42
4.01
7.96
11.10
13.23
14.33
14.47
13.83
12.57
10.91
9.06
7.21
5.53
4.09
2.90
1.84
0.82
-0.22
-1.30
-2.39
-3.48
-4.57
-5.71
-6.92
-8.15
-9.31
-10.31
-11.02
-11.38
-11.37
-11.05
-10.48
-9.74
-8.90
-7.93
-6.73
-5.12
-2.87
0.17
4.01
8.54
13.49
18.53
23.33
27.62
31.15
33.74
35.25
35.56
34.68
32.71
29.89
26.51
22.86
19.16
15.55
12.06
8.70
5.44
2.31
-0.66
-3.38
-5.76
-7.71
-9.18
-10.21
-10.87
-11.29
-11.65
-12.08
-12.65
-13.38
-14.18
-14.92
-15.42
-15.53
-15.08
-13.95
-12.04
-9.34
-5.93
-2.02
2.09
6.01
9.34
11.75
13.03
13.17
12.31
10.69
8.63
6.46
4.39
2.57
1.04
-0.23
-1.28
-2.19
-3.02
-3.86
-4.76
-5.79
-6.93
-8.13
-9.29
-10.26
-10.93
-11.25
-11.30
-11.26
-11.29
-11.53
-11.92
-12.29
-12.35
-11.85
-10.64
-8.72
-6.22
-3.38
-0.48
2.22
4.51
6.22
7.26
7.64
7.44
6.77
5.77
4.55
3.22
1.82
0.41
-0.92
-2.06
-2.87
-3.20
-2.92
-1.98
-0.42
1.65
4.06
6.60
9.08
11.32
13.22
14.73
15.81
16.43
16.47
15.82
14.34
12.04
9.03
5.61
2.13
-1.02
-3.54
-5.28
-6.20
-6.40
-6.08
-5.46
-4.78
-4.23
-3.85
-3.61
-3.41
-3.17
-2.88
-2.61
-2.48
-2.54
-2.77
-3.06
-3.27
-3.32
-3.20
-2.99
-2.78
-2.62
-2.54
-2.50
-2.46
-2.43
-2.43
-2.51
-2.73
-3.14
-3.78
-4.67
-5.78
-7.02
-8.21
-9.20
-9.83
-10.05
-9.80
-9.07
-7.84
-6.14
-4.05
-1.78
0.41
2.29
3.71
4.61
5.05
5.10
4.86
4.39
3.81
3.27
2.89
2.73
2.76
2.86
2.86
2.66
2.21
1.56
0.77
-0.08
-0.93
-1.77
-2.61
-3.47
-4.35
-5.23
-6.11
-6.98
-7.88
-8.79
-9.68
-10.36
-10.55
-9.88
-8.08
-5.04
-0.90
4.00
9.20
14.23
18.68
22.19
24.49
25.45
25.09
23.61
21.41
18.87
16.26
13.67
11.03
8.24
5.32
2.44
-0.16
-2.34
-4.07
-5.46
-6.68
-7.84
-8.98
-10.05
-11.05
-11.99
-12.88
-13.73
-14.53
-15.25
-15.93
-16.61
-17.29
-17.87
-18.15
-17.88
-16.86
-15.07
-12.66
-9.85
-6.92
-4.07
-1.44
0.90
2.87
4.41
5.50
6.17
6.50
6.60
6.54
6.40
6.22
6.03
5.88
5.73
5.53
5.22
4.75
4.15
3.55
3.07
2.75
2.52
2.19
1.58
0.60
-0.71
-2.18
-3.67
-5.10
-6.45
-7.67
-8.65
-9.12
-8.83
-7.58
-5.39
-2.47
0.82
4.12
7.12
9.67
11.68
13.17
14.15
14.67
14.74
14.39
13.64
12.54
11.19
9.71
8.21
6.74
5.27
3.71
1.97
0.01
-2.08
-4.13
-5.95
-7.40
-8.44
-9.11
-9.55
-9.89
-10.30
-10.93
-11.85
-13.05
-14.39
-15.68
-16.64
-17.05
-16.75
-15.68
-13.84
-11.32
-8.25
-4.81
-1.23
2.27
5.50
8.33
10.72
12.66
14.14
15.18
15.79
16.06
16.11
16.07
16.03
15.94
15.66
15.03
13.92
12.35
10.48
8.51
6.61
4.88
3.37
2.04
0.89
-0.12
-1.09
-2.17
-3.52
-5.26
-7.32
-9.43
-11.17
-12.12
-12.01
-10.84
-8.84
-6.38
-3.85
-1.46
0.64
2.40
3.77
4.64
4.89
4.47
3.52
2.31
1.19
0.42
0.08
0.06
0.17
0.24
0.22
0.16
0.12
0.15
0.17
0.09
-0.20
-0.72
-1.45
-2.37
-3.45
-4.67
-5.99
-7.31
-8.50
-9.37
-9.74
-9.44
-8.38
-6.57
-4.17
-1.47
1.24
3.67
5.67
7.15
8.14
8.63
8.64
8.23
7.46
6.50
5.48
4.53
3.70
2.99
2.34
1.70
1.00
0.20
-0.75
-1.88
-3.14
-4.44
-5.66
-6.69
-7.48
-8.01
-8.26
-8.19
-7.78
-7.06
-6.12
-5.11
-4.16
-3.30
-2.43
-1.31
0.26
2.37
4.88
7.44
9.61
11.09
11.77
11.81
11.45
10.88
10.16
9.18
7.84
6.13
4.21
2.34
0.77
-0.37
-1.09
-1.52
-1.78
-1.99
-2.20
-2.50
-2.93
-3.54
-4.29
-5.08
-5.75
-6.20
-6.41
-6.46
-6.53
-6.80
-7.34
-8.08
-8.80
-9.22
-9.07
-8.15
-6.44
-4.10
-1.36
1.46
4.13
6.48
8.44
9.99
11.13
11.83
12.09
11.93
11.42
10.71
9.99
9.40
9.02
8.82
8.72
8.59
8.33
7.91
7.32
6.58
5.69
4.71
3.65
2.55
1.45
0.35
-0.78
-2.04
-3.52
-5.25
-7.14
-8.95
-10.37
-11.07
-10.84
-9.63
-7.61
-5.08
-2.40
0.09
2.16
3.70
4.73
5.30
5.48
5.32
4.87
4.21
3.48
2.82
2.36
2.11
2.05
2.07
2.10
2.05
1.90
1.55
0.93
-0.01
-1.25
-2.66
-4.02
-5.15
-5.98
-6.59
-7.20
-8.07
-9.31
-10.89
-12.53
-13.84
-14.43
-13.99
-12.45
-9.91
-6.64
-3.01
0.66
4.07
7.01
9.30
10.84
11.59
11.59
10.98
10.01
8.93
7.98
7.26
6.77
6.42
6.09
5.74
5.36
4.95
4.45
3.78
2.88
1.79
0.61
-0.49
-1.42
-2.19
-2.96
-3.89
-5.06
-6.42
-7.80
-8.97
-9.71
-9.84
-9.23
-7.84
-5.75
-3.10
-0.13
2.90
5.76
8.29
10.37
11.95
13.01
13.53
13.56
13.21
12.62
11.95
11.34
10.83
10.34
9.74
8.84
7.54
5.86
3.91
1.89
-0.04
-1.85
-3.59
-5.39
-7.30
-9.26
-11.15
-12.85
-14.35
-15.73
-17.13
-18.59
-19.96
-20.99
-21.36
-20.85
-19.44
-17.32
-14.72
-11.93
-9.12
-6.42
-3.96
-1.85
-0.19
0.96
1.66
2.05
2.31
2.56
2.81
2.99
3.05
3.00
2.90
2.86
2.91
3.02
3.13
3.18
3.24
3.42
3.79
4.36
4.97
5.41
5.46
5.03
4.14
2.93
1.63
0.51
-0.22
-0.37
0.12
1.22
2.78
4.57
6.34
7.88
9.07
9.88
10.33
10.47
10.32
9.83
9.02
7.91
6.68
5.53
4.71
4.31
4.32
4.55
4.82
4.98
5.01
4.96
4.86
4.70
4.38
3.81
2.95
1.83
0.52
-0.94
-2.60
-4.51
-6.70
-9.07
-11.35
-13.22
-14.39
-14.68
-14.11
-12.87
-11.25
-9.52
-7.91
-6.54
-5.46
-4.67
-4.18
-4.00
-4.12
-4.45
-4.85
-5.08
-4.96
-4.43
-3.60
-2.73
-2.04
-1.70
-1.67
-1.81
-1.95
-1.97
-1.91
-1.82
-1.80
-1.92
-2.23
-2.78
-3.61
-4.73
-6.07
-7.46
-8.65
-9.36
-9.39
-8.66
-7.18
-5.09
-2.61
0.02
2.56
4.76
6.42
7.43
7.74
7.42
6.62
5.56
4.49
3.58
2.96
2.62
2.45
2.31
2.07
1.67
1.16
0.62
0.15
-0.26
-0.70
-1.30
-2.17
-3.32
-4.62
-5.86
-6.87
-7.57
-7.97
-8.12
-7.98
-7.42
-6.25
-4.34
-1.73
1.37
4.63
7.75
10.56
13.02
15.14
16.90
18.21
18.94
19.01
18.47
17.49
16.30
15.08
13.92
12.79
11.56
10.14
8.49
6.66
4.72
2.74
0.74
-1.27
-3.30
-5.34
-7.36
-9.30
-11.15
-12.89
-14.56
-16.18
-17.69
-18.95
-19.74
-19.84
-19.10
-17.50
-15.20
-12.50
-9.72
-7.15
-4.97
-3.24
-2.01
-1.25
-0.98
-1.20
-1.80
-2.63
-3.42
-3.98
-4.16
-3.99
-3.59
-3.16
-2.84
-2.69
-2.69
-2.77
-2.88
-3.02
-3.21
-3.52
-3.95
-4.46
-4.98
-5.44
-5.84
-6.15
-6.31
-6.14
-5.39
-3.81
-1.31
2.02
5.89
9.93
13.77
17.05
19.51
20.95
21.28
20.54
18.97
16.92
14.80
12.97
11.61
10.73
10.22
9.93
9.70
9.40
8.93
8.21
7.23
6.04
4.70
3.28
1.83
0.37
-1.13
-2.73
-4.48
-6.46
-8.63
-10.90
-13.00
-14.61
-15.40
-15.19
-13.97
-11.95
-9.48
-6.91
-4.51
-2.45
-0.78
0.50
1.41
1.96
2.17
2.11
1.89
1.69
1.67
1.91
2.37
2.91
3.34
3.52
3.42
3.11
2.76
2.48
2.31
2.20
1.98
1.50
0.61
-0.78
-2.71
-5.12
-7.78
-10.34
-12.36
-13.45
-13.34
-12.02
-9.74
-6.89
-3.90
-1.14
1.21
3.06
4.41
5.28
5.68
5.66
5.29
4.72
4.11
3.67
3.49
3.60
3.93
4.31
4.57
4.64
4.51
4.28
4.04
3.86
3.66
3.32
2.74
1.86
0.75
-0.48
-1.71
-2.83
-3.73
-4.31
-4.42
-3.89
-2.64
-0.68
1.80
4.53
7.16
9.34
10.84
11.54
11.46
10.76
9.70
8.53
7.44
6.49
5.65
4.83
3.92
2.92
1.88
0.88
-0.03
-0.89
-1.75
-2.70
-3.76
-4.91
-6.15
-7.51
-9.01
-10.63
-12.25
-13.62
-14.42
-14.38
-13.39
-11.52
-9.03
-6.22
-3.40
-0.81
1.44
3.25
4.58
5.40
5.72
5.61
5.20
4.67
4.19
3.84
3.64
3.53
3.42
3.29
3.14
3.01
2.90
2.77
2.51
2.03
1.25
0.11
-1.37
-3.15
-5.11
-7.04
-8.62
-9.56
-9.59
-8.63
-6.79
-4.33
-1.64
0.92
3.02
4.47
5.24
5.38
5.05
4.38
3.51
2.54
1.55
0.64
-0.10
-0.63
-0.99
-1.29
-1.67
-2.18
-2.75
-3.24
-3.54
-3.65
-3.75
-4.12
-4.99
-6.43
-8.30
-10.31
-12.08
-13.29
-13.70
-13.22
-11.87
-9.74
-6.99
-3.80
-0.42
2.90
5.91
8.38
10.16
11.17
11.41
11.01
10.21
9.31
8.61
8.31
8.45
8.89
9.37
9.65
9.56
9.08
8.33
7.44
6.56
5.71
4.87
3.94
2.80
1.36
-0.42
-2.53
-4.80
-6.99
-8.77
-9.80
-9.84
-8.79
-6.74
-3.92
-0.67
2.64
5.72
8.34
10.34
11.66
12.27
12.18
11.45
10.19
8.58
6.86
5.29
4.08
3.29
2.87
2.61
2.30
1.77
0.96
-0.12
-1.39
-2.73
-4.08
-5.36
-6.55
-7.66
-8.77
-9.99
-11.41
-13.04
-14.74
-16.24
-17.20
-17.28
-16.27
-14.14
-11.05
-7.33
-3.36
0.48
3.83
6.43
8.08
8.69
8.27
7.01
5.17
3.09
1.09
-0.58
-1.71
-2.16
-1.81
-0.66
1.20
3.53
5.95
8.14
9.84
10.99
11.67
12.01
12.10
11.95
11.50
10.70
9.54
8.07
6.35
4.43
2.41
0.39
-1.39
-2.65
-3.11
-2.59
-1.14
1.03
3.54
6.02
8.16
9.73
10.62
10.80
10.34
9.37
8.13
6.84
5.69
4.79
4.15
3.74
3.51
3.38
3.31
3.22
3.03
2.68
2.14
1.43
0.62
-0.20
-0.97
-1.70
-2.44
-3.29
-4.33
-5.62
-7.17
-8.93
-10.78
-12.58
-14.14
-15.23
-15.59
-15.03
-13.46
-10.96
-7.80
-4.36
-1.03
1.89
4.22
5.90
6.97
7.47
7.46
7.03
6.27
5.33
4.34
3.40
2.59
1.96
1.51
1.22
1.06
0.94
0.80
0.57
0.22
-0.24
-0.79
-1.42
-2.11
-2.90
-3.76
-4.68
-5.61
-6.55
-7.51
-8.55
-9.72
-10.92
-11.93
-12.41
-12.00
-10.51
-7.94
-4.53
-0.66
3.30
7.00
10.21
12.80
14.67
15.82
16.30
16.28
15.93
15.43
14.91
14.44
14.03
13.71
13.47
13.30
13.12
12.85
12.38
11.60
10.44
8.83
6.72
4.13
1.16
-1.95
-4.91
-7.49
-9.63
-11.43
-13.15
-15.01
-17.04
-19.07
-20.76
-21.74
-21.80
-20.92
-19.24
-16.95
-14.26
-11.33
-8.34
-5.47
-2.92
-0.82
0.80
1.96
2.73
3.10
3.00
2.31
0.99
-0.87
-3.01
-5.05
-6.65
-7.62
-7.92
-7.70
-7.22
-6.68
-6.14
-5.55
-4.73
-3.53
-1.92
-0.05
1.81
3.39
4.50
5.10
5.27
5.13
4.78
4.32
3.89
3.71
4.03
5.08
6.94
9.45
12.28
14.97
17.08
18.26
18.38
17.58
16.20
14.75
13.65
13.14
13.17
13.45
13.62
13.45
12.96
12.40
12.06
12.06
12.26
12.25
11.59
9.95
7.34
4.07
0.64
-2.43
-4.78
-6.32
-7.16
-7.59
-7.95
-8.45
-9.23
-10.23
-11.28
-12.14
-12.52
-12.12
-10.75
-8.35
-5.09
-1.38
2.20
5.09
6.87
7.48
7.21
6.62
6.36
6.91
8.41
10.57
12.81
14.48
15.12
14.69
13.48
11.97
10.52
9.25
8.05
6.76
5.32
3.80
2.31
0.81
-0.90
-3.01
-5.54
-8.18
-10.49
-12.06
-12.78
-12.84
-12.59
-12.32
-12.08
-11.77
-11.24
-10.46
-9.53
-8.62
-7.83
-7.23
-6.89
-6.92
-7.49
-8.73
-10.64
-13.08
-15.75
-18.35
-20.67
-22.62
-24.19
-25.42
-26.36
-27.10
-27.72
-28.27
-28.76
-29.13
-29.28
-29.20
-28.95
-28.67
-28.39
-27.89
-26.74
-24.48
-20.89
-16.17
-10.86
-5.63
-0.89
3.27
6.99
10.34
13.16
15.05
15.67
15.01
13.46
11.64
10.11
9.12
8.68
8.67
9.06
9.91
11.23
12.86
14.44
15.52
15.84
15.44
14.62
13.72
12.94
12.23
11.35
10.01
8.07
5.55
2.64
-0.42
-3.41
-6.21
-8.77
-11.02
-12.82
-14.04
-14.52
-14.26
-13.40
-12.20
-10.98
-9.90
-9.02
-8.25
-7.58
-7.16
-7.28
-8.23
-10.12
-12.71
-15.53
-18.03
-19.85
-21.00
-21.73
-22.44
-23.37
-24.54
-25.79
-26.83
-27.42
-27.39
-26.62
-25.05
-22.72
-19.82
-16.78
-14.12
-12.20
-10.96
-9.89
-8.23
-5.35
-1.12
3.93
8.90
12.94
15.57
16.89
17.33
17.39
17.39
17.52
18.01
19.29
21.96
26.49
32.82
40.24
47.46
53.12
56.27
56.60
54.38
50.17
44.54
37.99
31.11
24.66
19.59
16.78
16.57
18.53
21.52
24.12
25.23
24.41
21.87
18.14
13.75
8.95
3.82
-1.37
-5.89
-8.60
-8.42
-5.11
0.54
6.88
11.96
14.28
13.31
9.43
3.43
-4.10
-13.37
-24.66
-37.54
-50.65
-62.09
-70.21
-74.34
-75.13
-74.20
-73.71
-74.86
-77.22
-79.35
-79.98
-78.72
-76.08
-73.00
-70.12
-67.96
-66.15
-63.36
-58.33
-50.60
-40.48
-28.48
-14.72
4.29
28.86
55.60
79.70
97.57
108.08
111.86
110.33
104.92
96.72
87.19
76.12
64.54
54.24
46.80
42.83
41.84
42.55
43.51
43.36
41.05
36.93
31.83
26.21
19.89
12.45
3.70
-5.87
-15.40
-23.74
-29.51
-31.97
-31.44
-29.08
-26.34
-24.20
-22.89
-22.09
-21.15
-19.30
-16.07
-11.46
-5.87
0.11
5.78
10.43
13.40
14.32
13.36
11.17
8.57
6.26
4.63
3.72
3.36
3.31
3.36
3.33
3.11
2.69
2.00
0.95
-0.52
-2.42
-4.66
-6.85
-8.55
-9.22
-8.45
-6.48
-4.08
-2.15
-1.14
-0.79
-0.07
1.96
5.87
11.60
18.07
23.71
27.31
28.53
27.81
26.27
24.44
22.46
20.23
17.04
12.01
4.72
-4.67
-15.72
-27.66
-40.64
-55.00
-67.67
-75.06
-75.11
-68.37
-57.13
-46.69
-37.35
-29.26
-22.84
-18.52
-15.87
-15.02
-15.58
-16.70
-17.40
-16.49
-13.81
-9.51
-3.78
2.76
9.13
14.56
18.63
21.40
23.57
25.49
27.44
29.58
31.61
32.89
32.98
31.78
29.56
27.00
24.50
22.33
20.72
19.60
18.70
17.68
16.27
14.34
12.00
9.35
6.52
3.65
0.80
-2.10
-5.08
-8.14
-11.16
-13.98
-16.48
-18.55
-20.03
-20.73
-20.40
-18.85
-15.99
-11.94
-7.04
-1.76
3.38
7.94
11.58
14.13
15.54
15.88
15.33
14.16
12.67
11.16
9.78
8.59
7.52
6.45
5.30
4.09
2.90
1.91
1.23
0.88
0.75
0.66
0.40
-0.20
-1.23
-2.70
-4.59
-6.79
-9.05
-10.95
-12.03
-11.85
-10.25
-7.38
-3.71
0.19
3.82
6.88
9.25
10.91
11.82
11.91
11.13
9.53
7.37
5.09
3.12
1.79
1.22
1.22
1.50
1.74
1.74
1.50
1.06
0.48
-0.27
-1.29
-2.60
-4.16
-5.83
-7.45
-8.97
-10.43
-11.95
-13.60
-15.29
-16.76
-17.69
-17.76
-16.82
-14.92
-12.32
-9.35
-6.39
-3.73
-1.57
0.01
1.00
1.47
1.51
1.24
0.80
0.36
0.06
-0.03
0.05
0.14
0.03
-0.47
-1.47
-2.95
-4.78
-6.76
-8.69
-10.37
-11.67
-12.55
-13.09
-13.50
-14.03
-14.87
-15.98
-17.09
-17.74
-17.47
-15.98
-13.28
-9.64
-5.50
-1.30
2.63
6.05
8.80
10.76
11.85
12.11
11.71
10.91
10.02
9.25
8.64
8.10
7.44
6.56
5.44
4.18
2.92
1.76
0.74
-0.13
-0.89
-1.60
-2.33
-3.25
-4.50
-6.17
-8.15
-10.17
-11.77
-12.52
-12.10
-10.49
-7.87
-4.60
-1.06
2.44
5.69
8.52
10.79
12.36
13.17
13.25
12.75
11.93
11.08
10.40
10.00
9.86
9.85
9.85
9.69
9.33
8.72
7.92
6.98
6.01
5.08
4.24
3.50
2.80
2.00
0.98
-0.35
-1.91
-3.46
-4.63
-5.01
-4.32
-2.56
0.04
3.10
6.24
9.14
11.62
13.58
14.96
15.69
15.70
15.01
13.75
12.17
10.59
9.31
8.53
8.31
8.52
8.94
9.33
9.46
9.20
8.52
7.44
6.04
4.42
2.68
0.90
-0.92
-2.81
-4.86
-7.11
-9.50
-11.81
-13.70
-14.81
-14.89
-13.89
-11.93
-9.28
-6.22
-3.03
-0.01
2.52
4.25
4.92
4.46
3.06
1.19
-0.53
-1.54
-1.42
-0.02
2.59
6.17
10.38
14.86
19.26
23.33
26.90
29.92
32.37
34.18
35.15
35.09
33.82
31.32
27.78
23.45
18.61
13.47
8.23
3.14
-1.45
-5.15
-7.62
-8.70
-8.49
-7.26
-5.34
-3.02
-0.53
1.97
4.29
6.23
7.54
7.99
7.49
6.05
3.87
1.23
-1.52
-4.06
-6.22
-7.98
-9.48
-10.92
-12.45
-14.13
-15.93
-17.79
-19.69
-21.65
-23.68
-25.78
-27.85
-29.80
-31.54
-33.05
-34.26
-35.06
-35.22
-34.45
-32.54
-29.38
-25.04
-19.66
-13.42
-6.48
0.92
8.47
15.68
22.03
27.05
30.46
32.21
32.47
31.52
29.70
27.32
24.63
21.83
18.95
15.99
12.91
9.81
6.92
4.58
3.11
2.60
2.91
3.66
4.40
4.76
4.55
3.71
2.28
0.31
-2.09
-4.72
-7.30
-9.46
-10.89
-11.42
-11.06
-9.99
-8.44
-6.62
-4.70
-2.84
-1.21
0.01
0.72
0.96
0.96
1.02
1.44
2.32
3.52
4.77
5.73
6.12
5.79
4.75
3.05
0.80
-1.90
-4.84
-7.73
-10.25
-12.10
-13.15
-13.50
-13.42
-13.25
-13.25
-13.46
-13.73
-13.77
-13.31
-12.20
-10.44
-8.22
-5.75
-3.30
-1.02
0.99
2.71
4.20
5.51
6.68
7.74
8.67
9.43
10.01
10.40
10.68
10.99
11.50
12.32
13.42
14.55
15.33
15.31
14.16
11.85
8.62
4.96
1.35
-1.85
-4.55
-6.83
-8.85
-10.67
-12.20
-13.23
-13.56
-13.04
-11.70
-9.72
-7.38
-5.02
-2.92
-1.27
-0.10
0.75
1.60
2.79
4.56
6.92
9.57
12.00
13.68
14.26
13.64
12.04
9.87
7.58
5.56
4.09
3.29
3.11
3.37
3.75
3.87
3.45
2.33
0.62
-1.43
-3.52
-5.41
-7.01
-8.32
-9.36
-10.10
-10.43
-10.26
-9.51
-8.17
-6.32
-4.13
-1.81
0.42
2.37
3.93
5.10
5.98
6.73
7.57
8.65
10.12
12.01
14.27
16.72
19.14
21.26
22.89
23.88
24.18
23.83
22.91
21.55
19.92
18.18
16.44
14.70
12.91
10.96
8.84
6.60
4.39
2.35
0.54
-1.09
-2.67
-4.35
-6.28
-8.54
-11.13
-13.96
-16.85
-19.55
-21.77
-23.30
-24.01
-23.93
-23.18
-21.97
-20.49
-18.98
-17.58
-16.42
-15.53
-14.87
-14.34
-13.82
-13.20
-12.44
-11.53
-10.54
-9.54
-8.64
-7.92
-7.41
-7.13
-7.01
-6.96
-6.95
-6.96
-7.02
-7.18
-7.47
-7.86
-8.32
-8.80
-9.33
-9.93
-10.63
-11.37
-12.03
-12.44
-12.40
-11.77
-10.53
-8.75
-6.65
-4.47
-2.47
-0.84
0.33
1.03
1.32
1.29
1.03
0.65
0.23
-0.13
-0.38
-0.45
-0.30
0.07
0.62
1.27
1.88
2.31
2.48
2.39
2.15
1.90
1.78
1.83
2.01
2.20
2.25
2.05
1.53
0.72
-0.31
-1.40
-2.38
-3.01
-3.10
-2.56
-1.39
0.23
2.03
3.69
4.95
5.68
5.90
5.71
5.20
4.43
3.37
2.02
0.43
-1.24
-2.80
-4.06
-4.90
-5.28
-5.20
-4.70
-3.88
-2.85
-1.80
-0.92
-0.39
-0.27
-0.52
-1.06
-1.79
-2.65
-3.56
-4.48
-5.28
-5.79
-5.82
-5.26
-4.10
-2.45
-0.48
1.60
3.63
5.51
7.14
8.48
9.40
9.83
9.73
9.11
8.10
6.85
5.47
4.00
2.46
0.88
-0.66
-1.98
-2.95
-3.53
-3.85
-4.09
-4.45
-4.98
-5.62
-6.23
-6.72
-7.18
-7.80
-8.78
-10.21
-11.94
-13.62
-14.83
-15.24
-14.71
-13.34
-11.35
-9.03
-6.62
-4.32
-2.27
-0.63
0.52
1.10
1.15
0.76
0.08
-0.68
-1.34
-1.73
-1.75
-1.38
-0.69
0.20
1.12
1.94
2.58
3.01
3.19
3.12
2.82
2.31
1.66
0.88
-0.07
-1.29
-2.82
-4.54
-6.17
-7.28
-7.52
-6.71
-4.98
-2.65
-0.10
2.43
4.82
7.06
9.09
10.73
11.72
11.88
11.19
9.88
8.32
6.90
5.88
5.31
5.11
5.12
5.16
5.08
4.81
4.30
3.57
2.71
1.84
1.04
0.32
-0.47
-1.49
-2.92
-4.78
-6.90
-8.95
-10.54
-11.30
-11.01
-9.65
-7.37
-4.47
-1.30
1.84
4.72
7.18
9.16
10.59
11.42
11.63
11.25
10.40
9.33
8.30
7.50
7.02
6.78
6.64
6.42
6.03
5.39
4.51
3.40
2.10
0.68
-0.72
-2.01
-3.14
-4.21
-5.39
-6.83
-8.54
-10.33
-11.85
-12.70
-12.60
-11.47
-9.43
-6.71
-3.60
-0.36
2.77
5.57
7.88
9.54
10.51
10.86
10.78
10.52
10.28
10.23
10.41
10.73
11.07
11.26
11.18
10.76
10.04
9.09
8.03
7.00
6.05
5.22
4.46
3.69
2.83
1.77
0.44
-1.20
-3.11
-5.10
-6.90
-8.14
-8.56
-8.01
-6.54
-4.40
-1.93
0.56
2.81
4.73
6.25
7.38
8.10
8.35
8.11
7.40
6.35
5.16
4.04
3.17
2.61
2.31
2.15
2.00
1.76
1.35
0.73
-0.07
-0.94
-1.76
-2.35
-2.63
-2.61
-2.43
-2.26
-2.28
-2.58
-3.11
-3.73
-4.17
-4.16
-3.42
-1.84
0.52
3.38
6.29
8.79
10.55
11.48
11.68
11.37
10.73
9.91
8.95
7.91
6.86
5.85
4.90
3.95
2.91
1.74
0.46
-0.84
-2.02
-3.02
-3.86
-4.61
-5.33
-6.06
-6.79
-7.52
-8.28
-9.13
-10.12
-11.19
-12.20
-12.85
-12.85
-11.94
-10.04
-7.26
-3.93
-0.48
2.70
5.33
7.32
8.75
9.76
10.45
10.85
10.95
10.68
10.03
9.08
7.92
6.71
5.57
4.54
3.60
2.66
1.62
0.40
-1.00
-2.50
-4.00
-5.39
-6.59
-7.55
-8.26
-8.74
-9.05
-9.28
-9.58
-10.00
-10.46
-10.77
-10.64
-9.80
-8.13
-5.65
-2.59
0.78
4.16
7.29
10.02
12.22
13.84
14.82
15.21
15.08
14.57
13.86
13.12
12.48
11.98
11.58
11.15
10.51
9.46
7.87
5.74
3.23
0.63
-1.78
-3.80
-5.47
-6.94
-8.43
-10.09
-11.92
-13.76
-15.44
-16.80
-17.78
-18.31
-18.32
-17.69
-16.36
-14.37
-11.95
-9.45
-7.24
-5.60
-4.59
-4.11
-3.96
-3.94
-3.95
-3.96
-3.99
-4.03
-4.03
-3.93
-3.67
-3.29
-2.88
-2.59
-2.53
-2.71
-3.10
-3.57
-4.04
-4.44
-4.75
-4.96
-5.10
-5.18
-5.23
-5.28
-5.29
-5.18
-4.82
-4.06
-2.80
-1.08
0.96
3.11
5.14
6.89
8.22
9.06
9.36
9.11
8.37
7.31
6.15
5.12
4.39
4.01
3.91
3.96
4.01
3.95
3.72
3.31
2.76
2.14
1.52
0.93
0.33
-0.36
-1.29
-2.54
-4.13
-5.96
-7.84
-9.55
-10.88
-11.65
-11.74
-11.13
-9.83
-7.98
-5.74
-3.29
-0.78
1.65
3.92
5.92
7.52
8.61
9.10
9.04
8.62
8.06
7.57
7.24
7.06
6.92
6.72
6.42
6.03
5.52
4.86
3.97
2.79
1.34
-0.30
-2.00
-3.64
-5.18
-6.66
-8.15
-9.73
-11.41
-13.12
-14.67
-15.78
-16.11
-15.39
-13.51
-10.55
-6.83
-2.81
1.01
4.26
6.71
8.30
9.08
9.18
8.75
8.02
7.21
6.52
6.11
6.03
6.23
6.57
6.86
6.94
6.69
6.11
5.27
4.31
3.33
2.41
1.55
0.70
-0.19
-1.11
-2.06
-3.04
-4.17
-5.57
-7.28
-9.19
-10.91
-11.93
-11.78
-10.28
-7.59
-4.13
-0.46
2.96
5.86
8.19
10.00
11.37
12.32
12.83
12.86
12.41
11.57
10.48
9.30
8.18
7.22
6.41
5.72
5.09
4.47
3.87
3.27
2.65
1.95
1.09
0.05
-1.15
-2.46
-3.81
-5.18
-6.64
-8.25
-10.04
-11.89
-13.53
-14.65
-14.96
-14.34
-12.87
-10.77
-8.35
-5.82
-3.34
-0.95
1.32
3.42
5.22
6.59
7.40
7.64
7.40
6.88
6.26
5.69
5.24
4.85
4.48
4.08
3.62
3.11
2.53
1.85
0.99
-0.08
-1.36
-2.82
-4.33
-5.77
-7.04
-8.09
-8.96
-9.69
-10.35
-10.91
-11.22
-11.04
-10.11
-8.25
-5.51
-2.16
1.35
4.51
6.96
8.55
9.33
9.51
9.27
8.76
8.06
7.26
6.49
5.88
5.57
5.54
5.63
5.63
5.38
4.88
4.22
3.60
3.10
2.73
2.35
1.81
1.02
-0.07
-1.40
-2.99
-4.83
-6.89
-9.04
-10.98
-12.29
-12.59
-11.68
-9.63
-6.78
-3.56
-0.38
2.45
4.81
6.65
7.99
8.84
9.23
9.17
8.72
7.93
6.94
5.87
4.86
4.02
3.39
2.97
2.70
2.54
2.40
2.19
1.86
1.31
0.55
-0.35
-1.26
-2.04
-2.64
-3.08
-3.48
-3.94
-4.52
-5.23
-5.98
-6.66
-7.16
-7.32
-7.03
-6.23
-4.94
-3.30
-1.46
0.44
2.30
4.07
5.67
7.01
7.98
8.48
8.49
8.11
7.54
6.92
6.35
5.78
5.14
4.37
3.48
2.59
1.77
0.99
0.12
-1.03
-2.61
-4.57
-6.70
-8.68
-10.27
-11.41
-12.23
-12.92
-13.65
-14.42
-15.04
-15.23
-14.68
-13.23
-10.85
-7.74
-4.22
-0.64
2.63
5.38
7.53
9.09
10.14
10.74
10.93
10.73
10.23
9.58
8.96
8.55
8.42
8.52
8.68
8.73
8.52
8.03
7.31
6.48
5.66
4.89
4.15
3.35
2.45
1.42
0.30
-0.84
-2.00
-3.22
-4.55
-5.98
-7.40
-8.52
-9.03
-8.69
-7.43
-5.41
-2.95
-0.42
1.88
3.75
5.14
6.05
6.56
6.75
6.69
6.42
5.97
5.36
4.66
3.92
3.24
2.70
2.34
2.10
1.90
1.60
1.08
0.25
-0.89
-2.25
-3.63
-4.81
-5.64
-6.10
-6.35
-6.67
-7.40
-8.70
-10.49
-12.42
-13.95
-14.52
-13.78
-11.68
-8.51
-4.84
-1.32
1.52
3.43
4.49
5.02
5.39
5.84
6.39
6.75
6.50
5.25
2.73
-0.97
-5.32
-9.36
-11.88
-11.73
-8.33
-1.93
6.30
14.60
21.22
24.93
25.35
22.94
18.61
13.36
8.02
3.14
-0.92
-3.92
-5.81
-6.67
-6.73
-6.29
-5.58
-4.73
-3.73
-2.54
-1.17
0.33
1.87
3.35
4.64
5.60
6.05
5.85
5.01
3.72
2.34
1.25
0.71
0.71
1.02
1.27
1.14
0.51
-0.57
-1.84
-3.02
-3.91
-4.42
-4.64
-4.74
-4.92
-5.36
-6.16
-7.32
-8.77
-10.31
-11.69
-12.61
-12.80
-12.16
-10.80
-9.01
-7.16
-5.61
-4.57
-4.12
-4.19
-4.69
-5.47
-6.45
-7.53
-8.63
-9.68
-10.59
-11.31
-11.79
-12.03
-12.10
-12.14
-12.28
-12.65
-13.29
-14.18
-15.26
-16.42
-17.62
-18.85
-20.14
-21.58
-23.23
-25.11
-27.10
-28.94
-30.21
-30.46
-29.31
-26.55
-22.21
-16.49
-9.72
-2.31
5.34
12.79
19.65
25.63
30.58
34.49
37.47
39.68
41.30
42.43
43.15
43.52
43.58
43.35
42.75
41.64
39.87
37.36
34.18
30.55
26.72
22.87
19.01
15.06
10.88
6.42
1.77
-2.86
-7.13
-10.66
-13.06
-14.02
-13.39
-11.26
-7.99
-4.09
-0.12
3.45
6.29
8.27
9.36
9.60
9.07
7.91
6.29
4.48
2.73
1.25
0.14
-0.64
-1.21
-1.72
-2.30
-3.01
-3.84
-4.75
-5.73
-6.72
-7.71
-8.71
-9.77
-10.97
-12.40
-14.09
-15.93
-17.66
-18.92
-19.39
-18.86
-17.27
-14.69
-11.34
-7.48
-3.43
0.47
3.94
6.73
8.77
10.07
10.76
10.98
10.88
10.54
10.03
9.43
8.81
8.25
7.77
7.33
6.88
6.32
5.59
4.69
3.70
2.67
1.67
0.66
-0.45
-1.75
-3.33
-5.25
-7.49
-9.97
-12.55
-14.95
-16.84
-17.84
-17.66
-16.22
-13.69
-10.42
-6.81
-3.26
-0.01
2.75
4.86
6.22
6.75
6.52
5.68
4.49
3.18
1.96
0.94
0.14
-0.45
-0.93
-1.41
-2.00
-2.79
-3.74
-4.73
-5.62
-6.34
-6.88
-7.35
-7.84
-8.45
-9.20
-10.07
-10.97
-11.75
-12.19
-12.00
-10.91
-8.78
-5.64
-1.71
2.66
7.08
11.20
14.71
17.42
19.21
20.13
20.29
19.91
19.19
18.32
17.42
16.63
16.04
15.67
15.46
15.25
14.85
14.07
12.83
11.14
9.10
6.82
4.40
1.91
-0.58
-3.04
-5.50
-8.05
-10.79
-13.72
-16.68
-19.36
-21.35
-22.26
-21.88
-20.25
-17.60
-14.35
-10.91
-7.63
-4.67
-2.09
0.10
1.82
2.90
3.16
2.51
1.09
-0.74
-2.52
-3.84
-4.55
-4.74
-4.61
-4.39
-4.13
-3.78
-3.22
-2.38
-1.30
-0.11
1.03
1.94
2.45
2.49
2.02
1.07
-0.20
-1.56
-2.67
-3.18
-2.81
-1.44
0.85
3.79
6.99
10.06
12.72
14.79
16.23
17.01
17.11
16.51
15.21
13.31
11.03
8.66
6.48
4.70
3.37
2.40
1.60
0.79
-0.13
-1.18
-2.25
-3.31
-4.34
-5.41
-6.60
-7.93
-9.36
-10.76
-12.05
-13.23
-14.31
-15.22
-15.77
-15.61
-14.37
-11.78
-7.87
-2.95
2.44
7.66
12.11
15.39
17.28
17.82
17.17
15.59
13.38
10.86
8.35
6.12
4.36
3.14
2.39
1.92
1.54
1.09
0.54
-0.05
-0.56
-0.90
-1.08
-1.19
-1.34
-1.68
-2.29
-3.23
-4.51
-6.07
-7.71
-9.16
-10.06
-10.09
-9.07
-7.05
-4.30
-1.22
1.81
4.53
6.80
8.57
9.77
10.27
9.92
8.68
6.68
4.23
1.76
-0.31
-1.75
-2.53
-2.83
-2.91
-3.05
-3.42
-4.04
-4.87
-5.80
-6.73
-7.59
-8.43
-9.30
-10.28
-11.48
-12.91
-14.54
-16.26
-17.86
-19.08
-19.63
-19.27
-17.86
-15.44
-12.25
-8.69
-5.19
-2.06
0.56
2.72
4.58
6.27
7.82
9.22
10.43
11.55
12.70
14.04
15.59
17.19
18.58
19.52
19.88
19.66
18.94
17.79
16.21
14.21
11.82
9.15
6.37
3.60
0.88
-1.83
-4.63
-7.50
-10.29
-12.70
-14.35
-14.97
-14.41
-12.81
-10.43
-7.68
-4.92
-2.45
-0.41
1.16
2.30
3.03
3.37
3.30
2.85
2.08
1.17
0.34
-0.22
-0.42
-0.31
-0.07
0.08
-0.00
-0.32
-0.69
-0.94
-0.99
-0.92
-0.99
-1.48
-2.56
-4.17
-6.07
-7.94
-9.50
-10.58
-11.08
-10.96
-10.13
-8.52
-6.10
-2.93
0.76
4.65
8.35
11.46
13.68
14.83
14.94
14.19
12.88
11.33
9.80
8.41
7.19
6.11
5.15
4.28
3.48
2.71
1.90
0.97
-0.08
-1.20
-2.29
-3.24
-4.02
-4.70
-5.40
-6.27
-7.41
-8.85
-10.53
-12.28
-13.87
-14.98
-15.30
-14.59
-12.76
-9.92
-6.37
-2.48
1.37
4.86
7.77
9.93
11.29
11.85
11.72
11.08
10.17
9.19
8.30
7.53
6.89
6.39
6.01
5.76
5.59
5.42
5.15
4.66
3.90
2.81
1.44
-0.14
-1.80
-3.41
-4.88
-6.18
-7.40
-8.64
-10.00
-11.43
-12.72
-13.54
-13.57
-12.61
-10.70
-8.08
-5.14
-2.25
0.31
2.45
4.17
5.51
6.48
6.99
6.92
6.19
4.86
3.11
1.21
-0.50
-1.72
-2.25
-1.99
-0.94
0.80
3.07
5.64
8.25
10.70
12.80
14.47
15.73
16.64
17.22
17.46
17.25
16.45
14.99
12.92
10.42
7.81
5.40
3.45
2.15
1.57
1.66
2.30
3.22
4.08
4.51
4.21
3.06
1.16
-1.14
-3.36
-4.97
-5.54
-4.91
-3.17
-0.71
1.93
4.16
5.57
5.97
5.40
4.04
2.13
-0.11
-2.51
-4.93
-7.33
-9.72
-12.13
-14.61
-17.09
-19.38
-21.14
-21.97
-21.55
-19.72
-16.62
-12.60
-8.17
-3.84
-0.06
2.84
4.72
5.58
5.54
4.81
3.63
2.26
0.94
-0.13
-0.84
-1.14
-1.13
-0.92
-0.65
-0.47
-0.43
-0.58
-0.88
-1.31
-1.80
-2.28
-2.71
-3.08
-3.48
-4.02
-4.79
-5.78
-6.78
-7.48
-7.54
-6.78
-5.26
-3.23
-1.05
1.02
2.88
4.54
6.05
7.35
8.27
8.61
8.28
7.36
6.07
4.76
3.69
3.02
2.73
2.69
2.69
2.51
2.04
1.25
0.24
-0.85
-1.87
-2.74
-3.49
-4.14
-4.71
-5.15
-5.35
-5.25
-4.86
-4.25
-3.52
-2.70
-1.78
-0.65
0.72
2.32
3.99
5.57
6.94
8.06
8.97
9.72
10.25
10.45
10.20
9.49
8.47
7.39
6.47
5.82
5.38
5.00
4.56
3.98
3.31
2.60
1.89
1.19
0.51
-0.13
-0.70
-1.20
-1.67
-2.21
-2.90
-3.75
-4.67
-5.49
-6.02
-6.10
-5.68
-4.79
-3.52
-2.02
-0.40
1.21
2.68
3.91
4.80
5.27
5.30
4.93
4.25
3.38
2.42
1.36
0.19
-1.15
-2.70
-4.41
-6.15
-7.78
-9.20
-10.33
-11.17
-11.70
-11.93
-11.88
-11.65
-11.41
-11.38
-11.74
-12.52
-13.50
-14.35
-14.67
-14.22
-12.99
-11.18
-9.14
-7.17
-5.49
-4.17
-3.16
-2.42
-1.93
-1.71
-1.79
-2.16
-2.71
-3.29
-3.75
-3.98
-3.91
-3.51
-2.75
-1.64
-0.20
1.47
3.26
5.00
6.53
7.69
8.37
8.46
7.95
6.92
5.53
4.04
2.64
1.45
0.55
-0.05
-0.26
-0.01
0.80
2.11
3.74
5.37
6.65
7.36
7.40
6.88
5.96
4.82
3.60
2.40
1.27
0.31
-0.45
-1.01
-1.44
-1.87
-2.43
-3.13
-3.94
-4.70
-5.33
-5.81
-6.22
-6.70
-7.36
-8.26
-9.37
-10.68
-12.10
-13.51
-14.70
-15.38
-15.33
-14.42
-12.75
-10.55
-8.14
-5.77
-3.62
-1.76
-0.26
0.84
1.48
1.66
1.45
1.01
0.54
0.18
-0.04
-0.17
-0.32
-0.59
-0.97
-1.38
-1.68
-1.75
-1.60
-1.32
-1.09
-1.11
-1.51
-2.33
-3.45
-4.66
-5.69
-6.27
-6.20
-5.43
-3.99
-1.99
0.41
3.06
5.80
8.41
10.66
12.30
13.20
13.31
12.71
11.59
10.14
8.55
6.97
5.50
4.19
3.03
1.94
0.82
-0.44
-1.87
-3.40
-4.86
-6.11
-7.07
-7.83
-8.59
-9.60
-11.00
-12.79
-14.68
-16.26
-17.02
-16.62
-14.92
-12.02
-8.25
-4.02
0.27
4.27
7.77
10.59
12.62
13.74
13.92
13.23
11.88
10.24
8.67
7.46
6.65
6.07
5.44
4.55
3.35
2.04
0.94
0.32
0.24
0.49
0.73
0.58
-0.17
-1.53
-3.31
-5.21
-6.92
-8.12
-8.56
-8.07
-6.57
-4.11
-0.89
2.79
6.54
9.97
12.76
14.73
15.85
16.25
16.15
15.78
15.29
14.74
14.12
13.43
12.66
11.86
11.06
10.27
9.41
8.43
7.35
6.25
5.26
4.47
3.86
3.24
2.36
1.02
-0.83
-3.04
-5.27
-7.11
-8.21
-8.33
-7.41
-5.56
-3.02
-0.15
2.72
5.23
7.16
8.40
8.94
8.87
8.28
7.30
6.03
4.57
3.07
1.65
0.42
-0.58
-1.37
-1.99
-2.46
-2.82
-3.09
-3.35
-3.72
-4.32
-5.26
-6.56
-8.18
-10.04
-11.98
-13.78
-15.19
-15.90
-15.63
-14.23
-11.76
-8.47
-4.78
-1.13
2.14
4.82
6.81
8.10
8.70
8.64
7.98
6.90
5.63
4.46
3.63
3.25
3.25
3.38
3.34
2.89
1.94
0.60
-0.91
-2.38
-3.70
-4.89
-6.07
-7.35
-8.80
-10.38
-11.92
-13.20
-13.96
-13.96
-13.03
-11.15
-8.41
-5.07
-1.45
2.08
5.22
7.78
9.71
11.03
11.83
12.22
12.32
12.21
11.95
11.60
11.18
10.66
10.02
9.23
8.33
7.40
6.54
5.85
5.34
4.98
4.71
4.42
4.05
3.52
2.80
1.89
0.82
-0.30
-1.26
-1.84
-1.80
-1.02
0.46
2.47
4.78
7.19
9.61
11.99
14.30
16.39
18.05
19.06
19.34
19.01
18.33
17.60
16.99
16.46
15.79
14.73
13.17
11.18
8.96
6.74
4.60
2.52
0.39
-1.88
-4.25
-6.59
-8.73
-10.54
-11.96
-13.12
-14.15
-15.24
-16.50
-17.92
-19.44
-20.85
-21.79
-21.83
-20.48
-17.43
-12.71
-6.82
-0.61
4.94
9.08
11.48
12.29
12.01
11.24
10.44
9.89
9.72
9.98
10.66
11.70
12.87
13.87
14.37
14.16
13.29
12.01
10.73
9.82
9.51
9.81
10.58
11.55
12.45
12.97
12.88
12.09
10.68
9.00
7.58
6.99
7.63
9.57
12.53
16.02
19.51
22.65
25.25
27.28
28.73
29.58
29.79
29.41
28.61
27.60
26.47
25.08
23.04
19.88
15.31
9.52
3.27
-2.29
-5.99
-7.04
-5.41
-1.89
2.20
5.34
6.35
4.61
0.23
-6.06
-13.10
-19.56
-24.28
-26.50
-26.11
-23.62
-20.07
-16.60
-14.11
-12.92
-12.82
-13.20
-13.46
-13.21
-12.40
-11.18
-9.76
-8.24
-6.68
-5.15
-3.81
-2.93
-2.72
-3.19
-4.11
-5.10
-5.86
-6.33
-6.76
-7.53
-8.90
-10.89
-13.26
-15.65
-17.82
-19.74
-21.50
-23.20
-24.84
-26.27
-27.34
-27.99
-28.26
-28.20
-27.80
-26.91
-25.37
-23.11
-20.27
-17.21
-14.29
-11.79
-9.72
-7.89
-6.03
-3.98
-1.72
0.60
2.82
4.82
6.59
8.12
9.48
10.73
11.91
13.06
14.13
14.96
15.33
15.01
13.94
12.26
10.23
8.09
5.91
3.55
0.83
-2.26
-5.50
-8.44
-10.65
-11.88
-12.26
-12.10
-11.78
-11.58
-11.51
-11.49
-11.39
-11.20
-11.03
-11.05
-11.35
-11.90
-12.54
-13.02
-13.18
-13.03
-12.72
-12.50
-12.49
-12.69
-12.94
-13.03
-12.85
-12.43
-11.92
-11.47
-11.14
-10.87
-10.58
-10.23
-9.88
-9.70
-9.89
-10.56
-11.69
-13.17
-14.88
-16.70
-18.54
-20.24
-21.59
-22.30
-22.13
-21.01
-19.03
-16.50
-13.73
-10.95
-8.27
-5.66
-3.14
-0.81
1.14
2.50
3.16
3.22
2.97
2.76
2.92
3.59
4.77
6.37
8.21
10.12
11.95
13.55
14.79
15.55
15.76
15.48
14.82
13.88
12.71
11.22
9.29
6.83
3.94
0.91
-1.85
-3.91
-4.97
-4.96
-4.00
-2.38
-0.44
1.54
3.37
4.95
6.28
7.38
8.25
8.85
9.11
8.95
8.37
7.44
6.30
5.09
3.91
2.83
1.80
0.78
-0.34
-1.65
-3.26
-5.19
-7.40
-9.78
-12.12
-14.23
-15.99
-17.40
-18.56
-19.63
-20.74
-21.91
