1650353533.00
64.000000
-0.00
-0.00
-0.00
-0.00
-0.00
-0.00
-0.00
-0.00
-0.00
-0.00
0.00
0.01
0.01
-0.00
-0.03
-0.05
-0.05
0.00
0.13
0.36
0.66
1.01
1.37
1.72
2.06
2.40
2.79
3.24
3.80
4.42
5.06
5.66
6.20
6.68
7.15
7.68
8.31
9.14
10.09
11.04
11.88
12.56
13.14
13.76
14.65
15.96
17.91
20.32
22.90
25.38
27.58
29.57
31.68
34.32
37.81
42.54
48.15
54.11
59.84
64.98
69.58
74.14
79.34
85.70
93.77
103.02
112.66
121.78
129.79
136.70
143.13
150.43
157.31
166.08
177.33
191.17
206.36
219.96
227.59
224.60
207.64
175.86
131.67
78.95
22.01
-35.96
-93.49
-150.36
-206.71
-262.19
-315.89
-366.21
-412.19
-453.17
-488.68
-518.03
-539.94
-552.69
-554.37
-543.66
-520.08
-484.71
-439.75
-388.14
-332.89
-276.52
-220.80
-166.72
-114.81
-65.47
-19.44
22.24
58.43
88.20
111.20
127.87
139.31
146.95
152.09
155.49
157.32
157.32
155.08
150.28
142.79
132.68
120.39
107.11
94.93
86.62
84.75
90.50
102.80
118.40
133.01
142.93
146.31
143.50
136.34
126.91
116.68
106.21
95.63
85.12
75.23
66.78
60.12
55.02
50.83
46.75
42.20
37.13
31.93
27.22
23.56
21.10
19.58
18.41
16.93
14.66
11.49
7.67
3.75
0.32
-2.15
-3.42
-3.57
-2.96
-2.10
-1.50
-1.50
-2.16
-3.31
-4.67
-5.99
-7.08
-7.73
-7.71
-6.81
-5.00
-2.62
-0.33
1.12
1.24
0.07
-1.86
-3.80
-5.20
-5.86
-5.99
-5.89
-5.69
-5.33
-4.62
-3.48
-2.04
-0.65
0.35
0.77
0.64
0.18
-0.34
-0.76
-1.03
-1.24
-1.48
-1.78
-2.07
-2.24
-2.19
-1.94
-1.60
-1.32
-1.16
-1.03
-0.76
-0.20
0.64
1.57
2.32
2.68
2.66
2.49
2.46
2.79
3.54
4.55
5.63
6.61
7.39
7.96
8.30
8.34
7.97
7.15
5.89
4.32
2.71
1.23
-0.00
-0.94
-1.66
-2.28
-2.96
-3.74
-4.63
-5.56
-6.49
-7.35
-8.09
-8.72
-9.17
-9.44
-9.55
-9.49
-9.28
-8.93
-8.44
-7.80
-7.05
-6.32
-5.72
-5.31
-5.07
-4.92
-4.77
-4.53
-4.18
-3.74
-3.24
-2.71
-2.22
-1.86
-1.74
-1.86
-2.15
-2.42
-2.54
-2.44
-2.21
-2.01
-1.97
-2.06
-2.16
-2.01
-1.43
-0.39
1.01
2.53
3.95
5.09
5.86
6.26
6.33
6.11
5.66
5.04
4.33
3.59
2.87
2.19
1.50
0.80
0.13
-0.41
-0.70
-0.68
-0.39
0.02
0.36
0.45
0.28
-0.07
-0.49
-0.91
-1.40
-2.03
-2.83
-3.70
-4.46
-4.92
-5.09
-5.11
-5.26
-5.76
-6.64
-7.75
-8.88
-9.85
-10.62
-11.23
-11.68
-11.85
-11.53
-10.48
-8.64
-6.14
-3.27
-0.38
2.28
4.59
6.51
8.00
9.05
9.63
9.76
9.52
9.01
8.33
7.54
6.66
5.73
4.81
3.98
3.27
2.68
2.19
1.77
1.43
1.18
1.03
0.95
0.87
0.75
0.58
0.39
0.24
0.12
0.02
-0.16
-0.47
-0.95
-1.60
-2.40
-3.33
-4.37
-5.49
-6.66
-7.82
-8.87
-9.67
-10.07
-9.88
-9.01
-7.44
-5.26
-2.64
0.18
3.00
5.61
7.84
9.55
10.66
11.14
11.01
10.36
9.34
8.10
6.85
5.78
5.01
4.63
4.57
4.73
4.93
5.06
5.08
5.00
4.85
4.61
4.23
3.65
2.86
1.94
1.02
0.20
-0.51
-1.19
-1.97
-2.93
-4.06
-5.22
-6.25
-7.06
-7.67
-8.21
-8.80
-9.49
-10.19
-10.72
-10.87
-10.49
-9.50
-7.94
-5.96
-3.70
-1.29
1.13
3.48
5.68
7.59
9.02
9.79
9.80
9.12
7.97
6.67
5.53
4.67
4.09
3.65
3.21
2.70
2.14
1.59
1.07
0.59
0.11
-0.42
-1.01
-1.71
-2.55
-3.57
-4.77
-6.10
-7.46
-8.73
-9.87
-10.87
-11.84
-12.88
-14.08
-15.46
-16.96
-18.49
-19.91
-21.06
-21.77
-21.82
-21.00
-19.12
-16.13
-12.13
-7.38
-2.24
2.88
7.63
11.78
15.20
17.84
19.71
20.84
21.33
21.23
20.67
19.77
18.69
17.55
16.47
15.48
14.53
13.54
12.45
11.31
10.23
9.35
8.74
8.31
7.87
7.21
6.21
4.90
3.45
2.03
0.75
-0.37
-1.37
-2.30
-3.20
-4.08
-5.00
-6.01
-7.18
-8.52
-9.88
-11.04
-11.70
-11.62
-10.70
-8.96
-6.60
-3.87
-1.03
1.66
4.02
5.90
7.26
8.07
8.37
8.23
7.77
7.09
6.30
5.51
4.78
4.19
3.75
3.46
3.24
3.03
2.75
2.40
2.01
1.68
1.47
1.39
1.33
1.17
0.76
0.06
-0.88
-1.91
-2.88
-3.69
-4.31
-4.81
-5.29
-5.86
-6.57
-7.43
-8.39
-9.31
-10.02
-10.32
-10.05
-9.12
-7.53
-5.42
-2.98
-0.46
1.89
3.87
5.36
6.36
6.97
7.31
7.49
7.52
7.39
7.08
6.60
6.07
5.60
5.28
5.08
4.91
4.66
4.29
3.81
3.27
2.76
2.32
1.93
1.57
1.23
0.88
0.51
0.09
-0.40
-0.96
-1.60
-2.27
-2.91
-3.47
-3.92
-4.29
-4.69
-5.21
-5.92
-6.82
-7.83
-8.79
-9.51
-9.80
-9.54
-8.67
-7.29
-5.57
-3.68
-1.77
0.08
1.89
3.65
5.31
6.68
7.55
7.70
7.06
5.72
3.93
2.06
0.45
-0.62
-1.09
-1.07
-0.83
-0.70
-0.92
-1.58
-2.55
-3.56
-4.35
-4.74
-4.77
-4.71
-4.95
-5.91
-7.80
-10.50
-13.43
-15.58
-15.83
-13.29
-7.73
0.27
9.38
17.94
24.49
28.16
28.85
27.08
23.69
19.53
15.26
11.37
8.20
6.01
4.90
4.77
5.28
5.93
6.17
5.69
4.40
2.53
0.44
-1.52
-3.08
-4.19
-4.94
-5.48
-5.97
-6.52
-7.10
-7.59
-7.81
-7.60
-6.92
-5.88
-4.75
-3.85
-3.44
-3.59
-4.15
-4.80
-5.24
-5.28
-4.91
-4.34
-3.85
-3.67
-3.96
-4.68
-5.64
-6.60
-7.24
-7.36
-6.84
-5.66
-3.95
-1.90
0.23
2.20
3.75
4.74
5.14
5.04
4.65
4.15
3.66
3.24
2.81
2.32
1.78
1.26
0.84
0.56
0.40
0.25
0.01
-0.39
-0.94
-1.58
-2.28
-3.02
-3.79
-4.56
-5.25
-5.77
-6.03
-6.03
-5.86
-5.70
-5.70
-5.99
-6.58
-7.43
-8.48
-9.63
-10.76
-11.70
-12.21
-12.07
-11.15
-9.47
-7.23
-4.71
-2.16
0.27
2.52
4.60
6.46
8.05
9.30
10.17
10.67
10.81
10.62
10.10
9.27
8.20
7.08
6.10
5.49
5.35
5.72
6.49
7.44
8.35
8.97
9.16
8.90
8.27
7.45
6.60
5.81
5.07
4.30
3.44
2.46
1.37
0.14
-1.28
-2.96
-4.82
-6.65
-8.11
-8.92
-9.07
-8.87
-8.82
-9.31
-10.35
-11.56
-12.31
-12.11
-10.95
-9.24
-7.65
-6.82
-7.07
-8.37
-10.37
-12.54
-14.24
-14.88
-14.09
-11.88
-8.69
-5.33
-2.71
-1.51
-1.97
-3.79
-6.31
-8.72
-10.31
-10.63
-9.60
-7.50
-4.87
-2.35
-0.46
0.58
0.83
0.54
-0.07
-0.83
-1.64
-2.35
-2.70
-2.32
-0.96
1.40
4.46
7.68
10.52
12.61
13.83
14.27
14.12
13.51
12.53
11.23
9.72
8.18
6.84
5.89
5.44
5.43
5.71
6.03
6.17
5.94
5.27
4.20
2.85
1.41
0.08
-0.94
-1.54
-1.66
-1.32
-0.59
0.40
1.48
2.42
3.00
3.03
2.42
1.26
-0.20
-1.62
-2.66
-3.10
-2.80
-1.76
-0.05
2.23
4.92
7.80
10.58
12.98
14.82
16.04
16.72
17.03
17.08
16.91
16.51
15.86
15.01
14.06
13.12
12.24
11.42
10.59
9.77
9.01
8.40
7.95
7.55
6.92
5.82
4.13
1.97
-0.35
-2.45
-4.09
-5.25
-6.11
-6.98
-8.13
-9.65
-11.49
-13.43
-15.20
-16.55
-17.27
-17.25
-16.45
-14.97
-13.02
-10.88
-8.86
-7.22
-6.03
-5.22
-4.61
-4.01
-3.28
-2.42
-1.51
-0.67
-0.03
0.35
0.46
0.37
0.21
0.11
0.20
0.52
1.04
1.60
2.01
2.06
1.57
0.49
-1.13
-3.07
-5.03
-6.65
-7.66
-7.97
-7.67
-7.04
-6.45
-6.22
-6.50
-7.28
-8.39
-9.55
-10.46
-10.87
-10.59
-9.56
-7.77
-5.36
-2.53
0.41
3.14
5.34
6.82
7.52
7.57
7.21
6.69
6.17
5.71
5.28
4.85
4.44
4.09
3.89
3.85
3.93
4.08
4.25
4.42
4.58
4.66
4.56
4.17
3.45
2.46
1.35
0.27
-0.70
-1.57
-2.41
-3.29
-4.21
-5.13
-5.96
-6.59
-6.86
-6.63
-5.78
-4.27
-2.21
0.17
2.56
4.70
6.46
7.80
8.76
9.37
9.66
9.64
9.36
8.92
8.42
7.90
7.35
6.73
6.01
5.21
4.41
3.68
3.04
2.51
2.08
1.77
1.60
1.56
1.54
1.37
0.91
0.14
-0.82
-1.78
-2.59
-3.25
-3.86
-4.60
-5.58
-6.77
-8.04
-9.22
-10.12
-10.58
-10.50
-9.80
-8.47
-6.61
-4.38
-2.01
0.31
2.48
4.44
6.18
7.65
8.76
9.41
9.54
9.17
8.43
7.49
6.53
5.69
5.01
4.47
4.02
3.59
3.15
2.72
2.39
2.23
2.25
2.39
2.49
2.40
2.02
1.34
0.45
-0.56
-1.63
-2.74
-3.90
-5.10
-6.26
-7.31
-8.19
-8.90
-9.43
-9.73
-9.71
-9.19
-8.05
-6.28
-4.03
-1.54
0.89
3.04
4.79
6.09
6.96
7.45
7.60
7.46
7.10
6.57
5.97
5.40
4.92
4.56
4.28
3.97
3.51
2.87
2.09
1.31
0.67
0.24
-0.02
-0.24
-0.57
-1.04
-1.63
-2.20
-2.69
-3.07
-3.45
-3.96
-4.73
-5.78
-7.06
-8.39
-9.55
-10.27
-10.37
-9.70
-8.29
-6.23
-3.76
-1.11
1.45
3.72
5.55
6.87
7.63
7.85
7.62
7.05
6.29
5.49
4.76
4.12
3.54
2.99
2.46
2.00
1.66
1.48
1.44
1.46
1.49
1.51
1.53
1.56
1.57
1.51
1.29
0.87
0.26
-0.51
-1.44
-2.55
-3.90
-5.45
-7.07
-8.47
-9.34
-9.41
-8.60
-7.01
-4.92
-2.65
-0.50
1.35
2.87
4.14
5.24
6.24
7.10
7.72
7.96
7.71
6.99
5.88
4.56
3.21
1.98
0.95
0.18
-0.33
-0.60
-0.67
-0.58
-0.42
-0.27
-0.21
-0.28
-0.49
-0.82
-1.25
-1.73
-2.21
-2.65
-3.06
-3.48
-4.02
-4.78
-5.81
-7.03
-8.27
-9.23
-9.66
-9.40
-8.42
-6.86
-4.92
-2.84
-0.79
1.08
2.67
3.89
4.68
5.02
4.91
4.45
3.77
3.05
2.43
2.00
1.72
1.54
1.35
1.12
0.88
0.69
0.62
0.64
0.64
0.51
0.17
-0.39
-1.03
-1.65
-2.16
-2.60
-3.06
-3.65
-4.42
-5.34
-6.29
-7.11
-7.62
-7.70
-7.29
-6.38
-4.98
-3.20
-1.17
0.96
3.00
4.80
6.24
7.23
7.75
7.80
7.46
6.82
6.01
5.14
4.33
3.69
3.28
3.10
3.13
3.30
3.49
3.59
3.50
3.21
2.74
2.15
1.52
0.88
0.25
-0.42
-1.18
-2.04
-3.02
-4.12
-5.32
-6.58
-7.82
-8.92
-9.69
-9.96
-9.60
-8.54
-6.85
-4.71
-2.32
0.08
2.28
4.14
5.55
6.50
7.00
7.15
7.03
6.72
6.28
5.74
5.13
4.48
3.89
3.42
3.10
2.88
2.70
2.45
2.07
1.57
1.04
0.54
0.16
-0.12
-0.36
-0.66
-1.11
-1.80
-2.70
-3.75
-4.90
-6.06
-7.18
-8.19
-8.99
-9.41
-9.30
-8.53
-7.07
-5.02
-2.62
-0.15
2.12
4.04
5.51
6.56
7.20
7.45
7.29
6.76
5.94
4.97
4.03
3.29
2.81
2.57
2.46
2.37
2.24
2.06
1.86
1.66
1.43
1.12
0.68
0.11
-0.57
-1.32
-2.10
-2.88
-3.68
-4.48
-5.29
-6.12
-6.96
-7.78
-8.52
-9.07
-9.29
-9.03
-8.24
-6.95
-5.27
-3.38
-1.41
0.54
2.40
4.11
5.60
6.80
7.63
8.06
8.13
7.90
7.43
6.75
5.90
4.93
3.94
3.07
2.42
2.01
1.79
1.60
1.35
0.99
0.54
0.07
-0.36
-0.76
-1.20
-1.73
-2.43
-3.32
-4.36
-5.51
-6.67
-7.73
-8.54
-8.95
-8.86
-8.19
-6.99
-5.33
-3.39
-1.35
0.63
2.38
3.84
4.98
5.82
6.42
6.81
7.01
7.02
6.82
6.39
5.74
4.89
3.91
2.92
2.04
1.40
1.04
0.96
1.03
1.12
1.04
0.70
0.09
-0.73
-1.65
-2.53
-3.27
-3.83
-4.24
-4.58
-4.94
-5.41
-6.01
-6.71
-7.39
-7.87
-7.93
-7.38
-6.13
-4.23
-1.92
0.43
2.48
4.02
5.06
5.79
6.43
7.07
7.64
7.89
7.62
6.75
5.44
3.98
2.71
1.87
1.53
1.63
2.01
2.43
2.67
2.54
1.93
0.82
-0.64
-2.23
-3.67
-4.74
-5.34
-5.54
-5.54
-5.55
-5.72
-6.08
-6.56
-7.04
-7.42
-7.73
-8.05
-8.42
-8.81
-8.99
-8.67
-7.56
-5.58
-2.91
0.07
2.83
4.96
6.22
6.60
6.29
5.56
4.65
3.76
3.04
2.56
2.31
2.21
2.13
1.95
1.66
1.39
1.33
1.63
2.32
3.20
4.02
4.50
4.54
4.18
3.57
2.87
2.16
1.44
0.66
-0.29
-1.49
-3.04
-4.95
-7.03
-8.90
-10.05
-9.98
-8.48
-5.69
-2.13
1.54
4.73
7.10
8.63
9.51
10.00
10.30
10.52
10.65
10.60
10.26
9.57
8.56
7.41
6.38
5.74
5.62
6.02
6.69
7.34
7.63
7.37
6.45
4.96
3.09
1.09
-0.75
-2.26
-3.38
-4.19
-4.86
-5.57
-6.35
-7.12
-7.71
-7.97
-7.83
-7.34
-6.63
-5.81
-4.89
-3.81
-2.50
-0.96
0.67
2.06
2.83
2.71
1.63
-0.16
-2.21
-3.96
-5.02
-5.25
-4.83
-4.10
-3.45
-3.09
-3.05
-3.26
-3.62
-4.09
-4.73
-5.53
-6.43
-7.27
-7.91
-8.28
-8.48
-8.62
-8.71
-8.57
-7.88
-6.32
-3.80
-0.50
3.16
6.75
9.91
12.44
14.22
15.13
15.10
14.17
12.60
10.83
9.38
8.58
8.44
8.62
8.67
8.17
6.98
5.24
3.24
1.23
-0.70
-2.62
-4.69
-7.02
-9.61
-12.37
-15.19
-17.95
-20.55
-22.76
-24.25
-24.51
-23.09
-19.75
-14.60
-8.17
-1.26
5.21
10.43
13.85
15.23
14.73
12.87
10.44
8.37
7.42
7.97
9.91
12.60
15.16
16.71
16.71
15.04
11.97
7.96
3.49
-1.12
-5.59
-9.66
-12.97
-15.10
-15.75
-14.91
-12.90
-10.33
-7.81
-5.73
-4.14
-2.80
-1.42
0.14
1.81
3.31
4.36
4.79
4.59
3.90
2.96
2.00
1.17
0.58
0.20
-0.02
-0.20
-0.43
-0.71
-1.01
-1.26
-1.39
-1.40
-1.31
-1.22
-1.20
-1.28
-1.48
-1.78
-2.12
-2.44
-2.72
-2.97
-3.24
-3.64
-4.29
-5.23
-6.41
-7.61
-8.57
-8.96
-8.57
-7.36
-5.43
-3.04
-0.50
1.94
4.07
5.85
7.25
8.30
9.00
9.33
9.28
8.88
8.20
7.36
6.47
5.62
4.83
4.11
3.47
2.92
2.55
2.37
2.33
2.31
2.15
1.74
1.05
0.19
-0.75
-1.67
-2.56
-3.44
-4.31
-5.16
-5.96
-6.68
-7.30
-7.79
-8.08
-8.03
-7.51
-6.46
-4.93
-3.09
-1.13
0.77
2.54
4.15
5.61
6.85
7.75
8.16
7.97
7.20
6.00
4.63
3.40
2.53
2.14
2.12
2.30
2.43
2.36
2.05
1.60
1.12
0.71
0.41
0.14
-0.14
-0.50
-0.95
-1.48
-2.06
-2.71
-3.44
-4.26
-5.14
-6.03
-6.86
-7.54
-8.02
-8.22
-8.06
-7.44
-6.29
-4.61
-2.51
-0.20
2.08
4.11
5.78
7.08
8.04
8.69
9.00
8.91
8.39
7.50
6.40
5.32
4.44
3.82
3.39
2.98
2.49
1.87
1.20
0.58
0.12
-0.15
-0.27
-0.33
-0.40
-0.55
-0.85
-1.37
-2.15
-3.18
-4.40
-5.66
-6.83
-7.79
-8.50
-8.95
-9.13
-8.98
-8.41
-7.33
-5.73
-3.68
-1.40
0.87
2.90
4.57
5.86
6.83
7.54
8.01
8.22
8.10
7.61
6.78
5.73
4.63
3.63
2.85
2.30
1.94
1.70
1.45
1.13
0.67
0.07
-0.61
-1.28
-1.86
-2.30
-2.64
-2.93
-3.27
-3.72
-4.33
-5.12
-6.10
-7.23
-8.41
-9.44
-10.11
-10.21
-9.63
-8.39
-6.62
-4.51
-2.30
-0.21
1.59
2.99
3.97
4.61
5.03
5.36
5.64
5.87
5.95
5.79
5.36
4.72
4.01
3.35
2.85
2.52
2.31
2.12
1.88
1.55
1.12
0.61
0.06
-0.51
-1.06
-1.57
-1.99
-2.34
-2.63
-2.95
-3.40
-4.08
-5.02
-6.21
-7.49
-8.63
-9.36
-9.45
-8.79
-7.44
-5.58
-3.46
-1.30
0.72
2.51
4.00
5.13
5.90
6.34
6.53
6.58
6.52
6.34
5.98
5.42
4.72
4.02
3.44
3.00
2.66
2.32
1.94
1.53
1.19
0.98
0.89
0.82
0.62
0.16
-0.60
-1.58
-2.64
-3.66
-4.56
-5.39
-6.18
-6.96
-7.64
-8.01
-7.85
-7.03
-5.57
-3.67
-1.59
0.43
2.24
3.81
5.13
6.17
6.87
7.18
7.09
6.64
5.92
5.03
4.06
3.10
2.19
1.38
0.68
0.11
-0.36
-0.73
-1.04
-1.30
-1.56
-1.84
-2.15
-2.49
-2.87
-3.32
-3.88
-4.57
-5.40
-6.34
-7.33
-8.29
-9.14
-9.77
-10.06
-9.85
-9.05
-7.64
-5.75
-3.57
-1.36
0.70
2.54
4.18
5.64
6.90
7.90
8.52
8.70
8.45
7.84
6.99
6.03
5.08
4.24
3.62
3.25
3.16
3.27
3.47
3.58
3.46
3.02
2.24
1.20
-0.00
-1.24
-2.44
-3.55
-4.62
-5.68
-6.76
-7.84
-8.80
-9.51
-9.84
-9.68
-8.99
-7.77
-6.10
-4.08
-1.87
0.37
2.50
4.41
6.00
7.23
8.05
8.42
8.33
7.83
7.00
6.00
4.96
4.02
3.30
2.86
2.69
2.74
2.85
2.88
2.74
2.38
1.88
1.29
0.69
0.10
-0.49
-1.09
-1.72
-2.40
-3.16
-4.07
-5.14
-6.35
-7.54
-8.53
-9.08
-9.01
-8.25
-6.83
-4.86
-2.53
-0.03
2.40
4.57
6.33
7.59
8.37
8.71
8.71
8.43
7.96
7.33
6.58
5.75
4.92
4.17
3.55
3.09
2.77
2.51
2.26
1.99
1.68
1.34
0.96
0.53
-0.02
-0.75
-1.73
-2.96
-4.41
-5.98
-7.57
-9.03
-10.24
-11.12
-11.54
-11.39
-10.57
-9.03
-6.86
-4.26
-1.53
1.04
3.27
5.08
6.47
7.47
8.06
8.22
7.94
7.29
6.37
5.35
4.36
3.47
2.74
2.18
1.81
1.61
1.55
1.54
1.50
1.35
1.06
0.66
0.21
-0.24
-0.69
-1.17
-1.79
-2.64
-3.78
-5.20
-6.81
-8.40
-9.75
-10.63
-10.88
-10.41
-9.19
-7.31
-4.93
-2.25
0.46
2.95
5.00
6.48
7.34
7.57
7.28
6.56
5.55
4.39
3.21
2.18
1.44
1.10
1.15
1.51
2.01
2.49
2.85
3.12
3.33
3.48
3.49
3.24
2.63
1.68
0.55
-0.57
-1.51
-2.22
-2.78
-3.36
-4.10
-5.06
-6.19
-7.34
-8.27
-8.71
-8.41
-7.24
-5.21
-2.52
0.56
3.65
6.44
8.67
10.20
11.01
11.19
10.89
10.32
9.63
8.87
8.04
7.06
5.93
4.69
3.48
2.47
1.79
1.49
1.51
1.72
1.92
1.93
1.62
0.98
0.12
-0.80
-1.63
-2.32
-2.93
-3.58
-4.39
-5.38
-6.50
-7.62
-8.62
-9.39
-9.82
-9.76
-9.07
-7.70
-5.70
-3.33
-0.94
1.16
2.77
3.90
4.70
5.33
5.90
6.38
6.64
6.50
5.87
4.73
3.24
1.69
0.37
-0.44
-0.65
-0.33
0.29
0.93
1.37
1.53
1.41
1.07
0.56
-0.11
-0.92
-1.81
-2.67
-3.41
-4.00
-4.53
-5.19
-6.11
-7.33
-8.67
-9.85
-10.52
-10.46
-9.56
-7.88
-5.59
-2.90
-0.04
2.78
5.38
7.59
9.31
10.45
10.99
10.95
10.42
9.55
8.48
7.37
6.31
5.35
4.50
3.72
3.00
2.36
1.82
1.42
1.11
0.83
0.45
-0.11
-0.84
-1.69
-2.55
-3.33
-3.99
-4.54
-5.07
-5.64
-6.30
-7.10
-8.03
-9.05
-10.05
-10.84
-11.19
-10.91
-9.92
-8.27
-6.14
-3.71
-1.14
1.41
3.82
5.92
7.56
8.64
9.15
9.20
8.91
8.40
7.67
6.73
5.63
4.51
3.56
2.94
2.70
2.73
2.89
3.04
3.12
3.13
3.03
2.75
2.21
1.40
0.41
-0.59
-1.45
-2.12
-2.71
-3.37
-4.27
-5.51
-7.02
-8.67
-10.25
-11.50
-12.15
-11.97
-10.82
-8.76
-6.00
-2.90
0.17
2.92
5.20
6.97
8.25
9.05
9.37
9.24
8.72
7.92
6.99
6.04
5.13
4.30
3.57
2.97
2.55
2.31
2.22
2.17
2.05
1.79
1.34
0.73
-0.00
-0.86
-1.84
-2.92
-4.02
-5.04
-5.91
-6.62
-7.24
-7.90
-8.67
-9.48
-10.17
-10.42
-9.98
-8.68
-6.58
-3.92
-1.07
1.61
3.90
5.73
7.16
8.27
9.10
9.57
9.59
9.13
8.29
7.29
6.34
5.58
5.01
4.56
4.15
3.75
3.43
3.23
3.16
3.12
2.98
2.61
1.98
1.17
0.26
-0.66
-1.56
-2.45
-3.36
-4.29
-5.21
-6.12
-7.03
-7.98
-8.92
-9.73
-10.23
-10.17
-9.43
-8.01
-6.07
-3.85
-1.61
0.51
2.43
4.17
5.71
6.98
7.87
8.31
8.30
7.92
7.33
6.70
6.13
5.66
5.30
5.02
4.81
4.65
4.52
4.40
4.24
4.02
3.69
3.25
2.69
1.99
1.21
0.42
-0.26
-0.75
-1.04
-1.21
-1.46
-1.98
-2.94
-4.32
-5.99
-7.65
-8.97
-9.66
-9.52
-8.51
-6.70
-4.27
-1.50
1.33
3.98
6.25
7.99
9.10
9.48
9.04
7.76
5.75
3.27
0.75
-1.46
-3.11
-4.20
-4.94
-5.60
-6.42
-7.49
-8.75
-10.10
-11.39
-12.52
-13.42
-13.98
-14.13
-13.85
-13.22
-12.44
-11.75
-11.42
-11.58
-12.22
-13.11
-13.78
-13.65
-12.14
-8.94
-4.06
2.06
8.72
15.13
20.64
24.77
27.24
27.86
26.59
23.58
19.29
14.44
9.83
6.08
3.44
1.72
0.48
-0.73
-2.13
-3.67
-5.15
-6.32
-7.09
-7.51
-7.72
-7.82
-7.86
-7.77
-7.43
-6.72
-5.62
-4.22
-2.74
-1.48
-0.69
-0.52
-0.92
-1.67
-2.46
-3.03
-3.23
-3.03
-2.45
-1.50
-0.13
1.71
4.02
6.65
9.33
11.73
13.62
14.87
15.45
15.42
14.83
13.72
12.17
10.29
8.26
6.32
4.70
3.51
2.81
2.56
2.69
3.13
3.77
4.48
5.06
5.29
5.00
4.11
2.65
0.77
-1.33
-3.43
-5.36
-6.98
-8.26
-9.22
-9.98
-10.73
-11.67
-12.89
-14.33
-15.77
-16.81
-17.05
-16.22
-14.26
-11.34
-7.86
-4.30
-1.14
1.31
2.90
3.64
3.67
3.20
2.47
1.72
1.10
0.70
0.50
0.43
0.38
0.30
0.20
0.12
0.12
0.21
0.30
0.29
0.00
-0.67
-1.80
-3.28
-4.89
-6.30
-7.17
-7.35
-6.97
-6.51
-6.63
-7.86
-10.34
-13.61
-16.73
-18.60
-18.37
-15.75
-11.14
-5.37
0.58
5.95
10.27
13.40
15.33
16.11
15.79
14.54
12.71
10.82
9.44
8.99
9.58
11.00
12.81
14.52
15.73
16.19
15.78
14.47
12.32
9.45
6.10
2.58
-0.78
-3.72
-6.07
-7.69
-8.49
-8.40
-7.44
-5.84
-4.05
-2.61
-1.94
-2.13
-2.87
-3.53
-3.45
-2.21
0.21
3.42
6.82
9.78
11.82
12.73
12.53
11.46
9.82
7.95
6.10
4.45
3.05
1.88
0.87
-0.04
-0.93
-1.80
-2.65
-3.43
-4.12
-4.70
-5.17
-5.55
-5.85
-6.07
-6.23
-6.32
-6.37
-6.41
-6.53
-6.86
-7.51
-8.51
-9.80
-11.12
-12.11
-12.37
-11.60
-9.72
-6.89
-3.44
0.22
3.72
6.76
9.12
10.67
11.33
11.17
10.37
9.20
7.94
6.84
6.01
5.43
5.04
4.76
4.54
4.32
4.07
3.73
3.31
2.81
2.30
1.83
1.42
1.05
0.68
0.22
-0.41
-1.30
-2.51
-4.06
-5.86
-7.69
-9.25
-10.24
-10.40
-9.66
-8.06
-5.80
-3.15
-0.38
2.23
4.48
6.22
7.38
7.96
8.06
7.77
7.21
6.47
5.63
4.73
3.83
2.98
2.25
1.68
1.29
1.02
0.81
0.54
0.17
-0.31
-0.85
-1.41
-1.97
-2.59
-3.31
-4.19
-5.21
-6.35
-7.52
-8.67
-9.72
-10.62
-11.25
-11.45
-11.06
-9.97
-8.16
-5.74
-2.94
-0.04
2.68
5.00
6.83
8.14
8.97
9.36
9.35
8.97
8.24
7.26
6.15
5.06
4.09
3.32
2.74
2.30
1.95
1.62
1.27
0.86
0.39
-0.15
-0.69
-1.21
-1.68
-2.14
-2.68
-3.37
-4.27
-5.36
-6.58
-7.87
-9.11
-10.16
-10.85
-10.96
-10.31
-8.84
-6.65
-3.97
-1.13
1.58
3.99
6.00
7.57
8.69
9.32
9.45
9.12
8.49
7.73
7.00
6.39
5.93
5.56
5.24
4.95
4.69
4.46
4.21
3.88
3.39
2.74
1.96
1.15
0.40
-0.28
-0.97
-1.72
-2.59
-3.56
-4.57
-5.58
-6.60
-7.69
-8.86
-10.00
-10.87
-11.10
-10.41
-8.69
-6.10
-3.00
0.16
3.02
5.38
7.20
8.57
9.53
10.08
10.19
9.83
9.08
8.09
7.09
6.23
5.57
5.09
4.68
4.25
3.74
3.14
2.49
1.85
1.28
0.81
0.46
0.17
-0.15
-0.59
-1.21
-2.00
-2.88
-3.74
-4.52
-5.23
-5.95
-6.79
-7.80
-8.98
-10.19
-11.26
-11.96
-12.09
-11.50
-10.07
-7.84
-4.96
-1.71
1.52
4.36
6.52
7.92
8.65
8.93
8.98
8.93
8.79
8.49
8.00
7.33
6.53
5.72
4.96
4.27
3.62
3.03
2.53
2.18
2.02
2.05
2.15
2.18
2.02
1.62
0.98
0.15
-0.83
-1.94
-3.17
-4.46
-5.70
-6.78
-7.67
-8.41
-9.16
-10.05
-11.07
-11.99
-12.48
-12.22
-11.09
-9.16
-6.71
-4.04
-1.39
1.08
3.29
5.18
6.68
7.70
8.22
8.23
7.79
7.01
6.04
5.01
4.08
3.34
2.84
2.58
2.50
2.55
2.63
2.69
2.67
2.54
2.34
2.08
1.81
1.50
1.10
0.56
-0.11
-0.86
-1.62
-2.34
-3.00
-3.63
-4.22
-4.71
-5.07
-5.29
-5.44
-5.62
-5.88
-6.17
-6.34
-6.13
-5.32
-3.82
-1.74
0.73
3.29
5.69
7.70
9.19
10.13
10.57
10.54
10.02
9.05
7.76
6.32
4.96
3.78
2.86
2.11
1.37
0.46
-0.63
-1.70
-2.51
-2.95
-3.06
-2.96
-2.82
-2.95
-3.83
-5.56
-7.94
-10.54
-12.95
-14.94
-16.19
-16.58
-16.41
-16.63
-17.67
-19.43
-21.35
-22.86
-23.60
-23.09
-21.25
-18.65
-16.89
-16.71
-17.95
-19.59
-20.33
-18.59
-12.16
0.85
20.93
45.98
73.35
100.12
123.68
141.99
150.19
145.33
128.69
110.20
93.52
79.19
65.42
51.70
37.91
24.10
10.95
-1.07
-12.21
-24.15
-37.61
-52.26
-66.85
-80.03
-90.64
-97.57
-100.36
-99.46
-96.65
-93.06
-89.13
-84.72
-79.72
-74.08
-67.62
-60.23
-52.09
-44.10
-36.71
-30.13
-24.31
-19.25
-15.00
-11.44
-8.41
-5.83
-3.90
-2.61
-1.83
-1.31
-0.90
-0.43
0.26
1.30
2.70
4.24
5.70
6.86
7.59
7.84
7.65
7.17
6.52
5.85
5.24
4.72
4.25
3.78
3.27
2.70
2.04
1.27
0.39
-0.60
-1.60
-2.42
-2.80
-2.48
-1.31
0.76
3.63
7.12
11.02
15.10
19.10
22.74
25.73
27.85
29.03
29.30
28.78
27.64
25.97
23.87
21.42
18.78
16.22
13.97
12.20
10.88
9.83
8.81
7.59
6.12
4.50
2.91
1.53
0.41
-0.47
-1.21
-1.90
-2.55
-3.15
-3.70
-4.27
-4.96
-5.85
-6.92
-7.95
-8.66
-8.69
-7.84
-6.11
-3.71
-1.04
1.53
3.75
5.52
6.89
7.94
8.72
9.15
9.13
8.59
7.60
6.34
5.07
3.97
3.14
2.52
1.97
1.39
0.75
0.12
-0.37
-0.66
-0.79
-0.89
-1.10
-1.49
-2.06
-2.69
-3.32
-3.99
-4.83
-6.00
-7.57
-9.39
-11.13
-12.40
-12.88
-12.40
-10.99
-8.85
-6.21
-3.35
-0.55
1.95
3.97
5.45
6.43
7.00
7.29
7.36
7.22
6.86
6.27
5.51
4.71
3.99
3.43
3.01
2.67
2.36
2.07
1.82
1.61
1.43
1.19
0.77
0.12
-0.78
-1.83
-2.93
-3.94
-4.85
-5.69
-6.55
-7.49
-8.53
-9.55
-10.37
-10.74
-10.43
-9.32
-7.45
-4.98
-2.21
0.55
3.06
5.19
6.86
8.04
8.68
8.74
8.21
7.17
5.85
4.53
3.48
2.82
2.54
2.50
2.51
2.46
2.33
2.17
1.98
1.73
1.34
0.74
-0.00
-0.78
-1.45
-1.98
-2.43
-3.00
-3.92
-5.27
-6.98
-8.77
-10.20
-10.87
-10.50
-9.06
-6.74
-3.89
-0.90
1.90
4.33
6.32
7.88
9.00
9.65
9.80
9.45
8.66
7.56
6.31
5.08
4.02
3.21
2.64
2.27
2.00
1.73
1.39
0.94
0.37
-0.30
-1.05
-1.81
-2.52
-3.15
-3.71
-4.27
-4.93
-5.82
-6.97
-8.34
-9.78
-11.07
-11.98
-12.30
-11.90
-10.69
-8.70
-6.05
-2.97
0.24
3.23
5.74
7.64
8.95
9.79
10.33
10.62
10.63
10.26
9.49
8.39
7.17
6.07
5.27
4.82
4.64
4.57
4.50
4.32
3.98
3.46
2.73
1.81
0.73
-0.42
-1.56
-2.66
-3.71
-4.76
-5.89
-7.12
-8.44
-9.80
-11.10
-12.25
-13.12
-13.52
-13.27
-12.21
-10.29
-7.62
-4.42
-0.99
2.42
5.62
8.47
10.89
12.77
13.99
14.46
14.19
13.29
11.98
10.52
9.15
8.05
7.29
6.83
6.59
6.42
6.24
5.98
5.65
5.23
4.68
3.90
2.77
1.22
-0.72
-2.92
-5.17
-7.33
-9.28
-11.00
-12.52
-13.88
-15.08
-16.11
-16.88
-17.27
-17.04
-15.98
-13.93
-10.88
-7.03
-2.76
1.46
5.25
8.30
10.52
11.97
12.84
13.40
13.94
14.68
15.73
17.04
18.38
19.47
20.08
20.05
19.46
18.50
17.43
16.42
15.52
14.55
13.26
11.37
8.76
5.47
1.73
-2.15
-5.87
-9.17
-11.77
-13.49
-14.22
-14.06
-13.32
-12.43
-11.75
-11.47
-11.49
-11.52
-11.24
-10.43
-9.01
-7.03
-4.60
-1.83
1.15
4.14
6.95
9.44
11.56
13.35
14.92
16.31
17.51
18.41
18.89
18.81
18.05
16.52
14.23
11.32
8.10
5.04
2.58
1.05
0.54
0.87
1.69
2.56
3.14
3.22
2.79
1.98
1.01
0.11
-0.60
-1.11
-1.61
-2.32
-3.49
-5.25
-7.60
-10.42
-13.49
-16.55
-19.27
-21.30
-22.33
-22.14
-20.70
-18.21
-15.00
-11.42
-7.77
-4.25
-0.99
1.91
4.34
6.19
7.39
8.00
8.11
7.82
7.23
6.38
5.40
4.42
3.61
3.07
2.76
2.57
2.34
1.97
1.49
0.98
0.52
0.12
-0.31
-0.85
-1.60
-2.54
-3.64
-4.85
-6.09
-7.34
-8.53
-9.63
-10.63
-11.55
-12.47
-13.49
-14.66
-15.93
-17.13
-17.97
-18.12
-17.32
-15.45
-12.61
-9.10
-5.28
-1.54
1.87
4.82
7.28
9.23
10.63
11.40
11.50
10.99
10.03
8.88
7.77
6.87
6.18
5.66
5.20
4.74
4.27
3.86
3.60
3.53
3.63
3.74
3.68
3.27
2.42
1.18
-0.30
-1.79
-3.17
-4.39
-5.52
-6.70
-8.06
-9.65
-11.43
-13.23
-14.82
-15.91
-16.25
-15.66
-14.07
-11.56
-8.30
-4.60
-0.76
2.93
6.21
8.93
11.00
12.39
13.14
13.29
12.93
12.15
11.09
9.87
8.64
7.50
6.49
5.59
4.76
3.96
3.24
2.65
2.26
2.04
1.85
1.47
0.69
-0.55
-2.12
-3.75
-5.17
-6.24
-7.00
-7.63
-8.38
-9.39
-10.74
-12.41
-14.27
-16.12
-17.70
-18.66
-18.67
-17.50
-15.15
-11.84
-7.97
-3.97
-0.18
3.16
5.95
8.16
9.74
10.70
11.04
10.82
10.16
9.20
8.07
6.91
5.80
4.81
3.99
3.35
2.88
2.52
2.23
1.96
1.67
1.31
0.85
0.27
-0.46
-1.33
-2.33
-3.41
-4.56
-5.74
-6.97
-8.25
-9.60
-10.98
-12.31
-13.43
-14.15
-14.23
-13.49
-11.82
-9.20
-5.76
-1.75
2.51
6.66
10.37
13.41
15.70
17.27
18.21
18.64
18.60
18.14
17.26
16.02
14.56
13.08
11.76
10.72
9.96
9.36
8.74
7.94
6.82
5.37
3.63
1.68
-0.38
-2.45
-4.43
-6.20
-7.64
-8.68
-9.40
-9.99
-10.71
-11.74
-13.06
-14.38
-15.22
-15.08
-13.64
-10.90
-7.17
-2.94
1.29
5.13
8.32
10.70
12.22
12.88
12.77
12.04
10.87
9.42
7.81
6.12
4.42
2.79
1.32
0.07
-0.99
-1.97
-2.96
-4.02
-5.09
-6.02
-6.72
-7.15
-7.43
-7.78
-8.37
-9.34
-10.71
-12.40
-14.32
-16.31
-18.16
-19.61
-20.37
-20.16
-18.84
-16.42
-13.12
-9.29
-5.31
-1.54
1.78
4.50
6.59
8.04
8.90
9.22
9.08
8.62
8.01
7.44
7.04
6.85
6.74
6.49
5.90
4.87
3.49
1.95
0.51
-0.64
-1.46
-1.98
-2.36
-2.76
-3.34
-4.25
-5.52
-7.10
-8.75
-10.16
-10.97
-10.91
-9.87
-7.94
-5.31
-2.21
1.09
4.39
7.48
10.16
12.23
13.51
13.96
13.63
12.68
11.33
9.83
8.36
7.01
5.76
4.55
3.31
1.97
0.55
-0.90
-2.27
-3.49
-4.50
-5.32
-6.05
-6.84
-7.85
-9.20
-10.92
-12.93
-15.08
-17.17
-18.96
-20.21
-20.68
-20.19
-18.61
-16.03
-12.72
-9.17
-5.95
-3.56
-2.15
-1.53
-1.20
-0.59
0.72
2.91
5.92
9.65
14.00
18.92
24.32
29.95
35.35
39.94
43.18
44.73
44.53
42.76
39.69
35.62
30.79
25.37
19.51
13.37
7.12
0.94
-5.02
-10.61
-15.69
-20.07
-23.57
-25.96
-27.06
-26.78
-25.18
-22.51
-19.18
-15.66
-12.34
-9.52
-7.26
-5.51
-4.13
-2.99
-2.05
-1.32
-0.85
-0.66
-0.70
-0.85
-0.99
-1.00
-0.86
-0.64
-0.45
-0.39
-0.51
-0.80
-1.24
-1.82
-2.56
-3.50
-4.61
-5.86
-7.20
-8.60
-10.02
-11.35
-12.38
-12.75
-12.08
-10.14
-6.95
-2.86
1.62
5.96
9.76
12.81
14.97
16.21
16.50
15.90
14.59
12.86
11.05
9.45
8.20
7.29
6.59
5.99
5.40
4.80
4.21
3.62
3.01
2.34
1.60
0.80
0.00
-0.76
-1.50
-2.32
-3.37
-4.74
-6.47
-8.46
-10.50
-12.36
-13.76
-14.46
-14.24
-12.97
-10.62
-7.31
-3.33
0.93
5.03
8.61
11.38
13.24
14.19
14.37
13.92
13.04
11.84
10.45
8.96
7.45
6.04
4.87
4.02
3.53
3.31
3.21
3.04
2.69
2.13
1.40
0.57
-0.33
-1.29
-2.35
-3.57
-4.96
-6.56
-8.34
-10.27
-12.29
-14.24
-15.85
-16.83
-16.85
-15.73
-13.44
-10.14
-6.16
-1.90
2.24
5.90
8.84
10.90
12.06
12.42
12.20
11.66
11.04
10.48
10.04
9.63
9.14
8.48
7.64
6.70
5.79
5.02
4.42
3.94
3.49
2.99
2.38
1.68
0.89
-0.01
-1.07
-2.35
-3.87
-5.59
-7.40
-9.19
-10.82
-12.18
-13.09
-13.36
-12.78
-11.19
-8.62
-5.27
-1.48
2.33
5.80
8.69
10.91
12.43
13.28
13.50
13.19
12.43
11.36
10.13
8.83
7.56
6.39
5.38
4.57
4.00
3.64
3.40
3.13
2.68
1.94
0.95
-0.22
-1.40
-2.49
-3.43
-4.25
-5.03
-5.87
-6.91
-8.27
-10.03
-12.12
-14.32
-16.24
-17.43
-17.48
-16.22
-13.72
-10.27
-6.30
-2.14
1.92
5.69
8.99
11.63
13.41
14.21
14.06
13.15
11.84
10.48
9.36
8.59
8.11
7.77
7.39
6.85
6.13
5.26
4.25
3.17
2.05
0.97
0.03
-0.70
-1.20
-1.58
-1.97
-2.52
-3.32
-4.37
-5.62
-7.02
-8.53
-10.11
-11.69
-13.08
-14.01
-14.14
-13.25
-11.26
-8.35
-4.88
-1.27
2.11
5.00
7.32
9.00
10.05
10.45
10.23
9.51
8.52
7.50
6.67
6.08
5.65
5.25
4.78
4.24
3.69
3.18
2.70
2.19
1.56
0.73
-0.28
-1.41
-2.58
-3.69
-4.75
-5.77
-6.79
-7.86
-9.01
-10.26
-11.61
-13.06
-14.54
-15.89
-16.87
-17.17
-16.50
-14.70
-11.85
-8.19
-4.12
-0.01
3.82
7.17
9.93
12.01
13.33
13.88
13.70
12.95
11.88
10.72
9.63
8.71
7.94
7.30
6.77
6.35
6.06
5.86
5.71
5.51
5.19
4.68
3.93
2.91
1.62
0.10
-1.56
-3.20
-4.69
-5.95
-7.02
-8.01
-9.07
-10.29
-11.64
-12.97
-14.04
-14.62
-14.48
-13.49
-11.60
-8.89
-5.55
-1.87
1.80
5.11
7.79
9.68
10.74
11.03
10.71
9.95
8.97
7.97
7.06
6.30
5.67
5.15
4.71
4.37
4.15
4.02
3.94
3.81
3.58
3.17
2.56
1.74
0.72
-0.45
-1.71
-2.93
-4.03
-4.98
-5.85
-6.74
-7.77
-8.97
-10.29
-11.57
-12.62
-13.22
-13.20
-12.44
-10.87
-8.53
-5.56
-2.22
1.14
4.20
6.71
8.56
9.73
10.29
10.30
9.80
8.83
7.49
6.00
4.59
3.50
2.87
2.70
2.86
3.17
3.44
3.51
3.28
2.74
1.90
0.84
-0.34
-1.54
-2.65
-3.62
-4.44
-5.17
-5.88
-6.70
-7.73
-9.02
-10.53
-12.08
-13.35
-13.96
-13.63
-12.21
-9.82
-6.75
-3.38
-0.08
2.89
5.38
7.30
8.58
9.19
9.14
8.58
7.71
6.82
6.12
5.71
5.56
5.50
5.39
5.13
4.71
4.18
3.58
2.95
2.34
1.76
1.24
0.77
0.30
-0.27
-1.03
-2.03
-3.25
-4.64
-6.09
-7.53
-8.96
-10.35
-11.64
-12.72
-13.42
-13.53
-12.88
-11.38
-9.04
-5.97
-2.44
1.19
4.57
7.36
9.36
10.49
10.83
10.60
10.02
9.31
8.59
7.92
7.27
6.63
5.99
5.37
4.82
4.33
3.88
3.42
2.93
2.39
1.82
1.22
0.56
-0.17
-1.01
-1.95
-2.98
-4.06
-5.15
-6.25
-7.35
-8.46
-9.60
-10.74
-11.88
-12.94
-13.78
-14.22
-14.01
-12.96
-10.99
-8.22
-4.93
-1.52
1.67
4.39
6.58
8.24
9.39
10.03
10.14
9.74
8.93
7.91
6.89
6.03
5.41
5.02
4.82
4.77
4.82
4.91
4.95
4.84
4.50
3.89
3.05
2.08
1.08
0.12
-0.75
-1.56
-2.33
-3.10
-3.92
-4.82
-5.84
-6.99
-8.23
-9.45
-10.48
-11.09
-11.05
-10.24
-8.65
-6.45
-3.86
-1.13
1.55
4.03
6.18
7.89
9.06
9.63
9.62
9.14
8.36
7.47
6.59
5.82
5.18
4.65
4.23
3.85
3.51
3.18
2.89
2.66
2.47
2.26
1.89
1.23
0.25
-1.00
-2.34
-3.61
-4.72
-5.68
-6.59
-7.59
-8.77
-10.14
-11.63
-13.03
-14.05
-14.38
-13.79
-12.18
-9.69
-6.61
-3.36
-0.30
2.34
4.47
6.15
7.42
8.34
8.88
9.00
8.71
8.07
7.26
6.42
5.70
5.12
4.65
4.21
3.75
3.29
2.86
2.51
2.19
1.84
1.37
0.76
0.00
-0.84
-1.72
-2.59
-3.44
-4.24
-5.00
-5.73
-6.51
-7.41
-8.51
-9.78
-11.07
-12.12
-12.60
-12.27
-11.02
-8.93
-6.26
-3.33
-0.47
2.11
4.31
6.12
7.56
8.64
9.32
9.55
9.36
8.83
8.09
7.28
6.48
5.71
4.98
4.32
3.77
3.40
3.20
3.12
3.04
2.85
2.49
1.95
1.29
0.56
-0.18
-0.91
-1.62
-2.32
-3.05
-3.84
-4.73
-5.76
-6.93
-8.24
-9.58
-10.80
-11.67
-11.94
-11.42
-10.06
-7.98
-5.40
-2.60
0.16
2.68
4.84
6.56
7.80
8.53
8.78
8.60
8.07
7.29
6.38
5.49
4.72
4.15
3.73
3.37
2.98
2.50
1.97
1.49
1.12
0.84
0.60
0.25
-0.31
-1.06
-1.93
-2.80
-3.57
-4.22
-4.83
-5.54
-6.47
-7.65
-8.98
-10.27
-11.26
-11.74
-11.57
-10.70
-9.13
-6.94
-4.22
-1.21
1.79
4.46
6.51
7.84
8.52
8.73
8.65
8.37
7.90
7.23
6.41
5.52
4.73
4.12
3.72
3.48
3.31
3.16
3.00
2.78
2.45
1.94
1.22
0.30
-0.70
-1.67
-2.51
-3.19
-3.76
-4.33
-5.00
-5.83
-6.83
-7.94
-9.08
-10.08
-10.79
-11.04
-10.71
-9.73
-8.13
-5.96
-3.37
-0.53
2.36
5.08
7.41
9.22
10.42
11.00
11.01
10.49
9.55
8.33
7.03
5.85
4.93
4.31
3.91
3.57
3.21
2.79
2.36
1.97
1.61
1.25
0.80
0.24
-0.38
-0.96
-1.43
-1.76
-2.04
-2.43
-3.07
-4.06
-5.39
-6.98
-8.68
-10.26
-11.49
-12.13
-11.99
-10.96
-9.06
-6.48
-3.50
-0.44
2.42
4.87
6.82
8.21
9.02
9.25
8.95
8.24
7.26
6.19
5.18
4.34
3.73
3.35
3.13
2.99
2.82
2.52
2.07
1.48
0.83
0.18
-0.47
-1.12
-1.84
-2.61
-3.41
-4.19
-4.89
-5.55
-6.25
-7.10
-8.18
-9.47
-10.82
-11.99
-12.65
-12.52
-11.49
-9.58
-6.99
-3.99
-0.87
2.13
4.79
6.95
8.46
9.29
9.45
9.10
8.44
7.65
6.87
6.17
5.60
5.17
4.90
4.79
4.77
4.72
4.56
4.25
3.82
3.33
2.81
2.22
1.51
0.63
-0.40
-1.49
-2.52
-3.44
-4.27
-5.12
-6.12
-7.31
-8.67
-10.04
-11.21
-11.97
-12.11
-11.54
-10.24
-8.31
-5.93
-3.29
-0.62
1.89
4.07
5.85
7.19
8.15
8.78
9.09
9.07
8.61
7.72
6.51
5.27
4.34
4.00
4.28
4.95
5.61
5.91
5.71
5.12
4.42
3.89
3.63
3.54
3.34
2.79
1.77
0.42
-1.03
-2.30
-3.24
-3.90
-4.48
-5.22
-6.30
-7.73
-9.34
-10.89
-12.09
-12.73
-12.66
-11.82
-10.19
-7.79
-4.76
-1.31
2.24
5.53
8.25
10.21
11.34
11.70
11.41
10.61
9.48
8.15
6.83
5.65
4.71
4.00
3.45
3.03
2.72
2.56
2.55
2.61
2.61
2.38
1.89
1.19
0.43
-0.21
-0.65
-0.89
-1.02
-1.18
-1.50
-2.10
-3.05
-4.41
-6.10
-7.94
-9.68
-11.04
-11.77
-11.77
-11.00
-9.54
-7.52
-5.09
-2.45
0.20
2.66
4.80
6.52
7.83
8.73
9.24
9.36
9.10
8.47
7.56
6.49
5.37
4.35
3.49
2.88
2.55
2.50
2.65
2.84
2.88
2.62
2.01
1.10
0.02
-1.07
-2.08
-2.95
-3.64
-4.15
-4.54
-4.91
-5.43
-6.28
-7.54
-9.13
-10.81
-12.25
-13.11
-13.13
-12.18
-10.27
-7.59
-4.46
-1.28
1.64
4.13
6.19
7.95
9.46
10.62
11.22
11.06
10.15
8.71
7.15
5.86
5.04
4.70
4.65
4.72
4.74
4.65
4.38
3.92
3.23
2.34
1.30
0.24
-0.74
-1.57
-2.24
-2.79
-3.31
-3.89
-4.62
-5.55
-6.69
-7.96
-9.26
-10.43
-11.31
-11.77
-11.71
-11.11
-9.99
-8.42
-6.49
-4.29
-1.91
0.55
2.95
5.15
6.97
8.29
9.02
9.14
8.71
7.89
6.87
5.85
4.96
4.24
3.67
3.19
2.81
2.56
2.50
2.61
2.79
2.89
2.75
2.29
1.58
0.75
-0.10
-0.90
-1.68
-2.52
-3.45
-4.50
-5.69
-6.94
-8.19
-9.29
-10.02
-10.15
-9.52
-8.11
-6.05
-3.63
-1.09
1.36
3.60
5.58
7.23
8.44
9.14
9.30
9.01
8.42
7.68
6.91
6.17
5.44
4.69
3.90
3.11
2.35
1.70
1.20
0.83
0.53
0.23
-0.15
-0.62
-1.14
-1.68
-2.24
-2.88
-3.66
-4.62
-5.73
-6.91
-8.13
-9.39
-10.69
-11.94
-12.96
-13.43
-13.07
-11.73
-9.51
-6.69
-3.63
-0.64
2.06
4.39
6.31
7.82
8.89
9.53
9.74
9.57
9.05
8.27
7.29
6.26
5.30
4.52
3.97
3.61
3.35
3.08
2.75
2.35
1.91
1.45
0.93
0.33
-0.40
-1.23
-2.10
-2.94
-3.70
-4.43
-5.21
-6.15
-7.32
-8.69
-10.11
-11.35
-12.12
-12.22
-11.49
-9.96
-7.73
-4.98
-1.92
1.27
4.39
7.25
9.65
11.36
12.20
12.10
11.17
9.68
8.00
6.49
5.36
4.67
4.31
4.14
4.01
3.90
3.80
3.74
3.68
3.55
3.25
2.72
2.02
1.24
0.48
-0.18
-0.76
-1.34
-2.04
-3.01
-4.30
-5.93
-7.78
-9.66
-11.28
-12.39
-12.78
-12.37
-11.20
-9.36
-6.97
-4.16
-1.09
2.00
4.81
7.07
8.60
9.40
9.62
9.51
9.26
8.90
8.40
7.64
6.63
5.50
4.51
3.89
3.77
4.04
4.48
4.79
4.75
4.30
3.51
2.54
1.53
0.58
-0.31
-1.16
-2.02
-2.91
-3.85
-4.87
-6.04
-7.42
-9.01
-10.66
-12.11
-12.99
-13.00
-11.98
-9.99
-7.29
-4.20
-1.04
2.00
4.77
7.20
9.16
10.54
11.21
11.17
10.50
9.40
8.15
7.01
6.13
5.55
5.20
4.95
4.68
4.33
3.95
3.62
3.39
3.26
3.11
2.80
2.23
1.39
0.38
-0.70
-1.80
-2.97
-4.26
-5.73
-7.28
-8.78
-10.09
-11.16
-12.02
-12.76
-13.40
-13.78
-13.66
-12.75
-10.95
-8.34
-5.25
-2.03
1.01
3.73
6.13
8.22
9.95
11.18
11.75
11.58
10.79
9.64
8.46
7.49
6.83
6.42
6.14
5.88
5.61
5.32
5.01
4.60
4.04
3.27
2.32
1.25
0.18
-0.83
-1.79
-2.74
-3.72
-4.73
-5.70
-6.56
-7.28
-7.96
-8.74
-9.75
-11.01
-12.32
-13.36
-13.75
-13.25
-11.80
-9.55
-6.72
-3.59
-0.36
2.80
5.74
8.25
10.12
11.17
11.34
10.74
9.64
8.39
7.29
6.51
6.08
5.85
5.65
5.35
4.96
4.55
4.25
4.14
4.19
4.27
4.27
4.06
3.59
2.86
1.90
0.75
-0.53
-1.85
-3.13
-4.27
-5.23
-6.05
-6.83
-7.72
-8.81
-10.09
-11.38
-12.36
-12.70
-12.13
-10.57
-8.15
-5.18
-2.05
0.90
3.47
5.60
7.34
8.70
9.64
10.05
9.85
9.07
7.90
6.65
5.60
4.90
4.52
4.34
4.21
4.09
3.98
3.91
3.84
3.65
3.23
2.52
1.59
0.58
-0.36
-1.17
-1.89
-2.59
-3.37
-4.27
-5.28
-6.40
-7.63
-8.99
-10.45
-11.89
-13.11
-13.84
-13.87
-13.09
-11.52
-9.32
-6.69
-3.84
-0.95
1.84
4.40
6.64
8.45
9.72
10.39
10.45
9.97
9.09
8.00
6.94
6.10
5.56
5.32
5.25
5.18
5.00
4.63
4.10
3.48
2.87
2.28
1.70
1.06
0.29
-0.66
-1.75
-2.87
-3.90
-4.72
-5.30
-5.71
-6.09
-6.63
-7.44
-8.58
-9.96
-11.39
-12.59
-13.20
-12.96
-11.73
-9.57
-6.74
-3.62
-0.54
2.28
4.73
6.78
8.40
9.51
10.03
9.95
9.37
8.51
7.58
6.72
5.95
5.24
4.53
3.86
3.32
3.02
3.00
3.18
3.40
3.50
3.37
2.99
2.39
1.60
0.69
-0.33
-1.39
-2.43
-3.37
-4.19
-4.96
-5.80
-6.82
-8.01
-9.25
-10.28
-10.83
-10.67
-9.67
-7.85
-5.33
-2.30
0.96
4.20
7.15
9.62
11.48
12.66
13.15
12.93
12.07
10.74
9.22
7.84
6.85
6.32
6.17
6.21
6.27
6.28
6.25
6.23
6.18
6.01
5.62
4.95
4.10
3.23
2.51
2.04
1.78
1.57
1.22
0.53
-0.66
-2.47
-4.95
-8.03
-11.53
-15.16
-18.58
-21.45
-23.52
-24.61
-24.65
-23.64
-21.66
-18.86
-15.51
-11.91
-8.36
-5.13
-2.38
-0.24
1.26
2.11
2.40
2.37
2.40
2.92
4.23
6.39
9.13
11.94
14.27
15.70
16.09
15.53
14.32
12.73
10.95
9.07
7.06
4.91
2.66
0.43
-1.64
-3.42
-4.86
-6.02
-7.01
-7.95
-8.91
-9.91
-10.91
-11.80
-12.43
-12.63
-12.26
-11.22
-9.51
-7.20
-4.44
-1.44
1.59
4.38
6.73
8.44
9.43
9.71
9.42
8.73
7.80
6.77
5.69
4.64
3.70
2.95
2.49
2.30
2.26
2.14
1.71
0.82
-0.53
-2.13
-3.68
-4.89
-5.59
-5.78
-5.62
-5.35
-5.19
-5.32
-5.77
-6.54
-7.49
-8.46
-9.18
-9.39
-8.87
-7.51
-5.37
-2.63
0.40
3.42
6.12
8.32
9.90
10.81
11.10
10.85
10.20
9.27
8.18
6.95
5.63
4.23
2.83
1.56
0.53
-0.22
-0.73
-1.11
-1.47
-1.85
-2.26
-2.67
-3.08
-3.51
-4.05
-4.74
-5.58
-6.54
-7.56
-8.60
-9.62
-10.59
-11.39
-11.86
-11.77
-10.94
-9.30
-6.92
-4.04
-0.97
2.00
4.61
6.73
8.30
9.27
9.62
9.37
8.59
7.44
6.15
4.99
4.17
3.80
3.82
4.05
4.26
4.19
3.75
2.96
2.02
1.13
0.44
-0.03
-0.39
-0.82
-1.42
-2.23
-3.19
-4.27
-5.41
-6.57
-7.66
-8.48
-8.78
-8.33
-7.06
-5.04
-2.53
0.16
2.75
5.03
6.85
8.18
9.05
9.55
9.82
9.93
9.92
9.74
9.29
8.53
7.51
6.37
5.25
4.30
3.54
2.96
2.49
2.07
1.66
1.24
0.73
0.09
-0.75
-1.80
-3.01
-4.32
-5.65
-6.97
-8.30
-9.65
-10.99
-12.23
-13.19
-13.67
-13.48
-12.51
-10.73
-8.23
-5.20
-1.93
1.26
4.07
6.33
7.99
9.09
9.69
9.83
9.56
8.91
7.99
7.00
6.13
5.50
5.14
4.95
4.80
4.60
4.31
3.96
3.56
3.13
2.63
2.04
1.33
0.52
-0.33
-1.17
-1.98
-2.77
-3.60
-4.58
-5.75
-7.09
-8.44
-9.54
-10.08
-9.78
-8.52
-6.37
-3.58
-0.46
2.60
5.35
7.58
9.20
10.20
10.61
10.52
10.05
9.35
8.55
7.76
7.02
6.38
5.79
5.23
4.63
4.00
3.39
2.87
2.50
2.30
2.15
1.93
1.47
0.75
-0.18
-1.18
-2.17
-3.14
-4.17
-5.36
-6.73
-8.20
-9.63
-10.88
-11.83
-12.40
-12.52
-12.07
-10.91
-8.97
-6.33
-3.21
0.03
3.05
5.58
7.51
8.85
9.69
10.08
10.05
9.63
8.87
7.88
6.81
5.83
5.04
4.49
4.12
3.88
3.69
3.54
3.44
3.40
3.35
3.20
2.85
2.26
1.49
0.65
-0.15
-0.85
-1.47
-2.08
-2.75
-3.52
-4.37
-5.32
-6.34
-7.45
-8.66
-9.93
-11.20
-12.36
-13.25
-13.69
-13.46
-12.35
-10.30
-7.43
-4.03
-0.53
2.65
5.25
7.17
8.45
9.18
9.48
9.42
9.08
8.55
7.95
7.41
6.99
6.68
6.40
6.03
5.49
4.78
3.98
3.26
2.73
2.45
2.35
2.25
1.98
1.42
0.59
-0.43
-1.49
-2.44
-3.23
-3.84
-4.33
-4.75
-5.15
-5.58
-6.11
-6.82
-7.80
-9.07
-10.55
-11.99
-13.09
-13.54
-13.11
-11.78
-9.64
-6.91
-3.82
-0.66
2.35
5.00
7.14
8.70
9.71
10.23
10.33
10.05
9.46
8.63
7.66
6.70
5.87
5.26
4.87
4.68
4.66
4.73
4.80
4.75
4.49
4.01
3.36
2.64
1.93
1.23
0.48
-0.40
-1.43
-2.50
-3.50
-4.32
-4.97
-5.58
-6.28
-7.19
-8.32
-9.61
-10.93
-12.11
-12.93
-13.19
-12.67
-11.29
-9.13
-6.44
-3.57
-0.85
1.50
3.43
5.02
6.39
7.56
8.44
8.86
8.68
7.89
6.68
5.36
4.24
3.50
3.14
3.06
3.08
3.10
3.10
3.08
3.06
3.01
2.87
2.60
2.21
1.71
1.12
0.45
-0.34
-1.20
-2.08
-2.86
-3.50
-4.02
-4.53
-5.17
-6.06
-7.20
-8.46
-9.70
-10.73
-11.41
-11.61
-11.22
-10.18
-8.51
-6.31
-3.75
-1.10
1.45
3.70
5.57
7.03
8.08
8.72
8.97
8.85
8.38
7.62
6.66
5.62
4.67
3.96
3.63
3.67
3.95
4.25
4.37
4.19
3.77
3.24
2.77
2.42
2.11
1.70
1.10
0.28
-0.66
-1.58
-2.42
-3.19
-3.98
-4.88
-5.92
-7.06
-8.20
-9.28
-10.25
-11.09
-11.74
-12.09
-12.00
-11.33
-10.00
-8.02
-5.53
-2.70
0.23
3.03
5.47
7.38
8.69
9.40
9.58
9.35
8.82
8.09
7.24
6.30
5.36
4.49
3.77
3.30
3.12
3.24
3.59
4.05
4.45
4.63
4.46
3.91
3.05
2.00
0.91
-0.09
-0.94
-1.67
-2.36
-3.14
-4.08
-5.18
-6.35
-7.47
-8.44
-9.25
-9.98
-10.73
-11.53
-12.26
-12.70
-12.61
-11.81
-10.27
-8.10
-5.49
-2.70
0.08
2.68
4.96
6.82
8.19
9.02
9.30
9.08
8.46
7.57
6.57
5.63
4.87
4.39
4.22
4.32
4.57
4.83
4.94
4.79
4.35
3.68
2.88
2.06
1.25
0.46
-0.36
-1.23
-2.13
-3.01
-3.79
-4.49
-5.19
-6.00
-7.00
-8.21
-9.49
-10.62
-11.40
-11.66
-11.32
-10.37
-8.81
-6.70
-4.13
-1.33
1.44
3.89
5.81
7.13
7.87
8.16
8.11
7.80
7.29
6.65
5.95
5.25
4.59
3.95
3.31
2.69
2.13
1.67
1.39
1.27
1.23
1.15
0.90
0.39
-0.36
-1.29
-2.30
-3.31
-4.30
-5.24
-6.13
-6.97
-7.79
-8.66
-9.61
-10.67
-11.75
-12.62
-12.98
-12.55
-11.12
-8.73
-5.63
-2.22
1.04
3.80
5.88
7.29
8.18
8.75
9.13
9.34
9.30
8.94
8.23
7.26
6.22
5.25
4.50
3.99
3.66
3.46
3.32
3.21
3.10
2.95
2.69
2.26
1.61
0.77
-0.16
-1.05
-1.84
-2.54
-3.25
-4.12
-5.23
-6.60
-8.10
-9.52
-10.62
-11.17
-11.02
-10.14
-8.57
-6.42
-3.85
-1.04
1.79
4.46
6.76
8.54
9.71
10.24
10.19
9.65
8.76
7.69
6.62
5.66
4.90
4.34
3.90
3.51
3.12
2.72
2.35
2.00
1.63
1.17
0.57
-0.19
-1.07
-2.00
-2.94
-3.89
-4.91
-6.05
-7.32
-8.68
-10.03
-11.26
-12.25
-12.87
-12.99
-12.45
-11.09
-8.87
-5.87
-2.39
1.19
4.41
6.94
8.63
9.53
9.78
9.56
9.01
8.20
7.19
6.06
4.93
3.97
3.29
2.90
2.70
2.49
2.09
1.42
0.53
-0.40
-1.17
-1.68
-1.95
-2.13
-2.45
-3.07
-4.09
-5.47
-7.12
-8.91
-10.76
-12.57
-14.20
-15.44
-16.04
-15.78
-14.59
-12.56
-9.95
-7.11
-4.32
-1.75
0.54
2.56
4.33
5.83
7.03
7.92
8.51
8.86
9.02
9.00
8.77
8.32
7.64
6.82
6.03
5.46
5.25
5.43
5.89
6.40
6.74
6.74
6.35
5.61
4.66
3.61
2.50
1.31
-0.06
-1.71
-3.66
-5.80
-7.88
-9.54
-10.39
-10.19
-8.93
-6.80
-4.13
-1.28
1.47
3.94
5.96
7.42
8.19
8.22
7.63
6.62
5.49
4.45
3.53
2.67
1.78
0.88
0.12
-0.31
-0.28
0.14
0.76
1.35
1.75
1.90
1.81
1.50
1.02
0.37
-0.35
-1.08
-1.75
-2.37
-3.04
-3.83
-4.76
-5.68
-6.33
-6.43
-5.75
-4.22
-1.92
0.95
4.12
7.30
10.20
12.54
14.14
14.87
14.73
13.85
12.46
10.83
9.23
7.86
6.82
6.09
5.57
5.15
4.76
4.38
4.10
3.95
3.92
3.88
3.63
3.01
1.98
0.64
-0.76
-1.96
-2.83
-3.36
-3.72
-4.12
-4.74
-5.68
-6.92
-8.40
-9.95
-11.39
-12.47
-12.91
-12.47
-11.04
-8.73
-5.82
-2.71
0.24
2.77
4.75
6.13
6.88
7.04
6.66
5.90
5.00
4.17
3.55
3.16
2.91
2.72
2.53
2.32
2.15
2.06
2.05
2.07
2.02
1.81
1.39
0.75
-0.03
-0.89
-1.71
-2.47
-3.14
-3.80
-4.51
-5.33
-6.31
-7.41
-8.51
-9.40
-9.83
-9.56
-8.47
-6.62
-4.21
-1.55
1.05
3.37
5.27
6.68
7.51
7.70
7.23
6.23
4.94
3.69
2.77
2.33
2.35
2.69
3.16
3.59
3.90
4.05
4.10
4.11
4.16
4.31
4.51
4.67
4.67
4.41
3.94
3.41
2.95
2.62
2.31
1.82
0.95
-0.43
-2.33
-4.63
-7.16
-9.62
-11.67
-12.92
-13.04
-11.95
-9.82
-7.11
-4.31
-1.80
0.31
2.08
3.67
5.14
6.46
7.51
8.20
8.55
8.66
8.63
8.55
8.38
8.07
7.56
6.90
6.24
5.74
5.55
5.72
6.15
6.65
6.98
6.95
6.53
5.82
5.04
4.41
4.01
3.80
3.58
3.15
2.35
1.14
-0.46
-2.38
-4.52
-6.80
-9.02
-10.91
-12.13
-12.43
-11.66
-9.92
-7.44
-4.54
-1.58
1.20
3.57
5.40
6.59
7.12
7.03
6.50
5.72
4.88
4.12
3.51
3.03
2.65
2.32
2.02
1.75
1.55
1.44
1.43
1.48
1.50
1.38
0.98
0.25
-0.78
-1.97
-3.14
-4.13
-4.87
-5.38
-5.76
-6.11
-6.52
-7.07
-7.82
-8.84
-10.12
-11.54
-12.82
-13.57
-13.41
-12.14
-9.84
-6.85
-3.66
-0.72
1.67
3.47
4.77
5.71
6.38
6.75
6.74
6.33
5.54
4.53
3.50
2.63
2.03
1.72
1.65
1.75
1.96
2.25
2.59
2.91
3.09
3.00
2.53
1.67
0.49
-0.88
-2.25
-3.49
-4.52
-5.35
-6.03
-6.63
-7.28
-8.06
-9.02
-10.15
-11.31
-12.27
-12.75
-12.52
-11.48
-9.67
-7.28
-4.54
-1.72
0.95
3.28
5.14
6.46
7.21
7.48
7.40
7.10
6.69
6.25
5.78
5.27
4.74
4.22
3.76
3.40
3.17
3.07
3.07
3.13
3.16
3.10
2.88
2.46
1.82
1.01
0.10
-0.80
-1.56
-2.11
-2.46
-2.73
-3.08
-3.68
-4.56
-5.71
-7.05
-8.48
-9.93
-11.31
-12.46
-13.13
-13.09
-12.14
-10.31
-7.83
-5.04
-2.34
0.01
1.90
3.37
4.50
5.35
5.92
6.17
6.10
5.76
5.28
4.79
4.38
4.09
3.86
3.61
3.26
2.83
2.39
2.02
1.77
1.63
1.50
1.26
0.84
0.21
-0.56
-1.36
-2.07
-2.60
-2.95
-3.20
-3.48
-3.94
-4.69
-5.76
-7.07
-8.46
-9.75
-10.70
-11.13
-10.93
-10.05
-8.52
-6.45
-4.02
-1.39
1.24
3.73
5.91
7.67
8.94
9.70
9.98
9.87
9.48
8.91
8.25
7.57
6.92
6.35
5.91
5.59
5.35
5.12
4.81
4.39
3.87
3.32
2.81
2.37
1.93
1.41
0.69
-0.23
-1.28
-2.31
-3.24
-4.06
-4.89
-5.88
-7.12
-8.55
-9.97
-11.09
-11.64
-11.39
-10.28
-8.34
-5.75
-2.71
0.50
3.67
6.59
9.16
11.28
12.89
13.96
14.46
14.49
14.18
13.73
13.31
12.96
12.62
12.22
11.72
11.22
10.87
10.83
11.13
11.63
12.06
12.11
11.53
10.23
8.28
5.92
3.48
1.35
-0.15
-0.88
-0.94
-0.69
-0.63
-1.23
-2.75
-5.19
-8.28
-11.54
-14.48
-16.61
-17.60
-17.31
-15.80
-13.30
-10.21
-6.96
-3.92
-1.37
0.54
1.79
2.43
2.59
2.43
2.15
1.90
1.81
1.94
2.30
2.87
3.59
4.37
5.11
5.67
5.93
5.80
5.28
4.37
3.13
1.57
-0.32
-2.50
-4.89
-7.31
-9.55
-11.48
-13.07
-14.45
-15.85
-17.53
-19.58
-21.90
-24.19
-26.01
-26.95
-26.77
-25.44
-23.18
-20.31
-17.17
-14.05
-11.07
-8.33
-5.88
-3.81
-2.24
-1.24
-0.79
-0.75
-0.93
-1.16
-1.34
-1.45
-1.56
-1.70
-1.82
-1.81
-1.53
-0.93
-0.13
0.66
1.17
1.22
0.85
0.29
-0.13
-0.16
0.26
0.95
1.59
1.87
1.63
0.90
-0.18
-1.44
-2.76
-4.06
-5.27
-6.25
-6.83
-6.85
-6.20
-4.95
-3.30
-1.49
0.22
1.73
2.98
4.01
4.81
5.32
5.42
4.98
3.99
2.56
0.94
-0.58
-1.76
-2.45
-2.71
-2.67
-2.56
-2.56
-2.75
-3.11
-3.47
-3.65
-3.54
-3.12
-2.52
-1.95
-1.62
-1.67
-2.10
-2.78
-3.55
-4.22
-4.71
-4.96
-4.98
-4.80
-4.43
-3.92
-3.28
-2.57
-1.85
-1.14
-0.41
0.40
1.34
2.46
3.72
5.05
6.33
7.49
8.50
9.36
10.05
10.53
10.67
10.31
9.37
7.86
5.97
3.99
2.16
0.64
-0.63
-1.80
-3.11
-4.66
-6.41
-8.21
-9.87
-11.26
-12.34
-13.16
-13.74
-14.00
-13.77
-12.83
-11.04
-8.42
-5.20
-1.78
1.47
4.22
6.34
7.88
8.98
9.82
10.46
10.88
11.03
10.84
10.35
9.68
9.02
8.49
8.13
7.86
7.57
7.11
6.45
5.60
4.62
3.56
2.40
1.17
-0.11
-1.35
-2.46
-3.39
-4.24
-5.13
-6.19
-7.38
-8.47
-9.10
-8.88
-7.61
-5.29
-2.20
1.26
4.68
7.74
10.31
12.33
13.86
14.93
15.55
15.67
15.29
14.46
13.33
12.09
10.91
9.89
9.03
8.26
7.49
6.68
5.84
5.05
4.35
3.76
3.22
2.63
1.89
0.92
-0.30
-1.74
-3.35
-5.07
-6.76
-8.21
-9.12
-9.15
-8.07
-5.88
-2.81
0.75
4.47
8.09
11.53
14.72
17.51
19.60
20.69
20.63
19.51
17.71
15.70
13.89
12.47
11.37
10.40
9.35
8.15
6.83
5.53
4.42
3.63
3.19
3.10
3.30
3.72
4.27
4.77
4.96
4.56
3.36
1.30
-1.40
-4.31
-6.92
-8.75
-9.54
-9.27
-8.12
-6.37
-4.33
-2.25
-0.33
1.29
2.51
3.32
3.74
3.89
3.89
3.87
3.97
4.28
4.87
5.74
6.80
7.89
8.80
9.30
9.22
8.53
7.29
5.69
3.98
2.41
1.20
0.42
0.02
-0.18
-0.44
-1.02
-2.04
-3.50
-5.22
-6.88
-8.14
-8.63
-8.07
-6.33
-3.49
0.16
4.18
8.09
11.45
14.01
15.67
16.51
16.74
16.62
16.43
16.40
16.68
17.33
18.37
19.70
21.18
22.60
23.67
24.14
23.83
22.73
21.06
19.09
17.13
15.34
13.71
12.07
10.25
8.09
5.62
2.95
0.33
-2.02
-3.92
-5.29
-6.14
-6.55
-6.62
-6.47
-6.16
-5.78
-5.35
-4.95
-4.61
-4.36
-4.22
-4.24
-4.45
-4.90
-5.64
-6.72
-8.16
-9.91
-11.85
-13.75
-15.36
-16.44
-16.86
-16.63
-15.94
-15.06
-14.28
-13.83
-13.84
-14.35
-15.28
-16.47
-17.62
-18.34
-18.23
-17.00
-14.63
-11.39
-7.81
-4.50
-1.90
-0.21
0.69
1.05
1.14
1.11
1.00
0.75
0.37
-0.11
-0.59
-0.99
-1.32
-1.66
-2.14
-2.82
-3.71
-4.71
-5.67
-6.45
-6.93
-7.05
-6.86
-6.49
-6.12
-5.98
-6.23
-6.88
-7.79
-8.69
-9.30
-9.51
-9.36
-9.04
-8.82
-8.86
-9.20
-9.78
-10.37
-10.70
-10.47
-9.41
-7.38
-4.43
-0.81
3.06
6.69
9.69
11.81
13.04
13.53
13.54
13.34
13.19
13.19
13.35
13.55
13.65
13.52
13.13
12.48
11.66
10.73
9.76
8.80
7.87
6.96
6.02
4.97
3.81
2.55
1.31
0.17
-0.83
-1.72
-2.66
-3.84
-5.43
-7.50
-10.01
-12.77
-15.59
-18.27
-20.69
-22.87
-24.87
-26.72
-28.35
-29.55
-30.06
-29.69
-28.48
-26.72
-24.92
-23.69
-23.55
-24.85
-27.61
-31.50
-35.88
-39.75
-42.03
-41.75
-38.42
-32.26
-24.17
-15.46
-7.33
-0.37
5.64
11.54
18.34
26.61
36.18
46.17
55.50
63.27
69.12
73.17
75.65
76.63
75.93
73.33
68.87
63.03
56.67
50.51
44.75
38.84
31.73
22.46
10.73
-2.78
-16.62
-29.11
-38.93
-45.52
-49.13
-50.50
-50.52
-49.90
-49.03
-48.04
-46.91
-45.58
-44.03
-42.27
-40.35
-38.35
-36.34
-34.38
-32.52
-30.79
-29.29
-28.09
-27.22
-26.64
-26.22
-25.73
-24.96
-23.75
-22.06
-19.92
-17.44
-14.73
-11.87
-8.91
-5.90
-2.89
0.04
2.75
5.03
6.66
7.47
7.44
6.70
5.49
4.11
2.80
1.77
1.18
1.16
1.75
2.84
4.13
5.16
5.43
4.64
2.79
0.15
-2.81
-5.65
-8.01
-9.74
-10.78
-11.17
-11.00
-10.40
-9.47
-8.30
-6.91
-5.33
-3.59
-1.79
-0.11
1.30
2.37
3.17
3.83
4.49
5.22
5.96
6.62
7.05
7.23
7.17
6.97
6.71
6.45
6.17
5.84
5.44
5.00
4.59
4.30
4.17
4.20
4.28
4.30
4.17
3.84
3.35
2.76
2.13
1.50
0.87
0.26
-0.30
-0.77
-1.07
-1.16
-0.97
-0.46
0.41
1.64
3.18
4.94
6.79
8.54
9.99
11.01
11.53
11.59
11.38
11.12
11.00
11.09
11.35
11.58
11.59
11.24
10.52
9.54
8.51
7.62
7.01
6.73
6.67
6.66
6.52
6.09
5.34
4.36
3.29
2.27
1.36
0.54
-0.25
-1.06
-1.86
-2.60
-3.20
-3.62
-3.84
-3.85
-3.62
-3.10
-2.29
-1.18
0.17
1.70
3.31
4.90
6.36
7.62
8.65
9.45
10.05
10.47
10.69
10.73
10.61
10.41
10.27
10.30
10.54
10.92
11.31
11.59
11.70
11.68
11.64
11.71
11.95
12.33
12.74
13.00
12.96
12.56
11.82
10.82
9.69
8.49
7.30
6.13
5.03
4.04
3.21
2.54
2.04
1.67
1.40
1.25
1.22
1.32
1.46
1.51
1.32
0.80
-0.05
-1.11
-2.25
-3.38
-4.51
-5.69
-6.92
-8.11
-9.08
-9.71
-10.03
-10.21
-10.52
-11.16
-12.12
-13.21
-14.17
-14.80
-15.13
-15.33
-15.64
-16.17
-16.86
-17.49
-17.82
-17.80
-17.54
-17.29
-17.28
-17.59
-18.11
-18.60
-18.87
-18.79
-18.33
-17.50
-16.28
-14.58
-12.33
-9.53
-6.32
-2.92
0.41
3.44
6.02
8.08
9.58
10.49
10.79
10.47
9.58
8.25
6.67
5.10
3.76
2.81
2.26
2.06
2.09
2.22
2.33
2.35
2.24
1.99
1.64
1.23
0.82
0.42
0.03
-0.34
-0.67
-0.89
-0.95
-0.81
-0.52
-0.20
-0.01
-0.09
-0.47
-1.10
-1.76
-2.24
-2.30
-1.83
-0.81
0.67
2.43
4.30
6.07
7.58
8.65
9.17
9.14
8.74
8.24
7.99
8.21
8.96
10.05
11.19
12.10
12.64
12.82
12.76
12.56
12.23
11.69
10.85
9.67
8.28
6.92
5.85
5.26
5.16
5.33
5.45
5.20
4.37
2.96
1.11
-0.94
-2.88
-4.46
-5.50
-5.91
-5.69
-4.95
-3.87
-2.61
-1.36
-0.25
0.63
1.20
1.47
1.46
1.26
0.97
0.63
0.25
-0.19
-0.71
-1.28
-1.81
-2.25
-2.56
-2.74
-2.87
-2.97
-3.07
-3.13
-3.09
-2.91
-2.54
-2.05
-1.52
-1.12
-0.99
-1.18
-1.61
-2.10
-2.42
-2.42
-2.11
-1.60
-1.07
-0.56
-0.06
0.54
1.33
2.30
3.39
4.47
5.50
6.47
7.44
8.49
9.61
10.71
11.59
12.04
11.91
11.18
10.00
8.65
7.45
6.62
6.22
6.17
6.26
6.24
5.93
5.16
3.89
2.16
0.14
-1.95
-3.82
-5.27
-6.16
-6.49
-6.32
-5.79
-5.08
-4.43
-4.06
-4.16
-4.77
-5.79
-6.93
-7.91
-8.45
-8.46
-7.97
-7.10
-5.99
-4.76
-3.48
-2.25
-1.17
-0.38
0.02
0.00
-0.36
-0.92
-1.46
-1.82
-1.94
-1.87
-1.77
-1.79
-1.99
-2.33
-2.71
-3.02
-3.22
-3.38
-3.60
-3.97
-4.50
-5.14
-5.82
-6.50
-7.21
-8.00
-8.88
-9.77
-10.53
-10.98
-11.00
-10.54
-9.63
-8.34
-6.76
-4.98
-3.12
-1.34
0.18
1.24
1.74
1.66
1.14
0.39
-0.40
-1.06
-1.48
-1.61
-1.44
-0.94
-0.20
0.68
1.56
2.27
2.72
2.88
2.75
2.39
1.89
1.34
0.89
0.68
0.79
1.22
1.81
2.31
2.42
2.00
1.11
-0.00
-0.95
-1.37
-1.03
0.12
1.96
4.23
6.67
8.97
10.88
12.16
12.71
12.52
11.73
10.57
9.27
7.98
6.73
5.43
3.94
2.18
0.20
-1.81
-3.58
-4.84
-5.45
-5.52
-5.28
-5.06
-5.07
-5.34
-5.77
-6.19
-6.54
-6.88
-7.33
-7.97
-8.73
-9.45
-9.97
-10.25
-10.36
-10.38
-10.36
-10.17
-9.63
-8.55
-6.89
-4.70
-2.15
0.56
3.23
5.69
7.78
9.40
10.48
11.07
11.25
11.14
10.90
10.64
10.46
10.40
10.44
10.52
10.51
10.33
9.95
9.48
9.07
8.86
8.91
9.18
9.54
9.83
9.98
9.93
9.75
9.51
9.32
9.25
9.30
9.44
9.63
9.82
10.04
10.40
11.02
11.99
13.36
15.10
17.09
19.21
21.30
23.19
24.76
25.88
26.51
26.60
26.17
25.25
23.87
22.07
19.96
17.65
15.31
13.08
11.10
9.44
8.14
7.18
6.41
5.60
4.44
2.65
0.16
-2.78
-5.59
-7.49
-7.79
-6.21
-3.11
0.61
3.75
5.29
4.74
2.22
-1.64
-6.04
-10.34
-14.21
-17.59
-20.51
-22.92
-24.70
-25.68
-25.84
-25.30
-24.38
-23.46
-22.90
-22.98
-23.85
-25.51
-27.79
-30.30
-32.52
-33.93
-34.17
-33.15
-31.05
-28.19
-24.87
-21.33
-17.70
-14.18
-11.06
-8.65
-7.22
-6.78
-7.09
-7.69
-8.11
-8.06
-7.45
-6.48
-5.45
-4.73
-4.62
-5.31
-6.81
-8.96
-11.40
-13.73
-15.51
-16.44
-16.35
-15.28
-13.44
-11.10
-8.58
-6.13
-3.97
-2.21
-0.90
-0.02
0.50
0.77
0.89
0.94
0.96
0.93
0.83
0.70
0.64
0.79
1.22
1.95
2.87
3.83
4.73
5.57
6.40
7.26
8.10
8.77
9.06
8.85
8.11
6.96
5.55
3.98
2.34
0.65
-0.99
-2.49
-3.72
-4.60
-5.07
-5.12
-4.72
-3.79
-2.28
-0.22
2.19
4.63
6.80
8.55
9.95
11.25
12.65
14.20
15.73
16.92
17.46
17.25
16.42
15.26
14.03
12.85
11.65
10.26
8.58
6.68
4.79
3.15
1.91
1.03
0.36
-0.23
-0.74
-1.00
-0.80
-0.08
1.04
2.20
2.99
3.08
2.41
1.13
-0.45
-2.01
-3.30
-4.18
-4.61
-4.57
-4.10
-3.25
-2.12
-0.83
0.50
1.77
2.93
3.97
4.86
5.54
5.98
6.15
6.09
5.93
5.77
5.69
5.73
5.88
6.17
6.58
7.10
7.65
8.08
8.22
7.93
7.24
6.28
5.22
4.25
3.43
2.73
2.10
1.47
0.86
0.27
-0.26
-0.76
-1.28
-1.89
-2.58
-3.31
-3.97
-4.46
-4.69
-4.64
-4.26
-3.55
-2.49
-1.11
0.50
2.20
3.81
5.20
6.31
7.10
7.60
7.78
7.62
7.11
6.32
5.41
4.56
3.91
3.43
3.03
2.57
2.00
1.39
0.89
0.64
0.62
0.68
0.59
0.19
-0.54
-1.44
-2.25
-2.76
-2.90
-2.75
-2.48
-2.30
-2.38
-2.76
-3.38
-4.11
-4.79
-5.28
-5.46
-5.26
-4.68
-3.73
-2.46
-0.95
0.73
2.47
4.19
5.78
7.17
8.35
9.31
10.04
10.54
10.76
10.64
10.14
9.29
8.18
6.99
5.89
5.03
4.45
4.12
3.93
3.77
3.58
3.34
3.11
2.95
2.84
2.73
2.50
2.03
1.32
0.43
-0.50
-1.40
-2.27
-3.22
-4.41
-5.86
-7.42
-8.79
-9.65
-9.80
-9.28
-8.30
-7.13
-5.93
-4.74
-3.52
-2.22
-0.86
0.44
1.52
2.29
2.74
2.96
3.02
3.01
2.92
2.73
2.39
1.90
1.32
0.76
0.32
-0.00
-0.26
-0.59
-1.11
-1.83
-2.68
-3.50
-4.21
-4.84
-5.56
-6.60
-8.10
-10.06
-12.35
-14.71
-16.87
-18.60
-19.77
-20.33
-20.31
-19.80
-18.93
-17.80
-16.43
-14.83
-12.97
-10.88
-8.66
-6.41
-4.24
-2.13
-0.05
2.00
3.94
5.61
6.83
7.50
7.65
7.46
7.18
6.99
6.96
7.07
7.16
7.09
6.70
5.96
4.89
3.61
2.25
0.93
-0.29
-1.42
-2.50
-3.59
-4.70
-5.84
-6.98
-8.12
-9.24
-10.34
-11.40
-12.38
-13.23
-13.89
-14.29
-14.33
-13.88
-12.84
-11.17
-8.94
-6.35
-3.71
-1.30
0.69
2.22
3.37
4.30
5.14
5.89
6.44
6.64
6.35
5.55
4.41
3.29
2.58
2.59
3.39
4.80
6.49
8.17
9.68
11.01
12.12
12.89
13.04
12.22
10.29
7.38
3.95
0.63
-2.06
-3.80
-4.57
-4.51
-3.83
-2.66
-1.12
0.70
2.67
4.62
6.41
7.97
9.36
10.69
12.09
13.57
14.91
15.77
15.77
14.72
12.70
10.14
7.64
5.79
4.94
5.15
6.26
7.96
9.95
11.94
13.68
14.96
15.70
15.96
15.90
15.72
15.49
15.09
14.26
12.74
10.47
7.62
4.50
1.47
-1.22
-3.43
-5.09
-6.07
-6.28
-5.64
-4.27
-2.46
-0.63
0.84
1.76
2.14
2.13
1.97
1.80
1.74
1.83
2.12
2.66
3.44
4.33
5.05
5.24
4.64
3.18
1.06
-1.32
-3.53
-5.26
-6.44
-7.17
-7.68
-8.17
-8.73
-9.37
-10.03
-10.62
-11.10
-11.43
-11.60
-11.61
-11.49
-11.34
-11.33
-11.66
-12.46
-13.74
-15.28
-16.74
-17.71
-17.88
-17.19
-15.75
-13.87
-11.88
-10.04
-8.42
-7.00
-5.67
-4.36
-3.10
-1.91
-0.84
0.14
1.07
2.02
2.98
3.91
4.78
5.57
6.32
7.10
7.96
8.93
9.96
11.05
12.15
13.27
14.41
15.52
16.49
17.21
17.58
17.62
17.47
17.37
17.56
18.17
19.15
20.26
21.15
21.52
21.17
20.18
18.94
18.17
18.83
21.85
27.79
36.59
47.41
58.75
68.84
76.13
79.63
79.19
75.33
69.04
61.42
53.43
45.75
38.73
32.44
26.70
21.20
15.50
9.17
1.88
-6.49
-15.76
-25.48
-35.08
-44.03
-51.99
-58.90
-64.85
-69.99
-74.36
-77.91
-80.54
-82.14
-82.66
-82.13
-80.60
-78.15
-74.85
-70.82
-66.22
-61.27
-56.20
-51.17
-46.29
-41.57
-36.99
-32.54
-28.23
-24.16
-20.46
-17.21
-14.45
-12.10
-10.04
-8.17
-6.45
-4.94
-3.72
-2.85
-2.26
-1.83
-1.39
-0.82
-0.14
0.50
0.97
1.14
1.07
0.92
0.92
1.26
1.99
3.04
4.16
5.09
5.56
5.49
4.95
4.17
3.38
2.74
2.21
1.63
0.82
-0.28
-1.52
-2.62
-3.29
-3.37
-2.93
-2.19
-1.40
-0.71
-0.15
0.38
0.97
1.67
2.43
3.15
3.71
4.02
4.03
3.78
3.39
2.99
2.72
2.69
2.94
3.45
4.13
4.84
5.44
5.83
6.00
6.01
5.96
5.94
5.96
5.98
5.88
5.61
5.14
4.53
3.85
3.18
2.55
1.95
1.37
0.78
0.18
-0.41
-0.89
-1.18
-1.23
-1.04
-0.70
-0.28
0.21
0.85
1.78
3.08
4.72
6.52
8.23
9.58
10.46
10.85
10.85
10.54
9.97
9.14
8.00
6.55
4.85
3.04
1.29
-0.21
-1.40
-2.31
-3.05
-3.70
-4.19
-4.39
-4.14
-3.45
-2.54
-1.76
-1.45
-1.74
-2.48
-3.33
-4.00
-4.38
-4.56
-4.71
-4.93
-5.11
-5.00
-4.38
-3.17
-1.51
0.30
1.95
3.25
4.16
4.80
5.33
5.91
6.60
7.36
8.02
8.35
8.19
7.49
6.38
5.10
3.94
3.05
2.47
2.14
1.97
1.96
2.21
2.75
3.55
4.39
5.00
5.09
4.58
3.56
2.31
1.16
0.38
0.10
0.24
0.57
0.81
0.75
0.32
-0.39
-1.16
-1.79
-2.14
-2.17
-1.85
-1.16
0.00
1.70
3.89
6.31
8.57
10.30
11.24
11.37
10.84
9.84
8.45
6.62
4.21
1.18
-2.34
-5.97
-9.22
-11.61
-12.86
-12.89
-11.82
-9.86
-7.25
-4.25
-1.21
1.43
3.24
3.88
3.25
1.58
-0.64
-2.88
-4.75
-6.11
-7.07
-7.84
-8.58
-9.29
-9.86
-10.10
-9.85
-9.09
-7.88
-6.40
-4.82
-3.27
-1.82
-0.48
0.74
1.86
2.82
3.56
4.01
4.10
3.80
3.13
2.19
1.13
0.13
-0.70
-1.31
-1.71
-1.97
-2.14
-2.24
-2.26
-2.20
-2.10
-2.00
-1.96
-1.98
-2.02
-2.01
-1.94
-1.85
-1.83
-2.01
-2.43
-3.05
-3.76
-4.35
-4.67
-4.59
-4.07
-3.11
-1.77
-0.15
1.56
3.18
4.51
5.45
6.03
6.39
6.70
7.08
7.53
7.96
8.26
8.35
8.22
7.91
7.49
7.00
6.46
5.90
5.34
4.78
4.21
3.55
2.78
1.91
1.02
0.24
-0.37
-0.81
-1.16
-1.53
-2.01
-2.63
-3.35
-4.16
-5.05
-6.05
-7.13
-8.18
-8.98
-9.26
-8.83
-7.64
-5.83
-3.69
-1.56
0.32
1.86
3.12
4.26
5.41
6.64
7.94
9.24
10.49
11.68
12.79
13.76
14.52
14.94
14.96
14.55
13.81
12.85
11.77
10.65
9.52
8.37
7.17
5.84
4.28
2.36
0.01
-2.73
-5.68
-8.55
-11.06
-12.98
-14.23
-14.84
-14.91
-14.55
-13.83
-12.78
-11.45
-9.91
-8.29
-6.74
-5.37
-4.18
-3.08
-1.93
-0.64
0.78
2.20
3.46
4.42
5.04
5.34
5.43
5.37
5.22
4.99
4.70
4.38
4.07
3.79
3.53
3.29
3.04
2.79
2.51
2.21
1.89
1.56
1.25
0.99
0.77
0.55
0.26
-0.18
-0.81
-1.63
-2.56
-3.47
-4.22
-4.73
-4.94
-4.85
-4.51
-3.95
-3.18
-2.22
-1.12
0.05
1.15
2.06
2.70
3.07
3.24
3.30
3.31
3.31
3.27
3.15
2.94
2.63
2.28
1.91
1.59
1.33
1.12
0.92
0.68
0.33
-0.13
-0.71
-1.36
-2.04
-2.72
-3.37
-3.96
-4.48
-4.91
-5.24
-5.51
-5.73
-5.87
-5.88
-5.60
-4.95
-3.84
-2.30
-0.44
1.58
3.58
5.39
6.90
8.04
8.84
9.35
9.67
9.87
9.99
10.01
9.91
9.64
9.23
8.75
8.26
7.83
7.46
7.12
6.73
6.24
5.60
4.79
3.80
2.63
1.35
0.01
-1.29
-2.46
-3.42
-4.09
-4.44
-4.50
-4.35
-4.09
-3.85
-3.69
-3.57
-3.44
-3.20
-2.78
-2.13
-1.29
-0.32
0.69
1.66
2.47
3.00
3.15
2.86
2.15
1.06
-0.33
-1.97
-3.77
-5.63
-7.40
-8.88
-9.93
-10.46
-10.51
-10.18
-9.61
-8.89
-8.09
-7.28
-6.47
-5.74
-5.14
-4.74
-4.58
-4.67
-4.96
-5.36
-5.73
-5.91
-5.77
-5.22
-4.29
-3.05
-1.65
-0.23
1.11
2.30
3.30
4.10
4.67
5.02
5.16
5.13
4.94
4.58
3.99
3.11
1.92
0.50
-0.98
-2.29
-3.22
-3.65
-3.59
-3.22
-2.80
-2.59
-2.76
-3.36
-4.25
-5.23
-6.10
-6.74
-7.17
-7.47
-7.77
-8.15
-8.63
-9.15
-9.63
-10.02
-10.29
-10.41
-10.37
-10.10
-9.53
-8.60
-7.30
-5.73
-4.05
-2.48
-1.17
-0.20
0.41
0.72
0.79
0.65
0.35
-0.09
-0.61
-1.16
-1.65
-2.04
-2.27
-2.29
-2.06
-1.53
-0.74
0.24
1.26
2.15
2.78
3.06
3.00
2.64
2.11
1.55
1.18
1.18
1.69
2.76
4.29
6.08
7.88
9.49
10.81
11.83
12.66
13.40
14.15
14.95
15.78
16.61
17.40
18.08
18.63
19.00
19.15
19.02
18.57
17.77
16.65
15.28
13.77
12.25
10.79
9.41
8.08
6.72
5.29
3.75
2.11
0.37
-1.41
-3.20
-4.92
-6.50
-7.86
-8.98
-9.87
-10.60
-11.24
-11.85
-12.45
-13.01
-13.46
-13.75
-13.79
-13.55
-13.03
-12.24
-11.22
-9.99
-8.63
-7.16
-5.67
-4.24
-2.95
-1.87
-1.05
-0.49
-0.23
-0.25
-0.58
-1.15
-1.89
-2.64
-3.25
-3.62
-3.73
-3.66
-3.52
-3.41
-3.37
-3.35
-3.27
-3.05
-2.71
-2.30
-1.90
-1.60
-1.49
-1.63
-2.09
-2.88
-3.92
-4.99
-5.78
-5.99
-5.45
-4.17
-2.36
-0.29
1.79
3.74
5.52
7.13
8.56
9.75
10.62
11.09
11.12
10.73
9.98
8.98
7.88
6.83
5.95
5.30
4.89
4.64
4.43
4.18
3.81
3.27
2.56
1.72
0.77
-0.23
-1.21
-2.13
-2.95
-3.65
-4.29
-4.91
-5.61
-6.41
-7.29
-8.13
-8.73
-8.90
-8.49
-7.45
-5.88
-3.95
-1.89
0.07
1.80
3.24
4.39
5.29
5.96
6.37
6.45
6.18
5.60
4.85
4.08
3.41
2.90
2.52
2.25
2.04
1.87
1.71
1.50
1.18
0.70
0.07
-0.63
-1.37
-2.11
-2.89
-3.73
-4.59
-5.40
-6.07
-6.53
-6.83
-7.03
-7.18
-7.24
-7.10
-6.61
-5.72
-4.44
-2.89
-1.21
0.47
2.05
3.47
4.64
5.54
6.14
6.45
6.54
6.44
6.15
5.66
4.96
4.08
3.15
2.29
1.62
1.18
0.94
0.79
0.63
0.36
-0.03
-0.48
-0.92
-1.29
-1.59
-1.88
-2.22
-2.69
-3.31
-4.10
-4.99
-5.89
-6.73
-7.39
-7.73
-7.63
-7.01
-5.84
-4.23
-2.33
-0.30
1.69
3.51
5.04
6.22
7.04
7.53
7.73
7.72
7.51
7.10
6.46
5.59
4.58
3.53
2.58
1.82
1.26
0.85
0.54
0.29
0.05
-0.19
-0.50
-0.94
-1.57
-2.37
-3.30
-4.28
-5.22
-6.08
-6.83
-7.44
-7.88
-8.11
-8.09
-7.79
-7.19
-6.27
-5.03
-3.49
-1.74
0.11
1.91
3.54
4.94
6.07
6.89
7.38
7.48
7.16
6.47
5.51
4.46
3.50
2.74
2.22
1.85
1.56
1.28
0.99
0.77
0.64
0.59
0.53
0.37
0.04
-0.44
-0.97
-1.48
-1.92
-2.37
-2.91
-3.64
-4.56
-5.56
-6.46
-7.01
-7.06
-6.51
-5.39
-3.83
-1.99
-0.04
1.88
3.63
5.12
6.24
6.95
7.23
7.12
6.71
6.12
5.47
4.81
4.20
3.63
3.10
2.62
2.17
1.76
1.39
1.02
0.61
0.12
-0.50
-1.26
-2.11
-2.94
-3.64
-4.13
-4.42
-4.66
-5.03
-5.72
-6.76
-8.07
-9.41
-10.52
-11.18
-11.30
-10.85
-9.91
-8.56
-6.87
-4.95
-2.91
-0.91
0.89
2.32
3.30
3.81
3.92
3.74
3.42
3.05
2.72
2.51
2.43
2.55
2.86
3.30
3.77
4.13
4.24
4.07
3.65
3.09
2.54
2.10
1.83
1.68
1.58
1.44
1.16
0.73
0.16
-0.48
-1.06
-1.47
-1.60
-1.35
-0.69
0.36
1.69
3.13
4.50
5.69
6.65
7.42
8.00
8.35
8.36
7.92
7.07
5.99
4.99
4.31
4.03
4.02
4.03
3.83
3.34
2.60
1.75
0.91
0.12
-0.60
-1.27
-1.88
-2.41
-2.88
-3.33
-3.80
-4.34
-4.94
-5.59
-6.25
-6.93
-7.61
-8.25
-8.73
-8.86
-8.42
-7.28
-5.42
-2.99
-0.29
2.38
4.75
6.65
7.98
8.74
8.93
8.58
7.77
6.63
5.33
4.03
2.86
1.91
1.21
0.74
0.50
0.43
0.49
0.59
0.65
0.64
0.56
0.45
0.33
0.20
-0.03
-0.48
-1.25
-2.35
-3.68
-5.03
-6.20
-7.04
-7.50
-7.65
-7.57
-7.30
-6.76
-5.87
-4.56
-2.91
-1.09
0.68
2.23
3.51
4.57
5.49
6.27
6.85
7.15
7.12
6.81
6.36
5.95
5.69
5.63
5.78
6.07
6.49
7.00
7.59
8.21
8.76
9.08
8.97
8.33
7.12
5.47
3.55
1.52
-0.56
-2.71
-5.02
-7.55
-10.18
-12.70
-14.77
-16.07
-16.42
-15.84
-14.46
-12.53
-10.28
-7.89
-5.47
-3.10
-0.85
1.17
2.83
4.04
4.79
5.14
5.18
5.00
4.65
4.16
3.56
2.93
2.36
1.93
1.71
1.68
1.77
1.91
2.01
2.03
1.93
1.72
1.39
0.97
0.49
-0.01
-0.49
-0.97
-1.53
-2.23
-3.12
-4.14
-5.11
-5.80
-6.01
-5.65
-4.76
-3.49
-1.97
-0.31
1.43
3.22
4.95
6.45
7.51
8.05
8.08
7.76
7.28
6.75
6.18
5.53
4.80
4.06
3.45
3.07
2.90
2.77
2.48
1.89
1.02
0.04
-0.87
-1.58
-2.12
-2.58
-3.08
-3.68
-4.41
-5.24
-6.16
-7.17
-8.24
-9.31
-10.27
-10.98
-11.29
-11.07
-10.24
-8.83
-6.97
-4.87
-2.76
-0.87
0.69
1.87
2.74
3.34
3.67
3.71
3.43
2.85
2.11
1.38
0.87
0.72
0.92
1.34
1.79
2.06
2.04
1.76
1.34
0.92
0.60
0.39
0.21
-0.01
-0.32
-0.72
-1.21
-1.77
-2.44
-3.26
-4.21
-5.20
-6.01
-6.42
-6.25
-5.47
-4.19
-2.61
-0.93
0.70
2.24
3.64
4.88
5.85
6.41
6.49
6.11
5.40
4.57
3.81
3.22
2.79
2.45
2.16
1.87
1.58
1.28
0.91
0.41
-0.22
-0.94
-1.61
-2.12
-2.41
-2.54
-2.68
-3.00
-3.63
-4.54
-5.64
-6.77
-7.81
-8.64
-9.21
-9.41
-9.16
-8.35
-6.96
-5.07
-2.90
-0.72
1.21
2.76
3.92
4.80
5.52
6.18
6.76
7.21
7.43
7.37
7.05
6.55
5.97
5.38
4.82
4.30
3.84
3.45
3.20
3.12
3.19
3.31
3.32
3.08
2.54
1.75
0.84
-0.02
-0.74
-1.33
-1.88
-2.51
-3.29
-4.21
-5.15
-5.95
-6.45
-6.53
-6.14
-5.31
-4.11
-2.68
-1.14
0.39
1.78
2.95
3.78
4.21
4.24
3.92
3.40
2.84
2.35
1.96
1.64
1.32
0.98
0.64
0.31
0.02
-0.29
-0.69
-1.23
-1.88
-2.55
-3.10
-3.44
-3.58
-3.59
-3.58
-3.67
-3.93
-4.37
-4.98
-5.71
-6.52
-7.30
-7.95
-8.34
-8.34
-7.86
-6.88
-5.46
-3.72
-1.84
0.02
1.69
3.03
3.94
4.42
4.49
4.26
3.86
3.41
3.01
2.64
2.26
1.78
1.18
0.52
-0.09
-0.51
-0.67
-0.61
-0.46
-0.35
-0.39
-0.55
-0.77
-0.97
-1.14
-1.35
-1.69
-2.23
-2.93
-3.69
-4.37
-4.89
-5.23
-5.43
-5.48
-5.32
-4.83
-3.92
-2.58
-0.90
0.95
2.82
4.61
6.27
7.75
8.97
9.81
10.22
10.18
9.79
9.18
8.51
7.88
7.32
6.84
6.38
5.87
5.23
4.42
3.48
2.50
1.67
1.08
0.75
0.53
0.18
-0.53
-1.71
-3.32
-5.16
-6.97
-8.53
-9.76
-10.64
-11.31
-11.95
-12.71
-13.67
-14.79
-15.83
-16.50
-16.51
-15.66
-13.97
-11.63
-8.95
-6.22
-3.67
-1.42
0.45
1.93
3.02
3.78
4.34
4.87
5.53
6.39
7.40
8.44
9.34
9.94
10.17
10.00
9.50
8.80
8.05
7.41
7.07
7.12
7.56
8.28
9.12
9.87
10.41
10.69
10.74
10.58
10.20
9.59
8.69
7.50
6.11
4.70
3.47
2.60
2.18
2.20
2.55
3.08
3.68
4.23
4.68
5.01
5.16
5.13
4.92
4.58
4.18
3.85
3.68
3.69
3.86
4.09
4.25
4.27
4.12
3.82
3.43
2.96
2.40
1.66
0.69
-0.55
-2.00
-3.53
-4.97
-6.16
-7.03
-7.61
-8.05
-8.51
-9.14
-9.95
-10.79
-11.40
-11.51
-10.92
-9.62
-7.79
-5.71
-3.63
-1.76
-0.15
1.19
2.27
3.11
3.70
4.08
4.28
4.34
4.26
3.99
3.48
2.67
1.61
0.41
-0.81
-1.91
-2.86
-3.67
-4.37
-4.98
-5.53
-6.04
-6.49
-6.87
-7.06
-6.96
-6.50
-5.74
-4.85
-4.12
-3.75
-3.81
-4.19
-4.66
-4.99
-5.07
-4.83
-4.28
-3.43
-2.22
-0.65
1.24
3.32
5.38
7.22
8.71
9.85
10.72
11.44
12.03
12.37
12.20
11.26
9.40
6.73
3.54
0.26
-2.72
-5.15
-6.93
-8.07
-8.64
-8.75
-8.54
-8.18
-7.86
-7.70
-7.74
-7.92
-8.17
-8.43
-8.70
-8.99
-9.27
-9.43
-9.32
-8.76
-7.66
-6.04
-4.04
-1.92
0.07
1.77
3.11
4.19
5.11
5.92
6.56
6.88
6.77
6.21
5.34
4.40
3.58
2.96
2.44
1.91
1.32
0.71
0.22
-0.05
-0.10
-0.06
-0.09
-0.33
-0.83
-1.51
-2.30
-3.12
-3.98
-4.88
-5.80
-6.65
-7.26
-7.43
-7.06
-6.14
-4.84
-3.37
-1.92
-0.59
0.67
1.95
3.34
4.76
6.05
7.01
7.48
7.43
6.96
6.27
5.55
4.93
4.44
4.04
3.63
3.17
2.64
2.09
1.57
1.11
0.67
0.20
-0.35
-0.99
-1.66
-2.30
-2.84
-3.31
-3.80
-4.41
-5.17
-6.00
-6.69
-7.04
-6.88
-6.17
-4.99
-3.48
-1.80
-0.09
1.53
2.95
4.08
4.86
5.34
5.58
5.68
5.66
5.50
5.15
4.59
3.90
3.18
2.56
2.08
1.73
1.45
1.18
0.90
0.64
0.44
0.28
0.09
-0.23
-0.75
-1.48
-2.33
-3.25
-4.17
-5.06
-5.90
-6.63
-7.11
-7.15
-6.59
-5.37
-3.60
-1.51
0.60
2.50
4.03
5.20
6.04
6.64
7.00
7.10
6.88
6.32
5.50
4.55
3.61
2.81
2.17
1.68
1.30
0.95
0.62
0.28
-0.06
-0.37
-0.64
-0.86
-1.07
-1.37
-1.83
-2.52
-3.42
-4.42
-5.42
-6.33
-7.10
-7.71
-8.14
-8.24
-7.88
-6.91
-5.35
-3.37
-1.25
0.73
2.42
3.79
4.93
5.87
6.58
6.95
6.89
6.41
5.67
4.87
4.15
3.57
3.08
2.62
2.21
1.87
1.67
1.56
1.46
1.23
0.82
0.27
-0.31
-0.84
-1.30
-1.73
-2.21
-2.76
-3.37
-4.02
-4.72
-5.49
-6.30
-6.99
-7.32
-7.02
-5.91
-4.05
-1.72
0.69
2.83
4.47
5.59
6.32
6.80
7.11
7.28
7.29
7.13
6.83
6.44
6.02
5.60
5.21
4.87
4.58
4.36
4.21
4.09
3.94
3.69
3.30
2.79
2.17
1.51
0.84
0.14
-0.62
-1.44
-2.35
-3.32
-4.31
-5.29
-6.22
-7.05
-7.69
-8.05
-8.03
-7.56
-6.64
-5.30
-3.66
-1.84
0.05
1.89
3.57
5.00
6.09
6.77
7.04
6.91
6.48
5.86
5.16
4.49
3.94
3.56
3.38
3.35
3.35
3.27
3.00
2.49
1.79
0.99
0.20
-0.52
-1.17
-1.78
-2.41
-3.06
-3.72
-4.32
-4.85
-5.34
-5.85
-6.47
-7.24
-8.10
-8.92
-9.49
-9.60
-9.16
-8.19
-6.80
-5.15
-3.37
-1.53
0.34
2.19
3.87
5.21
6.05
6.34
6.17
5.74
5.26
4.86
4.51
4.13
3.63
3.05
2.50
2.10
1.95
2.01
2.16
2.24
2.13
1.82
1.37
0.84
0.30
-0.23
-0.78
-1.38
-2.04
-2.74
-3.45
-4.17
-4.88
-5.62
-6.38
-7.13
-7.78
-8.19
-8.20
-7.71
-6.65
-5.07
-3.14
-1.02
1.09
3.07
4.83
6.31
7.47
8.23
8.55
8.41
7.89
7.08
6.14
5.18
4.28
3.51
2.90
2.49
2.29
2.26
2.28
2.24
2.05
1.70
1.25
0.75
0.23
-0.34
-1.00
-1.77
-2.61
-3.42
-4.14
-4.73
-5.26
-5.84
-6.53
-7.30
-8.02
-8.48
-8.46
-7.86
-6.68
-5.09
-3.30
-1.50
0.19
1.75
3.21
4.61
5.91
7.02
7.82
8.18
8.09
7.61
6.92
6.22
5.68
5.35
5.17
4.99
4.68
4.19
3.57
2.92
2.35
1.87
1.45
0.99
0.41
-0.31
-1.18
-2.21
-3.38
-4.69
-6.03
-7.30
-8.37
-9.17
-9.68
-9.99
-10.16
-10.23
-10.16
-9.85
-9.20
-8.17
-6.80
-5.20
-3.48
-1.72
0.05
1.76
3.33
4.63
5.54
5.96
5.91
5.52
4.98
4.48
4.11
3.86
3.64
3.36
3.00
2.59
2.20
1.92
1.76
1.71
1.68
1.62
1.45
1.14
0.68
0.04
-0.75
-1.62
-2.51
-3.35
-4.11
-4.79
-5.43
-5.97
-6.36
-6.48
-6.23
-5.56
-4.47
-3.00
-1.24
0.65
2.47
3.98
4.99
5.46
5.49
5.26
4.98
4.75
4.55
4.28
3.86
3.33
2.77
2.33
2.06
1.91
1.78
1.56
1.21
0.76
0.32
-0.02
-0.24
-0.37
-0.50
-0.73
-1.13
-1.71
-2.40
-3.16
-3.95
-4.76
-5.61
-6.47
-7.25
-7.78
-7.83
-7.21
-5.87
-3.89
-1.46
1.15
3.67
5.91
7.77
9.21
10.25
10.95
11.39
11.65
11.83
11.96
12.07
12.15
12.23
12.34
12.50
12.74
13.02
13.26
13.41
13.42
13.30
13.06
12.68
12.16
11.47
10.59
9.48
8.10
6.32
4.01
1.02
-2.72
-7.10
-11.87
-16.67
-21.09
-24.76
-27.48
-29.18
-29.95
-29.92
-29.24
-28.00
-26.28
-24.20
-21.93
-19.72
-17.70
-15.82
-13.74
-10.92
-6.89
-1.50
4.93
11.68
17.88
22.82
26.15
27.92
28.46
28.09
27.09
25.65
23.95
22.23
20.74
19.69
19.11
18.86
18.68
18.28
17.43
16.01
13.99
11.45
8.53
5.42
2.32
-0.57
-3.13
-5.32
-7.12
-8.58
-9.67
-10.37
-10.66
-10.55
-10.09
-9.34
-8.38
-7.30
-6.19
-5.15
-4.32
-3.79
-3.62
-3.82
-4.39
-5.31
-6.60
-8.23
-10.12
-12.10
-13.89
-15.20
-15.78
-15.52
-14.49
-12.92
-11.11
-9.36
-7.93
-6.95
-6.46
-6.42
-6.75
-7.32
-7.94
-8.44
-8.68
-8.62
-8.35
-8.06
-7.96
-8.20
-8.77
-9.55
-10.29
-10.77
-10.81
-10.27
-9.06
-7.11
-4.41
-1.06
2.65
6.33
9.50
11.80
13.10
13.52
13.33
12.82
12.12
11.21
9.99
8.37
6.39
4.22
2.05
-0.02
-1.94
-3.76
-5.49
-7.10
-8.48
-9.53
-10.28
-10.87
-11.48
-12.24
-13.12
-14.01
-14.77
-15.34
-15.82
-16.36
-17.04
-17.74
-18.13
-17.75
-16.22
-13.45
-9.68
-5.42
-1.27
2.31
5.16
7.31
8.91
10.00
10.51
10.23
9.07
7.14
4.83
2.69
1.19
0.54
0.58
0.96
1.28
1.33
1.15
0.92
0.83
0.95
1.24
1.57
1.89
2.20
2.50
2.76
2.85
2.61
1.97
1.00
-0.06
-0.91
-1.30
-1.11
-0.39
0.71
2.04
3.44
4.83
6.19
7.51
8.79
9.99
11.03
11.75
11.98
11.56
10.49
8.86
6.90
4.92
3.19
1.96
1.33
1.28
1.67
2.29
2.95
3.52
3.91
4.08
3.96
3.48
2.57
1.21
-0.49
-2.36
-4.17
-5.77
-7.08
-8.10
-8.79
-9.11
-8.91
-8.07
-6.57
-4.56
-2.34
-0.26
1.43
2.64
3.49
4.14
4.78
5.44
6.01
6.37
6.44
6.22
5.86
5.53
5.33
5.24
5.16
4.89
4.34
3.52
2.57
1.75
1.26
1.14
1.27
1.36
1.07
0.12
-1.59
-3.95
-6.68
-9.36
-11.58
-12.96
-13.32
-12.67
-11.23
-9.32
-7.30
-5.45
-3.93
-2.80
-2.00
-1.48
-1.13
-0.85
-0.56
-0.21
0.21
0.68
1.17
1.70
2.29
3.03
3.95
5.01
6.06
6.89
7.29
7.13
6.46
5.51
4.60
4.06
4.10
4.74
5.81
7.02
8.02
8.57
8.52
7.87
6.69
5.13
3.34
1.43
-0.58
-2.73
-5.11
-7.79
-10.71
-13.67
-16.36
-18.46
-19.75
-20.19
-19.92
-19.15
-18.18
-17.22
-16.47
-16.01
-15.86
-15.94
-16.13
-16.28
-16.25
-15.98
-15.43
-14.61
-13.58
-12.42
-11.24
-10.13
-9.11
-8.19
-7.28
-6.28
-5.11
-3.72
-2.16
-0.52
1.02
2.23
2.92
2.93
2.24
0.92
-0.84
-2.80
-4.71
-6.31
-7.33
-7.57
-6.91
-5.33
-2.98
-0.07
3.08
6.18
8.98
11.24
12.81
13.59
13.61
13.02
12.09
11.12
10.36
9.95
9.89
10.10
10.44
10.77
11.02
11.14
11.13
10.94
10.56
9.96
9.14
8.12
6.98
5.83
4.79
3.98
3.42
3.04
2.69
2.28
1.77
1.30
1.08
1.35
2.25
3.75
5.69
7.82
9.93
11.89
13.62
15.05
16.09
16.65
16.66
16.18
15.39
14.53
13.85
13.45
13.31
13.30
13.31
13.25
13.11
12.88
12.52
11.97
11.14
10.03
8.77
7.50
6.41
5.57
4.97
4.50
4.03
3.46
2.75
1.97
1.26
0.85
1.00
1.94
3.75
6.35
9.43
12.61
15.48
17.75
19.26
20.00
20.01
19.34
18.08
16.33
14.34
12.38
10.77
9.71
9.23
9.21
9.41
9.65
9.83
10.00
10.29
10.83
11.67
12.78
14.10
15.53
16.95
18.23
19.17
19.55
19.17
17.91
15.78
12.90
9.51
5.84
2.15
-1.26
-4.11
-6.11
-7.08
-6.98
-5.97
-4.28
-2.16
0.21
2.71
5.23
7.60
9.55
10.77
11.00
10.10
8.16
5.44
2.35
-0.65
-3.20
-5.13
-6.46
-7.47
-8.50
-9.87
-11.70
-13.95
-16.42
-18.88
-21.15
-23.09
-24.64
-25.76
-26.49
-26.99
-27.49
-28.25
-29.43
-30.92
-32.39
-33.29
-33.11
-31.51
-28.45
-24.18
-19.11
-13.71
-8.38
-3.39
1.18
5.28
8.88
11.80
13.76
14.41
13.61
11.49
8.55
5.51
3.04
1.59
1.25
1.81
2.88
4.06
5.00
5.45
5.22
4.26
2.65
0.63
-1.49
-3.42
-5.01
-6.33
-7.62
-9.19
-11.28
-13.90
-16.78
-19.43
-21.31
-21.96
-21.21
-19.14
-16.02
-12.23
-8.07
-3.78
0.43
4.33
7.63
9.97
11.05
10.73
9.14
6.61
3.67
0.81
-1.60
-3.40
-4.61
-5.31
-5.57
-5.41
-4.88
-4.11
-3.35
-2.94
-3.17
-4.17
-5.92
-8.25
-10.93
-13.76
-16.55
-19.12
-21.20
-22.54
-22.89
-22.15
-20.39
-17.78
-14.60
-11.05
-7.27
-3.27
0.94
5.34
9.77
13.95
17.50
20.03
21.22
20.94
19.27
16.49
12.97
9.09
5.14
1.32
-2.23
-5.30
-7.67
-9.14
-9.62
-9.26
-8.43
-7.57
-7.10
-7.30
-8.29
-10.06
-12.46
-15.17
-17.72
-19.51
-19.97
-18.76
-15.90
-11.81
-7.18
-2.74
0.93
3.46
4.76
4.98
4.46
3.65
3.09
3.24
4.35
6.42
9.22
12.40
15.63
18.65
21.19
23.00
23.76
23.20
21.22
17.94
13.69
8.91
3.98
-0.83
-5.43
-9.84
-14.09
-18.14
-21.88
-25.01
-27.18
-28.00
-27.20
-24.70
-20.72
-15.69
-10.17
-4.75
0.08
3.92
6.48
7.61
7.33
5.86
3.57
0.97
-1.45
-3.34
-4.51
-5.00
-4.97
-4.65
-4.25
-3.92
-3.75
-3.78
-4.04
-4.50
-5.15
-5.96
-6.87
-7.85
-8.91
-10.09
-11.46
-13.06
-14.82
-16.57
-17.97
-18.63
-18.21
-16.54
-13.74
-10.16
-6.31
-2.66
0.50
3.00
4.81
5.86
5.99
5.05
3.02
0.15
-3.02
-5.82
-7.77
-8.75
-9.05
-9.22
-9.75
-10.82
-12.25
-13.66
-14.72
-15.32
-15.60
-15.82
-16.16
-16.66
-17.17
-17.49
-17.45
-16.98
-16.11
-14.84
-13.17
-11.03
-8.31
-4.97
-1.06
3.27
7.73
11.94
15.47
17.97
19.26
19.39
18.60
17.27
15.74
14.25
12.90
11.68
10.61
9.74
9.14
8.87
8.89
9.07
9.25
9.27
9.05
8.58
7.91
7.15
6.39
5.75
5.36
5.34
5.80
6.82
8.46
10.73
13.53
16.72
20.07
23.28
26.11
28.33
29.84
30.62
30.74
30.35
29.62
28.71
27.76
26.84
25.97
25.13
24.25
23.26
22.08
20.67
18.98
16.97
14.63
11.98
9.06
5.95
2.74
-0.52
-3.72
-6.66
-9.07
-10.56
-10.77
-9.53
-6.92
-3.37
0.52
4.11
6.85
8.43
8.80
8.13
6.79
5.19
3.73
2.66
2.06
1.78
1.50
0.89
-0.34
-2.30
-4.88
-7.73
-10.34
-12.11
-12.61
-11.74
-9.84
-7.67
-6.12
-5.88
-7.16
-9.63
-12.57
-15.13
-16.67
-16.88
-15.75
-13.40
-9.96
-5.54
-0.28
5.52
11.39
16.70
20.88
23.50
24.46
23.91
22.21
19.76
16.91
13.93
11.05
8.52
6.59
5.44
5.09
5.28
5.55
5.41
4.55
2.98
1.03
-0.89
-2.48
-3.73
-4.85
-6.17
-7.92
-10.10
-12.48
-14.76
-16.58
-17.67
-17.87
-17.07
-15.31
-12.72
-9.53
-6.03
-2.55
0.70
3.50
5.76
7.38
8.33
8.61
8.29
7.51
6.44
5.28
4.13
3.02
1.91
0.71
-0.62
-2.04
-3.45
-4.64
-5.45
-5.81
-5.79
-5.59
-5.50
-5.77
-6.55
-7.84
-9.52
-11.33
-12.95
-14.03
-14.27
-13.44
-11.48
-8.52
-4.87
-0.94
2.86
6.24
9.03
11.16
12.67
13.62
14.07
14.10
13.80
13.23
12.42
11.37
10.09
8.58
6.94
5.31
3.85
2.70
1.93
1.54
1.39
1.34
1.21
0.86
0.19
-0.85
-2.22
-3.77
-5.26
-6.37
-6.79
-6.27
-4.75
-2.37
0.58
3.69
6.65
9.21
11.31
12.94
14.07
14.67
14.68
14.08
12.94
11.44
9.83
8.32
7.04
5.99
5.11
4.31
3.53
2.78
2.09
1.49
0.96
0.47
-0.09
-0.81
-1.74
-2.95
-4.41
-6.08
-7.82
-9.43
-10.67
-11.26
-11.03
-9.91
-8.01
-5.54
-2.80
-0.04
2.53
4.79
6.66
8.06
8.94
9.26
9.07
8.48
7.65
6.74
5.84
4.97
4.07
3.11
2.09
1.12
0.34
-0.14
-0.30
-0.24
-0.13
-0.13
-0.35
-0.80
-1.45
-2.29
-3.31
-4.54
-5.93
-7.31
-8.44
-9.07
-9.03
-8.31
-7.05
-5.44
-3.70
-1.93
-0.13
1.71
3.61
5.43
6.92
7.80
7.87
7.14
5.83
4.28
2.79
1.47
0.27
-0.94
-2.24
-3.52
-4.61
-5.31
-5.57
-5.52
-5.36
-5.24
-5.19
-5.16
-5.10
-5.10
-5.32
-5.95
-7.00
-8.28
-9.40
-9.94
-9.59
-8.26
-6.07
-3.32
-0.34
2.52
4.99
6.88
8.11
8.71
8.78
8.44
7.82
7.01
6.08
5.13
4.24
3.45
2.77
2.14
1.45
0.64
-0.31
-1.33
-2.32
-3.23
-4.08
-4.97
-6.02
-7.28
-8.74
-10.24
-11.56
-12.47
-12.80
-12.44
-11.44
-9.88
-7.95
-5.82
-3.70
-1.74
-0.06
1.28
2.29
3.01
3.53
3.90
4.12
4.12
3.84
3.22
2.29
1.18
0.08
-0.84
-1.47
-1.83
-1.99
-2.07
-2.19
-2.39
-2.68
-3.03
-3.44
-3.92
-4.54
-5.35
-6.38
-7.51
-8.59
-9.41
-9.79
-9.64
-8.95
-7.71
-5.96
-3.75
-1.14
1.65
4.32
6.52
7.96
8.52
8.31
7.61
6.74
5.93
5.26
4.67
4.07
3.43
2.81
2.35
2.13
2.17
2.35
2.52
2.57
2.43
2.12
1.71
1.26
0.75
0.14
-0.66
-1.67
-2.88
-4.17
-5.41
-6.43
-7.07
-7.20
-6.77
-5.75
-4.23
-2.33
-0.23
1.91
3.94
5.73
7.14
8.09
8.49
8.36
7.76
6.86
5.83
4.83
3.93
3.18
2.56
2.03
1.58
1.19
0.88
0.64
0.47
0.35
0.21
0.01
-0.31
-0.77
-1.31
-1.92
-2.61
-3.46
-4.54
-5.92
-7.53
-9.20
-10.70
-11.80
-12.33
-12.18
-11.32
-9.78
-7.70
-5.24
-2.69
-0.27
1.80
3.46
4.73
5.68
6.34
6.70
6.73
6.38
5.71
4.83
3.91
3.13
2.67
2.57
2.79
3.16
3.50
3.66
3.59
3.33
2.96
2.50
1.92
1.18
0.31
-0.60
-1.35
-1.84
-2.07
-2.15
-2.24
-2.32
-2.25
-1.74
-0.56
1.31
3.66
6.11
8.32
10.10
11.44
12.42
13.12
13.51
13.52
13.07
12.17
10.94
9.54
8.06
6.50
4.78
2.86
0.77
-1.34
-3.34
-5.13
-6.76
-8.32
-9.87
-11.36
-12.64
-13.56
-14.10
-14.41
-14.73
-15.31
-16.26
-17.55
-19.06
-20.62
-22.12
-23.40
-24.28
-24.49
-23.78
-22.00
-19.24
-15.80
-12.15
-8.75
-5.92
-3.74
-2.11
-0.85
0.19
1.12
1.94
2.62
3.16
3.56
3.84
4.01
4.12
4.15
4.14
4.11
4.09
4.08
4.09
4.10
4.08
3.97
3.71
3.25
2.53
1.57
0.39
-0.94
-2.33
-3.73
-5.08
-6.37
-7.55
-8.56
-9.26
-9.50
-9.14
-8.15
-6.60
-4.72
-2.78
-1.07
0.25
1.12
1.63
1.87
2.01
2.12
2.24
2.36
2.43
2.44
2.43
2.53
2.85
3.49
4.38
5.36
6.12
6.39
6.00
4.94
3.39
1.64
-0.00
-1.26
-1.97
-2.11
-1.80
-1.22
-0.64
-0.24
-0.13
-0.32
-0.73
-1.20
-1.58
-1.72
-1.51
-0.92
0.05
1.31
2.71
4.12
5.44
6.60
7.58
8.39
9.03
9.44
9.59
9.42
8.94
8.17
7.17
6.00
4.72
3.41
2.24
1.34
0.83
0.71
0.85
1.04
1.11
0.94
0.55
0.05
-0.46
-0.94
-1.46
-2.11
-2.94
-3.91
-4.88
-5.63
-6.02
-5.93
-5.38
-4.43
-3.14
-1.60
0.15
2.03
3.97
5.89
7.67
9.22
10.41
11.13
11.30
10.87
9.88
8.47
6.82
5.17
3.69
2.52
1.72
1.33
1.33
1.66
2.26
3.03
3.89
4.77
5.64
6.46
7.18
7.71
7.98
7.97
7.76
7.50
7.34
7.38
7.55
7.64
7.39
6.58
5.13
3.17
0.95
-1.21
-3.01
-4.25
-4.82
-4.68
-3.87
-2.52
-0.84
0.88
2.33
3.28
3.61
3.35
2.61
1.52
0.18
-1.36
-3.04
-4.77
-6.35
-7.57
-8.28
-8.44
-8.16
-7.67
-7.15
-6.71
-6.36
-6.02
-5.65
-5.25
-4.90
-4.73
-4.83
-5.28
-6.04
-7.06
-8.24
-9.49
-10.73
-11.85
-12.70
-13.09
-12.83
-11.80
-10.00
-7.59
-4.84
-2.10
0.35
2.35
3.88
5.03
5.90
6.55
6.99
7.21
7.21
7.01
6.69
6.30
5.89
5.49
5.10
4.71
4.30
3.85
3.34
2.71
1.96
1.11
0.21
-0.64
-1.40
-2.06
-2.67
-3.33
-4.13
-5.15
-6.39
-7.80
-9.28
-10.65
-11.72
-12.28
-12.17
-11.30
-9.69
-7.48
-4.90
-2.19
0.40
2.71
4.62
6.05
6.97
7.37
7.29
6.84
6.17
5.44
4.78
4.24
3.82
3.44
3.03
2.55
2.01
1.46
0.96
0.56
0.23
-0.08
-0.44
-0.87
-1.37
-1.90
-2.43
-2.99
-3.59
-4.25
-4.98
-5.73
-6.51
-7.34
-8.16
-8.86
-9.18
-8.81
-7.54
-5.40
-2.64
0.31
3.02
5.24
6.89
8.01
8.70
9.02
8.99
8.65
8.08
7.37
6.60
5.78
4.94
4.10
3.30
2.62
2.11
1.78
1.59
1.46
1.31
1.07
0.72
0.25
-0.32
-0.99
-1.77
-2.62
-3.51
-4.38
-5.22
-6.03
-6.85
-7.67
-8.40
-8.92
-9.06
-8.72
-7.86
-6.51
-4.76
-2.72
-0.52
1.73
3.87
5.79
7.34
8.45
9.10
9.29
9.07
8.52
7.77
6.94
6.17
5.52
5.01
4.56
4.13
3.69
3.27
2.91
2.63
2.40
2.15
1.76
1.16
0.33
-0.66
-1.69
-2.61
-3.28
-3.69
-3.92
-4.18
-4.66
-5.44
-6.46
-7.55
-8.50
-9.17
-9.50
-9.50
-9.14
-8.35
-7.04
-5.18
-2.88
-0.38
2.00
4.01
5.50
6.50
7.13
7.51
7.69
7.69
7.44
6.90
6.09
5.12
4.11
3.21
2.49
2.02
1.77
1.72
1.75
1.73
1.54
1.13
0.56
-0.05
-0.56
-0.89
-1.11
-1.36
-1.80
-2.56
-3.64
-5.01
-6.52
-8.03
-9.36
-10.30
-10.68
-10.40
-9.42
-7.84
-5.80
-3.50
-1.14
1.09
3.01
4.48
5.45
5.92
5.99
5.76
5.31
4.73
4.06
3.37
2.72
2.17
1.73
1.40
1.13
0.92
0.79
0.75
0.81
0.93
1.01
0.94
0.65
0.13
-0.55
-1.33
-2.12
-2.89
-3.62
-4.33
-5.05
-5.82
-6.65
-7.53
-8.37
-9.05
-9.38
-9.19
-8.39
-6.95
-4.96
-2.57
0.04
2.66
5.12
7.21
8.77
9.68
9.89
9.54
8.82
8.00
7.27
6.73
6.35
6.03
5.67
5.21
4.68
4.15
3.71
3.40
3.19
2.99
2.71
2.22
1.50
0.59
-0.43
-1.41
-2.27
-2.98
-3.58
-4.17
-4.81
-5.57
-6.47
-7.47
-8.49
-9.38
-9.95
-10.01
-9.41
-8.08
-6.13
-3.75
-1.19
1.33
3.61
5.55
7.04
7.97
8.26
7.87
6.91
5.64
4.37
3.41
2.87
2.66
2.55
2.31
1.84
1.22
0.64
0.28
0.21
0.31
0.40
0.27
-0.18
-0.93
-1.90
-2.99
-4.15
-5.38
-6.66
-7.94
-9.18
-10.31
-11.28
-12.08
-12.71
-13.12
-13.24
-12.94
-12.10
-10.62
-8.53
-5.95
-3.07
-0.15
2.59
4.97
6.86
8.19
9.01
9.40
9.54
9.56
9.57
9.56
9.47
9.19
8.67
7.96
7.17
6.46
5.96
5.66
5.46
5.19
4.66
3.82
2.70
1.45
0.21
-0.89
-1.83
-2.62
-3.34
-4.05
-4.84
-5.74
-6.76
-7.83
-8.74
-9.24
-9.08
-8.14
-6.51
-4.39
-2.04
0.36
2.71
5.01
7.25
9.31
11.02
12.17
12.61
12.28
11.24
9.67
7.77
5.79
3.90
2.27
0.97
0.05
-0.49
-0.74
-0.82
-0.92
-1.17
-1.67
-2.45
-3.46
-4.64
-5.88
-7.05
-8.02
-8.72
-9.10
-9.26
-9.32
-9.42
-9.62
-9.88
-10.02
-9.87
-9.29
-8.25
-6.82
-5.18
-3.51
-1.99
-0.75
0.13
0.69
1.01
1.17
1.22
1.17
0.96
0.61
0.18
-0.20
-0.36
-0.14
0.53
1.61
2.96
4.36
5.55
6.38
6.87
7.22
7.77
8.89
10.86
13.81
17.63
22.01
26.44
30.22
32.65
33.10
31.26
27.26
21.66
15.36
9.28
4.18
0.47
-1.72
-2.54
-2.25
-1.19
0.23
1.54
2.33
2.30
1.37
-0.29
-2.36
-4.46
-6.33
-7.90
-9.25
-10.62
-12.21
-14.10
-16.21
-18.28
-19.96
-20.95
-21.14
-20.66
-19.84
-19.11
-18.80
-19.05
-19.79
-20.80
-21.81
-22.56
-22.82
-22.40
-21.25
-19.44
-17.26
-15.10
-13.30
-11.98
-10.95
-9.76
-7.96
-5.29
-1.81
2.09
5.86
8.98
11.09
12.09
12.07
11.29
10.09
8.77
7.57
6.63
6.01
5.73
5.80
6.22
6.97
7.95
8.97
9.78
10.19
10.09
9.52
8.63
7.54
6.34
4.99
3.44
1.67
-0.19
-1.88
-3.04
-3.45
-3.02
-1.96
-0.59
0.73
1.79
2.59
3.26
3.99
4.85
5.75
6.49
6.84
6.71
6.13
5.29
4.42
3.69
3.18
2.87
2.68
2.52
2.37
2.23
2.14
2.12
2.14
2.10
1.91
1.45
0.70
-0.30
-1.43
-2.50
-3.33
-3.78
-3.73
-3.15
-2.03
-0.45
1.46
3.47
5.33
6.82
7.81
8.28
8.34
8.07
7.56
6.83
5.90
4.79
3.60
2.46
1.48
0.78
0.36
0.14
-0.01
-0.23
-0.64
-1.24
-1.99
-2.75
-3.42
-3.97
-4.48
-5.07
-5.84
-6.85
-8.02
-9.22
-10.24
-10.86
-10.89
-10.16
-8.63
-6.33
-3.48
-0.35
2.71
5.39
7.45
8.76
9.32
9.22
8.62
7.73
6.79
5.97
5.38
5.01
4.81
4.64
4.41
4.09
3.67
3.22
2.83
2.55
2.38
2.27
2.09
1.71
1.02
0.00
-1.26
-2.62
-3.92
-5.01
-5.83
-6.37
-6.59
-6.45
-5.84
-4.72
-3.11
-1.15
0.91
2.82
4.42
5.65
6.55
7.25
7.86
8.41
8.83
9.02
8.85
8.33
7.57
6.78
6.14
5.71
5.42
5.09
4.58
3.87
3.05
2.27
1.63
1.11
0.58
-0.11
-1.01
-2.11
-3.34
-4.65
-6.00
-7.37
-8.69
-9.81
-10.55
-10.73
-10.25
-9.13
-7.48
-5.43
-3.17
-0.87
1.30
3.21
4.71
5.71
6.19
6.18
5.82
5.23
4.57
3.95
3.44
3.05
2.82
2.72
2.73
2.80
2.82
2.70
2.39
1.88
1.20
0.45
-0.31
-0.99
-1.54
-1.95
-2.27
-2.60
-3.06
-3.73
-4.58
-5.51
-6.38
-7.09
-7.58
-7.84
-7.84
-7.53
-6.83
-5.67
-4.07
-2.18
-0.20
1.65
3.23
4.49
5.42
6.08
6.50
6.68
6.62
6.33
5.83
5.19
4.48
3.77
3.12
2.59
2.28
2.24
2.49
2.94
3.43
3.75
3.73
3.31
2.57
1.69
0.84
0.11
-0.48
-1.02
-1.57
-2.21
-2.96
-3.79
-4.65
-5.50
-6.29
-6.95
-7.49
-7.88
-8.13
-8.18
-7.94
-7.30
-6.20
-4.68
-2.88
-1.02
0.68
2.06
3.08
3.76
4.17
4.33
4.26
3.98
3.50
2.91
2.29
1.76
1.37
1.12
0.93
0.72
0.40
-0.02
-0.43
-0.73
-0.86
-0.88
-0.93
-1.15
-1.59
-2.13
-2.61
-2.89
-2.99
-3.08
-3.35
-3.94
-4.79
-5.74
-6.63
-7.39
-8.05
-8.68
-9.28
-9.73
-9.85
-9.50
-8.64
-7.39
-5.93
-4.44
-3.00
-1.62
-0.26
1.10
2.45
3.71
4.80
5.59
6.02
6.05
5.74
5.20
4.57
3.93
3.32
2.73
2.19
1.75
1.50
1.47
1.63
1.88
2.07
2.07
1.83
1.38
0.81
0.22
-0.32
-0.81
-1.31
-1.86
-2.51
-3.26
-4.08
-4.90
-5.65
-6.31
-6.84
-7.26
-7.54
-7.60
-7.39
-6.88
-6.07
-4.98
-3.66
-2.11
-0.35
1.54
3.41
5.07
6.32
7.06
7.27
7.03
6.48
5.74
4.92
4.15
3.56
3.26
3.29
3.52
3.78
3.87
3.67
3.21
2.64
2.13
1.77
1.56
1.43
1.26
0.95
0.42
-0.34
-1.27
-2.28
-3.24
-4.04
-4.68
-5.26
-5.94
-6.82
-7.88
-8.95
-9.80
-10.27
-10.32
-9.99
-9.41
-8.61
-7.56
-6.22
-4.58
-2.75
-0.94
0.66
1.93
2.88
3.56
4.05
4.36
4.49
4.40
4.14
3.82
3.56
3.45
3.48
3.59
3.66
3.65
3.54
3.35
3.11
2.82
2.43
1.93
1.33
0.70
0.12
-0.33
-0.68
-1.00
-1.42
-2.03
-2.86
-3.87
-4.98
-6.07
-7.02
-7.73
-8.09
-8.03
-7.51
-6.53
-5.18
-3.56
-1.80
0.00
1.74
3.33
4.69
5.76
6.49
6.87
6.90
6.64
6.12
5.44
4.73
4.10
3.65
3.37
3.18
2.98
2.67
2.27
1.86
1.53
1.32
1.17
0.98
0.69
0.30
-0.15
-0.58
-0.98
-1.41
-1.98
-2.76
-3.76
-4.90
-6.07
-7.19
-8.23
-9.20
-10.08
-10.79
-11.15
-10.99
-10.20
-8.75
-6.74
-4.32
-1.69
0.92
3.32
5.34
6.85
7.82
8.26
8.27
7.97
7.48
6.92
6.41
6.02
5.76
5.62
5.51
5.37
5.13
4.79
4.36
3.88
3.38
2.86
2.33
1.80
1.26
0.68
0.04
-0.71
-1.58
-2.56
-3.58
-4.56
-5.44
-6.16
-6.73
-7.22
-7.73
-8.34
-9.08
-9.84
-10.43
-10.60
-10.17
-9.03
-7.23
-4.95
-2.41
0.15
2.54
4.61
6.28
7.45
8.11
8.26
7.96
7.34
6.54
5.71
4.93
4.25
3.69
3.27
2.99
2.86
2.85
2.86
2.84
2.73
2.56
2.37
2.22
2.10
1.94
1.69
1.30
0.77
0.14
-0.58
-1.38
-2.28
-3.31
-4.40
-5.47
-6.39
-7.02
-7.28
-7.13
-6.52
-5.47
-3.97
-2.07
0.12
2.51
4.99
7.51
10.04
12.52
14.80
16.63
17.75
17.96
17.19
15.57
13.32
10.71
7.93
5.16
2.55
0.31
-1.34
-2.23
-2.38
-2.01
-1.52
-1.34
-1.75
-2.79
-4.21
-5.59
-6.54
-6.87
-6.63
-6.09
-5.65
-5.67
-6.32
-7.55
-9.12
-10.68
-11.87
-12.40
-12.15
-11.11
-9.42
-7.27
-4.85
-2.32
0.19
2.61
4.83
6.74
8.22
9.17
9.56
9.42
8.88
8.09
7.27
6.55
6.03
5.71
5.52
5.37
5.23
5.07
4.93
4.82
4.71
4.51
4.14
3.58
2.88
2.13
1.44
0.87
0.37
-0.11
-0.62
-1.20
-1.81
-2.47
-3.21
-4.10
-5.12
-6.17
-7.01
-7.35
-7.02
-5.99
-4.42
-2.53
-0.50
1.63
3.84
6.10
8.26
10.08
11.34
11.97
12.07
11.85
11.55
11.29
11.03
10.63
9.96
8.96
7.66
6.22
4.83
3.67
2.84
2.34
2.04
1.76
1.27
0.43
-0.78
-2.24
-3.75
-5.12
-6.25
-7.19
-8.09
-9.14
-10.45
-12.02
-13.73
-15.39
-16.79
-17.78
-18.21
-17.99
-17.08
-15.50
-13.42
-11.12
-8.97
-7.32
-6.42
-6.30
-6.81
-7.59
-8.28
-8.57
-8.32
-7.57
-6.45
-5.16
-3.89
-2.81
-2.07
-1.79
-2.06
-2.84
-3.98
-5.22
-6.20
-6.67
-6.47
-5.68
-4.51
-3.25
-2.21
-1.63
-1.65
-2.30
-3.50
-5.04
-6.58
-7.81
-8.50
-8.56
-8.11
-7.34
-6.43
-5.43
-4.29
-2.91
-1.29
0.48
2.26
3.90
5.35
6.66
7.85
8.93
9.87
10.71
11.56
12.62
14.02
15.81
17.82
19.78
21.42
22.59
23.28
23.59
23.61
23.37
22.85
21.97
20.72
19.19
17.50
15.80
14.19
12.69
11.26
9.83
8.38
6.95
5.64
4.53
3.62
2.79
1.91
0.90
-0.30
-1.59
-2.85
-3.89
-4.59
-4.84
-4.59
-3.72
-2.09
0.42
3.71
7.38
10.83
13.25
13.98
12.65
9.46
5.05
0.21
-4.45
-8.64
-12.22
-15.22
-17.74
-19.95
-21.77
-22.98
-23.47
-23.37
-23.00
-22.43
-21.80
-21.33
-21.57
-22.54
-23.96
-25.51
-27.06
-28.65
-29.98
-30.92
-31.71
-33.11
-34.95
-36.20
-35.24
-30.47
-20.64
-4.66
17.27
43.28
69.68
93.34
112.09
124.73
130.76
126.64
111.13
86.64
61.60
38.62
17.96
-0.97
-17.89
-32.57
-44.66
-53.29
-57.97
-59.25
-59.09
-58.83
-59.14
-60.10
-61.58
-63.03
-63.19
-61.00
-56.22
-49.79
-42.38
-34.43
-24.80
-13.88
-3.32
5.10
10.27
12.16
11.52
10.13
10.04
12.65
17.97
24.91
31.91
37.48
40.70
41.35
40.07
38.20
35.92
32.93
28.87
23.75
17.95
12.10
6.74
2.21
-1.62
-5.19
-8.96
-13.15
-17.51
-21.50
-24.48
-26.09
-25.58
-22.98
-18.81
-13.83
-8.71
-3.95
0.28
4.07
7.65
11.30
15.07
18.91
22.64
26.03
28.80
30.72
31.66
31.61
30.76
29.40
27.90
26.66
25.91
25.62
25.53
25.30
24.61
23.34
21.56
19.45
17.36
15.60
14.40
13.88
14.02
14.68
15.65
16.68
17.60
18.31
18.74
18.74
18.06
16.43
13.60
9.45
4.00
-2.61
-10.10
-18.06
-26.00
-33.40
-39.81
-44.97
-48.87
-51.72
-53.80
-55.30
-56.22
-56.36
-55.55
-53.72
-50.93
-47.30
-42.98
-38.11
-32.77
-27.05
-21.13
-15.47
-10.62
-6.96
-4.58
-3.24
-2.55
-2.00
-1.23
-0.05
1.14
1.86
1.86
1.33
0.63
0.15
0.09
0.51
1.41
2.16
2.40
2.13
1.84
2.05
2.87
4.02
4.99
5.25
3.59
-0.73
-7.87
-17.11
-27.48
-38.16
-48.72
-59.07
-64.45
-61.95
-51.95
-38.27
-24.87
-13.66
-4.77
2.47
8.77
14.59
18.46
20.29
20.23
18.97
17.39
16.15
15.62
15.87
16.76
17.36
17.33
16.34
14.63
12.76
11.23
10.41
10.45
11.25
12.04
12.17
11.15
9.04
6.29
3.37
0.89
-0.72
-1.38
-1.56
-1.67
-1.93
-2.09
-1.74
-0.59
1.61
4.72
8.10
10.68
11.68
10.89
8.84
6.46
4.75
4.91
7.78
13.57
21.70
31.26
41.29
50.79
58.76
61.77
57.70
47.46
34.97
24.16
16.55
10.97
4.86
-3.88
-15.54
-28.00
-38.02
-43.07
-42.52
-37.36
-29.15
-19.15
-8.04
3.71
15.41
25.52
32.43
34.02
29.58
20.33
8.85
-2.26
-11.34
-17.91
-22.57
-26.37
-30.07
-33.88
-37.26
-39.46
-40.09
-39.04
-36.32
-31.97
-26.07
-18.86
-10.47
-0.98
9.50
19.64
27.69
32.43
33.82
32.91
30.88
28.68
26.64
24.53
21.97
18.85
15.40
12.07
9.78
8.35
7.65
7.62
8.12
9.05
10.31
11.79
13.38
14.99
16.54
18.19
20.26
22.31
24.31
26.27
28.18
29.88
31.08
31.26
30.05
27.25
22.88
17.38
11.35
5.47
0.28
-3.91
-7.07
-9.31
-10.90
-12.20
-13.49
-15.06
-17.10
-19.63
-22.52
-25.52
-28.23
-30.25
-31.22
-30.92
-29.29
-26.48
-22.72
-18.29
-13.52
-8.67
-4.00
0.33
4.24
7.70
10.66
12.99
14.48
14.88
13.99
11.80
8.46
4.35
-0.12
-4.51
-8.47
-11.78
-14.37
-16.31
-17.80
-19.12
-20.49
-22.02
-23.65
-25.23
-26.67
-27.88
-28.89
-29.74
-30.45
-31.04
-31.52
-31.96
-32.39
-32.77
-32.90
-32.37
-30.74
-27.66
-23.08
-17.24
-10.63
-3.72
3.11
9.72
16.12
22.28
28.11
33.36
37.72
40.93
42.90
43.74
43.74
43.26
42.59
41.85
40.90
39.47
37.23
33.97
29.67
24.46
18.58
12.24
5.57
-1.40
-8.66
-16.16
-23.78
-31.26
-38.28
-44.44
-49.35
-52.68
-54.20
-53.85
-51.79
-48.40
-44.24
-39.92
-35.90
-32.28
-28.67
-24.37
-18.72
-11.51
-3.32
4.66
11.00
14.71
15.60
14.37
12.25
10.49
9.91
10.73
12.69
15.32
18.14
20.79
22.99
24.52
25.16
24.75
23.31
21.04
18.32
15.59
13.14
11.05
9.15
7.16
4.82
2.06
-0.95
-3.85
-6.18
-7.56
-7.78
-6.86
-5.09
-2.89
-0.70
1.16
2.47
3.22
3.44
3.17
2.45
1.31
-0.19
-1.93
-3.74
-5.48
-7.01
-8.29
-9.29
-10.00
-10.44
-10.63
-10.63
-10.50
-10.30
-10.07
-9.84
-9.63
-9.48
-9.47
-9.69
-10.24
-11.15
-12.36
-13.73
-15.00
-15.88
-16.09
-15.47
-13.97
-11.71
-8.88
-5.75
-2.57
0.44
3.13
5.42
7.25
8.59
9.43
9.79
9.76
9.49
9.13
8.82
8.62
8.53
8.49
8.42
8.25
7.96
7.54
7.00
6.34
5.58
4.73
3.81
2.83
1.79
0.68
-0.56
-1.92
-3.39
-4.93
-6.47
-7.93
-9.16
-9.95
-10.02
-9.13
-7.17
-4.25
-0.65
3.23
6.97
10.25
12.87
14.71
15.73
15.96
15.49
14.56
13.43
12.35
11.45
10.73
10.09
9.43
8.68
7.88
7.07
6.35
5.72
5.17
4.63
4.01
3.26
2.35
1.33
0.26
-0.76
-1.68
-2.53
-3.39
-4.38
-5.56
-6.87
-8.13
-9.05
-9.32
-8.70
-7.07
-4.50
-1.22
2.42
6.05
9.30
11.96
13.87
15.03
15.49
15.37
14.79
13.90
12.89
11.86
10.91
10.06
9.29
8.54
7.78
7.00
6.25
5.57
4.98
4.48
4.02
3.51
2.90
2.14
1.27
0.35
-0.53
-1.32
-2.01
-2.66
-3.38
-4.25
-5.32
-6.55
-7.84
-9.03
-9.93
-10.32
-10.08
-9.12
-7.51
-5.50
-3.43
-1.67
-0.47
0.11
0.22
0.09
-0.10
-0.26
-0.44
-0.69
-1.04
-1.40
-1.67
-1.83
-1.89
-1.96
-2.08
-2.18
-2.11
-1.71
-0.96
-0.02
0.81
1.19
0.90
-0.09
-1.64
-3.45
-5.20
-6.58
-7.39
-7.54
-7.16
-6.51
-5.99
-5.97
-6.65
-7.98
-9.62
-11.05
-11.76
-11.38
-9.83
-7.26
-4.06
-0.65
2.61
5.52
8.00
10.05
11.69
12.91
13.71
14.05
13.93
13.35
12.36
11.06
9.64
8.40
7.62
7.48
7.95
8.76
9.54
9.95
9.81
9.11
8.01
6.65
5.15
3.57
1.98
0.50
-0.73
-1.64
-2.29
-2.90
-3.77
-5.13
-7.12
-9.67
-12.59
-15.58
-18.28
-20.35
-21.47
-21.44
-20.20
-17.93
-14.96
-11.68
-8.49
-5.66
-3.33
-1.54
-0.33
0.25
0.13
-0.68
-2.03
-3.60
-5.00
-5.92
-6.22
-6.01
-5.61
-5.36
-5.49
-6.02
-6.77
-7.51
-8.06
-8.42
-8.73
-9.20
-10.00
-11.20
-12.75
-14.51
-16.33
-18.11
-19.82
-21.53
-23.34
-25.37
-27.75
-30.51
-33.61
-36.81
-39.66
-41.58
-41.96
-40.30
-36.43
-30.52
-23.07
-14.72
-6.10
2.35
10.40
18.02
25.22
32.05
38.53
44.68
50.46
55.75
60.37
64.07
66.59
67.78
67.60
66.18
63.69
60.36
56.41
52.11
47.72
43.47
39.49
35.75
32.10
28.39
24.60
20.86
17.38
14.25
11.36
8.34
4.72
0.15
-5.41
-11.65
-17.96
-23.66
-28.23
-31.42
-33.33
-34.26
-34.60
-34.69
-34.71
-34.66
-34.47
-33.98
-33.04
-31.54
-29.45
-26.75
-23.50
-19.73
-15.39
-10.40
-4.63
1.97
9.34
17.23
25.26
32.99
39.97
45.86
50.42
53.53
55.19
55.50
54.65
52.86
50.35
47.26
43.67
39.59
35.00
29.90
24.29
18.24
11.91
5.50
-0.66
-6.27
-10.99
-14.59
-16.97
-18.17
-18.38
-17.84
-16.82
-15.52
-14.03
-12.37
-10.51
-8.43
-6.23
-4.09
-2.29
-1.11
-0.76
-1.28
-2.50
-4.09
-5.58
-6.57
-6.84
-6.42
-5.56
-4.63
-3.96
-3.72
-3.85
-4.19
-4.56
-4.88
-5.17
-5.52
-6.02
-6.72
-7.59
-8.61
-9.73
-10.95
-12.27
-13.71
-15.25
-16.89
-18.66
-20.59
-22.72
-25.06
-27.48
-29.76
-31.59
-32.65
-32.73
-31.79
-29.96
-27.50
-24.73
-21.88
-19.04
-16.20
-13.29
-10.20
-6.91
-3.42
0.18
3.72
6.94
9.59
11.46
12.47
12.75
12.57
12.30
12.25
12.59
13.31
14.21
15.00
15.35
15.01
13.91
12.17
10.06
7.98
6.30
5.25
4.87
5.02
5.42
5.76
5.79
5.36
4.50
3.34
2.16
1.31
1.14
1.91
3.70
6.36
9.51
12.64
15.34
17.34
18.57
19.07
18.91
18.04
16.40
14.02
11.06
7.85
4.73
1.93
-0.53
-2.84
-5.20
-7.74
-10.41
-13.01
-15.32
-17.20
-18.62
-19.64
-20.36
-20.85
-21.15
-21.24
-21.13
-20.80
-20.30
-19.67
-18.96
-18.24
-17.56
-16.96
-16.44
-15.93
-15.34
-14.52
-13.31
-11.53
-9.01
-5.72
-1.79
2.47
6.63
10.27
13.12
15.12
16.35
16.94
16.94
16.31
15.01
13.12
10.94
8.92
7.53
7.03
7.45
8.57
10.09
11.81
13.71
15.94
18.72
22.13
26.01
29.95
33.33
35.60
36.45
35.95
34.50
32.72
31.09
29.85
28.90
27.87
26.39
24.24
21.44
18.24
14.99
12.06
9.73
8.11
7.15
6.60
6.15
5.56
4.71
3.67
2.66
1.88
1.38
0.94
0.16
-1.33
-3.68
-6.78
-10.28
-13.68
-16.51
-18.48
-19.67
-20.26
-20.41
-20.08
-19.21
-17.78
-15.91
-13.98
-12.47
-12.13
-13.45
-16.25
-19.77
-22.97
-25.05
-25.51
-24.50
-22.61
-21.18
-21.42
-23.66
-27.31
-31.20
-34.17
-35.25
-34.19
-31.32
-28.17
-26.34
-26.68
-29.20
-33.52
-39.29
-46.05
-53.50
-57.46
-55.10
-46.87
-35.89
-25.22
-16.27
-10.35
-6.24
-3.03
0.03
2.69
4.70
6.78
9.74
14.05
19.50
24.89
28.50
31.29
33.66
34.89
35.22
35.39
35.97
36.98
38.32
39.63
40.63
40.44
38.40
34.56
29.51
23.95
18.35
13.24
8.95
5.61
2.76
-0.10
-3.86
-8.41
-12.38
-15.60
-18.18
-20.00
-20.81
-20.56
-19.26
-16.84
-13.22
-8.58
-3.42
1.76
6.48
10.32
12.90
14.13
14.28
13.87
13.40
13.08
13.00
13.15
13.33
13.23
12.52
10.93
8.42
5.10
1.22
-2.74
-6.26
-9.00
-10.88
-11.94
-12.33
-12.05
-11.07
-9.38
-7.02
-4.16
-1.11
1.76
4.18
5.99
7.20
7.90
8.20
8.21
8.00
7.66
7.32
7.12
7.20
7.65
8.45
9.50
10.56
11.40
11.85
11.83
11.40
10.68
9.79
8.79
7.69
6.41
4.88
3.10
1.11
-0.99
-3.14
-5.31
-7.49
-9.65
-11.68
-13.34
-14.36
-14.44
-13.38
-11.18
-8.00
-4.16
-0.01
4.16
8.11
11.67
14.65
16.88
18.13
18.23
17.04
14.50
10.63
5.50
-0.71
-7.67
-14.90
-21.87
-28.13
-33.42
-37.76
-41.33
-44.36
-47.01
-49.36
-51.51
-53.55
-55.58
-57.57
-59.32
-60.40
-60.32
-58.72
-55.61
-51.38
-46.67
-42.16
-38.28
-35.04
-32.10
-28.89
-24.82
-19.53
-12.90
-5.13
3.44
12.35
21.12
29.28
36.38
42.04
46.03
48.35
49.22
49.08
48.41
47.59
46.85
46.15
45.31
44.09
42.33
40.02
37.30
34.39
31.50
28.72
25.98
23.13
20.00
16.49
12.65
8.65
4.76
1.19
-1.88
-4.47
-6.68
-8.72
-10.78
-12.96
-15.21
-17.32
-18.96
-19.77
-19.46
-17.89
-15.14
-11.47
-7.26
-2.96
1.05
4.48
7.21
9.24
10.66
11.58
12.06
12.16
11.89
11.33
10.66
10.09
9.77
9.74
9.93
10.18
10.33
10.30
10.08
9.69
9.12
8.32
7.23
5.81
4.11
2.29
0.49
-1.12
-2.49
-3.66
-4.79
-6.06
-7.62
-9.49
-11.55
-13.53
-15.04
-15.73
-15.32
-13.75
-11.12
-7.74
-3.98
-0.22
3.21
6.06
8.20
9.55
10.16
10.13
9.66
8.97
8.26
7.68
7.30
7.12
7.10
7.22
7.44
7.68
7.86
7.92
7.83
7.59
7.26
6.92
6.59
6.29
6.01
5.73
5.43
5.12
4.79
4.43
4.02
3.50
2.78
1.79
0.45
-1.18
-2.93
-4.45
-5.33
-5.23
-3.98
-1.69
1.30
4.52
7.52
9.94
11.53
12.18
11.85
10.60
8.59
6.07
3.32
0.63
-1.79
-3.80
-5.33
-6.35
-6.92
-7.14
-7.18
-7.23
-7.45
-7.90
-8.55
-9.31
-10.07
-10.84
-11.67
-12.66
-13.88
-15.36
-17.06
-18.88
-20.73
-22.54
-24.29
-25.96
-27.60
-29.21
-30.83
-32.42
-33.92
-35.13
-35.77
-35.46
-33.85
-30.75
-26.17
-20.40
-13.88
-7.14
-0.62
5.38
10.70
15.28
19.10
22.16
24.49
26.13
27.17
27.77
28.03
28.01
27.69
26.97
25.81
24.21
22.31
20.30
18.35
16.54
14.78
12.91
10.73
8.16
5.18
1.94
-1.33
-4.38
-6.98
-8.97
-10.34
-11.21
-11.81
-12.40
-13.18
-14.13
-15.08
-15.68
-15.47
-14.07
-11.22
-6.87
-1.20
5.42
12.51
19.57
26.21
32.16
37.28
41.51
44.87
47.39
49.12
50.10
50.39
50.07
49.21
47.94
46.38
44.66
42.78
40.62
37.90
34.34
29.73
24.08
17.57
10.54
3.29
-3.98
-11.16
-18.16
-24.86
-31.10
-36.74
-41.76
-46.32
-50.67
-55.02
-59.35
-63.39
-66.64
-68.52
-68.62
-66.80
-63.25
-58.39
-52.78
-46.96
-41.34
-36.21
-31.62
-27.51
-23.69
-19.99
-16.36
-12.85
-9.67
-7.02
-5.00
-3.52
-2.30
-0.96
0.83
3.20
6.09
9.29
12.52
15.56
18.32
20.82
23.11
25.26
27.24
28.99
30.46
31.62
32.52
33.24
33.83
34.28
34.48
34.29
33.60
32.39
30.77
28.99
27.33
26.12
25.63
26.04
27.42
29.67
32.56
35.75
38.91
41.76
44.11
45.88
47.00
47.37
46.86
45.27
42.45
38.36
33.09
26.86
19.96
12.71
5.36
-1.86
-8.76
-15.14
-20.83
-25.74
-29.88
-33.42
-36.65
-39.90
-43.40
-47.21
-51.16
-54.91
-57.99
-59.95
-60.44
-59.34
-56.79
-53.19
-49.06
-44.92
-41.14
-37.85
-34.94
-32.19
-29.33
-26.20
-22.80
-19.29
-15.97
-13.22
-11.42
-10.83
-11.58
-13.59
-16.64
-20.43
-24.57
-28.71
-32.46
-35.47
-37.48
-38.32
-37.94
-36.42
-33.93
-30.65
-26.79
-22.54
-18.11
-13.74
-9.69
-6.22
-3.52
-1.67
-0.69
-0.50
-0.98
-1.98
-3.37
-5.08
-7.08
-9.38
-11.94
-14.65
-17.24
-19.34
-20.54
-20.49
-18.98
-16.02
-11.78
-6.54
-0.61
5.64
11.85
17.66
22.75
26.89
30.00
32.13
33.43
34.12
34.36
34.25
33.74
32.75
31.16
28.86
25.79
21.96
17.44
12.37
6.97
1.45
-3.95
-9.03
-13.69
-17.93
-21.76
-25.23
-28.45
-31.47
-34.30
-36.84
-38.96
-40.47
-41.16
-40.72
-38.89
-35.57
-30.87
-25.06
-18.53
-11.66
-4.83
1.62
7.61
13.06
17.81
21.66
24.60
26.73
28.34
29.65
30.81
32.38
34.68
37.48
40.21
42.40
43.75
44.33
44.26
43.64
43.63
44.97
47.40
49.95
51.86
52.67
52.57
51.66
49.87
48.79
49.41
51.26
52.99
53.79
53.45
52.87
52.74
53.38
57.11
65.35
77.39
91.04
104.41
116.07
125.89
133.57
125.48
96.32
53.74
11.80
-20.82
-40.29
-52.16
-59.76
-64.84
-68.53
-69.25
-65.92
-59.49
-52.79
-48.26
-47.50
-50.16
-55.54
-63.02
-70.08
-74.54
-75.64
-74.33
-71.52
-67.85
-62.95
-56.79
-50.34
-43.81
-37.58
-32.29
-29.16
-28.54
-30.00
-32.21
-31.81
-27.55
-20.68
-15.62
-12.78
-12.01
-12.25
-12.98
-13.65
-14.06
-14.54
-15.16
-15.52
-14.86
-13.18
-10.74
-8.02
-5.39
-3.19
-1.93
-1.80
-2.48
-3.11
-3.30
-2.89
-2.02
-0.89
0.20
0.78
0.57
-0.36
-1.51
-2.53
-3.15
-3.21
-2.58
-1.22
0.78
3.30
6.25
9.62
13.21
16.71
19.80
22.22
23.84
24.61
24.60
24.01
23.12
22.17
21.31
20.60
20.05
19.62
19.28
19.04
18.87
18.70
18.40
17.81
16.82
15.46
13.86
12.28
10.90
9.75
8.67
7.36
5.51
3.01
-0.04
-3.30
-6.30
-8.58
-9.84
-9.98
-9.04
-7.22
-4.77
-1.98
0.88
3.50
5.63
7.10
7.89
8.10
7.89
7.42
6.78
5.93
4.86
3.56
2.18
0.88
-0.15
-0.81
-1.16
-1.36
-1.55
-1.86
-2.34
-2.97
-3.76
-4.69
-5.78
-6.99
-8.25
-9.48
-10.58
-11.57
-12.50
-13.49
-14.59
-15.75
-16.75
-17.26
-16.96
-15.65
-13.33
-10.21
-6.63
-2.97
0.40
3.26
5.46
6.96
7.75
7.87
7.44
6.61
5.58
4.54
3.63
2.91
2.38
2.02
1.82
1.77
1.87
2.05
2.24
2.32
2.17
1.74
0.99
-0.06
-1.33
-2.70
-4.05
-5.29
-6.43
-7.56
-8.85
-10.33
-11.93
-13.35
-14.26
-14.31
-13.34
-11.35
-8.51
-5.09
-1.44
2.07
5.11
7.46
9.07
10.02
10.49
10.62
10.53
10.27
9.86
9.40
9.01
8.81
8.80
8.90
8.96
8.84
8.53
8.06
7.50
6.89
6.20
5.36
4.29
2.99
1.52
-0.04
-1.61
-3.15
-4.72
-6.41
-8.28
-10.38
-12.62
-14.80
-16.59
-17.65
-17.71
-16.68
-14.67
-11.99
-9.02
-6.07
-3.35
-0.94
1.16
2.98
4.53
5.88
7.11
8.40
9.96
11.98
14.51
17.48
20.66
23.81
26.76
29.51
32.17
34.90
37.77
40.67
43.40
45.73
47.46
48.52
48.82
48.21
46.47
43.41
38.97
33.39
27.08
20.43
13.60
6.43
-1.46
-10.36
-20.21
-30.45
-40.17
-48.42
-54.48
-58.10
-59.43
-58.92
-57.10
-54.44
-51.32
-48.04
-44.86
-41.95
-39.42
-37.31
-35.57
-34.12
-32.84
-31.57
-30.08
-28.10
-25.35
-21.64
-16.96
-11.50
-5.67
0.02
5.10
9.23
12.31
14.46
15.91
16.93
17.70
18.30
18.68
18.77
18.45
17.63
16.20
14.08
11.24
7.78
3.98
0.26
-2.88
-5.00
-5.92
-5.72
-4.72
-3.33
-1.86
-0.47
0.91
2.34
3.86
5.38
6.70
7.66
8.21
8.41
8.40
8.33
8.28
8.21
8.01
7.56
6.80
5.68
4.26
2.60
0.80
-1.08
-3.04
-5.12
-7.41
-9.94
-12.60
-15.19
-17.40
-19.01
-20.00
-20.61
-21.29
-22.47
-24.42
-27.02
-29.85
-32.32
-33.91
-34.35
-33.59
-31.84
-29.35
-26.34
-22.98
-19.43
-15.88
-12.54
-9.62
-7.26
-5.42
-3.88
-2.34
-0.62
1.34
3.48
5.66
7.77
9.78
11.82
14.18
17.08
20.61
24.70
29.09
33.45
37.49
40.99
43.91
46.50
48.89
51.04
52.81
54.09
54.84
55.12
54.73
53.46
51.35
48.12
43.38
37.04
29.54
21.71
14.51
8.27
3.08
-0.50
-2.67
-4.26
-5.85
-7.62
-9.34
-10.69
-12.13
-14.04
-15.33
-15.60
-15.22
-14.39
-13.31
-12.34
-12.07
-14.09
-19.46
-26.70
-34.65
-42.91
-50.80
-57.61
-62.92
-60.54
-48.03
-36.01
-27.84
-21.16
-15.61
-10.81
-6.14
-1.11
4.39
9.11
11.96
13.89
15.18
15.07
13.78
12.47
12.35
13.74
15.19
14.80
12.20
7.09
-1.06
-10.95
-19.78
-24.95
-25.42
-22.13
-16.76
-10.31
-4.31
-1.54
-3.75
-10.84
-21.25
-32.37
-40.89
-43.14
-36.13
-15.21
15.41
44.10
61.12
64.81
59.27
49.74
39.80
30.76
22.13
12.37
1.55
-8.17
-14.36
-16.11
-14.36
-11.08
-8.28
-7.20
-8.47
-11.29
-13.72
-14.09
-12.14
-8.79
-5.46
-3.42
-3.31
-5.35
-8.88
-12.40
-14.55
-14.84
-13.54
-11.33
-8.91
-6.95
-5.59
-4.71
-3.79
-2.40
-0.49
1.70
3.79
5.45
6.55
7.11
7.23
7.06
6.70
6.15
5.36
4.39
3.40
2.52
1.91
1.45
1.00
0.43
-0.22
-0.75
-0.93
-0.59
0.25
1.45
2.69
3.64
4.11
4.06
3.63
3.05
2.62
2.10
1.47
0.79
0.10
-0.51
-1.00
-1.32
-1.51
-1.66
-1.86
-2.03
-2.11
-2.00
-1.68
-1.22
-0.81
-0.62
-0.80
-1.37
-2.24
-3.28
-4.44
-5.73
-7.22
-8.96
-10.97
-13.20
-15.51
-17.65
-19.36
-20.39
-20.54
-19.75
-18.10
-15.77
-13.03
-10.20
-7.55
-5.32
-3.70
-2.75
-2.40
-2.49
-2.76
-2.95
-2.88
-2.47
-1.80
-1.04
-0.29
0.39
1.09
1.91
2.98
4.29
5.71
7.03
8.02
8.49
8.39
7.77
6.78
5.53
4.16
2.73
1.23
-0.36
-2.08
-3.87
-5.56
-6.84
-7.36
-6.76
-4.90
-1.86
2.03
6.25
10.23
13.56
15.99
17.53
18.30
18.46
18.18
17.57
16.72
15.76
14.80
13.95
13.27
12.75
12.35
12.05
11.87
11.84
11.91
11.95
11.79
11.29
10.42
9.26
7.95
6.58
5.17
3.66
2.02
0.27
-1.53
-3.30
-4.99
-6.54
-7.80
-8.46
-8.12
-6.45
-3.39
0.77
5.41
9.82
13.43
16.00
17.54
18.25
18.27
17.70
16.58
15.00
13.18
11.40
9.89
8.78
8.01
7.42
6.85
6.20
5.50
4.84
4.27
3.80
3.32
2.69
1.83
0.70
-0.64
-2.09
-3.52
-4.89
-6.21
-7.58
-9.14
-10.95
-12.96
-14.91
-16.38
-16.89
-16.04
-13.70
-10.09
-5.71
-1.21
2.80
5.92
7.98
9.05
9.31
8.97
8.24
7.28
6.22
5.18
4.23
3.43
2.78
2.30
2.00
1.84
1.76
1.66
1.43
0.96
0.22
-0.75
-1.87
-3.04
-4.20
-5.34
-6.50
-7.72
-9.01
-10.38
-11.82
-13.28
-14.66
-15.75
-16.25
-15.89
-14.44
-11.82
-8.20
-3.89
0.69
5.14
9.07
12.22
14.45
15.73
16.14
15.81
14.96
13.75
12.34
10.87
9.46
8.20
7.18
6.39
5.79
5.27
4.75
4.15
3.45
2.61
1.58
0.32
-1.24
-3.08
-5.09
-7.14
-9.09
-10.87
-12.52
-14.13
-15.77
-17.44
-19.07
-20.48
-21.44
-21.67
-20.90
-18.91
-15.67
-11.32
-6.22
-0.86
4.27
8.82
12.57
15.50
17.66
19.13
20.02
20.43
20.49
20.37
20.23
20.15
20.13
20.10
19.92
19.52
18.86
17.99
16.95
15.76
14.33
12.54
10.28
7.52
4.35
0.98
-2.37
-5.54
-8.48
-11.26
-14.01
-16.81
-19.63
-22.36
-24.73
-26.41
-27.05
-26.37
-24.20
-20.54
-15.59
-9.76
-3.59
2.34
7.55
11.77
14.99
17.39
19.22
20.65
21.67
22.17
21.99
21.06
19.46
17.41
15.20
13.12
11.38
10.08
9.22
8.69
8.33
7.93
7.32
6.40
5.15
3.66
2.10
0.64
-0.59
-1.57
-2.36
-3.06
-3.77
-4.50
-5.21
-5.86
-6.45
-7.12
-8.02
-9.30
-10.99
-12.99
-15.06
-16.91
-18.24
-18.75
-18.20
-16.46
-13.57
-9.79
-5.58
-1.57
1.65
3.63
4.25
3.73
2.54
1.26
0.38
0.19
0.69
1.70
2.90
3.96
4.59
4.63
4.01
2.82
1.21
-0.57
-2.29
-3.71
-4.74
-5.36
-5.73
-6.10
-6.73
-7.87
-9.65
-12.10
-15.15
-18.64
-22.32
-25.85
-28.73
-30.43
-30.43
-28.39
-24.34
-18.69
-12.10
-5.34
0.97
6.37
10.64
13.72
15.66
16.64
16.96
17.01
17.17
17.66
18.43
19.15
19.38
18.75
17.16
14.85
12.38
10.35
9.22
9.09
9.66
10.38
10.62
9.95
8.33
6.03
3.53
1.24
-0.65
-2.19
-3.65
-5.28
-7.25
-9.52
-11.90
-14.13
-15.91
-16.95
-17.08
-16.21
-14.39
-11.81
-8.77
-5.57
-2.48
0.35
2.87
4.98
6.64
7.75
8.26
8.24
7.86
7.38
7.03
6.93
7.11
7.56
8.22
9.03
9.94
10.82
11.53
11.89
11.78
11.14
10.05
8.70
7.31
6.09
5.19
4.62
4.27
3.91
3.27
2.18
0.60
-1.35
-3.37
-5.11
-6.17
-6.29
-5.38
-3.49
-0.69
2.84
6.88
11.13
15.29
19.12
22.33
24.62
25.87
26.25
26.05
25.60
25.15
24.89
24.88
24.95
24.70
23.86
22.50
20.92
19.39
18.01
16.66
15.04
12.58
8.59
2.74
-4.72
-13.27
-22.51
-32.26
-42.38
-51.11
-55.81
-55.20
-50.64
-44.79
-39.78
-36.57
-35.01
-34.20
-32.97
-30.73
-27.70
-24.56
-21.86
-19.86
-18.50
-17.62
-16.97
-16.38
-15.94
-15.90
-16.35
-17.04
-17.56
-17.61
-17.24
-16.66
-16.04
-15.51
-14.98
-14.11
-12.27
-9.07
-4.08
2.34
9.20
15.12
18.76
19.41
17.27
13.57
9.95
7.86
7.80
9.24
10.94
11.50
10.10
6.70
1.94
-3.13
-7.38
-9.84
-9.83
-7.07
-1.83
5.20
12.90
20.06
25.78
29.77
32.23
33.64
34.51
34.41
33.32
31.31
28.55
25.32
21.86
18.30
14.54
10.37
5.70
0.73
-4.22
-8.90
-13.30
-17.67
-22.39
-27.90
-34.47
-41.92
-49.35
-55.57
-59.57
-60.92
-59.75
-56.42
-51.13
-43.89
-34.53
-23.14
-10.62
1.31
10.78
16.14
17.76
17.47
16.52
14.39
9.75
2.44
-5.40
-9.99
-8.00
1.32
15.25
28.98
38.14
40.98
38.67
33.93
29.25
25.68
23.09
20.81
18.44
16.19
14.67
14.34
15.10
16.37
17.24
17.01
15.34
12.43
8.99
6.04
4.47
4.61
6.01
7.65
8.40
7.51
4.90
1.15
-2.78
-5.98
-8.05
-9.01
-9.18
-8.99
-8.80
-8.90
-9.42
-10.33
-11.47
-12.54
-13.15
-12.98
-11.92
-10.12
-8.00
-6.09
-4.80
-4.36
-4.67
-5.44
-6.31
-7.00
-7.40
-7.54
-7.55
-7.46
-7.29
-7.03
-6.69
-6.33
-6.03
-5.86
-5.78
-5.67
-5.29
-4.41
-2.92
-0.84
1.63
4.22
6.66
8.86
10.43
11.25
11.33
10.77
9.73
8.32
6.70
4.98
3.29
1.74
0.49
-0.41
-1.00
-1.43
-1.88
-2.50
-3.34
-4.34
-5.39
-6.33
-7.09
-7.63
-8.01
-8.28
-8.55
-8.91
-9.49
-10.32
-11.26
-12.03
-12.27
-11.64
-9.99
-7.38
-4.08
-0.43
3.22
6.66
9.77
12.47
14.74
16.54
17.85
18.71
19.12
19.09
18.66
17.83
16.65
15.23
13.66
12.04
10.42
8.80
7.20
5.65
4.23
3.03
2.08
1.34
0.67
-0.08
-1.08
-2.40
-4.06
-6.03
-8.23
-10.58
-12.95
-15.20
-17.13
-18.48
-18.95
-18.31
-16.44
-13.46
-9.72
-5.75
-2.14
0.71
2.61
3.62
3.94
3.82
3.41
2.80
2.05
1.27
0.58
0.12
-0.07
-0.03
0.10
0.22
0.26
0.26
0.23
0.20
0.13
-0.01
-0.23
-0.50
-0.74
-0.91
-1.01
-1.12
-1.32
-1.70
-2.29
-3.11
-4.12
-5.24
-6.32
-7.12
-7.36
-6.81
-5.37
-3.14
-0.39
2.55
5.33
7.75
9.68
11.11
12.01
12.39
12.26
11.68
10.82
9.85
8.95
8.18
7.48
6.70
5.74
4.58
3.34
2.21
1.29
0.59
-0.01
-0.69
-1.57
-2.69
-3.96
-5.24
-6.41
-7.35
-8.00
-8.39
-8.60
-8.78
-9.09
-9.67
-10.56
-11.62
-12.60
-13.16
-13.01
-11.97
-10.03
-7.30
-4.01
-0.44
3.14
6.43
9.21
11.29
12.60
13.16
13.11
12.63
11.89
11.05
10.19
9.37
8.62
8.01
7.57
7.31
7.17
7.05
6.84
6.42
5.77
4.93
3.97
2.97
1.98
1.01
0.01
-1.03
-2.15
-3.34
-4.60
-5.94
-7.41
-9.05
-10.86
-12.75
-14.47
-15.69
-16.04
-15.29
-13.35
-10.40
-6.77
-2.91
0.78
4.02
6.62
8.51
9.68
10.15
10.01
9.40
8.51
7.55
6.69
6.02
5.53
5.14
4.76
4.33
3.81
3.21
2.53
1.79
0.98
0.11
-0.83
-1.83
-2.92
-4.08
-5.26
-6.41
-7.44
-8.35
-9.20
-10.12
-11.29
-12.82
-14.63
-16.51
-18.04
-18.80
-18.45
-16.88
-14.20
-10.68
-6.68
-2.50
1.60
5.40
8.67
11.21
12.85
13.57
13.51
12.96
12.26
11.69
11.40
11.35
11.45
11.57
11.63
11.58
11.43
11.13
10.66
10.00
9.18
8.24
7.24
6.21
5.14
3.94
2.57
1.01
-0.67
-2.38
-4.03
-5.56
-7.01
-8.47
-10.06
-11.81
-13.68
-15.49
-16.95
-17.74
-17.56
-16.22
-13.72
-10.24
-6.13
-1.88
2.08
5.42
7.92
9.60
10.53
10.85
10.71
10.27
9.64
8.95
8.24
7.57
6.93
6.34
5.81
5.34
4.89
4.42
3.88
3.24
2.52
1.74
0.90
-0.04
-1.12
-2.33
-3.62
-4.86
-5.93
-6.83
-7.63
-8.53
-9.68
-11.15
-12.78
-14.25
-15.18
-15.18
-14.04
-11.72
-8.38
-4.27
0.23
4.75
8.93
12.44
15.05
16.62
17.18
16.86
15.88
14.44
12.67
10.65
8.40
5.98
3.47
0.99
-1.31
-3.35
-5.15
-6.84
-8.57
-10.45
-12.46
-14.42
-16.07
-17.20
-17.77
-17.96
-18.06
-18.41
-19.15
-20.26
-21.55
-22.81
-23.86
-24.53
-24.66
-23.93
-22.00
-18.58
-13.68
-7.69
-1.32
4.62
9.50
13.06
15.48
17.16
18.57
20.00
21.51
22.91
23.91
24.20
23.61
22.13
20.00
17.63
15.48
13.94
13.20
13.17
13.55
13.95
14.04
13.64
12.71
11.36
9.70
7.87
6.01
4.25
2.66
1.25
-0.12
-1.67
-3.61
-5.99
-8.60
-11.04
-12.78
-13.36
-12.58
-10.48
-7.35
-3.61
0.32
4.09
7.41
10.10
12.03
13.14
13.46
13.10
12.24
11.09
9.86
8.69
7.71
7.01
6.64
6.56
6.65
6.73
6.63
6.21
5.47
4.51
3.46
2.45
1.55
0.76
-0.02
-0.91
-2.08
-3.66
-5.71
-8.14
-10.73
-13.13
-14.96
-15.96
-16.00
-15.11
-13.45
-11.23
-8.61
-5.77
-2.83
0.08
2.79
5.11
6.80
7.71
7.79
7.22
6.29
5.39
4.85
4.91
5.64
6.99
8.78
10.81
12.84
14.69
16.29
17.68
18.90
20.01
20.92
21.49
21.53
20.93
19.69
17.90
15.68
13.11
10.26
7.18
4.00
0.95
-1.67
-3.58
-4.53
-4.39
-3.18
-1.14
1.33
3.67
5.35
6.01
5.55
4.22
2.44
0.69
-0.75
-1.86
-2.94
-4.40
-6.64
-9.89
-14.07
-18.92
-23.99
-28.83
-33.04
-36.33
-38.51
-39.53
-39.48
-38.63
-37.37
-36.13
-35.27
-34.94
-35.10
-35.52
-35.98
-36.33
-36.55
-36.67
-36.69
-36.45
-35.68
-34.08
-31.42
-27.68
-23.07
-17.93
-12.65
-7.57
-2.93
1.11
4.49
7.18
9.20
10.58
11.42
11.79
11.80
11.59
11.31
11.12
11.13
11.32
11.54
11.56
11.19
10.31
9.02
7.54
6.09
4.87
3.91
3.16
2.50
1.84
1.10
0.20
-0.96
-2.47
-4.38
-6.57
-8.75
-10.44
-11.11
-10.31
-7.89
-4.02
0.85
6.11
11.20
15.72
19.45
22.26
24.12
24.99
24.95
24.16
22.91
21.50
20.19
19.06
18.09
17.22
16.39
15.59
14.84
14.12
13.34
12.40
11.19
9.70
7.95
6.05
4.08
2.13
0.27
-1.50
-3.19
-4.89
-6.72
-8.79
-11.14
-13.61
-15.85
-17.37
-17.68
-16.44
-13.61
-9.48
-4.58
0.50
5.24
9.28
12.42
14.60
15.83
16.22
15.93
15.16
14.14
13.05
11.98
10.99
10.09
9.28
8.57
7.94
7.33
6.61
5.73
4.64
3.37
2.02
0.65
-0.71
-2.07
-3.43
-4.82
-6.26
-7.79
-9.49
-11.43
-13.68
-16.18
-18.71
-20.87
-22.23
-22.39
-21.15
-18.49
-14.64
-9.95
-4.84
0.27
5.03
9.19
12.61
15.21
16.98
17.92
18.08
17.57
16.58
15.38
14.24
13.29
12.56
11.91
11.21
10.35
9.39
8.45
7.68
7.11
6.66
6.11
5.25
3.94
2.13
-0.03
-2.32
-4.48
-6.32
-7.82
-9.14
-10.56
-12.37
-14.68
-17.34
-19.91
-21.77
-22.32
-21.12
-18.08
-13.43
-7.71
-1.56
4.35
9.47
13.49
16.28
17.91
18.55
18.48
17.96
17.24
16.49
15.79
15.13
14.43
13.64
12.81
12.04
11.48
11.24
11.30
11.47
11.50
11.14
10.29
9.02
7.56
6.19
5.14
4.47
4.15
3.99
3.83
3.52
2.96
2.12
1.07
-0.00
-0.77
-0.77
0.40
3.00
6.92
11.72
16.76
21.40
25.33
28.51
31.22
33.72
36.11
38.23
39.72
40.21
39.47
37.50
34.39
30.32
25.46
20.03
14.34
8.81
3.90
0.04
-2.59
-4.08
-4.81
-5.27
-5.94
-7.10
-8.81
-10.95
-13.31
-15.65
-17.79
-19.63
-21.12
-22.37
-23.57
-25.04
-27.07
-29.82
-33.18
-36.75
-39.88
-41.88
-42.20
-40.59
-37.21
-32.50
-27.15
-21.86
-17.25
-13.74
-11.51
-10.53
-10.60
-11.44
-12.72
-14.16
-15.54
-16.69
-17.52
-18.08
-18.53
-19.15
-20.21
-21.85
-24.01
-26.38
-28.51
-29.99
-30.57
-30.28
-29.33
-27.96
-26.33
-24.43
-22.21
-19.70
-17.13
-14.90
-13.47
-13.17
-14.05
-15.85
-18.08
-20.16
-21.50
-21.65
-20.29
-17.33
-12.87
-7.25
-1.01
5.18
10.72
15.15
18.24
19.99
20.55
20.18
19.19
17.83
16.37
14.95
13.66
12.51
11.42
10.34
9.24
8.17
7.19
6.40
5.82
5.34
4.80
3.99
2.81
1.32
-0.31
-1.85
-3.17
-4.27
-5.33
-6.60
-8.24
-10.26
-12.44
-14.40
-15.67
-15.84
-14.63
-12.04
-8.26
-3.65
1.34
6.33
11.03
15.26
18.87
21.71
23.63
24.51
24.36
23.36
21.80
20.05
18.36
16.87
15.57
14.38
13.25
12.22
11.35
10.64
10.05
9.44
8.65
7.58
6.23
4.66
2.94
1.17
-0.61
-2.41
-4.26
-6.29
-8.58
-11.17
-13.88
-16.30
-17.82
-17.85
-15.99
-12.26
-7.08
-1.17
4.74
10.03
14.39
17.70
19.98
21.32
21.77
21.39
20.26
18.52
16.42
14.23
12.25
10.69
9.61
8.95
8.52
8.14
7.64
6.95
6.03
4.88
3.45
1.71
-0.31
-2.52
-4.72
-6.75
-8.49
-10.01
-11.48
-13.16
-15.21
-17.55
-19.92
-21.80
-22.69
-22.13
-19.95
-16.19
-11.21
-5.49
0.43
6.05
10.97
14.96
17.87
19.71
20.57
20.65
20.14
19.25
18.14
16.89
15.59
14.28
12.98
11.70
10.46
9.25
8.05
6.88
5.72
4.53
3.26
1.80
0.12
-1.78
-3.82
-5.85
-7.77
-9.55
-11.26
-13.04
-15.04
-17.34
-19.88
-22.41
-24.55
-25.77
-25.60
-23.72
-20.13
-15.17
-9.43
-3.62
1.67
6.07
9.45
11.83
13.24
13.72
13.30
12.14
10.52
8.81
7.38
6.44
6.01
5.96
6.10
6.30
6.48
6.60
6.64
6.50
6.09
5.32
4.19
2.74
1.10
-0.58
-2.20
-3.75
-5.32
-7.08
-9.24
-11.87
-14.86
-17.88
-20.39
-21.89
-22.05
-20.84
-18.51
-15.45
-12.05
-8.55
-5.08
-1.75
1.24
3.65
5.23
5.91
5.77
5.05
3.98
2.72
1.33
-0.14
-1.55
-2.70
-3.38
-3.54
-3.33
-3.07
-3.04
-3.35
-3.89
-4.42
-4.67
-4.59
-4.26
-3.92
-3.78
-3.97
-4.50
-5.30
-6.26
-7.18
-7.81
-7.83
-6.93
-4.95
-1.94
1.87
6.16
10.70
15.36
20.14
24.96
29.59
33.64
36.62
38.14
38.07
36.55
33.93
30.62
26.98
23.26
19.61
16.14
12.96
10.19
7.90
6.09
4.66
3.42
2.13
0.56
-1.39
-3.68
-6.14
-8.58
-10.85
-12.95
-15.00
-17.18
-19.62
-22.29
-25.02
-27.47
-29.24
-29.92
-29.21
-26.94
-23.20
-18.29
-12.73
-7.10
-1.92
2.48
5.98
8.58
10.35
11.33
11.56
11.13
10.20
9.01
7.84
6.86
6.18
5.73
5.41
5.05
4.51
3.70
2.62
1.34
-0.02
-1.35
-2.58
-3.71
-4.84
-6.09
-7.61
-9.53
-11.88
-14.59
-17.39
-19.85
-21.40
-21.51
-19.87
-16.51
-11.84
-6.49
-1.11
3.81
8.01
11.41
13.99
15.71
16.55
16.50
15.67
14.25
12.51
10.69
8.94
7.35
5.95
4.76
3.76
2.95
2.28
1.66
1.02
0.28
-0.59
-1.59
-2.70
-3.88
-5.13
-6.52
-8.16
-10.19
-12.68
-15.58
-18.58
-21.23
-22.91
-23.07
-21.37
-17.79
-12.68
-6.63
-0.35
5.50
10.43
14.20
16.77
18.27
18.91
18.88
18.35
17.46
16.30
14.98
13.61
12.28
11.01
9.80
8.61
7.36
6.04
4.66
3.25
1.83
0.44
-0.95
-2.35
-3.82
-5.43
-7.28
-9.42
-11.92
-14.77
-17.86
-20.95
-23.64
-25.43
-25.80
-24.40
-21.16
-16.35
-10.52
-4.36
1.47
6.48
10.37
13.04
14.53
14.99
14.67
13.85
12.81
11.73
10.74
9.85
9.06
8.35
7.67
6.97
6.20
5.32
4.34
3.32
2.35
1.49
0.71
-0.09
-1.05
-2.31
-3.93
-5.92
-8.25
-10.81
-13.38
-15.66
-17.18
-17.45
-16.11
-13.01
-8.41
-2.85
2.94
8.26
12.66
15.96
18.20
19.56
20.19
20.23
19.74
18.84
17.64
16.29
14.92
13.58
12.30
11.08
9.91
8.82
7.84
7.01
6.31
5.74
5.26
4.83
4.38
3.81
3.00
1.80
0.05
-2.38
-5.51
-9.15
-12.90
-16.16
-18.25
-18.67
-17.24
-14.22
-10.19
-5.84
-1.74
1.75
4.51
6.52
7.86
8.60
8.92
9.07
9.34
9.96
10.95
12.15
13.24
13.93
14.05
13.64
12.88
12.04
11.38
11.07
11.21
11.77
12.63
13.58
14.34
14.56
13.91
12.16
9.26
5.37
0.85
-3.84
-8.23
-11.91
-14.60
-16.07
-16.18
-14.85
-12.15
-8.31
-3.76
0.94
5.27
8.81
11.37
12.91
13.51
13.29
12.36
10.88
8.99
6.83
4.45
1.84
-1.12
-4.52
-8.45
-12.88
-17.72
-22.85
-28.19
-33.66
-39.21
-44.68
-49.82
-54.25
-57.54
-59.35
-59.57
-58.37
-56.21
-53.73
-51.51
-49.93
-49.08
-48.72
-48.39
-47.49
-45.45
-41.82
-36.37
-29.14
-20.53
-11.12
-1.65
7.16
14.75
20.78
25.12
27.85
29.17
29.37
28.77
27.68
26.38
25.08
23.88
22.79
21.72
20.53
19.06
17.26
15.15
12.84
10.50
8.24
6.13
4.09
2.06
-0.08
-2.40
-4.96
-7.80
-10.94
-14.28
-17.58
-20.43
-22.29
-22.66
-21.21
-17.87
-12.91
-6.85
-0.29
6.16
11.96
16.72
20.18
22.23
22.95
22.56
21.36
19.60
17.45
14.93
11.98
8.62
5.00
1.49
-1.45
-3.41
-4.20
-3.86
-2.67
-1.00
0.79
2.46
3.87
4.97
5.75
6.22
6.42
6.47
6.55
6.91
7.82
9.52
12.20
15.96
20.86
26.97
34.41
43.26
53.53
64.98
77.11
89.13
100.08
108.91
114.63
116.41
113.65
106.19
94.50
79.69
63.29
46.96
31.96
18.84
7.38
-3.24
-13.90
-25.19
-37.10
-49.19
-60.78
-71.24
-80.16
-87.43
-93.26
-97.93
-101.63
-104.38
-106.11
-106.68
-105.87
-103.40
-98.99
-92.69
-84.67
-75.14
-64.49
-53.32
-42.29
-31.84
-22.02
-12.52
-3.27
5.97
15.73
26.46
38.11
50.07
61.45
71.36
79.15
83.71
84.55
82.11
77.15
70.05
60.77
49.25
35.80
21.03
4.65
-13.32
-31.98
-49.88
-65.79
-78.77
-88.31
-94.20
-91.00
-77.56
-58.84
-41.61
-29.20
-21.40
-16.67
-13.58
-11.12
-8.41
-5.98
-4.20
-2.68
-0.62
2.44
6.70
11.53
16.72
22.23
27.21
30.94
33.23
34.14
33.58
31.33
27.44
22.45
17.20
12.08
7.61
4.55
3.63
5.15
8.76
13.60
18.48
22.00
22.68
19.75
13.58
5.52
-2.67
-9.53
-14.31
-17.12
-18.74
-20.17
-22.07
-24.37
-26.40
-27.31
-26.44
-23.55
-18.79
-12.62
-5.62
1.64
8.68
15.09
20.51
24.61
27.18
28.19
27.81
26.42
24.44
22.24
20.01
17.73
15.25
12.46
9.33
6.02
2.74
-0.31
-3.07
-5.61
-8.08
-10.64
-13.40
-16.40
-19.61
-22.90
-26.10
-28.95
-31.26
-32.95
-34.06
-34.70
-34.91
-34.56
-33.33
-30.87
-26.93
-21.54
-15.04
-7.97
-0.88
5.88
12.18
18.20
24.21
30.50
37.19
44.18
51.15
57.61
63.03
66.93
69.02
69.28
68.00
65.69
63.04
60.73
59.22
58.50
58.02
56.87
54.12
49.27
42.42
34.20
25.57
17.31
9.86
3.11
-3.20
-9.18
-14.59
-18.96
-21.77
-22.69
-21.69
-19.11
-15.70
-12.19
-8.97
-6.05
-3.30
-0.60
2.14
5.02
8.17
11.23
13.94
16.23
17.96
18.52
17.03
12.86
6.18
-1.89
-10.39
-18.14
-23.85
-26.74
-27.11
-26.21
-25.54
-26.22
-28.74
-34.06
-42.51
-53.34
-65.07
-76.38
-86.25
-93.74
-97.84
-91.85
-73.42
-47.34
-22.47
-5.13
3.14
4.30
1.75
-1.27
-2.73
-3.24
-4.20
-6.26
-8.93
-11.29
-12.58
-12.44
-11.33
-9.44
-7.94
-7.60
-8.19
-8.69
-8.31
-6.85
-4.67
-2.39
-0.53
0.07
-0.88
-2.92
-5.05
-6.47
-6.83
-6.37
-5.54
-4.76
-4.57
-5.12
-5.98
-6.37
-5.58
-3.27
0.48
5.23
10.41
15.26
19.23
22.05
23.79
24.71
25.17
25.59
26.35
27.77
29.91
32.63
35.59
38.42
40.77
42.40
43.12
42.80
41.33
38.66
34.94
30.50
25.80
21.25
17.09
13.34
9.87
6.54
3.29
0.18
-2.65
-5.13
-7.28
-9.13
-10.72
-12.05
-13.12
-13.97
-14.75
-15.66
-16.83
-18.23
-19.57
-20.42
-20.32
-18.95
-16.24
-12.39
-7.83
-3.07
1.35
5.00
7.59
9.00
9.26
8.50
6.94
4.84
2.44
0.02
-2.20
-4.03
-5.39
-6.28
-6.80
-7.12
-7.40
-7.73
-8.17
-8.71
-9.31
-9.99
-10.81
-11.91
-13.40
-15.41
-17.92
-20.79
-23.78
-26.52
-28.65
-29.91
-30.13
-29.29
-27.50
-24.88
-21.58
-17.75
-13.59
-9.36
-5.36
-1.92
0.64
2.10
2.32
1.35
-0.53
-2.86
-4.98
-6.32
-6.51
-5.60
-3.99
-2.28
-1.01
-0.47
-0.63
-1.19
-1.78
-2.08
-1.93
-1.36
-0.60
-0.01
0.02
-0.83
-2.62
-5.06
-7.55
-9.32
-9.65
-8.12
-4.75
0.01
5.39
10.58
14.89
18.00
19.95
21.13
22.06
23.19
24.78
26.80
28.99
30.95
32.24
32.48
31.47
29.23
26.06
22.52
19.29
16.95
15.83
15.80
16.35
16.69
16.03
13.81
9.91
4.62
-1.42
-7.38
-12.49
-16.09
-17.80
-17.54
-15.51
-12.13
-7.97
-3.61
0.48
4.00
6.84
9.00
10.53
11.47
11.77
11.39
10.34
8.76
6.83
4.83
2.97
1.38
0.10
-0.89
-1.68
-2.39
-3.13
-4.00
-5.07
-6.35
-7.78
-9.24
-10.57
-11.66
-12.45
-12.97
-13.30
-13.47
-13.44
-13.07
-12.18
-10.59
-8.22
-5.12
-1.44
2.56
6.60
10.35
13.52
15.83
17.07
17.21
16.36
14.82
13.02
11.37
10.24
9.83
10.17
11.13
12.48
13.99
15.41
16.54
17.16
17.06
16.10
14.19
11.38
7.78
3.54
-1.19
-6.20
-11.24
-15.98
-20.00
-22.93
-24.53
-24.78
-23.89
-22.16
-19.87
-17.24
-14.40
-11.44
-8.43
-5.54
-2.89
-0.59
1.33
2.88
4.02
4.73
4.96
4.77
4.29
3.78
3.54
3.81
4.60
5.75
6.93
7.84
8.34
8.22
7.45
6.06
4.13
1.79
-0.76
-3.20
-5.11
-5.85
-5.35
-3.55
-0.67
2.86
6.46
9.53
11.65
12.63
12.97
12.33
10.90
8.89
6.70
4.58
2.56
0.50
-1.76
-3.63
-5.98
-8.75
-11.67
-13.92
-14.90
-14.46
-12.77
-10.09
-5.78
-1.18
3.43
7.98
13.25
19.71
27.38
36.06
39.44
44.86
50.81
56.66
61.69
65.85
68.62
69.09
66.63
61.40
55.22
48.14
40.93
28.95
11.78
-7.41
-24.60
-37.89
-47.44
-53.43
-57.43
-60.29
-62.02
-61.54
-58.42
-53.15
-46.76
-40.16
-33.42
-26.85
-20.56
-14.42
-7.76
-0.98
4.45
6.76
4.87
-0.92
-9.79
-20.01
-29.53
-36.31
-39.47
-39.40
-37.32
-34.59
-32.17
-30.57
-29.63
-28.66
-26.75
-23.45
-19.00
-14.24
-10.25
-7.88
-7.46
-8.61
-10.24
-11.05
-9.98
-6.38
0.07
9.44
21.50
35.17
48.65
59.67
65.90
65.79
59.34
48.22
35.23
23.22
14.08
8.32
5.31
3.86
2.90
1.88
0.67
-0.69
-2.20
-3.99
-6.21
-8.91
-11.89
-14.76
-16.92
-17.86
-17.33
-15.57
-13.20
-11.06
-9.77
-9.58
-10.17
-10.97
-11.41
-11.23
-10.62
-10.01
-9.89
-10.49
-11.74
-13.31
-14.77
-15.77
-16.11
-15.80
-15.01
-13.98
-12.90
-11.90
-10.91
-9.83
-8.58
-7.03
-5.23
-3.35
-1.70
-0.72
-0.93
-2.78
-6.34
-11.17
-16.05
-19.28
-19.15
-14.66
-6.08
5.02
16.24
25.23
30.45
31.69
29.90
26.79
23.96
22.44
22.37
23.21
24.05
24.08
22.91
20.49
17.08
13.03
8.67
4.25
0.05
-3.58
-6.24
-7.61
-7.62
-6.59
-5.11
-3.93
-3.57
-4.22
-5.61
-7.24
-8.56
-9.24
-9.21
-8.66
-7.88
-7.11
-6.45
-5.85
-5.22
-4.50
-3.68
-2.85
-2.09
-1.44
-0.93
-0.49
-0.08
0.37
0.85
1.32
1.65
1.72
1.40
0.66
-0.38
-1.49
-2.36
-2.70
-2.28
-1.01
1.04
3.63
6.39
8.90
10.77
11.75
11.79
11.06
9.88
8.60
7.45
6.57
6.03
5.89
6.27
7.31
8.83
10.68
12.64
14.44
15.92
17.11
18.15
19.21
20.30
21.23
21.77
21.69
20.92
19.55
17.75
15.58
12.98
9.78
5.84
1.20
-3.83
-8.75
-12.90
-15.74
-16.99
-16.69
-15.22
-13.08
-10.82
-8.82
-7.30
-6.35
-5.96
-6.07
-6.53
-7.15
-7.70
-7.98
-7.86
-7.37
-6.62
-5.70
-4.65
-3.39
-1.81
0.14
2.41
4.81
7.13
9.13
10.65
11.57
11.83
11.44
10.47
9.10
7.59
6.10
4.65
3.12
1.28
-0.93
-3.33
-5.43
-6.63
-6.50
-4.93
-2.24
1.04
4.34
7.37
10.04
12.44
14.56
16.20
16.99
16.58
14.82
11.86
8.13
4.13
0.26
-3.30
-6.60
-9.84
-13.21
-16.78
-20.49
-24.24
-27.95
-31.60
-35.22
-38.88
-42.64
-46.48
-50.36
-54.17
-57.80
-61.14
-64.02
-66.16
-67.19
-66.69
-64.33
-59.93
-53.59
-45.73
-37.02
-28.09
-19.39
-11.23
-3.82
2.71
8.31
12.95
16.61
19.25
21.03
22.20
22.94
23.17
22.71
21.52
19.61
17.04
13.74
9.84
5.66
1.45
-2.78
-7.04
-11.12
-14.85
-18.07
-20.89
-23.14
-24.34
-24.06
-22.17
-18.69
-13.48
-6.47
3.53
15.50
26.85
35.85
43.04
49.22
53.89
56.69
57.37
55.84
51.96
46.02
38.68
30.55
21.88
12.83
3.75
-4.99
-13.11
-20.51
-26.99
-32.17
-35.82
-38.01
-38.90
-38.52
-36.94
-34.29
-30.85
-26.81
-22.19
-16.99
-11.38
-5.57
0.32
6.19
12.03
17.87
23.84
30.07
36.43
42.46
47.56
51.24
53.30
53.91
53.40
52.14
50.36
48.00
44.89
40.88
36.10
30.89
25.73
21.09
17.26
14.37
12.41
11.21
10.56
10.19
9.82
9.18
8.13
6.64
4.85
2.90
0.95
-0.98
-3.01
-5.29
-7.97
-11.01
-14.19
-17.08
-19.14
-19.92
-19.12
-16.74
-13.09
-8.66
-4.06
0.15
3.56
5.91
7.21
7.59
7.31
6.63
5.79
5.00
4.44
4.26
4.55
5.33
6.47
7.72
8.76
9.35
9.34
8.77
7.74
6.41
4.93
3.44
1.97
0.48
-1.15
-3.11
-5.52
-8.40
-11.47
-14.23
-16.09
-16.62
-15.74
-13.64
-10.78
-7.63
-4.65
-2.07
0.07
1.79
2.93
3.24
2.49
0.63
-2.22
-5.93
-10.05
-13.97
-17.16
-19.47
-21.13
-22.51
-23.96
-25.72
-28.17
-31.18
-34.23
-36.78
-38.65
-40.03
-41.12
-42.08
-42.94
-44.01
-44.96
-45.04
-43.31
-39.26
-32.83
-24.04
-13.19
1.68
19.45
36.76
50.15
58.40
62.95
65.08
65.51
64.45
62.09
57.42
50.77
42.97
35.02
27.21
19.49
12.20
5.43
-0.96
-7.59
-14.70
-22.37
-30.33
-38.75
-47.68
-53.69
-53.99
-48.46
-39.77
-30.86
-25.39
-22.53
-21.41
-21.55
-22.46
-23.34
-24.22
-25.30
-26.20
-26.18
-24.16
-19.89
-13.46
-4.81
5.65
17.10
28.59
39.58
49.93
59.86
69.07
74.58
74.09
67.59
57.63
47.10
37.85
30.41
25.44
21.56
17.74
13.81
9.89
6.15
2.15
-2.67
-8.39
-14.62
-20.40
-24.57
-26.35
-27.19
-27.83
-29.24
-31.30
-33.76
-35.99
-37.33
-37.17
-35.11
-30.96
-23.27
-12.35
0.27
12.73
23.57
31.97
37.42
39.72
39.09
36.24
31.76
26.36
21.25
16.76
13.41
11.51
10.92
11.04
11.02
9.74
6.50
1.24
-5.52
-12.88
-19.36
-23.62
-24.50
-21.19
-13.86
-3.99
5.59
11.26
10.13
1.38
-13.08
-29.08
-41.93
-48.50
-48.24
-42.98
-35.54
-28.15
-21.69
-16.03
-10.79
-6.07
-2.54
-0.88
-1.24
-2.97
-4.95
-6.20
-6.43
-6.05
-5.86
-6.59
-8.55
-11.52
-14.86
-17.79
-19.69
-20.35
-20.00
-19.20
-18.60
-18.65
-19.51
-20.92
-22.36
-23.24
-23.19
-22.16
-20.40
-18.30
-16.25
-14.45
-12.79
-10.79
-7.82
-3.36
2.81
10.50
19.12
27.89
35.96
42.70
47.92
51.71
54.18
55.36
55.34
54.29
52.46
50.17
47.64
45.49
44.05
43.21
42.44
41.22
39.26
36.58
33.32
29.58
26.18
23.65
21.92
20.43
18.65
16.39
13.77
11.02
8.31
6.73
7.09
9.44
13.30
18.34
24.76
32.99
43.37
50.71
51.20
44.40
33.23
20.71
8.40
-2.98
-12.96
-20.43
-26.05
-29.39
-30.50
-30.25
-30.07
-31.11
-33.85
-37.92
-42.81
-48.03
-50.69
-48.50
-41.26
-31.14
-21.21
-13.88
-10.47
-10.97
-14.19
-17.78
-19.80
-19.48
-17.29
-14.94
-12.90
-11.39
-10.30
-9.28
-7.69
-5.30
-2.33
0.69
3.27
5.23
6.36
6.55
6.14
5.34
4.22
2.66
0.50
-2.27
-5.34
-8.23
-10.30
-10.99
-10.08
-7.87
-4.98
-2.05
0.55
2.95
5.54
8.70
12.60
16.95
21.10
24.25
25.81
25.57
23.77
20.90
17.42
13.65
9.67
5.38
0.69
-4.35
-9.56
-14.60
-19.17
-23.07
-26.20
-28.55
-30.17
-31.06
-31.17
-30.46
-28.91
-26.62
-23.75
-20.56
-17.37
-14.48
-12.17
-10.62
-9.90
-9.92
-10.49
-11.33
-12.13
-12.64
-12.72
-12.35
-11.70
-11.04
-10.66
-10.84
-11.71
-13.31
-15.54
-18.27
-21.31
-24.48
-27.62
-30.54
-33.13
-35.31
-37.09
-38.47
-39.42
-39.72
-39.03
-36.94
-33.11
-27.41
-19.99
-11.24
-1.67
8.15
17.63
26.27
33.65
39.48
43.69
46.39
47.85
48.38
48.23
47.51
46.27
44.47
42.14
39.39
36.42
33.46
30.67
28.11
25.69
23.28
20.73
18.06
15.39
12.94
10.91
9.38
8.23
7.18
5.91
4.16
1.85
-0.89
-3.75
-6.27
-7.97
-8.48
-7.60
-5.41
-2.20
1.55
5.33
8.71
11.37
13.14
13.98
13.92
13.09
11.70
9.98
8.21
6.58
5.22
4.10
3.12
2.16
1.14
0.07
-0.97
-1.87
-2.60
-3.23
-3.92
-4.89
-6.27
-8.07
-10.11
-12.09
-13.76
-14.98
-15.82
-16.49
-17.25
-18.22
-19.32
-20.27
-20.68
-20.14
-18.40
-15.38
-11.20
-6.17
-0.71
4.74
9.75
13.96
17.12
19.09
19.87
19.61
18.57
17.07
15.45
13.94
12.66
11.60
10.62
9.58
8.40
7.12
5.86
4.83
4.14
3.78
3.59
3.29
2.65
1.58
0.16
-1.43
-2.95
-4.26
-5.36
-6.35
-7.35
-8.45
-9.66
-10.91
-12.05
-12.86
-13.06
-12.38
-10.61
-7.67
-3.75
0.81
5.51
9.87
13.54
16.27
17.99
18.66
18.32
17.12
15.25
13.03
10.76
8.68
6.90
5.37
4.03
2.77
1.56
0.43
-0.60
-1.51
-2.35
-3.20
-4.11
-5.17
-6.36
-7.61
-8.80
-9.79
-10.48
-10.84
-10.95
-10.94
-10.98
-11.26
-11.95
-13.11
-14.67
-16.33
-17.64
-18.10
-17.31
-15.11
-11.58
-7.01
-1.77
3.75
9.22
14.30
18.67
22.08
24.35
25.52
25.73
25.27
24.45
23.52
22.60
21.69
20.67
19.43
17.95
16.31
14.65
13.11
11.67
10.18
8.37
5.98
2.82
-1.08
-5.58
-10.40
-15.19
-19.60
-23.37
-26.38
-28.69
-30.52
-32.17
-33.90
-35.85
-37.88
-39.63
-40.62
-40.36
-38.55
-35.26
-30.85
-25.90
-21.03
-16.68
-13.01
-9.98
-7.37
-4.89
-2.24
0.93
4.84
9.56
14.85
20.18
24.92
28.50
30.66
31.53
31.49
30.99
30.41
29.96
29.67
29.48
29.24
28.74
27.79
26.38
24.66
22.98
21.60
20.57
19.56
18.01
15.39
11.49
6.56
1.20
-3.92
-8.29
-11.69
-14.16
-15.89
-17.13
-18.10
-18.94
-19.70
-20.23
-20.26
-19.48
-17.75
-15.21
-12.26
-9.43
-7.11
-5.45
-4.38
-3.71
-3.30
-3.08
-3.05
-3.09
-2.99
-2.51
-1.48
0.01
1.65
3.04
3.87
4.06
3.80
3.41
3.20
3.26
3.48
3.50
2.90
1.32
-1.35
-4.91
-8.86
-12.51
-15.16
-16.28
-15.67
-13.46
-10.03
-5.85
-1.41
2.93
6.87
10.23
12.86
14.68
15.67
15.91
15.52
14.68
13.57
12.34
11.08
9.82
8.53
7.22
5.89
4.61
3.45
2.48
1.72
1.10
0.52
-0.14
-1.03
-2.20
-3.63
-5.24
-6.90
-8.51
-10.04
-11.58
-13.28
-15.25
-17.50
-19.85
-21.92
-23.23
-23.34
-21.98
-19.09
-14.90
-9.82
-4.40
0.75
5.15
8.45
10.58
11.66
11.96
11.75
11.29
10.72
10.16
9.65
9.24
8.91
8.57
8.10
7.40
6.45
5.35
4.27
3.34
2.58
1.89
1.05
-0.10
-1.60
-3.39
-5.33
-7.32
-9.35
-11.51
-13.94
-16.63
-19.35
-21.69
-23.08
-23.03
-21.27
-17.86
-13.11
-7.56
-1.77
3.72
8.51
12.29
14.96
16.55
17.19
17.17
16.74
16.15
15.54
14.98
14.50
14.13
13.88
13.77
13.76
13.71
13.50
12.94
11.92
10.45
8.66
6.77
4.99
3.45
2.10
0.78
-0.71
-2.53
-4.80
-7.55
-10.74
-14.24
-17.76
-20.86
-22.96
-23.55
-22.34
-19.38
-15.04
-9.83
-4.20
1.50
7.04
12.14
16.46
19.59
21.19
21.16
19.74
17.49
15.10
13.16
12.03
11.86
12.54
13.87
15.53
17.12
18.30
18.78
18.40
17.28
15.84
14.65
14.21
14.72
16.05
17.91
19.78
21.13
21.54
20.81
18.96
16.23
12.98
9.71
7.01
5.27
4.67
5.20
6.65
8.69
10.99
13.21
14.06
12.80
9.79
6.01
2.19
-1.44
-5.14
-8.90
-12.57
-16.13
-19.22
-21.89
-24.24
-26.30
-28.00
-29.33
-30.20
-30.64
-30.75
-31.28
-32.97
-36.12
-40.49
-45.63
-51.19
-57.01
-63.04
-64.91
-60.15
-49.65
-36.88
-25.13
-16.06
-9.92
-6.10
-3.66
-1.60
0.26
1.84
3.14
4.29
5.36
6.27
6.84
6.92
6.42
4.83
1.95
-1.94
-6.01
-9.30
-11.13
-11.23
-9.73
-7.07
-4.39
-2.12
-0.42
0.85
1.92
2.89
3.73
4.37
4.89
5.30
5.79
6.50
7.49
8.49
9.02
8.63
7.19
4.97
2.53
0.51
-0.63
-0.87
-0.52
-0.09
0.07
-0.08
-0.24
0.08
1.12
3.22
6.55
11.05
16.37
21.93
27.08
31.20
33.90
35.18
35.35
34.76
33.54
31.52
28.38
23.81
17.67
10.12
1.78
-6.43
-13.72
-19.71
-24.50
-28.44
-31.85
-34.82
-37.14
-38.10
-36.79
-32.54
-25.31
-15.59
-4.10
8.51
21.79
33.63
41.38
43.10
38.88
30.68
21.09
