1653054472.00
64.000000
-0.00
-0.00
-0.00
-0.00
-0.00
-0.00
-0.00
-0.00
-0.00
-0.00
0.00
0.01
0.01
-0.00
-0.03
-0.05
-0.05
0.00
0.13
0.36
0.66
1.01
1.37
1.72
2.06
2.40
2.79
3.24
3.80
4.42
5.06
5.66
6.20
6.68
7.15
7.68
8.31
9.14
10.09
11.04
11.88
12.56
13.14
13.76
14.65
15.96
17.91
20.32
22.90
25.38
27.58
29.57
31.68
34.32
37.81
42.54
48.15
54.10
59.83
64.97
69.58
74.14
79.34
85.71
93.76
103.00
112.62
121.73
129.77
136.75
143.30
150.74
157.77
166.64
177.95
191.81
207.00
220.61
228.28
225.33
208.41
176.62
132.39
79.58
22.55
-35.47
-92.95
-149.67
-205.78
-261.00
-314.49
-364.73
-410.77
-451.86
-487.43
-516.63
-538.13
-550.24
-551.20
-539.90
-516.03
-480.69
-435.94
-384.44
-328.93
-271.81
-214.92
-159.56
-106.66
-56.87
-10.97
30.32
66.27
96.38
120.45
138.72
151.83
160.67
166.27
169.45
170.75
170.33
168.08
163.77
157.35
149.08
139.59
129.74
120.27
111.62
103.82
96.49
89.14
81.25
72.42
62.39
51.16
39.38
28.55
20.96
18.94
23.75
34.78
49.38
63.80
74.76
80.45
81.00
77.86
72.77
66.93
60.74
54.19
47.42
40.97
35.56
31.74
29.49
28.23
27.13
25.43
22.85
19.64
16.44
13.98
12.76
12.79
13.58
14.38
14.40
13.19
10.77
7.58
4.20
1.15
-1.19
-2.54
-2.68
-1.57
0.58
3.17
5.30
6.11
5.19
2.78
-0.30
-3.12
-5.07
-6.12
-6.65
-7.07
-7.56
-7.95
-7.93
-7.36
-6.39
-5.40
-4.72
-4.52
-4.86
-5.60
-6.58
-7.59
-8.30
-8.35
-7.39
-5.45
-2.94
-0.59
0.92
1.26
0.66
-0.28
-0.89
-0.74
0.26
1.96
4.16
6.70
9.43
12.10
14.33
15.72
15.96
15.00
13.14
10.94
8.99
7.70
7.20
7.23
7.36
7.15
6.40
5.29
4.26
3.82
4.21
5.11
5.80
5.48
3.58
0.06
-4.56
-9.45
-13.71
-16.63
-17.88
-17.46
-15.74
-13.26
-10.65
-8.53
-7.31
-7.19
-8.09
-9.70
-11.62
-13.41
-14.66
-15.06
-14.40
-12.62
-9.87
-6.48
-2.98
0.02
2.01
2.80
2.57
1.72
0.82
0.28
0.30
0.98
2.29
4.33
7.25
11.01
15.28
19.38
22.48
23.92
23.47
21.31
18.01
14.28
10.68
7.54
4.92
2.72
0.78
-1.13
-3.38
-6.30
-10.08
-14.64
-19.63
-24.46
-28.50
-31.39
-32.23
-31.06
-28.51
-25.47
-22.77
-20.90
-19.83
-19.16
-18.34
-16.89
-14.77
-12.18
-9.59
-7.56
-6.62
-7.03
-8.57
-10.44
-11.39
-10.25
-6.28
0.43
8.94
17.71
25.24
30.53
33.32
34.00
33.15
31.39
29.11
26.57
23.97
21.55
19.47
17.81
16.41
14.92
12.97
10.25
6.75
2.71
-1.35
-4.76
-6.96
-7.62
-6.78
-4.82
-2.29
0.24
2.31
3.60
3.91
3.04
0.81
-2.88
-7.89
-13.78
-19.83
-25.31
-29.74
-33.10
-35.90
-38.80
-42.20
-45.84
-48.70
-49.30
-46.39
-39.52
-29.41
-17.65
-6.13
3.82
11.78
18.21
23.94
29.53
34.86
39.26
41.83
41.86
39.05
33.47
25.36
15.13
3.55
-8.10
-18.03
-24.38
-25.93
-22.72
-16.20
-8.82
-3.19
-1.23
-3.63
-9.73
-17.90
-26.00
-32.06
-34.63
-33.07
-27.60
-19.02
-8.38
3.36
15.44
27.25
38.13
47.36
54.29
58.63
60.61
60.94
60.40
59.49
58.21
56.14
52.79
47.92
41.75
34.83
27.83
21.23
15.26
9.91
5.10
0.76
-3.11
-6.49
-9.37
-11.80
-13.79
-15.25
-15.99
-15.81
-14.59
-12.55
-10.17
-8.10
-6.94
-6.96
-8.02
-9.54
-10.74
-10.84
-9.26
-5.76
-0.53
5.84
12.52
18.62
23.42
26.53
27.96
28.05
27.27
26.02
24.51
22.76
20.61
17.78
13.97
8.92
2.55
-4.95
-13.05
-21.00
-28.01
-33.50
-37.33
-39.71
-41.08
-41.84
-42.13
-41.86
-40.80
-38.80
-35.86
-32.22
-28.21
-24.18
-20.35
-16.80
-13.50
-10.37
-7.32
-4.31
-1.38
1.39
3.88
5.99
7.66
8.88
9.60
9.76
9.21
7.84
5.65
2.80
-0.36
-3.39
-5.84
-7.43
-8.10
-8.04
-7.62
-7.28
-7.39
-8.17
-9.71
-11.95
-14.80
-18.05
-21.36
-24.16
-25.75
-25.42
-22.81
-18.07
-11.97
-5.68
-0.36
3.29
5.31
6.36
7.38
9.10
11.70
14.77
17.51
19.19
19.41
18.27
16.19
13.71
11.30
9.24
7.74
6.89
6.75
7.21
7.98
8.57
8.54
7.71
6.29
4.78
3.72
3.40
3.66
3.94
3.57
2.02
-0.93
-5.18
-10.40
-16.18
-22.11
-27.72
-32.52
-35.97
-37.61
-37.24
-34.99
-31.29
-26.79
-22.17
-17.97
-14.52
-11.96
-10.28
-9.39
-9.17
-9.37
-9.72
-9.88
-9.58
-8.72
-7.37
-5.71
-4.03
-2.54
-1.39
-0.62
-0.13
0.24
0.71
1.50
2.64
4.01
5.33
6.31
6.85
7.11
7.51
8.40
9.83
11.45
12.59
12.57
11.00
7.96
3.99
-0.19
-3.92
-6.80
-8.69
-9.59
-9.53
-8.49
-6.43
-3.40
0.43
4.73
9.12
13.17
16.47
18.66
19.48
18.76
16.53
13.01
8.63
3.91
-0.54
-4.18
-6.63
-7.71
-7.57
-6.66
-5.62
-5.09
-5.44
-6.69
-8.50
-10.39
-11.94
-13.01
-13.74
-14.44
-15.43
-16.87
-18.75
-20.92
-23.21
-25.49
-27.70
-29.80
-31.60
-32.80
-32.98
-31.77
-29.03
-24.92
-19.90
-14.58
-9.51
-5.07
-1.44
1.36
3.43
5.04
6.56
8.55
11.50
15.77
21.32
27.67
33.99
39.33
42.86
44.12
43.09
40.21
36.16
31.73
27.60
24.13
21.36
18.96
16.50
13.57
10.04
6.09
2.14
-1.35
-4.09
-6.09
-7.68
-9.39
-11.77
-15.18
-19.64
-24.65
-29.15
-31.49
-29.76
-22.37
-8.84
9.63
30.22
49.17
63.03
69.78
69.41
63.66
55.07
45.95
37.72
30.80
25.04
20.23
16.33
13.41
11.42
10.03
8.67
6.80
4.16
0.89
-2.51
-5.51
-7.73
-9.09
-9.82
-10.30
-10.83
-11.56
-12.46
-13.34
-13.96
-14.18
-14.05
-13.89
-14.17
-15.35
-17.66
-20.92
-24.56
-27.81
-29.93
-30.49
-29.42
-26.99
-23.63
-19.79
-15.87
-12.17
-8.84
-5.94
-3.42
-1.19
0.81
2.55
3.91
4.74
4.94
4.51
3.57
2.36
1.28
0.84
1.57
3.86
7.74
12.84
18.51
24.06
29.06
33.34
36.84
39.34
40.36
39.31
35.87
30.34
23.66
17.09
11.65
7.66
4.67
1.78
-1.83
-6.50
-11.92
-17.36
-22.03
-25.38
-27.19
-27.56
-26.66
-24.69
-21.80
-18.15
-13.97
-9.58
-5.31
-1.39
2.10
5.20
8.03
10.61
12.87
14.64
15.82
16.45
16.77
17.05
17.53
18.30
19.35
20.59
21.94
23.37
24.80
26.01
26.71
26.54
25.27
22.88
19.54
15.57
11.25
6.80
2.32
-2.11
-6.43
-10.55
-14.34
-17.67
-20.35
-22.16
-22.93
-22.56
-21.10
-18.74
-15.77
-12.53
-9.27
-6.22
-3.53
-1.32
0.26
1.09
1.06
0.22
-1.27
-3.06
-4.75
-5.97
-6.48
-6.24
-5.44
-4.40
-3.45
-2.87
-2.72
-2.92
-3.29
-3.68
-4.01
-4.31
-4.60
-4.88
-5.03
-4.87
-4.21
-2.96
-1.15
1.01
3.11
4.64
5.09
4.13
1.87
-1.05
-3.62
-4.82
-4.07
-1.60
1.72
4.75
6.71
7.54
7.80
8.29
9.50
11.27
12.86
13.38
12.19
9.19
4.82
-0.06
-4.42
-7.08
-6.95
-3.28
4.01
14.03
25.00
34.81
41.71
45.00
45.19
43.62
41.69
40.21
39.13
37.83
35.64
32.34
28.21
23.82
19.62
15.69
11.77
7.51
2.79
-2.09
-6.57
-10.10
-12.47
-13.95
-15.08
-16.35
-17.80
-18.85
-18.58
-16.24
-11.74
-5.85
0.03
4.37
6.13
5.09
1.82
-2.54
-6.77
-9.84
-11.11
-10.40
-7.96
-4.35
-0.30
3.49
6.46
8.33
8.96
8.43
7.03
5.33
4.14
4.35
6.52
10.58
15.66
20.38
23.35
23.69
21.31
16.73
10.73
3.94
-3.35
-11.14
-19.41
-27.90
-36.06
-43.09
-48.20
-50.73
-50.33
-46.94
-40.81
-32.48
-22.72
-12.52
-3.02
4.71
9.90
12.29
12.32
11.02
9.66
9.28
10.30
12.37
14.54
15.73
15.16
12.56
8.23
2.78
-3.07
-8.66
-13.47
-17.11
-19.37
-20.30
-20.28
-19.93
-19.96
-20.89
-22.85
-25.46
-27.98
-29.52
-29.39
-27.35
-23.67
-19.04
-14.28
-10.11
-6.98
-5.12
-4.66
-5.60
-7.85
-11.05
-14.52
-17.40
-18.95
-18.91
-17.69
-16.18
-15.38
-15.90
-17.74
-20.36
-23.05
-25.35
-27.25
-29.09
-31.17
-33.39
-35.19
-35.75
-34.48
-31.37
-27.13
-22.90
-19.78
-18.32
-18.29
-18.76
-18.47
-16.20
-11.14
-2.95
8.14
21.46
36.00
50.54
63.83
74.87
83.03
88.20
90.74
91.21
90.20
88.05
84.81
80.30
74.30
66.72
57.73
47.76
37.44
27.43
18.27
10.25
3.32
-2.82
-8.70
-14.84
-21.55
-28.73
-35.78
-41.67
-45.25
-45.63
-42.57
-36.59
-28.81
-20.65
-13.37
-7.82
-4.35
-2.94
-3.31
-5.05
-7.63
-10.49
-13.13
-15.24
-16.85
-18.25
-19.82
-21.85
-24.32
-26.92
-29.19
-30.70
-31.22
-30.78
-29.62
-28.11
-26.68
-25.72
-25.55
-26.27
-27.69
-29.37
-30.70
-31.10
-30.23
-28.08
-24.89
-21.06
-16.99
-12.96
-9.16
-5.73
-2.80
-0.55
0.92
1.58
1.53
0.97
0.19
-0.60
-1.20
-1.56
-1.63
-1.46
-1.06
-0.45
0.35
1.34
2.41
3.46
4.31
4.74
4.60
3.79
2.32
0.27
-2.15
-4.77
-7.38
-9.84
-12.10
-14.14
-15.92
-17.38
-18.33
-18.54
-17.77
-15.96
-13.25
-9.95
-6.47
-3.15
-0.19
2.41
4.73
6.86
8.81
10.54
11.98
13.15
14.15
15.11
16.11
17.16
18.16
19.02
19.68
20.17
20.55
20.84
20.97
20.81
20.16
18.93
17.10
14.77
12.10
9.24
6.31
3.41
0.61
-2.00
-4.39
-6.56
-8.56
-10.37
-11.87
-12.74
-12.49
-10.64
-6.81
-1.00
6.40
14.59
22.51
29.09
33.54
35.52
35.22
33.29
30.57
27.83
25.56
23.89
22.66
21.57
20.31
18.72
16.73
14.45
12.06
9.79
7.86
6.40
5.42
4.73
4.04
3.00
1.34
-0.97
-3.80
-6.83
-9.71
-12.25
-14.42
-16.31
-18.07
-19.72
-21.15
-22.15
-22.46
-21.90
-20.40
-18.01
-14.88
-11.19
-7.19
-3.10
0.83
4.33
7.20
9.30
10.65
11.39
11.78
12.07
12.43
12.83
13.11
13.07
12.54
11.51
10.09
8.46
6.81
5.23
3.76
2.34
0.90
-0.65
-2.34
-4.13
-5.90
-7.49
-8.76
-9.71
-10.50
-11.39
-12.68
-14.51
-16.74
-18.95
-20.49
-20.66
-18.96
-15.23
-9.71
-2.98
4.21
11.11
17.06
21.61
24.51
25.67
25.18
23.32
20.57
17.51
14.68
12.42
10.78
9.52
8.29
6.81
5.01
3.06
1.20
-0.43
-1.88
-3.37
-5.15
-7.34
-9.78
-12.09
-13.76
-14.45
-14.09
-13.01
-11.80
-11.05
-11.03
-11.59
-12.18
-12.15
-11.07
-9.02
-6.48
-4.14
-2.47
-1.57
-1.13
-0.64
0.35
2.03
4.39
7.33
10.70
14.44
18.37
22.11
25.05
26.49
25.91
23.37
19.53
15.53
12.59
11.54
12.50
14.97
18.02
20.77
22.69
23.67
23.90
23.58
22.80
21.46
19.38
16.40
12.53
7.94
3.09
-1.40
-4.80
-6.49
-6.24
-4.38
-1.80
0.33
0.94
-0.49
-3.90
-8.63
-13.77
-18.39
-21.70
-23.16
-22.53
-19.90
-15.76
-10.94
-6.37
-2.85
-0.75
0.02
-0.09
-0.53
-0.80
-0.65
-0.03
0.92
2.00
3.01
3.76
4.15
4.16
3.80
3.19
2.53
2.08
2.18
3.08
4.88
7.39
10.21
12.92
15.19
16.91
18.17
19.04
19.48
19.26
18.07
15.70
12.15
7.76
3.01
-1.58
-5.67
-9.12
-12.02
-14.56
-16.93
-19.22
-21.34
-23.09
-24.17
-24.30
-23.31
-21.26
-18.41
-15.16
-11.97
-9.21
-7.09
-5.63
-4.71
-4.15
-3.78
-3.47
-3.15
-2.77
-2.27
-1.59
-0.68
0.44
1.69
2.94
4.10
5.08
5.89
6.54
7.04
7.36
7.44
7.23
6.70
5.92
4.99
4.03
3.14
2.36
1.67
1.02
0.35
-0.39
-1.21
-2.08
-2.99
-3.89
-4.76
-5.60
-6.38
-7.11
-7.83
-8.65
-9.69
-11.02
-12.61
-14.28
-15.73
-16.64
-16.71
-15.80
-13.91
-11.22
-8.08
-4.95
-2.32
-0.56
0.17
0.04
-0.57
-1.13
-1.16
-0.40
1.21
3.47
6.03
8.47
10.38
11.48
11.65
11.03
9.91
8.72
7.83
7.45
7.60
8.10
8.71
9.15
9.29
9.06
8.52
7.82
7.06
6.35
5.65
4.91
4.01
2.84
1.40
-0.24
-1.94
-3.59
-5.10
-6.55
-8.06
-9.79
-11.83
-14.10
-16.39
-18.35
-19.63
-19.94
-19.13
-17.25
-14.55
-11.41
-8.27
-5.47
-3.22
-1.52
-0.26
0.72
1.55
2.26
2.83
3.22
3.38
3.32
3.06
2.63
2.08
1.45
0.81
0.28
-0.01
0.05
0.54
1.41
2.47
3.43
3.97
3.81
2.85
1.17
-0.98
-3.29
-5.44
-7.25
-8.66
-9.75
-10.69
-11.65
-12.70
-13.86
-14.99
-15.90
-16.39
-16.29
-15.46
-13.89
-11.66
-8.98
-6.15
-3.50
-1.28
0.45
1.81
3.08
4.49
6.09
7.77
9.26
10.28
10.66
10.39
9.56
8.32
6.73
4.89
2.92
1.04
-0.40
-1.07
-0.80
0.25
1.58
2.55
2.59
1.47
-0.69
-3.37
-5.96
-7.95
-9.07
-9.37
-9.13
-8.81
-8.83
-9.50
-10.85
-12.66
-14.44
-15.66
-15.89
-14.97
-13.03
-10.38
-7.42
-4.49
-1.82
0.41
2.10
3.19
3.72
3.86
3.86
3.98
4.36
5.00
5.72
6.35
6.71
6.77
6.59
6.24
5.77
5.19
4.48
3.60
2.59
1.46
0.27
-0.97
-2.23
-3.46
-4.62
-5.66
-6.55
-7.33
-8.07
-8.86
-9.77
-10.86
-12.08
-13.32
-14.36
-14.97
-14.88
-13.95
-12.15
-9.61
-6.63
-3.52
-0.59
1.95
4.02
5.63
6.84
7.68
8.15
8.18
7.77
6.97
5.95
4.97
4.23
3.83
3.74
3.85
4.02
4.17
4.17
3.90
3.25
2.18
0.83
-0.51
-1.48
-1.88
-1.76
-1.42
-1.29
-1.73
-2.88
-4.66
-6.81
-9.00
-10.86
-11.93
-11.75
-10.00
-6.63
-1.98
3.32
8.58
13.31
17.29
20.59
23.33
25.57
27.25
28.21
28.42
27.93
26.98
25.79
24.55
23.29
21.99
20.56
18.93
17.07
15.00
12.79
10.56
8.41
6.45
4.71
3.25
2.12
1.40
1.14
1.31
1.76
2.23
2.46
2.25
1.54
0.33
-1.27
-3.20
-5.37
-7.72
-10.18
-12.61
-14.80
-16.45
-17.22
-16.78
-14.98
-12.00
-8.36
-4.82
-2.10
-0.62
-0.36
-0.87
-1.54
-1.84
-1.55
-0.76
0.19
0.83
0.75
-0.39
-2.67
-5.72
-8.52
-9.40
-6.54
1.34
14.15
30.16
46.34
59.38
66.82
67.80
63.13
54.67
44.42
33.87
23.85
14.67
6.47
-0.62
-6.46
-11.08
-14.64
-17.45
-19.81
-21.91
-23.76
-25.25
-26.14
-26.27
-25.55
-24.10
-22.22
-20.37
-19.01
-18.41
-18.60
-19.29
-20.08
-20.60
-20.67
-20.36
-19.84
-19.31
-18.82
-18.28
-17.53
-16.49
-15.23
-14.01
-13.13
-12.82
-13.13
-13.91
-14.86
-15.66
-16.11
-16.19
-16.02
-15.75
-15.45
-15.03
-14.20
-12.67
-10.24
-7.01
-3.41
0.00
2.71
4.49
5.52
6.21
6.99
8.02
9.06
9.50
8.67
6.13
1.95
-3.25
-8.46
-12.54
-14.57
-14.12
-11.29
-6.68
-1.15
4.32
8.84
11.75
12.68
11.56
8.63
4.26
-1.09
-7.07
-13.37
-19.66
-25.42
-29.80
-31.80
-30.63
-26.17
-19.17
-11.24
-4.27
0.24
1.84
1.40
0.78
2.10
6.88
15.48
27.01
39.76
51.81
61.62
68.30
71.53
71.36
68.04
61.95
53.65
43.93
33.72
23.94
15.31
8.21
2.65
-1.65
-5.19
-8.47
-11.76
-14.97
-17.60
-18.94
-18.46
-16.18
-12.79
-9.50
-7.48
-7.37
-8.99
-11.50
-13.87
-15.38
-15.98
-16.15
-16.56
-17.67
-19.45
-21.49
-23.25
-24.36
-24.81
-24.89
-25.05
-25.72
-27.07
-28.99
-31.03
-32.39
-32.14
-29.44
-23.83
-15.46
-5.04
6.41
17.90
28.76
38.62
47.25
54.37
59.50
62.16
62.04
59.27
54.30
47.77
40.25
32.08
23.43
14.46
5.52
-2.84
-9.99
-15.38
-18.80
-20.38
-20.59
-20.01
-19.13
-18.23
-17.25
-15.89
-13.78
-10.68
-6.68
-2.19
2.15
5.71
8.07
9.26
9.66
9.89
10.52
11.86
13.85
16.10
18.11
19.43
19.81
19.24
17.86
15.80
13.18
10.03
6.43
2.53
-1.34
-4.77
-7.42
-9.14
-10.10
-10.65
-11.21
-12.04
-13.21
-14.59
-15.99
-17.26
-18.33
-19.16
-19.66
-19.63
-18.85
-17.20
-14.78
-11.96
-9.25
-7.14
-5.91
-5.56
-5.83
-6.41
-7.08
-7.82
-8.76
-10.11
-11.92
-14.07
-16.17
-17.76
-18.42
-17.93
-16.31
-13.80
-10.71
-7.34
-3.94
-0.68
2.25
4.64
6.28
6.93
6.44
4.77
2.00
-1.68
-5.94
-10.36
-14.47
-17.80
-19.96
-20.76
-20.23
-18.68
-16.56
-14.39
-12.50
-11.00
-9.73
-8.37
-6.57
-4.09
-0.93
2.68
6.38
9.75
12.46
14.34
15.41
15.89
16.12
16.49
17.33
18.88
21.22
24.28
27.83
31.54
35.00
37.79
39.53
39.96
38.99
36.68
33.32
29.33
25.14
21.06
17.16
13.22
8.78
3.36
-3.29
-10.97
-18.96
-26.12
-31.30
-33.64
-32.91
-29.58
-24.61
-19.10
-14.01
-9.95
-7.18
-5.64
-4.98
-4.63
-3.83
-1.82
1.87
7.18
13.46
19.65
24.71
27.89
29.00
28.25
26.13
23.15
19.71
16.11
12.57
9.21
6.05
2.93
-0.41
-4.26
-8.71
-13.42
-17.60
-20.16
-20.08
-16.92
-11.09
-3.79
3.45
9.30
13.16
15.15
15.86
15.88
15.51
14.70
13.33
11.41
9.19
7.06
5.33
4.04
2.95
1.72
0.06
-2.07
-4.53
-7.04
-9.36
-11.37
-13.09
-14.62
-16.00
-17.23
-18.16
-18.64
-18.58
-18.03
-17.24
-16.51
-16.18
-16.44
-17.27
-18.46
-19.72
-20.76
-21.39
-21.63
-21.63
-21.60
-21.80
-22.41
-23.48
-24.88
-26.31
-27.33
-27.50
-26.50
-24.28
-21.00
-16.98
-12.53
-7.90
-3.23
1.36
5.68
9.47
12.49
14.59
15.85
16.52
16.92
17.28
17.63
17.84
17.74
17.25
16.41
15.44
14.55
13.97
13.76
13.95
14.45
15.17
15.93
16.58
16.89
16.72
16.02
14.86
13.41
11.83
10.22
8.64
7.11
5.74
4.72
4.23
4.37
5.07
6.11
7.23
8.27
9.22
10.22
11.42
12.88
14.53
16.20
17.68
18.87
19.72
20.30
20.67
20.90
21.07
21.19
21.22
21.02
20.43
19.37
17.88
16.17
14.51
13.08
11.87
10.59
8.81
6.17
2.51
-1.96
-6.77
-11.27
-14.85
-17.05
-17.65
-16.67
-14.35
-11.06
-7.26
-3.39
0.24
3.44
6.18
8.47
10.24
11.34
11.51
10.58
8.58
5.83
2.81
-0.05
-2.57
-4.91
-7.36
-10.12
-13.09
-15.85
-17.90
-18.92
-19.01
-18.66
-18.54
-19.20
-20.96
-23.82
-27.54
-31.80
-36.22
-40.38
-43.86
-46.20
-46.96
-45.87
-42.83
-37.97
-31.67
-24.45
-16.87
-9.47
-2.58
3.58
8.95
13.46
17.04
19.58
21.00
21.33
20.75
19.55
18.13
16.81
15.80
15.13
14.60
13.92
12.77
10.90
8.31
5.16
1.81
-1.35
-4.01
-6.02
-7.43
-8.40
-9.09
-9.54
-9.71
-9.48
-8.76
-7.62
-6.22
-4.82
-3.59
-2.59
-1.72
-0.86
0.12
1.16
2.14
2.80
2.94
2.46
1.45
0.16
-0.99
-1.58
-1.26
0.19
2.85
6.66
11.39
16.63
21.82
26.36
29.72
31.65
32.22
31.75
30.69
29.32
27.75
25.86
23.54
20.80
17.86
15.00
12.40
10.00
7.50
4.50
0.77
-3.61
-8.18
-12.29
-15.34
-16.99
-17.28
-16.53
-15.18
-13.66
-12.22
-10.97
-9.92
-9.05
-8.37
-7.95
-7.88
-8.22
-8.94
-9.86
-10.75
-11.34
-11.47
-11.12
-10.38
-9.47
-8.59
-7.88
-7.38
-7.01
-6.66
-6.23
-5.69
-5.17
-4.85
-4.90
-5.37
-6.14
-6.99
-7.70
-8.24
-8.72
-9.38
-10.41
-11.85
-13.56
-15.31
-16.90
-18.31
-19.69
-21.25
-23.07
-25.04
-26.75
-27.72
-27.52
-25.89
-22.77
-18.12
-11.88
-4.02
5.13
14.69
23.29
29.55
32.67
32.86
31.18
28.93
26.79
24.51
21.10
15.64
8.04
-0.68
-8.72
-14.37
-16.71
-15.99
-13.23
-9.74
-6.59
-4.34
-3.14
-2.90
-3.52
-4.84
-6.70
-8.81
-10.84
-12.51
-13.68
-14.39
-14.77
-14.98
-15.07
-14.97
-14.57
-13.71
-12.24
-10.05
-7.14
-3.64
0.14
3.80
6.93
9.30
10.90
11.94
12.70
13.37
13.95
14.32
14.35
14.05
13.63
13.41
13.69
14.58
15.93
17.41
18.65
19.40
19.59
19.34
18.80
18.05
17.07
15.78
14.16
12.27
10.32
8.57
7.18
6.19
5.45
4.68
3.59
1.97
-0.21
-2.75
-5.28
-7.35
-8.57
-8.73
-7.86
-6.17
-3.95
-1.50
0.97
3.34
5.49
7.30
8.63
9.40
9.61
9.43
9.07
8.73
8.49
8.32
8.15
7.88
7.53
7.10
6.64
6.15
5.60
5.01
4.41
3.90
3.53
3.30
3.08
2.64
1.82
0.54
-1.11
-2.88
-4.46
-5.58
-6.14
-6.21
-6.03
-5.91
-6.12
-6.77
-7.86
-9.21
-10.61
-11.87
-12.84
-13.44
-13.63
-13.40
-12.70
-11.47
-9.65
-7.18
-4.04
-0.29
3.89
8.14
11.92
14.62
15.79
15.33
13.66
11.62
10.23
10.25
11.86
14.50
16.87
17.33
14.32
7.02
-4.28
-18.03
-31.73
-42.55
-48.21
-47.54
-40.83
-29.57
-15.95
-2.32
9.34
17.67
22.10
22.84
20.74
17.07
13.16
10.04
8.19
7.49
7.35
6.94
5.44
2.41
-2.09
-7.39
-12.40
-16.00
-17.47
-16.76
-14.58
-12.06
-10.31
-9.99
-11.10
-13.12
-15.26
-16.79
-17.28
-16.67
-15.19
-13.21
-11.04
-8.86
-6.69
-4.46
-2.17
0.11
2.18
3.89
5.16
6.11
6.95
7.88
8.96
10.10
11.09
11.77
12.08
12.12
12.08
12.07
12.13
12.14
11.92
11.34
10.33
8.94
7.30
5.56
3.86
2.29
0.91
-0.31
-1.37
-2.27
-3.01
-3.58
-3.97
-4.23
-4.39
-4.52
-4.67
-4.92
-5.41
-6.28
-7.61
-9.24
-10.80
-11.75
-11.62
-10.18
-7.61
-4.38
-1.09
1.75
3.83
5.12
5.72
5.81
5.58
5.22
4.84
4.51
4.25
3.97
3.62
3.19
2.71
2.25
1.81
1.31
0.65
-0.24
-1.33
-2.51
-3.67
-4.76
-5.81
-6.97
-8.36
-10.03
-11.97
-14.11
-16.34
-18.55
-20.53
-22.00
-22.56
-21.85
-19.65
-15.99
-11.18
-5.71
-0.10
5.18
9.80
13.52
16.25
17.97
18.79
18.91
18.58
18.05
17.44
16.78
16.03
15.14
14.04
12.68
10.95
8.81
6.30
3.65
1.25
-0.53
-1.43
-1.48
-1.01
-0.48
-0.38
-1.01
-2.43
-4.44
-6.70
-8.83
-10.53
-11.66
-12.30
-12.64
-12.92
-13.32
-13.92
-14.70
-15.51
-16.10
-16.12
-15.23
-13.15
-9.77
-5.32
-0.27
4.69
8.80
11.44
12.31
11.54
9.69
7.54
5.86
5.11
5.35
6.22
7.20
7.83
7.84
7.18
5.97
4.41
2.76
1.34
0.48
0.40
1.08
2.17
3.05
3.06
1.76
-0.87
-4.39
-8.11
-11.32
-13.56
-14.72
-14.92
-14.40
-13.34
-11.85
-10.00
-7.93
-5.80
-3.79
-1.90
0.01
2.17
4.74
7.64
10.56
13.04
14.71
15.48
15.55
15.39
15.46
16.08
17.28
18.87
20.50
21.86
22.68
22.79
22.09
20.52
18.11
15.03
11.56
8.10
5.03
2.63
0.91
-0.33
-1.51
-3.08
-5.37
-8.41
-11.87
-15.09
-17.26
-17.73
-16.19
-12.84
-8.32
-3.48
0.84
4.10
6.11
7.01
7.15
6.95
6.75
6.80
7.22
7.98
8.91
9.73
10.10
9.79
8.74
7.16
5.45
4.08
3.38
3.40
3.90
4.43
4.47
3.65
1.83
-0.81
-3.83
-6.70
-8.96
-10.38
-11.11
-11.54
-12.20
-13.48
-15.36
-17.38
-18.78
-18.77
-16.87
-13.08
-7.88
-2.04
3.56
8.13
11.13
12.35
11.89
10.25
8.14
6.36
5.54
5.91
7.24
8.89
10.13
10.41
9.56
7.85
5.89
4.33
3.65
3.97
5.04
6.27
6.92
6.41
4.45
1.29
-2.43
-5.86
-8.22
-9.21
-9.03
-8.33
-7.89
-8.33
-9.81
-12.01
-14.24
-15.66
-15.53
-13.41
-9.27
-3.57
2.83
8.83
13.36
15.76
15.92
14.41
12.15
10.13
9.03
9.02
9.84
11.03
12.19
13.05
13.52
13.54
13.01
11.80
9.94
7.66
5.39
3.57
2.43
1.91
1.67
1.33
0.60
-0.55
-1.99
-3.52
-4.99
-6.39
-7.82
-9.40
-11.18
-13.10
-14.95
-16.36
-16.97
-16.45
-14.66
-11.70
-7.92
-3.80
0.16
3.58
6.21
7.99
8.93
9.08
8.49
7.22
5.38
3.16
0.85
-1.26
-2.88
-3.85
-4.13
-3.81
-3.01
-1.89
-0.58
0.76
1.89
2.52
2.40
1.44
-0.11
-1.79
-3.07
-3.65
-3.58
-3.30
-3.34
-4.08
-5.54
-7.46
-9.40
-11.06
-12.21
-12.75
-12.52
-11.31
-8.95
-5.47
-1.19
3.26
7.21
10.13
11.81
12.39
12.24
11.82
11.52
11.57
12.02
12.80
13.77
14.78
15.70
16.45
16.99
17.31
17.44
17.42
17.26
16.94
16.32
15.16
13.15
10.11
6.07
1.37
-3.38
-7.47
-10.39
-11.92
-12.26
-11.84
-11.26
-10.99
-11.35
-12.39
-13.89
-15.35
-16.15
-15.70
-13.67
-10.12
-5.55
-0.75
3.48
6.54
8.21
8.59
8.08
7.13
6.21
5.61
5.49
5.72
5.98
5.92
5.25
3.94
2.27
0.61
-0.66
-1.43
-1.82
-2.07
-2.42
-2.93
-3.50
-3.99
-4.30
-4.49
-4.74
-5.27
-6.27
-7.84
-9.97
-12.55
-15.35
-17.99
-19.99
-20.84
-20.13
-17.75
-13.97
-9.33
-4.56
-0.27
3.13
5.51
6.94
7.58
7.56
6.95
5.86
4.47
3.03
1.78
0.90
0.45
0.33
0.35
0.35
0.19
-0.18
-0.75
-1.44
-2.18
-2.93
-3.67
-4.50
-5.53
-6.93
-8.83
-11.27
-14.17
-17.29
-20.22
-22.38
-23.15
-22.01
-18.83
-13.94
-8.10
-2.31
2.54
5.92
7.79
8.45
8.33
7.74
6.81
5.56
4.03
2.41
1.01
0.16
0.06
0.72
1.92
3.37
4.82
6.16
7.38
8.52
9.55
10.32
10.63
10.30
9.32
7.81
5.98
3.97
1.81
-0.61
-3.43
-6.68
-10.21
-13.67
-16.63
-18.69
-19.61
-19.31
-17.89
-15.58
-12.71
-9.60
-6.61
-4.04
-2.08
-0.83
-0.28
-0.32
-0.79
-1.49
-2.28
-3.05
-3.75
-4.34
-4.83
-5.19
-5.41
-5.51
-5.57
-5.72
-6.12
-6.93
-8.25
-10.07
-12.27
-14.59
-16.73
-18.37
-19.29
-19.43
-18.89
-17.86
-16.59
-15.34
-14.27
-13.46
-12.85
-12.23
-11.33
-9.81
-7.50
-4.40
-0.77
2.97
6.39
9.14
11.06
12.16
12.58
12.58
12.47
12.57
13.16
14.40
16.27
18.53
20.77
22.53
23.40
23.14
21.76
19.49
16.74
14.00
11.79
10.52
10.45
11.58
13.75
16.60
19.71
22.66
25.08
26.68
27.20
26.42
24.24
20.66
15.86
10.21
4.22
-1.53
-6.49
-10.19
-12.29
-12.61
-11.23
-8.47
-4.83
-0.95
2.57
5.25
6.85
7.38
6.99
5.94
4.44
2.69
0.78
-1.16
-3.01
-4.61
-5.85
-6.66
-7.07
-7.23
-7.31
-7.47
-7.76
-8.12
-8.43
-8.57
-8.55
-8.48
-8.56
-8.99
-9.81
-10.91
-12.06
-13.06
-13.83
-14.45
-14.99
-15.45
-15.61
-15.10
-13.59
-10.95
-7.39
-3.32
0.77
4.49
7.67
10.27
12.30
13.74
14.54
14.68
14.24
13.44
12.52
11.69
11.02
10.49
9.97
9.42
8.84
8.29
7.84
7.45
6.97
6.17
4.90
3.12
0.91
-1.50
-3.88
-6.08
-8.02
-9.72
-11.23
-12.67
-14.15
-15.82
-17.78
-20.02
-22.37
-24.41
-25.68
-25.74
-24.39
-21.79
-18.36
-14.68
-11.24
-8.36
-6.12
-4.39
-3.02
-1.84
-0.74
0.36
1.59
3.10
5.02
7.41
10.14
12.99
15.65
17.91
19.69
21.06
22.11
22.89
23.28
23.08
22.11
20.35
17.98
15.37
12.88
10.74
8.91
7.17
5.25
2.94
0.24
-2.69
-5.56
-8.08
-9.99
-11.09
-11.19
-10.21
-8.16
-5.26
-1.84
1.70
4.98
7.75
9.89
11.34
12.08
12.14
11.61
10.71
9.74
8.99
8.60
8.53
8.58
8.50
8.18
7.64
7.04
6.53
6.15
5.82
5.37
4.64
3.47
1.86
-0.19
-2.60
-5.27
-8.00
-10.46
-12.25
-12.99
-12.55
-11.14
-9.25
-7.42
-6.00
-4.99
-4.11
-3.00
-1.48
0.33
2.11
3.50
4.36
4.75
4.91
5.07
5.32
5.62
5.87
5.97
5.93
5.85
5.96
6.52
7.71
9.50
11.61
13.54
14.80
15.07
14.37
12.96
11.22
9.44
7.71
5.93
3.96
1.73
-0.65
-2.98
-4.96
-6.44
-7.44
-8.19
-9.00
-10.08
-11.37
-12.54
-13.14
-12.84
-11.66
-9.93
-8.19
-6.84
-5.96
-5.29
-4.50
-3.34
-1.83
-0.26
1.03
1.79
1.97
1.69
1.19
0.69
0.33
0.10
-0.10
-0.40
-0.90
-1.62
-2.47
-3.32
-4.11
-4.87
-5.70
-6.72
-7.97
-9.39
-10.85
-12.26
-13.68
-15.27
-17.24
-19.71
-22.55
-25.42
-27.81
-29.19
-29.17
-27.55
-24.41
-20.01
-14.73
-9.00
-3.23
2.23
7.13
11.27
14.57
17.05
18.80
19.96
20.73
21.27
21.67
21.99
22.21
22.30
22.19
21.82
21.10
19.97
18.44
16.61
14.63
12.68
10.86
9.21
7.67
6.19
4.77
3.44
2.24
1.06
-0.24
-1.85
-3.81
-5.94
-7.88
-9.20
-9.58
-8.95
-7.46
-5.47
-3.34
-1.38
0.25
1.52
2.50
3.26
3.88
4.43
4.89
5.24
5.42
5.38
5.10
4.59
3.89
3.06
2.19
1.40
0.75
0.28
-0.09
-0.54
-1.27
-2.44
-4.06
-6.03
-8.13
-10.13
-11.87
-13.30
-14.43
-15.38
-16.30
-17.38
-18.79
-20.55
-22.49
-24.17
-25.04
-24.57
-22.47
-18.81
-14.00
-8.59
-3.11
2.09
6.86
11.18
15.04
18.37
21.02
22.84
23.76
23.84
23.26
22.28
21.15
20.04
19.06
18.28
17.76
17.58
17.82
18.46
19.35
20.26
20.90
21.07
20.71
19.85
18.58
16.92
14.87
12.40
9.60
6.65
3.83
1.34
-0.76
-2.55
-4.11
-5.42
-6.26
-6.35
-5.49
-3.75
-1.48
0.78
2.52
3.43
3.53
3.06
2.36
1.64
0.96
0.25
-0.62
-1.67
-2.81
-3.86
-4.66
-5.10
-5.19
-5.02
-4.70
-4.29
-3.86
-3.44
-3.12
-2.97
-3.11
-3.56
-4.33
-5.34
-6.49
-7.69
-8.87
-9.99
-11.04
-12.01
-12.85
-13.46
-13.72
-13.51
-12.77
-11.51
-9.78
-7.69
-5.34
-2.84
-0.30
2.11
4.22
5.84
6.87
7.25
7.07
6.46
5.62
4.72
3.96
3.44
3.25
3.38
3.71
4.11
4.41
4.49
4.31
3.86
3.17
2.28
1.24
0.08
-1.16
-2.48
-3.87
-5.33
-6.87
-8.42
-9.87
-11.03
-11.70
-11.67
-10.82
-9.19
-6.96
-4.43
-1.93
0.30
2.12
3.52
4.55
5.26
5.68
5.84
5.75
5.51
5.19
4.86
4.55
4.23
3.89
3.54
3.23
3.00
2.87
2.79
2.68
2.45
2.05
1.44
0.62
-0.38
-1.52
-2.72
-3.91
-5.08
-6.23
-7.45
-8.80
-10.27
-11.72
-12.84
-13.28
-12.77
-11.24
-8.88
-6.06
-3.19
-0.62
1.44
2.89
3.76
4.14
4.18
4.04
3.86
3.69
3.49
3.18
2.70
2.10
1.52
1.09
0.89
0.91
1.06
1.26
1.49
1.77
2.10
2.40
2.46
2.02
0.83
-1.15
-3.76
-6.65
-9.39
-11.57
-12.93
-13.37
-12.90
-11.61
-9.66
-7.28
-4.78
-2.51
-0.81
0.15
0.35
-0.03
-0.77
-1.61
-2.42
-3.08
-3.54
-3.73
-3.66
-3.38
-3.03
-2.83
-2.94
-3.45
-4.29
-5.32
-6.40
-7.38
-8.25
-9.01
-9.69
-10.36
-11.06
-11.84
-12.75
-13.81
-14.94
-16.03
-16.82
-17.01
-16.30
-14.45
-11.37
-7.21
-2.39
2.57
7.13
10.90
13.76
15.79
17.21
18.23
19.03
19.71
20.32
20.87
21.34
21.65
21.79
21.84
21.94
22.25
22.78
23.30
23.44
22.87
21.49
19.48
17.19
14.94
12.84
10.77
8.52
5.97
3.21
0.53
-1.75
-3.43
-4.51
-5.21
-5.84
-6.69
-7.89
-9.35
-10.74
-11.67
-11.82
-11.11
-9.70
-7.94
-6.17
-4.61
-3.39
-2.56
-2.18
-2.29
-2.83
-3.62
-4.37
-4.83
-4.93
-4.84
-4.82
-5.09
-5.63
-6.21
-6.55
-6.52
-6.21
-5.89
-5.84
-6.19
-6.85
-7.62
-8.25
-8.60
-8.63
-8.36
-7.85
-7.11
-6.15
-5.01
-3.85
-2.84
-2.20
-2.03
-2.24
-2.60
-2.77
-2.46
-1.57
-0.22
1.33
2.76
3.87
4.61
5.05
5.29
5.39
5.35
5.15
4.81
4.40
4.03
3.77
3.64
3.60
3.57
3.47
3.28
3.04
2.80
2.60
2.42
2.21
1.87
1.34
0.59
-0.31
-1.24
-2.08
-2.75
-3.30
-3.85
-4.49
-5.27
-6.10
-6.86
-7.39
-7.55
-7.28
-6.55
-5.37
-3.78
-1.86
0.23
2.30
4.11
5.45
6.17
6.21
5.64
4.62
3.37
2.11
0.97
0.02
-0.71
-1.20
-1.47
-1.54
-1.49
-1.48
-1.60
-1.89
-2.26
-2.55
-2.67
-2.59
-2.43
-2.31
-2.29
-2.34
-2.39
-2.43
-2.54
-2.86
-3.49
-4.41
-5.44
-6.32
-6.83
-6.88
-6.51
-5.86
-5.08
-4.26
-3.44
-2.58
-1.67
-0.76
0.06
0.68
1.04
1.14
1.07
0.92
0.82
0.80
0.92
1.21
1.68
2.32
3.05
3.74
4.19
4.27
3.92
3.20
2.26
1.24
0.28
-0.57
-1.26
-1.79
-2.15
-2.39
-2.58
-2.83
-3.22
-3.71
-4.16
-4.35
-4.04
-3.15
-1.75
-0.05
1.68
3.23
4.49
5.48
6.22
6.71
6.90
6.68
6.05
5.12
4.15
3.42
3.09
3.15
3.39
3.55
3.47
3.14
2.70
2.33
2.08
1.91
1.67
1.20
0.47
-0.45
-1.42
-2.33
-3.15
-3.93
-4.83
-5.96
-7.28
-8.62
-9.64
-10.00
-9.51
-8.16
-6.17
-3.89
-1.63
0.36
1.96
3.10
3.74
3.88
3.54
2.77
1.71
0.53
-0.60
-1.54
-2.23
-2.68
-2.98
-3.26
-3.67
-4.31
-5.24
-6.44
-7.81
-9.23
-10.54
-11.65
-12.53
-13.25
-13.96
-14.78
-15.71
-16.63
-17.22
-17.12
-15.99
-13.66
-10.16
-5.73
-0.75
4.30
9.04
13.13
16.39
18.76
20.24
20.86
20.75
20.05
19.01
17.87
16.83
15.94
15.12
14.25
13.23
12.06
10.86
9.77
8.86
8.11
7.42
6.67
5.79
4.75
3.52
2.07
0.41
-1.44
-3.34
-5.06
-6.31
-6.87
-6.63
-5.65
-4.09
-2.20
-0.18
1.76
3.51
4.96
6.03
6.66
6.85
6.60
5.99
5.11
4.08
3.06
2.19
1.58
1.26
1.19
1.27
1.34
1.33
1.23
1.08
0.96
0.86
0.72
0.39
-0.22
-1.17
-2.37
-3.72
-5.11
-6.48
-7.74
-8.79
-9.45
-9.48
-8.70
-7.11
-4.90
-2.43
-0.07
1.90
3.43
4.58
5.51
6.27
6.87
7.19
7.17
6.82
6.25
5.66
5.24
5.11
5.23
5.50
5.77
5.93
5.96
5.91
5.81
5.61
5.23
4.50
3.39
1.96
0.45
-0.87
-1.79
-2.32
-2.64
-3.04
-3.77
-4.91
-6.37
-7.92
-9.31
-10.29
-10.72
-10.48
-9.56
-7.99
-5.93
-3.59
-1.24
0.90
2.68
4.05
5.09
5.89
6.53
7.04
7.39
7.54
7.52
7.36
7.17
7.00
6.86
6.70
6.52
6.34
6.22
6.21
6.29
6.34
6.20
5.74
4.93
3.91
2.86
1.93
1.22
0.71
0.27
-0.24
-0.95
-1.90
-3.07
-4.39
-5.72
-6.95
-8.01
-8.90
-9.66
-10.41
-11.28
-12.36
-13.74
-15.44
-17.43
-19.60
-21.68
-23.30
-24.08
-23.74
-22.29
-20.04
-17.54
-15.31
-13.68
-12.65
-11.98
-11.40
-10.78
-10.17
-9.76
-9.62
-9.64
-9.41
-8.39
-6.12
-2.40
2.51
7.95
13.05
17.00
19.35
20.15
19.88
19.29
19.10
19.84
21.73
24.77
28.79
33.45
38.23
42.48
45.50
46.76
46.03
43.48
39.64
35.23
31.05
27.72
25.59
24.67
24.64
24.97
25.16
24.92
24.33
23.75
23.64
24.23
25.41
26.76
27.75
28.03
27.53
26.39
24.84
22.96
20.73
18.08
15.04
11.81
8.70
5.97
3.75
1.91
0.23
-1.53
-3.45
-5.43
-7.30
-8.93
-10.34
-11.70
-13.22
-15.03
-17.03
-18.97
-20.58
-21.74
-22.55
-23.29
-24.25
-25.54
-27.08
-28.60
-29.87
-30.77
-31.35
-31.75
-32.04
-32.23
-32.26
-32.04
-31.60
-31.01
-30.37
-29.71
-28.92
-27.82
-26.21
-23.97
-21.16
-18.03
-14.91
-12.14
-9.95
-8.34
-7.13
-6.02
-4.71
-3.06
-1.17
0.72
2.29
3.40
4.09
4.56
5.06
5.69
6.40
6.98
7.25
7.14
6.70
6.07
5.36
4.62
3.79
2.85
1.78
0.60
-0.68
-2.03
-3.45
-4.93
-6.47
-8.07
-9.76
-11.60
-13.64
-15.91
-18.36
-20.88
-23.31
-25.48
-27.26
-28.48
-29.01
-28.74
-27.60
-25.59
-22.81
-19.47
-15.85
-12.28
-9.02
-6.20
-3.75
-1.53
0.61
2.70
4.62
6.12
6.97
7.07
6.54
5.69
4.98
4.84
5.59
7.33
9.90
13.00
16.24
19.27
21.84
23.80
25.06
25.55
25.24
24.17
22.45
20.21
17.52
14.35
10.56
6.05
0.84
-4.78
-10.37
-15.38
-19.40
-22.22
-23.94
-24.85
-25.38
-25.85
-26.45
-27.09
-27.50
-27.32
-26.24
-24.13
-21.05
-17.21
-12.91
-8.41
-3.93
0.30
4.08
7.20
9.56
11.16
12.16
12.80
13.30
13.81
14.41
15.08
15.82
16.61
17.37
17.99
18.30
18.09
17.28
15.90
14.11
12.12
10.08
8.02
5.85
3.44
0.69
-2.33
-5.39
-8.05
-9.83
-10.33
-9.38
-7.16
-4.14
-0.93
1.91
4.04
5.37
5.99
6.05
5.68
4.94
3.93
2.84
1.92
1.44
1.58
2.31
3.42
4.59
5.54
6.20
6.69
7.28
8.19
9.50
11.05
12.60
13.92
14.98
15.87
16.76
17.65
18.32
18.42
17.63
15.87
13.34
10.49
7.73
5.29
3.17
1.16
-0.96
-3.31
-5.81
-8.27
-10.46
-12.21
-13.50
-14.37
-14.97
-15.40
-15.74
-16.02
-16.21
-16.25
-16.09
-15.66
-14.83
-13.39
-11.04
-7.57
-2.97
2.38
7.72
12.16
14.99
16.08
15.86
15.18
14.86
15.28
16.21
16.99
16.83
15.21
12.04
7.65
2.56
-2.78
-8.06
-13.19
-18.11
-22.76
-26.98
-30.59
-33.48
-35.69
-37.41
-38.79
-39.83
-40.33
-39.96
-38.49
-36.01
-32.92
-29.78
-27.05
-24.81
-22.68
-20.04
-16.35
-11.48
-5.85
-0.33
4.12
6.75
7.36
6.32
4.43
2.63
1.65
1.86
3.19
5.27
7.58
9.61
11.04
11.75
12.02
12.52
14.21
17.99
24.26
32.56
41.55
49.37
54.28
55.35
52.72
47.46
41.12
35.06
30.16
26.66
24.30
22.55
20.78
18.45
15.18
10.92
5.88
0.54
-4.53
-8.84
-12.01
-13.90
-14.56
-14.28
-13.51
-12.80
-12.65
-13.30
-14.61
-16.15
-17.30
-17.58
-16.84
-15.28
-13.35
-11.51
-10.05
-9.02
-8.29
-7.67
-6.99
-6.23
-5.44
-4.78
-4.39
-4.35
-4.65
-5.10
-5.49
-5.62
-5.44
-5.06
-4.74
-4.78
-5.34
-6.37
-7.66
-8.91
-9.90
-10.64
-11.27
-12.05
-13.11
-14.39
-15.55
-16.13
-15.69
-14.07
-11.44
-8.24
-5.03
-2.23
-0.04
1.57
2.73
3.55
4.08
4.34
4.33
4.14
3.89
3.71
3.69
3.84
4.12
4.48
4.82
5.08
5.16
5.01
4.66
4.18
3.73
3.47
3.53
3.94
4.59
5.25
5.63
5.42
4.43
2.61
0.10
-2.81
-5.72
-8.19
-9.79
-10.19
-9.24
-7.03
-3.95
-0.56
2.49
4.73
6.00
6.46
6.55
6.74
7.32
8.31
9.48
10.48
10.99
10.88
10.18
9.08
7.84
6.70
5.84
5.36
5.27
5.46
5.72
5.86
5.69
5.12
4.17
2.91
1.48
-0.03
-1.59
-3.19
-4.89
-6.76
-8.86
-11.20
-13.74
-16.33
-18.76
-20.72
-21.91
-22.08
-21.14
-19.20
-16.53
-13.50
-10.40
-7.40
-4.50
-1.64
1.18
3.83
6.11
7.81
8.85
9.29
9.29
9.04
8.65
8.19
7.65
7.02
6.33
5.63
5.00
4.51
4.18
3.92
3.57
2.85
1.53
-0.55
-3.32
-6.54
-9.89
-13.13
-16.16
-19.05
-21.99
-25.07
-28.32
-31.64
-34.82
-37.60
-39.63
-40.43
-39.49
-36.40
-31.04
-23.72
-15.20
-6.47
1.57
8.32
13.61
17.63
20.73
23.26
25.52
27.84
30.55
33.99
38.26
43.13
48.02
52.16
54.85
55.77
54.99
52.88
49.91
46.40
42.55
38.46
34.27
30.26
26.68
23.71
21.27
19.05
16.68
13.80
10.28
6.17
1.63
-3.10
-7.78
-12.11
-15.72
-18.21
-19.25
-18.72
-16.74
-13.72
-10.18
-6.62
-3.44
-0.87
0.98
2.14
2.70
2.82
2.69
2.50
2.36
2.34
2.45
2.63
2.78
2.78
2.51
1.91
1.01
-0.04
-1.07
-1.94
-2.63
-3.27
-4.03
-5.07
-6.46
-8.15
-9.98
-11.79
-13.43
-14.83
-16.04
-17.20
-18.47
-19.98
-21.64
-23.20
-24.21
-24.31
-23.27
-21.21
-18.47
-15.47
-12.57
-9.96
-7.66
-5.62
-3.83
-2.31
-1.08
-0.12
0.64
1.27
1.80
2.19
2.37
2.25
1.86
1.26
0.57
-0.15
-0.87
-1.60
-2.37
-3.18
-4.05
-4.95
-5.97
-7.20
-8.73
-10.49
-12.20
-13.40
-13.62
-12.53
-10.03
-6.17
-1.08
5.14
12.28
19.95
27.48
34.00
38.74
41.31
41.82
40.72
38.59
35.79
32.44
28.52
24.09
19.38
14.80
10.71
7.32
4.59
2.37
0.51
-1.08
-2.39
-3.35
-3.92
-4.12
-4.04
-3.80
-3.55
-3.42
-3.54
-3.96
-4.66
-5.57
-6.55
-7.46
-8.22
-8.83
-9.38
-9.97
-10.71
-11.60
-12.65
-13.85
-15.23
-16.83
-18.63
-20.45
-21.97
-22.75
-22.46
-20.97
-18.43
-15.25
-11.84
-8.57
-5.61
-3.05
-0.93
0.67
1.67
2.01
1.78
1.14
0.34
-0.46
-1.18
-1.88
-2.68
-3.65
-4.79
-5.98
-7.03
-7.75
-8.04
-7.87
-7.29
-6.36
-5.11
-3.50
-1.51
0.90
3.68
6.72
9.83
12.79
15.35
17.28
18.42
18.71
18.26
17.35
16.35
15.65
15.51
15.98
16.91
17.98
18.87
19.32
19.22
18.63
17.68
16.50
15.20
13.81
12.33
10.81
9.33
8.03
6.99
6.24
5.72
5.31
4.92
4.51
4.14
3.91
3.87
4.01
4.17
4.11
3.69
2.87
1.82
0.81
0.07
-0.37
-0.64
-1.03
-1.82
-3.16
-5.04
-7.28
-9.62
-11.73
-13.30
-14.06
-13.83
-12.60
-10.54
-7.97
-5.29
-2.85
-0.83
0.74
1.98
3.03
3.96
4.69
5.03
4.68
3.39
1.03
-2.30
-6.22
-10.17
-13.53
-15.82
-16.81
-16.56
-15.42
-13.85
-12.33
-11.17
-10.51
-10.31
-10.33
-10.28
-9.82
-8.73
-7.02
-4.92
-2.93
-1.58
-1.27
-2.05
-3.62
-5.42
-6.83
-7.44
-7.10
-5.96
-4.30
-2.47
-0.74
0.72
1.83
2.62
3.17
3.64
4.15
4.74
5.35
5.83
6.01
5.79
5.21
4.40
3.55
2.82
2.32
2.10
2.12
2.29
2.47
2.51
2.31
1.87
1.20
0.39
-0.55
-1.59
-2.76
-4.01
-5.27
-6.47
-7.58
-8.65
-9.78
-10.98
-12.10
-12.82
-12.79
-11.79
-9.83
-7.18
-4.25
-1.46
0.94
2.83
4.23
5.18
5.73
5.91
5.84
5.68
5.64
5.87
6.39
7.14
7.97
8.77
9.49
10.11
10.64
10.99
11.02
10.55
9.49
7.89
5.90
3.76
1.69
-0.15
-1.70
-2.94
-3.90
-4.62
-5.19
-5.74
-6.39
-7.29
-8.46
-9.82
-11.18
-12.28
-12.85
-12.72
-11.79
-10.12
-7.81
-5.06
-2.10
0.83
3.48
5.67
7.25
8.19
8.50
8.27
7.64
6.81
5.99
5.34
4.96
4.85
4.91
5.00
4.97
4.76
4.36
3.79
3.12
2.38
1.56
0.68
-0.28
-1.24
-2.14
-2.94
-3.65
-4.37
-5.28
-6.49
-8.01
-9.74
-11.40
-12.70
-13.34
-13.16
-12.12
-10.30
-7.92
-5.27
-2.61
-0.17
1.91
3.58
4.83
5.68
6.13
6.19
5.92
5.39
4.75
4.11
3.56
3.11
2.70
2.25
1.71
1.07
0.37
-0.38
-1.17
-2.00
-2.88
-3.69
-4.28
-4.44
-4.06
-3.16
-1.89
-0.46
0.94
2.19
3.25
4.13
4.87
5.57
6.37
7.46
8.93
10.70
12.54
14.14
15.23
15.78
15.87
15.71
15.42
14.99
14.27
13.13
11.53
9.57
7.46
5.42
3.60
2.06
0.75
-0.41
-1.47
-2.40
-3.17
-3.75
-4.23
-4.73
-5.42
-6.42
-7.70
-9.12
-10.48
-11.64
-12.60
-13.44
-14.33
-15.39
-16.60
-17.87
-18.98
-19.70
-19.81
-19.17
-17.80
-15.81
-13.39
-10.76
-8.07
-5.42
-2.86
-0.46
1.65
3.32
4.44
4.94
4.91
4.49
3.91
3.32
2.86
2.60
2.56
2.74
3.07
3.45
3.72
3.74
3.43
2.74
1.74
0.50
-0.90
-2.36
-3.81
-5.17
-6.36
-7.35
-8.20
-9.07
-10.11
-11.38
-12.74
-13.88
-14.40
-13.98
-12.50
-10.06
-6.93
-3.44
0.14
3.56
6.61
9.08
10.76
11.52
11.33
10.36
8.89
7.30
5.93
5.07
4.91
5.69
7.58
10.66
14.78
19.43
23.82
27.14
28.78
28.56
26.77
24.00
20.85
17.74
14.78
11.98
9.27
6.70
4.38
2.42
0.80
-0.67
-2.30
-4.35
-6.90
-9.77
-12.52
-14.64
-15.73
-15.67
-14.58
-12.80
-10.67
-8.46
-6.34
-4.36
-2.61
-1.20
-0.31
-0.08
-0.57
-1.65
-3.09
-4.52
-5.65
-6.30
-6.48
-6.34
-6.07
-5.77
-5.42
-4.99
-4.42
-3.79
-3.24
-2.93
-2.96
-3.34
-3.99
-4.83
-5.81
-6.86
-7.96
-9.06
-10.13
-11.19
-12.29
-13.47
-14.69
-15.80
-16.55
-16.72
-16.18
-14.93
-13.06
-10.68
-7.92
-4.93
-1.94
0.75
2.81
4.04
4.44
4.22
3.71
3.22
2.91
2.82
2.94
3.26
3.79
4.54
5.38
6.11
6.47
6.30
5.64
4.67
3.63
2.70
1.89
1.08
0.14
-1.04
-2.47
-4.12
-5.93
-7.84
-9.76
-11.48
-12.75
-13.26
-12.79
-11.29
-8.91
-5.96
-2.78
0.32
3.09
5.40
7.18
8.42
9.10
9.24
8.89
8.13
7.12
6.08
5.27
4.86
4.93
5.38
6.02
6.60
6.87
6.68
5.98
4.83
3.35
1.73
0.15
-1.23
-2.39
-3.39
-4.44
-5.72
-7.39
-9.39
-11.55
-13.51
-14.89
-15.31
-14.54
-12.54
-9.48
-5.77
-1.89
1.68
4.60
6.77
8.24
9.22
9.90
10.44
10.89
11.23
11.45
11.54
11.52
11.43
11.28
11.06
10.72
10.21
9.48
8.55
7.49
6.37
5.27
4.18
3.05
1.83
0.50
-0.90
-2.30
-3.70
-5.15
-6.73
-8.49
-10.34
-12.02
-13.11
-13.20
-12.05
-9.68
-6.38
-2.63
1.07
4.31
6.85
8.60
9.56
9.79
9.37
8.48
7.37
6.35
5.67
5.48
5.71
6.21
6.76
7.19
7.44
7.53
7.48
7.28
6.88
6.21
5.24
4.03
2.74
1.53
0.54
-0.21
-0.85
-1.61
-2.71
-4.30
-6.35
-8.68
-10.97
-12.84
-13.98
-14.14
-13.18
-11.12
-8.10
-4.40
-0.40
3.46
6.83
9.49
11.34
12.41
12.76
12.50
11.81
10.99
10.43
10.60
11.93
14.63
18.64
23.51
28.50
32.74
35.43
36.11
34.78
31.96
28.48
25.26
23.00
21.97
22.00
22.61
23.16
23.07
21.92
19.53
15.96
11.48
6.48
1.36
-3.58
-8.11
-12.09
-15.42
-17.96
-19.64
-20.45
-20.50
-19.99
-19.15
-18.12
-16.92
-15.49
-13.85
-12.16
-10.73
-9.87
-9.72
-10.17
-10.83
-11.21
-10.93
-9.89
-8.32
-6.60
-5.14
-4.15
-3.61
-3.30
-2.97
-2.46
-1.78
-1.07
-0.56
-0.39
-0.64
-1.33
-2.45
-4.00
-5.96
-8.29
-10.85
-13.40
-15.66
-17.33
-18.21
-18.21
-17.38
-15.84
-13.75
-11.30
-8.66
-5.97
-3.37
-0.96
1.20
3.07
4.61
5.79
6.59
7.01
7.12
7.02
6.86
6.75
6.78
6.94
7.21
7.56
7.95
8.40
8.85
9.21
9.34
9.08
8.35
7.19
5.75
4.24
2.82
1.56
0.40
-0.78
-2.09
-3.58
-5.23
-6.90
-8.43
-9.60
-10.16
-9.90
-8.73
-6.70
-4.05
-1.15
1.62
4.00
5.86
7.24
8.23
8.90
9.27
9.34
9.10
8.62
7.96
7.22
6.47
5.76
5.14
4.68
4.40
4.28
4.19
3.92
3.30
2.27
0.96
-0.42
-1.61
-2.52
-3.16
-3.68
-4.21
-4.82
-5.54
-6.37
-7.33
-8.41
-9.59
-10.70
-11.46
-11.58
-10.82
-9.13
-6.73
-4.00
-1.36
0.82
2.39
3.37
3.92
4.24
4.44
4.58
4.62
4.55
4.43
4.35
4.45
4.73
5.15
5.53
5.74
5.69
5.38
4.85
4.13
3.27
2.24
1.06
-0.26
-1.66
-3.01
-4.17
-5.03
-5.56
-5.88
-6.28
-7.04
-8.33
-10.03
-11.72
-12.83
-12.86
-11.63
-9.29
-6.25
-3.02
-0.02
2.47
4.34
5.55
6.15
6.21
5.87
5.32
4.75
4.31
4.05
3.91
3.77
3.55
3.25
2.93
2.70
2.59
2.55
2.44
2.10
1.45
0.50
-0.61
-1.74
-2.79
-3.72
-4.52
-5.21
-5.80
-6.33
-6.90
-7.65
-8.69
-9.98
-11.32
-12.33
-12.62
-11.91
-10.15
-7.57
-4.54
-1.49
1.23
3.44
5.07
6.15
6.73
6.90
6.70
6.23
5.60
4.96
4.44
4.10
3.93
3.82
3.65
3.34
2.89
2.39
1.95
1.65
1.46
1.23
0.75
-0.10
-1.32
-2.73
-4.08
-5.11
-5.74
-6.07
-6.40
-7.04
-8.26
-10.13
-12.49
-14.98
-17.18
-18.66
-19.18
-18.70
-17.39
-15.54
-13.43
-11.24
-8.93
-6.35
-3.31
0.36
4.65
9.37
14.16
18.54
22.04
24.32
25.27
25.02
23.84
22.01
19.69
17.00
14.07
11.20
8.84
7.45
7.34
8.51
10.52
12.66
14.29
15.13
15.30
15.24
15.34
15.75
16.26
16.21
14.95
12.17
8.17
3.71
-0.29
-3.15
-4.57
-4.63
-4.00
-3.37
-2.91
-2.11
0.07
4.54
11.67
21.24
32.42
43.36
52.15
57.70
60.23
60.92
61.01
61.40
62.60
64.78
66.57
66.00
61.53
52.86
40.87
26.98
12.81
-0.10
-10.69
-20.66
-33.29
-52.00
-78.55
-112.74
-152.94
-196.72
-241.33
-273.54
-281.41
-260.56
-218.10
-167.11
-118.30
-76.72
-43.13
-16.37
5.04
20.72
29.93
32.82
31.35
28.38
26.21
25.81
27.10
29.63
31.79
32.08
29.91
26.14
22.30
19.51
18.08
17.63
17.47
16.10
12.33
6.34
0.31
-2.36
1.26
11.96
27.85
44.90
58.32
64.75
63.28
55.72
45.31
35.00
26.31
19.38
13.78
9.15
5.64
3.68
3.48
4.60
6.00
6.58
5.66
3.47
0.91
-0.85
-0.86
1.19
4.92
9.39
13.44
16.09
16.88
16.01
14.27
12.70
12.01
12.29
12.97
13.23
12.45
10.63
8.37
6.00
4.13
3.00
2.42
1.94
1.21
0.14
-1.08
-2.22
-3.27
-4.33
-5.70
-7.56
-9.90
-12.41
-14.64
-16.19
-16.84
-16.68
-16.01
-15.35
-15.21
-15.91
-17.40
-19.33
-21.24
-22.73
-23.63
-23.87
-23.39
-22.04
-19.62
-16.02
-11.52
-6.76
-2.63
0.13
1.19
0.69
-0.93
-3.20
-5.79
-8.52
-11.36
-14.24
-17.11
-19.92
-22.65
-25.36
-28.08
-30.80
-33.46
-36.00
-38.42
-40.82
-43.37
-46.24
-49.61
-53.69
-58.66
-64.58
-71.22
-77.95
-83.91
-88.20
-90.27
-89.93
-87.14
-81.44
-71.69
-56.30
-34.00
-4.57
30.84
70.26
111.79
154.30
197.34
240.29
281.56
318.11
345.97
361.33
361.61
345.92
314.91
270.33
214.86
152.35
87.90
27.46
-23.41
-60.94
-84.17
-94.98
-97.07
-94.47
-90.30
-86.22
-82.73
-79.81
-77.43
-75.79
-75.07
-75.22
-75.91
-76.70
-77.25
-77.49
-77.48
-77.32
-76.93
-76.01
-74.18
-71.13
-66.81
-61.43
-55.48
-49.54
-44.13
-39.64
-36.25
-34.01
-32.83
-32.55
-32.97
-33.84
-34.89
-35.81
-36.30
-35.97
-34.45
-31.43
-26.75
-20.47
-12.92
-4.67
3.60
11.19
17.54
22.33
25.49
27.14
27.55
27.00
25.71
23.85
21.51
18.77
15.84
13.03
10.86
9.90
10.70
13.59
18.60
25.47
33.72
42.79
52.13
61.21
69.46
76.25
80.99
83.24
82.92
80.27
75.86
70.30
64.09
57.57
50.91
44.16
37.34
30.40
23.20
15.58
7.41
-1.26
-10.05
-18.37
-25.58
-31.32
-35.66
-39.11
-42.41
-46.16
-50.55
-55.21
-59.33
-61.94
-62.27
-60.05
-55.60
-49.66
-43.19
-36.99
-31.55
-27.00
-23.22
-20.08
-17.44
-15.23
-13.25
-11.15
-8.49
-5.01
-0.79
3.64
7.43
9.81
10.39
9.29
7.05
4.33
1.54
-1.21
-4.04
-6.97
-9.69
-11.52
-11.68
-9.67
-5.68
-0.71
3.77
6.40
6.42
4.02
0.15
-3.92
-7.12
-8.97
-9.54
-9.16
-8.10
-6.42
-3.93
-0.44
4.15
9.74
16.01
22.47
28.48
33.37
36.64
38.10
38.03
37.07
35.92
35.09
34.61
34.10
32.97
30.68
26.92
21.64
15.07
7.66
0.09
-6.78
-12.13
-15.36
-16.32
-15.26
-12.67
-9.05
-4.81
-0.29
4.17
8.12
11.19
13.09
13.80
13.36
11.72
8.56
3.40
-4.04
-13.23
-22.64
-29.99
-33.07
-30.72
-23.50
-13.48
-3.37
4.70
10.07
13.46
16.26
19.47
23.00
25.75
26.26
23.54
17.44
8.54
-2.32
-14.34
-26.69
-38.33
-47.87
-53.89
-55.61
-53.35
-48.46
-42.75
-37.57
-33.24
-29.15
-24.38
-18.40
-11.53
-4.81
0.53
3.44
3.37
0.21
-5.63
-13.23
-21.14
-27.60
-31.07
-30.81
-27.24
-21.76
-16.09
-11.57
-8.62
-6.83
-5.38
-3.57
-1.08
2.04
5.50
8.94
11.85
13.59
13.49
11.19
6.99
2.04
-2.02
-3.63
-2.00
2.43
8.14
13.09
15.52
14.75
11.51
7.81
6.27
9.12
17.28
29.95
44.89
59.22
70.43
77.04
78.60
75.31
67.58
55.86
40.89
24.01
7.31
-6.86
-16.51
-20.81
-20.29
-16.59
-11.70
-7.14
-3.51
-0.48
2.71
6.62
11.20
15.74
19.22
20.77
19.89
16.50
10.61
2.25
-8.40
-20.71
-33.39
-44.71
-53.08
-57.67
-58.75
-57.48
-55.27
-53.07
-51.02
-48.53
-44.74
-39.08
-31.53
-22.69
-13.46
-4.75
2.72
8.55
12.59
14.85
15.47
14.65
12.73
10.16
7.52
5.35
4.06
3.74
4.16
4.88
5.43
5.53
5.23
4.90
4.97
5.75
7.17
8.79
10.01
10.32
9.63
8.26
6.85
5.96
5.82
6.17
6.32
5.45
3.03
-0.84
-5.25
-8.66
-9.46
-6.61
-0.34
7.69
14.58
17.05
12.36
-0.65
-20.98
-45.39
-68.99
-86.38
-93.15
-87.29
-69.79
-44.39
-16.35
9.17
28.43
39.73
43.22
40.33
33.07
23.54
13.55
4.47
-2.82
-7.88
-10.51
-10.66
-8.47
-4.50
0.13
3.94
5.66
4.86
2.20
-0.91
-3.11
-3.87
-3.65
-3.42
-3.94
-5.23
-6.63
-7.36
-7.03
-5.95
-4.97
-4.96
-6.40
-9.14
-12.51
-15.61
-17.61
-18.02
-16.80
-14.34
-11.26
-8.26
-5.80
-3.93
-2.27
-0.15
3.00
7.32
12.30
16.88
19.88
20.46
18.48
14.47
9.28
3.83
-1.18
-5.20
-7.75
-8.44
-7.21
-4.57
-1.60
0.39
0.46
-1.40
-4.27
-6.71
-7.52
-6.38
-3.93
-1.44
-0.05
-0.23
-1.55
-2.92
-3.14
-1.36
2.56
8.09
14.28
20.15
25.00
28.56
30.91
32.24
32.65
31.99
29.94
26.24
20.90
14.36
7.38
0.86
-4.50
-8.31
-10.60
-11.62
-11.79
-11.55
-11.27
-11.21
-11.40
-11.66
-11.65
-11.10
-10.00
-8.69
-7.78
-7.87
-9.20
-11.53
-14.19
-16.33
-17.21
-16.34
-13.64
-9.36
-4.11
1.22
5.60
8.07
7.99
5.32
0.62
-5.16
-10.89
-15.61
-18.66
-19.65
-18.44
-15.03
-9.55
-2.29
6.30
15.59
24.77
32.95
39.21
42.84
43.48
41.25
36.93
31.91
27.96
26.85
29.70
36.62
46.46
57.17
66.42
72.42
74.50
73.11
69.50
64.96
60.31
55.68
50.70
44.95
38.29
30.95
23.40
16.00
8.77
1.40
-6.56
-15.28
-24.48
-33.40
-41.16
-47.13
-51.19
-53.51
-54.23
-53.03
-49.11
-41.63
-30.30
-15.89
-0.23
14.24
25.25
31.34
32.13
28.14
20.38
9.86
-2.58
-16.23
-30.18
-43.24
-53.97
-61.14
-64.12
-63.07
-58.74
-51.87
-42.72
-30.99
-16.31
0.97
19.23
35.72
47.35
51.71
47.93
36.85
20.62
1.82
-17.10
-34.23
-48.15
-57.86
-62.71
-62.44
-57.25
-47.75
-34.76
-19.39
-3.04
12.49
25.08
32.70
34.09
29.45
20.63
10.69
2.89
-0.50
1.03
6.29
13.04
18.88
22.14
22.11
19.16
14.36
9.16
5.08
3.37
4.73
9.05
15.31
21.76
26.38
27.56
24.69
18.37
10.13
1.75
-5.47
-11.21
-16.03
-20.88
-26.49
-32.90
-39.38
-44.83
-48.23
-49.08
-47.51
-44.33
-40.69
-37.72
-36.22
-36.46
-38.22
-40.95
-44.10
-47.22
-50.02
-52.23
-53.54
-53.67
-52.45
-49.99
-46.56
-42.37
-37.39
-31.24
-23.40
-13.57
-2.00
10.35
22.07
31.72
38.37
41.86
42.84
42.41
41.66
41.21
41.07
40.81
39.95
38.30
36.06
33.69
31.55
29.73
27.99
25.98
23.51
20.67
17.75
15.09
12.82
10.85
8.90
6.73
4.24
1.53
-1.23
-3.87
-6.32
-8.59
-10.63
-12.29
-13.30
-13.37
-12.37
-10.39
-7.77
-5.00
-2.47
-0.47
0.94
1.83
2.32
2.58
2.75
2.97
3.35
3.91
4.59
5.20
5.57
5.57
5.28
4.85
4.50
4.37
4.41
4.44
4.22
3.55
2.39
0.88
-0.74
-2.16
-3.10
-3.32
-2.70
-1.26
0.76
2.94
4.73
5.63
5.38
4.15
2.43
0.92
0.27
0.81
2.53
5.15
8.31
11.69
15.11
18.44
21.48
23.93
25.44
25.76
24.98
23.58
22.33
21.99
22.89
24.74
26.63
27.34
25.89
21.93
16.01
9.23
2.92
-1.95
-5.06
-6.84
-8.31
-10.82
-15.71
-23.92
-35.48
-49.12
-62.15
-71.00
-72.29
-64.09
-46.79
-23.22
2.29
25.23
42.27
51.88
54.19
50.52
42.74
32.96
23.42
16.19
12.79
13.63
17.80
23.23
27.49
28.62
25.74
19.18
10.12
0.05
-9.56
-17.41
-22.40
-23.71
-21.14
-15.37
-8.07
-1.42
2.58
2.77
-0.66
-6.49
-12.88
-18.14
-21.19
-21.78
-20.47
-18.33
-16.62
-16.38
-18.15
-21.73
-26.30
-30.67
-33.63
-34.21
-31.82
-26.29
-17.86
-7.22
4.43
15.50
24.30
29.51
30.52
27.65
21.95
14.83
7.59
1.18
-3.87
-7.42
-9.47
-10.14
-9.58
-8.04
-5.89
-3.61
-1.65
-0.38
0.03
-0.40
-1.61
-3.58
-6.38
-10.15
-14.87
-20.33
-26.01
-31.31
-35.65
-38.64
-40.12
-40.02
-38.30
-34.90
-29.88
-23.46
-16.12
-8.47
-1.17
5.27
10.53
14.47
17.14
18.67
19.31
19.37
19.14
18.82
18.53
18.28
18.08
17.92
17.75
17.48
16.91
15.84
14.14
11.86
9.19
6.42
3.85
1.71
0.19
-0.65
-0.76
-0.22
0.81
2.02
3.02
3.37
2.59
0.29
-3.81
-9.60
-16.45
-23.20
-28.41
-30.84
-29.97
-26.12
-20.36
-13.92
-7.75
-2.20
2.83
7.51
11.85
15.59
18.48
20.48
21.91
23.13
24.40
25.60
26.37
26.37
25.51
24.09
22.56
21.29
20.30
19.23
17.57
14.87
11.04
6.34
1.36
-3.30
-7.14
-9.92
-11.68
-12.65
-13.18
-13.65
-14.41
-15.76
-17.88
-20.72
-23.94
-26.87
-28.70
-28.72
-26.55
-22.32
-16.63
-10.33
-4.22
1.14
5.55
9.05
11.80
13.91
15.39
16.19
16.29
15.78
14.87
13.89
13.23
13.17
13.79
14.92
16.17
17.12
17.49
17.33
16.98
16.84
17.15
17.81
18.40
18.39
17.41
15.40
12.63
9.46
6.18
2.87
-0.55
-4.23
-8.25
-12.56
-16.94
-21.10
-24.65
-27.16
-28.19
-27.37
-24.54
-19.84
-13.74
-6.94
-0.20
5.87
10.92
14.85
17.69
19.48
20.23
19.96
18.76
16.94
14.94
13.29
12.36
12.20
12.58
13.08
13.38
13.38
13.25
13.30
13.73
14.45
15.09
15.14
14.24
12.28
9.50
6.31
3.15
0.32
-2.06
-4.07
-5.88
-7.67
-9.58
-11.69
-13.98
-16.35
-18.63
-20.55
-21.78
-21.95
-20.72
-17.86
-13.32
-7.36
-0.52
6.50
12.97
18.33
22.27
24.78
26.07
26.41
26.10
25.34
24.26
22.97
21.59
20.15
18.63
16.87
14.68
11.95
8.75
5.37
2.17
-0.56
-2.74
-4.51
-6.09
-7.66
-9.25
-10.69
-11.84
-12.60
-13.05
-13.37
-13.80
-14.52
-15.66
-17.30
-19.52
-22.34
-25.73
-29.47
-33.14
-36.09
-37.65
-37.24
-34.60
-29.77
-23.15
-15.37
-7.14
0.86
8.08
14.10
18.69
21.80
23.57
24.27
24.31
24.14
24.09
24.37
24.95
25.59
26.02
26.05
25.74
25.39
25.34
25.75
26.43
26.83
26.30
24.45
21.35
17.56
13.84
10.82
8.69
7.15
5.66
3.69
0.99
-2.29
-5.79
-9.10
-11.99
-14.46
-16.74
-19.15
-21.98
-25.36
-29.16
-33.01
-36.30
-38.29
-38.32
-35.97
-31.29
-24.75
-17.16
-9.43
-2.36
3.59
8.22
11.57
13.82
15.14
15.73
15.81
15.58
15.22
14.91
14.71
14.67
14.80
15.06
15.41
15.79
16.13
16.35
16.42
16.28
15.89
15.20
14.17
12.80
11.09
9.12
6.98
4.79
2.58
0.37
-1.89
-4.26
-6.78
-9.45
-12.16
-14.79
-17.19
-19.35
-21.34
-23.41
-25.76
-28.48
-31.33
-33.81
-35.19
-34.81
-32.30
-27.72
-21.52
-14.42
-7.21
-0.53
5.20
9.78
13.12
15.22
16.13
15.98
15.03
13.68
12.40
11.63
11.63
12.38
13.59
14.81
15.62
15.79
15.34
14.51
13.59
12.76
12.05
11.25
10.08
8.25
5.63
2.32
-1.37
-5.01
-8.20
-10.70
-12.51
-13.86
-15.09
-16.54
-18.44
-20.79
-23.37
-25.77
-27.46
-27.89
-26.64
-23.52
-18.67
-12.56
-5.89
0.61
6.37
11.05
14.55
16.90
18.15
18.38
17.70
16.35
14.66
13.04
11.81
11.15
11.00
11.17
11.44
11.60
11.57
11.35
10.97
10.47
9.85
9.08
8.05
6.63
4.72
2.30
-0.49
-3.38
-6.01
-8.12
-9.58
-10.50
-11.11
-11.74
-12.67
-14.05
-15.89
-17.96
-19.85
-20.94
-20.63
-18.44
-14.31
-8.61
-2.04
4.54
10.43
15.23
18.88
21.51
23.24
24.12
24.07
23.10
21.33
19.10
16.80
14.78
13.15
11.80
10.52
9.12
7.59
6.07
4.79
3.85
3.10
2.19
0.69
-1.73
-5.07
-9.04
-13.10
-16.67
-19.36
-21.06
-21.95
-22.43
-22.98
-23.97
-25.57
-27.75
-30.22
-32.51
-34.04
-34.23
-32.62
-29.02
-23.52
-16.56
-8.82
-1.11
5.78
11.26
15.06
17.19
17.92
17.61
16.68
15.45
14.20
13.15
12.47
12.19
12.23
12.36
12.30
11.85
11.03
10.06
9.22
8.69
8.42
8.13
7.44
6.09
4.05
1.53
-1.12
-3.57
-5.62
-7.26
-8.60
-9.86
-11.28
-13.11
-15.49
-18.36
-21.45
-24.18
-25.85
-25.79
-23.62
-19.42
-13.69
-7.19
-0.70
5.20
10.16
14.03
16.70
18.11
18.19
17.11
15.23
13.10
11.26
9.98
9.24
8.78
8.26
7.49
6.46
5.24
3.89
2.36
0.50
-1.80
-4.60
-7.85
-11.53
-15.59
-19.98
-24.58
-29.10
-33.15
-36.42
-38.86
-40.85
-43.10
-46.38
-51.07
-56.84
-62.58
-66.73
-67.82
-65.01
-58.40
-48.93
-37.98
-26.91
-16.79
-8.20
-1.16
4.89
10.99
18.35
27.75
39.00
50.80
61.06
67.78
69.98
68.04
63.48
58.12
53.33
49.65
46.99
45.06
43.73
43.01
42.81
42.70
42.05
40.28
37.25
33.43
29.69
26.94
25.66
25.66
26.16
26.10
24.54
20.98
15.49
8.68
1.57
-4.71
-9.05
-10.67
-9.29
-5.25
0.54
6.81
12.29
16.00
17.47
16.73
14.15
10.28
5.68
0.85
-3.79
-7.88
-11.17
-13.51
-14.88
-15.33
-14.96
-13.93
-12.34
-10.32
-8.02
-5.69
-3.63
-2.24
-1.89
-2.84
-5.11
-8.51
-12.62
-17.02
-21.34
-25.38
-29.07
-32.44
-35.47
-38.15
-40.35
-41.94
-42.76
-42.62
-41.30
-38.60
-34.47
-29.10
-22.96
-16.75
-11.12
-6.56
-3.18
-0.83
0.77
1.81
2.27
2.02
0.97
-0.71
-2.60
-4.14
-4.86
-4.63
-3.62
-2.31
-1.20
-0.64
-0.65
-1.01
-1.33
-1.29
-0.80
-0.02
0.65
0.75
-0.13
-2.14
-5.18
-8.85
-12.60
-15.81
-17.96
-18.81
-18.44
-17.24
-15.77
-14.47
-13.46
-12.49
-11.04
-8.63
-5.03
-0.39
4.85
10.16
15.09
19.34
22.69
24.95
25.93
25.55
23.98
21.63
19.13
17.07
15.84
15.48
15.70
16.03
15.97
15.16
13.45
10.89
7.67
4.05
0.33
-3.24
-6.46
-9.17
-11.24
-12.58
-13.12
-12.87
-11.96
-10.67
-9.36
-8.38
-7.94
-8.08
-8.65
-9.44
-10.24
-10.92
-11.35
-11.38
-10.79
-9.36
-7.00
-3.83
-0.16
3.55
6.90
9.67
11.82
13.49
14.90
16.17
17.32
18.17
18.45
17.86
16.28
13.85
10.95
8.13
5.88
4.54
4.14
4.56
5.58
6.98
8.50
9.82
10.51
10.08
8.21
4.90
0.51
-4.29
-8.76
-12.34
-14.77
-16.05
-16.35
-15.88
-14.89
-13.68
-12.60
-11.99
-12.05
-12.73
-13.66
-14.29
-14.07
-12.69
-10.17
-6.84
-3.20
0.25
3.15
5.35
6.83
7.70
8.17
8.52
8.99
9.69
10.53
11.20
11.32
10.60
9.01
6.88
4.65
2.80
1.59
1.08
1.25
2.06
3.52
5.53
7.75
9.57
10.25
9.22
6.37
2.20
-2.36
-6.34
-9.12
-10.69
-11.50
-12.26
-13.53
-15.53
-18.16
-21.16
-24.24
-27.14
-29.50
-30.83
-30.48
-27.93
-22.96
-15.90
-7.55
1.03
8.88
15.36
20.22
23.51
25.47
26.36
26.44
25.94
25.17
24.52
24.40
25.11
26.60
28.40
29.64
29.34
26.84
22.10
15.71
8.72
2.20
-3.15
-7.08
-9.67
-11.16
-11.73
-11.51
-10.63
-9.36
-8.02
-6.93
-6.25
-6.00
-6.14
-6.79
-8.24
-10.90
-15.14
-20.93
-27.74
-34.49
-39.84
-42.52
-41.67
-37.13
-29.39
-19.45
-8.56
2.11
11.64
19.48
25.36
29.26
31.32
31.72
30.73
28.67
25.89
22.81
19.86
17.42
15.87
15.37
15.89
17.13
18.61
19.80
20.35
20.13
19.24
17.81
15.95
13.62
10.77
7.41
3.74
0.08
-3.32
-6.31
-8.95
-11.41
-13.84
-16.30
-18.80
-21.32
-23.89
-26.55
-29.24
-31.73
-33.57
-34.28
-33.44
-30.91
-26.83
-21.56
-15.59
-9.41
-3.43
1.98
6.52
9.96
12.17
13.17
13.16
12.46
11.43
10.41
9.67
9.35
9.47
9.94
10.61
11.35
12.05
12.64
13.07
13.20
12.89
12.00
10.48
8.42
6.07
3.69
1.50
-0.50
-2.39
-4.37
-6.58
-9.14
-12.04
-15.22
-18.45
-21.38
-23.54
-24.46
-23.79
-21.47
-17.73
-13.05
-8.04
-3.24
0.90
4.14
6.34
7.50
7.69
7.10
5.97
4.62
3.37
2.50
2.20
2.50
3.29
4.30
5.23
5.81
5.90
5.50
4.73
3.73
2.61
1.41
0.12
-1.36
-3.08
-5.12
-7.44
-9.99
-12.64
-15.27
-17.76
-20.02
-21.94
-23.35
-23.97
-23.46
-21.54
-18.11
-13.35
-7.72
-1.82
3.76
8.58
12.40
15.14
16.82
17.48
17.15
15.88
13.79
11.16
8.35
5.78
3.79
2.57
2.14
2.42
3.17
4.17
5.13
5.83
6.08
5.83
5.14
4.18
3.11
1.98
0.70
-0.95
-3.20
-6.16
-9.75
-13.68
-17.53
-20.77
-22.85
-23.30
-21.77
-18.20
-12.88
-6.45
0.24
6.36
11.29
14.80
16.97
18.07
18.36
18.01
17.09
15.68
13.93
12.11
10.55
9.56
9.33
9.85
10.96
12.39
13.79
14.88
15.44
15.46
15.01
14.29
13.49
12.71
12.00
11.33
10.69
10.07
9.44
8.70
7.59
5.81
3.09
-0.58
-4.93
-9.30
-12.93
-15.05
-15.22
-13.33
-9.66
-4.76
0.71
6.06
10.64
13.87
15.40
15.10
13.20
10.16
6.61
3.16
0.25
-1.88
-3.13
-3.52
-3.13
-2.16
-0.95
0.13
0.70
0.62
-0.03
-0.99
-2.05
-3.12
-4.27
-5.60
-7.05
-8.36
-9.15
-9.17
-8.48
-7.49
-6.85
-7.12
-8.51
-10.77
-13.32
-15.42
-16.45
-16.05
-14.12
-10.86
-6.59
-1.75
3.21
7.87
11.85
14.84
16.59
17.00
16.16
14.37
12.09
9.88
8.12
6.98
6.32
5.87
5.40
4.90
4.60
4.75
5.43
6.35
7.00
6.81
5.54
3.34
0.69
-1.87
-4.04
-5.90
-7.77
-10.06
-13.00
-16.56
-20.49
-24.39
-27.83
-30.35
-31.52
-30.92
-28.34
-23.78
-17.60
-10.43
-3.02
3.94
9.99
14.92
18.73
21.44
23.03
23.35
22.29
19.88
16.44
12.60
9.14
6.77
5.92
6.58
8.41
10.86
13.45
15.80
17.65
18.74
18.76
17.39
14.48
10.16
4.95
-0.42
-5.21
-8.98
-11.69
-13.67
-15.48
-17.58
-20.16
-23.06
-25.76
-27.57
-27.81
-26.07
-22.29
-16.80
-10.30
-3.58
2.57
7.60
11.21
13.38
14.27
14.13
13.26
11.91
10.31
8.65
7.11
5.88
5.11
4.89
5.17
5.81
6.60
7.30
7.77
7.93
7.72
7.10
5.97
4.27
2.02
-0.58
-3.18
-5.37
-6.83
-7.49
-7.62
-7.75
-8.53
-10.49
-13.89
-18.56
-23.87
-28.87
-32.53
-33.94
-32.68
-28.86
-23.15
-16.48
-9.78
-3.71
1.52
6.10
10.38
14.64
18.93
22.92
26.13
28.08
28.55
27.63
25.74
23.41
21.10
19.10
17.45
16.06
14.76
13.45
12.12
10.83
9.69
8.77
8.03
7.30
6.34
4.95
3.11
0.96
-1.29
-3.51
-5.82
-8.48
-11.76
-15.65
-19.88
-23.93
-27.35
-29.96
-31.81
-33.09
-33.79
-33.62
-32.03
-28.47
-22.66
-14.76
-5.39
4.58
14.17
22.60
29.28
33.87
36.20
36.27
34.28
30.62
25.92
20.91
16.30
12.56
9.86
8.07
6.87
5.92
5.03
4.19
3.47
3.01
2.89
3.15
3.77
4.75
6.06
7.57
9.02
9.97
9.94
8.51
5.57
1.38
-3.53
-8.51
-13.09
-17.05
-20.45
-23.38
-25.74
-27.20
-27.29
-25.64
-22.19
-17.35
-11.80
-6.36
-1.66
2.00
4.63
6.47
7.73
8.52
8.79
8.45
7.45
5.93
4.21
2.72
1.88
1.92
2.87
4.44
6.26
7.90
9.07
9.59
9.41
8.63
7.45
6.29
5.68
6.18
8.14
11.43
15.43
19.11
21.38
21.44
19.00
14.30
7.87
0.35
-7.69
-15.66
-22.83
-28.24
-30.80
-29.63
-24.43
-15.71
-4.83
6.43
16.32
23.65
27.98
29.53
28.89
26.59
23.01
18.31
12.68
6.55
0.56
-4.53
-8.14
-10.06
-10.55
-10.23
-9.81
-9.82
-10.44
-11.49
-12.58
-13.36
-13.69
-13.71
-13.77
-14.23
-15.28
-16.81
-18.56
-20.23
-21.71
-23.13
-24.75
-26.77
-29.10
-31.34
-32.84
-32.97
-31.33
-27.90
-23.02
-17.26
-11.27
-5.59
-0.62
3.39
6.19
7.62
7.59
6.20
3.81
1.02
-1.44
-2.94
-3.18
-2.27
-0.62
1.21
2.80
4.00
4.94
5.90
7.08
8.41
9.55
10.03
9.46
7.74
5.18
2.28
-0.47
-2.81
-4.79
-6.69
-8.77
-11.09
-13.43
-15.31
-16.25
-15.88
-14.03
-10.76
-6.30
-0.99
4.78
10.58
15.99
20.62
24.12
26.17
26.60
25.43
22.97
19.73
16.35
13.39
11.10
9.42
8.06
6.71
5.28
3.94
2.93
2.43
2.35
2.37
2.09
1.27
-0.09
-1.74
-3.38
-4.80
-6.01
-7.17
-8.47
-10.04
-11.93
-14.03
-16.23
-18.29
-19.91
-20.66
-20.14
-18.01
-14.22
-9.06
-3.14
2.73
7.82
11.63
13.99
15.06
15.23
14.92
14.49
14.17
14.08
14.23
14.60
15.05
15.40
15.37
14.71
13.28
11.15
8.60
5.99
3.63
1.64
-0.06
-1.62
-3.17
-4.73
-6.21
-7.55
-8.83
-10.22
-11.97
-14.18
-16.74
-19.26
-21.18
-21.98
-21.27
-18.94
-15.16
-10.31
-4.93
0.44
5.31
9.33
12.30
14.16
14.98
14.88
14.03
12.63
10.91
9.11
7.45
6.06
5.00
4.24
3.67
3.20
2.75
2.29
1.83
1.38
0.96
0.50
-0.09
-0.96
-2.21
-3.85
-5.77
-7.77
-9.70
-11.51
-13.32
-15.28
-17.42
-19.46
-20.85
-20.89
-19.09
-15.35
-10.10
-4.12
1.73
6.81
10.79
13.62
15.38
16.12
15.86
14.66
12.69
10.30
7.92
6.00
4.80
4.37
4.53
4.96
5.32
5.40
5.14
4.61
3.93
3.16
2.32
1.35
0.21
-1.09
-2.54
-4.17
-6.07
-8.36
-11.06
-13.97
-16.63
-18.40
-18.66
-17.04
-13.55
-8.59
-2.82
2.97
8.12
12.21
15.02
16.57
17.01
16.51
15.24
13.40
11.20
8.94
6.95
5.47
4.59
4.20
4.04
3.82
3.34
2.56
1.57
0.46
-0.68
-1.88
-3.19
-4.69
-6.46
-8.53
-10.94
-13.70
-16.72
-19.73
-22.29
-23.89
-24.01
-22.36
-18.92
-13.99
-8.11
-1.94
3.88
8.76
12.28
14.20
14.56
13.61
11.78
9.58
7.42
5.54
4.00
2.74
1.65
0.61
-0.45
-1.59
-2.85
-4.21
-5.61
-6.88
-7.90
-8.62
-9.19
-9.96
-11.28
-13.39
-16.16
-19.12
-21.52
-22.59
-21.78
-18.88
-14.10
-7.94
-1.09
5.81
12.17
17.58
21.81
24.76
26.47
27.03
26.58
25.25
23.18
20.59
17.83
15.36
13.71
13.25
14.08
15.85
17.91
19.46
19.85
18.80
16.52
13.56
10.66
8.47
7.34
7.18
7.51
7.63
6.87
4.84
1.53
-2.66
-7.06
-10.95
-13.61
-14.48
-13.21
-9.70
-4.21
2.70
10.20
17.47
23.83
28.91
32.62
35.00
36.14
36.10
34.97
32.98
30.47
27.86
25.51
23.65
22.30
21.29
20.37
19.26
17.74
15.69
13.14
10.20
7.01
3.68
0.27
-3.20
-6.67
-10.06
-13.22
-16.12
-18.81
-21.47
-24.34
-27.54
-30.98
-34.39
-37.33
-39.35
-40.04
-39.15
-36.60
-32.52
-27.22
-21.20
-15.03
-9.27
-4.36
-0.53
2.14
3.69
4.23
3.93
2.99
1.74
0.54
-0.24
-0.32
0.39
1.75
3.43
5.01
6.09
6.49
6.18
5.35
4.23
3.01
1.79
0.53
-0.83
-2.33
-3.92
-5.53
-7.06
-8.47
-9.79
-11.08
-12.42
-13.87
-15.45
-17.17
-19.04
-21.05
-23.07
-24.84
-25.92
-25.79
-24.00
-20.36
-15.08
-8.71
-2.04
4.10
9.09
12.63
14.70
15.52
15.39
14.61
13.44
12.14
10.99
10.26
10.19
10.82
12.01
13.44
14.77
15.72
16.22
16.35
16.27
16.06
15.71
15.17
14.35
13.25
11.88
10.30
8.53
6.59
4.52
2.37
0.25
-1.77
-3.68
-5.58
-7.63
-10.01
-12.81
-15.94
-19.05
-21.60
-22.99
-22.74
-20.65
-16.90
-11.97
-6.54
-1.26
3.33
6.87
9.18
10.22
10.09
9.03
7.37
5.52
3.84
2.61
1.97
1.88
2.21
2.71
3.14
3.29
3.01
2.30
1.26
0.03
-1.22
-2.40
-3.54
-4.72
-6.03
-7.47
-8.99
-10.46
-11.78
-12.93
-13.99
-15.13
-16.48
-18.11
-19.93
-21.67
-22.90
-23.15
-22.01
-19.27
-15.04
-9.74
-4.02
1.47
6.18
9.79
12.25
13.63
14.12
13.92
13.26
12.36
11.43
10.63
10.05
9.70
9.52
9.47
9.50
9.57
9.66
9.72
9.65
9.34
8.70
7.67
6.25
4.51
2.59
0.64
-1.18
-2.78
-4.17
-5.47
-6.85
-8.52
-10.59
-12.98
-15.46
-17.59
-18.88
-18.88
-17.37
-14.38
-10.26
-5.55
-0.79
3.55
7.18
9.96
11.83
12.79
12.88
12.20
10.95
9.41
7.89
6.63
5.78
5.37
5.36
5.63
6.11
6.66
7.17
7.52
7.56
7.21
6.41
5.17
3.56
1.73
-0.18
-2.00
-3.64
-5.10
-6.44
-7.83
-9.46
-11.46
-13.86
-16.48
-18.93
-20.68
-21.17
-20.03
-17.18
-12.90
-7.73
-2.29
2.83
7.26
10.77
13.30
14.81
15.29
14.80
13.48
11.63
9.56
7.62
6.02
4.83
3.99
3.32
2.67
2.01
1.38
0.93
0.71
0.63
0.45
-0.09
-1.16
-2.68
-4.42
-6.06
-7.39
-8.38
-9.16
-9.95
-10.99
-12.43
-14.30
-16.51
-18.78
-20.67
-21.66
-21.27
-19.28
-15.76
-11.11
-5.90
-0.76
3.79
7.38
9.87
11.25
11.66
11.28
10.36
9.09
7.65
6.16
4.75
3.53
2.60
2.02
1.78
1.79
1.93
2.04
2.03
1.83
1.39
0.68
-0.31
-1.54
-2.92
-4.27
-5.50
-6.59
-7.67
-8.99
-10.75
-12.98
-15.45
-17.68
-19.05
-19.05
-17.39
-14.11
-9.60
-4.40
0.87
5.71
9.80
13.03
15.40
16.98
17.79
17.86
17.22
15.94
14.24
12.40
10.70
9.39
8.56
8.19
8.09
8.07
7.95
7.62
7.05
6.26
5.30
4.21
3.01
1.70
0.30
-1.22
-2.86
-4.66
-6.64
-8.82
-11.16
-13.45
-15.37
-16.40
-16.09
-14.12
-10.51
-5.62
-0.10
5.29
9.98
13.57
15.99
17.29
17.62
17.11
15.93
14.24
12.29
10.37
8.68
7.39
6.53
6.06
5.90
5.94
6.07
6.17
6.11
5.79
5.14
4.17
2.91
1.42
-0.33
-2.42
-4.99
-8.13
-11.82
-15.86
-19.88
-23.41
-25.94
-27.06
-26.53
-24.38
-20.91
-16.62
-12.04
-7.61
-3.57
-0.02
3.01
5.44
7.13
7.94
7.87
7.12
6.06
5.08
4.48
4.33
4.54
4.93
5.33
5.65
5.85
5.91
5.77
5.35
4.55
3.32
1.66
-0.33
-2.52
-4.77
-7.01
-9.23
-11.42
-13.52
-15.33
-16.50
-16.59
-15.11
-11.78
-6.55
0.28
8.09
16.04
23.24
28.91
32.50
33.79
32.82
29.91
25.54
20.33
14.96
10.10
6.22
3.60
2.16
1.59
1.39
1.09
0.33
-1.00
-2.78
-4.77
-6.71
-8.43
-9.90
-11.19
-12.36
-13.47
-14.56
-15.70
-17.03
-18.64
-20.50
-22.31
-23.55
-23.61
-22.05
-18.74
-13.98
-8.39
-2.72
2.40
6.56
9.63
11.65
12.83
13.34
13.32
12.84
11.93
10.67
9.23
7.87
6.83
6.24
6.03
6.00
5.88
5.48
4.76
3.79
2.70
1.59
0.46
-0.71
-1.97
-3.35
-4.86
-6.55
-8.48
-10.73
-13.23
-15.74
-17.78
-18.80
-18.31
-16.12
-12.36
-7.53
-2.22
2.98
7.65
11.51
14.38
16.12
16.66
16.10
14.72
12.94
11.20
9.78
8.74
7.97
7.33
6.74
6.24
5.91
5.74
5.61
5.33
4.78
3.93
2.85
1.64
0.29
-1.30
-3.24
-5.58
-8.19
-10.78
-13.00
-14.52
-15.04
-14.38
-12.42
-9.15
-4.74
0.41
5.72
10.52
14.29
16.75
17.90
18.01
17.43
16.52
15.52
14.61
13.86
13.27
12.80
12.42
12.05
11.68
11.28
10.80
10.17
9.26
8.00
6.37
4.46
2.47
0.57
-1.11
-2.55
-3.84
-5.11
-6.53
-8.23
-10.29
-12.70
-15.25
-17.58
-19.20
-19.65
-18.66
-16.23
-12.59
-8.14
-3.30
1.50
5.90
9.55
12.14
13.46
13.49
12.47
10.82
9.02
7.49
6.46
5.93
5.74
5.71
5.65
5.51
5.28
5.02
4.74
4.40
3.93
3.23
2.25
1.00
-0.45
-2.00
-3.55
-5.06
-6.51
-7.93
-9.36
-10.81
-12.29
-13.74
-15.13
-16.44
-17.72
-19.04
-20.40
-21.62
-22.34
-22.13
-20.61
-17.68
-13.57
-8.79
-3.94
0.45
4.10
6.89
8.89
10.18
10.89
11.16
11.20
11.32
11.81
12.86
14.50
16.59
18.86
20.96
22.55
23.36
23.23
22.10
20.13
17.58
14.80
12.15
9.88
8.08
6.68
5.52
4.35
2.95
1.13
-1.22
-4.19
-7.70
-11.62
-15.69
-19.53
-22.76
-25.00
-26.03
-25.75
-24.27
-21.73
-18.32
-14.15
-9.34
-4.09
1.25
6.13
9.93
12.13
12.46
10.99
8.11
4.46
0.75
-2.33
-4.29
-4.90
-4.28
-2.84
-1.19
0.15
0.84
0.87
0.43
-0.20
-0.88
-1.58
-2.38
-3.35
-4.45
-5.57
-6.58
-7.39
-8.03
-8.61
-9.26
-10.15
-11.35
-12.80
-14.25
-15.29
-15.43
-14.27
-11.66
-7.77
-3.06
1.84
6.35
10.05
12.76
14.46
15.21
15.11
14.28
12.88
11.09
9.25
7.67
6.67
6.37
6.72
7.43
8.15
8.58
8.63
8.40
8.11
7.93
7.88
7.86
7.66
7.18
6.45
5.62
4.89
4.39
4.08
3.75
3.15
2.08
0.54
-1.27
-2.96
-4.05
-4.12
-2.84
-0.13
3.88
8.79
14.06
19.07
23.31
26.45
28.40
29.32
29.44
29.01
28.20
27.08
25.71
24.15
22.53
20.98
19.58
18.34
17.21
16.13
15.04
13.90
12.65
11.17
9.31
6.88
3.81
0.16
-3.84
-7.86
-11.55
-14.73
-17.38
-19.65
-21.76
-23.93
-26.24
-28.57
-30.62
-31.95
-32.14
-30.88
-28.11
-24.06
-19.23
-14.20
-9.54
-5.63
-2.60
-0.42
1.02
1.83
2.04
1.72
0.94
-0.09
-1.14
-1.96
-2.40
-2.44
-2.23
-1.95
-1.82
-1.95
-2.42
-3.20
-4.25
-5.49
-6.82
-8.15
-9.38
-10.42
-11.23
-11.82
-12.26
-12.75
-13.50
-14.77
-16.70
-19.28
-22.20
-24.95
-26.87
-27.37
-26.10
-23.05
-18.56
-13.20
-7.62
-2.38
2.08
5.50
7.83
9.11
9.51
9.23
8.48
7.43
6.22
4.98
3.84
2.94
2.35
2.08
2.03
2.04
1.94
1.61
0.98
0.02
-1.27
-2.84
-4.64
-6.51
-8.29
-9.85
-11.13
-12.24
-13.40
-14.87
-16.80
-19.09
-21.43
-23.29
-24.07
-23.34
-20.94
-17.03
-12.10
-6.78
-1.72
2.57
5.78
7.85
8.87
9.09
8.76
8.07
7.17
6.16
5.14
4.24
3.58
3.23
3.13
3.12
3.04
2.75
2.23
1.56
0.84
0.09
-0.70
-1.61
-2.71
-4.04
-5.59
-7.33
-9.21
-11.19
-13.26
-15.37
-17.46
-19.39
-20.89
-21.59
-21.10
-19.10
-15.50
-10.55
-4.78
1.10
6.46
10.83
14.00
15.95
16.80
16.71
15.89
14.55
12.96
11.43
10.20
9.41
9.07
9.09
9.31
9.52
9.54
9.19
8.36
6.97
5.02
2.62
-0.06
-2.77
-5.28
-7.44
-9.24
-10.82
-12.42
-14.32
-16.69
-19.48
-22.40
-24.95
-26.56
-26.74
-25.22
-22.07
-17.63
-12.52
-7.43
-2.98
0.45
2.71
3.90
4.24
3.96
3.26
2.38
1.58
1.20
1.57
2.83
4.90
7.46
10.12
12.54
14.56
16.15
17.34
18.12
18.43
18.14
17.17
15.52
13.31
10.78
8.25
5.98
4.11
2.56
1.03
-0.88
-3.42
-6.54
-9.83
-12.58
-14.11
-13.94
-11.97
-8.46
-3.92
1.10
6.07
10.56
14.25
16.97
18.65
19.31
19.07
18.10
16.59
14.77
12.86
11.02
9.37
7.95
6.76
5.78
4.95
4.17
3.30
2.13
0.51
-1.59
-4.07
-6.69
-9.23
-11.57
-13.74
-15.90
-18.18
-20.60
-23.07
-25.40
-27.40
-28.88
-29.64
-29.45
-28.07
-25.34
-21.29
-16.15
-10.34
-4.37
1.24
6.12
10.02
12.87
14.72
15.80
16.33
16.55
16.57
16.31
15.63
14.40
12.65
10.60
8.62
7.06
6.10
5.67
5.50
5.22
4.50
3.13
1.09
-1.47
-4.17
-6.50
-7.92
-8.04
-6.82
-4.60
-2.10
-0.17
0.51
-0.24
-2.07
-4.13
-5.40
-5.07
-2.74
1.44
6.89
12.80
18.41
23.16
26.74
29.03
30.03
29.80
28.46
26.29
23.63
20.91
18.46
16.49
15.01
13.91
13.06
12.29
11.51
10.60
9.44
7.95
6.08
3.86
1.35
-1.35
-4.12
-6.88
-9.53
-12.05
-14.45
-16.81
-19.24
-21.84
-24.56
-27.22
-29.42
-30.69
-30.52
-28.61
-24.90
-19.67
-13.47
-6.98
-0.86
4.45
8.72
11.88
13.97
15.03
15.11
14.34
12.95
11.30
9.76
8.61
7.97
7.75
7.79
7.88
7.87
7.70
7.32
6.73
5.86
4.67
3.12
1.23
-0.94
-3.26
-5.56
-7.66
-9.46
-10.97
-12.35
-13.83
-15.61
-17.77
-20.09
-22.12
-23.27
-23.01
-21.09
-17.59
-12.91
-7.59
-2.16
2.96
7.46
11.12
13.80
15.45
16.17
16.20
15.81
15.22
14.48
13.55
12.41
11.12
9.89
8.94
8.36
8.07
7.83
7.38
6.58
5.39
3.92
2.23
0.35
-1.70
-3.88
-6.04
-7.98
-9.58
-10.88
-12.14
-13.74
-15.94
-18.73
-21.70
-24.15
-25.28
-24.53
-21.69
-17.02
-11.11
-4.70
1.54
7.10
11.65
15.02
17.15
18.07
17.91
16.88
15.29
13.48
11.76
10.35
9.35
8.74
8.38
8.11
7.76
7.28
6.63
5.85
4.87
3.54
1.65
-0.90
-4.05
-7.52
-10.90
-13.82
-16.08
-17.75
-19.08
-20.43
-22.10
-24.25
-26.78
-29.27
-31.10
-31.56
-30.06
-26.35
-20.58
-13.28
-5.21
2.82
10.08
16.03
20.29
22.73
23.44
22.72
21.03
18.85
16.56
14.43
12.65
11.38
10.77
10.92
11.69
12.74
13.61
13.86
13.38
12.32
11.07
9.97
9.13
8.37
7.35
5.77
3.58
0.98
-1.71
-4.21
-6.47
-8.66
-11.01
-13.64
-16.34
-18.55
-19.54
-18.62
-15.53
-10.53
-4.33
2.15
8.11
13.08
16.89
19.56
21.18
21.82
21.62
20.77
19.59
18.39
17.35
16.53
15.80
15.00
14.04
12.92
11.75
10.72
9.95
9.48
9.22
8.97
8.45
7.41
5.72
3.42
0.66
-2.26
-5.12
-7.74
-10.10
-12.29
-14.52
-17.01
-19.87
-23.05
-26.22
-28.87
-30.40
-30.31
-28.34
-24.58
-19.36
-13.25
-6.82
-0.62
4.89
9.38
12.67
14.70
15.58
15.56
14.96
14.13
13.35
12.77
12.43
12.28
12.27
12.38
12.58
12.87
13.18
13.41
13.44
13.19
12.63
11.79
10.73
9.51
8.12
6.54
4.76
2.80
0.73
-1.34
-3.34
-5.33
-7.42
-9.77
-12.47
-15.50
-18.67
-21.71
-24.30
-26.14
-26.97
-26.58
-24.88
-21.94
-17.99
-13.39
-8.57
-3.91
0.25
3.69
6.26
7.89
8.66
8.74
8.44
8.06
7.90
8.07
8.58
9.36
10.31
11.40
12.61
13.93
15.32
16.65
17.78
18.55
18.83
18.54
17.70
16.34
14.57
12.54
10.43
8.47
6.85
5.70
5.01
4.75
4.79
5.04
5.36
5.57
5.45
4.80
3.53
1.80
0.09
-0.97
-0.75
1.11
4.57
9.15
14.17
18.90
22.77
25.47
26.86
26.96
25.86
23.68
20.71
17.35
14.16
11.68
10.27
9.99
10.59
11.55
12.33
12.48
11.75
10.15
7.82
5.01
1.98
-1.09
-4.06
-6.89
-9.57
-12.13
-14.57
-16.89
-19.03
-20.92
-22.50
-23.71
-24.51
-24.89
-24.86
-24.51
-23.92
-23.14
-22.09
-20.58
-18.28
-14.92
-10.42
-4.93
1.07
6.95
12.05
15.81
17.87
18.14
16.72
13.90
10.08
5.70
1.15
-3.28
-7.39
-11.10
-14.37
-17.26
-19.84
-22.16
-24.28
-26.19
-27.84
-29.21
-30.38
-31.48
-32.72
-34.23
-35.98
-37.82
-39.43
-40.55
-41.05
-40.99
-40.55
-39.99
-39.44
-38.86
-38.02
-36.55
-34.08
-30.36
-25.37
-19.30
-12.55
-5.57
1.20
7.43
12.97
17.80
22.00
25.69
28.92
31.71
34.05
35.96
37.52
38.87
40.11
41.30
42.34
43.07
43.24
42.56
40.78
37.69
33.14
27.16
20.00
12.20
4.47
-2.44
-8.01
-12.08
-14.92
-17.08
-19.22
-21.77
-24.76
-27.74
-29.90
-30.36
-28.50
-24.20
-17.87
-10.38
-2.70
4.41
10.50
15.52
19.53
22.53
24.35
24.72
23.51
20.87
17.31
13.49
10.00
7.12
4.82
2.86
1.01
-0.80
-2.43
-3.73
-4.69
-5.48
-6.43
-7.85
-9.84
-12.25
-14.75
-16.95
-18.60
-19.64
-20.22
-20.52
-20.64
-20.46
-19.69
-17.97
-15.04
-10.91
-5.90
-0.52
4.67
9.26
13.10
16.27
18.89
21.06
22.69
23.59
23.53
22.40
20.27
17.39
14.17
11.07
8.49
6.67
5.63
5.20
5.08
4.94
4.48
3.51
1.96
-0.19
-2.90
-6.01
-9.29
-12.47
-15.35
-17.80
-19.85
-21.53
-22.84
-23.65
-23.75
-22.92
-21.10
-18.38
-15.03
-11.38
-7.75
-4.41
-1.58
0.50
1.62
1.63
0.59
-1.22
-3.34
-5.31
-6.83
-7.91
-8.88
-10.11
-11.91
-14.28
-16.90
-19.30
-21.02
-21.78
-21.57
-20.58
-19.18
-17.86
-17.15
-17.54
-19.23
-21.91
-24.67
-26.20
-25.22
-21.04
-14.01
-5.35
3.36
10.84
16.69
21.36
25.72
30.39
35.37
40.01
43.40
44.89
44.41
42.41
39.61
36.66
34.07
32.21
31.36
31.75
33.41
36.01
38.89
41.28
42.63
42.82
42.19
41.24
40.32
39.45
38.29
36.47
33.78
30.23
26.00
21.21
15.85
9.85
3.36
-3.14
-8.81
-12.78
-14.48
-13.87
-11.51
-8.27
-5.04
-2.43
-0.76
-0.13
-0.62
-2.33
-5.32
-9.47
-14.34
-19.24
-23.50
-26.62
-28.46
-29.19
-29.10
-28.48
-27.50
-26.30
-25.00
-23.77
-22.80
-22.20
-22.03
-22.31
-23.04
-24.26
-25.96
-28.04
-30.28
-32.32
-33.75
-34.18
-33.29
-30.92
-27.09
-22.04
-16.19
-10.13
-4.38
0.65
4.79
8.04
10.50
12.24
13.33
13.83
13.88
13.71
13.59
13.73
14.17
14.73
15.07
14.83
13.73
11.69
8.90
5.68
2.43
-0.60
-3.34
-5.97
-8.74
-11.89
-15.48
-19.40
-23.37
-27.01
-29.89
-31.52
-31.46
-29.44
-25.51
-20.14
-14.09
-8.17
-2.91
1.53
5.31
8.64
11.55
13.84
15.19
15.38
14.40
12.51
10.03
7.24
4.26
1.10
-2.22
-5.43
-7.85
-8.53
-6.44
-0.99
7.62
18.24
29.06
38.16
44.17
46.56
45.68
42.34
37.45
31.70
25.55
19.29
13.16
7.32
1.85
-3.27
-8.07
-12.48
-16.27
-19.04
-20.34
-19.86
-17.57
-13.75
-9.00
-4.05
0.36
3.69
5.65
6.29
5.86
4.78
3.48
2.35
1.69
1.58
1.97
2.64
3.29
3.66
3.60
3.21
2.75
2.67
3.42
5.31
8.36
12.24
16.32
19.80
21.99
22.44
21.14
18.43
14.85
10.88
6.78
2.60
-1.76
-6.31
-10.87
-15.06
-18.44
-20.67
-21.61
-21.35
-20.14
-18.22
-15.76
-12.82
-9.40
-5.53
-1.34
2.90
6.80
9.89
11.80
12.36
11.69
10.21
8.52
7.26
6.83
7.37
8.65
10.28
11.78
12.86
13.36
13.35
12.93
12.18
11.04
9.44
7.32
4.73
1.84
-1.07
-3.75
-6.05
-7.96
-9.65
-11.34
-13.24
-15.45
-17.90
-20.39
-22.58
-24.13
-24.75
-24.21
-22.39
-19.31
-15.12
-10.12
-4.72
0.59
5.34
9.12
11.70
12.99
13.04
12.06
10.34
8.23
6.10
4.33
3.16
2.71
2.94
3.63
4.48
5.19
5.58
5.60
5.35
4.95
4.49
3.95
3.27
2.36
1.17
-0.24
-1.80
-3.38
-4.90
-6.28
-7.50
-8.55
-9.47
-10.36
-11.33
-12.50
-13.95
-15.64
-17.45
-19.12
-20.29
-20.58
-19.63
-17.26
-13.55
-8.84
-3.67
1.39
5.92
9.69
12.64
14.77
16.04
16.39
15.80
14.44
12.59
10.67
9.04
7.90
7.27
7.03
6.99
7.01
6.99
6.88
6.61
6.08
5.21
3.92
2.28
0.46
-1.31
-2.81
-3.93
-4.74
-5.40
-6.09
-6.93
-7.84
-8.66
-9.16
-9.26
-9.06
-8.89
-9.17
-10.20
-12.02
-14.33
-16.50
-17.84
-17.76
-16.07
-12.94
-8.83
-4.29
0.20
4.34
7.93
10.83
12.92
14.08
14.30
13.68
12.48
11.01
9.59
8.46
7.75
7.49
7.64
8.06
8.60
9.13
9.53
9.72
9.70
9.46
9.04
8.45
7.73
6.87
5.86
4.64
3.19
1.56
-0.13
-1.74
-3.17
-4.43
-5.67
-7.09
-8.84
-10.97
-13.32
-15.60
-17.45
-18.48
-18.43
-17.15
-14.74
-11.41
-7.56
-3.56
0.21
3.49
6.10
7.97
9.06
9.42
9.16
8.42
7.43
6.43
5.62
5.19
5.17
5.49
5.99
6.46
6.76
6.91
6.99
7.07
7.15
7.06
6.63
5.69
4.25
2.46
0.56
-1.24
-2.84
-4.24
-5.52
-6.78
-8.08
-9.47
-10.97
-12.56
-14.12
-15.36
-15.93
-15.41
-13.56
-10.35
-6.00
-0.93
4.45
9.89
15.33
20.89
26.65
32.46
37.85
42.18
44.78
45.28
43.68
40.36
35.88
30.80
25.55
20.39
15.51
11.06
7.16
3.89
1.13
-1.35
-3.87
-6.74
-10.10
-13.88
-17.81
-21.54
-24.75
-27.26
-29.08
-30.40
-31.51
-32.67
-34.03
-35.63
-37.31
-38.87
-39.98
-40.24
-39.27
-36.78
-32.69
-27.23
-20.91
-14.44
-8.48
-3.50
0.28
2.91
4.56
5.46
5.81
5.80
5.58
5.33
5.21
5.31
5.64
6.11
6.59
6.93
7.06
6.98
6.73
6.36
5.83
5.10
4.09
2.83
1.40
-0.07
-1.44
-2.66
-3.78
-4.87
-6.01
-7.27
-8.72
-10.44
-12.46
-14.68
-16.73
-18.07
-18.09
-16.37
-12.93
-8.21
-2.94
2.13
6.49
9.87
12.28
13.78
14.43
14.31
13.54
12.35
11.03
9.87
9.00
8.45
8.12
7.92
7.76
7.64
7.58
7.60
7.69
7.76
7.70
7.32
6.48
5.12
3.33
1.36
-0.51
-2.05
-3.22
-4.19
-5.28
-6.73
-8.66
-10.94
-13.30
-15.37
-16.77
-17.19
-16.39
-14.25
-10.82
-6.37
-1.34
3.65
8.03
11.34
13.32
13.99
13.56
12.37
10.80
9.15
7.64
6.40
5.45
4.77
4.36
4.20
4.25
4.40
4.48
4.35
3.93
3.24
2.37
1.44
0.53
-0.36
-1.27
-2.27
-3.43
-4.79
-6.37
-8.12
-9.98
-11.86
-13.62
-15.02
-15.77
-15.54
-14.06
-11.24
-7.28
-2.64
2.06
6.25
9.54
11.82
13.16
13.71
13.61
12.97
11.88
10.49
9.01
7.69
6.70
6.09
5.78
5.65
5.57
5.47
5.37
5.30
5.20
4.99
4.50
3.62
2.32
0.73
-0.96
-2.53
-3.86
-4.98
-6.04
-7.26
-8.84
-10.81
-13.02
-15.10
-16.53
-16.77
-15.46
-12.50
-8.17
-3.02
2.23
6.91
10.57
13.01
14.31
14.64
14.23
13.28
11.98
10.52
9.13
8.01
7.28
6.97
6.97
7.12
7.28
7.34
7.26
7.04
6.66
6.10
5.30
4.22
2.86
1.24
-0.50
-2.22
-3.78
-5.09
-6.19
-7.25
-8.53
-10.23
-12.40
-14.87
-17.21
-18.89
-19.40
-18.40
-15.85
-12.02
-7.38
-2.55
1.90
5.50
8.02
9.41
9.79
9.41
8.53
7.39
6.22
5.15
4.33
3.84
3.69
3.82
4.08
4.29
4.32
4.15
3.83
3.46
3.10
2.72
2.23
1.51
0.56
-0.59
-1.84
-3.08
-4.29
-5.57
-7.02
-8.74
-10.75
-12.94
-15.06
-16.78
-17.71
-17.49
-15.88
-12.87
-8.69
-3.81
1.23
5.88
9.75
12.63
14.47
15.33
15.32
14.59
13.30
11.69
10.04
8.63
7.67
7.24
7.27
7.57
7.93
8.18
8.26
8.17
7.92
7.48
6.75
5.66
4.21
2.47
0.64
-1.11
-2.69
-4.18
-5.71
-7.44
-9.45
-11.71
-14.05
-16.26
-18.09
-19.25
-19.49
-18.57
-16.37
-12.92
-8.42
-3.26
2.02
6.88
10.84
13.56
14.98
15.21
14.52
13.26
11.75
10.27
9.01
8.10
7.61
7.55
7.85
8.32
8.77
9.00
8.92
8.57
8.07
7.52
6.94
6.25
5.30
4.01
2.42
0.70
-0.90
-2.19
-3.20
-4.07
-5.09
-6.48
-8.38
-10.76
-13.48
-16.27
-18.79
-20.64
-21.40
-20.75
-18.53
-14.87
-10.17
-4.99
0.06
4.48
7.96
10.37
11.75
12.24
12.01
11.29
10.31
9.26
8.32
7.59
7.13
6.91
6.88
6.96
7.09
7.22
7.36
7.50
7.60
7.57
7.27
6.58
5.44
3.87
2.01
0.07
-1.74
-3.25
-4.40
-5.24
-5.94
-6.68
-7.64
-8.98
-10.74
-12.85
-15.10
-17.16
-18.65
-19.14
-18.32
-16.08
-12.50
-7.94
-2.93
1.94
6.14
9.32
11.37
12.32
12.34
11.61
10.31
8.60
6.72
5.01
3.76
3.21
3.33
3.91
4.63
5.20
5.50
5.56
5.45
5.22
4.81
4.11
3.04
1.59
-0.15
-2.00
-3.78
-5.32
-6.55
-7.52
-8.38
-9.32
-10.58
-12.22
-14.14
-16.03
-17.43
-17.90
-17.10
-14.91
-11.51
-7.25
-2.65
1.76
5.55
8.47
10.42
11.46
11.72
11.36
10.54
9.46
8.27
7.16
6.22
5.48
4.90
4.42
4.03
3.75
3.59
3.54
3.44
3.14
2.48
1.46
0.18
-1.16
-2.38
-3.41
-4.32
-5.25
-6.39
-7.86
-9.70
-11.88
-14.26
-16.62
-18.61
-19.81
-19.83
-18.39
-15.45
-11.26
-6.31
-1.22
3.43
7.20
9.90
11.52
12.17
11.99
11.13
9.76
8.09
6.34
4.78
3.60
2.89
2.66
2.78
3.12
3.53
3.90
4.13
4.13
3.81
3.13
2.07
0.70
-0.87
-2.52
-4.14
-5.65
-7.04
-8.35
-9.67
-11.14
-12.82
-14.71
-16.64
-18.25
-19.07
-18.61
-16.60
-13.07
-8.40
-3.22
1.77
6.02
9.18
11.16
12.04
11.96
11.14
9.82
8.27
6.81
5.71
5.11
5.02
5.31
5.75
6.15
6.35
6.27
5.92
5.35
4.60
3.73
2.74
1.60
0.32
-1.08
-2.52
-3.93
-5.26
-6.54
-7.91
-9.50
-11.40
-13.50
-15.45
-16.74
-16.83
-15.37
-12.34
-8.05
-3.12
1.78
6.08
9.43
11.74
13.09
13.60
13.40
12.61
11.39
9.99
8.70
7.80
7.41
7.48
7.80
8.13
8.30
8.26
8.05
7.72
7.25
6.58
5.63
4.41
2.95
1.40
-0.14
-1.57
-2.90
-4.18
-5.55
-7.21
-9.29
-11.81
-14.62
-17.34
-19.44
-20.36
-19.67
-17.26
-13.35
-8.44
-3.22
1.71
5.89
9.08
11.24
12.43
12.76
12.36
11.38
10.03
8.55
7.18
6.08
5.31
4.86
4.69
4.76
5.02
5.38
5.67
5.71
5.32
4.42
3.08
1.45
-0.25
-1.82
-3.17
-4.31
-5.34
-6.43
-7.74
-9.36
-11.34
-13.55
-15.75
-17.54
-18.51
-18.24
-16.49
-13.26
-8.80
-3.63
1.64
6.39
10.18
12.80
14.23
14.64
14.20
13.14
11.69
10.11
8.70
7.65
7.08
6.91
6.98
7.10
7.15
7.10
6.93
6.60
6.04
5.11
3.75
1.99
-0.06
-2.20
-4.27
-6.17
-7.84
-9.31
-10.64
-11.96
-13.44
-15.20
-17.25
-19.40
-21.29
-22.40
-22.25
-20.54
-17.28
-12.81
-7.69
-2.53
2.19
6.15
9.28
11.61
13.20
14.10
14.30
13.85
12.86
11.59
10.37
9.48
9.14
9.32
9.89
10.58
11.16
11.49
11.53
11.31
10.83
10.02
8.78
7.05
4.86
2.40
-0.07
-2.32
-4.21
-5.75
-7.08
-8.38
-9.81
-11.39
-13.00
-14.43
-15.36
-15.53
-14.74
-12.92
-10.16
-6.64
-2.68
1.36
5.10
8.17
10.34
11.49
11.70
11.15
10.10
8.78
7.43
6.25
5.42
5.15
5.54
6.56
8.00
9.53
10.77
11.42
11.35
10.60
9.33
7.72
5.93
4.00
1.98
-0.12
-2.19
-4.10
-5.65
-6.70
-7.20
-7.27
-7.19
-7.34
-8.03
-9.46
-11.62
-14.26
-17.01
-19.43
-21.11
-21.71
-20.98
-18.81
-15.27
-10.63
-5.35
-0.05
4.73
8.57
11.39
13.28
14.48
15.13
15.32
15.03
14.35
13.46
12.69
12.33
12.50
13.12
13.91
14.56
14.85
14.72
14.21
13.39
12.33
11.04
9.55
7.88
6.08
4.19
2.26
0.35
-1.44
-3.07
-4.50
-5.79
-7.04
-8.41
-9.99
-11.79
-13.75
-15.65
-17.20
-18.07
-17.90
-16.49
-13.79
-10.01
-5.53
-0.83
3.64
7.55
10.68
12.94
14.26
14.60
14.00
12.62
10.79
8.91
7.37
6.39
5.99
5.99
6.15
6.27
6.28
6.19
6.06
5.88
5.59
5.10
4.28
3.13
1.65
-0.03
-1.76
-3.40
-4.86
-6.17
-7.37
-8.60
-9.97
-11.53
-13.27
-15.10
-16.81
-18.09
-18.56
-17.84
-15.77
-12.42
-8.17
-3.56
0.88
4.78
7.97
10.40
12.08
12.92
12.90
12.10
10.77
9.27
7.96
7.02
6.41
5.94
5.40
4.68
3.85
3.09
2.60
2.44
2.54
2.66
2.51
1.90
0.78
-0.73
-2.41
-4.05
-5.55
-6.91
-8.21
-9.58
-11.12
-12.88
-14.83
-16.81
-18.53
-19.57
-19.48
-17.96
-14.95
-10.74
-5.90
-1.07
3.16
6.43
8.64
9.87
10.29
10.11
9.47
8.50
7.31
6.03
4.84
3.97
3.54
3.58
3.95
4.45
4.88
5.17
5.33
5.45
5.52
5.44
5.01
4.09
2.69
0.97
-0.81
-2.42
-3.76
-4.86
-5.88
-6.97
-8.28
-9.87
-11.77
-13.91
-16.08
-17.91
-18.94
-18.71
-17.00
-13.83
-9.59
-4.84
-0.17
3.93
7.22
9.62
11.16
11.92
12.00
11.50
10.54
9.28
7.91
6.63
5.60
4.96
4.74
4.90
5.33
5.86
6.30
6.55
6.53
6.27
5.79
5.10
4.17
2.99
1.59
0.06
-1.47
-2.86
-4.10
-5.21
-6.34
-7.61
-9.12
-10.88
-12.86
-14.90
-16.81
-18.27
-18.94
-18.52
-16.86
-14.02
-10.33
-6.23
-2.15
1.56
4.73
7.30
9.24
10.54
11.12
10.98
10.20
9.03
7.76
6.70
6.01
5.68
5.58
5.51
5.32
4.95
4.42
3.81
3.21
2.69
2.25
1.81
1.23
0.36
-0.91
-2.50
-4.26
-5.93
-7.34
-8.51
-9.60
-10.84
-12.36
-14.03
-15.53
-16.41
-16.33
-15.09
-12.76
-9.59
-5.91
-2.11
1.49
4.58
6.96
8.53
9.28
9.33
8.87
8.13
7.34
6.68
6.30
6.22
6.35
6.55
6.62
6.45
6.02
5.42
4.77
4.16
3.53
2.76
1.72
0.35
-1.26
-2.93
-4.47
-5.81
-7.01
-8.23
-9.63
-11.29
-13.14
-14.98
-16.54
-17.55
-17.77
-17.03
-15.27
-12.52
-8.95
-4.83
-0.55
3.53
7.09
9.87
11.77
12.77
12.96
12.51
11.61
10.44
9.11
7.69
6.19
4.63
3.08
1.63
0.41
-0.45
-0.87
-0.84
-0.48
0.01
0.38
0.41
0.01
-0.78
-1.80
-2.87
-3.86
-4.78
-5.75
-6.90
-8.30
-9.91
-11.58
-13.03
-13.95
-14.05
-13.09
-10.99
-7.85
-3.95
0.29
4.42
8.07
11.01
13.17
14.57
15.23
15.18
14.42
13.00
11.11
9.02
7.08
5.55
4.59
4.24
4.42
4.98
5.77
6.62
7.33
7.72
7.60
6.85
5.46
3.52
1.22
-1.17
-3.40
-5.24
-6.58
-7.47
-8.07
-8.67
-9.54
-10.90
-12.80
-15.06
-17.29
-18.97
-19.53
-18.55
-15.90
-11.82
-6.89
-1.83
2.71
6.29
8.83
10.50
11.54
12.17
12.51
12.59
12.40
11.99
11.43
10.75
9.99
9.19
8.41
7.73
7.23
6.95
6.83
6.77
6.67
6.45
6.08
5.54
4.81
3.86
2.72
1.43
0.11
-1.17
-2.40
-3.64
-4.96
-6.45
-8.13
-10.00
-11.96
-13.83
-15.28
-15.94
-15.44
-13.57
-10.41
-6.30
-1.75
2.72
6.69
9.93
12.31
13.82
14.48
14.36
13.57
12.30
10.76
9.17
7.70
6.48
5.58
5.03
4.77
4.75
4.86
5.02
5.19
5.27
5.18
4.77
3.90
2.53
0.74
-1.25
-3.12
-4.63
-5.66
-6.26
-6.61
-6.94
-7.45
-8.28
-9.45
-10.87
-12.34
-13.51
-13.96
-13.33
-11.44
-8.40
-4.61
-0.66
2.92
5.74
7.70
8.89
9.49
9.64
9.42
8.85
7.98
6.94
5.84
4.81
3.88
3.05
2.33
1.74
1.37
1.26
1.42
1.72
1.97
1.95
1.49
0.51
-0.93
-2.67
-4.46
-6.06
-7.33
-8.27
-9.04
-9.88
-10.99
-12.38
-13.83
-14.92
-15.20
-14.34
-12.22
-9.00
-5.06
-0.88
3.01
6.20
8.39
9.51
9.66
9.09
8.06
6.81
5.53
4.34
3.36
2.66
2.28
2.18
2.26
2.35
2.35
2.20
1.89
1.45
0.87
0.16
-0.69
-1.63
-2.63
-3.63
-4.60
-5.57
-6.62
-7.85
-9.32
-11.00
-12.73
-14.19
-14.99
-14.76
-13.31
-10.66
-7.13
-3.22
0.58
3.86
6.42
8.20
9.22
9.54
9.20
8.31
7.02
5.57
4.22
3.17
2.52
2.19
2.04
1.91
1.70
1.39
1.03
0.67
0.35
0.03
-0.32
-0.78
-1.44
-2.35
-3.53
-4.95
-6.52
-8.17
-9.82
-11.47
-13.11
-14.63
-15.83
-16.37
-15.87
-14.07
-10.96
-6.82
-2.17
2.39
6.34
9.35
11.28
12.21
12.36
11.95
11.23
10.38
9.53
8.75
8.08
7.51
7.04
6.66
6.36
6.10
5.84
5.49
4.94
4.10
2.94
1.49
-0.12
-1.70
-3.05
-4.07
-4.74
-5.15
-5.47
-5.89
-6.57
-7.65
-9.17
-10.99
-12.83
-14.22
-14.65
-13.75
-11.39
-7.82
-3.53
0.86
4.80
7.98
10.31
11.83
12.62
12.71
12.15
11.07
9.63
8.07
6.63
5.49
4.76
4.49
4.63
5.07
5.61
6.06
6.24
6.05
5.48
4.59
3.45
2.13
0.70
-0.79
-2.24
-3.59
-4.82
-6.03
-7.34
-8.92
-10.83
-13.02
-15.31
-17.41
-18.92
-19.40
-18.49
-16.01
-12.07
-7.08
-1.71
3.38
7.63
10.78
12.78
13.76
13.90
13.37
12.33
10.99
9.54
8.19
7.09
6.30
5.82
5.62
5.65
5.86
6.14
6.33
6.25
5.78
4.86
3.52
1.85
-0.02
-1.97
-3.88
-5.68
-7.33
-8.81
-10.18
-11.55
-13.03
-14.69
-16.45
-18.05
-19.05
-18.98
-17.45
-14.35
-9.91
-4.69
0.63
5.43
9.28
12.01
13.65
14.29
14.09
13.20
11.88
10.46
9.28
8.61
8.51
8.83
9.24
9.43
9.20
8.55
7.68
6.83
6.10
5.42
4.60
3.40
1.72
-0.36
-2.62
-4.81
-6.75
-8.42
-9.88
-11.28
-12.73
-14.37
-16.27
-18.39
-20.53
-22.28
-23.11
-22.46
-20.01
-15.83
-10.38
-4.38
1.46
6.62
10.81
13.95
16.06
17.15
17.22
16.35
14.76
12.82
10.97
9.56
8.73
8.44
8.45
8.51
8.45
8.21
7.80
7.26
6.60
5.80
4.83
3.70
2.44
1.15
-0.11
-1.28
-2.34
-3.30
-4.19
-5.10
-6.12
-7.36
-8.91
-10.77
-12.77
-14.60
-15.84
-16.05
-14.91
-12.33
-8.46
-3.69
1.45
6.41
10.71
14.03
16.21
17.22
17.13
16.10
14.36
12.23
10.07
8.23
6.96
6.35
6.29
6.55
6.90
7.17
7.35
7.47
7.54
7.43
6.93
5.76
3.81
1.18
-1.79
-4.66
-7.04
-8.77
-9.94
-10.80
-11.64
-12.72
-14.11
-15.77
-17.47
-18.86
-19.50
-18.99
-17.06
-13.72
-9.27
-4.24
0.79
5.26
8.82
11.29
12.63
12.92
12.32
11.10
9.58
8.12
7.00
6.38
6.27
6.55
7.06
7.61
8.01
8.14
7.88
7.22
6.25
5.15
4.15
3.45
3.07
2.86
2.52
1.77
0.43
-1.48
-3.78
-6.22
-8.58
-10.75
-12.66
-14.20
-15.14
-15.17
-14.03
-11.59
-7.92
-3.20
2.46
9.05
16.56
24.71
32.78
39.61
43.95
44.92
42.52
37.68
31.95
26.97
23.94
23.27
24.73
27.69
31.41
35.25
38.70
41.28
42.62
42.42
40.60
37.33
32.96
27.95
22.74
17.68
12.98
8.74
4.91
1.25
-2.57
-6.84
-11.61
-16.59
-21.15
-24.58
-26.31
-26.18
-24.48
-21.79
-18.67
-15.58
-12.73
-10.18
-8.02
-6.32
-5.20
-4.66
-4.56
-4.62
-4.56
-4.12
-3.15
-1.53
0.92
4.43
9.20
15.17
21.94
28.73
34.56
38.59
40.35
39.82
37.29
33.19
27.90
21.73
15.05
8.28
1.79
-4.20
-9.80
-15.42
-21.49
-28.19
-35.22
-41.81
-47.01
-50.11
-50.88
-49.63
-47.01
-43.69
-40.15
-36.64
-33.28
-30.26
-27.83
-26.26
-25.63
-25.75
-26.14
-26.25
-25.69
-24.29
-22.14
-19.46
-16.50
-13.47
-10.63
-8.19
-6.36
-5.12
-4.24
-3.28
-1.84
0.21
2.64
4.85
6.15
6.00
4.23
1.05
-3.15
-7.90
-12.77
-17.45
-21.60
-24.83
-26.77
-27.05
-25.52
-22.34
-17.96
-13.05
-8.32
-4.25
-1.07
1.25
2.92
4.11
4.88
5.18
4.96
4.23
3.19
2.17
1.51
1.46
2.03
3.08
4.29
5.36
6.04
6.25
5.98
5.27
4.14
2.53
0.45
-2.01
-4.61
-7.12
-9.35
-11.28
-13.00
-14.55
-15.81
-16.50
-16.28
-15.00
-12.79
-10.04
-7.23
-4.67
-2.44
-0.40
1.57
3.46
5.09
6.20
6.64
6.45
5.89
5.28
4.86
4.65
4.55
4.40
4.11
3.77
3.51
3.44
3.55
3.66
3.56
3.09
2.24
1.16
0.05
-0.92
-1.70
-2.35
-2.95
-3.61
-4.34
-5.17
-6.13
-7.28
-8.68
-10.32
-12.06
-13.62
-14.62
-14.66
-13.50
-11.09
-7.65
-3.58
0.59
4.43
7.66
10.24
12.29
13.91
15.16
15.93
16.07
15.54
14.47
13.23
12.23
11.80
12.06
12.84
13.84
14.69
15.08
14.88
14.09
12.83
11.34
9.82
8.44
7.17
5.81
4.08
1.76
-1.14
-4.36
-7.44
-9.99
-11.91
-13.46
-15.20
-17.64
-21.06
-25.23
-29.55
-33.27
-35.72
-36.54
-35.62
-33.21
-29.82
-26.25
-23.40
-22.04
-22.58
-24.82
-27.96
-30.87
-32.47
-32.11
-29.80
-26.16
-22.17
-18.82
-16.70
-15.93
-16.16
-16.72
-16.98
-16.52
-15.20
-13.12
-10.50
-7.53
-4.53
-2.00
-0.63
-1.07
-3.70
-8.35
-14.18
-19.93
-24.35
-26.61
-26.68
-25.25
-23.35
-21.65
-20.03
-17.41
-12.19
-2.97
10.76
28.24
47.75
67.28
85.27
101.07
114.87
127.26
138.69
149.14
158.00
163.99
165.26
159.63
145.29
121.81
90.99
56.95
25.20
0.78
-13.54
-18.14
-15.95
-10.81
-5.73
-2.08
0.07
0.92
0.19
-2.88
-8.85
-17.24
-26.43
-34.29
-39.22
-40.85
-40.08
-38.51
-37.56
-37.83
-39.05
-40.45
-41.31
-41.35
-40.76
-40.04
-39.62
-39.65
-39.84
-39.66
-38.51
-36.01
-32.07
-26.95
-21.14
-15.22
-9.74
-5.09
-1.45
1.17
2.95
4.09
4.81
5.27
5.57
5.79
6.01
6.25
6.52
6.81
7.08
7.29
7.41
7.40
7.24
6.90
6.38
5.73
5.03
4.37
3.74
3.08
2.31
1.33
0.11
-1.26
-2.67
-3.98
-5.06
-5.88
-6.48
-7.00
-7.58
-8.41
-9.56
-10.96
-12.35
-13.37
-13.63
-12.87
-11.00
-8.11
-4.47
-0.47
3.45
6.84
9.32
10.70
11.00
10.49
9.49
8.29
7.04
5.70
4.22
2.60
0.97
-0.47
-1.61
-2.52
-3.40
-4.48
-5.82
-7.24
-8.43
-9.06
-9.02
-8.42
-7.57
-6.79
-6.27
-6.00
-5.82
-5.50
-4.89
-3.99
-2.98
-2.16
-1.91
-2.56
-4.29
-7.03
-10.38
-13.72
-16.34
-17.65
-17.35
-15.47
-12.34
-8.44
-4.29
-0.36
2.96
5.39
6.80
7.23
6.91
6.12
5.17
4.29
3.53
2.86
2.22
1.54
0.84
0.18
-0.37
-0.74
-0.87
-0.73
-0.33
0.29
1.00
1.69
2.22
2.50
2.48
2.16
1.57
0.69
-0.53
-2.19
-4.34
-6.96
-9.80
-12.43
-14.28
-14.79
-13.59
-10.65
-6.31
-1.15
4.11
8.84
12.60
15.15
16.50
16.83
16.41
15.56
14.54
13.55
12.70
12.05
11.65
11.52
11.68
12.09
12.60
12.98
13.00
12.50
11.43
9.85
7.93
5.83
3.68
1.52
-0.68
-3.02
-5.64
-8.62
-11.96
-15.49
-18.86
-21.61
-23.26
-23.41
-21.90
-18.85
-14.63
-9.78
-4.88
-0.38
3.38
6.24
8.14
9.06
9.08
8.37
7.15
5.69
4.27
3.13
2.40
2.14
2.30
2.74
3.29
3.74
3.88
3.59
2.84
1.75
0.48
-0.81
-1.98
-3.00
-3.92
-4.88
-6.05
-7.59
-9.59
-12.02
-14.64
-17.07
-18.84
-19.50
-18.76
-16.53
-13.02
-8.62
-3.87
0.72
4.73
7.94
10.31
11.91
12.88
13.29
13.21
12.68
11.84
10.93
10.20
9.88
9.98
10.33
10.65
10.68
10.31
9.59
8.67
7.68
6.64
5.55
4.37
3.15
2.00
0.97
0.02
-1.06
-2.55
-4.63
-7.28
-10.23
-13.02
-15.16
-16.27
-16.15
-14.85
-12.55
-9.53
-6.12
-2.64
0.67
3.57
5.96
7.77
8.98
9.64
9.84
9.70
9.35
8.93
8.52
8.16
7.83
7.51
7.22
6.96
6.74
6.56
6.38
6.10
5.64
4.95
4.00
2.82
1.44
-0.08
-1.66
-3.27
-4.90
-6.64
-8.57
-10.71
-12.88
-14.72
-15.73
-15.45
-13.68
-10.53
-6.46
-2.07
2.04
5.46
8.05
9.79
10.80
11.16
10.97
10.35
9.50
8.63
7.91
7.41
7.08
6.81
6.53
6.20
5.83
5.43
4.94
4.23
3.24
1.96
0.49
-1.00
-2.42
-3.74
-5.04
-6.40
-7.88
-9.46
-11.14
-12.89
-14.71
-16.55
-18.18
-19.23
-19.25
-17.89
-15.05
-11.03
-6.38
-1.76
2.30
5.50
7.81
9.33
10.20
10.52
10.35
9.80
9.02
8.21
7.60
7.30
7.33
7.58
7.84
7.90
7.62
6.93
5.90
4.65
3.35
2.18
1.22
0.49
-0.10
-0.65
-1.25
-1.99
-2.94
-4.16
-5.74
-7.69
-9.95
-12.24
-14.10
-15.03
-14.60
-12.67
-9.44
-5.42
-1.24
2.55
5.60
7.80
9.16
9.80
9.86
9.46
8.79
8.04
7.35
6.86
6.56
6.41
6.34
6.35
6.46
6.68
6.99
7.31
7.52
7.55
7.32
6.81
5.99
4.85
3.43
1.83
0.22
-1.21
-2.37
-3.29
-4.14
-5.19
-6.66
-8.66
-11.08
-13.58
-15.68
-16.89
-16.83
-15.36
-12.62
-8.95
-4.85
-0.80
2.82
5.73
7.78
8.94
9.25
8.82
7.88
6.71
5.58
4.70
4.14
3.85
3.69
3.54
3.34
3.13
2.97
2.93
2.96
2.97
2.81
2.39
1.64
0.59
-0.71
-2.16
-3.67
-5.17
-6.60
-7.96
-9.29
-10.67
-12.14
-13.72
-15.29
-16.62
-17.38
-17.20
-15.76
-12.95
-8.95
-4.17
0.76
5.28
8.97
11.70
13.55
14.67
15.18
15.15
14.61
13.68
12.59
11.64
11.07
10.93
11.08
11.29
11.29
10.97
10.35
9.54
8.64
7.70
6.68
5.52
4.17
2.65
1.04
-0.54
-2.00
-3.29
-4.44
-5.55
-6.70
-7.98
-9.43
-11.05
-12.79
-14.51
-16.04
-17.09
-17.35
-16.55
-14.56
-11.47
-7.57
-3.35
0.70
4.17
6.81
8.58
9.61
10.06
10.12
9.90
9.50
9.00
8.46
7.97
7.59
7.36
7.27
7.29
7.34
7.33
7.19
6.87
6.33
5.62
4.77
3.83
2.82
1.72
0.52
-0.79
-2.19
-3.61
-5.00
-6.37
-7.80
-9.39
-11.24
-13.29
-15.32
-16.91
-17.58
-16.95
-14.86
-11.50
-7.33
-2.96
1.02
4.24
6.58
8.16
9.16
9.75
9.98
9.88
9.43
8.73
7.94
7.25
6.81
6.64
6.65
6.67
6.60
6.39
6.07
5.69
5.27
4.74
4.01
2.97
1.63
0.06
-1.59
-3.16
-4.60
-5.93
-7.27
-8.74
-10.39
-12.14
-13.79
-15.04
-15.54
-15.02
-13.36
-10.61
-7.08
-3.16
0.70
4.10
6.83
8.82
10.12
10.80
10.92
10.54
9.72
8.58
7.30
6.12
5.26
4.83
4.83
5.10
5.40
5.48
5.16
4.39
3.23
1.82
0.31
-1.19
-2.66
-4.11
-5.56
-7.03
-8.55
-10.11
-11.67
-13.10
-14.14
-14.48
-13.80
-11.95
-9.04
-5.39
-1.47
2.28
5.53
8.11
9.96
11.07
11.44
11.13
10.26
9.01
7.61
6.26
5.11
4.22
3.60
3.21
2.99
2.82
2.61
2.29
1.83
1.28
0.67
-0.00
-0.80
-1.82
-3.12
-4.71
-6.50
-8.38
-10.23
-11.95
-13.43
-14.51
-15.00
-14.67
-13.34
-11.02
-7.88
-4.30
-0.74
2.42
4.92
6.73
7.92
8.64
9.00
9.06
8.87
8.52
8.11
7.79
7.67
7.76
7.99
8.24
8.39
8.37
8.13
7.65
6.91
5.88
4.59
3.13
1.63
0.22
-1.04
-2.22
-3.46
-4.95
-6.77
-8.89
-11.18
-13.40
-15.29
-16.57
-16.91
-16.04
-13.79
-10.27
-5.86
-1.13
3.26
6.87
9.52
11.27
12.29
12.72
12.61
12.00
10.94
9.64
8.36
7.35
6.75
6.55
6.63
6.83
7.05
7.26
7.45
7.60
7.62
7.40
6.84
5.87
4.54
3.00
1.42
-0.06
-1.39
-2.66
-4.05
-5.74
-7.84
-10.25
-12.67
-14.70
-15.88
-15.84
-14.41
-11.65
-7.80
-3.31
1.33
5.59
9.06
11.49
12.79
13.11
12.69
11.80
10.68
9.48
8.31
7.28
6.53
6.13
6.11
6.32
6.58
6.70
6.58
6.25
5.81
5.33
4.78
4.06
3.04
1.73
0.23
-1.28
-2.68
-3.93
-5.12
-6.44
-8.00
-9.84
-11.85
-13.77
-15.26
-15.95
-15.54
-13.88
-11.03
-7.32
-3.22
0.73
4.09
6.59
8.23
9.15
9.57
9.66
9.50
9.12
8.57
7.93
7.34
6.88
6.61
6.45
6.30
6.05
5.65
5.14
4.56
3.93
3.23
2.39
1.36
0.18
-1.09
-2.40
-3.71
-5.03
-6.42
-7.94
-9.64
-11.53
-13.52
-15.42
-16.93
-17.67
-17.32
-15.72
-12.97
-9.42
-5.53
-1.74
1.65
4.48
6.71
8.33
9.34
9.75
9.60
9.03
8.20
7.31
6.53
5.97
5.63
5.45
5.30
5.06
4.68
4.17
3.61
3.05
2.46
1.77
0.88
-0.26
-1.59
-2.98
-4.30
-5.51
-6.68
-7.94
-9.42
-11.16
-13.07
-14.92
-16.41
-17.19
-16.99
-15.69
-13.34
-10.18
-6.54
-2.78
0.80
3.94
6.50
8.39
9.58
10.11
10.11
9.74
9.17
8.52
7.91
7.40
7.01
6.74
6.55
6.36
6.09
5.67
5.11
4.46
3.80
3.14
2.45
1.64
0.66
-0.45
-1.58
-2.60
-3.47
-4.27
-5.19
-6.42
-8.03
-9.90
-11.73
-13.07
-13.56
-12.92
-11.08
-8.16
-4.42
-0.27
3.83
7.46
10.25
12.04
12.83
12.76
12.06
10.94
9.56
8.04
6.52
5.13
4.02
3.31
3.04
3.14
3.47
3.82
4.03
4.00
3.68
3.09
2.24
1.15
-0.14
-1.51
-2.87
-4.11
-5.22
-6.30
-7.54
-9.10
-11.00
-13.10
-15.04
-16.39
-16.75
-15.89
-13.80
-10.65
-6.74
-2.45
1.79
5.54
8.43
10.18
10.71
10.14
8.78
7.00
5.21
3.71
2.68
2.16
2.09
2.34
2.68
2.91
2.85
2.41
1.62
0.63
-0.38
-1.22
-1.81
-2.17
-2.39
-2.57
-2.81
-3.21
-3.83
-4.78
-6.19
-8.13
-10.55
-13.24
-15.75
-17.49
-17.91
-16.64
-13.71
-9.54
-4.88
-0.58
2.72
4.74
5.60
5.73
5.62
5.59
5.74
5.93
5.96
5.69
5.11
4.40
3.80
3.49
3.50
3.70
3.85
3.74
3.28
2.54
1.72
0.95
0.25
-0.46
-1.39
-2.70
-4.44
-6.55
-8.80
-10.85
-12.27
-12.62
-11.58
-9.10
-5.41
-1.05
3.44
7.66
11.49
15.02
18.44
21.88
25.39
29.03
32.81
36.74
40.60
43.97
46.21
46.82
45.57
42.75
38.98
34.99
31.29
28.04
25.08
22.13
18.90
15.23
10.98
6.07
0.51
-5.55
-11.75
-17.61
-22.63
-26.55
-29.40
-31.48
-33.16
-34.76
-36.41
-38.03
-39.44
-40.40
-40.70
-40.14
-38.57
-35.92
-32.26
-27.85
-23.05
-18.28
-13.85
-9.98
-6.74
-4.14
-2.13
-0.67
0.32
0.95
1.32
1.53
1.66
1.75
1.83
1.89
1.92
1.91
1.81
1.63
1.35
0.99
0.55
0.01
-0.67
-1.49
-2.43
-3.44
-4.41
-5.28
-6.01
-6.69
-7.48
-8.54
-10.01
-11.85
-13.83
-15.55
-16.54
-16.37
-14.85
-12.05
-8.31
-4.12
0.00
3.61
6.43
8.31
9.28
9.43
9.00
8.31
7.72
7.60
8.19
9.57
11.57
13.82
15.80
17.02
17.18
16.21
14.35
11.97
9.48
7.14
5.05
3.12
1.28
-0.51
-2.16
-3.58
-4.73
-5.72
-6.79
-8.20
-10.06
-12.28
-14.58
-16.54
-17.76
-17.94
-16.99
-15.00
-12.21
-8.97
-5.62
-2.49
0.19
2.25
3.63
4.28
4.23
3.62
2.64
1.60
0.78
0.38
0.42
0.78
1.26
1.67
1.94
2.06
2.07
1.93
1.59
0.98
0.11
-0.93
-1.98
-2.94
-3.81
-4.71
-5.80
-7.22
-8.94
-10.78
-12.39
-13.37
-13.37
-12.18
-9.85
-6.63
-2.95
0.75
4.10
6.87
8.96
10.35
11.06
11.09
10.48
9.34
7.87
6.38
5.16
4.43
4.25
4.57
5.16
5.80
6.27
6.43
6.21
5.65
4.79
3.70
2.47
1.17
-0.13
-1.39
-2.62
-3.87
-5.22
-6.74
-8.45
-10.27
-12.05
-13.52
-14.41
-14.48
-13.55
-11.56
-8.63
-5.02
-1.13
2.62
5.90
8.53
10.47
11.78
12.53
12.76
12.50
11.86
11.01
10.19
9.62
9.42
9.55
9.83
10.01
9.86
9.26
8.20
6.77
5.14
3.46
1.91
0.66
-0.12
-0.24
0.40
1.79
3.70
5.68
7.16
7.58
6.61
4.21
0.74
-3.16
-6.64
-8.93
-9.54
-8.39
-5.87
-2.73
0.26
2.52
3.93
4.80
5.64
6.90
8.71
10.85
12.88
14.41
15.28
15.60
15.65
15.70
15.96
16.46
17.17
18.02
18.91
19.67
20.06
19.85
18.99
17.67
16.31
15.40
15.19
15.57
16.08
16.13
15.22
13.08
9.70
5.18
-0.29
-6.45
-12.84
-18.83
-23.64
-26.64
-27.52
-26.45
-23.91
-20.55
-16.96
-13.53
-10.55
-8.20
-6.66
-6.02
-6.26
-7.20
-8.51
-9.89
-11.09
-12.04
-12.80
-13.42
-13.84
-13.93
-13.52
-12.59
-11.37
-10.29
-9.77
-10.07
-11.10
-12.50
-13.80
-14.72
-15.21
-15.51
-15.94
-16.76
-18.06
-19.75
-21.59
-23.19
-24.18
-24.17
-22.92
-20.40
-16.85
-12.68
-8.40
-4.39
-0.93
1.92
4.13
5.73
6.68
6.99
6.69
5.96
5.03
4.18
3.63
3.45
3.53
3.68
3.64
3.27
2.53
1.53
0.49
-0.33
-0.74
-0.59
0.17
1.49
3.23
5.16
7.03
8.58
9.70
10.43
11.00
11.77
13.11
15.25
18.17
21.66
25.34
28.91
32.12
34.87
37.05
38.52
39.04
38.38
36.41
33.24
29.17
24.65
20.09
15.70
11.52
7.48
3.48
-0.47
-4.25
-7.67
-10.55
-12.79
-14.40
-15.51
-16.34
-17.13
-18.07
-19.24
-20.58
-21.95
-23.12
-23.93
-24.31
-24.35
-24.25
-24.26
-24.64
-25.59
-27.20
-29.45
-32.08
-34.65
-36.54
-37.16
-36.07
-33.20
-28.82
-23.50
-17.93
-12.66
-8.05
-4.22
-1.17
1.16
2.83
3.84
4.27
4.23
3.92
3.51
3.15
2.91
2.87
3.10
3.67
4.67
6.06
7.64
9.11
10.10
10.37
9.88
8.81
7.46
6.15
5.15
4.58
4.45
4.67
5.01
5.12
4.62
3.20
0.84
-2.17
-5.21
-7.56
-8.62
-8.18
-6.41
-3.75
-0.71
2.35
5.24
7.87
10.19
12.09
13.43
14.15
14.35
14.20
13.95
13.71
13.47
13.07
12.39
11.37
10.12
8.79
7.54
6.44
5.45
4.51
3.53
2.44
1.24
-0.08
-1.47
-2.83
-4.03
-4.99
-5.68
-6.20
-6.77
-7.62
-8.88
-10.54
-12.37
-14.01
-15.08
-15.25
-14.33
-12.28
-9.26
-5.57
-1.62
2.12
5.24
7.49
8.76
9.16
8.85
8.06
7.02
5.91
4.87
3.99
3.32
2.83
2.46
2.20
2.02
1.92
1.81
1.48
0.66
-0.91
-3.31
-6.38
-9.75
-12.91
-15.45
-17.04
-17.51
-16.81
-15.01
-12.31
-9.05
-5.68
-2.65
-0.24
1.57
3.13
5.01
7.80
11.85
17.19
23.48
30.16
36.60
42.25
46.71
49.75
51.26
51.27
49.92
47.43
44.03
39.83
34.77
28.67
21.39
13.04
4.18
-4.27
-11.25
-15.96
-18.09
-17.96
-16.40
-14.34
-12.53
-11.35
-10.74
-10.46
-10.26
-10.05
-9.90
-9.98
-10.38
-11.03
-11.71
-12.11
-11.88
-10.79
-8.76
-5.90
-2.49
1.13
4.59
7.63
10.08
11.86
12.93
13.23
12.76
11.54
9.71
7.52
5.24
3.14
1.42
0.15
-0.67
-1.10
-1.20
-1.06
-0.80
-0.59
-0.64
-1.06
-1.78
-2.54
-3.05
-3.16
-3.07
-3.32
-4.60
-7.31
-11.37
-16.08
-20.44
-23.49
-24.67
-23.98
-21.80
-18.70
-15.19
-11.65
-8.29
-5.31
-2.90
-1.30
-0.71
-1.22
-2.76
-5.09
-7.79
-10.39
-12.44
-13.55
-13.47
-12.01
-9.18
-5.11
-0.14
5.26
10.58
15.45
19.69
23.34
26.53
29.26
31.34
32.33
31.75
29.30
25.08
19.66
13.94
8.89
5.22
3.22
2.67
3.08
3.85
4.55
4.95
4.98
4.59
3.66
2.06
-0.23
-2.95
-5.64
-7.75
-8.87
-8.99
-8.47
-7.94
-8.07
-9.29
-11.62
-14.76
-18.14
-21.24
-23.68
-25.39
-26.51
-27.27
-27.82
-28.08
-27.76
-26.45
-23.86
-19.91
-14.86
-9.18
-3.39
2.09
7.07
11.54
15.55
19.09
22.00
23.98
24.72
24.07
22.11
19.17
15.77
12.37
9.34
6.78
4.62
2.68
0.81
-1.09
-2.99
-4.84
-6.53
-7.90
-8.81
-9.13
-8.89
-8.29
-7.75
-7.80
-8.85
-10.99
-13.82
-16.54
-18.16
-17.84
-15.20
-10.37
-3.91
3.46
11.05
18.30
24.83
30.26
34.25
36.48
36.79
35.28
32.38
28.75
25.08
21.84
19.17
16.84
14.48
11.78
8.70
5.45
2.41
-0.09
-1.96
-3.39
-4.75
-6.36
-8.44
-10.91
-13.56
-16.04
-18.02
-19.16
-19.22
-18.07
-15.75
-12.48
-8.62
-4.56
-0.64
2.95
6.14
8.91
11.20
12.88
13.77
13.76
12.86
11.26
9.22
7.07
5.03
3.29
1.92
0.87
0.01
-0.91
-2.18
-4.01
-6.43
-9.25
-12.16
-14.84
-17.19
-19.31
-21.47
-23.87
-26.48
-28.94
-30.70
-31.19
-30.06
-27.24
-22.95
-17.56
-11.58
-5.54
0.04
4.70
8.14
10.28
11.29
11.48
11.25
10.93
10.72
10.67
10.71
10.73
10.66
10.42
10.04
9.55
9.02
8.46
7.91
7.34
6.74
6.02
5.11
3.85
2.13
-0.06
-2.59
-5.18
-7.52
-9.46
-11.07
-12.71
-14.76
-17.47
-20.66
-23.73
-25.82
-26.14
-24.32
-20.51
-15.32
-9.59
-4.04
0.87
5.01
8.34
10.87
12.43
12.85
12.04
10.17
7.68
5.17
3.19
2.04
1.73
2.08
2.83
3.85
5.11
6.67
8.47
10.27
11.60
11.91
10.78
8.12
4.26
-0.15
-4.35
-7.75
-10.06
-11.28
-11.64
-11.37
-10.71
-9.88
-9.18
-9.01
-9.72
-11.50
-14.19
-17.29
-20.07
-21.80
-21.95
-20.32
-17.05
-12.54
-7.32
-1.95
3.10
7.45
10.76
12.78
13.33
12.47
10.47
7.84
5.17
2.89
1.21
0.13
-0.44
-0.50
0.10
1.51
3.74
6.53
9.37
11.65
12.93
13.07
12.28
11.01
9.67
8.58
7.78
7.11
6.26
4.88
2.68
-0.49
-4.60
-9.38
-14.42
-19.10
-22.78
-24.93
-25.23
-23.71
-20.69
-16.68
-12.23
-7.83
-3.84
-0.51
2.03
3.71
4.56
4.68
4.21
3.37
2.39
1.46
0.70
0.14
-0.34
-0.90
-1.73
-2.96
-4.60
-6.52
-8.55
-10.56
-12.50
-14.37
-16.19
-17.91
-19.39
-20.46
-21.07
-21.28
-21.29
-21.32
-21.43
-21.52
-21.25
-20.23
-18.21
-15.14
-11.29
-7.08
-2.98
0.67
3.75
6.24
8.22
9.72
10.72
11.18
11.15
10.78
10.35
10.15
10.39
11.09
12.07
13.02
13.61
13.55
12.74
11.27
9.34
7.23
5.15
3.22
1.48
-0.08
-1.44
-2.65
-3.78
-4.95
-6.31
-7.89
-9.51
-10.80
-11.31
-10.68
-8.85
-6.11
-2.98
-0.06
2.23
3.73
4.61
5.20
5.81
6.61
7.57
8.53
9.33
9.92
10.42
10.99
11.79
12.78
13.78
14.54
14.88
14.70
14.00
12.81
11.13
8.98
6.46
3.86
1.55
-0.05
-0.75
-0.68
-0.31
-0.25
-1.06
-2.96
-5.74
-8.84
-11.50
-13.12
-13.40
-12.39
-10.45
-8.00
-5.35
-2.62
0.15
2.93
5.54
7.69
9.12
9.76
9.77
9.47
9.14
8.89
8.58
7.98
6.97
5.67
4.40
3.53
3.21
3.32
3.43
3.05
1.87
-0.08
-2.45
-4.78
-6.70
-8.16
-9.41
-10.86
-12.84
-15.45
-18.45
-21.40
-23.72
-24.93
-24.62
-22.59
-18.75
-13.26
-6.53
0.79
7.87
13.86
18.14
20.48
21.05
20.40
19.18
18.01
17.31
17.24
17.70
18.45
19.19
19.64
19.65
19.19
18.32
17.21
15.99
14.74
13.47
12.16
10.79
9.35
7.88
6.41
4.97
3.57
2.21
0.88
-0.43
-1.79
-3.26
-4.86
-6.49
-7.93
-8.84
-8.90
-7.90
-5.83
-2.87
0.64
4.34
7.85
10.86
13.13
14.52
14.99
14.61
13.56
12.07
10.38
8.74
7.36
6.38
5.87
5.79
5.96
6.17
6.20
5.95
5.40
4.67
3.90
3.15
2.41
1.57
0.47
-1.01
-2.92
-5.23
-7.81
-10.46
-12.90
-14.79
-15.79
-15.63
-14.21
-11.66
-8.34
-4.70
-1.19
1.87
4.27
5.94
6.84
7.02
6.59
5.74
4.74
3.86
3.29
3.13
3.29
3.61
3.89
3.96
3.71
3.17
2.47
1.80
1.39
1.38
1.78
2.45
3.16
3.59
3.51
2.76
1.30
-0.78
-3.25
-5.75
-7.81
-8.98
-8.92
-7.54
-5.10
-2.12
0.76
3.01
4.29
4.51
3.73
2.10
-0.21
-2.96
-5.84
-8.38
-10.14
-10.83
-10.44
-9.30
-7.94
-6.91
-6.54
-6.88
-7.68
-8.56
-9.12
-9.10
-8.46
-7.33
-6.04
-4.92
-4.26
-4.21
-4.77
-5.84
-7.23
-8.69
-9.94
-10.74
-10.86
-10.23
-8.93
-7.19
-5.30
-3.52
-2.01
-0.83
0.00
0.52
0.74
0.70
0.51
0.27
0.13
0.20
0.49
0.98
1.54
2.06
2.42
2.58
2.53
2.30
1.94
1.48
0.93
0.28
-0.48
-1.35
-2.31
-3.33
-4.35
-5.36
-6.35
-7.29
-8.10
-8.66
-8.78
-8.25
-6.95
-4.83
-2.00
1.25
4.55
7.43
9.43
10.23
9.69
8.00
5.57
2.99
0.85
-0.42
-0.58
0.34
2.10
4.30
6.45
8.08
8.90
8.86
8.21
7.31
6.51
5.95
5.52
4.92
3.82
1.98
-0.63
-3.77
-7.03
-9.82
-11.55
-11.78
-10.43
-7.87
-4.84
-2.20
-0.64
-0.40
-1.24
-2.61
-3.94
-4.86
-5.33
-5.50
-5.58
-5.68
-5.78
-5.80
-5.68
-5.43
-5.07
-4.57
-3.94
-3.19
-2.43
-1.82
-1.53
-1.57
-1.79
-1.91
-1.76
-1.43
-1.33
-2.01
-3.88
-6.94
-10.73
-14.45
-17.29
-18.73
-18.65
-17.28
-15.01
-12.16
-8.90
-5.32
-1.54
2.14
5.25
7.28
7.82
6.80
4.51
1.52
-1.48
-3.89
-5.42
-6.08
-6.16
-6.03
-5.96
-5.99
-5.91
-5.47
-4.50
-3.08
-1.54
-0.26
0.57
1.08
1.65
2.69
4.35
6.36
8.18
9.27
9.34
8.50
7.08
5.56
4.28
3.54
3.60
4.72
7.12
10.83
15.61
20.99
26.38
31.26
35.22
37.96
39.25
38.98
37.20
34.24
30.73
27.45
25.09
24.06
24.40
25.85
27.92
30.11
31.91
32.89
32.74
31.27
28.49
24.62
20.03
15.14
10.29
5.62
1.08
-3.55
-8.47
-13.77
-19.37
-25.05
-30.53
-35.58
-40.06
-43.98
-47.35
-50.15
-52.20
-53.19
-52.76
-50.70
-47.09
-42.40
-37.43
-33.07
-29.98
-28.41
-28.08
-28.34
-28.39
-27.52
-25.23
-21.39
-16.12
-9.87
-3.30
2.87
7.96
11.65
14.06
15.82
17.79
20.68
24.69
29.30
33.46
35.99
36.11
33.82
29.88
25.52
22.01
20.25
20.57
22.81
26.43
30.70
34.84
38.07
39.74
39.43
36.96
32.50
26.46
19.53
12.50
6.25
1.58
-0.98
-1.31
0.20
2.75
5.47
7.60
8.84
9.34
9.61
10.37
12.31
15.97
21.53
28.64
36.30
42.90
46.63
46.05
40.70
31.29
19.56
7.54
-3.10
-11.54
-17.78
-22.35
-25.86
-28.78
-31.35
-33.79
-36.30
-39.10
-42.27
-45.68
-49.02
-51.95
-54.16
-55.50
-55.91
-55.43
-54.06
-51.86
-48.83
-44.96
-40.25
-34.71
-28.40
-21.46
-14.05
-6.28
1.74
9.84
17.69
24.80
30.56
34.47
36.30
36.18
34.54
31.93
28.94
26.08
23.81
22.45
22.11
22.59
23.39
23.80
23.19
21.21
17.86
13.52
8.80
4.39
0.91
-1.25
-2.10
-2.07
-2.01
-2.93
-5.63
-10.41
-16.88
-23.99
-30.34
-34.57
-35.74
-33.56
-28.42
-21.26
-13.21
-5.36
1.48
6.83
10.55
12.80
13.93
14.36
14.41
14.12
13.23
11.39
8.41
4.61
0.87
-1.63
-1.86
0.54
5.12
10.73
15.99
19.69
21.08
19.94
16.50
11.38
5.44
-0.32
-4.98
-7.99
-9.31
-9.44
-9.16
-9.24
-10.17
-12.03
-14.64
-17.70
-20.95
-24.11
-26.87
-28.82
-29.60
-28.99
-27.11
-24.35
-21.23
-18.07
-14.92
-11.51
-7.42
-2.39
3.55
10.04
16.51
22.39
27.27
30.94
33.28
34.22
33.59
31.18
26.88
20.88
13.78
6.63
0.57
-3.45
-5.09
-4.68
-3.15
-1.55
-0.73
-1.06
-2.38
-4.32
-6.46
-8.59
-10.73
-13.01
-15.55
-18.38
-21.38
-24.26
-26.47
-27.30
-25.99
-22.03
-15.39
-6.74
2.65
11.23
17.59
20.87
20.95
18.41
14.29
9.72
5.66
2.63
0.74
-0.26
-0.80
-1.21
-1.66
-2.13
-2.49
-2.64
-2.64
-2.58
-2.63
-2.91
-3.47
-4.32
-5.37
-6.40
-6.98
-6.64
-5.01
-2.11
1.57
5.07
7.23
7.06
4.01
-1.82
-9.74
-18.58
-26.99
-33.75
-38.01
-39.45
-38.20
-34.75
-29.70
-23.59
-16.88
-10.00
-3.41
2.35
6.81
9.66
10.92
10.96
10.51
10.45
11.63
14.55
19.18
24.85
30.35
34.30
35.52
33.38
27.96
20.02
10.74
1.41
-6.85
-13.33
-17.74
-20.16
-20.95
-20.64
-19.79
-18.96
-18.60
-19.02
-20.29
-22.23
-24.41
-26.27
-27.26
-27.00
-25.43
-22.80
-19.53
-15.99
-12.17
-7.70
-1.89
5.79
15.40
26.21
36.90
45.91
52.05
54.74
54.10
50.66
45.10
38.10
30.27
22.25
14.65
7.96
2.45
-1.90
-5.27
-7.90
-10.01
-11.78
-13.38
-15.00
-16.78
-18.65
-20.25
-20.87
-19.70
-16.14
-10.15
-2.37
5.98
13.46
18.84
21.44
21.26
18.79
14.80
10.03
5.13
0.57
-3.24
-5.99
-7.50
-7.82
-7.20
-6.10
-4.96
-4.15
-3.81
-3.86
-4.10
-4.25
-4.07
-3.37
-2.09
-0.21
2.11
4.61
6.92
8.76
10.11
11.24
12.59
14.42
16.59
18.48
19.26
18.34
15.71
11.95
7.95
4.44
1.68
-0.53
-2.58
-4.74
-7.02
-9.25
-11.18
-12.71
-13.74
-14.14
-13.70
-12.23
-9.70
-6.44
-3.06
-0.29
1.33
1.70
1.15
0.28
-0.33
-0.32
0.27
1.14
1.87
2.08
1.65
0.81
0.17
0.58
2.88
7.52
14.36
22.54
30.66
37.16
40.78
40.80
37.18
30.45
21.41
11.01
0.13
-10.41
-19.94
-27.92
-34.03
-38.14
-40.28
-40.61
-39.36
-36.74
-32.97
-28.30
-22.99
-17.43
-12.08
-7.40
-3.78
-1.40
-0.08
0.74
1.86
4.23
8.56
15.06
23.33
32.32
40.67
47.01
50.37
50.38
47.25
41.66
34.50
26.69
19.03
12.12
6.28
1.61
-2.03
-4.92
-7.34
-9.49
-11.41
-13.04
-14.29
-15.11
-15.58
-15.91
-16.42
-17.38
-18.82
-20.41
-21.49
-21.30
-19.27
-15.33
-9.99
-4.14
1.28
5.62
8.55
10.01
10.02
8.57
5.71
1.69
-2.90
-7.27
-10.67
-12.72
-13.48
-13.42
-13.09
-12.83
-12.71
-12.52
-12.05
-11.21
-10.13
-9.05
-8.23
-7.83
-7.83
-8.13
-8.52
-8.81
-8.88
-8.78
-8.81
-9.49
-11.44
-15.17
-20.93
-28.57
-37.53
-46.87
-55.37
-61.65
-64.40
-62.69
-56.34
-46.03
-33.20
-19.67
-7.00
3.89
12.90
20.54
27.46
34.10
40.45
46.14
50.61
53.30
53.88
52.19
48.29
42.42
35.04
26.94
19.22
13.22
10.21
10.97
15.42
22.59
30.79
38.18
43.20
44.96
43.37
38.94
32.54
25.11
17.50
10.33
3.94
-1.54
-6.17
-10.05
-13.28
-15.90
-18.00
-19.72
-21.33
-23.14
-25.42
-28.29
-31.69
-35.38
-38.88
-41.47
-42.17
-39.85
-33.60
-23.16
-9.26
6.40
21.52
33.91
42.08
45.57
44.84
40.90
34.85
27.74
20.41
13.64
8.07
4.13
1.91
1.13
1.24
1.66
1.93
1.84
1.40
0.73
-0.02
-0.80
-1.70
-2.96
-4.78
-7.18
-9.77
-11.77
-12.28
-10.66
-6.91
-1.77
3.53
7.69
9.76
9.32
6.44
1.52
-4.82
-11.79
-18.43
-23.70
-26.78
-27.27
-25.34
-21.60
-16.83
-11.70
-6.67
-1.96
2.23
5.68
8.14
9.55
10.12
10.44
11.26
13.19
16.37
20.42
24.50
27.61
28.96
28.19
25.40
21.05
15.77
10.12
4.53
-0.75
-5.60
-10.03
-14.06
-17.70
-20.87
-23.52
-25.69
-27.64
-29.85
-32.89
-37.19
-42.92
-49.85
-57.37
-64.54
-70.26
-73.44
-73.18
-69.08
-61.27
-50.45
-37.64
-23.83
-9.68
4.59
19.15
34.14
49.48
64.61
78.52
90.01
97.90
101.37
100.14
94.57
85.65
74.69
63.10
52.01
42.07
33.46
25.99
19.29
13.06
7.09
1.31
-4.30
-9.67
-14.69
-19.07
-22.49
-24.59
-25.25
-24.66
-23.38
-22.16
-21.78
-22.81
-25.47
-29.65
-34.94
-40.71
-46.15
-50.22
-51.80
-49.80
-43.60
-33.25
-19.65
-4.32
10.97
24.65
35.63
43.33
47.55
48.39
46.22
41.68
35.72
29.40
23.64
19.01
15.52
12.77
10.15
7.07
3.12
-1.83
-7.61
-13.76
-19.54
-24.14
-26.78
-27.01
-24.80
-20.55
-15.02
-9.09
-3.62
0.72
3.51
4.66
4.40
3.21
1.71
0.39
-0.53
-1.19
-2.03
-3.58
-6.17
-9.79
-14.01
-18.15
-21.43
-23.25
-23.36
-21.84
-19.08
-15.63
-12.10
-8.97
-6.57
-4.99
-4.04
-3.25
-1.88
0.81
5.36
11.79
19.49
27.30
33.87
38.11
39.54
38.37
35.32
31.26
26.92
22.69
18.65
14.72
10.81
6.85
2.89
-1.00
-4.69
-8.07
-11.08
-13.79
-16.37
-19.06
-22.04
-25.29
-28.53
-31.23
-32.77
-32.63
-30.50
-26.43
-20.77
-14.10
-7.11
-0.46
5.28
9.80
13.02
15.09
16.30
16.88
16.96
16.49
15.36
13.53
11.16
8.59
6.22
4.32
2.91
1.77
0.57
-0.96
-2.82
-4.79
-6.49
-7.54
-7.64
-6.63
-4.49
-1.38
2.43
6.52
10.40
13.57
15.58
16.15
15.11
12.50
8.54
3.61
-1.79
-7.17
-12.14
-16.47
-20.10
-23.05
-25.30
-26.75
-27.22
-26.57
-24.74
-21.85
-18.15
-13.97
-9.71
-5.76
-2.51
-0.30
0.63
0.31
-0.82
-1.98
-2.12
-0.30
3.98
10.53
18.42
26.26
32.66
36.58
37.62
36.00
32.30
27.26
21.49
15.48
9.55
3.91
-1.29
-5.97
-10.14
-13.89
-17.40
-20.92
-24.70
-28.94
-33.64
-38.55
-43.17
-46.81
-48.72
-48.23
-44.93
-38.76
-30.14
-19.93
-9.27
0.67
9.04
15.46
20.04
23.14
25.15
26.21
26.25
25.13
22.86
19.72
16.27
13.17
10.99
9.93
9.76
9.80
9.15
7.04
3.09
-2.40
-8.56
-14.14
-17.88
-18.84
-16.68
-11.72
-4.91
2.29
8.27
11.61
11.54
8.18
2.51
-3.93
-9.58
-13.33
-14.82
-14.32
-12.46
-9.86
-6.91
-3.76
-0.47
2.77
5.58
7.50
8.13
7.39
5.51
3.00
0.46
-1.66
-3.15
-4.01
-4.33
-4.16
-3.47
-2.23
-0.49
1.51
3.35
4.64
5.15
5.00
4.53
4.17
4.19
4.52
4.80
4.50
3.13
0.39
-3.74
-9.02
-14.92
-20.72
-25.55
-28.64
-29.51
-28.10
-24.84
-20.45
-15.68
-11.07
-6.89
-3.12
0.37
3.71
6.94
10.04
12.92
15.42
17.30
18.25
17.98
16.37
13.46
9.52
4.86
-0.22
-5.48
-10.75
-15.75
-20.09
-23.32
-25.06
-25.13
-23.67
-21.08
-17.87
-14.52
-11.35
-8.49
-5.93
-3.64
-1.67
-0.14
0.80
1.05
0.73
0.15
-0.19
0.18
1.49
3.59
5.99
8.07
9.37
9.89
10.05
10.58
12.12
14.89
18.53
22.18
24.84
25.76
24.82
22.50
19.72
17.40
16.09
15.77
15.97
16.01
15.34
13.65
10.90
7.24
2.93
-1.64
-5.93
-9.36
-11.53
-12.38
-12.26
-11.84
-11.84
-12.76
-14.79
-17.72
-21.05
-24.10
-26.14
-26.50
-24.75
-20.80
-14.90
-7.51
0.87
9.77
18.74
27.20
34.38
39.47
41.86
41.40
38.58
34.40
30.04
26.50
24.27
23.29
23.13
23.34
23.77
24.61
26.24
28.82
32.00
34.88
36.27
35.19
31.29
24.96
17.13
8.84
0.91
-6.31
-12.86
-18.94
-24.68
-29.93
-34.24
-37.04
-37.76
-36.18
-32.43
-27.03
-20.70
-14.14
-7.88
-2.28
2.49
6.34
9.20
10.98
11.65
11.19
9.67
7.26
4.28
1.19
-1.52
-3.33
-3.89
-3.10
-1.12
1.59
4.43
6.76
8.06
8.00
6.53
3.90
0.55
-2.96
-6.24
-9.11
-11.74
-14.49
-17.76
-21.74
-26.22
-30.59
-34.01
-35.68
-35.00
-31.80
-26.28
-18.93
-10.48
-1.76
6.41
13.38
18.74
22.39
24.46
25.19
24.82
23.56
21.58
19.13
16.48
13.94
11.68
9.74
8.00
6.30
4.55
2.84
1.38
0.44
0.21
0.69
1.61
2.52
2.94
2.38
0.57
-2.61
-7.05
-12.40
-18.15
-23.54
-27.69
-29.72
-29.03
-25.51
-19.63
-12.33
-4.73
2.27
8.19
13.04
17.07
20.52
23.37
25.37
26.19
25.69
24.08
21.92
19.97
18.81
18.68
19.33
20.22
20.72
20.38
19.09
17.02
14.43
11.56
8.46
5.09
1.41
-2.54
-6.69
-10.99
-15.54
-20.48
-25.92
-31.57
-36.77
-40.54
-41.92
-40.40
-36.09
-29.70
-22.23
-14.60
-7.41
-0.92
4.80
9.69
13.63
16.47
18.11
18.57
18.07
16.94
15.56
14.31
13.48
13.30
13.85
15.13
16.99
19.19
21.42
23.27
24.33
24.29
23.03
20.76
17.92
15.07
12.65
10.87
9.57
8.38
6.86
4.71
1.78
-1.85
-5.97
-10.28
-14.41
-17.90
-20.21
-20.82
-19.32
-15.53
-9.62
-2.04
6.49
15.11
23.03
29.67
34.80
38.52
41.07
42.77
43.77
44.13
43.87
43.01
41.70
40.03
38.03
35.58
32.51
28.75
24.49
20.06
15.78
11.75
7.73
3.28
-1.91
-7.84
-14.03
-19.76
-24.40
-27.69
-29.84
-31.37
-32.80
-34.50
-36.51
-38.69
-40.76
-42.43
-43.38
-43.18
-41.36
-37.55
-31.60
-23.83
-14.99
-6.13
1.69
7.65
11.39
13.06
13.14
12.33
11.32
10.65
10.62
11.31
12.51
13.89
15.03
15.62
15.48
14.66
13.34
11.74
10.00
8.12
5.96
3.38
0.27
-3.29
-7.10
-10.82
-14.08
-16.53
-17.91
-18.16
-17.40
-15.97
-14.25
-12.55
-10.96
-9.32
-7.23
-4.27
-0.18
4.98
10.78
16.56
21.67
25.71
28.56
30.35
31.30
31.53
31.01
29.63
27.31
24.11
20.22
15.90
11.41
6.93
2.68
-1.07
-4.07
-6.09
-7.17
-7.63
-8.00
-8.77
-10.13
-11.81
-13.21
-13.67
-12.92
-11.31
-9.81
-9.64
-11.77
-16.54
-23.42
-31.14
-38.06
-42.66
-43.92
-41.53
-35.93
-28.06
-19.06
-10.01
-1.74
5.21
10.57
14.21
16.07
16.28
15.12
13.07
10.73
8.70
7.45
7.28
8.30
10.47
13.52
17.02
20.30
22.68
23.61
22.87
20.70
17.72
14.63
11.99
10.02
8.56
7.24
5.64
3.44
0.45
-3.46
-8.40
-14.34
-21.10
-28.17
-34.76
-39.94
-42.94
-43.40
-41.49
-37.79
-32.98
-27.59
-21.88
-15.91
-9.78
-3.76
1.67
6.00
8.84
10.12
10.07
9.13
7.79
6.42
5.22
4.17
3.09
1.72
-0.15
-2.61
-5.55
-8.69
-11.68
-14.18
-15.96
-16.91
-17.12
-16.82
-16.30
-15.94
-16.04
-16.81
-18.35
-20.68
-23.67
-27.08
-30.45
-33.16
-34.48
-33.82
-31.02
-26.41
-20.75
-14.96
-9.76
-5.57
-2.38
-0.01
1.76
3.04
3.86
4.24
4.26
4.11
3.98
4.02
4.26
4.68
5.17
5.71
6.31
6.98
7.71
8.34
8.56
8.06
6.61
4.24
1.21
-2.09
-5.37
-8.55
-11.70
-14.91
-18.05
-20.73
-22.40
-22.65
-21.41
-18.91
-15.63
-11.96
-8.10
-4.05
0.20
4.57
8.72
12.25
14.77
16.11
16.35
15.77
14.79
13.79
13.13
13.04
13.64
14.92
16.71
18.74
20.62
22.03
22.72
22.58
21.70
20.29
18.59
16.86
15.26
13.82
12.41
10.81
8.78
6.23
3.31
0.43
-1.85
-3.00
-2.68
-0.79
2.47
6.74
11.56
16.42
20.85
24.42
26.85
27.97
27.77
26.30
23.70
20.20
16.09
11.69
7.33
3.21
-0.55
-3.97
-7.05
-9.78
-12.09
-13.95
-15.42
-16.67
-17.92
-19.31
-20.83
-22.30
-23.52
-24.30
-24.64
-24.72
-24.85
-25.40
-26.63
-28.55
-30.83
-32.87
-33.93
-33.37
-30.84
-26.45
-20.70
-14.27
-7.88
-2.01
3.08
7.31
10.71
13.27
14.99
15.91
16.12
15.82
15.23
14.52
13.78
13.06
12.39
11.82
11.45
11.34
11.55
12.06
12.78
13.60
14.36
14.84
14.74
13.76
11.64
8.25
3.65
-1.87
-7.88
-13.83
-19.10
-23.10
-25.32
-25.45
-23.54
-20.00
-15.52
-10.85
-6.53
-2.71
0.88
4.75
9.35
14.81
20.83
26.80
31.99
35.80
37.88
38.19
36.91
34.41
31.09
27.39
23.72
20.43
17.78
15.81
14.34
12.98
11.17
8.48
4.72
0.10
-4.84
-9.50
-13.43
-16.56
-19.15
-21.62
-24.25
-27.08
-29.83
-32.03
-33.20
-32.97
-31.18
-27.93
-23.54
-18.50
-13.40
-8.78
-5.00
-2.21
-0.33
0.79
1.34
1.46
1.27
0.94
0.69
0.75
1.22
2.06
3.02
3.78
4.10
3.89
3.21
2.27
1.22
0.18
-0.86
-2.01
-3.34
-4.92
-6.75
-8.79
-10.96
-13.13
-15.19
-17.06
-18.69
-20.00
-20.83
-20.92
-19.96
-17.71
-14.13
-9.46
-4.19
1.11
5.94
9.96
13.08
15.31
16.69
17.20
16.84
15.72
14.09
12.38
10.97
10.14
9.91
10.05
10.26
10.28
10.02
9.50
8.77
7.88
6.78
5.39
3.68
1.69
-0.44
-2.51
-4.36
-5.91
-7.14
-8.20
-9.32
-10.81
-12.97
-15.98
-19.77
-23.97
-27.93
-30.91
-32.20
-31.38
-28.45
-23.76
-18.00
-11.92
-6.18
-1.20
2.85
5.92
8.02
9.18
9.47
9.10
8.41
7.82
7.64
7.94
8.53
9.14
9.45
9.34
8.77
7.75
6.22
4.11
1.44
-1.52
-4.31
-6.47
-7.72
-8.14
-8.16
-8.36
-9.32
-11.35
-14.40
-18.06
-21.63
-24.30
-25.34
-24.36
-21.40
-16.90
-11.54
-5.97
-0.66
4.19
8.58
12.52
15.97
18.82
20.93
22.17
22.53
22.08
20.96
19.42
17.79
16.47
15.77
15.87
16.73
18.03
19.31
20.08
19.95
18.76
16.55
13.53
9.96
6.09
2.13
-1.84
-5.78
-9.71
-13.68
-17.68
-21.56
-25.01
-27.56
-28.68
-27.96
-25.26
-20.79
-15.10
-8.93
-3.04
1.97
5.78
8.41
10.12
11.31
12.30
13.23
13.98
14.33
14.06
13.20
12.03
10.98
10.42
10.44
10.81
11.08
10.78
9.64
7.68
5.13
2.32
-0.44
-2.81
-4.46
-5.00
-4.18
-2.06
0.80
3.41
4.67
3.84
0.86
-3.57
-8.26
-12.03
-14.14
-14.44
-13.20
-10.85
-7.65
-3.71
0.96
6.21
11.65
16.73
20.89
23.74
25.21
25.46
24.78
23.45
21.65
19.39
16.67
13.53
10.17
6.94
4.28
2.49
1.64
1.42
1.30
0.74
-0.55
-2.51
-4.76
-6.84
-8.45
-9.58
-10.53
-11.72
-13.51
-16.06
-19.24
-22.60
-25.52
-27.28
-27.27
-25.20
-21.21
-15.85
-9.91
-4.15
1.00
5.50
9.62
13.70
17.87
21.92
25.34
27.55
28.17
27.17
24.96
22.16
19.41
17.09
15.16
13.21
10.65
6.88
1.61
-5.01
-12.26
-18.96
-23.60
-24.79
-21.74
-14.64
-4.88
5.28
13.39
17.52
16.99
12.46
5.58
-1.68
-7.74
-11.81
-13.84
-14.17
-13.18
-11.06
-7.92
-4.02
0.10
3.65
5.85
6.35
5.33
3.48
1.64
0.41
-0.10
-0.19
-0.32
-0.83
-1.75
-2.78
-3.55
-3.80
-3.53
-2.96
-2.39
-2.10
-2.21
-2.80
-3.90
-5.65
-8.19
-11.56
-15.59
-19.77
-23.35
-25.57
-25.89
-24.12
-20.53
-15.61
-10.01
-4.30
1.02
5.55
9.00
11.16
11.95
11.49
10.08
8.15
6.13
4.37
3.06
2.24
1.85
1.73
1.73
1.71
1.54
1.14
0.46
-0.51
-1.77
-3.27
-4.95
-6.77
-8.72
-10.82
-13.14
-15.70
-18.43
-21.06
-23.16
-24.21
-23.80
-21.75
-18.20
-13.53
-8.27
-2.91
2.11
6.45
9.82
12.00
12.91
12.63
11.44
9.78
8.08
6.72
5.89
5.60
5.74
6.08
6.39
6.47
6.21
5.57
4.61
3.42
2.10
0.74
-0.67
-2.14
-3.77
-5.61
-7.74
-10.19
-12.89
-15.66
-18.16
-19.93
-20.52
-19.56
-16.96
-12.87
-7.76
-2.22
3.14
7.84
11.58
14.27
15.94
16.71
16.70
16.05
14.89
13.46
12.02
10.87
10.23
10.14
10.42
10.71
10.64
9.99
8.72
7.04
5.20
3.41
1.76
0.20
-1.35
-2.99
-4.76
-6.74
-8.99
-11.56
-14.34
-17.03
-19.08
-19.86
-18.89
-16.02
-11.54
-6.11
-0.50
4.61
8.74
11.71
13.57
14.49
14.67
14.33
13.67
12.83
11.94
11.03
10.10
9.10
7.98
6.74
5.42
4.11
2.89
1.80
0.88
0.11
-0.55
-1.13
-1.71
-2.40
-3.40
-4.90
-7.00
-9.65
-12.53
-15.11
-16.77
-16.97
-15.45
-12.26
-7.76
-2.50
2.91
7.94
12.18
15.36
17.38
18.26
18.09
17.08
15.49
13.61
11.77
10.19
8.99
8.11
7.37
6.53
5.44
4.13
2.79
1.70
1.00
0.62
0.29
-0.36
-1.57
-3.43
-5.84
-8.58
-11.36
-13.85
-15.67
-16.42
-15.81
-13.75
-10.39
-6.14
-1.49
3.07
7.17
10.54
13.04
14.58
15.13
14.81
13.80
12.40
10.90
9.52
8.35
7.39
6.54
5.68
4.74
3.68
2.58
1.53
0.63
-0.09
-0.72
-1.43
-2.40
-3.77
-5.57
-7.72
-10.08
-12.44
-14.60
-16.32
-17.32
-17.32
-16.12
-13.66
-10.13
-5.90
-1.45
2.74
6.32
9.13
11.13
12.42
13.11
13.33
13.19
12.75
12.11
11.33
10.51
9.70
8.96
8.27
7.59
6.86
6.02
5.10
4.15
3.22
2.36
1.52
0.63
-0.39
-1.56
-2.90
-4.36
-5.96
-7.77
-9.85
-12.17
-14.53
-16.55
-17.74
-17.68
-16.17
-13.31
-9.48
-5.18
-0.89
3.05
6.46
9.26
11.38
12.80
13.48
13.45
12.86
11.92
10.92
10.11
9.68
9.65
9.92
10.31
10.56
10.51
10.07
9.28
8.23
7.08
5.93
4.82
3.75
2.69
1.57
0.38
-0.94
-2.39
-3.97
-5.67
-7.44
-9.25
-11.08
-12.96
-14.93
-17.01
-19.17
-21.25
-22.95
-23.85
-23.56
-21.81
-18.61
-14.28
-9.29
-4.22
0.47
4.47
7.64
9.95
11.43
12.16
12.28
12.02
11.63
11.32
11.22
11.32
11.53
11.71
11.77
11.67
11.41
11.01
10.50
9.88
9.16
8.35
7.49
6.59
5.65
4.66
3.54
2.24
0.74
-0.95
-2.72
-4.46
-6.05
-7.46
-8.74
-9.98
-11.30
-12.77
-14.42
-16.21
-18.03
-19.67
-20.85
-21.21
-20.45
-18.45
-15.30
-11.34
-7.03
-2.81
0.97
4.11
6.57
8.35
9.50
10.08
10.19
9.93
9.42
8.75
8.00
7.26
6.57
5.98
5.49
5.11
4.85
4.72
4.70
4.68
4.53
4.07
3.19
1.88
0.29
-1.33
-2.79
-3.95
-4.84
-5.55
-6.23
-7.01
-8.01
-9.28
-10.77
-12.34
-13.68
-14.46
-14.35
-13.14
-10.86
-7.73
-4.13
-0.51
2.77
5.47
7.47
8.75
9.37
9.43
9.06
8.42
7.69
7.01
6.44
6.02
5.67
5.33
4.90
4.37
3.75
3.07
2.41
1.80
1.21
0.57
-0.24
-1.33
-2.68
-4.18
-5.59
-6.75
-7.63
-8.39
-9.33
-10.78
-12.84
-15.38
-17.98
-20.02
-20.85
-19.91
-16.93
-11.99
-5.56
1.57
8.54
14.59
19.29
22.56
24.61
25.76
26.26
26.20
25.56
24.27
22.40
20.17
17.95
16.18
15.18
15.07
15.64
16.46
16.95
16.57
15.01
12.20
8.38
4.00
-0.49
-4.69
-8.40
-11.59
-14.39
-16.94
-19.37
-21.71
-23.97
-26.04
-27.80
-29.00
-29.38
-28.68
-26.74
-23.60
-19.55
-15.04
-10.59
-6.62
-3.43
-1.14
0.26
0.84
0.78
0.34
-0.11
-0.16
0.49
1.96
4.09
6.50
8.75
10.44
11.39
11.61
11.20
10.28
8.86
6.90
4.33
1.18
-2.38
-6.04
-9.46
-12.33
-14.50
-15.98
-16.91
-17.51
-17.96
-18.34
-18.61
-18.61
-18.09
-16.79
-14.57
-11.46
-7.72
-3.75
0.00
3.18
5.63
7.36
8.54
9.29
9.70
9.79
9.50
8.80
7.71
6.32
4.79
3.29
1.97
0.94
0.20
-0.30
-0.59
-0.76
-0.86
-0.98
-1.25
-1.83
-2.90
-4.55
-6.74
-9.31
-11.97
-14.44
-16.48
-17.89
-18.52
-18.28
-17.09
-14.94
-11.90
-8.16
-4.03
0.17
4.08
7.47
10.21
12.26
13.68
14.55
14.90
14.73
14.05
12.89
11.42
9.89
8.54
7.54
6.88
6.41
5.96
5.39
4.69
3.92
3.18
2.49
1.78
0.92
-0.22
-1.71
-3.57
-5.79
-8.31
-11.01
-13.65
-15.84
-17.12
-17.01
-15.24
-11.82
-7.15
-1.88
3.18
7.37
10.28
11.86
12.33
12.04
11.29
10.28
9.09
7.77
6.45
5.31
4.61
4.49
4.97
5.84
6.82
7.63
8.12
8.27
8.19
7.94
7.56
7.01
6.22
5.17
3.90
2.48
0.98
-0.57
-2.10
-3.50
-4.53
-4.89
-4.32
-2.66
0.03
3.52
7.44
11.42
15.19
18.56
21.45
23.79
25.46
26.34
26.34
25.48
23.90
21.85
19.59
17.33
15.18
13.20
11.45
10.01
8.93
8.17
7.54
6.76
5.55
3.79
1.54
-0.96
-3.43
-5.69
-7.76
-9.76
-11.93
-14.42
-17.32
-20.51
-23.77
-26.73
-28.96
-29.94
-29.25
-26.62
-22.10
-16.08
-9.27
-2.45
3.68
8.64
12.23
14.45
15.38
15.16
13.95
11.99
9.60
7.16
5.02
3.41
2.41
1.90
1.70
1.56
1.32
0.93
0.49
0.20
0.22
0.62
1.24
1.80
2.00
1.69
0.90
-0.15
-1.22
-2.17
-3.02
-3.90
-4.98
-6.33
-7.95
-9.74
-11.60
-13.41
-15.04
-16.29
-16.89
-16.57
-15.12
-12.55
-9.06
-5.02
-0.88
2.93
6.12
8.52
10.09
10.90
11.08
10.84
10.40
9.94
9.57
9.31
9.14
9.00
8.88
8.85
8.95
9.20
9.55
9.86
10.02
9.97
9.71
9.27
8.68
7.93
7.00
5.87
4.55
3.12
1.63
0.18
-1.16
-2.32
-3.23
-3.84
-4.15
-4.22
-4.18
-4.21
-4.47
-5.05
-5.96
-7.07
-8.22
-9.21
-9.93
-10.38
-10.68
-11.00
-11.52
-12.33
-13.41
-14.61
-15.69
-16.41
-16.48
-15.74
-14.10
-11.63
-8.52
-5.08
-1.62
1.56
4.28
6.43
8.03
9.17
9.96
10.50
10.86
11.08
11.17
11.16
11.03
10.78
10.40
9.88
9.23
8.51
7.80
7.19
6.73
6.42
6.17
5.87
5.40
4.66
3.68
2.50
1.23
-0.01
-1.19
-2.30
-3.37
-4.46
-5.53
-6.57
-7.55
-8.52
-9.57
-10.80
-12.22
-13.67
-14.86
-15.44
-15.10
-13.73
-11.45
-8.58
-5.54
-2.74
-0.43
1.32
2.61
3.62
4.49
5.24
5.78
6.02
5.93
5.59
5.16
4.83
4.70
4.80
5.08
5.47
5.91
6.32
6.57
6.46
5.84
4.65
3.04
1.30
-0.22
-1.28
-1.87
-2.18
-2.52
-3.16
-4.24
-5.77
-7.63
-9.66
-11.66
-13.37
-14.46
-14.64
-13.70
-11.66
-8.76
-5.40
-2.02
1.00
3.48
5.38
6.69
7.46
7.69
7.45
6.85
6.11
5.50
5.20
5.27
5.61
6.01
6.31
6.39
6.27
6.02
5.72
5.41
5.06
4.64
4.11
3.42
2.56
1.50
0.26
-1.08
-2.46
-3.83
-5.23
-6.80
-8.70
-11.02
-13.62
-16.15
-18.11
-18.98
-18.39
-16.31
-12.96
-8.83
-4.46
-0.30
3.34
6.34
8.65
10.31
11.33
11.71
11.51
10.83
9.86
8.82
7.90
7.18
6.67
6.31
6.00
5.71
5.41
5.13
4.90
4.72
4.53
4.19
3.57
2.56
1.16
-0.50
-2.20
-3.73
-4.98
-6.00
-7.01
-8.23
-9.86
-11.87
-14.03
-15.91
-17.03
-16.97
-15.53
-12.78
-9.05
-4.79
-0.48
3.50
6.90
9.60
11.58
12.84
13.42
13.37
12.84
11.99
11.02
10.04
9.12
8.19
7.18
6.03
4.79
3.61
2.68
2.13
1.98
2.11
2.25
2.17
1.70
0.80
-0.42
-1.80
-3.14
-4.29
-5.16
-5.79
-6.28
-6.80
-7.52
-8.53
-9.75
-10.94
-11.73
-11.79
-10.90
-9.08
-6.50
-3.45
-0.25
2.84
5.62
7.91
9.61
10.68
11.12
11.04
10.58
9.93
9.25
8.70
8.37
8.28
8.39
8.55
8.62
8.45
7.99
7.31
6.51
5.73
5.07
4.53
4.02
3.43
2.68
1.75
0.67
-0.50
-1.70
-2.89
-4.06
-5.22
-6.37
-7.49
-8.61
-9.78
-11.07
-12.55
-14.20
-15.85
-17.19
-17.83
-17.45
-15.88
-13.23
-9.76
-5.88
-1.98
1.64
4.78
7.32
9.24
10.54
11.27
11.50
11.32
10.83
10.14
9.40
8.75
8.30
8.09
8.05
8.02
7.84
7.43
6.83
6.18
5.67
5.40
5.34
5.35
5.23
4.86
4.21
3.41
2.66
2.14
1.95
2.08
2.44
2.87
3.21
3.34
3.21
2.88
2.51
2.38
2.86
4.28
6.84
10.48
14.81
19.23
23.10
25.97
27.69
28.47
28.68
28.71
28.82
29.06
29.40
29.72
30.01
30.28
30.58
30.91
31.21
31.35
31.21
30.69
29.80
28.62
27.25
25.78
24.18
22.35
20.15
17.50
14.45
11.23
8.13
5.41
3.23
1.52
0.10
-1.33
-3.02
-5.09
-7.52
-10.17
-12.88
-15.54
-18.09
-20.54
-22.77
-24.56
-25.57
-25.44
-23.92
-21.04
-17.06
-12.45
-7.78
-3.65
-0.66
0.62
-0.30
-3.61
-9.08
-16.00
-23.26
-29.67
-34.31
-36.79
-37.27
-36.32
-34.59
-32.59
-30.54
-28.52
-26.54
-24.68
-23.11
-22.00
-21.40
-21.24
-21.29
-21.35
-21.26
-21.03
-20.75
-20.59
-20.62
-20.84
-21.08
-21.10
-20.66
-19.70
-18.32
-16.84
-15.62
-14.87
-14.50
-14.07
-12.98
-10.68
-6.93
-1.86
4.05
10.18
15.93
20.82
24.44
26.46
26.61
24.76
21.11
16.20
10.87
6.02
2.34
0.14
-0.76
-0.82
-0.63
-0.63
-1.02
-1.69
-2.36
-2.73
-2.61
-2.02
-1.10
-0.10
0.69
1.04
0.81
-0.06
-1.53
-3.45
-5.59
-7.70
-9.59
-11.17
-12.52
-13.81
-15.25
-16.94
-18.81
-20.63
-22.03
-22.64
-22.25
-20.90
-18.89
-16.70
-14.78
-13.40
-12.63
-12.37
-12.45
-12.77
-13.27
-13.89
-14.50
-14.89
-14.82
-14.13
-12.84
-11.17
-9.39
-7.77
-6.40
-5.19
-3.94
-2.49
-0.85
0.78
2.08
2.77
2.75
2.09
1.01
-0.27
-1.65
-3.17
-4.92
-6.99
-9.37
-11.97
-14.64
-17.20
-19.46
-21.22
-22.25
-22.35
-21.38
-19.31
-16.25
-12.47
-8.30
-4.10
-0.18
3.18
5.81
7.59
8.49
8.61
8.17
7.46
6.81
6.49
6.65
7.26
8.18
9.17
10.02
10.58
10.78
10.66
10.28
9.71
9.00
8.15
7.18
6.09
4.86
3.50
1.93
0.09
-2.06
-4.48
-7.05
-9.58
-11.96
-14.17
-16.29
-18.37
-20.32
-21.89
-22.65
-22.17
-20.21
-16.78
-12.17
-6.88
-1.48
3.54
7.81
11.14
13.47
14.84
15.35
15.18
14.53
13.60
12.63
11.80
11.25
11.03
11.11
11.39
11.74
12.03
12.16
12.13
11.93
11.59
11.08
10.28
9.08
7.40
5.30
2.93
0.54
-1.68
-3.60
-5.28
-6.83
-8.42
-10.20
-12.18
-14.24
-16.08
-17.30
-17.48
-16.32
-13.78
-10.06
-5.56
-0.72
4.07
8.53
12.45
15.67
18.04
19.45
19.87
19.34
18.04
16.20
14.10
12.01
10.16
8.69
7.67
7.04
6.67
6.43
6.21
5.92
5.55
5.10
4.57
3.97
3.30
2.55
1.68
0.61
-0.72
-2.37
-4.36
-6.61
-9.02
-11.42
-13.61
-15.34
-16.31
-16.21
-14.76
-11.81
-7.46
-2.10
3.71
9.31
14.17
17.98
20.70
22.49
23.64
24.39
24.82
24.89
24.37
23.03
20.75
17.61
13.92
10.21
6.99
4.63
3.22
2.50
2.01
1.28
-0.04
-2.03
-4.49
-7.08
-9.44
-11.33
-12.68
-13.58
-14.27
-15.00
-16.00
-17.32
-18.83
-20.21
-21.00
-20.71
-18.97
-15.66
-10.94
-5.24
0.87
6.82
12.14
16.53
19.84
21.99
22.97
22.80
21.62
19.65
17.27
14.88
12.81
11.18
9.89
8.66
7.18
5.34
3.20
1.04
-0.86
-2.36
-3.51
-4.51
-5.52
-6.53
-7.39
-7.90
-8.00
-7.85
-7.86
-8.45
-9.93
-12.29
-15.23
-18.23
-20.78
-22.44
-22.96
-22.22
-20.23
-17.10
-13.02
-8.31
-3.36
1.38
5.56
9.00
11.65
13.57
14.80
15.33
15.08
14.03
12.31
10.24
8.30
6.92
6.37
6.64
7.46
8.46
9.32
9.86
10.09
10.10
9.99
9.74
9.26
8.45
7.22
5.62
3.75
1.79
-0.12
-1.87
-3.37
-4.57
-5.51
-6.31
-7.18
-8.34
-9.89
-11.67
-13.32
-14.35
-14.28
-12.88
-10.16
-6.40
-2.06
2.31
6.23
9.35
11.49
12.68
13.13
13.08
12.76
12.27
11.62
10.80
9.86
8.91
8.08
7.45
6.97
6.51
5.97
5.31
4.60
3.99
3.56
3.33
3.19
2.98
2.55
1.78
0.66
-0.77
-2.40
-4.12
-5.79
-7.32
-8.65
-9.82
-10.91
-12.06
-13.38
-14.95
-16.74
-18.60
-20.23
-21.22
-21.14
-19.65
-16.62
-12.21
-6.80
-0.95
4.81
10.01
14.35
17.61
19.69
20.55
20.30
19.18
17.57
15.89
14.48
13.58
13.23
13.34
13.74
14.24
14.65
14.81
14.56
13.87
12.77
11.39
9.88
8.38
6.94
5.55
4.18
2.78
1.36
-0.06
-1.47
-2.88
-4.35
-5.91
-7.58
-9.31
-11.01
-12.58
-13.90
-14.83
-15.20
-14.78
-13.37
-10.89
-7.42
-3.28
1.07
5.10
8.42
10.82
12.33
13.11
13.36
13.27
13.00
12.70
12.49
12.41
12.45
12.51
12.54
12.54
12.61
12.84
13.22
13.60
13.72
13.39
12.55
11.37
10.15
9.13
8.47
8.15
8.08
8.11
8.10
7.86
7.23
6.03
4.26
2.07
-0.20
-2.15
-3.50
-4.22
-4.52
-4.84
-5.64
-7.23
-9.66
-12.68
-15.76
-18.27
-19.59
-19.37
-17.57
-14.48
-10.57
-6.35
-2.23
1.55
4.83
7.51
9.44
10.49
10.58
9.82
8.49
6.93
5.49
4.36
3.59
3.09
2.80
2.66
2.65
2.75
2.92
3.05
3.04
2.85
2.52
2.15
1.82
1.54
1.25
0.86
0.25
-0.59
-1.64
-2.82
-4.05
-5.27
-6.40
-7.42
-8.26
-8.94
-9.51
-10.08
-10.82
-11.85
-13.22
-14.85
-16.48
-17.73
-18.17
-17.44
-15.40
-12.15
-8.07
-3.65
0.60
4.33
7.36
9.67
11.31
12.39
12.96
13.12
12.96
12.58
12.12
11.72
11.47
11.42
11.54
11.70
11.73
11.47
10.84
9.89
8.80
7.77
6.93
6.26
5.54
4.48
2.86
0.63
-1.99
-4.66
-7.01
-8.87
-10.27
-11.44
-12.67
-14.16
-15.98
-18.09
-20.40
-22.78
-24.99
-26.65
-27.27
-26.34
-23.58
-19.06
-13.22
-6.72
-0.20
5.90
11.45
16.46
20.93
24.66
27.23
28.18
27.18
24.27
19.96
15.05
10.44
6.79
4.35
2.95
2.17
1.53
0.72
-0.37
-1.68
-3.11
-4.61
-6.19
-7.85
-9.49
-10.96
-12.10
-12.85
-13.34
-13.86
-14.74
-16.21
-18.28
-20.70
-23.01
-24.67
-25.20
-24.27
-21.85
-18.18
-13.71
-8.98
-4.43
-0.35
3.20
6.26
8.95
11.31
13.30
14.85
15.88
16.38
16.42
16.17
15.83
15.59
15.57
15.87
16.49
17.43
18.65
20.09
21.71
23.42
25.19
27.00
28.84
30.72
32.51
33.98
34.77
34.57
33.23
30.89
27.93
24.84
22.02
19.67
17.73
16.05
14.53
13.16
12.03
11.24
10.82
10.67
10.59
10.35
9.78
8.80
7.40
5.66
3.69
1.63
-0.43
-2.44
-4.34
-6.12
-7.73
-9.08
-10.00
-10.38
-10.18
-9.48
-8.52
-7.57
-6.90
-6.69
-6.92
-7.47
-8.16
-8.85
-9.55
-10.31
-11.29
-12.58
-14.22
-16.12
-18.15
-20.16
-22.05
-23.75
-25.23
-26.48
-27.56
-28.53
-29.56
-30.75
-32.13
-33.52
-34.56
-34.82
-33.93
-31.70
-28.23
-23.80
-18.83
-13.74
-8.87
-4.46
-0.68
2.39
4.69
6.24
7.08
7.34
7.19
6.82
6.41
6.07
5.84
5.69
5.56
5.40
5.21
5.02
4.88
4.79
4.75
4.68
4.52
4.16
3.54
2.61
1.38
-0.08
-1.64
-3.14
-4.51
-5.72
-6.91
-8.27
-9.99
-12.17
-14.75
-17.54
-20.26
-22.62
-24.31
-25.09
-24.72
-23.08
-20.18
-16.30
-11.88
-7.45
-3.48
-0.22
2.29
4.18
5.64
6.78
7.66
8.24
8.51
8.47
8.10
7.39
6.27
4.76
2.93
0.99
-0.81
-2.25
-3.26
-3.92
-4.38
-4.80
-5.20
-5.54
-5.70
-5.64
-5.50
-5.48
-5.79
-6.54
-7.64
-8.88
-10.01
-10.83
-11.32
-11.61
-11.92
-12.51
-13.59
-15.30
-17.58
-20.21
-22.79
-24.82
-25.79
-25.31
-23.26
-19.81
-15.34
-10.40
-5.50
-1.04
2.75
5.79
8.05
9.54
10.27
10.31
9.85
9.17
8.65
8.56
9.00
9.87
10.89
11.75
12.23
12.27
11.97
11.50
11.01
10.57
10.12
9.52
8.61
7.30
5.62
3.73
1.87
0.20
-1.22
-2.44
-3.61
-4.86
-6.29
-7.93
-9.80
-11.90
-14.14
-16.36
-18.17
-19.16
-18.94
-17.31
-14.36
-10.40
-5.86
-1.19
3.21
7.05
10.13
12.35
13.69
14.25
14.19
13.71
13.00
12.18
11.38
10.70
10.22
10.00
10.00
10.13
10.27
10.32
10.23
10.02
9.70
9.30
8.74
7.93
6.78
5.26
3.47
1.58
-0.21
-1.76
-3.03
-4.17
-5.35
-6.79
-8.62
-10.83
-13.29
-15.77
-17.93
-19.40
-19.85
-19.03
-16.88
-13.55
-9.40
-4.94
-0.63
3.21
6.41
8.96
10.89
12.25
13.01
13.16
12.71
11.79
10.60
9.39
8.38
7.69
7.30
7.15
7.15
7.24
7.42
7.66
7.89
7.94
7.60
6.71
5.23
3.33
1.28
-0.60
-2.11
-3.26
-4.21
-5.26
-6.64
-8.47
-10.69
-13.09
-15.33
-16.98
-17.65
-17.00
-14.93
-11.59
-7.40
-2.90
1.33
4.93
7.72
9.74
11.12
11.94
12.27
12.13
11.61
10.84
10.02
9.31
8.82
8.54
8.37
8.21
8.01
7.76
7.47
7.14
6.72
6.07
5.07
3.60
1.65
-0.67
-3.13
-5.48
-7.48
-9.07
-10.33
-11.50
-12.85
-14.58
-16.69
-18.89
-20.69
-21.43
-20.58
-17.82
-13.25
-7.39
-1.02
4.99
9.99
13.59
15.79
16.80
16.93
16.41
15.41
14.05
12.46
10.87
9.52
8.63
8.23
8.21
8.30
8.24
7.90
7.34
6.73
6.23
5.86
5.45
4.79
3.67
2.13
0.36
-1.31
-2.64
-3.58
-4.34
-5.27
-6.74
-8.89
-11.56
-14.29
-16.42
-17.36
-16.75
-14.59
-11.20
-7.05
-2.63
1.66
5.55
8.87
11.49
13.36
14.49
14.92
14.73
14.03
12.92
11.54
10.07
8.69
7.59
6.91
6.67
6.78
7.10
7.47
7.77
7.92
7.85
7.51
6.87
5.88
4.54
2.95
1.26
-0.33
-1.65
-2.67
-3.50
-4.40
-5.66
-7.48
-9.86
-12.61
-15.38
-17.73
-19.28
-19.70
-18.79
-16.49
-12.94
-8.50
-3.71
0.83
4.63
7.44
9.32
10.45
11.05
11.23
10.99
10.32
9.37
8.40
7.75
7.68
8.18
9.02
9.86
10.41
10.54
10.30
9.80
9.13
8.31
7.27
5.92
4.25
2.32
0.27
-1.72
-3.53
-5.07
-6.36
-7.49
-8.57
-9.66
-10.82
-12.08
-13.46
-14.98
-16.68
-18.50
-20.21
-21.44
-21.73
-20.69
-18.18
-14.37
-9.68
-4.66
0.21
4.57
8.24
11.15
13.26
14.57
15.10
14.94
14.22
13.15
11.92
10.73
9.70
8.90
8.35
8.04
7.94
8.00
8.16
8.36
8.47
8.39
8.01
7.27
6.22
4.94
3.58
2.24
0.97
-0.25
-1.53
-3.00
-4.79
-6.96
