1653129909.00
64.000000
-0.00
-0.00
-0.00
-0.00
-0.00
-0.00
-0.00
-0.00
-0.00
-0.00
0.00
0.01
0.01
-0.00
-0.03
-0.05
-0.05
0.00
0.13
0.36
0.66
1.01
1.37
1.72
2.06
2.40
2.79
3.24
3.80
4.42
5.06
5.66
6.20
6.68
7.15
7.68
8.31
9.14
10.09
11.04
11.88
12.56
13.14
13.76
14.65
15.96
17.91
20.32
22.90
25.38
27.58
29.57
31.68
34.32
37.81
42.54
48.15
54.10
59.83
64.97
69.58
74.14
79.34
85.71
93.76
103.00
112.62
121.73
129.77
136.75
143.30
150.75
157.77
166.64
177.95
191.79
206.97
220.57
228.25
225.36
208.53
176.87
132.76
80.05
23.07
-34.94
-92.44
-149.16
-205.23
-260.37
-313.74
-363.88
-409.84
-450.91
-486.50
-515.74
-537.22
-549.21
-549.94
-538.33
-514.14
-478.59
-433.76
-382.29
-326.82
-269.59
-212.33
-156.29
-102.53
-51.88
-5.35
36.20
72.12
102.12
126.34
145.30
159.70
170.25
177.57
182.05
183.99
183.62
181.20
177.09
171.69
165.42
158.61
151.52
144.29
137.00
129.67
122.37
115.14
108.07
101.23
94.67
88.41
82.49
76.90
71.66
66.77
62.26
58.12
54.36
50.98
47.97
45.32
43.02
41.08
39.49
38.26
37.38
36.86
36.65
36.74
37.04
37.46
37.88
38.11
37.99
37.34
36.00
33.83
30.79
26.89
22.15
16.74
10.84
4.72
-1.36
-7.13
-12.36
-16.84
-20.45
-23.12
-24.83
-25.63
-25.63
-24.94
-23.69
-22.00
-19.97
-17.70
-15.24
-12.62
-9.88
-7.07
-4.19
-1.28
1.66
4.60
7.53
10.43
13.33
16.17
18.91
21.57
24.17
26.78
29.48
32.34
35.47
38.98
42.80
46.90
51.24
55.79
60.50
65.36
70.34
75.46
80.80
86.15
91.41
96.56
101.57
106.47
111.30
116.12
121.01
126.06
131.01
135.65
139.76
143.12
145.41
146.27
145.15
141.32
136.23
130.42
124.25
117.95
111.69
105.58
99.70
94.08
88.78
83.89
79.14
74.39
69.53
64.49
59.24
53.78
48.14
42.45
36.91
31.52
26.36
21.56
17.23
13.45
10.23
7.58
5.48
3.98
2.95
2.32
2.02
1.91
1.74
1.21
0.03
-2.02
-4.96
-8.71
-13.06
-17.73
-22.59
-27.69
-33.24
-39.50
-46.59
-54.40
-62.56
-70.57
-77.98
-84.70
-91.03
-97.60
-105.11
-114.05
-124.44
-135.84
-147.60
-159.08
-170.03
-180.61
-191.21
-202.37
-214.56
-228.19
-243.55
-260.52
-278.15
-294.37
-306.22
-310.65
-305.76
-291.73
-270.91
-246.90
-223.10
-201.65
-183.07
-166.93
-152.74
-140.58
-130.87
-123.85
-118.89
-114.47
-108.82
-100.74
-90.30
-78.76
-67.99
-59.39
-53.22
-48.47
-43.32
-36.03
-25.83
-13.23
0.24
12.66
22.57
29.31
33.16
34.99
35.91
36.96
38.87
42.01
46.20
50.84
54.94
57.59
58.21
56.74
53.60
49.38
44.64
39.59
34.28
28.68
22.91
17.28
12.19
7.98
4.77
2.45
0.71
-0.84
-2.64
-5.15
-8.70
-13.40
-18.95
-24.53
-28.92
-30.77
-29.11
-23.64
-14.92
-4.16
7.24
18.09
27.64
35.60
41.92
46.61
49.55
50.62
49.76
47.09
42.94
37.80
32.21
26.69
21.65
17.39
14.10
11.84
10.53
10.02
10.03
10.16
10.03
9.24
7.62
5.15
2.03
-1.37
-4.73
-7.76
-10.31
-12.34
-13.82
-14.76
-15.23
-15.37
-15.38
-15.54
-16.07
-17.16
-18.76
-20.56
-21.97
-22.16
-20.25
-15.55
-7.85
2.53
14.68
27.46
39.77
50.82
60.26
68.15
74.74
80.31
85.05
89.10
92.66
96.06
99.76
104.16
109.32
114.84
119.80
123.01
123.36
120.13
113.22
103.03
90.40
76.28
61.72
47.58
34.60
23.23
13.59
5.55
-1.24
-7.08
-12.19
-16.60
-20.26
-23.28
-25.95
-28.79
-32.40
-37.29
-43.68
-51.48
-60.13
-68.68
-75.87
-80.35
-81.02
-77.32
-69.53
-58.75
-46.69
-35.26
-25.98
-19.66
-16.23
-15.00
-15.04
-15.64
-16.49
-17.70
-19.44
-21.63
-23.79
-25.19
-25.15
-23.44
-20.44
-16.88
-13.50
-10.67
-8.27
-5.81
-2.81
0.87
4.86
8.38
10.55
10.73
8.72
4.82
-0.36
-6.15
-12.01
-17.72
-23.30
-28.95
-34.87
-41.06
-47.26
-52.87
-57.06
-58.91
-57.69
-53.11
-45.49
-35.76
-25.27
-15.39
-7.10
-0.79
3.81
7.32
10.34
13.14
15.58
17.36
18.38
19.01
20.06
22.43
26.59
32.23
38.33
43.52
46.71
47.50
46.24
43.71
40.65
37.47
34.10
30.29
25.83
20.73
15.26
9.85
4.89
0.62
-2.96
-6.09
-9.16
-12.58
-16.73
-21.80
-27.84
-34.72
-42.17
-49.63
-56.24
-60.87
-62.26
-59.44
-52.04
-40.56
-26.32
-11.10
3.32
15.63
25.23
32.24
37.24
41.08
44.59
48.33
52.58
57.23
61.89
66.03
69.10
70.68
70.54
68.66
65.24
60.56
54.91
48.57
41.68
34.35
26.64
18.69
10.66
2.79
-4.70
-11.70
-18.25
-24.51
-30.72
-37.05
-43.59
-50.29
-57.02
-63.62
-69.99
-76.16
-82.34
-88.85
-95.94
-103.53
-111.11
-117.69
-121.98
-122.73
-118.98
-110.29
-96.85
-79.46
-59.46
-38.55
-18.57
-1.08
12.80
22.69
28.76
31.48
31.39
28.96
24.73
19.47
14.29
10.53
9.32
11.18
15.82
22.27
29.25
35.68
40.95
45.02
48.16
50.72
52.86
54.56
55.61
55.92
55.65
55.29
55.62
57.51
61.54
67.76
75.46
83.21
89.27
91.91
89.98
83.07
71.64
56.88
40.57
24.73
11.36
2.05
-2.46
-2.55
0.33
4.09
6.71
6.99
4.85
1.24
-2.34
-4.49
-4.39
-1.99
2.22
7.42
12.72
17.32
20.66
22.42
22.66
21.78
20.45
19.42
19.27
20.21
21.97
23.88
25.07
24.84
22.83
19.17
14.39
9.18
4.13
-0.47
-4.70
-8.85
-13.26
-18.08
-23.19
-28.30
-33.12
-37.46
-41.34
-44.93
-48.45
-52.13
-56.13
-60.46
-64.95
-69.05
-71.93
-72.47
-69.66
-62.91
-52.38
-38.99
-24.28
-9.94
2.57
12.38
19.28
23.55
25.76
26.49
26.23
25.40
24.42
23.72
23.73
24.75
26.72
29.27
31.68
33.26
33.55
32.48
30.35
27.63
24.76
21.94
19.19
16.40
13.40
10.14
6.64
2.96
-0.75
-4.41
-7.90
-11.16
-14.27
-17.40
-20.85
-24.91
-29.81
-35.67
-42.38
-49.59
-56.65
-62.65
-66.52
-67.33
-64.51
-58.11
-48.83
-37.84
-26.50
-15.92
-6.80
0.65
6.53
11.09
14.50
16.81
17.98
18.02
17.08
15.44
13.57
11.92
10.81
10.34
10.42
10.80
11.25
11.65
11.95
12.14
12.17
11.84
10.87
8.96
5.91
1.69
-3.58
-9.61
-16.04
-22.49
-28.66
-34.47
-40.00
-45.55
-51.43
-57.94
-65.19
-72.97
-80.75
-87.64
-92.55
-94.36
-92.27
-86.09
-76.44
-64.59
-52.10
-40.31
-29.99
-21.20
-13.62
-6.86
-0.78
4.38
8.26
10.69
11.85
12.32
12.85
14.07
16.25
19.16
22.20
24.59
25.60
24.76
22.01
17.74
12.68
7.78
3.88
1.55
0.87
1.50
2.87
4.43
5.87
7.05
7.99
8.66
8.82
8.06
5.89
1.89
-4.04
-11.51
-19.70
-27.33
-33.04
-35.64
-34.48
-29.66
-22.01
-12.91
-3.94
3.58
8.84
11.68
12.53
12.10
11.06
9.82
8.57
7.48
6.97
7.81
10.90
16.90
25.81
36.85
48.71
60.13
70.27
78.99
86.61
93.56
100.05
105.98
111.14
115.47
119.20
122.73
126.31
129.75
132.40
133.35
131.78
127.21
119.64
109.40
97.02
83.16
68.63
54.51
42.11
32.83
27.69
26.99
30.10
35.59
41.64
46.64
49.64
50.50
49.67
47.81
45.40
42.58
39.18
35.06
30.25
25.05
19.88
15.05
10.65
6.50
2.45
-1.58
-5.39
-8.72
-11.34
-13.28
-14.83
-16.45
-18.55
-21.35
-24.86
-28.94
-33.36
-38.00
-42.75
-47.61
-52.61
-57.87
-63.52
-69.63
-76.13
-82.96
-90.01
-97.21
-104.51
-111.65
-117.93
-122.26
-123.28
-119.95
-111.98
-100.18
-86.29
-72.43
-60.27
-50.49
-42.61
-35.45
-27.78
-19.03
-9.50
-0.16
7.91
14.10
18.54
21.89
24.88
27.78
30.32
31.76
31.42
29.03
25.01
20.24
15.70
12.14
9.77
8.33
7.38
6.52
5.62
4.83
4.40
4.45
4.74
4.66
3.41
0.30
-5.04
-12.46
-21.35
-30.81
-39.71
-46.91
-51.39
-52.48
-50.01
-44.45
-36.77
-28.20
-19.86
-12.52
-6.46
-1.63
2.15
5.02
7.08
8.48
9.55
10.76
12.68
15.70
19.87
24.81
29.84
34.22
37.35
38.99
39.29
38.59
37.27
35.52
33.34
30.53
26.84
22.15
16.63
10.71
5.06
0.34
-3.00
-4.85
-5.47
-5.40
-5.20
-5.30
-5.92
-7.05
-8.57
-10.13
-11.25
-11.23
-9.33
-5.04
1.70
10.24
19.45
27.99
34.85
39.50
42.08
43.08
43.04
42.37
41.21
39.54
37.32
34.64
31.75
29.01
26.82
25.44
24.94
25.10
25.50
25.62
25.05
23.60
21.36
18.52
15.25
11.66
7.68
3.22
-1.77
-7.21
-12.88
-18.44
-23.53
-27.90
-31.41
-34.11
-36.26
-38.21
-40.43
-43.32
-47.13
-51.77
-56.76
-61.22
-64.00
-64.06
-60.72
-53.95
-44.46
-33.44
-22.26
-12.07
-3.55
3.10
8.06
11.65
14.09
15.50
15.99
15.67
14.78
13.64
12.53
11.65
10.97
10.41
9.81
9.14
8.44
7.77
7.18
6.67
6.17
5.57
4.77
3.58
1.84
-0.64
-3.97
-8.09
-12.74
-17.54
-22.07
-26.01
-29.21
-31.68
-33.58
-35.14
-36.65
-38.53
-41.13
-44.70
-49.12
-53.76
-57.43
-58.75
-56.59
-50.50
-41.00
-29.34
-17.13
-5.77
3.85
11.41
16.97
20.71
22.76
23.19
22.16
20.02
17.25
14.46
12.13
10.58
9.89
10.00
10.69
11.72
12.82
13.79
14.46
14.73
14.53
13.85
12.82
11.53
10.13
8.67
7.05
5.09
2.55
-0.67
-4.57
-8.96
-13.57
-18.14
-22.51
-26.71
-30.95
-35.60
-41.03
-47.42
-54.51
-61.44
-66.85
-69.22
-67.37
-60.91
-50.44
-37.34
-23.37
-10.14
1.24
10.24
16.89
21.53
24.60
26.52
27.57
27.97
27.83
27.32
26.62
25.96
25.63
25.79
26.54
27.80
29.39
31.06
32.55
33.61
34.02
33.62
32.32
30.12
27.15
23.61
19.69
15.65
11.64
7.74
3.93
0.04
-4.11
-8.72
-13.84
-19.46
-25.45
-31.82
-38.66
-46.12
-54.23
-62.55
-70.14
-75.67
-77.78
-75.62
-69.21
-59.47
-47.95
-36.27
-25.73
-17.02
-10.30
-5.37
-1.96
0.16
1.14
1.17
0.47
-0.78
-2.38
-4.27
-6.37
-8.53
-10.44
-11.64
-11.62
-10.00
-6.65
-1.83
3.99
10.10
15.83
20.61
24.09
26.10
26.72
26.15
24.70
22.73
20.54
18.35
16.29
14.32
12.38
10.40
8.30
5.94
3.06
-0.70
-5.65
-11.71
-18.26
-24.00
-27.37
-26.99
-22.26
-13.65
-2.48
9.50
20.76
30.36
38.07
44.12
48.89
52.63
55.44
57.38
58.64
59.63
60.87
62.78
65.44
68.48
71.24
73.02
73.37
72.34
70.34
67.87
65.26
62.48
59.17
54.92
49.47
42.84
35.36
27.42
19.39
11.55
4.03
-3.11
-9.84
-16.19
-22.27
-28.25
-34.37
-40.90
-48.11
-56.16
-64.95
-73.92
-82.06
-87.95
-90.22
-87.92
-80.95
-70.09
-56.85
-42.94
-29.80
-18.35
-8.90
-1.31
4.70
9.43
13.08
15.84
17.86
19.37
20.63
21.88
23.30
24.94
26.80
28.77
30.72
32.57
34.23
35.60
36.61
37.19
37.28
36.82
35.73
33.95
31.37
27.96
23.71
18.75
13.30
7.63
2.07
-3.14
-7.88
-12.26
-16.56
-21.23
-26.71
-33.23
-40.59
-48.02
-54.25
-57.81
-57.45
-52.54
-43.35
-30.91
-16.84
-2.83
9.73
19.99
27.61
32.76
35.79
37.20
37.40
36.77
35.60
34.23
32.99
32.17
31.96
32.31
33.03
33.84
34.53
35.01
35.19
34.99
34.20
32.61
30.07
26.60
22.35
17.52
12.26
6.61
0.61
-5.59
-11.74
-17.52
-22.61
-26.89
-30.54
-33.86
-37.35
-41.49
-46.67
-52.98
-60.09
-67.05
-72.43
-74.65
-72.50
-65.62
-54.68
-41.20
-27.03
-13.78
-2.43
6.68
13.66
18.71
21.91
23.28
22.91
21.07
18.34
15.43
13.05
11.68
11.52
12.42
14.02
15.82
17.32
18.23
18.41
17.91
16.81
15.15
12.81
9.56
5.18
-0.34
-6.81
-13.78
-20.72
-27.19
-33.05
-38.40
-43.61
-49.13
-55.39
-62.61
-70.68
-79.06
-86.66
-92.08
-93.78
-90.64
-82.28
-69.33
-53.30
-36.16
-19.88
-5.86
5.10
12.89
17.83
20.46
21.48
21.72
22.10
23.55
26.84
32.34
39.92
48.95
58.47
67.46
75.01
80.51
83.69
84.61
83.52
80.75
76.64
71.41
65.29
58.47
51.10
43.31
35.27
27.12
19.08
11.34
4.04
-2.84
-9.53
-16.49
-24.24
-33.18
-43.17
-53.39
-62.40
-68.45
-69.93
-66.02
-56.98
-44.12
-29.44
-14.96
-2.22
8.05
15.80
21.38
25.19
27.49
28.40
28.10
26.97
25.55
24.43
23.99
24.34
25.25
26.39
27.49
28.38
29.04
29.45
29.48
28.93
27.58
25.27
22.07
18.12
13.63
8.73
3.54
-1.81
-7.07
-11.93
-16.06
-19.29
-21.80
-24.01
-26.50
-29.84
-34.39
-40.19
-46.92
-53.91
-60.09
-64.15
-64.79
-61.07
-52.79
-40.61
-25.93
-10.53
4.00
16.53
26.50
33.88
38.90
41.91
43.26
43.30
42.35
40.71
38.72
36.70
35.02
34.01
33.92
34.78
36.39
38.35
40.17
41.38
41.65
40.82
38.87
35.85
31.90
27.19
21.96
16.39
10.73
5.10
-0.39
-5.70
-10.82
-15.69
-20.22
-24.35
-28.11
-31.69
-35.43
-39.71
-44.71
-50.20
-55.45
-59.22
-60.16
-57.22
-50.02
-39.06
-25.62
-11.40
1.97
13.26
21.92
27.96
31.71
33.58
33.81
32.55
29.97
26.39
22.42
18.76
16.03
14.59
14.46
15.33
16.73
18.18
19.29
19.80
19.57
18.62
16.99
14.76
12.04
8.84
5.16
1.05
-3.43
-8.09
-12.75
-17.24
-21.54
-25.75
-29.99
-34.36
-38.89
-43.63
-48.72
-54.34
-60.48
-66.75
-72.22
-75.47
-75.07
-70.10
-60.54
-47.36
-32.23
-16.98
-3.08
8.59
17.76
24.56
29.25
32.09
33.37
33.47
32.83
32.01
31.49
31.59
32.42
33.84
35.64
37.61
39.62
41.55
43.22
44.36
44.65
43.80
41.72
38.58
34.73
30.60
26.50
22.47
18.33
13.83
8.83
3.43
-2.07
-7.24
-11.72
-15.38
-18.39
-21.17
-24.30
-28.43
-34.05
-41.30
-49.71
-58.17
-64.93
-68.11
-66.24
-58.81
-46.58
-31.32
-15.24
-0.34
12.03
21.45
28.13
32.56
35.19
36.32
36.14
34.83
32.81
30.57
28.64
27.40
26.97
27.16
27.70
28.30
28.72
28.90
28.74
28.20
27.19
25.62
23.49
20.84
17.79
14.49
11.06
7.58
4.08
0.53
-3.13
-6.90
-10.76
-14.61
-18.33
-21.88
-25.41
-29.24
-33.86
-39.69
-46.85
-54.94
-62.99
-69.54
-72.93
-71.81
-65.59
-54.57
-40.03
-23.74
-7.64
6.80
18.71
27.82
34.20
38.11
39.77
39.42
37.45
34.44
31.11
28.15
26.04
24.99
24.94
25.68
26.96
28.50
30.02
31.20
31.78
31.55
30.47
28.63
26.17
23.20
19.70
15.60
10.82
5.42
-0.43
-6.42
-12.23
-17.62
-22.44
-26.76
-30.80
-34.88
-39.43
-44.86
-51.40
-58.96
-66.94
-74.18
-79.17
-80.39
-76.84
-68.38
-55.86
-40.91
-25.47
-11.28
0.57
9.72
16.35
20.96
23.99
25.80
26.58
26.54
25.94
25.18
24.62
24.57
25.12
26.15
27.46
28.80
29.98
30.80
31.11
30.74
29.60
27.72
25.26
22.43
19.39
16.22
12.80
8.99
4.71
-0.00
-4.98
-10.00
-14.79
-19.21
-23.19
-26.86
-30.57
-34.92
-40.56
-47.92
-56.86
-66.40
-74.84
-80.11
-80.50
-75.21
-64.61
-50.16
-33.83
-17.53
-2.65
10.09
20.54
28.78
34.94
39.15
41.45
42.07
41.32
39.66
37.60
35.61
34.09
33.19
32.96
33.17
33.56
33.84
33.80
33.36
32.53
31.38
29.88
27.97
25.49
22.33
18.56
14.36
9.96
5.58
1.31
-2.89
-7.13
-11.49
-16.07
-20.95
-26.32
-32.44
-39.51
-47.42
-55.50
-62.49
-66.76
-66.80
-61.74
-51.74
-37.97
-22.30
-6.73
7.13
18.38
26.85
32.84
36.87
39.31
40.36
40.09
38.62
36.30
33.69
31.47
30.26
30.31
31.44
33.13
34.73
35.62
35.48
34.23
32.04
29.17
25.87
22.35
18.73
15.03
11.23
7.26
3.05
-1.39
-5.99
-10.62
-15.14
-19.47
-23.64
-27.84
-32.36
-37.69
-44.26
-52.21
-61.19
-70.10
-77.25
-80.71
-78.91
-71.21
-58.20
-41.57
-23.58
-6.41
8.43
20.23
29.05
35.37
39.75
42.60
44.10
44.39
43.65
42.20
40.44
38.80
37.60
36.93
36.77
36.97
37.31
37.59
37.64
37.30
36.38
34.68
32.00
28.28
23.58
18.17
12.41
6.63
1.02
-4.34
-9.54
-14.67
-19.77
-24.80
-29.78
-34.77
-40.00
-45.77
-52.42
-60.03
-68.25
-76.11
-82.15
-84.70
-82.43
-74.84
-62.59
-47.33
-31.28
-16.53
-4.61
3.83
8.90
11.17
11.30
9.86
7.25
3.78
-0.18
-4.20
-7.84
-10.74
-12.70
-13.67
-13.63
-12.44
-9.81
-5.39
0.91
8.71
17.07
24.64
30.17
32.97
33.18
31.72
29.92
28.99
29.70
32.22
36.31
41.46
47.06
52.34
56.45
58.53
57.91
54.46
48.67
41.56
34.33
27.96
23.01
19.61
17.64
16.93
17.40
19.05
21.79
25.36
29.24
32.85
35.68
37.38
37.84
37.11
35.32
32.69
29.52
26.19
23.16
20.89
19.70
19.68
20.68
22.30
24.07
25.56
26.47
26.63
26.04
24.82
23.15
21.15
18.76
15.70
11.60
6.13
-0.77
-8.73
-17.02
-24.78
-31.28
-36.24
-39.84
-42.71
-45.62
-49.30
-54.22
-60.47
-67.67
-74.88
-80.71
-83.51
-81.91
-75.13
-63.38
-47.88
-30.49
-13.21
2.36
15.31
25.39
32.76
37.76
40.72
41.97
41.87
40.86
39.41
37.92
36.70
35.87
35.44
35.36
35.55
35.99
36.62
37.37
37.96
38.06
37.24
35.19
31.82
27.40
22.45
17.56
13.18
9.40
5.97
2.47
-1.43
-5.82
-10.52
-15.18
-19.44
-23.19
-26.53
-29.82
-33.60
-38.44
-44.76
-52.57
-61.21
-69.41
-75.42
-77.53
-74.56
-66.29
-53.52
-37.86
-21.19
-5.22
8.82
20.35
29.28
35.80
40.16
42.56
43.18
42.25
40.15
37.41
34.64
32.36
30.83
29.99
29.61
29.42
29.31
29.32
29.54
29.92
30.15
29.72
28.20
25.41
21.59
17.25
12.90
8.80
4.86
0.75
-3.90
-9.19
-14.92
-20.67
-25.92
-30.33
-33.83
-36.65
-39.31
-42.42
-46.65
-52.43
-59.70
-67.80
-75.37
-80.66
-81.96
-78.19
-69.18
-55.83
-39.80
-22.98
-7.07
6.78
18.03
26.61
32.68
36.44
38.11
37.93
36.27
33.69
30.84
28.44
26.96
26.56
27.04
27.96
28.83
29.29
29.16
28.48
27.36
25.91
24.16
22.10
19.64
16.66
13.10
8.97
4.33
-0.61
-5.64
-10.51
-15.10
-19.41
-23.57
-27.81
-32.41
-37.69
-43.94
-51.30
-59.50
-67.76
-74.66
-78.41
-77.42
-70.90
-59.20
-43.79
-26.83
-10.37
4.13
16.03
25.37
32.41
37.42
40.52
41.86
41.71
40.58
39.09
37.80
37.15
37.27
38.15
39.57
41.26
42.91
44.24
44.97
44.87
43.73
41.42
37.91
33.32
27.94
22.18
16.39
10.78
5.34
-0.08
-5.64
-11.32
-16.90
-22.04
-26.44
-30.04
-33.07
-36.04
-39.57
-44.25
-50.39
-57.84
-65.83
-72.98
-77.60
-78.00
-73.15
-62.98
-48.57
-31.84
-14.95
0.27
12.74
22.19
28.91
33.42
36.12
37.30
37.12
35.87
33.96
31.89
30.14
29.01
28.59
28.81
29.52
30.59
31.89
33.25
34.38
34.97
34.69
33.32
30.88
27.55
23.69
19.57
15.37
11.00
6.27
0.97
-4.99
-11.45
-18.09
-24.46
-30.30
-35.53
-40.39
-45.33
-50.89
-57.41
-64.88
-72.68
-79.57
-83.92
-84.12
-79.07
-68.62
-53.80
-36.42
-18.66
-2.41
11.10
21.47
28.89
33.78
36.58
37.65
37.25
35.66
33.34
30.83
28.66
27.30
26.95
27.58
28.94
30.69
32.43
33.85
34.73
34.96
34.49
33.30
31.36
28.66
25.23
21.16
16.58
11.70
6.72
1.81
-2.91
-7.44
-11.82
-16.11
-20.45
-25.03
-30.12
-36.07
-43.14
-51.25
-59.73
-67.27
-72.12
-72.61
-67.70
-57.50
-43.23
-26.86
-10.52
4.09
16.00
24.91
30.99
34.65
36.33
36.45
35.42
33.64
31.48
29.32
27.47
26.23
25.79
26.16
27.13
28.29
29.18
29.47
29.08
28.12
26.79
25.25
23.51
21.47
19.05
16.17
12.88
9.26
5.35
1.19
-3.20
-7.71
-12.20
-16.53
-20.67
-24.71
-28.98
-33.97
-40.14
-47.73
-56.40
-65.11
-72.20
-75.80
-74.44
-67.56
-55.83
-40.87
-24.78
-9.47
3.76
14.40
22.51
28.38
32.31
34.49
35.08
34.31
32.57
30.31
27.98
25.92
24.33
23.21
22.52
22.19
22.09
22.09
21.99
21.53
20.54
18.91
16.67
13.93
10.75
7.18
3.13
-1.50
-6.70
-12.40
-18.40
-24.36
-29.99
-35.08
-39.61
-43.81
-48.08
-52.91
-58.77
-65.90
-74.04
-82.35
-89.43
-93.51
-93.00
-86.92
-75.32
-59.33
-40.90
-22.28
-5.40
8.48
18.92
26.12
30.64
33.05
33.81
33.35
32.11
30.61
29.45
29.21
30.13
32.05
34.44
36.57
37.81
37.81
36.62
34.48
31.76
28.67
25.30
21.55
17.34
12.62
7.45
1.98
-3.54
-8.81
-13.47
-17.28
-20.20
-22.50
-24.76
-27.74
-32.13
-38.26
-45.97
-54.50
-62.52
-68.38
-70.53
-67.84
-60.02
-47.74
-32.53
-16.38
-1.19
11.67
21.59
28.62
33.16
35.74
36.79
36.63
35.54
33.88
32.05
30.46
29.44
29.20
29.77
31.05
32.81
34.76
36.54
37.89
38.64
38.77
38.27
37.13
35.16
32.15
27.93
22.53
16.25
9.56
2.97
-3.13
-8.60
-13.48
-18.05
-22.65
-27.76
-33.82
-41.17
-49.81
-59.20
-68.08
-74.69
-77.17
-74.15
-65.27
-51.33
-34.03
-15.48
2.31
17.93
30.67
40.39
47.43
52.22
55.19
56.64
56.72
55.54
53.31
50.45
47.55
45.18
43.72
43.15
43.18
43.35
43.28
42.80
41.87
40.47
38.53
35.92
32.51
28.34
23.49
18.17
12.55
6.80
1.06
-4.57
-9.97
-15.08
-19.90
-24.60
-29.44
-34.81
-41.05
-48.25
-56.07
-63.60
-69.45
-72.01
-70.05
-63.05
-51.56
-37.01
-21.33
-6.38
6.51
16.73
24.27
29.46
32.65
34.07
33.87
32.21
29.51
26.39
23.63
21.91
21.54
22.43
24.13
26.03
27.67
28.85
29.62
30.14
30.44
30.34
29.44
27.30
23.65
18.57
12.47
6.04
-0.10
-5.53
-10.22
-14.43
-18.60
-23.18
-28.51
-34.80
-42.09
-50.24
-58.79
-66.86
-73.15
-76.18
-74.75
-68.34
-57.47
-43.55
-28.52
-14.20
-1.80
8.26
16.17
22.42
27.38
31.12
33.52
34.46
34.07
32.80
31.29
30.17
29.77
30.11
30.89
31.74
32.29
32.42
32.08
31.36
30.31
28.90
27.08
24.73
21.78
18.15
13.83
8.87
3.41
-2.29
-7.98
-13.46
-18.67
-23.74
-28.99
-34.81
-41.56
-49.33
-57.83
-66.22
-73.19
-77.13
-76.65
-70.95
-60.25
-45.73
-29.27
-12.91
1.72
13.74
22.99
29.82
34.71
37.97
39.75
40.05
39.01
37.00
34.61
32.53
31.32
31.25
32.23
33.88
35.71
37.27
38.29
38.64
38.32
37.34
35.77
33.61
30.91
27.74
24.14
20.16
15.83
11.18
6.34
1.47
-3.18
-7.44
-11.29
-14.95
-18.90
-23.69
-29.83
-37.44
-46.11
-54.77
-61.81
-65.53
-64.60
-58.57
-47.94
-34.09
-18.83
-3.84
9.61
20.84
29.60
35.90
39.86
41.63
41.46
39.77
37.10
34.07
31.28
29.20
28.05
27.80
28.23
28.94
29.56
29.87
29.75
29.27
28.46
27.32
25.70
23.41
20.30
16.38
11.79
6.75
1.51
-3.80
-9.05
-14.10
-18.82
-23.11
-27.00
-30.78
-34.97
-40.13
-46.62
-54.35
-62.56
-69.83
-74.41
-74.69
-69.68
-59.49
-45.26
-28.90
-12.53
2.14
14.15
23.31
29.91
34.37
36.97
37.82
37.02
34.90
32.10
29.43
27.68
27.35
28.43
30.57
33.17
35.62
37.50
38.58
38.85
38.35
37.13
35.18
32.46
28.89
24.43
19.14
13.24
7.09
1.12
-4.38
-9.28
-13.69
-17.93
-22.35
-27.31
-33.07
-39.72
-47.17
-54.90
-61.95
-66.93
-68.39
-65.30
-57.43
-45.62
-31.49
-16.97
-3.66
7.47
16.17
22.66
27.29
30.32
31.85
31.95
30.77
28.69
26.23
23.98
22.40
21.80
22.22
23.45
25.13
26.82
28.11
28.67
28.28
26.78
24.15
20.41
15.66
10.08
3.87
-2.75
-9.61
-16.59
-23.63
-30.66
-37.60
-44.29
-50.61
-56.45
-61.90
-67.24
-72.91
-79.40
-86.97
-95.41
-103.79
-110.64
-114.17
-112.90
-106.06
-93.98
-77.98
-59.92
-41.77
-25.02
-10.56
1.33
10.75
18.01
23.37
27.07
29.31
30.40
30.77
31.04
31.88
33.85
37.30
42.22
48.26
54.88
61.52
67.74
73.31
78.21
82.45
86.01
88.72
90.24
90.12
87.96
83.59
77.16
69.12
60.13
50.82
41.67
32.94
24.70
16.88
9.23
1.45
-6.87
-16.07
-26.10
-36.22
-45.07
-50.88
-52.09
-47.97
-38.96
-26.54
-12.77
0.38
11.54
20.10
26.14
30.08
32.36
33.27
32.92
31.36
28.75
25.46
22.09
19.29
17.61
17.29
18.13
19.58
21.03
21.97
22.13
21.47
20.04
17.86
14.83
10.86
5.98
0.38
-5.64
-11.71
-17.61
-23.25
-28.59
-33.63
-38.34
-42.68
-46.81
-50.95
-55.52
-60.96
-67.47
-74.85
-82.30
-88.43
-91.57
-90.24
-83.71
-72.31
-57.47
-41.27
-25.83
-12.71
-2.55
4.80
9.92
13.51
16.05
17.78
18.84
19.44
19.85
20.38
21.31
22.69
24.43
26.42
28.61
31.04
33.74
36.64
39.45
41.81
43.41
44.22
44.52
44.73
45.20
45.94
46.57
46.38
44.60
40.68
34.43
26.16
16.56
6.51
-3.18
-11.98
-19.84
-27.12
-34.29
-41.53
-48.48
-54.12
-57.13
-56.30
-51.11
-42.01
-30.20
-17.25
-4.58
6.83
16.54
24.43
30.50
34.75
37.18
37.89
37.19
35.57
33.56
31.58
29.82
28.25
26.76
25.28
23.87
22.66
21.72
21.00
20.20
18.90
16.62
13.15
8.55
3.26
-2.13
-7.11
-11.42
-15.24
-19.13
-23.79
-29.83
-37.47
-46.39
-55.84
-64.69
-71.82
-76.27
-77.63
-76.03
-72.11
-66.71
-60.47
-53.62
-45.92
-36.98
-26.58
-15.08
-3.35
7.47
16.45
23.24
28.22
32.09
35.57
38.92
41.88
43.89
44.44
43.38
41.02
37.94
34.76
31.90
29.47
27.35
25.27
23.00
20.35
17.25
13.69
9.69
5.27
0.39
-5.03
-11.06
-17.67
-24.63
-31.51
-37.76
-42.89
-46.62
-49.02
-50.51
-51.62
-52.93
-54.89
-57.72
-61.45
-65.76
-69.99
-73.09
-73.81
-70.99
-63.92
-52.60
-37.84
-21.00
-3.70
12.64
26.98
38.81
48.07
54.95
59.75
62.77
64.30
64.72
64.51
64.24
64.42
65.25
66.54
67.71
67.99
66.68
63.45
58.42
52.07
45.10
38.20
31.89
26.38
21.54
17.00
12.34
7.23
1.60
-4.39
-10.43
-16.30
-21.92
-27.39
-32.92
-38.78
-45.11
-51.93
-59.00
-65.77
-71.23
-74.10
-73.00
-66.94
-55.68
-40.03
-21.70
-2.94
14.11
27.83
37.43
42.89
44.76
43.89
41.24
37.84
34.62
32.31
31.35
31.81
33.38
35.58
37.85
39.68
40.71
40.72
39.61
37.47
34.56
31.12
27.36
23.27
18.64
13.18
6.64
-1.05
-9.72
-19.00
-28.39
-37.38
-45.56
-52.68
-58.81
-64.25
-69.64
-75.68
-82.93
-91.64
-101.49
-111.56
-120.44
-126.36
-127.68
-123.38
-113.43
-98.95
-81.98
-64.84
-49.48
-36.94
-27.27
-19.88
-13.97
-9.03
-4.94
-1.79
0.40
1.82
2.92
4.19
5.95
8.27
10.98
13.85
16.67
19.42
22.13
24.78
27.20
29.14
30.29
30.46
29.61
27.84
25.33
22.27
18.82
15.20
11.57
8.16
5.07
2.29
-0.33
-3.10
-6.36
-10.45
-15.57
-21.65
-28.26
-34.52
-39.18
-40.90
-38.69
-32.24
-22.11
-9.64
3.46
15.58
25.62
33.06
37.89
40.38
40.87
39.60
36.78
32.65
27.55
22.00
16.54
11.65
7.53
4.07
1.02
-1.72
-3.88
-4.80
-3.69
-0.05
5.94
13.35
20.73
26.61
29.89
30.21
27.80
23.29
17.43
10.83
3.95
-2.87
-9.40
-15.43
-20.92
-26.07
-31.26
-36.99
-43.50
-50.47
-56.93
-61.38
-62.30
-58.66
-50.35
-38.20
-23.68
-8.36
6.48
20.11
32.15
42.44
50.82
57.15
61.44
63.97
65.28
66.06
66.87
67.99
69.29
70.40
70.87
70.33
68.64
65.91
62.36
58.22
53.58
48.41
42.59
36.14
29.24
22.22
15.47
9.27
3.58
-1.83
-7.27
-12.92
-18.76
-24.53
-30.03
-35.15
-40.03
-44.99
-50.43
-56.61
-63.43
-70.27
-76.09
-79.61
-79.60
-75.38
-66.95
-55.03
-40.91
-26.05
-11.77
1.05
12.16
21.83
30.64
39.25
48.03
56.91
65.44
72.95
78.90
82.97
85.18
85.70
84.73
82.47
79.12
75.07
70.82
66.94
63.84
61.64
60.03
58.50
56.50
53.61
49.66
44.67
38.83
32.34
25.44
18.41
11.55
5.07
-0.95
-6.62
-12.28
-18.32
-25.04
-32.49
-40.37
-48.00
-54.35
-58.21
-58.48
-54.55
-46.56
-35.50
-23.03
-10.99
-0.86
6.54
11.16
13.41
13.82
12.78
10.46
6.98
2.54
-2.48
-7.56
-12.25
-16.21
-19.37
-21.77
-23.60
-25.03
-26.21
-27.23
-28.11
-28.82
-29.36
-29.91
-30.85
-32.75
-35.90
-40.21
-44.92
-48.88
-50.93
-50.34
-47.16
-42.07
-36.05
-30.02
-24.61
-20.15
-16.72
-14.24
-12.33
-10.20
-6.81
-1.14
7.28
18.04
29.87
41.07
50.09
56.09
58.98
59.27
57.56
54.34
49.91
44.63
39.14
34.22
30.72
29.03
29.03
30.02
30.99
31.04
29.63
26.66
22.42
17.41
12.21
7.37
3.37
0.44
-1.44
-2.64
-3.71
-5.20
-7.48
-10.55
-14.10
-17.70
-21.05
-24.10
-27.09
-30.44
-34.56
-39.60
-45.34
-51.14
-55.94
-58.57
-58.02
-53.69
-45.69
-34.69
-21.78
-8.15
5.14
17.29
27.76
36.21
42.46
46.44
48.22
48.10
46.47
43.92
41.10
38.60
36.79
35.75
35.28
34.99
34.50
33.57
32.15
30.33
28.21
25.80
23.04
19.79
15.99
11.60
6.67
1.26
-4.52
-10.52
-16.57
-22.49
-28.19
-33.66
-39.09
-44.74
-50.88
-57.60
-64.68
-71.41
-76.76
-79.52
-78.61
-73.47
-64.27
-51.97
-38.09
-24.27
-11.93
-1.87
5.71
11.07
14.63
16.74
17.56
17.19
15.79
13.77
11.64
9.93
8.98
8.78
9.09
9.55
9.91
10.07
10.11
10.18
10.37
10.63
10.71
10.30
8.96
6.49
2.87
-1.65
-6.60
-11.51
-16.04
-20.09
-23.74
-27.18
-30.65
-34.38
-38.60
-43.52
-49.13
-55.08
-60.54
-64.31
-65.25
-62.60
-56.43
-47.58
-37.40
-27.33
-18.45
-11.30
-5.92
-2.14
0.31
1.59
1.82
1.09
-0.43
-2.45
-4.56
-6.26
-7.09
-6.63
-4.64
-1.10
3.72
9.33
15.12
20.53
25.23
29.20
32.66
35.89
39.05
41.93
44.05
44.85
43.94
41.30
37.34
32.65
27.82
23.16
18.70
14.23
9.38
3.80
-2.75
-10.25
-18.30
-26.00
-32.12
-35.33
-34.67
-29.84
-21.47
-10.81
0.56
11.20
20.18
27.14
32.15
35.47
37.34
37.89
37.25
35.62
33.26
30.54
27.81
25.31
23.10
21.17
19.48
18.05
16.94
16.16
15.61
15.08
14.28
13.00
11.19
8.93
6.44
3.91
1.41
-1.14
-3.98
-7.28
-11.14
-15.36
-19.54
-23.22
-26.09
-28.09
-29.52
-30.91
-32.98
-36.40
-41.64
-48.60
-56.56
-64.00
-69.03
-69.85
-65.45
-55.95
-42.70
-27.69
-12.96
0.04
10.67
18.96
25.25
29.87
32.95
34.45
34.41
32.98
30.54
27.72
25.15
23.29
22.33
22.20
22.60
23.15
23.56
23.60
23.21
22.37
21.10
19.39
17.26
14.72
11.90
8.92
5.89
2.85
-0.27
-3.66
-7.49
-11.77
-16.35
-20.92
-25.21
-29.14
-32.92
-37.04
-41.97
-47.92
-54.63
-61.27
-66.54
-68.99
-67.49
-61.61
-51.77
-39.22
-25.59
-12.48
-0.95
8.51
15.95
21.58
25.55
27.89
28.57
27.75
25.91
23.80
22.20
21.64
22.24
23.73
25.64
27.60
29.43
31.13
32.76
34.22
35.21
35.33
34.24
31.89
28.53
24.61
20.64
16.98
13.70
10.62
7.44
3.88
-0.16
-4.56
-8.99
-13.08
-16.58
-19.49
-22.10
-24.94
-28.64
-33.58
-39.67
-46.15
-51.57
-54.10
-52.07
-44.52
-31.60
-14.62
4.23
22.44
37.85
49.14
55.97
58.97
59.30
58.22
56.67
55.11
53.48
51.54
49.06
46.05
42.76
39.46
36.38
33.53
30.81
28.13
25.46
22.92
20.52
18.16
15.60
12.52
8.66
4.00
-1.17
-6.38
-11.08
-14.93
-17.89
-20.26
-22.56
-25.21
-28.40
-31.90
-35.31
-38.23
-40.57
-42.63
-45.04
-48.42
-53.26
-59.63
-67.15
-75.02
-82.03
-86.83
-88.06
-84.89
-77.16
-65.62
-51.73
-37.28
-23.94
-12.79
-4.21
2.01
6.44
9.71
12.32
14.53
16.44
18.07
19.51
20.93
22.55
24.55
26.94
29.57
32.19
34.49
36.18
37.07
37.05
36.04
34.02
31.12
27.56
23.70
19.90
16.35
13.02
9.68
6.02
1.83
-2.84
-7.73
-12.51
-16.94
-21.02
-24.97
-29.15
-33.92
-39.58
-46.26
-53.81
-61.66
-68.69
-73.41
-74.29
-70.29
-61.29
-48.23
-32.77
-16.93
-2.38
9.81
19.27
26.12
30.77
33.61
35.02
35.32
34.85
33.89
32.70
31.38
29.96
28.41
26.72
24.98
23.36
22.05
21.13
20.45
19.70
18.44
16.30
13.04
8.75
3.73
-1.57
-6.70
-11.36
-15.57
-19.52
-23.52
-27.78
-32.15
-36.29
-39.70
-42.01
-43.13
-43.33
-43.16
-43.30
-44.36
-46.64
-49.94
-53.45
-55.72
-54.97
-49.56
-38.60
-22.37
-2.42
18.71
38.22
53.70
63.75
68.07
67.37
62.92
56.28
48.94
42.16
36.86
33.56
32.37
32.98
34.75
36.92
38.78
39.84
39.93
39.22
38.06
36.87
35.91
35.12
34.15
32.47
29.70
25.80
21.15
16.37
12.00
8.23
4.87
1.51
-2.21
-6.40
-10.82
-15.09
-18.92
-22.26
-25.39
-28.82
-33.14
-38.82
-46.05
-54.48
-63.22
-70.82
-75.67
-76.31
-71.98
-62.86
-50.02
-35.16
-20.11
-6.40
5.07
13.93
20.27
24.41
26.70
27.50
27.16
26.13
24.85
23.79
23.24
23.31
23.87
24.71
25.62
26.56
27.52
28.55
29.57
30.38
30.68
30.22
28.90
26.81
24.11
20.99
17.53
13.74
9.55
4.92
-0.10
-5.34
-10.58
-15.61
-20.32
-24.78
-29.28
-34.30
-40.26
-47.37
-55.31
-63.13
-69.39
-72.48
-71.12
-64.76
-53.85
-39.67
-24.03
-8.76
4.71
15.57
23.66
29.12
32.26
33.35
32.67
30.57
27.56
24.35
21.71
20.25
20.26
21.62
23.84
26.31
28.37
29.55
29.68
28.81
27.23
25.18
22.85
20.18
16.92
12.77
7.46
0.94
-6.51
-14.45
-22.34
-29.76
-36.56
-42.92
-49.20
-55.94
-63.62
-72.58
-82.79
-93.76
-104.42
-113.15
-118.16
-118.03
-112.22
-101.46
-87.58
-72.93
-59.54
-48.39
-39.15
-30.45
-20.57
-8.31
6.58
23.30
40.42
56.40
70.15
81.23
89.77
96.23
101.08
104.68
107.20
108.73
109.26
108.74
107.10
104.15
99.72
93.72
86.21
77.51
68.17
58.86
50.15
42.34
35.34
28.84
22.37
15.63
8.53
1.08
-6.73
-15.07
-24.22
-34.19
-44.51
-54.01
-61.13
-64.34
-62.72
-56.34
-46.20
-33.87
-21.02
-9.04
1.16
9.05
14.40
17.14
17.42
15.56
12.06
7.58
2.73
-1.89
-5.88
-9.05
-11.46
-13.33
-15.00
-16.79
-18.84
-21.09
-23.41
-25.66
-27.88
-30.25
-33.02
-36.41
-40.47
-45.07
-49.92
-54.67
-58.91
-62.33
-64.67
-65.77
-65.62
-64.41
-62.59
-60.78
-59.56
-59.12
-59.03
-58.10
-54.73
-47.45
-35.51
-19.33
-0.37
19.24
37.47
52.82
64.55
72.53
76.87
77.77
75.42
70.11
62.47
53.44
44.07
35.36
27.89
21.72
16.45
11.42
6.00
-0.13
-6.88
-13.80
-20.35
-26.27
-31.82
-37.70
-44.77
-53.53
-63.78
-74.55
-84.40
-91.99
-96.44
-97.61
-96.01
-92.62
-88.53
-84.71
-81.69
-79.30
-76.56
-71.79
-63.12
-49.14
-29.48
-5.06
22.16
49.83
75.87
99.12
119.52
137.80
155.05
171.90
188.08
202.10
211.69
214.51
209.13
195.62
175.70
152.08
127.70
104.96
85.31
69.37
57.18
48.34
42.16
37.72
33.88
29.51
23.77
16.31
7.32
-2.62
-12.68
-22.08
-30.22
-36.87
-42.16
-46.57
-50.76
-55.31
-60.63
-66.90
-74.05
-81.81
-89.60
-96.47
-101.04
-101.75
-97.36
-87.39
-72.45
-54.12
-34.42
-15.27
2.04
16.87
29.03
38.49
45.12
48.89
49.99
49.05
47.11
45.35
44.66
45.45
47.51
50.24
52.96
55.14
56.49
57.03
56.86
56.06
54.68
52.66
49.87
46.26
41.73
36.34
30.27
23.80
17.35
11.26
5.77
0.89
-3.60
-8.02
-12.79
-18.34
-25.10
-33.40
-43.25
-54.06
-64.54
-72.81
-76.87
-75.25
-67.53
-54.54
-38.04
-20.17
-2.81
12.76
26.03
36.87
45.31
51.32
54.84
55.88
54.79
52.30
49.36
46.89
45.47
45.16
45.52
45.95
45.91
45.14
43.71
41.84
39.76
37.50
34.88
31.55
27.19
21.57
14.74
7.01
-1.05
-8.85
-15.93
-22.08
-27.45
-32.49
-37.81
-43.99
-51.56
-60.68
-71.04
-81.64
-90.92
-96.92
-97.83
-92.57
-81.11
-64.67
-45.23
-25.02
-5.91
10.88
24.85
35.90
44.10
49.52
52.21
52.38
50.48
47.27
43.74
40.88
39.51
40.01
42.25
45.56
49.06
51.84
53.27
53.12
51.49
48.67
44.95
40.50
35.35
29.56
23.19
16.47
9.67
3.03
-3.29
-9.21
-14.78
-20.20
-25.73
-31.80
-38.84
-47.25
-57.03
-67.71
-78.16
-86.66
-91.40
-90.90
-84.57
-72.89
-57.31
-39.82
-22.34
-6.31
7.61
19.29
29.03
37.05
43.47
48.15
51.01
52.07
51.62
50.19
48.39
46.74
45.50
44.71
44.24
43.87
43.42
42.71
41.59
39.86
37.37
34.06
29.97
25.28
20.17
14.80
9.22
3.50
-2.30
-8.04
-13.53
-18.58
-23.10
-27.17
-30.98
-34.94
-39.54
-45.38
-52.85
-62.00
-72.18
-81.95
-89.37
-92.49
-89.94
-81.44
-67.85
-50.92
-32.67
-14.95
0.96
14.44
25.31
33.67
39.70
43.61
45.61
46.00
45.16
43.56
41.73
40.11
38.98
38.42
38.30
38.41
38.58
38.65
38.50
37.91
36.65
34.45
31.16
26.84
21.86
16.63
11.55
6.74
2.07
-2.67
-7.65
-12.83
-17.99
-22.86
-27.28
-31.33
-35.33
-39.75
-45.08
-51.73
-59.82
-68.97
-78.21
-85.95
-90.31
-89.62
-83.07
-70.98
-54.81
-36.67
-18.71
-2.57
10.90
21.53
29.57
35.34
39.10
40.97
41.12
39.86
37.73
35.42
33.66
32.95
33.43
34.84
36.67
38.33
39.40
39.59
38.83
37.06
34.30
30.55
25.93
20.62
14.94
9.14
3.44
-2.17
-7.75
-13.36
-18.99
-24.46
-29.55
-34.10
-38.22
-42.32
-47.09
-53.26
-61.30
-71.05
-81.45
-90.69
-96.52
-96.98
-90.98
-78.74
-61.74
-42.28
-22.75
-4.97
10.14
22.49
32.46
40.47
46.73
51.23
53.91
54.86
54.48
53.34
52.02
50.96
50.28
49.95
49.83
49.78
49.79
49.80
49.66
49.14
47.89
45.60
42.12
37.49
32.00
26.09
20.15
14.39
8.84
3.30
-2.43
-8.39
-14.41
-20.19
-25.44
-30.15
-34.67
-39.66
-45.87
-53.83
-63.57
-74.38
-84.78
-92.69
-95.98
-93.03
-83.39
-67.96
-48.81
-28.55
-9.58
6.52
19.17
28.52
35.11
39.39
41.69
42.18
41.21
39.26
37.03
35.25
34.45
34.86
36.39
38.70
41.37
44.00
46.34
48.17
49.32
49.50
48.44
45.89
41.86
36.64
30.70
24.56
18.55
12.71
6.88
0.84
-5.47
-11.93
-18.23
-24.09
-29.39
-34.26
-39.05
-44.30
-50.50
-58.01
-66.77
-76.06
-84.50
-90.21
-91.33
-86.62
-75.97
-60.45
-42.10
-23.20
-5.73
9.06
20.69
29.21
34.93
38.22
39.45
38.99
37.34
35.08
32.85
31.27
30.77
31.44
33.05
35.14
37.13
38.60
39.35
39.37
38.77
37.59
35.79
33.31
30.07
26.14
21.57
16.46
10.84
4.68
-1.94
-8.85
-15.72
-22.17
-27.94
-33.06
-37.88
-43.04
-49.26
-57.08
-66.64
-77.33
-87.89
-96.49
-101.13
-100.29
-93.32
-80.82
-64.40
-46.32
-28.72
-13.16
-0.34
9.77
17.51
23.17
26.69
27.82
26.41
22.70
17.47
11.90
7.24
4.40
3.75
5.06
7.76
11.22
15.08
19.30
23.91
28.89
33.90
38.29
41.28
42.14
40.52
36.47
30.49
23.31
15.70
8.34
1.61
-4.42
-10.06
-15.98
-23.03
-31.77
-42.03
-52.47
-60.62
-63.53
-58.74
-45.25
-24.03
2.17
29.73
55.23
76.27
91.74
101.64
106.53
107.15
104.21
98.43
90.63
81.73
72.72
64.46
57.51
52.03
47.67
43.82
39.83
35.30
30.24
24.97
19.93
15.35
11.11
6.76
1.74
-4.32
-11.36
-18.93
-26.26
-32.66
-37.74
-41.56
-44.60
-47.55
-51.14
-55.90
-62.21
-70.06
-79.11
-88.48
-96.72
-102.04
-102.71
-97.67
-86.91
-71.61
-53.69
-35.31
-18.17
-3.26
9.20
19.31
27.25
33.05
36.57
37.79
36.99
34.88
32.40
30.44
29.50
29.54
30.04
30.26
29.66
28.07
25.72
23.04
20.38
17.78
15.00
11.63
7.32
1.99
-4.12
-10.53
-16.63
-21.97
-26.27
-29.64
-32.46
-35.41
-39.28
-44.72
-52.12
-61.22
-71.07
-80.01
-86.04
-87.35
-82.83
-72.47
-57.45
-39.80
-21.84
-5.64
7.52
17.19
23.67
27.56
29.50
29.93
29.18
27.60
25.74
24.24
23.71
24.42
26.14
28.28
30.13
31.19
31.36
30.87
30.04
29.03
27.66
25.49
22.05
17.04
10.56
3.07
-4.70
-12.02
-18.42
-23.80
-28.47
-33.05
-38.26
-44.65
-52.33
-60.76
-68.82
-74.83
-77.10
-74.31
-66.00
-52.76
-36.08
-17.95
-0.35
15.20
27.92
37.63
44.53
48.87
50.84
50.57
48.37
44.83
40.84
37.41
35.29
34.70
35.27
36.23
36.83
36.61
35.61
34.16
32.57
30.82
28.45
24.87
19.63
12.84
5.12
-2.54
-9.30
-14.85
-19.53
-24.16
-29.71
-36.88
-45.92
-56.41
-67.40
-77.38
-84.61
-87.36
-84.41
-75.55
-61.70
-44.69
-26.79
-9.98
4.52
16.29
25.51
32.53
37.57
40.69
41.96
41.66
40.40
38.87
37.70
37.13
37.03
37.01
36.65
35.80
34.50
33.00
31.47
29.90
27.99
25.28
21.32
15.93
9.37
2.21
-4.74
-10.83
-15.88
-20.17
-24.49
-29.72
-36.59
-45.29
-55.36
-65.64
-74.47
-80.00
-80.70
-75.74
-65.26
-50.44
-33.15
-15.49
0.79
14.59
25.51
33.66
39.30
42.68
43.93
43.24
40.98
37.74
34.29
31.28
29.12
27.73
26.82
25.97
24.94
23.82
22.90
22.46
22.45
22.43
21.64
19.31
15.02
8.96
1.83
-5.42
-11.96
-17.48
-22.27
-27.11
-32.90
-40.32
-49.56
-60.06
-70.54
-79.27
-84.37
-84.27
-78.21
-66.48
-50.41
-32.04
-13.56
3.27
17.44
28.69
37.23
43.36
47.26
49.01
48.75
46.92
44.29
41.72
39.92
39.16
39.23
39.61
39.78
39.42
38.54
37.32
35.90
34.22
31.97
28.69
24.11
18.27
11.60
4.84
-1.28
-6.34
-10.36
-13.87
-17.71
-22.70
-29.44
-37.97
-47.62
-56.98
-64.14
-67.16
-64.64
-56.21
-42.74
-26.06
-8.46
8.08
22.27
33.75
42.71
49.50
54.33
57.15
57.77
56.24
53.03
48.99
45.11
42.20
40.61
40.15
40.28
40.36
39.93
38.85
37.16
35.02
32.47
29.39
25.58
20.84
15.10
8.49
1.36
-5.82
-12.60
-18.59
-23.73
-28.22
-32.54
-37.27
-42.96
-50.02
-58.55
-68.19
-77.97
-86.42
-91.68
-92.07
-86.64
-75.53
-60.04
-42.25
-24.29
-7.82
6.28
17.89
27.22
34.56
40.04
43.65
45.43
45.57
44.57
43.06
41.69
41.00
41.19
42.16
43.60
45.11
46.34
47.04
47.03
46.11
44.12
40.96
36.71
31.64
26.12
20.54
15.10
9.83
4.63
-0.61
-5.93
-11.24
-16.39
-21.33
-26.08
-30.86
-36.01
-41.96
-49.11
-57.67
-67.33
-77.14
-85.42
-90.20
-89.73
-83.15
-70.87
-54.47
-36.20
-18.30
-2.38
10.87
21.48
29.87
36.44
41.36
44.61
46.16
46.18
45.07
43.43
41.87
40.80
40.29
40.20
40.28
40.29
40.11
39.64
38.72
37.12
34.57
30.98
26.51
21.51
16.48
11.70
7.26
2.99
-1.34
-5.84
-10.39
-14.69
-18.38
-21.29
-23.42
-25.05
-26.66
-28.89
-32.42
-37.84
-45.34
-54.48
-63.97
-71.80
-75.70
-73.92
-65.87
-52.40
-35.61
-18.03
-1.87
11.55
21.92
29.57
35.00
38.55
40.33
40.42
39.08
36.82
34.32
32.25
31.01
30.68
31.12
32.07
33.26
34.51
35.62
36.33
36.33
35.25
32.90
29.27
24.66
19.55
14.49
9.87
5.80
2.11
-1.58
-5.62
-10.18
-15.14
-20.20
-24.94
-29.19
-33.11
-37.25
-42.38
-49.18
-57.86
-67.90
-77.95
-86.01
-89.97
-88.20
-80.15
-66.54
-49.20
-30.52
-12.71
2.75
15.24
24.86
32.03
37.15
40.45
42.05
42.13
41.04
39.27
37.36
35.77
34.78
34.52
34.95
35.95
37.32
38.83
40.21
41.13
41.21
40.12
37.68
33.92
29.16
23.95
18.83
14.11
9.73
5.33
0.47
-5.14
-11.40
-17.91
-24.10
-29.55
-34.18
-38.26
-42.43
-47.41
-53.81
-61.94
-71.47
-81.30
-89.58
-94.15
-93.09
-85.50
-71.89
-54.04
-34.49
-15.67
0.72
13.93
23.98
31.28
36.18
38.92
39.69
38.83
36.94
34.80
33.15
32.49
32.87
33.99
35.35
36.50
37.20
37.48
37.52
37.50
37.36
36.79
35.32
32.53
28.36
23.17
17.64
12.50
8.16
4.56
1.17
-2.70
-7.45
-13.07
-19.09
-24.84
-29.82
-33.89
-37.37
-40.90
-45.30
-51.29
-59.34
-69.35
-80.62
-91.67
-100.57
-105.31
-104.54
-98.03
-86.81
-72.84
-58.44
-45.55
-35.38
-28.30
-24.14
-22.47
-22.85
-24.89
-28.28
-32.64
-37.61
-42.80
-47.74
-51.82
-54.28
-54.30
-51.29
-45.15
-36.50
-26.59
-16.95
-8.89
-3.20
0.13
1.74
2.63
3.89
6.37
10.55
16.47
23.72
31.46
38.65
44.43
48.54
51.72
55.52
61.77
71.57
84.47
98.31
109.81
115.83
114.65
106.72
94.49
81.63
71.81
67.92
71.54
82.96
101.29
124.51
149.76
173.68
193.03
205.41
209.76
206.55
197.42
184.66
170.60
157.15
145.52
136.20
129.07
123.60
119.02
114.63
109.96
104.92
99.79
95.18
91.69
89.51
88.09
85.94
80.94
70.97
54.70
32.09
4.46
-26.13
-57.64
-88.53
-117.90
-145.31
-170.52
-193.49
-214.30
-233.01
-249.24
-261.74
-268.45
-267.23
-257.11
-239.36
-217.55
-196.46
-180.15
-170.40
-166.09
-164.11
-161.00
-154.39
-143.81
-130.25
-115.39
-100.62
-86.81
-74.51
-64.38
-57.49
-55.06
-57.91
-65.89
-77.64
-90.84
-103.03
-112.46
-118.62
-122.31
-125.11
-128.65
-133.88
-140.80
-148.50
-155.52
-160.39
-161.89
-159.36
-152.67
-142.25
-128.93
-113.81
-98.00
-82.46
-67.83
-54.49
-42.83
-33.52
-27.67
-26.51
-30.62
-39.26
-49.96
-59.11
-63.06
-59.52
-48.30
-31.20
-10.87
10.55
32.11
53.95
76.44
99.17
120.61
138.51
150.84
156.65
156.54
152.22
145.84
139.33
133.90
129.91
127.01
124.42
121.28
117.09
111.85
105.97
100.04
94.45
89.18
83.82
77.81
70.80
63.35
56.37
50.77
47.14
45.44
45.13
45.34
45.04
43.27
39.97
35.34
29.79
24.14
19.66
18.08
21.21
30.32
45.40
66.27
91.26
117.75
143.01
165.18
183.98
200.74
217.62
236.43
259.19
285.97
314.81
342.60
366.37
384.65
398.09
409.08
408.57
390.33
351.25
293.07
222.64
149.59
82.64
26.99
-16.49
-50.33
-77.06
-98.59
-115.71
-128.28
-136.11
-139.67
-140.69
-142.06
-145.42
-153.65
-168.68
-191.54
-222.22
-259.22
-298.88
-335.43
-362.13
-373.56
-367.39
-345.60
-314.19
-280.83
-252.11
-231.69
-220.17
-216.37
-218.16
-224.03
-232.52
-241.97
-250.14
-254.57
-253.27
-245.60
-232.34
-215.16
-196.04
-175.89
-154.59
-131.24
-104.94
-75.42
-43.33
-10.14
22.47
52.97
80.83
106.52
131.52
157.92
187.80
222.14
259.78
297.02
328.15
347.21
350.05
335.79
307.02
268.67
226.26
184.43
146.52
114.79
90.91
76.02
70.20
71.94
78.22
85.30
89.99
90.64
87.22
80.88
73.03
64.63
56.02
47.11
37.73
27.99
18.29
9.12
0.96
-6.00
-11.79
-16.68
-20.95
-24.85
-28.53
-32.09
-35.67
-39.50
-43.87
-49.07
-55.29
-62.62
-71.09
-80.67
-91.16
-102.07
-112.52
-121.42
-127.84
-131.27
-131.80
-129.91
-126.00
-120.00
-111.30
-99.01
-82.36
-61.19
-36.08
-8.35
20.16
47.29
70.88
89.13
101.01
106.36
105.95
101.06
93.19
83.74
74.03
65.34
58.97
56.07
57.24
62.20
69.74
78.07
85.44
90.75
93.75
94.84
94.61
93.42
91.10
87.26
81.51
73.83
64.71
54.87
44.91
34.99
24.71
13.37
0.34
-14.55
-30.82
-47.34
-62.53
-74.69
-82.25
-84.10
-79.83
-69.98
-56.05
-40.25
-25.03
-12.40
-3.56
1.38
3.09
2.68
1.22
-0.55
-2.29
-3.99
-5.79
-7.77
-9.93
-12.08
-13.97
-15.42
-16.48
-17.37
-18.47
-20.08
-22.35
-25.23
-28.53
-32.00
-35.39
-38.43
-40.87
-42.46
-43.09
-42.87
-42.23
-41.83
-42.37
-44.41
-48.18
-53.43
-59.39
-64.84
-68.30
-68.36
-64.01
-54.98
-41.81
-25.63
-7.88
10.05
27.02
42.12
54.47
63.28
67.93
68.20
64.53
57.95
49.80
41.40
33.79
27.52
22.74
19.36
17.20
16.01
15.46
15.08
14.33
12.70
9.83
5.68
0.53
-5.19
-10.87
-16.00
-20.22
-23.38
-25.61
-27.25
-28.86
-31.07
-34.35
-38.71
-43.53
-47.55
-49.20
-47.17
-40.86
-30.66
-17.84
-4.17
8.55
18.99
26.49
31.05
33.11
33.33
32.30
30.48
28.14
25.48
22.70
20.09
18.02
16.74
16.29
16.48
16.90
17.18
17.08
16.57
15.67
14.37
12.54
10.01
6.70
2.80
-1.23
-4.86
-7.72
-9.87
-11.77
-14.12
-17.53
-22.17
-27.51
-32.35
-35.13
-34.40
-29.32
-19.92
-7.14
7.62
22.80
37.11
49.58
59.49
66.22
69.27
68.30
63.37
55.05
44.37
32.71
21.55
12.18
5.46
1.56
-0.25
-1.52
-4.37
-10.82
-22.07
-37.92
-56.81
-76.26
-93.80
-107.80
-117.79
-124.22
-127.91
-129.41
-128.75
-125.80
-120.64
-113.96
-107.09
-101.61
-98.80
-99.26
-102.65
-107.67
-112.28
-113.96
-110.37
-100.01
-82.93
-60.82
-36.55
-13.12
7.40
24.40
38.58
51.10
62.69
73.33
82.37
89.12
93.30
95.06
94.67
92.09
86.93
78.67
67.32
53.73
39.73
27.78
20.31
19.00
24.27
34.95
48.67
62.46
73.60
80.32
82.15
79.83
74.69
68.08
60.90
53.53
46.04
38.39
30.65
22.89
15.04
6.83
-1.98
-11.34
-20.63
-28.53
-33.49
-34.22
-30.27
-22.30
-11.90
-1.05
8.48
15.60
19.99
21.93
21.99
20.81
18.97
16.90
14.92
13.24
11.96
11.05
10.41
9.87
9.29
8.48
7.34
5.81
3.92
1.86
-0.18
-1.96
-3.35
-4.40
-5.37
-6.62
-8.53
-11.29
-14.85
-18.92
-23.05
-26.83
-29.99
-32.47
-34.48
-36.31
-38.35
-40.95
-44.33
-48.42
-52.78
-56.42
-58.00
-56.14
-49.89
-39.22
-25.13
-9.47
5.64
18.44
27.94
34.05
37.29
38.40
38.00
36.49
34.13
31.22
28.19
25.51
23.60
22.57
22.31
22.47
22.71
22.87
22.92
22.91
22.85
22.59
21.90
20.53
18.29
15.18
11.32
6.86
2.06
-2.86
-7.68
-12.19
-16.26
-19.81
-22.80
-25.26
-27.28
-29.10
-31.12
-33.80
-37.46
-42.01
-46.70
-50.18
-50.78
-47.16
-38.84
-26.46
-11.64
3.53
17.18
28.12
35.96
40.93
43.54
44.32
43.65
41.78
39.00
35.63
32.08
28.76
25.98
23.88
22.47
21.60
21.06
20.63
20.15
19.47
18.44
16.90
14.77
12.01
8.86
5.60
2.60
0.08
-1.92
-3.58
-5.13
-6.77
-8.56
-10.45
-12.30
-14.07
-15.79
-17.65
-19.91
-22.88
-26.73
-31.43
-36.53
-41.09
-43.87
-43.58
-39.42
-31.32
-20.13
-7.34
5.34
16.48
25.20
31.19
34.63
35.93
35.58
34.04
31.76
29.13
26.48
24.06
22.08
20.67
19.90
19.78
20.23
21.08
22.08
22.91
23.26
22.90
21.72
19.78
17.31
14.57
11.82
9.12
6.44
3.60
0.42
-3.16
-7.07
-11.15
-15.20
-19.04
-22.58
-25.87
-29.09
-32.56
-36.61
-41.43
-46.85
-52.15
-56.14
-57.40
-54.75
-47.71
-36.71
-23.10
-8.73
4.63
15.63
23.69
28.87
31.64
32.48
31.78
29.79
26.74
23.07
19.37
16.31
14.34
13.54
13.62
14.05
14.40
14.43
14.12
13.57
12.82
11.86
10.55
8.85
6.72
4.23
1.40
-1.77
-5.35
-9.26
-13.31
-17.17
-20.54
-23.21
-25.20
-26.78
-28.37
-30.46
-33.50
-37.73
-43.03
-48.73
-53.72
-56.58
-56.02
-51.34
-42.70
-31.17
-18.33
-5.86
4.98
13.51
19.64
23.58
25.59
25.86
24.57
21.95
18.39
14.51
11.00
8.45
7.19
7.24
8.32
10.02
11.91
13.63
14.93
15.64
15.65
14.90
13.32
10.92
7.70
3.71
-0.93
-6.03
-11.22
-16.09
-20.22
-23.37
-25.53
-27.03
-28.40
-30.18
-32.86
-36.69
-41.65
-47.25
-52.64
-56.57
-57.70
-54.88
-47.67
-36.59
-23.03
-8.88
4.09
14.76
22.80
28.51
32.40
34.87
36.02
35.80
34.22
31.49
28.09
24.67
21.79
19.86
18.97
18.95
19.42
19.93
20.09
19.65
18.55
16.84
14.67
12.12
9.25
6.10
2.71
-0.85
-4.44
-7.93
-11.18
-14.12
-16.72
-19.02
-21.13
-23.24
-25.60
-28.57
-32.52
-37.61
-43.53
-49.42
-53.92
-55.49
-53.00
-46.12
-35.52
-22.62
-9.16
3.35
13.96
22.28
28.36
32.37
34.58
35.18
34.44
32.67
30.28
27.73
25.47
23.87
23.18
23.46
24.49
25.95
27.41
28.46
28.88
28.57
27.59
26.02
23.88
21.10
17.61
13.43
8.71
3.73
-1.17
-5.65
-9.56
-12.90
-15.83
-18.56
-21.35
-24.42
-27.95
-32.18
-37.25
-43.14
-49.47
-55.38
-59.62
-60.80
-57.88
-50.53
-39.33
-25.70
-11.43
1.82
12.97
21.59
27.81
31.93
34.11
34.33
32.54
28.99
24.43
20.01
16.96
16.06
17.37
20.15
23.27
25.63
26.57
26.12
24.74
23.08
21.64
20.53
19.28
16.90
11.85
2.40
-12.90
-34.65
-62.09
-92.99
-124.04
-151.62
-172.84
-186.25
-192.19
-192.36
-189.15
-184.65
-180.01
-175.18
-169.16
-160.59
-148.40
-132.29
-112.79
-91.06
-68.52
-46.47
-25.93
-7.54
8.41
21.90
33.13
42.56
50.71
58.13
65.17
71.96
78.40
84.30
89.59
94.33
98.79
103.26
107.86
112.42
116.49
119.54
121.15
121.20
119.82
117.26
113.65
108.98
103.11
96.03
87.97
79.37
70.69
62.15
53.66
44.80
35.08
24.17
12.12
-0.56
-12.94
-23.70
-31.46
-35.01
-33.73
-27.77
-18.09
-6.23
6.09
17.41
26.82
34.00
39.05
42.22
43.78
43.93
42.85
40.85
38.33
35.80
33.75
32.53
32.23
32.64
33.43
34.17
34.56
34.50
34.00
33.12
31.83
29.99
27.41
23.97
19.74
15.03
10.20
5.59
1.35
-2.54
-6.19
-9.73
-13.29
-16.92
-20.71
-24.84
-29.47
-34.80
-40.83
-47.21
-53.10
-57.22
-58.14
-54.76
-46.79
-34.94
-20.81
-6.33
6.81
17.59
25.75
31.53
35.32
37.40
37.87
36.90
34.80
32.13
29.49
27.38
26.04
25.48
25.56
26.10
26.93
27.87
28.68
29.03
28.61
27.20
24.74
21.45
17.68
13.88
10.44
7.52
5.06
2.75
0.24
-2.71
-6.09
-9.74
-13.43
-17.14
-21.07
-25.54
-30.92
-37.36
-44.66
-52.20
-58.91
-63.51
-64.77
-61.83
-54.57
-43.69
-30.60
-16.97
-4.31
6.36
14.64
20.64
24.70
27.26
28.69
29.26
29.16
28.57
27.62
26.48
25.38
24.51
24.02
23.95
24.20
24.58
24.90
25.02
24.88
24.39
23.43
21.83
19.49
16.51
13.21
9.98
7.15
4.76
2.55
0.06
-3.10
-7.07
-11.69
-16.53
-21.06
-24.86
-27.84
-30.16
-32.36
-35.06
-38.82
-43.77
-49.38
-54.52
-57.66
-57.42
-52.95
-44.38
-32.64
-19.26
-5.91
6.01
15.64
22.75
27.51
30.37
31.78
32.07
31.47
30.17
28.39
26.47
24.75
23.46
22.66
22.22
21.98
21.82
21.77
21.90
22.17
22.38
22.11
20.97
18.67
15.22
10.94
6.30
1.88
-1.91
-4.90
-7.23
-9.27
-11.45
-14.11
-17.32
-20.88
-24.40
-27.55
-30.09
-32.07
-33.74
-35.51
-37.84
-41.08
-45.33
-50.15
-54.60
-57.28
-56.76
-52.06
-43.08
-30.71
-16.60
-2.60
9.73
19.51
26.58
31.24
33.93
35.04
34.80
33.42
31.13
28.33
25.52
23.16
21.49
20.54
20.07
19.74
19.28
18.59
17.75
16.89
16.07
15.17
13.89
11.96
9.25
5.92
2.36
-0.97
-3.72
-5.73
-7.17
-8.33
-9.62
-11.30
-13.45
-15.93
-18.47
-20.77
-22.66
-24.15
-25.52
-27.19
-29.63
-33.12
-37.72
-43.08
-48.46
-52.74
-54.61
-52.95
-47.15
-37.42
-24.84
-11.04
2.27
13.74
22.63
28.81
32.49
34.02
33.67
31.76
28.70
25.04
21.39
18.28
16.03
14.71
14.21
14.31
14.80
15.45
16.11
16.61
16.83
16.70
16.16
15.18
13.75
11.91
9.75
7.45
5.23
3.22
1.42
-0.32
-2.26
-4.57
-7.29
-10.31
-13.38
-16.30
-18.96
-21.40
-23.71
-26.15
-29.04
-32.77
-37.65
-43.68
-50.28
-56.28
-60.10
-60.21
-55.79
-46.98
-34.99
-21.65
-8.80
2.22
10.87
17.27
21.88
25.10
27.10
27.90
27.49
26.11
24.18
22.27
20.86
20.21
20.36
21.12
22.28
23.63
24.99
26.18
26.97
27.13
26.48
24.94
22.58
19.58
16.14
12.45
8.67
4.97
1.47
-1.73
-4.59
-7.22
-9.77
-12.44
-15.29
-18.24
-21.02
-23.43
-25.44
-27.28
-29.43
-32.48
-36.88
-42.74
-49.70
-56.91
-63.15
-67.02
-67.25
-63.09
-54.56
-42.51
-28.39
-13.92
-0.63
10.46
18.94
24.80
28.31
29.72
29.30
27.34
24.28
20.73
17.39
14.88
13.60
13.58
14.59
16.22
18.04
19.72
20.98
21.61
21.43
20.29
18.18
15.27
11.89
8.42
5.13
2.11
-0.81
-3.89
-7.32
-11.16
-15.29
-19.45
-23.39
-27.02
-30.45
-33.98
-38.08
-43.20
-49.57
-57.04
-64.80
-71.45
-75.28
-74.76
-69.11
-58.55
-44.35
-28.39
-12.63
1.40
12.85
21.48
27.49
31.17
32.88
32.95
31.76
29.75
27.38
25.08
23.16
21.81
21.11
21.09
21.78
23.11
24.91
26.79
28.17
28.49
27.39
24.82
21.08
16.75
12.38
8.42
5.03
2.08
-0.66
-3.52
-6.66
-10.12
-13.71
-17.23
-20.45
-23.28
-25.89
-28.63
-32.10
-36.88
-43.40
-51.48
-60.27
-68.14
-73.05
-73.25
-67.81
-57.10
-42.57
-26.34
-10.45
3.61
15.14
24.06
30.56
34.94
37.50
38.58
38.60
38.06
37.46
37.10
37.15
37.59
38.33
39.31
40.52
41.98
43.67
45.43
46.90
47.61
47.09
45.07
41.60
37.03
31.93
26.86
22.15
17.77
13.45
8.79
3.52
-2.31
-8.38
-14.22
-19.44
-23.85
-27.61
-31.07
-34.80
-39.45
-45.52
-53.22
-62.04
-70.71
-77.23
-79.51
-75.99
-66.30
-51.44
-33.51
-14.98
2.03
16.23
27.17
35.01
40.19
43.13
44.21
43.81
42.40
40.49
38.69
37.47
37.11
37.59
38.74
40.28
41.97
43.72
45.60
47.60
49.54
50.98
51.30
49.98
46.85
42.20
36.70
31.14
26.06
21.66
17.74
13.88
9.70
5.00
-0.17
-5.57
-10.92
-15.98
-20.65
-25.04
-29.51
-34.56
-40.73
-48.33
-57.12
-66.18
-73.89
-78.29
-77.66
-71.13
-58.97
-42.58
-24.10
-5.79
10.51
23.69
33.43
39.96
43.81
45.51
45.45
43.97
41.40
38.16
34.85
32.12
30.45
30.01
30.54
31.52
32.39
32.83
32.81
32.53
32.18
31.67
30.73
29.00
26.31
22.80
18.91
15.15
11.85
8.94
6.05
2.71
-1.42
-6.33
-11.69
-16.99
-21.69
-25.53
-28.49
-30.86
-33.10
-35.79
-39.44
-44.43
-50.72
-57.73
-64.21
-68.50
-68.88
-64.19
-54.26
-40.06
-23.48
-6.75
8.12
19.90
28.16
33.19
35.58
35.95
34.78
32.50
29.57
26.54
24.05
22.61
22.50
23.63
25.65
28.01
30.23
32.00
33.11
33.47
33.04
31.78
29.66
26.74
23.18
19.17
14.89
10.49
5.98
1.34
-3.47
-8.40
-13.30
-17.93
-22.10
-25.66
-28.72
-31.63
-34.92
-39.22
-44.98
-52.16
-60.02
-67.06
-71.39
-71.21
-65.51
-54.47
-39.46
-22.59
-6.06
8.34
19.64
27.65
32.65
35.24
36.05
35.66
34.52
33.03
31.46
30.02
28.88
28.15
27.92
28.23
29.05
30.29
31.78
33.23
34.26
34.49
33.56
31.28
27.76
23.36
18.58
13.85
9.37
5.03
0.49
-4.54
-10.15
-16.10
-21.91
-27.01
-31.08
-34.11
-36.49
-38.86
-41.98
-46.51
-52.73
-60.38
-68.46
-75.31
-78.96
-77.74
-70.83
-58.63
-42.66
-25.17
-8.41
5.94
17.07
24.88
29.80
32.38
33.14
32.47
30.78
28.48
26.07
24.04
22.78
22.48
23.05
24.20
25.51
26.57
27.10
27.00
26.28
25.06
23.43
21.43
18.99
16.00
12.37
8.07
3.17
-2.13
-7.56
-12.82
-17.70
-22.08
-26.02
-29.73
-33.57
-37.95
-43.31
-49.89
-57.49
-65.36
-72.08
-75.88
-75.07
-68.65
-56.72
-40.55
-22.18
-3.92
12.40
25.63
35.46
42.14
46.15
47.98
48.05
46.72
44.41
41.58
38.78
36.46
34.96
34.41
34.76
35.79
37.25
38.83
40.21
41.06
41.03
39.89
37.62
34.37
30.42
26.10
21.59
16.96
12.16
7.17
1.99
-3.25
-8.38
-13.22
-17.71
-21.93
-26.16
-30.86
-36.59
-43.84
-52.78
-62.97
-73.18
-81.54
-85.94
-84.66
-77.01
-63.63
-46.31
-27.49
-9.52
5.89
17.96
26.61
32.28
35.51
36.74
36.31
34.50
31.61
27.94
23.80
19.44
15.08
10.94
7.24
4.16
1.82
0.07
-1.52
-3.59
-6.86
-11.88
-18.85
-27.58
-37.57
-48.27
-59.23
-70.30
-81.71
-94.03
-108.07
-124.50
-143.52
-164.45
-185.67
-204.93
-219.98
-229.45
-233.36
-233.01
-230.39
-227.12
-223.77
-219.57
-212.86
-201.87
-185.44
-163.49
-136.98
-107.53
-76.99
-47.09
-19.09
6.14
28.25
47.18
63.13
76.33
87.11
95.83
103.10
109.78
116.88
125.29
135.47
147.26
159.97
172.68
184.59
195.18
204.19
211.42
216.50
219.06
218.82
215.94
211.02
204.96
198.47
191.82
184.67
176.30
166.10
153.79
139.74
124.69
109.46
94.54
79.87
64.86
48.72
31.02
12.12
-6.58
-22.87
-34.37
-39.34
-37.31
-29.28
-17.40
-4.21
8.03
17.89
24.83
28.88
30.20
28.95
25.27
19.56
12.72
6.04
0.91
-1.64
-1.36
1.13
4.68
8.02
10.28
11.25
11.30
11.08
11.05
11.23
11.17
10.18
7.72
3.67
-1.51
-6.94
-11.77
-15.50
-18.32
-21.00
-24.56
-29.86
-37.22
-46.35
-56.51
-66.97
-77.28
-87.40
-97.61
-108.17
-119.18
-130.58
-142.25
-153.93
-165.02
-174.18
-179.28
-177.85
-167.95
-149.08
-122.64
-91.57
-59.38
-29.05
-2.41
19.96
38.14
52.46
63.30
71.39
77.99
84.93
94.12
106.90
123.39
142.29
161.23
177.54
189.01
194.54
194.21
189.00
180.17
168.74
155.24
139.84
122.63
103.99
84.75
65.98
48.72
33.64
20.91
10.20
0.92
-7.60
-16.01
-24.79
-34.27
-44.40
-54.67
-63.95
-70.65
-73.13
-70.23
-61.78
-48.76
-33.00
-16.67
-1.62
11.02
20.84
27.89
32.45
34.74
35.04
33.70
31.30
28.50
25.91
23.94
22.76
22.31
22.43
22.91
23.52
24.07
24.37
24.35
24.00
23.30
22.22
20.69
18.62
15.96
12.72
9.00
4.88
0.45
-4.21
-9.01
-13.84
-18.51
-22.88
-26.84
-30.44
-33.85
-37.35
-41.34
-46.16
-51.98
-58.51
-64.90
-69.78
-71.60
-69.17
-62.11
-51.09
-37.66
-23.73
-11.05
-0.70
6.98
12.19
15.38
16.91
17.03
15.85
13.63
10.80
7.97
5.74
4.51
4.33
5.01
6.18
7.52
8.84
10.05
11.05
11.62
11.47
10.39
8.32
5.52
2.36
-0.74
-3.59
-6.21
-8.82
-11.61
-14.63
-17.76
-20.76
-23.37
-25.51
-27.31
-29.08
-31.32
-34.54
-39.06
-44.87
-51.37
-57.41
-61.44
-62.02
-58.25
-50.16
-38.74
-25.59
-12.44
-0.62
9.16
16.77
22.45
26.50
29.09
30.31
30.22
29.05
27.20
25.20
23.54
22.48
22.02
21.90
21.88
21.82
21.75
21.82
22.07
22.30
22.12
21.05
18.84
15.59
11.71
7.69
3.85
0.23
-3.40
-7.29
-11.51
-15.87
-19.99
-23.57
-26.49
-28.86
-31.07
-33.47
-36.43
-40.15
-44.67
-49.68
-54.47
-57.90
-58.62
-55.56
-48.22
-37.11
-23.54
-9.29
3.99
15.17
23.81
29.93
33.73
35.46
35.28
33.45
30.36
26.59
22.74
19.32
16.68
14.93
14.07
13.98
14.48
15.35
16.30
17.06
17.42
17.28
16.57
15.30
13.41
10.85
7.61
3.81
-0.33
-4.55
-8.60
-12.39
-15.90
-19.20
-22.30
-25.20
-27.98
-30.83
-34.10
-38.12
-43.03
-48.47
-53.54
-56.89
-57.13
-53.29
-45.20
-33.62
-20.04
-6.20
6.45
16.98
25.11
30.98
34.89
37.03
37.57
36.66
34.63
32.01
29.43
27.48
26.44
26.28
26.76
27.49
28.15
28.53
28.50
27.99
26.91
25.17
22.75
19.66
15.97
11.79
7.26
2.50
-2.36
-7.14
-11.71
-15.99
-19.97
-23.65
-27.06
-30.08
-32.63
-34.70
-36.44
-38.36
-41.08
-45.05
-50.24
-55.89
-60.62
-62.79
-61.09
-54.93
-44.74
-31.71
-17.46
-3.59
8.69
18.74
26.39
31.80
35.26
37.09
37.55
36.93
35.55
33.80
32.09
30.81
30.14
30.13
30.52
31.04
31.38
31.32
30.69
29.38
27.28
24.31
20.52
16.12
11.51
7.18
3.46
0.47
-1.99
-4.25
-6.65
-9.33
-12.19
-15.03
-17.61
-19.88
-21.94
-24.06
-26.54
-29.74
-33.95
-39.36
-45.84
-52.84
-59.17
-63.24
-63.42
-58.61
-48.73
-34.76
-18.54
-2.16
12.64
24.78
33.93
40.27
44.22
46.20
46.53
45.45
43.26
40.39
37.34
34.69
32.89
32.17
32.50
33.60
35.09
36.59
37.78
38.43
38.34
37.34
35.34
32.34
28.60
24.43
20.20
16.05
11.95
7.67
2.98
-2.22
-7.76
-13.31
-18.44
-22.84
-26.37
-29.12
-31.39
-33.62
-36.29
-39.80
-44.24
-49.22
-53.83
-56.77
-56.66
-52.57
-44.40
-32.90
-19.55
-6.10
5.97
15.72
22.89
27.66
30.45
31.74
31.85
31.05
29.62
27.86
26.10
24.63
23.59
22.98
22.65
22.44
22.20
21.90
21.48
20.93
20.15
19.01
17.40
15.30
12.76
9.92
6.90
3.70
0.28
-3.40
-7.27
-11.20
-14.92
-18.26
-21.14
-23.68
-26.16
-28.90
-32.19
-36.22
-41.05
-46.43
-51.74
-55.96
-57.79
-56.08
-50.20
-40.46
-28.01
-14.54
-1.74
9.20
17.75
23.94
28.07
30.44
31.21
30.49
28.51
25.65
22.42
19.36
16.89
15.23
14.40
14.30
14.73
15.49
16.28
16.83
16.89
16.34
15.13
13.31
11.03
8.41
5.56
2.55
-0.54
-3.64
-6.71
-9.76
-12.81
-15.87
-18.88
-21.77
-24.50
-27.12
-29.91
-33.29
-37.59
-42.88
-48.66
-53.89
-57.15
-57.06
-52.81
-44.54
-33.23
-20.51
-8.08
2.75
11.32
17.56
21.79
24.39
25.62
25.62
24.53
22.60
20.24
17.99
16.31
15.49
15.54
16.22
17.25
18.31
19.20
19.77
19.93
19.55
18.57
16.94
14.75
12.17
9.45
6.76
4.16
1.58
-1.17
-4.21
-7.58
-11.21
-14.89
-18.38
-21.57
-24.40
-27.06
-29.89
-33.36
-37.82
-43.32
-49.46
-55.26
-59.37
-60.43
-57.53
-50.50
-39.99
-27.26
-13.84
-1.07
10.11
19.21
26.16
31.11
34.27
35.84
36.02
35.07
33.32
31.18
29.07
27.40
26.39
26.06
26.32
26.97
27.81
28.70
29.47
29.89
29.70
28.62
26.50
23.40
19.58
15.39
11.11
6.90
2.71
-1.53
-5.91
-10.41
-14.91
-19.23
-23.20
-26.74
-29.87
-32.74
-35.61
-38.89
-42.99
-48.16
-54.22
-60.41
-65.48
-67.94
-66.52
-60.59
-50.42
-37.18
-22.52
-8.16
4.52
14.71
22.14
26.92
29.34
29.79
28.70
26.57
23.91
21.27
19.14
17.84
17.43
17.81
18.69
19.82
21.02
22.23
23.42
24.47
25.10
24.92
23.57
20.94
17.24
12.96
8.64
4.64
1.05
-2.31
-5.74
-9.37
-13.17
-16.92
-20.41
-23.57
-26.50
-29.51
-32.94
-37.11
-42.20
-48.23
-54.89
-61.47
-66.88
-69.70
-68.66
-63.04
-53.02
-39.68
-24.73
-9.94
3.30
14.25
22.73
28.90
33.07
35.47
36.36
36.02
34.92
33.60
32.53
32.04
32.14
32.64
33.19
33.58
33.71
33.73
33.78
33.85
33.69
32.89
31.12
28.24
24.51
20.41
16.43
12.85
9.63
6.50
3.12
-0.69
-4.92
-9.35
-13.77
-17.99
-22.02
-25.91
-29.80
-33.89
-38.48
-43.91
-50.35
-57.58
-64.83
-70.72
-73.63
-72.17
-65.76
-54.81
-40.60
-24.90
-9.43
4.52
16.19
25.30
31.87
36.09
38.26
38.76
38.04
36.57
34.80
33.03
31.44
30.13
29.05
28.19
27.51
27.09
26.98
27.20
27.64
28.05
28.09
27.48
26.16
24.21
21.86
19.30
16.60
13.67
10.43
6.79
2.86
-1.21
-5.18
-8.88
-12.26
-15.46
-18.77
-22.62
-27.40
-33.36
-40.26
-47.36
-53.38
-56.79
-56.21
-50.90
-41.04
-27.71
-12.65
2.28
15.57
26.29
34.21
39.57
42.76
44.24
44.32
43.31
41.55
39.42
37.36
35.72
34.73
34.35
34.42
34.69
34.93
35.04
34.90
34.44
33.54
32.07
29.97
27.26
24.12
20.77
17.35
13.88
10.18
6.09
1.52
-3.45
-8.51
-13.36
-17.79
-21.79
-25.58
-29.51
-33.91
-39.03
-44.87
-51.03
-56.74
-60.85
-62.08
-59.44
-52.49
-41.65
-28.12
-13.58
0.30
12.27
21.67
28.49
33.16
36.16
37.91
38.62
38.35
37.21
35.46
33.54
31.93
30.92
30.58
30.70
30.95
31.06
30.89
30.42
29.62
28.41
26.62
24.13
20.96
17.26
13.36
9.56
6.04
2.78
-0.42
-3.72
-7.28
-11.04
-14.84
-18.43
-21.66
-24.61
-27.52
-30.82
-34.95
-40.15
-46.18
-52.26
-57.14
-59.34
-57.69
-51.72
-41.87
-29.43
-16.06
-3.33
7.72
16.64
23.42
28.24
31.24
32.47
32.05
30.24
27.55
24.67
22.21
20.61
20.03
20.30
21.05
21.83
22.25
22.06
21.21
19.85
18.25
16.63
15.06
13.37
11.28
8.52
4.98
0.80
-3.63
-7.88
-11.63
-14.75
-17.41
-19.98
-22.97
-26.87
-31.94
-38.06
-44.59
-50.43
-54.17
-54.50
-50.65
-42.62
-31.25
-17.96
-4.33
8.33
19.10
27.61
33.80
37.82
39.86
40.16
38.99
36.65
33.60
30.34
27.39
25.20
24.00
23.70
24.02
24.52
24.82
24.70
24.12
23.13
21.81
20.14
18.11
15.69
12.87
9.66
6.08
2.11
-2.15
-6.59
-11.01
-15.20
-19.06
-22.65
-26.19
-29.98
-34.34
-39.45
-45.18
-51.04
-56.17
-59.41
-59.62
-56.02
-48.47
-37.67
-24.93
-11.84
0.13
10.03
17.54
22.83
26.32
28.41
29.37
29.31
28.31
26.59
24.52
22.61
21.31
20.83
21.12
21.93
22.94
23.92
24.72
25.31
25.62
25.51
24.79
23.26
20.77
17.34
13.15
8.43
3.47
-1.49
-6.28
-10.74
-14.77
-18.28
-21.25
-23.74
-25.96
-28.27
-31.08
-34.79
-39.56
-45.11
-50.64
-54.83
-56.25
-53.81
-47.18
-36.99
-24.61
-11.76
0.10
10.04
17.73
23.23
26.77
28.55
28.78
27.72
25.77
23.47
21.42
20.05
19.59
20.01
21.06
22.39
23.62
24.48
24.78
24.45
23.50
21.96
19.90
17.39
14.47
11.23
7.70
3.94
0.03
-3.92
-7.75
-11.32
-14.54
-17.45
-20.23
-23.20
-26.75
-31.26
-36.91
-43.60
-50.71
-57.11
-61.36
-62.05
-58.26
-49.92
-37.93
-23.85
-9.48
3.71
14.82
23.61
30.21
34.94
38.05
39.68
39.97
39.10
37.43
35.33
33.22
31.36
29.85
28.65
27.66
26.87
26.24
25.74
25.19
24.29
22.70
20.17
16.67
12.50
8.09
3.85
0.02
-3.48
-6.90
-10.52
-14.47
-18.65
-22.78
-26.52
-29.62
-32.00
-33.84
-35.44
-37.26
-39.73
-43.14
-47.45
-52.07
-55.93
-57.66
-55.97
-50.16
-40.44
-27.88
-14.06
-0.58
11.39
21.28
29.06
34.90
39.00
41.38
42.11
41.35
39.56
37.33
35.33
34.00
33.44
33.46
33.71
33.88
33.86
33.74
33.58
33.42
33.08
32.23
30.60
28.05
24.71
20.97
17.32
14.19
11.78
9.94
8.31
6.39
3.80
0.44
-3.51
-7.70
-11.76
-15.50
-18.99
-22.55
-26.63
-31.65
-37.88
-45.31
-53.44
-61.28
-67.36
-70.10
-68.32
-61.55
-50.43
-36.37
-21.24
-6.74
5.99
16.48
24.72
30.92
35.27
37.86
38.79
38.27
36.70
34.65
32.67
31.18
30.34
30.02
29.96
29.92
29.80
29.68
29.71
29.89
30.05
29.81
28.75
26.57
23.30
19.27
14.98
10.99
7.60
4.82
2.38
-0.16
-3.20
-6.88
-11.08
-15.47
-19.66
-23.35
-26.44
-29.07
-31.55
-34.29
-37.75
-42.22
-47.68
-53.65
-59.10
-62.67
-63.02
-59.23
-51.15
-39.56
-25.86
-11.76
1.30
12.33
20.93
27.15
31.15
33.16
33.36
31.97
29.40
26.20
23.02
20.48
18.98
18.61
19.13
20.21
21.43
22.54
23.43
24.07
24.41
24.29
23.47
21.80
19.33
16.41
13.48
10.88
8.65
6.47
3.91
0.64
-3.36
-7.76
-12.14
-16.18
-19.76
-23.00
-26.09
-29.27
-32.77
-36.84
-41.59
-46.83
-51.90
-55.61
-56.60
-53.78
-46.78
-36.16
-23.27
-9.75
2.92
13.77
22.35
28.62
32.68
34.69
34.78
33.22
30.42
26.97
23.55
20.77
19.01
18.38
18.66
19.43
20.24
20.73
20.68
20.06
18.93
17.41
15.62
13.65
11.58
9.37
7.04
4.51
1.75
-1.24
-4.44
-7.78
-11.20
-14.63
-18.06
-21.48
-24.93
-28.55
-32.56
-37.19
-42.53
-48.29
-53.69
-57.47
-58.22
-54.88
-47.20
-35.94
-22.65
-9.22
2.74
12.31
19.33
24.07
26.98
28.31
28.21
26.80
24.29
21.12
17.80
14.77
12.41
10.89
10.26
10.51
11.53
13.11
14.93
16.61
17.81
18.31
18.06
17.17
15.80
14.04
11.90
9.30
6.12
2.37
-1.82
-6.21
-10.56
-14.69
-18.57
-22.32
-26.15
-30.32
-35.08
-40.60
-46.80
-53.28
-59.17
-63.25
-64.25
-61.26
-54.08
-43.33
-30.31
-16.56
-3.49
7.96
17.27
24.29
29.10
31.87
32.83
32.31
30.70
28.51
26.21
24.24
22.85
22.12
21.96
22.17
22.57
22.97
23.27
23.34
23.03
22.12
20.44
17.96
14.81
11.24
7.48
3.72
-0.04
-3.86
-7.82
-11.87
-15.86
-19.52
-22.63
-25.14
-27.21
-29.16
-31.49
-34.60
-38.74
-43.71
-48.85
-53.07
-55.07
-53.75
-48.55
-39.68
-28.11
-15.31
-2.80
8.23
17.07
23.55
27.82
30.15
30.84
30.16
28.46
26.20
23.92
22.11
21.11
20.98
21.52
22.36
23.12
23.63
23.83
23.81
23.68
23.39
22.74
21.47
19.35
16.34
12.59
8.45
4.32
0.54
-2.64
-5.20
-7.27
-9.13
-11.16
-13.74
-17.20
-21.59
-26.61
-31.52
-35.12
-36.14
-33.45
-26.59
-15.88
-2.38
12.36
26.82
39.78
50.64
59.30
65.96
70.89
74.32
76.47
77.70
78.59
79.85
82.07
85.40
89.40
93.15
95.61
96.03
94.23
90.66
86.00
80.93
75.75
70.50
65.04
59.31
53.41
47.54
41.76
35.92
29.71
22.88
15.41
7.65
0.12
-6.68
-12.43
-17.01
-20.34
-22.13
-21.89
-19.09
-13.61
-5.99
2.50
10.27
15.92
18.79
19.11
17.75
15.71
13.61
11.51
8.99
5.56
0.96
-4.67
-10.89
-17.16
-23.05
-28.37
-33.05
-37.13
-40.61
-43.42
-45.47
-46.64
-46.75
-45.63
-43.17
-39.50
-35.03
-30.52
-26.72
-24.13
-22.49
-20.69
-16.87
-8.96
4.53
23.78
47.36
72.48
95.85
114.83
128.06
135.44
137.42
133.95
123.93
105.49
77.13
39.07
-5.95
-53.15
-97.12
-133.60
-160.71
-178.96
-190.24
-196.41
-198.37
-196.00
-188.94
-177.55
-163.45
-149.13
-137.01
-128.48
-123.29
-119.91
-116.44
-111.61
-105.43
-99.13
-94.70
-94.02
-98.22
-107.30
-120.19
-135.05
-149.83
-162.80
-172.94
-180.04
-184.58
-187.39
-189.20
-190.34
-190.45
-188.65
-183.74
-174.63
-160.80
-142.45
-120.50
-96.33
-71.45
-47.08
-24.13
-3.21
15.19
30.54
42.34
50.38
54.98
57.04
57.90
58.90
61.00
64.62
69.59
75.51
81.79
87.90
93.16
96.78
98.00
96.26
91.59
84.63
76.44
68.14
60.46
53.55
47.05
40.33
32.73
23.80
13.43
2.09
-9.06
-18.26
-23.45
-22.88
-15.77
-2.69
14.54
33.39
51.41
66.83
78.87
87.56
93.39
96.95
98.67
98.97
98.29
97.18
96.24
95.86
96.19
97.09
98.29
99.59
100.96
102.41
103.86
104.90
104.89
103.28
99.99
95.69
91.77
89.85
91.16
95.98
103.36
111.26
116.98
117.69
111.18
96.53
74.63
48.20
21.38
-1.45
-16.83
-23.36
-21.91
-15.08
-6.12
2.22
8.35
11.75
12.48
10.61
6.00
-1.47
-11.56
-23.35
-35.25
-45.48
-52.68
-56.39
-57.09
-55.98
-54.37
-53.09
-52.37
-51.91
-51.32
-50.48
-49.72
-49.76
-51.27
-54.55
-59.31
-64.84
-70.30
-75.06
-79.04
-82.65
-86.58
-91.49
-97.75
-105.16
-112.97
-119.95
-124.53
-125.28
-121.22
-112.16
-98.78
-82.35
-64.40
-46.31
-29.07
-13.31
0.56
12.14
21.09
27.27
30.85
32.48
33.11
33.75
35.22
37.91
41.71
46.12
50.47
54.19
57.01
58.93
60.21
61.05
61.42
60.93
59.01
55.12
49.06
41.18
32.24
23.26
15.10
8.25
2.69
-1.99
-6.39
-11.17
-16.84
-23.59
-31.18
-38.81
-45.10
-48.46
-47.56
-41.86
-31.91
-19.13
-5.34
7.86
19.48
29.20
37.10
43.34
47.98
50.95
52.26
52.09
50.86
49.12
47.36
45.94
44.97
44.43
44.19
44.05
43.81
43.28
42.35
40.97
39.18
37.05
34.64
31.97
28.96
25.56
21.76
17.64
13.32
8.93
4.51
0.05
-4.47
-9.02
-13.54
-18.00
-22.47
-27.17
-32.35
-38.13
-44.27
-50.00
-54.18
-55.58
-53.32
-47.15
-37.63
-25.90
-13.39
-1.37
9.26
18.06
24.88
29.76
32.74
33.89
33.40
31.58
28.98
26.21
23.83
22.20
21.41
21.23
21.33
21.38
21.20
20.75
20.05
19.10
17.82
16.10
13.78
10.77
7.12
2.97
-1.42
-5.74
-9.75
-13.27
-16.26
-18.84
-21.19
-23.57
-26.27
-29.51
-33.47
-38.14
-43.19
-47.84
-50.91
-51.12
-47.57
-40.12
-29.63
-17.61
-5.74
4.68
13.07
19.44
24.08
27.21
28.80
28.75
27.07
24.11
20.46
16.79
13.63
11.20
9.35
7.65
5.43
1.89
-3.68
-11.64
-21.82
-33.41
-45.15
-55.56
-63.42
-68.06
-69.46
-68.17
-65.13
-61.30
-57.57
-54.60
-52.79
-52.29
-53.04
-54.76
-57.15
-59.98
-63.16
-66.79
-71.05
-75.96
-81.20
-85.96
-88.96
-88.83
-84.44
-75.33
-61.85
-45.15
-26.82
-8.49
8.49
23.31
35.61
45.53
53.46
59.95
65.58
70.80
75.91
81.08
86.25
91.34
96.24
100.89
105.38
109.88
114.56
119.48
124.50
129.23
133.11
135.66
136.62
136.09
134.51
132.46
130.38
128.32
125.77
121.89
115.73
106.64
94.60
80.29
64.85
49.52
35.20
22.06
9.59
-3.20
-17.22
-32.76
-49.08
-64.40
-76.36
-82.84
-82.72
-76.36
-65.52
-52.73
-40.50
-30.52
-23.34
-18.55
-15.15
-12.16
-8.87
-5.01
-0.59
4.44
10.25
17.16
25.42
34.98
45.28
55.34
64.01
70.27
73.58
73.98
72.04
68.60
64.49
60.30
56.26
52.18
47.61
42.14
35.57
28.07
20.05
12.10
4.65
-2.18
-8.42
-14.37
-20.36
-26.72
-33.83
-41.97
-51.23
-61.27
-71.25
-79.80
-85.40
-86.94
-83.94
-76.93
-67.13
-56.05
-45.15
-35.48
-27.75
-22.36
-19.63
-19.76
-22.72
-28.02
-34.72
-41.48
-46.87
-49.78
-49.66
-46.65
-41.36
-34.76
-27.80
-21.26
-15.63
-11.15
-7.89
-5.79
-4.68
-4.29
-4.36
-4.64
-5.05
-5.69
-6.74
-8.37
-10.65
-13.53
-16.87
-20.61
-24.82
-29.68
-35.44
-42.33
-50.33
-59.08
-67.66
-74.56
-78.01
-76.41
-68.87
-55.62
-38.03
-18.26
1.31
18.67
32.53
42.39
48.41
51.24
51.70
50.65
48.76
46.50
44.16
42.02
40.43
39.79
40.40
42.17
44.63
47.03
48.69
49.26
48.85
47.86
46.57
44.92
42.48
38.71
33.31
26.44
18.70
10.90
3.68
-2.68
-8.26
-13.37
-18.29
-23.18
-28.10
-33.14
-38.46
-44.11
-49.87
-54.96
-58.14
-58.08
-53.88
-45.54
-33.97
-20.75
-7.46
4.75
15.38
24.40
31.93
37.95
42.22
44.51
44.75
43.22
40.47
37.16
33.83
30.84
28.32
26.23
24.46
22.87
21.31
19.65
17.83
15.88
13.82
11.64
9.22
6.35
2.85
-1.35
-6.12
-11.15
-16.01
-20.40
-24.13
-27.23
-29.87
-32.34
-34.98
-38.17
-42.20
-47.15
-52.80
-58.44
-62.97
-65.13
-63.84
-58.53
-49.46
-37.64
-24.60
-11.93
-0.82
8.07
14.69
19.27
22.15
23.60
23.80
23.00
21.50
19.71
18.05
16.79
16.12
15.99
16.32
16.92
17.62
18.26
18.67
18.68
18.13
16.93
15.07
12.69
10.00
7.24
4.47
1.61
-1.56
-5.22
-9.39
-13.80
-17.99
-21.55
-24.27
-26.32
-28.19
-30.50
-33.82
-38.44
-44.20
-50.46
-56.11
-59.77
-60.10
-56.27
-48.29
-37.10
-24.39
-11.98
-1.30
6.96
12.85
16.82
19.38
20.81
21.17
20.51
18.97
16.96
14.97
13.48
12.79
12.94
13.80
15.11
16.64
18.18
19.52
20.41
20.62
19.96
18.39
16.09
13.39
10.64
8.02
5.47
2.74
-0.43
-4.19
-8.38
-12.65
-16.57
-19.85
-22.44
-24.58
-26.71
-29.42
-33.26
-38.59
-45.21
-52.28
-58.29
-61.42
-60.18
-53.95
-43.36
-30.07
-16.22
-3.68
6.46
13.99
19.29
22.88
25.13
26.17
25.99
24.72
22.66
20.25
18.04
16.45
15.70
15.74
16.32
17.09
17.68
17.86
17.57
16.85
15.80
14.41
12.63
10.44
7.88
5.10
2.31
-0.41
-3.13
-6.00
-9.24
-12.88
-16.80
-20.68
-24.23
-27.29
-29.99
-32.65
-35.76
-39.80
-44.94
-50.92
-56.84
-61.31
-62.71
-59.83
-52.25
-40.66
-26.69
-12.37
0.55
11.00
18.74
24.13
27.70
29.84
30.72
30.36
28.86
26.53
23.88
21.49
19.87
19.22
19.45
20.27
21.28
22.18
22.78
22.97
22.67
21.76
20.16
17.84
14.94
11.65
8.17
4.55
0.70
-3.55
-8.25
-13.30
-18.38
-23.11
-27.28
-30.91
-34.29
-37.89
-42.17
-47.52
-54.06
-61.40
-68.58
-74.17
-76.45
-74.08
-66.53
-54.41
-39.27
-23.20
-8.06
4.97
15.45
23.52
29.50
33.61
35.91
36.49
35.53
33.50
30.99
28.66
26.96
26.08
25.88
26.08
26.36
26.54
26.57
26.43
26.08
25.32
23.95
21.77
18.80
15.27
11.55
7.97
4.65
1.40
-2.03
-5.91
-10.27
-14.88
-19.33
-23.30
-26.69
-29.73
-32.94
-36.94
-42.31
-49.31
-57.71
-66.62
-74.48
-79.38
-79.63
-74.35
-63.84
-49.62
-33.84
-18.63
-5.38
5.35
13.75
20.23
25.14
28.61
30.65
31.43
31.28
30.69
30.14
29.94
30.17
30.70
31.34
31.88
32.23
32.36
32.30
32.03
31.46
30.38
28.65
26.24
23.24
19.93
16.51
13.08
9.61
5.96
2.03
-2.12
-6.33
-10.44
-14.27
-17.83
-21.23
-24.74
-28.69
-33.53
-39.60
-46.93
-54.99
-62.55
-67.85
-69.09
-65.03
-55.57
-41.82
-25.79
-9.66
4.82
16.75
25.97
32.74
37.38
40.12
41.14
40.69
39.25
37.45
35.90
35.03
34.93
35.49
36.42
37.47
38.44
39.24
39.77
39.88
39.35
37.92
35.42
31.89
27.53
22.69
17.69
12.66
7.50
2.02
-3.87
-10.01
-15.98
-21.23
-25.31
-28.12
-29.99
-31.53
-33.54
-36.74
-41.68
-48.43
-56.48
-64.60
-70.97
-73.71
-71.42
-63.80
-51.80
-37.26
-22.28
-8.50
3.29
13.02
20.99
27.48
32.55
36.06
37.97
38.45
37.85
36.68
35.37
34.27
33.51
33.09
32.95
32.98
33.10
33.26
33.40
33.43
33.18
32.45
30.97
28.65
25.57
22.00
18.31
14.77
11.42
8.09
4.44
0.16
-4.81
-10.23
-15.70
-20.84
-25.58
-30.21
-35.28
-41.38
-48.90
-57.85
-67.73
-77.53
-85.72
-90.55
-90.44
-84.48
-72.90
-57.04
-38.99
-20.82
-4.02
10.80
23.58
34.39
42.99
48.81
51.25
50.19
46.20
40.49
34.46
29.22
25.25
22.38
20.02
17.55
14.59
11.11
7.34
3.57
0.02
-3.39
-6.97
-11.26
-16.98
-24.90
-35.71
-49.66
-66.39
-84.64
-102.29
-116.79
-125.78
-127.90
-123.11
-112.74
-98.94
-83.96
-69.59
-56.95
-46.59
-38.92
-34.30
-33.03
-35.03
-39.45
-44.57
-48.06
-47.65
-41.90
-30.66
-15.19
2.33
19.57
34.78
47.19
57.02
65.11
72.33
79.26
85.93
91.89
96.45
98.99
99.15
96.90
92.45
86.02
77.69
67.38
55.03
40.78
25.18
9.17
-6.09
-19.52
-30.33
-38.11
-42.82
-44.58
-43.53
-39.75
-33.25
-24.11
-12.64
0.36
13.58
25.38
34.21
39.12
40.19
38.64
36.57
36.31
39.75
47.62
59.24
72.59
84.82
93.07
95.40
91.40
82.55
71.80
62.72
58.30
60.00
67.26
77.91
89.07
98.28
104.27
107.04
107.30
105.82
102.94
98.62
92.86
86.10
79.32
73.64
69.77
67.52
65.82
63.20
58.55
51.70
43.46
35.25
28.41
23.59
20.49
18.16
15.32
10.94
4.32
-4.78
-16.05
-28.56
-40.63
-50.05
-54.66
-53.11
-45.57
-33.70
-20.11
-7.31
3.14
11.00
16.84
21.27
24.32
25.23
22.99
16.96
7.53
-3.94
-15.38
-24.64
-30.14
-31.14
-27.84
-21.12
-12.26
-2.58
6.84
15.23
22.15
27.38
30.88
32.64
32.76
31.51
29.27
26.58
23.93
21.62
19.70
18.06
16.47
14.80
13.02
11.20
9.49
7.95
6.57
5.23
3.77
2.06
0.05
-2.13
-4.22
-5.94
-7.06
-7.66
-7.98
-8.54
-9.82
-12.17
-15.65
-20.00
-24.73
-29.28
-33.22
-36.34
-38.81
-41.07
-43.71
-47.30
-52.15
-58.13
-64.62
-70.50
-74.38
-75.01
-71.63
-64.21
-53.54
-40.96
-27.93
-15.69
-5.04
3.64
10.25
14.81
17.44
18.39
18.13
17.30
16.57
16.46
17.14
18.45
20.03
21.44
22.40
22.82
22.78
22.53
22.21
21.92
21.57
20.92
19.70
17.68
14.83
11.28
7.29
3.17
-0.87
-4.84
-8.81
-12.89
-17.05
-21.10
-24.77
-27.90
-30.56
-33.08
-35.94
-39.58
-44.27
-49.98
-56.35
-62.70
-68.02
-71.16
-71.02
-66.90
-58.76
-47.34
-34.01
-20.39
-7.99
2.25
9.95
15.22
18.42
20.00
20.29
19.61
18.29
16.70
15.24
14.29
14.00
14.34
15.09
15.94
16.69
17.24
17.60
17.82
17.85
17.53
16.67
15.13
12.95
10.34
7.50
4.56
1.48
-1.90
-5.68
-9.84
-14.18
-18.43
-22.39
-26.01
-29.41
-32.76
-36.30
-40.25
-44.79
-50.06
-56.03
-62.37
-68.31
-72.73
-74.32
-72.09
-65.63
-55.38
-42.53
-28.68
-15.39
-3.81
5.50
12.52
17.52
20.83
22.73
23.45
23.27
22.58
21.80
21.25
21.08
21.16
21.34
21.47
21.58
21.86
22.46
23.35
24.28
24.81
24.46
22.95
20.31
16.80
12.90
9.03
5.46
2.28
-0.61
-3.39
-6.17
-9.01
-11.83
-14.51
-16.90
-19.02
-20.98
-23.06
-25.62
-29.06
-33.70
-39.57
-46.34
-53.13
-58.64
-61.43
-60.29
-54.71
-45.08
-32.62
-18.96
-5.73
5.84
15.11
21.93
26.45
28.97
29.88
29.56
28.41
26.88
25.39
24.29
23.82
24.02
24.74
25.67
26.40
26.58
26.03
24.77
23.01
21.01
18.97
16.94
14.82
12.40
9.44
5.72
1.25
-3.83
-9.20
-14.46
-19.23
-23.32
-26.70
-29.53
-32.10
-34.81
-38.05
-42.16
-47.20
-52.82
-58.16
-61.94
-62.87
-60.03
-53.26
-43.20
-31.11
-18.41
-6.30
4.50
13.68
21.28
27.35
31.90
34.85
36.13
35.80
34.12
31.61
28.89
26.56
25.03
24.41
24.58
25.22
26.06
26.87
27.49
27.76
27.48
26.43
24.42
21.43
17.61
13.26
8.70
4.17
-0.20
-4.38
-8.44
-12.39
-16.23
-19.98
-23.66
-27.40
-31.46
-36.13
-41.63
-47.90
-54.45
-60.32
-64.17
-64.70
-61.05
-53.13
-41.73
-28.28
-14.43
-1.50
9.70
18.98
26.47
32.47
37.13
40.51
42.56
43.30
42.89
41.66
39.99
38.27
36.74
35.48
34.41
33.40
32.34
31.20
30.02
28.80
27.45
25.79
23.55
20.50
16.54
11.78
6.52
1.22
-3.74
-8.12
-11.90
-15.27
-18.52
-21.91
-25.65
-29.90
-34.76
-40.25
-46.16
-51.85
-56.22
-57.94
-55.88
-49.53
-39.30
-26.42
-12.56
0.70
12.30
21.84
29.39
35.22
39.46
42.09
43.03
42.35
40.44
37.96
35.68
34.19
33.74
34.11
34.79
35.20
34.85
33.68
31.86
29.74
27.63
25.57
23.32
20.50
16.83
12.30
7.21
2.11
-2.51
-6.46
-9.86
-13.13
-16.71
-21.01
-26.25
-32.50
-39.64
-47.28
-54.63
-60.50
-63.48
-62.39
-56.70
-46.74
-33.72
-19.37
-5.31
7.23
17.74
26.22
32.91
38.02
41.59
43.55
43.91
42.91
41.04
38.94
37.15
36.00
35.55
35.66
36.10
36.67
37.17
37.45
37.29
36.52
35.01
32.72
29.70
26.07
21.96
17.50
12.80
7.98
3.18
-1.52
-6.03
-10.33
-14.41
-18.26
-22.04
-25.96
-30.46
-35.94
-42.60
-50.14
-57.64
-63.68
-66.71
-65.60
-59.97
-50.39
-38.12
-24.74
-11.66
0.10
10.02
17.97
24.00
28.26
30.83
31.87
31.63
30.43
28.75
27.05
25.75
25.03
24.88
25.12
25.53
25.96
26.42
26.92
27.37
27.53
26.96
25.32
22.52
18.89
15.01
11.53
8.89
7.12
5.86
4.54
2.69
0.08
-3.14
-6.58
-9.83
-12.60
-14.89
-16.98
-19.35
-22.53
-26.98
-32.84
-39.80
-46.98
-53.02
-56.39
-55.86
-50.93
-42.03
-30.37
-17.58
-5.15
5.90
15.11
22.43
28.03
32.06
34.61
35.80
35.81
34.96
33.64
32.26
31.12
30.37
30.02
29.95
30.02
30.16
30.39
30.72
31.08
31.24
30.89
29.69
27.43
24.23
20.41
16.47
12.82
9.62
6.67
3.64
0.14
-3.94
-8.36
-12.67
-16.38
-19.27
-21.45
-23.35
-25.48
-28.30
-32.10
-36.89
-42.39
-47.94
-52.56
-55.04
-54.29
-49.67
-41.32
-30.15
-17.58
-5.17
5.91
14.99
21.92
26.83
29.88
31.23
31.02
29.48
27.00
24.13
21.44
19.35
18.10
17.65
17.79
18.29
18.98
19.74
20.45
20.94
20.93
20.16
18.52
16.05
13.00
9.70
6.43
3.23
0.01
-3.42
-7.18
-11.20
-15.26
-19.07
-22.42
-25.26
-27.75
-30.18
-32.84
-36.06
-40.03
-44.77
-49.97
-54.94
-58.58
-59.66
-57.24
-50.96
-41.30
-29.41
-16.78
-4.73
5.83
14.53
21.36
26.44
29.89
31.74
32.10
31.19
29.39
27.16
24.96
23.06
21.56
20.38
19.45
18.70
18.16
17.87
17.81
17.79
17.54
16.76
15.27
13.02
10.23
7.20
4.28
1.68
-0.61
-2.79
-5.19
-8.11
-11.65
-15.65
-19.73
-23.50
-26.65
-29.20
-31.46
-33.90
-37.03
-41.22
-46.46
-52.31
-57.87
-61.91
-63.19
-60.80
-54.49
-44.78
-32.74
-19.80
-7.31
3.72
12.71
19.50
24.22
27.16
28.68
29.11
28.78
28.02
27.11
26.29
25.74
25.54
25.67
26.05
26.58
27.19
27.81
28.30
28.48
28.14
26.99
24.85
21.66
17.58
12.90
8.06
3.45
-0.73
-4.47
-8.00
-11.59
-15.41
-19.40
-23.32
-26.83
-29.74
-32.08
-34.13
-36.39
-39.34
-43.29
-48.19
-53.57
-58.52
-61.88
-62.51
-59.58
-52.88
-42.94
-30.87
-18.09
-5.89
4.80
13.52
20.25
25.13
28.35
30.10
30.57
30.04
28.85
27.42
26.09
25.14
24.68
24.73
25.24
26.13
27.32
28.71
30.11
31.35
32.21
32.50
32.12
31.05
29.33
27.06
24.36
21.36
18.19
14.98
11.86
8.91
6.19
3.69
1.39
-0.83
-3.09
-5.51
-8.18
-11.12
-14.33
-17.70
-21.10
-24.39
-27.40
-30.06
-32.41
-34.74
-37.48
-41.10
-45.89
-51.66
-57.64
-62.58
-65.02
-63.84
-58.54
-49.52
-37.90
-25.16
-12.74
-1.70
7.41
14.48
19.71
23.34
25.67
26.87
27.09
26.53
25.42
24.05
22.76
21.82
21.35
21.36
21.75
22.36
23.08
23.76
24.24
24.28
23.61
22.07
19.68
16.65
13.32
9.94
6.59
3.15
-0.58
-4.71
-9.12
-13.56
-17.73
-21.48
-24.96
-28.50
-32.53
-37.31
-42.79
-48.46
-53.44
-56.60
-56.87
-53.53
-46.48
-36.27
-23.95
-10.83
1.85
13.14
22.47
29.59
34.53
37.43
38.58
38.23
36.69
34.29
31.46
28.65
26.32
24.83
24.31
24.63
25.43
26.27
26.77
26.71
26.03
24.76
23.00
20.85
18.40
15.67
12.65
9.22
5.30
0.83
-4.05
-9.04
-13.79
-18.01
-21.63
-24.79
-27.81
-31.06
-34.77
-39.07
-43.90
-48.89
-53.30
-56.11
-56.17
-52.57
-45.04
-34.11
-21.07
-7.53
4.98
15.49
23.61
29.43
33.25
35.35
35.91
35.06
33.08
30.43
27.71
25.51
24.23
23.93
24.36
25.10
25.65
25.71
25.17
24.10
22.66
21.03
19.21
17.10
14.47
11.12
6.97
2.21
-2.77
-7.52
-11.64
-15.01
-17.73
-20.09
-22.44
-25.10
-28.33
-32.26
-36.76
-41.37
-45.22
-47.19
-46.17
-41.47
-33.11
-21.89
-9.16
3.55
14.96
24.23
31.04
35.49
37.85
38.44
37.51
35.28
32.00
28.04
23.96
20.41
17.98
16.98
17.40
18.79
20.58
22.14
23.02
23.06
22.29
20.86
18.95
16.70
14.18
11.37
8.21
4.63
0.62
-3.68
-8.06
-12.28
-16.15
-19.63
-22.92
-26.31
-30.16
-34.80
-40.38
-46.75
-53.35
-59.18
-62.91
-63.28
-59.46
-51.42
-39.92
-26.37
-12.31
0.94
12.53
22.08
29.52
34.92
38.42
40.19
40.51
39.78
38.46
36.93
35.45
34.06
32.76
31.47
30.27
29.28
28.64
28.37
28.31
28.12
27.42
25.90
23.48
20.31
16.74
13.16
9.82
6.81
4.00
1.18
-1.86
-5.24
-8.91
-12.74
-16.51
-20.12
-23.62
-27.25
-31.43
-36.57
-42.88
-50.10
-57.37
-63.36
-66.57
-65.83
-60.62
-51.27
-38.91
-25.06
-11.22
1.41
12.15
20.77
27.37
32.16
35.36
37.07
37.39
36.49
34.72
32.61
30.75
29.58
29.23
29.48
29.93
30.29
30.47
30.58
30.77
31.01
30.98
30.21
28.31
25.20
21.17
16.74
12.44
8.65
5.41
2.55
-0.24
-3.23
-6.52
-10.10
-13.80
-17.41
-20.73
-23.63
-26.12
-28.33
-30.54
-33.09
-36.39
-40.72
-46.12
-52.15
-57.83
-61.82
-62.74
-59.66
-52.43
-41.81
-29.20
-16.20
-4.17
6.07
14.21
20.31
24.51
26.98
27.87
27.42
26.08
24.36
22.83
21.87
21.67
22.15
23.04
24.05
24.94
25.64
26.21
26.76
27.25
27.51
27.27
26.22
24.22
21.38
18.04
14.66
11.57
8.90
6.51
4.11
1.40
-1.79
-5.47
-9.47
-13.61
-17.68
-21.57
-25.33
-29.13
-33.27
-38.04
-43.59
-49.66
-55.46
-59.73
-61.09
-58.47
-51.58
-40.99
-28.01
-14.24
-1.14
10.31
19.67
26.90
32.16
35.53
37.06
36.82
35.01
32.07
28.69
25.59
23.42
22.48
22.69
23.63
24.75
25.58
25.91
25.76
25.31
24.73
24.01
22.98
21.40
19.13
16.19
12.88
9.51
6.36
3.46
0.61
-2.57
-6.34
-10.70
-15.39
-19.95
-23.97
-27.25
-29.95
-32.43
-35.23
-38.74
-43.18
-48.51
-54.39
-60.21
-65.08
-67.91
-67.66
-63.64
-55.76
-44.65
-31.53
-17.85
-4.90
6.53
16.09
23.81
29.78
34.03
36.53
37.35
36.74
35.21
33.34
31.61
30.31
29.45
28.92
28.62
28.55
28.68
28.98
29.28
29.34
28.90
27.79
25.99
23.53
20.54
17.14
13.49
9.80
6.31
3.17
0.39
-2.27
-5.17
-8.65
-12.84
-17.54
-22.31
-26.62
-30.14
-32.83
-34.98
-37.13
-39.82
-43.45
-48.11
-53.52
-59.00
-63.48
-65.74
-64.70
-59.78
-51.09
-39.41
-26.06
-12.45
0.19
11.02
19.64
25.94
30.02
32.13
32.63
32.01
30.76
29.35
28.06
27.09
26.46
26.11
25.99
26.07
26.37
26.93
27.77
28.78
29.79
30.50
30.67
30.06
28.54
26.11
22.86
19.04
14.91
10.80
6.94
3.43
0.18
-3.01
-6.30
-9.74
-13.15
-16.32
-19.09
-21.53
-23.95
-26.82
-30.64
-35.62
-41.68
-48.17
-54.07
-58.08
-58.99
-56.02
-49.13
-39.02
-26.90
-14.19
-2.09
8.56
17.35
24.16
29.02
32.04
33.38
33.35
32.31
30.77
29.16
27.85
27.03
26.72
26.81
27.09
27.40
27.71
28.04
28.48
28.99
29.43
29.49
28.90
27.45
25.17
22.26
19.05
15.85
12.81
9.90
6.91
3.54
-0.40
-4.90
-9.74
-14.50
-18.82
-22.49
-25.55
-28.33
-31.37
-35.18
-40.14
-46.22
-52.85
-58.95
-63.07
-63.82
-60.35
-52.63
-41.51
-28.45
-15.02
-2.48
8.39
17.34
24.38
29.64
33.21
35.23
35.89
35.53
34.54
33.31
32.12
31.10
30.25
29.53
28.90
28.41
28.13
28.15
28.46
28.92
29.22
28.99
27.91
25.80
22.78
19.20
15.50
12.10
9.18
6.66
4.23
1.57
-1.52
-4.99
-8.62
-12.08
-15.22
-18.02
-20.71
-23.61
-27.09
-31.47
-36.93
-43.36
-50.23
-56.49
-60.77
-61.73
-58.53
-51.15
-40.44
-27.79
-14.71
-2.42
8.34
17.24
24.21
29.26
32.48
34.01
34.05
32.93
31.01
28.70
26.42
24.53
23.26
22.72
22.86
23.52
24.49
25.53
26.42
26.87
26.65
25.59
23.68
21.11
18.12
15.06
12.13
9.33
6.59
3.71
0.61
-2.67
-5.95
-9.03
-11.72
-14.03
-16.14
-18.32
-20.94
-24.27
-28.48
-33.51
-38.92
-43.92
-47.43
-48.39
-45.99
-40.08
-31.15
-20.28
-8.75
2.25
11.91
19.81
25.83
30.01
32.47
33.37
32.95
31.53
29.48
27.23
25.15
23.54
22.53
22.11
22.14
22.46
22.88
23.27
23.49
23.38
22.73
21.30
18.98
15.80
12.09
8.30
4.84
1.93
-0.52
-2.81
-5.32
-8.29
-11.74
-15.43
-19.02
-22.20
-24.80
-26.96
-28.99
-31.33
-34.38
-38.32
-43.01
-47.87
-51.94
-54.12
-53.46
-49.47
-42.30
-32.68
-21.73
-10.63
-0.34
8.49
15.61
21.00
24.82
27.26
28.59
29.07
28.99
28.60
28.10
27.63
27.24
26.91
26.54
26.08
25.49
24.80
24.05
23.23
22.18
20.62
18.31
15.11
11.16
6.81
2.54
-1.21
-4.24
-6.59
-8.57
-10.58
-12.96
-15.89
-19.31
-22.95
-26.53
-29.88
-33.09
-36.49
-40.54
-45.60
-51.74
-58.61
-65.39
-70.89
-73.79
-72.94
-67.71
-58.20
-45.36
-30.73
-16.08
-2.95
7.70
15.57
20.92
24.32
26.31
27.30
27.57
27.28
26.62
25.86
25.28
25.10
25.38
26.03
26.85
27.63
28.19
28.42
28.19
27.33
25.72
23.36
20.46
17.37
14.48
12.01
9.93
7.99
5.84
3.26
0.24
-3.06
-6.41
-9.66
-12.81
-15.96
-19.33
-23.18
-27.70
-32.87
-38.39
-43.52
-47.20
-48.30
-46.02
-40.20
-31.41
-20.78
-9.70
0.63
9.45
16.48
21.77
25.55
27.97
29.16
29.20
28.23
26.50
24.41
22.35
20.70
19.72
19.47
19.87
20.72
21.77
22.73
23.33
23.36
22.67
21.20
19.04
16.35
13.38
10.31
7.24
4.15
0.92
-2.62
-6.51
-10.65
-14.82
-18.70
-22.07
-24.93
-27.56
-30.46
-34.21
-39.17
-45.21
-51.57
-56.97
-59.95
-59.33
-54.58
-46.10
-34.96
-22.60
-10.37
0.76
10.28
18.00
23.81
27.66
29.53
29.57
28.17
25.91
23.40
21.15
19.45
18.36
17.84
17.73
17.91
18.31
18.80
19.27
19.55
19.48
18.98
18.00
16.55
14.66
12.28
9.41
6.07
2.37
-1.45
-5.13
-8.50
-11.54
-14.39
-17.27
-20.44
-24.05
-28.25
-33.10
-38.58
-44.33
-49.64
-53.40
-54.39
-51.66
-44.83
-34.43
-21.65
-8.10
4.70
15.66
24.27
30.51
34.60
36.82
37.40
36.53
34.53
31.86
29.10
26.79
25.30
24.73
24.91
25.50
26.13
26.55
26.65
26.36
25.69
24.59
23.02
20.95
18.43
15.58
12.50
9.26
5.88
2.29
-1.45
-5.23
-8.82
-12.08
-14.99
-17.75
-20.70
-24.25
-28.71
-34.19
-40.55
-47.25
-53.37
-57.73
-59.07
-56.56
-50.01
-40.07
-28.02
-15.43
-3.55
6.82
15.47
22.48
28.05
32.24
35.04
36.48
36.71
36.09
35.07
34.11
33.44
33.12
33.05
33.06
33.04
32.92
32.75
32.52
32.21
31.69
30.76
29.21
26.87
23.72
19.93
15.82
11.73
7.90
4.33
0.80
-2.90
-6.89
-10.99
-14.89
-18.26
-21.03
-23.41
-25.82
-28.72
-32.49
-37.30
-43.01
-49.15
-54.83
-58.85
-59.95
-57.20
-50.39
-40.15
-27.77
-14.81
-2.55
8.23
17.26
24.52
30.07
33.84
35.76
35.90
34.58
32.36
29.91
27.84
26.58
26.27
26.78
27.86
29.21
30.66
32.11
33.55
34.87
35.81
35.97
35.01
32.73
29.30
25.18
20.99
17.26
14.16
11.50
8.82
5.65
1.76
-2.73
-7.46
-12.01
-16.06
-19.57
-22.71
-25.76
-28.97
-32.60
-36.86
-41.89
-47.59
-53.47
-58.54
-61.54
-61.22
-56.90
-48.72
-37.64
-25.11
-12.62
-1.31
8.17
15.63
21.17
25.00
27.31
28.32
28.22
27.26
25.77
24.13
22.73
21.84
21.52
21.68
22.13
22.71
23.35
23.99
24.52
24.71
24.24
22.86
20.54
17.54
14.29
11.17
8.35
5.71
2.95
-0.18
-3.75
-7.54
-11.22
-14.46
-17.08
-19.17
-21.04
-23.12
-25.83
-29.49
-34.16
-39.55
-45.02
-49.53
-51.95
-51.33
-47.17
-39.67
-29.64
-18.33
-6.98
3.38
12.16
19.14
24.28
27.68
29.44
29.75
28.93
27.48
25.90
24.64
23.89
23.62
23.65
23.80
24.00
24.23
24.48
24.61
24.41
23.58
21.97
19.59
16.60
13.29
9.94
6.74
3.73
0.89
-1.92
-4.84
-8.01
-11.52
-15.31
-19.19
-22.88
-26.16
-28.95
-31.46
-34.10
-37.40
-41.71
-46.95
-52.49
-57.23
-59.91
-59.46
-55.38
-47.81
-37.49
-25.53
-13.09
-1.24
9.22
17.80
24.27
28.63
31.07
31.86
31.37
29.95
27.97
25.82
23.85
22.33
21.34
20.77
20.42
20.09
19.67
19.16
18.64
18.07
17.32
16.15
14.38
11.98
9.16
6.26
3.60
1.37
-0.54
-2.45
-4.79
-7.83
-11.59
-15.78
-19.87
-23.42
-26.22
-28.51
-30.72
-33.46
-37.16
-41.92
-47.54
-53.54
-59.24
-63.90
-66.82
-67.39
-65.35
-60.73
-53.98
-45.84
-37.19
-28.91
-21.80
-16.64
-14.14
-14.96
-19.60
-28.11
-39.92
-53.66
-67.30
-78.52
-85.33
-86.59
-82.29
-73.45
-61.75
-48.99
-36.61
-25.54
-16.11
-8.21
-1.44
4.75
10.97
17.82
25.85
35.37
46.39
58.43
70.52
81.33
89.55
94.35
95.68
94.36
91.61
88.58
85.80
83.08
79.65
74.59
67.30
57.83
47.04
36.42
27.75
22.64
21.92
25.44
32.04
39.86
47.01
52.03
54.21
53.48
50.06
44.23
36.25
26.47
15.63
4.95
-4.05
-9.92
-11.78
-9.54
-4.06
3.24
10.71
16.90
20.83
22.05
20.60
16.89
11.59
5.50
-0.57
-5.94
-10.13
-12.96
-14.49
-14.95
-14.59
-13.66
-12.37
-10.84
-9.09
-7.04
-4.45
-1.09
3.07
7.72
12.17
15.62
17.55
17.99
17.52
17.03
17.27
18.57
20.79
23.55
26.58
29.80
33.27
36.95
40.51
43.21
44.28
43.18
39.90
35.04
29.54
24.42
20.40
17.77
16.36
15.65
14.94
13.53
10.99
7.32
3.02
-1.04
-3.97
-5.21
-4.80
-3.32
-1.61
-0.34
0.27
0.37
0.21
-0.19
-1.14
-3.19
-6.83
-12.26
-19.32
-27.55
-36.36
-45.09
-52.97
-59.12
-62.63
-62.69
-58.87
-51.36
-40.99
-29.10
-17.16
-6.45
2.27
8.85
13.57
16.97
19.50
21.44
22.82
23.58
23.62
22.88
21.38
19.19
16.43
13.29
10.10
7.20
4.87
3.21
2.00
0.71
-1.34
-4.81
-10.00
-16.65
-23.86
-30.30
-34.56
-35.73
-33.69
-29.30
-24.01
-19.47
-16.92
-16.97
-19.56
-24.16
-29.92
-35.83
-40.73
-43.39
-42.77
-38.30
-30.13
-19.24
-7.19
4.35
14.00
21.04
25.36
27.33
27.52
26.45
24.54
22.12
19.50
16.97
14.79
13.08
11.77
10.68
9.51
8.02
6.11
3.81
1.22
-1.53
-4.46
-7.73
-11.52
-15.99
-21.00
-26.13
-30.74
-34.22
-36.29
-37.14
-37.41
-37.84
-39.01
-41.07
-43.76
-46.56
-48.79
-49.70
-48.65
-45.08
-38.79
-30.04
-19.66
-8.82
1.24
9.65
16.02
20.40
23.05
24.23
24.15
22.98
20.95
18.40
15.76
13.35
11.33
9.71
8.32
6.94
5.34
3.31
0.74
-2.36
-5.87
-9.58
-13.21
-16.64
-19.91
-23.26
-27.12
-31.81
-37.34
-43.19
-48.39
-51.72
-52.24
-49.55
-43.98
-36.49
-28.36
-20.83
-14.68
-10.11
-6.59
-3.11
1.60
8.57
18.23
30.07
42.83
54.92
64.98
72.46
77.66
81.56
85.25
89.35
93.71
97.38
99.08
97.84
93.44
86.64
78.89
71.74
66.18
62.28
59.24
55.91
51.43
45.56
38.68
31.37
23.97
16.37
8.18
-0.94
-10.99
-21.56
-32.01
-41.73
-50.32
-57.48
-62.86
-66.05
-66.65
-64.56
-60.14
-54.27
-48.13
-42.89
-39.44
-38.23
-39.22
-41.90
-45.25
-47.85
-48.19
-45.00
-37.73
-26.80
-13.42
0.69
13.92
25.05
33.61
39.65
43.50
45.56
46.10
45.31
43.37
40.51
37.06
33.37
29.80
26.69
24.38
23.19
23.19
24.02
24.82
24.32
21.31
15.18
6.29
-4.12
-14.32
-22.86
-29.02
-33.04
-35.73
-38.10
-40.96
-44.74
-49.52
-55.07
-60.85
-66.00
-69.51
-70.50
-68.62
-64.33
-58.83
-53.72
-50.31
-49.17
-49.83
-51.00
-51.01
-48.49
-42.84
-34.32
-23.89
-12.79
-2.09
7.53
15.88
22.99
28.93
33.62
36.96
38.89
39.61
39.57
39.33
39.37
39.92
40.96
42.32
43.85
45.55
47.45
49.51
51.53
53.02
53.37
52.03
48.68
43.33
36.25
27.89
18.79
9.44
0.30
-8.32
-16.14
-23.05
-28.97
-33.92
-37.97
-41.34
-44.41
-47.72
-51.80
-57.02
-63.42
-70.62
-77.85
-84.07
-88.20
-89.33
-86.87
-80.76
-71.41
-59.70
-46.78
-33.88
-22.05
-12.00
-3.98
2.05
6.37
9.35
11.28
12.46
13.14
13.61
14.10
14.79
15.76
16.93
18.18
19.44
20.74
22.21
23.94
25.85
27.63
28.86
29.12
28.17
26.05
23.05
19.60
16.13
12.96
10.18
7.68
5.23
2.59
-0.40
-3.68
-7.05
-10.20
-12.87
-14.96
-16.62
-18.24
-20.25
-23.04
-26.67
-30.79
-34.67
-37.35
-37.90
-35.77
-30.94
-23.97
-15.72
-7.20
0.75
7.59
13.05
17.08
19.77
21.34
22.09
22.29
22.25
22.13
22.01
21.90
21.85
21.93
22.28
23.00
24.11
25.52
27.08
28.59
29.91
30.86
31.25
30.87
29.56
27.29
24.24
20.79
17.31
14.01
10.88
7.68
4.22
0.44
-3.45
-7.15
-10.42
-13.28
-15.95
-18.79
-22.17
-26.30
-31.26
-36.93
-43.02
-48.99
-54.01
-57.08
-57.27
-53.97
-47.07
-37.08
-24.93
-11.88
0.70
11.49
19.32
23.30
22.96
18.51
10.79
1.35
-7.93
-15.20
-19.09
-19.04
-15.34
-8.92
-1.05
7.00
14.19
19.71
23.09
24.11
22.95
20.10
16.34
12.50
9.18
6.61
4.57
2.62
0.37
-2.36
-5.46
-8.62
-11.54
-14.07
-16.26
-18.33
-20.58
-23.29
-26.69
-30.86
-35.54
-40.20
-43.87
-45.40
-43.76
-38.41
-29.60
-18.35
-6.13
5.55
15.60
23.51
29.29
33.18
35.48
36.38
36.04
34.69
32.78
30.84
29.39
28.78
29.01
29.81
30.72
31.37
31.56
31.29
30.71
29.98
29.17
28.20
26.93
25.19
22.91
20.17
17.12
13.97
10.95
8.18
5.74
3.60
1.60
-0.51
-3.06
-6.40
-10.86
-16.46
-22.91
-29.49
-35.13
-38.71
-39.36
-36.69
-30.96
-22.99
-13.83
-4.60
3.88
11.11
16.92
21.34
24.47
26.44
27.36
27.31
26.44
24.98
23.27
21.71
20.64
20.19
20.28
20.65
21.02
21.16
21.07
20.82
20.44
19.85
18.82
17.05
14.34
10.76
6.58
2.26
-1.73
-5.10
-7.78
-9.96
-12.02
-14.43
-17.61
-21.84
-27.17
-33.27
-39.40
-44.49
-47.36
-47.02
-43.01
-35.49
-25.35
-13.82
-2.21
8.38
17.28
24.20
29.12
32.17
33.59
33.62
32.56
30.79
28.68
26.66
25.09
24.18
23.99
24.38
25.08
25.80
26.27
26.36
26.00
25.16
23.78
21.79
19.08
15.63
11.47
6.82
1.98
-2.64
-6.71
-10.05
-12.69
-14.96
-17.29
-20.11
-23.73
-28.21
-33.29
-38.37
-42.59
-44.94
-44.52
-40.79
-33.81
-24.32
-13.46
-2.57
7.34
15.61
22.06
26.79
29.93
31.66
32.10
31.49
30.17
28.58
27.13
26.19
25.84
25.97
26.34
26.63
26.68
26.40
25.88
25.20
24.40
23.37
21.91
19.77
16.77
12.96
8.52
3.79
-0.85
-5.14
-8.97
-12.45
-15.85
-19.52
-23.76
-28.68
-34.11
-39.54
-44.16
-46.98
-47.07
-43.87
-37.40
-28.29
-17.64
-6.71
3.39
11.89
18.48
23.11
25.98
27.29
27.30
26.26
24.46
22.30
20.18
18.47
17.38
16.92
16.88
16.94
16.82
16.35
15.54
14.52
13.38
12.17
10.77
8.99
6.67
3.78
0.48
-2.96
-6.21
-9.06
-11.49
-13.59
-15.62
-17.86
-20.60
-24.09
-28.43
-33.45
-38.57
-42.82
-45.05
-44.31
-40.18
-33.00
-23.75
-13.72
-4.19
3.92
10.09
14.19
16.32
16.71
15.73
13.82
11.52
9.36
7.74
6.88
6.77
7.21
7.96
8.78
9.53
10.16
10.62
10.91
10.90
10.37
9.11
6.91
3.75
-0.25
-4.78
-9.45
-13.91
-17.96
-21.58
-24.96
-28.43
-32.35
-36.96
-42.21
-47.59
-52.22
-54.97
-54.76
-50.91
-43.45
-33.09
-21.08
-8.89
2.21
11.38
18.28
23.00
25.84
27.11
27.05
25.95
24.12
22.05
20.22
19.02
18.60
18.78
19.27
19.71
19.94
19.95
19.85
19.73
19.50
18.91
17.57
15.21
11.72
7.33
2.47
-2.37
-6.80
-10.72
-14.28
-17.82
-21.71
-26.19
-31.38
-37.15
-43.14
-48.69
-52.96
-54.97
-53.93
-49.47
-41.87
-31.98
-21.06
-10.33
-0.71
7.34
13.75
18.68
22.25
24.46
25.30
24.81
23.25
21.15
19.16
17.88
17.63
18.33
19.60
20.89
21.73
21.93
21.45
20.47
19.15
17.59
15.73
13.43
10.58
7.09
3.02
-1.42
-5.99
-10.44
-14.67
-18.67
-22.56
-26.50
-30.69
-35.24
-40.25
-45.56
-50.74
-54.98
-57.28
-56.66
-52.52
-44.94
-34.68
-22.98
-11.24
-0.59
8.29
15.19
20.23
23.67
25.75
26.63
26.48
25.48
23.95
22.32
21.03
20.38
20.48
21.20
22.28
23.43
24.43
25.14
25.53
25.56
25.17
24.29
22.83
20.71
17.93
14.46
10.38
5.83
0.97
-3.95
-8.73
-13.23
-17.40
-21.28
-25.00
-28.76
-32.82
-37.47
-42.78
-48.48
-53.76
-57.47
-58.29
-55.28
-48.22
-37.75
-25.15
-11.97
0.43
11.15
19.79
26.27
30.69
33.15
33.80
32.86
30.75
28.00
25.25
23.01
21.63
21.19
21.49
22.17
22.82
23.07
22.72
21.78
20.36
18.64
16.69
14.51
11.99
9.04
5.65
1.93
-1.88
-5.56
-9.00
-12.26
-15.49
-18.88
-22.62
-26.83
-31.61
-36.96
-42.66
-48.16
-52.51
-54.57
-53.28
-48.09
-39.23
-27.66
-14.84
-2.28
8.88
18.02
25.12
30.40
34.25
36.91
38.49
38.97
38.36
36.85
34.84
32.88
31.48
30.98
31.43
32.54
33.95
35.23
36.07
36.32
35.86
34.62
32.48
29.37
25.27
20.34
14.86
9.17
3.58
-1.68
-6.46
-10.65
-14.21
-17.21
-19.82
-22.34
-25.20
-28.77
-33.41
-39.23
-46.07
-53.33
-60.02
-64.81
-66.39
-63.85
-57.09
-46.91
-34.72
-22.09
-10.29
-0.04
8.47
15.32
20.64
24.52
27.03
28.41
29.01
29.31
29.72
30.43
31.35
32.28
33.06
33.69
34.30
35.08
35.98
36.77
37.00
36.29
34.48
31.74
28.46
25.05
21.74
18.53
15.26
11.71
7.72
3.27
-1.54
-6.51
-11.40
-15.98
-20.11
-23.81
-27.30
-30.99
-35.35
-40.72
-47.02
-53.60
-59.29
-62.64
-62.37
-57.80
-49.14
-37.43
-24.16
-10.87
1.31
11.74
20.20
26.73
31.43
34.44
35.96
36.31
35.85
34.99
34.07
33.27
32.64
32.18
31.85
31.65
31.60
31.65
31.68
31.46
30.76
29.40
27.35
24.72
21.72
18.61
15.59
12.73
10.03
7.31
4.34
0.89
-3.17
-7.81
-12.77
-17.66
-22.19
-26.28
-30.16
-34.30
-39.22
-45.17
-51.97
-58.83
-64.54
-67.68
-67.09
-62.30
-53.68
-42.35
-29.86
-17.69
-6.85
2.25
9.64
15.59
20.25
23.62
25.66
26.45
26.29
25.65
24.97
24.51
24.31
24.22
24.09
23.86
23.57
23.31
23.13
22.97
22.69
22.15
21.19
19.70
17.61
14.86
11.45
7.50
3.20
-1.20
-5.46
-9.43
-13.08
-16.55
-20.14
-24.22
-29.12
-35.07
-42.01
-49.50
-56.61
-62.12
-64.70
-63.31
-57.59
-47.99
-35.70
-22.27
-9.20
2.43
12.12
19.81
25.70
29.93
32.60
33.75
33.52
32.29
30.63
29.18
28.39
28.41
29.01
29.75
30.19
30.07
29.40
28.39
27.25
26.16
25.13
23.99
22.54
20.54
17.86
14.43
10.32
5.62
0.54
-4.75
-10.05
-15.24
-20.26
-25.17
-30.21
-35.69
-41.86
-48.67
-55.63
-61.73
-65.66
-66.19
-62.51
-54.62
-43.32
-30.00
-16.27
-3.51
7.36
16.02
22.59
27.32
30.49
32.23
32.71
32.24
31.33
30.68
30.85
32.07
34.11
36.35
38.15
39.02
38.86
37.89
36.50
35.03
33.66
32.37
30.95
29.15
26.73
23.60
19.82
15.56
11.02
6.35
1.60
-3.16
-7.83
-12.36
-16.72
-21.20
-26.18
-32.06
-38.79
-45.77
-51.80
-55.35
-55.13
-50.47
-41.51
-29.21
-14.93
-0.20
13.63
25.57
35.03
41.78
45.91
47.68
47.49
45.80
43.15
40.19
37.52
35.66
34.80
34.86
35.52
36.38
37.09
37.42
37.21
36.21
34.14
30.66
25.61
19.08
11.51
3.56
-4.06
-10.88
-16.78
-21.99
-26.93
-31.96
-37.32
-43.01
-48.97
-55.14
-61.50
-67.95
-74.15
-79.33
-82.53
-82.89
-80.05
-74.35
-66.57
-57.50
-47.53
-36.54
-24.23
-10.62
3.60
17.09
28.28
36.05
40.10
41.04
40.10
38.50
37.25
36.84
37.38
38.76
40.72
43.02
45.37
47.47
49.02
49.70
49.25
47.52
44.52
40.43
35.50
29.93
23.86
17.24
10.07
2.42
-5.42
-13.08
-20.20
-26.63
-32.56
-38.36
-44.44
-50.82
-57.02
-61.98
-64.29
-62.58
-56.04
-44.74
-29.63
-12.46
4.81
20.38
33.02
42.11
47.56
49.66
48.97
46.26
42.48
38.69
35.88
34.67
35.19
37.08
39.64
42.10
43.88
44.66
44.34
42.95
40.56
37.27
33.19
28.46
23.23
17.65
11.85
5.96
0.18
-5.28
-10.22
-14.59
-18.52
-22.31
-26.33
-30.91
-36.31
-42.68
-50.02
-58.01
-65.94
-72.53
-76.23
-75.60
-69.90
-59.50
-45.83
-30.92
-16.85
-5.06
3.87
10.07
14.11
16.51
17.65
17.77
17.05
15.84
14.59
13.73
13.49
13.85
14.52
15.15
15.47
15.47
15.34
15.29
15.42
15.52
15.17
13.85
11.22
7.29
2.40
-2.86
-7.91
-12.37
-16.22
-19.67
-23.12
-27.00
-31.64
-37.28
-43.91
-51.21
-58.43
-64.48
-68.08
-68.26
-64.62
-57.60
-48.29
-37.92
-27.39
-16.98
-6.48
4.44
15.75
26.80
36.49
43.65
47.57
48.17
46.07
42.20
37.49
32.65
28.06
23.87
20.11
16.87
14.25
12.39
11.36
11.07
11.23
11.38
11.05
9.91
7.88
5.18
2.23
-0.53
-2.88
-4.89
-6.93
-9.49
-13.04
-17.85
-23.95
-31.06
-38.57
-45.49
-50.57
-52.50
-50.22
-43.35
-32.42
-18.81
-4.43
8.89
19.84
27.92
33.32
36.52
38.03
38.09
36.83
34.41
31.28
28.14
25.73
24.52
24.49
25.10
25.50
25.00
23.27
20.52
17.31
14.23
11.58
9.20
6.55
2.92
-2.18
-8.82
-16.58
-24.67
-32.29
-38.83
-44.14
-48.58
-52.87
-57.90
-64.44
-72.93
-83.24
-94.46
-104.87
-112.27
-114.46
-109.91
-98.27
-80.60
-59.04
-36.22
-14.47
4.63
20.39
32.86
42.37
49.33
54.05
56.78
57.84
57.61
56.60
55.31
54.17
53.46
53.31
53.62
54.26
55.05
55.88
56.65
57.33
57.82
57.94
57.37
55.74
52.69
48.06
41.92
34.55
26.54
18.52
11.14
4.84
-0.23
-4.25
-7.66
-11.00
-14.84
-19.60
-25.52
-32.48
-39.92
-46.76
-51.50
-52.59
-48.96
-40.48
-28.10
-13.64
0.83
13.60
23.71
31.00
35.80
38.50
39.40
38.63
36.38
33.02
29.19
25.62
22.87
21.21
20.50
20.32
20.16
19.64
18.63
17.26
15.77
14.33
12.86
11.01
8.30
4.41
-0.65
-6.35
-11.85
-16.28
-19.16
-20.64
-21.40
-22.36
-24.28
-27.44
-31.73
-36.83
-42.49
-48.65
-55.20
-61.64
-66.87
-69.29
-67.36
-60.27
-48.32
-32.95
-16.18
0.05
14.40
26.31
35.76
42.94
47.90
50.57
50.93
49.19
45.96
42.06
38.38
35.48
33.57
32.50
31.94
31.59
31.43
31.56
32.13
32.97
33.61
33.22
31.05
26.82
20.94
14.45
8.66
4.61
2.70
2.54
3.31
4.03
4.05
3.08
1.18
-1.56
-5.11
-9.65
-15.38
-22.33
-30.08
-37.68
-43.78
-46.96
-46.12
-40.92
-31.94
-20.50
-8.29
3.21
13.05
20.88
26.80
31.09
33.94
35.43
35.64
34.75
33.18
31.40
29.82
28.60
27.68
26.91
26.15
25.40
24.71
24.05
23.26
22.01
20.03
17.21
13.71
9.82
5.84
1.88
-2.14
-6.30
-10.61
-14.87
-18.79
-22.10
-24.74
-26.84
-28.71
-30.69
-33.07
-36.11
-39.90
-44.33
-48.95
-52.87
-54.91
-53.97
-49.39
-41.30
-30.67
-19.00
-7.87
1.51
8.57
13.37
16.37
18.05
18.77
18.67
17.77
16.15
14.01
11.74
9.84
8.72
8.60
9.36
10.62
11.85
12.66
12.83
12.41
11.65
10.75
9.75
8.62
7.20
5.36
3.03
0.20
-3.13
-6.87
-10.92
-15.03
-18.97
-22.54
-25.77
-28.89
-32.27
-36.24
-40.84
-45.73
-50.11
-52.93
-53.15
-50.04
-43.48
-34.02
-22.76
-11.08
-0.25
8.88
15.81
20.49
22.97
23.46
22.24
19.70
16.42
13.06
10.26
8.41
7.59
7.51
7.71
7.67
7.04
5.70
3.79
1.57
-0.71
-2.99
-5.40
-8.32
-12.08
-16.85
-22.48
-28.58
-34.62
-40.06
-44.59
-48.09
-50.62
-52.42
-53.81
-55.20
-57.01
-59.51
-62.62
-65.80
-68.04
-68.12
-64.95
-58.01
-47.45
-34.12
-19.35
-4.53
9.18
21.04
30.73
38.26
43.81
47.56
49.67
50.29
49.65
48.07
46.00
43.89
42.06
40.66
39.70
39.04
38.55
38.06
37.40
36.40
34.92
32.90
30.43
27.60
24.47
20.96
16.95
12.29
6.99
1.28
-4.51
-10.06
-15.19
-19.99
-24.74
-29.79
-35.45
-41.90
-49.06
-56.49
-63.41
-68.67
-71.04
-69.51
-63.72
-54.13
-41.91
-28.68
-16.08
-5.31
2.97
8.66
12.02
13.49
13.52
12.55
10.95
9.14
7.46
6.17
5.48
5.46
6.09
7.31
9.00
10.99
13.05
14.87
16.19
16.83
16.74
16.04
14.88
13.33
11.30
8.60
5.04
0.56
-4.71
-10.44
-16.17
-21.58
-26.46
-30.92
-35.31
-40.21
-46.31
-54.22
-64.16
-75.71
-87.61
-98.00
-104.74
-106.12
-101.38
-90.94
-76.11
-58.63
-40.04
-21.30
-2.75
15.64
33.89
51.64
68.17
82.53
93.87
101.69
106.06
107.48
106.70
104.45
101.31
97.74
94.05
90.48
87.27
84.66
82.96
82.57
83.88
86.98
91.41
96.11
99.65
100.85
99.27
95.30
89.92
84.12
78.52
73.48
69.39
67.04
67.54
71.73
79.61
89.96
100.66
109.33
114.14
114.04
108.82
98.77
84.56
67.28
48.50
30.26
14.53
2.71
-4.85
-9.00
-11.33
-13.52
-16.78
-21.51
-27.36
-33.64
-39.56
-44.54
-48.21
-50.33
-50.84
-49.76
-47.32
-43.93
-40.25
-36.95
-34.56
-33.29
-32.84
-32.69
-32.24
-31.31
-30.13
-29.38
-29.77
-31.70
-35.05
-39.25
-43.62
-47.70
-51.44
-55.12
-59.20
-64.02
-69.81
-76.68
-84.65
-93.44
-102.41
-110.50
-116.43
-119.10
-117.98
-113.17
-105.29
-95.12
-83.41
-70.69
-57.47
-44.29
-31.68
-20.05
-9.51
0.17
9.28
18.14
26.82
35.29
43.49
51.42
59.10
66.49
73.40
79.48
84.39
87.93
90.08
90.93
90.56
88.92
85.89
81.37
75.42
68.33
60.57
52.62
44.89
37.56
30.58
23.71
16.61
8.96
0.50
-8.96
-19.50
-30.96
-42.81
-54.01
-63.01
-68.10
-67.94
-62.13
-51.48
-37.95
-23.92
-11.46
-1.71
5.21
9.91
13.10
15.20
16.19
15.86
14.10
11.16
7.64
4.36
1.99
0.85
0.82
1.36
1.79
1.51
0.22
-1.97
-4.70
-7.56
-10.25
-12.78
-15.37
-18.29
-21.67
-25.41
-29.22
-32.74
-35.75
-38.27
-40.55
-42.93
-45.77
-49.34
-53.83
-59.21
-65.16
-70.92
-75.24
-76.59
-73.64
-65.70
-53.09
-37.18
-19.91
-3.31
11.06
22.39
30.52
35.72
38.37
38.78
37.25
34.18
30.08
25.62
21.54
18.43
16.60
16.07
16.52
17.46
18.33
18.73
18.44
17.49
16.01
14.13
11.89
9.19
5.91
1.96
-2.63
-7.70
-12.94
-18.08
-22.94
-27.51
-32.02
-36.80
-42.17
-48.32
-55.20
-62.51
-69.69
-75.82
-79.69
-79.94
-75.40
-65.57
-51.06
-33.58
-15.50
0.90
14.06
23.58
29.95
34.05
36.59
37.83
37.79
36.52
34.35
31.87
29.63
27.91
26.61
25.36
23.80
21.84
19.69
17.71
16.13
14.86
13.46
11.35
8.01
3.28
-2.60
-9.04
-15.31
-20.76
-25.05
-28.25
-30.79
-33.36
-36.70
-41.35
-47.44
-54.52
-61.53
-66.90
-68.90
-66.17
-58.13
-45.36
-29.39
-12.34
3.71
17.26
27.59
34.70
38.96
40.80
40.59
38.62
35.35
31.32
27.24
23.72
21.16
19.63
18.86
18.47
18.15
17.74
17.24
16.72
16.20
15.60
14.69
13.25
11.07
8.05
4.26
-0.18
-5.03
-10.03
-14.94
-19.65
-24.14
-28.52
-33.08
-38.13
-44.04
-50.97
-58.62
-66.07
-71.78
-73.90
-70.87
-62.01
-47.90
-30.23
-11.32
6.63
22.15
34.66
44.24
51.23
55.82
58.08
58.01
55.86
52.22
47.94
43.92
40.77
38.72
37.61
37.02
36.48
35.66
34.42
32.79
30.87
28.74
26.36
23.61
20.30
16.33
11.68
6.50
1.04
-4.33
-9.24
-13.44
-16.80
-19.44
-21.70
-24.08
-27.14
-31.40
-37.09
-43.98
-51.32
-57.76
-61.67
-61.51
-56.45
-46.73
-33.73
-19.63
-6.72
3.28
9.69
12.87
13.79
13.50
12.72
11.75
10.65
9.47
8.47
8.04
8.53
9.99
12.16
14.51
16.53
17.92
18.68
18.99
19.16
19.37
19.61
19.67
19.23
17.98
15.73
12.51
8.57
4.32
0.22
-3.37
-6.27
-8.51
-10.29
-11.97
-14.12
-17.46
-22.69
-30.18
-39.59
-49.59
-58.07
-62.76
-62.13
-56.12
-46.22
-34.88
-24.51
-16.61
-11.39
-8.10
-5.74
-3.61
-1.49
0.60
2.73
5.23
8.54
12.86
17.98
23.36
28.41
32.91
37.06
41.45
46.62
52.76
59.47
65.89
71.05
74.18
75.04
73.93
71.44
68.16
64.44
60.24
55.38
49.61
42.87
35.36
27.46
19.67
12.35
5.60
-0.82
-7.47
-15.08
-24.19
-34.79
-46.01
-56.12
-62.85
-64.10
-58.73
-47.03
-30.73
-12.47
5.03
19.80
30.95
38.53
43.12
45.31
45.45
43.81
40.75
36.90
33.08
30.06
28.19
27.36
27.03
26.60
25.56
23.73
21.21
18.25
15.12
11.93
8.71
5.35
1.74
-2.22
-6.65
-11.72
-17.81
-25.38
-34.78
-45.94
-58.16
-70.06
-79.96
-86.40
-88.64
-86.94
-82.40
-76.62
-71.25
-67.61
-66.56
-68.21
-71.86
-75.77
-77.47
-74.27
-64.26
-47.09
-24.30
1.06
25.48
46.10
61.41
71.37
76.84
78.93
78.49
76.04
71.93
66.59
60.60
54.62
49.22
44.75
41.30
38.74
36.78
35.03
33.09
30.65
27.49
23.60
19.10
14.24
9.22
4.07
-1.48
-7.94
-15.94
-25.80
-37.28
-49.46
-60.89
-70.10
-76.06
-78.55
-78.06
-75.65
-72.54
-69.77
-68.05
-67.51
-67.58
-66.92
-63.69
-56.09
-43.10
-25.04
-3.62
18.61
38.99
55.62
67.68
75.28
79.06
79.71
77.77
73.64
67.79
60.90
53.76
47.13
41.54
37.11
33.54
30.37
27.18
23.78
20.15
16.27
11.88
6.25
-1.52
-12.11
-25.45
-40.45
-55.19
-67.51
-75.74
-79.15
-77.98
-73.00
-65.05
-54.70
-42.30
-28.33
-13.70
0.21
11.76
19.59
22.97
22.11
17.92
11.85
5.57
0.71
-1.42
-0.01
4.98
12.91
22.44
32.02
40.24
46.20
49.60
50.57
49.48
46.71
42.70
38.01
33.37
29.60
27.35
26.86
27.80
29.40
30.72
30.93
29.50
26.27
21.16
14.10
4.94
-6.38
-19.55
-33.74
-47.62
-59.73
-68.96
-74.84
-77.53
-77.48
-74.91
-69.68
-61.41
-49.91
-35.64
-19.79
-4.07
9.82
20.69
28.06
32.07
33.41
32.98
31.76
30.68
30.40
31.26
33.17
35.65
37.97
39.32
39.05
36.79
32.61
27.03
20.95
15.43
11.36
9.18
8.70
9.18
9.68
9.43
8.12
5.89
3.21
0.57
-1.76
-3.84
-6.12
-9.31
-14.17
-21.24
-30.52
-41.30
-52.27
-61.82
-68.63
-72.07
-72.46
-70.74
-68.17
-65.85
-64.38
-63.80
-63.53
-62.46
-59.11
-52.04
-40.28
-23.91
-4.20
16.63
36.02
51.96
63.44
70.54
74.01
74.77
73.46
70.46
66.06
60.70
55.05
49.84
45.61
42.57
40.57
39.17
37.91
36.46
34.58
32.15
29.07
25.38
21.15
16.56
11.77
6.92
2.03
-2.98
-8.36
-14.45
-21.66
-30.30
-40.28
-51.00
-61.25
-69.53
-74.48
-75.25
-71.72
-64.43
-54.27
-42.22
-29.18
-15.92
-3.11
8.70
19.17
28.19
35.86
42.36
47.81
52.13
54.99
55.93
54.52
50.57
44.37
36.75
28.93
22.13
17.21
14.36
13.14
12.73
12.41
11.83
11.00
10.13
9.31
8.33
6.78
4.21
0.40
-4.52
-10.13
-15.93
-21.48
-26.52
-31.03
-35.15
-39.22
-43.71
-49.12
-55.72
-63.31
-71.01
-77.28
-80.30
-78.57
-71.44
-59.46
-44.27
-28.04
-12.82
-0.02
9.83
16.88
21.57
24.26
25.07
24.06
21.38
17.52
13.29
9.60
7.14
6.08
6.02
6.09
5.43
3.52
0.39
-3.33
-6.86
-9.57
-11.40
-12.87
-14.90
-18.27
-23.31
-29.72
-36.71
-43.42
-49.25
-54.11
-58.34
-62.62
-67.71
-74.26
-82.67
-92.85
-104.08
-114.76
-122.49
-124.53
-118.65
-103.98
-81.58
-54.34
-26.02
-0.09
21.27
37.62
49.67
58.53
64.93
68.96
70.42
69.43
66.72
63.53
61.07
59.93
59.89
60.10
59.61
57.85
54.95
51.58
48.56
46.43
45.18
44.20
42.61
39.56
34.66
28.02
20.21
11.99
4.03
-3.27
-9.89
-16.13
-22.49
-29.49
-37.46
-46.28
-55.15
-62.58
-66.76
-66.11
-59.89
-48.57
-33.71
-17.41
-1.71
11.97
23.01
31.41
37.48
41.53
43.84
44.62
44.18
42.95
41.44
40.10
39.24
38.97
39.14
39.49
39.72
39.71
39.52
39.38
39.50
39.94
40.46
40.56
39.63
37.25
33.34
28.21
22.44
16.64
11.17
6.11
1.27
-3.70
-9.13
-15.33
-22.45
-30.58
-39.69
-49.47
-59.21
-67.68
-73.34
-74.69
-70.76
-61.54
-48.08
-32.17
-15.87
-0.90
11.61
21.25
28.09
32.42
34.63
35.13
34.34
32.78
30.97
29.34
28.23
27.87
28.33
29.50
31.15
32.94
34.49
35.51
35.89
35.69
35.03
33.98
32.51
30.50
27.75
24.17
19.83
14.97
9.89
4.93
0.29
-3.95
-7.87
-11.73
-15.86
-20.65
-26.43
-33.16
-40.38
-46.97
-51.37
-52.01
-47.83
-38.75
-25.78
-10.69
4.50
18.16
29.27
37.47
42.82
45.55
45.97
44.43
41.47
37.80
34.20
31.37
29.71
29.20
29.45
29.85
29.87
29.23
27.98
26.38
24.76
23.30
21.86
20.07
17.43
13.56
8.45
2.41
-3.96
-10.01
-15.31
-19.83
-23.84
-27.84
-32.34
-37.69
-44.05
-51.26
-58.72
-65.36
-69.79
-70.57
-66.72
-58.22
-46.06
-31.99
-17.96
-5.51
4.58
12.15
17.54
21.05
22.95
23.34
22.36
20.30
17.62
14.89
12.63
11.18
10.53
10.38
10.27
9.73
8.52
6.81
4.87
2.97
1.10
-1.08
-4.05
-8.09
-13.05
-18.34
-23.23
-27.07
-29.70
-31.47
-33.10
-35.48
-39.31
-44.99
-52.43
-61.00
-69.43
-76.05
-79.07
-77.12
-69.63
-57.14
-41.01
-23.17
-5.53
10.39
23.69
33.98
41.27
45.82
48.06
48.49
47.64
46.08
44.28
42.58
41.12
39.89
38.76
37.60
36.42
35.32
34.46
33.82
33.17
32.02
29.83
26.21
21.16
15.10
8.74
2.86
-1.98
-5.65
-8.48
-11.13
-14.41
-19.09
-25.68
-34.21
-44.11
-54.13
-62.50
-67.21
-66.63
-60.01
-47.77
-31.50
-13.45
4.06
19.27
31.28
39.94
45.57
48.62
49.43
48.33
45.70
42.11
38.33
35.09
32.90
31.73
31.10
30.28
28.70
26.29
23.44
20.74
18.63
17.06
15.53
13.34
10.01
5.48
0.20
-5.18
-10.06
-14.20
-17.75
-21.21
-25.27
-30.56
-37.48
-46.00
-55.52
-64.79
-72.18
-75.93
-74.68
-67.89
-56.03
-40.51
-23.29
-6.41
8.54
20.62
29.54
35.48
38.80
39.87
39.10
36.91
33.89
30.72
27.98
26.05
24.91
24.21
23.54
22.65
21.61
20.67
20.06
19.73
19.29
18.11
15.65
11.69
6.44
0.42
-5.70
-11.46
-16.68
-21.62
-26.79
-32.90
-40.50
-49.77
-60.15
-70.28
-78.19
-81.76
-79.44
-70.78
-56.69
-39.10
-20.45
-2.85
12.37
24.68
34.13
40.84
44.87
46.21
45.05
41.91
37.75
33.65
30.52
28.77
28.25
28.41
28.57
28.20
27.12
25.47
23.56
21.59
19.50
16.96
13.50
8.83
3.00
-3.54
-10.14
-16.24
-21.66
-26.64
-31.73
-37.64
-44.94
-53.95
-64.61
-76.23
-87.42
-96.19
-100.35
-98.30
-89.56
-75.02
-56.54
-36.32
-16.22
2.57
19.38
33.73
45.17
53.23
57.79
59.19
58.29
56.20
53.95
52.23
51.31
51.14
51.47
51.96
52.32
52.39
52.26
52.12
52.12
52.17
51.81
50.31
46.93
41.31
33.54
24.27
14.33
4.43
-5.09
-14.34
-23.74
-33.84
-45.14
-57.87
-71.94
-86.67
-100.75
-112.20
-118.82
-118.73
-111.06
-96.37
-76.61
-54.47
-32.65
-13.05
3.52
17.17
28.49
37.97
45.80
51.80
55.78
57.81
58.40
58.46
58.95
60.59
63.52
67.32
71.24
74.55
76.82
77.91
77.88
76.76
74.41
70.60
65.15
58.08
49.68
40.39
30.70
20.96
11.42
2.19
-6.64
-15.06
-23.07
-30.89
-38.90
-47.66
-57.74
-69.39
-82.16
-94.68
-104.77
-109.99
-108.39
-99.24
-83.36
-62.85
-40.50
-18.91
0.04
15.43
27.13
35.38
40.62
43.24
43.73
42.66
40.76
38.87
37.79
38.01
39.66
42.46
45.80
48.98
51.48
53.08
53.79
53.84
53.32
52.19
50.27
47.34
43.32
38.47
33.26
28.21
23.66
19.64
15.80
11.65
6.86
1.43
-4.22
-9.57
-14.29
-18.47
-22.58
-27.13
-32.19
-37.20
-40.96
-42.13
-39.59
-32.84
-21.97
-7.48
9.90
29.40
50.09
70.88
90.51
107.71
121.39
130.88
135.83
136.11
131.55
121.94
107.27
88.14
66.11
43.59
23.23
6.96
-4.75
-12.96
-19.73
-26.93
-35.34
-44.46
-52.99
-59.77
-64.60
-68.32
-72.32
-77.81
-85.19
-93.96
-103.15
-111.92
-120.11
-128.54
-138.67
-152.10
-169.76
-191.47
-215.58
-239.20
-258.64
-270.11
-270.43
-257.71
-232.00
-195.44
-152.05
-106.87
-64.84
-29.49
-2.33
17.19
30.94
41.05
49.11
55.89
61.55
66.06
69.56
72.47
75.36
78.69
82.69
87.26
92.10
96.73
100.58
103.06
103.64
101.91
97.66
90.99
82.20
71.79
60.36
48.49
36.57
24.76
12.97
1.01
-11.27
-23.83
-36.43
-48.73
-60.49
-71.68
-82.69
-94.29
-107.48
-123.13
-141.36
-161.10
-179.79
-193.87
-199.63
-194.49
-177.94
-151.89
-119.98
-86.34
-54.30
-25.71
-1.02
20.05
37.71
51.68
61.42
66.65
67.79
66.20
63.63
61.74
61.55
63.19
66.19
69.89
73.74
77.48
81.04
84.34
87.18
89.24
90.20
89.85
88.22
85.42
81.65
77.08
71.91
66.32
60.52
54.63
48.72
42.67
36.15
28.72
19.89
9.23
-3.41
-17.78
-32.96
-47.29
-58.44
-63.89
-61.64
-50.94
-32.70
-9.26
16.23
40.75
62.16
79.43
92.38
101.25
106.35
107.98
106.60
103.04
98.44
94.06
90.93
89.60
89.94
91.23
92.14
91.03
86.30
76.99
63.32
46.80
29.90
15.06
3.77
-3.94
-9.36
-14.44
-20.86
-29.54
-40.58
-53.47
-67.45
-81.55
-94.62
-105.37
-112.69
-116.09
-116.11
-114.32
-112.89
-113.71
-117.55
-123.69
-129.90
-133.24
-130.96
-121.55
-105.21
-83.79
-60.11
-37.09
-16.90
-0.52
12.12
21.81
29.47
35.87
41.57
46.93
52.21
57.44
62.32
66.23
68.51
68.90
67.86
66.51
66.15
67.62
70.87
75.10
79.29
82.73
85.45
87.83
90.24
92.50
94.01
94.02
92.16
88.66
84.22
79.59
75.05
70.36
64.79
57.59
48.23
36.73
23.69
10.32
-1.76
-10.81
-15.29
-14.30
-7.92
2.79
16.05
29.79
42.28
52.38
59.66
64.18
66.26
66.20
64.26
60.71
55.83
50.02
43.65
37.09
30.63
24.47
18.78
13.69
9.35
5.76
2.82
0.23
-2.43
-5.67
-9.93
-15.56
-22.65
-31.07
-40.46
-50.28
-59.93
-68.86
-76.75
-83.57
-89.56
-95.12
-100.65
-106.33
-112.15
-117.88
-123.16
-127.50
-130.24
-130.55
-127.44
-120.03
-107.83
-91.06
-70.78
-48.84
-27.39
-8.51
6.36
16.64
22.56
24.91
24.71
22.87
20.09
16.88
13.65
10.77
8.54
6.97
5.80
4.64
3.28
2.02
1.71
3.49
8.18
15.85
25.60
35.92
45.28
52.72
58.05
61.74
64.42
66.35
67.23
66.22
62.35
54.89
43.78
29.66
13.76
-2.46
-17.72
-31.03
-41.63
-48.65
-51.04
-47.64
-37.65
-21.16
0.55
25.15
49.89
72.31
90.91
105.18
115.49
122.65
127.58
131.11
134.00
136.75
139.49
141.91
143.28
142.82
140.04
135.08
128.71
122.08
116.25
111.80
108.57
105.76
102.24
96.81
88.55
77.03
62.43
45.55
27.75
10.62
-4.41
-16.39
-25.07
-30.93
-34.92
-38.16
-41.71
-46.23
-51.77
-57.75
-62.95
-65.77
-64.75
-59.03
-48.70
-34.87
-19.26
-3.71
10.33
22.02
31.05
37.45
41.31
42.70
41.75
38.78
34.38
29.34
24.45
20.30
17.07
14.63
12.61
10.61
8.40
6.00
3.55
1.20
-1.10
-3.62
-6.75
-10.78
-15.76
-21.38
-27.12
-32.41
-36.82
-40.23
-42.82
-45.04
-47.40
-50.41
-54.35
-59.21
-64.63
-69.83
-73.76
-75.35
-73.76
-68.69
-60.45
-49.95
-38.41
-27.01
-16.68
-7.94
-1.02
3.94
6.82
7.55
6.23
3.31
-0.46
-4.12
-6.87
-8.34
-8.66
-8.40
-8.20
-8.51
-9.47
-10.94
-12.73
-14.74
-17.09
-19.98
-23.55
-27.71
-32.27
-36.92
-41.50
-45.99
-50.51
-55.24
-60.34
-65.93
-72.08
-78.62
-85.05
-90.41
-93.49
-93.16
-88.79
-80.59
-69.49
-56.81
-43.79
-31.22
-19.46
-8.65
1.02
9.21
15.46
19.47
21.29
21.36
20.40
19.17
18.24
17.79
17.70
17.62
17.25
16.49
15.44
14.32
13.29
12.29
11.04
9.12
6.18
2.13
-2.86
-8.39
-13.95
-19.21
-24.04
-28.56
-33.05
-37.80
-43.09
-49.03
-55.53
-62.18
-68.17
-72.36
-73.52
-70.70
-63.68
-53.07
-40.18
-26.58
-13.62
-2.08
7.75
15.94
22.49
27.30
30.15
31.03
30.27
28.64
27.05
26.30
26.69
28.00
29.62
30.88
31.34
30.93
29.82
28.29
26.48
24.40
21.93
18.90
15.21
10.84
5.78
0.11
-5.92
-12.04
-17.84
-23.07
-27.65
-31.75
-35.79
-40.22
-45.36
-51.23
-57.39
-62.98
-66.91
-68.02
-65.49
-59.03
-49.04
-36.49
-22.73
-9.08
3.34
13.88
22.25
28.44
32.60
34.90
35.57
34.86
33.17
31.01
28.90
27.31
26.46
26.25
26.38
26.51
26.34
25.77
24.92
23.89
22.77
21.46
19.79
17.55
14.70
11.34
7.66
3.90
0.20
-3.38
-6.90
-10.48
-14.27
-18.40
-22.97
-28.05
-33.62
-39.54
-45.41
-50.53
-53.93
-54.58
-51.69
-45.01
-35.01
-22.80
-9.83
2.55
13.34
21.98
28.34
32.47
34.49
34.60
33.11
30.47
27.29
24.16
21.50
19.49
18.11
17.29
16.95
17.13
17.90
19.30
21.24
23.44
25.31
26.16
25.21
21.98
16.49
9.34
1.71
-5.04
-9.75
-11.81
-11.37
-9.19
-6.36
-3.95
-2.79
-3.29
-5.44
-8.72
-12.25
-14.86
-15.39
-12.97
-7.32
1.11
11.22
21.52
30.52
37.13
40.86
41.91
40.91
38.70
35.97
33.15
30.38
27.64
24.93
22.32
20.03
18.26
17.14
16.61
16.54
16.68
16.72
16.39
15.39
13.48
10.58
6.84
2.64
-1.54
-5.35
-8.80
-12.41
-17.06
-23.57
-32.26
-42.61
-53.29
-62.56
-68.77
-70.99
-69.17
-64.11
-57.08
-49.46
-42.34
-36.32
-31.53
-27.57
-23.74
-19.24
-13.47
-6.16
2.44
11.67
20.61
28.35
34.19
37.84
39.42
39.36
38.26
36.64
34.84
32.97
31.01
28.93
26.89
25.14
23.97
23.53
23.70
24.08
24.20
23.64
22.22
19.97
17.05
13.64
9.86
5.76
1.42
-3.03
-7.45
-11.65
-15.59
-19.26
-22.68
-25.81
-28.53
-30.65
-32.10
-33.10
-34.12
-35.93
-39.22
-44.32
-50.94
-58.07
-64.18
-67.58
-66.99
-61.92
-52.83
-41.06
-28.41
-16.73
-7.53
-1.66
0.80
0.42
-1.67
-4.20
-5.95
-6.11
-4.33
-0.70
4.35
10.27
16.47
22.45
27.81
32.31
35.86
38.55
40.62
42.38
44.14
46.07
48.15
50.14
51.63
52.08
50.97
48.06
43.41
37.42
30.69
23.79
17.11
10.79
4.77
-1.16
-7.25
-13.86
-21.29
-29.64
-38.62
-47.35
-54.52
-58.64
-58.63
-54.23
-46.15
-35.80
-24.81
-14.50
-5.67
1.47
6.98
11.00
13.62
14.82
14.72
13.59
11.87
10.09
8.70
7.99
8.00
8.60
9.56
10.63
11.64
12.44
12.93
13.02
12.65
11.70
10.18
8.06
5.39
2.25
-1.23
-4.88
-8.49
-11.82
-14.78
-17.33
-19.60
-21.78
-24.08
-26.65
-29.67
-33.28
-37.56
-42.37
-47.19
-51.07
-52.79
-51.21
-45.76
-36.69
-25.08
-12.50
-0.48
9.95
18.35
24.83
29.71
33.22
35.41
36.22
35.66
34.00
31.70
29.37
27.50
26.35
25.88
25.79
25.72
25.37
24.68
23.73
22.71
21.75
20.89
20.00
18.88
17.31
15.13
12.29
8.84
4.89
0.65
-3.67
-7.86
-11.81
-15.52
-19.15
-23.01
-27.39
-32.49
-38.29
-44.34
-49.76
-53.37
-53.96
-50.72
-43.56
-33.19
-20.94
-8.40
3.05
12.51
19.61
24.37
27.04
27.94
27.46
26.03
24.12
22.19
20.61
19.59
19.19
19.22
19.45
19.58
19.40
18.85
18.01
17.09
16.27
15.62
15.00
14.10
12.58
10.21
6.99
3.13
-1.00
-5.02
-8.60
-11.60
-14.08
-16.30
-18.69
-21.80
-26.06
-31.58
-37.92
-44.08
-48.61
-50.09
-47.56
-40.91
-30.95
-19.10
-6.96
4.16
13.46
20.64
25.69
28.69
29.71
28.88
26.45
22.90
18.95
15.36
12.79
11.56
11.60
12.44
13.51
14.28
14.50
14.25
13.73
13.13
12.38
11.18
9.12
5.94
1.67
-3.35
-8.53
-13.35
-17.50
-20.98
-23.99
-26.89
-30.06
-33.83
-38.40
-43.72
-49.32
-54.29
-57.37
-57.30
-53.29
-45.32
-34.27
-21.65
-9.12
1.99
10.95
17.60
22.17
24.99
26.33
26.39
25.32
23.40
21.01
18.61
16.67
15.48
15.09
15.33
15.86
16.34
16.58
16.57
16.43
16.25
15.95
15.29
13.92
11.57
8.17
3.96
-0.66
-5.21
-9.35
-12.93
-16.05
-18.98
-22.09
-25.74
-30.22
-35.57
-41.52
-47.38
-52.07
-54.33
-53.07
-47.77
-38.63
-26.67
-13.34
-0.18
11.60
21.29
28.67
33.87
37.12
38.67
38.73
37.51
35.32
32.62
29.95
27.83
26.58
26.20
26.44
26.87
27.11
26.99
26.53
25.91
25.23
24.46
23.38
21.74
19.40
16.42
13.01
9.48
6.08
2.92
0.00
-2.78
-5.53
-8.38
-11.46
-14.96
-19.11
-24.02
-29.56
-35.24
-40.19
-43.41
-44.01
-41.57
-36.22
-28.66
-19.88
-10.95
-2.83
3.84
8.66
11.47
12.28
11.22
8.62
4.89
0.57
-3.73
-7.39
-9.90
-10.93
-10.37
-8.44
-5.54
-2.15
1.24
4.31
6.89
8.90
10.30
11.04
11.11
10.48
9.25
7.60
5.72
3.83
2.04
0.42
-1.05
-2.44
-3.89
-5.55
-7.58
-10.09
-13.08
-16.35
-19.48
-21.83
-22.68
-21.45
-17.90
-12.31
-5.36
1.98
8.69
13.92
17.12
17.96
16.41
12.72
7.44
1.44
-4.27
-8.73
-11.25
-11.56
-9.76
-6.24
-1.55
3.76
9.14
14.14
18.51
22.21
25.35
28.12
30.55
32.44
33.34
32.74
30.36
26.18
20.61
14.22
7.59
1.07
-5.31
-11.76
-18.59
-26.12
-34.53
-43.79
-53.62
-63.29
-71.71
-77.49
-79.35
-76.47
-68.92
-57.65
-44.31
-30.65
-18.06
-7.30
1.51
8.60
14.19
18.38
21.14
22.48
22.57
21.91
21.08
20.58
20.73
21.51
22.67
23.87
24.82
25.37
25.57
25.53
25.32
24.92
24.13
22.60
20.00
16.06
10.77
4.47
-2.33
-9.06
-15.26
-20.84
-25.95
-30.95
-36.23
-42.11
-48.72
-55.92
-63.18
-69.59
-73.96
-75.06
-72.02
-64.66
-53.65
-40.30
-26.15
-12.50
-0.14
10.58
19.57
26.80
32.15
35.51
36.99
36.93
35.88
34.52
33.38
32.79
32.82
33.33
34.04
34.63
34.77
34.25
32.99
31.09
28.74
26.12
23.36
20.43
17.29
13.89
10.25
6.53
2.91
-0.42
-3.42
-6.23
-9.18
-12.72
-17.33
-23.30
-30.64
-38.92
-47.17
-54.06
-58.17
-58.33
-53.99
-45.38
-33.48
-19.73
-5.66
7.46
18.80
27.94
34.76
39.27
41.52
41.63
39.87
36.68
32.72
28.64
25.01
22.09
19.86
18.07
16.44
14.79
13.22
11.99
11.38
11.50
12.21
13.06
13.51
13.12
11.69
9.36
6.52
3.58
0.90
-1.45
-3.60
-5.83
-8.37
-11.36
-14.81
-18.69
-22.92
-27.23
-31.09
-33.66
-33.97
-31.23
-25.26
-16.60
-6.40
3.92
13.23
20.89
26.76
31.00
33.77
35.12
35.06
33.75
31.55
28.97
26.47
24.26
22.28
20.32
18.19
15.93
13.80
12.12
11.10
10.70
10.74
11.02
11.43
11.92
12.44
12.86
12.98
12.68
12.01
11.22
10.65
10.51
10.71
10.86
10.34
8.62
5.32
0.32
-6.20
-13.76
-21.51
-28.25
-32.59
-33.34
-29.85
-22.42
-12.23
-1.07
9.32
17.77
23.89
27.96
30.52
31.94
32.30
31.50
29.49
26.58
23.35
20.47
18.49
17.65
17.79
18.57
19.58
20.52
21.18
21.43
21.20
20.38
18.93
16.78
13.93
10.40
6.32
1.88
-2.64
-6.98
-10.89
-14.22
-17.02
-19.43
-21.69
-24.09
-26.92
-30.47
-34.93
-40.29
-46.19
-51.84
-56.03
-57.44
-55.09
-48.65
-38.64
-26.32
-13.32
-1.17
9.08
16.95
22.49
25.95
27.63
27.74
26.47
24.12
21.15
18.15
15.71
14.23
13.81
14.24
15.10
15.96
16.55
16.76
16.64
16.25
15.63
14.70
13.31
11.27
8.41
4.72
0.32
-4.48
-9.28
-13.69
-17.49
-20.69
-23.47
-26.17
-29.05
-32.36
-36.27
-40.92
-46.34
-52.31
-58.21
-62.91
-65.18
-64.00
-59.09
-51.08
-41.25
-31.15
-21.98
-14.39
-8.45
-3.99
-0.88
0.88
1.31
0.81
0.17
0.54
2.98
8.04
15.54
24.69
34.31
43.28
50.72
56.15
59.38
60.43
59.48
56.85
52.98
48.37
43.42
38.37
33.33
28.22
23.05
17.83
12.71
7.90
3.63
-0.01
-3.13
-5.99
-9.07
-12.86
-17.76
-23.87
-30.85
-37.82
-43.52
-46.65
-46.15
-41.66
-33.65
-23.26
-12.10
-1.71
6.75
12.76
16.36
17.91
17.93
16.81
14.89
12.40
9.69
7.16
5.35
4.65
5.25
6.94
9.26
11.61
13.53
14.79
15.41
15.57
15.39
14.98
14.36
13.59
12.69
11.64
10.28
8.36
5.68
2.21
-1.81
-5.91
-9.65
-12.84
-15.64
-18.52
-22.10
-26.83
-32.69
-39.15
-45.18
-49.49
-50.90
-48.71
-42.94
-34.29
-23.98
-13.35
-3.52
4.75
11.19
15.81
18.78
20.27
20.41
19.38
17.45
15.05
12.62
10.58
9.22
8.61
8.61
9.02
9.62
10.25
10.79
11.18
11.36
11.29
10.91
10.16
8.89
6.94
4.16
0.61
-3.49
-7.70
-11.58
-14.85
-17.50
-19.77
-22.09
-24.91
-28.56
-33.15
-38.54
-44.25
-49.42
-52.94
-53.69
-50.97
-44.74
-35.68
-25.11
-14.41
-4.70
3.46
10.04
15.26
19.31
22.19
23.77
23.91
22.74
20.69
18.39
16.41
15.14
14.59
14.51
14.55
14.41
13.99
13.40
12.77
12.20
11.56
10.66
9.22
7.04
4.11
0.55
-3.34
-7.24
-10.86
-14.04
-16.87
-19.64
-22.85
-27.03
-32.54
-39.28
-46.54
-53.10
-57.46
-58.39
-55.26
-48.31
-38.49
-27.12
-15.46
-4.46
5.37
13.78
20.64
25.75
28.97
30.24
29.68
27.69
24.90
21.98
19.57
18.04
17.42
17.45
17.71
17.81
17.60
17.18
16.75
16.50
16.37
16.03
14.96
12.75
9.24
4.64
-0.54
-5.66
-10.21
-14.00
-17.16
-20.08
-23.26
-27.11
-31.81
-37.28
-43.07
-48.42
-52.30
-53.68
-51.73
-46.13
-37.17
-25.70
-13.01
-0.38
11.12
20.81
28.52
34.38
38.67
41.63
43.44
44.24
44.21
43.64
42.92
42.41
42.31
42.59
43.17
43.88
44.68
45.56
46.51
47.34
47.62
46.75
44.18
39.62
33.16
25.30
16.78
8.28
0.32
-6.84
-13.20
-18.84
-23.90
-28.41
-32.41
-35.91
-38.95
-41.68
-44.34
-47.13
-50.04
-52.72
-54.45
-54.33
-51.68
-46.37
-38.92
-30.26
-21.35
-12.78
-4.73
2.87
10.01
16.40
21.47
24.72
25.98
25.59
24.27
22.85
21.92
21.68
21.91
22.15
21.96
21.04
19.35
17.03
14.27
11.20
7.85
4.14
-0.01
-4.59
-9.48
-14.43
-19.13
-23.22
-26.49
-28.87
-30.58
-32.09
-33.97
-36.80
-40.91
-46.30
-52.52
-58.73
-63.83
-66.57
-65.96
-61.49
-53.34
-42.33
-29.66
-16.53
-3.86
7.84
18.35
27.52
35.15
40.90
44.51
45.99
45.68
44.15
42.09
40.01
38.12
36.40
34.74
33.06
31.49
30.21
29.35
28.87
28.49
27.82
26.53
24.47
21.75
18.62
15.34
12.05
8.71
5.15
1.26
-2.92
-7.21
-11.35
-15.14
-18.62
-22.03
-25.86
-30.65
-36.86
-44.61
-53.57
-62.79
-70.80
-75.91
-76.63
-72.12
-62.55
-49.04
-33.30
-17.16
-2.11
10.95
21.66
30.05
36.29
40.65
43.36
44.74
45.09
44.80
44.23
43.68
43.40
43.48
43.91
44.57
45.33
46.11
46.96
47.91
48.89
49.61
49.55
48.17
45.19
40.75
35.45
30.07
25.31
21.41
18.19
15.12
11.76
7.85
3.48
-1.07
-5.57
-9.90
-14.13
-18.34
-22.63
-27.07
-31.66
-36.50
-41.69
-47.18
-52.59
-57.04
-59.34
-58.31
-53.25
-44.29
-32.41
-19.15
-6.06
5.70
15.58
23.57
29.86
34.58
37.70
39.15
38.98
37.45
35.06
32.31
29.60
27.05
24.62
22.23
19.82
17.53
15.53
13.94
12.73
11.66
10.40
8.60
6.07
2.76
-1.22
-5.69
-10.35
-14.89
-18.95
-22.22
-24.62
-26.34
-27.87
-29.89
-33.02
-37.55
-43.30
-49.49
-54.90
-58.08
-57.75
-53.16
-44.42
-32.45
-18.80
-5.17
7.04
17.03
24.58
29.83
33.02
34.41
34.22
32.74
30.43
27.81
25.22
22.65
19.78
16.19
11.67
6.49
1.25
-3.34
-6.80
-9.16
-10.78
-12.15
-13.57
-15.00
-16.21
-16.99
-17.42
-17.86
-18.78
-20.58
-23.28
-26.55
-29.82
-32.42
-33.77
-33.53
-31.64
-28.31
-23.91
-19.03
-14.34
-10.59
-8.41
-8.03
-9.15
-10.77
-11.53
-10.03
-5.46
2.11
11.68
21.77
31.02
38.62
44.43
48.73
51.82
53.76
54.42
53.75
51.99
49.72
47.59
46.01
44.95
44.01
42.71
40.79
38.38
35.89
33.78
32.32
31.45
30.77
29.68
27.58
24.06
18.99
12.59
5.28
-2.40
-9.91
-16.86
-22.94
-27.92
-31.61
-33.93
-35.00
-35.18
-35.05
-35.35
-36.70
-39.37
-43.12
-47.10
-50.06
-50.61
-47.77
-41.20
-31.44
-19.71
-7.58
3.53
12.66
19.43
24.01
26.78
28.21
28.62
28.17
26.94
25.03
22.69
20.27
18.16
16.72
16.12
16.30
16.98
17.81
18.45
18.63
18.18
17.03
15.09
12.32
8.70
4.24
-0.94
-6.66
-12.67
-18.67
-24.36
-29.46
-33.79
-37.33
-40.30
-43.07
-46.14
-49.86
-54.28
-58.99
-63.08
-65.38
-64.77
-60.51
-52.54
-41.51
-28.59
-15.20
-2.70
7.97
16.27
22.19
25.98
28.05
28.80
28.60
27.83
27.01
26.64
27.18
28.80
31.27
34.08
36.61
38.35
39.07
38.80
37.66
35.76
33.12
29.71
25.53
20.61
15.03
8.88
2.26
-4.63
-11.51
-18.06
-24.02
-29.32
-34.13
-38.85
-43.95
-49.84
-56.66
-64.16
-71.66
-78.09
-82.19
-82.86
-79.56
-72.48
-62.63
-51.45
-40.43
-30.63
-22.50
-15.96
-10.67
-6.26
-2.49
0.70
3.45
5.91
8.28
10.75
13.38
16.12
18.89
21.58
24.17
26.79
29.61
32.71
35.85
38.41
39.52
38.32
34.36
27.80
19.42
10.26
1.33
-6.73
-13.64
-19.30
-23.64
-26.62
-28.22
-28.67
-28.41
-28.06
-28.18
-29.15
-31.01
-33.45
-35.72
-36.87
-35.89
-32.06
-25.22
-15.87
-5.01
6.24
17.01
26.92
35.95
44.26
51.89
58.60
64.03
67.88
70.09
70.90
70.74
70.05
69.19
68.32
67.33
65.98
63.88
60.63
55.92
49.63
41.85
32.88
23.20
13.28
3.62
-5.34
-13.25
-19.78
-24.70
-27.86
-29.26
-29.11
-27.75
-25.61
-23.19
-20.96
-19.25
-18.34
-18.31
-19.03
-20.09
-20.77
-20.25
-17.76
-13.03
-6.23
1.94
10.57
18.76
25.89
31.57
35.67
38.13
39.01
38.54
37.07
35.08
33.02
31.14
29.47
27.87
26.17
24.31
22.34
20.33
18.33
16.33
14.20
11.80
9.00
5.72
1.91
-2.42
-7.20
-12.33
-17.60
-22.83
-27.84
-32.65
-37.46
-42.66
-48.63
-55.51
-62.86
-69.63
-74.31
-75.35
-71.79
-63.64
-51.90
-38.32
-24.77
-12.70
-2.85
4.75
10.46
14.67
17.61
19.42
20.30
20.64
20.93
21.57
22.50
23.18
22.81
20.81
17.18
12.66
8.41
5.47
4.38
5.04
6.85
9.15
11.32
12.90
13.51
12.81
10.60
6.96
2.37
-2.50
-6.97
-10.72
-13.88
-16.90
-20.42
-24.87
-30.39
-36.68
-42.98
-48.11
-50.72
-49.61
-44.09
-34.37
-21.52
-7.21
6.85
19.37
29.85
38.39
45.43
51.24
55.73
58.61
59.69
59.15
57.58
55.74
54.15
52.84
51.27
48.72
44.63
38.93
32.09
24.88
18.02
11.96
6.75
2.17
-2.16
-6.54
-11.24
-16.26
-21.43
-26.41
-30.87
-34.52
-37.29
-39.31
-40.82
-42.16
-43.68
-45.68
-48.38
-51.76
-55.34
-58.16
-58.96
-56.54
-50.32
-40.60
-28.50
-15.65
-3.59
6.66
14.71
20.74
25.07
27.99
29.54
29.73
28.64
26.67
24.39
22.40
21.09
20.49
20.31
20.18
19.91
19.52
19.24
19.21
19.30
19.16
18.32
16.52
13.79
10.49
7.09
3.94
1.24
-1.03
-2.98
-4.73
-6.39
-8.14
-10.20
-12.87
-16.45
-21.06
-26.55
-32.40
-37.74
-41.46
-42.49
-40.08
-34.11
-25.16
-14.38
-3.15
7.25
16.00
22.82
27.92
31.69
34.49
36.44
37.53
37.66
36.92
35.60
34.19
33.04
32.27
31.59
30.42
28.18
24.54
19.63
13.97
8.27
3.14
-1.09
-4.44
-7.16
-9.57
-11.85
-14.09
-16.18
-18.01
-19.60
-21.03
-22.49
-24.13
-26.05
-28.26
-30.79
-33.78
-37.37
-41.57
-46.00
-49.78
-51.63
-50.21
-44.66
-34.89
-21.74
-6.68
8.57
22.57
34.34
43.37
49.50
52.76
53.40
51.84
48.76
44.94
41.10
37.68
34.77
32.19
29.74
27.35
25.16
23.44
22.41
22.12
22.36
22.77
23.00
22.79
22.11
21.06
19.87
18.70
17.63
16.52
15.12
13.10
10.26
6.64
2.56
-1.45
-4.94
-7.67
-9.80
-11.81
-14.38
-18.21
-23.74
-30.96
-39.27
-47.46
-53.88
-56.75
-54.68
-47.11
-34.54
-18.45
-0.87
16.17
31.00
42.68
50.74
55.12
55.94
53.43
48.01
40.34
31.46
22.62
15.14
10.03
7.81
8.37
11.05
14.88
18.86
22.32
24.91
26.62
27.51
27.50
26.31
23.57
18.99
12.68
5.20
-2.50
-9.35
-14.45
-17.37
-18.24
-17.70
-16.66
-16.06
-16.63
-18.93
-23.24
-29.64
-37.86
-47.25
-56.56
-64.12
-68.07
-66.88
-59.97
-47.93
-32.53
-16.25
-1.49
10.08
17.84
22.08
23.52
22.75
19.97
15.10
8.22
-0.06
-8.46
-15.38
-19.52
-20.30
-18.13
-14.15
-9.71
-5.96
-3.52
-2.58
-3.00
-4.53
-6.77
-9.25
-11.35
-12.47
-12.22
-10.58
-8.04
-5.36
-3.40
-2.73
-3.48
-5.29
-7.46
-9.28
-10.26
-10.37
-10.02
-9.91
-10.75
-13.06
-16.86
-21.71
-26.89
-31.68
-35.65
-38.73
-41.21
-43.54
-46.23
-49.58
-53.74
-58.55
-63.49
-67.66
-69.82
-68.63
-63.01
-52.59
-37.92
-20.49
-2.44
13.95
26.75
34.78
37.76
36.17
31.11
23.89
15.85
8.16
1.70
-3.01
-5.86
-7.11
-7.31
-7.07
-6.91
-7.04
-7.42
-7.80
-7.90
-7.59
-7.05
-6.69
-7.03
-8.51
-11.24
-14.93
-19.00
-22.76
-25.65
-27.34
-27.88
-27.57
-26.91
-26.55
-27.17
-29.37
-33.36
-38.79
-44.62
-49.29
-51.13
-48.87
-42.12
-31.49
-18.42
-4.66
8.22
19.15
27.73
33.97
38.10
40.32
40.76
39.48
36.69
32.80
28.39
24.18
20.73
18.31
16.85
16.04
15.55
15.21
15.00
15.01
15.25
15.52
15.43
14.60
12.81
10.12
6.82
3.34
-0.00
-3.11
-6.11
-9.34
-13.08
-17.59
-22.96
-29.18
-36.05
-43.19
-49.92
-55.30
-58.19
-57.48
-52.56
-43.54
-31.37
-17.59
-3.91
8.32
18.37
26.10
31.77
35.67
38.00
38.87
38.42
37.02
35.22
33.72
33.02
33.31
34.33
35.52
36.28
36.22
35.25
33.61
31.67
29.65
27.56
25.12
22.00
17.99
13.14
7.76
2.29
-2.91
-7.59
-11.69
-15.35
-18.81
-22.39
-26.54
-31.70
-38.13
-45.73
-53.77
-60.89
-65.33
-65.52
-60.55
-50.59
-36.86
-21.20
-5.53
8.68
20.63
30.14
37.28
42.15
44.78
45.22
43.72
40.91
37.63
34.82
33.13
32.83
33.77
35.48
37.46
39.31
40.80
41.91
42.72
43.32
43.69
43.68
42.93
41.08
37.82
33.13
27.39
21.23
15.44
10.59
6.91
4.09
1.37
-2.28
-7.92
-16.26
-27.42
-40.60
-54.20
-65.98
-73.67
-75.62
-71.33
-61.52
-47.97
-32.86
-18.18
-5.28
5.26
13.37
19.26
23.16
25.18
25.49
24.35
22.28
19.99
18.21
17.48
18.09
19.94
22.63
25.59
28.23
30.05
30.84
30.65
29.84
28.86
28.10
27.65
27.22
26.29
24.28
20.89
16.19
10.67
4.91
-0.55
-5.57
-10.30
-15.19
-20.76
-27.36
-35.10
-43.62
-52.09
-59.20
-63.47
-63.54
-58.60
-48.68
-34.68
-18.14
-0.83
15.67
30.18
42.10
51.19
57.49
61.24
62.83
62.81
61.83
60.40
58.81
57.06
54.89
51.97
48.11
43.38
38.11
32.74
27.67
23.14
19.22
15.82
12.74
9.73
6.56
3.09
-0.67
-4.47
-7.89
-10.45
-11.84
-12.10
-11.61
-10.99
-10.94
-12.05
-14.73
-19.11
-25.00
-31.74
-38.18
-42.80
-44.11
-41.15
-33.94
-23.51
-11.61
-0.08
9.72
17.21
22.44
25.64
27.01
26.56
24.22
20.21
15.08
9.71
5.04
1.86
0.50
0.79
2.23
4.12
5.84
7.03
7.55
7.43
6.70
5.38
3.32
0.31
-3.75
-8.82
-14.63
-20.74
-26.68
-32.01
-36.45
-39.93
-42.60
-44.80
-46.96
-49.54
-52.93
-57.27
-62.31
-67.29
-71.01
-72.06
-69.25
-62.01
-50.66
-36.37
-20.79
-5.53
8.21
19.92
29.62
37.56
43.95
48.85
52.21
54.06
54.61
54.27
53.50
52.69
52.01
51.46
51.01
50.65
50.51
50.76
51.45
52.44
53.34
53.71
53.19
51.66
49.24
46.11
42.36
37.85
32.40
25.85
18.37
10.41
2.58
-4.59
-10.93
-16.50
-21.63
-26.66
-31.80
-37.07
-42.36
-47.39
-51.64
-54.39
-54.74
-51.84
-45.16
