1650258717.00
64.000000
-0.00
-0.00
-0.00
-0.00
-0.00
-0.00
-0.00
-0.00
-0.00
-0.00
0.00
0.01
0.01
-0.00
-0.03
-0.05
-0.05
0.00
0.13
0.36
0.66
1.01
1.37
1.72
2.06
2.40
2.79
3.24
3.80
4.42
5.06
5.66
6.20
6.68
7.15
7.68
8.31
9.14
10.09
11.04
11.88
12.56
13.14
13.76
14.65
15.96
17.91
20.32
22.90
25.38
27.58
29.57
31.68
34.32
37.81
42.54
48.15
54.10
59.83
64.97
69.58
74.14
79.34
85.71
93.76
103.00
112.62
121.73
129.77
136.75
143.30
150.75
157.77
166.64
177.95
191.79
206.97
220.57
228.25
225.36
208.53
176.86
132.77
80.07
23.11
-34.90
-92.42
-149.20
-205.38
-260.64
-314.12
-364.33
-410.32
-451.39
-486.96
-516.20
-537.72
-549.80
-550.64
-539.14
-515.03
-479.49
-434.65
-383.18
-327.77
-270.71
-213.73
-158.04
-104.58
-54.14
-7.66
33.93
69.87
99.71
123.51
141.77
155.33
165.09
171.88
176.19
178.21
177.90
175.21
170.28
163.48
155.47
147.02
138.77
131.03
123.73
116.46
108.72
100.17
90.84
81.17
71.83
63.43
56.26
50.22
44.87
39.62
33.92
27.34
19.58
10.79
1.81
-5.66
-9.33
-7.18
1.53
15.59
32.00
47.03
57.70
62.71
62.64
59.21
54.21
48.80
43.34
37.78
32.11
26.61
21.72
17.81
14.97
13.05
11.62
10.32
8.83
7.08
5.26
3.71
2.63
1.89
1.05
-0.35
-2.41
-4.72
-6.57
-7.34
-6.89
-5.65
-4.23
-3.06
-2.16
-1.26
-0.10
1.32
2.70
3.69
4.14
4.15
4.02
3.93
3.91
3.81
3.49
2.95
2.19
1.33
0.38
-0.70
-1.86
-2.97
-3.87
-4.37
-4.41
-4.03
-3.31
-2.37
-1.30
-0.20
0.74
1.29
1.26
0.73
0.06
-0.18
0.51
2.31
4.94
7.80
10.23
11.81
12.50
12.58
12.44
12.42
12.74
13.58
15.08
17.21
19.70
21.99
23.29
22.89
20.59
16.50
11.36
6.09
1.47
-2.15
-4.88
-7.09
-9.18
-11.35
-13.60
-15.73
-17.57
-19.08
-20.32
-21.40
-22.36
-23.15
-23.69
-23.95
-23.99
-23.86
-23.59
-23.05
-22.07
-20.59
-18.74
-16.87
-15.46
-14.74
-14.61
-14.66
-14.34
-13.25
-11.28
-8.70
-5.97
-3.57
-1.74
-0.51
0.29
0.98
1.83
2.95
4.23
5.33
5.78
5.30
3.88
1.85
-0.17
-1.59
-2.05
-1.64
-0.82
-0.18
-0.10
-0.69
-1.76
-2.98
-4.03
-4.69
-4.81
-4.13
-2.92
-1.14
1.14
3.70
6.16
8.09
9.22
9.47
9.00
8.07
7.06
6.25
5.79
5.79
6.27
7.17
8.38
9.61
10.43
10.38
9.09
6.44
2.71
-1.50
-5.48
-8.70
-10.95
-12.31
-13.02
-13.27
-13.15
-12.71
-11.96
-10.93
-9.62
-7.93
-5.58
-2.26
2.24
7.89
14.37
21.12
27.52
32.99
37.11
39.81
41.39
42.47
43.84
46.15
49.60
53.88
58.24
61.79
63.81
63.95
62.23
58.91
54.41
49.13
43.49
37.83
32.41
27.34
22.52
17.74
12.76
7.48
1.99
-3.42
-8.33
-12.34
-15.15
-16.68
-17.02
-16.50
-15.52
-14.55
-13.96
-13.98
-14.67
-15.93
-17.59
-19.46
-21.40
-23.31
-25.13
-26.85
-28.43
-29.81
-30.89
-31.48
-31.34
-30.23
-27.98
-24.61
-20.26
-15.23
-9.85
-4.44
0.72
5.35
9.26
12.28
14.43
15.85
16.79
17.51
18.09
18.41
18.26
17.40
15.78
13.53
10.88
8.00
4.89
1.43
-2.55
-7.03
-11.77
-16.31
-20.17
-23.02
-24.84
-25.84
-26.36
-26.70
-26.99
-27.20
-27.23
-26.95
-26.32
-25.39
-24.24
-22.98
-21.65
-20.26
-18.79
-17.30
-15.98
-15.12
-15.08
-16.06
-18.02
-20.63
-23.27
-25.23
-25.98
-25.26
-23.22
-20.30
-17.14
-14.26
-12.02
-10.47
-9.47
-8.79
-8.26
-7.92
-7.89
-8.31
-9.20
-10.37
-11.53
-12.42
-12.90
-13.02
-12.96
-12.90
-12.90
-12.91
-12.79
-12.36
-11.47
-10.06
-8.12
-5.80
-3.28
-0.81
1.36
3.09
4.37
5.26
5.84
6.08
5.86
5.04
3.62
1.77
-0.16
-1.82
-3.02
-3.77
-4.31
-4.91
-5.77
-6.99
-8.59
-10.54
-12.78
-15.14
-17.33
-18.87
-19.31
-18.35
-15.95
-12.39
-8.15
-3.73
0.46
4.17
7.33
9.88
11.81
13.04
13.54
13.33
12.58
11.52
10.47
9.67
9.25
9.23
9.53
10.08
10.80
11.67
12.65
13.64
14.53
15.19
15.58
15.75
15.80
15.87
16.03
16.26
16.51
16.72
16.83
16.83
16.68
16.35
15.77
14.90
13.76
12.43
11.00
9.55
8.11
6.66
5.22
3.80
2.39
0.96
-0.53
-2.12
-3.76
-5.29
-6.47
-7.05
-6.86
-5.88
-4.26
-2.34
-0.52
0.86
1.56
1.57
1.05
0.25
-0.58
-1.29
-1.83
-2.23
-2.47
-2.54
-2.36
-1.97
-1.52
-1.26
-1.42
-1.96
-2.58
-2.78
-2.10
-0.37
2.13
4.78
6.92
8.12
8.33
7.82
6.95
5.93
4.81
3.51
2.01
0.39
-1.10
-2.30
-3.15
-3.79
-4.47
-5.43
-6.77
-8.47
-10.42
-12.55
-14.79
-17.12
-19.48
-21.73
-23.59
-24.76
-24.89
-23.74
-21.27
-17.58
-13.02
-8.02
-3.02
1.60
5.58
8.82
11.27
12.96
13.97
14.44
14.52
14.41
14.26
14.19
14.22
14.36
14.55
14.72
14.80
14.74
14.51
14.15
13.74
13.42
13.23
13.13
12.95
12.52
11.72
10.55
9.15
7.72
6.39
5.23
4.21
3.22
2.18
1.08
-0.08
-1.28
-2.54
-3.91
-5.48
-7.25
-9.18
-11.18
-13.12
-14.92
-16.62
-18.28
-19.96
-21.65
-23.18
-24.29
-24.70
-24.15
-22.50
-19.76
-16.12
-11.95
-7.76
-4.13
-1.49
-0.01
0.52
0.54
0.63
1.21
2.42
4.16
6.10
7.91
9.29
10.16
10.61
10.98
11.73
13.33
16.03
19.81
24.26
28.79
32.83
36.05
38.40
40.12
41.44
42.53
43.34
43.68
43.37
42.38
40.89
39.16
37.43
35.76
34.02
31.93
29.21
25.67
21.26
16.01
10.09
3.87
-2.05
-6.86
-9.76
-10.33
-8.73
-5.79
-2.72
-0.61
0.00
-0.70
-1.98
-2.95
-3.03
-2.13
-0.57
1.12
2.52
3.42
3.81
3.80
3.45
2.80
1.91
0.90
-0.03
-0.70
-1.07
-1.28
-1.71
-2.84
-5.04
-8.36
-12.35
-16.15
-18.77
-19.60
-18.77
-17.23
-16.36
-17.32
-20.49
-25.19
-30.16
-34.21
-36.94
-38.92
-41.29
-45.11
-50.64
-57.17
-63.17
-66.92
-67.05
-62.94
-54.75
-43.32
-29.93
-16.10
-3.38
6.83
13.47
16.02
14.58
9.85
2.97
-4.73
-12.08
-18.19
-22.68
-25.54
-27.08
-27.66
-27.61
-27.08
-26.11
-24.63
-22.56
-19.86
-16.61
-13.01
-9.35
-6.02
-3.34
-1.55
-0.69
-0.61
-1.01
-1.57
-1.98
-2.07
-1.78
-1.09
-0.04
1.28
2.78
4.29
5.62
6.59
7.01
6.77
5.82
4.22
2.12
-0.24
-2.57
-4.64
-6.34
-7.77
-9.26
-11.17
-13.75
-17.01
-20.60
-24.06
-26.96
-29.12
-30.64
-31.78
-32.79
-33.69
-34.34
-34.38
-33.35
-30.71
-25.88
-18.46
-8.50
3.22
15.24
25.78
33.45
37.78
39.42
39.81
40.52
42.66
46.60
52.12
58.74
65.97
73.49
81.00
88.14
94.53
99.83
103.91
106.85
108.93
110.43
111.47
111.99
111.70
110.28
107.53
103.58
98.87
93.99
89.48
85.51
81.90
78.23
74.13
69.48
64.48
59.49
54.86
50.79
47.40
44.82
43.36
43.48
45.59
49.83
55.94
63.34
71.30
79.07
85.94
91.05
93.13
90.48
81.23
64.02
38.77
7.14
-27.52
-60.96
-89.17
-109.42
-120.81
-124.14
-121.25
-114.18
-104.65
-93.94
-83.04
-72.83
-63.97
-56.67
-50.37
-43.82
-35.50
-24.31
-10.12
5.97
21.92
35.34
44.12
46.82
42.84
32.35
16.19
-4.27
-27.22
-50.49
-71.91
-89.67
-102.73
-111.12
-115.98
-119.13
-122.48
-127.29
-133.65
-140.45
-145.89
-148.31
-146.98
-142.39
-135.89
-128.93
-122.15
-114.87
-105.02
-89.67
-65.99
-32.41
10.23
57.95
103.74
138.94
155.54
148.96
120.02
75.29
25.25
-18.86
-48.43
-59.70
-54.03
-36.48
-13.69
8.21
24.73
33.38
33.47
25.76
12.11
-4.87
-22.31
-37.65
-49.40
-57.39
-62.77
-67.36
-72.84
-79.98
-88.31
-96.29
-101.99
-103.91
-101.63
-95.94
-88.55
-81.42
-76.07
-73.08
-72.03
-71.79
-70.89
-68.06
-62.48
-53.95
-42.84
-29.93
-16.17
-2.49
10.46
22.33
33.10
42.92
51.96
60.25
67.69
74.15
79.60
84.21
88.23
91.83
94.91
97.05
97.65
96.31
92.93
87.87
81.72
75.06
68.30
61.63
55.13
48.87
42.89
37.14
31.38
25.22
18.34
10.61
2.25
-6.30
-14.60
-22.41
-29.77
-36.79
-43.51
-49.69
-54.91
-58.72
-60.80
-61.07
-59.51
-56.14
-50.97
-44.27
-36.68
-29.33
-23.49
-20.07
-19.13
-19.72
-20.22
-18.96
-14.83
-7.58
2.34
14.16
27.08
40.29
52.88
63.60
70.98
73.60
70.57
61.90
48.58
32.41
15.64
0.56
-10.94
-17.53
-18.65
-14.51
-5.94
5.75
18.98
32.01
43.03
50.33
52.55
49.15
40.62
28.51
14.85
1.46
-10.78
-22.06
-33.18
-44.70
-56.21
-66.29
-73.10
-75.46
-73.64
-69.24
-64.72
-62.25
-62.86
-66.15
-70.85
-75.75
-80.53
-85.86
-92.68
-101.56
-112.29
-123.85
-134.93
-144.57
-152.58
-159.46
-165.92
-171.88
-176.84
-180.21
-181.82
-182.08
-181.71
-181.45
-181.50
-181.31
-178.55
-171.07
-158.00
-140.06
-118.83
-95.96
-72.66
-49.63
-27.11
-2.57
25.98
58.86
94.69
131.82
169.44
207.47
245.97
284.50
325.69
370.42
416.45
459.16
494.30
520.07
536.99
546.74
550.97
555.51
563.98
575.59
585.65
588.83
581.90
564.05
536.18
470.26
355.73
204.82
47.34
-89.42
-193.90
-268.04
-319.23
-354.24
-377.02
-385.84
-378.32
-355.40
-322.41
-286.15
-251.88
-222.49
-199.17
-182.17
-167.48
-152.80
-138.46
-126.80
-119.77
-117.28
-117.58
-118.65
-119.23
-116.86
-110.65
-101.99
-93.81
-88.71
-87.56
-89.59
-93.24
-97.01
-98.77
-97.24
-92.47
-85.66
-78.36
-71.69
-66.25
-62.27
-59.83
-58.53
-58.08
-58.37
-59.39
-60.94
-62.53
-63.73
-64.46
-65.16
-66.43
-68.68
-71.77
-75.20
-78.44
-81.19
-83.47
-85.38
-86.78
-87.15
-85.80
-82.11
-75.79
-66.86
-55.52
-41.92
-26.21
-8.70
10.07
29.37
48.54
67.16
85.07
102.02
117.44
130.39
139.85
145.17
146.38
144.24
139.89
134.38
128.37
122.07
115.50
108.77
102.27
96.54
92.08
89.00
86.91
85.14
83.05
80.32
77.12
73.90
71.15
68.97
67.05
64.78
61.63
57.40
52.38
47.15
42.37
38.46
35.54
33.49
32.11
31.24
30.88
31.18
32.32
34.43
37.52
41.41
45.66
49.64
52.61
53.90
53.03
49.92
44.87
38.50
31.52
24.55
17.97
11.88
6.23
0.99
-3.71
-7.63
-10.57
-12.58
-14.08
-15.72
-18.10
-21.38
-25.21
-28.75
-31.06
-31.55
-30.22
-27.71
-25.06
-23.31
-23.16
-24.70
-27.45
-30.46
-32.69
-33.43
-32.61
-30.91
-29.50
-29.54
-31.64
-35.54
-40.06
-43.55
-44.36
-41.40
-34.48
-24.40
-12.79
-1.69
7.08
12.82
16.66
21.56
31.45
49.50
76.34
109.16
142.27
168.93
183.80
184.70
173.03
152.79
128.73
104.65
82.57
62.76
44.57
27.32
10.92
-4.07
-16.70
-26.19
-32.37
-35.88
-37.95
-39.83
-42.16
-44.71
-46.42
-45.93
-42.13
-34.80
-24.81
-14.04
-5.13
-0.81
-3.29
-13.45
-30.39
-51.36
-72.39
-89.33
-99.19
-101.01
-96.05
-87.22
-78.06
-71.65
-70.06
-74.13
-83.59
-97.25
-113.22
-129.08
-142.20
-150.33
-152.15
-147.70
-138.32
-126.25
-113.80
-102.59
-93.01
-84.17
-74.43
-62.14
-46.50
-27.93
-8.07
10.97
27.34
40.22
49.93
57.60
64.50
71.44
78.57
85.50
91.70
96.87
100.95
104.02
106.03
106.71
105.66
102.55
97.36
90.49
82.58
74.36
66.32
58.60
51.12
43.71
36.48
29.84
24.37
20.41
17.68
15.19
11.47
5.20
-4.30
-16.73
-30.91
-45.16
-57.76
-67.36
-73.12
-74.86
-73.04
-68.73
-63.53
-59.31
-57.78
-60.03
-66.19
-75.27
-85.42
-94.35
-99.96
-100.88
-96.82
-88.46
-77.19
-64.57
-51.98
-40.41
-30.40
-22.21
-15.87
-11.23
-7.97
-5.67
-3.91
-2.47
-1.35
-0.78
-0.95
-1.91
-3.42
-5.07
-6.47
-7.48
-8.24
-9.08
-10.39
-12.40
-15.16
-18.58
-22.39
-26.21
-29.46
-31.42
-31.40
-28.96
-24.16
-17.61
-10.31
-3.36
2.39
6.62
9.44
11.29
12.62
13.75
14.80
15.73
16.47
16.98
17.24
17.22
16.85
16.04
14.76
13.11
11.38
9.95
9.10
8.92
9.22
9.60
9.64
9.11
8.08
6.90
6.03
5.87
6.56
7.92
9.52
10.87
11.58
11.48
10.61
9.17
7.38
5.47
3.68
2.22
1.32
1.21
1.97
3.54
5.70
8.17
10.71
13.18
15.55
17.80
19.90
21.71
23.12
24.07
24.59
24.76
24.63
24.19
23.35
22.08
20.45
18.66
17.04
15.86
15.32
15.44
16.09
17.06
18.16
19.23
20.23
21.30
22.67
24.65
27.57
31.68
37.09
43.57
50.45
56.53
60.36
60.63
56.81
49.41
39.91
30.25
22.05
16.12
12.36
10.06
8.47
7.14
5.91
4.81
3.70
2.31
0.35
-2.29
-5.38
-8.41
-10.82
-12.21
-12.48
-11.84
-10.67
-9.42
-8.52
-8.41
-9.45
-11.88
-15.77
-20.87
-26.68
-32.47
-37.51
-41.27
-43.50
-44.25
-43.75
-42.26
-39.97
-37.05
-33.66
-29.97
-26.17
-22.39
-18.71
-15.14
-11.70
-8.51
-5.83
-3.95
-3.06
-3.11
-3.79
-4.61
-5.07
-4.87
-3.99
-2.66
-1.25
-0.11
0.56
0.73
0.58
0.36
0.31
0.56
1.13
1.92
2.77
3.51
4.02
4.17
3.88
3.11
1.89
0.34
-1.38
-3.06
-4.53
-5.68
-6.47
-6.92
-7.07
-6.96
-6.62
-6.11
-5.52
-4.98
-4.59
-4.41
-4.43
-4.56
-4.71
-4.77
-4.66
-4.35
-3.76
-2.82
-1.50
0.15
1.94
3.61
4.90
5.67
6.01
6.16
6.42
6.92
7.55
8.01
7.95
7.22
5.97
4.67
3.90
4.19
5.78
8.52
11.93
15.35
18.20
20.09
20.96
21.01
20.52
19.77
18.88
17.87
16.72
15.44
14.12
12.89
11.83
11.01
10.47
10.28
10.50
11.14
12.06
12.94
13.33
12.72
10.73
7.21
2.30
-3.58
-9.82
-15.79
-21.00
-25.17
-28.27
-30.35
-31.46
-31.50
-30.36
-27.97
-24.51
-20.38
-16.11
-12.17
-8.82
-6.07
-3.76
-1.79
-0.23
0.67
0.57
-0.78
-3.29
-6.57
-10.00
-12.99
-15.16
-16.45
-17.01
-17.07
-16.76
-16.13
-15.16
-13.91
-12.48
-11.01
-9.65
-8.40
-7.22
-6.04
-4.76
-3.28
-1.58
0.31
2.24
3.91
4.97
5.09
4.16
2.29
-0.22
-2.93
-5.35
-6.94
-7.17
-5.71
-2.63
1.46
5.42
7.99
8.34
6.47
3.25
0.06
-1.91
-2.12
-0.89
0.89
2.29
2.80
2.45
1.63
0.79
0.19
-0.17
-0.35
-0.36
-0.04
0.79
2.25
4.27
6.57
8.80
10.68
12.11
13.20
14.15
15.20
16.56
18.32
20.47
22.88
25.29
27.34
28.76
29.43
29.48
29.25
29.14
29.39
29.99
30.70
31.16
31.11
30.49
29.44
28.26
27.21
26.45
25.99
25.73
25.57
25.46
25.43
25.58
26.07
27.11
28.87
31.42
34.61
38.02
40.98
42.66
42.33
39.57
34.40
27.33
19.26
11.18
3.96
-1.87
-6.19
-9.28
-11.60
-13.67
-15.83
-18.24
-20.86
-23.44
-25.71
-27.38
-28.27
-28.39
-27.87
-26.99
-25.99
-25.10
-24.42
-24.00
-23.86
-24.01
-24.41
-24.93
-25.34
-25.36
-24.78
-23.55
-21.82
-19.91
-18.20
-17.03
-16.62
-17.12
-18.51
-20.63
-23.06
-25.20
-26.29
-25.72
-23.24
-19.16
-14.33
-9.80
-6.46
-4.67
-4.12
-4.04
-3.48
-1.74
1.45
5.88
11.04
16.27
20.89
24.31
26.01
25.69
23.32
19.22
14.02
8.54
3.50
-0.61
-3.73
-6.11
-8.20
-10.43
-13.09
-16.17
-19.45
-22.53
-24.92
-26.21
-26.17
-24.82
-22.46
-19.61
-16.84
-14.65
-13.31
-12.85
-13.13
-13.91
-14.98
-16.18
-17.46
-18.80
-20.20
-21.60
-22.88
-23.81
-24.20
-23.87
-22.78
-21.05
-18.90
-16.62
-14.44
-12.55
-10.97
-9.63
-8.37
-7.00
-5.36
-3.47
-1.51
0.17
1.16
1.18
0.30
-1.10
-2.38
-2.87
-2.14
-0.18
2.57
5.38
7.43
8.02
6.81
3.95
0.14
-3.48
-5.67
-5.44
-2.46
2.78
9.12
15.20
20.00
23.20
25.23
26.89
28.95
31.73
35.07
38.45
41.28
43.13
43.76
43.04
40.89
37.24
32.14
25.88
19.06
12.48
6.92
2.87
0.39
-0.91
-1.63
-2.31
-3.20
-4.15
-4.75
-4.52
-3.15
-0.61
2.93
7.19
11.98
17.20
22.79
28.64
34.51
40.11
45.29
50.13
54.90
59.94
65.39
71.04
76.40
80.91
84.00
85.20
83.97
79.84
72.58
62.60
51.18
40.26
31.93
27.60
27.54
30.84
35.85
40.88
44.78
47.09
47.90
47.46
45.94
43.30
39.37
34.06
27.50
20.08
12.46
5.38
-0.49
-4.69
-7.04
-7.65
-6.95
-5.62
-4.58
-4.82
-7.13
-11.89
-18.95
-27.69
-37.28
-46.84
-55.57
-62.67
-67.40
-69.23
-68.11
-64.61
-59.82
-54.94
-50.77
-47.54
-45.15
-43.54
-43.06
-44.29
-47.57
-52.46
-57.72
-61.76
-63.45
-62.64
-60.11
-56.95
-53.91
-50.97
-47.64
-43.47
-38.58
-33.64
-29.57
-26.97
-25.75
-25.28
-24.72
-23.53
-21.61
-19.30
-17.05
-15.12
-13.51
-12.08
-10.64
-9.15
-7.70
-6.42
-5.37
-4.47
-3.56
-2.47
-1.14
0.33
1.76
2.96
3.83
4.43
4.92
5.50
6.30
7.30
8.36
9.24
9.75
9.74
9.17
8.00
6.25
4.00
1.38
-1.28
-3.59
-5.21
-6.03
-6.24
-6.30
-6.70
-7.71
-9.34
-11.27
-13.09
-14.46
-15.25
-15.53
-15.54
-15.53
-15.68
-16.03
-16.49
-16.86
-17.00
-16.85
-16.54
-16.30
-16.28
-16.46
-16.56
-16.14
-14.81
-12.45
-9.21
-5.47
-1.60
2.16
5.68
8.87
11.52
13.36
14.15
13.91
12.92
11.66
10.54
9.72
9.01
8.09
6.68
4.78
2.64
0.67
-0.80
-1.64
-1.85
-1.56
-0.85
0.31
2.06
4.52
7.72
11.58
15.85
20.21
24.38
28.17
31.57
34.62
37.38
39.71
41.32
41.75
40.59
37.68
33.19
27.61
21.64
15.96
11.05
7.03
3.70
0.58
-2.83
-6.93
-11.81
-17.35
-23.23
-29.16
-35.02
-40.81
-46.60
-52.33
-57.75
-62.42
-65.88
-67.88
-68.48
-68.04
-67.10
-66.17
-65.57
-65.34
-65.23
-64.82
-63.63
-61.28
-57.63
-52.83
-47.28
-41.56
-36.17
-31.32
-26.77
-21.85
-15.65
-7.39
3.30
16.09
30.03
43.74
55.83
65.29
71.79
75.62
77.58
78.58
79.35
80.20
81.05
81.48
80.94
78.95
75.31
70.17
64.02
57.52
51.22
45.32
39.55
33.38
26.25
17.92
8.61
-1.12
-10.58
-19.22
-26.77
-33.20
-38.65
-43.24
-47.08
-50.28
-53.00
-55.40
-57.71
-60.09
-62.63
-65.40
-68.37
-71.56
-74.97
-78.59
-82.33
-85.92
-88.90
-90.70
-90.77
-88.83
-84.96
-79.63
-73.49
-67.20
-61.15
-55.44
-49.92
-44.34
-38.51
-32.41
-26.11
-19.78
-13.57
-7.58
-1.91
3.39
8.27
12.70
16.68
20.29
23.56
26.56
29.30
31.73
33.76
35.29
36.27
36.69
36.67
36.34
35.88
35.36
34.77
33.97
32.80
31.11
28.90
26.28
23.48
20.74
18.19
15.82
13.51
11.08
8.42
5.55
2.58
-0.28
-2.84
-4.98
-6.57
-7.50
-7.67
-6.96
-5.35
-2.91
0.13
3.45
6.68
9.54
11.87
13.67
15.07
16.21
17.17
17.97
18.58
18.98
19.26
19.58
20.08
20.81
21.66
22.44
23.00
23.30
23.41
23.47
23.57
23.68
23.71
23.53
23.07
22.31
21.25
19.90
18.26
16.35
14.25
12.09
9.96
7.88
5.80
3.58
1.11
-1.62
-4.57
-7.61
-10.61
-13.46
-16.09
-18.46
-20.57
-22.47
-24.19
-25.75
-27.04
-27.84
-27.88
-26.91
-24.86
-21.85
-18.13
-13.96
-9.56
-5.11
-0.78
3.21
6.62
9.25
11.07
12.24
13.06
13.86
14.84
16.05
17.39
18.71
19.91
20.97
21.93
22.87
23.79
24.65
25.37
25.84
25.97
25.73
25.11
24.21
23.15
22.08
21.08
20.15
19.16
17.99
16.53
14.82
12.98
11.19
9.56
8.12
6.79
5.43
3.94
2.26
0.34
-1.80
-4.16
-6.73
-9.38
-11.91
-14.02
-15.34
-15.61
-14.70
-12.68
-9.80
-6.38
-2.77
0.80
4.12
7.09
9.65
11.76
13.40
14.63
15.53
16.18
16.64
16.95
17.14
17.23
17.28
17.33
17.41
17.52
17.63
17.68
17.64
17.50
17.26
16.91
16.40
15.70
14.76
13.60
12.31
10.97
9.67
8.42
7.18
5.90
4.53
3.08
1.63
0.28
-0.90
-1.92
-2.85
-3.83
-4.98
-6.41
-8.14
-10.12
-12.18
-14.08
-15.50
-16.16
-15.82
-14.42
-12.07
-9.07
-5.77
-2.55
0.38
2.95
5.21
7.24
9.11
10.74
12.03
12.85
13.18
13.14
12.90
12.67
12.59
12.69
12.95
13.26
13.58
13.83
13.99
14.03
13.90
13.58
13.04
12.32
11.44
10.49
9.53
8.62
7.76
6.92
6.04
5.03
3.87
2.54
1.10
-0.36
-1.75
-2.99
-4.06
-5.00
-5.93
-7.01
-8.36
-10.10
-12.16
-14.39
-16.55
-18.33
-19.48
-19.81
-19.26
-17.86
-15.72
-13.01
-9.93
-6.73
-3.64
-0.87
1.41
3.10
4.22
4.85
5.11
5.17
5.13
5.11
5.17
5.35
5.69
6.20
6.80
7.36
7.70
7.67
7.20
6.38
5.39
4.41
3.58
2.89
2.22
1.43
0.42
-0.79
-2.07
-3.29
-4.39
-5.40
-6.47
-7.77
-9.35
-11.18
-13.11
-14.91
-16.39
-17.38
-17.78
-17.49
-16.43
-14.54
-11.83
-8.47
-4.75
-1.04
2.29
4.99
6.98
8.35
9.29
9.99
10.56
10.96
11.14
11.03
10.71
10.36
10.25
10.56
11.30
12.34
13.36
14.08
14.28
13.90
13.02
11.80
10.44
9.04
7.63
6.14
4.43
2.38
0.01
-2.55
-5.04
-7.18
-8.76
-9.71
-10.06
-9.93
-9.39
-8.51
-7.37
-6.08
-4.78
-3.55
-2.41
-1.34
-0.38
0.28
0.30
-0.64
-2.65
-5.37
-7.92
-9.14
-7.99
-3.95
2.71
10.99
19.50
26.90
32.31
35.44
36.53
36.00
34.30
31.65
28.16
23.91
19.17
14.32
9.81
5.98
2.93
0.53
-1.45
-3.21
-4.79
-6.07
-6.84
-6.94
-6.28
-4.94
-3.08
-0.89
1.47
3.87
6.14
8.08
9.37
9.69
8.78
6.62
3.52
0.07
-3.01
-5.17
-6.18
-6.21
-5.69
-5.05
-4.51
-4.06
-3.55
-2.88
-2.07
-1.31
-0.77
-0.56
-0.59
-0.66
-0.58
-0.30
0.09
0.39
0.46
0.27
-0.04
-0.28
-0.31
-0.11
0.17
0.31
0.12
-0.51
-1.57
-2.90
-4.34
-5.68
-6.76
-7.54
-8.11
-8.68
-9.48
-10.62
-12.05
-13.50
-14.64
-15.23
-15.22
-14.74
-14.04
-13.43
-13.17
-13.48
-14.42
-15.77
-16.90
-16.85
-14.55
-9.24
-0.86
9.84
21.56
32.84
42.57
50.11
55.18
57.63
57.22
53.72
47.22
38.45
28.79
20.00
13.62
10.38
10.07
11.66
13.87
15.72
16.83
17.38
17.79
18.35
19.02
19.51
19.49
18.80
17.53
15.93
14.19
12.27
9.91
6.78
2.72
-2.18
-7.51
-12.75
-17.44
-21.35
-24.43
-26.81
-28.63
-30.02
-31.11
-32.05
-33.00
-34.16
-35.61
-37.38
-39.38
-41.43
-43.28
-44.61
-45.14
-44.70
-43.37
-41.50
-39.68
-38.48
-38.26
-38.99
-40.24
-41.38
-41.85
-41.36
-39.89
-37.66
-34.93
-31.87
-28.60
-25.16
-21.62
-18.08
-14.67
-11.50
-8.65
-6.16
-4.01
-2.12
-0.39
1.35
3.17
5.12
7.15
9.13
10.97
12.63
14.14
15.52
16.82
18.02
19.09
20.05
20.90
21.66
22.34
22.93
23.38
23.64
23.68
23.48
23.12
22.70
22.37
22.27
22.36
22.45
22.21
21.29
19.50
16.95
14.07
11.44
9.64
9.04
9.72
11.46
13.87
16.47
18.79
20.40
20.95
20.24
18.25
15.24
11.73
8.40
5.87
4.45
4.06
4.24
4.35
3.84
2.51
0.46
-1.94
-4.30
-6.32
-7.88
-8.99
-9.72
-10.13
-10.29
-10.21
-9.93
-9.47
-8.87
-8.14
-7.32
-6.42
-5.49
-4.60
-3.88
-3.44
-3.45
-4.01
-5.21
-7.15
-9.90
-13.51
-17.84
-22.52
-26.97
-30.53
-32.70
-33.29
-32.49
-30.68
-28.27
-25.49
-22.37
-18.91
-15.18
-11.44
-8.07
-5.45
-3.73
-2.84
-2.43
-2.10
-1.49
-0.45
0.97
2.55
4.05
5.32
6.37
7.35
8.42
9.58
10.67
11.38
11.45
10.84
9.72
8.43
7.25
6.31
5.52
4.75
3.92
3.08
2.38
1.94
1.78
1.82
1.97
2.18
2.47
2.79
3.05
2.99
2.35
0.98
-1.06
-3.48
-5.93
-8.06
-9.73
-10.91
-11.68
-12.07
-12.07
-11.61
-10.64
-9.20
-7.42
-5.49
-3.60
-1.92
-0.52
0.60
1.48
2.14
2.58
2.81
2.82
2.67
2.44
2.22
2.06
1.96
1.92
1.88
1.84
1.79
1.75
1.66
1.46
1.07
0.45
-0.37
-1.31
-2.28
-3.22
-4.11
-4.96
-5.80
-6.68
-7.62
-8.64
-9.71
-10.78
-11.79
-12.67
-13.38
-13.90
-14.26
-14.56
-14.94
-15.57
-16.65
-18.27
-20.43
-22.95
-25.50
-27.68
-29.15
-29.65
-29.11
-27.62
-25.32
-22.44
-19.16
-15.69
-12.22
-8.94
-6.03
-3.60
-1.69
-0.27
0.81
1.69
2.52
3.38
4.25
5.11
5.93
6.71
7.49
8.29
9.11
9.90
10.55
10.99
11.12
10.89
10.30
9.43
8.46
7.61
7.07
6.87
6.87
6.78
6.30
5.27
3.78
2.06
0.40
-1.01
-2.17
-3.20
-4.29
-5.57
-7.12
-8.91
-10.87
-12.88
-14.73
-16.18
-16.93
-16.79
-15.68
-13.70
-11.07
-8.12
-5.11
-2.28
0.25
2.42
4.29
5.91
7.35
8.67
9.84
10.81
11.55
12.09
12.51
12.95
13.52
14.26
15.10
15.94
16.68
17.28
17.74
18.05
18.20
18.13
17.82
17.29
16.60
15.82
14.98
14.05
13.02
11.88
10.67
9.44
8.22
6.94
5.52
3.93
2.20
0.49
-1.04
-2.31
-3.35
-4.27
-5.25
-6.39
-7.78
-9.46
-11.43
-13.62
-15.84
-17.76
-19.00
-19.25
-18.38
-16.47
-13.78
-10.60
-7.17
-3.68
-0.28
2.85
5.52
7.62
9.13
10.15
10.89
11.52
12.16
12.80
13.38
13.82
14.08
14.15
14.11
14.07
14.13
14.36
14.73
15.14
15.46
15.58
15.45
15.10
14.63
14.09
13.50
12.84
12.07
11.14
10.03
8.73
7.26
5.65
3.95
2.26
0.67
-0.74
-1.96
-3.00
-3.97
-5.05
-6.41
-8.17
-10.35
-12.76
-15.07
-16.91
-17.95
-18.01
-17.11
-15.40
-13.12
-10.46
-7.59
-4.63
-1.68
1.09
3.49
5.33
6.50
7.04
7.10
6.98
6.97
7.24
7.82
8.61
9.42
10.10
10.60
10.94
11.18
11.34
11.38
11.25
10.92
10.40
9.78
9.16
8.59
8.09
7.61
7.05
6.33
5.38
4.21
2.85
1.39
-0.07
-1.49
-2.81
-4.01
-5.07
-5.98
-6.77
-7.54
-8.41
-9.55
-11.03
-12.80
-14.68
-16.36
-17.57
-18.09
-17.81
-16.73
-14.93
-12.58
-9.87
-7.03
-4.27
-1.76
0.42
2.23
3.66
4.76
5.56
6.12
6.52
6.85
7.21
7.64
8.15
8.71
9.24
9.70
10.03
10.18
10.16
9.97
9.67
9.37
9.14
9.03
8.99
8.90
8.61
8.05
7.23
6.28
5.34
4.53
3.82
3.14
2.35
1.38
0.26
-0.94
-2.13
-3.30
-4.45
-5.66
-6.94
-8.30
-9.68
-11.04
-12.41
-13.82
-15.28
-16.70
-17.90
-18.64
-18.70
-17.98
-16.50
-14.43
-11.96
-9.30
-6.61
-4.04
-1.75
0.16
1.59
2.54
3.08
3.32
3.42
3.51
3.70
4.08
4.66
5.39
6.18
6.91
7.50
7.90
8.14
8.29
8.39
8.43
8.36
8.11
7.70
7.18
6.66
6.24
5.93
5.64
5.21
4.53
3.56
2.39
1.19
0.09
-0.83
-1.63
-2.39
-3.24
-4.21
-5.28
-6.39
-7.50
-8.63
-9.84
-11.22
-12.85
-14.69
-16.60
-18.36
-19.67
-20.25
-19.92
-18.64
-16.54
-13.88
-10.99
-8.12
-5.42
-2.96
-0.75
1.18
2.83
4.17
5.22
6.03
6.70
7.29
7.81
8.26
8.65
9.00
9.34
9.71
10.10
10.46
10.73
10.86
10.88
10.82
10.69
10.51
10.22
9.81
9.29
8.71
8.14
7.61
7.08
6.49
5.74
4.78
3.63
2.36
1.07
-0.14
-1.23
-2.18
-3.03
-3.85
-4.71
-5.70
-6.87
-8.27
-9.87
-11.54
-13.06
-14.09
-14.30
-13.51
-11.71
-9.16
-6.24
-3.27
-0.47
2.17
4.70
7.14
9.37
11.17
12.33
12.77
12.63
12.18
11.73
11.48
11.46
11.61
11.85
12.11
12.42
12.77
13.16
13.51
13.77
13.88
13.84
13.71
13.49
13.20
12.79
12.24
11.56
10.73
9.78
8.72
7.57
6.35
5.12
3.92
2.77
1.66
0.55
-0.58
-1.75
-2.92
-4.06
-5.17
-6.30
-7.51
-8.92
-10.62
-12.63
-14.88
-17.22
-19.39
-21.14
-22.26
-22.66
-22.35
-21.44
-20.11
-18.53
-16.82
-15.08
-13.39
-11.77
-10.26
-8.87
-7.60
-6.41
-5.26
-4.14
-3.04
-2.01
-1.08
-0.29
0.38
1.00
1.67
2.48
3.46
4.56
5.66
6.63
7.36
7.77
7.87
7.68
7.25
6.63
5.86
5.01
4.16
3.40
2.74
2.13
1.46
0.59
-0.52
-1.81
-3.15
-4.41
-5.49
-6.37
-7.10
-7.74
-8.36
-9.07
-9.98
-11.19
-12.74
-14.50
-16.23
-17.62
-18.44
-18.59
-18.10
-17.06
-15.57
-13.64
-11.27
-8.53
-5.59
-2.67
-0.06
2.07
3.63
4.67
5.32
5.73
6.03
6.31
6.62
6.96
7.32
7.63
7.86
8.01
8.14
8.34
8.69
9.22
9.81
10.26
10.32
9.85
8.87
7.58
6.33
5.43
5.06
5.17
5.54
5.88
5.98
5.74
5.17
4.37
3.43
2.37
1.21
-0.06
-1.42
-2.78
-4.01
-5.01
-5.78
-6.44
-7.23
-8.31
-9.78
-11.56
-13.44
-15.20
-16.66
-17.74
-18.35
-18.39
-17.77
-16.40
-14.35
-11.82
-9.08
-6.42
-4.03
-1.96
-0.18
1.32
2.51
3.34
3.76
3.80
3.56
3.24
3.03
3.12
3.56
4.34
5.34
6.37
7.30
8.03
8.53
8.84
9.01
9.10
9.11
9.03
8.83
8.53
8.15
7.75
7.37
7.03
6.69
6.23
5.52
4.45
3.01
1.30
-0.48
-2.08
-3.34
-4.24
-4.88
-5.52
-6.38
-7.61
-9.22
-11.07
-12.96
-14.67
-16.01
-16.81
-16.97
-16.39
-15.05
-13.02
-10.42
-7.49
-4.46
-1.60
0.93
3.01
4.62
5.81
6.65
7.23
7.65
8.00
8.36
8.77
9.27
9.87
10.51
11.11
11.55
11.74
11.65
11.36
10.98
10.63
10.35
10.11
9.79
9.33
8.69
7.92
7.10
6.26
5.43
4.56
3.65
2.72
1.79
0.88
-0.01
-0.90
-1.80
-2.70
-3.58
-4.46
-5.39
-6.46
-7.80
-9.44
-11.33
-13.31
-15.15
-16.62
-17.54
-17.78
-17.27
-16.02
-14.11
-11.71
-9.04
-6.34
-3.84
-1.68
0.06
1.39
2.35
3.06
3.60
4.05
4.43
4.72
4.87
4.83
4.62
4.31
4.02
3.86
3.92
4.18
4.56
4.95
5.25
5.41
5.46
5.49
5.62
5.91
6.35
6.83
7.25
7.47
7.43
7.15
6.71
6.17
5.58
4.96
4.33
3.73
3.17
2.66
2.17
1.61
0.93
0.11
-0.79
-1.66
-2.45
-3.15
-3.84
-4.63
-5.60
-6.77
-8.11
-9.63
-11.33
-13.21
-15.18
-17.02
-18.41
-19.02
-18.63
-17.24
-15.06
-12.41
-9.62
-6.94
-4.43
-2.09
0.07
1.99
3.57
4.68
5.31
5.54
5.58
5.64
5.88
6.36
7.01
7.74
8.39
8.92
9.28
9.52
9.68
9.77
9.79
9.69
9.43
9.03
8.53
8.01
7.53
7.07
6.59
6.02
5.33
4.54
3.71
2.86
2.01
1.14
0.23
-0.70
-1.62
-2.50
-3.32
-4.11
-4.92
-5.85
-6.96
-8.36
-10.08
-12.09
-14.23
-16.26
-17.87
-18.80
-18.88
-18.08
-16.49
-14.27
-11.59
-8.66
-5.72
-3.02
-0.79
0.88
2.02
2.77
3.37
3.95
4.59
5.25
5.87
6.44
7.00
7.61
8.26
8.86
9.27
9.39
9.18
8.75
8.20
7.66
7.13
6.55
5.89
5.16
4.43
3.84
3.43
3.16
2.85
2.29
1.32
-0.08
-1.74
-3.43
-4.96
-6.26
-7.45
-8.70
-10.19
-11.95
-13.81
-15.48
-16.60
-16.93
-16.37
-15.05
-13.16
-10.95
-8.58
-6.10
-3.55
-0.97
1.48
3.58
5.12
6.02
6.36
6.36
6.31
6.40
6.69
7.10
7.51
7.87
8.20
8.59
9.12
9.79
10.51
11.09
11.36
11.21
10.67
9.84
8.87
7.89
7.02
6.27
5.62
5.00
4.32
3.52
2.54
1.41
0.16
-1.12
-2.34
-3.46
-4.50
-5.53
-6.66
-8.00
-9.67
-11.68
-13.96
-16.29
-18.34
-19.77
-20.31
-19.83
-18.42
-16.31
-13.78
-11.08
-8.36
-5.71
-3.18
-0.86
1.16
2.80
4.03
4.92
5.58
6.08
6.48
6.79
7.04
7.29
7.67
8.30
9.20
10.29
11.34
12.11
12.42
12.23
11.64
10.82
9.97
9.24
8.69
8.32
8.06
7.81
7.41
6.71
5.60
4.06
2.22
0.30
-1.44
-2.83
-3.80
-4.49
-5.19
-6.24
-7.88
-10.17
-12.85
-15.51
-17.62
-18.75
-18.67
-17.36
-15.03
-11.98
-8.55
-5.07
-1.81
1.01
3.29
5.02
6.31
7.33
8.27
9.23
10.25
11.28
12.22
12.96
13.45
13.69
13.80
13.91
14.13
14.51
14.96
15.32
15.49
15.44
15.27
15.09
14.99
14.96
14.90
14.71
14.36
13.89
13.42
13.02
12.70
12.34
11.83
11.03
9.96
8.70
7.36
6.05
4.81
3.64
2.55
1.52
0.57
-0.32
-1.23
-2.26
-3.45
-4.75
-5.95
-6.76
-6.91
-6.34
-5.16
-3.63
-2.03
-0.54
0.75
1.84
2.70
3.24
3.30
2.77
1.67
0.14
-1.58
-3.30
-4.91
-6.47
-8.04
-9.66
-11.25
-12.66
-13.71
-14.30
-14.49
-14.42
-14.30
-14.26
-14.29
-14.25
-13.93
-13.18
-11.97
-10.43
-8.79
-7.30
-6.15
-5.41
-5.08
-5.09
-5.37
-5.87
-6.56
-7.46
-8.55
-9.86
-11.39
-13.16
-15.14
-17.20
-19.09
-20.37
-20.58
-19.36
-16.62
-12.57
-7.72
-2.65
2.22
6.59
10.35
13.43
15.76
17.25
17.91
17.91
17.53
17.08
16.75
16.57
16.46
16.26
15.89
15.36
14.76
14.17
13.68
13.31
13.00
12.69
12.31
11.88
11.46
11.17
11.07
11.11
11.12
10.91
10.33
9.38
8.13
6.73
5.31
3.92
2.61
1.41
0.34
-0.64
-1.60
-2.67
-3.98
-5.55
-7.30
-9.10
-10.86
-12.55
-14.19
-15.77
-17.17
-18.13
-18.37
-17.67
-16.01
-13.58
-10.71
-7.73
-4.89
-2.30
-0.02
1.93
3.50
4.69
5.51
6.08
6.54
7.01
7.56
8.17
8.74
9.14
9.32
9.31
9.17
9.03
8.93
8.91
8.87
8.72
8.35
7.72
6.86
5.85
4.77
3.71
2.69
1.71
0.75
-0.22
-1.21
-2.28
-3.48
-4.82
-6.25
-7.66
-8.92
-9.92
-10.71
-11.40
-12.17
-13.17
-14.42
-15.82
-17.15
-18.16
-18.62
-18.35
-17.27
-15.41
-12.89
-9.91
-6.68
-3.40
-0.25
2.63
5.13
7.17
8.72
9.83
10.60
11.15
11.59
11.98
12.33
12.62
12.85
13.01
13.12
13.19
13.22
13.21
13.16
13.04
12.87
12.64
12.35
11.98
11.50
10.85
9.98
8.84
7.48
5.99
4.54
3.26
2.19
1.25
0.23
-1.04
-2.63
-4.45
-6.30
-8.01
-9.51
-10.89
-12.29
-13.83
-15.49
-17.18
-18.77
-20.16
-21.30
-22.12
-22.52
-22.33
-21.37
-19.56
-16.95
-13.72
-10.15
-6.50
-3.02
0.12
2.82
5.00
6.65
7.79
8.53
9.02
9.42
9.86
10.40
11.00
11.57
11.97
12.11
12.00
11.72
11.45
11.33
11.38
11.52
11.57
11.35
10.74
9.79
8.60
7.32
6.02
4.73
3.41
2.07
0.78
-0.38
-1.31
-2.05
-2.73
-3.52
-4.60
-6.00
-7.59
-9.17
-10.53
-11.62
-12.53
-13.48
-14.68
-16.19
-17.91
-19.61
-21.00
-21.88
-22.10
-21.61
-20.37
-18.38
-15.69
-12.44
-8.89
-5.37
-2.15
0.56
2.73
4.39
5.63
6.50
7.06
7.37
7.48
7.47
7.36
7.16
6.81
6.24
5.44
4.43
3.32
2.22
1.19
0.25
-0.70
-1.76
-3.04
-4.57
-6.26
-7.94
-9.46
-10.74
-11.81
-12.78
-13.77
-14.81
-15.82
-16.66
-17.19
-17.34
-17.13
-16.67
-16.14
-15.77
-15.87
-16.63
-18.16
-20.27
-22.53
-24.35
-25.20
-24.71
-22.88
-19.98
-16.41
-12.60
-8.83
-5.25
-1.87
1.31
4.29
7.01
9.37
11.35
13.04
14.68
16.56
18.88
21.61
24.45
26.89
28.47
29.00
28.67
27.96
27.38
27.25
27.53
27.91
28.01
27.58
26.62
25.31
23.91
22.57
21.31
20.00
18.47
16.62
14.43
11.99
9.44
6.92
4.56
2.37
0.31
-1.71
-3.76
-5.90
-8.11
-10.40
-12.75
-15.18
-17.63
-19.98
-22.00
-23.40
-23.93
-23.42
-21.90
-19.57
-16.75
-13.82
-11.13
-8.93
-7.35
-6.41
-6.05
-6.19
-6.66
-7.26
-7.72
-7.80
-7.33
-6.33
-4.98
-3.53
-2.15
-0.81
0.72
2.68
5.19
8.17
11.34
14.43
17.27
19.86
22.23
24.28
25.74
26.26
25.53
23.49
20.37
16.62
12.71
8.97
5.57
2.54
-0.11
-2.34
-4.11
-5.43
-6.44
-7.41
-8.67
-10.38
-12.48
-14.61
-16.19
-16.68
-15.75
-13.48
-10.32
-6.90
-3.81
-1.38
0.37
1.62
2.61
3.51
4.32
5.01
5.56
6.02
6.48
7.02
7.67
8.33
8.91
9.31
9.47
9.38
9.06
8.53
7.86
7.17
6.57
6.17
6.00
6.02
6.16
6.37
6.71
7.27
8.16
9.41
10.99
12.79
14.75
16.83
19.01
21.19
23.07
24.28
24.39
23.18
20.72
17.36
13.59
9.88
6.54
3.67
1.18
-1.06
-3.17
-5.18
-7.04
-8.64
-9.86
-10.62
-10.93
-10.86
-10.53
-10.05
-9.54
-9.05
-8.65
-8.46
-8.56
-9.04
-9.88
-10.95
-12.01
-12.81
-13.16
-13.00
-12.36
-11.39
-10.21
-8.96
-7.71
-6.54
-5.49
-4.59
-3.86
-3.29
-2.83
-2.43
-1.98
-1.41
-0.66
0.26
1.28
2.26
3.06
3.56
3.72
3.57
3.28
3.03
2.99
3.25
3.73
4.20
4.34
3.83
2.45
0.16
-2.90
-6.44
-10.07
-13.32
-15.70
-16.84
-16.55
-14.98
-12.56
-9.92
-7.65
-6.13
-5.43
-5.31
-5.48
-5.65
-5.76
-5.84
-6.01
-6.31
-6.64
-6.78
-6.42
-5.26
-3.09
0.18
4.44
9.45
14.75
19.84
24.29
27.83
30.44
32.37
34.00
35.68
37.66
39.97
42.48
44.82
46.51
47.00
45.86
42.95
38.53
33.23
27.83
22.96
18.81
15.04
11.04
6.21
0.31
-6.38
-13.26
-19.58
-24.78
-28.61
-31.11
-32.41
-32.68
-31.99
-30.43
-28.14
-25.38
-22.45
-19.67
-17.24
-15.23
-13.54
-12.00
-10.39
-8.61
-6.67
-4.78
-3.23
-2.27
-1.96
-2.13
-2.43
-2.51
-2.22
-1.61
-0.93
-0.42
-0.20
-0.24
-0.40
-0.55
-0.60
-0.57
-0.55
-0.59
-0.71
-0.88
-1.07
-1.20
-1.28
-1.31
-1.39
-1.62
-2.08
-2.77
-3.57
-4.34
-4.92
-5.31
-5.62
-6.03
-6.68
-7.58
-8.58
-9.50
-10.17
-10.58
-10.81
-10.98
-11.20
-11.45
-11.70
-11.93
-12.16
-12.44
-12.81
-13.25
-13.65
-13.93
-13.99
-13.87
-13.70
-13.70
-14.10
-14.94
-15.98
-16.69
-16.37
-14.45
-10.72
-5.52
0.40
6.18
11.12
14.91
17.61
19.44
20.59
21.10
20.93
20.10
18.73
17.12
15.56
14.27
13.28
12.43
11.43
9.98
7.95
5.39
2.52
-0.37
-3.04
-5.44
-7.63
-9.79
-12.00
-14.25
-16.35
-18.10
-19.35
-20.11
-20.53
-20.80
-20.95
-20.78
-19.86
-17.64
-13.67
-7.80
-0.24
8.43
17.42
25.93
33.23
38.84
42.46
44.02
43.62
41.48
37.97
33.46
28.39
23.17
18.20
13.78
10.03
6.90
4.15
1.48
-1.36
-4.37
-7.34
-9.93
-11.88
-13.10
-13.72
-14.03
-14.27
-14.59
-14.99
-15.35
-15.60
-15.65
-15.50
-15.17
-14.74
-14.32
-14.06
-14.08
-14.39
-14.85
-15.19
-15.15
-14.63
-13.71
-12.67
-11.81
-11.26
-10.98
-10.73
-10.30
-9.60
-8.75
-7.99
-7.58
-7.66
-8.17
-8.94
-9.75
-10.47
-11.05
-11.57
-12.11
-12.77
-13.61
-14.63
-15.81
-17.09
-18.36
-19.47
-20.23
-20.52
-20.30
-19.71
-19.08
-18.83
-19.33
-20.68
-22.61
-24.48
-25.44
-24.77
-22.15
-17.82
-12.46
-6.98
-2.12
1.68
4.36
6.09
7.13
7.67
7.79
7.50
6.84
5.88
4.81
3.94
3.63
4.18
5.65
7.79
10.08
11.88
12.71
12.47
11.40
9.99
8.67
7.64
6.91
6.34
5.89
5.64
5.70
6.13
6.80
7.45
7.83
7.81
7.54
7.26
7.27
7.72
8.58
9.72
10.98
12.21
13.27
13.99
14.20
13.86
13.18
12.64
12.86
14.36
17.21
20.91
24.54
27.11
28.02
27.31
25.56
23.58
22.00
21.04
20.50
20.00
19.25
18.16
16.80
15.26
13.55
11.60
9.34
6.84
4.28
1.87
-0.26
-2.14
-3.87
-5.51
-7.05
-8.32
-9.12
-9.34
-8.99
-8.26
-7.40
-6.64
-6.14
-5.98
-6.14
-6.57
-7.17
-7.82
-8.43
-8.90
-9.17
-9.18
-8.88
-8.18
-7.06
-5.58
-3.88
-2.25
-0.96
-0.19
0.04
-0.08
-0.30
-0.39
-0.29
-0.10
0.01
-0.11
-0.53
-1.15
-1.84
-2.42
-2.80
-3.00
-3.09
-3.21
-3.44
-3.83
-4.34
-4.94
-5.57
-6.28
-7.12
-8.11
-9.22
-10.28
-11.07
-11.36
-11.06
-10.23
-9.11
-8.00
-7.15
-6.66
-6.45
-6.33
-6.03
-5.39
-4.44
-3.41
-2.57
-2.15
-2.20
-2.58
-3.03
-3.39
-3.60
-3.76
-3.97
-4.28
-4.66
-4.99
-5.14
-5.01
-4.40
-3.09
-0.88
2.36
6.49
11.09
15.56
19.29
21.82
22.93
22.65
21.18
18.81
15.84
12.60
9.36
6.32
3.59
1.16
-1.01
-2.97
-4.77
-6.43
-7.99
-9.44
-10.79
-11.93
-12.74
-13.07
-12.88
-12.21
-11.25
-10.20
-9.23
-8.37
-7.59
-6.84
-6.09
-5.37
-4.75
-4.29
-3.97
-3.72
-3.43
-3.06
-2.63
-2.21
-1.88
-1.63
-1.41
-1.10
-0.65
-0.06
0.62
1.27
1.84
2.33
2.75
3.13
3.44
3.62
3.61
3.41
3.11
2.82
2.66
2.60
2.56
2.35
1.86
1.07
0.09
-0.93
-1.85
-2.56
-3.08
-3.47
-3.84
-4.34
-5.07
-6.10
-7.38
-8.81
-10.22
-11.44
-12.29
-12.70
-12.62
-12.07
-11.10
-9.82
-8.35
-6.85
-5.39
-3.99
-2.62
-1.24
0.14
1.43
2.55
3.46
4.25
5.04
5.93
6.94
7.93
8.72
9.18
9.25
8.98
8.51
7.94
7.39
6.94
6.65
6.56
6.64
6.80
6.87
6.70
6.22
5.48
4.60
3.74
2.98
2.30
1.63
0.89
0.05
-0.87
-1.81
-2.72
-3.60
-4.44
-5.28
-6.15
-7.07
-8.11
-9.30
-10.57
-11.81
-12.77
-13.25
-13.08
-12.23
-10.76
-8.82
-6.53
-4.05
-1.52
0.91
3.07
4.82
6.06
6.78
7.01
6.89
6.56
6.19
5.98
6.08
6.53
7.30
8.25
9.20
10.02
10.60
10.93
11.04
10.96
10.73
10.35
9.85
9.27
8.70
8.20
7.84
7.63
7.49
7.31
7.01
6.56
5.99
5.42
4.98
4.70
4.58
4.44
4.08
3.32
2.03
0.28
-1.72
-3.68
-5.32
-6.47
-7.07
-7.14
-6.73
-5.87
-4.57
-2.83
-0.74
1.54
3.77
5.71
7.17
8.09
8.46
8.38
7.93
7.22
6.35
5.44
4.66
4.15
4.04
4.32
4.85
5.43
5.83
5.92
5.68
5.24
4.74
4.31
4.05
3.94
3.93
3.92
3.81
3.53
3.05
2.41
1.69
0.96
0.25
-0.50
-1.41
-2.55
-3.95
-5.49
-6.99
-8.30
-9.38
-10.30
-11.23
-12.32
-13.60
-14.98
-16.24
-17.12
-17.37
-16.87
-15.59
-13.61
-11.08
-8.19
-5.12
-2.08
0.69
3.00
4.70
5.76
6.30
6.53
6.67
6.88
7.20
7.57
7.94
8.25
8.54
8.82
9.06
9.20
9.14
8.86
8.44
7.98
7.58
7.24
6.85
6.28
5.44
4.37
3.19
2.05
1.06
0.20
-0.61
-1.48
-2.51
-3.73
-5.16
-6.76
-8.49
-10.24
-11.88
-13.29
-14.47
-15.54
-16.72
-18.31
-20.46
-23.19
-26.26
-29.29
-31.86
-33.57
-34.21
-33.75
-32.36
-30.33
-27.95
-25.40
-22.67
-19.58
-15.91
-11.52
-6.48
-1.09
4.19
8.88
12.62
15.29
16.96
17.86
18.25
18.33
18.21
17.91
17.42
16.77
16.05
15.34
14.72
14.18
13.66
13.10
12.47
11.84
11.27
10.80
10.36
9.82
9.03
7.91
6.42
4.64
2.68
0.71
-1.14
-2.74
-4.05
-5.07
-5.90
-6.65
-7.47
-8.46
-9.75
-11.39
-13.39
-15.60
-17.72
-19.28
-19.86
-19.16
-17.22
-14.33
-10.92
-7.40
-4.05
-1.00
1.68
3.93
5.71
7.01
7.93
8.67
9.41
10.27
11.23
12.12
12.77
13.08
13.08
12.92
12.83
12.93
13.24
13.62
13.83
13.67
13.07
12.10
10.95
9.83
8.86
8.09
7.45
6.86
6.30
5.75
5.16
4.47
3.60
2.47
1.11
-0.37
-1.79
-2.99
-3.89
-4.51
-4.97
-5.43
-6.07
-7.03
-8.38
-10.15
-12.23
-14.36
-16.17
-17.22
-17.17
-15.89
-13.53
-10.44
-7.10
-3.86
-0.93
1.70
4.13
6.40
8.44
10.07
11.15
11.66
11.74
11.63
11.55
11.61
11.78
11.98
12.10
12.09
11.95
11.72
11.44
11.11
10.75
10.34
9.87
9.27
8.51
7.57
6.48
5.35
4.29
3.36
2.55
1.76
0.87
-0.17
-1.33
-2.54
-3.70
-4.79
-5.81
-6.77
-7.65
-8.40
-9.03
-9.63
-10.36
-11.40
-12.78
-14.30
-15.59
-16.22
-15.92
-14.64
-12.57
-9.99
-7.18
-4.37
-1.70
0.72
2.80
4.47
5.73
6.64
7.24
7.57
7.64
7.51
7.30
7.19
7.36
7.88
8.68
9.55
10.32
10.88
11.26
11.54
11.75
11.88
11.82
11.49
10.84
9.95
8.93
7.87
6.82
5.79
4.76
3.76
2.86
2.13
1.60
1.21
0.85
0.39
-0.27
-1.15
-2.17
-3.23
-4.26
-5.23
-6.19
-7.27
-8.61
-10.27
-12.20
-14.12
-15.65
-16.34
-15.95
-14.45
-12.10
-9.31
-6.47
-3.85
-1.49
0.63
2.53
4.17
5.44
6.30
6.77
7.02
7.21
7.47
7.82
8.22
8.64
9.05
9.43
9.78
10.05
10.16
10.09
9.86
9.59
9.40
9.35
9.40
9.41
9.23
8.77
8.05
7.18
6.30
5.49
4.76
4.04
3.24
2.29
1.20
0.05
-1.02
-1.91
-2.58
-3.11
-3.65
-4.37
-5.43
-6.88
-8.67
-10.64
-12.54
-14.08
-14.99
-15.07
-14.22
-12.55
-10.26
-7.64
-4.95
-2.39
-0.11
1.84
3.39
4.51
5.20
5.57
5.75
5.95
6.29
6.80
7.41
7.97
8.34
8.46
8.34
8.07
7.76
7.50
7.36
7.35
7.42
7.48
7.43
7.22
6.84
6.33
5.80
5.28
4.79
4.28
3.69
2.96
2.05
0.96
-0.29
-1.63
-2.98
-4.23
-5.24
-5.96
-6.46
-6.91
-7.58
-8.70
-10.32
-12.28
-14.23
-15.72
-16.41
-16.12
-14.91
-12.97
-10.58
-7.97
-5.37
-2.90
-0.69
1.19
2.74
3.99
4.99
5.76
6.33
6.64
6.71
6.56
6.28
5.98
5.75
5.63
5.65
5.82
6.13
6.50
6.80
6.88
6.60
5.96
5.06
4.15
3.39
2.85
2.47
2.09
1.54
0.82
0.01
-0.76
-1.42
-1.96
-2.49
-3.09
-3.84
-4.78
-5.92
-7.32
-9.01
-10.91
-12.82
-14.40
-15.28
-15.20
-14.14
-12.34
-10.18
-8.02
-6.11
-4.50
-3.15
-1.96
-0.89
0.04
0.78
1.28
1.56
1.67
1.69
1.68
1.65
1.57
1.40
1.10
0.72
0.34
0.06
-0.06
-0.04
0.02
-0.07
-0.43
-1.16
-2.28
-3.72
-5.36
-7.09
-8.79
-10.37
-11.81
-13.18
-14.67
-16.43
-18.62
-21.23
-24.14
-27.16
-30.13
-33.00
-35.82
-38.78
-42.04
-45.72
-49.76
-54.02
-58.25
-62.10
-65.16
-66.93
-66.88
-64.60
-59.89
-52.95
-44.31
-34.77
-25.15
-16.17
-8.27
-1.64
3.72
7.98
11.35
14.12
16.56
18.88
21.14
23.22
24.91
25.91
25.97
24.97
22.92
19.92
16.16
11.77
6.91
1.64
-3.96
-9.75
-15.53
-20.99
-25.78
-29.60
-32.28
-33.87
-34.57
-34.68
-34.46
-34.11
-33.73
-33.46
-33.43
-33.87
-34.95
-36.76
-39.24
-42.19
-45.35
-48.41
-51.03
-52.80
-53.30
-52.15
-49.17
-44.41
-38.19
-31.00
-23.36
-15.72
-8.44
-1.79
4.04
8.91
12.79
15.78
18.13
20.15
22.17
24.41
26.97
29.78
32.71
35.57
38.24
40.67
42.92
45.04
47.00
48.65
49.75
50.08
49.54
48.19
46.23
43.91
41.42
38.86
36.19
33.32
30.12
26.59
22.79
18.89
15.11
11.62
8.46
5.54
2.61
-0.60
-4.32
-8.60
-13.24
-17.80
-21.62
-24.00
-24.32
-22.29
-18.00
-11.94
-4.80
2.70
10.01
16.78
22.84
28.05
32.30
35.50
37.63
38.84
39.41
39.65
39.80
39.99
40.17
40.29
40.27
40.12
39.87
39.58
39.29
38.95
38.45
37.64
36.34
34.46
31.99
29.09
25.99
22.91
20.01
17.33
14.83
12.41
9.99
7.45
4.69
1.66
-1.63
-4.91
-7.73
-9.44
-9.48
-7.53
-3.71
1.50
7.37
13.22
18.57
23.21
27.15
30.46
33.20
35.28
36.59
37.01
36.57
35.51
34.18
32.94
32.03
31.50
31.22
31.00
30.70
30.31
29.92
29.61
29.33
28.93
28.17
26.87
24.99
22.63
20.02
17.40
14.92
12.68
10.66
8.79
6.95
4.98
2.74
0.09
-3.01
-6.50
-10.13
-13.51
-16.15
-17.54
-17.27
-15.22
-11.55
-6.73
-1.38
3.90
8.73
12.91
16.50
19.58
22.18
24.24
25.63
26.23
26.11
25.44
24.50
23.54
22.76
22.22
21.94
21.86
21.89
21.92
21.80
21.37
20.54
19.25
17.59
15.66
13.62
11.61
9.72
8.01
6.48
5.07
3.67
2.14
0.43
-1.44
-3.34
-5.12
-6.79
-8.49
-10.57
-13.35
-16.95
-21.16
-25.40
-28.91
-31.00
-31.25
-29.61
-26.35
-22.00
-17.10
-12.16
-7.56
-3.53
-0.19
2.45
4.45
5.92
6.96
7.70
8.24
8.69
9.14
9.65
10.29
11.04
11.89
12.76
13.56
14.18
14.50
14.45
14.00
13.21
12.14
10.84
9.33
7.57
5.52
3.15
0.52
-2.30
-5.18
-8.00
-10.71
-13.35
-15.95
-18.58
-21.17
-23.57
-25.49
-26.60
-26.64
-25.49
-23.21
-20.04
-16.27
-12.20
-8.05
-4.04
-0.35
2.77
5.12
6.56
7.11
6.93
6.22
5.19
3.98
2.71
1.52
0.55
-0.13
-0.48
-0.61
-0.66
-0.75
-0.94
-1.17
-1.42
-1.68
-2.06
-2.68
-3.66
-5.00
-6.63
-8.48
-10.45
-12.52
-14.64
-16.77
-18.87
-20.90
-22.86
-24.84
-26.92
-29.17
-31.52
-33.75
-35.48
-36.29
-35.83
-33.92
-30.58
-26.06
-20.77
-15.17
-9.69
-4.63
-0.10
3.92
7.50
10.69
13.45
15.66
17.23
18.14
18.50
18.46
18.18
17.79
17.33
16.89
16.57
16.54
16.91
17.71
18.83
20.03
21.01
21.52
21.49
20.99
20.27
19.65
19.36
19.47
19.86
20.28
20.45
20.15
19.35
18.09
16.49
14.66
12.71
10.75
8.95
7.46
6.40
5.79
5.51
5.38
5.23
4.98
4.62
4.18
3.62
2.83
1.71
0.18
-1.75
-3.90
-6.11
-8.19
-10.05
-11.71
-13.18
-14.51
-15.67
-16.59
-17.26
-17.75
-18.21
-18.79
-19.64
-20.74
-21.91
-22.89
-23.39
-23.27
-22.53
-21.41
-20.25
-19.47
-19.45
-20.46
-22.55
-25.48
-28.84
-32.13
-34.92
-37.04
-38.55
-39.69
-40.69
-41.63
-42.38
-42.66
-42.15
-40.64
-38.05
-34.45
-30.03
-24.98
-19.53
-13.90
-8.34
-3.09
1.57
5.44
8.43
10.58
12.03
12.94
13.40
13.45
13.07
12.26
11.15
9.99
9.09
8.68
8.80
9.35
10.10
10.79
11.29
11.55
11.63
11.56
11.33
10.88
10.18
9.25
8.21
7.14
6.11
5.03
3.75
2.17
0.23
-1.96
-4.23
-6.44
-8.50
-10.42
-12.22
-13.85
-15.17
-15.90
-15.73
-14.40
-11.80
-8.01
-3.28
1.99
7.44
12.76
17.80
22.52
26.95
31.14
35.13
38.98
42.78
46.60
50.49
54.36
57.99
61.08
63.28
64.34
64.15
62.72
60.20
56.90
53.22
49.65
46.69
44.71
43.88
44.06
44.83
45.57
45.57
44.26
41.31
36.74
30.90
24.35
17.70
11.41
5.70
0.57
-4.08
-8.38
-12.31
-15.81
-18.78
-21.15
-22.88
-23.87
-23.97
-22.95
-20.70
-17.31
-13.27
-9.33
-6.40
-5.26
-6.36
-9.69
-14.88
-21.33
-28.36
-35.32
-41.62
-46.71
-50.19
-51.87
-51.86
-50.61
-48.87
-47.37
-46.65
-46.83
-47.61
-48.38
-48.52
-47.57
-45.43
-42.29
-38.53
-34.56
-30.66
-26.95
-23.42
-20.06
-16.87
-13.92
-11.28
-9.00
-7.04
-5.37
-3.93
-2.72
-1.75
-1.02
-0.50
-0.18
-0.05
-0.22
-0.81
-1.85
-3.22
-4.61
-5.61
-5.85
-5.17
-3.63
-1.44
1.16
3.97
6.84
9.67
12.40
14.97
17.36
19.60
21.74
23.89
26.10
28.38
30.58
32.35
33.22
32.67
30.35
26.27
20.81
14.68
8.61
3.19
-1.36
-5.09
-8.21
-10.91
-13.27
-15.31
-17.02
-18.45
-19.65
-20.68
-21.51
-22.06
-22.24
-22.00
-21.43
-20.71
-20.05
-19.60
-19.45
-19.57
-19.91
-20.37
-20.85
-21.26
-21.47
-21.37
-20.84
-19.80
-18.25
-16.27
-14.05
-11.84
-9.84
-8.23
-7.07
-6.32
-5.90
-5.69
-5.59
-5.54
-5.51
-5.48
-5.50
-5.61
-5.85
-6.18
-6.52
-6.76
-6.81
-6.66
-6.41
-6.25
-6.33
-6.78
-7.59
-8.65
-9.77
-10.74
-11.41
-11.72
-11.72
-11.52
-11.21
-10.89
-10.60
-10.37
-10.23
-10.24
-10.43
-10.83
-11.38
-11.97
-12.43
-12.60
-12.34
-11.65
-10.58
-9.27
-7.80
-6.20
-4.39
-2.28
0.20
2.95
5.77
8.42
10.69
12.49
13.87
14.99
15.99
17.00
18.11
19.35
20.73
22.14
23.42
24.33
24.67
24.32
23.41
22.25
21.28
20.85
21.14
21.97
22.94
23.49
23.15
21.66
19.06
15.59
11.59
7.38
3.19
-0.90
-4.90
-8.85
-12.75
-16.55
-20.17
-23.47
-26.33
-28.59
-30.11
-30.78
-30.59
-29.65
-28.19
-26.56
-25.09
-24.05
-23.56
-23.60
-24.03
-24.66
-25.24
-25.50
-25.11
-23.76
-21.19
-17.34
-12.34
-6.54
-0.39
5.60
11.03
15.69
19.50
22.55
25.00
26.96
28.50
29.61
30.23
30.30
29.87
29.10
28.31
27.83
27.93
28.70
29.97
31.39
32.56
33.11
32.83
31.68
29.75
27.24
24.38
21.45
18.64
16.09
13.77
11.55
9.28
6.90
4.47
2.17
0.19
-1.37
-2.50
-3.24
-3.58
-3.39
-2.50
-0.76
1.79
4.86
7.93
10.32
11.48
11.07
9.14
6.05
2.34
-1.50
-5.16
-8.51
-11.54
-14.15
-16.14
-17.27
-17.44
-16.83
-15.87
-15.09
-14.86
-15.23
-15.94
-16.56
-16.73
-16.21
-14.91
-12.80
-9.79
-5.81
-0.91
4.58
9.95
14.25
16.60
16.42
13.71
8.98
3.07
-3.16
-9.03
-14.15
-18.41
-21.82
-24.45
-26.35
-27.55
-28.15
-28.20
-27.78
-26.92
-25.66
-24.07
-22.32
-20.58
-18.99
-17.58
-16.29
-15.00
-13.67
-12.39
-11.38
-10.84
-10.82
-11.13
-11.38
-11.20
-10.37
-9.02
-7.55
-6.41
-5.88
-5.98
-6.51
-7.24
-8.04
-8.98
-10.14
-11.45
-12.65
-13.41
-13.64
-13.71
-14.43
-16.68
-20.93
-26.84
-33.34
-39.04
-42.78
-44.13
-43.44
-41.49
-39.12
-36.83
-34.71
-32.64
-30.48
-28.29
-26.25
-24.60
-23.53
-23.04
-23.04
-23.38
-23.91
-24.49
-24.98
-25.18
-24.84
-23.70
-21.56
-18.38
-14.33
-9.73
-5.00
-0.50
3.55
7.07
10.15
12.95
15.63
18.32
21.10
23.94
26.77
29.48
31.90
33.91
35.51
36.88
38.41
40.61
43.92
48.46
53.97
59.73
64.86
68.50
70.09
69.42
66.61
62.00
56.05
49.31
42.34
35.65
29.57
24.23
19.55
15.31
11.33
7.48
3.71
-0.03
-3.74
-7.48
-11.22
-14.83
-18.12
-20.89
-23.03
-24.57
-25.63
-26.34
-26.77
-26.93
-26.83
-26.53
-26.17
-25.93
-25.90
-26.07
-26.30
-26.44
-26.44
-26.37
-26.36
-26.48
-26.64
-26.64
-26.24
-25.33
-24.00
-22.48
-21.02
-19.79
-18.80
-17.92
-17.02
-16.02
-14.89
-13.64
-12.27
-10.73
-8.98
-7.05
-5.05
-3.15
-1.48
-0.10
1.07
2.17
3.35
4.72
6.24
7.82
9.30
10.52
11.38
11.87
12.07
12.17
12.29
12.49
12.72
12.82
12.66
12.15
11.34
10.29
9.10
7.81
6.43
4.95
3.39
1.81
0.26
-1.27
-2.89
-4.74
-6.91
-9.36
-11.94
-14.34
-16.27
-17.51
-17.96
-17.63
-16.63
-15.05
-13.01
-10.64
-8.09
-5.58
-3.29
-1.33
0.31
1.68
2.86
3.89
4.78
5.55
6.27
7.07
8.05
9.23
10.56
11.90
13.12
14.16
15.04
15.79
16.43
16.94
17.28
17.43
17.43
17.34
17.25
17.16
17.01
16.72
16.17
15.34
14.29
13.10
11.88
10.66
9.44
8.14
6.75
5.29
3.82
2.39
1.02
-0.35
-1.85
-3.59
-5.67
-8.07
-10.74
-13.48
-16.01
-17.99
-19.07
-18.98
-17.64
-15.16
-11.87
-8.22
-4.66
-1.53
0.97
2.81
4.06
4.86
5.32
5.59
5.77
5.98
6.31
6.82
7.54
8.41
9.34
10.27
11.18
12.05
12.89
13.65
14.29
14.74
15.03
15.21
15.34
15.44
15.45
15.33
15.01
14.53
13.96
13.36
12.73
12.04
11.19
10.17
8.97
7.64
6.20
4.67
3.01
1.27
-0.50
-2.23
-3.88
-5.47
-7.06
-8.78
-10.70
-12.83
-15.07
-17.18
-18.82
-19.67
-19.45
-18.07
-15.64
-12.37
-8.56
-4.49
-0.39
3.55
7.15
10.23
12.66
14.40
15.52
16.19
16.59
16.86
17.06
17.21
17.29
17.35
17.43
17.59
17.87
18.28
18.80
19.37
19.90
20.29
20.40
20.16
19.56
18.71
17.81
17.04
16.45
15.97
15.42
14.66
13.62
12.42
11.24
10.22
9.43
8.75
8.01
7.09
5.95
4.72
3.54
2.58
1.85
1.28
0.69
-0.06
-1.03
-2.18
-3.43
-4.73
-6.09
-7.59
-9.31
-11.20
-13.13
-14.82
-15.95
-16.22
-15.46
-13.65
-10.96
-7.66
-4.12
-0.67
2.42
4.97
6.87
8.05
8.48
8.21
7.37
6.19
4.94
3.91
3.29
3.14
3.45
4.13
5.05
6.11
7.16
8.09
8.83
9.32
9.52
9.49
9.27
8.94
8.57
8.19
7.83
7.48
7.14
6.78
6.40
5.97
5.49
4.98
4.43
3.86
3.22
2.45
1.49
0.27
-1.21
-2.90
-4.72
-6.57
-8.34
-9.99
-11.46
-12.78
-13.99
-15.22
-16.61
-18.28
-20.32
-22.68
-25.14
-27.36
-28.90
-29.31
-28.24
-25.54
-21.31
-15.82
-9.48
-2.74
4.00
10.33
15.91
20.48
23.93
26.34
27.98
29.21
30.36
31.62
32.99
34.38
35.69
36.88
38.01
39.21
40.60
42.32
44.43
46.94
49.75
52.63
55.25
57.28
58.51
58.93
58.75
58.21
57.49
56.63
55.43
53.63
50.93
47.17
42.37
36.76
30.70
24.69
19.13
14.37
10.49
7.46
5.12
3.34
2.06
1.25
0.81
0.52
0.07
-0.80
-2.18
-3.95
-5.85
-7.62
-9.09
-10.19
-10.86
-10.96
-10.27
-8.57
-5.80
-2.11
2.13
6.45
10.40
13.70
16.37
18.68
21.12
24.23
28.37
33.42
38.71
43.18
45.71
45.60
42.85
38.22
32.93
28.27
25.15
23.94
24.38
25.66
26.65
26.14
23.15
17.21
8.50
-2.13
-13.40
-24.06
-33.20
-40.46
-45.91
-49.84
-52.42
-53.66
-53.48
-51.94
-49.41
-46.55
-44.04
-42.33
-41.42
-40.97
-40.52
-39.77
-38.74
-37.68
-36.86
-36.40
-36.30
-36.58
-37.44
-39.24
-42.19
-46.11
-50.25
-53.44
-54.59
-53.22
-49.62
-44.75
-39.77
-35.58
-32.53
-30.54
-29.33
-28.70
-28.59
-29.00
-29.87
-31.02
-32.23
-33.29
-34.10
-34.62
-34.85
-34.73
-34.14
-32.94
-31.05
-28.51
-25.49
-22.25
-19.13
-16.38
-14.17
-12.51
-11.35
-10.56
-10.07
-9.83
-9.80
-9.95
-10.25
-10.63
-11.04
-11.43
-11.75
-11.96
-12.08
-12.19
-12.36
-12.65
-13.05
-13.46
-13.72
-13.70
-13.31
-12.50
-11.23
-9.45
-7.06
-4.01
-0.33
3.82
8.20
12.56
16.76
20.83
24.90
29.16
33.63
38.10
42.16
45.36
47.37
48.15
47.91
46.96
45.56
43.81
41.66
38.99
35.75
32.04
28.05
23.98
19.94
15.93
11.88
7.76
3.64
-0.29
-3.85
-6.94
-9.65
-12.25
-15.12
-18.54
-22.62
-27.25
-32.18
-37.18
-42.02
-46.54
-50.59
-54.03
-56.72
-58.67
-60.04
-61.10
-62.07
-63.02
-63.70
-63.68
-62.48
-59.80
-55.64
-50.24
-44.00
-37.25
-30.24
-23.12
-16.03
-9.17
-2.81
2.82
7.59
11.57
14.89
17.71
20.02
21.69
22.43
22.02
20.45
17.94
14.93
11.89
9.18
6.96
5.20
3.76
2.48
1.25
0.03
-1.19
-2.40
-3.59
-4.70
-5.66
-6.46
-7.10
-7.60
-7.99
-8.28
-8.38
-8.24
-7.82
-7.15
-6.31
-5.37
-4.36
-3.26
-1.96
-0.39
1.49
3.63
5.93
8.21
10.34
12.20
13.77
15.08
16.19
17.16
17.95
18.41
18.36
17.65
16.27
14.31
11.98
9.48
6.98
4.62
2.57
1.00
0.08
-0.14
0.26
1.07
2.02
2.89
3.57
4.05
4.34
4.47
4.46
4.38
4.32
4.40
4.69
5.15
5.71
6.17
6.37
6.22
5.63
4.55
2.86
0.38
-3.10
-7.75
-13.59
-20.48
-28.07
-35.83
-43.15
-49.38
-53.93
-56.39
-56.56
-54.57
-50.80
-45.87
-40.47
-35.21
-30.52
-26.68
-23.84
-22.12
-21.57
-22.14
-23.60
-25.47
-27.18
-28.15
-27.95
-26.46
-23.77
-20.11
-15.71
-10.78
-5.45
0.09
5.63
10.85
15.41
19.01
21.46
22.74
23.00
22.52
21.65
20.67
19.73
18.81
17.75
16.39
14.62
12.44
9.93
7.21
4.42
1.65
-1.01
-3.51
-5.88
-8.28
-10.95
-14.12
-17.84
-21.87
-25.58
-28.16
-28.87
-27.28
-23.43
-17.79
-11.04
-3.84
3.37
10.34
16.94
23.04
28.41
32.77
35.93
37.85
38.72
38.88
38.70
38.47
38.29
38.17
38.07
38.00
38.01
38.23
38.66
39.20
39.62
39.63
39.07
37.90
36.25
34.32
32.29
30.22
28.12
25.92
23.60
21.14
18.59
16.00
13.44
10.94
8.52
6.23
4.06
1.97
-0.10
-2.28
-4.73
-7.53
-10.71
-14.11
-17.37
-19.97
-21.33
-20.95
-18.59
-14.36
-8.70
-2.28
4.20
10.14
15.22
19.32
22.50
24.85
26.44
27.32
27.50
27.06
26.16
25.01
23.83
22.80
21.98
21.35
20.86
20.43
20.01
19.60
19.17
18.63
17.89
16.80
15.28
13.31
10.99
8.48
6.00
3.73
1.81
0.33
-0.69
-1.27
-1.46
-1.30
-0.82
0.02
1.21
2.70
4.33
5.86
7.05
7.71
7.82
7.49
6.91
6.22
5.43
4.37
2.77
0.40
-2.81
-6.62
-10.53
-13.80
-15.63
-15.36
-12.70
-7.83
-1.35
5.87
12.90
19.07
24.00
27.64
30.11
31.65
32.44
32.69
32.57
32.23
31.83
31.47
31.15
30.83
30.48
30.08
29.65
29.22
28.82
28.48
28.20
28.01
27.90
27.88
27.89
27.89
27.85
27.84
27.94
28.23
28.72
29.33
29.96
30.59
31.36
32.53
34.35
36.91
40.03
43.16
45.58
46.49
45.28
41.70
35.89
28.37
19.95
11.52
3.88
-2.49
-7.50
-11.45
-14.83
-18.12
-21.57
-25.09
-28.37
-31.07
-32.97
-34.12
-34.68
-34.83
-34.62
-33.96
-32.71
-30.82
-28.39
-25.60
-22.66
-19.70
-16.79
-14.01
-11.49
-9.42
-8.03
-7.46
-7.69
-8.62
-10.04
-11.81
-13.81
-15.93
-18.00
-19.72
-20.77
-20.91
-20.10
-18.59
-16.80
-15.21
-14.13
-13.68
-13.71
-14.02
-14.43
-14.93
-15.58
-16.48
-17.60
-18.81
-19.88
-20.63
-21.01
-21.12
-21.13
-21.22
-21.46
-21.90
-22.55
-23.54
-25.11
-27.52
-30.94
-35.29
-40.18
-44.98
-48.92
-51.35
-51.93
-50.68
-47.99
-44.39
-40.34
-36.11
-31.74
-27.13
-22.21
-17.04
-11.81
-6.81
-2.31
1.53
4.66
7.08
8.90
10.21
11.12
11.69
11.98
12.03
11.87
11.57
11.22
10.89
10.61
10.32
9.94
9.38
8.61
7.65
6.55
5.29
3.76
1.80
-0.68
-3.65
-6.93
-10.23
-13.27
-15.94
-18.27
-20.44
-22.64
-25.00
-27.48
-29.87
-31.78
-32.72
-32.22
-29.97
-26.00
-20.72
-14.81
-8.99
-3.77
0.70
4.62
8.33
12.15
16.16
20.25
24.22
27.89
31.16
33.94
36.12
37.54
37.98
37.38
35.84
33.68
31.34
29.20
27.51
26.26
25.29
24.33
23.19
21.79
20.24
18.70
17.30
16.04
14.78
13.28
11.35
8.90
6.01
2.86
-0.37
-3.55
-6.62
-9.57
-12.36
-14.90
-17.06
-18.77
-20.00
-20.77
-21.13
-21.06
-20.53
-19.50
-17.96
-15.95
-13.53
-10.78
-7.83
-4.80
-1.88
0.74
2.91
4.54
5.67
6.39
6.79
6.91
6.74
6.28
5.56
4.74
3.99
3.48
3.30
3.44
3.78
4.19
4.56
4.77
4.77
4.48
3.91
3.13
2.24
1.40
0.69
0.10
-0.46
-1.16
-2.14
-3.47
-5.17
-7.19
-9.45
-11.85
-14.29
-16.67
-18.91
-21.00
-22.91
-24.62
-26.04
-27.02
-27.44
-27.28
-26.60
-25.54
-24.21
-22.59
-20.54
-17.89
-14.56
-10.65
-6.43
-2.26
1.51
4.67
7.10
8.77
9.71
10.04
9.96
9.78
9.82
10.32
11.38
12.86
14.56
16.28
17.94
19.59
21.35
23.34
25.56
27.96
30.47
33.04
35.66
38.25
40.63
42.53
43.59
43.59
42.46
40.38
37.72
34.88
32.22
29.91
27.90
26.01
23.97
21.56
18.66
15.29
11.59
7.81
4.19
0.97
-1.65
-3.54
-4.61
-4.89
-4.55
-3.85
-3.11
-2.58
-2.40
-2.59
-3.05
-3.66
-4.36
-5.10
-5.92
-6.85
-7.96
-9.24
-10.66
-12.18
-13.67
-14.99
-15.98
-16.50
-16.52
-16.13
-15.51
-14.91
-14.53
-14.49
-14.83
-15.47
-16.34
-17.33
-18.37
-19.43
-20.47
-21.46
-22.38
-23.28
-24.28
-25.57
-27.36
-29.75
-32.67
-35.74
-38.40
-40.05
-40.24
-38.77
-35.77
-31.60
-26.68
-21.46
-16.30
-11.56
-7.48
-4.27
-1.94
-0.41
0.52
1.08
1.44
1.72
2.00
2.39
2.98
3.80
4.80
5.80
6.60
7.06
7.12
6.89
6.48
5.96
5.30
4.42
3.23
1.70
-0.12
-2.11
-4.11
-5.99
-7.65
-9.06
-10.25
-11.36
-12.57
-14.08
-15.97
-18.19
-20.51
-22.58
-23.95
-24.20
-23.06
-20.42
-16.45
-11.49
-6.05
-0.64
4.32
8.58
12.07
14.82
16.91
18.40
19.38
19.93
20.15
20.17
20.16
20.22
20.42
20.72
21.03
21.23
21.24
21.08
20.82
20.54
20.24
19.87
19.32
18.50
17.39
16.04
14.55
13.04
11.57
10.15
8.74
7.30
5.77
4.18
2.58
1.06
-0.26
-1.27
-1.86
-1.84
-1.01
0.95
4.36
9.52
16.57
25.47
35.94
47.46
59.30
70.53
80.21
87.55
92.10
93.89
93.44
91.63
89.44
87.73
86.96
87.15
87.90
88.57
88.57
87.59
85.68
83.19
80.45
77.57
74.26
69.94
64.00
56.14
46.42
35.31
23.38
11.02
-1.69
-14.95
-29.00
-43.99
-59.83
-76.31
-93.22
-110.33
-127.37
-143.84
-158.90
-171.49
-180.60
-185.54
-186.15
-182.69
-175.58
-165.22
-151.88
-135.92
-117.99
-99.12
-80.58
-63.57
-48.90
-36.82
-27.19
-19.59
-13.65
-9.13
-5.83
-3.54
-1.92
-0.55
0.98
2.87
5.12
7.49
9.65
11.31
12.31
12.62
12.34
11.59
10.45
9.00
7.27
5.30
3.13
0.85
-1.49
-3.85
-6.29
-8.89
-11.75
-14.85
-18.04
-20.96
-23.08
-23.77
-22.42
-18.53
-11.91
-2.73
8.44
20.78
33.43
45.77
57.55
68.83
79.86
90.78
101.47
111.57
120.57
128.08
133.92
138.22
141.22
143.15
144.01
143.53
141.26
136.79
129.90
120.69
109.57
97.15
84.08
70.92
58.04
45.60
33.63
22.05
10.77
-0.24
-10.95
-21.26
-31.02
-40.07
-48.22
-55.28
-61.08
-65.52
-68.62
-70.44
-71.07
-70.46
-68.45
-64.81
-59.39
-52.29
-43.82
-34.49
-24.84
-15.27
-6.08
2.58
10.63
18.02
24.72
30.75
36.15
40.98
45.34
49.27
52.68
55.30
56.64
55.96
52.47
45.52
34.88
20.85
4.32
-13.39
-30.80
-46.51
-59.45
-69.06
-75.35
-78.84
-80.44
-81.15
-81.91
-83.32
-85.58
-88.54
-91.78
-94.89
-97.55
-99.63
-101.11
-101.93
-101.89
-100.63
-97.66
-92.58
-85.24
-75.84
-64.86
-52.97
-40.87
-29.11
-18.06
-7.79
1.79
10.89
19.68
28.20
36.33
43.80
50.36
55.85
60.26
63.67
66.15
67.68
68.14
67.44
65.55
62.55
58.57
53.69
47.88
41.12
33.48
25.38
17.55
10.97
6.55
4.81
5.72
8.69
12.80
17.19
21.26
24.82
27.90
30.59
32.80
34.15
34.10
32.12
27.93
21.67
13.94
5.73
-1.92
-8.17
-12.78
-16.23
-19.55
-23.87
-29.89
-37.45
-45.55
-52.69
-57.49
-59.28
-58.26
-55.42
-52.06
-49.33
-47.95
-48.21
-50.11
-53.52
-58.21
-63.77
-69.48
-74.28
-77.03
-76.89
-73.74
-68.31
-62.01
-56.48
-53.01
-52.11
-53.43
-55.98
-58.69
-60.81
-62.21
-63.22
-64.28
-65.54
-66.69
-67.14
-66.44
-64.64
-62.23
-59.85
-57.66
-55.06
-50.78
-43.58
-32.87
-19.18
-3.97
11.01
24.37
35.50
44.56
52.02
58.32
63.67
68.10
71.75
74.96
78.23
81.91
85.96
89.75
92.25
92.32
89.12
82.46
72.92
61.68
50.25
40.14
32.47
27.85
26.21
26.87
28.73
30.54
31.28
30.39
27.89
24.27
20.28
16.68
14.06
12.79
12.96
14.36
16.55
18.86
20.65
21.49
21.36
20.64
19.93
19.54
19.21
17.91
14.21
6.97
-4.03
-17.70
-31.89
-44.11
-52.58
-56.82
-57.73
-56.94
-55.88
-55.07
-53.97
-51.52
-46.93
-40.30
-32.70
-25.69
-20.65
-18.20
-17.95
-18.80
-19.31
-18.25
-14.87
-9.08
-1.43
7.04
14.95
21.02
24.38
24.84
22.93
19.69
16.29
13.64
12.28
12.29
13.50
15.61
18.26
21.00
23.33
24.70
24.65
22.94
19.65
15.13
9.90
4.50
-0.76
-5.80
-10.84
-16.21
-22.17
-28.72
-35.56
-42.20
-48.14
-53.12
-57.20
-60.68
-63.87
-66.87
-69.34
-70.61
-69.81
-66.24
-59.54
-49.91
-38.02
-24.94
-11.92
-0.14
9.49
16.40
20.47
21.98
21.54
19.95
18.08
16.67
16.26
17.12
19.29
22.65
27.04
32.27
38.08
44.16
50.13
55.51
59.77
62.36
62.77
60.72
56.25
49.89
42.50
35.05
28.11
21.72
15.37
8.51
1.08
-6.19
-11.92
-14.66
-13.61
-9.03
-2.20
4.99
10.72
13.70
13.48
10.46
5.66
0.34
-4.48
-8.34
-11.45
-14.33
-17.42
-20.67
-23.57
-25.44
-25.97
-25.47
-24.80
-24.86
-26.14
-28.46
-31.14
-33.45
-35.01
-35.88
-36.41
-36.88
-37.28
-37.33
-36.70
-35.18
-32.93
-30.38
-28.04
-26.29
-25.15
-24.21
-22.72
-19.90
-15.17
-8.44
-0.11
9.11
18.38
27.14
35.12
42.29
48.71
54.30
58.85
62.13
64.04
64.70
64.38
63.35
61.68
59.25
55.89
51.51
46.27
40.57
34.92
29.73
25.16
21.09
17.14
12.92
8.19
3.01
-2.32
-7.48
-12.39
-17.36
-23.04
-30.11
-39.01
-49.56
-60.99
-72.00
-81.07
-86.80
-88.09
-84.37
-75.66
-62.62
-46.43
-28.64
-10.86
5.46
19.27
29.98
37.43
41.79
43.53
43.27
41.70
39.48
37.11
34.84
32.68
30.43
27.80
24.53
20.53
15.93
11.13
6.64
3.00
0.62
-0.32
0.10
1.56
3.61
5.75
7.55
8.67
8.92
8.15
6.27
3.24
-0.88
-5.73
-10.60
-14.44
-16.15
-14.97
-10.76
-4.14
3.78
11.79
18.94
24.74
29.06
31.92
33.25
32.92
30.84
27.19
22.53
17.64
13.36
10.22
8.44
7.82
7.97
8.46
8.90
9.07
8.85
8.19
7.11
5.68
4.01
2.19
0.26
-1.76
-3.92
-6.24
-8.72
-11.34
-14.15
-17.24
-20.65
-24.26
-27.67
-30.15
-30.82
-29.01
-24.44
-17.46
-8.91
0.12
8.66
15.98
21.69
25.66
27.97
28.83
28.62
27.85
27.02
26.48
26.21
25.88
25.03
23.30
20.66
17.41
14.00
10.86
8.15
5.78
3.48
0.97
-1.92
-5.27
-9.00
-13.01
-17.10
-21.06
-24.72
-28.01
-31.05
-34.16
-37.75
-42.11
-47.26
-52.74
-57.72
-61.16
-62.16
-60.23
-55.47
-48.50
-40.22
-31.49
-22.96
-14.93
-7.50
-0.76
5.12
9.81
13.04
14.71
14.97
14.29
13.22
12.24
11.68
11.62
12.04
12.86
14.06
15.49
16.92
17.89
17.87
16.41
13.33
8.89
3.64
-1.70
-6.50
-10.42
-13.37
-15.46
-16.90
-17.90
-18.70
-19.59
-20.86
-22.72
-25.13
-27.75
-29.85
-30.52
-28.89
-24.37
-16.90
-6.92
4.70
16.94
28.84
39.62
48.76
55.95
61.02
63.90
64.57
63.07
59.54
54.32
47.98
41.27
34.95
29.62
25.47
22.36
19.91
17.76
15.78
14.02
12.66
11.77
11.28
10.99
10.69
10.23
9.56
8.65
7.38
5.55
2.90
-0.80
-5.59
-11.23
-17.08
-22.22
-25.66
-26.62
-24.82
-20.53
-14.47
-7.53
-0.45
6.24
12.19
17.10
20.64
22.52
22.69
21.54
19.88
18.75
19.07
21.26
25.19
30.22
35.54
40.49
44.70
48.13
50.89
53.10
54.78
55.79
55.87
54.75
52.17
47.97
42.14
34.89
26.65
18.07
9.80
2.44
-3.65
-8.28
-11.39
-12.90
-12.73
-10.82
-7.14
-1.80
5.07
13.21
22.32
31.95
41.50
50.21
57.32
62.23
64.58
64.33
61.60
56.47
48.94
38.98
26.74
12.78
-1.88
-15.87
-27.82
-36.72
-42.16
-44.38
-44.02
-41.88
-38.56
-34.42
-29.69
-24.72
-20.10
-16.55
-14.71
-14.76
-16.32
-18.59
-20.76
-22.38
-23.49
-24.48
-25.65
-26.91
-27.83
-27.87
-26.88
-25.26
-23.95
-24.00
-26.12
-30.33
-35.98
-42.05
-47.56
-51.96
-55.23
-57.76
-60.00
-62.13
-63.96
-65.01
-64.78
-63.01
-59.84
-55.67
-50.98
-46.13
-41.30
-36.58
-32.11
-28.18
-25.17
-23.35
-22.72
-22.89
-23.28
-23.36
-23.00
-22.57
-22.82
-24.43
-27.63
-31.94
-36.26
-39.28
-40.02
-38.15
-34.07
-28.57
-22.46
-16.29
-10.30
-4.59
0.65
5.10
8.38
10.26
10.78
10.27
9.18
7.91
6.68
5.54
4.49
3.61
3.02
2.79
2.94
3.35
3.91
4.58
5.46
6.71
8.42
10.56
12.93
15.30
17.49
19.48
21.41
23.45
25.69
28.09
30.44
32.37
33.41
33.11
31.14
27.51
22.63
17.33
12.62
9.46
8.48
9.85
13.26
18.05
23.43
28.57
32.81
35.69
36.97
36.64
34.92
32.17
28.87
25.46
22.20
19.17
16.22
13.11
9.59
5.53
0.93
-4.05
-9.21
-14.26
-18.85
-22.55
-24.91
-25.55
-24.35
-21.55
-17.75
-13.75
-10.30
-7.93
-6.79
-6.74
-7.37
-8.22
-8.81
-8.77
-7.79
-5.66
-2.29
2.25
7.67
13.43
18.83
23.16
25.88
26.83
26.21
24.60
22.74
21.36
20.99
21.87
23.84
26.37
28.68
29.95
29.66
27.79
24.90
21.81
19.18
17.13
15.15
12.41
8.25
2.68
-3.56
-9.25
-13.15
-14.50
-13.18
-9.58
-4.39
1.68
8.00
13.99
19.06
22.61
24.25
23.92
22.03
19.35
16.72
14.70
13.30
12.02
10.21
7.44
3.78
-0.22
-3.95
-7.04
-9.56
-11.86
-14.15
-16.27
-17.59
-17.39
-15.20
-11.21
-6.18
-1.16
2.88
5.36
6.07
5.04
2.36
-1.82
-7.23
-13.25
-19.01
-23.44
-25.61
-24.90
-21.21
-14.97
-7.00
1.61
9.67
16.15
20.27
21.74
20.74
17.85
13.85
9.48
5.34
1.88
-0.62
-2.07
-2.54
-2.39
-2.21
-2.70
-4.44
-7.69
-12.32
-17.86
-23.70
-29.22
-33.94
-37.55
-39.88
-40.90
-40.69
-39.51
-37.69
-35.55
-33.27
-30.78
-27.75
-23.80
-18.67
-12.50
-5.88
0.26
4.85
7.05
6.44
3.20
-2.01
-8.26
-14.61
-20.38
-25.20
-28.93
-31.51
-32.88
-32.97
-31.88
-29.99
-27.92
-26.41
-25.95
-26.61
-28.02
-29.64
-31.06
-32.28
-33.62
-35.50
-38.06
-40.91
-43.17
-43.82
-42.15
-38.16
-32.66
-26.98
-22.42
-19.76
-18.96
-19.31
-19.85
-19.73
-18.58
-16.48
-13.85
-11.18
-8.94
-7.43
-6.82
-7.04
-7.83
-8.84
-9.74
-10.38
-10.81
-11.23
-11.86
-12.86
-14.28
-16.16
-18.50
-21.28
-24.41
-27.70
-30.93
-33.90
-36.47
-38.52
-39.94
-40.58
-40.27
-38.96
-36.79
-34.09
-31.33
-28.94
-27.12
-25.82
-24.73
-23.59
-22.24
-20.82
-19.61
-18.85
-18.64
-18.78
-18.95
-18.88
-18.47
-17.79
-16.98
-16.11
-15.12
-13.90
-12.49
-11.16
-10.37
-10.65
-12.37
-15.59
-20.12
-25.55
-31.46
-37.45
-43.23
-48.56
-53.23
-56.94
-59.20
-59.34
-56.56
-50.21
-40.00
-26.31
-10.13
7.08
23.77
38.64
50.83
59.96
66.01
69.22
70.00
68.92
66.65
63.88
61.22
59.04
57.44
56.31
55.38
54.36
52.99
51.09
48.50
45.13
40.93
35.96
30.38
24.42
18.29
12.09
5.80
-0.68
-7.35
-13.96
-19.96
-24.60
-27.11
-26.94
-23.88
-18.10
-10.01
-0.24
10.53
21.55
32.09
41.53
49.47
55.88
61.08
65.58
69.83
73.98
77.90
81.26
83.87
85.83
87.58
89.63
92.25
95.24
97.95
99.53
99.27
96.92
92.76
87.45
81.76
76.27
71.25
66.77
62.81
59.41
56.63
54.51
52.94
51.64
50.19
48.19
45.27
41.12
35.48
28.08
18.81
7.86
-4.01
-15.53
-25.20
-31.68
-34.31
-33.21
-29.18
-23.27
-16.41
-9.23
-2.05
4.94
11.60
17.69
23.02
27.38
30.59
32.44
32.71
31.34
28.49
24.66
20.49
16.57
13.24
10.47
7.94
5.14
1.54
-3.24
-9.22
-15.98
-22.60
-27.91
-30.84
-30.84
-28.13
-23.59
-18.39
-13.52
-9.47
-6.27
-3.74
-1.81
-0.63
-0.58
-2.03
-5.11
-9.57
-14.73
-19.60
-23.13
-24.42
-22.98
-18.88
-12.72
-5.48
1.80
8.33
13.73
18.04
21.56
24.62
27.43
30.07
32.53
34.80
36.89
38.82
40.46
41.55
41.71
40.57
38.00
34.19
29.63
24.93
20.51
16.49
12.59
8.39
3.57
-1.84
-7.42
-12.53
-16.57
-19.27
-20.70
-21.22
-21.23
-20.99
-20.55
-19.83
-18.72
-17.12
-15.01
-12.29
-8.92
-4.94
-0.60
3.62
7.13
9.57
11.10
12.48
14.87
19.34
26.39
35.61
45.88
55.73
63.91
69.60
72.48
72.50
69.73
64.28
56.46
46.87
36.30
25.58
15.29
5.66
-3.24
-11.37
-18.50
-24.27
-28.49
-31.31
-33.31
-35.25
-37.69
-40.67
-43.65
-45.75
-46.15
-44.46
-40.89
-36.10
-30.96
-26.25
-22.49
-19.95
-18.77
-18.97
-20.56
-23.39
-27.17
-31.55
-36.28
-41.37
-47.14
-54.03
-62.23
-71.49
-80.97
-89.49
-95.89
-99.34
-99.52
-96.47
-90.39
-81.41
-69.59
-55.16
-38.72
-21.39
-4.68
9.86
21.04
28.41
32.33
33.78
33.89
33.54
33.10
32.43
31.14
28.93
25.82
22.14
18.31
14.56
10.71
6.23
0.51
-6.74
-15.28
-24.30
-32.69
-39.33
-43.37
-44.27
-41.79
-35.96
-27.09
-15.91
-3.52
8.77
19.83
29.14
36.96
44.04
51.23
58.91
66.82
74.27
80.58
85.35
88.64
90.68
91.63
91.48
90.00
86.99
82.25
75.60
66.84
55.90
43.25
30.14
18.55
10.47
6.94
7.29
9.11
9.19
4.84
-4.95
-19.17
-35.29
-50.47
-62.53
-70.57
-74.82
-76.12
-75.34
-73.02
-69.39
-64.46
-58.33
-51.31
-43.89
-36.77
-30.61
-25.96
-23.11
-22.06
-22.58
-24.26
-26.54
-28.79
-30.42
-30.97
-30.15
-27.96
-24.62
-20.50
-16.06
-11.65
-7.53
-3.81
-0.51
2.35
4.66
6.17
6.57
5.56
3.01
-0.98
-6.03
-11.62
-17.25
-22.60
-27.55
-32.00
-35.82
-38.72
-40.43
-40.90
-40.49
-39.90
-40.03
-41.51
-44.58
-48.96
-54.01
-59.00
-63.27
-66.24
-67.46
-66.70
-64.22
-61.00
-58.58
-58.51
-61.55
-67.09
-73.16
-77.26
-77.42
-73.18
-65.70
-57.12
-49.48
-43.75
-39.60
-35.86
-31.33
-25.48
-18.70
-12.00
-6.57
-3.29
-2.41
-3.38
-5.08
-5.99
-4.60
0.14
8.62
20.48
34.82
50.59
66.75
82.44
96.88
109.32
119.04
125.61
129.06
129.99
129.40
128.35
127.45
126.65
125.13
121.62
114.87
104.13
89.51
72.07
53.50
35.67
20.14
7.68
-1.75
-8.88
-14.72
-20.13
-25.62
-31.18
-36.58
-41.52
-45.87
-49.62
-52.76
-55.16
-56.44
-56.19
-54.18
-50.63
-46.23
-41.86
-38.27
-35.82
-34.34
-33.33
-32.16
-30.24
-27.13
-22.53
-16.25
-8.28
1.14
11.43
21.68
30.77
37.58
41.19
41.17
37.62
31.22
23.05
14.31
6.08
-0.93
-6.50
-10.84
-14.45
-18.03
-22.17
-27.26
-33.26
-39.75
-45.95
-51.01
-54.22
-55.26
-54.23
-51.54
-47.59
-42.70
-36.96
-30.41
-23.19
-15.60
-8.04
-0.89
5.56
11.11
15.39
17.88
17.88
14.96
9.22
1.44
-7.00
-14.71
-20.68
-24.63
-26.98
-28.54
-30.09
-32.13
-34.82
-38.00
-41.33
-44.26
-46.00
-45.63
-42.27
-35.43
-25.19
-12.37
1.69
15.39
27.33
36.54
42.64
45.76
46.44
45.40
43.34
40.83
38.12
35.23
32.05
28.61
25.23
22.52
21.15
21.61
23.98
27.92
32.86
38.28
43.84
49.42
55.08
60.91
67.06
73.64
80.69
88.08
95.38
101.77
106.24
107.83
106.04
100.97
93.33
84.04
73.81
62.82
50.59
36.36
19.45
-0.22
-21.97
-44.35
-65.50
-83.49
-96.69
-104.05
-105.09
-99.98
-89.37
-74.31
-56.11
-36.27
-16.38
2.01
17.44
28.78
35.31
36.90
33.95
27.21
17.69
6.52
-5.08
-15.89
-24.92
-31.84
-37.24
-42.58
-49.75
-60.22
-74.48
-91.75
-110.28
-127.99
-142.99
-154.28
-161.95
-166.98
-170.86
-174.98
-180.35
-187.29
-195.55
-204.45
-213.22
-220.98
-226.46
-227.70
-222.23
-207.99
-184.25
-152.30
-114.88
-75.56
-37.62
-2.98
27.97
55.64
80.26
101.47
118.52
131.91
142.59
151.80
160.78
170.72
182.17
194.65
207.11
218.35
229.57
241.88
255.44
269.65
283.98
298.04
311.17
322.73
331.94
341.11
351.46
361.92
370.33
375.52
377.37
375.79
370.86
362.17
353.05
344.89
335.13
319.51
295.74
264.47
228.35
191.71
135.25
55.82
-34.48
-119.09
-188.68
-241.76
-278.84
-305.39
-324.49
-339.39
-350.67
-361.86
-376.25
-396.88
-422.07
-446.30
-464.06
-471.48
-467.62
-450.33
-406.23
-335.05
-249.30
-165.69
-95.93
-44.41
-9.88
11.13
24.80
35.59
43.48
47.20
47.14
45.63
44.95
46.73
51.23
60.29
72.36
82.97
87.91
85.51
77.14
65.54
53.76
43.99
38.46
37.23
37.77
37.30
34.81
32.02
31.66
36.43
47.00
64.32
87.53
113.66
138.85
159.57
173.95
180.84
179.58
164.65
136.19
100.22
65.61
40.03
22.54
10.73
2.00
-4.58
-9.82
-13.23
-14.67
-14.72
-14.67
-15.97
-19.03
-23.75
-29.57
-35.70
-40.39
-42.44
-41.65
-38.66
-34.47
-29.83
-25.37
-21.52
-18.59
-16.20
-14.01
-12.02
-10.43
-9.46
-9.86
-11.97
-15.31
-18.82
-21.29
-22.16
-21.53
-19.81
-17.42
-16.48
-18.44
-23.33
-30.17
-38.21
-47.42
-57.86
-69.12
-80.18
-93.06
-108.97
-127.11
-145.07
-161.03
-174.61
-186.08
-195.67
-203.32
-213.02
-227.28
-245.22
-263.23
-278.41
-290.06
-299.00
-306.43
-286.80
-228.90
-142.53
-51.79
24.10
78.53
113.74
135.43
149.54
160.65
167.18
167.32
160.42
150.73
142.16
136.70
135.16
137.76
144.02
149.31
149.70
144.07
134.39
123.07
111.35
100.20
90.80
84.05
77.86
69.96
59.45
47.05
33.67
19.07
3.98
-9.68
-19.90
-26.97
-32.30
-37.39
-43.11
-50.24
-60.65
-74.65
-90.48
-105.34
-116.82
-122.59
-120.30
-108.08
-78.38
-34.25
12.29
49.34
72.52
83.94
87.86
87.91
86.21
83.55
78.85
72.58
67.08
64.89
66.99
72.29
78.21
81.59
81.05
73.94
60.64
44.26
28.66
16.39
8.04
2.68
-1.17
-4.69
-9.08
-14.02
-18.29
-20.85
-21.63
-21.37
-21.01
-21.34
-22.64
-25.86
-31.70
-40.64
-52.81
-67.84
-84.57
-101.09
-115.02
-123.99
-126.41
-121.22
-108.28
-88.53
-64.06
-37.72
-12.59
8.78
24.94
35.61
41.62
44.31
44.95
44.35
42.85
40.42
36.94
32.47
27.27
21.95
17.32
14.32
13.81
16.23
21.29
27.88
34.25
38.57
39.62
37.31
32.66
27.30
22.78
19.94
18.80
18.75
19.10
19.42
19.57
19.52
19.10
17.97
15.75
12.33
7.99
3.30
-0.97
-4.26
-6.29
-7.10
-6.95
-6.09
-4.67
-2.73
-0.30
2.54
5.55
8.40
10.71
12.15
12.50
11.67
9.69
6.69
2.91
-1.36
-5.88
-10.45
-15.02
-19.61
-24.20
-28.60
-32.45
-35.21
-36.37
-35.57
-32.81
-28.35
-22.66
-16.26
-9.58
-3.04
2.94
7.84
11.08
12.17
10.91
7.47
2.38
-3.61
-9.71
-15.26
-19.71
-22.61
-23.62
-22.53
-19.46
-14.88
-9.63
-4.65
-0.70
1.86
3.15
3.52
3.33
2.73
1.64
-0.08
-2.45
-5.16
-7.54
-8.76
-8.03
-4.92
0.47
7.56
15.37
22.94
29.51
34.75
38.77
41.91
44.55
46.93
49.14
51.15
53.01
54.84
56.88
59.29
62.15
65.34
68.61
71.68
74.29
76.14
76.91
76.21
73.70
69.20
62.78
54.73
45.37
34.81
22.79
8.86
-7.27
-25.43
-44.82
-64.16
-82.15
-97.85
-110.92
-121.49
-129.91
-136.40
-140.93
-143.34
-143.53
-141.66
-138.10
-133.34
-127.77
-121.55
-114.71
-107.20
-99.04
-90.42
-81.61
-72.91
-64.59
-56.76
-49.49
-42.70
-36.34
-30.35
-24.78
-19.77
-15.54
-12.31
-10.24
-9.44
-9.93
-11.70
-14.71
-18.78
-23.46
-27.99
-31.29
-32.25
-30.01
-24.19
-15.02
-3.26
10.05
23.79
36.98
48.82
58.67
66.08
70.78
72.76
72.35
70.14
66.86
63.22
59.71
56.56
53.78
51.22
48.71
46.09
43.27
40.24
37.06
33.83
30.64
27.53
24.45
21.28
17.81
13.84
9.18
3.76
-2.31
-8.62
-14.42
-18.72
-20.50
-19.00
-13.99
-5.84
4.65
16.45
28.61
40.39
51.26
60.90
69.13
75.84
81.03
84.76
87.12
88.19
88.08
86.94
85.02
82.60
79.96
77.29
74.62
71.90
69.07
66.16
63.31
60.70
58.44
56.53
54.78
52.95
50.82
48.21
45.02
41.21
36.84
32.11
27.49
23.64
21.29
20.96
22.73
26.18
30.55
34.96
38.76
41.68
43.77
45.27
46.37
47.08
47.20
46.45
44.68
41.93
38.53
34.96
31.72
29.17
27.37
26.15
25.19
24.22
23.05
21.69
20.19
18.61
16.96
15.21
13.45
11.88
10.78
10.34
10.62
11.53
13.06
15.38
18.90
24.02
30.79
38.67
46.53
52.95
56.66
56.93
53.79
47.87
40.16
31.71
23.35
15.47
7.92
0.04
-9.04
-19.96
-32.67
-46.30
-59.23
-69.68
-76.19
-78.10
-75.56
-69.30
-60.25
-49.19
-36.69
-23.27
-9.59
3.40
14.54
22.68
26.96
27.04
23.16
16.11
7.05
-2.65
-11.56
-18.42
-22.21
-22.37
-18.91
-12.49
-4.36
3.87
10.59
14.58
15.30
13.01
8.54
2.82
-3.45
-10.09
-17.24
-25.00
-32.97
-40.16
-45.30
-47.49
-46.79
-44.27
-41.65
-40.53
-41.67
-44.78
-48.75
-52.33
-54.70
-55.75
-55.94
-55.97
-56.32
-57.10
-57.98
-58.45
-57.97
-56.21
-53.12
-48.95
-44.16
-39.23
-34.60
-30.58
-27.37
-25.10
-23.92
-24.04
-25.62
-28.80
-33.47
-39.31
-45.76
-52.09
-57.63
-61.87
-64.64
-66.04
-66.35
-65.89
-64.87
-63.40
-61.60
-59.63
-57.78
-56.34
-55.46
-55.02
-54.54
-53.35
-50.75
-46.37
-40.23
-32.79
-24.78
-17.00
-10.13
-4.68
-0.95
0.95
1.18
0.23
-1.11
-1.93
-1.49
0.51
3.76
7.58
11.14
13.80
15.21
15.19
13.65
10.52
5.83
-0.11
-6.72
-13.24
-19.04
-23.77
-27.39
-30.05
-31.86
-32.86
-33.10
-32.76
-32.20
-31.84
-31.96
-32.46
-32.83
-32.34
-30.33
-26.53
-21.24
-15.21
-9.44
-4.78
-1.69
-0.09
0.60
1.25
2.79
6.05
11.55
19.45
29.36
40.45
51.47
60.98
67.75
71.06
70.83
67.60
62.32
55.89
48.99
41.93
34.77
27.44
19.95
12.40
4.89
-2.54
-9.94
-17.33
-24.55
-31.15
-36.49
-39.95
-41.20
-40.39
-38.05
-34.89
-31.55
-28.37
-25.46
-22.77
-20.23
-17.76
-15.20
-12.26
-8.45
-3.23
3.82
12.74
23.04
33.72
43.48
50.98
55.29
56.06
53.65
48.89
42.79
36.24
29.87
23.99
18.77
14.31
10.68
7.82
5.48
3.16
0.15
-4.29
-10.76
-19.50
-30.25
-42.19
-54.09
-64.69
-73.08
-79.10
-83.46
-87.48
-92.59
-99.79
-109.18
-119.86
-130.02
-137.25
-139.02
-133.24
-118.87
-96.40
-68.07
-37.52
-8.92
14.12
29.58
37.36
39.05
37.03
33.61
30.37
28.11
27.07
27.28
28.76
31.45
35.08
39.13
43.00
46.32
49.17
51.96
55.13
58.71
62.08
64.16
64.05
61.60
57.79
54.39
53.30
55.77
61.95
71.06
81.89
93.35
104.59
114.87
123.18
128.15
128.25
122.30
109.86
91.42
68.36
42.58
16.24
-8.65
-30.44
-47.97
-60.57
-67.94
-70.03
-67.12
-59.94
-49.81
-38.53
-27.90
-19.11
-12.27
-6.54
-0.68
6.19
14.07
22.25
29.77
36.02
40.96
44.92
48.18
50.59
51.52
50.17
45.95
38.87
29.66
19.56
10.00
2.15
-3.37
-6.60
-8.17
-8.93
-9.70
-10.97
-12.82
-14.95
-16.87
-18.07
-18.30
-17.68
-16.69
-16.11
-16.72
-19.03
-23.19
-28.92
-35.75
-43.18
-50.87
-58.54
-65.89
-72.50
-77.87
-81.57
-83.20
-82.32
-78.26
-70.05
-56.78
-38.13
-14.85
11.08
36.93
59.93
78.04
90.30
96.63
97.41
93.30
85.20
74.49
63.10
53.13
46.20
42.88
42.48
43.42
43.98
43.05
40.47
37.01
33.96
32.56
33.59
37.10
42.34
47.95
52.32
54.12
52.75
48.55
42.66
36.54
31.37
27.70
25.33
23.71
22.30
20.92
19.79
19.27
19.52
20.34
21.22
21.74
21.76
21.60
21.89
23.17
25.54
28.50
31.03
31.97
30.46
26.24
19.79
12.12
4.46
-2.11
-6.99
-10.12
-11.98
-13.28
-14.65
-16.37
-18.34
-20.27
-21.90
-23.31
-24.86
-27.06
-30.30
-34.67
-40.08
-46.34
-53.45
-61.46
-70.29
-79.35
-87.46
-93.05
-94.78
-92.07
-85.39
-76.16
-66.25
-57.42
-50.92
-47.39
-46.81
-48.64
-51.93
-55.39
-57.73
-57.84
-55.12
-49.62
-41.95
-33.15
-24.33
-16.52
-10.51
-6.70
-5.08
-5.22
-6.37
-7.60
-8.11
-7.52
-6.04
-4.40
-3.58
-4.40
-7.11
-11.30
-16.05
-20.28
-23.17
-24.34
-23.81
-21.72
-18.14
-12.99
-6.25
1.86
10.71
19.39
26.96
32.74
36.46
38.22
38.34
37.15
34.94
31.99
28.59
25.01
21.45
17.82
13.87
9.23
3.71
-2.50
-8.86
-14.64
-19.22
-22.29
-23.86
-24.08
-23.01
-20.56
-16.67
-11.46
-5.41
0.74
6.24
10.62
13.86
16.11
17.48
17.76
16.38
12.79
6.85
-0.93
-9.48
-17.54
-24.19
-29.08
-32.33
-34.07
-34.12
-31.85
-26.49
-17.75
-6.17
6.82
19.38
29.90
37.50
42.11
44.19
44.28
42.69
39.55
34.97
29.27
23.00
16.78
11.12
6.37
2.89
1.19
2.00
6.09
13.74
24.45
36.77
48.56
57.63
62.34
62.14
57.59
50.13
41.48
33.16
26.18
20.95
17.50
15.64
15.09
15.48
16.31
16.92
16.63
14.99
11.94
7.95
3.85
0.48
-1.59
-2.30
-2.05
-1.52
-1.30
-1.70
-2.69
-3.95
-5.10
-5.88
-6.27
-6.49
-6.92
-8.05
-10.37
-14.19
-19.57
-26.20
-33.44
-40.49
-46.59
-51.32
-54.69
-57.08
-59.02
-60.95
-63.03
-65.08
-66.71
-67.47
-67.06
-65.42
-62.71
-59.23
-55.26
-50.95
-46.33
-41.36
-36.10
-30.76
-25.66
-21.14
-17.41
-14.49
-12.30
-10.68
-9.55
-8.90
-8.72
-8.99
-9.61
-10.46
-11.35
-12.06
-12.36
-12.08
-11.19
-9.90
-8.60
-7.75
-7.70
-8.50
-9.85
-11.30
-12.44
-13.10
-13.40
-13.65
-14.20
-15.36
-17.39
-20.45
-24.43
-28.75
-32.23
-33.32
-30.49
-22.79
-10.32
5.80
23.75
41.64
57.99
71.96
83.19
91.57
96.99
99.34
98.61
95.07
89.35
82.26
74.61
66.88
59.13
51.05
42.32
32.91
23.39
14.71
7.96
3.80
2.28
2.83
4.64
7.02
9.72
12.90
16.82
21.56
26.77
31.74
35.63
37.76
37.85
36.03
32.67
28.23
23.03
17.24
10.92
4.19
-2.69
-9.30
-15.11
-19.63
-22.54
-23.69
-23.16
-21.20
-18.19
-14.62
-11.01
-7.86
-5.47
-3.92
-3.03
-2.43
-1.74
-0.65
0.93
2.90
4.98
6.82
8.10
8.63
8.38
7.48
6.16
4.55
2.65
0.24
-3.01
-7.40
-13.01
-19.68
-27.01
-34.50
-41.60
-47.85
-52.76
-55.91
-57.03
-56.11
-53.45
-49.63
-45.29
-40.95
-36.82
-32.88
-28.98
-25.07
-21.27
-17.82
-15.00
-12.99
-11.77
-11.18
-10.95
-10.80
-10.51
-9.96
-9.13
-8.10
-6.99
-6.02
-5.41
-5.41
-6.19
-7.83
-10.26
-13.27
-16.59
-19.94
-23.15
-26.12
-28.85
-31.41
-33.88
-36.33
-38.83
-41.46
-44.35
-47.61
-51.32
-55.35
-59.24
-62.13
-62.89
-60.42
-54.05
-43.81
-30.53
-15.51
-0.18
14.35
27.45
38.92
48.76
57.02
63.70
68.88
72.82
76.01
79.11
82.72
87.10
92.10
97.14
101.48
104.42
105.54
104.81
102.51
99.06
94.89
90.38
85.80
81.40
77.29
73.48
69.79
65.88
61.35
55.90
49.46
42.18
34.38
26.44
18.66
11.29
4.56
-1.25
-5.83
-8.87
-10.23
-9.95
-8.35
-5.87
-3.00
-0.19
2.22
3.96
4.86
4.83
3.93
2.34
0.39
-1.55
-3.12
-4.11
-4.47
-4.29
-3.77
-3.12
-2.54
-2.15
-2.06
-2.33
-3.00
-4.08
-5.56
-7.33
-9.24
-11.12
-12.87
-14.47
-15.98
-17.48
-19.04
-20.63
-22.16
-23.55
-24.75
-25.72
-26.42
-26.71
-26.41
-25.31
-23.32
-20.50
-17.12
-13.51
-10.02
-6.91
-4.33
-2.36
-1.04
-0.39
-0.33
-0.75
-1.43
-2.12
-2.58
-2.59
-2.05
-0.92
0.70
2.61
4.55
6.23
7.43
8.04
8.12
7.77
7.13
6.29
5.28
4.11
2.81
1.41
-0.07
-1.68
-3.46
-5.42
-7.50
-9.50
-11.22
-12.45
-13.09
-13.10
-12.47
-11.22
-9.35
-6.95
-4.16
-1.16
1.87
4.74
7.34
9.50
11.01
11.71
11.51
10.50
8.92
7.05
5.02
2.79
0.13
-3.19
-7.21
-11.67
-16.10
-20.03
-23.16
-25.55
-27.53
-29.55
-32.01
-35.14
-38.98
-43.50
-48.63
-54.34
-60.61
-67.42
-74.74
-82.57
-90.79
-99.16
-107.12
-113.77
-118.00
-118.73
-115.25
-107.48
-96.00
-81.90
-66.50
-51.00
-36.23
-22.59
-10.12
1.38
12.10
22.12
31.47
40.11
48.10
55.66
63.06
70.55
78.13
85.51
92.19
97.61
101.39
103.42
103.82
102.69
100.02
95.61
89.23
80.91
71.02
60.28
49.44
39.02
29.16
19.69
10.37
1.11
-7.89
-16.35
-23.99
-30.72
-36.54
-41.41
-45.03
-46.86
-46.35
-43.13
-37.35
-29.60
-20.79
-11.84
-3.36
4.35
11.30
17.55
23.03
27.46
30.41
31.44
30.36
27.26
22.48
16.43
9.37
1.27
-8.10
-18.96
-31.26
-44.54
-57.93
-70.36
-80.82
-88.53
-93.01
-94.13
-92.09
-87.39
-80.89
-73.56
-66.35
-59.90
-54.28
-49.04
-43.30
-36.09
-26.68
-14.77
-0.64
14.93
30.83
45.92
59.26
70.31
79.05
85.90
91.54
96.61
101.40
105.64
108.51
108.82
105.47
97.83
86.11
71.30
55.00
38.88
24.37
12.39
3.35
-2.71
-5.97
-6.78
-5.64
-3.16
-0.06
3.05
5.80
8.11
10.20
12.34
14.75
17.35
19.79
21.42
21.51
19.37
14.59
7.19
-2.29
-12.92
-23.52
-33.02
-40.67
-46.19
-49.69
-51.50
-51.94
-51.18
-49.26
-46.21
-42.14
-37.33
-32.14
-26.92
-21.84
-16.87
-11.82
-6.47
-0.69
5.45
11.79
18.04
23.82
28.62
31.75
32.37
29.74
23.40
13.43
0.50
-14.31
-29.69
-44.45
-57.67
-68.76
-77.48
-83.84
-88.09
-90.54
-91.48
-91.01
-88.94
-84.93
-78.64
-70.03
-59.45
-47.68
-35.67
-24.34
-14.37
-6.16
0.14
4.51
7.08
8.11
8.09
7.71
7.75
8.84
11.24
14.75
18.81
22.71
25.81
27.75
28.50
28.26
27.33
26.01
24.53
23.02
21.52
19.90
17.93
15.26
11.61
6.94
1.62
-3.53
-7.46
-9.13
-7.88
-3.64
3.15
11.66
21.01
30.40
39.29
47.31
54.18
59.76
63.95
66.81
68.55
69.52
70.15
70.75
71.50
72.31
72.97
73.20
72.83
71.83
70.28
68.34
66.15
63.79
61.29
58.69
55.96
53.07
49.91
46.33
42.20
37.49
32.31
26.88
21.52
16.55
12.26
8.91
6.68
5.66
5.81
6.96
8.87
11.20
13.62
15.83
17.54
18.49
18.42
17.15
14.58
10.78
5.97
0.49
-5.29
-11.00
-16.35
-21.13
-25.17
-28.37
-30.64
-31.95
-32.37
-32.07
-31.41
-30.76
-30.48
-30.76
-31.53
-32.58
-33.59
-34.32
-34.76
-35.19
-35.99
-37.59
-40.21
-43.86
-48.25
-52.89
-57.07
-59.94
-60.70
-58.71
-53.75
-46.14
-36.60
-26.12
-15.61
-5.76
3.06
10.71
17.13
22.39
26.58
29.90
32.59
34.89
36.93
38.69
40.07
40.94
41.25
41.07
40.52
39.76
38.81
37.57
35.74
32.91
28.64
22.64
14.84
5.47
-5.01
-15.95
-26.75
-36.96
-46.39
-55.14
-63.49
-71.73
-79.89
-87.59
-94.01
-98.05
-98.65
-95.22
-87.83
-77.24
-64.67
-51.48
-38.84
-27.53
-17.97
-10.29
-4.43
-0.24
2.53
4.21
5.23
6.03
6.98
8.27
9.90
11.66
13.26
14.50
15.30
15.73
15.94
16.07
16.10
15.89
15.19
13.85
11.84
9.31
6.50
3.65
0.82
-2.11
-5.41
-9.40
-14.22
-19.70
-25.27
-30.01
-32.83
-32.74
-29.17
-22.08
-12.04
-0.05
12.66
24.93
35.86
44.91
51.87
56.78
59.81
61.21
61.23
60.16
58.33
56.05
53.71
51.57
49.79
48.38
47.20
46.04
44.68
43.02
41.04
38.78
36.26
33.45
30.27
26.67
22.76
18.76
14.97
11.60
8.63
5.88
3.06
-0.05
-3.43
-6.92
-10.25
-13.22
-15.85
-18.37
-21.13
-24.43
-28.46
-33.16
-38.26
-43.21
-47.23
-49.39
-48.86
-45.12
-38.19
-28.79
-18.07
-7.36
2.23
10.00
15.75
19.61
21.84
22.74
22.59
21.70
20.48
19.35
18.69
18.71
19.41
20.57
21.84
22.87
23.39
23.33
22.73
21.76
20.54
19.14
17.52
15.59
13.35
10.84
8.22
5.62
3.15
0.79
-1.52
-3.87
-6.29
-8.77
-11.26
-13.74
-16.31
-19.11
-22.32
-25.90
-29.56
-32.69
-34.51
-34.32
-31.75
-26.95
-20.50
-13.26
-6.07
0.43
5.95
10.40
13.83
16.27
17.72
18.22
17.91
17.07
16.08
15.32
15.04
15.29
15.92
16.69
17.33
17.67
17.60
17.11
16.19
14.91
13.31
11.47
9.50
7.49
5.53
3.59
1.63
-0.46
-2.73
-5.17
-7.67
-10.09
-12.31
-14.30
-16.11
-17.92
-19.93
-22.32
-25.11
-28.14
-31.01
-33.15
-33.99
-33.05
-30.15
-25.44
-19.36
-12.51
-5.53
1.02
6.75
11.40
14.88
17.21
18.48
18.88
18.61
17.92
17.02
16.10
15.34
14.85
14.69
14.80
15.09
15.40
15.57
15.51
15.20
14.65
13.88
12.89
11.70
10.32
8.83
7.28
5.72
4.15
2.55
0.91
-0.75
-2.38
-3.94
-5.46
-7.05
-8.82
-10.80
-12.93
-15.08
-17.17
-19.18
-21.22
-23.43
-25.89
-28.58
-31.39
-34.15
-36.60
-38.39
-39.04
-37.99
-34.86
-29.59
-22.62
-14.79
-7.12
-0.45
4.76
8.47
10.93
12.47
13.33
13.64
13.48
12.97
12.30
11.64
11.13
10.83
10.74
10.83
11.03
11.29
11.50
11.57
11.41
10.97
10.27
9.37
8.34
7.25
6.10
4.88
3.59
2.24
0.85
-0.54
-1.93
-3.31
-4.72
-6.22
-7.89
-9.79
-11.91
-14.15
-16.32
-18.23
-19.77
-20.97
-22.00
-23.11
-24.51
-26.31
-28.48
-30.92
-33.44
-35.77
-37.56
-38.30
-37.44
-34.54
-29.44
-22.44
-14.25
-5.79
2.01
8.51
13.40
16.69
18.57
19.30
19.19
18.51
17.58
16.67
15.98
15.61
15.56
15.76
16.13
16.62
17.22
17.94
18.78
19.67
20.50
21.12
21.42
21.38
21.09
20.78
20.69
20.99
21.68
22.63
23.62
24.50
25.24
25.92
26.65
27.43
28.14
28.51
28.33
27.50
26.19
24.68
23.32
22.33
21.73
21.41
21.21
21.02
20.75
20.24
19.24
17.48
14.95
12.08
9.78
9.18
11.03
15.28
20.84
25.96
28.75
27.90
22.98
14.43
3.22
-9.50
-22.68
-35.40
-46.87
-56.44
-63.69
-68.54
-71.32
-72.64
-73.16
-73.36
-73.40
-73.18
-72.46
-71.07
-68.96
-66.16
-62.72
-58.56
-53.52
-47.46
-40.32
-32.28
-23.67
-14.91
-6.42
1.49
8.52
14.43
19.05
22.33
24.44
25.64
26.27
26.50
26.26
25.38
23.66
21.16
18.23
15.42
13.27
12.08
11.83
12.14
12.55
12.61
12.07
10.87
9.13
6.98
4.50
1.68
-1.56
-5.22
-9.15
-13.09
-16.73
-19.91
-22.71
-25.38
-28.18
-31.23
-34.34
-37.19
-39.42
-40.86
-41.58
-41.82
-41.90
-42.09
-42.57
-43.36
-44.27
-44.86
-44.49
-42.59
-38.88
-33.69
-27.90
-22.64
-18.79
-16.59
-15.46
-14.32
-12.03
-7.96
-2.08
5.07
12.77
20.32
27.12
32.55
35.91
36.47
33.68
27.48
18.48
7.82
-3.08
-13.00
-21.18
-27.44
-32.03
-35.46
-38.23
-40.72
-43.15
-45.68
-48.39
-51.42
-54.91
-59.00
-63.70
-68.87
-74.16
-79.07
-82.96
-85.22
-85.35
-83.10
-78.51
-71.97
-64.19
-56.04
-48.44
-42.11
-37.44
-34.34
-32.23
-30.18
-27.15
-22.25
-15.04
-5.66
5.25
16.70
27.65
37.27
45.04
50.77
54.58
56.73
57.56
57.38
56.40
54.75
52.43
49.41
45.65
41.11
35.76
29.61
22.70
15.20
7.51
0.24
-5.77
-9.62
-10.56
-8.23
-2.77
5.18
14.66
24.58
33.96
42.03
48.29
52.45
54.47
54.56
53.18
51.00
48.73
46.91
45.78
45.24
45.00
44.79
44.57
44.49
44.78
45.50
46.39
46.90
46.37
44.34
40.71
35.82
30.23
24.56
19.23
14.48
10.40
6.96
4.08
1.59
-0.77
-3.20
-5.65
-7.65
-8.28
-6.42
-1.09
8.08
20.68
35.54
51.11
65.86
78.75
89.43
98.31
106.41
115.08
125.53
138.35
153.12
168.26
181.24
189.20
189.67
181.32
164.42
140.81
113.42
85.51
59.82
37.89
19.82
4.50
-9.66
-23.91
-38.48
-52.38
-63.84
-71.11
-73.33
-70.98
-65.77
-60.03
-55.90
-54.72
-56.77
-61.57
-68.18
-75.65
-83.08
-89.65
-94.53
-96.90
-96.19
-92.33
-85.88
-77.94
-69.81
-62.62
-57.03
-53.19
-50.84
-49.48
-48.54
-47.44
-45.56
-42.33
-37.34
-30.52
-22.30
-13.60
-5.67
0.17
2.89
1.91
-2.85
-10.98
-21.65
-33.73
-45.92
-56.96
-65.87
-72.29
-76.50
-79.31
-81.68
-84.34
-87.51
-90.91
-93.93
-96.00
-96.69
-95.79
-93.12
-88.41
-81.20
-70.97
-57.32
-40.09
-19.47
3.97
29.38
55.70
81.79
106.66
129.60
150.35
169.07
186.10
201.54
214.86
224.77
229.54
227.67
218.52
202.70
181.99
158.74
135.24
113.18
93.49
76.48
62.03
49.79
39.20
29.58
20.25
10.74
0.98
-8.67
-17.60
-25.19
-31.07
-35.23
-38.01
-40.00
-41.87
-44.24
-47.52
-51.83
-56.91
-62.30
-67.43
-71.88
-75.60
-78.86
-82.16
-85.85
-89.93
-93.82
-96.50
-96.80
-93.76
-86.99
-76.80
-64.11
-50.12
-36.06
-22.89
-11.35
-1.91
5.15
9.72
11.95
12.28
11.34
9.78
8.10
6.49
4.82
2.92
0.68
-1.72
-3.90
-5.47
-6.23
-6.24
-5.78
-5.11
-4.36
-3.45
-2.17
-0.38
1.95
4.60
7.24
9.39
10.50
10.00
7.47
2.80
-3.57
-10.73
-17.51
-22.91
-26.54
-28.70
-30.24
-32.07
-34.73
-38.15
-41.78
-44.87
-46.81
-47.27
-46.21
-43.75
-40.02
-35.15
-29.30
-22.71
-15.74
-8.86
-2.59
2.57
6.32
8.58
9.53
9.58
9.19
8.76
8.51
8.53
8.83
9.43
10.42
11.85
13.63
15.49
17.05
17.95
18.02
17.36
16.26
15.16
14.45
14.46
15.33
17.06
19.47
22.25
25.05
27.55
29.53
30.94
31.82
32.26
32.35
32.09
31.50
30.58
29.33
27.83
26.18
24.57
23.32
22.84
23.54
25.64
29.07
33.39
37.90
41.83
44.52
45.50
44.57
41.71
37.11
31.18
24.50
17.77
11.62
6.45
2.36
-0.86
-3.49
-5.72
-7.50
-8.58
-8.66
-7.57
-5.45
-2.75
-0.08
1.99
3.10
3.22
2.55
1.45
0.23
-0.88
-1.85
-2.78
-3.94
-5.72
-8.58
-12.95
-19.05
-26.85
-36.00
-46.00
-56.25
-66.24
-75.52
-83.75
-90.68
-96.09
-99.84
-101.84
-102.08
-100.54
-97.24
-92.15
-85.33
-76.99
-67.45
-57.24
-46.95
-37.19
-28.48
-21.17
-15.39
-11.13
-8.25
-6.53
-5.68
-5.42
-5.38
-5.25
-4.82
-4.02
-2.95
-1.79
-0.68
0.28
1.15
2.01
2.90
3.80
4.60
5.18
5.50
5.64
5.72
5.82
5.97
6.06
5.92
5.41
4.43
3.01
1.27
-0.62
-2.47
-4.15
-5.66
-7.10
-8.63
-10.45
-12.71
-15.47
-18.73
-22.33
-25.99
-29.28
-31.69
-32.73
-32.12
-29.86
-26.22
-21.60
-16.32
-10.49
-4.10
2.85
10.17
17.43
24.11
29.81
34.37
37.96
40.86
43.30
45.30
46.71
47.37
47.23
46.46
45.37
44.33
43.59
43.22
43.15
43.20
43.20
42.98
42.41
41.34
39.62
37.18
34.06
30.47
26.67
22.93
19.41
16.15
13.07
10.14
7.32
4.63
2.05
-0.51
-3.19
-6.09
-9.28
-12.74
-16.42
-20.29
-24.27
-28.21
-31.85
-34.74
-36.36
-36.24
-34.08
-29.88
-23.91
-16.69
-8.83
-0.93
6.49
13.05
18.51
22.74
25.78
27.75
28.83
29.22
29.10
28.59
27.81
26.88
25.99
25.36
25.17
25.49
26.22
27.14
27.98
28.52
28.65
28.37
27.78
27.04
26.32
25.80
25.52
25.32
24.82
23.50
20.92
16.86
11.49
5.22
-1.39
-7.94
-14.24
-20.30
-26.15
-31.77
-36.95
-41.44
-45.10
-47.95
-50.18
-52.06
-53.71
-55.10
-55.96
-55.91
-54.66
-52.09
-48.30
-43.58
-38.26
-32.60
-26.79
-20.94
-15.15
-9.62
-4.59
-0.34
2.93
5.18
6.55
7.38
8.02
8.76
9.72
10.88
12.11
13.28
14.34
15.26
16.07
16.75
17.22
17.46
17.42
17.15
16.68
16.02
15.13
13.94
12.41
10.58
8.54
6.46
4.47
2.62
0.84
-1.05
-3.23
-5.83
-8.86
-12.16
-15.44
-18.44
-20.98
-23.11
-25.09
-27.37
-30.43
-34.61
-40.01
-46.34
-52.96
-58.87
-62.88
-63.87
-61.04
-54.22
-43.95
-31.45
-18.19
-5.60
5.33
14.14
20.83
25.61
28.75
30.49
31.06
30.81
30.18
29.63
29.50
29.90
30.70
31.65
32.53
33.18
33.57
33.74
33.72
33.52
33.05
32.26
31.10
29.55
27.65
25.48
23.14
20.75
18.41
16.17
14.02
11.88
9.66
7.26
4.63
1.69
-1.60
-5.28
-9.29
-13.50
-17.73
-21.76
-25.52
-29.13
-32.90
-37.20
-42.34
-48.36
-54.96
-61.44
-66.76
-69.75
-69.42
-65.23
-57.33
-46.50
-34.01
-21.22
-9.29
1.05
9.44
15.81
20.19
22.68
23.47
22.97
21.76
20.53
19.83
19.97
20.94
22.50
24.27
25.92
27.30
28.42
29.40
30.39
31.38
32.28
32.85
32.86
32.19
30.87
29.09
27.05
24.90
22.64
20.15
17.28
13.95
10.22
6.27
2.39
-1.20
-4.39
-7.27
-10.10
-13.22
-16.95
-21.45
-26.78
-32.76
-38.99
-44.75
-49.11
-50.98
-49.44
-44.10
-35.25
-23.91
-11.49
0.61
11.38
20.34
27.46
32.90
36.80
39.21
40.15
39.78
38.45
36.71
35.13
34.12
33.86
34.28
35.16
36.23
37.33
38.34
39.17
39.77
40.01
39.82
39.14
38.00
36.46
34.63
32.58
30.35
27.90
25.19
22.21
18.99
15.65
12.31
9.09
6.02
3.07
0.14
-2.87
-6.01
-9.26
-12.53
-15.74
-18.84
-21.85
-24.90
-28.16
-31.86
-36.15
-41.07
-46.35
-51.34
-55.04
-56.30
-54.19
-48.33
-39.12
-27.68
-15.52
-4.07
5.68
13.36
19.08
23.15
25.85
27.31
27.61
26.89
25.47
23.82
22.42
21.57
21.36
21.60
22.01
22.34
22.48
22.44
22.31
22.13
21.81
21.21
20.18
18.65
16.74
14.65
12.60
10.72
9.01
7.32
5.50
3.51
1.40
-0.64
-2.42
-3.88
-5.09
-6.25
-7.54
-9.14
-11.06
-13.23
-15.55
-17.89
-20.24
-22.66
-25.34
-28.45
-32.10
-36.18
-40.31
-43.84
-45.97
-45.96
-43.35
-38.10
-30.65
-21.82
-12.55
-3.71
4.08
10.51
15.50
19.13
21.57
22.97
23.51
23.44
23.03
22.61
22.49
22.82
23.64
24.79
26.05
27.18
28.04
28.60
28.94
29.12
29.15
28.96
28.43
27.48
26.14
24.54
22.85
21.20
19.61
18.01
16.30
14.45
12.47
10.45
8.45
6.44
4.31
1.96
-0.64
-3.39
-6.07
-8.47
-10.45
-12.05
-13.46
-14.99
-17.04
-19.90
-23.69
-28.22
-32.94
-36.98
-39.37
-39.35
-36.53
-31.14
-23.90
-15.77
-7.67
-0.28
6.09
11.36
15.56
18.74
20.93
22.17
22.63
22.56
22.27
22.06
22.10
22.47
23.13
24.06
25.25
26.66
28.21
29.75
31.11
32.13
32.77
33.15
33.47
33.91
34.58
35.44
36.33
37.09
37.62
37.94
38.14
38.32
38.53
38.71
38.72
38.36
37.44
35.76
33.18
29.61
25.00
19.44
13.04
5.96
-1.62
-9.57
-17.75
-26.01
-34.12
-41.76
-48.60
-54.40
-59.06
-62.74
-65.84
-68.85
-72.16
-75.87
-79.63
-82.64
-83.94
-82.70
-78.59
-71.89
-63.42
-54.18
-45.00
-36.29
-28.10
-20.35
-13.07
-6.56
-1.29
2.40
4.47
5.33
5.76
6.62
8.63
12.12
16.92
22.47
27.93
32.51
35.69
37.37
37.87
37.75
37.54
37.57
37.85
38.22
38.55
38.90
39.61
41.14
43.91
48.04
53.27
58.92
64.07
67.69
68.97
67.40
62.94
55.93
47.07
37.19
27.12
17.51
8.78
1.11
-5.45
-10.90
-15.31
-18.78
-21.52
-23.88
-26.20
-28.71
-31.41
-34.15
-36.66
-38.81
-40.71
-42.70
-45.25
-48.69
-53.10
-58.13
-63.11
-67.17
-69.38
-68.98
-65.50
-58.94
-49.75
-38.71
-26.80
-14.93
-3.77
6.27
15.03
22.50
28.67
33.58
37.24
39.81
41.53
42.68
43.41
43.62
42.85
40.44
35.76
28.51
19.00
8.03
-3.22
-13.61
-22.35
-29.22
-34.53
-38.92
-43.01
-47.20
-51.53
-55.80
-59.72
-63.06
-65.78
-67.91
-69.50
-70.46
-70.59
-69.71
-67.72
-64.75
-61.13
-57.23
-53.37
-49.70
-46.26
-42.98
-39.82
-36.81
-34.07
-31.75
-30.09
-29.32
-29.63
-31.06
-33.41
-36.12
-38.36
-39.15
-37.68
-33.50
-26.73
-18.02
-8.30
1.43
10.35
17.97
24.08
28.72
32.07
34.40
35.97
37.05
37.88
38.65
39.46
40.36
41.31
42.24
43.10
43.86
44.57
45.30
46.13
47.05
47.95
48.54
48.45
47.26
44.65
40.47
34.81
27.99
20.50
12.90
5.67
-0.85
-6.50
-11.28
-15.26
-18.51
-21.07
-23.01
-24.42
-25.50
-26.43
-27.43
-28.58
-29.84
-31.11
-32.26
-33.22
-34.03
-34.83
-35.83
-37.26
-39.25
-41.81
-44.74
-47.66
-50.07
-51.47
-51.41
-49.62
-46.07
-40.89
-34.42
-27.06
-19.24
-11.37
-3.85
2.97
8.80
13.41
16.73
18.86
20.07
20.73
21.23
21.82
22.61
23.55
24.52
25.39
26.07
26.50
26.66
26.52
26.10
25.46
24.65
23.74
22.75
21.64
20.35
18.85
17.12
15.23
13.24
11.22
9.16
7.03
4.82
2.55
0.30
-1.91
-4.09
-6.30
-8.63
-11.13
-13.77
-16.51
-19.30
-22.16
-25.20
-28.51
-32.10
-35.79
-39.26
-42.03
-43.62
-43.65
-41.89
-38.37
-33.27
-26.93
-19.72
-12.04
-4.27
3.18
9.83
15.29
19.27
21.76
23.01
23.46
23.59
23.74
24.05
24.52
25.09
25.76
26.60
27.61
28.73
29.78
30.55
30.91
30.82
30.41
29.78
29.01
28.07
26.86
25.28
23.35
21.19
19.00
16.92
14.98
13.09
11.08
8.81
6.30
3.72
1.29
-0.86
-2.78
-4.73
-7.07
-10.09
-13.87
-18.23
-22.78
-27.12
-30.95
-34.25
-37.22
-40.21
-43.59
-47.56
-52.13
-57.11
-62.11
-66.51
-69.51
-70.22
-67.83
-61.87
-52.49
-40.47
-27.07
-13.68
-1.43
9.03
17.49
24.07
28.99
32.48
34.74
36.01
36.60
36.86
37.07
37.44
38.03
38.82
39.76
40.76
41.76
42.65
43.34
43.75
43.81
43.48
42.73
41.56
39.96
37.94
35.50
32.70
29.66
26.53
23.50
20.70
18.12
15.68
13.16
10.35
7.07
3.30
-0.83
-5.09
-9.21
-12.99
-16.40
-19.60
-22.85
-26.49
-30.79
-35.82
-41.38
-46.97
-51.77
-54.81
-55.13
-52.11
-45.66
-36.30
-25.04
-13.14
-1.75
8.34
16.78
23.59
28.96
33.12
36.19
38.26
39.46
40.03
40.31
40.63
41.20
42.02
42.89
43.61
44.06
44.30
44.51
44.80
45.15
45.30
44.95
43.90
42.14
39.87
37.39
34.93
32.54
30.18
27.73
25.14
22.42
19.65
16.93
14.31
11.79
9.31
6.80
4.16
1.28
-1.89
-5.34
-8.93
-12.50
-15.88
-19.01
-21.98
-25.07
-28.62
-32.90
-38.00
-43.59
-48.97
-53.13
-54.95
-53.57
-48.67
-40.64
-30.44
-19.34
-8.55
1.10
9.22
15.83
21.09
25.16
28.12
30.01
30.93
31.13
30.90
30.56
30.33
30.29
30.43
30.70
31.06
31.46
31.87
32.21
32.37
32.25
31.78
30.98
29.97
28.85
27.75
26.69
25.67
24.60
23.42
22.10
20.64
19.10
17.56
16.10
14.73
13.47
12.27
11.12
10.00
8.91
7.87
6.87
5.87
4.75
3.35
1.53
-0.76
-3.49
-6.50
-9.54
-12.26
-14.29
-15.24
-14.82
-12.91
-9.61
-5.24
-0.30
4.71
9.39
13.46
16.79
19.22
20.52
20.44
18.84
15.83
11.84
7.49
3.45
0.16
-2.27
-3.98
-5.24
-6.26
-7.05
-7.50
-7.49
-6.96
-6.06
-5.04
-4.22
-3.85
-4.02
-4.66
-5.57
-6.51
-7.34
-8.00
-8.59
-9.21
-9.97
-10.87
-11.87
-12.86
-13.79
-14.62
-15.38
-16.14
-16.93
-17.82
-18.86
-20.11
-21.63
-23.43
-25.43
-27.52
-29.57
-31.50
-33.37
-35.37
-37.71
-40.57
-43.99
-47.76
-51.44
-54.39
-55.83
-55.03
-51.52
-45.26
-36.76
-26.93
-16.91
-7.71
0.04
6.14
10.72
14.10
16.51
18.11
18.93
19.05
18.62
17.91
17.20
16.76
16.69
16.98
17.50
18.07
18.54
18.84
18.93
18.79
18.39
17.66
16.56
15.11
13.41
11.66
10.07
8.75
7.68
6.67
5.51
4.02
2.19
0.18
-1.79
-3.50
-4.89
-6.10
-7.36
-8.96
-11.08
-13.77
-16.91
-20.26
-23.55
-26.58
-29.24
-31.58
-33.79
-36.13
-38.84
-42.03
-45.57
-48.98
-51.51
-52.28
-50.54
-45.92
-38.64
-29.45
-19.44
-9.72
-1.07
6.12
11.86
16.33
19.69
22.03
23.35
23.70
23.27
22.38
21.40
20.65
20.33
20.46
20.96
21.69
22.54
23.38
24.10
24.58
24.72
24.41
23.63
22.39
20.72
18.75
16.62
14.51
12.61
11.00
9.65
8.39
6.97
5.22
3.13
0.86
-1.36
-3.43
-5.45
-7.70
-10.47
-13.88
-17.81
-21.88
-25.72
-29.04
-31.76
-34.01
-35.98
-37.90
-39.93
-42.28
-45.08
-48.38
-52.03
-55.54
-58.13
-58.82
-56.73
-51.33
-42.73
-31.67
-19.36
-7.12
3.95
13.21
20.48
25.97
29.99
32.82
34.62
35.50
35.58
35.10
34.37
33.74
33.44
33.52
33.88
34.33
34.71
34.98
35.21
35.50
35.84
36.14
36.23
35.95
35.23
34.05
32.47
30.55
28.38
26.07
23.82
21.84
20.27
19.15
18.26
17.26
15.80
13.58
10.51
6.70
2.40
-2.06
-6.38
-10.29
-13.68
-16.50
-18.76
-20.51
-21.75
-22.52
-22.95
-23.20
-23.59
-24.42
-25.94
-28.21
-31.03
-33.93
-36.19
-36.94
-35.42
-31.16
-24.26
-15.38
-5.63
3.78
11.86
18.14
22.63
25.72
27.80
29.10
29.59
29.13
27.63
25.17
21.97
18.30
14.35
10.19
5.85
1.35
-3.24
-7.82
-12.35
-16.93
-21.77
-27.04
-32.84
-39.01
-45.28
-51.29
-56.77
-61.58
-65.75
-69.44
-72.83
-76.10
-79.27
-82.18
-84.58
-86.23
-87.22
-88.06
-89.66
-93.03
-98.81
-106.92
-116.45
-125.86
-133.44
-137.87
-138.51
-135.56
-129.81
-122.41
-114.46
-106.81
-99.89
-93.67
-87.65
-81.03
-72.81
-62.10
-48.37
-31.67
-12.71
7.31
26.97
45.00
60.53
73.16
82.94
90.15
95.23
98.65
100.91
102.49
103.78
105.01
106.21
107.24
107.87
107.95
107.43
106.45
105.23
103.97
102.76
101.48
99.91
97.79
94.94
91.41
87.43
83.34
79.47
75.99
72.86
69.82
66.56
62.82
58.52
53.75
48.76
43.84
39.24
35.15
31.62
28.59
25.81
22.88
19.33
14.81
9.22
2.81
-3.84
-10.09
-15.39
-19.56
-22.73
-25.24
-27.40
-29.31
-30.71
-31.05
-29.62
-25.74
-19.07
-9.68
1.95
15.07
28.90
42.83
56.47
69.54
81.81
92.99
102.82
111.17
118.12
123.91
128.70
132.40
134.49
134.12
130.35
122.39
109.78
92.46
70.76
45.37
17.43
-11.47
-39.31
-63.98
-83.71
-97.62
-106.02
-110.37
-112.82
-115.47
-119.77
-126.12
-134.00
-142.28
-149.70
-155.08
-157.53
-156.37
-151.20
-142.02
-129.37
-114.41
-98.69
-83.83
-71.07
-61.04
-53.69
-48.51
-44.81
-41.96
-39.44
-36.73
-33.26
-28.37
-21.52
-12.48
-1.55
10.47
22.50
33.54
42.89
50.29
55.78
59.53
61.68
62.35
61.71
60.06
57.90
55.73
53.99
52.86
52.31
52.11
52.01
51.78
51.28
50.46
49.33
47.91
46.28
44.53
42.74
40.97
39.22
37.42
35.48
33.29
30.79
27.97
24.86
21.58
18.31
15.27
12.64
10.50
8.74
7.09
5.25
2.99
0.26
-2.81
-5.97
-9.00
-11.78
-14.37
-16.95
-19.78
-23.09
-26.93
-31.15
-35.25
-38.53
-40.16
-39.43
-35.97
-29.90
-21.80
-12.55
-3.11
5.72
13.44
19.85
24.93
28.76
31.46
33.15
33.99
34.26
34.29
34.39
34.72
35.28
35.87
36.22
36.12
35.52
34.53
33.40
32.34
31.43
30.63
29.73
28.54
26.95
24.99
22.79
20.55
18.41
16.47
14.68
12.94
11.10
8.93
6.21
2.73
-1.59
-6.72
-12.43
-18.43
-24.43
-30.27
-35.89
-41.34
-46.61
-51.57
-55.96
-59.49
-61.97
-63.40
-63.92
-63.69
-62.76
-60.99
-58.16
-54.11
-48.84
-42.59
-35.75
-28.74
-21.95
-15.63
-9.97
-5.07
-0.94
2.53
5.51
8.23
10.90
13.63
16.44
19.22
21.81
23.99
25.60
26.59
27.00
27.02
26.83
26.50
25.93
24.86
23.05
20.42
17.15
13.66
10.41
7.70
5.52
3.56
1.39
-1.31
-4.59
-8.23
-11.82
-15.00
-17.62
-19.78
-21.83
-24.17
-27.16
-31.00
-35.65
-40.80
-45.84
-49.95
-52.17
-51.71
-48.15
-41.62
-32.79
-22.73
-12.57
-3.25
4.66
10.97
15.72
19.04
21.08
21.97
21.90
21.14
20.06
18.99
18.18
17.75
17.68
17.88
18.28
18.78
19.29
19.70
19.89
19.78
19.35
18.64
17.70
16.52
15.07
13.33
11.38
9.38
7.51
5.84
4.31
2.68
0.73
-1.65
-4.38
-7.25
-10.06
-12.69
-15.17
-17.57
-19.96
-22.38
-24.90
-27.64
-30.83
-34.59
-38.85
-43.13
-46.62
-48.32
-47.39
-43.42
-36.53
-27.41
-17.01
-6.37
3.70
12.66
20.32
26.69
31.88
35.95
38.89
40.65
41.22
40.71
39.43
37.82
36.37
35.47
35.40
36.25
37.98
40.46
43.48
46.79
50.07
53.00
55.31
56.92
57.93
58.61
59.24
59.96
60.68
61.10
60.82
59.57
57.32
54.38
51.26
48.49
46.47
45.29
44.77
44.47
43.90
42.52
39.93
35.86
30.20
23.11
15.03
6.63
-1.35
-8.25
-13.75
-17.88
-20.90
-23.07
-24.47
-25.00
-24.52
-23.09
-21.10
-19.15
-17.86
-17.54
-18.11
-19.13
-20.05
-20.44
-20.15
-19.34
-18.29
-17.26
-16.35
-15.41
-14.22
-12.58
-10.55
-8.52
-7.19
-7.31
-9.41
-13.55
-19.32
-26.02
-32.98
-39.82
-46.49
-53.10
-59.65
-65.89
-71.29
-75.28
-77.53
-78.13
-77.56
-76.55
-75.79
-75.77
-76.65
-78.33
-80.52
-82.78
-84.69
-85.78
-85.70
-84.21
-81.20
-76.74
-71.03
-64.42
-57.35
-50.33
-43.88
-38.44
-34.32
-31.64
-30.32
-30.18
-30.87
-32.05
-33.28
-34.19
-34.48
-34.03
-32.94
-31.51
-30.14
-29.16
-28.73
-28.80
-29.21
-29.76
-30.40
-31.22
-32.43
-34.21
-36.56
-39.27
-42.00
-44.42
-46.37
-47.95
-49.41
-51.01
-52.88
-54.92
-56.97
-58.79
-60.17
-60.79
-60.13
-57.44
-51.88
-42.83
-30.23
-14.71
2.52
19.95
36.22
50.35
61.92
70.95
77.73
82.63
85.92
87.76
88.23
87.44
85.58
82.92
79.78
76.46
73.08
69.63
66.03
62.21
58.25
54.34
50.73
47.58
44.86
42.32
39.63
36.45
32.64
28.32
23.75
19.28
15.11
11.26
7.57
3.76
-0.48
-5.40
-11.20
-17.92
-25.30
-32.73
-39.23
-43.62
-44.82
-42.16
-35.63
-25.90
-14.16
-1.79
10.01
20.36
28.84
35.32
39.87
42.62
43.77
43.59
42.50
41.04
39.75
38.96
38.73
38.80
38.76
38.31
37.40
36.27
35.32
34.81
34.75
34.77
34.34
32.98
30.44
26.92
22.91
19.11
16.17
14.47
14.04
14.49
15.19
15.37
14.37
11.74
7.40
1.57
-5.15
-11.98
-18.07
-22.85
-26.25
-28.82
-31.43
-34.80
-38.87
-42.70
-44.70
-43.47
-38.45
-30.27
-20.43
-10.56
-1.71
5.89
12.55
18.50
23.53
27.02
28.44
27.82
26.03
24.43
24.33
26.38
30.29
35.02
39.31
42.23
43.52
43.59
43.18
42.90
42.96
43.15
42.96
41.89
39.75
36.65
32.98
29.18
25.64
22.58
20.09
18.02
16.01
13.34
9.04
2.13
-7.99
-21.08
-36.01
-51.03
-64.35
-74.75
-81.82
-85.84
-87.24
-86.21
-82.52
-75.77
-65.86
-53.31
-39.26
-25.11
-12.01
-0.53
9.37
18.12
26.15
33.58
40.16
45.44
49.07
51.01
51.62
51.50
51.26
51.27
51.58
52.00
52.27
52.24
51.94
51.51
51.10
50.74
50.32
49.65
48.50
46.73
44.29
41.31
38.01
34.69
31.59
28.77
26.08
23.22
19.93
16.14
12.09
8.21
4.92
2.41
0.55
-1.04
-2.83
-5.14
-8.04
-11.40
-14.95
-18.45
-21.76
-24.86
-27.90
-31.06
-34.58
-38.59
-43.11
-47.87
-52.37
-55.91
-57.73
-57.22
-54.11
-48.57
-41.19
-32.84
-24.43
-16.71
-10.15
-4.93
-1.13
1.26
2.32
2.32
1.81
1.54
2.23
4.33
7.82
12.20
16.74
20.73
23.78
25.76
26.77
27.00
26.58
25.66
24.42
23.07
21.83
20.90
20.30
19.94
19.62
19.15
18.40
17.33
15.97
14.44
12.89
11.43
10.13
8.94
7.72
6.32
4.60
2.55
0.28
-2.01
-4.11
-5.92
-7.49
-9.01
-10.68
-12.63
-14.81
-17.04
-19.11
-20.88
-22.41
-23.93
-25.77
-28.13
-30.99
-33.99
-36.53
-37.92
-37.56
-35.17
-30.84
-24.97
-18.23
-11.33
-4.92
0.54
4.84
8.00
10.18
11.58
12.38
12.71
12.65
12.30
11.79
11.28
10.90
10.73
10.73
10.84
10.96
11.07
11.15
11.24
11.28
11.20
10.89
10.28
9.37
8.23
6.93
5.57
4.17
2.73
1.21
-0.35
-1.90
-3.31
-4.42
-5.14
-5.48
-5.57
-5.65
-5.97
-6.66
-7.68
-8.84
-9.88
-10.58
-10.91
-11.02
-11.18
-11.72
-12.82
-14.49
-16.43
-18.13
-18.88
-17.97
-14.93
-9.59
-2.21
6.64
16.20
25.76
34.70
42.56
49.02
53.83
56.89
58.26
58.25
57.41
56.47
56.19
57.15
59.63
63.42
67.93
72.34
75.85
78.02
78.95
79.20
79.63
81.00
83.64
87.23
90.78
92.87
92.02
87.14
77.88
64.77
49.04
32.23
15.74
0.45
-13.38
-25.97
-37.73
-49.01
-59.94
-70.47
-80.40
-89.50
-97.53
-104.29
-109.63
-113.53
-116.17
-117.90
-119.18
-120.43
-121.84
-123.25
-124.14
-123.76
-121.39
-116.57
-109.34
-100.19
-90.01
-79.73
-70.13
-61.66
-54.43
-48.30
-43.03
-38.40
-34.23
-30.39
-26.84
-23.54
-20.52
-17.79
-15.34
-13.07
-10.85
-8.47
-5.79
-2.75
0.62
4.25
8.06
11.97
15.92
19.81
23.49
26.74
29.32
30.99
31.55
30.90
29.00
25.90
21.74
16.73
11.12
5.20
-0.79
-6.71
-12.53
-18.34
-24.23
-30.25
-36.36
-42.45
-48.48
-54.49
-60.66
-67.21
-74.22
-81.49
-88.47
-94.43
-98.62
-100.61
-100.38
-98.40
-95.36
-92.01
-88.83
-85.97
-83.24
-80.29
-76.78
-72.52
-67.51
-61.83
-55.65
-49.12
-42.38
-35.59
-28.86
-22.17
-15.37
-8.18
-0.28
8.50
18.02
27.82
37.22
45.57
52.41
57.62
61.36
63.99
65.88
67.31
68.41
69.16
69.45
69.16
68.20
66.65
64.69
62.61
60.71
59.17
58.01
57.10
56.17
54.97
53.36
51.35
49.21
47.30
46.00
45.53
45.78
46.29
46.40
45.52
43.53
41.01
39.22
39.87
44.50
53.93
67.79
84.51
101.66
116.81
128.23
135.49
139.48
142.08
145.49
151.44
160.48
171.50
181.75
187.54
185.27
172.82
150.27
119.99
85.78
51.62
20.50
-5.99
-27.52
-44.44
-57.26
-66.45
-72.41
-75.62
-76.59
-75.78
-73.55
-70.24
-66.30
-62.26
-58.63
-55.72
-53.50
-51.74
-50.17
-48.65
-47.21
-45.92
-44.86
-44.20
-44.36
-46.12
-50.41
-57.79
-68.04
-79.83
-91.12
-99.83
-104.63
-105.34
-102.77
-98.14
-92.50
-86.45
-80.21
-73.91
-67.79
-62.09
-56.93
-52.11
-47.24
-41.92
-36.04
-29.87
-23.87
-18.54
-14.11
-10.58
-7.71
-5.28
-3.22
-1.64
-0.72
-0.62
-1.35
-2.79
-4.80
-7.29
-10.27
-13.79
-17.73
-21.82
-25.64
-28.88
-31.51
-33.80
-36.21
-38.98
-41.93
-44.36
-45.33
-44.07
-40.31
-34.42
-27.34
-20.19
-13.99
-9.35
-6.41
-4.93
-4.38
-4.19
-3.94
-3.44
-2.84
-2.48
-2.77
-3.99
-6.12
-8.85
-11.66
-14.05
-15.72
-16.65
-17.02
-17.00
-16.65
-15.81
-14.25
-11.83
-8.59
-4.86
-1.07
2.35
5.12
7.20
8.74
9.96
11.05
12.13
13.20
14.22
15.20
16.25
17.54
19.19
21.17
23.24
25.00
26.05
26.20
25.52
24.29
22.87
21.53
20.31
19.09
17.68
15.90
13.70
11.12
8.31
5.44
2.63
-0.02
-2.53
-5.01
-7.69
-10.84
-14.66
-19.19
-24.20
-29.12
-33.16
-35.44
-35.24
-32.22
-26.54
-18.81
-9.95
-0.87
7.66
15.19
21.52
26.58
30.35
32.82
34.04
34.19
33.56
32.47
31.23
30.01
28.83
27.66
26.51
25.48
24.75
24.53
24.93
25.93
27.33
28.77
29.82
30.16
29.67
28.47
26.86
25.23
23.79
22.51
21.14
19.30
16.78
13.57
9.95
6.29
2.87
-0.32
-3.50
-7.06
-11.34
-16.48
-22.34
-28.42
-33.93
-37.89
-39.43
-37.98
-33.49
-26.49
-17.91
-8.86
-0.26
7.28
13.47
18.28
21.74
23.93
24.97
25.06
24.48
23.55
22.56
21.72
21.13
20.80
20.71
20.83
21.12
21.59
22.23
23.02
23.90
24.73
25.29
25.38
24.84
23.69
22.07
20.22
18.33
16.48
14.60
12.53
10.20
7.65
5.11
2.88
1.21
0.18
-0.38
-0.80
-1.48
-2.76
-4.86
-7.75
-11.18
-14.59
-17.17
-18.03
-16.45
-12.12
-5.38
2.91
11.58
19.53
26.07
31.04
34.65
37.25
39.06
39.99
39.79
38.24
35.32
31.31
26.74
22.16
18.01
14.53
11.82
9.89
8.78
8.53
9.06
10.14
11.36
12.25
12.41
11.58
9.78
7.22
4.26
1.35
-1.16
-3.12
-4.62
-6.02
-7.76
-10.24
-13.61
-17.71
-22.17
-26.51
-30.38
-33.63
-36.39
-38.92
-41.56
-44.54
-47.87
-51.26
-54.16
-55.87
-55.79
-53.65
-49.63
-44.32
-38.49
-32.79
-27.59
-22.97
-18.93
-15.57
-13.23
-12.38
-13.37
-16.18
-20.30
-24.88
-29.02
-32.05
-33.73
-34.22
-33.95
-33.39
-32.81
-32.23
-31.41
-30.06
-28.00
-25.28
-22.27
-19.46
-17.30
-15.98
-15.41
-15.30
-15.43
-15.75
-16.44
-17.70
-19.61
-21.96
-24.34
-26.27
-27.52
-28.11
-28.35
-28.71
-29.60
-31.30
-33.86
-37.11
-40.60
-43.61
-45.22
-44.42
-40.39
-32.71
-21.54
-7.65
7.76
23.30
37.73
50.17
60.22
67.85
73.28
76.70
78.25
77.99
76.07
72.84
68.89
64.89
61.44
58.88
57.29
56.55
56.52
57.16
58.45
60.35
62.67
65.04
67.08
68.48
69.10
69.01
68.43
67.55
66.55
65.46
64.18
62.54
60.35
57.45
53.81
49.56
44.95
40.33
36.03
32.29
29.18
26.58
24.18
21.54
18.21
13.95
8.82
3.32
-1.77
-5.63
-7.65
-7.62
-5.78
-2.68
1.00
4.61
7.61
9.68
10.65
10.55
9.54
7.87
5.75
3.32
0.60
-2.42
-5.77
-9.41
-13.21
-17.01
-20.68
-24.09
-27.19
-30.05
-32.82
-35.73
-38.98
-42.62
-46.43
-49.97
-52.60
-53.69
-52.85
-50.00
-45.49
-39.99
-34.35
-29.41
-25.82
-23.92
-23.68
-24.77
-26.63
-28.71
-30.55
-31.92
-32.82
-33.41
-33.79
-33.93
-33.55
-32.21
-29.43
-24.94
-18.81
-11.38
-3.28
4.88
12.51
19.21
24.71
28.91
31.82
33.64
34.68
35.34
35.96
36.75
37.77
38.95
40.13
41.15
41.91
42.36
42.48
42.30
41.86
41.21
40.41
39.47
38.34
36.92
35.07
32.64
29.58
25.92
21.79
17.43
13.03
8.70
4.43
0.12
-4.30
-8.84
-13.41
-17.79
-21.77
-25.21
-28.10
-30.59
-32.86
-35.16
-37.64
-40.41
-43.39
-46.39
-48.99
-50.62
-50.66
-48.58
-44.11
-37.40
-29.02
-19.82
-10.70
-2.41
4.67
10.49
15.29
19.34
22.78
25.59
27.60
28.63
28.66
27.89
26.68
25.45
24.53
24.07
24.05
24.36
24.84
25.31
25.65
25.72
25.39
24.56
23.17
21.21
18.78
16.09
13.38
10.92
8.89
7.28
5.95
4.59
2.84
0.44
-2.70
-6.48
-10.56
-14.55
-18.06
-20.85
-22.95
-24.59
-26.18
-28.17
-30.87
-34.39
-38.50
-42.72
-46.25
-48.21
-47.81
-44.56
-38.48
-30.09
-20.29
-10.12
-0.48
8.00
14.94
20.22
23.85
25.91
26.57
26.06
24.67
22.69
20.45
18.26
16.45
15.31
15.00
15.52
16.65
18.08
19.55
20.90
22.14
23.32
24.43
25.36
25.89
25.86
25.19
23.95
22.23
20.04
17.30
13.90
9.79
5.14
0.30
-4.34
-8.50
-12.10
-15.27
-18.27
-21.35
-24.65
-28.22
-32.00
-35.88
-39.77
-43.52
-46.95
-49.72
-51.39
-51.40
-49.27
-44.77
-38.08
-29.75
-20.59
-11.42
-2.84
4.82
11.48
17.14
21.78
25.27
27.49
28.36
27.99
26.68
24.89
23.18
22.02
21.75
22.44
23.95
26.00
28.27
30.54
32.61
34.26
35.22
35.16
33.78
30.95
26.76
21.57
15.80
9.86
4.00
-1.72
-7.33
-12.88
-18.37
-23.66
-28.61
-33.15
-37.39
-41.62
-46.20
-51.42
-57.29
-63.53
-69.52
-74.60
-78.20
-80.08
-80.35
-79.33
-77.34
-74.54
-70.78
-65.75
-59.15
-50.97
-41.53
-31.52
-21.73
-12.83
-5.19
1.19
6.52
11.17
15.45
19.56
23.54
27.28
30.58
33.21
35.01
35.92
35.99
35.28
33.87
31.77
29.07
25.99
22.86
20.09
17.93
16.34
15.00
13.42
11.28
8.53
5.43
2.40
-0.24
-2.38
-4.18
-5.90
-7.82
-10.15
-13.01
-16.50
-20.64
-25.30
-30.11
-34.45
-37.53
-38.64
-37.35
-33.62
-27.82
-20.52
-12.38
-3.97
4.20
11.66
18.01
22.92
26.23
28.04
28.68
28.62
28.33
28.18
28.34
28.77
29.30
29.66
29.61
28.99
27.77
26.12
24.26
22.46
20.89
19.54
18.24
16.70
14.59
11.69
7.98
3.65
-0.93
-5.39
-9.49
-13.19
-16.64
-20.08
-23.72
-27.62
-31.69
-35.67
-39.12
-41.49
-42.17
-40.69
-36.90
-31.09
-24.01
-16.58
-9.67
-3.76
1.02
4.80
7.72
9.72
10.63
10.28
8.70
6.21
3.29
0.50
-1.69
-2.97
-3.24
-2.67
-1.78
-1.45
-2.62
-5.91
-11.12
-17.18
-22.43
-25.29
-24.98
-21.78
-16.85
-11.56
-6.91
-3.28
-0.55
1.48
2.75
2.98
1.83
-0.76
-4.52
-8.92
-13.47
-17.85
-21.92
-25.53
-28.35
-29.86
-29.47
-26.77
-21.75
-14.83
-6.72
1.74
9.84
16.99
22.81
27.07
29.70
30.79
30.67
29.78
28.64
27.67
27.06
26.82
26.75
26.64
26.30
25.65
24.69
23.48
22.13
20.70
19.19
17.54
15.58
13.13
10.05
6.39
2.33
-1.77
-5.54
-8.71
-11.22
-13.25
-15.17
-17.42
-20.36
-24.14
-28.53
-33.01
-36.76
-38.85
-38.48
-35.19
-29.03
-20.62
-10.93
-1.09
7.96
15.64
21.75
26.36
29.63
31.64
32.43
32.08
30.74
28.78
26.60
24.58
22.88
21.45
20.09
18.63
17.02
15.46
14.26
13.72
13.92
14.57
15.10
14.81
13.07
9.66
4.82
-0.74
-6.10
-10.43
-13.23
-14.47
-14.53
-13.98
-13.51
-13.71
-14.99
-17.44
-20.73
-23.93
-25.70
-24.55
-19.41
-10.02
2.84
17.62
32.49
45.92
56.99
65.44
71.31
74.79
75.96
74.98
72.24
68.52
64.89
62.35
61.35
61.52
61.74
60.51
56.65
49.74
40.30
29.53
18.81
9.13
0.91
-6.05
-12.22
-18.10
-24.01
-30.09
-36.36
-42.76
-49.21
-55.51
-61.31
-66.16
-69.57
-71.26
-71.23
-69.79
-67.41
-64.47
-61.04
-56.82
-51.35
-44.38
-36.17
-27.58
-19.90
-14.40
-11.86
-12.29
-14.93
-18.63
-22.23
-24.92
-26.22
-25.94
-24.06
-20.81
-16.85
-13.39
-11.94
-13.83
-19.54
-28.32
-38.37
-47.44
-53.71
-56.46
-56.21
-54.36
-52.56
-52.02
-53.17
-55.69
-58.72
-61.32
-62.70
-62.43
-60.38
-56.55
-50.86
-43.02
-32.63
-19.26
-2.57
17.70
41.77
69.66
100.83
133.72
165.41
192.03
209.58
215.25
208.34
190.52
165.21
136.41
107.61
81.19
58.40
39.73
25.22
14.61
7.34
2.55
-0.70
-3.17
-5.26
-6.99
-8.24
-8.98
-9.44
-10.00
-11.11
-12.98
-15.57
-18.63
-21.80
-24.75
-27.34
-29.60
-31.75
-34.14
-37.03
-40.47
-44.12
-47.29
-49.14
-48.94
-46.33
-41.44
-34.78
-27.04
-18.87
-10.83
-3.39
3.04
8.14
11.72
13.84
14.80
15.04
14.97
14.81
14.60
14.28
13.77
13.11
12.32
11.44
10.43
9.30
8.21
7.44
7.31
7.82
8.46
8.24
6.04
1.16
-6.23
-14.98
-23.35
-29.69
-33.02
-33.40
-31.85
-29.88
-28.95
-30.08
-33.60
-39.25
-46.27
-53.63
-60.27
-65.18
-67.58
-67.00
-63.47
-57.47
-49.97
-42.16
-35.21
-29.88
-26.41
-24.50
-23.61
-23.18
-22.94
-22.92
-23.29
-24.24
-25.80
-27.88
-30.32
-33.05
-36.05
-39.33
-42.82
-46.28
-49.39
-51.79
-53.28
-53.77
-53.21
-51.41
-48.02
-42.59
-34.87
-25.01
-13.73
-2.12
8.66
17.76
24.91
30.37
34.75
38.65
42.34
45.70
48.20
49.22
48.31
45.58
41.81
38.42
37.16
39.56
46.55
58.15
73.55
91.50
110.70
130.12
149.10
167.26
184.45
200.57
215.44
228.51
238.55
243.66
241.58
230.50
209.99
181.38
147.60
112.16
78.07
47.05
19.52
-4.74
-25.94
-43.79
-57.70
-67.27
-72.75
-75.09
-75.65
-75.69
-75.91
-76.45
-77.05
-77.40
-77.38
-77.20
-77.19
-77.64
-78.61
-79.86
-80.94
-81.39
-80.94
-79.62
-77.78
-75.91
-74.36
-73.19
-72.00
-70.09
-66.74
-61.51
-54.51
-46.36
-38.00
-30.28
-23.71
-18.28
-13.66
-9.43
-5.37
-1.55
1.71
4.14
5.68
6.54
7.17
7.97
9.14
10.61
12.12
13.38
14.24
14.70
14.86
14.84
14.69
14.38
13.85
12.99
11.74
9.98
7.64
4.69
1.21
-2.62
-6.55
-10.38
-14.03
-17.51
-20.91
-24.27
-27.57
-30.79
-33.92
-37.04
-40.23
-43.58
-47.08
-50.67
-54.26
-57.69
-60.77
-63.23
-64.67
-64.70
-62.94
-59.24
-53.60
-46.26
-37.50
-27.70
-17.23
-6.55
3.84
13.41
21.69
28.41
33.49
37.08
39.38
40.64
41.07
40.86
40.21
39.36
38.56
38.06
37.97
38.29
38.85
39.37
39.53
39.06
37.83
35.90
33.45
30.75
28.03
25.40
22.83
20.21
17.40
14.32
10.99
7.49
3.92
0.37
-3.06
-6.30
-9.34
-12.26
-15.27
-18.62
-22.51
-27.00
-31.85
-36.57
-40.54
-43.13
-43.86
-42.47
-38.91
-33.32
-25.98
-17.34
-7.97
1.43
10.20
17.73
23.63
27.77
30.24
31.30
31.29
30.55
29.42
28.23
27.21
26.51
26.15
26.01
25.92
25.71
25.27
24.56
23.62
22.46
21.05
19.30
17.16
14.65
11.92
9.16
6.56
4.21
2.05
-0.06
-2.27
-4.67
-7.24
-9.88
-12.50
-14.99
-17.33
-19.55
-21.71
-23.96
-26.44
-29.31
-32.61
-36.31
-40.20
-43.99
-47.26
-49.55
-50.40
-49.41
-46.33
-41.12
-34.02
-25.49
-16.15
-6.65
2.40
10.44
17.08
22.09
25.45
27.38
28.20
28.31
27.98
27.40
26.63
25.72
24.79
24.02
23.59
23.58
23.94
24.48
24.95
25.16
24.97
24.35
23.29
21.84
20.06
18.08
16.08
14.20
12.55
11.07
9.63
8.02
6.15
4.01
1.76
-0.38
-2.21
-3.60
-4.58
-5.27
-5.95
-6.91
-8.43
-10.66
-13.44
-16.34
-18.71
-19.87
-19.28
-16.76
-12.47
-6.85
-0.50
6.00
12.08
17.28
21.23
23.69
24.58
24.01
22.30
19.93
17.39
15.14
13.45
12.38
11.83
11.57
11.41
11.27
11.17
11.22
11.48
11.85
12.08
11.87
11.05
9.61
7.74
5.72
3.75
1.90
0.08
-1.86
-4.01
-6.36
-8.82
-11.23
-13.47
-15.48
-17.29
-19.01
-20.80
-22.84
-25.31
-28.31
-31.85
-35.77
-39.63
-42.83
-44.64
-44.42
-41.88
-37.14
-30.71
-23.30
-15.59
-8.05
-0.94
5.57
11.35
16.17
19.77
22.00
22.93
22.87
22.29
21.65
21.29
21.29
21.55
21.85
22.05
22.07
21.97
21.80
21.54
21.06
20.20
18.82
16.93
14.64
12.16
9.71
7.40
5.25
3.23
1.22
-0.85
-3.06
-5.45
-8.02
-10.74
-13.53
-16.30
-18.97
-21.48
-23.85
-26.13
-28.46
-30.97
-33.82
-37.04
-40.51
-43.87
-46.58
-47.97
-47.43
-44.58
-39.39
-32.26
-23.89
-15.13
-6.80
0.51
6.50
11.07
14.34
16.43
17.50
17.75
17.40
16.78
16.20
15.93
16.05
16.54
17.24
17.98
18.66
19.19
19.54
19.60
19.27
18.46
17.17
15.49
13.57
11.57
9.55
7.47
5.22
2.68
-0.17
-3.28
-6.48
-9.62
-12.56
-15.27
-17.82
-20.38
-23.15
-26.35
-30.12
-34.47
-39.19
-43.83
-47.77
-50.31
-50.86
-49.05
-44.83
-38.43
-30.33
-21.16
-11.63
-2.41
5.84
12.64
17.75
21.18
23.19
24.18
24.53
24.57
24.47
24.32
24.18
24.08
24.08
24.25
24.58
25.05
25.53
25.90
26.01
25.76
25.11
24.07
22.67
20.94
18.89
16.54
13.96
11.22
8.45
5.71
3.00
0.22
-2.73
-5.92
-9.30
-12.71
-15.97
-18.93
-21.57
-23.98
-26.36
-28.92
-31.89
-35.39
-39.39
-43.64
-47.62
-50.63
-51.90
-50.81
-47.08
-40.84
-32.59
-23.02
-12.87
-2.81
6.62
14.99
21.95
27.24
30.76
32.55
32.86
32.08
30.66
29.08
27.71
26.79
26.36
26.33
26.52
26.70
26.72
26.44
25.82
24.85
23.52
21.87
19.95
17.82
15.58
13.28
10.89
8.33
5.48
2.31
-1.08
-4.52
-7.84
-10.96
-13.95
-16.99
-20.31
-24.05
-28.25
-32.82
-37.53
-42.01
-45.78
-48.23
-48.78
-46.98
-42.66
-36.00
-27.49
-17.80
-7.67
2.18
11.15
18.78
24.77
29.01
31.57
32.64
32.54
31.62
30.27
28.88
27.77
27.11
26.92
27.04
27.23
27.31
27.16
26.81
26.32
25.69
24.87
23.72
22.11
19.98
17.36
14.38
11.21
8.02
4.93
1.99
-0.81
-3.53
-6.30
-9.21
-12.33
-15.67
-19.09
-22.46
-25.63
-28.56
-31.37
-34.32
-37.70
-41.69
-46.22
-50.86
-54.87
-57.33
-57.37
-54.37
-48.14
-38.96
-27.57
-14.93
-2.05
10.21
21.19
30.51
37.94
43.39
46.90
48.67
49.06
48.62
47.93
47.43
47.35
47.64
48.08
48.43
48.53
48.33
47.89
47.22
46.33
45.12
43.48
41.28
38.39
34.81
30.61
26.00
21.26
16.65
12.36
8.43
4.73
1.05
-2.79
-6.83
-10.97
-15.00
-18.69
-21.91
-24.65
-27.06
-29.37
-31.81
-34.58
-37.79
-41.42
-45.35
-49.26
-52.73
-55.20
-56.10
-54.94
-51.47
-45.75
-38.11
-29.18
-19.70
-10.40
-1.90
5.39
11.28
15.79
19.07
21.32
22.74
23.48
23.69
23.50
23.02
22.41
21.73
21.04
20.31
19.48
18.44
17.06
15.17
12.52
8.88
4.03
-2.09
-9.35
-17.41
-25.86
-34.29
-42.50
-50.49
-58.43
-66.51
-74.86
-83.46
-92.17
-100.78
-109.09
-117.01
-124.52
-131.65
-138.46
-144.91
-150.77
-155.50
-158.27
-158.01
-153.69
-144.51
-130.19
-111.09
-88.13
-62.66
-36.18
-10.14
14.20
35.84
54.06
68.40
78.73
85.28
88.62
89.62
89.27
88.54
88.17
88.55
89.74
91.49
93.40
95.03
96.02
96.19
95.57
94.36
92.87
91.38
90.08
88.94
87.84
86.57
84.97
83.02
80.89
78.95
77.62
77.29
78.05
79.69
81.69
83.46
84.60
85.18
85.74
87.06
89.83
94.24
99.84
105.67
110.69
114.23
116.31
117.69
119.75
124.16
132.56
146.03
164.52
186.30
207.78
224.13
230.60
224.12
204.35
173.79
136.68
97.40
59.14
23.50
-9.11
-38.53
-64.37
-85.95
-102.82
-115.21
-124.08
-130.71
-136.04
-140.33
-143.14
-143.68
-141.40
-136.29
-129.03
-120.79
-112.91
-106.47
-102.09
-99.77
-99.06
-99.22
-99.53
-99.50
-98.92
-97.87
-96.53
-95.08
-93.61
-92.09
-90.45
-88.68
-86.80
-84.78
-82.41
-79.31
-74.95
-68.92
-61.09
-51.77
-41.60
-31.38
-21.79
-13.25
-5.93
0.17
5.10
8.84
11.40
12.87
13.48
13.59
13.55
13.61
13.81
14.09
14.30
14.39
14.34
14.23
14.09
13.88
13.43
12.58
11.17
9.22
6.91
4.52
2.33
0.48
-1.05
-2.43
-3.86
-5.45
-7.26
-9.22
-11.27
-13.35
-15.44
-17.53
-19.62
-21.71
-23.82
-25.97
-28.16
-30.21
-31.76
-32.36
-31.54
-29.10
-25.15
-20.12
-14.63
-9.26
-4.43
-0.31
3.13
5.98
8.35
10.29
11.78
12.83
13.47
13.72
13.62
13.29
12.87
12.53
12.40
12.52
12.82
13.17
13.43
13.54
13.54
13.48
13.38
13.18
12.74
11.92
10.65
8.98
7.06
5.07
3.15
1.40
-0.15
-1.53
-2.84
-4.18
-5.64
-7.18
-8.72
-10.18
-11.52
-12.78
-14.08
-15.53
-17.16
-18.91
-20.68
-22.43
-24.19
-26.06
-28.06
-30.02
-31.50
-31.94
-30.80
-27.83
-23.13
-17.19
-10.71
-4.40
1.21
5.86
9.54
12.36
14.49
16.01
16.92
17.23
17.00
16.40
15.68
15.08
14.76
14.75
15.00
15.35
15.68
15.88
15.91
15.73
15.35
14.82
14.17
13.43
12.61
11.68
10.59
9.29
7.80
6.16
4.48
2.85
1.35
-0.05
-1.44
-2.94
-4.62
-6.46
-8.35
-10.13
-11.67
-12.90
-13.92
-14.89
-16.09
-17.78
-20.18
-23.35
-27.06
-30.75
-33.58
-34.69
-33.49
-29.87
-24.30
-17.60
-10.66
-4.13
1.67
6.71
11.05
14.66
17.42
19.16
19.81
19.55
18.71
17.73
16.93
16.42
16.13
15.86
15.45
14.92
14.37
13.96
13.76
13.75
13.76
13.58
13.02
11.98
10.42
8.41
6.04
3.45
0.84
-1.61
-3.77
-5.60
-7.17
-8.70
-10.40
-12.44
-14.86
-17.50
-20.13
-22.48
-24.36
-25.79
-26.93
-28.07
-29.48
-31.39
-33.85
-36.74
-39.74
-42.33
-43.89
-43.83
-41.73
-37.47
-31.25
-23.59
-15.17
-6.71
1.18
8.01
13.52
17.66
20.51
22.28
23.23
23.58
23.53
23.22
22.83
22.50
22.41
22.65
23.22
24.01
24.84
25.53
25.93
25.98
25.63
24.86
23.61
21.87
19.59
16.80
13.55
9.86
5.74
1.23
-3.63
-8.70
-13.75
-18.52
-22.83
-26.63
-30.05
-33.30
-36.58
-39.93
-43.20
-46.00
-47.82
-48.11
-46.47
-42.75
-37.10
-29.99
-22.06
-13.98
-6.31
0.63
6.75
12.16
16.94
21.11
24.52
26.95
28.27
28.55
28.10
27.46
27.14
27.54
28.74
30.53
32.49
34.09
34.81
34.28
32.35
29.12
25.05
20.74
16.82
13.69
11.29
9.14
6.47
2.56
-2.93
-9.88
-17.70
-25.67
-33.16
-39.88
-45.85
-51.32
-56.57
-61.79
-66.97
-71.92
-76.22
-79.28
-80.46
-79.22
-75.31
-68.84
-60.27
-50.27
-39.55
-28.68
-18.14
-8.26
0.67
8.45
14.96
20.24
24.44
27.75
30.33
32.27
33.65
34.61
35.40
36.33
37.68
39.51
41.65
43.68
45.15
45.70
45.21
43.77
41.61
38.95
35.96
32.74
29.40
26.06
22.86
19.84
16.90
13.83
10.38
6.38
1.88
-2.91
-7.68
-12.15
-16.22
-19.97
-23.67
-27.61
-32.05
-37.06
-42.44
-47.70
-52.07
-54.65
-54.57
-51.26
-44.54
-34.79
-22.84
-9.80
3.13
14.91
24.80
32.37
37.53
40.41
41.33
40.72
39.12
37.07
35.12
33.65
32.88
32.77
33.13
33.67
34.13
34.33
34.25
33.95
33.51
33.01
32.41
31.57
30.30
28.39
25.79
22.60
19.12
15.69
12.56
9.78
7.21
4.60
1.77
-1.32
-4.51
-7.64
-10.53
-13.17
-15.62
-18.04
-20.57
-23.36
-26.57
-30.32
-34.63
-39.29
-43.78
-47.35
-49.12
-48.39
-44.84
-38.62
-30.33
-20.84
-11.09
-1.93
6.01
12.27
16.62
18.97
19.44
18.27
15.89
12.78
9.47
6.42
3.88
1.92
0.43
-0.82
-2.08
-3.58
-5.51
-8.02
-11.24
-15.28
-20.15
-25.78
-31.92
-38.16
-44.05
-49.18
-53.43
-57.03
-60.55
-64.70
-70.04
-76.81
-84.83
-93.68
-102.80
-111.75
-120.11
-127.48
-133.32
-137.06
-138.14
-136.23
-131.19
-122.95
-111.42
-96.41
-77.69
-55.33
-29.83
-2.26
25.88
52.98
77.54
98.45
115.04
127.19
135.30
140.25
143.31
145.74
148.61
152.48
157.42
163.10
169.12
175.18
181.26
187.64
194.79
203.05
212.23
221.16
227.63
228.69
221.54
204.56
178.06
144.24
106.60
68.76
33.57
2.61
-23.63
-45.31
-62.84
-76.65
-87.20
-95.02
-100.69
-104.74
-107.52
-109.14
-109.50
-108.28
-105.03
-99.17
-90.21
-77.93
-62.55
-44.87
-26.14
-7.79
8.91
23.09
34.37
42.85
48.89
52.98
55.52
56.80
56.97
56.13
54.34
51.75
48.56
45.03
41.42
37.94
34.68
31.65
28.73
25.72
22.37
18.48
13.96
8.87
3.52
-1.65
-6.23
-9.98
-12.96
-15.58
-18.33
-21.68
-25.80
-30.53
-35.47
-40.13
-44.11
-47.22
-49.45
-50.88
-51.53
-51.23
-49.66
-46.44
-41.31
-34.29
-25.66
-15.90
-5.53
4.90
14.88
23.85
31.18
36.30
38.85
38.92
37.09
34.28
31.50
29.47
28.50
28.45
28.86
29.22
29.16
28.45
27.04
24.91
22.02
18.30
13.76
8.57
3.08
-2.28
-7.14
-11.34
-14.92
-18.05
-20.86
-23.37
-25.48
-27.08
-28.17
-28.84
-29.37
-30.03
-31.14
-32.93
-35.57
-39.17
-43.69
-49.00
-54.83
-60.82
-66.54
-71.56
-75.50
-78.10
-79.27
-79.14
-78.03
-76.35
-74.46
-72.60
-70.87
-69.34
-68.13
-67.42
-67.45
-68.26
-69.70
-71.33
-72.56
-72.79
-71.57
-68.65
-64.01
-57.77
-50.17
-41.48
-32.03
-22.10
-11.91
-1.64
8.56
18.50
27.93
36.54
44.01
50.08
54.63
57.65
59.32
59.86
59.60
58.86
57.95
57.14
56.55
56.16
55.81
55.31
54.62
54.05
54.33
56.51
61.56
69.90
81.08
93.74
105.92
115.56
121.10
121.76
117.65
109.56
98.64
86.16
73.24
60.72
49.01
38.05
27.43
16.51
4.84
-7.69
-20.64
-33.21
-44.43
-53.56
-60.29
-64.86
-67.92
-70.25
-72.49
-74.97
-77.67
-80.35
-82.67
-84.40
-85.46
-85.97
-86.14
-86.15
-86.03
-85.53
-84.17
-81.38
-76.70
-70.01
-61.62
-52.20
-42.63
-33.71
-25.99
-19.78
-15.11
-11.82
-9.54
-7.69
-5.54
-2.36
2.37
8.76
16.49
24.94
33.40
41.28
48.21
54.06
58.78
62.42
65.11
67.07
68.66
70.25
72.18
74.62
77.57
80.90
84.47
88.17
91.89
95.51
98.84
101.70
103.86
105.17
105.45
104.46
101.84
97.18
90.10
80.43
68.42
54.62
39.87
25.06
11.01
-1.65
-12.54
-21.51
-28.76
-34.71
-40.01
-45.31
-51.05
-57.29
-63.66
-69.40
-73.66
-75.67
-74.99
-71.64
-66.05
-58.98
-51.27
-43.69
-36.77
-30.76
-25.73
-21.61
-18.35
-15.89
-14.18
-13.12
-12.57
-12.32
-12.16
-11.91
-11.39
-10.52
-9.28
-7.72
-6.00
-4.34
-2.91
-1.86
-1.22
-0.97
-1.09
-1.59
-2.52
-3.91
-5.67
-7.66
-9.64
-11.45
-13.03
-14.48
-15.98
-17.70
-19.72
-22.05
-24.62
-27.36
-30.20
-32.94
-35.20
-36.48
-36.18
-33.80
-29.18
-22.54
-14.49
-5.89
2.40
9.67
15.49
19.72
22.45
23.89
24.25
23.72
22.47
20.73
18.79
16.96
15.47
14.42
13.75
13.29
12.85
12.37
11.85
11.38
10.97
10.58
10.05
9.20
7.92
6.21
4.18
2.02
-0.13
-2.21
-4.28
-6.44
-8.75
-11.21
-13.69
-16.03
-18.10
-19.87
-21.46
-23.03
-24.83
-27.03
-29.73
-32.87
-36.19
-39.15
-41.05
-41.17
-38.99
-34.39
-27.67
-19.54
-10.85
-2.40
5.16
11.41
16.11
19.22
20.81
21.10
20.46
19.28
17.90
16.60
15.48
14.56
13.82
13.21
12.67
12.21
11.86
11.66
11.64
11.79
11.98
12.03
11.71
10.89
9.59
7.96
6.24
4.62
3.13
1.68
0.06
-1.89
-4.20
-6.70
-9.12
-11.24
-13.00
-14.52
-16.07
-17.93
-20.26
-23.08
-26.28
-29.64
-32.79
-35.27
-36.50
-35.94
-33.21
-28.27
-21.46
-13.44
-4.97
3.20
10.51
16.59
21.24
24.38
26.05
26.37
25.60
24.02
21.97
19.78
17.71
15.97
14.65
13.79
13.30
13.09
13.01
12.92
12.71
12.31
11.68
10.79
9.61
8.17
6.47
4.59
2.59
0.51
-1.64
-3.89
-6.29
-8.79
-11.27
-13.62
-15.77
-17.78
-19.88
-22.35
-25.37
-28.90
-32.62
-35.96
-38.23
-38.77
-37.12
-33.14
-27.04
-19.38
-10.93
-2.50
5.22
11.73
16.79
20.32
22.35
23.01
22.50
21.11
19.26
17.39
15.88
14.95
14.60
14.69
14.98
15.32
15.62
15.88
16.10
16.23
16.12
15.62
14.65
13.21
11.45
9.58
7.76
6.06
4.45
2.78
0.92
-1.19
-3.53
-5.98
-8.44
-10.85
-13.21
-15.62
-18.16
-20.90
-23.87
-27.06
-30.35
-33.46
-35.92
-37.07
-36.29
-33.21
-27.88
-20.81
-12.77
-4.59
3.08
9.80
15.31
19.45
22.08
23.17
22.83
21.35
19.15
16.65
14.20
11.99
10.08
8.48
7.20
6.24
5.62
5.28
5.06
4.73
4.01
2.69
0.71
-1.83
-4.72
-7.73
-10.73
-13.70
-16.69
-19.78
-22.96
-26.10
-29.02
-31.50
-33.48
-34.98
-36.11
-37.00
-37.75
-38.37
-38.88
-39.26
-39.41
-39.13
-38.08
-35.84
-32.05
-26.61
-19.69
-11.79
-3.53
4.48
11.76
18.01
23.02
26.65
28.82
29.56
29.05
27.63
25.73
23.74
22.00
20.65
19.71
19.12
18.77
18.51
18.22
17.75
16.98
15.87
14.47
12.88
11.27
9.75
8.41
7.23
6.15
5.09
3.94
2.61
0.98
-0.99
-3.32
-5.92
-8.65
-11.33
-13.81
-16.11
-18.36
-20.81
-23.66
-26.99
-30.63
-34.17
-37.00
-38.46
-38.00
-35.33
-30.46
-23.71
-15.64
-6.91
1.86
10.13
17.47
23.60
28.33
31.56
33.31
33.79
33.34
32.38
31.34
30.49
29.96
29.70
29.60
29.54
29.44
29.28
29.04
28.72
28.25
27.52
26.40
24.82
22.75
20.24
17.43
14.48
11.54
8.75
6.15
3.70
1.27
-1.25
-3.95
-6.82
-9.76
-12.63
-15.41
-18.17
-21.14
-24.57
-28.61
-33.16
-37.89
-42.27
-45.67
-47.52
-47.36
-44.93
-40.23
-33.52
-25.28
-16.13
-6.75
2.25
10.39
17.28
22.72
26.63
29.06
30.22
30.39
29.89
29.02
27.99
26.97
26.09
25.43
25.03
24.89
24.90
24.93
24.82
24.40
23.57
22.32
20.67
18.71
16.50
14.08
11.49
8.71
5.77
2.69
-0.52
-3.82
-7.22
-10.71
-14.25
-17.74
-21.04
-24.08
-26.83
-29.46
-32.23
-35.46
-39.32
-43.73
-48.24
-52.14
-54.61
-54.89
-52.56
-47.54
-40.15
-30.95
-20.68
-10.06
0.21
9.59
17.62
24.05
28.75
31.80
33.40
33.88
33.59
32.91
32.15
31.55
31.27
31.35
31.78
32.49
33.35
34.19
34.83
35.10
34.85
33.98
32.45
30.27
27.50
24.26
20.75
17.21
13.82
10.67
7.72
4.79
1.70
-1.65
-5.31
-9.18
-13.13
-17.02
-20.76
-24.31
-27.68
-31.00
-34.43
-38.21
-42.49
-47.23
-52.06
-56.26
-58.91
-59.14
-56.35
-50.41
-41.66
-30.87
-19.01
-7.04
4.17
14.01
22.07
28.17
32.32
34.68
35.61
35.52
34.87
34.10
33.51
33.24
33.28
33.53
33.82
34.01
34.00
33.82
33.47
32.99
32.37
31.58
30.56
29.27
27.75
26.08
24.38
22.75
21.27
19.97
18.84
17.83
16.86
15.78
14.40
12.58
10.20
7.24
3.73
-0.32
-4.92
-10.15
-16.06
-22.66
-29.87
-37.49
-45.13
-52.20
-57.97
-61.67
-62.68
-60.77
-56.15
-49.40
-41.29
-32.57
-23.86
-15.65
-8.36
-2.34
2.13
4.90
6.08
5.98
5.01
3.65
2.25
1.10
0.34
-0.02
-0.09
-0.05
-0.16
-0.66
-1.73
-3.39
-5.60
-8.26
-11.27
-14.63
-18.32
-22.36
-26.72
-31.39
-36.49
-42.35
-49.48
-58.40
-69.49
-82.76
-97.82
-113.99
-130.36
-145.96
-159.69
-170.46
-177.30
-179.66
-177.64
-172.14
-164.58
-156.45
-148.69
-141.28
-133.27
-123.20
-109.71
-92.13
-70.73
-46.60
-21.27
3.79
27.47
49.05
68.12
84.39
97.65
107.84
115.22
120.41
124.38
128.11
132.34
137.36
142.97
148.70
154.08
158.91
163.34
167.75
172.55
177.93
183.71
189.38
194.30
197.98
200.25
201.32
201.74
202.19
203.28
205.27
207.80
209.72
209.12
203.62
191.03
170.05
140.83
105.04
65.52
25.55
-11.96
-44.92
-72.37
-94.22
-111.00
-123.50
-132.55
-138.78
-142.57
-144.04
-143.07
-139.42
-132.88
-123.39
-111.18
-96.84
-81.28
-65.63
-50.99
-38.22
-27.76
-19.60
-13.32
-8.27
-3.79
0.66
5.36
10.36
15.48
20.46
25.03
29.04
32.49
35.56
38.48
41.45
44.52
47.45
49.76
50.72
49.56
45.67
38.85
29.39
18.01
5.69
-6.69
-18.53
-29.56
-39.79
-49.27
-57.93
-65.58
-71.98
-77.00
-80.71
-83.42
-85.53
-87.36
-89.04
-90.37
-90.88
-89.93
-86.88
-81.28
-73.05
-62.52
-50.40
-37.61
-25.04
-13.38
-3.15
5.35
11.93
16.49
19.08
19.97
19.71
19.06
18.84
19.72
22.08
25.87
30.73
36.05
41.18
45.58
48.94
51.22
52.60
53.31
53.51
53.15
52.02
49.93
46.81
42.85
38.42
33.96
29.82
26.16
23.00
20.34
18.17
16.55
15.46
14.83
14.45
14.10
13.63
12.97
12.15
11.18
9.97
8.34
6.10
3.21
-0.15
-3.43
-5.96
-7.08
-6.35
-3.73
0.46
5.65
11.18
16.45
21.03
24.66
27.17
28.46
28.45
27.13
24.62
21.22
17.39
13.61
10.28
7.53
5.28
3.26
1.24
-0.87
-2.97
-4.86
-6.45
-7.73
-8.89
-10.12
-11.56
-13.23
-14.98
-16.66
-18.12
-19.29
-20.19
-20.91
-21.55
-22.22
-22.96
-23.73
-24.43
-24.94
-25.20
-25.27
-25.34
-25.69
-26.59
-28.17
-30.37
-32.92
-35.31
-36.93
-37.23
-35.79
-32.45
-27.35
-20.97
-13.97
-7.06
-0.85
4.38
8.64
12.11
15.03
17.47
19.31
20.37
20.53
19.85
18.61
17.19
15.90
14.88
14.13
13.56
13.09
12.71
12.42
12.20
11.94
11.48
10.64
9.29
7.44
5.20
2.83
0.57
-1.37
-2.92
-4.15
-5.23
-6.35
-7.66
-9.23
-11.01
-12.91
-14.78
-16.55
-18.21
-19.87
-21.74
-24.03
-26.83
-30.00
-33.11
-35.53
-36.59
-35.78
-32.93
-28.23
-22.14
-15.25
-8.09
-1.15
5.24
10.77
15.24
18.53
20.63
21.68
21.90
21.60
21.07
20.56
20.25
20.24
20.59
21.26
22.20
23.29
24.42
25.42
26.12
26.39
26.15
25.47
24.47
23.27
21.87
20.05
17.36
13.24
7.20
-1.03
-11.37
-23.41
-36.43
-49.55
-61.90
-72.78
-81.87
-89.26
-95.42
-100.97
-106.51
-112.33
-118.37
-124.18
-128.98
-131.78
-131.62
-127.80
-120.13
-109.05
-95.57
-81.00
-66.56
-53.11
-41.03
-30.34
-20.92
-12.67
-5.62
0.15
4.59
7.77
9.90
11.28
12.34
13.46
15.00
17.12
19.78
22.71
25.50
27.78
29.28
29.90
29.68
28.76
27.25
25.28
22.96
20.39
17.66
14.83
11.88
8.82
5.66
2.51
-0.50
-3.28
-5.89
-8.53
-11.54
-15.19
-19.64
-24.69
-29.86
-34.37
-37.28
-37.72
-35.14
-29.42
-21.03
-10.83
0.12
10.84
20.62
29.04
35.93
41.21
44.91
47.10
48.02
48.03
47.59
47.09
46.80
46.85
47.22
47.82
48.50
49.10
49.45
49.40
48.86
47.81
46.29
44.32
41.92
39.05
35.69
31.91
27.86
23.78
19.84
16.11
12.49
8.80
4.85
0.57
-4.01
-8.69
-13.26
-17.53
-21.38
-24.83
-28.03
-31.26
-34.95
-39.50
-45.14
-51.68
-58.41
-64.12
-67.39
-66.97
-62.19
-53.24
-41.04
-27.01
-12.64
0.87
12.75
22.65
30.48
36.28
40.10
42.11
42.63
42.14
41.27
40.60
40.54
41.21
42.48
44.05
45.59
46.86
47.78
48.34
48.54
48.38
47.76
46.58
44.77
42.34
39.39
36.09
32.59
29.03
25.48
21.93
18.32
14.57
10.62
6.44
2.05
-2.51
-7.14
-11.70
-16.08
-20.16
-23.89
-27.35
-30.73
-34.30
-38.34
-43.09
-48.55
-54.47
-60.22
-64.86
-67.29
-66.49
-61.89
-53.53
-42.18
-29.07
-15.60
-2.96
8.10
17.24
24.38
29.58
32.90
34.53
34.77
34.14
33.20
32.48
32.22
32.43
32.87
33.32
33.64
33.84
34.03
34.27
34.50
34.56
34.17
33.06
31.11
28.36
25.05
21.52
18.05
14.78
11.66
8.49
5.08
1.32
-2.72
-6.85
-10.84
-14.52
-17.85
-20.97
-24.15
-27.73
-32.02
-37.16
-42.95
-48.76
-53.59
-56.28
-55.87
-51.89
-44.49
-34.44
-22.80
-10.66
1.08
11.79
21.06
28.67
34.45
38.39
40.62
41.47
41.39
40.86
40.29
39.88
39.71
39.75
39.93
40.20
40.57
41.00
41.41
41.67
41.55
40.92
39.68
37.88
35.68
33.25
30.74
28.23
25.77
23.34
20.91
18.46
15.94
13.33
10.63
7.85
5.05
2.25
-0.54
-3.40
-6.42
-9.65
-13.04
-16.42
-19.62
-22.52
-25.17
-27.76
-30.56
-33.82
-37.71
-42.21
-47.06
-51.66
-55.14
-56.48
-54.79
-49.68
-41.40
-30.83
-19.21
-7.73
2.76
11.85
19.48
25.65
30.38
33.60
35.34
35.79
35.35
34.55
33.86
33.58
33.76
34.28
34.91
35.47
35.90
36.28
36.73
37.35
