1650353954.00
64.000000
-0.00
-0.00
-0.00
-0.00
-0.00
-0.00
-0.00
-0.00
-0.00
-0.00
0.00
0.01
0.01
-0.00
-0.03
-0.05
-0.05
0.00
0.13
0.36
0.66
1.01
1.37
1.72
2.06
2.40
2.79
3.24
3.80
4.42
5.06
5.66
6.20
6.68
7.15
7.68
8.31
9.14
10.09
11.04
11.88
12.56
13.14
13.76
14.65
15.96
17.91
20.32
22.90
25.38
27.58
29.57
31.68
34.32
37.81
42.54
48.15
54.10
59.83
64.97
69.58
74.14
79.34
85.71
93.76
103.00
112.62
121.73
129.77
136.75
143.30
150.75
157.77
166.64
177.95
191.79
206.97
220.57
228.25
225.36
208.53
176.87
132.76
80.05
23.07
-34.94
-92.44
-149.16
-205.23
-260.37
-313.74
-363.87
-409.83
-450.91
-486.50
-515.74
-537.23
-549.22
-549.96
-538.37
-514.21
-478.68
-433.87
-382.43
-326.99
-269.81
-212.63
-156.72
-103.10
-52.62
-6.24
35.19
71.02
100.97
125.14
144.01
158.27
168.63
175.72
180.00
181.77
181.28
178.78
174.56
168.97
162.37
155.10
147.49
139.74
132.02
124.40
116.84
109.29
101.66
93.93
86.17
78.57
71.35
64.72
58.75
53.34
48.19
42.99
37.53
31.82
26.15
20.96
16.66
13.38
10.91
8.75
6.27
3.05
-0.88
-5.09
-8.86
-11.57
-12.92
-13.16
-12.90
-12.95
-14.00
-16.51
-20.53
-25.54
-30.31
-33.01
-31.76
-25.25
-13.64
1.28
16.58
29.26
37.25
40.14
39.11
36.29
33.78
32.86
33.63
35.15
36.01
35.09
32.04
27.46
22.55
18.52
15.92
14.52
13.55
12.36
10.84
9.46
8.81
9.12
10.05
10.88
11.00
10.27
8.95
7.51
6.23
4.99
3.37
1.00
-2.19
-5.88
-9.50
-12.48
-14.43
-15.27
-15.10
-14.12
-12.60
-10.84
-9.12
-7.67
-6.54
-5.61
-4.67
-3.56
-2.27
-0.93
0.23
1.09
1.62
1.89
2.05
2.22
2.61
3.48
5.05
7.41
10.36
13.44
16.10
17.87
18.54
18.21
17.15
15.70
14.13
12.59
11.15
9.78
8.40
6.68
4.35
1.29
-2.38
-6.28
-9.88
-12.69
-14.43
-15.18
-15.29
-15.19
-15.26
-15.66
-16.28
-16.86
-17.09
-16.80
-15.98
-14.81
-13.49
-12.28
-11.32
-10.56
-9.80
-8.82
-7.54
-6.20
-5.38
-5.66
-7.45
-10.65
-14.50
-17.81
-19.46
-18.81
-16.04
-12.08
-8.20
-5.88
-6.23
-9.60
-15.50
-22.84
-30.46
-37.58
-44.12
-50.37
-57.23
-65.46
-74.92
-84.20
-90.63
-91.08
-82.97
-65.46
-39.86
-10.30
17.40
37.44
46.01
42.41
29.14
10.86
-9.69
-28.31
-41.97
-49.41
-50.95
-47.74
-41.03
-32.03
-21.96
-12.29
-4.22
1.07
3.18
3.00
2.53
4.35
10.46
21.58
36.80
54.24
71.30
85.57
95.57
100.93
102.29
100.96
98.56
96.67
96.64
98.97
103.22
108.23
112.57
115.02
114.79
111.49
104.87
94.70
80.76
63.21
43.04
22.03
2.38
-14.09
-26.54
-35.27
-41.38
-46.17
-50.57
-54.88
-58.89
-62.19
-64.48
-65.70
-65.98
-65.53
-64.38
-62.44
-59.40
-54.97
-49.00
-41.67
-33.52
-25.27
-17.55
-10.65
-4.30
2.20
9.82
19.35
31.09
44.66
59.01
72.74
84.43
93.05
98.24
100.33
100.13
98.72
97.01
95.52
94.23
92.55
89.43
83.63
73.98
59.81
41.32
19.69
-3.02
-24.43
-42.47
-56.00
-64.99
-70.27
-73.06
-74.35
-74.64
-73.99
-72.29
-69.64
-66.49
-63.52
-61.37
-60.34
-60.22
-60.41
-60.15
-58.98
-56.95
-54.65
-52.90
-52.38
-53.27
-55.16
-57.29
-58.96
-59.78
-59.84
-59.43
-58.77
-57.83
-56.32
-53.96
-50.73
-47.00
-43.52
-41.03
-40.03
-40.49
-41.93
-43.61
-44.89
-45.46
-45.47
-45.36
-45.63
-46.52
-47.87
-49.12
-49.50
-48.28
-45.01
-39.65
-32.46
-23.95
-14.67
-5.15
4.04
12.38
19.37
24.66
28.20
30.29
31.50
32.50
33.78
35.55
37.67
39.79
41.43
42.21
41.87
40.29
37.58
33.99
29.89
25.70
21.79
18.36
15.44
12.90
10.55
8.17
5.64
2.91
-0.03
-3.04
-5.99
-8.65
-10.75
-11.96
-11.93
-10.20
-6.24
0.40
10.03
22.53
37.27
53.18
68.91
83.28
95.54
105.47
113.26
119.18
123.31
125.49
125.40
122.87
118.01
111.29
103.38
94.91
86.43
78.24
70.52
63.33
56.60
50.11
43.55
36.63
29.22
21.40
13.48
5.83
-1.22
-7.48
-12.96
-17.77
-22.10
-26.15
-30.06
-33.96
-37.77
-41.24
-43.94
-45.30
-44.85
-42.38
-38.04
-32.30
-25.86
-19.41
-13.53
-8.62
-4.88
-2.32
-0.83
-0.15
0.06
0.15
0.38
0.84
1.49
2.18
2.80
3.35
3.96
4.83
6.05
7.56
9.15
10.51
11.41
11.81
11.81
11.66
11.58
11.71
11.98
12.21
12.13
11.46
10.01
7.72
4.77
1.65
-0.91
-2.06
-1.03
2.55
8.35
15.28
21.68
25.67
25.71
21.08
12.11
0.11
-12.98
-25.12
-34.70
-40.85
-43.53
-43.45
-41.71
-39.57
-38.24
-38.65
-41.34
-46.26
-52.57
-58.74
-62.97
-63.77
-60.49
-53.60
-44.34
-34.11
-23.86
-13.93
-4.27
5.04
13.46
20.16
24.55
26.89
28.49
31.43
37.78
48.80
64.29
82.39
99.87
112.96
118.40
114.36
101.02
80.43
55.81
30.55
7.36
-12.14
-27.36
-38.29
-45.21
-48.49
-48.75
-46.97
-44.45
-42.49
-41.98
-43.11
-45.33
-47.62
-49.02
-48.97
-47.54
-45.29
-42.90
-40.90
-39.48
-38.47
-37.57
-36.50
-35.01
-32.95
-30.17
-26.57
-22.09
-16.75
-10.68
-4.09
2.79
9.69
16.33
22.31
27.25
30.83
32.90
33.57
33.13
31.94
30.32
28.51
26.60
24.66
22.70
20.76
18.86
17.05
15.32
13.72
12.23
10.82
9.39
7.78
5.87
3.63
1.19
-1.21
-3.35
-5.18
-6.90
-8.84
-11.37
-14.72
-18.78
-23.13
-27.14
-30.12
-31.50
-31.03
-28.77
-25.16
-20.80
-16.31
-12.20
-8.76
-6.09
-4.12
-2.74
-1.78
-1.06
-0.37
0.53
1.80
3.53
5.62
7.77
9.55
10.52
10.44
9.36
7.67
5.93
4.70
4.32
4.80
5.87
7.09
8.01
8.34
8.01
7.14
6.10
5.35
5.35
6.32
8.00
9.52
9.48
6.34
-1.06
-12.96
-28.41
-45.48
-61.64
-74.54
-82.47
-84.74
-81.66
-74.25
-63.95
-52.27
-40.56
-29.88
-20.91
-13.94
-8.88
-5.49
-3.43
-2.49
-2.56
-3.70
-5.88
-8.93
-12.41
-15.65
-17.98
-18.90
-18.30
-16.46
-13.97
-11.50
-9.69
-8.99
-9.53
-11.12
-13.30
-15.49
-17.25
-18.55
-19.84
-21.96
-25.69
-31.44
-39.01
-47.73
-56.78
-65.59
-73.87
-81.44
-88.00
-92.94
-95.47
-94.93
-91.15
-84.44
-75.56
-65.39
-54.70
-43.97
-33.49
-23.42
-13.94
-5.34
2.04
7.92
12.17
14.99
16.81
18.26
19.89
22.07
24.90
28.28
32.00
35.74
39.04
41.22
41.56
39.56
35.36
29.79
24.22
20.02
18.00
18.17
19.79
21.81
23.24
23.57
22.69
20.82
18.24
15.23
11.99
8.66
5.32
1.99
-1.30
-4.53
-7.59
-10.28
-12.30
-13.28
-12.93
-10.99
-7.40
-2.28
3.99
10.84
17.61
23.73
28.82
32.79
35.74
37.83
39.24
40.08
40.43
40.41
40.16
39.81
39.48
39.18
38.92
38.75
38.72
38.86
39.07
39.08
38.55
37.22
35.06
32.32
29.46
26.93
24.98
23.58
22.46
21.25
19.69
17.68
15.33
12.88
10.54
8.41
6.39
4.19
1.50
-1.79
-5.55
-9.30
-12.37
-14.05
-13.83
-11.50
-7.21
-1.40
5.30
12.24
18.88
24.81
29.81
33.78
36.68
38.51
39.32
39.31
38.77
38.03
37.33
36.78
36.29
35.67
34.77
33.53
32.00
30.23
28.19
25.77
22.84
19.28
15.14
10.51
5.59
0.53
-4.54
-9.46
-14.02
-17.96
-21.07
-23.27
-24.67
-25.54
-26.16
-26.75
-27.36
-27.94
-28.39
-28.54
-28.16
-26.90
-24.34
-20.11
-14.09
-6.47
2.24
11.36
20.25
28.39
35.41
41.06
45.16
47.71
48.84
48.84
48.05
46.74
45.12
43.30
41.40
39.57
37.95
36.61
35.50
34.53
33.60
32.66
31.70
30.67
29.49
28.03
26.21
24.03
21.54
18.82
15.94
12.91
9.67
6.12
2.01
-2.96
-9.09
-16.50
-25.11
-34.56
-44.34
-53.88
-62.61
-70.02
-75.59
-78.85
-79.50
-77.55
-73.31
-67.42
-60.59
-53.48
-46.52
-40.00
-34.08
-28.92
-24.69
-21.48
-19.28
-17.86
-16.86
-15.88
-14.62
-12.96
-10.97
-8.88
-6.93
-5.33
-4.18
-3.49
-3.22
-3.24
-3.41
-3.52
-3.41
-3.02
-2.42
-1.84
-1.53
-1.65
-2.20
-2.99
-3.79
-4.41
-4.81
-5.13
-5.56
-6.30
-7.37
-8.68
-10.01
-11.09
-11.66
-11.50
-10.44
-8.37
-5.31
-1.44
2.95
7.40
11.47
14.81
17.21
18.66
19.25
19.20
18.74
18.09
17.41
16.74
16.09
15.37
14.56
13.68
12.83
12.20
11.99
12.31
13.24
14.69
16.51
18.43
20.08
21.05
21.03
19.95
18.09
15.99
14.26
13.25
12.88
12.59
11.65
9.48
6.01
1.71
-2.55
-5.87
-7.56
-7.36
-5.35
-1.88
2.60
7.58
12.55
17.04
20.59
22.88
23.72
23.13
21.35
18.81
16.00
13.36
11.13
9.38
7.99
6.80
5.66
4.54
3.44
2.32
1.10
-0.33
-2.04
-3.99
-6.07
-8.10
-9.99
-11.73
-13.41
-15.17
-17.15
-19.46
-22.20
-25.35
-28.79
-32.12
-34.80
-36.19
-35.84
-33.63
-29.81
-24.91
-19.49
-14.06
-8.88
-4.15
0.03
3.48
6.07
7.78
8.73
9.16
9.29
9.26
9.04
8.56
7.86
7.16
6.85
7.31
8.70
10.78
13.03
14.80
15.58
15.23
13.97
12.13
10.04
7.86
5.55
3.00
0.14
-3.01
-6.36
-9.84
-13.38
-16.90
-20.22
-23.03
-24.92
-25.51
-24.63
-22.37
-19.06
-15.15
-11.08
-7.12
-3.40
0.02
3.12
5.83
8.06
9.74
10.84
11.40
11.51
11.29
10.91
10.51
10.15
9.79
9.29
8.46
7.17
5.44
3.46
1.49
-0.21
-1.52
-2.47
-3.20
-3.90
-4.73
-5.76
-7.03
-8.56
-10.44
-12.80
-15.79
-19.40
-23.43
-27.38
-30.62
-32.49
-32.54
-30.62
-26.89
-21.69
-15.42
-8.51
-1.34
5.70
12.20
17.79
22.19
25.31
27.21
28.09
28.20
27.77
26.98
25.95
24.77
23.47
22.12
20.76
19.45
18.27
17.20
16.19
15.11
13.80
12.14
10.13
7.87
5.52
3.25
1.16
-0.75
-2.56
-4.39
-6.40
-8.71
-11.37
-14.27
-17.12
-19.46
-20.75
-20.59
-18.75
-15.33
-10.65
-5.23
0.37
5.57
9.88
12.98
14.71
15.14
14.56
13.35
11.89
10.46
9.22
8.18
7.26
6.34
5.36
4.32
3.30
2.38
1.60
0.83
-0.16
-1.68
-3.96
-7.08
-10.87
-15.02
-19.14
-22.91
-26.23
-29.19
-32.09
-35.31
-39.15
-43.65
-48.56
-53.28
-57.05
-59.12
-58.92
-56.22
-51.09
-43.91
-35.21
-25.65
-15.94
-6.78
1.19
7.47
11.76
14.01
14.44
13.44
11.56
9.30
7.04
4.97
3.07
1.16
-0.94
-3.38
-6.13
-9.03
-11.79
-14.11
-15.80
-16.87
-17.59
-18.33
-19.43
-20.98
-22.78
-24.44
-25.57
-26.03
-26.04
-26.05
-26.59
-27.98
-30.16
-32.67
-34.64
-35.00
-32.63
-26.61
-16.35
-1.81
16.35
36.77
57.56
76.66
92.31
103.44
109.91
112.31
111.67
108.97
104.87
99.64
93.35
86.13
78.34
70.51
63.19
56.68
50.99
45.92
41.27
36.95
33.09
29.89
27.47
25.73
24.39
23.04
21.29
18.89
15.75
11.84
7.14
1.61
-4.75
-11.72
-18.79
-25.14
-29.86
-32.26
-32.07
-29.55
-25.35
-20.21
-14.72
-9.24
-3.97
0.82
4.82
7.66
9.11
9.15
8.03
6.08
3.61
0.78
-2.33
-5.68
-9.10
-12.36
-15.14
-17.22
-18.53
-19.23
-19.63
-20.09
-20.83
-21.89
-23.07
-24.03
-24.37
-23.74
-21.91
-18.66
-13.89
-7.53
0.37
9.48
19.14
28.37
36.05
41.21
43.45
43.00
40.83
38.34
36.96
37.88
41.69
48.29
56.82
65.63
72.51
75.02
71.20
60.18
42.68
20.91
-1.99
-22.90
-39.48
-50.66
-56.59
-58.19
-56.70
-53.26
-48.77
-43.93
-39.29
-35.19
-31.71
-28.64
-25.52
-21.75
-16.87
-10.84
-4.24
1.79
5.88
6.95
4.79
0.10
-5.68
-11.12
-15.38
-18.44
-21.01
-23.90
-27.65
-32.28
-37.50
-42.97
-48.51
-54.05
-59.38
-64.08
-67.48
-68.98
-68.26
-65.34
-60.59
-54.52
-47.75
-40.87
-34.44
-28.91
-24.42
-20.72
-17.20
-13.05
-7.59
-0.59
7.61
16.19
24.13
30.57
35.01
37.44
38.20
37.76
36.56
34.89
32.96
30.92
28.95
27.26
26.04
25.30
24.88
24.42
23.55
21.95
19.43
15.93
11.49
6.22
0.32
-5.98
-12.44
-18.88
-25.24
-31.49
-37.59
-43.32
-48.30
-52.02
-54.06
-54.21
-52.58
-49.57
-45.76
-41.71
-37.82
-34.31
-31.21
-28.49
-26.14
-24.21
-22.73
-21.64
-20.67
-19.42
-17.48
-14.60
-10.81
-6.38
-1.62
3.23
8.06
12.81
17.36
21.49
24.92
27.41
28.90
29.52
29.50
29.03
28.22
27.10
25.70
24.12
22.53
21.06
19.73
18.37
16.66
14.29
11.07
7.05
2.53
-2.02
-6.05
-9.04
-10.61
-10.60
-9.04
-6.22
-2.65
1.10
4.49
7.20
9.17
10.59
11.82
13.15
14.77
16.67
18.72
20.81
22.90
25.08
27.47
30.16
33.13
36.17
38.96
41.01
41.85
41.06
38.37
33.74
27.31
19.41
10.47
0.97
-8.62
-17.84
-26.29
-33.73
-40.09
-45.53
-50.28
-54.56
-58.48
-61.97
-64.91
-67.27
-69.15
-70.90
-72.99
-75.75
-79.28
-83.24
-86.89
-89.33
-89.73
-87.62
-83.03
-76.42
-68.42
-59.59
-50.24
-40.47
-30.37
-20.24
-10.61
-2.10
4.86
10.23
14.44
18.16
22.08
26.60
31.78
37.37
42.95
48.12
52.58
56.10
58.56
59.88
60.10
59.38
58.03
56.39
54.73
53.17
51.60
49.78
47.41
44.23
40.16
35.26
29.79
24.08
18.49
13.24
8.36
3.65
-1.21
-6.57
-12.51
-18.81
-24.92
-30.07
-33.51
-34.72
-33.50
-30.02
-24.71
-18.15
-10.95
-3.61
3.41
9.78
15.24
19.63
22.92
25.23
26.79
27.92
28.87
29.76
30.61
31.34
31.83
32.04
31.89
31.35
30.38
28.96
27.16
25.04
22.69
20.09
17.12
13.59
9.42
4.69
-0.31
-5.19
-9.61
-13.48
-16.95
-20.27
-23.63
-27.06
-30.40
-33.40
-35.84
-37.54
-38.33
-37.95
-36.09
-32.46
-26.98
-19.88
-11.66
-2.98
5.59
13.64
20.92
27.22
32.34
36.09
38.39
39.38
39.40
38.90
38.30
37.82
37.54
37.42
37.39
37.44
37.56
37.70
37.71
37.39
36.52
35.00
32.81
30.09
27.07
24.02
21.13
18.46
15.97
13.49
10.82
7.81
4.38
0.54
-3.57
-7.75
-11.70
-15.09
-17.66
-19.26
-19.88
-19.67
-18.83
-17.51
-15.78
-13.69
-11.29
-8.74
-6.33
-4.35
-2.95
-2.09
-1.52
-0.94
-0.11
1.04
2.43
3.93
5.45
6.95
8.42
9.81
11.01
11.82
12.07
11.64
10.52
8.78
6.54
3.98
1.26
-1.52
-4.37
-7.42
-10.85
-14.80
-19.22
-23.81
-28.01
-31.09
-32.40
-31.57
-28.59
-23.91
-18.27
-12.54
-7.50
-3.70
-1.39
-0.54
-0.93
-2.25
-4.18
-6.51
-9.14
-12.04
-15.18
-18.45
-21.67
-24.63
-27.17
-29.24
-30.86
-32.09
-32.96
-33.56
-34.00
-34.46
-35.09
-35.89
-36.63
-36.95
-36.49
-35.23
-33.52
-32.07
-31.61
-32.57
-34.82
-37.68
-40.11
-41.12
-40.06
-36.86
-31.89
-25.79
-19.22
-12.67
-6.45
-0.77
4.18
8.18
11.04
12.72
13.36
13.30
12.98
12.74
12.76
12.97
13.08
12.70
11.41
8.88
5.00
-0.14
-6.17
-12.55
-18.76
-24.44
-29.53
-34.20
-38.79
-43.56
-48.55
-53.52
-58.00
-61.37
-63.02
-62.41
-59.13
-53.06
-44.37
-33.65
-21.69
-9.28
3.12
15.52
28.24
41.50
55.00
67.71
78.16
84.92
87.28
85.52
80.82
74.70
68.51
63.04
58.46
54.57
51.10
47.96
45.13
42.61
40.26
37.80
34.92
31.40
27.31
22.88
18.37
13.89
9.34
4.47
-0.79
-6.17
-10.94
-14.07
-14.63
-12.13
-6.78
0.63
8.94
17.01
23.98
29.39
33.14
35.34
36.16
35.73
34.17
31.58
28.18
24.32
20.45
17.09
14.60
13.12
12.48
12.30
12.17
11.78
11.10
10.22
9.30
8.39
7.35
5.94
3.89
0.99
-2.89
-7.81
-13.83
-20.88
-28.71
-36.79
-44.32
-50.36
-54.12
-55.09
-53.14
-48.47
-41.53
-32.88
-23.22
-13.30
-3.95
4.06
10.15
14.12
16.18
16.79
16.55
15.86
14.82
13.20
10.68
7.01
2.22
-3.42
-9.55
-15.86
-22.21
-28.52
-34.74
-40.74
-46.36
-51.54
-56.24
-60.50
-64.19
-67.01
-68.46
-68.14
-65.93
-62.29
-58.12
-54.46
-52.12
-51.26
-51.38
-51.46
-50.37
-47.23
-41.63
-33.63
-23.63
-12.11
0.48
13.72
27.20
40.40
52.70
63.43
72.06
78.26
81.89
82.96
81.56
77.79
71.88
64.28
55.70
47.10
39.52
33.89
30.82
30.46
32.43
35.87
39.63
42.48
43.51
42.30
39.10
34.55
29.51
24.62
20.28
16.59
13.51
10.94
8.72
6.63
4.37
1.72
-1.39
-4.78
-8.15
-11.27
-14.13
-16.90
-19.80
-22.78
-25.38
-26.83
-26.31
-23.22
-17.42
-9.15
1.09
12.70
25.09
37.63
49.63
60.38
69.20
75.48
78.71
78.43
74.28
66.19
54.55
40.30
24.85
9.72
-3.83
-15.08
-23.86
-30.37
-34.90
-37.69
-38.93
-38.85
-37.82
-36.27
-34.59
-33.03
-31.64
-30.37
-29.14
-27.96
-26.92
-26.22
-26.06
-26.60
-27.84
-29.65
-31.77
-33.91
-35.89
-37.72
-39.51
-41.32
-43.00
-44.07
-43.81
-41.52
-36.83
-29.83
-21.05
-11.29
-1.37
8.07
16.53
23.69
29.26
33.14
35.35
36.16
36.00
35.36
34.62
33.94
33.32
32.71
32.09
31.53
31.11
30.88
30.76
30.61
30.31
29.81
29.14
28.34
27.38
26.14
24.52
22.49
20.16
17.73
15.37
13.11
10.84
8.37
5.57
2.47
-0.76
-3.91
-6.79
-9.40
-11.81
-14.21
-16.80
-19.73
-23.05
-26.67
-30.25
-33.29
-35.16
-35.30
-33.39
-29.44
-23.81
-17.04
-9.70
-2.30
4.77
11.18
16.63
20.91
23.96
25.88
26.94
27.47
27.70
27.75
27.62
27.29
26.78
26.17
25.59
25.09
24.70
24.37
24.05
23.68
23.18
22.45
21.34
19.72
17.58
15.00
12.19
9.34
6.61
4.00
1.45
-1.16
-3.83
-6.44
-8.74
-10.52
-11.66
-12.30
-12.81
-13.68
-15.36
-18.05
-21.66
-25.82
-29.98
-33.58
-36.16
-37.36
-36.96
-34.92
-31.38
-26.74
-21.56
-16.44
-11.87
-8.05
-4.90
-2.20
0.24
2.52
4.54
6.12
7.12
7.46
7.22
6.53
5.55
4.41
3.26
2.30
1.70
1.64
2.17
3.21
4.56
5.97
7.20
8.14
8.80
9.25
9.58
9.80
9.83
9.51
8.70
7.42
5.78
4.07
2.57
1.42
0.57
-0.24
-1.43
-3.28
-5.85
-8.87
-11.81
-14.11
-15.34
-15.34
-14.24
-12.29
-9.81
-7.00
-4.01
-0.91
2.22
5.32
8.34
11.25
13.96
16.18
17.46
17.22
15.01
10.75
4.87
-1.75
-8.04
-13.01
-16.07
-17.03
-16.03
-13.39
-9.51
-4.80
0.27
5.23
9.60
13.10
15.63
17.29
18.27
18.75
18.82
18.43
17.51
16.03
14.00
11.53
8.81
6.08
3.58
1.46
-0.26
-1.68
-2.94
-4.08
-4.93
-5.10
-4.15
-1.74
2.29
7.75
14.30
21.46
28.73
35.59
41.57
46.26
49.35
50.71
50.43
48.75
45.97
42.35
38.11
33.43
28.51
23.61
18.97
14.77
11.10
7.88
4.98
2.26
-0.37
-2.93
-5.39
-7.70
-9.82
-11.76
-13.55
-15.29
-17.06
-18.99
-21.11
-23.42
-25.83
-28.21
-30.50
-32.72
-35.00
-37.52
-40.42
-43.64
-46.98
-50.01
-52.25
-53.23
-52.65
-50.44
-46.73
-41.86
-36.21
-30.21
-24.23
-18.58
-13.56
-9.34
-6.03
-3.58
-1.83
-0.57
0.41
1.24
1.87
2.22
2.19
1.82
1.25
0.73
0.47
0.56
0.91
1.27
1.36
1.00
0.10
-1.26
-2.90
-4.65
-6.38
-8.07
-9.79
-11.62
-13.67
-15.98
-18.60
-21.50
-24.62
-27.77
-30.62
-32.75
-33.72
-33.20
-31.10
-27.54
-22.89
-17.61
-12.15
-6.88
-2.07
2.12
5.56
8.15
9.88
10.74
10.85
10.43
9.69
8.89
8.18
7.62
7.22
6.91
6.64
6.34
5.92
5.30
4.40
3.25
1.90
0.50
-0.88
-2.22
-3.62
-5.25
-7.21
-9.52
-12.11
-14.88
-17.81
-20.91
-24.21
-27.68
-31.07
-33.95
-35.80
-36.13
-34.68
-31.48
-26.85
-21.26
-15.18
-9.06
-3.23
2.03
6.53
10.18
13.00
15.13
16.72
17.90
18.68
18.99
18.73
17.91
16.65
15.19
13.75
12.48
11.39
10.44
9.56
8.68
7.82
6.99
6.15
5.28
4.31
3.25
2.16
1.14
0.27
-0.52
-1.42
-2.70
-4.53
-6.84
-9.24
-11.07
-11.62
-10.37
-7.22
-2.41
3.53
10.07
16.76
23.19
28.78
32.78
34.36
32.94
28.54
21.88
14.10
6.35
-0.63
-6.63
-11.81
-16.35
-20.25
-23.36
-25.53
-26.85
-27.66
-28.41
-29.38
-30.61
-31.87
-32.85
-33.29
-33.10
-32.35
-31.22
-30.00
-28.99
-28.50
-28.73
-29.72
-31.27
-32.98
-34.32
-34.71
-33.73
-31.13
-26.90
-21.19
-14.27
-6.48
1.76
10.04
17.86
24.76
30.37
34.50
37.18
38.64
39.23
39.29
39.12
38.85
38.53
38.14
37.76
37.49
37.51
37.94
38.77
39.87
40.95
41.73
41.97
41.58
40.56
39.00
37.05
34.83
32.49
30.09
27.62
24.92
21.78
17.97
13.48
8.55
3.76
-0.20
-2.70
-3.39
-2.40
-0.18
2.60
5.33
7.63
9.33
10.44
10.97
10.83
9.92
8.18
5.75
2.95
0.12
-2.44
-4.67
-6.62
-8.36
-9.90
-11.06
-11.65
-11.53
-10.80
-9.67
-8.49
-7.57
-7.11
-7.23
-7.95
-9.23
-10.97
-13.05
-15.30
-17.58
-19.79
-21.97
-24.25
-26.83
-29.78
-33.01
-36.13
-38.55
-39.61
-38.78
-35.82
-30.82
-24.23
-16.65
-8.76
-1.15
5.74
11.64
16.36
19.83
22.00
22.91
22.72
21.67
20.12
18.44
16.95
15.78
14.95
14.33
13.74
13.12
12.47
11.82
11.18
10.49
9.59
8.34
6.65
4.55
2.17
-0.31
-2.77
-5.18
-7.64
-10.34
-13.49
-17.20
-21.43
-25.89
-30.13
-33.59
-35.72
-36.15
-34.69
-31.38
-26.46
-20.29
-13.35
-6.14
0.84
7.12
12.35
16.26
18.79
19.98
20.12
19.62
18.94
18.42
18.15
17.99
17.66
16.90
15.68
14.20
12.77
11.64
10.88
10.33
9.72
8.82
7.50
5.78
3.72
1.38
-1.21
-4.03
-6.99
-9.96
-12.86
-15.71
-18.68
-22.06
-26.02
-30.44
-34.83
-38.32
-39.99
-39.14
-35.55
-29.57
-21.96
-13.60
-5.30
2.37
9.14
14.86
19.47
22.94
25.25
26.51
26.92
26.78
26.39
25.94
25.50
25.06
24.55
23.95
23.30
22.68
22.12
21.58
21.01
20.35
19.56
18.63
17.52
16.10
14.25
11.89
9.11
6.18
3.42
1.06
-0.87
-2.62
-4.55
-7.05
-10.30
-14.31
-18.88
-23.66
-28.21
-31.94
-34.28
-34.71
-32.95
-29.01
-23.26
-16.28
-8.70
-1.08
6.16
12.72
18.34
22.78
25.86
27.53
27.91
27.34
26.22
24.97
23.82
22.89
22.12
21.41
20.67
19.86
18.96
17.96
16.84
15.57
14.12
12.49
10.67
8.61
6.24
3.49
0.38
-2.98
-6.34
-9.47
-12.22
-14.65
-17.01
-19.68
-22.93
-26.77
-30.94
-34.92
-38.09
-39.87
-39.89
-37.98
-34.23
-28.92
-22.53
-15.60
-8.74
-2.44
2.89
7.07
10.09
12.02
13.06
13.43
13.38
13.15
12.96
12.92
12.98
13.02
12.90
12.53
11.93
11.23
10.57
10.00
9.48
8.86
7.94
6.61
4.82
2.64
0.21
-2.33
-4.88
-7.43
-10.03
-12.79
-15.80
-19.08
-22.60
-26.27
-30.00
-33.65
-37.02
-39.73
-41.27
-41.09
-38.79
-34.32
-27.98
-20.39
-12.27
-4.30
3.02
9.35
14.51
18.44
21.17
22.87
23.76
24.08
23.99
23.55
22.80
21.78
20.61
19.44
18.41
17.59
16.96
16.42
15.89
15.33
14.75
14.13
13.39
12.41
11.00
9.12
6.81
4.26
1.69
-0.77
-3.12
-5.50
-8.08
-10.97
-14.18
-17.63
-21.22
-24.84
-28.39
-31.68
-34.34
-35.91
-35.95
-34.16
-30.52
-25.30
-18.98
-12.12
-5.24
1.24
6.98
11.72
15.27
17.53
18.57
18.59
17.95
17.01
16.07
15.24
14.44
13.56
12.51
11.40
10.41
9.72
9.36
9.21
9.04
8.67
8.04
7.17
6.13
4.89
3.37
1.46
-0.86
-3.51
-6.37
-9.31
-12.32
-15.48
-18.93
-22.67
-26.55
-30.13
-32.83
-34.01
-33.24
-30.39
-25.69
-19.63
-12.82
-5.81
0.91
7.02
12.26
16.41
19.35
21.03
21.52
21.05
19.96
18.62
17.35
16.34
15.59
14.96
14.28
13.43
12.41
11.30
10.19
9.07
7.89
6.50
4.81
2.80
0.51
-2.00
-4.68
-7.53
-10.52
-13.65
-16.91
-20.34
-24.04
-28.06
-32.32
-36.51
-40.10
-42.42
-42.86
-41.08
-37.10
-31.30
-24.26
-16.64
-9.01
-1.82
4.58
9.94
14.07
16.92
18.57
19.23
19.17
18.68
17.99
17.20
16.38
15.54
14.71
13.88
13.11
12.43
11.89
11.48
11.12
10.64
9.83
8.52
6.66
4.39
1.93
-0.55
-2.97
-5.46
-8.25
-11.58
-15.53
-19.99
-24.59
-28.84
-32.12
-33.92
-33.81
-31.57
-27.28
-21.24
-14.01
-6.25
1.42
8.43
14.45
19.24
22.73
24.98
26.11
26.31
25.84
24.93
23.78
22.55
21.35
20.26
19.35
18.65
18.16
17.78
17.36
16.73
15.74
14.35
12.58
10.50
8.23
5.91
3.68
1.66
-0.13
-1.74
-3.41
-5.46
-8.26
-12.00
-16.62
-21.63
-26.28
-29.69
-31.13
-30.22
-26.97
-21.74
-15.07
-7.56
0.22
7.68
14.31
19.59
23.19
25.04
25.39
24.73
23.57
22.30
21.11
19.99
18.88
17.81
16.87
16.23
15.95
15.92
15.93
15.69
14.98
13.70
11.90
9.69
7.18
4.52
1.78
-0.91
-3.49
-5.96
-8.43
-11.12
-14.23
-17.86
-21.79
-25.55
-28.45
-29.79
-29.05
-26.02
-20.82
-13.84
-5.67
3.05
11.64
19.52
26.24
31.50
35.22
37.43
38.30
38.02
36.87
35.13
33.14
31.21
29.56
28.26
27.24
26.31
25.27
23.98
22.41
20.65
18.79
16.88
14.87
12.66
10.13
7.28
4.19
1.04
-2.01
-4.85
-7.46
-9.90
-12.30
-14.85
-17.79
-21.37
-25.75
-30.83
-36.20
-41.10
-44.66
-46.08
-44.94
-41.32
-35.72
-28.88
-21.56
-14.39
-7.83
-2.17
2.42
5.90
8.38
10.15
11.58
12.97
14.43
15.80
16.77
17.05
16.57
15.53
14.29
13.24
12.58
12.28
12.14
11.99
11.71
11.30
10.76
10.05
9.03
7.53
5.46
2.88
-0.04
-3.08
-6.11
-9.11
-12.14
-15.28
-18.59
-22.12
-25.90
-29.96
-34.31
-38.81
-43.13
-46.73
-49.00
-49.35
-47.42
-43.18
-36.94
-29.27
-20.87
-12.47
-4.69
2.02
7.40
11.41
14.19
16.02
17.24
18.14
18.94
19.71
20.44
21.09
21.63
22.12
22.54
22.90
23.09
23.02
22.64
21.94
20.96
19.74
18.25
16.42
14.21
11.66
8.89
6.06
3.30
0.67
-1.88
-4.42
-7.05
-9.83
-12.84
-16.15
-19.79
-23.64
-27.42
-30.65
-32.78
-33.26
-31.76
-28.21
-22.87
-16.19
-8.81
-1.36
5.61
11.69
16.65
20.42
23.07
24.75
25.66
26.00
25.89
25.40
24.58
23.48
22.16
20.74
19.37
18.23
17.42
16.96
16.78
16.69
16.47
15.95
15.02
13.68
11.98
10.05
7.97
5.82
3.54
1.10
-1.55
-4.38
-7.28
-10.14
-12.84
-15.38
-17.86
-20.46
-23.35
-26.66
-30.34
-34.15
-37.70
-40.45
-41.84
-41.44
-39.01
-34.59
-28.49
-21.21
-13.29
-5.29
2.29
9.02
14.53
18.62
21.27
22.65
23.05
22.85
22.32
21.60
20.75
19.76
18.69
17.66
16.85
16.39
16.29
16.44
16.63
16.64
16.27
15.42
14.02
12.15
9.91
7.47
5.02
2.74
0.74
-0.98
-2.55
-4.19
-6.11
-8.41
-11.02
-13.72
-16.27
-18.54
-20.57
-22.57
-24.82
-27.51
-30.64
-34.00
-37.17
-39.66
-40.97
-40.71
-38.68
-34.86
-29.45
-22.83
-15.51
-8.02
-0.85
5.60
11.02
15.20
18.10
19.78
20.47
20.45
20.10
19.69
19.35
19.09
18.80
18.39
17.85
17.28
16.85
16.66
16.65
16.63
16.30
15.46
14.04
12.13
9.97
7.76
5.65
3.67
1.73
-0.32
-2.60
-5.17
-7.98
-10.88
-13.68
-16.18
-18.32
-20.18
-22.00
-24.10
-26.71
-29.81
-33.09
-35.96
-37.70
-37.70
-35.62
-31.44
-25.50
-18.34
-10.63
-2.99
4.03
10.08
14.95
18.62
21.21
22.88
23.77
24.02
23.76
23.17
22.45
21.76
21.20
20.78
20.40
19.99
19.49
18.97
18.49
18.08
17.65
17.02
16.00
14.48
12.50
10.23
7.87
5.62
3.56
1.71
-0.06
-1.87
-3.85
-6.04
-8.38
-10.78
-13.20
-15.65
-18.29
-21.30
-24.84
-28.86
-33.14
-37.23
-40.54
-42.51
-42.64
-40.67
-36.57
-30.58
-23.22
-15.18
-7.18
0.17
6.41
11.36
15.05
17.63
19.28
20.19
20.49
20.28
19.68
18.85
17.97
17.22
16.69
16.38
16.15
15.84
15.32
14.54
13.54
12.38
11.13
9.81
8.41
6.92
5.32
3.57
1.62
-0.56
-2.98
-5.55
-8.11
-10.45
-12.47
-14.20
-15.83
-17.63
-19.86
-22.63
-25.89
-29.46
-32.96
-35.85
-37.55
-37.49
-35.31
-31.01
-24.90
-17.55
-9.62
-1.69
5.77
12.39
17.86
21.94
24.57
25.83
26.03
25.51
24.62
23.57
22.46
21.31
20.12
18.91
17.71
16.52
15.35
14.19
13.06
11.97
10.93
9.90
8.82
7.59
6.14
4.36
2.23
-0.27
-3.09
-6.10
-9.15
-12.11
-14.90
-17.59
-20.32
-23.31
-26.73
-30.60
-34.69
-38.54
-41.52
-42.96
-42.29
-39.29
-34.06
-27.04
-18.87
-10.20
-1.65
6.30
13.31
19.09
23.48
26.43
28.05
28.58
28.35
27.66
26.75
25.72
24.61
23.44
22.25
21.07
20.01
19.12
18.38
17.74
17.08
16.24
15.10
13.60
11.71
9.49
6.99
4.29
1.45
-1.49
-4.45
-7.34
-10.13
-12.84
-15.56
-18.48
-21.78
-25.56
-29.70
-33.83
-37.30
-39.37
-39.40
-37.00
-32.23
-25.46
-17.39
-8.77
-0.34
7.37
13.98
19.34
23.44
26.31
28.01
28.63
28.25
27.06
25.37
23.57
22.01
20.91
20.23
19.76
19.27
18.62
17.82
16.99
16.24
15.49
14.54
13.11
11.02
8.27
4.98
1.37
-2.35
-6.05
-9.65
-13.08
-16.28
-19.23
-21.99
-24.74
-27.65
-30.89
-34.39
-37.82
-40.62
-42.13
-41.78
-39.24
-34.50
-27.89
-19.98
-11.46
-2.96
5.00
12.01
17.80
22.21
25.17
26.72
27.06
26.44
25.19
23.65
22.06
20.59
19.29
18.12
17.03
15.99
15.01
14.08
13.20
12.22
10.96
9.24
6.94
4.11
0.96
-2.23
-5.26
-8.03
-10.64
-13.34
-16.40
-20.03
-24.30
-29.10
-34.08
-38.66
-42.14
-43.78
-42.99
-39.56
-33.68
-25.96
-17.25
-8.40
-0.02
7.51
14.06
19.59
24.03
27.26
29.21
29.93
29.63
28.67
27.45
26.26
25.21
24.27
23.31
22.22
20.96
19.61
18.27
17.00
15.73
14.28
12.45
10.09
7.18
3.87
0.36
-3.13
-6.44
-9.52
-12.42
-15.26
-18.21
-21.46
-25.21
-29.56
-34.41
-39.43
-43.99
-47.30
-48.58
-47.26
-43.21
-36.71
-28.43
-19.23
-9.92
-1.11
6.76
13.49
18.96
23.11
25.95
27.60
28.25
28.18
27.66
26.93
26.10
25.22
24.31
23.37
22.46
21.64
20.95
20.36
19.74
18.89
17.62
15.82
13.46
10.65
7.55
4.39
1.30
-1.63
-4.40
-7.08
-9.86
-12.96
-16.63
-21.03
-26.08
-31.38
-36.26
-39.91
-41.56
-40.73
-37.34
-31.72
-24.49
-16.41
-8.20
-0.37
6.72
12.87
17.89
21.63
23.96
24.85
24.45
23.08
21.20
19.24
17.46
15.94
14.59
13.27
11.91
10.55
9.31
8.29
7.51
6.86
6.18
5.30
4.11
2.59
0.78
-1.25
-3.45
-5.75
-8.12
-10.51
-12.90
-15.34
-17.93
-20.76
-23.86
-27.01
-29.82
-31.70
-32.07
-30.55
-27.01
-21.68
-14.96
-7.40
0.50
8.26
15.49
21.78
26.82
30.38
32.38
32.97
32.43
31.15
29.51
27.80
26.15
24.57
23.00
21.34
19.59
17.81
16.13
14.68
13.46
12.34
11.04
9.28
6.84
3.74
0.18
-3.50
-7.01
-10.23
-13.18
-16.01
-18.91
-21.99
-25.35
-29.03
-33.04
-37.26
-41.35
-44.73
-46.63
-46.27
-43.17
-37.34
-29.27
-19.85
-10.03
-0.65
7.79
15.01
20.93
25.53
28.84
30.89
31.79
31.72
30.95
29.77
28.42
27.08
25.83
24.69
23.63
22.58
21.49
20.32
19.06
17.75
16.42
15.07
13.66
12.08
10.19
7.98
5.52
2.96
0.45
-1.98
-4.43
-7.09
-10.14
-13.63
-17.50
-21.66
-26.03
-30.49
-34.82
-38.62
-41.29
-42.17
-40.76
-36.90
-30.81
-23.02
-14.17
-4.95
4.02
12.19
19.10
24.39
27.89
29.66
30.00
29.35
28.14
26.73
25.31
23.96
22.68
21.42
20.13
18.75
17.23
15.59
13.95
12.44
11.15
10.01
8.74
6.96
4.45
1.17
-2.59
-6.42
-9.93
-13.00
-15.71
-18.27
-20.90
-23.69
-26.64
-29.72
-32.91
-36.15
-39.22
-41.69
-42.94
-42.34
-39.43
-34.10
-26.70
-17.88
-8.47
0.76
9.19
16.42
22.25
26.58
29.45
30.97
31.32
30.75
29.55
27.99
26.32
24.71
23.19
21.70
20.10
18.32
16.37
14.40
12.61
11.14
9.92
8.70
7.17
5.04
2.28
-0.91
-4.16
-7.09
-9.52
-11.50
-13.29
-15.26
-17.82
-21.25
-25.59
-30.57
-35.59
-39.80
-42.30
-42.38
-39.73
-34.57
-27.49
-19.31
-10.78
-2.43
5.39
12.46
18.55
23.41
26.79
28.64
29.08
28.45
27.20
25.73
24.30
23.02
21.87
20.86
19.99
19.28
18.76
18.40
18.09
17.71
17.14
16.32
15.19
13.74
11.95
9.78
7.22
4.29
1.10
-2.25
-5.61
-8.90
-12.05
-15.10
-18.15
-21.40
-25.12
-29.45
-34.31
-39.27
-43.56
-46.29
-46.65
-44.26
-39.19
-31.97
-23.31
-14.02
-4.76
3.94
11.66
18.11
23.11
26.60
28.71
29.65
29.71
29.18
28.30
27.27
26.22
25.19
24.22
23.28
22.37
21.47
20.59
19.71
18.82
17.84
16.70
15.33
13.66
11.66
9.30
6.62
3.71
0.68
-2.36
-5.32
-8.17
-10.92
-13.64
-16.42
-19.38
-22.64
-26.29
-30.38
-34.76
-39.13
-42.95
-45.57
-46.34
-44.84
-40.95
-34.90
-27.26
-18.73
-10.07
-1.90
5.33
11.36
16.04
19.33
21.25
21.92
21.57
20.55
19.29
18.16
17.42
17.14
17.23
17.52
17.85
18.09
18.19
18.12
17.88
17.47
16.88
16.11
15.09
13.81
12.23
10.40
8.44
6.45
4.51
2.58
0.49
-2.00
-5.08
-8.90
-13.48
-18.72
-24.37
-29.99
-34.93
-38.40
-39.61
-38.04
-33.62
-26.84
-18.52
-9.67
-1.12
6.58
13.12
18.38
22.27
24.74
25.84
25.71
24.64
23.00
21.17
19.40
17.87
16.63
15.72
15.11
14.77
14.62
14.55
14.39
14.02
13.33
12.26
10.85
9.14
7.17
4.95
2.44
-0.38
-3.46
-6.66
-9.81
-12.78
-15.59
-18.37
-21.34
-24.74
-28.67
-33.11
-37.77
-42.19
-45.71
-47.68
-47.49
-44.81
-39.68
-32.46
-23.85
-14.65
-5.61
2.70
9.92
15.91
20.68
24.27
26.78
28.24
28.76
28.47
27.58
26.35
25.05
23.83
22.77
21.82
20.94
20.04
19.08
18.05
16.92
15.60
14.02
12.12
9.93
7.53
5.08
2.65
0.28
-2.13
-4.72
-7.61
-10.83
-14.31
-17.91
-21.50
-25.07
-28.72
-32.56
-36.58
-40.50
-43.73
-45.50
-45.08
-42.04
-36.43
-28.76
-19.92
-10.80
-2.15
5.60
12.29
17.94
22.51
25.82
27.69
28.02
27.03
25.26
23.40
22.01
21.29
21.02
20.73
19.97
18.57
16.68
14.65
12.82
11.33
10.12
8.95
7.55
5.69
3.30
0.40
-2.87
-6.27
-9.53
-12.48
-15.09
-17.49
-19.90
-22.53
-25.54
-28.96
-32.72
-36.64
-40.39
-43.41
-45.04
-44.60
-41.65
-36.19
-28.67
-19.89
-10.71
-1.81
6.39
13.67
19.86
24.79
28.29
30.33
31.10
30.96
30.31
29.45
28.46
27.31
25.97
24.50
23.06
21.84
20.89
20.10
19.23
18.00
16.18
13.68
10.56
6.96
3.11
-0.76
-4.44
-7.80
-10.88
-13.90
-17.17
-21.03
-25.65
-30.91
-36.35
-41.21
-44.62
-45.82
-44.40
-40.35
-34.11
-26.36
-17.90
-9.42
-1.50
5.48
11.26
15.70
18.77
20.57
21.31
21.22
20.57
19.54
18.24
16.75
15.18
13.67
12.42
11.58
11.23
11.24
11.34
11.19
10.48
9.08
6.97
4.32
1.32
-1.85
-5.03
-8.12
-11.07
-13.92
-16.84
-20.07
-23.82
-28.11
-32.61
-36.63
-39.27
-39.70
-37.45
-32.50
-25.24
-16.33
-6.50
3.51
13.04
21.45
28.22
33.06
35.95
37.17
37.18
36.46
35.35
34.04
32.61
31.10
29.55
28.00
26.44
24.79
22.99
21.00
18.78
16.31
13.57
10.55
7.26
3.80
0.29
-3.16
-6.52
-9.87
-13.37
-17.16
-21.34
-25.91
-30.72
-35.43
-39.55
-42.44
-43.45
-42.12
-38.29
-32.24
-24.57
-16.07
-7.52
0.46
7.43
13.15
17.50
20.49
22.24
22.93
22.85
22.29
21.57
20.87
20.29
19.83
19.41
18.97
18.46
17.83
17.05
16.05
14.77
13.18
11.36
9.39
7.36
5.25
2.96
0.35
-2.75
-6.41
-10.67
-15.50
-20.76
-26.10
-30.93
-34.47
-35.96
-34.87
-31.14
-25.22
-17.86
-9.87
-1.94
5.50
12.13
17.71
22.00
24.80
26.07
26.00
24.98
23.44
21.75
20.14
18.65
17.26
15.91
14.56
13.20
11.83
10.48
9.14
7.80
6.41
4.87
3.07
0.91
-1.67
-4.63
-7.90
-11.34
-14.86
-18.37
-21.89
-25.51
-29.38
-33.62
-38.18
-42.72
-46.52
-48.73
-48.55
-45.52
-39.70
-31.60
-21.99
-11.65
-1.29
8.50
17.23
24.49
30.01
33.70
35.69
36.26
35.81
34.69
33.23
31.68
30.24
29.01
28.01
27.15
26.24
25.17
23.90
22.47
21.02
19.59
18.11
16.38
14.13
11.18
7.53
3.42
-0.79
-4.75
-8.28
-11.43
-14.44
-17.65
-21.34
-25.68
-30.64
-35.95
-41.14
-45.54
-48.36
-48.95
-46.91
-42.30
-35.58
-27.51
-18.88
-10.36
-2.39
4.71
10.69
15.33
18.42
19.96
20.15
19.41
18.25
17.14
16.39
16.15
16.39
16.93
17.55
17.99
18.12
17.96
17.65
17.35
17.09
16.72
15.96
14.52
12.29
9.36
5.92
2.16
-1.82
-6.02
-10.43
-14.98
-19.53
-23.96
-28.17
-32.04
-35.35
-37.69
-38.54
-37.43
-34.14
-28.80
-21.84
-13.82
-5.30
3.27
11.55
19.21
25.88
31.17
34.76
36.48
36.42
34.91
32.45
29.63
26.91
24.58
22.66
21.00
19.40
17.72
15.99
14.31
12.79
11.41
10.04
8.49
6.56
4.17
1.33
-1.87
-5.31
-8.87
-12.45
-16.02
-19.57
-23.19
-27.00
-31.20
-35.90
-41.08
-46.41
-51.26
-54.78
-56.13
-54.72
-50.40
-43.47
-34.63
-24.70
-14.50
-4.67
4.30
12.03
18.21
22.63
25.19
26.00
25.35
23.67
21.44
19.11
17.00
15.24
13.82
12.63
11.60
10.75
10.26
10.39
11.29
12.94
15.03
17.05
18.49
19.01
18.54
17.23
15.32
13.00
10.35
7.37
4.04
0.38
-3.59
-7.87
-12.44
-17.24
-22.04
-26.40
-29.70
-31.24
-30.43
-27.05
-21.27
-13.70
-5.21
3.32
11.23
18.15
23.94
28.59
32.09
34.41
35.58
35.75
35.18
34.19
33.03
31.82
30.59
29.32
28.06
26.89
25.87
24.99
24.07
22.86
21.12
18.75
15.75
12.22
8.36
4.36
0.42
-3.28
-6.63
-9.67
-12.60
-15.73
-19.40
-23.80
-28.82
-33.97
-38.55
-41.73
-42.85
-41.58
-37.95
-32.33
-25.26
-17.40
-9.37
-1.68
5.24
11.05
15.55
18.66
20.46
21.19
21.14
20.61
19.82
18.87
17.77
16.55
15.28
14.09
13.16
12.59
12.35
12.25
12.03
11.38
10.15
8.31
5.97
3.30
0.43
-2.54
-5.55
-8.58
-11.58
-14.54
-17.55
-20.79
-24.43
-28.56
-33.00
-37.22
-40.48
-41.96
-41.10
-37.74
-32.17
-24.99
-16.95
-8.73
-0.88
6.23
12.35
17.29
21.02
23.55
25.01
25.61
25.57
25.13
24.44
23.61
22.70
21.75
20.79
19.80
18.79
17.76
16.71
15.61
14.43
13.07
11.43
9.44
7.03
4.19
1.00
-2.44
-5.97
-9.45
-12.83
-16.10
-19.40
-22.88
-26.69
-30.81
-34.94
-38.52
-40.83
-41.22
-39.31
-35.16
-29.17
-22.00
-14.33
-6.74
0.30
6.45
11.43
15.06
17.33
18.37
18.49
18.06
17.42
16.79
16.27
15.82
15.36
14.81
14.15
13.45
12.76
12.14
11.53
10.81
9.77
8.25
6.16
3.58
0.71
-2.24
-5.09
-7.78
-10.47
-13.39
-16.77
-20.71
-25.03
-29.25
-32.73
-34.78
-34.91
-32.88
-28.80
-23.02
-16.06
-8.51
-0.98
5.96
11.84
16.33
19.35
21.02
21.63
21.52
21.00
20.23
19.28
18.14
16.82
15.38
13.94
12.61
11.47
10.52
9.66
8.75
7.62
6.16
4.33
2.16
-0.26
-2.88
-5.62
-8.48
-11.42
-14.46
-17.66
-21.08
-24.82
-28.88
-33.06
-36.92
-39.81
-41.02
-40.01
-36.60
-30.99
-23.80
-15.77
-7.65
-0.02
6.68
12.21
16.43
19.31
20.94
21.49
21.20
20.32
19.09
17.68
16.28
15.01
14.01
13.31
12.86
12.52
12.16
11.63
10.83
9.73
8.31
6.56
4.49
2.14
-0.40
-3.01
-5.61
-8.17
-10.77
-13.62
-16.96
-20.94
-25.51
-30.32
-34.72
-37.91
-39.15
-38.00
-34.42
-28.77
-21.65
-13.74
-5.63
2.18
9.23
15.12
19.51
22.21
23.28
23.07
22.08
20.82
19.62
18.58
17.58
16.46
15.16
13.72
12.31
11.09
10.09
9.23
8.30
7.14
5.62
3.77
1.65
-0.67
-3.15
-5.76
-8.47
-11.23
-14.02
-16.93
-20.10
-23.73
-27.76
-31.88
-35.40
-37.49
-37.44
-34.87
-29.87
-22.91
-14.63
-5.73
3.17
11.49
18.71
24.38
28.22
30.22
30.62
29.87
28.44
26.75
25.02
23.36
21.72
20.07
18.45
16.91
15.58
14.55
13.77
13.04
12.06
10.52
8.29
5.46
2.34
-0.70
-3.40
-5.75
-7.93
-10.26
-13.06
-16.54
-20.76
-25.58
-30.65
-35.38
-39.01
-40.76
-40.02
-36.60
-30.77
-23.19
-14.64
-5.89
2.54
10.26
17.00
22.51
26.53
28.95
29.82
29.39
28.10
26.42
24.72
23.22
21.96
20.83
19.64
18.25
16.61
14.81
13.00
11.29
9.67
7.95
5.92
3.44
0.53
-2.64
-5.88
-9.04
-12.18
-15.46
-19.13
-23.43
-28.48
-34.28
-40.64
-47.16
-53.21
-57.94
-60.43
-59.91
-55.97
-48.75
-38.92
-27.59
-15.93
-4.95
4.69
12.74
19.20
24.12
27.58
29.63
30.43
30.23
29.41
28.33
27.23
26.19
25.14
24.03
22.82
21.62
20.53
19.63
18.83
17.95
16.74
15.04
12.80
10.14
7.29
4.47
1.83
-0.61
-2.97
-5.52
-8.54
-12.22
-16.56
-21.24
-25.67
-29.12
-30.90
-30.53
-27.87
-23.11
-16.69
-9.21
-1.32
6.39
13.37
19.19
23.57
26.40
27.77
27.93
27.23
26.04
24.66
23.27
21.95
20.69
19.44
18.14
16.79
15.41
14.07
12.80
11.57
10.30
8.83
7.05
4.92
2.49
-0.09
-2.69
-5.23
-7.84
-10.75
-14.26
-18.58
-23.69
-29.24
-34.58
-38.93
-41.51
-41.77
-39.47
-34.74
-27.98
-19.77
-10.75
-1.53
7.31
15.28
21.99
27.14
30.62
32.50
33.03
32.57
31.52
30.20
28.84
27.53
26.28
25.04
23.76
22.37
20.85
19.20
17.42
15.49
13.39
11.07
8.50
5.68
2.63
-0.62
-4.01
-7.52
-11.13
-14.82
-18.64
-22.63
-26.84
-31.19
-35.39
-38.90
-40.98
-40.93
-38.33
-33.25
-26.21
-18.09
-9.76
-1.93
4.96
10.69
15.18
18.39
20.32
21.07
20.84
20.02
18.97
17.99
17.16
16.41
15.57
14.51
13.23
11.86
10.60
9.59
8.85
8.26
7.57
6.52
4.97
2.91
0.46
-2.18
-4.84
-7.48
-10.20
-13.19
-16.67
-20.70
-25.09
-29.41
-33.03
-35.27
-35.58
-33.66
-29.52
-23.48
-16.10
-8.03
0.04
7.50
13.89
18.92
22.45
24.51
25.26
24.92
23.79
22.18
20.35
18.49
16.71
15.03
13.42
11.87
10.42
9.09
7.88
6.68
5.35
3.72
1.73
-0.59
-3.13
-5.75
-8.35
-10.98
-13.74
-16.79
-20.25
-24.19
-28.52
-33.02
-37.22
-40.47
-42.01
-41.20
-37.71
-31.70
-23.72
-14.63
-5.26
3.69
11.77
18.67
24.16
28.07
30.33
31.04
30.52
29.17
27.42
25.58
23.85
22.26
20.82
19.49
18.28
17.15
16.08
15.00
13.85
12.50
10.84
8.76
6.26
3.37
0.24
-2.94
-6.05
-9.06
-12.07
-15.32
-19.08
-23.51
-28.55
-33.84
-38.72
-42.38
-44.10
-43.44
-40.32
-35.00
-28.00
-19.97
-11.52
-3.25
4.37
10.91
16.12
19.85
22.09
23.01
22.83
21.89
20.48
18.86
17.17
15.50
13.90
12.43
11.24
10.43
10.04
9.97
10.00
9.82
9.19
7.96
6.12
3.78
1.13
-1.64
-4.37
-6.96
-9.47
-12.07
-15.01
-18.52
-22.59
-26.93
-30.92
-33.76
-34.69
-33.19
-29.14
-22.82
-14.84
-5.98
2.96
11.26
18.38
23.92
27.67
29.64
30.01
29.16
27.58
25.68
23.74
21.84
19.94
17.97
15.93
13.92
12.09
10.54
9.24
8.07
6.86
5.50
3.96
2.30
0.61
-1.17
-3.16
-5.50
-8.27
-11.43
-14.89
-18.54
-22.40
-26.54
-30.93
-35.29
-39.01
-41.30
-41.43
-39.01
-34.14
-27.32
-19.29
-10.75
-2.26
5.74
12.87
18.75
23.03
25.52
26.32
25.80
24.55
23.17
22.07
21.41
21.07
20.83
20.47
19.91
19.17
18.34
17.50
16.66
15.75
14.64
13.19
11.30
8.97
6.30
3.44
0.54
-2.37
-5.38
-8.71
-12.60
-17.16
-22.30
-27.71
-32.89
-37.22
-40.09
-40.91
-39.32
-35.21
-28.79
-20.62
-11.41
-1.97
7.00
14.97
21.58
26.65
30.09
31.98
32.51
32.02
30.86
29.33
27.59
25.66
23.53
21.25
18.93
16.70
14.66
12.80
11.03
9.22
7.24
5.00
2.45
-0.38
-3.43
-6.54
-9.56
-12.35
-14.93
-17.43
-20.12
-23.25
-26.96
-31.17
-35.48
-39.31
-41.93
-42.72
-41.24
-37.40
-31.49
-24.04
-15.69
-7.07
1.27
8.88
15.43
20.65
24.41
26.74
27.81
27.88
27.28
26.26
25.01
23.60
22.07
20.43
18.71
16.95
15.23
13.54
11.85
10.04
8.00
5.61
2.89
-0.09
-3.20
-6.31
-9.34
-12.34
-15.42
-18.83
-22.81
-27.42
-32.48
-37.43
-41.44
-43.58
-43.18
-40.01
-34.33
-26.83
-18.31
-9.51
-1.00
6.81
13.60
19.13
23.20
25.80
27.09
27.33
26.86
25.94
24.74
23.34
21.80
20.19
18.60
17.15
15.88
14.76
13.65
12.30
10.46
7.99
4.90
1.37
-2.28
-5.73
-8.79
-11.44
-13.87
-16.39
-19.36
-23.03
-27.40
-32.16
-36.66
-40.06
-41.53
-40.52
-36.84
-30.77
-22.91
-14.02
-4.81
4.11
12.30
19.39
25.09
29.22
31.72
32.73
32.54
31.53
30.08
28.45
26.77
25.05
23.24
21.35
19.41
17.52
15.73
14.04
12.39
10.65
8.72
6.52
4.01
1.14
-2.04
-5.50
-9.14
-12.91
-16.75
-20.75
-25.00
-29.60
-34.40
-38.97
-42.61
-44.48
-43.95
-40.79
-35.29
-28.11
-20.03
-11.73
-3.71
3.74
10.39
16.00
20.30
23.11
24.42
24.46
23.55
22.06
20.22
18.20
16.08
13.97
12.08
10.61
9.65
9.12
8.76
8.22
7.23
5.68
3.67
1.38
-1.05
-3.56
-6.24
-9.17
-12.45
-16.11
-20.12
-24.40
-28.76
-32.83
-36.11
-37.91
-37.56
-34.65
-29.16
-21.53
-12.56
-3.18
5.77
13.66
20.14
25.04
28.30
29.95
30.11
29.00
26.95
24.33
21.54
18.82
16.36
14.19
12.30
10.66
9.17
7.71
6.12
4.22
1.90
-0.87
-4.01
-7.35
-10.72
-13.98
-17.07
-20.02
-22.97
-26.11
-29.66
-33.71
-38.13
-42.44
-45.89
-47.64
-46.96
-43.55
-37.57
-29.54
-20.18
-10.22
-0.28
9.14
17.56
24.61
30.03
33.75
35.89
36.72
36.51
35.56
34.06
32.26
30.40
28.72
27.37
26.32
25.37
24.24
22.66
20.55
17.98
15.16
12.30
9.55
6.91
4.31
1.61
-1.29
-4.47
-7.98
-11.92
-16.38
-21.34
-26.57
-31.52
-35.35
-37.18
-36.32
-32.59
-26.32
-18.29
-9.40
-0.49
7.83
15.16
21.23
25.84
28.83
30.18
30.00
28.53
26.15
23.23
20.09
17.01
14.20
11.80
9.87
8.33
7.01
5.70
4.26
2.67
0.98
-0.71
-2.37
-4.02
-5.76
-7.64
-9.71
-12.05
-14.77
-18.02
-21.90
-26.33
-30.92
-34.96
-37.58
-37.94
-35.54
-30.37
-22.90
-13.92
-4.38
4.88
13.23
20.28
25.86
29.90
32.42
33.53
33.43
32.45
30.92
29.19
27.45
25.78
24.17
22.56
20.91
19.20
17.41
15.49
13.36
10.92
8.12
4.98
1.59
-1.93
-5.45
-8.93
-12.43
-16.09
-20.10
-24.59
-29.53
-34.65
-39.41
-43.06
-44.85
-44.17
-40.74
-34.70
-26.56
-17.09
-7.15
2.47
11.13
18.44
24.20
28.39
31.13
32.61
33.01
32.54
31.39
29.76
27.87
25.90
23.99
22.24
20.66
19.22
17.84
16.40
14.79
12.91
10.70
8.14
5.25
2.12
-1.17
-4.53
-7.89
-11.29
-14.87
-18.85
-23.42
-28.55
-33.91
-38.80
-42.33
-43.62
-42.12
-37.74
-30.89
-22.33
-12.92
-3.45
5.44
13.29
19.77
24.67
27.89
29.51
29.79
29.12
27.85
26.30
24.56
22.64
20.51
18.23
15.95
13.85
12.04
10.49
9.06
7.52
5.72
3.59
1.19
-1.40
-4.08
-6.84
-9.69
-12.65
-15.77
-19.11
-22.73
-26.69
-30.94
-35.23
-39.01
-41.54
-42.04
-39.97
-35.19
-28.04
-19.26
-9.78
-0.46
8.03
15.28
21.06
25.33
28.13
29.57
29.83
29.15
27.78
25.99
24.03
22.08
20.25
18.58
17.03
15.55
14.07
12.53
10.88
9.05
6.95
4.50
1.70
-1.40
-4.64
-7.86
-10.94
-13.90
-16.91
-20.24
-24.12
-28.58
-33.28
-37.57
-40.58
-41.47
-39.72
-35.29
-28.59
-20.37
-11.43
-2.47
5.98
13.53
19.88
24.75
27.98
29.59
29.79
28.95
27.47
25.74
23.97
22.21
20.42
18.54
16.57
14.56
12.60
10.75
9.02
7.29
5.44
3.33
0.91
-1.78
-4.61
-7.48
-10.28
-13.07
-15.99
-19.28
-23.14
-27.67
-32.70
-37.77
-42.11
-44.86
-45.24
-42.80
-37.60
-30.13
-21.20
-11.72
-2.50
5.88
13.04
18.82
23.20
26.23
28.07
28.95
29.11
28.81
28.21
27.44
26.51
25.39
24.07
22.57
20.96
19.33
17.74
16.11
14.30
12.13
9.45
6.31
2.89
-0.56
-3.81
-6.75
-9.42
-11.97
-14.55
-17.37
-20.57
-24.26
-28.42
-32.74
-36.63
-39.24
-39.75
-37.57
-32.64
-25.40
-16.62
-7.15
2.21
10.88
18.42
24.46
28.76
31.26
32.14
31.79
30.75
29.48
28.24
27.06
25.81
24.35
22.61
20.67
18.71
16.89
15.30
13.85
12.36
10.61
8.41
5.71
2.56
-0.88
-4.44
-7.94
-11.29
-14.49
-17.65
-20.93
-24.54
-28.65
-33.23
-37.99
-42.33
-45.46
-46.57
-45.11
-40.93
-34.35
-26.03
-16.81
-7.49
1.29
9.06
15.50
20.40
23.66
25.33
25.59
24.77
23.27
21.51
19.81
18.34
17.10
15.97
14.83
13.62
12.35
11.12
9.95
8.82
7.55
5.96
3.91
1.38
-1.54
-4.65
-7.79
-10.83
-13.81
-16.88
-20.25
-24.12
-28.51
-33.18
-37.54
-40.77
-42.00
-40.60
-36.38
-29.65
-21.15
-11.80
-2.49
6.07
13.41
19.29
23.65
26.57
28.19
28.73
28.42
27.52
26.25
24.77
23.20
21.60
19.99
18.39
16.84
15.34
13.87
12.40
10.82
9.02
6.99
4.72
2.30
-0.23
-2.87
-5.72
-8.89
-12.49
-16.57
-21.14
-26.16
-31.44
-36.62
-41.09
-44.09
-44.87
-42.94
-38.23
-31.11
-22.29
-12.58
-2.75
6.56
14.82
21.61
26.65
29.82
31.25
31.25
30.22
28.55
26.52
24.30
22.01
19.75
17.64
15.79
14.26
13.00
11.87
10.67
9.21
7.37
5.12
2.50
-0.34
-3.29
-6.25
-9.21
-12.23
-15.44
-19.01
-23.09
-27.74
-32.79
-37.78
-41.96
-44.46
-44.50
-41.70
-36.13
-28.38
-19.23
-9.52
0.03
8.90
16.69
23.09
27.90
31.05
32.66
33.02
32.50
31.48
30.20
28.79
27.28
25.69
24.03
22.39
20.84
19.43
18.15
16.92
15.64
14.17
12.38
10.16
7.49
4.43
1.14
-2.21
-5.51
-8.78
-12.22
-16.12
-20.69
-25.94
-31.49
-36.65
-40.48
-42.13
-41.05
-37.17
-30.91
-23.07
-14.50
-5.99
1.93
8.92
14.74
19.19
22.12
23.48
23.46
22.46
20.96
19.41
17.99
16.70
15.36
13.83
12.09
10.26
8.54
7.00
5.57
4.05
2.26
0.14
-2.21
-4.54
-6.66
-8.53
-10.28
-12.22
-14.68
-17.92
-22.01
-26.71
-31.50
-35.62
-38.23
-38.60
-36.28
-31.25
-23.92
-15.06
-5.60
3.58
11.81
18.68
24.04
27.89
30.31
31.43
31.41
30.42
28.68
26.41
23.83
21.12
18.48
16.05
13.97
12.30
10.97
9.80
8.55
7.00
5.04
2.67
0.05
-2.65
-5.31
-7.92
-10.61
-13.58
-17.07
-21.23
-26.01
-31.17
-36.17
-40.28
-42.70
-42.72
-39.95
-34.36
-26.33
-16.56
-5.91
4.78
14.81
23.62
30.83
36.23
39.75
41.51
41.81
41.08
39.77
38.23
36.62
34.88
32.83
30.32
27.29
23.81
20.04
16.16
12.33
8.61
5.04
1.56
-1.89
-5.42
-9.12
-13.04
-17.22
-21.68
-26.52
-31.84
-37.72
-44.09
-50.60
-56.66
-61.53
-64.48
-64.96
-62.68
-57.67
-50.27
-41.06
-30.85
-20.45
-10.67
-2.09
4.87
10.03
13.39
15.08
15.36
14.61
13.25
11.68
10.26
9.24
8.83
9.15
10.21
11.86
13.73
15.32
16.13
15.86
14.51
12.33
9.73
7.03
4.41
1.81
-0.92
-4.04
-7.77
-12.28
-17.66
-23.80
-30.27
-36.33
-40.98
-43.21
-42.28
-37.94
-30.58
-21.06
-10.49
0.07
9.79
18.16
24.92
29.93
33.13
34.55
34.35
32.89
30.67
28.26
26.11
24.45
23.30
22.55
22.09
21.86
21.88
22.10
22.33
22.26
21.51
19.81
17.12
13.62
9.61
5.38
1.11
-3.16
-7.57
-12.33
-17.69
-23.85
-30.80
-38.21
-45.37
-51.22
-54.65
-54.79
-51.29
-44.44
-35.01
-24.06
-12.67
-1.75
8.03
16.23
22.60
27.11
29.91
31.30
31.67
31.40
30.86
30.29
29.82
29.47
29.17
28.80
28.30
27.67
26.98
26.28
25.57
24.73
23.56
21.87
19.58
16.74
13.45
9.90
6.18
2.34
-1.67
-5.93
-10.59
-15.74
-21.40
-27.33
-32.97
-37.50
-39.93
-39.45
-35.71
-28.98
-20.06
-10.04
-0.03
9.10
16.78
22.75
26.96
29.53
30.70
30.80
30.16
29.03
27.59
25.94
24.17
22.40
20.72
19.21
17.86
16.66
15.58
14.65
13.91
13.34
12.80
12.03
10.73
8.70
5.90
2.51
-1.22
-5.11
-9.17
-13.58
-18.53
-24.04
-29.75
-34.93
-38.63
-39.96
-38.39
-33.94
-27.19
-19.03
-10.44
-2.25
4.96
10.92
15.52
18.82
20.98
22.20
22.70
22.69
22.32
21.67
20.79
19.71
18.42
16.97
15.43
13.92
12.52
11.30
10.16
8.92
7.32
5.15
2.39
-0.86
-4.34
-7.81
-11.12
-14.26
-17.33
-20.53
-24.07
-28.09
-32.52
-36.98
-40.76
-42.98
-42.79
-39.76
-33.98
-26.06
-16.88
-7.37
1.76
10.03
17.12
22.79
26.85
29.26
30.15
29.84
28.79
27.39
25.94
24.55
23.21
21.88
20.51
19.13
17.79
16.50
15.23
13.89
12.39
10.64
8.58
6.20
3.51
0.54
-2.67
-6.09
-9.71
-13.59
-17.82
-22.49
-27.61
-33.01
-38.24
-42.68
-45.60
-46.41
-44.78
-40.77
-34.72
-27.19
-18.80
-10.15
-1.78
5.85
12.34
17.38
20.85
22.76
23.38
23.05
22.14
20.96
19.72
18.48
17.25
15.98
14.69
13.38
12.08
10.79
9.44
7.92
6.18
4.24
2.21
0.21
-1.71
-3.57
-5.51
-7.74
-10.44
-13.80
-17.88
-22.57
-27.48
-31.90
-34.96
-35.81
-33.97
-29.46
-22.80
-14.83
-6.42
1.71
9.07
15.32
20.21
23.55
25.32
25.64
24.82
23.26
21.37
19.43
17.61
15.98
14.55
13.29
12.14
11.08
10.04
8.98
7.88
6.71
5.38
3.82
1.94
-0.31
-2.87
-5.63
-8.46
-11.34
-14.30
-17.53
-21.19
-25.35
-29.86
-34.27
-37.91
-40.05
-40.04
-37.54
-32.56
-25.49
-16.99
-7.82
1.28
9.68
16.97
22.91
27.42
30.54
32.40
33.21
33.18
32.57
31.58
30.40
29.11
27.76
26.38
25.06
23.86
22.85
22.00
21.22
20.33
19.19
17.74
16.02
14.09
12.01
9.79
7.44
4.99
2.45
-0.21
-3.15
-6.54
-10.43
-14.64
-18.60
-21.47
-22.42
-20.88
-16.75
-10.38
-2.45
6.27
15.12
23.63
31.50
38.54
44.52
49.22
52.41
53.91
53.71
51.89
48.65
44.20
38.68
32.07
24.21
14.84
3.72
-9.13
-23.14
-37.04
-48.93
-56.68
-58.50
-53.65
-42.84
-28.21
-12.98
-0.64
5.92
5.20
-2.45
-14.98
-29.18
-41.53
-49.05
-49.93
-43.79
-31.48
-14.84
3.70
21.56
36.31
46.14
50.18
48.57
42.33
32.93
21.83
10.23
-0.98
-11.05
-19.23
-24.82
-27.30
-26.79
-24.13
-20.87
-18.75
-19.03
-22.01
-26.79
-31.72
-35.07
-35.83
-34.01
-30.52
-26.58
-23.02
-20.03
-17.23
-14.12
-10.62
-7.25
-5.02
-4.99
-7.75
-13.07
-19.80
-26.14
-30.24
-30.73
-27.16
-20.10
-10.82
-0.81
8.72
17.04
23.92
29.29
33.05
34.99
34.85
32.56
28.30
22.49
15.54
7.61
-1.31
-11.34
-22.29
-33.46
-43.61
-51.38
-55.93
-57.33
-56.76
-55.99
-56.69
-59.74
-64.95
-71.28
-77.36
-82.16
-85.28
-86.94
-87.79
-88.59
-89.93
-92.16
-95.39
-99.47
-103.98
-108.18
-111.01
-111.21
-107.50
-98.96
-85.29
-67.11
-45.89
-23.65
-2.36
16.64
32.95
46.97
59.54
71.27
82.26
92.07
100.11
105.95
109.60
111.41
111.88
111.36
110.00
107.93
105.29
102.31
99.23
96.12
92.77
88.78
83.72
77.34
69.76
61.39
52.88
44.84
37.67
31.40
25.73
20.12
13.94
6.78
-1.50
-10.58
-19.71
-27.85
-33.94
-37.18
-37.29
-34.54
-29.59
-23.30
-16.34
-9.13
-1.85
5.38
12.36
18.71
23.99
27.87
30.28
31.48
31.93
32.08
32.17
32.20
31.98
31.31
30.21
28.94
27.93
27.55
27.96
29.01
30.36
31.52
32.02
31.42
29.29
25.31
19.29
11.32
1.83
-8.58
-19.25
-29.63
-39.34
-48.05
-55.36
-60.69
-63.49
-63.32
-60.19
-54.57
-47.28
-39.17
-30.90
-22.80
-15.02
-7.65
-0.90
4.86
9.33
12.40
14.25
15.29
15.99
16.61
17.22
17.72
17.99
17.93
17.61
17.22
17.08
17.44
18.34
19.63
20.95
21.88
22.00
21.15
19.54
17.76
16.41
15.72
15.51
15.19
13.96
11.08
6.24
-0.09
-6.63
-11.82
-14.60
-14.60
-12.33
-9.03
-6.34
-5.65
-7.57
-11.67
-16.80
-21.71
-24.93
-25.06
-21.03
-12.66
-2.05
7.12
11.84
12.48
9.97
5.18
-1.26
-9.14
-18.62
-29.17
-39.73
-48.65
-54.05
-54.45
-48.95
-37.71
-22.63
-7.41
3.39
5.87
-1.46
-17.16
-37.49
-57.60
-73.14
-81.63
-83.02
-79.09
-72.56
-66.04
-61.70
-61.29
-65.84
-75.24
-88.41
-103.35
-117.39
-127.71
-131.50
-126.94
-113.84
-93.77
-69.16
-43.25
-19.37
-0.08
13.13
21.13
26.01
29.96
34.67
41.99
52.61
65.87
80.11
92.73
103.06
111.34
118.04
123.82
130.68
139.84
150.92
162.12
169.99
173.99
174.82
173.45
171.27
171.57
176.91
188.04
203.67
219.99
236.24
252.60
269.11
271.05
249.23
204.62
148.55
105.45
76.54
58.80
49.27
41.58
32.62
22.41
11.34
-0.83
-15.01
-33.59
-55.20
-77.28
-97.48
-113.66
-123.22
-125.11
-120.59
-112.90
-106.99
-104.57
-105.44
-108.46
-111.84
-113.34
-111.76
-107.40
-101.75
-97.36
-94.91
-94.38
-95.63
-98.33
-101.81
-105.37
-108.32
-110.16
-110.85
-109.80
-106.59
-101.25
-94.01
-85.12
-74.88
-63.65
-51.98
-40.69
-30.37
-21.51
-14.35
-8.80
-4.49
-0.84
2.74
6.63
10.91
15.25
19.10
21.91
23.34
23.43
22.56
21.24
19.87
18.59
17.28
15.68
13.64
11.23
8.74
6.60
5.12
4.43
4.44
4.88
5.52
6.22
7.04
8.25
10.21
13.22
17.34
22.31
27.61
32.60
36.77
39.83
41.83
43.00
43.53
43.47
42.63
40.74
37.60
33.29
28.26
23.11
18.46
14.70
11.90
9.89
8.36
6.96
5.24
2.60
-1.72
-8.40
-17.78
-29.57
-42.84
-56.26
-68.53
-78.83
-86.87
-92.79
-96.91
-99.41
-100.37
-99.73
-97.50
-93.75
-88.63
-82.24
-74.72
-66.15
-56.75
-46.79
-36.71
-27.00
-18.16
-10.56
-4.43
0.19
3.36
5.16
5.66
4.88
2.89
-0.10
-3.69
-7.33
-10.47
-12.74
-14.07
-14.70
-15.17
-16.14
-18.24
-21.87
-27.07
-33.35
-39.83
-45.40
-49.05
-50.15
-48.59
-44.76
-39.27
-32.68
-25.23
-16.81
-7.04
4.42
17.63
32.17
47.26
61.91
75.29
86.88
96.57
104.53
110.96
116.03
119.75
122.11
123.15
122.97
121.72
119.51
116.33
112.10
106.70
100.07
92.34
83.79
74.79
65.58
56.19
46.29
35.39
23.05
9.21
-5.56
-20.29
-33.89
-45.67
-55.57
-64.10
-71.98
-79.68
-87.20
-94.10
-99.75
-103.56
-105.16
-104.30
-100.82
-94.66
-86.00
-75.43
-64.01
-53.09
-43.98
-37.42
-33.33
-30.82
-28.40
-24.59
-18.39
-9.59
1.21
12.89
24.15
33.96
41.73
47.38
51.21
53.68
55.15
55.76
55.36
53.71
50.66
46.41
41.41
36.29
31.54
27.42
24.02
21.35
19.49
18.45
18.05
17.79
16.93
14.78
11.07
6.07
0.55
-4.64
-8.86
-12.02
-14.45
-16.76
-19.52
-23.03
-27.24
-31.71
-35.74
-38.54
-39.39
-37.90
-34.05
-28.19
-20.92
-12.93
-4.83
2.77
9.33
14.40
17.68
19.29
19.70
19.76
20.25
21.57
23.45
25.12
25.75
24.89
22.73
19.97
17.39
15.29
13.43
11.13
7.70
2.83
-3.31
-10.26
-17.50
-24.68
-31.59
-38.11
-44.11
-49.50
-54.23
-58.31
-61.67
-64.10
-65.21
-64.51
-61.64
-56.46
-49.08
-39.76
-28.82
-16.68
-3.97
8.44
19.51
28.25
34.10
37.01
37.50
36.40
34.69
33.24
32.63
33.15
34.74
37.10
39.79
42.49
45.02
47.36
49.50
51.16
51.75
50.44
46.37
38.92
27.88
13.54
-3.25
-21.03
-37.86
-51.59
-60.35
-63.13
-60.17
-52.92
-43.63
-34.69
-27.98
-24.40
-23.78
-25.07
-26.68
-27.00
-24.73
-19.24
-10.64
0.30
12.38
24.26
34.63
42.47
47.13
48.36
46.38
41.81
35.54
28.46
21.30
14.46
8.01
1.88
-3.99
-9.55
-14.71
-19.43
-23.90
-28.49
-33.64
-39.53
-46.01
-52.53
-58.41
-63.11
-66.46
-68.75
-70.57
-72.55
-75.11
-78.27
-81.58
-84.14
-84.82
-82.45
-76.18
-65.71
-51.45
-34.42
-16.05
2.20
19.02
33.40
44.65
52.35
56.38
57.02
55.02
51.58
48.12
45.96
45.96
48.30
52.52
57.76
63.11
67.84
71.59
74.24
75.86
76.61
76.73
76.45
76.01
75.52
74.92
73.89
71.94
68.50
62.95
54.76
43.58
29.45
12.94
-4.79
-22.11
-37.27
-48.84
-56.01
-58.76
-57.62
-53.41
-46.92
-38.83
-29.73
-20.21
-10.89
-2.34
5.03
11.00
15.55
18.66
20.34
20.56
19.49
17.53
15.32
13.66
13.21
14.27
16.64
19.71
22.59
24.50
24.92
23.76
21.31
18.03
14.37
10.64
6.92
3.19
-0.65
-4.67
-8.99
-13.65
-18.58
-23.45
-27.64
-30.29
-30.58
-28.00
-22.57
-14.82
-5.65
3.94
13.05
21.04
27.55
32.44
35.73
37.51
37.92
37.14
35.42
33.09
30.50
27.99
25.77
23.86
22.16
20.53
18.86
17.09
15.17
12.96
10.27
6.94
2.92
-1.56
-6.12
-10.29
-13.74
-16.35
-18.23
-19.68
-21.06
-22.67
-24.67
-26.97
-29.23
-30.86
-31.16
-29.50
-25.51
-19.18
-10.93
-1.46
8.41
17.86
26.19
32.88
37.57
40.11
40.58
39.24
36.53
32.91
28.86
24.75
20.80
17.17
13.94
11.12
8.65
6.36
4.02
1.40
-1.64
-5.07
-8.74
-12.45
-16.02
-19.36
-22.52
-25.59
-28.70
-31.97
-35.41
-38.89
-42.03
-44.24
-44.88
-43.42
-39.68
-33.83
-26.38
-17.93
-9.00
-0.07
8.45
16.13
22.50
27.25
30.27
31.76
32.09
31.62
30.59
29.11
27.23
25.03
22.67
20.31
18.05
15.85
13.60
11.23
8.77
6.35
4.18
2.45
1.26
0.60
0.32
0.18
-0.18
-1.19
-3.32
-6.97
-12.31
-19.16
-26.89
-34.45
-40.67
-44.55
-45.59
-43.85
-39.86
-34.30
-27.71
-20.43
-12.67
-4.77
2.72
9.08
13.66
16.15
16.68
15.76
14.03
12.02
10.09
8.40
7.13
6.52
6.87
8.36
10.91
14.15
17.51
20.34
22.19
22.84
22.31
20.76
18.32
15.11
11.17
6.51
1.09
-5.10
-11.99
-19.27
-26.19
-31.56
-34.03
-32.65
-27.37
-19.37
-10.72
-3.73
-0.06
-0.20
-3.45
-8.46
-13.91
-19.01
-23.61
-27.89
-32.00
-35.84
-39.09
-41.47
-42.96
-43.92
-44.91
-46.42
-48.67
-51.47
-54.35
-56.85
-58.73
-60.10
-61.37
-62.92
-64.93
-67.31
-69.82
-72.28
-74.84
-77.99
-82.36
-88.27
-95.43
-102.67
-108.18
-110.00
-106.61
-97.54
-83.40
-65.70
-46.30
-26.86
-8.54
8.00
22.39
34.32
43.51
49.82
53.46
55.06
55.52
55.68
56.11
56.92
57.79
58.30
58.06
56.95
55.05
52.60
49.79
46.75
43.48
39.94
36.10
31.99
27.76
23.54
19.43
15.40
11.22
6.62
1.39
-4.46
-10.55
-16.14
-20.26
-21.82
-19.92
-13.88
-3.44
11.21
29.44
50.09
71.63
92.24
110.07
123.47
131.30
133.28
129.90
122.37
112.30
101.30
90.60
80.79
71.77
63.03
54.24
45.39
36.96
29.79
24.69
21.98
21.23
21.33
20.91
19.28
16.37
12.81
9.55
7.41
6.65
6.86
7.15
6.44
4.28
0.50
-4.78
-11.11
-17.62
-23.00
-25.43
-22.87
-16.70
-8.03
1.09
7.92
9.89
5.61
-4.52
-18.49
-33.41
-46.85
-57.19
-64.24
-68.79
-71.47
-72.05
-69.63
-63.37
-53.37
-41.08
-28.08
-15.77
-5.08
3.97
11.89
19.08
25.28
29.60
30.98
27.73
20.88
12.47
4.65
-1.23
-4.88
-6.98
-8.43
-9.82
-10.95
-11.20
-10.13
-7.73
-4.51
-1.31
1.10
2.34
2.59
2.39
2.50
3.18
4.26
5.24
5.57
4.78
2.58
-1.20
-6.57
-13.23
-20.72
-28.23
-34.64
-38.83
-40.13
-38.72
-35.64
-32.45
-30.57
-30.80
-33.08
-36.72
-40.80
-44.62
-47.91
-50.73
-53.23
-55.46
-57.35
-58.74
-59.46
-59.33
-58.04
-55.08
-49.71
-41.20
-29.19
-14.00
3.23
20.73
36.51
48.84
56.70
59.91
59.18
55.87
51.64
48.09
46.31
46.54
48.11
49.66
49.64
46.97
41.39
33.58
24.78
16.24
8.90
3.18
-0.81
-3.17
-4.09
-3.98
-3.48
-3.43
-4.62
-7.46
-11.82
-17.06
-22.34
-26.99
-30.76
-33.78
-36.34
-38.62
-40.51
-41.62
-41.42
-39.46
-35.52
-29.68
-22.25
-13.69
-4.48
4.97
14.28
23.14
31.17
38.01
43.32
46.88
48.67
48.92
47.99
46.32
44.29
42.19
40.22
38.46
36.91
35.53
34.21
32.88
31.48
29.98
28.41
26.78
25.15
23.62
22.29
21.26
20.45
19.57
18.17
15.80
12.17
7.37
1.87
-3.64
-8.37
-11.74
-13.43
-13.43
-11.98
-9.49
-6.43
-3.28
-0.48
1.63
2.77
2.73
1.35
-1.42
-5.45
-10.42
-15.73
-20.68
-24.62
-27.14
-28.18
-28.00
-27.02
-25.64
-24.08
-22.41
-20.67
-18.97
-17.52
-16.58
-16.38
-17.05
-18.57
-20.79
-23.39
-25.93
-27.81
-28.54
-27.81
-25.71
-22.58
-18.91
-14.96
-10.72
-5.91
-0.29
6.14
13.14
20.34
27.53
34.76
42.19
49.74
56.91
62.77
66.36
67.14
65.29
61.66
57.39
53.47
50.33
47.90
45.77
43.50
40.83
37.64
33.88
29.48
24.34
18.43
11.97
5.39
-0.69
-5.75
-9.46
-11.88
-13.37
-14.39
-15.39
-16.62
-18.16
-20.04
-22.19
-24.57
-27.02
-29.22
-30.73
-31.04
-29.79
-26.85
-22.41
-16.92
-10.98
-5.13
0.21
4.79
8.46
11.13
12.65
12.94
12.03
10.17
7.84
5.60
3.92
2.95
2.56
2.43
2.22
1.75
1.04
0.16
-0.79
-1.75
-2.67
-3.51
-4.25
-4.97
-5.88
-7.25
-9.29
-11.98
-15.01
-17.87
-20.10
-21.50
-22.23
-22.74
-23.47
-24.64
-26.09
-27.27
-27.44
-25.98
-22.62
-17.55
-11.37
-4.87
1.18
6.26
10.11
12.73
14.18
14.57
13.93
12.35
9.97
7.11
4.23
1.77
0.12
-0.55
-0.26
0.75
2.14
3.53
4.59
5.11
5.03
4.48
3.68
2.81
2.00
1.17
0.12
-1.41
-3.61
-6.57
-10.24
-14.43
-18.85
-23.10
-26.70
-29.17
-30.11
-29.27
-26.65
-22.46
-17.13
-11.26
-5.43
-0.17
4.20
7.67
10.43
12.78
14.89
16.76
18.17
18.89
18.89
18.46
18.12
18.44
19.76
22.04
24.81
27.38
29.07
29.37
28.10
25.47
21.95
18.18
14.88
12.64
11.72
11.87
12.18
11.23
7.54
0.18
-10.70
-23.70
-36.63
-47.19
-53.80
-56.00
-54.37
-50.07
-44.34
-38.13
-32.06
-26.62
-22.26
-19.38
-18.20
-18.58
-19.99
-21.63
-22.67
-22.52
-21.01
-18.37
-15.15
-11.98
-9.36
-7.50
-6.33
-5.56
-4.91
-4.28
-3.84
-3.98
-5.05
-7.23
-10.33
-13.86
-17.33
-20.44
-23.30
-26.28
-29.76
-33.78
-37.98
-41.65
-44.06
-44.61
-43.05
-39.33
-33.53
-25.89
-16.82
-7.01
2.63
11.16
17.84
22.36
24.83
25.69
25.45
24.54
23.30
21.89
20.36
18.69
16.75
14.42
11.60
8.33
4.79
1.25
-2.00
-4.80
-7.19
-9.34
-11.52
-13.93
-16.64
-19.56
-22.50
-25.14
-27.12
-28.11
-27.88
-26.53
-24.49
-22.41
-20.87
-19.98
-19.26
-17.86
-15.00
-10.43
-4.63
1.51
7.09
11.71
15.60
19.36
23.65
28.79
34.74
41.11
47.38
52.99
57.41
60.23
61.22
60.47
58.38
55.49
52.32
49.18
46.18
43.29
40.47
37.72
35.05
32.29
29.16
25.31
20.50
14.74
8.36
1.86
-4.20
-9.37
-13.33
-15.87
-16.85
-16.22
-14.04
-10.53
-6.06
-1.13
3.74
8.09
11.65
14.37
16.42
18.08
19.56
20.86
21.72
21.69
20.40
17.75
14.06
9.98
6.24
3.38
1.56
0.56
0.02
-0.38
-0.76
-1.03
-1.10
-1.00
-1.00
-1.49
-2.82
-5.18
-8.49
-12.51
-16.89
-21.27
-25.25
-28.37
-30.10
-29.93
-27.52
-22.89
-16.51
-9.25
-2.16
3.74
7.71
9.42
8.96
6.72
3.31
-0.59
-4.33
-7.44
-9.64
-11.02
-11.93
-12.95
-14.62
-17.27
-20.89
-25.13
-29.42
-33.20
-36.07
-37.85
-38.64
-38.65
-38.13
-37.31
-36.33
-35.34
-34.45
-33.75
-33.19
-32.49
-31.14
-28.60
-24.43
-18.57
-11.37
-3.54
4.11
10.91
16.55
21.16
25.18
29.16
33.53
38.36
43.24
47.37
49.77
49.60
46.46
40.54
32.59
23.66
14.82
6.96
0.65
-3.82
-6.34
-6.95
-5.84
-3.40
-0.26
2.78
5.00
5.89
5.35
3.51
0.66
-3.00
-7.27
-11.95
-16.62
-20.57
-22.98
-23.10
-20.56
-15.48
-8.42
-0.24
8.20
16.13
23.06
28.73
33.10
36.28
38.45
39.77
40.37
40.35
39.87
39.17
38.51
38.15
38.15
38.42
38.63
38.33
37.13
34.73
31.11
26.44
21.08
15.45
9.83
4.22
-1.60
-7.94
-14.94
-22.39
-29.73
-36.28
-41.54
-45.35
-47.86
-49.29
-49.65
-48.72
-46.11
-41.61
-35.43
-28.18
-20.69
-13.68
-7.59
-2.51
1.65
5.00
7.54
9.20
9.89
9.58
8.41
6.66
4.75
3.09
2.03
1.74
2.19
3.20
4.53
5.97
7.43
8.86
10.17
11.18
11.63
11.23
9.77
7.18
3.54
-1.04
-6.40
-12.47
-19.12
-26.16
-33.18
-39.65
-44.89
-48.32
-49.59
-48.62
-45.64
-40.97
-34.91
-27.79
-19.99
-12.08
-4.87
0.81
4.35
5.63
5.09
3.58
2.05
1.22
1.43
2.62
4.46
6.59
8.66
10.43
11.72
12.41
12.44
11.84
10.68
9.14
7.40
5.60
3.81
2.02
0.12
-1.97
-4.37
-7.11
-10.26
-13.80
-17.72
-21.86
-25.90
-29.33
-31.52
-31.91
-30.12
-26.14
-20.26
-13.00
-4.93
3.45
11.68
19.34
26.02
31.36
35.12
37.31
38.19
38.12
37.46
36.43
35.14
33.66
32.06
30.48
29.05
27.81
26.71
25.65
24.58
23.51
22.45
21.36
20.10
18.44
16.19
13.31
9.87
6.09
2.20
-1.65
-5.33
-8.85
-12.27
-15.73
-19.44
-23.60
-28.22
-33.10
-37.70
-41.34
-43.29
-43.06
-40.42
-35.49
-28.66
-20.50
-11.63
-2.68
5.79
13.33
19.57
24.31
27.50
29.25
29.86
29.68
29.09
28.35
27.63
26.98
26.39
25.86
25.41
25.06
24.79
24.49
24.03
23.22
21.97
20.29
18.27
16.05
13.69
11.20
8.47
5.43
2.09
-1.42
-4.87
-8.11
-11.11
-14.03
-17.11
-20.57
-24.50
-28.73
-32.89
-36.41
-38.65
-39.05
-37.26
-33.21
-27.17
-19.65
-11.26
-2.57
5.92
13.80
20.75
26.46
30.73
33.52
34.97
35.39
35.21
34.76
34.29
33.86
33.41
32.87
32.20
31.43
30.64
29.85
29.02
28.06
26.83
25.20
23.18
20.87
18.39
15.75
12.88
9.67
6.06
2.12
-1.94
-5.66
-8.56
-10.32
-11.02
-11.09
-11.25
-12.17
-14.28
-17.69
-21.81
-25.63
-28.01
-28.20
-25.98
-21.85
-16.71
-11.75
-8.26
-6.76
-7.26
-9.16
-11.58
-13.36
-13.47
-10.63
-4.28
4.13
12.36
18.19
20.79
20.44
18.58
15.49
11.01
4.69
-4.21
-14.96
-26.72
-37.57
-45.66
-49.82
-50.07
-47.55
-44.31
-43.27
-45.52
-51.55
-60.59
-71.06
-81.08
-89.00
-93.46
-90.22
-83.67
-73.35
-60.11
-45.38
-30.95
-18.39
-8.48
-0.83
5.71
11.91
19.20
27.59
36.49
45.10
52.92
59.86
66.10
71.67
75.80
78.37
78.69
76.41
71.72
65.34
58.19
51.11
44.61
38.52
32.98
27.61
22.15
16.54
11.06
6.19
2.44
0.22
-0.37
0.87
3.68
7.60
12.01
16.25
19.55
21.04
20.03
16.15
9.70
1.22
-8.53
-18.72
-28.52
-37.31
-44.80
-50.86
-55.42
-57.21
-55.26
-49.71
-42.02
-34.00
-26.85
-21.28
-16.71
-12.56
-8.64
-5.38
-3.48
-3.58
-5.46
-8.25
-10.74
-11.83
-10.66
-6.82
-0.59
7.31
15.92
24.37
31.79
37.44
39.25
36.07
28.53
18.78
9.11
0.74
-6.06
-11.52
-15.80
-18.91
-20.62
-20.84
-19.84
-18.11
-16.20
-14.40
-12.90
-11.76
-10.91
-9.99
-8.53
-6.34
-3.54
-0.61
1.88
3.66
4.83
5.85
7.41
10.05
12.86
15.16
16.36
16.29
15.23
13.67
12.07
10.71
9.70
8.95
8.49
8.24
8.06
7.76
7.22
6.53
6.10
6.48
8.14
11.38
16.05
21.60
27.29
32.32
35.97
37.74
37.51
35.51
32.52
29.52
27.55
27.37
29.35
33.33
38.80
45.02
51.24
56.83
61.24
64.10
65.17
64.47
62.22
58.89
55.00
50.87
46.44
41.18
34.24
24.84
12.65
-1.99
-18.18
-34.77
-50.69
-65.22
-77.96
-88.74
-97.45
-103.90
-107.79
-108.68
-106.12
-99.88
-90.26
-78.35
-65.99
-55.34
-48.06
-44.57
-43.86
-43.81
-42.13
-37.28
-28.90
-17.65
-4.55
9.58
24.36
39.60
54.91
69.45
82.08
91.75
97.93
100.71
100.69
98.55
94.78
89.69
83.46
76.39
68.93
61.60
54.83
48.91
43.98
40.14
37.52
36.11
35.70
35.64
35.00
32.75
28.17
21.14
12.11
1.89
-8.78
-19.62
-30.82
-42.71
-55.24
-67.54
-78.00
-84.76
-86.54
-83.28
-76.18
-67.28
-58.61
-51.49
-46.30
-42.79
-40.43
-38.83
-37.79
-37.12
-36.57
-35.81
-34.59
-32.87
-30.76
-28.38
-25.66
-22.31
-17.92
-12.18
-5.09
3.03
11.52
19.43
25.66
29.12
28.96
24.93
17.58
8.23
-1.27
-9.09
-13.89
-15.08
-12.82
-7.78
-0.90
6.84
14.49
21.14
26.06
28.77
29.29
28.17
26.50
25.60
26.65
30.26
36.23
43.53
50.61
55.95
58.52
58.11
55.23
50.68
45.10
38.68
31.23
22.57
12.91
2.98
-6.16
-13.68
-19.36
-23.82
-28.17
-33.42
-40.01
-47.59
-55.20
-61.79
-66.60
-69.46
-70.64
-70.69
-70.11
-69.30
-68.53
-68.01
-67.83
-67.92
-67.97
-67.44
-65.75
-62.47
-57.47
-50.96
-43.39
-35.27
-27.09
-19.26
-12.16
-6.11
-1.35
2.06
4.28
5.63
6.50
7.21
7.88
8.44
8.62
8.16
6.94
5.10
3.03
1.13
-0.36
-1.57
-2.93
-4.99
-8.09
-12.20
-16.86
-21.44
-25.37
-28.37
-30.48
-31.95
-33.09
-34.21
-35.53
-37.17
-39.08
-40.98
-42.35
-42.54
-40.97
-37.32
-31.64
-24.38
-16.18
-7.74
0.33
7.54
13.55
18.14
21.26
23.00
23.65
23.59
23.19
22.73
22.28
21.73
20.93
19.79
18.37
16.90
15.61
14.61
13.87
13.20
12.40
11.29
9.86
8.14
6.21
4.15
2.01
-0.17
-2.41
-4.75
-7.35
-10.40
-14.03
-18.19
-22.58
-26.61
-29.53
-30.58
-29.18
-25.12
-18.62
-10.26
-0.85
8.71
17.68
25.51
31.94
36.85
40.29
42.35
43.13
42.82
41.69
40.09
38.39
36.86
35.57
34.43
33.30
32.04
30.62
29.12
27.63
26.17
24.70
23.18
21.57
19.89
18.17
16.39
14.48
12.29
9.68
6.55
2.81
-1.62
-6.88
-13.09
-20.20
-27.91
-35.56
-42.28
-47.15
-49.48
-48.96
-45.75
-40.37
-33.50
-25.87
-18.16
-10.90
-4.52
0.68
4.62
7.40
9.31
10.71
11.90
13.05
14.12
15.01
15.59
15.79
15.65
15.26
14.80
14.39
14.11
13.91
13.62
12.95
11.63
9.50
6.65
3.42
0.28
-2.33
-4.15
-5.22
-5.75
-6.13
-6.80
-8.27
-11.03
-15.36
-21.17
-27.77
-34.00
-38.51
-40.26
-38.87
-34.66
-28.47
-21.20
-13.54
-5.94
1.25
7.64
12.74
16.14
17.73
17.88
17.24
16.57
16.38
16.76
17.42
17.95
18.02
17.62
17.01
16.58
16.64
17.20
17.98
18.48
18.26
17.07
14.97
12.30
9.41
6.62
4.05
1.73
-0.41
-2.49
-4.76
-7.67
-11.74
-17.40
-24.62
-32.71
-40.36
-46.02
-48.41
-46.89
-41.64
-33.36
-23.05
-11.66
-0.11
10.65
19.62
25.90
28.97
29.02
27.01
24.38
22.65
22.90
25.54
30.29
36.48
43.31
50.14
56.58
62.57
68.26
73.92
79.81
86.02
92.28
97.83
101.40
101.40
96.30
85.12
67.93
45.91
21.08
-4.42
-28.95
-51.69
-72.40
-90.78
-105.97
-116.51
-120.89
-118.39
-109.65
-96.64
-81.87
-67.51
-54.68
-43.36
-32.93
-22.82
-12.96
-3.84
3.87
9.67
13.50
15.72
16.80
17.16
16.98
16.24
14.90
12.99
10.67
8.20
5.84
3.79
2.09
0.65
-0.72
-2.26
-4.23
-6.79
-9.94
-13.44
-16.83
-19.64
-21.65
-23.05
-24.55
-27.03
-31.09
-36.64
-42.72
-47.75
-50.11
-48.77
-43.63
-35.59
-26.19
-17.10
-9.62
-4.40
-1.41
-0.11
0.21
0.12
-0.12
-0.63
-1.63
-3.32
-5.68
-8.36
-10.73
-11.93
-10.97
-6.95
0.72
12.08
26.50
42.88
59.97
76.76
92.69
107.45
120.77
132.13
140.79
146.03
147.57
145.72
141.36
135.60
129.46
123.52
117.70
111.14
102.20
88.84
69.25
42.70
10.22
-25.30
-59.78
-89.28
-111.25
-125.15
-132.28
-134.68
-134.11
-131.39
-126.56
-119.57
-110.94
-101.87
-93.85
-87.89
-84.05
-81.40
-78.59
-74.53
-68.94
-62.38
-55.94
-50.62
-46.96
-44.78
-43.45
-42.28
-40.94
-39.64
-39.05
-39.94
-42.78
-47.42
-53.03
-58.33
-61.94
-62.77
-60.24
-54.34
-45.57
-34.74
-22.73
-10.35
1.80
13.26
23.73
32.92
40.54
46.39
50.43
52.82
53.89
54.06
53.68
52.98
52.04
50.88
49.49
47.95
46.38
44.92
43.64
42.48
41.28
39.73
37.56
34.59
30.80
26.39
21.68
16.98
12.46
8.13
3.79
-0.87
-6.10
-11.99
-18.36
-24.67
-30.14
-33.90
-35.15
-33.40
-28.59
-21.07
-11.57
-1.08
9.36
18.82
26.66
32.61
36.83
39.77
41.96
43.84
45.62
47.30
48.80
50.04
50.99
51.65
52.02
51.98
51.38
50.08
48.02
45.35
42.35
39.39
36.82
34.80
33.24
31.78
29.99
27.48
24.14
20.11
15.68
11.14
6.74
2.75
-0.47
-2.52
-3.20
-2.80
-2.21
-2.74
-5.62
-11.45
-19.84
-29.64
-39.34
-47.75
-54.28
-58.93
-61.92
-63.37
-63.16
-61.02
-56.95
-51.37
-45.12
-39.12
-34.03
-30.00
-26.65
-23.41
-19.85
-15.93
-12.01
-8.66
-6.36
-5.27
-5.21
-5.80
-6.64
-7.53
-8.55
-9.97
-12.11
-15.11
-18.78
-22.47
-25.33
-26.40
-25.00
-20.87
-14.24
-5.75
3.67
13.08
21.60
28.59
33.65
36.66
37.72
37.13
35.33
32.78
29.90
27.01
24.26
21.67
19.14
16.59
13.99
11.40
8.90
6.54
4.26
1.92
-0.59
-3.30
-6.09
-8.80
-11.27
-13.49
-15.59
-17.79
-20.30
-23.23
-26.66
-30.61
-35.04
-39.81
-44.55
-48.59
-51.06
-51.13
-48.21
-42.22
-33.53
-22.91
-11.32
0.29
11.05
20.34
27.75
33.12
36.56
38.38
38.99
38.74
37.91
36.68
35.21
33.67
32.22
30.96
29.85
28.72
27.38
25.68
23.64
21.38
19.10
16.98
15.06
13.27
11.46
9.50
7.35
4.97
2.30
-0.85
-4.75
-9.68
-15.69
-22.41
-29.04
-34.43
-37.44
-37.29
-33.74
-27.16
-18.31
-8.10
2.66
13.24
23.01
31.31
37.46
40.94
41.60
39.81
36.46
32.69
29.55
27.66
27.10
27.52
28.42
29.38
30.29
31.23
32.33
33.64
35.04
36.31
37.19
37.54
37.26
36.32
34.67
32.26
29.11
25.32
21.07
16.58
11.95
7.12
1.95
-3.63
-9.38
-14.67
-18.57
-20.18
-18.91
-14.75
-8.25
-0.27
8.31
16.92
25.33
33.51
41.31
48.19
53.11
54.80
52.10
44.54
32.57
17.52
1.22
-14.60
-28.70
-40.52
-49.97
-57.15
-62.07
-64.68
-65.03
-63.49
-60.82
-57.99
-55.86
-54.90
-55.01
-55.69
-56.33
-56.49
-56.09
-55.44
-55.06
-55.38
-56.62
-58.58
-60.74
-62.38
-62.76
-61.31
-57.75
-52.09
-44.61
-35.76
-26.09
-16.21
-6.77
1.67
8.62
13.80
17.11
18.68
18.83
18.03
16.84
15.83
15.51
16.14
17.65
19.69
21.69
23.08
23.54
23.03
21.75
20.04
18.13
16.13
13.99
11.61
8.98
6.23
3.55
1.13
-0.95
-2.85
-4.88
-7.47
-11.02
-15.72
-21.35
-27.25
-32.36
-35.50
-35.67
-32.44
-26.04
-17.33
-7.44
2.57
11.92
20.24
27.40
33.35
38.03
41.36
43.36
44.24
44.34
44.03
43.56
43.00
42.28
41.33
40.17
38.96
37.89
37.13
36.64
36.25
35.71
34.80
33.38
31.42
28.93
25.93
22.45
18.51
14.13
9.33
4.07
-1.76
-8.27
-15.57
-23.62
-32.14
-40.52
-47.85
-53.07
-55.32
-54.11
-49.57
-42.38
-33.56
-24.20
-15.14
-6.94
0.12
5.90
10.33
13.40
15.20
15.93
15.92
15.51
14.91
14.22
13.39
12.38
11.21
9.99
8.84
7.88
7.12
6.48
5.88
5.24
4.53
3.68
2.64
1.30
-0.42
-2.56
-5.10
-8.02
-11.27
-14.86
-18.73
-22.76
-26.69
-30.01
-32.10
-32.37
-30.43
-26.27
-20.22
-12.89
-4.94
3.06
10.66
17.53
23.34
27.80
30.66
31.88
31.61
30.23
28.16
25.80
23.38
21.02
18.72
16.49
14.33
12.28
10.43
8.86
7.64
6.69
5.83
4.81
3.44
1.71
-0.26
-2.19
-3.88
-5.25
-6.38
-7.43
-8.63
-10.17
-12.25
-15.01
-18.42
-22.13
-25.43
-27.29
-26.64
-22.72
-15.33
-4.95
7.47
20.82
34.11
46.62
57.85
67.35
74.58
78.92
79.85
77.20
71.34
63.13
53.76
44.41
35.97
28.86
23.13
18.51
14.66
11.23
7.94
4.57
0.96
-3.05
-7.56
-12.63
-18.16
-23.99
-29.92
-35.78
-41.57
-47.41
-53.51
-60.06
-67.04
-74.17
-80.87
-86.30
-89.57
-89.91
-86.86
-80.36
-70.80
-58.82
-45.21
-30.81
-16.40
-2.70
9.60
19.91
27.86
33.33
36.52
37.87
37.90
37.07
35.67
33.83
31.58
28.97
26.08
23.07
20.10
17.27
14.59
11.98
9.34
6.57
3.64
0.55
-2.64
-5.90
-9.16
-12.37
-15.52
-18.66
-21.98
-25.75
-30.19
-35.22
-40.40
-44.91
-47.80
-48.34
-46.27
-41.86
-35.79
-28.82
-21.62
-14.65
-8.25
-2.71
1.65
4.59
6.04
6.20
5.51
4.52
3.70
3.31
3.33
3.56
3.72
3.58
3.00
1.95
0.47
-1.28
-3.03
-4.37
-4.81
-3.92
-1.49
2.25
6.76
11.27
15.03
17.54
18.61
18.34
17.07
15.26
13.48
12.35
12.43
14.02
17.09
21.28
26.06
31.00
35.80
40.25
44.09
46.85
47.92
46.81
43.34
37.83
30.90
23.29
15.61
8.26
1.60
-3.97
-7.96
-9.96
-9.86
-7.99
-5.04
-1.83
1.00
3.14
4.69
5.94
7.20
8.57
9.90
10.87
11.03
9.94
7.10
2.04
-5.61
-15.94
-28.45
-41.99
-54.91
-65.43
-72.17
-74.51
-72.64
-67.31
-59.47
-50.01
-39.69
-29.22
-19.34
-10.80
-4.20
0.27
2.80
3.97
4.44
4.79
5.32
6.11
7.09
8.19
9.36
10.55
11.71
12.68
13.30
13.37
12.82
11.63
9.92
7.83
5.51
3.07
0.53
-2.15
-5.16
-8.75
-13.19
-18.64
-24.93
-31.50
-37.36
-41.41
-42.67
-40.67
-35.59
-28.15
-19.37
-10.21
-1.35
6.84
14.12
20.27
24.95
27.85
28.82
28.00
25.86
22.98
19.90
16.87
13.94
11.00
8.02
5.12
2.52
0.46
-1.03
-2.07
-2.96
-4.01
-5.42
-7.20
-9.27
-11.46
-13.66
-15.85
-18.15
-20.73
-23.80
-27.50
-31.85
-36.61
-41.29
-45.21
-47.61
-47.85
-45.57
-40.76
-33.71
-24.89
-14.83
-3.99
7.13
17.99
27.97
36.44
42.90
47.13
49.26
49.69
48.96
47.57
45.91
44.21
42.57
40.96
39.34
37.61
35.69
33.47
30.85
27.71
23.92
19.36
13.96
7.76
0.94
-6.21
-13.33
-20.15
-26.46
-32.30
-37.87
-43.41
-49.09
-54.77
-59.95
-63.85
-65.59
-64.51
-60.31
-53.12
-43.47
-32.13
-20.02
-8.10
2.75
11.82
18.69
23.31
26.00
27.35
28.03
28.66
29.68
31.28
33.44
35.99
38.73
41.50
44.28
47.07
49.81
52.19
53.59
53.24
50.43
44.90
37.00
27.65
18.08
9.45
2.47
-2.72
-6.50
-9.55
-12.66
-16.53
-21.71
-28.41
-36.47
-45.24
-53.70
-60.60
-64.79
-65.56
-62.70
-56.51
-47.71
-37.23
-26.08
-15.31
-5.83
1.73
7.15
10.63
12.73
14.07
15.12
16.06
16.81
17.15
16.88
15.97
14.62
13.13
11.84
10.93
10.36
9.92
9.26
8.06
6.16
3.58
0.47
-2.94
-6.37
-9.61
-12.49
-14.97
-17.21
-19.50
-22.13
-25.21
-28.39
-30.92
-31.78
-30.13
-25.63
-18.63
-10.00
-0.79
8.07
15.98
22.65
27.96
31.83
34.15
34.96
34.47
33.17
31.64
30.44
29.90
30.06
30.70
31.43
31.92
32.00
31.73
31.32
31.01
30.88
30.82
30.55
29.78
28.35
26.33
24.00
21.74
19.81
18.30
16.99
15.42
13.04
9.46
4.70
-0.70
-5.62
-8.73
-8.76
-4.90
2.93
13.98
26.71
39.00
48.45
52.91
50.96
42.40
28.37
11.07
-6.88
-23.16
-36.33
-46.01
-52.58
-56.75
-59.17
-60.25
-60.32
-59.66
-58.70
-57.82
-57.29
-57.09
-56.96
-56.61
-55.86
-54.77
-53.60
-52.61
-51.84
-51.09
-50.00
-48.32
-46.05
-43.53
-41.34
-39.91
-39.25
-38.81
-37.56
-34.34
-28.28
-19.16
-7.46
5.83
19.54
32.62
44.38
54.39
62.44
68.41
72.28
74.25
74.74
74.40
73.86
73.56
73.50
73.35
72.64
71.05
68.60
65.70
62.95
60.90
59.84
59.80
60.65
62.26
64.48
67.07
69.53
71.06
70.70
67.70
61.74
53.06
42.32
30.25
17.49
4.50
-8.23
-20.06
-30.14
-37.72
-42.37
-44.28
-44.16
-43.01
-41.76
-41.02
-41.12
-42.09
-43.85
-46.19
-48.81
-51.28
-53.17
-54.15
-54.13
-53.29
-51.99
-50.61
-49.38
-48.32
-47.28
-46.06
-44.58
-42.89
-41.20
-39.75
-38.68
-38.01
-37.65
-37.42
-37.20
-36.85
-36.28
-35.44
-34.41
-33.36
-32.61
-32.51
-33.25
-34.72
-36.40
-37.43
-36.80
-33.60
-27.35
-18.08
-6.33
6.96
20.71
33.87
45.57
55.14
62.12
66.22
67.33
65.58
61.36
55.30
48.21
40.89
33.98
27.86
22.61
18.22
14.58
11.64
9.32
7.43
5.56
3.10
-0.48
-5.42
-11.48
-17.91
-23.69
-27.94
-30.25
-30.89
-30.78
-31.16
-33.12
-37.04
-42.28
-47.13
-49.28
-46.65
-38.16
-24.12
-6.21
13.24
32.00
48.50
62.08
72.75
80.81
86.67
90.80
93.74
96.16
98.58
101.07
102.90
102.65
98.58
89.35
74.71
55.79
34.80
14.17
-4.36
-20.30
-34.35
-47.70
-61.24
-75.00
-88.22
-99.86
-109.17
-116.07
-121.08
-124.98
-128.47
-131.83
-134.92
-137.19
-137.81
-135.92
-130.85
-122.37
-110.83
-96.99
-81.86
-66.37
-51.28
-37.19
-24.68
-14.37
-6.70
-1.79
0.81
2.08
3.15
4.93
7.80
11.47
15.29
18.57
20.95
22.43
23.33
23.92
24.26
24.16
23.41
21.97
20.11
18.24
16.72
15.54
14.32
12.44
9.36
4.96
-0.39
-5.88
-10.50
-13.29
-13.54
-10.84
-5.16
3.27
13.86
25.86
38.35
50.38
61.00
69.42
75.06
77.78
77.89
76.13
73.48
70.84
68.71
67.06
65.42
63.20
60.06
56.15
52.14
48.90
47.12
47.10
48.69
51.53
55.25
59.52
63.87
67.37
68.68
66.42
59.93
49.81
37.97
27.02
19.31
16.11
17.38
22.12
29.10
37.39
46.50
56.21
66.19
75.96
84.85
92.32
98.10
102.24
104.99
106.51
106.57
104.24
97.92
85.71
66.25
39.55
7.46
-26.68
-58.96
-86.20
-106.81
-120.93
-129.76
-134.69
-136.64
-136.04
-133.16
-128.60
-123.36
-118.57
-114.89
-112.21
-109.65
-106.04
-100.52
-92.90
-83.74
-73.91
-64.07
-54.27
-43.85
-31.84
-17.45
-0.62
17.74
35.90
51.79
63.63
70.52
72.67
71.29
68.01
64.31
60.99
58.05
54.98
51.23
46.59
41.31
35.93
30.94
26.50
22.35
17.95
12.70
6.12
-2.04
-11.78
-22.82
-34.64
-46.61
-58.07
-68.57
-77.89
-86.07
-93.21
-99.37
-104.40
-107.97
-109.66
-109.13
-106.24
-101.07
-93.83
-84.74
-73.99
-61.80
-48.58
-35.04
-22.15
-10.94
-2.20
3.78
7.30
9.13
10.16
11.15
12.52
14.30
16.25
18.03
19.36
20.12
20.37
20.31
20.16
20.08
20.11
20.16
20.09
19.72
18.94
17.68
15.89
13.52
10.55
7.00
2.91
-1.63
-6.49
-11.55
-16.65
-21.52
-25.76
-28.86
-30.25
-29.47
-26.31
-20.86
-13.55
-5.02
3.98
12.70
20.52
26.90
31.48
34.05
34.59
33.31
30.65
27.22
23.67
20.58
18.33
17.04
16.62
16.81
17.30
17.73
17.81
17.27
16.00
13.98
11.37
8.38
5.26
2.22
-0.58
-3.06
-5.19
-7.10
-9.07
-11.49
-14.68
-18.80
-23.64
-28.70
-33.36
-37.13
-39.73
-41.10
-41.12
-39.45
-35.50
-28.58
-18.27
-4.70
11.38
28.71
45.81
61.38
74.45
84.53
91.54
95.73
97.53
97.43
95.92
93.45
90.45
87.28
84.30
81.74
79.74
78.24
76.96
75.42
72.92
68.65
61.82
51.87
38.74
22.99
5.83
-11.18
-26.51
-39.04
-48.33
-54.56
-58.28
-60.16
-60.85
-60.82
-60.50
-60.14
-59.71
-58.79
-56.59
-52.20
-44.99
-34.98
-22.88
-9.88
2.83
14.48
24.83
33.98
42.01
48.71
53.57
56.05
55.97
53.75
50.30
46.74
43.97
42.49
42.52
44.11
47.26
51.60
55.99
58.28
55.71
45.94
28.17
3.75
-24.08
-51.42
-75.13
-93.79
-107.69
-118.11
-126.33
-133.04
-138.29
-141.93
-143.88
-144.21
-142.83
-139.29
-132.78
-122.51
-108.15
-90.18
-69.80
-48.67
-28.39
-10.15
5.42
18.16
28.25
35.97
41.64
45.55
47.98
49.21
49.56
49.32
48.82
48.31
47.96
47.80
47.69
47.44
46.93
46.17
45.33
44.65
44.32
44.38
44.72
45.16
45.60
46.08
46.75
47.77
49.19
50.92
52.66
54.08
54.89
54.92
54.20
52.85
50.98
48.60
45.55
41.45
35.78
27.99
17.67
4.77
-10.14
-25.75
-40.17
-51.32
-57.59
-58.37
-54.34
-47.26
-39.37
-32.62
-28.16
-26.16
-26.04
-26.96
-28.24
-29.61
-31.13
-33.00
-35.27
-37.73
-39.97
-41.57
-42.32
-42.27
-41.74
-41.06
-40.48
-40.08
-39.81
-39.65
-39.63
-39.80
-40.14
-40.48
-40.49
-39.80
-38.23
-35.86
-33.14
-30.74
-29.45
-29.78
-31.79
-34.87
-37.80
-39.03
-37.21
-31.57
-22.28
-10.25
3.12
16.48
28.79
39.49
48.32
55.20
60.13
63.23
64.79
65.31
65.33
65.26
65.24
65.11
64.57
63.43
61.73
59.72
57.76
56.09
54.73
53.47
52.04
50.20
47.86
45.05
41.80
38.11
33.90
29.11
23.71
17.77
11.36
4.54
-2.64
-10.09
-17.56
-24.54
-30.32
-34.25
-36.06
-36.00
-34.90
-33.80
-33.58
-34.50
-36.14
-37.69
-38.33
-37.70
-36.06
-34.13
-32.66
-32.06
-32.27
-32.79
-33.08
-32.76
-31.76
-30.27
-28.48
-26.54
-24.44
-22.17
-19.84
-17.67
-15.96
-14.93
-14.65
-15.08
-16.10
-17.57
-19.34
-21.26
-23.19
-25.12
-27.15
-29.45
-32.04
-34.55
-36.22
-36.08
-33.32
-27.65
-19.38
-9.28
1.75
12.87
23.44
32.93
40.84
46.71
50.28
51.64
51.22
49.76
48.01
46.48
45.36
44.51
43.64
42.54
41.12
39.50
37.84
36.27
34.78
33.31
31.78
30.15
28.42
26.56
24.42
21.77
18.37
14.13
9.13
3.65
-2.03
-7.59
-12.81
-17.41
-21.07
-23.34
-23.77
-21.98
-17.82
-11.46
-3.39
5.69
14.99
23.81
31.60
38.02
42.88
46.06
47.47
47.08
44.91
41.09
35.88
29.60
22.57
15.09
7.45
-0.06
-7.08
-13.31
-18.53
-22.69
-25.89
-28.33
-30.26
-31.89
-33.43
-35.07
-36.97
-39.32
-42.28
-45.97
-50.41
-55.41
-60.50
-64.97
-67.97
-68.68
-66.61
-61.69
-54.26
-44.95
-34.49
-23.55
-12.72
-2.51
6.56
14.01
19.48
22.87
24.37
24.43
23.61
22.44
21.24
20.15
19.14
18.16
17.17
16.17
15.17
14.14
13.04
11.77
10.30
8.56
6.56
4.29
1.76
-1.02
-4.08
-7.45
-11.24
-15.57
-20.55
-26.12
-32.02
-37.70
-42.42
-45.39
-45.96
-43.81
-38.98
-31.86
-23.10
-13.45
-3.60
5.87
14.55
22.09
28.20
32.66
35.42
36.72
37.07
37.11
37.36
37.98
38.76
39.29
39.19
38.31
36.82
34.99
33.02
30.98
28.78
26.38
23.86
21.42
19.25
17.42
15.84
14.27
12.47
10.26
7.47
3.97
-0.40
-5.70
-11.80
-18.21
-24.12
-28.56
-30.62
-29.74
-25.84
-19.28
-10.81
-1.38
7.98
16.31
22.85
27.15
29.16
29.24
28.09
26.50
25.20
24.59
24.69
25.12
25.28
24.60
22.77
19.85
16.16
12.19
8.33
4.78
1.45
-1.84
-5.36
-9.29
-13.75
-18.76
-24.25
-30.06
-36.01
-41.86
-47.46
-52.74
-57.76
-62.59
-67.16
-71.16
-74.08
-75.27
-74.18
-70.48
-64.20
-55.72
-45.65
-34.74
-23.73
-13.26
-3.85
4.14
10.49
15.14
18.17
19.81
20.37
20.28
19.93
19.63
19.52
19.56
19.54
19.22
18.36
16.89
14.92
12.72
10.58
8.71
7.09
5.49
3.53
0.84
-2.76
-7.21
-12.30
-17.71
-23.18
-28.49
-33.39
-37.55
-40.46
-41.56
-40.27
-36.31
-29.70
-20.90
-10.71
-0.11
9.93
18.71
25.84
31.32
35.42
38.66
41.64
45.05
49.50
55.44
62.88
71.23
79.29
85.42
88.12
86.44
80.40
70.98
59.71
48.12
37.25
27.55
18.92
11.08
3.83
-2.99
-9.49
-15.93
-22.63
-29.83
-37.36
-44.57
-50.41
-53.76
-53.81
-50.32
-43.66
-34.61
-24.13
-13.10
-2.23
7.95
17.03
24.64
30.41
34.05
35.40
34.59
32.11
28.83
25.81
23.95
23.75
25.10
27.34
29.59
31.06
31.40
30.71
29.35
27.71
25.98
24.11
21.88
19.14
15.80
11.84
7.16
1.48
-5.50
-13.91
-23.44
-33.24
-42.16
-49.16
-53.63
-55.69
-55.92
-55.09
-53.71
-51.94
-49.64
-46.72
-43.31
-39.78
-36.55
-33.87
-31.66
-29.61
-27.45
-25.16
-22.99
-21.40
-20.69
-20.83
-21.39
-21.72
-21.22
-19.60
-17.01
-13.90
-10.91
-8.58
-7.24
-7.00
-7.80
-9.55
-12.17
-15.60
-19.64
-23.93
-27.79
-30.41
-30.96
-28.83
-23.87
-16.34
-6.93
3.47
13.95
23.71
32.17
38.96
43.93
47.14
48.73
48.94
48.04
46.24
43.81
41.00
38.12
35.52
33.50
32.24
31.69
31.56
31.41
30.79
29.43
27.24
24.32
20.86
17.09
13.24
9.58
6.29
3.40
0.67
-2.39
-6.24
-11.01
-16.11
-20.34
-22.18
-20.45
-14.86
-6.24
3.76
13.19
20.46
24.76
26.12
25.19
22.81
19.76
16.58
13.60
11.06
9.12
7.93
7.47
7.57
7.84
7.83
7.14
5.61
3.37
0.76
-1.84
-4.25
-6.57
-9.17
-12.52
-16.91
-22.31
-28.30
-34.23
-39.53
-44.00
-47.83
-51.45
-55.14
-58.73
-61.46
-62.25
-60.10
-54.58
-46.00
-35.25
-23.49
-11.76
-0.76
9.14
17.82
25.16
31.05
35.36
38.03
39.11
38.80
37.44
35.43
33.13
30.81
28.57
26.37
24.12
21.81
19.51
17.37
15.48
13.78
12.00
9.81
6.93
3.29
-0.96
-5.50
-10.05
-14.42
-18.58
-22.60
-26.68
-31.08
-36.11
-41.98
-48.63
-55.57
-61.80
-66.05
-67.10
-64.16
-57.19
-46.96
-34.87
-22.57
-11.54
-2.60
4.22
9.70
15.10
21.68
30.26
41.01
53.45
66.69
79.81
92.04
102.93
112.36
120.43
127.32
133.00
136.97
138.02
134.30
123.80
105.04
77.82
43.69
5.74
-32.08
-65.95
-93.12
-112.39
-124.11
-129.75
-131.26
-130.54
-129.11
-127.89
-127.17
-126.63
-125.42
-122.40
-116.41
-106.65
-92.93
-75.81
-56.42
-36.18
-16.38
2.16
19.14
34.73
49.24
62.86
75.50
86.70
95.75
101.96
104.87
104.48
101.29
96.20
90.27
84.37
79.06
74.38
69.96
65.14
59.20
51.52
41.80
30.17
17.21
3.81
-9.09
-20.87
-31.44
-41.23
-50.89
-60.96
-71.60
-82.54
-93.21
-102.87
-110.74
-115.98
-117.71
-115.19
-108.12
-96.82
-82.29
-66.00
-49.49
-34.03
-20.44
-9.11
-0.15
6.52
11.07
13.79
15.09
15.41
15.16
14.61
13.92
13.18
12.46
11.87
11.53
11.48
11.64
11.84
11.84
11.46
10.56
9.13
7.20
4.85
2.18
-0.68
-3.50
-6.05
-8.15
-9.80
-11.27
-12.96
-15.32
-18.71
-23.22
-28.70
-34.76
-40.72
-45.75
-48.91
-49.42
-46.83
-41.13
-32.75
-22.40
-10.84
1.16
12.87
23.54
32.42
38.93
42.82
44.38
44.22
43.16
41.83
40.51
39.19
37.72
36.01
34.11
32.18
30.39
28.79
27.36
26.02
24.63
23.13
21.45
19.54
17.40
15.02
12.42
9.59
6.57
3.39
0.12
-3.20
-6.60
-10.27
-14.53
-19.67
-25.73
-32.32
-38.58
-43.42
-45.83
-45.18
-41.40
-34.89
-26.33
-16.52
-6.25
3.80
12.97
20.74
26.69
30.66
32.71
33.13
32.41
31.11
29.71
28.50
27.53
26.65
25.60
24.23
22.55
20.76
19.10
17.77
16.71
15.69
14.36
12.47
9.94
6.98
3.89
0.97
-1.62
-3.96
-6.29
-8.88
-12.07
-16.07
-21.04
-26.89
-33.22
-39.25
-43.83
-45.78
-44.20
-38.87
-30.33
-19.70
-8.28
2.77
12.70
21.12
27.84
32.73
35.69
36.76
36.19
34.44
32.03
29.41
26.82
24.37
22.09
20.09
18.50
17.45
16.92
16.73
16.67
16.62
16.62
16.85
17.50
18.59
19.96
21.32
22.44
23.28
24.00
24.89
26.09
27.45
28.42
28.07
25.38
19.58
10.54
-1.01
-13.55
-25.13
-33.90
-38.64
-39.02
-35.51
-29.09
-20.91
-12.04
-3.43
4.12
9.89
13.39
14.48
13.46
11.01
8.00
5.16
2.95
1.38
0.18
-1.04
-2.56
-4.38
-6.20
-7.51
-7.82
-6.84
-4.73
-2.08
0.14
0.84
-0.91
-5.54
-12.83
-21.95
-31.77
-41.13
-49.28
-56.04
-61.71
-66.80
-71.51
-75.50
-77.76
-76.97
-71.96
-62.25
-48.28
-31.35
-13.15
4.64
20.84
34.84
46.53
56.06
63.62
69.38
73.36
75.45
75.36
72.67
66.98
58.15
46.59
33.25
19.50
6.65
-4.39
-13.39
-20.63
-26.62
-31.77
-36.19
-39.78
-42.47
-44.37
-45.84
-47.33
-49.17
-51.49
-54.26
-57.46
-61.13
-65.30
-69.80
-74.04
-76.95
-77.27
-73.96
-66.64
-55.73
-42.35
-27.89
-13.69
-0.74
10.38
19.41
26.30
31.24
34.63
36.96
38.70
40.02
40.74
40.46
38.87
35.99
32.29
28.55
25.48
23.53
22.62
22.34
22.13
21.56
20.47
18.98
17.42
16.24
15.93
16.90
19.31
22.87
26.71
29.50
29.87
26.87
20.55
12.07
3.38
-3.39
-6.77
-6.42
-3.11
1.66
6.34
9.87
11.84
12.36
11.82
10.63
9.05
7.23
5.32
3.48
1.90
0.77
0.17
0.02
0.13
0.21
0.05
-0.45
-1.23
-2.22
-3.52
-5.40
-8.34
-12.71
-18.49
-25.21
-31.98
-37.91
-42.42
-45.51
-47.78
-50.18
-53.65
-58.74
-65.21
-71.95
-77.10
-78.40
-73.87
-62.41
-44.36
-21.48
3.36
26.98
46.78
61.28
70.38
74.98
76.51
76.37
75.63
74.97
74.72
75.03
75.81
76.78
77.41
77.08
75.34
72.12
67.73
62.68
57.43
52.09
46.42
39.98
32.36
23.42
13.36
2.62
-8.28
-18.96
-29.32
-39.55
-49.91
-60.46
-70.75
-79.81
-86.35
-89.31
-88.19
-83.30
-75.59
-66.18
-56.02
-45.68
-35.52
-25.89
-17.24
-10.08
-4.71
-1.07
1.23
2.71
3.81
4.80
5.76
6.72
7.70
8.77
9.93
11.13
12.25
13.16
13.71
13.77
13.23
12.03
10.18
7.83
5.25
2.71
0.36
-1.88
-4.37
-7.64
-12.12
-17.89
-24.46
-30.83
-35.70
-37.87
-36.61
-31.85
-24.08
-14.11
-2.78
9.12
20.87
31.72
40.88
47.62
51.45
52.32
50.60
46.99
42.27
37.15
32.08
27.30
22.84
18.55
14.29
9.88
5.23
0.32
-4.78
-9.94
-15.04
-19.95
-24.59
-28.91
-32.92
-36.69
-40.34
-44.03
-47.93
-52.24
-57.06
-62.39
-67.95
-73.16
-77.12
-78.93
-77.84
-73.51
-66.07
-55.98
-43.90
-30.54
-16.59
-2.72
10.41
22.27
32.48
40.87
47.46
52.36
55.71
57.64
58.25
57.68
56.06
53.53
50.26
46.51
42.60
38.85
35.46
32.37
29.26
25.69
21.47
16.77
12.12
8.10
4.98
2.53
0.07
-3.09
-7.22
-11.96
-16.37
-19.30
-19.76
-17.21
-11.52
-2.86
8.41
21.71
36.15
50.44
63.02
72.50
78.08
79.75
78.16
74.23
68.65
61.64
53.11
43.04
31.85
20.45
9.94
1.14
-5.74
-11.10
-15.67
-20.06
-24.51
-28.95
-33.15
-36.93
-40.26
-43.11
-45.37
-46.78
-47.06
-46.12
-44.21
-41.94
-40.04
-39.08
-39.17
-39.87
-40.23
-39.08
-35.41
-28.67
-19.01
-7.19
5.56
17.91
28.70
37.19
43.06
46.38
47.43
46.65
44.59
41.84
39.04
36.72
35.25
34.74
35.13
36.22
37.78
39.65
41.63
43.50
44.98
45.84
45.99
45.53
44.78
44.11
43.80
43.96
44.40
44.68
44.20
42.28
38.40
32.45
24.98
17.28
11.06
8.08
9.52
15.58
25.32
36.80
47.52
54.94
57.07
52.91
42.68
27.70
10.10
-7.81
-24.05
-37.38
-47.37
-54.25
-58.62
-61.23
-62.79
-63.97
-65.29
-67.06
-69.29
-71.68
-73.74
-74.95
-75.03
-74.05
-72.43
-70.79
-69.74
-69.61
-70.38
-71.71
-73.11
-74.20
-74.79
-74.88
-74.43
-73.14
-70.36
-65.22
-56.98
-45.40
-30.92
-14.63
2.09
17.91
31.86
43.38
52.20
58.25
61.56
62.25
60.65
57.33
52.93
48.13
43.36
38.82
34.48
30.26
26.12
22.18
18.58
15.41
12.64
10.04
7.39
4.53
1.46
-1.66
-4.70
-7.61
-10.51
-13.64
-17.23
-21.46
-26.36
-31.81
-37.49
-42.88
-47.32
-50.03
-50.33
-47.77
-42.27
-34.13
-24.03
-12.82
-1.44
9.33
18.88
26.84
33.08
37.63
40.64
42.34
43.03
42.98
42.46
41.68
40.81
39.94
39.14
38.40
37.66
36.77
35.53
33.75
31.27
28.08
24.23
19.90
15.33
10.78
6.55
2.85
-0.26
-2.96
-5.63
-8.70
-12.40
-16.55
-20.53
-23.44
-24.40
-22.81
-18.49
-11.68
-2.87
7.32
18.20
29.12
39.47
48.74
56.65
63.20
68.56
73.02
76.66
79.17
79.74
77.16
70.29
58.54
42.26
22.86
2.46
-16.77
-33.22
-46.19
-55.83
-62.74
-67.60
-70.88
-72.91
-73.97
-74.49
-74.98
-75.95
-77.72
-80.36
-83.77
-87.72
-91.86
-95.74
-98.77
-100.24
-99.52
-96.20
-90.27
-82.06
-72.22
-61.46
-50.39
-39.49
-29.16
-19.81
-12.00
-6.26
-2.85
-1.51
-1.33
-0.97
0.88
5.02
11.52
19.77
28.88
38.10
47.07
55.79
64.32
72.57
80.08
86.17
90.16
91.67
90.75
87.87
83.82
79.42
75.30
71.72
68.49
65.14
61.07
55.83
49.32
41.80
33.92
26.55
20.57
16.72
15.41
16.58
19.82
24.35
29.27
33.65
36.66
37.77
36.79
33.93
29.66
24.57
19.07
13.35
7.39
1.17
-5.12
-11.05
-16.05
-19.66
-21.76
-22.66
-22.95
-23.33
-24.39
-26.51
-29.81
-34.21
-39.46
-45.18
-50.98
-56.51
-61.63
-66.40
-71.14
-76.18
-81.78
-87.91
-94.13
-99.69
-103.67
-105.14
-103.49
-98.57
-90.76
-80.92
-70.16
-59.58
-49.92
-41.43
-33.86
-26.63
-19.13
-10.99
-2.16
7.03
16.11
24.58
32.06
38.36
43.50
47.63
51.06
54.15
57.20
60.33
63.34
65.79
67.10
66.76
64.56
60.65
55.49
49.69
43.80
38.26
33.26
28.78
24.58
20.26
15.46
10.06
4.42
-0.56
-3.63
-3.60
0.13
7.35
17.05
27.80
38.25
47.53
55.34
61.72
66.74
70.28
72.01
71.61
69.00
64.46
58.66
52.43
46.55
41.61
37.98
35.82
35.04
35.27
35.83
35.79
34.14
30.09
23.33
14.10
3.12
-8.66
-20.43
-31.70
-42.34
-52.51
-62.43
-72.19
-81.70
-90.65
-98.51
-104.61
-108.21
-108.60
-105.28
-98.12
-87.47
-74.14
-59.25
-43.98
-29.32
-15.95
-4.28
5.48
13.19
18.76
22.24
23.93
24.37
24.34
24.61
25.71
27.76
30.49
33.37
35.88
37.69
38.72
39.00
38.54
37.20
34.68
30.62
24.82
17.35
8.68
-0.37
-8.87
-16.07
-21.70
-26.15
-30.27
-35.01
-40.85
-47.53
-54.01
-58.93
-61.18
-60.37
-56.85
-51.48
-45.07
-38.14
-30.80
-23.11
-15.29
-7.90
-1.62
3.00
5.88
7.25
7.49
6.73
4.76
1.34
-3.33
-8.30
-11.96
-12.73
-9.85
-3.87
3.52
10.03
13.73
13.49
8.98
0.36
-12.16
-28.39
-47.67
-68.61
-89.28
-107.75
-122.95
-135.19
-145.76
-156.17
-167.00
-176.99
-183.24
-182.63
-172.87
-153.54
-126.25
-93.73
-59.16
-25.32
6.13
34.63
59.72
81.20
98.77
112.07
121.20
126.20
126.99
123.65
116.60
106.29
94.38
83.88
76.45
74.92
80.03
87.75
90.36
83.52
63.60
31.05
-9.82
-53.00
-92.80
-124.09
-144.49
-153.79
-152.85
-143.33
-126.69
-104.70
-79.69
-53.87
-29.03
-6.26
14.26
32.62
48.04
59.37
65.97
68.63
69.99
73.41
81.18
93.53
108.52
122.61
132.43
135.94
132.70
123.75
110.80
95.63
80.04
65.77
54.25
46.40
42.39
41.45
42.04
42.23
40.10
34.35
24.62
11.61
-3.08
-17.35
-29.22
-37.47
-41.99
-43.82
-44.56
-45.61
-47.41
-49.22
-49.40
-46.24
-38.76
-27.16
-12.74
2.71
17.47
30.42
41.07
49.33
55.25
58.77
59.81
58.36
54.68
49.37
43.14
36.73
30.65
25.21
20.48
16.38
12.77
9.38
5.94
2.22
-1.91
-6.42
-11.08
-15.61
-19.73
-23.32
-26.45
-29.36
-32.37
-35.76
-39.76
-44.46
-49.85
-55.67
-61.41
-66.24
-69.08
-68.79
-64.55
-56.11
-44.04
-29.59
-14.34
0.24
13.06
23.57
31.53
36.90
39.73
40.30
39.24
37.53
36.36
36.67
38.95
43.05
48.37
54.15
59.73
64.66
68.72
71.82
73.93
75.09
75.36
74.74
73.13
70.34
66.20
60.63
53.74
45.75
36.80
26.91
16.04
4.34
-7.66
-18.96
-28.30
-34.58
-37.21
-36.35
-32.75
-27.51
-21.72
-16.22
-11.54
-7.98
-5.77
-5.02
-5.74
-7.77
-10.77
-14.29
-17.93
-21.41
-24.65
-27.71
-30.65
-33.48
-36.03
-38.08
-39.44
-40.06
-40.05
-39.66
-39.14
-38.66
-38.23
-37.75
-37.05
-36.06
-34.84
-33.66
-32.96
-33.21
-34.78
-37.60
-41.12
-44.15
-45.23
-42.92
-36.37
-25.57
-11.43
4.48
20.39
34.77
46.63
55.60
61.73
65.35
66.86
66.59
64.79
61.66
57.34
52.04
46.02
39.63
33.27
27.37
22.25
18.07
14.75
12.05
9.61
7.17
4.67
2.31
0.44
-0.55
-0.44
0.65
2.20
3.32
2.95
0.07
-5.85
-14.62
-25.20
-35.91
-44.82
-50.40
-51.92
-49.61
-44.46
-37.78
-30.71
-23.97
-17.77
-12.03
-6.58
-1.33
3.66
8.26
12.33
15.71
18.36
20.24
21.31
21.52
20.79
19.06
16.32
12.68
8.37
3.72
-0.95
-5.34
-9.29
-12.77
-15.82
-18.61
-21.33
-24.15
-27.15
-30.27
-33.34
-36.17
-38.66
-40.90
-43.16
-45.76
-48.82
-52.09
-54.94
-56.47
-55.86
-52.59
-46.66
-38.50
-28.77
-18.18
-7.25
3.56
13.88
23.22
31.00
36.73
40.09
41.18
40.45
38.52
36.07
33.54
31.17
28.99
26.97
25.06
23.22
21.40
19.41
17.04
14.10
10.56
6.61
2.62
-0.97
-3.84
-5.87
-7.14
-7.87
-8.28
-8.58
-8.93
-9.53
-10.53
-11.91
-13.28
-13.83
-12.44
-8.11
-0.32
10.60
23.52
36.87
49.08
58.95
65.75
69.02
68.29
63.09
53.14
38.76
21.15
2.32
-15.41
-30.09
-40.65
-47.04
-49.98
-50.43
-49.19
-46.75
-43.40
-39.41
-35.20
-31.27
-28.04
-25.74
-24.29
-23.44
-22.87
-22.41
-22.02
-21.91
-22.36
-23.63
-25.86
-29.00
-32.77
-36.70
-40.16
-42.40
-42.69
-40.42
-35.31
-27.52
-17.61
-6.45
4.96
15.74
25.20
32.91
38.63
42.33
44.09
44.18
42.97
40.89
38.37
35.71
33.16
30.86
28.94
27.46
26.40
25.65
25.07
24.54
24.09
23.81
23.84
24.20
24.75
25.11
24.90
23.82
21.82
19.11
16.01
12.84
9.82
7.01
4.40
1.88
-0.75
-3.80
-7.66
-12.67
-18.94
-26.13
-33.45
-39.83
-44.22
-45.95
-44.95
-41.73
-37.24
-32.56
-28.62
-26.02
-24.92
-25.06
-25.92
-26.87
-27.35
-27.02
-25.80
-23.78
-21.20
-18.27
-15.19
-12.17
-9.40
-7.07
-5.35
-4.30
-3.89
-4.03
-4.61
-5.51
-6.61
-7.79
-8.94
-10.07
-11.28
-12.86
-15.18
-18.50
-22.73
-27.36
-31.52
-34.19
-34.55
-32.18
-27.16
-19.92
-11.11
-1.42
8.50
18.05
26.63
33.71
38.90
42.03
43.25
42.94
41.63
39.85
38.03
36.40
35.03
33.92
33.00
32.26
31.74
31.48
31.50
31.70
31.91
31.86
31.30
30.07
28.19
25.84
23.25
20.62
18.01
15.34
12.46
9.23
5.65
1.90
-1.62
-4.36
-5.73
-5.27
-2.79
1.55
7.33
14.02
21.18
28.53
35.84
42.81
48.87
53.13
54.61
52.46
46.31
36.43
23.70
9.41
-4.99
-18.22
-29.38
-37.99
-43.98
-47.57
-49.15
-49.17
-48.16
-46.67
-45.27
-44.44
-44.40
-45.10
-46.20
-47.24
-47.84
-47.85
-47.45
-47.08
-47.28
-48.53
-50.99
-54.39
-57.98
-60.67
-61.33
-59.12
-53.72
-45.43
-35.01
-23.39
-11.43
0.20
10.95
20.36
27.97
33.46
36.78
38.19
38.26
37.64
36.83
36.07
35.33
34.41
33.13
31.44
29.46
27.43
25.60
24.09
22.87
21.69
20.29
18.42
15.97
12.95
9.51
5.80
1.99
-1.82
-5.60
-9.44
-13.58
-18.31
-23.82
-29.98
-36.23
-41.62
-45.04
-45.58
-42.83
-36.99
-28.77
-19.13
-8.94
1.11
10.56
19.08
26.33
31.98
35.80
37.79
38.26
37.69
36.55
35.18
33.68
31.99
30.07
27.96
25.84
23.91
22.31
21.01
19.90
18.79
17.53
16.00
14.09
11.70
8.80
5.39
1.58
-2.46
-6.51
-10.42
-14.14
-17.72
-21.34
-25.15
-29.12
-32.88
-35.76
-36.92
-35.59
-31.36
-24.28
-14.87
-3.90
7.80
19.52
30.68
40.83
49.58
56.66
62.00
65.82
68.57
70.76
72.72
74.40
75.30
74.65
71.77
66.32
58.50
48.93
38.33
27.29
16.09
4.75
-6.68
-17.98
-28.70
-38.28
-46.27
-52.48
-57.10
-60.57
-63.42
-66.15
-69.02
-71.98
-74.75
-76.82
-77.64
-76.74
-73.88
-69.12
-62.76
-55.29
-47.27
-39.18
-31.43
-24.30
-18.06
-12.88
-8.83
-5.81
-3.52
-1.52
0.59
2.99
5.62
8.21
10.49
12.31
13.74
15.01
16.29
17.60
18.74
19.38
19.23
18.14
16.19
13.52
10.33
6.70
2.61
-2.01
-7.22
-13.00
-19.26
-25.87
-32.65
-39.35
-45.55
-50.65
-53.92
-54.63
-52.27
-46.79
-38.56
-28.39
-17.24
-6.00
4.63
14.23
22.56
29.45
34.81
38.60
40.93
42.10
42.54
42.60
42.47
42.05
41.05
39.20
36.44
32.97
29.24
25.73
22.76
20.40
18.49
16.71
14.78
12.51
9.84
6.83
3.55
0.06
-3.67
-7.70
-12.13
-17.05
-22.41
-28.00
-33.38
-37.89
-40.71
-41.12
-38.61
-33.10
-24.93
-14.84
-3.74
7.42
17.83
26.85
34.01
39.06
42.01
43.16
43.08
42.43
41.76
41.26
40.71
39.57
37.22
33.25
27.70
21.07
14.15
7.77
2.51
-1.42
-4.15
-6.08
-7.59
-8.98
-10.33
-11.60
-12.71
-13.69
-14.66
-15.90
-17.70
-20.35
-24.06
-28.88
-34.65
-40.88
-46.72
-51.10
-52.93
-51.46
-46.51
-38.52
-28.43
-17.33
-6.21
4.16
13.29
20.86
26.64
30.56
32.73
33.49
33.31
32.71
32.05
31.46
30.88
30.18
29.27
28.14
26.87
25.56
24.20
22.70
20.86
18.51
15.56
12.05
8.14
4.07
0.03
-3.93
-7.93
-12.26
-17.26
-23.16
-29.91
-37.03
-43.68
-48.79
-51.28
-50.39
-45.83
-37.90
-27.37
-15.29
-2.74
9.40
20.53
30.26
38.44
44.95
49.81
53.09
54.95
55.59
55.22
53.98
51.98
49.35
46.31
43.11
40.04
37.24
34.73
32.40
30.13
27.87
25.66
23.48
21.25
18.73
15.67
11.93
7.56
2.82
-1.99
-6.75
-11.54
-16.69
-22.46
-28.87
-35.48
-41.47
-45.82
-47.63
-46.46
-42.35
-35.85
-27.70
-18.66
-9.33
-0.18
8.36
15.82
21.66
25.41
26.85
26.04
23.41
19.63
15.41
11.34
7.74
4.65
1.96
-0.52
-2.87
-5.07
-6.97
-8.47
-9.59
-10.50
-11.45
-12.66
-14.22
-16.01
-17.84
-19.51
-20.96
-22.28
-23.66
-25.34
-27.54
-30.41
-33.98
-38.10
-42.35
-45.99
-48.12
-47.86
-44.62
-38.34
-29.48
-18.84
-7.29
4.45
15.85
26.55
36.21
44.48
51.04
55.68
58.38
59.33
58.85
57.29
55.02
52.36
49.60
46.92
44.36
41.76
38.84
35.32
31.03
26.02
20.52
14.80
9.10
3.52
-1.95
-7.34
-12.58
-17.52
-21.90
-25.56
-28.51
-31.04
-33.66
-36.92
-41.21
-46.55
-52.57
-58.52
-63.53
-66.83
-67.97
-66.85
-63.70
-58.91
-52.98
-46.43
-39.83
-33.77
-28.75
-25.13
-23.01
-22.12
-21.97
-21.92
-21.39
-20.04
-17.77
-14.73
-11.19
-7.40
-3.54
0.40
4.51
8.87
13.43
17.95
21.99
25.13
27.07
27.74
27.30
26.04
24.33
22.46
20.58
18.70
16.63
14.07
10.78
6.81
2.65
-0.79
-2.42
-1.37
2.61
9.04
16.75
24.28
30.28
33.78
34.35
32.09
27.42
21.02
13.62
5.95
-1.37
-7.85
-13.20
-17.31
-20.21
-22.04
-23.02
-23.37
-23.32
-23.03
-22.56
-21.94
-21.19
-20.37
-19.59
-18.99
-18.73
-18.96
-19.80
-21.36
-23.72
-26.89
-30.81
-35.35
-40.27
-45.22
-49.73
-53.21
-54.97
-54.40
-51.14
-45.19
-37.00
-27.30
-16.86
-6.30
3.93
13.51
22.04
29.07
34.13
36.98
37.75
36.97
35.35
33.50
31.80
30.33
29.00
27.75
26.68
26.04
26.10
26.93
28.38
29.99
31.18
31.47
30.59
28.57
25.70
22.38
19.02
15.97
13.43
11.38
9.53
7.30
4.05
-0.69
-6.84
-13.66
-19.82
-23.89
-24.79
-22.15
-16.37
-8.41
0.66
9.91
18.67
26.50
32.98
37.72
40.45
41.07
39.87
37.42
34.42
31.47
28.89
26.66
24.60
22.49
20.29
18.13
16.24
14.70
13.44
12.20
10.62
8.46
5.63
2.22
-1.54
-5.39
-9.14
-12.67
-16.02
-19.36
-22.97
-27.12
-32.03
-37.64
-43.55
-49.01
-53.06
-54.79
-53.65
-49.54
-42.83
-34.18
-24.39
-14.24
-4.44
4.34
11.50
16.62
19.60
20.68
20.41
19.39
18.05
16.52
14.72
12.57
10.11
7.65
5.67
4.59
4.70
5.99
8.17
10.74
13.08
14.55
14.64
13.11
9.99
5.61
0.38
-5.36
-11.39
-17.72
-24.41
-31.46
-38.62
-45.24
-50.42
-53.17
-52.77
-49.03
-42.35
-33.64
-24.10
-14.78
-6.41
0.64
6.15
9.99
12.07
12.46
11.44
9.50
7.36
5.81
5.30
5.77
6.71
7.45
7.58
6.99
5.76
4.18
2.70
1.51
0.40
-0.95
-2.63
-4.35
-5.59
-6.13
-5.87
-4.60
-2.34
0.44
3.08
4.91
5.28
3.43
-1.62
-10.32
-21.48
-32.85
-41.77
-45.81
-43.16
-33.16
-14.80
9.23
33.50
53.87
69.05
79.18
83.82
81.78
72.22
55.90
36.66
16.92
-0.29
-12.80
-20.23
-23.61
-24.15
-22.40
-18.40
-12.16
-5.14
0.78
3.65
3.14
-0.35
-5.63
-11.19
-15.76
-19.06
-21.25
-22.35
-22.61
-22.59
-23.11
-24.74
-27.51
-30.92
-34.13
-36.19
-35.95
-32.58
-25.89
-16.38
-4.99
7.20
19.08
29.63
38.04
44.06
47.89
50.05
51.10
51.50
51.50
51.18
50.45
49.18
47.27
44.68
41.34
37.25
32.61
27.83
23.40
19.70
16.77
14.30
11.82
8.97
5.60
1.87
-1.96
-5.72
-9.41
-13.18
-17.27
-21.83
-26.89
-32.28
-37.59
-42.20
-45.35
-46.34
-44.65
-40.12
-32.98
-23.76
-13.19
-2.03
8.93
18.87
27.07
32.95
36.30
37.35
36.72
35.26
33.74
32.70
32.37
32.62
33.13
33.26
32.15
28.78
22.31
12.47
-0.16
-14.15
-27.77
-39.52
-48.65
-55.13
-59.30
-61.40
-61.47
-59.53
-55.98
-51.75
-47.97
-45.40
-43.87
-42.20
-38.66
-31.86
-21.37
-7.96
6.74
20.99
33.53
43.79
51.77
57.54
60.96
61.67
59.34
54.09
46.69
38.43
30.73
24.77
21.18
20.08
21.15
23.73
26.86
29.26
29.50
26.32
19.07
8.06
-5.35
-19.11
-31.09
-39.74
-44.52
-46.03
-45.65
-45.11
-45.89
-48.79
-53.61
-59.05
-63.00
-63.02
-57.21
-44.92
-27.24
-6.64
13.82
31.55
45.20
54.69
60.69
63.89
64.56
62.66
58.18
51.59
43.82
35.95
28.80
22.73
17.61
13.18
9.29
5.97
3.36
1.51
0.26
-0.77
-2.06
-4.02
-6.89
-10.64
-15.04
-19.70
-24.24
-28.43
-32.26
-35.90
-39.60
-43.41
-47.06
-49.92
-51.18
-50.07
-46.28
-39.94
-31.71
-22.50
-13.25
-4.75
2.48
8.12
12.03
14.25
14.96
14.49
13.26
11.72
10.25
9.02
8.05
7.21
6.31
5.27
4.13
3.09
2.37
2.08
2.08
1.96
1.18
-0.74
-4.05
-8.63
-14.16
-20.17
-26.37
-32.59
-38.75
-44.69
-50.08
-54.42
-57.18
-57.96
-56.57
-53.08
-47.70
-40.75
-32.58
-23.60
-14.28
-5.16
3.24
10.52
16.54
21.40
25.41
28.87
31.98
34.71
36.90
38.35
38.92
38.66
37.70
36.22
34.30
31.96
29.19
26.03
22.61
19.10
15.60
12.09
8.40
4.28
-0.51
-6.05
-12.16
-18.45
-24.34
-29.25
-32.74
-34.57
-34.72
-33.29
-30.44
-26.33
-21.14
-15.13
-8.73
-2.48
3.00
7.12
9.45
9.86
8.50
5.88
2.66
-0.41
-2.66
-3.57
-2.88
-0.50
3.40
8.39
13.83
18.90
22.79
24.94
25.22
23.96
21.80
19.41
17.28
15.60
14.32
13.21
11.97
10.27
7.81
4.41
0.11
-4.65
-9.07
-12.20
-13.15
-11.46
-7.21
-1.03
6.14
13.28
19.56
24.46
27.76
29.58
30.22
30.03
29.38
28.54
27.73
27.14
26.89
27.08
27.67
28.47
29.18
29.50
29.29
28.59
27.61
26.57
25.53
24.34
22.70
20.31
17.08
13.17
9.03
5.16
1.97
-0.44
-2.35
-4.32
-7.00
-10.84
-15.81
-21.27
-26.16
-29.23
-29.56
-26.75
-21.05
-13.24
-4.33
4.61
12.68
19.20
23.75
26.24
26.85
25.99
24.15
21.76
19.09
16.30
13.53
10.98
8.85
7.30
6.24
5.40
4.38
2.84
0.66
-2.07
-5.12
-8.29
-11.57
-15.03
-18.75
-22.71
-26.67
-30.33
-33.43
-35.94
-38.08
-40.27
-42.86
-46.06
-49.81
-53.83
-57.79
-61.40
-64.44
-66.69
-67.90
-67.69
-65.63
-61.44
-55.03
-46.69
-37.00
-26.68
-16.52
-7.17
0.88
7.32
12.05
15.18
16.97
17.78
17.98
17.85
17.57
17.17
16.62
15.86
14.96
14.13
13.78
14.46
16.59
20.30
25.25
30.71
35.83
39.93
42.72
44.24
44.65
44.00
42.14
38.82
33.98
27.80
20.72
13.28
5.87
-1.22
-7.72
-13.22
-17.21
-19.16
-18.77
-16.12
-11.63
-5.87
0.56
7.15
13.43
18.99
23.41
26.42
27.96
28.28
27.84
27.06
26.24
25.39
24.39
23.07
21.40
19.49
17.54
15.77
14.28
13.10
12.15
11.35
10.58
9.71
8.57
7.00
4.88
2.21
-0.87
-4.12
-7.32
-10.39
-13.38
-16.55
-20.17
-24.38
-29.09
-33.88
-38.09
-40.99
-41.92
-40.49
-36.63
-30.54
-22.69
-13.71
-4.33
4.69
12.66
19.03
23.51
26.00
26.63
25.63
23.27
19.87
15.81
11.43
7.08
2.99
-0.75
-4.08
-6.93
-9.14
-10.49
-10.81
-10.14
-8.79
-7.23
-6.02
-5.56
-6.02
-7.37
-9.47
-12.11
-15.07
-18.10
-20.99
-23.57
-25.87
-28.11
-30.64
-33.76
-37.45
-41.31
-44.63
-46.57
-46.46
-43.95
-39.07
-32.13
-23.62
-14.08
-4.09
5.73
14.79
22.56
28.72
33.19
36.16
38.03
39.25
40.21
41.10
41.95
42.59
42.81
42.45
41.43
39.87
37.97
36.00
34.17
32.59
31.27
30.05
28.71
26.98
24.61
21.43
17.39
12.55
7.07
1.13
-5.12
-11.61
-18.35
-25.27
-32.26
-39.02
-45.12
-50.07
-53.43
-54.89
-54.35
-51.85
-47.61
-41.96
-35.28
-28.01
-20.62
-13.62
-7.46
-2.51
1.04
3.21
4.20
4.37
4.08
3.59
3.01
2.33
1.48
0.43
-0.76
-1.94
-2.92
-3.59
-3.96
-4.14
-4.34
-4.77
-5.63
-7.01
-8.93
-11.27
-13.85
-16.45
-18.96
-21.43
-24.14
-27.41
-31.48
-36.28
-41.33
-45.80
-48.73
-49.32
-47.09
-42.01
-34.39
-24.84
-14.11
-3.01
7.61
16.98
24.52
29.95
33.34
35.12
35.91
36.26
36.56
36.88
37.12
37.13
36.87
36.41
35.90
35.42
34.93
34.26
33.14
31.42
29.05
26.11
22.72
18.95
14.85
10.42
5.73
0.89
-3.95
-8.64
-13.17
-17.60
-22.02
-26.44
-30.63
-34.13
-36.30
-36.48
-34.25
-29.57
-22.82
-14.73
-6.15
2.15
9.62
15.92
20.88
24.39
26.35
26.77
25.81
23.85
21.42
19.00
16.92
15.22
13.75
12.35
10.96
9.65
8.57
7.77
7.14
6.46
5.47
4.00
1.99
-0.45
-3.22
-6.16
-9.16
-12.16
-15.13
-18.15
-21.38
-25.07
-29.37
-34.28
-39.42
-44.10
-47.38
-48.41
-46.66
-42.08
-35.13
-26.55
-17.12
-7.46
2.01
11.03
19.37
26.78
33.04
38.07
41.90
44.70
46.67
47.95
48.65
48.87
48.85
48.90
49.38
50.43
51.90
53.31
54.00
53.35
50.98
46.83
41.13
34.33
27.02
19.84
13.44
8.36
4.88
2.88
1.82
0.87
-0.85
-3.94
-8.48
-13.98
-19.48
-23.86
-26.20
-26.04
-23.53
-19.29
-14.16
-8.94
-4.22
-0.31
2.67
4.71
5.82
6.16
6.03
5.87
6.18
7.32
9.38
12.14
15.21
18.15
20.66
22.57
23.81
24.28
23.77
22.03
18.85
14.18
8.22
1.39
-5.81
-12.82
-19.18
-24.55
-28.80
-32.09
-34.89
-37.88
-41.78
-47.02
-53.54
-60.64
-67.12
-71.60
-72.87
-70.30
-63.88
-54.27
-42.51
-29.80
-17.23
-5.63
4.47
12.81
19.33
24.13
27.42
29.51
30.81
31.80
32.90
34.42
36.39
38.64
40.86
42.81
44.40
45.69
46.67
47.05
46.25
43.56
38.50
31.07
21.86
11.88
2.15
-6.60
-14.10
-20.40
-25.73
-30.26
-34.04
-37.04
-39.28
-40.81
-41.74
-42.09
-41.82
-40.80
-38.86
-35.97
-32.27
-28.11
-23.95
-20.23
-17.30
-15.30
-14.23
-13.96
-14.21
-14.70
-15.14
-15.32
-15.18
-14.79
-14.33
-14.00
-13.95
-14.24
-14.86
-15.80
-17.09
-18.88
-21.34
-24.62
-28.70
-33.39
-38.30
-42.95
-46.91
-49.92
-51.96
-53.23
-54.08
-54.78
-55.47
-56.05
-56.18
-55.44
-53.36
-49.62
-44.02
-36.56
-27.41
-16.93
-5.65
5.77
16.60
26.16
33.98
39.84
43.82
46.24
47.54
48.19
48.53
48.76
48.90
48.87
48.57
47.97
47.13
46.21
45.31
44.48
43.57
42.33
40.46
37.74
34.12
29.70
24.71
19.42
14.05
8.73
3.49
-1.65
-6.73
-11.83
-17.02
-22.32
-27.60
-32.52
-36.48
-38.81
-38.95
-36.63
-32.01
-25.55
-17.89
-9.63
-1.27
6.83
14.37
21.05
26.63
30.94
33.92
35.64
36.25
35.93
34.86
33.25
31.27
29.12
27.02
25.15
23.65
22.57
21.86
21.34
20.80
19.99
18.75
17.05
14.99
12.75
10.50
8.37
6.40
4.55
2.66
0.57
-1.92
-4.85
-8.11
-11.26
-13.68
-14.67
-13.71
-10.62
-5.65
0.63
7.59
14.71
21.67
28.33
34.57
40.19
44.89
48.39
50.52
51.37
51.24
50.61
50.01
49.85
50.37
51.48
52.79
53.62
53.21
50.98
46.71
40.65
33.43
25.80
18.43
11.73
5.80
0.54
-4.27
-8.88
-13.53
-18.46
-23.87
-29.94
-36.71
-44.17
-52.16
-60.41
-68.58
-76.20
-82.71
-87.58
-90.29
-90.52
-88.18
-83.43
-76.63
-68.29
-58.94
-49.07
-39.17
-29.71
-21.12
-13.78
-7.94
-3.56
-0.42
1.93
3.92
5.86
7.81
9.68
11.26
12.42
13.16
13.59
13.88
14.22
14.77
15.58
16.59
17.61
18.35
18.49
17.80
16.24
14.02
11.44
8.82
6.33
3.93
1.45
-1.34
-4.59
-8.32
-12.44
-16.76
-21.01
-24.84
-27.84
-29.55
-29.52
-27.50
-23.49
-17.78
-10.95
-3.62
3.63
10.41
16.44
21.54
25.59
28.47
30.18
30.84
30.70
30.02
29.05
27.94
26.83
25.84
25.12
24.75
24.69
24.75
24.64
24.11
23.08
21.65
20.01
18.33
16.66
14.93
13.02
10.86
8.46
5.88
3.21
0.48
-2.28
-5.09
-7.94
-10.88
-14.02
-17.51
-21.47
-25.92
-30.59
-35.01
-38.53
-40.50
-40.49
-38.37
-34.28
-28.65
-21.99
-14.88
-7.81
-1.21
4.62
9.43
13.07
15.43
16.54
16.55
15.78
14.67
13.70
13.16
13.13
13.43
13.78
13.94
13.85
13.59
13.29
13.04
12.81
12.48
11.91
11.02
9.82
8.40
6.86
5.27
3.62
1.83
-0.22
-2.62
-5.36
-8.37
-11.49
-14.62
-17.71
-20.77
-23.78
-26.55
-28.74
-29.85
-29.39
-27.02
-22.72
-16.83
-9.90
-2.65
4.27
10.37
15.36
19.16
21.78
23.33
23.93
23.78
23.07
22.03
20.89
19.80
18.89
18.18
17.65
17.25
16.93
16.59
16.19
15.65
14.96
14.11
13.09
11.92
10.66
9.35
8.04
6.72
5.36
3.86
2.13
0.15
-2.07
-4.45
-6.90
-9.39
-11.95
-14.57
-17.17
-19.48
-21.06
-21.38
-19.96
-16.46
-10.85
-3.39
5.43
15.02
24.76
34.11
42.68
50.20
56.53
61.63
65.52
68.22
69.69
69.87
68.71
66.28
62.75
58.39
53.53
48.53
43.81
39.88
37.13
35.59
34.69
33.24
29.82
23.29
13.29
0.47
-13.89
-28.32
-41.76
-53.69
-64.05
-72.94
-80.44
-86.59
-91.36
-94.51
-95.46
-93.17
-86.44
-74.45
-57.29
-36.34
-14.07
6.45
22.45
32.11
35.03
32.17
25.42
17.00
8.79
1.91
-3.34
-7.30
-10.49
-13.30
-15.81
-17.90
-19.37
-20.07
-19.82
-18.35
-15.26
-10.21
-3.25
4.89
12.72
18.30
19.85
16.56
9.08
-0.52
-9.44
-15.24
-16.90
-15.13
-12.04
-10.06
-10.86
-14.76
-20.93
-28.03
-35.04
-41.55
-47.61
-53.19
-57.76
-60.30
-59.73
-55.49
-47.92
-38.25
-28.13
-19.05
-11.90
-6.80
-3.32
-0.80
1.29
3.26
5.12
6.82
8.27
9.57
10.93
12.67
15.02
18.16
22.11
26.89
32.46
38.67
45.01
50.50
53.81
53.63
49.24
40.86
29.67
17.27
5.14
-5.91
-15.78
-24.81
-33.35
-41.42
-48.78
-55.00
-59.76
-62.87
-64.23
-63.79
-61.48
-57.35
-51.67
-44.94
-37.81
-30.88
-24.55
-19.01
-14.24
-10.12
-6.60
-3.66
-1.33
0.39
1.57
2.36
2.90
3.31
3.59
3.67
3.46
3.01
2.47
2.15
2.36
3.29
4.83
6.59
8.01
8.55
7.90
6.11
3.60
0.92
-1.43
-3.24
-4.60
-5.87
-7.44
-9.47
-11.71
-13.44
-13.55
-10.70
-3.70
8.16
24.73
44.73
65.81
84.92
99.06
106.05
105.13
97.06
83.77
67.68
50.99
35.29
21.46
9.82
0.41
-6.92
-12.43
-16.52
-19.63
-22.17
-24.46
-26.65
-28.80
-30.91
-32.93
-34.76
-36.23
-37.05
-37.00
-36.05
-34.47
-32.75
-31.47
-30.98
-31.28
-31.96
-32.34
-31.68
-29.23
-24.34
-16.58
-5.92
7.02
20.80
33.36
42.53
46.83
45.95
40.91
33.60
25.95
19.30
14.06
9.94
6.41
3.14
0.22
-2.02
-3.30
-3.66
-3.49
-3.30
-3.38
-3.54
-2.95
-0.41
5.27
14.69
27.50
42.23
56.57
67.89
73.86
72.98
64.85
50.21
30.70
8.47
-14.28
-35.66
-54.37
-69.71
-81.49
-89.79
-94.70
-96.26
-94.48
-89.47
-81.57
-71.45
-60.01
-48.31
-37.44
-28.41
-21.94
-18.39
-17.66
-19.28
-22.68
-27.41
-33.27
-40.19
-47.96
-55.87
-62.79
-67.41
-68.87
-67.16
-63.16
-58.29
-53.73
-49.94
-46.43
-42.18
-36.24
-28.34
-19.01
-9.32
-0.34
7.35
13.69
18.90
22.92
25.26
25.20
22.36
17.22
11.25
6.44
4.52
6.24
11.13
17.93
25.26
32.24
38.73
45.07
51.66
58.68
65.94
73.10
79.92
86.24
91.99
96.96
100.74
102.86
102.90
100.71
96.41
90.35
82.91
74.43
65.14
55.29
45.22
35.42
26.47
18.86
12.89
8.56
5.63
3.69
2.25
0.79
-1.21
-4.25
-8.76
-15.06
-23.19
-32.76
-42.93
-52.47
-60.04
-64.51
-65.23
-62.18
-55.88
-47.24
-37.26
-26.88
-16.82
-7.57
0.52
7.28
12.61
16.54
19.19
20.81
21.78
22.56
23.65
25.44
28.11
31.55
35.40
39.11
42.17
44.17
44.99
44.73
43.69
42.29
41.06
40.52
41.10
42.97
45.83
48.79
50.46
49.21
43.67
33.21
18.18
-0.10
-19.77
-38.82
-55.59
-68.87
-77.96
-82.61
-82.90
-79.32
-72.71
-64.22
-55.07
-46.30
-38.57
-32.06
-26.67
-22.17
-18.36
-15.21
-12.75
-10.99
-9.92
-9.38
-9.18
-9.01
-8.57
-7.44
-5.20
-1.40
4.31
12.05
21.65
32.45
43.43
53.19
60.24
63.20
61.14
53.89
42.08
27.07
10.63
-5.43
-19.69
-31.31
-40.15
-46.66
-51.70
-56.20
-60.86
-65.88
-70.84
-74.76
-76.39
-74.57
-68.57
-58.38
-44.74
-29.01
-12.91
1.95
14.35
23.67
29.96
33.69
35.51
35.95
35.39
34.01
31.97
29.45
26.66
23.81
20.99
18.22
15.45
12.61
9.65
6.60
3.47
0.29
-2.98
-6.43
-10.14
-14.15
-18.40
-22.70
-26.80
-30.46
-33.55
-35.99
-37.78
-38.93
-39.39
-39.20
-38.55
-37.81
-37.42
-37.69
-38.60
-39.69
-40.15
-39.14
-36.05
-30.77
-23.69
-15.49
-6.92
1.48
9.44
16.97
24.12
30.84
36.95
42.19
46.31
49.32
51.49
53.48
56.17
60.52
67.32
76.88
88.79
101.75
113.72
122.24
125.05
120.71
109.10
91.41
69.81
46.80
24.56
4.59
-12.21
-25.37
-34.53
-39.41
-40.03
-37.02
-31.76
-26.30
-22.82
-23.11
-27.99
-37.09
-48.95
-61.48
-72.49
-80.24
-83.84
-83.20
-78.86
-71.63
-62.28
-51.52
-40.01
-28.51
-17.88
-8.91
-2.05
2.86
6.53
10.03
14.41
20.29
27.64
35.78
43.62
50.00
54.03
55.24
53.65
49.62
43.69
36.41
28.32
19.91
11.61
3.79
-3.24
-9.31
-14.34
-18.32
-21.25
-23.17
-24.16
-24.38
-24.05
-23.45
-22.83
-22.31
-21.87
-21.27
-20.03
-17.53
-13.15
-6.54
2.14
12.10
21.97
30.19
35.43
37.02
35.07
30.35
23.99
17.13
10.60
4.92
0.22
-3.63
-6.90
-9.97
-13.12
-16.50
-20.03
-23.45
-26.42
-28.70
-30.17
-30.97
-31.32
-31.52
-31.80
-32.34
-33.22
-34.55
-36.39
-38.83
-41.91
-45.63
-49.95
-54.71
-59.75
-64.88
-69.91
-74.62
-78.72
-81.80
-83.37
-82.92
-80.09
-74.75
-67.04
-57.31
-46.10
-33.97
-21.59
-9.61
1.33
10.78
18.58
24.90
30.16
34.80
39.14
43.27
47.09
50.44
53.14
54.93
55.50
54.55
51.91
47.87
43.14
38.70
35.36
33.41
32.54
32.00
31.16
29.83
28.34
27.22
26.76
26.68
26.17
24.24
20.28
14.28
6.89
-0.93
-8.28
-14.56
-19.45
-22.71
-23.99
-22.83
-18.84
-11.99
-2.77
7.82
18.56
28.30
36.28
42.24
46.37
49.19
51.34
53.39
55.70
58.30
60.93
63.14
64.61
65.28
65.39
65.39
65.63
66.21
66.87
67.16
66.61
64.90
61.85
57.31
51.12
43.14
33.34
21.99
9.63
-3.04
-15.27
-26.43
-35.95
-43.32
-48.02
-49.60
-47.78
-42.64
-34.66
-24.74
-14.09
-3.94
4.72
11.32
15.79
18.42
19.72
20.12
19.99
19.64
19.41
19.74
21.11
23.89
28.12
33.46
39.21
44.44
48.21
49.79
48.68
44.77
38.21
29.38
18.77
6.95
-5.44
-17.67
-29.02
-38.84
-46.76
-52.80
-57.35
-61.03
-64.44
-67.79
-70.79
-72.67
-72.40
-69.07
-62.19
-51.87
-38.78
-23.93
-8.43
6.60
20.06
30.81
37.73
39.92
37.00
29.39
18.31
5.55
-7.04
-17.97
-26.34
-31.91
-34.91
-35.93
-35.72
-35.20
-35.14
-36.06
-37.85
-39.91
-41.36
-41.46
-40.11
-37.78
-35.38
-33.62
-32.71
-32.27
-31.69
-30.59
-29.14
-28.05
-28.17
-29.97
-33.26
-37.15
-40.43
-42.05
-41.50
-38.86
-34.67
-29.52
-23.82
-17.66
-11.09
-4.27
2.30
7.92
11.93
14.05
14.52
14.02
13.36
13.21
13.88
15.40
17.69
20.69
24.38
28.72
33.53
38.51
43.22
47.23
50.05
51.21
50.26
46.83
40.84
32.52
22.48
11.50
0.44
-10.01
-19.42
-27.67
-34.89
-41.26
-46.89
-51.68
-55.32
-57.35
-57.40
-55.30
-51.19
-45.35
-38.13
-29.84
-20.77
-11.32
-1.98
6.64
14.06
20.12
25.01
29.17
33.10
37.07
41.06
44.82
48.03
50.56
52.59
54.49
56.68
59.38
62.44
65.35
67.53
68.51
68.25
67.18
66.08
65.81
67.07
70.14
74.83
80.39
85.60
89.01
89.27
85.54
77.78
66.72
53.54
39.38
24.87
10.02
-5.39
-21.34
-37.05
-50.97
-61.14
-65.90
-64.53
-57.59
-46.85
-34.86
-24.30
-17.35
-15.14
-17.48
-22.95
-29.35
-34.47
-36.87
-36.46
-34.46
-32.87
-33.62
-37.79
-45.26
-54.88
-65.03
-74.27
-81.74
-87.25
-91.11
-93.89
-96.20
-98.57
-101.27
-104.22
-106.86
-108.29
-107.55
-104.09
-98.08
-90.46
-82.58
-75.55
-69.70
-64.31
-57.91
-48.82
-35.87
-18.86
1.39
23.21
44.58
63.58
78.75
89.38
95.52
97.89
97.56
95.63
92.96
89.98
86.74
83.03
78.54
73.04
66.44
58.83
50.53
41.95
33.60
25.90
19.14
13.36
8.42
4.01
-0.24
-4.69
-9.56
-14.95
-20.75
-26.76
-32.75
-38.61
-44.35
-50.07
-55.68
-60.79
-64.67
-66.41
-65.24
-60.90
-53.70
-44.43
-34.11
-23.64
-13.64
-4.42
3.87
11.14
17.24
22.05
25.49
27.64
28.73
29.09
29.04
28.78
28.39
27.86
27.17
26.36
25.54
24.85
24.36
24.01
23.60
22.86
21.57
19.60
17.00
13.93
10.60
7.17
3.76
0.39
-2.97
-6.40
-10.04
-14.02
-18.43
-23.22
-28.14
-32.68
-36.14
-37.81
-37.15
-34.01
-28.63
-21.58
-13.58
-5.31
2.70
10.09
16.60
22.02
26.24
29.18
30.91
31.64
31.63
31.19
30.62
30.12
29.81
29.67
29.63
29.60
29.55
29.45
29.30
29.03
28.47
27.49
26.03
24.18
22.20
20.36
18.82
17.57
16.45
15.28
14.02
12.74
11.51
10.36
9.16
7.78
6.26
4.93
4.46
5.64
9.12
15.16
23.46
33.26
43.50
53.08
61.15
67.21
71.24
73.55
74.74
75.44
76.14
76.96
77.53
76.97
74.02
67.48
56.63
41.57
23.40
3.89
-14.99
-31.61
-45.13
-55.49
-63.19
-68.87
-73.03
-75.94
-77.70
-78.46
-78.46
-78.07
-77.63
-77.40
-77.52
-77.99
-78.74
-79.61
-80.32
-80.45
-79.48
-76.87
-72.25
-65.62
-57.30
-47.90
-38.13
-28.62
-19.87
-12.24
-5.98
-1.20
2.13
4.26
5.56
6.46
7.27
8.11
8.94
9.61
10.04
10.29
10.52
10.93
11.60
12.43
13.15
13.43
12.95
11.60
9.51
6.96
4.31
1.82
-0.47
-2.71
-5.13
-7.98
-11.32
-15.07
-18.99
-22.71
-25.78
-27.71
-28.05
-26.49
-22.94
-17.58
-10.87
-3.41
4.10
11.04
16.88
21.24
23.89
24.76
23.96
21.76
18.53
14.73
10.83
7.23
4.24
1.99
0.48
-0.46
-1.07
-1.56
-2.14
-2.90
-3.93
-5.32
-7.15
-9.49
-12.35
-15.60
-18.98
-22.19
-24.97
-27.29
-29.40
-31.74
-34.73
-38.46
-42.56
-46.22
-48.49
-48.58
-46.14
-41.37
-34.78
-27.06
-18.81
-10.52
-2.56
4.71
10.99
16.04
19.82
22.47
24.25
25.45
26.29
26.93
27.41
27.80
28.15
28.47
28.74
28.84
28.66
28.11
27.21
26.04
24.67
23.09
21.21
18.95
16.30
13.38
10.33
7.24
4.06
0.59
-3.41
-8.08
-13.31
-18.69
-23.56
-27.14
-28.75
-27.93
-24.62
-19.16
-12.20
-4.53
3.09
10.14
16.31
21.55
25.92
29.52
32.44
34.71
36.32
37.30
37.74
37.88
37.96
38.25
38.90
39.84
40.86
41.65
41.90
41.38
40.03
37.88
35.05
31.67
27.90
23.95
20.05
16.42
13.15
10.19
7.33
4.33
1.04
-2.43
-5.74
-8.44
-10.18
-10.89
-10.69
-9.86
-8.63
-7.01
-4.86
-2.02
1.49
5.37
9.02
11.81
13.25
13.21
11.88
9.77
7.43
5.30
3.68
2.61
2.05
1.84
1.84
1.95
2.08
2.14
2.03
1.66
0.95
-0.08
-1.34
-2.69
-3.98
-5.16
-6.28
-7.56
-9.25
-11.58
-14.58
-18.02
-21.40
-24.06
-25.36
-24.83
-22.36
-18.18
-12.80
-6.77
-0.65
5.09
10.02
13.65
15.48
15.10
12.37
7.56
1.32
-5.48
-12.01
-17.67
-22.23
-25.71
-28.31
-30.19
-31.43
-32.01
-31.94
-31.28
-30.27
-29.24
-28.53
-28.42
-28.99
-30.17
-31.77
-33.58
-35.46
-37.43
-39.58
-42.07
-44.97
-48.17
-51.32
-53.82
-54.96
-54.07
-50.69
-44.70
-36.38
-26.26
-15.06
-3.48
7.85
18.46
28.01
36.33
43.36
49.15
53.81
57.52
60.44
62.64
64.13
64.85
64.72
63.70
61.83
59.22
56.01
52.31
48.18
43.56
38.41
32.74
26.71
20.61
14.85
9.78
5.66
2.53
0.27
-1.36
-2.65
-3.88
-5.23
-6.76
-8.30
-9.46
-9.66
-8.30
-4.96
0.45
7.63
15.90
24.40
32.25
38.71
43.30
45.80
46.30
45.09
42.63
39.40
35.81
32.17
28.66
25.41
22.46
19.89
17.73
16.01
14.73
13.84
13.21
12.73
12.31
11.87
11.36
10.78
10.06
9.17
8.12
6.95
5.79
4.75
3.85
3.02
2.11
0.99
-0.28
-1.47
-2.16
-1.90
-0.30
2.90
7.77
14.19
21.82
30.00
37.83
44.31
48.53
50.00
48.76
45.34
40.53
35.06
29.41
23.74
18.02
12.21
6.36
0.66
-4.72
-9.67
-14.24
-18.54
-22.74
-26.93
-31.09
-35.09
-38.75
-41.82
-44.10
-45.50
-46.10
-46.17
-46.12
-46.38
-47.32
-49.02
-51.26
-53.51
-55.05
-55.15
-53.25
-49.16
-43.03
-35.31
-26.55
-17.30
-7.99
1.06
9.61
17.48
24.53
30.76
36.18
40.74
44.25
46.27
46.31
44.04
39.50
33.20
25.98
18.66
11.76
5.42
-0.50
-6.16
-11.56
-16.48
-20.69
-24.10
-26.82
-29.16
-31.41
-33.73
-36.14
-38.57
-40.99
-43.45
-46.02
-48.71
-51.36
-53.65
-55.16
-55.46
-54.24
-51.36
-46.94
-41.30
-34.99
-28.65
-22.90
-18.18
-14.72
-12.52
-11.38
-11.07
-11.29
-11.79
-12.35
-12.80
-13.03
-13.05
-12.93
-12.79
-12.72
-12.69
-12.61
-12.31
-11.69
-10.69
-9.40
-7.93
-6.47
-5.21
-4.40
-4.24
-4.92
-6.45
-8.74
-11.61
-14.91
-18.52
-22.41
-26.47
-30.41
-33.74
-35.81
-36.06
-34.17
-30.21
-24.60
-17.97
-10.97
-4.14
2.11
7.49
11.80
14.88
16.64
17.23
16.96
16.33
15.78
15.63
15.86
16.30
16.70
16.95
17.12
17.39
17.87
18.53
19.12
19.36
19.06
18.18
16.87
15.30
13.57
11.72
9.70
7.46
4.96
2.17
-0.93
-4.33
-7.89
-11.34
-14.26
-16.15
-16.54
-15.15
-11.93
-7.07
-1.01
5.67
12.31
18.32
23.24
26.88
29.26
30.63
31.29
31.54
31.56
31.47
31.29
30.99
30.57
30.00
29.27
28.35
27.23
25.90
24.35
22.60
20.71
18.72
16.69
14.62
12.53
10.39
8.18
5.92
3.61
1.23
-1.34
-4.26
-7.64
-11.39
-15.17
-18.38
-20.37
-20.59
-18.85
-15.31
-10.39
-4.68
1.26
6.96
12.02
16.18
19.30
21.38
22.61
23.28
23.67
23.93
24.06
23.90
23.32
22.32
21.04
19.74
18.72
18.17
18.08
18.26
18.42
18.21
17.39
15.85
13.59
10.79
7.66
4.41
1.20
-1.94
-5.15
-8.65
-12.67
-17.36
-22.57
-27.90
-32.64
-36.02
-37.37
-36.37
-33.15
-28.17
-22.14
-15.73
-9.50
-3.83
1.05
4.94
7.72
9.33
9.85
9.51
8.67
7.65
6.67
5.80
4.96
4.06
3.07
2.12
1.38
0.95
0.81
0.70
0.32
-0.61
-2.14
-4.12
-6.26
-8.28
-10.08
-11.71
-13.35
-15.25
-17.58
-20.47
-23.87
-27.57
-31.11
-33.83
-35.01
-34.07
-30.80
-25.46
-18.65
-11.14
-3.66
3.29
9.42
14.57
18.68
21.72
23.73
24.85
25.25
25.13
24.58
23.64
22.28
20.55
18.62
16.75
15.29
14.50
14.46
15.04
15.92
16.66
16.87
16.30
14.92
12.92
10.56
8.05
5.49
2.78
-0.22
-3.64
-7.44
-11.42
-15.25
-18.52
-20.87
-21.99
-21.71
-19.98
-16.90
-12.79
-8.11
-3.39
0.87
4.33
6.84
8.42
9.19
9.31
8.91
8.18
7.27
6.33
5.48
4.73
4.06
3.38
2.64
1.79
0.81
-0.31
-1.61
-3.12
-4.82
-6.63
-8.46
-10.17
-11.73
-13.17
-14.63
-16.30
-18.41
-21.11
-24.41
-28.05
-31.53
-34.15
-35.22
-34.26
-31.11
-26.00
-19.39
-11.86
-3.99
3.69
10.73
16.74
21.42
24.67
26.59
27.46
27.64
27.45
27.10
26.67
26.17
25.56
24.76
23.74
22.42
20.74
18.63
16.05
12.99
9.51
5.72
1.81
-2.01
-5.57
-8.78
-11.70
-14.45
-17.22
-20.17
-23.36
-26.67
-29.83
-32.40
-33.90
-33.90
-32.20
-28.83
-24.07
-18.34
-12.12
-5.83
0.16
5.53
10.01
13.38
15.56
16.58
16.62
15.93
14.77
13.34
11.80
10.26
8.78
7.44
6.25
5.26
4.44
3.75
3.06
2.23
1.09
-0.47
-2.47
-4.83
-7.37
-9.88
-12.27
-14.57
-17.00
-19.84
-23.27
-27.23
-31.38
-35.14
-37.88
-39.03
-38.26
-35.54
-31.06
-25.22
-18.54
-11.60
-4.99
0.83
5.61
9.29
12.00
13.93
15.20
15.84
15.82
15.16
13.98
12.53
11.17
10.21
9.84
10.08
10.78
11.73
12.71
13.53
14.07
14.29
14.20
13.86
13.38
12.84
12.36
11.98
11.71
11.52
11.46
11.62
12.13
13.04
14.22
15.38
16.18
16.32
15.79
14.83
13.95
13.73
14.64
16.88
20.27
24.32
28.29
31.44
33.22
33.46
32.43
30.76
29.22
28.47
28.80
30.03
31.60
32.71
32.64
30.94
27.58
22.84
17.24
11.37
5.72
0.60
-3.87
-7.83
-11.63
-15.73
-20.59
-26.56
-33.76
-41.95
-50.58
-58.76
-65.45
-69.67
-70.70
-68.32
-62.84
-55.07
-46.01
-36.67
-27.74
-19.54
-11.98
-4.65
2.96
11.31
20.66
31.04
42.20
53.79
65.31
76.24
85.91
93.50
98.12
98.97
95.59
88.06
77.07
63.67
48.97
33.92
19.12
4.91
-8.38
-20.42
-30.76
-39.09
-45.44
-50.26
-54.41
-58.82
-64.15
-70.44
-77.17
-83.39
-88.09
-90.59
-90.70
-88.68
-85.06
-80.36
-75.01
-69.32
-63.54
-57.97
-52.91
-48.54
-44.84
-41.59
-38.46
-35.20
-31.75
-28.28
-25.05
-22.33
-20.23
-18.67
-17.44
-16.30
-15.09
-13.82
-12.67
-11.88
-11.67
-12.12
-13.10
-14.32
-15.47
-16.29
-16.73
-16.90
-17.07
-17.53
-18.57
-20.35
-22.89
-25.94
-29.02
-31.47
-32.55
-31.66
-28.47
-22.96
-15.47
-6.53
3.19
13.04
22.45
31.00
38.37
44.35
48.82
51.77
53.31
53.75
53.54
53.17
53.07
53.49
54.48
55.97
57.82
59.86
61.87
63.55
64.55
64.57
63.53
61.67
59.46
57.52
56.29
55.89
56.05
56.21
55.69
53.95
50.80
46.53
41.90
37.98
35.84
36.25
39.44
45.08
52.39
60.43
68.40
75.81
82.50
88.53
93.99
98.80
102.51
104.30
102.98
97.31
86.38
70.07
49.27
25.82
2.04
-19.95
-38.81
-54.17
-66.50
-76.62
-85.24
-92.75
-99.25
-104.86
-109.73
-114.09
-118.05
-121.45
-123.98
-125.30
-125.36
-124.45
-123.08
-121.78
-120.76
-119.88
-118.61
-116.30
-112.38
-106.51
-98.64
-89.02
-78.13
-66.51
-54.77
-43.50
-33.24
-24.45
-17.40
-12.15
-8.53
-6.16
-4.57
-3.31
-2.05
-0.58
1.17
3.20
5.48
7.91
10.36
12.72
14.95
17.09
19.23
21.45
23.75
26.08
28.35
30.47
32.39
34.00
35.03
35.13
33.96
31.43
27.99
24.54
22.34
22.50
25.63
31.63
39.71
48.74
57.61
65.53
72.18
77.66
82.29
86.34
89.81
92.26
92.86
90.61
84.72
74.99
62.04
47.20
32.23
18.76
7.94
0.23
-4.49
-6.66
-6.82
-5.52
-3.39
-1.22
0.11
-0.23
-2.73
-7.41
-13.83
-21.24
-28.95
-36.54
-43.89
-50.99
-57.77
-63.85
-68.60
-71.35
-71.66
-69.47
-65.14
-59.26
-52.48
-45.29
-37.98
-30.73
-23.74
-17.22
-11.40
-6.42
-2.28
1.06
3.62
5.27
5.83
5.18
3.44
1.03
-1.42
-3.25
-4.00
-3.52
-1.97
0.19
2.33
3.78
3.96
2.59
-0.21
-3.88
-7.64
-10.85
-13.15
-14.63
-15.60
-16.35
-16.97
-17.31
-17.08
-16.01
-13.99
-11.01
-7.10
-2.33
3.21
9.31
15.59
21.55
26.62
30.38
32.59
33.31
32.85
31.67
30.22
28.87
27.77
26.93
26.25
25.68
25.21
24.87
24.65
24.43
23.98
23.00
21.29
18.81
15.68
12.18
8.61
5.22
2.15
-0.61
-3.18
-5.80
-8.80
-12.48
-17.10
-22.69
-28.96
-35.21
-40.41
-43.38
-43.18
-39.40
-32.38
-23.15
-13.17
-3.95
3.34
8.04
10.06
9.74
7.69
4.65
1.30
-1.82
-4.42
-6.42
-7.95
-9.22
-10.33
-11.23
-11.74
-11.60
-10.64
-8.84
-6.40
-3.69
-1.09
1.05
2.51
3.18
3.07
2.24
0.77
-1.24
-3.69
-6.50
-9.63
-13.12
-17.06
-21.41
-25.97
-30.20
-33.32
-34.44
-32.90
-28.43
-21.31
-12.22
-2.03
8.43
18.57
27.97
36.37
43.54
49.31
53.58
56.42
58.02
58.70
58.75
58.31
57.41
55.97
53.89
51.14
47.77
43.90
39.65
35.14
30.43
25.53
20.44
15.18
9.79
4.40
-0.85
-5.78
-10.28
-14.38
-18.22
-22.02
-26.01
-30.36
-35.09
-40.03
-44.76
-48.72
-51.26
-51.80
-50.04
-45.96
-39.86
-32.23
-23.65
-14.71
-5.97
2.05
8.98
14.69
19.35
23.38
27.23
31.15
35.13
38.94
42.34
45.26
47.84
50.38
53.19
56.46
60.24
64.39
68.64
72.59
75.75
77.70
78.27
77.66
76.45
75.39
74.95
74.95
74.37
71.53
64.61
52.28
34.33
11.92
-12.60
-36.33
-56.59
-71.63
-80.97
-85.22
-85.69
-83.84
-80.84
-77.41
-73.90
-70.41
-66.87
-63.04
-58.55
-52.96
-45.90
-37.32
-27.57
-17.38
-7.56
1.22
8.74
15.17
20.99
26.67
32.37
37.80
42.17
44.44
43.63
39.16
31.08
20.10
7.37
-5.88
-18.61
-30.15
-40.12
-48.42
-55.00
-59.91
-63.19
-64.95
-65.32
-64.41
-62.35
-59.31
-55.50
-51.25
-46.88
-42.63
-38.65
-34.93
-31.49
-28.41
-25.88
-24.09
-23.15
-22.98
-23.36
-24.00
-24.66
-25.22
-25.68
-26.05
-26.36
-26.66
-26.99
-27.41
-28.05
-29.05
-30.52
-32.59
-35.36
-38.89
-43.10
-47.77
-52.51
-56.87
-60.48
-63.22
-65.21
-66.71
-67.94
-68.90
-69.22
-68.33
-65.65
-60.83
-53.85
-45.03
-34.87
-23.81
-12.17
-0.13
12.10
24.18
35.57
45.67
53.95
60.20
64.54
67.36
69.14
70.34
71.25
72.01
72.61
73.00
73.04
72.67
71.83
70.56
68.94
67.06
65.02
62.93
60.85
58.83
56.84
54.77
52.42
49.56
45.93
41.36
35.76
29.22
21.96
14.41
7.11
0.66
-4.42
-7.74
-9.16
-8.73
-6.62
-3.15
1.28
6.17
10.96
15.20
18.57
21.00
22.65
23.78
24.67
25.51
26.41
27.44
28.65
30.16
32.07
34.50
37.53
41.13
45.10
49.03
52.28
54.05
53.59
50.39
44.47
36.41
27.27
18.25
10.44
4.46
0.45
-1.87
-3.00
-3.41
-3.34
-2.68
-1.04
2.18
7.47
14.95
24.07
33.60
41.85
47.11
48.13
44.48
36.56
25.36
12.12
-2.02
-16.16
-29.65
-42.04
-52.95
-62.11
-69.29
-74.43
-77.61
-79.03
-78.98
-77.76
-75.61
-72.72
-69.28
-65.52
-61.79
-58.44
-55.73
-53.74
-52.25
-50.90
-49.37
-47.62
-45.88
-44.64
-44.35
-45.29
-47.38
-50.22
-53.21
-55.61
-56.71
-55.89
-52.71
-46.99
-38.91
-28.99
-17.99
-6.76
3.91
13.46
21.53
27.95
32.68
35.72
37.21
37.44
36.85
35.91
35.04
34.39
33.91
33.43
32.83
32.11
31.39
30.79
30.27
29.64
28.60
26.90
24.44
21.33
17.81
14.16
10.62
7.38
4.52
1.96
-0.46
-3.05
-6.09
-9.72
-13.75
-17.63
-20.50
-21.40
-19.61
-14.84
-7.36
2.15
12.86
23.98
35.03
45.74
56.01
65.76
74.78
82.82
89.59
94.87
98.62
101.07
102.68
104.13
106.16
109.29
113.49
117.99
121.29
121.47
116.76
106.13
89.70
68.72
45.15
21.11
-1.60
-21.72
-38.46
-51.34
-60.16
-65.01
-66.48
-65.66
-63.87
-62.34
-61.81
-62.40
-63.69
-64.92
-65.32
-64.24
-61.31
-56.50
-50.19
-43.09
-36.08
-30.00
-25.30
-21.91
-19.39
-17.18
-14.98
-12.83
-11.12
-10.24
-10.30
-11.07
-12.02
-12.59
-12.44
-11.49
-9.91
-7.93
-5.71
-3.28
-0.69
1.95
4.31
5.86
6.08
4.71
1.89
-1.79
-5.54
-8.74
-11.25
-13.53
-16.40
-20.68
-26.83
-34.68
-43.54
-52.37
-60.09
-65.77
-68.74
-68.69
-65.64
-60.07
-52.72
-44.60
-36.65
-29.59
-23.72
-18.79
-14.20
-9.14
-2.98
4.50
12.97
21.68
29.67
36.06
40.32
42.27
42.18
40.67
38.63
37.12
37.08
39.01
42.77
47.44
51.63
53.92
53.32
49.54
42.97
34.43
24.90
15.22
6.00
-2.40
-9.79
-16.21
-21.79
-26.73
-31.13
-34.96
-37.97
-39.78
-40.03
-38.44
-34.91
-29.52
-22.54
-14.41
-5.80
2.51
9.64
14.83
17.50
17.39
14.61
9.57
2.92
-4.57
-12.20
-19.45
-26.10
-32.08
-37.41
-41.95
-45.41
-47.39
-47.70
-46.51
-44.43
-42.24
-40.63
-39.88
-39.86
-40.13
-40.27
-40.12
-39.75
-39.41
-39.33
-39.67
-40.47
-41.73
-43.36
-45.17
-46.81
-47.76
-47.48
-45.57
-41.88
-36.55
-29.92
-22.39
-14.45
-6.58
0.74
7.06
12.15
15.96
18.69
20.66
22.16
23.33
24.15
24.52
24.37
23.71
22.66
21.37
20.00
18.70
17.59
16.71
16.00
15.30
14.38
13.01
11.05
8.53
5.59
2.48
-0.56
-3.35
-5.81
-8.01
-10.13
-12.42
-15.12
-18.37
-22.02
-25.70
-28.77
-30.56
-30.53
-28.46
-24.44
-18.85
-12.15
-4.84
2.67
9.98
16.76
22.67
27.40
30.81
32.88
33.77
33.72
32.98
31.82
30.44
28.98
27.48
25.95
24.35
22.66
20.89
19.08
17.23
15.30
13.20
10.82
8.15
5.27
2.37
-0.40
-2.93
-5.26
-7.47
-9.75
-12.29
-15.26
-18.75
-22.63
-26.44
-29.45
-30.84
-29.93
-26.48
-20.72
-13.22
-4.68
4.26
13.15
21.62
29.34
35.93
41.05
44.50
46.29
46.64
45.91
44.45
42.56
40.38
37.98
35.35
32.51
29.53
26.51
23.60
20.89
18.37
15.94
13.42
10.66
7.59
4.21
0.56
-3.29
-7.30
-11.42
-15.62
-19.85
-24.11
-28.41
-32.77
-37.09
-41.13
-44.45
-46.52
-46.84
-45.19
-41.65
-36.60
-30.61
-24.29
-18.16
-12.69
-8.22
-5.01
-3.22
-2.88
-3.84
-5.82
-8.32
-10.73
-12.45
-13.06
-12.48
-11.01
-9.26
-7.86
-7.28
-7.65
-8.82
-10.45
-12.25
-14.04
-15.69
-17.04
-17.82
-17.71
-16.44
-13.97
-10.53
-6.58
-2.62
0.86
3.55
5.31
6.12
6.00
5.09
3.56
1.64
-0.42
-2.49
-4.54
-6.71
-9.23
-12.28
-15.92
-20.02
-24.21
-27.98
-30.70
-31.75
-30.58
-26.84
-20.48
-11.83
-1.51
9.66
20.83
31.29
40.53
48.31
54.59
59.44
63.00
65.39
66.78
67.36
67.38
67.08
66.66
66.22
65.73
65.17
64.55
63.97
63.64
63.79
64.59
66.08
68.19
70.80
73.80
77.08
80.47
83.59
85.89
86.62
85.12
80.97
74.08
64.64
52.94
39.26
23.83
6.99
-10.65
-28.07
-44.01
-57.19
-66.73
-72.33
-74.32
-73.46
-70.65
-66.68
-62.11
-57.28
-52.43
-47.77
-43.55
-39.93
-36.99
-34.68
-32.88
-31.45
-30.34
-29.50
-28.85
-28.19
-27.18
-25.46
-22.73
-18.91
-14.23
-9.22
-4.55
-0.87
1.39
2.21
2.00
1.44
1.25
1.91
3.49
5.70
8.02
9.92
11.05
11.25
10.59
9.32
7.79
6.47
5.81
6.18
7.71
10.26
13.52
17.09
20.71
24.34
28.13
32.28
36.88
41.89
47.17
52.49
57.67
62.51
66.74
70.05
72.09
72.64
71.74
69.75
67.18
64.57
62.16
59.75
56.71
52.10
44.94
34.51
20.62
3.80
-14.82
-33.73
-51.49
-67.09
-80.13
-90.77
-99.42
-106.41
-111.81
-115.39
-116.87
-116.06
-113.05
-108.13
-101.70
-94.17
-85.85
-77.09
-68.30
-59.97
-52.58
-46.47
-41.73
-38.20
-35.58
-33.57
-32.03
-30.96
-30.53
-30.83
-31.86
-33.38
-34.93
-35.98
-36.06
-34.97
-32.96
-30.69
-28.99
-28.51
-29.32
-30.76
-31.59
-30.48
-26.54
-19.73
-10.84
-1.21
7.75
15.03
20.16
23.29
25.00
26.14
27.64
30.38
35.04
41.87
50.66
60.77
71.28
81.24
89.91
96.93
102.26
106.16
109.05
111.30
113.17
114.71
115.72
115.83
114.60
111.71
107.01
100.63
92.83
83.88
74.02
63.33
51.88
39.76
27.15
14.33
1.65
-10.56
-22.01
-32.44
-41.63
-49.44
-55.85
-61.04
-65.37
-69.32
-73.29
-77.46
-81.62
-85.29
-87.83
-88.74
-87.77
-84.95
-80.53
-74.72
-67.73
-59.70
-50.91
-41.79
-32.98
-25.12
-18.69
-13.83
-10.38
-7.93
-6.05
-4.40
-2.82
-1.29
0.16
1.48
2.65
3.66
4.50
5.10
5.39
5.24
4.54
3.22
1.29
-1.11
-3.79
-6.55
-9.22
-11.76
-14.26
-16.87
-19.75
-22.91
-26.20
-29.29
-31.66
-32.78
-32.14
-29.39
-24.44
-17.52
-9.18
-0.21
8.48
16.07
22.01
26.08
28.39
29.31
29.33
28.86
28.23
27.62
27.07
26.56
26.00
25.36
24.65
23.94
23.32
22.85
22.47
22.02
21.32
20.19
18.61
16.70
14.68
12.77
11.09
9.60
8.07
6.21
3.75
0.64
-2.88
-6.22
-8.56
-9.08
-7.12
-2.38
4.99
14.46
25.15
36.04
46.16
54.83
61.69
66.73
70.11
71.89
71.95
69.92
65.44
58.36
48.94
37.91
26.32
15.31
5.92
-1.18
-5.65
-7.52
-7.06
-4.52
-0.13
5.96
13.46
21.75
29.79
36.39
40.60
42.10
41.37
39.34
36.90
34.41
31.55
27.58
21.86
14.34
5.64
-3.10
-10.68
-16.27
-19.53
-20.58
-19.89
-17.96
-15.30
-12.35
-9.52
-7.24
-5.97
-6.05
-7.62
-10.55
-14.45
-18.75
-22.85
-26.30
-28.86
-30.54
-31.51
-31.99
-32.16
-32.13
-31.96
-31.73
-31.58
-31.67
-32.12
-32.95
-34.03
-35.12
-35.99
-36.53
-36.84
-37.16
-37.79
-38.96
-40.72
-42.93
-45.26
-47.26
-48.39
-48.08
-45.87
-41.51
-35.06
-26.94
-17.84
-8.60
0.03
7.51
13.60
18.27
21.62
23.80
24.91
25.09
24.47
23.22
21.49
19.40
17.00
14.36
11.63
9.01
6.78
5.10
3.96
3.08
2.06
0.55
-1.65
-4.46
-7.60
-10.73
-13.59
-16.06
-18.24
-20.39
-22.82
-25.83
-29.44
-33.35
-36.89
-39.11
-39.13
-36.42
-30.97
-23.28
-14.22
-4.64
4.73
13.40
20.97
27.06
31.27
33.29
33.06
30.84
27.18
22.73
18.05
13.48
9.15
5.09
1.37
-1.88
-4.52
-6.46
-7.74
-8.57
-9.24
-10.06
-11.25
-12.93
-15.12
-17.70
-20.52
-23.39
-26.23
-29.08
-32.13
-35.60
-39.52
-43.58
-47.08
-49.11
-48.84
-45.81
-40.08
-32.18
-22.90
-13.05
-3.35
5.62
13.40
19.60
23.94
26.34
26.98
26.29
24.82
23.09
21.45
20.07
18.92
17.91
16.94
16.00
15.04
13.99
12.70
10.99
8.73
5.94
2.81
-0.42
-3.58
-6.69
-9.90
-13.50
-17.70
-22.56
-27.94
-33.58
-39.14
-44.23
-48.40
-51.12
-51.79
