1650352246.00
64.000000
-0.00
-0.00
-0.00
-0.00
-0.00
-0.00
-0.00
-0.00
-0.00
-0.00
0.00
0.01
0.01
-0.00
-0.03
-0.05
-0.05
0.00
0.13
0.36
0.66
1.01
1.37
1.72
2.06
2.40
2.79
3.24
3.80
4.42
5.06
5.66
6.20
6.68
7.15
7.68
8.31
9.14
10.09
11.04
11.88
12.56
13.14
13.76
14.65
15.96
17.91
20.32
22.90
25.38
27.58
29.57
31.68
34.32
37.81
42.54
48.15
54.10
59.83
64.97
69.58
74.14
79.34
85.71
93.76
103.00
112.62
121.73
129.77
136.75
143.30
150.75
157.77
166.64
177.95
191.79
206.97
220.57
228.25
225.36
208.53
176.87
132.76
80.05
23.07
-34.95
-92.44
-149.16
-205.23
-260.35
-313.71
-363.84
-409.81
-450.94
-486.62
-515.97
-537.56
-549.62
-550.40
-538.80
-514.63
-479.09
-434.33
-382.98
-327.64
-270.55
-213.40
-157.44
-103.71
-53.11
-6.68
34.69
70.32
99.99
123.91
142.66
156.96
167.49
174.75
179.03
180.51
179.44
176.19
171.28
165.31
158.74
151.84
144.63
136.97
128.73
119.94
110.87
101.92
93.52
85.87
78.90
72.24
65.45
58.20
50.50
42.68
35.31
28.82
23.43
18.99
15.07
11.21
7.02
2.20
-3.43
-9.85
-16.48
-22.05
-24.70
-22.64
-14.98
-2.46
12.63
27.20
38.49
45.07
47.00
45.45
41.81
37.19
32.25
27.47
23.31
20.39
19.10
19.43
20.91
22.69
23.85
23.66
21.97
19.32
16.82
15.62
16.37
18.82
21.85
24.04
24.32
22.48
19.16
15.31
11.72
8.75
6.38
4.61
3.60
3.64
4.78
6.60
8.24
8.82
7.89
5.72
3.01
0.54
-1.37
-2.97
-4.87
-7.48
-10.76
-14.32
-17.92
-21.80
-26.56
-32.57
-39.23
-44.89
-47.39
-45.34
-39.08
-30.79
-23.39
-19.14
-18.38
-19.59
-20.31
-18.50
-13.49
-5.95
2.77
11.54
19.84
27.56
34.56
40.24
43.77
44.45
42.23
37.86
32.62
27.82
24.30
22.26
21.25
20.54
19.40
17.38
14.53
11.29
8.33
6.23
5.26
5.07
5.00
4.41
3.04
1.19
-0.31
-0.50
1.28
5.01
9.66
13.30
13.63
8.78
-1.64
-16.09
-31.38
-43.72
-50.23
-50.10
-44.63
-36.50
-28.41
-22.05
-17.71
-14.69
-12.02
-9.20
-6.20
-3.32
-0.76
1.53
3.81
6.35
9.18
12.10
14.60
16.24
16.92
16.96
16.92
17.30
18.28
19.57
20.65
20.85
19.95
18.41
17.15
17.03
18.50
21.41
25.14
29.02
32.02
33.58
33.84
33.31
32.68
32.44
32.85
33.95
35.58
36.53
35.84
33.07
28.22
21.69
14.13
6.42
-0.61
-6.39
-11.92
-18.48
-26.64
-36.54
-48.02
-60.79
-74.63
-89.48
-98.83
-98.57
-88.51
-71.98
-53.68
-37.46
-25.43
-18.25
-15.16
-14.06
-12.99
-12.57
-10.52
-5.75
0.99
8.05
13.78
17.39
19.08
18.76
16.19
11.17
5.41
-0.49
-5.73
-9.34
-10.46
-8.90
-5.89
-3.14
-1.53
-1.18
-1.57
-1.65
-0.66
1.49
4.17
6.23
6.73
5.60
3.16
-0.25
-4.24
-8.48
-12.78
-17.07
-21.46
-26.06
-30.73
-35.22
-39.32
-42.77
-45.49
-47.65
-49.58
-51.53
-53.56
-55.31
-56.31
-56.17
-54.70
-51.98
-48.29
-43.96
-39.26
-34.27
-28.96
-23.23
-17.00
-10.27
-3.14
4.14
11.23
17.80
23.62
28.57
32.62
35.75
37.85
38.83
38.72
37.72
36.25
34.79
33.68
33.07
32.89
33.04
33.43
34.05
34.85
35.59
35.85
35.23
33.56
31.06
28.26
25.74
23.90
22.74
22.04
21.51
21.00
20.50
20.06
19.65
19.10
18.13
16.47
14.00
10.76
7.00
3.06
-0.65
-3.80
-6.15
-7.70
-8.64
-9.34
-10.21
-11.61
-13.69
-16.29
-19.09
-21.60
-23.41
-24.26
-24.13
-23.17
-21.68
-19.89
-18.00
-16.14
-14.41
-12.97
-11.94
-11.44
-11.42
-11.73
-12.08
-12.21
-11.93
-11.19
-10.11
-8.91
-7.77
-6.74
-5.77
-4.73
-3.57
-2.31
-1.06
0.08
1.08
2.00
2.87
3.62
4.11
4.19
3.87
3.39
3.14
3.58
4.93
7.04
9.37
11.11
11.49
10.08
6.94
2.65
-1.96
-6.14
-9.50
-12.05
-14.10
-15.98
-17.87
-19.71
-21.30
-22.46
-23.20
-23.62
-23.78
-23.65
-22.98
-21.52
-19.14
-15.90
-12.13
-8.21
-4.50
-1.16
1.80
4.45
6.88
9.10
11.10
12.87
14.41
15.69
16.69
17.37
17.74
17.86
17.83
17.74
17.63
17.50
17.32
17.11
16.91
16.78
16.70
16.58
16.29
15.76
15.03
14.23
13.49
12.81
12.01
10.79
8.89
6.22
2.92
-0.69
-4.23
-7.40
-10.04
-12.14
-13.79
-15.05
-15.97
-16.60
-16.99
-17.22
-17.36
-17.43
-17.32
-16.83
-15.74
-13.96
-11.54
-8.67
-5.59
-2.49
0.48
3.17
5.42
7.05
7.96
8.23
8.12
8.07
8.47
9.54
11.24
13.35
15.55
17.58
19.28
20.62
21.61
22.26
22.58
22.58
22.26
21.69
20.92
19.96
18.82
17.50
16.08
14.66
13.37
12.26
11.28
10.27
9.10
7.70
6.14
4.55
3.00
1.49
-0.11
-1.93
-4.04
-6.34
-8.61
-10.63
-12.25
-13.48
-14.39
-15.02
-15.38
-15.38
-14.96
-14.12
-12.92
-11.49
-9.93
-8.32
-6.76
-5.34
-4.17
-3.34
-2.81
-2.41
-1.88
-0.98
0.37
2.03
3.74
5.18
6.07
6.26
5.64
4.23
2.12
-0.51
-3.37
-6.13
-8.51
-10.34
-11.57
-12.26
-12.53
-12.52
-12.39
-12.28
-12.34
-12.62
-13.08
-13.57
-13.90
-13.91
-13.52
-12.74
-11.63
-10.21
-8.47
-6.36
-3.87
-1.04
2.07
5.38
8.83
12.43
16.18
20.01
23.81
27.39
30.61
33.37
35.66
37.50
38.85
39.57
39.49
38.50
36.60
33.96
30.83
27.47
24.02
20.55
17.09
13.66
10.31
7.17
4.31
1.83
-0.26
-1.99
-3.41
-4.64
-5.76
-6.83
-7.80
-8.46
-8.53
-7.70
-5.78
-2.77
1.04
5.16
8.97
11.93
13.70
14.25
13.86
13.00
12.18
11.76
11.89
12.47
13.24
13.96
14.46
14.70
14.73
14.57
14.10
13.14
11.52
9.21
6.39
3.42
0.66
-1.61
-3.34
-4.61
-5.59
-6.38
-6.96
-7.28
-7.26
-6.88
-6.22
-5.39
-4.53
-3.74
-3.07
-2.49
-1.91
-1.20
-0.30
0.78
1.85
2.67
2.98
2.64
1.70
0.40
-0.95
-2.15
-3.16
-4.11
-5.18
-6.48
-7.97
-9.45
-10.70
-11.56
-11.99
-12.03
-11.73
-11.06
-9.99
-8.47
-6.55
-4.38
-2.17
-0.11
1.66
3.15
4.42
5.54
6.56
7.46
8.18
8.70
9.02
9.22
9.35
9.39
9.15
8.37
6.85
4.56
1.71
-1.28
-4.00
-6.19
-7.84
-9.16
-10.42
-11.85
-13.54
-15.48
-17.61
-19.88
-22.22
-24.49
-26.46
-27.86
-28.45
-28.08
-26.73
-24.50
-21.50
-17.88
-13.81
-9.49
-5.16
-1.03
2.71
6.03
8.95
11.54
13.89
16.02
17.94
19.63
21.08
22.27
23.15
23.61
23.56
23.00
22.05
20.97
20.02
19.36
18.98
18.66
18.16
17.22
15.75
13.79
11.47
8.97
6.48
4.13
2.07
0.37
-0.92
-1.80
-2.36
-2.70
-2.96
-3.28
-3.77
-4.51
-5.50
-6.62
-7.69
-8.51
-8.95
-9.03
-8.91
-8.79
-8.81
-8.97
-9.07
-8.81
-7.91
-6.24
-3.85
-0.99
2.04
4.95
7.59
9.87
11.77
13.25
14.26
14.81
14.96
14.87
14.76
14.78
14.98
15.28
15.54
15.62
15.43
14.96
14.22
13.24
12.05
10.68
9.18
7.64
6.15
4.75
3.43
2.14
0.82
-0.59
-2.07
-3.56
-4.96
-6.19
-7.22
-8.08
-8.84
-9.54
-10.17
-10.69
-11.08
-11.37
-11.62
-11.90
-12.20
-12.37
-12.21
-11.52
-10.22
-8.39
-6.24
-4.02
-1.93
-0.11
1.36
2.47
3.25
3.78
4.16
4.53
4.91
5.32
5.67
5.92
6.01
5.97
5.84
5.70
5.57
5.48
5.39
5.32
5.24
5.15
5.01
4.78
4.40
3.80
2.93
1.78
0.45
-0.91
-2.14
-3.14
-3.95
-4.69
-5.49
-6.44
-7.51
-8.62
-9.65
-10.50
-11.11
-11.42
-11.36
-10.91
-10.10
-9.03
-7.83
-6.64
-5.54
-4.55
-3.68
-2.88
-2.17
-1.53
-1.00
-0.63
-0.47
-0.59
-0.99
-1.61
-2.29
-2.82
-3.06
-2.96
-2.59
-2.09
-1.59
-1.18
-0.81
-0.39
0.15
0.87
1.71
2.56
3.33
3.96
4.43
4.76
4.96
5.03
4.95
4.72
4.37
3.94
3.45
2.91
2.32
1.68
0.99
0.30
-0.36
-0.94
-1.44
-1.85
-2.15
-2.30
-2.31
-2.19
-2.04
-1.95
-1.99
-2.18
-2.52
-2.96
-3.47
-3.98
-4.43
-4.74
-4.88
-4.85
-4.75
-4.65
-4.64
-4.75
-4.95
-5.21
-5.49
-5.74
-5.98
-6.22
-6.52
-6.96
-7.60
-8.48
-9.53
-10.58
-11.43
-11.91
-11.98
-11.72
-11.35
-11.10
-11.10
-11.36
-11.72
-11.93
-11.73
-10.90
-9.39
-7.31
-4.92
-2.55
-0.48
1.13
2.28
3.09
3.67
4.04
4.12
3.76
2.82
1.25
-0.90
-3.47
-6.26
-9.06
-11.61
-13.66
-14.95
-15.28
-14.61
-13.11
-11.14
-9.19
-7.66
-6.82
-6.64
-6.87
-7.15
-7.10
-6.51
-5.35
-3.77
-1.99
-0.24
1.31
2.60
3.62
4.41
4.99
5.39
5.64
5.83
6.03
6.34
6.73
7.11
7.35
7.37
7.17
6.84
6.42
5.93
5.35
4.66
3.98
3.57
3.68
4.46
5.76
7.22
8.31
8.61
7.97
6.59
4.93
3.53
2.82
2.98
3.87
5.07
6.01
6.09
4.91
2.39
-1.15
-5.00
-8.23
-9.96
-9.62
-7.30
-3.67
0.13
2.94
3.96
3.02
0.58
-2.52
-5.34
-7.15
-7.55
-6.45
-4.14
-1.13
1.89
4.23
5.40
5.27
4.06
2.26
0.41
-1.08
-1.96
-2.12
-1.53
-0.21
1.66
3.68
5.29
5.91
5.16
3.08
0.14
-2.95
-5.47
-6.96
-7.37
-6.97
-6.26
-5.67
-5.47
-5.70
-6.16
-6.60
-6.74
-6.48
-5.80
-4.82
-3.80
-3.09
-3.16
-4.49
-7.43
-11.95
-17.47
-22.92
-27.00
-28.62
-27.34
-23.42
-17.75
-11.42
-5.40
-0.30
3.61
6.30
7.79
8.11
7.38
5.84
3.87
1.88
0.23
-0.93
-1.66
-2.24
-3.01
-4.25
-6.07
-8.31
-10.61
-12.47
-13.51
-13.63
-13.14
-12.65
-12.82
-14.01
-16.17
-18.76
-21.06
-22.39
-22.25
-20.37
-16.61
-11.01
-3.80
4.43
12.78
20.22
25.89
29.39
30.85
30.72
29.50
27.52
25.00
22.07
18.92
15.78
12.87
10.30
8.06
6.10
4.40
2.97
1.81
0.79
-0.24
-1.37
-2.44
-3.06
-2.79
-1.48
0.54
2.59
3.96
4.30
3.85
3.26
3.24
4.15
5.88
7.98
9.97
11.54
12.59
13.12
13.08
12.36
10.84
8.52
5.63
2.66
0.28
-0.82
-0.12
2.47
6.49
11.01
14.93
17.39
18.12
17.50
16.42
15.85
16.54
18.78
22.40
26.83
31.27
34.86
36.85
36.83
34.80
31.20
26.64
21.65
16.49
11.12
5.43
-0.50
-6.31
-11.39
-15.15
-17.30
-17.97
-17.65
-16.97
-16.40
-16.19
-16.31
-16.64
-17.06
-17.53
-18.06
-18.61
-19.03
-19.05
-18.40
-16.94
-14.78
-12.24
-9.79
-7.76
-6.27
-5.19
-4.26
-3.29
-2.24
-1.26
-0.50
-0.01
0.39
0.93
1.77
2.80
3.68
4.06
3.76
2.90
1.82
0.89
0.28
-0.01
-0.13
-0.15
-0.03
0.35
1.09
2.11
3.17
3.98
4.38
4.42
4.33
4.39
4.73
5.31
5.91
6.31
6.35
5.99
5.30
4.37
3.27
2.10
0.96
-0.04
-0.75
-1.09
-1.05
-0.71
-0.24
0.18
0.43
0.45
0.28
-0.03
-0.45
-1.00
-1.73
-2.64
-3.65
-4.57
-5.18
-5.35
-5.09
-4.57
-4.03
-3.65
-3.54
-3.67
-3.86
-3.90
-3.54
-2.65
-1.32
0.14
1.31
1.85
1.66
0.86
-0.24
-1.37
-2.38
-3.28
-4.14
-4.98
-5.73
-6.28
-6.56
-6.62
-6.59
-6.66
-6.95
-7.51
-8.34
-9.30
-10.20
-10.77
-10.76
-10.08
-8.85
-7.40
-6.09
-5.13
-4.43
-3.67
-2.47
-0.69
1.51
3.64
5.11
5.50
4.65
2.73
0.02
-3.10
-6.29
-9.21
-11.51
-12.89
-13.13
-12.12
-9.90
-6.66
-2.81
1.07
4.31
6.33
6.91
6.23
4.84
3.41
2.46
2.26
2.87
4.29
6.56
9.75
13.81
18.48
23.29
27.67
31.19
33.60
34.86
35.00
34.06
32.01
28.84
24.65
19.80
14.85
10.46
7.20
5.37
4.86
5.15
5.52
5.29
4.08
1.96
-0.64
-3.02
-4.49
-4.54
-3.06
-0.39
2.71
5.25
6.36
5.65
3.39
0.46
-2.07
-3.40
-3.35
-2.35
-1.12
-0.23
0.14
0.24
0.38
0.79
1.42
2.05
2.52
2.75
2.76
2.53
2.03
1.32
0.61
0.23
0.47
1.29
2.29
2.89
2.58
1.26
-0.83
-3.27
-5.75
-8.25
-10.96
-14.08
-17.63
-21.36
-24.88
-27.93
-30.50
-32.88
-35.50
-38.59
-41.96
-44.89
-46.29
-45.18
-41.21
-34.88
-27.32
-19.74
-12.75
-6.09
1.16
9.83
20.00
30.89
41.24
50.06
57.12
62.92
68.08
72.90
77.01
79.75
80.59
79.55
77.11
73.89
70.32
66.49
62.39
58.15
54.08
50.53
47.51
44.54
40.84
35.74
29.08
21.32
13.33
6.00
-0.07
-4.83
-8.67
-12.28
-16.36
-21.29
-27.01
-32.89
-37.96
-41.27
-42.33
-41.44
-39.71
-38.70
-39.94
-44.42
-52.34
-63.04
-75.12
-86.55
-95.07
-98.63
-96.11
-87.78
-75.40
-61.74
-49.59
-40.83
-35.82
-33.69
-33.07
-32.96
-33.19
-34.16
-36.18
-38.85
-40.99
-41.14
-38.35
-32.79
-25.68
-18.83
-13.78
-11.29
-11.18
-12.78
-15.39
-18.66
-22.53
-26.97
-31.69
-35.97
-38.91
-39.79
-38.48
-35.63
-32.50
-30.51
-30.59
-32.84
-36.39
-39.84
-41.75
-41.11
-37.51
-31.14
-22.59
-12.76
-2.70
6.50
13.89
18.91
21.47
21.98
21.15
19.69
18.20
17.05
16.44
16.50
17.29
18.75
20.68
22.80
24.80
26.50
27.81
28.70
29.10
28.87
27.86
26.00
23.37
20.21
16.82
13.41
10.09
6.92
3.95
1.32
-0.79
-2.24
-3.02
-3.26
-3.19
-2.99
-2.80
-2.68
-2.71
-2.93
-3.33
-3.80
-4.08
-3.87
-2.92
-1.16
1.25
4.02
6.82
9.40
11.63
13.42
14.72
15.45
15.51
14.92
13.80
12.42
11.08
10.00
9.29
8.88
8.62
8.36
8.03
7.63
7.22
6.82
6.38
5.75
4.77
3.40
1.74
0.07
-1.27
-2.02
-2.17
-1.97
-1.81
-1.99
-2.55
-3.22
-3.53
-3.07
-1.68
0.55
3.28
6.13
8.78
11.10
13.02
14.55
15.67
16.28
16.29
15.66
14.50
13.02
11.52
10.23
9.27
8.59
8.04
7.44
6.75
6.06
5.53
5.28
5.28
5.34
5.18
4.53
3.29
1.51
-0.59
-2.69
-4.55
-6.01
-7.09
-7.90
-8.59
-9.32
-10.29
-11.70
-13.53
-15.53
-17.24
-18.22
-18.17
-17.12
-15.38
-13.42
-11.64
-10.03
-8.29
-6.13
-3.53
-0.81
1.51
2.98
3.37
2.75
1.92
1.83
3.14
5.72
8.78
11.34
12.58
12.13
10.07
7.77
6.96
8.80
13.13
18.64
23.58
26.50
26.55
23.70
20.02
18.33
20.71
27.23
36.15
45.11
52.14
56.08
56.65
56.25
58.42
66.49
82.31
106.40
138.70
178.46
223.55
259.03
269.45
246.66
196.36
133.57
72.92
23.29
-12.53
-36.13
-51.29
-60.02
-63.13
-60.52
-53.13
-43.26
-33.64
-26.52
-23.45
-25.15
-30.20
-35.58
-39.13
-40.45
-40.75
-41.76
-45.02
-51.52
-61.43
-73.21
-84.42
-92.85
-97.46
-98.55
-97.06
-94.04
-90.24
-85.94
-80.56
-73.27
-63.67
-52.24
-40.27
-29.19
-20.06
-13.28
-8.61
-5.36
-2.87
-0.92
0.24
0.19
-1.18
-3.55
-6.26
-8.74
-10.80
-12.71
-15.00
-18.05
-21.88
-26.03
-29.75
-32.29
-33.20
-32.52
-30.79
-28.92
-27.89
-28.49
-31.05
-35.42
-40.91
-46.56
-51.33
-54.32
-54.94
-53.00
-48.60
-42.09
-33.93
-24.62
-14.71
-4.76
4.63
12.96
19.90
25.42
29.68
32.99
35.53
37.26
37.90
37.04
34.34
29.74
23.52
16.39
9.34
3.47
-0.24
-1.21
0.56
4.52
9.65
14.85
19.18
22.12
23.50
23.49
22.24
19.82
16.06
10.64
3.14
-6.89
-19.79
-35.62
-53.84
-73.08
-91.12
-105.28
-113.10
-113.07
-105.14
-90.61
-71.64
-50.49
-29.06
-8.67
9.82
25.81
38.95
49.19
56.89
62.74
67.52
71.73
75.49
78.54
80.53
81.28
80.89
79.71
78.14
76.44
74.68
72.67
70.17
66.85
62.48
56.90
50.14
42.35
33.88
25.21
16.82
9.04
2.01
-4.33
-10.15
-15.54
-20.47
-24.82
-28.41
-31.16
-33.12
-34.42
-35.21
-35.61
-35.69
-35.52
-35.14
-34.56
-33.80
-32.81
-31.52
-29.88
-27.87
-25.52
-22.92
-20.19
-17.48
-14.90
-12.53
-10.45
-8.72
-7.42
-6.62
-6.33
-6.50
-6.96
-7.45
-7.73
-7.61
-6.99
-5.91
-4.46
-2.79
-1.10
0.40
1.53
2.20
2.48
2.57
2.74
3.19
3.94
4.81
5.51
5.77
5.43
4.50
3.15
1.57
-0.05
-1.59
-2.97
-4.09
-4.90
-5.40
-5.65
-5.84
-6.19
-6.81
-7.66
-8.49
-8.94
-8.67
-7.49
-5.43
-2.69
0.40
3.52
6.37
8.73
10.49
11.66
12.33
12.70
12.96
13.25
13.59
13.90
14.09
14.05
13.75
13.24
12.58
11.90
11.32
10.91
10.65
10.46
10.14
9.54
8.60
7.39
6.07
4.82
3.74
2.84
2.02
1.20
0.30
-0.73
-1.91
-3.24
-4.76
-6.46
-8.30
-10.17
-11.99
-13.71
-15.35
-16.99
-18.71
-20.55
-22.42
-24.11
-25.33
-25.78
-25.25
-23.72
-21.37
-18.55
-15.67
-13.11
-11.07
-9.56
-8.37
-7.20
-5.80
-4.05
-1.97
0.29
2.57
4.80
7.07
9.73
13.41
18.99
27.37
39.24
54.60
72.56
91.30
108.53
122.03
130.30
132.86
130.17
123.28
113.26
100.97
86.96
71.69
55.75
39.90
24.93
11.27
-1.20
-13.22
-25.78
-39.76
-55.50
-72.68
-90.37
-107.17
-121.48
-131.67
-136.36
-134.65
-126.45
-112.57
-94.60
-74.53
-54.16
-34.86
-17.37
-2.08
10.78
21.01
28.53
33.48
36.30
37.68
38.27
38.51
38.68
38.89
39.21
39.71
40.38
40.95
40.99
39.99
37.60
33.84
29.01
23.56
17.83
11.92
5.77
-0.63
-7.13
-13.37
-18.88
-23.35
-26.71
-29.11
-30.81
-32.03
-32.84
-33.31
-33.49
-33.56
-33.68
-33.95
-34.24
-34.29
-33.78
-32.49
-30.46
-27.88
-25.07
-22.31
-19.75
-17.43
-15.24
-13.00
-10.45
-7.31
-3.36
1.52
7.32
13.88
20.93
28.06
34.84
40.86
45.82
49.67
52.57
54.90
56.98
58.94
60.52
61.19
60.30
57.52
52.99
47.30
41.25
35.44
30.05
24.84
19.36
13.27
6.59
-0.30
-6.89
-12.74
-17.69
-21.84
-25.38
-28.42
-30.94
-32.75
-33.73
-33.86
-33.33
-32.44
-31.46
-30.50
-29.43
-27.99
-25.85
-22.85
-18.99
-14.52
-9.83
-5.35
-1.49
1.45
3.31
4.09
3.93
3.08
1.83
0.35
-1.25
-3.01
-4.97
-7.11
-9.28
-11.27
-12.89
-14.11
-15.05
-15.92
-16.89
-17.94
-18.85
-19.31
-19.11
-18.25
-16.94
-15.57
-14.48
-13.93
-13.97
-14.47
-15.24
-16.03
-16.66
-17.00
-17.00
-16.62
-15.82
-14.58
-12.93
-10.95
-8.78
-6.60
-4.51
-2.56
-0.70
1.10
2.85
4.47
5.91
7.15
8.23
9.19
10.01
10.60
10.86
10.77
10.48
10.20
10.15
10.35
10.65
10.77
10.48
9.70
8.54
7.19
5.80
4.43
3.05
1.61
0.11
-1.41
-2.92
-4.45
-6.02
-7.60
-9.02
-9.99
-10.20
-9.50
-7.98
-5.97
-3.87
-1.96
-0.24
1.54
3.76
6.75
10.64
15.29
20.35
25.37
29.87
33.43
35.80
36.94
37.07
36.63
36.25
36.57
38.00
40.54
43.60
46.23
47.35
46.24
42.88
37.92
32.32
26.76
21.23
14.96
6.94
-3.49
-16.00
-29.14
-40.59
-47.76
-48.30
-40.66
-24.31
-0.07
29.81
61.77
91.46
114.61
128.16
131.05
124.47
111.35
95.31
79.50
65.89
55.09
46.70
39.93
34.00
28.36
22.67
16.71
10.32
3.48
-3.73
-11.07
-18.24
-24.97
-31.03
-36.28
-40.65
-44.16
-46.88
-48.97
-50.55
-51.72
-52.56
-53.23
-53.98
-55.09
-56.79
-59.05
-61.57
-63.82
-65.27
-65.60
-64.83
-63.27
-61.44
-59.84
-58.80
-58.46
-58.70
-59.22
-59.66
-59.65
-58.92
-57.34
-54.93
-51.86
-48.35
-44.61
-40.76
-36.84
-32.83
-28.70
-24.51
-20.39
-16.46
-12.87
-9.71
-7.05
-4.96
-3.49
-2.62
-2.28
-2.32
-2.56
-2.91
-3.31
-3.80
-4.39
-5.05
-5.67
-6.13
-6.35
-6.31
-6.09
-5.80
-5.58
-5.50
-5.60
-5.86
-6.23
-6.66
-7.13
-7.66
-8.31
-9.12
-10.01
-10.81
-11.31
-11.26
-10.53
-9.10
-7.07
-4.53
-1.60
1.63
5.06
8.54
11.91
14.94
17.45
19.31
20.48
20.96
20.84
20.26
19.37
18.34
17.28
16.28
15.37
14.54
13.79
13.15
12.56
11.94
11.17
10.15
8.88
7.49
6.17
5.09
4.32
3.79
3.38
2.90
2.26
1.40
0.33
-0.94
-2.44
-4.23
-6.37
-8.88
-11.68
-14.52
-17.03
-18.83
-19.68
-19.57
-18.74
-17.56
-16.30
-15.05
-13.66
-11.95
-9.82
-7.39
-4.94
-2.78
-1.04
0.31
1.42
2.40
3.32
4.16
4.97
5.85
6.94
8.32
9.95
11.69
13.35
14.79
15.98
16.91
17.61
18.04
18.21
18.14
17.90
17.53
16.98
16.10
14.72
12.78
10.38
7.75
5.18
2.81
0.71
-1.14
-2.72
-3.89
-4.48
-4.34
-3.50
-2.10
-0.34
1.60
3.67
5.89
8.26
10.73
13.19
15.48
17.47
19.10
20.34
21.18
21.64
21.75
21.58
21.19
20.69
20.18
19.70
19.28
18.86
18.34
17.60
16.57
15.26
13.79
12.36
11.13
10.14
9.27
8.28
6.98
5.35
3.56
1.89
0.54
-0.45
-1.25
-2.10
-3.19
-4.57
-6.12
-7.66
-9.02
-10.08
-10.74
-10.93
-10.55
-9.58
-8.10
-6.30
-4.46
-2.80
-1.43
-0.33
0.60
1.47
2.33
3.13
3.83
4.40
4.86
5.27
5.70
6.21
6.78
7.33
7.77
8.05
8.12
8.01
7.76
7.39
6.88
6.19
5.27
4.14
2.88
1.58
0.37
-0.70
-1.60
-2.37
-3.09
-3.81
-4.59
-5.48
-6.51
-7.70
-8.97
-10.23
-11.32
-12.08
-12.44
-12.35
-11.88
-11.09
-10.03
-8.70
-7.04
-5.03
-2.73
-0.31
2.02
4.03
5.62
6.76
7.51
7.91
8.00
7.78
7.29
6.66
6.04
5.62
5.51
5.76
6.29
7.00
7.77
8.47
8.99
9.26
9.19
8.79
8.09
7.15
6.03
4.82
3.55
2.24
0.88
-0.59
-2.24
-4.13
-6.25
-8.52
-10.77
-12.85
-14.62
-16.08
-17.27
-18.26
-19.11
-19.76
-20.11
-20.02
-19.34
-18.01
-16.07
-13.69
-11.10
-8.56
-6.26
-4.30
-2.65
-1.25
-0.01
1.09
2.01
2.71
3.19
3.52
3.81
4.13
4.49
4.82
5.03
5.04
4.82
4.43
3.96
3.50
3.15
2.93
2.79
2.63
2.37
1.94
1.39
0.81
0.34
0.02
-0.20
-0.47
-0.93
-1.63
-2.48
-3.33
-4.06
-4.65
-5.23
-5.93
-6.84
-7.89
-8.91
-9.68
-10.05
-10.00
-9.60
-8.99
-8.26
-7.50
-6.72
-5.91
-5.04
-4.10
-3.09
-2.05
-1.09
-0.30
0.25
0.55
0.68
0.72
0.70
0.59
0.31
-0.23
-1.00
-1.94
-2.89
-3.77
-4.56
-5.36
-6.28
-7.37
-8.60
-9.88
-11.05
-12.04
-12.83
-13.48
-14.06
-14.62
-15.20
-15.84
-16.58
-17.53
-18.77
-20.36
-22.27
-24.33
-26.25
-27.68
-28.27
-27.80
-26.28
-23.89
-20.98
-17.84
-14.71
-11.65
-8.69
-5.85
-3.22
-0.91
0.94
2.31
3.21
3.72
3.91
3.82
3.48
2.95
2.36
1.86
1.63
1.82
2.49
3.62
5.09
6.71
8.26
9.55
10.47
11.00
11.20
11.14
10.91
10.55
10.07
9.49
8.84
8.13
7.40
6.66
5.92
5.21
4.58
4.08
3.78
3.75
4.06
4.80
6.10
8.02
10.51
13.42
16.48
19.39
21.92
23.98
25.53
26.63
27.31
27.61
27.57
27.24
26.69
25.97
25.07
24.02
22.86
21.68
20.62
19.78
19.10
18.43
17.53
16.24
14.55
12.64
10.76
9.13
7.81
6.69
5.56
4.23
2.63
0.82
-1.02
-2.71
-4.15
-5.41
-6.61
-7.93
-9.45
-11.14
-12.86
-14.44
-15.79
-16.85
-17.61
-17.97
-17.73
-16.67
-14.66
-11.76
-8.25
-4.51
-0.90
2.42
5.43
8.22
10.78
12.97
14.52
15.23
15.08
14.29
13.21
12.17
11.30
10.53
9.70
8.62
7.25
5.65
3.97
2.35
0.92
-0.28
-1.27
-2.13
-2.97
-3.91
-5.02
-6.28
-7.62
-8.94
-10.21
-11.49
-12.87
-14.43
-16.16
-17.99
-19.79
-21.51
-23.13
-24.70
-26.23
-27.65
-28.82
-29.50
-29.48
-28.67
-27.10
-24.92
-22.32
-19.44
-16.34
-12.99
-9.38
-5.58
-1.79
1.72
4.69
6.99
8.63
9.77
10.58
11.22
11.79
12.35
12.95
13.62
14.33
14.98
15.36
15.25
14.48
13.04
11.09
8.92
6.80
4.91
3.29
1.81
0.37
-1.15
-2.75
-4.41
-6.11
-7.83
-9.59
-11.38
-13.16
-14.89
-16.52
-17.98
-19.22
-20.12
-20.52
-20.27
-19.25
-17.49
-15.07
-12.16
-8.92
-5.46
-1.91
1.61
4.91
7.80
10.10
11.76
12.81
13.40
13.64
13.63
13.43
13.10
12.76
12.54
12.59
12.93
13.49
14.07
14.46
14.49
14.15
13.51
12.72
11.88
11.00
9.99
8.75
7.20
5.37
3.34
1.28
-0.66
-2.34
-3.64
-4.41
-4.52
-3.93
-2.72
-1.15
0.44
1.79
2.81
3.69
4.73
6.24
8.31
10.76
13.26
15.49
17.22
18.42
19.14
19.41
19.24
18.60
17.54
16.18
14.72
13.35
12.17
11.14
10.14
9.04
7.76
6.35
4.84
3.31
1.80
0.32
-1.09
-2.42
-3.61
-4.65
-5.57
-6.48
-7.48
-8.67
-9.95
-11.10
-11.76
-11.60
-10.42
-8.26
-5.38
-2.10
1.30
4.70
8.11
11.60
15.14
18.61
21.74
24.29
26.12
27.26
27.92
28.38
28.92
29.65
30.52
31.35
31.86
31.85
31.29
30.39
29.60
29.42
30.22
32.04
34.52
37.03
39.02
40.30
41.21
42.50
45.05
49.56
56.33
65.28
75.85
87.04
97.29
104.67
107.35
104.12
94.99
81.11
64.38
46.64
29.15
12.50
-3.00
-16.75
-27.67
-34.37
-35.88
-32.30
-25.10
-16.80
-10.18
-7.32
-8.87
-13.93
-20.47
-26.19
-29.42
-29.70
-27.77
-25.07
-22.96
-21.96
-21.67
-21.12
-19.46
-16.60
-13.34
-11.12
-11.36
-14.70
-20.59
-27.51
-33.68
-37.92
-40.10
-41.00
-41.83
-43.70
-47.02
-51.38
-55.96
-60.06
-63.45
-66.38
-69.22
-72.28
-76.04
-80.61
-85.58
-90.26
-94.07
-96.72
-98.22
-98.60
-97.90
-97.08
-96.79
-96.82
-96.24
-94.13
-90.13
-84.54
-78.04
-71.59
-67.66
-67.97
-72.45
-79.26
-86.01
-90.81
-92.53
-90.76
-85.77
-80.46
-77.50
-78.01
-81.37
-86.42
-92.19
-97.82
-102.19
-91.69
-59.91
-11.78
38.92
79.92
106.54
120.54
126.55
129.21
131.55
132.59
130.66
125.28
117.61
109.15
100.60
91.85
82.67
73.23
62.61
50.62
38.11
26.61
17.12
9.79
4.31
0.71
-0.38
0.95
4.74
11.07
19.79
29.96
40.02
48.49
54.71
58.85
60.85
60.54
57.64
52.14
44.69
36.85
30.88
28.92
31.86
38.37
45.51
49.80
48.55
40.65
27.11
10.04
-7.31
-21.27
-28.51
-27.04
-17.19
-2.12
13.01
22.53
23.30
16.27
5.90
-2.17
-4.08
0.43
8.28
15.06
17.41
14.54
8.05
0.67
-5.33
-8.91
-10.39
-10.92
-11.78
-13.78
-16.86
-20.14
-22.13
-21.78
-19.01
-15.05
-11.96
-11.50
-14.14
-19.02
-24.51
-29.40
-33.54
-37.58
-42.05
-46.55
-49.72
-49.52
-44.81
-35.98
-24.91
-14.14
-5.62
-0.09
2.97
4.64
5.76
6.56
6.89
6.81
6.75
7.47
9.39
11.99
13.88
13.49
10.17
4.98
0.38
-0.89
2.64
10.21
19.08
25.95
28.52
26.35
20.83
13.98
7.47
2.09
-2.07
-5.09
-6.85
-7.19
-6.31
-4.97
-4.23
-4.82
-6.59
-8.55
-9.42
-8.53
-6.23
-3.78
-2.55
-3.32
-5.93
-9.59
-13.49
-17.27
-21.07
-24.99
-28.68
-31.25
-31.77
-29.91
-26.35
-22.50
-19.76
-18.79
-19.05
-19.17
-17.53
-12.98
-5.38
4.43
15.04
25.01
33.28
39.31
43.12
45.18
46.30
47.40
49.20
51.93
55.19
58.06
59.47
58.58
55.09
49.32
42.02
34.11
26.39
19.32
12.96
7.15
1.63
-3.72
-8.78
-13.20
-16.66
-19.00
-20.37
-21.22
-22.11
-23.37
-24.99
-26.68
-28.00
-28.62
-28.41
-27.44
-25.85
-23.67
-20.79
-17.01
-12.24
-6.68
-0.84
4.53
8.68
11.14
11.74
10.61
8.06
4.45
0.11
-4.56
-9.07
-12.85
-15.45
-16.74
-17.09
-17.17
-17.57
-18.43
-19.25
-19.12
-17.27
-13.44
-8.12
-2.32
2.98
7.29
10.73
13.86
17.18
20.75
24.15
26.64
27.61
26.88
24.88
22.53
20.91
20.83
22.49
25.41
28.62
31.11
32.30
32.27
31.60
31.01
30.94
31.31
31.65
31.40
30.25
28.23
25.61
22.63
19.34
15.60
11.29
6.46
1.45
-3.23
-7.11
-10.01
-12.05
-13.65
-15.23
-17.13
-19.37
-21.75
-23.91
-25.57
-26.62
-27.12
-27.31
-27.43
-27.67
-28.11
-28.70
-29.33
-29.87
-30.19
-30.19
-29.80
-28.95
-27.59
-25.70
-23.33
-20.57
-17.58
-14.56
-11.73
-9.25
-7.23
-5.71
-4.64
-3.95
-3.54
-3.31
-3.15
-2.98
-2.76
-2.48
-2.12
-1.67
-1.10
-0.47
0.10
0.42
0.31
-0.24
-1.06
-1.86
-2.36
-2.53
-2.65
-3.16
-4.46
-6.64
-9.48
-12.48
-15.17
-17.20
-18.44
-18.90
-18.62
-17.66
-16.12
-14.15
-11.95
-9.69
-7.46
-5.27
-3.08
-0.93
1.07
2.71
3.79
4.21
4.00
3.32
2.33
1.18
-0.05
-1.33
-2.61
-3.88
-5.16
-6.56
-8.23
-10.37
-13.03
-16.07
-19.10
-21.70
-23.53
-24.60
-25.26
-25.94
-26.90
-28.01
-28.71
-28.33
-26.38
-22.82
-18.05
-12.76
-7.62
-3.04
0.82
4.04
6.76
9.12
11.19
13.06
14.83
16.62
18.49
20.43
22.41
24.39
26.46
28.85
31.84
35.61
40.15
45.20
50.37
55.28
59.64
63.20
65.64
66.49
65.24
61.60
55.71
48.27
40.26
32.61
25.83
19.92
14.53
9.28
4.00
-1.16
-5.93
-10.02
-13.28
-15.67
-17.22
-17.90
-17.69
-16.65
-14.92
-12.77
-10.51
-8.39
-6.56
-5.08
-3.93
-3.10
-2.56
-2.26
-2.16
-2.21
-2.42
-2.85
-3.60
-4.67
-5.91
-7.09
-7.92
-8.24
-8.06
-7.55
-6.89
-6.20
-5.52
-4.87
-4.34
-4.13
-4.42
-5.24
-6.43
-7.67
-8.73
-9.57
-10.41
-11.57
-13.27
-15.42
-17.61
-19.30
-20.01
-19.54
-17.97
-15.60
-12.83
-10.01
-7.40
-5.15
-3.31
-1.84
-0.59
0.57
1.75
2.96
4.15
5.21
6.12
6.90
7.62
8.31
8.92
9.27
9.14
8.34
6.84
4.78
2.47
0.29
-1.45
-2.66
-3.44
-4.11
-5.01
-6.35
-8.12
-10.12
-12.07
-13.75
-15.09
-16.17
-17.02
-17.58
-17.65
-16.99
-15.45
-13.16
-10.42
-7.60
-4.95
-2.47
-0.00
2.61
5.28
7.66
9.27
9.79
9.21
7.91
6.46
5.30
4.56
4.07
3.54
2.80
1.91
1.16
0.82
0.97
1.44
1.90
2.03
1.74
1.16
0.59
0.25
0.15
0.08
-0.24
-1.04
-2.30
-3.80
-5.24
-6.41
-7.29
-8.02
-8.72
-9.39
-9.89
-10.01
-9.68
-9.07
-8.51
-8.35
-8.69
-9.32
-9.74
-9.48
-8.31
-6.39
-4.21
-2.34
-1.19
-0.73
-0.61
-0.34
0.52
2.08
4.20
6.56
8.79
10.65
12.04
12.93
13.34
13.28
12.78
11.99
11.14
10.47
10.06
9.68
8.81
6.81
3.20
-1.97
-8.04
-13.83
-18.06
-19.82
-18.87
-15.73
-11.32
-6.59
-2.18
1.76
5.38
8.87
12.30
15.58
18.61
21.42
24.18
27.05
30.00
32.71
34.66
35.36
34.59
32.45
29.31
25.60
21.67
17.74
13.89
10.19
6.72
3.59
0.92
-1.16
-2.58
-3.44
-3.95
-4.52
-5.52
-7.21
-9.57
-12.30
-14.91
-16.93
-18.10
-18.34
-17.80
-16.68
-15.19
-13.47
-11.63
-9.74
-7.90
-6.17
-4.58
-3.15
-1.87
-0.68
0.47
1.64
2.86
4.15
5.55
7.11
8.81
10.46
11.70
12.06
11.16
8.98
5.90
2.64
-0.06
-1.79
-2.64
-3.15
-3.99
-5.61
-8.00
-10.72
-13.15
-14.79
-15.43
-15.20
-14.43
-13.46
-12.44
-11.34
-10.02
-8.32
-6.24
-3.96
-1.79
-0.08
0.91
1.12
0.70
0.03
-0.42
-0.24
0.78
2.58
4.78
6.75
7.76
7.24
5.01
1.52
-2.26
-5.14
-6.27
-5.55
-3.77
-2.23
-2.09
-3.81
-6.95
-10.51
-13.45
-15.21
-15.72
-15.06
-13.06
-9.19
-2.93
5.64
15.48
24.71
31.30
33.92
32.50
28.13
22.54
17.34
13.49
11.19
10.07
9.59
9.30
8.90
8.25
7.33
6.16
4.81
3.37
1.88
0.36
-1.15
-2.60
-3.89
-4.94
-5.74
-6.34
-6.81
-7.17
-7.34
-7.22
-6.75
-5.95
-4.98
-4.12
-3.69
-3.92
-4.89
-6.43
-8.15
-9.56
-10.19
-9.79
-8.45
-6.56
-4.74
-3.61
-3.58
-4.61
-6.24
-7.66
-7.97
-6.56
-3.39
0.94
5.37
8.71
10.09
9.12
5.94
1.00
-5.04
-11.32
-16.78
-20.21
-20.49
-17.05
-10.26
-1.44
7.67
15.60
21.89
27.12
32.33
38.05
43.49
46.52
44.53
35.87
20.91
2.44
-15.27
-28.00
-33.05
-30.09
-21.03
-9.05
2.54
11.23
15.75
16.03
12.87
7.52
1.22
-4.93
-10.11
-13.78
-15.63
-15.63
-14.03
-11.49
-8.90
-7.14
-6.72
-7.56
-9.03
-10.23
-10.45
-9.46
-7.56
-5.36
-3.48
-2.23
-1.55
-1.12
-0.52
0.48
1.91
3.51
4.92
5.85
6.13
5.80
5.00
3.92
2.75
1.65
0.74
0.10
-0.25
-0.42
-0.57
-0.88
-1.43
-2.18
-2.97
-3.64
-4.13
-4.47
-4.78
-5.20
-5.81
-6.62
-7.55
-8.42
-9.07
-9.38
-9.33
-8.98
-8.42
-7.75
-6.99
-6.13
-5.17
-4.17
-3.31
-2.80
-2.84
-3.53
-4.87
-6.76
-9.00
-11.38
-13.63
-15.52
-16.86
-17.55
-17.57
-16.98
-15.85
-14.20
-11.96
-9.09
-5.59
-1.65
2.44
6.30
9.62
12.15
13.80
14.58
14.60
14.03
13.10
12.11
11.36
11.06
11.27
11.90
12.74
13.58
14.29
14.78
15.05
15.06
14.74
13.95
12.58
10.60
8.07
5.22
2.40
-0.07
-1.98
-3.35
-4.38
-5.37
-6.60
-8.17
-10.04
-12.07
-14.11
-16.10
-18.04
-19.97
-21.92
-23.91
-25.99
-28.23
-30.66
-33.18
-35.51
-37.19
-37.72
-36.76
-34.28
-30.54
-25.99
-21.16
-16.36
-11.74
-7.27
-2.90
1.38
5.50
9.39
13.01
16.39
19.60
22.62
25.40
27.80
29.70
31.08
32.04
32.70
33.21
33.62
33.86
33.87
33.53
32.83
31.79
30.49
29.03
27.45
25.78
23.95
21.95
19.86
17.86
16.21
15.17
14.89
15.38
16.48
17.88
19.30
20.46
21.27
21.74
22.05
22.44
23.09
24.04
25.19
26.30
27.16
27.60
27.59
27.11
26.22
24.90
23.19
21.16
18.93
16.71
14.68
13.04
11.91
11.29
11.04
10.92
10.64
9.99
8.95
7.67
6.36
5.18
4.21
3.49
3.07
3.10
3.75
5.10
7.03
9.26
11.42
13.20
14.50
15.33
15.85
16.19
16.43
16.59
16.66
16.54
16.14
15.40
14.34
13.07
11.73
10.42
9.13
7.75
6.19
4.43
2.58
0.84
-0.70
-2.07
-3.46
-5.06
-6.93
-8.94
-10.86
-12.49
-13.81
-14.97
-16.19
-17.58
-19.03
-20.22
-20.73
-20.30
-18.89
-16.75
-14.28
-11.88
-9.78
-8.06
-6.68
-5.54
-4.58
-3.78
-3.18
-2.80
-2.68
-2.82
-3.21
-3.75
-4.36
-4.91
-5.31
-5.53
-5.60
-5.61
-5.63
-5.69
-5.84
-6.05
-6.35
-6.73
-7.16
-7.58
-7.95
-8.24
-8.52
-8.89
-9.47
-10.27
-11.20
-12.10
-12.79
-13.13
-13.02
-12.48
-11.54
-10.25
-8.71
-7.02
-5.32
-3.72
-2.34
-1.21
-0.33
0.36
0.94
1.49
2.05
2.67
3.38
4.18
5.06
5.94
6.73
7.30
7.55
7.45
7.07
6.56
6.06
5.65
5.29
4.87
4.24
3.32
2.06
0.50
-1.34
-3.40
-5.57
-7.70
-9.59
-11.03
-11.94
-12.34
-12.38
-12.19
-11.81
-11.13
-10.00
-8.30
-6.13
-3.82
-1.81
-0.40
0.36
0.70
1.00
1.52
2.28
3.03
3.42
3.22
2.43
1.20
-0.21
-1.63
-2.96
-4.12
-5.00
-5.49
-5.55
-5.37
-5.30
-5.77
-7.10
-9.28
-12.03
-14.88
-17.35
-19.10
-20.05
-20.30
-20.06
-19.52
-18.67
-17.28
-14.92
-11.29
-6.38
-0.71
4.83
9.22
11.77
12.33
11.30
9.42
7.40
5.64
4.22
2.98
1.69
0.15
-1.83
-4.38
-7.48
-10.74
-13.39
-14.40
-13.03
-9.25
-3.97
1.25
4.83
5.90
4.71
2.39
0.49
0.30
2.45
6.78
12.58
18.86
24.62
29.02
31.57
32.12
30.87
28.25
24.71
20.70
16.56
12.63
9.22
6.48
4.35
2.50
0.46
-2.16
-5.35
-8.65
-11.33
-12.65
-12.25
-10.38
-7.78
-5.45
-4.21
-4.39
-5.70
-7.45
-8.88
-9.54
-9.41
-8.81
-8.17
-7.75
-7.67
-7.97
-8.73
-10.01
-11.70
-13.39
-14.44
-14.26
-12.67
-10.02
-6.99
-4.17
-1.74
0.57
3.16
6.13
9.05
11.13
11.65
10.40
7.82
4.74
1.99
0.02
-1.10
-1.49
-1.25
-0.36
1.21
3.31
5.51
7.20
7.84
7.13
5.10
2.02
-1.74
-5.84
-9.95
-13.71
-16.68
-18.44
-18.66
-17.29
-14.57
-11.02
-7.28
-3.92
-1.30
0.50
1.60
2.19
2.45
2.49
2.45
2.53
3.03
4.13
5.83
7.85
9.73
11.04
11.57
11.43
10.94
10.44
10.16
10.12
10.17
10.14
9.88
9.35
8.64
7.85
7.10
6.35
5.45
4.17
2.33
-0.05
-2.72
-5.24
-7.20
-8.35
-8.71
-8.51
-8.04
-7.50
-6.94
-6.22
-5.22
-3.88
-2.28
-0.69
0.59
1.27
1.23
0.57
-0.47
-1.56
-2.41
-2.87
-2.90
-2.57
-1.99
-1.21
-0.25
0.85
2.10
3.53
5.17
7.05
9.11
11.19
13.02
14.33
14.92
14.71
13.77
12.22
10.19
7.83
5.31
2.79
0.50
-1.41
-2.80
-3.58
-3.69
-3.13
-2.05
-0.73
0.46
1.25
1.58
1.62
1.67
1.96
2.47
2.97
3.17
2.88
2.15
1.22
0.35
-0.28
-0.57
-0.50
-0.13
0.35
0.56
-0.06
-2.07
-5.71
-10.65
-15.97
-20.46
-23.04
-23.20
-21.06
-17.16
-12.13
-6.33
0.08
7.00
14.05
20.57
25.74
28.94
29.95
28.95
26.24
21.97
16.04
8.36
-0.89
-10.89
-20.36
-27.78
-32.02
-32.61
-29.83
-24.48
-17.55
-9.97
-2.51
4.23
9.80
14.00
16.84
18.54
19.31
19.22
18.12
15.79
12.22
7.72
2.87
-1.66
-5.43
-8.29
-10.31
-11.59
-12.12
-11.87
-10.89
-9.47
-8.03
-6.96
-6.45
-6.37
-6.40
-6.22
-5.69
-4.88
-4.07
-3.68
-4.16
-5.83
-8.69
-12.29
-15.74
-17.98
-18.16
-16.07
-12.32
-8.27
-5.64
-5.93
-9.75
-16.43
-23.98
-29.68
-30.97
-26.56
-16.95
-4.37
8.18
18.11
24.20
26.78
27.24
27.14
27.52
28.67
30.28
31.56
31.46
28.73
22.31
11.89
-1.53
-15.49
-26.69
-32.13
-30.26
-21.62
-8.48
6.08
19.27
29.28
35.41
37.76
36.84
33.35
28.12
22.13
16.43
11.94
9.16
8.03
7.98
8.10
7.57
5.90
3.13
-0.18
-3.28
-5.48
-6.47
-6.42
-5.89
-5.53
-5.87
-7.05
-8.88
-10.92
-12.72
-14.02
-14.74
-14.96
-14.83
-14.48
-13.98
-13.37
-12.66
-11.82
-10.78
-9.38
-7.45
-4.94
-2.00
1.03
3.72
5.70
6.81
7.12
6.87
6.34
5.75
5.18
4.65
4.09
3.44
2.66
1.74
0.65
-0.61
-2.09
-3.80
-5.70
-7.69
-9.58
-11.19
-12.41
-13.28
-13.97
-14.69
-15.59
-16.62
-17.60
-18.30
-18.56
-18.43
-18.07
-17.65
-17.26
-16.84
-16.24
-15.35
-14.18
-12.76
-11.14
-9.27
-7.08
-4.57
-1.88
0.71
2.90
4.48
5.41
5.83
5.94
5.88
5.77
5.67
5.66
5.83
6.20
6.70
7.16
7.42
7.36
6.96
6.30
5.50
4.68
3.96
3.49
3.45
4.02
5.25
7.01
8.97
10.70
11.88
12.44
12.55
12.56
12.75
13.20
13.77
14.19
14.21
13.70
12.75
11.55
10.34
9.29
8.49
7.93
7.49
7.05
6.49
5.75
4.86
3.87
2.86
1.87
0.90
-0.04
-0.95
-1.79
-2.57
-3.33
-4.15
-5.07
-6.07
-7.02
-7.73
-8.05
-7.91
-7.38
-6.62
-5.77
-4.94
-4.18
-3.54
-3.02
-2.68
-2.54
-2.59
-2.77
-3.00
-3.13
-3.04
-2.63
-1.92
-1.01
-0.08
0.66
1.12
1.31
1.37
1.46
1.67
1.95
2.14
2.08
1.69
1.02
0.20
-0.66
-1.53
-2.46
-3.43
-4.37
-5.08
-5.33
-5.00
-4.11
-2.88
-1.65
-0.75
-0.43
-0.74
-1.57
-2.67
-3.73
-4.50
-4.83
-4.70
-4.26
-3.69
-3.18
-2.82
-2.66
-2.63
-2.65
-2.61
-2.43
-2.01
-1.34
-0.50
0.36
1.01
1.24
0.93
0.10
-1.13
-2.56
-4.00
-5.30
-6.35
-7.08
-7.43
-7.41
-7.08
-6.57
-6.04
-5.60
-5.28
-5.07
-4.91
-4.79
-4.71
-4.68
-4.72
-4.81
-4.89
-4.88
-4.69
-4.25
-3.50
-2.44
-1.15
0.19
1.31
2.00
2.10
1.61
0.63
-0.67
-2.09
-3.42
-4.44
-4.97
-4.95
-4.42
-3.58
-2.66
-1.76
-0.83
0.34
1.98
4.19
6.83
9.62
12.19
14.27
15.71
16.44
16.45
15.74
14.41
12.62
10.69
8.96
7.67
6.91
6.60
6.54
6.58
6.62
6.67
6.77
6.87
6.85
6.53
5.77
4.57
3.07
1.49
0.02
-1.21
-2.22
-3.10
-3.93
-4.70
-5.30
-5.62
-5.57
-5.18
-4.59
-3.95
-3.33
-2.77
-2.26
-1.85
-1.65
-1.80
-2.34
-3.21
-4.18
-5.01
-5.54
-5.80
-5.92
-6.05
-6.19
-6.25
-6.11
-5.69
-5.11
-4.55
-4.19
-4.09
-4.19
-4.37
-4.55
-4.73
-4.92
-5.16
-5.38
-5.52
-5.54
-5.50
-5.51
-5.60
-5.69
-5.58
-5.12
-4.32
-3.38
-2.60
-2.24
-2.37
-2.88
-3.59
-4.36
-5.19
-6.13
-7.19
-8.31
-9.32
-10.10
-10.63
-11.04
-11.48
-12.03
-12.56
-12.77
-12.34
-11.04
-8.88
-6.17
-3.31
-0.78
1.06
1.96
1.83
0.81
-0.74
-2.22
-2.98
-2.52
-0.83
1.56
3.73
4.71
3.92
1.43
-2.16
-5.89
-8.92
-10.66
-10.93
-9.84
-7.67
-4.82
-1.72
1.19
3.61
5.33
6.33
6.67
6.41
5.55
4.09
2.08
-0.28
-2.71
-4.94
-6.78
-8.30
-9.74
-11.41
-13.53
-16.07
-18.64
-20.51
-20.81
-18.80
-14.14
-7.13
1.28
9.64
16.38
20.27
20.79
18.21
13.42
7.54
1.58
-3.83
-8.34
-11.79
-14.05
-14.98
-14.65
-13.34
-11.59
-9.90
-8.47
-6.96
-4.61
-0.49
5.97
14.58
24.28
33.40
40.15
43.25
42.31
37.92
31.26
23.56
15.61
7.64
-0.43
-8.55
-16.11
-21.96
-24.76
-23.61
-18.52
-10.52
-1.33
7.19
13.64
17.39
18.50
17.50
15.02
11.61
7.72
3.81
0.29
-2.45
-4.28
-5.37
-6.18
-7.20
-8.71
-10.52
-12.04
-12.46
-11.06
-7.43
-1.74
5.38
12.89
19.53
24.09
25.60
23.63
18.46
11.12
3.21
-3.57
-7.82
-8.87
-6.89
-2.69
2.57
7.67
11.57
13.55
13.30
10.93
7.04
2.57
-1.44
-4.13
-5.10
-4.50
-2.86
-0.84
0.97
2.21
2.73
2.57
1.83
0.56
-1.17
-3.36
-5.90
-8.54
-10.89
-12.46
-12.90
-12.08
-10.18
-7.57
-4.65
-1.73
0.98
3.35
5.24
6.53
7.20
7.42
7.45
7.52
7.57
7.23
6.00
3.52
-0.09
-4.24
-8.07
-10.85
-12.23
-12.38
-11.74
-10.76
-9.69
-8.58
-7.40
-6.24
-5.37
-5.13
-5.73
-7.11
-8.83
-10.31
-10.96
-10.49
-8.96
-6.75
-4.35
-2.12
-0.21
1.49
3.11
4.62
5.78
6.24
5.79
4.58
3.09
1.89
1.31
1.18
0.95
0.02
-1.84
-4.25
-6.34
-7.22
-6.32
-3.70
0.07
4.15
7.78
10.46
11.96
12.22
11.27
9.22
6.24
2.70
-0.96
-4.25
-6.83
-8.57
-9.50
-9.84
-9.80
-9.59
-9.30
-8.92
-8.32
-7.34
-5.86
-3.84
-1.37
1.35
4.08
6.60
8.76
10.50
11.80
12.63
12.88
12.37
10.95
8.69
6.00
3.74
2.92
4.37
8.29
14.00
20.10
24.89
27.01
25.86
21.77
15.73
9.03
2.84
-2.00
-5.13
-6.54
-6.54
-5.60
-4.29
-3.06
-2.25
-2.00
-2.31
-3.10
-4.22
-5.48
-6.65
-7.48
-7.75
-7.40
-6.52
-5.39
-4.33
-3.60
-3.29
-3.35
-3.62
-3.97
-4.30
-4.56
-4.70
-4.61
-4.22
-3.47
-2.39
-1.13
0.17
1.40
2.55
3.69
4.87
6.06
7.13
7.89
8.21
8.11
7.80
7.57
7.59
7.83
8.01
7.76
6.86
5.44
3.96
2.98
2.94
3.91
5.64
7.63
9.35
10.43
10.69
10.23
9.29
8.22
7.35
6.86
6.71
6.69
6.51
5.89
4.70
2.97
0.85
-1.42
-3.57
-5.31
-6.40
-6.69
-6.20
-5.17
-3.95
-2.95
-2.50
-2.77
-3.71
-5.13
-6.74
-8.25
-9.45
-10.24
-10.65
-10.77
-10.70
-10.47
-10.08
-9.47
-8.63
-7.60
-6.46
-5.30
-4.24
-3.33
-2.62
-2.08
-1.64
-1.15
-0.49
0.37
1.33
2.16
2.67
2.75
2.46
1.99
1.52
1.15
0.83
0.42
-0.18
-0.95
-1.72
-2.24
-2.34
-2.00
-1.37
-0.68
-0.12
0.18
0.23
0.08
-0.17
-0.46
-0.75
-1.02
-1.33
-1.74
-2.32
-3.10
-3.96
-4.73
-5.16
-5.11
-4.59
-3.83
-3.07
-2.54
-2.26
-2.15
-2.01
-1.73
-1.30
-0.79
-0.30
0.05
0.20
0.09
-0.24
-0.73
-1.26
-1.72
-2.07
-2.37
-2.73
-3.24
-3.88
-4.50
-4.92
-5.06
-4.99
-4.98
-5.34
-6.27
-7.63
-9.02
-9.96
-10.17
-9.77
-9.23
-9.11
-9.73
-10.94
-12.25
-13.11
-13.27
-12.87
-12.28
-11.73
-11.12
-10.12
-8.58
-6.72
-5.17
-4.41
-4.40
-4.38
-3.25
-0.28
4.44
10.00
15.17
19.07
21.58
23.24
24.84
26.93
29.59
32.49
35.07
36.84
37.54
37.20
36.03
34.34
32.31
29.88
26.80
22.82
17.96
12.65
7.62
3.61
0.98
-0.39
-0.93
-1.00
-0.69
0.24
2.08
4.94
8.48
12.06
14.85
16.22
15.94
14.35
12.26
10.74
10.73
12.67
16.19
20.21
23.21
23.87
21.62
16.89
11.03
5.61
1.87
0.11
-0.23
-0.26
-0.95
-2.72
-5.26
-7.83
-9.80
-11.01
-11.89
-13.19
-15.46
-18.67
-22.17
-25.03
-26.57
-26.77
-26.27
-25.88
-26.00
-26.13
-25.13
-21.92
-16.32
-9.51
-3.60
-0.60
-1.33
-4.83
-8.90
-11.22
-10.57
-7.33
-3.17
-0.01
0.86
-0.67
-3.83
-7.40
-10.18
-11.13
-9.43
-4.62
2.96
11.83
19.52
23.31
21.52
14.51
4.73
-4.34
-9.90
-11.13
-9.46
-7.53
-7.64
-10.54
-15.26
-19.85
-22.44
-21.94
-18.20
-11.83
-3.91
4.10
10.51
13.81
13.27
9.43
3.98
-0.89
-3.49
-3.33
-1.10
1.97
4.90
7.48
10.06
13.04
16.25
18.86
19.82
18.51
15.19
11.08
7.76
6.42
7.33
9.72
12.24
13.74
13.77
12.74
11.57
11.06
11.46
12.38
13.10
13.01
11.92
10.11
8.13
6.52
5.57
5.30
5.39
5.41
4.98
3.88
2.12
-0.06
-2.37
-4.59
-6.63
-8.57
-10.52
-12.54
-14.56
-16.39
-17.81
-18.70
-19.10
-19.16
-19.08
-18.99
-18.93
-18.87
-18.78
-18.71
-18.78
-19.17
-19.95
-21.10
-22.40
-23.56
-24.26
-24.30
-23.63
-22.37
-20.76
-19.05
-17.43
-15.99
-14.68
-13.46
-12.30
-11.27
-10.49
-10.05
-9.89
-9.78
-9.43
-8.61
-7.30
-5.73
-4.25
-3.20
-2.78
-2.94
-3.47
-4.14
-4.74
-5.17
-5.41
-5.52
-5.58
-5.70
-5.92
-6.20
-6.42
-6.41
-6.07
-5.43
-4.70
-4.18
-4.13
-4.67
-5.72
-7.00
-8.12
-8.68
-8.28
-6.67
-3.85
-0.18
3.60
6.56
7.88
7.17
4.65
1.01
-2.83
-6.10
-8.31
-9.29
-9.06
-7.76
-5.62
-3.05
-0.60
1.07
1.49
0.44
-1.89
-5.02
-8.36
-11.33
-13.49
-14.57
-14.48
-13.42
-11.79
-10.11
-8.82
-8.05
-7.66
-7.25
-6.50
-5.29
-3.80
-2.30
-0.97
0.17
1.27
2.49
3.91
5.46
7.07
8.65
10.19
11.67
12.98
13.93
14.33
14.02
13.03
11.51
9.67
7.75
5.90
4.21
2.73
1.44
0.35
-0.51
-1.07
-1.24
-0.90
0.05
1.64
3.81
6.36
9.00
11.38
13.18
14.25
14.55
14.24
13.57
12.72
11.83
10.95
10.10
9.36
8.82
8.51
8.34
8.08
7.46
6.32
4.71
2.92
1.34
0.28
-0.17
-0.14
0.07
0.17
-0.01
-0.51
-1.24
-2.05
-2.85
-3.52
-3.99
-4.21
-4.09
-3.59
-2.71
-1.48
0.03
1.68
3.33
4.84
6.09
7.04
7.69
8.14
8.48
8.80
9.12
9.37
9.48
9.37
9.06
8.65
8.28
8.06
8.03
8.12
8.20
8.14
7.84
7.25
6.39
5.31
4.15
3.05
2.13
1.42
0.86
0.27
-0.46
-1.35
-2.28
-3.02
-3.39
-3.27
-2.72
-1.81
-0.61
0.81
2.41
4.06
5.65
7.01
8.08
8.84
9.34
9.62
9.70
9.63
9.51
9.45
9.56
9.83
10.17
10.45
10.53
10.38
10.03
9.51
8.85
8.04
7.08
6.02
4.93
3.88
2.93
2.09
1.33
0.59
-0.17
-1.08
-2.23
-3.71
-5.47
-7.37
-9.16
-10.59
-11.49
-11.79
-11.51
-10.73
-9.53
-7.96
-6.10
-4.10
-2.15
-0.42
0.94
1.90
2.52
2.95
3.30
3.66
4.03
4.34
4.48
4.39
4.07
3.63
3.25
3.12
3.30
3.73
4.19
4.46
4.35
3.83
3.03
2.12
1.16
0.16
-0.89
-1.92
-2.80
-3.36
-3.49
-3.20
-2.67
-2.31
-2.49
-3.32
-4.55
-5.63
-5.99
-5.22
-3.23
-0.23
3.16
6.42
9.29
11.86
14.32
16.75
19.16
21.52
23.92
26.05
27.80
29.53
31.85
35.20
39.51
44.35
49.17
53.51
55.93
55.45
52.12
46.98
41.24
35.71
30.84
26.97
24.38
21.32
16.08
7.91
-2.84
-15.71
-30.67
-47.72
-66.33
-85.28
-105.46
-127.58
-151.19
-174.73
-196.68
-216.32
-233.33
-247.47
-244.18
-215.63
-166.18
-109.90
-59.23
-18.54
13.66
39.94
61.38
77.36
84.55
81.36
69.89
55.35
43.00
35.81
34.00
36.14
40.39
43.62
43.97
41.67
38.63
36.70
36.52
37.64
39.30
40.96
41.50
40.38
38.04
35.55
33.72
32.65
31.96
31.21
30.11
28.03
24.77
20.76
17.01
14.54
13.83
14.62
16.19
17.66
18.29
17.96
17.09
16.42
16.49
17.40
18.82
20.31
21.38
21.43
19.88
16.20
10.34
2.88
-4.78
-10.82
-13.68
-12.73
-8.66
-3.13
1.92
5.11
6.05
5.33
3.94
2.77
2.21
2.15
2.35
2.65
3.07
3.63
4.29
4.88
5.20
5.31
5.36
5.93
7.61
10.67
14.92
19.79
24.56
28.75
32.33
35.24
37.76
40.19
42.77
45.67
48.93
52.39
55.68
58.30
59.40
58.72
56.76
54.54
53.13
53.02
53.70
53.57
53.33
52.15
49.47
45.19
39.67
33.40
26.79
20.21
14.15
9.22
5.63
3.55
2.92
3.42
4.77
6.89
10.07
14.66
20.93
28.42
36.59
44.96
53.20
60.89
67.00
69.61
66.33
55.31
36.24
11.21
-15.81
-40.47
-59.74
-72.96
-81.61
-88.07
-94.05
-99.97
-105.05
-108.50
-110.54
-112.62
-116.78
-124.47
-135.89
-149.91
-164.81
-179.02
-191.49
-201.61
-208.90
-212.90
-213.31
-210.24
-204.20
-195.73
-184.91
-171.22
-153.83
-132.38
-107.43
-80.53
-53.54
-27.96
-4.37
17.37
37.51
55.86
71.65
83.88
92.08
96.68
98.96
100.52
102.54
105.27
108.03
109.68
109.36
107.10
104.10
102.24
103.35
108.40
117.01
127.63
138.15
146.68
152.10
154.08
152.97
149.24
143.21
135.03
124.90
113.34
101.39
90.51
82.19
77.62
77.25
80.72
87.02
94.84
103.01
110.75
117.75
124.06
129.85
135.15
139.75
143.10
144.42
142.75
137.30
127.58
113.56
95.80
75.33
53.46
31.53
10.64
-8.46
-25.46
-40.30
-53.14
-64.21
-73.77
-81.96
-88.82
-94.25
-98.05
-100.08
-100.26
-98.67
-95.30
-89.97
-82.27
-71.74
-58.23
-42.15
-24.63
-7.10
9.02
22.80
33.95
42.79
50.10
56.63
62.96
68.73
72.54
71.65
62.38
41.18
5.99
-42.39
-100.04
-160.67
-217.44
-264.88
-300.47
-324.82
-340.50
-350.17
-354.88
-353.93
-346.00
-330.99
-311.16
-290.65
-273.54
-261.68
-253.74
-246.11
-235.14
-219.24
-199.39
-178.07
-157.43
-138.03
-118.79
-98.50
-76.73
-54.19
-32.25
-12.23
4.94
18.72
28.85
35.56
39.87
43.39
47.57
52.86
58.67
63.82
67.59
70.14
72.02
73.47
74.35
74.90
76.37
80.90
90.08
103.51
118.37
130.75
138.00
140.36
140.61
141.82
144.94
147.99
147.78
142.54
133.41
123.57
115.77
110.25
104.67
95.86
81.77
62.09
37.56
8.92
-23.08
-56.93
-89.54
-116.50
-133.63
-138.72
-132.60
-118.68
-101.50
-85.11
-72.12
-63.44
-58.45
-55.42
-52.03
-46.05
-36.14
-22.53
-6.83
9.09
24.30
39.56
56.44
75.94
97.07
116.55
129.69
132.44
123.21
103.51
76.99
47.41
17.00
-13.74
-44.62
-74.44
-100.58
-120.35
-132.90
-139.90
-144.73
-149.98
-155.81
-160.37
-162.28
-162.70
-165.54
-175.07
-192.61
-215.70
-239.35
-258.76
-271.76
-278.97
-281.87
-280.33
-271.79
-252.07
-218.90
-173.05
-117.31
-54.70
12.78
84.57
160.36
238.33
314.45
380.84
428.38
450.92
448.08
425.52
392.92
360.38
334.76
318.53
307.67
295.17
275.67
247.63
212.51
172.68
129.75
79.27
27.76
-13.91
-39.58
-48.92
-44.14
-28.86
-7.95
13.41
31.07
43.47
48.96
46.06
34.69
16.46
-5.91
-29.07
-49.60
-64.73
-72.45
-73.50
-70.50
-65.72
-60.14
-53.83
-46.71
-38.98
-31.19
-23.94
-17.56
-12.50
-8.29
-3.68
2.30
9.79
18.18
26.61
34.66
41.91
48.21
54.23
60.78
67.88
74.32
78.28
78.57
75.59
70.49
64.46
58.09
50.72
40.58
26.26
8.18
-11.03
-27.96
-39.10
-43.66
-43.68
-42.93
-45.14
-52.40
-64.71
-80.53
-92.40
-95.52
-89.67
-78.31
-65.40
-53.66
-44.56
-38.94
-36.69
-36.45
-36.35
-34.18
-28.05
-17.50
-4.09
9.28
19.29
23.65
21.81
14.31
2.97
-9.21
-18.78
-23.92
-23.28
-17.78
-10.26
-4.15
-2.09
-4.18
-7.86
-9.40
-6.13
2.22
13.41
24.23
32.07
35.73
35.55
32.96
29.69
27.31
27.16
30.13
36.55
46.03
56.79
65.93
70.50
68.38
58.95
43.51
25.00
7.52
-4.92
-9.81
-7.42
-1.27
2.77
-1.44
-17.61
-45.06
-78.40
-109.21
-129.24
-133.77
-123.55
-104.54
-85.29
-73.44
-72.77
-82.37
-97.80
-113.52
-124.98
-129.50
-126.04
-114.61
-95.79
-70.92
-42.37
-13.29
13.09
34.57
50.45
61.45
69.06
74.81
79.75
84.31
88.54
92.25
95.24
97.47
99.00
100.06
100.75
100.96
100.16
97.65
92.79
85.29
75.28
63.29
50.05
36.41
23.12
10.80
-0.17
-9.48
-16.88
-22.01
-24.64
-24.99
-23.98
-23.05
-23.62
-26.41
-30.97
-35.94
-39.87
-42.17
-43.50
-45.31
-48.84
-54.29
-60.67
-66.40
-70.18
-71.65
-71.21
-69.31
-65.83
-59.79
-49.86
-35.18
-16.11
5.69
27.62
46.92
61.34
69.63
71.63
68.26
61.31
53.10
45.81
40.98
39.14
39.73
41.50
43.00
43.07
41.24
37.85
33.87
30.67
29.39
30.48
33.45
36.97
39.43
39.52
36.67
31.04
23.24
14.03
4.22
-5.33
-13.47
-19.01
-21.07
-19.61
-15.75
-11.53
-9.17
-10.20
-14.86
-22.17
-30.54
-38.73
-46.19
-52.97
-59.05
-63.88
-66.43
-65.90
-62.44
-57.37
-52.73
-50.17
-50.11
-51.48
-52.40
-51.15
-47.02
-40.58
-33.27
-26.74
-22.19
-19.96
-19.26
-18.47
-15.72
-9.87
-1.34
7.89
15.16
18.60
18.20
15.92
14.64
16.60
22.40
31.14
41.38
52.13
63.17
74.46
85.34
94.21
99.22
99.39
95.43
89.52
84.30
81.45
81.03
81.53
80.85
77.19
69.80
59.00
45.89
31.88
18.31
6.12
-4.30
-13.07
-20.61
-27.24
-33.02
-37.76
-41.30
-43.84
-45.92
-48.17
-50.79
-53.38
-55.06
-55.02
-52.97
-49.45
-45.47
-41.94
-39.25
-37.28
-35.82
-34.95
-35.12
-36.67
-39.19
-41.34
-41.40
-38.23
-32.21
-25.18
-19.62
-17.32
-18.38
-21.31
-23.96
-24.75
-23.50
-21.10
-18.71
-16.75
-14.78
-11.90
-7.57
-2.06
3.78
9.20
14.13
19.12
24.72
30.75
36.11
39.31
39.44
36.84
32.99
29.60
27.62
26.90
26.57
25.84
24.64
23.64
23.63
24.85
26.83
28.71
29.86
30.28
30.41
30.66
30.90
30.49
28.64
24.97
19.79
14.03
8.95
5.40
3.41
2.29
1.05
-1.06
-4.28
-8.39
-13.00
-17.64
-22.05
-26.19
-30.11
-33.87
-37.53
-41.24
-45.17
-49.29
-52.64
-53.98
-52.45
-48.09
-41.96
-35.79
-31.41
-30.06
-32.00
-35.21
-37.40
-37.24
-34.65
-30.13
-24.05
-16.49
-7.61
2.14
14.69
31.23
51.23
72.62
93.17
111.41
126.47
137.52
143.84
149.60
158.63
172.19
188.34
204.08
217.53
228.65
238.74
249.79
268.89
300.22
342.02
387.15
427.84
459.82
483.07
499.91
477.86
399.53
271.63
123.09
-15.73
-128.16
-210.72
-267.08
-303.62
-327.01
-337.30
-334.27
-320.03
-299.63
-278.46
-260.00
-245.71
-236.00
-230.74
-225.14
-215.27
-200.23
-182.40
-165.05
-150.33
-138.95
-131.03
-126.50
-122.40
-116.35
-107.62
-97.37
-87.21
-78.17
-70.60
-64.71
-60.76
-57.55
-54.17
-50.52
-47.40
-45.54
-44.59
-42.89
-38.19
-28.87
-14.67
2.18
17.79
28.40
32.78
32.90
32.68
35.60
42.79
52.75
62.34
68.68
70.12
66.22
57.08
42.95
24.77
4.23
-15.26
-29.74
-36.24
-34.11
-25.28
-13.11
-0.91
9.16
16.31
20.60
22.23
21.32
18.03
12.99
7.36
2.56
-0.25
-0.71
0.68
2.78
4.35
4.50
2.94
-0.02
-3.80
-7.79
-11.35
-13.77
-14.46
-13.03
-9.43
-4.04
2.59
9.90
17.25
24.15
30.07
34.34
36.39
36.03
33.91
31.39
30.03
30.50
32.72
36.08
40.03
44.55
50.13
57.20
65.60
74.35
81.59
85.92
86.78
84.71
80.80
76.11
71.21
65.71
61.80
59.96
59.86
60.23
58.97
53.70
42.74
26.02
5.37
-15.94
-34.80
-48.90
-57.42
-60.94
-60.88
-58.61
-55.01
-50.38
-44.69
-38.45
-32.47
-27.86
-25.70
-26.71
-30.77
-36.99
-43.97
-50.32
-55.37
-59.16
-62.33
-65.64
-69.49
-73.67
-77.75
-81.07
-83.05
-83.57
-82.86
-81.18
-78.63
-75.14
-70.68
-65.65
-60.49
-55.25
-49.54
-42.48
-33.12
-20.91
-6.12
10.17
26.05
40.34
53.13
65.28
77.38
89.10
99.05
105.44
107.15
103.30
95.68
87.98
83.04
80.81
78.62
72.96
61.30
43.12
17.06
-14.81
-47.72
-77.65
-103.74
-127.67
-151.63
-176.82
-203.03
-233.43
-267.09
-298.78
-323.27
-338.68
-345.95
-346.65
-341.76
-331.77
-323.03
-317.59
-311.79
-301.03
-283.70
-260.93
-234.26
-204.75
-135.97
-28.24
84.47
168.18
213.11
227.02
222.31
209.39
195.63
183.92
168.08
144.84
116.75
88.20
64.26
46.46
34.72
28.35
26.51
24.36
21.48
22.63
33.04
55.18
85.97
118.98
147.48
167.11
174.11
169.88
160.26
151.35
148.16
150.97
156.82
162.45
166.52
168.38
169.21
171.12
175.25
183.33
194.00
203.63
208.94
208.78
203.27
193.25
179.62
147.47
95.72
36.58
-15.89
-55.76
-83.84
-102.81
-114.91
-121.33
-122.71
-117.31
-105.70
-91.47
-78.85
-70.25
-65.69
-63.91
-63.54
-64.12
-64.56
-65.77
-70.17
-79.37
-92.33
-105.61
-114.79
-116.17
-108.15
-90.96
-68.35
-46.83
-32.46
-28.08
-31.84
-39.60
-47.00
-51.44
-51.98
-48.88
-42.64
-32.99
-19.48
-2.78
14.49
28.71
37.07
39.24
37.92
36.65
37.53
40.02
41.76
40.42
35.23
27.02
17.22
7.85
0.27
-5.34
-9.89
-14.54
-19.79
-25.46
-31.31
-38.65
-46.15
-51.25
-50.81
-42.09
-22.62
9.97
57.33
119.08
183.20
232.76
253.52
241.37
201.17
141.93
74.31
9.47
-42.72
-75.81
-87.79
-82.08
-66.29
-48.38
-33.68
-23.61
-16.56
-10.72
-5.47
-0.97
2.95
8.00
17.23
33.59
57.99
88.65
117.29
137.37
147.01
150.17
154.41
166.10
186.68
212.05
235.03
248.95
251.17
242.92
227.42
207.53
184.33
157.68
127.47
94.36
59.16
22.46
-16.25
-57.85
-102.27
-147.47
-189.04
-220.91
-237.18
-234.22
-212.08
-175.27
-131.89
-91.37
-61.59
-46.58
-45.45
-53.18
-62.98
-68.80
-67.65
-59.96
-48.71
-37.60
-29.52
-25.69
-25.75
-28.11
-30.43
-30.49
-27.00
-20.39
-13.03
-8.54
-10.37
-20.39
-37.16
-55.71
-70.36
-76.78
-73.30
-61.24
-43.95
-25.17
-7.95
6.60
19.63
32.70
47.12
63.71
82.43
102.13
120.62
134.29
140.48
139.66
133.02
122.34
109.93
97.64
86.25
75.50
62.04
44.00
24.76
5.16
-16.11
-39.47
-64.33
-89.06
-111.43
-134.72
-159.97
-179.12
-190.86
-199.25
-207.28
-216.73
-228.08
-240.58
-261.17
-291.45
-316.91
-332.74
-342.87
-350.51
-358.23
-367.77
-379.79
-404.85
-445.93
-483.78
-510.14
-526.74
-533.92
-531.90
-521.22
-433.84
-256.81
-106.94
-6.78
71.16
132.58
180.69
218.02
247.06
270.20
278.47
269.02
260.11
258.53
261.05
266.18
272.93
280.18
286.56
282.20
262.76
241.22
222.55
204.89
188.51
175.40
168.77
172.17
182.72
197.96
222.34
251.91
276.97
290.35
288.83
273.39
248.05
215.36
178.76
145.17
117.30
94.48
76.12
61.67
50.46
41.51
32.55
21.87
10.01
-2.48
-14.64
-24.25
-28.70
-26.05
-16.04
-0.42
17.63
34.80
48.90
59.51
67.67
74.76
81.29
86.39
88.20
84.95
76.09
62.86
47.83
33.72
22.18
13.15
5.11
-3.84
-14.83
-27.54
-40.28
-50.82
-57.50
-60.00
-59.48
-57.88
-57.07
-57.97
-60.46
-63.58
-66.20
-67.59
-67.65
-66.74
-65.38
-63.95
-62.55
-61.19
-59.90
-58.94
-58.62
-59.20
-60.65
-62.59
-64.35
-65.28
-64.91
-63.21
-60.48
-57.31
-54.25
-51.64
-49.46
-47.33
-44.58
-40.51
-34.62
-26.87
-17.80
-8.51
-0.41
5.16
7.27
5.83
1.69
-3.47
-7.53
-8.58
-5.60
1.22
10.57
20.36
28.32
32.43
31.38
24.87
13.70
-0.31
-14.77
-27.44
-37.04
-43.64
-48.48
-53.18
-58.77
-65.02
-70.46
-73.18
-71.70
-65.58
-55.56
-43.15
-30.13
-18.29
-9.08
-3.36
-1.05
-1.08
-1.51
-0.17
4.57
13.16
24.84
38.01
50.94
62.38
71.65
78.60
83.20
85.43
85.26
82.71
77.91
71.10
62.52
52.46
41.28
29.47
17.68
6.64
-2.92
-10.46
-15.84
-19.37
-21.68
-23.43
-24.92
-25.90
-25.73
-23.78
-19.82
-14.22
-7.85
-1.72
3.40
7.22
10.03
12.66
16.30
22.25
31.54
44.50
60.40
77.44
93.07
104.77
110.91
111.43
107.91
103.12
100.12
101.26
107.54
118.44
132.20
146.40
158.61
166.86
170.01
167.85
161.04
150.82
138.70
125.98
113.50
101.51
89.54
76.39
60.31
39.54
13.05
-18.57
-52.85
-86.00
-114.19
-135.16
-149.22
-159.15
-168.79
-181.30
-198.02
-218.34
-240.46
-262.23
-281.84
-297.96
-309.73
-316.35
-317.19
-312.05
-301.74
-288.18
-273.90
-260.96
-249.72
-238.95
-226.22
-209.51
-188.51
-164.72
-140.40
-117.57
-97.89
-83.30
-76.82
-80.78
-94.86
-115.09
-134.81
-146.95
-146.95
-134.61
-113.42
-88.90
-63.74
-36.14
-2.47
38.86
85.61
132.39
173.04
203.33
220.41
225.60
223.73
219.57
214.94
208.96
199.41
184.38
163.28
134.62
99.38
61.55
25.35
-6.99
-34.15
-54.98
-68.35
-58.59
-24.64
16.81
48.30
65.08
71.35
73.75
77.06
82.44
88.36
90.07
85.19
75.85
66.36
57.42
50.08
45.04
42.92
44.36
47.97
52.90
59.41
67.01
73.32
75.77
72.89
65.37
55.90
46.79
40.66
40.04
46.08
57.99
74.12
92.73
112.51
132.77
152.68
171.88
190.70
209.52
228.21
246.25
262.53
275.34
282.43
281.03
268.67
243.88
206.38
157.22
99.04
36.13
-25.79
-80.42
-122.28
-148.47
-159.81
-160.68
-157.42
-155.87
-159.36
-167.98
-179.42
-190.64
-199.35
-204.47
-205.76
-203.26
-197.11
-187.73
-176.16
-163.76
-151.58
-139.77
-127.64
-114.26
-99.36
-83.56
-68.03
-53.54
-40.04
-26.74
-13.05
0.77
13.47
23.45
29.92
33.60
36.70
41.90
51.09
64.35
79.69
93.84
103.57
107.10
104.94
99.62
94.48
91.98
92.56
94.52
95.12
92.11
84.96
75.06
64.95
57.03
52.45
50.79
50.45
49.65
47.26
43.26
38.63
34.70
32.38
31.66
31.58
30.91
28.85
25.59
22.15
19.92
19.85
22.10
26.02
30.55
34.67
37.62
39.13
39.41
39.04
38.76
39.21
40.53
42.22
43.12
41.53
35.48
23.25
3.93
-21.91
-51.98
-82.65
-109.88
-130.57
-143.56
-149.88
-151.96
-152.40
-152.52
-151.96
-149.16
-142.52
-131.65
-117.77
-103.33
-90.85
-81.76
-75.75
-70.98
-65.17
-56.80
-45.84
-33.49
-21.14
-9.49
1.57
12.41
22.71
30.90
34.63
31.74
21.53
5.47
-13.14
-30.08
-41.78
-46.48
-44.96
-40.39
-37.58
-41.65
-56.39
-82.69
-117.96
-156.66
-192.01
-218.17
-231.96
-233.78
-227.13
-217.32
-209.44
-206.74
-209.53
-215.44
-220.54
-220.94
-214.50
-201.46
-183.94
-164.58
-144.95
-125.02
-103.90
-81.11
-57.47
-34.70
-13.92
5.70
26.91
52.95
85.31
121.93
157.28
184.48
198.17
196.71
182.22
158.80
130.33
99.12
66.26
32.83
0.75
-27.34
-49.37
-65.41
-78.13
-91.41
-108.12
-128.11
-148.11
-163.46
-170.61
-168.84
-160.21
-147.68
-133.11
-116.48
-96.48
-72.26
-44.68
-16.35
9.71
31.61
49.28
64.03
77.12
88.88
98.80
106.54
112.77
119.34
128.20
140.33
154.99
170.16
183.93
195.52
205.23
213.32
219.01
220.51
216.19
206.28
193.50
182.08
175.53
174.80
177.73
180.52
180.28
176.91
173.13
172.74
178.13
188.80
201.58
212.41
218.47
219.39
217.15
214.79
214.83
218.54
225.74
235.57
247.38
261.35
278.23
298.68
322.45
347.97
372.47
392.92
406.92
413.49
413.31
407.94
398.89
386.69
370.65
349.23
320.88
284.95
242.09
194.15
143.46
92.26
42.03
-6.80
-54.77
-103.09
-153.14
-205.73
-260.81
-317.44
-374.12
-429.43
-482.58
-533.62
-583.22
-632.58
-683.07
-736.06
-792.25
-850.65
-907.70
-957.06
-990.85
-1001.99
-986.77
-946.31
-886.14
-814.06
-737.40
-661.11
-587.45
-516.96
-449.74
-386.31
-327.37
-272.89
-221.40
-170.50
-117.96
-62.87
-6.02
50.60
104.64
154.49
199.88
242.08
283.17
325.31
370.08
417.99
468.24
517.85
561.82
594.32
611.11
610.80
595.50
569.98
539.67
509.46
481.20
453.88
425.19
394.68
363.17
331.90
301.52
271.88
244.28
219.30
196.68
175.36
156.36
140.11
125.92
112.43
98.64
87.24
79.76
75.15
70.04
64.72
59.93
56.61
55.22
55.68
61.00
71.42
83.77
92.64
98.01
100.29
99.91
96.78
68.00
10.67
-56.98
-103.36
-132.17
-149.14
-160.27
-167.08
-171.03
-174.67
-178.17
-183.68
-194.29
-212.47
-233.43
-252.26
-264.99
-269.78
-266.75
-255.03
-236.78
-217.18
-203.05
-186.61
-163.85
-136.27
-109.06
-87.06
-71.58
-62.64
-58.28
-55.53
-50.67
-42.49
-32.46
-23.00
-15.32
-7.18
5.65
28.27
64.25
110.40
157.63
195.14
217.33
225.61
225.28
220.63
213.56
202.70
185.58
160.66
128.99
94.68
62.94
39.61
24.11
15.35
10.82
7.14
1.35
-8.15
-20.45
-32.98
-42.83
-48.19
-48.17
-43.98
-38.50
-32.47
-27.68
-24.96
-24.09
-24.26
-24.77
-24.62
-23.08
-19.58
-13.40
-4.39
7.22
20.22
32.68
42.59
49.18
53.00
55.45
58.05
61.29
65.04
68.81
72.39
76.21
81.06
87.64
96.00
105.68
115.96
126.15
135.11
140.72
140.08
131.13
114.32
93.43
74.46
62.77
60.47
65.28
71.94
75.00
71.39
61.14
46.00
27.36
5.24
-20.83
-50.16
-79.85
-105.56
-123.76
-133.55
-137.30
-139.58
-145.11
-156.93
-174.97
-196.24
-216.16
-230.56
-237.35
-237.16
-232.71
-227.53
-224.63
-225.86
-231.70
-241.44
-253.20
-264.03
-270.24
-268.04
-254.72
-229.49
-193.91
-151.12
-104.95
-59.67
-19.01
13.95
36.90
48.96
51.45
47.92
42.85
39.88
40.31
43.72
48.98
54.50
58.03
56.90
49.21
35.61
20.32
9.18
8.43
21.82
47.96
80.09
109.28
128.83
137.11
137.24
131.62
123.26
115.54
110.78
109.21
110.49
115.47
126.35
145.37
166.84
185.34
199.60
210.41
217.33
219.77
218.79
216.91
216.09
206.06
178.80
135.84
84.55
30.84
-21.80
-70.89
-114.85
-153.82
-202.69
-271.24
-355.16
-442.65
-525.82
-602.49
-673.35
-740.11
-722.24
-591.61
-399.38
-219.79
-86.44
3.14
62.81
105.29
139.06
168.80
183.62
177.47
157.54
137.11
124.26
120.52
124.35
133.54
146.18
150.79
140.97
121.28
101.38
87.22
79.92
78.45
81.37
87.36
88.90
81.54
67.62
52.80
40.80
32.60
28.11
26.94
28.52
28.78
24.80
16.90
7.29
-2.23
-10.58
-16.90
-20.72
-22.00
-22.56
-24.25
-27.73
-32.84
-39.56
-48.14
-58.53
-69.60
-78.54
-81.40
-74.49
-56.44
-29.58
0.54
27.08
44.82
52.11
50.96
45.25
38.56
32.54
26.98
20.94
14.10
7.28
1.79
-1.38
-2.34
-2.13
-2.05
-3.09
-5.09
-7.16
-7.93
-6.35
-2.17
4.05
11.11
17.64
22.65
25.85
27.60
28.62
29.53
30.62
31.73
32.42
32.19
30.82
28.44
25.46
22.43
19.75
17.59
15.82
14.22
12.49
10.44
8.01
5.32
2.48
-0.36
-3.18
-6.03
-8.90
-11.79
-14.75
-17.73
-20.73
-23.75
-26.81
-30.02
-33.47
-37.05
-40.68
-44.37
-48.10
-51.92
-55.89
-60.06
-64.55
-69.49
-74.59
-79.69
-84.73
-89.69
-94.65
-99.78
-105.24
-111.25
-118.02
-125.13
-132.24
-138.99
-145.03
-149.96
-153.28
-154.27
-151.67
-147.64
-142.46
-136.14
-128.57
-119.78
-109.96
-99.55
-89.07
-78.99
-69.58
-60.24
-50.30
-39.18
-26.58
-12.61
2.19
17.11
31.56
45.31
59.02
73.48
89.35
106.82
125.47
144.36
162.42
178.82
193.29
206.37
218.92
231.93
246.38
263.16
282.70
304.53
326.60
345.27
356.18
355.70
342.53
318.52
288.09
256.48
227.72
203.44
183.08
165.05
148.06
131.68
115.98
100.75
85.03
67.38
46.57
22.59
-3.31
-29.15
-53.30
-75.50
-96.81
-118.83
-142.46
-167.08
-190.89
-212.07
-230.12
-245.98
-260.94
-275.15
-287.10
-294.83
-297.91
-298.32
-299.26
-302.60
-306.81
-307.48
-300.19
-283.78
-261.48
-238.73
-219.24
-202.23
-182.97
-156.51
-121.78
-82.79
-46.09
-16.26
7.40
30.31
58.87
95.94
138.70
180.06
212.70
233.09
243.26
249.59
259.58
278.56
308.28
347.70
394.61
446.67
501.05
552.93
594.62
616.47
609.80
570.64
502.21
414.49
321.08
234.64
163.23
109.14
69.99
41.31
18.72
-1.12
-20.57
-41.38
-64.66
-90.33
-116.79
-141.21
-160.45
-172.39
-176.85
-175.43
-170.51
-164.09
-157.18
-149.92
-142.36
-134.94
-128.54
-123.79
-120.55
-117.84
-114.54
-110.36
-106.18
-103.61
-103.83
-106.68
-110.54
-113.24
-113.36
-110.95
-107.26
-103.72
-100.74
-97.39
-91.97
-83.19
-70.94
-56.52
-41.89
-28.77
-18.05
-9.67
-3.05
2.43
7.08
10.84
13.37
14.32
13.54
11.31
8.35
5.62
3.94
3.62
4.28
4.98
4.70
2.85
-0.49
-4.68
-8.89
-12.54
-15.45
-17.78
-19.79
-21.60
-23.15
-24.34
-25.11
-25.64
-26.31
-27.58
-29.70
-32.53
-35.42
-37.39
-37.44
-34.99
-30.16
-23.70
-16.68
-9.97
-4.00
1.33
6.34
11.22
15.84
19.82
22.79
24.61
25.49
25.84
26.09
26.46
26.97
27.50
27.95
28.28
28.58
28.93
29.34
29.69
29.64
28.77
26.69
23.21
18.43
12.74
6.65
0.62
-5.05
-10.29
-15.21
-19.90
-24.31
-28.26
-31.46
-33.64
-34.65
-34.44
-33.09
-30.74
-27.57
-23.84
-19.83
-15.84
-12.15
-8.96
-6.26
-3.90
-1.64
0.67
2.94
4.93
6.32
6.90
6.74
6.12
5.43
4.92
4.60
4.16
3.27
1.67
-0.60
-3.34
-6.31
-9.37
-12.54
-15.82
-19.10
-22.07
-24.41
-25.94
-26.75
-27.23
-27.78
-28.69
-29.92
-31.10
-31.71
-31.24
-29.35
-25.91
-21.01
-14.99
-8.34
-1.68
4.47
9.75
14.12
17.72
20.74
23.25
25.16
26.26
26.48
26.04
25.45
25.32
26.05
27.60
29.43
30.83
31.29
30.72
29.45
27.95
26.55
25.24
23.82
22.03
19.70
16.59
12.31
6.31
-1.79
-11.85
-22.98
-33.66
-42.28
-47.71
-49.67
-48.63
-45.52
-41.14
-36.00
-30.24
-23.78
-16.63
-9.00
-1.38
5.58
11.20
15.03
16.96
17.24
16.40
14.94
13.25
11.53
9.95
8.78
8.41
9.19
11.12
13.64
15.75
16.43
15.15
12.18
8.41
4.87
2.13
0.01
-2.33
-5.92
-11.38
-18.60
-26.85
-35.06
-42.28
-47.89
-51.56
-53.19
-52.70
-50.13
-45.67
-39.73
-32.93
-25.91
-19.15
-12.88
-7.10
-1.65
3.61
8.73
13.65
18.28
22.50
26.24
29.40
31.98
34.02
35.58
36.71
37.36
37.36
36.49
34.67
32.02
28.86
25.61
22.56
19.81
17.32
14.97
12.66
10.33
7.84
4.95
1.33
-3.18
-8.42
-13.84
-18.62
-21.99
-23.50
-23.21
-21.48
-18.86
-15.76
-12.45
-9.06
-5.80
-2.87
-0.45
1.46
3.10
4.78
6.77
9.07
11.48
13.64
15.25
16.26
16.85
17.36
18.12
19.22
20.45
21.38
21.49
20.40
17.99
14.46
10.19
5.60
0.95
-3.66
-8.22
-12.70
-16.97
-20.89
-24.34
-27.37
-30.03
-32.29
-33.89
-34.39
-33.36
-30.61
-26.42
-21.40
-16.30
-11.57
-7.32
-3.30
0.84
5.28
9.94
14.54
18.78
22.49
25.72
28.56
31.11
33.41
35.34
36.80
37.74
38.18
38.30
38.28
38.24
38.13
37.76
36.80
35.01
32.32
28.90
25.07
21.11
17.19
13.29
9.33
5.21
0.95
-3.42
-7.85
-12.39
-17.16
-22.24
-27.58
-32.88
-37.58
-41.03
-42.62
-42.02
-39.25
-34.70
-28.98
-22.77
-16.53
-10.51
-4.71
0.94
6.46
11.74
16.58
20.72
24.00
26.37
27.88
28.65
28.80
28.45
27.72
26.79
25.87
25.16
24.77
24.70
24.80
24.86
24.65
24.00
22.83
21.22
19.29
17.20
15.08
13.01
11.02
9.08
7.16
5.19
3.11
0.87
-1.57
-4.28
-7.32
-10.73
-14.54
-18.65
-22.89
-26.96
-30.43
-32.89
-33.96
-33.47
-31.44
-28.12
-23.88
-19.11
-14.12
-9.16
-4.40
0.02
3.99
7.39
10.15
12.23
13.68
14.61
15.18
15.51
15.75
15.94
16.10
16.18
16.14
15.90
15.47
14.89
14.27
13.71
13.23
12.73
12.08
11.09
9.69
7.93
5.97
3.98
2.10
0.32
-1.41
-3.18
-5.05
-7.01
-9.08
-11.25
-13.58
-16.14
-18.90
-21.79
-24.62
-27.19
-29.27
-30.67
-31.20
-30.62
-28.69
-25.27
-20.36
-14.23
-7.31
-0.14
6.85
13.39
19.40
24.92
30.02
34.76
39.17
43.27
47.05
50.40
53.12
54.97
55.71
55.27
53.73
51.38
48.53
45.54
42.63
39.94
37.43
35.02
32.58
30.06
27.53
25.11
22.94
20.98
19.01
16.61
13.42
9.24
4.21
-1.35
-7.12
-12.95
-18.86
-24.85
-30.75
-36.12
-40.41
-43.25
-44.73
-45.28
-45.42
-45.27
-44.44
-42.22
-38.04
-32.01
-25.00
-18.32
-13.07
-9.75
-8.05
-7.23
-6.65
-6.14
-6.00
-6.65
-8.21
-10.25
-11.94
-12.39
-11.20
-8.64
-5.64
-3.39
-2.87
-4.51
-8.05
-12.71
-17.52
-21.67
-24.68
-26.42
-26.90
-26.21
-24.45
-21.81
-18.69
-15.66
-13.23
-11.61
-10.55
-9.37
-7.32
-3.86
1.10
7.33
14.46
22.21
30.41
38.85
47.10
54.49
60.30
64.03
65.58
65.27
63.67
61.22
58.06
53.95
48.49
41.38
32.63
22.69
12.39
2.74
-5.32
-11.08
-14.27
-15.05
-14.06
-12.20
-10.44
-9.50
-9.71
-10.87
-12.46
-13.92
-14.91
-15.56
-16.36
-17.87
-20.42
-23.89
-27.83
-31.76
-35.51
-39.38
-43.95
-49.52
-55.75
-61.43
-65.04
-65.44
-62.56
-57.50
-51.93
-47.24
-43.89
-41.36
-38.71
-35.35
-31.49
-27.95
-25.67
-25.07
-25.97
-27.92
-30.78
-35.04
-41.71
-51.67
-65.08
-81.07
-97.99
-113.96
-127.57
-138.08
-145.29
-149.19
-149.53
-145.80
-137.51
-124.64
-108.01
-89.18
-70.11
-52.48
-37.27
-24.52
-13.58
-3.56
6.25
16.16
26.07
35.80
45.18
54.27
63.22
72.17
81.14
90.05
98.73
107.06
114.85
121.78
127.35
130.91
131.85
129.91
125.29
118.66
110.96
103.07
95.47
88.04
80.11
70.60
58.34
42.45
22.69
-0.24
-24.64
-48.02
-67.55
-80.83
-86.62
-85.22
-78.42
-69.00
-59.83
-53.10
-49.71
-49.27
-50.42
-51.51
-51.23
-48.95
-44.76
-39.17
-32.79
-26.12
-19.46
-13.14
-7.55
-3.13
-0.11
1.70
2.98
4.62
7.35
11.36
16.23
21.32
26.19
30.92
36.05
42.09
49.03
56.06
61.82
64.97
64.79
61.54
56.35
50.70
45.81
42.20
39.60
37.25
34.30
30.36
25.71
21.25
18.12
17.22
18.72
21.97
25.71
28.58
29.58
28.44
25.51
21.58
17.45
13.68
10.46
7.74
5.33
3.05
0.81
-1.37
-3.34
-4.89
-5.78
-5.82
-4.94
-3.19
-0.72
2.23
5.41
8.52
11.27
13.38
14.65
15.07
14.81
14.19
13.53
12.83
11.70
9.45
5.48
-0.29
-7.24
-14.28
-20.43
-25.36
-29.51
-33.76
-38.71
-44.23
-49.35
-52.75
-53.44
-51.19
-46.63
-40.79
-34.63
-28.86
-23.93
-20.33
-18.68
-19.53
-22.84
-27.52
-31.45
-31.96
-26.83
-15.26
1.59
20.87
39.00
52.88
60.79
62.79
60.27
55.20
49.36
43.87
39.17
35.27
32.06
29.49
27.57
26.18
25.03
23.65
21.67
19.16
16.72
15.24
15.35
16.81
18.38
18.32
15.34
9.42
2.02
-4.60
-8.47
-8.82
-6.37
-2.73
0.49
2.49
3.45
4.10
5.16
6.91
9.18
11.59
13.92
16.21
18.65
21.32
24.01
26.07
26.69
25.19
21.40
15.88
9.76
4.25
0.22
-2.15
-3.30
-3.94
-4.62
-5.43
-6.04
-5.97
-4.89
-2.84
-0.23
2.38
4.50
5.88
6.58
6.77
6.65
6.32
5.80
5.05
4.06
2.87
1.56
0.14
-1.46
-3.30
-5.34
-7.44
-9.36
-10.92
-12.11
-13.14
-14.34
-16.10
-18.62
-21.93
-25.84
-30.05
-34.17
-37.91
-41.07
-43.56
-45.39
-46.67
-47.55
-48.13
-48.47
-48.60
-48.48
-48.14
-47.59
-46.83
-45.77
-44.23
-41.91
-38.57
-34.14
-28.82
-22.97
-17.08
-11.58
-6.78
-2.87
0.06
1.98
2.97
3.22
3.05
2.82
2.80
3.04
3.41
3.68
3.66
3.36
2.95
2.68
2.72
3.05
3.46
3.66
3.35
2.39
0.78
-1.41
-4.04
-6.98
-10.05
-13.01
-15.62
-17.71
-19.25
-20.37
-21.25
-22.00
-22.52
-22.52
-21.66
-19.72
-16.71
-12.89
-8.63
-4.28
-0.12
3.61
6.75
9.12
10.64
11.39
11.65
11.81
12.24
13.08
14.17
15.12
15.51
15.06
13.79
11.94
9.85
7.77
5.88
4.22
2.90
1.96
1.44
1.20
0.92
0.17
-1.48
-4.25
-8.07
-12.58
-17.15
-21.05
-23.62
-24.38
-23.18
-20.20
-15.94
-11.01
-5.94
-1.04
3.58
7.89
11.79
15.04
17.37
18.62
18.89
18.55
18.11
18.05
18.67
19.95
21.63
23.23
24.23
24.15
22.68
19.80
15.85
11.45
7.37
4.26
2.43
1.76
1.82
2.07
2.11
1.78
1.07
-0.03
-1.67
-4.17
-7.86
-12.88
-18.99
-25.60
-31.83
-36.73
-39.55
-39.84
-37.65
-33.43
-27.99
-22.23
-16.88
-12.32
-8.59
-5.51
-2.95
-0.93
0.38
0.90
0.80
0.53
0.72
1.86
4.09
7.09
10.20
12.73
14.17
14.38
13.52
12.00
10.27
8.75
7.75
7.43
7.82
8.80
10.07
11.27
11.99
11.92
10.93
9.09
6.59
3.59
0.19
-3.71
-8.24
-13.49
-19.30
-25.18
-30.44
-34.32
-36.26
-36.04
-33.78
-29.80
-24.52
-18.28
-11.50
-4.67
1.50
6.27
9.11
9.99
9.45
8.37
7.66
7.79
8.75
10.11
11.42
12.46
13.39
14.54
16.17
18.20
20.18
21.49
21.65
20.49
18.22
15.23
11.85
8.26
4.54
0.78
-2.78
-5.73
-7.74
-8.76
-9.19
-9.77
-11.38
-14.69
-19.89
-26.65
-34.21
-41.58
-47.80
-52.07
-53.84
-52.88
-49.19
-43.17
-35.48
-27.03
-18.72
-11.19
-4.62
1.20
6.67
12.02
17.08
21.40
24.48
26.08
26.33
25.54
23.99
21.74
18.71
14.94
10.82
7.06
4.47
3.54
4.15
5.57
6.73
6.66
4.84
1.32
-3.40
-8.62
-13.77
-18.49
-22.64
-26.19
-29.11
-31.32
-32.73
-33.19
-32.60
-30.77
-27.55
-22.83
-16.72
-9.58
-2.01
5.25
11.54
16.46
19.93
22.15
23.46
24.18
24.57
24.76
24.77
24.62
24.35
24.04
23.77
23.59
23.49
23.38
23.10
22.45
21.26
19.40
16.85
13.74
10.37
7.25
4.95
3.96
4.50
6.35
8.84
10.95
11.68
10.40
7.18
2.85
-1.33
-4.13
-4.79
-3.26
-0.07
3.97
8.17
12.16
15.88
19.49
23.13
26.83
30.45
33.67
36.11
37.43
37.51
36.54
35.00
33.48
32.39
31.78
31.35
30.63
29.26
27.18
24.59
21.75
18.75
15.46
11.61
7.01
1.75
-3.80
-9.01
-13.31
-16.34
-18.08
-18.82
-19.01
-19.17
-19.74
-20.98
-23.00
-25.64
-28.55
-31.25
-33.23
-34.10
-33.66
-31.89
-28.92
-24.96
-20.23
-15.05
-9.78
-4.83
-0.61
2.62
4.84
6.24
7.12
7.68
8.05
8.23
8.29
8.34
8.57
9.06
9.77
10.49
11.00
11.15
10.97
10.57
10.05
9.42
8.63
7.65
6.49
5.23
3.91
2.44
0.68
-1.56
-4.35
-7.65
-11.30
-15.12
-18.99
-22.81
-26.43
-29.57
-31.83
-32.83
-32.32
-30.32
-27.08
-23.02
-18.53
-13.86
-9.12
-4.39
0.16
4.24
7.52
9.81
11.12
11.74
12.04
12.37
12.90
13.68
14.60
15.54
16.36
16.95
17.17
16.94
16.23
15.08
13.56
11.77
9.72
7.43
4.97
2.41
-0.10
-2.47
-4.66
-6.76
-8.91
-11.23
-13.82
-16.69
-19.81
-23.06
-26.20
-28.87
-30.63
-31.06
-29.98
-27.46
-23.78
-19.32
-14.35
-9.00
-3.36
2.42
8.06
13.18
17.48
20.81
23.25
24.98
26.14
26.74
26.74
26.18
25.22
24.10
23.08
22.29
21.73
21.31
20.93
20.53
20.06
19.47
18.70
17.69
16.39
14.78
12.80
10.41
7.61
4.48
1.21
-1.93
-4.71
-7.01
-8.91
-10.65
-12.56
-14.96
-18.07
-21.96
-26.48
-31.23
-35.65
-39.10
-40.97
-40.85
-38.61
-34.39
-28.59
-21.80
-14.72
-7.99
-2.09
2.79
6.73
9.98
12.80
15.32
17.54
19.34
20.61
21.32
21.53
21.41
21.14
20.90
20.82
20.94
21.26
21.69
22.13
22.45
22.53
22.30
21.72
20.88
19.98
19.30
19.07
19.36
19.93
20.24
19.64
17.65
14.22
9.71
4.73
-0.14
-4.55
-8.49
-12.10
-15.55
-18.94
-22.28
-25.53
-28.58
-31.26
-33.24
-34.09
-33.38
-30.92
-26.84
-21.58
-15.76
-9.96
-4.57
0.23
4.42
8.07
11.27
14.14
16.80
19.38
21.94
24.44
26.71
28.50
29.50
29.49
28.37
26.28
23.53
20.54
17.70
15.32
13.54
12.40
11.79
11.50
11.25
10.71
9.60
7.79
5.37
2.64
0.04
-2.03
-3.33
-3.83
-3.70
-3.24
-2.82
-2.91
-3.99
-6.47
-10.53
-15.93
-22.00
-27.80
-32.37
-35.09
-35.86
-35.02
-33.21
-30.96
-28.56
-25.94
-22.82
-18.97
-14.38
-9.38
-4.46
-0.10
3.50
6.49
9.19
11.90
14.61
17.00
18.56
18.94
18.18
16.77
15.45
14.86
15.22
16.29
17.51
18.34
18.53
18.18
17.53
16.76
15.80
14.36
12.17
9.19
5.69
2.15
-0.99
-3.47
-5.26
-6.54
-7.48
-8.29
-9.16
-10.33
-11.98
-14.14
-16.54
-18.67
-19.92
-19.82
-18.19
-15.21
-11.28
-6.86
-2.36
2.00
6.11
9.94
13.46
16.56
19.05
20.68
21.27
20.80
19.46
17.61
15.62
13.75
12.08
10.56
9.12
7.82
6.80
6.19
5.98
5.94
5.70
4.91
3.43
1.36
-1.01
-3.42
-5.72
-7.94
-10.18
-12.50
-14.86
-17.17
-19.37
-21.48
-23.60
-25.76
-27.92
-29.88
-31.39
-32.15
-31.89
-30.37
-27.51
-23.48
-18.72
-13.89
-9.59
-6.18
-3.57
-1.40
0.73
2.96
5.13
6.88
7.89
8.12
7.78
7.21
6.66
6.17
5.60
4.78
3.66
2.38
1.22
0.43
0.11
0.14
0.27
0.27
0.07
-0.26
-0.56
-0.84
-1.33
-2.33
-4.07
-6.47
-9.15
-11.62
-13.60
-15.10
-16.34
-17.48
-18.43
-18.80
-18.13
-16.13
-12.87
-8.78
-4.39
-0.20
3.51
6.61
9.06
10.84
11.96
12.50
12.65
12.65
12.71
12.99
13.50
14.14
14.70
14.93
14.57
13.47
11.70
9.56
7.56
6.11
5.36
5.07
4.71
3.77
2.04
-0.31
-2.83
-5.06
-6.82
-8.26
-9.74
-11.59
-13.96
-16.71
-19.50
-21.86
-23.35
-23.63
-22.55
-20.17
-16.77
-12.74
-8.43
-4.11
0.11
4.14
7.89
11.15
13.71
15.40
16.25
16.47
16.40
16.31
16.34
16.42
16.37
16.00
15.25
14.20
13.09
12.19
11.64
11.44
11.39
11.20
10.61
9.49
7.87
5.92
3.86
1.88
0.07
-1.55
-3.06
-4.54
-6.15
-8.05
-10.34
-12.94
-15.52
-17.59
-18.61
-18.20
-16.32
-13.24
-9.40
-5.27
-1.21
2.52
5.76
8.45
10.53
12.05
13.11
13.81
14.23
14.39
14.28
13.88
13.26
12.52
11.80
11.22
10.83
10.64
10.61
10.66
10.67
10.53
10.12
9.31
8.07
6.43
4.52
2.54
0.71
-0.82
-2.04
-3.08
-4.12
-5.40
-7.03
-9.03
-11.30
-13.61
-15.65
-17.10
-17.65
-17.13
-15.55
-13.05
-9.87
-6.27
-2.49
1.29
4.87
8.02
10.54
12.26
13.14
13.26
12.85
12.16
11.42
10.77
10.32
10.09
10.06
10.15
10.25
10.25
10.03
9.58
8.92
8.12
7.26
6.35
5.34
4.17
2.80
1.32
-0.08
-1.24
-2.07
-2.65
-3.22
-4.05
-5.35
-7.13
-9.20
-11.29
-13.07
-14.32
-14.87
-14.63
-13.55
-11.61
-8.93
-5.71
-2.25
1.09
4.05
6.43
8.17
9.31
9.91
10.02
9.70
9.02
8.09
7.04
6.02
5.15
4.47
3.96
3.53
3.10
2.57
1.89
1.02
-0.02
-1.16
-2.33
-3.51
-4.69
-5.86
-6.99
-8.02
-8.88
-9.58
-10.27
-11.15
-12.40
-14.01
-15.80
-17.40
-18.46
-18.73
-18.13
-16.70
-14.57
-11.88
-8.81
-5.56
-2.31
0.79
3.65
6.14
8.07
9.25
9.52
8.97
7.91
6.74
5.85
5.43
5.47
5.81
6.34
6.99
7.79
8.67
9.56
10.27
10.66
10.66
10.24
9.45
8.28
6.79
5.04
3.15
1.28
-0.48
-2.15
-3.88
-5.85
-8.20
-10.77
-13.26
-15.19
-16.18
-16.07
-14.98
-13.24
-11.20
-9.15
-7.20
-5.32
-3.44
-1.48
0.59
2.78
5.00
7.13
8.99
10.37
11.07
11.02
10.28
9.03
7.53
6.02
4.68
3.59
2.81
2.37
2.29
2.56
3.06
3.56
3.72
3.25
2.01
0.05
-2.37
-4.90
-7.25
-9.25
-10.88
-12.18
-13.15
-13.71
-13.72
-13.05
-11.69
-9.71
-7.28
-4.51
-1.45
1.86
5.26
8.43
10.88
12.17
12.06
10.77
8.84
6.94
5.49
4.50
3.64
2.51
1.08
-0.22
-0.65
0.36
2.74
5.65
7.73
7.76
5.19
0.44
-5.37
-11.00
-15.66
-19.28
-22.36
-25.51
-29.06
-32.87
-36.43
-39.21
-40.89
-41.39
-40.73
-38.82
-35.43
-30.44
-24.12
-17.30
-11.21
-6.91
-4.74
-4.03
-3.39
-1.43
2.50
7.99
13.90
18.98
22.59
24.82
26.30
27.62
28.93
29.87
29.88
28.60
26.14
23.01
19.93
17.42
15.63
14.29
12.90
10.88
7.81
3.52
-1.80
-7.66
-13.26
-17.64
-19.96
-19.72
-16.99
-12.41
-6.95
-1.58
3.00
6.48
8.81
10.10
10.49
10.17
9.42
8.61
8.10
8.06
8.40
8.83
9.08
9.00
8.69
8.35
8.14
8.00
7.74
7.14
6.07
4.59
2.85
1.00
-0.93
-2.99
-5.26
-7.76
-10.36
-12.76
-14.63
-15.65
-15.64
-14.61
-12.71
-10.14
-7.13
-3.87
-0.53
2.72
5.72
8.31
10.35
11.66
12.07
11.41
9.64
6.99
3.94
1.17
-0.71
-1.39
-0.98
0.06
1.19
1.94
2.11
1.63
0.57
-1.00
-2.95
-5.06
-6.95
-8.24
-8.71
-8.48
-8.05
-8.12
-9.27
-11.65
-14.87
-18.12
-20.42
-20.98
-19.41
-15.82
-10.71
-4.78
1.23
6.69
11.20
14.60
16.95
18.43
19.27
19.67
19.76
19.57
19.15
18.54
17.83
17.20
16.86
16.98
17.56
18.39
19.09
19.26
18.63
17.22
15.30
13.27
11.49
10.12
9.16
8.48
7.84
6.95
5.48
3.19
0.13
-3.23
-6.05
-7.43
-6.80
-4.27
-0.63
2.97
5.58
6.79
6.84
6.33
5.78
5.44
5.26
5.12
5.18
5.79
7.31
9.74
12.48
14.56
15.05
13.57
10.53
6.94
3.89
2.04
1.31
1.04
0.42
-1.03
-3.27
-5.82
-8.12
-9.80
-10.89
-11.62
-12.27
-12.93
-13.42
-13.43
-12.65
-10.94
-8.38
-5.18
-1.58
2.18
5.85
9.14
11.69
13.20
13.61
13.29
12.99
13.49
15.11
17.25
18.42
16.74
10.77
0.41
-12.89
-26.56
-37.93
-45.25
-48.20
-47.66
-44.95
-41.16
-36.75
-31.87
-26.77
-22.00
-18.38
-16.58
-16.71
-18.26
-20.29
-21.84
-22.33
-21.69
-20.29
-18.82
-18.13
-18.97
-21.74
-26.24
-31.62
-36.58
-39.89
-40.85
-39.60
-36.85
-33.50
-30.13
-26.82
-23.33
-19.44
-15.15
-10.78
-6.74
-3.43
-1.16
-0.19
-0.75
-2.94
-6.58
-11.05
-15.47
-18.95
-20.99
-21.60
-21.22
-20.37
-19.45
-18.61
-17.94
-17.59
-17.80
-18.77
-20.45
-22.36
-23.74
-23.79
-22.04
-18.57
-13.96
-9.06
-4.54
-0.68
2.73
6.18
10.18
14.97
20.55
26.64
32.90
39.07
44.97
50.58
55.91
61.03
65.97
70.73
75.18
79.04
81.79
82.76
81.26
76.78
69.26
59.26
47.90
36.70
27.07
19.89
15.17
12.11
9.42
5.84
0.58
-6.46
-14.75
-23.52
-32.08
-40.01
-47.11
-53.26
-58.22
-61.70
-63.50
-63.75
-62.93
-61.72
-60.56
-59.45
-57.85
-55.05
-50.46
-44.01
-36.13
-27.53
-18.89
-10.71
-3.19
3.59
9.58
14.68
18.80
21.92
24.12
25.57
26.46
26.91
26.94
26.57
25.86
24.94
24.01
23.22
22.53
21.72
20.42
18.30
15.22
11.34
7.03
2.73
-1.23
-4.72
-7.75
-10.38
-12.59
-14.21
-15.00
-14.64
-12.96
-9.99
-5.99
-1.46
2.98
6.70
9.26
10.49
10.54
9.85
8.99
8.44
8.41
8.78
9.16
9.06
8.18
6.44
4.04
1.30
-1.45
-4.01
-6.28
-8.24
-9.93
-11.37
-12.59
-13.61
-14.49
-15.31
-16.23
-17.43
-18.96
-20.68
-22.16
-22.81
-22.06
-19.65
-15.74
-10.86
-5.68
-0.67
4.03
8.56
13.12
17.73
22.13
25.87
28.47
29.64
29.34
27.70
24.87
20.88
15.60
8.90
0.94
-7.68
-15.98
-22.88
-27.64
-30.11
-30.65
-29.81
-27.93
-24.93
-20.50
-14.46
-7.11
0.77
8.17
14.32
18.80
21.48
22.27
21.04
17.81
13.04
7.84
3.59
1.44
1.69
3.68
6.15
7.95
8.60
8.33
7.67
6.87
5.69
3.52
-0.06
-4.96
-10.43
-15.40
-18.99
-20.78
-20.85
-19.49
-16.93
-13.21
-8.25
-2.13
4.78
11.69
17.58
21.53
22.94
21.88
19.07
15.66
12.70
10.74
9.62
8.64
7.08
4.66
1.72
-0.93
-2.51
-2.61
-1.47
0.25
1.79
2.66
2.76
2.35
1.72
1.03
0.24
-0.84
-2.31
-4.07
-5.80
-7.10
-7.75
-7.84
-7.70
-7.65
-7.67
-7.35
-6.14
-3.69
-0.27
3.31
5.89
6.56
5.02
1.73
-2.24
-5.65
-7.52
-7.43
-5.63
-2.87
-0.12
1.74
2.19
1.15
-1.02
-3.75
-6.50
-8.98
-11.24
-13.49
-15.89
-18.25
-20.04
-20.57
-19.34
-16.41
-12.38
-8.21
-4.73
-2.26
-0.51
1.24
3.73
7.30
11.75
16.39
20.39
22.98
23.75
22.68
20.14
16.80
13.58
11.38
10.85
12.14
14.77
17.78
19.98
20.45
18.81
15.30
10.58
5.42
0.49
-3.78
-7.06
-9.23
-10.31
-10.66
-10.89
-11.63
-13.17
-15.21
-16.96
-17.47
-16.14
-13.05
-8.91
-4.65
-1.05
1.59
3.38
4.65
5.65
6.47
7.04
7.30
7.27
7.05
6.76
6.46
6.11
5.64
4.96
4.03
2.85
1.55
0.31
-0.66
-1.20
-1.35
-1.35
-1.63
-2.61
-4.55
-7.48
-11.21
-15.40
-19.67
-23.64
-26.90
-29.02
-29.67
-28.72
-26.25
-22.62
-18.28
-13.64
-9.04
-4.75
-0.99
2.03
4.23
5.68
6.69
7.65
8.89
10.49
12.28
13.94
15.20
15.92
16.20
16.22
16.17
16.17
16.24
16.39
16.58
16.77
16.88
16.74
16.17
14.94
12.91
10.03
6.42
2.34
-1.77
-5.37
-7.87
-8.84
-8.06
-5.67
-2.10
2.04
6.06
9.44
11.85
13.23
13.75
13.66
13.24
12.63
11.86
10.85
9.48
7.78
5.88
4.04
2.46
1.21
0.12
-1.06
-2.58
-4.47
-6.51
-8.37
-9.75
-10.59
-11.04
-11.35
-11.71
-12.17
-12.68
-13.26
-14.04
-15.26
-17.07
-19.39
-21.80
-23.68
-24.48
-23.90
-22.03
-19.24
-15.89
-12.23
-8.24
-3.91
0.66
5.13
8.93
11.58
12.92
13.14
12.73
12.16
11.70
11.34
10.89
10.23
9.39
8.53
7.87
7.46
7.15
6.70
5.88
4.61
3.03
1.34
-0.23
-1.65
-3.02
-4.50
-6.21
-8.09
-9.81
-10.96
-11.15
-10.16
-8.09
-5.20
-1.89
1.52
4.82
7.94
10.87
13.54
15.80
17.43
18.25
18.19
17.37
16.06
14.70
13.77
13.75
15.02
17.71
21.64
26.26
30.72
34.15
35.95
35.99
34.72
32.90
31.31
30.34
29.98
29.94
29.96
30.03
30.36
31.20
32.64
34.52
36.52
38.43
40.21
41.92
43.58
44.95
45.67
45.36
43.94
41.67
39.08
36.67
34.69
33.08
31.55
29.78
27.56
24.80
21.53
17.79
13.64
9.23
4.78
0.62
-2.95
-5.73
-7.69
-8.99
-9.93
-10.88
-12.20
-14.18
-16.98
-20.54
-24.48
-28.16
-30.81
-31.82
-30.95
-28.55
-25.33
-22.16
-19.63
-17.81
-16.25
-14.32
-11.56
-8.09
-4.65
-2.33
-2.17
-4.62
-9.35
-15.37
-21.42
-26.36
-29.51
-30.68
-30.10
-28.29
-25.98
-24.01
-23.18
-23.97
-26.35
-29.73
-33.20
-35.89
-37.40
-37.84
-37.76
-37.70
-38.01
-38.68
-39.48
-40.12
-40.36
-39.93
-38.55
-35.93
-31.91
-26.63
-20.56
-14.47
-9.11
-4.99
-2.26
-0.71
0.01
0.27
0.30
0.23
0.10
-0.08
-0.34
-0.68
-1.08
-1.47
-1.72
-1.75
-1.57
-1.33
-1.25
-1.48
-2.08
-2.98
-4.10
-5.40
-6.94
-8.73
-10.71
-12.68
-14.41
-15.84
-17.08
-18.45
-20.24
-22.61
-25.46
-28.47
-31.22
-33.24
-34.11
-33.55
-31.44
-27.94
-23.44
-18.52
-13.76
-9.57
-6.11
-3.33
-1.08
0.73
2.06
2.81
2.89
2.42
1.69
1.14
1.13
1.78
2.89
3.97
4.55
4.34
3.39
2.11
1.11
1.07
2.65
6.32
12.26
20.25
29.57
39.09
47.54
53.88
57.51
58.42
56.97
53.70
49.14
43.70
37.75
31.67
25.87
20.69
16.52
13.74
12.74
13.81
16.89
21.40
26.23
29.96
31.39
29.95
25.85
20.01
13.54
7.39
2.09
-2.19
-5.50
-7.83
-9.15
-9.48
-9.02
-8.22
-7.64
-7.70
-8.51
-9.71
-10.72
-10.99
-10.30
-8.90
-7.35
-6.22
-5.84
-6.18
-6.94
-7.71
-8.24
-8.50
-8.66
-9.03
-9.87
-11.35
-13.45
-15.99
-18.62
-20.93
-22.45
-22.77
-21.63
-18.95
-14.94
-10.04
-4.92
-0.27
3.38
5.82
7.23
8.05
8.76
9.58
10.47
11.18
11.45
11.26
10.80
10.35
10.08
9.85
9.35
8.25
6.52
4.48
2.67
1.59
1.37
1.73
2.13
2.08
1.38
0.19
-1.13
-2.26
-3.08
-3.67
-4.24
-4.97
-5.99
-7.32
-8.93
-10.70
-12.35
-13.52
-13.84
-13.08
-11.33
-8.91
-6.23
-3.64
-1.24
1.07
3.46
6.01
8.60
11.00
12.94
14.26
15.00
15.39
15.72
16.17
16.76
17.25
17.28
16.51
14.81
12.35
9.52
6.72
4.24
2.09
0.05
-2.11
-4.55
-7.22
-9.96
-12.64
-15.22
-17.80
-20.42
-22.99
-25.17
-26.58
-26.94
-26.29
-24.87
-22.91
-20.41
-17.13
-12.77
-7.33
-1.29
4.46
9.05
11.94
13.17
13.17
12.52
11.59
10.54
9.40
8.23
7.15
6.29
5.66
5.05
4.12
2.60
0.36
-2.45
-5.57
-8.71
-11.67
-14.37
-16.83
-19.12
-21.29
-23.47
-25.78
-28.37
-31.39
-34.88
-38.74
-42.77
-46.70
-50.30
-53.40
-55.78
-57.09
-56.81
-54.30
-49.01
-40.77
-29.88
-17.11
-3.49
9.97
22.44
33.39
42.49
49.59
54.60
57.55
58.59
58.06
56.44
54.24
51.94
49.82
47.99
46.41
44.88
43.17
41.05
38.37
35.09
31.31
27.25
23.17
19.31
15.82
12.82
10.38
8.54
7.27
6.43
5.78
5.05
4.00
2.57
0.81
-1.19
-3.35
-5.64
-7.99
-10.25
-12.13
-13.23
-13.17
-11.82
-9.27
-5.88
-2.09
1.66
5.10
8.07
10.53
12.46
13.84
14.66
14.96
14.84
14.47
14.05
13.72
13.50
13.31
13.03
12.56
11.94
11.31
10.84
10.69
10.87
11.26
11.66
11.83
11.60
10.85
9.56
7.80
5.71
3.53
1.57
0.13
-0.64
-0.78
-0.57
-0.42
-0.67
-1.47
-2.72
-4.12
-5.32
-6.07
-6.28
-5.99
-5.32
-4.36
-3.11
-1.55
0.36
2.54
4.76
6.68
7.91
8.20
7.53
6.12
4.40
2.76
1.45
0.45
-0.42
-1.40
-2.55
-3.76
-4.73
-5.21
-5.10
-4.64
-4.23
-4.32
-5.09
-6.37
-7.73
-8.64
-8.82
-8.35
-7.66
-7.32
-7.79
-9.18
-11.25
-13.40
-14.95
-15.34
-14.32
-12.02
-8.85
-5.39
-2.19
0.32
1.92
2.60
2.51
1.98
1.37
1.06
1.31
2.13
3.37
4.74
5.95
6.86
7.43
7.74
7.86
7.87
7.86
7.90
8.09
8.41
8.80
9.06
8.97
8.35
7.08
5.14
2.64
-0.23
-3.19
-5.94
-8.27
-10.12
-11.66
-13.12
-14.64
-16.20
-17.57
-18.46
-18.67
-18.18
-17.09
-15.54
-13.52
-10.97
-7.81
-4.16
-0.33
3.18
5.92
7.64
8.40
8.50
8.28
7.97
7.60
7.07
6.30
5.38
4.61
4.35
4.79
5.83
7.06
8.01
8.31
7.87
6.82
5.39
3.73
1.87
-0.17
-2.35
-4.51
-6.49
-8.14
-9.45
-10.49
-11.36
-12.15
-12.88
-13.54
-14.02
-14.19
-13.91
-13.07
-11.65
-9.76
-7.60
-5.33
-3.11
-0.97
1.08
3.02
4.82
6.41
7.75
8.79
9.58
10.10
10.37
10.36
10.04
9.41
8.50
7.40
6.26
5.22
4.42
3.94
3.76
3.75
3.75
3.59
3.16
2.49
1.66
0.80
-0.03
-0.80
-1.57
-2.33
-3.01
-3.53
-3.81
-3.91
-4.06
-4.58
-5.70
-7.41
-9.31
-10.73
-11.00
-9.77
-7.16
-3.72
-0.20
2.83
5.18
7.00
8.58
10.11
11.56
12.71
13.37
13.50
13.21
12.71
12.11
11.38
10.48
9.50
8.65
8.22
8.31
8.72
8.93
8.36
6.74
4.34
1.85
0.08
-0.48
0.05
1.06
1.74
1.61
0.69
-0.57
-1.62
-2.23
-2.60
-3.21
-4.53
-6.68
-9.37
-12.10
-14.38
-15.97
-16.83
-17.03
-16.54
-15.27
-13.12
-10.19
-6.80
-3.41
-0.43
1.91
3.61
4.79
5.59
6.15
6.56
6.89
7.19
7.43
7.46
7.07
6.13
4.66
2.92
1.29
0.15
-0.30
-0.10
0.57
1.41
2.14
2.53
2.43
1.76
0.57
-1.01
-2.73
-4.40
-5.90
-7.24
-8.52
-9.79
-10.95
-11.81
-12.13
-11.77
-10.79
-9.36
-7.71
-5.98
-4.19
-2.35
-0.56
1.03
2.19
2.86
3.15
3.31
3.61
4.10
4.65
5.06
5.15
4.98
4.76
4.73
4.98
5.43
5.88
6.13
6.08
5.72
5.10
4.25
3.16
1.86
0.39
-1.18
-2.84
-4.65
-6.68
-8.97
-11.39
-13.68
-15.48
-16.45
-16.43
-15.47
-13.76
-11.56
-9.06
-6.39
-3.63
-0.81
2.00
4.72
7.27
9.57
11.56
13.18
14.36
15.06
15.32
15.25
15.02
14.74
14.44
14.03
13.38
12.43
11.22
9.89
8.61
7.44
6.32
5.12
3.76
2.25
0.72
-0.73
-2.07
-3.40
-4.86
-6.50
-8.26
-9.95
-11.39
-12.48
-13.29
-13.95
-14.52
-14.90
-14.86
-14.16
-12.68
-10.59
-8.20
-5.88
-3.89
-2.26
-0.88
0.41
1.68
2.87
3.84
4.48
4.78
4.86
4.91
5.09
5.40
5.68
5.64
5.09
4.03
2.71
1.53
0.81
0.66
0.87
1.10
1.00
0.41
-0.62
-1.89
-3.26
-4.60
-5.96
-7.33
-8.74
-10.15
-11.50
-12.77
-13.91
-14.74
-14.98
-14.30
-12.51
-9.79
-6.62
-3.61
-1.25
0.33
1.34
2.13
2.95
3.82
4.58
5.02
4.98
4.48
3.67
2.72
1.85
1.20
0.87
0.86
1.06
1.27
1.33
1.14
0.67
0.01
-0.78
-1.65
-2.55
-3.37
-3.99
-4.31
-4.37
-4.35
-4.53
-5.19
-6.43
-8.10
-9.86
-11.27
-11.95
-11.72
-10.68
-9.11
-7.35
-5.65
-4.12
-2.71
-1.34
0.04
1.35
2.45
3.22
3.62
3.79
3.93
4.23
4.79
5.53
6.27
6.80
7.02
6.93
6.67
6.41
6.19
6.00
5.73
5.33
4.86
4.44
4.15
3.95
3.68
3.14
2.32
1.36
0.53
-0.00
-0.30
-0.64
-1.26
-2.22
-3.21
-3.78
-3.63
-2.78
-1.55
-0.30
0.91
2.40
4.68
8.08
12.45
17.19
21.44
24.53
26.18
26.48
25.84
24.65
23.26
21.90
20.79
20.06
19.78
19.86
20.05
20.06
19.56
18.36
16.39
13.67
10.32
6.46
2.29
-1.86
-5.57
-8.40
-10.03
-10.48
-10.17
-9.78
-10.06
-11.50
-14.15
-17.58
-21.13
-24.14
-26.17
-27.12
-27.13
-26.38
-24.94
-22.79
-19.85
-16.21
-12.23
-8.49
-5.59
-3.88
-3.22
-3.09
-2.78
-1.79
-0.06
2.00
3.81
4.97
5.45
5.61
5.95
6.76
8.01
9.31
10.19
10.34
9.74
8.71
7.70
7.20
7.54
8.79
10.70
12.72
14.05
13.91
11.80
7.75
2.34
-3.41
-8.39
-11.75
-13.08
-12.50
-10.44
-7.53
-4.36
-1.48
0.74
2.11
2.61
2.46
1.99
1.56
1.40
1.52
1.75
1.79
1.36
0.32
-1.29
-3.25
-5.28
-7.09
-8.52
-9.55
-10.29
-10.92
-11.63
-12.52
-13.58
-14.69
-15.69
-16.42
-16.85
-17.07
-17.22
-17.47
-17.88
-18.39
-18.75
-18.65
-17.77
-15.98
-13.36
-10.22
-7.01
-4.11
-1.72
0.15
1.62
2.77
3.64
4.20
4.43
4.40
4.21
3.96
3.68
3.33
2.89
2.40
1.97
1.81
2.05
2.73
3.77
4.99
6.21
7.35
8.39
9.37
10.34
11.31
12.25
13.06
13.60
13.71
13.29
12.31
10.97
9.63
8.75
8.68
9.52
11.06
12.89
14.54
15.70
16.30
16.43
16.21
15.72
14.97
13.98
12.82
11.62
10.49
9.45
8.44
7.37
6.19
4.90
3.57
2.27
1.04
-0.12
-1.12
-1.89
-2.38
-2.62
-2.83
-3.25
-4.10
-5.40
-6.91
-8.27
-9.15
-9.39
-9.08
-8.49
-7.89
-7.43
-7.13
-6.89
-6.56
-6.05
-5.28
-4.20
-2.76
-0.96
1.17
3.51
5.88
8.06
9.89
11.30
12.34
13.06
13.47
13.53
13.20
12.45
11.39
10.16
8.94
7.86
6.97
6.28
5.75
5.34
4.98
4.55
3.91
2.89
1.46
-0.28
-2.09
-3.68
-4.83
-5.51
-5.89
-6.25
-6.92
-8.06
-9.66
-11.51
-13.26
-14.55
-15.08
-14.68
-13.36
-11.32
-8.91
-6.54
-4.61
-3.31
-2.61
-2.25
-1.93
-1.43
-0.71
0.12
0.93
1.66
2.40
3.22
4.17
5.12
5.81
6.04
5.76
5.11
4.42
3.95
3.83
3.93
3.98
3.72
3.10
2.26
1.39
0.60
-0.20
-1.27
-2.85
-5.00
-7.56
-10.24
-12.73
-14.82
-16.35
-17.13
-16.86
-15.28
-12.26
-8.02
-3.16
1.54
5.30
7.71
8.76
8.83
8.43
8.01
7.78
7.74
7.80
7.82
7.73
7.50
7.13
6.65
6.15
5.80
5.75
6.05
6.53
6.84
6.60
5.64
4.06
2.25
0.65
-0.43
-0.88
-0.84
-0.60
-0.43
-0.54
-1.08
-2.05
-3.34
-4.70
-5.82
-6.33
-5.93
-4.42
-1.75
1.94
6.38
11.13
15.71
19.61
22.53
24.44
25.58
26.44
27.60
29.55
32.59
36.69
41.47
46.24
50.18
52.52
52.86
51.23
48.15
44.42
40.95
38.60
37.92
39.01
41.34
43.75
44.84
43.41
38.99
31.99
23.41
14.23
4.91
-4.64
-14.70
-25.18
-35.36
-44.03
-50.10
-53.05
-53.13
-51.14
-47.92
-44.09
-39.87
-35.20
-29.86
-23.70
-16.68
-9.07
-1.48
5.24
10.23
12.99
13.63
12.81
11.46
10.34
9.77
9.55
9.21
8.30
6.69
4.53
2.18
-0.10
-2.30
-4.71
-7.82
-12.02
-17.42
-23.70
-30.24
-36.33
-41.37
-44.99
-47.00
-47.33
-45.99
-43.11
-39.14
-34.78
-30.93
-28.33
-27.27
-27.46
-28.15
-28.54
-28.10
-26.77
-24.84
-22.75
-20.76
-18.89
-16.99
-14.97
-12.83
-10.72
-8.74
-6.88
-5.00
-2.90
-0.48
2.15
4.69
6.78
8.13
8.63
8.40
7.71
6.82
5.88
4.87
3.66
2.11
0.15
-2.14
-4.55
-6.81
-8.63
-9.74
-9.94
-9.17
-7.49
-5.12
-2.41
0.25
2.55
4.28
5.40
5.95
6.04
5.79
5.35
4.87
4.54
4.47
4.69
5.16
5.76
6.32
6.72
6.84
6.61
6.05
5.23
4.31
3.45
2.69
1.94
0.98
-0.43
-2.36
-4.61
-6.76
-8.32
-9.03
-9.01
-8.76
-8.84
-9.55
-10.76
-11.96
-12.54
-12.15
-10.80
-8.85
-6.68
-4.53
-2.40
-0.13
2.35
4.92
7.25
8.96
9.74
9.55
8.56
7.13
5.66
4.45
3.63
3.15
2.78
2.24
1.36
0.13
-1.28
-2.63
-3.71
-4.44
-4.85
-5.04
-5.10
-5.11
-5.18
-5.46
-6.16
-7.46
-9.39
-11.75
-14.06
-15.75
-16.32
-15.54
-13.53
-10.72
-7.60
-4.61
-1.96
0.33
2.36
4.24
5.96
7.46
8.68
9.58
10.23
10.72
11.18
11.64
12.10
12.46
12.67
12.71
12.68
12.70
12.83
13.06
13.21
13.06
12.42
11.27
9.74
8.10
6.58
5.27
4.06
2.72
1.05
-1.03
-3.34
-5.55
-7.26
-8.17
-8.24
-7.60
-6.52
-5.23
-3.80
-2.20
-0.42
1.48
3.25
4.63
5.42
5.60
5.32
4.81
4.29
3.87
3.58
3.41
3.31
3.27
3.28
3.35
3.50
3.72
3.95
4.09
4.00
3.62
2.97
2.15
1.29
0.42
-0.50
-1.55
-2.78
-4.20
-5.75
-7.39
-9.03
-10.62
-12.00
-12.94
-13.20
-12.63
-11.22
-9.14
-6.68
-4.12
-1.67
0.54
2.47
4.02
5.15
5.78
5.92
5.64
5.10
4.45
3.82
3.25
2.68
2.01
1.18
0.20
-0.82
-1.77
-2.59
-3.31
-4.03
-4.83
-5.76
-6.75
-7.69
-8.47
-9.09
-9.66
-10.35
-11.30
-12.51
-13.87
-15.12
-15.99
-16.23
-15.67
-14.26
-12.00
-9.08
-5.74
-2.34
0.77
3.31
5.15
6.36
7.13
7.67
8.12
8.46
8.61
8.46
8.03
7.43
6.83
6.35
6.04
5.83
5.64
5.36
4.98
4.48
3.89
3.23
2.55
1.93
1.41
0.99
0.57
0.01
-0.84
-2.01
-3.44
-4.96
-6.39
-7.56
-8.28
-8.35
-7.59
-5.93
-3.43
-0.39
2.77
5.65
7.95
9.59
10.64
11.22
11.42
11.29
10.86
10.18
9.40
8.66
8.09
7.73
7.49
7.30
7.06
6.75
6.37
5.90
5.29
4.47
3.44
2.26
1.05
-0.04
-0.96
-1.74
-2.46
-3.22
-4.10
-5.11
-6.21
-7.35
-8.40
-9.17
-9.41
-8.89
-7.54
-5.43
-2.86
-0.20
2.28
4.38
6.09
7.45
8.48
9.19
9.57
9.65
9.51
9.25
8.95
8.62
8.22
7.73
7.17
6.65
6.25
6.00
5.84
5.67
5.35
4.82
4.05
3.10
2.05
0.96
-0.07
-1.01
-1.83
-2.58
-3.33
-4.16
-5.14
-6.23
-7.36
-8.37
-9.10
-9.36
-9.02
-8.00
-6.35
-4.19
-1.74
0.77
3.11
5.11
6.68
7.79
8.45
8.67
8.49
7.98
7.21
6.27
5.25
4.25
3.33
2.52
1.83
1.24
0.74
0.29
-0.14
-0.62
-1.21
-1.99
-2.96
-4.07
-5.19
-6.20
-7.01
-7.65
-8.21
-8.83
-9.60
-10.57
-11.69
-12.90
-14.07
-15.05
-15.67
-15.77
-15.26
-14.11
-12.41
-10.30
-7.93
-5.47
-3.03
-0.71
1.38
3.15
4.50
5.36
5.71
5.60
5.14
4.48
3.83
3.31
2.98
2.81
2.69
2.53
2.28
1.93
1.56
1.22
0.91
0.60
0.26
-0.15
-0.57
-0.94
-1.22
-1.41
-1.59
-1.88
-2.36
-3.14
-4.27
-5.76
-7.50
-9.25
-10.64
-11.22
-10.63
-8.76
-5.85
-2.39
0.99
3.77
5.68
6.74
7.18
7.32
7.34
7.31
7.21
7.01
6.75
6.52
6.39
6.35
6.28
6.02
5.51
4.83
4.13
3.57
3.19
2.87
2.37
1.52
0.32
-1.01
-2.15
-2.80
-2.84
-2.42
-1.87
-1.56
-1.76
-2.51
-3.68
-5.05
-6.41
-7.60
-8.51
-9.03
-9.02
-8.32
-6.88
-4.73
-2.05
0.91
3.85
6.58
8.94
10.91
12.55
13.93
15.10
15.99
16.50
16.50
15.98
15.04
13.89
12.69
11.52
10.39
9.31
8.37
7.70
7.32
7.04
6.54
5.50
3.82
1.65
-0.66
-2.76
-4.47
-5.80
-6.91
-7.98
-9.14
-10.46
-11.90
-13.34
-14.59
-15.47
-15.94
-16.07
-16.00
-15.77
-15.22
-14.09
-12.22
-9.72
-7.00
-4.54
-2.63
-1.27
-0.21
0.79
1.84
2.85
3.67
4.21
4.50
4.62
4.61
4.46
4.16
3.76
3.34
2.95
2.56
2.07
1.44
0.71
0.03
-0.47
-0.75
-0.93
-1.20
-1.71
-2.55
-3.65
-4.94
-6.35
-7.88
-9.52
-11.22
-12.84
-14.14
-14.81
-14.67
-13.66
-11.96
-9.86
-7.66
-5.48
-3.27
-0.87
1.80
4.56
7.04
8.78
9.55
9.47
8.97
8.57
8.61
9.05
9.55
9.70
9.34
8.62
7.92
7.65
7.98
8.79
9.70
10.29
10.23
9.44
8.07
6.44
4.89
3.60
2.59
1.67
0.58
-0.91
-2.88
-5.24
-7.77
-10.15
-12.08
-13.26
-13.50
-12.71
-11.04
-8.76
-6.22
-3.76
-1.55
0.37
2.06
3.59
5.00
6.30
7.46
8.44
9.16
9.58
9.66
9.47
9.14
8.87
8.78
8.87
9.02
9.06
8.90
8.59
8.21
7.86
7.53
7.17
6.71
6.20
5.73
5.41
5.25
5.11
4.79
4.15
3.22
2.18
1.29
0.69
0.41
0.39
0.61
1.15
2.18
3.79
5.95
8.44
10.91
13.08
14.77
15.98
16.77
17.15
17.08
16.49
15.33
13.71
11.85
10.03
8.45
7.13
5.96
4.69
3.16
1.31
-0.76
-2.86
-4.81
-6.58
-8.22
-9.81
-11.37
-12.82
-14.02
-14.83
-15.26
-15.45
-15.63
-16.01
-16.70
-17.67
-18.75
-19.74
-20.44
-20.73
-20.54
-19.85
-18.68
-17.10
-15.20
-13.12
-11.00
-8.97
-7.10
-5.35
-3.69
-2.09
-0.56
0.77
1.79
2.43
2.69
2.69
2.54
2.37
2.22
2.11
2.02
1.97
1.97
2.04
2.17
2.33
2.49
2.62
2.70
2.72
2.61
2.30
1.70
0.74
-0.57
-2.12
-3.73
-5.18
-6.28
-6.83
-6.70
-5.79
-4.09
-1.71
1.07
3.86
6.29
8.16
9.47
10.42
11.25
12.08
12.90
13.54
13.83
13.65
13.03
12.02
10.72
9.22
7.60
5.95
4.41
3.05
1.87
0.78
-0.31
-1.46
-2.65
-3.74
-4.65
-5.30
-5.74
-6.10
-6.53
-7.16
-7.99
-8.93
-9.81
-10.44
-10.68
-10.45
-9.77
-8.66
-7.13
-5.23
-2.96
-0.38
2.37
5.14
7.74
10.02
11.91
13.44
14.71
15.90
17.18
18.69
20.49
22.50
24.52
26.26
27.52
28.16
28.26
28.04
27.80
27.83
28.36
29.54
31.31
33.34
34.99
35.45
33.94
30.09
24.25
17.49
11.34
7.18
5.64
6.44
8.51
10.65
12.06
12.50
12.11
11.08
9.36
6.80
3.41
-0.33
-3.50
-5.09
-4.43
-1.57
2.77
7.52
11.77
15.16
17.92
20.60
23.64
26.96
29.86
31.26
30.26
26.66
21.10
14.74
8.65
3.29
-1.60
-6.60
-12.08
-17.85
-23.20
-27.34
-29.80
-30.64
-30.24
-29.00
-27.04
-24.35
-20.97
-17.20
-13.60
-10.70
-8.70
-7.39
-6.22
-4.72
-2.67
-0.25
2.12
3.87
4.45
3.38
0.32
-4.76
-11.39
-18.57
-24.91
-29.17
-30.86
-30.62
-30.02
-30.86
-34.21
-39.73
-45.68
-49.58
-49.35
-44.20
-34.96
-23.66
-12.64
-3.70
2.34
5.60
6.83
6.92
6.72
6.87
7.73
9.24
10.91
11.97
11.65
9.57
5.89
1.22
-3.74
-8.50
-12.90
-16.97
-20.68
-23.70
-25.42
-25.21
-22.61
-17.62
-10.62
-2.34
6.32
14.47
21.40
26.74
30.49
32.97
34.67
35.98
37.02
37.58
37.24
35.73
33.10
29.82
26.62
24.05
22.25
20.88
19.31
17.01
13.82
10.01
6.09
2.40
-1.05
-4.57
-8.56
-13.09
-17.85
-22.24
-25.72
-28.09
-29.63
-30.93
-32.56
-34.80
-37.53
-40.36
-42.81
-44.54
-45.42
-45.53
-45.07
-44.29
-43.38
-42.45
-41.43
-40.11
-38.15
-35.26
-31.35
-26.58
-21.39
-16.26
-11.57
-7.48
-4.01
-1.20
0.81
1.74
1.39
-0.22
-2.71
-5.49
-7.96
-9.71
-10.67
-10.98
-10.90
-10.62
-10.22
-9.66
-8.89
-7.90
-6.81
-5.84
-5.27
-5.38
-6.29
-7.93
-10.06
-12.29
-14.24
-15.64
-16.28
-16.09
-15.06
-13.23
-10.70
-7.65
-4.39
-1.25
1.39
3.23
4.13
4.15
3.54
2.68
1.92
1.43
1.16
0.92
0.49
-0.21
-1.11
-2.07
-2.94
-3.76
-4.64
-5.74
-7.13
-8.78
-10.55
-12.33
-14.04
-15.64
-17.01
-17.91
-18.02
-17.08
-15.04
-12.16
-8.95
-5.95
-3.50
-1.67
-0.29
0.80
1.63
2.13
2.24
2.09
1.95
2.10
2.62
3.37
4.04
4.36
4.24
3.75
2.99
2.03
0.87
-0.43
-1.72
-2.81
-3.57
-4.10
-4.66
-5.48
-6.58
-7.67
-8.26
-7.95
-6.65
-4.64
-2.34
-0.16
1.80
3.63
5.45
7.25
8.79
9.79
10.12
9.89
9.42
9.03
8.83
8.67
8.26
7.35
5.85
3.92
1.88
0.08
-1.23
-1.96
-2.29
-2.51
-3.03
-4.12
-5.81
-7.83
-9.69
-10.85
-10.99
-10.04
-8.18
-5.70
-2.86
0.11
3.04
5.71
7.86
9.25
9.73
9.36
8.43
7.34
6.39
5.68
5.00
3.99
2.42
0.32
-1.97
-3.98
-5.37
-6.11
-6.46
-6.82
-7.42
-8.29
-9.18
-9.87
-10.25
-10.43
-10.59
-10.78
-10.73
-9.99
-8.13
-5.01
-0.94
3.41
7.32
10.36
12.55
14.22
15.72
17.12
18.15
18.33
17.35
15.26
12.48
9.59
7.00
4.87
3.05
1.29
-0.56
-2.54
-4.59
-6.68
-8.85
-11.20
-13.71
-16.16
-18.08
-18.93
-18.30
-16.18
-12.91
-9.14
-5.44
-2.06
1.22
4.88
9.29
14.38
19.46
23.48
25.51
25.21
23.00
19.87
16.95
15.03
14.30
14.36
14.54
14.26
13.23
11.57
9.58
7.60
5.78
4.09
2.34
0.35
-1.97
-4.57
-7.33
-10.09
-12.65
-14.88
-16.62
-17.74
-18.05
-17.42
-15.69
-12.83
-8.90
-4.17
0.92
5.84
10.08
13.29
15.38
16.50
16.96
17.11
17.20
17.37
17.60
17.81
17.89
17.71
17.21
16.34
15.16
13.72
12.14
10.55
9.07
7.81
6.80
6.01
5.31
4.60
3.81
3.01
2.38
2.10
2.37
3.27
4.78
6.86
9.40
12.26
15.24
17.99
20.08
21.14
21.04
19.95
18.31
16.54
14.89
13.37
11.87
10.29
8.70
7.21
5.87
4.47
2.68
0.20
-2.94
-6.30
-9.18
-10.97
-11.48
-11.11
-10.65
-10.94
-12.48
-15.22
-18.63
-21.96
-24.58
-26.21
-26.89
-26.81
-26.17
-25.00
-23.29
-21.09
-18.60
-16.16
-14.04
-12.34
-10.96
-9.69
-8.41
-7.17
-6.18
-5.67
-5.66
-5.94
-6.15
-6.01
-5.45
-4.66
-3.91
-3.39
-3.06
-2.72
-2.14
-1.31
-0.48
-0.11
-0.60
-2.09
-4.34
-6.87
-9.12
-10.69
-11.44
-11.43
-10.79
-9.59
-7.78
-5.23
-1.83
2.40
7.27
12.36
17.10
20.90
23.25
23.92
23.04
20.98
18.20
15.04
11.66
8.27
5.28
3.40
3.43
5.83
10.32
15.90
21.16
24.89
26.56
26.37
24.98
23.01
20.78
18.30
15.65
13.18
11.56
11.51
13.41
17.04
21.70
26.49
30.65
33.80
35.89
37.09
37.52
37.26
36.33
34.90
33.30
31.95
31.15
30.79
30.32
28.93
25.93
21.14
15.04
8.68
3.23
-0.47
-2.18
-2.31
-1.58
-0.65
0.07
0.50
0.69
0.70
0.58
0.47
0.78
2.10
4.93
9.37
14.94
20.67
25.49
28.68
29.99
29.61
27.90
25.12
21.38
16.77
11.46
5.83
0.28
-4.85
-9.39
-13.32
-16.64
-19.31
-21.19
-22.19
-22.34
-21.81
-20.83
-19.58
-18.20
-16.79
-15.58
-14.91
-15.18
-16.60
-18.97
-21.67
-23.82
-24.69
-23.98
-21.92
-19.17
-16.44
-14.22
-12.67
-11.69
-11.12
-10.89
-11.12
-12.03
-13.74
-16.13
-18.72
-20.77
-21.58
-20.80
-18.61
-15.77
-13.32
-12.15
-12.66
-14.68
-17.54
-20.41
-22.50
-23.30
-22.62
-20.54
-17.36
-13.49
-9.30
-5.00
-0.62
3.95
8.77
13.73
18.38
22.08
24.25
24.63
23.40
21.09
18.31
15.45
12.60
9.65
6.56
3.53
0.95
-0.80
-1.63
-1.86
-2.06
-2.78
-4.24
-6.24
-8.35
-10.08
-11.17
-11.59
-11.44
-10.79
-9.63
-7.85
-5.35
-2.16
1.54
5.52
9.60
13.77
18.22
23.17
28.69
34.45
39.74
43.65
45.53
45.26
43.47
41.20
39.45
38.59
38.21
37.35
35.06
30.88
25.04
18.20
11.04
3.95
-2.98
-9.70
-16.05
-21.62
-25.92
-28.60
-29.56
-28.95
-27.14
-24.56
-21.71
-19.06
-16.96
-15.62
-14.97
-14.82
-14.94
-15.16
-15.45
-15.79
-16.15
-16.43
-16.55
-16.51
-16.45
-16.58
-17.04
-17.86
-18.92
-20.07
-21.12
-21.94
-22.46
-22.62
-22.42
-21.93
-21.27
-20.66
-20.33
-20.39
-20.75
-21.10
-20.97
-19.90
-17.56
-13.84
-8.88
-3.07
2.99
8.53
12.82
15.40
16.20
15.62
14.23
12.61
11.10
9.82
8.76
7.98
7.63
7.76
8.23
8.64
8.51
7.55
5.91
4.06
2.59
1.77
1.31
0.38
-2.13
-7.09
-14.66
-23.98
-33.28
-40.37
-43.39
-41.61
-35.71
-27.68
-20.09
-15.15
-13.98
-16.24
-20.47
-24.62
-26.77
-25.72
-21.13
-13.51
-3.92
6.34
15.95
23.74
28.77
30.48
28.77
24.07
17.29
9.62
2.30
-3.67
-7.63
-9.27
-8.68
-6.29
-2.95
0.25
2.36
2.91
2.23
1.32
1.37
3.05
6.13
9.55
11.94
12.31
10.48
7.07
3.03
-0.83
-4.19
-7.16
-10.04
-13.01
-16.04
-18.89
-21.29
-23.06
-24.17
-24.71
-24.75
-24.35
-23.53
-22.29
-20.75
-19.10
-17.62
-16.50
-15.78
-15.33
-14.83
-13.94
-12.37
-10.00
-6.88
-3.13
0.99
5.29
9.58
13.81
18.04
22.43
27.02
31.64
35.83
38.89
40.17
39.39
36.82
33.22
29.52
26.41
24.04
22.16
20.35
18.49
16.89
16.16
16.71
18.33
20.08
20.58
18.62
13.73
6.45
-1.88
-9.66
-15.65
-19.24
-20.48
-19.76
-17.54
-14.16
-9.89
-5.12
-0.40
3.60
6.35
7.58
7.43
6.33
4.80
3.25
1.85
0.57
-0.76
-2.29
-4.11
-6.18
-8.44
-10.78
-13.10
-15.33
-17.42
-19.36
-21.19
-23.00
-24.89
-26.92
-29.06
-31.10
-32.66
-33.29
-32.58
-30.32
-26.59
-21.79
-16.48
-11.28
-6.67
-2.87
0.16
2.58
4.55
6.15
7.31
7.95
8.04
7.73
7.24
6.83
6.66
6.72
6.91
7.03
6.94
6.58
5.98
5.22
4.44
3.70
2.97
2.12
0.94
-0.74
-2.93
-5.42
-7.81
-9.66
-10.57
-10.38
-9.10
-6.91
-4.06
-0.79
2.68
6.14
9.38
12.17
14.35
15.84
16.65
16.85
16.59
16.00
15.25
14.49
13.86
13.39
13.04
12.66
12.08
11.15
9.81
8.19
6.50
4.95
3.71
2.76
1.90
0.79
-0.94
-3.57
-7.12
-11.32
-15.62
-19.36
-21.90
-22.80
-21.94
-19.49
-15.88
-11.62
-7.21
-3.03
0.61
3.54
5.59
6.69
6.84
6.17
4.97
3.61
2.45
1.73
1.51
1.66
1.97
2.18
2.10
1.65
0.90
0.01
-0.90
-1.77
-2.71
-3.93
-5.58
-7.72
-10.15
-12.53
-14.46
-15.57
-15.63
-14.59
-12.50
-9.53
-5.93
-2.04
1.80
5.23
8.02
10.10
11.51
12.39
12.90
13.13
13.16
12.99
12.64
12.15
11.57
10.94
10.26
9.47
8.51
7.32
5.91
4.38
2.90
1.58
0.43
-0.65
-1.90
-3.54
-5.65
-8.10
-10.46
-12.18
-12.75
-11.90
-9.69
-6.49
-2.82
0.83
4.11
6.87
9.11
10.84
12.05
12.67
12.65
12.02
10.91
9.52
8.08
6.77
5.65
4.68
3.74
2.70
1.51
0.18
-1.17
-2.43
-3.52
-4.45
-5.36
-6.38
-7.59
-9.01
-10.56
-12.13
-13.66
-15.05
-16.19
-16.88
-16.89
-15.97
-14.01
-11.10
-7.53
-3.67
0.12
3.61
6.69
9.26
11.23
12.45
12.85
12.48
11.53
10.30
9.02
7.81
6.59
5.25
3.73
2.09
0.56
-0.59
-1.12
-0.89
0.08
1.61
3.41
5.07
6.18
6.36
5.37
3.22
0.16
-3.30
-6.50
-8.80
-9.73
-9.16
-7.28
-4.51
-1.37
1.68
4.31
6.37
7.80
8.65
9.07
9.23
9.34
9.56
9.91
10.27
10.45
10.31
9.84
9.16
8.49
7.96
7.58
7.21
6.65
5.77
4.56
3.17
1.75
0.43
-0.82
-2.13
-3.62
-5.35
-7.19
-8.85
-10.00
-10.34
-9.69
-8.05
-5.51
-2.23
1.59
5.75
9.99
13.94
17.25
19.60
20.85
21.07
20.56
19.67
18.73
17.96
17.41
17.01
16.62
16.08
15.26
14.12
12.70
11.15
9.62
8.24
7.02
5.85
4.58
3.10
1.40
-0.43
-2.25
-3.95
-5.51
-6.94
-8.25
-9.39
-10.20
-10.46
-9.93
-8.44
-5.95
-2.59
1.34
5.41
9.17
12.32
14.70
16.34
17.40
18.02
18.32
18.35
18.15
17.76
17.27
16.81
16.55
16.67
17.32
18.55
20.22
21.96
23.17
23.27
21.92
19.12
15.32
11.15
7.17
3.72
0.81
-1.78
-4.32
-7.03
-9.94
-12.92
-15.68
-17.84
-19.03
-19.07
-18.09
-16.53
-14.96
-13.77
-12.93
-11.94
-10.10
-6.91
-2.35
3.05
8.43
12.99
16.19
17.91
18.35
17.91
17.19
16.97
18.10
21.28
26.69
33.82
41.49
48.23
52.84
54.76
54.13
51.55
47.73
43.13
37.81
31.53
23.92
14.68
3.78
-8.37
-20.96
-32.85
-42.83
-50.04
-54.19
-55.55
-54.83
-52.74
-49.83
-46.34
-42.43
-38.34
-34.46
-31.26
-29.06
-27.88
-27.44
-27.31
-27.17
-27.03
-27.20
-28.09
-29.92
-32.49
-35.16
-37.08
-37.51
-36.20
-33.53
-30.42
-27.93
-26.94
-27.73
-30.07
-33.37
-36.99
-40.44
-43.41
-45.59
-46.63
-46.13
-43.88
-39.99
-34.98
-29.54
-24.26
-19.39
-14.83
-10.32
-5.76
-1.37
2.39
5.07
6.49
6.92
6.98
7.36
8.47
10.33
12.53
14.57
16.12
17.17
18.02
18.98
20.17
21.38
22.16
22.14
21.12
19.21
16.65
13.67
10.39
6.94
3.53
0.53
-1.52
-2.10
-0.88
2.18
6.78
12.33
18.07
23.22
27.19
29.67
30.69
30.54
29.57
28.06
26.17
23.98
21.54
18.99
16.43
13.90
11.41
8.96
6.68
4.72
3.19
1.96
0.65
-1.24
-4.02
-7.57
-11.33
-14.51
-16.45
-16.93
-16.17
-14.70
-12.95
-11.11
-9.06
-6.58
-3.53
-0.00
3.73
7.34
10.60
13.43
15.84
17.81
19.19
19.78
19.39
18.01
15.87
13.41
11.23
9.94
10.05
11.88
15.53
20.87
27.51
34.78
41.82
47.58
51.10
51.73
49.43
44.78
38.83
32.68
27.06
22.15
17.65
13.14
8.39
3.55
-0.95
-4.73
-7.67
-9.95
-11.89
-13.68
-15.23
-16.24
-16.41
-15.70
-14.37
-12.96
-11.97
-11.73
-12.30
-13.56
-15.33
-17.54
-20.15
-23.12
-26.20
-28.90
-30.57
-30.58
-28.60
-24.71
-19.44
-13.55
-7.86
-2.99
0.68
3.06
4.25
4.39
3.64
2.11
-0.06
-2.73
-5.81
-9.20
-12.86
-16.65
-20.34
-23.56
-25.93
-27.20
-27.34
-26.59
-25.31
-23.84
-22.32
-20.73
-18.93
-16.82
-14.43
-11.90
-9.44
-7.23
-5.38
-3.96
-3.01
-2.57
-2.59
-2.87
-3.08
-2.84
-1.85
-0.07
2.28
4.79
6.98
8.47
9.01
8.51
7.13
5.21
3.27
1.86
1.29
1.56
2.25
2.78
2.58
1.37
-0.77
-3.46
-6.15
-8.33
-9.55
-9.56
-8.31
-5.99
-2.97
0.27
3.28
5.76
7.62
8.88
9.62
9.91
9.80
9.37
8.69
7.93
7.23
6.67
6.27
5.96
5.62
5.13
4.49
3.73
2.99
2.37
1.86
1.36
0.67
-0.39
-1.92
-3.86
-6.00
-8.07
-9.76
-10.80
-10.98
-10.17
-8.33
-5.54
-1.97
2.08
6.23
10.11
13.44
16.08
18.03
19.40
20.30
20.76
20.73
20.15
19.03
17.50
15.80
14.16
12.74
11.53
10.43
9.36
8.27
7.24
6.35
5.64
5.02
4.33
3.39
2.04
0.21
-2.12
-4.90
-8.00
-11.21
-14.20
-16.55
-17.86
-17.83
-16.43
-13.85
-10.50
-6.82
-3.20
0.08
2.85
4.96
6.36
7.05
7.14
6.82
6.36
5.97
5.79
5.82
5.98
6.15
6.23
6.16
5.93
5.59
5.20
4.80
4.43
4.12
3.80
3.39
2.77
1.87
0.69
-0.70
-2.20
-3.77
-5.41
-7.15
-8.96
-10.66
-11.91
-12.32
-11.60
-9.72
-6.95
-3.70
-0.38
2.75
5.59
8.11
10.22
11.75
12.57
12.70
12.34
11.84
11.50
11.41
11.47
11.42
11.09
10.42
9.52
8.54
7.57
6.56
5.45
4.16
2.75
1.30
-0.06
-1.28
-2.36
-3.39
-4.42
-5.49
-6.62
-7.81
-9.10
-10.50
-11.94
-13.24
-14.12
-14.28
-13.46
-11.62
-8.94
-5.82
-2.73
-0.07
2.01
3.52
4.56
5.24
5.55
5.44
4.90
4.07
3.17
2.44
1.99
1.76
1.55
1.22
0.75
0.29
0.08
0.22
0.70
1.29
1.75
1.88
1.66
1.22
0.73
0.37
0.15
-0.03
-0.40
-1.20
-2.59
-4.53
-6.78
-8.90
-10.43
-10.95
-10.26
-8.40
-5.63
-2.32
1.14
4.41
7.22
9.38
10.77
11.37
11.31
10.80
10.09
9.37
8.72
8.12
7.47
6.71
5.85
4.97
4.16
3.49
2.93
2.41
1.83
1.11
0.21
-0.85
-1.98
-3.13
-4.24
-5.30
-6.37
-7.50
-8.72
-10.02
-11.31
-12.47
-13.37
-13.83
-13.74
-13.03
-11.69
-9.82
-7.57
-5.12
-2.68
-0.42
1.50
2.94
3.79
4.03
3.73
3.07
2.24
1.45
0.81
0.34
-0.01
-0.31
-0.67
-1.12
-1.70
-2.40
-3.20
-4.06
-4.95
-5.85
-6.78
-7.76
-8.79
-9.80
-10.73
-11.51
-12.14
-12.72
-13.34
-14.06
-14.79
-15.33
-15.43
-14.90
-13.68
-11.81
-9.42
-6.64
-3.63
-0.58
2.30
4.71
6.43
7.35
7.55
7.23
6.64
6.00
5.39
4.84
4.34
3.86
3.45
3.11
2.85
2.64
2.41
2.08
1.58
0.83
-0.16
-1.36
-2.67
-4.01
-5.34
-6.67
-8.04
-9.47
-10.84
-11.91
-12.38
-12.03
-10.79
-8.76
-6.15
-3.24
-0.26
2.61
5.21
7.43
9.09
10.05
10.24
9.70
8.61
7.29
6.07
5.17
4.66
4.41
4.22
3.86
3.20
2.27
1.18
0.11
-0.81
-1.53
-2.06
-2.49
-2.90
-3.42
-4.16
-5.17
-6.42
-7.81
-9.10
-10.01
-10.26
-9.66
-8.19
-6.00
-3.38
-0.64
1.95
4.20
6.05
7.46
8.44
8.96
9.06
8.78
8.27
7.67
7.09
6.57
6.03
5.34
4.40
3.23
1.98
0.87
0.13
-0.14
0.05
0.54
1.08
1.42
1.39
0.94
0.16
-0.67
-1.20
-1.01
0.23
2.71
6.43
11.21
16.72
22.53
28.21
33.37
37.78
41.32
44.04
46.05
47.43
48.20
48.31
47.67
46.31
44.39
42.14
39.80
37.41
34.81
31.68
27.78
23.05
17.75
12.31
7.20
2.70
-1.13
-4.37
-7.09
-9.28
-10.85
-11.72
-12.02
-12.01
-12.03
-12.34
-12.93
-13.56
-13.91
-13.68
-12.77
-11.25
-9.30
-7.13
-4.96
-3.01
-1.49
-0.60
-0.37
-0.63
-1.02
-1.16
-0.85
-0.19
0.48
0.78
0.52
-0.24
-1.28
-2.44
-3.78
-5.50
-7.79
-10.62
-13.67
-16.48
-18.70
-20.32
-21.66
-23.21
-25.38
-28.28
-31.71
-35.23
-38.26
-40.26
-40.73
-39.33
-35.98
-31.02
-25.27
-19.88
-16.08
-14.77
-16.19
-19.86
-24.66
-29.26
-32.45
-33.51
-32.27
-29.08
-24.59
-19.50
-14.43
-9.77
-5.73
-2.40
0.22
2.14
3.38
4.01
4.15
3.95
3.55
3.01
2.27
1.18
-0.47
-2.77
-5.71
-9.09
-12.59
-15.89
-18.81
-21.25
-23.26
-24.82
-25.83
-26.06
-25.26
-23.22
-19.90
-15.39
-9.95
-3.92
2.28
8.23
13.51
17.77
20.79
22.54
23.12
22.76
21.80
20.59
19.40
18.44
17.70
17.08
16.33
15.23
13.68
11.75
9.64
7.60
5.80
4.34
3.18
2.25
1.44
0.64
-0.23
-1.19
-2.25
-3.36
-4.49
-5.63
-6.74
-7.73
-8.41
-8.48
-7.64
-5.60
-2.32
2.00
6.88
11.65
15.57
18.04
18.74
17.73
15.41
12.45
9.65
7.76
7.32
8.60
11.37
14.96
18.31
20.31
20.24
18.14
14.84
11.64
9.77
9.83
11.60
14.19
16.43
17.36
16.40
13.37
8.36
1.70
-6.05
-13.97
-20.96
-25.90
-28.08
-27.49
-24.81
-21.23
-17.92
-15.63
-14.42
-13.74
-12.69
-10.53
-6.91
-2.09
3.24
8.15
11.83
13.86
14.25
13.41
11.95
10.45
9.34
8.79
8.84
9.41
10.42
11.85
13.74
16.18
19.25
22.94
27.01
30.96
33.99
35.20
33.81
29.56
22.83
14.68
6.52
-0.37
-5.32
-8.42
-10.44
-12.33
-14.74
-17.66
-20.42
-22.09
-21.94
-19.83
-16.23
-12.00
-7.97
-4.66
-2.15
-0.21
1.59
3.56
5.85
8.32
10.69
12.71
14.26
15.45
16.48
17.52
18.49
19.03
18.75
17.45
15.38
13.26
11.96
12.08
13.68
16.14
18.40
19.35
18.11
14.24
7.77
-0.81
-10.73
-21.02
-30.66
-38.76
-44.72
-48.36
-49.90
-49.83
-48.71
-46.87
-44.43
-41.30
-37.45
-33.06
-28.62
-24.75
-21.91
-20.05
-18.64
-16.88
-14.28
-10.92
-7.57
-5.23
-4.53
-5.34
-6.81
-7.88
-7.86
-6.80
-5.40
-4.49
-4.57
-5.53
-6.80
-7.72
-7.93
-7.55
-6.98
-6.68
-6.92
-7.67
-8.71
-9.74
-10.59
-11.21
-11.68
-12.06
-12.37
-12.45
-12.05
-10.85
-8.65
-5.41
-1.37
3.04
7.29
10.99
13.92
16.07
17.50
18.28
18.38
17.80
16.63
15.14
13.68
12.51
11.68
11.07
10.45
9.71
8.95
8.42
8.37
8.89
9.85
10.88
11.53
11.40
10.36
8.60
6.56
4.79
3.69
3.28
3.20
2.82
1.64
-0.48
-3.12
-5.50
-6.73
-6.20
-3.75
0.29
5.32
10.73
16.07
21.14
25.89
30.20
33.80
36.26
37.19
36.41
34.13
30.88
27.40
24.35
22.09
20.68
19.82
19.09
17.98
16.07
13.15
9.19
4.47
-0.50
-5.17
-9.04
-11.96
-14.17
-16.17
-18.53
-21.56
-25.10
-28.53
-30.91
-31.41
-29.68
-26.01
-21.20
-16.20
-11.71
-7.89
-4.47
-1.05
2.50
5.84
8.28
9.08
7.91
5.06
1.32
-2.34
-5.17
-6.93
-7.82
-8.28
-8.66
-9.13
-9.64
-10.07
-10.40
-10.70
-11.10
-11.70
-12.50
-13.44
-14.45
-15.56
-16.85
-18.48
-20.56
-23.10
-25.98
-28.93
-31.62
-33.65
-34.69
-34.51
-33.01
-30.24
-26.38
-21.67
-16.41
-10.94
-5.63
-0.79
3.37
6.73
9.35
11.33
12.81
13.82
14.29
14.12
13.28
11.89
10.27
8.84
7.88
7.50
7.52
7.64
7.53
6.94
5.80
4.14
2.05
-0.31
-2.73
-4.98
-6.83
-8.15
-8.99
-9.61
-10.34
-11.43
-12.92
-14.57
-15.94
-16.58
-16.20
-14.80
-12.60
-9.93
-7.15
-4.45
-1.91
0.51
2.90
5.29
7.66
9.92
11.89
13.44
14.45
14.89
14.82
14.37
13.64
12.75
11.79
10.88
10.21
9.95
10.19
10.78
11.36
11.44
10.66
8.90
6.42
3.64
1.02
-1.21
-3.05
-4.70
-6.37
-8.16
-10.01
-11.81
-13.43
-14.79
-15.84
-16.43
-16.36
-15.44
-13.57
-10.85
-7.54
-3.99
-0.50
2.72
5.59
8.11
10.24
11.96
13.24
14.08
14.56
14.79
14.90
14.94
14.92
14.79
14.49
13.96
13.22
12.35
11.49
10.82
10.53
10.71
11.41
12.56
13.99
15.41
16.44
16.64
15.65
13.33
9.77
5.35
0.60
-3.89
-7.64
-10.29
-11.67
-11.74
-10.62
-8.63
-6.27
-4.13
-2.74
-2.33
-2.76
-3.54
-4.04
-3.78
-2.65
-0.89
1.01
2.50
3.29
3.33
2.87
2.24
1.72
1.44
1.34
1.22
0.85
0.05
-1.28
-3.15
-5.44
-7.92
-10.33
-12.40
-13.91
-14.84
-15.27
-15.35
-15.18
-14.70
-13.67
-11.75
-8.64
-4.22
1.39
7.84
14.61
21.08
26.60
30.61
32.79
33.13
31.97
29.88
27.41
24.96
22.61
20.25
17.68
14.78
11.58
8.25
4.96
1.83
-1.07
-3.67
-5.83
-7.35
-8.07
-7.95
-7.20
-6.18
-5.32
-4.92
-5.11
-5.83
-6.93
-8.22
-9.53
-10.76
-11.74
-12.24
-11.97
-10.65
-8.06
-4.26
0.46
5.52
10.19
13.83
16.06
16.86
16.54
15.57
14.36
13.16
12.03
10.93
9.84
8.79
7.88
7.20
6.78
6.55
6.40
6.19
5.84
5.29
4.54
3.64
2.64
1.64
0.68
-0.22
-1.11
-2.05
-2.97
-3.70
-4.00
-3.61
-2.44
-0.51
1.97
4.80
7.79
10.85
13.91
16.91
19.67
21.97
23.59
24.38
24.35
23.70
22.73
21.78
21.09
20.69
20.47
20.17
19.57
18.60
17.37
16.11
15.03
14.15
13.30
12.13
10.29
7.58
4.00
-0.24
-4.87
-9.68
-14.63
-19.75
-25.03
-30.29
-35.08
-38.89
-41.28
-42.11
-41.53
-39.93
-37.68
-35.13
-32.55
-30.23
-28.53
-27.80
-28.22
-29.58
-31.26
-32.41
-32.28
-30.51
-27.26
-23.11
-18.81
-15.13
-12.68
-11.87
-12.84
-15.36
-18.85
-22.45
-25.29
-26.78
-26.80
-25.70
-24.05
-22.35
-20.90
-19.83
-19.20
-19.18
-19.97
-21.62
-23.83
-25.91
-27.01
-26.42
-23.88
-19.66
-14.43
-8.96
-3.90
0.40
3.80
6.34
8.13
9.32
10.09
10.70
11.41
12.39
13.59
14.73
15.49
15.65
15.33
14.90
14.88
15.66
17.26
19.30
21.12
22.08
21.75
20.10
17.40
14.14
10.81
7.77
5.22
3.21
1.72
0.74
0.43
1.01
2.73
5.68
9.72
14.49
19.46
24.12
28.05
30.94
32.59
32.85
31.71
29.23
25.67
21.32
16.48
11.32
5.96
0.52
-4.82
-9.77
-14.05
-17.44
-19.84
-21.20
-21.51
-20.79
-19.17
-16.99
-14.83
-13.38
-13.20
-14.47
-16.92
-19.91
-22.62
-24.41
-24.95
-24.29
-22.78
-20.88
-18.98
-17.29
-15.81
-14.43
-13.00
-11.47
-9.87
-8.29
-6.83
-5.58
-4.56
-3.79
-3.24
-2.87
-2.58
-2.31
-2.01
-1.75
-1.69
-1.97
-2.69
-3.78
-5.05
-6.27
-7.27
-8.00
-8.54
-9.01
-9.54
-10.22
-11.12
-12.28
-13.66
-15.10
-16.32
-16.91
-16.46
-14.68
-11.52
-7.22
-2.19
3.04
8.02
12.44
16.14
19.11
21.40
23.06
24.16
24.80
25.10
25.21
25.24
25.24
25.15
24.86
24.26
23.37
22.35
21.43
20.81
20.51
20.39
20.12
19.37
18.02
16.09
13.84
11.58
9.52
7.78
6.28
4.84
3.27
1.42
-0.80
-3.41
-6.33
-9.39
-12.26
-14.54
-15.78
-15.68
-14.16
-11.44
-7.97
-4.24
-0.66
2.56
5.41
7.92
10.12
11.91
13.17
13.80
13.87
13.54
13.07
12.69
12.52
12.57
12.71
12.82
12.76
12.44
11.84
10.98
9.95
8.79
7.59
6.39
5.19
3.97
2.72
1.40
0.05
-1.32
-2.69
-4.06
-5.46
-6.93
-8.50
-10.17
-11.89
-13.56
-14.99
-15.96
-16.22
-15.58
-13.96
-11.46
-8.30
-4.77
-1.21
2.10
4.93
7.12
8.55
9.21
9.16
8.56
7.66
6.76
6.13
5.94
6.24
6.90
7.73
8.48
9.00
9.25
9.25
9.11
8.88
8.55
8.11
7.50
6.75
5.90
4.98
4.04
3.07
2.02
0.87
-0.39
-1.80
-3.42
-5.33
-7.56
-9.99
-12.29
-14.01
-14.71
-14.12
-12.27
-9.46
-6.13
-2.70
0.46
3.15
5.28
6.89
8.06
8.98
9.84
10.84
12.03
13.34
14.61
15.68
16.46
16.93
17.14
17.14
16.91
16.47
15.82
15.04
14.26
13.64
13.23
12.98
12.71
12.16
11.19
9.74
7.94
5.95
3.92
1.91
-0.10
-2.16
-4.27
-6.43
-8.62
-10.81
-13.03
-15.28
-17.49
-19.51
-21.13
-22.17
-22.53
-22.19
-21.22
-19.69
-17.66
-15.17
-12.27
-9.09
-5.81
-2.67
0.07
2.27
3.88
5.05
5.98
6.85
7.73
8.47
8.85
8.74
8.26
7.82
7.98
9.23
11.68
15.04
18.73
22.07
24.54
25.85
25.93
24.83
22.71
19.79
16.35
12.70
9.09
5.68
2.48
-0.64
-3.74
-6.84
-9.77
-12.26
-14.00
-14.73
-14.42
-13.24
-11.56
-9.81
-8.32
-7.21
-6.42
-5.78
-5.12
-4.39
-3.62
-2.85
-2.12
-1.38
-0.61
0.16
0.88
1.48
1.90
2.13
2.16
1.96
1.46
0.68
-0.34
-1.45
-2.48
-3.30
-3.90
-4.31
-4.67
-5.12
-5.76
-6.67
-7.88
-9.32
-10.86
-12.24
-13.16
-13.34
-12.66
-11.12
-8.91
-6.30
-3.54
-0.86
1.58
3.67
5.30
6.43
7.07
7.33
7.36
7.31
7.25
7.15
6.99
6.76
6.52
6.33
6.18
5.99
5.60
4.91
3.91
2.65
1.25
-0.21
-1.74
-3.43
-5.31
-7.37
-9.45
-11.40
-13.08
-14.51
-15.81
-17.12
-18.46
-19.72
-20.63
-20.91
-20.35
-18.94
-16.81
-14.15
-11.10
-7.83
-4.47
-1.23
1.61
3.81
5.23
5.92
6.08
5.94
5.67
5.34
4.92
4.43
3.99
3.78
3.97
4.58
5.49
6.45
7.26
7.81
8.13
8.28
8.29
8.11
7.69
7.12
6.73
7.01
8.30
10.60
13.44
16.01
17.57
17.77
16.85
15.50
14.52
14.43
15.31
16.87
18.68
20.41
21.99
23.54
25.25
27.19
29.26
31.20
32.68
33.32
32.89
31.39
29.13
26.76
25.08
24.75
26.01
28.61
31.94
35.35
38.49
41.36
44.18
47.12
50.09
52.67
54.36
54.68
53.30
50.07
44.88
37.72
28.80
18.56
7.74
-2.87
-12.70
-21.56
-29.57
-36.94
-43.61
-49.12
-52.64
-53.33
-50.69
-44.90
-36.80
-27.71
-19.09
-12.15
-7.64
-5.74
-6.20
-8.39
-11.49
-14.62
-16.94
-17.81
-16.83
-13.98
-9.58
-4.32
0.87
4.94
6.97
6.38
3.19
-2.01
-8.20
-14.27
-19.39
-23.21
-25.86
-27.70
-29.04
-30.05
-30.66
-30.80
-30.50
-30.01
-29.66
-29.80
-30.53
-31.67
-32.76
-33.32
-33.03
-31.89
-30.22
-28.47
-27.02
-25.98
-25.22
-24.49
-23.60
-22.55
-21.48
-20.55
-19.85
-19.26
-18.58
-17.57
-16.11
-14.19
-11.98
-9.76
-7.82
-6.42
-5.69
-5.62
-6.08
-6.87
-7.83
-8.86
-9.93
-11.01
-12.09
-13.11
-13.94
-14.42
-14.37
-13.62
-12.11
-9.93
-7.32
-4.60
-2.10
-0.02
1.57
2.78
3.76
4.72
5.77
6.94
8.15
9.27
10.17
10.84
11.37
12.01
13.06
14.78
17.26
20.38
23.81
27.13
29.92
31.83
32.72
32.62
31.77
30.57
29.42
28.63
28.32
28.44
28.79
29.16
29.36
29.36
29.35
29.82
31.58
35.55
42.30
51.49
61.47
69.59
72.95
69.58
59.27
43.67
25.54
7.75
-7.68
-19.87
-28.76
-34.57
-37.49
-37.70
-35.62
-32.10
-28.30
-25.30
-23.72
-23.53
-24.12
-24.67
-24.43
-23.05
-20.66
-17.88
-15.60
-14.72
-15.73
-18.46
-22.02
-25.07
-26.30
-24.83
-20.45
-13.49
-4.71
4.90
14.10
21.51
25.85
26.30
23.00
17.06
10.27
4.34
0.31
-1.80
-2.72
-3.33
-4.23
-5.53
-7.05
-8.63
-10.38
-12.49
-15.12
-18.17
-21.26
-23.90
-25.69
-26.54
-26.71
-26.71
-27.11
-28.34
-30.51
-33.27
-36.00
-37.97
-38.69
-38.07
-36.51
-34.69
-33.30
-32.77
-33.08
-33.83
-34.43
-34.38
-33.44
-31.66
-29.29
-26.61
-23.79
-20.82
-17.63
-14.13
-10.27
-6.02
-1.35
3.80
9.42
15.31
21.05
26.05
29.73
31.67
31.80
30.40
28.02
25.30
22.80
20.87
19.61
18.82
18.15
17.21
15.65
13.29
10.14
6.36
2.23
-1.90
-5.72
-8.95
-11.47
-13.30
-14.60
-15.59
-16.43
-17.13
-17.58
-17.58
-16.96
-15.63
-13.62
-11.09
-8.26
-5.43
-2.93
-1.06
-0.00
0.26
-0.05
-0.54
-0.84
-0.69
-0.05
0.92
1.94
2.73
3.10
2.97
2.31
1.17
-0.39
-2.30
-4.42
-6.56
-8.50
-10.02
-11.06
-11.75
-12.39
-13.34
-14.81
-16.74
-18.72
-20.24
-20.88
-20.50
-19.19
-17.15
-14.55
-11.49
-8.12
-4.75
-1.88
0.03
0.77
0.64
0.24
0.23
0.98
2.42
4.18
5.82
7.06
7.80
8.11
8.09
7.88
7.73
7.94
8.78
10.28
12.13
13.70
14.28
13.37
10.92
7.33
3.29
-0.48
-3.51
-5.70
-7.37
-9.07
-11.31
-14.25
-17.60
-20.69
-22.76
-23.35
-22.55
-20.86
-18.93
-17.16
-15.51
-13.59
-10.98
-7.50
-3.38
0.90
4.80
7.91
10.00
10.94
10.65
9.25
7.12
4.98
3.60
3.43
4.27
5.28
5.40
3.88
0.77
-3.23
-7.12
-10.12
-12.01
-12.96
-13.22
-12.91
-12.00
-10.58
-9.00
-7.89
-7.79
-8.93
-11.02
-13.36
-15.21
-15.99
-15.50
-13.83
-11.24
-8.05
-4.52
-0.80
3.02
6.87
10.66
14.22
17.31
19.73
21.34
22.17
22.40
22.30
22.17
22.24
22.70
23.56
24.68
25.71
26.19
25.75
24.28
22.05
19.69
17.97
17.46
18.22
19.75
21.00
20.83
18.39
13.51
6.83
-0.38
-6.61
-10.66
-11.93
-10.61
-7.42
-3.28
1.06
5.17
8.96
12.44
15.56
18.08
19.76
20.41
20.15
19.34
18.43
17.83
17.70
18.04
18.72
19.63
20.68
21.83
22.97
23.94
24.59
24.88
24.92
24.96
25.12
25.36
25.40
24.91
23.70
21.89
19.86
18.10
16.92
16.33
16.13
16.06
16.01
16.09
16.55
17.58
19.26
21.51
24.18
27.12
30.11
32.88
35.13
36.72
37.74
38.60
39.79
41.67
44.24
47.09
49.64
51.36
51.97
51.51
50.21
48.36
46.24
44.14
42.32
41.08
40.53
40.55
40.80
40.76
39.91
37.91
34.65
30.25
25.05
19.45
13.85
8.46
3.29
-1.89
-7.40
-13.39
-19.75
-26.12
-31.97
-36.89
-40.71
-43.55
-45.69
-47.40
-48.94
-50.44
-52.01
-53.64
-55.18
-56.29
-56.54
-55.55
-53.18
-49.50
-44.81
-39.49
-33.96
-28.63
-23.92
-20.25
-17.89
-16.90
-17.01
-17.69
-18.30
-18.29
-17.35
-15.45
-12.81
-9.75
-6.62
-3.70
-1.23
0.59
1.51
1.25
-0.34
-3.20
-6.91
-10.77
-14.07
-16.38
-17.68
-18.37
-18.90
-19.60
-20.47
-21.29
-21.91
-22.44
-23.27
-24.88
-27.48
-30.83
-34.27
-37.02
-38.58
-38.89
-38.22
-36.89
-34.95
-32.13
-28.06
-22.56
-15.90
-8.80
-2.21
3.06
6.56
8.34
8.82
8.65
8.47
8.75
9.67
11.11
12.76
14.25
15.33
15.87
15.85
15.29
14.19
12.55
10.49
8.16
5.79
3.56
1.57
-0.18
-1.75
-3.23
-4.71
-6.26
-7.95
-9.75
-11.55
-13.18
-14.48
-15.34
-15.76
-15.80
-15.47
-14.72
-13.47
-11.66
-9.34
-6.67
-3.88
-1.19
1.29
3.52
5.51
7.24
8.67
9.72
10.32
10.39
9.89
8.81
7.18
5.09
2.80
0.64
-0.97
-1.71
-1.50
-0.51
0.77
1.77
2.00
1.25
-0.41
-2.59
-4.85
-6.75
-8.01
-8.49
-8.20
-7.23
-5.83
-4.38
-3.37
-3.29
-4.38
-6.55
-9.34
-12.05
-14.03
-14.86
-14.49
-13.21
-11.47
-9.70
-8.16
-6.95
-6.02
-5.25
-4.55
-3.80
-2.89
-1.77
-0.47
0.78
1.58
1.52
0.38
-1.68
-4.11
-6.15
-7.11
-6.70
-5.13
-3.06
-1.29
-0.55
-1.20
-3.20
-6.19
-9.65
-13.09
-16.16
-18.71
-20.74
-22.24
-23.16
-23.40
-22.89
-21.62
-19.69
-17.23
-14.27
-10.75
-6.51
-1.47
4.22
10.14
15.67
20.15
23.14
24.49
24.36
23.14
21.28
19.28
17.53
16.33
15.79
15.80
16.03
15.98
15.13
13.15
10.01
6.02
1.76
-2.16
-5.22
-7.13
-7.88
-7.60
-6.46
-4.50
-1.54
2.79
8.86
16.70
25.75
34.86
42.50
47.26
48.35
45.81
40.45
33.51
26.18
19.35
13.53
8.97
5.80
3.97
3.26
3.22
3.24
2.71
1.28
-1.07
-4.02
-7.07
-9.72
-11.59
-12.59
-12.86
-12.76
-12.74
-13.15
-14.20
-15.88
-17.96
-20.16
-22.26
-24.13
-25.81
-27.31
-28.63
-29.64
-30.18
-30.16
-29.67
-28.94
-28.30
-27.92
-27.73
-27.39
-26.47
-24.66
-21.93
-18.58
-15.01
-11.60
-8.61
-6.20
-4.50
-3.66
-3.68
-4.39
-5.28
-5.67
-5.01
-3.09
-0.15
3.19
6.30
8.76
10.50
11.77
12.99
14.66
17.15
20.59
24.58
28.20
30.20
29.52
25.79
19.66
12.61
6.36
2.13
0.29
0.46
1.95
4.22
7.04
10.28
13.59
16.28
17.49
16.63
13.64
9.11
4.06
-0.43
-3.58
-5.14
-5.37
-4.90
-4.49
-4.69
-5.66
-7.13
-8.54
-9.40
-9.51
-9.15
-8.87
-9.20
-10.39
-12.25
-14.32
-16.10
-17.33
-18.05
-18.52
-18.99
-19.54
-20.04
-20.18
-19.58
-17.98
-15.29
-11.72
-7.74
-4.02
-1.29
-0.03
-0.31
-1.74
-3.55
-4.87
-4.97
-3.45
-0.28
4.23
9.43
14.51
18.57
20.89
21.13
19.45
16.41
12.78
9.24
6.14
3.55
1.33
-0.67
-2.54
-4.30
-5.92
-7.43
-8.91
-10.51
-12.37
-14.62
-17.24
-20.09
-22.86
-25.18
-26.68
-27.07
-26.27
-24.37
-21.58
-18.13
-14.21
-9.96
-5.51
-1.07
3.12
6.78
9.72
11.91
13.50
14.78
16.01
17.37
18.85
20.28
21.45
22.21
22.63
23.02
23.79
25.33
27.75
30.82
34.02
36.76
38.63
39.51
39.50
38.67
36.96
34.23
30.49
26.09
21.57
17.40
13.70
10.17
6.45
2.53
-1.06
-3.42
-3.92
-2.72
-0.84
0.32
-0.26
-2.63
-5.91
-8.81
-10.43
-10.64
-10.00
-9.30
-9.08
-9.38
-9.91
-10.29
-10.27
-9.84
-9.08
-8.18
-7.39
-7.11
-7.91
-10.26
-14.30
-19.66
-25.46
-30.69
-34.51
-36.54
-36.84
-35.69
-33.39
-30.14
-26.16
-21.87
-17.91
-14.93
-13.23
-12.53
-11.99
-10.72
-8.30
-5.09
-1.96
0.30
1.57
2.51
4.08
6.83
10.38
13.52
14.95
14.01
11.12
7.56
4.71
3.36
3.39
4.02
4.33
3.74
2.13
-0.29
-3.18
-6.29
-9.32
-11.91
-13.52
-13.61
-11.79
-8.06
-2.82
3.24
9.37
14.94
19.48
22.76
24.71
25.42
25.11
24.11
22.73
21.26
19.81
18.34
16.71
14.77
12.47
9.87
7.18
4.66
2.54
0.92
-0.27
-1.23
-2.22
-3.45
-4.98
-6.77
-8.70
-10.67
-12.63
-14.59
-16.57
-18.54
-20.37
-21.82
-22.62
-22.50
-21.27
-18.93
-15.61
-11.61
-7.24
-2.80
1.46
5.37
8.77
11.49
13.36
14.27
14.23
13.42
12.12
10.68
9.38
8.38
7.72
7.39
7.29
7.34
7.47
7.61
7.71
7.72
7.63
7.44
7.11
6.54
5.61
4.18
2.20
-0.18
-2.71
-5.10
-7.16
-8.87
-10.42
-11.96
-13.49
-14.76
-15.39
-14.99
-13.43
-10.86
-7.67
-4.29
-1.06
1.82
4.29
6.36
8.11
9.64
11.00
12.19
13.11
13.67
13.82
13.63
13.22
12.69
12.07
11.23
10.10
8.69
7.17
5.84
4.96
4.64
4.85
5.43
6.22
7.07
7.86
8.41
8.49
7.87
6.34
3.79
0.26
-4.04
-8.67
-12.97
-16.21
-17.77
-17.34
-15.04
-11.35
-6.83
-1.92
3.12
8.15
13.05
17.52
21.27
24.03
25.75
26.57
26.73
26.44
25.79
24.76
23.23
21.07
18.10
14.20
9.46
4.25
-0.71
-4.61
-6.84
-7.33
-6.59
-5.60
-5.32
-6.36
-8.84
-12.51
-16.96
-21.87
-26.97
-31.98
-36.44
-39.68
-41.01
-39.95
-36.46
-30.89
-23.89
-16.17
-8.32
-0.75
6.32
12.81
18.70
24.02
28.78
32.91
36.13
38.10
38.53
37.48
35.36
32.83
30.43
28.32
26.18
23.48
19.82
15.13
9.64
3.68
-2.53
-8.79
-14.68
-19.48
-22.23
-22.15
-19.09
-13.69
-7.26
-1.23
3.28
5.75
6.24
5.22
3.38
1.45
0.10
-0.18
0.81
2.95
5.81
8.86
11.60
13.64
14.72
14.70
13.56
11.44
8.65
5.68
2.96
0.84
-0.59
-1.43
-1.83
-1.82
-1.30
-0.11
1.82
4.31
6.92
9.12
10.51
10.95
10.64
9.92
9.07
8.20
7.21
5.92
4.18
1.98
-0.58
-3.37
-6.23
-8.99
-11.38
-13.06
-13.72
-13.21
-11.67
-9.48
-7.16
-5.13
-3.57
-2.43
-1.56
-0.80
-0.10
0.54
1.07
1.52
1.95
2.43
3.01
3.67
4.39
5.05
5.45
5.31
4.38
2.61
0.23
-2.24
-4.28
-5.59
-6.32
-6.92
-7.96
-9.76
-12.32
-15.36
-18.51
-21.50
-24.11
-26.14
-27.25
-27.07
-25.38
-22.19
-17.87
-12.95
-7.93
-3.13
1.32
5.37
8.94
11.86
13.99
15.26
15.78
15.79
15.58
15.39
15.28
15.20
15.01
14.59
13.87
12.86
11.60
10.11
8.43
6.62
4.80
3.19
2.07
1.66
1.98
2.81
3.78
4.47
4.67
4.39
3.88
3.40
3.14
3.19
3.58
4.42
5.86
8.08
11.13
14.87
18.91
22.75
25.87
27.90
28.66
28.16
26.59
24.23
21.40
18.33
15.16
11.95
8.68
5.41
2.23
-0.72
-3.37
-5.71
-7.84
-9.81
-11.66
-13.36
-14.88
-16.22
-17.41
-18.48
-19.35
-19.86
-19.87
-19.35
-18.50
-17.73
-17.45
-17.99
-19.38
-21.42
-23.72
-25.80
-27.22
-27.66
-26.95
-25.13
-22.43
-19.22
-15.95
-12.92
-10.29
-8.04
-6.03
-4.18
-2.50
-1.05
0.07
0.81
1.21
1.30
1.14
0.74
0.09
-0.85
-2.08
-3.61
-5.38
-7.29
-9.13
-10.65
-11.67
-12.14
-12.23
-12.28
-12.66
-13.60
-15.08
-16.78
-18.29
-19.30
-19.76
-19.96
-20.32
-21.24
-22.78
-24.59
-25.99
-26.16
-24.39
-20.33
-14.10
-6.31
2.10
10.01
16.46
20.94
23.50
24.76
25.78
27.63
31.12
36.48
43.27
50.45
56.63
60.43
60.85
57.50
50.76
41.69
31.63
21.76
12.67
4.28
-3.96
-12.57
-21.67
-30.81
-39.27
-46.37
-51.78
-55.52
-57.75
-58.51
-57.72
-55.28
-51.42
-46.77
-42.12
-38.04
-34.53
-31.05
-26.87
-21.60
-15.54
-9.57
-4.75
-1.74
-0.57
-0.54
-0.73
-0.46
0.42
1.52
2.32
2.62
2.69
3.18
4.59
6.88
9.45
11.36
11.94
11.15
9.56
7.97
6.84
5.97
4.72
2.53
-0.55
-3.71
-5.87
-6.36
-5.39
-3.97
-3.34
-4.18
-6.21
-8.28
-8.97
-7.42
-3.68
1.22
5.86
9.08
10.57
10.94
11.38
13.01
16.25
20.52
24.48
26.72
26.66
24.96
23.35
23.79
27.38
33.75
41.21
47.56
51.06
51.06
47.90
42.39
35.28
27.06
18.10
8.94
0.32
-7.01
-12.70
-16.89
-20.08
-22.75
-24.99
-26.49
-26.82
-25.73
-23.41
-20.42
-17.42
-14.83
-12.80
-11.18
-9.74
-8.24
-6.51
-4.48
-2.16
0.36
2.88
5.19
7.16
8.88
10.67
13.15
17.02
22.95
31.29
41.88
53.81
65.57
75.29
81.37
82.95
80.20
74.14
66.11
57.22
48.05
38.88
30.04
22.20
16.13
12.30
10.47
9.74
9.04
7.90
6.70
6.37
7.59
10.01
12.14
12.07
8.49
1.50
-7.45
-16.40
-23.84
-29.33
-33.25
-36.10
-37.91
-38.11
-36.07
-31.84
-26.50
-21.81
-19.46
-20.16
-23.36
-27.57
-31.06
-32.64
-31.99
-29.58
-26.23
-22.72
-19.37
-16.15
-12.85
-9.42
-6.20
-3.89
-3.19
-4.50
-7.57
-11.56
-15.31
-17.81
-18.56
-17.74
-16.00
-14.07
-12.36
-10.85
-9.20
-7.10
-4.59
-2.11
-0.32
0.23
-0.65
-2.63
-5.10
-7.45
-9.33
-10.74
-11.93
-13.08
-14.10
-14.64
-14.23
-12.55
-9.64
-5.94
-2.12
1.26
4.00
6.39
9.00
12.41
16.86
22.09
27.53
32.50
36.56
39.49
41.29
41.88
41.17
39.10
35.88
32.10
28.57
25.93
24.34
23.28
21.94
19.64
16.38
12.88
10.23
9.33
10.41
12.92
15.78
17.93
18.69
17.86
15.74
12.83
9.70
6.87
4.68
3.27
2.55
2.24
1.96
1.40
0.39
-1.07
-2.80
-4.56
-6.11
-7.28
-7.97
-8.23
-8.08
-7.48
-6.30
-4.31
-1.41
2.22
6.07
9.40
11.54
12.16
11.38
9.76
8.06
7.03
7.13
8.58
11.22
14.69
18.45
22.04
25.14
27.74
29.97
32.00
33.78
34.99
35.11
33.67
30.52
25.95
20.74
15.87
12.19
10.13
9.40
9.17
8.34
6.09
2.20
-2.76
-7.79
-11.88
-14.56
-16.04
-17.07
-18.45
-20.64
-23.54
-26.62
-29.26
-31.03
-31.80
-31.75
-31.16
-30.29
-29.36
-28.45
-27.59
-26.74
-25.84
-24.88
-23.93
-23.19
-22.88
-23.09
-23.64
-24.09
-23.95
-22.87
-20.95
-18.61
-16.44
-14.79
-13.61
-12.51
-11.02
-8.94
-6.49
-4.15
-2.35
-1.22
-0.56
-0.14
0.12
0.17
0.07
0.21
1.26
3.66
6.97
9.66
9.51
4.81
-4.49
-16.30
-27.06
-33.40
-33.61
-28.49
-20.74
-13.49
-8.80
-7.11
-7.70
-9.85
-13.45
-18.81
-25.70
-32.44
-35.84
-32.42
-20.38
-0.95
21.41
40.48
50.76
49.61
37.99
19.66
-0.58
-18.30
-30.05
-33.25
-25.91
-7.01
22.57
59.40
97.69
130.94
154.33
166.54
169.74
167.96
164.57
160.18
152.84
139.79
119.83
94.58
67.89
43.78
24.24
8.49
-6.85
-25.20
-48.03
-74.02
-99.50
-119.49
-130.01
-129.79
-120.61
-106.94
-93.28
-82.26
-74.24
-67.93
-61.88
-55.43
-49.75
-46.45
-48.07
-56.66
-73.22
-97.95
-130.45
-169.45
-212.32
-254.72
-285.88
-296.82
-283.16
-247.36
-198.51
-148.48
-107.08
-78.67
-62.01
-52.38
-45.55
-39.04
-31.86
-23.38
-12.55
2.27
22.65
49.28
81.81
118.43
154.15
185.27
209.51
226.06
235.40
238.62
237.09
232.01
223.93
213.29
201.29
189.58
179.82
172.60
166.48
157.80
141.84
114.76
75.98
29.52
-17.29
-56.44
-82.26
-93.21
-91.78
-82.74
-71.01
-60.08
-51.54
-45.94
-43.59
-44.71
-49.17
-55.92
-63.13
-68.53
-70.30
-67.64
-61.18
-52.66
-44.22
-37.58
-33.44
-31.30
-29.78
-27.23
-22.45
-15.24
-6.57
1.87
8.41
12.15
13.28
12.84
12.05
11.68
11.73
11.68
11.00
9.43
7.36
5.53
4.55
4.51
5.09
5.68
6.08
6.53
7.48
9.04
10.52
10.46
7.30
0.30
-9.81
-20.79
-29.61
-33.60
-31.49
-23.92
-13.12
-2.10
6.44
10.91
11.19
8.44
4.43
0.86
-1.28
-1.83
-1.33
-0.61
-0.34
-0.79
-1.86
-3.21
-4.41
-5.14
-5.28
-4.99
-4.89
-5.85
-8.80
-14.33
-22.20
-31.17
-39.23
-44.28
-44.89
-40.78
-32.92
-23.08
-13.24
-5.07
0.44
2.97
2.84
0.76
-2.25
-5.16
-7.12
-7.81
-7.47
-6.80
-6.61
-7.39
-9.08
-11.05
-12.30
-11.63
-8.08
-1.22
8.64
20.40
32.47
43.21
51.48
57.09
60.87
64.16
68.10
72.90
77.65
80.72
80.60
76.66
69.42
60.26
50.64
41.49
33.04
25.01
17.14
9.51
2.68
-2.52
-5.40
-5.62
-3.32
0.85
5.65
9.26
9.43
4.04
-8.13
-26.69
-49.35
-72.51
-92.32
-105.93
-112.30
-112.28
-107.93
-101.60
-95.15
-89.57
-85.09
-81.51
-78.51
-75.76
-72.81
-68.93
-63.15
-54.51
-42.54
-27.70
-11.55
3.67
15.90
23.93
27.89
28.96
28.61
27.86
26.99
26.00
25.31
26.30
30.98
41.02
56.54
75.52
94.25
108.68
116.04
115.83
109.68
100.33
90.21
80.65
71.70
62.92
54.04
45.38
37.59
31.10
25.64
20.35
14.12
6.34
-2.68
-11.78
-19.46
-24.57
-26.76
-26.62
-25.29
-23.98
-23.48
-23.99
-25.18
-26.58
-27.76
-28.52
-28.89
-28.99
-28.90
-28.68
-28.30
-27.76
-27.04
-26.17
-25.23
-24.33
-23.61
-23.20
-23.14
-23.34
-23.66
-23.97
-24.30
-24.84
-25.81
-27.28
-29.03
-30.67
-31.79
-32.24
-32.12
-31.69
-31.13
-30.39
-29.15
-27.10
-24.08
-20.22
-15.81
-11.12
-6.29
-1.35
3.61
8.29
12.13
14.57
15.33
14.69
13.49
12.83
13.54
15.82
19.02
22.04
23.76
23.58
21.50
17.99
13.51
8.36
2.64
-3.49
-9.54
-14.71
-18.17
-19.41
-18.50
-16.04
-12.88
-9.78
-7.18
-5.17
-3.66
-2.46
-1.43
-0.43
0.66
1.99
3.74
6.06
9.02
12.44
15.91
18.98
21.31
23.01
24.55
26.52
29.20
32.34
35.16
36.86
36.98
35.68
33.48
30.95
28.28
25.37
22.09
18.62
15.51
13.43
12.74
13.26
14.30
15.01
14.77
13.40
11.15
8.48
5.83
3.49
1.59
0.13
-0.97
-1.83
-2.68
-3.87
-5.82
-8.96
-13.45
-19.05
-25.00
-30.22
-33.58
-34.35
-32.52
-28.82
-24.51
-20.86
-18.71
-18.17
-18.66
-19.26
-19.26
-18.52
-17.53
-17.00
-17.29
-18.14
-18.88
-19.05
-18.98
-19.85
-23.23
-30.37
-41.77
-57.38
-76.96
-100.13
-125.90
-151.70
-173.07
-184.37
-180.71
-160.12
-124.74
-80.22
-33.67
8.89
44.11
71.45
92.02
107.24
118.03
124.91
128.54
130.12
131.23
133.22
136.48
140.27
143.02
143.11
139.59
132.52
122.83
111.81
100.58
89.69
79.15
68.62
57.81
46.70
35.57
24.84
14.74
4.98
-5.18
-16.55
-29.49
-43.33
-56.27
-65.73
-69.05
-64.48
-51.76
-32.42
-9.41
13.63
33.19
46.68
52.92
52.10
45.57
35.33
23.57
12.23
2.78
-4.03
-8.12
-10.02
-10.64
-10.93
-11.57
-12.86
-14.68
-16.64
-18.24
-19.03
-18.80
-17.75
-16.45
-15.79
-16.50
-18.71
-21.75
-24.33
-25.19
-23.79
-20.65
-16.95
-13.84
-11.69
-9.93
-7.60
-4.08
0.38
4.77
7.88
9.03
8.34
6.57
4.68
3.41
3.18
4.27
6.92
11.22
16.91
23.19
28.95
33.12
35.15
35.12
33.64
31.46
29.23
27.40
26.28
26.15
27.13
29.02
31.13
32.46
31.97
29.04
23.75
16.83
9.36
2.40
-3.34
-7.58
-10.53
-12.68
-14.66
-17.05
-20.28
-24.58
-29.97
-36.18
-42.63
-48.36
-52.15
-52.76
-49.50
-42.61
-33.45
-24.19
-17.03
-13.57
-14.31
-18.75
-25.76
-34.02
-42.25
-49.32
-54.35
-56.77
-56.63
-54.56
-51.70
-49.20
-47.83
-47.63
-48.14
-48.65
-48.59
-47.73
-46.03
-43.62
-40.64
-37.32
-33.98
-31.00
-28.64
-26.93
-25.64
-24.39
-22.85
-20.95
-18.91
-17.19
-16.32
-16.61
-18.03
-20.13
-22.06
-22.77
-21.34
-17.29
-10.75
-2.54
6.08
13.82
19.66
23.21
24.71
24.83
24.36
23.90
23.72
23.75
23.79
23.63
23.19
22.51
21.65
20.58
19.23
17.50
15.40
13.00
10.48
7.99
5.62
3.36
1.17
-0.99
-3.12
-5.22
-7.29
-9.36
-11.44
-13.57
-15.76
-18.04
-20.44
-22.94
-25.51
-28.00
-30.16
-31.74
-32.58
-32.73
-32.42
-31.92
-31.31
-30.31
-28.37
-24.98
-19.98
-13.77
-7.15
-0.97
4.30
8.68
12.63
16.61
20.79
24.89
28.38
30.80
32.04
32.27
31.88
31.12
30.01
28.32
25.79
22.27
17.80
12.60
7.01
1.35
-4.10
-9.07
-13.28
-16.51
-18.71
-20.00
-20.71
-21.31
-22.18
-23.53
-25.25
-26.91
-27.91
-27.75
-26.16
-23.25
-19.39
-15.06
-10.65
-6.41
-2.49
0.90
3.52
5.11
5.55
5.02
4.00
3.22
3.47
5.36
9.24
14.99
22.06
29.51
36.10
40.67
42.42
41.18
37.53
32.54
27.52
23.49
20.97
19.80
19.28
18.48
16.59
13.27
8.63
3.19
-2.39
-7.61
-12.30
-16.59
-20.67
-24.55
-27.87
-29.90
-29.82
-27.14
-22.09
-15.66
-9.30
-4.42
-1.90
-1.86
-3.77
-6.72
-9.78
-12.16
-13.16
-12.14
-8.57
-2.23
6.57
16.82
27.00
35.49
41.10
43.44
43.02
40.94
38.45
36.45
35.21
34.39
33.36
31.68
29.29
26.48
23.66
21.05
18.50
15.59
11.84
7.00
1.13
-5.36
-11.90
-17.89
-22.91
-26.67
-29.06
-30.01
-29.47
-27.36
-23.61
-18.39
-12.19
-5.88
-0.49
3.12
4.56
4.04
2.28
0.19
-1.48
-2.24
-1.98
-0.83
0.92
2.81
4.32
4.95
4.51
3.22
1.81
1.21
2.09
4.49
7.72
10.59
11.96
11.19
8.31
3.89
-1.33
-6.75
-12.03
-17.01
-21.60
-25.65
-28.98
-31.42
-32.85
-33.24
-32.67
-31.29
-29.32
-27.06
-24.74
-22.38
-19.81
-16.74
-12.99
-8.63
-4.05
0.20
3.65
6.15
7.90
9.36
10.98
12.99
15.30
17.54
19.28
20.16
20.07
19.14
17.73
16.36
15.57
15.82
17.37
20.17
23.84
27.71
30.97
32.87
33.01
31.41
28.58
25.24
21.99
19.17
16.76
14.67
12.94
11.94
12.19
14.04
17.29
21.12
24.45
26.46
27.03
26.82
26.80
27.63
29.22
30.80
31.32
30.10
27.19
23.29
19.36
16.15
13.91
12.52
11.66
11.12
10.80
10.68
10.64
10.46
9.89
