1653563734.00
64.000000
-0.00
-0.00
-0.00
-0.00
-0.00
-0.00
-0.00
-0.00
-0.00
-0.00
0.00
0.01
0.01
-0.00
-0.03
-0.05
-0.05
0.00
0.13
0.36
0.66
1.01
1.37
1.72
2.06
2.40
2.79
3.24
3.80
4.42
5.06
5.66
6.20
6.68
7.15
7.68
8.31
9.14
10.09
11.04
11.88
12.56
13.14
13.76
14.65
15.96
17.91
20.32
22.90
25.38
27.58
29.57
31.68
34.32
37.81
42.54
48.15
54.10
59.83
64.97
69.58
74.14
79.34
85.71
93.76
103.00
112.62
121.73
129.77
136.75
143.30
150.75
157.77
166.64
177.95
191.79
206.97
220.57
228.25
225.36
208.53
176.87
132.76
80.05
23.07
-34.94
-92.44
-149.16
-205.23
-260.38
-313.74
-363.86
-409.80
-450.87
-486.48
-515.77
-537.35
-549.46
-550.31
-538.79
-514.66
-479.12
-434.31
-382.88
-327.50
-270.40
-213.30
-157.43
-103.78
-53.21
-6.70
34.82
70.64
100.45
124.39
142.99
157.05
167.35
174.54
178.99
180.88
180.30
177.42
172.58
166.28
159.13
151.65
144.20
136.83
129.37
121.58
113.27
104.47
95.48
86.72
78.64
71.45
65.04
59.02
52.91
46.32
39.21
31.90
24.94
18.83
13.88
10.00
6.80
3.78
0.44
-3.65
-8.81
-15.07
-21.81
-27.53
-30.06
-27.31
-18.31
-3.98
12.91
28.68
40.23
46.19
47.15
45.06
41.99
39.22
36.87
34.53
31.73
28.51
25.39
22.89
21.13
19.74
18.23
16.42
14.76
14.05
14.92
17.21
19.87
21.40
20.64
17.37
12.43
7.28
3.19
0.71
-0.38
-0.72
-0.89
-1.12
-1.34
-1.45
-1.47
-1.60
-1.94
-2.51
-3.14
-3.53
-3.46
-2.89
-2.01
-1.09
-0.42
-0.15
-0.27
-0.60
-0.91
-1.05
-0.92
-0.58
-0.15
0.23
0.49
0.61
0.65
0.75
1.03
1.57
2.45
3.62
4.99
6.40
7.67
8.69
9.41
9.92
10.36
10.86
11.42
11.89
12.02
11.54
10.35
8.46
6.14
3.56
0.90
-1.72
-4.25
-6.68
-8.95
-10.97
-12.62
-13.80
-14.50
-14.78
-14.74
-14.50
-14.13
-13.59
-12.80
-11.70
-10.34
-8.88
-7.54
-6.51
-5.85
-5.51
-5.28
-5.00
-4.62
-4.18
-3.83
-3.67
-3.71
-3.81
-3.84
-3.67
-3.32
-2.93
-2.67
-2.66
-2.88
-3.17
-3.34
-3.24
-2.90
-2.46
-2.15
-2.12
-2.42
-2.94
-3.50
-3.94
-4.20
-4.34
-4.46
-4.65
-4.97
-5.35
-5.71
-6.02
-6.28
-6.60
-7.08
-7.77
-8.64
-9.53
-10.24
-10.52
-10.21
-9.27
-7.82
-6.07
-4.25
-2.53
-1.00
0.33
1.47
2.39
3.00
3.26
3.18
2.90
2.60
2.47
2.62
2.98
3.42
3.77
3.93
3.95
3.90
3.89
3.95
4.00
3.95
3.67
3.15
2.45
1.69
0.99
0.36
-0.23
-0.91
-1.79
-2.91
-4.26
-5.76
-7.30
-8.81
-10.28
-11.71
-13.11
-14.51
-15.91
-17.30
-18.67
-20.02
-21.25
-22.29
-23.03
-23.42
-23.46
-23.20
-22.67
-21.87
-20.73
-19.08
-16.80
-13.86
-10.36
-6.54
-2.62
1.24
5.05
8.92
12.91
16.97
20.86
24.26
26.89
28.60
29.41
29.42
28.74
27.44
25.58
23.29
20.76
18.24
15.96
14.01
12.38
10.93
9.54
8.14
6.79
5.58
4.62
3.91
3.36
2.84
2.19
1.32
0.22
-1.09
-2.58
-4.21
-5.88
-7.48
-8.81
-9.67
-9.90
-9.39
-8.14
-6.19
-3.69
-0.83
2.06
4.66
6.63
7.79
8.14
7.91
7.41
6.92
6.63
6.52
6.51
6.50
6.52
6.66
7.04
7.69
8.51
9.25
9.64
9.53
8.88
7.83
6.57
5.26
3.98
2.79
1.70
0.76
0.02
-0.51
-0.89
-1.25
-1.79
-2.66
-3.94
-5.52
-7.22
-8.75
-9.86
-10.38
-10.23
-9.46
-8.21
-6.63
-4.88
-3.10
-1.35
0.31
1.85
3.21
4.36
5.28
5.95
6.39
6.66
6.81
6.96
7.16
7.45
7.82
8.22
8.55
8.76
8.80
8.70
8.49
8.20
7.82
7.30
6.60
5.72
4.71
3.61
2.48
1.34
0.19
-0.96
-2.04
-3.01
-3.85
-4.56
-5.24
-5.98
-6.86
-7.88
-8.93
-9.87
-10.50
-10.68
-10.30
-9.35
-7.91
-6.10
-4.12
-2.22
-0.62
0.50
1.07
1.13
0.83
0.38
-0.01
-0.17
-0.09
0.19
0.55
0.90
1.25
1.68
2.30
3.15
4.17
5.20
6.03
6.53
6.66
6.48
6.08
5.54
4.92
4.25
3.60
3.02
2.55
2.20
1.93
1.70
1.46
1.21
0.96
0.71
0.44
0.11
-0.30
-0.77
-1.20
-1.47
-1.41
-0.91
0.08
1.47
3.08
4.63
5.90
6.74
7.12
7.10
6.75
6.05
4.96
3.40
1.40
-0.85
-3.05
-4.90
-6.21
-6.98
-7.32
-7.40
-7.34
-7.14
-6.77
-6.20
-5.43
-4.46
-3.32
-1.98
-0.46
1.18
2.76
4.05
4.84
5.02
4.64
3.86
2.91
2.02
1.37
1.05
1.07
1.36
1.75
1.99
1.86
1.19
-0.05
-1.68
-3.40
-4.86
-5.76
-5.98
-5.60
-4.82
-3.82
-2.73
-1.54
-0.23
1.20
2.64
3.90
4.78
5.18
5.09
4.58
3.79
2.79
1.69
0.54
-0.59
-1.63
-2.57
-3.48
-4.47
-5.69
-7.23
-9.07
-11.05
-12.92
-14.40
-15.25
-15.33
-14.63
-13.19
-11.13
-8.56
-5.61
-2.38
0.98
4.35
7.57
10.52
13.01
14.91
16.07
16.43
16.00
14.89
13.23
11.20
8.91
6.48
4.02
1.72
-0.17
-1.44
-1.97
-1.82
-1.21
-0.44
0.25
0.79
1.24
1.74
2.38
3.14
3.90
4.51
4.84
4.88
4.71
4.42
4.10
3.79
3.48
3.17
2.89
2.75
2.85
3.23
3.87
4.58
5.12
5.27
4.96
4.30
3.52
2.84
2.38
2.07
1.69
1.00
-0.15
-1.70
-3.48
-5.22
-6.72
-7.88
-8.73
-9.35
-9.86
-10.38
-10.93
-11.46
-11.81
-11.72
-10.98
-9.50
-7.40
-4.98
-2.62
-0.62
0.93
2.10
3.06
3.89
4.54
4.88
4.84
4.44
3.91
3.50
3.41
3.64
4.07
4.51
4.86
5.16
5.54
6.11
6.86
7.64
8.19
8.31
7.96
7.28
6.51
5.85
5.34
4.87
4.25
3.33
2.12
0.79
-0.41
-1.29
-1.74
-1.83
-1.71
-1.62
-1.77
-2.32
-3.34
-4.83
-6.67
-8.67
-10.58
-12.13
-13.10
-13.38
-13.02
-12.17
-11.04
-9.81
-8.55
-7.20
-5.66
-3.87
-1.87
0.18
2.10
3.76
5.15
6.31
7.30
8.10
8.67
8.92
8.86
8.56
8.13
7.69
7.29
6.96
6.70
6.51
6.40
6.39
6.44
6.55
6.68
6.81
6.90
6.88
6.66
6.19
5.45
4.52
3.55
2.65
1.87
1.14
0.26
-0.97
-2.74
-5.06
-7.81
-10.71
-13.39
-15.53
-16.88
-17.30
-16.82
-15.52
-13.60
-11.28
-8.79
-6.32
-3.98
-1.80
0.24
2.13
3.84
5.31
6.46
7.29
7.83
8.17
8.39
8.53
8.58
8.46
8.09
7.45
6.58
5.57
4.59
3.74
3.07
2.51
1.94
1.29
0.53
-0.24
-0.90
-1.34
-1.59
-1.81
-2.17
-2.80
-3.64
-4.51
-5.11
-5.21
-4.71
-3.72
-2.51
-1.39
-0.66
-0.48
-0.82
-1.51
-2.24
-2.69
-2.59
-1.81
-0.42
1.38
3.31
5.05
6.33
6.97
6.91
6.24
5.13
3.81
2.44
1.03
-0.60
-2.67
-5.23
-8.11
-10.86
-12.98
-14.11
-14.20
-13.52
-12.41
-11.09
-9.49
-7.31
-4.30
-0.47
3.83
7.93
11.12
12.92
13.19
12.13
10.16
7.71
5.20
2.89
0.97
-0.52
-1.69
-2.73
-3.86
-5.16
-6.51
-7.65
-8.28
-8.26
-7.71
-6.99
-6.57
-6.80
-7.75
-9.22
-10.80
-12.07
-12.70
-12.57
-11.77
-10.44
-8.74
-6.75
-4.42
-1.71
1.40
4.76
8.10
11.07
13.39
14.92
15.70
15.90
15.71
15.27
14.64
13.76
12.57
11.01
9.07
6.87
4.57
2.42
0.63
-0.71
-1.68
-2.50
-3.44
-4.68
-6.19
-7.71
-8.86
-9.29
-8.89
-7.83
-6.48
-5.26
-4.43
-3.97
-3.57
-2.81
-1.35
0.86
3.56
6.28
8.51
9.91
10.33
9.73
8.13
5.52
2.02
-2.03
-6.01
-9.23
-11.16
-11.73
-11.30
-10.51
-9.85
-9.40
-8.80
-7.52
-5.20
-1.98
1.58
4.69
6.77
7.64
7.58
7.05
6.51
6.14
5.81
5.21
4.02
2.07
-0.56
-3.60
-6.65
-9.40
-11.60
-13.21
-14.34
-15.21
-16.08
-17.16
-18.54
-20.20
-21.97
-23.65
-25.00
-25.88
-26.19
-25.84
-24.72
-22.76
-19.92
-16.36
-12.42
-8.51
-4.85
-1.32
2.54
7.24
13.04
19.65
26.23
31.70
35.12
36.08
34.79
31.90
28.20
24.29
20.47
16.83
13.33
10.00
6.98
4.48
2.65
1.59
1.32
1.76
2.79
4.21
5.71
6.93
7.48
7.07
5.59
3.17
0.12
-3.08
-5.95
-8.11
-9.36
-9.82
-9.78
-9.68
-9.82
-10.32
-10.95
-11.38
-11.23
-10.34
-8.73
-6.60
-4.09
-1.23
2.01
5.66
9.54
13.22
16.13
17.73
17.77
16.32
13.80
10.81
7.93
5.56
3.86
2.73
1.93
1.19
0.26
-0.96
-2.49
-4.30
-6.37
-8.71
-11.27
-13.94
-16.40
-18.17
-18.77
-17.90
-15.57
-12.22
-8.54
-5.27
-2.85
-1.34
-0.40
0.48
1.68
3.31
5.26
7.32
9.39
11.50
13.71
15.98
18.04
19.57
20.29
20.26
19.80
19.40
19.49
20.24
21.58
23.31
25.26
27.35
29.56
31.73
33.55
34.49
33.98
31.73
27.85
22.90
17.62
12.72
8.58
5.24
2.46
-0.13
-2.94
-6.35
-10.62
-15.83
-21.69
-27.48
-32.15
-34.65
-34.35
-31.33
-26.41
-20.87
-15.96
-12.51
-10.69
-10.11
-10.13
-10.10
-9.61
-8.60
-7.20
-5.67
-4.24
-3.09
-2.39
-2.25
-2.80
-4.07
-5.93
-8.10
-10.13
-11.52
-11.89
-11.08
-9.22
-6.69
-4.01
-1.71
-0.16
0.43
0.08
-1.04
-2.67
-4.48
-6.18
-7.54
-8.52
-9.20
-9.74
-10.22
-10.60
-10.65
-10.16
-9.02
-7.44
-5.78
-4.43
-3.56
-3.06
-2.61
-1.89
-0.71
1.01
3.40
6.73
11.34
17.45
24.89
32.99
40.69
46.89
50.76
51.83
50.05
45.66
39.14
31.19
22.75
14.88
8.44
3.80
0.73
-1.52
-3.81
-6.73
-10.36
-14.31
-17.98
-20.84
-22.67
-23.55
-23.76
-23.62
-23.35
-23.11
-22.97
-22.96
-23.08
-23.31
-23.54
-23.62
-23.34
-22.50
-20.94
-18.55
-15.33
-11.41
-7.09
-2.78
1.07
4.10
6.27
7.86
9.47
11.77
15.18
19.66
24.62
29.11
32.17
33.14
31.89
28.73
24.18
18.74
12.77
6.48
0.10
-6.07
-11.63
-16.08
-18.97
-20.07
-19.38
-17.24
-14.25
-11.14
-8.63
-7.25
-7.19
-8.34
-10.38
-12.85
-15.31
-17.35
-18.64
-18.98
-18.39
-17.12
-15.58
-14.18
-13.12
-12.27
-11.20
-9.42
-6.60
-2.83
1.39
5.22
7.79
8.49
7.17
4.29
0.77
-2.19
-3.55
-2.69
0.32
4.80
9.65
13.76
16.32
17.10
16.45
15.09
13.81
13.09
12.91
12.79
12.05
10.16
7.01
2.97
-1.30
-5.12
-8.04
-9.91
-10.78
-10.85
-10.31
-9.34
-8.13
-6.81
-5.46
-4.04
-2.45
-0.65
1.24
2.88
3.78
3.50
1.79
-1.22
-5.08
-9.05
-12.41
-14.62
-15.53
-15.34
-14.54
-13.67
-13.17
-13.18
-13.63
-14.20
-14.54
-14.36
-13.50
-11.97
-9.96
-7.80
-5.92
-4.77
-4.72
-5.91
-8.17
-11.07
-13.98
-16.24
-17.38
-17.22
-15.93
-13.98
-12.00
-10.60
-10.30
-11.31
-13.56
-16.63
-19.86
-22.46
-23.80
-23.51
-21.59
-18.38
-14.45
-10.51
-7.27
-5.25
-4.28
-3.23
-0.03
7.66
21.40
40.94
63.85
86.08
103.27
112.28
112.06
103.72
89.65
72.43
54.13
36.20
19.81
6.22
-3.32
-8.00
-8.03
-4.89
-0.97
1.25
0.15
-4.43
-11.19
-18.08
-23.11
-24.96
-23.17
-17.99
-10.10
-0.43
9.91
19.69
27.67
32.90
34.95
33.91
30.28
24.73
17.88
10.36
2.82
-4.03
-9.55
-13.39
-15.67
-17.01
-18.22
-19.95
-22.42
-25.29
-27.92
-29.62
-30.02
-29.15
-27.41
-25.33
-23.36
-21.68
-20.21
-18.78
-17.26
-15.68
-14.24
-13.16
-12.53
-12.24
-12.07
-11.76
-11.24
-10.58
-9.94
-9.43
-9.04
-8.69
-8.28
-7.85
-7.50
-7.30
-7.14
-6.78
-5.90
-4.41
-2.48
-0.54
0.93
1.65
1.65
1.26
0.86
0.67
0.65
0.54
0.09
-0.79
-1.95
-3.10
-3.94
-4.34
-4.32
-4.04
-3.65
-3.25
-2.86
-2.48
-2.12
-1.78
-1.48
-1.25
-1.17
-1.35
-1.98
-3.18
-4.90
-6.92
-8.89
-10.44
-11.45
-11.99
-12.30
-12.60
-12.97
-13.33
-13.49
-13.22
-12.27
-10.33
-7.06
-2.15
4.39
12.11
20.00
26.77
31.22
32.69
31.26
27.70
23.10
18.52
14.70
12.06
10.75
10.84
12.26
14.76
17.77
20.41
21.73
21.00
18.00
13.18
7.44
1.81
-2.95
-6.58
-9.28
-11.49
-13.63
-15.77
-17.65
-18.76
-18.58
-16.83
-13.62
-9.40
-4.88
-0.79
2.30
4.14
4.78
4.50
3.69
2.73
1.86
1.23
0.89
0.83
1.01
1.34
1.74
2.13
2.46
2.76
3.04
3.36
3.72
4.10
4.45
4.69
4.76
4.61
4.25
3.79
3.41
3.38
3.92
5.14
6.91
8.92
10.73
11.91
12.17
11.40
9.66
7.18
4.30
1.35
-1.36
-3.61
-5.38
-6.82
-8.13
-9.57
-11.22
-12.99
-14.65
-15.95
-16.72
-16.95
-16.72
-16.17
-15.40
-14.46
-13.39
-12.21
-10.92
-9.47
-7.75
-5.62
-2.95
0.21
3.66
7.04
9.99
12.25
13.81
14.89
15.84
17.03
18.66
20.70
22.85
24.64
25.57
25.19
23.32
20.06
15.83
11.24
6.93
3.42
0.95
-0.56
-1.46
-2.17
-3.06
-4.32
-5.87
-7.46
-8.75
-9.45
-9.40
-8.65
-7.48
-6.29
-5.57
-5.68
-6.79
-8.78
-11.26
-13.68
-15.49
-16.30
-15.94
-14.36
-11.63
-7.82
-3.06
2.41
8.19
13.74
18.47
21.88
23.65
23.76
22.44
20.12
17.31
14.48
11.89
9.52
7.12
4.35
0.98
-2.94
-6.98
-10.52
-12.91
-13.76
-12.99
-10.92
-8.07
-4.99
-2.12
0.32
2.32
3.97
5.35
6.46
7.21
7.53
7.44
7.08
6.60
6.11
5.55
4.77
3.65
2.20
0.68
-0.52
-1.04
-0.70
0.33
1.67
2.80
3.26
2.76
1.20
-1.34
-4.65
-8.37
-12.07
-15.28
-17.65
-19.02
-19.54
-19.55
-19.44
-19.43
-19.44
-19.13
-18.03
-15.79
-12.41
-8.23
-3.79
0.36
3.94
6.94
9.56
11.97
14.14
15.83
16.74
16.69
15.80
14.40
12.84
11.28
9.56
7.36
4.45
0.90
-2.86
-6.24
-8.74
-10.16
-10.59
-10.21
-9.15
-7.29
-4.39
-0.30
4.82
10.41
15.57
19.40
21.22
20.85
18.64
15.25
11.50
7.98
4.98
2.48
0.32
-1.58
-3.13
-4.14
-4.47
-4.13
-3.40
-2.71
-2.39
-2.57
-3.09
-3.63
-3.88
-3.69
-3.09
-2.26
-1.40
-0.56
0.34
1.53
3.14
5.13
7.17
8.77
9.45
9.03
7.67
5.81
3.94
2.37
1.22
0.39
-0.23
-0.69
-0.96
-1.03
-0.99
-0.99
-1.21
-1.72
-2.43
-3.12
-3.59
-3.68
-3.41
-2.95
-2.50
-2.23
-2.17
-2.16
-2.00
-1.51
-0.68
0.36
1.43
2.39
3.24
4.02
4.71
5.12
5.01
4.18
2.68
0.86
-0.76
-1.76
-2.00
-1.74
-1.42
-1.41
-1.82
-2.51
-3.15
-3.56
-3.79
-4.13
-4.96
-6.48
-8.62
-11.00
-13.07
-14.38
-14.73
-14.24
-13.24
-12.16
-11.33
-10.91
-10.89
-11.09
-11.29
-11.27
-10.87
-10.06
-8.94
-7.70
-6.52
-5.43
-4.27
-2.65
-0.14
3.53
8.28
13.74
19.28
24.19
27.89
29.93
30.07
28.27
24.69
19.72
13.93
7.97
2.43
-2.32
-6.08
-8.82
-10.61
-11.60
-11.91
-11.71
-11.18
-10.53
-9.88
-9.31
-8.84
-8.41
-7.97
-7.49
-7.00
-6.62
-6.46
-6.66
-7.21
-7.98
-8.73
-9.15
-9.01
-8.18
-6.73
-4.87
-2.92
-1.21
-0.05
0.34
-0.14
-1.43
-3.29
-5.39
-7.28
-8.61
-9.11
-8.72
-7.60
-6.06
-4.43
-2.98
-1.87
-1.12
-0.67
-0.44
-0.33
-0.26
-0.15
0.11
0.65
1.63
3.22
5.54
8.53
11.96
15.41
18.40
20.54
21.62
21.66
20.84
19.37
17.43
15.12
12.51
9.69
6.76
3.81
0.86
-2.12
-5.22
-8.52
-11.99
-15.51
-18.83
-21.69
-23.87
-25.26
-25.90
-25.93
-25.51
-24.72
-23.58
-22.03
-20.00
-17.52
-14.70
-11.67
-8.59
-5.55
-2.62
0.12
2.60
4.76
6.58
8.09
9.38
10.57
11.76
13.02
14.28
15.48
16.51
17.34
18.01
18.68
19.50
20.56
21.83
23.16
24.30
24.99
25.06
24.45
23.20
21.37
18.98
16.02
12.54
8.70
4.82
1.29
-1.60
-3.80
-5.50
-7.04
-8.71
-10.54
-12.32
-13.71
-14.49
-14.66
-14.49
-14.31
-14.42
-14.86
-15.43
-15.83
-15.67
-14.69
-12.72
-9.78
-6.05
-1.91
2.17
5.66
8.15
9.38
9.35
8.30
6.61
4.73
3.08
1.94
1.44
1.60
2.31
3.39
4.61
5.73
6.53
6.91
6.90
6.65
6.39
6.32
6.50
6.84
7.11
7.05
6.43
5.10
2.95
-0.06
-3.87
-8.24
-12.73
-16.76
-19.75
-21.29
-21.21
-19.62
-16.75
-12.91
-8.44
-3.69
0.96
5.07
8.23
10.16
10.78
10.23
8.85
7.02
5.10
3.33
1.85
0.70
-0.15
-0.72
-1.11
-1.41
-1.76
-2.27
-2.97
-3.80
-4.61
-5.24
-5.55
-5.50
-5.12
-4.53
-3.89
-3.36
-3.09
-3.15
-3.48
-4.00
-4.54
-5.04
-5.47
-5.87
-6.27
-6.62
-6.84
-6.85
-6.67
-6.41
-6.24
-6.31
-6.63
-7.11
-7.59
-7.90
-8.00
-7.86
-7.47
-6.74
-5.49
-3.57
-0.96
2.18
5.51
8.61
11.16
12.98
14.10
14.63
14.74
14.56
14.22
13.80
13.41
13.09
12.86
12.58
12.07
11.16
9.77
7.98
6.04
4.21
2.70
1.58
0.79
0.18
-0.38
-0.98
-1.63
-2.31
-3.02
-3.73
-4.40
-4.95
-5.32
-5.45
-5.42
-5.39
-5.57
-6.12
-7.10
-8.38
-9.74
-10.89
-11.58
-11.65
-11.06
-9.87
-8.21
-6.26
-4.22
-2.26
-0.50
1.03
2.41
3.75
5.14
6.58
7.99
9.23
10.20
10.91
11.47
11.98
12.53
13.08
13.52
13.72
13.60
13.09
12.18
10.81
9.00
6.82
4.43
2.04
-0.14
-2.08
-3.86
-5.59
-7.32
-8.94
-10.25
-11.08
-11.40
-11.33
-11.08
-10.83
-10.67
-10.56
-10.45
-10.23
-9.77
-8.88
-7.29
-4.80
-1.38
2.67
6.77
10.13
12.09
12.32
10.93
8.50
5.76
3.40
1.81
0.96
0.56
0.26
-0.18
-0.76
-1.33
-1.73
-1.88
-1.84
-1.73
-1.56
-1.24
-0.53
0.74
2.62
4.94
7.37
9.55
11.25
12.38
12.98
13.11
12.71
11.69
9.93
7.47
4.51
1.44
-1.38
-3.67
-5.38
-6.62
-7.58
-8.40
-9.16
-9.84
-10.40
-10.77
-10.92
-10.79
-10.28
-9.29
-7.71
-5.52
-2.84
0.09
2.89
5.18
6.62
7.11
6.74
5.79
4.56
3.29
2.05
0.79
-0.54
-1.95
-3.26
-4.26
-4.68
-4.40
-3.45
-2.03
-0.42
1.08
2.26
3.03
3.41
3.47
3.28
2.94
2.51
2.06
1.65
1.31
1.07
0.87
0.69
0.51
0.39
0.39
0.59
0.99
1.57
2.25
2.96
3.64
4.19
4.47
4.37
3.82
2.92
1.87
0.96
0.38
0.23
0.44
0.80
1.15
1.32
1.29
1.09
0.75
0.32
-0.21
-0.86
-1.65
-2.60
-3.67
-4.72
-5.57
-6.05
-6.04
-5.57
-4.79
-3.96
-3.26
-2.78
-2.47
-2.27
-2.09
-1.92
-1.79
-1.71
-1.63
-1.51
-1.32
-1.15
-1.08
-1.20
-1.48
-1.81
-2.06
-2.14
-2.09
-2.04
-2.12
-2.44
-3.00
-3.77
-4.65
-5.48
-6.04
-6.08
-5.41
-3.95
-1.88
0.50
2.80
4.73
6.13
6.97
7.28
7.15
6.66
5.93
5.14
4.48
4.11
4.02
4.14
4.31
4.43
4.52
4.70
5.14
6.00
7.30
8.99
10.89
12.79
14.40
15.49
15.81
15.17
13.46
10.76
7.32
3.53
-0.15
-3.33
-5.78
-7.49
-8.59
-9.30
-9.79
-10.18
-10.51
-10.83
-11.19
-11.70
-12.41
-13.37
-14.49
-15.63
-16.57
-17.09
-17.02
-16.23
-14.73
-12.58
-9.91
-6.87
-3.57
-0.12
3.36
6.70
9.65
11.87
13.08
13.11
11.98
9.91
7.24
4.36
1.66
-0.58
-2.19
-3.08
-3.30
-2.92
-2.05
-0.73
1.09
3.52
6.68
10.53
14.83
19.10
22.76
25.20
26.06
25.23
22.91
19.49
15.38
10.96
6.49
2.13
-2.00
-5.77
-9.05
-11.75
-13.78
-15.10
-15.73
-15.66
-14.95
-13.69
-12.09
-10.40
-8.90
-7.76
-7.06
-6.70
-6.54
-6.41
-6.22
-5.90
-5.47
-4.90
-4.19
-3.30
-2.27
-1.13
0.03
1.19
2.41
3.82
5.53
7.55
9.77
11.91
13.71
14.96
15.62
15.80
15.67
15.39
15.08
14.76
14.39
13.95
13.39
12.69
11.79
10.69
9.37
7.89
6.28
4.57
2.73
0.68
-1.68
-4.39
-7.39
-10.52
-13.48
-15.98
-17.75
-18.63
-18.62
-17.81
-16.40
-14.58
-12.51
-10.31
-8.00
-5.59
-3.06
-0.45
2.12
4.45
6.31
7.45
7.72
7.12
5.81
4.07
2.25
0.60
-0.76
-1.86
-2.83
-3.76
-4.65
-5.39
-5.86
-6.03
-5.98
-5.90
-5.98
-6.26
-6.62
-6.88
-6.93
-6.87
-6.96
-7.51
-8.70
-10.51
-12.78
-15.25
-17.71
-20.02
-22.07
-23.73
-24.91
-25.54
-25.62
-25.18
-24.24
-22.80
-20.79
-18.18
-15.01
-11.43
-7.63
-3.82
-0.09
3.47
6.81
9.85
12.48
14.53
15.90
16.54
16.49
15.88
14.91
13.80
12.76
11.89
11.22
10.69
10.20
9.76
9.38
9.14
9.00
8.89
8.65
8.18
7.42
6.48
5.50
4.69
4.21
4.17
4.64
5.64
7.14
9.09
11.45
14.12
16.95
19.70
22.03
23.60
24.11
23.42
21.50
18.49
14.62
10.17
5.50
1.02
-2.82
-5.68
-7.44
-8.27
-8.48
-8.39
-8.10
-7.44
-6.08
-3.73
-0.39
3.61
7.71
11.32
14.05
15.71
16.24
15.67
14.00
11.29
7.71
3.64
-0.46
-4.15
-7.21
-9.70
-11.85
-13.90
-15.97
-18.00
-19.80
-21.23
-22.28
-23.00
-23.55
-24.05
-24.54
-24.98
-25.29
-25.32
-24.94
-24.00
-22.44
-20.24
-17.47
-14.23
-10.65
-6.90
-3.25
-0.04
2.39
3.79
4.20
3.93
3.50
3.50
4.37
6.42
9.72
14.24
19.78
26.01
32.42
38.33
43.03
45.88
46.45
44.66
40.68
34.91
27.84
19.96
11.73
3.59
-4.11
-11.06
-17.03
-21.88
-25.44
-27.53
-27.94
-26.43
-22.93
-17.66
-11.16
-4.26
2.21
7.56
11.43
13.73
14.57
14.11
12.53
10.03
6.96
3.72
0.74
-1.66
-3.30
-4.20
-4.42
-4.01
-2.93
-1.15
1.28
4.15
7.05
9.49
10.99
11.32
10.55
9.10
7.62
6.88
7.45
9.51
12.66
16.05
18.63
19.59
18.65
16.22
13.16
10.34
8.31
7.08
6.22
5.24
3.78
1.84
-0.36
-2.58
-4.70
-6.71
-8.61
-10.26
-11.34
-11.50
-10.59
-8.73
-6.40
-4.27
-2.96
-2.77
-3.58
-4.91
-6.07
-6.42
-5.53
-3.23
0.30
4.65
9.18
13.19
16.02
17.27
16.84
15.03
12.37
9.47
6.81
4.67
3.12
2.06
1.34
0.76
0.08
-0.96
-2.56
-4.70
-7.10
-9.19
-10.32
-9.99
-8.11
-5.08
-1.71
1.06
2.45
2.09
0.00
-3.43
-7.72
-12.39
-17.05
-21.37
-25.08
-27.94
-29.82
-30.70
-30.69
-29.95
-28.59
-26.63
-24.00
-20.68
-16.79
-12.68
-8.84
-5.78
-3.90
-3.32
-3.86
-5.13
-6.67
-8.06
-9.05
-9.56
-9.63
-9.33
-8.70
-7.75
-6.47
-4.92
-3.19
-1.37
0.50
2.44
4.48
6.63
8.80
10.88
12.69
14.15
15.22
16.02
16.74
17.65
18.97
20.83
23.12
25.49
27.36
28.12
27.32
24.77
20.58
15.11
8.79
2.12
-4.42
-10.34
-15.17
-18.68
-21.11
-23.23
-26.16
-30.88
-37.71
-46.22
-55.42
-64.19
-71.61
-77.06
-80.03
-80.06
-76.81
-70.32
-61.34
-51.23
-41.51
-33.18
-26.25
-19.77
-12.52
-3.78
6.07
15.64
23.06
26.86
26.58
23.03
17.97
13.45
11.02
11.31
14.01
18.10
22.35
25.70
27.36
26.83
23.80
18.18
10.17
0.36
-10.22
-20.23
-28.39
-33.82
-36.19
-35.72
-32.96
-28.42
-22.45
-15.13
-6.53
3.13
13.29
23.11
31.70
38.46
43.21
46.24
48.19
49.75
51.49
53.67
56.20
58.54
59.80
58.84
54.62
46.65
35.33
22.03
8.83
-2.15
-9.47
-12.81
-12.85
-10.91
-8.21
-5.59
-3.39
-1.69
-0.51
0.13
0.34
0.55
1.43
3.66
7.55
12.85
18.84
24.72
29.94
34.49
38.73
43.14
47.95
52.99
57.73
61.52
63.85
64.49
63.60
61.52
58.81
55.99
53.58
51.96
51.38
51.90
53.34
55.28
57.11
58.21
58.13
56.75
54.36
51.60
49.31
48.35
49.45
52.94
58.59
65.41
71.78
75.71
75.36
69.51
57.96
41.55
21.86
0.70
-20.32
-39.95
-57.30
-71.55
-82.01
-88.15
-89.98
-88.16
-83.89
-78.57
-73.25
-68.43
-64.09
-60.10
-56.49
-53.56
-51.56
-50.33
-49.08
-46.59
-41.76
-34.20
-24.58
-14.41
-5.37
1.47
6.21
10.03
14.55
20.85
28.79
36.91
43.15
45.92
45.18
42.56
40.68
41.75
46.26
52.47
56.70
54.42
41.70
16.37
-21.26
-68.57
-120.99
-172.72
-217.39
-249.10
-263.94
-261.52
-245.81
-224.34
-205.42
-194.56
-191.60
-190.66
-183.05
-161.92
-126.10
-80.92
-35.49
1.91
27.49
42.74
52.22
59.99
67.33
72.73
73.85
69.86
62.58
55.58
52.12
53.30
57.55
61.59
62.33
58.45
50.85
42.06
34.73
30.40
28.96
29.01
28.74
26.88
23.21
18.52
14.05
10.89
9.53
9.76
10.91
12.15
12.90
12.92
12.34
11.52
10.85
10.57
10.71
11.08
11.40
11.40
10.91
9.91
8.54
7.03
5.64
4.64
4.15
4.19
4.58
5.03
5.26
5.08
4.49
3.63
2.68
1.76
0.92
0.10
-0.71
-1.45
-2.04
-2.37
-2.40
-2.14
-1.60
-0.82
0.19
1.35
2.52
3.50
4.12
4.34
4.23
4.01
3.87
3.91
4.07
4.19
4.08
3.63
2.80
1.68
0.43
-0.77
-1.77
-2.49
-2.94
-3.24
-3.52
-3.84
-4.16
-4.36
-4.34
-4.07
-3.68
-3.31
-3.01
-2.68
-2.10
-1.05
0.47
2.30
4.17
5.85
7.33
8.71
10.10
11.49
12.75
13.66
14.12
14.21
14.14
14.14
14.33
14.65
14.92
15.00
14.79
14.32
13.63
12.76
11.76
10.65
9.53
8.56
7.86
7.54
7.57
7.83
8.17
8.43
8.47
8.20
7.57
6.56
5.24
3.71
2.08
0.48
-1.02
-2.41
-3.70
-4.98
-6.34
-7.86
-9.55
-11.35
-13.10
-14.61
-15.72
-16.33
-16.46
-16.15
-15.51
-14.63
-13.59
-12.48
-11.44
-10.59
-10.03
-9.70
-9.44
-8.99
-8.17
-6.85
-5.13
-3.17
-1.19
0.66
2.27
3.58
4.52
5.02
5.08
4.75
4.20
3.59
3.06
2.60
2.13
1.60
0.98
0.38
-0.07
-0.30
-0.30
-0.16
0.05
0.25
0.42
0.57
0.67
0.71
0.58
0.23
-0.39
-1.24
-2.26
-3.32
-4.29
-5.08
-5.63
-5.91
-5.90
-5.60
-4.97
-4.05
-2.89
-1.65
-0.53
0.29
0.72
0.79
0.65
0.47
0.36
0.33
0.30
0.21
0.07
-0.01
0.11
0.52
1.20
2.07
3.00
3.92
4.80
5.62
6.33
6.79
6.90
6.57
5.84
4.83
3.70
2.54
1.36
0.11
-1.15
-2.25
-2.92
-2.92
-2.14
-0.72
1.06
2.86
4.43
5.67
6.60
7.24
7.54
7.37
6.64
5.33
3.63
1.78
0.03
-1.46
-2.70
-3.78
-4.77
-5.69
-6.46
-6.97
-7.10
-6.88
-6.43
-5.91
-5.48
-5.21
-5.10
-5.03
-4.91
-4.71
-4.42
-4.06
-3.62
-3.02
-2.18
-1.16
-0.15
0.54
0.60
-0.02
-1.09
-2.12
-2.57
-2.13
-0.93
0.56
1.69
1.94
1.12
-0.60
-2.82
-5.15
-7.28
-9.04
-10.27
-10.82
-10.55
-9.47
-7.85
-6.13
-4.81
-4.25
-4.46
-5.10
-5.64
-5.55
-4.56
-2.71
-0.37
1.99
3.90
5.12
5.61
5.52
5.07
4.51
4.01
3.70
3.64
3.86
4.30
4.92
5.60
6.27
6.90
7.58
8.42
9.55
11.04
12.86
14.89
16.95
18.88
20.57
21.96
22.99
23.61
23.73
23.28
22.21
20.55
18.39
15.84
13.02
10.11
7.26
4.58
2.14
-0.06
-2.10
-4.04
-5.88
-7.57
-9.04
-10.27
-11.35
-12.39
-13.47
-14.53
-15.43
-15.97
-16.04
-15.65
-14.93
-14.02
-13.03
-11.98
-10.91
-9.87
-8.96
-8.25
-7.71
-7.25
-6.68
-5.89
-4.86
-3.74
-2.73
-1.99
-1.63
-1.55
-1.60
-1.57
-1.29
-0.68
0.21
1.24
2.25
3.13
3.87
4.56
5.30
6.11
6.92
7.53
7.74
7.44
6.66
5.55
4.32
3.18
2.24
1.57
1.11
0.76
0.42
0.01
-0.50
-1.07
-1.62
-2.08
-2.49
-2.94
-3.57
-4.47
-5.59
-6.72
-7.56
-7.86
-7.53
-6.65
-5.48
-4.31
-3.33
-2.62
-2.12
-1.71
-1.34
-1.00
-0.76
-0.70
-0.83
-1.08
-1.33
-1.41
-1.22
-0.73
0.01
0.88
1.75
2.53
3.22
3.85
4.46
5.04
5.50
5.76
5.74
5.50
5.17
4.93
4.87
4.93
4.95
4.72
4.17
3.39
2.63
2.16
2.12
2.44
2.84
2.96
2.56
1.58
0.22
-1.14
-2.14
-2.51
-2.19
-1.31
-0.12
1.11
2.09
2.62
2.54
1.79
0.42
-1.39
-3.39
-5.30
-6.92
-8.16
-9.00
-9.40
-9.32
-8.68
-7.42
-5.64
-3.51
-1.27
0.93
3.03
5.11
7.21
9.31
11.25
12.84
13.89
14.35
14.31
13.93
13.39
12.84
12.35
11.92
11.46
10.88
10.11
9.12
7.94
6.63
5.25
3.90
2.67
1.61
0.76
0.07
-0.64
-1.61
-3.06
-5.03
-7.34
-9.62
-11.44
-12.52
-12.79
-12.41
-11.67
-10.80
-9.94
-9.11
-8.25
-7.22
-5.92
-4.27
-2.26
-0.02
2.11
3.69
4.27
3.60
1.75
-0.88
-3.75
-6.37
-8.48
-10.09
-11.28
-12.10
-12.46
-12.22
-11.28
-9.74
-7.88
-6.09
-4.65
-3.70
-3.16
-2.86
-2.63
-2.39
-2.13
-1.93
-1.86
-1.97
-2.23
-2.63
-3.15
-3.79
-4.63
-5.70
-6.92
-8.09
-8.88
-9.03
-8.40
-7.05
-5.17
-2.99
-0.70
1.60
3.85
5.96
7.79
9.20
10.15
10.65
10.77
10.50
9.80
8.60
6.98
5.11
3.32
1.88
0.94
0.49
0.39
0.52
0.81
1.31
2.05
3.09
4.35
5.68
6.80
7.45
7.36
6.41
4.64
2.32
-0.14
-2.28
-3.72
-4.29
-4.03
-3.19
-2.04
-0.80
0.42
1.67
3.01
4.53
6.17
7.84
9.39
10.71
11.76
12.53
13.09
13.48
13.80
14.15
14.63
15.23
15.85
16.26
16.22
15.47
13.91
11.55
8.52
5.04
1.39
-2.16
-5.30
-7.79
-9.47
-10.31
-10.41
-9.98
-9.34
-8.79
-8.59
-8.81
-9.34
-9.90
-10.21
-10.08
-9.55
-8.82
-8.15
-7.67
-7.35
-6.94
-6.27
-5.31
-4.30
-3.65
-3.68
-4.48
-5.79
-7.11
-7.92
-7.92
-7.10
-5.74
-4.20
-2.77
-1.56
-0.57
0.25
0.94
1.48
1.85
2.06
2.15
2.18
2.21
2.24
2.27
2.34
2.50
2.84
3.42
4.23
5.21
6.23
7.18
7.95
8.50
8.81
8.93
8.95
8.95
8.99
9.00
8.83
8.21
6.92
4.85
2.12
-1.01
-4.19
-7.18
-9.86
-12.28
-14.52
-16.60
-18.43
-19.83
-20.56
-20.46
-19.47
-17.67
-15.23
-12.34
-9.17
-5.84
-2.38
1.13
4.62
7.97
11.03
13.69
15.91
17.73
19.19
20.30
20.94
20.98
20.26
18.75
16.52
13.80
10.87
8.01
5.36
2.99
0.89
-0.94
-2.44
-3.50
-4.03
-4.05
-3.67
-3.06
-2.35
-1.64
-1.01
-0.53
-0.34
-0.68
-1.76
-3.73
-6.58
-10.09
-13.89
-17.54
-20.65
-22.98
-24.50
-25.29
-25.46
-25.03
-23.95
-22.12
-19.59
-16.60
-13.57
-10.89
-8.76
-7.07
-5.52
-3.71
-1.40
1.48
4.80
8.34
11.99
15.73
19.66
23.88
28.40
33.04
37.45
41.20
43.94
45.53
45.98
45.42
43.92
41.49
38.07
33.66
28.41
22.57
16.47
10.38
4.45
-1.23
-6.58
-11.47
-15.69
-19.06
-21.46
-22.88
-23.42
-23.23
-22.48
-21.38
-20.11
-18.83
-17.67
-16.66
-15.76
-14.83
-13.71
-12.23
-10.36
-8.13
-5.70
-3.28
-1.03
0.90
2.44
3.57
4.26
4.48
4.22
3.49
2.37
1.05
-0.23
-1.19
-1.60
-1.33
-0.42
0.96
2.54
4.08
5.43
6.54
7.44
8.16
8.67
8.94
8.94
8.66
8.19
7.62
6.98
6.28
5.44
4.40
3.15
1.74
0.31
-0.97
-1.96
-2.61
-2.97
-3.18
-3.46
-3.94
-4.69
-5.66
-6.72
-7.74
-8.56
-9.05
-9.13
-8.76
-7.96
-6.85
-5.59
-4.37
-3.37
-2.67
-2.28
-2.14
-2.23
-2.52
-2.99
-3.59
-4.21
-4.73
-5.03
-5.03
-4.77
-4.31
-3.75
-3.17
-2.58
-1.98
-1.36
-0.75
-0.24
0.07
0.09
-0.17
-0.64
-1.14
-1.54
-1.78
-1.88
-1.91
-1.91
-1.83
-1.58
-1.02
-0.08
1.23
2.85
4.67
6.60
8.50
10.23
11.63
12.54
12.86
12.56
11.65
10.24
8.48
6.65
5.04
3.89
3.37
3.46
4.02
4.84
5.79
6.81
7.89
9.02
10.11
10.97
11.43
11.33
10.63
9.37
7.62
5.48
3.04
0.46
-2.07
-4.32
-6.07
-7.22
-7.75
-7.81
-7.59
-7.28
-7.01
-6.83
-6.72
-6.60
-6.38
-5.94
-5.25
-4.40
-3.56
-2.97
-2.79
-3.01
-3.37
-3.53
-3.21
-2.39
-1.30
-0.32
0.18
0.02
-0.73
-1.88
-3.16
-4.39
-5.43
-6.19
-6.58
-6.50
-5.87
-4.74
-3.25
-1.62
-0.05
1.31
2.43
3.29
3.92
4.36
4.67
4.93
5.21
5.57
5.97
6.31
6.49
6.49
6.38
6.28
6.25
6.27
6.20
5.91
5.34
4.60
3.87
3.30
2.96
2.74
2.51
2.08
1.39
0.46
-0.64
-1.81
-2.94
-3.94
-4.72
-5.25
-5.53
-5.62
-5.58
-5.47
-5.34
-5.21
-5.05
-4.78
-4.32
-3.60
-2.62
-1.47
-0.37
0.47
0.91
1.01
0.95
1.00
1.30
1.87
2.55
3.14
3.47
3.48
3.15
2.48
1.49
0.20
-1.27
-2.75
-4.06
-5.03
-5.64
-5.91
-5.93
-5.74
-5.36
-4.75
-3.90
-2.86
-1.74
-0.72
0.05
0.44
0.41
-0.01
-0.68
-1.46
-2.19
-2.76
-3.07
-3.08
-2.75
-2.12
-1.34
-0.60
-0.16
-0.18
-0.66
-1.47
-2.35
-3.04
-3.43
-3.50
-3.36
-3.10
-2.78
-2.36
-1.79
-1.06
-0.22
0.61
1.29
1.73
1.90
1.82
1.53
1.08
0.52
-0.09
-0.71
-1.30
-1.81
-2.27
-2.65
-2.97
-3.19
-3.33
-3.39
-3.37
-3.29
-3.12
-2.90
-2.65
-2.44
-2.36
-2.45
-2.69
-2.98
-3.21
-3.27
-3.14
-2.86
-2.53
-2.21
-1.94
-1.68
-1.34
-0.78
0.09
1.33
2.93
4.77
6.71
8.60
10.33
11.88
13.25
14.44
15.42
16.12
16.46
16.36
15.82
14.90
13.63
12.08
10.25
8.13
5.76
3.20
0.60
-1.90
-4.12
-5.97
-7.39
-8.36
-8.95
-9.21
-9.24
-9.10
-8.85
-8.51
-8.09
-7.64
-7.22
-6.95
-6.89
-7.11
-7.62
-8.38
-9.34
-10.43
-11.62
-12.90
-14.26
-15.70
-17.17
-18.60
-19.92
-21.08
-22.05
-22.83
-23.37
-23.63
-23.52
-23.02
-22.15
-20.97
-19.54
-17.88
-15.95
-13.71
-11.12
-8.20
-5.04
-1.75
1.58
4.91
8.22
11.50
14.68
17.59
20.05
21.88
22.98
23.34
23.05
22.30
21.29
20.20
19.15
18.14
17.12
16.00
14.73
13.33
11.90
10.56
9.45
8.60
8.01
7.58
7.19
6.71
6.05
5.18
4.15
3.08
2.14
1.45
1.03
0.77
0.47
-0.07
-0.97
-2.20
-3.58
-4.91
-5.97
-6.68
-6.96
-6.81
-6.18
-5.07
-3.55
-1.79
-0.05
1.38
2.34
2.84
3.04
3.18
3.45
3.88
4.38
4.78
4.94
4.83
4.49
4.03
3.60
3.31
3.24
3.46
3.95
4.65
5.41
6.07
6.47
6.49
6.13
5.46
4.64
3.80
3.02
2.28
1.56
0.81
0.01
-0.85
-1.71
-2.56
-3.36
-4.06
-4.62
-5.01
-5.28
-5.52
-5.85
-6.26
-6.65
-6.82
-6.58
-5.91
-4.99
-4.05
-3.30
-2.74
-2.24
-1.63
-0.87
-0.07
0.54
0.81
0.73
0.51
0.44
0.70
1.29
2.02
2.62
2.90
2.80
2.42
1.91
1.43
1.07
0.82
0.65
0.56
0.55
0.61
0.73
0.89
1.05
1.24
1.54
2.07
2.92
4.11
5.52
6.95
8.18
9.01
9.32
9.11
8.45
7.48
6.34
5.17
4.08
3.10
2.20
1.31
0.36
-0.68
-1.76
-2.79
-3.65
-4.25
-4.54
-4.57
-4.47
-4.40
-4.48
-4.77
-5.27
-5.90
-6.60
-7.37
-8.22
-9.15
-10.05
-10.80
-11.21
-11.22
-10.82
-10.14
-9.24
-8.16
-6.84
-5.18
-3.12
-0.74
1.83
4.37
6.72
8.70
10.14
10.89
10.77
9.75
7.91
5.48
2.83
0.30
-1.82
-3.37
-4.31
-4.72
-4.76
-4.61
-4.50
-4.57
-4.89
-5.42
-6.04
-6.63
-7.12
-7.50
-7.72
-7.73
-7.41
-6.63
-5.38
-3.77
-2.02
-0.38
0.98
2.04
2.91
3.74
4.68
5.80
7.07
8.44
9.86
11.31
12.78
14.30
15.87
17.50
19.16
20.78
22.27
23.49
24.26
24.41
23.86
22.63
20.83
18.62
16.15
13.47
10.59
7.51
4.30
1.12
-1.82
-4.33
-6.33
-7.89
-9.16
-10.34
-11.54
-12.80
-14.07
-15.23
-16.20
-16.94
-17.43
-17.68
-17.65
-17.27
-16.41
-15.01
-13.07
-10.72
-8.23
-5.84
-3.77
-2.09
-0.77
0.26
1.08
1.71
2.14
2.35
2.34
2.12
1.77
1.34
0.93
0.60
0.39
0.31
0.37
0.54
0.80
1.11
1.42
1.62
1.61
1.34
0.82
0.16
-0.47
-0.86
-0.91
-0.53
0.22
1.26
2.40
3.46
4.18
4.33
3.76
2.42
0.44
-1.90
-4.29
-6.46
-8.26
-9.68
-10.81
-11.71
-12.38
-12.75
-12.69
-12.10
-10.95
-9.32
-7.35
-5.23
-3.16
-1.27
0.38
1.78
3.06
4.35
5.72
7.18
8.63
9.91
10.90
11.48
11.60
11.24
10.36
8.97
7.11
4.97
2.79
0.87
-0.52
-1.27
-1.38
-1.06
-0.55
-0.09
0.20
0.36
0.50
0.80
1.34
2.07
2.82
3.37
3.55
3.28
2.58
1.50
0.15
-1.42
-3.15
-5.02
-6.99
-9.02
-11.05
-12.93
-14.46
-15.41
-15.60
-14.98
-13.64
-11.79
-9.67
-7.48
-5.37
-3.45
-1.78
-0.41
0.66
1.50
2.26
3.08
4.06
5.20
6.38
7.44
8.25
8.74
8.96
8.98
8.91
8.81
8.73
8.65
8.59
8.57
8.58
8.65
8.71
8.65
8.35
7.73
6.82
5.76
4.69
3.77
3.05
2.47
1.91
1.27
0.51
-0.35
-1.27
-2.21
-3.15
-4.10
-5.07
-6.02
-6.96
-7.90
-8.92
-10.06
-11.29
-12.45
-13.23
-13.34
-12.56
-10.89
-8.49
-5.70
-2.91
-0.44
1.52
2.88
3.73
4.17
4.30
4.25
4.07
3.86
3.71
3.72
3.96
4.42
4.99
5.50
5.81
5.86
5.72
5.50
5.29
5.09
4.86
4.49
3.95
3.28
2.62
2.15
2.02
2.26
2.81
3.54
4.27
4.87
5.23
5.28
4.99
4.38
3.48
2.39
1.23
0.08
-1.01
-2.10
-3.28
-4.67
-6.30
-8.12
-9.98
-11.71
-13.15
-14.19
-14.79
-15.00
-14.88
-14.49
-13.90
-13.11
-12.14
-11.01
-9.79
-8.58
-7.52
-6.73
-6.32
-6.26
-6.42
-6.59
-6.52
-6.04
-5.10
-3.74
-2.14
-0.47
1.16
2.68
4.08
5.39
6.61
7.72
8.68
9.42
9.90
10.10
10.02
9.66
9.03
8.13
7.01
5.76
4.51
3.40
2.51
1.81
1.22
0.63
-0.02
-0.70
-1.30
-1.71
-1.90
-1.89
-1.80
-1.70
-1.65
-1.60
-1.46
-1.09
-0.41
0.56
1.73
2.89
3.85
4.45
4.66
4.53
4.11
3.46
2.56
1.31
-0.31
-2.21
-4.15
-5.77
-6.76
-6.95
-6.40
-5.32
-3.98
-2.56
-1.09
0.43
2.01
3.52
4.75
5.49
5.63
5.23
4.48
3.59
2.72
1.90
1.11
0.35
-0.37
-0.96
-1.32
-1.35
-1.06
-0.52
0.16
0.83
1.36
1.66
1.66
1.32
0.67
-0.18
-1.05
-1.73
-2.03
-1.86
-1.25
-0.35
0.65
1.63
2.54
3.43
4.36
5.36
6.42
7.50
8.55
9.56
10.51
11.41
12.22
12.93
13.50
13.95
14.32
14.75
15.39
16.35
17.67
19.24
20.87
22.31
23.37
23.90
23.83
23.13
21.80
19.87
17.42
14.57
11.52
8.43
5.40
2.47
-0.42
-3.30
-6.23
-9.21
-12.22
-15.23
-18.14
-20.81
-23.11
-24.96
-26.38
-27.49
-28.47
-29.40
-30.24
-30.82
-30.95
-30.51
-29.54
-28.17
-26.59
-24.94
-23.27
-21.62
-20.01
-18.48
-17.06
-15.73
-14.48
-13.26
-12.08
-10.95
-9.92
-8.98
-8.08
-7.15
-6.16
-5.16
-4.24
-3.50
-2.97
-2.58
-2.29
-2.09
-2.14
-2.70
-4.01
-6.15
-8.97
-12.07
-14.91
-16.94
-17.69
-16.89
-14.41
-10.38
-5.19
0.50
5.82
9.88
12.03
12.07
10.41
7.95
5.81
4.92
5.65
7.75
10.42
12.80
14.31
14.93
15.07
15.24
15.74
16.48
17.17
17.57
17.70
17.85
18.32
19.15
20.01
20.43
20.10
19.08
17.80
16.84
16.55
16.93
17.61
18.07
17.94
17.10
15.63
13.78
11.72
9.54
7.26
4.88
2.47
0.14
-1.94
-3.67
-5.04
-6.17
-7.22
-8.31
-9.44
-10.49
-11.26
-11.56
-11.32
-10.63
-9.68
-8.70
-7.86
-7.22
-6.77
-6.45
-6.22
-6.13
-6.20
-6.43
-6.74
-7.00
-7.09
-6.96
-6.67
-6.36
-6.15
-6.07
-6.06
-6.04
-5.94
-5.79
-5.62
-5.47
-5.28
-4.95
-4.36
-3.46
-2.31
-1.00
0.35
1.66
2.90
4.05
5.03
5.73
6.03
5.85
5.19
4.12
2.78
1.32
-0.08
-1.27
-2.08
-2.43
-2.28
-1.72
-0.93
-0.13
0.50
0.85
0.93
0.81
0.56
0.23
-0.18
-0.67
-1.17
-1.54
-1.62
-1.29
-0.53
0.48
1.49
2.30
2.78
2.93
2.85
2.57
2.09
1.34
0.31
-0.92
-2.21
-3.39
-4.36
-5.15
-5.85
-6.55
-7.25
-7.90
-8.46
-8.95
-9.47
-10.12
-10.90
-11.68
-12.25
-12.41
-12.16
-11.68
-11.30
-11.35
-12.03
-13.28
-14.88
-16.51
-17.88
-18.81
-19.16
-18.75
-17.35
-14.68
-10.55
-5.02
1.56
8.60
15.42
21.43
26.20
29.49
31.22
31.42
30.25
27.97
24.96
21.64
18.39
15.54
13.32
11.87
11.25
11.41
12.17
13.28
14.43
15.41
16.12
16.61
16.97
17.24
17.38
17.24
16.72
15.81
14.61
13.32
12.12
11.08
10.24
9.62
9.25
9.22
9.59
10.33
11.32
12.30
12.96
13.03
12.32
10.75
8.40
5.49
2.36
-0.56
-2.86
-4.29
-4.83
-4.70
-4.26
-3.94
-4.02
-4.63
-5.69
-7.04
-8.46
-9.80
-10.99
-12.01
-12.85
-13.45
-13.73
-13.59
-12.91
-11.68
-9.96
-7.88
-5.62
-3.35
-1.24
0.55
1.85
2.51
2.43
1.58
0.01
-2.13
-4.60
-7.11
-9.37
-11.14
-12.36
-13.08
-13.48
-13.73
-13.88
-13.89
-13.62
-13.01
-12.15
-11.24
-10.52
-10.17
-10.22
-10.58
-11.12
-11.72
-12.30
-12.77
-13.01
-12.86
-12.12
-10.67
-8.48
-5.67
-2.53
0.63
3.48
5.79
7.47
8.62
9.42
10.12
10.91
11.87
12.97
14.11
15.18
16.06
16.73
17.20
17.50
17.65
17.62
17.31
16.63
15.50
13.94
12.05
9.95
7.73
5.41
2.98
0.45
-2.11
-4.56
-6.70
-8.40
-9.61
-10.37
-10.83
-11.19
-11.71
-12.61
-14.05
-16.05
-18.42
-20.85
-22.97
-24.46
-25.17
-25.08
-24.30
-22.99
-21.33
-19.47
-17.56
-15.75
-14.14
-12.74
-11.50
-10.25
-8.77
-6.86
-4.43
-1.59
1.44
4.35
6.92
9.08
10.91
12.61
14.27
15.88
17.29
18.29
18.75
18.65
18.13
17.34
16.43
15.49
14.53
13.56
12.57
11.54
10.47
9.37
8.20
7.01
5.83
4.76
3.88
3.21
2.73
2.35
1.98
1.56
1.14
0.82
0.79
1.19
2.08
3.40
4.98
6.60
8.11
9.43
10.55
11.49
12.22
12.70
12.84
12.62
12.08
11.39
10.78
10.45
10.51
10.91
11.42
11.72
11.49
10.49
8.68
6.23
3.43
0.64
-1.84
-3.85
-5.36
-6.52
-7.47
-8.39
-9.31
-10.16
-10.82
-11.11
-10.97
-10.43
-9.64
-8.78
-8.01
-7.44
-7.08
-6.90
-6.84
-6.88
-7.01
-7.33
-7.87
-8.61
-9.45
-10.19
-10.60
-10.55
-10.03
-9.12
-7.98
-6.71
-5.38
-4.01
-2.65
-1.40
-0.45
0.00
-0.18
-1.00
-2.36
-4.03
-5.72
-7.18
-8.23
-8.78
-8.88
-8.62
-8.17
-7.64
-7.12
-6.63
-6.16
-5.65
-5.10
-4.55
-4.06
-3.69
-3.46
-3.31
-3.16
-2.96
-2.67
-2.39
-2.19
-2.20
-2.45
-2.93
-3.57
-4.28
-4.98
-5.59
-6.01
-6.16
-5.91
-5.17
-3.91
-2.14
0.08
2.73
5.86
9.48
13.54
17.77
21.74
24.86
26.64
26.81
25.42
22.77
19.30
15.44
11.49
7.64
4.02
0.72
-2.19
-4.63
-6.60
-8.14
-9.35
-10.30
-11.04
-11.51
-11.61
-11.18
-10.11
-8.41
-6.25
-4.01
-2.14
-1.10
-1.22
-2.51
-4.73
-7.40
-10.03
-12.28
-14.01
-15.31
-16.29
-17.07
-17.64
-17.94
-17.94
-17.66
-17.16
-16.52
-15.77
-14.85
-13.67
-12.13
-10.21
-7.97
-5.53
-3.10
-0.87
1.06
2.66
4.06
5.43
6.87
8.43
10.06
11.66
13.19
14.63
16.01
17.36
18.74
20.17
21.70
23.36
25.12
26.90
28.53
29.80
30.50
30.48
29.67
28.09
25.85
23.10
20.03
16.73
13.20
9.37
5.19
0.77
-3.64
-7.70
-11.10
-13.68
-15.51
-16.78
-17.66
-18.21
-18.35
-17.93
-16.82
-15.04
-12.80
-10.43
-8.29
-6.63
-5.53
-4.89
-4.53
-4.22
-3.82
-3.19
-2.25
-0.90
0.95
3.34
6.22
9.42
12.66
15.68
18.27
20.34
21.95
23.20
24.20
24.96
25.33
25.04
23.78
21.40
18.00
13.93
9.70
5.74
2.30
-0.63
-3.14
-5.40
-7.47
-9.44
-11.42
-13.64
-16.38
-19.86
-24.15
-29.05
-34.18
-39.03
-43.13
-46.06
-47.52
-47.37
-45.61
-42.42
-38.16
-33.25
-28.09
-22.95
-17.88
-12.77
-7.44
-1.77
4.11
9.86
14.92
18.77
21.06
21.77
21.21
19.86
18.20
16.54
14.98
13.53
12.18
11.04
10.24
9.89
9.96
10.36
10.91
11.52
12.13
12.72
13.23
13.55
13.52
13.04
12.11
10.81
9.28
7.60
5.82
3.93
1.94
-0.12
-2.17
-4.12
-5.89
-7.40
-8.59
-9.36
-9.62
-9.25
-8.19
-6.44
-4.12
-1.42
1.34
3.81
5.68
6.72
6.82
6.06
4.63
2.81
0.91
-0.81
-2.19
-3.13
-3.62
-3.73
-3.55
-3.23
-2.94
-2.84
-3.06
-3.57
-4.27
-4.96
-5.44
-5.59
-5.37
-4.85
-4.13
-3.31
-2.44
-1.60
-0.87
-0.32
-0.05
-0.11
-0.47
-1.04
-1.68
-2.25
-2.67
-2.94
-3.16
-3.47
-4.00
-4.82
-5.89
-7.10
-8.28
-9.24
-9.84
-10.00
-9.75
-9.15
-8.32
-7.33
-6.18
-4.85
-3.33
-1.70
-0.11
1.25
2.28
3.00
3.54
4.05
4.60
5.13
5.53
5.69
5.71
5.85
6.44
7.81
10.07
13.10
16.52
19.84
22.57
24.34
24.95
24.38
22.70
20.07
16.64
12.64
8.30
3.95
-0.07
-3.50
-6.15
-8.04
-9.25
-9.95
-10.25
-10.20
-9.78
-8.97
-7.80
-6.39
-4.94
-3.61
-2.45
-1.47
-0.57
0.28
1.01
1.48
1.51
1.03
0.11
-1.04
-2.11
-2.79
-2.89
-2.41
-1.49
-0.42
0.54
1.25
1.76
2.31
3.22
4.66
6.59
8.75
10.74
12.27
13.28
13.97
14.67
15.67
17.03
18.56
19.94
20.83
21.06
20.57
19.31
17.16
13.94
9.60
4.34
-1.39
-7.07
-12.41
-17.51
-22.71
-28.18
-33.55
-37.88
-39.94
-38.96
-35.06
-29.39
-23.64
-19.22
-16.67
-15.53
-14.70
-13.14
-10.37
-6.55
-2.28
1.79
5.25
7.88
9.56
10.10
9.33
7.21
4.12
0.84
-1.64
-2.48
-1.33
1.51
5.28
9.00
11.86
13.37
13.44
12.25
10.13
7.42
4.47
1.57
-0.98
-2.86
-3.73
-3.32
-1.49
1.53
4.99
7.74
8.63
6.91
2.65
-3.26
-9.48
-14.74
-18.22
-19.64
-19.09
-16.79
-13.05
-8.45
-3.95
-0.91
-0.56
-3.45
-9.15
-16.21
-22.45
-25.49
-23.38
-15.38
-2.42
12.82
26.56
35.30
37.30
33.38
26.57
20.54
17.89
19.07
22.72
26.86
30.27
33.02
35.84
39.10
42.16
43.55
41.98
37.28
30.64
24.08
19.40
17.35
17.40
18.29
18.71
17.86
15.49
11.64
6.35
-0.61
-9.57
-20.78
-34.13
-49.06
-64.54
-79.20
-91.40
-99.47
-102.11
-98.90
-90.70
-79.59
-68.39
-59.65
-54.84
-53.95
-55.70
-58.35
-60.49
-61.47
-61.26
-59.96
-57.29
-52.56
-45.07
-34.70
-22.30
-9.56
1.64
9.99
15.24
18.14
20.01
22.01
24.88
29.01
34.67
41.98
50.47
58.66
64.22
64.98
60.30
51.92
43.52
38.98
40.50
47.42
56.69
64.62
68.77
68.88
66.51
63.62
61.41
59.81
58.01
55.41
52.16
49.11
47.26
47.16
48.52
50.34
51.31
50.42
47.37
42.66
37.30
32.35
28.45
25.61
23.27
20.69
17.36
13.21
8.66
4.41
1.09
-0.95
-1.84
-2.07
-2.27
-2.97
-4.40
-6.44
-8.71
-10.74
-12.24
-13.16
-13.70
-14.23
-15.06
-16.33
-17.99
-19.81
-21.55
-22.95
-23.90
-24.39
-24.53
-24.45
-24.26
-24.04
-23.82
-23.56
-23.22
-22.76
-22.20
-21.52
-20.74
-19.83
-18.73
-17.37
-15.71
-13.78
-11.72
-9.76
-8.14
-6.99
-6.32
-5.96
-5.68
-5.29
-4.72
-4.02
-3.29
-2.67
-2.20
-1.85
-1.56
-1.27
-0.95
-0.61
-0.35
-0.28
-0.51
-1.10
-1.99
-3.08
-4.21
-5.29
-6.33
-7.39
-8.52
-9.70
-10.83
-11.76
-12.42
-12.85
-13.16
-13.48
-13.84
-14.16
-14.28
-14.00
-13.25
-12.08
-10.61
-9.02
-7.46
-6.02
-4.72
-3.59
-2.64
-1.89
-1.37
-1.07
-1.00
-1.07
-1.24
-1.45
-1.69
-1.92
-2.15
-2.37
-2.56
-2.71
-2.82
-2.89
-2.96
-3.05
-3.21
-3.45
-3.75
-4.03
-4.20
-4.17
-3.94
-3.62
-3.37
-3.36
-3.65
-4.19
-4.87
-5.60
-6.37
-7.28
-8.41
-9.77
-11.23
-12.57
-13.54
-13.97
-13.79
-13.03
-11.79
-10.25
-8.59
-7.01
-5.63
-4.51
-3.59
-2.77
-1.98
-1.20
-0.48
0.11
0.53
0.74
0.75
0.55
0.16
-0.39
-1.00
-1.57
-2.02
-2.28
-2.38
-2.36
-2.28
-2.23
-2.26
-2.41
-2.64
-2.87
-2.96
-2.81
-2.44
-2.01
-1.78
-1.97
-2.68
-3.77
-4.98
-6.00
-6.65
-6.85
-6.69
-6.25
-5.64
-4.93
-4.19
-3.52
-3.03
-2.75
-2.66
-2.64
-2.53
-2.20
-1.56
-0.61
0.57
1.87
3.15
4.29
5.18
5.77
6.08
6.13
5.99
5.72
5.36
4.94
4.54
4.23
4.07
4.09
4.26
4.47
4.61
4.61
4.48
4.27
4.08
3.99
4.01
4.13
4.31
4.49
4.67
4.84
5.05
5.31
5.60
5.83
5.90
5.68
5.15
4.33
3.34
2.32
1.35
0.47
-0.35
-1.16
-2.00
-2.90
-3.86
-4.92
-6.11
-7.44
-8.86
-10.25
-11.41
-12.17
-12.41
-12.12
-11.33
-10.17
-8.76
-7.19
-5.56
-3.92
-2.31
-0.79
0.59
1.75
2.63
3.19
3.43
3.40
3.22
3.07
3.13
3.48
4.05
4.69
5.16
5.33
5.16
4.73
4.18
3.65
3.19
2.80
2.44
2.04
1.55
0.95
0.27
-0.41
-0.99
-1.37
-1.57
-1.66
-1.75
-1.92
-2.17
-2.37
-2.42
-2.23
-1.82
-1.24
-0.61
-0.01
0.48
0.80
0.94
0.88
0.62
0.22
-0.27
-0.76
-1.12
-1.21
-0.86
-0.03
1.23
2.71
4.16
5.32
6.08
6.46
6.55
6.40
6.06
5.47
4.64
3.65
2.67
1.90
1.50
1.50
1.80
2.21
2.58
2.78
2.79
2.67
2.50
2.35
2.25
2.19
2.13
2.00
1.74
1.29
0.64
-0.20
-1.18
-2.23
-3.25
-4.17
-4.93
-5.48
-5.83
-6.01
-6.10
-6.22
-6.48
-6.95
-7.65
-8.54
-9.50
-10.40
-11.14
-11.61
-11.73
-11.43
-10.68
-9.47
-7.83
-5.84
-3.58
-1.18
1.20
3.38
5.22
6.63
7.62
8.31
8.84
9.34
9.85
10.35
10.75
10.97
10.95
10.70
10.26
9.70
9.15
8.71
8.43
8.29
8.12
7.70
6.84
5.47
3.72
1.85
0.18
-1.07
-1.81
-2.10
-2.12
-2.03
-1.99
-2.06
-2.23
-2.47
-2.74
-3.05
-3.44
-3.98
-4.73
-5.71
-6.88
-8.17
-9.41
-10.43
-11.03
-11.05
-10.40
-9.08
-7.23
-5.08
-2.89
-0.87
0.88
2.32
3.49
4.40
5.04
5.39
5.48
5.38
5.20
5.08
5.15
5.48
6.07
6.84
7.71
8.59
9.40
10.08
10.58
10.85
10.87
10.64
10.21
9.65
9.01
8.30
7.50
6.53
5.38
4.09
2.78
1.56
0.53
-0.32
-1.04
-1.75
-2.55
-3.59
-4.97
-6.72
-8.78
-11.00
-13.15
-14.97
-16.26
-16.91
-16.92
-16.28
-15.06
-13.32
-11.17
-8.75
-6.27
-3.93
-1.87
-0.21
1.03
1.83
2.23
2.26
1.99
1.51
0.95
0.43
0.04
-0.18
-0.22
-0.11
0.16
0.60
1.18
1.82
2.47
3.04
3.50
3.90
4.26
4.62
4.89
5.01
4.90
4.61
4.21
3.81
3.43
2.97
2.25
1.08
-0.60
-2.76
-5.23
-7.80
-10.28
-12.50
-14.30
-15.52
-16.05
-15.82
-14.82
-13.10
-10.75
-7.89
-4.68
-1.36
1.80
4.52
6.62
8.07
9.03
9.70
10.25
10.71
11.02
11.05
10.79
10.31
9.72
9.11
8.44
7.59
6.43
4.97
3.35
1.85
0.69
-0.04
-0.45
-0.79
-1.25
-1.91
-2.65
-3.27
-3.55
-3.38
-2.82
-2.03
-1.25
-0.65
-0.30
-0.22
-0.33
-0.60
-0.97
-1.40
-1.81
-2.05
-1.95
-1.32
-0.10
1.62
3.60
5.56
7.25
8.56
9.50
10.17
10.61
10.84
10.83
10.52
9.91
9.08
8.16
7.26
6.47
5.79
5.14
4.42
3.54
2.50
1.39
0.39
-0.38
-0.85
-1.07
-1.21
-1.38
-1.68
-2.08
-2.50
-2.86
-3.15
-3.38
-3.64
-3.96
-4.34
-4.75
-5.12
-5.41
-5.66
-5.93
-6.31
-6.87
-7.62
-8.43
-9.13
-9.53
-9.46
-8.83
-7.67
-6.05
-4.13
-2.06
-0.03
1.81
3.34
4.48
5.22
5.54
5.52
5.27
4.98
4.85
5.02
5.53
6.30
7.16
7.98
8.66
9.22
9.70
10.10
10.35
10.32
9.94
9.21
8.22
7.08
5.88
4.59
3.12
1.39
-0.62
-2.79
-4.96
-6.90
-8.42
-9.43
-9.95
-10.12
-10.13
-10.15
-10.28
-10.52
-10.79
-11.03
-11.13
-11.00
-10.54
-9.62
-8.20
-6.31
-4.09
-1.80
0.30
2.04
3.40
4.48
5.46
6.47
7.52
8.57
9.51
10.29
10.93
11.46
11.91
12.24
12.38
12.27
11.94
11.50
11.09
10.74
10.41
9.96
9.30
8.44
7.47
6.54
5.75
5.07
4.44
3.79
3.12
2.49
1.91
1.37
0.76
0.01
-0.90
-1.89
-2.85
-3.68
-4.36
-4.95
-5.57
-6.30
-7.18
-8.17
-9.17
-10.08
-10.80
-11.25
-11.37
-11.06
-10.27
-8.96
-7.24
-5.29
-3.37
-1.74
-0.53
0.24
0.68
0.93
1.09
1.24
1.42
1.69
2.12
2.74
3.53
4.40
5.22
5.94
6.53
7.03
7.48
7.89
8.22
8.43
8.50
8.46
8.33
8.08
7.65
6.98
6.08
5.07
4.12
3.37
2.85
2.46
2.04
1.42
0.55
-0.51
-1.66
-2.80
-3.89
-4.93
-5.96
-6.98
-7.95
-8.85
-9.70
-10.56
-11.50
-12.54
-13.61
-14.50
-14.96
-14.74
-13.71
-11.93
-9.59
-6.97
-4.36
-2.02
-0.12
1.24
2.05
2.40
2.45
2.43
2.51
2.79
3.25
3.80
4.30
4.70
5.04
5.44
6.03
6.90
7.99
9.20
10.35
11.33
12.10
12.72
13.29
13.89
14.54
15.21
15.77
16.12
16.16
15.87
15.26
14.40
13.42
12.39
11.43
10.61
9.95
9.44
9.06
8.76
8.46
8.06
7.45
6.51
5.21
3.59
1.82
0.12
-1.27
-2.17
-2.52
-2.36
-1.78
-0.92
0.12
1.23
2.29
3.16
3.67
3.70
3.24
2.35
1.19
-0.10
-1.40
-2.65
-3.80
-4.79
-5.56
-6.07
-6.40
-6.66
-7.02
-7.55
-8.23
-8.87
-9.31
-9.45
-9.35
-9.18
-9.16
-9.38
-9.80
-10.23
-10.47
-10.41
-10.07
-9.56
-9.07
-8.70
-8.48
-8.35
-8.24
-8.09
-7.86
-7.55
-7.16
-6.65
-5.99
-5.22
-4.48
-3.99
-3.93
-4.34
-5.00
-5.56
-5.60
-4.93
-3.60
-1.93
-0.28
1.05
2.04
2.81
3.53
4.26
4.90
5.24
5.11
4.48
3.49
2.41
1.50
0.94
0.73
0.76
0.86
0.92
0.96
1.04
1.26
1.63
2.10
2.53
2.83
2.92
2.76
2.34
1.65
0.76
-0.23
-1.13
-1.76
-2.03
-1.97
-1.72
-1.43
-1.19
-1.02
-0.94
-1.00
-1.32
-2.00
-3.08
-4.50
-6.16
-7.98
-9.98
-12.17
-14.48
-16.65
-18.28
-18.95
-18.38
-16.57
-13.83
-10.65
-7.55
-4.91
-2.89
-1.47
-0.50
0.22
0.89
1.70
2.77
4.18
5.98
8.09
10.33
12.45
14.16
15.23
15.54
15.19
14.38
13.36
12.31
11.26
10.13
8.77
7.07
5.00
2.63
0.07
-2.47
-4.83
-6.83
-8.33
-9.20
-9.43
-9.09
-8.34
-7.47
-6.73
-6.36
-6.46
-7.03
-7.95
-8.97
-9.88
-10.43
-10.44
-9.78
-8.36
-6.18
-3.30
0.07
3.64
7.06
10.05
12.48
14.35
15.76
16.82
17.57
17.91
17.71
16.83
15.28
13.19
10.84
8.57
6.64
5.16
4.10
3.31
2.64
2.00
1.39
0.90
0.62
0.67
1.19
2.32
4.15
6.61
9.45
12.25
14.49
15.76
15.91
15.02
13.35
11.16
8.60
5.72
2.51
-1.00
-4.65
-8.19
-11.41
-14.16
-16.43
-18.28
-19.76
-20.86
-21.53
-21.71
-21.37
-20.60
-19.54
-18.34
-17.08
-15.78
-14.39
-12.88
-11.23
-9.47
-7.68
-5.87
-4.08
-2.29
-0.52
1.24
2.99
4.73
6.49
8.25
9.92
11.39
12.52
13.21
13.39
13.05
12.20
10.91
9.30
7.56
5.89
4.48
3.39
2.53
1.68
0.63
-0.71
-2.30
-3.99
-5.61
-7.10
-8.44
-9.62
-10.56
-11.08
-11.00
-10.16
-8.59
-6.45
-4.03
-1.65
0.47
2.18
3.45
4.33
4.84
5.03
4.91
4.54
3.99
3.36
2.74
2.18
1.71
1.34
1.10
1.04
1.20
1.57
2.07
2.58
3.00
3.31
3.60
4.06
4.86
6.09
7.67
9.38
10.90
11.89
12.08
11.34
9.74
7.49
4.89
2.20
-0.43
-3.00
-5.59
-8.25
-10.90
-13.34
-15.26
-16.38
-16.56
-15.83
-14.35
-12.35
-10.00
-7.47
-4.94
-2.63
-0.75
0.54
1.25
1.50
1.53
1.56
1.72
2.02
2.41
2.81
3.18
3.52
3.81
4.04
4.17
4.18
4.09
3.98
3.89
3.91
4.04
4.24
4.46
4.61
4.58
4.33
3.85
3.23
2.59
2.05
1.66
1.41
1.22
1.00
0.68
0.20
-0.49
-1.39
-2.45
-3.54
-4.46
-5.01
-5.04
-4.56
-3.70
-2.66
-1.62
-0.70
0.07
0.70
1.16
1.35
1.19
0.61
-0.30
-1.36
-2.26
-2.76
-2.78
-2.44
-2.01
-1.80
-1.99
-2.53
-3.22
-3.78
-4.01
-3.84
-3.36
-2.71
-2.03
-1.41
-0.94
-0.64
-0.55
-0.69
-1.04
-1.56
-2.22
-2.97
-3.74
-4.49
-5.18
-5.80
-6.41
-7.06
-7.83
-8.68
-9.46
-9.91
-9.74
-8.74
-6.89
-4.42
-1.68
0.92
3.11
4.78
5.98
6.85
7.48
7.89
8.03
7.85
7.36
6.65
5.81
4.93
4.05
3.20
2.46
1.88
1.57
1.53
1.69
1.91
2.03
1.92
1.54
0.92
0.14
-0.71
-1.53
-2.22
-2.68
-2.88
-2.79
-2.43
-1.90
-1.33
-0.86
-0.61
-0.64
-0.92
-1.37
-1.82
-2.08
-2.01
-1.53
-0.69
0.35
1.39
2.24
2.76
2.98
2.97
2.84
2.66
2.39
1.95
1.32
0.52
-0.29
-0.93
-1.26
-1.25
-0.97
-0.58
-0.27
-0.17
-0.38
-0.91
-1.71
-2.67
-3.63
-4.41
-4.86
-4.92
-4.68
-4.28
-3.92
-3.75
-3.79
-3.97
-4.19
-4.35
-4.44
-4.51
-4.61
-4.74
-4.90
-5.03
-5.14
-5.28
-5.52
-5.84
-6.08
-5.98
-5.24
-3.71
-1.42
1.36
4.28
6.97
9.20
10.91
12.17
13.10
13.82
14.36
14.71
14.83
14.74
14.53
14.31
14.20
14.27
14.53
14.91
15.34
15.74
16.06
16.26
16.35
16.33
16.17
15.86
15.37
14.70
13.85
12.77
11.37
9.54
7.15
4.23
0.93
-2.43
-5.55
-8.25
-10.53
-12.57
-14.54
-16.53
-18.50
-20.34
-21.97
-23.43
-24.78
-26.00
-26.89
-27.09
-26.25
-24.20
-21.05
-17.18
-13.12
-9.30
-6.04
-3.42
-1.41
0.07
1.13
1.81
2.18
2.33
2.35
2.35
2.36
2.41
2.45
2.44
2.35
2.19
2.00
1.83
1.69
1.55
1.38
1.12
0.79
0.41
0.03
-0.33
-0.69
-1.07
-1.51
-2.02
-2.56
-3.09
-3.61
-4.13
-4.67
-5.20
-5.71
-6.16
-6.54
-6.89
-7.21
-7.48
-7.58
-7.36
-6.68
-5.50
-3.89
-2.02
-0.11
1.68
3.23
4.51
5.50
6.23
6.68
6.83
6.68
6.26
5.66
4.99
4.38
3.91
3.60
3.40
3.27
3.14
2.98
2.76
2.47
2.10
1.69
1.28
0.91
0.59
0.30
-0.04
-0.44
-0.89
-1.28
-1.49
-1.46
-1.17
-0.69
-0.12
0.49
1.10
1.64
1.98
1.96
1.42
0.34
-1.12
-2.69
-4.03
-4.89
-5.19
-4.96
-4.35
-3.55
-2.79
-2.28
-2.19
-2.61
-3.45
-4.48
-5.32
-5.62
-5.22
-4.11
-2.55
-0.86
0.63
1.70
2.28
2.42
2.23
1.87
1.46
1.11
0.88
0.78
0.79
0.85
0.91
0.95
0.99
1.12
1.44
2.01
2.81
3.75
4.71
5.58
6.31
6.86
7.24
7.42
7.43
7.34
7.27
7.36
7.68
8.12
8.47
8.56
8.31
7.81
7.24
6.69
6.16
5.49
4.49
3.06
1.22
-0.91
-3.21
-5.61
-8.05
-10.44
-12.59
-14.21
-15.03
-14.89
-13.86
-12.18
-10.25
-8.47
-7.10
-6.23
-5.72
-5.37
-4.95
-4.36
-3.57
-2.62
-1.57
-0.43
0.78
2.08
3.42
4.73
5.93
6.95
7.80
8.54
9.27
10.01
10.67
11.08
11.06
10.48
9.41
8.08
6.80
5.84
5.28
4.99
4.75
4.34
3.67
2.83
1.98
1.28
0.76
0.30
-0.31
-1.23
-2.52
-4.08
-5.70
-7.19
-8.39
-9.21
-9.55
-9.31
-8.43
-6.89
-4.86
-2.61
-0.47
1.31
2.65
3.62
4.42
5.19
6.02
6.90
7.75
8.49
9.08
9.47
9.69
9.74
9.68
9.56
9.40
9.21
8.93
8.51
7.93
7.26
6.63
6.16
5.94
5.95
6.05
6.05
5.78
5.17
4.31
3.34
2.38
1.52
0.76
0.02
-0.74
-1.55
-2.38
-3.19
-3.90
-4.52
-5.08
-5.64
-6.28
-7.03
-7.94
-9.00
-10.22
-11.51
-12.73
-13.68
-14.13
-13.93
-13.06
-11.64
-9.91
-8.13
-6.50
-5.09
-3.86
-2.74
-1.66
-0.60
0.36
1.09
1.49
1.57
1.45
1.35
1.47
1.91
2.61
3.39
4.07
4.54
4.82
4.99
5.13
5.28
5.41
5.48
5.50
5.52
5.61
5.81
6.11
6.48
6.87
7.25
7.61
7.97
8.29
8.48
8.46
8.13
7.42
6.34
4.92
3.23
1.36
-0.60
-2.56
-4.44
-6.21
-7.87
-9.48
-11.09
-12.66
-14.11
-15.28
-16.02
-16.23
-15.92
-15.11
-13.85
-12.18
-10.13
-7.82
-5.42
-3.23
-1.46
-0.24
0.50
0.96
1.34
1.82
2.41
3.07
3.71
4.26
4.69
4.99
5.20
5.31
5.33
5.28
5.17
5.02
4.89
4.82
4.88
5.11
5.46
5.83
6.06
6.04
5.72
5.21
4.64
4.14
3.72
3.29
2.71
1.84
0.67
-0.74
-2.24
-3.67
-4.92
-5.98
-6.90
-7.75
-8.61
-9.49
-10.36
-11.12
-11.68
-12.00
-12.01
-11.70
-11.05
-10.04
-8.72
-7.13
-5.39
-3.60
-1.86
-0.23
1.24
2.48
3.45
4.12
4.55
4.84
5.12
5.45
5.84
6.21
6.50
6.70
6.86
7.10
7.49
8.00
8.51
8.85
8.90
8.62
8.14
7.61
7.20
6.97
6.89
6.89
6.89
6.86
6.73
6.45
5.88
4.96
3.67
2.13
0.53
-0.92
-2.09
-2.99
-3.70
-4.32
-4.93
-5.52
-6.06
-6.54
-6.93
-7.25
-7.49
-7.60
-7.48
-7.04
-6.20
-4.99
-3.52
-2.03
-0.74
0.21
0.81
1.17
1.43
1.72
2.07
2.47
2.85
3.18
3.44
3.67
3.89
4.11
4.30
4.41
4.39
4.20
3.87
3.43
3.00
2.62
2.33
2.12
1.98
1.93
1.98
2.15
2.36
2.52
2.50
2.23
1.73
1.09
0.37
-0.43
-1.38
-2.55
-3.95
-5.47
-6.95
-8.24
-9.29
-10.17
-10.95
-11.69
-12.30
-12.62
-12.45
-11.69
-10.37
-8.65
-6.75
-4.87
-3.17
-1.73
-0.55
0.37
1.06
1.55
1.87
2.04
2.05
1.93
1.72
1.46
1.20
1.04
1.02
1.17
1.46
1.81
2.11
2.28
2.28
2.16
2.03
2.02
2.17
2.43
2.64
2.64
2.32
1.69
0.88
0.05
-0.66
-1.22
-1.64
-2.00
-2.36
-2.76
-3.17
-3.59
-3.99
-4.41
-4.92
-5.62
-6.59
-7.84
-9.30
-10.81
-12.13
-13.01
-13.27
-12.82
-11.72
-10.12
-8.22
-6.18
-4.11
-2.07
-0.15
1.55
2.96
4.05
4.85
5.50
6.12
6.83
7.64
8.52
9.39
10.23
11.04
11.82
12.57
13.21
13.63
13.73
13.42
12.69
11.58
10.14
8.44
6.58
4.67
2.90
1.45
0.48
0.02
-0.08
-0.07
-0.21
-0.62
-1.26
-1.95
-2.51
-2.86
-3.06
-3.26
-3.59
-4.13
-4.88
-5.79
-6.82
-7.87
-8.82
-9.53
-9.81
-9.57
-8.76
-7.44
-5.74
-3.85
-1.96
-0.24
1.17
2.27
3.11
3.81
4.44
5.03
5.55
5.95
6.20
6.32
6.33
6.25
6.04
5.68
5.17
4.58
3.98
3.41
2.84
2.19
1.37
0.34
-0.86
-2.18
-3.52
-4.86
-6.19
-7.51
-8.83
-10.12
-11.32
-12.27
-12.79
-12.70
-11.90
-10.49
-8.75
-7.03
-5.66
-4.78
-4.29
-3.99
-3.67
-3.21
-2.59
-1.86
-1.02
-0.01
1.21
2.64
4.14
5.53
6.66
7.47
8.02
8.42
8.73
8.93
8.93
8.63
8.04
7.26
6.50
5.93
5.61
5.50
5.48
5.41
5.21
4.86
4.35
3.67
2.81
1.80
0.74
-0.22
-0.91
-1.20
-1.07
-0.56
0.22
1.13
2.03
2.76
3.22
3.42
3.52
3.74
4.28
5.15
6.15
6.92
7.12
6.56
5.31
3.61
1.75
0.00
-1.46
-2.54
-3.19
-3.41
-3.22
-2.71
-2.02
-1.28
-0.65
-0.26
-0.20
-0.51
-1.13
-1.94
-2.80
-3.54
-4.07
-4.31
-4.30
-4.04
-3.61
-3.07
-2.54
-2.11
-1.89
-1.97
-2.34
-2.98
-3.76
-4.55
-5.18
-5.51
-5.47
-5.11
-4.55
-3.96
-3.47
-3.14
-2.96
-2.87
-2.86
-2.91
-3.03
-3.19
-3.31
-3.37
-3.39
-3.46
-3.74
-4.37
-5.31
-6.37
-7.18
-7.37
-6.71
-5.18
-3.05
-0.67
1.60
3.56
5.13
6.36
7.28
7.89
8.13
7.95
7.42
6.71
6.06
5.69
5.70
6.04
6.52
6.92
7.05
6.87
6.45
5.93
5.42
4.98
4.56
4.08
3.47
2.76
2.01
1.32
0.68
0.01
-0.78
-1.78
-2.96
-4.15
-5.18
-5.95
-6.47
-6.86
-7.30
-7.85
-8.48
-9.06
-9.44
-9.55
-9.44
-9.23
-9.10
-9.11
-9.24
-9.33
-9.22
-8.76
-7.94
-6.84
-5.61
-4.41
-3.28
-2.22
-1.15
-0.01
1.21
2.42
3.53
4.48
5.29
6.08
7.03
8.25
9.78
11.56
13.49
15.42
17.25
18.94
20.44
21.71
22.65
23.16
23.15
22.55
21.38
19.74
17.74
15.54
13.25
10.98
8.76
6.66
4.72
3.02
1.67
0.72
0.16
-0.13
-0.37
-0.79
-1.55
-2.70
-4.14
-5.79
-7.53
-9.35
-11.21
-12.98
-14.48
-15.48
-15.83
-15.56
-14.85
-13.95
-13.05
-12.21
-11.38
-10.51
-9.56
-8.60
-7.71
-6.96
-6.36
-5.86
-5.41
-5.00
-4.60
-4.19
-3.73
-3.19
-2.57
-1.90
-1.22
-0.56
0.16
0.96
1.84
2.75
3.54
4.08
4.31
4.24
3.95
3.51
2.98
2.42
1.88
1.46
1.24
1.25
1.39
1.47
1.28
0.67
-0.33
-1.62
-3.00
-4.32
-5.52
-6.63
-7.68
-8.65
-9.43
-9.86
-9.79
-9.16
-8.02
-6.54
-4.92
-3.39
-2.13
-1.22
-0.71
-0.52
-0.50
-0.40
-0.01
0.84
2.20
3.99
6.07
8.23
10.31
12.17
13.77
15.09
16.16
16.98
17.52
17.77
17.64
17.10
16.15
14.83
13.24
11.48
9.67
7.92
6.30
4.84
3.52
2.32
1.20
0.13
-0.88
-1.87
-2.87
-3.92
-5.08
-6.38
-7.82
-9.35
-10.89
-12.33
-13.54
-14.40
-14.77
-14.58
-13.82
-12.59
-11.04
-9.34
-7.66
-6.07
-4.63
-3.31
-2.09
-0.97
0.07
0.97
1.72
2.29
2.69
2.96
3.14
3.27
3.35
3.38
3.36
3.33
3.35
3.47
3.70
4.00
4.27
4.44
4.51
4.50
4.49
4.49
4.45
4.27
3.83
3.07
1.98
0.68
-0.68
-1.93
-2.98
-3.82
-4.57
-5.37
-6.38
-7.63
-9.00
-10.24
-11.07
-11.26
-10.77
-9.66
-8.12
-6.31
-4.35
-2.34
-0.42
1.24
2.48
3.22
3.51
3.55
3.59
3.82
4.27
4.85
5.39
5.81
6.11
6.38
6.74
7.22
7.81
8.44
9.06
9.60
9.99
10.16
10.00
9.47
8.57
7.38
6.04
4.67
3.41
2.33
1.48
0.80
0.22
-0.43
-1.30
-2.45
-3.83
-5.31
-6.70
-7.90
-8.90
-9.81
-10.78
-11.91
-13.24
-14.70
-16.06
-17.07
-17.43
-16.94
-15.57
-13.51
-11.05
-8.50
-6.08
-3.87
-1.87
-0.08
1.47
2.74
3.70
4.42
5.01
5.59
6.20
6.76
7.17
7.36
7.34
7.26
7.28
7.48
7.86
8.32
8.72
8.95
8.93
8.65
8.13
7.41
6.53
5.54
4.47
3.36
2.24
1.13
0.09
-0.80
-1.53
-2.12
-2.63
-3.13
-3.64
-4.11
-4.51
-4.86
-5.27
-5.94
-6.95
-8.27
-9.65
-10.74
-11.20
-10.90
-9.91
-8.47
-6.88
-5.31
-3.84
-2.43
-1.04
0.34
1.62
2.70
3.49
3.99
4.24
4.31
4.24
4.07
3.88
3.75
3.78
3.99
4.32
4.61
4.69
4.49
4.06
3.57
3.20
3.05
3.08
3.19
3.20
3.01
2.53
1.76
0.78
-0.28
-1.25
-1.97
-2.32
-2.33
-2.15
-2.06
-2.31
-3.09
-4.39
-6.02
-7.65
-8.93
-9.61
-9.60
-8.96
-7.84
-6.40
-4.78
-3.14
-1.61
-0.35
0.54
1.01
1.17
1.20
1.24
1.40
1.65
1.87
1.93
1.77
1.41
0.91
0.36
-0.16
-0.58
-0.82
-0.82
-0.53
-0.02
0.58
1.08
1.27
1.06
0.47
-0.32
-1.08
-1.62
-1.82
-1.75
-1.56
-1.38
-1.29
-1.23
-1.11
-0.83
-0.40
0.10
0.51
0.67
0.54
0.16
-0.36
-0.89
-1.34
-1.68
-1.89
-1.95
-1.83
-1.48
-0.89
-0.10
0.80
1.73
2.63
3.49
4.36
5.27
6.18
6.98
7.50
7.61
7.27
6.54
5.59
4.59
3.70
3.00
2.52
2.29
2.30
2.56
3.02
3.62
4.23
4.70
4.96
4.98
4.82
4.62
4.49
4.47
4.54
4.62
4.66
4.64
4.58
4.45
4.22
3.79
3.13
2.24
1.23
0.20
-0.76
-1.63
-2.41
-3.08
-3.60
-3.90
-3.97
-3.88
-3.82
-3.98
-4.50
-5.37
-6.42
-7.42
-8.13
-8.46
-8.45
-8.26
-8.08
-8.02
-8.13
-8.32
-8.50
-8.56
-8.38
-7.87
-6.93
-5.53
-3.75
-1.79
0.04
1.50
2.47
3.02
3.31
3.50
3.72
4.02
4.41
4.89
5.39
5.74
5.70
5.04
3.66
1.70
-0.58
-2.86
-4.91
-6.67
-8.16
-9.42
-10.40
-11.02
-11.18
-10.86
-10.13
-9.11
-7.94
-6.75
-5.64
-4.61
-3.62
-2.56
-1.32
0.14
1.71
3.16
4.24
4.81
4.96
4.97
5.16
5.74
6.68
7.76
8.74
9.46
9.94
10.33
10.73
11.15
11.48
11.61
11.52
11.34
11.23
11.28
11.43
11.48
11.22
10.54
9.47
8.19
6.79
5.32
3.69
1.79
-0.43
-2.92
-5.55
-8.11
-10.42
-12.32
-13.67
-14.35
-14.32
-13.61
-12.34
-10.73
-9.01
-7.33
-5.75
-4.23
-2.71
-1.22
0.14
1.21
1.83
1.99
1.79
1.45
1.19
1.15
1.32
1.66
2.12
2.70
3.46
4.46
5.70
7.11
8.50
9.66
10.36
10.48
10.00
8.97
7.49
5.68
3.61
1.35
-0.99
-3.27
-5.28
-6.88
-8.06
-8.96
-9.84
-10.93
-12.36
-14.04
-15.69
-16.97
-17.57
-17.35
-16.32
-14.62
-12.50
-10.16
-7.84
-5.71
-3.91
-2.55
-1.64
-1.14
-0.93
-0.86
-0.81
-0.69
-0.50
-0.25
0.07
0.52
1.14
1.94
2.85
3.73
4.44
4.95
5.33
5.74
6.32
7.07
7.85
8.42
8.56
8.17
7.29
6.09
4.80
3.58
2.48
1.46
0.46
-0.60
-1.71
-2.83
-3.93
-5.03
-6.19
-7.49
-8.90
-10.24
-11.20
-11.46
-10.82
-9.33
-7.19
-4.72
-2.18
0.29
2.61
4.73
6.59
8.10
9.23
10.06
10.69
11.23
11.62
11.73
11.36
10.43
9.02
7.41
5.90
4.76
4.05
3.71
3.57
3.48
3.37
3.24
3.11
3.04
3.06
3.20
3.47
3.87
4.35
4.85
5.31
5.62
5.70
5.44
4.77
3.63
2.02
-0.01
-2.32
-4.72
-6.99
-8.88
-10.20
-10.86
-10.84
-10.27
-9.28
-8.05
-6.73
-5.37
-4.00
-2.66
-1.41
-0.38
0.37
0.78
0.89
0.80
0.65
0.57
0.67
0.99
1.52
2.19
2.90
3.52
3.97
4.20
4.20
3.97
3.50
2.79
1.84
0.67
-0.61
-1.88
-2.97
-3.83
-4.43
-4.86
-5.18
-5.46
-5.73
-6.05
-6.44
-6.98
-7.68
-8.53
-9.39
-10.08
-10.39
-10.22
-9.54
-8.46
-7.13
-5.70
-4.27
-2.86
-1.43
0.07
1.68
3.32
4.89
6.21
7.15
7.65
7.75
7.55
7.18
6.76
6.36
6.02
5.76
5.60
5.53
5.57
5.67
5.76
5.79
5.70
5.49
5.22
4.97
4.79
4.66
4.49
4.17
3.60
2.76
1.72
0.64
-0.33
-1.10
-1.70
-2.20
-2.77
-3.51
-4.47
-5.62
-6.80
-7.82
-8.47
-8.58
-8.12
-7.14
-5.80
-4.29
-2.78
-1.36
-0.06
1.15
2.24
3.16
3.81
4.11
4.08
3.87
3.65
3.60
3.78
4.14
4.57
5.01
5.44
5.94
6.58
7.38
8.29
9.19
9.96
10.52
10.82
10.82
10.54
9.99
9.25
8.41
7.57
6.79
6.06
5.29
4.40
3.35
2.17
0.96
-0.18
-1.20
-2.11
-3.00
-3.96
-5.03
-6.16
-7.23
-8.07
-8.53
-8.52
-8.04
-7.16
-5.97
-4.54
-2.95
-1.31
0.29
1.71
2.85
3.65
4.13
4.33
4.31
4.11
3.76
3.30
2.76
2.19
1.61
1.00
0.30
-0.51
-1.37
-2.15
-2.71
-2.98
-3.02
-3.03
-3.27
-3.90
-4.94
-6.21
-7.49
-8.56
-9.37
-10.00
-10.55
-11.10
-11.60
-11.97
-12.12
-12.09
-11.96
-11.90
-12.03
-12.36
-12.88
-13.49
-14.08
-14.53
-14.71
-14.52
-13.91
-12.89
-11.53
-9.93
-8.16
-6.25
-4.25
-2.24
-0.30
1.47
2.99
4.20
5.06
5.54
5.62
5.40
5.05
4.83
4.99
5.63
6.67
7.86
8.93
9.71
10.16
10.41
10.51
10.48
10.20
9.56
8.50
7.12
5.57
4.07
2.72
1.57
0.53
-0.47
-1.48
-2.48
-3.43
-4.23
-4.84
-5.26
-5.55
-5.83
-6.24
-6.88
-7.76
-8.74
-9.58
-10.01
-9.80
-8.86
-7.22
-5.02
-2.42
0.45
3.50
6.66
9.91
13.19
16.42
19.49
22.20
24.38
25.81
26.42
26.23
25.39
24.09
22.51
20.72
18.75
16.64
14.41
12.15
9.92
7.75
5.65
3.65
1.85
0.38
-0.72
-1.55
-2.32
-3.28
-4.55
-6.03
-7.47
-8.58
-9.20
-9.37
-9.26
-9.04
-8.81
-8.57
-8.28
-7.97
-7.75
-7.80
-8.21
-9.02
-10.10
-11.26
-12.31
-13.05
-13.33
-13.10
-12.34
-11.11
-9.49
-7.60
-5.62
-3.70
-1.99
-0.58
0.52
1.35
2.00
2.54
2.99
3.35
3.62
3.79
3.90
3.92
3.84
3.57
3.09
2.41
1.66
1.01
0.58
0.44
0.49
0.55
0.43
0.00
-0.69
-1.47
-2.13
-2.54
-2.71
-2.80
-3.02
-3.47
-4.07
-4.60
-4.81
-4.59
-4.05
-3.44
-3.09
-3.22
-3.90
-5.03
-6.45
-7.93
-9.26
-10.26
-10.73
-10.58
-9.81
-8.58
-7.12
-5.69
-4.46
-3.47
-2.64
-1.86
-1.07
-0.29
0.40
0.93
1.30
1.61
2.03
2.76
3.92
5.58
7.70
10.18
12.85
15.40
17.46
18.61
18.57
17.26
14.90
11.91
8.78
5.88
3.37
1.21
-0.71
-2.44
-3.94
-5.12
-5.90
-6.33
-6.56
-6.76
-7.11
-7.65
-8.37
-9.20
-10.07
-10.93
-11.72
-12.36
-12.73
-12.65
-11.98
-10.64
-8.69
-6.32
-3.78
-1.28
1.05
3.15
5.01
6.56
7.74
8.51
8.91
9.05
9.05
8.98
8.74
8.24
7.43
6.43
5.51
4.94
4.80
4.94
4.98
4.56
3.50
1.90
0.09
-1.54
-2.73
-3.38
-3.58
-3.55
-3.47
-3.47
-3.54
-3.64
-3.62
-3.39
-2.89
-2.12
-1.17
-0.20
0.67
1.34
1.78
2.00
2.04
1.93
1.70
1.37
1.01
0.69
0.51
0.55
0.86
1.38
2.02
2.66
3.22
3.68
4.10
4.57
5.19
6.04
7.16
8.54
10.17
11.98
13.92
15.90
17.82
19.55
21.05
22.24
23.07
23.42
23.15
22.14
20.41
18.16
15.78
13.72
12.30
11.58
11.36
11.29
10.98
10.22
8.93
7.18
5.09
2.79
0.34
-2.18
-4.75
-7.27
-9.65
-11.73
-13.42
-14.65
-15.42
-15.83
-16.00
-16.05
-16.06
-16.06
-16.05
-16.02
-15.97
-15.90
-15.86
-15.85
-15.90
-15.99
-16.02
-15.89
-15.44
-14.57
-13.27
-11.67
-9.97
-8.34
-6.93
-5.74
-4.76
-3.95
-3.29
-2.86
-2.72
-2.95
-3.60
-4.62
-5.91
-7.27
-8.51
-9.44
-10.00
-10.20
-10.15
-9.99
-9.85
-9.83
-9.99
-10.32
-10.69
-10.92
-10.72
-9.90
-8.40
-6.34
-3.97
-1.55
0.74
2.85
4.84
6.79
8.74
10.65
12.43
13.97
15.15
15.90
16.20
16.11
15.69
15.01
14.08
12.89
11.46
9.87
8.29
6.88
5.76
4.89
4.10
3.21
2.08
0.76
-0.56
-1.62
-2.22
-2.27
-1.82
-1.08
-0.26
0.42
0.85
0.95
0.71
0.12
-0.85
-2.23
-3.96
-5.87
-7.68
-9.06
-9.77
-9.70
-8.91
-7.63
-6.05
-4.37
-2.71
-1.14
0.27
1.46
2.47
3.37
4.26
5.20
6.13
6.94
7.52
7.88
8.18
8.61
9.26
10.10
10.94
11.58
11.93
12.02
11.99
11.97
12.01
12.03
11.92
11.59
11.01
10.22
9.28
8.23
7.05
5.72
4.25
2.68
1.06
-0.58
-2.27
-4.08
-6.11
-8.36
-10.75
-13.05
-14.97
-16.24
-16.68
-16.27
-15.15
-13.55
-11.73
-9.88
-8.15
-6.60
-5.31
-4.32
-3.62
-3.15
-2.74
-2.19
-1.36
-0.21
1.17
2.58
3.88
4.98
5.90
6.72
7.51
8.31
9.08
9.73
10.15
10.22
9.89
9.16
8.09
6.77
5.22
3.45
1.50
-0.51
-2.32
-3.66
-4.25
-4.00
-3.02
-1.56
0.05
1.48
2.44
2.77
2.45
1.63
0.67
-0.02
-0.08
0.60
1.89
3.51
5.25
7.03
8.89
10.90
12.95
14.78
16.10
16.77
16.87
16.69
16.46
16.28
16.02
15.48
14.50
13.10
11.46
9.75
8.08
6.43
4.72
2.95
1.19
-0.43
-1.81
-3.00
-4.13
-5.37
-6.82
-8.43
-10.05
-11.49
-12.61
-13.35
-13.73
-13.85
-13.77
-13.60
-13.42
-13.32
-13.39
-13.70
-14.29
-15.14
-16.18
-17.28
-18.28
-18.99
-19.29
-19.08
-18.34
-17.08
-15.35
-13.20
-10.74
-8.11
-5.48
-2.98
-0.66
1.52
3.59
5.55
7.29
8.61
9.35
9.49
9.17
8.65
8.17
7.92
7.88
7.97
8.01
7.87
7.44
6.72
5.76
4.65
3.53
2.52
1.75
1.28
1.15
1.33
1.74
2.27
2.76
3.07
3.10
2.80
2.25
1.61
1.08
0.80
0.81
1.00
1.17
1.06
0.54
-0.39
-1.54
-2.67
-3.53
-4.00
-4.06
-3.75
-3.17
-2.41
-1.60
-0.87
-0.41
-0.36
-0.76
-1.55
-2.56
-3.64
-4.66
-5.63
-6.59
-7.59
-8.58
-9.48
-10.18
-10.66
-10.99
-11.31
-11.77
-12.46
-13.31
-14.14
-14.75
-14.97
-14.75
-14.18
-13.40
-12.59
-11.90
-11.41
-11.12
-11.03
-11.06
-11.15
-11.23
-11.23
-11.13
-10.95
-10.71
-10.41
-10.03
-9.50
-8.74
-7.68
-6.30
-4.61
-2.72
-0.76
1.08
2.62
3.76
4.49
4.86
4.98
4.94
4.75
4.44
4.02
3.58
3.29
3.32
3.83
4.90
6.53
8.68
11.30
14.35
17.73
21.30
24.83
28.09
30.85
32.96
34.39
35.16
35.34
34.95
33.95
32.29
30.01
27.27
24.35
21.53
18.95
16.55
14.11
11.40
8.32
4.96
1.57
-1.49
-3.98
-5.81
-7.02
-7.74
-8.10
-8.19
-8.09
-7.89
-7.65
-7.42
-7.22
-7.00
-6.74
-6.45
-6.21
-6.09
-6.14
-6.27
-6.37
-6.29
-5.94
-5.38
-4.76
-4.25
-3.95
-3.86
-3.90
-3.94
-3.90
-3.74
-3.51
-3.26
-3.05
-2.92
-2.89
-2.99
-3.21
-3.56
-4.01
-4.49
-4.93
-5.25
-5.41
-5.40
-5.29
-5.17
-5.20
-5.52
-6.29
-7.52
-9.14
-10.93
-12.65
-14.03
-14.95
-15.38
-15.41
-15.17
-14.77
-14.23
-13.52
-12.63
-11.57
-10.42
-9.30
-8.35
-7.63
-7.12
-6.71
-6.24
-5.58
-4.67
-3.56
-2.36
-1.16
-0.05
0.95
1.88
2.74
3.54
4.23
4.74
5.00
5.01
4.77
4.37
3.84
3.27
2.67
2.06
1.43
0.78
0.14
-0.48
-1.04
-1.56
-2.10
-2.75
-3.63
-4.79
-6.20
-7.72
-9.15
-10.33
-11.16
-11.61
-11.74
-11.61
-11.24
-10.66
-9.88
-8.95
-7.97
-7.03
-6.20
-5.50
-4.89
-4.29
-3.62
-2.81
-1.88
-0.86
0.18
1.17
2.08
2.92
3.74
4.58
5.48
6.42
7.37
8.28
9.06
9.67
10.04
10.18
10.12
9.94
9.70
9.45
9.14
8.74
8.19
7.54
6.84
6.20
5.64
5.16
4.67
4.06
3.27
2.23
0.96
-0.50
-2.01
-3.33
-4.17
-4.27
-3.52
-2.01
-0.08
1.84
3.36
4.29
4.59
4.41
3.91
3.23
2.49
1.75
1.09
0.59
0.28
0.12
0.04
-0.03
-0.09
-0.11
-0.03
0.16
0.41
0.61
0.67
0.52
0.15
-0.39
-1.02
-1.64
-2.13
-2.38
-2.31
-1.95
-1.39
-0.83
-0.44
-0.31
-0.40
-0.62
-0.88
-1.14
-1.41
-1.76
-2.24
-2.85
-3.57
-4.40
-5.27
-6.10
-6.74
-7.01
-6.75
-5.96
-4.71
-3.21
-1.60
-0.00
1.55
3.04
4.40
5.54
6.34
6.76
6.86
6.77
6.63
6.50
6.41
6.33
6.23
6.10
5.98
5.91
5.95
6.09
6.29
6.47
6.53
6.41
6.13
5.76
5.42
5.15
4.91
4.59
4.09
3.34
2.42
1.44
0.53
-0.24
-0.89
-1.47
-2.06
-2.72
-3.50
-4.38
-5.33
-6.24
-6.99
-7.48
-7.61
-7.36
-6.72
-5.74
-4.48
-3.06
-1.62
-0.28
0.85
1.75
2.45
3.01
3.50
3.89
4.14
4.15
3.93
3.56
3.17
2.91
2.88
3.07
3.42
3.85
4.28
4.72
5.15
5.54
5.82
5.93
5.83
5.53
5.10
4.61
4.07
3.44
2.66
1.73
0.68
-0.40
-1.42
-2.29
-2.95
-3.34
-3.42
-3.23
-2.83
-2.38
-2.02
-1.91
-2.09
-2.54
-3.15
-3.78
-4.29
-4.59
-4.67
-4.59
-4.44
-4.31
-4.23
-4.17
-4.01
-3.69
-3.16
-2.44
-1.60
-0.69
0.26
1.21
2.15
2.98
3.60
3.95
4.03
3.95
3.91
4.11
4.68
5.62
6.84
8.18
9.49
10.63
11.55
12.21
12.64
12.89
13.02
13.10
13.17
13.22
13.21
13.06
12.66
11.96
10.96
9.75
8.48
7.31
6.29
5.42
4.58
3.64
2.54
1.33
0.16
-0.81
-1.47
-1.80
-1.87
-1.76
-1.58
-1.39
-1.23
-1.19
-1.32
-1.69
-2.29
-3.00
-3.71
-4.24
-4.53
-4.62
-4.60
-4.60
-4.69
-4.87
-5.08
-5.22
-5.19
-4.93
-4.45
-3.81
-3.12
-2.53
-2.13
-1.95
-1.97
-2.11
-2.31
-2.55
-2.86
-3.24
-3.72
-4.29
-4.93
-5.67
-6.52
-7.48
-8.53
-9.65
-10.80
-12.00
-13.27
-14.66
-16.14
-17.62
-18.89
-19.67
-19.69
-18.79
-16.96
-14.38
-11.36
-8.22
-5.21
-2.46
0.03
2.31
4.38
6.21
7.74
8.92
9.82
10.53
11.12
11.57
11.81
11.69
11.15
10.25
9.16
8.10
7.22
6.57
6.06
5.59
5.12
4.67
4.31
4.06
3.82
3.47
2.90
2.15
1.32
0.60
0.14
-0.03
0.05
0.27
0.53
0.75
0.89
0.91
0.74
0.36
-0.16
-0.65
-0.87
-0.58
0.31
1.73
3.46
5.24
6.81
8.05
8.90
9.38
9.50
9.25
8.60
7.53
6.08
4.38
2.57
0.83
-0.72
-1.94
-2.79
-3.18
-3.11
-2.61
-1.80
-0.86
0.00
0.66
1.07
1.24
1.22
1.06
0.77
0.39
0.01
-0.27
-0.35
-0.29
-0.22
-0.37
-0.90
-1.86
-3.17
-4.69
-6.31
-7.92
-9.44
-10.74
-11.67
-12.10
-12.02
-11.51
-10.72
-9.77
-8.71
-7.46
-5.95
-4.17
-2.24
-0.37
1.21
2.36
3.06
3.40
3.50
3.48
3.40
3.31
3.23
3.19
3.21
3.25
3.26
3.18
3.00
2.73
2.46
2.27
2.21
2.30
2.49
2.67
2.74
2.58
2.10
1.26
0.07
-1.44
-3.20
-5.11
-7.11
-9.12
-11.09
-12.96
-14.68
-16.18
-17.35
-18.07
-18.19
-17.59
-16.23
-14.23
-11.82
-9.31
-6.96
-4.96
-3.36
-2.10
-1.03
-0.04
0.98
2.05
3.11
4.14
5.10
6.01
6.88
7.68
8.31
8.61
8.44
7.80
6.88
5.97
5.40
5.30
5.59
5.93
5.94
5.38
4.22
2.66
1.01
-0.44
-1.58
-2.42
-3.12
-3.84
-4.68
-5.67
-6.78
-7.93
-9.01
-9.91
-10.45
-10.48
-9.88
-8.67
-7.02
-5.15
-3.31
-1.65
-0.22
1.03
2.14
3.11
3.87
4.38
4.65
4.77
4.87
5.06
5.35
5.67
5.93
6.08
6.12
6.12
6.10
6.08
6.02
5.87
5.63
5.31
4.95
4.57
4.13
3.59
2.89
2.02
1.04
0.00
-1.01
-1.95
-2.82
-3.65
-4.46
-5.24
-5.95
-6.47
-6.68
-6.47
-5.74
-4.49
-2.80
-0.87
1.05
2.73
3.97
4.72
5.04
5.14
5.30
5.76
6.67
8.01
9.59
11.13
12.39
13.26
13.72
13.88
13.83
13.64
13.31
12.83
12.24
11.66
11.22
11.02
11.05
11.16
11.10
10.65
9.66
8.19
6.40
4.53
2.72
1.02
-0.65
-2.39
-4.24
-6.16
-8.02
-9.69
-11.18
-12.63
-14.24
-16.17
-18.40
-20.65
-22.47
-23.38
-23.09
-21.61
-19.27
-16.54
-13.86
-11.44
-9.34
-7.46
-5.72
-4.14
-2.72
-1.50
-0.46
0.43
1.15
1.62
1.77
1.57
1.10
0.57
0.19
0.06
0.21
0.51
0.81
1.02
1.13
1.20
1.38
1.80
2.55
3.69
5.20
6.99
8.95
10.93
12.77
14.27
15.24
15.52
15.02
13.80
12.02
9.93
7.79
5.76
3.94
2.30
0.83
-0.43
-1.45
-2.11
-2.34
-2.10
-1.41
-0.38
0.87
2.18
3.41
4.41
5.11
5.47
5.50
5.24
4.75
4.09
3.37
2.75
2.36
2.27
2.45
2.77
3.06
3.19
3.12
2.92
2.69
2.52
2.40
2.26
2.04
1.75
1.44
1.23
1.17
1.28
1.44
1.51
1.36
0.91
0.17
-0.75
-1.71
-2.55
-3.19
-3.62
-3.94
-4.25
-4.66
-5.18
-5.73
-6.08
-6.00
-5.28
-3.84
-1.77
0.65
3.08
5.18
6.75
7.81
8.53
9.12
9.71
10.32
10.77
10.86
10.44
9.50
8.17
6.67
5.25
4.08
3.25
2.69
2.33
2.06
1.82
1.61
1.44
1.33
1.25
1.17
1.00
0.71
0.28
-0.28
-0.90
-1.54
-2.15
-2.69
-3.16
-3.57
-3.91
-4.15
-4.27
-4.25
-4.14
-4.06
-4.13
-4.46
-5.07
-5.90
-6.84
-7.76
-8.56
-9.18
-9.54
-9.55
-9.13
-8.24
-6.91
-5.24
-3.38
-1.50
0.31
1.98
3.46
4.70
5.65
6.24
6.49
6.46
6.25
5.99
5.75
5.52
5.23
4.82
4.26
3.57
2.84
2.14
1.57
1.21
1.09
1.20
1.41
1.62
1.75
1.80
1.81
1.77
1.58
1.04
-0.03
-1.70
-3.78
-5.89
-7.60
-8.59
-8.75
-8.24
-7.36
-6.49
-5.96
-6.05
-6.87
-8.37
-10.24
-12.02
-13.24
-13.59
-13.03
-11.77
-10.15
-8.49
-6.99
-5.71
-4.69
-3.94
-3.51
-3.42
-3.61
-4.00
-4.48
-4.95
-5.38
-5.69
-5.80
-5.57
-4.91
-3.86
-2.56
-1.25
-0.14
0.66
1.16
1.43
1.56
1.56
1.43
1.17
0.87
0.75
1.08
2.11
3.89
6.20
8.62
10.67
11.99
12.46
12.24
11.56
10.59
9.37
7.78
5.73
3.30
0.77
-1.45
-2.93
-3.45
-3.06
-2.01
-0.64
0.75
2.01
3.12
4.15
5.20
6.29
7.41
8.53
9.61
10.69
11.83
13.04
14.21
15.16
15.61
15.40
14.49
13.03
11.35
9.74
8.40
7.39
6.61
5.91
5.19
4.40
3.56
2.64
1.57
0.24
-1.46
-3.60
-6.11
-8.85
-11.59
-14.10
-16.20
-17.75
-18.74
-19.24
-19.45
-19.60
-19.88
-20.34
-20.85
-21.12
-20.89
-19.98
-18.41
-16.37
-14.10
-11.82
-9.61
-7.51
-5.49
-3.58
-1.84
-0.35
0.85
1.76
2.44
2.92
3.24
3.43
3.51
3.55
3.61
3.77
4.05
4.41
4.81
5.19
5.50
5.73
5.90
6.01
6.08
6.15
6.30
6.61
7.14
7.88
8.74
9.56
10.18
10.48
10.40
9.96
9.19
8.15
6.88
5.44
3.87
2.17
0.34
-1.62
-3.67
-5.67
-7.43
-8.73
-9.41
-9.38
-8.71
-7.52
-6.03
-4.46
-2.97
-1.65
-0.55
0.40
1.22
1.97
2.60
3.07
3.28
3.20
2.83
2.24
1.55
0.88
0.32
-0.03
-0.12
0.04
0.38
0.78
1.10
1.26
1.24
1.10
0.87
0.54
0.00
-0.88
-2.19
-3.87
-5.75
-7.59
-9.24
-10.75
-12.33
-14.27
-16.72
-19.59
-22.53
-24.99
-26.47
-26.68
-25.68
-23.77
-21.40
-18.91
-16.46
-14.03
-11.48
-8.72
-5.80
-2.83
0.01
2.62
4.94
7.00
8.80
10.30
11.41
12.03
12.07
11.54
10.49
9.10
7.57
6.11
4.87
3.93
3.28
2.81
2.45
2.12
1.80
1.47
1.15
0.87
0.66
0.58
0.63
0.77
0.93
0.97
0.77
0.26
-0.57
-1.67
-2.90
-4.06
-4.91
-5.21
-4.81
-3.67
-1.87
0.37
2.80
5.14
7.22
8.94
10.31
11.40
12.29
13.06
13.73
14.27
14.59
14.64
14.42
13.96
13.41
12.92
12.66
12.68
12.96
13.35
13.60
13.51
12.92
11.84
10.34
8.58
6.67
4.70
2.69
0.63
-1.52
-3.78
-6.20
-8.74
-11.29
-13.65
-15.60
-16.92
-17.55
-17.60
-17.29
-16.93
-16.77
-16.95
-17.41
-17.92
-18.14
-17.73
-16.46
-14.27
-11.34
-7.98
-4.57
-1.44
1.22
3.36
4.98
6.11
6.81
7.12
7.11
6.87
6.51
6.14
5.85
5.73
5.84
6.21
6.84
7.69
8.68
9.73
10.77
11.77
12.67
13.43
13.96
14.20
14.11
13.72
13.09
12.30
11.39
10.33
9.07
7.62
6.08
4.61
3.39
2.49
1.84
1.24
0.46
-0.60
-1.84
-3.00
-3.70
-3.62
-2.63
-0.83
1.54
4.17
6.79
9.19
11.20
12.72
13.65
13.99
13.79
13.19
12.32
11.29
10.14
8.89
7.50
5.99
4.36
2.67
0.93
-0.79
-2.46
-4.04
-5.59
-7.18
-8.92
-10.88
-12.97
-15.05
-16.92
-18.46
-19.64
-20.49
-21.01
-21.15
-20.80
-19.93
-18.64
-17.20
-15.95
-15.18
-14.98
-15.29
-15.84
-16.38
-16.68
-16.58
-16.08
-15.21
-14.05
-12.70
-11.27
-9.88
-8.67
-7.81
-7.46
-7.71
-8.52
-9.66
-10.75
-11.41
-11.33
-10.37
-8.57
-6.08
-3.13
0.06
3.26
6.25
8.82
10.88
12.43
13.61
14.59
15.50
16.35
17.08
17.57
17.76
17.65
17.30
16.77
16.14
15.43
14.71
14.02
13.38
12.76
12.09
11.31
10.36
9.26
8.07
6.86
5.71
4.67
3.75
2.94
2.16
1.34
0.42
-0.61
-1.67
-2.62
-3.35
-3.78
-3.93
-3.88
-3.77
-3.75
-3.98
-4.55
-5.51
-6.74
-8.02
-9.03
-9.47
-9.20
-8.25
-6.84
-5.27
-3.85
-2.82
-2.29
-2.27
-2.66
-3.32
-4.10
-4.89
-5.64
-6.31
-6.86
-7.24
-7.40
-7.33
-7.08
-6.74
-6.42
-6.14
-5.82
-5.38
-4.73
-3.84
-2.75
-1.55
-0.31
0.91
2.03
2.97
3.64
4.00
4.07
3.96
3.83
3.74
3.69
3.53
3.09
2.26
1.08
-0.29
-1.65
-2.79
-3.61
-4.09
-4.21
-3.91
-3.11
-1.72
0.23
2.57
5.07
7.51
9.80
12.01
14.24
16.57
18.91
21.06
22.77
23.81
24.13
23.74
22.77
21.33
19.54
17.47
15.24
12.90
10.55
8.22
5.95
3.77
1.71
-0.19
-1.90
-3.42
-4.77
-5.97
-7.02
-7.88
-8.49
-8.84
-8.93
-8.80
-8.51
-8.11
-7.63
-7.15
-6.77
-6.57
-6.66
-7.04
-7.63
-8.26
-8.72
-8.77
-8.29
-7.27
-5.81
-4.15
-2.54
-1.26
-0.49
-0.24
-0.39
-0.65
-0.73
-0.44
0.22
1.06
1.85
2.34
2.44
2.20
1.71
1.06
0.27
-0.70
-1.85
-3.13
-4.34
-5.27
-5.75
-5.74
-5.39
-5.01
-4.92
-5.34
-6.30
-7.62
-9.03
-10.25
-11.15
-11.76
-12.31
-13.01
-14.10
-15.67
-17.67
-19.97
-22.40
-24.78
-26.96
-28.74
-29.99
-30.71
-31.08
-31.47
-32.27
-33.66
-35.47
-37.16
-38.03
-37.61
-35.96
-33.72
-31.90
-31.35
-32.25
-34.03
-35.68
-36.29
-35.60
-34.01
-32.22
-30.70
-29.31
-27.23
-23.49
-17.42
-8.91
1.63
13.72
27.11
41.92
58.40
76.52
95.67
114.68
132.06
146.38
156.51
161.65
161.29
155.15
143.24
126.23
105.62
83.65
62.74
44.81
30.63
19.76
11.03
3.31
-3.95
-10.64
-16.37
-20.92
-24.52
-27.65
-30.68
-33.59
-35.95
-37.23
-37.11
-35.72
-33.55
-31.24
-29.30
-27.96
-27.20
-26.76
-26.39
-25.89
-25.17
-24.23
-23.13
-21.94
-20.71
-19.48
-18.30
-17.19
-16.12
-15.09
-14.04
-12.96
-11.85
-10.70
-9.53
-8.32
-7.07
-5.82
-4.69
-3.79
-3.18
-2.78
-2.42
-1.89
-1.08
-0.00
1.17
2.24
3.05
3.54
3.75
3.72
3.44
2.91
2.11
1.09
-0.02
-1.14
-2.24
-3.36
-4.57
-5.88
-7.19
-8.27
-8.85
-8.72
-7.82
-6.28
-4.33
-2.28
-0.35
1.33
2.71
3.84
4.78
5.63
6.47
7.33
8.23
9.11
9.88
10.44
10.73
10.74
10.57
10.35
10.26
10.39
10.77
11.27
11.72
11.94
11.81
11.31
10.52
9.52
8.40
7.16
5.80
4.36
2.94
1.69
0.77
0.25
0.07
0.06
0.01
-0.26
-0.82
-1.71
-2.91
-4.44
-6.27
-8.33
-10.42
-12.21
-13.37
-13.68
-13.12
-11.90
-10.36
-8.87
-7.70
-6.93
-6.49
-6.23
-6.04
-5.86
-5.71
-5.63
-5.64
-5.69
-5.70
-5.58
-5.30
-4.88
-4.41
-4.00
-3.71
-3.56
-3.47
-3.31
-3.02
-2.55
-1.99
-1.50
-1.25
-1.32
-1.69
-2.25
-2.84
-3.38
-3.83
-4.28
-4.80
-5.47
-6.30
-7.23
-8.17
-8.98
-9.59
-9.97
-10.22
-10.49
-10.98
-11.87
-13.18
-14.75
-16.29
-17.40
-17.78
-17.23
-15.77
-13.55
-10.82
-7.87
-4.95
-2.24
0.13
2.12
3.70
4.87
5.66
6.11
6.31
6.37
6.40
6.50
6.68
6.88
7.06
7.16
7.22
7.33
7.54
7.82
8.04
8.02
7.65
6.94
6.03
5.12
4.37
3.82
3.42
3.04
2.58
1.96
1.21
0.36
-0.53
-1.47
-2.43
-3.41
-4.37
-5.27
-6.08
-6.78
-7.38
-7.96
-8.62
-9.47
-10.54
-11.76
-12.96
-13.85
-14.16
-13.72
-12.51
-10.71
-8.60
-6.51
-4.62
-3.02
-1.61
-0.35
0.80
1.79
2.55
3.07
3.47
3.92
4.60
5.61
6.92
8.39
9.83
11.10
12.14
12.94
13.53
13.95
14.22
14.34
14.26
13.92
13.30
12.39
11.23
9.88
8.38
6.74
4.98
3.10
1.15
-0.81
-2.71
-4.54
-6.32
-8.13
-10.02
-11.96
-13.84
-15.45
-16.57
-17.09
-16.96
-16.24
-14.95
-13.13
-10.77
-7.94
-4.78
-1.51
1.65
4.60
7.38
10.10
12.80
15.42
17.75
19.61
20.97
21.96
22.84
23.79
24.80
25.76
26.47
26.83
26.89
26.75
26.54
26.29
25.92
25.25
24.18
22.68
20.87
18.95
17.12
15.50
14.06
12.67
11.19
9.54
7.73
5.87
4.05
2.34
0.71
-0.92
-2.59
-4.37
-6.30
-8.47
-10.94
-13.72
-16.67
-19.52
-21.90
-23.50
-24.12
-23.77
-22.52
-20.53
-17.98
-15.05
-12.02
-9.19
-6.79
-4.97
-3.65
-2.66
-1.79
-0.95
-0.18
0.44
0.84
1.06
1.21
1.40
1.68
2.01
2.27
2.40
2.37
2.19
1.86
1.37
0.64
-0.37
-1.60
-2.93
-4.17
-5.19
-5.91
-6.37
-6.59
-6.62
-6.47
-6.16
-5.77
-5.44
-5.35
-5.63
-6.30
-7.28
-8.42
-9.60
-10.73
-11.79
-12.73
-13.44
-13.76
-13.54
-12.71
-11.33
-9.60
-7.77
-6.05
-4.53
-3.18
-1.96
-0.82
0.20
1.00
1.52
1.74
1.77
1.77
1.86
2.11
2.45
2.77
3.01
3.16
3.30
3.53
3.87
4.31
4.73
5.06
5.21
5.18
4.95
4.55
3.99
3.33
2.62
1.88
1.12
0.28
-0.70
-1.85
-3.17
-4.59
-6.08
-7.63
-9.27
-10.99
-12.75
-14.41
-15.77
-16.62
-16.79
-16.19
-14.84
-12.85
-10.35
-7.56
-4.67
-1.87
0.67
2.86
4.67
6.14
7.39
8.52
9.63
10.69
11.62
12.31
12.68
12.76
12.66
12.55
12.59
12.84
13.26
13.76
14.21
14.54
14.69
14.66
14.39
13.85
12.98
11.78
10.30
8.64
6.92
5.20
3.53
1.86
0.17
-1.56
-3.29
-4.96
-6.49
-7.82
-8.94
-9.87
-10.64
-11.26
-11.64
-11.62
-11.04
-9.81
-8.00
-5.83
-3.59
-1.58
0.08
1.38
2.42
3.26
3.91
4.30
4.39
4.22
3.94
3.69
3.56
3.51
3.43
3.22
2.87
2.48
2.16
1.96
1.80
1.53
1.03
0.28
-0.60
-1.44
-2.13
-2.65
-3.15
-3.78
-4.63
-5.71
-6.90
-8.08
-9.19
-10.19
-11.11
-12.00
-12.83
-13.59
-14.22
-14.72
-15.07
-15.19
-14.92
-14.03
-12.28
-9.56
-5.95
-1.78
2.52
6.50
9.87
12.46
14.28
15.41
15.98
16.12
15.96
15.64
15.23
14.76
14.19
13.44
12.46
11.19
9.63
7.78
5.68
3.34
0.83
-1.75
-4.26
-6.54
-8.44
-9.81
-10.50
-10.40
-9.46
-7.75
-5.53
-3.20
-1.18
0.18
0.73
0.54
-0.20
-1.20
-2.25
-3.21
-3.95
-4.36
-4.23
-3.40
-1.74
0.66
3.58
6.64
9.50
11.93
13.89
15.45
16.74
17.81
18.61
19.03
18.96
18.43
17.57
16.60
15.72
15.01
14.37
13.62
12.53
10.96
8.97
6.70
4.40
2.27
0.41
-1.21
-2.67
-4.06
-5.44
-6.80
-8.09
-9.22
-10.13
-10.79
-11.25
-11.67
-12.22
-13.02
-14.14
-15.46
-16.81
-17.98
-18.79
-19.12
-18.88
-18.05
-16.61
-14.61
-12.21
-9.61
-7.07
-4.82
-2.96
-1.51
-0.36
0.61
1.50
2.35
3.14
3.80
4.31
4.68
5.01
5.33
5.62
5.79
5.65
5.07
4.00
2.49
0.65
-1.34
-3.33
-5.13
-6.57
-7.51
-7.90
-7.79
-7.36
-6.72
-5.98
-5.10
-3.99
-2.64
-1.11
0.41
1.71
2.62
3.07
3.07
2.63
1.83
0.78
-0.30
-1.13
-1.51
-1.37
-0.89
-0.38
-0.19
-0.52
-1.33
-2.43
-3.54
-4.39
-4.81
-4.77
-4.28
-3.37
-2.10
-0.54
1.21
3.03
4.81
6.50
8.09
9.64
11.23
12.88
14.52
16.02
17.23
18.09
18.67
19.17
19.81
20.68
21.75
22.78
23.47
23.54
22.82
21.32
19.18
16.59
13.71
10.62
7.31
3.73
-0.13
-4.25
-8.53
-12.78
-16.73
-20.06
-22.42
-23.51
-23.21
-21.65
-19.21
-16.43
-13.74
-11.40
-9.46
-7.83
-6.46
-5.40
-4.79
-4.68
-4.99
-5.49
-5.84
-5.79
-5.26
-4.32
-3.16
-1.98
-0.93
-0.04
0.68
1.32
1.93
2.56
3.23
3.89
4.52
5.09
5.61
6.13
6.66
7.17
7.53
7.57
7.16
6.28
5.07
3.76
2.59
1.69
1.05
0.48
-0.20
-1.16
-2.45
-3.97
-5.59
-7.13
-8.40
-9.25
-9.52
-9.12
-8.02
-6.31
-4.18
-1.87
0.38
2.40
4.07
5.36
6.31
6.99
7.49
7.92
8.36
8.85
9.38
9.90
10.35
10.64
10.74
10.64
10.34
9.89
9.35
8.78
8.26
7.85
7.52
7.25
6.93
6.52
5.99
5.37
4.68
3.97
3.24
2.47
1.68
0.85
-0.02
-0.92
-1.85
-2.78
-3.70
-4.56
-5.36
-6.08
-6.77
-7.49
-8.32
-9.33
-10.55
-11.94
-13.38
-14.65
-15.50
-15.74
-15.24
-14.06
-12.38
-10.47
-8.57
-6.82
-5.27
-3.85
-2.45
-1.02
0.45
1.87
3.09
3.97
4.49
4.69
4.74
4.84
5.15
5.71
6.44
7.18
7.76
8.08
8.12
7.92
7.58
7.19
6.77
6.35
5.87
5.29
4.58
3.69
2.63
1.42
0.11
-1.21
-2.47
-3.60
-4.55
-5.30
-5.84
-6.21
-6.48
-6.79
-7.30
-8.13
-9.29
-10.66
-11.98
-12.96
-13.34
-13.00
-11.96
-10.36
-8.38
-6.21
-4.05
-2.06
-0.34
1.10
2.30
3.38
4.45
5.57
6.75
7.94
9.05
9.98
10.67
11.05
11.09
10.84
10.40
9.93
9.56
9.34
9.19
8.96
8.47
7.70
6.71
5.72
4.90
4.38
4.16
4.11
4.10
4.01
3.75
3.32
2.68
1.84
0.84
-0.27
-1.37
-2.36
-3.15
-3.73
-4.21
-4.73
-5.51
-6.66
-8.23
-10.05
-11.85
-13.28
-14.00
-13.84
-12.78
-11.01
-8.85
-6.64
-4.65
-2.99
-1.69
-0.64
0.24
0.96
1.48
1.74
1.70
1.44
1.08
0.77
0.63
0.68
0.88
1.15
1.43
1.68
1.92
2.14
2.33
2.46
2.46
2.35
2.14
1.90
1.63
1.32
0.91
0.33
-0.41
-1.28
-2.13
-2.87
-3.43
-3.87
-4.28
-4.77
-5.42
-6.23
-7.13
-8.09
-9.03
-9.92
-10.66
-11.10
-11.06
-10.35
-8.91
-6.79
-4.28
-1.75
0.44
2.01
2.83
2.93
2.43
1.47
0.19
-1.27
-2.82
-4.31
-5.61
-6.61
-7.25
-7.52
-7.53
-7.40
-7.22
-6.98
-6.60
-5.94
-4.93
-3.63
-2.24
-1.00
-0.06
0.56
1.01
1.43
1.92
2.39
2.67
2.59
2.09
1.25
0.22
-0.81
-1.78
-2.73
-3.75
-4.97
-6.42
-8.11
-9.94
-11.74
-13.27
-14.24
-14.39
-13.50
-11.51
-8.51
-4.81
-0.75
3.29
7.05
10.40
13.30
15.77
17.79
19.33
20.37
20.96
21.21
21.25
21.19
21.03
20.69
20.06
19.13
17.97
16.68
15.36
14.01
12.52
10.84
8.91
6.78
4.51
2.15
-0.29
-2.82
-5.40
-7.94
-10.26
-12.22
-13.73
-14.81
-15.55
-16.09
-16.56
-17.05
-17.64
-18.34
-19.12
-19.92
-20.62
-21.10
-21.26
-21.01
-20.23
-18.85
-16.83
-14.20
-11.11
-7.80
-4.52
-1.49
1.22
3.63
5.79
7.73
9.42
10.76
11.68
12.14
12.18
11.89
11.40
10.81
10.18
9.54
8.88
8.21
7.53
6.89
6.32
5.90
5.65
5.57
5.55
5.47
5.17
4.58
3.69
2.61
1.47
0.44
-0.37
-0.90
-1.15
-1.24
-1.29
-1.47
-1.89
-2.62
-3.65
-4.86
-6.11
-7.19
-7.86
-7.92
-7.26
-5.93
-4.14
-2.19
-0.41
1.01
2.01
2.67
3.11
3.42
3.64
3.78
3.86
3.94
4.07
4.26
4.49
4.68
4.80
4.82
4.76
4.63
4.40
3.99
3.32
2.37
1.20
-0.06
-1.27
-2.36
-3.33
-4.26
-5.20
-6.16
-7.04
-7.72
-8.14
-8.28
-8.24
-8.14
-8.11
-8.20
-8.49
-9.00
-9.76
-10.71
-11.69
-12.46
-12.72
-12.25
-10.97
-9.02
-6.64
-4.13
-1.73
0.40
2.21
3.68
4.84
5.72
6.42
7.08
7.82
8.73
9.84
11.08
12.36
13.59
14.76
15.94
17.24
18.77
20.51
22.33
23.99
25.19
25.67
25.25
23.94
21.84
19.22
16.34
13.44
10.67
8.06
5.62
3.32
1.15
-0.85
-2.63
-4.14
-5.38
-6.41
-7.34
-8.33
-9.48
-10.84
-12.39
-14.02
-15.60
-16.94
-17.91
-18.40
-18.40
-17.99
-17.28
-16.41
-15.44
-14.37
-13.14
-11.68
-9.95
-8.00
-5.96
-3.96
-2.12
-0.47
1.04
2.46
3.87
5.26
6.63
7.94
9.14
10.11
10.71
10.70
9.87
8.10
5.45
2.20
-1.31
-4.75
-7.88
-10.60
-12.88
-14.68
-15.95
-16.67
-16.90
-16.79
-16.57
-16.42
-16.46
-16.68
-16.99
-17.22
-17.13
-16.49
-15.10
-12.93
-10.13
-7.05
-4.07
-1.50
0.51
2.03
3.22
4.28
5.34
6.49
7.78
9.21
10.78
12.45
14.22
16.05
17.94
19.86
21.72
23.41
24.78
25.69
26.07
25.86
25.07
23.70
21.78
19.35
16.55
13.54
10.48
7.54
4.80
2.32
0.15
-1.69
-3.19
-4.37
-5.34
-6.21
-7.13
-8.20
-9.41
-10.63
-11.54
-11.75
-10.92
-8.86
-5.68
-1.73
2.45
6.39
9.73
12.39
14.49
16.22
17.78
19.27
20.69
22.01
23.23
24.42
25.71
27.14
28.67
30.08
31.08
31.34
30.60
28.75
25.77
21.74
16.77
11.08
5.01
-0.97
-6.29
-10.42
-13.05
-14.18
-14.14
-13.44
-12.65
-12.20
-12.31
-13.03
-14.31
-16.02
-18.03
-20.21
-22.40
-24.42
-26.09
-27.33
-28.10
-28.51
-28.70
-28.78
-28.74
-28.46
-27.75
-26.40
-24.32
-21.53
-18.23
-14.71
-11.28
-8.19
-5.60
-3.54
-1.94
-0.67
0.39
1.35
2.23
3.03
3.70
4.22
4.50
4.48
4.04
3.15
1.88
0.40
-1.02
-2.19
-3.01
-3.54
-3.90
-4.17
-4.36
-4.44
-4.39
-4.27
-4.18
-4.18
-4.33
-4.62
-5.05
-5.69
-6.62
-7.91
-9.53
-11.29
-12.95
-14.22
-14.93
-14.99
-14.36
-13.08
-11.19
-8.79
-6.04
-3.13
-0.22
2.55
5.12
7.44
9.48
11.13
12.31
12.99
13.18
13.01
12.59
12.03
11.39
10.68
9.94
9.21
8.56
8.00
7.48
6.89
6.15
5.24
4.24
3.26
2.44
1.78
1.26
0.81
0.37
-0.01
-0.26
-0.32
-0.22
-0.07
-0.01
-0.18
-0.66
-1.40
-2.29
-3.21
-4.08
-4.87
-5.59
-6.22
-6.60
-6.52
-5.71
-4.07
-1.72
0.98
3.59
5.73
7.24
8.21
8.82
9.25
9.59
9.85
10.00
10.05
10.06
10.09
10.19
10.35
10.57
10.83
11.12
11.40
11.61
11.67
11.54
11.24
10.86
10.52
10.30
10.22
10.25
10.30
10.29
10.13
9.74
9.10
8.33
7.67
7.47
8.07
9.66
12.13
15.13
18.14
20.67
22.35
22.99
22.51
20.94
18.37
14.96
10.92
6.54
2.19
-1.75
-4.80
-6.54
-6.60
-4.81
-1.29
3.58
9.13
14.62
19.36
22.88
25.00
25.78
25.46
24.35
22.68
20.59
18.09
15.16
11.79
8.09
4.23
0.40
-3.23
-6.56
-9.56
-12.21
-14.45
-16.16
-17.20
-17.54
-17.28
-16.74
-16.33
-16.41
-17.13
-18.34
-19.72
-20.91
-21.69
-22.09
-22.31
-22.55
-22.95
-23.53
-24.21
-24.95
-25.74
-26.61
-27.49
-28.24
-28.66
-28.53
-27.74
-26.27
-24.22
-21.76
-19.07
-16.32
-13.69
-11.35
-9.42
-7.97
-6.92
-6.13
-5.38
-4.50
-3.40
-2.14
-0.86
0.30
1.21
1.86
2.31
2.63
2.92
3.20
3.47
3.67
3.74
3.58
3.12
2.33
1.28
0.05
-1.18
-2.27
-3.14
-3.81
-4.38
-4.95
-5.60
-6.33
-7.17
-8.13
-9.28
-10.68
-12.30
-13.97
-15.36
-16.08
-15.85
-14.62
-12.58
-10.11
-7.63
-5.44
-3.66
-2.24
-1.07
-0.06
0.82
1.54
2.04
2.34
2.49
2.56
2.61
2.63
2.58
2.46
2.30
2.24
2.36
2.72
3.22
3.71
3.99
3.94
3.57
3.05
2.59
2.41
2.59
3.12
3.86
4.63
5.30
5.80
6.15
6.44
6.74
7.07
7.39
7.63
7.68
7.48
6.99
6.21
5.23
4.15
3.16
2.42
2.06
2.09
2.40
2.81
3.07
3.02
2.57
1.78
0.71
-0.53
-1.89
-3.33
-4.80
-6.16
-7.25
-7.93
-8.15
-7.95
-7.45
-6.72
-5.76
-4.50
-2.89
-0.98
1.11
3.15
4.96
6.47
7.64
8.50
9.06
9.30
9.16
8.60
7.64
6.38
4.94
3.48
2.13
0.98
0.04
-0.72
-1.37
-1.98
-2.61
-3.29
-4.02
-4.81
-5.69
-6.71
-7.84
-9.02
-10.09
-10.86
-11.11
-10.72
-9.69
-8.15
-6.32
-4.42
-2.63
-1.04
0.35
1.53
2.50
3.23
3.71
3.97
4.08
4.11
4.09
3.98
3.69
3.20
2.55
1.87
1.33
1.04
0.99
1.05
1.04
0.82
0.35
-0.34
-1.12
-1.87
-2.50
-2.95
-3.21
-3.32
-3.35
-3.34
-3.33
-3.31
-3.25
-3.13
-2.95
-2.83
-2.88
-3.25
-3.98
-4.98
-6.01
-6.74
-6.89
-6.29
-5.00
-3.21
-1.19
0.79
2.59
4.17
5.52
6.64
7.48
7.98
8.13
8.00
7.74
7.48
7.34
7.31
7.36
7.47
7.60
7.80
8.10
8.50
8.95
9.34
9.58
9.59
9.34
8.87
8.20
7.38
6.43
5.35
4.13
2.77
1.36
0.00
-1.19
-2.17
-2.96
-3.68
-4.45
-5.36
-6.46
-7.71
-9.07
-10.50
-11.92
-13.25
-14.33
-14.97
-15.03
-14.43
-13.20
-11.51
-9.54
-7.49
-5.53
-3.75
-2.18
-0.81
0.42
1.56
2.67
3.77
4.84
5.79
6.56
7.08
7.36
7.50
7.60
7.79
8.08
8.42
8.70
8.84
8.81
8.69
8.59
8.59
8.65
8.67
8.50
8.04
7.31
6.40
5.45
4.54
3.67
2.77
1.72
0.48
-0.90
-2.26
-3.45
-4.36
-5.05
-5.73
-6.64
-8.02
-9.84
-11.90
-13.77
-15.04
-15.40
-14.84
-13.52
-11.74
-9.72
-7.61
-5.44
-3.27
-1.19
0.63
2.07
3.06
3.67
4.01
4.20
4.31
4.36
4.41
4.53
4.82
5.30
5.93
6.59
7.14
7.49
7.60
7.49
7.16
6.66
6.03
5.35
4.74
4.27
3.93
3.63
3.24
2.64
1.82
0.82
-0.27
-1.36
-2.44
-3.53
-4.65
-5.80
-6.95
-8.04
-8.98
-9.70
-10.05
-9.88
-9.02
-7.38
-5.00
-2.10
0.96
3.79
6.06
7.62
8.46
8.65
8.30
7.49
6.33
4.98
3.66
2.59
1.91
1.63
1.64
1.79
1.97
2.18
2.47
2.89
3.43
3.99
4.41
4.57
4.39
3.87
3.11
2.20
1.28
0.41
-0.36
-1.08
-1.82
-2.66
-3.62
-4.66
-5.70
-6.62
-7.35
-7.89
-8.29
-8.65
-9.09
-9.75
-10.70
-11.95
-13.38
-14.73
-15.65
-15.84
-15.09
-13.39
-10.98
-8.17
-5.30
-2.60
-0.18
1.93
3.74
5.21
6.34
7.13
7.68
8.15
8.71
9.47
10.45
11.51
12.49
13.25
13.72
13.97
14.13
14.36
14.74
15.19
15.59
15.77
15.64
15.19
14.49
13.59
12.51
11.18
9.55
7.60
5.41
3.10
0.83
-1.33
-3.33
-5.18
-6.90
-8.53
-10.07
-11.56
-13.05
-14.61
-16.34
-18.23
-20.21
-22.05
-23.43
-23.98
-23.49
-21.89
-19.37
-16.29
-13.02
-9.85
-6.92
-4.26
-1.86
0.29
2.16
3.72
4.94
5.89
6.68
7.45
8.32
9.33
10.44
11.55
12.55
13.34
13.89
14.21
14.32
14.25
14.02
13.64
13.11
12.41
11.53
10.45
9.20
7.84
6.44
5.07
3.71
2.32
0.83
-0.75
-2.38
-3.98
-5.51
-7.00
-8.56
-10.28
-12.17
-14.12
-15.86
-17.07
-17.48
-16.95
-15.51
-13.34
-10.70
-7.88
-5.10
-2.55
-0.29
1.66
3.35
4.84
6.17
7.34
8.34
9.13
9.72
10.11
10.37
10.56
10.72
10.89
11.09
11.33
11.61
11.91
12.13
12.15
11.83
11.12
10.08
8.88
7.75
6.83
6.09
5.40
4.59
3.52
2.25
0.91
-0.35
-1.41
-2.28
-3.06
-3.85
-4.73
-5.73
-6.84
-8.07
-9.36
-10.65
-11.78
-12.57
-12.78
-12.25
-10.87
-8.73
-6.01
-3.00
0.01
2.76
5.04
6.74
7.83
8.33
8.38
8.13
7.77
7.42
7.16
7.02
6.94
6.87
6.73
6.44
5.92
5.16
4.21
3.24
2.48
2.14
2.29
2.83
3.53
4.15
4.50
4.54
4.32
3.96
3.55
3.14
2.72
2.23
1.59
0.72
-0.41
-1.76
-3.24
-4.72
-6.10
-7.34
-8.48
-9.62
-10.84
-12.18
-13.56
-14.83
-15.79
-16.24
-15.99
-14.95
-13.13
-10.65
-7.69
-4.49
-1.27
1.77
4.51
6.87
8.81
10.31
11.38
12.06
12.40
12.47
12.33
12.00
11.49
10.80
9.95
8.99
7.98
7.00
6.10
5.34
4.71
4.20
3.74
3.26
2.73
2.15
1.61
1.18
0.89
0.68
0.40
-0.17
-1.18
-2.69
-4.58
-6.64
-8.63
-10.33
-11.65
-12.61
-13.31
-13.89
-14.50
-15.22
-16.00
-16.68
-16.99
-16.62
-15.35
-13.17
-10.25
-6.91
-3.49
-0.26
2.67
5.27
7.52
9.45
11.06
12.34
13.33
14.05
14.51
14.71
14.65
14.37
13.94
13.50
13.11
12.82
12.63
12.50
12.37
12.17
11.86
11.35
10.61
9.66
8.55
7.35
6.13
4.95
3.86
2.90
2.08
1.37
0.67
-0.13
-1.07
-2.13
-3.16
-4.03
-4.69
-5.18
-5.62
-6.17
-6.90
-7.83
-8.95
-10.24
-11.62
-12.99
-14.14
-14.82
-14.78
-13.93
-12.34
-10.18
-7.66
-4.98
-2.31
0.21
2.43
4.20
5.42
6.07
6.28
6.20
6.06
6.02
6.19
6.61
7.21
7.87
8.47
8.87
9.00
8.88
8.61
8.33
8.15
8.15
8.31
8.53
8.69
8.65
8.35
7.77
6.96
5.98
4.96
3.99
3.17
2.54
2.09
1.70
1.22
0.52
-0.45
-1.65
-2.99
-4.40
-5.85
-7.37
-9.03
-10.86
-12.88
-15.05
-17.29
-19.54
-21.67
-23.47
-24.70
-25.14
-24.65
-23.27
-21.23
-18.86
-16.49
-14.28
-12.26
-10.31
-8.28
-6.13
-3.88
-1.64
0.48
2.47
4.42
6.45
8.63
10.92
13.17
15.15
16.72
17.84
18.59
19.08
19.33
19.21
18.45
16.75
13.99
10.27
5.95
1.52
-2.57
-6.04
-8.78
-10.80
-12.17
-12.98
-13.33
-13.35
-13.21
-13.06
-13.01
-13.06
-13.15
-13.17
-13.00
-12.57
-11.81
-10.71
-9.26
-7.53
-5.65
-3.74
-1.93
-0.23
1.35
2.84
4.22
5.41
6.32
6.90
7.18
7.26
7.28
7.34
7.48
7.69
7.95
8.25
8.57
8.88
9.10
9.14
8.87
8.23
7.22
5.95
4.58
3.33
2.36
1.79
1.59
1.67
1.86
2.04
2.18
2.38
2.71
3.18
3.68
4.00
3.92
3.37
2.41
1.24
0.10
-0.86
-1.54
-1.93
-2.04
-1.87
-1.40
-0.64
0.35
1.49
2.68
3.78
4.69
5.34
5.69
5.80
5.74
5.60
5.46
5.32
5.15
4.90
4.61
4.33
4.11
4.00
3.98
4.00
4.00
3.95
3.90
3.91
4.09
4.46
4.94
5.43
5.77
5.85
5.61
5.06
4.21
3.07
1.63
-0.13
-2.19
-4.54
-7.07
-9.65
-12.10
-14.27
-16.06
-17.46
-18.58
-19.54
-20.46
-21.34
-22.08
-22.48
-22.35
-21.60
-20.29
-18.58
-16.65
-14.70
-12.80
-11.03
-9.41
-7.99
-6.78
-5.78
-4.95
-4.27
-3.69
-3.21
-2.81
-2.41
-1.91
-1.18
-0.16
1.06
2.27
3.26
3.86
4.09
4.08
4.02
4.05
4.24
4.61
5.15
5.87
6.78
7.84
8.94
9.94
10.72
11.26
11.60
11.79
11.82
11.61
11.01
9.90
8.25
6.18
3.85
1.50
-0.65
-2.38
-3.53
-4.01
-3.83
-3.16
-2.23
-1.26
-0.40
0.30
0.87
1.31
1.62
1.76
1.76
1.72
1.75
1.92
2.16
2.34
2.29
1.95
1.40
0.80
0.36
0.16
0.18
0.32
0.43
0.38
0.11
-0.41
-1.15
-2.02
-2.89
-3.65
-4.22
-4.63
-5.01
-5.50
-6.22
-7.16
-8.23
-9.30
-10.24
-11.03
-11.71
-12.36
-13.02
-13.69
-14.29
-14.71
-14.83
-14.55
-13.82
-12.63
-11.03
-9.12
-7.06
-5.00
-3.05
-1.27
0.40
2.05
3.74
5.47
7.19
8.80
10.25
11.51
12.55
13.37
13.94
14.24
14.28
14.09
13.77
13.40
13.00
12.54
11.92
11.08
9.98
8.67
7.22
5.74
4.33
3.05
1.95
1.03
0.30
-0.26
-0.73
-1.20
-1.76
-2.46
-3.32
-4.26
-5.19
-6.01
-6.71
-7.35
-8.04
-8.86
-9.81
-10.76
-11.52
-11.84
-11.57
-10.67
-9.24
-7.52
-5.78
-4.25
-3.02
-2.08
-1.33
-0.67
-0.06
0.50
0.98
1.42
1.86
2.40
3.11
4.05
5.21
6.57
8.07
9.64
11.25
12.89
14.56
16.23
17.78
19.00
19.67
19.62
18.82
17.44
15.71
13.90
12.16
10.55
9.10
7.81
6.76
5.98
5.46
5.07
4.63
3.96
2.94
1.58
-0.01
-1.66
-3.19
-4.39
-5.11
-5.27
-4.84
-3.94
-2.76
-1.54
-0.46
0.38
0.97
1.35
1.54
1.54
1.33
0.94
0.45
-0.03
-0.36
-0.54
-0.64
-0.81
-1.14
-1.65
-2.24
-2.78
-3.19
-3.51
-3.88
-4.44
-5.27
-6.30
-7.36
-8.25
-8.81
-9.01
-8.96
-8.86
-8.87
-9.05
-9.40
-9.85
-10.31
-10.73
-11.16
-11.62
-12.19
-12.89
-13.70
-14.54
-15.31
-15.88
-16.12
-15.89
-15.09
-13.74
-11.93
-9.86
-7.70
-5.60
-3.62
-1.74
0.03
1.67
3.13
4.35
5.34
6.14
6.82
7.43
7.97
8.42
8.82
9.21
9.69
10.32
11.03
11.72
12.25
12.58
12.71
12.72
12.61
12.35
11.85
11.07
10.06
8.96
7.91
6.98
6.16
5.31
4.33
3.11
1.66
0.02
-1.69
-3.38
-4.96
-6.46
-7.94
-9.58
-11.47
-13.65
-15.99
-18.18
-19.87
-20.77
-20.72
-19.74
-18.03
-15.88
-13.59
-11.37
-9.33
-7.49
-5.79
-4.18
-2.65
-1.25
-0.04
0.95
1.75
2.48
3.28
4.24
5.36
6.49
7.46
8.12
8.45
8.56
8.67
8.94
9.49
10.28
11.16
11.95
12.54
12.90
13.08
13.14
13.16
13.18
13.29
13.52
13.94
14.53
15.19
15.74
15.98
15.71
14.86
13.46
11.65
9.66
7.69
5.89
4.30
2.86
1.41
-0.20
-2.03
-3.98
-5.81
-7.18
-7.81
-7.60
-6.70
-5.42
-4.13
-3.09
-2.39
-1.97
-1.72
-1.58
-1.54
-1.71
-2.14
-2.87
-3.76
-4.68
-5.46
-6.07
-6.55
-7.01
-7.58
-8.26
-8.99
-9.62
-9.99
-9.91
-9.27
-8.05
-6.33
-4.37
-2.50
-1.04
-0.21
0.01
-0.21
-0.56
-0.72
-0.46
0.39
1.98
4.37
7.58
11.45
15.68
19.82
23.49
26.41
28.50
29.85
30.57
30.79
30.54
29.86
28.80
27.42
25.81
23.93
21.69
18.86
15.29
10.96
6.12
1.24
-3.15
-6.64
-9.12
-10.78
-12.03
-13.31
-14.86
-16.70
-18.62
-20.36
-21.68
-22.46
-22.71
-22.54
-22.07
-21.44
-20.76
-20.12
-19.55
-19.01
-18.41
-17.67
-16.77
-15.76
-14.75
-13.88
-13.21
-12.74
-12.41
-12.12
-11.82
-11.48
-11.14
-10.81
-10.53
-10.25
-9.97
-9.70
-9.50
-9.46
-9.65
-10.12
-10.82
-11.66
-12.49
-13.19
-13.68
-13.88
-13.72
-13.08
-11.90
-10.13
-7.87
-5.35
-2.83
-0.59
1.21
2.53
3.46
4.18
4.91
5.82
7.02
8.49
10.14
11.78
13.19
14.20
14.71
14.76
14.48
14.05
13.62
13.28
12.98
12.63
12.06
11.16
9.87
8.28
6.55
4.91
3.50
2.36
1.43
0.55
-0.39
-1.43
-2.55
-3.67
-4.73
-5.76
-6.78
-7.83
-8.87
-9.85
-10.73
-11.55
-12.42
-13.38
-14.35
-15.09
-15.29
-14.70
-13.30
-11.27
-8.98
-6.76
-4.82
-3.17
-1.71
-0.34
0.97
2.15
3.09
3.76
4.19
4.48
4.73
4.99
5.27
5.54
5.80
6.10
6.47
6.89
7.26
7.40
7.15
6.46
5.43
4.26
3.18
2.34
1.71
1.17
0.51
-0.41
-1.65
-3.20
-4.93
-6.75
-8.55
-10.23
-11.68
-12.84
-13.70
-14.36
-14.98
-15.71
-16.60
-17.51
-18.12
-18.05
-17.02
-14.93
-11.94
-8.40
-4.71
-1.25
1.78
4.30
6.38
8.09
9.49
10.58
11.33
11.71
11.69
11.32
10.67
9.84
8.89
7.87
6.81
5.77
4.79
3.97
3.31
2.81
2.39
1.93
1.33
0.56
-0.36
-1.34
-2.22
-2.89
-3.26
-3.34
-3.25
-3.17
-3.29
-3.69
-4.34
-5.00
-5.39
-5.28
-4.60
-3.52
-2.38
-1.53
-1.14
-1.14
-1.29
-1.24
-0.73
0.32
1.87
3.81
6.05
8.53
11.16
13.81
16.30
18.42
20.05
21.14
21.72
21.89
21.71
21.26
20.62
19.88
19.15
18.44
17.70
16.83
15.72
14.40
12.96
11.57
10.34
9.27
8.29
7.25
6.02
4.55
2.86
1.07
-0.73
-2.45
-4.07
-5.60
-7.09
-8.57
-10.06
-11.55
-13.03
-14.47
-15.89
-17.30
-18.70
-20.03
-21.15
-21.88
-22.03
-21.49
-20.24
-18.39
-16.14
-13.74
-11.46
-9.45
-7.78
-6.46
-5.37
-4.43
-3.53
-2.64
-1.80
-1.09
-0.58
-0.30
-0.22
-0.24
-0.23
-0.09
0.22
0.71
1.31
1.95
2.56
3.07
3.45
3.67
3.76
3.73
3.57
3.32
3.00
2.68
2.38
2.07
1.67
1.07
0.22
-0.86
-2.03
-3.14
-4.09
-4.95
-5.88
-7.03
-8.46
-10.02
-11.41
-12.33
-12.56
-12.03
-10.86
-9.23
-7.35
-5.40
-3.50
-1.73
-0.14
1.27
2.52
3.63
4.58
5.32
5.79
5.95
5.87
5.66
5.52
5.56
5.82
6.23
6.69
7.09
7.37
7.52
7.57
7.55
7.48
7.40
7.36
7.38
7.49
7.67
7.87
8.00
7.99
7.78
7.34
6.72
5.99
5.27
4.64
4.18
3.84
3.55
3.20
2.70
2.04
1.24
0.37
-0.48
-1.19
-1.63
-1.66
-1.18
-0.19
1.24
2.91
4.57
5.96
6.91
7.30
7.16
6.63
5.90
5.26
4.92
5.01
5.50
6.23
6.99
7.60
7.91
7.89
7.55
6.96
6.23
5.48
4.82
4.32
3.94
3.56
3.05
2.29
1.27
0.03
-1.29
-2.55
-3.66
-4.55
-5.24
-5.78
-6.26
-6.76
-7.35
-8.05
-8.79
-9.48
-10.01
-10.32
-10.42
-10.40
-10.38
-10.46
-10.69
-11.05
-11.50
-11.99
-12.51
-13.06
-13.62
-14.11
-14.37
-14.18
-13.39
-12.01
-10.14
-8.01
-5.86
-3.84
-1.98
-0.25
1.40
3.00
4.53
6.00
7.39
8.72
10.02
11.28
12.49
13.65
14.78
15.90
17.06
18.24
19.44
20.60
21.66
22.59
23.34
23.89
24.21
24.30
24.22
23.98
23.62
23.07
22.21
20.89
19.01
16.56
13.66
10.45
7.10
3.71
0.37
-2.87
-5.97
-8.92
-11.74
-14.45
-17.03
-19.40
-21.37
-22.73
-23.27
-22.89
-21.59
-19.52
-16.90
-14.02
-11.16
-8.55
-6.38
-4.72
-3.53
-2.66
-1.92
-1.13
-0.22
0.77
1.68
2.33
2.61
2.47
1.99
1.39
0.85
0.55
0.52
0.69
0.94
1.18
1.37
1.54
1.74
2.00
2.29
2.52
2.62
2.63
2.73
3.22
4.36
6.28
8.86
11.76
14.53
16.70
17.96
18.17
17.34
15.56
12.98
9.85
6.48
3.31
0.73
-1.02
-1.94
-2.27
-2.43
-2.74
-3.38
-4.27
-5.13
-5.68
-5.69
-5.17
-4.26
-3.24
-2.36
-1.79
-1.53
-1.52
-1.66
-1.88
-2.21
-2.70
-3.37
-4.17
-5.00
-5.74
-6.36
-6.86
-7.29
-7.65
-7.88
-7.87
-7.58
-7.08
-6.53
-6.15
-6.12
-6.49
-7.22
-8.18
-9.27
-10.36
-11.44
-12.49
-13.54
-14.62
-15.75
-16.90
-18.04
-19.03
-19.70
-19.86
-19.40
-18.27
-16.53
-14.33
-11.82
-9.21
-6.70
-4.46
-2.63
-1.28
-0.38
0.18
0.56
0.94
1.39
1.93
2.49
2.99
3.36
3.58
3.68
3.67
3.60
3.45
3.26
3.03
2.82
2.69
2.66
2.69
2.69
2.55
2.18
1.56
0.77
-0.09
-0.90
-1.62
-2.24
-2.84
-3.47
-4.16
-4.91
-5.73
-6.62
-7.50
-8.29
-8.77
-8.70
-7.90
-6.30
-4.01
-1.31
1.45
3.93
5.95
7.45
8.51
9.26
9.84
10.33
10.75
11.06
11.18
11.04
10.61
9.95
9.22
8.66
8.51
8.89
9.76
10.91
12.07
12.96
13.48
13.62
13.50
13.24
13.03
13.02
13.36
14.15
15.30
16.59
17.65
18.13
17.80
16.66
14.86
12.67
10.31
7.94
5.65
3.50
1.57
-0.06
-1.28
-2.10
-2.57
-2.82
-2.97
-3.11
-3.24
-3.29
-3.19
-2.89
-2.40
-1.79
-1.17
-0.64
-0.29
-0.15
-0.19
-0.36
-0.49
-0.46
-0.16
0.36
0.98
1.51
1.82
1.93
1.94
2.00
2.20
2.47
2.68
2.69
2.45
2.01
1.46
0.90
0.32
-0.33
-1.17
-2.25
-3.61
-5.23
-7.08
-9.12
-11.28
-13.44
-15.40
-16.94
-17.84
-18.00
-17.44
-16.30
-14.79
-13.09
-11.36
-9.68
-8.12
-6.72
-5.54
-4.58
-3.79
-3.07
-2.32
-1.50
-0.62
0.26
1.06
1.79
2.47
3.17
3.95
4.81
5.69
6.51
7.21
7.72
8.01
8.09
7.98
7.72
7.39
7.07
6.79
6.56
6.30
5.91
5.29
4.40
3.25
1.90
0.38
-1.26
-3.02
-4.89
-6.82
-8.68
-10.33
-11.59
-12.35
-12.59
-12.38
-11.81
-10.99
-9.97
-8.81
-7.55
-6.25
-5.00
-3.86
-2.85
-1.92
-1.04
-0.22
0.51
1.11
1.58
2.05
2.63
3.45
4.49
5.64
6.73
7.58
8.12
8.38
8.45
8.44
8.45
8.52
8.62
8.69
8.62
8.32
7.78
7.02
6.14
5.24
4.37
3.51
2.64
1.66
0.52
-0.78
-2.24
-3.77
-5.26
-6.55
-7.45
-7.81
-7.54
-6.67
-5.34
-3.77
-2.15
-0.64
0.68
1.80
2.69
3.37
3.81
4.03
4.09
4.13
4.28
4.63
5.19
5.84
6.39
6.67
6.58
6.14
5.45
4.62
3.73
2.85
2.01
1.26
0.71
0.39
0.28
0.21
-0.02
-0.57
-1.39
-2.32
-3.08
-3.48
-3.54
-3.49
-3.65
-4.32
-5.58
-7.30
-9.12
-10.65
-11.54
-11.62
-10.90
-9.48
-7.56
-5.35
-3.08
-0.97
0.78
2.02
2.70
2.85
2.58
2.03
1.37
0.77
0.43
0.45
0.85
1.46
2.04
2.33
2.21
1.76
1.23
0.87
0.82
1.06
1.45
1.84
2.16
2.40
2.54
2.55
2.35
1.90
1.24
0.48
-0.20
-0.68
-0.95
-1.12
-1.35
-1.85
-2.75
-4.07
-5.68
-7.37
-8.86
-9.89
-10.26
-9.92
-8.88
-7.31
-5.39
-3.40
-1.55
-0.03
1.12
1.91
2.45
2.84
3.12
3.28
3.28
3.10
2.83
2.58
2.46
2.50
2.62
2.68
2.53
2.14
1.59
1.02
0.59
0.39
0.42
0.57
0.72
0.78
0.73
0.62
0.51
0.41
0.29
0.13
-0.07
-0.26
-0.36
-0.30
-0.13
-0.01
-0.17
-0.80
-1.98
-3.61
-5.43
-7.17
-8.60
-9.59
-10.09
-10.10
-9.62
-8.65
-7.24
-5.51
-3.64
-1.80
-0.12
1.36
2.65
3.78
4.75
5.50
6.04
6.40
6.71
7.09
7.62
8.25
8.88
9.35
9.55
9.42
8.97
8.19
7.10
5.65
3.87
1.78
-0.48
-2.78
-4.96
-6.91
-8.63
-10.18
-11.68
-13.19
-14.73
-16.25
-17.63
-18.80
-19.72
-20.34
-20.63
-20.49
-19.76
-18.28
-15.98
-12.98
-9.57
-6.15
-3.12
-0.71
1.06
2.34
3.35
4.33
5.43
6.72
8.23
9.94
11.78
13.57
15.06
16.04
16.38
16.15
15.57
14.90
14.31
13.77
13.15
12.32
11.22
10.01
8.88
7.94
7.20
6.52
5.72
4.75
3.64
2.55
1.58
0.77
0.10
-0.56
-1.26
-2.05
-2.91
-3.82
-4.68
-5.39
-5.78
-5.70
-5.04
-3.81
-2.15
-0.26
1.65
3.40
4.86
5.98
6.75
7.23
7.47
7.52
7.41
7.11
6.67
6.15
5.69
5.43
5.46
5.75
6.19
6.62
6.88
6.92
6.77
6.47
6.11
5.72
5.28
4.74
4.01
3.09
1.97
0.77
-0.43
-1.54
-2.55
-3.50
-4.47
-5.51
-6.59
-7.68
-8.70
-9.64
-10.53
-11.42
-12.29
-13.10
-13.71
-13.97
-13.74
-12.94
-11.58
-9.78
-7.67
-5.43
-3.23
-1.25
0.36
1.52
2.22
2.61
2.87
3.21
3.65
4.04
4.09
3.49
2.15
0.21
-1.95
-3.88
-5.26
-5.96
-6.06
-5.76
-5.23
-4.60
-3.93
-3.28
-2.77
-2.52
-2.68
-3.34
-4.47
-5.98
-7.66
-9.25
-10.46
-10.97
-10.58
-9.24
-7.14
-4.65
-2.26
-0.41
0.59
0.70
0.13
-0.80
-1.70
-2.29
-2.47
-2.23
-1.66
-0.86
0.06
1.03
1.94
2.62
2.93
2.74
2.04
0.96
-0.30
-1.51
-2.52
-3.27
-3.76
-3.99
-3.93
-3.53
-2.78
-1.75
-0.58
0.58
1.65
2.61
3.52
4.41
5.26
5.94
6.31
6.28
5.85
5.15
4.34
3.60
3.03
2.68
2.48
2.29
1.92
1.24
0.17
-1.23
-2.80
-4.27
-5.36
-5.86
-5.62
-4.65
-3.04
-1.00
1.24
3.42
5.36
6.96
8.18
9.08
9.79
10.41
11.05
11.73
12.40
12.99
13.40
13.61
13.68
13.71
13.76
13.83
13.82
13.57
12.93
11.89
10.49
8.89
7.23
5.61
4.10
2.74
1.55
0.53
-0.35
-1.14
-1.94
-2.85
-3.91
-5.17
-6.66
-8.40
-10.43
-12.69
-15.02
-17.16
-18.77
-19.58
-19.46
-18.43
-16.65
-14.33
-11.67
-8.84
-6.01
-3.28
-0.75
1.58
3.78
5.91
8.03
10.11
12.03
13.65
14.87
15.61
15.90
15.79
15.35
14.67
13.81
12.86
11.89
11.04
10.41
10.09
10.06
10.22
10.35
10.22
9.71
8.82
7.73
6.65
5.70
4.86
4.00
2.96
1.69
0.25
-1.28
-2.84
-4.46
-6.26
-8.32
-10.59
-12.84
-14.76
-16.03
-16.46
-16.00
-14.74
-12.82
-10.47
-7.94
-5.48
-3.37
-1.78
-0.77
-0.25
-0.08
-0.13
-0.32
-0.65
-1.13
-1.76
-2.50
-3.31
-4.21
-5.20
-6.27
-7.36
-8.31
-8.99
-9.36
-9.55
-9.76
-10.16
-10.78
-11.44
-11.92
-12.05
-11.85
-11.50
-11.25
-11.23
-11.39
-11.56
-11.54
-11.20
-10.53
-9.66
-8.72
-7.77
-6.83
-5.83
-4.70
-3.39
-1.93
-0.40
1.11
2.52
3.86
5.24
6.84
8.77
10.99
13.29
15.40
17.07
18.24
19.04
19.70
20.40
21.18
21.90
22.38
22.46
22.16
21.61
20.96
20.30
19.60
18.74
17.62
16.22
14.70
13.30
12.22
11.49
10.94
10.28
9.27
7.82
6.07
4.29
2.76
1.58
0.63
-0.32
-1.54
-3.18
-5.23
-7.52
-9.84
-11.95
-13.75
-15.26
-16.64
-18.13
-19.94
-22.15
-24.60
-27.01
-28.97
-30.16
-30.37
-29.55
-27.78
-25.14
-21.78
-17.88
-13.70
-9.61
-5.94
-2.97
-0.76
0.81
1.98
2.97
3.89
4.72
5.35
5.71
5.80
5.75
5.75
6.01
6.63
7.62
8.79
9.86
10.55
10.62
10.04
8.89
7.37
5.73
4.17
2.79
1.57
0.46
-0.68
-1.90
-3.25
-4.68
-6.09
-7.36
-8.37
-9.06
-9.41
-9.49
-9.40
-9.32
-9.37
-9.66
-10.20
-10.92
-11.67
-12.27
-12.54
-12.33
-11.53
-10.15
-8.31
-6.28
-4.32
-2.66
-1.39
-0.49
0.11
0.44
0.50
0.29
-0.11
-0.55
-0.82
-0.80
-0.49
-0.06
0.30
0.44
0.38
0.24
0.20
0.37
0.83
1.56
2.52
3.68
5.04
6.57
8.25
10.02
11.76
13.31
14.50
15.18
15.28
14.83
13.96
12.86
11.70
10.60
9.57
8.55
7.45
6.19
4.76
3.20
1.58
-0.05
-1.62
-3.02
-4.13
-4.75
-4.69
-3.89
-2.42
-0.51
1.56
3.53
5.22
6.52
7.45
7.99
8.17
8.00
7.49
6.64
5.45
3.94
2.16
0.25
-1.61
-3.19
-4.38
-5.13
-5.58
-5.89
-6.20
-6.58
-6.95
-7.21
-7.25
-7.06
-6.68
-6.23
-5.83
-5.55
-5.42
-5.43
-5.57
-5.78
-6.00
-6.17
-6.26
-6.32
-6.44
-6.76
-7.38
-8.35
-9.60
-11.04
-12.53
-13.92
-15.10
-15.93
-16.26
-15.89
-14.66
-12.50
-9.50
-5.92
-2.12
1.50
4.66
7.22
9.23
10.77
12.01
13.08
14.08
15.10
16.18
17.36
18.60
19.81
20.81
21.44
21.60
21.28
20.56
19.56
18.38
17.06
15.60
14.02
12.38
10.79
9.40
8.33
7.59
7.13
6.78
6.38
5.78
4.91
3.82
2.56
1.25
-0.04
-1.29
-2.47
-3.57
-4.57
-5.47
-6.34
-7.28
-8.46
-9.91
-11.53
-13.05
-14.09
-14.40
-13.90
-12.76
-11.27
-9.70
-8.18
-6.74
-5.34
-4.01
-2.86
-2.08
-1.80
-2.05
-2.72
-3.65
-4.66
-5.67
-6.68
-7.72
-8.81
-9.97
-11.20
-12.55
-14.03
-15.62
-17.20
-18.50
-19.25
-19.31
-18.80
-18.09
-17.67
-17.96
-19.08
-20.84
-22.87
-24.75
-26.27
-27.51
-28.74
-30.24
-32.16
-34.39
-36.66
-38.64
-40.20
-41.46
-42.77
-44.54
-47.02
-50.13
-53.49
-56.52
-58.62
-59.40
-58.70
-56.63
-53.52
-49.82
-46.05
-42.65
-39.78
-37.26
-34.61
-31.16
-26.33
-19.73
-11.23
-0.80
11.58
25.96
42.35
60.57
80.08
100.05
119.44
137.20
152.39
164.39
172.86
177.76
179.33
178.00
174.30
168.72
161.64
153.21
143.45
132.39
120.28
107.77
95.86
85.53
77.24
70.32
62.91
52.49
36.98
15.94
-8.87
-33.93
-55.29
-70.13
-77.79
-79.74
-78.49
-76.34
-74.41
-72.59
-70.18
-66.81
-62.81
-59.05
-56.34
-54.85
-54.02
-52.93
-50.85
-47.70
-44.07
-40.85
-38.75
-37.95
-38.02
-38.18
-37.66
-36.04
-33.37
-30.07
-26.68
-23.73
-21.47
-19.91
-18.81
-17.84
-16.70
-15.23
-13.48
-11.63
-9.90
-8.47
-7.41
-6.68
-6.17
-5.81
-5.54
-5.40
-5.45
-5.75
-6.32
-7.18
-8.34
-9.75
-11.38
-13.11
-14.81
-16.28
-17.36
-17.90
-17.86
-17.25
-16.11
-14.53
-12.56
-10.32
-7.91
-5.51
-3.27
-1.28
0.42
1.87
3.12
4.22
5.15
5.93
6.58
7.17
7.76
8.37
9.02
9.67
10.32
10.98
11.62
12.24
12.76
13.14
13.33
13.33
13.14
12.82
12.38
11.83
11.15
10.33
9.35
8.17
6.77
5.15
3.39
1.59
-0.15
-1.77
-3.35
-5.01
-6.92
-9.12
-11.54
-13.99
-16.18
-17.84
-18.71
-18.65
-17.59
-15.62
-12.93
-9.79
-6.55
-3.53
-0.98
0.96
2.28
3.07
3.48
3.67
3.74
3.78
3.81
3.84
3.87
3.92
3.96
3.98
3.94
3.87
3.80
3.81
3.97
4.26
4.58
4.76
4.66
4.22
3.50
2.66
1.86
1.19
0.63
0.07
-0.63
-1.52
-2.58
-3.71
-4.78
-5.73
-6.62
-7.59
-8.84
-10.47
-12.46
-14.66
-16.79
-18.50
-19.49
-19.54
-18.57
-16.65
-14.00
-10.91
-7.72
-4.71
-2.04
0.26
2.24
3.98
5.52
6.87
8.02
8.93
9.64
10.21
10.72
11.20
11.67
12.12
12.53
12.86
13.09
13.18
13.14
12.97
12.69
12.31
11.86
11.37
10.86
10.39
9.98
9.65
9.36
9.01
8.45
7.61
6.43
5.02
3.52
2.10
0.90
-0.12
-1.05
-2.08
-3.40
-5.13
-7.28
-9.74
-12.34
-14.82
-16.93
-18.38
-19.01
-18.70
-17.50
-15.57
-13.10
-10.36
-7.54
-4.81
-2.30
-0.10
1.76
3.32
4.65
5.88
7.10
8.38
9.67
10.92
12.06
13.07
14.02
14.95
15.87
16.72
17.38
17.69
17.56
17.00
16.12
15.07
14.00
12.97
11.92
10.75
9.36
7.77
6.10
4.52
3.15
2.01
1.01
-0.03
-1.24
-2.68
-4.29
-6.04
-7.90
-9.86
-11.88
-13.77
-15.21
-15.80
-15.18
-13.24
-10.14
-6.25
-2.08
1.93
5.48
8.44
10.84
12.70
14.08
15.01
15.56
15.87
16.12
16.47
16.99
17.60
18.16
18.52
18.63
18.53
18.29
17.98
17.62
17.14
16.50
15.68
14.71
13.64
12.47
11.22
9.90
8.59
7.34
6.24
5.25
4.28
3.20
1.93
0.50
-1.00
-2.46
-3.84
-5.14
-6.43
-7.75
-9.11
-10.48
-11.83
-13.21
-14.72
-16.42
-18.26
-20.00
-21.25
-21.59
-20.71
-18.59
-15.46
-11.77
-8.01
-4.56
-1.63
0.80
2.82
4.54
6.02
7.25
8.23
8.96
9.49
9.90
10.22
10.50
10.76
10.99
11.19
11.31
11.31
11.14
10.82
10.42
10.03
9.75
9.59
9.46
9.22
8.76
8.03
7.11
6.13
5.22
4.45
3.87
3.48
3.25
3.14
3.10
3.04
2.87
2.53
2.03
1.43
0.83
0.29
-0.21
-0.81
-1.70
-3.03
-4.81
-6.91
-9.09
-11.04
-12.48
-13.24
-13.19
-12.31
-10.69
-8.53
-6.09
-3.66
-1.50
0.23
1.45
2.13
2.30
2.03
1.39
0.52
-0.45
-1.36
-2.11
-2.64
-2.95
-3.05
-2.95
-2.67
-2.19
-1.58
-0.94
-0.40
-0.07
0.01
-0.13
-0.45
-0.88
-1.37
-1.93
-2.54
-3.19
-3.83
-4.42
-4.95
-5.43
-5.89
-6.33
-6.69
-6.89
-6.88
-6.67
-6.35
-6.10
-6.07
-6.34
-6.92
-7.71
-8.59
-9.39
-9.93
-10.05
-9.56
-8.38
-6.49
-4.02
-1.17
1.82
4.73
7.41
9.75
11.66
13.08
13.98
14.38
14.33
13.92
13.20
12.25
11.13
9.98
8.94
8.14
7.63
7.37
7.29
7.35
7.54
7.87
8.32
8.80
9.14
9.16
8.74
7.82
6.40
4.50
2.21
-0.33
-2.77
-4.72
-5.86
-6.08
-5.60
-4.87
-4.35
-4.35
-4.90
-5.82
-6.94
-8.09
-9.19
-10.18
-10.95
-11.33
-11.24
-10.73
-9.97
-9.14
-8.35
-7.57
-6.68
-5.53
-4.05
-2.27
-0.33
1.63
3.47
5.11
6.48
7.58
8.48
9.23
9.91
10.53
11.10
11.59
12.00
12.31
12.52
12.61
12.58
12.41
12.12
11.76
11.38
11.06
10.87
10.80
10.79
10.73
10.48
9.92
9.02
7.85
6.56
5.33
4.30
3.49
2.87
2.28
1.59
0.68
-0.47
-1.78
-3.09
-4.24
-5.17
-5.93
-6.69
-7.64
-8.90
-10.47
-12.25
-14.01
-15.51
-16.49
-16.70
-15.95
-14.18
-11.49
-8.10
-4.38
-0.69
2.64
5.39
7.52
9.10
10.36
11.54
12.85
14.31
15.68
16.58
16.59
15.48
13.24
10.10
6.40
2.43
-1.59
-5.54
-9.24
-12.53
-15.20
-17.15
-18.37
-19.01
-19.26
-19.30
-19.25
-19.14
-18.97
-18.70
-18.34
-17.88
-17.34
-16.74
-16.10
-15.45
-14.80
-14.19
-13.65
-13.27
-13.15
-13.35
-13.83
-14.40
-14.78
-14.64
-13.76
-12.08
-9.71
-6.88
-3.82
-0.73
2.20
4.84
7.04
8.72
9.86
10.52
10.86
11.03
11.17
11.36
11.61
11.88
12.09
12.15
11.98
11.53
10.77
9.74
8.50
7.14
5.72
4.23
2.64
0.87
-1.12
-3.35
-5.80
-8.36
-10.94
-13.46
-15.83
-17.97
-19.82
-21.36
-22.62
-23.68
-24.57
-25.25
-25.60
-25.41
-24.61
-23.32
-21.93
-20.93
-20.69
-21.22
-22.19
-23.02
-23.16
-22.29
-20.46
-17.94
-15.06
-12.03
-8.91
-5.68
-2.36
0.96
4.06
6.78
9.07
11.01
12.80
14.64
16.62
18.71
20.77
22.62
24.15
25.32
26.16
26.77
27.19
27.43
27.38
26.94
26.00
24.53
22.65
20.53
18.40
16.40
14.60
12.96
11.43
9.94
8.53
7.26
6.18
5.29
4.51
3.72
2.80
1.70
0.39
-1.07
-2.66
-4.38
-6.24
-8.24
-10.33
-12.36
-14.09
-15.28
-15.71
-15.31
-14.18
-12.55
-10.70
-8.84
-7.06
-5.29
-3.44
-1.52
0.36
2.00
3.23
4.07
4.69
5.36
6.30
7.56
9.10
10.80
12.59
14.41
16.23
17.93
19.28
20.04
20.08
19.40
18.15
16.59
14.97
13.50
12.29
11.36
10.66
10.05
9.37
8.41
7.02
5.16
2.88
0.36
-2.25
-4.83
-7.38
-9.95
-12.66
-15.58
-18.73
-21.99
-25.11
-27.81
-29.79
-30.88
-31.07
-30.50
-29.41
-28.00
-26.40
-24.61
-22.60
-20.37
-18.00
-15.64
-13.47
-11.55
-9.86
-8.25
-6.59
-4.80
-2.90
-0.96
0.92
2.74
4.52
6.29
8.04
9.69
11.14
12.28
13.11
13.68
14.09
14.40
14.58
14.62
14.50
14.26
14.01
13.80
13.61
13.33
12.84
12.03
10.87
9.44
7.85
6.19
4.48
2.72
0.81
-1.33
-3.76
-6.44
-9.21
-11.78
-13.78
-14.90
-14.93
-13.87
-11.89
-9.29
-6.42
-3.58
-1.02
1.07
2.57
3.45
3.80
3.79
3.67
3.63
3.85
4.38
5.21
6.26
7.41
8.55
9.55
10.32
10.84
11.12
11.22
11.20
11.10
10.90
10.53
9.94
9.08
7.98
6.73
5.39
4.06
2.75
1.46
0.19
-1.06
-2.25
-3.38
-4.45
-5.52
-6.63
-7.81
-9.03
-10.22
-11.32
-12.32
-13.22
-14.02
-14.66
-15.00
-14.89
-14.22
-12.96
-11.17
-8.96
-6.48
-3.88
-1.34
0.98
2.93
4.41
5.40
5.92
6.06
5.91
5.54
5.02
4.43
3.88
3.46
3.26
3.31
3.57
3.93
4.26
4.42
4.37
4.12
3.82
3.60
3.54
3.63
3.73
3.73
3.57
3.30
3.03
2.85
2.76
2.67
2.43
1.91
1.04
-0.14
-1.59
-3.23
-5.00
-6.77
-8.40
-9.66
-10.30
-10.13
-9.08
-7.24
-4.89
-2.36
-0.02
1.91
3.31
4.23
4.80
5.16
5.43
5.60
5.62
5.43
4.98
4.32
3.52
2.70
2.00
1.49
1.21
1.14
1.25
1.50
1.83
2.17
2.42
2.51
2.36
1.98
1.42
0.75
0.00
-0.86
-1.92
-3.28
-4.94
-6.85
-8.86
-10.84
-12.69
-14.37
-15.84
-17.11
-18.19
-19.13
-19.98
-20.74
-21.33
-21.55
-21.15
-19.92
-17.76
-14.74
-11.06
-6.98
-2.77
1.36
5.19
8.59
11.43
13.70
15.43
16.72
17.70
18.46
19.06
19.52
19.82
19.90
19.71
19.20
18.34
17.17
15.76
14.23
12.68
11.19
9.81
8.57
7.42
6.33
5.24
4.08
2.82
1.46
0.04
-1.33
-2.58
-3.65
-4.49
-5.06
-5.36
-5.46
-5.47
-5.54
-5.83
-6.45
-7.44
-8.75
-10.27
-11.85
-13.30
-14.41
-15.00
-14.93
-14.20
-12.91
-11.29
-9.62
-8.12
-6.91
-6.00
-5.29
-4.65
-3.95
-3.15
-2.29
-1.44
-0.67
-0.01
0.58
1.21
1.93
2.73
3.56
4.31
4.92
5.40
5.77
6.08
6.31
6.40
6.28
5.90
5.28
4.53
3.76
3.09
2.56
2.12
1.71
1.24
0.71
0.15
-0.42
-0.99
-1.65
-2.54
-3.77
-5.41
-7.35
-9.39
-11.21
-12.47
-12.90
-12.37
-10.91
-8.76
-6.24
-3.73
-1.56
0.09
1.17
1.80
2.16
2.44
2.78
3.25
3.84
4.52
5.24
5.98
6.67
7.25
7.67
7.90
7.99
8.02
8.09
8.24
8.46
8.66
8.73
8.56
8.07
7.24
6.11
4.80
3.45
2.21
1.18
0.36
-0.35
-1.10
-1.99
-3.10
-4.42
-5.87
-7.39
-8.89
-10.29
-11.57
-12.72
-13.76
-14.74
-15.66
-16.47
-17.00
-17.04
-16.36
-14.86
-12.56
-9.68
-6.51
-3.36
-0.46
2.10
4.29
6.16
7.72
9.01
10.08
10.95
11.73
12.47
13.24
14.03
14.80
15.48
15.99
16.29
16.39
16.35
16.29
16.29
16.38
16.45
16.36
15.94
15.15
14.09
12.94
11.90
11.03
10.27
9.45
8.43
7.12
5.55
3.85
2.16
0.58
-0.86
-2.24
-3.64
-5.12
-6.66
-8.18
-9.53
-10.62
-11.45
-12.07
-12.58
-13.02
-13.31
-13.31
-12.85
-11.83
-10.31
-8.41
-6.34
-4.26
-2.25
-0.34
1.48
3.20
4.78
6.15
7.24
8.02
8.47
8.64
8.61
8.51
8.45
8.49
8.63
8.78
8.83
8.69
8.36
7.87
7.32
6.73
6.09
5.34
4.43
3.38
2.25
1.14
0.18
-0.61
-1.22
-1.73
-2.19
-2.67
-3.19
-3.72
-4.28
-4.86
-5.54
-6.36
-7.34
-8.46
-9.60
-10.68
-11.62
-12.40
-13.01
-13.42
-13.51
-13.15
-12.25
-10.82
-9.03
-7.13
-5.36
-3.91
-2.86
-2.24
-1.98
-2.00
-2.16
-2.30
-2.29
-2.07
-1.66
-1.15
-0.61
-0.03
0.65
1.53
2.59
3.73
4.78
5.62
6.21
6.61
6.92
7.18
7.41
7.54
7.57
7.51
7.39
7.22
6.97
6.61
6.09
5.37
4.40
3.14
1.53
-0.46
-2.76
-5.23
-7.73
-10.17
-12.50
-14.72
-16.81
-18.68
-20.19
-21.20
-21.62
-21.35
-20.29
-18.34
-15.42
-11.62
-7.19
-2.55
1.91
5.94
9.48
12.63
15.52
18.18
20.50
22.31
23.45
23.94
23.90
23.55
23.07
22.52
21.84
20.91
19.61
17.93
15.95
13.84
11.75
9.78
7.97
6.31
4.80
3.47
2.38
1.55
0.96
0.52
0.12
-0.34
-0.92
-1.62
-2.44
-3.33
-4.25
-5.16
-5.98
-6.66
-7.17
-7.56
-7.93
-8.44
-9.19
-10.25
-11.57
-13.02
-14.40
-15.53
-16.21
-16.31
-15.73
-14.48
-12.62
-10.35
-7.89
-5.49
-3.29
-1.35
0.38
1.95
3.37
4.66
5.79
6.78
7.68
8.56
9.43
10.27
10.98
11.51
11.83
12.00
12.13
12.26
12.39
12.41
12.20
11.71
10.95
10.03
9.04
8.03
6.92
5.62
4.02
2.14
0.08
-1.99
-3.91
-5.61
-7.09
-8.39
-9.53
-10.50
-11.29
-11.94
-12.57
-13.34
-14.38
-15.66
-17.00
-18.07
-18.54
-18.16
-16.89
-14.89
-12.38
-9.60
-6.70
-3.78
-0.95
1.62
3.75
5.30
6.24
6.69
6.85
6.87
6.83
6.73
6.55
6.28
5.92
5.51
5.03
4.47
3.80
3.02
2.19
1.35
0.51
-0.35
-1.29
-2.39
-3.65
-4.99
-6.29
-7.44
-8.35
-9.04
-9.55
-9.95
-10.31
-10.64
-10.92
-11.16
-11.37
-11.60
-11.88
-12.21
-12.56
-12.87
-13.12
-13.31
-13.43
-13.47
-13.36
-13.00
-12.33
-11.33
-10.04
-8.53
-6.87
-5.15
-3.44
-1.81
-0.32
1.01
2.21
3.33
4.46
5.62
6.81
7.93
8.90
9.63
10.12
10.36
10.44
10.42
10.34
10.17
9.88
9.43
8.84
8.20
7.62
7.14
6.72
6.23
5.55
4.64
3.59
2.58
1.79
1.30
1.08
0.99
0.89
0.70
0.40
0.04
-0.36
-0.78
-1.22
-1.73
-2.27
-2.78
-3.08
-2.97
-2.30
-1.04
0.66
2.50
4.14
5.34
6.03
6.32
6.34
6.19
5.86
5.28
4.40
3.30
2.16
1.19
0.56
0.29
0.28
0.44
0.65
0.92
1.23
1.60
1.94
2.11
2.00
1.51
0.70
-0.29
-1.29
-2.16
-2.92
-3.66
-4.55
-5.69
-7.08
-8.57
-9.91
-10.89
-11.40
-11.50
-11.36
-11.21
-11.21
-11.50
-12.09
-12.95
-14.01
-15.12
-16.06
-16.62
-16.60
-15.90
-14.52
-12.61
-10.37
-8.01
-5.73
-3.63
-1.75
-0.12
1.30
2.50
3.47
4.16
4.60
4.84
5.04
5.39
6.04
7.04
8.28
9.57
10.73
11.65
12.33
12.86
13.33
13.74
13.99
13.91
13.38
12.42
11.15
9.80
8.55
7.47
6.50
5.48
4.29
2.91
1.48
0.18
-0.87
-1.72
-2.58
-3.71
-5.28
-7.29
-9.52
-11.64
-13.35
-14.41
-14.73
-14.32
-13.26
-11.68
-9.75
-7.68
-5.65
-3.81
-2.18
-0.72
0.68
2.06
3.41
4.58
5.45
5.92
6.05
5.98
5.95
6.10
6.51
7.12
7.86
8.66
9.49
10.33
11.20
12.07
12.87
13.51
13.84
13.73
13.07
11.86
10.23
8.36
6.45
4.61
2.86
1.15
-0.57
-2.31
-3.98
-5.52
-6.91
-8.25
-9.70
-11.41
-13.44
-15.68
-17.85
-19.63
-20.70
-20.86
-20.12
-18.65
-16.73
-14.65
-12.60
-10.58
-8.54
-6.40
-4.22
-2.16
-0.41
0.91
1.85
2.57
3.28
4.10
5.00
5.88
6.63
7.27
7.88
8.58
9.45
10.44
11.46
12.39
13.18
13.83
14.37
14.82
15.17
15.34
15.29
14.96
14.36
13.52
12.50
11.38
10.17
8.88
7.51
6.01
4.34
2.43
0.23
-2.29
-5.07
-7.92
-10.59
-12.79
-14.26
-14.84
-14.46
-13.22
-11.24
-8.77
-6.07
-3.40
-1.00
0.99
2.52
3.61
4.35
4.84
5.20
5.53
5.90
6.37
6.92
7.50
8.02
8.42
8.67
8.80
8.83
8.80
8.73
8.65
8.58
8.55
8.54
8.55
8.50
8.33
7.99
7.49
6.82
6.02
5.12
4.12
3.02
1.80
0.47
-0.95
-2.37
-3.71
-4.91
-5.92
-6.78
-7.58
-8.42
-9.37
-10.47
-11.66
-12.80
-13.70
-14.14
-13.96
-13.08
-11.55
-9.54
-7.30
-5.09
-3.09
-1.40
-0.04
1.03
1.85
2.49
3.02
3.47
3.88
4.24
4.52
4.71
4.83
4.95
5.12
5.39
5.74
6.12
6.45
6.63
6.59
6.35
5.92
5.38
4.79
4.16
3.47
2.69
1.80
0.77
-0.37
-1.63
-2.99
-4.45
-5.99
-7.59
-9.15
-10.62
-12.00
-13.37
-14.88
-16.64
-18.59
-20.46
-21.85
-22.31
-21.58
-19.68
-16.89
-13.63
-10.24
-6.93
-3.73
-0.61
2.43
5.27
7.79
9.83
11.38
12.48
13.30
14.00
14.67
15.37
16.07
16.75
17.34
17.78
17.99
17.88
17.39
16.52
15.34
13.92
12.37
10.75
9.10
7.44
5.84
4.38
3.13
2.09
1.18
0.24
-0.90
-2.39
-4.24
-6.40
-8.70
-10.94
-12.95
-14.60
-15.86
-16.84
-17.75
-18.79
-20.02
-21.27
-22.20
-22.44
-21.75
-20.10
-17.70
-14.89
-11.97
-9.11
-6.39
-3.80
-1.35
0.91
2.96
4.85
6.73
8.77
11.10
13.73
16.50
19.12
21.30
22.82
23.65
23.91
23.81
23.51
23.08
22.53
21.83
20.96
19.98
18.91
17.73
16.29
14.41
11.94
8.91
5.50
2.02
-1.18
-3.91
-6.10
-7.82
-9.17
-10.20
-10.95
-11.39
-11.57
-11.57
-11.51
-11.47
-11.42
-11.25
-10.79
-9.91
-8.59
-6.95
-5.18
-3.46
-1.90
-0.51
0.74
1.94
3.10
4.22
5.20
5.93
6.25
6.09
5.45
4.49
3.45
2.61
2.09
1.87
1.76
1.54
1.05
0.31
-0.54
-1.34
-2.00
-2.56
-3.15
-3.89
-4.77
-5.73
-6.64
-7.44
-8.17
-8.96
-9.88
-10.93
-11.98
-12.84
-13.43
-13.78
-14.08
-14.57
-15.41
-16.60
-17.92
-19.04
-19.65
-19.50
-18.53
-16.80
-14.46
-11.72
-8.81
-5.95
-3.36
-1.16
0.57
1.90
2.94
3.85
4.74
5.61
6.42
7.10
7.63
8.03
8.38
8.74
9.11
9.47
9.76
9.95
10.08
10.23
10.49
10.91
11.47
12.10
12.73
13.28
13.75
14.18
14.59
14.96
15.18
15.12
14.64
13.69
12.32
10.72
9.14
7.82
6.87
6.23
5.73
5.09
4.09
2.65
0.83
-1.15
-3.01
-4.48
-5.34
-5.48
-4.90
-3.70
-2.09
-0.35
1.25
2.48
3.18
3.31
2.93
2.15
1.17
0.13
-0.82
-1.68
-2.56
-3.65
-5.11
-7.01
-9.23
-11.48
-13.45
-14.91
-15.75
-16.04
-15.92
-15.54
-14.98
-14.26
-13.42
-12.55
-11.74
-11.09
-10.66
-10.48
-10.53
-10.75
-11.06
-11.35
-11.49
-11.43
-11.16
-10.79
-10.42
-10.11
-9.83
-9.44
-8.81
-7.81
-6.41
-4.69
-2.71
-0.57
1.64
3.84
5.99
8.03
9.97
11.85
13.74
15.68
17.63
19.46
21.00
22.09
22.65
22.68
22.25
21.47
20.44
19.24
17.92
16.57
15.24
13.96
12.75
11.55
10.27
8.89
7.44
6.03
4.75
3.71
2.87
2.18
1.54
0.92
0.34
-0.18
-0.64
-1.08
-1.60
-2.27
-3.12
-4.13
-5.26
-6.51
-7.88
-9.38
-10.99
-12.60
-14.07
-15.21
-15.84
-15.85
-15.16
-13.73
-11.61
-8.96
-6.01
-3.07
-0.43
1.70
3.25
4.23
4.78
5.07
5.29
5.61
6.16
6.98
7.98
9.00
9.80
10.18
10.02
9.33
8.24
6.90
5.50
4.19
3.00
1.94
0.94
-0.04
-1.01
-1.89
-2.62
-3.11
-3.36
-3.41
-3.37
-3.31
-3.32
-3.43
-3.64
-3.97
-4.38
-4.84
-5.28
-5.66
-5.96
-6.27
-6.68
-7.28
-8.10
-9.07
-10.03
-10.81
-11.26
-11.28
-10.90
-10.15
-9.12
-7.86
-6.48
-5.08
-3.81
-2.82
-2.20
-1.98
-2.07
-2.37
-2.74
-3.10
-3.41
-3.63
-3.74
-3.69
-3.47
-3.05
-2.51
-1.91
-1.34
-0.80
-0.29
0.26
0.87
1.53
2.16
2.70
3.08
3.28
3.27
3.07
2.66
2.08
1.34
0.48
-0.53
-1.71
-3.12
-4.79
-6.69
-8.81
-11.09
-13.45
-15.79
-17.90
-19.46
-20.16
-19.77
-18.30
-16.05
-13.44
-10.87
-8.56
-6.47
-4.43
-2.32
-0.17
1.87
3.56
4.80
5.65
6.30
6.98
7.82
8.80
9.77
10.51
10.89
10.85
10.48
9.93
9.35
8.84
8.41
7.95
7.29
6.30
4.95
3.39
1.87
0.65
-0.15
-0.57
-0.81
-1.12
-1.67
-2.42
-3.21
-3.81
-4.09
-4.08
-3.95
-3.91
-4.14
-4.70
-5.51
-6.45
-7.35
-8.07
-8.47
-8.39
-7.67
-6.21
-3.97
-1.07
2.23
5.53
8.48
10.81
12.45
13.55
14.35
15.13
16.03
17.07
18.18
19.23
20.13
20.81
21.14
20.96
20.09
18.50
16.30
13.87
11.66
10.11
9.46
9.63
10.30
11.05
11.46
11.29
10.48
9.19
7.66
6.16
4.84
3.72
2.70
1.68
0.58
-0.58
-1.70
-2.72
-3.59
-4.37
-5.13
-5.92
-6.74
-7.53
-8.19
-8.64
-8.84
-8.87
-8.80
-8.75
-8.80
-9.01
-9.43
-10.14
-11.22
-12.70
-14.49
-16.29
-17.72
-18.39
-18.05
-16.72
-14.63
-12.11
-9.53
-7.18
-5.25
-3.87
-3.10
-2.88
-3.02
-3.25
-3.29
-2.98
-2.34
-1.54
-0.85
-0.50
-0.62
-1.18
-2.05
-3.03
-3.93
-4.66
-5.21
-5.66
-6.13
-6.67
-7.30
-7.92
-8.42
-8.71
-8.78
-8.73
-8.67
-8.72
-8.91
-9.17
-9.41
-9.50
-9.37
-8.97
-8.38
-7.73
-7.21
-7.00
-7.17
-7.64
-8.15
-8.37
-8.03
-6.93
-5.13
-2.84
-0.37
2.03
4.21
6.17
8.03
9.92
11.90
13.96
16.00
17.93
19.66
21.16
22.43
23.48
24.26
24.72
24.82
24.51
23.76
22.57
20.95
18.96
16.73
14.40
12.10
9.91
7.79
5.72
3.69
1.79
0.12
-1.21
-2.21
-2.99
-3.72
-4.52
-5.45
-6.46
-7.51
-8.56
-9.66
-10.86
-12.15
-13.44
-14.53
-15.18
-15.19
-14.48
-13.00
-10.80
-8.00
-4.78
-1.41
1.76
4.41
6.32
7.47
8.05
8.36
8.65
9.00
9.31
9.39
9.12
8.53
7.80
7.18
6.83
6.73
6.75
6.67
6.38
5.85
5.19
4.51
3.83
3.11
2.22
1.12
-0.11
-1.26
-2.08
-2.44
-2.37
-2.10
-1.92
-2.05
-2.54
-3.24
-3.96
-4.58
-5.11
-5.65
-6.33
-7.18
-8.09
-8.85
-9.29
-9.32
-8.99
-8.45
-7.81
-7.10
-6.29
-5.29
-4.10
-2.81
-1.63
-0.74
-0.26
-0.13
-0.15
-0.07
0.29
0.94
1.75
2.51
3.08
3.40
3.56
3.71
3.95
4.33
4.79
5.19
5.37
5.17
4.49
3.30
1.68
-0.23
-2.21
-4.04
-5.50
-6.48
-7.01
-7.22
-7.35
-7.60
-8.10
-8.86
-9.81
-10.80
-11.68
-12.29
-12.47
-12.09
-11.03
-9.24
-6.80
-3.92
-0.87
2.06
4.62
6.67
8.16
9.11
9.61
9.76
9.67
9.42
9.03
8.50
7.83
7.03
6.20
5.49
5.07
5.04
5.40
6.01
6.61
6.91
6.75
6.11
5.17
4.17
3.31
2.70
2.26
1.85
1.34
0.68
-0.09
-0.87
-1.59
-2.25
-2.91
-3.62
-4.43
-5.35
-6.38
-7.50
-8.69
-9.83
-10.76
-11.21
-10.98
-9.98
-8.28
-6.09
-3.71
-1.41
0.61
2.25
3.51
4.42
5.09
5.62
6.15
6.72
7.31
7.86
8.32
8.67
8.97
9.27
9.59
9.91
10.18
10.41
10.66
11.09
11.75
12.62
13.54
14.25
14.55
14.36
13.75
12.94
12.17
11.62
11.32
11.16
10.94
10.44
9.47
7.97
5.96
3.54
0.88
-1.86
-4.53
-6.96
-9.05
-10.70
-11.85
-12.49
-12.62
-12.27
-11.52
-10.48
-9.33
-8.26
-7.52
-7.31
-7.75
-8.85
-10.47
-12.36
-14.18
-15.59
-16.30
-16.19
-15.27
-13.72
-11.81
-9.83
-7.98
-6.35
-4.87
-3.43
-1.91
-0.28
1.38
2.95
4.29
5.36
6.19
6.84
7.37
7.74
7.90
7.80
7.44
6.86
6.12
5.20
4.06
2.57
0.65
-1.73
-4.49
-7.39
-10.11
-12.29
-13.64
-13.98
-13.38
-12.05
-10.32
-8.48
-6.72
-5.08
-3.50
-1.88
-0.16
1.64
3.43
5.10
6.54
7.68
8.51
9.09
9.52
9.88
10.25
10.63
10.99
11.29
11.45
11.42
11.17
10.71
10.06
9.29
8.53
7.87
7.37
7.00
6.66
6.22
5.60
4.83
4.03
3.36
2.96
2.89
3.07
3.35
3.55
3.47
3.01
2.15
0.99
-0.33
-1.64
-2.78
-3.67
-4.24
-4.46
-4.25
-3.56
-2.40
-0.85
0.89
2.59
4.08
5.29
6.25
6.99
7.51
7.75
7.62
7.05
6.08
4.82
3.48
2.29
1.46
1.09
1.18
1.61
2.18
2.67
2.93
2.89
2.57
2.03
1.37
0.65
-0.03
-0.56
-0.86
-0.89
-0.70
-0.35
0.03
0.35
0.57
0.63
0.52
0.24
-0.14
-0.49
-0.68
-0.67
-0.54
-0.49
-0.73
-1.33
-2.17
-3.03
-3.57
-3.59
-3.00
-1.84
-0.23
1.68
3.76
5.88
7.92
9.77
11.35
12.60
13.55
14.23
14.66
14.77
14.47
13.65
12.35
10.71
8.95
7.30
5.88
4.67
3.54
2.34
1.01
-0.37
-1.74
-3.03
-4.33
-5.80
-7.59
-9.72
-12.01
-14.10
-15.63
-16.39
-16.42
-15.99
-15.52
-15.35
-15.62
-16.27
-17.13
-18.01
-18.87
-19.73
-20.61
-21.47
-22.12
-22.40
-22.18
-21.47
-20.38
-18.98
-17.26
-15.15
-12.58
-9.64
-6.53
-3.53
-0.88
1.30
3.02
4.38
5.48
6.36
7.05
7.53
7.81
7.95
8.00
8.08
8.22
8.41
8.59
8.65
8.55
8.29
7.98
7.74
7.67
7.74
7.92
8.11
8.30
8.48
8.68
8.89
9.08
9.25
9.49
9.95
10.81
12.16
13.95
15.99
18.01
19.77
21.03
21.64
21.47
20.42
18.44
15.57
11.98
8.01
4.05
0.53
-2.25
-4.15
-5.21
-5.60
-5.56
-5.36
-5.18
-5.13
-5.21
-5.40
-5.68
-6.11
-6.76
-7.68
-8.76
-9.80
-10.50
-10.63
-10.20
-9.40
-8.62
-8.14
-8.07
-8.26
-8.44
-8.38
-8.05
-7.63
-7.39
-7.52
-8.02
-8.69
-9.27
-9.58
-9.61
-9.48
-9.39
-9.47
-9.80
-10.38
-11.17
-12.09
-13.05
-13.88
-14.44
-14.59
-14.30
-13.71
-12.97
-12.23
-11.51
-10.73
-9.74
-8.41
-6.74
-4.80
-2.72
-0.66
1.23
2.79
3.89
4.46
4.51
4.15
3.54
2.77
1.90
0.93
-0.15
-1.34
-2.58
-3.79
-4.91
-5.90
-6.71
-7.29
-7.55
-7.45
-7.04
-6.49
-6.01
-5.81
-5.98
-6.48
-7.14
-7.79
-8.31
-8.71
-9.09
-9.52
-10.05
-10.63
-11.20
-11.79
-12.53
-13.54
-14.90
-16.47
-17.90
-18.82
-18.94
-18.20
-16.74
-14.78
-12.44
-9.71
-6.49
-2.75
1.39
5.62
9.55
12.85
15.31
16.93
17.80
18.10
17.99
17.63
17.14
16.69
16.46
16.58
17.08
17.85
18.65
19.20
19.29
18.85
17.95
16.78
15.49
14.16
12.77
11.23
9.52
7.64
5.66
3.63
1.56
-0.61
-2.93
-5.38
-7.87
-10.26
-12.47
-14.48
-16.37
-18.15
-19.75
-20.93
-21.35
-20.76
-19.08
-16.43
-13.11
-9.42
-5.63
-1.93
1.54
4.61
7.12
8.93
10.03
10.47
10.41
10.03
9.49
8.85
8.15
7.34
6.40
5.33
4.20
3.07
2.04
1.15
0.38
-0.29
-0.92
-1.49
-1.99
-2.41
-2.76
-3.10
-3.45
-3.81
-4.11
-4.32
-4.43
-4.53
-4.72
-5.09
-5.69
-6.47
-7.32
-8.06
-8.48
-8.35
-7.53
-6.01
-3.96
-1.65
0.60
2.56
4.18
5.54
6.75
7.86
8.82
9.49
9.78
9.68
9.28
8.76
8.28
7.93
7.75
7.70
7.66
7.55
7.28
6.80
6.10
5.19
4.05
2.68
1.07
-0.71
-2.54
-4.24
-5.65
-6.67
-7.27
-7.54
-7.55
-7.39
-7.12
-6.80
-6.54
-6.46
-6.65
-7.16
-7.91
-8.75
-9.48
-9.84
-9.67
-8.85
-7.40
-5.45
-3.23
-1.01
1.00
2.64
3.89
4.80
5.46
5.94
6.29
6.48
6.48
6.25
5.79
5.15
4.39
3.57
2.79
2.10
1.62
1.47
1.72
2.42
3.50
4.87
6.40
7.95
9.40
10.56
11.17
10.98
9.85
7.89
5.48
3.17
1.46
0.68
0.84
1.68
2.81
3.83
4.38
4.25
3.34
1.72
-0.45
-2.86
-5.13
-6.86
-7.74
-7.64
-6.61
-4.90
-2.81
-0.63
1.41
3.20
4.68
5.81
6.57
6.93
6.90
6.58
6.09
5.60
5.27
5.22
5.54
6.23
7.19
8.22
9.13
9.80
10.28
10.70
11.21
11.86
12.56
13.10
13.31
13.14
12.62
11.88
11.03
10.19
9.53
9.28
9.70
10.83
12.49
14.16
15.28
15.43
14.57
13.06
11.46
10.26
9.69
9.68
9.98
10.33
10.58
10.70
10.69
10.60
10.45
10.24
9.97
9.57
8.94
7.93
6.42
4.43
2.07
-0.38
-2.66
-4.57
-6.08
-7.25
-8.22
-9.06
-9.80
-10.46
-11.05
-11.70
-12.53
-13.61
-14.86
-16.05
-16.94
-17.36
-17.34
-17.08
-16.88
-16.91
-17.22
-17.68
-18.13
-18.49
-18.77
-19.07
-19.51
-20.09
-20.70
-21.13
-21.13
-20.51
-19.18
-17.19
-14.69
-11.90
-9.01
-6.17
-3.45
-0.92
1.34
3.25
4.74
5.81
6.57
7.17
7.74
8.31
8.76
8.94
8.70
8.07
7.18
6.29
5.63
5.30
5.27
5.35
5.36
5.15
4.66
3.93
3.02
1.99
0.87
-0.36
-1.70
-3.18
-4.76
-6.40
-8.02
-9.57
-11.00
-12.26
-13.34
-14.25
-14.99
-15.61
-16.18
-16.77
-17.43
-18.19
-19.00
-19.81
-20.50
-20.94
-20.97
-20.41
-19.06
-16.76
-13.44
-9.18
-4.21
1.03
5.97
10.06
12.94
14.59
15.37
15.95
17.03
19.14
22.37
26.40
30.57
34.23
36.91
38.52
39.27
39.54
39.73
40.08
40.72
41.60
42.65
43.73
44.66
45.24
45.24
44.44
42.72
40.13
36.89
33.37
29.91
26.77
23.96
21.34
18.68
15.79
12.60
9.14
5.47
1.63
-2.42
-6.68
-11.03
-15.18
-18.68
-21.17
-22.48
-22.76
-22.47
-22.09
-21.98
-22.14
-22.31
-22.09
-21.19
-19.63
-17.68
-15.75
-14.19
-13.13
-12.48
-12.03
-11.59
-11.05
-10.43
-9.79
-9.18
-8.60
-8.03
-7.42
-6.81
-6.25
-5.81
-5.59
-5.61
-5.85
-6.25
-6.74
-7.19
-7.54
-7.76
-7.86
-7.92
-8.04
-8.28
-8.66
-9.12
-9.60
-10.05
-10.48
-10.92
-11.41
-11.93
-12.43
-12.83
-13.08
-13.12
-12.94
-12.50
-11.77
-10.76
-9.54
-8.26
-7.11
-6.20
-5.55
-5.10
-4.72
-4.32
-3.86
-3.32
-2.72
-2.08
-1.44
-0.88
-0.48
-0.29
-0.31
-0.47
-0.66
-0.78
-0.79
-0.71
-0.56
-0.37
-0.11
0.22
0.61
1.02
1.39
1.69
1.92
2.08
2.15
2.12
1.97
1.69
1.32
0.86
0.31
-0.34
-1.13
-2.10
-3.24
-4.52
-5.84
-7.11
-8.22
-9.07
-9.59
-9.73
-9.48
-8.85
-7.90
-6.69
-5.31
-3.84
-2.34
-0.87
0.50
1.75
2.86
3.90
4.99
6.27
7.78
9.43
11.03
12.30
13.04
13.19
12.88
12.31
11.72
11.22
10.80
10.33
9.65
8.70
7.51
6.19
4.91
3.87
3.19
2.96
3.16
3.71
4.42
5.03
5.33
5.17
4.57
3.69
2.70
1.70
0.62
-0.72
-2.54
-4.96
-7.95
-11.34
-14.88
-18.28
-21.25
-23.46
-24.66
-24.66
-23.45
-21.25
-18.42
-15.39
-12.51
-9.96
-7.72
-5.64
-3.54
-1.27
1.23
3.90
6.62
9.22
11.60
13.73
15.64
17.35
18.80
19.87
20.38
20.20
19.30
17.75
15.68
13.24
10.55
7.74
4.91
2.18
-0.33
-2.59
-4.66
-6.67
-8.71
-10.81
-12.85
-14.69
-16.20
-17.35
-18.22
-18.91
-19.45
-19.78
-19.77
-19.31
-18.36
-17.04
-15.53
-14.03
-12.68
-11.53
-10.58
-9.78
-9.15
-8.70
-8.52
-8.61
-8.97
-9.51
-10.11
-10.61
-10.82
-10.55
-9.64
-8.02
-5.74
-2.97
0.03
3.02
5.82
8.33
10.53
12.36
13.79
14.80
15.49
16.11
16.95
18.20
19.84
21.52
22.73
22.96
21.93
19.67
16.56
13.07
9.63
6.47
3.63
1.03
-1.36
-3.50
-5.20
-6.30
-6.67
-6.36
-5.51
-4.31
-2.89
-1.33
0.35
2.04
3.60
4.87
5.71
6.09
6.11
5.94
5.72
5.54
5.38
5.17
4.86
4.43
3.92
3.39
2.87
2.37
1.89
1.43
1.00
0.61
0.24
-0.14
-0.59
-1.12
-1.67
-2.15
-2.46
-2.57
-2.52
-2.44
-2.42
-2.53
-2.72
-2.87
-2.90
-2.74
-2.42
-2.02
-1.69
-1.58
-1.84
-2.61
-3.90
-5.61
-7.48
-9.14
-10.24
-10.56
-10.04
-8.83
-7.18
-5.37
-3.57
-1.85
-0.18
1.48
3.13
4.67
5.94
6.83
7.26
7.25
6.90
6.33
5.67
5.10
4.75
4.72
5.02
5.60
6.29
6.95
7.50
7.92
8.27
8.55
8.72
8.73
8.58
8.28
7.88
7.41
6.83
6.05
5.03
3.77
2.35
0.87
-0.65
-2.25
-4.01
-5.96
-8.00
-9.90
-11.37
-12.18
-12.23
-11.59
-10.49
-9.13
-7.72
-6.36
-5.10
-4.03
-3.21
-2.77
-2.75
-3.11
-3.71
-4.31
-4.72
-4.87
-4.82
-4.77
-4.92
-5.40
-6.22
-7.26
-8.37
-9.42
-10.38
-11.28
-12.24
-13.37
-14.72
-16.33
-18.15
-20.18
-22.37
-24.67
-27.04
-29.41
-31.68
-33.85
-35.90
-37.93
-40.06
-42.36
-44.71
-46.80
-48.19
-48.52
-47.78
-46.35
-44.83
-43.65
-42.74
-41.35
-38.31
-32.52
-23.37
-11.07
3.43
18.87
34.03
48.07
60.63
71.75
81.67
90.67
98.91
106.40
112.96
118.28
122.00
123.73
123.07
119.72
113.68
105.50
96.29
87.30
79.29
71.95
63.93
53.57
39.96
23.74
7.01
-7.59
-18.13
-24.23
-26.99
-28.17
-29.09
-30.16
-30.96
-30.98
-30.13
-28.93
-28.18
-28.38
-29.49
-30.90
-31.80
-31.51
-29.90
-27.28
-24.30
-21.59
-19.54
-18.15
-17.10
-15.97
-14.45
-12.49
-10.33
-8.34
-6.88
-6.09
-5.89
-5.96
-5.97
-5.66
-4.99
-4.08
-3.15
-2.36
-1.79
-1.42
-1.14
-0.88
-0.56
-0.20
0.17
0.52
0.80
0.92
0.78
0.31
-0.48
-1.49
-2.55
-3.51
-4.29
-4.94
-5.60
-6.41
-7.46
-8.77
-10.21
-11.64
-12.81
-13.50
-13.54
-12.84
-11.48
-9.67
-7.68
-5.80
-4.21
-2.95
-1.97
-1.17
-0.46
0.22
0.85
1.43
1.93
2.35
2.74
3.15
3.59
4.05
4.45
4.71
4.75
4.60
4.39
4.25
4.27
4.39
4.49
4.42
4.13
3.67
3.18
2.71
2.25
1.67
0.85
-0.22
-1.39
-2.47
-3.33
-3.94
-4.46
-5.08
-5.95
-7.11
-8.47
-9.88
-11.12
-11.97
-12.23
-11.74
-10.46
-8.53
-6.22
-3.87
-1.75
-0.01
1.36
2.44
3.28
3.89
4.26
4.44
4.56
4.78
5.20
5.79
6.33
6.62
6.50
6.05
5.51
5.11
4.99
5.09
5.22
5.15
4.79
4.18
3.46
2.77
2.11
1.45
0.65
-0.28
-1.28
-2.21
-2.95
-3.45
-3.81
-4.16
-4.58
-5.08
-5.54
-5.86
-6.03
-6.11
-6.19
-6.32
-6.41
-6.28
-5.82
-5.00
-3.91
-2.71
-1.47
-0.21
1.11
2.49
3.81
4.91
5.64
5.99
6.05
5.94
5.75
5.51
5.16
4.65
4.01
3.29
2.51
1.66
0.70
-0.40
-1.66
-2.98
-4.23
-5.32
-6.18
-6.86
-7.41
-7.90
-8.36
-8.72
-8.92
-8.87
-8.54
-8.00
-7.32
-6.64
-6.07
-5.66
-5.46
-5.48
-5.71
-6.13
-6.66
-7.16
-7.48
-7.44
-6.97
-6.08
-4.92
-3.67
-2.48
-1.43
-0.55
0.23
0.95
1.69
2.52
3.49
4.63
5.85
6.98
7.84
8.30
8.39
8.19
7.86
7.48
7.07
6.56
5.93
5.19
4.43
3.73
3.10
2.54
2.01
1.56
1.23
1.07
1.05
1.06
0.93
0.49
-0.30
-1.42
-2.77
-4.26
-5.83
-7.41
-8.95
-10.34
-11.44
-12.13
-12.31
-11.93
-10.95
-9.33
-7.11
-4.42
-1.47
1.41
3.89
5.75
6.92
7.52
7.78
7.93
8.12
8.42
8.80
9.19
9.57
9.91
10.25
10.58
10.85
10.99
10.89
10.47
9.74
8.75
7.62
6.46
5.31
4.18
2.98
1.63
0.08
-1.67
-3.54
-5.39
-7.05
-8.39
-9.33
-9.90
-10.19
-10.31
-10.31
-10.24
-10.07
-9.84
-9.61
-9.52
-9.70
-10.20
-10.89
-11.51
-11.74
-11.33
-10.29
-8.80
-7.16
-5.57
-4.04
-2.45
-0.68
1.26
3.12
4.61
5.51
5.84
5.86
5.91
6.20
6.79
7.52
8.24
8.84
9.36
9.89
10.44
10.92
11.16
10.97
10.31
9.29
8.11
7.02
6.16
5.56
5.13
4.75
4.29
3.68
2.85
1.78
0.44
-1.15
-2.91
-4.76
-6.59
-8.32
-9.94
-11.44
-12.81
-13.98
-14.84
-15.21
-14.96
-14.05
-12.59
-10.79
-8.87
-7.03
-5.33
-3.70
-2.07
-0.36
1.37
2.98
4.31
5.27
5.87
6.21
6.41
6.58
6.79
7.06
7.42
7.85
8.31
8.71
8.92
8.83
8.37
7.58
6.62
5.69
5.02
4.74
4.85
5.26
5.77
6.16
6.27
6.00
5.33
4.33
3.08
1.69
0.23
-1.24
-2.75
-4.32
-6.03
-7.84
-9.64
-11.20
-12.21
-12.41
-11.69
-10.10
-7.86
-5.28
-2.64
-0.11
2.21
4.26
6.01
7.37
8.28
8.72
8.82
8.77
8.80
9.05
9.55
10.19
10.77
11.07
10.98
10.54
9.85
9.11
8.42
7.74
6.91
5.75
4.11
2.03
-0.30
-2.63
-4.75
-6.57
-8.11
-9.45
-10.60
-11.51
-12.10
-12.27
-12.05
-11.55
-10.92
-10.33
-9.85
-9.50
-9.22
-8.92
-8.53
-8.01
-7.31
-6.40
-5.28
-3.91
-2.30
-0.49
1.38
3.16
4.67
5.78
6.47
6.76
6.76
6.57
6.28
5.96
5.67
5.45
5.32
5.26
5.23
5.20
5.17
5.22
5.41
5.81
6.38
7.04
7.66
8.14
8.50
8.84
9.24
9.76
10.33
10.81
11.11
11.22
11.23
11.27
11.42
11.58
11.59
11.22
10.39
9.15
7.70
6.26
5.04
4.13
3.58
3.39
3.53
3.97
4.62
5.35
5.96
6.27
6.14
5.50
4.41
2.98
1.37
-0.26
