1653046334.00
64.000000
-0.00
-0.00
-0.00
-0.00
-0.00
-0.00
-0.00
-0.00
-0.00
-0.00
0.00
0.01
0.01
-0.00
-0.03
-0.05
-0.05
0.00
0.13
0.36
0.66
1.01
1.37
1.72
2.06
2.40
2.79
3.24
3.80
4.42
5.06
5.66
6.20
6.68
7.15
7.68
8.31
9.14
10.09
11.04
11.88
12.56
13.14
13.76
14.65
15.96
17.91
20.32
22.90
25.38
27.58
29.57
31.68
34.32
37.81
42.54
48.15
54.10
59.83
64.97
69.58
74.14
79.34
85.71
93.76
103.00
112.62
121.73
129.77
136.75
143.30
150.74
157.77
166.65
177.97
191.83
207.01
220.59
228.21
225.22
208.26
176.47
132.27
79.51
22.53
-35.47
-92.96
-149.73
-205.90
-261.17
-314.66
-364.86
-410.83
-451.86
-487.42
-516.68
-538.30
-550.54
-551.60
-540.29
-516.31
-480.79
-435.90
-384.38
-329.04
-272.24
-215.72
-160.61
-107.72
-57.66
-11.33
30.32
66.36
96.15
119.57
137.09
149.66
158.46
164.54
168.53
170.56
170.40
167.71
162.39
154.77
145.64
136.03
126.81
118.47
110.93
103.74
96.30
88.10
78.75
68.08
56.26
44.10
33.23
26.02
24.73
30.50
42.42
57.58
72.03
82.29
86.83
86.10
81.92
76.30
70.50
64.78
58.86
52.55
46.20
40.54
36.17
33.21
31.19
29.27
26.70
23.18
19.05
15.03
11.93
10.23
9.92
10.48
11.12
11.09
10.00
7.95
5.43
3.02
1.09
-0.33
-1.40
-2.17
-2.45
-1.85
-0.14
2.40
4.96
6.51
6.32
4.40
1.48
-1.39
-3.41
-4.36
-4.56
-4.57
-4.72
-4.98
-5.08
-4.86
-4.42
-4.13
-4.32
-5.06
-6.10
-6.93
-7.08
-6.38
-5.04
-3.52
-2.35
-1.83
-1.95
-2.46
-3.02
-3.40
-3.51
-3.35
-3.01
-2.53
-1.94
-1.25
-0.49
0.33
1.16
1.98
2.72
3.36
3.91
4.40
4.87
5.35
5.87
6.45
7.12
7.91
8.90
10.13
11.51
12.77
13.55
13.49
12.44
10.52
7.93
4.98
1.97
-0.91
-3.51
-5.73
-7.46
-8.60
-9.13
-9.16
-8.85
-8.44
-8.15
-8.15
-8.48
-9.07
-9.78
-10.39
-10.72
-10.70
-10.35
-9.85
-9.37
-9.02
-8.77
-8.53
-8.18
-7.72
-7.22
-6.77
-6.39
-6.00
-5.41
-4.45
-3.11
-1.54
-0.00
1.23
2.02
2.34
2.27
1.94
1.46
0.92
0.40
-0.02
-0.29
-0.42
-0.47
-0.55
-0.74
-1.04
-1.37
-1.61
-1.65
-1.46
-1.02
-0.42
0.26
0.93
1.46
1.70
1.54
0.83
-0.43
-2.06
-3.80
-5.35
-6.50
-7.15
-7.39
-7.41
-7.46
-7.69
-8.17
-8.82
-9.43
-9.66
-9.19
-7.81
-5.50
-2.57
0.55
3.34
5.42
6.63
7.03
6.82
6.23
5.47
4.67
4.00
3.56
3.44
3.65
4.10
4.64
5.09
5.32
5.25
4.92
4.43
3.92
3.58
3.49
3.67
4.01
4.30
4.36
4.11
3.65
3.15
2.84
2.78
2.90
3.01
2.92
2.54
1.93
1.23
0.57
0.02
-0.41
-0.76
-1.07
-1.33
-1.51
-1.61
-1.66
-1.72
-1.86
-2.09
-2.36
-2.59
-2.69
-2.68
-2.67
-2.84
-3.34
-4.24
-5.46
-6.86
-8.25
-9.49
-10.45
-11.02
-11.08
-10.55
-9.43
-7.87
-6.11
-4.43
-3.05
-2.02
-1.32
-0.82
-0.42
-0.02
0.52
1.34
2.59
4.29
6.34
8.50
10.50
12.17
13.50
14.58
15.51
16.32
16.95
17.24
17.08
16.43
15.34
13.87
12.09
10.06
7.85
5.56
3.36
1.42
-0.13
-1.19
-1.75
-1.88
-1.70
-1.43
-1.25
-1.36
-1.79
-2.51
-3.31
-4.01
-4.49
-4.76
-4.96
-5.28
-5.84
-6.62
-7.45
-8.08
-8.26
-7.90
-7.04
-5.84
-4.56
-3.42
-2.57
-2.06
-1.84
-1.79
-1.80
-1.76
-1.60
-1.32
-0.95
-0.51
-0.03
0.45
0.92
1.37
1.73
1.96
2.01
1.87
1.55
1.12
0.58
-0.04
-0.76
-1.60
-2.58
-3.65
-4.74
-5.80
-6.78
-7.66
-8.48
-9.25
-10.01
-10.75
-11.52
-12.35
-13.30
-14.46
-15.84
-17.41
-19.00
-20.42
-21.49
-22.09
-22.18
-21.80
-20.95
-19.60
-17.69
-15.14
-11.94
-8.15
-3.92
0.55
5.03
9.26
12.99
16.02
18.25
19.70
20.53
20.96
21.19
21.33
21.45
21.51
21.43
21.16
20.64
19.86
18.84
17.66
16.40
15.17
14.05
13.08
12.26
11.47
10.62
9.61
8.45
7.24
6.14
5.33
4.86
4.70
4.67
4.58
4.26
3.61
2.62
1.32
-0.16
-1.66
-2.93
-3.73
-3.83
-3.18
-1.93
-0.43
0.90
1.77
2.10
2.09
2.09
2.40
3.04
3.72
3.96
3.30
1.58
-0.91
-3.54
-5.59
-6.53
-6.25
-5.11
-3.67
-2.46
-1.76
-1.51
-1.51
-1.51
-1.47
-1.48
-1.69
-2.18
-2.83
-3.46
-3.87
-4.01
-3.99
-3.96
-4.09
-4.46
-5.04
-5.81
-6.72
-7.82
-9.12
-10.56
-12.03
-13.32
-14.21
-14.49
-14.04
-12.74
-10.57
-7.55
-3.82
0.34
4.58
8.49
11.77
14.27
16.02
17.21
18.04
18.66
19.11
19.33
19.22
18.64
17.55
15.98
14.04
11.89
9.71
7.65
5.86
4.47
3.54
3.09
3.02
3.13
3.18
2.95
2.37
1.49
0.52
-0.34
-0.93
-1.22
-1.27
-1.18
-1.04
-0.90
-0.76
-0.61
-0.42
-0.16
0.13
0.42
0.64
0.74
0.65
0.34
-0.20
-0.94
-1.84
-2.83
-3.88
-4.99
-6.11
-7.23
-8.25
-9.05
-9.48
-9.43
-8.90
-7.97
-6.77
-5.47
-4.15
-2.87
-1.62
-0.42
0.66
1.47
1.87
1.78
1.23
0.36
-0.61
-1.53
-2.32
-3.03
-3.78
-4.59
-5.36
-5.89
-5.95
-5.43
-4.41
-3.11
-1.83
-0.77
-0.01
0.53
0.97
1.46
2.05
2.69
3.28
3.73
3.92
3.84
3.55
3.15
2.76
2.49
2.35
2.33
2.36
2.37
2.31
2.16
1.93
1.61
1.24
0.88
0.60
0.45
0.44
0.48
0.48
0.37
0.13
-0.18
-0.44
-0.58
-0.55
-0.40
-0.22
-0.05
0.09
0.23
0.39
0.50
0.48
0.25
-0.20
-0.73
-1.20
-1.49
-1.61
-1.68
-1.87
-2.27
-2.87
-3.57
-4.27
-4.93
-5.59
-6.29
-7.01
-7.67
-8.18
-8.48
-8.66
-8.86
-9.23
-9.86
-10.70
-11.61
-12.44
-13.11
-13.66
-14.23
-14.96
-15.94
-17.15
-18.53
-19.96
-21.39
-22.75
-23.97
-24.91
-25.37
-25.14
-24.13
-22.32
-19.82
-16.80
-13.45
-9.89
-6.24
-2.64
0.78
3.84
6.34
8.11
9.00
8.95
8.03
6.51
4.81
3.45
2.87
3.34
4.78
6.82
8.87
10.32
10.72
9.93
8.15
5.86
3.62
1.91
0.99
0.79
1.03
1.33
1.38
1.04
0.29
-0.74
-1.90
-3.05
-4.05
-4.77
-5.10
-4.98
-4.45
-3.67
-2.89
-2.37
-2.33
-2.81
-3.72
-4.79
-5.69
-6.03
-5.48
-3.85
-1.14
2.44
6.51
10.67
14.56
17.94
20.73
22.89
24.50
25.64
26.42
26.91
27.07
26.76
25.74
23.78
20.80
16.99
12.78
8.73
5.36
2.99
1.66
1.13
1.01
0.91
0.47
-0.52
-2.13
-4.28
-6.74
-9.18
-11.18
-12.43
-12.77
-12.32
-11.47
-10.72
-10.52
-11.08
-12.25
-13.57
-14.43
-14.26
-12.74
-10.00
-6.55
-3.15
-0.54
0.83
0.91
0.05
-1.19
-2.27
-2.85
-2.84
-2.33
-1.52
-0.61
0.25
1.01
1.77
2.69
4.00
5.94
8.60
11.92
15.62
19.24
22.27
24.26
24.96
24.48
23.20
21.68
20.46
19.86
19.86
20.15
20.33
20.07
19.22
17.85
16.12
14.21
12.21
10.14
8.00
5.82
3.71
1.78
0.11
-1.26
-2.38
-3.36
-4.25
-5.10
-5.88
-6.56
-7.16
-7.78
-8.54
-9.50
-10.63
-11.75
-12.62
-12.98
-12.73
-11.87
-10.59
-9.09
-7.56
-6.12
-4.77
-3.50
-2.34
-1.34
-0.61
-0.23
-0.21
-0.49
-0.90
-1.30
-1.55
-1.60
-1.47
-1.20
-0.86
-0.45
-0.00
0.47
0.90
1.22
1.35
1.26
0.98
0.62
0.31
0.16
0.22
0.43
0.69
0.86
0.82
0.54
0.06
-0.49
-0.98
-1.30
-1.40
-1.35
-1.23
-1.16
-1.21
-1.41
-1.70
-2.06
-2.43
-2.77
-3.06
-3.33
-3.59
-3.87
-4.16
-4.41
-4.48
-4.21
-3.50
-2.35
-0.91
0.55
1.78
2.61
3.03
3.14
3.08
2.95
2.75
2.39
1.75
0.74
-0.62
-2.23
-3.85
-5.21
-6.08
-6.34
-6.00
-5.19
-4.08
-2.85
-1.65
-0.55
0.47
1.54
2.82
4.49
6.63
9.19
11.93
14.63
17.10
19.24
20.99
22.16
22.46
21.53
19.23
15.79
11.78
7.97
4.90
2.75
1.24
-0.13
-1.77
-3.83
-6.15
-8.44
-10.38
-11.86
-12.87
-13.48
-13.74
-13.66
-13.27
-12.63
-11.87
-11.15
-10.62
-10.32
-10.22
-10.22
-10.23
-10.17
-10.05
-9.93
-9.87
-9.91
-10.04
-10.23
-10.44
-10.65
-10.83
-10.92
-10.87
-10.63
-10.19
-9.61
-8.95
-8.34
-7.84
-7.52
-7.40
-7.46
-7.69
-8.06
-8.55
-9.13
-9.69
-10.11
-10.21
-9.82
-8.83
-7.28
-5.38
-3.47
-1.91
-0.94
-0.66
-0.96
-1.62
-2.36
-2.89
-2.97
-2.46
-1.32
0.37
2.43
4.63
6.75
8.58
9.95
10.77
11.03
10.80
10.27
9.66
9.19
8.94
8.90
8.96
8.99
8.96
8.89
8.87
9.00
9.32
9.77
10.27
10.69
10.90
10.85
10.51
9.97
9.34
8.76
8.29
7.91
7.53
7.03
6.33
5.43
4.42
3.41
2.45
1.53
0.58
-0.41
-1.43
-2.40
-3.25
-3.93
-4.50
-5.04
-5.61
-6.18
-6.59
-6.65
-6.20
-5.25
-3.96
-2.57
-1.30
-0.26
0.55
1.20
1.74
2.12
2.25
2.13
1.87
1.70
1.87
2.48
3.43
4.41
5.08
5.23
4.87
4.25
3.67
3.38
3.46
3.78
4.10
4.20
3.98
3.44
2.70
1.90
1.13
0.40
-0.30
-0.99
-1.64
-2.24
-2.77
-3.21
-3.60
-4.02
-4.57
-5.36
-6.44
-7.81
-9.40
-11.11
-12.83
-14.46
-15.95
-17.21
-18.17
-18.75
-18.88
-18.58
-17.98
-17.28
-16.74
-16.55
-16.82
-17.49
-18.41
-19.35
-20.09
-20.49
-20.52
-20.21
-19.56
-18.53
-16.96
-14.70
-11.71
-8.10
-4.13
-0.14
3.65
7.16
10.47
13.70
16.86
19.80
22.23
23.87
24.51
24.21
23.25
22.00
20.80
19.79
18.92
17.99
16.81
15.30
13.51
11.59
9.70
7.99
6.53
5.39
4.58
4.12
3.99
4.21
4.74
5.54
6.55
7.63
8.58
9.22
9.40
9.13
8.56
7.93
7.49
7.39
7.59
7.95
8.24
8.28
7.99
7.43
6.75
6.07
5.48
4.96
4.43
3.84
3.13
2.35
1.56
0.84
0.25
-0.20
-0.48
-0.65
-0.78
-0.99
-1.37
-2.02
-2.89
-3.87
-4.78
-5.46
-5.85
-5.96
-5.90
-5.78
-5.70
-5.74
-5.89
-6.09
-6.20
-6.03
-5.39
-4.16
-2.34
-0.09
2.35
4.70
6.72
8.24
9.19
9.58
9.45
8.85
7.87
6.59
5.13
3.66
2.34
1.29
0.56
0.07
-0.31
-0.69
-1.14
-1.63
-2.07
-2.39
-2.51
-2.36
-1.91
-1.16
-0.21
0.81
1.66
2.11
2.00
1.30
0.11
-1.35
-2.82
-4.08
-4.97
-5.49
-5.68
-5.66
-5.57
-5.51
-5.55
-5.68
-5.87
-6.06
-6.19
-6.21
-6.10
-5.87
-5.52
-5.11
-4.62
-4.02
-3.25
-2.25
-1.00
0.50
2.18
3.94
5.63
7.09
8.12
8.56
8.36
7.58
6.38
5.02
3.70
2.58
1.73
1.17
0.89
0.88
1.11
1.48
1.90
2.26
2.57
2.95
3.58
4.62
6.10
7.91
9.82
11.57
12.96
13.86
14.26
14.27
14.03
13.71
13.42
13.17
12.85
12.37
11.66
10.78
9.91
9.20
8.71
8.38
8.00
7.40
6.50
5.36
4.15
3.03
2.09
1.34
0.72
0.18
-0.36
-0.92
-1.52
-2.18
-2.87
-3.55
-4.12
-4.43
-4.39
-3.99
-3.33
-2.60
-2.00
-1.67
-1.65
-1.86
-2.16
-2.42
-2.54
-2.50
-2.33
-2.07
-1.77
-1.46
-1.21
-1.08
-1.06
-1.10
-1.11
-1.00
-0.74
-0.40
-0.13
-0.04
-0.20
-0.54
-0.93
-1.24
-1.42
-1.53
-1.66
-1.85
-2.14
-2.46
-2.78
-3.13
-3.57
-4.20
-5.05
-6.09
-7.20
-8.19
-8.92
-9.32
-9.48
-9.58
-9.79
-10.22
-10.82
-11.46
-11.94
-12.09
-11.80
-11.06
-9.92
-8.51
-7.00
-5.57
-4.39
-3.60
-3.16
-2.98
-2.88
-2.71
-2.40
-1.98
-1.57
-1.24
-1.05
-0.99
-1.02
-1.09
-1.18
-1.31
-1.48
-1.71
-1.99
-2.28
-2.56
-2.84
-3.14
-3.52
-4.05
-4.75
-5.56
-6.35
-6.96
-7.30
-7.35
-7.21
-7.05
-7.02
-7.24
-7.74
-8.49
-9.42
-10.40
-11.21
-11.61
-11.37
-10.37
-8.63
-6.39
-3.96
-1.67
0.28
1.76
2.79
3.38
3.55
3.33
2.80
2.16
1.66
1.54
1.94
2.83
4.05
5.38
6.62
7.66
8.44
8.95
9.17
9.07
8.68
8.07
7.39
6.79
6.40
6.22
6.18
6.13
5.98
5.66
5.26
4.87
4.60
4.49
4.50
4.54
4.52
4.39
4.15
3.82
3.43
3.00
2.56
2.17
1.93
1.89
2.04
2.27
2.42
2.36
2.01
1.42
0.73
0.09
-0.42
-0.81
-1.16
-1.59
-2.14
-2.77
-3.35
-3.80
-4.07
-4.23
-4.40
-4.65
-5.00
-5.31
-5.43
-5.20
-4.57
-3.62
-2.51
-1.44
-0.50
0.24
0.83
1.28
1.59
1.72
1.66
1.41
1.06
0.75
0.58
0.58
0.72
0.89
0.97
0.92
0.76
0.57
0.44
0.44
0.57
0.77
0.99
1.16
1.30
1.45
1.73
2.21
2.97
4.01
5.25
6.53
7.65
8.39
8.57
8.12
7.08
5.59
3.85
2.04
0.29
-1.32
-2.76
-3.98
-4.97
-5.72
-6.28
-6.71
-7.09
-7.42
-7.61
-7.53
-7.08
-6.21
-5.04
-3.72
-2.49
-1.48
-0.79
-0.40
-0.21
-0.14
-0.11
-0.08
-0.06
-0.06
-0.05
-0.02
0.07
0.25
0.49
0.74
0.89
0.87
0.68
0.35
-0.01
-0.33
-0.54
-0.61
-0.51
-0.22
0.26
0.88
1.50
1.91
1.93
1.51
0.71
-0.25
-1.16
-1.86
-2.35
-2.73
-3.11
-3.55
-4.04
-4.51
-4.89
-5.16
-5.36
-5.51
-5.66
-5.83
-6.06
-6.34
-6.62
-6.79
-6.68
-6.17
-5.22
-3.92
-2.53
-1.26
-0.27
0.44
0.98
1.46
1.95
2.41
2.72
2.82
2.71
2.50
2.30
2.24
2.32
2.51
2.70
2.83
2.89
2.91
2.93
2.97
2.98
2.93
2.77
2.49
2.12
1.68
1.19
0.68
0.23
-0.09
-0.23
-0.21
-0.11
-0.05
-0.10
-0.23
-0.34
-0.30
-0.06
0.29
0.59
0.66
0.38
-0.22
-1.01
-1.81
-2.51
-3.07
-3.52
-3.95
-4.35
-4.61
-4.56
-4.06
-3.12
-1.93
-0.79
0.05
0.48
0.58
0.54
0.55
0.67
0.87
1.04
1.10
1.08
1.08
1.18
1.42
1.75
2.03
2.18
2.21
2.18
2.22
2.41
2.74
3.10
3.33
3.32
3.07
2.66
2.22
1.85
1.58
1.37
1.14
0.83
0.41
-0.10
-0.62
-1.09
-1.47
-1.77
-2.04
-2.36
-2.77
-3.29
-3.83
-4.35
-4.77
-5.07
-5.24
-5.24
-5.00
-4.44
-3.54
-2.35
-1.02
0.26
1.32
2.09
2.60
2.94
3.21
3.44
3.60
3.64
3.57
3.45
3.40
3.51
3.84
4.30
4.77
5.12
5.25
5.17
4.96
4.72
4.53
4.41
4.29
4.10
3.76
3.28
2.75
2.31
2.08
2.14
2.45
2.94
3.49
3.97
4.25
4.19
3.67
2.62
1.10
-0.67
-2.37
-3.65
-4.30
-4.30
-3.78
-2.97
-2.07
-1.17
-0.28
0.67
1.77
3.06
4.61
6.46
8.71
11.39
14.42
17.49
20.09
21.71
21.99
20.89
18.71
15.93
13.04
10.34
7.95
5.85
3.98
2.35
0.94
-0.26
-1.31
-2.28
-3.17
-3.95
-4.53
-4.89
-5.05
-5.11
-5.18
-5.37
-5.71
-6.20
-6.77
-7.36
-7.87
-8.20
-8.28
-8.11
-7.82
-7.61
-7.66
-8.09
-8.86
-9.83
-10.83
-11.74
-12.54
-13.25
-13.93
-14.54
-15.01
-15.20
-15.03
-14.49
-13.69
-12.79
-11.94
-11.27
-10.82
-10.58
-10.47
-10.46
-10.49
-10.61
-10.92
-11.49
-12.36
-13.42
-14.47
-15.22
-15.49
-15.22
-14.57
-13.83
-13.32
-13.28
-13.76
-14.62
-15.60
-16.39
-16.63
-16.03
-14.38
-11.66
-8.12
-4.27
-0.79
1.75
3.11
3.47
3.32
3.21
3.47
4.10
4.87
5.57
6.13
6.73
7.56
8.71
10.05
11.31
12.23
12.74
12.94
13.03
13.17
13.41
13.69
13.94
14.17
14.44
14.87
15.48
16.18
16.75
16.95
16.60
15.64
14.16
12.33
10.32
8.31
6.40
4.66
3.18
2.00
1.15
0.62
0.32
0.17
0.07
-0.04
-0.14
-0.17
-0.06
0.22
0.63
1.08
1.43
1.62
1.60
1.44
1.17
0.85
0.50
0.16
-0.14
-0.31
-0.26
-0.03
0.27
0.44
0.33
-0.14
-0.90
-1.78
-2.63
-3.38
-4.04
-4.66
-5.32
-6.00
-6.64
-7.18
-7.54
-7.68
-7.55
-7.12
-6.41
-5.48
-4.44
-3.44
-2.60
-2.02
-1.68
-1.50
-1.34
-1.03
-0.51
0.23
1.10
1.99
2.83
3.63
4.41
5.17
5.86
6.33
6.46
6.20
5.69
5.14
4.77
4.69
4.82
5.00
5.02
4.80
4.35
3.78
3.22
2.78
2.47
2.25
2.05
1.82
1.50
1.09
0.60
0.08
-0.40
-0.78
-1.03
-1.13
-1.16
-1.18
-1.26
-1.47
-1.84
-2.38
-3.10
-4.00
-5.05
-6.14
-7.13
-7.83
-8.08
-7.83
-7.09
-6.03
-4.81
-3.62
-2.55
-1.65
-0.92
-0.34
0.14
0.58
1.04
1.57
2.12
2.60
2.88
2.85
2.55
2.13
1.80
1.74
2.05
2.67
3.45
4.18
4.71
4.96
4.91
4.64
4.23
3.77
3.34
3.01
2.79
2.69
2.70
2.75
2.81
2.80
2.68
2.45
2.14
1.80
1.48
1.19
0.88
0.53
0.13
-0.25
-0.56
-0.73
-0.81
-0.89
-1.11
-1.58
-2.28
-3.12
-3.95
-4.60
-4.98
-5.05
-4.82
-4.35
-3.68
-2.87
-1.98
-1.03
-0.09
0.82
1.63
2.29
2.74
2.96
2.95
2.78
2.53
2.29
2.13
2.11
2.23
2.48
2.80
3.13
3.39
3.51
3.45
3.25
2.95
2.65
2.43
2.34
2.37
2.46
2.51
2.47
2.30
2.03
1.73
1.46
1.27
1.15
1.07
0.96
0.79
0.55
0.30
0.08
-0.07
-0.15
-0.22
-0.34
-0.56
-0.93
-1.44
-2.07
-2.78
-3.49
-4.07
-4.44
-4.52
-4.27
-3.73
-2.95
-2.04
-1.12
-0.29
0.35
0.75
0.93
0.94
0.88
0.82
0.79
0.76
0.69
0.55
0.35
0.12
-0.14
-0.40
-0.66
-0.89
-1.08
-1.20
-1.28
-1.40
-1.60
-1.96
-2.45
-3.03
-3.62
-4.17
-4.68
-5.17
-5.68
-6.24
-6.89
-7.62
-8.43
-9.31
-10.25
-11.24
-12.29
-13.39
-14.55
-15.71
-16.84
-17.85
-18.70
-19.33
-19.69
-19.68
-19.15
-17.94
-15.92
-13.06
-9.46
-5.27
-0.70
4.08
8.86
13.41
17.45
20.67
22.87
24.03
24.32
24.05
23.52
22.96
22.45
21.99
21.53
21.00
20.36
19.56
18.60
17.51
16.33
15.12
13.92
12.75
11.61
10.52
9.49
8.53
7.64
6.79
5.97
5.20
4.50
3.92
3.49
3.16
2.94
2.81
2.81
2.98
3.30
3.69
4.02
4.18
4.08
3.73
3.18
2.53
1.89
1.45
1.40
1.94
3.16
4.99
7.20
9.54
11.82
14.07
16.51
19.38
22.87
26.92
31.25
35.51
39.46
43.07
46.55
50.25
54.40
59.00
63.86
68.77
73.79
79.38
86.10
94.10
102.74
110.70
116.70
120.37
122.57
124.74
127.68
130.49
130.57
124.80
111.40
91.02
66.67
42.22
20.71
3.43
-9.69
-18.96
-24.17
-25.09
-22.74
-20.37
-23.00
-35.38
-59.42
-92.61
-128.54
-159.56
-180.02
-188.33
-186.97
-180.55
-173.29
-167.39
-162.89
-158.88
-154.76
-150.94
-148.45
-148.13
-149.91
-152.65
-154.46
-153.35
-147.97
-137.88
-123.71
-106.83
-89.03
-71.99
-56.93
-44.41
-34.15
-24.78
-13.71
2.54
27.43
63.07
108.91
161.46
215.11
264.02
303.90
333.02
351.72
361.11
361.72
352.93
333.56
302.99
262.00
212.82
158.46
102.00
46.15
-6.70
-54.21
-94.08
-124.44
-144.37
-154.38
-156.24
-152.35
-144.92
-135.29
-123.71
-109.74
-92.83
-72.91
-50.62
-27.36
-4.97
14.52
29.19
37.57
38.81
32.60
18.91
-2.12
-30.13
-64.16
-102.18
-140.94
-176.47
-204.96
-223.78
-232.01
-230.25
-220.02
-203.05
-180.88
-154.99
-127.20
-99.76
-74.98
-54.44
-38.43
-25.96
-15.50
-5.96
2.53
8.59
10.29
6.19
-3.73
-18.00
-34.17
-49.87
-63.69
-75.53
-86.32
-97.30
-109.37
-122.73
-136.82
-150.40
-161.54
-167.72
-166.27
-154.98
-133.04
-101.58
-63.61
-22.99
16.58
52.54
83.84
110.96
135.24
158.20
180.69
202.60
222.97
240.69
255.22
267.19
278.15
289.97
303.82
319.42
334.76
346.49
350.72
343.79
323.07
287.60
238.55
179.22
114.47
49.74
-10.23
-62.17
-104.45
-136.81
-160.01
-175.44
-184.76
-189.56
-190.94
-189.08
-183.15
-171.64
-153.19
-127.50
-95.95
-61.68
-28.96
-2.06
15.86
23.57
22.12
14.39
4.10
-5.18
-11.00
-12.44
-10.10
-5.57
-0.77
2.84
4.55
4.53
3.58
2.71
2.77
4.23
6.93
9.90
11.36
9.03
0.93
-13.37
-31.87
-50.37
-63.92
-69.07
-65.59
-56.70
-47.66
-43.38
-46.35
-56.02
-69.66
-84.17
-97.66
-110.08
-122.66
-136.76
-152.83
-169.89
-185.83
-198.20
-204.94
-204.89
-197.81
-184.42
-166.15
-145.26
-124.78
-108.20
-98.68
-97.99
-105.77
-119.36
-134.58
-146.93
-152.72
-149.49
-135.86
-111.13
-75.29
-29.38
23.94
80.32
134.34
180.71
215.35
236.28
243.66
239.38
226.29
207.63
186.28
164.11
141.45
116.54
85.64
43.86
-12.65
-84.37
-166.62
-249.74
-321.45
-370.70
-391.40
-384.12
-355.17
-313.51
-267.26
-221.47
-177.85
-136.16
-95.85
-56.78
-18.89
18.57
57.11
98.09
141.29
183.98
221.47
248.73
262.56
262.98
253.17
238.02
222.22
208.67
198.11
189.64
181.72
173.13
163.35
152.48
141.00
129.46
118.37
108.10
98.88
90.87
84.10
78.53
73.95
70.03
66.32
62.42
58.12
53.52
48.94
44.76
41.23
38.28
35.63
32.93
30.00
26.87
23.80
21.04
18.79
17.02
15.59
14.34
13.14
12.03
11.11
10.49
10.25
10.35
10.63
10.86
10.83
10.39
9.55
8.48
7.40
6.52
5.93
5.55
5.22
4.80
4.24
3.62
3.04
2.57
2.18
1.79
1.39
1.09
1.11
1.65
2.79
4.39
6.19
7.95
9.59
11.25
13.16
15.52
18.36
21.58
25.10
29.03
33.59
39.04
45.37
52.17
58.70
64.14
67.92
69.89
70.19
69.04
66.45
62.18
55.88
47.27
36.41
23.67
9.65
-4.90
-19.20
-32.52
-44.18
-53.68
-60.81
-65.65
-68.47
-69.60
-69.18
-67.11
-63.08
-56.77
-48.11
-37.46
-25.73
-14.25
-4.50
2.37
5.92
6.61
5.71
4.80
5.29
7.90
12.56
18.57
24.99
31.00
36.07
39.98
42.68
44.16
44.46
43.65
41.95
39.69
37.31
35.12
33.25
31.51
29.48
26.73
23.01
18.39
13.23
8.04
3.27
-0.87
-4.35
-7.28
-9.78
-11.93
-13.78
-15.36
-16.75
-18.02
-19.24
-20.46
-21.67
-22.86
-23.99
-24.96
-25.71
-26.16
-26.40
-26.71
-27.57
-29.51
-32.95
-37.94
-44.15
-50.91
-57.50
-63.32
-68.04
-71.48
-73.53
-73.99
-72.64
-69.36
-64.34
-57.99
-50.86
-43.40
-35.86
-28.30
-20.82
-13.69
-7.34
-2.25
1.33
3.46
4.50
4.91
5.11
5.39
5.91
6.81
8.18
10.02
12.15
14.25
15.90
16.81
16.98
16.67
16.32
16.28
16.67
17.36
18.00
18.26
17.92
16.99
15.64
14.13
12.64
11.31
10.12
9.02
7.93
6.80
5.58
4.25
2.79
1.19
-0.49
-2.13
-3.53
-4.43
-4.67
-4.17
-3.04
-1.52
0.09
1.51
2.53
3.10
3.27
3.16
2.91
2.62
2.32
2.07
1.92
1.93
2.16
2.59
3.13
3.64
3.98
4.09
4.01
3.82
3.66
3.57
3.57
3.61
3.67
3.72
3.73
3.69
3.54
3.29
3.00
2.78
2.74
2.93
3.26
3.54
3.55
3.16
2.37
1.37
0.36
-0.53
-1.26
-1.88
-2.44
-2.87
-3.04
-2.84
-2.22
-1.30
-0.27
0.69
1.47
2.03
2.40
2.60
2.64
2.49
2.17
1.75
1.30
0.91
0.64
0.53
0.56
0.72
0.97
1.22
1.41
1.48
1.44
1.32
1.21
1.14
1.14
1.15
1.10
0.93
0.62
0.16
-0.37
-0.93
-1.45
-1.92
-2.30
-2.60
-2.82
-2.96
-3.04
-3.08
-3.09
-3.11
-3.18
-3.33
-3.55
-3.84
-4.15
-4.44
-4.66
-4.77
-4.73
-4.50
-4.06
-3.40
-2.54
-1.55
-0.50
0.52
1.39
2.02
2.36
2.39
2.20
1.87
1.53
1.26
1.14
1.18
1.33
1.50
1.60
1.54
1.30
0.93
0.55
0.24
0.09
0.09
0.17
0.22
0.13
-0.14
-0.58
-1.11
-1.61
-1.95
-2.04
-1.89
-1.58
-1.23
-0.99
-0.92
-0.99
-1.09
-1.10
-0.90
-0.47
0.15
0.87
1.57
2.16
2.61
2.98
3.42
4.07
5.05
6.35
7.89
9.53
11.12
12.58
13.82
14.73
15.16
14.97
14.09
12.66
10.95
9.33
8.02
7.07
6.31
5.49
4.43
3.12
1.70
0.34
-0.83
-1.83
-2.74
-3.64
-4.58
-5.57
-6.57
-7.55
-8.48
-9.32
-10.00
-10.50
-10.79
-10.92
-10.97
-11.02
-11.10
-11.21
-11.32
-11.39
-11.45
-11.52
-11.69
-12.00
-12.50
-13.17
-13.96
-14.73
-15.29
-15.39
-14.88
-13.67
-11.81
-9.46
-6.85
-4.19
-1.73
0.39
2.07
3.28
4.09
4.59
4.90
5.05
5.05
4.85
4.43
3.85
3.22
2.67
2.30
2.15
2.20
2.38
2.62
2.84
2.96
2.92
2.72
2.38
1.96
1.52
1.09
0.68
0.34
0.09
-0.04
-0.13
-0.32
-0.79
-1.69
-2.97
-4.42
-5.73
-6.62
-6.94
-6.71
-6.07
-5.20
-4.24
-3.27
-2.33
-1.45
-0.68
-0.09
0.26
0.37
0.30
0.16
0.09
0.18
0.46
0.88
1.38
1.96
2.69
3.66
4.92
6.34
7.67
8.55
8.73
8.14
6.95
5.50
4.12
3.05
2.38
2.04
1.92
1.89
1.90
1.91
1.90
1.81
1.62
1.30
0.88
0.42
-0.00
-0.32
-0.53
-0.71
-1.02
-1.55
-2.34
-3.28
-4.18
-4.80
-4.96
-4.62
-3.80
-2.61
-1.18
0.34
1.83
3.14
4.13
4.69
4.74
4.27
3.34
2.05
0.55
-0.95
-2.25
-3.15
-3.54
-3.45
-2.99
-2.36
-1.70
-1.11
-0.64
-0.31
-0.13
-0.13
-0.30
-0.62
-1.00
-1.33
-1.53
-1.55
-1.42
-1.20
-0.99
-0.86
-0.87
-1.06
-1.39
-1.80
-2.17
-2.44
-2.55
-2.51
-2.40
-2.30
-2.26
-2.32
-2.50
-2.83
-3.30
-3.87
-4.44
-4.85
-4.94
-4.60
-3.81
-2.65
-1.26
0.19
1.52
2.58
3.26
3.54
3.46
3.16
2.79
2.47
2.27
2.19
2.21
2.32
2.53
2.81
3.13
3.43
3.63
3.72
3.71
3.63
3.52
3.39
3.24
3.13
3.07
3.08
3.11
3.07
2.88
2.50
1.96
1.40
0.96
0.76
0.80
1.00
1.18
1.19
0.93
0.37
-0.39
-1.24
-2.06
-2.76
-3.35
-3.85
-4.30
-4.65
-4.80
-4.65
-4.14
-3.30
-2.24
-1.11
-0.03
0.93
1.76
2.45
2.95
3.22
3.22
3.01
2.71
2.48
2.47
2.71
3.16
3.70
4.22
4.63
4.91
5.07
5.11
5.03
4.82
4.46
3.97
3.40
2.83
2.35
2.00
1.79
1.69
1.64
1.57
1.44
1.23
0.94
0.60
0.23
-0.17
-0.52
-0.79
-0.95
-1.01
-1.04
-1.09
-1.22
-1.46
-1.80
-2.23
-2.76
-3.39
-4.10
-4.81
-5.38
-5.66
-5.54
-5.00
-4.13
-3.09
-2.01
-1.00
-0.13
0.60
1.20
1.65
1.97
2.13
2.15
2.01
1.76
1.41
1.06
0.78
0.68
0.82
1.21
1.74
2.23
2.52
2.54
2.32
1.99
1.72
1.59
1.55
1.51
1.36
1.06
0.65
0.28
0.02
-0.10
-0.11
-0.11
-0.16
-0.28
-0.44
-0.59
-0.72
-0.84
-1.00
-1.25
-1.61
-2.07
-2.51
-2.83
-2.96
-2.89
-2.75
-2.72
-2.94
-3.41
-4.01
-4.50
-4.68
-4.43
-3.80
-2.91
-1.93
-0.95
-0.01
0.88
1.70
2.36
2.78
2.89
2.78
2.61
2.59
2.82
3.27
3.74
4.07
4.17
4.19
4.37
4.90
5.85
7.07
8.31
9.38
10.22
10.97
11.83
13.02
14.62
16.56
18.65
20.63
22.25
23.35
23.94
24.13
24.11
24.04
23.99
23.90
23.58
22.72
20.92
17.82
13.21
7.25
0.63
-5.56
-10.08
-11.98
-10.94
-7.42
-2.40
3.02
8.01
12.27
15.98
19.49
23.11
26.91
30.67
34.02
36.61
38.19
38.69
38.18
36.71
34.26
30.75
26.08
20.30
13.71
6.85
0.35
-5.28
-9.83
-13.42
-16.36
-18.97
-21.40
-23.62
-25.46
-26.77
-27.49
-27.69
-27.50
-27.06
-26.44
-25.69
-24.79
-23.78
-22.70
-21.70
-20.94
-20.58
-20.69
-21.17
-21.77
-22.18
-22.20
-21.81
-21.15
-20.45
-19.83
-19.25
-18.55
-17.55
-16.21
-14.58
-12.87
-11.20
-9.69
-8.31
-7.09
-6.03
-5.18
-4.60
-4.28
-4.12
-4.00
-3.80
-3.50
-3.17
-2.90
-2.78
-2.84
-2.99
-3.09
-2.98
-2.62
-2.06
-1.48
-1.04
-0.82
-0.77
-0.74
-0.60
-0.32
0.03
0.32
0.44
0.37
0.17
-0.12
-0.47
-0.95
-1.54
-2.19
-2.77
-3.19
-3.47
-3.74
-4.20
-4.93
-5.86
-6.72
-7.20
-7.11
-6.43
-5.30
-3.95
-2.57
-1.27
-0.11
0.84
1.50
1.81
1.71
1.24
0.51
-0.35
-1.21
-2.00
-2.63
-3.09
-3.37
-3.49
-3.52
-3.53
-3.60
-3.75
-3.97
-4.23
-4.48
-4.71
-4.89
-5.03
-5.11
-5.11
-5.02
-4.87
-4.72
-4.66
-4.79
-5.14
-5.66
-6.18
-6.54
-6.61
-6.40
-6.06
-5.80
-5.81
-6.16
-6.79
-7.53
-8.24
-8.83
-9.26
-9.48
-9.39
-8.90
-7.92
-6.51
-4.84
-3.18
-1.75
-0.65
0.13
0.66
1.02
1.20
1.20
0.99
0.63
0.24
-0.04
-0.10
0.08
0.46
0.98
1.58
2.21
2.84
3.40
3.83
4.08
4.14
4.06
3.91
3.78
3.75
3.83
4.00
4.22
4.47
4.77
5.21
5.95
7.14
8.85
11.02
13.46
15.84
17.82
19.15
19.63
19.28
18.25
16.82
15.39
14.37
14.07
14.63
15.91
17.55
19.06
19.94
19.82
18.49
15.96
12.33
7.82
2.70
-2.72
-8.16
-13.35
-18.03
-21.99
-25.04
-27.02
-27.91
-27.76
-26.77
-25.13
-23.02
-20.54
-17.74
-14.72
-11.60
-8.63
-5.97
-3.74
-1.90
-0.37
0.90
1.85
2.29
2.08
1.21
-0.13
-1.67
-3.14
-4.46
-5.69
-7.04
-8.70
-10.74
-13.04
-15.30
-17.13
-18.15
-18.09
-16.89
-14.69
-11.80
-8.60
-5.41
-2.44
0.22
2.54
4.52
6.11
7.23
7.82
7.86
7.38
6.49
5.35
4.11
2.91
1.82
0.86
-0.03
-0.91
-1.81
-2.71
-3.47
-3.92
-3.96
-3.60
-3.00
-2.44
-2.17
-2.35
-2.99
-3.96
-5.03
-6.01
-6.71
-7.08
-7.13
-7.01
-6.88
-6.90
-7.15
-7.60
-8.17
-8.78
-9.38
-10.00
-10.64
-11.27
-11.77
-12.07
-12.14
-12.06
-11.97
-11.94
-11.92
-11.72
-11.10
-9.88
-8.02
-5.67
-3.07
-0.54
1.72
3.57
4.96
5.86
6.26
6.18
5.67
4.89
4.05
3.33
2.90
2.76
2.82
2.95
3.01
2.94
2.77
2.55
2.38
2.28
2.28
2.32
2.32
2.21
1.90
1.38
0.68
-0.12
-0.91
-1.60
-2.15
-2.58
-2.99
-3.50
-4.26
-5.30
-6.59
-8.00
-9.36
-10.44
-11.03
-10.96
-10.08
-8.36
-5.85
-2.77
0.55
3.68
6.24
7.98
8.87
9.06
8.85
8.51
8.29
8.31
8.60
9.14
9.85
10.62
11.30
11.74
11.84
11.59
11.06
10.43
9.86
9.43
9.12
8.83
8.39
7.72
6.80
5.74
4.70
3.83
3.20
2.78
2.51
2.26
1.97
1.58
1.06
0.35
-0.60
-1.79
-3.17
-4.60
-5.89
-6.92
-7.66
-8.21
-8.71
-9.32
-10.10
-10.97
-11.76
-12.17
-11.94
-10.86
-8.92
-6.28
-3.29
-0.37
2.11
3.94
5.15
5.87
6.30
6.60
6.83
6.97
7.03
7.01
6.92
6.77
6.52
6.15
5.70
5.26
4.92
4.78
4.84
5.03
5.26
5.42
5.44
5.30
4.99
4.53
3.98
3.45
3.02
2.76
2.70
2.81
3.05
3.31
3.53
3.62
3.51
3.21
2.77
2.29
1.85
1.49
1.20
0.90
0.53
0.04
-0.57
-1.28
-2.02
-2.71
-3.31
-3.81
-4.27
-4.80
-5.52
-6.50
-7.72
-9.05
-10.26
-11.06
-11.20
-10.48
-8.89
-6.65
-4.11
-1.72
0.22
1.60
2.53
3.20
3.79
4.34
4.75
4.90
4.76
4.40
4.02
3.79
3.80
4.02
4.34
4.66
4.91
5.10
5.27
5.42
5.52
5.50
5.31
4.95
4.47
3.99
3.60
3.33
3.17
3.07
2.97
2.83
2.60
2.28
1.82
1.21
0.50
-0.24
-0.87
-1.28
-1.42
-1.34
-1.17
-1.08
-1.24
-1.71
-2.46
-3.36
-4.23
-4.92
-5.34
-5.48
-5.38
-5.04
-4.44
-3.50
-2.12
-0.29
1.90
4.23
6.43
8.24
9.50
10.13
10.08
9.35
7.98
6.13
4.12
2.42
1.51
1.70
2.94
4.87
6.94
8.67
9.80
10.35
10.44
10.22
9.78
9.15
8.49
8.07
8.26
9.37
11.51
14.47
17.74
20.67
22.75
23.76
23.91
23.73
23.80
24.54
25.96
27.74
29.37
30.40
30.65
30.19
29.16
27.61
25.40
22.28
18.11
13.07
7.66
2.54
-1.78
-5.12
-7.68
-9.91
-12.25
-14.92
-17.81
-20.59
-22.81
-24.12
-24.36
-23.64
-22.34
-20.98
-20.02
-19.72
-20.00
-20.53
-20.89
-20.76
-20.11
-19.11
-17.96
-16.71
-15.25
-13.33
-10.74
-7.48
-3.76
0.01
3.47
6.31
8.39
9.66
10.17
9.99
9.20
7.98
6.55
5.22
4.27
3.86
3.95
4.25
4.39
4.00
2.92
1.24
-0.72
-2.63
-4.22
-5.43
-6.38
-7.28
-8.34
-9.68
-11.33
-13.21
-15.13
-16.90
-18.25
-19.00
-19.09
-18.58
-17.66
-16.62
-15.70
-15.11
-14.97
-15.31
-16.07
-17.16
-18.44
-19.79
-21.10
-22.33
-23.48
-24.55
-25.50
-26.33
-27.01
-27.58
-28.08
-28.52
-28.91
-29.26
-29.60
-30.01
-30.58
-31.31
-32.13
-32.88
-33.40
-33.70
-33.96
-34.43
-35.23
-36.21
-36.92
-36.80
-35.39
-32.55
-28.52
-23.78
-18.92
-14.48
-10.92
-8.61
-7.83
-8.66
-10.86
-13.87
-16.98
-19.56
-21.33
-22.48
-23.45
-24.70
-26.41
-28.33
-29.87
-30.26
-28.81
-25.12
-19.22
-11.55
-2.90
5.82
13.75
20.28
25.09
28.20
29.80
30.14
29.55
28.33
26.77
25.17
23.74
22.58
21.69
20.99
20.42
19.95
19.61
19.44
19.51
19.91
20.71
21.93
23.53
25.34
27.16
28.69
29.73
30.15
29.96
29.25
28.16
26.79
25.28
23.70
22.12
20.57
19.02
17.42
15.65
13.67
11.48
9.21
7.05
5.25
4.05
3.60
3.91
4.83
6.15
7.62
9.06
10.39
11.57
12.63
13.55
14.28
14.74
14.89
14.72
14.29
13.72
13.12
12.59
12.18
11.90
11.73
11.62
11.52
11.43
11.31
11.11
10.75
10.17
9.38
8.47
7.63
7.01
6.70
6.60
6.49
6.16
5.48
4.48
3.30
2.15
1.21
0.58
0.22
0.03
-0.18
-0.63
-1.50
-2.84
-4.50
-6.18
-7.48
-8.06
-7.74
-6.57
-4.82
-2.78
-0.74
1.15
2.76
4.07
5.01
5.55
5.70
5.49
5.05
4.52
4.01
3.63
3.40
3.32
3.32
3.31
3.16
2.82
2.28
1.66
1.17
0.95
1.08
1.42
1.79
1.96
1.86
1.51
1.08
0.68
0.37
0.14
-0.11
-0.44
-0.91
-1.54
-2.29
-3.12
-3.98
-4.86
-5.78
-6.88
-8.29
-10.09
-12.21
-14.41
-16.30
-17.45
-17.56
-16.47
-14.29
-11.27
-7.76
-4.16
-0.76
2.26
4.83
7.00
8.83
10.34
11.52
12.34
12.82
13.07
13.30
13.65
14.18
14.81
15.33
15.58
15.47
15.09
14.59
14.13
13.77
13.49
13.19
12.77
12.19
11.43
10.54
9.57
8.60
7.68
6.86
6.15
5.54
4.97
4.40
3.77
3.05
2.23
1.34
0.42
-0.47
-1.31
-2.16
-3.06
-4.06
-5.11
-6.05
-6.68
-6.80
-6.33
-5.32
-3.94
-2.38
-0.77
0.81
2.33
3.77
5.09
6.19
6.95
7.29
7.21
6.78
6.16
5.52
4.98
4.60
4.37
4.25
4.24
4.37
4.64
5.05
5.49
5.84
5.98
5.86
5.49
4.94
4.31
3.65
3.01
2.43
1.91
1.48
1.14
0.94
0.88
0.93
1.01
0.95
0.60
-0.12
-1.17
-2.40
-3.54
-4.38
-4.75
-4.57
-3.90
-2.81
-1.41
0.16
1.74
3.14
4.20
4.84
5.09
5.09
5.01
4.98
5.04
5.15
5.21
5.16
5.05
4.94
4.91
4.98
5.11
5.22
5.23
5.12
4.88
4.52
4.06
3.50
2.89
2.28
1.73
1.26
0.85
0.39
-0.16
-0.85
-1.64
-2.41
-3.07
-3.52
-3.81
-4.00
-4.25
-4.69
-5.38
-6.30
-7.33
-8.27
-8.89
-9.01
-8.53
-7.47
-5.94
-4.16
-2.35
-0.69
0.70
1.81
2.62
3.14
3.38
3.38
3.18
2.84
2.44
2.02
1.57
1.08
0.56
0.05
-0.40
-0.74
-0.97
-1.16
-1.35
-1.62
-1.96
-2.31
-2.57
-2.64
-2.49
-2.15
-1.70
-1.26
-0.92
-0.74
-0.71
-0.82
-1.01
-1.19
-1.30
-1.27
-1.11
-0.88
-0.73
-0.80
-1.16
-1.80
-2.59
-3.40
-4.10
-4.66
-5.08
-5.32
-5.29
-4.91
-4.13
-3.01
-1.69
-0.37
0.82
1.82
2.66
3.39
4.02
4.52
4.83
4.93
4.85
4.64
4.41
4.20
4.07
4.05
4.14
4.32
4.58
4.87
5.14
5.34
5.45
5.45
5.33
5.07
4.64
4.07
3.42
2.76
2.21
1.85
1.69
1.68
1.68
1.54
1.11
0.35
-0.68
-1.80
-2.81
-3.54
-3.95
-4.13
-4.26
-4.52
-4.98
-5.65
-6.41
-7.12
-7.64
-7.86
-7.68
-7.04
-5.95
-4.48
-2.84
-1.27
-0.02
0.76
1.07
1.05
0.90
0.78
0.79
0.92
1.08
1.19
1.20
1.12
1.01
0.93
0.92
0.94
0.97
0.98
0.95
0.89
0.80
0.69
0.54
0.35
0.12
-0.13
-0.37
-0.59
-0.80
-1.04
-1.34
-1.69
-2.05
-2.36
-2.55
-2.58
-2.51
-2.42
-2.44
-2.64
-3.04
-3.53
-3.99
-4.27
-4.29
-4.02
-3.49
-2.77
-1.93
-1.09
-0.35
0.21
0.58
0.82
1.04
1.33
1.68
2.02
2.25
2.27
2.10
1.83
1.59
1.43
1.35
1.31
1.26
1.18
1.11
1.08
1.11
1.16
1.15
1.03
0.76
0.35
-0.17
-0.72
-1.22
-1.61
-1.87
-2.02
-2.13
-2.26
-2.42
-2.61
-2.76
-2.84
-2.84
-2.85
-2.95
-3.26
-3.82
-4.60
-5.51
-6.39
-7.08
-7.46
-7.46
-7.07
-6.36
-5.39
-4.22
-2.92
-1.55
-0.23
0.91
1.74
2.20
2.33
2.24
2.11
2.07
2.21
2.52
2.95
3.41
3.80
4.03
4.03
3.77
3.33
2.84
2.43
2.18
2.08
2.00
1.82
1.46
0.93
0.31
-0.30
-0.80
-1.16
-1.38
-1.50
-1.59
-1.73
-1.95
-2.26
-2.60
-2.86
-2.98
-2.99
-2.98
-3.06
-3.32
-3.72
-4.19
-4.68
-5.14
-5.57
-5.93
-6.11
-5.96
-5.38
-4.35
-2.99
-1.51
-0.11
1.05
1.91
2.44
2.68
2.67
2.53
2.36
2.29
2.36
2.57
2.88
3.24
3.63
4.13
4.76
5.55
6.43
7.28
7.98
8.41
8.56
8.48
8.29
8.10
7.99
7.99
8.06
8.16
8.26
8.38
8.53
8.71
8.87
8.92
8.75
8.28
7.54
6.60
5.59
4.64
3.83
3.17
2.61
2.08
1.45
0.58
-0.60
-2.15
-3.98
-5.94
-7.82
-9.46
-10.71
-11.50
-11.77
-11.48
-10.61
-9.24
-7.52
-5.69
-3.98
-2.58
-1.53
-0.79
-0.25
0.20
0.63
1.08
1.56
2.05
2.57
3.08
3.53
3.86
3.98
3.81
3.34
2.60
1.67
0.62
-0.48
-1.61
-2.78
-3.94
-5.04
-5.93
-6.54
-6.88
-7.12
-7.47
-8.13
-9.06
-10.07
-10.79
-10.93
-10.41
-9.39
-8.17
-7.01
-5.98
-4.96
-3.77
-2.35
-0.79
0.65
1.74
2.32
2.37
2.02
1.41
0.68
-0.07
-0.77
-1.36
-1.80
-2.11
-2.28
-2.28
-2.07
-1.61
-0.93
-0.12
0.68
1.36
1.87
2.24
2.55
2.80
2.92
2.80
2.40
1.73
0.93
0.14
-0.54
-1.12
-1.70
-2.34
-3.07
-3.83
-4.50
-5.05
-5.49
-5.93
-6.47
-7.18
-8.07
-9.02
-9.91
-10.57
-10.84
-10.60
-9.81
-8.52
-6.88
-5.14
-3.53
-2.23
-1.32
-0.76
-0.49
-0.42
-0.47
-0.60
-0.75
-0.88
-0.98
-1.02
-1.00
-0.93
-0.82
-0.69
-0.56
-0.48
-0.54
-0.81
-1.32
-2.03
-2.74
-3.16
-3.02
-2.15
-0.59
1.40
3.45
5.25
6.60
7.56
8.30
9.10
10.17
11.65
13.59
15.95
18.56
21.20
23.55
25.36
26.52
27.17
27.69
28.61
30.41
33.33
37.29
41.86
46.44
50.46
53.62
55.91
57.51
58.69
59.55
60.06
60.01
59.16
57.29
54.31
50.22
45.16
39.36
33.13
26.77
20.54
14.58
8.95
3.63
-1.35
-5.90
-9.91
-13.32
-16.18
-18.63
-20.86
-22.98
-25.03
-26.92
-28.55
-29.82
-30.72
-31.34
-31.82
-32.28
-32.75
-33.10
-33.12
-32.58
-31.37
-29.52
-27.20
-24.65
-22.05
-19.48
-16.98
-14.54
-12.25
-10.23
-8.63
-7.52
-6.83
-6.40
-6.02
-5.53
-4.85
-3.99
-3.05
-2.10
-1.26
-0.62
-0.22
-0.13
-0.35
-0.82
-1.43
-2.05
-2.60
-3.08
-3.56
-4.16
-5.00
-6.10
-7.41
-8.84
-10.27
-11.61
-12.81
-13.86
-14.80
-15.66
-16.50
-17.39
-18.41
-19.59
-20.90
-22.17
-23.17
-23.62
-23.35
-22.31
-20.62
-18.52
-16.25
-14.02
-11.96
-10.14
-8.61
-7.39
-6.48
-5.81
-5.28
-4.77
-4.20
-3.58
-2.91
-2.23
-1.53
-0.75
0.11
1.02
1.85
2.39
2.45
1.93
0.84
-0.64
-2.26
-3.73
-4.87
-5.60
-5.96
-6.07
-6.02
-5.85
-5.56
-5.13
-4.63
-4.19
-3.97
-4.10
-4.59
-5.36
-6.25
-7.09
-7.81
-8.37
-8.73
-8.81
-8.50
-7.69
-6.39
-4.78
-3.16
-1.79
-0.87
-0.37
-0.12
0.07
0.31
0.57
0.71
0.61
0.26
-0.25
-0.73
-1.00
-0.98
-0.73
-0.37
-0.06
0.08
0.04
-0.16
-0.46
-0.85
-1.33
-1.89
-2.52
-3.15
-3.70
-4.16
-4.55
-4.94
-5.34
-5.75
-6.12
-6.41
-6.63
-6.88
-7.25
-7.75
-8.33
-8.90
-9.33
-9.56
-9.57
-9.32
-8.71
-7.62
-5.97
-3.81
-1.34
1.13
3.25
4.78
5.66
6.01
6.02
5.92
5.81
5.70
5.54
5.28
4.94
4.64
4.56
4.77
5.23
5.74
6.08
6.11
5.84
5.43
5.06
4.82
4.61
4.29
3.72
2.93
2.10
1.45
1.09
0.99
0.97
0.86
0.57
0.14
-0.33
-0.77
-1.21
-1.72
-2.37
-3.14
-3.97
-4.79
-5.54
-6.19
-6.72
-7.04
-7.02
-6.53
-5.52
-4.07
-2.39
-0.76
0.60
1.56
2.12
2.42
2.60
2.78
3.01
3.24
3.37
3.30
2.99
2.49
1.95
1.53
1.37
1.50
1.89
2.42
3.00
3.51
3.88
4.00
3.80
3.24
2.35
1.30
0.31
-0.43
-0.83
-0.97
-1.02
-1.18
-1.54
-2.06
-2.61
-3.07
-3.40
-3.64
-3.91
-4.31
-4.88
-5.63
-6.51
-7.45
-8.37
-9.14
-9.56
-9.45
-8.66
-7.19
-5.17
-2.88
-0.62
1.38
2.98
4.16
5.04
5.75
6.44
7.25
8.21
9.32
10.48
11.58
12.48
13.06
13.27
13.06
12.48
11.64
10.70
9.84
9.15
8.58
7.95
7.06
5.79
4.21
2.52
0.98
-0.24
-1.13
-1.79
-2.37
-3.05
-3.89
-4.96
-6.23
-7.71
-9.36
-11.12
-12.93
-14.72
-16.41
-17.90
-19.06
-19.72
-19.72
-18.95
-17.45
-15.31
-12.72
-9.88
-6.98
-4.24
-1.85
0.01
1.22
1.80
1.87
1.63
1.32
1.15
1.21
1.57
2.19
3.01
3.90
4.71
5.28
5.55
5.49
5.22
4.85
4.48
4.13
3.78
3.39
2.94
2.45
1.97
1.53
1.09
0.65
0.18
-0.34
-0.89
-1.48
-2.10
-2.73
-3.37
-4.01
-4.70
-5.49
-6.46
-7.56
-8.62
-9.34
-9.39
-8.53
-6.77
-4.35
-1.69
0.81
2.88
4.41
5.49
6.26
6.82
7.21
7.38
7.25
6.83
6.17
5.44
4.80
4.37
4.15
4.09
4.07
4.04
4.00
3.97
3.95
3.90
3.75
3.44
2.96
2.41
1.89
1.44
1.05
0.65
0.22
-0.23
-0.66
-1.05
-1.40
-1.81
-2.33
-3.01
-3.79
-4.56
-5.21
-5.67
-5.92
-6.05
-6.21
-6.60
-7.35
-8.45
-9.67
-10.64
-10.97
-10.37
-8.80
-6.51
-3.87
-1.30
0.90
2.56
3.67
4.32
4.60
4.65
4.56
4.40
4.23
4.04
3.84
3.62
3.43
3.32
3.32
3.43
3.58
3.66
3.55
3.22
2.75
2.28
1.97
1.91
2.03
2.18
2.13
1.74
1.00
0.03
-0.91
-1.63
-2.03
-2.16
-2.16
-2.17
-2.30
-2.57
-2.93
-3.31
-3.63
-3.85
-3.96
-4.01
-4.07
-4.27
-4.70
-5.42
-6.43
-7.56
-8.61
-9.27
-9.28
-8.46
-6.78
-4.41
-1.68
1.00
3.29
4.99
6.08
6.70
7.00
7.06
6.91
6.52
5.91
5.18
4.51
4.06
3.94
4.12
4.40
4.60
4.56
4.28
3.86
3.44
3.10
2.79
2.37
1.71
0.77
-0.29
-1.25
-1.85
-1.94
-1.56
-0.90
-0.17
0.42
0.83
1.13
1.48
2.05
2.91
4.02
5.22
6.37
7.34
8.12
8.79
9.47
10.23
11.12
12.16
13.43
15.12
17.53
20.94
25.42
30.78
36.54
42.04
46.60
49.65
50.82
49.95
47.10
42.54
36.64
29.80
22.36
14.58
6.59
-1.46
-9.37
-16.78
-23.26
-28.38
-31.89
-33.74
-34.11
-33.29
-31.66
-29.55
-27.21
-24.85
-22.61
-20.61
-18.96
-17.67
-16.70
-15.95
-15.29
-14.65
-14.02
-13.44
-12.98
-12.64
-12.37
-12.10
-11.80
-11.51
-11.36
-11.52
-12.05
-12.91
-13.86
-14.57
-14.66
-13.83
-11.97
-9.19
-5.82
-2.32
0.84
3.32
4.94
5.73
5.89
5.66
5.27
4.92
4.71
4.67
4.81
5.09
5.46
5.85
6.21
6.50
6.72
6.86
6.97
7.06
7.15
7.21
7.17
6.94
6.48
5.80
4.96
4.05
3.14
2.26
1.39
0.51
-0.40
-1.32
-2.22
-3.08
-3.91
-4.74
-5.59
-6.48
-7.46
-8.56
-9.83
-11.25
-12.68
-13.85
-14.44
-14.22
-13.11
-11.25
-8.90
-6.37
-3.92
-1.76
0.01
1.33
2.17
2.56
2.57
2.28
1.78
1.12
0.38
-0.35
-0.96
-1.33
-1.43
-1.33
-1.17
-1.06
-1.03
-1.04
-1.01
-0.91
-0.82
-0.81
-0.99
-1.40
-2.02
-2.79
-3.63
-4.48
-5.24
-5.82
-6.19
-6.38
-6.48
-6.58
-6.72
-6.84
-6.84
-6.67
-6.37
-6.06
-5.87
-5.92
-6.20
-6.64
-7.10
-7.39
-7.32
-6.70
-5.42
-3.47
-1.01
1.71
4.37
6.72
8.65
10.15
11.29
12.12
12.66
12.89
12.77
12.34
11.64
10.81
9.95
9.14
8.38
7.65
6.88
6.04
5.16
4.28
3.47
2.75
2.12
1.55
0.97
0.33
-0.39
-1.16
-1.93
-2.62
-3.17
-3.55
-3.80
-3.98
-4.15
-4.36
-4.63
-4.95
-5.32
-5.72
-6.13
-6.51
-6.83
-7.03
-7.12
-7.14
-7.20
-7.41
-7.87
-8.54
-9.28
-9.82
-9.89
-9.25
-7.81
-5.67
-3.06
-0.30
2.32
4.57
6.33
7.55
8.23
8.37
8.00
7.23
6.25
5.36
4.86
4.95
5.63
6.71
7.86
8.80
9.43
9.81
10.14
10.56
11.10
11.66
12.08
12.26
12.21
12.04
11.87
11.75
11.65
11.45
11.06
10.49
9.83
9.16
8.55
7.98
7.35
6.60
5.72
4.80
3.97
3.30
2.75
2.20
1.47
0.39
-1.07
-2.81
-4.63
-6.18
-7.11
-7.14
-6.10
-4.03
-1.16
2.16
5.54
8.69
11.40
13.59
15.21
16.30
16.97
17.43
17.97
18.82
20.07
21.66
23.40
25.07
26.65
28.25
30.07
32.21
34.59
36.92
38.83
40.06
40.53
40.35
39.63
38.42
36.64
34.15
30.86
26.81
22.19
17.24
12.16
7.06
2.02
-2.96
-7.76
-12.24
-16.27
-19.75
-22.77
-25.45
-27.97
-30.44
-32.82
-35.03
-36.94
-38.52
-39.85
-41.02
-42.04
-42.76
-42.84
-41.90
-39.64
-36.03
-31.34
-26.10
-20.94
-16.44
-12.97
-10.64
-9.29
-8.63
-8.34
-8.17
-7.95
-7.64
-7.23
-6.69
-6.00
-5.13
-4.10
-2.98
-1.86
-0.84
-0.00
0.62
1.05
1.29
1.37
1.30
1.12
0.86
0.59
0.35
0.16
-0.02
-0.25
-0.65
-1.23
-1.93
-2.60
-3.07
-3.23
-3.14
-3.01
-3.09
-3.54
-4.34
-5.36
-6.37
-7.22
-7.85
-8.35
-8.82
-9.35
-10.01
-10.82
-11.81
-12.96
-14.20
-15.31
-15.97
-15.81
-14.58
-12.23
-9.01
-5.38
-1.91
0.95
2.98
4.19
4.83
5.16
5.39
5.59
5.73
5.79
5.78
5.81
5.98
6.32
6.78
7.25
7.58
7.71
7.65
7.45
7.18
6.91
6.66
6.41
6.14
5.82
5.44
4.98
4.49
4.00
3.57
3.21
2.90
2.53
2.04
1.43
0.75
0.08
-0.50
-1.01
-1.51
-2.06
-2.70
-3.37
-4.00
-4.51
-4.94
-5.42
-6.12
-7.14
-8.45
-9.79
-10.80
-11.10
-10.43
-8.74
-6.20
-3.15
0.03
2.97
5.42
7.25
8.37
8.80
8.64
8.08
7.39
6.84
6.61
6.73
7.11
7.56
7.91
8.07
8.06
7.97
7.89
7.88
7.89
7.86
7.69
7.32
6.75
6.02
5.25
4.52
3.92
3.45
3.06
2.70
2.32
1.93
1.56
1.22
0.85
0.36
-0.37
-1.37
-2.56
-3.83
-4.98
-5.92
-6.63
-7.18
-7.71
-8.35
-9.18
-10.23
-11.48
-12.82
-14.09
-15.04
-15.43
-15.02
-13.68
-11.45
-8.55
-5.34
-2.23
0.44
2.50
3.91
4.81
5.34
5.62
5.68
5.49
5.04
4.43
3.86
3.58
3.71
4.20
4.86
5.43
5.72
5.74
5.59
5.46
5.41
5.40
5.30
4.97
4.38
3.62
2.82
2.09
1.51
1.05
0.68
0.32
-0.08
-0.57
-1.15
-1.78
-2.42
-3.00
-3.49
-3.89
-4.25
-4.62
-5.10
-5.76
-6.66
-7.82
-9.14
-10.41
-11.30
-11.41
-10.50
-8.51
-5.70
-2.52
0.51
3.00
4.76
5.86
6.49
6.84
7.03
7.07
6.92
6.57
6.07
5.50
4.98
4.60
4.40
4.33
4.34
4.39
4.48
4.62
4.82
5.02
5.09
4.89
4.32
3.40
2.30
1.26
0.50
0.10
0.04
0.14
0.21
0.10
-0.28
-0.92
-1.76
-2.74
-3.80
-4.93
-6.12
-7.40
-8.78
-10.26
-11.84
-13.46
-14.98
-16.22
-16.93
-16.87
-15.89
-13.97
-11.33
-8.34
-5.45
-3.06
-1.42
-0.64
-0.61
-1.18
-2.11
-3.21
-4.30
-5.32
-6.28
-7.24
-8.23
-9.28
-10.33
-11.31
-12.14
-12.78
-13.25
-13.64
-14.04
-14.54
-15.22
-16.11
-17.19
-18.47
-19.93
-21.57
-23.31
-24.99
-26.43
-27.46
-28.04
-28.27
-28.34
-28.37
-28.35
-28.10
-27.42
-26.21
-24.54
-22.58
-20.52
-18.45
-16.35
-14.26
-12.20
-10.26
-8.46
-6.60
-4.43
-1.63
1.87
5.87
9.97
13.73
16.86
19.35
21.38
23.19
24.89
26.48
27.79
28.66
29.02
28.98
28.78
28.66
28.77
29.06
29.33
29.37
29.09
28.57
28.01
27.59
27.32
27.02
26.41
25.26
23.52
21.37
19.11
17.06
15.39
14.07
12.95
11.80
10.45
8.86
7.11
5.37
3.78
2.44
1.31
0.35
-0.52
-1.35
-2.21
-3.16
-4.29
-5.57
-6.88
-7.93
-8.39
-8.01
-6.79
-4.93
-2.76
-0.57
1.47
3.37
5.14
6.75
8.05
8.88
9.13
8.85
8.25
7.58
7.06
6.82
6.87
7.15
7.59
8.11
8.61
9.00
9.19
9.18
9.00
8.73
8.48
8.27
8.07
7.80
7.41
6.87
6.18
5.41
4.62
3.88
3.23
2.71
2.30
1.94
1.54
1.01
0.36
-0.38
-1.07
-1.60
-1.91
-2.08
-2.26
-2.68
-3.49
-4.69
-6.12
-7.45
-8.32
-8.48
-7.87
-6.61
-4.98
-3.22
-1.48
0.21
1.87
3.47
4.91
6.04
6.74
7.00
6.94
6.71
6.46
6.25
6.12
6.06
6.08
6.21
6.40
6.58
6.65
6.56
6.32
6.04
5.80
5.67
5.60
5.48
5.23
4.82
4.31
3.80
3.40
3.10
2.84
2.51
2.04
1.44
0.82
0.24
-0.24
-0.71
-1.23
-1.90
-2.66
-3.42
-4.06
-4.56
-4.96
-5.44
-6.17
-7.25
-8.64
-10.17
-11.54
-12.41
-12.52
-11.72
-10.06
-7.72
-5.03
-2.33
0.11
2.10
3.62
4.71
5.51
6.10
6.53
6.82
6.94
6.89
6.71
6.47
6.28
6.22
6.33
6.59
6.94
7.31
7.60
7.71
7.60
7.27
6.78
6.25
5.79
5.48
5.31
5.24
5.17
5.01
4.69
4.21
3.58
2.87
2.18
1.56
1.04
0.61
0.22
-0.19
-0.68
-1.26
-1.93
-2.63
-3.31
-3.95
-4.54
-5.13
-5.77
-6.53
-7.45
-8.54
-9.80
-11.08
-12.14
-12.63
-12.26
-10.92
-8.78
-6.25
-3.85
-1.92
-0.58
0.39
1.27
2.27
3.40
4.46
5.23
5.58
5.57
5.36
5.12
4.94
4.83
4.77
4.75
4.79
4.92
5.16
5.48
5.78
5.98
6.01
5.84
5.49
5.04
4.56
4.11
3.71
3.33
2.95
2.56
2.20
1.91
1.74
1.63
1.48
1.18
0.67
-0.05
-0.92
-1.88
-2.85
-3.77
-4.56
-5.13
-5.41
-5.45
-5.39
-5.50
-5.99
-6.96
-8.29
-9.71
-10.88
-11.51
-11.45
-10.65
-9.20
-7.22
-4.89
-2.45
-0.18
1.64
2.86
3.45
3.57
3.42
3.22
3.08
3.04
3.05
3.08
3.12
3.21
3.35
3.55
3.76
3.94
4.06
4.14
4.19
4.23
4.22
4.13
3.89
3.50
3.01
2.52
2.14
1.93
1.87
1.87
1.82
1.62
1.26
0.76
0.18
-0.45
-1.13
-1.87
-2.67
-3.46
-4.16
-4.74
-5.24
-5.81
-6.58
-7.59
-8.69
-9.65
-10.15
-10.01
-9.22
-7.92
-6.35
-4.75
-3.29
-2.02
-0.96
-0.08
0.67
1.31
1.84
2.22
2.42
2.42
2.26
2.06
1.95
2.01
2.28
2.70
3.18
3.61
3.94
4.12
4.14
4.02
3.78
3.47
3.13
2.78
2.46
2.16
1.86
1.53
1.16
0.71
0.15
-0.52
-1.27
-2.07
-2.86
-3.62
-4.31
-4.91
-5.42
-5.86
-6.28
-6.78
-7.44
-8.33
-9.40
-10.51
-11.40
-11.83
-11.59
-10.63
-9.07
-7.14
-5.10
-3.16
-1.45
-0.00
1.22
2.25
3.08
3.68
4.04
4.16
4.08
3.91
3.75
3.69
3.79
4.02
4.31
4.55
4.62
4.52
4.28
4.01
3.83
3.77
3.80
3.79
3.62
3.25
2.73
2.19
1.73
1.41
1.20
0.97
0.63
0.13
-0.49
-1.16
-1.78
-2.30
-2.72
-3.06
-3.38
-3.72
-4.15
-4.74
-5.56
-6.61
-7.76
-8.76
-9.34
-9.22
-8.30
-6.66
-4.55
-2.30
-0.21
1.52
2.80
3.67
4.20
4.52
4.74
4.93
5.15
5.35
5.51
5.55
5.44
5.23
5.00
4.85
4.86
5.06
5.38
5.69
5.84
5.69
5.23
4.55
3.81
3.19
2.77
2.53
2.40
2.25
2.00
1.66
1.25
0.83
0.45
0.12
-0.18
-0.50
-0.83
-1.19
-1.53
-1.83
-2.10
-2.41
-2.87
-3.59
-4.58
-5.73
-6.89
-7.88
-8.61
-9.03
-9.12
-8.86
-8.19
-7.05
-5.47
-3.57
-1.56
0.30
1.80
2.83
3.39
3.57
3.52
3.39
3.28
3.26
3.30
3.39
3.48
3.58
3.69
3.83
3.99
4.19
4.38
4.57
4.72
4.81
4.84
4.77
4.61
4.36
4.02
3.61
3.16
2.70
2.27
1.89
1.58
1.31
1.07
0.83
0.60
0.38
0.16
-0.10
-0.46
-0.98
-1.67
-2.48
-3.32
-4.12
-4.87
-5.60
-6.38
-7.24
-8.15
-9.05
-9.84
-10.40
-10.59
-10.26
-9.34
-7.82
-5.87
-3.74
-1.74
-0.10
1.13
2.02
2.73
3.38
3.94
4.28
4.27
3.90
3.33
2.82
2.62
2.84
3.38
4.00
4.49
4.74
4.80
4.85
5.01
5.27
5.51
5.55
5.27
4.70
3.98
3.29
2.76
2.41
2.19
1.97
1.69
1.36
1.02
0.71
0.46
0.23
-0.07
-0.48
-1.01
-1.62
-2.21
-2.70
-3.03
-3.23
-3.41
-3.74
-4.34
-5.26
-6.43
-7.66
-8.75
-9.47
-9.65
-9.20
-8.14
-6.54
-4.59
-2.52
-0.54
1.17
2.53
3.57
4.32
4.80
5.05
5.07
4.89
4.59
4.25
3.95
3.74
3.68
3.79
4.09
4.55
5.06
5.49
5.71
5.67
5.41
5.04
4.66
4.31
3.99
3.64
3.22
2.74
2.26
1.82
1.43
1.05
0.61
0.05
-0.58
-1.20
-1.70
-2.08
-2.38
-2.73
-3.24
-3.91
-4.64
-5.29
-5.74
-6.00
-6.17
-6.44
-6.94
-7.73
-8.71
-9.70
-10.44
-10.68
-10.25
-9.11
-7.40
-5.35
-3.28
-1.42
0.07
1.17
1.94
2.42
2.64
2.63
2.45
2.23
2.11
2.18
2.48
2.95
3.48
3.96
4.31
4.46
4.40
4.13
3.73
3.31
3.02
2.93
3.04
3.21
3.26
3.06
2.61
2.00
1.40
0.95
0.68
0.56
0.50
0.39
0.16
-0.22
-0.73
-1.30
-1.86
-2.36
-2.76
-3.10
-3.42
-3.85
-4.47
-5.33
-6.36
-7.36
-8.10
-8.33
-7.94
-6.93
-5.44
-3.68
-1.84
-0.09
1.48
2.75
3.65
4.11
4.16
3.90
3.50
3.12
2.87
2.80
2.87
3.07
3.33
3.64
3.96
4.24
4.41
4.44
4.33
4.14
3.94
3.80
3.68
3.49
3.15
2.60
1.86
1.05
0.28
-0.35
-0.86
-1.27
-1.65
-2.02
-2.38
-2.73
-3.07
-3.41
-3.77
-4.20
-4.71
-5.35
-6.11
-6.97
-7.88
-8.80
-9.66
-10.43
-11.03
-11.38
-11.31
-10.68
-9.44
-7.65
-5.52
-3.34
-1.33
0.36
1.68
2.62
3.21
3.49
3.52
3.43
3.34
3.36
3.54
3.86
4.24
4.62
4.94
5.14
5.18
5.03
4.71
4.33
4.02
3.90
4.03
4.32
4.62
4.74
4.61
4.21
3.65
3.01
2.38
1.78
1.22
0.73
0.34
0.05
-0.17
-0.42
-0.80
-1.37
-2.10
-2.90
-3.68
-4.36
-4.93
-5.42
-5.92
-6.51
-7.22
-8.01
-8.73
-9.17
-9.11
-8.38
-6.97
-5.03
-2.89
-0.89
0.69
1.74
2.30
2.54
2.60
2.60
2.56
2.50
2.43
2.42
2.58
2.93
3.42
3.94
4.36
4.61
4.74
4.82
4.98
5.23
5.52
5.72
5.70
5.37
4.72
3.84
2.85
1.90
1.11
0.54
0.20
0.08
0.13
0.24
0.32
0.23
-0.10
-0.66
-1.37
-2.09
-2.72
-3.28
-3.84
-4.50
-5.36
-6.40
-7.51
-8.53
-9.23
-9.45
-9.07
-8.08
-6.60
-4.82
-3.00
-1.35
0.03
1.10
1.92
2.50
2.81
2.85
2.64
2.28
1.93
1.71
1.68
1.79
1.94
2.07
2.18
2.32
2.58
2.97
3.42
3.80
3.96
3.82
3.40
2.84
2.31
1.94
1.76
1.68
1.55
1.20
0.57
-0.29
-1.23
-2.08
-2.73
-3.14
-3.36
-3.46
-3.55
-3.70
-4.01
-4.53
-5.24
-6.07
-6.84
-7.33
-7.34
-6.76
-5.58
-3.94
-2.04
-0.15
1.47
2.65
3.32
3.57
3.57
3.52
3.53
3.59
3.61
3.50
3.24
2.92
2.68
2.65
2.85
3.18
3.52
3.76
3.85
3.85
3.79
3.72
3.64
3.49
3.24
2.87
2.43
2.01
1.67
1.39
1.13
0.78
0.29
-0.36
-1.12
-1.88
-2.55
-3.09
-3.53
-3.95
-4.45
-5.11
-5.94
-6.88
-7.82
-8.66
-9.28
-9.61
-9.58
-9.16
-8.32
-7.07
-5.47
-3.67
-1.87
-0.31
0.84
1.55
1.93
2.19
2.54
3.10
3.85
4.65
5.31
5.72
5.86
5.78
5.59
5.38
5.23
5.18
5.23
5.32
5.36
5.28
5.03
4.66
4.25
3.90
3.64
3.42
3.17
2.81
2.33
1.77
1.16
0.53
-0.08
-0.63
-1.05
-1.28
-1.33
-1.26
-1.20
-1.26
-1.49
-1.82
-2.16
-2.42
-2.58
-2.71
-2.92
-3.31
-3.94
-4.79
-5.82
-6.89
-7.87
-8.55
-8.77
-8.38
-7.38
-5.84
-3.97
-1.99
-0.15
1.38
2.51
3.23
3.59
3.68
3.60
3.49
3.42
3.46
3.62
3.88
4.19
4.49
4.73
4.91
5.02
5.05
5.01
4.88
4.66
4.38
4.13
4.01
4.03
4.16
4.27
4.22
3.98
3.59
3.20
2.94
2.84
2.82
2.73
2.47
2.02
1.44
0.83
0.23
-0.33
-0.87
-1.40
-1.94
-2.50
-3.13
-3.90
-4.82
-5.85
-6.83
-7.62
-8.07
-8.09
-7.67
-6.83
-5.63
-4.16
-2.56
-0.95
0.53
1.82
2.92
3.81
4.51
4.99
5.21
5.20
5.02
4.84
4.78
4.89
5.15
5.41
5.55
5.47
5.22
4.90
4.66
4.58
4.65
4.77
4.84
4.76
4.49
4.06
3.54
3.00
2.49
2.07
1.76
1.55
1.43
1.39
1.40
1.44
1.44
1.34
1.06
0.57
-0.08
-0.80
-1.44
-1.94
-2.31
-2.61
-2.96
-3.40
-3.96
-4.64
-5.42
-6.33
-7.37
-8.44
-9.39
-9.96
-9.97
-9.30
-7.99
-6.21
-4.20
-2.18
-0.35
1.20
2.43
3.38
4.06
4.49
4.70
4.68
4.49
4.20
3.90
3.68
3.57
3.57
3.64
3.74
3.82
3.87
3.84
3.71
3.44
3.09
2.71
2.41
2.24
2.16
2.11
1.99
1.74
1.40
1.09
0.91
0.93
1.10
1.26
1.26
1.01
0.55
0.01
-0.47
-0.81
-1.07
-1.35
-1.76
-2.31
-2.93
-3.47
-3.86
-4.13
-4.43
-4.90
-5.62
-6.49
-7.27
-7.69
-7.53
-6.76
-5.50
-3.98
-2.46
-1.11
0.01
0.89
1.60
2.15
2.49
2.60
2.43
2.02
1.48
0.97
0.64
0.61
0.88
1.36
1.91
2.38
2.64
2.64
2.43
2.10
1.79
1.57
1.48
1.51
1.57
1.62
1.60
1.48
1.27
0.94
0.51
0.01
-0.52
-1.00
-1.42
-1.75
-2.07
-2.43
-2.92
-3.51
-4.16
-4.74
-5.15
-5.36
-5.41
-5.45
-5.63
-6.09
-6.86
-7.82
-8.76
-9.41
-9.52
-8.98
-7.80
-6.13
-4.16
-2.16
-0.35
1.10
2.09
2.62
2.79
2.73
2.55
2.37
2.22
2.13
2.14
2.21
2.32
2.38
2.35
2.24
2.11
2.06
2.14
2.30
2.42
2.39
2.21
1.98
1.87
1.94
2.15
2.33
2.31
2.05
1.62
1.16
0.76
0.44
0.12
-0.26
-0.71
-1.20
-1.67
-2.08
-2.45
-2.78
-3.12
-3.49
-3.91
-4.46
-5.19
-6.11
-7.12
-8.03
-8.58
-8.54
-7.82
-6.50
-4.76
-2.87
-1.09
0.40
1.51
2.26
2.70
2.93
3.04
3.06
2.99
2.81
2.56
2.27
2.03
1.90
1.90
2.00
2.16
2.35
2.57
2.81
3.06
3.23
3.21
2.93
2.36
1.62
0.85
0.23
-0.15
-0.31
-0.34
-0.39
-0.51
-0.69
-0.87
-1.00
-1.10
-1.26
-1.56
-2.06
-2.69
-3.33
-3.86
-4.20
-4.40
-4.59
-4.91
-5.44
-6.14
-6.88
-7.43
-7.59
-7.19
-6.22
-4.79
-3.14
-1.49
-0.03
1.15
2.04
2.66
3.06
3.24
3.22
3.04
2.75
2.39
2.07
1.87
1.86
2.05
2.40
2.78
3.02
2.98
2.63
2.07
1.52
1.15
1.06
1.17
1.31
1.31
1.08
0.70
0.32
0.04
-0.12
-0.27
-0.52
-0.95
-1.48
-1.98
-2.34
-2.52
-2.65
-2.89
-3.41
-4.25
-5.32
-6.41
-7.26
-7.66
-7.45
-6.62
-5.27
-3.61
-1.92
-0.45
0.65
1.37
1.83
2.16
2.48
2.81
3.05
3.08
2.86
2.42
1.94
1.58
1.49
1.71
2.17
2.75
3.30
3.73
3.99
4.10
4.07
3.94
3.73
3.45
3.09
2.64
2.10
1.51
0.93
0.42
-0.01
-0.43
-0.91
-1.50
-2.15
-2.72
-3.07
-3.15
-3.07
-3.03
-3.21
-3.71
-4.46
-5.35
-6.23
-7.05
-7.80
-8.48
-8.99
-9.17
-8.86
-7.96
-6.54
-4.81
-3.02
-1.41
-0.11
0.90
1.68
2.32
2.86
3.29
3.56
3.70
3.75
3.81
3.98
4.28
4.66
5.02
5.22
5.20
4.96
4.58
4.17
3.82
3.57
3.37
3.16
2.89
2.58
2.24
1.95
1.74
1.63
1.58
1.53
1.36
1.00
0.41
-0.36
-1.13
-1.74
-2.07
-2.12
-2.06
-2.07
-2.33
-2.85
-3.58
-4.38
-5.18
-5.95
-6.67
-7.26
-7.59
-7.50
-6.89
-5.79
-4.36
-2.78
-1.22
0.24
1.57
2.73
3.72
4.45
4.87
4.97
4.79
4.42
3.99
3.61
3.40
3.41
3.65
4.07
4.54
4.92
5.07
4.95
4.59
4.11
3.68
3.42
3.39
3.54
3.75
3.87
3.81
3.57
3.23
2.92
2.71
2.57
2.42
2.14
1.68
1.06
0.41
-0.17
-0.59
-0.86
-1.05
-1.26
-1.54
-1.94
-2.45
-3.03
-3.66
-4.29
-4.93
-5.60
-6.30
-6.97
-7.49
-7.63
-7.22
-6.19
-4.66
-2.90
-1.20
0.20
1.25
2.00
2.53
2.90
3.09
3.13
3.07
3.01
3.06
3.22
3.41
3.52
3.50
3.40
3.33
3.37
3.51
3.64
3.66
3.49
3.18
2.84
2.59
2.47
2.43
2.36
2.20
1.90
1.52
1.09
0.67
0.32
0.03
-0.17
-0.33
-0.49
-0.70
-1.01
-1.44
-2.01
-2.70
-3.49
-4.37
-5.30
-6.22
-7.04
-7.65
-7.93
-7.82
-7.29
-6.39
-5.21
-3.86
-2.48
-1.16
0.02
1.00
1.75
2.26
2.56
2.72
2.81
2.89
2.98
3.03
3.01
2.89
2.73
2.63
2.68
2.93
3.31
3.69
3.94
3.96
3.77
3.42
2.98
2.52
2.06
1.63
1.23
0.86
0.50
0.17
-0.16
-0.46
-0.72
-0.93
-1.14
-1.38
-1.67
-1.99
-2.30
-2.53
-2.70
-2.87
-3.15
-3.64
-4.37
-5.29
-6.31
-7.28
-8.04
-8.46
-8.48
-8.07
-7.28
-6.19
-4.92
-3.55
-2.20
-0.93
0.18
1.10
1.83
2.38
2.80
3.12
3.34
3.49
3.61
3.71
3.84
3.98
4.12
4.25
4.38
4.56
4.84
5.19
5.51
5.69
5.61
5.29
4.79
4.22
3.64
3.02
2.31
1.49
0.63
-0.14
-0.70
-1.01
-1.15
-1.27
-1.50
-1.87
-2.33
-2.79
-3.21
-3.61
-4.09
-4.73
-5.59
-6.63
-7.74
-8.75
-9.47
-9.73
-9.41
-8.49
-7.06
-5.28
-3.40
-1.66
-0.23
0.85
1.62
2.19
2.66
3.08
3.42
3.63
3.70
3.67
3.65
3.73
3.93
4.15
4.27
4.18
3.90
3.58
3.40
3.46
3.73
4.09
4.36
4.47
4.44
4.37
4.31
4.24
4.04
3.63
3.01
2.30
1.66
1.23
0.99
0.83
0.60
0.19
-0.37
-0.95
-1.40
-1.68
-1.85
-2.10
-2.60
-3.45
-4.61
-5.90
-7.05
-7.82
-8.01
-7.54
-6.49
-5.05
-3.45
-1.93
-0.63
0.41
1.24
1.96
2.63
3.26
3.80
4.19
4.42
4.55
4.65
4.81
5.03
5.23
5.34
5.31
5.15
4.95
4.82
4.82
4.94
5.11
5.23
5.25
5.17
5.03
4.84
4.58
4.25
3.81
3.27
2.69
2.12
1.61
1.17
0.82
0.52
0.25
-0.02
-0.33
-0.66
-0.99
-1.27
-1.47
-1.61
-1.77
-2.07
-2.58
-3.32
-4.27
-5.35
-6.46
-7.50
-8.34
-8.84
-8.85
-8.30
-7.18
-5.61
-3.79
-1.92
-0.21
1.23
2.30
3.01
3.35
3.41
3.27
3.06
2.89
2.83
2.89
3.04
3.22
3.36
3.45
3.51
3.59
3.75
3.98
4.24
4.39
4.33
4.02
3.50
2.92
2.42
2.08
1.91
1.81
1.65
1.33
0.81
0.18
-0.42
-0.84
-1.00
-0.92
-0.72
-0.58
-0.63
-0.91
-1.39
-1.99
-2.60
-3.16
-3.64
-4.02
-4.30
-4.54
-4.81
-5.21
-5.78
-6.44
-7.02
-7.25
-6.93
-5.97
-4.49
-2.76
-1.09
0.31
1.35
2.08
2.61
3.02
3.33
3.53
3.58
3.53
3.43
3.35
3.29
3.23
3.10
2.90
2.66
2.48
2.43
2.53
2.76
3.04
3.29
3.44
3.44
3.31
3.06
2.74
2.42
2.14
1.93
1.80
1.72
1.59
1.33
0.88
0.24
-0.49
-1.18
-1.71
-2.09
-2.46
-3.00
-3.85
-4.98
-6.21
-7.28
-7.97
-8.15
-7.84
-7.07
-5.94
-4.54
-2.98
-1.41
0.03
1.26
2.24
2.99
3.55
3.91
4.10
4.13
4.10
4.10
4.20
4.39
4.56
4.62
4.47
4.14
3.74
3.40
3.26
3.35
3.63
3.99
4.32
4.50
4.47
4.21
3.76
3.18
2.56
1.97
1.47
1.04
0.69
0.37
0.08
-0.21
-0.53
-0.89
-1.30
-1.79
-2.32
-2.89
-3.50
-4.16
-4.88
-5.67
-6.51
-7.37
-8.18
-8.87
-9.34
-9.45
-9.08
-8.17
-6.75
-4.97
-3.05
-1.25
0.27
1.40
2.13
2.50
2.59
2.48
2.24
2.01
1.90
1.99
2.33
2.82
3.35
3.76
3.92
3.79
3.44
2.96
2.50
2.17
2.06
2.17
2.44
2.77
3.01
3.05
2.85
2.43
1.87
1.28
0.74
0.28
-0.11
-0.43
-0.67
-0.80
-0.82
-0.76
-0.73
-0.85
-1.20
-1.78
-2.51
-3.28
-3.95
-4.48
-4.90
-5.25
-5.61
-6.02
-6.46
-6.87
-7.16
-7.18
-6.81
-5.98
-4.71
-3.14
-1.52
-0.13
0.86
1.42
1.68
1.84
2.11
2.53
3.06
3.55
3.87
3.97
3.88
3.67
3.41
3.15
2.90
2.66
2.48
2.38
2.36
2.40
2.47
2.53
2.58
2.67
2.80
2.92
2.96
2.82
2.50
2.04
1.56
1.11
0.74
0.38
-0.02
-0.51
-1.06
-1.62
-2.14
-2.61
-3.06
-3.54
-4.06
-4.64
-5.27
-5.94
-6.64
-7.34
-7.93
-8.25
-8.13
-7.45
-6.17
-4.44
-2.50
-0.63
0.91
2.00
2.65
2.99
3.18
3.34
3.47
3.56
3.53
3.34
3.04
2.72
2.49
2.41
2.50
2.67
2.87
3.03
3.14
3.23
3.31
3.38
3.40
3.33
3.13
2.78
2.33
1.81
1.28
0.75
0.22
-0.35
-0.95
-1.56
-2.13
-2.60
-2.96
-3.27
-3.65
-4.24
-5.12
-6.32
-7.74
-9.21
-10.51
-11.42
-11.73
-11.33
-10.20
-8.44
-6.28
-4.04
-2.02
-0.46
0.56
1.15
1.48
1.75
2.07
2.42
2.69
2.75
2.55
2.12
1.58
1.07
0.71
0.54
0.56
0.70
0.87
0.97
0.93
0.74
0.43
0.09
-0.18
-0.35
-0.39
-0.37
-0.35
-0.40
-0.54
-0.77
-1.04
-1.27
-1.40
-1.41
-1.28
-1.07
-0.86
-0.74
-0.78
-1.00
-1.39
-1.95
-2.67
-3.48
-4.34
-5.12
-5.73
-6.01
-5.84
-5.12
-3.85
-2.15
-0.25
1.52
2.85
3.57
3.76
3.70
3.76
4.19
5.02
6.09
7.18
7.99
8.30
8.13
7.64
7.19
7.10
7.65
9.04
11.24
13.81
16.17
17.97
19.14
19.92
20.68
21.89
24.17
28.08
33.49
39.75
45.88
50.59
52.65
50.99
45.08
35.02
21.49
5.08
-13.05
-31.03
-47.19
-59.04
-65.57
-68.56
-71.57
-77.75
-88.85
-105.71
-126.46
-147.85
-165.85
-176.56
-176.80
-164.59
-136.46
-93.94
-42.29
10.94
57.69
91.81
110.46
114.67
108.55
97.41
85.21
74.20
65.12
57.69
51.56
46.59
42.88
40.44
38.88
37.02
33.88
29.27
23.70
18.20
13.82
11.17
10.19
10.26
10.21
9.13
6.75
3.43
-0.05
-2.86
-4.51
-4.98
-4.70
-4.41
-4.68
-5.71
-7.33
-9.16
-10.75
-11.81
-12.28
-12.24
-11.91
-11.48
-11.09
-10.77
-10.51
-10.28
-10.04
-9.77
-9.49
-9.19
-8.88
-8.52
-8.09
-7.55
-6.88
-6.10
-5.22
-4.23
-3.07
-1.66
0.03
1.95
3.99
5.97
7.80
9.44
10.91
12.25
13.49
14.59
15.54
16.37
17.16
18.06
19.15
20.43
21.84
23.27
24.68
26.07
27.53
29.14
30.91
32.73
34.40
35.57
35.84
34.83
32.28
28.14
22.68
16.48
10.29
4.82
0.58
-2.30
-3.99
-4.84
-5.19
-5.31
-5.31
-5.27
-5.26
-5.35
-5.54
-5.75
-5.80
-5.49
-4.70
-3.46
-1.92
-0.27
1.38
2.98
4.57
6.15
7.64
8.91
9.84
10.39
10.56
10.42
10.01
9.30
8.24
6.76
4.83
2.46
-0.28
-3.28
-6.44
-9.64
-12.78
-15.73
-18.36
-20.55
-22.10
-22.82
-22.54
-21.25
-19.09
-16.39
-13.60
-11.18
-9.46
-8.55
-8.38
-8.66
-9.07
-9.32
-9.22
-8.72
-7.87
-6.80
-5.69
-4.71
-4.03
-3.78
-4.01
-4.70
-5.70
-6.83
-7.88
-8.67
-9.14
-9.25
-9.02
-8.49
-7.69
-6.71
-5.62
-4.58
-3.69
-3.05
-2.64
-2.39
-2.20
-1.97
-1.67
-1.31
-0.94
-0.60
-0.32
-0.13
-0.07
-0.15
-0.35
-0.60
-0.80
-0.83
-0.64
-0.25
0.18
0.49
0.53
0.30
-0.07
-0.30
-0.12
0.74
2.40
4.88
8.05
11.71
15.59
19.40
22.91
25.94
28.37
30.17
31.33
31.82
31.59
30.60
28.87
26.49
23.69
20.77
18.07
15.91
14.51
13.90
13.95
14.32
14.60
14.46
13.73
12.48
10.88
9.17
7.54
6.06
4.73
3.52
2.50
1.76
1.41
1.46
1.75
1.91
1.39
-0.37
-3.74
-8.78
-15.12
-22.12
-28.99
-35.08
-40.02
-43.69
-46.19
-47.67
-48.26
-48.05
-47.17
-45.81
-44.18
-42.50
-40.90
-39.47
-38.21
-37.16
-36.40
-35.99
-35.85
-35.69
-35.06
-33.44
-30.53
-26.37
-21.36
-16.11
-11.23
-7.06
-3.69
-1.01
1.22
3.16
4.90
6.44
7.72
8.65
9.13
9.16
8.82
8.32
7.95
7.92
8.32
9.04
9.86
10.61
11.24
11.88
12.67
13.72
14.99
16.30
17.47
18.43
19.17
19.78
20.34
20.82
21.17
21.34
21.35
21.24
21.10
20.89
20.52
19.86
18.85
17.54
16.09
14.69
13.43
12.24
10.96
9.42
7.56
5.45
3.28
1.23
-0.60
-2.25
-3.82
-5.40
-7.04
-8.65
-10.14
-11.46
-12.65
-13.87
-15.29
-16.98
-18.90
-20.91
-22.79
-24.40
-25.63
-26.47
-26.91
-26.89
-26.31
-25.07
-23.14
-20.60
-17.68
-14.67
-11.85
-9.35
-7.18
-5.22
-3.37
-1.61
-0.08
1.05
1.67
1.82
1.66
1.43
1.31
1.34
1.48
1.60
1.65
1.61
1.52
1.39
1.18
0.83
0.33
-0.27
-0.82
-1.18
-1.28
-1.18
-1.00
-0.89
-0.91
-1.02
-1.07
-0.95
-0.61
-0.18
0.13
0.14
-0.27
-1.05
-2.04
-3.02
-3.80
-4.27
-4.45
-4.47
-4.46
-4.47
-4.41
-4.07
-3.22
-1.73
0.29
2.56
4.70
6.40
7.57
8.38
9.12
10.11
11.58
13.59
16.12
18.99
21.99
24.80
27.11
28.79
30.06
31.55
34.07
38.16
43.52
48.81
51.95
50.93
44.72
33.82
20.11
6.08
-6.10
-15.29
-21.37
-24.85
-26.28
-25.91
-23.75
-19.93
-14.95
-9.70
-5.20
-2.17
-0.75
-0.53
-0.76
-0.68
0.10
1.56
3.30
4.82
5.68
5.77
5.24
4.46
3.73
3.22
2.81
2.27
1.40
0.21
-1.04
-1.96
-2.22
-1.72
-0.66
0.56
1.53
2.01
1.95
1.50
0.89
0.30
-0.12
-0.29
-0.18
0.15
0.58
0.92
0.98
0.62
-0.20
-1.44
-2.99
-4.72
-6.46
-8.05
-9.35
-10.28
-10.79
-10.89
-10.55
-9.72
-8.37
-6.56
-4.44
-2.25
-0.24
1.42
2.71
3.69
4.48
5.12
5.62
5.93
6.06
6.07
6.08
6.21
6.51
6.97
7.42
7.62
7.27
6.11
4.05
1.22
-2.08
-5.47
-8.63
-11.36
-13.60
-15.34
-16.54
-17.12
-17.05
-16.39
-15.35
-14.19
-13.17
-12.43
-11.97
-11.73
-11.67
-11.78
-12.06
-12.40
-12.66
-12.65
-12.26
-11.52
-10.51
-9.35
-8.10
-6.75
-5.34
-3.99
-2.95
-2.50
-2.76
-3.65
-4.81
-5.81
-6.28
-6.08
-5.28
-4.12
-2.84
-1.63
-0.62
0.09
0.40
0.31
-0.12
-0.65
-0.99
-0.85
-0.09
1.20
2.74
4.20
5.24
5.72
5.65
5.22
4.69
4.23
3.97
3.87
3.84
3.78
3.60
3.27
2.80
2.24
1.61
1.00
0.48
0.18
0.17
0.50
1.13
1.94
2.78
3.53
4.11
4.52
4.84
5.14
5.46
5.79
5.98
5.87
5.33
4.38
3.20
2.09
1.35
1.13
1.36
1.84
2.33
2.67
2.86
2.96
3.04
3.07
2.99
2.75
2.44
2.24
2.36
2.90
3.80
4.85
5.80
6.52
6.97
7.26
7.49
7.73
7.92
8.00
7.87
7.46
6.76
5.76
4.52
3.13
1.78
0.66
-0.04
-0.26
-0.05
0.40
0.89
1.25
1.42
1.47
1.52
1.71
2.09
2.61
3.09
3.28
2.97
2.10
0.77
-0.79
-2.26
-3.37
-3.97
-4.09
-3.87
-3.49
-3.12
-2.82
-2.58
-2.31
-1.94
-1.44
-0.84
-0.23
0.30
0.69
0.98
1.21
1.45
1.70
1.91
2.05
2.09
2.08
2.11
2.22
2.36
2.39
2.13
1.43
0.36
-0.86
-1.90
-2.47
-2.41
-1.82
-0.90
0.10
1.01
1.79
2.49
3.16
3.74
4.13
4.21
3.93
3.35
2.59
1.80
1.09
0.48
-0.02
-0.41
-0.66
-0.75
-0.65
-0.41
-0.14
0.04
-0.00
-0.32
-0.83
-1.31
-1.50
-1.22
-0.45
0.59
1.56
2.10
2.05
1.45
0.50
-0.55
-1.59
-2.60
-3.68
-4.88
-6.20
-7.56
-8.85
-10.03
-11.15
-12.34
-13.67
-15.17
-16.76
-18.26
-19.50
-20.32
-20.64
-20.44
-19.72
-18.58
-17.11
-15.47
-13.80
-12.22
-10.70
-9.14
-7.34
-5.10
-2.33
0.93
4.52
8.22
11.80
15.07
17.86
20.05
21.57
22.40
22.63
22.41
21.92
21.31
20.65
19.97
19.27
18.58
17.94
17.43
17.11
16.99
17.03
17.19
17.38
17.54
17.57
17.41
16.99
16.22
15.00
13.22
10.77
7.62
3.91
-0.08
-3.88
-7.04
-9.19
-10.21
-10.24
-9.56
-8.47
-7.18
-5.77
-4.33
-2.96
-1.89
-1.31
-1.33
-1.87
-2.65
-3.35
-3.72
-3.70
-3.33
-2.76
-2.09
-1.31
-0.41
0.64
1.78
2.90
3.83
4.45
4.73
4.79
4.78
4.87
5.11
5.50
5.90
6.21
6.33
6.24
5.98
5.56
4.97
4.18
3.13
1.87
0.46
-0.92
-2.13
-3.08
-3.80
-4.40
-5.01
-5.76
-6.62
-7.47
-8.11
-8.38
-8.21
-7.66
-6.89
-6.09
-5.35
-4.68
-4.02
-3.28
-2.46
-1.64
-0.97
-0.59
-0.57
-0.88
-1.35
-1.78
-2.01
-2.02
-1.85
-1.68
-1.66
-1.88
-2.37
-3.14
-4.19
-5.58
-7.35
-9.49
-11.88
-14.34
-16.56
-18.25
-19.14
-19.06
-18.02
-16.15
-13.71
-11.01
-8.27
-5.63
-3.10
-0.67
1.68
3.90
5.91
7.62
8.94
9.88
10.48
10.82
11.02
11.23
11.56
12.11
12.91
13.92
15.03
16.06
16.82
17.17
17.06
16.56
15.85
15.16
14.64
14.33
14.10
13.79
13.26
12.51
11.65
10.84
10.19
9.69
9.22
8.62
7.71
6.45
4.90
3.24
1.72
0.60
0.06
0.20
1.00
2.31
3.91
5.50
6.78
7.52
7.68
7.38
6.89
6.54
6.56
7.01
7.76
8.63
9.55
10.67
12.36
15.01
18.83
23.66
29.04
34.34
39.00
42.81
45.87
48.56
51.26
54.25
57.60
61.19
64.84
68.33
71.37
73.64
74.70
74.17
71.77
67.47
61.50
54.30
46.33
38.03
29.72
21.65
14.03
7.07
0.95
-4.25
-8.51
-11.93
-14.64
-16.80
-18.57
-20.07
-21.37
-22.52
-23.52
-24.37
-25.11
-25.80
-26.53
-27.32
-28.12
-28.81
-29.26
-29.45
-29.43
-29.38
-29.46
-29.75
-30.24
-30.88
-31.66
-32.65
-33.89
-35.33
-36.75
-37.81
-38.18
-37.69
-36.42
-34.68
-32.83
-31.16
-29.74
-28.54
-27.44
-26.37
-25.35
-24.47
-23.81
-23.34
-23.00
-22.67
-22.31
-21.94
-21.69
-21.66
-21.85
-22.12
-22.20
-21.88
-21.03
-19.77
-18.36
-17.08
-16.16
-15.65
-15.43
-15.32
-15.18
-14.99
-14.81
-14.80
-15.06
-15.62
-16.37
-17.14
-17.73
-18.04
-18.08
-17.98
-17.91
-17.99
-18.22
-18.53
-18.77
-18.81
-18.53
-17.91
-16.95
-15.70
-14.27
-12.82
-11.53
-10.60
-10.17
-10.29
-10.89
-11.79
-12.77
-13.65
-14.33
-14.82
-15.21
-15.63
-16.20
-16.95
-17.81
-18.62
-19.16
-19.27
-18.78
-17.63
-15.84
-13.47
-10.63
-7.46
-4.13
-0.86
2.12
4.61
6.43
7.50
7.88
7.73
7.23
6.58
5.88
5.17
4.52
3.98
3.68
3.71
4.06
4.61
5.20
5.70
6.11
6.57
7.23
8.18
9.37
10.61
11.70
12.55
13.16
13.58
13.85
13.89
13.63
13.04
12.21
11.30
10.50
9.89
9.47
9.15
8.87
8.59
8.36
8.20
8.12
8.09
8.02
7.87
7.62
7.29
6.92
6.50
6.05
5.54
4.99
4.40
3.81
3.23
2.67
2.10
1.50
0.83
0.08
-0.74
-1.63
-2.56
-3.55
-4.56
-5.53
-6.31
-6.69
-6.47
-5.58
-4.14
-2.45
-0.90
0.20
0.72
0.81
0.72
0.70
0.85
1.08
1.20
1.10
0.82
0.54
0.46
0.66
1.05
1.45
1.66
1.61
1.37
1.13
1.03
1.11
1.31
1.46
1.42
1.15
0.71
0.24
-0.13
-0.30
-0.29
-0.16
-0.04
-0.03
-0.18
-0.50
-0.95
-1.45
-1.96
-2.43
-2.82
-3.16
-3.50
-3.89
-4.40
-5.02
-5.72
-6.41
-6.94
-7.20
-7.08
-6.56
-5.65
-4.45
-3.08
-1.70
-0.45
0.55
1.27
1.73
2.00
2.16
2.26
2.33
2.34
2.30
2.20
2.10
2.02
2.01
2.06
2.15
2.24
2.32
2.41
2.55
2.71
2.86
2.93
2.87
2.72
2.56
2.44
2.36
2.24
1.98
1.51
0.89
0.22
-0.36
-0.78
-1.03
-1.16
-1.24
-1.33
-1.45
-1.65
-1.95
-2.39
-2.97
-3.64
-4.32
-4.94
-5.48
-5.97
-6.46
-6.99
-7.52
-7.95
-8.12
-7.87
-7.12
-5.89
-4.29
-2.53
-0.83
0.65
1.81
2.64
3.15
3.36
3.35
3.19
2.99
2.85
2.84
2.98
3.19
3.40
3.54
3.62
3.67
3.73
3.79
3.81
3.77
3.70
3.64
3.64
3.66
3.62
3.42
3.05
2.59
2.19
1.95
1.86
1.82
1.70
1.41
0.95
0.40
-0.15
-0.64
-1.05
-1.38
-1.67
-1.95
-2.25
-2.64
-3.11
-3.65
-4.23
-4.73
-5.07
-5.13
-4.84
-4.16
-3.13
-1.85
-0.49
0.77
1.76
2.39
2.66
2.64
2.46
2.25
2.09
2.05
2.12
2.24
2.34
2.35
2.25
2.08
1.89
1.74
1.69
1.76
1.95
2.24
2.57
2.86
3.05
3.08
2.96
2.74
2.46
2.17
1.86
1.54
1.21
0.93
0.73
0.60
0.46
0.19
-0.30
-1.02
-1.89
-2.75
-3.46
-3.95
-4.17
-4.10
-3.73
-3.02
-1.99
-0.73
0.63
1.95
3.12
4.08
4.83
5.37
5.75
6.03
6.28
6.56
6.91
7.29
7.69
8.14
8.75
9.65
10.91
12.47
14.17
15.79
17.15
18.19
18.97
19.65
20.40
21.37
22.66
24.27
26.11
27.99
29.69
31.04
32.01
32.76
33.61
34.86
36.72
39.15
41.92
44.60
46.70
47.73
47.35
45.37
41.86
37.11
31.58
25.78
20.16
14.97
10.24
5.89
1.81
-2.02
-5.51
-8.55
-11.08
-13.17
-14.97
-16.64
-18.21
-19.57
-20.50
-20.79
-20.37
-19.35
-17.99
-16.59
-15.36
-14.39
-13.70
-13.25
-13.07
-13.19
-13.65
-14.41
-15.35
-16.32
-17.21
-17.96
-18.60
-19.18
-19.77
-20.39
-21.01
-21.57
-22.01
-22.28
-22.33
-22.22
-22.06
-21.98
-22.14
-22.61
-23.30
-24.04
-24.61
-24.79
-24.50
-23.70
-22.44
-20.80
-18.87
-16.77
-14.64
-12.62
-10.80
-9.21
-7.81
-6.54
-5.44
-4.62
-4.18
-4.17
-4.46
-4.81
-4.90
-4.54
-3.69
-2.53
-1.32
-0.34
0.26
0.46
0.35
0.10
-0.14
-0.29
-0.35
-0.40
-0.52
-0.75
-1.10
-1.50
-1.89
-2.23
-2.53
-2.82
-3.14
-3.47
-3.78
-4.00
-4.11
-4.09
-4.03
-4.06
-4.30
-4.84
-5.66
-6.63
-7.57
-8.29
-8.68
-8.71
-8.39
-7.74
-6.79
-5.51
-3.90
-2.00
0.06
2.07
3.77
4.96
5.52
5.51
5.07
4.46
3.86
3.40
3.09
2.86
2.67
2.54
2.50
2.58
2.73
2.85
2.84
2.66
2.38
2.13
2.01
2.06
2.23
2.37
2.41
2.30
2.12
1.96
1.88
1.86
1.82
1.63
1.22
0.58
-0.17
-0.92
-1.51
-1.91
-2.17
-2.45
-2.87
-3.46
-4.12
-4.68
-5.03
-5.22
-5.42
-5.83
-6.55
-7.44
-8.17
-8.35
-7.73
-6.34
-4.43
-2.40
-0.61
0.74
1.63
2.15
2.40
2.46
2.34
2.06
1.65
1.23
0.91
0.74
0.70
0.70
0.63
0.47
0.26
0.11
0.08
0.15
0.20
0.12
-0.21
-0.78
-1.53
-2.37
-3.19
-3.90
-4.42
-4.74
-4.87
-4.89
-4.94
-5.14
-5.57
-6.15
-6.76
-7.21
-7.38
-7.25
-6.89
-6.37
-5.70
-4.73
-3.24
-0.99
2.20
6.38
11.44
17.19
23.37
29.67
35.77
41.35
46.13
49.95
52.77
54.64
55.69
56.03
55.70
54.65
52.78
50.01
46.34
41.85
36.68
31.01
25.00
18.79
12.43
5.96
-0.62
-7.29
-13.97
-20.54
-26.79
-32.52
-37.57
-41.88
-45.48
-48.46
-50.87
-52.71
-53.93
-54.47
-54.32
-53.56
-52.32
-50.69
-48.70
-46.31
-43.47
-40.16
-36.52
-32.79
-29.30
-26.37
-24.25
-23.03
-22.61
-22.67
-22.76
-22.37
-21.07
-18.59
-14.91
-10.24
-4.95
0.50
5.62
10.05
13.56
16.10
17.80
18.82
19.33
19.35
18.80
17.60
15.75
13.44
11.01
8.85
7.25
6.32
6.00
6.13
6.58
7.25
8.13
9.16
10.22
11.13
11.71
11.87
11.64
11.10
10.36
9.41
8.19
6.67
4.89
3.08
1.55
0.58
0.26
0.44
0.77
0.91
0.62
-0.07
-0.97
-1.81
-2.40
-2.74
-2.96
-3.27
-3.81
-4.58
-5.49
-6.43
-7.29
-8.03
-8.56
-8.75
-8.40
-7.37
-5.66
-3.45
-1.06
1.19
3.08
4.55
5.66
6.47
7.00
7.22
7.09
6.67
6.12
5.61
5.30
5.22
5.29
5.39
5.41
5.29
5.07
4.84
4.63
4.46
4.29
4.09
3.82
3.48
3.08
2.64
2.18
1.70
1.24
0.82
0.47
0.21
0.04
-0.05
-0.11
-0.15
-0.22
-0.38
-0.68
-1.17
-1.85
-2.66
-3.47
-4.16
-4.63
-4.90
-5.06
-5.26
-5.65
-6.28
-7.11
-7.97
-8.62
-8.86
-8.53
-7.61
-6.18
-4.42
-2.52
-0.68
0.93
2.19
3.05
3.55
3.75
3.79
3.74
3.69
3.67
3.66
3.64
3.61
3.58
3.56
3.59
3.67
3.80
3.96
4.12
4.25
4.31
4.27
4.08
3.74
3.25
2.67
2.10
1.63
1.31
1.10
0.90
0.58
0.05
-0.68
-1.51
-2.29
-2.90
-3.29
-3.51
-3.65
-3.80
-4.06
-4.46
-5.02
-5.71
-6.51
-7.35
-8.12
-8.63
-8.71
-8.17
-6.98
-5.23
-3.20
-1.19
0.55
1.90
2.93
3.75
4.43
4.96
5.25
5.22
4.86
4.31
3.76
3.36
3.17
3.13
3.13
3.07
2.94
2.80
2.74
2.80
2.93
3.02
2.95
2.62
2.04
1.26
0.38
-0.46
-1.12
-1.49
-1.51
-1.22
-0.82
-0.53
-0.58
-1.02
-1.79
-2.64
-3.35
-3.76
-3.87
-3.80
-3.74
-3.89
-4.35
-5.17
-6.25
-7.45
-8.56
-9.31
-9.50
-9.00
-7.82
-6.12
-4.12
-2.09
-0.23
1.35
2.61
3.57
4.30
4.82
5.19
5.41
5.53
5.59
5.63
5.69
5.77
5.89
6.04
6.21
6.34
6.39
6.30
6.07
5.72
5.34
4.98
4.66
4.35
4.01
3.63
3.27
3.05
3.03
3.20
3.40
3.48
3.28
2.79
2.05
1.19
0.29
-0.59
-1.42
-2.14
-2.69
-3.05
-3.27
-3.50
-3.92
-4.65
-5.70
-6.85
-7.82
-8.33
-8.23
-7.52
-6.31
-4.78
-3.06
-1.27
0.52
2.22
3.72
4.87
5.58
5.85
5.78
5.53
5.25
5.04
4.89
4.75
4.59
4.44
4.38
4.46
4.69
4.96
5.14
5.15
5.03
4.91
4.90
5.04
5.23
5.28
5.04
4.46
3.65
2.78
2.01
1.45
1.09
0.88
0.76
0.66
0.51
0.24
-0.19
-0.80
-1.55
-2.40
-3.28
-4.15
-5.01
-5.83
-6.58
-7.17
-7.54
-7.60
-7.31
-6.65
-5.63
-4.27
-2.64
-0.81
1.06
2.80
4.20
5.13
5.53
5.42
4.97
4.36
3.79
3.39
3.23
3.31
3.57
3.95
4.37
4.73
4.95
4.98
4.81
4.50
4.16
3.87
3.69
3.55
3.33
2.94
2.36
1.64
0.91
0.29
-0.18
-0.53
-0.83
-1.13
-1.46
-1.80
-2.13
-2.47
-2.90
-3.52
-4.41
-5.56
-6.87
-8.13
-9.07
-9.42
-9.00
-7.80
-5.98
-3.83
-1.70
0.16
1.64
2.75
3.61
4.31
4.89
5.32
5.55
5.57
5.39
5.09
4.76
4.43
4.12
3.83
3.60
3.45
3.42
3.50
3.63
3.69
3.58
3.25
2.75
2.15
1.58
1.13
0.84
0.67
0.52
0.23
-0.31
-1.16
-2.26
-3.47
-4.60
-5.49
-6.10
-6.48
-6.77
-7.06
-7.43
-7.92
-8.50
-9.15
-9.78
-10.25
-10.35
-9.85
-8.57
-6.51
-3.85
-0.95
1.78
3.94
5.38
6.14
6.43
6.51
6.58
6.68
6.75
6.67
6.43
6.09
5.84
5.81
6.07
6.49
6.87
7.00
6.82
6.39
5.88
5.47
5.24
5.13
5.02
4.80
4.40
3.86
3.24
2.56
1.84
1.06
0.25
-0.52
-1.19
-1.71
-2.15
-2.65
-3.35
-4.34
-5.57
-6.82
-7.83
-8.32
-8.15
-7.33
-6.00
-4.37
-2.63
-0.95
0.57
1.81
2.67
3.09
3.07
2.73
2.22
1.70
1.26
0.90
0.58
0.27
0.00
-0.16
-0.16
-0.01
0.24
0.49
0.69
0.81
0.86
0.85
0.79
0.65
0.48
0.33
0.27
0.38
0.62
0.90
1.08
1.09
0.93
0.70
0.54
0.56
0.75
0.97
1.03
0.71
-0.09
-1.33
-2.88
-4.48
-5.89
-6.90
-7.33
-7.09
-6.13
-4.54
-2.49
-0.26
1.83
3.51
4.66
5.29
5.55
5.58
5.50
5.33
5.07
4.72
4.36
4.11
4.05
4.19
4.42
4.60
4.64
4.54
4.42
4.42
4.62
4.90
5.08
4.92
4.31
3.34
2.26
1.32
0.73
0.51
0.56
0.74
0.90
0.96
0.87
0.65
0.27
-0.22
-0.82
-1.54
-2.38
-3.39
-4.57
-5.88
-7.20
-8.33
-9.03
-9.12
-8.51
-7.28
-5.62
-3.78
-1.99
-0.39
0.97
2.10
2.99
3.58
3.76
3.48
2.79
1.91
1.14
0.78
0.94
1.58
2.47
3.35
4.00
4.29
4.24
3.90
3.36
2.74
2.12
1.57
1.17
0.96
0.90
0.93
0.98
0.96
0.84
0.65
0.45
0.33
0.31
0.36
0.34
0.12
-0.43
-1.32
-2.47
-3.76
-5.02
-6.17
-7.17
-8.07
-8.98
-10.01
-11.25
-12.67
-14.12
-15.35
-16.10
-16.20
-15.59
-14.38
-12.72
-10.80
-8.78
-6.74
-4.77
-2.97
-1.48
-0.39
0.25
0.52
0.60
0.68
0.92
1.38
2.03
2.72
3.36
3.89
4.35
4.83
5.39
6.05
6.79
7.54
8.23
8.77
9.04
8.87
8.19
7.01
5.52
4.03
2.90
2.37
2.50
3.17
4.14
5.15
6.01
6.60
6.90
6.93
6.71
6.28
5.63
4.80
3.81
2.73
1.62
0.57
-0.38
-1.23
-1.98
-2.59
-2.97
-2.96
-2.49
-1.60
-0.48
0.58
1.37
1.83
2.03
2.11
2.14
2.08
1.80
1.21
0.32
-0.67
-1.49
-1.90
-1.80
-1.26
-0.48
0.31
0.90
1.22
1.25
1.05
0.71
0.34
0.03
-0.15
-0.11
0.16
0.66
1.31
1.97
2.50
2.84
2.94
2.85
2.62
2.30
1.95
1.57
1.17
0.76
0.32
-0.19
-0.78
-1.47
-2.27
-3.14
-4.04
-4.85
-5.47
-5.78
-5.68
-5.15
-4.21
-2.99
-1.64
-0.33
0.84
1.79
2.53
3.08
3.45
3.64
3.67
3.54
3.31
3.02
2.73
2.48
2.30
2.19
2.12
2.06
2.02
2.02
2.15
2.44
2.88
3.40
3.90
4.27
4.50
4.64
4.83
5.14
5.51
5.76
5.71
5.22
4.35
3.30
2.30
1.52
1.00
0.68
0.46
0.27
0.04
-0.26
-0.70
-1.34
-2.22
-3.29
-4.45
-5.62
-6.74
-7.88
-9.20
-10.86
-13.00
-15.59
-18.51
-21.52
-24.38
-26.87
-28.83
-30.13
-30.67
-30.38
-29.21
-27.18
-24.36
-20.89
-16.87
-12.47
-7.83
-3.18
1.20
5.04
8.13
10.44
12.05
13.18
14.01
14.69
15.24
15.66
15.91
15.96
15.80
15.45
14.94
14.34
13.74
13.21
12.78
12.42
12.03
11.57
11.06
10.54
10.06
9.57
8.98
8.17
7.07
5.73
4.27
2.83
1.49
0.25
-0.92
-2.07
-3.15
-4.05
-4.65
-4.85
-4.58
-3.81
-2.57
-0.88
1.17
3.45
5.77
7.93
9.74
11.11
12.08
12.78
13.43
14.18
15.08
16.06
16.97
17.66
18.04
18.07
17.78
17.23
16.49
15.64
14.73
13.77
12.68
11.33
9.57
7.38
4.89
2.39
0.24
-1.34
-2.33
-2.90
-3.32
-3.81
-4.44
-5.17
-5.91
-6.60
-7.28
-8.04
-8.99
-10.21
-11.64
-13.11
-14.38
-15.19
-15.32
-14.71
-13.44
-11.71
-9.74
-7.71
-5.73
-3.80
-1.89
-0.03
1.71
3.18
4.25
4.83
4.87
4.42
3.58
2.55
1.57
0.84
0.44
0.27
0.13
-0.17
-0.72
-1.45
-2.20
-2.85
-3.39
-3.90
-4.46
-5.04
-5.51
-5.64
-5.28
-4.45
-3.33
-2.22
-1.43
-1.15
-1.42
-2.16
-3.17
-4.25
-5.23
-6.01
-6.61
-7.04
-7.34
-7.52
-7.56
-7.49
-7.31
-7.05
-6.67
-6.11
-5.29
-4.15
-2.73
-1.16
0.37
1.68
2.67
3.30
3.65
3.81
3.89
3.97
4.10
4.27
4.44
4.55
4.53
4.37
4.11
3.86
3.70
3.67
3.75
3.86
3.86
3.66
3.23
2.60
1.89
1.25
0.76
0.41
0.13
-0.21
-0.65
-1.14
-1.57
-1.78
-1.76
-1.59
-1.49
-1.66
-2.21
-3.07
-4.09
-5.11
-6.00
-6.74
-7.30
-7.63
-7.61
-7.15
-6.18
-4.78
-3.14
-1.50
-0.08
1.00
1.72
2.11
2.25
2.20
2.02
1.76
1.51
1.34
1.32
1.46
1.72
2.04
2.33
2.49
2.49
2.36
2.15
1.93
1.76
1.61
1.42
1.12
0.69
0.21
-0.19
-0.41
-0.41
-0.30
-0.26
-0.45
-0.90
-1.52
-2.12
-2.52
-2.68
-2.68
-2.69
-2.88
-3.32
-3.95
-4.66
-5.32
-5.86
-6.26
-6.50
-6.52
-6.24
-5.57
-4.48
-3.08
-1.54
-0.07
1.19
2.18
2.90
3.41
3.75
3.93
3.99
3.94
3.84
3.70
3.54
3.40
3.31
3.31
3.42
3.64
3.87
4.02
4.00
3.81
3.52
3.23
2.96
2.71
2.43
2.08
1.68
1.30
1.00
0.77
0.58
0.35
0.05
-0.30
-0.65
-0.93
-1.15
-1.38
-1.67
-2.09
-2.61
-3.21
-3.85
-4.50
-5.17
-5.87
-6.58
-7.26
-7.83
-8.13
-8.06
-7.54
-6.59
-5.33
-3.95
-2.64
-1.55
-0.75
-0.18
0.23
0.51
0.59
0.36
-0.31
-1.42
-2.74
-3.90
-4.51
-4.27
-3.20
-1.57
0.17
1.57
2.31
2.31
1.73
0.85
0.08
-0.22
0.17
1.32
3.07
5.15
7.19
8.94
10.25
11.17
11.79
12.24
12.56
12.74
12.75
12.59
12.30
11.91
11.36
10.52
9.20
7.31
4.90
2.26
-0.24
-2.24
-3.49
-3.95
-3.73
-3.02
-2.01
-0.90
0.19
1.13
1.86
2.37
2.71
2.94
3.05
3.00
2.72
2.20
1.51
0.79
0.27
0.06
0.17
0.51
0.90
1.24
1.44
1.51
1.47
1.32
1.07
0.73
0.34
0.00
-0.19
-0.16
0.11
0.54
1.01
1.32
1.33
0.97
0.29
-0.54
-1.30
-1.84
-2.07
-2.06
-1.97
-1.95
-2.09
-2.41
-2.84
-3.32
-3.84
-4.44
-5.20
-6.16
-7.30
-8.47
-9.48
-10.11
-10.24
-9.86
-9.07
-8.00
-6.79
-5.55
-4.32
-3.15
-2.09
-1.23
-0.66
-0.41
-0.45
-0.66
-0.87
-0.91
-0.68
-0.18
0.55
1.37
2.18
2.90
3.52
4.04
4.50
4.93
5.30
5.60
5.84
6.05
6.26
6.48
6.64
6.64
6.40
5.89
5.15
4.31
3.49
2.76
2.17
1.68
1.25
0.83
0.38
-0.18
-0.89
-1.75
-2.74
-3.77
-4.72
-5.51
-6.13
-6.63
-7.12
-7.65
-8.22
-8.70
-8.91
-8.70
-7.98
-6.80
-5.33
-3.75
-2.21
-0.79
0.50
1.62
2.52
3.15
3.44
3.40
3.10
2.67
2.23
1.87
1.63
1.49
1.43
1.37
1.29
1.19
1.10
1.05
1.07
1.16
1.28
1.37
1.36
1.23
0.98
0.65
0.28
-0.13
-0.57
-1.06
-1.56
-2.03
-2.39
-2.62
-2.69
-2.67
-2.65
-2.71
-2.95
-3.39
-4.02
-4.80
-5.68
-6.59
-7.44
-8.14
-8.61
-8.75
-8.56
-8.05
-7.28
-6.36
-5.38
-4.40
-3.43
-2.47
-1.52
-0.60
0.17
0.70
0.91
0.81
0.57
0.38
0.45
0.83
1.42
2.05
2.56
2.89
3.11
3.34
3.66
4.06
4.46
4.74
4.86
4.86
4.85
4.89
4.97
5.02
4.93
4.63
4.12
3.47
2.76
2.10
1.55
1.14
0.87
0.67
0.46
0.18
-0.22
-0.74
-1.38
-2.12
-2.97
-3.91
-4.83
-5.56
-5.88
-5.65
-4.84
-3.60
-2.17
-0.76
0.48
1.51
2.30
2.83
3.05
2.99
2.71
2.36
2.08
1.97
2.02
2.19
2.37
2.52
2.60
2.60
2.52
2.35
2.12
1.86
1.64
1.46
1.29
1.07
0.74
0.25
-0.37
-1.06
-1.74
-2.36
-2.88
-3.30
-3.66
-3.94
-4.14
-4.24
-4.20
-4.02
-3.80
-3.66
-3.72
-4.07
-4.70
-5.48
-6.23
-6.78
-7.00
-6.84
-6.31
-5.44
-4.30
-2.93
-1.45
0.01
1.23
2.04
2.34
2.17
1.74
1.28
0.96
0.82
0.78
0.69
0.44
0.05
-0.38
-0.75
-0.98
-1.06
-1.00
-0.74
-0.18
0.77
2.10
3.68
5.23
6.50
7.33
7.70
7.73
7.56
7.32
7.03
6.68
6.19
5.55
4.75
3.86
2.98
2.27
1.90
2.00
2.62
3.67
4.90
5.98
6.59
6.52
5.81
4.71
3.66
3.10
3.28
4.22
5.67
7.28
8.77
10.01
11.10
12.16
13.28
14.39
15.33
15.96
16.32
16.58
17.03
17.85
19.07
20.50
21.94
23.23
24.42
25.74
27.48
29.83
32.76
36.07
39.41
42.44
44.83
46.35
46.83
46.24
44.72
42.61
40.46
38.83
38.12
38.46
39.57
40.95
42.04
42.37
41.74
40.11
37.57
34.20
30.07
25.22
19.74
13.73
7.41
1.03
-5.12
-10.72
-15.51
-19.26
-21.94
-23.65
-24.61
-25.12
-25.44
-25.73
-26.03
-26.35
-26.74
-27.27
-27.95
-28.71
-29.35
-29.64
-29.43
-28.78
-27.90
-27.10
-26.61
-26.49
-26.64
-26.90
-27.12
-27.23
-27.20
-27.05
-26.74
-26.28
-25.68
-25.01
-24.39
-23.88
-23.50
-23.18
-22.83
-22.37
-21.78
-21.12
-20.46
-19.87
-19.40
-19.07
-18.88
-18.77
-18.70
-18.62
-18.50
-18.36
-18.26
-18.29
-18.53
-19.04
-19.77
-20.60
-21.30
-21.64
-21.39
-20.45
-18.81
-16.66
-14.26
-11.90
-9.80
-8.05
-6.65
-5.55
-4.68
-4.01
-3.49
-3.07
-2.67
-2.24
-1.80
-1.44
-1.26
-1.33
-1.58
-1.83
-1.87
-1.57
-1.00
-0.35
0.09
0.15
-0.22
-0.90
-1.67
-2.35
-2.82
-3.11
-3.26
-3.34
-3.41
-3.50
-3.60
-3.72
-3.81
-3.84
-3.80
-3.68
-3.55
-3.49
-3.57
-3.83
-4.21
-4.68
-5.14
-5.58
-5.94
-6.20
-6.35
-6.41
-6.45
-6.58
-6.90
-7.44
-8.11
-8.69
-8.94
-8.67
-7.79
-6.33
-4.41
-2.25
-0.05
1.95
3.57
4.69
5.31
5.54
5.52
5.39
5.22
5.04
4.82
4.59
4.39
4.28
4.31
4.47
4.69
4.87
4.93
4.82
4.56
4.17
3.70
3.19
2.65
2.10
1.53
0.94
0.33
-0.31
-0.95
-1.58
-2.17
-2.71
-3.24
-3.81
-4.48
-5.25
-6.12
-7.04
-7.96
-8.85
-9.73
-10.62
-11.53
-12.46
-13.42
-14.41
-15.47
-16.60
-17.79
-18.90
-19.74
-20.04
-19.60
-18.26
-16.01
-12.92
-9.14
-4.90
-0.45
3.90
7.85
11.13
13.53
14.96
15.46
15.13
14.13
12.64
10.86
9.02
7.33
6.02
5.22
4.93
5.04
5.36
5.75
6.17
6.67
7.30
8.06
8.81
9.36
9.55
9.34
8.86
8.30
7.80
7.43
7.11
6.74
6.24
5.62
4.96
4.34
3.84
3.42
3.04
2.66
2.28
1.95
1.73
1.64
1.67
1.74
1.75
1.61
1.24
0.61
-0.25
-1.30
-2.45
-3.55
-4.46
-5.00
-5.06
-4.59
-3.65
-2.40
-1.03
0.25
1.30
2.08
2.60
2.94
3.13
3.18
3.09
2.91
2.70
2.56
2.58
2.75
3.02
3.31
3.56
3.76
3.92
4.06
4.18
4.23
4.23
4.18
4.10
4.01
3.90
3.74
3.49
3.13
2.69
2.20
1.71
1.26
0.84
0.41
-0.09
-0.70
-1.43
-2.17
-2.79
-3.16
-3.23
-3.10
-2.97
-3.08
-3.61
-4.62
-5.98
-7.41
-8.59
-9.19
-9.03
-8.07
-6.46
-4.45
-2.35
-0.42
1.18
2.41
3.31
3.95
4.41
4.72
4.92
5.02
5.06
5.04
4.98
4.91
4.86
4.88
5.02
5.31
5.75
6.25
6.68
6.94
6.99
6.92
6.85
6.88
7.00
7.13
7.16
7.05
6.88
6.83
7.07
7.71
8.66
9.71
10.60
11.13
11.22
11.01
10.74
10.64
10.86
11.36
11.96
12.43
12.64
12.54
12.24
11.92
11.75
11.93
12.68
14.19
16.55
19.60
22.92
25.82
27.61
27.78
26.20
23.14
19.14
14.77
10.48
6.46
2.76
-0.67
-3.83
-6.63
-8.96
-10.69
-11.80
-12.35
-12.48
-12.38
-12.20
-12.00
-11.77
-11.47
-11.05
-10.52
-9.92
-9.34
-8.86
-8.55
-8.43
-8.50
-8.68
-8.90
-9.03
-9.05
-8.95
-8.81
-8.74
-8.79
-8.97
-9.20
-9.46
-9.70
-9.98
-10.29
-10.60
-10.82
-10.83
-10.58
-10.15
-9.71
-9.50
-9.68
-10.31
-11.27
-12.33
-13.14
-13.38
-12.77
-11.25
-8.92
-6.11
-3.20
-0.60
1.43
2.78
3.50
3.76
3.76
3.68
3.62
3.60
3.58
3.51
3.35
3.09
2.78
2.40
1.95
1.38
0.63
-0.32
-1.45
-2.68
-3.89
-4.93
-5.67
-6.02
-5.98
-5.63
-5.15
-4.76
-4.65
-4.85
-5.24
-5.62
-5.76
-5.60
-5.27
-5.00
-5.00
-5.33
-5.91
-6.51
-6.95
-7.20
-7.36
-7.58
-7.98
-8.57
-9.27
-9.98
-10.62
-11.14
-11.48
-11.52
-11.09
-10.07
-8.45
-6.37
-4.11
-1.99
-0.25
1.00
1.81
2.33
2.70
3.03
3.31
3.47
3.42
3.10
2.59
2.02
1.60
1.47
1.68
2.14
2.70
3.20
3.52
3.68
3.74
3.79
3.88
4.00
4.09
4.09
3.95
3.71
3.42
3.16
2.96
2.76
2.47
2.03
1.46
0.85
0.34
0.05
-0.02
0.04
0.06
-0.12
-0.53
-1.13
-1.82
-2.48
-3.06
-3.56
-3.99
-4.39
-4.73
-4.93
-4.91
-4.54
-3.75
-2.50
-0.89
0.89
2.64
4.15
5.32
6.12
6.57
6.74
6.63
6.26
5.66
4.95
4.29
3.88
3.81
4.07
4.52
4.99
5.34
5.52
5.55
5.50
5.42
5.31
5.12
4.80
4.30
3.58
2.70
1.75
0.81
-0.01
-0.68
-1.19
-1.60
-1.99
-2.41
-2.90
-3.49
-4.16
-4.89
-5.63
-6.34
-7.01
-7.65
-8.32
-9.11
-10.08
-11.18
-12.27
-13.09
-13.40
-13.05
-12.01
-10.45
-8.59
-6.70
-4.96
-3.52
-2.43
-1.74
-1.43
-1.48
-1.81
-2.29
-2.82
-3.30
-3.74
-4.19
-4.72
-5.38
-6.17
-7.01
-7.78
-8.41
-8.85
-9.13
-9.30
-9.45
-9.67
-10.07
-10.73
-11.72
-13.06
-14.73
-16.63
-18.66
-20.75
-22.92
-25.27
-27.95
-31.04
-34.44
-37.79
-40.61
-42.37
-42.77
-41.84
-40.01
-37.92
-36.20
-35.22
-34.98
-35.18
-35.41
-35.33
-34.74
-33.53
-31.68
-29.09
-25.70
-21.51
-16.63
-11.28
-5.73
-0.15
5.38
10.86
16.33
21.71
26.84
31.45
35.27
38.10
39.90
40.77
40.91
40.58
40.03
39.41
38.84
38.37
37.95
37.53
37.02
36.36
35.48
34.40
33.15
31.80
30.42
29.06
27.74
26.43
25.07
23.63
22.09
20.50
18.96
17.58
16.39
15.36
14.35
13.17
11.72
10.00
8.16
6.42
4.94
3.77
2.79
1.80
0.62
-0.83
-2.45
-4.08
-5.47
-6.43
-6.80
-6.49
-5.45
-3.74
-1.50
0.95
3.26
5.14
6.43
7.18
7.57
7.82
8.06
8.32
8.55
8.69
8.73
8.68
8.57
8.42
8.22
7.96
7.71
7.54
7.53
7.71
8.02
8.32
8.44
8.26
7.75
6.97
6.07
5.17
4.37
3.65
2.93
2.09
1.07
-0.11
-1.37
-2.60
-3.71
-4.64
-5.42
-6.08
-6.69
-7.32
-8.03
-8.88
-9.88
-11.00
-12.17
-13.27
-14.13
-14.55
-14.36
-13.44
-11.79
-9.59
-7.14
-4.78
-2.77
-1.22
-0.13
0.56
0.88
0.84
0.50
0.01
-0.39
-0.40
0.15
1.29
2.87
4.68
6.47
8.11
9.50
10.62
11.42
11.87
11.99
11.82
11.50
11.18
11.00
11.06
11.32
11.64
11.85
11.75
11.21
10.23
8.88
7.34
5.79
4.39
3.28
2.56
2.27
2.40
2.75
3.04
2.87
1.89
-0.02
-2.65
-5.47
-7.79
-8.97
-8.72
-7.11
-4.59
-1.77
0.84
2.92
4.39
5.34
5.88
6.08
5.97
5.60
5.08
4.55
4.18
4.09
4.29
4.72
5.24
5.73
6.09
6.33
6.46
6.52
6.55
6.54
6.49
6.38
6.20
5.96
5.68
5.37
5.04
4.68
4.26
3.78
3.24
2.68
2.16
1.72
1.39
1.10
0.77
0.26
-0.52
-1.60
-2.93
-4.35
-5.72
-6.87
-7.66
-7.96
-7.69
-6.81
-5.36
-3.49
-1.40
0.67
2.51
4.04
5.23
6.11
6.76
7.18
7.40
7.45
7.36
7.23
7.16
7.25
7.54
8.00
8.55
9.07
9.45
9.57
9.39
8.88
8.07
7.04
5.85
4.59
3.31
2.06
0.85
-0.31
-1.37
-2.31
-3.06
-3.64
-4.12
-4.62
-5.29
-6.23
-7.43
-8.80
-10.11
-11.14
-11.66
-11.52
-10.69
-9.22
-7.26
-5.00
-2.69
-0.55
1.26
2.70
3.79
4.63
5.25
5.67
5.81
5.67
5.32
4.90
4.58
4.49
4.61
4.84
5.04
5.14
5.11
4.97
4.76
4.51
4.25
4.01
3.81
3.64
3.42
3.09
2.60
1.98
1.29
0.61
-0.01
-0.58
-1.12
-1.64
-2.16
-2.69
-3.28
-4.02
-4.98
-6.17
-7.51
-8.82
-9.88
-10.47
-10.42
-9.67
-8.25
-6.29
-3.98
-1.53
0.86
2.99
4.71
5.90
6.54
6.68
6.52
6.25
6.08
6.10
6.32
6.67
7.03
7.34
7.55
7.63
7.54
7.24
6.73
6.07
5.39
4.83
4.44
4.15
3.85
3.33
2.55
1.55
0.51
-0.36
-0.98
-1.36
-1.67
-2.10
-2.82
-3.88
-5.20
-6.61
-7.89
-8.90
-9.61
-10.13
-10.66
-11.41
-12.51
-13.89
-15.35
-16.57
-17.27
-17.22
-16.35
-14.72
-12.55
-10.06
-7.57
-5.29
-3.37
-1.86
-0.75
0.00
0.44
0.57
0.48
0.24
-0.02
-0.18
-0.18
0.04
0.46
1.12
2.07
3.34
4.95
6.83
8.88
10.93
12.80
14.33
15.34
15.72
15.48
14.79
13.94
13.29
13.11
13.50
14.34
15.32
16.11
16.43
16.16
15.33
14.09
12.56
10.88
9.10
7.29
5.48
3.71
1.90
-0.06
-2.32
-5.00
-8.09
-11.42
-14.71
-17.65
-20.02
-21.71
-22.68
-22.96
-22.54
-21.47
-19.84
-17.88
-15.88
-14.13
-12.80
-11.90
-11.28
-10.70
-9.91
-8.75
-7.11
-5.02
-2.59
-0.01
2.44
4.49
6.03
7.12
8.04
9.14
10.69
12.72
15.06
17.45
19.70
21.82
23.96
26.28
28.80
31.31
33.39
34.54
34.34
32.52
29.05
24.09
18.00
11.25
4.37
-2.16
-7.98
-12.89
-16.83
-19.88
-22.17
-23.87
-25.19
-26.39
-27.72
-29.35
-31.28
-33.32
-35.04
-36.01
-35.85
-34.45
-31.99
-28.84
-25.45
-22.15
-19.13
-16.42
-13.99
-11.80
-9.88
-8.23
-6.88
-5.77
-4.78
-3.80
-2.76
-1.66
-0.55
0.47
1.33
2.00
2.46
2.79
3.11
3.53
4.06
4.66
5.18
5.48
5.48
5.20
4.78
4.37
4.10
4.00
3.98
3.91
3.66
3.18
2.51
1.74
0.97
0.26
-0.38
-0.95
-1.47
-1.91
-2.23
-2.39
-2.36
-2.16
-1.76
-1.13
-0.20
1.09
2.75
4.74
6.98
9.39
11.89
14.36
16.68
18.68
20.23
21.20
21.54
21.23
20.27
18.69
16.59
14.12
11.49
8.91
6.55
4.42
2.51
0.72
-0.98
-2.58
-4.01
-5.19
-6.08
-6.65
-6.92
-6.89
-6.54
-5.82
-4.74
-3.37
-1.88
-0.56
0.33
0.55
0.03
-1.11
-2.62
-4.19
-5.53
-6.52
-7.14
-7.49
-7.73
-7.94
-8.18
-8.42
-8.62
-8.71
-8.63
-8.31
-7.64
-6.56
-5.04
-3.20
-1.24
0.52
1.86
2.71
3.16
3.39
3.57
3.76
3.92
3.96
3.86
3.65
3.41
3.20
2.99
2.70
2.29
1.79
1.28
0.89
0.65
0.54
0.47
0.38
0.25
0.09
-0.10
-0.34
-0.64
-0.97
-1.28
-1.46
-1.47
-1.32
-1.11
-0.95
-0.91
-1.02
-1.23
-1.51
-1.87
-2.33
-2.93
-3.67
-4.46
-5.16
-5.64
-5.84
-5.79
-5.63
-5.52
-5.59
-5.85
-6.16
-6.28
-5.98
-5.15
-3.86
-2.34
-0.92
0.15
0.76
0.99
1.05
1.19
1.57
2.17
2.84
3.38
3.64
3.62
3.43
3.25
3.19
3.23
3.27
3.22
3.02
2.72
2.46
2.32
2.33
2.44
2.55
2.62
2.64
2.63
2.59
2.50
2.30
1.96
1.49
0.94
0.45
0.09
-0.05
-0.02
0.11
0.17
-0.00
-0.50
-1.34
-2.39
-3.49
-4.40
-4.94
-4.99
-4.52
-3.56
-2.25
-0.80
0.54
1.55
2.10
2.25
2.14
1.99
1.94
2.02
2.16
2.23
2.16
1.96
1.69
1.43
1.20
1.05
0.96
0.95
1.04
1.20
1.37
1.48
1.46
1.29
1.05
0.82
0.69
0.70
0.77
0.81
0.73
0.47
0.09
-0.35
-0.80
-1.25
-1.74
-2.29
-2.87
-3.43
-3.88
-4.23
-4.56
-5.04
-5.83
-7.01
-8.48
-10.06
-11.50
-12.56
-13.08
-13.01
-12.37
-11.29
-9.95
-8.56
-7.30
-6.27
-5.45
-4.73
-3.98
-3.07
-1.94
-0.62
0.83
2.33
3.81
5.22
6.59
7.94
9.32
10.75
12.19
13.54
14.68
15.51
16.02
16.30
16.46
16.57
16.61
16.47
16.05
15.33
14.34
13.22
12.06
10.91
9.76
8.52
7.14
5.58
3.82
1.91
0.00
-1.74
-3.09
-3.94
-4.31
-4.38
-4.36
-4.35
-4.23
-3.72
-2.51
-0.52
2.07
4.84
7.31
9.13
10.17
10.45
10.08
9.14
7.73
5.96
4.05
2.28
0.88
-0.05
-0.58
-0.90
-1.23
-1.70
-2.29
-2.87
-3.30
-3.52
-3.57
-3.61
-3.77
-4.14
-4.69
-5.32
-5.90
-6.37
-6.71
-6.94
-7.05
-7.02
-6.86
-6.58
-6.26
-6.02
-5.97
-6.14
-6.45
-6.76
-6.89
-6.76
-6.38
-5.86
-5.35
-4.96
-4.70
-4.53
-4.34
-4.07
-3.73
-3.36
-3.05
-2.82
-2.68
-2.61
-2.61
-2.68
-2.84
-3.09
-3.38
-3.66
-3.86
-4.00
-4.12
-4.35
-4.82
-5.57
-6.52
-7.45
-8.08
-8.18
-7.64
-6.53
-5.04
-3.49
-2.13
-1.14
-0.57
-0.31
-0.16
0.04
0.39
0.88
1.39
1.83
2.13
2.32
2.45
2.58
2.70
2.78
2.79
2.77
2.79
2.93
3.21
3.59
3.97
4.27
4.46
4.55
4.56
4.53
4.46
4.33
4.10
3.76
3.27
2.65
1.97
1.32
0.79
0.47
0.34
0.34
0.37
0.32
0.09
-0.34
-0.97
-1.78
-2.66
-3.53
-4.24
-4.66
-4.69
-4.33
-3.64
-2.74
-1.79
-0.90
-0.15
0.44
0.94
1.41
1.94
2.57
3.23
3.80
4.17
4.27
4.14
3.92
3.74
3.71
3.81
3.95
4.06
4.10
4.09
4.11
4.15
4.14
4.00
3.66
3.16
2.63
2.23
2.06
2.12
2.31
2.45
2.40
2.07
1.45
0.66
-0.13
-0.76
-1.14
-1.28
-1.29
-1.33
-1.54
-1.95
-2.49
-3.07
-3.60
-4.07
-4.51
-4.90
-5.20
-5.30
-5.05
-4.42
-3.45
-2.29
-1.14
-0.15
0.61
1.15
1.56
1.85
2.05
2.13
2.11
2.01
1.93
1.92
2.01
2.15
2.28
2.33
2.30
2.19
2.05
1.93
1.83
1.76
1.72
1.69
1.63
1.53
1.38
1.19
0.98
0.78
0.61
0.45
0.29
0.12
-0.07
-0.27
-0.48
-0.72
-1.03
-1.42
-1.85
-2.26
-2.62
-2.90
-3.15
-3.38
-3.63
-3.88
-4.11
-4.31
-4.52
-4.73
-4.90
-4.94
-4.73
-4.20
-3.39
-2.44
-1.53
-0.82
-0.34
-0.06
0.13
0.32
0.57
0.85
1.09
1.21
1.19
1.08
0.97
0.99
1.18
1.53
1.92
2.21
2.29
2.17
1.93
1.68
1.51
1.43
1.37
1.24
0.97
0.56
0.09
-0.33
-0.63
-0.78
-0.87
-1.00
-1.23
-1.56
-1.91
-2.16
-2.24
-2.11
-1.83
-1.45
-1.07
-0.80
-0.75
-1.02
-1.69
-2.68
-3.81
-4.78
-5.35
-5.38
-4.97
-4.30
-3.58
-2.93
-2.35
-1.79
-1.19
-0.56
0.05
0.57
0.92
1.07
1.01
0.75
0.37
-0.00
-0.26
-0.31
-0.16
0.11
0.41
0.67
0.90
1.11
1.31
1.43
1.40
1.14
0.67
0.12
-0.36
-0.64
-0.71
-0.65
-0.62
-0.73
-1.03
-1.43
-1.83
-2.12
-2.29
-2.38
-2.47
-2.61
-2.80
-3.00
-3.18
-3.33
-3.47
-3.62
-3.70
-3.58
-3.16
-2.42
-1.47
-0.52
0.23
0.64
0.72
0.60
0.48
0.49
0.69
1.02
1.38
1.64
1.75
1.74
1.66
1.60
1.57
1.58
1.58
1.56
1.56
1.62
1.76
1.94
2.08
2.12
2.01
1.77
1.45
1.12
0.81
0.52
0.22
-0.10
-0.46
-0.85
-1.22
-1.56
-1.85
-2.11
-2.41
-2.80
-3.29
-3.79
-4.14
-4.18
-3.82
-3.11
-2.21
-1.34
-0.66
-0.22
0.05
0.26
0.50
0.78
1.05
1.23
1.24
1.07
0.75
0.34
-0.04
-0.35
-0.51
-0.52
-0.40
-0.24
-0.17
-0.30
-0.65
-1.16
-1.62
-1.81
-1.54
-0.75
0.41
1.70
2.86
3.71
4.24
4.51
4.63
4.66
4.59
4.41
4.15
3.87
3.62
3.39
3.08
2.58
1.79
0.76
-0.37
-1.43
-2.30
-2.96
-3.44
-3.79
-4.02
-4.11
-4.07
-3.95
-3.84
-3.83
-3.92
-4.04
-4.06
-3.86
-3.41
-2.75
-2.01
-1.29
-0.66
-0.13
0.36
0.86
1.38
1.88
2.31
2.62
2.82
2.98
3.18
3.46
3.79
4.07
4.19
4.10
3.77
3.28
2.66
1.97
1.24
0.50
-0.21
-0.88
-1.51
-2.12
-2.75
-3.38
-3.97
-4.45
-4.74
-4.84
-4.80
-4.72
-4.65
-4.56
-4.33
-3.84
-3.05
-2.00
-0.89
0.06
0.64
0.81
0.64
0.31
-0.02
-0.24
-0.38
-0.49
-0.61
-0.70
-0.65
-0.39
0.07
0.62
1.07
1.28
1.19
0.89
0.50
0.21
0.13
0.27
0.59
0.97
1.29
1.50
1.62
1.74
1.98
2.38
2.92
3.48
3.87
3.96
3.70
3.10
2.26
1.25
0.18
-0.87
-1.80
-2.50
-2.87
-2.82
-2.34
-1.51
-0.46
0.66
1.74
2.72
3.60
4.38
5.04
5.52
5.78
5.83
5.74
5.64
5.67
5.89
6.27
6.74
7.22
7.65
8.03
8.37
8.66
8.89
9.03
9.08
9.06
8.98
8.88
8.69
8.31
7.61
6.51
5.00
3.20
1.26
-0.66
-2.43
-4.01
-5.35
-6.49
-7.45
-8.26
-9.05
-9.91
-10.92
-12.08
-13.32
-14.47
-15.40
-16.02
-16.27
-16.10
-15.46
-14.33
-12.71
-10.74
-8.63
-6.60
-4.85
-3.49
-2.50
-1.82
-1.35
-1.03
-0.75
-0.43
0.07
0.80
1.75
2.77
3.67
4.29
4.54
4.47
4.23
3.96
3.77
3.71
3.73
3.76
3.72
3.56
3.29
2.93
2.55
2.21
1.95
1.78
1.67
1.61
1.56
1.52
1.49
1.43
1.31
1.08
0.72
0.22
-0.37
-0.98
-1.50
-1.86
-2.00
-1.89
-1.54
-0.99
-0.30
0.45
1.17
1.76
2.16
2.31
2.18
1.80
1.22
0.55
-0.08
-0.51
-0.63
-0.38
0.18
0.92
1.63
2.11
2.26
2.10
1.74
1.32
0.92
0.61
0.37
0.20
0.10
0.06
0.06
0.04
-0.05
-0.22
-0.46
-0.72
-0.93
-1.07
-1.15
-1.23
-1.34
-1.55
-1.87
-2.29
-2.74
-3.10
-3.26
-3.09
-2.59
-1.83
-0.98
-0.21
0.37
0.75
0.96
1.03
0.98
0.80
0.48
0.06
-0.37
-0.69
-0.83
-0.75
-0.51
-0.18
0.14
0.42
0.65
0.83
0.97
1.05
1.07
0.99
0.83
0.58
0.29
-0.02
-0.32
-0.57
-0.75
-0.83
-0.83
-0.75
-0.68
-0.65
-0.74
-0.99
-1.38
-1.90
-2.45
-2.94
-3.23
-3.27
-3.04
-2.60
-2.06
-1.56
-1.17
-0.91
-0.68
-0.37
0.12
0.85
1.72
2.54
3.10
3.27
3.06
2.65
2.29
2.18
2.44
2.95
3.44
3.66
3.42
2.75
1.89
1.16
0.86
1.15
1.92
2.81
3.41
3.36
2.58
1.29
0.00
-0.62
-0.03
1.81
4.29
6.42
7.19
6.19
3.75
1.00
-0.57
0.23
3.59
8.33
12.58
14.62
13.78
10.67
7.08
5.28
7.13
13.20
22.37
32.60
41.30
45.96
44.41
35.62
20.51
2.52
-13.22
-22.01
-21.32
-12.66
-1.44
4.88
-0.06
-19.29
-48.82
-78.74
-99.88
-108.85
-108.61
-104.93
-102.98
-105.05
-110.92
-118.12
-122.86
-123.05
-114.68
-95.11
-64.09
-24.46
19.11
60.75
95.45
119.95
132.82
134.70
127.56
114.67
96.44
76.63
59.22
47.13
41.15
39.80
40.50
40.62
38.32
33.13
26.28
19.32
13.74
10.44
9.38
9.85
10.62
10.52
8.87
6.09
2.85
-0.03
-1.97
-2.83
-2.84
-2.47
-2.23
-2.46
-3.03
-3.83
-4.70
-5.50
-6.11
-6.41
-6.43
-6.37
-6.46
-6.80
-7.42
-8.26
-9.16
-9.95
-10.52
-10.88
-11.08
-11.17
-11.11
-10.84
-10.35
-9.69
-8.96
-8.24
-7.61
-7.05
-6.50
-5.90
-5.24
-4.56
-3.95
-3.58
-3.55
-3.87
-4.45
-5.06
-5.46
-5.51
-5.19
-4.63
-4.02
-3.53
-3.21
-3.02
-2.89
-2.75
-2.57
-2.41
-2.28
-2.17
-2.06
-1.90
-1.73
-1.59
-1.58
-1.76
-2.12
-2.59
-3.08
-3.48
-3.75
-3.90
-3.94
-3.86
-3.59
-3.09
-2.35
-1.47
-0.59
0.18
0.79
1.32
1.85
2.42
2.98
3.40
3.61
3.61
3.55
3.56
3.76
4.11
4.47
4.73
4.80
4.76
4.72
4.78
4.94
5.10
5.12
4.90
4.44
3.81
3.13
2.49
1.92
1.43
1.01
0.65
0.34
0.02
-0.41
-0.99
-1.75
-2.60
-3.42
-4.12
-4.66
-5.08
-5.37
-5.49
-5.35
-4.88
-4.08
-3.09
-2.08
-1.18
-0.42
0.25
0.93
1.66
2.40
3.05
3.51
3.77
3.86
3.87
3.85
3.81
3.74
3.63
3.54
3.52
3.63
3.85
4.08
4.20
4.11
3.77
3.25
2.65
2.11
1.69
1.41
1.20
1.02
0.84
0.69
0.56
0.45
0.31
0.08
-0.28
-0.77
-1.37
-2.03
-2.74
-3.50
-4.29
-5.02
-5.58
-5.80
-5.57
-4.87
-3.76
-2.42
-1.04
0.23
1.28
2.07
2.58
2.85
2.89
2.80
2.69
2.67
2.79
3.04
3.33
3.54
3.60
3.47
3.20
2.84
2.43
2.00
1.56
1.13
0.74
0.42
0.24
0.21
0.33
0.52
0.70
0.77
0.67
0.43
0.14
-0.13
-0.30
-0.40
-0.50
-0.69
-0.98
-1.35
-1.71
-2.04
-2.37
-2.77
-3.27
-3.82
-4.22
-4.23
-3.64
-2.41
-0.71
1.10
2.70
3.85
4.52
4.80
4.83
4.69
4.41
4.01
3.57
3.21
3.04
3.10
3.29
3.43
3.39
3.11
2.68
2.25
1.96
1.85
1.87
1.90
1.81
1.57
1.23
0.87
0.62
0.48
0.40
0.24
-0.10
-0.66
-1.38
-2.14
-2.84
-3.43
-3.96
-4.46
-4.98
-5.49
-5.96
-6.34
-6.67
-6.98
-7.29
-7.57
-7.70
-7.58
-7.13
-6.41
-5.54
-4.68
-3.99
-3.52
-3.33
-3.42
-3.75
-4.23
-4.67
-4.79
-4.32
-3.07
-1.12
1.23
3.49
5.20
6.08
6.13
5.60
4.86
4.24
3.93
3.96
4.24
4.65
5.07
5.37
5.44
5.15
4.51
3.64
2.79
2.26
2.22
2.62
3.19
3.57
3.46
2.79
1.67
0.32
-1.04
-2.27
-3.33
-4.17
-4.75
-5.00
-4.86
-4.30
-3.32
-1.93
-0.18
1.82
3.87
5.76
7.26
8.26
8.76
8.85
8.62
8.17
7.59
6.98
6.48
6.25
6.31
6.58
6.86
6.91
6.57
5.81
4.76
3.60
2.52
1.64
1.01
0.62
0.46
0.50
0.70
0.95
1.12
1.09
0.78
0.23
-0.41
-0.98
-1.39
-1.70
-2.09
-2.74
-3.76
-5.05
-6.31
-7.22
-7.51
-7.13
-6.23
-5.09
-3.96
-2.99
-2.23
-1.66
-1.26
-1.06
-1.08
-1.27
-1.51
-1.66
-1.55
-1.14
-0.47
0.32
1.11
1.82
2.40
2.83
3.06
3.00
2.65
2.04
1.30
0.60
0.07
-0.26
-0.44
-0.53
-0.56
-0.51
-0.31
0.05
0.47
0.81
0.93
0.78
0.43
0.05
-0.26
-0.47
-0.70
-1.09
-1.70
-2.48
-3.23
-3.78
-4.00
-3.88
-3.52
-2.98
-2.32
-1.55
-0.69
0.12
0.73
0.98
0.82
0.36
-0.17
-0.49
-0.45
-0.05
0.60
1.29
1.84
2.16
2.24
2.15
1.94
1.67
1.35
1.03
0.76
0.59
0.55
0.60
0.67
0.67
0.54
0.25
-0.14
-0.56
-0.95
-1.28
-1.54
-1.77
-1.98
-2.22
-2.48
-2.76
-3.05
-3.28
-3.42
-3.40
-3.20
-2.80
-2.22
-1.50
-0.72
0.05
0.70
1.16
1.38
1.38
1.22
0.96
0.65
0.36
0.12
-0.03
-0.06
0.01
0.12
0.20
0.16
0.02
-0.19
-0.36
-0.43
-0.38
-0.27
-0.19
-0.28
-0.56
-1.00
-1.48
-1.86
-2.08
-2.19
-2.31
-2.63
-3.25
-4.18
-5.30
-6.39
-7.16
-7.41
-7.01
-6.01
-4.56
-2.92
-1.33
-0.01
0.93
1.49
1.74
1.78
1.72
1.65
1.62
1.66
1.79
1.99
2.27
2.63
3.07
3.62
4.32
5.21
6.33
7.64
9.03
10.31
11.25
11.68
11.54
10.90
9.90
8.71
7.49
6.33
5.32
4.49
3.83
3.29
2.81
2.33
1.83
1.30
0.74
0.16
-0.46
-1.12
-1.78
-2.41
-3.00
-3.55
-4.10
-4.65
-5.15
-5.55
-5.78
-5.83
-5.77
-5.70
-5.67
-5.68
-5.63
-5.46
-5.10
-4.58
-3.93
-3.18
-2.39
-1.58
-0.80
-0.12
0.40
0.71
0.81
0.75
0.60
0.44
0.29
0.17
0.08
0.02
0.05
0.21
0.56
1.11
1.83
2.64
3.42
4.06
4.52
4.79
4.90
4.89
4.81
4.70
4.60
4.53
4.44
4.27
3.90
3.26
2.35
1.27
0.15
-0.85
-1.69
-2.37
-2.99
-3.57
-4.11
-4.53
-4.75
-4.76
-4.68
-4.65
-4.79
-5.12
-5.52
-5.78
-5.74
-5.35
-4.69
-3.93
-3.21
-2.64
-2.18
-1.79
-1.41
-1.03
-0.71
-0.48
-0.38
-0.37
-0.40
-0.41
-0.35
-0.20
0.03
0.31
0.59
0.84
1.02
1.14
1.22
1.25
1.21
1.10
0.89
0.63
0.34
0.10
-0.06
-0.11
-0.10
-0.07
-0.08
-0.16
-0.27
-0.36
-0.39
-0.34
-0.25
-0.21
-0.29
-0.52
-0.86
-1.26
-1.66
-2.03
-2.34
-2.55
-2.59
-2.37
-1.85
-1.11
-0.29
0.43
0.96
1.30
1.55
1.80
2.04
2.19
2.16
1.93
1.59
1.27
1.10
1.12
1.25
1.40
1.49
1.55
1.69
1.96
2.37
2.80
3.12
3.20
3.06
2.76
2.43
2.17
2.03
2.00
2.03
2.11
2.22
2.34
2.42
2.38
2.14
1.71
1.14
0.53
-0.03
-0.53
-0.98
-1.44
-1.93
-2.42
-2.85
-3.23
-3.59
-3.97
-4.36
-4.66
-4.70
-4.32
-3.51
-2.42
-1.28
-0.34
0.28
0.60
0.71
0.73
0.71
0.71
0.71
0.72
0.75
0.77
0.74
0.61
0.36
0.04
-0.30
-0.56
-0.67
-0.60
-0.39
-0.12
0.10
0.18
0.14
0.03
-0.03
0.05
0.22
0.38
0.38
0.14
-0.27
-0.70
-0.97
-1.04
-0.97
-0.91
-1.00
-1.23
-1.52
-1.76
-1.89
-1.99
-2.15
-2.46
-2.89
-3.30
-3.53
-3.46
-3.06
-2.42
-1.66
-0.90
-0.23
0.29
0.65
0.85
0.89
0.81
0.67
0.53
0.44
0.42
0.46
0.55
0.70
0.91
1.16
1.44
1.69
1.88
1.95
1.86
1.61
1.21
0.71
0.19
-0.24
-0.51
-0.58
-0.50
-0.38
-0.37
-0.56
-0.93
-1.38
-1.74
-1.88
-1.82
-1.65
-1.51
-1.53
-1.75
-2.13
-2.59
-3.06
-3.48
-3.79
-3.92
-3.82
-3.46
-2.89
-2.20
-1.54
-0.98
-0.55
-0.21
0.09
0.41
0.73
1.04
1.30
1.48
1.59
1.65
1.69
1.72
1.75
1.75
1.70
1.63
1.56
1.54
1.60
1.70
1.80
1.84
1.78
1.64
1.43
1.20
0.92
0.60
0.25
-0.10
-0.38
-0.53
-0.50
-0.34
-0.10
0.09
0.15
0.04
-0.20
-0.49
-0.71
-0.84
-0.87
-0.88
-0.89
-0.87
-0.76
-0.47
0.03
0.71
1.46
2.14
2.69
3.05
3.25
3.32
3.29
3.17
2.97
2.72
2.45
2.22
2.04
1.96
1.93
1.89
1.77
1.50
1.05
0.44
-0.26
-0.91
-1.36
-1.49
-1.30
-0.86
-0.35
0.04
0.17
0.04
-0.27
-0.62
-0.92
-1.16
-1.40
-1.70
-2.09
-2.52
-2.90
-3.13
-3.20
-3.16
-3.09
-3.10
-3.26
-3.56
-3.93
-4.28
-4.54
-4.65
-4.59
-4.36
-4.00
-3.55
-3.07
-2.63
-2.30
-2.10
-2.03
-2.02
-2.00
-1.93
-1.77
-1.55
-1.30
-1.04
-0.77
-0.50
-0.23
-0.01
0.11
0.06
-0.23
-0.81
-1.58
-2.40
-3.01
-3.19
-2.84
-2.02
-0.91
0.26
1.29
2.09
2.66
3.09
3.47
3.86
4.22
4.46
4.43
4.05
3.34
2.43
1.55
0.85
0.36
-0.04
-0.51
-1.11
-1.75
-2.22
-2.29
-1.91
-1.15
-0.22
0.71
1.56
2.36
3.15
3.93
4.61
4.99
4.92
4.34
3.33
2.10
0.93
0.02
-0.54
-0.79
-0.83
-0.74
-0.56
-0.26
0.18
0.79
1.51
2.26
2.91
3.37
3.56
3.45
3.09
2.56
2.00
1.55
1.27
1.15
1.08
0.95
0.68
0.26
-0.24
-0.73
-1.11
-1.37
-1.56
-1.77
-2.07
-2.46
-2.85
-3.11
-3.09
-2.77
-2.20
-1.54
-0.96
-0.60
-0.49
-0.59
-0.79
-0.99
-1.09
-1.03
-0.75
-0.23
0.51
1.35
2.09
2.48
2.30
1.53
0.33
-0.92
-1.79
-2.00
-1.57
-0.80
-0.14
0.07
-0.28
-0.98
-1.66
-1.97
-1.74
-1.03
-0.01
1.11
2.19
3.10
3.75
4.01
3.77
3.00
1.83
0.46
-0.83
-1.82
-2.42
-2.63
-2.50
-2.11
-1.53
-0.82
-0.05
0.71
1.38
1.92
2.27
2.39
2.28
1.96
1.50
1.05
0.75
0.70
0.89
1.25
1.63
1.90
1.98
1.82
1.40
0.76
-0.05
-0.91
-1.66
-2.19
-2.45
-2.48
-2.39
-2.30
-2.26
-2.29
-2.38
-2.50
-2.63
-2.75
-2.84
-2.89
-2.87
-2.84
-2.84
-2.97
-3.27
-3.73
-4.28
-4.81
-5.21
-5.40
-5.34
-5.05
-4.59
-4.01
-3.38
-2.73
-2.15
-1.71
-1.53
-1.63
-2.01
-2.52
-2.98
-3.19
-2.97
-2.24
-1.05
0.46
2.02
3.40
4.39
4.94
5.12
5.09
5.02
5.02
5.14
5.34
5.55
5.70
5.76
5.74
5.70
5.68
5.71
5.78
5.84
5.87
5.86
5.85
5.93
6.11
6.37
6.55
6.49
6.05
5.19
4.00
2.66
1.38
0.35
-0.31
-0.54
-0.34
0.26
1.22
2.45
3.82
5.14
6.21
6.88
7.05
6.74
6.04
5.06
3.92
2.72
1.53
0.45
-0.46
-1.17
-1.67
-2.02
-2.26
-2.43
-2.56
-2.66
-2.76
-2.87
-3.04
-3.26
-3.53
-3.81
-4.04
-4.17
-4.14
-3.93
-3.57
-3.14
-2.74
-2.45
-2.30
-2.27
-2.26
-2.20
-2.03
-1.78
-1.51
-1.29
-1.18
-1.19
-1.28
-1.36
-1.37
-1.21
-0.83
-0.20
0.66
1.73
2.97
4.32
5.72
7.03
8.12
8.81
8.98
8.60
7.77
6.69
5.56
4.57
3.79
3.18
2.68
2.19
1.68
1.11
0.50
-0.17
-0.91
-1.74
-2.65
-3.58
-4.45
-5.13
-5.54
-5.66
-5.49
-5.10
-4.55
-3.90
-3.19
-2.46
-1.78
-1.21
-0.79
-0.54
-0.42
-0.41
-0.44
-0.51
-0.61
-0.72
-0.82
-0.92
-1.04
-1.24
-1.54
-1.90
-2.19
-2.25
-2.00
-1.47
-0.83
-0.27
0.07
0.16
0.08
-0.10
-0.32
-0.58
-0.87
-1.15
-1.33
-1.34
-1.17
-0.91
-0.66
-0.50
-0.42
-0.38
-0.33
-0.29
-0.28
-0.34
-0.47
-0.61
-0.68
-0.65
-0.51
-0.30
-0.10
0.06
0.12
0.08
-0.04
-0.20
-0.38
-0.58
-0.78
-0.98
-1.13
-1.19
-1.14
-1.01
-0.88
-0.84
-0.94
-1.12
-1.28
-1.32
-1.22
-1.05
-0.92
-0.95
-1.15
-1.45
-1.71
-1.83
-1.75
-1.57
-1.41
-1.38
-1.52
-1.74
-1.89
-1.82
-1.48
-0.92
-0.32
0.17
0.46
0.57
0.62
0.71
0.91
1.15
1.34
1.40
1.30
1.10
0.90
0.82
0.88
1.05
1.23
1.31
1.26
1.09
0.86
0.66
0.54
0.53
0.60
0.69
0.75
0.70
0.53
0.25
-0.08
-0.38
-0.61
-0.80
-1.06
-1.50
-2.23
-3.23
-4.37
-5.42
-6.16
-6.41
-6.12
-5.36
-4.28
-3.06
-1.87
-0.84
-0.01
0.64
1.14
1.58
1.98
2.38
2.76
3.12
3.44
3.75
4.03
4.32
4.63
4.99
5.44
6.00
6.65
7.29
7.81
8.03
7.85
7.21
6.15
4.77
3.25
1.74
0.36
-0.81
-1.75
-2.45
-2.89
-3.06
-3.00
-2.77
-2.53
-2.39
-2.50
-2.86
-3.44
-4.10
-4.65
-4.92
-4.81
-4.29
-3.44
-2.45
-1.49
-0.73
-0.21
0.10
0.30
0.46
0.60
0.68
0.62
0.35
-0.11
-0.70
-1.28
-1.75
-2.01
-2.05
-1.90
-1.62
-1.27
-0.90
-0.56
-0.27
-0.07
0.01
-0.03
-0.15
-0.31
-0.45
-0.54
-0.58
-0.61
-0.68
-0.82
-1.03
-1.29
-1.55
-1.76
-1.91
-1.96
-1.90
-1.74
-1.53
-1.34
-1.24
-1.29
-1.49
-1.79
-2.11
-2.36
-2.47
-2.43
-2.29
-2.08
-1.86
-1.69
-1.60
-1.61
-1.71
-1.81
-1.82
-1.64
-1.27
-0.79
-0.39
-0.24
-0.43
-0.87
-1.39
-1.77
-1.87
-1.72
-1.42
-1.16
-1.04
-1.10
-1.26
-1.46
-1.60
-1.67
-1.65
-1.57
-1.48
-1.44
-1.50
-1.68
-1.98
-2.34
-2.66
-2.86
-2.89
-2.77
-2.56
-2.33
-2.17
-2.09
-2.06
-2.01
-1.91
-1.73
-1.59
-1.62
-1.99
-2.77
-3.91
-5.24
-6.49
-7.36
-7.60
-7.05
-5.78
-4.11
-2.57
-1.77
-2.05
-3.39
-5.28
-6.94
-7.67
-7.14
-5.52
-3.27
-0.93
1.18
3.04
4.75
6.40
7.96
9.26
10.17
10.65
10.87
11.06
11.45
12.15
13.11
14.17
15.11
15.74
15.93
15.65
14.96
14.00
12.97
12.11
11.56
11.36
11.39
11.42
11.18
10.52
9.43
8.02
6.43
4.81
3.22
1.74
0.44
-0.63
-1.43
-2.08
-2.77
-3.70
-4.97
-6.46
-7.81
-8.52
-8.17
-6.63
-4.11
-1.23
1.27
2.75
2.90
1.91
0.24
-1.49
-2.80
-3.50
-3.63
-3.39
-2.97
-2.47
-1.95
-1.43
-0.97
-0.64
-0.51
-0.55
-0.72
-0.90
-1.00
-1.01
-0.95
-0.86
-0.81
-0.85
-1.00
-1.27
-1.62
-2.00
-2.36
-2.64
-2.81
-2.84
-2.76
-2.57
-2.34
-2.12
-1.98
-1.96
-2.08
-2.30
-2.49
-2.49
-2.12
-1.25
0.13
1.90
3.84
5.76
7.51
9.12
10.67
12.28
14.02
15.83
17.62
19.25
20.67
21.92
23.10
24.35
25.73
27.23
28.77
30.20
31.47
32.60
33.75
35.17
37.03
39.40
42.17
45.07
47.84
50.35
52.67
55.09
58.05
61.98
67.09
73.25
79.92
86.14
90.70
92.42
90.41
84.27
74.19
60.93
45.63
29.63
14.18
0.31
-11.34
-20.54
-27.40
-32.24
-35.54
-37.78
-39.44
-40.90
-42.36
-43.83
-45.10
-45.91
-46.07
-45.61
-44.80
-44.00
-43.51
-43.40
-43.54
-43.69
-43.66
-43.37
-42.86
-42.26
-41.62
-40.99
-40.35
-39.67
-38.93
-38.08
-37.05
-35.76
-34.23
-32.59
-31.12
-30.09
-29.61
-29.60
-29.77
-29.77
-29.35
-28.52
-27.43
-26.35
-25.43
-24.67
-23.93
-23.02
-21.86
-20.46
-18.93
-17.37
-15.83
-14.27
-12.64
-10.92
-9.19
-7.63
-6.42
-5.72
-5.50
-5.62
-5.82
-5.86
-5.62
-5.12
-4.51
-3.95
-3.60
-3.50
-3.61
-3.83
-4.06
-4.22
-4.25
-4.15
-4.00
-3.89
-3.94
-4.18
-4.57
-4.98
-5.28
-5.42
-5.40
-5.28
-5.13
-4.99
-4.88
-4.87
-5.01
-5.38
-5.91
-6.47
-6.86
-6.90
-6.54
-5.82
-4.89
-3.85
-2.78
-1.71
-0.67
0.29
1.09
1.66
1.94
1.91
1.57
0.98
0.24
-0.54
-1.22
-1.70
-1.92
-1.88
-1.61
-1.18
-0.64
-0.11
0.27
0.42
0.27
-0.11
-0.63
-1.17
-1.64
-2.03
-2.34
-2.60
-2.78
-2.88
-2.90
-2.88
-2.86
-2.84
-2.82
-2.78
-2.69
-2.59
-2.55
-2.61
-2.82
-3.14
-3.52
-3.83
-4.00
-3.97
-3.73
-3.26
-2.58
-1.71
-0.70
0.35
1.27
1.89
2.17
2.15
2.00
1.87
1.90
2.04
2.21
2.28
2.21
2.07
1.93
1.89
1.94
2.07
2.24
2.40
2.54
2.61
2.54
2.31
1.93
1.48
1.05
0.67
0.34
-0.00
-0.39
-0.81
-1.17
-1.40
-1.48
-1.43
-1.34
-1.30
-1.36
-1.51
-1.75
-2.07
-2.45
-2.90
-3.41
-3.93
-4.43
-4.87
-5.32
-5.87
-6.60
-7.47
-8.33
-8.95
-9.10
-8.68
-7.74
-6.54
-5.33
-4.34
-3.65
-3.23
-2.97
-2.77
-2.60
-2.48
-2.45
-2.55
-2.80
-3.17
-3.66
-4.24
-4.92
-5.70
-6.59
-7.54
-8.51
-9.45
-10.32
-11.12
-11.87
-12.63
-13.51
-14.58
-15.88
-17.39
-19.01
-20.53
-21.72
-22.32
-22.17
-21.18
-19.43
-17.09
-14.42
-11.71
-9.18
-6.98
-5.14
-3.58
-2.19
-0.82
0.57
2.02
3.44
4.69
5.65
6.22
6.46
6.56
6.82
7.50
8.74
10.41
12.24
13.90
15.17
16.06
16.72
17.33
18.00
18.69
19.30
19.69
19.77
19.52
18.94
18.08
17.04
15.95
15.01
14.37
14.08
14.05
14.09
13.93
13.39
12.35
10.88
9.19
7.59
6.43
5.96
6.27
7.18
8.30
9.15
9.40
8.97
8.08
7.15
6.55
6.47
6.83
7.36
7.76
7.80
7.39
6.62
5.70
4.85
4.31
4.23
4.65
5.45
6.43
7.27
7.73
7.70
7.27
6.82
6.87
7.99
10.60
14.83
20.38
26.65
32.87
38.36
42.64
45.53
47.01
47.20
46.25
44.35
41.74
38.69
35.40
32.02
28.54
24.93
21.16
17.32
13.59
10.19
7.25
4.79
2.70
0.84
-0.94
-2.73
-4.56
-6.45
-8.34
-10.20
-11.96
-13.56
-14.96
-16.18
-17.30
-18.45
-19.74
-21.19
-22.72
-24.13
-25.20
-25.74
-25.69
-25.11
-24.12
-22.86
-21.44
-19.94
-18.44
-17.00
-15.69
-14.58
-13.67
-12.93
-12.29
-11.66
-10.97
-10.17
-9.26
-8.30
-7.36
-6.51
-5.84
-5.39
-5.17
-5.15
-5.26
-5.39
-5.46
-5.41
-5.22
-4.96
-4.71
-4.60
-4.69
-5.00
-5.44
-5.89
-6.21
-6.30
-6.14
-5.77
-5.34
-4.98
-4.81
-4.87
-5.16
-5.65
-6.29
-7.00
-7.71
-8.33
-8.77
-8.98
-8.96
-8.77
-8.52
-8.31
-8.24
-8.30
-8.44
-8.52
-8.40
-7.94
-7.07
-5.80
-4.24
-2.58
-1.01
0.34
1.40
2.19
2.72
3.05
3.18
3.11
2.91
2.66
2.54
2.67
3.10
3.75
4.46
5.01
5.31
5.33
5.18
4.95
4.74
4.52
4.25
3.91
3.54
3.23
3.08
3.12
3.27
3.40
3.39
3.19
2.81
2.29
1.67
0.94
0.10
-0.80
-1.66
-2.39
-2.92
-3.29
-3.58
-3.92
-4.39
-4.99
-5.68
-6.42
-7.18
-7.91
-8.57
-9.02
-9.11
-8.71
-7.78
-6.42
-4.85
-3.29
-1.94
-0.90
-0.15
0.35
0.66
0.81
0.83
0.75
0.59
0.43
0.34
0.36
0.51
0.75
1.01
1.19
1.24
1.19
1.10
1.04
1.02
1.03
1.02
0.94
0.78
0.60
0.45
0.34
0.26
0.19
0.08
-0.06
-0.25
-0.47
-0.71
-0.93
-1.13
-1.31
-1.48
-1.69
-1.98
-2.38
-2.88
-3.48
-4.20
-5.07
-6.07
-7.13
-8.11
-8.81
-9.05
-8.71
-7.79
-6.41
-4.78
-3.11
-1.60
-0.34
0.66
1.47
2.14
2.68
3.04
3.19
3.15
3.06
3.11
3.46
4.14
5.05
6.01
6.85
7.45
7.76
7.82
7.63
7.27
6.80
6.30
5.86
5.50
5.21
4.95
4.67
4.35
4.02
3.71
3.47
3.32
3.23
3.12
2.90
2.47
1.80
0.95
0.08
-0.66
-1.18
-1.52
-1.83
-2.30
-3.01
-3.96
-5.06
-6.21
-7.29
-8.20
-8.80
-8.96
-8.58
-7.63
-6.23
-4.57
-2.89
-1.38
-0.15
0.78
1.45
1.96
2.41
2.89
3.40
3.90
4.27
4.46
4.45
4.32
4.19
4.13
4.16
4.21
4.22
4.14
4.01
3.89
3.85
3.89
3.94
3.89
3.65
3.18
2.50
1.75
1.06
0.58
0.36
0.39
0.53
0.63
0.57
0.28
-0.21
-0.83
-1.48
-2.09
-2.60
-3.01
-3.36
-3.72
-4.17
-4.74
-5.40
-6.05
-6.53
-6.67
-6.31
-5.37
-3.87
-1.97
0.01
1.76
2.96
3.47
3.34
2.78
2.05
1.38
0.87
0.53
0.31
0.17
0.03
-0.16
-0.44
-0.84
-1.31
-1.78
-2.17
-2.46
-2.63
-2.73
-2.77
-2.75
-2.65
-2.48
-2.31
-2.20
-2.20
-2.34
-2.60
-2.93
-3.28
-3.58
-3.72
-3.64
-3.33
-2.89
-2.49
-2.35
-2.63
-3.34
-4.37
-5.46
-6.38
-6.88
-6.85
-6.25
-5.10
-3.51
-1.61
0.44
2.49
4.43
6.18
7.71
9.04
10.16
11.07
11.74
12.19
12.47
12.69
12.96
13.37
13.90
14.52
15.14
15.66
16.04
16.24
16.24
16.03
15.58
14.91
14.05
13.04
11.97
10.88
9.79
8.65
7.41
5.99
4.41
2.71
1.01
-0.59
-2.04
-3.36
-4.60
-5.81
-6.99
-8.11
-9.11
-9.94
-10.54
-10.85
-10.75
-10.14
-8.97
-7.32
-5.35
-3.33
-1.46
0.16
1.53
2.75
3.89
4.98
5.95
6.70
7.15
7.27
7.14
6.87
6.56
6.24
5.89
5.45
4.92
4.33
3.72
3.09
2.38
1.51
0.39
-0.97
-2.47
-3.98
-5.35
-6.50
-7.46
-8.34
-9.25
-10.30
-11.50
-12.83
-14.15
-15.33
-16.23
-16.80
-17.04
-17.01
-16.81
-16.52
-16.26
-16.16
-16.34
-16.82
-17.50
-18.14
-18.40
-17.94
-16.62
-14.46
-11.68
-8.57
-5.43
-2.43
0.34
2.89
5.23
7.35
9.20
10.72
11.86
12.61
12.99
13.07
12.95
12.71
12.47
12.30
12.26
12.32
12.41
12.43
12.29
11.96
11.47
10.87
10.24
9.59
8.93
8.23
7.48
6.75
6.12
5.63
5.28
4.96
4.56
3.96
3.15
2.22
1.30
0.50
-0.15
-0.70
-1.26
-1.89
-2.58
-3.26
-3.90
-4.50
-5.13
-5.82
-6.52
-7.03
-7.12
-6.61
-5.48
-3.88
-2.10
-0.37
1.13
2.39
3.47
4.41
5.22
5.86
6.26
6.40
6.34
6.20
6.11
6.12
6.25
6.42
6.56
6.63
6.62
6.56
6.45
6.26
5.94
5.51
5.03
4.62
4.39
4.33
4.35
4.30
4.09
3.70
3.16
2.57
1.96
1.30
0.57
-0.21
-0.96
-1.54
-1.86
-1.93
-1.85
-1.81
-1.99
-2.48
-3.29
-4.34
-5.48
-6.53
-7.29
-7.63
-7.46
-6.77
-5.65
-4.22
-2.63
-1.07
0.33
1.47
2.32
2.87
3.21
3.43
3.54
3.52
3.30
2.88
2.34
1.87
1.66
1.79
2.21
2.71
3.13
3.32
3.26
3.03
2.71
2.31
1.86
1.32
0.69
0.04
-0.59
-1.14
-1.57
-1.84
-1.97
-1.99
-1.95
-1.95
-2.02
-2.20
-2.47
-2.84
-3.30
-3.88
-4.55
-5.24
-5.84
-6.22
-6.33
-6.24
-6.07
-6.01
-6.17
-6.58
-7.14
-7.66
-7.91
-7.71
-6.95
-5.69
-4.06
-2.29
-0.52
1.13
2.62
3.92
4.97
5.69
6.01
5.95
5.60
5.11
4.62
4.19
3.87
3.65
3.55
3.59
3.75
3.96
4.09
4.04
3.83
3.54
3.34
3.35
3.59
3.96
4.31
4.53
4.61
4.60
4.55
4.49
4.36
4.08
3.63
3.06
2.47
1.98
1.58
1.21
0.75
0.13
-0.64
-1.48
-2.28
-3.01
-3.63
-4.18
-4.63
-4.94
-5.01
-4.77
-4.19
-3.30
-2.20
-1.01
0.12
1.07
1.78
2.25
2.55
2.79
3.05
3.35
3.67
3.98
4.29
4.63
5.03
5.47
5.88
6.19
6.37
6.45
6.49
6.52
6.52
6.39
6.05
5.42
4.56
3.59
2.67
1.92
1.39
1.06
0.81
0.53
0.14
-0.37
-0.93
-1.43
-1.82
-2.11
-2.39
-2.76
-3.26
-3.87
-4.50
-5.07
-5.53
-5.88
-6.10
-6.13
-5.89
-5.29
-4.30
-3.01
-1.59
-0.23
0.91
1.81
2.52
3.14
3.71
4.23
4.65
4.86
4.84
4.62
4.33
4.09
4.01
4.08
4.23
4.33
4.30
4.15
3.92
3.69
3.48
3.26
2.97
2.58
2.11
1.62
1.18
0.79
0.46
0.11
-0.31
-0.80
-1.31
-1.72
-1.95
-1.96
-1.82
-1.63
-1.51
-1.52
-1.64
-1.82
-2.02
-2.27
-2.66
-3.30
-4.20
-5.25
-6.22
-6.85
-6.97
-6.55
-5.69
-4.57
-3.35
-2.15
-1.02
0.03
0.97
1.76
2.36
2.73
2.86
2.81
2.68
2.56
2.56
2.69
2.94
3.23
3.51
3.72
3.86
3.96
4.03
4.07
4.06
3.95
3.69
3.23
2.58
1.76
0.86
-0.03
-0.81
-1.43
-1.90
-2.29
-2.62
-2.89
-3.06
-3.11
-3.11
-3.20
-3.54
-4.23
-5.22
-6.32
-7.24
-7.76
-7.75
-7.27
-6.48
-5.55
-4.61
-3.69
-2.79
-1.90
-1.05
-0.33
0.20
0.53
0.73
0.90
1.15
1.49
1.85
2.14
2.29
2.28
2.15
1.97
1.79
1.64
1.53
1.47
1.49
1.59
1.72
1.82
1.78
1.57
1.22
0.81
0.45
0.17
-0.04
-0.24
-0.49
-0.81
-1.21
-1.66
-2.14
-2.65
-3.16
-3.61
-3.94
-4.16
-4.36
-4.65
-5.10
-5.59
-5.92
-5.81
-5.13
-3.93
-2.42
-0.90
0.41
1.41
2.13
2.65
3.01
3.25
3.34
3.31
3.20
3.08
3.02
3.06
3.20
3.39
3.52
3.49
3.26
2.87
2.45
2.15
2.07
2.16
2.32
2.37
2.23
1.89
1.44
1.01
0.69
0.54
0.58
0.76
1.04
1.32
1.47
1.39
1.00
0.32
-0.54
-1.43
-2.22
-2.84
-3.35
-3.84
-4.44
-5.22
-6.17
-7.16
-8.00
-8.50
-8.48
-7.92
-6.87
-5.51
-4.03
-2.62
-1.39
-0.36
0.44
1.04
1.46
1.71
1.86
1.93
1.98
2.02
2.06
2.13
2.25
2.48
2.81
3.17
3.43
3.48
3.27
2.87
2.42
2.07
1.93
2.01
2.26
2.56
2.79
2.85
2.66
2.20
1.53
0.76
0.01
-0.60
-1.06
-1.40
-1.68
-1.96
-2.25
-2.54
-2.82
-3.11
-3.46
-3.92
-4.46
-4.97
-5.28
-5.22
-4.69
-3.71
-2.44
-1.08
0.18
1.22
2.02
2.64
3.11
3.46
3.63
3.56
3.26
2.81
2.38
2.14
2.17
2.46
2.84
3.13
3.17
2.93
2.48
1.97
1.52
1.19
0.98
0.86
0.78
0.73
0.72
0.74
0.78
0.79
0.68
0.39
-0.07
-0.63
-1.15
-1.53
-1.73
-1.84
-1.98
-2.29
-2.81
-3.47
-4.15
-4.73
-5.13
-5.38
-5.51
-5.54
-5.42
-5.07
-4.42
-3.48
-2.33
-1.11
0.01
0.92
1.57
1.96
2.14
2.15
2.06
1.92
1.80
1.76
1.88
2.16
2.55
2.98
3.35
3.61
3.79
3.93
4.09
4.28
4.42
4.40
4.13
3.59
2.84
2.01
1.22
0.61
0.23
0.12
0.21
0.41
0.55
0.52
0.24
-0.26
-0.87
-1.46
-1.93
-2.23
-2.38
-2.38
-2.27
-2.13
-2.05
-2.20
-2.69
-3.51
-4.50
-5.39
-5.87
-5.77
-5.06
-3.88
-2.48
-1.07
0.16
1.13
1.81
2.22
2.41
2.44
2.41
2.40
2.48
2.67
2.95
3.22
3.39
3.41
3.31
3.18
3.13
3.22
3.45
3.71
3.85
3.78
3.51
3.12
2.75
2.51
2.41
2.38
2.32
2.13
1.81
1.38
0.93
0.50
0.07
-0.37
-0.85
-1.41
-2.01
-2.62
-3.17
-3.58
-3.83
-3.93
-4.00
-4.17
-4.56
-5.20
-5.95
-6.63
-7.01
-6.99
-6.57
-5.85
-4.99
-4.07
-3.16
-2.29
-1.51
-0.87
-0.41
-0.10
0.09
0.22
0.31
0.34
0.30
0.24
0.25
0.39
0.70
1.11
1.51
1.83
2.03
2.16
2.27
2.37
2.44
2.44
2.37
2.30
2.29
2.39
2.55
2.67
2.63
2.34
1.82
1.12
0.36
-0.38
-1.05
-1.61
-2.07
-2.45
-2.75
-2.98
-3.13
-3.26
-3.38
-3.57
-3.87
-4.30
-4.82
-5.36
-5.81
-6.04
-5.98
-5.59
-4.93
-4.06
-3.10
-2.14
-1.23
-0.44
0.21
0.71
1.06
1.31
1.50
1.66
1.80
1.95
2.11
2.32
2.58
2.90
3.26
3.63
3.97
4.32
4.72
5.16
5.58
5.82
5.74
5.27
4.47
3.49
2.53
1.70
1.03
0.49
0.05
-0.31
-0.59
-0.79
-0.95
-1.14
-1.42
-1.78
-2.19
-2.55
-2.83
-3.01
-3.16
-3.35
-3.63
-4.00
-4.40
-4.70
-4.78
-4.53
-3.95
-3.09
-2.04
-0.90
0.25
1.35
2.31
3.08
3.59
3.86
3.92
3.87
3.75
3.60
3.41
3.17
2.93
2.70
2.49
2.24
1.88
1.40
0.87
0.44
0.30
0.53
1.05
1.68
2.20
2.46
2.48
2.36
2.24
2.22
2.28
2.35
2.33
2.16
1.90
1.61
1.37
1.20
1.03
0.78
0.42
-0.01
-0.43
-0.74
-0.93
-1.07
-1.29
-1.74
-2.44
-3.33
-4.22
-4.89
-5.18
-5.03
-4.46
-3.55
-2.43
-1.19
0.06
1.23
2.23
3.00
3.48
3.66
3.59
3.32
2.95
2.57
2.31
2.23
2.34
2.59
2.81
2.88
2.72
2.35
1.90
1.50
1.24
1.13
1.13
1.16
1.17
1.10
0.94
0.66
0.25
-0.23
-0.69
-1.02
-1.15
-1.07
-0.84
-0.59
-0.40
-0.36
-0.47
-0.74
-1.11
-1.54
-1.98
-2.38
-2.76
-3.15
-3.63
-4.23
-4.89
-5.50
-5.85
-5.76
-5.14
-4.02
-2.58
-1.08
0.26
1.30
2.04
2.53
2.84
2.97
2.90
2.60
2.09
1.49
0.98
0.71
0.73
0.97
1.28
1.54
1.69
1.76
1.80
1.82
1.80
1.70
1.50
1.27
1.07
0.91
0.76
0.48
-0.02
-0.76
-1.63
-2.46
-3.09
-3.46
-3.58
-3.55
-3.48
-3.44
-3.48
-3.63
-3.91
-4.32
-4.81
-5.27
-5.54
-5.48
-5.01
-4.15
-3.07
-1.97
-1.03
-0.31
0.26
0.82
1.43
2.10
2.71
3.16
3.36
3.35
3.20
3.01
2.81
2.61
2.38
2.10
1.77
1.39
0.99
0.65
0.40
0.27
0.23
0.22
0.18
0.10
-0.00
-0.05
-0.01
0.10
0.22
0.25
0.13
-0.14
-0.56
-1.09
-1.69
-2.30
-2.85
-3.27
-3.52
-3.62
-3.64
-3.70
-3.85
-4.08
-4.28
-4.32
-4.10
-3.57
-2.79
-1.87
-0.92
-0.05
0.69
1.27
1.68
1.92
2.03
2.03
1.98
1.94
1.95
2.05
2.21
2.40
2.56
2.66
2.68
2.63
2.56
2.53
2.55
2.60
2.64
2.62
2.50
2.30
2.05
1.75
1.43
1.11
0.80
0.49
0.18
-0.16
-0.56
-1.01
-1.45
-1.80
-2.01
-2.10
-2.16
-2.30
-2.60
-3.10
-3.73
-4.41
-5.01
-5.41
-5.49
-5.19
-4.52
-3.57
-2.48
-1.37
-0.33
0.58
1.35
1.91
2.25
2.33
2.21
1.96
1.69
1.52
1.49
1.65
1.99
2.46
2.99
3.47
3.78
3.89
3.82
3.66
3.52
3.44
3.39
3.28
3.05
2.69
2.26
1.85
1.50
1.22
0.99
0.83
0.77
0.86
1.11
1.47
1.80
1.98
1.89
1.55
1.01
0.38
-0.25
-0.81
-1.31
-1.75
-2.22
-2.77
-3.45
-4.26
-5.08
-5.77
-6.11
-5.98
-5.32
-4.23
-2.86
-1.44
-0.18
0.79
1.41
1.69
1.70
1.53
1.29
1.10
1.06
1.22
1.62
2.21
2.92
3.62
4.23
4.63
4.77
4.63
4.27
3.79
3.34
3.04
2.95
3.03
3.16
3.16
2.94
2.45
1.80
1.08
0.41
-0.17
-0.65
-1.06
-1.42
-1.73
-1.98
-2.16
-2.29
-2.40
-2.55
-2.77
-3.07
-3.43
-3.80
-4.14
-4.44
-4.72
-4.99
-5.22
-5.39
-5.40
-5.20
-4.74
-4.01
-3.09
-2.05
-0.99
-0.02
0.77
1.33
1.61
1.59
1.34
0.93
0.54
0.34
0.50
1.06
1.91
2.86
3.65
4.10
4.18
3.96
3.57
3.12
2.62
2.08
1.48
0.86
0.30
-0.14
-0.41
-0.54
-0.57
-0.59
-0.64
-0.73
-0.85
-0.97
-1.07
-1.15
-1.21
-1.28
-1.40
-1.59
-1.86
-2.19
-2.52
-2.82
-3.03
-3.09
-2.95
-2.58
-1.93
-1.04
0.01
1.07
1.96
2.54
2.79
2.78
2.67
2.60
2.63
2.75
2.86
2.93
2.96
3.03
3.18
3.42
3.65
3.74
3.58
3.18
2.64
2.12
1.78
1.67
1.72
1.81
1.76
1.51
1.08
0.59
0.17
-0.14
-0.35
-0.58
-0.92
-1.39
-1.94
-2.47
-2.88
-3.14
-3.27
-3.35
-3.48
-3.76
-4.23
-4.86
-5.56
-6.20
-6.64
-6.78
-6.56
-6.01
-5.20
-4.22
-3.12
-1.98
-0.89
0.08
0.84
1.34
1.57
1.58
1.47
1.36
1.37
1.53
1.85
2.26
2.65
2.97
3.22
3.39
3.52
3.59
3.55
3.39
3.15
2.95
2.89
3.05
3.39
3.77
4.05
4.11
3.95
3.58
3.05
2.35
1.41
0.23
-1.17
-2.68
-4.12
-5.33
-6.17
-6.58
-6.59
-6.33
-5.96
-5.65
-5.55
-5.71
-6.03
-6.38
-6.56
-6.46
-6.01
-5.24
-4.23
-3.04
-1.76
-0.44
0.84
2.00
2.95
3.61
3.96
4.02
3.84
3.55
3.28
3.10
3.07
3.15
3.23
3.22
3.05
2.70
2.21
1.67
1.15
0.74
0.47
0.35
0.34
0.39
0.43
0.40
0.25
-0.01
-0.36
-0.74
-1.13
-1.47
-1.75
-1.98
-2.20
-2.46
-2.82
-3.32
-3.90
-4.46
-4.83
-4.86
-4.48
-3.70
-2.63
-1.41
-0.17
1.00
2.00
2.75
3.18
3.21
2.87
2.25
1.54
0.92
0.56
0.53
0.79
1.24
1.77
2.22
2.48
2.49
2.28
1.93
1.59
1.37
1.30
1.37
1.51
1.65
1.77
1.83
1.83
1.70
1.38
0.84
0.11
-0.67
-1.33
-1.77
-1.97
-2.03
-2.10
-2.33
-2.75
-3.33
-4.02
-4.73
-5.42
-6.07
-6.59
-6.86
-6.74
-6.12
-5.01
-3.54
-1.91
-0.34
1.05
2.23
3.20
4.00
4.59
4.92
4.94
4.70
4.31
3.93
3.71
3.69
3.83
3.97
3.96
3.75
3.38
2.99
2.71
2.58
2.57
2.57
2.46
2.22
1.93
1.69
1.58
1.61
1.73
1.84
1.87
1.80
1.63
1.37
1.02
0.60
0.13
-0.34
-0.77
-1.14
-1.40
-1.57
-1.64
-1.63
-1.60
-1.62
-1.81
-2.24
-2.94
-3.82
-4.72
-5.45
-5.85
-5.88
-5.59
-5.09
-4.49
-3.83
-3.07
-2.20
-1.23
-0.24
0.60
1.20
1.55
1.71
1.82
1.98
2.21
2.46
2.67
2.83
3.01
3.30
3.72
4.21
4.62
4.85
4.86
4.76
4.69
4.71
4.83
4.94
4.94
4.76
4.39
3.85
3.18
2.47
1.81
1.34
1.12
1.15
1.29
1.31
1.04
0.40
-0.48
-1.38
-2.11
-2.55
-2.77
-2.89
-3.03
-3.24
-3.51
-3.81
-4.09
-4.37
-4.67
-5.02
-5.40
-5.77
-6.02
-6.02
-5.68
-4.94
-3.82
-2.44
-0.99
0.33
1.38
2.07
2.45
2.58
2.55
2.42
2.27
2.19
2.25
2.53
3.01
3.57
4.01
4.15
3.92
3.39
2.73
2.19
1.91
1.92
2.15
2.49
2.81
3.00
2.98
2.68
2.12
1.38
0.59
-0.06
-0.47
-0.64
-0.67
-0.67
-0.73
-0.86
-1.01
-1.17
-1.35
-1.58
-1.87
-2.17
-2.41
-2.60
-2.82
-3.21
-3.86
-4.67
-5.38
-5.65
-5.27
-4.27
-2.94
-1.64
-0.62
0.06
0.53
0.95
1.42
1.91
2.31
2.54
2.62
2.61
2.62
2.72
2.91
3.12
3.32
3.45
3.54
3.59
3.66
3.74
3.82
3.81
3.65
3.30
2.77
2.14
1.52
0.99
0.57
0.24
-0.05
-0.33
-0.58
-0.79
-0.94
-1.05
-1.20
-1.41
-1.71
-2.05
-2.38
-2.65
-2.86
-3.02
-3.14
-3.22
-3.28
-3.38
-3.57
-3.89
-4.34
-4.85
-5.25
-5.43
-5.28
-4.81
-4.08
-3.19
-2.22
-1.21
-0.21
0.73
1.52
2.06
2.30
2.29
2.14
2.00
1.98
2.13
2.43
2.78
3.10
3.32
3.39
3.34
3.21
3.07
2.93
2.82
2.70
2.54
2.38
2.27
2.26
2.35
2.43
2.32
1.90
1.15
0.24
-0.59
-1.16
-1.41
-1.48
-1.54
-1.76
-2.16
-2.64
-3.07
-3.35
-3.50
-3.60
-3.81
-4.23
-4.94
-5.88
-6.96
-8.03
-8.96
-9.63
-9.97
-9.98
-9.71
-9.22
-8.58
-7.87
-7.16
-6.53
-6.06
-5.77
-5.66
-5.67
-5.74
-5.84
-6.01
-6.30
-6.74
-7.29
-7.87
-8.38
-8.73
-8.87
-8.78
-8.43
-7.76
-6.71
-5.22
-3.32
-1.15
1.05
3.00
4.50
5.53
6.20
6.70
7.20
7.76
8.30
8.68
8.79
8.63
8.34
8.09
7.99
8.05
8.14
8.07
7.68
6.96
5.95
4.79
3.59
2.44
1.40
0.54
-0.04
-0.22
0.04
0.68
1.49
2.21
2.67
2.85
2.88
2.98
3.33
3.93
4.67
5.34
5.75
5.80
5.52
5.06
4.60
4.28
4.17
4.25
4.43
4.62
4.74
4.72
4.53
4.13
3.51
2.71
1.82
0.95
0.20
-0.37
-0.77
-1.15
-1.66
-2.45
-3.56
-4.90
-6.26
-7.39
-8.04
-8.15
-7.84
-7.40
-7.16
-7.32
-7.87
-8.62
-9.28
-9.66
-9.70
-9.50
-9.17
-8.76
-8.16
-7.27
-6.01
-4.47
-2.84
-1.37
-0.22
0.55
0.98
1.13
1.05
0.78
0.39
-0.01
-0.32
-0.48
-0.54
-0.60
-0.77
-1.06
-1.35
-1.53
-1.48
-1.25
-0.93
-0.66
-0.48
-0.35
-0.18
0.10
0.44
0.75
0.90
0.81
0.51
0.09
-0.32
-0.65
-0.89
-1.07
-1.26
-1.52
-1.83
-2.20
-2.60
-2.99
-3.29
-3.39
-3.17
-2.55
-1.56
-0.34
0.91
1.96
2.72
3.16
3.38
3.47
3.50
3.49
3.47
3.52
3.69
4.05
4.57
5.12
5.55
5.70
5.52
5.09
4.57
4.10
3.80
3.66
3.64
3.67
3.72
3.78
3.89
4.05
4.23
4.38
4.46
4.48
4.46
4.46
4.48
4.49
4.42
4.23
3.91
3.53
3.15
2.80
2.42
1.95
1.37
0.75
0.25
0.03
0.19
0.71
1.45
2.23
2.89
3.40
3.79
4.11
4.44
4.74
4.97
5.05
4.95
4.72
4.47
4.31
4.31
4.46
4.69
4.91
5.05
5.07
4.96
4.72
4.34
3.83
3.24
2.65
2.19
1.94
1.93
2.09
2.29
2.42
2.41
2.27
2.03
1.75
1.44
1.10
0.69
0.16
-0.50
-1.27
-2.07
-2.82
-3.45
-3.94
-4.29
-4.53
-4.62
-4.52
-4.13
-3.42
-2.44
-1.35
-0.34
0.43
0.90
1.08
1.10
1.06
1.06
1.11
1.18
1.21
1.15
1.03
0.91
0.89
1.00
1.22
1.44
1.55
1.52
1.43
1.40
1.52
1.79
2.09
2.25
2.18
1.88
1.45
0.99
0.55
0.12
-0.34
-0.83
-1.30
-1.66
-1.79
-1.72
-1.52
-1.36
-1.37
-1.61
-2.07
-2.64
-3.26
-3.86
-4.45
-4.97
-5.38
-5.54
-5.38
-4.87
-4.14
-3.31
-2.52
-1.85
-1.29
-0.82
-0.46
-0.22
-0.10
-0.07
0.00
0.21
0.64
1.23
1.87
2.39
2.67
2.63
2.29
1.78
1.25
0.91
0.90
1.28
1.97
2.80
3.51
3.89
3.82
3.28
2.39
1.35
0.36
-0.39
-0.81
-0.88
-0.68
-0.38
-0.16
-0.15
-0.41
-0.93
-1.60
-2.25
-2.79
-3.12
-3.27
-3.27
-3.23
-3.24
-3.36
-3.60
-3.93
-4.26
-4.48
-4.53
-4.34
-3.92
-3.30
-2.54
-1.69
-0.81
0.02
0.74
1.28
1.59
1.68
1.59
1.39
1.15
0.94
0.81
0.75
0.79
0.90
1.09
1.38
1.75
2.15
2.51
2.73
2.74
2.52
2.12
1.65
1.22
0.87
0.63
0.44
0.26
0.05
-0.19
-0.47
-0.78
-1.13
-1.49
-1.80
-2.00
-2.04
-1.93
-1.75
-1.60
-1.59
-1.74
-2.02
-2.38
-2.78
-3.23
-3.76
-4.39
-5.08
-5.69
-6.05
-6.01
-5.49
-4.57
-3.43
-2.29
-1.32
-0.59
-0.06
0.36
0.73
1.06
1.32
1.47
1.51
1.48
1.44
1.44
1.47
1.51
1.49
1.41
1.28
1.17
1.09
1.08
1.11
1.15
1.12
1.00
0.76
0.44
0.12
-0.12
-0.23
-0.23
-0.18
-0.16
-0.24
-0.42
-0.66
-0.90
-1.10
-1.25
-1.39
-1.56
-1.75
-1.92
-2.02
-2.02
-1.95
-1.92
-2.03
-2.40
-3.03
-3.84
-4.64
-5.26
-5.56
-5.50
-5.10
-4.44
-3.57
-2.55
-1.43
-0.30
0.75
1.64
2.34
2.86
3.24
3.49
3.60
3.51
3.20
2.71
2.15
1.64
1.30
1.15
1.17
1.29
1.46
1.65
1.83
2.00
2.13
2.22
2.29
2.33
2.33
2.28
2.16
1.97
1.78
1.66
1.66
1.74
1.82
1.79
1.56
1.15
0.63
0.13
-0.28
-0.55
-0.70
-0.79
-0.91
-1.18
-1.68
-2.43
-3.37
-4.36
-5.21
-5.76
-5.92
-5.72
-5.23
-4.51
-3.63
-2.64
-1.59
-0.58
0.26
0.85
1.15
1.24
1.22
1.18
1.19
1.24
1.24
1.11
0.83
0.43
0.03
-0.25
-0.34
-0.21
0.09
0.47
0.80
1.00
1.01
0.82
0.48
0.06
-0.32
-0.56
-0.61
-0.49
-0.27
-0.08
0.02
-0.01
-0.10
-0.19
-0.23
-0.25
-0.34
-0.57
-0.97
-1.45
-1.90
-2.20
-2.33
-2.35
-2.39
-2.54
-2.80
-3.07
-3.21
-3.08
-2.61
-1.86
-0.95
-0.03
0.78
1.44
1.95
2.33
2.63
2.87
3.03
3.12
3.14
3.14
3.15
3.22
3.38
3.64
3.94
4.24
4.46
4.55
4.47
4.18
3.73
3.18
2.59
2.04
1.57
1.19
0.92
0.74
0.67
0.69
0.77
0.87
0.89
0.77
0.48
0.04
-0.47
-0.94
-1.33
-1.62
-1.86
-2.08
-2.32
-2.58
-2.88
-3.26
-3.79
-4.49
-5.34
-6.15
-6.68
-6.71
-6.17
-5.13
-3.84
-2.59
-1.57
-0.86
-0.38
-0.02
0.29
0.52
0.64
0.63
0.52
0.43
0.48
0.66
0.88
0.96
0.77
0.27
-0.47
-1.33
-2.20
-3.03
-3.88
-4.80
-5.85
-7.01
-8.24
-9.45
-10.53
-11.37
-11.90
-12.13
-12.19
-12.32
-12.85
-14.03
-16.02
-18.79
-22.13
-25.75
-29.32
-32.50
-35.02
-36.65
-37.27
-36.92
-35.70
-33.70
-30.96
-27.34
-22.69
-16.90
-10.10
-2.72
4.64
11.28
16.63
20.32
22.25
22.46
21.17
18.72
15.57
12.24
9.23
6.92
5.42
4.63
4.24
3.90
3.26
2.14
0.52
-1.39
-3.20
-4.45
-4.69
-3.68
-1.41
1.86
5.73
9.78
13.68
17.21
20.20
22.49
23.95
24.43
23.94
22.60
20.69
18.61
16.73
15.30
14.37
13.78
13.28
12.61
11.63
10.35
8.94
7.58
6.38
5.40
4.62
4.03
3.64
3.50
3.59
3.89
4.28
4.63
4.83
4.84
4.66
4.42
4.25
4.28
4.53
4.95
5.40
5.76
5.97
6.09
6.24
6.60
7.33
8.53
10.26
12.45
14.83
16.97
18.33
18.40
16.94
14.05
10.21
6.05
2.16
-1.07
-3.47
-5.07
-5.95
-6.24
-6.11
-5.75
-5.35
-5.04
-4.84
-4.66
-4.38
-3.95
-3.45
-3.03
-2.85
-3.01
-3.51
-4.29
-5.23
-6.24
-7.25
-8.14
-8.81
-9.14
-9.06
-8.59
-7.86
-7.01
-6.14
-5.31
-4.48
-3.58
-2.63
-1.70
-0.96
-0.53
-0.43
-0.54
-0.66
-0.62
-0.38
0.01
0.38
0.60
0.62
0.46
0.20
-0.07
-0.28
-0.40
-0.42
-0.37
-0.28
-0.21
-0.17
-0.14
-0.08
0.08
0.37
0.77
1.21
1.60
1.85
1.93
1.86
1.77
1.81
2.14
2.85
3.94
5.33
6.84
8.25
9.33
9.91
9.92
9.40
8.51
7.50
6.66
6.21
6.24
6.69
7.36
7.97
8.26
8.11
7.51
6.60
5.55
4.52
3.60
2.77
1.96
1.07
-0.01
-1.37
-3.10
-5.27
-7.85
-10.67
-13.44
-15.76
-17.27
-17.75
-17.23
-15.91
-14.08
-12.02
-9.94
-8.02
-6.39
-5.23
-4.67
-4.72
-5.21
-5.85
-6.26
-6.16
-5.44
-4.22
-2.73
-1.22
0.16
1.44
2.69
3.97
5.21
6.22
6.75
6.64
5.92
4.79
3.59
2.62
2.08
2.00
2.32
2.91
3.67
4.46
5.14
5.50
5.38
4.70
3.51
1.97
0.30
-1.30
-2.67
-3.73
-4.44
-4.77
-4.75
-4.42
-3.89
-3.30
-2.72
-2.17
-1.60
-0.97
-0.30
0.34
0.84
1.14
1.29
1.43
1.72
2.22
2.90
3.59
4.06
4.13
3.69
2.81
1.68
0.64
0.05
0.23
1.29
3.05
5.10
6.89
7.91
7.87
6.79
4.92
2.66
0.44
-1.45
-2.81
-3.62
-3.97
-4.04
-4.02
-4.06
-4.25
-4.57
-4.99
-5.45
-5.94
-6.47
-6.99
-7.39
-7.56
-7.42
-7.00
-6.45
-5.94
-5.60
-5.40
-5.17
-4.70
-3.90
-2.81
-1.67
-0.77
-0.34
-0.39
-0.78
-1.22
-1.44
-1.27
-0.73
0.07
0.99
1.93
2.80
3.58
4.21
4.61
4.75
4.68
4.53
4.50
4.73
5.27
6.00
6.70
7.15
7.20
6.85
6.23
5.56
5.06
4.86
4.94
5.19
5.41
5.43
5.15
4.58
3.79
2.89
1.98
1.15
0.46
-0.01
-0.22
-0.17
0.04
0.30
0.46
0.40
0.12
-0.33
-0.86
-1.35
-1.71
-1.87
-1.81
-1.56
-1.16
-0.71
-0.31
-0.08
-0.09
-0.35
-0.80
-1.34
-1.83
-2.20
-2.42
-2.47
-2.35
-2.04
-1.52
-0.81
-0.01
0.77
1.43
1.96
2.38
2.73
3.00
3.09
2.92
2.44
1.75
1.07
0.61
0.48
0.63
0.90
1.11
1.19
1.14
1.05
0.99
0.95
0.82
0.50
-0.03
-0.67
-1.25
-1.62
-1.70
-1.54
-1.25
-0.95
-0.72
-0.58
-0.54
-0.56
-0.61
-0.64
-0.57
-0.33
0.14
0.83
1.73
2.80
3.98
5.17
6.22
6.91
7.08
6.65
5.71
4.50
3.30
2.34
1.71
1.32
1.03
0.69
0.28
-0.19
-0.61
-0.90
-1.06
-1.12
-1.19
-1.38
-1.74
-2.23
-2.76
-3.18
-3.43
-3.54
-3.64
-3.88
-4.38
-5.10
-5.92
-6.66
-7.24
-7.69
-8.15
-8.75
-9.58
-10.62
-11.78
-12.96
-14.04
-14.95
-15.61
-15.96
-15.98
-15.69
-15.12
-14.33
-13.29
-11.87
-9.91
-7.23
-3.73
0.57
5.52
10.83
16.08
20.76
24.38
26.58
27.21
26.42
24.58
22.18
19.67
17.35
15.37
13.75
12.41
11.27
10.24
9.23
8.23
7.24
6.28
5.38
4.59
3.93
3.43
3.10
2.87
2.65
2.27
1.63
0.68
-0.44
-1.53
-2.35
-2.77
-2.85
-2.79
-2.85
-3.23
-3.96
-4.91
-5.87
-6.65
-7.16
-7.42
-7.51
-7.53
-7.54
-7.55
-7.55
-7.56
-7.63
-7.80
-8.09
-8.43
-8.68
-8.72
-8.45
-7.87
-7.07
-6.15
-5.19
-4.19
-3.08
-1.80
-0.34
1.23
2.74
4.04
5.02
5.66
6.03
6.24
6.33
6.27
6.03
5.59
5.00
4.43
4.00
3.82
3.87
4.06
4.26
4.36
4.33
4.15
3.85
3.52
3.27
3.24
3.51
4.10
4.84
5.53
5.98
6.08
5.90
5.63
5.44
5.48
5.73
6.03
6.22
6.12
5.70
5.02
4.26
3.59
3.13
2.89
2.81
2.78
2.70
2.56
2.39
2.27
2.20
2.12
1.95
1.64
1.25
0.92
0.82
0.99
1.34
1.67
1.77
1.52
0.96
0.21
-0.55
-1.21
-1.74
-2.24
-2.82
-3.58
-4.53
-5.58
-6.58
-7.39
-7.92
-8.14
-8.07
-7.71
-7.02
-5.97
-4.61
-3.11
-1.73
-0.74
-0.25
-0.22
-0.43
-0.69
-0.89
-1.07
-1.33
-1.75
-2.30
-2.89
-3.41
-3.79
-4.05
-4.24
-4.39
-4.47
-4.41
-4.14
-3.65
-2.97
-2.21
-1.47
-0.83
-0.31
0.08
0.39
0.62
0.77
0.80
0.70
0.47
0.21
0.01
-0.02
0.14
0.42
0.68
0.77
0.65
0.35
-0.00
-0.29
-0.47
-0.58
-0.66
-0.76
-0.82
-0.79
-0.58
-0.19
0.32
0.86
1.34
1.72
2.00
2.18
2.30
2.37
2.41
2.43
2.43
2.38
2.24
1.97
1.58
1.12
0.70
0.39
0.22
0.16
0.15
0.11
0.01
-0.13
-0.31
-0.49
-0.66
-0.82
-0.99
-1.14
-1.24
-1.26
-1.17
-1.01
-0.86
-0.83
-0.94
-1.15
-1.35
-1.38
-1.21
-0.92
-0.66
-0.59
-0.79
-1.16
-1.55
-1.81
-1.90
-1.87
-1.80
-1.76
-1.70
-1.53
-1.16
-0.57
0.21
1.08
1.91
2.57
2.96
3.04
2.84
2.45
2.00
1.61
1.36
1.23
1.16
1.08
0.93
0.70
0.40
0.05
-0.37
-0.84
-1.37
-1.94
-2.50
-2.99
-3.35
-3.54
-3.54
-3.42
-3.26
-3.16
-3.15
-3.20
-3.23
-3.16
-2.91
-2.48
-1.91
-1.33
-0.86
-0.62
-0.71
-1.10
-1.71
-2.36
-2.87
-3.11
-3.02
-2.66
-2.16
-1.63
-1.18
-0.85
-0.65
-0.52
-0.39
-0.21
0.08
0.47
0.94
1.42
1.86
2.20
2.41
2.49
2.45
2.32
2.12
1.89
1.65
1.40
1.14
0.85
0.52
0.16
-0.19
-0.49
-0.64
-0.58
-0.24
0.36
1.16
2.03
2.84
3.46
3.80
3.85
3.64
3.22
2.68
2.05
1.40
0.75
0.13
-0.44
-0.91
-1.26
-1.42
-1.35
-0.99
-0.31
0.61
1.66
2.62
3.30
3.58
3.48
3.15
2.79
2.56
2.45
2.40
2.26
1.96
1.55
1.13
0.81
0.62
0.50
0.31
-0.02
-0.50
-1.02
-1.44
-1.68
-1.74
-1.70
-1.66
-1.75
-2.02
-2.44
-2.92
-3.30
-3.47
-3.37
-3.07
-2.75
-2.60
-2.73
-3.11
-3.57
-3.89
-3.96
-3.79
-3.58
-3.54
-3.80
-4.34
-4.96
-5.40
-5.48
-5.14
-4.51
-3.80
-3.24
-2.96
-2.99
-3.28
-3.73
-4.21
-4.62
-4.89
-4.97
-4.82
-4.43
-3.80
-2.97
-2.01
-1.02
-0.10
0.69
1.33
1.82
2.20
2.43
2.46
2.26
1.79
1.14
0.45
-0.15
-0.56
-0.74
-0.70
-0.45
0.01
0.71
1.61
2.62
3.54
4.17
4.39
4.16
3.59
2.88
2.26
1.92
1.90
2.13
2.43
2.65
2.71
2.73
2.86
3.28
4.02
4.94
5.84
6.50
6.75
6.59
6.04
5.20
4.15
2.98
1.73
0.40
-1.11
-2.88
-4.92
-7.15
-9.31
-11.14
-12.47
-13.28
-13.75
-14.06
-14.41
-14.82
-15.22
-15.48
-15.51
-15.31
-14.89
-14.28
-13.47
-12.40
-10.97
-9.08
-6.65
-3.72
-0.48
2.82
5.89
8.51
10.59
12.23
13.59
14.90
16.26
17.56
18.65
19.36
19.62
19.47
19.06
18.58
18.24
18.12
18.08
18.02
17.93
17.78
17.55
17.20
16.70
16.27
15.99
15.73
15.58
15.70
16.21
17.17
18.58
20.40
22.88
26.06
29.53
33.40
38.00
43.62
50.34
57.95
65.93
73.92
81.19
86.39
88.78
88.02
83.92
76.55
66.27
51.57
33.70
17.56
4.34
-6.41
-15.00
-21.88
-27.46
-32.06
-35.87
-38.61
-40.31
-41.67
-42.91
-44.01
-44.92
-45.61
-46.09
-46.39
-46.25
-45.66
-45.01
-44.36
-43.54
-42.47
-41.21
-39.83
-38.44
-36.89
-35.11
-33.32
-31.55
-29.77
-28.01
-26.33
-24.74
-23.19
-21.54
-19.71
-17.87
-16.13
-14.56
-13.22
-12.10
-11.12
-10.16
-9.08
-7.79
-6.36
-4.87
-3.41
-2.07
-0.91
0.07
0.86
1.44
1.74
1.76
1.51
1.11
0.68
0.32
0.04
-0.27
-0.69
-1.29
-2.00
-2.70
-3.24
-3.54
-3.60
-3.49
-3.28
-3.05
-2.85
-2.77
-2.90
-3.34
-4.08
-5.03
-6.00
-6.80
-7.28
-7.41
-7.22
-6.83
-6.36
-5.92
-5.59
-5.41
-5.36
-5.36
-5.28
-4.97
-4.35
-3.41
-2.26
-1.04
0.12
1.13
1.95
2.61
3.11
3.45
3.61
3.60
3.44
3.18
2.89
2.61
2.33
2.07
1.81
1.59
1.42
1.33
1.26
1.17
0.99
0.71
0.35
-0.03
-0.38
-0.69
-0.98
-1.27
-1.58
-1.89
-2.18
-2.43
-2.67
-2.93
-3.23
-3.53
-3.76
-3.84
-3.74
-3.48
-3.13
-2.72
-2.27
-1.72
-1.04
-0.24
0.56
1.19
1.49
1.38
0.91
0.28
-0.27
-0.56
-0.54
-0.31
-0.04
0.11
0.09
-0.04
-0.18
-0.26
-0.27
-0.31
-0.45
-0.73
-1.14
-1.60
-2.04
-2.39
-2.64
-2.80
-2.88
-2.92
-2.97
-3.09
-3.32
-3.70
-4.23
-4.86
-5.52
-6.08
-6.44
-6.47
-6.16
-5.54
-4.73
-3.86
-3.02
-2.26
-1.58
-0.99
-0.51
-0.19
-0.06
-0.13
-0.33
-0.62
-0.94
-1.30
-1.69
-2.11
-2.54
-2.91
-3.22
-3.46
-3.71
-4.07
-4.58
-5.24
-6.01
-6.82
-7.65
-8.52
-9.48
-10.54
-11.67
-12.81
-13.88
-14.86
-15.78
-16.74
-17.86
-19.25
-20.94
-22.89
-25.00
-27.13
-29.16
-30.96
-32.42
-33.45
-33.95
-33.84
-33.09
-31.73
-29.89
-27.71
-25.24
-22.47
-19.30
-15.67
-11.70
-7.66
-3.94
-0.84
1.48
3.12
4.29
5.15
5.80
6.18
6.25
6.02
5.59
5.11
4.69
4.35
4.03
3.71
3.44
3.38
3.66
4.36
5.38
6.51
7.45
7.98
8.02
7.67
7.16
6.71
6.47
6.46
6.55
6.55
6.30
5.72
4.85
3.79
2.68
1.71
1.08
0.97
1.52
2.71
4.40
6.31
8.19
9.85
11.23
12.37
13.31
14.03
14.44
14.47
14.10
13.43
12.71
12.15
11.92
12.04
12.39
12.76
12.90
12.64
11.92
10.86
9.66
8.54
7.63
6.94
6.38
5.88
5.40
4.95
4.58
4.28
3.98
3.58
3.04
2.39
1.70
1.08
0.54
0.05
-0.42
-0.84
-1.10
-1.07
-0.71
-0.11
0.58
1.21
1.72
2.13
2.47
2.75
2.92
2.92
2.79
2.63
2.60
2.77
3.11
3.49
3.75
3.83
3.72
3.54
3.38
3.30
3.27
3.28
3.26
3.18
3.00
2.71
2.27
1.75
1.20
0.74
0.45
0.36
0.41
0.50
0.53
0.47
0.33
0.14
-0.11
-0.48
-1.11
-2.07
-3.36
-4.86
-6.36
-7.65
-8.60
-9.18
-9.40
-9.28
-8.80
-7.90
-6.51
-4.69
-2.55
-0.33
1.77
3.55
4.95
5.98
6.75
7.35
7.83
8.17
8.26
8.03
7.44
6.56
5.58
4.68
4.06
3.76
3.75
3.91
4.09
4.20
4.26
4.28
4.27
4.23
4.06
3.73
3.26
2.76
2.41
2.32
2.51
2.81
3.01
2.92
2.50
1.83
1.06
0.33
-0.30
-0.84
-1.35
-1.79
-2.12
-2.23
-2.03
-1.54
-0.83
-0.02
0.74
1.38
1.90
2.40
2.96
3.61
4.31
4.90
5.20
5.10
4.63
3.95
3.28
2.78
2.50
2.36
2.24
2.03
1.72
1.37
1.08
0.92
0.90
1.00
1.15
1.28
1.34
1.32
1.24
1.12
1.01
0.91
0.79
0.62
0.37
0.06
-0.31
-0.69
-1.07
-1.45
-1.83
-2.18
-2.47
-2.62
-2.59
-2.34
-1.85
-1.14
-0.22
0.82
1.93
2.97
3.85
4.46
4.75
4.76
4.58
4.33
4.14
4.08
4.18
4.43
4.81
5.27
5.75
6.17
6.44
6.50
6.34
6.00
5.61
5.27
5.04
4.85
4.63
4.26
3.68
2.92
2.07
1.25
0.56
0.04
-0.33
-0.60
-0.84
-1.09
-1.40
-1.81
-2.35
-3.03
-3.82
-4.65
-5.37
-5.81
-5.82
-5.36
-4.47
-3.31
-2.07
-0.92
0.10
1.05
1.98
2.93
3.79
4.39
4.57
4.29
3.67
2.93
2.29
1.87
1.66
1.63
1.76
2.12
2.76
3.66
4.66
5.53
6.08
6.27
6.23
6.13
6.11
6.18
6.19
5.98
5.45
4.60
3.57
2.53
1.63
0.93
0.41
-0.05
-0.56
-1.22
-2.06
-3.04
-4.06
-4.98
-5.69
-6.08
-6.08
-5.65
-4.78
-3.53
-2.04
-0.49
0.95
2.16
3.08
3.72
4.13
4.34
4.40
4.38
4.38
4.47
4.67
4.95
5.21
5.34
5.32
5.17
4.98
4.80
4.68
4.59
4.50
4.37
4.19
3.98
3.75
3.51
3.28
3.07
2.86
2.63
2.39
2.13
1.85
1.53
1.16
0.72
0.23
-0.32
-0.86
-1.36
-1.79
-2.21
-2.73
-3.46
-4.42
-5.51
-6.52
-7.19
-7.37
-7.02
-6.23
-5.17
-3.99
-2.78
-1.60
-0.47
0.58
1.52
2.31
2.94
3.39
3.70
3.90
4.05
4.20
4.42
4.68
4.94
5.11
5.12
4.95
4.68
4.41
4.25
4.28
4.51
4.85
5.19
5.39
5.32
4.93
4.25
3.42
2.53
1.71
0.98
0.33
-0.25
-0.75
-1.18
-1.49
-1.69
-1.84
-1.97
-2.13
-2.33
-2.58
-2.88
-3.29
-3.82
-4.45
-5.09
-5.58
-5.78
-5.59
-5.04
-4.25
-3.33
-2.38
-1.44
-0.50
0.41
1.25
1.91
2.30
2.39
2.25
2.02
1.83
1.81
1.98
2.27
2.61
2.90
3.11
3.26
3.40
3.54
3.65
3.68
3.60
3.42
3.20
2.99
2.80
2.58
2.25
1.78
1.22
0.70
0.34
0.20
0.23
0.34
0.36
0.21
-0.15
-0.68
-1.29
-1.89
-2.43
-2.87
-3.22
-3.51
-3.78
-4.07
-4.39
-4.71
-4.95
-5.03
-4.84
-4.37
-3.67
-2.87
-2.11
-1.48
-1.00
-0.62
-0.26
0.15
0.57
0.97
1.29
1.52
1.67
1.81
1.99
2.20
2.38
2.44
2.28
1.88
1.30
0.71
0.29
0.18
0.39
0.79
1.17
1.34
1.23
0.88
0.45
0.10
-0.11
-0.19
-0.26
-0.43
-0.76
-1.23
-1.71
-2.10
-2.34
-2.47
-2.57
-2.75
-3.05
-3.41
-3.68
-3.72
-3.44
-2.81
-1.92
-0.93
0.01
0.76
1.26
1.52
1.60
1.56
1.46
1.32
1.16
0.97
0.78
0.65
0.59
0.61
0.67
0.67
0.57
0.34
0.01
-0.31
-0.54
-0.61
-0.55
-0.45
-0.39
-0.46
-0.70
-1.06
-1.50
-1.95
-2.34
-2.67
-2.93
-3.14
-3.35
-3.59
-3.90
-4.28
-4.68
-5.00
-5.16
-5.08
-4.70
-4.01
-3.04
-1.86
-0.63
0.46
1.23
1.61
1.65
1.55
1.55
1.84
2.43
3.16
3.82
4.23
4.38
4.41
4.51
4.80
5.30
5.91
