1650276785.00
64.000000
-0.00
-0.00
-0.00
-0.00
-0.00
-0.00
-0.00
-0.00
-0.00
-0.00
0.00
0.01
0.01
-0.00
-0.03
-0.05
-0.05
0.00
0.13
0.36
0.66
1.01
1.37
1.72
2.06
2.40
2.79
3.24
3.80
4.42
5.06
5.66
6.20
6.68
7.15
7.68
8.31
9.14
10.09
11.04
11.89
12.57
13.14
13.76
14.65
15.96
17.91
20.31
22.91
25.41
27.63
29.63
31.70
34.26
37.61
42.16
47.58
53.39
59.03
64.12
68.71
73.24
78.37
84.61
92.50
101.59
111.11
120.19
128.25
135.27
141.77
149.04
155.75
164.22
175.14
188.73
203.83
217.48
225.20
222.15
204.80
172.25
127.02
73.21
15.42
-42.97
-100.48
-157.18
-213.59
-269.74
-324.86
-377.22
-425.39
-468.14
-504.59
-533.98
-555.41
-567.83
-570.01
-561.00
-540.18
-508.04
-465.95
-416.09
-361.13
-303.80
-246.49
-191.22
-139.73
-93.35
-53.02
-18.58
11.60
40.37
70.88
105.22
143.24
182.33
218.48
247.74
267.74
278.24
280.65
276.96
268.90
257.58
243.76
228.28
212.22
196.67
182.37
169.39
157.28
145.31
132.91
119.99
106.92
94.34
82.89
72.94
64.46
57.05
50.17
43.41
36.60
30.04
24.05
18.96
14.90
11.75
9.18
6.81
4.40
1.89
-0.57
-2.79
-4.54
-5.72
-6.34
-6.53
-6.50
-6.43
-6.46
-6.59
-6.78
-6.87
-6.77
-6.46
-6.04
-5.70
-5.62
-5.89
-6.47
-7.23
-7.98
-8.48
-8.53
-7.96
-6.72
-4.96
-3.01
-1.34
-0.32
-0.11
-0.59
-1.40
-2.16
-2.65
-2.88
-2.98
-3.13
-3.33
-3.45
-3.34
-2.93
-2.34
-1.78
-1.47
-1.51
-1.92
-2.50
-3.08
-3.47
-3.57
-3.36
-2.96
-2.56
-2.35
-2.43
-2.73
-3.06
-3.09
-2.59
-1.49
0.08
1.78
3.22
4.13
4.41
4.19
3.77
3.58
4.00
5.30
7.45
10.11
12.62
14.24
14.33
12.68
9.53
5.54
1.56
-1.70
-3.81
-4.76
-4.81
-4.34
-3.76
-3.36
-3.29
-3.59
-4.22
-5.07
-5.98
-6.79
-7.32
-7.49
-7.27
-6.72
-5.93
-5.03
-4.14
-3.34
-2.72
-2.31
-2.13
-2.19
-2.45
-2.90
-3.47
-4.10
-4.67
-5.08
-5.23
-5.07
-4.63
-4.01
-3.36
-2.81
-2.46
-2.30
-2.29
-2.34
-2.41
-2.48
-2.57
-2.77
-3.14
-3.70
-4.38
-5.04
-5.49
-5.62
-5.38
-4.93
-4.64
-4.99
-6.37
-8.95
-12.45
-16.21
-19.21
-20.29
-18.60
-13.96
-6.98
1.03
8.40
13.61
15.74
14.06
8.84
1.25
-7.10
-14.54
-19.76
-21.99
-21.08
-17.47
-11.98
-5.58
0.72
6.04
9.79
11.76
12.11
11.32
10.00
8.74
8.00
7.94
8.42
9.07
9.53
9.58
9.23
8.71
8.33
8.39
9.00
10.01
11.07
11.77
11.72
10.74
8.84
6.21
3.18
0.15
-2.48
-4.41
-5.41
-5.45
-4.71
-3.57
-2.51
-1.97
-2.20
-3.20
-4.70
-6.26
-7.50
-8.13
-8.14
-7.73
-7.24
-7.08
-7.54
-8.73
-10.56
-12.74
-14.87
-16.59
-17.60
-17.81
-17.24
-16.07
-14.55
-12.92
-11.39
-10.03
-8.87
-7.80
-6.71
-5.45
-3.90
-2.00
0.23
2.69
5.21
7.63
9.79
11.62
13.15
14.44
15.54
16.44
16.97
16.89
15.95
14.05
11.41
8.53
6.10
4.83
5.16
7.08
10.11
13.42
16.13
17.52
17.27
15.50
12.63
9.25
5.91
3.07
1.04
-0.00
-0.01
0.87
2.25
3.64
4.54
4.64
3.98
2.88
1.85
1.28
1.35
1.99
2.94
3.93
4.79
5.41
5.81
6.03
6.12
6.17
6.24
6.43
6.78
7.28
7.83
8.29
8.52
8.46
8.18
7.83
7.60
7.56
7.63
7.60
7.17
6.16
4.59
2.64
0.62
-1.17
-2.59
-3.61
-4.38
-5.05
-5.83
-6.88
-8.27
-10.01
-12.04
-14.25
-16.48
-18.59
-20.45
-21.99
-23.19
-24.11
-24.79
-25.26
-25.44
-25.18
-24.33
-22.81
-20.67
-18.14
-15.50
-13.04
-10.95
-9.33
-8.15
-7.40
-7.03
-6.99
-7.12
-7.19
-6.88
-5.85
-3.84
-0.77
3.20
7.71
12.29
16.45
19.84
22.29
23.83
24.72
25.29
25.86
26.59
27.42
28.05
28.10
27.31
25.76
23.78
21.78
19.91
17.87
14.95
10.28
3.28
-6.12
-17.38
-29.41
-40.76
-49.84
-55.19
-55.87
-51.76
-43.72
-33.39
-22.72
-13.31
-6.03
-0.94
2.46
4.72
6.23
7.17
7.68
8.03
8.59
9.72
11.53
13.85
16.32
18.55
20.28
21.47
22.19
22.58
22.69
22.45
21.77
20.53
18.66
16.23
13.37
10.30
7.23
4.32
1.63
-0.79
-2.93
-4.69
-5.91
-6.39
-6.12
-5.27
-4.28
-3.68
-3.93
-5.17
-7.23
-9.62
-11.78
-13.22
-13.66
-13.05
-11.50
-9.21
-6.41
-3.38
-0.46
1.95
3.54
4.11
3.71
2.66
1.44
0.57
0.42
1.15
2.68
4.71
6.88
8.85
10.36
11.30
11.66
11.55
11.12
10.51
9.83
9.10
8.28
7.25
5.95
4.32
2.43
0.39
-1.62
-3.43
-4.91
-5.92
-6.34
-6.05
-4.98
-3.15
-0.64
2.40
5.84
9.47
12.99
15.92
17.64
17.59
15.47
11.49
6.38
1.16
-3.15
-5.88
-6.87
-6.39
-4.95
-3.11
-1.28
0.28
1.48
2.30
2.76
2.92
2.85
2.64
2.39
2.22
2.23
2.46
2.90
3.44
3.89
4.03
3.73
2.98
1.90
0.71
-0.36
-1.13
-1.55
-1.62
-1.42
-1.07
-0.74
-0.65
-1.01
-1.97
-3.47
-5.17
-6.50
-6.85
-5.80
-3.37
0.01
3.58
6.53
8.28
8.63
7.75
6.04
3.99
1.98
0.25
-1.14
-2.26
-3.26
-4.38
-5.84
-7.79
-10.20
-12.82
-15.25
-17.00
-17.76
-17.51
-16.56
-15.48
-14.86
-15.12
-16.34
-18.23
-20.24
-21.67
-21.85
-20.30
-16.85
-11.76
-5.70
0.46
5.89
10.07
12.87
14.48
15.15
15.08
14.31
12.90
11.10
9.35
8.17
7.92
8.59
9.81
11.05
11.88
12.12
11.89
11.43
10.93
10.45
9.91
9.23
8.43
7.57
6.79
6.15
5.64
5.20
4.74
4.22
3.61
2.91
2.08
1.10
-0.03
-1.30
-2.68
-4.18
-5.84
-7.66
-9.57
-11.35
-12.68
-13.25
-12.98
-12.02
-10.80
-9.75
-9.19
-9.12
-9.34
-9.54
-9.49
-9.17
-8.63
-7.98
-7.24
-6.36
-5.31
-4.17
-3.13
-2.42
-2.20
-2.45
-3.00
-3.59
-3.97
-3.98
-3.53
-2.67
-1.48
-0.15
1.13
2.18
2.87
3.10
2.86
2.14
0.94
-0.70
-2.71
-4.90
-7.04
-8.92
-10.36
-11.33
-11.93
-12.35
-12.88
-13.81
-15.36
-17.68
-20.77
-24.43
-28.35
-32.16
-35.46
-38.01
-39.70
-40.60
-40.86
-40.67
-40.10
-39.07
-37.37
-34.69
-30.77
-25.49
-18.93
-11.38
-3.26
4.90
12.60
19.36
24.88
29.04
31.93
33.81
34.95
35.55
35.69
35.39
34.72
33.82
32.92
32.19
31.63
31.05
30.13
28.54
26.09
22.80
18.86
14.58
10.32
6.56
3.83
2.60
3.06
4.94
7.51
9.81
11.02
10.83
9.60
8.17
7.49
8.19
10.38
13.61
17.17
20.33
22.53
23.48
23.13
21.64
19.29
16.50
13.76
11.59
10.46
10.63
12.10
14.51
17.20
19.43
20.61
20.46
19.12
17.02
14.71
12.62
10.92
9.53
8.21
6.67
4.74
2.38
-0.27
-2.99
-5.53
-7.74
-9.50
-10.77
-11.50
-11.57
-10.86
-9.25
-6.81
-3.81
-0.71
1.90
3.46
3.60
2.20
-0.60
-4.38
-8.57
-12.49
-15.46
-16.94
-16.59
-14.48
-11.03
-7.00
-3.27
-0.60
0.54
0.11
-1.60
-4.12
-6.98
-9.83
-12.42
-14.61
-16.19
-17.00
-16.87
-15.81
-14.04
-11.90
-9.80
-7.97
-6.40
-4.84
-2.89
-0.28
3.04
6.79
10.48
13.56
15.62
16.46
16.13
14.87
12.95
10.67
8.28
5.92
3.71
1.75
0.14
-0.96
-1.43
-1.30
-0.77
-0.23
-0.15
-0.92
-2.60
-5.02
-7.78
-10.45
-12.72
-14.43
-15.53
-15.96
-15.66
-14.60
-12.90
-10.81
-8.77
-7.22
-6.44
-6.44
-6.91
-7.33
-7.15
-5.97
-3.72
-0.63
2.81
6.03
8.50
9.81
9.67
7.93
4.63
0.08
-5.11
-10.07
-13.91
-15.99
-16.09
-14.43
-11.56
-8.08
-4.48
-1.03
2.17
5.12
7.80
10.18
12.20
13.79
14.92
15.60
15.85
15.75
15.39
14.90
14.38
13.88
13.38
12.82
12.15
11.36
10.45
9.48
8.46
7.41
6.31
5.19
4.12
3.17
2.41
1.86
1.47
1.13
0.77
0.35
-0.13
-0.63
-1.06
-1.39
-1.57
-1.59
-1.45
-1.16
-0.74
-0.21
0.36
0.89
1.29
1.47
1.41
1.15
0.85
0.72
0.94
1.57
2.49
3.45
4.09
4.16
3.58
2.47
1.06
-0.37
-1.65
-2.70
-3.49
-4.00
-4.22
-4.14
-3.83
-3.43
-3.11
-3.03
-3.29
-3.88
-4.71
-5.65
-6.52
-7.16
-7.47
-7.43
-7.16
-6.85
-6.73
-6.94
-7.48
-8.20
-8.89
-9.41
-9.70
-9.89
-10.13
-10.54
-11.16
-11.87
-12.55
-13.03
-13.19
-12.93
-12.16
-10.78
-8.76
-6.21
-3.39
-0.70
1.50
2.95
3.56
3.37
2.47
0.90
-1.31
-4.11
-7.29
-10.46
-13.06
-14.45
-14.07
-11.61
-7.10
-1.01
5.79
12.23
17.28
20.24
20.96
19.83
17.60
15.08
12.86
11.22
10.15
9.48
9.01
8.60
8.18
7.71
7.21
6.68
6.15
5.61
5.06
4.56
4.17
4.05
4.29
4.93
5.84
6.75
7.34
7.32
6.53
4.97
2.79
0.25
-2.23
-4.17
-5.10
-4.69
-2.96
-0.33
2.50
4.72
5.76
5.41
3.93
1.88
-0.11
-1.52
-2.07
-1.74
-0.70
0.77
2.35
3.73
4.63
4.84
4.24
2.79
0.55
-2.35
-5.61
-8.77
-11.29
-12.65
-12.55
-11.10
-8.80
-6.35
-4.46
-3.51
-3.52
-4.17
-5.04
-5.79
-6.34
-6.77
-7.28
-7.99
-8.84
-9.64
-10.05
-9.78
-8.61
-6.56
-3.85
-0.90
1.80
3.75
4.56
4.13
2.63
0.53
-1.50
-2.81
-2.94
-1.76
0.50
3.33
6.14
8.36
9.64
9.86
9.16
7.92
6.64
5.85
5.85
6.62
7.70
8.35
7.88
5.92
2.60
-1.46
-5.43
-8.57
-10.47
-11.12
-10.83
-10.08
-9.30
-8.80
-8.68
-8.87
-9.16
-9.32
-9.17
-8.64
-7.79
-6.78
-5.75
-4.83
-4.05
-3.38
-2.76
-2.18
-1.67
-1.25
-0.94
-0.71
-0.52
-0.35
-0.28
-0.46
-1.04
-2.08
-3.51
-5.11
-6.62
-7.84
-8.73
-9.31
-9.64
-9.72
-9.53
-9.10
-8.53
-8.07
-7.97
-8.39
-9.34
-10.63
-11.99
-13.10
-13.62
-13.30
-11.89
-9.34
-5.80
-1.72
2.23
5.33
7.04
7.16
5.89
3.70
1.18
-1.22
-3.28
-4.99
-6.56
-8.17
-9.95
-11.87
-13.73
-15.21
-15.96
-15.73
-14.46
-12.31
-9.61
-6.78
-4.13
-1.84
0.02
1.46
2.47
3.01
3.06
2.61
1.75
0.67
-0.40
-1.13
-1.14
0.01
2.67
6.99
12.75
19.29
25.70
31.01
34.51
35.92
35.37
33.28
30.14
26.43
22.52
18.82
15.77
13.85
13.40
14.47
16.66
19.15
20.94
21.17
19.47
16.06
11.67
7.22
3.48
0.84
-0.74
-1.51
-1.80
-1.78
-1.50
-0.94
-0.11
0.91
1.98
2.94
3.68
4.16
4.43
4.58
4.74
4.99
5.36
5.82
6.25
6.56
6.69
6.64
6.51
6.39
6.41
6.63
7.04
7.56
8.06
8.38
8.35
7.87
6.92
5.61
4.12
2.66
1.40
0.42
-0.29
-0.83
-1.33
-1.96
-2.79
-3.82
-4.91
-5.84
-6.40
-6.45
-6.02
-5.29
-4.49
-3.81
-3.31
-2.92
-2.56
-2.23
-2.03
-2.12
-2.61
-3.54
-4.76
-6.06
-7.23
-8.10
-8.62
-8.86
-8.89
-8.82
-8.73
-8.62
-8.45
-8.18
-7.74
-7.13
-6.43
-5.73
-5.13
-4.68
-4.37
-4.17
-4.08
-4.13
-4.34
-4.69
-5.09
-5.36
-5.32
-4.85
-3.99
-2.87
-1.65
-0.47
0.62
1.64
2.65
3.66
4.63
5.47
6.11
6.49
6.61
6.53
6.31
6.01
5.68
5.30
4.85
4.32
3.70
3.03
2.36
1.72
1.11
0.53
-0.06
-0.67
-1.30
-1.91
-2.45
-2.89
-3.23
-3.51
-3.73
-3.89
-3.90
-3.65
-3.14
-2.45
-1.81
-1.43
-1.45
-1.80
-2.24
-2.52
-2.51
-2.26
-1.97
-1.88
-2.13
-2.75
-3.62
-4.54
-5.28
-5.54
-5.07
-3.74
-1.62
0.95
3.41
5.19
5.90
5.46
4.17
2.50
0.94
-0.18
-0.73
-0.76
-0.37
0.32
1.27
2.48
4.00
5.83
7.90
9.92
11.50
12.19
11.65
9.87
7.20
4.21
1.49
-0.56
-1.89
-2.73
-3.40
-4.13
-4.98
-5.83
-6.50
-6.92
-7.12
-7.21
-7.29
-7.32
-7.17
-6.65
-5.63
-4.14
-2.40
-0.68
0.76
1.87
2.72
3.52
4.46
5.65
7.06
8.62
10.24
11.84
13.39
14.90
16.43
18.02
19.69
21.43
23.12
24.55
25.43
25.42
24.21
21.58
17.48
12.05
5.60
-1.41
-8.53
-15.31
-21.44
-26.66
-30.79
-33.70
-35.35
-35.86
-35.50
-34.53
-33.13
-31.23
-28.63
-25.16
-20.89
-16.31
-12.21
-9.42
-8.52
-9.66
-12.55
-16.55
-20.95
-25.02
-28.18
-30.02
-30.45
-29.75
-28.58
-27.78
-28.11
-29.97
-33.20
-37.23
-41.21
-44.38
-46.16
-46.25
-44.62
-41.46
-37.22
-32.59
-28.39
-25.36
-23.91
-24.01
-25.23
-26.99
-28.85
-30.63
-32.36
-34.09
-35.70
-36.85
-37.07
-36.00
-33.51
-29.79
-25.26
-20.41
-15.67
-11.34
-7.59
-4.48
-1.96
0.11
1.95
3.83
5.99
8.58
11.58
14.85
18.20
21.45
24.55
27.58
30.70
34.08
37.79
41.71
45.56
48.95
51.48
52.90
53.16
52.39
50.88
48.90
46.63
44.16
41.55
38.90
36.47
34.66
33.91
34.52
36.53
39.60
43.04
45.98
47.59
47.32
44.99
40.85
35.45
29.45
23.52
18.22
13.98
11.05
9.55
9.47
10.63
12.79
15.61
18.75
21.85
24.57
26.69
28.13
29.08
29.92
31.09
32.87
35.25
37.83
40.04
41.29
41.18
39.50
36.23
31.39
25.11
17.69
9.66
1.73
-5.39
-11.39
-16.44
-21.19
-26.37
-32.39
-39.07
-45.69
-51.45
-55.83
-58.99
-61.55
-64.18
-67.05
-69.61
-70.79
-69.55
-65.42
-58.80
-50.69
-42.29
-34.46
-27.54
-21.42
-15.90
-10.90
-6.58
-3.17
-0.80
0.65
1.49
2.13
2.88
3.94
5.29
6.80
8.25
9.40
10.09
10.26
9.97
9.33
8.45
7.32
5.89
4.13
2.13
0.11
-1.61
-2.74
-3.12
-2.75
-1.71
-0.10
1.98
4.39
6.94
9.34
11.26
12.45
12.87
12.67
12.15
11.65
11.40
11.46
11.72
11.93
11.83
11.16
9.78
7.67
4.97
1.95
-1.03
-3.68
-5.78
-7.32
-8.45
-9.41
-10.49
-11.91
-13.78
-16.04
-18.43
-20.56
-21.91
-22.05
-20.74
-18.08
-14.42
-10.31
-6.29
-2.77
0.10
2.34
4.08
5.51
6.73
7.85
8.89
9.85
10.73
11.49
12.14
12.65
13.05
13.41
13.86
14.52
15.47
16.70
18.11
19.49
20.61
21.26
21.33
20.81
19.86
18.69
17.55
16.60
15.87
15.18
14.30
12.97
11.09
8.75
6.20
3.68
1.36
-0.74
-2.70
-4.61
-6.46
-8.13
-9.46
-10.30
-10.64
-10.59
-10.34
-10.08
-9.86
-9.58
-9.11
-8.31
-7.22
-5.96
-4.71
-3.57
-2.49
-1.33
0.05
1.68
3.48
5.32
7.14
8.95
10.75
12.38
13.48
13.57
12.28
9.57
5.81
1.69
-2.07
-4.99
-6.93
-8.10
-8.85
-9.55
-10.36
-11.35
-12.46
-13.67
-15.01
-16.54
-18.25
-19.94
-21.25
-21.69
-20.83
-18.47
-14.76
-10.15
-5.20
-0.46
3.77
7.40
10.52
13.29
15.82
18.11
20.11
21.75
23.01
23.92
24.50
24.68
24.31
23.15
21.06
18.04
14.33
10.29
6.29
2.62
-0.59
-3.29
-5.49
-7.16
-8.33
-9.08
-9.57
-9.96
-10.40
-10.94
-11.57
-12.30
-13.15
-14.18
-15.35
-16.52
-17.45
-17.85
-17.58
-16.66
-15.26
-13.60
-11.79
-9.85
-7.75
-5.48
-3.14
-0.93
0.95
2.39
3.40
4.09
4.63
5.22
5.94
6.82
7.77
8.67
9.36
9.78
9.96
9.95
9.83
9.58
9.12
8.34
7.19
5.74
4.16
2.60
1.19
-0.10
-1.32
-2.53
-3.72
-4.82
-5.81
-6.70
-7.57
-8.48
-9.48
-10.53
-11.52
-12.33
-12.83
-12.91
-12.51
-11.61
-10.20
-8.34
-6.11
-3.59
-0.89
1.87
4.54
6.94
8.89
10.27
11.00
11.12
10.71
9.89
8.77
7.51
6.24
5.12
4.21
3.51
2.92
2.32
1.61
0.73
-0.33
-1.54
-2.90
-4.38
-5.90
-7.31
-8.43
-9.08
-9.19
-8.81
-8.13
-7.39
-6.82
-6.57
-6.64
-6.93
-7.24
-7.34
-7.02
-6.12
-4.58
-2.46
0.05
2.73
5.33
7.69
9.72
11.39
12.72
13.68
14.26
14.42
14.20
13.70
13.07
12.47
12.06
11.94
12.13
12.59
13.23
13.92
14.51
14.86
14.88
14.55
13.89
12.95
11.72
10.22
8.43
6.44
4.40
2.54
1.11
0.28
0.05
0.25
0.60
0.81
0.71
0.24
-0.53
-1.51
-2.59
-3.76
-5.06
-6.50
-8.07
-9.68
-11.15
-12.27
-12.82
-12.71
-11.91
-10.55
-8.79
-6.84
-4.82
-2.84
-0.94
0.84
2.45
3.84
5.00
5.95
6.76
7.51
8.24
8.95
9.61
10.20
10.66
10.99
11.14
11.13
10.94
10.59
10.04
9.24
8.09
6.60
4.85
3.08
1.59
0.61
0.23
0.34
0.70
1.05
1.20
1.03
0.51
-0.34
-1.46
-2.68
-3.74
-4.34
-4.28
-3.50
-2.16
-0.55
1.05
2.45
3.61
4.57
5.41
6.14
6.68
6.90
6.63
5.70
3.97
1.39
-1.99
-5.89
-9.90
-13.53
-16.42
-18.40
-19.56
-20.09
-20.18
-19.91
-19.22
-18.02
-16.27
-14.06
-11.55
-8.92
-6.31
-3.75
-1.21
1.33
3.87
6.30
8.45
10.17
11.37
12.07
12.42
12.60
12.77
12.96
13.03
12.76
11.95
10.54
8.65
6.58
4.70
3.31
2.54
2.31
2.39
2.50
2.45
2.14
1.60
0.91
0.14
-0.60
-1.21
-1.53
-1.41
-0.83
0.05
0.85
1.16
0.64
-0.76
-2.81
-5.04
-6.98
-8.30
-8.90
-8.85
-8.25
-7.21
-5.73
-3.83
-1.58
0.79
2.99
4.76
6.00
6.79
7.35
7.92
8.61
9.38
10.07
10.49
10.51
10.08
9.22
7.98
6.37
4.38
2.03
-0.60
-3.36
-6.06
-8.53
-10.63
-12.26
-13.39
-14.05
-14.29
-14.24
-14.05
-13.88
-13.85
-14.01
-14.35
-14.79
-15.22
-15.55
-15.75
-15.81
-15.75
-15.55
-15.15
-14.42
-13.24
-11.58
-9.52
-7.24
-4.92
-2.65
-0.34
2.18
5.13
8.60
12.52
16.67
20.78
24.61
27.93
30.53
32.21
32.82
32.35
30.98
29.04
26.97
25.10
23.60
22.40
21.33
20.21
18.94
17.59
16.30
15.24
14.54
14.18
14.06
13.91
13.38
12.13
9.92
6.72
2.76
-1.55
-5.75
-9.38
-12.19
-14.03
-14.94
-15.00
-14.41
-13.43
-12.36
-11.50
-11.01
-10.89
-10.97
-11.00
-10.77
-10.18
-9.25
-8.05
-6.67
-5.14
-3.53
-1.97
-0.66
0.21
0.52
0.31
-0.21
-0.76
-1.11
-1.19
-1.07
-0.94
-0.99
-1.29
-1.80
-2.43
-3.09
-3.79
-4.59
-5.53
-6.62
-7.81
-9.06
-10.35
-11.67
-12.99
-14.17
-15.01
-15.36
-15.23
-14.87
-14.65
-14.88
-15.66
-16.81
-17.94
-18.73
-19.00
-18.82
-18.38
-17.86
-17.35
-16.81
-16.18
-15.40
-14.46
-13.42
-12.36
-11.37
-10.51
-9.80
-9.21
-8.68
-8.14
-7.57
-7.01
-6.58
-6.40
-6.51
-6.80
-7.04
-6.97
-6.43
-5.43
-4.15
-2.78
-1.40
0.04
1.66
3.48
5.35
6.95
7.98
8.35
8.22
7.96
7.89
8.15
8.62
9.04
9.22
9.10
8.78
8.39
8.02
7.63
7.10
6.27
5.01
3.34
1.38
-0.65
-2.54
-4.06
-5.12
-5.69
-5.85
-5.68
-5.24
-4.57
-3.73
-2.78
-1.85
-0.98
-0.15
0.77
1.91
3.26
4.62
5.57
5.69
4.73
2.76
0.17
-2.45
-4.59
-5.97
-6.64
-6.88
-7.10
-7.68
-8.87
-10.70
-12.90
-14.95
-16.13
-15.72
-13.28
-8.78
-2.72
4.05
10.47
15.62
18.90
20.05
19.18
16.63
12.88
8.50
4.04
0.05
-3.03
-4.96
-5.71
-5.51
-4.73
-3.80
-3.05
-2.61
-2.46
-2.42
-2.30
-1.94
-1.24
-0.14
1.33
3.11
5.02
6.85
8.40
9.51
10.16
10.36
10.16
9.55
8.47
6.86
4.69
2.07
-0.79
-3.60
-6.09
-8.03
-9.27
-9.71
-9.33
-8.20
-6.49
-4.46
-2.47
-0.84
0.21
0.65
0.67
0.54
0.51
0.71
1.10
1.54
1.87
2.00
1.93
1.71
1.44
1.16
0.91
0.72
0.61
0.59
0.64
0.73
0.78
0.75
0.61
0.40
0.18
0.04
0.03
0.16
0.37
0.59
0.70
0.64
0.39
-0.01
-0.43
-0.70
-0.73
-0.48
-0.04
0.42
0.75
0.89
0.87
0.78
0.72
0.68
0.61
0.46
0.23
-0.00
-0.16
-0.23
-0.29
-0.43
-0.74
-1.14
-1.48
-1.59
-1.41
-0.99
-0.51
-0.13
0.06
0.07
-0.01
-0.11
-0.16
-0.15
-0.09
0.02
0.19
0.42
0.68
0.92
1.04
0.98
0.74
0.39
0.07
-0.10
-0.05
0.17
0.42
0.55
0.49
0.26
-0.00
-0.16
-0.12
0.12
0.45
0.72
0.80
0.64
0.25
-0.27
-0.83
-1.34
-1.75
-2.02
-2.13
-2.05
-1.80
-1.47
-1.13
-0.90
-0.80
-0.83
-0.88
-0.87
-0.74
-0.50
-0.20
0.08
0.27
0.36
0.37
0.36
0.38
0.46
0.58
0.69
0.72
0.64
0.52
0.45
0.53
0.76
1.10
1.41
1.60
1.61
1.48
1.28
1.05
0.82
0.56
0.26
-0.07
-0.39
-0.65
-0.84
-0.97
-1.05
-1.10
-1.13
-1.13
-1.06
-0.94
-0.77
-0.58
-0.42
-0.27
-0.15
-0.06
0.02
0.07
0.07
0.04
-0.02
-0.03
0.04
0.23
0.49
0.76
0.93
0.96
0.85
0.67
0.51
0.42
0.43
0.48
0.52
0.51
0.49
0.51
0.63
0.82
1.00
1.07
0.95
0.67
0.30
-0.05
-0.31
-0.48
-0.60
-0.72
-0.85
-0.98
-1.08
-1.15
-1.24
-1.36
-1.53
-1.68
-1.76
-1.73
-1.60
-1.42
-1.27
-1.17
-1.08
-0.92
-0.61
-0.17
0.33
0.75
0.95
0.91
0.68
0.38
0.12
-0.02
-0.06
-0.04
0.04
0.19
0.45
0.83
1.27
1.67
1.89
1.86
1.64
1.33
1.07
0.92
0.92
1.00
1.11
1.23
1.33
1.41
1.44
1.43
1.36
1.23
1.06
0.86
0.64
0.44
0.28
0.17
0.10
0.02
-0.10
-0.28
-0.48
-0.62
-0.67
-0.63
-0.62
-0.73
-1.00
-1.41
-1.81
-2.07
-2.12
-1.97
-1.69
-1.40
-1.15
-0.95
-0.78
-0.59
-0.38
-0.17
-0.02
0.06
0.06
0.01
-0.03
-0.04
-0.01
0.05
0.12
0.20
0.27
0.34
0.37
0.34
0.26
0.15
0.06
0.06
0.20
0.49
0.91
1.36
1.73
1.92
1.92
1.75
1.51
1.33
1.27
1.33
1.42
1.44
1.32
1.04
0.66
0.26
-0.07
-0.29
-0.43
-0.51
-0.55
-0.57
-0.55
-0.51
-0.49
-0.54
-0.67
-0.86
-1.02
-1.07
-1.01
-0.92
-0.94
-1.20
-1.65
-2.19
-2.58
-2.66
-2.38
-1.87
-1.29
-0.82
-0.50
-0.32
-0.20
-0.09
0.00
0.08
0.14
0.24
0.44
0.78
1.20
1.56
1.75
1.70
1.45
1.16
0.95
0.93
1.10
1.35
1.62
1.86
2.04
2.15
2.16
2.06
1.83
1.54
1.29
1.16
1.18
1.27
1.35
1.31
1.10
0.78
0.46
0.26
0.26
0.45
0.72
0.93
0.96
0.78
0.46
0.10
-0.21
-0.42
-0.57
-0.71
-0.87
-1.02
-1.13
-1.18
-1.21
-1.30
-1.49
-1.77
-2.04
-2.17
-2.07
-1.71
-1.18
-0.57
-0.01
0.40
0.62
0.67
0.58
0.44
0.31
0.24
0.24
0.30
0.40
0.54
0.72
0.95
1.23
1.49
1.68
1.76
1.76
1.75
1.80
1.92
2.04
2.08
1.95
1.65
1.25
0.86
0.55
0.35
0.24
0.20
0.20
0.24
0.33
0.42
0.51
0.57
0.59
0.59
0.60
0.58
0.49
0.28
-0.07
-0.51
-0.95
-1.29
-1.45
-1.43
-1.28
-1.11
-1.00
-1.01
-1.14
-1.32
-1.50
-1.59
-1.57
-1.44
-1.23
-1.00
-0.76
-0.53
-0.33
-0.13
0.04
0.17
0.25
0.30
0.32
0.34
0.36
0.37
0.37
0.38
0.45
0.56
0.70
0.84
0.93
0.98
1.02
1.08
1.16
1.22
1.18
1.01
0.73
0.45
0.31
0.37
0.60
0.87
1.01
0.95
0.70
0.38
0.13
0.04
0.08
0.17
0.20
0.11
-0.07
-0.25
-0.34
-0.33
-0.27
-0.27
-0.39
-0.62
-0.89
-1.08
-1.14
-1.06
-0.93
-0.84
-0.87
-1.00
-1.19
-1.33
-1.36
-1.25
-1.04
-0.78
-0.52
-0.30
-0.19
-0.20
-0.35
-0.59
-0.81
-0.90
-0.76
-0.39
0.11
0.64
1.08
1.41
1.62
1.74
1.76
1.62
1.34
1.00
0.74
0.67
0.82
1.09
1.31
1.34
1.13
0.78
0.41
0.14
0.01
0.02
0.12
0.28
0.45
0.59
0.63
0.54
0.32
0.04
-0.22
-0.38
-0.43
-0.39
-0.28
-0.15
-0.02
0.07
0.08
-0.03
-0.24
-0.50
-0.72
-0.81
-0.74
-0.58
-0.42
-0.36
-0.42
-0.56
-0.69
-0.72
-0.62
-0.42
-0.18
0.03
0.23
0.46
0.76
1.10
1.40
1.54
1.47
1.24
0.95
0.74
0.67
0.71
0.79
0.83
0.82
0.79
0.77
0.76
0.77
0.77
0.76
0.76
0.75
0.73
0.70
0.65
0.58
0.49
0.34
0.11
-0.22
-0.61
-1.01
-1.33
-1.53
-1.61
-1.58
-1.46
-1.30
-1.09
-0.85
-0.60
-0.36
-0.15
0.01
0.08
0.02
-0.18
-0.47
-0.75
-0.87
-0.73
-0.36
0.13
0.57
0.80
0.76
0.50
0.15
-0.17
-0.39
-0.48
-0.48
-0.42
-0.31
-0.13
0.12
0.42
0.74
1.04
1.29
1.50
1.64
1.67
1.49
1.04
0.32
-0.55
-1.35
-1.88
-2.07
-1.98
-1.81
-1.72
-1.81
-2.00
-2.13
-2.01
-1.55
-0.79
0.14
1.04
1.71
1.98
1.76
1.05
-0.04
-1.26
-2.33
-2.93
-2.90
-2.30
-1.42
-0.69
-0.50
-1.03
-2.10
-3.28
-4.05
-4.11
-3.51
-2.66
-2.18
-2.58
-4.09
-6.50
-9.33
-11.89
-13.51
-13.61
-11.80
-8.03
-2.65
3.51
9.23
13.22
14.52
12.87
8.84
3.68
-1.15
-4.46
-5.66
-4.89
-2.82
-0.35
1.76
3.04
3.39
2.96
2.01
0.82
-0.35
-1.28
-1.84
-1.95
-1.68
-1.19
-0.68
-0.35
-0.30
-0.46
-0.66
-0.68
-0.36
0.36
1.36
2.39
3.13
3.35
2.92
1.95
0.65
-0.68
-1.78
-2.49
-2.81
-2.78
-2.50
-2.07
-1.57
-1.04
-0.52
-0.05
0.33
0.57
0.62
0.46
0.10
-0.43
-1.07
-1.73
-2.37
-2.92
-3.39
-3.79
-4.19
-4.63
-5.11
-5.58
-5.98
-6.23
-6.28
-6.10
-5.63
-4.86
-3.77
-2.44
-1.00
0.38
1.53
2.35
2.84
3.07
3.12
3.04
2.85
2.58
2.24
1.89
1.58
1.35
1.16
0.99
0.77
0.44
-0.03
-0.64
-1.34
-2.09
-2.82
-3.48
-4.04
-4.53
-4.98
-5.41
-5.87
-6.36
-6.93
-7.62
-8.50
-9.61
-10.95
-12.40
-13.73
-14.68
-15.02
-14.69
-13.78
-12.56
-11.32
-10.26
-9.36
-8.47
-7.27
-5.45
-2.80
0.68
4.75
8.93
12.59
15.14
16.20
15.75
14.20
12.17
10.34
9.17
8.83
9.22
10.16
11.51
13.22
15.30
17.64
19.98
21.88
22.84
22.49
20.71
17.72
14.00
10.14
6.65
3.86
1.84
0.51
-0.28
-0.69
-0.79
-0.66
-0.39
-0.10
0.04
-0.12
-0.68
-1.63
-2.82
-4.03
-5.03
-5.64
-5.81
-5.61
-5.14
-4.52
-3.86
-3.17
-2.48
-1.81
-1.18
-0.60
-0.03
0.57
1.26
2.07
2.95
3.82
4.55
5.10
5.45
5.65
5.79
5.91
6.04
6.15
6.22
6.19
6.08
5.88
5.60
5.25
4.85
4.40
3.92
3.43
2.97
2.58
2.30
2.14
2.07
2.03
1.97
1.85
1.71
1.64
1.76
2.16
2.83
3.68
4.54
5.23
5.62
5.64
5.32
4.71
3.89
2.96
2.01
1.15
0.50
0.12
0.02
0.17
0.47
0.84
1.22
1.53
1.72
1.72
1.48
1.01
0.37
-0.33
-0.97
-1.50
-1.92
-2.31
-2.73
-3.22
-3.78
-4.41
-5.08
-5.76
-6.39
-6.83
-6.96
-6.71
-6.10
-5.33
-4.67
-4.35
-4.47
-4.96
-5.55
-5.93
-5.83
-5.19
-4.10
-2.80
-1.60
-0.73
-0.36
-0.50
-1.08
-1.95
-2.91
-3.72
-4.23
-4.35
-4.20
-4.07
-4.28
-5.11
-6.57
-8.42
-10.23
-11.57
-12.20
-12.23
-12.07
-12.29
-13.35
-15.44
-18.30
-21.31
-23.68
-24.67
-23.88
-21.33
-17.42
-12.89
-8.51
-4.96
-2.64
-1.64
-1.72
-2.40
-3.06
-3.10
-2.10
0.14
3.53
7.74
12.39
17.06
21.39
25.11
28.01
29.98
31.07
31.44
31.33
31.01
30.62
30.20
29.66
28.91
27.90
26.70
25.40
24.11
22.86
21.64
20.43
19.22
18.03
16.88
15.76
14.63
13.49
12.36
11.33
10.48
9.83
9.32
8.83
8.20
7.33
6.21
4.90
3.51
2.12
0.81
-0.38
-1.46
-2.42
-3.30
-4.17
-5.10
-6.12
-7.21
-8.28
-9.22
-9.93
-10.34
-10.46
-10.32
-10.01
-9.64
-9.32
-9.15
-9.13
-9.15
-9.01
-8.51
-7.60
-6.41
-5.24
-4.42
-4.16
-4.48
-5.13
-5.74
-5.97
-5.62
-4.75
-3.66
-2.78
-2.55
-3.26
-4.93
-7.31
-9.90
-12.04
-13.12
-12.70
-10.63
-7.11
-2.66
2.02
6.18
9.19
10.74
10.85
9.82
8.09
6.08
4.08
2.18
0.34
-1.49
-3.29
-4.94
-6.22
-7.00
-7.25
-7.12
-6.84
-6.62
-6.51
-6.33
-5.81
-4.71
-2.96
-0.75
1.51
3.41
4.66
5.20
5.14
4.72
4.15
3.54
2.99
2.57
2.35
2.36
2.55
2.79
2.91
2.79
2.43
1.92
1.32
0.60
-0.35
-1.71
-3.55
-5.73
-7.95
-9.84
-11.17
-11.92
-12.30
-12.59
-12.96
-13.38
-13.62
-13.38
-12.51
-11.09
-9.43
-7.84
-6.49
-5.33
-4.08
-2.47
-0.36
2.10
4.57
6.64
8.05
8.77
8.97
8.95
8.99
9.33
10.09
11.26
12.71
14.09
14.91
14.65
13.07
10.30
6.92
3.77
1.57
0.68
0.97
1.94
3.10
4.15
5.09
6.10
7.30
8.62
9.76
10.35
10.17
9.21
7.70
5.99
4.41
3.21
2.44
2.03
1.86
1.80
1.76
1.73
1.73
1.79
1.90
2.08
2.32
2.63
2.98
3.32
3.56
3.60
3.39
2.94
2.35
1.73
1.15
0.59
-0.01
-0.66
-1.34
-1.94
-2.35
-2.57
-2.69
-2.93
-3.42
-4.22
-5.22
-6.25
-7.17
-7.93
-8.62
-9.33
-10.13
-10.99
-11.80
-12.44
-12.89
-13.16
-13.29
-13.25
-12.99
-12.38
-11.37
-10.03
-8.54
-7.18
-6.16
-5.56
-5.26
-4.98
-4.44
-3.46
-2.09
-0.55
0.88
1.98
2.71
3.13
3.38
3.57
3.74
3.93
4.19
4.61
5.22
5.91
6.47
6.58
6.09
5.07
3.90
3.08
3.05
4.00
5.81
8.07
10.26
11.89
12.60
12.24
10.91
8.89
6.56
4.35
2.61
1.57
1.32
1.87
3.11
4.88
6.94
8.96
10.59
11.49
11.46
10.45
8.58
6.10
3.32
0.57
-1.88
-3.88
-5.38
-6.42
-7.08
-7.43
-7.53
-7.39
-7.05
-6.63
-6.26
-6.07
-6.11
-6.33
-6.54
-6.56
-6.29
-5.72
-5.02
-4.38
-3.95
-3.82
-3.94
-4.21
-4.49
-4.70
-4.81
-4.84
-4.81
-4.70
-4.54
-4.31
-4.07
-3.87
-3.80
-3.91
-4.17
-4.54
-4.89
-5.14
-5.24
-5.20
-5.07
-4.88
-4.69
-4.54
-4.47
-4.51
-4.66
-4.91
-5.18
-5.39
-5.48
-5.46
-5.36
-5.24
-5.12
-5.00
-4.81
-4.54
-4.18
-3.75
-3.31
-2.92
-2.62
-2.42
-2.34
-2.32
-2.31
-2.22
-1.97
-1.52
-0.93
-0.30
0.23
0.55
0.63
0.52
0.34
0.24
0.32
0.61
1.07
1.59
2.05
2.36
2.49
2.49
2.46
2.48
2.57
2.69
2.76
2.74
2.64
2.53
2.48
2.54
2.64
2.67
2.54
2.20
1.73
1.27
0.97
0.91
1.06
1.32
1.54
1.64
1.54
1.27
0.89
0.48
0.11
-0.15
-0.28
-0.29
-0.24
-0.19
-0.17
-0.22
-0.29
-0.35
-0.40
-0.46
-0.56
-0.71
-0.85
-0.93
-0.88
-0.71
-0.50
-0.36
-0.36
-0.50
-0.70
-0.83
-0.80
-0.58
-0.19
0.28
0.74
1.12
1.37
1.45
1.38
1.19
0.98
0.83
0.79
0.82
0.86
0.79
0.60
0.31
0.03
-0.18
-0.25
-0.22
-0.16
-0.15
-0.21
-0.37
-0.63
-0.93
-1.18
-1.29
-1.15
-0.76
-0.20
0.36
0.73
0.77
0.46
-0.10
-0.77
-1.36
-1.77
-1.90
-1.77
-1.44
-1.02
-0.64
-0.38
-0.29
-0.31
-0.35
-0.33
-0.22
-0.09
-0.05
-0.19
-0.50
-0.86
-1.10
-1.08
-0.79
-0.31
0.14
0.41
0.45
0.30
0.10
-0.08
-0.22
-0.38
-0.61
-0.91
-1.25
-1.53
-1.69
-1.70
-1.61
-1.47
-1.35
-1.27
-1.21
-1.15
-1.06
-0.95
-0.85
-0.77
-0.73
-0.67
-0.57
-0.40
-0.18
0.06
0.28
0.46
0.58
0.60
0.48
0.21
-0.19
-0.63
-1.00
-1.22
-1.24
-1.08
-0.80
-0.47
-0.14
0.13
0.27
0.24
0.04
-0.27
-0.58
-0.79
-0.87
-0.85
-0.78
-0.75
-0.80
-0.92
-1.08
-1.20
-1.25
-1.22
-1.10
-0.95
-0.80
-0.69
-0.60
-0.52
-0.40
-0.25
-0.07
0.08
0.16
0.13
0.02
-0.13
-0.25
-0.27
-0.22
-0.12
-0.04
0.03
0.10
0.27
0.57
0.99
1.44
1.76
1.79
1.51
0.96
0.31
-0.30
-0.76
-1.02
-1.08
-0.95
-0.67
-0.31
0.00
0.16
0.08
-0.20
-0.57
-0.85
-0.91
-0.71
-0.36
0.03
0.32
0.46
0.44
0.32
0.15
0.00
-0.06
0.02
0.25
0.57
0.88
1.05
1.00
0.72
0.31
-0.08
-0.31
-0.33
-0.18
0.06
0.30
0.48
0.61
0.70
0.79
0.85
0.85
0.78
0.64
0.50
0.39
0.34
0.31
0.24
0.13
-0.01
-0.09
-0.09
-0.03
0.01
-0.10
-0.40
-0.84
-1.28
-1.55
-1.53
-1.22
-0.72
-0.20
0.20
0.40
0.42
0.32
0.16
-0.03
-0.26
-0.51
-0.77
-0.96
-0.99
-0.81
-0.44
0.03
0.44
0.67
0.65
0.41
0.06
-0.29
-0.54
-0.64
-0.59
-0.43
-0.20
0.10
0.44
0.79
1.12
1.33
1.38
1.24
0.96
0.62
0.33
0.13
0.04
0.02
0.02
-0.01
-0.06
-0.14
-0.19
-0.21
-0.17
-0.09
0.01
0.10
0.16
0.17
0.08
-0.10
-0.42
-0.84
-1.30
-1.69
-1.88
-1.80
-1.47
-1.02
-0.60
-0.37
-0.37
-0.56
-0.82
-1.01
-1.03
-0.84
-0.48
-0.03
0.42
0.82
1.10
1.24
1.23
1.11
0.91
0.70
0.53
0.45
0.47
0.56
0.68
0.77
0.81
0.75
0.58
0.34
0.05
-0.19
-0.30
-0.26
-0.06
0.19
0.37
0.38
0.21
-0.09
-0.39
-0.60
-0.66
-0.56
-0.34
-0.04
0.27
0.52
0.61
0.50
0.18
-0.28
-0.75
-1.10
-1.24
-1.18
-1.01
-0.86
-0.82
-0.90
-1.05
-1.17
-1.17
-1.03
-0.75
-0.41
-0.07
0.21
0.42
0.59
0.73
0.89
1.07
1.24
1.36
1.39
1.30
1.10
0.83
0.55
0.33
0.23
0.25
0.39
0.60
0.81
0.98
1.09
1.18
1.26
1.36
1.44
1.42
1.24
0.87
0.41
-0.04
-0.36
-0.50
-0.52
-0.55
-0.68
-0.93
-1.18
-1.27
-1.04
-0.46
0.43
1.44
2.38
3.03
3.21
2.84
1.89
0.48
-1.17
-2.75
-3.97
-4.64
-4.73
-4.36
-3.76
-3.13
-2.67
-2.44
-2.44
-2.62
-2.94
-3.31
-3.68
-3.98
-4.12
-4.02
-3.65
-3.05
-2.33
-1.67
-1.19
-0.94
-0.86
-0.82
-0.73
-0.56
-0.37
-0.20
-0.06
0.10
0.34
0.68
1.07
1.41
1.64
1.74
1.75
1.72
1.70
1.69
1.67
1.60
1.48
1.29
1.08
0.93
0.92
1.09
1.42
1.76
1.96
1.91
1.65
1.34
1.15
1.18
1.38
1.60
1.71
1.67
1.58
1.59
1.79
2.18
2.63
3.01
3.20
3.18
3.01
2.80
2.63
2.57
2.63
2.78
3.01
3.30
3.67
4.09
4.52
4.84
4.93
4.70
4.15
3.41
2.66
2.06
1.66
1.40
1.14
0.74
0.15
-0.59
-1.37
-2.05
-2.53
-2.72
-2.59
-2.13
-1.39
-0.52
0.16
0.30
-0.37
-1.93
-4.10
-6.39
-8.20
-9.07
-8.86
-7.77
-6.20
-4.62
-3.42
-2.74
-2.55
-2.71
-3.04
-3.40
-3.72
-3.93
-3.98
-3.82
-3.38
-2.68
-1.78
-0.85
-0.06
0.47
0.69
0.66
0.46
0.18
-0.12
-0.36
-0.47
-0.40
-0.14
0.26
0.68
1.02
1.21
1.22
1.12
0.96
0.79
0.64
0.47
0.29
0.13
0.02
0.02
0.13
0.33
0.53
0.67
0.68
0.54
0.28
-0.06
-0.39
-0.66
-0.80
-0.79
-0.65
-0.43
-0.21
-0.05
0.06
0.11
0.14
0.17
0.16
0.08
-0.09
-0.31
-0.47
-0.45
-0.19
0.30
0.85
1.30
1.46
1.26
0.77
0.13
-0.50
-0.97
-1.20
-1.20
-1.00
-0.64
-0.20
0.28
0.67
0.89
0.87
0.63
0.31
0.05
-0.02
0.12
0.41
0.70
0.86
0.83
0.65
0.43
0.25
0.16
0.13
0.08
-0.09
-0.40
-0.80
-1.19
-1.49
-1.64
-1.64
-1.52
-1.31
-1.02
-0.64
-0.18
0.26
0.56
0.65
0.53
0.32
0.18
0.22
0.44
0.72
0.92
0.95
0.81
0.60
0.41
0.34
0.37
0.46
0.53
0.53
0.47
0.36
0.24
0.13
0.06
0.01
-0.05
-0.15
-0.26
-0.36
-0.37
-0.27
-0.06
0.18
0.38
0.48
0.49
0.43
0.37
0.35
0.38
0.39
0.35
0.23
0.03
-0.20
-0.42
-0.55
-0.60
-0.57
-0.52
-0.49
-0.51
-0.53
-0.47
-0.27
0.09
0.54
0.92
1.13
1.09
0.85
0.52
0.24
0.07
0.04
0.11
0.25
0.43
0.64
0.86
1.03
1.06
0.90
0.55
0.13
-0.21
-0.34
-0.21
0.10
0.49
0.80
0.95
0.92
0.77
0.56
0.39
0.29
0.23
0.16
0.03
-0.18
-0.42
-0.60
-0.66
-0.55
-0.31
-0.04
0.17
0.29
0.29
0.21
0.07
-0.09
-0.27
-0.46
-0.64
-0.78
-0.86
-0.87
-0.82
-0.73
-0.64
-0.54
-0.43
-0.29
-0.10
0.12
0.35
0.56
0.69
0.73
0.66
0.51
0.31
0.10
-0.11
-0.29
-0.44
-0.53
-0.52
-0.39
-0.14
0.17
0.46
0.65
0.68
0.60
0.50
0.46
0.52
0.66
0.75
0.73
0.58
0.38
0.23
0.21
0.28
0.35
0.34
0.20
-0.01
-0.22
-0.36
-0.46
-0.56
-0.69
-0.82
-0.89
-0.82
-0.60
-0.31
-0.08
-0.02
-0.14
-0.35
-0.58
-0.74
-0.84
-0.93
-1.02
-1.05
-0.96
-0.69
-0.24
0.23
0.57
0.65
0.47
0.15
-0.16
-0.34
-0.37
-0.33
-0.29
-0.27
-0.24
-0.12
0.10
0.40
0.68
0.85
0.87
0.80
0.73
0.78
0.94
1.18
1.37
1.44
1.33
1.09
0.81
0.60
0.52
0.57
0.71
0.86
0.95
0.96
0.89
0.83
0.85
1.00
1.21
1.38
1.35
1.07
0.57
0.02
-0.43
-0.67
-0.69
-0.60
-0.49
-0.39
-0.31
-0.20
-0.08
0.02
0.04
-0.01
-0.11
-0.21
-0.26
-0.30
-0.34
-0.39
-0.44
-0.42
-0.32
-0.15
0.01
0.10
0.08
-0.04
-0.19
-0.30
-0.30
-0.15
0.11
0.44
0.72
0.88
0.85
0.67
0.42
0.21
0.11
0.13
0.25
0.43
0.63
0.86
1.11
1.37
1.59
1.70
1.66
1.43
1.07
0.66
0.32
0.12
0.10
0.24
0.47
0.72
0.95
1.15
1.31
1.40
1.39
1.21
0.88
0.45
0.04
-0.23
-0.29
-0.12
0.22
0.59
0.88
1.00
0.90
0.60
0.18
-0.31
-0.79
-1.22
-1.54
-1.68
-1.58
-1.23
-0.67
-0.03
0.52
0.85
0.93
0.80
0.59
0.37
0.22
0.17
0.24
0.46
0.78
1.12
1.34
1.33
1.06
0.63
0.23
0.01
0.01
0.18
0.37
0.49
0.51
0.47
0.46
0.50
0.58
0.67
0.73
0.73
0.73
0.74
0.83
0.97
1.15
1.27
1.28
1.14
0.92
0.71
0.58
0.51
0.42
0.19
-0.23
-0.77
-1.27
-1.54
-1.49
-1.19
-0.79
-0.45
-0.29
-0.27
-0.34
-0.44
-0.56
-0.73
-0.97
-1.25
-1.51
-1.64
-1.60
-1.38
-1.03
-0.62
-0.22
0.10
0.30
0.36
0.27
0.10
-0.07
-0.14
-0.08
0.10
0.30
0.44
0.44
0.31
0.13
-0.01
-0.03
0.13
0.44
0.86
1.27
1.56
1.67
1.55
1.27
0.91
0.56
0.27
0.04
-0.18
-0.41
-0.64
-0.79
-0.78
-0.57
-0.21
0.20
0.52
0.65
0.57
0.32
0.01
-0.27
-0.44
-0.50
-0.48
-0.44
-0.42
-0.42
-0.43
-0.42
-0.39
-0.36
-0.36
-0.43
-0.57
-0.76
-0.97
-1.12
-1.18
-1.14
-1.05
-0.94
-0.86
-0.83
-0.83
-0.85
-0.85
-0.81
-0.73
-0.64
-0.56
-0.51
-0.48
-0.41
-0.26
0.01
0.39
0.82
1.18
1.39
1.40
1.26
1.05
0.86
0.73
0.66
0.62
0.56
0.47
0.38
0.31
0.27
0.28
0.33
0.42
0.53
0.64
0.66
0.55
0.25
-0.22
-0.78
-1.28
-1.57
-1.56
-1.23
-0.70
-0.14
0.27
0.39
0.22
-0.13
-0.51
-0.77
-0.87
-0.85
-0.82
-0.85
-0.96
-1.07
-1.10
-0.98
-0.72
-0.43
-0.17
-0.01
0.05
0.07
0.10
0.17
0.28
0.41
0.53
0.62
0.66
0.65
0.59
0.50
0.40
0.32
0.24
0.17
0.09
0.01
-0.05
-0.06
0.01
0.17
0.41
0.69
0.98
1.24
1.42
1.52
1.53
1.48
1.37
1.24
1.11
1.00
0.92
0.86
0.79
0.65
0.39
0.01
-0.42
-0.81
-1.04
-1.09
-0.98
-0.80
-0.64
-0.55
-0.55
-0.59
-0.65
-0.70
-0.72
-0.72
-0.67
-0.55
-0.38
-0.17
-0.00
0.07
0.00
-0.19
-0.42
-0.60
-0.67
-0.58
-0.34
0.01
0.41
0.75
0.94
0.90
0.67
0.35
0.12
0.10
0.32
0.69
1.02
1.16
1.06
0.79
0.47
0.24
0.14
0.16
0.26
0.42
0.62
0.86
1.09
1.27
1.33
1.24
0.97
0.58
0.11
-0.40
-0.89
-1.31
-1.60
-1.70
-1.54
-1.16
-0.64
-0.10
0.28
0.42
0.30
-0.01
-0.36
-0.59
-0.64
-0.52
-0.33
-0.23
-0.30
-0.53
-0.82
-1.00
-0.97
-0.73
-0.39
-0.05
0.18
0.32
0.43
0.54
0.66
0.73
0.70
0.59
0.45
0.36
0.36
0.39
0.36
0.22
0.02
-0.12
-0.09
0.13
0.47
0.75
0.86
0.78
0.60
0.46
0.42
0.47
0.50
0.39
0.13
-0.20
-0.45
-0.51
-0.37
-0.12
0.09
0.15
0.05
-0.11
-0.21
-0.18
-0.05
0.09
0.12
-0.04
-0.30
-0.57
-0.73
-0.75
-0.69
-0.67
-0.76
-0.97
-1.24
-1.46
-1.56
-1.50
-1.31
-1.02
-0.70
-0.41
-0.21
-0.13
-0.16
-0.25
-0.33
-0.33
-0.24
-0.11
0.02
0.09
0.11
0.10
0.08
0.09
0.11
0.17
0.26
0.42
0.61
0.79
0.89
0.84
0.68
0.47
0.31
0.24
0.26
0.26
0.18
0.00
-0.22
-0.40
-0.45
-0.38
-0.22
-0.04
0.08
0.12
0.11
0.07
0.02
-0.03
-0.08
-0.13
-0.15
-0.13
-0.04
0.08
0.21
0.27
0.25
0.12
-0.08
-0.32
-0.53
-0.71
-0.85
-0.98
-1.12
-1.25
-1.33
-1.28
-1.07
-0.70
-0.25
0.17
0.50
0.67
0.70
0.62
0.48
0.30
0.14
0.05
0.08
0.22
0.44
0.66
0.82
0.90
0.94
0.97
0.97
0.90
0.68
0.33
-0.08
-0.42
-0.59
-0.57
-0.44
-0.26
-0.10
0.03
0.13
0.16
0.08
-0.12
-0.40
-0.63
-0.68
-0.51
-0.20
0.09
0.21
0.11
-0.14
-0.38
-0.47
-0.36
-0.11
0.11
0.20
0.14
-0.02
-0.18
-0.28
-0.35
-0.40
-0.45
-0.48
-0.42
-0.25
0.04
0.38
0.71
0.98
1.17
1.28
1.31
1.22
1.03
0.74
0.44
0.16
-0.04
-0.20
-0.35
-0.50
-0.66
-0.76
-0.75
-0.60
-0.33
-0.00
0.31
0.52
0.60
0.56
0.44
0.32
0.25
0.25
0.32
0.45
0.59
0.72
0.79
0.79
0.72
0.61
0.53
0.50
0.53
0.54
0.47
0.26
-0.06
-0.39
-0.62
-0.69
-0.62
-0.51
-0.48
-0.58
-0.75
-0.91
-0.95
-0.83
-0.61
-0.38
-0.23
-0.23
-0.36
-0.55
-0.73
-0.84
-0.84
-0.71
-0.48
-0.16
0.20
0.53
0.74
0.76
0.59
0.34
0.15
0.12
0.31
0.65
1.03
1.29
1.36
1.22
0.94
0.64
0.41
0.31
0.36
0.52
0.71
0.87
0.95
0.95
0.89
0.80
0.70
0.59
0.47
0.35
0.24
0.14
0.01
-0.17
-0.42
-0.76
-1.13
-1.49
-1.78
-1.95
-1.97
-1.84
-1.61
-1.33
-1.05
-0.84
-0.71
-0.63
-0.57
-0.46
-0.31
-0.13
0.05
0.20
0.29
0.31
0.27
0.19
0.13
0.13
0.25
0.49
0.79
1.07
1.25
1.29
1.22
1.09
0.97
0.90
0.86
0.83
0.74
0.58
0.33
0.03
-0.26
-0.47
-0.53
-0.44
-0.23
0.05
0.32
0.52
0.60
0.52
0.26
-0.16
-0.69
-1.22
-1.66
-1.95
-2.09
-2.14
-2.14
-2.11
-2.03
-1.90
-1.71
-1.52
-1.37
-1.30
-1.30
-1.34
-1.37
-1.37
-1.34
-1.30
-1.29
-1.34
-1.49
-1.74
-2.07
-2.46
-2.84
-3.16
-3.35
-3.36
-3.16
-2.74
-2.13
-1.42
-0.73
-0.21
0.07
0.14
0.10
0.08
0.14
0.26
0.36
0.34
0.20
-0.02
-0.20
-0.28
-0.26
-0.18
-0.14
-0.17
-0.28
-0.44
-0.66
-0.99
-1.53
-2.41
-3.65
-5.15
-6.67
-7.87
-8.42
-8.17
-7.11
-5.49
-3.60
-1.76
-0.18
1.08
2.03
2.73
3.21
3.47
3.55
3.54
3.56
3.71
3.98
4.26
4.44
4.42
4.26
4.12
4.18
4.53
5.08
5.61
5.88
5.78
5.31
4.58
3.73
2.85
2.01
1.25
0.67
0.41
0.55
1.06
1.76
2.36
2.59
2.33
1.62
0.68
-0.23
-0.90
-1.27
-1.42
-1.51
-1.65
-1.91
-2.21
-2.47
-2.57
-2.51
-2.33
-2.15
-2.04
-2.01
-1.99
-1.84
-1.46
-0.82
-0.06
0.57
0.83
0.60
-0.06
-0.93
-1.73
-2.26
-2.46
-2.39
-2.18
-1.91
-1.66
-1.46
-1.38
-1.57
-2.10
-2.89
-3.62
-3.79
-2.89
-0.74
2.37
5.70
8.29
9.30
8.31
5.46
1.29
-3.44
-8.04
-12.03
-15.16
-17.42
-18.96
-20.04
-20.96
-21.99
-23.27
-24.78
-26.39
-27.91
-29.14
-29.86
-29.88
-29.03
-27.16
-24.24
-20.37
-15.75
-10.64
-5.35
-0.12
4.83
9.31
13.15
16.22
18.41
19.72
20.22
20.11
19.65
19.07
18.57
18.22
18.00
17.80
17.50
16.92
15.93
14.43
12.47
10.24
8.04
6.22
4.99
4.39
4.29
4.48
4.79
5.15
5.56
6.02
6.52
6.97
7.34
7.62
7.86
8.15
8.60
9.27
10.20
11.41
12.81
14.29
15.73
17.01
18.13
19.15
20.24
21.53
23.06
24.83
26.70
28.56
30.22
31.56
32.44
32.76
32.49
31.62
30.21
28.36
26.20
23.83
21.37
18.89
16.44
14.05
11.74
9.50
7.28
5.04
2.70
0.21
-2.44
-5.20
-7.97
-10.69
-13.33
-15.92
-18.51
-21.10
-23.60
-25.87
-27.78
-29.30
-30.48
-31.43
-32.22
-32.81
-33.10
-32.97
-32.40
-31.46
-30.23
-28.83
-27.25
-25.47
-23.43
-21.10
-18.47
-15.63
-12.67
-9.75
-7.08
-4.91
-3.43
-2.75
-2.81
-3.39
-4.20
-4.97
-5.55
-5.91
-6.15
-6.39
-6.77
-7.39
-8.32
-9.60
-11.26
-13.20
-15.30
-17.34
-19.13
-20.53
-21.50
-22.14
-22.58
-22.92
-23.19
-23.30
-23.15
-22.61
-21.67
-20.34
-18.72
-16.87
-14.82
-12.57
-10.11
-7.42
-4.51
-1.41
1.87
5.32
8.87
12.42
15.80
18.86
21.44
23.53
25.12
26.28
27.07
27.51
27.57
27.22
26.43
25.20
23.58
21.67
19.58
17.44
15.39
13.52
11.92
10.61
9.61
8.84
8.16
7.38
6.31
4.89
3.17
1.35
-0.34
-1.76
-2.87
-3.77
-4.58
-5.34
-5.97
-6.30
-6.20
-5.62
-4.68
-3.58
-2.56
-1.73
-1.11
-0.63
-0.22
0.16
0.49
0.73
0.83
0.79
0.66
0.49
0.31
0.16
0.03
-0.06
-0.13
-0.19
-0.26
-0.43
-0.75
-1.30
-2.08
-3.06
-4.20
-5.44
-6.74
-8.05
-9.31
-10.40
-11.16
-11.45
-11.18
-10.34
-9.00
-7.28
-5.34
-3.30
-1.29
0.66
2.51
4.29
5.99
7.62
9.15
10.53
11.75
12.82
13.82
14.82
15.83
16.80
17.61
18.11
18.20
17.85
17.18
16.34
15.46
14.65
13.91
13.17
12.37
11.42
10.33
9.15
7.96
6.89
6.00
5.33
4.82
4.39
3.93
3.35
2.63
1.80
0.98
0.28
-0.17
-0.26
0.04
0.71
1.64
2.66
3.57
4.23
4.56
4.59
4.44
4.20
3.92
3.58
3.15
2.65
2.16
1.83
1.78
2.03
2.45
2.82
2.94
2.77
2.39
2.01
1.82
1.85
2.02
2.17
2.19
2.09
1.93
1.83
1.81
1.81
1.75
1.55
1.22
0.85
0.51
0.26
0.07
-0.08
-0.24
-0.42
-0.60
-0.75
-0.83
-0.82
-0.72
-0.56
-0.36
-0.20
-0.16
-0.29
-0.56
-0.90
-1.21
-1.36
-1.32
-1.13
-0.90
-0.74
-0.71
-0.78
-0.88
-0.92
-0.86
-0.69
-0.45
-0.15
0.18
0.55
0.93
1.28
1.51
1.60
1.56
1.51
1.55
1.78
2.24
2.90
3.67
4.37
4.87
5.08
5.00
4.74
4.51
4.49
4.77
5.33
5.99
6.56
6.89
6.92
6.71
6.38
6.03
5.69
5.35
4.94
4.42
3.77
3.00
2.21
1.45
0.81
0.31
-0.01
-0.11
0.09
0.65
1.59
2.76
3.94
4.85
5.28
5.19
4.70
4.02
3.35
2.81
2.42
2.13
1.84
1.47
0.87
-0.05
-1.35
-3.01
-4.90
-6.86
-8.73
-10.44
-12.07
-13.76
-15.74
-18.17
-21.16
-24.65
-28.51
-32.51
-36.45
-40.17
-43.58
-46.54
-48.76
-49.77
-49.04
-46.28
-41.65
-35.92
-30.25
-25.75
-23.11
-22.32
-22.77
-23.55
-23.91
-23.49
-22.35
-20.80
-19.08
-17.19
-14.80
-11.38
-6.45
0.20
8.36
17.47
26.78
35.62
43.52
50.25
55.72
59.88
62.62
63.85
63.56
61.79
58.63
54.09
48.11
40.67
31.93
22.39
12.80
3.96
-3.49
-9.26
-13.47
-16.48
-18.72
-20.59
-22.41
-24.40
-26.73
-29.32
-31.80
-33.51
-33.69
-31.81
-27.82
-22.22
-15.88
-9.65
-4.07
0.71
4.83
8.45
11.60
14.18
16.08
17.36
18.26
19.15
20.30
21.76
23.26
24.35
24.59
23.80
22.12
20.06
18.26
17.33
17.62
19.16
21.63
24.45
26.99
28.63
29.00
28.02
25.93
23.17
20.27
17.61
15.31
13.20
10.97
8.32
5.21
1.86
-1.34
-3.96
-5.76
-6.79
-7.32
-7.81
-8.62
-9.96
-11.83
-14.02
-16.25
-18.25
-19.81
-20.81
-21.18
-20.90
-19.99
-18.55
-16.76
-14.86
-13.08
-11.60
-10.50
-9.71
-9.11
-8.57
-8.02
-7.48
-7.00
-6.60
-6.30
-6.04
-5.79
-5.50
-5.16
-4.76
-4.31
-3.83
-3.33
-2.86
-2.43
-2.06
-1.73
-1.39
-1.04
-0.66
-0.32
-0.08
0.01
-0.06
-0.25
-0.51
-0.80
-1.13
-1.48
-1.84
-2.18
-2.41
-2.47
-2.30
-1.90
-1.35
-0.81
-0.42
-0.31
-0.48
-0.83
-1.21
-1.51
-1.67
-1.75
-1.85
-2.03
-2.25
-2.43
-2.43
-2.21
-1.80
-1.31
-0.85
-0.52
-0.34
-0.29
-0.34
-0.45
-0.61
-0.79
-0.93
-1.00
-0.97
-0.83
-0.64
-0.47
-0.42
-0.52
-0.79
-1.13
-1.47
-1.68
-1.69
-1.47
-1.10
-0.68
-0.36
-0.22
-0.29
-0.53
-0.85
-1.15
-1.40
-1.56
-1.66
-1.72
-1.74
-1.75
-1.74
-1.74
-1.72
-1.69
-1.61
-1.47
-1.29
-1.11
-0.97
-0.88
-0.83
-0.83
-0.91
-1.09
-1.41
-1.83
-2.24
-2.48
-2.43
-2.08
-1.54
-1.01
-0.65
-0.56
-0.68
-0.87
-0.98
-0.92
-0.69
-0.38
-0.12
0.01
-0.02
-0.15
-0.29
-0.37
-0.37
-0.33
-0.28
-0.25
-0.21
-0.08
0.15
0.43
0.71
0.89
0.92
0.81
0.59
0.28
-0.07
-0.43
-0.69
-0.78
-0.61
-0.21
0.30
0.70
0.80
0.53
-0.07
-0.79
-1.42
-1.82
-1.98
-1.98
-1.93
-1.88
-1.80
-1.61
-1.26
-0.79
-0.37
-0.13
-0.12
-0.27
-0.44
-0.48
-0.36
-0.16
-0.01
0.01
-0.11
-0.31
-0.52
-0.71
-0.88
-1.06
-1.21
-1.29
-1.23
-1.03
-0.73
-0.43
-0.20
-0.08
-0.05
-0.08
-0.12
-0.16
-0.18
-0.19
-0.19
-0.22
-0.31
-0.46
-0.63
-0.76
-0.79
-0.69
-0.48
-0.23
-0.02
0.11
0.15
0.10
-0.02
-0.22
-0.44
-0.64
-0.70
-0.61
-0.36
-0.05
0.22
0.36
0.36
0.27
0.14
-0.02
-0.19
-0.38
-0.58
-0.72
-0.74
-0.62
-0.40
-0.20
-0.12
-0.25
-0.56
-0.95
-1.27
-1.41
-1.34
-1.09
-0.77
-0.47
-0.25
-0.10
-0.03
-0.02
-0.06
-0.14
-0.20
-0.18
-0.04
0.20
0.47
0.67
0.74
0.65
0.45
0.21
0.02
-0.08
-0.05
0.06
0.19
0.28
0.27
0.15
-0.04
-0.22
-0.33
-0.35
-0.34
-0.35
-0.43
-0.53
-0.62
-0.61
-0.45
-0.14
0.26
0.65
0.94
1.08
1.04
0.81
0.44
-0.00
-0.43
-0.73
-0.85
-0.78
-0.61
-0.44
-0.34
-0.34
-0.41
-0.50
-0.57
-0.58
-0.50
-0.32
-0.04
0.32
0.66
0.85
0.81
0.52
0.10
-0.25
-0.39
-0.26
0.05
0.34
0.44
0.25
-0.14
-0.57
-0.88
-0.98
-0.90
-0.76
-0.64
-0.56
-0.45
-0.24
0.11
0.51
0.79
0.79
0.47
-0.05
-0.56
-0.83
-0.78
-0.48
-0.12
0.10
0.07
-0.14
-0.38
-0.48
-0.36
-0.08
0.27
0.54
0.68
0.69
0.62
0.50
0.35
0.15
-0.08
-0.35
-0.61
-0.83
-0.96
-1.00
-0.97
-0.92
-0.87
-0.80
-0.67
-0.43
-0.08
0.31
0.59
0.64
0.39
-0.07
-0.55
-0.88
-0.98
-0.90
-0.77
-0.72
-0.83
-1.08
-1.43
-1.89
-2.47
-3.17
-3.94
-4.65
-5.12
-5.24
-5.03
-4.63
-4.25
-4.08
-4.17
-4.46
-4.82
-5.15
-5.39
-5.56
-5.68
-5.74
-5.67
-5.34
-4.66
-3.62
-2.32
-0.97
0.22
1.11
1.67
1.99
2.23
2.50
2.81
3.08
3.18
3.08
2.82
2.54
2.41
2.44
2.55
2.57
2.36
1.94
1.45
1.11
1.07
1.33
1.75
2.16
2.40
2.45
2.37
2.27
2.23
2.27
2.33
2.35
2.29
2.15
1.99
1.89
1.89
1.98
2.08
2.06
1.87
1.53
1.16
0.92
0.88
1.04
1.27
1.44
1.44
1.28
1.00
0.69
0.41
0.16
-0.07
-0.34
-0.63
-0.94
-1.21
-1.42
-1.52
-1.50
-1.38
-1.19
-0.96
-0.72
-0.46
-0.19
0.11
0.43
0.73
1.00
1.24
1.46
1.62
1.69
1.57
1.24
0.71
0.10
-0.42
-0.69
-0.59
-0.12
0.68
1.69
2.76
3.73
4.42
4.71
4.57
4.14
3.61
3.23
3.14
3.31
3.57
3.66
3.42
2.86
2.16
1.58
1.30
1.40
1.79
2.29
2.73
3.00
3.08
2.99
2.74
2.34
1.83
1.27
0.77
0.48
0.48
0.80
1.36
2.01
2.57
2.88
2.82
2.40
1.66
0.72
-0.28
-1.25
-2.09
-2.75
-3.20
-3.46
-3.58
-3.63
-3.69
-3.83
-4.07
-4.41
-4.82
-5.24
-5.64
-5.95
-6.12
-6.12
-5.93
-5.57
-5.10
-4.62
-4.24
-4.00
-3.94
-4.01
-4.16
-4.31
-4.39
-4.31
-4.05
-3.60
-3.03
-2.43
-1.94
-1.63
-1.52
-1.55
-1.62
-1.67
-1.66
-1.60
-1.50
-1.35
-1.11
-0.72
-0.21
0.36
0.87
1.21
1.35
1.33
1.25
1.21
1.23
1.30
1.35
1.34
1.24
1.09
0.94
0.83
0.75
0.67
0.57
0.43
0.31
0.21
0.15
0.09
-0.04
-0.32
-0.76
-1.30
-1.82
-2.14
-2.19
-2.03
-1.85
-1.97
-2.67
-4.08
-6.17
-8.69
-11.33
-13.70
-15.45
-16.29
-16.04
-14.70
-12.43
-9.54
-6.44
-3.44
-0.74
1.64
3.77
5.81
7.94
10.28
12.95
15.95
19.16
22.35
25.22
27.49
28.97
29.60
29.51
28.88
27.94
26.87
25.75
24.55
23.16
21.43
19.20
16.41
13.13
9.55
5.95
2.58
-0.40
-2.96
-5.13
-7.02
-8.64
-9.94
-10.81
-11.14
-10.95
-10.36
-9.59
-8.86
-8.34
-8.08
-8.07
-8.28
-8.70
-9.32
-10.15
-11.16
-12.26
-13.34
-14.32
-15.13
-15.77
-16.30
-16.73
-17.05
-17.23
-17.21
-16.97
-16.52
-15.91
-15.19
-14.38
-13.47
-12.39
-11.09
-9.56
-7.87
-6.15
-4.60
-3.33
-2.35
-1.58
-0.87
-0.09
0.79
1.70
2.54
3.20
3.65
3.89
3.95
3.84
3.52
3.02
2.41
1.83
1.45
1.37
1.57
1.91
2.22
2.36
2.29
2.04
1.75
1.53
1.47
1.62
1.94
2.36
2.78
3.09
3.16
2.92
2.39
1.66
0.89
0.27
-0.11
-0.22
-0.11
0.11
0.36
0.60
0.82
1.03
1.25
1.48
1.75
2.04
2.34
2.59
2.72
2.73
2.63
2.53
2.53
2.64
2.79
2.84
2.69
2.30
1.79
1.29
0.93
0.75
0.72
0.78
0.89
1.06
1.27
1.48
1.62
1.62
1.47
1.25
1.05
0.96
1.01
1.14
1.30
1.46
1.59
1.70
1.75
1.72
1.62
1.49
1.44
1.53
1.76
2.00
2.07
1.85
1.35
0.71
0.17
-0.11
-0.06
0.24
0.63
0.99
1.24
1.39
1.47
1.51
1.49
1.42
1.27
1.09
0.94
0.91
1.02
1.26
1.50
1.62
1.51
1.18
0.75
0.38
0.23
0.33
0.67
1.13
1.58
1.94
2.15
2.23
2.20
2.11
2.00
1.91
1.86
1.85
1.89
1.93
1.95
1.89
1.74
1.49
1.19
0.87
0.56
0.31
0.12
0.01
0.01
0.08
0.17
0.17
-0.01
-0.39
-0.90
-1.39
-1.71
-1.82
-1.77
-1.65
-1.55
-1.45
-1.27
-0.96
-0.50
0.01
0.46
0.79
0.99
1.11
1.21
1.33
1.44
1.49
1.45
1.34
1.22
1.14
1.12
1.13
1.13
1.12
1.13
1.20
1.36
1.59
1.81
1.92
1.88
1.73
1.53
1.35
1.22
1.12
1.01
0.88
0.77
0.73
0.79
0.93
1.09
1.19
1.18
1.05
0.82
0.56
0.36
0.28
0.37
0.59
0.83
0.96
0.91
0.65
0.28
-0.12
-0.46
-0.73
-0.94
-1.12
-1.28
-1.39
-1.42
-1.38
-1.29
-1.21
-1.15
-1.13
-1.10
-1.07
-1.01
-0.93
-0.81
-0.62
-0.34
-0.03
0.26
0.44
0.47
0.37
0.23
0.13
0.12
0.19
0.29
0.37
0.42
0.48
0.60
0.79
1.05
1.34
1.60
1.80
1.95
2.07
2.14
2.15
2.06
1.86
1.58
1.33
1.22
1.32
1.59
1.92
2.16
2.18
1.98
1.62
1.21
0.83
0.51
0.23
-0.05
-0.35
-0.65
-0.89
-1.04
-1.09
-1.06
-0.97
-0.87
-0.75
-0.62
-0.49
-0.40
-0.41
-0.56
-0.81
-1.11
-1.33
-1.42
-1.40
-1.34
-1.37
-1.52
-1.71
-1.79
-1.61
-1.16
-0.59
-0.09
0.19
0.24
0.19
0.18
0.26
0.39
0.43
0.34
0.16
0.04
0.09
0.34
0.65
0.89
0.96
0.88
0.78
0.75
0.84
0.99
1.10
1.09
0.95
0.74
0.52
0.36
0.29
0.35
0.51
0.74
1.01
1.24
1.36
1.32
1.10
0.73
0.29
-0.08
-0.32
-0.38
-0.30
-0.20
-0.17
-0.25
-0.43
-0.59
-0.68
-0.68
-0.65
-0.67
-0.76
-0.91
-1.04
-1.10
-1.11
-1.14
-1.25
-1.46
-1.68
-1.80
-1.68
-1.34
-0.85
-0.39
-0.13
-0.12
-0.30
-0.55
-0.70
-0.64
-0.39
-0.04
0.29
0.51
0.61
0.65
0.69
0.75
0.81
0.80
0.68
0.45
0.16
-0.11
-0.27
-0.28
-0.15
0.08
0.35
0.64
0.89
1.09
1.21
1.24
1.18
1.07
0.96
0.87
0.77
0.65
0.46
0.22
-0.05
-0.26
-0.40
-0.44
-0.45
-0.44
-0.45
-0.47
-0.49
-0.53
-0.63
-0.80
-1.00
-1.16
-1.21
-1.13
-0.95
-0.74
-0.57
-0.43
-0.29
-0.14
0.05
0.22
0.33
0.33
0.23
0.06
-0.07
-0.10
0.02
0.27
0.56
0.76
0.77
0.54
0.15
-0.27
-0.56
-0.59
-0.34
0.14
0.74
1.32
1.76
1.97
1.93
1.66
1.26
0.88
0.64
0.61
0.75
0.95
1.07
1.02
0.82
0.54
0.31
0.20
0.24
0.32
0.37
0.30
0.14
-0.05
-0.17
-0.19
-0.18
-0.20
-0.36
-0.65
-1.01
-1.34
-1.53
-1.52
-1.33
-1.02
-0.70
-0.45
-0.31
-0.26
-0.25
-0.20
-0.09
0.12
0.38
0.64
0.86
1.03
1.14
1.19
1.13
0.94
0.59
0.13
-0.33
-0.65
-0.70
-0.44
0.03
0.58
1.02
1.26
1.25
1.08
0.83
0.57
0.36
0.19
0.08
0.01
-0.02
-0.04
-0.11
-0.26
-0.51
-0.81
-1.07
-1.22
-1.20
-1.06
-0.89
-0.84
-1.01
-1.43
-2.00
-2.53
-2.86
-2.89
-2.64
-2.26
-1.87
-1.56
-1.30
-1.04
-0.73
-0.40
-0.14
-0.01
-0.01
-0.08
-0.12
-0.11
-0.06
-0.03
-0.06
-0.13
-0.20
-0.21
-0.14
-0.01
0.16
0.33
0.47
0.52
0.44
0.19
-0.13
-0.41
-0.50
-0.33
0.03
0.46
0.81
0.99
1.02
0.95
0.84
0.74
0.66
0.60
0.58
0.60
0.68
0.79
0.87
0.88
0.81
0.66
0.48
0.31
0.17
0.08
0.04
0.06
0.13
0.23
0.33
0.37
0.33
0.18
-0.03
-0.24
-0.43
-0.59
-0.76
-0.97
-1.22
-1.45
-1.62
-1.67
-1.64
-1.61
-1.64
-1.73
-1.82
-1.79
-1.58
-1.21
-0.78
-0.42
-0.19
-0.10
-0.06
-0.01
0.11
0.28
0.45
0.60
0.72
0.83
0.92
0.99
0.99
0.88
0.69
0.46
0.30
0.26
0.39
0.62
0.84
0.93
0.83
0.60
0.36
0.24
0.33
0.58
0.83
0.93
0.81
0.51
0.20
0.04
0.13
0.39
0.70
0.92
0.99
0.91
0.75
0.55
0.35
0.15
-0.03
-0.19
-0.33
-0.50
-0.75
-1.13
-1.61
-2.11
-2.52
-2.77
-2.79
-2.61
-2.29
-1.90
-1.51
-1.19
-0.95
-0.79
-0.70
-0.62
-0.51
-0.37
-0.21
-0.07
0.00
0.00
-0.03
-0.02
0.12
0.41
0.83
1.26
1.58
1.72
1.71
1.62
1.57
1.59
1.64
1.65
1.57
1.45
1.37
1.41
1.57
1.75
1.84
1.75
1.51
1.17
0.86
0.63
0.49
0.38
0.26
0.11
-0.04
-0.18
-0.30
-0.46
-0.73
-1.13
-1.64
-2.17
-2.62
-2.90
-2.99
-2.91
-2.75
-2.63
-2.64
-2.82
-3.13
-3.44
-3.61
-3.55
-3.24
-2.76
-2.23
-1.76
-1.39
-1.07
-0.76
-0.43
-0.13
0.11
0.26
0.39
0.59
0.92
1.40
1.93
2.38
2.67
2.76
2.73
2.65
2.60
2.60
2.64
2.72
2.80
2.82
2.75
2.53
2.15
1.65
1.11
0.61
0.21
-0.05
-0.22
-0.32
-0.42
-0.55
-0.71
-0.91
-1.11
-1.28
-1.37
-1.36
-1.26
-1.14
-1.06
-1.04
-1.09
-1.16
-1.22
-1.26
-1.28
-1.32
-1.39
-1.51
-1.64
-1.76
-1.85
-1.90
-1.93
-1.94
-1.92
-1.84
-1.67
-1.36
-0.91
-0.33
0.31
0.89
1.31
1.50
1.46
1.26
1.00
0.73
0.48
0.22
-0.03
-0.22
-0.29
-0.18
0.08
0.42
0.74
0.99
1.17
1.30
1.35
1.33
1.19
0.98
0.75
0.61
0.58
0.61
0.60
0.47
0.23
-0.01
-0.11
0.00
0.27
0.53
0.63
0.48
0.13
-0.26
-0.54
-0.62
-0.55
-0.46
-0.47
-0.62
-0.85
-1.04
-1.09
-1.00
-0.82
-0.62
-0.47
-0.34
-0.20
-0.05
0.09
0.19
0.20
0.18
0.17
0.24
0.41
0.64
0.84
0.93
0.87
0.66
0.34
0.01
-0.22
-0.26
-0.04
0.39
0.87
1.24
1.37
1.24
0.94
0.62
0.38
0.23
0.12
-0.02
-0.20
-0.38
-0.46
-0.43
-0.33
-0.26
-0.29
-0.44
-0.66
-0.85
-0.94
-0.96
-0.99
-1.12
-1.43
-1.88
-2.34
-2.66
-2.74
-2.54
-2.13
-1.63
-1.14
-0.69
-0.28
0.13
0.54
0.92
1.19
1.25
1.06
0.66
0.19
-0.20
-0.38
-0.31
-0.08
0.21
0.45
0.59
0.64
0.67
0.69
0.73
0.77
0.82
0.86
0.92
1.01
1.10
1.14
1.10
0.94
0.67
0.38
0.12
-0.03
-0.05
0.04
0.19
0.32
0.41
0.47
0.54
0.65
0.78
0.90
0.95
0.90
0.77
0.59
0.40
0.21
0.03
-0.13
-0.26
-0.34
-0.38
-0.37
-0.36
-0.37
-0.43
-0.52
-0.63
-0.74
-0.83
-0.87
-0.85
-0.77
-0.60
-0.37
-0.07
0.31
0.74
1.14
1.43
1.48
1.26
0.84
0.36
0.04
-0.04
0.11
0.36
0.54
0.57
0.48
0.39
0.39
0.54
0.78
1.05
1.26
1.37
1.38
1.33
1.26
1.18
1.11
1.00
0.78
0.43
-0.04
-0.52
-0.90
-1.03
-0.90
-0.57
-0.21
0.04
0.09
-0.05
-0.32
-0.65
-1.02
-1.39
-1.73
-1.97
-2.03
-1.84
-1.44
-0.91
-0.37
0.05
0.30
0.38
0.37
0.32
0.29
0.27
0.23
0.14
0.02
-0.13
-0.28
-0.41
-0.52
-0.62
-0.73
-0.83
-0.93
-1.00
-1.03
-1.00
-0.91
-0.78
-0.61
-0.47
-0.40
-0.41
-0.52
-0.69
-0.86
-1.00
-1.12
-1.27
-1.50
-1.81
-2.13
-2.34
-2.33
-2.05
-1.57
-1.04
-0.60
-0.35
-0.29
-0.33
-0.36
-0.33
-0.23
-0.07
0.08
0.20
0.26
0.21
0.06
-0.19
-0.49
-0.76
-0.93
-0.91
-0.71
-0.34
0.12
0.60
1.01
1.26
1.30
1.13
0.83
0.52
0.34
0.35
0.55
0.83
1.07
1.14
1.01
0.74
0.43
0.23
0.23
0.43
0.74
1.05
1.22
1.17
0.92
0.56
0.22
0.01
-0.04
0.05
0.22
0.42
0.59
0.71
0.74
0.64
0.42
0.11
-0.22
-0.50
-0.68
-0.78
-0.81
-0.82
-0.82
-0.80
-0.76
-0.68
-0.55
-0.39
-0.23
-0.10
-0.01
0.07
0.17
0.34
0.58
0.82
1.01
1.07
0.98
0.83
0.70
0.68
0.78
0.96
1.13
1.23
1.23
1.12
0.95
0.75
0.57
0.46
0.44
0.55
0.79
1.13
1.54
1.98
2.36
2.57
2.53
2.18
1.56
0.83
0.17
-0.26
-0.40
-0.33
-0.22
-0.22
-0.41
-0.75
-1.13
-1.43
-1.61
-1.68
-1.67
-1.62
-1.52
-1.35
-1.12
-0.86
-0.66
-0.59
-0.68
-0.86
-1.04
-1.07
-0.91
-0.58
-0.22
0.03
0.08
-0.03
-0.16
-0.14
0.11
0.52
0.96
1.23
1.26
1.07
0.77
0.50
0.37
0.42
0.61
0.84
1.02
1.09
1.03
0.88
0.70
0.56
0.47
0.38
0.21
-0.10
-0.52
-0.93
-1.22
-1.32
-1.36
-1.52
-2.01
-2.84
-3.86
-4.74
-5.20
-5.11
-4.54
-3.75
-2.98
-2.42
-2.09
-1.95
-1.95
-2.05
-2.25
-2.48
-2.61
-2.51
-2.08
-1.33
-0.41
0.46
1.11
1.43
1.47
1.34
1.20
1.16
1.26
1.47
1.69
1.83
1.84
1.72
1.51
1.31
1.19
1.19
1.32
1.55
1.83
2.12
2.38
2.57
2.62
2.45
2.00
1.31
0.45
-0.45
-1.28
-2.01
-2.63
-3.18
-3.66
-4.08
-4.42
-4.72
-5.02
-5.33
-5.60
-5.76
-5.75
-5.59
-5.37
-5.24
-5.25
-5.36
-5.44
-5.38
-5.15
-4.84
-4.61
-4.56
-4.61
-4.59
-4.28
-3.56
-2.48
-1.19
0.07
1.19
2.16
3.08
4.10
5.25
6.45
7.51
8.28
8.69
8.81
8.83
8.95
9.29
9.86
10.57
11.22
11.64
11.69
11.39
10.84
10.22
9.67
9.22
8.82
8.33
7.69
6.89
6.05
5.30
4.69
4.23
3.80
3.29
2.67
1.98
1.31
0.78
0.43
0.22
0.09
-0.03
-0.14
-0.21
-0.19
-0.02
0.26
0.59
0.87
1.00
0.93
0.65
0.17
-0.43
-1.06
-1.57
-1.84
-1.80
-1.51
-1.11
-0.77
-0.62
-0.67
-0.82
-0.94
-0.95
-0.86
-0.72
-0.61
-0.56
-0.57
-0.62
-0.70
-0.82
-0.97
-1.11
-1.20
-1.24
-1.25
-1.29
-1.40
-1.56
-1.71
-1.77
-1.69
-1.47
-1.19
-0.90
-0.64
-0.43
-0.29
-0.24
-0.33
-0.59
-0.97
-1.37
-1.63
-1.65
-1.42
-1.02
-0.63
-0.39
-0.36
-0.49
-0.66
-0.73
-0.62
-0.35
-0.01
0.31
0.49
0.49
0.33
0.09
-0.13
-0.22
-0.18
-0.03
0.10
0.13
0.01
-0.17
-0.30
-0.29
-0.14
0.01
0.02
-0.21
-0.62
-1.06
-1.36
-1.43
-1.28
-1.01
-0.75
-0.55
-0.42
-0.30
-0.19
-0.10
-0.09
-0.20
-0.41
-0.68
-0.91
-1.05
-1.09
-1.08
-1.09
-1.21
-1.44
-1.70
-1.89
-1.89
-1.66
-1.28
-0.91
-0.67
-0.62
-0.72
-0.88
-0.97
-0.95
-0.80
-0.56
-0.28
0.04
0.36
0.67
0.89
0.98
0.90
0.68
0.38
0.08
-0.15
-0.26
-0.28
-0.23
-0.18
-0.17
-0.25
-0.42
-0.63
-0.81
-0.90
-0.91
-0.88
-0.92
-1.09
-1.41
-1.82
-2.25
-2.63
-2.90
-3.08
-3.11
-2.95
-2.55
-1.90
-1.08
-0.21
0.55
1.14
1.57
1.88
2.14
2.40
2.65
2.92
3.16
3.37
3.48
3.44
3.23
2.88
2.43
1.96
1.49
1.01
0.50
-0.03
-0.50
-0.81
-0.88
-0.72
-0.42
-0.07
0.24
0.52
0.76
0.96
1.05
0.98
0.71
0.27
-0.22
-0.65
-0.93
-1.08
-1.17
-1.25
-1.37
-1.49
-1.57
-1.61
-1.62
-1.65
-1.71
-1.77
-1.76
-1.64
-1.42
-1.13
-0.89
-0.76
-0.79
-0.97
-1.26
-1.57
-1.79
-1.84
-1.67
-1.29
-0.79
-0.32
-0.02
0.05
-0.06
-0.22
-0.27
-0.13
0.17
0.52
0.80
0.94
0.94
0.87
0.81
0.80
0.88
1.02
1.19
1.34
1.44
1.46
1.36
1.14
0.81
0.40
0.00
-0.33
-0.56
-0.68
-0.75
-0.83
-0.98
-1.20
-1.48
-1.76
-1.94
-2.01
-1.97
-1.86
-1.77
-1.74
-1.78
-1.83
-1.82
-1.67
-1.35
-0.86
-0.28
0.29
0.75
1.02
1.08
0.94
0.64
0.25
-0.19
-0.62
-1.01
-1.34
-1.64
-1.89
-2.11
-2.31
-2.50
-2.67
-2.79
-2.81
-2.66
-2.30
-1.71
-0.93
-0.07
0.70
1.23
1.39
1.18
0.73
0.24
-0.06
-0.02
0.35
0.95
1.61
2.19
2.64
2.99
3.30
3.60
3.88
4.12
4.26
4.24
3.99
3.42
2.47
1.11
-0.55
-2.30
-3.90
-5.12
-5.87
-6.14
-6.03
-5.66
-5.13
-4.53
-3.95
-3.50
-3.25
-3.24
-3.44
-3.74
-4.02
-4.16
-4.11
-3.90
-3.55
-3.13
-2.71
-2.32
-2.03
-1.86
-1.81
-1.85
-1.93
-1.98
-1.96
-1.82
-1.59
-1.30
-0.98
-0.66
-0.33
0.02
0.43
0.88
1.32
1.70
1.96
2.11
2.21
2.40
2.77
3.37
4.16
5.03
5.84
6.48
6.87
6.99
6.88
6.58
6.12
5.52
4.77
3.91
2.99
2.10
1.31
0.71
0.29
0.02
-0.17
-0.33
-0.51
-0.68
-0.82
-0.89
-0.88
-0.81
-0.72
-0.66
-0.68
-0.80
-0.99
-1.20
-1.35
-1.36
-1.20
-0.84
-0.33
0.30
0.96
1.59
2.09
2.43
2.58
2.59
2.58
2.66
2.92
3.38
3.93
4.42
4.71
4.75
4.64
4.56
4.69
5.08
5.65
6.21
6.59
6.78
6.88
7.10
7.63
8.52
9.74
11.15
12.67
14.21
15.68
16.93
17.74
17.85
17.14
15.65
13.67
11.65
10.03
9.11
8.93
9.25
9.65
9.67
8.95
7.34
4.92
1.91
-1.41
-4.79
-8.04
-11.02
-13.59
-15.63
-17.09
-18.00
-18.50
-18.73
-18.83
-18.86
-18.83
-18.68
-18.38
-17.95
-17.41
-16.82
-16.26
-15.75
-15.31
-14.82
-14.20
-13.34
-12.23
-10.97
-9.69
-8.49
-7.43
-6.47
-5.60
-4.83
-4.22
-3.80
-3.55
-3.35
-3.11
-2.75
-2.31
-1.87
-1.52
-1.27
-1.11
-1.02
-1.06
-1.34
-1.93
-2.83
-3.86
-4.74
-5.22
-5.19
-4.72
-4.02
-3.34
-2.84
-2.55
-2.37
-2.21
-2.02
-1.85
-1.78
-1.83
-1.98
-2.10
-2.05
-1.73
-1.14
-0.38
0.45
1.21
1.84
2.31
2.63
2.83
2.94
2.99
3.00
2.96
2.90
2.82
2.71
2.58
2.44
2.27
2.06
1.80
1.51
1.21
0.95
0.78
0.75
0.85
1.04
1.22
1.30
1.25
1.07
0.87
0.72
0.70
0.79
0.93
1.05
1.10
1.11
1.08
1.07
1.06
1.05
1.00
0.94
0.90
0.96
1.14
1.42
1.73
1.94
1.95
1.74
1.35
0.92
0.59
0.45
0.50
0.61
0.64
0.50
0.19
-0.20
-0.53
-0.70
-0.71
-0.65
-0.64
-0.75
-0.98
-1.25
-1.43
-1.45
-1.30
-1.01
-0.67
-0.34
-0.07
0.14
0.28
0.39
0.53
0.75
1.10
1.55
2.01
2.37
2.52
2.44
2.21
1.95
1.78
1.77
1.95
2.31
2.80
3.34
3.81
4.10
4.11
3.83
3.33
2.77
2.30
2.01
1.94
2.05
2.29
2.59
2.87
3.04
3.03
2.77
2.28
1.61
0.92
0.34
-0.03
-0.16
-0.12
-0.04
-0.04
-0.21
-0.51
-0.88
-1.17
-1.28
-1.14
-0.77
-0.26
0.26
0.67
0.90
0.92
0.78
0.57
0.38
0.27
0.22
0.22
0.22
0.22
0.26
0.37
0.51
0.60
0.54
0.29
-0.09
-0.42
-0.57
-0.45
-0.12
0.27
0.57
0.70
0.64
0.44
0.17
-0.11
-0.35
-0.47
-0.45
-0.30
-0.11
0.01
-0.01
-0.15
-0.34
-0.49
-0.55
-0.59
-0.67
-0.83
-1.00
-1.06
-0.87
-0.43
0.18
0.76
1.13
1.19
0.97
0.58
0.17
-0.19
-0.47
-0.70
-0.91
-1.09
-1.21
-1.28
-1.27
-1.20
-1.09
-0.97
-0.84
-0.76
-0.77
-0.89
-1.10
-1.33
-1.50
-1.56
-1.56
-1.56
-1.66
-1.90
-2.23
-2.56
-2.77
-2.79
-2.59
-2.24
-1.81
-1.36
-0.92
-0.49
-0.05
0.41
0.86
1.25
1.50
1.57
1.47
1.32
1.23
1.34
1.65
2.07
2.45
2.62
2.55
2.28
1.95
1.71
1.65
1.75
1.96
2.19
2.35
2.38
2.26
2.01
1.66
1.29
1.01
0.87
0.90
1.07
1.31
1.57
1.80
2.02
2.23
2.40
2.52
2.54
2.45
2.27
2.03
1.76
1.50
1.26
1.05
0.89
0.78
0.71
0.65
0.55
0.37
0.09
-0.28
-0.69
-1.10
-1.51
-1.94
-2.38
-2.83
-3.24
-3.49
-3.51
-3.22
-2.65
-1.91
-1.17
-0.60
-0.28
-0.19
-0.21
-0.20
-0.11
0.05
0.21
0.29
0.25
0.14
0.07
0.08
0.19
0.37
0.54
0.64
0.63
0.51
0.32
0.07
-0.19
-0.46
-0.74
-1.01
-1.28
-1.53
-1.71
-1.81
-1.83
-1.82
-1.84
-1.93
-2.14
-2.44
-2.80
-3.19
-3.60
-4.03
-4.47
-4.91
-5.29
-5.52
-5.54
-5.32
-4.94
-4.51
-4.17
-3.98
-3.91
-3.90
-3.83
-3.63
-3.33
-2.95
-2.57
-2.21
-1.87
-1.48
-1.01
-0.41
0.29
1.06
1.84
2.61
3.29
3.81
4.04
3.93
3.45
2.73
1.95
1.33
0.99
0.92
0.98
1.04
0.98
0.85
0.71
0.63
0.60
0.58
0.53
0.48
0.51
0.69
0.99
1.29
1.42
1.25
0.82
0.28
-0.19
-0.44
-0.47
-0.37
-0.26
-0.21
-0.26
-0.38
-0.56
-0.82
-1.14
-1.50
-1.90
-2.26
-2.55
-2.69
-2.63
-2.35
-1.87
-1.28
-0.68
-0.15
0.30
0.72
1.21
1.82
2.51
3.18
3.70
3.96
3.92
3.60
3.06
2.42
1.80
1.37
1.22
1.33
1.59
1.81
1.83
1.59
1.21
0.85
0.64
0.61
0.71
0.81
0.87
0.90
0.97
1.11
1.31
1.47
1.50
1.39
1.21
1.11
1.20
1.49
1.89
2.27
2.51
2.56
2.43
2.18
1.86
1.51
1.16
0.82
0.50
0.22
0.01
-0.14
-0.23
-0.26
-0.24
-0.21
-0.16
-0.13
-0.11
-0.10
-0.08
-0.05
-0.02
-0.02
-0.10
-0.24
-0.42
-0.61
-0.76
-0.85
-0.88
-0.90
-0.93
-0.97
-0.98
-0.89
-0.66
-0.33
0.03
0.32
0.48
0.53
0.53
0.55
0.63
0.76
0.89
0.94
0.91
0.82
0.71
0.63
0.60
0.64
0.72
0.81
0.88
0.90
0.86
0.77
0.61
0.39
0.16
-0.06
-0.18
-0.16
0.00
0.26
0.50
0.64
0.62
0.49
0.29
0.11
-0.05
-0.19
-0.33
-0.47
-0.51
-0.39
-0.05
0.47
1.04
1.51
1.77
1.79
1.60
1.32
1.04
0.84
0.74
0.72
0.76
0.85
0.95
1.08
1.21
1.32
1.40
1.41
1.35
1.21
1.02
0.81
0.61
0.46
0.35
0.28
0.21
0.11
-0.03
-0.23
-0.47
-0.69
-0.86
-0.98
-1.08
-1.24
-1.50
-1.84
-2.18
-2.39
-2.37
-2.13
-1.74
-1.33
-1.02
-0.85
-0.77
-0.70
-0.55
-0.31
-0.01
0.26
0.43
0.50
0.53
0.57
0.65
0.73
0.73
0.61
0.37
0.14
0.03
0.12
0.40
0.76
1.06
1.23
1.27
1.24
1.17
1.06
0.88
0.62
0.30
0.01
-0.18
-0.23
-0.13
0.07
0.28
0.39
0.33
0.04
-0.43
-0.98
-1.42
-1.61
-1.48
-1.10
-0.60
-0.15
0.14
0.25
0.22
0.17
0.16
0.22
0.36
0.55
0.77
1.01
1.26
1.47
1.62
1.64
1.53
1.31
1.03
0.74
0.51
0.34
0.19
0.03
-0.16
-0.34
-0.46
-0.44
-0.26
0.06
0.41
0.67
0.76
0.65
0.41
0.12
-0.15
-0.38
-0.54
-0.63
-0.63
-0.52
-0.30
-0.02
0.31
0.65
1.02
1.44
1.85
2.18
2.32
2.18
1.80
1.27
0.76
0.39
0.23
0.27
0.47
0.78
1.15
1.56
1.95
2.25
2.39
2.35
2.17
1.91
1.64
1.40
1.19
0.97
0.71
0.43
0.18
-0.03
-0.17
-0.30
-0.47
-0.70
-0.96
-1.16
-1.20
-1.03
-0.71
-0.36
-0.13
-0.10
-0.25
-0.47
-0.62
-0.61
-0.47
-0.29
-0.17
-0.20
-0.37
-0.59
-0.76
-0.81
-0.72
-0.52
-0.26
0.01
0.25
0.46
0.63
0.76
0.86
0.90
0.86
0.74
0.54
0.28
0.05
-0.08
-0.06
0.08
0.28
0.42
0.46
0.42
0.35
0.30
0.28
0.23
0.09
-0.17
-0.52
-0.87
-1.12
-1.18
-1.04
-0.76
-0.40
-0.01
0.37
0.71
0.96
1.10
1.10
0.98
0.80
0.62
0.47
0.35
0.24
0.12
0.02
-0.02
0.04
0.22
0.51
0.82
1.08
1.21
1.18
1.01
0.70
0.30
-0.16
-0.62
-1.03
-1.31
-1.45
-1.45
-1.36
-1.26
-1.21
-1.21
-1.23
-1.24
-1.24
-1.27
-1.41
-1.66
-1.95
-2.13
-2.07
-1.72
-1.16
-0.56
-0.03
0.34
0.58
0.74
0.83
0.86
0.81
0.68
0.54
0.51
0.65
0.98
1.43
1.92
2.35
2.70
2.96
3.15
3.27
3.30
3.21
2.95
2.51
1.92
1.23
0.50
-0.19
-0.79
-1.23
-1.46
-1.46
-1.22
-0.79
-0.27
0.24
0.65
0.89
0.96
0.88
0.71
0.53
0.42
0.46
0.71
1.11
1.57
1.93
2.04
1.85
1.42
0.86
0.32
-0.13
-0.46
-0.64
-0.65
-0.42
0.07
0.78
1.52
2.07
2.21
1.82
0.96
-0.20
-1.47
-2.70
-3.85
-4.91
-5.84
-6.55
-6.90
-6.80
-6.28
-5.53
-4.88
-4.65
-5.08
-6.19
-7.79
-9.56
-11.15
-12.29
-12.86
-12.87
-12.46
-11.77
-10.95
-10.06
-9.12
-8.12
-7.08
-6.05
-5.11
-4.31
-3.67
-3.18
-2.83
-2.63
-2.61
-2.80
-3.16
-3.56
-3.84
-3.89
-3.65
-3.18
-2.54
-1.82
-1.06
-0.28
0.51
1.28
2.02
2.72
3.44
4.27
5.28
6.49
7.88
9.31
10.64
11.69
12.31
12.40
11.93
10.94
9.53
7.89
6.18
4.57
3.18
2.04
1.14
0.43
-0.14
-0.58
-0.88
-0.99
-0.88
-0.57
-0.17
0.19
0.37
0.31
0.05
-0.30
-0.61
-0.82
-0.92
-0.98
-1.04
-1.07
-1.04
-0.90
-0.68
-0.48
-0.37
-0.41
-0.54
-0.66
-0.70
-0.63
-0.50
-0.38
-0.28
-0.18
-0.03
0.18
0.41
0.57
0.61
0.49
0.24
-0.07
-0.35
-0.51
-0.51
-0.35
-0.13
0.06
0.11
0.02
-0.16
-0.29
-0.26
-0.09
0.15
0.35
0.44
0.42
0.35
0.25
0.12
-0.04
-0.21
-0.32
-0.30
-0.12
0.14
0.36
0.43
0.32
0.13
0.01
0.08
0.36
0.74
1.07
1.23
1.20
1.06
0.93
0.90
1.01
1.25
1.52
1.76
1.89
1.85
1.61
1.24
0.82
0.50
0.40
0.54
0.84
1.13
1.26
1.19
0.98
0.80
0.77
0.90
1.07
1.13
0.97
0.61
0.19
-0.10
-0.12
0.10
0.46
0.76
0.84
0.63
0.20
-0.32
-0.77
-1.01
-1.03
-0.85
-0.56
-0.23
0.06
0.31
0.51
0.68
0.85
1.05
1.31
1.63
1.95
2.18
2.23
2.10
1.83
1.56
1.43
1.48
1.69
1.99
2.30
2.57
2.76
2.84
2.78
2.55
2.18
1.72
1.28
0.91
0.65
0.50
0.45
0.48
0.57
0.71
0.83
0.87
0.75
0.47
0.04
-0.46
-0.92
-1.26
-1.45
-1.51
-1.48
-1.42
-1.38
-1.34
-1.28
-1.16
-0.97
-0.74
-0.48
-0.19
0.16
0.58
1.07
1.60
2.09
2.47
2.73
2.89
2.98
3.04
3.06
3.00
2.79
2.43
1.96
1.47
1.06
0.83
0.78
0.88
1.08
1.33
1.61
1.87
2.07
2.11
1.89
1.39
0.69
-0.04
-0.59
-0.85
-0.85
-0.70
-0.61
-0.70
-1.03
-1.53
-2.06
-2.49
-2.74
-2.79
-2.69
-2.55
-2.46
-2.44
-2.46
-2.42
-2.22
-1.84
-1.35
-0.89
-0.58
-0.47
-0.47
-0.45
-0.30
0.01
0.40
0.76
0.97
1.02
0.94
0.80
0.68
0.60
0.59
0.62
0.69
0.79
0.90
0.99
1.01
0.94
0.80
0.63
0.48
0.39
0.37
0.38
0.38
0.36
0.32
0.31
0.36
0.48
0.60
0.66
0.59
0.36
0.04
-0.29
-0.55
-0.70
-0.76
-0.79
-0.86
-1.00
-1.19
-1.38
-1.49
-1.45
-1.25
-0.91
-0.52
-0.20
-0.05
-0.13
-0.39
-0.70
-0.90
-0.90
-0.74
-0.55
-0.47
-0.54
-0.69
-0.77
-0.67
-0.36
0.02
0.33
0.47
0.43
0.30
0.20
0.20
0.27
0.35
0.38
0.32
0.22
0.14
0.14
0.19
0.27
0.29
0.23
0.11
-0.01
-0.08
-0.05
0.02
0.06
-0.01
-0.24
-0.61
-1.04
-1.40
-1.60
-1.60
-1.42
-1.17
-0.95
-0.85
-0.89
-1.04
-1.24
-1.47
-1.67
-1.82
-1.86
-1.75
-1.47
-1.07
-0.63
-0.23
0.07
0.24
0.28
0.20
0.02
-0.22
-0.41
-0.48
-0.33
0.02
0.50
0.99
1.34
1.51
1.49
1.37
1.23
1.14
1.12
1.13
1.11
1.02
0.85
0.65
0.48
0.43
0.55
0.77
1.00
1.13
1.11
0.93
0.66
0.38
0.15
-0.03
-0.18
-0.33
-0.51
-0.72
-0.91
-1.07
-1.19
-1.26
-1.32
-1.40
-1.52
-1.66
-1.79
-1.86
-1.82
-1.67
-1.43
-1.13
-0.76
-0.32
0.17
0.65
1.02
1.18
1.08
0.80
0.46
0.16
-0.05
-0.19
-0.31
-0.43
-0.53
-0.58
-0.55
-0.44
-0.28
-0.10
0.10
0.31
0.52
0.66
0.66
0.52
0.26
-0.05
-0.32
-0.49
-0.57
-0.58
-0.53
-0.44
-0.35
-0.27
-0.22
-0.18
-0.18
-0.20
-0.27
-0.42
-0.68
-1.02
-1.40
-1.72
-1.94
-2.04
-2.01
-1.87
-1.62
-1.25
-0.80
-0.34
0.05
0.26
0.27
0.12
-0.08
-0.21
-0.21
-0.08
0.09
0.23
0.27
0.23
0.19
0.23
0.40
0.70
1.06
1.39
1.60
1.67
1.57
1.34
0.98
0.56
0.13
-0.19
-0.31
-0.17
0.18
0.62
0.97
1.11
0.99
0.69
0.31
-0.03
-0.30
-0.48
-0.56
-0.53
-0.41
-0.25
-0.13
-0.14
-0.33
-0.66
-1.04
-1.38
-1.64
-1.82
-1.98
-2.12
-2.22
-2.22
-2.05
-1.71
-1.26
-0.81
-0.47
-0.30
-0.27
-0.33
-0.35
-0.29
-0.12
0.10
0.27
0.34
0.27
0.12
-0.03
-0.09
-0.01
0.17
0.39
0.55
0.63
0.63
0.60
0.61
0.68
0.78
0.85
0.83
0.72
0.59
0.52
0.57
0.72
0.90
1.00
0.97
0.83
0.62
0.41
0.22
0.03
-0.16
-0.39
-0.64
-0.88
-1.08
-1.19
-1.19
-1.06
-0.84
-0.59
-0.40
-0.34
-0.40
-0.54
-0.67
-0.74
-0.78
-0.85
-1.01
-1.25
-1.52
-1.69
-1.67
-1.43
-0.99
-0.45
0.10
0.57
0.92
1.13
1.19
1.08
0.83
0.53
0.28
0.21
0.37
0.74
1.17
1.50
1.62
1.48
1.15
0.76
0.45
0.28
0.26
0.33
0.45
0.58
0.68
0.76
0.78
0.72
0.56
0.30
-0.01
-0.29
-0.44
-0.44
-0.32
-0.18
-0.17
-0.36
-0.74
-1.21
-1.66
-1.99
-2.20
-2.34
-2.48
-2.63
-2.73
-2.70
-2.49
-2.07
-1.53
-0.98
-0.50
-0.13
0.12
0.30
0.43
0.48
0.45
0.37
0.30
0.30
0.44
0.71
1.03
1.31
1.44
1.40
1.20
0.92
0.67
0.55
0.58
0.73
0.89
0.95
0.85
0.63
0.41
0.33
0.44
0.69
0.91
0.93
0.71
0.30
-0.13
-0.41
-0.45
-0.30
-0.08
0.10
0.14
0.05
-0.17
-0.47
-0.80
-1.13
-1.44
-1.70
-1.89
-1.98
-2.00
-1.94
-1.82
-1.69
-1.56
-1.44
-1.32
-1.14
-0.84
-0.41
0.09
0.55
0.84
0.89
0.73
0.46
0.18
-0.00
-0.09
-0.07
0.01
0.15
0.34
0.59
0.87
1.12
1.30
1.36
1.33
1.23
1.12
1.06
1.08
1.15
1.23
1.26
1.21
1.10
1.00
1.01
1.16
1.37
1.52
1.43
1.03
0.37
-0.41
-1.11
-1.57
-1.75
-1.72
-1.60
-1.52
-1.54
-1.72
-2.04
-2.49
-3.00
-3.49
-3.80
-3.82
-3.50
-2.88
-2.11
-1.35
-0.74
-0.33
-0.10
0.01
0.05
0.06
0.07
0.13
0.26
0.51
0.84
1.21
1.53
1.74
1.82
1.78
1.66
1.51
1.37
1.31
1.37
1.58
1.93
2.32
2.66
2.80
2.70
2.38
1.93
1.49
1.16
0.97
0.91
0.92
0.93
0.93
0.89
0.82
0.68
0.47
0.20
-0.09
-0.36
-0.57
-0.71
-0.86
-1.06
-1.35
-1.69
-1.97
-2.12
-2.12
-2.06
-2.04
-2.15
-2.36
-2.56
-2.60
-2.39
-1.97
-1.48
-1.11
-0.92
-0.87
-0.80
-0.59
-0.20
0.27
0.63
0.74
0.58
0.26
-0.01
-0.05
0.20
0.70
1.31
1.84
2.18
2.28
2.19
2.01
1.88
1.85
1.91
1.99
2.03
2.03
2.02
2.05
2.11
2.12
1.98
1.64
1.19
0.81
0.67
0.83
1.19
1.58
1.79
1.72
1.39
0.89
0.36
-0.11
-0.47
-0.72
-0.91
-1.08
-1.28
-1.51
-1.73
-1.89
-1.95
-1.91
-1.81
-1.70
-1.59
-1.50
-1.42
-1.36
-1.33
-1.36
-1.44
-1.51
-1.51
-1.37
-1.09
-0.69
-0.23
0.22
0.61
0.91
1.09
1.13
1.07
0.93
0.77
0.65
0.60
0.63
0.73
0.89
1.11
1.37
1.68
2.01
2.32
2.58
2.70
2.65
2.41
2.03
1.61
1.29
1.13
1.14
1.23
1.30
1.27
1.18
1.09
1.07
1.12
1.14
1.05
0.78
0.40
0.05
-0.16
-0.21
-0.19
-0.24
-0.43
-0.75
-1.10
-1.39
-1.58
-1.71
-1.86
-2.10
-2.40
-2.68
-2.84
-2.81
-2.61
-2.26
-1.84
-1.43
-1.11
-0.97
-1.01
-1.16
-1.28
-1.24
-0.98
-0.57
-0.15
0.13
0.23
0.21
0.16
0.18
0.28
0.40
0.50
0.57
0.69
0.92
1.29
1.74
2.12
2.31
2.26
2.01
1.67
1.35
1.11
1.01
1.04
1.16
1.33
1.52
1.68
1.79
1.83
1.77
1.60
1.30
0.91
0.47
0.06
-0.27
-0.48
-0.54
-0.49
-0.38
-0.31
-0.37
-0.64
-1.10
-1.64
-2.13
-2.43
-2.48
-2.36
-2.20
-2.11
-2.13
-2.17
-2.16
-2.05
-1.85
-1.62
-1.40
-1.19
-0.93
-0.63
-0.30
-0.01
0.18
0.32
0.46
0.68
0.98
1.31
1.59
1.73
1.76
1.73
1.70
1.71
1.77
1.83
1.89
1.92
1.92
1.90
1.89
1.90
1.98
2.15
2.39
2.61
2.67
2.48
2.02
1.41
0.82
0.42
0.28
0.37
0.55
0.71
0.78
0.78
0.74
0.67
0.52
0.21
-0.30
-0.97
-1.62
-2.09
-2.32
-2.35
-2.34
-2.46
-2.76
-3.16
-3.48
-3.57
-3.37
-2.92
-2.34
-1.74
-1.21
-0.80
-0.51
-0.33
-0.27
-0.32
-0.44
-0.59
-0.70
-0.70
-0.53
-0.17
0.35
0.97
1.61
2.17
2.60
2.87
2.96
2.88
2.66
2.35
2.02
1.74
1.59
1.59
1.68
1.80
1.84
1.76
1.60
1.40
1.25
1.20
1.22
1.24
1.17
0.95
0.58
0.11
-0.41
-0.92
-1.40
-1.88
-2.36
-2.83
-3.27
-3.61
-3.82
-3.89
-3.82
-3.65
-3.41
-3.12
-2.76
-2.33
-1.87
-1.45
-1.13
-0.96
-0.90
-0.87
-0.80
-0.64
-0.38
-0.05
0.28
0.58
0.82
1.01
1.14
1.23
1.32
1.42
1.57
1.73
1.85
1.88
1.75
1.51
1.23
0.99
0.86
0.84
0.87
0.89
0.83
0.64
0.34
-0.04
-0.42
-0.74
-0.95
-1.05
-1.01
-0.87
-0.67
-0.45
-0.32
-0.35
-0.60
-1.07
-1.68
-2.32
-2.86
-3.20
-3.32
-3.24
-3.01
-2.74
-2.49
-2.30
-2.14
-1.96
-1.67
-1.23
-0.65
-0.02
0.54
0.91
1.05
0.99
0.81
0.59
0.39
0.23
0.11
0.01
-0.06
-0.10
-0.10
-0.04
0.09
0.28
0.50
0.70
0.84
0.91
0.91
0.82
0.67
0.48
0.27
0.10
-0.02
-0.09
-0.15
-0.27
-0.47
-0.75
-1.00
-1.11
-1.01
-0.72
-0.38
-0.15
-0.17
-0.47
-0.98
-1.55
-1.98
-2.13
-1.96
-1.51
-0.93
-0.34
0.13
0.47
0.70
0.88
1.02
1.15
1.23
1.27
1.26
1.20
1.11
0.97
0.79
0.58
0.39
0.27
0.27
0.38
0.56
0.75
0.94
1.11
1.26
1.36
1.36
1.24
1.03
0.81
0.66
0.65
0.76
0.89
0.94
0.86
0.65
0.37
0.09
-0.15
-0.36
-0.58
-0.87
-1.22
-1.65
-2.14
-2.66
-3.14
-3.54
-3.79
-3.86
-3.76
-3.58
-3.44
-3.42
-3.55
-3.77
-3.98
-4.10
-4.11
-4.06
-3.95
-3.79
-3.53
-3.17
-2.76
-2.41
-2.21
-2.17
-2.21
-2.17
-1.94
-1.46
-0.82
-0.10
0.59
1.23
1.78
2.23
2.55
2.71
2.74
2.67
2.58
2.52
2.50
2.50
2.51
2.48
2.40
2.26
2.08
1.86
1.63
1.40
1.19
0.98
0.76
0.49
0.15
-0.26
-0.71
-1.16
-1.59
-2.02
-2.46
-2.88
-3.26
-3.48
-3.47
-3.20
-2.70
-2.09
-1.50
-1.01
-0.63
-0.29
0.06
0.45
0.85
1.16
1.34
1.38
1.36
1.37
1.47
1.72
2.04
2.39
2.68
2.89
3.02
3.11
3.22
3.40
3.64
3.89
4.09
4.15
4.01
3.73
3.40
3.13
2.99
2.96
2.95
2.86
2.63
2.24
1.78
1.31
0.91
0.58
0.32
0.08
-0.19
-0.49
-0.83
-1.18
-1.54
-1.91
-2.32
-2.79
-3.29
-3.77
-4.12
-4.26
-4.11
-3.71
-3.15
-2.53
-1.97
-1.54
-1.24
-1.01
-0.79
-0.54
-0.23
0.12
0.45
0.76
1.04
1.29
1.51
1.68
1.83
1.99
2.23
2.57
2.99
3.45
3.85
4.13
4.28
4.31
4.24
4.11
3.93
3.72
3.51
3.34
3.25
3.23
3.24
3.19
3.01
2.65
2.14
1.55
0.99
0.55
0.23
0.02
-0.12
-0.22
-0.28
-0.33
-0.38
-0.54
-0.87
-1.41
-2.12
-2.89
-3.53
-3.88
-3.86
-3.48
-2.85
-2.17
-1.62
-1.36
-1.45
-1.81
-2.33
-2.84
-3.19
-3.31
-3.16
-2.80
-2.32
-1.81
-1.35
-0.96
-0.62
-0.30
0.03
0.32
0.52
0.60
0.57
0.49
0.42
0.42
0.50
0.65
0.87
1.18
1.60
2.13
2.71
3.22
3.56
3.67
3.58
3.37
3.16
3.02
2.96
2.99
3.11
3.28
3.47
3.61
3.61
3.41
3.02
2.50
1.99
1.57
1.25
0.94
0.54
-0.00
-0.62
-1.16
-1.48
-1.58
-1.56
-1.61
-1.86
-2.35
-2.98
-3.65
-4.24
-4.71
-5.05
-5.27
-5.34
-5.25
-5.00
-4.64
-4.18
-3.59
-2.83
-1.84
-0.69
0.45
1.35
1.83
1.85
1.52
1.07
0.75
0.69
0.91
1.30
1.73
2.10
2.38
2.61
2.84
3.12
3.44
3.75
3.97
4.06
3.98
3.75
3.44
3.13
2.88
2.71
2.63
2.60
2.58
2.54
2.49
2.41
2.32
2.17
1.95
1.60
1.12
0.52
-0.15
-0.82
-1.41
-1.87
-2.20
-2.47
-2.77
-3.16
-3.64
-4.15
-4.55
-4.72
-4.59
-4.18
-3.57
-2.88
-2.21
-1.64
-1.19
-0.80
-0.42
-0.01
0.44
0.87
1.21
1.40
1.42
1.32
1.17
1.04
0.99
1.03
1.19
1.47
1.85
2.28
2.69
3.06
3.34
3.54
3.64
3.58
3.35
2.97
2.53
2.16
2.00
2.04
2.18
2.24
2.10
1.73
1.22
0.69
0.23
-0.14
-0.47
-0.81
-1.19
-1.62
-2.13
-2.71
-3.37
-4.09
-4.80
-5.44
-5.94
-6.23
-6.27
-6.05
-5.58
-4.95
-4.23
-3.54
-2.91
-2.31
-1.71
-1.08
-0.42
0.21
0.75
1.14
1.41
1.60
1.77
1.97
2.21
2.49
2.80
3.17
3.62
4.15
4.70
5.20
5.50
5.53
5.28
4.83
4.30
3.82
3.42
3.07
2.73
2.36
2.01
1.74
1.61
1.63
1.71
1.76
1.68
1.40
0.92
0.28
-0.45
-1.20
-1.88
-2.42
-2.80
-3.07
-3.32
-3.68
-4.21
-4.87
-5.55
-6.07
-6.32
-6.26
-5.91
-5.34
-4.61
-3.76
-2.84
-1.89
-1.02
-0.31
0.21
0.55
0.78
0.99
1.21
1.46
1.73
2.05
2.46
3.01
3.69
4.43
5.08
5.49
5.60
5.44
5.16
4.94
4.90
5.07
5.39
5.74
6.01
6.12
6.04
5.78
5.38
4.87
4.32
3.73
3.12
2.48
1.82
1.17
0.57
0.08
-0.25
-0.44
-0.54
-0.62
-0.74
-0.94
-1.22
-1.59
-2.06
-2.58
-3.11
-3.55
-3.79
-3.76
-3.42
-2.81
-2.03
-1.20
-0.43
0.21
0.69
1.03
1.29
1.52
1.74
1.94
2.08
2.10
2.02
1.87
1.73
1.65
1.68
1.81
2.03
2.30
2.57
2.79
2.90
2.84
2.60
2.20
1.73
1.28
0.93
0.72
0.62
0.57
0.55
0.52
0.49
0.46
0.42
0.34
0.20
-0.01
-0.26
-0.52
-0.72
-0.83
-0.90
-0.98
-1.13
-1.42
-1.84
-2.35
-2.90
-3.38
-3.72
-3.82
-3.64
-3.21
-2.61
-1.96
-1.37
-0.85
-0.37
0.17
0.77
1.39
1.90
2.16
2.15
1.96
1.77
1.74
1.91
2.20
2.47
2.58
2.46
2.16
1.82
1.55
1.41
1.39
1.40
1.32
1.12
0.80
0.45
0.17
0.01
-0.06
-0.15
-0.41
-0.88
-1.53
-2.21
-2.74
-3.05
-3.16
-3.21
-3.35
-3.65
-4.09
-4.58
-5.00
-5.33
-5.63
-5.99
-6.43
-6.90
-7.29
-7.46
-7.33
-6.91
-6.26
-5.51
-4.79
-4.19
-3.73
-3.40
-3.14
-2.92
-2.73
-2.63
-2.69
-2.95
-3.34
-3.69
-3.81
-3.58
-3.03
-2.34
-1.76
-1.41
-1.26
-1.16
-0.90
-0.40
0.25
0.88
1.32
1.56
1.73
2.02
2.54
3.27
4.07
4.74
5.16
5.29
5.19
4.92
4.49
3.90
3.16
2.35
1.61
1.06
0.79
0.81
1.05
1.43
1.84
2.22
2.50
2.65
2.67
2.60
2.51
2.44
2.42
2.45
2.51
2.60
2.73
2.88
3.03
3.14
3.16
3.12
3.02
2.94
2.94
3.03
3.25
3.57
4.00
4.50
5.09
5.78
6.63
7.68
8.88
10.05
10.89
11.00
10.07
8.01
5.03
1.56
-1.85
-4.77
-6.99
-8.58
-9.76
-10.78
-11.78
-12.75
-13.60
-14.24
-14.66
-14.89
-15.02
-15.08
-15.05
-14.89
-14.57
-14.07
-13.39
-12.52
-11.43
-10.12
-8.62
-7.04
-5.56
-4.35
-3.52
-3.07
-2.91
-2.89
-2.90
-2.89
-2.82
-2.68
-2.41
-1.95
-1.26
-0.37
0.60
1.51
2.25
2.81
3.31
3.89
4.66
5.62
6.67
7.69
8.60
9.37
10.05
10.69
11.33
11.96
12.55
13.08
13.60
14.20
15.00
16.12
17.55
19.18
20.79
22.08
22.80
22.77
21.94
20.36
18.14
15.46
12.43
9.15
5.68
2.06
-1.61
-5.17
-8.36
-10.96
-12.87
-14.16
-15.07
-15.86
-16.68
-17.54
-18.31
-18.84
-19.05
-18.96
-18.64
-18.18
-17.66
-17.10
-16.57
-16.10
-15.72
-15.44
-15.24
-15.16
-15.32
-15.89
-16.97
-18.47
-20.12
-21.51
-22.31
-22.44
-22.06
-21.46
-20.94
-20.67
-20.72
-21.07
-21.71
-22.52
-23.31
-23.79
-23.65
-22.78
-21.26
-19.43
-17.66
-16.19
-14.98
-13.75
-12.12
-9.83
-6.85
-3.43
0.08
3.32
6.11
8.45
10.50
12.42
14.26
15.99
17.53
18.81
19.82
20.58
21.03
21.05
20.50
19.29
17.50
15.33
13.08
11.04
9.37
8.15
7.37
6.93
6.72
6.58
6.38
6.00
5.42
4.74
4.17
3.93
4.20
4.99
6.18
7.54
8.78
9.68
10.13
10.17
9.93
9.58
9.25
9.01
8.85
8.73
8.59
8.41
8.21
8.02
7.85
7.68
7.42
6.98
6.29
5.35
4.25
3.15
2.22
1.56
1.20
1.08
1.11
1.18
1.24
1.25
1.24
1.22
1.21
1.20
1.20
1.20
1.22
1.26
1.33
1.39
1.39
1.29
1.05
0.67
0.21
-0.25
-0.60
-0.76
-0.70
-0.43
0.00
0.56
1.18
1.86
2.59
3.36
4.12
4.78
5.23
5.36
5.15
4.67
4.08
3.52
3.10
2.85
2.76
2.80
3.00
3.41
4.07
4.90
5.78
6.53
7.01
7.20
7.13
6.92
6.68
6.46
6.32
6.26
6.26
6.29
6.29
6.19
5.94
5.55
5.05
4.49
3.91
3.32
2.77
2.30
1.98
1.83
1.79
1.79
1.68
1.45
1.12
0.82
0.67
0.70
0.86
1.08
1.25
1.39
1.50
1.60
1.69
1.73
1.68
1.56
1.42
1.32
1.31
1.39
1.52
1.71
1.95
2.23
2.49
2.63
2.53
2.15
1.56
0.95
0.51
0.37
0.52
0.83
1.12
1.24
1.13
0.82
0.40
-0.07
-0.56
-1.05
-1.55
-2.04
-2.46
-2.77
-2.93
-2.93
-2.80
-2.57
-2.32
-2.11
-1.98
-1.93
-1.93
-1.92
-1.86
-1.77
-1.69
-1.71
-1.85
-2.06
-2.25
-2.33
-2.24
-2.00
-1.66
-1.30
-1.00
-0.81
-0.79
-0.97
-1.33
-1.80
-2.24
-2.54
-2.61
-2.44
-2.12
-1.75
-1.46
-1.29
-1.23
-1.20
-1.13
-1.00
-0.83
-0.69
-0.67
-0.79
-1.03
-1.32
-1.58
-1.74
-1.81
-1.78
-1.68
-1.52
-1.28
-1.01
-0.77
-0.65
-0.70
-0.93
-1.25
-1.56
-1.75
-1.77
-1.67
-1.54
-1.46
-1.48
-1.61
-1.80
-2.06
-2.38
-2.75
-3.15
-3.51
-3.74
-3.80
-3.73
-3.64
-3.67
-3.88
-4.25
-4.66
-4.96
-5.08
-5.03
-4.86
-4.65
-4.42
-4.13
-3.79
-3.43
-3.18
-3.18
-3.50
-4.08
-4.71
-5.15
-5.18
-4.73
-3.88
-2.81
-1.71
-0.72
0.10
0.74
1.23
1.61
1.90
2.15
2.34
2.45
2.48
2.40
2.26
2.12
2.04
2.08
2.22
2.44
2.67
2.87
3.02
3.13
3.19
3.18
3.08
2.90
2.64
2.32
1.97
1.60
1.18
0.75
0.35
0.05
-0.10
-0.12
-0.11
-0.20
-0.54
-1.17
-2.07
-3.14
-4.23
-5.23
-6.02
-6.53
-6.72
-6.62
-6.32
-5.94
-5.59
-5.32
-5.13
-4.95
-4.73
-4.48
-4.21
-3.97
-3.76
-3.55
-3.29
-2.98
-2.65
-2.35
-2.15
-2.03
-1.93
-1.79
-1.56
-1.25
-0.93
-0.67
-0.51
-0.41
-0.33
-0.25
-0.16
-0.09
-0.04
0.04
0.19
0.44
0.74
0.96
0.99
0.81
0.46
0.08
-0.24
-0.48
-0.68
-0.94
-1.28
-1.69
-2.04
-2.24
-2.22
-2.00
-1.63
-1.19
-0.74
-0.31
0.10
0.45
0.72
0.87
0.85
0.66
0.31
-0.11
-0.52
-0.82
-1.01
-1.10
-1.13
-1.13
-1.08
-0.94
-0.73
-0.50
-0.37
-0.41
-0.64
-0.97
-1.27
-1.44
-1.44
-1.33
-1.17
-1.01
-0.86
-0.67
-0.47
-0.29
-0.24
-0.38
-0.71
-1.17
-1.62
-1.93
-2.02
-1.85
-1.46
-0.90
-0.25
0.42
1.07
1.68
2.23
2.75
3.25
3.76
4.22
4.61
4.86
4.98
5.00
4.98
4.99
5.02
5.06
5.07
5.10
5.21
5.47
5.84
6.19
6.32
6.06
5.41
4.52
3.64
2.97
2.58
2.35
2.12
1.77
1.31
0.82
0.41
0.09
-0.22
-0.62
-1.14
-1.74
-2.29
-2.67
-2.85
-2.89
-2.88
-2.89
-2.88
-2.80
-2.58
-2.19
-1.70
-1.18
-0.73
-0.37
-0.11
0.09
0.26
0.42
0.60
0.79
1.00
1.21
1.39
1.49
1.48
1.34
1.10
0.80
0.47
0.16
-0.16
-0.49
-0.87
-1.32
-1.82
-2.34
-2.81
-3.21
-3.49
-3.64
-3.68
-3.63
-3.55
-3.47
-3.41
-3.35
-3.22
-2.96
-2.51
-1.84
-1.02
-0.14
0.71
1.48
2.17
2.80
3.36
3.81
4.06
4.06
3.81
3.38
2.89
2.47
2.19
2.07
2.05
2.04
1.94
1.71
1.34
0.91
0.52
0.26
0.20
0.33
0.54
0.74
0.85
0.83
0.73
0.60
0.44
0.23
-0.09
-0.53
-1.04
-1.49
-1.76
-1.78
-1.62
-1.41
-1.32
-1.39
-1.60
-1.79
-1.82
-1.60
-1.14
-0.53
0.12
0.66
0.99
1.07
0.90
0.59
0.25
0.02
-0.04
0.08
0.32
0.59
0.82
0.98
1.06
1.03
0.88
0.62
0.23
-0.24
-0.76
-1.26
-1.68
-1.97
-2.12
-2.15
-2.10
-2.06
-2.05
-2.07
-2.08
-2.01
-1.83
-1.56
-1.26
-0.99
-0.74
-0.50
-0.21
0.15
0.57
0.99
1.34
1.54
1.55
1.40
1.12
0.83
0.60
0.51
0.58
0.79
1.07
1.37
1.60
1.70
1.63
1.40
1.02
0.60
0.26
0.12
0.20
0.45
0.70
0.78
0.60
0.14
-0.52
-1.29
-2.10
-2.90
-3.65
-4.31
-4.75
-4.90
-4.73
-4.30
-3.72
-3.15
-2.67
-2.32
-2.09
-1.96
-1.93
-2.00
-2.11
-2.21
-2.22
-2.06
-1.73
-1.24
-0.66
-0.05
0.51
0.97
1.30
1.53
1.70
1.84
2.01
2.19
2.33
2.35
2.19
1.84
1.36
0.82
0.29
-0.26
-0.83
-1.43
-2.02
-2.47
-2.68
-2.67
-2.56
-2.54
-2.78
-3.25
-3.82
-4.29
-4.53
-4.56
-4.50
-4.51
-4.61
-4.76
-4.84
-4.81
-4.64
-4.40
-4.14
-3.86
-3.55
-3.21
-2.92
-2.75
-2.74
-2.82
-2.88
-2.78
-2.46
-1.97
-1.47
-1.13
-1.07
-1.28
-1.66
-2.05
-2.34
-2.48
-2.49
-2.42
-2.26
-1.99
-1.56
-0.98
-0.36
0.17
0.47
0.48
0.24
-0.11
-0.46
-0.74
-0.92
-1.04
-1.09
-1.07
-0.98
-0.82
-0.65
-0.56
-0.58
-0.75
-1.03
-1.37
-1.68
-1.90
-1.97
-1.90
-1.73
-1.56
-1.50
-1.58
-1.77
-1.97
-2.06
-2.00
-1.77
-1.45
-1.10
-0.75
-0.40
-0.05
0.27
0.57
0.83
1.08
1.34
1.62
1.91
2.17
2.38
2.54
2.65
2.71
2.74
2.74
2.71
2.66
2.59
2.49
2.36
2.20
2.04
1.90
1.81
1.72
1.56
1.24
0.76
0.16
-0.41
-0.80
-0.93
-0.79
-0.48
-0.13
0.17
0.39
0.54
0.67
0.78
0.88
0.92
0.92
0.93
1.03
1.28
1.66
2.12
2.57
2.92
3.15
3.24
3.21
3.05
2.75
2.32
1.82
1.38
1.09
1.00
1.06
1.17
1.20
1.11
0.88
0.60
0.31
0.03
-0.27
-0.60
-0.94
-1.22
-1.35
-1.30
-1.10
-0.81
-0.52
-0.25
0.00
0.29
0.67
1.12
1.62
2.06
2.36
2.47
2.44
2.36
2.33
2.43
2.62
2.84
2.97
2.96
2.83
2.66
2.52
2.44
2.40
2.34
2.23
2.07
1.89
1.69
1.45
1.12
0.68
0.14
-0.41
-0.90
-1.23
-1.37
-1.28
-1.00
-0.58
-0.10
0.35
0.66
0.81
0.81
0.73
0.66
0.67
0.79
0.98
1.21
1.44
1.68
1.92
2.15
2.33
2.41
2.33
2.11
1.80
1.50
1.29
1.19
1.17
1.17
1.12
1.02
0.89
0.74
0.59
0.40
0.14
-0.18
-0.53
-0.81
-1.00
-1.08
-1.13
-1.18
-1.26
-1.28
-1.17
-0.87
-0.40
0.11
0.56
0.85
1.00
1.10
1.26
1.54
1.89
2.22
2.41
2.42
2.29
2.13
2.04
2.09
2.23
2.37
2.41
2.29
2.04
1.75
1.49
1.34
1.30
1.32
1.32
1.24
1.06
0.78
0.42
0.02
-0.42
-0.87
-1.32
-1.72
-2.02
-2.23
-2.33
-2.36
-2.33
-2.21
-1.96
-1.56
-1.03
-0.44
0.13
0.64
1.09
1.54
1.99
2.40
2.67
2.76
2.70
2.60
2.61
2.81
3.17
3.55
3.80
3.80
3.55
3.16
2.75
2.41
2.20
2.11
2.15
2.31
2.57
2.85
3.05
3.04
2.80
2.40
1.99
1.71
1.65
1.75
1.84
1.79
1.52
1.06
0.54
0.09
-0.21
-0.38
-0.51
-0.69
-1.03
-1.57
-2.28
-3.05
-3.75
-4.23
-4.42
-4.34
-4.07
-3.74
-3.42
-3.14
-2.85
-2.47
-1.97
-1.38
-0.80
-0.33
-0.05
0.07
0.14
0.29
0.61
1.10
1.65
2.11
2.38
2.42
2.30
2.13
2.00
1.95
2.00
2.14
2.35
2.62
2.89
3.10
3.19
3.14
2.97
2.72
2.45
2.24
2.11
2.03
1.96
1.84
1.60
1.25
0.83
0.43
0.15
0.02
-0.01
-0.05
-0.16
-0.36
-0.56
-0.71
-0.81
-0.95
-1.28
-1.86
-2.64
-3.44
-4.05
-4.34
-4.29
-4.02
-3.67
-3.35
-3.05
-2.75
-2.35
-1.83
-1.21
-0.58
-0.03
0.38
0.65
0.85
1.04
1.28
1.59
1.92
2.19
2.36
2.42
2.39
2.34
2.34
2.42
2.56
2.72
2.83
2.86
2.82
2.74
2.66
2.60
2.52
2.38
2.18
1.95
1.77
1.72
1.76
1.81
1.74
1.46
0.97
0.37
-0.18
-0.53
-0.63
-0.51
-0.26
0.02
0.22
0.28
0.21
-0.00
-0.32
-0.70
-1.12
-1.58
-2.08
-2.64
-3.26
-3.89
-4.44
-4.85
-5.08
-5.10
-4.98
-4.75
-4.48
-4.15
-3.75
-3.24
-2.61
-1.86
-1.09
-0.40
0.13
0.44
0.54
0.51
0.41
0.33
0.33
0.45
0.67
0.97
1.29
1.56
1.76
1.85
1.86
1.81
1.72
1.63
1.54
1.50
1.53
1.62
1.74
1.86
1.90
1.83
1.65
1.41
1.17
1.03
1.04
1.19
1.39
1.54
1.53
1.36
1.09
0.81
0.60
0.50
0.45
0.39
0.25
-0.02
-0.44
-1.00
-1.65
-2.30
-2.83
-3.14
-3.21
-3.11
-2.98
-2.91
-2.97
-3.10
-3.21
-3.21
-3.06
-2.80
-2.48
-2.19
-1.92
-1.66
-1.36
-0.97
-0.52
-0.06
0.31
0.53
0.57
0.49
0.36
0.28
0.31
0.46
0.73
1.08
1.48
1.89
2.24
2.47
2.57
2.53
2.43
2.30
2.21
2.16
2.10
2.00
1.81
1.54
1.23
0.95
0.77
0.71
0.75
0.85
0.96
1.06
1.18
1.32
1.49
1.60
1.61
1.47
1.21
0.88
0.55
0.23
-0.12
-0.56
-1.10
-1.71
-2.32
-2.83
-3.18
-3.34
-3.37
-3.29
-3.16
-2.99
-2.78
-2.55
-2.28
-2.00
-1.75
-1.58
-1.51
-1.54
-1.59
-1.60
-1.46
-1.13
-0.64
-0.08
0.41
0.75
0.89
0.92
0.96
1.11
1.43
1.85
2.25
2.49
2.48
2.28
2.01
1.86
1.94
2.24
2.66
3.02
3.17
3.05
2.68
2.19
1.68
1.25
0.93
0.73
0.64
0.66
0.80
1.07
1.38
1.66
1.78
1.66
1.30
0.76
0.14
-0.41
-0.81
-1.06
-1.16
-1.19
-1.19
-1.19
-1.23
-1.33
-1.50
-1.76
-2.05
-2.32
-2.51
-2.63
-2.71
-2.80
-2.90
-2.96
-2.91
-2.68
-2.27
-1.73
-1.17
-0.69
-0.33
-0.11
0.03
0.13
0.27
0.48
0.76
1.05
1.28
1.39
1.36
1.27
1.20
1.24
1.38
1.54
1.65
1.62
1.48
1.32
1.25
1.31
1.48
1.66
1.76
1.70
1.50
1.23
0.99
0.87
0.90
1.04
1.21
1.32
1.33
1.23
1.06
0.85
0.65
0.43
0.20
-0.05
-0.30
-0.53
-0.71
-0.85
-0.96
-1.07
-1.19
-1.33
-1.50
-1.70
-1.92
-2.17
-2.41
-2.62
-2.76
-2.80
-2.73
-2.53
-2.22
-1.81
-1.33
-0.84
-0.41
-0.11
0.05
0.05
-0.06
-0.21
-0.32
-0.33
-0.21
0.02
0.26
0.43
0.47
0.38
0.27
0.23
0.34
0.57
0.85
1.09
1.23
1.33
1.45
1.63
1.84
1.96
1.90
1.62
1.20
0.75
0.37
0.09
-0.11
-0.27
-0.39
-0.43
-0.33
-0.12
0.17
0.40
0.47
0.34
0.04
-0.29
-0.53
-0.61
-0.55
-0.43
-0.36
-0.40
-0.57
-0.82
-1.10
-1.39
-1.70
-2.01
-2.32
-2.61
-2.83
-2.95
-2.95
-2.81
-2.54
-2.15
-1.71
-1.26
-0.90
-0.67
-0.56
-0.53
-0.50
-0.41
-0.25
-0.02
0.22
0.44
0.59
0.67
0.68
0.67
0.64
0.64
0.69
0.77
0.89
1.00
1.11
1.21
1.29
1.35
1.38
1.37
1.30
1.15
0.91
0.60
0.26
-0.04
-0.20
-0.17
0.04
0.35
0.62
0.74
0.63
0.34
-0.03
-0.38
-0.63
-0.79
-0.89
-0.96
-1.04
-1.13
-1.24
-1.40
-1.63
-1.95
-2.34
-2.70
-2.92
-2.93
-2.72
-2.38
-2.01
-1.72
-1.51
-1.35
-1.17
-0.95
-0.71
-0.49
-0.30
-0.13
0.06
0.31
0.55
0.69
0.66
0.48
0.29
0.23
0.39
0.71
1.05
1.24
1.23
1.08
0.92
0.86
0.92
1.03
1.07
0.96
0.72
0.42
0.17
0.04
0.03
0.11
0.25
0.38
0.45
0.42
0.26
-0.02
-0.36
-0.65
-0.79
-0.76
-0.63
-0.51
-0.50
-0.64
-0.88
-1.16
-1.41
-1.65
-1.90
-2.20
-2.48
-2.65
-2.63
-2.37
-1.96
-1.54
-1.23
-1.09
-1.07
-1.04
-0.92
-0.69
-0.40
-0.18
-0.08
-0.09
-0.12
-0.09
0.05
0.23
0.37
0.42
0.40
0.42
0.53
0.73
0.90
0.94
0.76
0.43
0.08
-0.15
-0.15
0.06
0.37
0.62
0.70
0.52
0.11
-0.41
-0.90
-1.25
-1.42
-1.47
-1.52
-1.66
-1.89
-2.11
-2.21
-2.13
-1.91
-1.68
-1.61
-1.75
-2.08
-2.47
-2.77
-2.89
-2.85
-2.69
-2.51
-2.34
-2.14
-1.88
-1.52
-1.10
-0.68
-0.37
-0.17
-0.07
-0.03
0.02
0.06
0.09
0.11
0.14
0.25
0.45
0.73
0.99
1.13
1.11
0.94
0.71
0.53
0.46
0.52
0.65
0.75
0.77
0.68
0.52
0.38
0.33
0.37
0.48
0.58
0.61
0.52
0.33
0.09
-0.17
-0.44
-0.72
-1.05
-1.40
-1.73
-2.00
-2.16
-2.19
-2.09
-1.87
-1.58
-1.24
-0.89
-0.55
-0.24
0.02
0.23
0.40
0.52
0.60
0.66
0.71
0.78
0.88
0.98
1.05
1.04
0.95
0.80
0.64
0.51
0.45
0.48
0.60
0.79
1.02
1.25
1.43
1.53
1.51
1.37
1.13
0.84
0.57
0.35
0.22
0.16
0.13
0.11
0.07
0.01
-0.09
-0.26
-0.50
-0.82
-1.18
-1.53
-1.78
-1.92
-1.95
-1.92
-1.87
-1.76
-1.57
-1.25
-0.84
-0.43
-0.10
0.11
0.23
0.37
0.59
0.92
1.32
1.74
2.14
2.50
2.83
3.12
3.33
3.45
3.49
3.50
3.54
3.64
3.74
3.78
3.67
3.44
3.13
2.84
2.60
2.44
2.35
2.35
2.47
2.76
3.18
3.62
3.93
4.00
3.87
3.68
3.60
3.78
4.24
4.88
5.58
6.22
6.73
7.12
7.37
7.46
7.41
7.19
6.85
6.42
5.91
5.33
4.64
3.85
2.98
2.07
1.18
0.30
-0.54
-1.39
-2.29
-3.26
-4.34
-5.48
-6.65
-7.76
-8.71
-9.44
-9.96
-10.31
-10.62
-10.97
-11.41
-11.88
-12.26
-12.44
-12.36
-12.06
-11.63
-11.16
-10.66
-10.09
-9.40
-8.58
-7.71
-6.93
-6.39
-6.14
-6.12
-6.18
-6.19
-6.02
-5.69
-5.25
-4.81
-4.44
-4.18
-4.01
-3.91
-3.84
-3.79
-3.74
-3.64
-3.43
-3.04
-2.41
-1.57
-0.57
0.41
1.23
1.75
1.99
2.02
2.03
2.17
2.52
3.05
3.68
4.29
4.83
5.33
5.86
6.46
7.11
7.74
8.26
8.67
9.02
9.49
10.21
11.28
12.67
14.26
15.82
17.10
17.87
17.98
17.40
16.23
14.66
12.95
11.33
9.90
8.64
7.41
6.11
4.66
3.15
1.73
0.61
-0.03
-0.13
0.31
1.09
1.96
2.56
2.59
1.89
0.51
-1.25
-2.99
-4.31
-4.96
-4.88
-4.22
-3.18
-1.97
-0.74
0.42
1.41
2.15
2.56
2.62
2.42
2.13
1.94
2.00
2.34
2.85
3.34
3.58
3.36
2.55
1.09
-0.96
-3.46
-6.19
-8.88
-11.23
-13.03
-14.17
-14.67
-14.67
-14.36
-13.93
-13.53
-13.20
-12.91
-12.59
-12.18
-11.63
-10.92
-10.11
-9.28
-8.52
-7.89
-7.43
-7.09
-6.78
-6.40
-5.87
-5.15
-4.26
-3.24
-2.16
-1.10
-0.18
0.52
0.90
0.96
0.78
0.48
0.23
0.10
0.10
0.18
0.23
0.18
0.00
-0.28
-0.66
-1.10
-1.59
-2.11
-2.65
-3.19
-3.74
-4.33
-4.98
-5.66
-6.31
-6.80
-7.04
-6.97
-6.60
-6.06
-5.47
-4.99
-4.69
-4.60
-4.67
-4.80
-4.90
-4.90
-4.73
-4.38
-3.84
-3.14
-2.34
-1.54
-0.82
-0.27
0.09
0.27
0.32
0.31
0.28
0.23
0.16
0.08
0.04
0.06
0.20
0.43
0.68
0.87
0.91
0.82
0.64
0.43
0.24
0.06
-0.11
-0.28
-0.43
-0.52
-0.50
-0.36
-0.17
-0.00
0.08
0.06
-0.01
-0.01
0.15
0.52
1.07
1.70
2.28
2.71
2.93
2.98
2.97
2.98
3.06
3.19
3.29
3.32
3.24
3.08
2.86
2.58
2.22
1.77
1.28
0.85
0.64
0.70
1.01
1.37
1.58
1.47
1.00
0.27
-0.63
-1.57
-2.50
-3.34
-3.98
-4.29
-4.17
-3.61
-2.69
-1.59
-0.48
0.51
1.31
1.90
2.31
2.53
2.60
2.52
2.33
2.05
1.74
1.50
1.49
1.84
2.56
3.53
4.47
5.13
5.33
5.11
4.62
4.06
3.55
3.11
2.69
2.28
1.94
1.77
1.82
2.04
2.28
2.39
2.29
2.00
1.58
1.11
0.58
-0.06
-0.83
-1.66
-2.39
-2.81
-2.83
-2.47
-1.86
-1.19
-0.61
-0.17
0.16
0.40
0.57
0.64
0.60
0.50
0.43
0.50
0.78
1.24
1.81
2.36
2.82
3.13
3.28
3.25
3.05
2.72
2.35
2.07
2.03
2.29
2.78
3.37
3.88
4.21
4.37
4.43
4.49
4.56
4.61
4.54
4.31
3.91
3.41
2.93
2.58
2.42
2.43
2.54
2.63
2.57
2.27
1.77
1.16
0.63
0.30
0.20
0.27
0.38
0.49
0.59
0.78
1.12
1.59
2.07
2.42
2.56
2.55
2.53
2.65
2.99
3.46
3.93
4.25
4.34
4.25
4.05
3.83
3.60
3.31
2.92
2.43
1.92
1.53
1.35
1.41
1.58
1.70
1.59
1.18
0.52
-0.21
-0.85
-1.32
-1.65
-1.94
-2.30
-2.75
-3.22
-3.59
-3.79
-3.82
-3.70
-3.54
-3.37
-3.22
-3.05
-2.84
-2.58
-2.29
-1.98
-1.66
-1.34
-1.03
-0.78
-0.64
-0.59
-0.63
-0.66
-0.62
-0.51
-0.35
-0.21
-0.14
-0.14
-0.17
-0.21
-0.25
-0.30
-0.39
-0.48
-0.54
-0.48
-0.30
-0.02
0.25
0.38
0.27
-0.09
-0.63
-1.23
-1.74
-2.08
-2.25
-2.32
-2.40
-2.57
-2.86
-3.27
-3.75
-4.25
-4.72
-5.04
-5.11
-4.84
-4.19
-3.26
-2.19
-1.16
-0.27
0.47
1.08
1.60
2.04
2.35
2.49
2.46
2.32
2.14
2.01
1.99
2.08
2.29
2.57
2.88
3.16
3.37
3.54
3.72
3.94
4.18
4.37
4.41
4.26
4.00
3.76
3.68
3.79
3.97
4.05
3.86
3.36
2.67
2.00
1.56
1.45
1.61
1.86
2.03
1.97
1.67
1.22
0.74
0.35
0.12
0.03
0.01
-0.03
-0.19
-0.52
-0.98
-1.50
-1.99
-2.36
-2.56
-2.61
-2.55
-2.40
-2.22
-2.06
-1.95
-1.92
-1.96
-1.98
-1.90
-1.61
-1.10
-0.45
0.23
0.77
1.09
1.12
0.91
0.52
0.07
-0.30
-0.50
-0.45
-0.16
0.27
0.72
1.08
1.29
1.37
1.39
1.40
1.41
1.38
1.26
1.07
0.85
0.65
0.51
0.36
0.13
-0.24
-0.71
-1.19
-1.57
-1.80
-1.93
-2.05
-2.23
-2.50
-2.82
-3.16
-3.51
-3.92
-4.40
-4.99
-5.67
-6.44
-7.27
-8.14
-8.92
-9.46
-9.55
-9.05
-7.95
-6.42
-4.72
-3.12
-1.81
-0.85
-0.16
0.35
0.78
1.16
1.52
1.87
2.23
2.61
3.00
3.34
3.55
3.60
3.52
3.39
3.31
3.31
3.39
3.49
3.54
3.51
3.42
3.29
3.18
3.16
3.24
3.41
3.65
3.89
4.07
4.17
4.20
4.19
4.18
4.21
4.23
4.20
4.08
3.84
3.50
3.15
2.86
2.72
2.77
2.94
3.10
3.11
2.91
2.53
2.09
1.67
1.32
0.97
0.51
-0.10
-0.81
-1.47
-1.91
-2.04
-1.87
-1.54
-1.17
-0.87
-0.61
-0.32
0.06
0.52
0.98
1.33
1.54
1.64
1.76
1.99
2.37
2.81
3.16
3.31
3.23
2.98
2.69
2.42
2.17
1.92
1.62
1.34
1.18
1.19
1.38
1.63
1.76
1.69
1.43
1.11
0.88
0.82
0.93
1.10
1.22
1.22
1.11
0.90
0.61
0.27
-0.08
-0.36
-0.49
-0.44
-0.24
0.04
0.27
0.39
0.38
0.26
0.07
-0.17
-0.45
-0.77
-1.09
-1.36
-1.55
-1.68
-1.79
-1.89
-2.00
-2.10
-2.13
-2.07
-1.94
-1.81
-1.73
-1.76
-1.86
-1.98
-2.03
-1.95
-1.76
-1.50
-1.26
-1.11
-1.05
-1.06
-1.07
-1.02
-0.89
-0.75
-0.67
-0.71
-0.82
-0.89
-0.80
-0.51
-0.07
0.36
0.63
0.70
0.63
0.58
0.67
0.93
1.31
1.71
2.04
2.25
2.36
2.41
2.43
2.45
2.48
2.56
2.67
2.81
2.94
3.03
3.07
3.05
2.96
2.80
2.56
2.26
1.95
1.66
1.41
1.17
0.91
0.59
0.23
-0.13
-0.40
-0.50
-0.40
-0.13
0.25
0.67
1.07
1.41
1.64
1.76
1.75
1.64
1.46
1.25
1.05
0.87
0.75
0.71
0.79
1.00
1.35
1.78
2.17
2.45
2.55
2.51
2.39
2.25
2.17
2.15
2.19
2.25
2.27
2.23
2.11
1.95
1.77
1.63
1.57
1.58
1.64
1.69
1.70
1.64
1.54
1.42
1.26
1.09
0.87
0.60
0.30
-0.01
-0.31
-0.60
-0.93
-1.35
-1.88
-2.50
-3.10
-3.53
-3.73
-3.71
-3.61
-3.59
-3.76
-4.12
-4.53
-4.82
-4.89
-4.74
-4.47
-4.16
-3.85
-3.47
-2.98
-2.36
-1.70
-1.18
-0.93
-0.98
-1.21
-1.41
-1.42
-1.19
-0.84
-0.52
-0.38
-0.48
-0.79
-1.21
-1.63
-1.96
-2.13
-2.11
-1.89
-1.53
-1.16
-0.90
-0.88
-1.09
-1.44
-1.77
-1.91
-1.83
-1.55
-1.16
-0.77
-0.43
-0.14
0.16
0.48
0.80
1.04
1.10
0.93
0.59
0.20
-0.06
-0.09
0.11
0.44
0.76
0.93
0.91
0.76
0.58
0.45
0.39
0.35
0.23
0.00
-0.32
-0.66
-0.91
-0.99
-0.93
-0.84
-0.84
-1.02
-1.33
-1.65
-1.83
-1.77
-1.49
-1.11
-0.80
-0.70
-0.86
-1.24
-1.73
-2.22
-2.64
-2.92
-3.05
-3.03
-2.84
-2.50
-2.03
-1.50
-1.02
-0.67
-0.51
-0.49
-0.55
-0.61
-0.62
-0.59
-0.55
-0.48
-0.38
-0.20
0.05
0.33
0.56
0.63
0.51
0.22
-0.16
-0.52
-0.75
-0.80
-0.68
-0.44
-0.17
0.02
0.07
-0.04
-0.26
-0.53
-0.77
-0.94
-1.08
-1.22
-1.43
-1.67
-1.91
-2.07
-2.13
-2.12
-2.12
-2.16
-2.25
-2.31
-2.22
-1.92
-1.44
-0.89
-0.39
-0.03
0.19
0.32
0.39
0.40
0.33
0.18
0.01
-0.08
-0.00
0.25
0.55
0.75
0.73
0.49
0.14
-0.14
-0.22
-0.09
0.18
0.43
0.52
0.41
0.16
-0.12
-0.32
-0.41
-0.43
-0.47
-0.56
-0.69
-0.79
-0.80
-0.72
-0.63
-0.64
-0.85
-1.26
-1.78
-2.29
-2.65
-2.78
-2.70
-2.44
-2.06
-1.62
-1.15
-0.66
-0.19
0.21
0.49
0.60
0.52
0.30
0.05
-0.10
-0.09
0.12
0.44
0.75
0.95
1.01
0.98
0.95
0.99
1.09
1.21
1.29
1.30
1.29
1.30
1.38
1.50
1.58
1.54
1.37
1.11
0.82
0.59
0.44
0.32
0.21
0.09
-0.00
-0.04
-0.01
0.05
0.08
0.01
-0.20
-0.54
-0.95
-1.37
-1.71
-1.95
-2.09
-2.17
-2.27
-2.41
-2.57
-2.68
-2.66
-2.45
-2.07
-1.56
-1.00
-0.47
-0.03
0.33
0.58
0.72
0.74
0.67
0.54
0.43
0.41
0.50
0.67
0.86
0.97
0.96
0.83
0.68
0.60
0.66
0.87
1.13
1.36
1.48
1.52
1.53
1.55
1.59
1.58
1.46
1.22
0.94
0.72
0.66
0.75
0.93
1.09
1.13
1.03
0.81
0.52
0.18
-0.15
-0.43
-0.62
-0.70
-0.67
-0.62
-0.64
-0.80
-1.09
-1.45
-1.75
-1.93
-1.96
-1.90
-1.82
-1.76
-1.73
-1.70
-1.67
-1.61
-1.52
-1.41
-1.25
-1.05
-0.80
-0.56
-0.37
-0.25
-0.17
-0.10
0.00
0.13
0.27
0.41
0.52
0.60
0.65
0.68
0.69
0.67
0.63
0.58
0.55
0.55
0.60
0.71
0.88
1.05
1.17
1.18
1.05
0.83
0.65
0.62
0.81
1.16
1.53
1.74
1.69
1.36
0.86
0.31
-0.15
-0.48
-0.68
-0.83
-1.00
-1.26
-1.58
-1.93
-2.21
-2.37
-2.42
-2.40
-2.40
-2.44
-2.52
-2.57
-2.54
-2.38
-2.09
-1.71
-1.29
-0.88
-0.50
-0.16
0.16
0.50
0.86
1.22
1.51
1.65
1.59
1.35
1.03
0.75
0.63
0.72
0.99
1.30
1.55
1.63
1.53
1.31
1.07
0.91
0.88
0.95
1.06
1.13
1.14
1.08
0.98
0.86
0.72
0.55
0.35
0.15
-0.04
-0.19
-0.30
-0.40
-0.49
-0.59
-0.68
-0.72
-0.71
-0.64
-0.56
-0.50
-0.56
-0.79
-1.19
-1.70
-2.19
-2.51
-2.61
-2.51
-2.30
-2.06
-1.85
-1.66
-1.49
-1.35
-1.24
-1.19
-1.15
-1.01
-0.70
-0.20
0.41
0.95
1.26
1.26
0.99
0.59
0.25
0.09
0.15
0.36
0.62
0.84
0.98
1.06
1.15
1.31
1.56
1.82
2.02
2.06
1.92
1.63
1.27
0.91
0.61
0.39
0.20
0.02
-0.16
-0.27
-0.26
-0.07
0.28
0.68
1.01
1.12
0.99
0.66
0.27
-0.05
-0.21
-0.24
-0.22
-0.26
-0.42
-0.73
-1.15
-1.60
-1.98
-2.21
-2.29
-2.26
-2.21
-2.22
-2.32
-2.42
-2.43
-2.25
-1.87
-1.36
-0.87
-0.49
-0.28
-0.23
-0.28
-0.35
-0.38
-0.30
-0.10
0.20
0.54
0.81
0.95
0.93
0.84
0.77
0.79
0.91
1.06
1.18
1.22
1.19
1.14
1.15
1.23
1.38
1.57
1.75
1.87
1.89
1.78
1.55
1.23
0.87
0.54
0.31
0.19
0.14
0.12
0.07
-0.05
-0.23
-0.42
-0.57
-0.63
-0.61
-0.53
-0.46
-0.42
-0.44
-0.50
-0.59
-0.71
-0.89
-1.14
-1.46
-1.84
-2.20
-2.47
-2.61
-2.56
-2.34
-1.98
-1.56
-1.15
-0.84
-0.66
-0.61
-0.62
-0.59
-0.48
-0.26
0.02
0.29
0.49
0.59
0.59
0.52
0.43
0.33
0.24
0.18
0.18
0.28
0.45
0.66
0.85
0.98
1.04
1.10
1.20
1.35
1.53
1.64
1.61
1.44
1.17
0.90
0.71
0.61
0.57
0.52
0.42
0.27
0.12
-0.01
-0.10
-0.18
-0.26
-0.35
-0.41
-0.42
-0.38
-0.35
-0.39
-0.53
-0.75
-1.01
-1.27
-1.56
-1.95
-2.42
-2.89
-3.15
-3.04
-2.48
-1.59
-0.65
0.10
0.50
0.55
0.39
0.17
-0.00
-0.09
-0.11
-0.07
0.00
0.13
0.31
0.54
0.78
1.02
1.18
1.24
1.18
1.03
0.87
0.76
0.72
0.73
0.76
0.75
0.74
0.77
0.90
1.13
1.40
1.58
1.56
1.31
0.92
0.54
0.29
0.24
0.37
0.55
0.67
0.67
0.52
0.26
-0.05
-0.33
-0.57
-0.73
-0.83
-0.88
-0.89
-0.85
-0.75
-0.61
-0.48
-0.42
-0.55
-0.89
-1.39
-1.92
-2.30
-2.43
-2.28
-1.94
-1.54
-1.15
-0.83
-0.57
-0.35
-0.19
-0.08
-0.03
0.02
0.13
0.30
0.50
0.65
0.66
0.54
0.38
0.26
0.24
0.30
0.36
0.35
0.26
0.16
0.14
0.28
0.53
0.81
1.00
1.02
0.88
0.67
0.48
0.37
0.37
0.42
0.46
0.41
0.26
0.03
-0.17
-0.27
-0.19
0.05
0.36
0.64
0.77
0.75
0.60
0.37
0.11
-0.20
-0.58
-1.02
-1.46
-1.81
-1.97
-1.94
-1.75
-1.47
-1.17
-0.88
-0.62
-0.39
-0.21
-0.06
0.06
0.15
0.20
0.18
0.06
-0.14
-0.35
-0.46
-0.36
-0.06
0.35
0.72
0.93
0.96
0.86
0.72
0.62
0.56
0.49
0.38
0.24
0.10
0.06
0.16
0.39
0.70
1.00
1.22
1.29
1.20
0.96
0.63
0.27
-0.05
-0.27
-0.35
-0.29
-0.06
0.30
0.69
0.98
1.04
0.82
0.39
-0.11
-0.48
-0.63
-0.57
-0.42
-0.34
-0.40
-0.63
-0.96
-1.34
-1.73
-2.09
-2.40
-2.56
-2.52
-2.25
-1.83
-1.40
-1.09
-0.97
-0.97
-0.97
-0.86
-0.59
-0.22
0.14
0.40
0.59
0.74
0.91
1.07
1.14
1.05
0.81
0.52
0.33
0.33
0.49
0.70
0.82
0.79
0.65
0.51
0.46
0.50
0.57
0.57
0.44
0.22
0.01
-0.08
-0.01
0.20
0.45
0.61
0.65
0.57
0.45
0.33
0.24
0.11
-0.13
-0.50
-0.96
-1.38
-1.63
-1.61
-1.36
-0.99
-0.67
-0.50
-0.52
-0.66
-0.81
-0.86
-0.73
-0.45
-0.08
0.28
0.55
0.69
0.72
0.70
0.70
0.77
0.90
1.06
1.20
1.26
1.23
1.11
0.92
0.69
0.45
0.23
0.09
0.07
0.14
0.28
0.42
0.50
0.50
0.41
0.30
0.19
0.08
-0.04
-0.21
-0.42
-0.62
-0.74
-0.69
-0.47
-0.16
0.12
0.25
0.18
-0.02
-0.25
-0.40
-0.46
-0.50
-0.61
-0.83
-1.10
-1.32
-1.39
-1.31
-1.15
-1.02
-0.97
-0.96
-0.87
-0.63
-0.21
0.29
0.77
1.10
1.26
1.23
1.07
0.83
0.56
0.31
0.14
0.07
0.12
0.23
0.33
0.37
0.32
0.20
0.06
-0.02
0.02
0.19
0.48
0.81
1.10
1.27
1.28
1.16
0.97
0.77
0.63
0.57
0.56
0.57
0.53
0.39
0.15
-0.14
-0.38
-0.50
-0.47
-0.38
-0.34
-0.45
-0.71
-1.07
-1.40
-1.61
-1.65
-1.55
-1.36
-1.14
-0.94
-0.78
-0.67
-0.61
-0.58
-0.55
-0.50
-0.41
-0.29
-0.14
0.00
0.13
0.22
0.30
0.37
0.47
0.66
0.94
1.30
1.65
1.89
1.93
1.74
1.40
1.03
0.74
0.59
0.55
0.60
0.67
0.76
0.86
0.99
1.13
1.26
1.32
1.29
1.12
0.80
0.39
-0.06
-0.41
-0.59
-0.57
-0.39
-0.21
-0.14
-0.25
-0.47
-0.72
-0.88
-0.96
-1.05
-1.23
-1.52
-1.87
-2.12
-2.16
-1.98
-1.68
-1.41
-1.28
-1.33
-1.48
-1.60
-1.57
-1.34
-0.93
-0.42
0.06
0.43
0.65
0.72
0.72
0.73
0.80
0.93
1.05
1.08
0.97
0.75
0.50
0.32
0.28
0.39
0.59
0.80
0.94
1.02
1.08
1.17
1.31
1.44
1.47
1.34
1.06
0.76
0.56
0.55
0.66
0.80
0.81
0.64
0.33
-0.02
-0.31
-0.52
-0.68
-0.81
-0.91
-0.93
-0.82
-0.61
-0.40
-0.36
-0.57
-1.02
-1.58
-2.08
-2.41
-2.53
-2.51
-2.44
-2.38
-2.30
-2.13
-1.81
-1.34
-0.80
-0.31
0.07
0.32
0.50
0.67
0.89
1.16
1.41
1.54
1.50
1.29
1.01
0.78
0.70
0.79
1.01
1.27
1.51
1.74
1.98
2.24
2.46
2.54
2.37
1.97
1.44
0.97
0.73
0.74
0.90
1.02
0.94
0.63
0.20
-0.17
-0.35
-0.29
-0.10
0.11
0.24
0.25
0.21
0.15
0.08
-0.03
-0.19
-0.42
-0.69
-0.93
-1.12
-1.23
-1.28
-1.30
-1.33
-1.39
-1.48
-1.59
-1.71
-1.80
-1.84
-1.82
-1.75
-1.66
-1.57
-1.46
-1.31
-1.10
-0.84
-0.56
-0.29
-0.04
0.21
0.49
0.80
1.08
1.23
1.16
0.87
0.47
0.13
-0.00
0.11
0.39
0.71
0.93
1.02
1.03
1.03
1.06
1.06
0.99
0.81
0.56
0.35
0.26
0.35
0.56
0.80
0.97
1.00
0.89
0.70
0.51
0.38
0.32
0.30
0.30
0.30
0.29
0.29
0.26
0.13
-0.13
-0.52
-0.94
-1.23
-1.26
-0.99
-0.53
-0.09
0.12
-0.03
-0.51
-1.19
-1.92
-2.54
-2.96
-3.15
-3.06
-2.70
-2.11
-1.35
-0.55
0.18
0.73
1.03
1.08
0.96
0.76
0.60
0.56
0.66
0.85
1.05
1.18
1.21
1.17
1.09
1.01
0.95
0.92
0.94
1.01
1.11
1.21
1.26
1.23
1.13
1.03
0.99
1.04
1.15
1.25
1.28
1.18
0.95
0.63
0.27
-0.09
-0.40
-0.61
-0.68
-0.60
-0.42
-0.21
-0.11
-0.18
-0.41
-0.74
-1.02
-1.17
-1.18
-1.11
-1.06
-1.09
-1.21
-1.40
-1.62
-1.86
-2.14
-2.39
-2.57
-2.60
-2.46
-2.21
-1.93
-1.69
-1.49
-1.28
-1.03
-0.75
-0.49
-0.30
-0.17
-0.03
0.22
0.59
1.03
1.40
1.58
1.53
1.32
1.07
0.93
0.93
1.06
1.24
1.39
1.47
1.46
1.37
1.26
1.15
1.09
1.10
1.20
1.37
1.54
1.64
1.62
1.44
1.13
0.73
0.38
0.15
0.12
0.27
0.49
0.63
0.56
0.26
-0.15
-0.52
-0.70
-0.71
-0.63
-0.64
-0.82
-1.13
-1.45
-1.63
-1.65
-1.57
-1.54
-1.67
-1.94
-2.23
-2.35
-2.20
-1.79
-1.22
-0.67
-0.24
0.06
0.28
0.51
0.79
1.07
1.25
1.24
1.03
0.72
0.46
0.39
0.54
0.83
1.13
1.30
1.27
1.06
0.75
0.44
0.21
0.09
0.12
0.31
0.62
1.02
1.39
1.65
1.74
1.66
1.45
1.17
0.83
0.45
0.05
-0.34
-0.64
-0.79
-0.80
-0.73
-0.70
-0.76
-0.92
-1.13
-1.34
-1.56
-1.82
-2.14
-2.50
-2.80
-2.93
-2.87
-2.66
-2.38
-2.11
-1.86
-1.60
-1.29
-0.94
-0.59
-0.33
-0.16
-0.04
0.11
0.35
0.68
1.01
1.25
1.35
1.32
1.21
1.10
1.03
1.03
1.09
1.19
1.30
1.40
1.47
1.54
1.64
1.82
2.08
2.36
2.52
2.41
1.97
1.28
0.56
0.05
-0.09
0.12
0.53
0.92
1.15
1.17
0.99
0.66
0.22
-0.33
-0.95
-1.57
-2.08
-2.44
-2.62
-2.70
-2.74
-2.75
-2.69
-2.46
-2.01
-1.40
-0.78
-0.33
-0.13
-0.17
-0.29
-0.31
-0.08
0.37
0.94
1.43
1.74
1.86
1.87
1.89
1.96
2.05
2.09
1.99
1.74
1.41
1.09
0.87
0.77
0.78
0.84
0.93
1.05
1.22
1.40
1.54
1.59
1.51
1.30
1.02
0.75
0.53
0.39
0.32
0.29
0.27
0.26
0.24
0.22
0.19
0.16
0.11
0.04
-0.08
-0.29
-0.58
-0.93
-1.31
-1.68
-2.05
-2.43
-2.81
-3.17
-3.44
-3.58
-3.57
-3.44
-3.20
-2.89
-2.52
-2.05
-1.49
-0.86
-0.19
0.44
1.00
1.42
1.67
1.73
1.61
1.39
1.15
1.02
1.05
1.24
1.52
1.79
2.00
2.10
2.13
2.12
2.10
2.05
1.95
1.73
1.39
0.96
0.55
0.27
0.23
0.42
0.74
1.01
1.10
0.98
0.70
0.42
0.27
0.27
0.39
0.51
0.58
0.58
0.56
0.53
0.49
0.38
0.16
-0.18
-0.60
-1.02
-1.39
-1.68
-1.89
-2.04
-2.13
-2.20
-2.30
-2.45
-2.67
-2.91
-3.06
-3.04
-2.75
-2.25
-1.61
-1.00
-0.53
-0.27
-0.22
-0.29
-0.36
-0.36
-0.23
0.01
0.30
0.57
0.78
0.93
1.07
1.24
1.49
1.79
2.10
2.36
2.50
2.50
2.40
2.21
1.99
1.81
1.67
1.59
1.55
1.50
1.41
1.26
1.06
0.85
0.68
0.54
0.42
0.28
0.11
-0.08
-0.22
-0.25
-0.18
-0.05
0.07
0.08
-0.04
-0.29
-0.62
-0.98
-1.30
-1.53
-1.63
-1.59
-1.47
-1.36
-1.40
-1.66
-2.10
-2.62
-3.05
-3.26
-3.21
-2.94
-2.54
-2.08
-1.59
-1.09
-0.60
-0.16
0.17
0.37
0.47
0.54
0.67
0.91
1.23
1.55
1.78
1.87
1.80
1.62
1.41
1.27
1.24
1.34
1.51
1.66
1.74
1.72
1.65
1.61
1.65
1.77
1.89
1.89
1.71
1.34
0.86
0.40
0.07
-0.06
-0.03
0.07
0.13
0.06
-0.12
-0.33
-0.45
-0.41
-0.24
-0.02
0.10
0.04
-0.20
-0.55
-0.94
-1.35
-1.80
-2.31
-2.86
-3.34
-3.63
-3.63
-3.32
-2.80
-2.23
-1.75
-1.44
-1.30
-1.22
-1.12
-0.91
-0.57
-0.13
0.36
0.84
1.23
1.51
1.65
1.65
1.52
1.27
0.95
0.63
0.43
0.42
0.64
1.02
1.44
1.73
1.83
1.73
1.53
1.36
1.28
1.32
1.40
1.47
1.51
1.54
1.60
1.67
1.68
1.54
1.18
0.65
0.08
-0.37
-0.56
-0.49
-0.24
0.05
0.25
0.29
0.18
-0.06
-0.39
-0.78
-1.22
-1.69
-2.13
-2.51
-2.82
-3.06
-3.30
-3.53
-3.72
-3.76
-3.61
-3.27
-2.80
-2.32
-1.86
-1.37
-0.78
-0.04
0.78
1.50
1.94
2.04
1.86
1.58
1.35
1.24
1.20
1.16
1.09
1.01
0.98
1.05
1.17
1.27
1.28
1.19
1.03
0.88
0.79
0.78
0.84
0.95
1.12
1.35
1.63
1.95
2.23
2.38
2.33
2.05
1.57
0.99
0.42
-0.05
-0.35
-0.52
-0.64
-0.76
-0.94
-1.16
-1.36
-1.50
-1.54
-1.49
-1.42
-1.41
-1.51
-1.74
-2.05
-2.36
-2.61
-2.74
-2.76
-2.69
-2.56
-2.35
-2.06
-1.67
-1.20
-0.71
-0.31
-0.06
0.04
0.08
0.15
0.34
0.65
1.02
1.36
1.58
1.65
1.60
1.47
1.35
1.29
1.31
1.41
1.56
1.72
1.89
2.04
2.19
2.32
2.40
2.38
2.26
2.05
1.79
1.51
1.27
1.04
0.81
0.56
0.30
0.10
0.04
0.14
0.36
0.59
0.71
0.63
0.32
-0.16
-0.72
-1.25
-1.69
-2.01
-2.19
-2.27
-2.28
-2.27
-2.32
-2.50
-2.82
-3.22
-3.57
-3.73
-3.57
-3.04
-2.20
-1.17
-0.15
0.70
1.25
1.50
1.46
1.25
0.97
0.75
0.66
0.74
0.96
1.23
1.43
1.47
1.29
0.99
0.70
0.58
0.76
1.21
1.82
2.37
2.68
2.68
2.41
1.98
1.54
1.15
0.86
0.67
0.59
0.63
0.77
0.97
1.14
1.20
1.13
0.96
0.76
0.61
0.54
0.53
0.48
0.32
0.02
-0.38
-0.79
-1.11
-1.28
-1.35
-1.40
-1.51
-1.72
-1.97
-2.21
-2.38
-2.48
-2.53
-2.53
-2.47
-2.31
-2.02
-1.60
-1.10
-0.57
-0.08
0.35
0.70
0.94
1.07
1.08
1.00
0.88
0.80
0.80
0.90
1.07
1.27
1.44
1.55
1.57
1.51
1.39
1.23
1.07
0.96
0.93
1.03
1.24
1.56
1.89
2.16
2.29
2.21
1.97
1.65
1.32
1.07
0.88
0.72
0.52
0.27
-0.00
-0.24
-0.41
-0.51
-0.56
-0.60
-0.62
-0.65
-0.69
-0.77
-0.94
-1.22
-1.59
-1.99
-2.33
-2.59
-2.78
-2.94
-3.13
-3.31
-3.39
-3.24
-2.79
-2.06
-1.22
-0.49
-0.05
0.07
0.01
0.02
0.27
0.80
1.43
1.94
2.12
1.96
1.61
1.29
1.15
1.21
1.36
1.48
1.53
1.58
1.70
1.97
2.32
2.63
2.75
2.65
2.39
2.10
1.89
1.78
1.67
1.48
1.16
0.75
0.37
0.10
-0.02
-0.05
-0.06
-0.12
-0.25
-0.38
-0.49
-0.53
-0.55
-0.60
-0.76
-1.08
-1.55
-2.08
-2.58
-2.96
-3.17
-3.25
-3.23
-3.17
-3.04
-2.80
-2.39
-1.83
-1.21
-0.68
-0.36
-0.26
-0.29
-0.31
-0.23
-0.07
0.07
0.08
-0.07
-0.30
-0.47
-0.47
-0.27
0.05
0.41
0.81
1.26
1.82
2.44
2.97
3.23
3.15
2.77
2.29
1.92
1.79
1.84
1.94
1.93
1.73
1.39
1.02
0.70
0.48
0.37
0.36
0.44
0.57
0.66
0.64
0.43
0.03
-0.48
-0.97
-1.38
-1.66
-1.83
-1.97
-2.11
-2.26
-2.41
-2.57
-2.75
-2.96
-3.17
-3.28
-3.23
-2.98
-2.57
-2.07
-1.57
-1.13
-0.72
-0.34
0.03
0.36
0.60
0.71
0.73
0.68
0.64
0.64
0.67
0.71
0.76
0.81
0.89
1.06
1.33
1.69
2.11
2.47
2.68
2.63
2.31
1.79
1.20
0.71
0.43
0.36
0.44
0.60
0.76
0.89
0.95
0.94
0.82
0.57
0.21
-0.22
-0.61
-0.87
-0.98
-0.95
-0.89
-0.91
-1.13
-1.59
-2.23
-2.91
-3.47
-3.78
-3.81
-3.61
-3.27
-2.87
-2.48
-2.09
-1.71
-1.33
-0.99
-0.70
-0.45
-0.22
0.01
0.25
0.47
0.62
0.66
0.61
0.51
0.44
0.46
0.61
0.87
1.21
1.59
1.94
2.19
2.30
2.28
2.16
2.03
1.94
1.95
2.02
2.12
2.22
2.26
2.25
2.14
1.93
1.60
1.21
0.84
0.57
0.40
0.27
0.05
-0.32
-0.77
-1.15
-1.31
-1.18
-0.88
-0.63
-0.67
-1.05
-1.70
-2.42
-2.99
-3.34
-3.50
-3.55
-3.55
-3.48
-3.26
-2.86
-2.31
-1.77
-1.37
-1.20
-1.19
-1.19
-1.06
-0.73
-0.31
0.05
0.21
0.16
0.02
-0.07
0.00
0.24
0.55
0.85
1.10
1.33
1.55
1.76
1.92
2.00
2.05
2.12
2.32
2.66
3.09
3.47
3.63
3.53
3.16
2.64
2.09
1.64
1.36
1.30
1.41
1.62
1.79
1.78
1.52
1.05
0.48
-0.01
-0.29
-0.36
-0.31
-0.31
-0.48
-0.85
-1.34
-1.81
-2.20
-2.52
-2.88
-3.35
-3.93
-4.49
-4.83
-4.82
-4.44
-3.82
-3.14
-2.53
-2.04
-1.58
-1.07
-0.48
0.14
0.67
1.00
1.11
1.04
0.89
0.76
0.68
0.67
0.71
0.84
1.06
1.35
1.65
1.87
1.95
1.92
1.86
1.92
2.16
2.53
2.89
3.10
3.05
2.78
2.39
2.02
1.75
1.61
1.55
1.52
1.46
1.37
1.25
1.13
1.01
0.89
0.77
0.64
0.48
0.28
0.03
-0.29
-0.64
-0.98
-1.27
-1.47
-1.61
-1.76
-2.00
-2.36
-2.82
-3.26
-3.55
-3.62
-3.45
-3.11
-2.70
-2.29
-1.88
-1.46
-1.01
-0.55
-0.17
0.06
0.10
0.02
-0.08
-0.09
0.08
0.41
0.81
1.18
1.44
1.58
1.66
1.75
1.89
2.10
2.34
2.59
2.81
3.02
3.17
3.22
3.15
2.93
2.60
2.23
1.92
1.75
1.70
1.71
1.72
1.66
1.54
1.39
1.24
1.07
0.88
0.64
0.37
0.14
-0.00
-0.06
-0.08
-0.15
-0.35
-0.71
-1.19
-1.73
-2.30
-2.85
-3.37
-3.83
-4.18
-4.38
-4.38
-4.17
-3.76
-3.17
-2.46
-1.66
-0.89
-0.25
0.14
0.26
0.15
-0.05
-0.18
-0.13
0.09
0.44
0.78
1.05
1.18
1.22
1.20
1.15
1.09
1.04
1.03
1.10
1.34
1.74
2.23
2.65
2.83
2.69
2.28
1.79
1.46
1.41
1.65
2.02
2.32
2.38
2.16
1.73
1.27
0.90
0.69
0.63
0.63
0.59
0.45
0.18
-0.17
-0.54
-0.88
-1.16
-1.39
-1.59
-1.78
-1.99
-2.24
-2.54
-2.86
-3.15
-3.35
-3.41
-3.30
-3.07
-2.79
-2.53
-2.30
-2.06
-1.74
-1.30
-0.74
-0.16
0.33
0.64
0.71
0.59
0.37
0.19
0.13
0.19
0.32
0.42
0.45
0.45
0.50
0.68
1.01
1.40
1.77
2.02
2.12
2.08
1.99
1.89
1.81
1.77
1.75
1.77
1.84
1.94
2.02
2.00
1.81
1.43
0.90
0.29
-0.28
-0.76
-1.09
-1.28
-1.34
-1.29
-1.18
-1.08
-1.10
-1.32
-1.77
-2.41
-3.14
-3.78
-4.23
-4.41
-4.31
-3.94
-3.36
-2.61
-1.80
-1.04
-0.46
-0.12
-0.01
-0.05
-0.10
-0.07
0.09
0.37
0.69
0.98
1.17
1.28
1.31
1.32
1.33
1.35
1.40
1.48
1.59
1.74
1.93
2.15
2.38
2.54
2.59
2.53
2.37
2.13
1.87
1.60
1.30
0.96
0.57
0.18
-0.15
-0.38
-0.48
-0.49
-0.48
-0.51
-0.58
-0.67
-0.77
-0.86
-0.99
-1.21
-1.55
-2.00
-2.49
-2.95
-3.31
-3.53
-3.59
-3.50
-3.24
-2.83
-2.31
-1.75
-1.25
-0.88
-0.64
-0.49
-0.39
-0.29
-0.20
-0.13
-0.10
-0.07
0.01
0.20
0.50
0.88
1.26
1.57
1.79
1.92
1.97
1.95
1.86
1.73
1.58
1.48
1.46
1.55
1.70
1.82
1.84
1.70
1.42
1.07
0.77
0.56
0.49
0.52
0.58
0.62
0.56
0.37
0.06
-0.32
-0.73
-1.07
-1.30
-1.43
-1.48
-1.57
-1.78
-2.15
-2.64
-3.15
-3.57
-3.82
-3.91
-3.86
-3.73
-3.52
-3.20
-2.72
-2.12
-1.48
-0.91
-0.52
-0.32
-0.23
-0.16
0.02
0.33
0.76
1.21
1.58
1.80
1.89
1.92
1.96
2.07
2.24
2.41
2.49
2.45
2.30
2.12
1.98
1.92
1.92
1.94
1.94
1.91
1.87
1.82
1.77
1.67
1.46
1.11
0.62
0.09
-0.36
-0.63
-0.69
-0.61
-0.53
-0.56
-0.75
-1.06
-1.40
-1.69
-1.93
-2.20
-2.60
-3.14
-3.74
-4.23
-4.47
-4.38
-3.99
-3.45
-2.89
-2.39
-1.97
-1.56
-1.10
-0.61
-0.15
0.20
0.39
0.44
0.45
0.56
0.81
1.18
1.54
1.74
1.74
1.57
1.43
1.47
1.80
2.36
2.94
3.33
3.35
3.00
2.44
1.89
1.53
1.44
1.56
1.72
1.79
1.68
1.45
1.18
0.98
0.86
0.77
0.60
0.31
-0.08
-0.46
-0.74
-0.92
-1.07
-1.33
-1.78
-2.39
-3.03
-3.57
-3.91
-4.05
-4.03
-3.91
-3.67
-3.30
-2.84
-2.33
-1.86
-1.47
-1.11
-0.68
-0.12
0.56
1.26
1.82
2.14
2.21
2.11
1.99
1.94
1.97
2.03
2.05
1.97
1.81
1.65
1.56
1.61
1.79
2.03
2.24
2.36
2.35
2.26
2.17
2.10
2.03
1.92
1.68
1.32
0.88
0.47
0.18
0.06
0.07
0.16
0.24
0.25
0.15
-0.06
-0.41
-0.90
-1.51
-2.18
-2.83
-3.36
-3.71
-3.87
-3.84
-3.67
-3.41
-3.12
-2.89
-2.75
-2.71
-2.70
-2.61
-2.36
-1.91
-1.30
-0.64
-0.03
0.46
0.78
0.95
0.99
0.96
0.95
1.05
1.34
1.82
2.38
2.84
3.05
2.92
2.56
2.16
1.91
1.94
2.20
2.58
2.89
3.03
2.98
2.77
2.49
2.18
1.87
1.57
1.30
1.10
1.00
1.02
1.12
1.22
1.22
1.06
0.71
0.18
-0.45
-1.10
-1.67
-2.10
-2.38
-2.54
-2.67
-2.83
-3.07
-3.37
-3.68
-3.94
-4.05
-3.95
-3.62
-3.09
-2.49
-1.92
-1.49
-1.21
-1.04
-0.88
-0.65
-0.33
0.05
0.44
0.81
1.14
1.43
1.71
1.94
2.14
2.33
2.54
2.79
3.03
3.20
3.23
3.09
2.84
2.58
2.39
2.31
2.29
2.24
2.07
1.78
1.46
1.23
1.16
1.29
1.49
1.60
1.49
1.13
0.62
0.13
-0.20
-0.31
-0.29
-0.26
-0.35
-0.61
-1.02
-1.50
-2.01
-2.52
-3.03
-3.54
-4.03
-4.44
-4.68
-4.67
-4.39
-3.85
-3.16
-2.40
-1.68
-1.05
-0.49
0.00
0.45
0.86
1.24
1.60
1.94
2.24
2.47
2.59
2.59
2.50
2.39
2.34
2.37
2.45
2.50
2.48
2.41
2.34
2.33
2.39
2.45
2.47
2.39
2.23
2.04
1.89
1.80
1.78
1.78
1.76
1.65
1.46
1.21
0.92
0.65
0.43
0.27
0.16
0.07
-0.08
-0.31
-0.67
-1.15
-1.70
-2.25
-2.75
-3.19
-3.58
-3.95
-4.33
-4.68
-4.95
-5.06
-4.95
-4.61
-4.08
-3.40
-2.66
-1.90
-1.22
-0.66
-0.27
-0.04
0.09
0.23
0.47
0.83
1.30
1.76
2.13
2.35
2.39
2.32
2.19
2.09
2.06
2.13
2.32
2.60
2.94
3.27
3.53
3.68
3.68
3.54
3.25
2.84
2.34
1.81
1.32
0.91
0.62
0.46
0.44
0.55
0.79
1.05
1.22
1.17
0.82
0.19
-0.59
-1.36
-1.99
-2.45
-2.82
-3.17
-3.56
-3.94
-4.21
-4.28
-4.12
-3.79
-3.39
-3.02
-2.70
-2.38
-1.97
-1.42
-0.71
0.05
0.71
1.14
1.26
1.10
0.81
0.61
0.66
1.00
1.53
2.07
2.41
2.48
2.33
2.08
1.86
1.74
1.70
1.68
1.64
1.61
1.62
1.70
1.81
1.83
1.67
1.30
0.74
0.13
-0.43
-0.85
-1.09
-1.20
-1.25
-1.31
-1.44
-1.64
-1.89
-2.12
-2.31
-2.49
-2.72
-3.03
-3.42
-3.80
-4.03
-4.00
-3.66
-3.08
-2.39
-1.71
-1.14
-0.68
-0.28
0.10
0.46
0.73
0.86
0.85
0.77
0.70
0.75
0.88
1.03
1.09
1.04
0.94
0.92
1.06
1.36
1.72
1.99
2.09
1.98
1.73
1.43
1.18
1.02
0.93
0.88
0.76
0.50
0.05
-0.55
-1.20
-1.76
-2.15
-2.36
-2.42
-2.43
-2.44
-2.49
-2.59
-2.74
-2.94
-3.15
-3.30
-3.33
-3.17
-2.81
-2.33
-1.82
-1.35
-0.96
-0.61
-0.30
-0.01
0.22
0.39
0.52
0.64
0.82
1.05
1.32
1.54
1.69
1.76
1.76
1.70
1.58
1.42
1.24
1.14
1.18
1.36
1.58
1.68
1.54
1.11
0.49
-0.16
-0.68
-1.01
-1.15
-1.18
-1.19
-1.25
-1.42
-1.71
-2.12
-2.60
-3.07
-3.48
-3.76
-3.89
-3.84
-3.60
-3.17
-2.58
-1.92
-1.29
-0.78
-0.44
-0.28
-0.19
-0.09
0.11
0.38
0.68
0.92
1.05
1.08
1.07
1.12
1.28
1.53
1.79
1.98
2.03
1.96
1.84
1.72
1.64
1.60
1.55
1.44
1.25
0.98
0.69
0.42
0.21
0.07
-0.04
-0.18
-0.40
-0.72
-1.10
-1.49
-1.83
-2.14
-2.44
-2.78
-3.14
-3.50
-3.77
-3.91
-3.87
-3.68
-3.37
-2.95
-2.45
-1.89
-1.33
-0.84
-0.44
-0.15
0.10
0.38
0.72
1.13
1.57
1.93
2.17
2.25
2.19
2.08
1.98
1.98
2.13
2.42
2.79
3.14
3.36
3.36
3.11
2.68
2.18
1.75
1.50
1.44
1.51
1.60
1.62
1.51
1.31
1.06
0.84
0.63
0.42
0.18
-0.07
-0.29
-0.43
-0.52
-0.62
-0.86
-1.31
-1.96
-2.71
-3.42
-3.99
-4.35
-4.51
-4.53
-4.42
-4.19
-3.85
-3.43
-2.99
-2.54
-2.10
-1.61
-1.03
-0.35
0.37
1.01
1.43
1.55
1.40
1.11
0.85
0.81
1.07
1.60
2.29
2.95
3.41
3.58
3.44
3.11
2.74
2.47
2.38
2.50
2.73
2.99
3.17
3.24
3.18
2.99
2.72
2.41
2.15
2.00
1.98
2.07
2.17
2.16
1.94
1.51
0.95
0.40
-0.01
-0.22
-0.28
-0.29
-0.34
-0.53
-0.89
-1.39
-1.97
-2.53
-3.00
-3.31
-3.47
-3.51
-3.52
-3.56
-3.65
-3.74
-3.76
-3.62
-3.29
-2.82
-2.30
-1.83
-1.45
-1.13
-0.79
-0.35
0.21
0.85
1.48
1.99
2.35
2.55
2.63
2.66
2.68
2.72
2.78
2.86
2.91
2.92
2.86
2.75
2.65
2.62
2.68
2.80
2.91
2.90
2.74
2.46
2.11
1.80
1.57
1.44
1.38
1.42
1.54
1.72
1.90
1.99
1.91
1.64
1.20
0.67
0.15
-0.29
-0.60
-0.77
-0.86
-0.93
-1.10
-1.45
-2.01
-2.72
-3.45
-4.03
-4.34
-4.34
-4.08
-3.68
-3.24
-2.82
-2.42
-2.00
-1.49
-0.88
-0.19
0.48
1.04
1.40
1.55
1.55
1.48
1.41
1.37
1.34
1.27
1.20
1.17
1.25
1.46
1.76
2.05
2.27
2.39
2.41
2.36
2.28
2.15
2.00
1.85
1.76
1.75
1.78
1.80
1.72
1.54
1.32
1.14
1.10
1.19
1.35
1.48
1.45
1.20
0.73
0.09
-0.60
-1.20
-1.60
-1.70
-1.55
-1.29
-1.10
-1.18
-1.58
-2.24
-2.97
-3.57
-3.87
-3.81
-3.44
-2.85
-2.15
-1.45
-0.79
-0.24
0.20
0.52
0.70
0.77
0.75
0.67
0.59
0.58
0.68
0.90
1.18
1.47
1.71
1.87
1.96
1.98
1.94
1.87
1.78
1.73
1.78
1.92
2.09
2.18
2.09
1.79
1.37
1.01
0.85
0.94
1.21
1.49
1.65
1.58
1.27
0.78
0.19
-0.41
-0.92
-1.30
-1.53
-1.64
-1.71
-1.82
-2.05
-2.42
-2.92
-3.47
-3.98
-4.31
-4.34
-3.99
-3.25
-2.26
-1.21
-0.33
0.26
0.53
0.55
0.45
0.30
0.16
0.05
0.04
0.16
0.41
0.75
1.08
1.29
1.30
1.14
0.90
0.71
0.69
0.85
1.12
1.39
1.52
1.42
1.12
0.71
0.34
0.13
0.09
0.16
0.17
0.03
-0.28
-0.66
-0.97
-1.11
-1.07
-0.96
-0.89
-0.99
-1.29
-1.72
-2.17
-2.52
-2.70
-2.66
-2.41
-2.00
-1.49
-0.97
-0.54
-0.24
-0.11
-0.11
-0.16
-0.17
-0.08
0.15
0.47
0.81
1.11
1.34
1.49
1.58
1.64
1.68
1.69
1.66
1.60
1.54
1.48
1.47
1.49
1.52
1.50
1.40
1.19
0.91
0.60
0.32
0.10
-0.04
-0.14
-0.23
-0.37
-0.57
-0.83
-1.13
-1.43
-1.70
-1.91
-2.05
-2.15
-2.20
-2.23
-2.23
-2.19
-2.08
-1.89
-1.62
-1.26
-0.85
-0.44
-0.07
0.22
0.39
0.44
0.42
0.37
0.33
0.34
0.42
0.57
0.77
0.95
1.05
1.00
0.78
0.44
0.11
-0.08
-0.07
0.14
0.45
0.75
0.95
1.02
1.01
0.96
0.87
0.69
0.37
-0.10
-0.69
-1.27
-1.73
-2.03
-2.15
-2.15
-2.11
-2.10
-2.17
-2.31
-2.48
-2.59
-2.53
-2.23
-1.66
-0.90
-0.12
0.51
0.84
0.88
0.71
0.52
0.44
0.50
0.65
0.79
0.88
0.95
1.09
1.35
1.71
2.07
2.31
2.35
2.22
2.01
1.83
1.70
1.58
1.42
1.18
0.89
0.62
0.40
0.24
0.09
-0.10
-0.31
-0.52
-0.67
-0.75
-0.85
-1.07
-1.51
-2.13
-2.83
-3.39
-3.64
-3.50
-3.04
-2.41
-1.83
-1.42
-1.20
-1.09
-0.98
-0.77
-0.47
-0.10
0.26
0.57
0.85
1.11
1.36
1.57
1.69
1.70
1.61
1.46
1.34
1.28
1.30
1.36
1.42
1.41
1.33
1.19
1.05
0.95
0.95
1.04
1.17
1.25
1.20
0.97
0.61
0.21
-0.13
-0.38
-0.56
-0.76
-1.06
-1.49
-2.00
-2.51
-2.94
-3.24
-3.41
-3.48
-3.45
-3.31
-3.05
-2.67
-2.18
-1.63
-1.05
-0.50
-0.03
0.29
0.42
0.37
0.19
0.00
-0.09
-0.01
0.25
0.64
1.06
1.40
1.60
1.62
1.48
1.22
0.93
0.66
0.48
0.37
0.32
0.27
0.18
0.03
-0.18
-0.41
-0.63
-0.78
-0.86
-0.86
-0.84
-0.86
-0.98
-1.22
-1.53
-1.88
-2.22
-2.54
-2.84
-3.12
-3.35
-3.47
-3.42
-3.20
-2.84
-2.40
-1.93
-1.42
-0.91
-0.41
0.01
0.28
0.38
0.31
0.17
0.04
0.03
0.16
0.44
0.81
1.20
1.53
1.79
1.96
2.09
2.19
2.25
2.26
2.18
2.02
1.77
1.44
1.03
0.56
0.05
-0.40
-0.73
-0.87
-0.84
-0.76
-0.74
-0.90
-1.24
-1.70
-2.19
-2.62
-2.98
-3.26
-3.50
-3.67
-3.70
-3.53
-3.10
-2.46
-1.72
-1.06
-0.60
-0.38
-0.31
-0.24
-0.06
0.26
0.63
0.94
1.09
1.09
1.03
0.99
1.07
1.26
1.51
1.76
1.95
2.05
2.07
2.03
1.98
1.93
1.85
1.73
1.53
1.28
1.05
0.89
0.86
0.90
0.90
0.77
0.46
0.03
-0.38
-0.67
-0.82
-0.89
-1.05
-1.40
-1.92
-2.52
-3.03
-3.34
-3.40
-3.25
-2.95
-2.57
-2.15
-1.72
-1.32
-1.00
-0.81
-0.72
-0.65
-0.49
-0.15
0.37
0.97
1.51
1.82
1.84
1.60
1.19
0.79
0.54
0.53
0.80
1.27
1.82
2.29
2.52
2.42
2.01
1.43
0.86
0.50
0.40
0.53
0.78
1.02
1.18
1.23
1.20
1.10
0.94
0.74
0.55
0.42
0.42
0.57
0.80
1.05
1.23
1.29
1.23
1.09
0.89
0.66
0.40
0.14
-0.13
-0.39
-0.68
-1.02
-1.49
-2.09
-2.80
-3.54
-4.15
-4.49
-4.41
-3.91
-3.05
-2.05
-1.14
-0.54
-0.31
-0.40
-0.60
-0.72
-0.61
-0.23
0.32
0.90
1.37
1.66
1.77
1.73
1.66
1.61
1.63
1.74
1.90
2.08
2.25
2.37
2.42
2.38
2.26
2.08
1.87
1.68
1.53
1.42
1.33
1.22
1.07
0.88
0.70
0.52
0.35
0.16
-0.07
-0.34
-0.61
-0.81
-0.87
-0.82
-0.77
-0.83
-1.09
-1.56
-2.13
-2.69
-3.14
-3.45
-3.66
-3.79
-3.84
-3.76
-3.44
-2.86
-2.07
-1.20
-0.45
0.06
0.29
0.32
0.29
0.31
0.45
0.68
0.90
1.05
1.14
1.26
1.48
1.83
2.24
2.55
2.66
2.56
2.38
2.27
2.31
2.47
2.60
2.54
2.25
1.85
1.52
1.44
1.63
1.99
2.32
2.44
2.28
1.87
1.33
0.77
0.28
-0.10
-0.36
-0.51
-0.59
-0.68
-0.83
-1.08
-1.46
-1.94
-2.47
-2.96
-3.36
-3.60
-3.67
-3.57
-3.36
-3.09
-2.82
-2.60
-2.42
-2.22
-1.96
-1.59
-1.11
-0.54
0.02
0.51
0.88
1.09
1.18
1.19
1.20
1.27
1.41
1.58
1.74
1.83
1.85
1.82
1.74
1.63
1.49
1.33
1.21
1.17
1.27
1.49
1.76
1.98
2.04
1.92
1.65
1.30
0.95
0.64
0.37
0.10
-0.15
-0.36
-0.50
-0.55
-0.53
-0.49
-0.52
-0.65
-0.90
-1.22
-1.58
-1.94
-2.25
-2.49
-2.62
-2.63
-2.51
-2.28
-1.97
-1.61
-1.22
-0.82
-0.40
0.03
0.42
0.75
0.97
1.07
1.05
0.91
0.71
0.49
0.34
0.32
0.49
0.80
1.17
1.47
1.61
1.59
1.47
1.38
1.44
1.65
1.94
2.13
2.05
1.65
1.01
0.33
-0.16
-0.31
-0.14
0.18
0.47
0.61
0.57
0.40
0.16
-0.15
-0.56
-1.07
-1.63
-2.14
-2.51
-2.70
-2.75
-2.74
-2.70
-2.59
-2.35
-1.96
-1.46
-0.97
-0.57
-0.33
-0.21
-0.13
-0.03
0.12
0.28
0.38
0.38
0.29
0.17
0.12
0.20
0.47
0.90
1.41
1.91
2.31
2.53
2.54
2.34
2.00
1.60
1.25
1.03
0.98
1.04
1.14
1.15
1.03
0.78
0.46
0.10
-0.27
-0.66
-1.09
-1.51
-1.87
-2.13
-2.28
-2.39
-2.56
-2.83
-3.14
-3.37
-3.38
-3.12
-2.62
-2.00
-1.37
-0.80
-0.29
0.18
0.58
0.89
1.04
1.04
0.94
0.82
0.78
0.85
1.01
1.20
1.35
1.46
1.54
1.62
1.72
1.87
2.09
2.36
2.68
2.97
3.16
3.15
2.90
2.44
1.86
1.30
0.84
0.52
0.32
0.15
-0.02
-0.20
-0.41
-0.68
-1.04
-1.55
-2.20
-2.90
-3.53
-3.94
-4.03
-3.78
-3.27
-2.61
-1.93
-1.36
-0.94
-0.68
-0.54
-0.43
-0.28
-0.04
0.26
0.56
0.79
0.92
0.94
0.90
0.86
0.84
0.86
0.93
1.06
1.22
1.41
1.57
1.64
1.61
1.50
1.37
1.29
1.29
1.29
1.22
0.98
0.57
0.06
-0.41
-0.75
-0.94
-1.03
-1.10
-1.23
-1.46
-1.76
-2.14
-2.59
-3.12
-3.74
-4.38
-4.93
-5.27
-5.29
-5.00
-4.49
-3.91
-3.39
-2.97
-2.61
-2.21
-1.69
-1.08
-0.47
0.01
0.28
0.37
0.40
0.53
0.85
1.34
1.92
2.41
2.72
2.87
2.88
2.86
2.81
2.73
2.59
2.40
2.25
2.24
2.42
2.72
2.99
3.04
2.81
2.34
1.81
1.39
1.15
1.06
0.99
0.82
0.52
0.16
-0.16
-0.37
-0.47
-0.58
-0.82
-1.26
-1.90
-2.61
-3.23
-3.59
-3.62
-3.33
-2.84
-2.30
-1.85
-1.53
-1.30
-1.09
-0.81
-0.43
0.01
0.46
0.87
1.20
1.45
1.63
1.77
1.87
1.95
2.02
2.08
2.10
2.04
1.86
1.60
1.33
1.18
1.21
1.44
1.77
2.08
2.22
2.13
1.77
1.24
0.66
0.16
-0.16
-0.25
-0.16
0.00
0.09
0.02
-0.24
-0.63
-1.08
-1.53
-1.92
-2.24
-2.45
-2.48
-2.27
-1.81
-1.14
-0.41
0.19
0.52
0.51
0.24
-0.13
-0.42
-0.49
-0.33
0.04
0.49
0.92
1.22
1.36
1.33
1.16
0.94
0.75
0.68
0.76
0.99
1.28
1.54
1.67
1.59
1.34
0.96
0.57
0.25
0.04
-0.06
-0.08
-0.09
-0.14
-0.27
-0.52
-0.88
-1.33
-1.77
-2.11
-2.26
-2.25
-2.16
-2.12
-2.18
-2.26
-2.17
-1.72
-0.80
0.49
1.91
3.13
3.88
4.02
3.53
2.54
1.23
-0.11
-1.22
-1.89
-2.04
-1.74
-1.17
-0.56
-0.01
0.45
0.92
1.47
2.13
2.80
3.34
3.63
3.61
3.32
2.86
2.38
2.00
1.80
1.81
1.99
2.24
2.41
2.34
1.91
1.04
-0.25
-1.80
-3.34
-4.58
-5.28
-5.34
-4.82
-3.92
-2.88
-1.92
-1.17
-0.67
-0.41
-0.33
-0.32
-0.31
-0.22
-0.03
0.22
0.44
0.56
0.52
0.35
0.10
-0.14
-0.32
-0.39
-0.36
-0.24
-0.08
0.10
0.22
0.23
0.09
-0.19
-0.53
-0.79
-0.88
-0.77
-0.52
-0.30
-0.33
-0.75
-1.57
-2.66
-3.73
-4.51
-4.78
-4.47
-3.68
-2.61
-1.54
-0.66
-0.09
0.20
0.31
0.39
0.56
0.86
1.25
1.63
1.86
1.87
1.65
1.27
0.88
0.61
0.53
0.62
0.82
1.02
1.18
1.30
1.39
1.46
1.47
1.35
1.07
0.64
0.20
-0.14
-0.35
-0.47
-0.65
-1.03
-1.65
-2.45
-3.28
-3.99
-4.49
-4.73
-4.73
-4.51
-4.11
-3.59
-3.06
-2.58
-2.21
-1.91
-1.61
-1.25
-0.85
-0.50
-0.29
-0.29
-0.47
-0.72
-0.94
-1.08
-1.15
-1.17
-1.15
-1.07
-0.93
-0.75
-0.59
-0.51
-0.50
-0.53
-0.52
-0.44
-0.31
-0.22
-0.26
-0.47
-0.86
-1.39
-1.99
-2.60
-3.16
-3.57
-3.75
-3.64
-3.27
-2.75
-2.19
-1.68
-1.23
-0.80
-0.33
0.21
0.78
1.35
1.85
2.26
2.60
2.90
3.16
3.40
3.58
3.65
3.61
3.47
3.28
3.11
3.03
3.04
3.12
3.20
3.22
3.10
2.87
2.56
2.22
1.92
1.64
1.39
1.10
0.77
0.39
0.00
-0.34
-0.61
-0.83
-1.03
-1.25
-1.52
-1.80
-2.09
-2.40
-2.77
-3.22
-3.74
-4.27
-4.68
-4.87
-4.75
-4.35
-3.75
-3.06
-2.38
-1.79
-1.35
-1.08
-1.00
-1.03
-1.09
-1.05
-0.82
-0.35
0.31
1.04
1.75
2.34
2.80
3.14
3.39
3.56
3.66
3.68
3.61
3.50
3.35
3.19
3.03
2.89
2.81
2.82
2.94
3.07
3.12
2.99
2.68
2.25
1.83
1.52
1.33
1.18
0.95
0.56
0.05
-0.50
-0.97
-1.30
-1.55
-1.79
-2.11
-2.52
-3.01
-3.53
-4.03
-4.51
-4.98
-5.41
-5.73
-5.84
-5.68
-5.31
-4.86
-4.53
-4.39
-4.43
-4.49
-4.40
-4.07
-3.50
-2.80
-2.15
-1.63
-1.28
-1.03
-0.76
-0.30
0.48
1.70
3.40
5.50
7.80
10.00
11.76
12.82
13.04
12.51
11.50
10.36
9.50
9.19
9.50
10.32
11.45
12.74
14.25
16.18
18.81
22.25
26.25
30.14
32.86
33.27
30.51
24.40
15.70
6.03
-2.52
-8.10
-9.76
-7.80
-3.66
0.67
3.49
3.91
2.05
-1.26
-5.10
-8.79
-12.11
-15.06
-17.59
-19.50
-20.45
-20.23
-18.93
-17.00
-15.06
-13.63
-12.90
-12.69
-12.59
-12.20
-11.29
-9.92
-8.39
-7.05
-6.13
-5.72
-5.70
-5.82
-5.83
-5.54
-4.87
-3.90
-2.78
-1.71
-0.89
-0.36
-0.08
0.13
0.44
0.94
1.63
2.36
2.99
3.43
3.64
3.67
3.57
3.39
3.16
2.86
2.51
2.15
1.82
1.56
1.37
1.23
1.06
0.82
0.44
-0.05
-0.62
-1.20
-1.71
-2.07
-2.26
-2.31
-2.28
-2.20
-2.11
-1.97
-1.76
-1.47
-1.13
-0.80
-0.53
-0.37
-0.26
-0.18
-0.08
0.04
0.15
0.22
0.24
0.24
0.26
0.32
0.38
0.40
0.38
0.31
0.26
0.23
0.22
0.16
0.01
-0.19
-0.36
-0.39
-0.19
0.19
0.61
0.90
0.94
0.70
0.26
-0.22
-0.61
-0.83
-0.83
-0.68
-0.42
-0.14
0.08
0.18
0.12
-0.12
-0.51
-1.01
-1.55
-2.01
-2.31
-2.39
-2.24
-1.93
-1.59
-1.30
-1.07
-0.85
-0.56
-0.16
0.28
0.66
0.89
0.99
1.04
1.18
1.45
1.79
2.08
2.22
2.22
2.17
2.16
2.23
2.30
2.25
2.03
1.67
1.31
1.09
1.07
1.19
1.32
1.35
1.23
0.96
0.63
0.29
0.01
-0.21
-0.35
-0.45
-0.53
-0.63
-0.75
-0.89
-1.04
-1.18
-1.31
-1.47
-1.71
-2.07
-2.54
-3.09
-3.63
-4.06
-4.33
-4.37
-4.20
-3.88
-3.52
-3.25
-3.18
-3.35
-3.69
-4.05
-4.25
-4.18
-3.83
-3.26
-2.62
-2.06
-1.66
-1.48
-1.48
-1.60
-1.78
-1.96
-2.13
-2.28
-2.44
-2.62
-2.78
-2.86
-2.74
-2.37
-1.75
-0.97
-0.17
0.49
0.94
1.18
1.28
1.34
1.40
1.42
1.33
1.12
0.86
0.72
0.85
1.27
1.87
2.38
2.62
2.52
2.19
1.86
1.69
1.72
1.83
1.87
1.74
1.44
1.04
0.65
0.32
0.09
-0.05
-0.11
-0.13
-0.15
-0.23
-0.44
-0.78
-1.20
-1.62
-1.94
-2.13
-2.22
-2.29
-2.42
-2.66
-3.02
-3.48
-4.03
-4.65
-5.33
-6.07
-6.84
-7.62
-8.36
-9.06
-9.72
-10.42
-11.22
-12.23
-13.51
-15.02
-16.56
-17.83
-18.48
-18.28
-17.16
-15.27
-12.85
-10.14
-7.28
-4.39
-1.59
0.91
2.84
3.98
4.22
3.66
2.55
1.20
-0.09
-1.11
-1.72
-1.77
-1.15
0.29
2.59
5.66
9.21
12.77
15.77
17.73
18.34
17.56
15.62
12.93
9.99
7.27
5.16
3.86
3.39
3.51
3.84
3.92
3.37
2.09
0.25
-1.69
-3.16
-3.61
-2.76
-0.62
2.50
6.08
9.58
12.70
15.45
18.12
21.13
24.76
28.96
33.33
37.21
40.00
41.36
41.28
40.08
38.17
35.94
33.64
31.42
29.33
27.39
25.59
23.94
22.39
20.87
19.30
17.53
15.37
12.66
9.27
5.20
0.55
-4.48
-9.59
-14.46
-18.71
-21.91
-23.63
-23.60
-21.81
-18.61
-14.66
-10.76
-7.65
-5.85
-5.62
-7.05
-10.12
-14.59
-20.03
-25.66
-30.55
-33.82
-34.94
-33.92
-31.22
-27.50
-23.33
-19.08
-14.91
-10.93
-7.37
-4.62
-3.09
-3.04
-4.45
-6.94
-9.93
-12.79
-15.03
-16.41
-17.02
-17.16
-17.26
-17.65
-18.49
-19.73
-21.15
-22.49
-23.50
-23.97
-23.74
-22.71
-20.87
-18.21
-14.77
-10.59
-5.65
0.04
6.43
13.40
20.70
27.97
34.72
40.25
43.66
44.01
40.58
33.26
22.77
10.61
-1.32
-11.32
-18.38
-22.38
-23.88
-23.73
-22.63
-20.96
-18.77
-15.97
-12.48
-8.36
-3.79
0.94
5.50
9.55
12.85
15.29
16.83
17.52
17.43
16.59
15.07
13.02
10.67
8.34
6.27
4.58
3.16
1.74
0.00
-2.29
-5.14
-8.37
-11.61
-14.42
-16.43
-17.38
-17.18
-15.97
-14.01
-11.68
-9.36
-7.31
-5.70
-4.52
-3.67
-2.95
-2.16
-1.04
0.65
3.10
6.35
10.30
14.65
18.99
22.89
25.95
27.84
28.30
27.13
24.37
20.51
16.53
13.82
13.65
16.58
21.97
28.04
32.39
32.98
28.89
20.72
10.19
-0.47
-9.30
-14.99
-16.98
-15.33
-10.63
-3.93
3.32
9.50
13.26
13.91
11.75
7.91
3.93
1.20
0.49
1.86
4.71
8.20
11.47
13.90
15.20
15.33
14.46
12.83
10.67
8.20
5.58
2.91
0.20
-2.61
-5.63
-8.94
-12.49
-16.06
-19.31
-21.89
-23.57
-24.36
-24.47
-24.25
-24.06
-24.11
-24.50
-25.20
-26.11
-27.13
-28.12
-28.87
-29.04
-28.19
-25.87
-21.79
-16.01
-8.97
-1.49
5.49
11.22
15.40
18.25
20.34
22.32
24.65
27.47
30.55
33.51
35.97
37.72
38.71
39.07
38.97
38.65
38.30
37.99
37.65
37.10
36.33
35.38
34.42
33.73
33.60
34.24
35.65
37.55
39.51
41.18
42.10
41.74
39.62
35.59
29.97
23.44
16.80
10.91
6.66
4.45
4.08
4.92
6.28
7.59
8.43
8.35
7.17
5.24
2.96
0.60
-1.62
-3.47
-4.68
-5.21
-5.32
-7.81
-13.54
-21.12
-27.81
-31.35
-31.32
-28.90
-25.29
-22.63
-21.97
-22.99
-24.70
-26.18
-26.80
-26.91
-27.12
-28.46
-32.10
-38.17
-45.96
-54.31
-62.07
-68.03
-71.29
-71.17
-67.63
-61.68
-54.81
-49.76
-48.73
-54.31
-66.84
-82.78
-95.31
-97.37
-87.75
-66.21
-35.39
-0.23
33.56
61.73
80.67
88.66
86.33
76.16
62.02
47.29
34.26
23.85
16.05
10.17
5.40
0.93
-3.82
-8.58
-12.96
-16.34
-18.06
-17.53
-14.48
-9.05
-1.92
5.73
12.72
17.95
20.92
21.99
22.22
22.71
23.99
25.58
26.23
24.71
20.43
13.87
6.51
0.17
-3.66
-4.22
-1.53
3.81
10.95
18.90
26.67
33.31
38.12
40.72
41.16
39.82
37.31
34.31
31.48
29.36
28.15
27.53
26.58
24.08
18.99
11.06
1.13
-9.07
-17.58
-22.98
-24.90
-24.12
-22.02
-19.96
-18.77
-18.58
-18.98
-19.40
-19.39
-18.73
-17.47
-15.85
-14.22
-12.94
-12.37
-12.71
-13.93
-15.73
-17.61
-19.03
-19.57
-19.05
-17.58
-15.47
-13.12
-10.97
-9.36
-8.53
-8.55
-9.35
-10.68
-12.24
-13.76
-15.07
-16.08
-16.77
-17.12
-17.07
-16.58
-15.64
-14.38
-12.95
-11.54
-10.21
-8.95
-7.70
-6.44
-5.21
-4.12
-3.23
-2.55
-1.99
-1.39
-0.67
0.18
1.04
1.74
2.14
2.17
1.84
1.25
0.51
-0.29
-1.06
-1.72
-2.24
-2.62
-2.90
-3.13
-3.35
-3.56
-3.72
-3.76
-3.66
-3.43
-3.14
-2.87
-2.70
-2.65
-2.70
-2.77
-2.77
-2.61
-2.24
-1.62
-0.79
0.18
1.19
2.18
3.12
4.08
5.12
6.28
7.54
8.81
9.99
11.00
11.79
12.37
12.72
12.80
12.51
11.78
10.61
9.07
7.33
5.54
3.82
2.22
0.72
-0.68
-1.98
-3.13
-4.11
-4.90
-5.54
-6.07
-6.52
-6.87
-7.08
-7.10
-6.92
-6.60
-6.24
-5.95
-5.79
-5.76
-5.79
-5.80
-5.75
-5.66
-5.58
-5.55
-5.55
-5.47
-5.21
-4.67
-3.87
-2.92
-2.00
-1.23
-0.67
-0.24
0.15
0.61
1.18
1.80
2.40
2.93
3.39
3.82
4.22
4.58
4.86
5.00
4.97
4.78
4.47
4.10
3.72
3.40
3.14
2.94
2.78
2.59
2.35
2.03
1.65
1.26
0.86
0.47
0.08
-0.30
-0.68
-1.04
-1.34
-1.57
-1.69
-1.68
-1.50
-1.15
-0.64
-0.01
0.67
1.34
1.94
2.42
2.73
2.82
2.72
2.48
2.22
2.05
2.02
2.15
2.38
2.65
2.90
3.10
3.19
3.15
2.96
2.66
2.30
1.94
1.61
1.30
1.01
0.77
0.62
0.60
0.71
0.89
1.02
1.04
0.95
0.80
0.67
0.64
0.68
0.75
0.81
0.83
0.87
0.97
1.15
1.36
1.53
1.59
1.53
1.43
1.40
1.49
1.69
1.90
2.01
1.97
1.84
1.73
1.71
1.78
1.83
1.71
1.32
0.71
-0.02
-0.73
-1.32
-1.78
-2.12
-2.38
-2.53
-2.59
-2.53
-2.39
-2.18
-1.92
-1.60
-1.23
-0.84
-0.49
-0.19
0.06
0.32
0.66
1.08
1.51
1.85
2.00
1.96
1.81
1.71
1.76
1.97
2.26
2.52
2.66
2.66
2.55
2.36
2.15
1.88
1.57
1.22
0.84
0.48
0.17
-0.06
-0.21
-0.28
-0.29
-0.26
-0.21
-0.19
-0.23
-0.34
-0.50
-0.65
-0.71
-0.60
-0.31
0.10
0.54
0.86
0.96
0.82
0.48
0.07
-0.30
-0.55
-0.65
-0.58
-0.36
-0.03
0.37
0.75
0.99
1.00
0.74
0.26
-0.32
-0.89
-1.33
-1.62
-1.77
-1.83
-1.89
-2.01
-2.26
-2.64
-3.13
-3.66
-4.15
-4.52
-4.71
-4.69
-4.42
-3.92
-3.21
-2.39
-1.59
-0.96
-0.58
-0.48
-0.58
-0.74
-0.84
-0.74
-0.36
0.34
1.34
2.49
3.63
4.56
5.17
5.49
5.62
5.71
5.85
6.00
6.08
6.02
5.84
5.65
5.60
5.75
6.05
6.34
6.44
6.22
5.68
4.92
4.09
3.30
2.64
2.07
1.55
1.04
0.55
0.14
-0.10
-0.09
0.15
0.56
1.01
1.41
1.71
1.95
2.15
2.36
2.55
2.69
2.72
2.64
2.49
2.34
2.26
2.26
2.37
2.60
3.00
3.58
4.31
5.06
5.60
5.71
5.24
4.24
2.92
1.59
0.52
-0.13
-0.37
-0.33
-0.19
-0.09
-0.09
-0.16
-0.21
-0.14
0.15
0.69
1.48
2.48
3.63
4.83
5.93
6.77
7.13
6.83
5.75
3.89
1.37
-1.57
-4.66
-7.68
-10.42
-12.79
-14.75
-16.32
-17.51
-18.28
-18.56
-18.23
-17.17
-15.30
-12.64
-9.34
-5.64
-1.88
1.55
4.28
6.08
6.92
7.01
6.72
6.49
6.67
7.42
8.72
10.37
12.14
13.84
15.39
16.84
18.27
19.78
21.42
23.14
24.83
26.37
27.70
28.86
29.98
31.19
32.52
33.85
34.96
35.62
35.62
34.90
33.49
31.41
28.66
25.19
20.91
15.76
9.74
2.97
-4.34
-11.90
-19.28
-25.98
-31.46
-35.32
-37.42
-38.01
-37.70
-37.23
-37.20
-37.86
-39.03
-40.30
-41.27
-41.75
-41.77
-41.42
-40.67
-39.38
-37.39
-34.75
-31.81
-29.11
-27.10
-25.89
-25.15
-24.30
-22.78
-20.32
-16.98
-13.13
-9.21
-5.60
-2.53
-0.11
1.69
2.96
3.81
4.42
4.90
5.40
6.02
6.88
8.07
9.63
11.52
13.66
15.93
18.25
20.63
23.07
25.59
28.03
30.09
31.33
31.31
29.72
26.55
22.16
17.19
12.39
8.47
5.82
4.46
4.07
4.08
3.93
3.15
1.52
-0.92
-3.95
-7.20
-10.27
-12.86
-14.80
-16.15
-17.14
-18.09
-19.34
-21.12
-23.51
-26.46
-29.80
-33.30
-36.62
-39.33
-40.99
-41.24
-39.99
-37.48
-34.24
-30.92
-28.02
-25.74
-24.00
-22.56
-21.25
-20.09
-19.25
-18.91
-19.14
-19.82
-20.70
-21.58
-22.36
-23.05
-23.67
-24.17
-24.34
-23.83
-22.31
-19.56
-15.55
-10.51
-4.85
0.95
6.42
11.24
15.23
18.37
20.67
22.20
23.01
23.14
22.67
21.72
20.44
19.05
17.82
17.04
16.98
17.80
19.44
21.65
24.06
26.28
28.07
29.32
30.09
30.52
30.75
30.86
30.93
30.98
31.01
30.92
30.59
29.80
28.40
26.30
23.51
20.21
16.65
13.13
9.96
7.37
5.47
4.28
3.70
3.59
3.81
4.23
4.77
5.41
6.09
6.79
7.45
8.02
8.50
8.87
9.13
9.26
9.22
9.00
8.65
8.22
7.82
7.49
7.19
6.83
6.30
5.56
4.63
3.62
2.63
1.70
0.77
-0.25
-1.45
-2.84
-4.37
-5.96
-7.55
-9.18
-10.95
-12.98
-15.37
-18.08
-21.03
-24.01
-26.82
-29.29
-31.31
-32.80
-33.72
-33.96
-33.43
-32.08
-30.00
-27.43
-24.74
-22.31
-20.36
-18.88
-17.68
-16.49
-15.16
-13.73
-12.41
-11.37
-10.66
-10.10
-9.37
-8.13
-6.23
-3.73
-0.86
2.07
4.77
7.09
8.97
10.45
11.57
12.40
12.96
13.28
13.38
13.28
12.99
12.50
11.80
10.91
9.88
8.80
7.73
6.72
5.74
4.71
3.58
2.32
0.95
-0.50
-1.98
-3.45
-4.78
-5.77
-6.13
-5.62
-4.13
-1.76
1.20
4.37
7.44
10.28
12.93
15.57
18.37
21.40
24.57
27.62
30.19
31.88
32.38
31.49
29.26
25.94
21.98
17.99
14.56
12.18
11.17
11.59
13.28
15.96
19.30
23.01
26.89
30.81
34.72
38.59
42.48
46.46
50.65
55.03
59.40
63.27
65.82
66.14
63.45
57.34
48.02
36.19
22.86
9.09
-4.20
-16.33
-26.69
-34.78
-40.19
-42.78
-42.89
-41.33
-39.22
-37.63
-37.20
-37.95
-39.40
-40.84
-41.62
-41.41
-40.16
-37.99
-35.07
-31.54
-27.49
-23.07
-18.49
-14.00
-9.81
-6.09
-2.85
-0.01
2.60
5.15
7.81
10.61
13.48
16.15
18.26
19.47
19.54
18.45
16.34
13.42
9.85
5.67
0.82
-4.73
-10.83
-17.12
-23.08
-28.19
-32.10
-34.75
-36.33
-37.18
-37.67
-38.07
-38.61
-39.44
-40.68
-42.38
-44.41
-46.39
-47.73
-47.83
-46.34
-43.40
-39.61
-35.85
-32.96
-31.39
-31.09
-31.62
-32.37
-32.84
-32.70
-31.84
-30.24
-27.89
-24.78
-20.96
-16.59
-11.94
-7.32
-2.95
1.06
4.68
7.91
10.71
13.00
14.73
15.92
16.73
17.31
17.79
18.21
18.50
18.57
18.36
17.89
17.18
16.33
15.42
14.53
13.72
13.03
12.44
11.87
11.24
10.49
9.70
8.99
8.45
8.05
7.66
7.06
6.08
4.73
3.22
1.83
0.88
0.58
1.02
2.14
3.79
5.77
7.83
9.75
11.32
12.45
13.10
13.35
13.34
13.22
13.14
13.18
13.37
13.66
13.91
13.97
13.71
13.04
11.96
10.52
8.80
6.81
4.57
2.08
-0.63
-3.45
-6.26
-8.90
-11.26
-13.29
-14.98
-16.37
-17.55
-18.57
-19.44
-20.09
-20.36
-20.07
-19.06
-17.28
-14.83
-11.94
-8.94
-6.13
-3.73
-1.85
-0.50
0.47
1.23
1.98
2.85
3.85
4.89
5.80
6.48
6.86
6.96
6.86
6.61
6.32
6.15
6.30
7.04
8.51
10.65
13.19
15.71
17.81
19.23
19.99
20.24
20.25
20.18
20.07
19.88
19.50
18.89
18.08
17.16
16.18
15.15
14.03
12.83
11.56
10.35
9.32
8.56
8.09
7.81
7.61
7.36
7.00
6.56
6.13
5.82
5.70
5.78
5.97
6.13
6.13
5.92
5.51
4.98
4.44
3.96
3.52
3.07
2.52
1.79
0.86
-0.24
-1.45
-2.66
-3.78
-4.73
-5.48
-6.04
-6.44
-6.78
-7.17
-7.75
-8.62
-9.81
-11.23
-12.66
-13.82
-14.46
-14.46
-13.78
-12.52
-10.80
-8.79
-6.65
-4.52
-2.48
-0.58
1.19
2.89
4.56
6.21
7.84
9.43
10.98
12.54
14.18
15.97
17.96
20.14
22.45
24.82
27.19
29.53
31.88
34.30
36.88
39.63
42.52
45.49
48.54
51.74
55.23
59.14
63.47
68.06
72.56
76.49
79.28
80.26
78.70
73.98
65.70
53.99
39.61
23.81
8.04
-6.47
-18.99
-29.31
-37.59
-44.10
-48.96
-52.20
-53.82
-54.02
-53.18
-51.81
-50.38
-49.22
-48.44
-47.96
-47.62
-47.23
-46.66
-45.82
-44.59
-42.88
-40.69
-38.20
-35.70
-33.61
-32.30
-32.06
-32.88
-34.43
-36.16
-37.60
-38.56
-39.09
-39.45
-39.85
-40.38
-40.92
-41.16
-40.36
-38.02
-34.15
-29.25
-24.05
-18.62
-12.88
-6.82
-0.98
4.03
7.75
10.06
11.37
12.34
13.63
15.62
18.39
21.63
24.85
27.47
28.94
29.07
27.98
25.96
23.53
21.22
19.28
17.64
15.92
13.63
10.66
7.25
3.81
1.11
-0.07
0.82
3.89
8.84
14.94
21.57
28.10
32.23
32.22
27.87
20.74
13.11
7.80
4.57
2.66
1.45
0.62
-0.05
-0.31
0.06
1.01
2.35
3.68
4.99
6.25
7.32
8.03
8.18
7.39
5.25
1.51
-3.83
-10.22
-16.85
-22.99
-27.98
-31.41
-33.25
-33.89
-33.87
-33.76
-33.79
-33.86
-33.70
-32.89
-31.06
-28.13
-24.34
-20.13
-16.03
-12.37
-9.30
-6.81
-4.75
-2.91
-1.10
0.80
2.78
4.72
6.44
7.76
8.58
8.92
8.89
8.63
8.26
7.81
7.23
6.47
5.52
4.40
3.17
1.89
0.63
-0.52
-1.44
-1.97
-2.03
-1.65
-1.05
-0.55
-0.47
-0.98
-2.02
-3.29
-4.36
-4.87
-4.61
-3.62
-2.09
-0.33
1.41
2.88
3.98
4.65
4.96
5.06
5.18
5.52
6.22
7.23
8.40
9.48
10.22
10.49
10.31
9.83
9.26
8.78
8.46
8.18
7.68
6.62
4.76
2.12
-1.04
-4.20
-6.81
-8.47
-9.09
-8.85
-8.14
-7.34
-6.75
-6.49
-6.55
-6.83
-7.21
-7.55
-7.78
-7.81
-7.59
