1653567418.00
64.000000
-0.00
-0.00
-0.00
-0.00
-0.00
-0.00
-0.00
-0.00
-0.00
-0.00
0.00
0.01
0.01
-0.00
-0.03
-0.05
-0.05
0.00
0.13
0.36
0.66
1.01
1.37
1.72
2.06
2.40
2.79
3.24
3.80
4.42
5.06
5.66
6.20
6.68
7.15
7.68
8.31
9.14
10.09
11.04
11.88
12.56
13.14
13.76
14.65
15.96
17.91
20.32
22.90
25.38
27.58
29.57
31.68
34.32
37.81
42.54
48.15
54.10
59.83
64.97
69.58
74.14
79.34
85.71
93.76
103.00
112.62
121.73
129.77
136.75
143.30
150.75
157.77
166.64
177.95
191.79
206.97
220.57
228.25
225.36
208.53
176.87
132.76
80.05
23.07
-34.94
-92.44
-149.16
-205.23
-260.37
-313.74
-363.87
-409.83
-450.91
-486.50
-515.74
-537.23
-549.22
-549.96
-538.37
-514.21
-478.67
-433.88
-382.45
-327.02
-269.84
-212.63
-156.66
-102.95
-52.37
-5.90
35.58
71.43
101.35
125.50
144.38
158.69
169.15
176.37
180.75
182.57
182.07
179.51
175.23
169.65
163.18
156.15
148.81
141.30
133.69
126.02
118.33
110.69
103.16
95.80
88.68
81.83
75.25
68.95
62.95
57.25
51.86
46.78
42.03
37.59
33.45
29.61
26.07
22.81
19.83
17.11
14.67
12.48
10.53
8.83
7.35
6.08
5.00
4.08
3.28
2.58
1.98
1.45
1.02
0.69
0.45
0.27
0.15
0.03
-0.10
-0.24
-0.37
-0.48
-0.54
-0.54
-0.50
-0.47
-0.49
-0.58
-0.75
-0.94
-1.10
-1.16
-1.11
-0.99
-0.92
-0.99
-1.28
-1.76
-2.33
-2.80
-3.04
-3.01
-2.80
-2.64
-2.77
-3.34
-4.30
-5.43
-6.40
-6.91
-6.88
-6.49
-6.14
-6.23
-7.01
-8.43
-10.11
-11.55
-12.35
-12.36
-11.81
-11.13
-10.77
-11.10
-12.32
-14.49
-17.43
-20.48
-22.44
-21.77
-17.15
-8.19
4.10
17.56
29.66
38.51
43.54
45.46
45.63
45.18
44.62
43.78
42.27
39.89
36.81
33.35
29.76
26.18
22.30
17.89
12.82
7.27
1.60
-3.62
-7.86
-10.76
-12.33
-12.90
-13.00
-13.07
-13.32
-13.60
-13.62
-13.09
-11.96
-10.45
-8.90
-7.64
-6.78
-6.22
-5.71
-4.94
-3.72
-2.07
-0.27
1.18
1.83
1.43
0.14
-1.58
-3.16
-4.22
-4.77
-5.16
-5.85
-7.13
-8.95
-10.85
-12.21
-12.46
-11.38
-9.10
-6.12
-3.09
-0.62
0.94
1.50
1.25
0.47
-0.56
-1.64
-2.60
-3.28
-3.51
-3.20
-2.36
-1.16
0.09
1.07
1.53
1.37
0.69
-0.29
-1.26
-1.90
-1.98
-1.46
-0.48
0.69
1.76
2.56
3.03
3.26
3.38
3.49
3.64
3.88
4.25
4.81
5.56
6.39
7.12
7.55
7.53
7.08
6.39
5.73
5.32
5.29
5.59
6.04
6.49
6.83
7.04
7.19
7.29
7.32
7.18
6.80
6.20
5.45
4.72
4.09
3.59
3.13
2.63
1.95
1.08
0.09
-0.88
-1.66
-2.13
-2.27
-2.24
-2.31
-2.78
-3.86
-5.55
-7.66
-9.92
-12.11
-14.18
-16.28
-18.59
-21.29
-24.39
-27.75
-31.14
-34.34
-37.26
-39.95
-42.65
-45.68
-49.37
-53.95
-59.45
-65.70
-72.37
-79.07
-85.54
-91.65
-97.56
-103.59
-110.23
-118.09
-127.79
-139.78
-154.04
-169.83
-185.62
-199.47
-209.65
-215.50
-217.83
-218.93
-221.80
-228.99
-241.64
-258.97
-278.42
-296.35
-308.97
-313.09
-306.74
-289.48
-262.32
-227.48
-187.84
-146.20
-104.82
-64.97
-26.93
9.86
46.32
83.10
119.89
154.86
184.74
205.61
214.22
209.63
193.86
171.54
148.32
128.85
115.41
107.55
103.01
99.11
93.91
86.51
76.77
64.78
50.69
34.89
18.43
3.14
-8.59
-14.66
-14.01
-7.17
4.01
17.06
29.88
41.52
52.23
63.08
75.14
88.85
103.79
118.90
132.95
145.07
155.07
163.40
170.87
178.36
186.62
196.15
207.23
219.90
233.83
248.12
261.22
271.12
275.80
273.86
264.99
250.17
231.28
210.61
190.16
171.26
154.52
139.96
127.19
115.64
104.61
93.46
81.77
69.57
57.43
46.32
37.27
30.87
26.87
24.14
21.03
16.10
8.72
-0.59
-10.41
-19.19
-25.91
-30.49
-33.60
-36.04
-38.31
-40.28
-41.48
-41.50
-40.39
-38.56
-36.52
-34.54
-32.44
-29.80
-26.19
-21.52
-16.12
-10.63
-5.76
-1.99
0.56
2.12
3.21
4.38
6.02
8.24
10.91
13.78
16.57
19.12
21.36
23.31
24.94
26.23
27.10
27.51
27.46
27.03
26.36
25.69
25.25
25.27
25.84
26.84
27.96
28.76
28.84
27.96
26.11
23.51
20.50
17.47
14.83
12.90
11.92
11.92
12.67
13.69
14.39
14.25
13.01
10.79
7.96
5.12
2.83
1.57
1.61
2.93
5.24
7.95
10.31
11.58
11.33
9.56
6.74
3.65
1.05
-0.54
-1.08
-0.91
-0.70
-1.19
-3.01
-6.43
-11.22
-16.70
-21.85
-25.65
-27.44
-27.15
-25.38
-23.13
-21.44
-20.96
-21.77
-23.40
-25.03
-25.86
-25.42
-23.71
-21.18
-18.54
-16.58
-15.88
-16.66
-18.73
-21.53
-24.32
-26.38
-27.21
-26.65
-24.92
-22.52
-20.08
-18.23
-17.33
-17.46
-18.37
-19.61
-20.69
-21.23
-21.07
-20.22
-18.87
-17.31
-15.83
-14.75
-14.25
-14.41
-15.06
-15.94
-16.75
-17.34
-17.75
-18.17
-18.83
-19.80
-20.99
-22.18
-23.14
-23.74
-23.97
-23.86
-23.47
-22.84
-21.98
-20.94
-19.84
-18.85
-18.17
-17.94
-18.12
-18.54
-18.92
-18.98
-18.58
-17.72
-16.57
-15.30
-14.09
-13.03
-12.19
-11.64
-11.45
-11.58
-11.91
-12.18
-12.10
-11.46
-10.21
-8.48
-6.52
-4.65
-3.13
-2.14
-1.71
-1.77
-2.14
-2.68
-3.23
-3.69
-3.97
-4.00
-3.75
-3.28
-2.77
-2.44
-2.51
-3.09
-4.08
-5.21
-6.11
-6.50
-6.28
-5.58
-4.70
-4.00
-3.70
-3.85
-4.30
-4.83
-5.25
-5.48
-5.57
-5.60
-5.63
-5.66
-5.69
-5.72
-5.86
-6.21
-6.85
-7.75
-8.79
-9.76
-10.50
-10.94
-11.13
-11.18
-11.19
-11.23
-11.31
-11.36
-11.30
-11.04
-10.51
-9.64
-8.41
-6.84
-5.04
-3.14
-1.30
0.35
1.70
2.70
3.31
3.53
3.40
3.02
2.52
2.05
1.70
1.43
1.15
0.77
0.24
-0.36
-0.90
-1.25
-1.35
-1.28
-1.14
-1.09
-1.23
-1.63
-2.28
-3.12
-4.05
-4.97
-5.80
-6.57
-7.34
-8.21
-9.16
-10.01
-10.41
-10.02
-8.66
-6.43
-3.74
-1.07
1.17
2.84
3.95
4.69
5.16
5.44
5.55
5.54
5.49
5.42
5.28
4.94
4.33
3.52
2.80
2.59
3.15
4.53
6.41
8.28
9.63
10.18
9.86
8.87
7.48
5.91
4.30
2.70
1.07
-0.61
-2.35
-4.07
-5.69
-7.11
-8.28
-9.27
-10.15
-11.00
-11.79
-12.37
-12.50
-12.03
-10.94
-9.45
-7.89
-6.61
-5.81
-5.45
-5.34
-5.21
-4.87
-4.33
-3.69
-3.08
-2.54
-1.95
-1.08
0.29
2.25
4.68
7.28
9.66
11.48
12.57
12.93
12.66
11.95
10.89
9.58
8.10
6.53
5.01
3.65
2.47
1.40
0.30
-0.95
-2.31
-3.62
-4.62
-5.14
-5.16
-4.81
-4.29
-3.77
-3.31
-2.87
-2.41
-1.91
-1.45
-1.13
-1.13
-1.54
-2.38
-3.61
-5.07
-6.53
-7.77
-8.67
-9.25
-9.66
-10.07
-10.65
-11.42
-12.27
-13.05
-13.59
-13.85
-13.83
-13.69
-13.56
-13.59
-13.83
-14.27
-14.80
-15.31
-15.68
-15.87
-15.89
-15.70
-15.27
-14.48
-13.22
-11.52
-9.56
-7.65
-6.08
-4.99
-4.30
-3.70
-2.81
-1.35
0.79
3.55
6.67
9.86
12.86
15.43
17.41
18.71
19.25
19.03
18.07
16.44
14.28
11.76
9.13
6.66
4.64
3.29
2.74
2.97
3.84
5.01
6.04
6.48
6.02
4.59
2.45
0.09
-1.93
-3.21
-3.64
-3.44
-3.06
-2.96
-3.43
-4.50
-5.96
-7.51
-8.91
-10.08
-11.16
-12.29
-13.50
-14.67
-15.51
-15.72
-15.17
-13.97
-12.49
-11.17
-10.42
-10.39
-10.95
-11.70
-12.15
-11.91
-10.88
-9.25
-7.40
-5.65
-4.13
-2.78
-1.46
-0.14
0.96
1.51
1.21
-0.00
-1.93
-4.20
-6.46
-8.45
-9.92
-10.75
-10.82
-10.11
-8.80
-7.23
-5.74
-4.54
-3.57
-2.60
-1.38
0.19
1.99
3.78
5.34
6.56
7.48
8.11
8.41
8.27
7.63
6.59
5.42
4.48
4.01
4.02
4.27
4.41
4.22
3.72
3.15
2.76
2.72
2.95
3.26
3.47
3.58
3.72
4.05
4.66
5.42
6.12
6.50
6.47
6.07
5.52
5.07
4.85
4.90
5.09
5.26
5.31
5.27
5.30
5.56
6.12
6.82
7.30
7.16
6.13
4.26
1.90
-0.47
-2.43
-3.81
-4.67
-5.16
-5.37
-5.26
-4.73
-3.75
-2.53
-1.49
-1.03
-1.38
-2.42
-3.73
-4.82
-5.37
-5.26
-4.67
-3.80
-2.83
-1.86
-0.92
-0.02
0.75
1.29
1.47
1.22
0.50
-0.60
-1.95
-3.35
-4.56
-5.39
-5.75
-5.67
-5.31
-4.86
-4.52
-4.33
-4.29
-4.31
-4.33
-4.32
-4.32
-4.42
-4.62
-4.90
-5.13
-5.14
-4.82
-4.16
-3.30
-2.46
-1.80
-1.36
-1.06
-0.73
-0.28
0.31
0.94
1.46
1.85
2.17
2.53
3.05
3.68
4.32
4.82
5.11
5.25
5.37
5.54
5.69
5.56
4.85
3.33
1.06
-1.60
-4.15
-6.09
-7.23
-7.65
-7.67
-7.62
-7.71
-7.89
-7.99
-7.83
-7.38
-6.73
-6.11
-5.76
-5.79
-6.15
-6.67
-7.13
-7.35
-7.28
-6.94
-6.46
-5.93
-5.38
-4.79
-4.14
-3.45
-2.80
-2.26
-1.91
-1.74
-1.73
-1.79
-1.88
-1.94
-1.91
-1.73
-1.36
-0.83
-0.17
0.50
1.10
1.57
1.92
2.19
2.40
2.56
2.65
2.66
2.64
2.66
2.75
2.89
3.02
3.07
3.03
2.91
2.76
2.53
2.14
1.46
0.50
-0.64
-1.71
-2.46
-2.73
-2.56
-2.10
-1.53
-1.02
-0.65
-0.42
-0.31
-0.27
-0.25
-0.16
0.07
0.45
0.96
1.50
1.87
1.96
1.64
0.95
-0.01
-0.99
-1.77
-2.19
-2.20
-1.86
-1.33
-0.71
-0.11
0.45
0.93
1.31
1.60
1.84
2.14
2.56
3.09
3.62
4.01
4.23
4.37
4.70
5.40
6.51
7.85
9.09
9.91
10.14
9.81
9.01
7.87
6.42
4.68
2.73
0.80
-0.81
-1.84
-2.15
-1.82
-1.12
-0.36
0.13
0.16
-0.33
-1.22
-2.30
-3.29
-3.89
-3.89
-3.29
-2.22
-1.03
-0.07
0.37
0.20
-0.51
-1.52
-2.56
-3.44
-4.06
-4.40
-4.49
-4.32
-3.86
-3.14
-2.27
-1.42
-0.80
-0.50
-0.45
-0.42
-0.16
0.50
1.51
2.66
3.63
4.22
4.40
4.31
4.19
4.22
4.45
4.79
5.10
5.26
5.31
5.34
5.51
5.90
6.50
7.22
7.99
8.79
9.60
10.38
11.02
11.31
11.10
10.38
9.35
8.34
7.66
7.44
7.57
7.69
7.43
6.46
4.67
2.10
-1.09
-4.61
-8.19
-11.44
-13.94
-15.36
-15.50
-14.50
-12.80
-11.06
-9.87
-9.58
-10.11
-11.07
-11.90
-12.15
-11.62
-10.41
-8.74
-6.87
-4.97
-3.19
-1.67
-0.58
-0.09
-0.26
-0.97
-1.93
-2.77
-3.23
-3.20
-2.75
-2.01
-1.07
0.01
1.27
2.66
3.97
4.85
4.92
3.95
2.01
-0.52
-3.07
-5.11
-6.27
-6.50
-5.95
-4.92
-3.69
-2.46
-1.31
-0.27
0.69
1.57
2.38
3.09
3.64
4.01
4.20
4.28
4.33
4.43
4.54
4.58
4.38
3.82
2.87
1.65
0.38
-0.65
-1.18
-1.12
-0.54
0.36
1.31
2.07
2.54
2.71
2.65
2.38
1.88
1.08
-0.00
-1.27
-2.53
-3.53
-4.11
-4.23
-4.01
-3.63
-3.27
-3.04
-2.97
-3.06
-3.30
-3.68
-4.17
-4.71
-5.20
-5.54
-5.65
-5.55
-5.33
-5.09
-4.93
-4.85
-4.81
-4.68
-4.35
-3.76
-2.96
-2.05
-1.21
-0.62
-0.41
-0.65
-1.27
-2.09
-2.81
-3.17
-2.98
-2.26
-1.19
-0.09
0.74
1.11
1.03
0.63
0.06
-0.51
-1.04
-1.51
-1.90
-2.18
-2.31
-2.27
-2.05
-1.69
-1.24
-0.73
-0.20
0.33
0.79
1.16
1.39
1.49
1.47
1.31
1.03
0.59
0.00
-0.69
-1.41
-2.07
-2.58
-2.88
-2.95
-2.78
-2.40
-1.82
-1.13
-0.44
0.17
0.67
1.06
1.37
1.63
1.78
1.77
1.54
1.12
0.54
-0.09
-0.68
-1.13
-1.36
-1.31
-0.93
-0.24
0.68
1.69
2.66
3.48
4.12
4.58
4.87
4.95
4.76
4.23
3.38
2.32
1.23
0.32
-0.26
-0.47
-0.38
-0.09
0.32
0.80
1.35
1.96
2.57
3.15
3.65
4.04
4.33
4.50
4.51
4.35
4.09
3.84
3.73
3.79
3.91
3.93
3.74
3.36
2.93
2.64
2.63
2.83
3.14
3.39
3.52
3.55
3.52
3.44
3.29
3.04
2.68
2.24
1.75
1.25
0.76
0.24
-0.33
-1.04
-1.97
-3.16
-4.57
-6.04
-7.33
-8.26
-8.75
-8.84
-8.64
-8.27
-7.77
-7.14
-6.37
-5.53
-4.72
-4.13
-3.87
-3.98
-4.40
-4.99
-5.60
-6.11
-6.49
-6.75
-6.91
-6.95
-6.79
-6.32
-5.46
-4.22
-2.75
-1.28
-0.01
0.95
1.62
2.12
2.56
2.98
3.34
3.55
3.55
3.34
3.03
2.73
2.55
2.48
2.43
2.27
1.95
1.51
1.10
0.89
0.90
1.07
1.18
1.10
0.83
0.55
0.53
0.99
1.96
3.27
4.59
5.62
6.21
6.42
6.47
6.54
6.75
7.02
7.16
7.03
6.63
6.13
5.83
5.96
6.53
7.28
7.86
7.88
7.21
5.96
4.44
3.01
2.01
1.63
1.94
2.84
4.11
5.45
6.53
7.09
6.97
6.17
4.84
3.23
1.65
0.35
-0.49
-0.93
-1.19
-1.62
-2.50
-3.92
-5.71
-7.53
-8.95
-9.68
-9.64
-8.99
-8.01
-7.02
-6.28
-5.94
-6.02
-6.47
-7.18
-8.01
-8.81
-9.41
-9.65
-9.46
-8.89
-8.17
-7.59
-7.40
-7.61
-8.03
-8.27
-7.97
-6.98
-5.42
-3.64
-1.98
-0.69
0.26
1.06
1.89
2.87
3.92
4.82
5.36
5.41
4.96
4.13
3.08
1.92
0.83
-0.05
-0.58
-0.63
-0.17
0.66
1.69
2.69
3.53
4.20
4.70
5.09
5.31
5.31
5.04
4.53
3.95
3.48
3.31
3.46
3.88
4.38
4.78
5.00
5.06
5.05
5.06
5.10
5.05
4.74
4.01
2.79
1.17
-0.63
-2.35
-3.78
-4.79
-5.38
-5.63
-5.68
-5.67
-5.64
-5.55
-5.35
-4.99
-4.56
-4.23
-4.13
-4.32
-4.67
-4.95
-4.95
-4.57
-3.88
-3.07
-2.28
-1.61
-1.02
-0.45
0.07
0.46
0.57
0.32
-0.25
-1.00
-1.73
-2.28
-2.57
-2.60
-2.43
-2.09
-1.67
-1.22
-0.85
-0.65
-0.68
-0.91
-1.23
-1.52
-1.67
-1.60
-1.32
-0.89
-0.36
0.21
0.80
1.43
2.16
3.06
4.14
5.29
6.38
7.24
7.83
8.24
8.67
9.26
10.04
10.91
11.63
12.05
12.09
11.83
11.37
10.80
10.13
9.27
8.11
6.64
4.99
3.38
2.07
1.20
0.70
0.41
0.05
-0.52
-1.27
-2.03
-2.57
-2.78
-2.71
-2.51
-2.38
-2.46
-2.76
-3.20
-3.60
-3.77
-3.54
-2.85
-1.83
-0.73
0.10
0.37
-0.07
-1.14
-2.57
-4.02
-5.11
-5.59
-5.32
-4.36
-2.86
-1.14
0.48
1.76
2.58
3.00
3.14
3.14
3.06
2.96
2.89
2.93
3.12
3.43
3.68
3.68
3.26
2.41
1.27
0.07
-0.96
-1.73
-2.23
-2.52
-2.68
-2.72
-2.64
-2.45
-2.22
-2.07
-2.09
-2.35
-2.82
-3.39
-3.87
-4.12
-4.01
-3.49
-2.56
-1.34
-0.04
1.12
1.97
2.44
2.55
2.45
2.24
1.95
1.53
0.86
-0.14
-1.43
-2.83
-4.07
-4.88
-5.11
-4.78
-4.13
-3.51
-3.22
-3.39
-3.88
-4.39
-4.59
-4.35
-3.74
-2.94
-2.11
-1.22
-0.11
1.37
3.11
4.80
6.01
6.47
6.23
5.53
4.62
3.53
2.05
-0.01
-2.58
-5.26
-7.42
-8.61
-8.74
-8.15
-7.34
-6.61
-5.92
-5.03
-3.65
-1.78
0.29
2.18
3.59
4.46
4.88
5.03
5.02
4.85
4.45
3.77
2.84
1.81
0.86
0.14
-0.33
-0.67
-1.04
-1.59
-2.37
-3.31
-4.24
-5.06
-5.74
-6.35
-6.95
-7.50
-7.83
-7.76
-7.21
-6.31
-5.36
-4.65
-4.35
-4.36
-4.46
-4.40
-4.07
-3.54
-2.94
-2.38
-1.86
-1.29
-0.56
0.30
1.20
1.98
2.57
2.94
3.19
3.34
3.38
3.27
2.95
2.50
2.04
1.72
1.65
1.83
2.17
2.54
2.87
3.18
3.56
4.14
4.98
6.05
7.20
8.26
9.07
9.53
9.66
9.57
9.38
9.13
8.81
8.33
7.64
6.75
5.74
4.74
3.84
3.02
2.21
1.30
0.30
-0.66
-1.34
-1.58
-1.32
-0.67
0.14
0.89
1.42
1.70
1.75
1.64
1.39
1.01
0.51
-0.09
-0.74
-1.38
-1.99
-2.56
-3.04
-3.44
-3.77
-4.09
-4.49
-5.03
-5.73
-6.48
-7.17
-7.67
-7.94
-8.00
-7.91
-7.77
-7.60
-7.42
-7.23
-7.01
-6.73
-6.35
-5.83
-5.18
-4.41
-3.60
-2.80
-2.03
-1.30
-0.55
0.26
1.16
2.22
3.48
4.98
6.67
8.36
9.80
10.75
11.15
11.11
10.84
10.57
10.40
10.25
10.01
9.60
9.02
8.43
7.99
7.82
7.98
8.45
9.16
10.05
11.05
12.01
12.81
13.30
13.43
13.24
12.87
12.44
12.03
11.57
10.86
9.63
7.75
5.21
2.25
-0.86
-3.84
-6.56
-8.96
-11.02
-12.64
-13.67
-13.97
-13.56
-12.68
-11.71
-11.06
-11.01
-11.57
-12.53
-13.54
-14.25
-14.40
-13.94
-12.96
-11.67
-10.30
-9.01
-7.89
-6.94
-6.10
-5.33
-4.67
-4.18
-3.89
-3.83
-3.92
-4.04
-4.09
-4.01
-3.80
-3.50
-3.13
-2.71
-2.21
-1.62
-0.91
-0.11
0.73
1.54
2.23
2.76
3.11
3.26
3.26
3.17
3.02
2.85
2.67
2.53
2.43
2.42
2.52
2.80
3.30
4.02
4.90
5.83
6.62
7.10
7.14
6.69
5.80
4.59
3.22
1.85
0.56
-0.57
-1.50
-2.18
-2.58
-2.69
-2.60
-2.45
-2.43
-2.62
-3.01
-3.47
-3.85
-4.09
-4.25
-4.45
-4.81
-5.29
-5.76
-6.06
-6.13
-6.01
-5.82
-5.59
-5.25
-4.69
-3.90
-2.99
-2.24
-1.85
-1.85
-2.04
-2.16
-2.01
-1.67
-1.36
-1.33
-1.70
-2.29
-2.82
-2.95
-2.54
-1.63
-0.44
0.73
1.61
2.01
1.84
1.20
0.26
-0.74
-1.56
-2.03
-2.09
-1.72
-0.97
0.08
1.33
2.64
3.85
4.87
5.63
6.20
6.69
7.19
7.72
8.27
8.82
9.44
10.24
11.37
12.82
14.39
15.64
16.09
15.42
13.64
11.13
8.46
6.15
4.54
3.68
3.44
3.66
4.24
5.10
6.13
7.11
7.75
7.80
7.20
6.04
4.57
3.00
1.45
-0.04
-1.45
-2.69
-3.66
-4.25
-4.51
-4.54
-4.53
-4.56
-4.61
-4.59
-4.44
-4.19
-3.95
-3.83
-3.82
-3.81
-3.64
-3.19
-2.51
-1.68
-0.87
-0.17
0.33
0.67
0.92
1.26
1.86
2.87
4.23
5.68
6.76
6.98
6.11
4.26
1.89
-0.36
-1.98
-2.71
-2.66
-2.08
-1.34
-0.69
-0.31
-0.32
-0.81
-1.77
-3.07
-4.44
-5.56
-6.16
-6.23
-6.02
-5.91
-6.21
-6.95
-7.87
-8.58
-8.71
-8.23
-7.34
-6.41
-5.71
-5.30
-5.01
-4.60
-3.92
-3.03
-2.09
-1.25
-0.46
0.56
2.17
4.64
7.80
11.07
13.58
14.61
13.89
11.82
9.24
7.12
6.12
6.47
7.92
9.95
11.92
13.27
13.58
12.69
10.80
8.48
6.45
5.25
4.95
5.07
4.79
3.46
0.91
-2.51
-6.09
-9.21
-11.58
-13.25
-14.42
-15.22
-15.56
-15.23
-14.03
-11.95
-9.24
-6.30
-3.56
-1.36
0.07
0.68
0.59
-0.05
-1.02
-2.21
-3.55
-5.01
-6.54
-7.94
-8.96
-9.35
-9.00
-7.97
-6.51
-4.98
-3.70
-2.86
-2.46
-2.37
-2.36
-2.26
-1.94
-1.45
-0.95
-0.56
-0.31
-0.10
0.25
0.87
1.68
2.43
2.78
2.56
1.82
0.82
-0.10
-0.72
-0.98
-0.98
-0.88
-0.79
-0.81
-0.96
-1.29
-1.76
-2.31
-2.74
-2.84
-2.45
-1.59
-0.40
0.83
1.84
2.49
2.76
2.73
2.50
2.14
1.68
1.08
0.34
-0.54
-1.51
-2.48
-3.35
-4.02
-4.41
-4.42
-4.04
-3.33
-2.37
-1.35
-0.43
0.20
0.40
0.09
-0.66
-1.64
-2.54
-3.07
-3.06
-2.53
-1.70
-0.84
-0.10
0.52
1.13
1.86
2.68
3.40
3.77
3.62
2.99
2.13
1.36
0.89
0.77
0.87
1.03
1.17
1.31
1.59
2.09
2.80
3.62
4.36
4.90
5.16
5.22
5.18
5.16
5.30
5.64
6.18
6.83
7.46
7.91
8.08
7.94
7.57
7.07
6.57
6.22
6.11
6.27
6.67
7.26
7.89
8.38
8.56
8.29
7.51
6.28
4.71
2.98
1.28
-0.20
-1.29
-1.85
-1.83
-1.28
-0.39
0.55
1.23
1.40
0.96
-0.02
-1.29
-2.53
-3.47
-3.99
-4.16
-4.15
-4.14
-4.26
-4.53
-4.89
-5.27
-5.58
-5.76
-5.82
-5.76
-5.65
-5.58
-5.62
-5.81
-6.06
-6.21
-6.10
-5.69
-5.05
-4.37
-3.82
-3.49
-3.40
-3.49
-3.67
-3.89
-4.10
-4.23
-4.24
-4.09
-3.77
-3.35
-2.88
-2.42
-2.03
-1.77
-1.70
-1.89
-2.35
-2.95
-3.52
-3.89
-3.94
-3.69
-3.23
-2.65
-2.01
-1.32
-0.57
0.22
0.99
1.61
1.99
2.12
2.02
1.82
1.63
1.54
1.63
1.88
2.29
2.78
3.27
3.64
3.83
3.79
3.51
3.05
2.53
2.09
1.81
1.75
1.86
2.02
2.12
2.05
1.80
1.41
0.95
0.49
0.04
-0.40
-0.84
-1.21
-1.43
-1.38
-1.02
-0.42
0.25
0.78
0.98
0.81
0.39
-0.08
-0.38
-0.43
-0.26
-0.03
0.11
0.05
-0.20
-0.55
-0.92
-1.25
-1.52
-1.75
-1.97
-2.20
-2.41
-2.60
-2.74
-2.83
-2.83
-2.70
-2.38
-1.80
-0.98
0.00
1.02
1.88
2.47
2.73
2.70
2.47
2.20
1.99
1.85
1.76
1.64
1.41
1.05
0.58
0.05
-0.46
-0.88
-1.18
-1.39
-1.57
-1.72
-1.83
-1.77
-1.48
-0.87
0.01
1.05
2.10
3.00
3.56
3.68
3.33
2.59
1.69
0.95
0.62
0.78
1.29
1.83
2.10
1.99
1.56
1.03
0.61
0.39
0.37
0.42
0.45
0.39
0.21
-0.12
-0.62
-1.28
-2.02
-2.70
-3.12
-3.14
-2.68
-1.77
-0.53
0.85
2.13
3.09
3.58
3.58
3.22
2.70
2.26
2.05
2.08
2.23
2.32
2.17
1.75
1.15
0.58
0.30
0.42
0.92
1.58
2.16
2.49
2.52
2.34
2.07
1.75
1.39
1.00
0.63
0.40
0.37
0.54
0.68
0.51
-0.16
-1.26
-2.53
-3.55
-4.01
-3.90
-3.45
-3.05
-2.99
-3.36
-3.99
-4.58
-4.85
-4.70
-4.25
-3.79
-3.62
-3.89
-4.52
-5.27
-5.82
-6.01
-5.84
-5.52
-5.24
-5.09
-4.98
-4.70
-4.08
-3.08
-1.84
-0.56
0.54
1.40
2.05
2.59
3.07
3.54
3.96
4.36
4.80
5.40
6.28
7.50
9.02
10.70
12.35
13.77
14.79
15.30
15.28
14.76
13.86
12.76
11.63
10.58
9.65
8.80
7.96
7.09
6.20
5.33
4.49
3.65
2.76
1.77
0.74
-0.22
-0.99
-1.55
-2.04
-2.65
-3.60
-4.92
-6.50
-8.13
-9.58
-10.72
-11.50
-11.93
-12.05
-11.86
-11.39
-10.69
-9.88
-9.06
-8.25
-7.39
-6.36
-5.06
-3.48
-1.77
-0.13
1.24
2.22
2.81
3.05
2.97
2.56
1.79
0.67
-0.70
-2.06
-3.10
-3.52
-3.23
-2.28
-0.96
0.38
1.46
2.12
2.38
2.39
2.29
2.17
1.97
1.56
0.79
-0.41
-1.93
-3.53
-4.94
-5.99
-6.66
-7.05
-7.34
-7.63
-7.92
-8.11
-8.11
-7.93
-7.66
-7.45
-7.38
-7.47
-7.68
-7.90
-8.08
-8.18
-8.21
-8.21
-8.19
-8.19
-8.24
-8.32
-8.40
-8.40
-8.24
-7.85
-7.23
-6.39
-5.37
-4.17
-2.81
-1.32
0.22
1.71
3.05
4.22
5.21
6.07
6.85
7.62
8.40
9.24
10.17
11.18
12.25
13.32
14.35
15.25
15.93
16.29
16.19
15.58
14.47
13.02
11.46
9.99
8.75
7.74
6.90
6.12
5.37
4.67
4.06
3.58
3.20
2.86
2.46
1.99
1.48
1.02
0.67
0.41
0.14
-0.31
-1.01
-1.98
-3.04
-3.99
-4.65
-5.00
-5.14
-5.30
-5.68
-6.36
-7.25
-8.13
-8.75
-8.94
-8.61
-7.77
-6.51
-4.94
-3.24
-1.62
-0.29
0.57
0.89
0.72
0.28
-0.20
-0.51
-0.59
-0.48
-0.31
-0.20
-0.19
-0.25
-0.26
-0.17
0.05
0.39
0.79
1.27
1.85
2.55
3.26
3.83
4.09
4.00
3.64
3.25
3.03
3.08
3.35
3.65
3.82
3.76
3.48
3.08
2.65
2.22
1.80
1.36
0.93
0.55
0.33
0.36
0.73
1.41
2.26
3.06
3.57
3.68
3.45
3.11
2.95
3.16
3.72
4.40
4.88
4.92
4.47
3.61
2.49
1.15
-0.47
-2.45
-4.74
-7.14
-9.32
-11.02
-12.14
-12.81
-13.24
-13.54
-13.63
-13.22
-12.04
-10.01
-7.34
-4.51
-2.03
-0.26
0.75
1.17
1.31
1.38
1.50
1.61
1.63
1.55
1.37
1.13
0.85
0.52
0.16
-0.19
-0.42
-0.45
-0.26
0.12
0.62
1.15
1.65
2.05
2.27
2.24
1.91
1.37
0.82
0.50
0.54
0.92
1.44
1.81
1.82
1.42
0.72
-0.04
-0.63
-0.94
-1.02
-1.00
-1.06
-1.29
-1.67
-2.07
-2.35
-2.38
-2.13
-1.65
-1.02
-0.36
0.28
0.85
1.31
1.64
1.76
1.68
1.39
0.95
0.46
-0.01
-0.43
-0.80
-1.18
-1.55
-1.90
-2.13
-2.17
-1.97
-1.58
-1.10
-0.63
-0.23
0.17
0.69
1.43
2.46
3.72
5.10
6.49
7.80
8.96
9.94
10.68
11.10
11.15
10.89
10.51
10.23
10.23
10.43
10.49
9.85
8.08
5.08
1.17
-2.96
-6.53
-9.09
-10.56
-11.29
-11.71
-12.10
-12.42
-12.42
-11.91
-10.84
-9.38
-7.72
-6.00
-4.25
-2.54
-1.06
-0.05
0.34
0.14
-0.34
-0.73
-0.77
-0.46
0.02
0.48
0.85
1.22
1.71
2.37
3.11
3.78
4.32
4.75
5.13
5.51
5.78
5.85
5.62
5.16
4.63
4.21
3.92
3.63
3.11
2.21
0.96
-0.35
-1.38
-1.93
-2.05
-2.10
-2.51
-3.51
-5.06
-6.82
-8.38
-9.46
-10.06
-10.36
-10.59
-10.87
-11.13
-11.19
-10.90
-10.26
-9.37
-8.38
-7.37
-6.29
-5.01
-3.49
-1.81
-0.25
0.91
1.46
1.40
0.93
0.33
-0.18
-0.51
-0.67
-0.74
-0.76
-0.72
-0.60
-0.43
-0.25
-0.11
-0.02
0.07
0.24
0.52
0.85
1.12
1.18
1.00
0.66
0.34
0.25
0.47
0.99
1.66
2.26
2.59
2.53
2.07
1.33
0.51
-0.14
-0.34
0.06
1.15
2.80
4.79
6.84
8.67
10.06
10.87
11.06
10.70
9.90
8.87
7.82
6.87
6.06
5.31
4.53
3.68
2.74
1.78
0.83
-0.11
-1.05
-1.94
-2.69
-3.15
-3.27
-3.08
-2.76
-2.51
-2.42
-2.51
-2.70
-2.89
-3.03
-3.06
-2.96
-2.65
-2.08
-1.25
-0.23
0.88
1.99
3.04
4.01
4.79
5.19
4.98
3.96
2.18
-0.11
-2.41
-4.13
-4.83
-4.26
-2.47
0.22
3.34
6.45
9.18
11.36
12.92
13.89
14.29
14.17
13.62
12.81
12.01
11.43
11.14
11.01
10.77
10.16
9.03
7.48
5.68
3.81
1.97
0.17
-1.57
-3.18
-4.46
-5.17
-5.15
-4.42
-3.17
-1.80
-0.76
-0.43
-0.97
-2.24
-3.89
-5.47
-6.70
-7.55
-8.20
-8.85
-9.56
-10.20
-10.50
-10.27
-9.55
-8.61
-7.79
-7.33
-7.27
-7.37
-7.31
-6.85
-5.89
-4.56
-3.12
-1.90
-1.14
-1.01
-1.51
-2.55
-3.86
-5.10
-5.85
-5.78
-4.75
-2.92
-0.75
1.20
2.47
2.93
2.78
2.44
2.27
2.45
2.87
3.31
3.56
3.56
3.38
3.19
3.06
3.02
2.97
2.83
2.53
2.18
1.92
1.90
2.22
2.83
3.58
4.29
4.75
4.83
4.50
3.77
2.76
1.61
0.50
-0.39
-0.93
-1.10
-0.95
-0.64
-0.32
-0.13
-0.12
-0.28
-0.57
-0.90
-1.22
-1.47
-1.64
-1.75
-1.86
-1.98
-2.12
-2.25
-2.34
-2.38
-2.36
-2.25
-2.03
-1.63
-1.12
-0.66
-0.55
-1.14
-2.56
-4.65
-6.96
-8.89
-9.99
-10.13
-9.53
-8.59
-7.72
-7.17
-7.00
-7.17
-7.60
-8.19
-8.83
-9.35
-9.61
-9.63
-9.55
-9.65
-10.11
-10.92
-11.86
-12.59
-12.91
-12.79
-12.33
-11.66
-10.75
-9.46
-7.66
-5.36
-2.79
-0.19
2.27
4.59
7.00
9.66
12.61
15.67
18.50
20.78
22.30
23.06
23.27
23.24
23.31
23.62
24.13
24.59
24.67
24.14
23.01
21.54
20.04
18.72
17.59
16.51
15.30
13.90
12.34
10.73
9.15
7.59
6.00
4.32
2.55
0.73
-1.06
-2.78
-4.34
-5.72
-6.90
-7.89
-8.75
-9.57
-10.37
-11.14
-11.80
-12.28
-12.53
-12.53
-12.31
-11.83
-11.06
-9.94
-8.44
-6.64
-4.68
-2.80
-1.28
-0.37
-0.25
-0.98
-2.44
-4.40
-6.53
-8.55
-10.22
-11.42
-12.08
-12.17
-11.67
-10.66
-9.29
-7.82
-6.53
-5.64
-5.21
-5.20
-5.42
-5.70
-5.96
-6.17
-6.36
-6.54
-6.68
-6.74
-6.65
-6.41
-6.05
-5.59
-5.06
-4.48
-3.91
-3.43
-3.10
-2.99
-3.15
-3.54
-4.07
-4.62
-5.07
-5.32
-5.27
-4.85
-4.00
-2.70
-1.01
0.94
3.01
5.05
6.96
8.69
10.23
11.58
12.76
13.81
14.77
15.68
16.53
17.27
17.77
17.90
17.52
16.57
15.13
13.35
11.44
9.59
7.93
6.47
5.17
4.00
2.98
2.21
1.82
1.87
2.29
2.88
3.37
3.55
3.33
2.77
2.05
1.30
0.60
-0.03
-0.66
-1.34
-2.11
-2.97
-3.89
-4.80
-5.59
-6.13
-6.38
-6.41
-6.33
-6.29
-6.27
-6.15
-5.75
-4.93
-3.68
-2.17
-0.62
0.80
1.99
2.96
3.71
4.24
4.50
4.48
4.21
3.76
3.18
2.52
1.82
1.21
0.85
0.85
1.19
1.66
1.95
1.75
0.94
-0.34
-1.75
-2.93
-3.58
-3.64
-3.29
-2.82
-2.57
-2.74
-3.37
-4.35
-5.46
-6.45
-7.14
-7.36
-7.00
-6.03
-4.46
-2.47
-0.33
1.58
2.92
3.51
3.43
2.91
2.28
1.82
1.63
1.68
1.91
2.25
2.70
3.30
4.04
4.89
5.78
6.62
7.34
7.92
8.34
8.63
8.73
8.61
8.18
7.37
6.18
4.61
2.77
0.79
-1.19
-3.04
-4.66
-5.93
-6.74
-6.96
-6.53
-5.50
-4.09
-2.66
-1.62
-1.24
-1.59
-2.49
-3.58
-4.47
-4.92
-4.85
-4.37
-3.63
-2.77
-1.89
-1.03
-0.25
0.32
0.56
0.36
-0.22
-0.97
-1.61
-1.89
-1.72
-1.21
-0.57
-0.07
0.16
0.04
-0.38
-1.06
-1.96
-3.03
-4.19
-5.30
-6.13
-6.44
-6.08
-5.08
-3.66
-2.17
-0.94
-0.17
0.16
0.27
0.44
0.87
1.66
2.72
3.87
4.99
5.94
6.65
7.05
7.15
6.96
6.59
6.26
6.13
6.36
6.96
7.80
8.63
9.13
9.01
8.08
6.38
4.19
2.04
0.45
-0.26
-0.16
0.32
0.53
-0.05
-1.61
-3.91
-6.46
-8.74
-10.33
-11.09
-11.05
-10.29
-8.93
-7.07
-4.89
-2.60
-0.45
1.25
2.28
2.54
2.07
1.06
-0.23
-1.55
-2.71
-3.56
-4.08
-4.24
-4.12
-3.77
-3.33
-2.85
-2.39
-1.90
-1.31
-0.62
0.10
0.69
0.95
0.80
0.28
-0.45
-1.16
-1.62
-1.71
-1.41
-0.77
0.05
0.90
1.60
2.01
2.03
1.62
0.81
-0.32
-1.58
-2.73
-3.47
-3.56
-3.00
-1.95
-0.75
0.25
0.83
0.91
0.58
-0.06
-0.92
-1.94
-2.98
-3.85
-4.31
-4.15
-3.35
-2.06
-0.55
0.91
2.14
3.08
3.74
4.16
4.34
4.25
3.88
3.26
2.48
1.70
1.10
0.81
0.90
1.38
2.14
3.03
3.87
4.47
4.66
4.36
3.54
2.38
1.19
0.37
0.21
0.82
2.06
3.55
4.80
5.39
5.07
3.86
1.99
-0.16
-2.14
-3.55
-4.21
-4.12
-3.53
-2.73
-2.04
-1.64
-1.60
-1.85
-2.28
-2.78
-3.29
-3.87
-4.54
-5.30
-6.01
-6.48
-6.50
-6.02
-5.16
-4.22
-3.48
-3.14
-3.11
-3.24
-3.31
-3.22
-3.06
-2.96
-2.94
-2.90
-2.63
-1.90
-0.72
0.71
1.99
2.75
2.81
2.22
1.25
0.23
-0.61
-1.22
-1.68
-2.11
-2.54
-2.90
-3.07
-2.95
-2.56
-2.06
-1.62
-1.36
-1.30
-1.35
-1.35
-1.20
-0.83
-0.20
0.65
1.65
2.73
3.76
4.66
5.35
5.81
6.06
6.11
6.03
5.84
5.55
5.14
4.53
3.65
2.45
0.98
-0.58
-2.03
-3.13
-3.72
-3.76
-3.39
-2.79
-2.15
-1.60
-1.22
-0.98
-0.88
-0.87
-0.89
-0.91
-0.88
-0.80
-0.72
-0.70
-0.80
-0.99
-1.25
-1.49
-1.64
-1.62
-1.38
-0.91
-0.22
0.63
1.52
2.25
2.63
2.59
2.12
1.32
0.31
-0.78
-1.82
-2.73
-3.45
-3.94
-4.22
-4.35
-4.43
-4.52
-4.61
-4.65
-4.55
-4.26
-3.73
-2.99
-2.03
-0.83
0.62
2.29
4.06
5.78
7.25
8.30
8.86
8.95
8.69
8.19
7.53
6.71
5.71
4.56
3.35
2.28
1.54
1.23
1.34
1.77
2.39
3.21
4.24
5.51
6.91
8.11
8.74
8.56
7.57
6.09
4.62
3.56
3.09
3.05
3.11
2.97
2.48
1.62
0.45
-1.07
-2.98
-5.33
-7.85
-10.01
-11.08
-10.45
-8.05
-4.37
-0.48
2.48
3.72
3.18
1.44
-0.59
-2.14
-2.93
-3.14
-3.22
-3.53
-4.10
-4.74
-5.15
-5.21
-5.09
-5.07
-5.41
-6.17
-7.12
-7.88
-8.13
-7.76
-6.89
-5.79
-4.76
-3.96
-3.36
-2.83
-2.17
-1.29
-0.19
1.01
2.14
3.10
3.80
4.21
4.29
4.00
3.36
2.44
1.42
0.54
-0.02
-0.20
-0.12
0.07
0.20
0.26
0.29
0.34
0.42
0.40
0.14
-0.40
-1.16
-1.90
-2.40
-2.48
-2.09
-1.24
-0.05
1.39
2.94
4.45
5.69
6.45
6.54
5.95
4.82
3.45
2.18
1.26
0.74
0.49
0.31
0.06
-0.26
-0.49
-0.48
-0.13
0.54
1.37
2.22
3.00
3.67
4.20
4.46
4.27
3.44
1.96
0.02
-1.98
-3.65
-4.64
-4.88
-4.45
-3.63
-2.66
-1.79
-1.20
-0.94
-1.03
-1.32
-1.63
-1.68
-1.24
-0.19
1.37
3.16
4.79
5.90
6.26
5.83
4.76
3.25
1.58
-0.06
-1.50
-2.67
-3.51
-4.03
-4.31
-4.44
-4.51
-4.54
-4.50
-4.29
-3.85
-3.20
-2.46
-1.81
-1.40
-1.32
-1.57
-2.07
-2.71
-3.38
-3.99
-4.47
-4.74
-4.75
-4.46
-3.89
-3.04
-1.99
-0.86
0.22
1.12
1.75
2.05
2.03
1.71
1.14
0.40
-0.41
-1.20
-1.89
-2.45
-2.91
-3.27
-3.51
-3.51
-3.16
-2.43
-1.44
-0.38
0.52
1.14
1.53
1.86
2.32
2.99
3.85
4.73
5.49
6.02
6.32
6.47
6.53
6.56
6.56
6.50
6.35
6.13
5.86
5.54
5.09
4.37
3.27
1.80
0.16
-1.34
-2.38
-2.80
-2.70
-2.37
-2.12
-2.13
-2.34
-2.55
-2.53
-2.25
-1.87
-1.67
-1.84
-2.38
-3.07
-3.62
-3.83
-3.64
-3.22
-2.75
-2.36
-2.00
-1.60
-1.07
-0.40
0.26
0.75
0.95
0.88
0.66
0.51
0.58
0.94
1.55
2.28
3.05
3.82
4.62
5.57
6.70
7.99
9.31
10.45
11.17
11.26
10.66
9.44
7.86
6.25
4.97
4.27
4.19
4.61
5.22
5.71
5.84
5.46
4.58
3.25
1.56
-0.38
-2.41
-4.35
-6.00
-7.17
-7.73
-7.69
-7.18
-6.42
-5.63
-4.94
-4.38
-3.81
-3.05
-2.00
-0.66
0.87
2.42
3.96
5.57
7.38
9.42
11.53
13.32
14.36
14.39
13.39
11.65
9.55
7.43
5.43
3.55
1.73
-0.07
-1.85
-3.50
-4.94
-6.02
-6.59
-6.53
-5.88
-4.84
-3.84
-3.32
-3.64
-4.84
-6.73
-8.92
-11.04
-12.87
-14.29
-15.28
-15.74
-15.64
-14.98
-14.01
-13.16
-12.81
-13.23
-14.25
-15.42
-16.13
-15.94
-14.75
-12.83
-10.60
-8.47
-6.67
-5.24
-4.10
-3.20
-2.49
-1.98
-1.66
-1.53
-1.53
-1.61
-1.69
-1.63
-1.32
-0.69
0.27
1.48
2.86
4.36
5.98
7.71
9.52
11.26
12.80
14.03
14.91
15.41
15.50
15.08
14.10
12.55
10.56
8.40
6.30
4.41
2.78
1.34
0.01
-1.18
-2.18
-2.94
-3.45
-3.79
-4.09
-4.48
-5.00
-5.57
-6.06
-6.30
-6.14
-5.55
-4.57
-3.43
-2.36
-1.58
-1.28
-1.45
-2.02
-2.78
-3.48
-3.89
-3.85
-3.31
-2.34
-1.10
0.25
1.55
2.69
3.62
4.32
4.80
5.10
5.28
5.41
5.59
5.83
6.06
6.19
6.03
5.50
4.65
3.67
2.88
2.57
2.90
3.74
4.75
5.48
5.59
4.93
3.58
1.77
-0.25
-2.25
-4.01
-5.28
-5.84
-5.56
-4.46
-2.73
-0.65
1.53
3.61
5.47
7.01
8.06
8.48
8.18
7.13
5.48
3.48
1.45
-0.30
-1.52
-2.09
-2.07
-1.60
-0.94
-0.23
0.45
1.10
1.76
2.34
2.74
2.83
2.59
2.11
1.53
0.96
0.32
-0.56
-1.89
-3.69
-5.79
-7.80
-9.31
-10.03
-9.90
-9.11
-7.90
-6.50
-5.11
-3.88
-3.02
-2.69
-2.96
-3.64
-4.35
-4.63
-4.16
-2.92
-1.20
0.58
2.09
3.19
3.89
4.27
4.23
3.64
2.35
0.44
-1.76
-3.77
-5.16
-5.73
-5.58
-5.01
-4.35
-3.76
-3.23
-2.66
-1.97
-1.26
-0.73
-0.54
-0.75
-1.19
-1.63
-1.83
-1.74
-1.48
-1.20
-1.07
-1.09
-1.13
-1.04
-0.70
-0.08
0.80
1.82
2.87
3.84
4.65
5.22
5.48
5.38
4.90
4.14
3.26
2.43
1.79
1.34
0.99
0.61
0.13
-0.41
-0.87
-1.05
-0.77
-0.03
1.10
2.42
3.70
4.77
5.56
6.13
6.61
7.19
7.95
8.80
9.50
9.74
9.29
8.09
6.33
4.32
2.38
0.76
-0.48
-1.38
-2.07
-2.70
-3.39
-4.20
-5.11
-6.04
-6.84
-7.36
-7.52
-7.37
-7.02
-6.63
-6.34
-6.27
-6.46
-6.92
-7.60
-8.37
-9.05
-9.44
-9.35
-8.69
-7.50
-5.89
-4.06
-2.20
-0.46
1.09
2.44
3.62
4.71
5.72
6.65
7.43
8.04
8.52
8.94
9.40
9.90
10.36
10.63
10.61
10.28
9.73
9.10
8.53
8.09
7.80
7.67
7.68
7.82
8.03
8.24
8.39
8.41
8.32
8.13
7.80
7.26
6.44
5.26
3.76
2.07
0.37
-1.19
-2.53
-3.65
-4.54
-5.24
-5.76
-6.06
-6.17
-6.09
-5.82
-5.33
-4.59
-3.58
-2.32
-0.92
0.46
1.64
2.47
2.91
2.94
2.66
2.19
1.64
1.12
0.64
0.17
-0.39
-1.05
-1.83
-2.70
-3.62
-4.52
-5.36
-6.04
-6.42
-6.36
-5.77
-4.69
-3.28
-1.80
-0.50
0.40
0.86
0.93
0.78
0.50
0.13
-0.34
-0.97
-1.73
-2.48
-3.05
-3.24
-3.02
-2.49
-1.90
-1.54
-1.63
-2.23
-3.24
-4.40
-5.43
-6.10
-6.32
-6.21
-6.03
-6.07
-6.48
-7.20
-8.00
-8.55
-8.67
-8.34
-7.73
-7.12
-6.66
-6.39
-6.20
-5.90
-5.38
-4.65
-3.80
-2.98
-2.32
-1.87
-1.64
-1.56
-1.58
-1.63
-1.66
-1.61
-1.46
-1.25
-1.03
-0.89
-0.85
-0.89
-0.97
-1.06
-1.18
-1.39
-1.70
-2.06
-2.33
-2.32
-1.90
-1.02
0.26
1.79
3.40
4.92
6.21
7.14
7.66
7.79
7.61
7.26
6.84
6.39
5.87
5.22
4.47
3.69
3.04
2.63
2.51
2.64
2.91
3.16
3.28
3.19
2.88
2.40
1.83
1.31
0.94
0.75
0.66
0.54
0.25
-0.30
-1.02
-1.76
-2.30
-2.49
-2.33
-1.89
-1.35
-0.91
-0.74
-0.98
-1.65
-2.64
-3.77
-4.79
-5.47
-5.71
-5.52
-5.05
-4.41
-3.73
-3.07
-2.44
-1.88
-1.39
-0.95
-0.49
0.08
0.81
1.70
2.63
3.42
3.93
4.08
3.91
3.54
3.14
2.82
2.65
2.62
2.67
2.68
2.58
2.35
2.02
1.63
1.25
0.87
0.50
0.13
-0.18
-0.35
-0.34
-0.18
0.07
0.32
0.56
0.91
1.49
2.36
3.42
4.43
5.13
5.37
5.22
4.84
4.41
3.98
3.50
2.91
2.30
1.88
1.95
2.71
4.15
6.07
8.14
10.05
11.61
12.71
13.30
13.37
12.94
12.09
11.03
9.95
9.05
8.38
7.81
7.15
6.22
4.98
3.50
1.98
0.67
-0.29
-0.79
-0.93
-0.82
-0.68
-0.73
-1.13
-1.95
-3.13
-4.47
-5.71
-6.59
-6.96
-6.82
-6.30
-5.57
-4.79
-4.10
-3.65
-3.58
-3.94
-4.68
-5.63
-6.51
-7.11
-7.38
-7.41
-7.40
-7.47
-7.61
-7.67
-7.48
-6.95
-6.10
-5.07
-4.00
-3.00
-2.16
-1.55
-1.19
-1.04
-0.97
-0.81
-0.41
0.29
1.19
2.10
2.83
3.23
3.32
3.20
3.06
3.00
2.99
2.90
2.54
1.78
0.63
-0.77
-2.23
-3.59
-4.75
-5.70
-6.46
-6.92
-6.94
-6.39
-5.27
-3.76
-2.14
-0.65
0.56
1.54
2.33
2.95
3.32
3.35
3.05
2.57
2.16
2.11
2.54
3.41
4.53
5.65
6.56
7.13
7.35
7.27
7.01
6.69
6.42
6.26
6.21
6.18
6.10
5.85
5.44
4.88
4.28
3.68
3.09
2.40
1.50
0.28
-1.23
-2.94
-4.65
-6.20
-7.47
-8.37
-8.77
-8.55
-7.62
-6.05
-4.14
-2.28
-0.87
-0.13
-0.00
-0.27
-0.71
-1.19
-1.69
-2.25
-2.81
-3.29
-3.52
-3.49
-3.31
-3.22
-3.39
-3.85
-4.43
-4.87
-4.96
-4.71
-4.27
-3.87
-3.64
-3.61
-3.70
-3.82
-3.95
-4.14
-4.48
-4.97
-5.55
-6.03
-6.21
-5.95
-5.23
-4.13
-2.76
-1.20
0.52
2.42
4.41
6.28
7.68
8.25
7.83
6.58
4.93
3.49
2.74
2.86
3.77
5.20
6.85
8.58
10.32
12.01
13.49
14.46
14.67
13.99
12.53
10.62
8.62
6.79
5.23
3.93
2.91
2.29
2.15
2.49
3.11
3.63
3.70
3.23
2.40
1.57
0.96
0.52
-0.10
-1.35
-3.45
-6.27
-9.41
-12.34
-14.69
-16.22
-16.96
-16.94
-16.30
-15.20
-13.83
-12.44
-11.20
-10.19
-9.34
-8.51
-7.59
-6.56
-5.49
-4.42
-3.39
-2.34
-1.24
-0.16
0.74
1.24
1.20
0.61
-0.33
-1.35
-2.17
-2.60
-2.62
-2.37
-2.05
-1.83
-1.82
-1.97
-2.21
-2.43
-2.57
-2.54
-2.29
-1.74
-0.88
0.24
1.49
2.68
3.62
4.23
4.53
4.60
4.56
4.45
4.24
3.89
3.37
2.71
2.00
1.32
0.76
0.34
0.05
-0.16
-0.37
-0.69
-1.20
-1.87
-2.61
-3.18
-3.40
-3.15
-2.52
-1.74
-1.03
-0.49
-0.10
0.26
0.64
0.94
0.93
0.42
-0.59
-1.85
-2.94
-3.47
-3.28
-2.48
-1.38
-0.29
0.60
1.26
1.78
2.22
2.56
2.70
2.56
2.17
1.67
1.27
1.13
1.26
1.55
1.83
1.99
1.98
1.86
1.69
1.45
1.16
0.80
0.43
0.13
-0.01
0.02
0.19
0.43
0.70
0.93
1.09
1.13
1.06
0.88
0.70
0.63
0.77
1.12
1.62
2.13
2.54
2.74
2.72
2.50
2.10
1.55
0.83
-0.03
-1.00
-1.96
-2.75
-3.19
-3.19
-2.76
-2.06
-1.29
-0.68
-0.29
-0.09
0.01
0.11
0.23
0.36
0.49
0.67
0.94
1.28
1.64
1.87
1.89
1.70
1.44
1.29
1.34
1.57
1.85
2.02
2.02
1.84
1.55
1.20
0.81
0.37
-0.08
-0.51
-0.85
-1.06
-1.15
-1.20
-1.24
-1.34
-1.46
-1.52
-1.44
-1.15
-0.75
-0.38
-0.24
-0.44
-0.98
-1.69
-2.37
-2.86
-3.18
-3.36
-3.47
-3.48
-3.23
-2.59
-1.51
-0.13
1.31
2.60
3.64
4.46
5.12
5.64
5.89
5.73
5.07
3.98
2.72
1.61
0.97
0.94
1.43
2.17
2.84
3.17
3.09
2.71
2.26
1.99
1.97
2.15
2.36
2.52
2.66
2.93
3.51
4.47
5.69
6.90
7.84
8.32
8.24
7.66
6.60
5.10
3.26
1.17
-0.99
-2.96
-4.51
-5.43
-5.57
-4.87
-3.42
-1.47
0.52
1.98
2.40
1.46
-0.80
-3.99
-7.56
-10.91
-13.56
-15.25
-15.84
-15.35
-13.87
-11.64
-8.99
-6.33
-4.04
-2.35
-1.35
-0.91
-0.77
-0.72
-0.62
-0.51
-0.52
-0.77
-1.29
-1.99
-2.72
-3.32
-3.72
-3.88
-3.81
-3.54
-3.13
-2.67
-2.28
-2.07
-2.10
-2.37
-2.79
-3.30
-3.84
-4.40
-4.94
-5.47
-5.98
-6.53
-7.18
-7.95
-8.70
-9.21
-9.20
-8.50
-7.10
-5.17
-2.94
-0.61
1.69
3.93
6.08
8.09
9.85
11.28
12.28
12.89
13.17
13.28
13.35
13.47
13.59
13.60
13.39
12.89
12.20
11.46
10.80
10.24
9.66
8.88
7.76
6.27
4.59
2.98
1.73
1.07
1.08
1.70
2.66
3.55
3.97
3.62
2.43
0.57
-1.67
-3.97
-6.10
-7.94
-9.44
-10.54
-11.09
-10.96
-10.04
-8.38
-6.23
-3.93
-1.85
-0.23
0.87
1.54
1.89
1.98
1.80
1.25
0.36
-0.74
-1.80
-2.62
-3.05
-3.18
-3.16
-3.17
-3.33
-3.66
-4.15
-4.83
-5.70
-6.74
-7.90
-9.07
-10.08
-10.80
-11.13
-11.01
-10.42
-9.39
-8.02
-6.46
-4.94
-3.61
-2.52
-1.57
-0.66
0.24
1.02
1.46
1.31
0.51
-0.79
-2.23
-3.45
-4.16
-4.29
-3.93
-3.26
-2.42
-1.49
-0.49
0.60
1.80
3.14
4.57
5.99
7.29
8.34
9.01
9.30
9.28
9.06
8.76
8.48
8.25
8.13
8.14
8.33
8.72
9.33
10.16
11.15
12.18
13.09
13.67
13.75
13.33
12.51
11.56
10.80
10.47
10.68
11.39
12.37
13.30
13.84
13.78
13.03
11.74
10.19
8.68
7.38
6.25
5.12
3.78
2.22
0.56
-0.92
-1.98
-2.59
-2.89
-3.19
-3.73
-4.63
-5.75
-6.88
-7.83
-8.54
-9.09
-9.66
-10.35
-11.13
-11.81
-12.16
-12.07
-11.58
-10.87
-10.17
-9.59
-9.07
-8.45
-7.51
-6.19
-4.62
-3.04
-1.82
-1.19
-1.21
-1.71
-2.35
-2.74
-2.61
-1.88
-0.72
0.57
1.58
1.98
1.61
0.43
-1.39
-3.56
-5.66
-7.34
-8.29
-8.40
-7.74
-6.52
-5.04
-3.55
-2.25
-1.28
-0.68
-0.45
-0.57
-0.87
-1.19
-1.32
-1.16
-0.69
-0.04
0.65
1.26
1.73
2.07
2.31
2.50
2.66
2.82
3.00
3.20
3.37
3.45
3.32
2.93
2.33
1.70
1.25
1.12
1.27
1.53
1.62
1.35
0.75
0.03
-0.49
-0.55
-0.10
0.70
1.49
1.86
1.51
0.33
-1.61
-4.03
-6.53
-8.70
-10.21
-10.89
-10.74
-9.92
-8.67
-7.23
-5.80
-4.55
-3.59
-2.97
-2.67
-2.59
-2.60
-2.53
-2.27
-1.77
-1.05
-0.19
0.75
1.71
2.65
3.57
4.43
5.18
5.79
6.25
6.56
6.68
6.62
6.33
5.82
5.13
4.41
3.76
3.32
3.06
2.90
2.69
2.33
1.81
1.16
0.42
-0.38
-1.25
-2.22
-3.24
-4.18
-4.87
-5.14
-4.98
-4.50
-3.92
-3.49
-3.27
-3.25
-3.25
-3.12
-2.77
-2.33
-1.98
-1.90
-2.08
-2.34
-2.35
-1.86
-0.83
0.56
2.03
3.34
4.46
5.50
6.59
7.68
8.53
8.74
7.99
6.24
3.71
0.91
-1.69
-3.69
-4.89
-5.22
-4.68
-3.36
-1.44
0.73
2.62
3.68
3.51
2.07
-0.26
-2.84
-5.01
-6.36
-6.87
-6.82
-6.60
-6.48
-6.50
-6.51
-6.33
-5.85
-5.13
-4.27
-3.37
-2.42
-1.31
0.07
1.78
3.70
5.56
7.01
7.75
7.68
6.95
5.92
5.01
4.51
4.51
4.81
5.09
5.08
4.65
3.92
3.16
2.61
2.42
2.56
2.86
3.12
3.22
3.10
2.85
2.63
2.60
2.86
3.44
4.25
5.16
5.97
6.52
6.68
6.40
5.70
4.62
3.25
1.68
0.00
-1.67
-3.19
-4.41
-5.20
-5.49
-5.29
-4.73
-4.03
-3.40
-3.01
-2.92
-3.14
-3.59
-4.16
-4.69
-5.04
-5.09
-4.80
-4.23
-3.50
-2.71
-1.98
-1.33
-0.76
-0.28
0.03
0.08
-0.18
-0.72
-1.35
-1.83
-1.96
-1.69
-1.14
-0.53
-0.10
0.00
-0.20
-0.52
-0.76
-0.71
-0.32
0.31
1.03
1.66
2.09
2.31
2.34
2.24
2.02
1.66
1.13
0.46
-0.26
-0.89
-1.28
-1.33
-1.09
-0.66
-0.28
-0.11
-0.21
-0.51
-0.83
-0.98
-0.86
-0.48
-0.01
0.40
0.60
0.62
0.55
0.56
0.76
1.18
1.69
2.15
2.40
2.42
2.27
2.11
2.09
2.30
2.76
3.39
4.07
4.70
5.16
5.42
5.44
5.17
4.59
3.67
2.48
1.16
-0.10
-1.10
-1.73
-2.02
-2.08
-2.09
-2.12
-2.18
-2.18
-2.04
-1.78
-1.47
-1.21
-1.07
-1.04
-1.08
-1.14
-1.22
-1.37
-1.66
-2.07
-2.46
-2.66
-2.54
-2.11
-1.55
-1.14
-1.11
-1.48
-2.11
-2.70
-2.93
-2.67
-1.94
-0.90
0.18
1.14
1.83
2.20
2.26
2.06
1.69
1.26
0.88
0.59
0.42
0.32
0.27
0.29
0.42
0.73
1.19
1.75
2.33
2.78
3.05
3.10
2.92
2.53
1.97
1.30
0.61
-0.04
-0.60
-1.03
-1.34
-1.55
-1.67
-1.73
-1.75
-1.78
-1.88
-2.11
-2.48
-2.96
-3.51
-4.03
-4.48
-4.82
-5.07
-5.18
-5.10
-4.73
-3.99
-2.86
-1.45
0.01
1.24
2.08
2.52
2.72
2.90
3.23
3.71
4.21
4.56
4.63
4.45
4.09
3.73
3.46
3.41
3.58
3.96
4.46
4.92
5.17
5.06
4.50
3.53
2.24
0.81
-0.57
-1.66
-2.24
-2.16
-1.41
-0.25
0.87
1.44
1.09
-0.31
-2.52
-5.12
-7.68
-9.89
-11.55
-12.56
-12.83
-12.35
-11.15
-9.40
-7.37
-5.36
-3.56
-2.04
-0.74
0.48
1.71
2.96
4.11
4.97
5.36
5.18
4.42
3.25
1.93
0.73
-0.17
-0.72
-1.04
-1.26
-1.49
-1.76
-2.01
-2.20
-2.29
-2.27
-2.18
-2.00
-1.72
-1.36
-1.02
-0.84
-1.01
-1.65
-2.77
-4.21
-5.69
-6.85
-7.41
-7.21
-6.30
-4.91
-3.34
-1.80
-0.38
0.93
2.20
3.35
4.19
4.54
4.32
3.63
2.78
2.08
1.76
1.89
2.35
2.97
3.61
4.21
4.75
5.22
5.66
6.06
6.43
6.71
6.84
6.73
6.29
5.55
4.56
3.48
2.41
1.45
0.63
-0.01
-0.39
-0.48
-0.23
0.30
1.00
1.74
2.45
3.11
3.77
4.48
5.18
5.73
5.98
5.80
5.18
4.30
3.39
2.60
2.00
1.49
0.94
0.27
-0.50
-1.23
-1.76
-2.03
-2.11
-2.15
-2.27
-2.54
-2.90
-3.27
-3.60
-3.86
-4.00
-4.02
-3.83
-3.44
-2.91
-2.38
-2.02
-1.93
-2.07
-2.32
-2.50
-2.50
-2.37
-2.18
-2.08
-2.12
-2.33
-2.60
-2.82
-2.93
-2.89
-2.71
-2.48
-2.26
-2.09
-1.99
-1.96
-1.99
-2.08
-2.18
-2.20
-2.05
-1.62
-0.93
-0.13
0.60
1.08
1.23
1.13
0.95
0.81
0.77
0.76
0.64
0.35
-0.08
-0.52
-0.83
-0.89
-0.70
-0.34
0.09
0.53
0.98
1.42
1.85
2.22
2.44
2.46
2.29
2.02
1.79
1.68
1.69
1.73
1.73
1.62
1.43
1.21
0.97
0.74
0.48
0.17
-0.22
-0.65
-1.15
-1.65
-2.14
-2.54
-2.80
-2.86
-2.69
-2.37
-1.99
-1.64
-1.38
-1.23
-1.21
-1.34
-1.64
-2.05
-2.42
-2.52
-2.18
-1.33
-0.11
1.21
2.32
3.05
3.40
3.51
3.60
3.79
4.12
4.53
4.91
5.20
5.34
5.37
5.31
5.19
5.02
4.77
4.43
4.00
3.53
3.15
2.96
2.99
3.12
3.14
2.87
2.28
1.49
0.72
0.15
-0.20
-0.42
-0.64
-0.85
-0.91
-0.61
0.14
1.28
2.51
3.53
4.11
4.27
4.16
3.99
3.91
3.93
3.99
3.98
3.84
3.53
3.04
2.31
1.34
0.14
-1.20
-2.59
-3.90
-5.06
-6.05
-6.89
-7.59
-8.19
-8.70
-9.16
-9.65
-10.18
-10.74
-11.24
-11.53
-11.44
-10.94
-10.05
-8.94
-7.81
-6.82
-6.04
-5.42
-4.88
-4.30
-3.62
-2.87
-2.12
-1.50
-1.16
-1.17
-1.56
-2.24
-3.09
-3.99
-4.88
-5.67
-6.34
-6.81
-6.96
-6.70
-6.02
-4.97
-3.72
-2.40
-1.06
0.32
1.78
3.33
4.84
6.15
7.13
7.76
8.12
8.32
8.45
8.52
8.51
8.39
8.06
7.45
6.43
4.88
2.75
0.20
-2.49
-4.93
-6.80
-8.01
-8.69
-9.10
-9.45
-9.80
-9.99
-9.78
-9.02
-7.74
-6.21
-4.76
-3.71
-3.17
-3.10
-3.33
-3.68
-4.04
-4.35
-4.52
-4.48
-4.14
-3.50
-2.59
-1.55
-0.49
0.57
1.69
2.97
4.43
6.02
7.56
8.86
9.81
10.40
10.69
10.80
10.78
10.63
10.30
9.77
9.06
8.26
7.46
6.78
6.31
6.13
6.28
6.78
7.67
9.04
10.99
13.54
16.54
19.63
22.26
23.89
24.18
23.13
20.98
18.16
15.05
11.85
8.62
5.43
2.40
-0.24
-2.22
-3.40
-3.88
-3.95
-3.96
-4.19
-4.72
-5.42
-6.11
-6.62
-6.87
-6.91
-6.79
-6.55
-6.11
-5.35
-4.23
-2.82
-1.35
-0.08
0.78
1.17
1.20
1.03
0.76
0.43
0.03
-0.46
-0.97
-1.36
-1.52
-1.47
-1.34
-1.31
-1.54
-2.04
-2.73
-3.44
-4.05
-4.48
-4.72
-4.81
-4.75
-4.55
-4.26
-3.91
-3.58
-3.30
-3.10
-2.90
-2.61
-2.17
-1.61
-1.10
-0.85
-1.06
-1.79
-2.97
-4.33
-5.60
-6.54
-7.04
-7.09
-6.79
-6.24
-5.48
-4.51
-3.29
-1.78
-0.06
1.75
3.50
5.05
6.37
7.51
8.53
9.43
10.12
10.42
10.16
9.23
7.73
5.89
4.04
2.48
1.35
0.63
0.19
-0.13
-0.43
-0.67
-0.77
-0.66
-0.40
-0.10
0.10
0.13
0.05
-0.05
-0.14
-0.26
-0.56
-1.14
-2.00
-3.01
-4.01
-4.91
-5.77
-6.78
-8.18
-10.09
-12.50
-15.25
-18.11
-20.83
-23.16
-24.91
-25.92
-26.05
-25.22
-23.36
-20.45
-16.56
-11.85
-6.63
-1.28
3.73
8.08
11.59
14.27
16.23
17.57
18.38
18.65
18.44
17.83
16.94
15.91
14.85
13.82
12.85
11.96
11.09
10.19
9.17
7.99
6.73
5.62
4.90
4.79
5.31
6.27
7.38
8.33
8.90
9.01
8.73
8.22
7.62
7.06
6.58
6.12
5.52
4.60
3.24
1.47
-0.47
-2.27
-3.63
-4.41
-4.67
-4.60
-4.43
-4.31
-4.29
-4.36
-4.48
-4.62
-4.78
-4.92
-5.04
-5.10
-5.10
-5.07
-5.06
-5.10
-5.14
-5.05
-4.64
-3.76
-2.38
-0.55
1.51
3.50
5.11
6.08
6.27
5.71
4.59
3.24
2.06
1.41
1.44
2.09
3.00
3.71
3.85
3.32
2.33
1.25
0.42
-0.09
-0.45
-0.92
-1.61
-2.37
-2.90
-2.98
-2.69
-2.36
-2.41
-3.00
-3.92
-4.75
-5.10
-4.90
-4.41
-4.01
-3.95
-4.21
-4.54
-4.70
-4.55
-4.19
-3.80
-3.49
-3.26
-3.01
-2.70
-2.31
-1.95
-1.71
-1.59
-1.52
-1.33
-0.93
-0.30
0.45
1.13
1.56
1.68
1.52
1.20
0.80
0.36
-0.10
-0.60
-1.03
-1.25
-1.17
-0.77
-0.23
0.14
0.09
-0.47
-1.42
-2.43
-3.20
-3.56
-3.57
-3.42
-3.31
-3.30
-3.34
-3.28
-3.04
-2.60
-2.03
-1.46
-0.93
-0.43
0.10
0.75
1.55
2.51
3.58
4.65
5.64
6.46
7.06
7.43
7.58
7.57
7.48
7.38
7.30
7.14
6.77
5.98
4.65
2.82
0.74
-1.22
-2.69
-3.44
-3.52
-3.19
-2.80
-2.66
-2.94
-3.66
-4.75
-6.16
-7.83
-9.74
-11.76
-13.66
-15.12
-15.79
-15.45
-14.11
-12.00
-9.48
-6.98
-4.81
-3.14
-1.97
-1.16
-0.56
0.02
0.66
1.38
2.12
2.76
3.21
3.50
3.72
4.02
4.53
5.29
6.22
7.22
8.18
9.10
9.99
10.91
11.81
12.49
12.73
12.30
11.11
9.26
7.02
4.66
2.46
0.59
-0.91
-2.00
-2.68
-3.02
-3.17
-3.36
-3.88
-4.92
-6.50
-8.40
-10.28
-11.81
-12.76
-13.04
-12.66
-11.67
-10.24
-8.55
-6.90
-5.65
-5.06
-5.24
-6.01
-7.07
-8.01
-8.54
-8.48
-7.81
-6.62
-5.05
-3.31
-1.60
-0.15
0.92
1.62
2.02
2.29
2.61
3.14
3.97
5.15
6.58
8.10
9.46
10.47
11.00
11.09
10.93
10.68
10.49
10.36
10.30
10.23
10.18
10.20
10.25
10.27
10.12
9.65
8.75
7.43
5.80
4.03
2.29
0.69
-0.78
-2.17
-3.56
-4.98
-6.37
-7.62
-8.60
-9.27
-9.65
-9.90
-10.19
-10.60
-11.09
-11.47
-11.56
-11.17
-10.22
-8.88
-7.38
-6.01
-4.96
-4.27
-3.81
-3.40
-2.90
-2.28
-1.60
-0.93
-0.28
0.47
1.50
2.95
4.76
6.75
8.63
10.12
11.07
11.49
11.41
10.93
10.08
8.89
7.44
5.85
4.28
2.96
2.08
1.82
2.25
3.32
4.82
6.42
7.77
8.61
8.83
8.47
7.62
6.37
4.76
2.94
1.13
-0.33
-1.09
-0.92
0.16
1.90
3.93
5.73
6.85
6.88
5.56
2.87
-0.88
-5.11
-9.01
-11.82
-13.03
-12.58
-10.81
-8.36
-5.92
-3.99
-2.79
-2.24
-2.12
-2.18
-2.32
-2.54
-2.89
-3.38
-3.93
-4.38
-4.58
-4.49
-4.18
-3.80
-3.43
-3.11
-2.77
-2.40
-2.06
-1.95
-2.24
-3.07
-4.35
-5.82
-7.15
-8.07
-8.48
-8.50
-8.35
-8.21
-8.16
-8.10
-7.90
-7.44
-6.75
-5.95
-5.18
-4.50
-3.90
-3.32
-2.70
-2.01
-1.29
-0.56
0.19
0.97
1.74
2.43
2.96
3.28
3.42
3.47
3.51
3.60
3.70
3.77
3.77
3.68
3.56
3.39
3.19
2.95
2.64
2.29
1.88
1.40
0.87
0.31
-0.26
-0.78
-1.22
-1.53
-1.71
-1.77
-1.69
-1.49
-1.17
-0.74
-0.22
0.34
0.92
1.43
1.81
2.04
2.16
2.25
2.41
2.71
3.08
3.42
3.63
3.68
3.64
3.59
3.62
3.72
3.83
3.81
3.49
2.78
1.64
0.14
-1.55
-3.22
-4.66
-5.76
-6.54
-7.05
-7.38
-7.55
-7.49
-7.17
-6.58
-5.83
-5.04
-4.33
-3.66
-2.93
-2.00
-0.86
0.42
1.69
2.81
3.73
4.51
5.20
5.76
6.07
6.00
5.49
4.68
3.87
3.39
3.43
3.94
4.67
5.33
5.69
5.74
5.65
5.67
5.93
6.45
7.09
7.64
7.94
7.84
7.29
6.27
4.76
2.88
0.76
-1.34
-3.20
-4.60
-5.43
-5.72
-5.55
-5.10
-4.61
-4.36
-4.66
-5.72
-7.61
-10.21
-13.25
-16.36
-19.15
-21.24
-22.31
-22.05
-20.31
-17.17
-13.00
-8.39
-4.03
-0.46
2.07
3.62
4.49
5.02
5.49
6.07
6.71
7.36
7.90
8.32
8.66
9.02
9.49
10.09
10.78
11.43
11.96
12.31
12.46
12.42
12.14
11.55
10.58
9.27
7.74
6.20
4.86
3.84
3.13
2.55
1.88
0.92
-0.42
-2.05
-3.74
-5.24
-6.37
-7.09
-7.54
-7.89
-8.31
-8.88
-9.58
-10.37
-11.23
-12.12
-12.99
-13.75
-14.23
-14.29
-13.89
-13.10
-12.11
-11.06
-10.07
-9.15
-8.24
-7.26
-6.15
-4.94
-3.70
-2.50
-1.38
-0.31
0.81
2.10
3.66
5.50
7.53
9.61
11.54
13.18
14.45
15.33
15.87
16.10
16.04
15.68
15.07
14.24
13.28
12.30
11.42
10.66
9.98
9.32
8.62
7.91
7.29
6.88
6.66
6.53
6.24
5.59
4.47
2.98
1.31
-0.29
-1.65
-2.70
-3.45
-3.97
-4.38
-4.76
-5.23
-5.86
-6.68
-7.62
-8.57
-9.36
-9.86
-9.99
-9.77
-9.24
-8.49
-7.61
-6.70
-5.83
-5.01
-4.18
-3.25
-2.09
-0.70
0.84
2.34
3.61
4.53
5.12
5.46
5.76
6.16
6.82
7.81
9.17
10.87
12.82
14.83
16.69
18.21
19.24
19.74
19.74
19.28
18.47
17.35
15.99
14.47
12.87
11.30
9.86
8.64
7.65
6.82
5.99
4.94
3.48
1.53
-0.88
-3.61
-6.37
-8.90
-10.91
-12.19
-12.67
-12.44
-11.74
-10.91
-10.27
-10.05
-10.32
-11.03
-12.01
-13.04
-13.88
-14.32
-14.18
-13.44
-12.21
-10.74
-9.27
-7.96
-6.82
-5.75
-4.65
-3.49
-2.40
-1.52
-0.96
-0.76
-0.78
-0.90
-0.99
-0.97
-0.75
-0.28
0.51
1.63
3.00
4.43
5.68
6.53
6.85
6.68
6.15
5.48
4.82
4.28
3.82
3.36
2.78
2.04
1.16
0.30
-0.39
-0.84
-1.08
-1.25
-1.52
-1.97
-2.52
-2.97
-3.12
-2.86
-2.25
-1.53
-0.93
-0.66
-0.78
-1.22
-1.82
-2.36
-2.61
-2.42
-1.67
-0.36
1.46
3.68
6.15
8.65
10.96
12.81
13.97
14.28
13.72
12.44
10.67
8.71
6.84
5.20
3.89
2.92
2.31
2.08
2.20
2.57
2.97
3.11
2.70
1.62
-0.08
-2.11
-4.13
-5.88
-7.23
-8.19
-8.76
-8.91
-8.58
-7.76
-6.52
-5.07
-3.64
-2.40
-1.38
-0.54
0.17
0.72
1.00
0.92
0.46
-0.25
-1.02
-1.71
-2.27
-2.79
-3.40
-4.22
-5.27
-6.41
-7.45
-8.21
-8.63
-8.78
-8.82
-8.91
-9.15
-9.52
-9.91
-10.24
-10.46
-10.57
-10.60
-10.50
-10.12
-9.28
-7.86
-5.80
-3.25
-0.44
2.35
4.88
6.96
8.48
9.41
9.77
9.63
9.06
8.19
7.14
6.08
5.14
4.39
3.80
3.21
2.46
1.43
0.17
-1.11
-2.17
-2.79
-2.91
-2.62
-2.06
-1.34
-0.53
0.37
1.32
2.20
2.84
3.06
2.74
1.91
0.70
-0.69
-2.04
-3.17
-4.00
-4.52
-4.80
-4.92
-4.94
-4.93
-4.91
-4.92
-5.02
-5.27
-5.66
-6.13
-6.50
-6.55
-6.12
-5.13
-3.62
-1.78
0.14
1.94
3.46
4.64
5.48
6.04
6.36
6.50
6.52
6.48
6.49
6.63
6.97
7.50
8.15
8.80
9.34
9.66
9.63
9.21
8.34
7.10
5.67
4.29
3.24
2.61
2.31
2.12
1.79
1.20
0.41
-0.38
-0.98
-1.32
-1.48
-1.62
-1.86
-2.26
-2.72
-3.07
-3.18
-3.01
-2.66
-2.26
-2.00
-1.99
-2.20
-2.61
-3.11
-3.64
-4.15
-4.61
-4.97
-5.15
-5.02
-4.54
-3.79
-2.98
-2.43
-2.37
-2.84
-3.64
-4.44
-4.90
-4.83
-4.27
-3.41
-2.52
-1.77
-1.20
-0.79
-0.43
-0.04
0.41
0.90
1.37
1.77
2.04
2.17
2.18
2.18
2.24
2.40
2.62
2.82
2.90
2.86
2.76
2.77
3.01
3.52
4.22
4.90
5.38
5.57
5.46
5.14
4.70
4.16
3.54
2.82
1.99
1.06
0.09
-0.88
-1.80
-2.60
-3.20
-3.55
-3.67
-3.60
-3.46
-3.35
-3.31
-3.38
-3.60
-3.97
-4.48
-5.09
-5.67
-6.07
-6.18
-6.02
-5.69
-5.40
-5.33
-5.57
-6.07
-6.69
-7.26
-7.66
-7.84
-7.84
-7.72
-7.57
-7.43
-7.28
-7.01
-6.50
-5.60
-4.22
-2.41
-0.32
1.82
3.79
5.44
6.78
7.88
8.82
9.60
10.14
10.38
10.29
9.93
9.39
8.76
8.03
7.22
6.32
5.37
4.39
3.39
2.31
1.12
-0.21
-1.62
-3.02
-4.32
-5.54
-6.76
-8.07
-9.54
-11.06
-12.41
-13.28
-13.37
-12.52
-10.70
-8.10
-5.11
-2.17
0.22
1.69
2.10
1.58
0.52
-0.57
-1.19
-1.01
-0.01
1.57
3.30
4.77
5.71
6.12
6.20
6.27
6.60
7.30
8.34
9.55
10.74
11.82
12.76
13.58
14.31
14.92
15.33
15.46
15.26
14.81
14.23
13.65
13.14
12.63
11.94
10.89
9.42
7.64
5.82
4.24
3.04
2.12
1.25
0.17
-1.20
-2.68
-3.96
-4.74
-4.91
-4.61
-4.10
-3.68
-3.51
-3.60
-3.92
-4.46
-5.28
-6.43
-7.89
-9.45
-10.76
-11.49
-11.41
-10.57
-9.27
-7.91
-6.83
-6.15
-5.81
-5.60
-5.35
-4.99
-4.62
-4.36
-4.32
-4.47
-4.72
-4.93
-4.98
-4.83
-4.51
-4.08
-3.60
-3.09
-2.56
-1.95
-1.22
-0.31
0.77
1.95
3.13
4.25
5.27
6.22
7.15
8.03
8.75
9.13
9.05
8.47
7.49
6.31
5.12
4.02
2.96
1.89
0.77
-0.30
-1.18
-1.76
-2.05
-2.13
-2.15
-2.21
-2.33
-2.43
-2.41
-2.25
-1.98
-1.70
-1.52
-1.49
-1.55
-1.59
-1.49
-1.22
-0.79
-0.32
0.09
0.40
0.65
0.94
1.33
1.77
2.12
2.10
1.49
0.16
-1.78
-4.08
-6.36
-8.28
-9.61
-10.29
-10.36
-9.93
-9.12
-8.01
-6.71
-5.33
-4.00
-2.83
-1.90
-1.23
-0.81
-0.55
-0.41
-0.29
-0.13
0.07
0.25
0.30
0.10
-0.40
-1.15
-2.03
-2.91
-3.74
-4.53
-5.35
-6.20
-7.09
-7.88
-8.43
-8.61
-8.34
-7.66
-6.66
-5.52
-4.42
-3.52
-2.96
-2.79
-2.99
-3.44
-3.97
-4.42
-4.64
-4.60
-4.39
-4.16
-4.12
-4.38
-4.95
-5.70
-6.45
-7.01
-7.31
-7.33
-7.14
-6.82
-6.42
-5.91
-5.25
-4.41
-3.43
-2.38
-1.35
-0.39
0.48
1.32
2.17
3.04
3.90
4.69
5.37
5.97
6.54
7.14
7.81
8.60
9.49
10.48
11.54
12.63
13.63
14.47
15.13
15.64
16.06
16.41
16.64
16.62
16.23
15.44
14.35
13.12
11.88
10.71
9.62
8.64
7.89
7.50
7.56
7.98
8.52
8.91
8.96
8.72
8.37
8.16
8.16
8.21
8.00
7.23
5.79
3.86
1.74
-0.27
-2.00
-3.48
-4.83
-6.15
-7.44
-8.68
-9.81
-10.89
-12.00
-13.17
-14.29
-15.12
-15.35
-14.76
-13.43
-11.62
-9.75
-8.18
-7.02
-6.16
-5.35
-4.44
-3.47
-2.64
-2.12
-1.93
-1.83
-1.46
-0.52
1.04
3.07
5.30
7.50
9.58
11.54
13.42
15.12
16.50
17.42
17.87
17.99
18.02
18.21
18.71
19.45
20.24
20.74
20.62
19.68
17.92
15.47
12.66
9.82
7.26
5.17
3.61
2.49
1.59
0.64
-0.61
-2.25
-4.18
-6.15
-7.91
-9.25
-10.15
-10.70
-11.04
-11.31
-11.57
-11.82
-12.01
-12.11
-12.03
-11.74
-11.24
-10.63
-10.00
-9.51
-9.22
-9.11
-9.12
-9.12
-9.01
-8.76
-8.38
-7.96
-7.61
-7.52
-7.84
-8.62
-9.79
-11.08
-12.23
-13.01
-13.40
-13.52
-13.59
-13.78
-14.14
-14.67
-15.34
-16.20
-17.26
-18.48
-19.66
-20.44
-20.51
-19.70
-18.12
-16.03
-13.81
-11.67
-9.69
-7.82
-5.91
-3.86
-1.66
0.62
2.83
4.77
6.19
6.87
6.66
5.55
3.70
1.48
-0.66
-2.28
-3.06
-3.00
-2.29
-1.26
-0.25
0.61
1.41
2.42
3.91
6.00
8.54
11.24
13.74
15.76
17.12
17.73
17.54
16.55
14.83
12.67
10.43
8.54
7.34
6.87
6.98
7.35
7.63
7.59
7.13
6.25
5.00
3.49
1.87
0.35
-0.88
-1.68
-2.01
-2.03
-1.98
-2.14
-2.73
-3.86
-5.53
-7.75
-10.45
-13.54
-16.74
-19.63
-21.68
-22.47
-21.84
-19.96
-17.33
-14.50
-11.82
-9.40
-7.08
-4.64
-1.94
0.94
3.81
6.45
8.78
10.80
12.62
14.28
15.75
16.90
17.66
17.99
17.97
17.72
17.39
17.08
16.84
16.66
16.52
16.32
16.01
15.58
15.03
14.44
13.83
13.22
12.50
11.55
10.30
8.78
7.13
5.55
4.24
3.29
2.72
2.41
2.22
1.99
1.63
1.11
0.46
-0.27
-1.07
-2.00
-3.18
-4.71
-6.62
-8.79
-10.89
-12.52
-13.33
-13.12
-11.95
-10.08
-7.86
-5.59
-3.45
-1.47
0.42
2.27
4.07
5.74
7.11
8.02
8.42
8.35
7.95
7.43
6.94
6.56
6.22
5.85
5.41
4.96
4.70
4.82
5.48
6.69
8.27
9.96
11.42
12.38
12.70
12.32
11.31
9.81
7.94
5.83
3.58
1.29
-0.94
-3.01
-4.83
-6.34
-7.50
-8.29
-8.69
-8.70
-8.30
-7.55
-6.52
-5.30
-3.99
-2.72
-1.64
-0.93
-0.79
-1.37
-2.70
-4.66
-6.97
-9.25
-11.07
-12.13
-12.25
-11.40
-9.73
-7.52
-5.07
-2.68
-0.57
1.11
2.28
2.95
3.19
3.13
2.97
2.88
2.98
3.33
3.85
4.41
4.83
4.96
4.77
4.30
3.75
3.31
3.18
3.40
3.88
4.44
4.90
5.19
5.37
5.59
6.04
6.76
7.76
8.91
10.11
11.23
12.18
12.79
12.87
12.25
10.86
8.85
6.51
4.20
2.16
0.45
-1.01
-2.37
-3.76
-5.21
-6.68
-8.15
-9.52
-10.75
-11.75
-12.40
-12.67
-12.58
-12.31
-12.08
-12.13
-12.58
-13.38
-14.33
-15.11
-15.46
-15.23
-14.48
-13.43
-12.40
-11.62
-11.13
-10.76
-10.23
-9.30
-7.87
-6.05
-4.11
-2.30
-0.79
0.38
1.26
1.98
2.63
3.30
4.04
4.86
5.78
6.83
8.10
9.71
11.83
14.55
17.85
21.48
25.03
28.04
30.07
30.83
30.30
28.61
26.05
22.91
19.44
15.81
12.15
8.55
5.12
1.98
-0.77
-3.11
-5.12
-6.92
-8.67
-10.41
-12.08
-13.47
-14.35
-14.57
-14.16
-13.37
-12.50
-11.87
-11.57
-11.55
-11.73
-12.09
-12.71
-13.63
-14.70
-15.53
-15.67
-14.83
-13.09
-10.95
-9.00
-7.64
-6.91
-6.47
-5.93
-5.06
-3.99
-2.98
-2.22
-1.70
-1.16
-0.35
0.88
2.45
4.16
5.81
7.25
8.51
9.70
10.95
12.34
13.87
15.43
16.81
17.85
18.39
18.40
18.01
17.42
16.86
16.42
16.00
15.33
14.11
12.10
9.28
5.82
2.07
-1.58
-4.83
-7.60
-9.90
-11.79
-13.28
-14.24
-14.46
-13.85
-12.52
-10.89
-9.51
-8.89
-9.14
-10.03
-11.04
-11.71
-11.84
-11.57
-11.17
-10.81
-10.35
-9.46
-7.82
-5.43
-2.67
-0.14
1.62
2.41
2.46
2.25
2.25
2.67
3.36
3.96
4.14
3.80
3.11
2.42
2.01
1.97
2.17
2.36
2.33
2.03
1.52
0.83
-0.08
-1.37
-3.16
-5.38
-7.68
-9.57
-10.57
-10.51
-9.58
-8.27
-7.12
-6.53
-6.59
-7.15
-7.98
-8.85
-9.65
-10.28
-10.64
-10.57
-9.93
-8.66
-6.84
-4.62
-2.21
0.18
2.36
4.17
5.48
6.20
6.38
6.10
5.60
5.08
4.69
4.49
4.47
4.52
4.50
4.31
3.91
3.40
2.93
2.61
2.45
2.29
1.95
1.30
0.38
-0.61
-1.43
-1.91
-2.11
-2.18
-2.30
-2.56
-2.91
-3.22
-3.41
-3.50
-3.56
-3.70
-3.91
-4.12
-4.24
-4.21
-4.09
-4.00
-4.06
-4.26
-4.51
-4.62
-4.42
-3.84
-2.98
-2.00
-1.03
-0.09
0.88
2.01
3.29
4.61
5.76
6.56
6.93
7.02
7.05
7.22
7.54
7.86
7.95
7.65
6.98
6.11
5.25
4.52
3.87
3.20
2.33
1.24
-0.02
-1.30
-2.44
-3.37
-4.04
-4.48
-4.71
-4.77
-4.67
-4.43
-4.11
-3.78
-3.56
-3.58
-3.97
-4.73
-5.82
-7.07
-8.27
-9.25
-9.95
-10.42
-10.82
-11.34
-12.08
-13.02
-13.94
-14.50
-14.32
-13.13
-10.87
-7.74
-4.14
-0.57
2.59
5.08
6.78
7.73
8.03
7.94
7.85
8.27
9.67
12.27
15.91
20.06
23.98
27.04
28.90
29.62
29.44
28.63
27.35
25.62
23.41
20.81
18.02
15.29
12.79
10.56
8.55
6.62
4.72
2.92
1.36
0.18
-0.54
-0.91
-1.12
-1.40
-1.88
-2.54
-3.22
-3.72
-3.91
-3.82
-3.55
-3.29
-3.18
-3.30
-3.66
-4.26
-5.05
-5.90
-6.64
-7.08
-7.20
-7.09
-7.03
-7.22
-7.72
-8.40
-8.98
-9.27
-9.21
-8.92
-8.58
-8.30
-8.11
-8.03
-8.13
-8.54
-9.36
-10.53
-11.90
-13.14
-13.98
-14.31
-14.14
-13.61
-12.85
-11.93
-10.89
-9.74
-8.52
-7.31
-6.22
-5.36
-4.72
-4.18
-3.62
-2.93
-2.15
-1.47
-1.12
-1.23
-1.67
-2.02
-1.73
-0.31
2.39
6.12
10.29
14.18
17.26
19.27
20.27
20.53
20.27
19.56
18.35
16.56
14.25
11.66
9.13
6.94
5.19
3.77
2.42
0.98
-0.62
-2.25
-3.72
-4.92
-5.80
-6.45
-6.97
-7.44
-7.90
-8.36
-8.75
-8.98
-8.93
-8.52
-7.73
-6.66
-5.46
-4.27
-3.18
-2.20
-1.32
-0.56
0.02
0.39
0.58
0.76
1.18
2.04
3.42
5.18
7.04
8.66
9.82
10.42
10.51
10.20
9.60
8.85
8.08
7.41
6.95
6.73
6.74
6.87
7.03
7.07
6.93
6.58
6.01
5.23
4.24
3.02
1.59
-0.04
-1.80
-3.54
-5.10
-6.33
-7.13
-7.47
-7.41
-7.05
-6.50
-5.91
-5.43
-5.17
-5.17
-5.39
-5.72
-6.10
-6.53
-7.11
-7.93
-8.99
-10.16
-11.23
-11.97
-12.23
-11.98
-11.22
-9.96
-8.22
-6.10
-3.83
-1.72
-0.05
1.01
1.48
1.51
1.28
0.95
0.61
0.34
0.19
0.25
0.58
1.14
1.86
2.63
3.35
3.99
4.50
4.87
5.10
5.20
5.25
5.39
5.73
6.32
7.14
8.00
8.68
8.95
8.67
7.78
6.40
4.75
3.10
1.72
0.81
0.48
0.74
1.49
2.57
3.71
4.58
4.90
4.48
3.35
1.70
-0.15
-1.94
-3.53
-4.87
-6.00
-6.96
-7.63
-7.95
-7.88
-7.49
-6.97
-6.48
-6.15
-6.02
-6.08
-6.36
-6.90
-7.64
-8.39
-8.83
-8.56
-7.35
-5.26
-2.69
-0.26
1.50
2.34
2.37
2.03
1.74
1.77
2.11
2.54
2.86
3.04
3.21
3.59
4.24
5.07
5.89
6.65
7.53
8.72
10.17
11.30
11.14
8.87
4.34
-1.70
-7.80
-12.58
-15.29
-16.14
-15.98
-15.74
-15.83
-16.04
-15.81
-14.69
-12.66
-10.22
-8.00
-6.46
-5.57
-4.92
-3.98
-2.35
-0.08
2.41
4.50
5.74
6.01
5.57
4.86
4.26
3.94
3.89
4.01
4.17
4.33
4.39
4.24
3.77
2.95
1.98
1.28
1.34
2.59
5.23
9.05
13.44
17.60
20.66
21.93
21.14
18.43
14.32
9.51
4.67
0.28
-3.41
-6.41
-8.86
-10.97
-12.86
-14.45
-15.42
-15.31
-13.74
-10.66
-6.51
-2.10
1.62
3.92
4.55
3.74
2.10
0.43
-0.59
-0.63
0.21
1.37
2.15
1.97
0.75
-1.10
-2.93
-4.17
-4.67
-4.71
-4.71
-4.91
-5.20
-5.24
-4.73
-3.64
-2.28
-1.09
-0.40
-0.25
-0.44
-0.64
-0.66
-0.46
-0.21
-0.12
-0.34
-0.81
-1.37
-1.79
-1.86
-1.53
-0.87
-0.07
0.63
1.03
1.05
0.69
-0.08
-1.10
-2.07
-2.78
-3.17
-3.46
-4.00
-5.04
-6.65
-8.66
-10.56
-11.72
-11.81
-11.04
-10.11
-9.91
-10.90
-13.06
-16.07
-19.08
-21.15
-21.85
-21.45
-20.85
-21.13
-22.59
-25.10
-28.77
-32.74
-35.67
-36.72
-35.98
-34.41
-33.60
-34.19
-36.93
-43.79
-54.62
-66.86
-76.85
-80.91
-76.84
-65.22
-48.08
-30.05
-18.57
-16.84
-22.44
-29.81
-32.23
-23.96
-1.66
37.20
91.31
152.56
212.62
264.26
300.59
317.17
313.31
278.78
214.37
147.41
88.33
35.46
-9.59
-44.39
-66.43
-74.75
-71.20
-58.28
-40.75
-26.67
-19.64
-18.32
-19.81
-21.50
-22.14
-22.13
-21.02
-18.91
-18.32
-19.58
-21.10
-21.81
-21.37
-20.28
-19.36
-18.34
-16.98
-16.68
-17.55
-18.62
-19.19
-19.02
-18.31
-17.54
-16.71
-15.78
-15.35
-15.37
-15.18
-14.44
-13.15
-11.63
-10.29
-9.22
-8.33
-7.66
-7.00
-6.01
-4.61
-2.95
-1.32
0.02
0.91
1.42
1.71
2.00
2.37
2.81
3.15
3.28
3.15
2.85
2.52
2.31
2.33
2.57
3.01
3.63
4.41
5.34
6.31
7.19
7.78
7.93
7.56
6.72
5.62
4.51
3.67
3.23
3.19
3.39
3.58
3.49
2.97
2.05
0.91
-0.18
-0.98
-1.40
-1.51
-1.44
-1.33
-1.24
-1.13
-0.95
-0.71
-0.47
-0.38
-0.58
-1.12
-1.98
-3.09
-4.36
-5.70
-7.04
-8.30
-9.44
-10.40
-11.13
-11.54
-11.49
-10.89
-9.75
-8.22
-6.56
-4.99
-3.71
-2.70
-1.89
-1.17
-0.57
-0.14
0.08
0.08
0.01
0.01
0.17
0.43
0.65
0.72
0.59
0.39
0.26
0.35
0.67
1.11
1.51
1.75
1.86
1.96
2.21
2.67
3.31
3.98
4.56
5.01
5.33
5.58
5.73
5.70
5.38
4.77
3.96
3.11
2.39
1.87
1.49
1.12
0.66
0.09
-0.53
-1.13
-1.60
-1.90
-2.00
-1.93
-1.74
-1.52
-1.37
-1.38
-1.63
-2.09
-2.66
-3.18
-3.51
-3.59
-3.46
-3.24
-3.05
-2.93
-2.88
-2.83
-2.78
-2.76
-2.87
-3.16
-3.61
-4.05
-4.25
-4.09
-3.58
-2.94
-2.40
-2.16
-2.23
-2.42
-2.48
-2.22
-1.53
-0.52
0.63
1.67
2.44
2.88
3.03
3.05
3.12
3.39
3.89
4.51
5.02
5.24
5.08
4.60
3.91
3.13
2.28
1.33
0.26
-0.89
-1.97
-2.82
-3.36
-3.65
-3.81
-4.00
-4.24
-4.39
-4.28
-3.76
-2.83
-1.64
-0.44
0.56
1.22
1.44
1.23
0.65
-0.17
-1.08
-1.87
-2.37
-2.50
-2.24
-1.65
-0.87
-0.05
0.64
1.09
1.27
1.29
1.28
1.41
1.73
2.14
2.47
2.59
2.45
2.16
1.87
1.69
1.64
1.62
1.49
1.17
0.64
-0.05
-0.78
-1.45
-1.99
-2.31
-2.40
-2.27
-1.98
-1.59
-1.16
-0.72
-0.22
0.39
1.16
2.05
2.94
3.70
4.24
4.56
4.71
4.79
4.80
4.64
4.19
3.34
2.11
0.61
-0.95
-2.40
-3.60
-4.51
-5.08
-5.30
-5.23
-4.92
-4.50
-4.03
-3.41
-2.52
-1.23
0.42
2.19
3.66
4.43
4.34
3.47
2.09
0.54
-0.94
-2.16
-3.01
-3.39
-3.28
-2.77
-2.13
-1.66
-1.56
-1.82
-2.18
-2.33
-2.05
-1.34
-0.41
0.43
1.01
1.34
1.56
1.83
2.23
2.64
2.91
2.85
2.39
1.65
0.82
0.14
-0.23
-0.29
-0.12
0.14
0.43
0.77
1.27
2.01
2.95
3.89
4.57
4.77
4.48
3.84
3.11
2.52
2.17
2.01
1.89
1.66
1.20
0.52
-0.37
-1.40
-2.46
-3.49
-4.42
-5.17
-5.74
-6.11
-6.33
-6.38
-6.24
-5.86
-5.22
-4.35
-3.35
-2.39
-1.62
-1.14
-0.94
-0.91
-0.87
-0.68
-0.29
0.30
0.99
1.74
2.48
3.15
3.61
3.69
3.18
2.03
0.37
-1.52
-3.24
-4.45
-4.90
-4.47
-3.15
-1.09
1.37
3.72
5.37
5.86
5.13
3.51
1.68
0.35
-0.04
0.58
1.92
3.50
4.90
5.77
6.00
5.61
4.70
3.44
1.96
0.39
-1.16
-2.54
-3.56
-4.05
-3.92
-3.27
-2.35
-1.54
-1.08
-1.07
-1.36
-1.65
-1.70
-1.41
-0.81
-0.08
0.58
0.99
1.06
0.82
0.33
-0.26
-0.81
-1.24
-1.52
-1.67
-1.72
-1.68
-1.57
-1.45
-1.43
-1.64
-2.20
-3.12
-4.27
-5.47
-6.51
-7.26
-7.64
-7.63
-7.22
-6.45
-5.38
-4.15
-2.90
-1.83
-1.03
-0.52
-0.24
-0.12
-0.06
0.02
0.14
0.31
0.47
0.53
0.35
-0.17
-1.09
-2.34
-3.75
-5.12
-6.22
-6.88
-6.97
-6.52
-5.64
-4.57
-3.61
-3.05
-3.07
-3.72
-4.88
-6.37
-7.94
-9.37
-10.46
-11.13
-11.34
-11.16
-10.71
-10.08
-9.36
-8.61
-7.82
-6.97
-6.01
-4.86
-3.44
-1.73
0.26
2.44
4.71
6.92
9.00
10.97
12.86
14.70
16.44
17.91
18.90
19.19
18.72
17.55
15.94
14.21
12.65
11.45
10.65
10.12
9.66
8.99
7.82
5.88
3.09
-0.40
-4.12
-7.46
-9.75
-10.64
-10.13
-8.63
-6.75
-5.03
-3.82
-3.17
-2.96
-2.98
-3.03
-2.99
-2.76
-2.27
-1.49
-0.38
1.04
2.69
4.38
5.86
6.81
6.96
6.23
4.72
2.75
0.71
-1.05
-2.28
-2.89
-2.87
-2.30
-1.27
0.09
1.55
2.88
3.86
4.37
4.39
3.97
3.17
2.09
0.75
-0.72
-2.20
-3.52
-4.49
-5.05
-5.22
-5.12
-4.89
-4.68
-4.60
-4.74
-5.20
-6.08
-7.41
-9.10
-10.91
-12.46
-13.41
-13.47
-12.58
-10.87
-8.64
-6.27
-4.05
-2.14
-0.55
0.88
2.34
3.94
5.71
7.51
9.12
10.35
11.09
11.42
11.53
11.68
11.99
12.38
12.66
12.56
11.90
10.68
9.09
7.41
5.84
4.46
3.22
1.96
0.51
-1.17
-3.03
-4.91
-6.61
-8.03
-9.10
-9.83
-10.31
-10.61
-10.83
-11.06
-11.38
-11.79
-12.22
-12.51
-12.44
-11.86
-10.73
-9.14
-7.30
-5.46
-3.86
-2.65
-1.88
-1.52
-1.52
-1.76
-2.22
-2.95
-4.02
-5.48
-7.26
-9.08
-10.55
-11.25
-10.92
-9.55
-7.40
-4.84
-2.28
0.02
1.97
3.62
5.11
6.58
8.05
9.44
10.56
11.27
11.48
11.23
10.61
9.76
8.80
7.84
6.92
6.15
5.57
5.20
5.01
4.89
4.71
4.38
3.89
3.29
2.71
2.27
2.13
2.35
2.99
4.05
5.46
7.10
8.80
10.32
11.45
12.03
12.03
11.62
11.01
10.44
9.98
9.57
9.06
8.29
7.29
6.21
5.24
4.50
3.94
3.32
2.40
1.05
-0.71
-2.78
-5.07
-7.58
-10.30
-13.14
-15.80
-17.85
-18.88
-18.76
-17.69
-16.15
-14.65
-13.47
-12.60
-11.79
-10.79
-9.51
-8.03
-6.59
-5.34
-4.33
-3.41
-2.42
-1.18
0.33
2.03
3.73
5.24
6.43
7.24
7.69
7.85
7.78
7.56
7.24
6.91
6.57
6.22
5.76
5.08
4.15
3.03
1.93
1.03
0.42
-0.01
-0.50
-1.26
-2.36
-3.65
-4.85
-5.70
-6.07
-6.04
-5.84
-5.72
-5.87
-6.36
-7.05
-7.68
-7.98
-7.67
-6.64
-4.88
-2.62
-0.11
2.34
4.48
6.14
7.23
7.74
7.77
7.57
7.50
7.91
9.01
10.70
12.62
14.24
15.04
14.72
13.30
11.03
8.32
5.59
3.17
1.31
0.24
0.12
1.01
2.79
5.05
7.23
8.72
9.13
8.42
6.89
5.01
3.22
1.75
0.60
-0.32
-1.09
-1.70
-2.10
-2.30
-2.40
-2.55
-2.85
-3.24
-3.51
-3.44
-2.97
-2.23
-1.56
-1.31
-1.75
-2.90
-4.53
-6.22
-7.53
-8.08
-7.71
-6.42
-4.39
-1.83
1.04
4.04
7.02
9.80
12.17
13.95
15.05
15.48
15.34
14.71
13.67
12.24
10.52
8.69
7.01
5.71
4.96
4.73
4.88
5.21
5.58
5.92
6.29
6.78
7.46
8.25
8.95
9.28
8.95
7.83
5.98
3.66
1.19
-1.16
-3.28
-5.18
-6.93
-8.56
-10.05
-11.34
-12.48
-13.65
-15.12
-17.13
-19.77
-22.89
-26.12
-28.98
-31.03
-31.94
-31.67
-30.33
-28.18
-25.56
-22.75
-19.96
-17.30
-14.77
-12.30
-9.77
-7.08
-4.17
-1.04
2.28
5.76
9.35
12.99
16.52
19.71
22.32
24.18
25.38
26.27
27.31
28.83
30.84
32.90
34.38
34.76
33.91
32.17
30.11
28.23
26.72
25.43
24.10
22.59
21.01
19.63
18.66
18.07
17.60
16.89
15.79
14.38
13.00
12.00
11.50
11.35
11.11
10.36
8.90
6.98
5.19
4.24
4.64
6.36
8.86
11.31
12.95
13.37
12.69
11.42
10.14
9.29
9.02
9.18
9.45
9.38
8.58
6.79
3.99
0.47
-3.23
-6.55
-9.02
-10.54
-11.27
-11.58
-11.79
-12.09
-12.46
-12.79
-13.00
-13.11
-13.32
-13.93
-15.16
-17.02
-19.21
-21.09
-21.94
-21.17
-18.67
-14.90
-10.78
-7.39
-5.52
-5.44
-6.76
-8.66
-10.22
-10.78
-10.21
-8.93
-7.71
-7.40
-8.46
-10.73
-13.39
-15.26
-15.22
-12.72
-8.01
-2.08
3.63
7.86
9.91
9.88
8.55
7.05
6.37
7.07
9.11
11.87
14.38
15.68
15.15
12.75
9.19
5.78
4.01
4.98
8.87
14.72
20.59
24.33
24.30
20.03
12.42
3.43
-4.63
-9.93
-11.68
-10.43
-7.77
-5.61
-5.53
-8.18
-13.09
-18.92
-23.91
-26.56
-26.09
-22.72
-17.50
-11.95
-7.45
-4.93
-4.64
-6.26
-9.16
-12.53
-15.56
-17.47
-17.68
-16.03
-13.01
-9.74
-7.59
-7.53
-9.60
-12.88
-15.85
-17.11
-15.92
-12.40
-7.28
-1.51
3.97
8.41
11.21
12.03
10.90
8.24
4.72
1.12
-1.96
-4.14
-5.19
-4.92
-3.28
-0.46
2.96
6.15
8.21
8.61
7.38
5.11
2.65
0.79
-0.07
0.05
0.82
1.85
2.88
3.83
4.77
5.67
6.30
6.26
5.28
3.52
1.73
0.95
1.88
4.34
7.10
8.40
6.83
2.12
-4.68
-11.71
-17.15
-19.86
-19.61
-16.82
-12.21
-6.57
-0.78
4.11
7.09
7.45
5.12
0.81
-4.27
-8.81
-11.96
-13.46
-13.67
-13.21
-12.61
-12.01
-11.13
-9.51
-6.76
-2.96
1.34
5.21
7.72
8.35
7.12
4.53
1.29
-2.01
-5.00
-7.52
-9.52
-10.91
-11.56
-11.41
-10.54
-9.22
-7.89
-7.00
-6.87
-7.57
-8.98
-10.81
-12.75
-14.54
-15.86
-16.37
-15.67
-13.48
-9.87
-5.40
-0.96
2.48
4.32
4.54
3.64
2.32
1.13
0.35
0.06
0.26
1.10
2.74
5.13
7.92
10.48
12.12
12.45
11.55
9.94
8.26
7.03
6.41
6.25
6.25
6.16
5.83
5.22
4.29
3.06
1.64
0.30
-0.58
-0.67
0.13
1.60
3.26
4.51
4.92
4.39
3.22
2.01
1.36
1.60
2.70
4.25
5.68
6.61
6.93
6.81
6.51
6.17
5.77
5.19
4.33
3.25
2.02
0.66
-0.92
-2.78
-4.84
-6.75
-8.10
-8.68
-8.62
-8.31
-8.18
-8.40
-8.75
-8.92
-8.66
-8.11
-7.64
-7.65
-8.24
-9.13
-9.86
-10.05
-9.67
-8.98
-8.29
-7.72
-7.07
-6.02
-4.35
-2.24
-0.18
1.14
1.24
0.02
-2.13
-4.53
-6.47
-7.51
-7.60
-7.03
-6.28
-5.75
-5.60
-5.75
-6.01
-6.28
-6.52
-6.75
-6.87
-6.61
-5.67
-3.91
-1.59
0.75
2.43
3.03
2.53
1.29
-0.15
-1.26
-1.73
-1.45
-0.49
1.01
2.88
4.97
7.09
9.02
10.56
11.53
11.85
11.64
11.23
11.06
11.46
12.51
13.93
15.18
15.72
15.26
13.82
11.69
9.19
6.57
4.00
1.67
-0.08
-0.84
-0.31
1.47
4.01
6.51
8.13
8.28
6.83
4.00
0.32
-3.53
-6.79
-8.75
-8.86
-7.02
-3.71
0.12
3.31
4.92
4.53
2.33
-1.09
-4.92
-8.26
-10.37
-10.70
-9.10
-5.95
-2.13
1.24
3.22
3.47
2.32
0.65
-0.58
-0.65
0.62
2.97
5.76
8.21
9.67
9.76
8.54
6.45
4.16
2.27
1.01
0.23
-0.51
-1.58
-3.09
-4.76
-6.09
-6.61
-6.18
-4.99
-3.57
-2.54
-2.43
-3.48
-5.61
-8.41
-11.37
-13.99
-15.90
-16.94
-17.02
-16.03
-13.87
-10.52
-6.25
-1.67
2.39
5.17
6.29
5.88
4.53
2.96
1.77
1.25
1.39
2.04
3.01
4.19
5.45
6.66
7.62
8.08
7.89
7.06
5.76
4.31
3.06
2.30
2.15
2.57
3.37
4.30
5.10
5.53
5.44
4.78
3.59
1.99
0.16
-1.70
-3.35
-4.59
-5.23
-5.20
-4.54
-3.44
-2.21
-1.13
-0.44
-0.24
-0.45
-0.89
-1.31
-1.44
-1.02
0.15
2.17
4.99
8.42
12.06
15.44
18.07
19.56
19.63
18.24
15.51
11.80
7.58
3.46
0.06
-2.15
-2.97
-2.53
-1.21
0.46
1.93
2.80
2.82
1.90
0.15
-2.16
-4.70
-7.08
-9.05
-10.45
-11.29
-11.64
-11.60
-11.25
-10.67
-9.97
-9.28
-8.69
-8.22
-7.77
-7.21
-6.39
-5.31
-4.07
-2.85
-1.89
-1.30
-1.07
-1.05
-0.93
-0.49
0.41
1.64
2.97
4.10
4.88
5.30
5.48
5.50
5.38
5.00
4.24
3.04
1.48
-0.25
-1.86
-3.11
-3.74
-3.64
-2.88
-1.65
-0.30
0.84
1.54
1.76
1.63
1.31
0.87
0.29
-0.43
-1.29
-2.17
-2.89
-3.29
-3.29
-2.94
-2.38
-1.81
-1.40
-1.25
-1.39
-1.72
-2.12
-2.47
-2.73
-2.87
-2.93
-2.92
-2.86
-2.72
-2.57
-2.46
-2.48
-2.62
-2.73
-2.61
-2.06
-1.05
0.30
1.73
2.95
3.75
4.09
4.00
3.61
3.04
2.35
1.62
0.94
0.47
0.35
0.71
1.50
2.57
3.69
4.66
5.29
5.56
5.51
5.21
4.76
4.23
3.72
3.30
3.07
3.01
3.06
3.11
3.02
2.72
2.21
1.51
0.64
-0.42
-1.65
-2.96
-4.19
-5.16
-5.75
-5.95
-5.94
-5.92
-5.99
-6.12
-6.09
-5.70
-4.85
-3.64
-2.25
-0.86
0.42
1.59
2.62
3.43
3.87
3.84
3.33
2.55
1.84
1.52
1.76
2.46
3.34
4.03
4.30
4.06
3.44
2.64
1.81
1.06
0.39
-0.17
-0.56
-0.72
-0.58
-0.18
0.37
0.90
1.30
1.44
1.28
0.82
0.12
-0.77
-1.73
-2.68
-3.52
-4.23
-4.79
-5.20
-5.43
-5.47
-5.29
-4.96
-4.58
-4.23
-3.99
-3.83
-3.69
-3.50
-3.19
-2.76
-2.26
-1.77
-1.38
-1.16
-1.11
-1.12
-1.04
-0.76
-0.31
0.20
0.54
0.59
0.39
0.18
0.25
0.74
1.57
2.42
2.97
3.06
2.82
2.56
2.61
3.05
3.74
4.36
4.65
4.53
4.15
3.68
3.28
2.98
2.77
2.62
2.51
2.45
2.36
2.11
1.59
0.77
-0.23
-1.20
-1.88
-2.11
-1.86
-1.22
-0.34
0.55
1.18
1.32
0.80
-0.38
-2.03
-3.79
-5.20
-5.89
-5.61
-4.38
-2.41
-0.03
2.39
4.51
6.12
7.11
7.47
7.35
6.97
6.59
6.49
6.85
7.71
8.90
10.13
10.97
11.10
10.36
8.80
6.74
4.57
2.65
1.21
0.28
-0.29
-0.68
-1.07
-1.52
-2.00
-2.39
-2.60
-2.60
-2.45
-2.30
-2.26
-2.34
-2.46
-2.47
-2.32
-2.12
-2.11
-2.56
-3.61
-5.12
-6.80
-8.23
-9.06
-9.14
-8.60
-7.76
-7.01
-6.63
-6.72
-7.10
-7.44
-7.46
-7.11
-6.54
-6.13
-6.18
-6.77
-7.72
-8.61
-8.97
-8.49
-7.12
-5.07
-2.72
-0.53
1.15
2.16
2.53
2.40
1.94
1.28
0.50
-0.30
-0.98
-1.34
-1.26
-0.74
0.05
0.93
1.76
2.50
3.23
3.91
4.41
4.48
3.99
3.02
1.90
1.08
0.84
1.23
2.03
2.96
3.81
4.55
5.30
6.20
7.31
8.56
9.77
10.67
11.00
10.61
9.51
7.90
6.13
4.61
3.57
3.02
2.75
2.51
2.16
1.76
1.50
1.62
2.21
3.18
4.27
5.13
5.40
4.87
3.49
1.42
-0.97
-3.19
-4.71
-5.12
-4.25
-2.19
0.72
3.93
6.83
8.86
9.63
9.01
7.20
4.62
1.80
-0.78
-2.80
-4.13
-4.79
-4.89
-4.61
-4.19
-3.87
-3.93
-4.50
-5.53
-6.76
-7.81
-8.40
-8.42
-8.00
-7.40
-6.86
-6.48
-6.22
-5.96
-5.63
-5.21
-4.73
-4.21
-3.58
-2.78
-1.84
-0.88
-0.12
0.28
0.32
0.13
-0.04
-0.08
-0.03
-0.07
-0.39
-1.07
-1.97
-2.89
-3.60
-4.11
-4.51
-4.95
-5.47
-5.91
-6.09
-5.84
-5.24
-4.51
-3.93
-3.66
-3.61
-3.47
-2.85
-1.46
0.74
3.48
6.24
8.38
9.32
8.74
6.64
3.34
-0.68
-4.86
-8.64
-11.40
-12.48
-11.32
-7.72
-2.11
4.39
10.17
13.70
14.15
11.74
7.65
3.43
0.35
-1.10
-1.20
-0.68
-0.17
0.03
0.00
-0.13
-0.43
-1.16
-2.70
-5.12
-8.00
-10.60
-12.01
-11.68
-9.62
-6.42
-2.96
-0.04
1.84
2.70
2.87
2.82
2.91
3.25
3.80
4.43
5.09
5.81
6.60
7.36
7.81
7.66
6.69
4.99
2.91
0.92
-0.54
-1.26
-1.20
-0.45
0.84
2.47
4.27
5.92
7.12
7.65
7.53
6.98
6.37
6.03
6.06
6.29
6.38
6.01
5.04
3.61
2.03
0.63
-0.37
-1.03
-1.59
-2.35
-3.51
-5.06
-6.77
-8.28
-9.22
-9.35
-8.64
-7.29
-5.60
-3.95
-2.59
-1.66
-1.15
-0.95
-0.94
-1.03
-1.18
-1.34
-1.44
-1.35
-0.91
-0.06
1.12
2.40
3.46
4.00
3.88
3.10
1.84
0.35
-1.08
-2.22
-2.95
-3.32
-3.50
-3.74
-4.19
-4.87
-5.59
-6.10
-6.17
-5.80
-5.16
-4.49
-3.97
-3.71
-3.76
-4.18
-5.05
-6.46
-8.36
-10.53
-12.64
-14.31
-15.27
-15.39
-14.69
-13.35
-11.57
-9.63
-7.81
-6.28
-5.17
-4.45
-4.01
-3.72
-3.41
-2.96
-2.31
-1.40
-0.25
1.01
2.21
3.16
3.77
4.07
4.25
4.57
5.17
6.06
7.04
7.86
8.26
8.20
7.76
7.19
6.66
6.21
5.78
5.20
4.42
3.55
2.77
2.28
2.14
2.23
2.30
2.19
1.84
1.35
0.83
0.33
-0.18
-0.80
-1.60
-2.59
-3.74
-5.04
-6.60
-8.53
-10.91
-13.60
-16.31
-18.65
-20.32
-21.18
-21.26
-20.60
-19.25
-17.20
-14.48
-11.25
-7.77
-4.34
-1.19
1.57
3.97
6.12
8.09
9.92
11.58
12.99
14.10
14.91
15.47
15.88
16.32
16.90
17.67
18.60
19.59
20.51
21.32
22.00
22.52
22.82
22.78
22.33
21.47
20.35
19.27
18.52
18.31
18.67
19.42
20.23
20.70
20.53
19.55
17.82
15.63
13.41
11.61
10.50
10.07
10.06
10.04
9.62
8.56
6.78
4.42
1.66
-1.34
-4.47
-7.62
-10.67
-13.46
-15.88
-17.88
-19.53
-20.95
-22.16
-23.07
-23.49
-23.18
-22.07
-20.22
-17.87
-15.24
-12.53
-9.84
-7.25
-4.85
-2.79
-1.21
-0.11
0.62
1.21
1.89
2.76
3.80
4.89
5.90
6.78
7.53
8.19
8.82
9.40
9.91
10.27
10.46
10.43
10.21
9.85
9.42
9.01
8.66
8.31
7.90
7.29
6.44
5.39
4.26
3.21
2.37
1.80
1.43
1.17
0.92
0.65
0.38
0.18
0.07
0.03
-0.01
-0.16
-0.47
-0.97
-1.64
-2.44
-3.28
-4.09
-4.78
-5.31
-5.74
-6.22
-6.95
-8.08
-9.54
-11.12
-12.41
-13.03
-12.77
-11.64
-9.88
-7.82
-5.72
-3.72
-1.86
-0.09
1.58
3.10
4.37
5.26
5.72
5.76
5.51
5.16
4.92
4.94
5.25
5.74
6.25
6.57
6.62
6.39
5.99
5.54
5.13
4.78
4.51
4.30
4.21
4.30
4.63
5.20
5.94
6.74
7.51
8.23
8.95
9.85
11.02
12.45
13.95
15.21
15.91
15.87
15.07
13.66
11.87
9.86
7.74
5.58
3.44
1.43
-0.42
-2.08
-3.64
-5.13
-6.51
-7.64
-8.23
-8.06
-6.97
-5.01
-2.43
0.41
3.11
5.37
7.02
8.11
8.79
9.31
9.83
10.38
10.86
11.12
11.07
10.74
10.23
9.64
9.05
8.48
7.94
7.48
7.14
6.88
6.56
6.00
5.09
3.83
2.40
1.04
-0.11
-1.02
-1.85
-2.73
-3.74
-4.83
-5.87
-6.74
-7.37
-7.75
-7.93
-7.98
-7.96
-7.97
-8.05
-8.17
-8.22
-8.07
-7.65
-7.06
-6.55
-6.37
-6.68
-7.43
-8.40
-9.34
-10.13
-10.76
-11.24
-11.52
-11.42
-10.77
-9.58
-8.11
-6.78
-5.96
-5.76
-6.00
-6.34
-6.45
-6.19
-5.64
-5.00
-4.45
-4.08
-3.90
-3.92
-4.16
-4.65
-5.37
-6.24
-7.06
-7.61
-7.74
-7.44
-6.91
-6.44
-6.37
-6.95
-8.18
-9.79
-11.36
-12.40
-12.62
-11.97
-10.65
-9.05
-7.52
-6.34
-5.55
-5.03
-4.58
-4.00
-3.23
-2.36
-1.56
-0.99
-0.66
-0.46
-0.20
0.27
0.92
1.56
1.95
1.90
1.40
0.60
-0.30
-1.09
-1.64
-1.94
-2.01
-1.96
-1.93
-2.03
-2.34
-2.83
-3.37
-3.83
-4.11
-4.21
-4.21
-4.11
-3.87
-3.36
-2.46
-1.16
0.49
2.35
4.27
6.17
7.96
9.53
10.76
11.57
11.94
11.97
11.82
11.62
11.36
10.92
10.17
9.06
7.73
6.50
5.73
5.60
6.03
6.67
7.05
6.83
5.97
4.74
3.55
2.71
2.33
2.25
2.25
2.12
1.83
1.41
0.91
0.29
-0.54
-1.62
-2.89
-4.14
-5.13
-5.64
-5.61
-5.15
-4.45
-3.73
-3.09
-2.54
-1.96
-1.20
-0.20
0.98
2.13
2.99
3.40
3.30
2.82
2.10
1.27
0.36
-0.65
-1.76
-2.90
-3.95
-4.78
-5.36
-5.75
-6.08
-6.40
-6.70
-6.87
-6.80
-6.50
-6.10
-5.79
-5.74
-5.97
-6.34
-6.63
-6.63
-6.27
-5.61
-4.89
-4.30
-4.02
-4.05
-4.32
-4.67
-4.97
-5.12
-5.05
-4.77
-4.32
-3.71
-3.01
-2.24
-1.43
-0.59
0.28
1.17
2.01
2.76
3.32
3.66
3.84
3.93
3.99
4.08
4.23
4.40
4.58
4.73
4.76
4.56
4.04
3.16
2.02
0.80
-0.31
-1.21
-1.92
-2.58
-3.30
-4.09
-4.84
-5.35
-5.48
-5.19
-4.60
-3.91
-3.38
-3.18
-3.44
-4.16
-5.16
-6.22
-7.04
-7.40
-7.25
-6.73
-6.12
-5.77
-5.92
-6.60
-7.68
-8.94
-10.15
-11.14
-11.82
-12.11
-11.90
-11.10
-9.68
-7.72
-5.42
-3.03
-0.79
1.19
2.87
4.24
5.31
6.07
6.56
6.93
7.37
8.05
9.06
10.35
11.74
12.98
13.83
14.05
13.46
11.96
9.58
6.47
2.98
-0.51
-3.56
-5.85
-7.19
-7.60
-7.30
-6.60
-5.84
-5.26
-4.89
-4.66
-4.37
-3.90
-3.27
-2.71
-2.53
-3.05
-4.44
-6.64
-9.36
-12.17
-14.60
-16.22
-16.71
-15.91
-13.80
-10.54
-6.45
-1.93
2.59
6.73
10.23
12.95
14.85
15.91
16.16
15.69
14.70
13.47
12.28
11.33
10.69
10.31
10.06
9.86
9.59
9.17
8.52
7.64
6.60
5.62
4.94
4.71
4.91
5.32
5.71
5.95
6.04
6.08
6.12
6.03
5.60
4.68
3.28
1.60
-0.01
-1.32
-2.27
-2.98
-3.60
-4.21
-4.75
-5.06
-5.01
-4.59
-3.92
-3.21
-2.64
-2.27
-2.08
-1.90
-1.56
-0.95
-0.09
0.91
1.84
2.51
2.83
2.78
2.42
1.87
1.22
0.55
-0.06
-0.55
-0.86
-0.98
-0.90
-0.62
-0.19
0.38
0.98
1.45
1.66
1.50
1.04
0.43
-0.12
-0.50
-0.75
-1.00
-1.38
-1.87
-2.31
-2.49
-2.32
-1.94
-1.70
-1.96
-2.86
-4.29
-5.85
-7.14
-7.88
-8.03
-7.71
-7.06
-6.15
-4.94
-3.44
-1.68
0.14
1.88
3.48
5.04
6.74
8.74
11.04
13.48
15.80
17.78
19.32
20.47
21.30
21.86
22.03
21.66
20.60
18.92
16.90
14.98
13.59
13.00
13.16
13.76
14.29
14.23
13.18
10.98
7.72
3.79
-0.29
-3.93
-6.74
-8.55
-9.49
-9.81
-9.71
-9.28
-8.51
-7.43
-6.24
-5.37
-5.32
-6.52
-9.03
-12.60
-16.72
-20.87
-24.65
-27.81
-30.16
-31.44
-31.45
-30.04
-27.31
-23.69
-19.79
-16.22
-13.37
-11.31
-9.93
-9.03
-8.47
-8.13
-7.90
-7.52
-6.77
-5.55
-4.01
-2.51
-1.49
-1.22
-1.62
-2.31
-2.80
-2.70
-1.91
-0.57
1.03
2.70
4.37
6.08
7.89
9.77
11.62
13.27
14.60
15.53
16.02
16.06
15.61
14.67
13.39
12.02
10.94
10.47
10.65
11.29
11.92
12.16
11.75
10.76
9.36
7.75
6.00
4.04
1.80
-0.66
-3.11
-5.27
-6.91
-8.00
-8.72
-9.33
-10.03
-10.84
-11.66
-12.35
-12.87
-13.38
-14.13
-15.41
-17.32
-19.78
-22.52
-25.24
-27.73
-29.90
-31.67
-32.88
-33.28
-32.57
-30.60
-27.50
-23.68
-19.66
-15.85
-12.40
-9.18
-5.92
-2.41
1.36
5.22
8.88
12.09
14.67
16.54
17.69
18.21
18.28
18.11
17.87
17.68
17.57
17.50
17.44
17.37
17.32
17.26
17.12
16.79
16.24
15.55
14.91
14.46
14.20
13.99
13.55
12.70
11.45
9.97
8.55
7.40
6.61
6.12
5.84
5.69
5.63
5.68
5.81
5.93
5.92
5.71
5.32
4.83
4.45
4.35
4.66
5.36
6.31
7.23
7.85
7.94
7.41
6.32
4.90
3.48
2.40
1.92
2.06
2.63
3.28
3.72
3.81
3.71
3.69
3.99
4.61
5.31
5.78
5.84
5.52
5.09
4.80
4.73
4.80
4.81
4.60
4.14
3.52
2.84
2.11
1.28
0.27
-0.97
-2.44
-4.06
-5.75
-7.39
-8.88
-10.14
-11.06
-11.59
-11.73
-11.52
-11.03
-10.38
-9.70
-9.12
-8.72
-8.54
-8.51
-8.59
-8.74
-8.99
-9.40
-10.06
-11.03
-12.41
-14.30
-16.76
-19.70
-22.87
-25.80
-27.95
-28.90
-28.51
-26.93
-24.53
-21.76
-18.98
-16.34
-13.89
-11.56
-9.21
-6.66
-3.80
-0.62
2.74
6.04
9.05
11.64
13.85
15.83
17.68
19.39
20.82
21.79
22.21
22.10
21.54
20.64
19.48
18.12
16.62
15.12
13.77
12.69
11.91
11.35
10.81
10.11
9.13
7.91
6.65
5.65
5.16
5.25
5.74
6.30
6.56
6.31
5.57
4.52
3.40
2.32
1.32
0.40
-0.39
-0.89
-0.91
-0.33
0.74
1.91
2.69
2.60
1.39
-0.84
-3.71
-6.68
-9.24
-11.10
-12.16
-12.50
-12.16
-11.16
-9.49
-7.24
-4.66
-2.17
-0.20
0.94
1.24
0.90
0.24
-0.42
-0.87
-1.05
-0.93
-0.60
-0.24
-0.07
-0.32
-1.07
-2.21
-3.45
-4.50
-5.14
-5.38
-5.38
-5.27
-5.09
-4.78
-4.27
-3.62
-2.96
-2.50
-2.37
-2.54
-2.89
-3.27
-3.53
-3.62
-3.42
-2.89
-1.90
-0.46
1.36
3.35
5.27
6.93
8.26
9.33
10.29
11.33
12.53
13.87
15.20
16.25
16.75
16.48
15.39
13.60
11.38
9.09
7.04
5.45
4.43
3.96
3.95
4.29
4.81
5.38
5.87
6.23
6.44
6.59
6.73
6.93
7.18
7.45
7.68
7.83
7.86
7.73
7.44
6.96
6.34
5.67
5.02
4.47
4.00
3.57
3.07
2.40
1.51
0.38
-0.94
-2.31
-3.52
-4.35
-4.70
-4.67
-4.49
-4.51
-4.95
-5.81
-6.88
-7.85
-8.49
-8.75
-8.78
-8.73
-8.71
-8.70
-8.65
-8.49
-8.25
-7.95
-7.64
-7.38
-7.24
-7.35
-7.82
-8.74
-10.08
-11.68
-13.35
-14.87
-16.07
-16.86
-17.23
-17.21
-16.84
-16.26
-15.57
-14.89
-14.23
-13.54
-12.70
-11.61
-10.23
-8.64
-6.98
-5.41
-4.07
-3.00
-2.15
-1.37
-0.49
0.63
2.03
3.62
5.25
6.71
7.86
8.67
9.17
9.47
9.67
9.86
10.05
10.23
10.38
10.46
10.39
10.13
9.72
9.24
8.86
8.72
8.88
9.28
9.71
9.91
9.58
8.53
6.69
4.17
1.21
-1.83
-4.60
-6.90
-8.68
-10.10
-11.39
-12.68
-13.97
-15.06
-15.62
-15.41
-14.30
-12.39
-9.90
-7.13
-4.32
-1.59
1.06
3.61
5.98
8.05
9.62
10.60
11.02
11.09
11.09
11.29
11.84
12.67
13.61
14.36
14.69
14.47
13.72
12.56
11.18
9.73
8.31
7.04
6.14
5.91
6.69
8.60
11.41
14.49
16.96
18.00
17.06
14.13
9.56
4.01
-1.79
-7.22
-11.79
-15.21
-17.46
-18.69
-19.19
-19.28
-19.19
-19.05
-18.89
-18.75
-18.70
-18.79
-19.00
-19.26
-19.43
-19.42
-19.25
-19.06
-19.02
-19.19
-19.48
-19.62
-19.32
-18.37
-16.72
-14.50
-11.87
-9.04
-6.14
-3.27
-0.53
1.96
4.04
5.61
6.65
7.28
7.70
8.13
8.75
9.60
10.62
11.70
12.71
13.57
14.25
14.70
14.87
14.69
14.12
13.20
12.01
10.75
9.64
8.82
8.34
8.07
7.78
7.20
6.17
4.72
3.04
1.44
0.20
-0.55
-0.93
-1.15
-1.47
-2.03
-2.90
-4.03
-5.36
-6.88
-8.49
-10.07
-11.40
-12.19
-12.23
-11.47
-10.01
-8.08
-5.96
-3.85
-1.86
-0.05
1.59
3.08
4.42
5.63
6.71
7.68
8.51
9.20
9.72
10.03
10.12
10.02
9.81
9.58
9.45
9.41
9.40
9.25
8.82
8.08
7.09
5.99
4.94
4.04
3.31
2.71
2.22
1.82
1.51
1.28
1.10
0.97
0.89
0.89
0.96
1.04
1.06
0.92
0.62
0.19
-0.31
-0.85
-1.42
-2.06
-2.80
-3.62
-4.53
-5.56
-6.73
-8.13
-9.74
-11.51
-13.37
-15.25
-17.09
-18.88
-20.51
-21.86
-22.76
-23.07
-22.80
-22.00
-20.76
-19.15
-17.14
-14.65
-11.70
-8.38
-4.90
-1.53
1.54
4.23
6.58
8.69
10.63
12.46
14.09
15.45
16.49
17.18
17.58
17.76
17.77
17.67
17.45
17.12
16.67
16.08
15.33
14.43
13.37
12.22
11.07
10.09
9.44
9.22
9.37
9.71
9.95
9.83
9.14
7.87
6.17
4.34
2.65
1.28
0.25
-0.53
-1.25
-2.03
-2.95
-3.98
-5.05
-6.08
-6.96
-7.65
-8.16
-8.51
-8.79
-9.07
-9.46
-10.01
-10.70
-11.49
-12.22
-12.72
-12.80
-12.30
-11.21
-9.61
-7.74
-5.82
-3.99
-2.23
-0.38
1.67
3.90
6.11
8.01
9.36
10.12
10.52
10.87
11.47
12.41
13.58
14.74
15.66
16.23
16.50
16.51
16.33
15.98
15.39
14.54
13.43
12.08
10.55
8.88
7.16
5.47
3.88
2.43
1.06
-0.35
-1.92
-3.67
-5.51
-7.20
-8.55
-9.44
-9.94
-10.19
-10.38
-10.60
-10.85
-11.06
-11.15
-11.15
-11.13
-11.22
-11.51
-11.96
-12.46
-12.78
-12.81
-12.51
-12.02
-11.56
-11.34
-11.42
-11.71
-12.00
-12.13
-12.03
-11.72
-11.27
-10.70
-9.94
-8.98
-7.87
-6.80
-6.01
-5.64
-5.67
-5.86
-5.90
-5.48
-4.49
-2.99
-1.23
0.53
2.03
3.13
3.79
4.09
4.11
3.97
3.72
3.40
3.05
2.72
2.52
2.53
2.81
3.32
3.91
4.43
4.71
4.63
4.14
3.24
1.95
0.33
-1.51
-3.34
-4.88
-5.88
-6.23
-6.04
-5.55
-5.07
-4.76
-4.64
-4.68
-4.83
-5.17
-5.77
-6.68
-7.85
-9.16
-10.52
-11.93
-13.47
-15.20
-17.00
-18.54
-19.37
-19.11
-17.61
-15.09
-12.01
-8.89
-6.10
-3.75
-1.68
0.35
2.55
4.91
7.22
9.18
10.56
11.36
11.76
12.10
12.64
13.45
14.36
15.10
15.39
15.12
14.38
13.43
12.52
11.83
11.32
10.86
10.27
9.43
8.35
7.11
5.84
4.69
3.75
3.07
2.64
2.37
2.13
1.77
1.19
0.30
-0.90
-2.35
-3.92
-5.34
-6.29
-6.45
-5.68
-4.17
-2.45
-1.26
-1.21
-2.50
-4.81
-7.41
-9.46
-10.37
-9.97
-8.51
-6.44
-4.22
-2.10
-0.17
1.58
3.19
4.70
6.15
7.59
9.04
10.51
11.92
13.12
13.98
14.41
14.33
13.77
12.80
11.56
10.32
9.31
8.69
8.38
8.12
7.57
6.52
5.08
3.57
2.45
2.02
2.25
2.82
3.25
3.16
2.36
0.95
-0.85
-2.84
-4.89
-6.92
-8.88
-10.72
-12.38
-13.85
-15.24
-16.72
-18.38
-20.19
-21.87
-22.98
-23.09
-21.97
-19.72
-16.74
-13.54
-10.63
-8.27
-6.47
-5.03
-3.63
-2.06
-0.26
1.60
3.28
4.54
5.35
5.85
6.31
6.97
7.90
8.98
10.01
10.86
11.58
12.33
13.26
14.42
15.69
16.89
17.84
18.52
18.98
19.28
19.33
18.98
18.11
16.70
14.93
13.03
11.21
9.57
8.05
6.54
4.94
3.11
0.92
-1.77
-5.13
-9.16
-13.73
-18.49
-22.92
-26.53
-28.92
-29.87
-29.37
-27.60
-24.84
-21.51
-18.02
-14.71
-11.78
-9.24
-7.01
-4.92
-2.91
-0.96
0.89
2.60
4.23
5.93
7.89
10.25
13.00
16.02
19.11
22.15
25.09
28.01
31.03
34.21
37.47
40.62
43.37
45.33
46.21
45.80
44.07
41.09
37.11
32.40
27.27
21.97
16.69
11.57
6.70
2.11
-2.31
-6.73
-11.37
-16.26
-21.21
-25.77
-29.42
-31.69
-32.42
-31.73
-29.93
-27.43
-24.60
-21.78
-19.18
-16.94
-15.02
-13.15
-10.92
-7.99
-4.27
-0.00
4.26
7.96
10.71
12.46
13.32
13.52
13.18
12.41
11.34
10.16
9.16
8.59
8.59
9.09
9.94
10.89
11.77
12.40
12.64
12.39
11.57
10.22
8.47
6.52
4.50
2.46
0.36
-1.86
-4.21
-6.60
-8.79
-10.52
-11.57
-11.81
-11.32
-10.37
-9.31
-8.48
-7.98
-7.67
-7.20
-6.22
-4.57
-2.44
-0.32
1.13
1.37
0.17
-2.29
-5.45
-8.57
-10.90
-12.00
-11.81
-10.67
-9.15
-7.79
-6.84
-6.23
-5.64
-4.78
-3.53
-2.02
-0.48
0.86
1.97
2.94
3.90
4.93
5.93
6.75
7.27
7.48
7.51
7.51
7.61
7.78
7.89
7.75
7.22
6.22
4.83
3.24
1.72
0.47
-0.40
-0.98
-1.48
-2.20
-3.28
-4.71
-6.27
-7.66
-8.65
-9.14
-9.21
-9.04
-8.82
-8.78
-9.08
-9.85
-11.11
-12.76
-14.56
-16.28
-17.74
-18.93
-19.90
-20.68
-21.21
-21.27
-20.65
-19.21
-17.01
-14.23
-11.14
-7.93
-4.69
-1.46
1.75
4.89
7.89
10.62
13.00
14.96
16.51
17.74
18.78
19.73
20.58
21.25
21.58
21.46
20.82
19.76
18.41
16.93
15.43
13.96
12.49
10.95
9.25
7.39
5.46
3.67
2.26
1.41
1.19
1.43
1.85
2.12
1.99
1.36
0.34
-0.80
-1.73
-2.19
-2.18
-1.85
-1.55
-1.56
-1.99
-2.78
-3.68
-4.48
-5.16
-5.83
-6.65
-7.70
-8.83
-9.77
-10.22
-10.08
-9.42
-8.44
-7.38
-6.39
-5.57
-5.02
-4.83
-5.09
-5.70
-6.42
-6.85
-6.60
-5.49
-3.68
-1.56
0.43
1.95
2.89
3.36
3.53
3.54
3.41
3.11
2.60
1.89
1.11
0.48
0.22
0.48
1.29
2.52
3.88
4.99
5.49
5.12
3.79
1.59
-1.19
-4.16
-6.88
-9.00
-10.41
-11.25
-11.85
-12.58
-13.62
-14.88
-16.02
-16.60
-16.26
-14.90
-12.66
-9.87
-6.95
-4.30
-2.24
-0.93
-0.41
-0.53
-1.07
-1.75
-2.38
-2.83
-3.09
-3.08
-2.74
-1.98
-0.86
0.37
1.23
1.18
-0.07
-2.46
-5.47
-8.35
-10.44
-11.43
-11.44
-10.87
-10.12
-9.36
-8.50
-7.27
-5.44
-3.01
-0.24
2.42
4.57
5.95
6.56
6.62
6.47
6.40
6.56
6.93
7.31
7.50
7.42
7.16
6.89
6.80
6.96
7.24
7.38
7.13
6.31
4.95
3.28
1.68
0.49
-0.09
0.01
0.75
2.06
3.85
6.02
8.28
10.20
11.34
11.41
10.54
9.24
8.16
7.76
8.07
8.68
8.96
8.36
6.67
4.03
0.84
-2.41
-5.34
-7.67
-9.28
-10.18
-10.46
-10.27
-9.77
-9.10
-8.41
-7.88
-7.70
-8.01
-8.73
-9.55
-9.96
-9.50
-7.95
-5.51
-2.72
-0.25
1.33
1.77
1.15
-0.26
-2.17
-4.36
-6.66
-8.93
-10.92
-12.29
-12.69
-11.92
-10.02
-7.31
-4.30
-1.53
0.62
1.99
2.71
3.02
3.22
3.48
3.87
4.32
4.67
4.70
4.19
3.01
1.19
-1.08
-3.44
-5.47
-6.89
-7.56
-7.55
-7.05
-6.20
-5.13
-3.90
-2.50
-1.02
0.47
1.90
3.22
4.41
5.42
6.19
6.69
6.93
6.98
6.98
7.03
7.24
7.58
8.01
8.46
8.83
9.03
8.97
8.63
8.06
7.38
6.74
6.23
5.82
5.41
4.87
4.15
3.27
2.32
1.37
0.44
-0.58
-1.79
-3.29
-5.13
-7.26
-9.64
-12.20
-14.85
-17.48
-19.87
-21.78
-22.91
-23.03
-22.14
-20.38
-18.03
-15.42
-12.75
-10.07
-7.30
-4.39
-1.38
1.57
4.27
6.57
8.39
9.73
10.59
10.99
10.99
10.74
10.47
10.41
10.76
11.52
12.59
13.76
14.77
15.43
15.62
15.30
14.53
13.51
12.44
11.53
10.88
10.41
9.96
9.32
8.42
7.33
6.23
5.30
4.68
4.36
4.25
4.16
3.88
3.22
2.10
0.60
-1.08
-2.65
-3.85
-4.56
-4.86
-4.93
-5.06
-5.48
-6.33
-7.65
-9.39
-11.40
-13.49
-15.36
-16.76
-17.45
-17.32
-16.37
-14.73
-12.57
-10.06
-7.31
-4.40
-1.40
1.55
4.27
6.57
8.32
9.56
10.51
11.54
13.01
15.11
17.75
20.57
23.11
24.92
25.72
25.46
24.24
22.25
19.77
17.06
14.39
12.02
10.13
8.81
8.08
7.81
7.89
8.14
8.38
8.38
7.95
6.88
5.11
2.78
0.18
-2.25
-4.03
-4.84
-4.61
-3.56
-2.22
-1.21
-1.07
-2.11
-4.35
-7.48
-10.97
-14.23
-16.72
-18.05
-18.16
-17.22
-15.68
-14.03
-12.70
-11.95
-11.82
-12.23
-13.07
-14.21
-15.43
-16.43
-16.73
-15.89
-13.67
-10.19
-5.97
-1.81
1.52
3.55
4.19
3.79
2.87
1.95
1.33
1.03
0.89
0.71
0.42
0.10
-0.04
0.17
0.72
1.44
2.04
2.33
2.30
2.11
2.01
2.18
2.66
3.29
3.82
4.02
3.73
2.94
1.75
0.39
-0.89
-1.88
-2.43
-2.62
-2.65
-2.80
-3.33
-4.36
-5.85
-7.60
-9.36
-10.83
-11.77
-12.05
-11.64
-10.67
-9.40
-8.12
-7.07
-6.29
-5.66
-4.91
-3.81
-2.27
-0.41
1.58
3.46
5.08
6.37
7.33
7.94
8.23
8.25
8.10
7.97
8.04
8.40
8.98
9.60
9.97
9.87
9.19
7.98
6.47
4.93
3.63
2.72
2.18
1.90
1.69
1.44
1.10
0.70
0.29
-0.09
-0.45
-0.86
-1.37
-2.05
-2.96
-4.15
-5.66
-7.53
-9.71
-12.07
-14.35
-16.23
-17.37
-17.53
-16.68
-14.96
-12.72
-10.35
-8.20
-6.50
-5.28
-4.44
-3.83
-3.29
-2.70
-2.04
-1.32
-0.60
0.03
0.52
0.80
0.79
0.48
-0.10
-0.81
-1.42
-1.70
-1.50
-0.86
0.01
0.82
1.30
1.31
0.88
0.11
-0.87
-1.97
-3.11
-4.24
-5.30
-6.22
-6.98
-7.54
-7.89
-8.05
-7.99
-7.76
-7.48
-7.35
-7.64
-8.50
-9.89
-11.50
-12.86
-13.54
-13.33
-12.32
-10.78
-9.00
-7.10
-5.06
-2.77
-0.26
2.29
4.53
6.16
7.06
7.35
7.35
7.39
7.74
8.50
9.63
11.02
12.45
13.76
14.84
15.66
16.27
16.71
17.06
17.30
17.38
17.25
16.85
16.18
15.23
13.96
12.37
10.50
8.51
6.65
5.16
4.20
3.73
3.54
3.35
2.91
2.08
0.94
-0.34
-1.57
-2.65
-3.56
-4.44
-5.42
-6.60
-8.03
-9.69
-11.52
-13.42
-15.22
-16.67
-17.54
-17.60
-16.76
-15.04
-12.64
-9.76
-6.64
-3.47
-0.43
2.32
4.67
6.52
7.90
8.90
9.62
10.20
10.75
11.30
11.83
12.27
12.51
12.45
12.10
11.52
10.88
10.35
10.05
10.03
10.20
10.41
10.54
10.52
10.34
10.06
9.75
9.45
9.18
8.91
8.53
7.94
7.05
5.79
4.24
2.58
1.02
-0.25
-1.15
-1.72
-2.14
-2.64
-3.39
-4.48
-5.86
-7.38
-8.81
-9.99
-10.79
-11.23
-11.42
-11.58
-11.90
-12.49
-13.30
-14.16
-14.82
-15.07
-14.82
-14.10
-13.03
-11.73
-10.27
-8.70
-7.07
-5.48
-4.11
-3.13
-2.64
-2.55
-2.69
-2.83
-2.82
-2.62
-2.27
-1.83
-1.24
-0.44
0.67
2.08
3.66
5.21
6.54
7.56
8.35
9.02
9.64
10.14
10.40
10.27
9.69
8.74
7.57
6.32
5.08
3.91
2.81
1.82
1.03
0.48
0.21
0.18
0.32
0.55
0.81
1.01
1.07
0.87
0.31
-0.57
-1.62
-2.56
-3.04
-2.85
-1.95
-0.51
1.16
2.74
4.01
4.93
5.58
6.15
6.73
7.39
8.05
8.57
8.83
8.78
8.45
8.00
7.59
7.35
7.34
7.48
7.67
7.75
7.61
7.19
6.54
5.75
4.93
4.22
3.67
3.28
2.98
2.74
2.48
2.14
1.68
1.06
0.26
-0.68
-1.68
-2.67
-3.66
-4.65
-5.65
-6.58
-7.33
-7.77
-7.90
-7.83
-7.80
-8.08
-8.89
-10.35
-12.43
-14.93
-17.49
-19.68
-21.01
-21.15
-20.01
-17.81
-14.99
-12.04
-9.31
-6.93
-4.81
-2.79
-0.74
1.34
3.35
5.14
6.64
7.82
8.78
9.60
10.36
11.05
11.60
11.89
11.88
11.58
11.09
10.56
10.06
9.65
9.26
8.86
8.40
7.92
7.46
7.02
6.54
5.96
5.21
4.34
3.41
2.57
1.85
1.28
0.78
0.29
-0.31
-1.08
-2.05
-3.23
-4.56
-5.96
-7.25
-8.31
-9.06
-9.51
-9.82
-10.19
-10.84
-11.88
-13.28
-14.84
-16.24
-17.09
-17.11
-16.14
-14.21
-11.49
-8.25
-4.79
-1.36
1.86
4.75
7.31
9.58
11.66
13.59
15.41
17.06
18.51
19.75
20.87
21.97
23.19
24.62
26.25
28.00
29.71
31.18
32.28
32.89
32.97
32.53
31.58
30.15
28.31
26.15
23.84
21.55
19.44
17.60
16.01
14.61
13.28
11.98
10.66
9.27
7.65
5.57
2.74
-1.00
-5.58
-10.65
-15.65
-19.98
-23.25
-25.34
-26.40
-26.73
-26.65
-26.40
-26.17
-26.17
-26.60
-27.60
-29.12
-30.84
-32.29
-32.97
-32.58
-31.07
-28.67
-25.71
-22.50
-19.29
-16.21
-13.42
-11.14
-9.65
-9.11
-9.42
-10.11
-10.47
-9.81
-7.79
-4.65
-1.09
2.02
4.13
5.27
6.01
7.04
8.85
11.42
14.34
17.06
19.25
20.85
22.05
23.01
23.67
23.76
22.90
20.84
17.67
13.77
9.72
6.01
2.82
-0.04
-2.97
-6.31
-10.07
-13.82
-16.84
-18.42
-18.22
-16.44
-13.64
-10.55
-7.73
-5.47
-3.86
-2.90
-2.64
-3.05
-4.05
-5.30
-6.33
-6.69
-6.16
-4.83
-3.06
-1.31
0.12
1.09
1.74
2.26
2.81
3.44
4.12
4.77
5.41
6.07
6.86
7.79
8.80
9.72
10.35
10.59
10.44
9.96
9.23
8.26
7.07
5.74
4.49
3.56
3.20
3.46
4.19
5.09
5.82
6.16
6.01
5.38
4.34
2.92
1.22
-0.63
-2.45
-4.05
-5.31
-6.20
-6.76
-7.15
-7.52
-8.06
-8.86
-9.94
-11.18
-12.34
-13.21
-13.66
-13.75
-13.81
-14.26
-15.49
-17.61
-20.39
-23.27
-25.58
-26.73
-26.37
-24.54
-21.57
-17.97
-14.24
-10.73
-7.59
-4.80
-2.27
0.10
2.34
4.47
6.51
8.54
10.64
12.88
15.25
17.62
19.78
21.49
22.57
22.95
22.68
21.90
20.84
19.72
18.74
17.96
17.33
16.69
15.85
14.69
13.26
11.72
10.35
9.41
9.02
9.14
9.56
9.99
10.21
10.12
9.77
9.28
8.78
8.38
8.08
7.87
7.71
7.54
7.30
6.91
6.22
5.10
3.45
1.30
-1.23
-3.92
-6.49
-8.66
-10.19
-11.02
-11.21
-10.98
-10.57
-10.21
-10.00
-9.98
-10.13
-10.44
-10.92
-11.55
-12.22
-12.75
-12.93
-12.64
-11.84
-10.62
-9.16
-7.62
-6.15
-4.83
-3.69
-2.76
-2.06
-1.56
-1.21
-0.91
-0.52
0.09
0.97
2.03
3.08
3.91
4.32
4.25
3.77
3.01
2.16
1.33
0.61
-0.01
-0.60
-1.33
-2.41
-4.00
-6.13
-8.72
-11.52
-14.15
-16.26
-17.45
-17.45
-16.11
-13.51
-9.95
-5.89
-1.80
1.92
5.07
7.67
9.81
11.58
13.07
14.27
15.17
15.79
16.13
16.08
15.55
14.48
12.97
11.30
9.85
8.96
8.72
8.94
9.21
9.14
8.53
7.44
6.12
4.79
3.53
2.28
0.94
-0.52
-1.96
-3.20
-4.08
-4.58
-4.83
-5.06
-5.46
-6.19
-7.31
-8.86
-10.77
-12.84
-14.72
-16.03
-16.43
-15.78
-14.23
-12.06
-9.66
-7.33
-5.28
-3.60
-2.36
-1.58
-1.29
-1.46
-1.91
-2.37
-2.48
-1.95
-0.70
1.09
3.03
4.59
5.46
5.58
5.18
4.63
4.23
4.00
3.76
3.22
2.24
0.83
-0.81
-2.43
-3.90
-5.15
-6.22
-7.12
-7.89
-8.61
-9.42
-10.48
-11.88
-13.62
-15.51
-17.33
-18.86
-20.04
-20.92
-21.63
-22.37
-23.26
-24.35
-25.58
-26.77
-27.60
-27.74
-26.94
-25.15
-22.51
-19.34
-15.99
-12.67
-9.44
-6.22
-2.87
0.66
4.35
8.04
11.52
14.62
17.29
19.58
21.60
23.47
25.25
26.94
28.52
29.95
31.17
32.10
32.61
32.50
31.63
29.97
27.61
24.84
22.06
19.61
17.79
16.71
16.36
16.60
17.23
18.05
18.90
19.72
20.46
21.03
21.32
21.16
20.43
19.08
17.21
14.95
12.51
10.01
7.58
5.31
3.34
1.79
0.79
0.39
0.50
0.97
1.55
1.92
1.77
0.82
-1.03
-3.62
-6.48
-8.94
-10.40
-10.51
-9.33
-7.27
-4.87
-2.58
-0.58
1.20
2.93
4.74
6.59
8.31
9.67
10.44
10.52
9.89
8.60
6.78
4.65
2.46
0.51
-0.97
-1.90
-2.28
-2.26
-2.01
-1.70
-1.47
-1.39
-1.53
-1.96
-2.70
-3.73
-4.89
-5.96
-6.72
-7.02
-6.85
-6.36
-5.76
-5.22
-4.84
-4.56
-4.27
-3.88
-3.41
-3.08
-3.15
-3.85
-5.23
-6.99
-8.63
-9.61
-9.59
-8.58
-6.97
-5.29
-3.96
-3.17
-2.78
-2.52
-2.17
-1.70
-1.27
-1.16
-1.58
-2.61
-4.18
-6.08
-8.03
-9.74
-10.98
-11.63
-11.69
-11.29
-10.60
-9.75
-8.72
-7.45
-5.86
-3.99
-2.03
-0.20
1.29
2.38
3.08
3.45
3.49
3.18
2.56
1.74
0.90
0.14
-0.55
-1.34
-2.45
-3.98
-5.81
-7.67
-9.23
-10.22
-10.56
-10.36
-9.82
-9.12
-8.41
-7.73
-7.05
-6.33
-5.55
-4.81
-4.22
-3.89
-3.82
-3.91
-3.98
-3.92
-3.66
-3.28
-2.83
-2.33
-1.70
-0.84
0.22
1.30
2.00
1.89
0.73
-1.31
-3.68
-5.64
-6.59
-6.30
-5.03
-3.30
-1.70
-0.52
0.24
0.82
1.41
2.07
2.67
3.02
3.07
2.94
2.86
3.01
3.40
3.83
4.02
3.79
3.18
2.44
1.89
1.72
1.94
2.32
2.63
2.69
2.50
2.16
1.85
1.68
1.71
1.93
2.28
2.66
2.95
3.02
2.72
2.00
0.96
-0.22
-1.26
-1.95
-2.19
-2.07
-1.87
-1.92
-2.46
-3.57
-5.08
-6.64
-7.84
-8.32
-7.94
-6.78
-5.11
-3.34
-1.82
-0.80
-0.31
-0.20
-0.21
-0.11
0.21
0.77
1.46
2.21
2.92
3.57
4.09
4.42
4.50
4.36
4.08
3.80
3.65
3.70
3.91
4.16
4.36
4.39
4.21
3.82
3.24
2.54
1.82
1.19
0.68
0.24
-0.24
-0.86
-1.67
-2.66
-3.76
-4.93
-6.12
-7.32
-8.45
-9.44
-10.20
-10.71
-11.00
-11.14
-11.16
-11.00
-10.58
-9.86
-8.93
-7.96
-7.13
-6.48
-5.92
-5.24
-4.31
-3.13
-1.82
-0.52
0.66
1.75
2.80
3.78
4.63
5.20
5.43
5.34
5.10
4.87
4.80
4.89
5.06
5.20
5.24
5.14
4.92
4.66
4.46
4.41
4.55
4.87
5.27
5.60
5.77
5.77
5.68
5.52
5.29
4.82
3.89
2.41
0.48
-1.57
-3.37
-4.58
-5.11
-5.07
-4.64
-4.03
-3.30
-2.41
-1.38
-0.27
0.71
1.30
1.35
0.91
0.23
-0.32
-0.44
-0.00
0.88
1.95
2.93
3.62
3.91
3.74
3.04
1.80
0.14
-1.70
-3.36
-4.58
-5.33
-5.82
-6.36
-7.11
-7.96
-8.56
-8.47
-7.46
-5.54
-2.94
0.03
3.15
6.32
9.49
12.54
15.31
17.55
19.11
19.89
20.04
19.77
19.35
18.96
18.64
18.28
17.74
16.92
15.84
14.62
13.39
12.27
11.25
10.27
9.18
7.87
6.22
4.23
1.95
-0.51
-2.97
-5.27
-7.33
-9.13
-10.73
-12.18
-13.47
-14.53
-15.24
-15.47
-15.16
-14.34
-13.12
-11.62
-9.90
-8.01
-5.89
-3.50
-0.84
1.99
4.78
7.26
9.14
10.22
10.36
9.57
7.95
5.69
3.01
0.13
-2.69
-5.18
-7.12
-8.30
-8.68
-8.36
-7.60
-6.71
-5.99
-5.61
-5.60
-5.84
-6.15
-6.42
-6.56
-6.60
-6.60
-6.63
-6.71
-6.79
-6.77
-6.60
-6.22
-5.67
-5.02
-4.38
-3.79
-3.30
-2.91
-2.62
-2.45
-2.41
-2.51
-2.76
-3.18
-3.80
-4.59
-5.46
-6.25
-6.78
-6.94
-6.80
-6.51
-6.29
-6.21
-6.26
-6.31
-6.26
-6.08
-5.89
-5.89
-6.20
-6.87
-7.80
-8.79
-9.65
-10.16
-10.24
-9.88
-9.18
-8.29
-7.29
-6.14
-4.67
-2.64
0.09
3.49
7.33
11.27
14.99
18.27
21.05
23.37
25.32
26.89
27.96
28.28
27.57
25.62
22.48
18.44
13.99
9.69
6.03
3.34
1.79
1.40
2.08
3.55
5.37
6.95
7.72
7.31
5.73
3.41
1.00
-0.80
-1.50
-0.93
0.71
3.01
5.41
7.42
8.69
9.08
8.65
7.57
6.03
4.17
2.11
-0.13
-2.48
-4.86
-7.22
-9.50
-11.63
-13.52
-15.01
-15.91
-16.01
-15.20
-13.48
-11.02
-8.12
-5.14
-2.49
-0.43
0.94
1.72
2.18
2.54
2.91
3.17
3.06
2.38
1.06
-0.78
-2.93
-5.23
-7.61
-10.01
-12.24
-14.02
-15.10
-15.41
-15.23
-15.01
-15.19
-15.83
-16.62
-17.05
-16.72
-15.61
-14.06
-12.54
-11.34
-10.38
-9.36
-7.95
-6.07
-3.99
-2.09
-0.74
-0.06
0.12
0.15
0.36
0.93
1.84
2.94
4.05
5.14
6.27
7.54
8.94
10.32
11.49
12.22
12.44
12.22
11.72
11.08
10.40
9.67
8.86
7.95
6.98
6.00
5.10
4.36
3.86
3.70
3.88
4.35
4.96
5.52
5.91
6.10
6.09
5.97
5.78
5.49
5.03
4.23
2.96
1.16
-1.12
-3.60
-5.93
-7.78
-9.00
-9.68
-10.08
-10.52
-11.13
-11.85
-12.38
-12.44
-11.83
-10.56
-8.81
-6.79
-4.73
-2.75
-0.92
0.74
2.21
3.45
4.40
4.99
5.19
5.02
4.54
3.83
3.00
2.13
1.31
0.59
0.05
-0.27
-0.32
-0.17
0.09
0.35
0.54
0.62
0.52
0.18
-0.48
-1.48
-2.72
-4.00
-5.12
-6.04
-6.89
-7.91
-9.26
-10.87
-12.39
-13.33
-13.30
-12.19
-10.24
-7.87
-5.54
-3.55
-2.06
-1.08
-0.58
-0.52
-0.72
-1.00
-1.11
-0.87
-0.29
0.45
1.08
1.32
1.09
0.50
-0.14
-0.57
-0.63
-0.40
-0.08
0.10
0.04
-0.17
-0.32
-0.21
0.22
0.86
1.49
1.97
2.29
2.58
3.06
3.85
5.01
6.44
7.99
9.56
11.06
12.44
13.60
14.48
15.03
15.24
15.18
14.93
14.60
14.32
14.22
14.37
14.71
15.05
15.08
14.49
13.16
11.22
9.01
6.93
5.22
3.86
2.64
1.31
-0.22
-1.74
-2.90
-3.36
-2.97
-1.97
-0.89
-0.41
-1.13
-3.27
-6.57
-10.25
-13.32
-14.97
-14.95
-13.75
-12.43
-12.17
-13.71
-17.03
-21.33
-25.32
-27.82
-28.18
-26.65
-24.33
-22.95
-24.44
-30.29
-40.76
-54.30
-67.46
-75.44
-73.49
-58.57
-30.84
6.08
45.92
81.85
108.55
123.79
128.62
126.18
119.93
112.03
102.56
89.99
72.37
48.72
19.74
-12.24
-44.14
-72.99
-96.38
-112.27
-118.65
-113.47
-95.21
-63.92
-22.12
25.09
70.77
107.56
129.36
132.54
116.72
84.74
42.03
-4.38
-46.99
-79.08
-95.94
-95.70
-79.71
-52.13
-18.61
15.31
45.68
70.62
89.79
103.14
109.77
107.60
94.12
67.69
28.72
-19.74
-72.35
-122.39
-162.79
-187.38
-191.77
-174.30
-136.57
-83.37
-22.07
38.58
89.90
124.66
138.24
129.08
98.75
51.62
-5.78
-65.54
-119.26
-159.27
-179.88
-178.47
-156.03
-116.65
-66.31
-11.38
42.53
90.99
130.43
157.83
170.77
167.94
149.76
118.60
78.45
34.09
-9.95
-50.10
-84.15
-110.96
-129.86
-140.06
-140.39
-129.55
-106.79
-72.62
-29.35
19.02
67.47
110.80
144.49
165.31
171.69
163.65
142.54
110.69
70.93
26.23
-20.50
-66.21
-107.50
-140.57
-161.70
-168.08
-158.90
-136.10
-104.17
-69.11
-36.70
-10.78
7.53
19.56
28.10
35.85
44.23
52.93
59.97
62.30
56.62
40.36
12.73
-24.38
-66.21
-106.17
-137.79
-157.04
-163.67
-160.81
-152.86
-142.95
-131.42
-116.18
-94.71
-66.13
-32.15
3.79
38.41
70.00
98.75
125.86
152.14
177.42
200.43
219.15
231.29
234.41
226.12
204.77
170.47
126.04
77.09
30.85
-5.91
-28.99
-37.94
-35.68
-27.03
-16.74
-8.04
-2.11
1.42
3.43
4.38
3.96
1.66
-2.50
-7.54
-11.81
-13.84
-13.23
-10.97
-8.94
-9.10
-12.36
-18.21
-24.98
-30.62
-33.66
-33.68
-31.30
-27.68
-23.95
-20.77
-18.24
-16.10
-13.96
-11.55
-8.80
-5.87
-2.98
-0.41
1.65
3.15
4.18
4.94
5.65
6.48
7.45
8.38
8.96
8.97
8.36
7.33
6.36
5.88
6.18
7.16
8.45
9.58
10.21
10.26
9.88
9.31
8.67
7.95
7.05
5.87
4.50
3.14
2.10
1.57
1.60
2.04
2.57
2.90
2.84
2.40
1.74
1.09
0.63
0.39
0.28
0.18
0.02
-0.28
-0.73
-1.39
-2.33
-3.58
-5.12
-6.77
-8.33
-9.64
-10.70
-11.59
-12.46
-13.41
-14.46
-15.57
-16.66
-17.64
-18.43
-18.90
-18.89
-18.29
-17.10
-15.42
-13.44
-11.36
-9.31
-7.31
-5.36
-3.43
-1.56
0.15
1.61
2.76
3.62
4.25
4.76
5.15
5.44
5.61
5.66
5.64
5.64
5.70
5.83
6.02
6.26
6.57
6.94
7.30
7.51
7.40
6.89
6.05
5.09
4.24
3.66
3.33
3.16
2.98
2.68
2.24
1.66
0.99
0.25
-0.48
-1.07
-1.33
-1.14
-0.47
0.52
1.56
2.38
2.77
2.68
2.14
1.29
0.27
-0.73
-1.55
-2.02
-2.04
-1.62
-0.87
-0.01
0.71
1.01
0.67
-0.49
-2.53
-5.27
-8.33
-11.13
-13.07
-13.73
-13.07
-11.41
-9.29
-7.29
-5.73
-4.67
-3.90
-3.14
-2.22
-1.13
-0.02
0.90
1.50
1.86
2.21
2.80
3.85
5.35
7.06
8.57
9.49
9.58
8.91
7.87
6.98
6.70
7.21
8.34
9.69
10.77
11.32
11.27
10.78
10.04
9.19
8.24
7.14
5.89
4.53
3.15
1.84
0.61
-0.50
-1.48
-2.23
-2.69
-2.86
-2.88
-2.98
-3.36
-4.09
-4.99
-5.82
-6.34
-6.47
-6.38
-6.35
-6.74
-7.81
-9.66
-12.23
-15.26
-18.40
-21.20
-23.21
-24.14
-23.90
-22.61
-20.53
-17.94
-15.11
-12.26
-9.56
-7.15
-5.04
-3.11
-1.12
1.09
3.55
6.07
8.32
9.98
10.87
11.05
10.75
10.23
9.70
9.32
9.12
9.09
9.19
9.28
9.18
8.77
8.02
7.09
6.26
5.80
5.88
6.48
7.40
8.34
9.02
9.27
9.01
8.29
7.16
5.71
4.00
2.11
0.13
-1.87
-3.79
-5.61
-7.33
-8.95
-10.38
-11.49
-12.15
-12.26
-11.87
-11.23
-10.64
-10.36
-10.48
-10.88
-11.31
-11.48
-11.25
-10.64
-9.78
-8.82
-7.83
-6.86
-5.92
-5.14
-4.67
-4.63
-4.98
-5.51
-5.87
-5.82
-5.32
-4.64
-4.17
-4.13
-4.35
-4.31
-3.34
-1.04
2.49
6.66
10.73
14.13
16.64
18.36
19.45
19.99
19.96
19.42
18.59
17.90
17.72
18.09
18.64
18.75
17.86
15.84
13.00
9.95
7.29
5.37
4.16
3.47
3.03
2.72
2.54
2.57
2.84
3.27
3.62
3.62
3.06
1.89
0.28
-1.46
-2.97
-4.04
-4.65
-4.98
-5.31
-5.87
-6.76
-7.96
-9.37
-10.88
-12.48
-14.15
-15.87
-17.52
-18.84
-19.51
-19.25
-17.98
-15.82
-13.10
-10.20
-7.49
-5.12
-3.15
-1.51
-0.17
0.88
1.65
2.19
2.60
2.99
3.45
3.97
4.50
4.98
5.38
5.73
6.01
6.25
6.39
6.44
6.46
6.54
6.75
7.02
7.10
6.69
5.60
3.87
1.83
-0.09
-1.58
-2.55
-3.20
-3.80
-4.51
-5.31
-6.01
-6.50
-6.78
-7.01
-7.31
-7.66
-7.86
-7.62
-6.81
-5.55
-4.20
-3.10
-2.38
-1.90
-1.32
-0.38
0.96
2.46
3.78
4.67
5.10
5.24
5.32
5.43
5.54
5.55
5.42
5.22
5.11
5.25
5.71
6.50
7.57
8.83
10.14
11.28
12.00
12.06
11.37
10.02
8.21
6.19
4.05
1.84
-0.47
-2.84
-5.20
-7.47
-9.66
-11.82
-13.97
-15.98
-17.53
-18.22
-17.70
-15.89
-13.02
-9.50
-5.84
-2.47
0.36
2.57
4.29
5.72
7.10
8.60
10.27
12.06
13.88
15.70
17.56
19.51
21.54
23.48
25.06
25.95
25.95
25.04
23.39
21.29
19.01
16.80
14.77
12.99
11.49
10.25
9.24
8.41
7.73
7.22
6.89
6.73
6.65
6.45
5.97
5.13
3.97
2.67
1.42
0.32
-0.65
-1.58
-2.59
-3.70
-4.89
-6.09
-7.26
-8.48
-9.83
-11.44
-13.31
-15.38
-17.48
-19.43
-21.13
-22.64
-24.10
-25.66
-27.36
-29.06
-30.53
-31.64
-32.47
-33.38
-34.79
-36.99
-39.93
-43.14
-45.93
-47.62
-47.79
-46.42
-43.77
-40.28
-36.26
-31.89
-27.15
-22.01
-16.54
-11.01
-5.81
-1.32
2.28
5.07
7.28
9.21
11.03
12.77
14.37
15.76
16.97
18.06
19.12
20.12
20.98
21.57
21.83
21.78
21.56
21.33
21.17
21.02
20.75
20.20
19.25
17.97
16.54
15.20
14.16
13.43
12.91
12.41
11.71
10.70
9.39
7.82
6.10
4.36
2.78
1.54
0.82
0.65
0.90
1.27
1.42
1.08
0.17
-1.19
-2.78
-4.38
-5.83
-7.03
-7.92
-8.45
-8.65
-8.61
-8.54
-8.72
-9.37
-10.62
-12.41
-14.59
-16.91
-19.14
-21.01
-22.28
-22.77
-22.39
-21.14
-19.17
-16.74
-14.04
-11.26
-8.45
-5.61
-2.75
0.11
2.86
5.43
7.73
9.74
11.43
12.84
14.02
15.03
15.92
16.71
17.38
17.82
17.91
17.60
16.89
15.92
14.87
13.89
13.04
12.33
11.72
11.25
10.96
10.89
11.01
11.15
11.11
10.70
9.90
8.84
7.71
6.67
5.75
4.88
3.95
2.96
2.02
1.29
0.86
0.65
0.42
-0.11
-1.09
-2.48
-4.07
-5.63
-7.01
-8.16
-9.15
-10.03
-10.91
-11.91
-13.20
-14.88
-16.99
-19.28
-21.30
-22.50
-22.45
-20.98
-18.29
-14.81
-11.01
-7.27
-3.81
-0.68
2.08
4.42
6.24
7.44
7.99
7.97
7.58
7.07
6.70
6.57
6.69
6.92
7.10
7.14
7.04
6.88
6.81
6.94
7.36
8.10
9.13
10.34
11.58
12.63
13.28
13.39
12.97
12.14
11.08
9.95
8.83
7.69
6.39
4.79
2.81
0.45
-2.11
-4.61
-6.78
-8.48
-9.76
-10.88
-12.20
-13.97
-16.20
-18.59
-20.64
-21.83
-21.82
-20.55
-18.31
-15.52
-12.59
-9.82
-7.28
-4.86
-2.40
0.16
2.78
5.28
7.47
9.25
10.63
11.70
12.52
13.13
13.50
13.61
13.49
13.23
12.94
12.72
12.61
12.67
12.87
13.17
13.43
13.47
13.11
12.24
10.87
9.17
7.35
5.60
4.03
2.67
1.51
0.53
-0.26
-0.92
-1.55
-2.37
-3.58
-5.27
-7.35
-9.51
-11.33
-12.41
-12.48
-11.51
-9.65
-7.14
-4.23
-1.16
1.85
4.60
6.88
8.53
9.54
9.98
10.06
9.97
9.90
9.91
10.01
10.17
10.37
10.63
10.93
11.30
11.68
12.01
12.23
12.27
12.13
11.84
11.44
10.97
10.45
9.83
9.06
8.11
7.03
5.92
4.94
4.17
3.58
3.04
2.40
1.50
0.31
-1.14
-2.74
-4.37
-5.97
-7.48
-8.93
-10.34
-11.81
-13.41
-15.23
-17.29
-19.50
-21.71
-23.75
-25.52
-27.04
-28.40
-29.81
-31.39
-33.24
-35.32
-37.49
-39.47
-40.94
-41.59
-41.18
-39.66
-37.12
-33.78
-29.86
-25.53
-20.90
-16.01
-10.96
-5.91
-1.05
3.39
7.22
10.35
12.79
14.66
16.16
17.54
19.03
20.76
22.75
24.82
26.72
28.17
29.00
29.18
28.82
28.11
27.27
26.45
25.69
25.01
24.42
23.91
23.50
23.21
23.02
22.80
22.42
21.72
20.64
19.24
17.65
16.03
14.47
12.97
11.50
10.03
8.57
7.12
5.66
4.14
2.53
0.81
-0.92
-2.56
-4.04
-5.35
-6.58
-7.92
-9.50
-11.40
-13.60
-16.02
-18.55
-21.03
-23.34
-25.28
-26.64
-27.17
-26.73
-25.30
-22.97
-19.97
-16.57
-12.96
-9.29
-5.63
-2.07
1.25
4.19
6.63
8.56
10.02
11.13
11.92
12.41
12.58
12.47
12.16
11.82
11.63
11.71
12.01
12.42
12.74
12.82
12.59
12.15
11.68
11.35
11.26
11.34
11.43
11.33
10.97
10.41
9.81
9.28
8.86
8.43
7.85
7.00
5.88
4.57
3.21
1.90
0.65
-0.56
-1.80
-3.07
-4.34
-5.54
-6.60
-7.48
-8.23
-8.86
-9.39
-9.77
-9.95
-9.93
-9.82
-9.84
-10.24
-11.15
-12.45
-13.83
-14.88
-15.26
-14.82
-13.67
-12.05
-10.21
-8.31
-6.38
-4.40
-2.32
-0.19
1.91
3.86
5.57
7.04
8.29
9.34
10.19
10.83
11.20
11.29
11.08
10.60
9.88
9.01
8.17
7.55
7.31
7.48
7.90
8.26
8.26
7.81
7.01
6.18
5.60
5.43
5.57
5.85
6.06
6.08
5.89
5.51
4.96
4.24
3.35
2.32
1.21
0.05
-1.18
-2.47
-3.82
-5.17
-6.40
-7.43
-8.21
-8.76
-9.15
-9.48
-9.83
-10.27
-10.85
-11.59
-12.54
-13.76
-15.28
-17.05
-18.86
-20.35
-21.12
-20.89
-19.58
-17.40
-14.69
-11.80
-8.92
-6.10
-3.30
-0.52
2.18
4.69
6.91
8.77
10.23
11.28
11.89
12.10
12.02
11.84
11.74
11.81
12.04
12.33
12.53
12.59
12.55
12.51
12.57
12.76
13.02
13.24
13.29
13.07
12.59
11.90
11.11
10.27
9.38
8.43
7.41
6.37
5.40
4.63
4.11
3.84
3.77
3.85
4.08
4.49
5.14
6.07
7.28
8.68
10.16
11.56
12.73
13.54
13.97
14.08
14.05
14.04
14.11
14.14
13.87
12.95
11.12
8.27
4.49
0.04
-4.64
-8.99
-12.44
-14.54
-15.05
-14.08
-12.06
-9.61
-7.29
-5.50
-4.35
-3.70
-3.33
-3.12
-3.01
-3.06
-3.36
-3.93
-4.73
-5.61
-6.45
-7.13
-7.64
-8.00
-8.28
-8.54
-8.80
-9.06
-9.33
-9.64
-10.02
-10.54
-11.18
-11.86
-12.39
-12.57
-12.29
-11.60
-10.73
-9.95
-9.46
-9.27
-9.23
-9.13
-8.80
-8.23
-7.53
-6.88
-6.39
-6.12
-6.03
-6.08
-6.22
-6.46
-6.77
-7.10
-7.44
-7.78
-8.19
-8.81
-9.75
-11.07
-12.70
-14.42
-15.99
-17.14
-17.72
-17.66
-17.00
-15.81
-14.16
-12.10
-9.71
-7.08
-4.33
-1.59
0.98
3.26
5.16
6.66
7.79
8.64
9.28
9.75
10.10
10.28
10.34
10.32
10.27
10.25
10.24
10.19
10.06
9.85
9.62
9.46
9.42
9.46
9.49
9.41
9.19
8.90
8.63
8.48
8.48
8.63
8.88
9.20
9.54
9.80
9.93
9.86
9.60
9.16
8.53
7.70
6.53
4.92
2.88
0.54
-1.83
-4.03
-5.96
-7.71
-9.44
-11.32
-13.35
-15.53
-17.80
-20.12
-22.46
-24.71
-26.64
-27.88
-28.06
-26.96
-24.59
-21.25
-17.39
-13.53
-10.08
-7.27
-5.10
-3.43
-2.05
-0.80
0.42
1.61
2.72
3.68
4.48
5.08
5.46
5.66
5.72
5.76
5.89
6.21
6.73
7.40
8.10
8.67
9.02
9.11
8.99
8.87
8.97
9.47
10.42
11.68
12.93
13.85
14.22
13.99
13.21
12.07
10.69
9.18
7.63
6.08
4.61
3.24
1.99
0.83
-0.24
-1.26
-2.28
-3.39
-4.72
-6.42
-8.48
-10.74
-12.84
-14.35
-14.95
-14.53
-13.24
-11.36
-9.18
-6.88
-4.55
-2.22
0.05
2.15
3.94
5.34
6.37
7.14
7.79
8.38
8.96
9.51
10.08
10.75
11.59
12.65
13.84
15.05
16.12
16.93
17.46
17.73
17.79
17.67
17.37
16.88
16.22
15.46
14.61
13.62
12.37
10.72
8.62
6.19
3.72
1.56
-0.09
-1.23
-2.11
-3.04
-4.31
-5.96
-7.88
-9.79
-11.39
-12.47
-12.96
-12.92
-12.56
-12.22
-12.31
-13.15
-14.86
-17.25
-19.84
-22.08
-23.44
-23.68
-22.83
-21.14
-18.97
-16.62
-14.28
-12.09
-10.10
-8.33
-6.82
-5.60
-4.66
-3.92
-3.26
-2.52
-1.58
-0.37
1.05
2.50
3.77
4.64
5.08
5.17
5.10
5.08
5.23
5.57
6.02
6.44
6.73
6.83
6.76
6.62
6.55
6.62
6.85
7.13
7.35
7.36
7.09
6.57
5.90
5.17
4.42
3.58
2.57
1.32
-0.15
-1.78
-3.49
-5.23
-7.00
-8.74
-10.34
-11.58
-12.23
-12.17
-11.43
-10.22
-8.78
-7.27
-5.77
-4.26
-2.74
-1.30
-0.07
0.90
1.63
2.26
2.99
3.89
4.93
5.98
6.86
7.48
7.83
7.98
8.02
8.03
8.01
7.91
7.65
7.17
6.44
5.50
4.46
3.39
2.37
1.43
0.59
-0.11
-0.63
-0.91
-0.94
-0.79
-0.63
-0.61
-0.83
-1.23
-1.68
-1.95
-1.88
-1.37
-0.49
0.64
1.80
2.84
3.61
4.07
4.25
4.19
3.93
3.41
2.60
1.49
0.12
-1.42
-3.03
-4.67
-6.34
-8.01
-9.55
-10.76
-11.46
-11.63
-11.41
-11.08
-10.85
-10.78
-10.79
-10.80
-10.77
-10.74
-10.74
-10.65
-10.22
-9.18
-7.40
-4.95
-2.09
0.82
3.54
5.92
7.94
9.59
10.90
11.96
12.88
13.74
14.49
14.96
14.91
14.15
12.74
10.99
9.36
8.28
7.90
8.06
8.39
8.44
7.97
7.00
5.80
4.69
3.94
3.56
3.36
3.02
2.31
1.10
-0.51
-2.32
-4.08
-5.60
-6.82
-7.76
-8.43
-8.82
-8.86
-8.45
-7.51
-6.09
-4.33
-2.44
-0.60
1.06
2.50
3.73
4.76
5.65
6.45
7.27
8.20
9.30
10.47
11.56
12.29
12.50
12.15
11.31
10.14
8.76
7.26
5.61
3.83
1.96
0.08
-1.68
-3.25
-4.58
-5.65
-6.45
-6.93
-7.04
-6.78
-6.27
-5.66
-5.13
-4.75
-4.46
-4.07
-3.50
-2.77
-2.12
-1.84
-2.08
-2.74
-3.49
-3.93
-3.82
-3.26
-2.58
-2.18
-2.31
-2.93
-3.69
-4.24
-4.30
-3.87
-3.18
-2.59
-2.37
-2.69
-3.48
-4.55
-5.65
-6.63
-7.47
-8.27
-9.12
-10.01
-10.77
-11.11
-10.82
-9.85
-8.43
-6.93
-5.73
-4.99
-4.65
-4.50
-4.31
-3.94
-3.34
-2.47
-1.29
0.27
2.15
4.24
6.22
7.80
8.80
9.29
9.51
9.78
10.29
10.95
11.44
11.34
10.28
8.18
5.19
1.73
-1.75
-4.81
-7.15
-8.58
-9.06
-8.69
-7.70
-6.46
-5.34
-4.60
-4.34
-4.41
-4.52
-4.41
-3.92
-3.11
-2.14
-1.22
-0.45
0.19
0.77
1.38
1.98
2.48
2.79
2.83
2.65
2.35
2.04
1.79
1.57
1.28
0.81
0.10
-0.76
-1.63
-2.34
-2.80
-3.03
-3.15
-3.29
-3.51
-3.79
-4.01
-4.08
-3.97
-3.69
-3.29
-2.78
-2.19
-1.59
-1.14
-1.04
-1.50
-2.60
-4.20
-6.02
-7.73
-9.13
-10.17
-10.93
-11.50
-11.86
-11.85
-11.26
-9.96
-8.01
-5.64
-3.19
-0.96
0.86
2.31
3.50
4.58
5.57
6.35
6.69
6.46
5.73
4.78
4.02
3.71
3.86
4.22
4.37
4.04
3.17
1.98
0.79
-0.07
-0.42
-0.25
0.41
1.45
2.73
4.05
5.21
6.00
6.31
6.22
5.91
5.56
5.32
5.16
4.93
4.44
3.49
2.03
0.08
-2.23
-4.73
-7.24
-9.61
-11.72
-13.51
-14.97
-16.20
-17.31
-18.41
-19.52
-20.58
-21.38
-21.71
-21.40
-20.40
-18.78
-16.70
-14.36
-12.01
-9.91
-8.27
-7.17
-6.57
-6.20
-5.71
-4.76
-3.08
-0.57
2.77
6.83
11.48
16.49
21.56
26.31
30.35
33.34
35.14
35.78
35.50
34.63
33.45
32.21
30.93
29.51
27.76
25.48
22.66
19.41
16.02
12.80
9.97
7.56
5.42
3.39
1.36
-0.61
-2.38
-3.77
-4.73
-5.34
-5.79
-6.24
-6.74
-7.23
-7.59
-7.74
-7.70
-7.60
-7.64
-7.95
-8.52
-9.25
-9.89
-10.22
-10.11
-9.53
-8.55
-7.33
-6.03
-4.81
-3.82
-3.14
-2.76
-2.58
-2.39
-1.96
-1.20
-0.13
0.98
1.85
2.20
1.97
1.27
0.43
-0.23
-0.45
-0.16
0.52
1.26
1.65
1.31
-0.00
-2.34
-5.52
-9.16
-12.78
-15.89
-18.15
-19.42
-19.68
-19.06
-17.74
-15.85
-13.65
-11.39
-9.41
-7.95
-7.13
-6.86
-6.82
-6.67
-6.19
-5.40
-4.53
-3.87
-3.71
-4.18
-5.39
-7.36
-10.07
-13.33
-16.70
-19.55
-21.24
-21.28
-19.64
-16.69
-13.11
-9.57
-6.58
-4.34
-2.77
-1.68
-0.87
-0.15
0.60
1.44
2.38
3.41
4.44
5.44
6.43
7.43
8.49
9.65
10.85
12.01
13.00
13.75
14.24
14.51
14.65
14.73
14.78
14.79
14.77
14.70
14.64
14.63
14.70
14.84
14.92
14.77
14.23
13.23
11.81
10.15
8.48
6.91
5.51
4.23
3.00
1.80
0.70
-0.22
-0.93
-1.46
-1.95
-2.55
-3.35
-4.26
-5.11
-5.60
-5.55
-4.88
-3.70
-2.22
-0.67
0.82
2.21
3.54
4.83
6.01
6.95
7.55
7.84
7.99
8.27
8.86
9.82
11.02
12.22
13.17
13.70
13.75
13.31
12.46
11.27
9.78
8.02
5.97
3.64
1.06
-1.57
-3.98
-5.78
-6.66
-6.47
-5.34
-3.66
-1.96
-0.76
-0.44
-1.11
-2.58
-4.44
-6.19
-7.43
-8.04
-8.18
-8.18
-8.34
-8.85
-9.66
-10.57
-11.39
-11.94
-12.17
-12.05
-11.61
-10.85
-9.81
-8.52
-7.06
-5.52
-3.90
-2.21
-0.45
1.37
3.13
4.69
5.88
6.56
6.63
6.13
5.17
4.04
3.01
2.33
2.04
1.98
1.88
1.46
0.63
-0.47
-1.55
-2.28
-2.53
-2.36
-1.98
-1.61
-1.37
-1.22
-1.04
-0.75
-0.30
0.24
0.89
1.68
2.73
4.08
5.78
7.67
9.50
10.95
11.68
11.44
10.17
8.00
5.29
2.48
0.02
-1.83
-3.02
-3.69
-4.07
-4.32
-4.49
-4.54
-4.45
-4.24
-4.03
-3.97
-4.12
-4.44
-4.78
-4.94
-4.79
-4.30
-3.56
-2.73
-1.98
-1.42
-1.10
-1.02
-1.14
-1.38
-1.65
-1.85
-1.86
-1.67
-1.30
-0.90
-0.64
-0.74
-1.30
-2.29
-3.50
-4.64
-5.39
-5.58
-5.20
-4.43
-3.52
-2.67
-2.02
-1.59
-1.34
-1.21
-1.11
-0.95
-0.65
-0.17
0.44
1.04
1.43
1.41
0.86
-0.18
-1.49
-2.81
-3.80
-4.18
-3.81
-2.72
-1.12
0.61
2.03
2.81
2.81
2.21
1.35
0.64
0.35
0.60
1.33
2.38
3.61
4.86
5.99
6.85
7.35
7.49
7.40
7.24
7.18
7.24
7.33
7.36
7.27
7.07
6.81
6.44
5.85
4.88
3.46
1.65
-0.33
-2.23
-3.87
-5.18
-6.16
-6.90
-7.42
-7.75
-7.87
-7.77
-7.49
-7.02
-6.42
-5.80
-5.32
-5.17
-5.51
-6.34
-7.45
-8.52
-9.20
-9.34
-9.00
-8.44
-7.98
-7.85
-8.11
-8.68
-9.39
-10.07
-10.58
-10.82
-10.78
-10.44
-9.86
-9.11
-8.31
-7.53
-6.84
-6.24
-5.70
-5.09
-4.29
-3.18
-1.76
-0.12
1.53
2.95
3.93
4.42
4.45
4.14
3.63
3.02
2.39
1.82
1.35
0.96
0.56
0.08
-0.54
-1.26
-1.99
-2.67
-3.28
-3.92
-4.62
-5.41
-6.16
-6.74
-7.02
-6.98
-6.70
-6.23
-5.65
-4.98
-4.33
-3.85
-3.82
-4.51
-6.02
-8.21
-10.76
-13.20
-15.11
-16.23
-16.51
-16.04
-15.00
-13.54
-11.75
-9.65
-7.23
-4.53
-1.64
1.26
3.94
6.23
8.07
9.53
10.79
12.03
13.32
14.58
15.63
16.26
16.33
15.84
14.91
13.78
12.67
11.78
11.23
11.04
11.20
11.63
12.25
12.93
13.52
13.84
13.74
13.15
12.15
10.90
9.69
8.78
8.34
8.38
8.72
9.03
8.90
8.05
6.37
4.10
1.71
-0.27
-1.39
-1.49
-0.68
0.70
2.31
3.93
5.44
6.84
8.14
9.34
10.44
11.47
12.47
13.40
14.20
14.80
15.19
15.45
15.77
16.32
17.11
17.99
18.64
18.79
18.25
17.02
15.25
13.14
10.90
8.63
6.46
4.47
2.74
1.22
-0.21
-1.78
-3.67
-5.97
-8.61
-11.42
-14.22
-16.82
-19.09
-20.85
-21.85
-21.82
-20.65
-18.47
-15.71
-12.97
-10.77
-9.33
-8.47
-7.71
-6.57
-4.75
-2.32
0.36
2.75
4.31
4.61
3.42
0.84
-2.78
-6.79
-10.44
-13.12
-14.51
-14.68
-14.00
-12.95
-11.87
-10.87
-9.88
-8.72
-7.33
-5.84
-4.50
-3.62
-3.39
-3.72
-4.30
-4.67
-4.37
-3.27
-1.52
0.47
2.22
3.43
4.04
4.19
4.05
3.70
3.11
2.22
1.06
-0.16
-1.12
-1.56
-1.43
-0.88
-0.23
0.22
0.33
0.21
0.08
0.23
0.84
1.97
3.55
5.39
7.26
8.87
9.92
10.20
9.64
8.40
6.79
5.14
3.63
2.21
0.64
-1.34
-3.78
-6.45
-8.83
-10.38
-10.75
-10.00
-8.52
-6.84
-5.42
-4.44
-3.75
-3.10
-2.23
-1.03
0.48
2.20
4.06
6.01
7.99
9.90
11.61
12.97
13.86
14.18
13.87
12.85
11.04
8.39
4.93
0.78
-3.82
-8.51
-12.92
-16.63
-19.35
-20.97
-21.60
-21.55
-21.25
-21.07
-21.23
-21.73
-22.40
-23.00
-23.32
-23.24
-22.77
-22.04
-21.19
-20.35
-19.56
-18.79
-17.96
-16.98
-15.82
-14.51
-13.17
-11.91
-10.88
-10.12
-9.60
-9.19
-8.67
-7.74
-6.15
-3.73
-0.50
3.33
7.43
11.39
14.93
17.93
20.51
22.82
25.04
27.17
29.07
30.53
31.44
31.87
32.04
32.17
32.35
32.43
32.17
31.35
29.93
28.07
26.05
24.14
22.48
21.10
19.97
19.07
18.33
17.68
16.96
15.94
14.47
12.46
10.01
7.35
4.75
2.52
0.86
-0.15
-0.61
-0.86
-1.34
-2.49
-4.57
-7.44
-10.62
-13.41
-15.11
-15.29
-13.84
-11.04
-7.43
-3.67
-0.41
1.91
3.21
3.79
4.21
5.08
6.77
9.34
12.50
15.81
18.81
21.15
22.60
22.99
22.24
20.42
17.76
14.67
11.64
9.08
7.19
5.97
5.23
4.78
4.40
4.00
3.48
2.80
1.91
0.87
-0.19
-1.08
-1.58
-1.57
-1.06
-0.18
0.81
1.69
2.26
2.48
2.37
2.00
1.42
0.61
-0.47
-1.89
-3.69
-5.83
-8.22
-10.72
-13.18
-15.53
-17.71
-19.70
-21.43
-22.77
-23.61
-23.83
-23.43
-22.53
-21.33
-20.03
-18.84
-17.92
-17.38
-17.26
-17.49
-17.87
-18.07
-17.80
-16.84
-15.20
-13.05
-10.67
-8.31
-6.11
-4.10
-2.28
-0.67
0.65
1.56
2.04
2.19
2.23
2.37
2.75
3.34
3.95
4.39
4.47
4.12
3.29
1.98
0.17
-2.10
-4.69
-7.33
-9.68
-11.45
-12.47
-12.73
-12.41
-11.71
-10.77
-9.65
-8.30
-6.59
-4.51
-2.14
0.28
2.40
3.96
4.79
4.99
4.83
4.63
4.60
4.80
5.11
5.37
5.46
5.37
5.22
5.14
5.20
5.35
5.44
5.27
4.73
3.81
2.64
1.36
0.12
-0.95
-1.80
-2.38
-2.66
-2.65
-2.36
-1.83
-1.10
-0.17
0.96
2.25
3.62
4.83
5.65
5.85
5.37
4.34
3.04
1.73
0.63
-0.20
-0.81
-1.24
-1.47
-1.40
-0.89
0.16
1.72
3.60
5.49
7.03
7.96
8.16
7.76
7.03
6.35
5.92
5.75
5.66
5.38
4.73
3.79
2.81
2.12
1.98
2.45
3.37
4.47
5.44
6.02
6.02
5.34
4.02
2.24
0.31
-1.43
-2.71
-3.46
-3.84
-4.10
-4.53
-5.28
-6.36
-7.61
-8.84
-9.90
-10.77
-11.47
-12.03
-12.43
-12.59
-12.41
-11.86
-11.01
-10.03
-9.10
-8.41
-8.10
-8.22
-8.72
-9.40
-9.95
-10.02
-9.30
-7.66
-5.21
-2.23
0.95
4.06
6.97
9.62
11.99
14.07
15.81
17.20
18.26
19.00
19.43
19.48
19.09
18.19
16.78
14.88
12.57
9.90
6.86
3.52
-0.03
-3.59
-6.91
-9.79
-12.12
-13.95
-15.42
-16.78
-18.23
-19.94
-22.01
-24.38
-26.90
-29.28
-31.23
-32.51
-33.03
-32.95
-32.64
-32.57
-33.07
-34.22
-35.69
-36.88
-37.11
-35.86
-32.97
-28.65
-23.43
-17.85
-12.35
-7.14
-2.28
2.23
6.40
10.14
13.35
15.97
18.05
19.71
21.16
22.54
23.94
25.34
26.62
27.63
28.19
28.21
27.70
26.80
25.71
24.62
23.66
22.85
22.12
21.42
20.75
20.18
19.80
19.60
19.47
19.20
18.59
17.56
16.25
14.95
13.93
13.29
12.94
12.60
11.98
10.89
9.34
7.49
5.55
3.70
2.06
0.73
-0.28
-0.98
-1.54
-2.26
-3.51
-5.57
-8.41
-11.65
-14.62
-16.66
-17.32
-16.58
-14.79
-12.48
-10.13
-7.98
-6.03
-4.16
-2.24
-0.22
1.85
3.91
5.89
7.78
9.58
11.32
13.05
14.79
16.54
18.23
19.77
21.03
21.90
22.37
22.48
22.36
22.08
21.63
20.89
19.67
17.81
15.34
12.50
9.74
7.52
6.20
5.84
6.25
7.09
7.98
8.70
9.10
9.11
8.73
8.00
7.05
6.13
5.53
5.46
5.91
6.62
7.18
7.18
6.39
4.82
2.71
0.40
-1.74
-3.46
-4.60
-5.20
-5.48
-5.73
-6.22
-7.08
-8.24
-9.46
-10.39
-10.76
-10.43
-9.46
-8.06
-6.52
-5.06
-3.81
-2.73
-1.71
-0.68
0.35
1.20
1.62
1.47
0.74
-0.35
-1.53
-2.60
-3.54
-4.46
-5.50
-6.69
-7.95
-9.12
-10.08
-10.85
-11.52
-12.15
-12.75
-13.24
-13.50
-13.54
-13.50
-13.60
-14.03
-14.90
-16.14
-17.56
-18.98
-20.29
-21.42
-22.39
-23.19
-23.74
-23.91
-23.63
-22.88
-21.81
-20.62
-19.49
-18.52
-17.70
-17.00
-16.35
-15.73
-15.13
-14.50
-13.73
-12.76
-11.53
-10.06
-8.40
-6.58
-4.59
-2.36
0.14
2.85
5.61
8.15
10.27
11.84
12.92
13.64
14.17
14.60
14.90
15.00
14.85
14.43
13.82
13.09
12.28
11.34
10.23
8.94
7.59
6.35
5.39
4.78
4.49
4.38
4.36
4.35
4.32
4.20
3.93
3.45
2.80
2.17
1.75
1.67
1.84
2.03
1.97
1.52
0.76
-0.09
-0.78
-1.23
-1.53
-1.90
-2.63
-3.91
-5.80
-8.23
-10.94
-13.59
-15.82
-17.32
-17.97
-17.81
-17.09
-16.10
-15.07
-14.08
-13.10
-11.98
-10.57
-8.74
-6.51
-4.02
-1.47
0.93
3.05
4.88
6.52
8.05
9.49
10.75
11.72
12.41
13.03
13.96
15.58
18.09
21.33
24.84
27.96
30.11
30.90
30.24
28.29
25.34
21.73
17.76
13.66
9.64
5.90
2.66
0.08
-1.75
-2.85
-3.36
-3.54
-3.67
-4.00
-4.71
-5.89
-7.56
-9.64
-11.95
-14.19
-16.03
-17.15
-17.35
-16.61
-15.07
-12.90
-10.34
-7.61
-4.85
-2.18
0.35
2.71
4.86
6.70
8.00
8.52
8.07
6.65
4.48
1.93
-0.65
-3.09
-5.31
-7.29
-8.86
-9.70
-9.52
-8.23
-6.12
-3.70
-1.53
0.12
1.27
2.14
2.89
3.40
3.37
2.53
0.88
-1.13
-2.82
-3.54
-3.06
-1.62
0.17
1.70
2.60
2.93
3.01
3.21
3.67
4.32
4.92
5.33
5.64
6.13
7.08
8.56
10.36
12.10
13.43
14.22
14.59
14.85
15.28
16.03
17.02
18.04
18.81
19.12
18.88
18.15
17.17
16.24
15.67
15.64
16.13
16.89
17.61
17.99
17.92
17.48
16.91
16.41
16.08
15.84
15.52
15.02
14.33
13.62
13.07
12.78
12.63
12.37
11.69
10.34
8.32
5.75
2.87
-0.11
-2.98
-5.58
-7.74
-9.32
-10.23
-10.56
-10.53
-10.43
-10.47
-10.77
-11.30
-11.97
-12.70
-13.42
-14.04
-14.48
-14.58
-14.27
-13.52
-12.44
-11.25
-10.18
-9.47
-9.26
-9.60
-10.43
-11.57
-12.83
-14.00
-14.96
-15.68
-16.20
-16.53
-16.61
-16.37
-15.74
-14.70
-13.33
-11.80
-10.28
-8.92
-7.81
-6.97
-6.33
-5.84
-5.47
-5.23
-5.17
-5.31
-5.59
-5.88
-6.00
-5.84
-5.42
-4.92
-4.56
-4.53
-4.87
-5.45
-6.04
-6.39
-6.34
-5.80
-4.83
-3.61
-2.42
-1.61
-1.46
-2.11
-3.43
-5.05
-6.47
-7.22
-7.11
-6.21
-4.87
-3.52
-2.48
-1.93
-1.84
-2.05
-2.40
-2.77
-3.09
-3.25
-3.11
-2.53
-1.41
0.13
1.85
3.41
4.55
5.17
5.39
5.40
5.41
5.50
5.59
5.53
5.16
4.41
3.34
2.09
0.89
-0.05
-0.61
-0.76
-0.50
0.09
0.93
1.93
2.96
3.89
4.58
4.96
5.06
4.94
4.65
4.16
3.32
2.03
0.27
-1.83
-3.98
-5.85
-7.23
-8.02
-8.20
-7.79
-6.75
-5.03
-2.63
0.25
3.27
6.05
8.28
9.86
10.87
11.50
12.03
12.68
13.59
14.77
16.18
17.62
18.86
19.72
20.03
19.77
18.99
17.76
16.19
14.38
12.44
10.52
8.77
7.29
6.08
5.04
4.00
2.80
1.31
-0.47
-2.44
-4.44
-6.34
-8.03
-9.49
-10.70
-11.68
-12.42
-12.92
-13.31
-13.80
-14.66
-16.00
-17.68
-19.28
-20.27
-20.30
-19.35
-17.79
-16.11
-14.70
-13.58
-12.46
-10.95
-8.85
-6.28
-3.63
-1.38
0.18
0.99
1.23
1.16
0.98
0.79
0.58
0.33
0.06
-0.15
-0.23
-0.12
0.16
0.52
0.84
1.02
1.07
1.05
1.06
1.22
1.53
1.92
2.25
2.42
2.40
2.28
2.19
2.27
2.51
2.77
2.79
2.31
1.22
-0.47
-2.62
-5.07
-7.71
-10.45
-13.13
-15.50
-17.20
-17.89
-17.44
-16.00
-13.95
-11.79
-9.83
-8.16
-6.60
-4.89
-2.90
-0.69
1.48
3.29
4.47
4.93
4.80
4.34
3.92
3.86
4.32
5.26
6.41
7.41
7.89
7.69
6.86
5.69
4.54
3.77
3.58
3.99
4.91
6.18
7.64
9.17
10.65
12.02
13.21
14.11
14.62
14.70
14.39
13.80
13.05
12.16
11.04
9.57
7.69
5.52
3.33
1.38
-0.16
-1.35
-2.37
-3.31
-4.08
-4.42
-4.07
-2.92
-1.20
0.67
2.29
3.45
4.21
4.89
5.81
7.15
8.87
10.76
12.53
13.98
14.98
15.54
15.70
15.50
14.97
14.14
13.06
11.84
10.60
9.41
8.30
7.24
6.20
5.19
4.25
3.35
2.36
1.00
-1.01
-3.87
-7.50
-11.55
-15.45
-18.61
-20.67
-21.57
-21.56
-21.07
-20.49
-20.10
-19.95
-20.00
-20.19
-20.47
-20.84
-21.29
-21.72
-21.96
-21.91
-21.53
-20.96
-20.36
-19.88
-19.50
-19.09
-18.46
-17.47
-16.11
-14.42
-12.51
-10.48
-8.38
-6.27
-4.21
-2.31
-0.68
0.62
1.58
2.30
2.92
3.57
4.29
5.00
5.54
5.76
5.62
5.23
4.85
4.73
5.02
5.70
6.64
7.63
8.55
9.28
9.78
10.00
9.88
9.45
8.79
8.02
7.24
6.46
5.62
4.71
3.76
2.90
2.30
1.97
1.79
1.53
0.96
-0.07
-1.55
-3.41
-5.56
-7.93
-10.38
-12.69
-14.52
-15.53
-15.57
-14.74
-13.44
-12.20
-11.45
-11.35
-11.74
-12.24
-12.47
-12.24
-11.54
-10.54
-9.41
-8.24
-7.04
-5.77
-4.39
-2.90
-1.32
0.33
2.07
3.88
5.67
7.33
8.70
9.70
10.34
10.73
11.02
11.32
11.67
12.06
12.47
12.87
13.29
13.71
14.12
14.48
14.77
14.99
15.22
15.48
15.74
15.86
15.67
15.03
13.96
12.56
11.04
9.52
8.03
6.42
4.46
2.00
-0.91
-3.97
-6.73
-8.75
-9.78
-9.82
-9.15
-8.10
-6.93
-5.73
-4.43
-2.96
-1.33
0.32
1.79
2.93
3.75
4.40
5.05
5.81
6.60
7.34
7.88
8.22
8.48
8.81
9.33
10.10
11.08
12.19
13.33
14.37
15.16
15.59
15.55
15.02
14.04
12.78
11.41
10.10
8.98
8.12
7.58
7.31
7.25
7.35
7.56
7.94
8.57
9.53
10.76
12.08
13.19
13.76
13.60
12.69
11.21
9.37
7.36
5.30
3.24
1.22
-0.66
-2.20
-3.20
-3.54
-3.25
-2.56
-1.76
-1.14
-0.83
-0.82
-0.96
-1.09
-1.10
-0.94
-0.60
-0.14
0.40
0.94
1.44
1.87
2.20
2.40
2.44
2.26
1.80
1.02
-0.10
-1.45
-2.90
-4.36
-5.75
-7.11
-8.44
-9.74
-10.94
-11.96
-12.75
-13.29
-13.58
-13.63
-13.41
-12.85
-11.91
-10.63
-9.11
-7.50
-6.01
-4.77
-3.85
-3.29
-3.04
-3.03
-3.18
-3.40
-3.59
-3.68
-3.59
-3.28
-2.69
-1.73
-0.29
1.66
4.09
6.80
9.54
12.09
14.30
16.16
17.67
18.76
19.19
18.67
17.07
14.53
11.57
8.81
6.76
5.55
4.92
4.46
3.82
2.92
1.84
0.73
-0.35
-1.53
-2.97
-4.76
-6.85
-9.08
-11.27
-13.28
-15.00
-16.41
-17.51
-18.32
-18.86
-19.17
-19.28
-19.26
-19.18
-19.13
-19.19
-19.39
-19.67
-19.84
-19.64
-18.86
-17.37
-15.23
-12.68
-9.99
-7.35
-4.78
-2.19
0.55
3.46
6.39
9.04
11.08
12.26
12.56
12.15
11.35
10.43
9.59
8.86
8.23
7.66
7.09
6.48
5.69
4.58
2.99
0.87
-1.69
-4.46
-7.21
-9.70
-11.82
-13.52
-14.77
-15.55
-15.87
-15.82
-15.53
-15.27
-15.31
-15.90
-17.17
-19.06
-21.31
-23.43
-24.86
-25.15
-24.06
-21.74
-18.62
-15.24
-12.08
-9.39
-7.16
-5.27
-3.55
-1.93
-0.42
0.95
2.17
3.26
4.25
5.13
5.81
6.13
5.95
5.26
4.21
3.08
2.16
1.57
1.19
0.76
0.04
-1.01
-2.15
-3.04
-3.33
-2.97
-2.13
-1.13
-0.25
0.40
0.89
1.31
1.67
1.92
1.94
1.69
1.24
0.80
0.56
0.58
0.77
0.87
0.60
-0.22
-1.57
-3.23
-4.83
-5.98
-6.37
-5.82
-4.32
-2.02
0.82
3.85
6.75
9.25
11.22
12.63
13.52
13.94
13.94
13.58
13.02
12.45
12.04
11.88
11.93
12.04
12.06
11.91
11.64
11.31
10.98
10.62
10.19
9.64
9.00
8.31
7.58
6.77
5.86
4.86
3.92
3.23
2.93
3.07
3.53
4.14
4.72
5.17
5.43
5.50
5.33
4.87
4.14
3.17
2.02
0.73
-0.76
-2.54
-4.69
-7.21
-9.92
-12.55
-14.78
-16.31
-16.95
-16.67
-15.61
-14.05
-12.33
-10.76
-9.44
-8.28
-7.01
-5.34
-3.14
-0.53
2.19
4.68
6.69
8.18
9.26
10.08
10.74
11.27
11.67
12.00
12.29
12.60
12.92
13.15
13.18
12.96
12.49
11.74
10.72
9.39
7.77
5.98
4.32
3.09
2.48
2.48
2.78
2.99
2.77
2.06
1.01
-0.06
-0.87
-1.29
-1.39
-1.32
-1.29
-1.39
-1.69
-2.22
-3.01
-4.08
-5.36
-6.61
-7.47
-7.60
-6.81
-5.22
-3.19
-1.17
0.42
1.39
1.77
1.74
1.57
1.48
1.67
2.26
3.29
4.72
6.43
8.21
9.86
11.25
12.27
12.94
13.29
13.40
13.38
13.27
13.09
12.83
12.38
11.63
10.47
8.85
6.86
4.65
2.40
0.28
-1.65
-3.39
-4.96
-6.40
-7.68
-8.80
-9.77
-10.63
-11.38
-12.01
-12.47
-12.72
-12.77
-12.72
-12.73
-12.85
-13.02
-13.01
-12.58
-11.54
-9.92
-7.98
-6.06
-4.47
-3.32
-2.57
-2.03
-1.55
-1.03
-0.49
0.02
0.46
0.86
1.27
1.72
2.25
2.84
3.50
4.22
5.00
5.78
6.46
6.88
6.95
6.62
5.98
5.17
4.34
3.64
3.11
2.73
2.43
2.12
1.76
1.38
1.05
0.82
0.68
0.52
0.16
-0.54
-1.68
-3.25
-5.15
-7.24
-9.27
-10.97
-12.01
-12.14
-11.26
-9.48
-7.10
-4.54
-2.14
-0.05
1.72
3.32
4.85
6.36
7.76
8.94
9.81
10.38
10.78
11.14
11.58
12.15
12.83
13.55
14.21
14.70
14.87
14.60
13.82
12.58
11.05
9.47
8.09
6.99
6.16
5.45
4.75
3.96
3.07
2.11
1.07
-0.05
-1.30
-2.67
-4.14
-5.71
-7.37
-9.13
-10.97
-12.79
-14.45
-15.78
-16.68
-17.07
-17.01
-16.53
-15.67
-14.47
-12.96
-11.21
-9.38
-7.66
-6.23
-5.14
-4.30
-3.49
-2.51
-1.27
0.16
1.53
2.56
3.01
2.83
2.08
0.93
-0.51
-2.24
-4.34
-6.91
-9.91
-13.10
-16.14
-18.62
-20.29
-21.11
-21.24
-20.94
-20.52
-20.22
-20.22
-20.62
-21.46
-22.63
-23.99
-25.33
-26.50
-27.41
-28.04
-28.44
-28.67
-28.78
-28.87
-28.97
-29.00
-28.76
-27.92
-26.12
-23.22
-19.28
-14.66
-9.75
-4.86
-0.05
4.70
9.47
14.15
18.51
22.24
25.17
27.30
28.85
30.10
31.28
32.47
33.62
34.64
35.42
35.94
36.21
36.26
36.13
35.77
35.12
34.10
32.71
31.07
29.40
28.04
27.25
27.14
27.51
27.97
28.02
27.32
25.81
23.74
21.52
19.55
18.05
16.99
16.16
15.23
13.88
11.84
9.01
5.53
1.81
-1.56
-3.94
-4.92
-4.48
-2.92
-0.76
1.54
3.82
6.19
8.88
11.89
14.85
17.04
17.71
16.40
13.29
9.16
5.13
2.19
0.77
0.66
1.18
1.62
1.62
1.32
1.18
1.68
2.98
4.95
7.25
9.64
12.11
14.81
17.78
20.78
23.23
24.44
23.86
21.34
17.16
11.90
6.21
0.62
-4.52
-8.98
-12.63
-15.43
-17.40
-18.63
-19.24
-19.34
-19.05
-18.46
-17.74
-17.17
-17.09
-17.76
-19.25
-21.35
-23.67
-25.75
-27.31
-28.29
-28.81
-29.07
-29.26
-29.41
-29.53
-29.54
-29.43
-29.17
-28.78
-28.32
-27.89
-27.64
-27.65
-27.89
-28.15
-28.14
-27.58
-26.37
-24.62
-22.57
-20.47
-18.47
-16.64
-15.00
-13.65
-12.66
-12.12
-11.95
-11.95
-11.91
-11.78
-11.68
-11.85
-12.46
-13.45
-14.53
-15.23
-15.14
-14.02
-11.87
-8.87
-5.23
-1.19
3.09
7.43
11.60
15.33
18.38
20.61
22.04
22.84
23.29
23.65
24.08
24.57
24.92
24.85
24.12
22.70
20.78
18.74
16.94
15.58
14.62
13.80
12.82
11.50
9.91
8.25
6.77
5.61
4.68
3.74
2.45
0.59
-1.80
-4.44
-6.86
-8.60
-9.38
-9.20
-8.30
-7.08
-5.90
-4.95
-4.20
-3.51
-2.71
-1.73
-0.63
0.43
1.30
1.92
2.36
2.69
3.03
3.40
3.75
4.00
4.19
4.43
4.87
5.61
6.58
7.55
8.19
8.29
7.82
6.94
5.92
4.97
4.22
3.67
3.31
3.08
2.94
2.85
2.68
2.27
1.51
0.36
-1.07
-2.56
-3.84
-4.70
-5.08
-5.11
-5.07
-5.30
-6.09
-7.52
-9.40
-11.31
-12.77
-13.39
-13.06
-11.93
-10.32
-8.58
-6.94
-5.44
-3.98
-2.44
-0.75
1.01
2.68
4.06
5.06
5.71
6.13
6.48
6.82
7.10
7.20
7.08
6.79
6.53
6.51
6.82
7.45
8.29
9.22
10.24
11.37
12.66
14.06
15.55
17.06
18.65
20.41
22.42
24.64
26.86
28.73
29.90
30.10
29.14
26.94
23.46
18.76
13.04
6.68
0.18
-5.88
-10.98
-14.80
-17.20
-18.20
-17.94
-16.60
-14.41
-11.69
-8.85
-6.44
-4.98
-4.88
-6.23
-8.70
-11.67
-14.36
-16.15
-16.73
-16.12
-14.56
-12.36
-9.73
-6.85
-3.91
-1.12
1.36
3.49
5.49
7.61
10.06
12.77
15.41
17.59
19.07
19.78
19.89
19.62
19.09
18.33
17.27
15.90
14.27
12.52
10.80
9.20
7.73
6.28
4.73
2.97
1.00
-0.98
-2.66
-3.71
-3.99
-3.61
-2.87
-2.08
-1.44
-0.98
-0.63
-0.39
-0.33
-0.62
-1.40
-2.70
-4.35
-6.06
-7.49
-8.38
-8.60
-8.26
-7.71
-7.44
-8.00
-9.81
-12.97
-17.23
-21.99
-26.42
-29.73
-31.38
-31.22
-29.54
-26.93
-24.07
-21.52
-19.62
-18.46
-17.84
-17.44
-16.87
-15.81
-14.14
-11.96
-9.61
-7.51
-6.04
-5.43
-5.75
-6.87
-8.55
-10.38
-11.83
-12.35
-11.60
-9.66
-7.05
-4.64
-3.22
-3.27
-4.77
-7.32
-10.36
-13.48
-16.39
-18.91
-20.87
-22.03
-22.26
-21.65
-20.53
-19.43
-18.77
-18.71
-19.01
-19.18
-18.70
-17.31
-15.12
-12.50
-9.85
-7.41
-5.20
-3.04
-0.76
1.63
4.01
6.20
8.18
10.11
12.35
15.19
18.72
22.67
26.49
29.63
31.74
32.83
33.21
33.30
33.44
33.79
34.30
34.91
35.55
36.17
36.71
36.96
36.61
35.36
33.08
29.94
26.35
22.84
19.80
17.43
15.65
14.24
12.90
11.40
9.50
6.99
3.66
-0.56
-5.50
-10.71
-15.53
-19.23
-21.24
-21.37
-19.77
-16.97
-13.63
-10.43
-7.82
-6.03
-5.00
-4.57
-4.62
-5.13
-6.17
-7.81
-9.89
-12.05
-13.76
-14.54
-14.18
-12.89
-11.16
-9.60
-8.58
-8.12
-7.93
-7.60
-6.90
-5.83
-4.69
-3.77
-3.32
-3.34
-3.73
-4.32
-4.96
-5.56
-6.06
-6.36
-6.44
-6.33
-6.13
-6.01
-6.15
-6.65
-7.62
-9.07
-10.92
-12.95
-14.83
-16.18
-16.77
-16.61
-16.00
-15.31
-14.87
-14.76
-14.87
-14.98
-14.89
-14.50
-13.78
-12.70
-11.24
-9.40
-7.26
-4.99
-2.80
-0.82
0.90
2.46
4.03
5.83
7.99
10.52
13.27
15.97
18.27
19.86
20.58
20.49
19.82
18.93
18.17
17.76
17.74
17.98
18.28
18.47
18.46
18.34
18.21
18.21
18.41
18.79
19.21
19.44
19.23
18.32
16.58
14.03
10.88
7.48
4.16
1.11
-1.71
-4.50
-7.51
-10.84
-14.32
-17.58
-20.16
-21.72
-22.17
-21.71
-20.66
-19.37
-18.00
-16.57
-14.99
-13.15
-11.06
-8.75
-6.28
-3.57
-0.46
3.25
7.65
12.57
17.55
21.94
25.05
26.40
25.91
23.92
21.07
18.07
15.48
13.54
12.14
11.03
9.97
8.84
7.71
6.64
5.67
4.72
3.67
2.49
1.31
0.35
-0.18
-0.22
-0.00
0.06
-0.43
-1.65
-3.46
-5.40
-6.93
-7.61
-7.27
-6.05
-4.31
-2.40
-0.65
0.75
1.68
2.09
2.04
1.70
1.33
1.21
1.53
2.29
3.34
4.39
5.15
5.42
5.17
4.50
3.71
3.09
2.90
3.27
4.06
4.99
5.68
5.89
5.56
4.83
3.91
3.00
2.22
1.63
1.28
1.27
1.66
2.43
3.44
4.42
5.06
5.17
4.69
3.72
2.42
0.90
-0.78
-2.57
-4.44
-6.29
-8.02
-9.61
-11.12
-12.70
-14.40
-16.15
-17.67
-18.59
-18.65
-17.79
-16.29
-14.54
-12.98
-11.85
-11.20
-10.92
-10.80
-10.70
-10.44
-9.86
-8.80
-7.18
-5.08
-2.75
-0.47
1.53
3.22
4.76
6.34
8.03
9.70
11.10
12.00
12.34
12.23
11.88
11.46
11.02
10.45
9.68
8.69
7.60
6.56
5.71
5.13
4.74
4.44
4.06
3.51
2.72
1.76
0.74
-0.23
-1.07
-1.83
-2.56
-3.35
-4.21
-5.09
-5.94
-6.69
-7.32
-7.82
-8.13
-8.13
-7.71
-6.74
-5.20
-3.18
-0.83
1.62
3.86
5.63
6.73
7.13
6.92
6.33
5.62
4.95
4.43
4.04
3.75
3.54
3.37
3.15
2.73
1.97
0.87
-0.40
-1.55
-2.33
-2.73
-2.94
-3.30
-4.01
-5.05
-6.20
-7.17
-7.76
-7.96
-7.75
-7.07
-5.75
-3.58
-0.54
3.00
6.38
8.81
9.67
8.73
6.31
3.14
0.13
-1.89
-2.42
-1.44
0.72
3.51
6.38
8.99
11.18
12.99
14.46
15.55
16.03
15.60
14.05
11.39
7.89
4.05
0.40
-2.73
-5.25
-7.27
-8.97
-10.38
-11.40
-11.84
-11.54
-10.58
-9.19
-7.70
-6.41
-5.49
-4.96
-4.77
-4.86
-5.26
-6.05
-7.29
-8.98
-10.97
-12.98
-14.76
-16.13
-17.11
-17.85
-18.57
-19.40
-20.22
-20.70
-20.38
-18.92
-16.28
-12.80
-9.07
-5.70
-3.12
-1.50
-0.77
-0.73
-1.22
-2.11
-3.27
-4.53
-5.59
-6.23
-6.28
-5.79
-4.95
-4.06
-3.36
-2.94
-2.78
-2.77
-2.76
-2.65
-2.46
-2.24
-2.15
-2.29
-2.69
-3.20
-3.60
-3.65
-3.17
-2.18
-0.85
0.54
1.69
2.39
2.57
2.30
1.71
1.02
0.33
-0.25
-0.66
-0.89
-0.96
-0.98
-1.09
-1.49
-2.30
-3.48
-4.85
-6.08
-6.84
-6.93
-6.40
-5.51
-4.64
-4.08
-3.98
-4.24
-4.65
-4.98
-5.12
-5.09
-4.99
-4.99
-5.25
-5.86
-6.87
-8.19
-9.67
-10.97
-11.75
-11.68
-10.68
-8.88
-6.62
-4.26
-2.03
0.04
2.07
4.16
6.34
8.49
10.46
12.09
13.37
14.34
15.08
15.64
16.07
16.40
16.74
17.22
17.88
18.71
19.59
20.35
20.86
21.11
21.24
21.51
22.19
23.47
25.37
27.74
30.26
32.58
34.37
35.39
35.50
34.62
32.75
29.95
26.37
22.29
18.03
13.88
9.94
6.13
2.27
-1.80
-6.00
-9.99
-13.32
-15.65
-16.95
-17.56
-17.99
-18.65
-19.58
-20.51
-20.98
-20.67
-19.61
-18.09
-16.57
-15.37
-14.60
-14.20
-14.06
-14.09
-14.29
-14.65
-15.05
-15.31
-15.21
-14.58
-13.44
-11.94
-10.35
-8.91
-7.75
-6.87
-6.14
-5.42
-4.64
-3.87
-3.23
-2.85
-2.71
-2.61
-2.23
-1.37
0.02
1.69
3.26
4.37
4.88
4.86
4.63
4.51
4.75
5.43
6.48
7.75
9.02
10.05
10.56
10.28
9.05
6.96
4.36
1.83
-0.02
-0.78
-0.37
0.98
2.85
4.85
6.67
8.18
9.32
10.04
10.23
9.86
8.99
7.83
6.70
5.89
5.52
5.51
5.62
5.60
5.36
5.01
4.79
4.91
5.46
6.38
7.45
8.39
8.90
8.72
7.69
5.85
3.47
1.02
-1.02
-2.26
-2.61
-2.26
-1.50
-0.63
0.18
0.85
1.32
1.47
1.17
0.34
-0.91
-2.34
-3.71
-4.88
-5.91
-6.92
-7.99
-9.01
-9.68
-9.66
-8.76
-7.00
-4.61
-1.87
0.97
3.73
6.22
8.15
9.19
9.10
7.90
5.92
3.79
2.13
1.36
1.59
2.52
3.73
4.79
5.41
5.46
4.94
3.97
2.80
1.71
1.00
0.89
1.39
2.37
3.59
4.83
5.95
6.89
7.59
7.96
7.86
7.28
6.29
5.15
4.11
3.32
2.72
2.01
0.86
-0.99
-3.57
-6.66
-9.95
-13.18
-16.20
-19.02
-21.68
-24.05
-25.85
-26.72
-26.39
-24.86
-22.44
-19.63
-16.84
-14.24
-11.69
-8.94
-5.78
-2.23
1.49
5.09
8.39
11.34
14.03
16.56
18.89
20.86
22.27
22.99
23.03
22.52
21.62
20.50
19.27
