1650969245.00
64.000000
-0.00
-0.00
-0.00
-0.00
-0.00
-0.00
-0.00
-0.00
-0.00
-0.00
0.00
0.01
0.01
-0.00
-0.03
-0.05
-0.05
0.00
0.13
0.36
0.66
1.01
1.37
1.72
2.06
2.40
2.79
3.24
3.80
4.42
5.06
5.66
6.20
6.68
7.15
7.68
8.31
9.14
10.09
11.04
11.88
12.56
13.14
13.76
14.65
15.96
17.91
20.32
22.90
25.38
27.58
29.57
31.68
34.32
37.81
42.54
48.15
54.10
59.83
64.97
69.58
74.14
79.34
85.71
93.76
103.00
112.62
121.73
129.77
136.75
143.30
150.75
157.77
166.64
177.95
191.79
206.97
220.57
228.25
225.36
208.53
176.87
132.76
80.05
23.07
-34.94
-92.44
-149.16
-205.23
-260.37
-313.74
-363.87
-409.83
-450.91
-486.50
-515.74
-537.23
-549.22
-549.96
-538.37
-514.21
-478.67
-433.88
-382.45
-327.02
-269.84
-212.63
-156.66
-102.95
-52.38
-5.91
35.57
71.43
101.37
125.55
144.44
158.73
169.11
176.21
180.46
182.17
181.61
179.05
174.83
169.31
162.85
155.76
148.31
140.66
132.93
125.22
117.59
110.05
102.60
95.25
87.97
80.83
73.90
67.33
61.23
55.65
50.51
45.63
40.82
35.94
31.00
26.22
21.91
18.33
15.56
13.41
11.46
9.24
6.46
3.17
-0.21
-3.05
-4.85
-5.44
-5.21
-4.90
-5.35
-7.03
-9.85
-13.10
-15.80
-17.18
-17.08
-15.94
-14.66
-14.13
-14.87
-17.05
-20.66
-25.48
-30.71
-34.59
-34.57
-28.25
-14.87
3.78
23.53
39.49
48.22
49.22
44.85
38.73
33.71
30.64
28.59
26.08
22.42
18.14
14.46
12.31
11.65
11.54
10.82
8.81
5.56
2.03
-0.63
-1.58
-0.63
1.64
4.30
6.44
7.56
7.72
7.38
7.05
7.01
7.24
7.50
7.52
7.23
6.70
6.14
5.73
5.60
5.73
6.10
6.64
7.33
8.15
9.05
9.99
10.95
11.98
13.14
14.46
15.83
16.98
17.56
17.31
16.13
14.17
11.71
9.01
6.28
3.37
0.22
-3.16
-6.58
-9.76
-12.43
-14.47
-15.94
-16.98
-17.79
-18.45
-18.93
-19.10
-18.76
-17.75
-16.04
-13.79
-11.30
-8.96
-7.04
-5.64
-4.68
-3.98
-3.40
-2.90
-2.59
-2.54
-2.78
-3.20
-3.66
-4.03
-4.24
-4.28
-4.17
-3.93
-3.60
-3.21
-2.85
-2.60
-2.49
-2.52
-2.63
-2.80
-3.00
-3.22
-3.43
-3.62
-3.76
-3.88
-4.04
-4.34
-4.84
-5.52
-6.26
-6.89
-7.34
-7.62
-7.93
-8.51
-9.52
-11.00
-12.74
-14.39
-15.42
-15.52
-14.69
-13.20
-11.54
-10.14
-9.29
-9.04
-9.26
-9.75
-10.40
-11.25
-12.45
-14.22
-16.65
-19.59
-22.61
-25.13
-26.58
-26.60
-25.13
-22.24
-18.02
-12.47
-5.67
2.19
10.76
19.71
28.79
37.81
46.29
53.27
57.34
57.10
51.98
42.73
31.39
20.66
12.73
8.38
6.58
4.91
0.48
-8.88
-23.82
-43.16
-64.23
-83.78
-98.97
-108.19
-111.26
-109.08
-102.98
-94.15
-83.46
-71.43
-58.37
-44.39
-29.42
-13.34
3.60
20.40
35.28
46.28
52.15
53.12
50.98
48.24
46.90
47.50
49.02
49.57
47.41
41.73
32.73
21.20
7.96
-6.40
-21.40
-36.42
-50.45
-62.25
-70.77
-75.61
-77.13
-76.38
-74.63
-72.78
-71.15
-69.29
-66.34
-61.32
-53.63
-43.20
-30.54
-16.54
-2.15
11.81
24.84
36.69
47.30
56.63
64.63
71.17
76.07
79.17
80.36
79.71
77.51
74.27
70.72
67.55
65.26
63.99
63.49
63.26
62.86
62.08
61.08
60.20
59.78
59.98
60.65
61.45
62.01
62.11
61.76
61.10
60.32
59.45
58.35
56.71
54.21
50.62
45.81
39.78
32.59
24.40
15.55
6.60
-1.68
-8.48
-13.23
-15.86
-16.82
-16.89
-16.81
-16.98
-17.36
-17.59
-17.38
-16.72
-15.92
-15.42
-15.46
-15.92
-16.37
-16.23
-15.17
-13.20
-10.70
-8.19
-6.10
-4.63
-3.70
-3.09
-2.55
-1.93
-1.23
-0.60
-0.31
-0.60
-1.59
-3.30
-5.61
-8.36
-11.39
-14.57
-17.77
-20.83
-23.55
-25.81
-27.58
-28.88
-29.68
-29.81
-28.95
-26.79
-23.29
-18.76
-13.81
-9.08
-4.95
-1.48
1.53
4.24
6.62
8.45
9.49
9.69
9.27
8.63
8.16
8.02
8.08
8.05
7.60
6.56
4.95
2.98
0.94
-0.97
-2.66
-4.22
-5.79
-7.52
-9.43
-11.42
-13.34
-15.06
-16.50
-17.63
-18.47
-19.03
-19.32
-19.29
-18.88
-17.99
-16.52
-14.37
-11.54
-8.11
-4.31
-0.37
3.47
7.06
10.32
13.21
15.70
17.73
19.29
20.38
21.09
21.55
21.91
22.37
23.09
24.18
25.63
27.24
28.76
29.87
30.37
30.20
29.48
28.37
27.02
25.50
23.85
22.13
20.42
18.81
17.33
15.90
14.36
12.48
10.10
7.19
3.86
0.33
-3.06
-5.98
-8.17
-9.52
-10.06
-10.03
-9.76
-9.53
-9.49
-9.60
-9.68
-9.50
-8.90
-7.91
-6.67
-5.37
-4.18
-3.18
-2.35
-1.62
-0.91
-0.14
0.75
1.84
3.16
4.71
6.36
7.95
9.21
9.95
10.09
9.66
8.82
7.74
6.62
5.55
4.55
3.57
2.50
1.24
-0.23
-1.81
-3.28
-4.38
-4.87
-4.64
-3.76
-2.38
-0.74
0.98
2.60
4.02
5.12
5.85
6.19
6.18
5.92
5.50
4.93
4.19
3.23
2.09
0.86
-0.33
-1.37
-2.27
-3.07
-3.85
-4.64
-5.47
-6.36
-7.31
-8.40
-9.64
-11.01
-12.47
-13.94
-15.40
-16.83
-18.24
-19.61
-20.88
-21.96
-22.72
-23.02
-22.74
-21.77
-20.08
-17.75
-14.93
-11.82
-8.62
-5.44
-2.41
0.37
2.80
4.75
6.17
7.10
7.62
7.87
7.96
7.94
7.82
7.63
7.36
7.03
6.65
6.20
5.65
4.97
4.15
3.21
2.20
1.18
0.19
-0.75
-1.68
-2.65
-3.70
-4.85
-6.10
-7.44
-8.89
-10.44
-12.06
-13.65
-15.01
-15.91
-16.17
-15.69
-14.50
-12.72
-10.56
-8.27
-6.06
-4.12
-2.46
-1.04
0.28
1.59
2.87
3.97
4.69
4.92
4.69
4.17
3.59
3.17
3.01
3.12
3.43
3.82
4.18
4.44
4.55
4.53
4.40
4.23
4.06
3.94
3.89
3.94
4.02
4.02
3.81
3.27
2.42
1.43
0.49
-0.21
-0.67
-1.04
-1.54
-2.37
-3.55
-4.90
-6.13
-6.86
-6.81
-5.86
-4.14
-1.97
0.21
2.03
3.32
4.13
4.66
5.06
5.35
5.35
4.88
3.85
2.35
0.61
-1.12
-2.67
-4.01
-5.16
-6.15
-6.94
-7.44
-7.59
-7.40
-7.06
-6.79
-6.84
-7.33
-8.23
-9.35
-10.47
-11.40
-12.07
-12.55
-13.01
-13.64
-14.58
-15.89
-17.53
-19.38
-21.25
-22.89
-24.06
-24.54
-24.25
-23.20
-21.48
-19.27
-16.74
-14.04
-11.28
-8.52
-5.78
-3.12
-0.65
1.50
3.15
4.22
4.74
4.92
5.01
5.30
5.92
6.82
7.80
8.61
9.01
8.92
8.37
7.53
6.58
5.70
4.95
4.29
3.56
2.63
1.43
0.04
-1.38
-2.64
-3.67
-4.54
-5.42
-6.47
-7.74
-9.14
-10.56
-11.87
-13.01
-13.95
-14.61
-14.81
-14.35
-13.11
-11.11
-8.57
-5.79
-3.07
-0.62
1.49
3.26
4.70
5.82
6.64
7.19
7.51
7.71
7.87
8.07
8.34
8.64
8.92
9.12
9.25
9.36
9.50
9.68
9.84
9.88
9.67
9.17
8.43
7.52
6.55
5.58
4.63
3.70
2.79
1.86
0.85
-0.31
-1.63
-3.06
-4.46
-5.68
-6.54
-6.97
-6.88
-6.24
-5.01
-3.16
-0.74
2.10
5.07
7.84
10.09
11.58
12.22
11.98
10.91
9.08
6.57
3.46
-0.12
-4.07
-8.25
-12.59
-17.11
-21.88
-26.97
-32.41
-38.06
-43.66
-48.80
-53.02
-55.94
-57.30
-57.00
-55.05
-51.60
-46.97
-41.68
-36.56
-32.73
-31.37
-33.53
-39.49
-48.40
-58.33
-66.85
-71.94
-72.60
-68.89
-61.49
-51.07
-38.21
-23.63
-8.59
5.11
15.71
22.29
25.40
26.81
28.60
32.13
37.31
42.87
47.10
48.75
47.52
43.97
39.04
33.59
28.08
22.50
16.67
10.82
5.86
3.30
4.61
10.34
19.49
29.59
37.53
40.82
38.58
31.80
22.76
14.07
7.66
4.25
3.43
4.15
5.38
6.55
7.60
8.77
10.22
11.75
12.78
12.67
11.04
8.08
4.47
1.05
-1.54
-3.13
-3.98
-4.52
-5.11
-5.80
-6.33
-6.33
-5.49
-3.76
-1.36
1.28
3.65
5.36
6.24
6.34
5.90
5.21
4.53
3.96
3.47
2.84
1.84
0.31
-1.82
-4.45
-7.39
-10.38
-13.16
-15.41
-16.89
-17.39
-16.81
-15.24
-12.88
-10.05
-7.06
-4.18
-1.59
0.60
2.34
3.57
4.30
4.56
4.40
3.85
2.91
1.56
-0.21
-2.32
-4.57
-6.73
-8.54
-9.91
-10.95
-11.94
-13.33
-15.49
-18.62
-22.61
-27.15
-31.80
-36.26
-40.44
-44.53
-48.81
-53.51
-58.64
-64.02
-69.24
-73.73
-76.80
-77.69
-75.72
-70.55
-62.31
-51.59
-39.25
-26.10
-12.70
0.74
14.17
27.52
40.53
52.76
63.70
72.98
80.58
86.92
92.66
98.48
104.67
110.80
115.76
118.13
116.79
111.55
103.41
94.26
86.14
80.46
77.52
76.69
76.89
77.17
77.14
76.89
76.71
76.73
76.78
76.42
75.13
72.55
68.55
63.24
56.88
49.76
42.28
34.88
27.99
21.98
16.93
12.56
8.22
2.99
-4.11
-13.87
-26.67
-42.35
-60.29
-79.58
-99.23
-118.22
-135.39
-149.46
-159.09
-163.07
-160.73
-152.09
-138.05
-120.19
-100.52
-81.00
-63.23
-48.13
-35.92
-26.24
-18.44
-11.89
-6.15
-1.08
3.28
6.78
9.29
10.66
10.76
9.54
7.19
4.24
1.49
-0.20
-0.23
1.57
4.94
9.25
13.84
18.14
21.81
24.80
27.26
29.51
31.80
34.18
36.43
38.19
39.08
38.97
38.01
36.52
34.87
33.26
31.78
30.41
29.16
28.02
26.94
25.81
24.40
22.51
20.02
17.02
13.76
10.57
7.78
5.56
3.93
2.76
1.82
0.85
-0.31
-1.70
-3.15
-4.33
-4.84
-4.40
-2.96
-0.75
1.84
4.38
6.62
8.48
10.07
11.55
13.06
14.60
16.14
17.53
18.67
19.42
19.70
19.47
18.80
17.82
16.75
15.77
15.01
14.49
14.13
13.81
13.46
13.09
12.81
12.76
13.06
13.71
14.59
15.47
16.09
16.12
15.24
13.19
9.86
5.35
0.07
-5.38
-10.39
-14.52
-17.61
-19.73
-21.02
-21.53
-21.13
-19.66
-17.08
-13.61
-9.75
-6.13
-3.33
-1.64
-1.03
-1.20
-1.75
-2.31
-2.67
-2.80
-2.76
-2.63
-2.44
-2.20
-1.90
-1.61
-1.47
-1.61
-2.10
-2.86
-3.72
-4.41
-4.74
-4.69
-4.45
-4.32
-4.67
-5.69
-7.30
-9.08
-10.51
-11.11
-10.66
-9.21
-6.99
-4.28
-1.27
1.94
5.36
8.89
12.36
15.49
18.02
19.78
20.74
20.97
20.75
20.51
20.63
21.31
22.49
23.92
25.21
25.99
26.02
25.38
24.66
24.43
24.99
26.30
28.05
29.82
31.10
31.44
30.77
29.90
29.53
30.05
31.40
33.30
35.38
37.23
38.34
38.69
39.35
41.11
44.28
48.44
52.91
56.67
58.08
54.82
44.84
27.97
4.99
-22.02
-50.15
-76.02
-95.92
-105.42
-104.01
-99.64
-96.94
-97.38
-99.08
-100.73
-101.53
-101.49
-101.41
-102.58
-105.48
-108.70
-110.70
-110.47
-107.92
-103.54
-98.19
-92.88
-88.62
-85.70
-82.91
-78.82
-72.04
-61.59
-46.84
-27.87
-5.70
17.88
41.06
63.00
83.38
102.21
119.45
134.84
147.72
157.24
162.77
164.44
163.39
161.07
158.62
156.43
154.15
150.90
145.58
137.18
124.94
108.49
87.81
63.33
36.18
8.26
-18.11
-40.75
-58.27
-70.49
-78.32
-83.30
-86.93
-90.15
-93.24
-95.98
-97.98
-98.95
-98.68
-97.07
-94.02
-89.50
-83.61
-76.58
-68.82
-60.84
-53.07
-45.83
-39.27
-33.37
-27.96
-22.85
-17.89
-13.01
-8.29
-3.87
0.05
3.31
5.77
7.42
8.33
8.64
8.53
8.12
7.50
6.64
5.52
4.14
2.58
1.05
-0.27
-1.24
-1.82
-2.11
-2.26
-2.47
-2.91
-3.72
-4.95
-6.51
-8.21
-9.73
-10.80
-11.29
-11.31
-11.20
-11.40
-12.30
-14.07
-16.62
-19.68
-22.94
-26.18
-29.40
-32.76
-36.54
-41.00
-46.22
-52.12
-58.37
-64.41
-69.46
-72.64
-73.19
-70.76
-65.62
-58.64
-51.11
-44.23
-38.70
-34.52
-30.96
-26.99
-21.65
-14.45
-5.46
4.84
15.83
26.92
37.60
47.38
55.64
61.69
64.95
65.20
62.87
58.90
54.54
50.84
48.35
46.86
45.64
43.74
40.52
35.91
30.59
25.71
22.51
21.83
23.87
28.06
33.43
38.95
43.81
47.58
50.03
51.01
50.34
47.83
43.57
37.89
31.42
24.86
18.76
13.32
8.51
4.17
0.17
-3.40
-6.40
-8.62
-9.94
-10.34
-9.87
-8.60
-6.63
-4.07
-1.13
1.87
4.54
6.52
7.59
7.77
7.33
6.66
6.17
6.12
6.57
7.35
8.19
8.75
8.80
8.23
7.11
5.63
4.05
2.55
1.23
0.01
-1.28
-2.75
-4.48
-6.37
-8.26
-9.98
-11.45
-12.68
-13.69
-14.53
-15.22
-15.77
-16.23
-16.70
-17.27
-17.97
-18.64
-19.03
-18.83
-17.85
-16.05
-13.62
-10.89
-8.19
-5.71
-3.49
-1.40
0.79
3.29
6.20
9.45
12.74
15.53
17.23
17.29
15.44
11.76
6.83
1.52
-3.23
-6.63
-8.32
-8.40
-7.33
-5.68
-4.01
-2.63
-1.67
-1.10
-0.87
-1.02
-1.69
-3.01
-4.99
-7.38
-9.81
-11.86
-13.25
-13.96
-14.14
-13.97
-13.52
-12.72
-11.42
-9.54
-7.12
-4.37
-1.50
1.36
4.15
6.85
9.37
11.57
13.25
14.32
14.84
14.99
15.01
15.08
15.33
15.78
16.40
17.16
17.98
18.78
19.42
19.72
19.48
18.49
16.68
14.12
11.14
8.20
5.79
4.21
3.45
3.24
3.13
2.76
1.94
0.77
-0.47
-1.44
-1.87
-1.57
-0.55
1.09
3.13
5.34
7.55
9.79
12.35
15.67
20.18
26.02
32.88
40.09
46.77
52.25
56.33
59.37
62.08
65.19
69.12
73.80
78.90
83.96
88.76
93.38
98.18
103.66
110.32
118.42
127.69
137.08
144.60
147.69
143.92
131.88
111.89
85.94
57.07
28.28
1.66
-21.99
-42.95
-62.00
-79.84
-96.77
-112.66
-127.18
-140.01
-151.05
-160.49
-168.73
-176.22
-183.26
-189.86
-195.77
-200.75
-204.76
-208.01
-210.81
-213.27
-215.16
-216.04
-215.51
-213.52
-210.27
-205.86
-199.94
-191.52
-179.29
-162.20
-140.06
-113.73
-84.78
-54.93
-25.50
2.74
29.23
53.27
73.81
89.57
99.61
103.70
102.44
97.04
88.91
79.33
69.32
59.71
51.17
44.20
39.03
35.53
33.29
31.79
30.62
29.52
28.36
27.08
25.59
23.81
21.77
19.66
17.73
16.27
15.38
14.99
14.88
14.79
14.52
14.03
13.43
12.94
12.79
13.09
13.81
14.72
15.58
16.11
16.19
15.72
14.68
13.07
10.94
8.48
6.05
4.12
3.15
3.38
4.69
6.69
8.83
10.67
12.04
12.97
13.63
14.15
14.58
14.82
14.79
14.46
13.93
13.37
12.97
12.84
12.91
12.98
12.80
12.09
10.77
8.86
6.57
4.11
1.66
-0.67
-2.90
-5.11
-7.44
-10.02
-12.92
-16.11
-19.47
-22.72
-25.60
-27.87
-29.39
-30.12
-30.01
-29.05
-27.15
-24.34
-20.76
-16.74
-12.70
-9.03
-5.96
-3.51
-1.53
0.25
2.06
4.06
6.27
8.56
10.73
12.58
13.99
14.96
15.58
16.05
16.61
17.53
19.08
21.46
24.71
28.66
32.97
37.28
41.35
45.05
48.38
51.19
53.01
53.11
50.72
45.47
37.76
28.77
20.16
13.37
9.21
7.56
7.72
8.85
10.47
12.54
15.17
18.16
20.70
21.54
19.49
13.96
5.23
-5.90
-18.77
-33.27
-49.58
-67.42
-85.30
-100.55
-110.44
-113.68
-111.28
-106.10
-101.29
-98.40
-96.68
-93.85
-87.82
-78.23
-66.50
-54.68
-43.74
-32.85
-19.95
-3.41
16.36
36.52
52.77
61.15
59.72
49.32
33.12
15.26
-0.65
-12.48
-19.68
-22.63
-21.79
-17.11
-8.19
5.25
22.68
42.53
62.53
80.39
94.49
104.20
109.87
112.58
113.84
115.18
117.92
122.90
130.25
139.40
149.19
158.03
164.26
166.30
162.97
153.82
139.42
121.39
102.07
83.89
68.64
57.10
48.98
43.31
38.89
34.75
30.19
24.93
19.07
13.01
7.35
2.67
-0.73
-3.04
-4.89
-7.05
-10.10
-14.18
-19.02
-24.15
-29.14
-33.81
-38.01
-41.61
-44.33
-45.93
-46.37
-46.01
-45.43
-45.19
-45.45
-45.88
-45.86
-44.89
-42.86
-40.12
-37.25
-34.80
-33.10
-32.24
-32.16
-32.74
-33.78
-34.97
-35.90
-36.15
-35.48
-33.86
-31.38
-28.18
-24.32
-19.90
-15.10
-10.32
-5.94
-2.15
1.18
4.49
8.22
12.53
17.12
21.25
23.98
24.57
22.78
19.04
14.40
10.24
7.97
8.62
12.51
19.19
27.54
36.06
43.26
47.96
49.44
47.40
41.85
33.06
21.47
7.78
-7.12
-22.19
-36.35
-48.69
-58.63
-66.08
-71.32
-74.98
-77.76
-80.20
-82.40
-83.94
-84.03
-81.82
-76.73
-68.77
-58.51
-46.86
-34.82
-23.24
-12.80
-4.08
2.35
5.87
6.08
3.00
-2.76
-10.11
-17.77
-24.65
-30.14
-34.16
-36.95
-38.89
-40.21
-40.97
-41.14
-40.72
-39.87
-38.86
-38.01
-37.55
-37.49
-37.60
-37.62
-37.42
-37.12
-36.95
-37.08
-37.32
-37.09
-35.59
-32.22
-26.85
-19.90
-12.10
-4.09
3.83
11.68
19.58
27.49
35.02
41.62
46.77
50.22
52.05
52.63
52.41
51.71
50.64
49.03
46.62
43.24
38.97
34.22
29.57
25.50
22.18
19.36
16.54
13.18
9.00
4.08
-1.21
-6.45
-11.25
-15.31
-18.37
-20.03
-19.80
-17.24
-12.11
-4.62
4.58
14.50
24.09
32.48
39.16
44.00
47.12
48.72
48.99
48.08
46.07
43.16
39.63
35.81
32.06
28.56
25.31
22.13
18.69
14.69
9.96
4.52
-1.38
-7.42
-13.38
-19.18
-24.89
-30.61
-36.28
-41.59
-46.07
-49.23
-50.75
-50.63
-49.17
-46.78
-43.91
-40.81
-37.54
-34.09
-30.37
-26.45
-22.54
-18.97
-16.09
-14.12
-13.07
-12.68
-12.60
-12.45
-11.95
-11.04
-9.79
-8.40
-7.16
-6.33
-6.08
-6.42
-7.15
-8.01
-8.68
-9.02
-9.01
-8.79
-8.48
-8.23
-8.07
-7.97
-7.82
-7.38
-6.29
-4.21
-0.89
3.59
8.81
14.18
19.23
23.95
28.70
34.06
40.31
47.13
53.60
58.49
60.71
59.59
54.98
47.17
36.70
24.37
11.23
-1.44
-12.41
-20.73
-26.03
-28.48
-28.61
-26.98
-24.00
-20.01
-15.31
-10.31
-5.47
-1.21
2.33
5.30
8.09
11.21
15.02
19.46
23.86
26.99
27.35
23.83
16.19
5.41
-6.61
-17.71
-26.09
-30.82
-31.76
-29.24
-23.73
-15.80
-6.29
3.51
12.04
17.94
20.64
20.73
19.74
19.51
21.30
25.27
30.52
35.53
38.99
40.36
40.05
39.13
38.91
40.41
44.14
49.80
56.12
60.81
60.73
52.69
34.76
7.49
-25.48
-58.12
-83.89
-98.12
-99.65
-90.95
-76.68
-61.49
-48.27
-37.63
-28.76
-20.74
-13.57
-8.24
-5.97
-7.47
-12.62
-20.90
-32.26
-47.57
-68.54
-96.53
-131.16
-169.24
-204.96
-231.27
-242.17
-234.62
-209.34
-170.14
-122.27
-70.80
-19.54
28.97
73.06
111.50
143.41
168.47
187.09
200.35
209.49
215.53
219.03
220.28
219.40
216.40
211.09
202.97
191.36
175.77
156.20
133.21
107.59
80.06
51.16
21.55
-7.66
-34.66
-57.06
-72.45
-79.16
-76.64
-65.52
-47.33
-24.04
2.15
29.06
54.58
76.95
94.98
108.13
116.59
121.09
122.67
122.55
121.82
121.32
121.45
122.11
122.83
122.89
121.50
117.76
110.71
99.54
83.95
64.51
42.81
21.07
1.44
-14.92
-28.30
-40.46
-53.71
-69.98
-90.11
-113.84
-140.15
-167.87
-195.93
-223.23
-248.29
-268.57
-280.50
-280.49
-266.48
-238.97
-201.36
-159.11
-118.11
-83.67
-58.66
-43.33
-36.34
-36.11
-41.49
-51.91
-67.03
-86.36
-110.12
-136.97
-163.75
-186.15
-199.92
-201.66
-189.25
-162.12
-121.59
-73.06
-22.68
23.49
59.76
81.22
85.05
71.58
44.47
9.51
-29.82
-69.03
-102.89
-126.77
-137.91
-135.98
-122.79
-101.52
-61.90
-5.04
58.76
116.05
157.65
179.46
179.68
158.23
118.19
66.40
6.62
-54.82
-110.48
-154.36
-183.38
-197.06
-196.35
-183.08
-154.30
-115.01
-71.61
-30.02
6.07
35.57
59.64
80.41
99.49
116.80
128.81
133.60
132.11
127.98
125.93
129.78
140.69
156.76
173.33
183.35
181.62
166.33
139.57
106.39
72.81
43.46
20.00
0.84
-17.99
-39.25
-62.73
-85.18
-101.92
-109.40
-107.02
-97.38
-84.65
-72.55
-62.24
-52.65
-42.08
-30.08
-18.16
-8.72
-3.28
-1.05
1.25
8.20
23.39
47.59
78.14
110.10
138.65
160.00
171.94
174.00
167.45
155.08
140.75
128.58
121.88
123.14
131.94
144.86
156.96
164.17
164.79
159.65
150.89
140.49
130.92
122.50
113.59
102.19
87.81
72.34
58.99
50.60
48.35
53.59
65.04
79.34
92.43
101.68
106.73
108.56
108.07
91.19
52.30
-3.04
-60.91
-108.83
-141.31
-158.95
-165.87
-167.29
-167.81
-167.41
-165.52
-161.82
-157.00
-152.39
-149.08
-148.15
-150.34
-155.80
-160.38
-160.08
-152.50
-138.36
-120.85
-103.68
-90.02
-79.10
-68.08
-52.08
-27.66
5.92
46.68
88.54
124.87
149.60
158.34
148.40
119.55
73.35
13.87
-51.88
-114.26
-162.61
-188.60
-188.78
-165.63
-126.23
-79.95
-35.21
2.57
31.70
53.26
69.01
80.43
88.45
93.27
94.46
91.21
82.37
67.36
46.58
21.87
-3.11
-23.08
-33.53
-32.71
-22.43
-7.27
7.94
19.51
25.76
23.78
13.71
-0.86
-14.83
-22.77
-24.48
-20.32
-10.84
1.59
14.14
24.50
31.15
33.61
32.39
28.45
23.33
18.15
13.28
8.90
5.56
3.69
3.14
3.06
2.11
-0.51
-5.02
-10.97
-17.26
-22.55
-26.05
-27.94
-28.96
-29.75
-29.90
-28.38
-24.22
-17.26
-8.65
-0.74
3.63
2.49
-4.22
-14.25
-24.02
-30.02
-30.27
-25.08
-16.78
-8.45
-2.48
0.36
0.83
0.19
-0.85
-2.45
-5.15
-9.02
-13.04
-15.43
-14.54
-9.95
-2.77
4.84
10.68
13.60
13.80
12.65
12.01
13.45
17.82
25.01
33.95
42.89
49.91
53.49
52.95
48.61
41.48
32.77
23.44
13.99
4.70
-4.11
-11.92
-18.21
-22.88
-26.39
-29.64
-33.24
-36.92
-39.08
-37.32
-29.69
-16.12
0.79
16.48
26.10
26.73
18.63
5.31
-8.00
-16.50
-17.89
-13.13
-5.38
1.54
4.86
3.26
-2.94
-12.46
-23.36
-33.66
-41.47
-45.00
-43.07
-35.51
-24.11
-11.72
-1.36
5.48
8.85
10.00
10.78
12.21
14.39
16.00
16.10
15.22
16.51
24.19
40.22
63.74
89.35
114.07
133.56
145.05
144.32
131.63
110.19
84.53
59.35
37.65
21.10
9.01
-0.78
-11.56
-26.26
-47.09
-74.27
-105.21
-135.46
-158.86
-170.61
-168.76
-155.18
-134.31
-111.81
-92.49
-74.39
-56.85
-38.97
-20.42
-1.45
17.25
35.12
51.51
65.46
75.31
78.18
72.02
56.40
33.17
6.42
-19.15
-40.08
-54.68
-63.41
-68.61
-72.49
-76.23
-79.99
-82.93
-83.68
-80.60
-71.89
-55.84
-31.49
1.20
41.84
86.21
128.34
162.28
184.03
192.28
187.81
172.16
146.75
112.77
71.64
26.50
-17.78
-55.29
-80.97
-92.27
-90.11
-78.31
-62.03
-46.23
-34.01
-26.30
-22.46
-21.08
-20.85
-20.79
-20.16
-18.16
-14.01
-7.03
2.97
15.36
28.64
40.77
49.72
53.90
52.54
45.94
35.41
23.02
10.96
0.84
-6.68
-11.91
-15.73
-18.96
-21.94
-24.57
-26.57
-27.96
-29.19
-30.86
-33.19
-35.73
-37.39
-36.88
-33.33
-26.71
-17.95
-8.59
-0.27
5.84
9.38
10.85
11.22
11.48
12.22
13.41
14.53
14.93
14.26
12.61
10.44
8.23
6.14
3.88
0.89
-3.23
-8.34
-13.69
-18.24
-21.13
-21.99
-21.08
-19.16
-17.15
-15.93
-16.10
-17.91
-21.34
-25.97
-31.08
-35.61
-38.63
-39.49
-37.95
-34.09
-28.26
-21.03
-13.13
-5.44
1.24
6.08
8.46
8.27
6.15
3.20
0.49
-1.22
-1.69
-0.89
0.60
1.79
1.83
0.84
-0.50
-1.33
-0.94
1.01
4.65
9.28
13.51
16.08
17.00
17.09
17.22
18.14
20.48
25.27
32.87
42.52
52.34
60.16
63.08
57.95
42.99
15.78
-19.55
-53.37
-76.14
-86.83
-87.73
-80.51
-66.62
-46.77
-21.26
9.58
43.65
76.92
104.88
125.06
137.24
143.01
145.25
146.97
150.82
157.62
166.14
173.73
177.62
174.84
162.28
137.57
99.95
51.17
-4.70
-61.63
-112.62
-151.06
-173.10
-179.06
-172.81
-159.89
-144.77
-129.24
-112.60
-93.29
-70.85
-47.54
-28.27
-18.78
-23.00
-41.04
-68.68
-98.50
-122.06
-132.47
-126.61
-106.32
-77.98
-50.53
-32.38
-28.22
-37.14
-53.00
-66.78
-69.88
-57.10
-28.05
13.01
58.47
99.13
126.36
134.29
121.56
91.79
52.74
13.74
-17.27
-36.09
-42.61
-39.58
-30.51
-18.23
-4.53
9.09
20.61
27.61
28.24
22.24
11.45
-0.82
-11.31
-18.13
-21.53
-23.38
-26.15
-31.66
-40.14
-50.02
-58.51
-62.47
-59.41
-48.17
-29.17
-4.55
21.94
45.72
62.49
69.68
67.52
59.10
49.10
41.68
38.31
36.87
32.34
19.20
-5.97
-42.42
-84.85
-125.09
-154.73
-167.39
-159.97
-132.97
-90.22
-38.53
13.21
55.84
82.30
90.07
82.30
66.52
51.32
42.85
42.86
49.25
58.54
68.07
77.05
85.96
95.24
104.20
111.21
114.57
113.65
109.63
104.18
98.48
92.75
86.28
77.89
66.79
52.96
37.59
23.73
14.28
10.53
11.77
15.47
18.29
17.77
13.22
6.30
1.46
2.62
10.68
23.33
35.66
42.19
39.23
25.46
-3.63
-46.03
-93.75
-136.32
-164.43
-172.01
-159.01
-127.21
-82.02
-32.78
10.71
40.93
51.17
41.19
16.85
-13.27
-41.42
-63.53
-78.71
-86.61
-87.16
-81.11
-69.88
-56.23
-43.74
-35.05
-31.12
-30.66
-30.38
-26.84
-17.98
-3.21
16.31
37.67
56.87
69.52
72.43
65.34
51.01
34.04
19.41
10.50
8.11
10.97
16.71
22.81
27.25
28.49
25.57
18.64
9.36
0.82
-3.23
0.05
11.13
27.47
43.82
53.85
52.61
38.40
13.61
-16.14
-43.92
-63.84
-72.70
-70.28
-58.55
-40.29
-18.05
6.19
30.76
53.86
73.35
87.21
94.08
93.79
87.56
77.74
67.24
58.93
55.11
57.19
65.47
79.02
95.67
112.08
124.22
128.27
121.69
104.07
77.44
45.60
13.08
-16.07
-39.15
-54.91
-63.37
-65.19
-61.36
-52.87
-40.71
-25.76
-8.78
9.52
28.15
45.64
60.00
68.99
70.61
63.65
47.95
24.48
-4.68
-36.51
-67.06
-91.75
-106.03
-106.51
-92.14
-64.92
-29.70
6.99
38.69
60.74
71.19
70.80
62.16
48.55
32.81
16.72
0.96
-14.44
-29.66
-44.66
-59.15
-72.65
-84.75
-95.07
-103.18
-108.55
-110.71
-109.84
-107.13
-104.78
-105.35
-110.69
-121.07
-134.91
-149.43
-161.92
-170.79
-176.06
-179.06
-181.48
-184.51
-188.34
-192.22
-195.08
-196.10
-195.07
-192.33
-188.44
-183.75
-178.30
-172.02
-164.84
-156.69
-147.00
-134.47
-117.07
-92.81
-60.88
-22.42
19.48
60.69
97.38
127.17
149.46
164.96
174.81
179.86
180.51
177.03
169.82
159.60
147.27
133.79
119.90
106.10
92.61
79.47
66.89
55.19
44.79
36.15
29.69
25.69
24.16
24.95
27.92
33.34
41.37
51.58
62.96
74.21
84.21
92.21
98.08
102.11
105.53
109.09
112.55
114.89
115.31
113.69
110.58
106.76
102.74
99.72
97.86
96.04
92.58
86.73
79.01
70.92
64.16
60.00
60.61
66.86
77.52
89.83
100.88
108.40
110.78
107.13
87.38
48.84
-0.95
-48.29
-82.80
-101.58
-107.53
-106.57
-104.08
-103.49
-104.82
-107.14
-110.01
-113.87
-117.76
-120.35
-120.17
-116.12
-107.83
-94.50
-76.56
-56.12
-36.30
-19.62
-7.18
1.53
8.19
14.74
23.40
35.16
49.16
63.22
74.95
82.60
85.53
84.27
80.05
74.69
69.41
64.21
57.92
48.95
35.94
18.60
-2.06
-23.83
-43.74
-58.96
-67.63
-69.34
-65.16
-57.30
-48.43
-40.84
-35.74
-33.04
-31.72
-30.41
-28.03
-24.05
-18.59
-12.29
-6.19
-1.67
-0.00
-1.83
-6.50
-11.92
-15.16
-13.61
-6.19
6.05
20.46
33.90
43.97
49.49
50.34
46.88
39.54
28.96
16.20
2.94
-8.81
-17.33
-21.71
-22.12
-19.49
-15.01
-9.63
-3.81
2.41
9.12
16.42
24.26
32.48
40.77
48.76
56.08
62.45
67.90
72.84
77.99
84.03
91.23
99.09
106.23
110.63
109.98
102.11
85.25
58.51
22.28
-21.42
-68.85
-115.03
-154.82
-184.21
-201.35
-207.04
-204.01
-195.65
-184.84
-173.44
-162.42
-152.49
-144.50
-139.31
-137.56
-139.01
-142.37
-145.94
-148.56
-150.04
-150.87
-151.18
-149.89
-145.24
-135.01
-117.37
-91.47
-57.67
-16.82
29.76
80.42
132.27
179.38
214.59
232.24
230.65
212.82
185.63
156.47
131.27
112.65
98.07
83.51
66.60
47.94
29.91
15.04
3.46
-6.13
-15.74
-29.55
-50.39
-77.98
-109.20
-140.34
-168.14
-191.72
-210.23
-208.72
-178.46
-123.66
-59.90
-2.63
36.58
62.12
78.73
90.30
99.82
107.08
111.48
113.74
116.15
120.98
129.87
141.98
156.19
171.63
186.00
197.56
205.99
212.25
217.08
220.49
220.38
214.51
201.46
179.99
150.75
116.82
83.02
54.09
33.25
20.60
14.31
11.53
9.00
4.49
-2.53
-11.16
-20.07
-28.25
-35.67
-42.65
-49.45
-56.27
-63.06
-69.61
-75.82
-81.87
-88.10
-94.84
-102.05
-109.22
-115.71
-120.97
-124.92
-127.87
-130.27
-132.45
-134.41
-135.80
-136.06
-134.76
-131.76
-127.51
-122.87
-118.94
-116.61
-116.25
-117.66
-120.19
-123.23
-126.43
-130.08
-134.79
-141.07
-148.85
-157.27
-164.96
-170.53
-173.25
-172.82
-169.61
-163.91
-155.34
-142.55
-123.44
-96.00
-59.35
-14.84
34.42
83.15
125.55
156.99
175.52
182.30
181.00
176.74
174.20
177.92
189.70
208.31
228.99
244.02
244.70
224.46
182.04
122.44
57.53
0.06
-40.32
-60.48
-64.43
-60.56
-57.48
-56.96
-64.71
-76.84
-89.93
-102.55
-116.04
-132.97
-154.57
-178.43
-198.46
-207.55
-199.21
-172.40
-131.31
-83.26
-35.63
6.63
41.85
70.37
92.44
108.49
117.83
120.44
118.00
113.82
111.84
115.05
124.41
138.40
154.08
167.03
172.97
169.04
154.87
133.07
108.73
87.92
75.75
75.12
85.61
104.16
126.33
147.32
162.48
167.42
158.28
132.98
92.04
39.10
-19.20
-74.48
-118.88
-147.39
-159.14
-157.19
-146.06
-130.94
-116.27
-104.87
-97.54
-93.35
-90.20
-85.37
-76.01
-58.60
-31.56
3.66
42.76
80.25
111.26
132.63
143.41
144.85
141.46
137.72
136.42
138.12
141.96
146.58
150.28
151.32
137.92
104.78
55.94
2.41
-45.89
-84.48
-112.74
-131.46
-142.63
-147.43
-144.74
-134.39
-118.29
-99.93
-82.89
-69.52
-60.95
-57.77
-59.61
-64.21
-69.62
-74.87
-79.97
-85.05
-89.74
-93.32
-95.07
-94.30
-89.91
-81.57
-70.06
-57.06
-44.35
-33.09
-23.56
-15.07
-6.05
5.68
21.50
41.11
62.35
81.66
95.18
99.87
94.37
79.65
59.04
37.46
20.16
10.97
11.04
18.17
27.17
31.55
25.85
8.01
-19.50
-50.45
-77.25
-93.88
-98.06
-91.70
-79.73
-68.03
-61.40
-62.17
-69.57
-79.85
-87.09
-84.94
-68.71
-37.36
5.87
54.45
101.04
140.07
169.00
187.45
195.30
191.45
174.54
144.88
106.30
66.20
32.99
12.68
6.65
11.73
22.27
32.70
39.19
40.02
35.24
26.09
14.81
4.67
-0.53
2.08
12.86
29.03
45.46
57.08
60.64
55.49
43.34
27.56
11.23
-4.08
-18.59
-33.91
-50.80
-69.19
-88.20
-106.04
-119.37
-124.81
-120.38
-106.39
-86.37
-63.67
-42.38
-27.21
-22.10
-27.69
-42.31
-63.03
-86.66
-111.37
-132.29
-144.61
-145.31
-132.95
-106.25
-65.78
-14.80
41.20
94.71
144.01
190.46
236.11
266.82
269.05
239.34
187.94
144.36
111.05
86.70
70.87
57.51
45.23
35.49
30.09
29.50
32.21
33.67
33.20
31.14
27.46
22.69
18.65
17.27
19.41
24.29
28.69
32.40
36.23
40.91
47.60
57.80
72.25
89.99
107.98
121.02
125.73
120.16
103.79
78.34
47.41
15.55
-13.09
-35.79
-51.98
-61.72
-65.86
-65.85
-63.13
-58.83
-53.76
-48.40
-42.99
-37.66
-31.98
-25.56
-18.32
-10.56
-2.99
3.63
8.81
12.48
14.96
16.71
18.08
19.12
19.58
19.01
16.99
13.26
7.75
0.50
-8.39
-18.76
-30.31
-42.42
-54.06
-64.01
-71.28
-75.23
-75.74
-73.26
-68.57
-62.50
-55.68
-48.56
-41.59
-35.56
-31.32
-29.44
-29.89
-31.97
-34.51
-36.31
-36.70
-35.78
-34.73
-34.85
-36.79
-40.43
-45.06
-49.87
-54.29
-58.23
-61.91
-66.65
-73.03
-80.40
-87.22
-92.13
-94.56
-94.70
-93.15
-90.56
-89.38
-90.77
-93.88
-96.71
-97.84
-97.15
-95.34
-93.29
-91.57
-93.62
-101.01
-112.30
-124.23
-134.28
-141.83
-147.72
-153.32
-159.82
-171.94
-191.30
-214.79
-236.57
-251.98
-259.73
-261.16
-258.49
-226.40
-156.36
-60.73
36.23
116.21
172.60
206.19
221.06
222.91
217.86
206.94
191.38
174.11
159.11
149.11
144.36
143.41
144.10
144.31
139.40
127.63
111.46
95.18
83.22
77.58
77.61
81.08
85.42
86.76
83.48
76.75
69.19
62.88
58.35
55.22
53.16
52.26
51.87
51.64
51.59
51.80
52.14
52.18
51.77
51.26
51.37
52.41
54.31
56.67
58.71
59.47
58.21
54.84
50.16
45.48
42.06
40.40
40.00
39.63
37.87
33.68
26.52
16.14
2.41
-14.68
-34.59
-55.75
-75.66
-91.43
-100.92
-103.59
-100.55
-93.88
-85.58
-76.87
-68.26
-60.25
-53.74
-49.89
-49.25
-51.00
-52.92
-52.41
-47.87
-39.79
-30.68
-23.88
-21.97
-25.65
-33.66
-43.55
-52.98
-60.47
-65.69
-69.07
-71.21
-72.41
-72.47
-70.73
-66.37
-58.79
-47.91
-34.24
-18.73
-2.35
14.07
29.90
44.53
57.18
66.96
73.20
75.78
75.22
72.55
68.88
65.03
61.48
58.36
55.79
53.89
52.71
52.13
51.90
51.73
51.45
51.14
50.92
50.73
50.35
49.55
48.22
46.52
44.85
43.70
43.48
44.26
45.63
47.00
47.85
47.87
47.09
45.83
44.61
44.03
44.38
45.24
45.86
45.45
43.33
39.16
33.11
25.84
18.66
12.82
8.56
5.97
4.97
4.90
4.71
3.33
0.13
-4.07
-7.94
-11.45
-14.41
-16.62
-19.08
-23.57
-31.84
-44.41
-58.89
-71.44
-79.98
-82.09
-75.71
-61.28
-41.61
-20.68
-1.84
14.64
29.94
43.14
54.35
64.63
73.98
81.82
88.03
83.79
65.18
49.45
43.73
43.48
45.92
48.70
50.31
50.10
48.22
45.69
42.32
34.68
21.17
3.30
-16.52
-36.04
-57.34
-79.90
-100.83
-116.93
-127.66
-132.35
-130.74
-123.91
-113.71
-102.27
-90.75
-78.92
-66.40
-54.00
-41.96
-29.85
-17.59
-5.50
6.00
17.07
28.28
40.21
52.75
65.52
77.86
88.62
96.48
100.42
100.18
96.08
88.85
79.34
68.12
55.45
41.39
26.10
10.04
-6.09
-21.76
-37.85
-53.62
-67.64
-78.31
-84.32
-86.20
-84.61
-80.59
-75.80
-71.87
-69.21
-67.96
-67.48
-66.21
-61.83
-53.01
-40.84
-28.42
-18.83
-13.41
-10.89
-9.71
-8.66
-6.99
-4.13
0.24
5.44
11.38
18.23
25.71
32.91
38.52
41.24
40.61
36.85
30.70
23.34
15.80
8.48
1.12
-6.84
-17.63
-31.11
-45.01
-56.43
-63.66
-66.70
-67.30
-67.17
-67.36
-68.01
-68.51
-67.81
-64.91
-59.21
-50.73
-40.10
-28.06
-15.13
-1.38
13.57
29.63
45.69
59.90
70.46
76.56
78.77
78.66
78.01
78.14
79.41
81.31
83.17
84.65
85.95
87.62
90.19
93.92
98.85
104.59
110.41
115.26
118.02
117.85
114.50
108.33
100.27
91.61
83.62
77.27
72.96
70.07
66.56
59.17
44.39
20.23
-12.16
-47.92
-79.85
-101.06
-107.80
-100.90
-85.02
-66.31
-49.63
-37.14
-28.55
-22.66
-18.89
-17.66
-19.73
-25.08
-32.43
-39.57
-44.46
-46.21
-45.24
-42.94
-40.79
-39.67
-39.68
-40.31
-40.87
-40.80
-39.89
-38.23
-36.11
-33.82
-31.37
-28.40
-24.14
-17.81
-9.07
1.51
12.37
21.25
25.99
25.16
18.57
7.24
-7.01
-22.02
-35.80
-46.84
-54.28
-57.86
-57.83
-54.78
-49.38
-42.34
-34.34
-26.12
-18.50
-12.15
-7.47
-4.33
-2.20
-0.38
1.65
4.11
7.01
10.37
14.42
19.46
25.60
32.50
39.48
45.75
50.73
54.28
56.56
57.72
57.69
56.00
51.91
44.55
33.14
17.38
-2.21
-24.04
-45.47
-63.42
-75.13
-79.01
-74.99
-64.35
-49.12
-31.51
-13.52
3.08
16.75
26.34
31.36
32.28
30.42
27.53
25.12
24.04
24.27
25.14
25.46
23.73
18.27
7.56
-9.14
-31.17
-56.21
-80.63
-100.51
-112.79
-116.07
-110.76
-98.60
-81.88
-62.87
-43.50
-25.32
-9.55
3.04
12.22
18.34
22.26
25.02
27.56
30.47
34.01
38.07
42.31
46.25
49.43
51.47
52.17
51.52
49.59
46.46
42.11
36.54
29.81
22.20
14.28
6.75
0.24
-4.89
-8.64
-11.40
-13.61
-15.59
-17.43
-19.10
-20.62
-22.18
-24.13
-26.77
-30.22
-34.16
-37.87
-40.44
-41.15
-39.76
-36.58
-32.35
-27.90
-24.07
-21.33
-19.79
-19.34
-19.99
-21.82
-24.98
-29.31
-34.21
-39.04
-42.77
-44.06
-41.81
-35.75
-26.51
-15.53
-4.23
6.37
15.05
21.46
26.34
30.83
35.64
40.75
45.36
48.76
50.66
50.01
46.62
41.85
37.64
35.12
34.13
32.97
29.87
23.47
11.25
-8.20
-33.94
-63.02
-91.81
-116.50
-134.53
-144.37
-135.85
-106.87
-66.33
-27.81
0.67
16.63
26.16
33.20
39.18
43.97
45.99
44.12
39.40
34.15
30.03
27.63
25.99
24.22
22.04
18.53
13.67
8.94
6.53
7.80
13.07
21.08
30.20
38.82
44.86
47.03
45.41
41.20
35.64
29.97
25.02
21.43
19.52
19.02
19.53
20.93
23.47
27.11
31.79
37.23
42.78
47.44
50.34
51.18
50.32
48.70
46.82
44.88
42.72
39.50
33.84
24.68
11.73
-4.48
-22.60
-41.42
-59.69
-73.92
-80.52
-78.79
-71.53
-62.54
-56.48
-52.54
-49.33
-45.88
-41.84
-36.42
-30.09
-23.24
-15.86
-7.82
1.04
10.06
18.55
26.21
32.85
38.12
41.88
44.11
44.70
43.67
40.80
36.21
30.54
24.44
18.16
11.76
5.17
-1.83
-9.43
-18.09
-28.16
-39.68
-52.25
-64.94
-76.13
-83.82
-86.39
-83.32
-75.69
-65.70
-55.65
-46.97
-39.67
-32.50
-23.77
-12.45
1.33
16.21
30.31
41.93
50.09
54.64
56.13
55.49
53.76
51.92
50.67
50.39
51.06
52.39
53.98
55.47
56.68
57.53
58.01
58.13
57.99
57.86
58.25
59.81
63.10
68.32
75.20
82.96
90.61
97.17
101.98
104.71
105.27
103.68
100.05
94.69
88.33
82.10
77.37
75.26
76.27
80.21
86.39
94.02
102.45
111.13
119.23
125.30
127.20
122.55
109.41
87.09
56.48
19.98
-19.12
-57.39
-91.93
-120.75
-142.76
-157.71
-165.94
-168.31
-166.15
-161.12
-155.09
-149.75
-146.24
-144.92
-145.36
-146.52
-147.16
-146.09
-142.52
-136.11
-127.03
-115.79
-103.11
-89.75
-76.39
-63.75
-52.56
-43.71
-38.02
-36.02
-37.60
-41.89
-47.39
-52.53
-56.14
-57.87
-58.17
-57.84
-57.54
-57.26
-56.25
-53.32
-47.41
-38.21
-26.37
-13.40
-1.09
9.01
15.99
19.57
19.95
17.68
13.68
9.28
6.29
6.58
11.54
21.43
35.04
49.97
63.33
72.63
76.59
75.35
70.39
63.99
58.65
56.45
58.56
64.97
74.47
84.92
93.79
98.68
97.80
90.27
76.14
56.37
32.60
6.96
-18.28
-41.05
-59.84
-73.99
-83.66
-89.65
-92.99
-94.48
-94.48
-92.79
-88.95
-82.58
-73.76
-63.18
-52.02
-41.58
-32.92
-26.53
-22.32
-19.79
-18.41
-17.77
-17.65
-17.94
-18.41
-18.75
-18.61
-17.83
-16.48
-14.92
-13.59
-12.88
-12.86
-13.22
-13.31
-12.29
-9.46
-4.46
2.49
10.66
19.07
26.81
33.34
38.66
43.20
47.53
52.11
57.13
62.49
67.91
72.85
76.50
77.84
75.86
69.92
60.16
47.63
34.04
21.27
10.71
2.94
-2.28
-5.64
-7.83
-9.21
-9.78
-9.30
-7.52
-4.41
-0.18
4.78
10.03
15.18
20.00
24.40
28.40
31.72
33.75
33.63
30.54
24.04
14.27
1.98
-11.74
-25.81
-39.50
-52.54
-64.92
-76.64
-87.51
-97.11
-104.98
-110.61
-113.55
-113.78
-111.68
-107.89
-103.13
-98.07
-93.14
-88.62
-84.18
-78.80
-71.77
-62.88
-52.42
-41.18
-30.23
-20.58
-13.24
-8.16
-3.74
1.14
6.96
13.52
19.97
24.91
26.99
24.68
18.26
10.62
4.37
1.29
2.25
6.73
12.77
17.54
17.17
9.45
-4.31
-22.16
-41.13
-56.89
-64.99
-62.40
-42.44
-7.63
25.73
51.72
69.76
79.81
83.38
82.60
79.31
74.65
68.31
60.93
55.55
54.10
57.20
64.42
74.07
83.59
90.44
92.34
89.13
83.53
77.78
73.15
70.02
67.84
65.44
61.64
55.17
45.84
35.03
23.89
13.29
4.04
-3.28
-8.41
-11.38
-12.60
-12.30
-10.30
-6.91
-2.92
0.74
3.18
3.95
3.23
1.72
0.44
0.44
2.12
5.14
8.68
11.78
13.73
14.25
13.59
12.26
10.88
9.87
9.49
9.85
10.95
12.77
14.98
16.94
17.73
16.54
13.27
8.94
5.72
6.28
12.95
26.79
47.16
71.82
97.72
121.99
142.72
159.23
171.78
181.07
187.63
191.32
191.26
186.14
174.82
156.82
132.59
103.29
70.77
37.18
4.61
-25.39
-52.00
-75.22
-95.75
-114.72
-133.70
-153.57
-174.10
-194.26
-213.20
-230.68
-247.21
-263.82
-281.38
-300.77
-320.82
-337.63
-345.55
-339.38
-316.08
-276.12
-223.69
-165.44
-110.04
-63.92
-29.28
-4.90
11.18
20.34
22.87
18.47
7.44
-10.99
-35.99
-64.51
-92.46
-116.47
-133.49
-141.12
-138.00
-112.40
-63.91
-5.63
44.89
78.39
95.65
102.93
108.14
114.52
122.54
129.64
134.31
137.50
141.90
145.39
146.71
145.08
140.46
134.12
126.15
117.19
108.56
101.53
96.29
93.08
91.49
90.43
88.81
84.53
76.90
66.74
55.70
45.10
36.65
30.82
26.62
22.36
15.73
6.47
-4.34
-15.04
-24.20
-29.64
-30.40
-27.31
-22.28
-17.87
-14.13
-9.95
-4.00
4.94
19.30
40.20
66.59
95.50
122.72
146.59
166.48
182.23
183.18
164.02
128.81
88.50
59.00
38.83
25.10
16.02
9.12
4.01
2.15
4.27
9.36
15.06
18.29
19.02
18.36
17.59
17.96
21.31
28.33
38.08
48.38
56.48
61.91
64.88
65.57
64.02
60.74
56.01
49.67
41.42
30.86
19.07
7.45
-2.80
-10.51
-14.50
-14.36
-11.09
-7.35
-6.81
-12.11
-23.97
-40.64
-58.33
-72.81
-81.30
-83.56
-81.51
-78.11
-75.06
-72.07
-67.49
-59.74
-48.42
-34.70
-20.50
-7.52
3.05
10.98
16.72
20.97
24.28
27.11
29.76
32.64
36.18
39.35
40.76
39.21
34.45
27.77
22.13
21.29
28.55
44.60
64.14
79.36
83.69
74.85
55.73
33.46
15.07
4.62
0.69
-6.71
-26.71
-61.64
-106.25
-151.90
-190.90
-221.91
-247.79
-273.52
-309.44
-359.24
-417.38
-473.52
-519.49
-551.44
-572.16
-584.09
-587.57
-589.79
-593.64
-595.99
-591.74
-579.32
-559.69
-538.46
-517.98
-447.87
-311.70
-134.03
38.64
173.90
254.14
301.78
333.55
360.52
388.10
408.81
415.84
409.72
396.46
382.50
373.96
366.41
358.02
356.72
355.93
345.01
322.01
291.54
260.29
234.89
216.66
206.37
202.25
195.47
180.57
159.33
137.94
122.46
116.51
118.51
126.61
137.66
145.09
144.61
135.83
119.72
96.80
67.19
26.08
-22.68
-69.27
-106.52
-132.51
-148.29
-155.05
-152.97
-141.83
-122.99
-98.92
-74.70
-56.49
-47.95
-48.42
-54.06
-60.23
-63.53
-62.48
-56.53
-47.20
-37.65
-31.09
-29.39
-32.51
-38.79
-44.99
-47.59
-42.96
-30.35
-12.26
6.94
23.55
36.27
43.77
46.77
46.84
46.96
48.89
52.53
56.38
58.63
57.80
53.12
45.50
37.53
34.74
41.86
60.26
87.07
116.73
143.70
164.52
179.27
180.41
165.97
140.68
112.79
87.92
67.46
50.47
35.35
20.53
4.10
-13.78
-32.29
-50.47
-67.97
-85.16
-102.19
-117.91
-129.53
-133.83
-127.29
-109.02
-81.77
-51.20
-22.83
0.57
17.14
28.14
35.45
39.77
39.20
31.02
13.90
-10.06
-35.83
-58.01
-72.96
-80.10
-80.73
-78.33
-73.81
-67.48
-59.46
-49.96
-39.86
-30.25
-22.16
-16.24
-12.66
-10.76
-9.74
-8.56
-6.33
-2.68
2.25
8.05
14.00
19.67
24.97
29.93
34.46
38.16
40.36
39.52
35.46
29.49
23.54
18.93
15.83
13.98
13.30
13.99
16.13
19.58
22.98
24.74
23.65
19.34
12.25
3.41
-5.88
-13.65
-17.15
-14.85
-7.31
2.60
11.20
15.42
14.08
8.02
-0.71
-10.02
-18.96
-27.32
-35.29
-42.54
-48.35
-51.93
-53.05
-52.04
-49.63
-47.23
-44.39
-40.38
-34.28
-25.61
-14.52
-1.81
11.45
23.79
33.91
41.33
45.24
46.23
45.38
43.75
41.96
40.37
39.28
38.81
39.95
44.04
52.20
64.32
78.79
92.54
102.21
104.43
97.84
83.67
64.82
44.57
24.99
6.59
-11.90
-31.42
-53.05
-76.45
-99.76
-120.22
-135.46
-144.62
-148.32
-148.46
-140.39
-122.70
-97.12
-67.58
-37.53
-9.53
12.70
28.59
37.21
38.44
32.43
20.73
5.53
-10.33
-24.42
-35.26
-41.96
-44.31
-41.81
-34.63
-20.95
-1.88
18.88
36.86
49.30
56.10
58.39
57.76
54.74
49.38
41.19
30.46
18.28
6.28
-3.99
-12.01
-17.87
-22.48
-26.67
-30.59
-33.05
-32.07
-25.93
-14.54
0.07
14.61
25.94
32.77
35.65
36.94
39.52
45.14
53.30
60.31
62.35
56.19
41.19
19.98
-2.19
-19.71
-28.92
-29.53
-24.35
-17.29
-11.55
-8.15
-6.33
-4.70
-2.44
-0.13
0.99
0.02
-2.66
-5.58
-6.71
-4.42
1.73
10.86
20.95
29.42
34.06
33.91
29.75
23.93
19.44
18.21
20.68
25.84
31.85
37.14
40.75
42.27
41.36
37.43
29.44
16.90
0.39
-18.36
-37.05
-53.50
-66.31
-75.17
-78.12
-75.45
-69.01
-61.64
-56.26
-54.94
-58.11
-64.52
-71.71
-76.97
-78.32
-74.16
-63.24
-44.93
-19.95
9.01
37.30
59.59
71.97
73.56
67.32
58.82
53.84
55.70
63.82
73.88
79.64
75.45
58.29
28.96
-8.40
-48.04
-84.40
-113.41
-132.79
-141.58
-139.64
-127.71
-107.70
-83.03
-58.35
-38.16
-25.07
-18.66
-15.80
-12.15
-4.27
9.20
27.30
47.51
67.14
84.30
98.07
107.95
113.43
114.00
109.54
100.70
88.76
75.49
62.77
52.17
44.47
39.57
36.54
33.72
29.28
21.46
9.48
-5.81
-22.16
-36.77
-47.36
-52.66
-52.57
-46.39
-34.49
-19.06
-3.18
10.97
22.83
32.83
41.54
48.99
55.02
58.91
59.93
57.81
52.90
45.88
37.61
29.80
22.24
14.96
7.91
1.12
-4.87
-8.77
-8.91
-3.87
6.43
19.91
32.91
40.68
38.80
24.57
-2.30
-38.95
-79.31
-115.36
-139.33
-145.72
-133.62
-107.48
-75.65
-47.42
-29.31
-23.29
-27.04
-36.28
-46.52
-55.12
-61.62
-66.69
-70.79
-72.99
-71.77
-66.47
-58.32
-49.30
-41.26
-34.90
-29.22
-22.21
-11.31
4.92
26.86
49.72
66.90
74.30
72.18
65.12
56.16
48.12
43.36
43.31
47.19
53.62
60.73
66.61
69.78
69.17
65.24
59.26
52.45
45.04
37.20
29.48
22.64
17.10
11.63
4.59
-5.40
-18.56
-33.62
-47.77
-57.92
-62.53
-59.09
-49.57
-39.03
-31.72
-27.73
-24.58
-20.18
-14.55
-9.33
-6.06
-6.16
-8.27
-10.38
-10.89
-9.57
-7.18
-4.75
-3.16
-2.77
-3.96
-5.83
-7.26
-6.94
-4.04
1.29
7.84
13.56
16.37
14.68
8.74
0.35
-7.56
-12.19
-11.89
-6.65
2.04
12.01
21.05
28.09
32.89
35.87
37.54
38.04
37.29
35.19
32.20
28.31
24.52
22.17
22.07
24.03
26.84
29.57
30.99
30.45
27.81
23.48
17.75
10.33
1.18
-9.51
-21.27
-33.33
-44.52
-53.51
-58.93
-60.06
-57.13
-51.23
-44.12
-37.61
-33.10
-31.12
-31.20
-32.08
-32.52
-31.81
-30.00
-27.76
-26.02
-25.67
-27.24
-30.39
-33.71
-35.39
-33.91
-28.54
-19.67
-8.58
2.86
12.81
20.48
26.49
32.09
38.37
45.89
54.52
63.59
71.71
76.57
75.78
67.74
52.26
31.13
8.37
-10.78
-21.27
-19.07
-6.77
7.19
14.92
13.78
6.15
-3.38
-11.19
-15.94
-18.86
-21.93
-25.51
-28.23
-28.26
-24.80
-18.49
-11.20
-4.83
-0.67
1.04
1.50
2.61
5.83
11.52
19.92
30.18
41.03
51.24
58.59
62.03
61.54
57.86
51.97
44.73
36.56
27.72
18.36
8.68
-0.64
-8.77
-14.80
-18.23
-19.06
-17.78
-15.11
-11.94
-9.03
-6.80
-5.30
-4.27
-3.53
-3.05
-3.01
-3.65
-5.02
-6.93
-8.95
-10.54
-11.14
-10.61
-9.25
-7.63
-6.40
-6.04
-6.75
-8.49
-10.60
-11.52
-10.08
-5.80
1.09
9.62
18.38
25.89
30.53
31.80
30.92
28.47
24.25
17.70
8.02
-5.20
-21.46
-39.95
-58.06
-71.12
-76.60
-74.66
-67.30
-57.84
-49.86
-46.15
-49.38
-59.65
-73.25
-86.92
-97.78
-102.69
-99.50
-88.05
-62.47
-26.33
2.36
20.11
30.99
38.51
46.16
56.08
68.45
81.90
93.16
100.49
105.73
110.22
114.66
119.56
124.28
126.56
122.63
107.33
77.39
34.14
-18.68
-74.90
-126.77
-167.45
-193.06
-203.09
-199.91
-185.78
-160.96
-125.84
-82.22
-34.24
11.57
47.91
69.49
74.93
67.56
53.89
39.63
27.52
17.12
6.24
-6.87
-21.64
-34.88
-41.74
-37.56
-20.26
8.44
43.47
78.03
105.81
122.81
128.09
123.19
110.72
93.17
72.37
49.80
27.06
6.10
-11.07
-23.05
-29.56
-31.52
-30.62
-28.70
-27.22
-27.12
-28.83
-32.50
-37.85
-43.97
-49.57
-53.30
-54.18
-52.03
-47.73
-42.85
-39.05
-37.19
-36.90
-37.01
-36.09
-32.97
-27.12
-18.71
-8.69
0.90
7.16
7.26
-0.86
-16.99
-37.42
-55.71
-64.87
-60.19
-41.78
-13.73
18.71
50.20
77.49
100.54
121.35
141.92
162.76
181.33
194.76
202.94
206.00
204.28
198.92
190.92
180.70
167.88
150.23
126.96
101.74
76.92
52.87
29.66
6.93
-15.74
-38.79
-65.18
-96.61
-129.53
-161.48
-190.60
-213.15
-225.15
-224.20
-196.85
-143.34
-95.49
-64.68
-46.93
-38.89
-35.71
-33.17
-28.89
-23.41
-21.30
-25.09
-30.25
-32.93
-30.78
-22.34
-8.96
5.69
15.59
13.06
-5.51
-35.85
-72.72
-110.73
-144.11
-168.18
-178.56
-172.69
-151.15
-115.80
-69.59
-21.77
14.53
29.88
16.20
-20.26
-63.86
-100.41
-121.64
-119.22
-93.34
-49.97
2.99
58.23
111.75
159.99
198.60
223.70
232.68
224.25
200.67
167.94
133.78
106.65
91.35
83.61
78.61
71.26
57.77
37.73
15.82
-6.36
-26.98
-45.24
-61.51
-74.61
-82.14
-81.81
-72.92
-57.47
-39.89
-24.13
-12.78
-6.58
-4.16
-2.70
1.00
9.06
21.82
38.53
58.73
81.22
102.81
112.94
101.68
68.25
22.69
-21.19
-53.45
-71.23
-76.94
-73.38
-63.04
-47.24
-26.00
-0.60
24.17
40.73
43.02
30.78
9.91
-9.55
-22.50
-26.28
-21.73
-12.91
-5.03
-2.47
-7.57
-20.62
-39.98
-61.67
-78.48
-84.64
-79.17
-65.82
-50.51
-38.36
-31.99
-31.39
-34.99
-38.86
-41.33
-44.19
-50.37
-60.41
-70.80
-75.62
-69.11
-47.79
-8.76
46.42
111.04
175.48
230.87
271.49
295.02
301.96
279.17
224.04
148.42
72.01
9.29
-34.66
-60.61
-71.64
-71.72
-65.26
-53.77
-38.61
-22.00
-6.71
4.98
12.39
14.65
11.66
4.55
-2.23
-4.75
-2.06
3.31
7.40
7.03
0.89
-10.00
-23.07
-33.85
-39.74
-40.79
-39.40
-38.69
-40.59
-45.34
-51.52
-57.16
-59.42
-56.94
-50.08
-40.45
-29.84
-19.44
-10.32
-3.03
-0.97
-7.07
-21.46
-40.31
-57.68
-68.10
-68.68
-60.38
-47.16
-35.69
-27.87
-23.75
-21.79
-19.92
-16.54
-10.83
-2.41
9.00
23.53
41.20
59.90
75.95
85.04
84.13
73.24
56.23
39.28
28.36
27.33
35.99
50.64
65.65
75.43
76.45
68.20
52.49
32.25
10.94
-8.86
-25.85
-39.97
-52.04
-62.79
-72.38
-78.13
-78.31
-73.10
-64.87
-56.24
-48.54
-41.87
-37.22
-33.14
-29.19
-25.88
-23.55
-22.01
-20.48
-16.90
-10.32
-0.75
11.24
23.04
32.24
38.46
42.79
46.46
49.93
52.34
52.72
50.24
44.05
34.01
20.82
5.48
-11.30
-29.17
-48.02
-65.30
-76.35
-76.25
-61.90
-34.17
1.55
36.85
63.86
76.59
75.20
65.88
56.24
51.21
51.44
54.31
56.14
54.12
46.96
34.87
18.79
0.00
-19.68
-38.12
-53.37
-64.43
-71.52
-75.51
-76.88
-76.35
-73.23
-67.48
-59.73
-51.06
-42.54
-34.78
-27.68
-20.93
-14.54
-9.66
-8.18
-11.11
-17.22
-23.09
-24.77
-19.47
-7.70
7.16
19.85
25.48
21.96
10.80
-3.75
-16.99
-24.86
-25.53
-17.72
-1.67
20.79
46.93
74.00
99.82
122.82
142.91
155.09
155.56
142.47
117.07
83.69
48.86
21.57
4.19
-2.92
-2.32
2.75
8.97
13.96
16.20
15.53
13.07
10.10
8.06
6.15
3.52
-0.58
-6.48
-14.36
-24.14
-35.44
-47.68
-59.94
-73.36
-88.68
-105.60
-122.49
-136.89
-146.24
-148.91
-145.14
-130.88
-108.89
-86.05
-67.92
-54.12
-39.41
-19.14
7.14
34.89
60.36
79.22
90.21
95.63
99.31
104.55
112.81
119.97
123.07
120.92
113.39
101.98
88.39
72.76
55.27
34.02
9.05
-16.63
-38.62
-53.80
-61.08
-58.81
-48.86
-35.29
-22.84
-14.61
-10.67
-8.92
-6.76
-2.12
5.67
15.17
24.06
30.08
32.13
30.48
25.81
18.22
7.22
-7.79
-27.10
-49.68
-73.20
-94.67
-111.59
-122.87
-129.05
-131.74
-132.72
-133.56
-135.00
-136.69
-137.82
-137.56
-135.22
-130.33
-122.86
-113.17
-102.23
-91.19
-80.37
-69.87
-59.54
-48.66
-35.74
-19.19
2.35
28.91
59.07
91.38
123.48
152.68
177.02
195.75
208.80
216.84
220.23
219.09
215.21
209.84
203.35
195.57
186.06
173.98
159.24
142.06
114.79
77.38
35.88
-1.97
-32.18
-54.07
-72.26
-89.13
-105.10
-119.62
-129.11
-131.93
-129.03
-122.63
-112.89
-100.55
-85.80
-69.34
-52.34
-34.73
-18.12
-5.06
4.09
9.45
11.93
13.86
17.22
23.25
33.89
49.30
66.13
81.29
92.16
97.22
96.71
91.13
76.01
50.92
18.23
-17.61
-51.79
-81.22
-105.68
-124.40
-137.29
-145.53
-146.92
-141.92
-132.12
-119.25
-104.85
-89.82
-74.34
-58.75
-43.57
-28.45
-13.48
1.62
17.52
34.66
52.87
71.33
88.38
102.24
112.21
118.07
120.33
119.87
116.94
111.08
101.56
87.76
69.89
49.52
28.52
8.74
-8.58
-22.77
-32.99
-37.53
-34.26
-22.08
-2.48
19.89
38.89
49.31
48.93
39.21
24.33
8.86
-4.46
-15.44
-25.35
-34.91
-43.20
-48.24
-48.32
-43.14
-34.39
-25.38
-19.57
-19.04
-22.50
-23.75
-15.24
4.92
30.23
49.44
52.91
38.01
10.30
-19.12
-39.99
-47.90
-45.62
-39.93
-37.38
-41.18
-50.45
-61.08
-67.30
-64.96
-51.84
-28.95
0.02
29.85
55.35
73.01
80.20
79.06
73.99
68.72
64.20
58.91
50.27
36.66
18.58
-1.40
-19.61
-33.44
-42.28
-47.48
-51.29
-55.41
-60.04
-63.96
-65.38
-62.84
-56.52
-48.09
-40.30
-34.66
-31.67
-30.51
-29.62
-27.41
-22.90
-16.24
-8.53
-1.33
4.03
6.84
7.26
6.19
4.79
4.27
5.52
9.19
15.72
25.05
36.42
48.35
58.84
66.01
68.80
67.23
62.35
55.81
48.93
42.32
35.82
28.89
21.06
12.36
3.41
-5.18
-11.64
-13.95
-10.45
-0.61
14.43
31.91
48.13
59.64
64.36
62.15
54.45
43.45
31.11
18.64
6.43
-5.53
-17.22
-28.38
-38.51
-47.18
-54.31
-60.11
-64.92
-68.89
-71.90
-73.54
-73.36
-71.01
-66.55
-60.39
-53.24
-45.99
-39.66
-35.28
-33.65
-34.99
-38.77
-43.77
-48.55
-51.90
-53.21
-52.54
-50.32
-47.03
-42.95
-38.18
-32.83
-27.23
-21.98
-17.71
-14.85
-13.36
-12.65
-11.92
-10.43
-7.91
-4.61
-1.26
1.44
3.08
3.75
3.91
4.07
4.50
5.19
5.92
6.50
6.92
7.43
8.33
9.99
12.56
15.95
19.79
23.54
26.59
28.54
29.30
29.14
28.65
28.42
28.79
29.55
29.86
28.41
23.94
15.68
3.88
-10.07
-23.73
-34.18
-38.81
-36.07
-26.13
-10.89
6.60
23.01
35.70
43.24
45.56
43.51
38.49
32.10
25.98
21.56
19.80
20.81
23.87
27.88
31.95
35.96
40.45
45.96
52.49
59.32
65.30
69.66
72.38
74.00
75.11
75.80
75.62
74.03
70.99
67.18
63.70
61.52
60.98
61.77
63.26
64.85
66.42
68.20
70.69
74.30
79.16
85.06
91.49
98.04
104.61
111.69
120.20
131.11
144.88
160.95
177.69
192.85
204.34
211.08
213.47
213.33
213.19
215.31
220.65
228.46
236.46
241.67
241.55
234.89
222.04
204.51
184.04
161.93
138.57
113.67
86.75
57.63
26.68
-5.23
-36.90
-66.99
-94.21
-117.38
-135.71
-149.13
-158.50
-165.57
-172.71
-181.99
-194.43
-209.77
-226.76
-243.74
-259.18
-272.04
-281.68
-287.84
-290.20
-288.48
-282.79
-274.12
-264.42
-256.08
-251.10
-250.21
-252.95
-257.32
-260.74
-261.15
-258.23
-253.56
-249.92
-250.17
-256.01
-268.31
-285.67
-304.62
-320.69
-330.00
-330.17
-320.75
-303.55
-282.42
-264.20
-253.80
-251.47
-252.45
-249.18
-234.25
-203.26
-156.94
-101.28
-48.69
-9.95
10.40
14.52
8.35
-1.42
-9.14
-11.50
-7.75
-3.02
-1.23
-2.48
-4.33
-4.97
-4.47
-3.72
-3.29
21.77
79.29
155.43
226.48
277.98
308.32
322.30
325.82
323.30
317.06
303.86
282.09
254.25
225.89
201.84
184.39
173.78
169.01
168.46
167.22
161.64
150.42
133.68
112.00
85.27
55.00
24.90
-0.19
-18.00
-27.49
-28.81
-23.32
-13.61
-2.73
7.23
15.27
21.04
23.27
21.12
14.65
4.82
-6.98
-19.16
-29.74
-36.75
-38.73
-36.36
-30.95
-24.54
-19.70
-19.00
-24.18
-35.35
-50.88
-68.13
-84.46
-98.07
-108.12
-114.77
-118.49
-119.66
-118.60
-115.82
-112.04
-107.52
-101.27
-90.38
-71.91
-44.74
-10.68
25.86
59.53
86.07
104.08
115.27
124.25
134.37
146.01
156.95
164.60
167.84
167.71
166.83
168.19
175.65
189.85
207.93
225.58
239.67
249.45
255.80
259.76
261.47
262.44
261.73
256.46
243.97
223.93
198.56
171.01
143.83
101.24
40.10
-30.09
-94.39
-143.06
-173.83
-188.74
-191.42
-186.06
-176.78
-164.69
-151.59
-140.11
-132.51
-129.28
-129.20
-130.53
-132.36
-134.29
-134.12
-130.83
-124.82
-117.33
-109.53
-102.26
-96.20
-91.35
-87.03
-80.80
-71.24
-58.71
-44.82
-31.48
-19.72
-9.26
1.59
14.71
31.52
51.07
70.28
85.26
93.15
93.12
86.30
75.28
62.68
50.49
39.64
30.51
23.38
18.53
15.67
11.37
3.33
-7.78
-18.01
-23.35
-23.11
-20.90
-21.82
-30.34
-47.33
-69.24
-90.10
-104.55
-110.31
-107.55
-99.21
-89.47
-81.90
-78.07
-77.07
-76.74
-75.09
-71.35
-66.14
-61.08
-57.87
-57.65
-60.50
-65.39
-70.72
-74.85
-76.46
-74.76
-69.71
-62.04
-53.33
-45.79
-41.74
-42.99
-50.12
-62.23
-77.15
-92.29
-105.33
-114.90
-120.48
-122.06
-119.63
-112.91
-101.50
-85.16
-64.13
-39.18
-11.45
17.95
48.11
78.41
108.31
137.04
163.52
186.32
204.03
215.55
220.56
219.54
213.67
204.41
192.90
179.73
164.88
147.99
128.94
108.13
86.60
65.61
46.29
29.21
14.41
1.76
-8.67
-16.20
-19.75
-18.33
-11.76
-1.05
11.66
23.89
33.56
39.58
42.00
41.59
39.28
35.76
31.35
26.24
20.83
15.67
11.33
8.11
5.89
4.19
2.43
0.31
-1.85
-2.80
-1.08
4.42
13.90
26.49
40.43
53.71
64.75
72.99
79.84
87.27
97.22
110.58
126.92
144.64
161.50
175.50
185.42
192.18
197.01
200.80
203.45
204.00
201.15
193.78
181.32
163.51
141.22
114.30
82.18
45.21
6.08
-29.80
-56.22
-69.04
-77.88
-91.13
-114.45
-146.31
-179.17
-204.09
-215.16
-211.91
-199.24
-183.36
-166.84
-149.99
-131.53
-110.52
-87.42
-64.03
-43.92
-29.65
-22.06
-19.05
-17.71
-15.21
-9.87
-1.47
8.90
19.37
28.20
34.22
37.77
39.59
40.49
40.84
40.50
39.01
35.93
31.16
24.92
17.84
10.32
2.38
-6.22
-15.69
-25.88
-36.06
-44.91
-50.90
-52.61
-49.42
-41.62
-30.47
-17.73
-5.25
5.47
13.53
18.52
20.38
19.26
15.50
9.71
2.75
-4.41
-10.91
-16.23
-20.29
-23.29
-25.57
-27.33
-28.66
-29.54
-29.93
-29.93
-29.77
-29.73
-30.13
-31.20
-33.01
-35.45
-38.18
-40.75
-42.73
-43.76
-43.92
-43.39
-42.35
-40.77
-38.63
-35.91
-32.72
-29.35
-26.19
-23.80
-22.52
-22.30
-22.72
-23.23
-23.46
-23.24
-22.70
-22.08
-22.07
-23.06
-24.88
-26.88
-28.31
-28.71
-27.95
-26.26
-24.15
-23.45
-25.56
-30.62
-37.46
-44.47
-50.27
-53.88
-54.78
-53.08
-51.72
-53.21
-57.90
-63.97
-69.12
-71.79
-71.31
-67.91
-62.64
-60.78
-66.40
-79.51
-96.26
-111.96
-123.35
-129.09
-129.50
-126.22
-126.11
-134.42
-151.69
-174.65
-200.11
-226.83
-254.15
-280.15
-271.98
-211.72
-109.03
5.44
104.28
174.83
216.24
234.51
238.42
236.19
228.50
214.46
195.35
175.15
157.88
145.55
138.51
136.54
138.67
139.41
134.51
123.38
108.47
92.51
76.65
61.60
48.36
38.07
28.66
18.31
6.63
-5.45
-14.94
-20.81
-22.70
-20.56
-12.44
-0.45
11.78
21.42
28.26
34.27
41.01
48.25
53.45
53.63
45.11
27.44
4.09
-18.97
-35.76
-43.17
-41.52
-34.03
-23.89
-15.76
-12.98
-16.50
-26.05
-39.34
-52.35
-60.21
-58.94
-46.73
-25.34
1.46
28.74
51.81
67.51
74.65
73.88
66.96
57.58
46.91
36.83
29.30
25.67
26.17
29.75
34.63
38.88
41.09
40.37
37.14
32.31
26.83
21.51
15.86
10.03
4.18
-1.59
-7.58
-13.89
-20.59
-27.56
-34.33
-40.32
-44.91
-48.06
-50.21
-52.29
-55.00
-58.62
-63.04
-67.90
-73.00
-78.53
-85.20
-93.75
-104.43
-116.59
-128.89
-139.87
-148.49
-154.46
-157.91
-159.11
-157.87
-153.54
-145.21
-132.18
-114.40
-92.54
-67.76
-41.30
-14.25
12.61
38.77
63.77
87.04
107.77
125.04
138.04
146.43
150.52
151.19
149.55
146.50
142.42
137.16
130.30
121.52
111.02
99.57
88.35
78.62
71.37
67.06
65.63
66.61
69.32
73.10
77.31
81.40
84.81
87.07
87.82
86.94
84.52
80.86
76.25
70.90
64.82
57.91
50.05
41.16
31.28
20.62
9.59
-1.19
-10.94
-18.97
-24.81
-28.41
-30.22
-30.98
-31.52
-32.47
-34.06
-36.17
-38.37
-40.09
-40.83
-40.17
-37.93
-34.19
-29.29
-23.80
-18.46
-14.02
-11.14
-10.30
-11.65
-14.97
-19.60
-24.58
-28.87
-31.72
-32.94
-33.03
-32.93
-33.67
-35.96
-39.99
-45.37
-51.36
-57.10
-61.85
-65.08
-66.50
-66.04
-63.80
-59.95
-54.63
-48.00
-40.27
-31.73
-22.86
-14.30
-6.70
-0.67
3.32
4.99
4.32
1.65
-2.35
-6.74
-10.58
-13.15
-14.06
-13.19
-10.64
-6.52
-0.89
6.28
15.08
25.64
38.02
52.09
67.34
82.81
97.19
109.16
117.71
122.37
123.10
120.08
113.46
103.44
90.47
75.63
60.48
46.68
35.45
27.17
21.41
17.37
14.27
11.63
9.09
6.27
2.74
-1.76
-6.93
-11.83
-15.26
-16.43
-15.43
-13.34
-11.68
-11.71
-13.83
-17.56
-21.85
-25.66
-28.18
-29.00
-27.90
-24.75
-19.53
-12.41
-3.93
5.07
13.64
21.08
27.09
31.96
36.35
41.02
46.39
52.38
58.41
63.56
66.94
67.77
65.51
59.85
50.76
38.56
23.94
7.92
-8.40
-24.10
-38.65
-51.87
-63.80
-74.54
-84.09
-92.46
-99.68
-105.88
-111.21
-115.72
-119.34
-121.90
-123.22
-123.10
-121.26
-117.36
-111.00
-101.87
-89.97
-75.65
-59.62
-42.67
-25.46
-8.42
8.21
24.15
38.94
51.90
62.31
69.68
73.94
75.49
75.02
73.27
70.84
68.03
64.96
61.61
58.04
54.39
50.83
47.51
44.46
41.63
38.91
36.24
33.63
31.10
28.58
25.86
22.59
18.43
13.28
7.25
0.77
-5.73
-11.94
-17.88
-23.81
-30.09
-36.93
-44.22
-51.58
-58.39
-63.96
-67.73
-69.29
-68.42
-65.17
-59.87
-53.21
-46.15
-39.77
-34.93
-31.93
-30.36
-29.25
-27.46
-24.30
-19.87
-15.13
-11.47
-10.10
-11.65
-15.95
-22.28
-29.63
-37.11
-44.16
-50.77
-57.68
-66.42
-79.01
-97.11
-120.97
-148.80
-176.92
-200.86
-216.88
-223.08
-219.60
-207.92
-189.80
-166.64
-139.40
-109.11
-77.17
-45.36
-15.39
11.60
35.26
55.80
73.48
88.29
99.96
108.19
113.09
115.38
116.26
117.09
118.88
122.08
126.54
131.76
137.23
142.65
147.93
153.15
158.31
163.28
167.83
171.60
174.07
174.56
172.29
166.60
157.27
144.62
129.54
113.20
96.81
81.40
67.80
56.69
48.50
43.31
40.69
39.79
39.61
39.43
39.14
39.28
40.63
43.76
48.63
54.53
60.41
65.39
69.13
71.99
74.72
78.03
82.16
86.77
91.07
93.99
94.53
91.80
85.18
74.49
60.11
43.25
25.76
9.66
-3.58
-13.76
-22.27
-31.69
-44.91
-63.86
-88.68
-117.48
-146.87
-173.07
-192.97
-204.90
-208.71
-205.46
-196.86
-184.84
-171.40
-158.45
-147.86
-141.13
-139.05
-141.28
-146.12
-150.69
-151.60
-145.86
-131.78
-109.39
-80.45
-47.80
-14.63
16.35
43.36
65.84
84.30
100.02
114.48
128.89
143.77
158.78
172.82
184.22
190.96
190.93
182.16
163.36
134.61
97.90
57.10
17.26
-16.92
-42.52
-59.25
-69.29
-76.19
-83.47
-93.47
-106.86
-122.67
-138.42
-150.38
-154.03
-145.26
-122.13
-86.40
-43.79
-2.43
30.18
50.11
58.36
59.75
60.13
63.37
69.96
77.44
82.12
80.86
72.14
56.26
35.25
12.48
-7.93
-22.16
-28.04
-25.96
-18.70
-10.29
-4.09
-1.56
-2.00
-3.33
-3.60
-1.92
1.28
4.87
7.74
9.33
9.73
9.29
8.20
6.20
2.59
-3.26
-11.39
-20.90
-30.10
-37.16
-40.90
-41.39
-39.80
-37.82
-36.76
-37.08
-38.31
-39.44
-39.53
-38.08
-35.19
-31.36
-27.23
-23.25
-19.60
-16.11
-12.39
-7.98
-2.51
4.13
11.71
19.68
27.31
33.87
38.78
41.74
42.67
41.62
38.67
33.82
27.05
18.44
8.30
-2.72
-13.60
-23.15
-30.29
-34.27
-34.96
-32.76
-28.47
-22.96
-17.03
-11.23
-5.93
-1.35
2.40
5.33
7.59
9.46
11.19
12.95
14.73
16.46
18.16
20.12
22.87
27.05
33.18
41.46
51.73
63.50
76.15
88.96
101.23
112.34
121.83
129.53
135.73
141.14
146.85
153.90
162.97
173.96
185.87
196.94
205.03
208.12
204.78
194.43
177.36
154.52
127.35
97.48
66.64
36.52
8.76
-15.20
-34.14
-47.15
-53.66
-53.58
-47.43
-36.41
-22.40
-7.64
5.64
15.77
22.05
24.81
25.16
24.46
23.79
23.64
23.74
23.24
20.89
15.46
6.08
-7.42
-24.36
-43.25
-62.23
-79.59
-94.14
-105.47
-113.70
-119.32
-122.77
-124.45
-124.69
-123.93
-122.69
-121.44
-120.42
-119.47
-118.25
-116.32
-113.45
-109.74
-105.52
-101.18
-96.86
-92.34
-86.98
-80.03
-70.89
-59.48
-46.34
-32.60
-19.67
-8.90
-1.34
2.45
2.34
-1.29
-7.70
-15.85
-24.52
-32.54
-38.90
-42.94
-44.31
-43.00
-39.23
-33.34
-25.82
-17.19
-8.03
1.11
9.59
16.82
22.18
25.14
25.37
22.87
18.01
11.51
4.30
-2.72
-8.80
-13.50
-16.62
-18.19
-18.39
-17.48
-15.81
-13.81
-11.93
-10.58
-10.06
-10.46
-11.67
-13.48
-15.62
-17.85
-20.05
-22.12
-23.97
-25.49
-26.61
-27.27
-27.58
-27.66
-27.75
-28.00
-28.47
-29.08
-29.62
-29.92
-29.85
-29.42
-29.07
-28.47
-27.71
-26.84
-25.90
-24.94
-24.05
-23.22
-22.41
-21.88
-21.05
-19.87
-18.38
-16.76
-15.22
-13.92
-12.86
-11.92
-11.77
-11.19
-10.26
-9.22
-8.44
-8.28
-8.94
-10.28
-11.92
-15.92
-19.05
-21.45
-23.59
-26.18
-30.10
-36.17
-44.99
-56.93
-77.32
-100.24
-125.90
-154.33
-185.50
-219.38
-255.87
-294.57
-334.56
-382.39
-426.19
-463.07
-489.53
-502.50
-500.64
-484.93
-458.50
-425.55
-400.95
-375.94
-352.69
-331.25
-310.52
-289.59
-268.39
-247.43
-159.04
-94.27
-38.57
9.09
50.99
90.28
129.88
171.53
215.60
260.80
293.41
320.13
335.68
337.82
327.46
307.14
279.85
248.62
216.53
190.08
186.74
203.10
228.02
251.38
267.70
274.93
272.87
262.47
241.47
216.29
187.86
159.11
134.06
115.82
105.47
102.35
104.99
107.15
107.13
101.68
90.21
74.69
58.30
44.18
34.49
29.82
27.96
26.70
23.11
16.15
6.85
-2.85
-11.34
-18.10
-23.53
-28.34
-32.99
-36.83
-38.27
-35.83
-29.11
-18.99
-6.99
5.60
18.30
31.18
44.40
57.63
69.81
79.58
85.62
87.75
87.01
85.31
84.75
86.87
92.09
99.55
107.40
112.98
114.03
109.43
99.71
86.77
73.12
60.68
50.27
41.95
34.79
28.45
22.94
18.19
13.74
8.77
2.66
-4.49
-11.20
-17.69
-23.97
-30.74
-38.43
-45.99
-50.29
-46.90
-32.02
-3.08
35.43
77.76
117.08
147.85
167.35
175.90
175.99
170.82
165.64
159.33
152.86
146.76
141.59
138.11
136.88
137.77
139.73
144.28
145.91
143.54
137.12
127.51
116.12
104.32
92.80
61.38
36.88
14.30
-6.71
-25.93
-42.77
-56.59
-67.12
-74.86
-80.81
-82.78
-85.30
-88.67
-92.81
-97.48
-102.18
-106.32
-109.80
-112.50
-111.62
-110.03
-108.14
-106.80
-106.98
-108.87
-111.85
-115.85
-120.62
-123.88
-127.14
-130.56
-134.54
-139.38
-144.44
-148.46
-151.80
-154.93
-156.62
-157.28
-156.41
-153.49
-147.91
-138.19
-122.60
-101.96
-77.48
-49.02
-17.21
17.08
52.48
82.02
97.66
106.91
115.98
123.19
128.79
133.20
136.28
137.40
135.88
132.48
129.09
125.36
120.74
115.80
110.96
105.69
98.75
88.90
76.43
63.29
50.23
38.34
29.67
25.93
26.51
28.63
28.44
22.88
10.88
-8.77
-36.00
-71.27
-108.71
-138.96
-154.70
-154.47
-143.93
-126.19
-103.77
-78.65
-51.98
-24.86
-0.22
18.54
28.98
30.53
24.46
11.73
-6.96
-30.48
-56.11
-79.85
-96.66
-101.78
-92.65
-70.03
-38.94
-6.35
21.58
41.75
54.07
60.35
62.75
62.70
60.81
56.98
51.27
44.52
38.12
33.21
30.03
27.98
26.02
23.23
19.00
13.29
6.59
-0.18
-6.26
-11.18
-14.99
-18.08
-20.94
-23.94
-27.08
-29.99
-32.02
-32.57
-31.37
-28.64
-25.09
-21.73
-19.56
-19.35
-21.44
-25.64
-31.37
-37.72
-43.66
-48.11
-50.15
-49.17
-45.11
-38.68
-31.28
-24.73
-20.62
-19.74
-21.56
-24.36
-25.78
-23.69
-17.14
-6.70
5.65
17.39
26.40
31.85
34.33
35.42
36.72
39.09
42.32
45.49
47.62
48.27
47.72
46.62
45.58
44.69
43.50
41.35
37.80
32.95
27.40
21.98
17.31
13.67
10.92
8.56
6.11
3.37
0.52
-1.94
-3.55
-4.19
-3.93
-3.26
-2.91
-3.47
-5.00
-7.04
-8.69
-9.25
-8.57
-6.48
-3.18
0.74
4.76
8.81
13.21
18.81
26.33
36.05
48.54
63.48
79.16
92.86
101.94
104.46
100.39
90.99
78.33
65.90
56.59
51.51
50.12
51.19
53.22
55.77
58.64
54.48
40.03
18.01
-4.90
-23.34
-33.00
-37.05
-38.27
-38.53
-38.68
-38.67
-37.52
-34.78
-30.76
-26.08
-21.97
-19.48
-20.51
-27.56
-41.87
-63.40
-90.60
-120.16
-147.22
-166.82
-174.70
-169.29
-152.11
-126.46
-96.64
-67.02
-41.00
-20.37
-5.69
3.66
8.50
9.64
8.26
5.79
3.46
2.09
1.86
2.37
3.03
3.35
3.36
3.82
6.00
10.76
17.95
26.28
33.72
37.99
37.14
29.93
16.06
-3.60
-27.38
-53.16
-78.72
-101.73
-120.37
-133.68
-141.49
-144.33
-142.65
-136.96
-127.70
-115.20
-99.03
-79.18
-56.77
-34.11
-14.30
1.03
11.53
17.94
21.89
26.63
34.36
44.87
55.87
63.77
67.96
69.27
68.91
68.08
69.88
76.24
86.71
98.74
108.14
114.80
119.92
124.62
130.12
140.51
158.82
185.04
216.07
245.97
273.48
298.46
320.38
317.01
274.93
198.64
108.95
40.49
-6.57
-37.05
-55.12
-67.55
-77.30
-82.96
-83.07
-78.04
-70.49
-65.47
-63.15
-62.46
-62.57
-62.46
-58.97
-49.61
-34.21
-15.09
2.73
17.81
29.93
39.23
46.33
53.34
61.92
72.37
83.32
91.23
94.94
94.33
89.61
81.06
69.29
54.71
37.42
17.26
-7.38
-35.87
-65.61
-93.08
-115.37
-131.15
-140.77
-145.73
-147.98
-151.23
-156.94
-163.75
-168.68
-169.57
-166.42
-160.72
-154.25
-148.41
-146.48
-150.01
-158.08
-168.35
-179.20
-190.21
-200.75
-208.78
-193.70
-145.76
-73.03
4.10
68.36
112.59
137.44
147.16
148.77
146.81
140.88
130.06
115.08
98.07
82.08
68.33
56.70
46.53
37.10
26.32
13.84
1.67
-7.14
-10.99
-11.01
-9.91
-10.48
-14.57
-23.55
-36.63
-50.76
-61.92
-67.10
-65.45
-57.88
-46.21
-32.45
-18.59
-5.37
7.82
22.04
37.43
52.74
65.97
75.32
80.00
80.31
77.68
74.21
71.30
68.66
64.26
55.61
40.97
20.40
-3.97
-28.71
-49.97
-65.36
-74.99
-80.87
-85.59
-91.03
-97.63
-104.24
-108.50
-106.96
-96.86
-77.39
-50.03
-17.94
14.98
45.17
70.11
85.14
88.65
83.57
74.21
62.89
50.06
35.80
20.84
6.64
-5.37
-14.49
-20.84
-25.11
-27.95
-29.29
-28.34
-24.05
-15.94
-4.34
10.62
26.10
38.90
46.70
48.78
45.91
39.87
32.88
27.06
24.06
24.32
27.44
32.09
36.70
40.09
41.64
41.15
38.55
34.30
27.76
19.23
9.82
1.24
-4.76
-7.15
-6.06
-2.88
0.16
0.84
-1.76
-7.31
-14.51
-21.35
-25.77
-25.89
-19.32
-5.91
11.60
28.62
40.20
42.95
36.42
23.07
7.12
-7.41
-18.52
-26.44
-32.56
-38.26
-43.90
-48.51
-50.76
-49.75
-45.67
-39.98
-34.51
-30.44
-27.96
-26.71
-25.10
-22.10
-17.34
-11.16
-4.49
1.71
6.97
11.20
14.63
17.62
20.15
21.99
22.83
22.60
21.33
20.18
20.36
22.47
26.20
30.12
32.42
31.58
27.12
19.96
12.17
6.03
3.18
4.06
7.63
12.07
15.57
17.08
16.72
15.53
14.59
14.42
14.80
14.71
13.23
9.88
5.00
-0.38
-4.89
-7.58
-8.16
-7.07
-5.23
-3.51
-2.49
-2.20
-2.20
-1.84
-0.77
1.11
3.68
6.70
9.93
12.91
15.27
16.88
17.88
18.34
18.40
18.25
18.04
17.85
16.95
14.52
9.90
3.70
-3.65
-11.53
-18.96
-24.86
-28.40
-30.26
-31.67
-33.61
-36.38
-39.86
-43.53
-46.77
-49.13
-50.67
-52.92
-57.27
-63.98
-72.21
-80.91
-89.20
-96.29
-101.36
-96.97
-79.38
-51.11
-19.40
8.67
29.15
41.26
46.46
47.27
46.33
44.89
42.79
39.93
36.59
33.17
30.12
28.10
27.72
29.59
33.48
38.58
44.05
48.74
51.26
50.42
45.97
38.69
30.58
24.02
21.08
22.65
27.82
34.13
38.62
38.89
33.46
22.36
6.93
-10.63
-27.94
-42.85
-53.53
-59.04
-56.92
-48.60
-39.84
-36.22
-38.34
-41.70
-40.31
-30.66
-14.03
3.56
15.95
18.64
11.00
-4.08
-22.06
-38.81
-52.01
-61.29
-66.17
-67.34
-66.00
-63.07
-59.24
-55.58
-53.62
-54.77
-59.51
-66.69
-73.87
-77.73
-74.78
-62.79
-42.05
-15.57
11.81
34.93
50.17
56.26
54.71
49.26
44.26
42.94
46.32
53.14
60.82
66.83
69.59
68.98
65.99
61.77
56.78
50.51
41.90
30.15
15.36
-1.23
-17.64
-31.62
-41.38
-45.93
-45.08
-39.18
-28.79
-14.47
3.00
22.40
42.04
59.86
73.81
82.42
85.14
82.48
75.70
66.30
55.62
44.66
34.11
24.60
16.72
10.92
7.28
5.38
4.47
3.89
3.44
3.54
4.95
8.19
13.12
18.83
24.14
28.14
30.68
32.29
33.75
35.59
37.81
39.90
41.32
41.77
41.46
40.81
40.20
39.67
38.93
37.58
35.34
32.15
28.06
22.99
16.57
8.27
-2.17
-14.38
-27.15
-38.83
-47.95
-53.93
-57.23
-59.00
-60.37
-61.85
-63.07
-63.24
-61.62
-58.02
-52.87
-46.89
-40.78
-34.98
-29.71
-25.29
-22.23
-21.19
-22.63
-26.53
-32.13
-38.16
-43.29
-46.60
-48.01
-48.15
-48.03
-48.47
-49.75
-51.54
-53.18
-53.99
-53.54
-51.69
-48.50
-44.14
-38.86
-33.11
-27.50
-22.65
-19.01
-16.64
-15.22
-14.23
-13.23
-12.09
-11.03
-10.49
-10.80
-11.95
-13.52
-14.89
-15.52
-15.29
-14.56
-13.91
-13.81
-14.28
-14.89
-15.02
-14.26
-12.60
-10.46
-8.33
-6.50
-4.97
-3.57
-2.28
-1.34
-1.28
-2.50
-4.95
-8.02
-10.67
-11.79
-10.62
-6.92
-0.92
6.82
15.70
25.16
34.69
43.76
51.86
58.51
63.41
66.55
68.24
68.97
69.26
69.42
69.47
69.23
68.45
66.95
64.80
62.29
59.75
57.46
55.48
53.66
51.76
49.52
46.78
43.44
39.39
34.58
29.06
23.06
17.11
11.88
7.99
5.79
5.26
6.07
7.73
9.83
12.08
14.34
16.53
18.57
20.31
21.59
22.24
22.22
21.57
20.42
18.96
17.37
15.78
14.23
12.76
11.39
10.14
9.04
8.05
7.09
6.03
4.75
3.19
1.31
-0.91
-3.49
-6.38
-9.35
-11.96
-13.65
-13.96
-12.70
-10.10
-6.63
-2.89
0.60
3.50
5.60
6.76
6.87
5.97
4.28
2.20
0.21
-1.28
-2.13
-2.49
-2.74
-3.29
-4.39
-6.04
-7.95
-9.73
-11.14
-12.21
-13.31
-14.97
-17.59
-21.28
-25.82
-30.81
-35.90
-40.83
-45.34
-48.91
-50.71
-49.71
-45.11
-36.82
-25.64
-13.08
-0.89
9.56
17.49
22.66
25.14
25.08
22.85
19.31
15.86
14.20
15.67
20.67
28.49
37.65
46.67
54.68
61.70
68.29
75.04
81.95
88.31
92.78
93.84
90.18
81.02
66.32
46.79
23.69
-1.35
-26.71
-50.98
-73.07
-92.18
-107.72
-119.05
-125.53
-126.43
-121.02
-108.79
-89.82
-64.97
-36.16
-6.21
21.55
43.89
58.39
64.01
61.19
51.64
37.96
22.78
8.26
-4.20
-14.16
-21.84
-27.89
-32.98
-37.36
-40.58
-41.83
-40.83
-37.56
-33.22
-29.03
-25.97
-24.20
-23.87
-24.48
-25.44
-26.39
-27.09
-27.33
-26.60
-24.27
-19.91
-13.60
-5.96
1.90
8.86
14.20
17.78
20.00
21.44
22.54
23.35
23.65
23.00
21.00
17.52
12.71
7.04
1.02
-4.90
-10.41
-15.35
-19.64
-23.27
-26.27
-28.64
-30.41
-31.60
-32.26
-32.46
-32.26
-31.72
-30.81
-29.41
-27.36
-24.51
-20.84
-16.49
-11.73
-6.85
-2.05
2.59
7.07
11.39
15.51
19.28
22.51
25.02
26.75
27.77
28.30
28.55
28.68
28.64
28.19
27.04
24.97
22.11
18.95
16.22
14.63
14.53
15.76
17.68
19.41
20.14
19.32
16.80
12.76
7.70
2.31
-2.61
-6.32
-8.30
-8.33
-6.57
-3.39
0.76
5.41
10.17
14.63
18.35
20.87
21.77
20.76
17.67
12.61
6.01
-1.33
-8.33
-13.85
-17.09
-17.92
-16.96
-15.33
-14.24
-14.46
-16.20
-19.11
-22.73
-26.61
-30.52
-34.18
-37.34
-39.64
-40.70
-40.19
-38.05
-34.59
-30.18
-25.10
-19.27
-12.61
-5.17
2.88
11.23
19.54
27.43
34.75
41.29
47.02
51.45
53.88
53.94
51.97
48.94
45.91
43.77
42.58
41.90
40.22
35.42
25.88
11.68
-5.48
-23.15
-38.70
-50.56
-56.02
-54.21
-47.99
-42.95
-42.65
-46.84
-54.18
-60.93
-64.27
-62.08
-54.90
-45.76
-37.01
-29.63
-23.01
-15.53
-4.61
12.36
38.48
73.93
114.95
154.67
187.57
210.05
220.20
218.04
196.82
156.92
106.93
62.23
22.52
-16.22
-56.30
-98.08
-140.79
-182.37
-217.76
-241.37
-249.45
-242.32
-222.94
-197.67
-174.51
-159.09
-151.62
-145.80
-133.42
-109.42
-74.78
-34.09
6.38
41.44
69.03
89.81
106.06
119.06
128.14
131.39
128.25
119.66
107.82
95.53
85.44
79.33
77.30
77.21
75.83
70.87
62.40
53.51
48.72
51.23
58.52
63.50
57.82
38.30
9.20
-20.80
-43.57
-55.32
-57.64
-55.59
-54.01
-56.12
-59.91
-62.33
-61.16
-56.03
-48.61
-41.78
-38.12
-38.59
-42.21
-46.65
-49.40
-49.32
-46.75
-43.16
-40.20
-38.73
-38.34
-37.81
-35.61
-31.28
-24.88
-17.13
-9.05
-1.40
5.77
13.02
20.91
29.69
38.48
46.51
52.91
57.02
58.55
57.85
55.67
52.73
49.91
43.92
33.92
22.01
11.77
5.35
2.46
1.37
0.37
0.13
0.30
1.50
4.31
8.79
14.39
20.49
27.11
32.80
37.53
41.06
43.84
46.47
49.50
52.94
56.42
59.64
62.25
64.42
65.48
64.82
61.75
55.72
46.19
33.22
18.43
2.82
-9.87
-17.35
-20.80
-24.10
-30.33
-40.34
-52.76
-64.50
-72.76
-75.86
-74.10
-68.51
-61.56
-53.17
-44.34
-37.91
-36.26
-40.37
-48.58
-57.59
-63.46
-63.31
-56.31
-40.96
-22.17
-6.29
2.19
2.79
-2.23
-9.42
-15.72
-19.22
-19.90
-20.44
-21.91
-24.83
-29.15
-34.83
-41.13
-46.57
-49.03
-47.12
-41.04
-31.48
-19.67
-5.61
9.34
24.03
38.16
52.53
67.85
84.04
100.86
117.40
132.47
143.65
148.13
143.74
130.00
107.67
78.57
45.69
10.91
-20.05
-41.68
-51.72
-54.00
-52.25
-49.36
-47.69
-47.72
-49.90
-53.79
-58.97
-64.86
-70.63
-74.82
-76.34
-74.64
-69.62
-61.89
-52.36
-42.88
-35.41
-31.14
-29.67
-29.56
-28.92
-26.05
-20.26
-11.85
-2.34
6.37
12.77
16.36
17.18
15.60
12.17
7.51
2.47
-2.07
-5.08
-5.75
-3.80
0.22
5.22
9.99
13.54
15.47
15.78
15.31
15.00
15.42
16.54
17.93
19.15
19.83
19.79
19.00
18.28
18.56
20.16
22.73
25.62
28.34
30.73
32.79
34.76
37.87
43.36
51.63
62.07
73.57
85.08
95.82
105.21
106.91
97.15
77.16
52.76
30.30
13.28
2.19
-4.29
-8.20
-10.66
-12.02
-11.63
-8.74
-3.24
4.19
12.23
19.12
23.13
22.44
17.71
11.23
5.80
3.54
5.20
9.89
15.38
18.95
18.56
14.24
7.75
1.61
-2.16
-2.75
-0.96
0.83
-0.92
-10.18
-30.01
-61.60
-103.14
-149.18
-191.08
-219.31
-226.72
-211.60
-179.04
-139.33
-104.63
-84.41
-82.20
-94.78
-114.24
-131.93
-141.72
-141.80
-134.00
-121.88
-108.06
-92.78
-74.17
-49.91
-19.44
16.06
54.11
92.57
129.92
166.10
202.01
238.23
273.82
305.25
328.67
341.38
342.79
332.59
310.91
277.75
232.72
175.83
107.59
32.73
-39.71
-98.78
-138.26
-158.38
-165.54
-169.49
-179.15
-200.63
-232.67
-267.82
-295.99
-311.81
-314.41
-305.79
-288.70
-254.08
-201.74
-141.08
-90.35
-50.91
-20.71
2.69
21.42
38.51
56.88
76.30
95.69
113.99
130.95
144.49
153.07
156.86
157.59
157.43
156.62
155.13
152.90
150.14
144.84
134.87
119.36
99.38
77.45
55.91
37.19
23.13
14.48
9.37
5.12
-0.14
-6.60
-13.07
-18.14
-20.45
-19.08
-13.76
-5.45
4.33
13.88
21.61
26.17
26.47
22.32
14.41
4.18
-7.10
-18.41
-29.14
-38.86
-47.20
-53.79
-58.35
-60.83
-61.45
-60.61
-58.77
-56.39
-53.95
-51.93
-50.78
-50.85
-52.25
-54.80
-57.99
-61.10
-63.34
-64.07
-63.03
-60.39
-56.68
-52.60
-48.72
-45.32
-42.30
-39.38
-36.23
-32.62
-28.48
-23.86
-18.87
-13.63
-8.19
-2.51
3.67
10.79
19.37
29.73
41.80
54.87
67.68
78.56
85.82
88.12
84.85
76.24
63.31
47.55
30.47
13.27
-3.19
-18.30
-31.61
-42.78
-51.81
-59.26
-66.09
-73.24
-81.08
-89.01
-95.66
-99.56
-99.76
-96.21
-89.52
-80.47
-69.65
-57.40
-43.94
-29.69
-15.15
-0.67
13.77
28.45
43.47
58.46
72.48
84.44
93.62
100.08
104.73
108.91
113.98
120.95
130.34
141.97
154.82
166.93
175.62
178.23
173.26
161.21
144.66
127.33
112.47
101.58
93.95
87.46
79.91
70.25
58.90
47.29
36.82
28.20
21.34
15.68
10.77
6.43
2.74
-0.26
-2.72
-5.00
-7.48
-10.46
-14.06
-18.30
-23.08
-28.30
-33.89
-39.86
-46.29
-53.26
-60.66
-68.04
-74.60
-79.40
-81.78
-81.66
-79.47
-75.97
-71.77
-67.09
-61.75
-55.44
-48.05
-39.84
-31.41
-23.44
-16.51
-11.01
-7.04
-4.38
-2.60
-1.12
0.69
3.28
6.89
11.46
16.65
22.11
27.57
32.87
37.83
42.17
45.66
48.23
50.07
51.49
52.91
54.75
57.05
59.14
59.73
57.42
51.31
41.35
27.61
10.53
-9.33
-31.38
-54.87
-78.51
-100.05
-116.77
-126.28
-128.60
-125.45
-119.25
-111.98
-104.67
-97.26
-89.23
-80.35
-70.89
-62.75
-57.41
-54.49
-52.06
-48.17
-42.30
-35.65
-30.72
-23.34
-11.95
2.09
16.79
31.55
47.01
63.45
80.16
94.32
105.67
112.98
114.25
109.17
98.92
84.76
66.93
46.15
22.92
-1.99
-28.04
-55.15
-80.87
-101.08
-112.15
-112.71
-103.92
-88.60
-70.16
-42.34
-6.36
31.16
62.75
84.62
96.83
101.60
101.91
98.95
94.95
89.82
83.84
77.72
72.00
66.31
59.26
52.92
47.83
44.55
42.09
39.86
37.57
34.53
29.25
19.95
5.45
-14.71
-39.17
-66.48
-94.45
-120.95
-144.77
-165.90
-185.03
-202.77
-219.78
-236.08
-251.80
-266.29
-277.91
-284.04
-281.72
-268.61
-243.93
-209.19
-167.37
-122.20
-76.80
-33.24
7.09
42.96
72.86
95.34
109.58
116.15
116.90
114.31
110.46
106.34
101.99
96.96
91.14
85.05
79.69
76.02
74.35
74.13
74.19
73.37
71.08
67.43
62.95
58.11
53.08
48.04
43.24
39.14
36.49
35.99
37.88
41.65
46.13
49.86
52.01
52.18
50.34
46.85
42.29
37.18
31.87
26.53
21.24
16.70
13.51
11.74
11.38
12.29
14.03
15.99
17.60
18.57
19.78
22.18
25.71
30.07
34.53
38.30
41.13
43.70
42.90
38.22
31.55
24.96
20.05
17.22
16.13
16.00
15.12
10.71
0.11
-17.13
-42.08
-72.00
-101.42
-124.52
-137.43
-139.75
-134.10
-123.86
-107.89
-88.78
-67.95
-45.89
-23.65
-3.46
11.52
20.07
22.21
19.50
13.70
7.50
3.04
1.56
3.90
10.64
20.79
33.65
48.55
64.01
78.61
90.60
97.97
99.50
94.81
84.64
70.73
55.76
41.72
29.60
18.66
4.27
-15.26
-37.64
-57.36
-68.90
-68.89
-57.57
-38.03
-15.12
6.27
22.83
32.46
35.93
32.37
21.85
5.89
-12.32
-28.79
-40.08
-44.19
-41.55
-34.62
-26.66
-19.56
-14.06
-9.19
-3.22
5.08
15.70
26.99
36.40
41.47
40.98
34.90
23.73
7.88
-12.43
-36.59
-63.00
-89.04
-111.68
-128.41
-138.21
-141.83
-141.20
-138.46
-134.77
-130.12
-123.70
-114.68
-102.80
-88.49
-72.59
-55.93
-39.12
-22.42
-6.07
9.56
23.90
36.37
46.63
54.69
60.94
65.89
70.00
73.57
76.73
79.42
81.48
82.72
82.95
82.12
80.17
76.94
72.28
66.21
59.08
51.40
43.70
36.37
29.69
23.84
18.99
15.55
14.11
15.25
19.13
25.15
32.08
38.68
43.60
45.48
43.24
36.49
25.70
12.12
-2.59
-16.71
-27.91
-34.85
-37.96
-38.99
-39.87
-41.76
-45.02
-49.39
-54.28
-56.85
-55.13
-49.35
-41.70
-34.57
-29.24
-25.94
-24.33
-23.89
-20.69
-11.96
2.04
18.61
35.41
52.10
69.76
89.69
112.65
142.96
182.79
229.86
278.42
322.96
360.43
389.76
410.54
394.59
328.22
222.56
107.06
7.09
-66.81
-114.92
-142.31
-155.30
-159.77
-155.99
-144.23
-127.19
-109.92
-96.71
-89.07
-86.16
-86.08
-86.93
-83.91
-74.09
-58.32
-40.56
-24.73
-13.21
-6.55
-4.18
-5.01
-5.65
-3.39
2.39
10.34
18.73
26.45
33.05
38.33
42.22
45.93
50.51
56.16
62.08
67.23
70.78
72.20
71.19
67.62
61.91
54.50
45.64
35.49
24.48
13.49
3.53
-4.76
-11.62
-18.19
-26.04
-36.39
-49.49
-64.24
-78.41
-89.57
-96.02
-97.33
-94.37
-88.83
-82.46
-76.66
-72.05
-68.36
-64.82
-60.59
-55.12
-48.18
-39.94
-30.83
-21.84
-14.25
-9.59
-9.38
-14.75
-25.76
-41.07
-58.14
-74.07
-87.28
-97.18
-103.94
-108.14
-110.42
-111.22
-110.61
-108.61
-105.50
-103.26
-103.29
-105.57
-108.93
-111.98
-113.71
-113.66
-111.88
-108.92
-107.71
-109.97
-115.13
-120.89
-124.79
-125.14
-121.18
-113.11
-102.09
-92.66
-87.71
-87.35
-89.25
-90.67
-89.79
-85.83
-78.81
-51.70
-0.76
62.89
121.07
162.29
184.98
193.27
192.73
188.19
182.80
174.91
163.16
147.44
129.65
111.96
95.61
80.54
66.13
51.89
35.53
18.71
3.23
-9.58
-20.10
-30.17
-41.08
-51.44
-56.91
-53.78
-35.50
-4.37
27.55
46.44
47.21
35.99
24.44
21.84
29.62
42.77
53.10
55.31
50.82
44.26
39.74
38.55
39.30
39.45
37.57
33.66
29.71
27.46
28.74
33.23
39.17
44.69
48.52
49.79
48.85
43.58
33.29
19.06
3.25
-11.12
-21.37
-26.09
-25.61
-21.76
-17.45
-14.84
-15.19
-18.88
-25.48
-34.23
-44.40
-55.47
-66.73
-77.11
-84.48
-86.11
-79.71
-64.50
-41.88
-15.24
11.02
33.14
48.72
57.51
60.91
61.03
59.76
58.19
56.55
54.68
52.75
50.84
49.12
47.73
46.74
46.13
45.72
45.29
44.65
44.18
43.84
43.25
42.00
40.00
37.64
35.54
34.38
34.70
37.18
41.33
45.57
47.96
47.14
42.92
36.34
29.44
20.49
11.03
3.90
0.37
-1.15
-3.63
-9.22
-18.57
-30.84
-44.35
-56.51
-65.33
-69.82
-69.95
-66.41
-60.63
-54.52
-49.77
-47.19
-46.03
-45.22
-44.05
-42.42
-40.86
-38.88
-35.80
-30.94
-24.12
-15.65
-6.95
0.05
3.62
3.20
-0.25
-4.98
-9.09
-11.29
-11.03
-8.75
-5.61
-3.25
-3.07
-5.75
-11.06
-17.97
-24.91
-29.54
-29.43
-21.84
-6.04
15.32
36.74
52.25
58.27
54.77
44.90
33.31
23.94
18.17
14.85
11.75
7.42
2.12
-2.64
-5.60
-6.64
-7.03
-8.58
-11.96
-16.00
-18.29
-16.70
-10.72
-1.72
8.23
17.22
23.22
25.35
23.38
17.23
7.30
-4.87
-17.73
-28.75
-35.71
-37.39
-34.15
-27.25
-18.19
-8.06
2.54
12.39
21.00
28.26
35.52
42.68
49.06
53.78
56.05
54.92
49.82
41.35
29.13
14.79
0.61
-11.11
-19.03
-22.46
-23.38
-25.26
-30.25
-38.10
-46.42
-52.74
-55.55
-56.17
-55.30
-53.49
-50.89
-47.11
-41.99
-35.71
-29.06
-22.99
-18.04
-14.27
-11.49
-9.12
-6.41
-2.75
2.35
9.22
18.07
28.66
39.42
48.07
52.74
53.03
49.94
44.84
38.73
33.86
29.32
24.60
19.91
15.95
13.61
13.44
14.40
15.65
16.24
15.19
12.31
8.00
2.99
-1.86
-5.80
-8.41
-9.37
-8.79
-7.36
-5.81
-4.81
-4.84
-5.94
-7.78
-9.87
-11.69
-13.00
-14.02
-15.00
-16.16
-17.75
-19.95
-23.03
-27.21
-32.44
-38.34
-44.17
-48.86
-51.29
-50.67
-46.82
-40.23
-31.97
-23.37
-15.71
-9.90
-6.19
-4.23
-3.29
-2.61
-1.71
-0.53
0.71
1.75
2.49
3.03
3.66
4.65
6.11
7.98
10.11
12.35
14.65
17.05
19.64
22.47
25.50
28.56
31.43
33.89
35.83
37.30
38.34
38.97
39.02
38.19
36.15
32.83
28.54
24.00
20.18
17.98
17.90
19.93
23.47
27.58
31.24
33.65
34.40
33.45
31.05
27.45
22.81
17.15
10.45
2.76
-5.72
-14.75
-24.06
-33.44
-42.58
-50.89
-57.51
-61.44
-61.98
-59.04
-53.25
-45.78
-37.83
-30.23
-23.33
-17.09
-11.41
-6.31
-1.97
1.50
4.25
6.70
9.36
12.56
16.25
20.05
23.33
25.55
26.34
25.57
23.28
19.58
14.60
8.50
1.60
-5.54
-12.06
-17.02
-19.55
-19.16
-15.92
-10.51
-3.91
2.80
8.79
13.69
17.43
20.19
22.16
23.50
24.42
25.13
25.95
27.08
28.55
30.09
31.21
31.36
30.11
27.26
22.81
16.92
9.77
1.54
-7.52
-16.97
-26.18
-34.31
-40.50
-44.06
-44.74
-42.75
-38.72
-33.47
-27.69
-21.85
-16.18
-10.86
-6.13
-2.34
0.14
1.13
0.74
-0.61
-2.35
-3.90
-4.84
-4.96
-4.24
-2.86
-1.07
0.89
2.79
4.44
5.72
6.55
6.90
6.81
6.44
6.02
5.79
6.02
6.81
8.19
10.12
12.54
15.34
18.42
21.62
24.82
28.03
31.27
34.57
37.88
40.97
43.41
44.79
44.84
43.59
41.36
38.58
35.65
32.79
30.08
27.36
24.32
20.64
16.18
11.02
5.35
-0.42
-5.73
-10.04
-13.19
-15.53
-17.81
-20.94
-25.65
-32.64
-42.01
-52.95
-63.75
-72.36
-77.08
-77.06
-72.53
-64.75
-56.04
-48.44
-42.80
-38.38
-33.74
-27.76
-20.23
-11.98
-4.42
0.24
0.36
-4.58
-13.87
-26.35
-40.91
-56.45
-71.64
-80.66
-79.22
-68.14
-53.49
-41.53
-35.37
-35.03
-38.79
-44.46
-50.18
-56.58
-63.11
-68.60
-71.17
-69.28
-62.53
-51.62
-37.87
-22.49
-6.55
9.31
24.63
39.51
54.09
68.17
81.47
93.80
105.15
115.07
123.06
128.60
131.66
132.57
131.92
130.49
128.99
127.87
126.99
125.88
123.92
120.69
116.03
110.02
103.01
95.62
88.43
81.65
74.97
67.51
58.13
45.69
29.26
8.34
-16.92
-45.38
-74.64
-101.24
-121.43
-132.34
-133.11
-125.34
-112.60
-99.15
-88.55
-82.63
-81.34
-83.28
-86.33
-88.21
-86.84
-80.81
-69.68
-54.19
-36.12
-17.91
-2.17
8.93
14.43
14.87
11.97
8.10
5.63
6.32
10.88
18.51
27.31
35.18
40.69
43.27
43.14
41.05
38.00
34.78
31.32
26.71
19.95
10.63
-1.14
-14.94
-30.24
-46.63
-61.00
-70.15
-73.14
-71.63
-67.91
-63.37
-58.62
-54.03
-49.94
-47.93
-47.50
-48.17
-49.20
-49.64
-48.83
-46.70
-43.70
-40.35
-36.06
-30.84
-25.01
-18.75
-12.00
-4.71
3.03
11.15
19.75
29.18
39.78
51.65
64.77
78.86
93.21
106.68
118.05
126.49
131.91
134.74
135.60
134.92
132.69
128.39
121.19
110.44
95.91
77.97
57.38
35.31
13.26
-7.16
-24.64
-38.58
-49.20
-57.34
-63.83
-68.95
-72.15
-72.41
-68.89
-61.66
-51.93
-41.76
-33.29
-27.91
-25.82
-26.48
-28.90
-32.17
-35.49
-38.30
-40.18
-40.71
-39.53
-36.32
-31.23
-24.75
-17.58
-10.33
-3.34
3.00
8.48
13.06
17.10
20.69
23.91
27.03
30.58
35.08
40.25
45.47
50.31
55.29
60.29
65.12
69.47
73.34
76.79
78.59
77.74
74.39
71.11
68.87
67.68
66.59
64.91
62.27
56.88
47.85
36.41
27.46
22.85
22.49
24.36
26.55
27.21
22.16
8.10
-15.39
-43.15
-72.57
-102.05
-131.34
-159.64
-170.05
-151.48
-107.25
-69.05
-42.45
-26.87
-14.33
-3.45
5.73
12.69
14.65
10.10
0.59
-7.09
-9.86
-7.16
-1.20
5.85
11.88
13.37
7.92
-3.95
-16.96
-27.92
-35.07
-38.91
-39.90
-38.90
-38.21
-40.03
-45.06
-50.97
-56.77
-62.12
-68.09
-74.78
-81.66
-88.89
-97.06
-106.00
-113.92
-119.69
-122.75
-124.34
-125.01
-125.22
-126.48
-131.65
-143.08
-160.78
-182.55
-203.73
-219.40
-223.35
-210.98
-181.99
-141.36
-96.10
-51.86
-11.64
31.96
76.34
114.22
140.54
158.93
172.58
181.82
187.25
189.31
187.92
181.53
170.83
158.86
149.55
145.10
145.73
149.74
153.66
153.83
147.28
134.86
120.33
107.74
98.49
91.82
86.12
80.11
73.57
66.67
60.68
56.69
54.51
51.76
45.74
35.27
21.40
6.84
-5.77
-14.35
-18.14
-18.06
-17.04
-18.39
-24.25
-34.85
-49.28
-66.69
-86.65
-108.94
-128.25
-137.50
-132.31
-113.90
-86.92
-56.39
-26.62
-0.81
19.40
33.91
42.98
46.32
43.16
33.20
16.90
-4.35
-28.12
-51.66
-73.79
-94.30
-113.45
-130.47
-142.40
-145.19
-135.58
-112.56
-78.07
-37.30
2.81
35.48
56.71
67.18
71.05
73.92
81.02
95.65
114.56
132.56
143.25
141.36
124.94
94.84
54.19
8.50
-34.45
-66.97
-82.84
-79.35
-57.80
-22.80
18.35
55.51
79.43
88.37
86.82
79.37
70.61
59.27
46.63
37.53
37.94
50.37
75.59
108.76
140.37
154.65
141.17
102.47
52.55
7.01
-25.35
-43.74
-53.37
-60.62
-69.08
-77.78
-84.47
-86.06
-82.79
-77.71
-73.92
-73.65
-77.36
-83.58
-89.26
-91.46
-89.29
-82.70
-74.81
-68.79
-66.60
-68.31
-71.95
-74.36
-72.64
-65.46
-53.72
-39.93
-26.40
-14.87
-6.68
-2.74
-3.55
-8.67
-15.71
-20.10
-16.57
-2.47
19.61
43.01
61.27
71.18
73.79
73.19
73.67
77.31
83.62
92.19
100.77
108.19
113.77
116.75
116.04
110.29
98.48
80.57
57.81
32.14
5.90
-19.36
-42.63
-62.16
-76.38
-84.36
-86.16
-82.75
-75.59
-65.59
-53.22
-38.44
-21.59
-4.71
8.37
13.25
7.25
-8.80
-29.99
-49.61
-61.83
-64.22
-58.50
-49.15
-40.51
-34.64
-31.16
-27.28
-22.17
-16.66
-11.47
-5.86
1.60
11.05
20.12
25.30
23.85
15.14
1.75
-11.35
-19.45
-20.76
-17.06
-11.95
-9.37
-11.47
-18.16
-27.03
-33.39
-31.90
-18.53
8.01
45.51
88.31
128.79
158.15
168.68
156.89
124.74
78.81
28.63
-15.41
-44.78
-52.91
-38.48
-11.20
13.78
26.53
26.70
20.54
16.27
16.49
20.60
26.01
29.93
31.89
33.73
36.46
40.28
44.23
46.71
45.80
41.39
34.30
26.39
19.59
15.20
13.11
11.69
8.74
2.80
-6.75
-20.03
-34.29
-46.98
-56.37
-62.08
-64.90
-66.27
-67.25
-68.25
-68.96
-68.16
-64.62
-57.69
-47.82
-36.38
-25.05
-14.96
-6.41
0.82
7.31
13.42
19.21
24.35
27.99
28.80
25.23
16.08
1.40
-16.74
-34.72
-48.66
-56.21
-57.69
-55.98
-54.83
-56.84
-61.70
-66.39
-67.26
-62.24
-51.93
-38.86
-25.74
-14.16
-4.96
1.88
6.90
10.77
14.14
17.62
21.98
27.81
34.86
40.76
42.74
39.60
32.44
23.83
16.23
10.81
7.24
3.97
-2.57
-15.38
-35.12
-60.00
-87.12
-113.72
-137.66
-157.17
-162.87
-149.25
-119.28
-83.02
-49.86
-23.91
-4.96
8.84
19.55
28.90
36.00
39.66
39.96
38.45
37.08
37.23
37.66
37.77
37.23
35.06
30.89
25.65
21.07
18.52
18.10
18.88
19.95
20.84
21.17
21.43
22.88
26.83
33.59
42.10
50.45
57.04
60.88
61.57
59.52
55.77
51.63
48.12
45.70
44.39
44.12
44.80
46.27
48.59
52.04
57.04
63.87
72.56
82.76
93.94
105.43
116.56
126.83
135.91
143.72
150.22
155.33
158.76
160.05
158.67
154.32
147.09
137.57
126.74
115.74
105.58
96.78
89.19
81.76
72.71
59.92
41.49
16.34
-15.42
-52.62
-93.24
-134.76
-174.57
-210.18
-239.55
-261.32
-274.96
-280.83
-280.14
-274.60
-266.00
-255.72
-244.73
-233.67
-223.06
-213.23
-204.36
-196.68
-190.49
-185.96
-182.82
-180.27
-177.00
-171.46
-162.01
-147.28
-126.77
-100.81
-70.43
-36.79
-1.52
32.88
62.85
84.67
96.00
96.64
89.09
77.80
67.60
61.38
59.44
58.76
55.83
50.39
45.01
43.73
47.66
55.71
65.73
76.00
86.52
96.52
106.85
118.03
129.51
139.75
147.49
152.19
154.42
155.45
156.76
159.69
164.38
169.89
174.56
176.79
175.15
168.42
155.93
137.94
116.17
92.92
70.40
49.82
31.21
13.41
-5.35
-26.06
-48.04
-68.88
-85.77
-96.61
-100.94
-99.67
-94.68
-88.45
-82.70
-78.07
-74.38
-71.58
-70.00
-70.24
-72.44
-75.90
-80.07
-83.76
-85.45
-84.11
-79.94
-74.20
-68.71
-64.77
-62.79
-63.47
-66.55
-70.77
-74.48
-76.55
-76.54
-74.53
-70.38
-57.50
-34.18
-4.90
22.83
43.87
56.47
62.98
65.14
64.34
61.80
57.37
51.64
45.99
42.04
40.98
42.89
46.58
50.63
54.13
56.08
56.62
56.94
58.43
61.68
66.34
71.08
74.10
74.05
69.68
60.77
48.51
35.37
24.36
18.19
18.17
23.62
31.78
38.05
37.83
28.21
8.88
-17.92
-48.37
-78.40
-104.63
-124.73
-137.60
-142.83
-140.56
-131.58
-117.40
-100.33
-83.18
-68.61
-58.42
-53.19
-52.12
-53.78
-56.79
-60.18
-63.43
-66.24
-68.31
-68.95
-67.06
-61.39
-51.18
-36.73
-19.10
0.18
19.53
37.48
52.98
65.54
75.26
82.28
86.41
87.45
85.31
79.93
70.94
57.91
39.57
17.70
-3.28
-19.21
-28.35
-31.38
-30.27
-27.53
-25.28
-24.73
-26.10
-29.21
-34.02
-40.24
-47.45
-53.88
-57.75
-57.83
-53.95
-46.86
-37.83
-28.40
-19.59
-11.70
-4.51
2.15
8.47
14.99
20.75
25.62
29.71
33.21
36.35
39.24
41.68
43.39
44.15
43.96
43.32
42.69
42.54
43.03
43.86
44.30
43.58
41.09
36.61
30.45
23.13
15.55
8.48
2.47
-2.09
-4.73
-4.92
-2.33
3.01
10.60
20.15
30.89
41.47
49.96
54.61
54.36
49.36
41.27
32.88
28.08
29.31
36.27
46.23
55.74
62.18
64.62
63.68
61.03
59.73
61.93
67.92
76.15
84.34
90.05
91.13
86.01
67.06
33.32
-8.14
-46.07
-72.35
-85.11
-87.40
-84.57
-81.93
-83.01
-87.18
-91.65
-93.62
-92.20
-88.05
-83.09
-79.42
-78.73
-81.80
-87.24
-92.84
-96.32
-95.89
-90.34
-79.91
-66.81
-54.99
-51.03
-60.48
-85.18
-121.25
-159.58
-188.41
-197.98
-183.48
-147.12
-96.73
-41.51
11.27
57.68
96.47
127.68
151.02
166.68
174.61
175.45
171.44
166.23
163.45
164.79
169.66
175.34
180.02
182.48
182.41
180.26
177.28
174.71
172.75
170.72
157.46
127.46
82.83
31.89
-16.61
-57.03
-85.97
-105.61
-117.80
-124.06
-124.44
-119.74
-111.01
-100.68
-91.03
-83.42
-77.85
-73.54
-69.49
-63.43
-53.96
-41.36
-27.95
-16.86
-10.19
-9.15
-13.04
-19.75
-25.77
-28.22
-26.04
-20.33
-13.25
-7.14
-4.04
-4.76
-9.19
-16.17
-24.25
-32.08
-38.49
-42.56
-43.86
-42.82
-40.45
-37.72
-34.64
-30.08
-22.32
-10.38
4.98
21.15
34.39
41.77
42.38
37.70
30.78
24.69
21.11
19.97
20.10
20.15
19.52
18.11
15.80
12.29
7.12
0.07
-8.45
-17.03
-23.61
-25.57
-21.02
-10.88
1.39
11.82
17.74
18.50
16.22
12.26
7.95
4.13
1.07
-1.03
-2.03
-2.45
-2.72
-3.38
-5.19
-8.49
-12.89
-17.05
-18.60
-15.58
-7.70
3.40
14.72
23.15
26.86
25.51
18.44
6.79
-6.56
-17.91
-23.82
-22.27
-13.17
1.45
17.90
32.02
40.97
45.02
44.80
41.48
36.43
30.85
25.39
20.20
14.97
9.25
1.48
-8.63
-20.25
-31.94
-42.32
-50.79
-57.14
-61.11
-61.78
-58.14
-49.91
-38.07
-25.64
-15.04
-8.68
-7.67
-11.51
-18.20
-25.55
-32.07
-36.99
-40.04
-40.81
-38.88
-33.89
-26.14
-15.99
-5.14
4.46
11.55
16.19
20.45
26.86
37.95
53.05
70.13
87.32
101.54
111.48
117.19
119.55
119.27
116.70
111.71
104.34
94.82
83.62
71.65
59.67
48.08
36.69
25.04
12.72
-0.07
-12.64
-24.08
-33.38
-39.95
-43.76
-45.32
-45.40
-44.80
-44.04
-43.39
-42.99
-42.64
-42.12
-41.23
-39.97
-38.66
-37.87
-38.24
-40.23
-43.90
-48.79
-54.09
-58.90
-62.43
-64.11
-63.57
-60.62
-55.38
-48.32
-40.35
-32.71
-26.57
-22.56
-20.46
-19.22
-17.44
-14.07
-8.72
-1.76
5.90
13.19
19.23
23.53
25.90
26.37
24.93
21.83
17.63
12.92
8.15
3.41
-1.44
-6.71
-12.73
-19.84
-27.82
-35.98
-43.47
-49.64
-54.24
-57.23
-58.77
-59.11
-58.67
-57.26
-54.19
-48.67
-40.26
-28.99
-15.05
1.19
20.81
42.11
61.36
74.86
80.75
79.15
71.41
59.76
46.49
33.71
22.87
15.20
11.71
12.98
18.80
28.11
39.31
50.37
59.36
64.71
66.00
63.98
59.91
54.86
48.38
41.17
33.17
24.15
13.98
3.10
-7.56
-17.02
-24.51
-30.26
-33.79
-35.09
-34.21
-31.37
-26.88
-21.24
-15.19
-9.59
-5.29
-2.62
-2.10
-3.86
-7.70
-13.21
-19.83
-27.05
-34.59
-42.44
-49.28
-54.63
-58.22
-59.96
-59.98
-58.72
-56.75
-54.64
-52.64
-50.44
-47.62
-43.48
-37.56
-29.93
-21.25
-12.38
-3.96
3.73
10.81
17.32
23.48
29.24
34.16
37.61
39.24
39.14
37.76
35.65
33.15
31.00
29.71
29.41
29.86
30.82
32.22
34.02
36.12
38.31
41.10
45.07
50.42
56.90
64.02
71.25
78.08
83.99
84.34
76.64
62.13
45.19
30.05
18.73
11.25
6.72
4.03
2.32
1.46
1.16
0.67
-1.13
-4.99
-10.74
-17.42
-23.80
-28.84
-31.59
-31.88
-30.31
-27.98
-25.86
-24.51
-24.13
-25.34
-28.06
-32.01
-36.81
-41.86
-46.39
-49.36
-49.68
-46.68
-40.70
-32.77
-24.26
-16.42
-10.04
-5.28
-1.89
0.47
1.99
2.33
1.21
-1.37
-5.07
-9.34
-13.78
-18.41
-23.77
-29.07
-34.18
-38.91
-43.08
-46.44
-48.76
-49.87
-49.66
-48.08
-44.99
-40.54
-34.82
-27.78
-19.14
-8.26
5.60
22.94
43.51
66.22
89.00
109.39
125.04
134.40
136.96
133.09
123.71
110.01
93.63
76.05
58.44
41.38
25.09
9.58
-5.29
-19.73
-33.91
-47.14
-58.63
-68.25
-76.73
-85.01
-93.65
-102.70
-111.74
-120.11
-125.80
-126.83
-122.55
-113.96
-102.86
-91.02
-79.88
-70.46
-62.98
-54.90
-42.47
-22.91
4.36
38.15
76.13
115.14
151.87
175.17
175.97
154.97
122.03
87.16
55.20
27.07
2.38
-18.21
-35.78
-48.89
-55.53
-55.66
-51.35
-45.25
-39.06
-33.18
-27.68
-22.69
-16.92
-8.61
2.66
15.75
29.05
41.45
52.47
61.78
68.88
74.17
78.30
80.68
79.78
74.46
65.07
53.58
42.49
33.68
24.81
15.32
5.77
-2.52
-8.22
-10.66
-9.94
-6.40
-2.37
0.43
1.78
2.02
1.76
1.53
0.43
-1.84
-5.54
-10.90
-17.46
-23.99
-29.45
-33.39
-35.89
-37.18
-37.19
-35.80
-32.87
-28.14
-21.39
-13.06
-4.15
3.99
10.04
13.21
12.92
9.15
2.89
-4.23
-10.56
-15.06
-17.53
-18.58
-19.13
-20.52
-23.68
-28.34
-33.23
-36.33
-36.02
-31.50
-22.96
-10.13
5.10
19.27
29.87
36.54
41.14
45.53
50.77
56.91
63.56
70.57
75.96
77.98
74.99
67.24
55.91
43.40
33.20
29.76
36.43
53.89
78.23
99.19
110.11
106.65
86.88
48.78
-5.04
-69.67
-139.22
-207.06
-266.75
-309.59
-327.93
-318.08
-282.03
-226.72
-162.46
-99.43
-38.53
13.85
53.14
78.45
91.27
92.97
84.78
68.67
48.18
28.23
10.61
-2.22
-8.87
-9.84
-6.66
-0.63
7.44
17.05
28.03
38.44
47.41
54.40
58.95
60.87
60.54
58.65
55.78
52.12
46.93
40.34
32.84
25.07
17.78
11.79
7.74
5.83
5.77
6.63
7.95
9.38
10.63
11.33
11.09
9.67
6.92
2.90
-2.31
-8.32
-14.89
-21.76
-28.50
-34.44
-38.66
-40.54
-40.10
-38.09
-35.74
-34.87
-37.16
-42.09
-47.64
-50.66
-48.39
-39.21
-22.63
0.63
27.74
55.57
80.10
97.63
106.12
106.02
100.32
90.48
79.61
70.04
62.38
55.87
48.71
38.55
23.36
1.80
-23.96
-47.75
-61.72
-59.92
-40.50
-7.08
31.46
64.00
81.35
80.09
63.98
42.30
22.63
10.34
6.94
9.84
14.81
18.40
19.56
19.29
18.87
18.23
15.94
11.87
5.31
-3.69
-14.02
-23.93
-31.92
-37.62
-41.88
-45.71
-49.72
-54.09
-58.08
-60.55
-60.47
-57.50
-52.28
-46.21
-40.64
-36.45
-34.03
-32.96
-32.25
-30.91
-28.47
-25.27
-22.24
-20.36
-20.19
-21.89
-25.07
-29.00
-32.89
-36.03
-37.92
-38.36
-37.45
-35.66
-33.86
-32.93
-33.49
-35.71
-39.24
-43.32
-46.98
-49.21
-49.18
-46.40
-40.82
-32.94
-23.67
-14.09
-5.15
2.52
8.73
13.56
17.13
19.57
20.99
21.55
21.53
21.30
21.27
21.69
22.65
24.04
25.52
26.71
27.25
26.98
25.97
24.51
22.96
21.58
20.39
19.20
17.67
15.52
12.66
9.15
5.23
1.14
-2.82
-6.32
-8.99
-10.44
-10.34
-8.55
-5.21
-0.76
4.17
8.99
13.28
16.85
19.65
21.76
23.22
24.01
24.15
23.74
23.02
22.33
21.92
21.85
22.01
22.27
22.53
22.79
23.08
23.36
23.41
22.74
20.86
17.70
13.71
9.70
6.33
3.88
2.09
0.29
-2.47
-7.03
-13.39
-20.45
-26.66
-30.70
-31.96
-30.68
-27.80
-24.94
-23.74
-24.72
-26.81
-28.09
-26.69
-21.43
-12.11
0.28
13.30
23.64
28.52
26.57
17.61
2.46
-16.78
-36.60
-49.77
-48.44
-31.12
-4.53
22.13
42.49
54.53
59.72
61.28
61.88
61.67
58.49
50.25
37.06
21.37
6.55
-4.87
-12.27
-16.98
-21.30
-26.84
-32.91
-36.70
-35.34
-27.99
-16.40
-4.08
5.25
8.89
5.98
-2.28
-13.06
-23.25
-30.44
-33.57
-32.97
-29.76
-25.32
-20.56
-15.54
-9.90
-3.79
1.54
4.61
4.44
1.67
-1.34
-1.67
2.35
9.66
16.59
18.72
13.55
2.43
-9.58
-16.60
-15.22
-6.29
5.85
16.04
21.40
22.66
23.00
25.44
30.54
35.87
37.53
32.70
21.41
6.79
-6.57
-14.89
-16.89
-14.03
-9.50
-6.38
-6.32
-9.15
-13.26
-16.69
-17.95
-16.79
-13.78
-10.24
-7.58
-6.78
-8.23
-11.90
-17.57
-24.69
-32.07
-37.62
-38.71
-33.10
-20.19
-1.86
17.93
34.57
44.50
46.91
43.52
37.27
30.64
24.73
19.43
14.35
9.79
6.73
6.32
8.84
13.20
17.47
19.76
19.01
15.69
11.36
8.00
7.18
9.45
14.28
20.30
25.52
27.75
25.03
16.24
1.78
-16.07
-33.60
-46.85
-53.09
-52.03
-45.47
-36.54
-28.14
-21.82
-17.42
-13.82
-9.98
-5.73
-1.79
0.80
1.46
0.42
-1.23
-2.27
-1.88
-0.17
1.93
3.12
2.48
-0.10
-3.79
-7.29
-9.40
-9.69
-8.56
-7.10
-6.41
-7.14
-9.21
-11.81
-13.84
-14.38
-13.03
-10.13
-6.59
-3.50
-1.60
-1.13
-1.83
-3.17
-4.59
-5.71
-6.32
-6.28
-5.60
-4.54
-3.62
-3.66
-5.27
-8.48
-12.65
-16.70
-19.54
-20.54
-19.65
-17.37
-14.74
-13.00
-13.37
-16.74
-23.38
-32.63
-43.03
-53.35
-61.70
-66.78
-67.72
-64.26
-56.46
-44.37
-27.98
-7.65
15.24
38.19
57.85
71.77
78.62
78.15
71.24
59.97
47.20
35.73
27.77
24.39
26.72
34.70
46.38
58.35
67.29
71.42
70.76
67.16
63.28
63.46
71.46
88.24
111.17
135.28
154.83
164.76
162.80
140.57
99.26
51.62
14.04
-4.97
-8.46
-6.64
-10.42
-26.16
-52.98
-85.54
-115.15
-133.54
-135.72
-120.45
-90.05
-49.87
-5.85
34.75
62.26
70.96
61.75
40.40
13.95
-10.62
-32.47
-50.99
-65.97
-77.25
-85.04
-89.73
-92.97
-96.13
-99.55
-102.86
-104.93
-105.25
-103.65
-99.73
-93.34
-84.35
-73.16
-60.99
-49.96
-41.47
-36.04
-33.02
-30.60
-27.29
-21.77
-14.03
-5.31
2.50
8.68
13.84
19.18
25.74
33.70
44.01
57.67
75.08
95.65
118.51
142.47
165.98
187.66
197.50
189.73
167.47
140.09
114.29
89.99
63.30
31.61
-3.78
-38.18
-64.63
-78.23
-79.58
-73.91
-67.84
-66.28
-71.14
-81.16
-92.54
-98.86
-94.54
-76.77
-47.29
-11.46
23.71
51.84
69.15
75.38
71.27
62.65
54.09
47.14
41.33
35.71
29.85
23.70
17.06
9.57
1.04
-9.03
-20.69
-33.03
-44.38
-52.94
-57.48
-57.59
-53.72
-46.86
-39.09
-32.83
-29.80
-30.51
-34.05
-38.44
-41.50
-41.64
-38.01
-31.22
-23.20
-15.71
-10.56
-8.82
-10.42
-14.07
-17.66
-18.88
-16.18
-9.29
0.84
12.19
22.42
29.58
32.68
32.00
28.92
25.22
22.36
20.85
20.13
19.21
17.60
15.91
15.53
17.51
21.54
25.76
27.52
24.77
17.26
6.55
-4.65
-13.89
-20.10
-23.62
-25.49
-26.55
-27.03
-26.75
-25.81
-24.71
-23.78
-23.64
-24.39
-25.44
-25.54
-23.45
-17.83
-8.76
2.61
13.97
22.67
26.68
25.25
19.52
12.56
8.50
10.57
20.08
35.01
50.64
61.74
64.77
59.17
47.05
32.32
16.29
0.04
-15.46
-28.70
-37.26
-38.68
-31.70
-17.48
0.83
17.14
26.61
27.31
20.69
10.55
1.07
-5.02
-7.16
-6.63
-5.82
-6.04
-7.89
-11.17
-15.23
-19.24
-22.57
-24.92
-26.40
-27.45
-28.26
-29.03
-29.84
-30.64
-31.42
-32.20
-32.95
-33.56
-33.91
-33.16
-31.49
-29.78
-29.36
-31.35
-36.22
-43.43
-51.67
-59.36
-65.11
-68.28
-68.83
-67.27
-64.40
-61.30
-59.21
-59.40
-62.79
-69.38
-78.20
-87.23
-94.17
-97.22
-95.71
-90.08
-81.28
-69.78
-54.87
-34.80
-7.74
26.65
66.29
106.68
142.49
169.75
187.57
198.18
205.31
211.72
217.62
220.77
218.38
209.40
195.58
180.65
168.11
159.06
151.57
141.98
127.07
105.95
80.43
53.89
29.56
9.07
-7.87
-22.68
-36.84
-50.97
-64.59
-76.45
-85.23
-90.21
-91.67
-90.77
-89.00
-87.61
-87.13
-87.20
-86.79
-84.89
-80.84
-74.62
-66.67
-57.59
-47.94
-38.30
-29.17
-21.13
-14.80
-10.69
-8.91
-9.08
-10.31
-11.79
-13.13
-14.29
-15.37
-16.44
-17.33
-17.65
-17.01
-15.08
-12.11
-9.28
-7.57
-7.26
-8.14
-9.59
-10.96
-11.86
-11.73
-10.52
-9.36
-8.61
-7.60
-5.48
-1.61
3.98
10.53
17.67
24.65
29.34
31.24
31.62
32.12
34.21
38.70
45.57
55.35
67.78
80.06
90.47
98.65
104.33
107.33
107.68
97.99
75.85
54.40
37.84
22.80
7.71
-7.79
-22.57
-34.40
-41.13
-40.59
-33.08
-23.29
-15.89
-13.68
-17.37
-25.59
-36.06
-47.03
-56.90
-65.17
-73.29
-81.47
-88.07
-90.51
-86.13
-73.56
-53.44
-27.38
2.07
31.00
56.11
72.08
73.98
61.69
41.45
21.47
7.16
-0.84
-5.60
-10.51
-16.88
-23.56
-28.03
-28.61
-26.03
-22.75
-21.29
-23.04
-26.87
-29.76
-28.89
-23.15
-13.97
-4.80
0.66
0.05
-6.22
-15.25
-22.60
-24.51
-18.84
-5.84
11.84
29.89
43.75
49.77
42.98
22.97
-6.59
-38.85
-66.28
-83.23
-86.96
-77.88
-59.49
-38.01
-16.40
1.97
14.28
19.12
16.48
7.28
-7.37
-26.94
-52.33
-80.30
-106.65
-128.34
-143.51
-151.21
-152.04
-145.49
-133.31
-117.99
-101.18
-84.39
-68.37
-53.12
-38.33
-23.88
-9.71
4.06
17.88
32.86
49.23
66.26
82.44
95.82
104.54
107.41
103.84
94.45
81.23
66.75
54.01
45.94
44.57
50.34
61.95
76.70
91.68
104.90
115.70
124.69
133.20
142.26
152.00
161.59
169.68
175.21
177.94
178.13
176.06
171.48
163.52
151.18
134.07
113.07
90.16
67.73
47.52
29.89
13.94
-1.82
-18.60
-36.79
-56.07
-75.76
-95.12
-113.41
-129.70
-142.82
-151.57
-155.16
-153.41
-146.82
-136.10
-121.86
-104.46
-84.20
-61.74
-38.32
-15.41
5.63
24.01
39.49
52.07
61.70
68.28
71.75
72.24
70.18
66.12
60.54
53.79
46.13
37.84
29.20
20.12
9.97
-2.04
-16.32
-32.28
-48.11
-61.28
-69.39
-70.82
-65.88
-56.81
-46.87
-39.15
-35.47
-35.87
-39.17
-43.49
-46.69
-47.62
-46.33
-43.43
-39.61
-35.67
-32.67
-32.58
-37.54
-47.94
-62.37
-77.52
-88.43
-90.52
-81.73
-63.63
-41.41
-21.48
-7.93
-2.58
-5.02
-12.81
-22.73
-31.91
-35.45
-30.14
-20.95
-10.38
2.14
16.16
31.08
46.15
60.50
73.12
82.66
88.19
90.85
91.89
91.96
91.48
90.55
89.11
87.14
84.57
79.98
74.40
69.59
66.91
66.99
69.55
74.13
79.42
83.99
86.78
87.96
87.80
86.14
83.07
78.73
73.41
67.54
61.84
57.10
54.23
53.09
52.29
49.74
43.44
32.38
16.88
-1.56
-21.05
-39.98
-57.67
-74.15
-89.56
-103.68
-115.85
-125.32
-131.65
-135.00
-136.08
-135.80
-134.75
-133.02
-130.42
-126.81
-122.30
-117.32
-112.41
-108.45
-105.78
-103.97
-101.98
-98.72
-93.52
-86.23
-77.28
-67.22
-57.61
-49.45
-42.80
-37.07
-31.66
-26.35
-21.09
-15.98
-10.76
-6.54
-3.78
-1.87
0.30
3.39
7.18
11.10
14.48
17.67
19.63
20.36
21.05
23.10
26.83
31.12
34.35
34.60
41.88
60.32
86.67
113.37
135.25
151.36
163.00
171.83
176.09
177.47
175.38
169.63
161.05
150.56
137.81
120.48
99.88
75.99
49.66
20.76
-9.83
-40.36
-69.29
-96.06
-121.11
-145.19
-169.39
-194.48
-220.74
-245.76
-264.82
-272.50
-264.55
-239.42
-198.92
-148.54
-97.18
-53.03
-20.21
1.25
13.35
18.74
19.79
18.35
15.46
9.21
-0.35
-9.84
-14.75
-12.90
-5.43
3.46
7.58
0.25
-26.99
-75.88
-139.11
-203.58
-256.77
-290.24
-301.27
-292.80
-247.43
-168.61
-79.98
-7.11
40.43
66.42
79.34
86.70
93.29
100.87
104.36
99.44
83.25
54.71
13.59
-36.93
-88.94
-131.44
-154.15
-154.27
-133.34
-94.95
-41.61
18.80
78.19
131.29
176.31
213.81
243.16
264.52
279.17
288.69
293.54
294.04
290.53
283.12
271.67
254.82
231.93
203.92
172.87
140.82
109.73
80.88
54.46
29.86
6.21
-16.33
-36.26
-51.52
-61.04
-65.04
-65.21
-64.01
-63.65
-65.39
-69.36
-74.86
-80.92
-86.74
-91.45
-94.15
-93.95
-90.25
-83.06
-73.11
-61.63
-49.91
-38.98
-29.22
-20.55
-12.66
-5.28
1.64
7.94
13.33
17.45
20.04
21.13
21.08
20.65
20.72
22.03
24.77
28.49
32.12
34.38
34.16
30.77
24.09
14.55
3.20
-8.34
-18.15
-24.59
-27.00
-26.09
-23.78
-22.25
-22.95
-25.98
-30.19
-33.98
-36.19
-36.50
-35.19
-32.60
-28.68
-23.01
-15.40
-6.18
3.74
13.15
21.15
27.35
31.71
34.28
34.95
33.56
30.14
25.13
19.35
13.76
9.19
6.13
4.70
4.80
6.23
8.68
11.80
15.15
18.34
21.21
23.86
26.64
29.90
33.73
37.90
41.93
45.33
47.91
49.72
51.01
51.97
52.45
51.91
49.43
44.05
34.91
21.64
4.47
-15.58
-36.68
-56.55
-72.96
-84.45
-90.97
-94.10
-96.63
-101.62
-111.05
-124.77
-140.13
-152.68
-157.65
-151.71
-134.25
-107.51
-75.75
-43.80
-15.79
5.47
18.32
22.10
17.31
6.00
-8.52
-22.63
-34.12
-43.29
-52.61
-64.80
-80.37
-96.44
-107.41
-107.41
-92.95
-64.32
-25.21
19.08
63.31
103.32
136.13
159.87
173.85
178.78
176.83
170.97
164.07
158.07
153.68
150.72
148.54
146.53
144.27
141.51
138.07
133.78
128.20
120.52
109.64
94.62
75.21
52.29
27.84
4.36
-15.95
-31.83
-43.15
-50.61
-55.10
-57.23
-57.09
-54.34
-48.48
-39.14
-26.30
-10.53
7.00
24.48
39.86
51.38
58.07
60.12
58.97
56.78
55.79
57.62
62.86
71.11
81.38
92.59
104.19
116.31
129.53
144.28
159.83
173.70
181.70
178.83
160.66
125.08
73.41
10.85
-54.38
-112.73
-155.58
-177.34
-176.84
-157.62
-126.97
-93.92
-66.60
-49.93
-44.37
-46.59
-51.62
-55.42
-56.63
-56.51
-57.54
-61.42
-68.02
-75.66
-82.49
-87.75
-91.99
-95.82
-98.62
-97.89
-90.22
-73.17
-47.03
-15.18
16.94
43.77
61.46
68.64
66.24
56.57
42.37
26.11
9.77
-5.23
-17.98
-28.00
-35.17
-39.73
-42.11
-42.93
-42.84
-42.42
-42.10
-42.14
-42.55
-43.24
-44.05
-44.75
-45.00
-44.35
-42.35
-38.68
-33.36
-26.79
-19.68
-12.72
-6.36
-0.64
4.75
10.10
15.54
21.00
26.18
30.74
34.36
36.77
37.58
36.25
32.13
24.95
15.18
4.06
-6.68
-15.37
-21.09
-23.91
-24.97
-26.03
-28.68
-33.73
-41.09
-49.96
-59.27
-67.93
-75.09
-80.19
-83.39
-84.83
-84.30
-81.36
-75.60
-66.86
-55.31
-41.52
-26.53
-12.67
-1.87
5.11
8.64
9.60
8.91
7.34
5.57
4.04
1.66
-2.25
-7.46
-13.36
-19.94
-27.85
-37.65
-49.19
-61.43
-74.63
-88.15
-100.22
-108.79
-112.98
-113.21
-110.49
-105.63
-87.48
-52.60
-7.03
38.35
75.85
103.03
120.42
129.72
133.03
132.58
128.30
120.31
109.58
97.57
85.26
73.11
61.47
50.59
40.70
30.02
17.34
2.98
-11.42
-24.02
-33.58
-39.74
-43.65
-45.62
-47.02
-48.22
-48.21
-45.29
-38.45
-27.99
-15.36
-2.12
10.88
22.96
34.18
44.79
54.52
62.17
65.97
64.36
56.95
44.95
30.68
17.65
9.68
9.95
19.80
37.99
60.23
80.76
94.17
97.10
89.48
73.95
54.50
34.75
16.78
0.97
-13.34
-25.72
-35.65
-43.45
-50.04
-56.50
-62.87
-68.96
-74.71
-79.56
-82.69
-82.99
-77.08
-63.31
-42.28
-16.75
9.37
32.04
48.84
59.26
64.50
66.30
66.09
64.75
62.59
60.74
57.90
53.64
48.48
43.61
39.51
35.67
30.81
23.73
13.83
0.70
-14.98
-31.90
-47.65
-60.50
-69.81
-76.21
-81.01
-82.77
-81.84
-79.76
-81.78
-87.09
-93.11
-95.30
-91.68
-82.33
-69.10
-55.42
-44.27
-36.42
-32.52
-32.77
-35.89
-40.57
-46.19
-52.07
-57.69
-62.24
-64.76
-64.07
-59.18
-49.04
-32.83
-10.00
19.00
51.77
84.44
112.72
133.25
144.21
145.63
138.66
125.14
107.13
86.69
66.28
48.84
37.31
33.35
36.39
43.55
50.82
54.81
53.92
48.94
42.51
37.84
37.34
41.72
50.04
60.41
70.69
78.91
83.67
84.57
82.10
77.12
70.40
62.42
53.44
43.79
33.71
23.54
13.93
5.45
-1.85
-8.36
-14.37
-19.69
-23.82
-26.95
-30.15
-34.65
-41.24
-49.79
-59.23
-67.06
-70.01
-63.32
-45.67
-22.37
-2.05
9.52
11.78
7.18
-0.65
-8.44
-14.50
-18.40
-20.43
-20.64
-18.89
-15.47
-12.75
-12.28
-14.53
-18.19
-21.47
-23.06
-21.73
-16.81
-8.97
-2.68
-4.21
-19.00
-49.27
-93.39
-145.65
-196.50
-234.84
-241.04
-204.40
-132.01
-45.70
32.70
91.44
128.75
148.03
153.37
147.68
130.91
103.41
68.73
33.20
2.82
-20.41
-36.97
-48.55
-56.40
-61.77
-64.80
-64.30
-58.99
-49.28
-37.71
-27.43
-20.50
-17.12
-16.27
-17.13
-18.67
-19.72
-19.24
-15.50
-7.87
3.10
15.59
26.62
33.77
36.31
35.53
33.55
31.53
28.65
22.94
13.17
-2.59
-24.16
-49.00
-72.35
-89.51
-97.70
-96.89
-88.29
-74.54
-58.91
-43.86
-31.50
-22.31
-15.94
-12.10
-10.67
-9.90
-8.09
-3.74
4.78
18.25
38.30
64.97
95.96
127.72
158.60
187.09
211.56
230.64
242.63
248.59
249.96
247.61
229.40
191.45
140.00
87.76
52.29
31.94
22.36
19.11
16.08
10.10
2.34
-4.67
-8.58
-8.27
-5.09
0.24
5.99
9.77
10.13
8.45
6.88
7.29
10.83
17.35
27.89
42.55
59.56
75.36
85.65
85.31
69.92
37.65
-9.55
-64.54
-117.85
-160.81
-188.02
-198.60
-196.11
-186.48
-174.86
-163.48
-150.82
-133.90
-110.97
-83.04
-53.72
-27.87
-9.75
-1.67
-3.89
-14.80
-31.66
-51.06
-69.19
-82.75
-89.59
-89.38
-83.57
-74.72
-65.54
-58.07
-53.62
-52.98
-56.93
-65.56
-77.63
-90.49
-100.82
-105.86
-104.25
-96.48
-84.52
-71.34
-59.40
-49.77
-42.07
-35.22
-28.27
-20.67
-12.30
-3.32
5.41
12.95
18.64
22.14
23.28
22.10
19.16
15.57
16.29
24.04
37.72
53.07
66.11
75.33
81.18
84.63
86.16
85.51
81.46
73.31
61.73
48.89
37.65
30.55
28.88
32.44
39.69
47.74
53.68
55.71
53.61
48.35
41.52
34.54
28.41
23.57
19.76
16.61
13.99
12.13
10.73
9.58
8.34
6.65
4.30
1.09
-2.92
-7.40
-11.86
-15.91
-19.31
-22.06
-24.19
-25.62
-26.14
-25.48
-23.42
-20.03
-15.66
-10.77
-5.79
-0.83
4.34
10.03
16.46
23.49
30.59
36.99
42.03
45.23
46.46
45.99
44.39
42.42
40.92
40.54
41.48
43.51
46.00
48.23
49.69
50.24
50.06
49.46
48.58
47.35
45.61
43.22
40.25
37.04
34.00
31.49
29.63
28.25
27.03
25.60
23.67
21.10
17.74
13.36
7.64
0.37
-8.25
-17.47
-26.10
-33.02
-37.77
-40.83
-43.55
-47.53
-53.83
-62.54
-72.68
-82.70
-91.01
-96.52
-98.78
-97.87
-94.07
-87.70
-79.10
-68.79
-57.58
-46.55
-36.80
-29.01
-23.13
-18.38
-13.72
-8.46
-2.70
2.64
6.46
8.13
7.93
6.95
6.40
7.02
8.73
10.87
12.68
13.78
14.27
14.49
14.72
14.95
14.90
14.28
12.86
10.56
7.44
3.68
-0.39
-4.33
-7.70
-10.24
-11.92
-12.89
-13.37
-13.41
-12.92
-11.74
-9.76
-7.07
-3.98
-0.88
1.96
4.47
6.84
9.32
12.14
15.29
18.55
21.58
24.18
26.35
28.41
30.70
33.30
35.79
37.38
37.16
34.60
29.83
23.59
16.96
10.97
6.30
3.19
1.53
1.02
1.36
2.33
3.83
5.84
8.31
11.09
13.87
16.27
17.88
18.51
18.22
17.19
15.63
13.57
10.92
7.55
3.48
-1.07
-5.76
-10.22
-14.25
-17.75
-20.80
-23.47
-25.87
-28.07
-30.15
-32.09
-33.85
-35.42
-36.90
-38.57
-40.80
-43.74
-47.25
-50.79
-53.61
-55.12
-55.02
-53.42
-50.69
-47.25
-43.48
-39.80
-36.79
-35.10
-35.40
-37.93
-42.26
-47.17
-50.78
-51.05
-46.43
-36.45
-21.99
-5.19
11.30
25.12
34.95
40.76
43.62
44.99
46.20
48.10
50.98
54.78
59.24
64.01
68.63
72.47
74.89
75.37
73.78
70.40
65.92
61.20
56.97
53.63
51.16
49.23
47.58
46.17
45.25
45.08
45.70
46.57
46.72
45.06
40.90
34.29
26.02
17.26
9.17
2.41
-2.98
-7.41
-11.43
-15.40
-19.32
-22.81
-25.30
-26.31
-25.54
-22.94
-18.49
-12.23
-4.26
5.05
14.98
24.59
33.07
40.01
45.58
50.34
54.89
59.56
64.24
68.64
72.57
76.00
78.84
80.75
81.07
79.04
74.15
66.35
56.20
44.51
32.09
19.38
6.31
-7.48
-22.37
-38.41
-55.31
-72.18
-87.80
-101.11
-111.65
-119.78
-126.46
-132.65
-138.77
-144.97
-150.66
-154.91
-157.03
-157.12
-156.07
-154.98
-154.56
-154.59
-154.88
-154.23
-150.90
-143.40
-131.68
-117.17
-102.02
-88.11
-76.44
-68.50
-64.62
-63.88
-64.68
-65.75
-66.44
-66.19
-64.45
-60.82
-57.23
-55.26
-55.14
-55.80
-56.04
-55.39
-53.88
-51.98
-38.67
-10.46
27.11
63.66
92.24
111.85
124.68
133.30
139.39
143.56
143.97
139.40
130.45
119.11
107.47
95.81
83.74
70.94
57.50
42.43
25.52
7.89
-8.50
-22.03
-32.05
-38.45
-41.37
-41.50
-39.36
-36.33
-33.07
-29.27
-24.19
-17.21
-7.91
4.17
18.85
35.00
51.38
67.47
83.11
97.88
110.85
120.98
128.20
132.61
134.25
133.34
130.65
127.10
123.32
119.48
115.52
112.10
109.07
105.31
99.36
90.34
78.24
63.64
47.61
26.07
0.40
-24.48
-44.25
-57.80
-66.46
-72.05
-76.18
-79.82
-83.25
-86.06
-87.24
-86.43
-83.48
-78.07
-69.86
-59.14
-46.93
-34.54
-22.44
-11.12
-1.62
5.79
11.99
18.35
25.26
31.65
35.46
35.24
30.26
20.66
7.87
-6.69
-19.42
-26.92
-28.23
-24.78
-18.32
-10.18
-1.54
6.63
13.32
17.52
18.14
14.96
7.97
-1.59
-11.89
-21.48
-29.42
-35.41
-39.65
-42.86
-46.02
-49.95
-55.19
-60.49
-65.34
-69.20
-71.37
-70.93
-67.18
-59.87
-49.33
-36.33
-22.05
-8.00
4.61
15.08
23.20
29.00
32.59
34.06
33.70
32.02
29.65
27.54
26.68
27.78
30.93
35.53
40.54
44.97
48.27
50.39
51.85
53.25
54.86
56.40
57.04
55.83
52.15
46.14
38.62
30.98
24.66
20.58
18.87
18.78
19.00
18.03
14.51
7.58
-2.77
-15.43
-28.12
-37.72
-41.01
-35.79
-21.62
-0.14
25.57
52.00
76.33
96.98
113.51
126.10
135.06
140.61
142.99
142.78
140.92
138.52
136.39
134.74
133.08
130.45
125.93
119.13
110.37
100.51
90.49
80.71
70.67
59.08
44.29
25.03
1.00
-26.86
-56.67
-86.24
-113.77
-138.38
-160.09
-179.52
-197.31
-213.65
-228.20
-240.29
-249.24
-254.72
-256.94
-256.53
-254.29
-250.98
-247.11
-242.82
-237.91
-231.83
-223.84
-213.08
-198.85
-180.76
-158.98
-134.33
-108.15
-82.12
-57.85
-36.56
-18.87
-4.71
6.35
14.98
21.87
27.57
32.49
36.86
40.69
43.80
45.84
46.47
45.58
43.38
40.46
37.59
35.51
34.71
35.23
36.77
38.80
40.76
42.23
43.09
43.42
43.46
43.41
43.27
42.86
41.88
40.07
37.46
34.28
30.96
27.92
25.46
23.66
22.46
21.72
21.32
21.17
21.20
21.32
21.36
21.11
20.32
18.73
16.13
12.39
7.55
1.94
-3.88
-9.16
-13.23
-15.61
-16.22
-15.39
-13.77
-12.12
-11.07
-10.93
-11.72
-13.17
-14.97
-16.91
-18.80
-20.45
-21.49
-21.33
-19.32
-14.98
-8.21
0.54
10.36
20.09
28.56
34.83
38.36
39.09
37.45
34.29
30.58
27.09
24.07
21.22
17.83
13.20
7.09
-0.03
-7.13
-13.02
-16.77
-18.10
-17.49
-16.10
-15.55
-17.68
-24.19
-36.08
-53.04
-73.00
-92.40
-107.14
-114.14
-112.52
-104.10
-92.59
-81.96
-74.77
-71.33
-69.96
-68.19
-63.95
-56.35
-45.48
-31.77
-15.49
3.34
24.47
46.94
68.94
88.21
102.87
112.06
116.32
117.22
116.56
115.66
114.98
114.19
112.65
109.91
106.00
101.34
96.50
91.86
87.43
82.81
77.47
70.95
63.16
54.44
45.59
37.66
31.72
28.56
28.54
31.39
36.37
42.51
48.92
55.09
60.99
66.95
73.30
80.08
86.75
92.36
95.90
96.73
94.77
90.51
84.69
78.02
71.10
64.37
58.05
52.11
46.33
40.34
34.02
27.63
21.81
17.20
13.97
11.52
8.69
4.42
-1.57
-8.44
-14.65
-18.68
-19.90
-18.91
-17.21
-16.55
-18.22
-22.63
-29.38
-37.59
-46.28
-54.58
-61.78
-67.33
-70.88
-72.46
-72.66
-72.73
-74.12
-78.06
-84.92
-94.03
-103.91
-112.81
-119.26
-122.44
-122.25
-119.13
-113.88
-107.41
-100.57
-93.95
-87.65
-81.26
-73.99
-65.08
-54.07
-41.02
-26.37
-10.81
4.95
20.31
34.73
47.81
59.32
69.42
78.61
87.62
97.11
107.37
118.06
128.26
136.93
143.13
146.38
146.76
144.91
141.77
138.12
134.50
131.05
127.78
124.53
120.86
116.02
109.26
100.09
88.73
76.26
64.28
54.61
48.26
45.05
43.87
43.42
42.75
41.25
38.55
34.09
28.00
20.41
11.54
1.81
-8.02
-17.17
-25.54
-33.42
-41.44
-48.39
-52.97
-54.64
-53.85
-51.42
-48.08
-44.73
-41.76
-39.52
-35.71
-28.71
-18.75
-7.73
2.72
12.38
21.69
32.07
44.21
60.95
83.20
108.86
133.92
155.32
172.36
185.49
196.38
186.11
145.93
83.16
16.47
-39.08
-78.34
-100.39
-113.38
-122.25
-129.40
-132.38
-128.95
-118.68
-103.88
-87.68
-72.73
-61.27
-53.69
-49.73
-46.21
-40.44
-31.76
-21.38
-10.66
-0.44
8.52
16.05
21.22
23.81
23.02
17.52
6.49
-9.13
-27.54
-46.49
-63.25
-75.98
-83.65
-86.66
-87.03
-87.32
-89.68
-97.01
-110.44
-127.53
-143.16
-151.85
-150.06
-138.14
-118.96
-96.79
-78.69
-69.84
-70.96
-78.69
-88.63
-96.79
-101.28
-100.50
-93.69
-85.59
-82.22
-87.70
-102.90
-126.52
-155.10
-184.62
-208.68
-198.17
-138.26
-41.30
60.99
140.74
182.07
191.58
176.88
146.44
108.27
66.83
25.97
-10.48
-39.38
-59.87
-72.38
-78.63
-78.22
-70.04
-57.08
-43.97
-33.98
-27.42
-22.77
-17.69
-11.25
-2.43
9.15
20.93
29.81
34.45
36.07
36.87
38.80
42.09
47.11
54.28
62.78
71.65
81.02
92.62
108.50
129.84
151.30
165.02
165.51
152.45
129.23
100.20
69.51
40.54
15.49
-4.86
-19.87
-28.92
-32.03
-30.21
-25.31
-19.36
-14.23
-11.35
-11.51
-14.35
-18.77
-24.09
-30.33
-37.72
-45.87
-53.38
-58.64
-61.05
-62.06
-63.32
-66.97
-74.00
-82.81
-89.29
-88.33
-76.70
-54.86
-26.49
2.97
27.88
44.24
50.44
47.26
37.40
24.17
10.54
-0.99
-8.88
-13.03
-14.49
-14.60
-15.50
-17.45
-18.69
-18.64
-17.21
-14.54
-10.77
-5.73
1.25
9.14
17.23
24.48
29.72
32.43
32.81
31.69
30.13
28.92
28.37
28.66
29.53
30.50
31.31
31.91
32.44
32.97
33.55
34.07
34.64
35.19
35.56
35.75
35.90
36.32
37.41
39.47
42.64
47.03
52.63
59.40
67.45
76.90
87.75
99.55
111.41
122.18
130.80
136.72
140.09
141.74
142.95
145.11
149.38
156.31
165.56
175.53
183.41
185.66
179.01
161.64
134.08
99.27
61.76
26.24
-3.96
-27.72
-45.88
-60.35
-72.99
-84.98
-96.58
-107.58
-117.64
-126.51
-134.09
-140.09
-144.02
-145.33
-143.88
-140.27
-135.68
-131.62
-129.36
-129.81
-132.96
-138.02
-143.85
-149.49
-154.50
-158.91
-163.03
-167.20
-172.11
-177.99
-184.40
-190.58
-195.89
-200.13
-203.38
-205.64
-206.46
-205.47
-201.14
-190.92
-172.37
-144.63
-109.22
-69.68
-30.45
4.50
31.67
49.95
60.56
65.85
67.68
66.85
63.58
58.44
59.37
70.50
90.37
113.72
135.69
153.29
165.06
170.65
170.69
166.28
157.37
143.89
126.33
105.98
84.70
64.51
47.20
33.74
24.02
16.28
9.14
2.54
-2.70
-5.89
-7.28
-7.89
-8.72
-9.89
-10.75
-9.85
-5.84
1.37
10.14
17.88
22.37
22.66
19.05
12.43
4.13
-4.13
-10.44
-13.24
-11.93
-7.38
-1.78
2.07
2.34
-0.88
-5.13
-7.08
-4.57
1.90
9.45
14.43
13.81
6.70
-5.29
-18.60
-28.96
-32.69
-27.81
-14.61
4.57
26.42
47.48
65.17
78.16
86.16
89.42
88.46
83.20
75.23
65.63
54.98
43.19
29.58
13.52
-4.78
-23.97
-41.85
-56.28
-66.30
-72.35
-74.79
-73.89
-69.44
-61.06
-48.69
-33.22
-16.52
-1.33
9.67
14.76
13.62
7.44
-1.19
-9.21
-13.99
-14.24
-10.60
-5.35
-1.22
-0.30
-3.01
-7.98
-12.82
-15.18
-13.67
-8.41
-0.70
7.63
14.95
20.22
22.92
22.62
19.09
12.29
2.84
-7.93
-17.97
-25.06
-27.62
-25.36
-19.65
-12.78
-7.17
-4.36
-4.37
-5.61
-5.63
-2.27
5.53
15.85
24.20
25.58
18.11
4.51
-9.52
-18.61
-20.69
-17.47
-13.18
-10.89
-10.37
-8.80
-2.64
10.04
28.19
47.84
64.21
70.77
66.16
53.59
38.09
23.25
9.60
-3.73
-19.90
-39.72
-61.25
-80.08
-91.70
-93.19
-83.95
-65.64
-41.23
-14.18
12.94
37.29
57.54
73.64
86.20
95.69
101.78
103.41
99.57
90.49
77.81
64.40
52.94
44.98
40.75
39.80
41.39
44.82
49.51
54.58
59.30
63.47
67.69
73.01
80.16
88.18
93.92
92.89
80.80
55.55
18.07
-28.01
-77.54
-125.41
-167.31
-199.25
-217.33
-218.46
-201.98
-171.42
-134.91
-103.40
-87.30
-92.35
-116.39
-149.44
-177.38
-187.63
-173.97
-138.30
-88.66
-35.67
11.62
48.77
75.61
93.34
102.37
102.31
93.81
80.74
69.06
64.10
67.69
76.65
83.64
81.02
65.37
38.34
10.39
-5.33
-3.37
10.44
24.87
30.94
25.85
12.33
-4.64
-20.93
-35.67
-50.39
-67.27
-85.03
-99.74
-107.21
-105.24
-94.46
-77.53
-58.46
-41.30
-28.73
-21.19
-16.76
-12.39
-5.51
5.38
20.83
40.07
60.96
80.43
95.55
105.10
109.46
110.53
111.16
114.57
123.29
138.13
157.56
171.34
169.54
146.96
107.17
59.84
15.08
-20.67
-45.63
-61.64
-72.04
-78.90
-82.82
-83.31
-80.08
-73.78
-65.94
-58.62
-53.80
-52.61
-54.61
-58.36
-62.07
-64.24
-63.71
-59.14
-49.11
-32.75
-10.55
15.90
43.35
67.88
85.87
95.37
96.58
91.39
80.79
68.69
57.71
49.10
43.05
38.49
33.46
25.80
14.06
-1.65
-19.22
-35.90
-49.11
-57.42
-61.02
-61.17
-59.30
-56.42
-53.02
-49.14
-45.28
-42.34
-40.16
-38.33
-36.03
-32.41
-27.12
-20.46
-13.15
-6.38
-1.11
2.31
4.12
5.02
5.89
7.47
10.11
13.75
17.77
21.34
23.75
24.61
24.08
22.84
21.75
21.45
22.21
23.73
25.42
26.77
27.44
27.45
26.82
25.31
22.33
17.29
9.89
0.37
-10.47
-21.74
-32.87
-42.88
-51.43
-58.59
-64.62
-69.75
-74.01
-77.27
-79.33
-79.97
-79.02
-76.57
-72.93
-68.58
-64.15
-60.17
-56.93
-54.39
-52.28
-50.28
-48.30
-46.43
-44.86
-43.74
-43.02
-42.48
-41.82
-40.76
-39.21
-37.29
-35.28
-33.40
-31.78
-30.35
-28.86
-26.94
-24.11
-19.98
-14.35
-7.18
1.39
11.25
22.29
34.43
47.52
61.30
75.29
88.78
100.90
110.66
117.12
119.61
117.88
112.23
103.54
93.04
82.08
71.80
62.91
55.69
49.96
45.30
41.13
36.94
32.41
27.59
22.93
19.08
16.67
16.09
17.36
20.28
24.52
29.69
35.27
40.46
44.23
45.51
43.64
38.70
31.58
23.70
16.53
11.11
7.81
6.41
6.31
6.78
7.13
6.75
5.21
2.25
-2.05
-7.32
-12.94
-18.24
-22.62
-25.64
-26.96
-26.39
-23.89
-19.70
-14.39
-8.69
-3.33
1.28
5.10
8.40
11.50
14.58
17.67
20.73
23.81
27.09
30.73
34.79
38.98
42.76
45.51
46.72
46.26
44.39
41.72
39.02
37.08
36.51
37.65
40.62
45.30
51.46
58.77
66.79
75.01
82.75
89.31
93.96
96.04
94.98
90.35
82.03
70.23
55.66
39.54
23.42
8.89
-2.85
-11.45
-17.64
-23.13
-30.26
-41.20
-57.26
-78.32
-102.90
-128.60
-152.88
-173.93
-191.01
-204.42
-215.12
-224.10
-232.03
-239.00
-244.60
-247.87
-247.58
-242.29
-230.76
-212.33
-187.39
-157.43
-124.87
-92.40
-62.30
-35.84
-13.12
6.59
24.35
40.97
56.71
71.31
84.18
94.71
102.52
107.45
109.58
109.03
105.98
100.65
93.48
85.18
76.68
69.04
63.18
59.72
58.78
60.03
62.79
66.23
69.68
72.81
75.63
78.41
81.38
84.53
87.56
90.00
91.47
91.86
91.33
90.18
88.61
86.58
83.87
80.20
75.44
69.68
63.20
56.38
49.60
43.15
37.32
32.36
28.52
25.82
24.00
22.45
20.37
17.12
12.58
7.32
2.43
-0.86
-1.77
-0.23
3.13
7.32
11.52
15.27
18.63
21.83
25.10
28.38
31.40
33.92
35.88
37.56
39.44
41.98
45.23
48.69
51.38
52.08
49.64
43.21
32.33
16.90
-2.87
-26.40
-52.69
-80.26
-107.35
-132.15
-153.23
-169.87
-182.15
-190.82
-196.93
-201.38
-204.68
-206.92
-208.02
-208.15
-207.86
-208.02
-209.41
-212.19
-215.64
-218.12
-217.57
-212.00
-200.12
-181.63
-157.36
-129.13
-99.35
-70.60
-44.91
-23.43
-6.21
7.54
18.94
28.81
37.33
44.11
48.68
51.05
51.97
52.71
54.50
57.88
62.42
66.89
69.92
70.62
68.75
64.62
58.63
51.10
42.39
33.20
24.66
17.91
13.31
9.90
5.63
-1.62
-12.73
-26.72
-41.05
-52.87
-60.42
-63.58
-63.41
-61.04
-56.64
-49.19
-37.12
-19.30
4.15
31.73
60.91
88.94
113.58
133.57
148.65
159.22
165.65
167.79
164.78
155.55
139.81
118.79
95.47
73.74
57.03
47.05
43.39
44.00
46.43
48.95
50.96
52.75
54.82
57.27
59.65
61.30
61.80
61.23
60.17
59.24
58.69
58.18
56.84
53.69
48.09
40.16
30.93
22.00
14.92
10.58
8.82
8.56
8.33
7.00
4.31
0.89
-2.21
-4.09
-4.50
-3.55
-1.66
0.69
3.01
4.76
5.15
3.21
-1.95
-10.78
-22.65
-36.19
-49.90
-62.62
-73.60
-82.41
-88.58
-91.81
-91.91
-88.44
-81.25
-70.92
-58.64
-45.78
-33.58
-22.69
-13.51
-6.15
0.40
7.36
15.50
24.86
34.93
44.99
54.85
64.26
68.49
63.86
50.08
30.70
10.12
-7.40
-22.21
-34.47
-44.41
-52.52
-57.52
-58.35
-54.52
-46.32
-34.43
-20.14
-4.65
10.35
23.17
33.16
40.21
44.43
45.68
44.00
39.50
32.77
24.23
14.41
4.56
-3.92
-10.09
-14.10
-16.81
-19.66
-24.09
-31.36
-41.78
-54.06
-65.93
-75.19
-80.70
-82.31
-80.89
-77.69
-73.81
-69.40
-63.22
-53.41
-35.69
-9.95
19.46
46.79
68.52
83.60
91.55
91.31
83.84
68.16
45.18
18.92
-4.65
-20.16
-25.14
-20.77
-9.48
4.72
18.11
28.96
37.66
45.52
53.36
60.78
66.41
68.57
66.62
61.66
56.13
52.22
50.79
51.12
51.66
50.69
46.15
37.43
26.13
15.32
7.39
3.00
1.32
1.09
1.02
-1.63
-8.41
-18.13
-27.43
-33.16
-33.87
-30.12
-23.90
-19.09
-22.78
-40.75
-74.04
-118.82
-169.42
-220.37
-267.45
-307.32
-320.62
-296.74
-244.07
-183.67
-130.91
-88.38
-50.75
-15.29
21.92
58.24
84.68
93.33
82.92
59.67
31.49
7.47
-5.58
-4.46
8.90
27.49
44.12
55.09
60.51
61.78
59.93
54.94
47.00
36.72
24.80
13.18
4.87
2.39
6.02
13.89
23.12
31.57
38.20
42.61
45.24
47.36
50.62
56.41
65.69
78.53
94.07
110.25
124.01
132.14
132.19
122.90
104.38
78.23
47.43
15.85
-12.58
-34.59
-48.49
-54.64
-55.44
-54.25
-54.05
-56.50
-61.65
-68.15
-73.88
-76.48
-74.08
-66.13
-53.17
-36.27
-16.81
3.46
23.07
41.35
58.64
75.98
93.64
111.40
129.28
147.45
165.52
182.09
194.29
197.73
187.65
159.28
110.94
46.40
-25.62
-94.61
-151.30
-190.13
-210.11
-207.30
-182.00
-142.53
-100.83
-64.87
-36.97
-16.38
-0.64
11.11
19.09
22.93
22.92
20.83
19.14
17.31
14.96
11.37
5.75
-1.97
-11.85
-23.24
-34.39
-43.13
-48.25
-49.65
-48.44
-46.27
-44.32
-43.40
-43.53
-43.74
-42.73
-39.87
-35.21
-29.47
-23.49
-17.55
-11.55
-4.96
2.98
12.80
24.27
36.59
48.34
57.96
64.22
66.40
64.47
59.04
51.10
41.65
31.64
21.91
13.25
6.48
2.17
0.46
0.87
2.47
4.31
5.91
7.29
8.83
10.89
13.43
15.97
17.69
17.77
15.63
11.05
4.19
-4.38
-13.63
-22.19
-28.55
-31.61
-31.01
-27.32
-21.87
-16.32
-12.20
-10.44
-11.21
-13.99
-17.99
-22.56
-27.19
-31.46
-34.97
-37.29
-37.97
-36.48
-32.45
-26.05
-18.11
-9.75
-1.93
4.66
9.46
12.04
12.29
10.54
7.59
4.86
4.51
8.91
19.74
36.17
53.70
66.01
69.24
64.24
55.01
46.13
40.47
38.33
37.47
34.86
28.58
18.65
6.39
-6.85
-20.49
-34.63
-48.68
-60.73
-67.37
-65.03
-52.23
-31.52
-9.29
6.75
10.64
1.46
-17.58
-40.38
-60.36
-72.85
-76.49
-72.92
-63.95
-53.51
-44.02
-36.52
-31.25
-28.27
-27.41
-27.74
-27.14
-22.54
-11.33
7.49
31.59
55.76
73.68
80.32
74.02
56.99
34.18
11.12
-7.33
-18.51
-21.66
-17.60
-8.59
1.93
10.22
13.59
11.81
8.15
7.28
13.45
27.92
47.92
67.67
81.22
85.25
79.43
67.92
55.19
44.23
35.81
29.43
24.69
21.93
21.75
23.57
25.01
22.04
11.07
-9.00
-35.65
-63.35
-85.68
-97.72
-97.72
-87.05
-69.45
-49.13
-29.56
-13.11
-1.27
4.67
3.54
-5.09
-20.01
-37.86
-53.39
-61.07
-57.58
-43.59
-23.83
-5.05
7.17
11.15
9.31
6.49
6.75
11.05
17.28
22.01
23.12
21.25
19.38
20.76
26.71
35.77
43.86
47.17
43.35
32.35
16.09
-2.56
-20.63
-34.97
-42.15
-38.85
-23.62
1.63
30.37
52.84
59.87
47.32
19.13
-13.71
-37.79
-43.41
-29.31
-2.90
23.81
40.22
41.87
31.53
16.50
4.00
-2.24
-3.16
-2.72
-4.52
-9.34
-14.70
-16.69
-12.53
-2.60
9.64
19.18
21.98
16.71
5.19
-8.47
-19.97
-26.54
-27.82
-25.39
-21.53
-17.79
-14.52
-10.99
-6.14
0.24
7.42
14.05
18.96
21.21
21.36
20.03
17.03
11.72
3.53
-7.11
-18.64
-29.26
-37.73
-43.78
-48.01
-51.90
-55.05
-56.70
-56.25
-53.67
-50.04
-46.67
-44.44
-43.46
-43.00
-41.67
-38.45
-33.20
-26.52
-20.34
-16.24
-15.37
-17.88
-22.65
-27.63
-30.95
-31.57
-29.33
-25.92
-22.90
-21.40
-21.67
-22.84
-23.37
-21.88
-17.89
-11.79
-6.25
-3.63
-5.64
-12.46
-22.49
-32.80
-40.20
-45.60
-43.43
-34.84
-21.04
-3.53
16.54
38.68
63.40
91.54
123.66
159.59
196.53
230.43
255.50
265.52
256.04
226.75
181.87
129.13
77.56
34.77
5.52
-9.82
-14.36
-12.44
-6.98
0.48
8.65
15.31
18.24
15.92
7.79
-5.11
-20.26
-33.69
-42.03
-44.12
-41.25
-34.47
-24.76
-14.39
-7.07
-12.06
-33.86
-67.57
-96.89
-115.79
-124.00
-124.94
-122.44
-119.59
-117.29
-113.67
-107.09
-98.72
-93.21
-93.83
-100.53
-109.48
-114.69
-110.66
-94.49
-67.50
-34.53
-1.95
26.54
49.93
68.98
84.58
97.08
106.78
114.01
119.21
122.82
126.36
131.35
138.28
145.98
152.22
154.95
153.34
147.82
139.79
131.68
125.93
123.83
124.98
127.51
128.72
125.77
115.71
96.17
67.00
31.39
-4.54
-33.39
-48.89
-48.49
-34.32
-13.13
6.00
15.25
10.78
-6.91
-34.45
-67.52
-102.65
-135.45
-159.05
-168.13
-161.31
-140.42
-109.17
-73.38
-40.49
-18.53
-10.53
-16.35
-32.68
-53.46
-72.22
-84.81
-91.10
-91.55
-88.80
-85.25
-82.22
-79.58
-75.28
-66.75
-52.58
-33.92
-13.81
3.94
16.90
24.79
29.03
32.61
38.44
48.07
60.91
75.60
90.86
106.28
122.08
134.16
137.43
128.63
108.39
79.96
48.00
17.57
-9.53
-31.61
-47.95
-58.70
-65.30
-67.52
-66.81
-64.65
-62.12
-60.05
-58.72
-58.39
-58.64
-58.50
-56.72
-52.79
-46.83
-39.79
-33.34
-28.53
-25.58
-23.44
-20.55
-15.76
-9.31
-2.44
3.05
5.28
3.70
-0.88
-6.52
-11.15
-13.40
-13.19
-11.46
-9.79
-10.04
-12.95
-17.79
-22.70
-25.50
-24.47
-18.87
-9.11
4.83
19.72
30.27
32.09
24.64
11.03
-4.02
-16.15
-22.37
-21.59
-15.03
-4.64
7.48
19.65
30.88
40.72
48.50
53.42
54.78
52.05
46.44
40.79
38.84
43.60
55.88
73.80
93.52
110.88
120.30
119.14
107.81
89.16
67.02
44.79
24.77
8.10
-4.92
-14.58
-20.98
-24.29
-24.96
-23.75
-21.79
-20.19
-19.78
-20.88
-23.37
-26.51
-29.62
-32.36
-34.90
-37.71
-41.07
-44.69
-47.76
-49.41
-49.13
-47.24
-44.85
-43.24
-43.24
-44.88
-47.47
-50.10
-52.09
-53.14
-53.33
-52.83
-51.70
-49.76
-46.78
-42.67
-37.72
-32.56
-27.91
-24.26
-21.57
-19.22
-16.31
-12.01
-6.04
1.31
9.40
17.57
25.48
33.05
40.34
47.27
53.43
58.13
60.67
60.61
58.01
53.44
47.72
41.62
35.58
29.62
23.45
16.89
10.16
3.94
-0.92
-3.95
-5.47
-6.59
-8.83
-13.31
-20.18
-28.38
-36.06
-41.42
-43.41
-42.03
-38.19
-33.17
-28.09
-23.48
-19.21
-14.82
-9.83
-4.10
2.20
8.86
15.50
21.77
27.44
32.43
36.63
39.76
41.26
40.70
38.17
33.90
28.20
21.61
14.72
7.84
0.85
-6.90
-15.76
-25.23
-34.70
-43.62
-51.45
-57.71
-62.46
-66.19
-69.78
-73.26
-75.25
-74.40
-70.03
-62.16
-51.61
-40.10
-27.38
-14.99
-7.08
-3.16
-0.25
3.89
10.65
20.79
34.03
48.99
63.27
74.62
81.66
83.03
77.93
64.38
44.95
26.54
16.12
15.82
22.85
32.41
40.10
43.64
44.66
45.18
46.48
48.46
49.62
48.68
45.61
41.31
37.10
33.13
30.19
28.53
27.54
25.76
22.08
16.20
9.69
4.86
3.62
6.41
11.60
16.51
18.54
16.69
12.04
6.92
2.92
0.59
-0.53
-2.10
-4.09
-5.72
-5.64
-2.79
2.89
9.46
14.30
15.34
12.00
5.41
-2.54
-10.22
-17.37
-21.77
-23.72
-24.36
-24.82
-25.82
-27.60
-30.33
-34.20
-39.30
-45.46
-52.70
-60.63
-68.66
-76.29
-83.28
-89.81
-96.29
-102.97
-109.72
-116.20
-121.29
-123.23
-120.05
-110.11
-92.87
-69.22
-41.49
-12.79
13.47
34.81
50.14
59.73
64.84
67.07
67.99
68.78
70.05
71.61
72.62
71.79
68.00
60.59
49.78
36.76
23.25
10.94
0.81
-7.20
-14.29
-22.57
-34.87
-54.01
-81.70
-117.25
-157.01
-194.84
-223.97
-239.35
-239.21
-225.74
-203.81
-178.57
-153.34
-128.82
-103.90
-77.42
-49.33
-20.57
6.81
30.51
49.20
63.15
73.98
83.51
92.98
102.75
113.91
126.78
140.68
154.43
167.05
177.79
185.69
189.74
189.32
186.74
184.15
182.13
180.04
177.21
173.41
168.61
162.92
156.65
153.19
154.57
160.15
167.16
172.96
175.84
174.81
169.73
144.66
96.91
38.90
-11.72
-46.20
-66.25
-78.05
-87.20
-96.66
-106.87
-114.24
-116.46
-114.26
-110.72
-108.32
-108.19
-110.64
-115.74
-123.13
-129.62
-132.38
-130.02
-123.86
-115.38
-106.45
-98.11
-91.25
-86.42
-82.26
-77.61
-71.43
-65.08
-58.36
-50.13
-39.84
-28.45
-18.91
-14.81
-19.66
-34.07
-58.33
-87.32
-111.52
-122.99
-116.84
-92.31
-52.31
-2.20
53.88
109.53
158.83
197.79
224.27
237.69
237.99
225.03
187.92
143.93
92.42
37.56
-14.76
-59.32
-92.81
-114.28
-124.43
-124.57
-114.48
-98.43
-79.33
-60.55
-45.26
-34.92
-28.46
-22.56
-13.46
2.52
23.26
46.13
67.86
85.94
99.44
108.79
115.01
118.91
121.50
121.38
118.08
111.56
102.20
90.67
77.69
63.75
49.07
34.18
18.79
3.55
-10.51
-22.28
-30.99
-36.59
-39.76
-41.58
-42.86
-44.18
-45.33
-45.81
-45.42
-44.58
-44.29
-45.49
-48.30
-51.74
-53.83
-52.66
-47.43
-39.03
-29.77
-22.31
-18.62
-19.24
-23.57
-30.48
-39.08
-48.86
-59.32
-69.42
-77.56
-82.08
-82.13
-78.37
-72.81
-67.84
-65.01
-64.27
-64.01
-62.03
-56.71
-47.74
-36.14
-23.51
-11.14
0.44
11.32
21.44
30.11
36.15
38.67
38.11
36.72
37.75
43.85
55.37
69.83
83.05
91.18
92.78
89.39
84.36
80.84
79.95
80.47
79.99
76.53
69.77
60.77
50.85
40.51
29.07
15.35
-1.29
-20.18
-39.43
-56.53
-69.33
-76.80
-79.52
-79.56
-80.09
-84.35
-94.30
-109.39
-126.22
-139.36
-143.41
-135.12
-114.70
-85.77
-53.93
-25.23
-4.92
3.77
0.58
-11.02
-24.02
-29.74
-20.97
4.68
43.32
86.20
123.68
149.68
163.89
171.01
177.29
186.91
200.18
214.29
225.59
231.82
232.79
229.51
222.77
212.26
196.65
174.68
146.29
113.09
77.97
43.86
12.37
-16.98
-46.48
-79.10
-117.22
-161.61
-210.94
-261.53
-307.39
-341.51
-357.55
-352.16
-326.40
-285.61
-237.65
-189.98
-147.05
-109.43
-75.33
-42.91
-12.12
15.33
37.06
51.55
59.01
61.36
61.25
60.48
59.54
57.90
55.08
51.02
46.23
41.69
37.27
33.49
30.91
29.89
30.08
30.85
31.18
31.01
29.23
25.33
19.80
13.71
8.65
6.50
8.84
16.79
29.58
44.33
57.43
66.28
69.77
68.49
60.52
46.57
29.37
11.79
-4.25
-17.09
-24.24
-23.81
-15.34
-0.04
19.56
39.94
57.66
70.57
75.60
71.65
58.50
36.87
9.02
-20.82
-47.40
-66.10
-74.73
-74.45
-69.12
-64.01
-63.49
-69.07
-79.24
-90.45
-98.54
-99.83
-92.04
-74.34
-47.83
-15.47
18.80
50.32
74.60
88.69
91.96
86.06
74.33
60.38
44.97
30.19
17.41
6.47
-3.50
-12.70
-20.32
-25.74
-27.73
-26.26
-21.82
-15.63
-9.22
-3.51
1.33
5.66
10.01
15.00
20.86
27.75
35.34
42.78
50.05
58.19
68.35
80.60
93.49
104.28
110.24
109.47
100.67
85.00
65.68
46.20
28.62
13.37
-0.27
-13.07
-25.59
-39.83
-56.40
-74.12
-90.96
-105.47
-117.10
-126.13
-133.56
-141.07
-152.65
-169.91
-190.58
-209.87
-222.99
-226.66
-219.54
-202.03
-161.97
-100.25
-30.29
32.17
79.61
112.40
133.29
143.78
143.90
133.64
112.43
83.47
53.40
28.99
13.55
6.11
3.19
1.24
-1.44
-5.73
-9.66
-9.62
-3.09
9.09
22.91
33.25
36.27
31.13
19.26
5.07
-6.10
-10.65
-8.45
-2.33
4.06
8.20
9.48
8.36
6.13
4.19
3.57
4.76
7.92
12.87
18.62
23.14
23.94
19.45
10.19
-0.91
-9.35
-10.72
-2.36
14.73
34.84
49.96
53.55
43.48
22.90
-1.40
-21.91
-33.15
-33.38
-24.38
-10.02
5.43
18.55
27.43
31.59
31.57
28.45
23.22
16.74
10.04
4.38
1.15
1.64
6.49
15.16
25.94
35.92
41.95
41.67
34.38
21.11
4.67
-10.98
-21.62
-23.76
-15.96
0.99
24.08
48.31
67.27
74.67
66.05
39.84
1.04
-41.65
-78.46
-101.91
-109.41
-103.54
-89.88
-73.68
-57.50
-41.20
-23.43
-4.82
11.58
21.52
22.07
13.68
0.28
-12.51
-19.73
-19.64
-13.80
-5.67
1.38
5.37
6.43
5.93
5.46
5.99
7.19
7.89
6.87
3.57
-1.59
-7.34
-12.13
-14.84
-15.14
-13.63
-11.51
-10.01
-10.03
-11.88
-15.29
-19.81
-24.90
-30.22
-35.71
-41.41
-47.11
-52.17
-55.52
-55.55
-51.20
-42.38
-30.09
-16.07
-2.24
10.01
20.17
28.56
35.87
42.55
48.51
53.17
55.86
56.35
55.16
53.52
52.82
53.91
56.54
59.52
61.30
60.88
58.34
54.96
52.59
52.78
55.97
61.04
65.91
68.48
67.57
63.44
57.64
52.38
49.75
51.05
56.22
63.77
70.85
73.27
66.25
45.94
11.55
-32.96
-79.23
-117.01
-137.64
-137.36
-118.62
-88.66
-56.33
-28.63
-8.78
3.38
9.63
12.00
12.16
11.54
11.82
14.37
18.89
24.23
29.56
33.54
33.69
28.03
15.42
-3.98
-28.66
-55.68
-80.86
-99.81
-109.24
-107.82
-96.39
-77.77
-55.81
-34.26
-15.77
-1.37
9.17
16.66
22.00
25.98
29.10
31.69
34.15
37.13
41.51
48.08
57.07
68.13
80.71
94.35
108.73
123.24
136.10
143.80
141.45
124.08
88.93
37.21
-25.59
-90.88
-149.33
-193.14
-217.62
-221.67
-207.31
-178.82
-141.88
-102.80
-67.64
-41.38
-27.11
-25.45
-34.49
-50.33
-68.04
-83.01
-92.18
-94.27
-89.84
-80.70
-69.05
-56.55
-43.65
-29.66
-13.60
4.53
23.29
39.69
50.43
53.45
49.09
40.02
29.72
20.63
13.20
6.69
0.39
-5.45
-9.69
-11.22
-9.79
-6.08
1.29
12.87
28.29
45.87
63.13
77.29
85.78
87.24
83.33
75.17
63.90
51.13
38.65
28.23
21.24
18.36
19.80
24.81
31.73
38.48
43.29
45.00
43.18
38.04
