1653037414.00
64.000000
-0.00
-0.00
-0.00
-0.00
-0.00
-0.00
-0.00
-0.00
-0.00
-0.00
0.00
0.01
0.01
-0.00
-0.03
-0.05
-0.05
0.00
0.13
0.36
0.66
1.01
1.37
1.72
2.06
2.40
2.79
3.24
3.80
4.42
5.06
5.66
6.20
6.68
7.15
7.68
8.31
9.14
10.09
11.04
11.88
12.56
13.14
13.76
14.65
15.96
17.91
20.32
22.90
25.38
27.58
29.57
31.68
34.32
37.81
42.54
48.15
54.10
59.83
64.97
69.58
74.14
79.34
85.71
93.76
103.00
112.62
121.73
129.77
136.75
143.31
150.75
157.77
166.64
177.94
191.79
206.98
220.59
228.29
225.40
208.53
176.79
132.57
79.74
22.65
-35.43
-92.94
-149.65
-205.71
-260.87
-314.31
-364.55
-410.63
-451.80
-487.43
-516.65
-538.10
-550.07
-550.88
-539.46
-515.57
-480.34
-435.78
-384.44
-328.97
-271.68
-214.44
-158.66
-105.44
-55.60
-9.95
30.87
66.38
96.32
120.68
139.65
153.60
163.09
168.82
171.53
171.97
170.71
168.10
164.18
158.83
151.90
143.44
133.83
123.76
113.93
104.91
96.87
89.57
82.52
75.18
67.08
57.89
47.51
36.28
25.35
16.70
12.69
15.04
23.91
37.40
52.13
64.52
72.11
74.34
72.37
68.09
63.04
57.90
52.61
47.02
41.34
36.19
32.24
29.70
28.20
26.94
25.07
22.21
18.56
14.83
11.85
10.12
9.54
9.59
9.49
8.64
6.96
4.81
2.71
1.09
0.19
0.08
0.87
2.56
4.96
7.48
9.27
9.49
7.79
4.59
0.93
-2.03
-3.61
-3.86
-3.40
-3.06
-3.33
-4.20
-5.30
-6.17
-6.53
-6.40
-5.97
-5.44
-4.95
-4.45
-3.84
-3.02
-2.07
-1.17
-0.58
-0.46
-0.77
-1.25
-1.51
-1.23
-0.35
0.92
2.20
3.10
3.38
3.09
2.45
1.82
1.50
1.59
2.05
2.67
3.28
3.76
4.13
4.49
4.99
5.72
6.67
7.75
8.76
9.47
9.65
9.17
8.00
6.27
4.25
2.12
0.08
-1.79
-3.47
-4.98
-6.35
-7.59
-8.67
-9.62
-10.42
-11.06
-11.53
-11.76
-11.72
-11.40
-10.84
-10.10
-9.24
-8.37
-7.55
-6.87
-6.42
-6.22
-6.19
-6.19
-6.04
-5.63
-4.99
-4.23
-3.53
-3.01
-2.71
-2.55
-2.41
-2.22
-1.96
-1.71
-1.55
-1.56
-1.74
-2.02
-2.29
-2.46
-2.53
-2.55
-2.63
-2.82
-3.11
-3.41
-3.62
-3.72
-3.74
-3.84
-4.17
-4.81
-5.64
-6.42
-6.86
-6.75
-6.05
-4.89
-3.56
-2.30
-1.36
-0.83
-0.66
-0.62
-0.45
0.07
1.04
2.41
3.96
5.43
6.57
7.22
7.28
6.73
5.61
4.02
2.11
0.07
-1.97
-3.89
-5.67
-7.32
-8.87
-10.35
-11.78
-13.16
-14.52
-15.89
-17.24
-18.46
-19.41
-19.89
-19.71
-18.68
-16.65
-13.52
-9.28
-4.12
1.61
7.43
12.88
17.63
21.55
24.69
27.16
29.05
30.33
30.82
30.32
28.70
26.01
22.51
18.62
14.79
11.37
8.54
6.32
4.63
3.39
2.55
2.08
1.94
1.97
1.97
1.80
1.42
0.92
0.53
0.46
0.84
1.65
2.80
4.10
5.33
6.26
6.68
6.50
5.75
4.65
3.52
2.66
2.29
2.42
2.91
3.54
4.12
4.49
4.56
4.28
3.70
2.95
2.20
1.66
1.42
1.45
1.62
1.78
1.83
1.73
1.46
1.01
0.32
-0.68
-1.98
-3.47
-4.96
-6.24
-7.19
-7.84
-8.39
-9.06
-10.03
-11.32
-12.75
-14.04
-14.92
-15.25
-15.06
-14.57
-14.10
-13.93
-14.24
-15.10
-16.44
-18.10
-19.81
-21.28
-22.24
-22.52
-22.11
-21.15
-19.93
-18.72
-17.72
-16.97
-16.39
-15.85
-15.24
-14.50
-13.58
-12.41
-10.86
-8.79
-6.12
-2.93
0.55
3.95
6.92
9.25
10.88
11.97
12.70
13.28
13.87
14.55
15.36
16.27
17.18
17.96
18.41
18.41
17.93
17.06
15.93
14.72
13.53
12.39
11.33
10.36
9.49
8.72
7.99
7.19
6.19
4.89
3.28
1.50
-0.26
-1.75
-2.75
-3.20
-3.17
-2.84
-2.42
-2.04
-1.76
-1.52
-1.26
-1.00
-0.74
-0.55
-0.44
-0.38
-0.30
-0.20
-0.12
-0.20
-0.59
-1.37
-2.50
-3.70
-4.55
-4.51
-3.13
-0.15
4.36
9.98
15.97
21.46
25.60
27.81
27.92
26.21
23.32
20.03
16.97
14.44
12.42
10.64
8.85
6.94
4.97
3.10
1.45
-0.00
-1.33
-2.60
-3.80
-4.87
-5.72
-6.38
-6.95
-7.55
-8.23
-8.86
-9.20
-8.99
-8.12
-6.68
-4.94
-3.19
-1.63
-0.32
0.82
1.84
2.73
3.41
3.81
3.91
3.81
3.64
3.53
3.50
3.46
3.27
2.81
2.05
1.12
0.25
-0.30
-0.37
0.02
0.59
1.00
0.96
0.37
-0.57
-1.55
-2.27
-2.57
-2.53
-2.35
-2.26
-2.35
-2.61
-2.90
-3.11
-3.15
-3.05
-2.86
-2.70
-2.63
-2.68
-2.81
-2.96
-3.08
-3.17
-3.25
-3.36
-3.53
-3.75
-3.96
-4.17
-4.38
-4.64
-4.99
-5.40
-5.79
-6.06
-6.15
-6.11
-6.08
-6.24
-6.70
-7.47
-8.40
-9.25
-9.78
-9.87
-9.55
-9.02
-8.50
-8.20
-8.15
-8.18
-7.94
-7.01
-5.09
-2.07
1.88
6.47
11.31
16.09
20.59
24.69
28.33
31.46
34.08
36.22
37.98
39.47
40.74
41.80
42.59
43.01
42.97
42.42
41.22
39.14
35.82
30.87
24.12
15.88
6.98
-1.31
-7.62
-10.97
-11.03
-8.24
-3.50
2.20
8.18
14.10
19.88
25.33
30.04
33.47
35.17
35.12
33.82
32.04
30.47
29.40
28.66
27.84
26.64
25.12
23.66
22.75
22.73
23.61
25.13
26.87
28.43
29.55
30.13
30.14
29.64
28.67
27.25
25.37
22.97
20.04
16.63
12.92
9.15
5.54
2.16
-1.07
-4.37
-7.89
-11.62
-15.38
-18.87
-21.81
-24.08
-25.73
-26.91
-27.76
-28.40
-28.91
-29.40
-29.98
-30.73
-31.63
-32.55
-33.27
-33.55
-33.28
-32.48
-31.27
-29.89
-28.55
-27.44
-26.71
-26.38
-26.41
-26.64
-26.90
-27.06
-27.09
-27.04
-27.04
-27.14
-27.33
-27.48
-27.48
-27.26
-26.85
-26.32
-25.80
-25.36
-25.02
-24.74
-24.49
-24.25
-23.98
-23.65
-23.22
-22.65
-21.94
-21.10
-20.21
-19.37
-18.64
-18.09
-17.73
-17.53
-17.43
-17.30
-17.02
-16.52
-15.77
-14.84
-13.90
-13.10
-12.58
-12.39
-12.47
-12.69
-12.84
-12.72
-12.18
-11.15
-9.65
-7.78
-5.70
-3.58
-1.63
-0.04
1.07
1.72
2.12
2.63
3.64
5.43
7.94
10.81
13.47
15.39
16.25
16.07
15.08
13.61
11.90
10.03
7.99
5.70
3.15
0.43
-2.27
-4.77
-6.86
-8.46
-9.55
-10.21
-10.57
-10.71
-10.72
-10.61
-10.42
-10.20
-10.02
-9.96
-10.06
-10.27
-10.48
-10.54
-10.38
-10.07
-9.80
-9.80
-10.24
-11.10
-12.20
-13.25
-13.98
-14.22
-13.97
-13.32
-12.42
-11.38
-10.29
-9.26
-8.40
-7.76
-7.36
-7.12
-6.87
-6.46
-5.80
-4.90
-3.86
-2.88
-2.10
-1.66
-1.60
-1.82
-2.12
-2.21
-1.84
-0.88
0.58
2.22
3.61
4.35
4.20
3.14
1.42
-0.62
-2.61
-4.29
-5.51
-6.26
-6.57
-6.49
-6.06
-5.37
-4.60
-3.98
-3.73
-3.92
-4.43
-4.93
-5.08
-4.69
-3.83
-2.80
-1.97
-1.56
-1.52
-1.58
-1.34
-0.54
0.89
2.80
4.91
6.94
8.69
10.07
11.09
11.78
12.16
12.23
12.02
11.57
10.93
10.20
9.42
8.60
7.72
6.78
5.78
4.76
3.78
2.84
1.93
0.97
-0.09
-1.29
-2.62
-4.04
-5.51
-6.97
-8.42
-9.84
-11.25
-12.65
-14.01
-15.31
-16.54
-17.73
-18.96
-20.33
-21.93
-23.77
-25.73
-27.59
-29.06
-29.84
-29.72
-28.57
-26.37
-23.22
-19.29
-14.78
-9.97
-5.11
-0.50
3.59
6.93
9.43
11.12
12.19
12.87
13.35
13.75
14.06
14.22
14.15
13.83
13.31
12.74
12.27
12.00
11.95
12.00
11.92
11.52
10.69
9.53
8.24
7.02
6.02
5.19
4.41
3.55
2.59
1.55
0.51
-0.50
-1.51
-2.59
-3.75
-4.96
-6.12
-7.17
-8.12
-9.07
-10.18
-11.55
-13.19
-14.92
-16.45
-17.46
-17.64
-16.88
-15.18
-12.77
-9.95
-7.05
-4.34
-1.92
0.24
2.24
4.16
6.02
7.71
9.12
10.17
10.93
11.55
12.20
12.94
13.72
14.37
14.78
14.92
14.89
14.83
14.85
14.90
14.88
14.64
14.11
13.35
12.50
11.68
10.96
10.31
9.66
8.88
7.91
6.71
5.25
3.54
1.60
-0.52
-2.70
-4.80
-6.66
-8.15
-9.21
-9.87
-10.21
-10.42
-10.69
-11.18
-11.92
-12.87
-13.90
-14.88
-15.74
-16.49
-17.19
-17.93
-18.77
-19.75
-20.90
-22.16
-23.37
-24.18
-24.12
-22.72
-19.82
-15.72
-11.17
-7.07
-4.11
-2.45
-1.69
-1.10
-0.05
1.64
3.65
5.41
6.41
6.51
5.97
5.26
4.84
4.95
5.57
6.47
7.38
8.12
8.59
8.81
8.85
8.76
8.58
8.29
7.89
7.41
6.95
6.61
6.44
6.44
6.45
6.28
5.73
4.69
3.10
1.08
-1.24
-3.58
-5.63
-7.06
-7.56
-6.99
-5.47
-3.38
-1.40
-0.29
-0.64
-2.59
-5.75
-9.19
-11.80
-12.65
-11.33
-8.06
-3.59
1.17
5.45
8.77
11.04
12.44
13.28
13.93
14.71
15.79
17.17
18.68
20.07
21.14
21.88
22.43
22.94
23.48
23.90
23.99
23.55
22.61
21.42
20.40
19.94
20.24
21.21
22.51
23.67
24.22
23.85
22.49
20.31
17.68
15.02
12.63
10.65
8.99
7.40
5.64
3.58
1.28
-1.04
-3.14
-4.83
-6.05
-6.88
-7.46
-7.90
-8.33
-8.86
-9.58
-10.51
-11.51
-12.25
-12.28
-11.23
-8.99
-5.82
-2.27
1.07
3.79
5.81
7.31
8.56
9.77
11.01
12.20
13.27
14.16
14.94
15.64
16.29
16.87
17.31
17.58
17.69
17.73
17.75
17.77
17.76
17.62
17.27
16.73
16.05
15.31
14.60
13.94
13.31
12.67
11.99
11.22
10.35
9.37
8.32
7.30
6.41
5.73
5.21
4.71
4.03
3.00
1.55
-0.27
-2.31
-4.45
-6.59
-8.68
-10.66
-12.41
-13.74
-14.45
-14.39
-13.56
-12.14
-10.43
-8.76
-7.40
-6.48
-5.95
-5.62
-5.22
-4.51
-3.39
-1.93
-0.33
1.21
2.53
3.66
4.73
5.91
7.32
8.95
10.70
12.39
13.91
15.22
16.38
17.45
18.49
19.49
20.35
20.99
21.30
21.20
20.68
19.78
18.60
17.31
16.06
15.01
14.16
13.38
12.43
11.05
9.09
6.59
3.69
0.60
-2.58
-5.81
-9.04
-12.05
-14.46
-15.84
-15.90
-14.76
-12.87
-10.92
-9.47
-8.77
-8.67
-8.79
-8.71
-8.21
-7.26
-6.05
-4.77
-3.63
-2.71
-2.06
-1.63
-1.35
-1.14
-0.95
-0.78
-0.69
-0.79
-1.08
-1.48
-1.78
-1.75
-1.29
-0.47
0.43
1.08
1.22
0.84
0.08
-0.81
-1.62
-2.30
-2.87
-3.42
-3.96
-4.41
-4.69
-4.78
-4.75
-4.75
-4.88
-5.18
-5.58
-5.97
-6.24
-6.38
-6.40
-6.30
-6.14
-5.92
-5.67
-5.46
-5.36
-5.43
-5.65
-5.95
-6.21
-6.39
-6.51
-6.72
-7.21
-8.07
-9.23
-10.46
-11.42
-11.89
-11.81
-11.38
-10.89
-10.56
-10.44
-10.39
-10.19
-9.63
-8.65
-7.23
-5.46
-3.45
-1.36
0.57
2.08
2.95
3.17
2.88
2.38
1.97
1.81
1.92
2.25
2.69
3.26
4.02
5.12
6.60
8.45
10.51
12.55
14.37
15.80
16.79
17.35
17.54
17.41
16.98
16.23
15.15
13.74
12.07
10.24
8.34
6.38
4.29
2.01
-0.46
-2.93
-5.07
-6.52
-7.08
-6.85
-6.25
-5.83
-6.02
-6.89
-8.18
-9.39
-10.08
-10.09
-9.53
-8.68
-7.80
-7.00
-6.23
-5.40
-4.50
-3.65
-3.06
-2.90
-3.15
-3.58
-3.81
-3.50
-2.51
-0.97
0.75
2.25
3.21
3.53
3.33
2.87
2.41
2.19
2.35
2.95
4.02
5.48
7.18
8.84
10.13
10.75
10.60
9.74
8.48
7.21
6.25
5.79
5.73
5.80
5.64
4.96
3.71
2.05
0.27
-1.33
-2.57
-3.40
-3.90
-4.14
-4.19
-4.11
-3.96
-3.82
-3.79
-3.92
-4.19
-4.50
-4.74
-4.84
-4.83
-4.77
-4.76
-4.86
-5.11
-5.46
-5.83
-6.11
-6.19
-6.03
-5.62
-5.03
-4.37
-3.76
-3.26
-2.88
-2.61
-2.41
-2.24
-2.10
-2.01
-1.97
-1.95
-1.87
-1.64
-1.22
-0.67
-0.09
0.35
0.56
0.54
0.34
0.08
-0.18
-0.38
-0.50
-0.53
-0.42
-0.15
0.22
0.58
0.73
0.59
0.15
-0.41
-0.90
-1.16
-1.15
-1.01
-0.90
-0.98
-1.32
-1.85
-2.46
-3.03
-3.45
-3.70
-3.77
-3.67
-3.45
-3.19
-2.97
-2.87
-3.00
-3.36
-3.94
-4.63
-5.28
-5.71
-5.81
-5.57
-5.04
-4.33
-3.57
-2.86
-2.23
-1.68
-1.18
-0.67
-0.08
0.62
1.39
2.11
2.60
2.70
2.36
1.69
0.93
0.39
0.30
0.74
1.59
2.66
3.74
4.67
5.38
5.87
6.15
6.24
6.16
5.92
5.59
5.25
5.00
4.88
4.88
4.91
4.87
4.69
4.41
4.07
3.78
3.58
3.49
3.45
3.42
3.35
3.23
3.05
2.78
2.39
1.90
1.31
0.67
0.02
-0.63
-1.28
-1.94
-2.57
-3.16
-3.66
-4.10
-4.49
-4.89
-5.27
-5.56
-5.69
-5.59
-5.28
-4.82
-4.32
-3.82
-3.35
-2.90
-2.44
-1.97
-1.52
-1.09
-0.71
-0.38
-0.08
0.16
0.33
0.44
0.54
0.68
0.96
1.41
2.01
2.69
3.31
3.74
3.87
3.69
3.23
2.62
2.02
1.54
1.24
1.12
1.11
1.17
1.21
1.20
1.11
0.92
0.64
0.28
-0.10
-0.44
-0.71
-0.91
-1.09
-1.32
-1.67
-2.14
-2.67
-3.17
-3.53
-3.74
-3.84
-3.96
-4.20
-4.60
-5.14
-5.69
-6.17
-6.51
-6.74
-6.92
-7.13
-7.36
-7.58
-7.70
-7.62
-7.31
-6.77
-6.06
-5.21
-4.28
-3.27
-2.19
-1.08
-0.01
0.90
1.53
1.84
1.85
1.65
1.36
1.09
0.90
0.79
0.72
0.63
0.52
0.41
0.38
0.53
0.89
1.42
1.97
2.37
2.47
2.24
1.79
1.39
1.32
1.81
2.91
4.49
6.32
8.15
9.79
11.15
12.22
13.00
13.45
13.47
12.99
11.98
10.48
8.62
6.58
4.57
2.78
1.40
0.51
0.04
-0.22
-0.59
-1.38
-2.74
-4.63
-6.81
-8.90
-10.58
-11.60
-11.86
-11.37
-10.29
-8.87
-7.41
-6.17
-5.22
-4.40
-3.35
-1.63
0.98
4.38
8.10
11.43
13.75
14.67
14.21
12.72
10.71
8.64
6.83
5.41
4.38
3.68
3.20
2.85
2.53
2.20
1.87
1.64
1.64
1.94
2.55
3.36
4.22
4.93
5.33
5.35
4.96
4.19
3.10
1.78
0.32
-1.13
-2.40
-3.32
-3.77
-3.71
-3.24
-2.54
-1.85
-1.36
-1.19
-1.42
-2.07
-3.09
-4.36
-5.63
-6.61
-7.07
-6.98
-6.53
-6.03
-5.76
-5.80
-6.03
-6.23
-6.16
-5.74
-5.02
-4.15
-3.28
-2.53
-1.96
-1.59
-1.40
-1.32
-1.26
-1.12
-0.88
-0.57
-0.26
-0.03
0.08
0.07
-0.04
-0.23
-0.49
-0.85
-1.28
-1.71
-2.04
-2.18
-2.06
-1.68
-1.13
-0.60
-0.29
-0.39
-0.96
-1.97
-3.24
-4.56
-5.70
-6.52
-6.98
-7.17
-7.26
-7.46
-7.93
-8.75
-9.84
-10.95
-11.75
-11.87
-11.06
-9.23
-6.42
-2.87
1.20
5.53
9.92
14.19
18.18
21.72
24.61
26.67
27.80
28.00
27.43
26.29
24.81
23.14
21.31
19.23
16.85
14.19
11.36
8.56
5.97
3.67
1.68
-0.03
-1.45
-2.56
-3.30
-3.66
-3.66
-3.32
-2.65
-1.61
-0.19
1.59
3.59
5.60
7.39
8.78
9.66
10.01
9.83
9.19
8.14
6.78
5.23
3.56
1.85
0.13
-1.60
-3.33
-5.01
-6.59
-7.99
-9.13
-9.92
-10.31
-10.29
-9.94
-9.38
-8.79
-8.28
-7.92
-7.67
-7.43
-7.16
-6.87
-6.65
-6.56
-6.62
-6.70
-6.65
-6.29
-5.58
-4.63
-3.64
-2.87
-2.47
-2.47
-2.77
-3.20
-3.62
-3.92
-4.11
-4.21
-4.28
-4.33
-4.31
-4.20
-4.01
-3.81
-3.74
-3.89
-4.27
-4.75
-5.13
-5.25
-5.06
-4.61
-4.06
-3.52
-3.04
-2.56
-2.01
-1.36
-0.66
-0.05
0.37
0.52
0.43
0.15
-0.17
-0.42
-0.52
-0.44
-0.21
0.08
0.31
0.42
0.39
0.30
0.26
0.37
0.63
0.96
1.26
1.44
1.49
1.47
1.45
1.48
1.54
1.56
1.51
1.42
1.35
1.37
1.50
1.69
1.87
1.94
1.86
1.63
1.31
0.99
0.75
0.63
0.65
0.75
0.87
0.96
0.96
0.85
0.62
0.25
-0.26
-0.85
-1.43
-1.88
-2.11
-2.08
-1.83
-1.40
-0.87
-0.25
0.41
1.11
1.79
2.41
2.92
3.30
3.57
3.71
3.76
3.74
3.68
3.62
3.61
3.64
3.68
3.66
3.54
3.32
3.04
2.78
2.58
2.45
2.32
2.09
1.70
1.14
0.49
-0.15
-0.65
-0.96
-1.09
-1.08
-1.02
-0.95
-0.90
-0.89
-0.92
-1.02
-1.21
-1.51
-1.91
-2.36
-2.79
-3.10
-3.22
-3.16
-2.97
-2.78
-2.71
-2.76
-2.88
-2.98
-3.01
-3.00
-3.03
-3.19
-3.51
-3.97
-4.49
-5.02
-5.51
-5.90
-6.20
-6.36
-6.39
-6.31
-6.15
-5.95
-5.78
-5.65
-5.54
-5.40
-5.15
-4.70
-3.98
-2.98
-1.77
-0.52
0.57
1.29
1.51
1.24
0.59
-0.23
-0.94
-1.36
-1.39
-1.11
-0.69
-0.35
-0.21
-0.24
-0.26
-0.03
0.66
1.82
3.26
4.63
5.53
5.74
5.22
4.17
2.93
1.84
1.14
0.86
0.93
1.17
1.44
1.63
1.68
1.57
1.29
0.86
0.36
-0.11
-0.40
-0.45
-0.28
-0.05
0.02
-0.24
-0.90
-1.84
-2.84
-3.61
-3.99
-3.90
-3.42
-2.64
-1.68
-0.64
0.41
1.40
2.23
2.89
3.41
3.90
4.53
5.36
6.35
7.32
8.05
8.37
8.27
7.91
7.54
7.39
7.59
8.09
8.75
9.36
9.77
9.90
9.78
9.50
9.16
8.82
8.49
8.17
7.87
7.61
7.40
7.27
7.21
7.18
7.12
6.97
6.72
6.36
5.90
5.36
4.76
4.16
3.64
3.31
3.20
3.29
3.44
3.52
3.43
3.18
2.82
2.47
2.20
2.08
2.04
2.05
2.07
2.12
2.24
2.47
2.81
3.24
3.76
4.31
4.90
5.58
6.46
7.63
9.04
10.55
11.94
13.10
13.86
14.32
14.75
15.51
16.69
18.00
18.88
18.82
17.76
15.79
13.43
11.43
10.47
10.68
11.60
12.35
12.06
10.09
5.51
-2.31
-13.18
-25.89
-38.46
-48.73
-55.01
-56.64
-54.27
-50.39
-47.81
-48.43
-52.57
-59.28
-67.12
-74.87
-81.78
-82.62
-73.90
-55.72
-32.04
-7.91
13.48
31.05
44.94
55.59
63.48
68.32
70.06
69.31
67.17
64.94
63.09
61.91
61.30
61.10
60.64
59.56
58.04
56.54
55.76
56.05
57.37
59.20
60.83
61.05
58.66
54.84
50.36
46.06
42.48
39.74
37.59
35.64
33.35
30.45
27.10
23.41
19.82
16.67
14.22
12.64
12.11
12.64
14.02
15.83
17.31
18.03
18.03
17.93
18.61
20.77
24.45
28.91
32.83
34.62
33.10
27.68
18.51
6.22
-8.22
-23.78
-39.50
-54.61
-68.65
-81.30
-92.33
-101.53
-108.70
-113.90
-117.35
-119.35
-120.07
-119.49
-117.49
-114.17
-110.23
-106.85
-105.31
-106.29
-109.42
-113.36
-116.39
-117.17
-115.23
-110.93
-104.96
-97.80
-89.53
-80.02
-69.34
-57.87
-46.19
-34.69
-23.37
-12.03
-0.62
10.45
20.44
28.70
35.11
40.19
44.69
49.07
53.10
55.99
56.92
55.57
52.44
48.57
45.02
42.42
40.69
39.29
37.62
35.31
32.43
29.32
26.32
23.58
20.98
18.27
15.30
12.16
9.20
6.80
5.21
4.32
3.77
3.09
1.98
0.46
-1.08
-2.13
-2.20
-1.14
0.84
3.18
5.16
6.13
5.73
4.02
1.43
-1.38
-3.84
-5.70
-7.26
-9.23
-12.43
-17.41
-24.12
-31.88
-39.55
-45.92
-50.07
-51.71
-51.24
-49.70
-48.38
-48.27
-49.56
-51.47
-52.47
-50.95
-46.03
-38.07
-28.61
-19.69
-12.99
-9.17
-7.85
-7.94
-8.37
-8.42
-7.87
-6.82
-5.38
-3.56
-1.30
1.41
4.40
7.31
9.66
11.06
11.25
10.32
8.61
6.67
5.02
3.99
3.63
3.67
3.79
3.70
3.36
2.99
2.89
3.33
4.41
5.99
7.81
9.59
11.15
12.47
13.61
14.63
15.44
15.80
15.38
13.93
11.44
8.22
4.75
1.56
-1.08
-3.17
-5.03
-7.07
-9.58
-12.64
-16.03
-19.36
-22.21
-24.22
-25.21
-25.13
-24.03
-22.02
-19.30
-16.13
-12.84
-9.79
-7.21
-5.18
-3.55
-2.04
-0.36
1.58
3.70
5.74
7.44
8.65
9.39
9.80
10.07
10.37
10.81
11.47
12.33
13.31
14.30
15.14
15.68
15.86
15.74
15.48
15.31
15.39
15.75
16.18
16.36
15.94
14.77
12.91
10.67
8.46
6.59
5.15
4.08
3.23
2.49
1.79
1.16
0.55
-0.17
-1.13
-2.43
-3.97
-5.44
-6.43
-6.53
-5.43
-3.04
0.44
4.58
8.73
12.16
14.32
15.00
14.50
13.51
12.86
13.22
14.83
17.43
20.43
23.12
24.96
25.58
24.89
22.99
20.17
16.89
13.70
11.13
9.54
8.98
9.25
9.94
10.64
11.01
10.87
10.14
8.86
7.17
5.27
3.41
1.78
0.47
-0.58
-1.51
-2.50
-3.68
-5.14
-6.87
-8.80
-10.78
-12.66
-14.35
-15.86
-17.35
-19.07
-21.19
-23.65
-26.07
-27.85
-28.25
-26.63
-22.61
-16.22
-7.88
1.55
10.97
19.17
25.19
28.60
29.55
28.70
26.98
25.19
23.90
23.33
23.43
24.03
24.89
25.79
26.50
26.89
26.92
26.69
26.33
25.97
25.56
24.91
23.74
21.80
19.05
15.65
11.98
8.51
5.69
3.82
3.02
3.12
3.72
4.25
4.18
3.20
1.39
-0.77
-2.56
-3.34
-2.83
-1.18
1.13
3.47
5.36
6.56
6.99
6.69
5.65
3.86
1.33
-1.73
-4.97
-7.93
-10.14
-11.31
-11.34
-10.35
-8.64
-6.52
-4.29
-2.14
-0.09
1.87
3.78
5.61
7.21
8.42
9.11
9.30
9.16
8.89
8.65
8.50
8.34
8.12
7.85
7.69
7.84
8.43
9.38
10.44
11.29
11.64
11.37
10.51
9.19
7.64
6.09
4.81
4.04
3.91
4.35
5.11
5.81
6.15
6.01
5.51
4.90
4.37
3.95
3.52
2.85
1.79
0.33
-1.34
-3.00
-4.38
-5.30
-5.66
-5.45
-4.69
-3.44
-1.78
0.19
2.31
4.37
6.11
7.29
7.80
7.67
7.10
6.39
5.83
5.60
5.70
5.94
5.99
5.55
4.47
2.85
1.05
-0.51
-1.47
-1.74
-1.54
-1.27
-1.30
-1.75
-2.44
-3.03
-3.22
-2.88
-2.18
-1.35
-0.61
-0.03
0.48
1.02
1.63
2.21
2.65
2.80
2.68
2.36
1.94
1.50
1.06
0.58
0.03
-0.58
-1.23
-1.93
-2.71
-3.65
-4.80
-6.17
-7.71
-9.34
-10.99
-12.61
-14.18
-15.67
-17.01
-18.05
-18.68
-18.82
-18.48
-17.78
-16.87
-15.91
-15.07
-14.47
-14.23
-14.39
-14.85
-15.37
-15.56
-15.04
-13.59
-11.24
-8.21
-4.83
-1.33
2.18
5.72
9.27
12.70
15.73
18.03
19.44
19.98
19.95
19.73
19.61
19.67
19.75
19.63
19.13
18.20
16.93
15.37
13.56
11.48
9.21
6.96
5.08
3.86
3.40
3.47
3.60
3.32
2.43
1.11
-0.19
-1.01
-1.21
-1.02
-0.85
-0.97
-1.28
-1.38
-0.86
0.33
1.68
2.34
1.55
-0.86
-4.38
-7.99
-10.66
-11.78
-11.39
-10.05
-8.49
-7.35
-6.92
-7.13
-7.69
-8.28
-8.64
-8.71
-8.54
-8.22
-7.83
-7.34
-6.71
-5.97
-5.22
-4.62
-4.29
-4.25
-4.39
-4.50
-4.41
-4.02
-3.37
-2.57
-1.71
-0.85
-0.02
0.77
1.42
1.85
1.96
1.75
1.34
0.91
0.60
0.43
0.26
-0.09
-0.72
-1.58
-2.43
-3.01
-3.15
-2.84
-2.30
-1.79
-1.50
-1.50
-1.66
-1.80
-1.76
-1.52
-1.21
-1.00
-1.10
-1.60
-2.54
-3.79
-5.12
-6.25
-6.89
-6.84
-6.08
-4.84
-3.53
-2.65
-2.54
-3.32
-4.81
-6.64
-8.33
-9.54
-10.11
-10.14
-9.84
-9.43
-9.02
-8.54
-7.81
-6.66
-5.07
-3.20
-1.38
0.10
1.06
1.54
1.71
1.78
1.86
2.04
2.35
2.85
3.55
4.41
5.29
6.01
6.42
6.50
6.36
6.21
6.17
6.21
6.13
5.68
4.66
3.02
0.90
-1.43
-3.65
-5.45
-6.63
-7.13
-7.02
-6.51
-5.85
-5.25
-4.83
-4.61
-4.53
-4.54
-4.61
-4.75
-4.98
-5.29
-5.58
-5.75
-5.67
-5.30
-4.66
-3.85
-2.98
-2.15
-1.43
-0.80
-0.21
0.37
0.96
1.49
1.90
2.10
2.10
1.92
1.66
1.39
1.11
0.79
0.33
-0.32
-1.19
-2.21
-3.27
-4.25
-5.06
-5.68
-6.17
-6.67
-7.32
-8.21
-9.34
-10.58
-11.71
-12.54
-12.94
-12.95
-12.72
-12.45
-12.26
-12.15
-11.97
-11.54
-10.72
-9.49
-7.92
-6.13
-4.22
-2.27
-0.30
1.62
3.43
5.07
6.52
7.85
9.15
10.46
11.76
12.91
13.77
14.26
14.42
14.40
14.34
14.24
14.02
13.57
12.82
11.84
10.76
9.65
8.54
7.33
5.90
4.27
2.57
0.99
-0.34
-1.40
-2.29
-3.15
-4.01
-4.82
-5.47
-5.87
-6.02
-5.97
-5.76
-5.40
-4.87
-4.18
-3.42
-2.73
-2.22
-1.91
-1.71
-1.43
-0.93
-0.12
0.94
2.13
3.33
4.48
5.57
6.62
7.66
8.70
9.72
10.61
11.21
11.26
10.56
9.08
7.01
4.79
2.91
1.79
1.56
2.05
2.85
3.53
3.74
3.37
2.48
1.25
-0.12
-1.49
-2.77
-3.93
-4.97
-5.86
-6.55
-6.96
-7.02
-6.69
-5.90
-4.62
-2.83
-0.54
2.17
5.11
8.10
10.96
13.59
15.94
17.93
19.47
20.41
20.67
20.30
19.45
18.34
17.15
15.91
14.52
12.84
10.83
8.58
6.32
4.28
2.56
1.15
-0.09
-1.30
-2.53
-3.74
-4.86
-5.84
-6.71
-7.61
-8.70
-10.11
-11.82
-13.65
-15.34
-16.57
-17.13
-16.98
-16.22
-15.07
-13.77
-12.48
-11.27
-10.18
-9.19
-8.31
-7.54
-6.87
-6.21
-5.47
-4.58
-3.58
-2.63
-1.97
-1.78
-2.11
-2.81
-3.56
-4.10
-4.22
-3.92
-3.29
-2.44
-1.44
-0.27
1.10
2.62
4.14
5.43
6.28
6.66
6.68
6.63
6.83
7.53
8.78
10.44
12.24
13.91
15.28
16.31
17.02
17.47
17.65
17.53
17.07
16.30
15.29
14.17
13.03
11.88
10.71
9.49
8.20
6.89
5.60
4.38
3.30
2.43
1.90
1.79
2.17
2.98
4.05
5.08
5.77
5.85
5.26
4.08
2.54
0.96
-0.31
-1.01
-1.01
-0.39
0.59
1.57
2.25
2.51
2.45
2.36
2.51
3.03
3.81
4.58
5.08
5.19
5.00
4.64
4.23
3.78
3.22
2.55
1.86
1.34
1.16
1.38
1.88
2.42
2.75
2.74
2.37
1.79
1.20
0.78
0.60
0.61
0.65
0.59
0.32
-0.14
-0.69
-1.22
-1.64
-1.99
-2.35
-2.83
-3.48
-4.33
-5.34
-6.42
-7.47
-8.37
-9.04
-9.46
-9.68
-9.80
-9.92
-10.11
-10.34
-10.60
-10.84
-11.00
-11.08
-11.04
-10.83
-10.39
-9.70
-8.83
-7.86
-6.91
-6.08
-5.43
-4.99
-4.74
-4.60
-4.45
-4.15
-3.53
-2.45
-0.95
0.83
2.63
4.20
5.37
6.15
6.68
7.13
7.65
8.27
8.91
9.47
9.86
10.12
10.32
10.57
10.94
11.40
11.86
12.19
12.29
12.15
11.89
11.63
11.52
11.55
11.62
11.54
11.15
10.35
9.19
7.84
6.50
5.33
4.38
3.58
2.80
1.93
0.93
-0.07
-0.92
-1.49
-1.77
-1.91
-2.15
-2.67
-3.49
-4.53
-5.57
-6.41
-6.92
-7.10
-7.05
-6.89
-6.69
-6.50
-6.28
-5.96
-5.49
-4.87
-4.16
-3.44
-2.83
-2.41
-2.18
-2.13
-2.18
-2.27
-2.38
-2.52
-2.74
-3.04
-3.42
-3.81
-4.11
-4.26
-4.22
-4.00
-3.63
-3.17
-2.67
-2.18
-1.77
-1.44
-1.16
-0.85
-0.44
0.12
0.78
1.44
1.97
2.33
2.55
2.74
2.97
3.25
3.52
3.64
3.50
3.07
2.42
1.73
1.16
0.82
0.65
0.52
0.23
-0.32
-1.12
-1.98
-2.69
-3.04
-2.99
-2.60
-2.04
-1.48
-1.01
-0.66
-0.39
-0.17
0.04
0.21
0.34
0.42
0.46
0.49
0.56
0.68
0.89
1.15
1.40
1.56
1.54
1.30
0.90
0.43
0.02
-0.24
-0.35
-0.37
-0.39
-0.47
-0.62
-0.83
-1.07
-1.36
-1.72
-2.18
-2.75
-3.40
-4.07
-4.72
-5.30
-5.78
-6.12
-6.34
-6.46
-6.55
-6.70
-7.00
-7.49
-8.18
-9.01
-9.94
-10.91
-11.91
-12.95
-14.04
-15.19
-16.40
-17.58
-18.61
-19.29
-19.38
-18.69
-17.14
-14.88
-12.27
-9.75
-7.75
-6.46
-5.84
-5.60
-5.37
-4.83
-3.87
-2.55
-1.08
0.39
1.77
3.09
4.43
5.81
7.20
8.54
9.78
10.96
12.17
13.52
15.04
16.66
18.23
19.58
20.58
21.19
21.39
21.19
20.60
19.64
18.38
16.93
15.41
13.87
12.32
10.69
8.90
6.90
4.71
2.42
0.16
-1.94
-3.76
-5.18
-6.15
-6.60
-6.54
-6.02
-5.17
-4.17
-3.21
-2.45
-1.93
-1.57
-1.20
-0.58
0.46
1.97
3.84
5.83
7.65
9.04
9.86
10.14
10.01
9.67
9.25
8.80
8.20
7.30
6.00
4.34
2.58
1.09
0.18
-0.06
0.23
0.68
0.92
0.71
-0.00
-1.05
-2.19
-3.25
-4.11
-4.74
-5.16
-5.36
-5.34
-5.11
-4.73
-4.31
-4.00
-3.85
-3.87
-3.96
-3.99
-3.83
-3.47
-2.96
-2.41
-1.98
-1.78
-1.89
-2.35
-3.13
-4.11
-5.15
-6.08
-6.74
-7.13
-7.31
-7.47
-7.75
-8.24
-8.86
-9.48
-9.97
-10.27
-10.47
-10.70
-11.05
-11.53
-12.04
-12.42
-12.59
-12.51
-12.23
-11.83
-11.35
-10.83
-10.28
-9.72
-9.17
-8.60
-7.98
-7.20
-6.16
-4.78
-3.09
-1.19
0.75
2.54
4.05
5.21
6.08
6.78
7.40
8.03
8.67
9.26
9.79
10.25
10.66
11.03
11.26
11.24
10.78
9.83
8.48
7.00
5.70
4.85
4.51
4.52
4.61
4.50
4.06
3.33
2.53
1.88
1.54
1.53
1.73
1.96
2.08
1.97
1.61
1.04
0.37
-0.28
-0.75
-0.94
-0.80
-0.39
0.17
0.71
1.07
1.17
1.00
0.62
0.09
-0.48
-1.01
-1.44
-1.74
-1.90
-1.93
-1.88
-1.79
-1.77
-1.90
-2.29
-2.97
-3.89
-4.90
-5.79
-6.39
-6.60
-6.44
-6.00
-5.38
-4.66
-3.89
-3.06
-2.18
-1.25
-0.30
0.65
1.52
2.25
2.81
3.23
3.53
3.75
3.87
3.85
3.63
3.20
2.62
2.08
1.73
1.68
1.93
2.37
2.82
3.12
3.18
2.98
2.59
2.08
1.61
1.25
1.10
1.13
1.29
1.41
1.35
1.00
0.35
-0.52
-1.43
-2.18
-2.66
-2.83
-2.79
-2.70
-2.70
-2.85
-3.13
-3.42
-3.61
-3.62
-3.48
-3.29
-3.23
-3.44
-4.01
-4.88
-5.86
-6.70
-7.13
-7.03
-6.45
-5.58
-4.69
-3.98
-3.50
-3.13
-2.66
-1.91
-0.84
0.42
1.65
2.62
3.22
3.47
3.47
3.33
3.14
2.87
2.52
2.09
1.63
1.25
1.03
0.96
0.98
0.98
0.85
0.55
0.13
-0.35
-0.82
-1.27
-1.71
-2.23
-2.88
-3.71
-4.69
-5.76
-6.82
-7.85
-8.82
-9.76
-10.70
-11.59
-12.38
-12.98
-13.34
-13.50
-13.55
-13.65
-13.90
-14.35
-14.89
-15.33
-15.41
-14.91
-13.72
-11.80
-9.23
-6.14
-2.69
0.92
4.47
7.70
10.40
12.46
13.92
14.91
15.61
16.10
16.41
16.49
16.36
16.06
15.69
15.34
15.02
14.65
14.15
13.46
12.63
11.79
11.08
10.61
10.38
10.28
10.18
9.93
9.48
8.86
8.16
7.48
6.88
6.37
5.88
5.32
4.62
3.77
2.79
1.81
0.92
0.16
-0.51
-1.16
-1.89
-2.68
-3.45
-4.04
-4.35
-4.38
-4.26
-4.16
-4.23
-4.51
-4.93
-5.34
-5.63
-5.70
-5.61
-5.46
-5.41
-5.55
-5.92
-6.43
-6.97
-7.41
-7.69
-7.78
-7.69
-7.37
-6.75
-5.79
-4.53
-3.10
-1.69
-0.44
0.64
1.63
2.64
3.73
4.86
5.89
6.72
7.29
7.63
7.81
7.87
7.83
7.67
7.37
6.91
6.33
5.69
5.03
4.38
3.68
2.83
1.72
0.30
-1.38
-3.18
-4.85
-6.20
-7.12
-7.63
-7.80
-7.75
-7.54
-7.22
-6.79
-6.28
-5.74
-5.22
-4.79
-4.49
-4.30
-4.18
-4.05
-3.78
-3.31
-2.60
-1.69
-0.67
0.32
1.17
1.78
2.11
2.16
1.99
1.68
1.38
1.18
1.12
1.17
1.25
1.31
1.34
1.42
1.59
1.88
2.23
2.57
2.87
3.15
3.48
3.89
4.36
4.76
4.99
5.01
4.80
4.45
3.99
3.47
2.97
2.60
2.55
2.92
3.71
4.73
5.69
6.34
6.55
6.38
5.98
5.50
5.06
4.71
4.43
4.20
3.92
3.50
2.86
2.02
1.06
0.16
-0.53
-0.99
-1.28
-1.56
-1.91
-2.33
-2.71
-2.98
-3.14
-3.32
-3.67
-4.27
-5.09
-5.94
-6.65
-7.12
-7.36
-7.48
-7.55
-7.60
-7.57
-7.37
-6.94
-6.30
-5.55
-4.78
-4.05
-3.35
-2.67
-1.99
-1.32
-0.67
-0.08
0.47
0.98
1.45
1.89
2.29
2.68
3.11
3.65
4.33
5.09
5.84
6.46
6.85
6.97
6.89
6.67
6.38
6.07
5.75
5.43
5.14
4.90
4.65
4.32
3.82
3.12
2.25
1.35
0.56
-0.06
-0.51
-0.91
-1.35
-1.87
-2.41
-2.93
-3.39
-3.78
-4.14
-4.44
-4.60
-4.56
-4.34
-4.02
-3.78
-3.78
-4.10
-4.68
-5.41
-6.16
-6.85
-7.46
-8.01
-8.48
-8.83
-8.96
-8.80
-8.34
-7.67
-6.88
-6.07
-5.25
-4.36
-3.36
-2.30
-1.29
-0.49
-0.00
0.20
0.25
0.30
0.46
0.72
1.02
1.28
1.47
1.64
1.87
2.18
2.57
2.98
3.34
3.59
3.68
3.59
3.34
2.98
2.58
2.25
2.07
2.03
2.07
2.06
1.88
1.49
0.96
0.43
0.08
-0.01
0.12
0.31
0.39
0.23
-0.16
-0.71
-1.29
-1.82
-2.29
-2.75
-3.22
-3.69
-4.11
-4.41
-4.58
-4.66
-4.76
-4.97
-5.33
-5.79
-6.24
-6.59
-6.80
-6.88
-6.93
-7.02
-7.17
-7.29
-7.27
-6.99
-6.40
-5.55
-4.52
-3.43
-2.36
-1.39
-0.59
0.01
0.39
0.60
0.69
0.73
0.79
0.90
1.06
1.27
1.54
1.85
2.20
2.54
2.81
2.99
3.08
3.12
3.17
3.23
3.29
3.32
3.29
3.21
3.08
2.87
2.56
2.12
1.58
1.05
0.70
0.64
0.90
1.36
1.81
2.07
2.06
1.83
1.53
1.25
1.02
0.77
0.42
-0.05
-0.58
-1.07
-1.45
-1.72
-1.90
-1.99
-1.92
-1.58
-0.91
0.04
1.11
2.11
2.89
3.46
3.91
4.30
4.67
4.95
5.06
4.95
4.66
4.27
3.84
3.45
3.09
2.78
2.52
2.34
2.26
2.28
2.34
2.37
2.31
2.11
1.82
1.51
1.25
1.10
1.04
1.02
0.98
0.90
0.80
0.69
0.56
0.35
0.01
-0.47
-1.00
-1.48
-1.79
-1.90
-1.82
-1.64
-1.45
-1.36
-1.47
-1.84
-2.46
-3.23
-3.98
-4.59
-5.01
-5.33
-5.73
-6.38
-7.27
-8.27
-9.14
-9.65
-9.73
-9.43
-8.87
-8.21
-7.49
-6.69
-5.74
-4.61
-3.34
-2.05
-0.91
-0.06
0.45
0.71
0.86
1.08
1.43
1.89
2.35
2.70
2.90
3.00
3.09
3.24
3.44
3.64
3.76
3.77
3.69
3.59
3.50
3.44
3.36
3.19
2.90
2.50
2.06
1.63
1.29
1.02
0.80
0.58
0.32
0.08
-0.09
-0.16
-0.16
-0.16
-0.29
-0.61
-1.12
-1.70
-2.25
-2.65
-2.90
-3.07
-3.22
-3.42
-3.71
-4.11
-4.60
-5.20
-5.86
-6.52
-7.07
-7.42
-7.47
-7.16
-6.45
-5.30
-3.72
-1.81
0.21
2.05
3.45
4.26
4.60
4.70
4.86
5.27
5.92
6.65
7.24
7.56
7.63
7.60
7.62
7.81
8.12
8.44
8.64
8.66
8.53
8.38
8.32
8.35
8.39
8.29
7.98
7.47
6.88
6.30
5.79
5.29
4.72
4.03
3.24
2.42
1.61
0.79
-0.15
-1.32
-2.73
-4.34
-6.02
-7.68
-9.32
-10.99
-12.78
-14.75
-16.86
-19.02
-21.05
-22.76
-23.93
-24.34
-23.80
-22.19
-19.55
-16.13
-12.41
-8.92
-6.12
-4.20
-2.98
-1.98
-0.64
1.43
4.30
7.71
11.23
14.45
17.12
19.19
20.70
21.69
22.16
22.07
21.45
20.45
19.28
18.17
17.22
16.39
15.50
14.37
12.91
11.20
9.44
7.86
6.63
5.77
5.17
4.65
3.99
3.05
1.83
0.41
-1.01
-2.25
-3.19
-3.84
-4.31
-4.78
-5.36
-6.07
-6.85
-7.65
-8.44
-9.26
-10.16
-11.13
-12.09
-12.91
-13.49
-13.81
-13.91
-13.87
-13.77
-13.58
-13.28
-12.82
-12.21
-11.47
-10.65
-9.79
-8.90
-7.98
-7.04
-6.10
-5.19
-4.35
-3.61
-2.97
-2.38
-1.76
-1.00
-0.04
1.18
2.61
4.17
5.75
7.26
8.63
9.83
10.79
11.45
11.76
11.69
11.28
10.64
9.91
9.22
8.61
8.07
7.49
6.78
5.91
4.93
3.99
3.25
2.79
2.59
2.54
2.47
2.30
2.00
1.70
1.52
1.59
1.91
2.42
2.97
3.40
3.56
3.37
2.86
2.14
1.42
0.88
0.66
0.80
1.18
1.64
1.99
2.13
2.06
1.90
1.76
1.75
1.86
2.02
2.08
1.91
1.49
0.85
0.10
-0.64
-1.35
-2.06
-2.83
-3.66
-4.47
-5.12
-5.43
-5.29
-4.68
-3.70
-2.48
-1.18
0.06
1.16
2.08
2.83
3.42
3.87
4.19
4.35
4.37
4.28
4.12
3.97
3.87
3.82
3.77
3.67
3.52
3.34
3.19
3.11
3.14
3.22
3.30
3.30
3.15
2.79
2.23
1.53
0.78
0.12
-0.41
-0.78
-1.02
-1.12
-1.04
-0.70
-0.09
0.72
1.56
2.21
2.54
2.59
2.48
2.39
2.44
2.61
2.77
2.78
2.55
2.10
1.49
0.79
0.04
-0.80
-1.79
-2.93
-4.15
-5.31
-6.25
-6.88
-7.21
-7.33
-7.34
-7.33
-7.29
-7.19
-6.99
-6.70
-6.32
-5.86
-5.28
-4.48
-3.43
-2.11
-0.66
0.74
1.89
2.62
2.84
2.52
1.74
0.63
-0.64
-1.89
-2.99
-3.85
-4.45
-4.80
-4.91
-4.79
-4.45
-3.93
-3.28
-2.56
-1.86
-1.26
-0.87
-0.77
-0.98
-1.43
-1.96
-2.38
-2.53
-2.38
-2.01
-1.55
-1.09
-0.65
-0.19
0.31
0.80
1.20
1.44
1.49
1.42
1.34
1.32
1.32
1.26
1.04
0.62
0.00
-0.72
-1.45
-2.11
-2.63
-2.98
-3.10
-2.94
-2.52
-1.91
-1.23
-0.61
-0.14
0.18
0.42
0.65
0.90
1.15
1.32
1.36
1.30
1.18
1.08
1.04
1.02
0.99
0.91
0.80
0.70
0.65
0.65
0.62
0.47
0.12
-0.41
-1.05
-1.69
-2.25
-2.69
-3.03
-3.32
-3.59
-3.81
-3.95
-3.95
-3.76
-3.41
-2.96
-2.50
-2.13
-1.91
-1.88
-2.07
-2.49
-3.12
-3.88
-4.64
-5.25
-5.59
-5.65
-5.50
-5.28
-5.07
-4.96
-4.93
-4.94
-4.93
-4.85
-4.64
-4.32
-3.93
-3.56
-3.37
-3.47
-3.89
-4.56
-5.31
-5.94
-6.29
-6.25
-5.82
-5.06
-4.07
-2.96
-1.82
-0.73
0.28
1.19
1.96
2.60
3.13
3.60
4.04
4.47
4.85
5.10
5.14
4.96
4.61
4.23
3.92
3.78
3.81
3.97
4.19
4.41
4.61
4.75
4.82
4.86
4.89
4.93
4.97
4.95
4.84
4.60
4.31
4.00
3.70
3.34
2.83
2.09
1.18
0.25
-0.50
-0.94
-1.07
-1.00
-0.88
-0.88
-1.07
-1.48
-2.10
-2.87
-3.76
-4.70
-5.64
-6.56
-7.39
-8.08
-8.49
-8.51
-8.05
-7.16
-5.99
-4.76
-3.66
-2.79
-2.13
-1.61
-1.15
-0.73
-0.38
-0.15
-0.07
-0.12
-0.23
-0.29
-0.21
0.09
0.63
1.37
2.18
2.93
3.54
3.95
4.19
4.31
4.36
4.31
4.18
3.97
3.80
3.84
4.27
5.19
6.53
8.08
9.58
10.72
11.35
11.41
10.99
10.21
9.26
8.25
7.26
6.31
5.37
4.43
3.48
2.51
1.53
0.54
-0.47
-1.50
-2.59
-3.75
-4.98
-6.26
-7.53
-8.67
-9.53
-9.96
-9.87
-9.27
-8.30
-7.18
-6.18
-5.43
-4.95
-4.63
-4.25
-3.68
-2.90
-2.05
-1.35
-1.02
-1.09
-1.44
-1.80
-1.93
-1.70
-1.13
-0.33
0.56
1.50
2.48
3.50
4.46
5.18
5.48
5.26
4.59
3.63
2.56
1.51
0.51
-0.47
-1.43
-2.37
-3.26
-4.06
-4.79
-5.46
-6.10
-6.73
-7.26
-7.59
-7.60
-7.17
-6.19
-4.57
-2.28
0.61
3.93
7.37
10.60
13.28
15.17
16.17
16.35
15.86
14.90
13.67
12.28
10.79
9.21
7.50
5.62
3.53
1.19
-1.36
-4.02
-6.59
-8.84
-10.50
-11.43
-11.57
-10.99
-9.89
-8.47
-6.99
-5.65
-4.60
-3.95
-3.71
-3.83
-4.17
-4.61
-5.01
-5.27
-5.32
-5.10
-4.56
-3.72
-2.65
-1.56
-0.61
0.04
0.41
0.63
0.88
1.29
1.91
2.66
3.40
4.02
4.48
4.82
5.14
5.50
5.95
6.43
6.81
6.98
6.88
6.51
6.01
5.48
4.98
4.47
3.82
2.95
1.87
0.70
-0.38
-1.26
-1.93
-2.49
-3.06
-3.69
-4.28
-4.66
-4.64
-4.17
-3.34
-2.34
-1.39
-0.58
0.04
0.56
1.07
1.63
2.24
2.84
3.40
3.89
4.29
4.61
4.84
5.01
5.14
5.25
5.40
5.61
5.84
6.03
6.08
5.97
5.71
5.38
5.02
4.67
4.25
3.71
3.01
2.17
1.30
0.49
-0.19
-0.77
-1.32
-1.90
-2.53
-3.17
-3.77
-4.28
-4.70
-5.11
-5.60
-6.29
-7.25
-8.49
-9.89
-11.23
-12.21
-12.66
-12.54
-12.07
-11.59
-11.44
-11.80
-12.64
-13.71
-14.67
-15.18
-14.96
-13.81
-11.64
-8.54
-4.81
-0.95
2.42
4.85
6.10
6.30
5.79
4.97
4.17
3.57
3.25
3.25
3.57
4.18
4.98
5.77
6.34
6.55
6.36
5.86
5.19
4.56
4.14
4.11
4.56
5.46
6.63
7.74
8.47
8.60
8.16
7.39
6.63
6.20
6.25
6.74
7.49
8.24
8.78
8.97
8.80
8.37
7.83
7.33
6.97
6.77
6.65
6.54
6.33
5.95
5.31
4.33
2.98
1.26
-0.77
-2.93
-5.03
-6.88
-8.34
-9.39
-10.10
-10.58
-10.96
-11.28
-11.45
-11.38
-10.94
-10.11
-8.99
-7.72
-6.46
-5.30
-4.27
-3.38
-2.63
-2.04
-1.63
-1.36
-1.13
-0.83
-0.38
0.22
0.88
1.46
1.88
2.17
2.43
2.78
3.33
4.08
4.95
5.83
6.61
7.29
7.91
8.55
9.23
9.92
10.52
10.94
11.13
11.14
11.04
10.90
10.75
10.54
10.24
9.79
9.16
8.31
7.19
5.77
4.07
2.21
0.35
-1.32
-2.71
-3.86
-4.90
-5.97
-7.12
-8.25
-9.18
-9.76
-9.91
-9.67
-9.14
-8.45
-7.66
-6.79
-5.85
-4.87
-3.91
-3.10
-2.53
-2.26
-2.28
-2.49
-2.72
-2.82
-2.67
-2.26
-1.65
-0.94
-0.25
0.37
0.91
1.37
1.74
2.03
2.22
2.38
2.58
2.92
3.40
3.93
4.35
4.52
4.38
4.01
3.57
3.22
3.03
2.95
2.86
2.66
2.37
2.12
2.08
2.32
2.82
3.42
3.93
4.23
4.30
4.21
4.07
3.99
4.03
4.29
4.80
5.57
6.53
7.48
8.19
8.50
8.32
7.77
7.03
6.34
5.88
5.76
6.07
6.84
8.13
9.97
12.38
15.27
18.44
21.62
24.47
26.79
28.53
29.89
31.21
32.86
35.01
37.56
40.19
42.43
43.89
44.36
43.81
42.42
40.44
38.18
35.87
33.71
31.77
30.01
28.27
26.35
24.11
21.52
18.73
15.98
13.49
11.35
9.50
7.74
5.88
3.82
1.57
-0.79
-3.19
-5.63
-8.17
-10.81
-13.40
-15.73
-17.60
-18.93
-19.84
-20.51
-21.13
-21.80
-22.47
-23.06
-23.44
-23.45
-22.93
-21.73
-19.82
-17.34
-14.64
-12.18
-10.37
-9.31
-8.76
-8.24
-7.22
-5.41
-2.85
0.06
2.73
4.63
5.43
5.08
3.80
1.94
-0.16
-2.28
-4.29
-6.15
-7.87
-9.45
-10.91
-12.32
-13.75
-15.29
-17.01
-18.91
-20.95
-23.03
-25.05
-26.94
-28.69
-30.24
-31.52
-32.40
-32.80
-32.70
-32.25
-31.69
-31.22
-30.93
-30.69
-30.23
-29.25
-27.56
-25.18
-22.33
-19.33
-16.50
-14.10
-12.25
-11.01
-10.32
-10.10
-10.23
-10.54
-10.88
-11.07
-11.01
-10.67
-10.15
-9.62
-9.28
-9.27
-9.60
-10.16
-10.76
-11.19
-11.32
-11.05
-10.33
-9.15
-7.56
-5.66
-3.62
-1.62
0.19
1.70
2.89
3.77
4.35
4.67
4.77
4.72
4.62
4.62
4.80
5.22
5.82
6.48
7.07
7.45
7.52
7.24
6.64
5.77
4.73
3.66
2.77
2.28
2.35
3.01
4.12
5.40
6.54
7.33
7.75
7.97
8.25
8.79
9.64
10.69
11.69
12.41
12.64
12.27
11.25
9.62
7.45
4.89
2.13
-0.64
-3.22
-5.46
-7.33
-8.94
-10.46
-12.15
-14.17
-16.53
-19.04
-21.36
-23.14
-24.10
-24.19
-23.55
-22.50
-21.36
-20.38
-19.64
-19.05
-18.46
-17.71
-16.78
-15.75
-14.80
-14.13
-13.88
-13.99
-14.24
-14.23
-13.48
-11.57
-8.33
-3.87
1.38
6.81
11.81
15.94
19.01
21.01
22.11
22.45
22.14
21.26
19.90
18.18
16.27
14.33
12.49
10.80
9.27
7.82
6.40
4.98
3.58
2.22
0.95
-0.18
-1.19
-2.08
-2.86
-3.60
-4.36
-5.22
-6.24
-7.39
-8.63
-9.88
-11.06
-12.14
-13.15
-14.10
-15.05
-16.06
-17.18
-18.47
-19.88
-21.28
-22.46
-23.17
-23.27
-22.72
-21.62
-20.17
-18.54
-16.88
-15.26
-13.70
-12.20
-10.76
-9.42
-8.25
-7.31
-6.62
-6.15
-5.76
-5.33
-4.73
-3.92
-2.98
-2.02
-1.13
-0.35
0.36
1.05
1.76
2.45
3.05
3.53
3.83
3.97
3.94
3.75
3.43
3.00
2.57
2.25
2.12
2.17
2.34
2.53
2.65
2.71
2.73
2.77
2.81
2.82
2.72
2.46
2.04
1.47
0.78
0.00
-0.84
-1.73
-2.68
-3.70
-4.85
-6.15
-7.60
-9.06
-10.31
-11.07
-11.13
-10.40
-8.91
-6.84
-4.38
-1.73
0.92
3.40
5.56
7.30
8.67
9.79
10.83
11.94
13.10
14.24
15.19
15.85
16.21
16.40
16.61
16.95
17.49
18.15
18.77
19.13
19.06
18.49
17.47
16.16
14.78
13.49
12.37
11.30
10.06
8.33
5.90
2.75
-0.88
-4.56
-7.81
-10.24
-11.72
-12.27
-12.09
-11.37
-10.37
-9.32
-8.48
-8.09
-8.29
-9.04
-10.13
-11.29
-12.35
-13.30
-14.26
-15.36
-16.65
-18.06
-19.54
-21.17
-23.11
-25.55
-28.47
-31.59
-34.46
-36.59
-37.69
-37.69
-36.75
-35.10
-32.93
-30.40
-27.63
-24.73
-21.78
-18.81
-15.81
-12.74
-9.62
-6.57
-3.79
-1.49
0.25
1.47
2.34
3.06
3.82
4.74
5.87
7.19
8.67
10.21
11.69
12.95
13.83
14.20
14.07
13.55
12.90
12.43
12.39
12.86
13.76
14.79
15.63
16.04
15.91
15.30
14.33
13.13
11.77
10.34
8.89
7.56
6.43
5.59
4.93
4.27
3.31
1.80
-0.41
-3.27
-6.52
-9.72
-12.34
-13.96
-14.33
-13.52
-11.82
-9.60
-7.19
-4.77
-2.40
-0.11
2.01
3.85
5.29
6.35
7.14
7.80
8.43
8.99
9.34
9.37
9.05
8.46
7.78
7.19
6.77
6.52
6.33
6.06
5.56
4.72
3.52
2.03
0.45
-0.94
-1.86
-2.17
-1.89
-1.21
-0.46
0.14
0.49
0.74
1.16
2.01
3.45
5.43
7.73
10.04
12.12
13.82
15.15
16.17
16.94
17.44
17.58
17.20
16.18
14.54
12.49
10.40
8.74
7.87
7.95
8.90
10.43
12.19
13.94
15.56
17.01
18.31
19.41
20.18
20.52
20.37
19.77
18.88
17.90
16.97
16.18
15.52
14.87
14.13
13.21
12.12
11.01
10.05
9.38
9.01
8.78
8.40
7.66
6.49
5.00
3.46
2.09
1.00
0.13
-0.71
-1.70
-2.94
-4.43
-6.04
-7.61
-9.01
-10.22
-11.27
-12.26
-13.32
-14.52
-15.90
-17.40
-18.94
-20.32
-21.27
-21.53
-20.87
-19.20
-16.64
-13.46
-10.00
-6.56
-3.32
-0.29
2.54
5.22
7.72
10.00
12.00
13.72
15.17
16.35
17.26
17.89
18.21
18.28
18.16
17.94
17.70
17.49
17.32
17.14
16.91
16.51
15.87
14.97
13.86
12.70
11.63
10.75
10.04
9.42
8.77
7.97
7.05
6.06
5.14
4.39
3.84
3.50
3.26
3.02
2.70
2.24
1.61
0.85
-0.02
-0.94
-1.89
-2.85
-3.83
-4.88
-6.03
-7.30
-8.66
-9.98
-11.14
-12.02
-12.63
-13.08
-13.56
-14.26
-15.34
-16.77
-18.44
-20.12
-21.52
-22.37
-22.45
-21.70
-20.17
-18.02
-15.45
-12.67
-9.86
-7.20
-4.88
-3.07
-1.85
-1.12
-0.65
-0.11
0.75
2.02
3.60
5.31
7.00
8.58
10.07
11.46
12.70
13.67
14.31
14.70
15.04
15.61
16.53
17.73
18.97
19.91
20.33
20.19
19.65
18.92
18.17
17.43
16.65
15.70
14.52
13.13
11.59
9.98
8.33
6.61
4.80
2.87
0.85
-1.16
-3.05
-4.72
-6.12
-7.22
-8.12
-8.90
-9.71
-10.66
-11.84
-13.30
-15.07
-17.10
-19.29
-21.43
-23.28
-24.59
-25.13
-24.79
-23.56
-21.56
-19.00
-16.08
-13.02
-9.95
-6.90
-3.85
-0.81
2.18
4.96
7.29
9.02
10.10
10.67
10.96
11.19
11.47
11.73
11.88
11.86
11.72
11.58
11.48
11.40
11.17
10.63
9.73
8.53
7.21
5.97
4.92
4.09
3.39
2.70
1.93
1.07
0.20
-0.49
-0.82
-0.68
-0.09
0.74
1.48
1.83
1.58
0.75
-0.45
-1.73
-2.80
-3.47
-3.72
-3.69
-3.57
-3.57
-3.83
-4.38
-5.12
-5.91
-6.58
-7.05
-7.30
-7.33
-7.17
-6.81
-6.24
-5.47
-4.56
-3.64
-2.80
-2.11
-1.52
-0.96
-0.39
0.14
0.47
0.45
0.04
-0.64
-1.37
-1.90
-2.13
-2.07
-1.85
-1.53
-1.14
-0.65
-0.03
0.66
1.26
1.62
1.66
1.41
1.01
0.62
0.34
0.23
0.30
0.51
0.76
0.94
0.94
0.73
0.37
0.00
-0.24
-0.31
-0.27
-0.28
-0.50
-1.00
-1.73
-2.56
-3.33
-3.95
-4.38
-4.63
-4.64
-4.32
-3.57
-2.34
-0.73
1.04
2.67
3.90
4.60
4.78
4.60
4.24
3.84
3.43
2.97
2.37
1.56
0.52
-0.68
-1.89
-2.92
-3.65
-4.03
-4.13
-4.04
-3.82
-3.44
-2.88
-2.16
-1.43
-0.89
-0.68
-0.78
-0.99
-1.03
-0.69
0.07
1.12
2.23
3.23
4.05
4.72
5.28
5.76
6.13
6.40
6.61
6.89
7.43
8.35
9.69
11.30
12.89
14.11
14.71
14.57
13.77
12.48
10.95
9.34
7.77
6.24
4.77
3.37
2.08
0.99
0.18
-0.29
-0.41
-0.25
0.06
0.39
0.62
0.74
0.80
0.89
1.05
1.30
1.56
1.73
1.76
1.60
1.32
0.97
0.64
0.36
0.12
-0.14
-0.51
-1.02
-1.71
-2.54
-3.42
-4.24
-4.91
-5.36
-5.61
-5.74
-5.90
-6.24
-6.90
-7.94
-9.33
-10.93
-12.56
-13.95
-14.84
-14.98
-14.25
-12.68
-10.47
-7.97
-5.55
-3.49
-1.92
-0.81
-0.03
0.54
1.03
1.51
2.09
2.90
4.03
5.52
7.26
9.04
10.62
11.83
12.63
13.14
13.51
13.87
14.27
14.62
14.85
14.89
14.79
14.64
14.59
14.70
14.96
15.26
15.47
15.49
15.25
14.76
14.06
13.21
12.23
11.13
9.91
8.52
6.94
5.15
3.17
1.08
-1.01
-2.98
-4.73
-6.23
-7.48
-8.53
-9.40
-10.08
-10.55
-10.80
-10.85
-10.71
-10.39
-9.86
-9.09
-8.11
-7.02
-6.00
-5.18
-4.61
-4.24
-3.95
-3.66
-3.36
-3.15
-3.12
-3.32
-3.73
-4.28
-4.92
-5.65
-6.47
-7.32
-8.06
-8.52
-8.53
-8.06
-7.14
-5.92
-4.58
-3.31
-2.33
-1.78
-1.74
-2.17
-2.87
-3.53
-3.86
-3.70
-3.07
-2.17
-1.24
-0.53
-0.17
-0.20
-0.57
-1.17
-1.90
-2.60
-3.20
-3.68
-4.12
-4.60
-5.18
-5.84
-6.44
-6.87
-7.05
-6.99
-6.82
-6.70
-6.74
-7.03
-7.60
-8.44
-9.49
-10.66
-11.76
-12.57
-12.86
-12.54
-11.64
-10.36
-8.96
-7.66
-6.60
-5.81
-5.23
-4.86
-4.78
-5.16
-6.17
-7.81
-9.87
-11.94
-13.53
-14.26
-14.01
-12.89
-11.20
-9.22
-7.15
-5.05
-2.91
-0.76
1.30
3.12
4.59
5.73
6.69
7.67
8.84
10.27
11.88
13.47
14.87
15.90
16.53
16.80
16.87
16.92
17.09
17.42
17.85
18.21
18.36
18.18
17.71
17.03
16.30
15.60
14.96
14.36
13.76
13.11
12.39
11.55
10.56
9.40
8.12
6.76
5.36
3.95
2.47
0.88
-0.83
-2.65
-4.53
-6.42
-8.30
-10.12
-11.77
-13.13
-14.07
-14.59
-14.80
-14.86
-14.88
-14.76
-14.26
-13.08
-11.00
-8.04
-4.39
-0.34
3.86
7.98
11.85
15.28
18.09
20.14
21.48
22.26
22.72
23.06
23.38
23.63
23.72
23.58
23.20
22.61
21.82
20.81
19.51
17.90
16.01
13.96
11.92
10.01
8.28
6.71
5.20
3.66
2.07
0.46
-1.11
-2.55
-3.84
-4.98
-6.05
-7.11
-8.17
-9.24
-10.24
-11.14
-11.90
-12.56
-13.21
-13.94
-14.84
-15.93
-17.17
-18.45
-19.60
-20.48
-21.00
-21.16
-21.12
-21.10
-21.34
-21.97
-22.96
-24.09
-25.04
-25.52
-25.35
-24.50
-23.02
-21.05
-18.74
-16.21
-13.64
-11.16
-8.86
-6.76
-4.80
-2.88
-0.93
1.04
2.94
4.63
6.02
7.09
7.89
8.49
8.97
9.39
9.80
10.28
10.88
11.65
12.54
13.43
14.17
14.65
14.85
14.87
14.86
14.94
15.14
15.34
15.39
15.17
14.66
13.92
13.08
12.23
11.41
10.54
9.58
8.47
7.25
6.01
4.83
3.75
2.71
1.60
0.29
-1.25
-2.97
-4.74
-6.42
-7.90
-9.14
-10.13
-10.81
-11.16
-11.12
-10.69
-9.95
-8.99
-7.96
-6.95
-6.05
-5.29
-4.68
-4.20
-3.79
-3.38
-2.86
-2.20
-1.49
-0.88
-0.56
-0.65
-1.10
-1.73
-2.31
-2.64
-2.70
-2.59
-2.55
-2.75
-3.29
-4.03
-4.70
-4.94
-4.45
-3.12
-1.02
1.60
4.42
7.13
9.52
11.46
12.88
13.80
14.25
14.31
14.13
13.84
13.55
13.29
13.00
12.56
11.84
10.76
9.35
7.75
6.19
4.91
4.02
3.54
3.34
3.23
3.02
2.58
1.83
0.78
-0.54
-2.02
-3.53
-4.95
-6.16
-7.16
-8.02
-8.83
-9.67
-10.50
-11.19
-11.58
-11.56
-11.15
-10.45
-9.62
-8.79
-7.97
-7.11
-6.10
-4.90
-3.53
-2.07
-0.59
0.86
2.31
3.78
5.20
6.41
7.21
7.49
7.30
6.85
6.40
6.15
6.13
6.24
6.35
6.36
6.30
6.24
6.24
6.26
6.20
5.94
5.46
4.82
4.14
3.52
2.97
2.43
1.83
1.14
0.44
-0.21
-0.75
-1.20
-1.66
-2.16
-2.64
-2.94
-2.90
-2.44
-1.70
-0.90
-0.30
0.00
0.04
-0.05
-0.14
-0.20
-0.31
-0.54
-0.94
-1.43
-1.88
-2.18
-2.26
-2.15
-1.94
-1.70
-1.48
-1.28
-1.11
-0.92
-0.74
-0.61
-0.57
-0.64
-0.76
-0.88
-0.94
-0.91
-0.89
-0.99
-1.34
-2.00
-2.88
-3.84
-4.67
-5.24
-5.51
-5.49
-5.25
-4.87
-4.39
-3.84
-3.22
-2.52
-1.77
-1.02
-0.33
0.22
0.60
0.76
0.73
0.53
0.22
-0.15
-0.53
-0.90
-1.27
-1.69
-2.20
-2.82
-3.53
-4.24
-4.90
-5.44
-5.87
-6.21
-6.50
-6.73
-6.87
-6.93
-6.95
-7.04
-7.28
-7.70
-8.26
-8.83
-9.31
-9.64
-9.88
-10.09
-10.36
-10.69
-10.98
-11.06
-10.71
-9.74
-8.05
-5.74
-3.06
-0.40
1.86
3.52
4.58
5.22
5.70
6.18
6.69
7.16
7.50
7.70
7.82
7.95
8.12
8.29
8.36
8.26
7.94
7.43
6.77
6.00
5.13
4.18
3.14
2.08
1.10
0.34
-0.03
0.08
0.66
1.56
2.50
3.16
3.34
3.04
2.46
1.90
1.61
1.68
2.03
2.48
2.88
3.18
3.41
3.67
4.00
4.40
4.82
5.22
5.59
5.89
6.08
6.07
5.77
5.14
4.26
3.24
2.23
1.31
0.49
-0.27
-1.04
-1.88
-2.87
-4.05
-5.45
-7.06
-8.78
-10.43
-11.82
-12.79
-13.31
-13.51
-13.59
-13.76
-14.16
-14.80
-15.59
-16.36
-16.98
-17.37
-17.56
-17.61
-17.58
-17.44
-17.11
-16.55
-15.75
-14.81
-13.82
-12.77
-11.49
-9.74
-7.33
-4.26
-0.75
2.88
6.33
9.50
12.44
15.32
18.19
21.01
23.58
25.73
27.35
28.47
29.18
29.56
29.67
29.45
28.86
27.86
26.49
24.79
22.84
20.68
18.28
15.66
12.80
9.75
6.58
3.40
0.35
-2.42
-4.79
-6.68
-8.12
-9.23
-10.20
-11.17
-12.18
-13.18
-14.02
-14.52
-14.59
-14.16
-13.23
-11.89
-10.29
-8.63
-7.17
-6.13
-5.57
-5.40
-5.36
-5.17
-4.65
-3.85
-3.00
-2.40
-2.28
-2.68
-3.38
-4.02
-4.23
-3.80
-2.75
-1.34
0.07
1.14
1.74
1.98
2.09
2.34
2.89
3.72
4.65
5.52
6.18
6.59
6.74
6.67
6.37
5.81
4.99
3.95
2.80
1.65
0.68
0.04
-0.14
0.20
0.99
2.07
3.17
4.03
4.53
4.64
4.47
4.14
3.72
3.22
2.57
1.71
0.64
-0.59
-1.81
-2.84
-3.53
-3.83
-3.87
-3.90
-4.22
-5.04
-6.33
-7.86
-9.24
-10.16
-10.46
-10.17
-9.48
-8.58
-7.63
-6.76
-6.06
-5.63
-5.49
-5.58
-5.72
-5.69
-5.32
-4.60
-3.65
-2.72
-2.03
-1.71
-1.73
-1.99
-2.32
-2.65
-2.98
-3.40
-4.04
-4.93
-5.99
-7.01
-7.83
-8.35
-8.68
-9.02
-9.60
-10.50
-11.69
-12.99
-14.27
-15.36
-16.07
-16.15
-15.32
-13.42
-10.62
-7.44
-4.65
-2.94
-2.56
-3.18
-4.04
-4.29
-3.44
-1.47
1.27
4.33
7.49
10.74
14.18
17.72
21.03
23.61
25.07
25.32
24.66
23.57
22.48
21.54
20.67
19.66
18.38
16.85
15.26
13.79
12.54
11.49
10.57
9.72
8.96
8.34
7.87
7.51
7.11
6.49
5.54
4.25
2.79
1.36
0.16
-0.69
-1.24
-1.59
-1.91
-2.34
-2.92
-3.58
-4.25
-4.83
-5.31
-5.73
-6.18
-6.74
-7.42
-8.17
-8.89
-9.51
-9.98
-10.28
-10.43
-10.41
-10.25
-9.98
-9.70
-9.54
-9.63
-10.04
-10.71
-11.54
-12.37
-13.03
-13.45
-13.62
-13.61
-13.49
-13.31
-13.00
-12.48
-11.63
-10.40
-8.82
-7.00
-5.12
-3.33
-1.71
-0.29
0.92
1.95
2.80
3.48
4.03
4.50
4.94
5.37
5.82
6.26
6.64
6.95
7.13
7.22
7.23
7.19
7.13
7.03
6.87
6.64
6.32
5.98
5.68
5.48
5.38
5.32
5.21
4.99
4.58
3.98
3.24
2.41
1.58
0.83
0.18
-0.42
-1.08
-1.92
-3.00
-4.28
-5.62
-6.86
-7.93
-8.84
-9.71
-10.61
-11.57
-12.49
-13.23
-13.66
-13.67
-13.23
-12.34
-11.00
-9.24
-7.16
-4.92
-2.72
-0.74
1.00
2.65
4.50
6.84
9.79
13.30
17.06
20.67
23.70
25.87
27.07
27.37
26.98
26.18
25.20
24.19
23.18
22.08
20.75
19.05
16.96
14.57
12.11
9.85
8.01
6.66
5.72
5.01
4.29
3.42
2.39
1.27
0.22
-0.70
-1.47
-2.13
-2.73
-3.29
-3.77
-4.15
-4.45
-4.71
-5.03
-5.42
-5.85
-6.21
-6.40
-6.40
-6.28
-6.18
-6.24
-6.54
-7.05
-7.61
-8.05
-8.29
-8.36
-8.40
-8.59
-9.01
-9.63
-10.32
-10.84
-10.98
-10.62
-9.74
-8.44
-6.89
-5.25
-3.66
-2.19
-0.85
0.33
1.34
2.16
2.77
3.19
3.46
3.64
3.78
3.90
4.03
4.18
4.36
4.58
4.85
5.10
5.28
5.31
5.19
4.92
4.58
4.20
3.84
3.51
3.23
3.03
2.94
2.93
2.96
2.93
2.75
2.37
1.81
1.18
0.55
-0.02
-0.52
-0.95
-1.28
-1.46
-1.46
-1.31
-1.14
-1.10
-1.35
-1.94
-2.75
-3.57
-4.18
-4.47
-4.49
-4.38
-4.32
-4.41
-4.69
-5.11
-5.60
-6.13
-6.68
-7.23
-7.74
-8.10
-8.20
-7.93
-7.26
-6.25
-5.00
-3.66
-2.37
-1.25
-0.33
0.40
1.00
1.54
2.08
2.65
3.30
4.03
4.81
5.55
6.13
6.43
6.45
6.29
6.09
5.98
5.97
5.96
5.85
5.57
5.18
4.77
4.40
4.03
3.53
2.79
1.81
0.73
-0.25
-0.97
-1.37
-1.48
-1.44
-1.35
-1.34
-1.56
-2.12
-3.08
-4.35
-5.72
-6.87
-7.56
-7.67
-7.28
-6.62
-5.97
-5.54
-5.40
-5.48
-5.60
-5.60
-5.39
-5.07
-4.80
-4.78
-5.09
-5.68
-6.38
-6.97
-7.29
-7.25
-6.85
-6.13
-5.16
-4.03
-2.80
-1.51
-0.18
1.24
2.74
4.33
5.90
7.31
8.43
9.16
9.44
9.26
8.64
7.71
6.72
5.97
5.72
6.03
6.71
7.36
7.62
7.26
6.33
5.06
3.71
2.44
1.28
0.16
-0.91
-1.90
-2.71
-3.33
-3.84
-4.40
-5.12
-5.95
-6.67
-7.01
-6.78
-6.02
-4.95
-3.88
-3.06
-2.58
-2.40
-2.42
-2.55
-2.80
-3.21
-3.78
-4.47
-5.12
-5.56
-5.62
-5.26
-4.52
-3.54
-2.49
-1.54
-0.72
0.02
0.84
1.87
3.12
4.44
5.59
6.33
6.57
6.40
6.04
5.74
5.63
5.65
5.61
5.37
4.88
4.26
3.68
3.27
3.03
2.86
2.66
2.35
1.95
1.52
1.11
0.76
0.48
0.27
0.11
0.00
-0.10
-0.20
-0.32
-0.45
-0.54
-0.57
-0.54
-0.47
-0.39
-0.33
-0.32
-0.37
-0.51
-0.75
-1.06
-1.36
-1.60
-1.74
-1.81
-1.90
-2.06
-2.32
-2.64
-2.95
-3.17
-3.26
-3.20
-3.02
-2.78
-2.54
-2.38
-2.36
-2.49
-2.76
-3.09
-3.41
-3.67
-3.87
-4.06
-4.25
-4.40
-4.39
-4.08
-3.42
-2.48
-1.46
-0.58
0.04
0.43
0.71
0.98
1.25
1.41
1.33
0.95
0.36
-0.22
-0.59
-0.63
-0.39
-0.01
0.33
0.52
0.51
0.30
-0.08
-0.59
-1.17
-1.76
-2.27
-2.64
-2.86
-2.97
-3.06
-3.23
-3.50
-3.83
-4.13
-4.29
-4.29
-4.22
-4.19
-4.36
-4.75
-5.28
-5.75
-5.92
-5.65
-4.96
-3.97
-2.84
-1.67
-0.45
0.93
2.56
4.46
6.50
8.46
10.10
11.24
11.77
11.69
11.02
9.86
8.33
6.59
4.85
3.28
2.00
1.08
0.52
0.30
0.40
0.79
1.38
2.04
2.56
2.73
2.42
1.59
0.34
-1.20
-2.89
-4.63
-6.33
-7.87
-9.06
-9.70
-9.67
-9.04
-8.07
-7.15
-6.64
-6.74
-7.43
-8.51
-9.75
-10.95
-11.96
-12.63
-12.82
-12.38
-11.21
-9.32
-6.90
-4.19
-1.41
1.38
4.30
7.52
11.18
15.22
19.31
22.97
25.69
27.13
27.24
26.22
24.48
22.45
20.46
18.66
16.99
15.31
13.43
11.24
8.82
6.35
4.10
2.24
0.82
-0.31
-1.36
-2.51
-3.87
-5.38
-6.97
-8.53
-10.04
-11.51
-12.91
-14.12
-15.00
-15.35
-15.11
-14.37
-13.34
-12.30
-11.45
-10.85
-10.40
-9.93
-9.32
-8.56
-7.75
-7.05
-6.59
-6.37
-6.33
-6.33
-6.28
-6.17
-6.04
-5.91
-5.77
-5.52
-5.04
-4.24
-3.12
-1.73
-0.13
1.66
3.65
5.86
8.19
10.49
12.55
14.23
15.57
16.67
17.63
18.36
18.64
18.23
17.02
15.15
12.95
10.71
8.61
6.69
4.89
3.23
1.81
0.74
0.06
-0.36
-0.76
-1.38
-2.31
-3.47
-4.65
-5.63
-6.31
-6.75
-7.10
-7.59
-8.32
-9.29
-10.35
-11.30
-11.97
-12.27
-12.22
-11.83
-11.11
-10.05
-8.62
-6.86
-4.93
-3.05
-1.43
-0.18
0.67
1.23
1.59
1.85
2.05
2.25
2.49
2.82
3.27
3.79
4.31
4.75
5.08
5.36
5.69
6.13
6.63
7.05
7.22
7.07
6.65
6.10
5.57
5.14
4.81
4.53
4.25
3.97
3.74
3.62
3.59
3.59
3.50
3.21
2.67
1.94
1.15
0.49
0.06
-0.10
-0.09
-0.03
-0.08
-0.32
-0.71
-1.21
-1.74
-2.28
-2.86
-3.52
-4.26
-5.01
-5.70
-6.25
-6.63
-6.81
-6.78
-6.50
-5.93
-5.07
-3.99
-2.78
-1.58
-0.47
0.54
1.44
2.24
2.91
3.38
3.64
3.71
3.66
3.57
3.52
3.54
3.63
3.76
3.88
3.96
3.96
3.87
3.72
3.56
3.41
3.29
3.18
3.07
2.93
2.75
2.54
2.30
2.00
1.64
1.25
0.99
1.04
1.52
2.41
3.53
4.67
5.62
6.30
6.72
6.97
7.10
7.12
6.99
6.71
6.36
6.04
5.86
5.85
6.11
6.64
7.33
7.98
8.36
8.36
8.00
7.46
7.00
7.10
8.06
9.79
11.82
13.59
14.71
15.10
14.95
14.66
14.90
16.10
18.07
19.99
20.90
20.26
18.18
15.35
12.79
11.84
13.38
17.37
22.98
28.93
33.95
36.83
36.42
29.34
14.38
-6.05
-26.45
-41.32
-47.87
-46.42
-39.33
-29.58
-19.67
-10.59
-2.45
4.93
11.42
16.58
19.98
21.47
21.39
20.50
20.18
21.30
23.89
27.01
29.31
29.56
27.34
23.00
17.50
12.13
7.75
4.73
2.98
2.18
2.03
2.41
3.35
4.91
7.29
10.28
13.60
16.85
19.55
21.34
21.97
21.21
18.65
16.04
13.81
11.99
10.35
8.61
6.58
4.30
1.93
-0.26
-2.05
-3.66
-5.24
-6.97
-8.93
-11.07
-13.24
-15.23
-16.77
-17.66
-17.99
-17.88
-17.50
-17.04
-16.66
-16.47
-16.46
-16.51
-16.45
-16.19
-15.63
-14.72
-13.50
-12.19
-11.05
-10.36
-10.20
-10.44
-10.87
-11.18
-11.22
-10.98
-10.62
-10.27
-9.99
-9.67
-9.17
-8.44
-7.52
-6.59
-5.80
-5.29
-5.07
-5.08
-5.26
-5.55
-5.92
-6.33
-6.78
-7.22
-7.61
-7.93
-8.13
-8.20
-8.08
-7.78
-7.31
-6.75
-6.23
-5.89
-5.84
-6.08
-6.50
-6.88
-6.96
-6.64
-5.94
-5.07
-4.30
-3.86
-3.80
-4.05
-4.38
-4.55
-4.38
-3.82
-2.99
-2.06
-1.25
-0.64
-0.24
0.06
0.40
0.79
1.13
1.18
0.77
-0.14
-1.28
-2.36
-3.03
-3.14
-2.80
-2.23
-1.61
-1.09
-0.83
-1.18
-2.57
-5.31
-9.19
-13.46
-16.96
-18.75
-18.52
-16.81
-14.69
-13.17
-12.70
-13.07
-13.71
-14.08
-14.04
-13.76
-13.47
-13.22
-12.76
-11.79
-10.13
-7.91
-5.43
-3.20
-1.59
-0.72
-0.46
-0.48
-0.45
-0.18
0.27
0.73
0.93
0.71
0.09
-0.78
-1.64
-2.31
-2.71
-2.85
-2.83
-2.75
-2.64
-2.51
-2.35
-2.17
-1.99
-1.79
-1.54
-1.20
-0.75
-0.22
0.32
0.76
1.01
1.01
0.76
0.24
-0.56
-1.63
-2.91
-4.28
-5.60
-6.69
-7.45
-7.86
-7.96
-7.85
-7.66
-7.50
-7.45
-7.58
-7.89
-8.30
-8.71
-9.03
-9.20
-9.27
-9.31
-9.43
-9.67
-10.01
-10.34
-10.54
-10.51
-10.22
-9.68
-8.93
-8.01
-6.94
-5.76
-4.45
-3.09
-1.73
-0.49
0.45
1.00
1.11
0.86
0.41
-0.03
-0.33
-0.43
-0.38
-0.32
-0.33
-0.42
-0.53
-0.56
-0.42
-0.13
0.22
0.52
0.67
0.66
0.57
0.54
0.69
1.04
1.50
1.88
1.99
1.69
1.00
0.08
-0.87
-1.64
-2.16
-2.46
-2.68
-2.91
-3.20
-3.52
-3.84
-4.14
-4.50
-5.01
-5.69
-6.45
-7.12
-7.60
-7.86
-8.06
-8.42
-9.07
-9.96
-10.87
-11.53
-11.73
-11.46
-10.85
-10.11
-9.38
-8.67
-7.91
-6.97
-5.80
-4.40
-2.90
-1.43
-0.11
1.02
1.97
2.79
3.46
3.95
4.18
4.16
3.97
3.80
3.79
3.92
4.00
3.72
2.88
1.46
-0.23
-1.79
-2.83
-3.25
-3.15
-2.82
-2.53
-2.40
-2.41
-2.47
-2.49
-2.45
-2.40
-2.36
-2.35
-2.31
-2.21
-2.05
-1.87
-1.81
-2.00
-2.54
-3.42
-4.56
-5.80
-6.96
-7.96
-8.70
-9.19
-9.40
-9.33
-8.98
-8.49
-8.01
-7.61
-7.21
-6.68
-5.88
-4.69
-3.17
-1.50
0.04
1.16
1.82
2.08
2.11
2.08
2.14
2.37
2.84
3.34
3.65
3.72
3.62
3.45
3.34
3.43
3.78
4.38
4.40
3.18
0.72
-2.31
-5.10
-7.06
-7.83
-7.63
-6.85
-7.34
-10.29
-15.49
-21.48
-26.73
-30.35
-31.81
-31.54
-29.99
-29.95
-33.38
-40.26
-48.91
-57.53
-65.23
-71.46
-76.92
-82.21
-90.73
-104.72
-123.86
-145.72
-167.66
-188.20
-206.17
-222.06
-216.99
-181.89
-122.70
-56.48
1.88
46.52
73.72
90.65
101.81
109.63
112.28
108.34
99.50
88.71
78.77
70.99
66.19
63.60
62.78
61.33
57.69
51.95
45.43
39.34
34.03
29.97
26.88
25.03
23.55
21.94
20.55
20.16
21.36
23.97
27.72
31.71
35.35
37.77
38.61
38.30
37.69
37.58
38.17
39.39
40.64
41.42
41.23
39.91
37.64
34.79
31.65
28.33
24.91
21.41
18.01
15.04
12.76
11.26
10.32
9.51
8.30
6.32
3.44
-0.16
-4.14
-8.13
-11.90
-15.34
-18.48
-21.36
-24.02
-26.53
-29.00
-31.58
-34.41
-37.49
-40.62
-43.35
-45.12
-45.38
-43.76
-40.19
-34.95
-28.58
-21.74
-15.05
-8.96
-3.67
0.87
4.91
8.74
12.60
16.58
20.57
24.30
27.43
29.69
30.96
31.30
30.93
30.18
29.41
28.99
29.20
30.18
31.83
33.81
35.64
36.89
37.35
37.00
35.96
34.22
31.69
28.29
24.35
20.61
18.13
17.75
19.67
23.27
27.41
30.84
32.73
32.79
31.18
28.26
24.38
19.90
15.17
10.50
6.14
2.15
-1.50
-4.82
-7.63
-9.59
-10.34
-9.73
-7.83
-4.99
-1.57
2.08
5.77
9.35
12.72
15.71
18.19
20.10
21.47
22.39
22.96
23.30
23.47
23.55
23.64
23.83
24.17
24.66
25.21
25.72
26.06
26.13
25.92
25.43
24.70
23.77
22.66
21.36
19.90
18.35
16.78
15.24
13.74
12.21
10.57
8.79
6.88
4.95
3.12
1.50
0.08
-1.20
-2.45
-3.73
-4.98
-6.08
-6.89
-7.42
-7.85
-8.53
-9.90
-12.26
-15.65
-19.76
-24.00
-27.61
-29.93
-30.47
-29.10
-25.96
-21.46
-16.17
-10.71
-5.61
-1.25
2.24
4.95
7.13
9.03
10.83
12.56
14.14
15.46
16.44
17.09
17.48
17.70
17.84
18.01
18.26
18.62
19.04
19.46
19.73
19.76
19.52
19.08
18.54
18.04
17.67
17.40
17.14
16.76
16.07
14.94
13.28
11.15
8.88
7.00
6.13
6.75
8.93
12.21
15.76
18.64
20.16
20.04
18.43
15.63
11.97
7.66
2.89
-2.06
-6.79
-10.81
-13.78
-15.60
-16.44
-16.65
-16.56
-16.42
-16.36
-16.41
-16.55
-16.73
-16.86
-16.81
-16.47
-15.76
-14.70
-13.37
-11.82
-10.05
-7.98
-5.56
-2.85
-0.09
2.38
4.23
5.26
5.49
5.17
4.66
4.28
4.22
4.48
4.95
5.48
5.93
6.26
6.41
6.35
6.03
5.44
4.62
3.65
2.61
1.55
0.44
-0.72
-1.90
-2.97
-3.74
-4.14
-4.24
-4.27
-4.48
-4.97
-5.61
-6.11
-6.16
-5.64
-4.72
-3.82
-3.45
-4.00
-5.60
-8.07
-11.05
-14.07
-16.71
-18.65
-19.73
-19.92
-19.36
-18.27
-16.96
-15.68
-14.58
-13.65
-12.73
-11.66
-10.38
-9.05
-7.98
-7.51
-7.82
-8.75
-9.90
-10.66
-10.52
-9.23
-6.92
-3.98
-0.89
1.97
4.43
6.52
8.36
9.99
11.33
12.23
12.63
12.61
12.36
12.08
11.87
11.65
11.25
10.53
9.49
8.27
7.08
6.08
5.27
4.57
3.87
3.10
2.29
1.50
0.75
0.04
-0.71
-1.56
-2.48
-3.44
-4.36
-5.17
-5.90
-6.64
-7.48
-8.44
-9.44
-10.28
-10.74
-10.69
-10.08
-9.02
-7.69
-6.23
-4.78
-3.43
-2.19
-1.07
-0.05
0.91
1.79
2.52
2.99
3.16
3.08
2.97
3.11
3.67
4.62
5.73
6.65
7.10
6.95
6.19
4.94
3.39
1.89
0.85
0.70
1.67
3.59
5.98
8.11
9.37
9.49
8.59
7.12
5.55
4.25
3.39
2.90
2.57
2.12
1.20
-0.36
-2.51
-4.86
-6.78
-7.61
-6.97
-4.95
-2.07
0.92
3.32
4.69
4.89
4.05
2.37
0.08
-2.62
-5.50
-8.32
-10.83
-12.88
-14.42
-15.54
-16.41
-17.16
-17.86
-18.42
-18.67
-18.38
-17.39
-15.76
-13.70
-11.58
-9.76
-8.47
-7.76
-7.54
-7.63
-7.83
-7.90
-7.52
-6.37
-4.25
-1.17
2.50
6.20
9.29
11.33
12.19
12.01
11.16
10.02
8.91
7.99
7.27
6.69
6.11
5.42
4.58
3.64
2.65
1.68
0.73
-0.26
-1.37
-2.62
-3.94
-5.20
-6.24
-7.00
-7.50
-7.88
-8.30
-8.91
-9.74
-10.78
-11.98
-13.27
-14.62
-15.97
-17.20
-18.11
-18.41
-17.88
-16.44
-14.26
-11.77
-9.57
-8.16
-7.73
-7.97
-8.18
-7.52
-5.36
-1.62
3.23
8.37
12.91
16.26
18.17
18.74
18.22
16.91
15.16
13.31
11.74
10.74
10.42
10.67
11.13
11.39
11.12
10.16
8.63
6.80
5.01
3.49
2.34
1.47
0.73
-0.04
-0.94
-1.92
-2.87
-3.66
-4.23
-4.60
-4.84
-5.04
-5.29
-5.61
-6.06
-6.65
-7.40
-8.30
-9.35
-10.49
-11.63
-12.65
-13.45
-13.97
-14.21
-14.29
-14.40
-14.73
-15.39
-16.35
-17.45
-18.45
-19.21
-19.63
-19.72
-19.48
-18.88
-17.88
-16.45
-14.68
-12.75
-10.90
-9.38
-8.27
-7.51
-6.91
-6.23
-5.29
-4.08
-2.68
-1.28
-0.05
0.91
1.55
1.82
1.69
1.20
0.45
-0.26
-0.57
-0.18
0.94
2.50
3.99
4.99
5.38
5.41
5.56
6.24
7.55
9.24
10.83
11.90
12.24
11.93
11.15
10.11
8.88
7.54
6.10
4.69
3.43
2.37
1.46
0.55
-0.52
-1.81
-3.26
-4.74
-6.13
-7.41
-8.58
-9.64
-10.48
-10.92
-10.80
-10.11
-8.97
-7.60
-6.18
-4.76
-3.21
-1.37
0.85
3.33
5.79
7.89
9.42
10.41
11.07
11.67
12.36
13.12
13.78
14.20
14.31
14.19
14.02
13.96
14.08
14.38
14.79
15.23
15.62
15.89
15.94
15.73
15.19
14.33
13.25
12.10
11.07
10.33
9.96
9.93
10.09
10.25
10.21
9.88
9.30
8.54
7.67
6.74
5.72
4.56
3.25
1.80
0.26
-1.32
-2.90
-4.47
-6.05
-7.65
-9.31
-11.03
-12.78
-14.53
-16.25
-17.96
-19.72
-21.57
-23.48
-25.21
-26.39
-26.62
-25.62
-23.35
-20.03
-16.08
-11.94
-7.97
-4.37
-1.21
1.50
3.80
5.71
7.26
8.49
9.45
10.20
10.84
11.43
12.03
12.68
13.37
14.07
14.71
15.22
15.56
15.71
15.69
15.54
15.32
15.07
14.80
14.46
14.00
13.32
12.42
11.36
10.27
9.32
8.61
8.14
7.79
7.37
6.75
5.87
4.80
3.66
2.55
1.55
0.63
-0.30
-1.33
-2.51
-3.85
-5.30
-6.78
-8.20
-9.52
-10.75
-11.94
-13.19
-14.56
-16.10
-17.76
-19.43
-20.86
-21.79
-21.93
-21.09
-19.25
-16.56
-13.28
-9.73
-6.18
-2.82
0.25
2.94
5.22
7.08
8.51
9.55
10.26
10.72
11.03
11.31
11.62
12.01
12.47
12.93
13.33
13.58
13.72
13.79
13.87
13.97
14.05
13.97
13.64
13.03
12.22
11.38
10.67
10.21
9.96
9.79
9.54
9.09
8.44
7.64
6.75
5.84
4.92
4.02
3.15
2.34
1.58
0.86
0.13
-0.69
-1.67
-2.83
-4.16
-5.57
-6.95
-8.18
-9.18
-10.00
-10.76
-11.71
-13.03
-14.78
-16.78
-18.69
-20.09
-20.62
-20.08
-18.50
-16.03
-12.94
-9.54
-6.14
-2.99
-0.25
2.04
3.90
5.41
6.63
7.57
8.28
8.79
9.19
9.55
9.93
10.33
10.69
10.99
11.24
11.51
11.86
12.32
12.80
13.17
13.32
13.17
12.77
12.16
11.42
10.64
9.86
9.18
8.64
8.27
7.98
7.65
7.15
6.44
5.61
4.82
4.23
3.91
3.77
3.68
3.48
3.09
2.48
1.70
0.78
-0.23
-1.25
-2.20
-2.99
-3.59
-4.04
-4.44
-4.91
-5.52
-6.30
-7.20
-8.14
-9.11
-10.10
-11.19
-12.38
-13.61
-14.66
-15.27
-15.18
-14.28
-12.68
-10.59
-8.32
-6.11
-4.08
-2.26
-0.62
0.84
2.07
2.99
3.57
3.80
3.77
3.64
3.57
3.71
4.12
4.74
5.46
6.12
6.58
6.75
6.57
6.05
5.28
4.41
3.68
3.28
3.28
3.62
4.11
4.52
4.66
4.48
4.04
3.44
2.77
2.08
1.37
0.68
0.03
-0.56
-1.09
-1.63
-2.24
-2.95
-3.73
-4.51
-5.18
-5.65
-5.93
-6.10
-6.30
-6.64
-7.21
-8.01
-8.98
-9.99
-10.86
-11.42
-11.55
-11.19
-10.39
-9.24
-7.88
-6.40
-4.87
-3.32
-1.81
-0.42
0.73
1.55
2.04
2.28
2.44
2.63
2.93
3.27
3.55
3.67
3.62
3.50
3.42
3.52
3.82
4.21
4.54
4.66
4.52
4.15
3.65
3.11
2.60
2.16
1.83
1.64
1.64
1.78
1.94
1.99
1.79
1.36
0.81
0.34
0.08
0.08
0.23
0.35
0.27
-0.10
-0.73
-1.50
-2.29
-2.98
-3.49
-3.84
-4.10
-4.36
-4.70
-5.16
-5.70
-6.29
-6.89
-7.50
-8.21
-9.06
-10.03
-11.00
-11.78
-12.16
-12.02
-11.35
-10.27
-8.94
-7.48
-5.99
-4.50
-3.07
-1.80
-0.83
-0.24
-0.00
0.01
0.05
0.29
0.80
1.52
2.29
2.93
3.39
3.66
3.81
3.89
3.89
3.81
3.68
3.52
3.40
3.31
3.22
3.05
2.80
2.48
2.20
2.06
2.09
2.25
2.45
2.59
2.62
2.50
2.21
1.76
1.18
0.54
-0.06
-0.52
-0.80
-0.93
-1.02
-1.19
-1.52
-2.00
-2.56
-3.12
-3.63
-4.09
-4.55
-5.02
-5.53
-6.07
-6.64
-7.21
-7.78
-8.27
-8.59
-8.60
-8.23
-7.46
-6.39
-5.13
-3.85
-2.65
-1.59
-0.69
0.05
0.62
1.07
1.44
1.81
2.22
2.65
3.03
3.27
3.34
3.27
3.19
3.20
3.40
3.73
4.11
4.39
4.50
4.43
4.30
4.21
4.22
4.31
4.35
4.21
3.85
3.29
2.66
2.10
1.69
1.43
1.25
1.08
0.87
0.61
0.30
-0.07
-0.53
-1.06
-1.65
-2.22
-2.71
-3.11
-3.45
-3.79
-4.18
-4.63
-5.13
-5.63
-6.11
-6.58
-7.09
-7.70
-8.39
-9.14
-9.87
-10.48
-10.88
-10.97
-10.70
-10.03
-9.00
-7.69
-6.25
-4.84
-3.58
-2.52
-1.67
-0.97
-0.34
0.28
0.96
1.72
2.52
3.27
3.88
4.26
4.42
4.47
4.54
4.72
5.01
5.32
5.52
5.54
5.41
5.25
5.16
5.17
5.23
5.22
5.04
4.66
4.17
3.71
3.42
3.37
3.48
3.61
3.61
3.39
2.99
2.55
2.17
1.92
1.71
1.39
0.88
0.17
-0.61
-1.34
-1.91
-2.36
-2.78
-3.28
-3.88
-4.48
-4.99
-5.33
-5.54
-5.77
-6.17
-6.85
-7.80
-8.89
-9.90
-10.65
-11.00
-10.92
-10.43
-9.57
-8.40
-6.97
-5.39
-3.78
-2.30
-1.09
-0.22
0.38
0.83
1.30
1.87
2.54
3.17
3.65
3.89
3.92
3.85
3.85
4.02
4.40
4.96
5.55
6.05
6.36
6.44
6.31
6.03
5.68
5.30
4.97
4.73
4.65
4.71
4.85
4.95
4.88
4.57
4.07
3.46
2.84
2.25
1.68
1.09
0.48
-0.10
-0.57
-0.89
-1.10
-1.29
-1.55
-1.96
-2.54
-3.20
-3.86
-4.43
-4.87
-5.22
-5.57
-6.05
-6.74
-7.62
-8.60
-9.52
-10.18
-10.45
-10.26
-9.57
-8.46
-7.02
-5.39
-3.74
-2.21
-0.88
0.18
0.99
1.58
2.00
2.30
2.53
2.74
2.98
3.29
3.71
4.23
4.84
5.46
6.02
6.41
6.59
6.57
6.43
6.25
6.11
6.03
5.97
5.90
5.78
5.61
5.39
5.18
5.01
4.89
4.83
4.78
4.69
4.51
4.19
3.73
3.17
2.55
1.92
1.33
0.81
0.33
-0.13
-0.62
-1.15
-1.73
-2.30
-2.81
-3.25
-3.64
-4.05
-4.56
-5.22
-6.03
-6.97
-7.94
-8.88
-9.67
-10.19
-10.31
-9.94
-9.06
-7.78
-6.30
-4.83
-3.53
-2.47
-1.60
-0.80
0.01
0.84
1.62
2.29
2.77
3.09
3.30
3.48
3.70
3.99
4.34
4.73
5.12
5.47
5.72
5.85
5.88
5.83
5.74
5.64
5.53
5.42
5.32
5.26
5.25
5.26
5.18
4.93
4.42
3.69
2.86
2.09
1.51
1.17
1.00
0.89
0.74
0.45
0.02
-0.56
-1.25
-1.98
-2.67
-3.22
-3.56
-3.72
-3.85
-4.19
-4.90
-6.05
-7.47
-8.85
-9.82
-10.17
-9.85
-8.98
-7.79
-6.47
-5.15
-3.89
-2.72
-1.67
-0.76
0.01
0.68
1.33
2.03
2.75
3.39
3.86
4.08
4.12
4.07
4.12
4.34
4.75
5.27
5.79
6.23
6.57
6.81
6.97
7.08
7.13
7.10
6.98
6.77
6.49
6.18
5.88
5.61
5.38
5.13
4.83
4.46
4.03
3.60
3.21
2.90
2.63
2.39
2.18
2.01
1.93
1.92
1.92
1.85
1.62
1.21
0.66
0.06
-0.50
-0.99
-1.40
-1.77
-2.11
-2.44
-2.78
-3.12
-3.46
-3.84
-4.29
-4.87
-5.59
-6.47
-7.42
-8.34
-9.11
-9.60
-9.74
-9.50
-8.86
-7.84
-6.49
-4.90
-3.22
-1.66
-0.39
0.50
1.03
1.29
1.39
1.45
1.52
1.67
1.95
2.39
2.99
3.67
4.31
4.79
5.03
5.07
4.96
4.78
4.60
4.40
4.19
3.98
3.79
3.65
3.55
3.44
3.28
3.03
2.72
2.39
2.08
1.82
1.61
1.43
1.26
1.07
0.85
0.57
0.25
-0.12
-0.53
-0.97
-1.42
-1.89
-2.36
-2.86
-3.41
-4.04
-4.76
-5.53
-6.24
-6.74
-6.88
-6.58
-5.87
-4.86
-3.75
-2.73
-1.88
-1.22
-0.67
-0.15
0.42
1.04
1.64
2.12
2.42
2.58
2.68
2.85
3.10
3.39
3.61
3.68
3.61
3.50
3.45
3.50
3.60
3.65
3.55
3.29
2.93
2.59
2.36
2.27
2.27
2.27
2.21
2.05
1.81
1.56
1.36
1.26
1.23
1.20
1.06
0.76
0.28
-0.29
-0.86
-1.32
-1.63
-1.82
-1.95
-2.07
-2.21
-2.38
-2.58
-2.86
-3.26
-3.82
-4.52
-5.28
-5.93
-6.36
-6.53
-6.48
-6.33
-6.17
-6.01
-5.79
-5.38
-4.74
-3.84
-2.77
-1.63
-0.51
0.55
1.50
2.33
2.99
3.42
3.59
3.55
3.40
3.26
3.22
3.34
3.57
3.81
3.98
3.98
3.80
3.50
3.14
2.80
2.51
2.25
1.97
1.65
1.33
1.05
0.90
0.90
1.00
1.09
1.07
0.84
0.44
-0.07
-0.55
-0.94
-1.21
-1.38
-1.52
-1.64
-1.76
-1.87
-1.98
-2.13
-2.34
-2.62
-2.95
-3.25
-3.49
-3.67
-3.86
-4.14
-4.60
-5.21
-5.92
-6.58
-7.06
-7.24
-7.04
-6.47
-5.64
-4.67
-3.73
-2.88
-2.14
-1.44
-0.74
-0.04
0.58
1.04
1.31
1.45
1.58
1.82
2.22
2.75
3.30
3.80
4.21
4.55
4.84
5.06
5.18
5.18
5.04
4.79
4.51
4.25
4.04
3.88
3.75
3.65
3.56
3.49
3.43
3.38
3.28
3.12
2.88
2.57
2.23
1.92
1.62
1.30
0.92
0.42
-0.20
-0.89
-1.58
-2.19
-2.75
-3.27
-3.79
-4.27
-4.62
-4.73
-4.52
-4.02
-3.30
-2.51
-1.74
-1.02
-0.33
0.34
0.98
1.54
2.02
2.42
2.79
3.17
3.53
3.80
3.92
3.85
3.68
3.51
3.44
3.53
3.71
3.90
3.99
3.94
3.75
3.43
3.01
2.56
2.12
1.75
1.50
1.32
1.13
0.85
0.45
-0.01
-0.44
-0.71
-0.76
-0.63
-0.43
-0.29
-0.35
-0.67
-1.27
-2.06
-2.90
-3.64
-4.17
-4.42
-4.42
-4.30
-4.18
-4.22
-4.48
-4.98
-5.69
-6.51
-7.31
-7.98
-8.45
-8.70
-8.78
-8.74
-8.66
-8.55
-8.37
-8.06
-7.57
-6.87
-5.98
-4.97
-3.94
-2.96
-2.08
-1.27
-0.52
0.21
0.89
1.45
1.81
1.96
1.94
1.89
1.95
2.22
2.71
3.32
3.90
4.33
4.54
4.51
4.30
3.94
3.49
3.03
2.68
2.54
2.66
2.97
3.30
3.43
3.20
2.64
1.90
1.26
0.91
0.90
1.11
1.35
1.43
1.31
1.03
0.71
0.42
0.17
-0.14
-0.63
-1.32
-2.19
-3.09
-3.83
-4.30
-4.40
-4.15
-3.58
-2.80
-1.91
-1.01
-0.15
0.63
1.33
1.98
2.59
3.14
3.61
3.96
4.19
4.35
4.46
4.54
4.60
4.65
4.71
4.78
4.86
4.93
4.93
4.82
4.58
4.25
3.89
3.59
3.41
3.33
3.31
3.26
3.12
2.86
2.50
2.14
1.90
1.83
1.92
2.10
2.21
2.18
1.97
1.63
1.27
0.98
0.73
0.47
0.10
-0.41
-1.00
-1.58
-2.04
-2.37
-2.60
-2.84
-3.19
-3.67
-4.29
-4.98
-5.69
-6.35
-6.93
-7.39
-7.73
-7.99
-8.22
-8.48
-8.78
-9.09
-9.33
-9.39
-9.20
-8.75
-8.08
-7.27
-6.40
-5.53
-4.70
-3.91
-3.15
-2.42
-1.72
-1.07
-0.50
0.00
0.44
0.83
1.19
1.52
1.82
2.12
2.40
2.66
2.83
2.85
2.69
2.36
1.94
1.57
1.38
1.42
1.61
1.84
1.96
1.88
1.63
1.31
1.04
0.90
0.91
1.01
1.14
1.26
1.33
1.34
1.27
1.09
0.80
0.43
0.06
-0.24
-0.44
-0.57
-0.71
-0.95
-1.36
-1.91
-2.53
-3.14
-3.65
-4.02
-4.24
-4.30
-4.21
-3.93
-3.45
-2.79
-2.00
-1.12
-0.21
0.70
1.61
2.48
3.27
3.92
4.40
4.68
4.79
4.77
4.65
4.46
4.22
3.96
3.75
3.66
3.70
3.82
3.92
3.88
3.62
3.19
2.69
2.25
1.93
1.70
1.43
0.97
0.25
-0.68
-1.65
-2.41
-2.81
-2.84
-2.62
-2.37
-2.28
-2.40
-2.66
-2.91
-3.02
-2.93
-2.67
-2.32
-1.95
-1.59
-1.27
-1.02
-0.92
-1.02
-1.32
-1.67
-1.90
-1.81
-1.33
-0.52
0.47
1.52
2.55
3.56
4.64
5.79
6.97
8.02
8.75
9.00
8.70
7.89
6.71
5.32
3.90
2.60
1.52
0.75
0.28
0.07
0.03
0.03
-0.00
-0.09
-0.21
-0.34
-0.47
-0.62
-0.80
-0.97
-1.08
-1.07
-1.00
-0.97
-1.12
-1.48
-1.93
-2.25
-2.23
-1.83
-1.19
-0.62
-0.38
-0.58
-1.12
-1.79
-2.35
-2.65
-2.70
-2.58
-2.39
-2.24
-2.21
-2.38
-2.84
-3.67
-4.83
-6.16
-7.41
-8.33
-8.75
-8.72
-8.45
-8.23
-8.28
-8.70
-9.37
-10.10
-10.71
-11.11
-11.29
-11.26
-11.00
-10.46
-9.59
-8.43
-7.13
-5.88
-4.87
-4.11
-3.45
-2.65
-1.48
0.12
2.05
4.10
6.08
7.86
9.44
10.83
12.03
12.94
13.44
13.41
12.90
12.03
11.02
10.06
9.23
8.50
7.74
6.83
5.77
4.65
3.67
2.97
2.58
2.40
2.24
1.94
1.43
0.82
0.26
-0.13
-0.31
-0.39
-0.50
-0.76
-1.20
-1.79
-2.47
-3.19
-3.88
-4.51
-5.04
-5.44
-5.71
-5.89
-6.04
-6.23
-6.51
-6.86
-7.20
-7.38
-7.26
-6.76
-5.89
-4.78
-3.62
-2.51
-1.46
-0.38
0.83
2.18
3.53
4.68
5.43
5.74
5.70
5.52
5.39
5.42
5.61
5.87
6.08
6.15
6.06
5.85
5.58
5.35
5.19
5.06
4.89
4.60
4.21
3.79
3.46
3.28
3.24
3.22
3.08
2.74
2.22
1.59
0.97
0.41
-0.04
-0.39
-0.66
-0.89
-1.08
-1.27
-1.51
-1.82
-2.23
-2.71
-3.26
-3.84
-4.42
-4.99
-5.50
-5.93
-6.29
-6.57
-6.84
-7.15
-7.57
-8.13
-8.78
-9.41
-9.83
-9.86
-9.39
-8.44
-7.15
-5.73
-4.38
-3.23
-2.26
-1.42
-0.59
0.22
1.00
1.66
2.18
2.55
2.86
3.19
3.54
3.88
4.09
4.08
3.84
3.50
3.21
3.10
3.22
3.48
3.72
3.82
3.74
3.53
3.29
3.07
2.88
2.64
2.29
1.79
1.20
0.61
0.12
-0.21
-0.39
-0.47
-0.49
-0.48
-0.45
-0.43
-0.52
-0.81
-1.35
-2.11
-2.97
-3.72
-4.24
-4.46
-4.47
-4.44
-4.52
-4.81
-5.30
-5.89
-6.45
-6.83
-6.94
-6.75
-6.27
-5.54
-4.59
-3.45
-2.12
-0.62
0.97
2.51
3.82
4.79
5.40
5.76
6.02
6.37
6.85
7.43
8.00
8.46
8.74
8.85
8.84
8.78
8.70
8.60
8.51
8.41
8.29
8.16
7.98
7.74
7.43
7.05
6.61
6.08
5.48
4.82
4.16
3.58
3.10
2.69
2.29
1.84
1.31
0.76
0.26
-0.09
-0.31
-0.47
-0.72
-1.18
-1.88
-2.77
-3.73
-4.63
-5.40
-5.98
-6.40
-6.68
-6.87
-7.04
-7.25
-7.51
-7.83
-8.13
-8.30
-8.23
-7.83
-7.06
-5.98
-4.67
-3.29
-1.96
-0.77
0.28
1.21
2.10
2.94
3.71
4.32
4.70
4.86
4.87
4.84
4.85
4.91
4.96
4.94
4.83
4.69
4.62
4.71
4.97
5.33
5.65
5.78
5.65
5.25
4.65
4.00
3.40
2.95
2.70
2.62
2.65
2.67
2.55
2.24
1.71
1.04
0.36
-0.18
-0.47
-0.52
-0.41
-0.33
-0.42
-0.76
-1.34
-2.05
-2.77
-3.41
-3.98
-4.54
-5.17
-5.90
-6.70
-7.50
-8.24
-8.92
-9.58
-10.26
-10.94
-11.52
-11.89
-11.97
-11.75
-11.30
-10.69
-9.93
-8.98
-7.79
-6.37
-4.84
-3.40
-2.25
-1.46
-1.01
-0.76
-0.56
-0.33
-0.06
0.21
0.47
0.76
1.13
1.57
2.05
2.46
2.72
2.79
2.72
2.59
2.47
2.38
2.29
2.13
1.90
1.68
1.56
1.63
1.87
2.22
2.53
2.67
2.60
2.30
1.85
1.31
0.77
0.32
0.02
-0.08
-0.02
0.12
0.18
0.05
-0.34
-0.93
-1.66
-2.42
-3.12
-3.73
-4.20
-4.48
-4.57
-4.43
-4.11
-3.65
-3.09
-2.41
-1.58
-0.59
0.54
1.70
2.76
3.59
4.12
4.39
4.49
4.55
4.65
4.77
4.82
4.71
4.40
4.00
3.68
3.61
3.81
4.20
4.57
4.76
4.78
4.78
4.92
5.28
5.73
6.02
5.94
5.46
4.74
4.06
3.60
3.38
3.29
3.16
2.91
2.58
2.26
2.00
1.77
1.46
0.97
0.32
-0.37
-0.95
-1.35
-1.61
-1.87
-2.30
-2.93
-3.70
-4.47
-5.15
-5.73
-6.25
-6.80
-7.39
-7.95
-8.36
-8.57
-8.55
-8.33
-7.94
-7.38
-6.64
-5.71
-4.67
-3.59
-2.55
-1.60
-0.71
0.15
1.01
1.79
2.37
2.65
2.61
2.32
1.95
1.66
1.56
1.72
2.13
2.72
3.37
3.94
4.27
4.29
4.01
3.51
2.97
2.48
2.14
1.94
1.85
1.82
1.80
1.72
1.49
1.06
0.45
-0.22
-0.76
-1.06
-1.11
-1.06
-1.10
-1.40
-1.98
-2.73
-3.47
-4.05
-4.39
-4.52
-4.54
-4.57
-4.69
-4.94
-5.30
-5.72
-6.13
-6.49
-6.76
-6.96
-7.16
-7.44
-7.82
-8.25
-8.64
-8.81
-8.66
-8.13
-7.29
-6.25
-5.15
-4.04
-2.93
-1.77
-0.55
0.69
1.85
2.82
3.51
3.95
4.22
4.47
4.83
5.36
6.02
6.72
7.36
7.87
8.21
8.39
8.41
8.23
7.86
7.33
6.73
6.20
5.84
5.68
5.70
5.82
5.95
6.03
6.03
5.93
5.72
5.41
5.01
4.53
4.00
3.45
2.87
2.24
1.56
0.86
0.20
-0.36
-0.79
-1.12
-1.41
-1.77
-2.27
-2.96
-3.78
-4.67
-5.57
-6.46
-7.32
-8.14
-8.84
-9.31
-9.42
-9.10
-8.38
-7.40
-6.32
-5.28
-4.32
-3.40
-2.42
-1.32
-0.12
1.07
2.11
2.88
3.34
3.58
3.73
3.92
4.23
4.60
4.98
5.25
5.37
5.39
5.40
5.50
5.74
6.06
6.34
6.42
6.22
5.73
5.08
4.43
3.93
3.67
3.65
3.79
3.97
4.07
4.04
3.83
3.46
2.97
2.40
1.83
1.32
0.91
0.64
0.49
0.37
0.19
-0.14
-0.66
-1.30
-1.99
-2.63
-3.20
-3.74
-4.34
-5.03
-5.81
-6.61
-7.35
-7.99
-8.53
-9.05
-9.60
-10.24
-10.97
-11.74
-12.43
-12.91
-13.05
-12.77
-12.06
-11.00
-9.66
-8.12
-6.44
-4.70
-3.00
-1.48
-0.29
0.49
0.87
0.98
0.98
1.06
1.33
1.80
2.44
3.14
3.79
4.31
4.67
4.90
5.10
5.33
5.60
5.82
5.88
5.65
5.12
4.33
3.44
2.60
1.95
1.55
1.35
1.28
1.25
1.19
1.08
0.98
0.92
0.88
0.81
0.61
0.23
-0.28
-0.77
-1.09
-1.17
-1.10
-1.07
-1.24
-1.67
-2.26
-2.84
-3.30
-3.65
-3.99
-4.46
-5.07
-5.76
-6.39
-6.85
-7.12
-7.25
-7.28
-7.17
-6.82
-6.10
-5.01
-3.70
-2.43
-1.46
-0.96
-0.92
-1.18
-1.49
-1.63
-1.43
-0.84
0.13
1.39
2.82
4.27
5.60
6.72
7.61
8.30
8.83
9.27
9.62
9.89
10.07
10.16
10.16
10.11
10.03
9.92
9.81
9.68
9.51
9.30
9.03
8.70
8.33
7.97
7.67
7.46
7.30
7.12
6.80
6.29
5.57
4.74
3.95
3.35
3.00
2.88
2.89
2.90
2.84
2.65
2.31
1.82
1.18
0.42
-0.41
-1.26
-2.04
-2.73
-3.33
-3.87
-4.42
-5.06
-5.80
-6.64
-7.54
-8.39
-9.12
-9.71
-10.18
-10.62
-11.06
-11.47
-11.71
-11.62
-11.10
-10.09
-8.63
-6.79
-4.66
-2.38
-0.11
1.88
3.39
4.28
4.62
4.59
4.43
4.33
4.38
4.54
4.77
5.04
5.33
5.62
5.90
6.07
6.12
6.02
5.84
5.65
5.50
5.40
5.33
5.23
5.08
4.84
4.51
4.08
3.58
3.04
2.53
2.07
1.66
1.29
0.94
0.59
0.28
0.01
-0.22
-0.43
-0.70
-1.07
-1.52
-1.99
-2.41
-2.70
-2.88
-3.04
-3.30
-3.75
-4.41
-5.18
-5.91
-6.46
-6.82
-7.08
-7.38
-7.86
-8.58
-9.49
-10.51
-11.53
-12.43
-13.08
-13.34
-13.05
-12.13
-10.62
-8.67
-6.52
-4.40
-2.44
-0.73
0.73
1.95
2.93
3.65
4.15
4.50
4.76
5.02
5.32
5.66
6.04
6.44
6.85
7.24
7.58
7.81
7.89
7.79
7.57
7.27
6.99
6.76
6.59
6.45
6.26
6.02
5.73
5.46
5.22
5.00
4.74
4.37
3.86
3.25
2.65
2.17
1.83
1.57
1.24
0.72
-0.04
-0.95
-1.84
-2.54
-2.98
-3.20
-3.31
-3.45
-3.72
-4.19
-4.86
-5.70
-6.62
-7.53
-8.28
-8.74
-8.81
-8.42
-7.58
-6.34
-4.78
-3.04
-1.28
0.38
1.81
2.94
3.78
4.35
4.72
4.91
4.97
4.92
4.83
4.76
4.76
4.87
5.07
5.32
5.56
5.76
5.87
5.86
5.72
5.41
4.93
4.34
3.68
3.07
2.59
2.29
2.17
2.17
2.19
2.13
1.93
1.59
1.14
0.63
0.08
-0.47
-1.00
-1.44
-1.70
-1.77
-1.69
-1.60
-1.69
-2.04
-2.65
-3.40
-4.12
-4.72
-5.18
-5.54
-5.83
-6.05
-6.22
-6.40
-6.68
-7.17
-7.92
-8.84
-9.77
-10.48
-10.82
-10.69
-10.11
-9.14
-7.90
-6.52
-5.07
-3.60
-2.17
-0.83
0.32
1.18
1.72
1.99
2.11
2.24
2.50
2.86
3.25
3.54
3.68
3.66
3.53
3.36
3.18
3.03
2.92
2.86
2.88
2.97
3.10
3.18
3.15
2.95
2.58
2.11
1.60
1.17
0.87
0.74
0.73
0.75
0.72
0.56
0.27
-0.11
-0.52
-0.90
-1.26
-1.62
-1.99
-2.32
-2.53
-2.59
-2.50
-2.36
-2.32
-2.46
-2.81
-3.30
-3.84
-4.35
-4.81
-5.20
-5.50
-5.66
-5.64
-5.42
-5.01
-4.40
-3.58
-2.50
-1.19
0.23
1.57
2.66
3.44
3.95
4.36
4.82
5.38
5.99
6.53
6.91
7.13
7.31
7.53
7.83
8.16
8.43
8.54
8.48
8.31
8.10
7.92
7.76
7.58
7.27
6.79
6.14
5.39
4.65
3.98
3.43
2.99
2.62
2.29
2.00
1.76
1.55
1.35
1.11
0.76
0.33
-0.17
-0.65
-1.06
-1.40
-1.72
-2.11
-2.64
-3.32
-4.09
-4.87
-5.58
-6.14
-6.58
-6.94
-7.33
-7.84
-8.54
-9.40
-10.33
-11.16
-11.69
-11.74
-11.23
-10.20
-8.75
-7.08
-5.32
-3.61
-2.02
-0.58
0.67
1.71
2.55
3.20
3.73
4.17
4.56
4.90
5.14
5.25
5.22
5.03
4.71
4.28
3.80
3.35
3.00
2.82
2.83
2.97
3.13
3.18
3.05
2.74
2.33
1.93
1.60
1.33
1.03
0.61
0.01
-0.73
-1.51
-2.23
-2.81
-3.25
-3.60
-3.88
-4.09
-4.19
-4.14
-3.95
-3.68
-3.45
-3.36
-3.48
-3.84
-4.41
-5.12
-5.89
-6.64
-7.29
-7.83
-8.28
-8.67
-9.04
-9.40
-9.72
-9.96
-10.08
-10.05
-9.84
-9.42
-8.69
-7.56
-6.00
-4.08
-1.98
0.07
1.90
3.42
4.63
5.57
6.26
6.70
6.93
7.02
7.09
7.27
7.60
8.03
8.46
8.80
9.02
9.17
9.32
9.53
9.75
9.91
9.92
9.74
9.39
8.89
8.32
7.73
7.13
6.54
5.95
5.33
4.68
4.01
3.34
2.73
2.18
1.67
1.13
0.49
-0.28
-1.12
-1.94
-2.63
-3.15
-3.58
-4.03
-4.68
-5.59
-6.69
-7.79
-8.62
-8.97
-8.73
-7.93
-6.72
-5.31
-3.88
-2.57
-1.41
-0.37
0.62
1.63
2.70
3.77
4.76
5.59
6.21
6.64
6.90
7.01
7.01
6.89
6.73
6.62
6.64
6.85
7.17
7.48
7.61
7.44
6.95
6.22
5.38
4.56
3.86
3.34
3.02
2.88
2.84
2.77
2.58
2.18
1.60
0.94
0.32
-0.12
-0.35
-0.43
-0.48
-0.65
-1.02
-1.60
-2.36
-3.22
-4.07
-4.87
-5.56
-6.13
-6.59
-6.99
-7.41
-7.94
-8.68
-9.63
-10.70
-11.71
-12.40
-12.56
-12.06
-10.93
-9.35
-7.53
-5.69
-3.97
-2.45
-1.19
-0.21
0.46
0.87
1.10
1.29
1.58
2.03
2.64
3.33
3.98
4.50
4.83
5.01
5.09
5.14
5.16
5.14
5.02
4.78
4.47
4.22
4.10
4.13
4.19
4.08
3.65
2.87
1.89
0.91
0.13
-0.39
-0.69
-0.87
-0.99
-1.04
-1.00
-0.89
-0.79
-0.87
-1.24
-1.96
-2.93
-4.01
-5.01
-5.80
-6.36
-6.74
-7.04
-7.40
-7.88
-8.48
-9.08
-9.50
-9.57
-9.19
-8.36
-7.18
-5.78
-4.28
-2.77
-1.32
-0.02
1.09
1.98
2.66
3.21
3.74
4.30
4.91
5.55
6.13
6.56
6.78
6.79
6.66
6.52
6.47
6.53
6.65
6.77
6.83
6.85
6.89
6.98
7.03
6.91
6.46
5.67
4.66
3.67
2.90
2.40
2.08
1.78
1.41
0.97
0.56
0.25
0.04
-0.20
-0.63
-1.35
-2.34
-3.45
-4.47
-5.24
-5.72
-6.02
-6.30
-6.72
-7.35
-8.16
-9.02
-9.85
-10.59
-11.22
-11.78
-12.23
-12.45
-12.31
-11.68
-10.52
-8.95
-7.17
-5.47
-4.06
-3.06
-2.42
-1.95
-1.46
-0.82
-0.05
0.73
1.35
1.71
1.83
1.82
1.81
1.86
1.96
2.05
2.09
2.12
2.23
2.51
2.97
3.52
4.04
4.38
4.48
4.33
3.99
3.56
3.12
2.72
2.42
2.23
2.16
2.16
2.20
2.22
2.19
2.05
1.78
1.34
0.75
0.03
-0.74
-1.48
-2.12
-2.64
-3.05
-3.38
-3.62
-3.74
-3.66
-3.28
-2.57
-1.54
-0.34
0.89
2.01
2.93
3.65
4.20
4.65
5.02
5.29
5.44
5.47
5.40
5.27
5.12
4.94
4.68
4.28
3.76
3.17
2.62
2.19
1.88
1.64
1.39
1.07
0.68
0.26
-0.12
-0.46
-0.79
-1.19
-1.69
-2.28
-2.86
-3.33
-3.67
-3.93
-4.16
-4.33
-4.27
-3.71
-2.43
-0.39
2.17
4.84
7.26
9.21
10.66
11.69
12.30
12.35
11.62
9.98
7.54
4.68
1.89
-0.42
-2.05
-3.06
-3.60
-3.84
-3.83
-3.55
-2.97
-2.16
-1.29
-0.57
-0.19
-0.21
-0.55
-1.01
-1.41
-1.61
-1.57
-1.35
-1.02
-0.71
-0.49
-0.43
-0.52
-0.71
-0.92
-1.09
-1.19
-1.22
-1.25
-1.31
-1.40
-1.48
-1.51
-1.48
-1.40
-1.32
-1.30
-1.38
-1.59
-1.93
-2.38
-2.92
-3.50
-4.06
-4.53
-4.83
-4.92
-4.82
-4.62
-4.46
-4.48
-4.77
-5.32
-6.04
-6.76
-7.36
-7.76
-7.97
-8.06
-8.08
-8.02
-7.83
-7.43
-6.77
-5.84
-4.74
-3.54
-2.36
-1.25
-0.23
0.67
1.46
2.12
2.66
3.10
3.48
3.84
4.21
4.54
4.84
5.08
5.28
5.48
5.70
5.94
6.15
6.28
6.30
6.25
6.19
6.15
6.15
6.11
5.97
5.68
5.26
4.78
4.33
3.98
3.70
3.45
3.17
2.80
2.35
1.84
1.32
0.82
0.38
-0.02
-0.43
-0.94
-1.58
-2.36
-3.20
-3.99
-4.66
-5.18
-5.58
-5.86
-6.01
-5.95
-5.58
-4.88
-3.91
-2.80
-1.67
-0.61
0.36
1.22
1.94
2.50
2.89
3.13
3.32
3.53
3.79
4.07
4.29
4.40
4.40
4.35
4.32
4.34
4.41
4.44
4.35
4.09
3.70
3.25
2.82
2.48
2.23
2.06
1.92
1.78
1.60
1.32
0.90
0.33
-0.34
-1.04
-1.66
-2.11
-2.36
-2.45
-2.46
-2.49
-2.60
-2.80
-3.06
-3.32
-3.58
-3.84
-4.16
-4.63
-5.29
-6.14
-7.12
-8.11
-9.01
-9.75
-10.30
-10.63
-10.72
-10.51
-9.98
-9.13
-8.00
-6.69
-5.30
-3.94
-2.72
-1.72
-0.98
-0.47
-0.14
0.12
0.43
0.84
1.36
1.92
2.43
2.76
2.88
2.82
2.66
2.55
2.57
2.71
2.87
2.92
2.74
2.34
1.83
1.39
1.16
1.20
1.40
1.60
1.63
1.40
0.94
0.37
-0.20
-0.69
-1.09
-1.41
-1.67
-1.82
-1.84
-1.74
-1.59
-1.49
-1.54
-1.74
-2.05
-2.37
-2.65
-2.88
-3.12
-3.42
-3.83
-4.29
-4.73
-5.01
-4.97
-4.49
-3.49
-2.03
-0.24
1.65
3.40
4.85
5.96
6.77
7.36
7.80
8.10
8.29
8.39
8.44
8.48
8.54
8.64
8.77
8.92
9.05
9.15
9.17
9.06
8.80
8.36
7.77
7.04
6.24
5.42
4.64
3.97
3.46
3.09
2.82
2.55
2.17
1.59
0.80
-0.18
-1.25
-2.30
-3.23
-3.96
-4.48
-4.84
-5.16
-5.53
-6.02
-6.63
-7.31
-7.95
-8.46
-8.80
-8.92
-8.78
-8.32
-7.47
-6.21
-4.63
-2.89
-1.19
0.32
1.60
2.69
3.67
4.51
5.15
5.52
5.58
5.46
5.29
5.24
5.34
5.55
5.73
5.82
5.80
5.76
5.79
5.95
6.21
6.46
6.54
6.36
5.90
5.21
4.37
3.51
2.71
2.07
1.63
1.40
1.34
1.29
1.13
0.77
0.23
-0.37
-0.92
-1.38
-1.81
-2.33
-3.01
-3.82
-4.64
-5.34
-5.87
-6.28
-6.69
-7.17
-7.73
-8.34
-8.95
-9.57
-10.24
-10.97
-11.72
-12.32
-12.58
-12.32
-11.48
-10.12
-8.42
-6.60
-4.82
-3.21
-1.81
-0.63
0.31
1.04
1.56
1.92
2.21
2.53
2.95
3.50
4.10
4.63
4.99
5.11
5.03
4.84
4.63
4.48
4.41
4.39
4.38
4.36
4.34
4.30
4.21
4.06
3.81
3.48
3.09
2.69
2.33
2.00
1.72
1.46
1.21
0.93
0.61
0.22
-0.25
-0.76
-1.24
-1.57
-1.71
-1.64
-1.44
-1.23
-1.13
-1.20
-1.44
-1.81
-2.27
-2.83
-3.52
-4.35
-5.22
-5.95
-6.32
-6.16
-5.45
-4.30
-2.94
-1.57
-0.30
0.90
2.11
3.42
4.80
6.13
7.22
7.92
8.16
7.99
7.56
7.07
6.69
6.52
6.59
6.83
7.12
7.37
7.49
7.47
7.36
7.22
7.11
7.04
6.94
6.75
6.37
5.80
5.10
4.34
3.62
2.97
2.41
1.92
1.49
1.13
0.83
0.56
0.28
-0.07
-0.52
-1.06
-1.62
-2.12
-2.51
-2.76
-2.91
-3.06
-3.31
-3.73
-4.35
-5.08
-5.85
-6.56
-7.18
-7.75
-8.32
-8.91
-9.48
-9.90
-9.99
-9.63
-8.76
-7.43
-5.79
-4.01
-2.28
-0.68
0.75
2.03
3.17
4.16
4.91
5.37
5.51
5.42
5.19
4.97
4.84
4.83
4.89
4.97
5.00
4.94
4.79
4.56
4.29
4.02
3.81
3.72
3.74
3.84
3.93
3.91
3.68
3.16
2.39
1.42
0.40
-0.49
-1.10
-1.37
-1.35
-1.23
-1.22
-1.45
-1.96
-2.62
-3.29
-3.83
-4.26
-4.60
-4.93
-5.20
-5.38
-5.43
-5.41
-5.47
-5.74
-6.31
-7.11
-8.03
-8.94
-9.78
-10.53
-11.21
-11.75
-12.04
-11.96
-11.45
-10.53
-9.28
-7.82
-6.29
-4.82
-3.54
-2.50
-1.71
-1.07
-0.41
0.37
1.30
2.26
3.04
3.49
3.58
3.38
3.08
2.84
2.75
2.82
3.01
3.26
3.53
3.78
4.00
4.19
4.37
4.51
4.59
4.55
4.35
3.99
3.49
2.97
2.52
2.24
2.17
2.28
2.52
2.77
2.89
2.75
2.27
1.46
0.45
-0.55
-1.37
-1.97
-2.46
-3.04
-3.87
-4.98
-6.24
-7.39
-8.24
-8.68
-8.80
-8.79
-8.80
-8.90
-8.99
-8.85
-8.30
-7.19
-5.52
-3.37
-0.89
1.77
4.36
6.57
8.06
8.66
8.57
8.35
8.78
10.38
13.14
16.40
19.18
20.66
20.56
19.21
17.24
15.21
13.27
11.24
8.82
5.93
2.80
-0.16
-2.58
-4.33
-5.53
-6.48
-7.40
-8.38
-9.33
-10.08
-10.57
-10.94
-11.48
-12.57
-14.37
-16.70
-19.04
-20.68
-21.03
-19.89
-17.57
-14.83
-12.51
-11.30
-11.36
-12.36
-13.62
-14.40
-14.18
-12.84
-10.54
-7.58
-4.22
-0.54
3.44
7.69
11.98
16.01
19.41
22.00
23.76
24.86
25.50
25.74
25.47
24.45
22.51
19.75
16.56
13.52
11.14
9.66
8.91
8.46
7.82
6.69
5.08
3.20
1.37
-0.19
-1.45
-2.58
-3.79
-5.25
-7.01
-9.02
-11.11
-13.02
-14.37
-14.76
-13.78
-11.22
-7.19
-2.19
2.88
7.02
9.43
9.77
8.28
5.74
3.13
1.30
0.74
1.38
2.71
4.04
4.75
4.59
3.68
2.39
1.16
0.28
-0.11
-0.01
0.55
1.51
2.73
3.99
4.94
5.28
4.85
3.74
2.26
0.78
-0.41
-1.15
-1.45
-1.35
-0.96
-0.34
0.40
1.14
1.77
2.22
2.49
2.66
2.80
2.93
3.06
3.16
3.18
3.08
2.82
2.34
1.63
0.71
-0.35
-1.41
-2.38
-3.17
-3.76
-4.18
-4.43
-4.49
-4.36
-4.02
-3.56
-3.12
-2.84
-2.85
-3.19
-3.79
-4.52
-5.24
-5.84
-6.26
-6.53
-6.68
-6.76
-6.81
-6.79
-6.65
-6.34
-5.88
-5.34
-4.86
-4.53
-4.40
-4.44
-4.58
-4.75
-4.95
-5.16
-5.38
-5.58
-5.68
-5.62
-5.30
-4.67
-3.64
-2.16
-0.20
2.15
4.68
7.07
8.99
10.21
10.67
10.47
9.82
8.99
8.18
7.51
7.01
6.59
6.09
5.32
4.16
2.61
0.87
-0.76
-1.94
-2.49
-2.44
-2.04
-1.67
-1.62
-2.01
-2.74
-3.59
-4.35
-4.92
-5.36
-5.77
-6.29
-6.93
-7.61
-8.21
-8.59
-8.68
-8.46
-7.93
-7.15
-6.13
-4.90
-3.48
-1.95
-0.47
0.81
1.68
2.05
1.92
1.39
0.65
-0.15
-0.90
-1.60
-2.28
-3.02
-3.78
-4.50
-5.06
-5.35
-5.39
-5.28
-5.19
-5.25
-5.49
-5.78
-5.91
-5.71
-5.10
-4.15
-3.02
-1.93
-1.08
-0.60
-0.54
-0.92
-1.63
-2.55
-3.44
-4.06
-4.23
-3.88
-3.06
-1.94
-0.75
0.27
1.02
1.59
2.21
3.06
4.14
5.34
6.46
7.35
8.04
8.66
9.63
11.22
13.49
16.13
18.80
21.18
23.00
23.90
23.41
21.37
17.84
13.04
7.35
1.36
-4.08
-8.09
-9.95
-9.19
-5.21
2.32
13.11
26.13
39.80
52.33
61.96
67.13
64.72
53.20
34.20
12.26
-7.98
-23.95
-35.39
-43.17
-48.15
-50.50
-49.36
-43.68
-33.33
-19.64
-5.02
7.93
17.44
22.95
24.96
24.64
22.87
19.67
14.56
7.46
-0.72
-8.19
-13.08
-14.40
-12.25
-7.85
-2.90
1.13
3.60
4.64
4.93
5.15
5.63
6.39
7.07
7.10
5.62
2.84
-0.80
-4.40
-7.03
-8.26
-8.14
-7.22
-6.25
-5.80
-5.98
-6.64
-7.47
-8.14
-8.45
-7.60
-4.15
3.32
15.27
30.53
46.29
59.40
67.97
71.84
73.23
75.21
79.82
86.77
93.54
96.74
94.08
85.64
73.06
59.27
46.79
36.53
27.57
17.65
3.91
-16.73
-41.78
-70.13
-100.20
-129.85
-156.35
-176.32
-186.53
-185.17
-173.12
-154.47
-136.82
-128.31
-135.16
-159.04
-195.63
-235.32
-265.72
-275.22
-256.33
-208.44
-137.33
-53.61
30.19
102.80
156.61
188.62
200.11
195.37
179.83
159.16
138.25
120.64
107.90
99.52
93.39
86.75
77.10
63.03
44.80
24.26
4.19
-12.84
-25.61
-34.52
-41.41
-48.91
-59.57
-74.99
-95.35
-119.04
-143.60
-166.61
-186.35
-201.88
-212.89
-219.35
-221.12
-217.77
-207.69
-189.83
-164.67
-134.29
-101.44
-68.61
-37.60
-9.24
16.50
41.96
68.63
95.52
119.74
138.56
150.86
157.27
159.69
160.47
164.53
174.59
189.12
203.65
214.20
219.03
218.32
213.18
204.93
198.85
198.99
206.03
218.22
234.11
253.11
274.17
294.89
287.61
238.94
160.19
77.73
11.00
-34.76
-63.19
-80.63
-92.43
-101.60
-105.12
-100.68
-90.38
-80.05
-75.26
-78.57
-89.28
-104.46
-120.28
-130.51
-131.62
-124.87
-114.81
-105.70
-99.79
-96.72
-95.26
-94.16
-90.78
-83.83
-74.43
-65.08
-57.84
-53.39
-51.18
-50.26
-49.69
-47.87
-44.04
-38.74
-33.22
-28.67
-25.54
-23.71
-22.79
-22.31
-21.51
-19.81
-18.02
-16.62
-15.75
-15.13
-14.18
-12.50
-9.98
-6.92
-3.85
-1.24
0.91
2.85
4.92
7.26
9.66
11.59
12.55
12.27
10.91
9.05
7.22
5.69
4.45
3.32
2.17
1.06
0.20
-0.27
-0.30
-0.08
0.05
-0.22
-1.04
-2.33
-3.93
-5.61
-7.21
-8.60
-9.70
-10.45
-10.86
-11.02
-11.14
-11.50
-12.29
-13.53
-15.00
-16.30
-16.96
-16.64
-15.20
-12.75
-9.55
-5.91
-2.11
1.62
5.11
8.15
10.48
11.86
12.10
11.26
9.63
7.68
5.95
4.80
4.35
4.45
4.84
5.31
5.78
6.26
6.79
7.33
7.75
7.96
7.92
7.77
7.63
7.63
7.76
7.90
7.92
7.74
7.40
6.99
6.58
6.19
5.77
5.20
4.43
3.44
2.29
1.03
-0.22
-1.43
-2.58
-3.66
-4.71
-5.78
-6.97
-8.38
-10.13
-12.20
-14.49
-16.64
-18.24
-18.85
-18.17
-16.15
-12.98
-8.98
-4.50
0.17
4.81
9.23
13.27
16.72
19.42
21.28
22.35
22.84
23.02
23.18
23.52
24.04
24.64
25.12
25.33
25.27
25.05
24.82
24.70
24.67
24.61
24.43
24.07
23.58
23.05
22.50
21.85
21.00
19.86
18.49
17.06
15.80
14.80
14.05
13.38
12.59
11.55
10.28
8.88
7.54
6.39
5.50
4.83
4.28
3.73
3.06
2.16
0.99
-0.48
-2.24
-4.22
-6.28
-8.22
-9.75
-10.56
-10.42
-9.22
-7.06
-4.22
-1.10
1.92
4.52
6.60
8.15
9.28
10.09
10.65
11.03
11.30
11.51
11.73
11.99
12.32
12.66
12.96
13.18
13.27
13.24
13.12
12.95
12.77
12.60
12.39
12.14
11.79
11.31
10.72
10.04
9.31
8.55
7.76
6.96
6.16
5.43
4.81
4.33
3.93
3.54
3.03
2.29
1.30
0.12
-1.16
-2.39
-3.53
-4.60
-5.66
-6.76
-7.86
-8.79
-9.29
-9.12
-8.19
-6.61
-4.66
-2.61
-0.68
1.06
2.61
3.98
5.10
5.91
6.41
6.69
6.90
7.20
7.61
8.11
8.56
8.93
9.24
9.53
9.84
10.15
10.36
10.43
10.33
10.11
9.79
9.42
9.00
8.60
8.29
8.15
8.16
8.20
8.09
7.63
6.76
5.60
4.38
3.39
2.81
2.71
2.99
3.44
3.84
3.97
3.67
2.95
2.00
1.26
1.29
2.59
5.31
9.17
13.48
17.39
20.27
21.87
22.40
22.36
22.38
23.04
24.89
28.40
33.90
41.40
50.45
60.08
69.04
76.15
80.64
82.40
81.89
79.85
77.00
73.81
70.43
66.81
62.85
58.53
53.93
49.15
44.27
39.31
34.28
29.23
24.31
19.69
15.54
11.96
8.93
6.35
4.11
2.07
0.18
-1.58
-3.20
-4.62
-5.84
-6.87
-7.80
-8.76
-9.82
-11.04
-12.41
-13.92
-15.56
-17.40
-19.49
-21.89
-24.56
-27.42
-30.28
-32.92
-35.12
-36.75
-37.77
-38.28
-38.48
-38.57
-38.70
-38.91
-39.14
-39.25
-39.19
-38.91
-38.47
-37.91
-37.27
-36.54
-35.69
-34.70
-33.53
-32.19
-30.68
-29.05
-27.37
-25.68
-24.02
-22.39
-20.77
-19.18
-17.71
-16.44
-15.39
-14.52
-13.64
-12.55
-11.12
-9.37
-7.49
-5.71
-4.23
-3.08
-2.17
-1.34
-0.49
0.38
1.15
1.70
1.95
1.91
1.69
1.35
0.90
0.26
-0.66
-1.93
-3.55
-5.40
-7.35
-9.23
-11.00
-12.64
-14.18
-15.63
-16.94
-17.99
-18.74
-19.21
-19.51
-19.76
-20.06
-20.39
-20.70
-20.97
-21.24
-21.68
-22.41
-23.47
-24.68
-25.76
-26.39
-26.39
-25.75
-24.66
-23.33
-21.91
-20.46
-18.94
-17.30
-15.54
-13.72
-11.97
-10.41
-9.11
-8.04
-7.11
-6.17
-5.10
-3.84
-2.40
-0.89
0.56
1.85
2.90
3.69
4.23
4.51
4.49
4.11
3.31
2.07
0.46
-1.37
-3.15
-4.58
-5.39
-5.46
-4.83
-3.70
-2.35
-1.04
0.11
1.09
1.96
2.76
3.46
4.04
4.48
4.81
5.03
5.08
4.80
4.05
2.78
1.15
-0.53
-1.94
-2.87
-3.37
-3.61
-3.85
-4.20
-4.66
-5.09
-5.40
-5.57
-5.67
-5.83
-6.11
-6.58
-7.21
-7.98
-8.81
-9.63
-10.35
-10.91
-11.34
-11.70
-12.11
-12.70
-13.55
-14.71
-16.16
-17.82
-19.54
-21.12
-22.31
-22.94
-22.94
-22.37
-21.40
-20.25
-19.08
-18.03
-17.20
-16.66
-16.47
-16.63
-17.12
-17.82
-18.61
-19.40
-20.12
-20.75
-21.25
-21.59
-21.70
-21.51
-20.95
-20.01
-18.72
-17.17
-15.55
-14.02
-12.73
-11.73
-11.02
-10.51
-10.14
-9.84
-9.60
-9.44
-9.43
-9.61
-10.06
-10.80
-11.76
-12.82
-13.79
-14.40
-14.45
-13.83
-12.55
-10.74
-8.63
-6.48
-4.49
-2.73
-1.20
0.20
1.57
2.90
4.09
5.00
5.54
5.74
5.76
5.79
5.96
6.24
6.51
6.59
6.44
6.13
5.88
5.91
6.29
6.88
7.46
7.79
7.76
7.39
6.85
6.26
5.68
5.06
4.32
3.43
2.47
1.61
1.03
0.79
0.80
0.87
0.73
0.18
-0.89
-2.44
-4.35
-6.45
-8.57
-10.50
-12.02
-12.88
-12.88
-11.93
-10.13
-7.75
-5.11
-2.58
-0.37
1.43
2.81
3.88
4.69
5.34
5.89
6.42
7.00
7.66
8.37
9.05
9.59
9.93
10.06
10.05
10.04
10.15
10.44
10.91
11.48
12.06
12.55
12.92
13.14
13.20
13.06
12.70
12.15
11.49
10.81
10.19
9.62
9.01
8.24
7.31
6.32
5.50
5.07
5.13
5.59
6.23
6.76
6.97
6.79
6.26
5.47
4.47
3.25
1.77
0.02
-1.92
-3.85
-5.48
-6.53
-6.77
-6.13
-4.73
-2.81
-0.74
1.20
2.81
4.11
5.19
6.21
7.25
8.29
9.25
10.04
10.61
11.01
11.26
11.40
11.42
11.33
11.18
11.11
11.24
11.66
12.29
12.95
13.39
13.48
13.23
12.83
12.50
12.41
12.53
12.69
12.65
12.30
11.72
11.16
10.92
11.22
12.09
13.31
14.53
15.39
15.64
15.22
14.24
12.90
11.38
9.80
8.25
6.77
5.43
4.31
3.48
2.93
2.52
2.08
1.44
0.53
-0.60
-1.82
-3.02
-4.13
-5.20
-6.30
-7.55
-8.93
-10.35
-11.61
-12.41
-12.56
-11.94
-10.63
-8.86
-6.92
-5.07
-3.46
-2.12
-0.98
0.05
1.03
1.95
2.79
3.51
4.10
4.56
4.94
5.26
5.55
5.82
6.11
6.45
6.90
7.44
8.05
8.66
9.22
9.68
10.05
10.36
10.59
10.73
10.71
10.51
10.17
9.79
9.52
9.40
9.39
9.35
9.12
8.63
7.92
7.15
6.49
6.02
5.71
5.42
5.02
4.47
3.82
3.16
2.57
2.09
1.67
1.27
0.88
0.49
0.14
-0.24
-0.71
-1.38
-2.31
-3.46
-4.69
-5.81
-6.65
-7.05
-6.94
-6.36
-5.39
-4.20
-2.96
-1.81
-0.81
0.03
0.74
1.36
1.88
2.29
2.57
2.69
2.68
2.62
2.55
2.56
2.65
2.80
2.92
2.94
2.84
2.65
2.48
2.42
2.52
2.71
2.89
2.94
2.81
2.53
2.19
1.89
1.66
1.51
1.39
1.26
1.11
0.96
0.81
0.68
0.53
0.35
0.12
-0.17
-0.50
-0.89
-1.33
-1.84
-2.41
-2.99
-3.50
-3.84
-4.01
-4.06
-4.15
-4.46
-5.06
-5.92
-6.90
-7.85
-8.67
-9.34
-9.89
-10.26
-10.37
-10.05
-9.25
-8.04
-6.68
-5.54
-4.87
-4.76
-5.03
-5.37
-5.44
-5.10
-4.42
-3.66
-3.17
-3.21
-3.83
-4.85
-5.98
-6.92
-7.54
-7.87
-8.07
-8.27
-8.58
-9.00
-9.54
-10.26
-11.21
-12.37
-13.58
-14.47
-14.70
-14.03
-12.54
-10.53
-8.37
-6.36
-4.61
-3.06
-1.66
-0.43
0.51
1.09
1.30
1.36
1.56
2.15
3.20
4.55
5.86
6.74
6.92
6.32
5.11
3.63
2.30
1.45
1.21
1.46
1.89
2.15
1.97
1.30
0.31
-0.68
-1.35
-1.54
-1.25
-0.62
0.14
0.92
1.70
2.51
3.37
4.18
4.78
5.01
4.85
4.40
3.92
3.66
3.76
4.16
4.71
5.16
5.39
5.38
5.27
5.26
5.47
5.91
6.45
6.89
7.10
7.03
6.75
6.38
6.04
5.84
5.82
6.00
6.33
6.75
7.13
7.34
7.29
6.93
6.29
5.42
4.46
3.56
2.87
2.47
2.33
2.26
2.05
1.55
0.80
-0.01
-0.67
-1.06
-1.28
-1.56
-2.12
-2.99
-4.06
-5.05
-5.73
-5.97
-5.79
-5.33
-4.74
-4.15
-3.65
-3.28
-3.00
-2.77
-2.53
-2.23
-1.83
-1.31
-0.65
0.13
0.99
1.86
2.68
3.40
3.99
4.52
5.05
5.61
6.21
6.78
7.25
7.56
7.67
7.62
7.46
7.29
7.17
7.10
7.01
6.77
6.25
5.43
4.37
3.22
2.16
1.30
0.62
0.07
-0.40
-0.80
-1.08
-1.16
-1.02
-0.69
-0.29
0.08
0.32
0.42
0.36
0.18
-0.09
-0.44
-0.86
-1.31
-1.75
-2.11
-2.38
-2.59
-2.87
-3.38
-4.25
-5.49
-6.97
-8.43
-9.60
-10.24
-10.26
-9.73
-8.83
-7.78
-6.76
-5.87
-5.16
-4.65
-4.34
-4.24
-4.29
-4.38
-4.36
-4.08
-3.51
-2.74
-1.99
-1.48
-1.32
-1.46
-1.72
-1.88
-1.80
-1.49
-1.02
-0.56
-0.18
0.04
0.15
0.21
0.31
0.53
0.94
1.57
2.39
3.25
3.95
4.29
4.15
3.61
2.89
2.29
2.08
2.32
2.90
3.54
3.97
3.99
3.59
2.87
1.99
1.07
0.15
-0.76
-1.64
-2.43
-3.02
-3.36
-3.45
-3.35
-3.14
-2.88
-2.56
-2.16
-1.68
-1.15
-0.65
-0.25
-0.00
0.09
0.05
-0.13
-0.43
-0.82
-1.24
-1.62
-1.89
-2.06
-2.18
-2.29
-2.44
-2.64
-2.83
-2.96
-2.94
-2.69
-2.20
-1.47
-0.57
0.40
1.39
2.34
3.25
4.07
4.74
5.23
5.48
5.55
5.59
5.76
6.15
6.72
7.28
7.60
7.50
6.91
5.91
4.66
3.36
2.14
1.04
0.04
-0.90
-1.77
-2.54
-3.13
-3.55
-3.84
-4.05
-4.21
-4.29
-4.19
-3.85
-3.29
-2.60
-1.98
-1.58
-1.44
-1.50
-1.61
-1.60
-1.43
-1.18
-1.01
-1.07
-1.44
-2.02
-2.64
-3.13
-3.43
-3.60
-3.81
-4.17
-4.69
-5.26
-5.72
-5.94
-5.88
-5.58
-5.08
-4.42
-3.61
-2.68
-1.63
-0.46
0.85
2.33
3.99
5.75
7.51
9.12
10.46
11.46
12.13
12.52
12.70
12.75
12.70
12.56
12.30
11.87
11.26
10.49
9.62
8.71
7.80
6.87
5.85
4.67
3.30
1.79
0.24
-1.20
-2.42
-3.30
-3.81
-3.95
-3.77
-3.34
-2.75
-2.10
-1.51
-1.10
-0.91
-0.93
-1.08
-1.25
-1.36
-1.39
-1.32
-1.16
-0.88
-0.46
0.10
0.72
1.28
1.67
1.86
1.89
1.86
1.86
1.88
1.85
1.68
1.33
0.82
0.29
-0.14
-0.34
-0.32
-0.13
0.04
0.04
-0.24
-0.83
-1.64
-2.60
-3.62
-4.65
-5.66
-6.63
-7.52
-8.34
-9.14
-10.03
-11.10
-12.34
-13.63
-14.69
-15.20
-14.86
-13.49
-11.10
-7.90
-4.28
-0.69
2.41
4.77
6.39
7.50
8.51
9.74
11.36
13.28
15.25
16.97
18.26
19.05
19.36
19.25
18.79
18.06
17.16
16.22
15.37
14.67
14.10
13.56
12.92
12.13
11.18
10.14
9.08
8.03
6.99
5.92
4.84
3.78
2.81
2.00
1.38
0.94
0.65
0.46
0.28
0.04
-0.35
-0.91
-1.58
-2.24
-2.77
-3.13
-3.37
-3.61
-3.97
-4.47
-5.01
-5.44
-5.69
-5.82
-6.04
-6.52
-7.31
-8.23
-8.97
-9.26
-9.01
-8.32
-7.46
-6.65
-5.98
-5.37
-4.68
-3.80
-2.79
-1.81
-1.07
-0.72
-0.74
-1.02
-1.35
-1.57
-1.57
-1.35
-0.94
-0.40
0.22
0.91
1.62
2.30
2.87
3.25
3.40
3.32
3.09
2.77
2.46
2.21
2.07
2.05
2.12
2.26
2.42
2.59
2.74
2.83
2.80
2.64
2.31
1.86
1.39
1.01
0.80
0.73
0.67
0.46
0.00
-0.67
-1.39
-1.93
-2.17
-2.14
-2.03
-2.10
-2.47
-3.10
-3.79
-4.30
-4.54
-4.56
-4.55
-4.68
-5.03
-5.52
-6.04
-6.44
-6.73
-6.93
-7.15
-7.41
-7.67
-7.82
-7.73
-7.36
-6.71
-5.87
-4.99
-4.19
-3.58
-3.17
-2.89
-2.65
-2.36
-1.96
-1.51
-1.08
-0.74
-0.56
-0.50
-0.49
-0.41
-0.18
0.26
0.82
1.39
1.78
1.91
1.80
1.59
1.45
1.51
1.74
2.02
2.18
2.11
1.82
1.43
1.06
0.79
0.61
0.47
0.30
0.07
-0.20
-0.50
-0.75
-0.91
-0.96
-0.90
-0.82
-0.83
-1.02
-1.41
-1.91
-2.38
-2.68
-2.72
-2.48
-2.01
-1.34
-0.52
0.39
1.27
1.97
2.37
2.43
2.24
2.01
1.93
2.08
2.41
2.78
3.02
3.07
2.95
2.76
2.58
2.46
2.36
2.25
2.12
1.99
1.91
1.91
1.97
2.07
2.14
2.13
2.05
1.93
1.82
1.77
1.81
1.91
1.97
1.88
1.58
1.06
0.40
-0.21
-0.61
-0.66
-0.41
0.01
0.34
0.35
-0.03
-0.75
-1.59
-2.34
-2.87
-3.17
-3.35
-3.53
-3.75
-4.03
-4.30
-4.57
-4.88
-5.31
-5.89
-6.54
-7.06
-7.27
-7.05
-6.45
-5.63
-4.81
-4.13
-3.64
-3.26
-2.91
-2.52
-2.09
-1.68
-1.34
-1.09
-0.94
-0.86
-0.78
-0.69
-0.54
-0.33
-0.08
0.19
0.41
0.54
0.55
0.46
0.35
0.34
0.46
0.69
0.90
0.96
0.78
0.36
-0.16
-0.63
-0.94
-1.07
-1.09
-1.08
-1.09
-1.10
-1.06
-0.91
-0.69
-0.50
-0.46
-0.65
-1.08
-1.66
-2.26
-2.78
-3.17
-3.45
-3.65
-3.80
-3.89
-3.92
-3.92
-3.95
-4.08
-4.35
-4.71
-5.03
-5.12
-4.87
-4.24
-3.31
-2.25
-1.23
-0.38
0.21
0.56
0.72
0.83
1.02
1.36
1.85
2.39
2.90
3.33
3.68
4.02
4.38
4.75
5.08
5.28
5.34
5.28
5.14
4.97
4.77
4.50
4.16
3.78
3.42
3.16
3.02
2.98
2.97
2.93
2.81
2.60
2.31
1.99
1.70
1.50
1.42
1.45
1.57
1.73
1.88
1.98
1.98
1.84
1.58
1.22
0.84
0.51
0.27
0.14
0.10
0.07
0.01
-0.15
-0.46
-0.90
-1.40
-1.84
-2.11
-2.13
-1.94
-1.66
-1.46
-1.50
-1.84
-2.40
-3.08
-3.72
-4.20
-4.43
-4.37
-4.03
-3.47
-2.80
-2.13
-1.54
-1.07
-0.72
-0.42
-0.09
0.31
0.80
1.38
1.97
2.49
2.82
2.90
2.72
2.34
1.90
1.55
1.37
1.36
1.48
1.68
1.94
2.25
2.61
2.94
3.10
2.96
2.48
1.77
1.04
0.53
0.37
0.55
0.90
1.22
1.36
1.27
0.98
0.60
0.25
0.02
-0.08
-0.10
-0.11
-0.24
-0.52
-0.95
-1.43
-1.86
-2.13
-2.22
-2.20
-2.19
-2.28
-2.57
-3.05
-3.67
-4.34
-5.02
-5.65
-6.26
-6.86
-7.47
-8.04
-8.52
-8.82
-8.90
-8.74
-8.32
-7.66
-6.78
-5.73
-4.63
-3.59
-2.73
-2.11
-1.72
-1.45
-1.19
-0.84
-0.34
0.25
0.82
1.24
1.42
1.37
1.18
0.98
0.90
0.98
1.20
1.47
1.71
1.88
2.01
2.13
2.25
2.35
2.41
2.38
2.24
2.02
1.74
1.43
1.12
0.83
0.60
0.44
0.37
0.33
0.26
0.10
-0.19
-0.58
-0.99
-1.31
-1.50
-1.54
-1.53
-1.55
-1.68
-1.95
-2.37
-2.90
-3.52
-4.21
-4.93
-5.64
-6.27
-6.72
-6.90
-6.74
-6.24
-5.48
-4.59
-3.68
-2.83
-2.05
-1.30
-0.54
0.28
1.08
1.80
2.32
2.57
2.54
2.30
1.99
1.74
1.64
1.70
1.85
1.97
1.93
1.72
1.37
1.00
0.72
0.62
0.71
0.94
1.24
1.49
1.60
1.49
1.19
0.80
0.52
0.53
0.92
1.69
2.72
3.89
5.12
6.39
7.72
9.13
10.60
12.11
13.65
15.20
16.68
17.89
18.58
18.45
17.32
15.19
12.26
8.83
5.22
1.73
-1.44
-4.13
-6.20
-7.58
-8.21
-8.19
-7.71
-7.00
-6.30
-5.74
-5.35
-5.02
-4.66
-4.17
-3.56
-2.87
-2.14
-1.39
-0.62
0.15
0.89
1.54
2.05
2.40
2.64
2.80
2.95
3.09
3.19
3.20
3.03
2.66
2.08
1.33
0.49
-0.38
-1.27
-2.18
-3.15
-4.15
-5.12
-5.98
-6.63
-7.10
-7.48
-7.92
-8.54
-9.32
-10.17
-10.92
-11.45
-11.71
-11.76
-11.68
-11.52
-11.32
-11.03
-10.61
-10.05
-9.37
-8.64
-7.92
-7.28
-6.72
-6.25
-5.85
-5.54
-5.28
-5.03
-4.67
-4.06
-3.07
-1.62
0.19
2.16
4.05
5.67
6.91
7.82
8.46
8.91
9.20
9.29
9.17
8.87
8.48
8.09
7.77
7.54
7.35
7.14
6.89
6.59
6.27
5.91
5.51
5.06
4.58
4.12
3.81
3.70
3.80
4.05
4.29
4.38
4.24
3.87
3.39
2.92
2.51
2.15
1.76
1.29
0.71
0.09
-0.47
-0.91
-1.22
-1.47
-1.74
-2.09
-2.52
-3.01
-3.47
-3.85
-4.10
-4.19
-4.12
-3.85
-3.40
-2.76
-1.96
-1.06
-0.12
0.79
1.59
2.23
2.69
3.01
3.26
3.54
3.94
4.45
5.01
5.47
5.68
5.60
5.32
4.99
4.81
4.84
5.02
5.24
5.34
5.28
5.10
4.91
4.77
4.66
4.53
4.30
3.97
3.57
3.18
2.82
2.47
2.05
1.50
0.85
0.24
-0.20
-0.41
-0.43
-0.45
-0.64
-1.09
-1.78
-2.58
-3.36
-4.03
-4.59
-5.06
-5.41
-5.61
-5.65
-5.62
-5.67
-5.95
-6.50
-7.23
-7.92
-8.40
-8.58
-8.48
-8.15
-7.59
-6.72
-5.47
-3.87
-2.07
-0.31
1.20
2.39
3.31
4.05
4.67
5.15
5.44
5.53
5.49
5.41
5.39
5.44
5.55
5.65
5.72
5.71
5.60
5.34
4.89
4.23
3.43
2.59
1.83
1.25
0.86
0.65
0.55
0.48
0.38
0.18
-0.15
-0.63
-1.22
-1.85
-2.45
-2.95
-3.33
-3.64
-3.96
-4.39
-4.97
-5.71
-6.53
-7.34
-8.09
-8.80
-9.53
-10.35
-11.25
-12.11
-12.75
-12.95
-12.60
-11.69
-10.34
-8.72
-6.99
-5.30
-3.72
-2.32
-1.16
-0.27
0.35
0.75
0.95
1.03
1.02
0.96
0.89
0.85
0.87
0.95
1.03
1.06
0.96
0.70
0.26
-0.28
-0.83
-1.29
-1.57
-1.65
-1.54
-1.35
-1.14
-0.96
-0.81
-0.63
-0.40
-0.14
0.07
0.16
0.14
0.06
0.02
0.08
0.22
0.39
0.56
0.71
0.87
1.05
1.22
1.29
1.21
0.98
0.69
0.46
0.40
0.54
0.78
0.99
1.07
0.98
0.79
0.55
0.31
0.04
-0.36
-0.94
-1.70
-2.51
-3.17
-3.46
-3.30
-2.70
-1.84
-0.96
-0.22
0.31
0.67
0.98
1.32
1.66
1.88
1.88
1.59
1.11
0.65
0.41
0.50
0.85
1.25
1.51
1.55
1.43
1.41
1.71
2.51
3.82
5.49
7.28
8.95
10.30
11.24
11.75
11.92
11.87
11.68
11.40
11.04
10.59
10.00
9.28
8.40
7.35
6.11
4.67
3.07
1.40
-0.24
-1.74
-3.05
-4.14
-5.04
-5.81
-6.49
-7.11
-7.72
-8.37
-9.07
-9.84
-10.61
-11.29
-11.75
-11.90
-11.67
-11.06
-10.15
-9.02
-7.79
-6.53
-5.31
-4.17
-3.13
-2.22
-1.46
-0.85
-0.40
-0.07
0.15
0.30
0.42
0.51
0.61
0.75
0.91
1.05
1.10
1.00
0.77
0.50
0.32
0.31
0.48
0.75
0.98
1.09
1.06
0.94
0.78
0.62
0.45
0.28
0.12
-0.01
-0.06
-0.03
0.05
0.14
0.19
0.16
0.06
-0.13
-0.40
-0.76
-1.16
-1.57
-1.91
-2.12
-2.18
-2.16
-2.16
-2.30
-2.63
-3.11
-3.61
-3.98
-4.10
-3.91
-3.43
-2.65
-1.58
-0.25
1.28
2.84
4.22
5.25
5.90
6.28
6.56
6.90
7.32
7.72
7.98
8.05
7.97
7.85
7.77
7.77
7.78
7.72
7.56
7.31
7.01
6.71
6.44
6.19
5.97
5.82
5.77
5.83
5.96
6.05
6.02
5.77
5.30
4.65
3.93
3.29
2.85
2.66
2.69
2.83
2.91
2.76
2.29
1.53
0.58
-0.41
-1.35
-2.23
-3.08
-3.95
-4.79
-5.55
-6.15
-6.59
-6.99
-7.50
-8.25
-9.24
-10.32
-11.24
-11.77
-11.81
-11.39
-10.61
-9.61
-8.50
-7.30
-6.01
-4.58
-2.98
-1.20
0.66
2.41
3.84
4.74
5.06
4.89
4.45
4.01
3.75
3.75
3.95
4.25
4.52
4.73
4.83
4.84
4.78
4.68
4.57
4.47
4.39
4.31
4.19
4.02
3.76
3.40
2.92
2.34
1.72
1.14
0.67
0.33
0.08
-0.22
-0.65
-1.27
-2.03
-2.83
-3.57
-4.20
-4.75
-5.27
-5.81
-6.35
-6.85
-7.27
-7.61
-7.90
-8.20
-8.55
-8.93
-9.32
-9.70
-10.10
-10.54
-11.04
-11.57
-12.07
-12.41
-12.50
-12.24
-11.56
-10.47
-9.02
-7.34
-5.59
-3.90
-2.37
-1.04
0.08
1.00
1.70
2.20
2.57
2.91
3.31
3.80
4.36
4.91
5.40
5.82
6.19
6.51
6.74
6.83
6.79
6.67
6.58
6.58
6.67
6.73
6.66
6.40
6.04
5.68
5.40
5.20
4.97
4.63
4.12
3.50
2.87
2.30
1.79
1.29
0.73
0.07
-0.70
-1.53
-2.37
-3.20
-4.02
-4.86
-5.71
-6.48
-7.02
-7.18
-6.87
-6.14
-5.11
-3.95
-2.74
-1.50
-0.17
1.24
2.62
3.79
4.59
4.92
4.88
4.65
4.44
4.38
4.44
4.53
4.52
4.40
4.19
4.02
3.93
3.96
4.03
4.09
4.07
3.99
3.90
3.84
3.83
3.84
3.77
3.57
3.16
2.59
1.92
1.26
0.73
0.39
0.21
0.11
-0.00
-0.22
-0.56
-1.01
-1.52
-2.07
-2.65
-3.29
-3.99
-4.74
-5.47
-6.09
-6.55
-6.89
-7.17
-7.49
-7.88
-8.30
-8.65
-8.82
-8.75
-8.42
-7.83
-7.00
-5.95
-4.69
-3.28
-1.83
-0.47
0.68
1.53
2.08
2.35
2.41
2.36
2.30
2.34
2.58
3.04
3.69
4.42
5.11
5.62
5.89
5.92
5.82
5.74
5.80
6.05
6.43
6.82
7.08
7.13
6.95
6.63
6.25
5.89
5.62
5.47
5.42
5.43
5.38
5.16
4.63
3.77
2.62
1.35
0.11
-0.98
-1.95
-2.89
-3.91
-5.08
-6.32
-7.53
-8.57
-9.38
-10.01
-10.56
-11.12
-11.75
-12.42
-13.08
-13.72
-14.29
-14.78
-15.09
-15.05
-14.50
-13.36
-11.69
-9.70
-7.63
-5.69
-4.00
-2.54
-1.26
-0.11
0.94
1.92
2.82
3.71
4.62
5.56
6.52
7.43
8.23
8.89
9.41
9.82
10.14
10.38
10.49
10.45
10.26
9.94
9.59
9.30
9.10
8.99
8.86
8.61
8.11
7.34
6.34
5.22
4.12
3.13
2.30
1.62
1.03
0.46
-0.13
-0.79
-1.52
-2.30
-3.13
-4.00
-4.87
-5.69
-6.39
-6.89
-7.14
-7.12
-6.84
-6.32
-5.60
-4.70
-3.69
-2.64
-1.67
-0.86
-0.23
0.31
0.85
1.46
2.13
2.72
3.11
3.23
3.15
3.05
3.12
3.44
3.95
4.48
4.86
5.01
4.97
4.81
4.64
4.48
4.30
4.07
3.76
3.39
2.99
2.60
2.26
1.98
1.79
1.66
1.56
1.46
1.32
1.11
0.87
0.61
0.37
0.13
-0.12
-0.39
-0.68
-0.96
-1.17
-1.33
-1.47
-1.65
-1.96
-2.40
-2.92
-3.47
-4.02
-4.56
-5.17
-5.88
-6.71
-7.58
-8.38
-8.97
-9.22
-9.12
-8.70
-8.02
-7.17
-6.19
-5.08
-3.85
-2.53
-1.18
0.11
1.23
2.11
2.69
2.98
3.04
2.94
2.82
2.78
2.90
3.19
3.58
3.97
4.25
4.38
4.37
4.23
4.02
3.75
3.42
3.07
2.71
2.40
2.17
1.99
1.85
1.70
1.52
1.30
1.04
0.75
0.41
0.01
-0.41
-0.82
-1.17
-1.45
-1.65
-1.80
-1.93
-2.06
-2.22
-2.45
-2.76
-3.13
-3.52
-3.86
-4.13
-4.32
-4.47
-4.63
-4.83
-5.04
-5.21
-5.31
-5.36
-5.46
-5.71
-6.19
-6.84
-7.48
-7.86
-7.76
-7.08
-5.86
-4.27
-2.55
-0.93
0.45
1.54
2.36
3.00
3.53
4.02
4.49
4.92
5.24
5.44
5.50
5.46
5.38
5.31
5.31
5.39
5.58
5.86
6.19
6.52
6.78
6.87
6.74
6.37
5.78
5.06
4.29
3.58
3.04
2.70
2.60
2.67
2.77
2.76
2.53
2.04
1.40
0.73
0.19
-0.19
-0.47
-0.79
-1.28
-1.93
-2.62
-3.18
-3.50
-3.61
-3.64
-3.79
-4.16
-4.69
-5.27
-5.73
-5.98
-6.03
-5.91
-5.63
-5.16
-4.44
-3.47
-2.37
-1.30
-0.43
0.18
0.58
0.91
1.28
1.72
2.18
2.58
2.90
3.16
3.41
3.65
3.83
3.90
3.88
3.81
3.79
3.90
4.12
4.40
4.61
4.65
4.46
4.00
3.33
2.55
1.81
1.26
0.98
0.97
1.10
1.21
1.15
0.89
0.46
-0.01
-0.45
-0.77
-0.98
-1.11
-1.24
-1.45
-1.80
-2.31
-2.92
-3.53
-3.99
-4.22
-4.26
-4.24
-4.33
-4.66
-5.24
-5.99
-6.78
-7.57
-8.33
-9.09
-9.79
-10.30
-10.48
-10.20
-9.46
-8.37
-7.08
-5.75
-4.49
-3.35
-2.37
-1.59
-1.04
-0.69
-0.47
-0.32
-0.15
0.06
0.29
0.56
0.85
1.17
1.52
1.88
2.22
2.52
2.77
2.94
2.99
2.85
2.50
2.00
1.52
1.22
1.24
1.60
2.18
2.76
3.12
3.18
2.94
2.53
2.11
1.79
1.63
1.56
1.50
1.35
1.10
0.76
0.41
0.12
-0.08
-0.21
-0.34
-0.54
-0.86
-1.31
-1.85
-2.44
-3.04
-3.59
-4.02
-4.28
-4.27
-3.96
-3.34
-2.48
-1.50
-0.51
0.41
1.23
2.00
2.75
3.47
4.12
4.57
4.75
4.65
4.34
3.97
3.64
3.42
3.32
3.30
3.37
3.54
3.82
4.17
4.51
4.74
4.80
4.68
4.42
4.08
3.71
3.33
2.99
2.73
2.59
2.58
2.64
2.65
2.53
2.25
1.83
1.38
0.96
0.60
0.25
-0.15
-0.65
-1.23
-1.81
-2.32
-2.68
-2.93
-3.12
-3.35
-3.68
-4.12
-4.63
-5.18
-5.77
-6.43
-7.19
-8.00
-8.77
-9.33
-9.55
-9.32
-8.67
-7.64
-6.34
-4.89
-3.40
-2.00
-0.81
0.12
0.79
1.27
1.66
2.03
2.39
2.72
2.99
3.17
3.30
3.45
3.68
4.01
4.40
4.79
5.09
5.23
5.19
4.99
4.68
4.31
3.93
3.57
3.24
2.92
2.62
2.33
2.09
1.91
1.79
1.72
1.65
1.52
1.31
1.02
0.71
0.42
0.21
0.04
-0.16
-0.43
-0.81
-1.30
-1.84
-2.38
-2.90
-3.39
-3.86
-4.28
-4.63
-4.89
-5.08
-5.22
-5.38
-5.55
-5.70
-5.69
-5.39
-4.70
-3.64
-2.30
-0.88
0.45
1.59
2.55
3.37
4.13
4.86
5.55
6.13
6.58
6.88
7.02
7.04
6.98
6.90
6.85
6.89
7.03
7.26
7.50
7.63
7.55
7.23
6.70
6.06
5.41
4.84
4.34
3.90
3.48
3.06
2.65
2.25
1.88
1.53
1.17
0.85
0.57
0.36
0.17
-0.05
-0.39
-0.86
-1.41
-1.92
-2.29
-2.49
-2.56
-2.60
-2.71
-2.94
-3.26
-3.61
-3.95
-4.26
-4.59
-4.97
-5.47
-6.10
-6.85
-7.64
-8.34
-8.81
-8.92
-8.55
-7.70
-6.42
-4.87
-3.23
-1.72
-0.48
0.43
1.01
1.36
1.59
1.75
1.88
1.99
2.10
2.24
2.47
2.79
3.15
3.44
3.56
3.48
3.25
2.98
2.75
2.59
2.48
2.33
2.10
1.82
1.54
1.33
1.21
1.15
1.08
0.90
0.56
0.06
-0.53
-1.11
-1.58
-1.92
-2.15
-2.37
-2.63
-2.94
-3.22
-3.39
-3.39
-3.27
-3.15
-3.19
-3.48
-4.01
-4.65
-5.26
-5.76
-6.19
-6.63
-7.20
-7.91
-8.64
-9.17
-9.34
-9.03
-8.31
-7.34
-6.28
-5.28
-4.35
-3.43
-2.44
-1.32
-0.13
1.05
2.07
2.90
3.55
4.11
4.67
5.24
5.78
6.18
6.42
6.53
6.58
6.66
6.83
7.08
7.36
7.64
7.88
8.04
8.08
7.95
7.68
7.33
7.01
6.81
6.75
6.75
6.66
6.33
5.67
4.71
3.57
2.45
1.50
0.80
0.30
-0.10
-0.54
-1.08
-1.72
-2.39
-3.02
-3.59
-4.15
-4.76
-5.46
-6.23
-7.00
-7.65
-8.05
-8.13
-7.89
-7.39
-6.70
-5.90
-5.04
-4.10
-3.05
-1.88
-0.64
0.54
1.50
2.14
2.46
2.59
2.74
3.05
3.53
4.09
4.57
4.84
4.91
4.85
4.77
4.70
4.65
4.60
4.56
4.57
4.66
4.79
4.82
4.65
4.20
3.51
2.73
1.98
1.33
0.81
0.37
-0.02
-0.34
-0.57
-0.69
-0.74
-0.75
-0.80
-0.94
-1.21
-1.61
-2.13
-2.70
-3.24
-3.70
-4.03
-4.29
-4.55
-4.93
-5.47
-6.19
-7.01
-7.89
-8.77
-9.63
-10.39
-10.97
-11.20
-10.93
-10.09
-8.75
-7.08
-5.30
-3.62
-2.14
-0.90
0.09
0.83
1.34
1.64
1.83
2.00
2.24
2.56
2.87
3.06
3.07
2.91
2.69
2.53
2.51
2.68
2.98
3.33
3.67
3.93
4.06
4.04
3.86
3.54
3.11
2.63
2.14
1.70
1.33
1.03
0.77
0.51
0.23
-0.08
-0.38
-0.65
-0.84
-0.95
-1.00
-1.07
-1.23
-1.52
-1.93
-2.41
-2.91
-3.36
-3.79
-4.19
-4.57
-4.87
-4.97
-4.77
-4.19
-3.26
-2.07
-0.74
0.61
1.91
3.12
4.22
5.17
5.90
6.37
6.57
6.54
6.39
6.21
6.10
6.06
6.04
5.98
5.86
5.71
5.57
5.43
5.28
5.05
4.72
4.31
3.94
3.67
3.48
3.29
2.94
2.38
1.66
0.96
0.44
0.17
0.04
-0.14
-0.51
-1.08
-1.74
-2.28
-2.58
-2.65
-2.66
-2.78
-3.15
-3.79
-4.59
-5.40
-6.10
-6.65
-7.06
-7.38
-7.59
-7.68
-7.58
-7.21
-6.53
-5.55
-4.32
-2.93
-1.50
-0.16
1.00
1.91
2.57
3.04
3.38
3.64
3.85
4.01
4.10
4.14
4.18
4.25
4.34
4.42
4.43
4.38
4.31
4.29
4.33
4.39
4.38
4.22
3.88
3.42
2.90
2.38
1.89
1.44
1.01
0.63
0.31
0.07
-0.13
-0.35
-0.64
-1.04
-1.49
-1.96
-2.39
-2.80
-3.22
-3.66
-4.15
-4.66
-5.19
-5.75
-6.32
-6.92
-7.48
-7.93
-8.22
-8.38
-8.52
-8.79
-9.31
-10.06
-10.90
-11.62
-12.00
-11.95
-11.47
-10.62
-9.51
-8.18
-6.67
-5.02
-3.30
-1.65
-0.20
0.94
1.75
2.26
2.60
2.87
3.16
3.52
3.95
4.44
4.97
5.50
6.00
6.40
6.64
6.72
6.66
6.55
6.47
6.48
6.60
6.75
6.85
6.80
6.52
5.98
5.26
4.50
3.86
3.45
3.27
3.18
3.01
2.63
2.06
1.42
0.87
0.53
0.34
0.17
-0.17
-0.77
-1.62
-2.65
-3.70
-4.66
-5.44
-5.97
-6.16
-5.94
-5.28
-4.22
-2.84
-1.30
0.20
1.50
2.48
3.08
3.36
3.46
3.50
3.60
3.79
4.04
4.30
4.56
4.80
5.05
5.28
5.43
5.44
5.30
5.08
4.85
4.68
4.54
4.37
4.08
3.67
3.21
2.83
2.60
2.52
2.52
2.46
2.25
1.88
1.42
0.96
0.59
0.30
0.02
-0.38
-1.01
-1.89
-2.90
-3.84
-4.53
-4.87
-4.94
-4.94
-5.09
-5.47
-6.03
-6.64
-7.21
-7.80
-8.49
-9.33
-10.22
-10.87
-10.97
-10.32
-8.93
-7.04
-4.98
-3.01
-1.32
0.06
1.15
1.99
2.63
3.11
3.48
3.76
3.99
4.15
4.26
4.34
4.42
4.50
4.52
4.41
4.15
3.77
3.38
3.07
2.89
2.83
2.80
2.72
2.57
2.37
2.17
2.01
1.89
1.80
1.69
1.52
1.24
0.84
0.34
-0.21
-0.71
-1.11
-1.39
-1.60
-1.78
-1.98
-2.20
-2.43
-2.65
-2.88
-3.15
-3.45
-3.74
-4.01
-4.22
-4.42
-4.71
-5.12
-5.68
-6.29
-6.85
-7.26
-7.47
-7.46
-7.24
-6.79
-6.08
-5.10
-3.87
-2.45
-0.98
0.46
1.77
2.92
3.92
4.78
5.50
6.11
6.64
7.11
7.56
7.97
8.30
8.51
8.57
8.52
8.43
8.39
8.41
8.45
8.44
8.31
8.07
7.74
7.39
7.03
6.62
6.10
5.43
4.63
3.78
2.97
2.29
1.76
1.37
1.04
0.72
0.36
-0.05
-0.48
-0.92
-1.32
-1.69
-2.03
-2.33
-2.62
-2.93
-3.30
-3.79
-4.41
-5.20
-6.11
-7.08
-8.03
-8.83
-9.35
-9.44
-8.98
-7.93
-6.34
-4.41
-2.39
-0.52
1.06
2.28
3.13
3.66
3.90
3.93
3.88
3.92
4.15
4.62
5.23
5.80
6.18
6.29
6.15
5.88
5.59
5.35
5.16
4.96
4.74
4.47
4.17
3.87
3.58
3.35
3.17
3.06
2.99
2.89
2.68
2.29
1.73
1.06
0.36
-0.29
-0.86
-1.36
-1.83
-2.33
-2.85
-3.42
-4.01
-4.62
-5.21
-5.72
-6.14
-6.44
-6.66
-6.85
-7.09
-7.44
-7.97
-8.73
-9.69
-10.76
-11.79
-12.57
-12.88
-12.61
-11.73
-10.34
-8.62
-6.76
-4.92
-3.22
-1.75
-0.54
0.41
1.14
1.70
2.12
2.45
2.73
2.99
3.26
3.55
3.85
4.13
4.35
4.49
4.54
4.53
4.49
4.47
4.47
4.50
4.51
4.46
4.33
4.10
3.83
3.60
3.45
3.44
3.51
3.61
3.63
3.51
3.26
2.92
2.58
2.29
2.03
1.77
1.43
0.98
0.39
-0.27
-0.92
-1.51
-2.03
-2.51
-2.97
-3.43
-3.84
-4.09
-4.04
-3.57
-2.65
-1.33
0.25
1.88
3.36
4.49
5.18
5.41
5.29
4.95
4.54
4.20
3.97
3.88
3.93
4.08
4.32
4.61
4.88
5.07
5.14
5.10
4.95
4.73
4.42
4.02
3.51
2.94
2.41
1.98
1.70
1.49
1.27
0.93
0.49
0.04
-0.31
-0.50
-0.56
-0.63
-0.82
-1.18
-1.71
-2.32
-2.94
-3.53
-4.08
-4.60
-5.08
-5.53
-5.95
-6.38
-6.84
-7.34
-7.87
-8.37
-8.82
-9.20
-9.45
-9.51
-9.28
-8.64
-7.59
-6.21
-4.70
-3.31
-2.24
-1.52
-1.06
-0.69
-0.25
0.28
0.85
1.31
1.57
1.59
1.45
1.28
1.18
1.21
1.35
1.56
1.79
2.00
2.18
2.30
2.32
2.20
1.89
1.39
0.80
0.26
-0.09
-0.17
-0.00
0.28
0.48
0.48
0.23
-0.18
-0.65
-1.06
-1.37
-1.63
-1.89
-2.19
-2.49
-2.75
-2.88
-2.87
-2.77
-2.67
-2.68
-2.85
-3.15
-3.53
-3.91
-4.25
-4.59
-4.95
-5.29
-5.52
-5.48
-5.03
-4.15
-2.91
-1.44
0.11
1.60
2.98
4.24
5.35
6.28
6.98
7.41
7.60
7.61
7.56
7.57
7.65
7.79
7.87
7.80
7.55
7.17
6.79
6.53
6.45
6.54
6.68
6.73
6.56
6.16
5.56
4.87
4.20
3.60
3.05
2.48
1.85
1.16
0.46
-0.22
-0.83
-1.37
-1.87
-2.31
-2.68
-2.97
-3.21
-3.53
-4.03
-4.77
-5.67
-6.55
-7.21
-7.49
-7.38
-6.95
-6.34
-5.63
-4.81
-3.85
-2.73
-1.56
-0.48
0.33
0.82
1.02
1.12
1.30
1.63
2.10
2.56
2.85
2.89
2.74
2.54
2.48
2.63
2.99
3.42
3.77
3.92
3.86
3.66
3.44
3.30
3.26
3.30
3.35
3.38
3.33
3.19
2.91
2.45
1.80
1.03
0.22
-0.48
-1.00
-1.32
-1.50
-1.61
-1.74
-1.95
-2.25
-2.65
-3.15
-3.73
-4.36
-4.96
-5.47
-5.87
-6.17
-6.43
-6.70
-7.03
-7.45
-7.97
-8.61
-9.36
-10.16
-10.91
-11.47
-11.70
-11.52
-10.88
-9.84
-8.53
-7.07
-5.61
-4.26
-3.06
-2.03
-1.16
-0.45
0.08
0.45
0.69
0.91
1.21
1.67
2.25
2.83
3.24
3.40
3.34
3.21
3.18
3.31
3.53
3.67
3.54
3.09
2.43
1.78
1.33
1.20
1.34
1.58
1.75
1.74
1.53
1.20
0.88
0.64
0.51
0.44
0.35
0.16
-0.16
-0.53
-0.89
-1.15
-1.30
-1.39
-1.51
-1.74
-2.09
-2.54
-3.03
-3.50
-3.88
-4.16
-4.29
-4.22
-3.88
-3.20
-2.17
-0.88
0.53
1.88
3.05
3.97
4.67
5.20
5.60
5.88
6.01
6.02
5.95
5.89
5.92
6.08
6.34
6.65
6.91
7.06
7.00
6.70
6.18
5.54
4.93
4.52
4.37
4.40
4.47
4.40
4.08
3.52
2.81
2.05
1.31
0.66
0.11
-0.34
-0.72
-1.09
-1.50
-1.99
-2.52
-3.03
-3.43
-3.69
-3.84
-3.97
-4.20
-4.60
-5.16
-5.86
-6.60
-7.33
-7.96
-8.44
-8.67
-8.57
-8.07
-7.12
-5.79
-4.21
-2.56
-1.03
0.25
1.28
2.07
2.70
3.23
3.73
4.21
4.72
5.25
5.75
6.14
6.32
6.27
6.05
5.81
5.66
5.68
5.85
6.05
6.18
6.14
5.93
5.57
5.09
4.56
4.04
3.59
3.22
2.90
2.59
2.23
1.85
1.50
1.24
1.08
0.98
0.86
0.64
0.30
-0.12
-0.55
-0.97
-1.42
-1.96
-2.65
-3.47
-4.34
-5.16
-5.86
-6.38
-6.76
-7.04
-7.32
-7.67
-8.14
-8.70
-9.32
-9.91
-10.46
-10.93
-11.29
-11.48
-11.40
-10.94
-10.02
-8.67
-6.99
-5.18
-3.44
-1.92
-0.74
0.06
0.54
0.83
1.07
1.40
1.87
2.43
2.97
3.40
3.70
3.93
4.18
4.50
4.86
5.18
5.34
5.29
5.04
4.64
4.19
3.82
3.60
3.62
3.85
4.20
4.52
4.64
4.47
4.05
3.49
2.99
2.67
2.58
2.62
2.63
2.49
2.15
1.69
1.24
0.93
0.79
0.75
0.64
0.34
-0.20
-0.92
-1.71
-2.46
-3.09
-3.62
-4.07
-4.41
-4.58
-4.46
-3.96
-3.06
-1.85
-0.51
0.79
1.91
2.79
3.46
3.96
4.36
4.67
4.87
4.96
4.96
4.91
4.90
4.98
5.17
5.43
5.65
5.70
5.49
5.03
4.44
3.87
3.50
3.35
3.34
3.30
3.09
2.68
2.14
1.60
1.18
0.85
0.54
0.14
-0.40
-1.03
-1.66
-2.18
-2.52
-2.67
-2.70
-2.72
-2.85
-3.22
-3.85
-4.69
-5.61
-6.46
-7.14
-7.67
-8.14
-8.63
-9.18
-9.70
-10.09
-10.23
-10.07
-9.64
-8.98
-8.12
-7.08
-5.90
-4.63
-3.37
-2.20
-1.21
-0.43
0.19
0.69
1.12
1.51
1.86
2.13
2.32
2.45
2.54
2.63
2.75
2.88
2.98
3.06
3.14
3.24
3.41
3.57
3.61
3.45
3.05
2.49
1.95
1.57
1.42
1.42
1.48
1.47
1.41
1.36
1.38
1.43
1.41
1.22
0.80
0.26
-0.26
-0.63
-0.83
-0.98
-1.24
-1.72
-2.42
-3.19
-3.84
-4.21
-4.20
-3.84
-3.19
-2.34
-1.37
-0.33
0.72
1.74
2.70
3.58
4.37
5.03
5.55
5.86
5.96
5.83
5.53
5.13
4.77
4.52
4.45
4.59
4.87
5.22
5.52
5.67
5.61
5.35
4.95
4.49
4.02
3.56
3.11
2.68
2.28
1.93
1.65
1.39
1.08
0.68
0.21
-0.30
-0.78
-1.20
-1.57
-1.93
-2.30
-2.68
-3.04
-3.37
-3.65
-3.88
-4.12
-4.38
-4.74
-5.25
-5.95
-6.83
-7.81
-8.75
-9.48
-9.86
-9.78
-9.23
-8.21
-6.81
-5.10
-3.23
-1.36
0.32
1.65
2.54
3.01
3.18
3.21
3.24
3.30
3.36
3.33
3.19
2.96
2.72
2.57
2.55
2.65
2.83
3.02
3.15
3.15
3.00
2.70
2.32
1.94
1.63
1.42
1.25
1.04
0.76
0.43
0.12
-0.09
-0.21
-0.32
-0.51
-0.83
-1.30
-1.85
-2.42
-2.94
-3.37
-3.68
-3.84
-3.87
-3.79
-3.68
-3.61
-3.64
-3.76
-3.95
-4.16
-4.40
-4.72
-5.18
-5.79
-6.46
-7.05
-7.36
-7.23
-6.61
-5.58
-4.27
-2.83
-1.34
0.14
1.58
2.94
4.17
5.21
6.05
6.73
7.26
7.64
7.86
7.86
7.67
7.38
7.14
7.08
7.25
7.62
8.04
8.38
8.55
8.52
8.31
7.96
7.50
6.93
6.30
5.67
5.10
4.60
4.16
3.76
3.37
2.96
2.48
1.91
1.23
0.47
-0.26
-0.88
-1.30
-1.59
-1.85
-2.23
-2.79
-3.50
-4.26
-4.97
-5.59
-6.13
-6.61
-7.03
-7.32
-7.39
-7.18
-6.69
-5.94
-4.97
-3.85
-2.62
-1.36
-0.14
0.95
1.90
2.68
3.29
3.71
3.92
3.94
3.85
3.73
3.69
3.79
4.02
4.35
4.70
5.00
5.21
5.27
5.14
4.81
4.28
3.64
2.97
2.38
1.91
1.59
1.40
1.29
1.21
1.09
0.84
0.41
-0.20
-0.98
-1.81
-2.56
-3.11
-3.37
-3.36
-3.20
-3.06
-3.11
-3.42
-3.95
-4.55
-5.08
-5.44
-5.69
-5.97
-6.39
-6.98
-7.62
-8.10
-8.21
-7.86
-7.10
-6.08
-4.99
-3.94
-2.97
-2.07
-1.20
-0.38
0.36
0.95
1.37
1.64
1.81
1.95
2.10
2.30
2.54
2.82
3.09
3.27
3.30
3.14
2.85
2.52
2.24
2.05
1.89
1.67
1.29
0.72
0.06
-0.56
-0.99
-1.18
-1.17
-1.12
-1.17
-1.40
-1.77
-2.17
-2.46
-2.61
-2.65
-2.69
-2.84
-3.11
-3.45
-3.76
-3.98
-4.11
-4.21
-4.33
-4.45
-4.59
-4.72
-4.89
-5.17
-5.64
-6.29
-7.03
-7.70
-8.14
-8.28
-8.10
-7.65
-6.99
-6.13
-5.08
-3.90
-2.64
-1.40
-0.23
0.85
1.83
2.73
3.49
4.10
4.53
4.84
5.15
5.55
6.04
6.56
7.00
7.25
7.32
7.27
7.20
7.17
7.20
7.24
7.23
7.13
6.92
6.58
6.17
5.70
5.23
4.79
4.37
3.97
3.59
3.21
2.83
2.44
2.00
1.48
0.86
0.13
-0.65
-1.45
-2.21
-2.94
-3.62
-4.24
-4.80
-5.25
-5.54
-5.62
-5.45
-5.01
-4.33
-3.41
-2.32
-1.13
0.10
1.28
2.30
3.07
3.54
3.69
3.61
3.47
3.47
3.72
4.24
4.87
5.42
5.74
5.76
5.55
5.25
4.97
4.78
4.67
4.57
4.45
4.25
3.96
3.55
3.01
2.38
1.71
1.10
0.59
0.20
-0.09
-0.34
-0.62
-0.99
-1.53
-2.28
-3.18
-4.14
-4.96
-5.45
-5.56
-5.37
-5.15
-5.19
-5.67
-6.58
-7.70
-8.68
-9.22
-9.17
-8.53
-7.45
-6.12
-4.77
-3.61
-2.80
-2.40
-2.39
-2.67
-3.05
-3.40
-3.63
-3.80
-3.98
-4.28
-4.71
-5.21
-5.66
-5.95
-6.05
-5.96
-5.69
-5.22
-4.54
-3.60
-2.40
-0.94
0.70
2.44
4.23
6.02
7.75
9.36
10.70
11.60
11.91
11.56
10.64
9.37
8.03
6.90
6.12
5.69
5.48
5.33
5.13
4.78
4.22
3.39
2.27
0.96
-0.33
-1.35
-1.92
-2.04
-1.89
-1.76
-1.88
-2.37
-3.18
-4.19
-5.27
-6.31
-7.19
-7.82
-8.12
-8.11
-7.87
-7.55
-7.24
-6.94
-6.56
-5.97
-5.17
-4.25
-3.41
-2.82
-2.51
-2.40
-2.33
-2.18
-1.91
-1.52
-1.06
-0.51
0.13
0.89
1.72
2.49
3.09
3.44
3.59
3.70
3.93
4.38
5.10
6.06
7.27
8.81
10.74
13.08
15.65
18.06
19.82
20.52
19.93
18.13
15.39
12.08
8.50
4.91
1.53
-1.42
-3.70
-5.15
-5.77
-5.79
-5.58
-5.49
-5.75
-6.37
-7.26
-8.27
-9.28
-10.15
-10.76
-10.95
-10.62
-9.77
-8.53
-7.15
-5.88
-4.89
-4.23
-3.80
-3.49
-3.15
-2.64
-1.89
-0.88
0.35
1.68
2.93
3.92
4.52
4.73
4.66
4.48
4.40
4.50
4.79
5.14
5.37
5.27
4.75
3.82
2.60
1.26
-0.02
-1.15
-2.06
-2.75
-3.29
-3.72
-4.12
-4.54
-4.98
-5.37
-5.63
-5.70
-5.58
-5.39
-5.26
-5.35
-5.73
-6.38
-7.25
-8.21
-9.16
-10.02
-10.72
-11.21
-11.47
-11.48
-11.24
-10.78
-10.11
-9.24
-8.21
-7.09
-5.96
-4.91
-4.01
-3.27
-2.66
-2.11
-1.52
-0.83
0.01
0.99
2.09
3.26
4.49
5.80
7.25
8.92
10.86
13.00
15.15
17.04
18.37
18.97
18.80
17.98
16.67
15.05
13.22
11.22
9.11
6.96
4.91
3.09
1.56
0.29
-0.80
-1.80
-2.71
-3.48
-4.03
-4.32
-4.36
-4.15
-3.73
-3.05
-2.09
-0.86
0.60
2.19
3.84
5.49
7.11
8.63
9.95
10.91
11.45
11.60
11.53
11.44
11.49
11.69
11.95
12.13
12.08
11.75
11.08
10.02
8.54
6.65
4.48
2.27
0.31
-1.22
-2.30
-3.06
-3.71
-4.40
-5.13
-5.80
-6.20
-6.23
-5.90
-5.34
-4.80
-4.50
-4.57
-5.02
-5.73
-6.49
-7.11
-7.47
-7.53
-7.40
-7.17
-6.96
-6.76
-6.54
-6.23
-5.84
-5.45
-5.18
-5.10
-5.20
-5.38
-5.49
-5.48
-5.32
-5.11
-4.94
-4.88
-4.95
-5.16
-5.51
-5.96
-6.47
-6.96
-7.32
-7.41
-7.08
-6.27
-4.97
-3.30
-1.48
0.16
1.34
1.93
1.99
1.76
1.52
1.42
1.48
1.61
1.70
1.78
1.95
2.30
2.83
3.42
3.89
4.12
4.12
4.02
3.96
3.99
4.06
4.02
3.75
3.23
2.56
1.89
1.37
1.10
1.07
1.22
1.42
1.54
1.46
1.13
0.56
-0.15
-0.87
-1.48
-1.94
-2.28
-2.57
-2.88
-3.22
-3.60
-3.96
-4.34
-4.75
-5.20
-5.62
-5.87
-5.79
-5.31
-4.42
-3.23
-1.92
-0.59
0.68
1.89
3.01
4.00
4.82
5.43
5.83
6.06
6.16
6.16
6.06
5.87
5.63
5.40
5.25
5.22
5.30
5.43
5.52
5.50
5.36
5.13
4.90
4.76
4.72
4.74
4.74
4.63
4.40
4.08
3.76
3.51
3.32
3.12
2.78
2.23
1.44
0.50
-0.50
-1.42
-2.21
-2.85
-3.37
-3.78
-4.11
-4.38
-4.65
-5.00
-5.48
-6.10
-6.79
-7.48
-8.05
-8.48
-8.77
-8.93
-8.94
-8.73
-8.21
-7.34
-6.15
-4.75
-3.29
-1.89
-0.64
0.42
1.24
1.83
2.22
2.47
2.63
2.74
2.76
2.65
2.37
1.95
1.50
1.16
0.98
0.95
0.97
0.92
0.70
0.32
-0.18
-0.74
-1.32
-1.92
-2.55
-3.22
-3.90
-4.60
-5.33
-6.12
-7.02
-8.08
-9.27
-10.53
-11.79
-12.95
-14.00
-14.95
-15.80
-16.56
-17.14
-17.43
-17.28
-16.54
-15.14
-13.10
-10.55
-7.68
-4.69
-1.73
1.06
3.56
5.66
7.27
8.36
9.00
9.34
9.57
9.82
10.13
10.44
10.65
10.71
10.62
10.46
10.31
10.24
10.25
10.27
10.24
10.10
9.84
9.48
9.03
8.53
7.98
7.40
6.86
6.43
6.16
6.08
6.17
6.30
6.34
6.20
5.87
5.39
4.85
4.34
3.89
3.47
3.06
2.62
2.15
1.67
1.20
0.73
0.25
-0.29
-0.88
-1.48
-2.01
-2.37
-2.54
-2.61
-2.71
-3.00
-3.51
-4.14
-4.72
-5.11
-5.31
-5.45
-5.73
-6.27
-7.05
-7.91
-8.67
-9.14
-9.22
-8.88
-8.05
-6.62
-4.51
-1.66
1.80
5.58
9.24
12.32
14.47
15.59
15.83
15.49
14.89
14.22
13.51
12.65
11.54
10.18
8.66
7.13
5.66
4.26
2.88
1.46
0.03
-1.31
-2.43
-3.29
-3.91
-4.40
-4.85
-5.32
-5.79
-6.17
-6.36
-6.28
-5.91
-5.32
-4.62
-3.97
-3.49
-3.27
-3.30
-3.50
-3.71
-3.75
-3.53
-3.06
-2.45
-1.86
-1.46
-1.31
-1.41
-1.72
-2.19
-2.78
-3.45
-4.14
-4.73
-5.09
-5.14
-4.90
-4.53
-4.27
-4.31
-4.79
-5.62
-6.61
-7.50
-8.03
-8.07
-7.62
-6.74
-5.55
-4.15
-2.62
-1.04
0.52
1.98
3.30
4.45
5.44
6.26
6.91
7.36
7.59
7.64
7.54
7.35
7.12
6.92
6.79
6.77
6.86
7.03
7.18
7.20
7.02
6.58
5.97
5.27
4.60
4.04
3.60
3.22
2.86
2.44
1.97
1.48
1.01
0.58
0.15
-0.34
-0.96
-1.68
-2.41
-3.02
-3.38
-3.46
-3.32
-3.12
-3.01
-3.07
-3.35
-3.79
-4.37
-5.05
-5.83
-6.71
-7.62
-8.42
-8.92
-8.96
-8.45
-7.42
-6.01
-4.40
-2.81
-1.37
-0.17
0.78
1.50
2.05
2.48
2.88
3.29
3.74
4.23
4.70
5.06
5.26
5.28
5.16
4.97
4.80
4.71
4.71
4.77
4.81
4.77
4.59
4.25
3.76
3.13
2.41
1.66
0.94
0.28
-0.30
-0.81
-1.29
-1.79
-2.36
-3.02
-3.78
-4.62
-5.44
-6.14
-6.57
-6.65
-6.37
-5.84
-5.27
-4.92
-4.97
-5.53
-6.50
-7.72
-8.94
-9.98
-10.76
-11.31
-11.76
-12.22
-12.76
-13.36
-13.92
-14.31
-14.40
-14.11
-13.43
-12.39
-11.10
-9.63
-8.04
-6.30
-4.29
-1.91
0.89
3.99
7.12
9.92
12.07
13.41
13.96
13.94
13.58
13.10
12.65
12.31
12.12
12.12
12.27
12.50
12.69
12.75
12.62
12.34
12.00
11.65
11.27
10.80
10.16
9.33
8.38
7.41
6.55
5.82
5.13
4.35
3.39
2.24
1.06
0.02
-0.72
-1.19
-1.54
-2.00
-2.76
-3.80
-4.97
-5.98
-6.62
-6.86
-6.81
-6.74
-6.89
-7.39
-8.23
-9.28
-10.36
-11.35
-12.17
-12.70
-12.87
-12.55
-11.71
-10.42
-8.87
-7.22
-5.57
-3.90
-2.13
-0.23
1.70
3.43
4.74
5.55
5.93
6.12
6.35
6.76
7.33
7.95
8.53
8.99
9.35
9.64
9.87
10.02
10.01
9.78
9.32
8.68
7.95
7.26
6.69
6.27
5.94
5.59
5.12
4.45
3.59
2.59
1.52
0.48
-0.44
-1.19
-1.73
-2.10
-2.33
-2.51
-2.71
-2.99
-3.38
-3.87
-4.49
-5.27
-6.22
-7.36
-8.60
-9.78
-10.68
-11.11
-10.91
-10.09
-8.76
-7.12
-5.37
-3.66
-2.08
-0.66
0.62
1.76
2.76
3.59
4.25
4.74
5.09
5.32
5.39
5.23
4.80
4.13
3.36
2.74
2.47
2.64
3.16
3.85
4.42
4.70
4.65
4.33
3.86
3.37
2.93
2.57
2.31
2.16
2.15
2.33
2.72
3.28
3.91
4.47
4.83
4.90
4.72
4.38
4.06
3.88
3.88
3.96
3.95
3.66
2.95
1.84
0.41
-1.21
-2.95
-4.78
-6.76
-8.94
-11.33
-13.84
-16.34
-18.71
-20.85
-22.66
-24.06
-24.91
-25.10
-24.61
-23.54
-22.11
-20.60
-19.16
-17.81
-16.38
-14.61
-12.30
-9.38
-6.00
-2.43
1.01
4.09
6.71
8.93
10.86
12.65
14.35
15.99
17.59
19.19
20.83
22.52
24.14
25.43
26.10
25.95
24.98
23.38
21.48
19.52
17.63
15.73
13.71
11.48
9.12
6.79
4.70
2.99
1.62
0.43
-0.77
-2.08
-3.48
-4.78
-5.80
-6.41
-6.64
-6.66
-6.71
-6.92
-7.33
-7.82
-8.27
-8.57
-8.73
-8.79
-8.83
-8.87
-8.88
-8.76
-8.47
-7.92
-7.12
-6.10
-4.98
-3.91
-3.09
-2.68
-2.71
-3.02
-3.33
-3.35
-2.89
-1.98
-0.86
0.14
0.67
0.53
-0.33
-1.78
-3.51
-5.12
-6.16
-6.30
-5.46
-3.84
-1.91
-0.16
1.10
1.93
2.71
3.96
6.02
8.91
12.24
15.41
17.81
19.07
19.02
17.69
15.27
12.03
8.30
4.51
1.06
-1.76
-3.92
-5.61
-7.14
-8.75
-10.53
-12.37
-14.03
-15.32
-16.13
-16.52
-16.62
-16.56
-16.42
-16.13
-15.53
-14.40
-12.57
-9.94
-6.60
-2.76
1.24
5.00
8.16
10.38
11.42
11.20
9.86
7.80
5.57
3.76
2.77
2.69
3.25
4.04
4.75
5.31
5.90
6.83
8.32
10.35
12.71
15.09
17.19
18.79
19.73
19.85
19.06
17.34
14.86
11.95
8.99
6.28
3.95
1.97
0.26
-1.19
-2.33
-3.10
-3.48
-3.60
-3.62
-3.67
-3.78
-3.86
-3.86
-3.82
-3.90
-4.21
-4.74
-5.29
-5.50
-5.11
-3.98
-2.24
-0.20
1.72
3.12
3.74
3.49
2.47
0.92
-0.80
-2.41
-3.75
-4.74
-5.43
-5.81
-5.79
-5.19
-3.86
-1.72
1.16
4.54
8.13
11.59
14.67
17.24
19.29
20.96
22.43
23.83
25.23
26.56
27.68
28.44
28.75
28.63
28.22
27.75
27.48
27.56
28.03
28.77
29.57
30.23
30.66
30.86
30.97
31.11
31.34
31.58
31.58
30.96
29.30
26.24
21.67
15.82
9.25
2.70
-3.07
-7.51
-10.45
-12.08
-12.83
-13.23
-13.66
-14.23
-14.70
-14.61
-13.43
-10.80
-6.65
-1.32
4.66
10.65
16.18
21.00
25.09
28.49
31.15
32.87
33.33
32.26
29.63
25.69
20.97
16.08
11.49
7.46
4.00
1.05
-1.43
-3.36
-4.68
-5.43
-5.79
-6.08
-6.55
-7.29
-8.19
-9.01
-9.55
-9.75
-9.66
-9.44
-9.29
-9.38
-9.86
-10.86
-12.32
-14.08
-15.87
-17.45
-18.76
-19.89
-20.99
-22.10
-22.99
-23.29
-22.65
-21.02
-18.73
-16.41
-14.68
-13.90
-14.06
-14.86
-15.90
-16.86
-17.58
-18.04
-18.32
-18.47
-18.56
-18.56
-18.43
-18.08
-17.41
-16.42
-15.19
-13.90
-12.73
-11.81
-11.16
-10.70
-10.38
-10.18
-10.16
-10.39
-10.90
-11.61
-12.32
-12.80
-12.84
-12.30
-11.18
-9.61
-7.81
-6.08
-4.68
-3.77
-3.37
-3.35
-3.55
-3.84
-4.20
-4.73
-5.55
-6.73
-8.22
-9.84
-11.34
-12.52
-13.28
-13.69
-13.93
-14.19
-14.61
-15.21
-15.91
-16.63
-17.30
-17.90
-18.41
-18.77
-18.87
-18.64
-18.11
-17.40
-16.73
-16.23
-15.93
-15.63
-15.03
-13.83
-11.92
-9.42
-6.65
-4.01
-1.78
-0.14
0.92
1.50
1.67
1.54
1.17
0.71
0.38
0.41
0.93
1.93
3.19
4.34
5.05
5.11
4.51
3.45
2.22
1.13
0.35
-0.07
-0.20
-0.15
-0.02
0.16
0.39
0.63
0.82
0.83
0.61
0.18
-0.37
-0.88
-1.27
-1.54
-1.79
-2.11
-2.50
-2.86
-3.04
-2.92
-2.56
-2.13
-1.87
-1.99
-2.55
-3.51
-4.80
-6.39
-8.33
-10.62
-13.18
-15.75
-17.95
-19.40
-19.91
-19.49
-18.41
-17.02
-15.65
-14.51
-13.63
-12.95
-12.25
-11.35
-10.07
-8.43
-6.61
-4.99
-3.95
-3.74
-4.31
-5.34
-6.39
-7.07
-7.24
-7.04
-6.72
-6.47
-6.32
-6.12
-5.71
-5.02
-4.17
-3.37
-2.88
-2.83
-3.26
-4.12
-5.29
-6.59
-7.79
-8.60
-8.79
-8.25
-7.10
-5.65
-4.24
-3.04
-2.02
-1.01
0.14
1.42
2.64
3.51
3.87
3.71
3.19
2.48
1.60
0.47
-1.13
-3.35
-6.20
-9.53
-12.99
-16.14
-18.51
-19.78
-19.81
-18.78
-17.09
-15.22
-13.49
-11.95
-10.36
-8.31
-5.47
-1.79
2.45
6.74
10.59
13.68
16.04
17.87
19.41
20.74
21.69
21.90
21.05
19.08
16.29
13.27
10.64
8.83
7.96
7.88
8.31
9.00
9.82
10.71
11.68
12.70
13.72
14.65
15.38
15.81
15.83
15.35
14.37
12.98
11.29
9.45
7.58
5.77
4.07
2.53
1.17
-0.01
-1.06
-2.04
-3.06
-4.18
-5.43
-6.76
-8.03
-9.06
-9.72
-9.99
-10.01
-9.98
-10.11
-10.46
-10.89
-11.15
-10.97
-10.15
-8.67
-6.65
-4.30
-1.82
0.59
2.82
4.81
6.60
8.23
9.77
11.20
12.49
13.57
14.41
15.05
15.52
15.83
15.89
15.57
14.75
13.45
11.90
10.44
9.43
9.04
9.15
9.47
9.62
9.37
8.66
7.66
6.55
5.45
4.35
3.18
1.83
0.34
-1.21
-2.68
-3.98
-5.10
-6.09
-7.05
-8.04
-9.12
-10.37
-11.82
-13.48
-15.30
-17.17
-18.92
-20.42
-21.58
-22.38
-22.92
-23.35
-23.86
-24.57
-25.51
-26.58
-27.55
-28.12
-28.03
-27.09
-25.25
-22.61
-19.33
-15.63
-11.74
-7.88
-4.28
-1.11
1.54
3.66
5.33
6.73
8.00
9.23
10.36
11.23
11.61
11.35
10.48
9.18
7.79
6.58
5.71
5.08
4.48
3.65
2.51
1.18
-0.03
-0.79
-0.89
-0.31
0.83
2.35
4.15
6.18
8.36
10.53
12.36
13.53
13.82
13.21
11.92
10.26
8.51
6.82
5.23
3.67
2.04
0.24
-1.85
-4.32
-7.23
-10.50
-13.87
-16.91
-19.14
-20.18
-19.82
-18.16
-15.49
-12.29
-9.08
-6.29
-4.20
-2.83
-1.99
-1.33
-0.56
0.51
1.82
3.15
4.25
4.99
5.44
5.81
6.34
7.13
8.16
9.25
10.21
10.99
11.68
12.47
13.54
14.95
16.64
18.42
20.09
21.50
22.52
23.08
23.15
22.75
21.96
20.90
19.70
18.45
17.20
15.96
14.65
13.23
11.63
9.81
7.76
5.54
3.24
1.03
-0.99
-2.74
-4.25
-5.64
-7.07
-8.70
-10.64
-12.87
-15.26
-17.58
-19.53
-20.85
-21.34
-20.93
-19.63
-17.53
-14.79
-11.64
-8.38
-5.30
-2.64
-0.49
1.18
2.54
3.77
5.00
6.30
7.66
9.08
10.58
12.18
13.89
15.66
17.36
18.88
20.13
21.07
21.74
22.16
22.39
22.42
22.31
22.10
21.89
21.71
21.55
21.29
20.80
19.92
18.60
16.89
14.96
12.99
11.16
9.57
8.22
7.05
5.97
4.90
3.73
2.37
0.69
-1.33
-3.66
-6.11
-8.45
-10.46
-12.05
-13.34
-14.53
-15.83
-17.31
-18.86
-20.23
-21.14
-21.37
-20.78
-19.32
-17.02
-13.98
-10.44
-6.75
-3.30
-0.42
1.77
3.35
4.59
5.71
6.87
8.09
9.27
10.35
11.29
12.13
12.91
13.65
14.36
15.05
15.75
16.46
17.15
17.66
17.80
17.41
16.50
15.28
14.12
13.39
13.28
13.71
14.38
14.88
14.92
14.41
13.46
12.30
11.07
9.82
8.51
7.10
5.60
4.09
2.59
1.07
-0.62
-2.62
-4.96
-7.52
-10.01
-12.09
-13.47
-14.02
-13.76
-12.83
-11.43
-9.81
-8.18
-6.73
-5.54
-4.58
-3.73
-2.83
-1.76
-0.53
0.73
1.80
2.47
2.66
2.39
1.82
1.15
0.54
0.10
-0.11
-0.10
0.15
0.60
1.22
1.91
2.51
2.83
2.75
2.27
1.48
0.60
-0.19
-0.80
-1.21
-1.52
-1.79
-2.07
-2.35
-2.63
-2.91
-3.25
-3.70
-4.26
-4.90
-5.55
-6.15
-6.68
-7.19
-7.72
-8.30
-8.87
-9.35
-9.70
-9.95
-10.23
-10.69
-11.43
-12.35
-13.23
-13.74
-13.61
-12.75
-11.25
-9.35
-7.32
-5.36
-3.56
-1.88
-0.30
1.22
2.60
3.73
4.54
5.00
5.19
5.21
5.19
5.17
5.17
5.19
5.23
5.34
5.53
5.81
6.10
6.30
6.31
6.10
5.68
5.12
4.47
3.79
3.11
2.44
1.82
1.26
0.77
0.35
-0.06
-0.53
-1.14
-1.92
-2.85
-3.83
-4.74
-5.45
-5.95
-6.31
-6.65
-7.03
-7.49
-7.94
-8.29
-8.48
-8.51
-8.40
-8.16
-7.75
-7.07
-6.07
-4.75
-3.23
-1.69
-0.30
0.80
1.61
2.15
2.49
2.66
2.63
2.39
1.93
1.34
0.76
0.35
0.25
0.52
1.12
1.97
2.87
3.66
4.17
4.31
4.12
3.70
3.24
2.87
2.62
2.42
2.15
1.75
1.26
0.80
0.48
0.32
0.21
0.01
-0.41
-1.04
-1.73
-2.31
-2.66
-2.79
-2.89
-3.21
-3.91
-5.03
-6.43
-7.87
-9.14
-10.12
-10.74
-11.02
-10.95
-10.53
-9.78
-8.74
-7.54
-6.27
-5.04
-3.89
-2.85
-1.91
-1.10
-0.44
0.07
0.41
0.62
0.70
0.71
0.72
0.82
1.08
1.51
2.03
2.55
2.94
3.21
3.41
3.65
4.00
4.44
4.85
5.08
5.06
4.82
4.47
4.10
3.77
3.42
2.98
2.44
1.81
1.20
0.72
0.42
0.29
0.26
0.24
0.18
0.05
-0.17
-0.46
-0.85
-1.33
-1.88
-2.44
-3.00
-3.52
-4.01
-4.50
-5.02
-5.63
-6.34
-7.13
-7.97
-8.78
-9.46
-9.89
-9.96
-9.56
-8.64
-7.22
-5.41
-3.38
-1.35
0.51
2.12
3.47
4.66
5.78
6.86
7.90
8.89
9.81
10.73
11.74
12.89
14.20
15.63
17.04
18.34
19.48
20.51
21.55
22.72
24.14
25.75
27.39
28.75
29.57
29.66
29.04
27.97
26.81
25.99
25.89
26.72
28.49
30.93
33.51
35.51
36.19
34.99
31.82
27.12
21.88
17.26
14.32
13.59
15.04
18.10
21.99
25.95
29.48
32.34
34.46
35.95
36.94
37.63
38.21
38.72
39.06
38.88
37.75
35.33
31.50
26.52
20.90
15.29
10.27
6.19
3.18
1.15
-0.13
-0.91
-1.50
-2.16
-3.12
-4.48
-6.25
-8.28
-10.34
-12.24
-13.85
-15.13
-16.11
-16.80
-17.22
-17.38
-17.36
-17.28
-17.36
-17.79
-18.67
-20.01
-21.68
-23.50
-25.31
-26.99
-28.52
-29.95
-31.34
-32.75
-34.19
-35.65
-37.06
-38.33
-39.38
-40.01
-40.04
-39.26
-37.59
-35.11
-32.10
-28.91
-25.84
-23.04
-20.52
-18.19
-15.99
-13.97
-12.16
-10.62
-9.28
-8.08
-6.93
-5.84
-4.84
-3.97
-3.20
-2.41
-1.53
-0.58
0.32
1.01
1.38
1.47
1.45
1.47
1.64
1.89
2.10
2.16
2.04
1.81
1.57
1.35
1.09
0.67
0.03
-0.80
-1.69
-2.50
-3.12
-3.61
-4.10
-4.73
-5.61
-6.72
-7.96
-9.26
-10.56
-11.89
-13.32
-14.93
-16.77
-18.85
-21.16
-23.66
-26.33
-29.11
-31.83
-34.31
-36.30
-37.64
-38.22
-38.07
-37.25
-35.82
-33.86
-31.49
-28.96
-26.60
-24.75
-23.62
-23.17
-23.12
-23.11
-22.77
-21.91
-20.51
-18.73
-16.88
-15.27
-14.19
-13.75
-13.84
-14.12
-14.22
-13.84
-12.99
-11.94
-11.08
-10.68
-10.78
-11.15
-11.50
-11.66
-11.67
-11.73
-12.05
-12.62
-13.27
-13.70
-13.67
-13.20
-12.55
-12.08
-12.05
-12.50
-13.22
-13.92
-14.38
-14.61
-14.84
-15.35
-16.31
-17.67
-19.11
-20.23
-20.66
-20.21
-18.89
-16.83
-14.23
-11.24
-8.01
-4.67
-1.43
1.49
3.90
5.71
7.01
8.01
8.95
10.02
11.27
12.63
13.93
15.08
16.05
16.89
17.71
18.56
19.40
20.17
20.80
21.24
21.49
21.53
21.29
20.75
19.92
18.93
17.93
17.13
16.60
16.31
16.10
15.81
15.36
14.77
14.13
13.54
12.97
12.34
11.53
10.49
9.30
8.12
7.13
6.39
5.85
5.34
4.67
3.72
2.47
1.01
-0.55
-2.11
-3.56
-4.78
-5.59
-5.80
-5.30
-4.06
-2.18
0.14
2.69
5.30
7.83
10.18
12.24
13.91
15.11
15.83
16.17
16.27
16.32
16.48
16.82
17.32
17.91
18.46
18.89
19.14
19.20
19.10
18.89
18.59
18.27
17.93
17.61
17.29
16.95
16.52
15.91
15.09
14.05
12.89
11.78
10.85
10.19
9.76
9.45
9.12
8.64
7.93
6.99
5.81
4.44
2.96
1.48
0.15
-0.93
-1.77
-2.47
-3.19
-4.11
-5.34
-6.93
-8.84
-10.95
-13.06
-14.87
-16.00
-16.10
-15.00
-12.78
-9.79
-6.51
-3.38
-0.64
1.68
3.67
5.46
7.11
8.61
9.89
10.88
11.58
12.04
12.34
12.60
12.86
13.13
13.38
13.55
13.61
13.61
13.65
13.80
14.05
14.30
14.40
14.22
13.73
13.00
12.17
11.36
10.64
9.98
9.31
8.59
7.78
6.92
6.06
5.28
4.59
3.96
3.34
2.67
1.92
1.09
0.24
-0.58
-1.32
-1.97
-2.58
-3.20
-3.94
-4.88
-6.09
-7.55
-9.15
-10.66
-11.80
-12.28
-11.92
-10.71
-8.81
-6.55
-4.25
-2.16
-0.37
1.17
2.55
3.83
4.97
5.87
6.42
6.59
6.48
6.25
6.08
6.04
6.13
6.28
6.43
6.56
6.71
6.87
7.01
7.03
6.85
6.42
5.80
5.06
4.30
3.54
2.72
1.77
0.66
-0.61
-1.94
-3.26
-4.54
-5.76
-6.95
-8.13
-9.29
-10.42
-11.54
-12.73
-14.02
-15.43
-16.87
-18.13
-18.97
-19.19
-18.67
-17.45
-15.65
-13.41
-10.90
-8.26
-5.66
-3.28
-1.32
0.10
1.04
1.66
2.22
2.94
3.88
4.97
6.06
7.00
7.74
8.33
8.89
9.51
10.26
11.17
12.20
13.29
14.36
15.30
16.01
16.40
16.46
16.23
15.78
15.21
14.65
14.16
13.83
13.65
13.55
13.37
12.94
12.11
10.88
9.32
7.63
5.97
4.50
3.26
2.23
1.32
0.47
-0.40
-1.35
-2.43
-3.69
-5.13
-6.70
-8.24
-9.52
-10.29
-10.36
-9.69
-8.44
-6.85
-5.20
-3.66
-2.30
-1.10
-0.05
0.84
1.50
1.91
2.11
2.21
2.37
2.69
3.21
3.86
4.53
5.08
5.42
5.54
5.51
5.44
5.43
5.54
5.71
5.85
5.88
5.76
5.54
5.31
5.11
4.95
4.74
4.41
3.99
3.52
3.10
2.77
2.52
2.26
1.95
1.58
1.18
0.77
0.33
-0.20
-0.90
-1.77
-2.78
-3.79
-4.67
-5.33
-5.72
-5.89
-5.97
-6.10
-6.41
-6.96
-7.71
-8.55
-9.42
-10.25
-11.00
-11.59
-11.90
-11.74
-11.00
-9.66
-7.87
-5.84
-3.84
-2.11
-0.76
0.19
0.80
1.21
1.57
2.00
2.51
3.03
3.47
3.72
3.80
3.79
3.78
3.86
4.01
4.19
4.33
4.40
4.39
4.34
4.25
4.14
3.96
3.71
3.37
2.98
2.56
2.15
1.75
1.36
0.92
0.42
-0.15
-0.75
-1.32
-1.83
-2.26
-2.65
-3.06
-3.52
-4.04
-4.60
-5.21
-5.87
-6.64
-7.52
-8.49
-9.46
-10.30
-10.86
-11.02
-10.70
-9.93
-8.80
-7.46
-6.08
-4.78
-3.65
-2.69
-1.85
-1.06
-0.31
0.39
0.97
1.40
1.68
1.85
1.96
2.02
2.06
2.08
2.13
2.28
2.62
3.17
3.92
4.74
5.50
6.07
6.41
6.55
6.59
6.61
6.67
6.78
6.94
7.14
7.36
7.58
7.76
7.85
7.75
7.39
6.77
5.94
4.97
3.93
2.89
1.86
0.83
-0.22
-1.29
-2.39
-3.49
-4.59
-5.64
-6.63
-7.54
-8.41
-9.33
