1653116860.00
64.000000
-0.00
-0.00
-0.00
-0.00
-0.00
-0.00
-0.00
-0.00
-0.00
-0.00
0.00
0.01
0.01
-0.00
-0.03
-0.05
-0.05
0.00
0.13
0.36
0.66
1.01
1.37
1.72
2.06
2.40
2.79
3.24
3.80
4.42
5.06
5.66
6.20
6.68
7.15
7.68
8.31
9.14
10.09
11.04
11.88
12.56
13.14
13.76
14.65
15.96
17.91
20.32
22.90
25.38
27.58
29.57
31.68
34.32
37.81
42.54
48.15
54.11
59.84
64.98
69.58
74.14
79.34
85.70
93.77
103.03
112.67
121.78
129.77
136.66
143.08
150.37
157.26
166.05
177.32
191.17
206.36
219.94
227.54
224.54
207.57
175.80
131.64
78.95
22.02
-35.97
-93.53
-150.46
-206.85
-262.34
-315.99
-366.24
-412.15
-453.11
-488.69
-518.16
-540.24
-553.11
-554.82
-544.02
-520.27
-484.73
-439.71
-388.20
-333.19
-277.14
-221.66
-167.62
-115.54
-65.86
-19.50
22.34
58.39
87.76
110.24
126.51
137.86
145.75
151.39
155.30
157.44
157.41
154.81
149.40
141.15
130.32
117.63
104.65
93.75
87.73
88.75
97.21
111.18
126.93
140.23
147.98
149.18
144.77
136.81
127.21
117.04
106.57
95.80
84.96
74.72
65.99
59.10
53.73
49.13
44.33
38.78
32.55
26.34
21.15
17.79
16.48
16.77
17.71
18.24
17.60
15.61
12.61
9.27
6.27
3.99
2.52
1.64
0.98
0.29
-0.55
-1.47
-2.34
-3.09
-3.76
-4.48
-5.29
-5.98
-6.13
-5.34
-3.52
-1.10
1.06
2.06
1.38
-0.81
-3.77
-6.54
-8.39
-9.12
-9.02
-8.62
-8.35
-8.38
-8.63
-8.85
-8.85
-8.51
-7.83
-6.83
-5.63
-4.29
-2.83
-1.29
0.30
1.85
3.22
4.23
4.78
4.78
4.28
3.40
2.35
1.34
0.58
0.24
0.34
0.79
1.38
1.86
2.04
1.77
1.06
0.05
-0.93
-1.46
-1.12
0.38
2.97
6.23
9.35
11.44
11.75
10.05
6.74
2.75
-0.82
-3.09
-3.72
-2.96
-1.45
0.13
1.38
2.15
2.47
2.25
1.23
-0.91
-4.25
-8.44
-12.63
-15.87
-17.39
-16.96
-14.95
-12.09
-9.15
-6.70
-4.97
-3.94
-3.47
-3.39
-3.53
-3.74
-3.90
-3.93
-3.80
-3.56
-3.25
-2.89
-2.49
-2.05
-1.60
-1.26
-1.14
-1.29
-1.66
-2.13
-2.53
-2.77
-2.84
-2.79
-2.72
-2.66
-2.60
-2.49
-2.30
-2.00
-1.66
-1.33
-1.11
-1.07
-1.25
-1.63
-2.14
-2.68
-3.16
-3.55
-3.82
-3.94
-3.87
-3.52
-2.76
-1.53
0.20
2.32
4.63
6.86
8.76
10.21
11.24
11.95
12.47
12.82
12.97
12.86
12.48
11.92
11.34
10.86
10.55
10.35
10.17
9.89
9.44
8.80
8.00
7.14
6.32
5.59
4.98
4.43
3.87
3.24
2.48
1.58
0.56
-0.60
-1.91
-3.39
-5.00
-6.66
-8.21
-9.52
-10.53
-11.29
-11.95
-12.71
-13.76
-15.18
-16.93
-18.77
-20.36
-21.30
-21.29
-20.20
-18.10
-15.29
-12.16
-9.09
-6.37
-4.12
-2.32
-0.89
0.22
1.03
1.49
1.58
1.33
0.86
0.36
-0.01
-0.10
0.14
0.73
1.68
3.02
4.79
6.98
9.49
12.12
14.60
16.68
18.20
19.16
19.70
20.03
20.33
20.67
20.96
21.06
20.80
20.11
19.04
17.74
16.37
15.06
13.76
12.33
10.56
8.31
5.62
2.75
0.07
-2.06
-3.49
-4.36
-4.99
-5.71
-6.75
-8.09
-9.59
-11.04
-12.30
-13.34
-14.23
-15.05
-15.89
-16.83
-17.89
-19.06
-20.30
-21.57
-22.82
-24.00
-25.06
-25.90
-26.37
-26.33
-25.73
-24.65
-23.28
-21.91
-20.72
-19.78
-19.00
-18.18
-17.16
-15.82
-14.10
-12.07
-9.83
-7.54
-5.39
-3.57
-2.16
-1.10
-0.18
0.89
2.31
4.04
5.77
7.07
7.57
7.21
6.29
5.37
4.94
5.29
6.34
7.76
9.14
10.24
11.07
11.77
12.53
13.45
14.44
15.34
15.97
16.26
16.28
16.23
16.31
16.60
17.05
17.47
17.62
17.34
16.62
15.59
14.45
13.37
12.39
11.41
10.20
8.50
6.06
2.75
-1.46
-6.39
-11.76
-17.19
-22.28
-26.75
-30.42
-33.30
-35.50
-37.20
-38.61
-39.88
-41.05
-42.01
-42.48
-42.11
-40.56
-37.66
-33.48
-28.33
-22.65
-16.87
-11.26
-5.92
-0.88
3.82
8.05
11.61
14.29
16.03
16.91
17.23
17.32
17.49
17.89
18.49
19.15
19.67
19.95
19.94
19.69
19.26
18.66
17.89
16.91
15.68
14.20
12.43
10.36
7.99
5.38
2.63
-0.11
-2.71
-5.07
-7.16
-9.04
-10.82
-12.67
-14.73
-17.08
-19.57
-21.90
-23.58
-24.15
-23.35
-21.16
-17.85
-13.79
-9.31
-4.65
0.01
4.49
8.56
11.92
14.33
15.69
16.12
15.89
15.34
14.74
14.27
13.96
13.81
13.76
13.79
13.83
13.82
13.64
13.17
12.39
11.36
10.22
9.11
8.03
6.90
5.59
4.00
2.18
0.28
-1.53
-3.15
-4.59
-5.99
-7.50
-9.26
-11.33
-13.69
-16.22
-18.71
-20.82
-22.15
-22.32
-21.07
-18.37
-14.44
-9.67
-4.53
0.56
5.28
9.45
12.94
15.71
17.68
18.82
19.15
18.76
17.92
16.95
16.15
15.75
15.78
16.07
16.39
16.50
16.28
15.79
15.15
14.48
13.81
13.04
12.07
10.80
9.24
7.50
5.69
3.91
2.17
0.46
-1.29
-3.11
-4.99
-6.97
-9.11
-11.46
-13.96
-16.46
-18.59
-19.92
-20.05
-18.70
-15.89
-11.85
-7.05
-2.01
2.77
6.93
10.24
12.64
14.17
14.96
15.14
14.88
14.32
13.62
12.89
12.22
11.68
11.28
11.01
10.80
10.60
10.33
9.96
9.47
8.85
8.07
7.09
5.86
4.38
2.73
0.99
-0.73
-2.43
-4.24
-6.33
-8.82
-11.64
-14.49
-16.94
-18.49
-18.78
-17.67
-15.25
-11.79
-7.67
-3.31
0.90
4.68
7.89
10.47
12.44
13.79
14.47
14.43
13.71
12.46
10.99
9.61
8.53
7.82
7.39
7.07
6.73
6.31
5.75
5.04
4.10
2.90
1.46
-0.18
-1.89
-3.61
-5.34
-7.17
-9.19
-11.42
-13.72
-15.79
-17.21
-17.56
-16.56
-14.15
-10.60
-6.37
-1.98
2.09
5.61
8.50
10.78
12.44
13.43
13.61
12.95
11.57
9.80
8.05
6.70
5.90
5.56
5.41
5.14
4.54
3.60
2.46
1.29
0.21
-0.77
-1.75
-2.88
-4.25
-5.91
-7.87
-10.07
-12.40
-14.67
-16.55
-17.64
-17.55
-16.05
-13.18
-9.26
-4.74
-0.10
4.31
8.29
11.74
14.63
16.88
18.43
19.26
19.42
19.02
18.25
17.27
16.18
15.08
13.99
12.96
12.02
11.14
10.29
9.39
8.35
7.11
5.63
3.93
2.09
0.19
-1.66
-3.41
-5.02
-6.60
-8.33
-10.44
-13.11
-16.31
-19.74
-22.80
-24.78
-25.07
-23.37
-19.83
-14.92
-9.32
-3.64
1.67
6.38
10.39
13.64
16.09
17.66
18.39
18.39
17.89
17.09
16.17
15.19
14.21
13.25
12.43
11.87
11.68
11.82
12.10
12.30
12.18
11.68
10.84
9.73
8.39
6.77
4.73
2.22
-0.65
-3.63
-6.41
-8.76
-10.66
-12.21
-13.64
-15.14
-16.86
-18.84
-21.06
-23.40
-25.58
-27.20
-27.78
-26.93
-24.50
-20.69
-15.94
-10.78
-5.72
-1.07
3.01
6.44
9.20
11.24
12.57
13.29
13.55
13.54
13.41
13.23
13.01
12.73
12.36
11.91
11.42
10.94
10.52
10.14
9.76
9.29
8.62
7.68
6.47
5.10
3.73
2.49
1.44
0.51
-0.41
-1.47
-2.68
-4.02
-5.39
-6.72
-8.01
-9.31
-10.70
-12.28
-14.10
-16.17
-18.45
-20.74
-22.72
-23.94
-23.94
-22.39
-19.24
-14.75
-9.46
-4.00
1.07
5.37
8.75
11.19
12.78
13.64
13.91
13.76
13.34
12.86
12.45
12.17
11.99
11.81
11.51
11.02
10.36
9.62
8.92
8.35
7.87
7.37
6.70
5.78
4.64
3.41
2.26
1.28
0.43
-0.44
-1.49
-2.84
-4.46
-6.20
-7.84
-9.24
-10.33
-11.18
-11.93
-12.76
-13.83
-15.24
-17.00
-18.97
-20.89
-22.32
-22.82
-22.04
-19.86
-16.44
-12.15
-7.48
-2.90
1.22
4.67
7.35
9.23
10.35
10.80
10.73
10.28
9.61
8.89
8.23
7.73
7.43
7.30
7.27
7.30
7.36
7.48
7.66
7.88
8.05
8.04
7.74
7.14
6.32
5.40
4.45
3.45
2.32
0.99
-0.56
-2.26
-3.99
-5.63
-7.14
-8.52
-9.85
-11.22
-12.76
-14.54
-16.57
-18.74
-20.73
-22.12
-22.47
-21.50
-19.16
-15.67
-11.44
-6.95
-2.62
1.28
4.58
7.25
9.26
10.62
11.31
11.37
10.86
9.98
8.96
8.04
7.42
7.14
7.14
7.28
7.39
7.38
7.20
6.84
6.31
5.61
4.75
3.74
2.65
1.49
0.31
-0.90
-2.17
-3.51
-4.94
-6.42
-7.90
-9.34
-10.71
-12.01
-13.27
-14.56
-15.91
-17.33
-18.76
-20.01
-20.80
-20.78
-19.63
-17.21
-13.66
-9.33
-4.76
-0.45
3.22
6.10
8.24
9.72
10.64
11.01
10.89
10.35
9.56
8.73
8.03
7.55
7.23
6.96
6.65
6.25
5.75
5.20
4.64
4.10
3.60
3.11
2.59
1.93
1.04
-0.12
-1.52
-3.00
-4.41
-5.64
-6.72
-7.79
-9.00
-10.48
-12.23
-14.17
-16.14
-17.96
-19.44
-20.32
-20.33
-19.22
-16.86
-13.32
-8.94
-4.22
0.31
4.17
7.12
9.08
10.13
10.43
10.17
9.55
8.76
7.98
7.31
6.81
6.39
5.97
5.49
4.95
4.47
4.17
4.06
4.02
3.82
3.24
2.20
0.76
-0.84
-2.36
-3.66
-4.72
-5.67
-6.69
-7.95
-9.55
-11.53
-13.80
-16.13
-18.13
-19.30
-19.17
-17.47
-14.22
-9.82
-4.90
-0.09
4.08
7.34
9.61
10.98
11.57
11.55
11.06
10.26
9.31
8.31
7.35
6.46
5.64
4.91
4.29
3.82
3.47
3.21
2.96
2.65
2.22
1.65
0.88
-0.14
-1.46
-3.07
-4.90
-6.86
-8.84
-10.82
-12.82
-14.81
-16.68
-18.08
-18.60
-17.84
-15.61
-12.06
-7.58
-2.71
2.04
6.30
9.85
12.57
14.42
15.41
15.63
15.24
14.45
13.45
12.38
11.30
10.26
9.30
8.47
7.81
7.30
6.85
6.33
5.62
4.68
3.55
2.31
1.00
-0.37
-1.84
-3.48
-5.24
-7.02
-8.70
-10.24
-11.71
-13.32
-15.21
-17.38
-19.53
-21.11
-21.56
-20.56
-18.08
-14.34
-9.58
-3.84
2.98
10.95
19.83
28.87
37.05
43.35
47.17
48.55
48.02
46.36
44.24
42.04
39.88
37.73
35.56
33.35
31.06
28.64
25.98
22.97
19.55
15.71
11.50
6.97
2.23
-2.55
-7.15
-11.38
-15.05
-18.11
-20.61
-22.64
-24.35
-25.91
-27.53
-29.48
-32.02
-35.29
-39.16
-43.15
-46.55
-48.54
-48.53
-46.35
-42.28
-36.93
-31.01
-25.16
-19.77
-15.04
-11.08
-7.93
-5.65
-4.20
-3.44
-3.11
-2.91
-2.64
-2.24
-1.81
-1.51
-1.44
-1.60
-1.89
-2.13
-2.11
-1.49
0.12
3.07
7.52
13.21
19.43
25.23
29.71
32.36
33.17
32.60
31.17
29.28
26.99
24.15
20.61
16.40
11.77
7.08
2.64
-1.41
-5.03
-8.24
-10.97
-13.15
-14.68
-15.59
-15.97
-15.91
-15.44
-14.51
-13.08
-11.22
-9.20
-7.39
-6.10
-5.50
-5.48
-5.87
-6.48
-7.22
-8.08
-9.04
-9.98
-10.66
-10.80
-10.18
-8.72
-6.41
-3.33
0.33
4.31
8.23
11.66
14.21
15.73
16.36
16.47
16.53
16.89
17.68
18.82
20.09
21.29
22.33
23.24
24.07
24.88
25.58
25.99
25.93
25.25
23.99
22.31
20.48
18.75
17.29
16.18
15.42
14.97
14.78
14.78
14.80
14.70
14.33
13.66
12.76
11.81
10.97
10.35
9.98
9.82
9.83
9.91
9.91
9.66
8.97
7.77
6.20
4.57
3.26
2.53
2.42
2.72
3.12
3.31
3.15
2.71
2.17
1.75
1.67
2.06
2.99
4.38
5.97
7.35
7.92
7.10
4.44
-0.18
-6.47
-13.83
-21.51
-28.86
-35.44
-41.07
-45.69
-49.20
-51.41
-52.09
-51.16
-48.93
-46.10
-43.67
-42.51
-43.06
-45.12
-47.97
-50.65
-52.42
-52.91
-52.17
-50.38
-47.59
-43.53
-37.77
-29.92
-19.95
-8.40
3.84
15.66
26.14
34.65
40.93
45.00
47.06
47.39
46.38
44.43
42.00
39.52
37.35
35.72
34.72
34.24
34.00
33.65
32.89
31.50
29.45
26.85
23.94
20.93
17.98
15.15
12.42
9.80
7.31
5.08
3.25
1.99
1.38
1.40
1.88
2.51
2.95
2.88
2.16
0.81
-0.99
-3.01
-5.09
-7.14
-9.18
-11.23
-13.20
-14.92
-16.19
-16.90
-17.12
-17.14
-17.25
-17.68
-18.38
-19.12
-19.57
-19.49
-18.83
-17.73
-16.43
-15.11
-13.86
-12.66
-11.45
-10.18
-8.90
-7.72
-6.80
-6.28
-6.23
-6.64
-7.43
-8.40
-9.29
-9.76
-9.54
-8.44
-6.47
-3.85
-0.94
1.86
4.27
6.19
7.64
8.72
9.53
10.05
10.26
10.12
9.71
9.16
8.61
8.17
7.85
7.56
7.19
6.68
6.02
5.27
4.51
3.82
3.20
2.64
2.07
1.41
0.57
-0.50
-1.77
-3.15
-4.52
-5.75
-6.79
-7.64
-8.39
-9.12
-9.88
-10.75
-11.75
-12.95
-14.34
-15.86
-17.36
-18.54
-19.10
-18.76
-17.39
-15.02
-11.89
-8.34
-4.80
-1.61
0.97
2.81
3.87
4.19
3.80
2.86
1.55
0.18
-0.88
-1.36
-1.14
-0.38
0.58
1.34
1.60
1.29
0.56
-0.37
-1.29
-2.10
-2.83
-3.62
-4.57
-5.70
-6.95
-8.19
-9.29
-10.19
-10.89
-11.44
-11.91
-12.37
-12.90
-13.58
-14.53
-15.88
-17.69
-19.90
-22.26
-24.36
-25.72
-25.91
-24.70
-22.14
-18.47
-14.12
-9.50
-4.99
-0.82
2.86
5.98
8.47
10.25
11.27
11.57
11.30
10.74
10.20
9.95
10.12
10.68
11.45
12.21
12.74
12.93
12.75
12.26
11.55
10.75
9.96
9.25
8.62
8.00
7.27
6.30
5.01
3.38
1.47
-0.58
-2.68
-4.75
-6.74
-8.61
-10.37
-12.09
-13.90
-15.98
-18.44
-21.19
-23.86
-25.85
-26.49
-25.31
-22.24
-17.58
-11.96
-6.03
-0.35
4.74
9.08
12.57
15.19
16.97
18.02
18.55
18.78
18.89
18.98
19.02
18.94
18.72
18.37
17.98
17.63
17.38
17.22
17.07
16.86
16.50
15.90
15.04
13.91
12.55
11.04
9.43
7.71
5.89
3.96
1.94
-0.12
-2.18
-4.19
-6.17
-8.14
-10.14
-12.24
-14.52
-17.09
-19.92
-22.82
-25.36
-26.91
-26.89
-24.97
-21.24
-16.20
-10.52
-4.84
0.43
5.13
9.23
12.69
15.45
17.37
18.40
18.59
18.16
17.40
16.59
15.96
15.58
15.40
15.29
15.11
14.76
14.26
13.69
13.13
12.63
12.10
11.38
10.30
8.79
6.91
4.84
2.76
0.80
-1.05
-2.89
-4.86
-7.05
-9.51
-12.25
-15.23
-18.39
-21.55
-24.32
-26.18
-26.60
-25.19
-21.99
-17.33
-11.84
-6.15
-0.73
4.15
8.42
12.07
15.05
17.30
18.75
19.38
19.32
18.78
18.02
17.28
16.70
16.32
16.06
15.81
15.43
14.89
14.20
13.44
12.68
11.89
10.94
9.68
7.99
5.88
3.49
1.08
-1.13
-3.03
-4.64
-6.12
-7.68
-9.51
-11.72
-14.32
-17.27
-20.38
-23.35
-25.69
-26.84
-26.29
-23.76
-19.38
-13.68
-7.43
-1.39
3.91
8.31
11.91
14.86
17.26
19.02
20.01
20.17
19.62
18.65
17.59
16.71
16.08
15.67
15.34
14.96
14.46
13.79
12.99
12.13
11.27
10.49
9.73
8.87
7.73
6.15
4.14
1.84
-0.51
-2.66
-4.53
-6.17
-7.70
-9.29
-11.04
-13.05
-15.33
-17.91
-20.69
-23.40
-25.59
-26.64
-26.00
-23.39
-18.99
-13.33
-7.20
-1.33
3.80
8.03
11.43
14.09
16.09
17.36
17.89
17.70
17.01
16.09
15.22
14.61
14.31
14.24
14.27
14.27
14.13
13.79
13.22
12.43
11.47
10.40
9.30
8.18
7.04
5.81
4.44
2.88
1.12
-0.82
-2.85
-4.89
-6.85
-8.67
-10.33
-11.86
-13.35
-14.97
-16.87
-19.15
-21.69
-24.16
-26.00
-26.63
-25.61
-22.84
-18.61
-13.48
-8.09
-3.01
1.39
4.97
7.72
9.67
10.86
11.34
11.14
10.37
9.19
7.79
6.37
5.03
3.80
2.59
1.36
0.13
-0.97
-1.74
-2.01
-1.75
-0.99
0.17
1.70
3.54
5.62
7.75
9.63
10.97
11.65
11.78
11.62
11.48
11.47
11.54
11.52
11.25
10.68
9.86
8.83
7.55
5.89
3.73
1.11
-1.71
-4.18
-5.70
-5.80
-4.35
-1.60
1.85
5.27
8.00
9.60
9.94
9.17
7.67
5.93
4.51
3.96
4.69
6.91
10.46
14.77
18.98
22.17
23.64
23.19
21.12
18.05
14.58
11.03
7.38
3.44
-0.83
-5.14
-8.87
-11.26
-11.79
-10.39
-7.51
-3.98
-0.72
1.49
2.22
1.38
-0.80
-3.94
-7.66
-11.73
-16.03
-20.54
-25.11
-29.41
-32.92
-35.12
-35.69
-34.60
-31.96
-27.79
-21.95
-14.27
-4.87
5.47
15.37
23.21
27.75
28.59
26.26
21.85
16.47
10.90
5.50
0.42
-4.17
-8.03
-10.92
-12.69
-13.31
-12.72
-10.76
-7.28
-2.37
3.52
9.52
14.66
18.12
19.59
19.22
17.52
15.08
12.37
9.61
6.85
3.92
0.63
-3.25
-7.79
-12.79
-17.72
-21.67
-23.62
-22.73
-18.64
-11.71
-2.96
6.16
14.20
20.03
23.16
23.72
22.26
19.49
16.04
12.32
8.58
4.96
1.55
-1.53
-4.20
-6.41
-8.15
-9.40
-10.11
-10.10
-9.11
-6.91
-3.51
0.75
5.14
8.70
10.53
10.17
7.71
3.83
-0.55
-4.60
-7.91
-10.54
-12.93
-15.55
-18.69
-22.29
-26.07
-29.57
-32.33
-33.89
-33.77
-31.56
-27.06
-20.47
-12.54
-4.47
2.45
7.30
9.81
10.39
9.86
8.99
8.20
7.45
6.50
5.12
3.34
1.48
-0.04
-0.82
-0.57
0.83
3.31
6.69
10.57
14.43
17.64
19.62
19.98
18.61
15.79
12.06
8.09
4.48
1.64
-0.23
-1.09
-1.00
-0.05
1.63
3.70
5.66
6.87
6.69
4.73
0.99
-4.13
-9.95
-15.65
-20.52
-24.07
-26.07
-26.54
-25.68
-23.67
-20.67
-16.69
-11.77
-6.11
-0.17
5.31
9.60
12.18
12.97
12.30
10.70
8.63
6.29
3.62
0.44
-3.30
-7.43
-11.48
-14.88
-17.09
-17.86
-17.27
-15.72
-13.70
-11.69
-9.91
-8.40
-7.01
-5.56
-3.93
-2.02
0.19
2.62
5.10
7.28
8.70
8.93
7.76
5.33
2.06
-1.46
-4.73
-7.44
-9.43
-10.60
-10.86
-10.06
-8.15
-5.27
-1.79
1.74
4.82
7.14
8.71
9.74
10.59
11.48
12.43
13.27
13.73
13.59
12.73
11.20
9.16
6.78
4.26
1.74
-0.68
-3.00
-5.27
-7.62
-10.10
-12.73
-15.41
-17.97
-20.25
-22.17
-23.67
-24.79
-25.60
-26.18
-26.66
-27.15
-27.69
-28.11
-28.06
-27.02
-24.54
-20.44
-14.93
-8.61
-2.23
3.53
8.25
11.83
14.33
15.84
16.39
15.97
14.63
12.59
10.21
7.91
5.98
4.54
3.52
2.79
2.27
1.95
1.87
2.04
2.46
3.03
3.61
4.04
4.17
3.92
3.26
2.22
0.88
-0.68
-2.35
-4.07
-5.78
-7.40
-8.86
-10.16
-11.37
-12.62
-14.11
-15.97
-18.28
-20.97
-23.88
-26.67
-28.90
-30.01
-29.53
-27.17
-23.00
-17.39
-10.98
-4.42
1.78
7.31
12.02
15.87
18.83
20.90
22.14
22.70
22.78
22.61
22.32
22.00
21.64
21.23
20.75
20.28
19.94
19.85
20.05
20.42
20.75
20.74
20.19
19.04
17.39
15.45
13.44
11.49
9.65
7.92
6.27
4.68
3.11
1.49
-0.25
-2.11
-4.05
-6.00
-7.89
-9.73
-11.67
-13.88
-16.50
-19.48
-22.50
-25.04
-26.42
-26.11
-23.84
-19.71
-14.21
-8.00
-1.72
4.12
9.25
13.51
16.83
19.15
20.44
20.77
20.34
19.51
18.65
18.08
17.90
18.05
18.35
18.62
18.77
18.84
18.90
19.01
19.14
19.12
18.75
17.86
16.39
14.47
12.33
10.22
8.33
6.68
5.15
3.55
1.72
-0.35
-2.52
-4.57
-6.36
-7.82
-9.05
-10.24
-11.60
-13.26
-15.34
-17.81
-20.57
-23.34
-25.67
-27.00
-26.81
-24.77
-20.97
-15.85
-10.07
-4.33
0.85
5.25
8.83
11.63
13.67
14.95
15.46
15.32
14.75
14.00
13.31
12.78
12.45
12.28
12.26
12.36
12.54
12.73
12.82
12.71
12.37
11.82
11.05
10.09
8.90
7.49
5.89
4.18
2.41
0.61
-1.24
-3.16
-5.12
-7.02
-8.74
-10.26
-11.70
-13.29
-15.30
-17.86
-20.87
-23.90
-26.32
-27.50
-26.95
-24.52
-20.40
-15.09
-9.22
-3.38
1.93
6.42
9.98
12.64
14.49
15.65
16.23
16.33
16.05
15.50
14.84
14.19
13.65
13.29
13.10
13.06
13.11
13.19
13.22
13.10
12.73
12.04
11.02
9.74
8.33
6.89
5.46
4.01
2.45
0.71
-1.21
-3.18
-5.06
-6.74
-8.18
-9.50
-10.86
-12.44
-14.37
-16.69
-19.31
-22.04
-24.49
-26.17
-26.52
-25.13
-21.89
-17.12
-11.47
-5.70
-0.47
3.88
7.32
10.03
12.18
13.85
15.01
15.58
15.58
15.10
14.37
13.62
13.06
12.78
12.75
12.86
12.99
13.00
12.84
12.48
11.93
11.20
10.31
9.23
8.03
6.73
5.36
3.90
2.28
0.44
-1.63
-3.80
-5.89
-7.70
-9.15
-10.33
-11.40
-12.58
-14.02
-15.79
-17.88
-20.19
-22.49
-24.41
-25.45
-25.16
-23.25
-19.77
-15.11
-9.89
-4.70
0.04
4.13
7.52
10.23
12.22
13.47
14.00
13.92
13.44
12.78
12.14
11.58
11.15
10.86
10.73
10.79
11.01
11.31
11.54
11.53
11.17
10.42
9.34
8.07
6.71
5.36
4.06
2.78
1.45
-0.00
-1.61
-3.39
-5.27
-7.18
-9.04
-10.80
-12.50
-14.20
-16.00
-17.96
-20.03
-22.00
-23.54
-24.20
-23.59
-21.52
-18.05
-13.54
-8.53
-3.56
0.94
4.75
7.81
10.10
11.61
12.31
12.23
11.50
10.42
9.34
8.58
8.26
8.36
8.68
8.98
9.10
8.98
8.66
8.24
7.80
7.35
6.78
5.94
4.65
2.85
0.61
-1.82
-4.13
-6.05
-7.43
-8.36
-9.07
-9.84
-10.96
-12.61
-14.85
-17.56
-20.40
-22.88
-24.39
-24.39
-22.62
-19.16
-14.47
-9.18
-3.92
0.89
5.03
8.47
11.20
13.17
14.33
14.64
14.20
13.22
12.03
10.97
10.27
9.96
9.94
9.97
9.85
9.49
8.95
8.37
7.88
7.52
7.16
6.58
5.58
4.10
2.23
0.23
-1.69
-3.34
-4.73
-5.97
-7.21
-8.61
-10.26
-12.23
-14.57
-17.27
-20.17
-22.92
-25.00
-25.80
-24.88
-22.15
-17.92
-12.76
-7.34
-2.21
2.35
6.22
9.39
11.84
13.55
14.52
14.80
14.59
14.12
13.62
13.23
12.96
12.76
12.51
12.13
11.62
11.03
10.45
9.95
9.52
9.09
8.57
7.87
6.95
5.80
4.44
2.91
1.22
-0.61
-2.54
-4.53
-6.52
-8.44
-10.23
-11.88
-13.48
-15.19
-17.22
-19.68
-22.40
-24.89
-26.46
-26.42
-24.43
-20.63
-15.62
-10.21
-5.11
-0.73
2.88
5.86
8.30
10.18
11.39
11.81
11.50
10.67
9.64
8.68
7.93
7.35
6.81
6.19
5.43
4.59
3.74
2.95
2.21
1.44
0.52
-0.67
-2.15
-3.84
-5.64
-7.44
-9.21
-11.04
-13.04
-15.33
-17.92
-20.68
-23.34
-25.55
-26.98
-27.35
-26.59
-24.82
-22.40
-19.75
-17.22
-14.91
-12.64
-10.03
-6.69
-2.41
2.73
8.38
14.07
19.40
24.05
27.84
30.65
32.43
33.18
33.00
32.17
31.05
30.04
29.39
29.20
29.33
29.48
29.29
28.46
26.82
24.33
21.11
17.33
13.15
8.74
4.22
-0.30
-4.67
-8.70
-12.22
-15.15
-17.59
-19.74
-21.89
-24.22
-26.75
-29.35
-31.82
-34.09
-36.16
-38.03
-39.59
-40.46
-40.09
-38.05
-34.22
-29.04
-23.40
-18.36
-14.84
-13.32
-13.72
-15.45
-17.57
-19.06
-18.97
-16.67
-11.96
-5.15
2.93
11.08
18.01
22.74
25.00
25.27
24.60
24.11
24.41
25.38
26.24
26.06
24.25
20.83
16.39
11.68
7.17
2.91
-1.36
-5.87
-10.46
-14.54
-17.23
-17.81
-15.95
-11.97
-6.62
-0.84
4.62
9.36
13.35
16.70
19.45
21.52
22.70
22.79
21.76
19.77
17.15
14.31
11.58
9.21
7.29
5.81
4.66
3.72
2.90
2.17
1.57
1.15
0.97
1.01
1.17
1.34
1.37
1.14
0.59
-0.29
-1.48
-2.92
-4.55
-6.28
-7.93
-9.19
-9.67
-8.98
-6.89
-3.44
1.04
6.05
11.05
15.65
19.66
23.09
26.01
28.44
30.30
31.49
31.90
31.54
30.49
28.87
26.78
24.28
21.48
18.53
15.65
13.07
10.89
9.04
7.29
5.34
3.00
0.22
-2.88
-6.06
-9.06
-11.69
-13.88
-15.71
-17.36
-19.07
-21.07
-23.49
-26.24
-29.11
-31.69
-33.55
-34.26
-33.49
-31.12
-27.25
-22.23
-16.61
-10.97
-5.83
-1.50
1.94
4.56
6.47
7.79
8.57
8.92
8.99
8.99
9.11
9.47
10.06
10.75
11.32
11.60
11.50
11.06
10.42
9.77
9.23
8.83
8.45
7.87
6.88
5.40
3.54
1.57
-0.18
-1.51
-2.37
-2.94
-3.50
-4.33
-5.61
-7.39
-9.56
-11.84
-13.81
-14.99
-14.86
-13.10
-9.65
-4.80
0.89
6.74
12.11
16.56
19.89
22.07
23.26
23.67
23.59
23.28
22.97
22.75
22.61
22.44
22.14
21.67
21.06
20.38
19.65
18.85
17.92
16.77
15.40
13.83
12.16
10.42
8.65
6.80
4.84
2.70
0.30
-2.41
-5.44
-8.69
-11.97
-14.97
-17.42
-19.19
-20.35
-21.14
-21.93
-23.00
-24.50
-26.35
-28.30
-29.99
-31.00
-30.99
-29.70
-27.08
-23.28
-18.66
-13.70
-8.91
-4.71
-1.32
1.22
3.02
4.28
5.20
5.89
6.44
6.87
7.19
7.45
7.69
7.98
8.36
8.79
9.15
9.32
9.23
8.89
8.40
7.88
7.42
6.97
6.42
5.60
4.43
2.90
1.12
-0.72
-2.50
-4.17
-5.75
-7.35
-9.01
-10.72
-12.44
-14.13
-15.79
-17.44
-19.04
-20.42
-21.28
-21.24
-19.98
-17.37
-13.58
-9.06
-4.33
0.08
3.84
6.81
8.99
10.50
11.44
11.92
12.04
11.91
11.67
11.44
11.30
11.23
11.11
10.80
10.21
9.39
8.50
7.78
7.37
7.27
7.35
7.32
6.96
6.11
4.78
3.12
1.35
-0.32
-1.77
-3.00
-4.13
-5.27
-6.48
-7.72
-8.86
-9.81
-10.63
-11.56
-12.92
-14.95
-17.60
-20.47
-22.91
-24.22
-23.95
-22.00
-18.64
-14.38
-9.74
-5.13
-0.81
3.05
6.34
8.91
10.62
11.41
11.40
10.84
10.12
9.58
9.45
9.75
10.33
10.96
11.41
11.58
11.52
11.39
11.33
11.39
11.44
11.24
10.59
9.41
7.77
5.87
3.90
1.96
0.04
-1.89
-3.78
-5.50
-6.90
-7.94
-8.70
-9.40
-10.31
-11.59
-13.31
-15.42
-17.84
-20.43
-22.97
-25.13
-26.42
-26.35
-24.62
-21.21
-16.52
-11.16
-5.81
-0.97
3.07
6.24
8.59
10.18
11.06
11.28
11.01
10.51
10.09
9.96
10.16
10.62
11.16
11.61
11.91
12.00
11.88
11.51
10.88
10.03
9.07
8.16
7.36
6.62
5.74
4.49
2.76
0.65
-1.58
-3.61
-5.21
-6.37
-7.21
-7.96
-8.83
-9.98
-11.53
-13.53
-15.94
-18.59
-21.15
-23.16
-24.21
-23.97
-22.40
-19.66
-16.04
-11.93
-7.63
-3.39
0.61
4.18
7.15
9.38
10.80
11.44
11.46
11.13
10.73
10.50
10.55
10.85
11.22
11.43
11.26
10.62
9.57
8.28
6.99
5.88
4.97
4.13
3.10
1.69
-0.18
-2.38
-4.65
-6.73
-8.47
-9.88
-11.12
-12.41
-13.94
-15.82
-18.09
-20.70
-23.44
-26.00
-27.90
-28.67
-27.95
-25.64
-21.92
-17.22
-12.02
-6.76
-1.75
2.76
6.57
9.54
11.57
12.73
13.19
13.20
13.00
12.74
12.48
12.26
12.12
12.09
12.16
12.24
12.22
12.01
11.60
11.05
10.46
9.81
8.98
7.81
6.15
4.00
1.54
-0.95
-3.22
-5.12
-6.70
-8.17
-9.75
-11.63
-13.82
-16.24
-18.80
-21.34
-23.73
-25.67
-26.79
-26.61
-24.75
-21.09
-15.88
-9.69
-3.22
2.92
8.32
12.83
16.44
19.18
21.05
22.04
22.19
21.63
20.62
19.48
18.53
17.97
17.82
17.94
18.09
18.04
17.61
16.79
15.67
14.44
13.24
12.15
11.11
10.00
8.69
7.14
5.36
3.45
1.49
-0.50
-2.52
-4.62
-6.78
-8.91
-10.92
-12.80
-14.67
-16.71
-19.04
-21.51
-23.68
-24.89
-24.54
-22.30
-18.33
-13.15
-7.48
-1.96
3.03
7.33
10.93
13.79
15.83
16.99
17.32
17.00
16.32
15.55
14.81
14.13
13.42
12.62
11.73
10.75
9.64
8.34
6.79
4.95
2.86
0.64
-1.64
-3.92
-6.19
-8.39
-10.41
-12.06
-13.22
-13.87
-14.12
-14.20
-14.32
-14.59
-15.08
-15.80
-16.80
-18.09
-19.58
-21.00
-21.88
-21.72
-20.20
-17.26
-13.18
-8.46
-3.62
0.90
4.85
8.07
10.51
12.14
12.91
12.87
12.12
10.92
9.64
8.68
8.38
8.83
9.91
11.28
12.58
13.55
14.08
14.25
14.15
13.89
13.44
12.76
11.78
10.44
8.72
6.62
4.23
1.69
-0.85
-3.22
-5.42
-7.54
-9.79
-12.38
-15.42
-18.84
-22.40
-25.70
-28.27
-29.61
-29.35
-27.32
-23.63
-18.63
-12.87
-6.93
-1.29
3.69
7.75
10.77
12.70
13.64
13.80
13.51
13.10
12.76
12.59
12.52
12.50
12.49
12.47
12.49
12.50
12.44
12.21
11.71
10.89
9.75
8.29
6.53
4.56
2.48
0.46
-1.32
-2.78
-3.91
-4.88
-5.91
-7.21
-8.95
-11.17
-13.75
-16.43
-18.79
-20.32
-20.59
-19.33
-16.61
-12.76
-8.31
-3.80
0.38
4.06
7.19
9.80
11.83
13.20
13.85
13.84
13.36
12.68
12.03
11.55
11.26
11.06
10.82
10.43
9.89
9.25
8.66
8.24
8.00
7.81
7.42
6.57
5.13
3.23
1.14
-0.78
-2.33
-3.54
-4.64
-5.96
-7.70
-9.91
-12.48
-15.26
-18.08
-20.73
-22.94
-24.31
-24.42
-22.96
-19.87
-15.46
-10.26
-4.95
-0.07
4.05
7.31
9.76
11.50
12.56
12.97
12.80
12.24
11.58
11.13
11.14
11.62
12.40
13.16
13.61
13.62
13.25
12.72
12.24
11.89
11.60
11.14
10.31
9.02
7.34
5.48
3.64
1.94
0.37
-1.18
-2.76
-4.43
-6.13
-7.88
-9.71
-11.71
-13.92
-16.18
-18.13
-19.27
-19.11
-17.38
-14.12
-9.70
-4.68
0.40
5.08
9.04
12.11
14.20
15.29
15.45
14.86
13.82
12.66
11.66
10.94
10.49
10.19
9.89
9.45
8.83
8.02
7.12
6.24
5.47
4.85
4.32
3.74
2.94
1.80
0.30
-1.45
-3.28
-5.04
-6.62
-8.02
-9.29
-10.51
-11.81
-13.32
-15.14
-17.28
-19.59
-21.68
-23.10
-23.35
-22.11
-19.34
-15.29
-10.45
-5.42
-0.70
3.38
6.71
9.37
11.49
13.16
14.39
15.10
15.28
14.96
14.36
13.71
13.20
12.92
12.77
12.58
12.23
11.66
10.94
10.16
9.40
8.64
7.81
6.78
5.47
3.85
1.99
0.00
-1.96
-3.75
-5.30
-6.65
-7.90
-9.25
-10.84
-12.76
-14.99
-17.35
-19.57
-21.29
-22.15
-21.83
-20.15
-17.09
-12.90
-7.99
-2.90
1.88
5.98
9.20
11.50
12.96
13.71
13.89
13.67
13.21
12.65
12.09
11.57
11.05
10.48
9.80
8.99
8.09
7.16
6.29
5.58
5.03
4.59
4.10
3.40
2.37
0.97
-0.65
-2.32
-3.83
-5.09
-6.14
-7.10
-8.15
-9.41
-10.97
-12.84
-14.95
-17.07
-18.85
-19.81
-19.52
-17.70
-14.37
-9.80
-4.47
1.11
6.46
11.24
15.20
18.17
20.12
21.08
21.21
20.72
19.81
18.67
17.41
16.09
14.75
13.36
11.91
10.32
8.56
6.63
4.57
2.50
0.57
-1.12
-2.54
-3.73
-4.83
-5.94
-7.12
-8.31
-9.42
-10.38
-11.21
-12.07
-13.19
-14.76
-16.85
-19.37
-22.01
-24.33
-25.83
-26.08
-24.84
-22.10
-18.14
-13.42
-8.48
-3.74
0.50
4.10
6.97
9.05
10.30
10.70
10.37
9.54
8.48
7.50
6.74
6.21
5.84
5.50
5.14
4.79
4.51
4.37
4.33
4.29
4.04
3.40
2.29
0.75
-1.03
-2.82
-4.42
-5.75
-6.82
-7.78
-8.87
-10.30
-12.22
-14.63
-17.30
-19.78
-21.49
-21.85
-20.55
-17.61
-13.45
-8.71
-4.04
0.06
3.37
5.90
7.82
9.28
10.39
11.13
11.45
11.30
10.72
9.87
8.93
8.10
7.50
7.10
6.82
6.52
6.15
5.69
5.19
4.66
4.04
3.20
1.98
0.35
-1.63
-3.76
-5.80
-7.59
-9.14
-10.60
-12.21
-14.20
-16.61
-19.29
-21.85
-23.81
-24.69
-24.20
-22.26
-19.01
-14.76
-9.94
-4.99
-0.30
3.77
7.00
9.26
10.57
11.07
10.97
10.55
10.04
9.62
9.34
9.16
8.96
8.69
8.36
8.07
7.98
8.18
8.61
9.07
9.31
9.13
8.53
7.59
6.46
5.28
4.07
2.83
1.49
-0.02
-1.80
-3.99
-6.67
-9.77
-13.01
-15.81
-17.52
-17.58
-15.74
-12.21
-7.52
-2.39
2.55
6.85
10.32
12.91
14.66
15.60
15.77
15.25
14.24
12.98
11.71
10.60
9.63
8.67
7.60
6.37
5.08
3.93
3.13
2.72
2.56
2.37
1.85
0.82
-0.70
-2.58
-4.62
-6.66
-8.62
-10.54
-12.51
-14.69
-17.18
-20.01
-23.08
-26.06
-28.47
-29.76
-29.44
-27.29
-23.42
-18.27
-12.48
-6.69
-1.42
3.03
6.50
8.98
10.51
11.20
11.22
10.76
10.07
9.35
8.71
8.21
7.89
7.73
7.73
7.84
8.00
8.12
8.11
7.95
7.63
7.15
6.51
5.68
4.64
3.35
1.84
0.13
-1.77
-3.90
-6.28
-8.90
-11.59
-14.05
-15.81
-16.40
-15.45
-12.85
-8.83
-3.95
1.12
5.76
9.55
12.39
14.39
15.74
16.58
16.96
16.88
16.34
15.42
14.31
13.20
12.26
11.52
10.96
10.50
10.07
9.65
9.23
8.80
8.31
7.69
6.89
5.94
4.87
3.80
2.82
2.01
1.40
0.90
0.40
-0.33
-1.49
-3.14
-5.13
-7.05
-8.30
-8.31
-6.76
-3.71
0.42
4.98
9.33
13.01
15.83
17.77
18.96
19.55
19.68
19.43
18.87
18.04
16.95
15.64
14.16
12.58
10.95
9.25
7.38
5.19
2.57
-0.52
-3.96
-7.53
-10.95
-13.99
-16.54
-18.60
-20.26
-21.68
-23.03
-24.47
-26.11
-27.94
-29.76
-31.23
-31.87
-31.24
-29.04
-25.30
-20.32
-14.64
-8.88
-3.59
0.83
4.18
6.41
7.61
7.92
7.59
6.85
5.94
5.10
4.47
4.18
4.22
4.51
4.87
5.09
4.97
4.42
3.48
2.30
1.05
-0.12
-1.17
-2.17
-3.31
-4.78
-6.73
-9.22
-12.12
-15.21
-18.10
-20.39
-21.64
-21.53
-19.90
-16.84
-12.68
-7.95
-3.21
1.11
4.78
7.79
10.19
12.01
13.13
13.45
12.95
11.83
10.47
9.26
8.45
8.05
7.83
7.53
6.98
6.14
5.15
4.17
3.30
2.52
1.75
0.82
-0.42
-2.07
-4.20
-6.78
-9.74
-12.90
-15.96
-18.51
-20.09
-20.26
-18.80
-15.75
-11.50
-6.60
-1.66
2.87
6.74
9.84
12.14
13.62
14.26
14.12
13.34
12.16
10.86
9.62
8.57
7.73
7.13
6.77
6.66
6.72
6.80
6.71
6.31
5.55
4.49
3.28
2.05
0.81
-0.48
-1.92
-3.58
-5.46
-7.43
-9.22
-10.48
-10.85
-10.01
-7.81
-4.36
-0.08
4.48
8.71
12.15
14.62
16.14
16.87
16.93
16.42
15.36
13.83
11.99
10.08
8.34
6.90
5.79
4.93
4.22
3.56
2.91
2.21
1.39
0.39
-0.82
-2.21
-3.68
-5.12
-6.47
-7.73
-9.01
-10.48
-12.31
-14.55
-17.09
-19.57
-21.48
-22.27
-21.52
-19.14
-15.37
-10.69
-5.67
-0.77
3.68
7.48
10.50
12.60
13.73
13.92
13.37
12.43
11.49
10.83
10.64
10.93
11.62
12.57
13.65
14.76
15.81
16.76
17.58
18.21
18.55
18.45
17.80
16.51
14.61
12.22
9.50
6.60
3.57
0.36
-3.20
-7.21
-11.66
-16.24
-20.34
-23.22
-24.22
-23.01
-19.78
-15.18
-10.09
-5.28
-1.25
1.86
4.12
5.65
6.50
6.70
6.31
5.55
4.71
4.07
3.77
3.76
3.84
3.84
3.69
3.44
3.19
2.97
2.66
2.11
1.16
-0.20
-1.87
-3.64
-5.32
-6.79
-8.05
-9.22
-10.48
-12.03
-14.03
-16.51
-19.28
-21.93
-23.87
-24.49
-23.38
-20.47
-16.04
-10.65
-4.98
0.35
4.89
8.39
10.81
12.22
12.82
12.82
12.44
11.90
11.33
10.83
10.45
10.27
10.36
10.76
11.42
12.19
12.81
13.04
12.74
11.88
10.51
8.71
6.48
3.85
0.86
-2.29
-5.36
-8.08
-10.40
-12.49
-14.68
-17.25
-20.19
-23.11
-25.33
-26.13
-25.09
-22.18
-17.83
-12.73
-7.62
-3.04
0.71
3.56
5.60
6.95
7.76
8.13
8.19
8.03
7.74
7.38
6.98
6.62
6.34
6.21
6.22
6.32
6.37
6.22
5.74
4.87
3.66
2.21
0.68
-0.80
-2.11
-3.24
-4.25
-5.30
-6.58
-8.31
-10.61
-13.43
-16.52
-19.43
-21.61
-22.52
-21.78
-19.27
-15.23
-10.18
-4.81
0.20
4.35
7.46
9.56
10.85
11.53
11.76
11.64
11.24
10.65
10.03
9.50
9.11
8.83
8.54
8.11
7.50
6.74
5.91
5.10
4.37
3.70
3.05
2.37
1.62
0.80
-0.03
-0.78
-1.41
-1.91
-2.41
-3.12
-4.27
-5.98
-8.17
-10.48
-12.35
-13.24
-12.76
-10.85
-7.77
-4.00
-0.03
3.68
6.83
9.21
10.77
11.51
11.52
11.01
10.22
9.40
8.75
8.30
8.00
7.68
7.24
6.61
5.84
5.00
4.21
3.54
3.02
2.62
2.22
1.68
0.91
-0.18
-1.60
-3.35
-5.38
-7.68
-10.23
-13.00
-15.91
-18.79
-21.27
-22.90
-23.21
-21.93
-19.04
-14.91
-10.12
-5.32
-0.96
2.75
5.86
8.48
10.64
12.21
13.00
12.91
12.07
10.78
9.43
8.36
7.70
7.41
7.32
7.25
7.08
6.78
6.37
5.88
5.31
4.57
3.60
2.33
0.79
-0.94
-2.74
-4.51
-6.26
-8.06
-10.08
-12.44
-15.15
-17.97
-20.46
-21.99
-22.05
-20.37
-17.05
-12.58
-7.67
-2.96
1.09
4.32
6.76
8.49
9.57
10.04
9.95
9.43
8.70
7.99
7.45
7.14
7.06
7.18
7.47
7.93
8.56
9.31
10.08
10.76
11.18
11.22
10.78
9.82
8.39
6.63
4.71
2.77
0.88
-1.03
-3.10
-5.48
-8.15
-10.83
-13.06
-14.29
-14.09
-12.37
-9.41
-5.74
-1.98
1.39
4.09
6.09
7.43
8.17
8.30
7.86
6.90
5.63
4.35
3.33
2.80
2.79
3.20
3.81
4.36
4.63
4.53
4.05
3.26
2.29
1.22
0.08
-1.16
-2.53
-4.07
-5.72
-7.45
-9.27
-11.28
-13.64
-16.41
-19.34
-21.86
-23.21
-22.74
-20.20
-15.92
-10.63
-5.18
-0.19
4.09
7.67
10.65
13.05
14.76
15.68
15.87
15.59
15.22
15.01
15.03
15.16
15.20
15.02
14.65
14.22
13.88
13.63
13.36
12.86
11.94
10.49
8.58
6.32
3.86
1.25
-1.54
-4.59
-7.99
-11.82
-16.03
-20.46
-24.73
-28.30
-30.50
-30.77
-28.85
-24.91
-19.57
-13.70
-8.14
-3.43
0.21
2.84
4.62
5.69
6.09
5.93
5.41
4.81
4.47
4.61
5.22
6.13
7.07
7.82
8.31
8.59
8.78
8.96
9.10
9.11
8.89
8.37
7.56
6.47
5.14
3.60
1.83
-0.20
-2.51
-5.11
-7.91
-10.67
-13.01
-14.47
-14.61
-13.25
-10.51
-6.76
-2.59
1.51
5.18
8.26
10.72
12.54
13.71
14.20
14.06
13.40
12.42
11.30
10.20
9.18
8.25
7.37
6.54
5.71
4.87
3.96
2.92
1.66
0.15
-1.65
-3.70
-5.90
-8.17
-10.44
-12.69
-14.97
-17.41
-20.12
-23.13
-26.27
-29.18
-31.32
-32.16
-31.34
-28.81
-24.83
-19.94
-14.73
-9.72
-5.22
-1.38
1.78
4.28
6.17
7.46
8.20
8.43
8.27
7.87
7.43
7.11
7.02
7.14
7.34
7.44
7.26
6.71
5.76
4.51
3.08
1.64
0.39
-0.54
-1.09
-1.36
-1.61
-2.22
-3.47
-5.37
-7.56
-9.32
-9.83
-8.46
-5.05
0.01
5.90
11.62
16.38
19.76
21.71
22.42
22.11
20.94
18.95
16.24
13.03
9.65
6.51
3.89
1.91
0.47
-0.58
-1.36
-1.86
-2.01
-1.79
-1.32
-0.91
-0.96
-1.81
-3.65
-6.46
-10.06
-14.23
-18.72
-23.39
-28.13
-32.80
-37.18
-40.88
-43.37
-44.10
-42.66
-38.93
-33.14
-25.86
-17.79
-9.63
-1.93
4.92
10.68
15.23
18.54
20.68
21.82
22.18
21.97
21.38
20.59
19.74
18.98
18.45
18.21
18.22
18.40
18.55
18.51
18.12
17.27
15.94
14.17
12.06
9.75
7.33
4.81
2.16
-0.69
-3.82
-7.23
-10.77
-14.15
-16.92
-18.59
-18.74
-17.17
-14.02
-9.71
-4.83
0.06
4.51
8.26
11.14
13.06
13.96
13.89
13.10
11.96
10.92
10.27
10.07
10.16
10.26
10.15
9.76
9.16
8.48
7.80
7.07
6.21
5.10
3.72
2.10
0.31
-1.61
-3.66
-5.87
-8.25
-10.76
-13.38
-16.10
-18.93
-21.84
-24.68
-27.07
-28.44
-28.15
-25.70
-20.91
-13.99
-5.51
3.77
13.08
21.80
29.50
35.92
40.88
44.30
46.18
46.65
45.99
44.55
42.67
40.57
38.27
35.66
32.55
28.88
24.74
20.38
16.08
12.00
8.12
4.23
0.11
-4.36
-9.02
-13.50
-17.31
-20.01
-21.40
-21.61
-21.07
-20.34
-20.01
-20.45
-21.74
-23.58
-25.36
-26.31
-25.68
-23.05
-18.40
-12.17
-5.13
1.90
8.19
13.30
17.06
19.50
20.76
21.00
20.43
19.32
17.96
16.64
15.54
14.69
14.00
13.31
12.51
11.56
10.52
9.48
8.49
7.52
6.45
5.15
3.53
1.62
-0.46
-2.52
-4.40
-6.03
-7.50
-8.99
-10.72
-12.89
-15.55
-18.60
-21.75
-24.52
-26.33
-26.69
-25.31
-22.31
-18.15
-13.56
-9.23
-5.62
-2.88
-0.82
0.81
2.24
3.55
4.70
5.65
6.37
6.89
7.22
7.37
7.27
6.92
6.33
5.57
4.76
3.96
3.20
2.46
1.72
0.99
0.26
-0.51
-1.37
-2.38
-3.60
-5.11
-6.95
-9.17
-11.70
-14.31
-16.55
-17.82
-17.59
-15.59
-12.00
-7.40
-2.60
1.67
4.88
6.85
7.63
7.37
6.26
4.45
2.17
-0.29
-2.54
-4.24
-5.16
-5.30
-4.85
-4.12
-3.38
-2.81
-2.46
-2.26
-2.15
-2.05
-1.94
-1.78
-1.52
-1.13
-0.58
0.12
0.89
1.60
2.14
2.43
2.47
2.35
2.27
2.45
3.15
4.53
6.63
9.36
12.47
15.61
18.43
20.65
22.14
22.91
23.04
22.60
21.58
19.97
17.76
15.09
12.26
9.61
7.46
5.92
4.87
4.00
2.97
1.50
-0.50
-2.91
-5.53
-8.12
-10.52
-12.69
-14.64
-16.43
-18.08
-19.54
-20.70
-21.37
-21.28
-20.12
-17.59
-13.55
-8.10
-1.68
5.03
11.24
16.30
19.86
22.01
23.19
24.10
25.53
28.19
32.50
38.43
45.43
52.47
58.29
61.78
62.20
59.37
53.59
45.48
35.80
25.38
15.09
5.84
-1.63
-6.96
-10.39
-12.78
-15.31
-19.04
-24.47
-31.38
-38.90
-45.86
-51.16
-53.96
-53.73
-50.30
-43.89
-35.20
-25.40
-15.86
-7.75
-1.65
2.49
5.11
6.59
6.96
5.98
3.54
-0.02
-3.81
-6.75
-8.11
-7.81
-6.37
-4.45
-2.36
0.13
3.58
8.38
14.40
20.89
26.76
31.03
33.19
33.32
31.99
29.92
27.78
25.92
24.36
22.79
20.75
17.74
13.38
7.55
0.37
-7.76
-16.29
-24.62
-32.17
-38.41
-42.90
-45.35
-45.70
-44.28
-41.81
-39.31
-37.75
-37.66
-38.94
-40.83
-42.27
-42.41
-40.98
-38.34
-35.27
-32.50
-30.43
-28.99
-27.92
-26.97
-26.13
-25.48
-25.09
-24.75
-24.08
-22.70
-20.47
-17.61
-14.60
-11.91
-9.74
-8.00
-6.40
-4.78
-3.27
-2.27
-2.26
-3.44
-5.62
-8.28
-10.83
-12.93
-14.52
-15.79
-16.89
-17.81
-18.39
-18.44
-17.95
-17.06
-16.09
-15.35
-15.03
-15.20
-15.85
-16.91
-18.22
-19.57
-20.66
-21.17
-20.83
-19.43
-16.87
-13.08
-8.13
-2.23
4.15
10.37
15.69
19.52
21.53
21.69
20.17
17.29
13.42
8.89
4.09
-0.64
-4.99
-8.79
-11.98
-14.61
-16.72
-18.35
-19.57
-20.49
-21.37
-22.50
-24.11
-26.14
-28.16
-29.45
-29.20
-26.82
-22.14
-15.53
-7.77
0.22
7.59
13.74
18.34
21.27
22.52
22.20
20.57
18.05
15.17
12.37
9.78
7.15
3.91
-0.54
-6.50
-13.89
-22.17
-30.63
-38.55
-45.28
-50.25
-52.77
-52.04
-47.35
-38.34
-25.36
-9.55
7.34
23.39
37.02
47.32
54.12
57.82
59.17
58.95
57.93
56.82
56.27
56.84
58.82
62.15
66.33
70.52
73.69
74.96
73.79
70.14
64.47
57.62
50.63
44.42
39.61
36.31
34.08
32.09
29.38
25.13
18.90
10.80
1.41
-8.34
-17.39
-24.75
-29.77
-32.25
-32.48
-31.16
-29.09
-27.00
-25.34
-24.30
-23.85
-23.90
-24.30
-24.78
-24.91
-24.21
-22.28
-18.95
-14.39
-9.03
-3.36
2.22
7.52
12.51
17.20
21.55
25.44
28.67
31.07
32.51
33.00
32.66
31.76
30.68
29.75
29.23
29.19
29.60
30.33
31.26
32.31
33.34
34.17
34.52
34.14
32.86
30.72
27.98
24.97
22.01
19.22
16.46
13.47
9.99
5.97
1.60
-2.72
-6.53
-9.55
-11.72
-13.26
-14.53
-15.95
-17.86
-20.48
-23.84
-27.78
-31.98
-35.97
-39.21
-41.22
-41.70
-40.56
-37.94
-34.12
-29.48
-24.42
-19.35
-14.68
-10.84
-8.20
-6.93
-6.89
-7.59
-8.28
-8.21
-6.83
-3.97
0.16
5.09
10.25
15.04
18.83
21.08
21.37
19.55
15.83
10.75
5.00
-0.71
-5.81
-9.97
-12.98
-14.83
-15.54
-15.29
-14.29
-12.79
-10.95
-8.85
-6.53
-4.01
-1.43
0.97
2.82
3.71
3.34
1.58
-1.32
-4.88
-8.42
-11.31
-13.17
-14.01
-14.19
-14.19
-14.43
-15.02
-15.76
-16.22
-15.97
-14.79
-12.73
-10.12
-7.44
-5.18
-3.74
-3.36
-4.16
-6.01
-8.56
-11.18
-13.07
-13.45
-11.82
-8.13
-2.81
3.38
9.60
15.12
19.49
22.51
24.21
24.72
24.24
22.98
21.11
18.80
16.15
13.30
10.45
7.91
6.04
5.18
5.51
6.92
9.00
11.19
12.91
13.79
13.75
12.94
11.67
10.22
8.79
7.33
5.69
3.62
0.93
-2.34
-5.84
-8.96
-10.97
-11.31
-9.74
-6.47
-2.12
2.50
6.66
9.82
11.80
12.69
12.77
12.37
11.80
11.29
10.94
10.80
10.84
11.01
11.22
11.37
11.37
11.17
10.81
10.38
9.97
9.59
9.15
8.49
7.46
6.03
4.28
2.34
0.23
-2.05
-4.55
-7.14
-9.44
-10.89
-10.92
-9.24
-5.94
-1.56
3.13
7.30
10.31
11.78
11.74
10.66
9.50
9.42
11.41
15.76
21.84
28.19
33.07
35.23
34.35
31.10
26.68
22.22
18.34
15.02
11.93
8.69
5.08
1.05
-3.44
-8.48
-14.21
-20.63
-27.52
-34.44
-40.71
-45.70
-48.91
-50.18
-49.73
-48.12
-46.08
-44.29
-43.07
-42.36
-41.73
-40.61
-38.58
-35.43
-31.28
-26.35
-20.93
-15.25
-9.52
-3.95
1.20
5.70
9.33
11.97
13.56
14.08
13.56
12.13
10.07
7.82
5.87
4.62
4.24
4.60
5.30
5.79
5.60
4.40
2.16
-0.97
-4.69
-8.75
-12.95
-17.23
-21.58
-26.03
-30.63
-35.41
-40.35
-45.36
-50.23
-54.60
-57.90
-59.48
-58.68
-55.06
-48.60
-39.74
-29.30
-18.26
-7.46
2.62
11.80
20.12
27.55
33.86
38.70
41.78
43.03
42.75
41.49
39.85
38.31
37.13
36.33
35.84
35.51
35.19
34.75
34.02
32.86
31.12
28.72
25.73
22.41
19.18
16.44
14.48
13.26
12.39
11.35
9.66
7.14
3.97
0.61
-2.44
-4.75
-6.10
-6.42
-5.72
-4.12
-1.84
0.76
3.25
5.21
6.37
6.68
6.28
5.41
4.33
3.20
2.09
1.02
-0.05
-1.14
-2.26
-3.35
-4.34
-5.17
-5.82
-6.35
-6.87
-7.54
-8.46
-9.63
-10.98
-12.38
-13.70
-14.84
-15.76
-16.49
-17.10
-17.75
-18.62
-19.85
-21.50
-23.41
-25.25
-26.58
-26.96
-26.11
-24.02
-20.86
-16.98
-12.73
-8.41
-4.21
-0.28
3.21
6.09
8.21
9.55
10.16
10.22
9.91
9.38
8.72
8.01
7.38
6.99
6.94
7.21
7.59
7.76
7.41
6.35
4.54
2.14
-0.66
-3.61
-6.52
-9.24
-11.70
-13.88
-15.90
-17.95
-20.22
-22.85
-25.76
-28.64
-30.99
-32.26
-32.08
-30.36
-27.32
-23.36
-18.95
-14.43
-9.97
-5.64
-1.44
2.60
6.42
9.98
13.29
16.37
19.19
21.60
23.40
24.31
24.17
23.02
21.15
18.99
16.98
15.43
14.38
13.67
13.01
12.14
10.95
9.42
7.65
5.71
3.63
1.37
-1.17
-4.11
-7.55
-11.56
-16.10
-20.99
-25.85
-30.17
-33.40
-35.11
-35.07
-33.27
-29.91
-25.29
-19.81
-13.82
-7.74
-1.95
3.18
7.42
10.66
12.96
14.51
15.49
16.13
16.55
16.85
17.03
17.00
16.66
15.93
14.82
13.43
11.96
10.57
9.29
8.05
6.64
4.89
2.75
0.32
-2.16
-4.45
-6.39
-8.03
-9.56
-11.24
-13.28
-15.66
-18.12
-20.15
-21.15
-20.67
-18.49
-14.75
-9.91
-4.53
0.85
5.88
10.39
14.33
17.67
20.37
22.37
23.70
24.42
24.69
24.71
24.62
24.50
24.34
24.05
23.59
22.92
22.09
21.20
20.33
19.49
18.65
17.71
16.54
15.09
13.35
11.37
9.21
6.93
4.54
2.04
-0.61
-3.43
-6.44
-9.58
-12.65
-15.29
-17.02
-17.40
-16.19
-13.46
-9.56
-5.02
-0.36
4.04
7.95
11.25
13.87
15.77
16.92
17.39
17.38
17.12
16.79
16.48
16.15
15.66
14.94
13.97
12.85
11.75
10.80
10.06
9.51
9.03
8.45
7.65
6.59
5.30
3.91
2.54
1.27
0.11
-1.07
-2.43
-4.10
-6.18
-8.63
-11.26
-13.77
-15.76
-16.83
-16.70
-15.26
-12.67
-9.27
-5.54
-1.90
1.34
4.04
6.16
7.74
8.80
9.36
9.44
9.13
8.55
7.89
7.30
6.87
6.60
6.40
6.14
5.75
5.24
4.65
4.08
3.54
2.97
2.25
1.29
0.09
-1.24
-2.55
-3.77
-4.95
-6.23
-7.77
-9.57
-11.47
-13.12
-14.13
-14.23
-13.34
-11.59
-9.22
-6.53
-3.76
-1.09
1.32
3.38
4.98
6.05
6.55
6.46
5.85
4.86
3.70
2.59
1.69
1.07
0.68
0.38
0.03
-0.46
-1.08
-1.76
-2.42
-3.02
-3.53
-4.04
-4.65
-5.49
-6.70
-8.36
-10.42
-12.63
-14.61
-15.91
-16.19
-15.34
-13.49
-10.94
-8.05
-5.07
-2.16
0.64
3.25
5.60
7.53
8.94
9.75
10.06
10.01
9.82
9.71
9.75
9.95
10.21
10.41
10.42
10.20
9.76
9.15
8.43
7.60
6.61
5.38
3.85
2.01
-0.16
-2.65
-5.45
-8.44
-11.39
-13.91
-15.54
-15.95
-15.07
-13.15
-10.60
-7.87
-5.22
-2.71
-0.22
2.28
4.66
6.63
7.88
8.26
7.84
6.93
5.90
5.04
4.47
4.12
3.79
3.30
2.59
1.69
0.74
-0.13
-0.88
-1.56
-2.33
-3.31
-4.60
-6.18
-8.00
-9.94
-11.86
-13.55
-14.79
-15.34
-14.96
-13.61
-11.33
-8.38
-5.08
-1.75
1.35
4.06
6.29
7.99
9.14
9.75
9.84
9.52
8.90
8.15
7.40
6.73
6.19
5.68
5.12
4.37
3.38
2.20
0.95
-0.20
-1.12
-1.80
-2.35
-2.95
-3.76
-4.86
-6.27
-7.90
-9.61
-11.20
-12.36
-12.77
-12.08
-10.15
-7.06
-3.10
1.24
5.51
9.31
12.42
14.73
16.21
16.92
16.94
16.37
15.35
13.96
12.33
10.59
8.93
7.55
6.59
6.03
5.73
5.48
5.11
4.53
3.80
3.00
2.19
1.37
0.47
-0.57
-1.76
-3.07
-4.44
-5.86
-7.35
-8.83
-10.13
-10.91
-10.79
-9.47
-6.90
-3.28
0.97
5.37
9.59
13.45
16.95
20.13
22.96
25.28
26.78
27.11
26.02
23.52
19.90
15.70
11.52
7.83
4.77
2.22
-0.06
-2.19
-4.13
-5.68
-6.73
-7.37
-7.89
-8.62
-9.75
-11.23
-12.80
-14.17
-15.25
-16.18
-17.22
-18.56
-20.12
-21.52
-22.25
-21.87
-20.18
-17.34
-13.77
-9.97
-6.41
-3.36
-0.93
0.87
2.09
2.79
3.03
2.89
2.48
1.93
1.33
0.75
0.23
-0.26
-0.73
-1.21
-1.70
-2.20
-2.72
-3.28
-3.91
-4.57
-5.21
-5.77
-6.22
-6.64
-7.20
-8.11
-9.48
-11.31
-13.38
-15.35
-16.77
-17.28
-16.64
-14.88
-12.24
-9.07
-5.78
-2.68
0.06
2.38
4.27
5.74
6.77
7.36
7.50
7.24
6.64
5.78
4.77
3.75
2.85
2.17
1.71
1.35
0.93
0.34
-0.46
-1.38
-2.31
-3.19
-4.07
-5.03
-6.17
-7.52
-9.05
-10.65
-12.17
-13.46
-14.31
-14.54
-14.00
-12.65
-10.54
-7.89
-4.97
-2.02
0.72
3.11
5.03
6.40
7.19
7.40
7.11
6.47
5.66
4.82
4.04
3.38
2.81
2.26
1.67
1.01
0.27
-0.49
-1.21
-1.86
-2.51
-3.24
-4.19
-5.45
-7.03
-8.87
-10.89
-13.00
-15.06
-16.82
-17.96
-18.12
-17.02
-14.65
-11.24
-7.24
-3.16
0.62
3.90
6.63
8.85
10.60
11.79
12.34
12.19
11.41
10.23
8.93
7.79
6.94
6.34
5.83
5.20
4.37
3.35
2.25
1.20
0.23
-0.70
-1.69
-2.82
-4.13
-5.60
-7.18
-8.89
-10.78
-12.89
-15.19
-17.46
-19.34
-20.36
-20.09
-18.29
-15.03
-10.62
-5.62
-0.58
4.04
7.95
11.07
13.41
15.00
15.89
16.17
15.93
15.36
14.65
13.91
13.16
12.35
11.43
10.45
9.57
8.96
8.68
8.66
8.65
8.36
7.59
6.32
4.67
2.84
1.03
-0.62
-2.11
-3.53
-5.07
-6.93
-9.27
-12.09
-15.24
-18.30
-20.78
-22.16
-22.06
-20.34
-17.15
-12.81
-7.79
-2.53
2.57
7.23
11.22
14.41
16.69
18.04
18.56
18.40
17.80
17.03
16.26
15.65
15.20
14.90
14.69
14.48
14.20
13.79
13.24
12.56
11.80
10.97
10.03
8.86
7.34
5.37
3.02
0.46
-2.02
-4.15
-5.81
-7.04
-8.05
-9.13
-10.51
-12.33
-14.59
-17.12
-19.60
-21.55
-22.47
-21.97
-19.88
-16.36
-11.85
-6.89
-1.97
2.59
6.61
10.02
12.72
14.61
15.62
15.81
15.40
14.67
13.93
13.34
12.92
12.55
12.09
11.48
10.73
9.98
9.31
8.79
8.35
7.86
7.19
6.26
5.04
3.56
1.90
0.15
-1.57
-3.16
-4.53
-5.69
-6.77
-7.96
-9.46
-11.43
-13.85
-16.54
-19.16
-21.29
-22.52
-22.52
-21.11
-18.35
-14.47
-9.86
-4.95
-0.16
4.19
7.88
10.76
12.76
13.91
14.29
14.06
13.43
12.63
11.82
11.09
10.46
9.86
9.21
8.41
7.43
6.30
5.13
4.05
3.13
2.40
1.76
1.03
-0.01
-1.51
-3.52
-5.93
-8.44
-10.70
-12.37
-13.27
-13.45
-13.15
-12.71
-12.45
-12.52
-12.93
-13.55
-14.23
-14.79
-15.00
-14.58
-13.15
-10.40
-6.25
-0.96
4.84
10.40
15.04
18.44
20.65
21.98
22.86
23.55
24.11
24.44
24.38
23.81
22.73
21.24
19.49
17.63
15.80
14.07
12.52
11.19
10.06
9.07
8.08
6.90
5.40
3.55
1.49
-0.59
-2.55
-4.41
-6.40
-8.83
-11.96
-15.83
-20.25
-24.84
-29.13
-32.62
-34.81
-35.22
-33.51
-29.58
-23.73
-16.68
-9.35
-2.61
2.99
7.29
10.47
12.73
14.11
14.42
13.40
10.91
7.18
2.83
-1.28
-4.27
-5.53
-4.92
-2.68
0.61
4.30
7.77
10.61
12.58
13.62
13.72
12.96
11.44
9.30
6.71
3.92
1.16
-1.38
-3.60
-5.49
-7.14
-8.72
-10.36
-12.14
-14.03
-15.89
-17.50
-18.59
-18.90
-18.25
-16.56
-13.89
-10.41
-6.38
-2.09
2.18
6.16
9.63
12.42
14.42
15.57
15.89
15.48
14.54
13.37
12.25
11.39
10.88
10.66
10.59
10.51
10.33
9.96
9.40
8.63
7.65
6.50
5.21
3.80
2.26
0.58
-1.21
-3.00
-4.65
-6.03
-7.13
-8.16
-9.38
-11.06
-13.21
-15.55
-17.58
-18.75
-18.63
-17.06
-14.17
-10.29
-5.81
-1.16
3.28
7.24
10.50
12.92
14.47
15.20
15.26
14.81
14.09
13.32
12.65
12.19
11.93
11.78
11.59
11.23
10.65
9.89
9.05
8.21
7.38
6.50
5.46
4.22
2.76
1.16
-0.49
-2.09
-3.57
-4.86
-5.92
-6.79
-7.61
-8.62
-10.00
-11.79
-13.74
-15.36
-16.06
-15.40
-13.27
-9.89
-5.78
-1.55
2.30
5.46
7.91
9.77
11.23
12.43
13.37
13.96
14.11
13.79
13.12
12.26
11.38
10.54
9.70
8.77
7.71
6.63
5.71
5.12
4.92
4.98
5.06
4.86
4.18
2.97
1.31
-0.58
-2.45
-4.12
-5.55
-6.84
-8.20
-9.87
-12.00
-14.63
-17.58
-20.54
-23.06
-24.69
-25.05
-23.96
-21.48
-17.95
-13.83
-9.60
-5.62
-2.07
1.03
3.65
5.75
7.24
8.03
8.18
7.88
7.40
6.97
6.72
6.65
6.67
6.68
6.61
6.45
6.21
5.92
5.64
5.42
5.27
5.09
4.74
4.06
2.93
1.39
-0.39
-2.23
-3.92
-5.45
-6.89
-8.40
-10.14
-12.18
-14.50
-16.91
-19.11
-20.71
-21.33
-20.68
-18.69
-15.54
-11.59
-7.28
-3.04
0.84
4.19
6.94
9.09
10.65
11.61
11.99
11.84
11.26
10.41
9.46
8.56
7.79
7.10
6.39
5.55
4.56
3.50
2.53
1.76
1.22
0.78
0.26
-0.54
-1.70
-3.20
-4.91
-6.64
-8.24
-9.59
-10.66
-11.51
-12.25
-13.08
-14.21
-15.79
-17.84
-20.12
-22.18
-23.41
-23.25
-21.38
-17.90
-13.24
-8.08
-3.02
1.51
5.37
8.59
11.25
13.32
14.76
15.50
15.55
15.07
14.29
13.44
12.69
12.13
11.76
11.50
11.27
10.93
10.41
9.64
8.65
7.46
6.18
4.91
3.75
2.77
2.00
1.37
0.71
-0.12
-1.26
-2.71
-4.30
-5.81
-7.01
-7.79
-8.20
-8.42
-8.67
-9.05
-9.47
-9.57
-8.79
-6.54
-2.43
3.54
10.93
18.94
26.61
32.99
37.35
39.23
38.48
35.28
30.08
23.56
16.50
9.68
3.79
-0.72
-3.65
-5.03
-5.19
-4.63
-3.92
-3.59
-3.93
-4.99
-6.57
-8.37
-10.10
-11.63
-12.97
-14.21
-15.50
-16.93
-18.51
-20.20
-21.88
-23.43
-24.71
-25.63
-26.14
-26.31
-26.32
-26.43
-26.93
-27.97
-29.45
-30.99
-31.98
-31.79
-29.97
-26.41
-21.41
-15.53
-9.42
-3.61
1.56
5.97
9.61
12.48
14.59
15.95
16.61
16.66
16.24
15.51
14.64
13.75
12.96
12.33
11.87
11.54
11.26
10.98
10.69
10.41
10.20
10.05
9.88
9.55
8.91
7.91
6.58
5.06
3.47
1.90
0.35
-1.18
-2.65
-3.99
-5.14
-6.07
-6.92
-7.91
-9.30
-11.22
-13.56
-15.95
-17.83
-18.61
-17.87
-15.49
-11.71
-7.02
-2.01
2.80
7.07
10.68
13.66
16.07
17.92
19.19
19.85
19.88
19.36
18.41
17.18
15.80
14.37
12.97
11.67
10.55
9.65
8.98
8.45
7.94
7.32
6.55
5.60
4.56
3.49
2.44
1.39
0.31
-0.86
-2.15
-3.53
-4.96
-6.36
-7.70
-8.99
-10.27
-11.61
-13.09
-14.80
-16.77
-18.93
-21.01
-22.58
-23.19
-22.47
-20.36
-17.08
-13.10
-8.91
-4.88
-1.18
2.16
5.15
7.69
9.62
10.78
11.17
10.96
10.44
9.90
9.54
9.42
9.49
9.66
9.87
10.08
10.27
10.42
10.49
10.43
10.17
9.66
8.85
7.72
6.27
4.55
2.66
0.73
-1.12
-2.79
-4.27
-5.60
-6.88
-8.26
-9.87
-11.81
-14.06
-16.46
-18.68
-20.33
-21.01
-20.44
-18.54
-15.44
-11.48
-7.07
-2.66
1.41
4.92
7.74
9.86
11.31
12.18
12.58
12.65
12.49
12.22
11.90
11.55
11.18
10.77
10.29
9.73
9.10
8.44
7.79
7.18
6.59
5.97
5.24
4.28
2.99
1.32
-0.68
-2.85
-5.02
-6.98
-8.64
-10.03
-11.31
-12.72
-14.44
-16.57
-19.00
-21.45
-23.50
-24.69
-24.62
-23.04
-19.98
-15.70
-10.70
-5.50
-0.55
3.89
7.73
10.95
13.54
15.43
16.62
17.14
17.14
16.89
16.62
16.50
16.56
16.69
16.75
16.63
16.29
15.76
15.08
14.29
13.41
12.42
11.33
10.14
8.83
7.40
5.84
4.18
2.45
0.71
-1.02
-2.72
-4.39
-6.05
-7.68
-9.28
-10.87
-12.52
-14.37
-16.49
-18.82
-21.06
-22.71
-23.24
-22.30
-19.84
-16.11
-11.65
-6.98
-2.56
1.31
4.52
7.05
8.93
10.20
10.93
11.22
11.21
11.05
10.87
10.76
10.73
10.71
10.61
10.33
9.87
9.28
8.63
7.98
7.28
6.44
5.28
3.67
1.51
-1.20
-4.36
-7.79
-11.25
-14.44
-17.06
-18.83
-19.56
-19.20
-17.83
-15.66
-12.94
-9.93
-6.83
-3.84
-1.19
0.80
1.86
1.92
1.24
0.42
0.20
1.14
3.34
6.44
9.74
12.64
14.80
16.27
17.30
18.15
18.87
19.26
19.05
18.06
16.38
14.33
12.38
10.96
10.26
10.19
10.45
10.72
10.73
10.45
9.92
9.21
8.33
7.21
5.84
4.25
2.59
1.01
-0.44
-1.77
-3.09
-4.47
-5.90
-7.33
-8.68
-9.91
-11.02
-12.06
-13.09
-14.22
-15.56
-17.25
-19.32
-21.66
-23.93
-25.65
-26.29
-25.52
-23.24
-19.69
-15.28
-10.49
-5.75
-1.39
2.35
5.33
7.50
8.89
9.61
9.86
9.83
9.69
9.52
9.35
9.17
9.02
8.88
8.77
8.66
8.50
8.24
7.89
7.48
7.04
6.61
6.15
5.62
4.91
3.94
2.66
1.09
-0.68
-2.53
-4.32
-5.98
-7.48
-8.84
-10.12
-11.41
-12.82
-14.48
-16.45
-18.64
-20.78
-22.39
-22.93
-22.00
-19.53
-15.78
-11.28
-6.63
-2.26
1.62
5.01
7.99
10.53
12.57
13.95
14.64
14.71
14.40
13.96
13.61
13.46
13.50
13.68
13.94
14.22
14.50
14.71
14.80
14.75
14.53
14.10
13.45
12.54
11.36
9.97
8.52
7.18
6.07
5.23
4.55
3.84
2.91
1.68
0.18
-1.45
-3.05
-4.49
-5.73
-6.83
-7.88
-9.00
-10.19
-11.36
-12.38
-13.11
-13.54
-13.77
-14.00
-14.42
-15.20
-16.39
-17.97
-19.85
-21.90
-23.86
-25.34
-25.86
-24.94
-22.36
-18.22
-12.99
-7.37
-2.02
2.59
6.32
9.24
11.54
13.35
14.70
15.56
15.89
15.76
15.31
14.76
14.27
13.92
13.71
13.58
13.46
13.31
13.13
12.94
12.77
12.60
12.39
12.05
11.46
10.55
9.26
7.65
5.83
3.98
2.27
0.85
-0.20
-0.91
-1.40
-1.88
-2.56
-3.58
-4.99
-6.69
-8.53
-10.39
-12.23
-14.10
-16.08
-18.23
-20.51
-22.77
-24.75
-26.09
-26.43
-25.47
-23.07
-19.38
-14.74
-9.69
-4.72
-0.25
3.54
6.59
8.95
10.66
11.73
12.18
12.09
11.63
11.01
10.46
10.12
10.05
10.15
10.31
10.43
10.46
10.44
10.39
10.32
10.17
9.86
9.35
8.61
7.70
6.66
5.56
4.42
3.21
1.91
0.51
-1.00
-2.62
-4.32
-6.05
-7.73
-9.32
-10.80
-12.28
-13.93
-15.89
-18.15
-20.45
-22.29
-23.07
-22.35
-20.00
-16.22
-11.50
-6.42
-1.46
3.06
6.97
10.20
12.70
14.42
15.40
15.70
15.53
15.13
14.72
14.43
14.27
14.16
13.97
13.64
13.17
12.66
12.22
11.93
11.78
11.64
11.36
10.78
9.85
8.62
7.22
5.83
4.53
3.32
2.09
0.72
-0.90
-2.74
-4.70
-6.60
-8.28
-9.65
-10.74
-11.69
-12.74
-14.10
-15.90
-18.10
-20.51
-22.79
-24.49
-25.18
-24.50
-22.30
-18.68
-13.99
-8.73
-3.47
1.35
5.46
8.81
11.44
13.39
14.71
15.38
15.47
15.15
14.64
14.16
13.85
13.70
13.62
13.46
13.10
12.52
11.76
10.95
10.20
9.59
9.12
8.73
8.29
7.65
6.75
5.57
4.22
2.80
1.44
0.16
-1.06
-2.29
-3.61
-5.04
-6.56
-8.11
-9.59
-10.97
-12.22
-13.40
-14.62
-16.01
-17.67
-19.66
-21.86
-24.02
-25.73
-26.50
-25.90
-23.72
-20.04
-15.25
-9.93
-4.66
0.12
4.21
7.59
10.35
12.52
14.04
14.86
14.96
14.52
13.83
13.26
13.08
13.35
13.90
14.43
14.63
14.33
13.58
12.64
11.80
11.24
10.99
10.89
10.69
10.17
9.25
7.99
6.55
5.12
3.80
2.58
1.38
0.05
-1.51
-3.30
-5.23
-7.12
-8.83
-10.29
-11.57
-12.79
-14.12
-15.66
-17.48
-19.60
-22.05
-24.74
-27.47
-29.77
-31.03
-30.63
-28.21
-23.82
-18.00
-11.54
-5.26
0.21
4.61
7.95
10.38
12.03
12.98
13.26
12.98
12.37
11.72
11.30
11.27
11.60
12.10
12.57
12.83
12.86
12.68
12.36
11.95
11.44
10.78
9.92
8.84
7.52
5.98
4.29
2.55
0.87
-0.67
-2.06
-3.38
-4.72
-6.16
-7.65
-9.14
-10.58
-11.98
-13.49
-15.24
-17.31
-19.52
-21.50
-22.72
-22.70
-21.17
-18.16
-14.02
-9.28
-4.43
0.13
4.20
7.70
10.58
12.76
14.18
14.83
14.82
14.37
13.75
13.17
12.73
12.43
12.18
11.93
11.64
11.34
11.09
10.90
10.77
10.60
10.30
9.81
9.08
8.15
7.11
6.03
4.91
3.70
2.32
0.73
-1.03
-2.85
-4.59
-6.16
-7.57
-8.94
-10.40
-12.10
-14.08
-16.31
-18.70
-21.07
-23.17
-24.65
-25.10
-24.16
-21.68
-17.78
-12.91
-7.66
-2.60
1.83
5.47
8.33
10.49
12.06
13.07
13.57
13.62
13.34
12.87
12.34
11.86
11.53
11.43
11.60
12.07
12.74
13.43
13.93
14.08
13.81
13.20
12.39
11.47
10.45
9.25
7.82
6.16
4.43
2.76
1.25
-0.14
-1.57
-3.21
-5.11
-7.20
-9.34
-11.41
-13.45
-15.58
-17.93
-20.50
-22.99
-24.89
-25.60
-24.67
-21.94
-17.67
-12.40
-6.77
-1.34
3.50
7.59
10.94
13.61
15.66
17.13
18.00
18.23
17.84
16.92
15.67
14.35
13.22
12.49
12.19
12.26
12.49
12.65
12.59
12.20
11.50
10.56
9.44
8.19
6.82
5.27
3.52
1.56
-0.56
-2.78
-5.03
-7.27
-9.48
-11.64
-13.72
-15.67
-17.48
-19.19
-20.89
-22.66
-24.43
-25.95
-26.82
-26.61
-25.05
-22.11
-18.04
-13.28
-8.33
-3.59
0.65
4.25
7.14
9.30
10.71
11.43
11.57
11.33
10.91
10.54
10.35
10.37
10.48
10.53
10.33
9.78
8.94
7.96
7.09
6.49
6.19
6.01
5.67
4.91
3.56
1.70
-0.47
-2.65
-4.62
-6.28
-7.69
-9.02
-10.44
-12.11
-14.08
-16.31
-18.63
-20.77
-22.34
-22.91
-22.13
-19.84
-16.15
-11.49
-6.44
-1.61
2.58
5.96
8.60
10.65
12.23
13.35
13.92
13.92
13.44
12.70
11.95
11.40
11.09
10.95
10.84
10.67
10.44
10.20
10.00
9.81
9.53
8.97
8.01
6.63
4.91
3.01
1.09
-0.74
-2.43
-4.01
-5.52
-6.97
-8.38
-9.82
-11.43
-13.35
-15.64
-18.16
-20.53
-22.19
-22.62
-21.50
-18.86
-15.04
-10.55
-5.92
-1.52
2.41
5.82
8.65
10.89
12.52
13.56
14.11
14.29
14.25
14.10
13.90
13.65
13.36
13.03
12.66
12.28
11.89
11.51
11.15
10.84
10.58
10.33
9.98
9.38
8.38
6.93
5.07
2.95
0.78
-1.29
-3.16
-4.80
-6.28
-7.65
-9.00
-10.41
-11.97
-13.81
-15.96
-18.32
-20.58
-22.23
-22.72
-21.67
-19.00
-14.97
-10.14
-5.15
-0.55
3.35
6.42
8.72
10.35
11.41
12.01
12.24
12.17
11.90
11.51
11.11
10.75
10.48
10.30
10.18
10.09
10.00
9.88
9.69
9.37
8.86
8.15
7.23
6.14
4.93
3.64
2.29
0.90
-0.48
-1.81
-3.04
-4.19
-5.33
-6.52
-7.84
-9.32
-11.01
-12.92
-15.05
-17.30
-19.39
-20.89
-21.37
-20.49
-18.21
-14.74
-10.51
-5.99
-1.57
2.48
5.98
8.80
10.81
11.98
12.35
12.10
11.49
10.82
10.27
9.95
9.83
9.84
9.86
9.83
9.68
9.39
8.93
8.30
7.55
6.72
5.87
5.03
4.18
3.26
2.18
0.91
-0.54
-2.10
-3.67
-5.19
-6.64
-8.05
-9.49
-11.02
-12.77
-14.82
-17.21
-19.80
-22.28
-24.16
-24.93
-24.23
-21.95
-18.27
-13.60
-8.44
-3.28
1.51
5.65
8.97
11.36
12.83
13.48
13.49
13.13
12.62
12.15
11.81
11.61
11.53
11.53
11.57
11.59
11.59
11.58
11.58
11.61
11.57
11.22
10.19
8.08
4.59
-0.26
-6.17
-12.62
-18.96
-24.69
-29.46
-33.13
-35.72
-37.36
-38.28
-38.84
-39.42
-40.35
-41.73
-43.32
-44.50
-44.46
-42.39
-37.86
-30.92
-22.12
-12.34
-2.45
6.91
15.39
22.89
29.38
34.75
38.82
41.40
42.47
42.21
41.00
39.25
37.35
35.48
33.73
32.13
30.72
29.56
28.68
28.08
27.67
27.32
26.89
26.28
25.49
24.59
23.75
23.19
23.18
23.91
25.48
27.76
30.41
32.96
34.84
35.58
34.90
32.74
29.33
25.09
20.56
16.23
12.43
9.26
6.68
4.57
2.87
1.62
0.94
0.91
1.53
2.67
4.10
5.59
6.93
8.00
8.73
9.07
9.01
8.54
7.71
6.63
5.47
4.39
3.50
2.80
2.23
1.66
1.03
0.29
-0.56
-1.61
-2.98
-4.82
-7.27
-10.37
-14.04
-18.07
-22.20
-26.13
-29.56
-32.25
-34.01
-34.82
-34.75
-34.00
-32.87
-31.69
-30.78
-30.48
-31.07
-32.78
-35.66
-39.51
-43.80
-47.77
-50.62
-51.77
-51.05
-48.76
-45.51
-42.01
-38.82
-36.21
-34.21
-32.66
-31.33
-29.96
-28.26
-26.03
-23.08
-19.47
-15.41
-11.33
-7.68
-4.85
-3.00
-2.06
-1.76
-1.73
-1.64
-1.32
-0.77
-0.16
0.30
0.49
0.44
0.29
0.17
0.14
0.15
0.11
-0.04
-0.32
-0.74
-1.40
-2.42
-3.89
-5.72
-7.68
-9.41
-10.60
-11.09
-10.84
-9.89
-8.25
-5.89
-2.89
0.58
4.18
7.52
10.34
12.61
14.50
16.32
18.31
20.55
22.91
25.10
26.83
27.79
27.83
26.88
24.98
22.26
18.94
15.24
11.44
7.74
4.27
1.03
-2.09
-5.27
-8.69
-12.47
-16.61
-20.90
-24.99
-28.39
-30.59
-31.19
-30.06
-27.31
-23.35
-18.70
-13.88
-9.26
-5.02
-1.18
2.37
5.70
8.84
11.67
14.04
15.80
16.90
17.40
17.49
17.39
17.29
17.28
17.37
17.50
17.58
17.51
17.21
16.59
15.63
14.31
12.67
10.81
8.83
6.83
4.91
3.04
1.14
-0.99
-3.52
-6.57
-10.03
-13.52
-16.44
-18.18
-18.28
-16.65
-13.57
-9.58
-5.26
-1.04
2.90
6.51
9.84
12.81
15.29
17.10
18.16
18.51
18.33
17.86
17.27
16.66
16.02
15.30
14.47
13.53
12.58
11.70
10.96
10.36
9.79
9.10
8.16
6.88
5.24
3.28
1.02
-1.50
-4.18
-6.91
-9.54
-12.01
-14.36
-16.70
-19.07
-21.24
-22.67
-22.64
-20.56
-16.25
-10.09
-2.86
4.57
11.61
18.01
23.84
29.14
33.79
37.39
39.45
39.65
37.95
34.63
30.14
24.85
18.86
12.02
4.16
-4.66
-13.95
-22.86
-30.46
-36.08
-39.54
-41.15
-41.45
-40.96
-39.94
-38.49
-36.64
-34.52
-32.33
-30.24
-28.21
-26.04
-23.44
-20.35
-17.00
-13.90
-11.53
-10.05
-9.04
-7.58
-4.60
0.63
8.02
16.61
24.88
31.30
34.94
35.74
34.40
31.92
29.10
26.30
23.55
20.74
17.92
15.30
13.16
11.73
11.09
11.31
12.53
14.93
18.59
23.40
28.91
34.43
39.24
42.73
44.54
44.44
42.36
38.25
32.22
24.60
15.98
7.25
-0.58
-6.44
-9.40
-8.76
-4.34
3.43
13.39
23.82
32.90
39.18
42.06
41.93
39.97
37.65
36.22
36.38
38.19
41.24
44.94
48.76
52.38
55.75
59.05
62.56
66.53
70.99
75.79
80.66
85.38
89.88
94.11
97.78
100.01
99.25
93.63
81.62
62.81
38.34
10.79
-16.63
-40.92
-60.19
-73.90
-82.59
-87.24
-88.79
-87.75
-84.34
-78.62
-70.89
-61.71
-51.91
-42.36
-33.78
-26.55
-20.62
-15.62
-11.04
-6.67
-2.98
-1.28
-3.46
-11.36
-25.90
-46.36
-70.21
-93.64
-112.49
-123.42
-124.76
-116.79
-101.55
-82.41
-63.70
-50.06
-45.49
-52.06
-69.02
-92.75
-117.88
-139.22
-153.62
-160.83
-162.97
-162.82
-162.12
-160.69
-156.91
-149.09
-136.81
-121.33
-104.88
-89.35
-75.23
-61.50
-46.43
-28.75
-8.48
13.05
33.98
53.00
69.85
85.11
99.27
112.05
122.18
127.98
128.32
123.30
114.32
103.55
93.12
84.47
78.09
73.76
70.80
68.53
66.40
64.08
61.39
58.29
54.86
51.25
47.70
44.36
41.27
38.32
35.39
32.51
30.01
28.55
28.88
31.53
36.46
42.94
49.69
55.33
58.78
59.55
57.83
54.26
49.74
45.17
41.29
38.69
37.71
38.49
40.96
44.77
49.35
53.95
57.78
60.14
60.61
59.14
56.00
51.65
46.54
40.93
34.90
28.45
21.63
14.65
7.83
1.44
-4.37
-9.70
-14.74
-19.71
-24.71
-29.68
-34.49
-39.04
-43.30
-47.41
-51.60
-56.10
-61.11
-66.74
-72.98
-79.72
-86.86
-94.32
-102.11
-110.28
-118.86
-127.65
-136.22
-143.92
-149.97
-153.61
-154.19
-151.24
-144.49
-133.95
-120.05
-103.69
-86.14
-68.89
-53.28
-40.30
-30.42
-23.58
-19.23
-16.52
-14.39
-11.80
-7.92
-2.33
4.98
13.72
23.47
33.82
44.33
54.46
63.58
71.07
76.48
79.65
80.74
80.02
77.83
74.58
70.99
68.20
67.62
70.38
76.58
84.91
92.81
97.32
96.29
89.30
77.96
65.23
54.46
48.14
47.25
51.09
57.73
64.61
69.25
69.75
65.05
55.04
40.45
22.59
3.07
-16.58
-35.09
-51.62
-65.63
-76.82
-85.01
-90.13
-92.29
-91.87
-89.52
-85.96
-81.84
-77.47
-72.85
-67.80
-62.15
-55.99
-49.64
-43.60
-38.28
-33.84
-30.19
-27.05
-24.14
-21.28
-18.41
-15.56
-12.71
-9.78
-6.61
-3.11
0.70
4.63
8.44
11.93
14.97
17.57
19.77
21.62
23.18
24.56
25.87
27.01
27.57
26.89
24.35
19.80
13.92
8.06
3.82
2.32
3.70
6.99
10.48
12.43
11.82
8.82
4.85
2.14
3.00
8.99
20.32
35.77
52.93
68.93
81.21
88.00
88.67
83.61
74.03
61.51
47.57
33.30
19.23
5.38
-8.47
-22.39
-36.25
-49.70
-62.40
-74.10
-84.60
-93.71
-101.06
-106.22
-108.80
-108.69
-106.06
-101.31
-94.95
-87.42
-79.04
-70.07
-60.72
-51.27
-42.08
-33.52
-25.91
-19.43
-14.01
-9.38
-5.16
-1.06
3.01
6.85
10.04
12.09
12.55
11.20
8.18
4.03
-0.38
-4.01
-6.05
-6.18
-4.80
-2.87
-1.46
-1.22
-1.86
-2.15
-0.33
5.15
14.91
28.28
43.53
58.50
71.34
81.10
87.75
91.86
94.05
94.52
92.96
88.77
81.52
71.29
58.84
45.35
32.15
20.28
10.28
2.19
-4.27
-9.47
-13.66
-16.89
-18.98
-19.64
-18.54
-15.44
-10.38
-3.66
4.12
12.24
19.97
26.76
32.27
36.30
38.76
39.54
38.51
35.49
30.40
23.28
14.49
4.74
-4.92
-13.33
-19.57
-23.27
-24.76
-24.85
-24.47
-24.23
-24.14
-23.86
-22.97
-21.47
-19.85
-18.92
-19.37
-21.44
-24.76
-28.52
-31.81
-33.94
-34.56
-33.64
-31.31
-27.77
-23.23
-17.96
-12.24
-6.43
-0.87
4.13
8.29
11.44
13.53
14.64
14.99
14.86
14.51
14.12
13.70
13.17
12.43
11.40
10.14
8.78
7.48
6.34
5.37
4.47
3.45
2.11
0.29
-2.07
-4.95
-8.19
-11.48
-14.41
-16.50
-17.34
-16.68
-14.52
-11.13
-6.89
-2.19
2.63
7.31
11.66
15.43
18.40
20.40
21.37
21.46
20.90
20.04
19.12
18.25
17.39
16.38
15.09
13.48
11.67
9.86
8.24
6.90
5.80
4.75
3.55
2.04
0.12
-2.25
-4.98
-7.88
-10.68
-12.97
-14.33
-14.41
-13.05
-10.31
-6.47
-1.95
2.81
7.42
11.56
14.94
17.34
18.59
18.67
17.77
16.26
14.56
13.04
11.88
11.00
10.24
9.36
8.26
6.94
5.45
3.91
2.40
0.98
-0.30
-1.46
-2.62
-3.98
-5.73
-8.01
-10.73
-13.58
-16.04
-17.56
-17.72
-16.35
-13.58
-9.78
-5.43
-0.98
3.20
6.91
10.02
12.45
14.14
15.03
15.11
14.50
13.40
12.07
10.74
9.54
8.48
7.49
6.50
5.48
4.44
3.40
2.40
1.43
0.48
-0.46
-1.44
-2.53
-3.84
-5.49
-7.53
-9.87
-12.22
-14.18
-15.31
-15.25
-13.84
-11.14
-7.42
-3.08
1.43
5.74
9.52
12.59
14.84
16.24
16.80
16.60
15.77
14.52
13.10
11.72
10.50
9.43
8.44
7.41
6.26
4.99
3.70
2.46
1.33
0.30
-0.71
-1.76
-2.93
-4.24
-5.73
-7.48
-9.58
-12.01
-14.59
-16.90
-18.38
-18.48
-16.91
-13.75
-9.48
-4.75
-0.20
3.80
7.12
9.82
12.00
13.69
14.80
15.22
14.87
13.84
12.33
10.66
9.13
7.94
7.14
6.61
6.15
5.56
4.71
3.64
2.47
1.36
0.40
-0.43
-1.28
-2.31
-3.66
-5.38
-7.41
-9.66
-11.96
-14.12
-15.87
-16.90
-16.91
-15.69
-13.22
-9.74
-5.66
-1.46
2.44
5.75
8.36
10.26
11.46
12.02
11.97
11.42
10.49
9.37
8.19
7.07
6.03
5.06
4.14
3.28
2.47
1.70
0.95
0.18
-0.64
-1.52
-2.44
-3.41
-4.45
-5.61
-6.97
-8.62
-10.60
-12.89
-15.28
-17.45
-18.95
-19.36
-18.39
-16.03
-12.58
-8.51
-4.34
-0.48
2.86
5.64
7.87
9.57
10.70
11.22
11.11
10.47
9.45
8.24
7.01
5.83
4.78
3.85
3.06
2.39
1.80
1.23
0.58
-0.26
-1.32
-2.59
-3.97
-5.35
-6.65
-7.92
-9.30
-10.96
-12.96
-15.11
-16.99
-18.04
-17.81
-16.11
-13.10
-9.19
-4.96
-0.93
2.50
5.05
6.63
7.28
7.24
6.82
6.40
6.25
6.56
7.36
8.61
10.22
12.06
13.95
15.68
17.04
17.93
18.35
18.44
18.35
18.21
17.98
17.55
16.73
15.31
13.06
9.73
5.10
-0.89
-7.98
-15.51
-22.47
-27.78
-30.62
-30.74
-28.52
-24.77
-20.43
-16.18
-12.35
-8.96
-5.92
-3.22
-0.96
0.66
1.55
1.75
1.42
0.78
0.03
-0.68
-1.31
-1.84
-2.28
-2.66
-3.01
-3.38
-3.75
-4.13
-4.50
-4.89
-5.38
-6.05
-7.00
-8.28
-9.92
-11.91
-14.16
-16.48
-18.57
-19.99
-20.31
-19.23
-16.70
-12.92
-8.33
-3.41
1.38
5.75
9.49
12.44
14.51
15.61
15.74
15.06
13.85
12.46
11.19
10.25
9.70
9.45
9.35
9.23
8.96
8.48
7.78
6.93
6.01
5.06
4.11
3.13
2.09
0.92
-0.41
-1.95
-3.77
-5.94
-8.44
-11.07
-13.46
-15.08
-15.41
-14.18
-11.43
-7.52
-3.00
1.60
5.85
9.53
12.51
14.76
16.23
16.88
16.74
15.93
14.68
13.26
11.95
10.92
10.19
9.65
9.18
8.64
8.01
7.31
6.56
5.74
4.77
3.58
2.16
0.59
-0.96
-2.39
-3.70
-4.99
-6.45
-8.20
-10.34
-12.80
-15.46
-18.05
-20.22
-21.52
-21.54
-20.02
-16.96
-12.67
-7.65
-2.46
2.41
6.64
10.04
12.55
14.17
14.93
14.96
14.44
13.61
12.72
11.92
11.26
10.69
10.13
9.52
8.88
8.27
7.76
7.37
7.02
6.59
5.92
4.93
3.59
1.98
0.22
-1.55
-3.23
-4.77
-6.19
-7.56
-9.04
-10.76
-12.78
-15.07
-17.35
-19.20
-20.12
-19.71
-17.81
-14.58
-10.47
-6.04
-1.78
1.98
5.08
7.49
9.20
10.20
10.54
10.38
9.96
9.52
9.23
9.06
8.84
8.41
7.69
6.79
5.93
5.32
5.01
4.87
4.64
4.07
3.10
1.79
0.35
-1.02
-2.26
-3.41
-4.62
-6.01
-7.68
-9.68
-12.03
-14.74
-17.67
-20.47
-22.58
-23.39
-22.45
-19.67
-15.43
-10.40
-5.33
-0.78
3.02
6.08
8.52
10.40
11.69
12.29
12.19
11.51
10.52
9.55
8.82
8.41
8.21
7.99
7.57
6.89
6.06
5.26
4.62
4.20
3.88
3.44
2.70
1.57
0.14
-1.41
-2.90
-4.22
-5.41
-6.63
-8.11
-10.01
-12.40
-15.19
-18.14
-20.89
-22.99
-24.01
-23.58
-21.52
-17.89
-13.02
-7.45
-1.78
3.45
7.86
11.28
13.68
15.12
15.74
15.70
15.22
14.55
13.89
13.35
12.93
12.57
12.15
11.64
11.01
10.30
9.56
8.77
7.93
7.06
6.18
5.29
4.39
3.40
2.24
0.81
-0.85
-2.66
-4.49
-6.25
-7.96
-9.75
-11.81
-14.24
-17.01
-19.85
-22.29
-23.79
-23.92
-22.46
-19.48
-15.33
-10.49
-5.46
-0.65
3.68
7.39
10.40
12.66
14.15
14.90
14.98
14.54
13.77
12.85
11.96
11.22
10.69
10.36
10.14
9.91
9.55
8.99
8.21
7.29
6.33
5.40
4.51
3.60
2.56
1.31
-0.16
-1.83
-3.62
-5.44
-7.26
-9.05
-10.86
-12.71
-14.67
-16.76
-18.97
-21.18
-23.16
-24.54
-24.92
-24.00
-21.66
-18.07
-13.63
-8.84
-4.19
0.02
3.63
6.60
8.90
10.51
11.37
11.51
11.05
10.25
9.40
8.74
8.35
8.17
8.04
7.85
7.58
7.31
7.15
7.14
7.19
7.10
6.63
5.69
4.28
2.54
0.67
-1.16
-2.87
-4.48
-6.05
-7.70
-9.52
-11.58
-13.92
-16.48
-19.10
-21.42
-22.96
-23.26
-22.00
-19.18
-15.13
-10.38
-5.53
-1.00
2.95
6.28
9.01
11.18
12.78
13.82
14.33
14.40
14.15
13.72
13.20
12.65
12.03
11.31
10.43
9.41
8.36
7.42
6.74
6.37
6.21
6.03
5.54
4.54
2.97
1.00
-1.13
-3.14
-4.84
-6.25
-7.51
-8.86
-10.52
-12.61
-15.13
-17.92
-20.68
-23.03
-24.51
-24.69
-23.31
-20.33
-16.02
-10.86
-5.43
-0.23
4.36
8.14
11.06
13.16
14.56
15.38
15.77
15.90
15.84
15.67
15.41
15.06
14.60
14.04
13.41
12.76
12.20
11.78
11.54
11.41
11.25
10.87
10.15
9.07
7.72
6.28
4.88
3.61
2.43
1.23
-0.11
-1.64
-3.36
-5.22
-7.14
-9.06
-10.93
-12.73
-14.46
-16.23
-18.15
-20.31
-22.61
-24.69
-26.00
-25.96
-24.24
-20.88
-16.31
-11.17
-6.07
-1.40
2.71
6.23
9.15
11.41
12.91
13.66
13.79
13.58
13.29
13.10
13.07
13.11
13.07
12.89
12.57
12.20
11.88
11.70
11.63
11.60
11.45
11.07
10.37
9.35
8.09
6.70
5.30
3.98
2.73
1.50
0.18
-1.30
-2.95
-4.69
-6.41
-8.00
-9.43
-10.69
-11.84
-12.94
-14.06
-15.28
-16.72
-18.46
-20.42
-22.36
-23.84
-24.33
-23.44
-21.03
-17.26
-12.54
-7.39
-2.26
2.49
6.63
10.02
12.60
14.34
15.30
15.65
15.58
15.35
15.13
15.03
15.08
15.23
15.41
15.52
15.51
15.32
14.99
14.52
13.98
13.39
12.73
11.96
11.01
9.84
8.49
7.07
5.67
4.39
3.22
2.05
0.75
-0.76
-2.48
-4.33
-6.16
-7.83
-9.31
-10.60
-11.81
-13.06
-14.48
-16.13
-17.97
-19.92
-21.80
-23.31
-24.16
-24.03
-22.68
-20.07
-16.39
-12.00
-7.41
-3.08
0.67
3.71
6.07
7.85
9.15
10.02
10.46
10.49
10.18
9.66
9.08
8.57
8.22
8.05
7.99
7.95
7.83
7.55
7.12
6.56
5.94
5.29
4.63
3.93
3.17
2.31
1.32
0.19
-1.10
-2.54
-4.07
-5.60
-7.01
-8.25
-9.34
-10.40
-11.61
-13.16
-15.14
-17.43
-19.70
-21.47
-22.21
-21.52
-19.28
-15.73
-11.37
-6.77
-2.44
1.39
4.67
7.44
9.71
11.40
12.41
12.74
12.54
12.08
11.64
11.42
11.42
11.54
11.59
11.42
10.99
10.32
9.47
8.57
7.71
6.97
6.35
5.78
5.11
4.21
2.99
1.51
-0.10
-1.67
-3.10
-4.42
-5.74
-7.19
-8.79
-10.50
-12.26
-14.05
-15.92
-17.91
-19.94
-21.73
-22.80
-22.67
-21.01
-17.86
-13.57
-8.73
-3.92
0.40
4.01
6.87
9.04
10.61
11.64
12.18
12.32
12.16
11.84
11.48
11.16
10.90
10.66
10.39
10.07
9.72
9.37
9.05
8.73
8.32
7.76
7.01
6.09
5.07
4.03
2.95
1.80
0.46
-1.11
-2.92
-4.87
-6.80
-8.59
-10.16
-11.55
-12.91
-14.46
-16.32
-18.49
-20.70
-22.48
-23.32
-22.82
-20.85
-17.59
-13.41
-8.81
-4.22
0.00
3.64
6.56
8.75
10.26
11.25
11.90
12.33
12.65
12.87
12.96
12.92
12.73
12.41
11.97
11.47
10.97
10.53
10.21
9.99
9.82
9.60
9.22
8.61
7.77
6.72
5.54
4.29
3.01
1.68
0.26
-1.30
-2.99
-4.74
-6.43
-7.94
-9.27
-10.51
-11.83
-13.44
-15.48
-17.92
-20.56
-23.06
-24.94
-25.74
-25.13
-22.98
-19.46
-14.96
-9.99
-5.04
-0.48
3.47
6.76
9.37
11.32
12.63
13.36
13.64
13.60
13.39
13.08
12.73
12.32
11.85
11.36
10.91
10.59
10.45
10.46
10.51
10.44
10.08
9.36
8.30
7.04
5.73
4.51
3.42
2.38
1.30
0.05
-1.37
-2.93
-4.52
-6.05
-7.47
-8.80
-10.10
-11.46
-12.98
-14.73
-16.74
-18.93
-21.06
-22.77
-23.58
-23.10
-21.10
-17.68
-13.23
-8.32
-3.56
0.63
4.08
6.85
9.07
10.84
12.17
12.97
13.17
12.81
12.03
11.10
10.27
9.72
9.49
9.47
9.50
9.44
9.20
8.79
8.27
7.69
7.04
6.28
5.32
4.11
2.65
0.98
-0.80
-2.58
-4.28
-5.89
-7.43
-8.99
-10.66
-12.49
-14.53
-16.76
-19.13
-21.49
-23.53
-24.83
-24.96
-23.59
-20.66
-16.46
-11.50
-6.41
-1.64
2.53
6.07
9.01
11.37
13.12
14.19
14.57
14.41
13.94
13.45
13.12
13.00
13.00
12.95
12.70
12.20
11.50
10.70
9.93
9.29
8.76
8.24
7.59
6.68
5.41
3.80
1.94
-0.03
-1.95
-3.72
-5.33
-6.86
-8.41
-10.12
-12.11
-14.44
-17.10
-19.97
-22.77
-25.04
-26.23
-25.88
-23.77
-20.08
-15.29
-10.09
-5.03
-0.48
3.51
7.03
10.15
12.82
14.86
16.13
16.60
16.42
15.89
15.33
14.99
14.95
15.14
15.39
15.52
15.44
15.16
14.73
14.22
13.63
12.91
11.99
10.82
9.40
7.79
6.07
4.26
2.41
0.51
-1.44
-3.43
-5.43
-7.37
-9.20
-10.86
-12.41
-13.97
-15.70
-17.75
-20.08
-22.40
-24.18
-24.84
-23.94
-21.35
-17.33
-12.43
-7.29
-2.43
1.82
5.38
8.32
10.71
12.60
13.95
14.72
14.88
14.56
13.97
13.37
13.00
12.92
13.03
13.13
13.06
12.79
12.42
12.11
11.96
11.91
11.82
11.47
10.77
9.72
8.42
7.00
5.57
4.16
2.73
1.23
-0.37
-2.05
-3.75
-5.40
-6.92
-8.26
-9.44
-10.57
-11.83
-13.39
-15.35
-17.64
-19.92
-21.75
-22.59
-22.05
-20.00
-16.61
-12.27
-7.45
-2.61
1.91
5.88
9.10
11.49
13.02
13.81
14.04
13.96
13.76
13.54
13.32
13.09
12.86
12.62
12.41
12.24
12.12
12.03
11.94
11.78
11.47
10.93
10.09
8.97
7.65
6.25
4.86
3.54
2.30
1.10
-0.08
-1.31
-2.64
-4.12
-5.78
-7.58
-9.38
-11.04
-12.47
-13.72
-14.96
-16.37
-18.06
-19.89
-21.53
-22.51
-22.44
-21.08
-18.47
-14.85
-10.61
-6.16
-1.89
1.95
5.20
7.83
9.85
11.27
12.08
12.28
11.94
11.23
10.40
9.76
9.48
9.57
9.86
10.10
10.14
9.96
9.69
9.47
9.32
9.16
8.80
8.08
6.94
5.44
3.74
1.99
0.32
-1.24
-2.70
-4.10
-5.52
-7.01
-8.59
-10.25
-11.98
-13.82
-15.77
-17.84
-19.84
-21.42
-22.15
-21.63
-19.74
-16.61
-12.67
-8.38
-4.17
-0.31
3.08
5.95
8.27
10.00
11.13
11.69
11.79
11.55
11.11
10.57
10.02
9.51
9.10
8.85
8.78
8.88
9.07
9.24
9.23
8.91
8.25
7.28
6.12
4.90
3.74
2.69
1.78
0.97
0.20
-0.61
-1.51
-2.54
-3.69
-4.95
-6.32
-7.86
-9.67
-11.80
-14.19
-16.57
-18.50
-19.51
-19.20
-17.46
-14.42
-10.49
-6.16
-1.90
1.97
5.32
8.15
10.55
12.54
14.09
15.13
15.59
15.51
15.03
14.38
13.74
13.25
12.89
12.64
12.44
12.28
12.16
12.06
11.86
11.43
10.68
9.62
8.37
7.12
5.98
4.97
3.97
2.84
1.46
-0.17
-1.94
-3.73
-5.42
-6.97
-8.43
-9.84
-11.29
-12.84
-14.56
-16.52
-18.70
-20.90
-22.78
-23.82
-23.56
-21.70
-18.30
-13.75
-8.64
-3.59
0.91
4.60
7.44
9.50
10.91
11.82
12.34
12.56
12.58
12.49
12.34
12.14
11.89
11.56
11.15
10.70
10.25
9.83
9.42
8.94
8.36
7.68
6.95
6.21
5.48
4.66
3.64
2.37
0.86
-0.76
-2.35
-3.81
-5.13
-6.39
-7.67
-9.01
-10.45
-11.99
-13.69
-15.60
-17.76
-20.05
-22.20
-23.80
-24.43
-23.81
-21.86
-18.79
-15.01
-10.99
-7.14
-3.74
-0.89
1.46
3.40
4.99
6.26
7.17
7.67
7.76
7.51
7.05
6.60
6.31
6.29
6.53
6.93
7.30
7.49
7.42
7.12
6.73
6.37
6.13
5.94
5.63
5.01
3.95
2.50
0.85
-0.77
-2.21
-3.49
-4.74
-6.18
-8.01
-10.29
-12.93
-15.70
-18.19
-19.93
-20.46
-19.48
-16.96
-13.21
-8.77
-4.28
-0.20
3.19
5.88
7.96
9.54
10.63
11.21
11.29
10.99
10.50
10.05
9.78
9.71
9.70
9.59
9.28
8.77
8.17
7.64
7.26
7.03
6.81
6.41
5.64
4.43
2.84
1.04
-0.75
-2.35
-3.69
-4.88
-6.11
-7.59
-9.42
-11.56
-13.89
-16.27
-18.55
-20.55
-22.02
-22.65
-22.09
-20.15
-16.90
-12.74
-8.27
-4.14
-0.80
1.55
2.96
3.58
3.59
3.08
2.20
1.15
0.25
-0.19
0.00
0.75
1.73
2.50
2.73
2.36
1.66
1.03
0.86
1.26
2.15
3.32
4.64
6.17
8.06
10.32
12.75
14.83
15.95
15.65
13.81
10.70
6.82
2.64
-1.57
-5.73
-9.83
-13.67
-16.82
-18.68
-18.75
-16.90
-13.45
-9.10
-4.62
-0.60
2.76
5.60
8.16
10.62
12.95
14.99
16.54
17.51
17.99
18.13
18.06
17.83
17.38
16.61
15.44
13.85
11.87
9.61
7.23
4.85
2.63
0.65
-1.07
-2.55
-3.86
-5.07
-6.15
-7.06
-7.71
-8.12
-8.46
-8.93
-9.76
-11.05
-12.77
-14.80
-16.98
-19.15
-21.07
-22.46
-22.97
-22.33
-20.43
-17.44
-13.71
-9.61
-5.40
-1.14
3.20
7.58
11.74
15.28
17.76
18.94
18.87
17.86
16.31
14.56
12.74
10.85
8.82
6.67
4.54
2.69
1.31
0.52
0.24
0.31
0.53
0.74
0.85
0.82
0.59
0.13
-0.63
-1.71
-3.16
-5.01
-7.31
-10.03
-13.02
-15.94
-18.27
-19.42
-18.98
-16.83
-13.27
-8.91
-4.50
-0.69
2.08
3.67
4.14
3.72
2.66
1.25
-0.21
-1.38
-1.94
-1.66
-0.43
1.65
4.35
7.34
10.33
13.12
15.60
17.74
19.51
20.86
21.67
21.78
21.02
19.27
16.50
12.80
8.39
3.58
-1.29
-5.95
-10.27
-14.24
-17.90
-21.20
-23.91
-25.63
-25.97
-24.75
-22.11
-18.55
-14.68
-11.07
-8.01
-5.58
-3.65
-2.10
-0.91
-0.09
0.35
0.49
0.51
0.64
1.04
1.79
2.85
4.10
5.43
6.73
7.96
9.04
9.89
10.38
10.33
9.64
8.29
6.43
4.28
2.12
0.08
-1.83
-3.74
-5.82
-8.14
-10.62
-13.04
-15.03
-16.23
-16.41
-15.49
-13.60
-11.05
-8.18
-5.31
-2.64
-0.22
2.00
4.09
6.05
7.75
8.99
9.57
9.39
8.55
7.35
6.21
5.50
5.40
5.81
6.44
6.93
7.08
6.87
6.49
6.14
5.93
5.79
5.52
4.96
4.08
2.96
1.74
0.43
-1.10
-3.02
-5.36
-7.86
-9.97
-11.05
-10.61
-8.52
-5.06
-0.83
3.50
7.37
10.47
12.73
14.27
15.21
15.67
15.69
15.30
14.55
13.55
12.48
11.51
10.81
10.39
10.19
10.04
9.74
9.09
8.01
6.47
4.57
2.49
0.40
-1.52
-3.25
-4.85
-6.49
-8.37
-10.62
-13.29
-16.28
-19.32
-22.01
-23.90
-24.56
-23.75
-21.50
-18.07
-13.93
-9.59
-5.46
-1.78
1.38
4.11
6.56
8.86
11.09
13.24
15.22
16.93
18.30
19.31
19.99
20.41
20.60
20.60
20.42
20.10
19.67
19.15
18.51
17.66
16.54
15.08
13.33
11.33
9.14
6.78
4.18
1.31
-1.85
-5.25
-8.83
-12.54
-16.29
-19.88
-22.96
-25.00
-25.53
-24.31
-21.45
-17.43
-12.92
-8.52
-4.64
-1.45
1.06
2.91
4.10
4.62
4.50
3.92
3.14
2.47
2.14
2.23
2.64
3.14
3.53
3.64
3.46
3.07
2.64
2.26
1.97
1.70
1.35
0.85
0.17
-0.61
-1.37
-2.02
-2.50
-2.92
-3.44
-4.28
-5.57
-7.25
-9.07
-10.59
-11.34
-10.93
-9.24
-6.37
-2.69
1.39
5.49
9.37
12.92
16.19
19.17
21.70
23.42
23.82
22.49
19.34
14.77
9.57
4.65
0.74
-1.90
-3.43
-4.25
-4.71
-4.98
-5.00
-4.69
-4.10
-3.46
-3.12
-3.36
-4.21
-5.47
-6.80
-7.83
-8.38
-8.44
-8.22
-8.00
-8.05
-8.48
-9.26
-10.20
-11.06
-11.65
-11.96
-12.09
-12.28
-12.73
-13.54
-14.67
-15.98
-17.29
-18.45
-19.27
-19.52
-18.93
-17.27
-14.49
-10.74
-6.37
-1.83
2.48
6.29
9.42
11.79
13.39
14.23
14.42
14.16
13.68
13.19
12.78
12.43
12.06
11.61
11.08
10.48
9.84
9.15
8.39
7.56
6.68
5.79
4.89
3.89
2.67
1.13
-0.72
-2.73
-4.66
-6.29
-7.57
-8.57
-9.48
-10.51
-11.79
-13.39
-15.29
-17.40
-19.52
-21.34
-22.44
-22.41
-21.01
-18.26
-14.51
-10.28
-6.10
-2.35
0.86
3.61
5.99
7.99
9.50
10.37
10.58
10.26
9.74
9.32
9.19
9.31
9.51
9.61
9.47
9.11
8.62
8.09
7.58
7.06
6.51
5.91
5.25
4.49
3.59
2.50
1.21
-0.21
-1.66
-3.05
-4.33
-5.55
-6.82
-8.28
-10.02
-12.10
-14.45
-16.92
-19.23
-21.03
-21.93
-21.60
-19.91
-16.95
-13.03
-8.63
-4.20
-0.10
3.48
6.46
8.84
10.62
11.80
12.41
12.53
12.36
12.10
11.91
11.83
11.82
11.76
11.55
11.15
10.59
9.98
9.39
8.90
8.48
8.06
7.52
6.75
5.70
4.39
2.91
1.36
-0.18
-1.64
-3.04
-4.41
-5.81
-7.26
-8.85
-10.63
-12.63
-14.81
-17.02
-18.96
-20.27
-20.58
-19.62
-17.36
-13.96
-9.81
-5.38
-1.10
2.70
5.83
8.22
9.81
10.59
10.60
10.00
9.06
8.12
7.42
7.04
6.90
6.81
6.59
6.19
5.66
5.11
4.64
4.26
3.94
3.58
3.08
2.34
1.33
0.07
-1.34
-2.79
-4.20
-5.54
-6.88
-8.30
-9.92
-11.80
-13.93
-16.19
-18.30
-19.92
-20.60
-20.00
-17.98
-14.67
-10.49
-5.95
-1.57
2.36
5.70
8.43
10.55
11.99
12.70
12.67
12.09
11.20
10.29
9.52
8.89
8.35
7.79
7.22
6.72
6.38
6.17
5.97
5.58
4.81
3.61
2.04
0.30
-1.43
-3.00
-4.42
-5.79
-7.29
-9.11
-11.35
-14.03
-17.02
-20.08
-22.82
-24.79
-25.53
-24.75
-22.40
-18.77
-14.39
-9.81
-5.48
-1.60
1.83
4.89
7.58
9.79
11.38
12.28
12.54
12.41
12.15
12.02
12.12
12.45
12.89
13.31
13.61
13.74
13.70
13.48
13.08
12.45
11.49
10.09
8.25
6.03
3.61
1.23
-0.89
-2.66
-4.10
-5.34
-6.57
-7.91
-9.41
-10.97
-12.34
-13.18
-13.11
-11.82
-9.20
-5.35
-0.67
4.33
9.07
13.07
16.04
17.87
18.60
18.35
17.26
15.47
13.11
10.41
7.58
4.93
2.79
1.44
1.11
1.87
3.64
6.19
9.20
12.35
15.27
17.67
19.24
19.71
18.93
16.88
13.72
9.82
5.61
1.48
-2.30
-5.66
-8.61
-11.27
-13.76
-16.18
-18.63
-21.19
-23.84
-26.45
-28.70
-30.16
-30.40
-29.12
-26.31
-22.25
-17.48
-12.62
-8.20
-4.53
-1.72
0.26
1.52
2.14
2.21
1.81
1.07
0.18
-0.67
-1.29
-1.51
-1.31
-0.79
-0.16
0.36
0.59
0.53
0.32
0.18
0.28
0.66
1.22
1.83
2.38
2.86
3.33
3.85
4.47
5.19
6.06
7.22
8.86
11.21
14.42
18.50
23.30
28.49
33.68
38.46
42.44
45.36
47.10
47.73
47.47
46.72
45.93
45.50
45.66
46.35
47.20
47.68
47.23
45.49
42.37
38.03
32.76
26.85
20.49
13.82
7.00
0.23
-6.21
-12.03
-16.94
-20.77
-23.39
-24.76
-24.93
-24.11
-22.57
-20.70
-18.84
-17.19
-15.76
-14.41
-12.97
-11.37
-9.63
-7.92
-6.41
-5.30
-4.68
-4.58
-4.89
-5.47
-6.10
-6.63
-6.94
-7.04
-7.03
-7.06
-7.28
-7.77
-8.55
-9.55
-10.57
-11.41
-11.81
-11.63
-10.80
-9.40
-7.63
-5.71
-3.85
-2.19
-0.84
0.17
0.83
1.14
1.12
0.84
0.38
-0.11
-0.51
-0.75
-0.86
-0.95
-1.23
-1.86
-2.93
-4.36
-6.04
-7.84
-9.78
-12.02
-14.78
-18.32
-22.74
-27.97
-33.70
-39.48
-44.76
-49.07
-52.14
-54.03
-55.21
-56.45
-58.67
-62.68
-68.94
-77.42
-87.58
-98.49
-108.97
-117.75
-123.64
-125.66
-123.20
-116.06
-104.55
-89.37
-71.48
-51.97
-31.83
-11.95
6.92
24.09
38.97
51.14
60.45
67.06
71.39
73.97
75.29
75.67
75.27
74.21
72.63
70.72
68.71
66.77
65.00
63.37
61.84
60.38
58.97
57.57
56.11
54.51
52.66
50.51
48.09
45.41
42.54
39.58
36.71
34.16
32.09
30.24
27.93
24.23
18.37
10.38
1.20
-7.60
-14.53
-18.86
-20.91
-21.75
-22.41
-23.34
-24.18
-24.13
-22.58
-19.42
-15.13
-10.44
-5.93
-1.85
1.80
5.09
8.05
10.55
12.50
13.88
14.84
15.64
16.55
17.76
19.31
21.02
22.60
23.69
24.02
23.49
22.24
20.60
18.97
17.66
16.74
16.03
15.12
13.55
10.90
6.97
1.87
-4.03
-10.14
-15.84
-20.70
-24.51
-27.33
-29.42
-31.05
-32.41
-33.58
-34.58
-35.39
-36.06
-36.65
-37.25
-37.94
-38.81
-39.93
-41.26
-42.59
-43.49
-43.43
-41.93
-38.77
-34.10
-28.35
-22.03
-15.56
-9.09
-2.67
3.63
9.59
14.81
18.89
21.61
23.06
23.58
23.61
23.50
23.40
23.23
22.86
22.20
21.27
20.20
19.12
18.11
17.10
15.96
14.50
12.63
10.38
7.89
5.41
3.18
1.36
-0.02
-1.06
-1.94
-2.81
-3.70
-4.49
-5.03
-5.25
-5.28
-5.49
-6.34
-8.18
-11.07
-14.74
-18.63
-22.08
-24.51
-25.51
-24.95
-22.91
-19.62
-15.41
-10.64
-5.68
-0.87
3.49
7.17
10.03
12.04
13.27
13.85
13.91
13.51
12.67
11.43
9.85
8.05
6.19
4.38
2.72
1.26
0.08
-0.76
-1.18
-1.21
-0.95
-0.55
-0.15
0.21
0.59
1.05
1.58
2.08
2.30
2.01
1.05
-0.56
-2.66
-4.99
-7.26
-9.28
-11.01
-12.59
-14.32
-16.48
-19.22
-22.39
-25.49
-27.77
-28.46
-27.07
-23.56
-18.37
-12.28
-6.10
-0.50
4.18
7.91
10.79
12.99
14.60
15.63
16.12
16.18
15.93
15.58
15.26
15.05
14.95
14.94
15.00
15.09
15.22
15.35
15.45
15.44
15.26
14.85
14.17
13.21
12.03
10.71
9.36
8.09
6.95
5.87
4.70
3.31
1.62
-0.33
-2.41
-4.44
-6.32
-8.05
-9.77
-11.68
-13.98
-16.66
-19.49
-21.95
-23.38
-23.22
-21.15
-17.30
-12.20
-6.57
-1.11
3.70
7.69
10.86
13.35
15.21
16.44
17.03
17.05
16.69
16.20
15.80
15.60
15.59
15.64
15.63
15.51
15.32
15.15
15.05
15.03
14.99
14.74
14.14
13.11
11.67
10.00
8.29
6.72
5.33
4.05
2.69
1.09
-0.79
-2.85
-4.89
-6.74
-8.36
-9.80
-11.20
-12.69
-14.34
-16.20
-18.31
-20.66
-23.16
-25.49
-27.13
-27.48
-26.04
-22.68
-17.70
-11.77
-5.67
-0.06
4.74
8.64
11.78
14.28
16.24
17.71
18.74
19.47
20.05
20.58
21.09
21.47
21.54
21.17
20.31
19.07
17.67
16.32
15.18
14.27
13.50
12.77
11.97
11.06
10.05
8.96
7.82
6.61
5.32
3.94
2.50
1.00
-0.53
-2.15
-3.91
-5.85
-8.00
-10.38
-13.04
-15.97
-19.10
-22.10
-24.45
-25.52
-24.82
-22.21
-18.00
-12.88
-7.61
-2.83
1.18
4.40
6.98
9.06
10.68
11.83
12.48
12.69
12.56
12.27
11.98
11.80
11.79
11.93
12.16
12.41
12.62
12.75
12.82
12.80
12.65
12.28
11.60
10.58
9.28
7.83
6.42
5.15
4.03
2.94
1.77
0.44
-1.05
-2.60
-4.11
-5.52
-6.81
-8.06
-9.36
-10.79
-12.34
-13.85
-14.95
-15.15
-13.95
-11.08
-6.63
-1.07
4.88
10.46
15.10
18.46
20.47
21.17
20.69
19.17
16.84
14.03
11.12
8.50
6.45
5.11
4.44
4.27
4.34
4.37
4.13
3.51
2.46
1.06
-0.58
-2.32
-4.02
-5.56
-6.85
-7.85
-8.60
-9.16
-9.60
-10.04
-10.57
-11.28
-12.27
-13.54
-15.01
-16.54
-17.97
-19.18
-20.13
-20.92
-21.71
-22.72
-24.15
-26.10
-28.52
-31.16
-33.50
-34.91
-34.77
-32.74
-28.88
-23.62
-17.64
-11.63
-6.06
-1.17
3.02
6.51
9.31
11.34
12.53
12.92
12.74
12.33
12.06
12.15
12.64
13.32
13.94
14.28
14.30
14.13
13.94
13.86
13.86
13.79
13.47
12.79
11.75
10.45
9.04
7.64
6.33
5.10
3.94
2.81
1.67
0.45
-0.93
-2.53
-4.36
-6.34
-8.35
-10.24
-11.96
-13.56
-15.23
-17.16
-19.49
-22.17
-24.91
-27.22
-28.52
-28.31
-26.35
-22.73
-17.85
-12.31
-6.73
-1.59
2.83
6.46
9.35
11.56
13.17
14.20
14.68
14.67
14.29
13.70
13.09
12.63
12.44
12.54
12.94
13.58
14.36
15.19
15.86
16.14
15.85
14.86
13.25
11.27
9.25
7.47
6.09
5.05
4.16
3.18
1.93
0.36
-1.48
-3.48
-5.53
-7.57
-9.61
-11.72
-14.02
-16.62
-19.65
-23.07
-26.71
-30.14
-32.75
-33.87
-33.06
-30.24
-25.79
-20.39
-14.80
-9.62
-5.11
-1.30
1.91
4.58
6.68
8.14
8.94
9.21
9.18
9.11
9.18
9.45
9.84
10.22
10.47
10.55
10.47
10.29
10.03
9.68
9.21
8.61
7.88
6.99
5.89
4.54
2.92
1.10
-0.78
-2.55
-4.07
-5.35
-6.47
-7.56
-8.75
-10.16
-11.89
-14.02
-16.57
-19.38
-22.04
-23.98
-24.52
-23.24
-20.08
-15.44
-10.01
-4.52
0.49
4.78
8.38
11.42
13.99
16.06
17.57
18.44
18.75
18.66
18.41
18.18
18.03
17.93
17.82
17.66
17.53
17.49
17.58
17.72
17.72
17.35
16.49
15.16
13.53
11.81
10.16
8.60
7.03
5.31
3.37
1.28
-0.83
-2.76
-4.39
-5.72
-6.86
-8.01
-9.38
-11.14
-13.35
-15.92
-18.59
-20.89
-22.28
-22.26
-20.59
-17.35
-12.95
-7.93
-2.85
1.93
6.22
9.90
12.92
15.20
16.71
17.52
17.78
17.69
17.44
17.10
16.66
16.09
15.40
14.65
13.94
13.32
12.80
12.35
11.89
11.34
10.64
9.78
8.73
7.55
6.31
5.07
3.95
2.98
2.14
1.30
0.27
-1.12
-2.96
-5.16
-7.50
-9.69
-11.51
-12.88
-13.88
-14.75
-15.74
-17.05
-18.79
-20.92
-23.27
-25.50
-27.14
-27.63
-26.54
-23.71
-19.39
-14.16
-8.73
-3.69
0.68
4.38
7.58
10.39
12.84
14.78
16.10
16.73
16.75
16.32
15.63
14.85
14.10
13.43
12.87
12.40
12.01
11.69
11.44
11.23
10.97
10.49
9.59
8.15
6.22
4.03
1.92
0.18
-1.02
-1.70
-2.04
-2.26
-2.58
-3.15
-4.06
-5.33
-6.86
-8.53
-10.17
-11.68
-13.06
-14.46
-16.07
-18.07
-20.48
-23.08
-25.44
-27.04
-27.38
-26.22
-23.65
-20.04
-15.96
-11.90
-8.21
-5.01
-2.29
-0.01
1.83
3.18
4.06
4.61
5.07
5.70
6.67
7.98
9.44
10.77
11.70
12.03
11.74
10.92
9.74
8.38
6.96
5.52
4.05
2.51
0.91
-0.70
-2.26
-3.67
-4.83
-5.71
-6.29
-6.64
-6.91
-7.28
-7.97
-9.14
-10.80
-12.83
-14.91
-16.63
-17.58
-17.40
-15.96
-13.36
-9.92
-6.08
-2.25
1.24
4.22
6.58
8.29
9.31
9.65
9.42
8.80
8.03
7.36
6.91
6.70
6.66
6.71
6.81
6.97
7.20
7.48
7.69
7.62
7.12
6.06
4.47
2.47
0.24
-2.01
-4.09
-5.88
-7.33
-8.51
-9.59
-10.85
-12.62
-15.09
-18.20
-21.52
-24.38
-25.99
-25.80
-23.66
-19.86
-15.05
-9.95
-5.10
-0.80
2.86
5.91
8.33
10.06
11.07
11.39
11.20
10.76
10.30
9.93
9.65
9.36
8.91
8.25
7.36
6.30
5.16
3.99
2.73
1.27
-0.54
-2.83
-5.61
-8.77
-12.09
-15.34
-18.29
-20.84
-22.93
-24.62
-25.93
-26.89
-27.45
-27.47
-26.71
-24.91
-21.90
-17.70
-12.60
-7.05
-1.54
3.57
8.22
12.51
16.66
20.82
25.00
29.08
32.90
36.36
39.44
42.14
44.44
46.17
47.16
47.22
46.32
44.56
42.19
39.52
36.81
34.25
31.91
29.77
27.72
25.64
23.41
20.91
18.08
14.96
11.66
8.41
5.42
2.77
0.40
-1.94
-4.61
-7.89
-11.85
-16.40
-21.20
-25.80
-29.69
-32.29
-33.13
-31.93
-28.81
-24.27
-19.15
-14.33
-10.45
-7.72
-5.92
-4.62
-3.36
-1.95
-0.43
0.96
1.99
2.57
2.79
2.90
3.16
3.77
4.75
5.95
7.12
7.98
8.38
8.29
7.83
7.17
6.44
5.75
5.11
4.51
3.93
3.40
2.94
2.56
2.27
1.98
1.58
0.98
0.09
-1.10
-2.53
-4.04
-5.37
-6.23
-6.30
-5.37
-3.31
-0.18
3.78
8.20
12.59
16.45
19.37
21.14
21.80
21.64
21.00
20.21
19.42
18.59
17.61
16.38
14.86
13.10
11.17
9.12
7.01
4.87
2.77
0.82
-0.92
-2.44
-3.79
-5.09
-6.45
-7.93
-9.58
-11.40
-13.34
-15.34
-17.34
-19.32
-21.29
-23.30
-25.32
-27.22
-28.68
-29.33
-28.85
-27.15
-24.38
-20.91
-17.17
-13.51
-10.12
-7.07
-4.34
-1.95
0.05
1.57
2.55
3.00
3.02
2.76
2.40
2.09
1.91
1.89
2.01
2.21
2.42
2.59
2.65
2.58
2.36
1.97
1.41
0.71
-0.11
-1.03
-2.00
-3.02
-4.06
-5.14
-6.27
-7.50
-8.89
-10.48
-12.25
-14.01
-15.47
-16.23
-15.99
-14.61
-12.23
-9.20
-5.97
-2.90
-0.19
2.09
4.00
5.56
6.77
7.59
7.98
7.95
7.61
7.11
6.59
6.21
6.00
5.95
5.98
6.01
5.96
5.83
5.60
5.28
4.86
4.32
3.62
2.75
1.73
0.62
-0.52
-1.60
-2.58
-3.48
-4.34
-5.26
-6.28
-7.46
-8.80
-10.31
-12.00
-13.87
-15.82
-17.65
-19.03
-19.57
-19.00
-17.21
-14.37
-10.84
-7.06
-3.41
-0.13
2.66
4.96
6.80
8.24
9.33
10.14
10.72
11.12
11.35
11.41
11.31
11.04
10.67
10.26
9.91
9.67
9.58
9.57
9.52
9.28
8.74
7.87
6.78
5.62
4.55
3.60
2.71
1.74
0.57
-0.84
-2.40
-3.93
-5.27
-6.35
-7.22
-7.99
-8.82
-9.84
-11.14
-12.75
-14.67
-16.79
-18.85
-20.47
-21.20
-20.70
-18.82
-15.72
-11.80
-7.57
-3.52
0.07
3.09
5.55
7.50
8.98
9.98
10.51
10.63
10.47
10.19
9.97
9.91
10.02
10.20
10.36
10.40
10.30
10.12
9.94
9.81
9.66
9.39
8.84
7.96
6.83
5.60
4.45
3.45
2.55
1.62
0.55
-0.70
-2.09
-3.48
-4.77
-5.90
-6.92
-7.89
-8.91
-10.01
-11.22
-12.56
-14.07
-15.80
-17.70
-19.63
-21.24
-22.09
-21.76
-20.01
-16.92
-12.89
-8.45
-4.14
-0.34
2.79
5.27
7.21
8.69
9.78
10.47
10.77
10.75
10.55
10.33
10.26
10.39
10.65
10.89
10.97
10.84
10.55
10.19
9.87
9.60
9.33
8.95
8.37
7.56
6.60
5.57
4.56
3.60
2.65
1.59
0.33
-1.14
-2.77
-4.40
-5.85
-7.04
-7.96
-8.75
-9.59
-10.62
-11.91
-13.48
-15.38
-17.58
-20.02
-22.42
-24.35
-25.27
-24.75
-22.61
-19.05
-14.52
-9.61
-4.83
-0.53
3.15
6.18
8.60
10.47
11.85
12.79
13.35
13.55
13.46
13.19
12.89
12.71
12.71
12.87
13.09
13.23
13.22
13.07
12.86
12.62
12.36
11.96
11.33
10.39
9.15
7.75
6.31
5.00
3.89
2.97
2.19
1.41
0.49
-0.69
-2.19
-3.99
-5.95
-7.91
-9.66
-11.11
-12.28
-13.33
-14.53
-16.10
-18.14
-20.48
-22.75
-24.43
-25.01
-24.18
-21.91
-18.40
-14.05
-9.31
-4.62
-0.32
3.35
6.29
8.49
10.05
11.10
11.78
12.20
12.45
12.60
12.75
12.95
13.19
13.45
13.64
13.71
13.66
13.53
13.36
13.18
12.97
12.68
12.26
11.68
10.89
9.88
8.64
7.23
5.75
4.33
3.07
2.00
1.01
-0.06
-1.38
-2.98
-4.79
-6.62
-8.28
-9.61
-10.63
-11.45
-12.30
-13.39
-14.91
-16.89
-19.21
-21.63
-23.78
-25.25
-25.68
-24.81
-22.59
-19.15
-14.81
-9.99
-5.11
-0.53
3.51
6.90
9.61
11.61
12.91
13.55
13.65
13.41
13.10
12.91
12.92
13.07
13.24
13.34
13.36
13.36
13.40
13.45
13.41
13.13
12.55
11.67
10.58
9.35
8.04
6.68
5.33
4.06
2.96
2.03
1.18
0.19
-1.11
-2.78
-4.69
-6.58
-8.22
-9.49
-10.47
-11.37
-12.44
-13.88
-15.75
-17.99
-20.41
-22.70
-24.44
-25.21
-24.66
-22.67
-19.42
-15.29
-10.79
-6.35
-2.23
1.49
4.77
7.56
9.75
11.29
12.17
12.56
12.69
12.78
12.92
13.08
13.12
12.97
12.63
12.20
11.82
11.58
11.49
11.45
11.36
11.12
10.69
10.08
9.30
8.36
7.27
6.03
4.66
3.18
1.63
0.02
-1.64
-3.35
-5.05
-6.67
-8.12
-9.34
-10.36
-11.33
-12.42
-13.86
-15.77
-18.16
-20.91
-23.70
-26.08
-27.55
-27.66
-26.15
-23.05
-18.73
-13.72
-8.63
-3.88
0.31
3.89
6.94
9.49
11.50
12.92
13.75
14.12
14.23
14.28
14.40
14.58
14.71
14.68
14.49
14.19
13.89
13.63
13.38
13.05
12.58
11.96
11.21
10.36
9.41
8.31
7.07
5.75
4.43
3.20
2.04
0.84
-0.54
-2.16
-4.00
-5.90
-7.71
-9.32
-10.76
-12.13
-13.60
-15.36
-17.50
-20.01
-22.68
-25.14
-26.87
-27.41
-26.44
-23.94
-20.17
-15.56
-10.55
-5.52
-0.75
3.58
7.31
10.30
12.44
13.74
14.32
14.42
14.30
14.19
14.25
14.49
14.87
15.29
15.64
15.86
15.91
15.84
15.68
15.50
15.28
14.91
14.27
13.25
11.90
10.33
8.81
7.50
6.48
5.60
4.65
3.39
1.72
-0.28
-2.41
-4.44
-6.19
-7.63
-8.83
-9.91
-11.03
-12.30
-13.82
-15.69
-17.94
-20.55
-23.30
-25.80
-27.48
-27.80
-26.42
-23.34
-18.92
-13.76
-8.50
-3.58
0.78
4.56
7.73
10.22
11.93
12.79
12.89
12.53
12.08
11.84
11.96
12.35
12.81
13.14
13.25
13.14
12.94
12.71
12.49
12.23
11.82
11.19
10.27
9.11
7.77
6.36
4.93
3.51
2.06
0.55
-1.00
-2.57
-4.15
-5.71
-7.25
-8.78
-10.29
-11.80
-13.36
-15.14
-17.29
-19.91
-22.85
-25.69
-27.79
-28.51
-27.45
-24.58
-20.28
-15.16
-9.82
-4.74
-0.16
3.81
7.15
9.83
11.81
13.12
13.84
14.13
14.20
14.21
14.24
14.33
14.43
14.50
14.51
14.43
14.30
14.14
13.97
13.76
13.45
12.90
12.07
10.94
9.61
8.20
6.81
5.48
4.16
2.75
1.21
-0.45
-2.20
-3.98
-5.76
-7.51
-9.22
-10.88
-12.53
-14.25
-16.20
-18.52
-21.24
-24.16
-26.88
-28.84
-29.56
-28.71
-26.23
-22.37
-17.50
-12.10
-6.63
-1.46
3.12
6.93
9.89
12.04
13.47
14.33
14.78
14.94
14.93
14.82
14.68
14.53
14.42
14.35
14.34
14.42
14.58
14.79
14.96
14.93
14.55
13.72
12.42
10.78
9.01
7.35
5.94
4.79
3.74
2.57
1.08
-0.80
-2.98
-5.22
-7.28
-9.00
-10.37
-11.53
-12.69
-14.09
-15.93
-18.34
-21.29
-24.56
-27.70
-30.08
-31.05
-30.13
-27.23
-22.62
-16.93
-10.88
-5.10
0.03
4.39
7.97
10.84
13.05
14.60
15.58
16.10
16.35
16.48
16.59
16.70
16.77
16.74
16.59
16.34
16.04
15.77
15.56
15.41
15.28
15.07
14.65
13.90
12.75
11.26
9.57
7.86
6.30
4.93
3.69
2.41
0.96
-0.69
-2.49
-4.30
-6.01
-7.59
-9.07
-10.50
-11.97
-13.54
-15.35
-17.52
-20.11
-22.98
-25.77
-27.87
-28.67
-27.75
-25.07
-20.95
-15.97
-10.73
-5.68
-1.08
2.98
6.46
9.30
11.45
12.88
13.62
13.84
13.74
13.53
13.37
13.30
13.30
13.33
13.37
13.44
13.56
13.71
13.81
13.74
13.38
12.67
11.63
10.37
9.01
7.65
6.35
5.09
3.82
2.43
0.84
-1.02
-3.10
-5.28
-7.38
-9.21
-10.76
-12.12
-13.58
-15.42
-17.83
-20.79
-24.00
-26.93
-28.96
-29.51
-28.27
-25.23
-20.76
-15.42
-9.86
-4.56
0.21
4.37
7.95
10.97
13.35
14.98
15.86
16.13
16.05
15.95
16.00
16.20
16.42
16.49
16.34
16.04
15.69
15.41
15.18
14.91
14.45
13.70
12.64
11.33
9.85
8.32
6.83
5.46
4.21
3.03
1.83
0.51
-0.98
-2.64
-4.38
-6.08
-7.66
-9.13
-10.55
-12.09
-13.94
-16.22
-18.96
-22.02
-25.05
-27.55
-28.97
-28.86
-26.98
-23.41
-18.52
-12.90
-7.16
-1.85
2.70
6.38
9.25
11.45
13.10
14.29
15.05
15.46
15.66
15.80
16.03
16.39
16.78
17.00
16.89
16.40
15.64
14.84
14.21
13.84
13.62
13.33
12.76
11.80
10.51
9.08
7.72
6.55
5.57
4.65
3.60
2.28
0.63
-1.30
-3.37
-5.42
-7.31
-8.93
-10.29
-11.53
-12.85
-14.52
-16.75
-19.54
-22.67
-25.63
-27.81
-28.64
-27.78
-25.24
-21.35
-16.61
-11.51
-6.45
-1.71
2.54
6.16
9.03
11.09
12.35
12.97
13.15
13.12
13.04
13.01
13.05
13.14
13.24
13.33
13.42
13.49
13.51
13.41
13.14
12.65
11.95
11.07
10.05
8.94
7.76
6.53
5.25
3.94
2.56
1.08
-0.55
-2.35
-4.29
-6.26
-8.12
-9.81
-11.32
-12.78
-14.32
-16.09
-18.22
-20.72
-23.49
-26.19
-28.30
-29.21
-28.38
-25.63
-21.15
-15.52
-9.50
-3.76
1.29
5.52
8.99
11.80
13.94
15.35
15.98
15.91
15.41
14.84
14.52
14.56
14.89
15.26
15.46
15.37
15.07
14.71
14.45
14.33
14.22
13.94
13.31
12.26
10.86
9.26
7.64
6.13
4.77
3.54
2.32
1.02
-0.43
-2.03
-3.75
-5.54
-7.35
-9.14
-10.88
-12.59
-14.32
-16.15
-18.24
-20.71
-23.53
-26.48
-29.09
-30.74
-30.83
-29.04
-25.41
-20.37
-14.59
-8.71
-3.22
1.65
5.83
9.32
12.10
14.07
15.19
15.50
15.21
14.67
14.21
14.00
14.03
14.14
14.14
13.94
13.58
13.23
13.00
12.93
12.93
12.80
12.41
11.68
10.67
9.50
8.32
7.22
6.21
5.21
4.06
2.61
0.82
-1.24
-3.40
-5.44
-7.21
-8.69
-9.98
-11.25
-12.68
-14.39
-16.49
-19.00
-21.86
-24.84
-27.48
-29.21
-29.45
-27.85
-24.43
-19.57
-13.89
-8.03
-2.51
2.39
6.56
9.98
12.64
14.53
15.63
16.00
15.76
15.14
14.38
13.74
13.40
13.40
13.69
14.08
14.36
14.35
14.02
13.42
12.68
11.90
11.10
10.23
9.18
7.94
6.54
5.08
3.63
2.19
0.71
-0.89
-2.63
-4.45
-6.25
-7.93
-9.48
-10.92
-12.37
-13.97
-15.85
-18.14
-20.82
-23.70
-26.36
-28.18
-28.56
-27.10
-23.78
-18.96
-13.31
-7.49
-2.04
2.76
6.79
10.05
12.52
14.21
15.13
15.39
15.20
14.79
14.37
14.05
13.86
13.77
13.69
13.53
13.25
12.88
12.47
12.09
11.74
11.35
10.77
9.88
8.66
7.20
5.67
4.21
2.87
1.59
0.23
-1.32
-3.05
-4.91
-6.75
-8.47
-10.05
-11.55
-13.09
-14.81
-16.84
-19.27
-22.06
-25.03
-27.81
-29.87
-30.67
-29.81
-27.15
-22.89
-17.52
-11.70
-6.05
-0.98
3.32
6.89
9.84
12.22
14.02
15.16
15.68
15.71
15.51
15.38
15.46
15.74
16.04
16.15
15.98
15.57
15.09
14.67
14.37
14.10
13.71
13.06
12.08
10.83
9.37
7.80
6.20
4.63
3.11
1.62
0.11
-1.51
-3.29
-5.26
-7.34
-9.41
-11.31
-12.99
-14.49
-15.99
-17.75
-19.95
-22.63
-25.58
-28.35
-30.31
-30.86
-29.55
-26.31
-21.40
-15.43
-9.11
-3.08
2.20
6.56
9.99
12.60
14.49
15.74
16.43
16.68
16.65
16.51
16.40
16.37
16.40
16.43
16.38
16.21
15.95
15.67
15.41
15.20
14.94
14.48
13.63
12.30
10.52
8.51
6.55
4.90
3.68
2.80
2.02
1.07
-0.23
-1.91
-3.89
-6.00
-8.05
-9.97
-11.70
-13.29
-14.83
-16.47
-18.38
-20.71
-23.42
-26.27
-28.72
-30.13
-29.90
-27.77
-23.90
-18.80
-13.19
-7.69
-2.70
1.64
5.31
8.34
10.68
12.30
13.21
13.55
13.59
13.60
13.82
14.41
15.38
16.63
17.98
19.16
19.88
19.91
19.16
17.71
15.79
13.63
11.39
9.10
6.66
3.97
0.99
-2.15
-5.24
-8.06
-10.49
-12.58
-14.44
-16.27
-18.21
-20.39
-22.91
-25.83
-29.11
-32.56
-35.68
-37.79
-38.15
-36.28
-32.15
-26.22
-19.29
-12.25
-5.75
-0.12
4.64
8.64
11.99
14.70
16.71
17.99
18.62
18.82
18.86
18.97
19.26
19.61
19.77
19.50
18.73
17.57
16.32
15.25
14.46
13.81
13.01
11.76
9.92
7.56
4.90
2.19
-0.42
-2.91
-5.32
-7.74
-10.25
-12.92
-15.83
-19.01
-22.40
-25.78
-28.74
-30.72
-31.17
-29.70
-26.29
-21.29
-15.37
-9.28
-3.66
1.17
5.19
8.53
11.32
13.58
15.20
16.08
16.23
15.80
15.07
14.31
13.73
13.38
13.23
13.15
13.06
12.85
12.51
12.05
11.50
10.89
10.22
9.40
8.31
6.80
4.83
2.44
-0.19
-2.80
-5.15
-7.16
-8.91
-10.59
-12.48
-14.81
-17.74
-21.24
-25.05
-28.67
-31.38
-32.42
-31.26
-27.78
-22.39
-15.89
-9.17
-2.94
2.51
7.22
11.38
15.11
18.38
20.96
22.71
23.59
23.81
23.68
23.49
23.38
23.31
23.15
22.74
22.04
21.09
19.99
18.80
17.50
16.04
14.39
12.61
10.83
9.20
7.74
6.33
4.77
2.89
0.62
-1.91
-4.49
-6.90
-9.06
-11.03
-12.97
-15.10
-17.56
-20.42
-23.62
-26.90
-29.86
-31.89
-32.35
-30.79
-27.08
-21.58
-15.03
-8.28
-2.08
3.18
7.41
10.77
13.37
15.27
16.40
16.74
16.38
15.61
14.81
14.31
14.25
14.56
14.97
15.19
15.04
14.50
13.72
12.92
12.25
11.71
11.14
10.29
8.97
7.14
4.98
2.73
0.67
-1.09
-2.60
-4.01
-5.51
-7.20
-9.13
-11.31
-13.78
-16.60
-19.77
-23.06
-26.01
-27.94
-28.21
-26.45
-22.75
-17.59
-11.71
-5.76
-0.20
4.80
9.24
13.10
16.29
18.66
20.11
20.68
20.56
20.03
19.37
18.76
18.30
17.97
17.72
17.52
17.32
17.08
16.73
16.18
15.37
14.25
12.83
11.19
9.42
7.62
5.84
4.08
2.24
0.29
-1.82
-4.03
-6.26
-8.39
-10.39
-12.29
-14.26
-16.50
-19.21
-22.46
-26.09
-29.63
-32.39
-33.58
-32.64
-29.42
-24.31
-18.10
-11.73
-5.93
-1.00
3.14
6.76
10.06
13.03
15.45
17.06
17.75
17.66
17.09
16.41
15.85
15.54
15.42
15.39
15.36
15.28
15.10
14.79
14.29
13.54
12.46
11.05
9.37
7.57
5.83
4.27
2.90
1.60
0.19
-1.50
-3.51
-5.72
-7.94
-9.96
-11.67
-13.11
-14.38
-15.70
-17.28
-19.35
-22.01
-25.19
-28.47
-31.12
-32.28
-31.21
-27.68
-22.07
-15.25
-8.28
-1.99
3.20
7.31
10.58
13.23
15.29
16.69
17.39
17.49
17.25
16.97
16.82
16.80
16.76
16.53
16.08
15.48
14.88
14.40
14.02
13.62
13.06
12.19
11.01
9.56
7.96
6.32
4.76
3.34
2.04
0.78
-0.55
-2.09
-3.87
-5.83
-7.83
-9.75
-11.56
-13.33
-15.21
-17.37
-19.91
-22.77
-25.79
-28.60
-30.75
-31.72
-31.08
-28.61
-24.37
-18.76
-12.43
-6.08
-0.33
4.43
8.10
10.78
12.66
13.89
14.56
14.72
14.44
13.87
13.22
12.73
12.54
12.63
12.87
13.06
13.01
12.65
11.93
10.95
9.83
8.68
7.61
6.68
5.85
5.02
4.04
2.78
1.23
-0.58
-2.50
-4.39
-6.16
-7.81
-9.37
-10.96
-12.67
-14.60
-16.83
-19.38
-22.15
-24.87
-27.07
-28.16
-27.66
-25.29
-21.17
-15.78
-9.79
-3.87
1.47
5.96
9.54
12.24
14.16
15.35
15.89
15.91
15.55
15.01
14.44
13.93
13.54
13.27
13.09
12.96
12.80
12.53
12.05
11.28
10.20
8.85
7.37
5.91
4.58
3.43
2.37
1.22
-0.17
-1.91
-3.93
-6.08
-8.18
-10.06
-11.70
-13.19
-14.73
-16.53
-18.76
-21.48
-24.52
-27.52
-29.89
-31.00
-30.33
-27.68
-23.25
-17.58
-11.40
-5.41
-0.07
4.40
7.98
10.75
12.80
14.20
15.03
15.38
15.40
15.22
15.00
14.80
14.63
14.45
14.19
13.81
13.31
12.73
12.08
11.36
10.52
9.52
8.38
7.15
5.95
4.82
3.74
2.55
1.09
-0.71
-2.81
-5.04
-7.19
-9.12
-10.81
-12.36
-13.93
-15.71
-17.82
-20.31
-23.09
-25.94
-28.43
-30.06
-30.28
-28.75
-25.38
-20.44
-14.47
-8.18
-2.20
3.02
7.25
10.52
12.97
14.74
15.94
16.62
16.82
16.63
16.23
15.83
15.59
15.58
15.74
15.92
15.98
15.83
15.49
15.02
14.46
13.81
13.03
12.03
10.78
9.27
7.60
5.88
4.20
2.59
0.97
-0.75
-2.65
-4.68
-6.69
-8.48
-9.98
-11.27
-12.61
-14.33
-16.64
-19.53
-22.70
-25.71
-28.03
-29.20
-28.93
-27.09
-23.75
-19.12
-13.63
-7.79
-2.17
2.77
6.79
9.89
12.23
13.96
15.18
15.82
15.82
15.22
14.23
13.19
12.45
12.20
12.38
12.75
13.02
13.00
12.64
12.03
11.31
10.57
9.84
9.09
8.25
7.23
5.94
4.35
2.49
0.45
-1.60
-3.56
-5.34
-7.00
-8.66
-10.51
-12.71
-15.36
-18.41
-21.68
-24.85
-27.43
-28.88
-28.72
-26.69
-22.88
-17.72
-11.89
-6.09
-0.81
3.69
7.41
10.45
12.89
14.71
15.85
16.28
16.10
15.52
14.79
14.14
13.71
13.50
13.47
13.54
13.57
13.46
13.10
12.43
11.42
10.11
8.58
6.98
5.41
3.94
2.55
1.13
-0.44
-2.27
-4.33
-6.48
-8.56
-10.44
-12.09
-13.59
-15.12
-16.83
-18.87
-21.31
-24.13
-27.13
-29.89
-31.76
-32.02
-30.16
-26.10
-20.28
-13.56
-6.86
-0.90
4.00
7.85
10.87
13.23
14.97
16.08
16.56
16.54
16.27
16.01
15.90
15.91
15.94
15.84
15.59
15.29
15.07
15.00
15.03
14.96
14.57
13.73
12.43
10.78
8.96
7.10
5.28
3.50
1.72
-0.11
-2.00
-3.91
-5.78
-7.55
-9.18
-10.70
-12.25
-14.01
-16.14
-18.76
-21.81
-25.05
-28.02
-30.12
-30.72
-29.39
-26.04
-20.96
-14.78
-8.25
-2.05
3.38
7.81
11.20
13.60
15.08
15.80
15.95
15.84
15.73
15.80
16.07
16.42
16.66
16.65
16.35
15.84
15.24
14.67
14.20
13.78
13.30
12.65
11.76
10.64
9.38
8.05
6.71
5.32
3.81
2.08
0.09
-2.10
-4.38
-6.59
-8.62
-10.44
-12.11
-13.76
-15.54
-17.59
-19.99
-22.70
-25.51
-28.03
-29.72
-30.02
-28.52
-25.14
-20.23
-14.44
-8.51
-3.04
1.69
5.66
8.98
11.70
13.76
15.03
15.51
15.32
14.78
14.24
13.94
13.93
14.11
14.31
14.40
14.30
14.01
13.56
12.96
12.23
11.37
10.37
9.24
7.97
6.53
4.90
3.06
1.00
-1.23
-3.52
-5.75
-7.80
-9.64
-11.33
-12.99
-14.82
-17.00
-19.63
-22.65
-25.83
-28.73
-30.76
-31.33
-30.02
-26.73
-21.80
-15.84
-9.60
-3.73
1.40
5.65
9.09
11.83
13.95
15.50
16.52
17.07
17.25
17.18
17.00
16.79
16.62
16.50
16.40
16.28
16.06
15.74
15.28
14.70
13.97
13.07
11.98
10.70
9.25
7.66
5.96
4.16
2.27
0.26
-1.83
-3.92
-5.94
-7.79
-9.45
-10.98
-12.53
-14.31
-16.56
-19.41
-22.78
-26.33
-29.46
-31.50
-31.83
-30.12
-26.47
-21.32
-15.32
-9.17
-3.42
1.60
5.75
9.05
11.61
13.53
14.90
15.76
16.18
16.25
16.12
15.98
15.94
16.02
16.14
16.16
16.00
15.64
15.12
14.49
13.77
12.90
11.83
10.54
9.04
7.41
5.70
3.95
2.14
0.31
-1.52
-3.34
-5.15
-6.98
-8.87
-10.87
-12.98
-15.19
-17.52
-20.05
-22.88
-26.09
-29.59
-33.08
-36.05
-37.87
-38.03
-36.30
-32.83
-28.09
-22.67
-17.09
-11.65
-6.48
-1.59
2.94
7.00
10.38
12.88
14.43
15.10
15.10
14.77
14.41
14.25
14.38
14.73
15.12
15.37
15.39
15.13
14.63
13.95
13.12
12.14
10.98
9.63
8.12
6.46
4.70
2.88
1.03
-0.80
-2.59
-4.32
-6.01
-7.70
-9.49
-11.49
-13.80
-16.46
-19.34
-22.11
-24.27
-25.24
-24.58
-22.16
-18.18
-13.16
-7.70
-2.37
2.45
6.59
9.99
12.62
14.49
15.60
16.05
16.04
15.85
15.73
15.80
16.05
16.31
16.42
16.27
15.88
15.39
14.92
14.55
14.22
13.78
13.02
11.79
10.04
7.85
5.42
2.96
0.69
-1.28
-2.99
-4.56
-6.20
-8.12
-10.47
-13.26
-16.33
-19.34
-21.82
-23.20
-23.06
-21.16
-17.63
-12.87
-7.44
-1.91
3.29
7.91
11.81
14.94
17.26
18.77
19.52
19.65
19.37
18.88
18.37
17.96
17.65
17.40
17.09
16.65
16.09
15.51
15.03
14.76
14.65
14.51
14.05
13.01
11.33
9.19
6.95
4.97
3.44
2.29
1.21
-0.18
-2.21
-5.00
-8.42
-12.10
-15.47
-17.93
-18.89
-18.00
-15.22
-10.93
-5.78
-0.60
3.94
7.41
9.80
11.30
12.23
12.87
13.43
14.03
14.81
15.88
17.33
19.18
21.32
23.51
25.41
26.64
26.79
25.63
23.08
19.34
14.80
9.93
5.12
0.61
-3.54
-7.32
-10.71
-13.60
-15.87
-17.47
-18.51
-19.29
-20.16
-21.47
-23.45
-26.15
-29.43
-32.98
-36.35
-39.07
-40.67
-40.84
-39.45
-36.63
-32.69
-28.08
-23.33
-18.84
-14.93
-11.72
-9.26
-7.56
-6.62
-6.46
-6.99
-8.02
-9.27
-10.42
-11.30
-11.88
-12.30
-12.65
-12.89
-12.83
-12.24
-11.00
-9.23
-7.27
-5.50
-4.22
-3.52
-3.30
-3.38
-3.62
-3.89
-4.15
-4.39
-4.63
-4.94
-5.47
-6.37
-7.78
-9.67
-11.79
-13.67
-14.72
-14.40
-12.41
-8.82
-4.04
1.34
6.76
11.81
16.31
20.25
23.61
26.34
28.36
29.60
30.10
30.02
29.60
29.00
28.32
27.57
26.72
25.79
24.81
23.87
23.04
22.34
21.72
21.02
20.01
18.51
16.44
13.91
11.14
8.44
6.00
3.89
2.00
0.15
-1.81
-4.00
-6.46
-9.21
-12.26
-15.50
-18.65
-21.22
-22.63
-22.41
-20.41
-16.86
-12.25
-7.16
-2.04
2.89
7.50
11.69
15.25
17.95
19.62
20.33
20.37
20.21
20.23
20.62
21.29
21.97
22.40
22.38
21.89
21.05
20.00
18.86
17.71
16.55
15.37
14.13
12.80
11.31
9.64
7.77
5.75
3.65
1.53
-0.56
-2.63
-4.76
-7.04
-9.61
-12.54
-15.83
-19.30
-22.63
-25.34
-26.95
-27.13
-25.81
-23.21
-19.74
-15.84
-11.86
-8.01
-4.37
-1.04
1.89
4.27
6.04
7.17
7.74
7.87
7.65
7.18
6.55
5.85
5.20
4.71
4.43
4.35
4.41
4.52
4.59
4.53
4.28
3.77
2.96
1.86
0.51
-0.99
-2.55
-4.11
-5.66
-7.28
-9.08
-11.19
-13.68
-16.52
-19.48
-22.12
-23.91
-24.40
-23.31
-20.67
-16.77
-12.09
-7.12
-2.24
2.29
6.32
9.75
12.45
14.32
15.31
15.50
15.12
14.47
13.82
13.34
13.03
12.76
12.39
11.81
11.04
10.17
9.28
8.38
7.39
6.19
4.67
2.80
0.72
-1.39
-3.31
-4.95
-6.34
-7.68
-9.21
-11.09
-13.35
-15.89
-18.52
-21.06
-23.27
-24.88
-25.53
-24.85
-22.62
-18.90
-14.08
-8.73
-3.43
1.44
5.72
9.43
12.59
15.17
17.07
18.22
18.65
18.51
18.02
17.39
16.74
16.15
15.63
15.17
14.74
14.31
13.81
13.15
12.25
11.10
9.73
8.24
6.72
5.18
3.58
1.83
-0.10
-2.18
-4.31
-6.37
-8.32
-10.17
-12.01
-13.91
-15.92
-18.04
-20.26
-22.48
-24.56
-26.23
-27.13
-26.89
-25.25
-22.15
-17.76
-12.47
-6.76
-1.11
4.08
8.54
12.16
14.95
17.00
18.40
19.20
19.46
19.25
18.71
18.02
17.32
16.69
16.08
15.40
14.59
13.66
12.69
11.76
10.85
9.87
8.70
7.25
5.55
3.67
1.70
-0.31
-2.34
-4.37
-6.39
-8.35
-10.21
-11.95
-13.56
-15.07
-16.53
-18.04
-19.73
-21.69
-23.86
-25.97
-27.55
-28.06
-27.12
-24.56
-20.55
-15.49
-9.92
-4.31
0.91
5.48
9.19
11.96
13.73
14.55
14.55
13.97
13.10
12.28
11.71
11.50
11.53
11.61
11.53
11.23
10.73
10.14
9.55
8.94
8.21
7.25
5.99
4.43
2.68
0.86
-0.91
-2.56
-4.12
-5.64
-7.19
-8.82
-10.57
-12.49
-14.61
-16.97
-19.51
-22.03
-24.16
-25.44
-25.42
-23.86
-20.83
-16.66
-11.86
-6.91
-2.22
1.98
5.56
8.47
10.70
12.26
13.21
13.65
13.70
13.44
12.94
12.22
11.32
10.32
9.36
8.56
8.03
7.73
7.55
7.27
6.71
5.75
4.41
2.77
0.98
-0.83
-2.59
-4.27
-5.85
-7.38
-8.93
-10.61
-12.52
-14.70
-17.00
-19.07
-20.39
-20.47
-19.01
-16.02
-11.87
-7.12
-2.32
2.14
6.07
9.39
12.03
13.92
14.99
15.26
14.91
14.19
13.37
12.59
11.81
10.96
9.96
8.90
7.92
7.17
6.68
6.36
5.98
5.34
4.28
2.81
1.00
-0.96
-2.91
-4.73
-6.39
-7.94
-9.51
-11.29
-13.38
-15.79
-18.35
-20.70
-22.44
-23.15
-22.55
-20.53
-17.19
-12.82
-7.80
-2.58
2.45
6.99
10.84
13.85
15.93
17.04
17.26
16.75
15.82
14.81
13.97
13.43
13.08
12.74
12.21
11.45
10.51
9.53
8.60
7.68
6.62
5.30
3.68
1.87
0.05
-1.58
-2.94
-4.07
-5.14
-6.34
-7.79
-9.53
-11.52
-13.71
-16.03
-18.35
-20.47
-22.04
-22.68
-22.02
-19.92
-16.50
-12.14
-7.36
-2.63
1.71
5.47
8.57
10.95
12.54
13.35
13.42
12.93
12.12
11.27
10.62
10.30
10.31
10.50
10.65
10.53
10.05
9.27
8.37
7.53
6.81
6.11
5.22
3.99
2.42
0.66
-1.04
-2.55
-3.88
-5.16
-6.61
-8.37
-10.50
-12.95
-15.56
-18.06
-20.08
-21.20
-21.06
-19.51
-16.67
-12.91
-8.71
-4.52
-0.62
2.85
5.86
8.40
10.45
11.96
12.89
13.26
13.13
12.61
11.82
10.88
9.87
8.89
8.01
7.26
6.69
6.24
5.87
5.49
5.03
4.44
3.67
2.71
1.56
0.27
-1.11
-2.50
-3.85
-5.18
-6.57
-8.15
-10.02
-12.19
-14.57
-17.01
-19.27
-21.09
-22.16
-22.12
-20.72
-17.88
-13.79
-8.95
-3.97
0.59
4.40
7.44
9.83
11.75
13.24
14.24
14.63
14.38
13.61
12.60
11.66
10.99
10.62
10.40
10.10
9.58
8.82
7.94
7.12
6.44
5.87
5.23
4.34
3.10
1.56
-0.11
-1.74
-3.23
-4.60
-5.92
-7.27
-8.70
-10.23
-11.89
-13.71
-15.71
-17.83
-19.79
-21.20
-21.60
-20.68
-18.38
-14.93
-10.78
-6.40
-2.21
1.54
4.73
7.33
9.32
10.76
11.68
12.16
12.25
12.04
11.58
10.96
10.29
9.70
9.28
9.05
8.96
8.87
8.70
8.41
7.99
7.46
6.81
6.00
4.99
3.82
2.57
1.39
0.35
-0.57
-1.49
-2.55
-3.82
-5.26
-6.74
-8.12
-9.39
-10.63
-12.06
-13.86
-16.11
-18.69
-21.27
-23.40
-24.62
-24.54
-23.01
-20.13
-16.21
-11.68
-7.02
-2.65
1.17
4.30
6.74
8.55
9.82
10.63
11.04
11.13
11.00
10.75
10.49
10.25
10.02
9.78
9.50
9.20
8.94
8.75
8.62
8.47
8.20
7.76
7.15
6.44
5.69
4.95
4.15
3.22
2.08
0.68
-0.98
-2.85
-4.83
-6.78
-8.56
-10.07
-11.32
-12.38
-13.44
-14.71
-16.36
-18.44
-20.82
-23.16
-24.98
-25.72
-25.01
-22.70
-18.98
-14.28
-9.17
-4.18
0.33
4.12
7.13
9.36
10.84
11.66
11.97
11.95
11.79
11.64
11.57
11.59
11.66
11.74
11.81
11.83
11.77
11.59
11.24
10.71
10.07
9.37
8.68
8.01
7.33
6.56
5.63
4.48
3.11
1.54
-0.16
-1.89
-3.55
-5.07
-6.44
-7.71
-8.98
-10.40
-12.06
-14.02
-16.27
-18.75
-21.27
-23.50
-25.03
-25.39
-24.25
-21.55
-17.54
-12.70
-7.58
-2.63
1.85
5.72
8.91
11.37
13.10
14.14
14.64
14.76
14.68
14.46
14.12
13.66
13.09
12.53
12.10
11.87
11.85
11.92
11.93
11.72
11.21
10.38
9.31
8.15
7.01
5.98
5.01
4.00
2.83
1.44
-0.14
-1.77
-3.36
-4.84
-6.29
-7.79
-9.47
-11.38
-13.50
-15.82
-18.28
-20.74
-22.92
-24.40
-24.71
-23.48
-20.62
-16.36
-11.25
-5.89
-0.83
3.60
7.23
10.08
12.18
13.54
14.19
14.17
13.66
12.85
12.00
11.32
10.91
10.72
10.63
10.49
10.21
9.78
9.29
8.86
8.56
8.36
8.12
7.62
6.64
5.07
2.99
0.61
-1.77
-3.88
-5.61
-7.01
-8.31
-9.74
-11.53
-13.80
-16.51
-19.47
-22.35
-24.68
-25.96
-25.79
-23.92
-20.45
-15.74
-10.35
-4.90
0.14
4.50
8.13
11.09
13.44
15.18
16.28
16.68
16.44
15.71
14.76
13.87
13.25
12.95
12.88
12.86
12.71
12.35
11.75
10.96
10.04
9.03
7.92
6.70
5.34
3.83
2.21
0.52
-1.17
-2.82
-4.42
-6.02
-7.68
-9.50
-11.56
-13.92
-16.57
-19.40
-22.16
-24.44
-25.73
-25.52
-23.53
-19.82
-14.77
-9.01
-3.19
2.19
6.84
10.65
13.59
15.61
16.73
17.05
16.78
16.24
15.70
15.30
15.01
14.70
14.25
13.66
13.03
12.48
12.05
11.69
11.27
10.65
9.79
8.71
7.45
6.05
4.49
2.80
1.04
-0.69
-2.35
-3.96
-5.60
-7.41
-9.46
-11.76
-14.25
-16.88
-19.48
-21.84
-23.57
-24.22
-23.41
-21.00
-17.19
-12.48
-7.44
-2.58
1.79
5.57
8.76
11.32
13.20
14.35
14.84
14.85
14.62
14.41
14.35
14.42
14.52
14.49
14.22
13.72
13.07
12.39
11.78
11.26
10.78
10.26
9.55
8.55
7.19
5.50
3.57
1.56
-0.34
-2.00
-3.37
-4.52
-5.62
-6.86
-8.40
-10.34
-12.66
-15.22
-17.70
-19.68
-20.70
-20.42
-18.67
-15.58
-11.53
-7.03
-2.61
1.32
4.53
6.94
8.59
9.60
10.08
10.15
9.95
9.60
9.25
8.99
8.87
8.88
8.98
9.09
9.18
9.23
9.27
9.31
9.31
9.18
8.77
7.92
6.59
4.86
2.94
1.12
-0.36
-1.44
-2.21
-2.92
-3.88
-5.30
-7.25
-9.66
-12.31
-14.88
-16.99
-18.21
-18.19
-16.78
-14.04
-10.36
-6.23
-2.18
1.43
4.47
6.97
9.06
10.87
12.40
13.59
14.35
14.66
14.56
14.18
13.70
13.21
12.77
12.36
11.92
11.40
10.75
9.93
8.88
7.59
6.05
4.34
2.57
0.84
-0.83
-2.44
-4.03
-5.61
-7.20
-8.84
-10.62
-12.62
-14.80
-17.00
-18.95
-20.42
-21.30
-21.63
-21.47
-20.82
-19.54
-17.47
-14.58
-11.12
-7.53
-4.23
-1.47
0.85
3.03
5.38
8.06
11.00
14.03
17.00
19.86
22.63
25.29
27.70
29.61
30.72
30.83
29.96
28.39
26.58
24.98
23.96
23.63
23.86
24.38
24.82
24.89
24.38
23.17
21.25
18.66
15.55
12.08
8.43
4.70
0.90
-3.02
-7.16
-11.55
-16.10
-20.59
-24.67
-27.97
-30.19
-31.18
-30.97
-29.71
-27.61
-24.90
-21.71
-18.15
-14.27
-10.15
-5.81
-1.30
3.37
8.14
12.93
17.53
21.73
25.32
28.24
30.56
32.43
34.04
35.50
36.78
37.75
38.18
37.83
36.48
34.01
30.43
25.96
20.99
16.03
11.54
7.80
4.78
2.22
-0.34
-3.29
-6.85
-11.00
-15.53
-20.13
-24.54
-28.52
-31.84
-34.21
-35.33
-35.00
-33.28
-30.57
-27.54
-24.94
-23.34
-22.91
-23.46
-24.52
-25.58
-26.28
-26.46
-26.16
-25.51
-24.69
-23.86
-23.17
-22.74
-22.63
-22.83
-23.23
-23.66
-23.96
-23.96
-23.53
-22.51
-20.77
-18.21
-14.85
-10.86
-6.58
-2.43
1.26
4.27
6.55
8.12
9.04
9.31
9.00
8.30
7.57
7.29
7.92
9.67
12.46
15.90
19.47
22.70
25.32
27.27
28.64
29.56
30.08
30.18
29.74
28.64
26.84
24.42
21.59
18.63
15.83
13.31
11.09
9.04
7.05
5.03
3.01
1.03
-0.82
-2.51
-4.01
-5.24
-6.10
-6.50
-6.43
-6.05
-5.61
-5.42
-5.66
-6.34
-7.28
-8.18
-8.75
-8.80
-8.25
-7.15
-5.61
-3.79
-1.84
0.09
1.88
3.41
4.58
5.30
5.49
5.10
4.03
2.26
-0.15
-2.94
-5.61
-7.50
-7.92
-6.45
-3.12
1.39
5.90
9.03
9.61
7.14
1.96
-4.78
-11.51
-16.74
-19.54
-19.84
-18.42
-16.57
-15.70
-16.85
-20.35
-25.88
-32.52
-39.14
-44.78
-48.90
-51.53
-53.14
-54.37
-55.71
-57.23
-58.71
-59.73
-60.02
-59.51
-58.28
-56.44
-53.96
-50.73
-46.73
-42.19
-37.56
-33.40
-30.07
-27.64
-25.80
-24.06
-21.92
-19.05
-15.28
-10.64
-5.33
0.32
5.89
10.96
15.27
18.74
21.46
23.55
25.11
26.14
26.59
26.43
25.69
24.43
22.63
20.14
16.75
12.32
6.88
0.70
-5.88
-12.66
-19.67
-27.12
-35.25
-44.05
-53.18
-61.98
-69.65
-75.50
-79.10
-80.26
-78.99
-75.39
-69.59
-61.82
-52.38
-41.79
-30.68
-19.75
-9.66
-0.87
6.45
12.42
17.38
21.75
25.90
30.06
34.28
38.40
42.15
45.19
47.25
48.22
48.18
47.39
46.14
44.64
42.99
41.14
39.03
36.59
33.86
30.93
27.89
24.78
21.54
18.04
14.18
9.94
5.43
0.91
-3.23
-6.55
-8.60
-9.02
-7.64
-4.54
-0.07
5.23
10.76
15.98
20.60
24.51
27.76
30.42
32.52
34.04
34.97
35.33
35.22
34.80
34.22
33.62
33.04
32.44
31.77
30.97
30.01
28.94
27.85
26.76
25.62
24.26
22.41
19.85
16.53
12.55
8.19
3.78
-0.42
-4.29
-7.85
-11.24
-14.64
-18.26
-22.24
-26.59
-31.09
-35.27
-38.51
-40.13
-39.65
-36.91
-32.10
-25.73
-18.42
-10.81
-3.43
3.34
9.23
14.09
17.81
20.42
22.00
22.74
22.88
22.71
22.50
22.47
22.70
23.17
23.70
24.12
24.30
24.24
24.02
23.77
23.48
23.01
22.11
20.57
18.29
15.41
12.23
9.10
6.31
3.95
1.94
0.06
-1.96
-4.31
-7.12
-10.34
-13.77
-17.07
-19.77
-21.38
-21.44
-19.72
-16.24
-11.35
-5.65
0.21
5.68
10.41
14.32
17.43
19.83
21.52
22.46
22.66
22.23
21.44
20.59
19.94
19.57
19.36
19.12
18.70
18.06
17.32
16.58
15.88
15.10
14.07
12.63
10.77
8.59
6.25
3.90
1.67
-0.42
-2.32
-4.01
-5.55
-7.10
-8.92
-11.25
-14.16
-17.43
-20.50
-22.67
-23.34
-22.16
-19.22
-14.91
-9.81
-4.51
0.52
4.99
8.74
11.73
14.01
15.64
16.74
17.41
17.71
17.73
17.55
17.30
17.09
17.03
17.10
17.24
17.33
17.28
17.04
16.65
16.17
15.63
14.98
14.10
12.84
11.10
8.91
6.46
4.01
1.82
0.05
-1.34
-2.50
-3.70
-5.17
-7.08
-9.43
-12.06
-14.64
-16.69
-17.66
-17.01
-14.44
-9.92
-3.82
3.22
10.42
17.08
22.75
27.31
30.86
33.63
35.75
37.19
37.74
37.16
35.30
32.28
28.42
24.22
20.22
16.87
14.44
13.05
12.57
12.70
12.97
12.84
11.81
9.66
6.51
2.83
-0.76
-3.66
-5.59
-6.62
-7.09
-7.43
-7.92
-8.61
-9.35
-9.96
-10.43
-11.00
-12.04
-13.89
-16.59
-19.85
-23.04
-25.45
-26.50
-25.98
-24.08
-21.24
-18.02
-14.84
-11.89
-9.16
-6.60
-4.18
-2.05
-0.44
0.46
0.64
0.28
-0.30
-0.78
-0.99
-0.91
-0.65
-0.37
-0.23
-0.36
-0.81
-1.58
-2.60
-3.74
-4.88
-5.90
-6.79
-7.55
-8.25
-8.88
-9.41
-9.80
-10.07
-10.33
-10.74
-11.45
-12.48
-13.76
-15.14
-16.49
-17.69
-18.66
-19.30
-19.41
-18.76
-17.13
-14.44
-10.84
-6.75
-2.68
0.86
3.55
5.38
6.52
7.22
7.65
7.81
7.55
6.80
5.62
4.25
3.04
2.26
1.96
1.99
2.06
1.93
1.45
0.64
-0.38
-1.48
-2.55
-3.55
-4.49
-5.43
-6.43
-7.52
-8.71
-9.97
-11.25
-12.55
-13.89
-15.31
-16.85
-18.49
-20.15
-21.75
-23.28
-24.83
-26.53
-28.43
-30.31
-31.74
-32.11
-30.95
-28.14
-23.97
-19.11
-14.28
-10.04
-6.59
-3.84
-1.58
0.32
1.88
2.99
3.56
3.66
3.49
3.31
3.30
3.55
4.07
4.85
5.89
7.16
8.56
9.88
10.86
11.30
11.13
10.44
9.41
8.17
6.77
5.19
3.45
1.57
-0.31
-2.09
-3.70
-5.15
-6.48
-7.77
-9.10
-10.62
-12.48
-14.81
-17.54
-20.36
-22.63
-23.63
-22.72
-19.68
-14.80
-8.86
-2.83
2.40
6.30
8.78
10.07
10.55
10.55
10.22
9.61
8.68
7.53
6.32
5.30
4.71
4.65
5.05
5.72
6.43
6.93
7.03
6.56
5.37
3.33
0.47
-2.85
-5.97
-8.00
-8.13
-6.04
-2.05
2.89
7.48
10.60
11.61
10.52
7.84
4.29
0.46
-3.27
-6.73
-9.76
-12.11
-13.39
-13.24
-11.49
-8.33
-4.25
0.07
4.01
7.15
9.38
10.74
11.42
11.52
11.10
10.19
8.88
7.36
5.92
4.97
4.88
5.90
8.04
11.05
14.42
17.54
19.91
21.25
21.61
21.28
20.67
20.14
19.86
19.88
20.15
20.58
21.08
21.51
21.77
21.73
21.32
20.60
19.66
18.63
17.56
16.48
15.44
14.60
14.26
14.76
16.30
18.88
22.22
25.87
29.31
32.08
33.78
34.06
32.65
29.45
24.60
18.52
11.78
4.95
-1.58
-7.62
-13.14
-18.17
-22.70
-26.73
-30.28
-33.49
-36.56
-39.70
-42.98
-46.28
-49.23
-51.36
-52.19
-51.35
-48.75
-44.58
-39.32
-33.66
-28.34
-23.99
-21.08
-19.82
-20.26
-22.23
-25.43
-29.29
-33.08
-35.94
-37.15
-36.34
-33.66
-29.71
-25.27
-21.05
-17.36
-14.12
-10.96
-7.52
-3.61
0.73
5.26
9.67
13.67
17.06
19.68
21.38
22.09
21.84
20.81
19.30
17.70
16.31
15.29
14.58
13.95
13.14
11.95
10.37
8.54
6.66
4.88
3.26
1.72
0.17
-1.51
-3.38
-5.43
-7.62
-9.76
-11.57
-12.67
-12.69
-11.46
-9.09
-5.99
-2.71
0.27
2.65
4.40
5.61
6.41
6.87
6.98
6.76
6.31
5.81
5.45
5.30
5.30
5.30
5.14
4.74
4.16
3.53
2.98
2.55
2.22
1.87
1.40
0.73
-0.16
-1.23
-2.44
-3.74
-5.15
-6.72
-8.53
-10.58
-12.74
-14.66
-15.87
-15.91
-14.55
-11.84
-8.21
-4.21
-0.41
2.84
5.40
7.32
8.67
9.49
9.74
9.40
8.51
7.24
5.89
4.71
3.90
3.49
3.40
3.44
3.41
3.17
2.64
1.81
0.74
-0.47
-1.72
-2.89
-3.91
-4.75
-5.43
-6.04
-6.65
-7.37
-8.32
-9.56
-11.09
-12.74
-14.20
-15.05
-14.87
-13.41
-10.72
-7.10
-3.08
0.85
4.28
7.04
9.11
10.57
11.53
12.08
12.35
12.43
12.43
12.40
12.38
12.29
12.11
11.78
11.34
10.87
10.46
10.14
9.87
9.51
8.88
7.87
6.47
4.80
3.05
1.39
-0.10
-1.50
-2.99
-4.76
-6.97
-9.56
-12.31
-14.78
-16.46
-16.91
-15.87
-13.38
-9.76
-5.52
-1.21
2.72
6.02
8.62
10.56
11.95
12.84
13.30
13.38
13.16
12.75
12.29
11.83
11.39
10.91
10.32
9.62
8.91
8.30
7.89
7.64
7.42
7.03
6.33
5.26
3.91
2.44
0.98
-0.38
-1.68
-3.02
-4.58
-6.52
-8.91
-11.62
-14.29
-16.40
-17.42
-16.99
-15.10
-12.03
-8.28
-4.32
-0.50
3.02
6.15
8.84
10.97
12.45
13.24
13.40
13.14
12.72
12.34
12.10
11.95
11.76
11.38
10.77
10.02
9.30
8.82
8.64
8.70
8.72
8.44
7.64
6.28
4.53
2.58
0.68
-1.05
-2.57
-3.93
-5.17
-6.39
-7.71
-9.27
-11.22
-13.50
-15.86
-17.81
-18.78
-18.34
-16.41
-13.23
-9.31
-5.17
-1.21
2.36
5.47
8.04
9.99
11.25
11.85
11.89
11.59
11.14
10.72
10.40
10.19
10.03
9.84
9.51
8.96
8.22
7.37
6.58
5.98
5.58
5.27
4.82
4.06
2.90
1.42
-0.24
-1.90
-3.48
-4.95
-6.37
-7.82
-9.36
-11.01
-12.78
-14.58
-16.24
-17.53
-18.13
-17.81
-16.44
-14.09
-10.98
-7.41
-3.70
-0.14
3.04
5.67
7.61
8.80
9.31
9.25
8.85
8.33
7.88
7.63
7.57
7.60
7.61
7.45
7.09
6.56
5.96
5.40
4.94
4.54
4.10
3.50
2.64
1.51
0.16
-1.28
-2.64
-3.77
-4.62
-5.30
-6.05
-7.13
-8.69
-10.68
-12.77
-14.48
-15.33
-15.01
-13.48
-10.98
-7.90
-4.66
-1.59
1.15
3.50
5.48
7.06
8.22
8.88
9.04
8.74
8.11
7.36
6.64
6.05
5.60
5.23
4.85
4.42
3.94
3.47
3.04
2.62
2.17
1.58
0.78
-0.24
-1.42
-2.64
-3.79
-4.83
-5.80
-6.83
-8.09
-9.71
-11.65
-13.72
-15.55
-16.72
-16.89
-15.90
-13.86
-11.03
-7.83
-4.60
-1.61
1.05
3.35
5.29
6.85
7.93
8.46
8.41
7.88
7.07
6.18
5.39
4.77
4.31
3.98
3.72
3.52
3.32
3.04
2.59
1.90
0.96
-0.13
-1.27
-2.32
-3.28
-4.19
-5.22
-6.53
-8.24
-10.38
-12.81
-15.19
-17.07
-17.97
-17.57
-15.83
-13.01
-9.57
-6.00
-2.66
0.30
2.89
5.16
7.09
8.57
9.44
9.66
9.29
8.58
7.82
7.23
6.92
6.85
6.87
6.82
6.54
5.98
5.14
4.13
3.07
2.10
1.30
0.67
0.13
-0.45
-1.22
-2.32
-3.82
-5.75
-8.09
-10.71
-13.38
-15.72
-17.33
-17.85
-17.09
-15.10
-12.13
-8.59
-4.92
-1.48
1.52
4.01
6.02
7.59
8.79
9.63
10.15
10.34
10.26
9.99
9.61
9.21
8.86
8.57
8.33
8.16
8.05
7.96
7.84
7.57
7.02
6.10
4.80
3.21
1.49
-0.19
-1.70
-2.99
-4.14
-5.31
-6.69
-8.41
-10.44
-12.59
-14.47
-15.64
-15.70
-14.49
-12.07
-8.79
-5.09
-1.39
1.97
4.82
7.11
8.85
10.10
10.94
11.38
11.46
11.22
10.74
10.14
9.57
9.11
8.81
8.61
8.42
8.17
7.82
7.41
7.01
6.62
6.16
5.53
4.59
3.32
1.80
0.16
-1.42
-2.84
-4.09
-5.24
-6.42
-7.76
-9.34
-11.18
-13.20
-15.20
-16.87
-17.85
-17.87
-16.74
-14.55
-11.51
-7.98
-4.30
-0.76
2.44
5.17
7.35
8.92
9.87
10.28
10.24
9.96
9.58
9.23
8.99
8.89
8.93
9.10
9.33
9.55
9.67
9.64
9.43
9.08
8.61
8.04
7.28
6.25
4.87
3.17
1.30
-0.53
-2.10
-3.31
-4.21
-4.96
-5.74
-6.75
-8.08
-9.76
-11.76
-13.97
-16.21
-18.20
-19.61
-20.10
-19.40
-17.47
-14.44
-10.68
-6.63
-2.71
0.75
3.57
5.69
7.20
8.20
8.83
9.20
9.36
9.36
9.21
8.96
8.70
8.54
8.53
8.67
8.84
8.92
8.82
8.51
8.07
7.60
7.18
6.77
6.25
5.54
4.57
3.41
2.13
0.85
-0.40
-1.65
-2.97
-4.43
-6.02
-7.68
-9.28
-10.71
-11.98
-13.22
-14.61
-16.26
-18.03
-19.55
-20.26
-19.70
-17.69
-14.41
-10.35
-6.13
-2.25
1.05
3.72
5.85
7.54
8.82
9.72
10.23
10.42
10.39
10.28
10.17
10.11
10.08
10.03
9.94
9.76
9.48
9.12
8.69
8.19
7.66
7.10
6.51
5.86
5.08
4.10
2.89
1.47
-0.07
-1.59
-2.97
-4.18
-5.21
-6.17
-7.20
-8.46
-10.09
-12.20
-14.77
-17.64
-20.42
-22.60
-23.58
-22.96
-20.64
-16.91
-12.36
-7.68
-3.44
0.07
2.80
4.84
6.29
7.18
7.54
7.44
7.09
6.78
6.76
7.13
7.79
8.52
9.05
9.20
8.96
8.42
7.79
7.26
6.90
6.67
6.41
5.87
4.88
3.42
1.60
-0.32
-2.11
-3.63
-4.88
-5.96
-7.03
-8.24
-9.75
-11.65
-13.93
-16.37
-18.60
-20.08
-20.34
-19.13
-16.50
-12.80
-8.55
-4.22
-0.17
3.42
6.49
9.01
11.06
12.83
14.55
16.48
18.66
20.86
22.59
23.33
22.74
20.92
18.28
15.38
12.64
10.14
7.73
5.17
2.41
-0.39
-2.92
-4.94
-6.33
-7.14
-7.47
-7.42
-7.09
-6.65
-6.36
-6.47
-7.11
-8.18
-9.31
-9.94
-9.59
-7.95
-5.06
-1.18
3.28
7.89
12.26
16.07
19.06
21.07
22.09
22.29
21.97
21.49
21.11
20.90
20.73
20.36
19.57
18.25
16.37
13.97
11.08
7.67
3.78
-0.49
-4.90
-9.19
-13.14
-16.69
-19.89
-22.76
-25.29
-27.25
-28.36
-28.44
-27.51
-25.91
-24.25
-23.07
-22.73
-23.15
-23.92
-24.39
-24.00
-22.44
-19.68
-15.94
-11.58
-6.94
-2.33
1.99
5.79
8.89
11.14
12.53
13.16
13.20
12.91
12.46
12.02
11.68
11.50
11.54
11.83
12.30
12.82
13.19
13.21
12.77
11.89
10.73
9.48
8.37
7.54
7.03
6.81
6.73
6.53
5.96
4.81
3.11
1.20
-0.34
-0.90
-0.15
1.80
4.41
6.90
8.61
9.22
8.80
7.63
6.10
4.49
3.03
1.93
1.48
1.98
3.62
6.40
10.03
14.06
18.05
21.64
24.65
26.97
28.50
29.04
28.33
26.13
22.32
16.99
10.40
2.95
-4.92
-12.80
-20.35
-27.37
-33.76
-39.52
-44.64
-48.94
-51.98
-53.12
-51.69
-47.42
-40.61
-32.21
-23.55
-15.84
-9.85
-5.66
-2.88
-0.99
0.45
1.61
2.55
3.35
4.25
5.52
7.34
9.69
12.28
14.72
16.69
18.02
18.74
18.97
18.81
18.30
17.38
16.02
14.23
12.18
10.06
8.08
6.34
4.87
3.62
2.58
1.79
1.34
1.28
1.55
1.98
2.32
2.29
1.73
0.58
-1.11
-3.15
-5.32
-7.39
-9.18
-10.57
-11.49
-11.91
-11.87
-11.41
-10.67
-9.83
-9.13
-8.75
-8.76
-9.14
-9.76
-10.52
-11.36
-12.25
-13.05
-13.50
-13.20
-11.83
-9.34
-6.13
-2.96
-0.71
-0.04
-1.20
-4.02
-8.03
-12.59
-17.07
-20.75
-22.92
-22.97
-20.55
-15.79
-9.32
-2.10
4.87
10.86
15.54
19.00
21.52
23.43
25.00
26.36
27.60
28.79
30.02
31.41
33.12
35.33
38.17
41.68
45.67
49.72
53.15
55.11
54.77
51.60
45.50
36.89
26.60
15.73
5.32
-3.83
-11.32
-17.14
-21.60
-25.17
-28.33
-31.29
-34.00
-36.14
-37.27
-37.06
-35.42
-32.61
-29.10
-25.40
-21.93
-18.87
-16.21
-13.88
-11.80
-9.93
-8.26
-6.77
-5.44
-4.22
-3.11
-2.12
-1.28
-0.64
-0.23
-0.07
-0.11
-0.28
-0.49
-0.68
-0.84
-1.01
-1.31
-1.84
-2.66
-3.75
-5.00
-6.26
-7.44
-8.47
-9.39
-10.25
-11.17
-12.28
-13.64
-15.25
-17.02
-18.68
-19.88
-20.22
-19.43
-17.44
-14.43
-10.79
-7.00
-3.50
-0.55
1.76
3.49
4.82
5.88
6.81
7.66
8.42
9.04
9.45
9.66
9.71
9.72
9.80
9.96
10.12
10.04
9.44
8.12
6.01
3.21
-0.03
-3.46
-6.84
-10.06
-13.07
-15.84
-18.36
-20.65
-22.71
-24.63
-26.50
-28.37
-30.23
-32.02
-33.67
-35.20
-36.65
-38.14
-39.69
-41.29
-42.86
-44.29
-45.50
-46.40
-46.86
-46.72
-45.79
-43.93
-41.13
-37.47
-33.03
-27.85
-21.86
-14.97
-7.20
1.29
10.17
19.10
27.74
35.82
43.07
49.09
53.43
55.60
55.32
52.68
48.09
42.28
36.08
30.22
25.17
21.14
18.08
15.79
14.02
12.53
11.15
9.74
8.23
6.61
4.88
3.12
1.38
-0.28
-1.85
-3.31
-4.67
-5.90
-6.96
-7.86
-8.65
-9.44
-10.44
-11.79
-13.63
-15.96
-18.72
-21.71
-24.61
-27.01
-28.46
-28.58
-27.21
-24.40
-20.45
-15.77
-10.81
-5.92
-1.35
2.73
6.25
9.17
11.49
13.27
14.58
15.54
16.32
17.06
17.90
18.93
20.14
21.41
22.56
23.38
23.75
23.64
23.14
22.38
21.52
20.67
19.89
19.18
18.49
17.73
16.77
15.46
13.74
11.62
9.25
6.86
4.66
2.74
1.04
-0.63
-2.52
-4.79
-7.50
-10.56
-13.66
-16.45
-18.45
-19.25
-18.54
-16.30
-12.75
-8.35
-3.64
0.94
5.14
8.88
12.16
14.95
17.17
18.67
19.44
19.56
19.31
18.98
18.79
18.81
18.94
19.03
18.97
18.75
18.40
18.02
17.61
17.15
16.56
15.77
14.72
13.42
11.88
10.15
8.28
6.32
4.33
2.35
0.41
-1.53
-3.52
-5.65
-7.99
-10.62
-13.53
-16.61
-19.58
-22.04
-23.54
-23.69
-22.37
-19.69
-16.02
-11.82
-7.52
-3.41
0.33
3.64
6.48
8.84
10.70
12.01
12.80
13.10
13.02
12.71
12.37
12.20
12.26
12.52
12.84
13.04
13.00
12.67
12.07
11.29
10.37
9.35
8.29
7.21
6.13
5.06
3.96
2.80
1.56
0.25
-1.12
-2.52
-3.96
-5.48
-7.12
-8.94
-10.93
-13.04
-15.11
-16.84
-17.86
-17.80
-16.43
-13.76
-10.06
-5.77
-1.40
2.65
6.13
8.99
11.23
12.88
13.95
14.43
14.40
13.99
13.39
12.80
12.36
12.12
12.05
12.07
12.06
11.95
11.69
11.27
10.70
10.01
9.21
8.33
7.37
6.31
5.13
3.84
2.41
0.87
-0.74
-2.37
-3.95
-5.48
-6.98
-8.53
-10.22
-12.08
-14.10
-16.20
-18.21
-19.93
-21.11
-21.49
-20.86
-19.16
-16.49
-13.09
-9.30
-5.45
-1.79
1.48
4.27
6.48
8.02
8.84
8.93
8.41
7.48
6.45
5.62
5.26
5.48
6.25
7.36
8.52
9.46
10.00
10.08
9.79
9.27
8.66
8.10
7.69
7.47
7.41
7.48
7.59
7.70
7.76
7.76
7.65
7.38
6.89
6.14
5.12
3.89
2.51
1.04
-0.47
-2.01
-3.56
-5.10
-6.58
-7.99
-9.37
-10.80
-12.37
-14.13
-15.99
-17.76
-19.11
-19.68
-19.20
-17.55
-14.85
-11.44
-7.74
-4.15
-0.92
1.85
4.17
6.05
7.43
8.24
8.45
8.16
7.62
7.11
6.83
6.82
6.95
7.02
6.86
6.43
5.80
5.13
4.55
4.14
3.87
3.65
3.32
2.71
1.73
0.36
-1.28
-3.00
-4.64
-6.11
-7.42
-8.65
-9.92
-11.36
-13.04
-14.94
-16.94
-18.76
-20.00
-20.26
-19.31
-17.16
-14.09
-10.50
-6.82
-3.39
-0.40
2.06
3.97
5.32
6.15
6.52
6.59
6.49
6.37
6.28
6.19
6.00
5.61
4.98
4.22
3.51
3.02
2.83
2.87
2.96
2.86
2.44
1.66
0.57
-0.74
-2.16
-3.57
-4.89
-6.10
-7.28
-8.63
-10.33
-12.51
-15.02
-17.51
-19.44
-20.32
-19.87
-18.07
-15.20
-11.69
-7.98
-4.46
-1.30
1.42
3.73
5.67
7.22
8.32
8.93
9.08
8.86
8.45
8.04
7.74
7.57
7.49
7.41
7.28
7.11
6.91
6.69
6.42
6.02
5.40
4.50
3.30
1.86
0.25
-1.46
-3.18
-4.86
-6.48
-8.05
-9.68
-11.49
-13.59
-15.94
-18.28
-20.18
-21.13
-20.73
-18.86
-15.73
-11.78
-7.53
-3.44
0.20
3.26
5.73
7.60
8.87
9.57
9.76
9.58
9.20
8.79
8.50
8.39
8.46
8.64
8.87
9.04
9.11
9.06
8.89
8.60
8.16
7.51
6.60
5.39
3.92
2.26
0.54
-1.12
-2.65
-4.04
-5.33
-6.64
-8.06
-9.73
-11.69
-13.88
-16.10
-18.01
-19.22
-19.41
-18.42
-16.31
-13.31
-9.74
-5.90
-2.06
1.58
4.88
7.71
9.92
11.42
12.17
12.26
11.88
11.31
10.79
10.51
10.55
10.84
11.26
11.67
11.97
12.10
12.05
11.86
11.56
11.16
10.69
10.13
9.47
8.71
7.82
6.79
5.62
4.31
2.92
1.49
0.10
-1.26
-2.63
-4.12
-5.78
-7.68
-9.83
-12.25
-14.91
-17.67
-20.27
-22.27
-23.22
-22.76
-20.81
-17.59
-13.54
-9.13
-4.74
-0.60
3.12
6.31
8.78
10.30
10.76
10.17
8.82
7.14
5.68
4.87
4.94
5.79
7.09
8.40
9.37
9.77
9.62
9.04
8.18
7.19
6.15
5.09
4.01
2.84
1.52
-0.01
-1.77
-3.73
-5.77
-7.73
-9.42
-10.69
-11.47
-11.82
-11.93
-12.09
-12.53
-13.32
-14.32
-15.17
-15.44
-14.79
-13.13
-10.60
-7.50
-4.10
-0.56
3.09
6.88
10.77
14.54
17.86
20.38
21.90
22.50
22.44
22.12
21.83
21.63
21.40
20.89
19.89
18.37
16.52
14.66
13.15
12.19
11.81
11.79
11.84
11.66
11.05
10.00
8.63
7.11
5.58
4.02
2.32
0.31
-2.16
-5.13
-8.48
-11.95
-15.16
-17.67
-19.13
-19.34
-18.36
-16.45
-14.01
-11.41
-8.90
-6.57
-4.43
-2.48
-0.81
0.51
1.42
2.00
2.43
2.91
3.56
4.39
5.25
5.99
6.50
6.80
6.97
7.10
7.24
7.33
7.24
6.86
6.10
4.95
3.47
1.77
0.03
-1.58
-2.95
-4.14
-5.33
-6.84
-8.96
-11.79
-15.16
-18.59
-21.49
-23.31
-23.69
-22.60
-20.28
-17.15
-13.74
-10.58
-8.03
-6.28
-5.32
-4.97
-5.04
-5.37
-5.87
-6.46
-7.03
-7.37
-7.26
-6.51
-5.08
-3.05
-0.62
2.06
4.84
7.64
10.36
12.81
14.71
15.71
15.48
13.81
10.61
5.94
-0.07
-7.19
-15.15
-23.59
-32.03
-39.86
-46.38
-50.89
-52.86
-52.09
-48.76
-43.44
-36.87
-29.81
-22.86
-16.38
-10.57
-5.53
-1.41
1.67
3.68
4.74
5.18
5.35
5.56
5.97
6.57
7.26
7.96
8.59
9.12
9.48
9.53
9.19
8.41
7.26
5.90
4.51
3.23
2.09
1.05
0.02
-1.10
-2.41
-3.98
-5.75
-7.52
-8.94
-9.58
-9.14
-7.50
-4.83
-1.47
2.21
5.94
9.60
13.08
16.27
18.99
21.02
22.24
22.66
22.44
21.87
21.18
20.56
20.07
19.70
19.41
19.15
18.88
18.55
18.14
17.60
16.89
15.93
14.64
12.97
10.88
8.42
5.63
2.59
-0.64
-4.08
-7.73
-11.59
-15.56
-19.42
-22.78
-25.16
-26.12
-25.37
-22.88
-18.91
-13.94
-8.57
-3.33
1.39
5.42
8.76
11.49
13.70
15.43
16.64
17.35
17.65
17.75
17.94
18.45
19.36
20.55
21.73
22.59
22.94
22.71
22.01
20.98
19.70
18.19
16.44
14.43
12.16
9.69
7.07
4.33
1.47
-1.55
-4.78
-8.24
-11.78
-15.12
-17.85
-19.59
-20.08
-19.34
-17.61
-15.30
-12.76
-10.29
-8.03
-6.08
-4.51
-3.38
-2.71
-2.45
-2.43
-2.45
-2.34
-1.99
-1.38
-0.56
0.37
1.30
2.16
2.90
3.52
4.07
4.52
4.83
4.88
4.53
3.69
2.34
0.51
-1.76
-4.42
-7.42
-10.62
-13.75
-16.39
-18.14
-18.67
-17.89
-15.93
-13.11
-9.80
-6.33
-2.93
0.22
3.00
5.29
7.00
8.08
8.53
8.44
7.96
7.31
6.66
6.18
5.96
6.00
6.25
6.57
6.77
6.67
6.17
5.30
4.25
3.30
2.67
2.44
2.47
2.49
2.17
1.29
-0.17
-2.07
-4.08
-5.84
-6.98
-7.25
-6.50
-4.77
-2.27
0.65
3.60
6.24
8.38
9.97
11.09
11.81
12.16
12.15
11.77
11.10
10.30
9.52
8.89
8.44
8.09
7.76
7.35
6.81
6.09
5.17
3.97
2.48
0.72
-1.22
-3.13
-4.79
-5.96
-6.50
-6.34
-5.59
-4.43
-3.06
-1.58
0.07
2.04
4.48
7.42
10.63
13.71
16.19
17.71
18.11
17.45
15.93
13.81
11.37
8.86
6.54
4.66
3.40
2.79
2.68
2.83
3.01
3.10
3.08
3.02
2.94
2.79
2.50
1.99
1.28
0.40
-0.69
-2.16
-4.28
-7.31
-11.29
-16.02
-20.97
-25.47
-28.86
-30.64
-30.60
-28.78
-25.49
-21.20
-16.39
-11.51
-6.88
-2.70
0.92
3.92
6.25
7.84
8.69
8.87
8.53
7.86
7.08
6.34
5.75
5.37
5.19
5.18
5.32
5.54
5.74
5.80
5.59
5.00
4.04
2.76
1.32
-0.11
-1.41
-2.55
-3.59
-4.69
-6.05
-7.81
-9.95
-12.28
-14.38
-15.77
-16.01
-14.90
-12.56
-9.37
-5.86
-2.49
0.45
2.90
4.89
6.50
7.73
8.54
8.93
8.98
8.84
8.71
8.70
8.80
8.88
8.78
8.42
7.79
7.03
6.25
5.53
4.83
4.04
3.02
1.72
0.17
-1.46
-2.98
-4.22
-5.13
-5.78
-6.39
-7.19
-8.39
-10.06
-12.09
-14.18
-15.91
-16.87
-16.76
-15.46
-13.12
-10.05
-6.64
-3.29
-0.28
2.23
4.19
5.65
6.68
7.38
7.80
8.00
8.00
7.88
7.72
7.61
7.59
7.65
7.70
7.61
7.31
6.81
6.21
5.62
5.15
4.79
4.43
3.90
3.08
1.94
0.58
-0.83
-2.10
-3.17
-4.08
-5.00
-6.12
-7.58
-9.44
-11.60
-13.85
-15.87
-17.31
-17.86
-17.31
-15.67
-13.15
-10.07
-6.82
-3.65
-0.74
1.86
4.10
5.88
7.14
7.85
8.09
8.04
7.89
7.76
7.70
7.66
7.56
7.37
7.12
6.87
6.67
6.51
6.35
6.13
5.78
5.29
4.70
4.05
3.38
2.69
1.95
1.06
-0.05
-1.37
-2.80
-4.19
-5.42
-6.47
-7.44
-8.46
-9.64
-11.01
-12.51
-14.07
-15.59
-16.97
-18.02
-18.50
-18.12
-16.72
-14.32
-11.17
-7.72
-4.38
-1.48
0.87
2.72
4.16
5.24
5.95
6.27
6.21
5.90
5.55
5.38
5.49
5.85
6.31
6.68
6.81
6.69
6.37
5.96
5.51
5.05
4.52
3.86
3.01
2.00
0.88
-0.26
-1.36
-2.41
-3.42
-4.45
-5.55
-6.77
-8.14
-9.69
-11.42
-13.33
-15.36
-17.32
-18.99
-20.06
-20.30
-19.52
-17.71
-14.94
-11.47
-7.60
-3.70
-0.08
3.00
5.47
7.35
8.72
9.70
10.34
10.68
10.75
10.58
10.22
9.78
9.33
8.95
8.71
8.64
8.70
8.84
8.95
8.94
8.73
8.28
7.63
6.83
5.89
4.81
3.55
2.12
0.57
-0.97
-2.37
-3.55
-4.56
-5.49
-6.49
-7.69
-9.14
-10.85
-12.81
-14.98
-17.26
-19.44
-21.23
-22.20
-22.00
-20.44
-17.56
-13.69
-9.29
-4.86
-0.76
2.80
5.77
8.19
10.09
11.50
12.42
12.87
12.94
12.76
12.46
12.15
11.85
11.56
11.24
10.89
10.56
10.28
10.08
9.94
9.78
9.50
9.03
8.33
7.44
6.46
5.48
4.57
3.74
2.89
1.88
0.61
-0.96
-2.72
-4.49
-6.07
-7.34
-8.34
-9.23
-10.27
-11.65
-13.46
-15.65
-17.98
-20.11
-21.59
-21.99
-21.04
-18.67
-15.09
-10.72
-6.04
-1.49
2.66
6.25
9.23
11.54
13.14
14.01
14.23
13.98
13.51
13.07
12.78
12.66
12.61
12.54
12.41
12.23
12.06
11.96
11.86
11.65
11.18
10.40
9.40
8.34
7.37
6.57
5.81
4.91
3.71
2.15
0.33
-1.58
-3.41
-5.11
-6.69
-8.19
-9.64
-11.03
-12.35
-13.68
-15.17
-16.95
-19.02
-21.12
-22.79
-23.48
-22.80
-20.66
-17.33
-13.32
-9.14
-5.17
-1.56
1.68
4.61
7.20
9.35
10.90
11.74
11.89
11.50
10.84
10.19
9.76
9.64
9.77
9.99
10.14
10.15
10.01
9.83
9.65
9.49
9.23
8.75
7.96
6.86
5.52
4.07
2.61
1.22
-0.09
-1.31
-2.44
-3.52
-4.59
-5.75
-7.10
-8.75
-10.78
-13.18
-15.83
-18.42
-20.52
-21.60
-21.27
-19.39
-16.19
-12.12
-7.74
-3.54
0.23
3.50
6.31
8.67
10.58
11.98
12.83
13.19
13.14
12.81
12.31
11.77
11.26
10.88
10.68
10.69
10.84
11.03
11.12
10.97
10.50
9.73
8.74
7.65
6.57
5.54
4.52
3.42
2.17
0.74
-0.81
-2.38
-3.90
-5.36
-6.83
-8.42
-10.20
-12.17
-14.28
-16.44
-18.52
-20.36
-21.70
-22.19
-21.55
-19.61
-16.45
-12.43
-8.04
-3.74
0.13
3.44
6.15
8.28
9.82
10.75
11.08
10.94
10.53
10.10
9.82
9.79
9.93
10.14
10.30
10.36
10.34
10.29
10.21
10.07
9.80
9.34
8.70
7.91
7.04
6.13
5.14
4.04
2.80
1.42
-0.06
-1.54
-2.97
-4.30
-5.56
-6.81
-8.18
-9.77
-11.65
-13.76
-15.90
-17.71
-18.77
-18.74
-17.45
-15.01
-11.71
-7.96
-4.12
-0.44
2.93
5.95
8.53
10.61
12.11
13.03
13.46
13.55
13.44
13.22
12.94
12.59
12.17
11.68
11.21
10.82
10.56
10.41
10.27
10.00
9.48
8.68
7.67
6.58
5.56
4.68
3.92
3.17
2.33
1.30
0.08
-1.32
-2.80
-4.29
-5.70
-7.02
-8.26
-9.58
-11.15
-13.13
-15.49
-17.98
-20.18
-21.59
-21.84
-20.81
-18.59
-15.49
-11.86
-8.04
-4.27
-0.73
2.40
5.01
6.96
8.19
8.72
8.65
8.17
7.54
6.96
6.62
6.58
6.78
7.09
7.39
7.57
7.59
7.50
7.35
7.19
6.99
6.71
6.23
5.48
4.44
3.18
1.82
0.51
-0.67
-1.71
-2.65
-3.60
-4.64
-5.83
-7.18
-8.70
-10.36
-12.15
-14.04
-15.95
-17.67
-18.85
-19.14
-18.28
-16.22
-13.21
-9.70
-6.16
-2.96
-0.24
2.02
3.90
5.45
6.66
7.51
7.97
8.11
8.05
7.90
7.81
7.88
8.19
8.77
9.57
10.45
11.21
11.67
11.70
11.30
10.53
9.46
8.15
6.60
4.82
2.82
0.67
-1.54
-3.69
-5.71
-7.55
-9.15
-10.49
-11.51
-12.26
-12.85
-13.49
-14.39
-15.61
-17.04
-18.33
-19.04
-18.80
-17.44
-15.09
-12.08
-8.78
-5.49
-2.34
0.68
3.58
6.32
8.76
10.66
11.84
12.30
12.26
12.18
12.58
13.91
16.37
19.86
24.06
28.55
32.99
37.21
41.13
44.64
47.60
49.80
51.08
51.37
50.60
48.56
44.82
38.95
30.90
21.41
12.02
4.66
0.73
0.43
2.57
5.07
5.94
4.15
-0.01
-5.31
-10.30
-13.93
-15.88
-16.38
-15.81
-14.49
-12.56
-10.18
-7.63
-5.35
-3.77
-3.14
-3.41
-4.25
-5.27
-6.12
-6.67
-6.97
-7.16
-7.39
-7.74
-8.26
-8.92
-9.67
-10.37
