1651146255.00
64.000000
-0.00
-0.00
-0.00
-0.00
-0.00
-0.00
-0.00
-0.00
-0.00
-0.00
0.00
0.01
0.01
-0.00
-0.03
-0.05
-0.05
0.00
0.13
0.36
0.66
1.01
1.37
1.72
2.06
2.40
2.79
3.24
3.80
4.42
5.06
5.66
6.20
6.68
7.15
7.68
8.31
9.14
10.09
11.04
11.88
12.56
13.14
13.76
14.65
15.96
17.91
20.32
22.90
25.38
27.58
29.57
31.68
34.32
37.82
42.54
48.15
54.10
59.83
64.96
69.58
74.16
79.38
85.76
93.81
103.00
112.51
121.48
129.35
136.19
142.65
150.06
157.10
165.99
177.29
191.06
206.12
219.57
227.13
224.18
207.37
175.76
131.69
78.91
21.74
-36.59
-94.44
-151.45
-207.65
-262.74
-315.98
-366.06
-412.24
-453.92
-490.44
-520.71
-543.08
-555.54
-556.29
-544.43
-520.12
-484.95
-441.26
-391.61
-338.23
-282.83
-226.65
-170.83
-116.70
-65.76
-19.67
20.28
53.53
80.38
101.75
118.83
132.59
143.46
151.45
156.18
157.20
154.14
147.03
136.65
124.93
114.86
109.85
112.47
123.24
140.06
158.69
174.30
183.15
183.85
177.36
166.10
152.63
138.77
125.44
113.00
101.69
91.81
83.50
76.48
69.97
63.11
54.97
45.31
34.71
24.41
15.78
9.81
6.73
6.01
6.61
7.38
7.58
6.94
5.70
4.26
3.01
2.08
1.33
0.55
-0.45
-1.65
-2.82
-3.74
-4.25
-4.37
-4.22
-3.98
-3.80
-3.77
-3.90
-4.15
-4.40
-4.49
-4.25
-3.60
-2.65
-1.69
-1.09
-1.12
-1.75
-2.71
-3.64
-4.29
-4.66
-4.91
-5.21
-5.63
-6.05
-6.30
-6.25
-5.97
-5.59
-5.29
-5.10
-5.02
-4.90
-4.61
-4.07
-3.25
-2.22
-1.15
-0.26
0.27
0.37
0.21
0.08
0.32
1.16
2.59
4.37
6.17
7.65
8.60
9.02
9.03
8.83
8.62
8.48
8.38
8.22
7.91
7.45
6.99
6.75
6.88
7.40
8.15
8.87
9.31
9.35
9.02
8.46
7.82
7.23
6.64
5.96
5.15
4.16
3.00
1.73
0.47
-0.67
-1.63
-2.40
-3.12
-3.92
-4.94
-6.17
-7.45
-8.52
-9.11
-9.07
-8.43
-7.40
-6.30
-5.44
-5.07
-5.33
-6.19
-7.49
-9.01
-10.49
-11.67
-12.49
-13.13
-14.02
-15.75
-18.81
-23.33
-28.98
-35.01
-40.39
-44.33
-46.52
-47.13
-46.65
-45.61
-44.40
-43.19
-41.90
-40.05
-37.16
-32.93
-27.50
-21.68
-16.72
-13.82
-13.37
-14.43
-14.79
-12.17
-5.43
4.81
16.54
27.45
36.20
43.11
48.21
52.48
56.56
60.19
62.46
62.58
60.59
57.50
54.64
52.77
51.72
50.22
46.59
39.77
29.85
18.12
6.42
-3.70
-11.45
-16.69
-19.76
-21.08
-20.87
-19.20
-16.22
-12.33
-8.18
-4.54
-1.85
-0.14
1.06
2.59
5.46
10.36
17.30
25.46
33.34
39.21
41.54
39.40
32.71
22.20
9.23
-4.43
-16.99
-27.08
-33.96
-37.79
-39.48
-40.28
-41.22
-42.74
-44.62
-46.19
-46.78
-46.00
-43.92
-40.93
-37.53
-34.17
-31.07
-28.23
-25.42
-22.39
-18.93
-15.05
-11.06
-7.44
-4.68
-3.07
-2.57
-2.86
-3.54
-4.38
-5.44
-7.01
-9.42
-12.81
-16.91
-21.13
-24.65
-26.70
-26.75
-24.62
-20.45
-14.59
-7.44
0.63
9.28
18.11
26.70
34.59
41.39
46.87
51.02
54.00
56.09
57.55
58.54
59.13
59.35
59.24
58.89
58.45
58.07
57.82
57.66
57.42
56.91
55.95
54.48
52.52
50.13
47.30
43.99
40.21
36.10
31.91
27.78
23.57
18.68
12.24
3.50
-7.75
-20.80
-34.19
-46.14
-55.15
-60.45
-62.09
-60.74
-57.18
-52.07
-45.85
-38.79
-31.18
-23.48
-16.15
-9.57
-3.95
0.58
3.88
5.70
5.87
4.43
1.77
-1.28
-3.72
-4.60
-3.40
-0.20
4.44
9.69
14.83
19.18
22.30
23.96
24.07
22.74
20.22
17.03
13.91
11.62
10.28
9.69
9.60
10.27
12.44
16.88
23.86
32.85
42.55
50.63
55.36
56.31
54.96
53.68
54.21
57.00
61.29
65.84
68.27
66.67
59.92
48.63
34.74
20.70
8.98
1.51
-1.13
-2.07
-6.23
-19.03
-43.08
-77.34
-118.19
-160.97
-201.60
-227.23
-227.97
-201.83
-158.16
-109.95
-66.06
-29.41
0.66
25.44
45.54
56.68
57.91
48.58
30.72
8.28
-15.02
-36.87
-57.11
-77.68
-103.53
-135.08
-174.30
-221.81
-276.91
-337.84
-401.16
-461.03
-509.54
-539.46
-545.97
-529.79
-495.76
-451.33
-403.99
-358.97
-318.14
-280.91
-246.35
-214.06
-185.10
-160.06
-138.25
-117.73
-96.15
-71.83
-44.52
-15.59
12.70
37.88
58.79
75.94
91.10
106.54
124.01
144.08
166.02
188.20
208.81
226.76
242.19
256.25
270.53
286.49
305.01
326.49
350.85
377.38
404.43
429.15
447.74
456.41
452.65
436.29
409.53
376.04
339.55
302.70
266.85
232.65
200.91
173.02
150.62
134.72
124.95
119.54
115.90
111.65
105.47
97.25
87.90
78.52
69.88
62.05
54.58
46.83
38.41
29.44
20.46
12.21
5.24
-0.25
-4.51
-7.97
-11.00
-13.67
-15.75
-16.90
-16.93
-16.02
-14.69
-13.57
-13.11
-13.38
-14.16
-15.08
-15.87
-16.60
-17.65
-19.50
-22.50
-26.69
-31.73
-37.09
-42.27
-47.04
-51.44
-55.73
-60.09
-64.45
-68.36
-71.13
-72.00
-70.42
-66.15
-59.38
-50.64
-40.69
-30.36
-20.42
-11.46
-3.91
2.00
6.23
8.89
10.25
10.64
10.36
9.59
8.42
6.87
4.98
2.88
0.74
-1.32
-3.25
-5.12
-7.02
-8.96
-10.88
-12.70
-14.40
-16.10
-18.01
-20.33
-23.18
-26.60
-30.50
-34.72
-39.10
-43.40
-47.45
-51.08
-54.03
-56.06
-57.20
-57.40
-56.55
-54.68
-52.04
-49.06
-46.15
-43.33
-40.34
-36.89
-32.53
-26.75
-19.31
-10.27
0.03
11.01
22.16
32.59
40.65
45.11
45.79
43.31
38.89
33.87
29.14
25.80
24.16
22.46
19.70
16.37
13.17
10.66
9.00
7.94
8.96
13.12
17.72
21.21
24.18
26.99
29.83
32.72
35.60
41.30
51.79
62.61
70.81
77.05
82.32
88.05
95.93
107.62
127.62
157.84
190.22
217.87
238.98
253.70
264.80
276.82
270.07
233.21
202.67
191.27
185.82
179.70
168.39
149.60
122.36
86.96
47.43
6.83
-39.69
-94.30
-153.74
-214.14
-271.32
-322.26
-365.54
-396.56
-409.73
-406.51
-389.66
-360.88
-322.88
-278.13
-232.56
-185.53
-135.22
-80.93
-26.99
21.96
62.16
85.14
83.99
56.65
9.12
-45.60
-91.67
-118.64
-123.70
-111.46
-91.45
-72.02
-56.55
-43.11
-28.40
-10.49
7.88
21.51
26.53
23.29
17.97
19.68
35.75
65.29
101.12
132.25
150.12
152.23
140.87
120.51
95.50
71.53
48.88
28.82
12.90
1.91
-5.21
-11.51
-21.06
-37.25
-63.01
-98.27
-138.18
-175.07
-201.11
-211.41
-206.11
-190.16
-165.06
-137.45
-114.01
-96.65
-83.01
-70.15
-58.01
-48.74
-43.90
-42.33
-42.09
-40.15
-35.53
-30.58
-29.05
-34.16
-46.66
-64.24
-82.86
-99.20
-109.75
-111.75
-103.49
-83.71
-53.33
-15.72
23.89
59.82
87.34
104.83
113.83
117.89
122.29
130.31
142.69
158.66
177.27
197.94
220.89
246.23
273.10
300.96
326.36
343.46
346.16
330.42
295.89
246.38
188.33
118.20
41.95
-29.87
-88.04
-129.04
-154.24
-167.95
-173.97
-174.79
-172.96
-169.25
-165.22
-161.65
-158.93
-156.87
-155.10
-153.43
-151.97
-150.68
-147.16
-139.26
-126.07
-105.93
-79.47
-49.95
-22.06
0.23
14.85
22.80
27.93
31.09
32.30
31.64
29.97
28.84
30.23
33.77
39.77
47.53
55.16
60.85
63.22
61.88
57.46
51.27
44.59
38.71
34.11
30.37
26.96
23.39
19.48
15.44
11.80
8.94
7.21
6.48
6.12
5.65
4.70
3.13
1.04
-1.36
-3.81
-5.89
-7.10
-6.98
-5.05
-1.11
4.56
11.23
17.96
23.86
28.37
31.27
32.50
32.10
30.08
26.48
21.40
15.14
8.17
1.11
-5.53
-11.34
-16.16
-20.00
-23.01
-25.40
-27.40
-29.18
-30.79
-32.23
-33.41
-34.26
-34.73
-34.84
-34.66
-34.28
-33.73
-33.03
-32.20
-31.34
-30.61
-30.23
-30.38
-31.08
-32.14
-33.20
-33.78
-33.42
-31.88
-29.18
-25.66
-21.83
-18.21
-15.14
-12.81
-11.26
-10.54
-10.70
-11.88
-14.14
-17.34
-21.03
-24.56
-27.45
-29.61
-31.61
-34.48
-39.40
-47.15
-57.78
-70.43
-83.41
-94.62
-101.87
-103.16
-96.75
-81.60
-57.62
-26.07
10.56
49.07
85.99
118.52
145.06
165.27
179.43
187.94
191.19
189.76
184.57
176.46
166.18
154.45
142.22
130.40
119.72
110.36
101.62
91.83
78.16
58.07
30.72
-2.18
-37.62
-72.57
-105.44
-136.44
-162.80
-180.92
-188.51
-186.58
-178.43
-167.66
-156.11
-143.73
-129.17
-110.79
-88.44
-63.81
-41.22
-22.80
-10.43
-4.81
-5.10
-8.64
-11.21
-8.27
3.82
26.61
57.52
89.10
112.32
120.87
114.12
96.81
76.01
57.49
43.46
32.87
23.24
13.27
4.04
-1.79
-1.96
3.81
13.41
23.27
30.14
32.35
30.51
26.88
24.36
23.95
25.18
26.51
26.29
23.63
18.87
13.43
9.02
6.80
6.69
7.76
8.57
7.70
3.96
-3.25
-13.79
-26.82
-40.08
-51.52
-59.49
-63.27
-63.20
-60.64
-57.05
-53.44
-50.06
-46.58
-42.77
-38.53
-34.90
-31.77
-29.14
-26.80
-24.32
-21.24
-17.36
-13.00
-8.71
-5.11
-2.55
-1.14
-0.51
0.07
1.36
3.95
7.91
12.88
18.21
23.31
27.47
30.29
31.81
32.36
32.39
32.13
31.54
30.31
28.09
24.62
20.04
14.93
10.13
6.55
4.83
5.04
6.64
8.60
9.68
8.93
6.00
1.26
-4.43
-10.09
-15.09
-19.36
-23.41
-28.14
-34.28
-42.14
-51.16
-59.96
-66.66
-69.71
-68.58
-64.35
-59.45
-56.80
-58.87
-66.49
-78.39
-91.48
-102.14
-107.37
-105.90
-98.43
-86.85
-73.69
-60.75
-48.20
-34.58
-17.84
3.95
31.51
63.90
98.91
132.78
161.35
181.32
190.82
189.42
178.76
161.92
142.56
124.02
107.24
91.13
73.87
53.81
30.39
5.54
-16.66
-34.23
-42.54
-38.91
-21.98
5.38
39.70
74.78
105.23
126.98
138.11
139.26
132.23
113.92
86.14
54.18
24.05
0.02
-16.77
-27.43
-32.50
-35.71
-39.71
-44.73
-49.76
-53.71
-55.80
-56.40
-56.25
-57.19
-61.45
-70.18
-82.35
-95.87
-108.48
-117.92
-123.86
-124.71
-119.12
-107.05
-89.49
-68.05
-45.04
-22.64
-3.59
10.24
18.67
22.48
22.93
21.56
19.84
18.61
17.99
17.65
17.28
17.00
16.92
17.07
17.47
18.10
18.89
19.83
21.02
22.74
25.28
28.33
30.95
31.92
30.24
25.70
19.24
12.59
7.78
6.35
8.64
13.90
20.82
28.17
35.29
42.04
48.45
54.39
59.36
62.60
63.53
62.02
58.51
53.71
48.27
42.47
36.28
29.57
22.36
15.02
8.20
2.47
-1.93
-5.28
-8.25
-11.51
-15.40
-19.70
-23.74
-26.79
-28.39
-28.58
-27.89
-27.01
-26.53
-26.80
-27.80
-29.38
-31.30
-33.35
-35.36
-37.21
-38.76
-39.98
-40.91
-41.65
-42.28
-42.77
-42.88
-42.21
-40.31
-36.90
-31.95
-25.71
-18.64
-11.28
-4.14
2.38
7.93
12.23
15.13
16.60
16.79
16.05
14.85
13.56
12.41
11.43
10.50
9.49
8.39
7.29
6.32
5.55
4.91
4.23
3.28
1.89
0.04
-2.12
-4.35
-6.41
-8.12
-9.42
-10.34
-11.02
-11.62
-12.34
-13.31
-14.58
-16.11
-17.77
-19.34
-20.57
-21.29
-21.41
-21.03
-20.31
-19.45
-18.52
-17.39
-15.81
-13.47
-10.21
-6.13
-1.55
3.05
7.23
10.66
13.24
14.98
15.97
16.23
15.73
14.39
12.18
9.17
5.61
1.85
-1.71
-4.78
-7.17
-8.82
-9.78
-10.18
-10.15
-9.89
-9.62
-9.63
-10.17
-11.41
-13.36
-15.76
-18.11
-19.79
-20.27
-19.31
-17.16
-14.45
-11.99
-10.51
-10.38
-11.58
-13.82
-16.63
-19.55
-22.08
-23.76
-24.13
-22.95
-20.27
-16.49
-12.31
-8.47
-5.57
-3.92
-3.49
-3.94
-4.70
-5.05
-4.33
-2.13
1.57
6.37
11.61
16.62
20.99
24.69
27.92
30.96
33.87
36.50
38.56
39.80
40.21
39.96
39.28
38.27
36.78
34.52
31.17
26.57
20.84
14.31
7.41
0.57
-5.91
-11.86
-17.23
-22.11
-26.62
-30.79
-34.49
-37.31
-38.67
-37.98
-34.89
-29.50
-22.35
-14.34
-6.40
0.69
6.44
10.69
13.43
14.77
14.83
13.75
11.71
8.97
5.85
2.66
-0.34
-3.02
-5.32
-7.26
-8.91
-10.26
-11.28
-11.80
-11.62
-10.49
-8.33
-5.29
-1.84
1.34
3.60
4.54
4.13
2.69
0.66
-1.65
-4.22
-7.30
-11.23
-16.25
-22.34
-29.07
-35.74
-41.40
-45.15
-46.28
-44.46
-39.83
-32.96
-24.69
-15.93
-7.39
0.44
7.38
13.42
18.63
23.04
26.64
29.35
31.10
31.84
31.65
30.68
29.22
27.55
26.01
24.92
24.54
24.96
26.12
27.73
29.36
30.57
31.02
30.57
29.28
27.31
24.77
21.71
18.11
13.99
9.54
5.08
0.97
-2.55
-5.49
-8.20
-11.22
-15.17
-20.47
-27.18
-34.94
-43.02
-50.46
-56.41
-60.26
-61.83
-61.37
-59.41
-56.65
-53.74
-51.03
-48.38
-45.11
-40.23
-32.75
-22.27
-9.20
5.15
18.98
30.58
38.94
44.01
46.60
47.98
49.36
51.53
54.74
58.72
62.96
66.95
70.32
72.92
74.72
75.75
76.01
75.51
74.26
72.39
70.02
67.22
63.88
59.74
54.48
47.88
39.99
31.17
22.01
13.12
4.90
-2.45
-8.93
-14.53
-19.10
-22.39
-24.17
-24.41
-23.33
-21.38
-18.93
-16.18
-13.01
-9.18
-4.58
0.63
6.00
10.96
15.10
18.35
20.96
23.35
25.87
28.64
31.48
34.03
35.94
37.06
37.54
37.75
38.15
39.02
40.33
41.70
42.60
42.60
41.54
39.51
36.77
33.50
29.72
25.37
20.42
15.06
9.67
4.63
0.17
-3.78
-7.54
-11.44
-15.67
-20.22
-24.87
-29.29
-33.16
-36.20
-38.19
-39.05
-38.83
-37.71
-36.02
-34.09
-32.25
-30.74
-29.76
-29.48
-30.02
-31.49
-33.86
-36.97
-40.55
-44.32
-48.00
-51.45
-54.66
-57.73
-60.83
-64.06
-67.41
-70.67
-73.49
-75.41
-76.04
-75.20
-72.95
-69.56
-65.32
-60.36
-54.57
-47.59
-38.96
-28.38
-15.96
-2.34
11.45
24.29
35.34
44.22
51.08
56.25
59.97
62.24
62.80
61.37
57.86
52.48
45.67
37.91
29.60
20.95
12.06
2.95
-6.33
-15.60
-24.47
-32.35
-38.51
-42.25
-43.07
-40.68
-34.98
-26.02
-14.12
-0.07
14.71
28.35
38.99
45.42
47.49
46.05
42.54
38.36
34.47
31.38
29.34
28.53
28.99
30.43
32.05
32.72
31.38
27.51
21.42
14.05
6.50
-0.49
-6.84
-13.05
-19.73
-27.19
-35.17
-42.91
-49.50
-54.30
-57.13
-58.23
-57.99
-56.74
-54.68
-51.99
-48.99
-46.03
-43.30
-40.54
-37.05
-32.08
-25.29
-17.14
-8.77
-1.54
3.65
6.72
8.29
9.22
10.12
11.11
11.98
12.47
12.55
12.41
12.23
12.06
11.73
10.97
9.60
7.66
5.34
2.83
0.17
-2.84
-6.52
-11.15
-16.77
-23.18
-29.98
-36.69
-42.90
-48.24
-52.35
-54.87
-55.46
-53.90
-50.22
-44.72
-37.95
-30.49
-22.88
-15.54
-8.80
-2.89
2.05
6.06
9.42
12.53
15.81
19.52
23.61
27.76
31.52
34.47
36.36
37.18
37.10
36.45
35.57
34.81
34.51
34.89
36.08
38.11
40.81
43.89
46.91
49.33
50.62
50.43
48.74
45.86
42.36
38.81
35.53
32.47
29.33
25.67
21.20
15.79
9.55
2.66
-4.58
-11.78
-18.39
-23.80
-27.41
-28.90
-28.32
-26.08
-22.85
-19.35
-16.15
-13.69
-12.24
-11.97
-12.93
-15.03
-18.06
-21.69
-25.64
-29.66
-33.63
-37.47
-41.06
-44.26
-46.73
-48.01
-47.50
-44.66
-39.15
-31.03
-20.78
-9.27
2.48
13.53
23.24
31.32
37.70
42.44
45.51
46.75
45.90
42.69
36.95
28.73
18.33
6.34
-6.39
-18.83
-29.88
-38.54
-44.10
-46.30
-45.34
-41.80
-36.41
-29.78
-22.41
-14.58
-6.55
1.37
8.79
15.34
20.78
25.00
28.06
30.10
31.28
31.78
31.74
31.30
30.57
29.67
28.70
27.80
27.13
26.82
26.92
27.32
27.81
28.06
27.77
26.67
24.57
21.36
17.08
11.89
6.09
0.04
-5.92
-11.57
-16.82
-21.71
-26.31
-30.64
-34.58
-37.89
-40.22
-41.22
-40.59
-38.10
-33.67
-27.34
-19.31
-9.91
0.37
10.92
21.07
30.16
37.65
43.24
46.90
48.87
49.48
49.11
47.99
46.28
44.02
41.24
38.08
34.80
31.72
29.08
26.90
24.98
22.86
20.15
16.59
12.29
7.63
3.13
-0.72
-3.67
-5.74
-7.16
-8.23
-9.21
-10.28
-11.48
-12.78
-14.13
-15.45
-16.68
-17.78
-18.75
-19.66
-20.63
-21.82
-23.30
-24.99
-26.53
-27.35
-26.81
-24.44
-20.14
-14.24
-7.40
-0.42
6.04
11.53
15.88
19.06
21.11
22.09
22.08
21.18
19.57
17.49
15.20
12.94
10.91
9.23
7.93
7.01
6.42
6.13
6.12
6.33
6.68
7.04
7.22
7.02
6.25
4.81
2.71
0.11
-2.77
-5.64
-8.32
-10.74
-12.98
-15.21
-17.62
-20.33
-23.38
-26.68
-30.05
-33.23
-35.86
-37.47
-37.63
-36.06
-32.71
-27.90
-22.13
-16.04
-10.15
-4.76
-0.02
4.06
7.51
10.34
12.53
14.09
15.05
15.46
15.36
14.80
13.86
12.64
11.34
10.14
9.20
8.53
8.01
7.46
6.73
5.79
4.74
3.77
2.99
2.40
1.86
1.16
0.15
-1.19
-2.77
-4.44
-6.08
-7.72
-9.47
-11.47
-13.84
-16.64
-19.80
-23.13
-26.32
-28.92
-30.47
-30.56
-28.98
-25.81
-21.35
-16.05
-10.40
-4.79
0.44
5.07
8.99
12.14
14.57
16.33
17.49
18.03
17.93
17.21
15.99
14.48
12.93
11.52
10.33
9.34
8.47
7.65
6.83
5.96
5.00
3.90
2.73
1.63
0.82
0.43
0.40
0.52
0.47
0.01
-0.94
-2.27
-3.83
-5.47
-7.17
-8.94
-10.81
-12.81
-15.00
-17.48
-20.31
-23.36
-26.18
-28.05
-28.15
-25.96
-21.50
-15.36
-8.47
-1.78
4.03
8.63
11.98
14.16
15.30
15.53
15.05
14.10
12.95
11.82
10.80
9.89
9.04
8.19
7.31
6.45
5.71
5.26
5.24
5.73
6.67
7.85
8.98
9.79
10.07
9.70
8.64
6.86
4.38
1.30
-2.16
-5.71
-9.02
-11.86
-14.24
-16.38
-18.66
-21.48
-25.12
-29.57
-34.46
-39.13
-42.72
-44.45
-43.78
-40.64
-35.37
-28.65
-21.29
-14.01
-7.39
-1.77
2.70
5.97
8.14
9.41
10.09
10.49
10.83
11.14
11.27
11.02
10.29
9.23
8.20
7.60
7.73
8.62
10.04
11.65
13.14
14.33
15.22
15.86
16.29
16.45
16.22
15.52
14.30
12.63
10.58
8.25
5.71
3.05
0.39
-2.20
-4.69
-7.23
-10.10
-13.60
-17.82
-22.44
-26.68
-29.50
-29.89
-27.30
-21.85
-14.28
-5.68
2.91
10.71
17.36
22.77
27.00
30.15
32.37
33.88
34.93
35.78
36.53
37.14
37.42
37.14
36.18
34.51
32.30
29.77
27.18
24.75
22.63
20.85
19.35
17.97
16.56
14.99
13.21
11.25
9.21
7.27
5.56
4.11
2.74
1.13
-1.12
-4.27
-8.29
-12.90
-17.65
-22.16
-26.27
-30.04
-33.73
-37.57
-41.74
-46.27
-51.02
-55.69
-59.79
-62.65
-63.55
-61.89
-57.39
-50.25
-41.17
-31.19
-21.46
-12.92
-6.05
-0.78
3.37
7.00
10.56
14.13
17.47
20.25
22.22
23.39
23.95
24.14
24.13
23.99
23.71
23.32
22.88
22.47
22.10
21.67
21.01
19.96
18.47
16.63
14.61
12.66
10.96
9.64
8.69
8.00
7.41
6.73
5.83
4.69
3.37
1.96
0.59
-0.69
-1.83
-2.82
-3.65
-4.31
-4.87
-5.46
-6.31
-7.63
-9.50
-11.71
-13.76
-14.99
-14.82
-12.98
-9.62
-5.22
-0.43
4.21
8.37
11.90
14.71
16.64
17.42
16.86
14.92
11.89
8.26
4.64
1.45
-1.12
-3.10
-4.66
-5.92
-6.85
-7.25
-6.87
-5.51
-3.22
-0.21
3.09
6.25
8.88
10.78
11.92
12.40
12.32
11.78
10.79
9.33
7.42
5.13
2.65
0.21
-1.95
-3.68
-4.93
-5.82
-6.57
-7.47
-8.83
-10.88
-13.71
-17.13
-20.66
-23.61
-25.32
-25.37
-23.85
-21.25
-18.32
-15.68
-13.60
-11.96
-10.38
-8.57
-6.43
-4.09
-1.72
0.61
2.97
5.48
8.14
10.77
13.09
14.91
16.23
17.28
18.41
19.87
21.72
23.73
25.49
26.52
26.43
25.00
22.24
18.41
13.94
9.44
5.53
2.80
1.61
1.97
3.53
5.58
7.29
7.99
7.37
5.57
3.10
0.58
-1.50
-2.92
-3.65
-3.82
-3.58
-3.17
-2.97
-3.47
-5.13
-8.13
-12.16
-16.34
-19.52
-20.70
-19.41
-15.91
-11.09
-6.06
-1.70
1.62
4.10
6.18
8.16
9.96
11.05
10.69
8.38
4.06
-1.74
-8.10
-13.92
-18.11
-19.84
-18.58
-14.25
-7.31
1.27
10.17
18.09
24.10
27.87
29.61
29.86
29.19
28.01
26.53
24.88
23.19
21.63
20.33
19.24
18.14
16.70
14.61
11.75
8.28
4.60
1.13
-1.83
-4.29
-6.52
-8.92
-11.76
-15.04
-18.44
-21.41
-23.32
-23.68
-22.25
-19.07
-14.52
-9.19
-3.80
0.96
4.57
6.78
7.59
7.29
6.24
4.82
3.35
2.06
1.10
0.51
0.24
0.09
-0.21
-0.93
-2.21
-3.96
-5.89
-7.58
-8.64
-8.86
-8.24
-7.00
-5.47
-3.95
-2.65
-1.74
-1.24
-1.16
-1.41
-1.89
-2.48
-3.11
-3.79
-4.60
-5.67
-7.07
-8.77
-10.69
-12.65
-14.56
-16.46
-18.50
-20.89
-23.84
-27.42
-31.55
-35.93
-40.03
-43.18
-44.70
-44.07
-41.11
-36.08
-29.61
-22.45
-15.29
-8.59
-2.53
2.83
7.47
11.30
14.25
16.33
17.65
18.40
18.72
18.59
17.88
16.47
14.36
11.83
9.28
7.18
5.79
5.14
5.03
5.15
5.25
5.22
5.02
4.72
4.35
3.97
3.61
3.29
2.97
2.49
1.63
0.18
-1.96
-4.62
-7.50
-10.20
-12.43
-14.11
-15.33
-16.26
-17.10
-17.96
-18.94
-20.12
-21.58
-23.28
-25.01
-26.33
-26.56
-25.09
-21.55
-16.03
-9.09
-1.59
5.60
11.84
16.85
20.68
23.56
25.71
27.29
28.33
28.86
28.86
28.41
27.61
26.60
25.47
24.29
23.11
21.93
20.82
19.89
19.24
18.94
18.95
19.10
19.20
19.02
18.42
17.37
15.91
14.16
12.24
10.28
8.35
6.49
4.67
2.82
0.86
-1.23
-3.49
-5.87
-8.39
-11.03
-13.81
-16.68
-19.53
-22.22
-24.61
-26.68
-28.48
-30.09
-31.44
-32.32
-32.32
-31.05
-28.28
-24.07
-18.75
-12.85
-6.89
-1.34
3.53
7.56
10.73
13.08
14.73
15.95
17.09
18.56
20.73
23.75
27.47
31.44
34.98
37.37
38.12
37.11
34.58
31.06
27.16
23.39
20.04
17.24
14.98
13.23
12.01
11.35
11.26
11.63
12.21
12.63
12.45
11.35
9.20
6.09
2.34
-1.66
-5.61
-9.35
-12.89
-16.32
-19.72
-23.11
-26.42
-29.48
-32.05
-33.89
-34.73
-34.37
-32.73
-29.91
-26.21
-22.00
-17.71
-13.62
-9.89
-6.52
-3.43
-0.51
2.29
4.96
7.36
9.31
10.63
11.24
11.18
10.62
9.77
8.83
7.95
7.18
6.54
5.96
5.39
4.75
3.94
2.90
1.64
0.26
-1.13
-2.38
-3.44
-4.37
-5.29
-6.30
-7.40
-8.51
-9.44
-10.05
-10.32
-10.35
-10.44
-10.88
-11.89
-13.49
-15.48
-17.45
-18.93
-19.50
-18.98
-17.42
-15.11
-12.44
-9.84
-7.57
-5.82
-4.58
-3.77
-3.30
-3.10
-3.17
-3.51
-4.13
-4.92
-5.66
-6.04
-5.75
-4.63
-2.76
-0.38
2.14
4.47
6.43
7.97
9.09
9.79
10.03
9.78
9.10
8.19
7.22
6.27
5.27
4.00
2.23
-0.11
-2.89
-5.79
-8.47
-10.72
-12.53
-14.05
-15.53
-17.20
-19.16
-21.33
-23.42
-24.91
-25.17
-23.61
-19.89
-14.05
-6.57
1.73
9.93
17.26
23.22
27.60
30.51
32.17
32.88
32.93
32.59
32.11
31.68
31.38
31.16
30.89
30.45
29.83
29.18
28.72
28.61
28.84
29.20
29.36
29.01
28.00
26.36
24.18
21.61
18.77
15.82
12.94
10.32
8.06
6.11
4.26
2.22
-0.27
-3.29
-6.76
-10.52
-14.40
-18.27
-22.03
-25.56
-28.68
-31.11
-32.55
-32.76
-31.58
-29.01
-25.24
-20.59
-15.48
-10.33
-5.45
-1.03
2.90
6.39
9.54
12.42
15.01
17.24
18.98
20.09
20.51
20.25
19.43
18.18
16.62
14.78
12.62
10.03
6.97
3.49
-0.23
-3.90
-7.31
-10.29
-12.81
-14.95
-16.77
-18.33
-19.59
-20.50
-21.03
-21.22
-21.18
-21.12
-21.23
-21.62
-22.27
-22.97
-23.30
-22.79
-20.99
-17.67
-12.83
-6.72
0.27
7.76
15.53
23.52
31.87
40.77
50.38
60.47
70.37
78.79
84.13
84.93
80.44
71.04
58.18
43.97
30.39
18.69
9.00
0.55
-7.96
-17.78
-29.80
-44.40
-61.50
-80.57
-100.64
-120.35
-138.16
-152.67
-163.01
-168.93
-170.84
-169.40
-165.26
-158.85
-150.46
-140.40
-129.19
-117.56
-106.29
-95.92
-86.70
-78.54
-71.26
-64.70
-58.82
-53.56
-48.75
-43.97
-38.65
-32.20
-24.16
-14.35
-2.87
9.98
23.72
37.69
51.08
63.01
72.74
80.03
85.27
89.54
94.20
100.43
108.72
118.67
129.11
138.44
145.10
147.90
146.23
140.20
130.56
118.55
105.58
92.96
81.57
71.76
63.46
56.36
50.04
44.03
37.90
31.22
23.76
15.56
6.96
-1.51
-9.29
-16.00
-21.48
-25.77
-28.91
-30.86
-31.54
-30.94
-29.30
-27.11
-25.07
-23.89
-24.01
-25.48
-27.90
-30.51
-32.50
-33.24
-32.48
-30.31
-27.04
-22.96
-18.29
-13.14
-7.59
-1.75
4.23
10.20
16.04
21.66
26.92
31.61
35.45
38.18
39.69
40.05
39.54
38.53
37.35
36.26
35.45
35.03
35.05
35.44
35.97
36.29
35.97
34.70
32.40
29.31
25.91
22.88
20.87
20.47
22.01
25.51
30.57
36.36
41.77
45.63
47.03
45.60
41.60
35.79
29.15
22.46
16.10
9.95
3.59
-3.46
-11.40
-20.04
-28.78
-36.81
-43.28
-47.59
-49.41
-48.74
-45.83
-41.14
-35.28
-29.00
-23.08
-18.19
-14.78
-13.00
-12.70
-13.53
-15.09
-17.04
-19.20
-21.49
-23.93
-26.57
-29.37
-32.14
-34.60
-36.39
-37.19
-36.86
-35.52
-33.52
-31.29
-29.20
-27.43
-25.85
-24.18
-22.04
-19.14
-15.28
-10.43
-4.70
1.62
8.02
13.81
18.28
20.92
21.54
20.33
17.69
13.99
9.38
3.81
-2.78
-10.24
-18.10
-25.74
-32.66
-38.63
-43.69
-47.96
-51.38
-53.70
-54.61
-53.94
-51.88
-48.85
-45.40
-41.94
-38.69
-35.77
-33.29
-31.42
-30.36
-30.16
-30.62
-31.31
-31.76
-31.55
-30.50
-28.68
-26.24
-23.29
-19.79
-15.50
-10.14
-3.57
3.99
11.97
19.38
25.19
28.55
29.18
27.48
24.38
20.94
18.05
16.31
15.89
16.63
18.15
19.96
21.61
22.68
22.79
21.72
19.63
16.87
13.90
11.11
8.65
6.64
5.01
3.57
2.25
1.60
2.25
4.52
8.29
12.87
18.00
23.47
29.01
34.46
40.46
47.40
54.92
62.00
66.97
69.58
70.01
68.48
65.62
63.59
64.10
67.67
73.36
78.67
82.74
85.18
85.63
84.98
86.54
93.20
106.22
124.58
144.74
164.91
183.71
199.80
201.90
184.17
149.50
109.03
81.52
66.62
60.48
59.18
56.58
50.30
41.28
30.43
17.94
2.94
-16.84
-39.59
-60.22
-80.69
-104.46
-129.67
-155.37
-180.90
-205.59
-229.06
-249.02
-263.99
-274.94
-283.02
-287.93
-288.47
-282.17
-266.89
-243.02
-213.10
-182.29
-157.40
-142.43
-136.59
-135.54
-133.57
-126.73
-114.97
-101.35
-90.28
-86.23
-90.32
-99.31
-107.25
-108.04
-97.87
-75.92
-43.19
-0.81
48.33
100.15
150.05
193.52
227.38
251.40
268.79
284.50
302.93
322.12
334.31
330.31
304.48
257.45
196.18
131.55
68.65
19.56
-7.36
-15.27
-14.75
-13.60
-11.68
-3.13
17.08
47.25
80.10
101.54
98.17
65.33
9.41
-55.47
-113.70
-153.93
-172.31
-171.55
-155.14
-130.51
-104.56
-81.53
-63.14
-49.67
-40.66
-35.80
-34.25
-35.75
-40.02
-44.96
-47.07
-43.42
-33.48
-19.36
-4.81
6.78
13.05
13.36
9.24
3.83
-0.11
-1.41
-0.17
2.60
5.60
7.52
7.30
4.41
-0.22
-5.52
-10.83
-15.39
-18.57
-20.27
-20.97
-21.38
-22.41
-23.35
-23.08
-20.69
-14.69
-3.51
13.59
36.31
63.72
94.13
127.49
163.76
195.99
215.78
218.00
203.81
178.60
153.93
130.17
106.79
83.64
60.98
39.77
23.23
14.42
14.95
24.73
41.37
62.89
86.69
109.61
129.13
143.54
151.52
152.20
145.44
131.25
111.11
86.31
57.23
24.07
-12.60
-51.79
-92.03
-131.60
-169.53
-204.80
-236.98
-266.00
-291.16
-310.86
-323.12
-326.31
-319.85
-304.67
-282.40
-254.99
-224.13
-190.84
-155.69
-119.49
-83.86
-51.09
-23.68
-3.31
9.74
16.60
19.35
20.29
21.22
23.12
26.12
29.64
32.59
33.79
32.33
28.08
21.75
14.69
8.39
3.93
1.65
1.21
1.85
2.78
3.31
2.96
1.42
-1.48
-5.80
-11.50
-18.67
-27.51
-38.37
-51.61
-67.38
-85.46
-105.33
-126.25
-147.38
-167.73
-186.06
-200.78
-210.10
-212.42
-206.69
-192.77
-171.27
-143.19
-109.57
-71.14
-28.45
17.90
67.06
117.75
168.30
216.88
261.59
300.38
331.00
351.13
358.88
353.54
336.03
308.84
275.33
238.88
202.25
167.41
135.71
108.00
84.72
65.75
50.52
38.16
27.82
18.76
10.31
1.71
-7.76
-18.39
-29.63
-40.04
-48.01
-52.80
-55.09
-56.67
-59.20
-62.98
-66.69
-68.26
-66.22
-60.74
-53.47
-46.52
-41.20
-37.44
-34.22
-30.47
-25.83
-20.90
-16.64
-13.62
-11.64
-9.86
-7.34
-3.62
1.05
5.94
10.26
13.56
15.86
17.54
19.07
20.70
22.41
23.96
25.09
25.61
25.49
24.81
23.65
22.03
19.98
17.50
14.67
11.61
8.46
5.33
2.23
-0.95
-4.33
-8.08
-12.27
-16.87
-21.75
-26.71
-31.57
-36.21
-40.62
-44.90
-49.18
-53.58
-58.13
-62.83
-67.61
-72.41
-77.13
-81.59
-85.42
-88.14
-89.23
-88.25
-85.00
-79.54
-71.96
-62.22
-50.12
-35.46
-18.31
0.89
21.29
41.90
61.82
80.32
96.82
110.67
121.14
127.49
129.50
127.72
123.41
118.12
113.11
108.97
105.49
101.88
97.02
90.34
81.89
72.32
62.33
52.41
42.81
33.53
24.39
14.82
4.73
-5.55
-15.24
-23.70
-30.81
-36.42
-40.31
-42.34
-43.09
-42.79
-41.36
-38.24
-33.08
-26.14
-17.47
-6.98
5.57
19.58
35.00
52.04
71.41
93.56
115.37
133.52
146.23
159.11
174.23
192.05
209.08
223.02
231.99
233.11
225.21
209.46
189.05
166.96
146.02
128.05
113.88
102.79
89.84
71.44
47.56
21.46
-3.98
-27.46
-49.91
-73.22
-99.58
-135.51
-184.15
-242.70
-303.44
-358.98
-404.90
-440.49
-467.36
-488.44
-513.66
-550.55
-600.43
-658.66
-718.97
-775.79
-823.76
-856.79
-826.48
-708.84
-519.22
-305.02
-112.74
34.14
134.44
198.89
240.69
270.71
288.24
289.96
277.29
258.17
242.56
237.90
247.78
272.95
308.11
342.64
367.25
377.45
373.97
359.90
338.31
311.89
283.10
253.76
221.88
185.55
145.55
105.69
70.74
44.03
26.53
16.97
12.67
9.49
4.43
-3.13
-11.91
-20.38
-28.00
-35.07
-41.98
-48.41
-53.52
-55.81
-53.37
-44.61
-28.95
-7.18
18.71
45.82
70.89
90.91
103.69
108.47
106.09
98.65
88.74
78.43
68.63
58.98
48.39
35.73
20.70
4.15
-12.02
-25.50
-34.61
-39.04
-40.08
-40.24
-42.24
-47.87
-57.30
-68.99
-80.47
-89.23
-93.41
-92.03
-84.90
-72.47
-55.78
-36.53
-16.83
1.13
15.52
24.92
28.22
24.38
12.77
-6.13
-30.02
-54.69
-75.02
-86.74
-88.08
-80.57
-68.30
-56.10
-47.59
-44.09
-44.71
-47.42
-50.34
-52.61
-54.44
-56.44
-58.63
-60.02
-58.77
-53.13
-42.56
-28.19
-12.22
3.29
17.66
31.82
47.44
65.43
85.01
103.82
119.14
129.34
134.56
136.31
136.31
135.48
133.64
130.12
124.58
117.53
110.20
103.96
99.60
97.08
95.60
94.05
91.56
87.72
82.77
77.25
71.63
66.07
60.36
54.09
47.08
39.54
32.09
25.47
20.16
16.12
12.84
9.60
5.77
1.11
-4.17
-9.57
-14.59
-18.98
-22.79
-26.38
-30.11
-34.18
-38.47
-42.65
-46.34
-49.33
-51.73
-53.82
-55.95
-58.34
-60.91
-63.33
-65.12
-65.83
-65.14
-62.92
-59.23
-54.25
-48.28
-41.63
-34.67
-27.78
-21.35
-15.68
-10.97
-7.33
-4.70
-2.97
-1.96
-1.40
-1.05
-0.69
-0.17
0.48
1.11
1.49
1.44
0.93
0.11
-0.73
-1.32
-1.47
-1.21
-0.68
-0.08
0.45
0.91
1.44
2.19
3.31
4.84
6.76
9.02
11.52
14.02
16.12
17.23
16.78
14.38
10.19
4.92
-0.31
-4.30
-6.17
-5.61
-2.87
1.41
6.26
10.56
13.13
12.91
9.21
2.00
-7.87
-18.67
-28.14
-34.18
-35.61
-32.65
-26.81
-20.49
-16.27
-16.15
-21.08
-30.85
-44.36
-59.93
-75.49
-88.56
-96.72
-98.29
-92.97
-82.01
-67.98
-54.01
-42.91
-36.31
-33.82
-33.63
-33.58
-32.16
-28.83
-23.89
-18.04
-12.00
-6.18
0.26
8.42
18.78
30.55
42.15
52.01
59.22
63.64
65.71
67.26
70.13
75.38
83.13
93.15
105.27
118.91
132.23
136.30
123.63
92.99
51.75
11.23
-19.60
-36.80
-40.92
-35.28
-23.85
-8.90
7.90
24.38
37.38
44.10
43.83
38.63
32.80
28.98
29.24
33.57
39.80
44.48
44.68
39.18
28.66
14.63
-1.15
-16.37
-29.28
-39.05
-45.87
-50.76
-55.45
-60.01
-65.72
-74.02
-85.38
-99.32
-114.49
-129.07
-141.36
-150.26
-155.55
-157.83
-157.76
-155.35
-150.09
-141.22
-127.98
-109.91
-86.89
-59.20
-27.56
6.71
41.57
74.25
102.06
123.41
138.36
148.27
154.95
160.30
165.35
170.00
173.15
173.69
171.49
167.53
163.06
158.62
154.64
150.59
145.24
136.86
124.31
107.78
88.33
67.02
43.65
18.74
-5.94
-26.05
-38.57
-44.55
-47.62
-51.41
-57.36
-69.58
-86.10
-103.99
-120.97
-136.59
-152.16
-169.99
-187.17
-194.55
-187.89
-166.42
-134.23
-97.60
-62.37
-32.18
-8.22
5.36
10.03
6.16
-4.68
-20.90
-41.21
-65.73
-96.37
-125.13
-147.13
-160.04
-166.64
-170.91
-175.40
-178.87
-176.54
-162.20
-131.43
-86.26
-33.63
15.75
53.12
74.30
80.70
77.64
71.17
65.46
60.15
53.86
45.17
35.11
25.77
19.79
18.01
19.84
23.70
25.83
24.51
19.56
13.27
7.78
4.28
3.57
5.37
8.74
10.34
9.09
5.36
2.04
1.22
3.84
11.08
23.48
41.25
62.22
87.20
113.84
143.59
177.36
206.43
224.00
226.37
229.40
236.63
249.08
258.76
264.15
265.48
263.90
261.74
260.11
258.33
251.85
238.13
216.72
190.96
164.45
140.04
120.08
105.02
93.71
82.45
69.34
54.04
38.34
23.26
8.62
-6.28
-22.79
-42.19
-66.32
-95.34
-128.52
-164.22
-201.65
-240.76
-281.55
-324.30
-369.33
-417.26
-467.25
-516.41
-559.43
-590.02
-602.65
-594.28
-565.54
-520.27
-464.08
-401.93
-336.91
-270.15
-201.87
-132.62
-63.90
1.90
62.25
115.21
159.99
196.78
226.39
249.61
266.69
277.12
280.05
275.20
263.52
247.24
229.04
210.88
193.15
174.82
154.44
131.32
106.16
80.83
57.44
37.22
20.34
6.22
-5.64
-15.21
-21.90
-24.95
-23.89
-18.70
-10.22
0.58
13.07
27.31
43.65
62.38
83.39
106.21
129.96
152.62
172.03
186.61
196.04
201.06
202.78
202.11
199.49
194.79
186.07
171.30
149.29
120.61
87.10
51.03
14.78
-19.11
-48.32
-73.31
-96.27
-120.69
-149.74
-185.60
-228.69
-277.18
-327.06
-362.24
-368.70
-341.94
-291.36
-233.26
-181.25
-142.00
-115.99
-99.84
-88.11
-79.11
-67.46
-48.15
-18.12
21.73
65.78
105.74
134.32
148.74
150.62
143.02
132.62
125.58
123.05
120.20
109.33
84.41
44.89
-5.50
-60.11
-110.75
-147.84
-166.83
-171.12
-168.18
-163.77
-158.79
-153.25
-147.96
-144.23
-144.74
-147.36
-147.54
-139.93
-120.90
-88.58
-45.63
2.43
50.11
94.43
130.55
156.80
173.97
184.23
192.84
204.31
221.40
244.60
272.38
301.88
330.50
356.54
362.41
338.80
286.34
214.69
136.22
61.24
-2.77
-50.60
-80.62
-95.48
-98.47
-94.35
-87.23
-78.93
-68.70
-54.93
-37.34
-18.28
-3.14
5.01
4.99
-2.10
-13.50
-25.65
-35.53
-41.62
-44.83
-47.84
-52.28
-59.35
-69.64
-83.02
-98.54
-114.75
-128.63
-137.36
-139.19
-133.38
-121.05
-104.66
-87.03
-70.35
-55.96
-44.55
-36.88
-33.64
-34.70
-38.90
-44.05
-47.62
-47.72
-43.93
-37.46
-30.63
-25.48
-22.74
-21.56
-20.05
-16.32
-9.45
0.26
11.79
23.96
36.01
47.74
59.16
70.13
80.27
89.11
96.26
101.33
103.54
101.58
93.85
79.15
57.53
30.64
1.47
-26.57
-50.58
-68.76
-80.44
-85.64
-84.76
-78.44
-67.70
-53.98
-39.03
-24.59
-11.98
-2.00
5.06
9.27
11.04
10.99
9.92
8.59
7.64
7.53
8.56
10.99
15.07
20.94
28.48
37.22
46.49
55.64
64.26
72.15
79.20
85.09
89.46
92.01
92.70
91.79
89.71
87.00
84.05
81.25
79.06
77.91
77.92
78.39
77.77
74.38
67.39
57.30
45.97
35.73
28.63
25.54
26.10
29.16
33.72
39.51
46.36
54.07
61.67
68.41
74.03
78.63
81.93
83.15
81.18
74.55
62.65
45.40
24.40
1.78
-21.18
-45.43
-72.74
-100.36
-122.16
-131.05
-124.83
-105.84
-79.57
-51.45
-26.68
-7.61
6.62
15.77
23.17
29.34
34.18
36.48
35.48
28.71
15.13
-4.34
-28.51
-52.13
-74.63
-96.08
-118.23
-142.14
-170.72
-204.58
-241.23
-276.45
-306.39
-331.17
-351.46
-370.23
-369.68
-340.46
-285.24
-217.15
-150.24
-92.47
-55.34
-34.67
-28.15
-34.72
-57.09
-97.42
-151.47
-214.30
-271.87
-310.94
-320.09
-297.10
-248.05
-187.14
-129.19
-87.51
-61.33
-46.60
-39.58
-35.87
-33.37
-30.26
-29.48
-31.54
-34.86
-36.51
-34.70
-29.98
-23.78
-18.83
-17.11
-19.63
-25.00
-30.47
-32.87
-30.65
-24.24
-15.00
-5.13
3.75
10.93
17.31
24.48
34.13
46.71
61.45
76.99
91.69
104.44
115.07
124.46
133.83
144.22
155.77
167.91
179.69
190.26
199.25
207.02
214.62
223.60
235.61
251.92
273.05
298.17
324.72
348.65
365.37
371.25
364.93
347.69
322.80
294.23
265.35
238.15
213.15
189.98
167.87
146.33
124.99
103.76
83.11
64.31
49.41
40.71
40.06
48.36
65.63
90.15
118.68
147.03
171.12
187.95
196.35
197.18
193.11
188.72
187.64
191.38
199.19
208.76
217.30
222.36
222.46
217.47
210.25
203.47
198.51
195.34
192.99
190.09
185.00
175.98
161.55
142.91
120.50
93.69
61.52
23.96
-17.53
-60.55
-102.51
-154.64
-217.37
-282.50
-338.04
-376.22
-396.38
-402.12
-397.80
-386.76
-371.10
-350.04
-324.23
-296.15
-269.21
-246.16
-227.98
-213.91
-202.28
-191.30
-179.19
-165.30
-151.31
-140.20
-134.44
-134.76
-140.11
-148.28
-157.13
-161.27
-160.42
-156.42
-151.84
-148.81
-148.54
-151.55
-157.57
-165.09
-170.33
-168.74
-155.92
-129.88
-92.71
-50.40
-10.99
18.80
35.97
42.10
41.10
37.20
33.03
29.00
24.96
20.49
16.40
14.10
14.47
16.92
19.77
21.44
20.65
17.38
12.73
8.38
5.73
5.13
5.67
5.71
4.20
0.67
-4.31
-9.42
-13.11
-14.35
-13.14
-10.50
-8.01
-6.30
-5.50
-4.76
-2.43
3.63
15.43
34.37
61.14
90.26
117.45
138.75
151.59
155.59
152.76
146.74
141.40
139.52
141.81
147.61
154.53
159.51
159.77
153.59
140.61
121.72
98.69
73.48
48.31
24.56
3.04
-15.78
-31.52
-43.92
-53.22
-60.35
-66.85
-73.84
-81.78
-89.96
-96.66
-99.89
-98.36
-92.06
-82.21
-70.71
-59.20
-48.71
-39.60
-31.75
-24.91
-18.92
-13.66
-8.98
-4.72
-0.67
3.34
7.39
11.47
15.52
19.32
22.57
24.84
25.61
24.52
21.64
17.47
12.66
7.56
1.84
-5.32
-15.19
-28.98
-47.50
-70.83
-98.18
-127.53
-155.43
-177.21
-187.54
-182.83
-162.98
-131.98
-96.60
-64.01
-39.34
-24.53
-18.40
-16.79
-15.50
-11.57
-3.51
9.41
27.88
52.54
82.96
117.51
155.20
193.77
229.86
259.71
280.64
292.16
296.21
295.45
292.59
291.92
295.58
303.35
312.89
321.06
325.00
322.52
310.85
275.66
212.33
128.55
41.86
-31.36
-84.71
-124.01
-155.99
-186.66
-220.73
-253.36
-279.83
-295.79
-298.58
-287.90
-265.73
-235.78
-203.56
-174.39
-149.83
-130.09
-114.53
-103.06
-96.26
-94.62
-97.37
-103.06
-109.89
-115.59
-120.67
-128.18
-142.22
-165.18
-194.96
-224.40
-244.34
-247.82
-232.93
-204.44
-170.91
-140.44
-117.36
-100.67
-85.05
-64.10
-33.56
7.43
56.28
108.80
160.51
206.68
242.39
263.49
267.29
252.89
221.56
176.65
122.45
68.79
26.87
2.72
-5.00
-1.94
5.88
14.27
21.29
26.78
31.47
35.97
40.02
43.19
45.37
46.70
47.36
47.44
47.13
45.42
42.63
38.34
32.13
24.03
14.39
3.71
-7.68
-16.80
-23.83
-29.15
-33.41
-37.02
-39.99
-42.11
-43.14
-43.07
-42.01
-40.47
-38.67
-37.00
-35.73
-34.92
-34.47
-34.17
-33.89
-33.40
-32.78
-31.79
-30.38
-28.56
-26.37
-25.07
-23.80
-21.95
-18.91
-14.31
-7.85
0.37
9.79
19.38
29.00
36.94
42.30
45.09
45.22
43.58
40.49
35.66
28.30
17.53
2.96
-14.83
-34.36
-52.09
-66.85
-78.19
-86.50
-92.81
-98.45
-104.71
-112.41
-122.08
-133.44
-145.14
-154.02
-155.53
-145.46
-122.23
-88.39
-49.76
-13.51
14.77
33.75
45.17
52.71
59.71
67.68
75.95
83.44
88.38
91.35
93.30
94.76
95.39
94.01
90.51
83.00
71.60
57.53
42.78
28.93
16.78
6.22
-3.47
-13.26
-24.05
-35.49
-46.82
-57.00
-65.35
-71.80
-76.78
-81.13
-85.84
-91.86
-98.98
-106.77
-114.66
-122.21
-129.29
-136.01
-142.67
-149.72
-157.68
-166.05
-174.38
-182.15
-188.83
-193.87
-196.62
-196.14
-190.95
-184.00
-176.00
-167.34
-158.21
-148.69
-138.84
-128.74
-118.50
-108.40
-98.82
-89.49
-80.30
-71.14
-61.87
-52.35
-42.54
-32.53
-22.67
-13.45
-4.88
3.02
10.43
17.67
25.18
33.28
42.03
51.18
60.19
68.84
77.04
85.06
93.47
102.97
114.09
126.92
141.00
155.55
169.87
183.45
196.22
208.53
221.02
234.51
249.92
267.86
288.27
309.94
330.28
345.80
353.14
350.27
337.37
316.78
292.13
267.09
244.26
224.88
209.03
196.25
186.02
177.84
171.20
165.37
159.56
153.13
145.82
137.86
129.84
122.47
116.26
111.19
106.52
100.83
92.34
79.44
61.39
38.74
13.30
-12.32
-35.62
-54.83
-69.32
-79.41
-85.84
-89.26
-89.93
-87.95
-83.47
-77.00
-69.31
-61.25
-53.44
-46.15
-39.39
-33.07
-27.29
-22.29
-18.42
-16.00
-15.28
-16.33
-19.06
-23.15
-27.97
-32.61
-35.93
-36.79
-34.37
-28.46
-19.46
-8.19
4.40
17.48
30.40
42.68
53.99
63.96
72.30
78.90
84.06
88.47
93.19
99.11
106.93
117.11
129.46
143.31
157.61
171.25
183.29
193.22
200.47
204.94
207.05
207.10
205.18
201.19
194.80
185.54
172.93
155.83
133.54
106.77
76.99
46.53
17.88
-7.23
-28.70
-48.11
-69.17
-95.34
-127.93
-166.48
-208.82
-252.07
-293.72
-333.63
-367.21
-392.85
-414.41
-433.22
-450.69
-468.53
-488.73
-512.66
-539.61
-565.73
-585.25
-591.40
-578.38
-544.85
-494.31
-433.57
-369.92
-308.57
-251.25
-197.67
-146.30
-95.48
-44.89
4.83
52.71
97.83
139.23
175.69
205.24
226.13
237.83
241.20
238.63
233.53
229.32
228.44
231.74
238.23
245.93
252.86
257.52
259.22
257.79
253.11
244.72
231.95
214.30
192.30
167.99
144.53
125.35
112.86
107.40
106.97
107.68
104.81
93.87
71.69
37.47
-6.48
-54.70
-99.62
-133.59
-151.36
-151.70
-137.72
-115.60
-92.44
-74.29
-64.91
-65.42
-74.57
-89.10
-104.39
-115.38
-117.95
-110.30
-93.57
-71.41
-48.49
-28.85
-14.91
-7.28
-5.33
-7.77
-13.11
-19.83
-26.36
-31.29
-33.62
-33.00
-29.81
-24.99
-19.62
-14.54
-10.12
-6.27
-2.71
0.65
3.50
5.20
4.97
2.29
-2.82
-9.75
-17.35
-24.20
-28.88
-30.29
-27.87
-21.82
-13.12
-3.28
6.05
13.61
18.83
21.87
23.33
23.87
23.88
23.48
22.53
20.90
18.56
15.63
12.34
9.06
6.41
5.20
6.36
10.62
18.12
28.16
39.23
49.40
56.88
60.62
60.65
57.93
54.06
50.63
48.84
49.26
51.96
56.70
63.08
70.60
78.54
86.04
92.06
95.62
95.88
92.39
85.14
74.64
61.87
48.22
35.22
24.14
15.61
9.43
4.70
0.33
-4.38
-9.39
-14.06
-17.52
-19.21
-19.13
-17.74
-15.63
-13.18
-10.47
-7.44
-4.14
-0.99
1.34
2.21
1.40
-0.72
-3.34
-5.51
-6.61
-6.55
-5.72
-4.77
-4.28
-4.65
-6.15
-8.97
-13.29
-19.17
-26.41
-34.45
-42.47
-49.62
-55.29
-59.26
-61.64
-62.76
-62.95
-62.46
-61.47
-60.10
-58.54
-57.04
-55.89
-55.33
-55.35
-55.67
-55.64
-54.47
-51.46
-46.28
-39.12
-30.63
-21.72
-13.28
-5.82
0.62
6.39
12.02
17.92
24.16
30.43
36.31
41.43
45.69
49.20
52.13
54.56
56.42
57.73
58.68
59.66
61.03
62.80
64.46
65.07
63.70
59.83
53.66
46.01
38.06
30.95
25.41
21.66
19.42
18.06
16.88
15.35
13.26
10.74
8.05
5.35
2.57
-0.58
-4.38
-8.85
-13.59
-17.94
-21.16
-22.76
-22.60
-20.87
-17.98
-14.43
-10.77
-7.60
-5.55
-5.16
-6.63
-9.64
-13.30
-16.30
-17.28
-15.24
-9.80
-1.34
9.16
20.41
31.11
40.29
47.44
52.55
55.97
58.10
59.14
58.82
56.45
51.25
42.67
30.74
16.08
-0.15
-16.51
-31.43
-43.38
-51.10
-53.90
-52.11
-47.29
-42.03
-39.04
-40.09
-45.13
-52.40
-59.29
-63.72
-65.07
-64.18
-62.55
-61.29
-60.63
-60.13
-59.46
-58.99
-59.61
-62.04
-66.05
-70.25
-72.80
-72.34
-68.68
-62.67
-55.42
-47.54
-38.74
-28.24
-15.54
-1.05
13.88
27.40
37.96
44.80
48.05
48.47
47.01
44.46
41.35
37.91
34.22
30.33
26.26
22.08
17.89
13.87
10.19
7.08
4.73
3.34
3.02
3.74
5.27
7.13
8.71
9.35
8.61
6.43
3.12
-0.75
-4.55
-7.82
-10.38
-12.31
-13.84
-15.24
-16.72
-18.35
-20.10
-21.79
-23.17
-24.06
-24.39
-24.25
-23.87
-23.44
-23.05
-22.57
-21.76
-20.31
-18.04
-14.91
-10.99
-6.50
-1.71
3.08
7.54
11.28
13.95
15.29
15.20
13.78
11.38
8.49
5.68
3.44
2.09
1.70
2.06
2.84
3.65
4.21
4.36
4.11
3.56
2.82
1.95
0.90
-0.47
-2.31
-4.69
-7.50
-10.49
-13.25
-15.36
-16.43
-16.23
-14.71
-12.09
-8.86
-5.72
-3.43
-2.61
-3.56
-6.20
-10.11
-14.72
-19.37
-23.46
-26.42
-27.79
-27.26
-24.83
-20.87
-16.03
-11.20
-7.22
-4.71
-3.96
-4.94
-7.34
-10.71
-14.63
-18.72
-22.73
-26.43
-29.63
-32.24
-34.27
-35.93
-37.61
-39.67
-42.31
-45.44
-48.75
-51.98
-55.03
-58.07
-61.32
-64.83
-68.34
-71.34
-73.38
-74.22
-73.88
-72.55
-70.28
-66.96
-62.34
-56.16
-48.30
-38.78
-27.64
-14.82
-0.28
15.80
32.74
49.36
64.19
75.92
83.77
87.72
88.45
86.99
84.50
82.01
80.32
79.93
80.94
83.15
86.01
88.82
90.81
91.38
90.18
87.09
82.27
76.06
68.96
61.55
54.44
48.15
43.11
39.62
37.74
37.30
37.78
38.38
38.11
36.09
31.87
25.71
18.59
11.95
7.32
5.77
7.64
12.51
19.32
26.80
33.77
39.37
43.12
44.88
44.72
42.97
40.17
37.14
34.85
34.08
35.20
37.98
41.51
44.46
45.43
43.29
37.47
28.03
15.66
1.49
-12.95
-25.98
-36.05
-42.05
-43.75
-41.83
-37.73
-33.11
-29.14
-26.06
-23.21
-19.44
-13.70
-5.37
5.54
18.44
32.15
44.91
54.39
58.16
54.48
43.07
25.58
5.31
-13.82
-28.50
-37.03
-39.54
-37.49
-32.80
-27.18
-21.80
-17.27
-13.97
-12.17
-12.13
-13.98
-17.52
-22.15
-27.09
-31.69
-35.75
-39.60
-43.84
-48.82
-54.30
-59.29
-62.40
-62.50
-59.31
-53.54
-46.75
-40.69
-36.65
-35.08
-35.52
-36.95
-38.23
-38.54
-37.57
-35.47
-32.73
-29.90
-27.49
-25.83
-25.20
-25.90
-28.22
-32.19
-37.31
-42.32
-45.44
-44.88
-39.66
-30.14
-17.99
-5.64
4.64
11.56
15.02
15.84
15.07
13.34
10.61
6.32
-0.14
-8.93
-19.61
-31.26
-42.82
-53.50
-63.00
-71.34
-78.56
-84.42
-88.26
-89.25
-86.82
-80.96
-72.22
-61.49
-49.53
-36.74
-23.09
-8.40
7.27
23.43
39.23
53.75
66.24
76.40
84.21
89.89
93.75
96.02
96.97
96.90
96.18
95.21
94.39
93.99
94.22
95.18
96.83
99.05
101.52
103.72
104.86
104.01
100.29
93.08
82.26
68.32
52.30
35.68
20.18
7.69
0.08
-1.21
4.38
16.09
31.70
48.04
61.69
70.01
71.83
67.48
58.41
46.47
33.30
19.98
7.11
-5.05
-16.37
-26.67
-35.79
-43.65
-50.33
-55.98
-60.72
-64.42
-66.61
-66.56
-63.36
-56.34
-45.42
-31.49
-16.37
-2.37
8.53
15.43
18.78
20.04
20.73
21.62
22.22
21.18
17.15
9.70
-0.35
-11.22
-21.01
-28.48
-33.35
-36.12
-37.59
-38.39
-38.85
-38.98
-38.72
-38.08
-37.30
-36.71
-36.56
-36.92
-37.50
-37.77
-37.09
-35.09
-31.72
-27.37
-22.72
-18.54
-15.50
-13.86
-13.38
-13.40
-13.05
-11.57
-8.67
-4.59
0.07
4.68
8.94
12.90
16.75
20.49
23.76
26.02
26.91
26.62
25.82
25.31
25.47
25.99
26.01
24.56
21.01
15.34
8.11
0.21
-7.39
-13.85
-18.58
-21.36
-22.35
-22.10
-21.34
-20.81
-21.12
-22.80
-26.30
-32.08
-40.33
-50.76
-62.34
-73.42
-82.16
-87.14
-87.77
-84.34
-77.66
-68.69
-58.16
-46.53
-34.13
-21.34
-8.63
3.53
14.78
24.98
34.14
42.34
49.56
55.68
60.56
64.08
66.24
67.16
67.03
66.02
64.40
62.47
60.65
59.34
58.82
59.05
59.58
59.72
58.64
55.78
50.92
44.28
36.35
27.71
18.84
10.05
1.48
-6.85
-15.00
-23.03
-31.00
-38.91
-46.58
-53.61
-59.37
-63.14
-64.39
-63.03
-59.51
-54.76
-49.83
-45.59
-42.40
-40.13
-38.33
-36.50
-34.31
-31.66
-28.59
-25.13
-21.26
-16.96
-12.35
-7.68
-3.32
0.43
3.52
6.21
8.93
12.02
15.54
19.22
22.59
25.24
27.00
27.97
28.39
28.46
28.22
27.60
26.51
24.92
22.95
20.71
18.31
15.72
12.85
9.63
6.11
2.53
-0.71
-3.16
-4.48
-4.53
-3.50
-1.75
0.25
2.10
3.62
4.85
6.00
7.31
8.86
10.55
12.07
13.05
13.18
12.31
10.44
7.69
4.25
0.41
-3.57
-7.43
-10.99
-14.25
-17.29
-20.29
-23.33
-26.33
-29.05
-31.23
-32.71
-33.51
-33.81
-33.78
-33.48
-32.87
-31.85
-30.41
-28.73
-27.14
-26.01
-25.59
-25.90
-26.68
-27.54
-28.07
-27.96
-27.01
-25.05
-21.96
-17.61
-12.05
-5.53
1.49
8.40
14.66
19.95
24.21
27.55
30.13
32.02
33.19
33.59
33.25
32.29
30.94
29.39
27.79
26.20
24.63
23.08
21.62
20.31
19.20
18.26
17.45
16.68
15.95
15.26
14.69
14.25
13.94
13.69
13.38
12.91
12.19
11.15
9.81
8.20
6.39
4.46
2.53
0.68
-1.03
-2.64
-4.25
-5.92
-7.62
-9.15
-10.16
-10.30
-9.32
-7.24
-4.32
-0.93
2.56
5.92
9.05
11.89
14.33
16.25
17.53
18.15
18.23
17.95
17.45
16.84
16.12
15.31
14.48
13.72
13.10
12.66
12.36
12.13
11.93
11.81
11.80
11.92
12.10
12.20
12.08
11.69
11.08
10.39
9.74
9.13
8.53
7.86
7.15
6.46
5.89
5.42
4.85
3.84
2.00
-0.87
-4.76
-9.38
-14.32
-19.04
-23.03
-25.77
-26.82
-25.91
-23.00
-18.32
-12.34
-5.57
1.47
8.34
14.69
20.26
24.95
28.92
32.68
36.99
42.68
50.40
60.43
72.63
86.51
101.33
116.22
130.21
142.35
151.78
157.84
160.12
158.52
153.22
144.45
132.38
116.91
97.74
74.50
47.00
15.45
-19.47
-56.61
-94.56
-131.90
-167.38
-199.96
-228.75
-252.94
-271.81
-284.76
-291.48
-291.95
-286.57
-276.10
-261.53
-243.98
-224.50
-203.93
-182.94
-162.06
-141.79
-122.47
-104.28
-87.06
-70.23
-53.00
-34.73
-15.36
4.44
23.37
40.06
53.58
63.74
71.06
76.36
80.36
83.41
85.61
87.05
87.99
88.85
89.98
91.39
92.74
93.45
93.01
91.13
87.88
83.61
78.79
73.85
69.00
64.29
59.63
54.92
50.16
45.43
40.87
36.50
32.13
27.38
21.88
15.49
8.52
1.57
-4.64
-9.64
-13.30
-15.82
-17.47
-18.38
-18.46
-17.57
-15.70
-13.09
-10.15
-7.28
-4.66
-2.22
0.30
3.05
5.99
8.84
11.27
13.02
14.07
14.55
14.68
14.61
14.43
14.21
14.02
13.93
13.95
13.98
13.91
13.61
13.10
12.51
11.95
11.46
10.95
10.29
9.36
8.19
6.86
5.43
3.88
2.07
-0.13
-2.79
-5.88
-9.29
-12.87
-16.50
-20.04
-23.27
-25.94
-27.80
-28.67
-28.51
-27.42
-25.60
-23.25
-20.59
-17.84
-15.21
-12.90
-10.99
-9.43
-8.04
-6.61
-4.99
-3.21
-1.41
0.15
1.23
1.69
1.51
0.84
-0.05
-0.88
-1.40
-1.59
-1.59
-1.69
-2.18
-3.30
-5.11
-7.58
-10.58
-13.94
-17.42
-20.67
-23.29
-24.95
-25.57
-25.32
-24.63
-23.99
-23.82
-24.31
-25.45
-27.03
-28.79
-30.42
-31.61
-32.06
-31.59
-30.16
-27.90
-25.13
-22.19
-19.32
-16.55
-13.73
-10.61
-7.02
-2.99
1.22
5.20
8.55
11.05
12.74
13.90
14.97
16.37
18.38
21.04
24.14
27.34
30.26
32.56
34.03
34.57
34.17
32.91
31.00
28.75
26.45
24.36
22.55
20.91
19.21
17.26
15.02
12.65
10.47
8.85
7.98
7.82
8.09
8.42
8.46
8.05
7.25
6.27
5.50
5.42
6.59
9.48
14.36
21.08
29.07
37.38
45.03
51.34
56.15
59.73
62.52
64.83
66.64
67.70
67.66
66.22
63.13
58.19
51.11
41.61
29.57
15.24
-0.63
-16.96
-32.54
-46.42
-58.05
-67.29
-74.21
-78.92
-81.39
-81.53
-79.26
-74.73
-68.39
-61.01
-53.50
-46.76
-41.46
-37.92
-36.07
-35.55
-35.90
-36.64
-37.44
-37.96
-37.88
-36.78
-34.21
-29.94
-24.09
-17.24
-10.18
-3.65
1.96
6.72
11.00
15.16
19.22
22.91
25.70
27.21
27.36
26.47
25.08
23.74
22.78
22.30
22.19
22.32
22.59
22.94
23.38
23.92
24.53
25.15
25.66
25.99
26.09
25.91
25.44
24.72
23.75
22.52
20.94
18.90
16.32
13.19
9.61
5.78
1.86
-2.05
-5.97
-9.92
-13.81
-17.42
-20.37
-22.31
-23.08
-22.79
-21.82
-20.69
-19.87
-19.66
-20.14
-21.10
-22.08
-22.49
-21.73
-19.40
-15.46
-10.25
-4.42
1.31
6.40
10.57
13.75
16.02
17.46
18.15
18.28
18.14
18.10
18.46
19.33
20.55
21.82
22.78
23.21
23.11
22.59
21.82
20.96
20.06
19.14
18.16
17.01
15.59
13.78
11.50
8.80
5.89
3.11
0.81
-0.70
-1.28
-0.92
0.31
2.33
5.10
8.59
12.74
17.34
22.01
26.23
29.40
31.05
30.92
29.06
25.77
21.54
16.86
12.15
7.70
3.62
-0.05
-3.36
-6.32
-8.92
-11.17
-13.09
-14.72
-16.12
-17.33
-18.31
-18.97
-19.22
-19.04
-18.52
-17.86
-17.29
-16.96
-16.85
-16.78
-16.51
-15.86
-14.85
-13.61
-12.38
-11.30
-10.35
-9.37
-8.09
-6.33
-4.09
-1.49
1.28
4.05
6.79
9.55
12.39
15.33
18.26
21.00
23.36
25.22
26.54
27.47
28.26
29.20
30.56
32.50
34.96
37.73
40.40
42.56
43.89
44.31
43.98
43.16
42.06
40.73
39.09
37.03
34.58
32.01
29.72
28.11
27.32
27.16
27.23
26.97
25.89
23.53
19.47
13.30
4.76
-5.99
-18.16
-30.34
-40.88
-48.34
-52.07
-52.33
-50.05
-46.39
-42.19
-37.80
-33.23
-28.44
-23.60
-19.13
-15.48
-12.96
-11.54
-11.00
-11.15
-11.98
-13.70
-16.61
-20.88
-26.38
-32.57
-38.64
-43.62
-46.74
-47.61
-46.39
-43.74
-40.54
-37.70
-35.86
-35.42
-36.65
-39.86
-45.39
-53.51
-64.11
-76.52
-89.66
-102.36
-113.81
-123.75
-132.40
-140.08
-146.86
-152.45
-156.28
-157.81
-156.79
-153.41
-148.14
-141.52
-133.95
-125.63
-116.59
-106.75
-95.91
-83.79
-70.00
-54.25
-36.61
-17.73
1.10
18.12
31.58
40.28
44.00
43.56
40.57
36.90
34.10
33.06
33.95
36.44
40.04
44.38
49.28
54.74
60.81
67.52
74.93
83.06
91.81
100.65
108.54
113.96
115.54
112.82
106.69
99.31
93.28
90.48
91.26
94.34
97.61
99.15
98.12
94.85
90.44
85.99
82.14
79.08
76.77
75.34
75.10
76.38
79.19
83.12
87.40
91.27
94.34
96.74
99.11
102.28
106.90
113.08
120.22
127.04
131.93
133.31
130.04
121.64
108.32
90.85
70.35
48.15
25.51
3.60
-16.70
-34.85
-50.67
-64.24
-75.68
-85.00
-92.04
-96.59
-98.55
-98.01
-95.30
-90.82
-84.93
-77.87
-69.86
-61.15
-52.12
-43.18
-34.68
-26.77
-19.34
-12.17
-5.06
2.02
8.91
15.28
20.66
24.53
26.38
25.87
22.93
17.90
11.50
4.64
-1.84
-7.42
-11.95
-15.56
-18.41
-20.62
-22.14
-22.83
-22.53
-21.02
-18.00
-13.17
-6.39
2.20
12.01
22.16
31.75
40.22
47.50
54.01
60.27
66.52
72.28
76.39
77.18
73.05
63.00
47.15
26.93
4.84
-16.13
-33.34
-45.19
-51.56
-53.79
-54.16
-55.06
-58.00
-62.86
-67.66
-69.31
-64.85
-52.90
-34.63
-13.48
6.02
20.07
27.05
28.03
26.02
24.48
25.70
29.99
35.75
40.26
40.83
35.71
24.42
7.43
-14.39
-40.59
-71.43
-107.70
-150.34
-200.03
-257.01
-320.90
-390.15
-461.21
-528.07
-582.74
-617.09
-625.40
-606.56
-564.56
-507.10
-442.84
-378.70
-318.57
-263.58
-213.31
-167.05
-123.99
-82.96
-41.96
1.41
48.78
99.57
150.37
195.72
229.91
249.38
254.30
248.47
237.80
227.94
222.42
221.96
225.14
229.84
234.44
238.30
241.45
243.94
245.45
245.27
242.70
237.31
229.22
219.01
207.40
195.01
182.19
169.06
155.62
142.04
128.65
115.95
104.37
94.10
84.96
76.61
68.72
61.21
54.20
47.85
42.14
36.82
31.48
25.81
19.81
13.77
8.11
3.16
-0.95
-4.28
-6.96
-9.04
-10.49
-11.29
-11.51
-11.38
-11.23
-11.37
-12.02
-13.19
-14.68
-16.11
-17.04
-17.09
-16.01
-13.78
-10.60
-6.80
-2.84
0.92
4.23
7.03
9.42
11.58
13.66
15.71
17.72
19.68
21.63
23.64
25.74
27.92
30.14
32.45
35.04
38.23
42.23
46.93
51.80
55.99
58.63
59.20
57.68
54.53
50.40
45.89
41.33
36.82
32.37
28.05
24.06
20.75
18.48
17.55
18.07
19.99
23.03
26.87
31.16
35.64
40.05
44.09
47.24
48.79
47.95
44.14
37.30
27.99
17.24
6.14
-4.61
-14.82
-24.76
-34.94
-45.95
-58.53
-73.69
-92.53
-115.80
-143.15
-172.63
-200.86
-223.95
-238.92
-244.89
-243.29
-237.13
-229.56
-222.62
-216.67
-210.72
-203.28
-193.16
-179.95
-163.92
-145.78
-126.29
-106.08
-85.65
-65.37
-45.52
-26.37
-8.22
8.49
23.25
35.61
45.49
53.31
59.93
66.36
73.34
81.14
89.54
98.05
106.15
113.41
119.43
123.97
126.95
128.56
129.08
128.71
127.17
123.40
115.64
101.88
80.75
52.36
18.85
-15.86
-47.01
-70.33
-83.52
-86.92
-83.33
-76.81
-71.02
-67.84
-66.93
-66.46
-64.37
-59.58
-52.43
-44.31
-36.74
-30.67
-26.28
-23.20
-21.14
-20.21
-20.79
-23.18
-27.34
-32.78
-38.87
-45.00
-50.65
-55.24
-57.98
-57.94
-54.32
-46.91
-36.31
-23.80
-10.87
1.19
11.59
19.99
26.29
30.60
33.18
34.61
35.75
37.51
40.45
44.60
49.41
54.05
57.80
60.29
61.52
61.74
61.20
60.18
58.97
57.97
57.72
58.85
61.95
67.55
75.92
86.88
99.68
112.90
124.74
133.41
137.67
137.15
132.30
124.07
113.55
101.67
89.21
76.84
65.20
54.81
45.89
38.25
31.41
24.84
18.22
11.59
5.29
-0.27
-4.75
-8.12
-10.60
-12.65
-14.75
-17.19
-19.89
-22.28
-23.47
-22.51
-18.72
-12.02
-2.96
7.42
17.86
27.28
34.97
40.58
44.03
45.34
44.49
41.46
36.37
29.54
21.47
12.78
4.03
-4.27
-11.67
-17.83
-22.54
-25.87
-28.21
-30.17
-32.28
-34.70
-37.07
-38.73
-39.07
-37.93
-35.80
-33.69
-32.74
-33.83
-37.21
-42.47
-48.67
-54.72
-59.68
-62.96
-64.34
-63.81
-61.37
-56.92
-50.34
-41.69
-31.35
-20.02
-8.49
2.65
13.18
23.14
32.64
41.51
49.25
55.10
58.37
58.71
56.34
51.93
46.43
40.77
35.63
31.44
28.41
26.61
26.03
26.42
27.21
27.41
25.86
21.65
14.59
5.45
-4.17
-12.48
-18.15
-20.89
-21.57
-21.67
-22.59
-24.78
-27.52
-29.16
-27.89
-22.62
-13.56
-2.10
9.69
19.84
26.94
30.24
29.46
24.62
16.38
6.48
-2.24
-6.57
-4.48
3.55
14.27
22.96
25.69
21.29
11.78
1.11
-7.07
-11.17
-12.01
-11.69
-11.92
-13.06
-14.18
-14.16
-12.64
-10.36
-8.63
-8.44
-9.94
-12.35
-14.43
-15.21
-14.31
-12.03
-9.06
-6.11
-3.66
-1.88
-0.64
0.30
1.23
2.36
3.81
5.52
7.36
9.13
10.65
11.86
12.74
13.25
13.19
12.22
10.06
6.71
2.72
-1.03
-3.70
-4.98
-5.31
-5.69
-7.10
-9.96
-13.95
-18.29
-22.20
-25.34
-27.82
-29.95
-31.80
-33.16
-33.60
-32.83
-30.92
-28.31
-25.63
-23.36
-21.76
-20.88
-20.70
-21.34
-23.00
-25.81
-29.55
-33.53
-36.67
-37.97
-36.96
-33.93
-29.92
-26.16
-23.54
-22.28
-22.03
-22.27
-22.76
-23.66
-25.26
-27.59
-30.21
-32.31
-33.18
-32.56
-30.81
-28.58
-26.42
-24.42
-22.22
-19.30
-15.29
-10.27
-4.68
0.90
6.00
10.40
14.04
16.89
18.81
19.62
19.21
17.70
15.56
13.45
12.02
11.62
12.16
13.16
13.95
14.01
13.21
11.78
10.19
8.82
7.85
7.13
6.30
5.08
3.31
1.08
-1.40
-3.92
-6.37
-8.72
-11.05
-13.46
-16.03
-18.83
-21.90
-25.30
-29.11
-33.35
-37.87
-42.32
-46.23
-49.06
-50.43
-50.20
-48.46
-45.46
-41.52
-36.55
-30.32
-22.59
-13.36
-3.16
7.05
16.10
23.05
27.53
30.33
32.84
36.40
41.84
48.96
56.70
63.66
68.61
70.85
70.77
69.25
67.02
64.83
63.46
64.08
68.42
78.30
91.37
103.94
111.56
111.18
103.24
90.59
76.85
64.78
55.43
48.16
42.07
37.92
35.07
33.44
32.79
32.32
30.80
27.07
20.74
12.81
4.92
-2.58
-9.94
-18.02
-27.74
-39.40
-52.37
-65.45
-77.33
-83.96
-83.91
-78.15
-69.57
-61.26
-55.29
-52.73
-53.86
-58.41
-67.94
-82.11
-100.03
-120.78
-143.72
-168.86
-196.79
-228.08
-262.90
-294.60
-317.42
-325.81
-315.87
-287.00
-242.39
-187.83
-128.88
-69.20
-11.03
44.24
95.22
138.79
170.42
186.10
184.54
169.19
146.20
120.00
93.27
67.46
42.28
17.47
-5.62
-23.79
-31.44
-24.43
-5.26
20.95
49.13
74.12
92.55
103.78
109.62
115.35
125.76
139.52
155.04
172.54
191.81
212.61
234.55
242.63
225.60
202.87
183.01
160.36
134.42
106.28
78.05
52.04
29.83
13.85
4.86
-2.13
-10.11
-18.84
-27.70
-35.49
-40.57
-41.33
-35.11
-20.47
-0.83
21.29
44.19
64.79
79.83
87.05
85.94
78.74
68.62
49.96
22.52
-8.85
-38.66
-63.51
-82.75
-97.24
-107.79
-115.32
-121.63
-127.80
-132.87
-135.97
-136.31
-133.48
-127.71
-119.91
-111.61
-104.81
-100.03
-95.88
-92.09
-88.69
-85.83
-83.65
-82.36
-82.08
-82.76
-83.73
-84.54
-85.53
-87.06
-89.00
-90.46
-90.08
-86.51
-79.06
-67.70
-53.31
-37.39
-21.21
-5.26
10.65
26.89
43.48
59.78
74.66
86.74
94.62
97.33
94.55
86.75
75.29
62.41
50.83
43.10
40.91
44.33
51.80
60.48
66.98
68.34
62.86
50.58
33.42
14.73
-1.69
-12.59
-16.33
-13.14
-4.92
5.85
17.12
27.87
38.13
48.29
58.37
67.71
75.21
79.82
81.13
79.50
75.82
71.03
65.78
60.41
55.02
49.75
44.82
40.52
37.02
34.29
32.16
30.42
29.07
28.38
28.82
30.71
33.84
37.24
39.17
37.61
30.91
18.64
1.94
-16.60
-33.63
-46.09
-52.15
-51.76
-46.52
-39.06
-32.22
-28.19
-28.04
-31.75
-38.51
-47.22
-57.01
-67.26
-77.42
-86.84
-94.60
-99.78
-101.75
-100.55
-96.86
-91.74
-86.07
-80.28
-74.36
-68.21
-61.91
-55.74
-49.93
-44.27
-37.99
-30.08
-19.81
-7.21
6.86
21.09
34.22
45.38
54.15
60.35
63.88
64.74
63.15
59.71
55.26
50.52
45.83
41.11
36.10
30.83
25.79
21.79
19.50
19.12
20.32
22.48
25.12
28.13
31.71
36.13
41.43
47.25
52.92
57.58
60.42
60.77
58.25
52.89
45.13
35.84
26.05
16.57
7.73
-0.59
-8.77
-17.07
-25.34
-32.98
-39.17
-43.16
-44.52
-43.29
-39.92
-35.17
-29.93
-25.03
-21.15
-18.62
-17.45
-17.32
-17.80
-18.53
-19.35
-20.31
-21.50
-23.00
-24.71
-26.45
-27.97
-29.00
-29.28
-28.54
-26.59
-23.36
-18.96
-13.68
-7.93
-2.18
3.14
7.66
11.18
13.65
15.25
16.31
17.14
17.95
18.71
19.20
19.20
18.68
17.96
17.60
18.26
20.41
24.10
28.89
33.89
38.04
40.31
40.03
36.93
31.30
23.77
15.23
6.55
-1.57
-8.66
-14.52
-19.09
-22.40
-24.55
-25.70
-26.03
-25.74
-24.99
-23.85
-22.33
-20.51
-18.52
-16.60
-15.02
-13.98
-13.53
-13.60
-14.06
-14.76
-15.59
-16.41
-17.07
-17.46
-17.53
-17.38
-17.14
-16.89
-16.56
-15.85
-14.39
-11.86
-8.16
-3.39
2.12
8.00
13.86
19.39
24.37
28.69
32.30
35.17
37.24
38.37
38.41
37.31
35.12
32.05
28.38
24.34
20.08
15.63
11.00
6.30
1.80
-2.18
-5.31
-7.43
-8.61
-9.01
-8.90
-8.48
-7.85
-7.11
-6.29
-5.52
-4.95
-4.80
-5.20
-6.27
-8.01
-10.31
-12.97
-15.71
-18.19
-20.09
-21.20
-21.33
-20.44
-18.56
-15.83
-12.47
-8.74
-4.95
-1.34
1.89
4.62
6.78
8.33
9.25
9.58
9.40
8.86
8.16
7.45
6.82
6.27
5.73
5.10
4.32
3.34
2.14
0.75
-0.80
-2.40
-3.96
-5.36
-6.51
-7.35
-7.86
-8.06
-8.03
-7.93
-7.97
-8.33
-9.10
-10.19
-11.33
-12.15
-12.35
-11.76
-10.46
-8.67
-6.69
-4.83
-3.29
-2.21
-1.64
-1.60
-2.03
-2.87
-3.98
-5.26
-6.59
-7.91
-9.21
-10.49
-11.75
-12.99
-14.15
-15.14
-15.85
-16.17
-15.99
-15.32
-14.23
-12.87
-11.39
-9.89
-8.36
-6.75
-4.99
-3.09
-1.14
0.70
2.24
3.31
3.84
3.89
3.64
3.40
3.55
4.38
6.02
8.26
10.70
12.82
14.22
14.75
14.56
13.94
13.15
12.32
11.44
10.44
9.29
8.04
6.85
5.84
5.15
4.78
4.69
4.82
5.10
5.53
6.14
6.96
7.90
8.79
9.36
9.39
8.80
7.72
6.41
5.13
4.04
3.10
2.23
1.39
0.64
0.04
-0.43
-1.01
-2.04
-3.74
-6.05
-8.56
-10.64
-11.70
-11.43
-9.93
-7.53
-4.65
-1.55
1.71
5.15
8.74
12.28
15.46
17.96
19.63
20.59
21.13
21.58
22.12
22.74
23.30
23.64
23.72
23.64
23.50
23.42
23.38
23.25
22.82
21.93
20.48
18.57
16.42
14.31
12.45
10.92
9.60
8.32
6.89
5.24
3.40
1.47
-0.45
-2.22
-3.70
-4.72
-5.12
-4.87
-4.06
-2.94
-1.76
-0.61
0.71
2.61
5.59
9.98
15.76
22.47
29.41
35.86
41.34
45.81
49.65
53.51
58.01
63.45
69.77
76.54
83.19
89.28
94.63
99.31
103.57
107.53
111.15
114.07
115.59
114.51
109.25
98.17
80.22
55.45
25.23
-7.73
-39.97
-68.11
-89.78
-104.21
-112.06
-114.94
-114.56
-112.57
-109.97
-106.99
-103.49
-99.51
-95.71
-93.25
-93.30
-96.48
-103.46
-113.89
-126.00
-137.00
-144.25
-146.21
-142.61
-134.05
-121.51
-108.00
-96.31
-87.65
-81.31
-75.69
-69.50
-62.09
-53.17
-42.63
-33.60
-29.04
-29.74
-33.73
-38.11
-41.02
-42.13
-41.99
-41.51
-46.02
-60.96
-89.22
-130.08
-180.69
-237.99
-299.09
-360.91
-394.64
-379.54
-314.95
-222.64
-129.88
-53.15
3.66
44.06
73.64
97.26
113.62
119.97
115.66
103.32
87.32
70.67
54.83
41.16
32.34
29.28
32.07
42.31
60.28
83.95
107.92
126.23
135.41
135.94
129.23
117.47
102.97
87.44
72.82
60.19
50.64
45.58
46.36
52.77
64.25
81.53
100.84
121.82
144.08
166.23
185.70
199.26
203.81
197.80
182.14
159.54
134.42
110.27
89.10
71.54
57.45
46.45
38.20
32.25
27.60
23.50
18.81
12.60
4.54
-5.00
-15.12
-24.87
-33.59
-41.15
-47.42
-52.61
-57.09
-61.42
-66.54
-73.89
-85.21
-101.88
-124.23
-150.65
-177.91
-201.73
-218.07
-224.28
-219.80
-206.08
-185.80
-161.81
-136.20
-110.00
-83.36
-55.93
-27.30
2.72
34.02
66.11
97.95
128.03
154.40
175.11
188.77
195.04
194.79
189.71
181.74
172.31
162.04
150.73
137.68
122.20
103.93
82.99
59.91
35.59
11.11
-12.35
-33.71
-52.19
-67.42
-79.40
-88.22
-93.79
-95.62
-92.93
-85.11
-72.19
-55.20
-35.94
-16.39
2.05
18.82
34.07
48.04
60.49
70.63
77.46
80.48
80.12
77.71
74.91
73.06
72.62
73.18
73.73
73.20
70.85
66.49
60.49
53.64
46.98
41.57
38.15
36.92
37.36
38.21
37.65
33.83
25.46
12.55
-3.40
-19.59
-32.89
-41.05
-43.76
-42.86
-41.49
-42.72
-48.19
-57.59
-69.07
-80.44
-90.33
-98.68
-106.27
-113.76
-120.79
-125.83
-126.81
-122.14
-111.64
-96.71
-79.80
-63.32
-48.77
-36.31
-25.10
-13.98
-2.33
9.58
20.80
30.28
37.53
42.91
47.34
51.77
56.40
60.41
62.30
60.67
55.00
45.94
35.04
24.00
14.15
6.17
0.29
-3.30
-4.28
-2.27
2.89
10.87
20.81
31.52
41.69
50.16
56.04
58.82
58.51
55.71
51.44
46.76
42.47
38.80
35.49
32.07
28.13
23.62
18.82
14.27
10.48
7.74
5.99
4.91
4.01
2.75
0.72
-2.34
-6.48
-11.48
-16.84
-21.82
-25.58
-27.36
-26.66
-23.37
-17.82
-10.69
-2.90
4.57
10.96
15.83
19.22
21.56
23.46
25.42
27.57
29.64
31.16
31.68
31.16
29.97
28.75
28.14
28.52
29.85
31.76
33.72
35.26
36.15
36.31
35.76
34.55
32.78
30.76
29.09
28.48
29.40
31.49
33.26
32.40
26.64
14.86
-2.25
-22.24
-41.96
-58.76
-71.41
-80.15
-86.03
-89.96
-92.25
-92.69
-91.11
-87.84
-83.73
-79.74
-76.38
-73.39
-70.00
-65.39
-59.31
-52.25
-45.26
-39.42
-35.22
-32.30
-29.53
-25.52
-19.32
-10.95
-1.60
6.90
12.90
15.81
16.38
16.26
17.17
20.01
24.51
29.46
33.45
35.56
35.75
34.60
32.87
30.99
28.92
26.20
22.31
16.97
10.26
2.59
-5.45
-13.35
-20.86
-27.99
-34.91
-41.68
-48.06
-53.54
-57.54
-59.87
-60.76
-60.85
-61.00
-61.90
-63.75
-66.17
-68.31
-69.22
-68.27
-65.20
-60.22
-53.94
-47.22
-40.92
-35.71
-31.79
-29.03
-27.15
-25.60
-23.72
-21.14
-17.89
-14.34
-10.99
-7.91
-5.04
-2.70
-0.77
1.35
4.04
7.46
11.50
15.91
21.19
27.63
34.17
40.33
46.47
52.86
59.68
67.10
75.15
84.88
96.55
107.70
116.53
122.58
125.87
127.05
127.32
127.98
131.50
139.08
148.13
156.59
163.75
168.89
171.42
171.06
158.33
129.71
100.89
77.53
56.54
36.82
17.25
-3.24
-25.39
-49.31
-72.71
-93.00
-110.06
-122.71
-129.10
-128.97
-123.84
-116.43
-109.71
-104.79
-101.89
-102.22
-105.26
-109.01
-111.76
-112.32
-110.06
-104.83
-96.20
-84.39
-71.35
-58.44
-46.18
-34.96
-25.06
-16.72
-10.12
-4.92
-0.71
2.35
4.41
5.85
6.80
7.18
6.84
5.75
4.19
2.51
0.86
-0.59
-1.66
-2.32
-2.42
-1.83
-0.43
1.73
4.28
6.60
7.98
7.68
5.31
1.17
-3.91
-8.85
-12.62
-14.56
-14.51
-12.68
-9.83
-6.87
-4.42
-3.04
-3.05
-4.51
-7.16
-10.40
-13.17
-14.87
-15.30
-14.43
-12.83
-11.34
-10.57
-10.65
-11.11
-10.63
-8.08
-2.44
7.39
21.70
40.00
61.12
81.65
95.77
103.03
104.61
99.91
89.73
75.18
57.93
40.23
24.63
12.79
6.30
6.10
12.67
26.93
47.29
69.83
91.42
111.21
127.65
137.86
140.14
134.82
123.95
109.34
91.87
71.41
47.20
16.56
-21.90
-67.23
-116.39
-165.94
-214.08
-260.44
-304.85
-333.25
-333.98
-304.05
-252.26
-193.24
-139.44
-97.77
-69.46
-51.85
-40.44
-33.02
-28.72
-27.11
-27.24
-28.02
-28.80
-29.20
-28.99
-27.75
-26.64
-27.02
-29.57
-33.74
-38.85
-45.36
-53.21
-63.10
-75.89
-93.11
-114.99
-139.09
-159.29
-168.64
-162.31
-139.90
-106.16
-69.01
-37.16
-16.66
-9.21
-11.58
-18.98
-27.29
-34.22
-39.02
-40.94
-38.81
-30.43
-19.45
-6.77
6.86
20.66
33.68
45.18
55.80
66.08
75.89
84.49
92.24
99.86
108.56
119.80
135.52
159.69
194.23
236.84
280.66
317.18
338.21
338.68
318.25
282.28
243.14
211.95
194.12
188.41
190.65
196.41
203.00
209.32
216.26
229.44
251.64
280.94
311.93
339.95
362.78
380.51
393.47
372.43
304.58
199.88
84.45
-18.99
-100.57
-160.31
-199.08
-225.81
-245.78
-257.51
-260.25
-256.28
-250.34
-245.10
-241.01
-237.22
-233.75
-230.59
-225.00
-215.60
-203.07
-189.32
-175.52
-161.74
-147.69
-133.96
-120.80
-106.36
-89.38
-70.14
-50.38
-32.18
-17.32
-6.91
-1.66
-0.92
-2.30
-3.52
-3.34
-1.86
0.10
1.61
1.95
0.68
-2.00
-5.26
-8.41
-11.24
-13.93
-16.74
-19.66
-22.31
-24.08
-24.28
-22.57
-19.09
-14.54
-9.97
-6.39
-4.46
-4.31
-5.52
-7.43
-9.39
-11.07
-12.55
-14.25
-16.66
-20.12
-24.65
-29.95
-35.46
-40.58
-44.83
-47.96
-49.95
-50.90
-50.94
-50.07
-48.19
-45.10
-40.64
-34.77
-27.55
-19.10
-9.67
0.35
10.32
19.39
26.67
31.47
33.56
33.29
31.39
28.70
25.88
23.26
20.91
18.76
16.85
15.36
14.50
14.38
14.92
15.82
16.75
17.47
17.91
18.13
18.16
17.85
16.73
14.13
9.44
2.45
-6.46
-16.28
-25.73
-33.63
-39.25
-42.50
-43.80
-43.81
-43.24
-42.54
-41.83
-40.86
-39.11
-35.93
-30.80
-23.59
-14.62
-4.60
5.58
15.22
23.89
31.53
38.20
43.92
48.59
52.02
54.06
54.79
54.59
54.06
53.82
54.25
55.36
56.78
57.95
58.38
57.83
56.37
54.24
51.71
48.94
45.95
42.74
39.32
35.77
32.27
28.97
26.01
23.45
21.25
19.21
17.00
14.21
10.47
5.68
0.11
-5.67
-10.83
-14.61
-16.41
-15.96
-13.31
-8.91
-3.54
1.63
5.23
5.97
3.11
-3.16
-11.62
-20.29
-27.10
-30.53
-30.13
-26.45
-20.68
-14.13
-7.77
-2.22
2.11
4.82
5.45
3.61
-0.65
-6.73
-13.52
-19.76
-24.55
-27.61
-29.20
-29.73
-29.37
-27.85
-24.58
-19.18
-11.89
-3.66
4.08
9.95
13.15
13.55
11.62
8.03
3.30
-2.37
-8.96
-16.40
-24.26
-31.73
-37.66
-40.97
-40.93
-37.52
-31.39
-23.65
-15.48
-7.84
-1.26
4.08
8.21
11.12
12.67
12.62
10.78
7.15
2.15
-3.49
-8.86
-13.17
-15.97
-17.28
-17.45
-16.94
-16.17
-15.36
-14.62
-14.03
-13.73
-13.82
-14.30
-15.00
-15.63
-15.92
-15.84
-15.59
-15.59
-16.16
-17.35
-18.76
-19.69
-19.44
-17.57
-14.11
-9.49
-4.35
0.73
5.36
9.29
12.34
14.34
15.10
14.55
12.86
10.39
7.65
5.08
2.93
1.29
0.13
-0.62
-1.06
-1.22
-1.09
-0.68
-0.05
0.67
1.37
1.89
2.14
1.96
1.25
-0.09
-2.09
-4.71
-7.75
-10.87
-13.65
-15.81
-17.35
-18.51
-19.72
-21.38
-23.85
-27.18
-30.95
-34.37
-36.62
-37.19
-36.04
-33.54
-30.44
-27.61
-25.67
-24.46
-23.30
-21.55
-19.20
-16.90
-15.66
-16.55
-20.43
-27.24
-35.59
-43.31
-48.57
-50.72
-50.24
-48.28
-46.28
-45.55
-46.23
-46.88
-44.85
-37.47
-22.76
0.58
33.40
75.50
125.51
175.40
213.17
229.96
224.23
200.27
164.87
125.04
87.89
53.95
23.11
-4.13
-26.72
-43.87
-55.71
-63.37
-66.13
-64.53
-59.86
-52.93
-43.92
-32.55
-18.80
-3.45
11.99
25.69
35.59
40.11
39.13
33.97
26.88
20.06
14.79
11.31
9.20
7.62
5.93
4.28
3.31
3.78
6.05
9.86
14.54
19.27
23.19
25.60
26.28
25.33
23.08
19.89
16.09
11.97
7.86
3.97
0.45
-2.63
-5.42
-8.23
-11.39
-15.07
-19.16
-23.27
-26.80
-29.16
-29.90
-28.80
-25.99
-21.80
-16.74
-11.33
-6.03
-1.18
3.06
6.61
9.48
11.70
13.28
14.25
14.62
14.46
13.90
13.16
12.52
12.25
12.54
13.48
15.02
17.09
19.61
22.54
25.87
29.60
33.63
37.81
41.87
45.53
48.44
50.22
50.50
48.99
45.60
40.54
34.26
27.31
20.15
13.01
5.87
-1.44
-9.04
-16.95
-24.99
-32.91
-40.37
-47.08
-52.71
-56.91
-59.35
-59.79
-58.18
-54.70
-49.82
-44.11
-38.21
-32.65
-27.78
-23.72
-20.43
-17.76
-15.54
-13.59
-11.82
-10.18
-8.65
-7.24
-5.99
-4.91
-3.98
-3.13
-2.28
-1.39
-0.45
0.43
1.13
1.50
1.49
1.16
0.59
-0.11
-0.93
-1.90
-3.12
-4.63
-6.45
-8.48
-10.55
-12.50
-14.21
-15.63
-16.79
-17.76
-18.64
-19.53
-20.52
-21.68
-22.97
-24.18
-25.00
-25.03
-23.95
-21.65
-18.27
-14.18
-9.81
-5.51
-1.55
1.92
4.74
6.76
7.89
8.13
7.60
6.54
5.18
3.68
2.13
0.53
-1.05
-2.52
-3.76
-4.71
-5.43
-6.09
-6.96
-8.24
-10.03
-12.26
-14.76
-17.41
-20.15
-23.01
-26.07
-29.31
-32.60
-35.69
-38.36
-40.46
-41.98
-42.98
-43.58
-43.91
-44.06
-44.12
-44.00
-43.44
-41.93
-38.81
-33.49
-25.68
-15.51
-3.65
8.84
20.78
31.12
39.26
45.28
49.84
53.99
58.69
64.44
71.06
77.76
83.49
87.36
88.92
88.25
85.74
81.94
77.37
72.49
67.67
63.18
59.10
55.24
51.16
46.24
39.94
31.98
22.49
11.92
0.90
-10.01
-20.29
-29.56
-37.58
-44.25
-49.69
-54.00
-57.42
-60.15
-62.25
-63.56
-63.91
-63.47
-62.75
-62.43
-62.52
-62.48
-61.31
-58.03
-52.26
-44.57
-36.61
-30.32
-27.25
-27.29
-29.30
-31.38
-31.19
-26.09
-13.46
8.21
38.60
74.65
111.67
143.72
165.61
174.74
172.02
161.56
148.04
135.25
119.65
99.20
74.33
48.48
25.79
8.70
-1.44
-7.16
-10.91
-14.24
-16.81
-17.87
-16.98
-15.13
-14.90
-18.85
-29.60
-47.34
-69.63
-91.76
-109.35
-119.73
-122.40
-121.47
-117.32
-109.74
-98.14
-82.34
-62.56
-39.82
-15.54
9.49
33.49
55.26
73.15
85.51
90.78
88.29
78.55
63.44
45.61
27.63
11.86
-0.79
-10.32
-17.23
-21.94
-24.65
-25.47
-24.66
-22.89
-20.73
-19.10
-18.70
-19.73
-21.75
-23.92
-25.37
-25.58
-24.67
-23.05
-21.45
-20.45
-20.22
-20.50
-20.88
-20.95
-20.61
-20.08
-19.65
-19.55
-19.66
-19.46
-18.19
-15.08
-9.68
-2.05
7.18
16.97
26.21
33.94
39.63
43.16
44.75
44.81
43.76
41.91
39.46
36.46
32.85
28.49
23.24
17.03
9.94
2.28
-5.47
-12.74
-18.99
-23.82
-27.08
-28.89
-29.71
-30.25
-31.25
-33.27
-36.40
-40.27
-44.09
-47.00
-48.20
-47.25
-44.01
-38.68
-31.73
-23.83
-15.80
-8.38
-2.07
3.14
7.79
12.83
19.19
27.37
37.26
48.15
59.04
69.08
77.79
85.11
91.18
96.05
99.58
101.48
101.51
99.75
96.55
92.40
87.68
82.42
76.37
69.18
60.67
51.00
40.67
30.31
20.44
11.27
2.70
-5.49
-13.48
-21.24
-28.55
-35.13
-40.74
-45.27
-48.73
-51.27
-53.01
-54.08
-54.56
-54.55
-54.17
-53.54
-52.80
-52.00
-51.08
-49.81
-47.87
-44.95
-41.05
-36.55
-32.26
-29.23
-28.44
-30.45
-35.20
-42.04
-49.94
-57.79
-64.63
-69.83
-73.05
-74.42
-74.57
-74.69
-76.24
-80.45
-87.58
-96.41
-104.31
-107.92
-104.26
-91.85
-71.32
-45.24
-17.40
8.42
29.54
44.95
55.22
61.92
66.73
70.83
74.72
78.45
82.09
85.99
90.71
96.58
103.27
109.78
114.83
117.56
117.83
116.19
113.42
110.17
106.66
102.60
97.47
90.73
82.41
73.07
63.66
55.15
48.12
42.63
37.96
32.97
26.33
17.39
6.12
-6.97
-20.97
-34.69
-46.69
-55.62
-60.29
-60.02
-54.18
-43.70
-30.60
-17.88
-8.13
-2.13
0.64
3.28
6.16
9.15
11.94
14.29
16.17
16.40
14.93
11.93
7.51
1.38
-6.37
-15.32
-24.63
-33.20
-40.00
-44.29
-46.21
-46.58
-46.63
-47.05
-48.07
-49.49
-51.00
-52.41
-53.52
-54.38
-55.08
-55.85
-56.81
-58.24
-60.59
-64.34
-69.77
-76.64
-84.36
-92.09
-99.06
-104.78
-109.21
-112.52
-114.74
-115.42
-113.61
-108.15
-97.97
-82.31
-61.23
-35.83
-8.02
19.95
45.93
68.29
86.27
100.17
111.56
122.09
132.69
143.36
153.36
161.62
167.03
168.88
167.20
163.20
157.81
150.98
142.04
130.54
116.69
101.49
86.49
73.50
64.64
60.52
59.73
59.60
57.40
50.64
37.01
14.41
-21.87
-68.87
-115.37
-147.96
-158.95
-148.44
-122.33
-89.02
-56.64
-30.44
-11.44
1.57
10.03
14.78
16.38
15.22
12.49
9.18
6.89
7.49
11.30
16.64
20.71
21.27
17.26
9.31
-0.86
-11.16
-19.84
-26.73
-33.39
-42.42
-53.94
-67.46
-81.37
-93.55
-101.99
-105.39
-103.61
-97.66
-89.07
-79.16
-69.07
-59.36
-50.19
-41.41
-32.70
-23.86
-14.89
-6.00
2.60
10.52
17.41
22.95
26.89
29.07
29.55
28.64
26.95
25.17
23.77
22.98
22.72
22.72
22.63
22.19
21.32
20.09
18.76
17.52
16.49
15.66
14.86
13.92
12.74
11.28
9.58
7.69
5.63
3.40
1.13
-0.95
-2.55
-3.43
-3.53
-2.94
-1.85
-0.44
1.19
2.99
4.90
6.80
8.49
9.74
10.32
9.96
8.38
5.20
0.09
-7.09
-16.08
-26.21
-36.61
-46.41
-55.15
-62.77
-69.70
-76.47
-83.42
-90.39
-96.79
-101.80
-104.60
-104.60
-101.42
-94.96
-85.33
-72.66
-57.03
-38.47
-16.96
7.46
34.63
64.01
94.04
122.02
144.68
158.98
162.83
155.72
138.99
115.63
90.02
66.24
47.50
36.13
33.40
39.31
52.32
69.65
87.65
103.08
112.45
113.07
104.41
88.55
69.54
52.02
40.00
35.74
39.84
49.58
59.97
65.94
64.00
52.96
34.25
11.95
-12.95
-32.50
-38.68
-31.22
-18.58
-12.02
-19.51
-42.84
-77.91
-117.44
-153.38
-180.59
-196.64
-199.78
-188.13
-160.87
-120.02
-71.34
-23.23
16.67
43.31
55.91
58.14
55.78
53.39
52.19
50.37
44.89
34.12
18.37
-0.21
-18.51
-33.80
-44.81
-51.82
-55.33
-55.08
-49.65
-37.74
-19.65
2.09
23.35
40.03
49.82
52.99
52.16
49.58
46.32
41.96
35.35
25.84
14.07
1.78
-9.02
-17.02
-21.69
-23.27
-22.06
-18.44
-13.14
-7.45
-3.19
-1.86
-3.67
-6.80
-8.10
-4.58
4.83
18.12
30.94
38.58
38.18
30.08
17.50
4.75
-5.02
-10.73
-13.89
-16.96
-21.24
-26.28
-30.42
-31.96
-30.35
-26.34
-21.60
-17.75
-15.44
-14.36
-13.61
-12.40
-10.69
-9.20
-8.97
-10.74
-14.39
-18.63
-21.47
-21.04
-16.40
-8.18
1.72
11.13
18.41
22.79
24.99
26.67
29.55
34.63
42.36
51.98
62.57
72.90
81.43
86.53
86.70
81.19
70.29
55.14
37.47
19.31
1.95
-14.49
-30.80
-48.18
-67.66
-87.98
-107.50
-124.24
-135.73
-139.91
-135.64
-122.80
-102.38
-75.99
-45.94
-15.09
13.88
39.57
61.24
78.45
90.95
98.57
101.82
101.29
97.38
87.57
71.59
51.75
31.68
14.58
0.04
-12.44
-23.20
-31.45
-36.68
-38.33
-36.56
-32.41
-27.38
-22.90
-19.55
-17.59
-16.95
-17.27
-17.58
-17.09
-15.52
-13.02
-9.94
-6.25
-2.04
2.95
9.46
18.65
31.01
45.47
59.43
69.46
72.84
67.93
55.61
39.11
22.81
10.04
1.61
-4.20
-10.41
-19.45
-32.77
-49.43
-66.54
-80.48
-88.87
-91.41
-89.46
-85.43
-76.92
-63.91
-50.05
-41.57
-42.82
-52.77
-64.93
-69.94
-60.23
-33.93
2.64
38.18
61.78
68.15
59.52
43.57
28.65
19.05
13.80
8.16
-1.63
-15.56
-30.23
-41.78
-48.98
-52.11
-52.65
-50.63
-44.40
-31.28
-9.73
18.78
49.82
77.16
97.51
109.15
111.76
105.50
90.63
68.35
41.45
14.74
-5.43
-13.53
-7.86
9.00
31.64
54.22
72.48
84.51
87.88
82.18
68.77
50.15
29.95
12.12
-0.54
-6.95
-8.34
-8.90
-12.33
-18.73
-25.03
-27.56
-24.64
-18.91
-13.19
-9.91
-10.08
-12.45
-14.58
-14.34
-10.79
-2.98
8.67
23.45
40.24
57.63
74.50
89.91
102.98
112.77
118.49
119.39
114.99
104.70
87.72
63.63
32.90
-2.76
-40.43
-76.54
-108.06
-133.47
-153.19
-169.18
-183.55
-196.88
-207.63
-213.06
-210.91
-200.81
-184.69
-165.49
-146.12
-128.74
-113.87
-100.63
-87.59
-73.59
-58.16
-41.83
-25.23
-9.53
3.43
12.34
17.26
19.52
21.30
25.15
33.14
47.68
71.15
100.88
129.02
146.74
149.02
136.03
115.17
89.94
63.50
38.53
16.65
-1.01
-12.79
-17.30
-14.49
-6.01
4.43
13.50
18.83
19.37
16.05
11.18
7.24
5.79
6.86
8.48
9.22
8.63
7.21
6.63
8.62
14.46
24.69
38.95
55.64
71.47
83.22
88.87
88.88
84.78
78.17
70.37
64.43
58.70
51.38
41.29
28.10
12.79
-3.77
-20.76
-36.27
-47.05
-50.18
-44.60
-32.55
-20.54
-11.22
-5.96
-5.04
-7.06
-10.04
-12.14
-12.14
-10.23
-8.01
-7.49
-10.81
-18.81
-30.55
-44.21
-58.45
-72.69
-86.78
-100.07
-110.59
-116.00
-114.13
-103.99
-86.71
-65.35
-43.67
-24.71
-9.67
2.18
12.34
22.21
32.43
42.64
51.97
59.65
65.51
69.97
73.77
77.15
79.66
80.32
78.08
72.48
63.89
53.48
42.80
33.11
24.89
17.76
10.84
3.26
-5.26
-14.31
-22.93
-30.06
-35.03
-37.77
-38.83
-39.15
-39.65
-40.94
-43.06
-45.47
-47.14
-46.96
-44.08
-38.30
-30.16
-20.74
-11.22
-2.52
4.97
11.43
17.35
23.33
29.88
37.30
45.52
53.75
60.31
62.89
59.31
48.65
32.01
12.57
-5.39
-18.04
-23.26
-21.19
-13.80
-3.76
6.46
15.22
21.61
25.22
25.93
23.92
19.81
14.52
9.07
4.21
0.18
-3.30
-6.92
-11.51
-17.77
-26.03
-36.01
-46.82
-57.05
-65.11
-69.67
-70.04
-66.29
-59.14
-49.72
-39.15
-28.34
-17.91
-8.26
0.29
7.38
12.62
15.66
16.28
14.57
10.95
6.20
1.27
-2.93
-5.74
-6.90
-6.52
-4.99
-2.71
-0.03
2.85
5.74
8.37
10.43
11.62
11.93
11.69
11.65
12.64
15.26
19.52
24.71
29.59
32.79
33.26
30.62
25.26
18.13
10.50
3.55
-1.79
-4.93
-5.68
-4.13
-0.65
4.12
9.33
13.96
17.05
17.86
16.07
11.86
5.89
-0.90
-7.53
-13.23
-17.53
-20.23
-21.30
-20.75
-18.65
-15.22
-10.88
-6.24
-1.88
1.76
4.56
6.62
8.09
9.04
9.42
9.16
8.31
7.06
5.61
3.99
1.97
-0.85
-4.85
-10.16
-16.54
-23.39
-29.83
-34.88
-37.63
-37.43
-34.07
-27.85
-19.61
-10.51
-1.70
5.95
12.00
16.42
19.37
21.04
21.53
20.94
19.46
17.38
15.08
12.91
11.09
9.63
8.42
7.28
6.10
4.86
3.66
2.59
1.66
0.79
-0.17
-1.34
-2.73
-4.24
-5.71
-7.03
-8.14
-9.05
-9.81
-10.47
-11.12
-11.89
-12.97
-14.58
-16.72
-19.16
-21.33
-22.53
-22.11
-19.71
-15.38
-9.54
-2.90
3.78
9.78
14.59
17.92
19.71
20.12
19.44
18.02
16.19
14.18
12.17
10.27
8.54
7.04
5.77
4.70
3.76
2.87
1.99
1.11
0.25
-0.58
-1.41
-2.35
-3.51
-4.97
-6.77
-8.85
-11.10
-13.35
-15.42
-17.13
-18.38
-19.24
-19.90
-20.67
-21.78
-23.18
-24.47
-25.01
-24.14
-21.49
-17.10
-11.39
-5.01
1.44
7.50
12.85
17.28
20.61
22.69
23.42
22.91
21.40
19.26
16.85
14.44
12.19
10.14
8.31
6.76
5.57
4.82
4.50
4.49
4.57
4.51
4.13
3.38
2.32
1.08
-0.28
-1.74
-3.40
-5.36
-7.63
-10.15
-12.79
-15.45
-18.11
-20.90
-23.98
-27.45
-31.28
-35.24
-39.01
-42.27
-44.77
-46.32
-46.81
-46.20
-44.53
-42.00
-38.88
-35.56
-32.38
-29.60
-27.36
-25.74
-24.82
-24.76
-25.68
-27.54
-29.95
-32.01
-32.47
-30.04
-23.92
-14.23
-2.08
10.78
22.65
32.55
40.43
47.06
53.37
59.91
66.58
72.68
77.32
79.79
79.72
77.02
71.70
63.83
53.63
41.76
29.45
18.38
10.25
6.19
6.39
9.94
15.19
20.33
24.01
25.69
25.68
24.80
24.00
24.02
25.29
27.83
31.39
35.56
39.88
43.95
47.51
50.33
52.27
53.27
53.36
52.68
51.45
49.80
47.70
44.95
41.30
36.67
31.31
25.79
20.78
16.76
13.85
11.78
10.12
8.49
6.61
4.33
1.49
-2.06
-6.40
-11.46
-16.89
-22.17
-26.74
-30.25
-32.65
-34.18
-35.22
-36.18
-37.28
-38.57
-39.85
-40.78
-41.04
-40.24
-38.05
-34.27
-28.99
-22.64
-15.89
-9.48
-4.03
0.03
2.70
4.46
5.92
7.57
9.56
11.70
13.56
14.64
14.25
11.99
8.02
2.79
-3.10
-9.20
-15.27
-21.27
-27.27
-33.61
-40.17
-46.13
-50.31
-51.49
-48.86
-42.15
-31.57
-16.22
2.70
21.85
37.35
46.53
49.01
45.64
37.59
25.89
11.36
-5.31
-22.91
-39.31
-52.52
-60.72
-63.24
-60.78
-55.02
-48.27
-43.01
-42.15
-45.65
-52.46
-59.99
-64.93
-64.24
-56.28
-41.67
-23.17
-4.69
11.05
20.87
24.51
23.93
21.92
20.92
22.29
26.55
33.07
40.59
46.96
50.02
48.05
40.76
29.97
19.10
12.42
12.91
21.15
34.85
50.17
63.10
70.83
72.44
66.70
54.34
36.83
15.84
-7.11
-30.36
-52.20
-70.99
-85.46
-94.89
-98.93
-97.91
-92.62
-84.07
-73.08
-60.28
-46.24
-31.52
-16.91
-3.15
8.86
18.27
24.52
27.59
28.00
26.56
24.11
21.22
18.26
15.22
11.96
8.31
4.28
0.09
-3.89
-7.24
-9.61
-10.77
-10.84
-10.23
-9.55
-9.34
-9.95
-11.33
-13.16
-15.01
-16.59
-17.92
-19.32
-21.23
-23.90
-27.25
-30.80
-33.82
-35.58
-35.58
-33.77
-30.48
-26.39
-22.31
-18.95
-16.75
-15.73
-15.52
-15.39
-14.49
-12.18
-8.16
-2.60
3.97
10.97
17.93
24.65
31.13
37.44
43.55
49.38
54.87
60.15
65.54
71.44
78.00
85.00
91.80
97.50
101.21
102.40
100.89
96.92
90.94
83.38
74.48
64.23
52.41
38.79
23.33
6.35
-11.38
-28.74
-44.50
-57.65
-67.65
-74.51
-78.75
-81.04
-82.06
-82.18
-81.52
-79.95
-77.27
-73.38
-68.33
-62.33
-55.67
-48.71
-41.79
-35.30
-29.56
-24.83
-21.22
-18.68
-17.02
-15.98
-15.27
-14.66
-14.02
-13.38
-12.89
-12.78
-13.31
-14.68
-16.92
-19.94
-23.49
-27.25
-30.87
-33.94
-36.14
-37.25
-37.32
-36.68
-35.78
-34.99
-34.31
-33.27
-31.10
-27.20
-21.53
-14.77
-8.07
-2.43
1.84
5.37
9.47
15.59
24.63
36.66
51.01
66.71
83.04
99.72
116.85
134.42
152.03
168.79
183.59
195.62
204.57
210.41
212.64
209.69
199.12
178.77
148.43
110.94
71.79
37.06
10.87
-6.32
-17.30
-26.07
-35.33
-45.25
-53.96
-59.45
-61.35
-61.28
-61.78
-64.64
-69.80
-75.61
-79.95
-81.54
-80.43
-77.84
-75.28
-73.83
-73.85
-74.94
-76.34
-77.23
-77.12
-76.07
-74.80
-74.43
-75.91
-79.50
-84.44
-89.25
-92.29
-92.42
-89.29
-83.05
-73.97
-62.24
-48.09
-32.23
-16.14
-2.00
8.00
12.43
11.22
5.77
-1.54
-8.07
-11.64
-10.93
-5.62
3.75
16.02
29.58
42.65
53.44
60.44
62.76
60.38
54.28
46.31
38.76
33.71
32.43
35.10
40.79
47.91
54.76
60.01
63.05
63.98
63.32
61.77
59.82
57.57
54.85
51.36
46.86
41.28
34.68
27.24
19.16
10.66
2.10
-5.90
-12.53
-17.03
-18.92
-18.25
-15.55
-11.75
-7.92
-4.99
-3.49
-3.48
-4.73
-6.83
-9.39
-12.00
-14.37
-16.45
-18.29
-19.95
-21.37
-22.41
-22.76
-22.10
-19.70
-15.18
-8.82
-1.51
5.71
12.16
17.50
22.05
26.25
31.34
37.96
45.68
53.26
59.32
63.21
64.71
64.47
63.17
62.78
64.64
68.63
73.59
78.03
81.30
83.05
83.90
84.21
85.97
90.39
97.26
105.47
113.83
122.43
131.61
142.75
143.51
126.85
94.76
57.44
25.24
1.86
-9.32
-14.48
-18.20
-22.81
-26.71
-27.67
-26.88
-25.55
-25.93
-30.42
-39.43
-50.72
-61.93
-70.39
-75.30
-77.74
-79.23
-83.52
-90.80
-100.29
-110.45
-120.57
-129.86
-138.59
-148.56
-158.05
-167.87
-178.63
-190.87
-203.91
-216.15
-224.86
-227.54
-223.04
-211.88
-196.84
-180.65
-165.57
-152.46
-140.90
-129.41
-116.22
-100.12
-80.86
-59.89
-39.12
-20.62
-5.88
4.55
11.03
14.50
15.98
16.33
15.85
14.97
14.34
14.79
17.06
21.50
27.97
35.94
44.93
54.68
65.52
78.06
92.72
109.10
125.83
140.83
152.00
158.10
159.11
156.28
151.44
146.24
141.56
137.39
133.21
128.43
122.71
116.03
108.55
100.42
91.82
82.91
73.97
65.38
57.46
50.43
44.27
38.77
33.57
28.27
22.54
16.22
9.34
2.13
-5.02
-11.62
-17.16
-21.18
-23.34
-23.55
-22.01
-19.25
-16.02
-13.06
-11.01
-10.22
-10.85
-12.97
-16.59
-21.68
-27.97
-34.85
-41.42
-46.74
-50.13
-51.47
-51.17
-49.96
-48.49
-46.99
-45.24
-42.76
-39.18
-34.51
-29.20
-23.95
-19.38
-15.77
-13.00
-10.64
-8.31
-5.83
-3.32
-1.12
0.46
1.34
1.67
1.76
1.83
1.89
1.63
0.48
-2.19
-6.82
-13.44
-21.70
-30.98
-40.66
-50.43
-60.56
-71.72
-84.56
-99.39
-116.06
-133.97
-152.17
-169.07
-182.48
-189.69
-188.15
-176.40
-155.19
-127.75
-99.03
-74.01
-55.65
-44.16
-37.45
-32.36
-26.11
-17.18
-5.40
8.73
24.69
42.95
63.68
85.89
107.20
124.59
135.14
136.94
129.61
114.45
95.42
76.33
59.38
45.43
35.44
31.42
36.14
51.81
78.49
115.56
158.76
200.82
234.27
254.67
261.82
258.44
248.17
234.01
221.08
212.60
208.93
208.30
208.71
208.94
208.38
206.84
185.99
138.86
73.51
7.70
-44.98
-80.83
-102.49
-114.18
-118.46
-117.82
-109.98
-93.71
-71.05
-46.87
-26.36
-13.07
-10.47
-22.34
-49.17
-84.66
-119.77
-146.26
-158.86
-155.97
-139.42
-114.38
-88.75
-70.24
-62.09
-63.80
-72.16
-82.94
-92.91
-102.56
-110.86
-117.67
-122.92
-125.70
-125.64
-123.62
-121.40
-121.37
-124.70
-130.58
-137.51
-143.95
-149.26
-155.07
-165.81
-182.65
-208.91
-245.74
-289.88
-333.83
-367.18
-379.94
-366.32
-326.97
-268.68
-202.18
-137.19
-79.26
-29.28
15.35
58.17
101.33
144.43
184.66
217.12
236.95
240.57
226.45
195.73
152.07
100.52
46.43
-5.45
-51.59
-88.96
-114.70
-126.48
-123.15
-105.49
-76.19
-39.23
1.38
42.20
80.88
115.80
145.58
168.77
184.18
191.32
190.73
184.00
173.28
160.81
148.43
137.33
128.03
120.41
113.86
107.64
101.10
93.98
86.47
78.97
71.81
65.04
58.48
51.89
45.30
39.07
33.80
30.06
28.12
27.86
28.78
30.32
31.95
33.39
34.50
35.29
35.81
36.18
36.54
37.12
38.17
39.81
41.90
44.04
45.76
46.72
46.95
46.79
46.70
46.96
47.49
47.88
47.71
46.77
45.31
43.84
42.88
42.61
42.75
42.72
41.95
40.21
37.57
34.38
30.94
27.39
23.65
19.68
15.67
12.16
9.94
9.69
11.64
15.40
20.05
24.50
27.96
30.17
31.44
32.31
33.24
34.28
35.10
35.17
34.12
31.94
29.04
26.05
23.51
21.68
20.41
19.26
17.75
15.53
12.45
8.51
3.69
-2.02
-8.65
-16.10
-24.08
-32.18
-39.95
-47.12
-53.56
-59.24
-64.11
-68.05
-70.91
-72.61
-73.28
-73.17
-72.55
-71.50
-69.87
-67.30
-63.39
-57.92
-50.91
-42.72
-33.90
-25.07
-16.75
-9.28
-2.79
2.68
7.13
10.52
12.83
14.07
14.43
14.19
13.67
13.13
12.66
12.23
11.75
11.21
10.71
10.39
10.35
10.55
10.76
10.68
10.02
8.68
6.79
4.62
2.43
0.35
-1.63
-3.60
-5.64
-7.72
-9.82
-11.92
-14.08
-16.34
-18.70
-20.90
-22.52
-23.06
-22.11
-19.53
-15.48
-10.42
-4.96
0.32
5.01
8.88
11.89
14.11
15.57
16.30
16.27
15.56
14.29
12.72
11.08
9.53
8.08
6.69
5.34
4.08
3.03
2.25
1.71
1.25
0.61
-0.39
-1.84
-3.65
-5.60
-7.49
-9.21
-10.74
-12.18
-13.66
-15.27
-17.03
-18.88
-20.67
-22.18
-23.13
-23.24
-22.24
-20.06
-16.83
-12.89
-8.71
-4.72
-1.20
1.75
4.13
5.93
7.11
7.63
7.50
6.89
5.99
4.97
3.92
2.79
1.56
0.28
-0.91
-1.82
-2.40
-2.73
-3.05
-3.55
-4.34
-5.36
-6.49
-7.62
-8.72
-9.87
-11.16
-12.66
-14.40
-16.38
-18.54
-20.75
-22.74
-24.14
-24.55
-23.66
-21.42
-18.06
-14.00
-9.71
-5.52
-1.63
1.85
4.83
7.19
8.82
9.65
9.73
9.22
8.32
7.24
6.14
5.11
4.21
3.45
2.77
2.11
1.38
0.52
-0.44
-1.48
-2.54
-3.61
-4.71
-5.88
-7.14
-8.49
-9.93
-11.48
-13.21
-15.21
-17.52
-20.09
-22.70
-24.94
-26.28
-26.26
-24.62
-21.42
-17.05
-12.09
-7.10
-2.49
1.56
5.00
7.84
10.07
11.65
12.59
12.98
12.99
12.79
12.49
12.14
11.70
11.15
10.48
9.73
8.98
8.28
7.68
7.16
6.68
6.09
5.27
4.08
2.44
0.40
-1.95
-4.44
-6.92
-9.29
-11.57
-13.82
-16.19
-18.81
-21.67
-24.60
-27.19
-28.93
-29.33
-28.09
-25.18
-20.86
-15.62
-9.99
-4.48
0.54
4.84
8.33
11.03
13.02
14.39
15.24
15.66
15.71
15.51
15.15
14.70
14.15
13.46
12.59
11.54
10.44
9.46
8.72
8.18
7.67
6.90
5.67
3.93
1.79
-0.51
-2.76
-4.82
-6.72
-8.57
-10.53
-12.80
-15.53
-18.77
-22.47
-26.38
-30.07
-33.01
-34.67
-34.70
-33.08
-30.19
-26.65
-23.18
-20.31
-18.23
-16.79
-15.59
-14.26
-12.55
-10.43
-8.00
-5.32
-2.42
0.77
4.29
8.05
11.86
15.43
18.52
21.06
23.12
24.89
26.51
27.96
29.09
29.60
29.22
27.83
25.52
22.51
19.02
15.17
10.90
6.03
0.43
-5.91
-12.73
-19.63
-26.15
-31.96
-36.93
-41.06
-44.37
-46.70
-47.73
-47.06
-44.49
-40.17
-34.65
-28.74
-23.26
-18.89
-16.12
-15.25
-16.44
-19.48
-23.62
-27.49
-29.37
-27.80
-22.23
-13.34
-2.87
7.11
14.99
20.14
22.94
24.28
25.01
25.49
25.67
25.32
24.43
23.34
22.68
23.04
24.66
27.32
30.41
33.19
35.11
35.94
35.74
34.73
33.13
31.10
28.78
26.46
24.52
23.44
23.58
25.05
27.67
30.98
34.45
37.55
39.86
41.09
41.15
40.06
37.99
35.18
31.81
28.04
23.96
19.74
15.59
11.82
8.66
6.20
4.35
2.86
1.50
0.16
-1.08
-2.12
-2.89
-3.47
-4.06
-4.84
-5.88
-7.14
-8.49
-9.83
-11.12
-12.35
-13.52
-14.61
-15.59
-16.50
-17.51
-18.87
-20.80
-23.32
-26.14
-28.71
-30.28
-30.19
-28.03
-23.82
-17.96
-11.09
-3.97
2.78
8.66
13.42
16.93
19.20
20.27
20.27
19.39
17.89
16.06
14.16
12.36
10.79
9.48
8.48
7.88
7.75
8.14
9.03
10.29
11.74
13.19
14.45
15.41
15.94
15.95
15.31
13.92
11.78
9.06
6.05
3.00
0.13
-2.54
-5.04
-7.47
-9.94
-12.52
-15.18
-17.78
-20.05
-21.65
-22.23
-21.48
-19.28
-15.82
-11.48
-6.73
-1.98
2.38
6.09
8.90
10.75
11.69
11.86
11.46
10.91
10.52
10.41
10.44
10.29
9.93
9.45
8.97
8.61
8.81
9.91
11.85
14.15
15.88
16.70
16.61
15.80
14.66
14.30
15.61
18.77
23.17
27.40
30.97
33.86
36.26
38.44
41.58
46.65
54.05
63.40
73.39
83.65
93.87
103.36
105.57
96.16
75.25
47.65
22.98
2.41
-14.79
-29.68
-43.29
-55.73
-66.07
-73.46
-77.76
-79.67
-80.90
-82.12
-83.62
-85.48
-87.60
-89.05
-88.89
-86.63
-82.44
-77.31
-71.47
-65.01
-58.20
-51.56
-45.42
-40.18
-36.25
-33.91
-33.34
-33.78
-34.28
-34.08
-32.83
-30.34
-26.57
-21.61
-15.66
-9.03
-1.87
5.69
13.40
20.99
28.23
34.87
40.68
45.42
48.95
51.37
52.95
53.91
54.33
53.98
52.50
49.65
45.45
40.32
34.82
29.37
24.01
18.44
12.15
4.84
-3.40
-12.11
-20.62
-28.38
-35.08
-40.75
-45.60
-49.88
-53.73
-57.12
-59.92
-61.86
-62.75
-62.49
-61.16
-58.98
-56.14
-52.78
-48.87
-44.28
-38.92
-32.81
-26.20
-19.48
-13.12
-7.46
-2.67
1.25
4.39
6.87
8.74
10.00
10.64
10.64
10.13
9.26
8.23
7.18
6.19
5.26
4.34
3.45
2.62
1.93
1.43
1.09
0.80
0.41
-0.26
-1.34
-2.84
-4.67
-6.69
-8.76
-10.84
-12.93
-15.11
-17.42
-19.81
-22.13
-24.11
-25.43
-25.78
-24.89
-22.59
-18.89
-13.95
-8.09
-1.75
4.60
10.56
15.77
19.98
23.05
24.92
25.70
25.57
24.78
23.55
22.07
20.43
18.73
17.05
15.47
14.07
12.85
11.77
10.74
9.70
8.57
7.30
5.89
4.32
2.64
0.87
-0.95
-2.89
-5.01
-7.38
-10.00
-12.75
-15.45
-17.85
-19.66
-20.59
-20.39
-18.88
-16.02
-12.02
-7.28
-2.32
2.39
6.52
9.91
12.54
14.43
15.57
15.92
15.46
14.23
12.37
10.04
7.43
4.66
1.75
-1.30
-4.55
-8.00
-11.55
-15.04
-18.24
-20.96
-23.10
-24.71
-25.93
-26.96
-28.00
-29.20
-30.67
-32.52
-34.83
-37.70
-41.14
-44.96
-48.72
-51.72
-53.06
-51.94
-47.84
-40.75
-31.18
-20.04
-8.37
2.91
13.16
22.12
29.78
36.27
41.74
46.30
49.98
52.81
54.83
56.13
56.86
57.13
56.96
56.29
55.05
53.20
50.85
48.22
45.54
42.94
40.36
37.58
34.41
30.84
27.04
23.39
20.22
17.68
15.70
14.02
12.35
10.47
8.24
5.65
2.82
0.02
-2.31
-3.60
-3.32
-1.10
3.07
8.83
15.53
22.48
29.07
34.91
39.78
43.55
46.09
47.26
46.97
45.27
42.38
38.66
34.48
30.17
25.86
21.56
17.19
12.76
8.39
4.32
0.78
-2.20
-4.81
-7.40
-10.30
-13.57
-16.92
-19.82
-21.79
-22.67
-22.75
-22.72
-23.37
-25.33
-28.87
-33.87
-39.93
-46.41
-52.57
-57.55
-60.47
-60.60
-57.57
-51.52
-43.20
-33.72
-24.33
-16.09
-9.69
-5.34
-2.96
-2.25
-2.81
-4.09
-5.46
-6.26
-5.92
-4.09
-0.60
4.44
10.64
17.47
24.35
30.70
35.96
39.68
41.62
42.10
41.74
41.23
41.13
41.75
43.07
44.72
46.19
46.95
47.07
46.81
46.47
46.29
46.45
46.99
47.80
48.54
48.63
47.92
46.16
43.12
38.85
33.85
29.07
25.54
23.92
20.93
14.68
4.92
-6.88
-18.52
-28.14
-34.52
-37.03
-35.63
-31.14
-24.89
-19.34
-17.51
-21.81
-32.82
-48.78
-66.21
-81.46
-92.20
-97.75
-99.17
-98.09
-95.54
-91.34
-84.64
-74.89
-62.57
-49.29
-36.74
-26.09
-17.40
-9.70
-1.62
7.71
18.01
27.81
34.99
37.79
35.36
28.18
17.84
6.60
-3.25
-10.07
-12.87
-11.54
-6.62
0.71
8.85
16.05
20.67
21.58
18.58
12.33
4.13
-4.42
-11.87
-17.29
-20.47
-21.70
-21.58
-20.71
-19.59
-18.69
-18.15
-18.02
-18.29
-18.85
-19.25
-19.03
-17.92
-16.08
-14.18
-13.00
-13.08
-14.48
-16.76
-18.94
-19.61
-17.23
-10.72
0.07
13.98
28.68
41.18
48.86
49.62
44.00
33.86
21.16
7.83
-5.55
-17.96
-27.64
-32.28
-29.85
-19.79
-3.46
16.01
34.20
48.00
56.23
59.13
57.23
51.58
41.16
25.98
7.85
-9.65
-22.29
-26.92
-23.02
-13.06
