1651139506.00
64.000000
-0.00
-0.00
-0.00
-0.00
-0.00
-0.00
-0.00
-0.00
-0.00
-0.00
0.00
0.01
0.01
-0.00
-0.03
-0.05
-0.05
0.00
0.13
0.36
0.66
1.01
1.37
1.72
2.06
2.40
2.79
3.24
3.80
4.42
5.06
5.66
6.20
6.68
7.15
7.68
8.31
9.14
10.09
11.04
11.88
12.56
13.14
13.76
14.65
15.96
17.91
20.32
22.90
25.38
27.58
29.57
31.68
34.32
37.81
42.54
48.15
54.10
59.83
64.97
69.58
74.14
79.34
85.71
93.76
103.00
112.62
121.73
129.77
136.75
143.30
150.75
157.77
166.64
177.95
191.79
206.97
220.57
228.25
225.36
208.53
176.87
132.76
80.05
23.07
-34.94
-92.44
-149.16
-205.23
-260.37
-313.74
-363.87
-409.83
-450.91
-486.50
-515.74
-537.23
-549.22
-549.96
-538.37
-514.21
-478.67
-433.88
-382.45
-327.02
-269.84
-212.63
-156.66
-102.95
-52.37
-5.90
35.58
71.43
101.35
125.50
144.38
158.69
169.15
176.37
180.75
182.57
182.07
179.51
175.23
169.65
163.18
156.15
148.81
141.30
133.69
126.02
118.33
110.69
103.16
95.80
88.68
81.83
75.25
68.95
62.95
57.25
51.86
46.78
42.03
37.59
33.45
29.61
26.07
22.81
19.83
17.11
14.67
12.48
10.54
8.83
7.35
6.07
4.97
4.05
3.27
2.62
2.09
1.65
1.30
1.01
0.79
0.61
0.47
0.37
0.28
0.23
0.18
0.15
0.13
0.13
0.13
0.14
0.16
0.18
0.21
0.24
0.28
0.32
0.36
0.41
0.46
0.50
0.55
0.60
0.65
0.71
0.77
0.83
0.91
0.99
1.07
1.17
1.28
1.40
1.53
1.68
1.85
2.04
2.25
2.48
2.74
3.03
3.34
3.69
4.06
4.47
4.92
5.40
5.92
6.48
7.08
7.72
8.40
9.13
9.90
10.72
11.58
12.49
13.45
14.48
15.57
16.73
17.90
19.09
20.25
21.37
22.39
23.25
23.87
24.10
23.83
22.89
21.21
18.75
15.54
11.69
7.38
2.80
-1.84
-6.36
-10.63
-14.50
-17.86
-20.58
-22.54
-23.68
-24.02
-23.70
-22.95
-22.06
-21.26
-20.66
-20.24
-19.82
-19.19
-18.25
-17.05
-15.84
-14.98
-14.73
-15.14
-16.02
-16.95
-17.51
-17.46
-16.91
-16.28
-16.13
-16.94
-18.79
-21.35
-24.00
-26.10
-27.29
-27.61
-27.52
-27.64
-28.56
-30.83
-34.78
-40.41
-46.96
-52.77
-55.41
-52.50
-42.68
-26.54
-6.58
13.57
30.50
42.27
48.75
51.18
51.22
50.06
48.13
45.35
41.69
37.45
33.25
29.71
27.10
25.25
23.60
21.48
18.48
14.58
10.11
5.61
1.51
-2.02
-5.08
-7.95
-10.83
-13.79
-16.68
-19.38
-21.94
-24.67
-28.06
-32.45
-37.72
-43.02
-46.95
-47.90
-44.71
-37.06
-25.65
-12.01
2.04
14.90
25.52
33.51
38.96
42.23
43.78
44.11
43.67
42.82
41.76
40.51
38.96
37.01
34.68
32.16
29.75
27.69
26.12
24.98
24.15
23.46
22.81
22.19
21.54
20.77
19.69
18.13
16.01
13.39
10.48
7.57
4.89
2.53
0.38
-1.86
-4.50
-7.79
-11.74
-16.15
-20.59
-24.61
-27.89
-30.34
-32.16
-33.72
-35.49
-37.93
-41.38
-45.97
-51.41
-56.94
-61.31
-63.10
-61.15
-54.96
-44.90
-32.14
-18.21
-4.59
7.60
17.75
25.64
31.35
35.04
36.99
37.52
36.98
35.74
34.14
32.46
30.96
29.77
28.92
28.33
27.81
27.21
26.46
25.62
24.77
23.94
23.05
21.91
20.35
18.26
15.71
12.85
9.92
7.10
4.54
2.31
0.39
-1.39
-3.26
-5.45
-8.10
-11.16
-14.42
-17.56
-20.36
-22.71
-24.72
-26.64
-28.79
-31.50
-35.04
-39.50
-44.65
-49.86
-54.13
-56.21
-55.02
-49.96
-41.19
-29.60
-16.60
-3.70
7.85
17.29
24.46
29.56
32.98
35.07
36.07
36.09
35.25
33.72
31.77
29.69
27.73
26.06
24.74
23.73
22.97
22.37
21.85
21.35
20.85
20.33
19.79
19.16
18.31
17.03
15.18
12.76
9.95
7.09
4.42
2.03
-0.22
-2.62
-5.41
-8.63
-12.12
-15.57
-18.70
-21.42
-23.80
-26.00
-28.22
-30.67
-33.58
-37.24
-41.83
-47.30
-53.13
-58.33
-61.60
-61.72
-57.96
-50.35
-39.66
-27.15
-14.25
-2.22
8.07
16.18
22.06
26.00
28.44
29.81
30.45
30.55
30.23
29.53
28.57
27.48
26.38
25.34
24.39
23.55
22.89
22.45
22.20
22.02
21.75
21.20
20.24
18.76
16.71
14.12
11.12
7.98
5.08
2.71
0.88
-0.69
-2.52
-5.03
-8.38
-12.33
-16.36
-19.99
-22.92
-25.18
-27.09
-29.09
-31.58
-34.87
-39.09
-44.15
-49.66
-54.92
-58.89
-60.42
-58.55
-52.84
-43.59
-31.82
-18.95
-6.46
4.56
13.55
20.46
25.49
28.91
30.91
31.67
31.44
30.54
29.35
28.18
27.16
26.25
25.32
24.26
23.14
22.18
21.62
21.60
22.03
22.57
22.76
22.21
20.71
18.31
15.29
12.00
8.73
5.54
2.31
-1.16
-5.05
-9.33
-13.75
-17.98
-21.72
-24.89
-27.65
-30.38
-33.53
-37.42
-42.15
-47.46
-52.68
-56.93
-59.15
-58.45
-54.29
-46.68
-36.24
-24.02
-11.29
0.77
11.32
19.87
26.33
30.87
33.75
35.27
35.71
35.34
34.46
33.33
32.23
31.28
30.43
29.55
28.44
27.05
25.47
23.94
22.71
21.89
21.38
20.90
20.03
18.47
16.15
13.27
10.19
7.27
4.70
2.41
0.14
-2.40
-5.41
-8.91
-12.74
-16.70
-20.54
-24.14
-27.44
-30.50
-33.54
-36.90
-40.97
-46.01
-51.86
-57.84
-62.75
-65.21
-64.06
-58.79
-49.68
-37.73
-24.29
-10.70
1.95
12.98
22.03
28.95
33.76
36.61
37.83
37.83
37.16
36.28
35.52
35.03
34.75
34.54
34.24
33.76
33.10
32.33
31.55
30.84
30.23
29.64
28.97
28.00
26.52
24.37
21.44
17.83
13.82
9.78
6.16
3.15
0.78
-1.26
-3.37
-5.92
-9.05
-12.62
-16.31
-19.79
-22.88
-25.59
-28.12
-30.73
-33.71
-37.35
-41.85
-47.24
-53.22
-59.00
-63.38
-64.97
-62.63
-55.90
-45.18
-31.70
-17.07
-2.89
9.63
19.85
27.61
33.10
36.71
38.82
39.77
39.79
39.04
37.65
35.74
33.55
31.36
29.46
28.07
27.29
27.06
27.25
27.61
27.90
27.86
27.25
25.88
23.71
20.85
17.53
14.05
10.71
7.63
4.79
1.99
-0.98
-4.26
-7.84
-11.50
-14.97
-18.04
-20.70
-23.18
-26.01
-29.75
-34.74
-40.88
-47.39
-53.00
-56.16
-55.57
-50.67
-41.76
-29.96
-16.78
-3.70
8.17
18.16
26.00
31.60
35.09
36.71
36.88
36.12
34.93
33.65
32.44
31.32
30.22
29.15
28.19
27.49
27.12
27.10
27.27
27.41
27.24
26.57
25.26
23.31
20.78
17.80
14.51
11.09
7.72
4.57
1.79
-0.61
-2.74
-4.84
-7.22
-10.08
-13.48
-17.29
-21.21
-24.86
-28.00
-30.61
-32.96
-35.56
-39.00
-43.71
-49.71
-56.43
-62.73
-67.09
-68.07
-64.73
-56.92
-45.37
-31.47
-16.88
-3.13
8.71
18.11
25.08
29.87
32.92
34.64
35.41
35.55
35.31
34.85
34.26
33.53
32.60
31.48
30.27
29.20
28.52
28.39
28.77
29.40
29.89
29.88
29.20
27.88
26.15
24.28
22.43
20.53
18.40
15.82
12.72
9.25
5.77
2.68
0.26
-1.49
-2.88
-4.31
-6.18
-8.66
-11.70
-15.07
-18.51
-21.79
-24.85
-27.75
-30.68
-33.92
-37.81
-42.60
-48.30
-54.47
-60.19
-64.16
-65.01
-61.75
-54.09
-42.65
-28.72
-14.00
-0.09
11.81
21.12
27.75
31.99
34.31
35.21
35.20
34.66
33.88
33.03
32.22
31.45
30.72
30.07
29.52
29.13
28.87
28.72
28.60
28.48
28.32
28.02
27.42
26.30
24.46
21.83
18.52
14.84
11.20
7.94
5.19
2.88
0.72
-1.62
-4.37
-7.57
-11.03
-14.48
-17.66
-20.47
-22.94
-25.28
-27.71
-30.53
-34.04
-38.47
-43.88
-49.92
-55.75
-60.05
-61.36
-58.61
-51.50
-40.64
-27.40
-13.44
-0.28
11.04
20.03
26.64
31.07
33.60
34.58
34.36
33.35
31.94
30.49
29.24
28.30
27.68
27.34
27.22
27.31
27.60
28.04
28.52
28.79
28.63
27.89
26.57
24.81
22.80
20.66
18.40
15.90
13.06
9.88
6.50
3.16
0.12
-2.50
-4.76
-6.89
-9.20
-11.94
-15.18
-18.86
-22.72
-26.46
-29.83
-32.72
-35.19
-37.55
-40.24
-43.75
-48.41
-54.20
-60.60
-66.56
-70.73
-71.70
-68.56
-61.12
-50.04
-36.62
-22.44
-8.95
2.82
12.38
19.67
24.91
28.44
30.62
31.81
32.33
32.43
32.27
31.94
31.47
30.88
30.26
29.76
29.54
29.71
30.24
30.97
31.66
32.05
31.92
31.18
29.82
27.97
25.81
23.54
21.31
19.20
17.16
15.05
12.70
10.00
6.95
3.71
0.53
-2.35
-4.81
-6.90
-8.82
-10.85
-13.23
-16.04
-19.18
-22.40
-25.45
-28.21
-30.74
-33.31
-36.33
-40.25
-45.33
-51.46
-57.99
-63.75
-67.27
-67.17
-62.63
-53.65
-41.13
-26.53
-11.56
2.29
14.04
23.24
29.91
34.34
36.91
38.02
38.01
37.20
35.83
34.19
32.51
30.95
29.60
28.40
27.23
25.98
24.65
23.36
22.29
21.54
21.09
20.73
20.10
18.87
16.84
13.99
10.55
6.82
3.04
-0.68
-4.37
-8.20
-12.27
-16.61
-21.15
-25.70
-30.04
-34.00
-37.47
-40.46
-43.13
-45.75
-48.61
-52.05
-56.28
-61.24
-66.47
-71.07
-73.84
-73.50
-69.13
-60.48
-48.09
-33.17
-17.31
-2.03
11.53
22.71
31.29
37.39
41.25
43.21
43.63
42.89
41.40
39.53
37.57
35.70
34.03
32.60
31.45
30.66
30.32
30.40
30.73
30.97
30.72
29.68
27.71
24.92
21.50
17.63
13.35
8.52
2.83
-4.06
-12.34
-21.98
-32.59
-43.51
-53.94
-63.20
-70.91
-77.10
-82.16
-86.58
-90.67
-94.27
-96.65
-96.59
-92.75
-84.02
-70.07
-51.50
-29.87
-7.27
14.18
32.70
47.26
57.44
63.44
65.88
65.59
63.57
60.72
57.69
54.81
52.07
49.32
46.49
43.66
41.08
38.97
37.41
36.28
35.38
34.47
33.41
32.14
30.59
28.69
26.36
23.60
20.38
16.76
12.76
8.43
3.85
-0.82
-5.34
-9.51
-13.23
-16.56
-19.74
-23.15
-27.18
-32.05
-37.70
-43.57
-48.59
-51.39
-50.70
-45.77
-36.68
-24.41
-10.54
3.23
15.50
25.48
33.00
38.26
41.63
43.45
43.93
43.27
41.66
39.38
36.76
34.10
31.66
29.62
28.04
26.94
26.21
25.66
25.03
24.09
22.73
20.99
19.04
17.07
15.15
13.20
11.00
8.29
4.90
0.83
-3.78
-8.71
-13.77
-18.86
-23.94
-29.00
-34.09
-39.32
-44.82
-50.65
-56.59
-61.98
-65.66
-66.23
-62.54
-54.11
-41.52
-26.19
-10.06
5.13
18.22
28.76
36.90
42.96
47.22
49.83
50.89
50.54
49.08
46.88
44.31
41.62
38.93
36.35
34.00
32.08
30.79
30.22
30.26
30.61
30.81
30.44
29.20
27.10
24.41
21.61
19.18
17.44
16.28
15.19
13.38
10.03
4.58
-3.07
-12.52
-22.94
-33.20
-42.03
-48.12
-50.41
-48.30
-41.82
-31.73
-19.42
-6.46
5.67
16.04
24.33
30.75
35.84
40.12
43.98
47.59
50.84
53.45
55.01
55.02
53.09
48.98
42.85
35.25
27.10
19.47
13.26
8.95
6.43
5.17
4.43
3.57
2.25
0.35
-2.11
-5.16
-8.86
-13.20
-17.97
-22.66
-26.67
-29.57
-31.41
-32.83
-34.84
-38.52
-44.55
-52.94
-62.93
-73.18
-82.00
-87.78
-89.17
-85.43
-76.50
-63.06
-46.46
-28.45
-10.98
4.31
16.28
24.59
29.56
31.95
32.64
32.24
31.10
29.27
26.85
24.06
21.34
19.17
17.85
17.37
17.38
17.44
17.21
16.61
15.80
14.99
14.27
13.50
12.41
10.75
8.44
5.69
2.86
0.31
-1.77
-3.46
-5.04
-6.87
-9.21
-12.07
-15.28
-18.49
-21.37
-23.75
-25.72
-27.61
-29.92
-33.15
-37.61
-43.30
-49.83
-56.39
-61.89
-65.07
-64.87
-60.67
-52.50
-41.17
-28.01
-14.60
-2.38
7.75
15.46
20.98
24.82
27.49
29.36
30.56
31.12
31.05
30.43
29.44
28.28
27.11
26.02
24.99
24.02
23.11
22.40
22.03
22.14
22.68
23.37
23.72
23.25
21.60
18.82
15.30
11.60
8.23
5.39
2.97
0.63
-1.90
-4.77
-7.88
-11.04
-14.12
-17.07
-19.93
-22.83
-25.89
-29.29
-33.21
-37.82
-43.08
-48.58
-53.50
-56.73
-57.20
-54.25
-47.83
-38.58
-27.53
-15.86
-4.56
5.75
14.72
22.24
28.31
32.94
36.19
38.14
38.90
38.72
37.94
37.16
37.05
38.28
41.19
45.65
51.06
56.45
60.91
63.84
65.11
64.92
63.62
61.39
58.17
53.77
47.98
40.87
32.80
24.33
16.04
8.32
1.29
-5.17
-11.23
-16.90
-22.00
-26.29
-29.67
-32.29
-34.48
-36.41
-37.91
-38.49
-37.74
-35.76
-33.37
-31.88
-32.39
-35.14
-39.16
-42.71
-44.01
-42.05
-36.88
-29.48
-21.07
-12.60
-4.53
3.06
10.07
16.24
21.13
24.33
25.74
25.66
24.73
23.60
22.73
22.27
22.11
22.04
21.92
21.76
21.67
21.78
22.10
22.56
22.94
23.04
22.72
21.93
20.76
19.36
17.82
16.19
14.35
12.11
9.29
5.77
1.63
-2.95
-7.67
-12.24
-16.45
-20.18
-23.43
-26.25
-28.71
-30.88
-32.83
-34.68
-36.67
-39.19
-42.62
-47.23
-52.93
-59.13
-64.68
-68.12
-68.07
-63.66
-54.84
-42.45
-28.01
-13.33
-0.00
10.91
19.00
24.43
27.70
29.36
29.89
29.61
28.77
27.57
26.24
24.96
23.86
22.92
22.02
21.04
19.95
18.90
18.17
18.00
18.47
19.33
20.09
20.13
18.98
16.51
12.97
8.90
4.89
1.38
-1.51
-3.94
-6.25
-8.72
-11.50
-14.53
-17.60
-20.49
-23.05
-25.27
-27.22
-29.06
-31.06
-33.53
-36.86
-41.33
-46.90
-53.03
-58.64
-62.30
-62.70
-59.07
-51.54
-41.09
-29.26
-17.74
-7.86
-0.41
4.52
7.44
9.23
10.80
12.83
15.48
18.46
21.14
22.92
23.56
23.19
22.26
21.19
20.21
19.30
18.33
17.28
16.27
15.48
14.94
14.45
13.59
11.96
9.36
5.92
2.00
-1.99
-5.78
-9.26
-12.48
-15.47
-18.27
-20.93
-23.55
-26.31
-29.43
-33.10
-37.39
-42.26
-47.63
-53.23
-58.61
-62.98
-65.31
-64.61
-60.24
-52.32
-41.67
-29.65
-17.68
-6.82
2.36
9.74
15.49
19.80
22.82
24.71
25.60
25.68
25.09
23.95
22.37
20.44
18.29
16.11
14.08
12.39
11.18
10.49
10.31
10.46
10.72
10.81
10.48
9.65
8.45
7.19
6.28
6.04
6.53
7.49
8.42
8.78
8.24
6.77
4.72
2.51
0.47
-1.42
-3.51
-6.30
-10.28
-15.63
-22.10
-28.99
-35.22
-39.54
-40.77
-38.15
-31.57
-21.65
-9.63
2.94
14.63
24.35
31.65
36.57
39.52
41.03
41.57
41.43
40.76
39.65
38.22
36.71
35.45
34.78
35.04
36.36
38.75
41.91
45.33
48.27
49.87
49.42
46.54
41.31
34.31
26.36
18.23
10.43
3.12
-3.76
-10.30
-16.44
-21.97
-26.61
-30.18
-32.75
-34.62
-36.31
-38.41
-41.46
-45.79
-51.48
-58.13
-64.90
-70.48
-73.42
-72.52
-67.16
-57.59
-44.87
-30.54
-16.23
-3.26
7.59
16.04
22.14
26.09
28.11
28.49
27.59
25.84
23.67
21.37
19.07
16.74
14.36
12.05
10.05
8.67
8.11
8.30
8.95
9.60
9.83
9.36
8.04
5.87
2.86
-0.91
-5.34
-10.25
-15.38
-20.41
-25.03
-29.12
-32.88
-36.78
-41.54
-47.81
-55.92
-65.55
-75.74
-84.90
-91.20
-93.01
-89.23
-79.65
-64.97
-46.68
-26.67
-6.84
11.26
26.73
39.20
48.83
56.02
61.19
64.76
67.11
68.62
69.60
70.21
70.38
69.91
68.58
66.34
63.46
60.37
57.55
55.21
53.30
51.48
49.36
46.75
43.64
40.26
36.93
33.91
31.43
29.59
28.35
27.55
26.90
26.05
24.70
22.73
20.23
17.51
14.96
12.83
11.05
9.16
6.49
2.43
-3.13
-9.63
-15.90
-20.57
-22.52
-21.34
-17.45
-11.82
-5.70
-0.23
3.76
5.84
5.87
3.95
0.35
-4.55
-10.28
-16.35
-22.26
-27.48
-31.53
-33.96
-34.37
-32.47
-28.10
-21.28
-12.33
-1.90
8.99
19.11
27.24
32.57
34.84
34.31
31.64
27.61
22.84
17.80
12.68
7.60
2.61
-2.28
-7.11
-11.99
-17.06
-22.47
-28.27
-34.45
-40.91
-47.54
-54.17
-60.52
-66.11
-70.22
-72.00
-70.71
-65.98
-58.12
-48.09
-37.29
-27.10
-18.44
-11.64
-6.54
-2.79
-0.13
1.48
1.96
1.33
-0.14
-1.93
-3.49
-4.39
-4.55
-4.14
-3.51
-2.94
-2.51
-2.07
-1.33
-0.09
1.70
3.85
6.02
7.85
9.04
9.48
9.15
8.15
6.66
4.89
3.06
1.31
-0.38
-2.14
-4.23
-6.83
-9.86
-12.90
-15.17
-15.68
-13.51
-8.06
0.75
12.43
25.92
39.73
52.22
61.84
67.45
68.69
65.93
60.23
53.00
45.45
38.42
32.19
26.72
21.91
17.84
14.68
12.55
11.24
10.19
8.69
6.27
2.86
-1.07
-4.88
-8.04
-10.42
-12.33
-14.30
-16.82
-20.02
-23.69
-27.25
-30.03
-31.37
-30.91
-28.69
-25.20
-21.31
-18.11
-16.72
-17.94
-22.07
-28.73
-36.84
-44.79
-50.76
-53.19
-51.19
-44.78
-34.85
-22.78
-10.06
2.09
12.84
21.75
28.64
33.55
36.74
38.72
40.13
41.51
43.11
44.78
46.06
46.39
45.39
42.93
39.28
35.05
30.99
27.86
26.14
25.84
26.40
26.94
26.55
24.72
21.55
17.63
13.71
10.31
7.49
4.84
1.83
-1.99
-6.75
-12.21
-17.93
-23.40
-28.18
-32.11
-35.32
-38.31
-41.75
-46.17
-51.54
-57.12
-61.49
-63.05
-60.54
-53.59
-42.78
-29.44
-15.20
-1.47
10.69
20.70
28.32
33.54
36.53
37.57
37.06
35.39
32.94
30.02
26.90
23.82
20.99
18.52
16.46
14.80
13.46
12.40
11.57
10.85
10.05
8.93
7.26
4.96
2.07
-1.23
-4.74
-8.30
-11.77
-15.05
-18.03
-20.55
-22.60
-24.27
-25.86
-27.82
-30.57
-34.35
-39.07
-44.24
-49.00
-52.28
-53.02
-50.42
-44.15
-34.51
-22.35
-8.96
4.27
16.13
25.79
32.90
37.48
39.83
40.32
39.39
37.43
34.84
32.03
29.32
26.93
24.97
23.44
22.34
21.69
21.48
21.68
22.12
22.53
22.57
21.97
20.63
18.62
16.14
13.44
10.67
7.86
4.93
1.73
-1.82
-5.74
-9.88
-14.05
-18.05
-21.73
-25.09
-28.34
-31.82
-35.97
-41.10
-47.14
-53.50
-59.00
-62.18
-61.68
-56.73
-47.44
-34.78
-20.36
-5.87
7.26
18.17
26.57
32.57
36.48
38.64
39.37
38.93
37.62
35.80
33.86
32.16
30.90
30.07
29.46
28.79
27.83
26.57
25.23
24.10
23.39
23.08
22.85
22.23
20.83
18.51
15.48
12.17
9.02
6.24
3.77
1.32
-1.41
-4.55
-8.00
-11.54
-14.96
-18.17
-21.29
-24.56
-28.30
-32.80
-38.23
-44.49
-51.13
-57.21
-61.49
-62.67
-59.82
-52.68
-41.81
-28.43
-14.05
-0.09
12.32
22.51
30.18
35.33
38.28
39.46
39.40
38.61
37.44
36.10
34.61
32.97
31.15
29.23
27.38
25.80
24.68
24.11
24.01
24.20
24.36
24.17
23.41
22.00
20.01
17.59
14.92
12.20
9.53
6.99
4.54
2.03
-0.70
-3.84
-7.40
-11.24
-15.05
-18.51
-21.41
-23.79
-25.92
-28.28
-31.43
-35.80
-41.54
-48.28
-55.10
-60.60
-63.23
-61.77
-55.70
-45.47
-32.34
-18.01
-4.10
8.19
18.23
25.88
31.28
34.69
36.35
36.55
35.58
33.84
31.70
29.53
27.59
26.04
24.94
24.28
23.97
23.93
24.05
24.17
24.11
23.70
22.78
21.30
19.25
16.76
13.94
10.84
7.49
3.86
-0.05
-4.14
-8.23
-12.10
-15.64
-18.89
-22.00
-25.29
-29.04
-33.45
-38.53
-43.99
-49.14
-52.94
-54.18
-51.84
-45.51
-35.58
-23.19
-9.96
2.61
13.48
22.17
28.66
33.11
35.70
36.56
35.88
34.02
31.51
28.90
26.61
24.77
23.32
22.02
20.73
19.49
18.47
17.93
18.00
18.53
19.16
19.35
18.62
16.71
13.77
10.21
6.60
3.37
0.64
-1.85
-4.52
-7.73
-11.64
-16.02
-20.47
-24.49
-27.78
-30.28
-32.24
-34.12
-36.47
-39.79
-44.31
-49.84
-55.68
-60.62
-63.24
-62.26
-56.92
-47.39
-34.65
-20.32
-6.15
6.45
16.66
24.36
29.88
33.74
36.36
37.98
38.69
38.52
37.55
35.98
34.06
32.05
30.20
28.68
27.59
26.94
26.65
26.62
26.71
26.77
26.67
26.26
25.33
23.73
21.38
18.33
14.83
11.23
7.89
4.98
2.40
-0.17
-3.11
-6.62
-10.71
-15.08
-19.36
-23.20
-26.44
-29.10
-31.44
-33.76
-36.45
-39.85
-44.20
-49.51
-55.39
-60.98
-65.02
-66.12
-63.20
-55.86
-44.58
-30.64
-15.73
-1.51
10.83
20.74
28.20
33.51
37.03
39.00
39.64
39.15
37.86
36.16
34.45
32.98
31.82
30.91
30.20
29.65
29.34
29.31
29.49
29.72
29.73
29.31
28.37
26.91
25.00
22.77
20.29
17.66
14.97
12.30
9.66
7.01
4.31
1.52
-1.36
-4.28
-7.29
-10.45
-13.87
-17.52
-21.26
-24.81
-27.92
-30.51
-32.79
-35.25
-38.41
-42.70
-48.12
-54.22
-60.07
-64.42
-65.97
-63.74
-57.29
-46.93
-33.67
-18.93
-4.29
8.96
19.92
28.19
33.80
37.02
38.25
37.92
36.48
34.38
32.07
29.92
28.18
26.95
26.16
25.65
25.25
24.86
24.48
24.17
23.95
23.75
23.36
22.53
21.05
18.86
16.07
12.90
9.64
6.52
3.66
1.02
-1.55
-4.25
-7.24
-10.56
-14.10
-17.62
-20.84
-23.63
-26.04
-28.38
-31.08
-34.57
-39.16
-44.92
-51.56
-58.34
-64.16
-67.61
-67.44
-62.84
-53.84
-41.33
-26.82
-12.04
1.58
13.08
22.11
28.71
33.10
35.61
36.56
36.28
35.13
33.46
31.60
29.83
28.35
27.28
26.62
26.24
26.02
25.82
25.63
25.49
25.44
25.43
25.24
24.56
23.07
20.58
17.20
13.23
9.16
5.41
2.26
-0.30
-2.49
-4.65
-7.04
-9.80
-12.95
-16.36
-19.86
-23.31
-26.62
-29.79
-32.97
-36.45
-40.60
-45.69
-51.67
-57.99
-63.58
-67.01
-66.96
-62.62
-53.96
-41.80
-27.52
-12.72
1.23
13.38
23.24
30.72
35.98
39.31
41.04
41.50
41.01
39.84
38.19
36.21
34.06
31.91
29.99
28.52
27.64
27.33
27.44
27.74
28.04
28.13
27.90
27.19
25.80
23.61
20.58
16.93
13.05
9.39
6.29
3.81
1.67
-0.51
-3.11
-6.26
-9.87
-13.66
-17.35
-20.77
-23.87
-26.69
-29.38
-32.13
-35.28
-39.28
-44.47
-50.79
-57.58
-63.49
-66.81
-66.01
-60.35
-50.15
-36.69
-21.79
-7.25
5.64
16.17
24.20
29.85
33.38
35.09
35.32
34.49
33.06
31.51
30.17
29.21
28.59
28.17
27.79
27.39
27.01
26.75
26.70
26.84
27.02
26.99
26.48
25.26
23.20
20.30
16.73
12.80
8.91
5.37
2.37
-0.18
-2.53
-5.02
-7.88
-11.18
-14.77
-18.38
-21.76
-24.80
-27.56
-30.28
-33.28
-36.96
-41.58
-47.13
-53.17
-58.70
-62.40
-62.84
-58.99
-50.59
-38.31
-23.66
-8.50
5.48
17.15
26.10
32.50
36.79
39.37
40.53
40.48
39.55
38.12
36.64
35.38
34.39
33.50
32.50
31.33
30.14
29.21
28.80
28.92
29.35
29.70
29.59
28.80
27.27
25.08
22.40
19.37
16.17
12.90
9.66
6.52
3.53
0.72
-1.96
-4.61
-7.38
-10.45
-13.88
-17.61
-21.51
-25.36
-29.00
-32.35
-35.50
-38.60
-41.90
-45.72
-50.34
-55.85
-61.88
-67.56
-71.50
-72.23
-68.65
-60.46
-48.41
-34.00
-19.02
-5.03
7.01
16.79
24.48
30.37
34.71
37.59
39.06
39.23
38.44
37.10
35.64
34.34
33.24
32.25
31.26
30.33
29.61
29.36
29.68
30.45
31.31
31.78
31.49
30.32
28.45
26.23
23.96
21.78
19.54
17.03
14.07
10.69
7.17
3.78
0.74
-1.95
-4.51
-7.16
-10.06
-13.25
-16.63
-20.13
-23.69
-27.27
-30.86
-34.37
-37.72
-40.94
-44.28
-48.16
-52.98
-58.83
-65.17
-70.79
-74.02
-73.33
-67.81
-57.61
-43.84
-28.23
-12.55
1.82
14.08
23.97
31.54
36.97
40.50
42.41
43.04
42.74
41.85
40.61
39.15
37.56
35.97
34.52
33.39
32.68
32.39
32.32
32.21
31.78
30.89
29.53
27.82
25.85
23.67
21.25
18.50
15.42
12.05
8.57
5.18
2.08
-0.68
-3.18
-5.56
-8.05
-10.83
-13.98
-17.49
-21.23
-25.04
-28.74
-32.25
-35.57
-38.80
-42.13
-45.82
-50.05
-54.89
-60.06
-64.87
-68.27
-69.02
-66.03
-58.79
-47.56
-33.39
-17.85
-2.63
10.93
22.04
30.49
36.45
40.22
42.09
42.28
41.03
38.65
35.59
32.38
29.49
27.21
25.60
24.53
23.83
23.38
23.15
23.17
23.41
23.69
23.72
23.13
21.67
19.31
16.25
12.88
9.57
6.57
3.89
1.38
-1.13
-3.76
-6.50
-9.26
-11.96
-14.59
-17.17
-19.81
-22.63
-25.83
-29.75
-34.77
-41.07
-48.42
-55.88
-61.89
-64.75
-63.10
-56.56
-45.91
-32.73
-18.94
-6.13
4.76
13.43
20.03
24.81
28.04
29.90
30.68
30.69
30.31
29.86
29.45
29.09
28.68
28.14
27.45
26.68
25.98
25.47
25.22
25.18
25.20
25.03
24.37
23.01
20.89
18.10
14.90
11.61
8.48
5.63
2.95
0.24
-2.78
-6.26
-10.20
-14.41
-18.64
-22.63
-26.27
-29.67
-33.18
-37.29
-42.38
-48.48
-55.05
-60.93
-64.65
-64.83
-60.69
-52.32
-40.68
-27.21
-13.46
-0.64
10.49
19.56
26.48
31.29
34.17
35.41
35.41
34.62
33.45
32.20
31.07
30.11
29.38
28.86
28.53
28.41
28.48
28.74
29.18
29.70
30.09
30.07
29.36
27.75
25.21
21.95
18.29
14.62
11.21
8.18
5.44
2.78
-0.10
-3.36
-7.02
-10.98
-14.95
-18.68
-21.97
-24.72
-27.01
-29.07
-31.25
-34.05
-37.96
-43.27
-49.79
-56.77
-62.85
-66.42
-66.06
-61.06
-51.68
-39.05
-24.82
-10.67
2.08
12.69
20.94
26.90
30.83
33.02
33.72
33.22
31.78
29.69
27.20
24.56
22.00
19.74
17.96
16.78
16.27
16.46
17.30
18.66
20.30
21.87
23.05
23.53
23.19
22.08
20.36
18.24
15.83
13.18
10.28
7.09
3.60
-0.17
-4.21
-8.46
-12.92
-17.50
-22.19
-27.03
-32.14
-37.71
-43.76
-49.95
-55.44
-58.98
-59.30
-55.51
-47.51
-36.09
-22.65
-8.77
4.15
15.24
24.10
30.69
35.16
37.71
38.58
38.00
36.31
33.86
31.08
28.36
26.01
24.21
22.94
22.07
21.44
20.95
20.61
20.49
20.57
20.68
20.49
19.66
17.94
15.31
12.02
8.47
5.10
2.17
-0.30
-2.57
-5.07
-8.17
-12.05
-16.53
-21.17
-25.46
-29.03
-31.86
-34.25
-36.69
-39.69
-43.65
-48.76
-54.85
-61.30
-67.04
-70.59
-70.54
-65.98
-56.85
-44.15
-29.54
-14.90
-1.71
9.15
17.46
23.41
27.34
29.58
30.42
30.19
29.20
27.78
26.18
24.54
22.93
21.33
19.75
18.20
16.78
15.67
15.07
15.14
15.89
17.17
18.75
20.38
21.95
23.56
25.36
27.51
29.91
32.18
33.75
34.04
32.66
29.56
25.03
19.56
13.72
8.01
2.70
-2.12
-6.59
-11.02
-15.83
-21.48
-28.36
-36.60
-45.87
-55.23
-63.21
-68.09
-68.48
-63.67
-54.05
-40.95
-26.25
-11.85
0.85
11.14
18.96
24.61
28.47
30.88
32.08
32.29
31.75
30.73
29.46
28.12
26.79
25.48
24.21
23.05
22.11
21.57
21.47
21.70
21.96
21.84
20.94
19.07
16.24
12.78
9.10
5.59
2.38
-0.61
-3.66
-7.01
-10.74
-14.67
-18.44
-21.70
-24.29
-26.32
-28.15
-30.31
-33.32
-37.54
-42.99
-49.23
-55.31
-59.88
-61.53
-59.15
-52.35
-41.66
-28.34
-14.09
-0.53
11.17
20.41
27.17
31.74
34.49
35.74
35.76
34.75
32.92
30.56
27.98
25.50
23.37
21.74
20.64
19.98
19.59
19.28
18.92
18.42
17.78
16.97
15.90
14.39
12.24
9.28
5.50
1.06
-3.74
-8.55
-13.08
-17.20
-20.91
-24.35
-27.77
-31.44
-35.66
-40.63
-46.35
-52.46
-58.11
-62.08
-63.03
-59.97
-52.62
-41.55
-28.08
-13.83
-0.22
11.80
21.77
29.56
35.14
38.57
39.94
39.61
38.08
35.96
33.77
31.76
29.95
28.25
26.55
24.89
23.46
22.42
21.90
21.80
21.90
21.82
21.22
19.85
17.67
14.84
11.66
8.46
5.45
2.63
-0.23
-3.39
-7.11
-11.43
-16.14
-20.90
-25.34
-29.30
-32.85
-36.34
-40.28
-45.07
-50.84
-57.19
-63.14
-67.29
-68.18
-64.71
-56.58
-44.41
-29.61
-13.95
0.92
13.79
24.09
31.76
37.06
40.39
42.12
42.54
41.95
40.59
38.74
36.71
34.75
33.07
31.68
30.54
29.51
28.51
27.55
26.76
26.25
26.04
25.95
25.59
24.53
22.42
19.24
15.23
10.92
6.84
3.31
0.32
-2.46
-5.49
-9.17
-13.66
-18.88
-24.56
-30.41
-36.16
-41.68
-46.87
-51.82
-56.81
-62.30
-68.83
-76.76
-85.93
-95.44
-103.76
-109.03
-109.77
-105.36
-96.28
-83.97
-70.23
-56.68
-44.26
-33.23
-23.29
-13.92
-4.68
4.71
14.31
24.10
33.98
43.77
53.21
61.97
69.72
76.21
81.32
85.03
87.45
88.69
88.91
88.27
86.92
84.91
82.25
78.83
74.53
69.35
63.43
57.07
50.65
44.52
38.88
33.74
28.95
24.21
19.27
13.96
8.33
2.64
-2.73
-7.44
-11.38
-14.77
-18.12
-22.13
-27.34
-33.98
-41.75
-49.80
-56.84
-61.39
-62.20
-58.54
-50.46
-38.83
-25.08
-10.79
2.63
14.19
23.40
30.12
34.44
36.60
36.94
35.89
33.99
31.73
29.56
27.70
26.21
25.00
23.94
23.01
22.29
21.92
22.05
22.70
23.67
24.59
24.96
24.31
22.41
19.36
15.58
11.69
8.27
5.57
3.44
1.34
-1.29
-4.85
-9.32
-14.37
-19.46
-24.14
-28.21
-31.64
-34.64
-37.51
-40.70
-44.70
-49.92
-56.39
-63.47
-69.78
-73.49
-72.94
-67.24
-56.64
-42.50
-26.77
-11.38
2.28
13.57
22.42
29.05
33.74
36.71
38.18
38.40
37.75
36.62
35.34
34.06
32.80
31.50
30.14
28.86
27.87
27.38
27.45
27.91
28.42
28.62
28.27
27.32
25.86
24.07
22.05
19.87
17.50
14.89
12.05
9.04
6.01
3.11
0.42
-2.14
-4.79
-7.86
-11.58
-15.96
-20.75
-25.46
-29.60
-32.92
-35.52
-37.84
-40.52
-44.21
-49.25
-55.55
-62.41
-68.62
-72.64
-73.03
-68.82
-59.87
-46.97
-31.61
-15.57
-0.51
12.42
22.66
30.22
35.41
38.68
40.43
40.99
40.61
39.52
37.94
36.09
34.15
32.24
30.48
29.01
27.96
27.48
27.60
28.23
29.07
29.75
29.97
29.55
28.49
26.90
24.91
22.61
20.02
17.22
14.31
11.44
8.75
6.25
3.89
1.53
-0.98
-3.81
-7.03
-10.67
-14.62
-18.71
-22.71
-26.44
-29.80
-32.89
-35.97
-39.39
-43.53
-48.63
-54.61
-60.92
-66.53
-70.03
-69.98
-65.39
-56.13
-43.09
-27.88
-12.43
1.64
13.33
22.35
28.88
33.33
36.05
37.34
37.40
36.49
34.86
32.81
30.59
28.39
26.39
24.73
23.56
22.97
23.01
23.61
24.63
25.81
26.86
27.44
27.23
26.01
23.69
20.44
16.62
12.73
9.18
6.21
3.77
1.55
-0.81
-3.68
-7.17
-11.19
-15.45
-19.59
-23.34
-26.63
-29.66
-32.80
-36.53
-41.25
-47.08
-53.73
-60.32
-65.52
-67.82
-65.94
-59.26
-48.15
-33.83
-18.11
-2.85
10.52
21.18
28.99
34.21
37.30
38.67
38.67
37.59
35.70
33.30
30.74
28.35
26.41
25.03
24.15
23.60
23.23
22.97
22.88
23.10
23.62
24.31
24.81
24.67
23.55
21.37
18.30
14.74
11.11
7.71
4.62
1.78
-1.03
-4.02
-7.35
-11.12
-15.30
-19.72
-24.06
-27.97
-31.17
-33.62
-35.60
-37.73
-40.74
-45.26
-51.46
-58.82
-66.15
-71.73
-73.83
-71.16
-63.34
-51.02
-35.72
-19.37
-3.81
9.66
20.40
28.40
34.00
37.67
39.79
40.66
40.51
39.56
38.09
36.35
34.54
32.76
31.04
29.39
27.85
26.55
25.65
25.28
25.44
25.95
26.49
26.69
26.23
24.90
22.64
19.61
16.07
12.36
8.83
5.64
2.75
-0.03
-3.00
-6.37
-10.18
-14.27
-18.36
-22.22
-25.71
-28.90
-32.07
-35.56
-39.71
-44.79
-50.80
-57.40
-63.78
-68.73
-70.83
-68.86
-62.17
-51.04
-36.56
-20.47
-4.58
9.58
21.09
29.63
35.35
38.66
40.03
39.93
38.78
36.97
34.84
32.65
30.55
28.64
26.99
25.63
24.66
24.16
24.15
24.53
25.06
25.43
25.32
24.54
23.08
21.13
18.88
16.52
14.05
11.37
8.31
4.75
0.75
-3.52
-7.80
-11.86
-15.61
-19.08
-22.42
-25.82
-29.50
-33.73
-38.73
-44.58
-50.96
-57.03
-61.46
-62.69
-59.53
-51.58
-39.49
-24.81
-9.49
4.72
16.67
25.94
32.64
37.11
39.69
40.58
39.97
38.13
35.43
32.38
29.44
26.93
24.97
23.52
22.46
21.71
21.24
21.04
21.00
20.94
20.57
19.64
18.02
15.77
13.13
10.36
7.62
4.95
2.19
-0.92
-4.58
-8.87
-13.69
-18.69
-23.49
-27.78
-31.45
-34.76
-38.24
-42.54
-48.20
-55.29
-63.21
-70.70
-76.02
-77.43
-73.72
-64.66
-51.14
-34.85
-17.81
-1.82
11.96
22.99
31.26
37.02
40.62
42.45
42.93
42.51
41.60
40.43
39.14
37.74
36.25
34.74
33.36
32.25
31.54
31.29
31.49
32.02
32.63
32.94
32.53
31.01
28.21
24.24
19.56
14.82
10.63
7.29
4.69
2.41
-0.15
-3.41
-7.50
-12.19
-17.05
-21.65
-25.73
-29.32
-32.66
-36.22
-40.43
-45.69
-52.07
-59.24
-66.34
-72.02
-74.73
-73.10
-66.45
-55.02
-40.03
-23.32
-6.87
7.73
19.56
28.41
34.62
38.71
41.20
42.44
42.65
41.98
40.64
38.88
37.00
35.30
34.03
33.30
33.05
33.14
33.37
33.58
33.68
33.63
33.36
32.75
31.69
30.10
28.01
25.55
22.86
20.08
17.23
14.27
11.18
7.98
4.75
1.59
-1.49
-4.57
-7.75
-11.17
-14.82
-18.64
-22.51
-26.24
-29.73
-33.01
-36.25
-39.82
-44.16
-49.62
-56.16
-63.11
-69.21
-72.83
-72.46
-67.21
-57.17
-43.39
-27.58
-11.58
3.06
15.41
25.05
32.04
36.62
39.13
39.91
39.33
37.77
35.66
33.42
31.40
29.85
28.81
28.16
27.67
27.13
26.46
25.73
25.18
24.98
25.16
25.48
25.53
24.90
23.36
20.99
18.09
15.06
12.20
9.62
7.18
4.69
1.87
-1.42
-5.22
-9.45
-13.96
-18.56
-23.06
-27.30
-31.23
-34.90
-38.55
-42.57
-47.37
-53.19
-59.78
-66.32
-71.42
-73.50
-71.25
-64.18
-52.76
-38.36
-22.73
-7.56
5.95
17.17
25.93
32.33
36.59
39.01
39.97
39.87
39.13
38.05
36.83
35.56
34.28
33.03
31.92
31.06
30.61
30.67
31.26
32.25
33.39
34.28
34.57
33.99
32.50
30.19
27.32
24.13
20.82
17.52
14.28
11.08
7.90
4.71
1.54
-1.58
-4.66
-7.77
-11.05
-14.65
-18.62
-22.85
-27.08
-31.04
-34.53
-37.59
-40.48
-43.63
-47.44
-52.22
-57.90
-64.01
-69.56
-73.17
-73.42
-69.22
-60.27
-47.22
-31.55
-15.12
0.31
13.53
23.95
31.57
36.69
39.71
41.00
40.92
39.81
38.09
36.20
34.47
33.11
32.15
31.46
30.94
30.53
30.33
30.45
30.99
31.85
32.70
33.13
32.73
31.34
29.06
26.27
23.39
20.75
18.41
16.17
13.73
10.81
7.39
3.68
0.07
-3.08
-5.63
-7.65
-9.48
-11.50
-13.99
-17.06
-20.58
-24.31
-27.98
-31.40
-34.52
-37.44
-40.40
-43.78
-47.95
-53.17
-59.27
-65.54
-70.66
-73.03
-71.20
-64.44
-53.06
-38.36
-22.23
-6.53
7.32
18.57
27.04
32.91
36.46
38.03
38.02
36.90
35.18
33.31
31.61
30.21
29.10
28.23
27.47
26.79
26.17
25.66
25.36
25.33
25.55
25.84
25.88
25.35
24.01
21.83
19.02
15.95
12.96
10.27
7.90
5.71
3.46
0.92
-2.08
-5.61
-9.55
-13.70
-17.76
-21.43
-24.59
-27.29
-29.78
-32.41
-35.56
-39.55
-44.59
-50.63
-57.16
-63.21
-67.37
-68.16
-64.53
-56.22
-43.93
-29.14
-13.66
0.91
13.43
23.37
30.68
35.58
38.42
39.57
39.40
38.26
36.52
34.54
32.63
31.03
29.79
28.87
28.15
27.59
27.20
27.10
27.36
27.90
28.47
28.73
28.38
27.25
25.37
22.89
19.99
16.82
13.50
10.11
6.73
3.44
0.29
-2.72
-5.66
-8.66
-11.84
-15.30
-19.04
-22.98
-26.90
-30.54
-33.73
-36.43
-38.93
-41.77
-45.60
-50.84
-57.37
-64.31
-70.16
-73.16
-71.79
-65.32
-54.08
-39.35
-23.00
-6.95
7.29
18.84
27.44
33.30
36.85
38.56
38.89
38.26
37.06
35.64
34.27
33.08
32.10
31.26
30.43
29.63
28.94
28.55
28.64
29.22
30.09
30.91
31.26
30.86
29.63
27.68
25.18
22.31
19.17
15.83
12.39
9.01
5.83
2.96
0.32
-2.29
-5.19
-8.59
-12.59
-17.02
-21.57
-25.88
-29.64
-32.75
-35.31
-37.66
-40.25
-43.56
-47.99
-53.65
-60.17
-66.56
-71.35
-72.89
-69.87
-61.82
-49.35
-34.01
-17.81
-2.61
10.28
20.33
27.61
32.54
35.55
37.02
37.28
36.64
35.45
34.06
32.67
31.38
30.16
29.00
27.94
27.11
26.63
26.55
26.83
27.34
27.86
28.13
27.92
26.95
25.07
22.31
18.89
15.23
11.72
8.65
5.97
3.41
0.58
-2.82
-6.85
-11.28
-15.73
-19.83
-23.32
-26.23
-28.78
-31.41
-34.61
-38.78
-44.16
-50.60
-57.45
-63.54
-67.41
-67.61
-63.23
-54.15
-41.27
-26.16
-10.70
3.48
15.35
24.49
31.02
35.32
37.81
38.87
38.76
37.70
35.89
33.58
31.10
28.78
26.91
25.68
25.06
24.92
25.06
25.32
25.63
25.97
26.27
26.36
25.96
24.77
22.63
19.61
16.01
12.27
8.83
5.95
3.59
1.42
-1.04
-4.22
-8.26
-13.00
-17.97
-22.66
-26.73
-30.11
-33.05
-35.92
-39.16
-43.12
-48.06
-53.99
-60.55
-66.87
-71.58
-73.06
-70.00
-61.87
-49.21
-33.56
-16.94
-1.30
12.00
22.36
29.82
34.86
38.03
39.78
40.46
40.29
39.46
38.20
36.76
35.40
34.28
33.40
32.67
31.93
31.09
30.20
29.42
28.89
28.64
28.49
28.15
27.28
25.68
23.31
20.37
17.13
13.91
10.93
8.27
5.86
3.52
1.03
-1.87
-5.32
-9.36
-13.82
-18.40
-22.72
-26.46
-29.50
-32.00
-34.38
-37.27
-41.23
-46.53
-52.93
-59.56
-65.03
-67.77
-66.49
-60.59
-50.38
-37.01
-22.11
-7.37
5.85
16.71
24.87
30.34
33.41
34.54
34.30
33.26
31.89
30.48
29.13
27.86
26.67
25.55
24.56
23.74
23.16
22.86
22.88
23.12
23.44
23.52
23.00
21.60
19.26
16.25
12.99
9.89
7.13
4.56
1.81
-1.46
-5.36
-9.66
-13.95
-17.81
-21.09
-23.93
-26.78
-30.15
-34.49
-39.95
-46.36
-53.08
-59.07
-62.98
-63.47
-59.59
-51.13
-38.80
-24.06
-8.70
5.63
17.76
27.17
33.83
38.09
40.38
41.18
40.89
39.89
38.48
36.90
35.27
33.69
32.18
30.84
29.76
29.03
28.69
28.69
28.91
29.22
29.48
29.58
29.32
28.48
26.78
24.07
20.43
16.25
12.10
8.50
5.69
3.48
1.38
-1.14
-4.39
-8.32
-12.56
-16.65
-20.27
-23.34
-26.04
-28.71
-31.77
-35.58
-40.40
-46.28
-52.86
-59.31
-64.33
-66.46
-64.49
-57.88
-47.06
-33.30
-18.32
-3.83
8.92
19.30
27.19
32.81
36.54
38.83
40.06
40.57
40.58
40.17
39.36
38.21
36.82
35.41
34.22
33.40
33.02
33.04
33.36
33.88
34.48
34.98
35.08
34.45
32.79
30.02
26.32
22.06
17.70
13.60
9.88
6.44
3.03
-0.65
-4.78
-9.45
-14.55
-19.84
-24.94
-29.51
-33.28
-36.25
-38.78
-41.44
-44.99
-49.97
-56.52
-64.11
-71.53
-77.16
-79.31
-76.78
-69.22
-57.31
-42.60
-27.07
-12.60
-0.53
8.61
14.95
19.12
21.79
23.49
24.46
24.68
24.06
22.55
20.26
17.55
15.03
13.39
13.36
15.40
19.53
25.20
31.27
36.41
39.44
39.80
37.79
34.33
30.60
27.52
25.48
24.30
23.50
22.53
21.06
18.96
16.30
13.31
10.29
7.60
5.49
4.00
2.97
2.19
1.78
2.49
5.63
12.69
24.59
41.11
60.68
80.78
98.72
112.47
121.17
125.17
125.67
124.10
121.62
118.80
115.60
111.54
106.00
98.60
89.47
79.30
69.17
60.18
53.12
48.29
45.54
44.51
44.76
45.82
47.06
47.66
46.69
43.46
37.75
30.08
21.44
12.94
5.36
-1.07
-6.64
-11.87
-17.21
-22.80
-28.45
-33.77
-38.36
-41.97
-44.63
-46.57
-48.17
-49.76
-51.43
-53.03
-54.17
-54.38
-53.29
-50.75
-46.87
-41.95
-36.42
-30.76
-25.44
-20.81
-17.11
-14.34
-12.28
-10.64
-9.10
-7.56
-6.07
-4.74
-3.63
-2.62
-1.43
0.19
2.34
4.84
7.32
9.32
10.51
10.79
10.25
8.80
6.50
3.66
0.70
-2.18
-5.16
-8.60
-12.80
-17.86
-23.96
-31.06
-38.85
-47.04
-55.61
-64.83
-74.85
-85.39
-95.66
-105.49
-114.40
-121.43
-125.46
-125.94
-123.23
-118.43
-113.09
-108.82
-109.42
-116.95
-130.16
-145.11
-157.86
-166.33
-170.46
-171.49
-170.81
-174.46
-185.33
-200.47
-212.74
-216.02
-208.68
-193.17
-174.16
-156.37
-151.24
-164.50
-191.87
-221.66
-243.35
-252.96
-252.54
-247.37
-243.44
-257.11
-299.81
-371.51
-461.96
-558.54
-651.18
-732.09
-795.20
-768.24
-619.54
-379.62
-120.99
97.57
255.74
359.67
424.37
463.70
487.55
491.36
472.58
437.81
400.87
374.34
362.71
363.28
369.65
375.28
367.26
339.12
295.44
249.02
212.10
190.60
184.52
188.93
198.92
205.35
202.66
191.54
177.17
164.27
154.33
146.49
139.38
132.53
123.52
111.25
96.77
82.67
71.08
62.58
56.72
52.62
49.72
46.63
42.47
37.31
31.92
27.02
22.66
18.49
14.07
9.32
4.44
-0.09
-3.89
-6.80
-9.04
-11.11
-13.56
-16.76
-20.77
-25.39
-30.24
-34.90
-39.07
-42.77
-46.30
-50.29
-55.42
-62.16
-70.44
-79.48
-87.82
-93.61
-95.03
-90.82
-80.64
-65.24
-46.25
-25.83
-6.06
11.40
25.59
36.22
43.56
48.09
50.44
51.16
50.76
49.74
48.57
47.69
47.38
47.73
48.57
49.57
50.44
51.05
51.55
52.14
52.91
53.60
53.67
52.55
49.98
46.19
41.76
37.37
33.34
29.54
25.52
20.85
15.38
9.40
3.42
-2.09
-6.94
-11.31
-15.61
-20.31
-25.83
-32.45
-40.26
-48.98
-57.88
-65.65
-70.66
-71.38
-66.84
-57.04
-43.00
-26.47
-9.46
6.25
19.42
29.47
36.38
40.47
42.24
42.20
40.81
38.42
35.37
32.06
28.94
26.40
24.71
23.89
23.74
23.93
24.13
24.15
23.89
23.29
22.35
21.07
19.42
17.46
15.17
12.53
9.48
5.95
1.90
-2.59
-7.33
-12.10
-16.74
-21.18
-25.54
-30.12
-35.31
-41.53
-48.88
-56.97
-64.82
-70.88
-73.45
-71.16
-63.47
-50.91
-34.89
-17.35
-0.21
15.11
27.76
37.52
44.55
49.23
51.95
53.10
53.00
52.00
50.45
48.66
46.83
45.01
43.18
41.26
39.33
37.62
36.47
36.14
36.59
37.41
37.99
37.64
36.00
33.07
29.24
25.07
21.03
17.32
13.90
10.48
6.74
2.47
-2.37
-7.54
-12.65
-17.24
-20.96
-23.79
-26.02
-28.30
-31.39
-35.92
-42.05
-49.24
-56.29
-61.53
-63.23
-60.17
-51.96
-39.23
-23.44
-6.50
9.70
23.75
34.87
42.95
48.33
51.54
53.07
53.28
52.45
50.71
48.28
45.39
42.42
39.73
37.65
36.37
35.91
36.12
36.76
37.61
38.42
38.99
39.11
38.56
37.16
34.84
31.65
27.76
23.47
19.10
14.93
11.17
7.82
4.77
1.75
-1.54
-5.32
-9.61
-14.24
-18.92
-23.36
-27.39
-31.04
-34.44
-37.87
-41.63
-46.09
-51.44
-57.59
-63.94
-69.38
-72.45
-71.79
-66.62
-57.02
-43.94
-28.88
-13.53
0.64
12.60
21.80
28.11
31.77
33.24
33.11
32.01
30.45
28.79
27.23
25.85
24.69
23.75
23.01
22.45
22.05
21.85
21.88
22.18
22.65
23.07
23.11
22.46
20.91
18.55
15.66
12.63
9.75
7.08
4.37
1.24
-2.60
-7.18
-12.23
-17.22
-21.67
-25.26
-27.99
-30.21
-32.47
-35.43
-39.66
-45.43
-52.44
-59.76
-65.89
-69.09
-67.95
-61.87
-51.28
-37.54
-22.45
-7.75
5.26
15.83
23.75
29.11
32.26
33.63
33.74
33.05
31.90
30.51
29.00
27.45
25.99
24.77
23.91
23.47
23.41
23.61
24.00
24.52
25.10
25.65
25.95
25.70
24.64
22.57
19.56
15.91
12.12
8.72
6.03
3.99
2.25
0.22
-2.60
-6.38
-10.93
-15.75
-20.25
-24.01
-26.93
-29.26
-31.45
-34.08
-37.67
-42.51
-48.60
-55.37
-61.74
-66.23
-67.26
-63.73
-55.39
-42.97
-28.07
-12.61
1.69
13.64
22.85
29.39
33.67
36.09
36.98
36.64
35.34
33.45
31.39
29.49
27.98
26.88
26.06
25.35
24.65
24.00
23.57
23.52
23.90
24.58
25.22
25.41
24.80
23.19
20.68
17.54
14.17
10.92
8.03
5.55
3.32
1.09
-1.44
-4.45
-7.95
-11.82
-15.75
-19.45
-22.73
-25.54
-28.05
-30.56
-33.46
-37.15
-41.90
-47.71
-54.14
-60.24
-64.64
-65.93
-62.99
-55.49
-44.02
-29.98
-15.16
-1.21
10.70
20.03
26.80
31.30
33.87
34.78
34.26
32.57
30.09
27.27
24.56
22.25
20.43
19.11
18.19
17.67
17.53
17.80
18.41
19.17
19.78
19.89
19.17
17.49
14.91
11.76
8.51
5.57
3.13
1.02
-1.22
-4.07
-7.72
-11.99
-16.35
-20.23
-23.36
-25.82
-28.06
-30.64
-34.05
-38.59
-44.25
-50.68
-57.10
-62.28
-64.73
-63.10
-56.64
-45.65
-31.43
-15.95
-1.15
11.52
21.46
28.73
33.75
36.99
38.72
39.10
38.28
36.47
34.09
31.56
29.27
27.45
26.17
25.32
24.78
24.44
24.30
24.37
24.64
24.97
25.11
24.74
23.59
21.58
18.86
15.72
12.54
9.61
7.05
4.78
2.52
-0.06
-3.25
-7.14
-11.57
-16.17
-20.52
-24.29
-27.41
-30.04
-32.57
-35.52
-39.35
-44.41
-50.63
-57.40
-63.49
-67.28
-67.23
-62.36
-52.73
-39.44
-24.33
-9.37
3.86
14.51
22.41
27.87
31.34
33.23
33.85
33.48
32.42
31.01
29.62
28.53
27.88
27.66
27.81
28.27
29.03
30.05
31.25
32.45
33.41
33.93
33.84
33.07
31.57
29.31
26.34
22.83
19.07
15.48
12.41
9.92
7.79
5.56
2.79
-0.72
-4.89
-9.41
-13.89
-18.03
-21.74
-25.07
-28.23
-31.53
-35.36
-40.10
-45.95
-52.66
-59.45
-65.00
-67.79
-66.53
-60.63
-50.43
-37.12
-22.41
-8.10
4.35
14.11
21.02
25.40
27.82
28.80
28.63
27.46
25.36
22.50
19.28
16.21
13.79
12.32
11.88
12.30
13.32
14.68
16.11
17.37
18.21
18.39
17.78
16.39
14.37
11.95
9.32
6.57
3.69
0.60
-2.77
-6.34
-9.93
-13.26
-16.14
-18.62
-21.05
-24.01
-28.11
-33.70
-40.58
-48.00
-54.64
-58.98
-59.68
-55.99
-47.90
-36.27
-22.54
-8.38
4.71
15.67
24.06
29.91
33.54
35.40
35.87
35.24
33.77
31.76
29.55
27.49
25.86
24.78
24.16
23.83
23.61
23.45
23.45
23.73
24.28
24.91
25.21
24.71
23.09
20.30
16.66
12.68
8.98
5.95
3.69
1.88
-0.02
-2.55
-6.03
-10.36
-15.12
-19.76
-23.90
-27.42
-30.58
-33.78
-37.46
-41.94
-47.28
-53.22
-59.10
-63.88
-66.26
-65.02
-59.38
-49.41
-36.07
-21.01
-6.11
7.07
17.58
25.20
30.23
33.19
34.60
34.87
34.27
33.07
31.57
30.08
28.90
28.19
27.99
28.20
28.67
29.24
29.81
30.32
30.74
31.05
31.17
30.99
30.39
29.23
27.43
25.00
22.02
18.68
15.21
11.84
8.76
6.00
3.47
0.91
-1.97
-5.42
-9.52
-14.10
-18.80
-23.23
-27.09
-30.36
-33.27
-36.23
-39.71
-44.05
-49.36
-55.39
-61.48
-66.53
-69.18
-68.18
-62.77
-53.06
-40.02
-25.28
-10.61
2.51
13.20
21.26
26.91
30.59
32.68
33.51
33.29
32.21
30.52
28.49
26.39
24.44
22.83
21.69
21.18
21.42
22.52
24.43
26.91
29.56
31.87
33.37
33.78
33.08
31.42
29.10
26.46
23.74
21.05
18.43
15.75
12.86
9.59
5.81
1.52
-3.20
-8.18
-13.18
-17.96
-22.38
-26.39
-30.12
-33.88
-38.12
-43.17
-49.10
-55.45
-61.21
-64.98
-65.40
-61.61
-53.52
-41.89
-28.03
-13.43
0.61
13.18
23.74
31.97
37.71
40.95
41.85
40.85
38.51
35.48
32.33
29.43
26.96
24.97
23.46
22.41
21.81
21.63
21.79
22.16
22.58
22.89
22.94
22.58
21.68
20.11
17.82
14.87
11.46
7.95
4.69
1.92
-0.34
-2.32
-4.35
-6.76
-9.68
-13.03
-16.56
-19.99
-23.14
-25.94
-28.43
-30.83
-33.45
-36.72
-41.04
-46.62
-53.15
-59.72
-64.87
-67.04
-65.04
-58.55
-48.20
-35.43
-21.94
-9.26
1.64
10.33
16.84
21.45
24.42
26.05
26.58
26.29
25.46
24.35
23.16
22.04
21.14
20.54
20.35
20.61
21.25
22.15
23.12
24.00
24.71
25.23
25.46
25.25
24.35
22.58
19.97
16.78
13.49
10.50
8.02
5.93
3.94
1.68
-1.06
-4.26
-7.77
-11.39
-14.96
-18.40
-21.70
-24.86
-27.99
-31.28
-35.06
-39.65
-45.21
-51.41
-57.37
-61.69
-62.86
-59.80
-52.27
-41.00
-27.47
-13.43
-0.36
10.78
19.58
26.06
30.38
32.71
33.28
32.40
30.50
28.10
25.67
23.56
21.89
20.61
19.63
18.85
18.30
18.09
18.33
19.09
20.24
21.48
22.37
22.52
21.66
19.83
17.30
14.52
11.91
9.71
7.85
6.03
3.89
1.18
-2.12
-5.78
-9.45
-12.84
-15.88
-18.74
-21.79
-25.48
-30.16
-35.88
-42.27
-48.44
-53.08
-54.82
-52.60
-46.11
-35.89
-23.24
-9.82
2.80
13.49
21.67
27.30
30.72
32.38
32.76
32.23
31.07
29.48
27.61
25.63
23.72
22.02
20.60
19.50
18.71
18.28
18.27
18.69
19.43
20.22
20.67
20.38
19.15
17.03
14.30
11.43
8.80
6.54
4.48
2.26
-0.56
-4.15
-8.38
-12.82
-16.96
-20.42
-23.10
-25.21
-27.18
-29.58
-32.95
-37.67
-43.78
-50.77
-57.48
-62.32
-63.60
-60.18
-51.90
-39.68
-25.32
-10.84
2.07
12.45
20.10
25.34
28.67
30.51
31.16
30.83
29.79
28.37
26.93
25.68
24.64
23.65
22.50
21.13
19.62
18.25
17.25
16.70
16.40
15.99
15.05
13.35
10.91
7.98
4.92
2.03
-0.59
-2.99
-5.34
-7.81
-10.44
-13.18
-15.87
-18.32
-20.41
-22.21
-23.95
-26.03
-28.93
-32.97
-38.16
-44.01
-49.53
-53.42
-54.35
-51.44
-44.52
-34.21
-21.84
-8.95
3.04
13.19
21.09
26.79
30.56
32.72
33.50
33.10
31.73
29.70
27.37
25.09
23.12
21.56
20.34
19.40
18.66
18.07
17.65
17.35
17.07
16.66
15.97
14.88
13.30
11.17
8.44
5.14
1.41
-2.55
-6.44
-10.00
-13.07
-15.66
-17.91
-20.10
-22.59
-25.76
-29.86
-34.87
-40.37
-45.43
-48.79
-49.18
-45.72
-38.24
-27.41
-14.56
-1.30
10.92
21.08
28.72
33.85
36.73
37.72
37.21
35.54
33.09
30.21
27.24
24.42
21.89
19.70
17.82
16.25
15.01
14.21
13.91
14.09
14.54
14.85
14.56
13.30
10.97
7.71
3.89
-0.06
-3.73
-6.86
-9.28
-10.96
-12.00
-12.72
-13.43
-14.51
-16.13
-18.27
-20.77
-23.51
-26.58
-30.26
-34.74
-39.78
-44.50
-47.48
-47.16
-42.49
-33.34
-20.52
-5.54
9.90
24.38
36.94
47.06
54.54
59.37
61.77
62.15
61.17
59.56
57.91
56.54
55.47
54.51
53.35
51.76
49.66
47.08
44.20
41.16
37.98
34.53
30.54
25.74
20.02
13.55
6.65
-0.17
-6.44
-11.84
-16.18
-19.51
-21.96
-23.81
-25.37
-26.95
-28.75
-30.77
-32.93
-35.11
-37.27
-39.61
-42.48
-46.19
-50.73
-55.64
-59.95
-62.42
-61.87
-57.63
-49.74
-38.92
-26.41
-13.58
-1.58
8.81
17.23
23.66
28.18
30.97
32.16
31.96
30.62
28.45
25.84
23.13
20.57
18.32
16.47
15.07
14.16
13.69
13.57
13.62
13.59
13.23
12.39
11.03
9.26
7.23
5.10
2.97
0.88
-1.26
-3.49
-5.90
-8.50
-11.27
-14.14
-17.00
-19.80
-22.52
-25.26
-28.24
-31.74
-36.02
-41.08
-46.56
-51.68
-55.38
-56.53
-54.27
-48.33
-39.11
-27.56
-15.03
-2.81
8.03
16.87
23.47
27.95
30.52
31.48
31.08
29.57
27.27
24.59
21.98
19.85
18.45
17.78
17.65
17.72
17.74
17.60
17.37
17.13
16.91
16.59
15.90
14.54
12.33
9.33
5.83
2.27
-0.92
-3.56
-5.71
-7.69
-9.89
-12.60
-15.85
-19.45
-23.06
-26.35
-29.13
-31.39
-33.30
-35.10
-37.10
-39.58
-42.69
-46.31
-49.88
-52.44
-52.85
-50.11
-43.82
-34.32
-22.66
-10.30
1.35
11.26
19.00
24.60
28.41
30.84
32.20
32.64
32.30
31.30
29.87
28.32
26.89
25.72
24.77
23.94
23.13
22.41
21.94
21.91
22.37
23.12
23.83
24.06
23.55
22.17
19.99
17.24
14.17
11.04
8.04
5.28
2.72
0.25
-2.31
-5.07
-8.06
-11.16
-14.17
-16.97
-19.52
-21.94
-24.42
-27.13
-30.21
-33.82
-38.09
-43.09
-48.62
-54.05
-58.30
-60.04
-58.11
-52.00
-42.08
-29.58
-16.11
-3.26
7.92
16.95
23.90
29.04
32.60
34.70
35.37
34.72
33.04
30.80
28.50
26.56
25.12
24.07
23.20
22.31
21.41
20.64
20.24
20.33
20.82
21.41
21.65
21.13
19.57
17.00
13.70
10.18
6.92
4.26
2.25
0.60
-1.14
-3.40
-6.35
-9.87
-13.59
-17.07
-20.01
-22.36
-24.36
-26.36
-28.81
-32.04
-36.19
-41.11
-46.27
-50.78
-53.50
-53.34
-49.59
-42.14
-31.64
-19.29
-6.53
5.26
15.16
22.73
27.96
31.12
32.57
32.59
31.39
29.19
26.26
23.00
19.96
17.60
16.26
15.97
16.53
17.60
18.89
20.27
21.69
23.10
24.28
24.90
24.54
22.96
20.21
16.72
13.11
9.95
7.50
5.63
3.89
1.73
-1.23
-5.02
-9.38
-13.87
-18.05
-21.72
-24.86
-27.72
-30.69
-34.24
-38.73
-44.26
-50.49
-56.52
-61.01
-62.56
-60.10
-53.31
-42.75
-29.73
-15.91
-2.86
8.33
17.19
23.75
28.34
31.39
33.21
34.00
33.89
33.00
31.50
29.68
27.79
26.04
24.54
23.33
22.46
21.96
21.84
22.07
22.46
22.75
22.61
21.76
20.08
17.64
14.64
11.43
8.36
5.64
3.33
1.27
-0.86
-3.36
-6.41
-10.01
-13.92
-17.85
-21.49
-24.73
-27.62
-30.39
-33.43
-37.14
-41.78
-47.31
-53.17
-58.29
-61.29
-60.87
-56.25
-47.51
-35.60
-22.01
-8.39
3.97
14.26
22.19
27.83
31.39
33.16
33.48
32.77
31.48
30.01
28.57
27.17
25.70
24.08
22.39
20.88
19.90
19.66
20.15
21.07
21.96
22.36
21.97
20.68
18.55
15.77
12.63
9.42
6.42
3.77
1.41
-0.89
-3.44
-6.42
-9.78
-13.25
-16.48
-19.19
-21.43
-23.53
-26.04
-29.47
-34.11
-39.80
-45.82
-50.99
-53.88
-53.21
-48.29
-39.26
-27.13
-13.45
0.10
12.14
21.91
29.15
34.00
36.70
37.54
36.80
34.82
32.06
29.01
26.10
23.63
21.76
20.49
19.80
19.61
19.79
20.14
20.42
20.36
19.73
18.45
16.56
14.22
11.66
9.08
6.56
4.03
1.30
-1.81
-5.40
-9.37
-13.45
-17.30
-20.68
-23.61
-26.38
-29.45
-33.29
-38.17
-43.95
-50.03
-55.39
-58.74
-58.90
-55.08
-47.19
-35.85
-22.30
-8.00
5.60
17.40
26.70
33.26
37.22
38.92
38.89
37.67
35.73
33.41
30.94
28.48
26.16
24.14
22.55
21.51
21.01
21.02
21.37
21.88
22.30
22.39
21.92
20.74
18.84
16.37
13.57
10.68
7.90
5.20
2.42
-0.69
-4.31
-8.43
-12.83
-17.14
-21.05
-24.38
-27.21
-29.90
-32.95
-36.82
-41.75
-47.56
-53.49
-58.33
-60.58
-59.01
-53.00
-42.85
-29.69
-15.21
-1.13
11.25
21.20
28.54
33.47
36.35
37.51
37.32
36.14
34.38
32.50
30.89
29.79
29.24
29.06
29.02
28.89
28.62
28.35
28.28
28.48
28.78
28.81
28.14
26.44
23.71
20.24
16.51
12.94
9.76
6.91
4.15
1.13
-2.36
-6.37
-10.71
-15.05
-19.09
-22.58
-25.50
-28.06
-30.63
-33.70
-37.64
-42.55
-48.09
-53.40
-57.22
-58.15
-55.14
-47.86
-36.89
-23.60
-9.78
2.93
13.44
21.34
26.79
30.18
31.90
32.25
31.43
29.66
27.24
24.55
21.96
19.73
18.00
16.84
16.19
15.98
16.04
16.17
16.17
15.90
15.28
14.37
13.21
11.76
9.95
7.65
4.84
1.62
-1.72
-4.94
-7.85
-10.48
-13.02
-15.67
-18.61
-21.88
-25.52
-29.64
-34.36
-39.63
-45.03
-49.64
-52.19
-51.44
-46.65
-37.93
-26.27
-13.21
-0.40
10.86
19.83
26.33
30.56
32.90
33.75
33.44
32.28
30.52
28.42
26.23
24.22
22.57
21.45
20.85
20.68
20.79
20.97
21.11
21.12
20.88
20.29
19.23
17.59
15.36
12.63
9.48
6.04
2.41
-1.39
-5.32
-9.30
-13.24
-17.04
-20.67
-24.19
-27.76
-31.65
-36.18
-41.54
-47.65
-53.94
-59.31
-62.37
-61.76
-56.71
-47.35
-34.71
-20.44
-6.36
6.08
16.02
23.22
27.95
30.65
31.82
31.90
31.22
30.05
28.60
27.03
25.44
23.91
22.51
21.32
20.46
20.04
20.04
20.41
20.91
21.27
21.22
20.59
19.33
17.51
15.25
12.63
9.69
6.38
2.65
-1.49
-5.92
-10.44
-14.77
-18.74
-22.29
-25.57
-28.89
-32.65
-37.20
-42.68
-48.84
-54.94
-59.82
-62.14
-60.76
-55.16
-45.68
-33.37
-19.74
-6.33
5.69
15.61
23.21
28.55
31.89
33.53
33.82
33.12
31.74
29.98
28.05
26.09
24.20
22.45
20.96
19.87
19.29
19.28
19.72
20.33
20.80
20.80
20.21
19.03
17.39
15.38
13.05
10.37
7.30
3.86
0.14
-3.70
-7.49
-11.08
-14.41
-17.50
-20.47
-23.59
-27.21
-31.67
-37.05
-43.06
-48.84
-53.11
-54.44
-51.73
-44.58
-33.55
-20.05
-5.91
7.14
17.86
25.77
31.02
34.09
35.54
35.74
34.93
33.25
30.87
28.05
25.14
22.50
20.41
19.04
18.36
18.21
18.28
18.23
17.83
17.04
15.98
14.80
13.55
12.10
10.13
7.35
3.65
-0.77
-5.46
-9.97
-14.03
-17.62
-20.91
-24.15
-27.53
-31.22
-35.38
-40.14
-45.50
-51.07
-55.92
-58.72
-58.08
-53.11
-43.80
-31.14
-16.79
-2.54
10.17
20.55
28.39
33.86
37.27
38.88
38.99
37.91
36.07
33.86
31.62
29.50
27.55
25.74
24.10
22.75
21.82
21.40
21.46
21.81
22.20
22.28
21.76
20.41
18.15
15.07
11.46
7.71
4.13
0.84
-2.30
-5.57
-9.19
-13.13
-17.10
-20.69
-23.56
-25.77
-27.78
-30.30
-34.06
-39.39
-45.96
-52.76
-58.28
-60.90
-59.41
-53.32
-43.09
-29.95
-15.54
-1.48
10.99
21.17
28.87
34.21
37.45
38.85
38.71
37.40
35.35
33.06
30.92
29.19
27.89
26.92
26.08
25.29
24.59
24.10
23.95
24.12
24.40
24.39
23.69
22.00
19.30
15.88
12.27
8.96
6.24
4.06
2.06
-0.24
-3.18
-6.81
-10.94
-15.16
-19.11
-22.57
-25.55
-28.27
-31.11
-34.55
-38.94
-44.35
-50.34
-55.89
-59.57
-59.95
-56.04
-47.71
-35.77
-21.75
-7.42
5.72
16.68
25.11
31.08
34.95
37.09
37.87
37.60
36.59
35.10
33.38
31.63
30.03
28.72
27.81
27.29
27.08
27.00
26.81
26.34
25.48
24.22
22.63
20.77
18.65
16.23
13.43
10.22
6.63
2.74
-1.31
-5.35
-9.24
-12.92
-16.43
-19.88
-23.43
-27.29
-31.60
-36.46
-41.81
-47.31
-52.25
-55.56
-56.01
-52.67
-45.22
-34.23
-21.04
-7.33
5.33
15.91
24.01
29.70
33.22
34.85
34.84
33.49
31.21
28.52
25.86
23.52
21.56
19.91
18.45
17.21
16.26
15.72
15.59
15.68
15.65
15.19
14.08
12.29
9.98
7.42
4.85
2.41
0.09
-2.31
-5.05
-8.35
-12.28
-16.66
-21.15
-25.31
-28.84
-31.67
-34.03
-36.39
-39.33
-43.29
-48.36
-54.07
-59.41
-62.99
-63.37
-59.57
-51.41
-39.61
-25.58
-11.01
2.61
14.27
23.53
30.35
34.87
37.35
38.08
37.46
36.01
34.18
32.35
30.62
28.92
27.13
25.21
23.28
21.59
20.39
19.80
19.79
20.17
20.63
20.86
20.55
19.46
17.49
14.75
11.54
8.29
5.34
2.80
0.55
-1.73
-4.37
-7.50
-11.07
-14.79
-18.33
-21.41
-23.99
-26.29
-28.77
-31.97
-36.30
-41.79
-47.88
-53.48
-57.20
-57.72
-54.24
-46.71
-35.87
-23.00
-9.66
2.81
13.42
21.65
27.41
30.89
32.43
32.48
31.49
29.93
28.17
26.47
24.93
23.53
22.21
20.96
19.81
18.91
18.39
18.35
18.78
19.53
20.33
20.84
20.71
19.72
17.84
15.28
12.43
9.68
7.28
5.26
3.37
1.28
-1.29
-4.38
-7.82
-11.32
-14.61
-17.59
-20.29
-22.93
-25.79
-29.16
-33.20
-37.88
-42.86
-47.41
-50.50
-50.98
-47.97
-41.20
-31.13
-18.93
-6.11
5.91
16.09
23.97
29.52
32.99
34.68
34.82
33.63
31.37
28.43
25.23
22.17
19.52
17.39
15.76
14.62
13.93
13.65
13.68
13.83
13.84
13.53
12.87
11.97
10.92
9.74
8.24
6.15
3.29
-0.28
-4.28
-8.28
-11.96
-15.23
-18.22
-21.15
-24.16
-27.29
-30.57
-34.13
-38.24
-43.04
-48.36
-53.38
-56.78
-57.15
-53.47
-45.61
-34.36
-21.20
-7.82
4.45
14.77
22.85
28.74
32.66
34.83
35.53
35.03
33.68
31.78
29.57
27.24
24.89
22.63
20.58
18.91
17.77
17.27
17.38
17.93
18.60
19.03
18.88
17.94
16.25
14.01
11.48
8.86
6.17
3.27
-0.02
-3.77
-7.87
-12.03
-15.92
-19.28
-22.04
-24.33
-26.39
-28.56
-31.21
-34.72
-39.29
-44.80
-50.58
-55.42
-57.83
-56.46
-50.63
-40.64
-27.70
-13.55
0.10
11.99
21.51
28.63
33.60
36.69
38.13
38.08
36.82
34.72
32.28
29.95
28.01
26.53
25.37
24.35
23.39
22.57
22.09
22.14
22.69
23.48
24.06
23.97
22.90
20.82
17.94
14.62
11.23
8.02
5.12
2.46
-0.13
-2.90
-6.07
-9.77
-13.95
-18.39
-22.76
-26.78
-30.25
-33.21
-35.95
-38.92
-42.51
-46.88
-51.63
-55.89
-58.39
-57.86
-53.52
-45.34
-34.07
-21.07
-7.83
4.38
14.74
22.91
28.92
32.96
35.25
36.02
35.53
34.05
31.96
29.64
27.41
25.51
24.01
22.89
22.07
21.51
21.16
20.96
20.80
20.54
20.04
19.20
18.02
16.53
14.78
12.82
10.61
8.10
5.25
2.07
-1.32
-4.77
-8.09
-11.19
-14.08
-16.90
-19.92
-23.44
-27.67
-32.59
-37.79
-42.49
-45.63
-46.18
-43.45
-37.33
-28.38
-17.62
-6.27
4.57
14.12
21.92
27.79
31.70
33.72
33.99
32.72
30.26
27.08
23.66
20.50
17.96
16.22
15.23
14.79
14.59
14.35
13.92
13.30
12.56
11.76
10.79
9.42
7.40
4.57
1.01
-2.98
-6.99
-10.67
-13.91
-16.81
-19.64
-22.66
-26.11
-30.13
-34.83
-40.23
-46.17
-52.13
-57.18
-60.10
-59.74
-55.36
-47.02
-35.59
-22.52
-9.42
2.44
12.33
20.11
26.02
30.37
33.35
35.01
35.33
34.43
32.57
30.15
27.63
25.32
23.40
21.92
20.83
20.11
19.73
19.65
19.71
19.66
19.24
18.24
16.63
14.51
12.03
9.33
6.41
3.21
-0.27
-3.99
-7.78
-11.41
-14.73
-17.72
-20.54
-23.47
-26.89
-31.06
-36.18
-42.08
-48.25
-53.70
-57.15
-57.31
-53.32
-45.09
-33.37
-19.62
-5.56
7.27
17.87
25.85
31.34
34.70
36.38
36.81
36.33
35.29
33.96
32.53
31.11
29.76
28.50
27.38
26.45
25.80
25.40
25.23
25.18
25.18
25.13
24.94
24.48
23.55
21.96
19.62
16.62
13.21
9.72
6.38
3.27
0.31
-2.71
-5.92
-9.34
-12.85
-16.22
-19.30
-22.04
-24.51
-26.91
-29.45
-32.33
-35.75
-39.90
-44.89
-50.54
-56.23
-60.90
-63.16
-61.80
-56.16
-46.50
-33.92
-20.05
-6.51
5.51
15.42
23.14
28.82
32.69
34.87
35.51
34.81
33.12
30.90
28.60
26.58
25.03
23.99
23.42
23.26
23.43
23.86
24.43
25.00
25.36
25.39
24.97
24.08
22.77
21.10
19.13
16.90
14.49
11.99
9.49
7.04
4.65
2.24
-0.28
-3.01
-5.95
-9.05
-12.17
-15.13
-17.78
-20.09
-22.10
-24.01
-26.14
-28.84
-32.40
-36.89
-41.94
-46.80
-50.31
-51.28
-48.78
-42.45
-32.72
-20.66
-7.75
4.56
15.17
23.51
29.50
33.31
35.27
35.68
34.86
33.18
31.07
29.00
27.32
26.18
25.54
25.26
25.26
25.48
25.93
26.54
27.16
27.59
27.69
27.39
26.75
25.80
24.54
22.90
20.85
18.40
15.63
12.66
9.55
6.28
2.88
-0.56
-3.84
-6.75
-9.15
-11.14
-12.98
-15.00
-17.42
-20.34
-23.60
-26.94
-30.10
-32.89
-35.29
-37.48
-39.83
-42.79
-46.68
-51.38
-56.24
-60.06
-61.48
-59.35
-53.23
-43.52
-31.31
-18.06
-5.22
6.10
15.25
22.00
26.46
28.92
29.83
29.61
28.69
27.41
25.93
24.40
22.90
21.57
20.53
19.92
19.82
20.20
20.97
21.94
22.96
23.81
24.33
24.33
23.71
22.44
20.62
18.52
16.43
14.57
12.99
11.53
9.95
8.05
5.81
3.37
0.98
-1.15
-2.92
-4.43
-5.91
-7.67
-9.95
-12.85
-16.27
-19.94
-23.53
-26.82
-29.78
-32.58
-35.55
-39.08
-43.37
-48.34
-53.45
-57.75
-60.09
-59.37
-54.96
-46.89
-35.94
-23.40
-10.69
0.95
10.74
18.32
23.68
26.98
28.47
28.45
27.31
25.54
23.67
22.09
21.01
20.37
19.91
19.39
18.69
17.94
17.41
17.35
17.86
18.73
19.60
20.06
19.84
18.92
17.44
15.61
13.63
11.60
9.55
7.49
5.45
3.47
1.53
-0.39
-2.38
-4.56
-7.03
-9.84
-12.94
-16.13
-19.14
-21.70
-23.68
-25.13
-26.39
-27.95
-30.35
-33.91
-38.58
-43.74
-48.37
-51.18
-51.07
-47.36
-40.09
-29.99
-18.32
-6.51
4.21
13.03
19.67
24.24
27.04
28.40
28.59
27.79
26.24
24.20
22.00
19.94
18.21
16.91
16.06
15.63
15.60
15.87
16.30
16.66
16.77
16.54
15.95
15.05
13.81
12.12
9.92
7.24
4.37
1.70
-0.41
-1.85
-2.83
-3.81
-5.27
-7.50
-10.49
-13.94
-17.46
-20.70
-23.48
-25.89
-28.19
-30.77
-34.00
-38.13
-43.09
-48.40
-53.17
-56.19
-56.34
-52.85
-45.66
-35.44
-23.43
-11.03
0.50
10.36
18.16
23.89
27.70
29.83
30.59
30.32
29.35
28.00
26.49
24.98
23.58
22.42
21.63
21.31
21.44
21.91
22.51
23.08
23.48
23.67
23.58
23.11
22.14
20.55
18.40
15.82
13.07
10.36
7.84
5.47
3.17
0.75
-1.94
-4.97
-8.36
-11.95
-15.54
-18.93
-22.01
-24.79
-27.41
-30.10
-33.08
-36.59
-40.73
-45.42
-50.24
-54.44
-56.96
-56.66
-52.75
-45.07
-34.24
-21.48
-8.32
3.92
14.29
22.43
28.34
32.26
34.50
35.36
35.11
34.04
32.43
30.55
28.67
26.97
25.57
24.57
23.98
23.82
24.06
24.58
25.16
25.55
25.51
24.83
23.50
21.61
19.46
17.34
15.54
14.18
13.17
12.25
11.11
9.48
7.27
4.59
1.72
-1.06
-3.58
-5.86
-8.14
-10.69
-13.68
-17.10
-20.69
-24.08
-26.98
-29.33
-31.39
-33.66
-36.68
-40.80
-45.93
-51.42
-56.18
-58.90
-58.44
-54.12
-46.00
-34.85
-21.93
-8.75
3.41
13.68
21.66
27.40
31.18
33.34
34.20
34.02
33.05
31.55
29.75
27.90
26.20
24.83
23.94
23.62
23.88
24.65
25.70
26.75
27.50
27.77
27.49
26.68
25.46
23.92
22.12
20.10
17.90
15.60
13.31
11.14
9.12
7.18
5.15
2.84
0.13
-2.96
-6.32
-9.78
-13.19
-16.49
-19.65
-22.71
-25.67
-28.56
-31.49
-34.70
-38.43
-42.86
-47.82
-52.72
-56.59
-58.27
-56.79
-51.68
-43.13
-31.95
-19.34
-6.59
5.19
15.21
23.10
28.84
32.70
35.04
36.20
36.36
35.59
33.91
31.51
28.75
26.17
24.22
23.17
22.95
23.29
23.92
24.66
25.48
26.41
27.38
28.14
28.30
27.57
25.87
23.43
20.69
18.10
15.93
14.13
12.43
10.49
8.09
5.28
2.32
-0.44
-2.80
-4.79
-6.71
-8.97
-11.87
-15.54
-19.77
-24.19
-28.38
-32.05
-35.13
-37.79
-40.35
-43.18
-46.58
-50.62
-55.02
-59.14
-62.01
-62.55
-59.87
-53.57
-43.90
-31.76
-18.42
-5.30
6.43
16.01
23.14
28.00
30.96
32.50
33.01
32.75
31.87
30.55
29.02
27.58
26.50
25.93
25.80
25.88
25.95
25.89
25.76
25.73
25.91
26.24
26.44
26.13
25.05
23.12
20.59
17.82
15.18
12.90
10.96
9.20
7.46
5.66
3.86
2.16
0.59
-0.96
-2.71
-4.89
-7.55
-10.58
-13.70
-16.61
-19.19
-21.52
-23.83
-26.41
-29.49
-33.25
-37.79
-43.01
-48.54
-53.59
-57.01
-57.57
-54.33
-47.12
-36.56
-24.00
-11.00
1.10
11.41
19.57
25.56
29.51
31.65
32.27
31.75
30.56
29.08
27.61
26.26
25.06
24.00
23.11
22.46
22.09
22.07
22.39
22.99
23.76
24.55
25.13
25.32
24.96
23.96
22.32
20.11
17.43
14.48
11.49
8.70
6.34
4.48
3.00
1.58
-0.14
-2.43
-5.32
-8.61
-11.90
-14.83
-17.19
-19.02
-20.60
-22.38
-24.84
-28.36
-33.07
-38.71
-44.54
-49.48
-52.26
-51.74
-47.34
-39.16
-28.11
-15.61
-3.22
7.73
16.46
22.70
26.66
28.76
29.44
29.10
28.05
26.54
24.78
22.97
21.27
19.80
18.65
17.90
17.58
17.70
18.18
18.86
19.53
19.96
19.93
19.32
18.03
16.09
13.60
10.75
7.81
5.04
2.64
0.61
-1.25
-3.27
-5.77
-8.93
-12.69
-16.79
-20.82
-24.44
-27.50
-30.10
-32.52
-35.18
-38.49
-42.76
-48.05
-54.03
-59.94
-64.59
-66.64
-64.94
-58.97
-49.08
-36.39
-22.48
-8.94
3.07
12.98
20.77
26.75
31.29
34.66
37.00
38.36
38.83
38.55
37.79
36.89
36.10
35.56
35.25
35.04
34.82
34.52
34.17
33.84
33.58
33.28
32.72
31.62
29.74
26.97
23.52
19.76
16.13
12.99
10.35
7.92
5.20
1.77
-2.50
-7.38
-12.37
-16.94
-20.80
-23.98
-26.80
-29.71
-33.13
-37.34
-42.38
-48.05
-53.82
-58.81
-61.93
-62.04
-58.36
-50.75
-39.84
-26.89
-13.47
-1.01
9.51
17.63
23.34
26.90
28.66
28.97
28.16
26.53
24.38
22.01
19.63
17.45
15.57
14.03
12.86
12.06
11.65
11.68
12.10
12.85
13.72
14.44
14.76
14.53
13.75
12.61
11.42
10.49
10.00
9.84
9.71
9.14
7.71
5.25
1.91
-1.91
-5.76
-9.36
-12.61
-15.64
-18.70
-22.10
-26.13
-31.01
-36.67
-42.64
-47.91
-51.18
-51.10
-46.86
-38.47
-26.83
-13.46
-0.01
12.13
22.06
29.45
34.33
36.98
37.82
37.26
35.68
33.38
30.63
27.61
24.54
21.63
19.11
17.15
15.85
15.19
15.02
15.06
15.00
14.55
13.55
12.03
10.10
7.97
5.72
3.32
0.60
-2.57
-6.21
-10.16
-14.12
-17.78
-20.98
-23.72
-26.21
-28.74
-31.61
-35.17
-39.63
-44.98
-50.82
-56.24
-59.98
-60.74
-57.57
-50.26
-39.45
-26.48
-12.95
-0.37
10.21
18.32
23.98
27.51
29.37
30.00
29.74
28.88
27.64
26.25
24.93
23.86
23.13
22.71
22.51
22.43
22.45
22.66
23.13
23.83
24.58
25.01
24.72
23.43
21.07
17.88
14.29
10.79
7.69
5.08
2.74
0.31
-2.55
-5.98
-9.88
-13.96
-17.88
-21.43
-24.58
-27.52
-30.63
-34.31
-38.90
-44.49
-50.73
-56.75
-61.24
-62.76
-60.20
-53.13
-42.10
-28.44
-13.90
-0.13
11.67
20.98
27.82
32.49
35.42
36.95
37.34
36.81
35.60
33.96
32.15
30.40
28.89
27.73
26.92
26.42
26.16
26.02
25.98
26.04
26.17
26.30
26.24
25.73
24.52
22.48
19.67
16.33
12.84
9.52
6.56
3.94
1.40
-1.36
-4.63
-8.44
-12.64
-16.86
-20.72
-23.99
-26.67
-28.99
-31.30
-34.02
-37.41
-41.60
-46.50
-51.68
-56.42
-59.64
-60.20
-57.18
-50.22
-39.73
-26.87
-13.17
-0.23
10.80
19.32
25.30
29.14
31.32
32.31
32.44
31.92
30.93
29.69
28.40
27.25
26.34
25.68
25.20
24.87
24.69
24.76
25.13
25.81
26.62
27.29
27.48
26.90
25.39
23.01
20.01
16.76
13.62
10.80
8.27
5.79
3.02
-0.24
-3.96
-7.86
-11.56
-14.73
-17.30
-19.43
-21.44
-23.77
-26.82
-30.86
-35.93
-41.69
-47.34
-51.70
-53.48
-51.65
-45.80
-36.36
-24.49
-11.72
0.44
10.92
19.17
25.16
29.11
31.29
31.95
31.33
29.71
27.50
25.13
22.98
21.34
20.32
19.84
19.82
20.12
20.62
21.29
22.06
22.86
23.53
23.84
23.54
22.41
20.39
17.60
14.34
10.97
7.79
4.94
2.37
-0.02
-2.41
-4.93
-7.70
-10.78
-14.15
-17.73
-21.32
-24.70
-27.69
-30.28
-32.69
-35.29
-38.55
-42.77
-47.84
-53.17
-57.67
-60.03
-59.06
-54.16
-45.49
-33.94
-20.91
-7.87
3.96
13.84
21.46
26.88
30.36
32.29
33.09
33.17
32.89
32.44
31.90
31.25
30.48
29.62
28.81
28.22
28.01
28.18
28.64
29.23
29.77
30.12
30.17
29.80
28.92
27.42
25.24
22.40
19.04
15.41
11.84
8.60
5.87
3.63
1.71
-0.23
-2.50
-5.28
-8.59
-12.29
-16.10
-19.82
-23.30
-26.54
-29.67
-32.95
-36.68
-41.17
-46.55
-52.53
-58.36
-62.81
-64.53
-62.41
-56.06
-45.96
-33.36
-19.90
-7.07
4.09
13.13
20.08
25.18
28.67
30.70
31.42
31.01
29.73
27.95
25.98
24.05
22.28
20.70
19.35
18.32
17.75
17.76
18.35
19.36
20.50
21.35
21.59
21.01
19.61
17.54
15.07
12.46
9.93
7.60
5.52
3.64
1.86
0.04
-1.97
-4.28
-6.91
-9.81
-12.82
-15.77
-18.48
-20.82
-22.79
-24.52
-26.33
-28.64
-31.87
-36.20
-41.39
-46.72
-51.03
-53.06
-51.78
-46.74
-38.25
-27.26
-15.09
-3.09
7.68
16.61
23.47
28.37
31.50
33.05
33.20
32.17
30.24
27.84
25.37
23.14
21.31
19.85
18.64
17.64
16.90
16.54
16.67
17.23
18.02
18.67
18.83
18.21
16.72
14.41
11.52
8.33
5.15
2.17
-0.54
-3.10
-5.67
-8.46
-11.56
-14.92
-18.38
-21.71
-24.75
-27.46
-29.96
-32.60
-35.80
-39.94
-45.03
-50.60
-55.60
-58.66
-58.45
-54.18
-45.89
-34.49
-21.44
-8.35
3.44
13.10
20.36
25.36
28.46
30.08
30.58
30.25
29.35
28.09
26.68
25.30
24.07
23.03
22.19
21.54
21.15
21.14
21.65
22.73
24.25
25.86
27.08
27.46
26.68
24.67
21.69
18.15
14.54
11.25
8.43
6.01
3.73
1.27
-1.67
-5.16
-9.10
-13.22
-17.17
-20.65
-23.62
-26.28
-29.08
-32.58
-37.18
-42.89
-49.19
-55.03
-59.04
-59.90
-56.75
-49.40
-38.55
-25.48
-11.80
1.03
11.98
20.59
26.85
31.03
33.50
34.57
34.57
33.76
32.42
30.79
29.05
27.29
25.54
23.83
22.22
20.85
19.86
19.38
19.43
19.91
20.60
21.16
21.22
20.44
18.66
16.03
12.91
9.77
6.98
4.65
2.57
0.36
-2.31
-5.59
-9.33
-13.21
-16.92
-20.24
-23.13
-25.76
-28.39
-31.36
-35.05
-39.74
-45.42
-51.57
-57.10
-60.51
-60.36
-55.75
-46.78
-34.52
-20.71
-7.16
4.75
14.29
21.33
26.12
29.02
30.38
30.51
29.71
28.30
26.56
24.73
22.97
21.41
20.14
19.26
18.84
18.86
19.20
19.67
20.03
20.07
19.65
18.74
17.36
15.57
13.39
10.80
7.77
4.31
0.56
-3.33
-7.13
-10.69
-13.94
-16.92
-19.71
-22.47
-25.41
-28.80
-32.90
-37.83
-43.36
-48.75
-52.84
-54.32
-52.14
-45.92
-36.12
-23.97
-11.03
1.21
11.68
19.88
25.79
29.63
31.69
32.26
31.63
30.12
28.13
26.06
24.27
22.96
22.15
21.72
21.52
21.46
21.53
21.78
22.23
22.77
23.17
23.09
22.26
20.54
18.06
15.09
12.03
9.13
6.46
3.85
1.00
-2.34
-6.24
-10.55
-14.95
-19.11
-22.81
-26.05
-29.01
-31.96
-35.17
-38.86
-43.16
-48.08
-53.35
-58.35
-62.03
-63.12
-60.45
-53.49
-42.57
-28.95
-14.42
-0.75
10.85
19.90
26.58
31.34
34.60
36.60
37.39
37.05
35.78
33.96
32.01
30.25
28.85
27.78
26.98
26.38
25.99
25.87
26.03
26.41
26.86
27.14
26.99
26.22
24.65
22.30
19.29
15.90
12.43
9.19
6.30
3.67
1.06
-1.81
-5.13
-8.85
-12.70
-16.37
-19.60
-22.34
-24.68
-26.87
-29.15
-31.81
-35.12
-39.31
-44.46
-50.24
-55.82
-59.93
-61.10
-58.21
-50.92
-39.87
-26.47
-12.50
0.47
11.38
19.85
25.97
30.06
32.44
33.42
33.27
32.29
30.81
29.13
27.49
25.99
24.64
23.41
22.30
21.34
20.63
20.20
20.03
19.99
19.80
19.16
17.79
15.56
12.48
8.73
4.52
0.05
-4.57
-9.32
-14.17
-19.03
-23.67
-27.81
-31.12
-33.43
-34.78
-35.49
-36.06
-36.97
-38.48
-40.41
-42.08
-42.47
-40.46
-35.26
-26.69
-15.28
-2.20
11.10
23.26
33.29
40.68
45.35
47.50
47.44
45.50
42.09
37.64
32.68
27.74
23.32
19.76
17.25
15.77
15.16
15.15
15.48
15.90
16.24
16.41
16.34
15.99
15.27
14.13
12.49
10.33
7.64
4.46
0.86
-3.05
-7.08
-11.01
-14.61
-17.72
-20.32
-22.62
-25.01
-27.99
-32.00
-37.26
-43.55
-50.12
-55.77
-59.15
-59.07
-54.96
-46.99
-36.08
-23.61
-11.02
0.54
10.42
18.39
24.49
28.86
31.69
33.18
33.62
33.32
32.59
31.60
30.41
29.03
27.51
26.06
24.96
24.48
24.72
25.51
26.47
27.16
27.18
26.35
24.66
22.21
19.26
16.02
12.74
9.61
6.65
3.76
0.68
-2.83
-6.87
-11.27
-15.71
-19.79
-23.26
-26.15
-28.77
-31.67
-35.39
-40.24
-46.05
-52.05
-56.96
-59.31
-57.90
-52.28
-42.88
-30.97
-18.15
-5.89
4.82
13.55
20.31
25.26
28.59
30.44
30.98
30.44
29.16
27.53
25.87
24.43
23.35
22.67
22.40
22.45
22.75
23.14
23.50
23.70
23.64
23.28
22.57
21.45
19.86
17.76
15.21
12.41
9.60
7.05
4.88
3.04
1.25
-0.82
-3.42
-6.53
-9.96
-13.33
-16.31
-18.74
-20.70
-22.47
-24.46
-27.12
-30.74
-35.45
-40.97
-46.55
-51.04
-53.08
-51.51
-45.82
-36.39
-24.44
-11.61
0.49
10.78
18.80
24.61
28.49
30.76
31.61
31.23
29.85
27.79
25.46
23.19
21.21
19.62
18.39
17.49
16.89
16.64
16.80
17.36
18.14
18.82
18.97
18.21
16.41
13.74
10.54
7.20
3.98
0.90
-2.18
-5.42
-8.87
-12.43
-15.96
-19.28
-22.34
-25.15
-27.82
-30.52
-33.51
-37.06
-41.33
-46.14
-50.86
-54.43
-55.65
-53.44
-47.38
-37.81
-25.81
-12.85
-0.40
10.45
19.12
25.53
29.92
32.59
33.85
33.90
32.90
31.07
28.70
26.18
23.92
22.22
21.25
20.99
21.33
22.14
23.37
24.97
26.86
28.81
30.43
31.26
30.93
29.30
26.53
23.03
19.26
15.56
12.08
8.72
5.37
1.94
-1.55
-4.96
-8.17
-11.13
-13.89
-16.55
-19.20
-21.94
-24.90
-28.30
-32.46
-37.59
-43.61
-49.90
-55.28
-58.31
-57.72
-52.91
-44.19
-32.73
-20.10
-7.85
2.97
11.86
18.82
24.01
27.60
29.68
30.34
29.77
28.30
26.38
24.43
22.76
21.49
20.60
19.94
19.38
18.83
18.31
17.91
17.76
17.85
18.03
18.01
17.45
16.16
14.17
11.77
9.29
7.01
4.99
3.03
0.84
-1.78
-4.83
-8.14
-11.38
-14.32
-16.81
-18.90
-20.72
-22.49
-24.49
-27.08
-30.59
-35.17
-40.55
-45.96
-50.16
-51.83
-50.02
-44.44
-35.68
-24.89
-13.47
-2.69
6.61
14.04
19.56
23.35
25.65
26.67
26.58
25.53
23.70
21.27
18.52
15.72
13.14
11.02
9.54
8.81
8.89
9.72
11.15
12.94
14.82
16.59
18.20
19.66
20.98
22.07
22.70
22.62
21.58
19.56
16.69
13.23
9.47
5.58
1.64
-2.34
-6.44
-10.70
-15.30
-20.46
-26.29
-32.66
-38.98
-44.21
-47.10
-46.60
-42.22
-34.30
-23.87
-12.37
-1.20
8.58
16.41
22.10
25.79
27.76
28.34
27.91
26.80
25.30
23.62
21.87
20.14
18.47
16.99
15.80
15.04
14.79
15.08
15.82
16.80
17.70
18.12
17.70
16.25
13.83
10.74
7.47
4.43
1.81
-0.51
-2.89
-5.72
-9.20
-13.24
-17.50
-21.55
-25.08
-28.00
-30.48
-32.86
-35.57
-38.97
-43.16
-47.90
-52.48
-55.84
-56.78
-54.37
-48.24
-38.78
-27.02
-14.35
-2.16
8.45
16.84
22.88
26.74
28.88
29.81
30.00
29.80
29.38
28.83
28.17
27.44
26.71
26.05
25.49
25.00
24.59
24.26
24.09
24.16
24.43
24.73
24.74
24.11
22.62
20.31
17.44
14.41
11.57
9.07
6.80
4.47
1.78
-1.43
-5.07
-8.88
-12.56
-15.85
-18.66
-21.12
-23.46
-26.06
-29.29
-33.44
-38.57
-44.31
-49.84
-53.97
-55.46
-53.39
-47.52
-38.38
-27.12
-15.11
-3.67
6.33
14.45
20.66
25.09
27.98
29.50
29.81
29.10
27.58
25.54
23.27
21.09
19.28
18.03
17.43
17.46
17.97
18.74
19.47
19.93
19.91
19.29
18.04
16.22
13.96
11.47
8.87
6.23
3.45
0.34
-3.22
-7.21
-11.42
-15.47
-19.07
-22.10
-24.74
-27.39
-30.49
-34.36
-38.95
-43.81
-48.07
-50.62
-50.45
-46.88
-39.88
-30.13
-18.79
-7.21
3.41
12.32
19.22
24.13
27.32
29.04
29.61
29.30
28.42
27.23
25.92
24.53
23.06
21.50
19.91
18.47
17.38
16.80
16.77
17.13
17.63
17.91
17.66
16.61
14.69
12.04
8.96
5.91
3.27
1.22
-0.39
-1.94
-3.95
-6.70
-10.18
-14.01
-17.65
-20.64
-22.81
-24.39
-25.89
-27.93
-31.02
-35.30
-40.35
-45.21
-48.58
-49.15
-46.08
-39.32
-29.62
-18.31
-6.90
3.40
11.85
18.21
22.62
25.37
26.82
27.31
27.18
26.69
26.00
25.15
24.13
22.93
21.69
20.63
20.05
20.20
21.17
22.88
25.05
27.29
29.14
30.14
29.97
28.49
25.86
22.43
18.69
15.07
11.82
8.92
6.16
3.27
0.05
-3.58
-7.50
-11.49
-15.30
-18.72
-21.69
-24.27
-26.70
-29.33
-32.54
-36.55
-41.24
-46.03
-49.93
-51.76
-50.54
-45.93
-38.29
-28.66
-18.34
-8.52
0.03
6.99
12.39
16.41
19.22
20.95
21.77
21.89
21.54
21.00
20.45
20.03
19.78
19.71
19.82
20.13
20.65
21.36
22.12
22.73
22.88
22.31
20.83
18.51
15.57
12.41
9.35
6.58
4.06
1.60
-0.99
-3.80
-6.77
-9.77
-12.69
-15.47
-18.11
-20.65
-23.18
-25.85
-28.89
-32.52
-36.74
-41.18
-44.98
-47.01
-46.19
-41.95
-34.44
-24.54
-13.58
-2.87
6.54
14.12
19.69
23.32
25.17
25.43
24.35
22.31
19.77
17.24
15.08
13.47
12.37
11.63
11.08
10.68
10.48
10.53
10.84
11.25
11.53
11.42
10.74
9.44
7.57
5.30
2.87
0.50
-1.64
-3.51
-5.20
-6.91
-8.91
-11.35
-14.23
-17.34
-20.40
-23.16
-25.58
-27.93
-30.65
-34.14
-38.55
-43.48
-47.99
-50.84
-50.84
-47.30
-40.24
-30.46
-19.21
-7.86
2.48
11.13
17.84
22.69
25.94
27.89
28.80
28.92
28.39
27.37
25.96
24.31
22.61
21.01
19.67
18.65
17.97
17.66
17.69
18.00
18.44
18.70
18.44
17.39
15.49
12.95
10.22
7.70
5.66
4.00
2.41
0.53
-1.88
-4.80
-8.03
-11.29
-14.39
-17.23
-19.87
-22.44
-25.13
-28.14
-31.71
-35.98
-40.85
-45.87
-50.23
-52.87
-52.77
-49.27
-42.33
-32.55
-21.08
-9.32
1.46
10.41
17.15
21.79
24.66
26.17
26.67
26.41
25.58
24.40
23.09
21.84
20.73
19.72
18.73
17.73
16.80
16.14
15.94
16.24
16.79
17.18
16.96
15.87
13.93
11.44
8.81
6.35
4.18
2.22
0.28
-1.86
-4.31
-7.07
-10.03
-12.99
-15.71
-18.03
-19.96
-21.76
-23.82
-26.59
-30.37
-34.99
-39.87
-43.95
-46.04
-45.13
-40.71
-32.94
-22.67
-11.16
0.21
10.30
18.43
24.38
28.31
30.52
31.34
31.03
29.78
27.83
25.41
22.80
20.25
17.92
15.96
14.41
13.34
12.74
12.54
12.58
12.63
12.48
11.99
11.13
9.92
8.34
6.27
3.61
0.32
-3.46
-7.44
-11.31
-14.84
-18.00
-20.88
-23.63
-26.34
-29.04
-31.80
-34.80
-38.26
-42.27
-46.50
-50.16
-52.06
-51.05
-46.39
-38.13
-27.08
-14.59
-2.09
9.28
18.90
26.60
32.50
36.84
39.77
41.46
42.06
41.79
40.98
39.98
39.04
38.30
37.77
37.36
36.98
36.61
36.27
36.04
35.90
35.76
35.42
34.66
33.35
31.51
29.32
27.14
25.30
24.02
23.25
22.66
21.75
19.99
16.99
12.73
7.52
2.00
-3.08
-7.09
-9.69
-10.88
-11.06
-10.85
-10.99
-12.13
-14.72
-18.80
-23.89
-28.96
-32.66
-33.74
-31.48
-25.91
-17.85
-8.64
0.27
7.66
12.85
15.61
16.15
15.06
13.14
11.13
9.47
8.22
7.22
6.39
5.87
6.13
7.76
11.28
16.72
23.63
31.21
38.61
45.39
51.04
55.11
56.66
55.21
51.35
46.86
43.90
43.67
46.28
49.97
52.77
53.78
53.61
53.28
54.21
57.02
61.08
65.24
66.63
63.36
55.61
45.57
35.61
26.62
19.91
14.52
8.84
-1.34
-18.82
-43.33
-71.75
-100.27
-126.15
-148.02
-165.71
-179.52
-193.82
-212.88
-238.94
-271.73
-309.45
-349.38
-387.33
-417.99
-414.77
-364.20
-274.45
-171.07
-79.10
-10.81
33.69
60.98
78.72
92.56
101.95
105.64
105.07
104.45
108.69
119.28
133.76
147.01
153.72
148.18
129.16
100.97
71.46
47.90
33.61
27.81
27.26
28.21
26.36
19.89
10.18
0.74
-5.04
-5.58
-1.07
7.15
17.39
27.43
35.74
41.80
45.84
48.20
48.92
47.99
45.57
42.15
38.08
33.76
29.55
25.74
22.40
19.40
16.61
14.09
12.07
10.88
10.70
11.39
12.48
13.28
13.16
11.79
9.30
6.16
2.96
0.10
-2.29
-4.38
-6.47
-8.76
-11.28
-13.90
-16.43
-18.75
-20.83
-22.77
-24.73
-26.90
-29.53
-32.89
-37.10
-41.99
-46.89
-50.55
-51.42
-48.11
-39.95
-27.32
-11.60
5.26
21.38
35.52
47.29
57.00
65.27
72.58
79.07
84.49
88.45
90.60
90.79
89.07
85.56
80.41
73.83
66.22
58.23
50.64
44.25
39.50
36.29
34.00
31.65
28.28
23.26
16.47
8.36
-0.28
-8.54
-15.63
-21.19
-25.31
-28.50
-31.47
-34.83
-38.88
-43.51
-48.26
-52.65
-56.34
-59.34
-61.99
-64.85
-68.44
-72.96
-78.10
-82.97
-86.31
-86.74
-83.20
-75.27
-63.34
-48.53
-32.39
-16.52
-2.24
9.64
18.81
25.34
29.54
31.77
32.37
31.65
29.98
27.77
25.48
23.53
22.24
21.70
21.84
22.42
23.20
23.97
24.65
25.26
25.88
26.54
27.17
27.60
27.60
26.93
25.47
23.20
20.22
16.78
13.28
10.33
8.65
8.86
11.21
15.31
20.09
24.07
25.83
24.41
19.67
12.19
2.98
-6.87
-16.41
-24.80
-31.20
-34.71
-34.45
-29.99
-21.57
-10.36
1.89
13.25
22.33
28.60
32.46
34.79
36.46
37.93
39.14
39.69
39.24
37.74
35.50
33.07
30.94
29.39
28.37
27.60
26.70
25.33
23.26
20.50
17.20
13.66
10.16
6.93
4.06
1.54
-0.59
-2.22
-3.10
-3.01
-1.92
-0.12
1.78
3.03
3.06
1.65
-0.97
-4.29
-7.72
-10.86
-13.57
-16.07
-18.77
-22.24
-27.07
-33.63
-41.93
-51.39
-60.79
-68.51
-72.97
-73.21
-69.29
-62.36
-54.18
-46.54
-40.58
-36.52
-33.83
-31.59
-28.99
-25.66
-21.76
-17.92
-15.04
-13.97
-15.21
-18.61
-23.23
-27.68
-30.64
-31.48
-30.58
-29.09
-28.17
-28.15
-28.19
-26.58
-21.60
-12.47
0.22
14.74
28.92
40.96
49.77
55.01
56.78
55.32
51.01
44.50
36.79
29.12
22.65
18.17
15.77
15.07
15.35
15.93
16.35
16.22
15.28
13.26
9.89
5.08
-1.00
-7.75
-14.27
-19.41
-22.10
-21.64
-17.90
-11.34
-2.99
5.96
14.34
21.25
26.13
28.76
29.19
27.71
24.88
21.40
17.96
15.02
12.63
10.52
8.27
5.62
2.61
-0.41
-2.96
-4.66
-5.35
-5.18
-4.61
-4.37
-5.42
-8.63
-14.43
-22.45
-31.22
-38.39
-41.39
-38.31
-28.69
-13.85
3.46
19.87
32.32
38.90
39.21
34.24
25.90
16.37
7.47
0.29
-4.95
-8.78
-12.09
-15.78
-20.39
-25.85
-31.53
-36.34
-39.06
-38.73
-34.91
-27.89
-18.62
-8.38
1.46
9.88
16.31
20.66
23.20
24.36
24.58
24.22
23.42
22.20
20.46
18.19
15.52
12.78
10.42
8.83
8.17
8.32
8.96
9.63
9.95
9.72
8.90
7.59
5.97
4.19
2.39
0.68
-0.91
-2.33
-3.57
-4.69
-5.81
-7.11
-8.78
-10.98
-13.75
-16.95
-20.37
-23.73
-26.78
-29.34
-31.31
-32.75
-33.83
-34.90
-36.41
-38.82
-42.32
-46.71
-51.24
-54.74
-55.92
-53.72
-47.72
-38.26
-26.35
-13.37
-0.69
10.62
19.92
26.91
31.59
34.11
34.78
34.06
32.55
30.84
29.37
28.24
27.24
25.97
24.08
21.48
18.41
15.40
13.05
11.76
11.69
12.65
14.22
15.85
16.99
17.21
16.30
14.30
11.51
8.36
5.28
2.56
0.24
-1.85
-3.99
-6.43
-9.32
-12.69
-16.42
-20.33
-24.13
-27.57
-30.54
-33.06
-35.46
-38.22
-41.80
-46.34
-51.43
-56.07
-58.87
-58.53
-54.26
-46.12
-34.96
-22.21
-9.32
2.52
12.57
20.53
26.29
29.95
31.66
31.72
30.63
28.99
27.31
25.97
25.01
24.28
23.54
22.67
21.75
21.03
20.79
21.14
21.92
22.72
23.02
22.38
20.58
17.74
14.24
10.57
7.19
4.39
2.19
0.42
-1.28
-3.31
-5.98
-9.39
-13.44
-17.74
-21.84
-25.31
-27.93
-29.79
-31.35
-33.33
-36.42
-40.96
-46.62
-52.31
-56.41
-57.28
-53.84
-45.95
-34.45
-20.88
-6.97
5.86
16.72
25.24
31.42
35.46
37.65
38.33
37.89
36.70
35.09
33.27
31.33
29.34
27.36
25.53
24.02
23.05
22.74
23.11
24.03
25.22
26.30
26.89
26.69
25.51
23.37
20.42
16.94
13.30
9.81
6.70
4.01
1.59
-0.84
-3.54
-6.63
-10.00
-13.37
-16.45
-19.06
-21.27
-23.39
-25.87
-29.13
-33.48
-38.95
-45.20
-51.48
-56.68
-59.50
-58.82
-54.09
-45.49
-34.01
-21.13
-8.41
2.87
12.02
18.86
23.60
26.67
28.47
29.27
29.21
28.40
26.95
25.13
23.27
21.75
20.81
20.53
20.84
21.56
22.49
23.52
24.52
25.34
25.72
25.41
24.21
22.08
19.23
16.06
13.04
10.53
8.67
7.30
6.07
4.56
2.45
-0.36
-3.78
-7.55
-11.38
-15.05
-18.47
-21.71
-24.95
-28.50
-32.69
-37.71
-43.46
-49.34
-54.28
-56.90
-55.99
-50.89
-41.80
-29.78
-16.44
-3.38
8.10
17.34
24.17
28.68
31.11
31.66
30.58
28.26
25.22
22.07
19.34
17.35
16.21
15.83
16.07
16.81
17.94
19.38
21.00
22.57
23.87
24.66
24.76
24.11
22.74
20.86
18.67
16.37
14.02
11.50
8.66
5.37
1.67
-2.23
-6.03
-9.46
-12.41
-14.99
-17.41
-20.01
-23.13
-27.11
-32.02
-37.53
-42.75
-46.33
-46.87
-43.39
-35.82
-25.11
-12.87
-0.92
9.31
17.09
22.40
25.70
27.53
28.40
28.63
28.49
28.24
28.14
28.39
28.96
29.65
30.06
29.91
29.15
28.11
27.30
27.16
27.77
28.80
29.59
29.50
28.17
25.70
22.50
19.14
16.04
13.37
11.01
8.69
6.19
3.38
0.27
-3.05
-6.49
-9.95
-13.34
-16.55
-19.47
-22.10
-24.60
-27.35
-30.81
-35.30
-40.64
-46.03
-50.17
-51.62
-49.30
-42.91
-33.14
-21.34
-9.16
2.00
11.29
18.49
23.82
27.62
30.15
31.52
31.76
30.96
29.32
27.22
25.04
23.11
21.61
20.57
19.91
19.57
19.50
19.62
19.87
20.12
20.25
20.14
19.68
18.80
17.45
15.63
13.41
10.91
8.30
5.69
3.12
0.56
-2.03
-4.69
-7.42
-10.22
-13.15
-16.25
-19.54
-22.93
-26.27
-29.35
-32.02
-34.28
-36.38
-38.73
-41.82
-45.90
-50.81
-55.80
-59.62
-60.95
-58.81
-52.98
-44.17
-33.77
-23.49
-14.88
-8.94
-5.90
-5.21
-5.72
-6.01
-4.74
-1.05
5.19
13.41
22.50
31.22
38.48
43.63
46.52
47.30
46.41
44.30
41.43
38.16
34.87
31.82
29.19
27.04
25.26
23.66
22.10
20.60
19.33
18.55
18.35
18.58
18.80
18.48
17.25
15.05
12.19
9.13
6.32
3.92
1.84
-0.27
-2.71
-5.64
-8.96
-12.41
-15.67
-18.55
-21.00
-23.12
-25.13
-27.31
-29.92
-33.21
-37.22
-41.69
-45.90
-48.74
-49.06
-46.02
-39.47
-30.05
-19.01
-7.77
2.44
10.89
17.36
21.96
24.93
26.51
26.93
26.38
25.18
23.71
22.39
21.52
21.25
21.50
22.08
22.75
23.34
23.80
24.18
24.58
25.02
25.45
25.67
25.45
24.58
22.93
20.57
17.72
14.66
11.68
8.95
6.51
4.30
2.23
0.16
-2.00
-4.33
-6.87
-9.58
-12.37
-15.07
-17.51
-19.62
-21.46
-23.30
-25.52
-28.53
-32.60
-37.65
-43.12
-48.00
-51.04
-51.08
-47.46
-40.23
-30.22
-18.75
-7.27
3.03
11.43
17.74
22.12
24.92
26.52
27.18
27.10
26.42
25.35
24.12
22.96
22.07
21.50
21.20
21.05
20.99
21.00
21.10
21.31
21.50
21.52
21.17
20.38
19.17
17.68
16.05
14.32
12.46
10.44
8.22
5.93
3.74
1.84
0.33
-0.85
-1.91
-3.10
-4.68
-6.74
-9.22
-11.91
-14.61
-17.15
-19.46
-21.54
-23.43
-25.20
-27.01
-29.10
-31.76
-35.17
-39.12
-42.93
-45.48
-45.56
-42.35
-35.75
-26.40
-15.50
-4.41
5.72
14.11
20.41
24.52
26.61
27.02
26.20
24.68
22.84
20.97
19.23
17.67
16.40
15.52
15.07
15.03
15.25
15.53
15.75
15.85
15.86
15.81
15.68
15.38
14.79
13.86
12.57
10.99
9.19
7.25
5.30
3.44
1.75
0.24
-1.21
-2.78
-4.69
-7.04
-9.73
-12.51
-15.08
-17.25
-19.04
-20.68
-22.57
-25.07
-28.40
-32.51
-37.05
-41.36
-44.54
-45.69
-44.08
-39.44
-32.06
-22.75
-12.60
-2.70
6.10
13.33
18.81
22.57
24.70
25.40
24.95
23.70
22.10
20.51
19.22
18.32
17.76
17.46
17.34
17.36
17.55
17.94
18.46
19.03
19.52
19.80
19.77
19.39
18.62
17.45
15.88
13.96
11.79
9.50
7.20
5.00
2.94
1.02
-0.83
-2.68
-4.66
-6.88
-9.38
-12.14
-15.00
-17.77
-20.27
-22.42
-24.29
-26.04
-27.93
-30.26
-33.30
-37.21
-41.80
-46.39
-49.91
-51.07
-48.86
-42.94
-33.82
-22.69
-11.07
-0.32
8.61
15.36
19.96
22.70
24.00
24.31
24.04
23.55
23.05
22.58
22.05
21.30
20.23
18.91
17.56
16.54
16.09
16.35
17.16
18.19
19.02
19.29
18.79
17.54
15.69
13.48
11.14
8.79
6.50
4.27
2.07
-0.09
-2.13
-4.02
-5.73
-7.35
-8.98
-10.76
-12.73
-14.80
-16.87
-18.76
-20.36
-21.65
-22.65
-23.50
-24.36
-25.48
-27.14
-29.57
-32.76
-36.38
-39.63
-41.48
-40.93
-37.32
-30.65
-21.59
-11.26
-0.91
8.40
16.06
21.82
25.77
28.11
29.09
28.92
27.83
26.08
23.99
21.88
20.03
18.62
17.76
17.40
17.48
17.86
18.44
19.15
19.92
20.66
21.24
21.45
21.08
19.95
18.02
15.38
12.36
9.35
6.72
4.63
3.02
1.62
0.05
-1.93
-4.43
-7.30
-10.31
-13.21
-15.88
-18.28
-20.47
-22.58
-24.76
-27.24
-30.25
-33.94
-38.17
-42.40
-45.68
-46.89
-45.16
-40.11
-32.09
-22.05
-11.22
-0.74
8.59
16.35
22.45
26.91
29.78
31.14
31.11
29.91
27.91
25.51
23.15
21.16
19.74
18.94
18.67
18.81
19.17
19.62
20.05
20.35
20.37
19.99
19.12
17.72
15.89
13.79
11.63
9.58
7.72
6.00
4.33
2.62
0.85
-0.98
-2.82
-4.70
-6.71
-8.94
-11.45
-14.19
-16.97
-19.59
-21.87
-23.82
-25.66
-27.76
-30.51
-34.15
-38.58
-43.35
-47.62
-50.36
-50.59
-47.67
-41.50
-32.56
-21.84
-10.53
0.23
9.63
17.27
23.09
27.21
29.82
31.07
31.16
30.32
28.84
27.06
25.23
23.49
21.90
20.52
19.44
18.73
18.44
18.50
18.72
18.87
18.79
18.38
17.62
16.51
15.05
13.28
11.29
9.18
7.08
5.06
3.14
1.26
-0.64
-2.63
-4.73
-6.94
-9.23
-11.55
-13.83
-16.00
-18.03
-19.89
-21.60
-23.16
-24.63
-26.19
-28.14
-30.88
-34.66
-39.31
-44.19
-48.13
-49.81
-48.20
-42.89
-34.30
-23.55
-12.05
-1.17
8.16
15.47
20.75
24.21
26.13
26.75
26.33
25.13
23.50
21.79
20.27
19.09
18.20
17.49
16.81
16.12
15.52
15.21
15.39
16.09
17.09
17.96
18.16
17.30
15.26
12.30
8.98
5.91
3.51
1.87
0.69
-0.51
-2.17
-4.48
-7.35
-10.42
-13.33
-15.80
-17.85
-19.69
-21.67
-24.20
-27.56
-31.79
-36.62
-41.33
-44.89
-46.18
-44.32
-39.03
-30.72
-20.45
-9.54
0.74
9.50
16.29
21.03
23.92
25.25
25.44
24.80
23.69
22.32
20.87
19.47
18.21
17.19
16.43
15.91
15.58
15.38
15.30
15.41
15.76
16.33
16.93
17.29
17.09
16.09
14.27
11.84
9.18
6.71
4.73
3.29
2.22
1.19
-0.15
-2.03
-4.50
-7.36
-10.30
-12.98
-15.20
-16.96
-18.54
-20.38
-22.94
-26.56
-31.29
-36.71
-42.01
-46.09
-47.82
-46.38
-41.45
-33.34
-22.97
-11.59
-0.55
9.00
16.33
21.23
23.98
25.16
25.42
25.23
24.82
24.20
23.32
22.21
21.04
20.06
19.43
19.14
19.05
19.00
18.89
18.77
18.74
18.83
18.94
18.88
18.37
17.22
15.38
12.96
10.23
7.52
5.12
3.19
1.67
0.33
-1.14
-2.98
-5.30
-7.99
-10.82
-13.55
-16.06
-18.29
-20.31
-22.25
-24.30
-26.74
-29.82
-33.67
-38.10
-42.50
-45.89
-47.16
-45.42
-40.34
-32.26
-22.12
-11.20
-0.77
8.20
15.18
20.07
23.04
24.44
24.62
23.90
22.60
20.98
19.32
17.84
16.67
15.86
15.39
15.26
15.48
16.03
16.88
17.84
18.67
19.05
18.76
17.67
15.86
13.52
10.93
8.36
6.00
3.92
2.08
0.31
-1.58
-3.82
-6.49
-9.53
-12.76
-15.89
-18.68
-21.02
-23.06
-25.10
-27.54
-30.69
-34.55
-38.78
-42.62
-45.08
-45.19
-42.27
-36.22
-27.53
-17.27
-6.71
2.97
10.99
17.07
21.30
23.97
25.40
25.84
25.45
24.41
22.99
21.50
20.23
19.39
18.98
18.87
18.81
18.61
18.22
17.75
17.43
17.45
17.81
18.25
18.39
17.84
16.46
14.37
11.98
9.70
7.82
6.35
5.08
3.69
1.89
-0.45
-3.29
-6.47
-9.76
-12.91
-15.75
-18.17
-20.22
-22.09
-24.13
-26.71
-30.22
-34.77
-40.09
-45.42
-49.68
-51.69
-50.55
-45.92
-38.15
-28.15
-17.14
-6.30
3.42
11.45
17.55
21.77
24.30
25.48
25.66
25.22
24.48
23.68
22.98
22.43
22.02
21.70
21.44
21.28
21.25
21.41
21.79
22.29
22.79
23.06
22.85
21.98
20.36
18.06
15.31
12.41
9.63
7.23
5.30
3.82
2.63
1.50
0.11
-1.80
-4.37
-7.53
-11.02
-14.41
-17.37
-19.71
-21.53
-23.16
-25.03
-27.49
-30.79
-34.87
-39.36
-43.57
-46.60
-47.49
-45.49
-40.29
-32.19
-22.04
-11.06
-0.53
8.52
15.50
20.33
23.30
24.89
25.58
25.70
25.41
24.77
23.82
22.70
21.60
20.75
20.33
20.33
20.66
21.10
21.49
21.69
21.65
21.35
20.80
19.96
18.82
17.30
15.40
13.16
10.70
8.19
5.78
3.56
1.50
-0.56
-2.76
-5.23
-7.94
-10.79
-13.58
-16.17
-18.46
-20.52
-22.53
-24.75
-27.45
-30.79
-34.74
-38.99
-42.93
-45.73
-46.49
-44.51
-39.55
-31.89
-22.35
-12.01
-2.00
6.81
13.88
19.09
22.56
24.60
25.55
25.74
25.40
24.72
23.83
22.83
21.86
21.10
20.70
20.72
21.12
21.72
22.35
22.88
23.26
23.44
23.38
22.94
22.03
20.60
18.76
16.75
14.82
13.14
11.70
10.37
8.94
7.24
5.24
3.02
0.74
-1.45
-3.49
-5.42
-7.39
-9.56
-11.99
-14.58
-17.11
-19.35
-21.21
-22.76
-24.29
-26.20
-28.86
-32.40
-36.65
-41.02
-44.68
-46.64
-46.02
-42.34
-35.61
-26.46
-15.92
-5.25
4.46
12.41
18.28
22.13
24.27
25.13
25.14
24.61
23.74
22.68
21.57
20.51
19.61
18.92
18.46
18.19
18.04
17.94
17.82
17.66
17.45
17.20
16.92
16.57
16.04
15.16
13.73
11.68
9.07
6.17
3.42
1.16
-0.42
-1.43
-2.20
-3.15
-4.56
-6.46
-8.67
-10.87
-12.81
-14.40
-15.70
-16.88
-18.17
-19.81
-22.03
-25.00
-28.68
-32.73
-36.37
-38.56
-38.26
-34.86
-28.43
-19.78
-10.19
-1.01
6.78
12.73
16.89
19.62
21.34
22.31
22.60
22.10
20.70
18.43
15.57
12.64
10.24
8.85
8.66
9.50
10.98
12.65
14.19
15.49
16.53
17.30
17.66
17.37
16.26
14.29
11.69
8.84
6.17
3.99
2.37
1.13
-0.05
-1.57
-3.68
-6.40
-9.51
-12.62
-15.36
-17.51
-19.12
-20.46
-21.91
-23.81
-26.37
-29.67
-33.60
-37.85
-41.89
-44.90
-45.93
-44.17
-39.19
-31.22
-21.17
-10.35
-0.08
8.64
15.39
20.21
23.46
25.54
26.68
27.00
26.56
25.47
24.02
22.54
21.34
20.58
20.19
20.01
19.84
19.62
19.39
19.26
19.27
19.29
19.08
18.41
17.20
15.56
13.75
11.96
10.32
8.76
7.16
5.45
3.66
1.87
0.15
-1.55
-3.37
-5.40
-7.69
-10.11
-12.52
-14.81
-16.95
-18.94
-20.84
-22.68
-24.56
-26.65
-29.25
-32.62
-36.73
-41.06
-44.55
-45.88
-43.99
-38.50
-29.96
-19.63
-9.03
0.59
8.51
14.61
19.13
22.35
24.44
25.42
25.36
24.43
22.96
21.37
20.05
19.20
18.84
18.81
18.90
18.92
18.80
18.63
18.50
18.49
18.54
18.49
18.07
17.11
15.56
13.51
11.19
8.86
6.74
4.94
3.47
2.28
1.26
0.25
-0.94
-2.52
-4.62
-7.25
-10.25
-13.30
-16.05
-18.23
-19.81
-21.01
-22.26
-24.08
-26.81
-30.48
-34.65
-38.46
-40.77
-40.57
-37.24
-30.86
-22.16
-12.32
-2.60
5.99
12.86
17.87
21.09
22.79
23.26
22.79
21.70
20.30
18.83
17.45
16.21
15.12
14.19
13.49
13.06
12.94
13.09
13.42
13.80
14.10
14.25
14.20
13.86
13.14
11.94
10.21
8.03
5.59
3.19
1.07
-0.68
-2.15
-3.57
-5.22
-7.27
-9.73
-12.44
-15.15
-17.63
-19.78
-21.66
-23.48
-25.49
-27.93
-30.94
-34.45
-38.15
-41.47
-43.61
-43.72
-41.12
-35.58
-27.44
-17.62
-7.37
2.09
9.88
15.65
19.47
21.71
22.77
22.99
22.62
21.85
20.83
19.75
18.76
17.96
17.38
16.94
16.56
16.17
15.79
15.50
15.40
15.56
15.90
16.21
16.20
15.61
14.26
12.18
9.56
6.68
3.89
1.45
-0.49
-1.96
-3.22
-4.61
-6.53
-9.19
-12.50
-16.07
-19.42
-22.15
-24.16
-25.64
-27.01
-28.72
-31.08
-34.21
-37.94
-41.87
-45.32
-47.46
-47.40
-44.52
-38.68
-30.32
-20.38
-10.03
-0.34
7.93
14.43
19.16
22.32
24.23
25.18
25.45
25.22
24.65
23.87
22.99
22.11
21.28
20.52
19.78
19.03
18.27
17.54
16.87
16.31
15.73
14.94
13.65
11.68
8.99
5.75
2.31
-0.97
-3.78
-6.08
-8.03
-9.91
-12.02
-14.46
-17.15
-19.74
-21.87
-23.23
-23.83
-23.97
-24.25
-25.33
-27.65
-31.24
-35.58
-39.69
-42.49
-43.07
-40.99
-36.26
-29.15
-20.11
-9.60
1.95
13.98
25.94
37.28
47.54
56.38
63.37
67.95
69.53
67.72
62.76
55.61
47.78
40.74
35.35
31.60
28.82
26.16
23.13
19.80
16.58
13.90
11.84
10.14
8.32
6.07
3.42
0.72
-1.57
-3.22
-4.35
-5.41
-6.89
-9.10
-11.93
-15.05
-17.98
-20.40
-22.26
-23.71
-25.04
-26.54
-28.53
-31.29
-34.96
-39.43
-44.15
-48.18
-50.42
-49.95
-46.39
-40.01
-31.66
-22.46
-13.48
-5.51
1.00
5.93
9.37
11.53
12.70
13.15
13.13
12.81
12.32
11.74
11.13
10.55
10.06
9.68
9.46
9.40
9.51
9.80
10.21
10.67
11.03
11.10
10.74
9.85
8.44
6.61
4.56
2.52
0.68
-0.90
-2.23
-3.46
-4.76
-6.22
-7.88
-9.68
-11.50
-13.24
-14.87
-16.42
-17.96
-19.64
-21.66
-24.23
-27.54
-31.55
-35.91
-39.85
-42.33
-42.32
-39.17
-32.87
-24.15
-14.20
-4.35
4.30
11.14
16.04
19.19
21.01
21.90
22.23
22.26
22.13
21.92
21.63
21.26
20.89
20.59
20.52
20.74
21.25
21.96
22.75
23.54
24.31
25.02
25.63
25.94
25.75
24.84
23.17
20.89
18.33
15.81
13.56
11.62
9.82
7.90
5.71
3.19
0.46
-2.23
-4.69
-6.79
-8.52
-9.96
-11.22
-12.41
-13.61
-14.94
-16.61
-18.87
-21.99
-25.98
-30.53
-34.89
-38.03
-38.91
-36.85
-31.81
-24.34
-15.54
-6.59
1.49
8.13
13.21
16.90
19.51
21.31
22.45
22.99
23.01
22.60
21.95
21.26
20.73
20.48
20.56
20.91
21.43
22.04
22.65
23.22
23.69
23.95
23.80
23.06
21.62
19.54
17.14
14.81
12.90
11.52
10.52
9.54
8.24
6.51
4.46
2.43
0.70
-0.65
-1.76
-2.91
-4.37
-6.21
-8.34
-10.56
-12.68
-14.63
-16.39
-18.02
-19.57
-21.18
-23.03
-25.44
-28.66
-32.68
-37.11
-41.15
-43.74
-43.93
-41.20
-35.62
-27.83
-18.81
-9.65
-1.23
5.87
11.39
15.41
18.13
19.87
20.91
21.48
21.73
21.77
21.67
21.48
21.29
21.13
21.01
20.90
20.76
20.54
20.21
19.80
19.36
18.96
18.63
18.32
17.94
17.34
16.45
15.25
13.87
12.51
11.36
10.48
9.78
9.04
8.00
6.51
4.57
2.44
0.42
-1.21
-2.39
-3.25
-4.12
-5.32
-7.07
-9.36
-11.93
-14.42
-16.52
-18.08
-19.15
-20.08
-21.32
-23.30
-26.31
-30.29
-34.82
-39.12
-42.19
-43.10
-41.28
-36.64
-29.65
-21.18
-12.26
-3.83
3.43
9.16
13.31
15.97
17.38
17.83
17.60
17.04
16.42
15.97
15.79
15.90
16.19
16.54
16.82
16.97
16.99
16.94
16.91
16.91
16.91
16.75
16.26
15.36
14.07
12.53
10.97
9.57
8.44
7.57
6.85
6.12
5.27
4.22
2.96
1.56
0.15
-1.07
-1.99
-2.67
-3.37
-4.42
-6.15
-8.58
-11.46
-14.34
-16.77
-18.55
-19.81
-20.93
-22.39
-24.57
-27.61
-31.34
-35.29
-38.74
-40.87
-40.92
-38.46
-33.50
-26.54
-18.42
-10.11
-2.46
3.93
8.83
12.22
14.34
15.51
16.03
16.18
16.09
15.79
15.28
14.65
14.04
13.65
13.63
14.00
14.66
15.46
16.31
17.21
18.20
19.25
20.21
20.77
20.61
19.61
17.90
15.85
13.89
12.34
11.27
10.51
9.75
8.72
7.30
5.53
3.53
1.44
-0.62
-2.57
-4.36
-5.96
-7.39
-8.75
-10.18
-11.78
-13.56
-15.48
-17.42
-19.32
-21.24
-23.37
-25.95
-29.20
-33.13
-37.49
-41.67
-44.84
-46.09
-44.69
-40.41
-33.54
-24.93
-15.66
-6.79
0.94
7.20
11.95
15.40
17.75
19.18
19.89
20.14
20.21
20.35
20.70
21.20
21.70
21.94
21.79
21.24
20.43
19.63
19.07
18.86
18.96
19.15
19.18
18.83
18.00
16.79
15.37
13.98
12.79
11.88
11.19
10.60
9.96
9.11
7.95
6.45
4.67
2.75
0.88
-0.81
-2.28
-3.62
-5.02
-6.64
-8.56
-10.70
-12.88
-14.93
-16.72
-18.36
-20.06
-22.17
-24.98
-28.54
-32.55
-36.32
-38.94
-39.50
-37.43
-32.69
-25.83
-17.80
-9.64
-2.23
3.95
8.74
12.24
14.66
16.17
16.98
17.26
17.18
16.90
16.54
16.16
15.80
15.49
15.29
15.23
15.31
15.49
15.69
15.89
16.08
16.25
16.32
16.11
15.42
14.11
12.18
9.79
7.22
4.71
2.47
0.59
-0.94
-2.18
-3.29
-4.44
-5.82
-7.51
-9.46
-11.45
-13.24
-14.70
-15.92
-17.22
-18.98
-21.54
-24.99
-29.13
-33.44
-37.14
-39.39
-39.37
-36.66
-31.27
-23.79
-15.16
-6.52
1.11
7.11
11.25
13.70
14.88
15.26
15.31
15.36
15.55
15.89
16.25
16.48
16.51
16.37
16.20
16.14
16.25
16.46
16.65
16.66
16.43
16.01
15.52
15.07
14.73
14.45
14.12
13.62
12.87
11.80
10.41
8.72
6.80
4.73
2.64
0.62
-1.30
-3.22
-5.25
-7.52
-10.04
-12.65
-15.09
-17.11
-18.60
-19.70
-20.75
-22.18
-24.37
-27.44
-31.18
-35.02
-38.08
-39.47
-38.48
-34.85
-28.86
-21.23
-12.98
-5.04
1.92
7.53
11.73
14.60
16.29
17.00
16.94
16.39
15.63
14.88
14.24
13.67
13.10
12.44
11.73
11.08
10.60
10.37
10.38
10.51
10.59
10.51
10.22
9.73
9.10
8.38
7.65
6.99
6.50
6.29
6.38
6.73
7.20
7.63
7.90
7.96
7.78
7.37
6.66
5.62
4.22
2.51
0.60
-1.38
-3.37
-5.41
-7.65
-10.29
-13.51
-17.34
-21.56
-25.65
-28.84
-30.29
-29.32
-25.67
-19.63
-11.99
-3.86
3.66
9.77
14.12
16.80
18.16
18.62
18.52
18.06
17.40
16.64
15.90
15.22
14.59
13.91
13.06
12.03
10.98
10.14
9.72
9.74
9.97
10.09
9.79
8.90
7.47
5.71
3.89
2.22
0.77
-0.53
-1.84
-3.34
-5.11
-7.08
-9.08
-10.90
-12.42
-13.64
-14.78
-16.09
-17.83
-20.18
-23.22
-26.85
-30.77
-34.35
-36.73
-36.98
-34.40
-28.92
-21.15
-12.24
-3.51
3.98
9.77
13.89
16.68
18.49
19.55
19.97
19.86
19.43
18.97
18.66
18.54
18.45
18.19
17.66
16.95
16.30
15.96
16.01
16.31
16.54
16.34
15.43
13.76
11.47
8.84
6.21
3.85
1.84
0.10
-1.58
-3.48
-5.69
-8.17
-10.70
-13.01
-14.93
-16.45
-17.67
-18.84
-20.24
-22.14
-24.74
-27.97
-31.49
-34.60
-36.43
-36.15
-33.28
-27.94
-20.76
-12.73
-4.82
2.20
7.96
12.39
15.65
17.98
19.55
20.48
20.88
20.83
20.40
19.72
18.90
18.02
17.18
16.43
15.82
15.37
15.04
14.79
14.56
14.29
13.99
13.60
13.06
12.21
10.90
9.06
6.76
4.27
1.89
-0.16
-1.91
-3.59
-5.50
-7.82
-10.44
-13.03
-15.20
-16.76
-17.83
-18.83
-20.28
-22.53
-25.58
-29.03
-32.19
-34.27
-34.57
-32.66
-28.52
-22.53
-15.42
-8.02
-1.09
4.86
9.58
13.08
15.45
16.83
17.33
17.10
16.33
15.22
13.97
12.72
11.58
10.59
9.81
9.34
9.23
9.52
10.13
10.82
11.33
11.40
10.91
9.87
8.46
6.86
5.27
3.77
2.34
0.90
-0.62
-2.24
-3.91
-5.55
-7.05
-8.37
-9.53
-10.68
-12.04
-13.87
-16.38
-19.63
-23.39
-27.15
-30.11
-31.43
-30.43
-26.85
-20.96
-13.52
-5.50
2.16
8.77
14.06
18.07
21.01
23.07
24.39
24.96
24.82
24.02
22.75
21.29
19.89
18.74
17.91
17.42
17.22
17.30
17.61
18.08
18.61
19.04
19.21
19.05
18.52
17.67
16.55
15.27
13.92
12.55
11.18
9.73
8.12
6.34
4.46
2.71
1.30
0.32
-0.37
-1.09
-2.25
-4.08
-6.57
-9.38
-12.01
-14.02
-15.21
-15.76
-16.14
-16.97
-18.72
-21.63
-25.51
-29.85
-33.88
-36.77
-37.79
-36.51
-32.91
-27.42
-20.79
-13.92
-7.54
-2.09
2.34
5.86
8.64
10.80
12.37
13.40
13.96
14.19
14.22
14.11
13.87
13.51
13.07
12.68
12.52
12.70
13.26
14.10
15.04
15.81
16.13
15.80
14.82
13.40
11.90
10.74
10.11
9.93
9.84
9.41
8.37
6.74
4.79
2.89
1.33
0.16
-0.75
-1.69
-2.91
-4.55
-6.66
-9.19
-11.96
-14.74
-17.25
-19.23
-20.53
-21.20
-21.55
-22.01
-23.06
-24.97
-27.67
-30.58
-32.82
-33.42
-31.71
-27.57
-21.55
-14.60
-7.78
-1.87
2.75
6.10
8.37
9.78
10.45
10.57
10.33
10.01
9.85
9.96
10.24
10.56
10.82
11.06
11.43
12.14
13.23
14.59
15.89
16.81
17.13
16.86
16.22
15.52
14.96
14.53
14.01
13.17
11.87
10.24
8.55
7.12
6.09
5.34
4.62
3.68
2.39
0.79
-0.99
-2.84
-4.70
-6.57
-8.47
-10.39
-12.30
-14.18
-16.04
-17.96
-20.05
-22.39
-24.98
-27.62
-29.85
-31.07
-30.63
-28.13
-23.60
-17.54
-10.87
-4.56
0.59
4.25
6.53
7.88
8.79
9.62
10.52
11.41
12.10
12.49
12.59
12.52
12.40
12.27
12.04
11.59
10.84
9.85
8.83
8.05
7.68
7.71
7.96
8.12
7.96
7.37
6.39
5.19
3.94
2.76
1.72
0.85
0.21
-0.17
-0.26
-0.06
0.31
0.71
0.97
0.98
0.68
0.10
-0.70
-1.64
-2.72
-3.91
-5.23
-6.66
-8.13
-9.61
-11.09
-12.69
-14.62
-17.15
-20.35
-24.11
-27.90
-30.97
-32.51
-31.94
-29.11
-24.36
-18.44
-12.18
-6.35
-1.43
2.36
5.05
6.84
7.97
8.67
9.09
9.30
9.31
9.14
8.83
8.47
8.16
7.97
7.88
7.85
7.92
8.15
8.68
9.60
10.81
12.03
12.90
13.11
12.56
11.39
9.89
8.33
6.85
5.43
3.94
2.29
0.50
-1.25
-2.70
-3.66
-4.13
-4.33
-4.59
-5.25
-6.44
-8.10
-9.98
-11.85
-13.58
-15.19
-16.80
-18.54
-20.55
-22.88
-25.57
-28.54
-31.54
-34.17
-35.81
-35.85
-33.86
-29.75
-23.85
-16.83
-9.51
-2.60
3.37
8.14
11.70
14.22
15.88
16.85
17.21
17.00
16.29
15.24
14.15
13.36
13.11
13.43
14.14
14.93
15.54
15.93
16.21
16.64
17.31
18.13
18.80
18.94
18.32
16.93
15.02
12.92
10.89
9.05
7.30
5.50
3.60
1.62
-0.31
-2.06
-3.61
-5.05
-6.53
-8.17
-9.99
-11.91
-13.83
-15.76
-17.81
-20.20
-23.18
-26.84
-30.98
-35.07
-38.35
-39.99
-39.35
-36.21
-30.86
-23.97
-16.42
-9.01
-2.27
3.50
8.26
12.06
14.94
16.99
18.27
18.88
18.98
18.73
18.31
17.89
17.55
17.29
17.07
16.85
16.67
16.56
16.57
16.67
16.73
16.57
16.04
15.15
14.03
12.91
11.97
11.25
10.68
10.09
9.35
8.39
7.29
6.14
5.03
3.99
2.94
1.70
0.11
-1.92
-4.31
-6.82
-9.16
-11.11
-12.65
-14.00
-15.56
-17.75
-20.84
-24.76
-29.03
-32.86
-35.33
-35.70
-33.63
-29.30
-23.28
-16.36
-9.32
-2.73
3.01
7.72
11.30
13.75
15.20
15.86
16.05
16.04
16.03
16.09
16.15
16.10
15.80
15.22
14.46
13.73
13.31
13.43
14.16
15.37
16.75
18.02
19.01
19.69
20.13
20.34
20.25
19.74
18.73
17.24
15.42
13.43
11.34
9.06
6.39
3.19
-0.48
-4.31
-7.87
-10.75
-12.79
-14.18
-15.36
-16.82
-18.89
-21.52
-24.27
-26.43
-27.24
-26.13
-22.92
-17.88
-11.63
-5.00
1.27
6.64
10.88
13.99
16.08
17.27
17.66
17.35
16.52
15.41
14.32
13.39
12.64
11.97
11.26
10.47
9.67
9.05
8.75
8.81
9.15
9.59
9.97
10.17
10.19
9.99
9.54
8.80
7.72
6.35
4.77
3.16
1.65
0.28
-0.99
-2.30
-3.83
-5.69
-7.89
-10.31
-12.73
-14.92
-16.71
-18.08
-19.20
-20.37
-21.93
-24.17
-27.21
-30.89
-34.76
-38.11
-40.08
-39.93
-37.20
-31.96
-24.79
-16.63
-8.50
-1.23
4.70
9.17
12.32
14.39
15.62
16.24
16.43
16.39
16.30
16.29
16.44
16.79
17.30
17.92
18.56
19.13
19.57
19.90
20.14
20.35
20.54
20.65
20.53
20.01
18.92
17.21
15.01
12.56
10.19
8.17
6.59
5.33
4.14
2.69
0.78
-1.58
-4.18
-6.73
-8.96
-10.75
-12.18
-13.42
-14.67
-16.17
-18.10
-20.65
-23.89
-27.73
-31.83
-35.55
-38.05
-38.52
-36.45
-31.84
-25.22
-17.49
-9.62
-2.45
3.53
8.17
11.52
13.79
15.19
15.91
16.13
16.00
15.67
15.24
14.78
14.31
13.79
13.16
12.42
11.64
11.00
10.73
11.00
11.75
12.70
13.41
13.41
12.49
10.70
8.42
6.09
4.07
2.49
1.29
0.22
-0.92
-2.31
-4.00
-5.97
-8.12
-10.35
-12.54
-14.66
-16.76
-19.04
-21.72
-24.98
-28.67
-32.36
-35.28
-36.55
-35.50
-31.89
-25.98
-18.54
-10.51
-2.79
3.98
9.48
13.67
16.61
18.43
19.27
19.29
18.69
17.71
16.56
15.37
14.26
13.25
12.36
11.62
11.11
10.87
10.90
11.20
11.70
12.32
12.91
13.34
13.36
12.82
11.62
9.82
7.62
5.29
3.00
0.84
-1.27
-3.47
-5.84
-8.34
-10.76
-12.86
-14.45
-15.50
-16.16
-16.75
-17.57
-18.93
-21.00
-23.83
-27.24
-30.83
-33.93
-35.70
-35.37
-32.46
-26.99
-19.60
-11.32
-3.34
3.39
8.40
11.71
13.68
14.78
15.34
15.53
15.36
14.83
14.03
13.10
12.20
11.42
10.76
10.18
9.65
9.18
8.79
8.51
8.28
8.04
7.67
7.06
6.12
4.76
2.97
0.87
-1.30
-3.20
-4.47
-4.89
-4.50
-3.54
-2.38
-1.38
-0.75
-0.52
-0.61
-0.92
-1.37
-1.92
-2.55
-3.24
-3.93
-4.60
-5.23
-5.75
-6.07
-5.97
-5.19
-3.52
-0.97
2.23
5.61
8.62
10.85
12.09
12.39
11.94
10.99
9.73
8.31
6.80
5.21
3.57
1.90
0.34
-0.95
-1.78
-2.03
-1.69
-0.95
-0.07
0.73
1.26
1.48
1.42
1.13
0.66
0.05
-0.68
-1.54
-2.56
-3.83
-5.35
-7.10
-8.94
-10.72
-12.31
-13.76
-15.20
-16.82
-18.74
-20.96
-23.41
-25.94
-28.33
-30.20
-31.04
-30.27
-27.44
-22.41
-15.51
-7.54
0.59
8.03
14.29
19.23
22.97
25.72
27.63
28.77
29.19
29.00
28.36
27.45
26.42
25.37
24.34
23.34
22.41
21.54
20.73
19.92
19.08
18.18
17.26
16.34
15.39
14.31
12.98
11.31
9.34
7.25
5.23
3.41
1.78
0.17
-1.62
-3.71
-6.07
-8.50
-10.77
-12.70
-14.30
-15.75
-17.40
-19.63
-22.70
-26.59
-30.95
-35.05
-37.98
-38.81
-36.92
-32.22
-25.19
-16.80
-8.12
-0.07
6.78
12.28
16.50
19.63
21.82
23.17
23.80
23.87
23.62
23.24
22.86
22.53
22.19
21.78
21.25
20.61
19.88
19.13
18.40
17.70
17.03
16.32
15.46
14.36
12.95
11.27
9.41
7.54
5.80
4.30
3.03
1.91
0.77
-0.56
-2.19
-4.11
-6.23
-8.35
-10.30
-12.01
-13.60
-15.29
-17.38
-20.06
-23.42
-27.29
-31.32
-34.98
-37.58
-38.44
-36.98
-32.98
-26.68
-18.80
-10.33
-2.28
4.62
10.04
14.01
16.76
18.51
19.43
19.66
19.37
18.78
18.13
17.60
17.18
16.78
16.25
15.56
14.80
14.21
13.97
14.20
14.75
15.33
15.56
15.14
13.94
12.08
9.84
7.52
5.33
3.33
1.40
-0.57
-2.68
-4.85
-6.97
-8.89
-10.59
-12.13
-13.66
-15.32
-17.22
-19.44
-22.01
-24.95
-28.18
-31.41
-34.04
-35.30
-34.46
-31.08
-25.37
-18.09
-10.37
-3.30
2.44
6.67
9.64
11.71
13.22
14.33
15.09
15.48
15.55
15.39
15.13
14.86
14.63
14.47
14.41
14.42
14.52
14.68
14.90
15.12
15.30
15.32
15.06
14.38
13.23
11.65
9.77
7.77
5.82
4.08
2.61
1.35
0.15
-1.24
-2.96
-5.11
-7.57
-10.13
-12.54
-14.61
-16.31
-17.78
-19.30
-21.24
-23.86
-27.25
-31.11
-34.75
-37.25
-37.67
-35.39
-30.38
-23.21
-14.87
-6.46
1.08
7.19
11.68
14.66
16.46
17.45
18.02
18.44
18.81
19.11
19.24
19.10
18.74
18.25
17.78
17.38
17.07
16.83
16.67
16.65
16.75
16.82
16.55
15.56
13.68
11.03
8.03
5.26
3.12
1.69
0.70
-0.27
-1.58
-3.42
-5.67
-8.07
-10.34
-12.27
-13.83
-15.15
-16.53
-18.26
-20.58
-23.43
-26.51
-29.20
-30.79
-30.58
-28.21
-23.71
-17.53
-10.44
-3.31
3.10
8.29
12.07
14.49
15.82
16.37
16.44
16.23
15.85
15.31
14.62
13.80
12.99
12.32
11.93
11.83
11.93
12.09
12.22
12.26
12.27
12.20
11.97
11.43
10.44
9.00
7.24
5.41
3.69
2.12
0.63
-0.95
-2.78
-4.86
-7.08
-9.29
-11.40
-13.43
-15.51
-17.84
-20.63
-23.99
-27.78
-31.58
-34.66
-36.16
-35.31
-31.79
-25.86
-18.31
-10.24
-2.66
3.76
8.85
12.75
15.75
18.04
19.68
20.62
20.81
20.38
19.55
18.59
17.74
17.08
16.58
16.15
15.71
15.26
14.89
14.67
14.61
14.59
14.42
13.91
12.91
11.37
9.35
7.08
4.82
2.88
1.40
0.34
-0.57
-1.66
-3.15
-5.00
-6.97
-8.71
-10.02
-10.95
-11.78
-12.93
-14.76
-17.50
-21.12
-25.33
-29.57
-33.03
-34.81
-34.16
-30.74
-24.85
-17.33
-9.35
-1.97
4.13
8.77
12.11
14.48
16.13
17.16
17.63
17.61
17.28
16.87
16.63
16.69
17.03
17.54
18.07
18.51
18.79
18.89
18.79
18.42
17.74
16.70
15.36
13.79
12.06
10.26
8.35
6.24
3.82
1.07
-1.93
-4.92
-7.62
-9.78
-11.36
-12.51
-13.48
-14.53
-15.82
-17.43
-19.38
-21.67
-24.27
-26.96
-29.30
-30.64
-30.29
-27.83
-23.23
-16.96
-9.84
-2.76
3.50
8.48
12.01
14.21
15.36
15.77
15.72
15.40
14.88
14.22
13.49
12.75
12.11
11.61
11.26
11.02
10.84
10.73
10.66
10.57
10.37
9.92
9.09
7.82
6.14
4.19
2.15
0.20
-1.56
-3.11
-4.52
-5.93
-7.44
-9.11
-10.91
-12.71
-14.37
-15.81
-17.05
-18.22
-19.55
-21.25
-23.48
-26.22
-29.16
-31.70
-33.08
-32.53
-29.65
-24.54
-17.87
-10.63
-3.84
1.84
6.19
9.40
11.84
13.80
15.40
16.65
17.48
17.92
18.05
17.96
17.74
17.39
16.92
16.40
15.91
15.61
15.58
15.85
16.34
16.88
17.29
17.33
16.83
15.71
14.03
12.01
9.95
8.10
6.59
5.39
4.34
3.22
1.89
0.27
-1.60
-3.64
-5.72
-7.76
-9.76
-11.79
-14.04
-16.72
-20.00
-23.84
-27.97
-31.86
-34.82
-36.18
-35.46
-32.54
-27.68
-21.53
-14.97
-8.83
-3.77
-0.10
2.16
3.25
3.45
3.01
2.20
1.20
0.25
-0.51
-0.97
-1.16
-1.18
-1.17
-1.17
-1.15
-0.99
-0.60
0.00
0.69
1.28
1.61
1.54
1.04
0.16
-0.99
-2.23
-3.43
-4.51
-5.51
-6.56
-7.76
-9.13
-10.58
-11.96
-13.12
-14.08
-15.00
-16.13
-17.67
-19.66
-21.87
-23.83
-24.94
-24.59
-22.39
-18.25
-12.48
-5.69
1.33
7.87
13.46
17.89
21.19
23.50
24.95
25.63
25.56
24.82
23.57
22.03
20.47
19.08
17.96
17.13
16.62
16.47
16.71
17.25
17.89
18.25
18.00
16.95
15.18
12.99
10.77
8.79
7.12
5.62
4.11
2.45
0.65
-1.22
-3.07
-4.83
-6.55
-8.29
-10.09
-11.95
-13.86
-15.86
-18.10
-20.75
-23.88
-27.25
-30.28
-32.15
-32.05
-29.50
-24.59
-17.94
-10.50
-3.23
3.11
8.11
11.66
13.91
15.14
15.70
15.90
15.91
15.81
15.51
14.95
14.16
13.24
12.40
11.77
11.40
11.25
11.25
11.36
11.49
11.52
11.20
10.27
8.55
6.10
3.23
0.46
-1.81
-3.37
-4.37
-5.15
-6.09
-7.40
-9.06
-10.87
-12.53
-13.78
-14.50
-14.76
-14.81
-15.07
-16.01
-17.88
-20.59
-23.58
-25.88
-26.44
-24.49
-19.83
-12.90
-4.60
3.93
11.65
17.80
22.17
25.14
27.65
30.98
36.31
44.29
54.70
66.49
77.97
87.40
93.39
95.18
92.80
86.80
78.21
68.25
58.16
48.94
41.17
34.94
29.96
25.71
21.74
17.74
13.59
9.21
4.57
-0.34
-5.44
-10.50
-15.15
-19.06
-22.04
-24.22
-25.94
-27.70
-29.99
-33.12
-37.15
-41.90
-47.03
-52.03
-56.32
-59.30
-60.34
-58.98
-55.04
-48.74
-40.75
-32.03
-23.61
-16.31
-10.52
-6.22
-3.09
-0.82
0.74
1.51
1.43
0.59
-0.65
-1.69
-2.06
-1.56
-0.43
0.83
1.67
1.83
1.35
0.52
-0.32
-0.99
-1.50
-1.96
-2.52
-3.26
-4.23
-5.50
-7.15
-9.29
-11.97
-15.20
-18.84
-22.64
-26.27
-29.36
-31.64
-33.01
-33.63
-33.98
-34.66
-36.22
-38.85
-42.25
-45.62
-47.92
-48.20
-45.99
-41.39
-35.05
-27.83
-20.61
-13.96
-8.17
-3.31
0.68
3.89
6.37
8.24
9.62
10.62
11.35
11.87
12.25
12.56
12.90
13.34
13.88
14.43
14.84
14.99
14.86
14.53
14.13
13.78
13.52
13.28
12.93
12.34
11.36
9.88
7.81
5.17
2.08
-1.21
-4.37
-7.12
-9.36
-11.15
-12.72
-14.32
-16.13
-18.26
-20.69
-23.30
-25.76
-27.59
-28.15
-26.86
-23.41
-17.92
-10.98
-3.45
3.80
10.16
15.37
19.43
22.45
24.51
25.68
26.02
25.63
24.71
23.46
22.03
20.54
19.05
17.67
16.53
15.82
15.65
15.94
16.50
17.01
17.17
16.79
15.84
14.45
12.79
11.03
9.29
7.60
5.96
4.29
2.56
0.70
-1.31
-3.43
-5.59
-7.69
-9.63
-11.39
-13.11
-14.96
-17.15
-19.73
-22.48
-24.88
-26.20
-25.75
-23.11
-18.29
-11.78
-4.43
2.88
9.37
14.59
18.33
20.69
21.92
22.34
22.29
21.95
21.43
20.67
19.61
18.29
16.86
15.56
14.61
14.11
13.94
13.96
14.02
14.11
14.27
14.51
14.76
14.82
14.55
13.96
13.34
13.07
13.50
14.75
16.67
18.99
21.55
24.37
27.62
31.32
34.99
37.64
37.98
34.93
28.14
18.16
6.34
-5.69
-16.39
-24.69
-29.94
-31.85
-30.45
-26.09
-19.55
-11.94
-4.55
1.56
5.78
8.08
8.90
8.83
8.45
8.07
7.77
7.44
6.94
6.14
5.02
3.67
2.26
1.01
0.11
-0.30
-0.22
0.25
0.89
1.44
1.69
1.47
0.76
-0.37
-1.81
-3.47
-5.25
-7.09
-8.92
-10.68
-12.32
-13.85
-15.37
-16.95
-18.66
-20.42
-22.10
-23.54
-24.70
-25.72
-26.97
-28.82
-31.48
-34.80
-38.16
-40.70
-41.46
-39.78
-35.50
-29.04
-21.30
-13.33
-6.02
0.10
4.86
8.40
10.94
12.65
13.60
13.84
13.46
12.63
11.54
10.36
9.12
7.81
6.38
4.89
3.49
2.38
1.69
1.46
1.54
1.70
1.70
1.38
0.70
-0.28
-1.48
-2.82
-4.27
-5.86
-7.59
-9.41
-11.21
-12.83
-14.12
-15.02
-15.56
-15.85
-16.05
-16.38
-17.07
-18.38
-20.44
-23.15
-26.05
-28.39
-29.27
-28.00
-24.31
-18.51
-11.41
-3.97
2.95
8.80
13.40
16.84
19.24
20.75
21.43
21.38
20.72
19.67
18.48
17.38
16.49
15.80
15.21
14.57
13.80
12.85
11.83
10.87
10.14
9.74
9.59
9.49
9.13
8.22
6.63
4.45
1.93
-0.59
-2.86
-4.82
-6.51
-8.06
-9.56
-11.11
-12.84
-14.90
-17.42
-20.32
-23.15
-25.12
-25.35
-23.20
-18.59
-12.06
-4.60
2.71
9.07
14.09
17.81
20.46
22.28
23.43
23.94
23.79
22.99
21.66
19.98
18.21
16.59
15.29
14.32
13.61
13.02
12.46
11.92
11.37
10.78
10.09
9.17
7.93
6.32
4.39
2.21
-0.16
-2.71
-5.42
-8.25
-11.07
-13.70
-15.98
-17.84
-19.43
-21.00
-22.84
-25.18
-28.04
-31.22
-34.26
-36.54
-37.41
-36.34
-33.11
-27.84
-21.00
-13.34
-5.66
1.35
7.25
11.83
15.13
17.29
18.53
19.03
18.99
18.62
18.09
17.52
16.95
16.38
15.74
15.07
14.45
14.05
14.01
14.29
14.72
15.00
14.83
14.05
12.65
10.74
8.45
5.90
3.11
0.17
-2.82
-5.69
-8.24
-10.31
-11.83
-12.89
-13.70
-14.58
-15.89
-17.91
-20.64
-23.74
-26.56
-28.23
-28.01
-25.50
-20.81
-14.49
-7.35
-0.18
6.49
12.37
17.43
21.67
25.01
27.36
28.62
28.82
28.22
27.17
26.01
25.01
24.20
23.54
23.00
22.55
22.20
21.93
21.59
21.04
20.14
18.88
17.34
15.65
13.90
12.01
9.89
7.41
4.57
1.50
-1.61
-4.50
-7.01
-9.15
-11.12
-13.26
-15.97
-19.40
-23.35
-27.11
-29.68
-30.02
-27.51
-22.13
-14.53
-5.80
2.91
10.72
17.15
22.15
26.00
29.06
31.68
34.05
36.17
37.82
38.75
38.78
38.05
36.94
36.01
35.60
35.62
35.38
33.85
29.97
23.18
13.60
2.16
-9.64
-20.05
-27.45
-30.74
-29.61
-24.64
-17.30
-9.43
-2.77
1.62
3.70
4.25
4.44
5.14
6.45
7.64
7.47
4.84
-0.81
-9.30
-19.86
-31.50
-43.31
-54.56
-64.70
-73.21
-79.50
-82.94
-83.05
-79.66
-73.16
-64.48
-54.96
-45.95
-38.51
-33.09
-29.57
-27.43
-26.09
-25.18
-24.53
-24.01
-23.37
-22.15
-19.85
-16.17
-11.15
-5.24
0.96
7.07
13.21
20.10
28.71
39.70
52.84
66.84
79.66
89.23
94.34
94.93
92.07
87.27
81.86
76.40
70.63
63.78
54.95
43.56
29.61
13.67
-3.10
-19.21
-33.15
-43.71
-50.33
-53.11
-52.78
-50.26
-46.42
-41.76
-36.43
-30.31
-23.22
-15.10
-6.03
3.73
13.81
23.78
33.16
41.41
48.00
52.42
54.30
53.49
50.09
44.59
37.85
31.14
25.98
23.72
25.17
30.15
37.57
45.63
52.57
57.09
58.71
57.61
54.36
49.51
43.39
36.16
27.90
18.89
9.66
0.86
-6.88
-13.21
-18.19
-22.24
-25.90
-29.53
-32.97
-35.63
-36.71
-35.61
-32.32
-27.38
-21.62
-15.75
-10.13
-4.75
0.51
5.60
10.22
13.88
16.19
17.04
16.59
15.09
12.75
9.67
6.02
2.12
-1.52
-4.41
-6.32
-7.39
-8.05
-8.75
-9.72
-10.86
-11.93
-12.79
-13.48
-14.28
-15.44
-17.03
-18.86
-20.70
-22.42
-24.15
-26.19
-28.94
-32.60
-37.06
-41.89
-46.33
-49.51
-50.59
-49.00
-44.62
-37.84
-29.48
-20.62
-12.25
-5.12
0.39
4.25
6.55
7.52
7.32
6.19
4.39
2.28
0.19
-1.59
-2.88
-3.61
-3.80
-3.51
-2.79
-1.73
-0.43
0.97
2.30
3.35
3.97
4.09
3.76
3.11
2.30
1.42
0.47
-0.68
-2.23
-4.28
-6.78
-9.58
-12.42
-15.09
-17.45
-19.52
-21.42
-23.42
-25.87
-29.12
-33.24
-37.91
-42.29
-45.27
-45.79
-43.29
-37.84
-30.14
-21.23
-12.14
-3.66
3.69
9.65
14.13
17.20
19.04
19.93
20.16
19.91
19.24
18.08
16.41
14.37
12.28
10.57
9.56
9.39
9.85
10.56
11.11
11.18
10.71
9.82
8.68
7.44
6.16
4.80
3.31
1.64
-0.27
-2.43
-4.83
-7.43
-10.06
-12.54
-14.70
-16.43
-17.80
-19.05
-20.54
-22.64
-25.63
-29.45
-33.73
-37.75
-40.58
-41.35
-39.45
-34.76
-27.69
-19.08
-9.98
-1.40
5.91
11.58
15.60
18.17
19.53
19.90
19.37
18.06
16.13
13.86
11.63
9.78
8.49
7.77
7.43
7.26
7.12
6.98
6.89
6.88
6.86
6.65
6.05
4.90
3.19
1.03
-1.44
-4.08
-6.83
-9.66
-12.51
-15.24
-17.69
-19.68
-21.19
-22.45
-23.91
-26.06
-29.24
-33.34
-37.71
-41.26
-42.74
-41.18
-36.22
-28.22
-18.20
-7.49
2.62
11.23
17.96
22.89
26.33
28.60
29.92
30.39
30.01
28.90
27.21
25.15
22.92
20.66
18.45
16.41
14.66
13.34
12.57
12.32
12.44
12.66
12.67
12.20
11.09
9.34
7.08
4.54
1.95
-0.48
-2.66
-4.57
-6.29
-7.92
-9.59
-11.35
-13.26
-15.37
-17.73
-20.45
-23.67
-27.46
-31.80
-36.38
-40.60
-43.61
-44.50
-42.53
-37.46
-29.69
-20.16
-10.05
-0.50
7.75
14.36
19.27
22.55
24.24
24.42
23.30
21.29
18.94
16.78
15.08
13.84
12.87
11.91
10.92
9.96
9.17
8.63
8.27
7.92
7.37
6.44
5.07
3.29
1.18
-1.16
-3.60
-6.04
-8.35
-10.46
-12.29
-13.83
-15.06
-15.90
-16.27
-16.05
-15.13
-13.52
-11.39
-9.13
-7.36
-6.69
-7.54
-9.85
-13.00
-15.90
-17.25
-16.05
-11.89
-5.09
3.44
12.53
21.11
28.47
34.24
38.35
40.84
41.76
41.20
39.34
36.47
33.02
29.49
26.32
23.79
21.96
20.62
19.46
18.16
16.57
14.79
13.05
11.58
10.49
9.66
8.85
7.76
6.17
4.04
1.43
-1.48
-4.53
-7.51
-10.29
-12.78
-14.99
-17.08
-19.32
-22.01
-25.35
-29.31
-33.54
-37.31
-39.68
-39.76
-36.96
-31.25
-23.21
-13.88
-4.42
4.23
11.52
17.29
21.61
24.60
26.32
26.81
26.20
24.78
22.91
20.97
19.18
17.56
16.04
14.55
13.09
11.78
10.74
10.00
9.52
9.18
8.83
8.33
7.52
6.20
4.25
1.64
-1.47
-4.78
-7.97
-10.77
-13.16
-15.28
-17.42
-19.90
-22.93
-26.61
-30.83
-35.25
-39.24
-41.99
-42.65
-40.62
-35.72
-28.36
-19.35
-9.75
-0.52
7.68
14.47
19.74
23.47
25.69
26.46
25.96
24.51
22.52
20.37
18.33
16.49
14.79
13.12
11.41
9.63
7.86
6.17
4.62
3.28
2.15
1.16
0.25
-0.71
-1.83
-3.21
-4.96
-7.17
-9.89
-13.08
-16.53
-19.94
-22.98
-25.51
-27.63
-29.66
-31.95
-34.67
-37.64
-40.34
-42.02
-41.88
-39.31
-34.00
-26.09
-16.13
-5.05
6.02
16.04
24.24
30.36
34.49
37.02
38.35
38.78
38.48
37.46
35.76
33.42
30.61
27.51
24.37
21.38
18.68
16.31
14.27
12.49
10.89
9.41
7.99
6.67
5.62
5.09
5.35
6.56
8.65
11.32
14.07
16.36
17.75
17.96
16.93
14.75
11.60
7.72
3.27
-1.74
-7.35
-13.65
-20.47
-27.33
-33.30
-37.28
-38.32
-35.98
-30.49
-22.68
-13.69
-4.71
3.39
10.07
15.17
18.79
21.08
22.21
22.24
21.18
19.09
16.16
12.74
9.27
6.12
3.54
1.56
0.07
-1.01
-1.73
-2.03
-1.88
-1.29
-0.44
0.46
1.20
1.62
1.62
1.22
0.47
-0.50
-1.57
-2.66
-3.82
-5.23
-7.23
-10.17
-14.26
-19.45
-25.24
-30.73
-34.86
-36.64
-35.51
-31.54
-25.43
-18.21
-10.92
-4.30
1.37
6.09
9.99
13.14
15.44
16.77
17.04
16.33
14.88
13.05
11.20
9.69
8.80
8.71
9.40
10.68
12.21
13.58
14.55
15.09
15.30
15.38
15.45
15.51
15.49
15.33
15.11
15.03
15.28
15.92
16.78
17.50
17.66
16.92
15.11
12.16
8.15
3.23
-2.23
-7.59
-11.96
-14.37
-14.12
-11.03
-5.67
0.87
7.35
12.77
16.63
18.89
19.82
19.70
18.74
17.07
14.86
12.38
9.93
7.84
6.24
5.14
4.46
4.11
4.04
4.26
4.78
5.53
6.38
7.15
7.65
7.76
7.34
6.34
4.71
2.50
-0.13
-2.98
-5.82
-8.47
-10.86
-13.02
-15.08
-17.15
-19.42
-22.10
-25.47
-29.71
-34.74
-40.04
-44.62
-47.26
-46.94
-43.16
-36.20
-26.99
-16.79
-6.78
2.17
9.59
15.32
19.41
21.96
23.22
23.47
23.09
22.39
21.60
20.79
19.94
18.96
17.81
16.56
15.30
14.15
13.18
12.41
11.80
11.30
10.87
10.45
9.97
9.33
8.40
7.07
5.24
2.95
0.28
-2.60
-5.54
-8.40
-11.14
-13.76
-16.35
-19.06
-22.08
-25.57
-29.64
-34.16
-38.72
-42.58
-44.85
-44.70
-41.65
-35.73
-27.53
-18.00
-8.17
1.06
9.09
15.60
20.51
23.85
25.70
26.25
25.71
24.41
22.75
21.11
19.76
18.82
18.24
17.89
17.65
17.50
17.52
17.80
18.36
19.06
19.59
19.66
19.03
17.69
15.77
13.53
11.18
8.82
6.46
3.97
1.27
-1.74
-5.01
-8.42
-11.76
-14.83
-17.53
-19.94
-22.38
-25.28
-29.01
-33.57
-38.50
-42.82
-45.33
-44.97
-41.21
-34.23
-24.86
-14.36
-4.00
5.13
12.39
17.53
20.60
21.93
21.93
21.10
19.88
18.66
17.69
17.06
16.75
16.68
16.73
16.82
16.92
17.06
17.36
17.94
18.84
19.99
21.15
21.99
22.18
21.48
19.89
17.60
14.97
12.39
10.09
8.13
6.34
4.46
2.27
-0.33
-3.24
-6.27
-9.21
-11.90
-14.30
-16.48
-18.60
-20.89
-23.60
-27.00
-31.23
-36.15
-41.25
-45.64
-48.20
-47.97
-44.43
-37.73
-28.62
-18.25
-7.78
1.84
10.05
16.65
21.68
25.26
27.52
28.54
28.44
27.41
25.74
23.78
21.89
20.37
19.35
18.79
18.52
18.36
18.21
18.03
17.89
17.79
17.63
17.23
16.39
15.05
13.31
11.43
9.66
8.13
6.71
5.14
3.11
0.51
-2.55
-5.76
-8.78
-11.41
-13.59
-15.45
-17.17
-18.94
-20.99
-23.61
-27.08
-31.53
-36.67
-41.77
-45.69
-47.20
-45.45
-40.24
-32.12
-22.19
-11.75
-1.94
6.46
13.11
18.00
21.28
23.21
24.04
24.03
23.43
22.49
21.41
20.34
19.34
18.41
17.54
16.78
16.24
16.01
16.11
16.40
16.58
16.33
15.43
13.85
11.76
9.43
7.15
5.07
3.13
1.14
-1.14
-3.86
-7.01
-10.39
-13.68
-16.64
-19.18
-21.43
-23.66
-26.23
-29.42
-33.30
-37.65
-41.93
-45.30
-46.83
-45.67
-41.38
-34.14
-24.72
-14.27
-4.06
4.94
12.22
17.73
21.71
24.49
26.29
27.25
27.44
26.96
26.01
24.81
23.55
22.28
20.96
19.49
17.88
16.22
14.77
13.75
13.32
13.39
13.74
13.99
13.81
12.98
11.45
9.32
6.86
4.31
1.83
-0.57
-3.04
-5.76
-8.84
-12.17
-15.48
-18.48
-20.96
-22.97
-24.82
-26.94
-29.75
-33.48
-38.06
-43.09
-47.86
-51.43
-52.84
-51.38
-46.76
-39.29
-29.78
-19.30
-8.86
0.77
9.17
16.13
21.55
25.34
27.46
28.04
27.43
26.15
24.73
23.53
22.64
21.91
21.14
20.23
19.25
18.42
17.96
17.96
18.33
18.82
19.09
18.86
17.94
16.33
14.23
11.91
9.71
7.83
6.34
5.09
3.79
2.12
-0.09
-2.81
-5.87
-9.02
-12.07
-14.94
-17.70
-20.49
-23.47
-26.84
-30.69
-35.02
-39.46
-43.37
-45.84
-45.96
-43.13
-37.33
-29.10
-19.45
-9.44
0.01
8.32
15.16
20.43
24.15
26.42
27.43
27.47
26.89
25.95
24.87
23.78
22.73
21.76
20.91
20.18
19.62
19.19
18.85
18.48
17.93
17.07
15.81
14.20
12.32
10.27
8.06
5.60
2.81
-0.32
-3.69
-7.04
-10.15
-12.88
-15.30
-17.63
-20.14
-23.09
-26.64
-30.84
-35.59
-40.51
-44.93
-47.91
-48.50
-46.02
-40.38
-32.09
-22.20
-11.85
-1.98
6.83
14.38
20.59
25.43
28.83
30.77
31.36
30.91
29.80
28.43
27.05
25.81
24.77
23.94
23.33
22.95
22.77
22.73
22.70
22.50
21.98
20.98
19.44
17.42
15.07
12.59
10.17
7.87
5.65
3.39
0.98
-1.67
-4.54
-7.57
-10.67
-13.73
-16.66
-19.42
-21.99
-24.50
-27.19
-30.44
-34.53
-39.47
-44.75
-49.38
-52.12
-51.88
-48.13
-41.10
-31.67
-21.02
-10.30
-0.32
8.44
15.73
21.46
25.60
28.27
29.81
30.62
31.09
31.40
31.50
31.26
30.57
29.52
28.38
27.46
26.92
26.74
26.71
26.58
26.23
25.65
24.89
24.00
22.94
21.60
19.92
17.94
15.77
13.55
11.35
9.17
6.88
4.35
1.49
-1.68
-5.08
-8.54
-11.88
-14.95
-17.61
-19.81
-21.62
-23.25
-25.03
-27.39
-30.68
-35.10
-40.51
-46.40
-51.88
-55.85
-57.27
-55.38
-50.02
-41.58
-30.99
-19.43
-8.11
2.00
10.33
16.67
21.16
24.03
25.59
26.05
25.61
24.49
22.99
21.46
20.25
19.58
19.41
19.53
19.61
19.45
19.02
18.47
18.00
17.67
17.34
16.76
15.67
13.95
11.68
9.12
6.49
3.96
1.49
-1.03
-3.80
-6.88
-10.24
-13.69
-17.02
-20.00
-22.58
-24.87
-27.15
-29.81
-33.20
-37.44
-42.29
-47.08
-50.81
-52.42
-51.09
-46.48
-38.84
-29.00
-18.06
-7.17
2.79
11.25
18.00
23.10
26.74
29.15
30.58
31.23
31.29
30.91
30.19
29.28
28.26
27.24
26.26
25.33
24.48
23.73
23.11
22.62
22.21
21.73
21.03
19.92
18.36
16.43
14.26
12.06
9.98
8.11
6.42
4.78
2.92
0.58
-2.47
-6.19
-10.31
-14.40
-18.04
-21.10
-23.76
-26.46
-29.69
-33.74
-38.60
-43.84
-48.74
-52.37
-53.82
-52.37
-47.74
-40.16
-30.38
-19.47
-8.60
1.27
9.54
16.02
20.85
24.32
26.73
28.31
29.13
29.25
28.76
27.84
26.73
25.68
24.83
24.20
23.69
23.22
22.78
22.43
22.26
22.30
22.48
22.59
22.38
21.61
20.11
17.91
15.20
12.23
9.30
6.57
4.03
1.56
-1.06
-3.97
-7.17
-10.55
-13.88
-16.96
-19.75
-22.34
-24.88
-27.53
-30.38
-33.41
-36.60
-39.96
-43.56
-47.40
-51.21
-54.41
-56.09
-55.32
-51.45
-44.43
-34.92
-24.07
-13.30
-3.91
3.14
7.24
8.19
6.19
2.06
-2.66
-5.76
-4.91
1.55
13.74
29.90
46.88
61.17
70.24
73.25
70.96
65.06
57.19
48.46
39.41
30.40
21.95
14.70
9.15
5.38
2.90
0.89
-1.49
-4.75
-8.94
-13.71
-18.49
-22.69
-25.88
-28.05
-29.56
-31.09
-33.39
-36.92
-41.66
-47.04
-52.12
-55.82
-57.29
-56.02
-51.88
-45.13
-36.34
-26.26
-15.78
-5.79
3.03
10.22
15.66
19.45
21.83
23.09
23.43
23.08
22.20
21.02
19.77
18.66
17.87
17.46
17.49
17.95
18.83
20.13
21.72
23.35
24.69
25.36
25.10
23.87
21.82
19.31
16.66
14.14
11.83
9.72
7.68
5.53
3.09
0.24
-3.06
-6.71
-10.45
-13.96
-16.98
-19.40
-21.39
-23.35
-25.79
-29.15
-33.56
-38.72
-43.78
-47.63
-49.07
-47.26
-41.98
-33.67
-23.30
-12.08
-1.10
8.83
17.22
23.84
28.64
31.66
33.09
33.24
32.54
31.39
30.14
28.98
27.96
27.05
26.19
25.39
24.68
24.15
23.89
23.91
24.13
24.37
24.38
23.91
22.74
20.81
18.24
15.27
12.23
9.46
7.17
5.37
3.88
2.40
0.60
-1.69
-4.46
-7.52
-10.61
-13.51
-16.17
-18.66
-21.22
-24.10
-27.54
-31.66
-36.39
-41.33
-45.77
-48.79
-49.45
-47.11
-41.67
-33.64
-24.00
-13.86
-4.24
4.21
11.16
16.59
20.55
23.19
24.68
25.25
25.19
24.78
24.23
23.67
23.11
22.53
21.93
21.39
21.02
20.94
21.18
21.69
22.30
22.76
22.79
22.15
20.73
18.57
15.85
12.90
9.92
7.02
4.13
1.09
-2.16
-5.56
-8.93
-12.00
-14.58
-16.67
-18.41
-20.13
-22.23
-25.04
-28.78
-33.28
-37.97
-41.88
-43.85
-42.95
-38.76
-31.58
-22.28
-12.03
-1.95
7.19
14.95
21.21
25.98
29.33
31.35
32.14
31.89
30.86
29.39
27.84
26.54
25.69
25.36
25.47
25.85
26.30
26.68
26.90
26.97
26.91
26.73
26.42
25.88
25.01
23.66
21.76
19.32
16.43
13.30
10.13
7.08
4.24
1.59
-0.94
-3.47
-6.12
-8.97
-12.00
-15.10
-18.08
-20.78
-23.17
-25.38
-27.68
-30.41
-33.82
-37.97
-42.60
-47.10
-50.55
-51.92
-50.38
-45.55
-37.70
-27.71
-16.84
-6.42
2.56
9.58
14.55
17.72
19.40
19.86
19.37
18.19
16.72
15.38
14.52
14.31
14.67
15.34
16.03
16.59
17.08
17.71
18.68
20.06
21.65
23.11
24.05
24.20
23.48
21.99
19.94
17.57
15.11
12.74
10.52
8.48
6.52
4.52
2.33
-0.16
-2.99
-6.08
-9.25
-12.27
-14.97
-17.34
-19.59
-22.10
-25.33
-29.63
-34.98
-40.88
-46.36
-50.21
-51.30
-48.94
-43.16
-34.65
-24.58
-14.21
-4.59
3.65
10.22
15.12
18.43
20.27
20.82
20.37
19.29
17.96
16.70
15.72
15.02
14.51
14.07
13.71
13.51
13.65
14.22
15.19
16.30
17.15
17.37
16.73
15.28
13.28
11.07
8.89
6.79
4.65
2.27
-0.45
-3.47
-6.58
-9.51
-12.05
-14.21
-16.22
-18.51
-21.50
-25.43
-30.23
-35.36
-40.03
-43.24
-44.16
-42.32
-37.69
-30.71
-22.16
-12.94
-3.87
4.45
11.62
17.45
21.89
24.96
26.75
27.42
27.21
26.40
25.21
23.81
22.29
20.72
19.19
17.86
16.89
16.38
16.29
16.43
16.48
16.20
15.43
14.16
12.48
10.52
8.36
6.07
3.66
1.14
-1.46
-4.17
-6.98
-9.81
-12.56
-15.12
-17.44
-19.66
-22.11
-25.17
-29.05
-33.61
-38.23
-41.96
-43.80
-42.98
-39.24
-32.90
-24.72
-15.71
-6.82
1.18
7.83
12.97
16.64
18.99
20.24
20.60
20.32
19.62
18.78
17.97
17.33
16.89
16.62
16.42
16.25
16.05
15.82
15.52
15.10
14.45
13.47
12.04
10.12
7.76
5.07
2.23
-0.59
-3.29
-5.85
-8.35
-10.89
-13.60
-16.62
-20.10
-24.11
-28.61
-33.30
-37.53
-40.41
-41.05
-38.84
-33.71
-26.21
-17.32
-8.18
0.25
7.36
12.88
16.88
19.51
21.00
21.51
21.28
20.52
19.51
18.49
17.60
16.92
16.41
15.97
15.52
15.03
14.45
13.77
12.93
11.87
10.53
8.87
6.88
4.61
2.08
-0.67
-3.60
-6.64
-9.77
-13.01
-16.45
-20.21
-24.31
-28.52
-32.34
-35.02
-35.73
-33.90
-29.38
-22.59
-14.38
-5.80
2.26
9.19
14.76
18.97
21.92
23.73
24.50
24.36
23.56
22.38
21.13
19.99
19.02
18.19
17.43
16.71
16.06
15.55
15.19
14.89
14.44
13.63
12.21
10.06
7.20
3.82
0.20
-3.35
-6.62
-9.55
-12.21
-14.77
-17.46
-20.48
-23.90
-27.71
-31.71
-35.54
-38.61
-40.29
-39.93
-37.15
-32.00
-24.95
-16.85
-8.65
-1.10
5.40
10.78
15.23
18.94
21.95
24.21
25.55
25.92
25.44
24.37
23.04
21.74
20.66
19.90
19.48
19.37
19.51
19.78
20.04
20.05
19.59
18.55
16.96
15.00
12.91
10.89
9.00
7.15
5.20
2.99
0.48
-2.30
-5.20
-8.07
-10.79
-13.35
-15.82
-18.44
-21.49
-25.19
-29.45
-33.82
-37.42
-39.20
-38.32
-34.45
-27.99
-19.91
-11.37
-3.39
3.48
9.08
13.56
17.09
19.79
21.67
22.80
23.33
23.48
23.54
23.74
24.17
24.75
25.31
25.61
25.49
24.93
24.03
23.04
22.17
21.52
21.00
20.33
19.21
17.40
14.88
11.87
8.70
5.72
3.16
1.01
-0.83
-2.60
-4.45
-6.48
-8.68
-11.00
-13.40
-15.81
-18.15
-20.34
-22.36
-24.34
-26.61
-29.52
-33.29
-37.70
-42.03
-45.21
-46.14
-44.08
-38.97
-31.44
-22.58
-13.58
-5.36
1.59
7.20
11.64
15.09
17.64
19.26
19.93
19.74
18.93
17.90
17.01
16.47
16.30
16.35
16.46
16.59
16.80
17.23
17.91
18.75
19.46
19.72
19.27
18.06
16.26
14.23
12.30
10.74
9.57
8.68
7.81
6.71
5.23
3.36
1.21
-1.05
-3.28
-5.43
-7.57
-9.81
-12.18
-14.64
-17.03
-19.15
-20.89
-22.30
-23.55
-24.96
-26.85
-29.43
-32.75
-36.61
-40.54
-43.85
-45.79
-45.65
-43.05
-38.01
-31.00
-22.79
-14.27
-6.24
0.79
6.59
11.17
14.64
17.14
18.81
19.75
20.07
19.98
19.71
19.46
19.39
19.49
19.69
19.86
19.91
19.82
19.63
19.43
19.27
19.20
19.19
19.19
19.09
18.78
18.13
17.04
15.50
13.58
11.43
9.20
7.01
4.88
2.74
0.55
-1.75
-4.09
-6.41
-8.67
-10.84
-12.97
-15.06
-17.08
-18.95
-20.69
-22.45
-24.52
-27.21
-30.68
-34.65
-38.42
-41.00
-41.36
-38.86
-33.48
-25.91
-17.28
-8.78
-1.33
4.70
9.34
12.85
15.47
17.27
18.19
18.21
17.50
16.41
15.37
14.70
14.55
14.78
15.16
15.47
15.58
15.53
15.42
15.34
15.31
15.29
15.19
14.92
14.42
13.68
12.72
11.55
10.14
8.45
6.48
4.28
1.99
-0.19
-2.11
-3.76
-5.28
-6.95
-8.98
-11.44
-14.16
-16.83
-19.16
-21.03
-22.51
-23.90
-25.52
-27.66
-30.45
-33.87
-37.68
-41.41
-44.38
-45.77
-44.88
-41.38
-35.46
-27.81
-19.44
-11.33
-4.15
1.79
6.57
10.41
13.58
16.23
18.36
19.90
20.74
20.85
20.31
19.36
18.34
17.59
17.35
17.68
18.52
19.66
20.86
21.89
22.56
22.74
22.39
21.53
20.28
18.77
17.10
15.31
13.40
11.38
9.30
7.22
5.24
3.37
1.60
-0.11
-1.82
-3.52
-5.15
-6.61
-7.88
-8.97
-9.99
-11.12
-12.56
-14.49
-17.04
-20.28
-24.13
-28.31
-32.32
-35.40
-36.79
-35.82
-32.23
-26.25
-18.58
-10.20
-2.10
4.94
10.53
14.63
17.46
19.34
20.56
21.29
21.60
21.46
20.85
19.83
18.55
17.19
15.96
14.98
14.32
14.01
14.04
14.38
14.94
15.48
15.71
15.36
14.32
12.75
11.01
9.46
8.28
7.31
6.14
4.37
1.84
-1.27
-4.48
-7.31
-9.52
-11.22
-12.83
-14.81
-17.52
-21.09
-25.43
-30.27
-35.24
-39.82
-43.38
-45.25
-44.83
-41.84
-36.37
-28.97
-20.46
-11.75
-3.64
3.35
8.96
13.19
16.11
17.84
18.54
18.37
17.62
16.61
15.72
15.20
15.10
15.30
15.58
15.79
15.90
16.08
16.52
17.31
18.33
19.24
19.61
19.16
17.83
15.81
13.46
11.10
8.90
6.84
4.79
2.54
0.00
-2.86
-5.98
-9.26
-12.62
-15.89
-18.99
-21.80
-24.33
-26.73
-29.32
-32.42
-36.12
-40.12
-43.65
-45.69
-45.31
-42.03
-35.96
-27.85
-18.74
-9.64
-1.36
5.73
11.52
16.11
19.61
22.09
23.58
24.14
23.87
23.03
21.88
20.71
19.71
18.96
18.46
18.19
18.10
18.18
18.39
18.67
18.96
19.14
19.11
18.78
18.11
17.09
15.74
14.17
12.44
10.65
8.80
6.82
4.61
2.15
-0.53
-3.29
-5.95
-8.36
-10.43
-12.17
-13.65
-15.04
-16.57
-18.48
-21.03
-24.36
-28.45
-32.96
-37.27
-40.52
-41.85
-40.65
-36.73
-30.41
-22.44
-13.74
-5.20
2.50
8.94
13.93
17.43
19.53
20.39
20.25
19.39
18.07
16.52
14.95
13.54
12.48
11.95
11.98
12.50
13.26
13.98
14.42
14.52
14.37
14.17
14.09
14.07
13.93
13.34
12.05
9.99
7.31
4.32
1.34
-1.40
-3.86
-6.12
-8.32
-10.63
-13.25
-16.35
-20.07
-24.46
-29.29
-34.03
-37.91
-40.05
-39.80
-36.94
-31.70
-24.72
-16.79
-8.63
-0.83
6.22
12.27
17.23
21.06
23.81
25.58
26.46
26.55
25.94
24.79
23.33
21.90
20.76
20.10
19.97
20.21
20.60
20.86
20.76
20.14
18.93
17.15
14.92
12.41
9.78
7.20
4.77
2.51
0.38
-1.76
-4.04
-6.59
-9.43
-12.53
-15.77
-18.97
-22.06
-25.05
-28.13
-31.56
-35.54
-39.98
-44.41
-47.94
-49.57
-48.46
-44.33
-37.50
-28.81
-19.37
-10.12
-1.70
5.58
11.62
16.37
19.84
22.05
23.17
23.52
23.42
23.13
22.79
22.34
21.71
20.89
19.96
19.15
18.68
18.66
19.00
19.38
19.41
18.77
17.38
15.41
13.21
11.14
9.35
7.75
6.02
3.81
0.87
-2.80
-6.98
-11.32
-15.49
-19.22
-22.39
-25.10
-27.59
-30.26
-33.47
-37.44
-42.00
-46.62
-50.41
-52.41
-51.84
-48.35
-42.16
-33.97
-24.77
-15.57
-7.10
0.29
6.54
11.84
16.36
20.16
23.18
25.33
26.61
27.13
27.19
27.08
27.01
26.98
26.93
26.74
26.40
26.00
25.69
25.54
25.48
25.31
24.74
23.61
21.92
19.80
17.50
15.19
12.92
10.61
8.17
5.53
2.74
-0.08
-2.80
-5.32
-7.64
-9.92
-12.40
-15.33
-18.92
-23.26
-28.18
-33.20
-37.56
-40.35
-40.78
-38.42
-33.39
-26.25
-17.90
-9.22
-0.91
6.60
13.18
18.80
23.43
27.00
29.45
30.72
30.93
30.35
29.36
28.37
27.65
27.28
27.12
27.02
26.87
26.74
26.73
26.93
27.21
27.27
26.80
25.64
23.89
21.87
19.96
18.37
17.10
15.97
14.72
13.17
11.28
9.11
6.84
4.64
2.67
1.00
-0.45
-1.93
-3.75
-6.16
-9.17
-12.53
-15.80
-18.60
-20.76
-22.49
-24.22
-26.46
-29.61
-33.76
-38.71
-43.95
-48.73
-52.12
-53.22
-51.35
-46.27
-38.36
-28.50
-17.90
-7.69
1.32
8.77
14.63
19.13
22.51
25.00
26.77
28.00
28.81
29.31
29.56
29.57
29.37
28.98
28.50
28.02
27.62
27.30
27.02
26.72
26.36
25.90
25.29
24.49
23.37
21.88
20.04
17.96
15.87
13.90
12.13
10.52
8.97
7.36
5.63
3.70
1.51
-0.95
-3.73
-6.70
-9.71
-12.52
-14.96
-16.98
-18.69
-20.30
-22.10
-24.30
-27.08
-30.51
-34.42
-38.49
-42.08
-44.43
-44.82
-42.80
-38.43
-32.18
-24.82
-17.16
-9.80
-3.06
2.97
8.28
12.84
16.58
19.44
21.48
22.91
23.91
24.64
25.09
25.17
24.81
24.11
23.32
22.77
22.69
23.06
23.65
24.08
24.06
23.51
22.56
21.42
20.30
19.25
18.27
17.31
16.33
15.37
14.43
13.51
12.55
11.53
10.41
9.19
7.83
6.28
4.46
2.32
-0.08
-2.60
-5.03
-7.21
-9.12
-10.93
-12.97
-15.64
-19.25
-23.83
-29.04
-34.17
-38.24
-40.31
-39.73
-36.37
-30.67
-23.49
-15.90
-8.80
-2.75
2.06
5.79
8.69
11.01
12.86
14.17
14.87
14.95
14.54
13.88
13.26
12.83
12.63
12.50
12.30
11.92
11.42
10.97
10.75
10.86
11.25
11.73
12.08
12.13
11.84
11.24
10.48
9.66
8.90
8.22
7.60
6.95
6.16
5.14
3.83
2.19
0.30
-1.75
-3.83
-5.87
-7.84
-9.82
-11.88
-14.11
-16.52
-19.03
-21.43
-23.54
-25.20
-26.46
-27.56
-28.90
-30.91
-33.84
-37.58
-41.61
-45.13
-47.23
-47.19
-44.67
-39.80
-33.15
-25.52
-17.78
-10.65
-4.62
0.18
3.84
6.65
8.89
10.75
12.30
13.53
14.37
14.81
14.94
14.91
14.89
15.07
15.53
16.27
17.20
18.16
18.94
19.36
19.28
18.65
17.52
15.94
14.06
12.03
10.04
8.29
6.93
5.97
5.32
4.77
4.10
3.20
2.07
0.88
-0.16
-0.90
-1.29
-1.45
-1.57
-1.85
-2.41
-3.25
-4.20
-5.09
-5.73
-6.08
-6.20
-6.22
-6.24
-6.29
-6.33
-6.33
-6.28
-6.33
-6.63
-7.35
-8.63
-10.62
-13.36
-16.84
-20.85
-24.91
-28.30
-30.18
-29.92
-27.22
-22.39
-16.19
-9.65
-3.71
1.06
4.55
7.06
9.03
10.75
12.27
13.36
13.69
13.12
11.83
10.26
8.96
8.26
8.15
8.37
8.53
8.37
7.88
7.23
6.62
6.10
5.55
4.75
3.53
1.80
-0.40
-2.96
-5.81
-8.87
-11.92
-14.55
-16.05
-15.68
-13.02
-8.24
-2.25
3.60
8.02
10.28
10.45
9.26
7.62
6.14
4.84
3.29
0.99
-2.29
-6.31
-10.49
-14.21
-17.02
-18.73
-19.24
-18.46
-16.25
-12.54
-7.52
-1.79
3.77
8.28
11.12
12.15
11.70
10.40
8.87
7.61
6.77
6.28
5.84
5.11
3.80
1.86
-0.47
-2.73
-4.40
-5.13
-4.88
-3.98
-2.93
-2.22
-2.10
-2.53
-3.26
-3.96
-4.36
-4.32
-3.85
-3.09
-2.19
-1.36
-0.75
-0.54
-0.78
-1.43
-2.36
-3.34
-4.21
-4.86
-5.37
-5.91
-6.69
-7.88
-9.48
-11.38
-13.35
-15.23
-16.91
-18.40
-19.87
-21.53
-23.63
-26.28
-29.37
-32.45
-34.78
-35.53
-34.09
-30.30
-24.56
-17.67
-10.56
-3.98
1.63
6.14
9.65
12.33
14.38
16.00
17.39
18.78
20.30
22.00
23.76
25.32
26.37
26.67
26.16
24.99
23.56
22.32
21.65
21.65
22.17
22.85
23.31
23.25
22.57
21.25
19.43
17.24
14.86
12.51
10.42
8.76
7.59
6.76
5.96
4.77
2.89
0.23
-2.99
-6.36
-9.43
-11.96
-13.98
-15.80
-17.84
-20.46
-23.77
-27.64
-31.64
-35.10
-37.23
-37.33
-34.96
-30.18
-23.63
-16.29
-9.17
-2.96
2.13
6.31
9.89
13.02
15.59
17.37
18.21
18.21
17.72
17.18
16.93
17.07
17.53
18.17
18.82
19.44
20.09
20.92
22.08
23.67
25.57
27.43
28.78
29.17
28.33
26.32
23.53
20.62
18.41
17.83
19.74
24.74
32.79
42.92
53.26
61.41
65.13
63.07
55.19
42.64
27.28
10.98
-4.78
-19.07
-31.26
-40.88
-47.55
-51.23
-52.43
-52.25
-52.12
-53.21
-56.01
-60.06
-64.11
-66.65
-66.45
-63.00
-56.60
-48.15
-38.78
-29.56
-21.28
-14.37
-8.87
-4.61
-1.27
1.45
3.73
5.59
7.03
8.06
8.79
9.37
9.98
10.68
11.41
12.08
12.61
13.03
13.41
13.85
14.37
14.89
15.24
15.29
14.96
14.32
13.49
12.60
11.76
10.99
10.31
9.73
9.24
8.83
8.43
7.89
7.09
5.97
4.58
3.04
1.48
0.00
-1.43
-2.89
-4.55
-6.52
-8.87
-11.57
-14.50
-17.44
-20.18
-22.51
-24.35
-25.77
-26.96
-28.21
-29.85
-32.07
-34.84
-37.77
-40.23
-41.39
-40.58
-37.49
-32.30
-25.69
-18.51
-11.65
-5.70
-1.01
2.37
4.49
5.51
5.71
5.47
5.20
5.21
5.69
6.56
7.63
8.68
9.62
10.44
11.27
12.18
13.16
14.11
14.88
15.41
15.68
15.73
15.58
15.18
14.50
13.53
12.36
11.19
10.17
9.41
8.81
8.14
7.16
5.73
3.92
1.98
0.18
-1.29
-2.45
-3.50
-4.72
-6.35
-8.49
-11.08
-13.91
-16.72
-19.24
-21.33
-22.94
-24.19
-25.30
-26.57
-28.25
-30.47
-33.06
-35.60
-37.39
-37.66
-35.69
-31.03
-23.72
-14.27
-3.62
7.08
16.72
24.49
29.95
33.10
34.22
33.75
32.13
29.77
26.98
24.08
21.37
19.14
17.56
16.70
16.51
16.76
17.21
17.57
17.67
17.39
16.73
15.77
14.61
13.40
12.22
11.15
10.16
9.20
8.14
6.93
5.57
4.11
2.67
1.30
0.01
-1.28
-2.66
-4.22
-5.97
-7.89
-9.93
-12.02
-14.08
-16.02
-17.77
-19.37
-20.96
-22.78
-25.04
-27.80
-30.80
-33.49
-35.16
-35.10
-32.90
-28.55
-22.50
-15.49
-8.43
-2.06
3.13
7.02
9.74
11.56
12.73
13.41
13.70
13.66
13.38
12.96
12.53
12.16
11.91
11.82
11.88
12.14
12.56
13.08
13.57
13.93
14.03
13.77
13.05
11.80
10.07
8.04
6.00
4.25
2.94
1.95
0.96
-0.43
-2.47
-5.15
-8.20
-11.23
-13.94
-16.21
-18.17
-20.06
-22.22
-24.88
-28.11
-31.70
-35.15
-37.68
-38.49
-36.98
-32.98
-26.83
-19.28
-11.25
-3.62
3.02
8.35
12.39
15.35
17.53
19.24
20.69
21.93
22.88
23.41
23.50
23.22
22.81
22.55
22.61
23.00
23.56
24.05
24.27
24.12
23.60
22.81
21.84
20.74
19.51
18.14
16.68
15.18
13.72
12.30
10.84
9.25
7.48
5.60
3.78
2.17
0.80
-0.47
-1.88
-3.66
-5.89
-8.48
-11.21
-13.90
-16.47
-19.02
-21.73
-24.81
-28.35
-32.17
-35.87
-38.76
-40.08
-39.19
-35.77
-30.01
-22.50
-14.13
-5.80
1.77
8.16
13.25
17.06
19.78
21.64
22.91
23.83
24.61
25.29
25.78
25.92
25.60
24.87
24.02
23.45
23.55
24.49
26.11
28.01
29.66
30.69
31.02
30.93
31.02
31.92
34.20
38.12
43.51
49.63
55.23
58.76
58.81
54.57
46.20
34.81
22.14
9.98
-0.42
-8.58
-14.76
-19.55
-23.60
-27.25
-30.60
-33.61
-36.32
-38.89
-41.56
-44.61
-48.15
-52.04
-55.89
-59.13
-61.13
-61.33
-59.38
-55.17
-48.88
-40.95
-32.02
-22.86
-14.27
-6.89
-1.09
3.08
5.95
7.99
9.66
11.20
12.62
13.73
14.32
14.35
14.00
13.53
13.23
13.25
13.60
14.21
15.01
15.96
16.97
17.91
18.52
18.58
17.90
16.54
14.67
12.54
10.33
8.09
5.85
3.60
1.47
-0.41
-1.94
-3.21
-4.46
-5.99
-7.96
-10.34
-12.87
-15.16
-16.97
-18.25
-19.20
-20.18
-21.58
-23.69
-26.53
-29.90
-33.30
-36.04
-37.40
-36.83
-34.06
-29.22
-22.76
-15.32
-7.65
-0.42
5.84
10.77
14.31
16.57
17.87
18.55
18.91
19.11
19.20
19.16
18.98
18.69
18.34
18.00
17.70
17.49
17.45
17.65
18.12
18.79
19.49
19.97
19.99
19.44
18.39
16.97
15.41
13.89
12.45
11.05
9.60
7.97
6.12
4.12
2.10
0.22
-1.43
-2.92
