1651152999.00
64.000000
-0.00
-0.00
-0.00
-0.00
-0.00
-0.00
-0.00
-0.00
-0.00
-0.00
0.00
0.01
0.01
-0.00
-0.03
-0.05
-0.05
0.00
0.13
0.36
0.66
1.01
1.37
1.72
2.06
2.40
2.79
3.24
3.80
4.42
5.06
5.66
6.20
6.68
7.15
7.68
8.31
9.14
10.09
11.04
11.88
12.56
13.14
13.76
14.65
15.96
17.91
20.32
22.90
25.38
27.58
29.57
31.68
34.32
37.81
42.54
48.15
54.10
59.83
64.97
69.58
74.14
79.34
85.71
93.76
103.00
112.62
121.73
129.77
136.75
143.30
150.75
157.77
166.64
177.95
191.79
206.97
220.57
228.25
225.36
208.53
176.87
132.76
80.05
23.07
-34.94
-92.44
-149.16
-205.23
-260.37
-313.74
-363.87
-409.83
-450.91
-486.50
-515.74
-537.23
-549.22
-549.96
-538.37
-514.21
-478.67
-433.88
-382.45
-327.02
-269.84
-212.63
-156.66
-102.95
-52.37
-5.90
35.58
71.43
101.35
125.50
144.38
158.69
169.15
176.37
180.75
182.57
182.07
179.51
175.23
169.65
163.18
156.15
148.81
141.30
133.69
126.02
118.33
110.69
103.16
95.80
88.68
81.83
75.25
68.95
62.95
57.25
51.86
46.78
42.03
37.59
33.45
29.61
26.07
22.81
19.83
17.11
14.67
12.48
10.53
8.83
7.36
6.09
5.00
4.07
3.26
2.55
1.94
1.42
1.00
0.68
0.45
0.28
0.14
0.00
-0.14
-0.29
-0.42
-0.51
-0.55
-0.53
-0.50
-0.50
-0.56
-0.69
-0.88
-1.06
-1.17
-1.17
-1.09
-0.98
-0.98
-1.15
-1.54
-2.06
-2.59
-2.96
-3.06
-2.95
-2.77
-2.77
-3.14
-3.94
-5.02
-6.10
-6.86
-7.11
-6.90
-6.52
-6.39
-6.85
-7.98
-9.56
-11.15
-12.28
-12.71
-12.47
-11.91
-11.47
-11.52
-12.29
-13.93
-16.43
-19.46
-22.14
-23.11
-20.85
-14.41
-3.95
9.01
22.06
32.90
40.20
43.98
45.33
45.54
45.43
45.12
44.22
42.44
39.81
36.78
33.79
30.94
27.98
24.27
19.31
13.15
6.39
-0.10
-5.45
-9.29
-11.76
-13.43
-14.97
-16.82
-19.00
-21.14
-22.59
-22.72
-21.11
-17.70
-12.87
-7.37
-2.13
1.99
4.44
5.10
4.29
2.58
0.56
-1.38
-3.06
-4.47
-5.62
-6.48
-6.98
-7.11
-6.92
-6.51
-6.02
-5.52
-5.02
-4.51
-3.96
-3.41
-2.92
-2.53
-2.29
-2.20
-2.24
-2.42
-2.70
-3.07
-3.47
-3.90
-4.38
-4.97
-5.75
-6.70
-7.82
-9.05
-10.39
-11.95
-13.93
-16.56
-19.99
-24.15
-28.32
-31.52
-32.64
-30.74
-25.48
-17.21
-6.97
3.91
14.17
22.91
29.61
34.10
36.38
36.60
34.99
31.98
28.12
23.99
20.11
16.75
13.98
11.74
9.87
8.27
6.85
5.65
4.73
4.21
4.11
4.35
4.73
4.97
4.78
3.96
2.44
0.19
-2.68
-6.05
-9.74
-13.54
-17.23
-20.73
-24.12
-27.62
-31.48
-35.72
-39.99
-43.47
-45.10
-43.88
-39.29
-31.54
-21.51
-10.51
0.12
9.40
16.80
22.25
25.91
27.99
28.69
28.21
26.79
24.76
22.45
20.19
18.15
16.40
14.92
13.73
12.86
12.40
12.37
12.68
13.12
13.40
13.31
12.73
11.67
10.15
8.22
5.84
3.00
-0.22
-3.64
-7.05
-10.27
-13.28
-16.21
-19.28
-22.71
-26.63
-31.04
-35.78
-40.50
-44.59
-47.27
-47.71
-45.26
-39.69
-31.38
-21.15
-10.12
0.60
10.12
17.84
23.49
27.07
28.79
29.01
28.18
26.79
25.24
23.80
22.62
21.71
21.04
20.54
20.16
19.83
19.50
19.12
18.65
18.10
17.48
16.82
16.09
15.14
13.77
11.73
8.86
5.18
0.90
-3.67
-8.20
-12.45
-16.33
-19.84
-23.05
-26.09
-29.12
-32.33
-35.88
-39.77
-43.66
-46.84
-48.33
-47.19
-42.84
-35.36
-25.50
-14.45
-3.48
6.31
14.29
20.23
24.26
26.64
27.68
27.64
26.82
25.50
23.98
22.56
21.43
20.64
20.18
19.89
19.64
19.35
19.04
18.78
18.63
18.57
18.45
18.02
17.02
15.29
12.84
9.81
6.44
2.97
-0.39
-3.56
-6.49
-9.23
-11.89
-14.64
-17.72
-21.33
-25.49
-29.86
-33.76
-36.23
-36.30
-33.40
-27.50
-19.21
-9.59
0.21
9.18
16.69
22.41
26.28
28.34
28.72
27.67
25.61
23.05
20.56
18.56
17.24
16.56
16.29
16.14
15.92
15.51
14.96
14.34
13.71
13.04
12.20
10.99
9.20
6.75
3.66
0.09
-3.70
-7.45
-10.96
-14.11
-16.93
-19.54
-22.18
-25.14
-28.74
-33.18
-38.44
-44.11
-49.37
-53.18
-54.49
-52.62
-47.55
-39.86
-30.66
-21.18
-12.50
-5.32
0.02
3.49
5.21
5.38
4.24
2.06
-0.87
-4.23
-7.66
-10.83
-13.39
-15.14
-16.00
-16.04
-15.36
-13.99
-11.81
-8.62
-4.25
1.26
7.56
14.07
20.13
25.20
28.97
31.35
32.46
32.49
31.59
29.89
27.45
24.32
20.54
16.14
11.16
5.57
-0.58
-7.11
-13.56
-19.20
-23.08
-24.32
-22.38
-17.24
-9.51
-0.25
9.29
17.94
24.93
29.92
32.98
34.45
34.73
34.22
33.16
31.77
30.21
28.66
27.24
25.98
24.82
23.65
22.37
21.02
19.71
18.60
17.80
17.21
16.61
15.73
14.32
12.35
9.97
7.45
5.04
2.86
0.84
-1.18
-3.40
-5.89
-8.65
-11.55
-14.46
-17.37
-20.37
-23.62
-27.32
-31.55
-36.16
-40.68
-44.42
-46.50
-46.09
-42.67
-36.23
-27.34
-17.04
-6.47
3.37
11.80
18.44
23.18
26.08
27.31
27.10
25.75
23.74
21.53
19.46
17.66
16.19
15.11
14.42
14.01
13.59
13.25
13.09
13.07
13.03
12.85
12.47
11.82
10.62
8.43
5.74
3.13
0.87
-1.24
-3.56
-6.38
-9.78
-13.75
-18.23
-21.53
-22.31
-20.39
-16.99
-13.48
-10.17
-5.96
0.97
12.01
29.36
53.43
82.32
112.66
141.43
167.23
190.05
210.02
215.51
198.72
160.00
109.02
58.12
15.71
-15.14
-35.20
-46.48
-53.82
-58.83
-61.94
-63.57
-64.65
-66.16
-68.58
-71.06
-72.67
-72.77
-69.35
-61.11
-48.29
-32.77
-17.11
-3.30
7.72
15.85
21.30
25.32
28.66
31.12
31.82
30.14
26.35
21.48
16.48
11.65
7.08
2.19
-3.86
-11.60
-20.78
-30.13
-37.78
-42.04
-42.04
-37.77
-30.35
-21.65
-13.77
-8.38
-6.31
-7.54
-11.44
-16.95
-22.67
-26.93
-27.97
-24.32
-15.33
-1.61
14.82
30.93
43.56
50.35
50.40
44.34
33.89
21.06
7.52
-5.64
-17.66
-27.81
-35.17
-38.88
-38.67
-35.28
-30.51
-26.67
-25.83
-29.11
-36.37
-46.33
-57.09
-66.63
-73.42
-76.64
-76.23
-72.85
-67.57
-61.52
-55.43
-49.48
-43.33
-36.53
-28.70
-19.68
-9.63
0.94
11.13
19.81
25.96
29.08
29.31
27.63
25.42
23.74
22.77
21.83
19.78
15.85
10.00
2.34
-6.40
-15.01
-22.09
-26.44
-27.49
-25.56
-22.34
-21.07
-26.95
-44.10
-73.00
-109.12
-144.06
-168.06
-173.35
-156.99
-122.12
-78.78
-38.57
-10.40
1.83
-1.09
-15.31
-35.53
-56.49
-74.14
-88.66
-101.19
-112.34
-121.75
-128.88
-133.50
-135.32
-133.72
-114.08
-70.64
-10.22
51.54
101.46
134.53
151.99
157.43
154.56
146.29
132.24
112.99
91.57
72.56
59.64
53.85
53.82
56.80
61.01
62.84
60.34
54.04
46.18
39.00
33.63
30.08
27.69
25.60
21.68
14.66
4.70
-6.77
-18.02
-27.73
-35.10
-39.72
-41.39
-40.66
-37.90
-33.26
-26.84
-19.17
-11.13
-3.64
2.71
7.86
11.76
14.55
16.40
17.43
17.74
17.52
17.10
16.91
17.26
18.22
19.57
21.00
22.21
23.05
23.58
23.94
24.29
24.60
24.64
24.01
22.23
18.90
13.89
7.41
0.09
-7.14
-13.28
-17.45
-19.16
-18.53
-16.29
-13.67
-12.11
-12.76
-15.97
-21.02
-26.20
-29.31
-28.51
-22.99
-13.34
-1.20
11.28
22.26
30.61
35.97
38.57
38.78
37.08
34.02
30.25
26.53
23.48
21.41
20.18
19.38
18.52
17.28
15.67
13.93
12.36
11.17
10.44
10.12
10.06
10.08
9.94
9.37
8.13
6.07
3.22
-0.17
-3.72
-7.07
-9.95
-12.28
-14.13
-15.73
-17.41
-19.48
-22.18
-25.51
-29.07
-32.07
-33.45
-32.21
-27.78
-20.26
-10.44
0.45
11.18
20.87
29.10
35.81
41.05
44.81
46.94
47.32
46.05
43.53
40.36
37.14
34.29
31.89
29.85
27.99
26.24
24.60
23.08
21.66
20.19
18.49
16.42
13.93
11.02
7.76
4.20
0.39
-3.55
-7.47
-11.20
-14.60
-17.64
-20.42
-23.14
-26.05
-29.36
-33.25
-37.82
-42.99
-48.47
-53.66
-57.70
-59.60
-58.56
-54.23
-46.83
-37.11
-26.09
-14.74
-3.77
6.41
15.57
23.54
30.10
34.99
38.09
39.53
39.76
39.41
39.15
39.38
40.15
41.13
41.76
41.56
40.30
38.06
35.20
32.13
29.20
26.53
24.12
21.92
19.87
17.97
16.20
14.43
12.44
9.91
6.62
2.55
-2.02
-6.64
-10.82
-14.21
-16.81
-18.90
-21.01
-23.70
-27.39
-32.18
-37.74
-43.23
-47.50
-49.28
-47.61
-42.17
-33.40
-22.44
-10.70
0.51
10.28
18.21
24.25
28.58
31.39
32.84
33.09
32.33
30.81
28.86
26.79
24.84
23.16
21.78
20.65
19.72
18.99
18.51
18.39
18.63
19.12
19.53
19.48
18.66
16.97
14.57
11.80
8.98
6.24
3.54
0.67
-2.54
-6.14
-9.98
-13.78
-17.27
-20.23
-22.64
-24.63
-26.50
-28.63
-31.35
-34.78
-38.68
-42.37
-44.86
-45.12
-42.41
-36.58
-28.09
-17.97
-7.44
2.42
10.83
17.42
22.15
25.14
26.57
26.62
25.50
23.51
20.98
18.35
16.03
14.33
13.42
13.26
13.68
14.41
15.16
15.74
15.99
15.85
15.28
14.25
12.73
10.72
8.27
5.44
2.34
-0.92
-4.17
-7.26
-10.05
-12.47
-14.54
-16.44
-18.44
-20.81
-23.76
-27.29
-31.13
-34.76
-37.45
-38.44
-37.10
-33.14
-26.71
-18.41
-9.14
0.05
8.30
15.01
19.95
23.16
24.84
25.18
24.41
22.75
20.51
18.05
15.74
13.82
12.39
11.38
10.67
10.18
9.85
9.62
9.39
8.98
8.26
7.12
5.58
3.70
1.49
-1.07
-4.03
-7.31
-10.76
-14.08
-17.00
-19.41
-21.36
-23.11
-24.98
-27.28
-30.20
-33.79
-37.90
-42.13
-45.86
-48.29
-48.61
-46.22
-40.98
-33.22
-23.75
-13.58
-3.73
5.00
12.14
17.56
21.33
23.72
25.01
25.45
25.25
24.60
23.68
22.70
21.88
21.33
21.06
20.88
20.53
19.79
18.62
17.21
15.83
14.68
13.74
12.81
11.61
9.94
7.78
5.26
2.56
-0.15
-2.83
-5.47
-8.10
-10.73
-13.46
-16.42
-19.86
-23.98
-28.80
-34.00
-38.87
-42.43
-43.69
-41.94
-36.97
-29.22
-19.65
-9.46
0.18
8.42
14.87
19.50
22.51
24.19
24.80
24.59
23.81
22.75
21.70
20.89
20.43
20.27
20.21
19.99
19.45
18.51
17.28
15.92
14.65
13.58
12.68
11.83
10.82
9.46
7.68
5.47
2.98
0.37
-2.19
-4.65
-7.09
-9.67
-12.62
-16.10
-20.19
-24.80
-29.67
-34.34
-38.22
-40.60
-40.86
-38.56
-33.60
-26.34
-17.47
-7.92
1.42
9.77
16.62
21.72
25.02
26.65
26.84
25.93
24.28
22.28
20.23
18.41
16.97
15.97
15.40
15.14
15.06
14.99
14.87
14.66
14.35
13.92
13.27
12.26
10.76
8.75
6.31
3.69
1.09
-1.36
-3.75
-6.29
-9.24
-12.85
-17.18
-22.16
-27.52
-32.76
-37.18
-39.95
-40.36
-37.93
-32.66
-25.02
-15.81
-6.04
3.35
11.59
18.19
22.95
25.89
27.24
27.30
26.36
24.71
22.62
20.39
18.29
16.61
15.48
14.88
14.57
14.27
13.73
12.87
11.74
10.53
9.40
8.43
7.57
6.63
5.40
3.68
1.39
-1.42
-4.59
-7.94
-11.31
-14.63
-17.91
-21.26
-24.79
-28.63
-32.82
-37.28
-41.74
-45.64
-48.24
-48.71
-46.45
-41.22
-33.36
-23.66
-13.24
-3.16
5.73
12.98
18.50
22.40
24.87
26.02
25.95
24.79
22.81
20.47
18.32
16.84
16.31
16.71
17.82
19.29
20.83
22.28
23.53
24.52
25.12
25.20
24.61
23.30
21.33
18.78
15.76
12.39
8.74
4.86
0.83
-3.32
-7.51
-11.66
-15.69
-19.49
-23.07
-26.53
-30.07
-33.90
-38.02
-42.17
-45.69
-47.72
-47.46
-44.40
-38.54
-30.33
-20.64
-10.45
-0.77
7.64
14.28
18.98
21.80
23.05
23.12
22.43
21.36
20.20
19.18
18.42
17.96
17.73
17.62
17.54
17.46
17.39
17.38
17.38
17.29
16.89
16.01
14.55
12.58
10.30
7.96
5.78
3.82
1.99
0.10
-2.01
-4.43
-7.10
-9.88
-12.58
-15.07
-17.34
-19.51
-21.77
-24.34
-27.34
-30.69
-34.01
-36.65
-37.86
-37.02
-33.80
-28.37
-21.23
-13.11
-4.76
3.18
10.21
15.96
20.17
22.75
23.76
23.46
22.23
20.51
18.65
16.94
15.54
14.49
13.77
13.32
13.04
12.84
12.60
12.26
11.78
11.15
10.42
9.60
8.62
7.32
5.51
3.05
-0.00
-3.45
-6.98
-10.36
-13.51
-16.50
-19.54
-22.79
-26.38
-30.37
-34.80
-39.62
-44.59
-49.19
-52.59
-53.93
-52.58
-48.46
-42.14
-34.71
-27.41
-21.26
-16.86
-14.36
-13.65
-14.51
-16.74
-20.15
-24.54
-29.69
-35.39
-41.46
-47.72
-53.96
-59.84
-64.82
-68.34
-69.90
-69.27
-66.65
-62.59
-57.94
-53.51
-49.89
-47.21
-45.11
-42.88
-39.73
-35.02
-28.55
-20.69
-12.34
-4.75
0.85
3.55
3.14
0.12
-4.47
-9.36
-13.53
-16.43
-17.92
-18.20
-17.58
-16.34
-14.72
-12.98
-11.31
-9.74
-8.16
-6.23
-3.65
-0.24
3.92
8.49
12.97
16.83
19.70
21.40
22.00
21.72
20.97
20.18
19.77
20.07
21.24
23.35
26.38
30.26
34.86
39.94
45.13
49.96
53.93
56.69
58.12
58.31
57.54
56.06
54.00
51.35
47.95
43.73
38.67
32.97
26.88
20.76
14.90
9.55
4.88
1.05
-1.80
-3.58
-4.22
-3.69
-2.03
0.58
3.87
7.51
11.14
14.48
17.37
19.75
21.62
22.98
23.80
24.11
24.05
23.86
23.86
24.21
24.85
25.48
25.77
25.54
24.97
24.48
24.50
25.17
26.22
27.12
27.27
26.36
24.38
21.60
18.33
14.81
11.13
7.23
3.03
-1.55
-6.57
-12.03
-17.79
-23.55
-28.87
-33.22
-36.07
-36.97
-35.54
-31.58
-25.14
-16.49
-6.04
5.88
19.25
34.33
51.43
70.41
90.42
109.92
127.11
140.67
150.12
155.87
158.79
159.56
158.30
154.46
147.19
135.86
120.50
101.97
81.86
61.96
43.86
28.45
15.74
5.09
-4.40
-13.47
-22.50
-31.53
-40.58
-49.77
-59.29
-69.21
-79.05
-87.80
-94.09
-96.70
-95.06
-89.47
-81.07
-71.32
-61.57
-52.61
-44.68
-37.60
-31.15
-25.27
-20.08
-15.78
-12.50
-10.19
-8.71
-7.88
-7.55
-7.67
-8.20
-8.99
-9.78
-10.18
-9.80
-8.40
-6.02
-3.00
0.08
2.59
4.06
4.22
3.07
0.75
-2.52
-6.52
-11.06
-15.94
-21.00
-26.08
-31.04
-35.66
-39.64
-42.59
-44.04
-43.62
-41.12
-36.54
-30.20
-22.59
-14.36
-6.21
1.24
7.51
12.35
15.71
17.70
18.49
18.26
17.24
15.71
14.01
12.46
11.34
10.73
10.53
10.53
10.48
10.16
9.47
8.39
6.94
5.14
2.99
0.55
-2.11
-4.83
-7.45
-9.78
-11.73
-13.32
-14.72
-16.19
-17.96
-20.08
-22.29
-24.04
-24.68
-23.63
-20.67
-16.02
-10.20
-3.90
2.29
7.94
12.81
16.74
19.59
21.32
21.98
21.79
21.03
19.98
18.80
17.53
16.16
14.67
13.08
11.43
9.76
8.12
6.58
5.23
4.13
3.32
2.67
1.96
1.02
-0.32
-2.03
-3.97
-5.99
-7.92
-9.71
-11.39
-13.07
-14.94
-17.23
-20.02
-23.20
-26.40
-29.01
-30.36
-29.96
-27.62
-23.57
-18.30
-12.38
-6.36
-0.60
4.67
9.32
13.25
16.33
18.50
19.74
20.12
19.83
19.11
18.19
17.22
16.26
15.26
14.19
13.02
11.75
10.45
9.18
8.01
6.96
6.02
5.12
4.15
3.01
1.56
-0.21
-2.21
-4.28
-6.21
-7.89
-9.33
-10.71
-12.22
-14.02
-16.13
-18.47
-20.87
-23.09
-24.84
-25.77
-25.55
-23.87
-20.61
-15.93
-10.22
-4.11
1.78
6.96
11.14
14.27
16.46
17.87
18.64
18.85
18.57
17.85
16.81
15.57
14.25
12.96
11.78
10.77
9.95
9.31
8.82
8.38
7.90
7.29
6.53
5.65
4.75
3.92
3.20
2.55
1.88
1.08
0.11
-1.06
-2.40
-3.82
-5.24
-6.60
-7.87
-9.12
-10.48
-12.19
-14.43
-17.30
-20.66
-24.15
-27.21
-29.23
-29.76
-28.60
-25.90
-22.04
-17.52
-12.86
-8.41
-4.47
-1.26
1.05
2.30
2.40
1.41
-0.47
-2.97
-5.74
-8.52
-11.10
-13.44
-15.55
-17.52
-19.43
-21.33
-23.20
-25.00
-26.64
-28.06
-29.16
-29.83
-29.87
-29.02
-27.04
-23.83
-19.46
-14.23
-8.56
-2.83
2.69
7.86
12.62
16.82
20.25
22.59
23.57
23.16
21.61
19.52
17.60
16.52
16.70
18.20
20.80
24.10
27.62
30.93
33.65
35.48
36.26
35.96
34.70
32.74
30.33
27.67
24.85
21.94
19.02
16.23
13.70
11.58
9.91
8.67
7.74
6.99
6.31
5.65
5.01
4.35
3.63
2.74
1.56
0.02
-1.86
-3.94
-6.04
-8.01
-9.74
-11.21
-12.50
-13.69
-14.88
-16.19
-17.73
-19.55
-21.62
-23.68
-25.32
-25.97
-25.14
-22.58
-18.39
-13.01
-7.11
-1.39
3.55
7.39
10.06
11.68
12.48
12.74
12.65
12.33
11.83
11.14
10.29
9.33
8.36
7.49
6.78
6.20
5.71
5.23
4.75
4.30
3.89
3.53
3.19
2.80
2.29
1.61
0.75
-0.33
-1.62
-3.15
-4.88
-6.75
-8.65
-10.45
-12.08
-13.54
-14.93
-16.43
-18.19
-20.22
-22.35
-24.27
-25.57
-25.88
-24.94
-22.61
-18.93
-14.06
-8.34
-2.26
3.60
8.68
12.59
15.20
16.60
17.04
16.79
16.06
14.97
13.58
12.02
10.42
8.96
7.75
6.84
6.22
5.84
5.63
5.56
5.58
5.69
5.84
6.01
6.14
6.09
5.70
4.81
3.33
1.36
-0.87
-3.03
-4.92
-6.49
-7.87
-9.27
-10.82
-12.52
-14.31
-16.12
-17.97
-19.88
-21.78
-23.37
-24.18
-23.67
-21.48
-17.57
-12.31
-6.30
-0.25
5.25
9.80
13.27
15.68
17.15
17.77
17.66
16.95
15.81
14.47
13.18
12.10
11.24
10.46
9.60
8.53
7.24
5.92
4.75
3.87
3.31
2.94
2.59
2.13
1.46
0.62
-0.34
-1.34
-2.37
-3.42
-4.53
-5.73
-7.06
-8.60
-10.46
-12.71
-15.34
-18.15
-20.70
-22.42
-22.74
-21.27
-17.96
-13.09
-7.25
-1.09
4.77
9.89
14.01
17.06
19.04
20.02
20.11
19.45
18.28
16.85
15.44
14.32
13.66
13.56
13.97
14.77
15.80
16.94
18.15
19.46
20.86
22.33
23.76
24.99
25.86
26.26
26.21
25.82
25.26
24.70
24.25
24.00
23.93
23.93
23.84
23.49
22.73
21.47
19.63
17.21
14.49
11.81
9.56
8.13
7.95
9.36
12.51
17.34
23.51
30.78
38.69
46.43
53.16
58.34
61.89
64.08
65.20
65.24
64.28
61.82
56.91
48.70
37.10
22.98
7.94
-6.08
-17.27
-23.71
-24.58
-20.65
-14.00
-7.14
-2.17
-0.25
-1.32
-8.23
-20.58
-34.85
-46.51
-53.04
-54.80
-53.80
-52.04
-50.78
-50.31
-49.46
-46.85
-41.72
-34.31
-25.53
-16.69
-9.05
-2.90
1.85
5.93
9.73
12.93
14.83
15.04
13.74
11.90
10.77
11.14
13.32
16.64
19.68
20.74
20.28
18.57
16.22
13.84
11.71
9.93
8.42
6.93
5.27
3.40
1.17
-1.41
-4.34
-7.63
-11.12
-14.65
-17.92
-20.66
-22.64
-23.95
-24.88
-25.83
-27.19
-29.10
-31.27
-33.08
-33.79
-32.83
-30.15
-26.09
-21.24
-16.29
-11.81
-8.16
-5.50
-3.90
-3.37
-4.06
-6.15
-9.81
-15.01
-21.45
-28.60
-35.88
-42.89
-49.50
-55.64
-61.18
-65.84
-69.57
-72.90
-76.96
-82.98
-91.29
-100.65
-108.32
-111.15
-107.06
-96.07
-80.32
-63.07
-47.37
-35.21
-27.41
-24.17
-25.47
-31.02
-39.67
-49.19
-56.53
-58.88
-54.77
-44.76
-31.13
-16.92
-4.76
4.02
9.49
12.66
14.71
16.53
18.54
20.87
23.58
26.80
30.75
35.63
41.36
47.30
52.57
56.30
57.86
57.02
53.87
48.98
43.30
37.88
33.22
29.50
26.64
24.34
22.02
18.97
14.65
8.97
1.98
-6.80
-17.48
-29.29
-40.37
-48.27
-50.92
-47.28
-37.80
-24.68
-11.87
-2.99
0.11
-2.26
-8.41
-16.54
-25.15
-33.18
-34.67
-26.39
-9.55
10.91
30.20
45.78
56.79
62.44
63.83
61.63
55.71
46.31
34.52
21.84
10.53
1.68
-4.49
-8.24
-10.27
-11.87
-13.84
-16.21
-18.29
-19.41
-19.49
-19.03
-18.75
-19.54
-22.42
-27.85
-35.51
-44.38
-53.19
-60.87
-66.49
-69.26
-68.82
-65.36
-59.50
-52.10
-43.98
-35.79
-27.91
-20.32
-12.68
-4.69
3.71
12.24
20.37
27.43
32.84
36.22
37.55
37.25
36.12
35.11
35.15
36.90
40.59
45.98
52.45
59.16
65.20
69.71
71.94
71.35
67.73
61.29
52.73
43.12
33.67
25.33
18.48
12.83
7.53
1.56
-5.88
-14.97
-25.09
-34.92
-42.74
-46.91
-46.41
-41.12
-31.93
-20.40
-8.31
2.84
12.13
19.22
24.19
27.23
28.56
28.35
26.82
24.30
21.24
18.15
15.42
13.27
11.71
10.59
9.78
9.19
8.84
8.75
8.92
9.18
9.30
9.03
8.20
6.79
4.87
2.53
-0.19
-3.26
-6.66
-10.34
-14.20
-18.17
-22.25
-26.48
-30.95
-35.70
-40.61
-45.36
-49.39
-52.01
-52.48
-50.33
-45.43
-38.19
-29.44
-20.27
-11.75
-4.64
0.72
4.38
6.62
7.70
7.76
6.79
4.83
2.04
-1.09
-3.87
-5.57
-5.68
-3.96
-0.53
4.22
9.78
15.41
20.26
23.48
24.43
23.04
20.01
16.70
14.62
14.88
17.57
21.73
25.66
27.58
26.33
21.74
14.59
6.20
-2.01
-9.02
-14.32
-18.00
-20.52
-22.50
-24.40
-26.42
-28.26
-29.21
-28.34
-24.73
-17.91
-8.00
4.24
17.57
30.58
42.00
50.92
56.87
59.86
60.28
58.88
56.66
54.69
53.76
54.13
55.36
56.46
56.32
54.25
50.29
45.16
39.95
35.64
32.76
31.23
30.59
30.21
29.52
28.12
25.79
22.52
18.46
13.93
9.30
4.90
0.86
-2.94
-6.78
-10.90
-15.36
-19.95
-24.30
-28.06
-31.12
-33.59
-35.79
-37.99
-40.37
-42.92
-45.54
-48.03
-50.06
-51.13
-50.58
-47.81
-42.50
-34.90
-25.81
-16.34
-7.57
-0.18
5.63
10.05
13.39
15.92
17.71
18.77
19.03
18.54
17.43
15.91
14.27
12.76
11.63
11.02
11.00
11.45
12.23
13.09
13.78
14.14
14.01
13.31
12.08
10.40
8.48
6.63
5.09
4.03
3.42
3.05
2.61
1.83
0.55
-1.24
-3.36
-5.60
-7.79
-9.84
-11.79
-13.79
-15.98
-18.39
-20.94
-23.38
-25.40
-26.65
-26.85
-25.82
-23.44
-19.73
-14.88
-9.27
-3.43
2.00
6.44
9.47
10.95
10.97
9.84
7.92
5.59
3.13
0.75
-1.42
-3.32
-4.98
-6.49
-7.93
-9.38
-10.82
-12.14
-13.15
-13.67
-13.62
-13.03
-12.10
-11.17
-10.54
-10.45
-10.88
-11.57
-12.12
-12.18
-11.55
-10.26
-8.45
-6.25
-3.76
-1.12
1.39
3.34
4.31
4.19
3.31
2.43
2.48
4.22
8.00
13.86
21.59
30.92
41.47
52.71
63.82
73.81
81.68
86.64
88.33
86.84
82.72
76.87
70.43
64.51
59.84
56.63
54.41
52.27
49.25
44.71
38.62
31.52
24.27
17.71
12.41
8.58
6.10
4.69
4.00
3.68
3.39
2.83
1.74
-0.02
-2.44
-5.40
-8.62
-11.84
-14.79
-17.27
-19.22
-20.65
-21.64
-22.38
-23.14
-24.16
-25.61
-27.45
-29.37
-30.82
-31.18
-29.87
-26.58
-21.43
-14.91
-7.86
-1.26
3.98
7.17
7.97
6.47
3.09
-1.47
-6.38
-10.85
-14.27
-16.26
-16.75
-15.89
-14.04
-11.57
-8.83
-6.01
-3.20
-0.47
2.11
4.40
6.24
7.56
8.40
8.87
9.07
8.97
8.42
7.23
5.32
2.81
0.02
-2.73
-5.18
-7.26
-9.06
-10.70
-12.33
-14.02
-15.85
-17.88
-20.19
-22.85
-25.81
-28.88
-31.68
-33.68
-34.34
-33.21
-30.19
-25.61
-20.22
-14.97
-10.74
-8.01
-6.79
-6.67
-7.11
-7.63
-8.04
-8.46
-9.09
-10.07
-11.30
-12.45
-13.11
-12.96
-11.93
-10.26
-8.33
-6.55
-5.18
-4.23
-3.60
-3.09
-2.61
-2.16
-1.86
-1.90
-2.49
-3.82
-5.92
-8.55
-11.17
-12.94
-12.99
-10.81
-6.43
-0.52
5.89
11.83
16.80
20.94
24.90
29.46
35.12
41.86
49.15
56.14
61.97
66.02
68.03
68.06
66.40
63.40
59.37
54.54
49.09
43.20
37.15
31.25
25.81
21.00
16.80
13.02
9.33
5.40
1.04
-3.78
-8.90
-14.00
-18.73
-22.79
-26.05
-28.53
-30.42
-32.05
-33.79
-36.00
-38.92
-42.64
-46.95
-51.42
-55.40
-58.36
-60.05
-60.65
-60.66
-60.60
-60.55
-60.04
-58.11
-53.85
-46.79
-37.29
-26.29
-14.97
-4.31
5.09
12.98
19.21
23.60
25.96
26.27
24.80
22.16
19.10
16.35
14.44
13.64
13.97
15.25
17.14
19.21
21.08
22.50
23.38
23.72
23.49
22.63
21.06
18.84
16.19
13.48
10.99
8.78
6.58
4.01
0.74
-3.22
-7.59
-11.99
-16.12
-19.89
-23.34
-26.47
-29.06
-30.62
-30.59
-28.54
-24.33
-18.16
-10.49
-1.91
6.97
15.54
23.22
29.42
33.64
35.53
35.01
32.33
28.01
22.69
16.99
11.30
5.77
0.35
-5.02
-10.25
-15.02
-18.87
-21.40
-22.52
-22.48
-21.80
-21.04
-20.52
-20.35
-20.38
-20.46
-20.59
-20.95
-21.85
-23.51
-25.94
-28.92
-32.12
-35.26
-38.24
-41.13
-44.03
-46.88
-49.39
-51.06
-51.33
-49.85
-46.58
-41.87
-36.31
-30.61
-25.31
-20.75
-17.06
-14.21
-12.18
-10.98
-10.61
-11.00
-11.94
-13.02
-13.76
-13.77
-12.85
-11.09
-8.75
-6.12
-3.53
-1.16
0.85
2.42
3.51
4.11
4.30
4.27
4.21
4.31
4.67
5.20
5.73
5.96
5.66
4.70
3.07
0.89
-1.66
-4.40
-7.26
-10.31
-13.66
-17.43
-21.58
-25.79
-29.49
-31.93
-32.41
-30.48
-26.12
-19.73
-12.01
-3.73
4.39
11.81
18.17
23.23
26.86
29.04
29.87
29.63
28.69
27.46
26.22
25.14
24.21
23.37
22.63
22.05
21.76
21.84
22.27
22.90
23.49
23.80
23.61
22.76
21.17
18.90
16.09
13.00
9.94
7.10
4.56
2.26
0.05
-2.19
-4.50
-6.81
-9.00
-10.99
-12.72
-14.22
-15.54
-16.84
-18.31
-20.12
-22.42
-25.23
-28.40
-31.59
-34.37
-36.28
-36.90
-35.93
-33.21
-28.71
-22.62
-15.38
-7.64
-0.13
6.49
11.87
15.97
18.97
21.04
22.27
22.64
22.17
21.06
19.72
18.61
18.07
18.17
18.72
19.40
19.95
20.23
20.25
20.08
19.79
19.39
18.82
18.00
16.85
15.33
13.45
11.31
9.07
6.89
4.90
3.15
1.56
-0.01
-1.74
-3.75
-6.07
-8.63
-11.22
-13.68
-15.91
-17.97
-20.03
-22.24
-24.71
-27.43
-30.35
-33.40
-36.47
-39.29
-41.36
-41.96
-40.41
-36.36
-30.02
-22.16
-13.85
-6.04
0.69
6.18
10.52
13.78
15.93
16.85
16.56
15.30
13.55
11.90
10.83
10.54
11.00
11.98
13.25
14.72
16.45
18.69
21.88
26.49
32.91
41.32
51.53
62.93
74.56
85.36
94.40
101.08
105.28
107.26
107.50
106.49
104.60
102.08
99.06
95.65
91.92
87.89
83.50
78.66
73.25
67.25
60.72
53.83
46.88
40.17
34.07
28.98
25.29
23.35
23.32
25.07
28.13
31.81
35.37
38.25
40.26
41.53
42.30
42.73
42.61
41.40
38.41
33.22
26.04
17.82
10.01
4.08
0.83
0.05
0.59
0.79
-0.81
-4.90
-11.29
-19.22
-27.83
-36.54
-45.31
-54.40
-64.21
-75.01
-86.96
-100.12
-114.50
-129.88
-145.52
-160.04
-171.54
-178.00
-178.11
-171.79
-160.46
-146.61
-133.05
-121.98
-114.45
-110.21
-108.13
-106.66
-104.27
-99.58
-91.33
-78.41
-60.07
-36.31
-8.24
21.92
51.17
76.53
95.82
108.26
114.59
116.63
116.59
116.36
117.04
118.89
121.53
124.37
126.83
128.55
129.28
128.71
126.42
121.83
114.40
103.85
90.29
74.24
56.40
37.54
18.35
-0.67
-19.12
-36.76
-53.51
-69.51
-85.08
-100.40
-115.15
-128.30
-138.25
-143.50
-143.44
-138.96
-132.33
-126.33
-122.99
-122.64
-123.78
-123.91
-120.61
-112.55
-99.67
-82.84
-63.24
-42.02
-20.43
0.04
17.58
30.50
37.82
39.67
37.28
32.43
26.74
21.21
16.10
11.24
6.35
1.33
-3.76
-8.75
-13.50
-18.00
-22.35
-26.71
-31.22
-35.93
-40.74
-45.29
-48.94
-50.90
-50.47
-47.37
-41.97
-35.32
-28.82
-23.77
-20.92
-20.32
-21.47
-23.68
-26.37
-29.13
-31.59
-33.21
-33.17
-30.63
-25.03
-16.57
-6.24
4.44
13.93
21.20
26.06
29.06
31.08
32.89
34.76
36.51
37.70
37.91
37.02
35.17
32.68
29.87
27.05
24.56
22.81
22.21
23.05
25.24
28.36
31.64
34.29
35.72
35.66
34.20
31.63
28.27
24.36
20.08
15.52
10.78
5.86
0.71
-4.73
-10.38
-15.93
-20.70
-23.81
-24.37
-21.80
-16.08
-7.88
1.59
10.84
18.57
23.93
26.70
27.17
25.91
23.56
20.63
17.52
14.52
11.84
9.62
7.90
6.59
5.58
4.85
4.49
4.61
5.27
6.30
7.30
7.83
7.46
5.91
3.10
-0.92
-6.01
-11.92
-18.37
-25.08
-31.83
-38.56
-45.29
-52.03
-58.51
-64.13
-67.93
-68.90
-66.27
-59.86
-50.17
-38.22
-25.32
-12.69
-1.29
8.29
15.81
21.29
24.99
27.28
28.62
29.45
30.10
30.74
31.42
32.11
32.78
33.45
34.22
35.15
36.28
37.46
38.33
38.45
37.38
34.92
31.17
26.56
21.61
16.72
12.00
7.30
2.37
-2.97
-8.70
-14.61
-20.27
-25.04
-28.14
-28.67
-25.92
-19.57
-9.98
1.89
14.67
27.00
37.89
46.87
53.89
59.09
62.71
64.91
65.84
65.74
64.88
63.57
62.05
60.49
58.88
57.08
54.86
51.98
48.27
43.70
38.38
32.49
26.19
19.56
12.63
5.44
-1.84
-8.93
-15.55
-21.55
-26.89
-31.57
-35.39
-37.77
-37.92
-35.13
-29.14
-20.44
-9.99
1.06
11.68
21.09
28.52
33.14
34.17
31.27
25.00
16.84
8.85
3.06
0.85
2.68
8.13
16.12
25.20
33.77
40.31
43.75
43.77
40.92
36.41
31.58
27.36
23.96
20.92
17.45
12.81
6.70
-0.68
-8.65
-16.25
-22.50
-26.63
-28.23
-27.35
-24.36
-19.85
-14.49
-8.99
-4.10
-0.58
0.86
-0.24
-3.96
-9.88
-17.13
-24.58
-31.15
-36.07
-39.16
-40.84
-41.97
-43.47
-45.96
-49.45
-53.34
-56.59
-58.18
-57.48
-54.54
-50.00
-44.90
-40.28
-36.94
-35.22
-34.96
-35.51
-35.86
-34.87
-31.59
-25.53
-16.95
-6.73
3.85
13.52
21.40
27.09
30.61
32.23
32.28
31.13
29.19
26.85
24.49
22.37
20.53
18.82
16.97
14.73
11.93
8.64
5.11
1.69
-1.24
-3.42
-4.82
-5.66
-6.37
-7.46
-9.31
-12.06
-15.47
-18.97
-21.76
-23.00
-22.11
-18.90
-13.68
-7.11
0.04
7.05
13.42
18.88
23.33
26.66
28.80
29.66
29.25
27.73
25.41
22.71
19.99
17.46
15.17
12.97
10.70
8.24
5.68
3.23
1.17
-0.31
-1.20
-1.73
-2.28
-3.25
-4.98
-7.59
-10.93
-14.57
-17.79
-19.83
-20.02
-18.08
-14.10
-8.61
-2.30
4.12
10.11
15.32
19.56
22.68
24.58
25.27
24.88
23.65
21.93
20.11
18.47
17.20
16.29
15.59
14.85
13.86
12.49
10.78
8.90
7.03
5.26
3.54
1.66
-0.62
-3.51
-7.09
-11.26
-15.70
-19.90
-23.19
-24.92
-24.56
-21.99
-17.47
-11.65
-5.32
0.78
6.15
10.50
13.71
15.75
16.62
16.37
15.18
13.34
11.21
9.10
7.21
5.58
4.14
2.76
1.35
-0.06
-1.42
-2.64
-3.62
-4.32
-4.79
-5.15
-5.62
-6.49
-8.01
-10.32
-13.35
-16.74
-19.90
-22.09
-22.65
-21.14
-17.55
-12.25
-5.94
0.58
6.56
11.49
15.14
17.46
18.50
18.30
16.91
14.49
11.37
8.03
5.00
2.67
1.10
0.10
-0.70
-1.65
-2.84
-4.19
-5.41
-6.27
-6.76
-7.05
-7.47
-8.35
-9.95
-12.34
-15.45
-19.03
-22.66
-25.76
-27.63
-27.64
-25.46
-21.18
-15.35
-8.80
-2.34
3.40
8.11
11.70
14.17
15.56
15.93
15.44
14.34
12.93
11.41
9.84
8.20
6.45
4.66
2.98
1.61
0.68
0.20
0.04
-0.00
-0.10
-0.42
-1.05
-2.02
-3.31
-4.85
-6.53
-8.28
-10.11
-12.11
-14.38
-16.89
-19.46
-21.70
-23.10
-23.16
-21.56
-18.22
-13.29
-7.19
-0.46
6.28
12.44
17.54
21.28
23.57
24.53
24.39
23.43
21.90
19.99
17.84
15.61
13.51
11.71
10.34
9.37
8.64
7.91
6.99
5.85
4.59
3.35
2.22
1.18
0.11
-1.15
-2.67
-4.45
-6.37
-8.34
-10.25
-12.09
-13.87
-15.61
-17.34
-19.05
-20.75
-22.51
-24.39
-26.48
-28.73
-30.92
-32.54
-32.95
-31.56
-28.06
-22.64
-15.92
-8.79
-2.06
3.69
8.21
11.51
13.68
14.82
15.04
14.48
13.39
12.11
11.00
10.35
10.26
10.63
11.22
11.71
11.86
11.63
11.15
10.65
10.33
10.26
10.31
10.21
9.70
8.62
7.00
4.99
2.75
0.39
-2.01
-4.45
-6.89
-9.28
-11.62
-13.93
-16.36
-19.06
-22.12
-25.40
-28.44
-30.52
-30.92
-29.14
-25.13
-19.33
-12.50
-5.52
0.93
6.37
10.60
13.60
15.41
16.15
15.98
15.12
13.86
12.45
11.11
9.97
9.04
8.30
7.70
7.23
6.92
6.83
6.98
7.28
7.57
7.61
7.26
6.50
5.42
4.16
2.79
1.31
-0.34
-2.22
-4.32
-6.56
-8.87
-11.18
-13.50
-15.91
-18.48
-21.31
-24.47
-27.96
-31.60
-34.97
-37.43
-38.24
-36.78
-32.80
-26.55
-18.68
-10.07
-1.64
5.86
11.97
16.49
19.47
21.08
21.64
21.42
20.70
19.69
18.54
17.38
16.31
15.39
14.66
14.09
13.64
13.25
12.87
12.47
12.00
11.41
10.63
9.60
8.30
6.75
5.02
3.20
1.34
-0.56
-2.54
-4.69
-7.08
-9.70
-12.49
-15.28
-17.91
-20.32
-22.60
-24.99
-27.77
-31.05
-34.61
-37.86
-39.93
-40.02
-37.56
-32.47
-25.16
-16.38
-7.05
1.94
9.89
16.32
21.05
24.10
25.68
26.13
25.77
24.90
23.73
22.42
21.06
19.70
18.42
17.23
16.17
15.28
14.61
14.12
13.78
13.50
13.17
12.71
12.06
11.19
10.08
8.64
6.79
4.42
1.50
-1.87
-5.46
-9.02
-12.34
-15.34
-18.06
-20.64
-23.23
-25.94
-28.79
-31.70
-34.42
-36.55
-37.54
-36.77
-33.77
-28.40
-20.93
-12.06
-2.72
6.17
13.87
19.89
24.04
26.32
26.96
26.29
24.75
22.77
20.72
18.80
17.08
15.52
14.03
12.56
11.16
9.99
9.17
8.80
8.77
8.88
8.82
8.31
7.19
5.49
3.35
0.97
-1.44
-3.75
-5.90
-7.89
-9.85
-11.99
-14.60
-17.96
-22.13
-26.82
-31.34
-34.76
-36.13
-34.81
-30.66
-24.02
-15.65
-6.43
2.78
11.31
18.64
24.43
28.50
30.80
31.46
30.80
29.26
27.30
25.30
23.44
21.72
20.07
18.41
16.77
15.28
14.04
13.11
12.41
11.80
11.13
10.28
9.19
7.76
5.86
3.36
0.23
-3.44
-7.35
-11.17
-14.61
-17.68
-20.63
-23.87
-27.75
-32.30
-37.07
-41.21
-43.66
-43.56
-40.44
-34.40
-26.03
-16.21
-5.86
4.15
13.14
20.60
26.24
29.99
31.98
32.50
31.90
30.50
28.56
26.31
24.00
21.81
19.89
18.28
16.88
15.57
14.27
13.03
11.96
11.18
10.63
10.11
9.28
7.83
5.64
2.80
-0.36
-3.52
-6.42
-9.00
-11.41
-13.89
-16.71
-20.10
-24.18
-28.88
-33.89
-38.60
-42.16
-43.57
-42.06
-37.31
-29.61
-19.81
-9.12
1.25
10.38
17.76
23.26
27.04
29.33
30.38
30.40
29.55
28.04
26.10
23.99
21.97
20.26
18.96
18.05
17.45
17.05
16.74
16.45
16.15
15.76
15.19
14.30
12.96
11.07
8.60
5.58
2.12
-1.59
-5.34
-8.93
-12.19
-15.09
-17.72
-20.30
-23.07
-26.30
-30.12
-34.42
-38.86
-42.80
-45.39
-45.75
-43.20
-37.53
-29.12
-18.86
-7.94
2.48
11.57
18.84
24.17
27.64
29.48
29.94
29.36
28.07
26.37
24.46
22.49
20.54
18.71
17.11
15.84
14.93
14.31
13.84
13.41
12.92
12.34
11.59
10.59
9.18
7.21
4.61
1.43
-2.13
-5.80
-9.25
-12.29
-14.85
-17.08
-19.25
-21.67
-24.62
-28.16
-32.10
-35.98
-39.17
-40.94
-40.62
-37.80
-32.40
-24.73
-15.50
-5.60
4.03
12.62
19.69
25.05
28.71
30.77
31.37
30.66
28.88
26.34
23.51
20.83
18.64
17.10
16.16
15.62
15.26
14.94
14.58
14.14
13.59
12.84
11.74
10.16
8.01
5.26
2.02
-1.58
-5.33
-9.07
-12.69
-16.13
-19.41
-22.58
-25.83
-29.38
-33.40
-37.90
-42.54
-46.62
-49.23
-49.49
-46.82
-41.18
-33.01
-23.16
-12.56
-2.18
7.17
14.90
20.65
24.42
26.45
27.20
27.13
26.56
25.62
24.28
22.57
20.62
18.71
17.10
15.92
15.12
14.46
13.71
12.78
11.70
10.61
9.55
8.39
6.91
4.85
2.17
-0.98
-4.26
-7.33
-10.06
-12.47
-14.78
-17.16
-19.70
-22.40
-25.26
-28.34
-31.75
-35.51
-39.41
-42.91
-45.20
-45.41
-42.82
-37.20
-28.82
-18.49
-7.33
3.54
13.20
21.13
27.18
31.49
34.31
35.89
36.44
36.12
35.13
33.69
32.02
30.30
28.64
27.10
25.70
24.46
23.41
22.56
21.83
21.11
20.22
19.02
17.41
15.40
13.06
10.50
7.82
5.08
2.33
-0.39
-3.05
-5.69
-8.34
-11.05
-13.76
-16.37
-18.69
-20.54
-21.94
-23.11
-24.49
-26.55
-29.59
-33.59
-38.06
-42.08
-44.57
-44.55
-41.45
-35.30
-26.71
-16.71
-6.41
3.22
11.53
18.18
23.08
26.27
27.92
28.26
27.62
26.30
24.60
22.74
20.89
19.19
17.77
16.73
16.16
16.07
16.36
16.87
17.36
17.61
17.45
16.78
15.63
14.11
12.36
10.57
8.85
7.22
5.62
3.87
1.77
-0.85
-4.05
-7.66
-11.37
-14.75
-17.45
-19.38
-20.72
-21.93
-23.50
-25.82
-28.92
-32.48
-35.77
-37.92
-38.10
-35.74
-30.69
-23.26
-14.14
-4.24
5.46
14.15
21.26
26.52
29.89
31.53
31.71
30.72
28.91
26.61
24.12
21.68
19.45
17.51
15.95
14.85
14.29
14.26
14.63
15.14
15.52
15.52
15.03
14.05
12.59
10.68
8.32
5.55
2.47
-0.74
-3.92
-6.92
-9.71
-12.32
-14.81
-17.23
-19.61
-22.01
-24.47
-27.08
-29.93
-33.15
-36.76
-40.60
-44.26
-47.00
-47.98
-46.42
-41.97
-34.77
-25.57
-15.38
-5.24
4.00
11.86
18.12
22.70
25.61
26.94
26.85
25.63
23.70
21.44
19.14
16.94
14.83
12.73
10.62
8.52
6.45
4.43
2.41
0.32
-1.87
-4.18
-6.58
-9.13
-11.99
-15.42
-19.65
-24.74
-30.56
-36.78
-43.03
-49.02
-54.68
-60.03
-65.23
-70.40
-75.66
-81.06
-86.59
-92.15
-97.46
-102.09
-105.49
-107.20
-106.95
-104.77
-100.90
-95.55
-88.74
-80.24
-69.66
-56.78
-41.73
-25.00
-7.34
10.58
28.32
45.63
62.35
78.15
92.49
104.79
114.68
122.26
128.14
133.29
138.69
145.09
152.78
161.58
170.88
179.86
187.63
193.51
197.13
198.58
198.44
197.60
196.95
196.93
197.20
196.65
193.78
187.40
177.27
164.39
150.64
138.09
128.21
121.45
117.26
114.57
112.26
109.48
105.49
99.53
90.71
78.25
61.85
42.04
20.17
-1.90
-22.34
-39.84
-53.89
-64.66
-72.70
-78.52
-82.30
-83.98
-83.42
-80.80
-76.74
-72.26
-68.55
-66.58
-66.98
-69.85
-74.98
-81.92
-90.18
-99.27
-108.83
-118.61
-128.50
-138.45
-148.17
-156.99
-163.83
-167.45
-166.96
-162.32
-154.32
-144.27
-133.30
-121.90
-109.96
-97.21
-83.85
-70.79
-59.26
-50.30
-44.20
-40.53
-38.63
-38.16
-39.16
-41.69
-45.19
-48.24
-48.94
-45.86
-38.87
-29.38
-19.65
-11.74
-6.59
-3.78
-1.89
0.69
5.20
12.09
21.18
31.77
43.02
54.11
64.27
72.69
78.35
79.89
75.98
65.86
49.97
30.22
9.53
-9.10
-23.54
-32.94
-37.29
-36.62
-30.51
-18.59
-1.82
16.32
29.80
31.88
17.82
-12.65
-54.79
-100.50
-141.48
-172.16
-190.88
-199.16
-199.59
-194.05
-183.03
-166.53
-145.37
-122.09
-100.29
-83.17
-71.77
-64.23
-56.60
-44.70
-26.17
-1.57
25.69
50.90
69.98
80.96
84.43
82.80
78.97
75.05
71.76
68.66
65.00
60.50
55.63
51.44
48.77
47.71
47.34
46.17
42.80
36.72
28.47
19.38
10.89
3.92
-1.46
-5.94
-10.46
-15.74
-21.94
-28.58
-34.77
-39.45
-41.76
-41.23
-37.81
-31.85
-23.97
-14.81
-4.99
4.95
14.48
22.99
29.85
34.60
37.03
37.31
35.91
33.46
30.47
27.26
24.02
20.82
17.87
15.44
13.82
13.15
13.35
14.08
14.84
15.10
14.43
12.66
9.98
6.93
4.27
2.66
2.42
3.17
3.84
2.99
-0.57
-7.20
-16.03
-25.18
-32.35
-35.67
-34.30
-28.51
-19.43
-8.48
3.00
14.03
23.88
32.00
37.99
41.65
43.09
42.67
40.90
38.33
35.35
32.16
28.86
25.47
22.02
18.59
15.33
12.48
10.30
8.95
8.40
8.27
7.97
6.87
4.61
1.27
-2.55
-5.96
-8.16
-8.83
-8.36
-7.75
-8.22
-10.69
-15.38
-21.68
-28.27
-33.52
-35.71
-33.44
-25.76
-12.40
6.07
28.30
52.29
75.90
97.36
115.59
130.28
141.56
149.58
154.33
155.70
153.83
149.45
143.75
138.07
133.28
129.38
125.50
120.39
113.17
104.01
94.21
85.89
81.07
80.80
84.65
90.71
96.15
98.05
94.32
84.22
68.42
48.67
27.20
6.27
-12.22
-26.92
-37.20
-43.23
-46.03
-47.16
-48.31
-50.63
-54.25
-58.23
-60.93
-60.79
-57.00
-49.81
-40.49
-30.80
-22.50
-16.85
-14.43
-14.97
-17.47
-20.48
-22.47
-22.34
-19.73
-15.26
-10.24
-6.22
-4.36
-5.09
-8.16
-13.10
-19.68
-28.26
-39.46
-53.63
-70.19
-87.36
-102.58
-113.23
-117.50
-114.83
-105.98
-92.68
-77.28
-62.27
-49.89
-41.77
-38.59
-40.23
-46.01
-55.15
-66.95
-80.50
-94.30
-106.08
-113.21
-113.61
-106.65
-93.43
-76.33
-57.97
-40.33
-24.29
-9.86
3.21
15.01
25.40
34.29
41.81
48.27
53.84
58.18
60.41
59.27
54.02
45.05
34.25
24.45
18.34
17.16
19.96
23.88
25.38
21.83
12.54
-1.14
-16.71
-31.78
-45.14
-56.95
-68.40
-80.78
-94.86
-110.58
-127.07
-142.84
-155.99
-164.37
-165.97
-159.44
-144.76
-123.75
-99.96
-77.72
-60.74
-50.69
-46.69
-45.72
-44.02
-38.73
-28.97
-15.98
-2.35
9.18
16.85
20.47
21.32
21.56
23.23
27.39
33.72
40.59
45.99
48.53
48.17
46.34
45.12
46.07
49.38
53.68
56.78
56.70
52.55
44.75
34.55
23.27
11.83
0.67
-9.91
-19.46
-27.29
-32.86
-36.13
-37.80
-39.07
-41.09
-44.39
-48.63
-52.78
-55.57
-56.02
-53.71
-48.84
-41.98
-33.87
-25.21
-16.47
-7.84
0.76
9.59
18.90
28.67
38.55
47.84
55.75
61.56
64.80
65.32
63.24
58.93
53.08
46.61
40.52
35.66
32.46
30.85
30.30
30.22
30.17
29.99
29.79
29.61
29.32
28.58
26.97
24.23
20.42
15.86
11.02
6.30
1.96
-1.98
-5.66
-9.32
-13.24
-17.70
-22.98
-29.18
-36.14
-43.32
-49.76
-54.20
-55.41
-52.52
-45.28
-34.24
-20.55
-5.75
8.63
21.40
31.84
39.73
45.27
48.84
50.79
51.38
50.71
48.82
45.83
41.99
37.73
33.51
29.76
26.84
24.94
24.11
24.27
25.12
26.19
26.85
26.53
24.83
21.74
17.57
12.87
8.15
3.75
-0.23
-3.91
-7.53
-11.41
-15.90
-21.22
-27.45
-34.22
-40.73
-45.74
-47.95
-46.33
-40.57
-31.15
-19.17
-6.04
6.91
18.70
28.69
36.66
42.55
46.40
48.30
48.39
46.91
44.30
41.16
38.13
35.68
33.92
32.59
31.22
29.40
27.02
24.35
21.85
19.94
18.76
18.13
17.63
16.80
15.31
13.00
9.92
6.23
2.13
-2.16
-6.46
-10.68
-14.85
-19.19
-24.06
-29.79
-36.41
-43.46
-49.86
-54.15
-54.89
-51.17
-42.91
-30.95
-16.71
-1.80
12.39
24.89
35.14
42.94
48.32
51.52
52.93
53.06
52.39
51.32
50.07
48.69
47.11
45.22
42.97
40.38
37.57
34.72
32.04
29.70
27.79
26.32
25.13
23.90
22.27
19.87
16.47
12.07
6.96
1.62
-3.43
-7.86
-11.63
-15.02
-18.52
-22.65
-27.80
-34.05
-41.08
-48.17
-54.18
-57.84
-57.98
-53.92
-45.63
-33.86
-19.86
-5.21
8.68
20.76
30.47
37.67
42.46
45.08
45.79
44.86
42.65
39.63
36.31
33.18
30.59
28.61
27.14
25.93
24.78
23.55
22.27
21.02
19.88
18.86
17.86
16.70
15.13
12.97
10.08
6.50
2.38
-2.03
-6.45
-10.64
-14.48
-17.98
-21.30
-24.77
-28.74
-33.52
-39.11
-45.03
-50.33
-53.71
-53.93
-50.24
-42.63
-31.86
-19.24
-6.23
5.93
16.40
24.70
30.67
34.25
35.54
34.75
32.28
28.73
24.79
21.04
17.90
15.51
13.76
12.42
11.30
10.36
9.68
9.44
9.69
10.32
10.97
11.15
10.38
8.36
5.08
0.82
-3.95
-8.69
-13.01
-16.71
-19.88
-22.81
-25.96
-29.76
-34.46
-39.91
-45.52
-50.21
-52.74
-51.96
-47.23
-38.64
-27.00
-13.69
-0.23
12.06
22.25
29.95
35.15
38.08
39.10
38.60
36.92
34.47
31.63
28.74
26.07
23.74
21.74
19.97
18.33
16.79
15.36
14.13
13.12
12.32
11.60
10.73
9.46
7.54
4.86
1.47
-2.41
-6.51
-10.55
-14.37
-17.94
-21.34
-24.80
-28.56
-32.88
-37.97
-43.81
-50.00
-55.80
-60.09
-61.70
-59.69
-53.70
-44.02
-31.59
-17.72
-3.79
8.98
19.72
27.96
33.53
36.56
37.42
36.62
34.72
32.27
29.69
27.29
25.19
23.42
21.92
20.69
19.73
19.10
18.89
19.12
19.75
20.54
21.15
21.22
20.44
18.76
16.34
13.51
10.58
7.75
4.98
2.06
-1.26
-5.12
-9.47
-14.03
-18.42
-22.33
-25.62
-28.47
-31.33
-34.76
-39.19
-44.74
-50.96
-56.90
-61.29
-62.86
-60.65
-54.32
-44.21
-31.32
-17.06
-2.95
9.73
20.12
27.86
33.01
35.92
37.03
36.77
35.48
33.45
30.98
28.37
25.90
23.73
21.95
20.56
19.51
18.78
18.39
18.34
18.57
18.95
19.22
19.08
18.29
16.76
14.61
12.07
9.42
6.89
4.59
2.48
0.43
-1.72
-4.09
-6.74
-9.69
-12.86
-16.20
-19.54
-22.75
-25.73
-28.53
-31.33
-34.45
-38.20
-42.71
-47.75
-52.68
-56.51
-58.10
-56.46
-51.15
-42.31
-30.79
-17.85
-4.88
6.92
16.71
24.10
29.09
31.90
32.88
32.40
30.80
28.38
25.44
22.20
18.92
15.87
13.33
11.52
10.60
10.49
11.02
11.87
12.73
13.31
13.45
13.03
12.06
10.56
8.61
6.29
3.68
0.81
-2.29
-5.58
-9.02
-12.53
-16.02
-19.38
-22.57
-25.62
-28.65
-31.86
-35.47
-39.60
-44.17
-48.73
-52.46
-54.31
-53.26
-48.67
-40.52
-29.48
-16.76
-3.76
8.22
18.26
25.92
31.20
34.37
35.87
36.12
35.43
34.04
32.07
29.67
27.04
24.43
22.10
20.31
19.14
18.61
18.56
18.79
19.05
19.18
19.00
18.38
17.21
15.43
13.05
10.17
6.99
3.68
0.38
-2.93
-6.34
-9.97
-13.86
-17.89
-21.87
-25.57
-28.91
-32.00
-35.20
-38.96
-43.57
-48.98
-54.57
-59.27
-61.73
-60.75
-55.66
-46.59
-34.46
-20.67
-6.79
5.90
16.58
24.93
31.00
35.01
37.24
38.00
37.59
36.34
34.59
32.62
30.69
28.91
27.33
25.97
24.80
23.84
23.11
22.63
22.43
22.43
22.44
22.16
21.25
19.46
16.75
13.36
9.67
6.09
2.84
-0.16
-3.23
-6.75
-11.01
-16.08
-21.80
-27.92
-34.12
-40.11
-45.63
-50.49
-54.59
-57.92
-60.51
-62.40
-63.50
-63.53
-62.10
-58.91
-53.99
-47.76
-41.02
-34.62
-29.21
-25.02
-21.81
-19.00
-16.00
-12.40
-8.30
-4.21
-0.90
0.92
0.90
-0.80
-3.66
-7.00
-10.32
-13.40
-16.24
-18.94
-21.47
-23.59
-24.95
-25.22
-24.21
-22.04
-19.10
-15.96
-13.11
-10.81
-8.92
-6.87
-4.00
0.19
5.80
12.39
19.31
26.05
32.28
37.97
43.32
48.60
54.13
60.15
66.89
74.53
83.21
92.75
102.67
112.29
120.91
128.03
133.28
136.35
137.14
135.96
133.14
129.16
124.63
119.99
115.33
110.32
104.14
96.53
88.46
80.85
74.31
69.03
64.64
60.43
55.81
49.90
42.80
36.11
30.20
24.44
18.20
11.11
3.09
-5.97
-17.91
-34.20
-54.19
-77.91
-104.92
-133.18
-159.94
-183.03
-201.80
-218.62
-235.17
-249.26
-258.94
-262.04
-255.79
-238.25
-209.13
-160.17
-94.71
-34.69
12.40
45.61
62.98
64.74
53.77
35.20
14.96
-3.37
-16.78
-21.47
-17.12
-5.76
10.23
28.15
45.17
58.62
65.34
64.30
57.89
47.93
35.65
22.68
10.68
1.30
-4.17
-5.92
-4.36
0.76
8.43
17.07
25.49
32.81
38.21
40.87
39.64
34.11
25.31
14.71
4.10
-4.51
-9.51
-10.17
-6.62
0.07
8.66
18.09
27.36
35.63
42.27
46.87
49.17
49.21
47.39
44.53
41.78
40.27
40.68
42.78
45.41
46.89
45.82
41.76
35.51
28.75
23.25
20.09
19.24
19.81
20.52
20.25
18.26
14.17
7.86
-0.69
-11.23
-23.11
-35.25
-46.35
-55.33
-61.69
-65.67
-68.06
-69.69
-71.00
-71.73
-71.08
-68.05
-62.05
-53.13
-42.08
-30.16
-18.71
-8.89
-1.41
3.47
6.00
6.85
7.08
7.88
10.29
14.88
21.52
29.41
37.33
44.02
48.54
50.51
50.06
47.66
43.81
38.75
32.46
24.79
15.83
6.23
-2.86
-10.07
-14.41
-15.71
-14.93
-13.80
-14.34
-18.12
-25.77
-36.85
-50.01
-63.29
-74.54
-81.83
-83.88
-80.38
-72.16
-60.92
-48.80
-37.62
-28.38
-21.04
-14.89
-9.09
-3.21
2.56
7.67
11.66
14.59
16.98
19.45
22.28
25.15
27.28
27.93
26.91
24.76
22.46
20.89
20.42
20.69
21.01
20.80
19.95
18.93
18.48
19.23
21.38
24.54
27.76
29.79
29.27
25.06
16.47
3.55
-12.95
-31.65
-50.94
-69.27
-85.38
-98.28
-107.21
-111.55
-110.97
-105.71
-96.77
-85.79
-74.64
-64.79
-56.91
-50.75
-45.47
-40.21
-34.39
-27.77
-20.21
-11.44
-1.02
11.44
25.86
41.40
56.49
69.19
77.86
81.70
81.00
77.06
71.65
66.46
62.59
60.44
59.87
60.61
62.48
65.49
69.62
74.53
79.48
83.37
85.07
83.75
79.08
71.26
60.97
49.13
36.68
24.36
12.61
1.56
-8.98
-19.28
-29.54
-39.50
-48.16
-53.62
-53.57
-46.07
-30.64
-8.77
16.27
40.62
61.13
76.35
86.41
92.24
94.48
93.05
87.38
77.27
63.42
47.42
31.15
16.04
2.69
-9.20
-20.74
-33.71
-50.19
-71.90
-99.38
-131.25
-164.21
-193.66
-215.06
-225.05
-222.23
-207.15
-181.96
-149.92
-115.11
-81.94
-54.64
-36.28
-28.00
-28.46
-34.37
-41.66
-46.98
-48.79
-47.52
-44.77
-42.03
-39.61
-36.44
-30.83
-21.67
-9.23
4.82
18.30
29.56
38.22
44.90
50.53
55.58
59.81
62.65
63.74
63.28
61.86
60.02
57.85
55.00
50.97
45.61
39.43
33.45
28.90
26.73
27.38
30.65
35.86
41.87
47.29
50.61
50.54
46.32
38.04
26.71
13.98
1.68
-8.64
-16.11
-20.50
-22.09
-21.37
-18.81
-14.90
-10.14
-5.18
-0.84
1.97
2.49
0.36
-4.16
-10.11
-15.98
-20.03
-20.77
-17.35
-9.68
1.62
15.47
30.64
45.88
60.06
72.17
81.46
87.52
90.46
90.90
89.88
88.51
87.64
87.56
88.02
88.35
87.80
85.91
82.53
77.89
72.37
66.38
60.23
54.08
47.94
41.66
34.98
27.66
19.60
11.03
2.39
-5.83
-13.42
-20.64
-28.07
-36.18
-44.93
-53.57
-60.91
-65.88
-68.12
-68.23
-67.52
-67.46
-69.12
-72.82
-78.08
-83.85
-88.79
-91.63
-91.34
-87.42
-79.97
-69.73
-57.87
-45.68
-34.26
-24.33
-16.23
-10.03
-5.65
-2.98
-1.85
-2.00
-3.05
-4.57
-6.09
-7.29
-7.97
-8.14
-7.89
-7.37
-6.66
-5.79
-4.75
-3.62
-2.57
-1.78
-1.42
-1.55
-2.10
-3.03
-4.32
-6.08
-8.48
-11.59
-15.27
-19.20
-22.96
-26.24
-29.03
-31.65
-34.62
-38.35
-42.87
-47.69
-51.84
-54.18
-53.74
-50.09
-43.43
-34.47
-24.25
-13.79
-3.87
4.93
12.30
18.02
21.96
24.13
24.65
23.80
22.03
19.87
17.78
16.09
14.91
14.13
13.52
12.92
12.33
11.92
11.88
12.29
12.97
13.45
13.19
11.76
8.97
4.96
0.07
-5.27
-10.65
-15.75
-20.37
-24.49
-28.21
-31.88
-35.93
-40.83
-46.79
-53.63
-60.57
-66.38
-69.64
-69.08
-64.14
-55.00
-42.61
-28.39
-13.77
0.05
12.30
22.60
30.84
37.07
41.41
44.05
45.19
45.13
44.12
42.49
40.48
38.32
36.21
34.32
32.74
31.52
30.59
29.83
29.02
28.00
26.66
24.96
22.95
20.67
18.13
15.30
12.16
8.72
5.08
1.37
-2.27
-5.71
-8.92
-11.97
-15.06
-18.48
-22.59
-27.65
-33.63
-40.14
-46.28
-50.81
-52.35
-49.85
-42.86
-31.82
-17.99
-3.17
10.85
22.68
31.68
37.92
41.90
44.22
45.34
45.49
44.84
43.55
41.90
40.16
38.56
37.14
35.79
34.39
32.89
31.37
29.98
28.88
28.11
27.56
27.04
26.29
25.10
23.33
20.97
18.08
14.80
11.25
7.51
3.56
-0.59
-4.94
-9.40
-13.85
-18.27
-22.79
-27.65
-33.08
-39.02
-44.94
-49.83
-52.44
-51.68
-46.99
-38.59
-27.37
-14.64
-1.75
10.16
20.28
28.13
33.52
36.48
37.23
36.22
34.01
31.23
28.42
25.94
23.92
22.29
20.92
19.67
18.51
17.49
16.71
16.27
16.14
16.17
16.11
15.63
14.42
12.27
9.13
5.14
0.65
-3.87
-8.03
-11.61
-14.72
-17.70
-21.03
-25.14
-30.19
-36.00
-41.97
-47.14
-50.35
-50.53
-46.95
-39.46
-28.65
-15.68
-2.00
10.96
22.15
31.00
37.40
41.51
43.64
44.08
43.12
41.07
38.28
35.16
32.11
29.47
27.39
25.88
24.83
24.10
23.61
23.32
23.19
23.12
22.93
22.40
21.31
19.54
17.06
13.93
10.33
6.43
2.40
-1.69
-5.84
-10.04
-14.26
-18.40
-22.29
-25.82
-29.08
-32.38
-36.17
-40.82
-46.32
-52.07
-56.99
-59.79
-59.31
-54.96
-46.84
-35.75
-22.88
-9.58
2.99
13.94
22.81
29.45
33.94
36.51
37.51
37.32
36.33
34.85
33.11
31.23
29.27
27.29
25.42
23.82
22.70
22.20
22.33
22.94
23.75
24.42
24.55
23.88
22.29
19.83
16.77
13.51
10.39
7.61
5.11
2.61
-0.26
-3.75
-7.90
-12.47
-17.07
-21.33
-25.04
-28.21
-31.12
-34.15
-37.73
-42.08
-47.06
-52.09
-56.17
-58.11
-56.85
-51.77
-43.01
-31.39
-18.30
-5.24
6.50
16.13
23.38
28.36
31.42
32.93
33.23
32.60
31.30
29.58
27.69
25.83
24.13
22.61
21.28
20.17
19.36
18.93
18.89
19.15
19.44
19.42
18.78
17.37
15.22
12.60
9.86
7.24
4.84
2.53
0.06
-2.77
-6.05
-9.65
-13.30
-16.73
-19.71
-22.20
-24.33
-26.39
-28.75
-31.76
-35.58
-40.10
-44.70
-48.45
-50.23
-49.02
-44.30
-36.19
-25.46
-13.36
-1.28
9.59
18.43
24.91
29.09
31.29
31.91
31.34
29.84
27.67
25.03
22.25
19.70
17.71
16.49
16.06
16.23
16.74
17.29
17.65
17.64
17.18
16.24
14.84
13.11
11.16
9.01
6.60
3.78
0.44
-3.40
-7.49
-11.49
-15.10
-18.18
-20.83
-23.33
-26.04
-29.26
-33.20
-37.93
-43.31
-48.92
-53.98
-57.46
-58.25
-55.54
-49.06
-39.25
-27.15
-14.06
-1.26
10.28
19.99
27.58
32.97
36.23
37.51
37.09
35.42
33.02
30.40
27.94
25.82
24.09
22.68
21.58
20.76
20.26
20.08
20.14
20.27
20.26
19.88
18.98
17.52
15.60
13.39
11.10
8.83
6.52
4.02
1.13
-2.26
-6.08
-10.15
-14.23
-18.14
-21.83
-25.38
-28.95
-32.79
-37.17
-42.25
-47.89
-53.51
-58.00
-60.02
-58.39
-52.54
-42.79
-30.21
-16.30
-2.56
9.80
20.03
27.77
32.95
35.74
36.54
35.89
34.36
32.45
30.46
28.53
26.67
24.90
23.27
21.88
20.86
20.26
20.07
20.18
20.36
20.36
19.96
19.01
17.50
15.53
13.26
10.84
8.41
5.99
3.53
0.90
-2.05
-5.43
-9.27
-13.48
-17.83
-22.06
-25.97
-29.52
-32.87
-36.34
-40.24
-44.65
-49.32
-53.53
-56.24
-56.35
-53.07
-46.13
-36.02
-23.82
-10.91
1.34
11.93
20.30
26.32
30.12
31.94
32.04
30.74
28.45
25.64
22.76
20.18
18.08
16.44
15.14
14.09
13.26
12.68
12.38
12.35
12.46
12.56
12.52
12.23
11.61
10.55
8.90
6.52
3.38
-0.39
-4.46
-8.45
-12.11
-15.35
-18.36
-21.49
-25.10
-29.44
-34.46
-39.74
-44.48
-47.63
-48.13
-45.22
-38.66
-28.86
-16.86
-4.01
8.33
19.06
27.53
33.50
37.08
38.52
38.20
36.54
34.03
31.13
28.26
25.69
23.56
21.84
20.45
19.29
18.32
17.53
16.88
16.33
15.80
15.21
14.46
13.41
11.93
9.86
7.12
3.68
-0.31
-4.64
-9.11
-13.53
-17.79
-21.89
-25.86
-29.77
-33.74
-37.96
-42.56
-47.61
-52.99
-58.18
-62.34
-64.38
-63.24
-58.21
-49.23
-36.97
-22.67
-7.88
5.97
17.78
26.97
33.39
37.27
39.05
39.22
38.29
36.65
34.57
32.28
29.97
27.84
26.05
24.68
23.64
22.76
21.82
20.72
19.51
18.37
17.45
16.70
15.84
14.44
12.09
8.64
4.28
-0.55
-5.24
-9.38
-12.80
-15.64
-18.27
-21.17
-24.74
-29.27
-34.79
-41.03
-47.33
-52.73
-56.00
-56.03
-52.09
-44.15
-32.96
-19.88
-6.49
5.84
16.27
24.52
30.65
34.85
37.24
37.89
36.92
34.68
31.72
28.63
25.89
23.67
21.92
20.45
19.10
17.88
16.87
16.20
15.83
15.59
15.20
14.37
12.89
10.70
7.85
4.45
0.68
-3.28
-7.21
-10.89
-14.18
-17.10
-19.83
-22.74
-26.24
-30.59
-35.75
-41.18
-46.00
-49.06
-49.30
-46.07
-39.28
-29.47
-17.70
-5.19
6.85
17.54
26.29
32.86
37.16
39.25
39.25
37.44
34.29
30.41
26.51
23.21
20.86
19.48
18.78
18.31
17.70
16.76
15.61
14.46
13.54
12.81
12.02
10.74
8.65
5.64
1.92
-2.10
-6.00
-9.49
-12.58
-15.45
-18.48
-21.99
-26.30
-31.59
-37.85
-44.70
-51.38
-56.65
-59.14
-57.65
-51.65
-41.43
-28.16
-13.46
0.94
13.73
24.12
31.91
37.20
40.28
41.47
41.11
39.58
37.32
34.77
32.28
30.10
28.30
26.86
25.68
24.71
23.92
23.21
22.51
21.68
20.61
19.27
17.67
15.88
13.90
11.66
9.02
5.87
2.22
-1.81
-6.01
-10.16
-14.17
-18.02
-21.74
-25.40
-29.06
-32.84
-36.98
-41.70
-47.02
-52.50
-57.15
-59.61
-58.54
-53.15
-43.55
-30.79
-16.49
-2.34
10.34
20.80
28.80
34.41
37.84
39.35
39.24
37.95
35.97
33.82
31.88
30.26
28.91
27.66
26.37
25.07
23.89
23.04
22.65
22.67
22.83
22.81
22.28
21.08
19.22
16.86
14.18
11.32
8.33
5.22
1.98
-1.41
-4.98
-8.74
-12.66
-16.63
-20.45
-23.94
-26.95
-29.55
-32.07
-35.01
-38.81
-43.62
-49.04
-54.10
-57.45
-57.77
-54.21
-46.64
-35.79
-22.94
-9.64
2.77
13.33
21.57
27.38
30.92
32.50
32.49
31.31
29.40
27.14
24.87
22.79
20.98
19.51
18.34
17.49
16.96
16.73
16.75
16.91
17.01
16.88
16.33
15.30
13.79
11.88
9.60
6.94
3.85
0.34
-3.48
-7.38
-11.11
-14.51
-17.58
-20.41
-23.13
-25.87
-28.70
-31.75
-35.14
-38.83
-42.44
-45.19
-45.94
-43.66
-37.79
-28.56
-16.98
-4.50
7.41
17.68
25.75
31.51
35.07
36.63
36.41
34.66
31.72
28.10
24.34
20.93
18.23
16.42
15.50
15.33
15.69
16.32
16.96
17.35
17.29
16.70
15.62
14.17
12.52
10.79
8.97
6.93
4.49
1.51
-2.07
-6.11
-10.39
-14.63
-18.64
-22.33
-25.74
-29.05
-32.51
-36.40
-40.93
-46.06
-51.39
-56.05
-58.87
-58.69
-54.74
-46.95
-36.05
-23.28
-10.16
2.02
12.36
20.41
26.11
29.67
31.42
31.78
31.15
29.91
28.32
26.55
24.75
23.02
21.51
20.36
19.61
19.22
19.09
19.07
19.05
18.93
18.61
18.04
17.10
15.73
13.89
11.58
8.86
5.79
2.42
-1.16
-4.87
-8.64
-12.39
-16.08
-19.71
-23.30
-26.91
-30.64
-34.69
-39.22
-44.24
-49.41
-53.92
-56.64
-56.38
-52.39
-44.62
-33.79
-21.15
-8.11
4.13
14.77
23.43
29.97
34.36
36.68
37.13
36.11
34.15
31.83
29.59
27.66
26.09
24.78
23.62
22.64
21.88
21.42
21.25
21.26
21.22
20.86
19.99
18.51
16.50
14.13
11.58
8.98
6.30
3.39
0.08
-3.66
-7.72
-11.88
-15.86
-19.49
-22.74
-25.77
-28.81
-32.11
-35.89
-40.21
-44.90
-49.41
-52.88
-54.26
-52.66
-47.61
-39.28
-28.47
-16.36
-4.20
6.93
16.28
23.45
28.34
31.07
31.85
30.97
28.81
25.75
22.24
18.71
15.56
13.07
11.36
10.43
10.10
10.20
10.53
10.92
11.22
11.30
11.02
10.26
8.96
7.09
4.72
1.96
-1.03
-4.08
-7.07
-9.95
-12.78
-15.73
-19.04
-23.00
-27.77
-33.23
-38.88
-43.76
-46.70
-46.58
-42.78
-35.38
-25.16
-13.38
-1.40
9.68
19.16
26.74
32.34
36.00
37.79
37.86
36.49
34.09
31.13
28.05
25.22
22.81
20.90
19.52
18.68
18.39
18.62
19.29
20.20
21.11
21.75
21.92
21.51
20.49
18.88
16.73
14.10
11.14
8.01
4.90
1.99
-0.69
-3.24
-5.85
-8.72
-11.97
-15.55
-19.25
-22.77
-25.88
-28.51
-30.73
-32.83
-35.16
-38.05
-41.79
-46.46
-51.85
-57.39
-62.13
-64.84
-64.31
-59.75
-51.09
-39.11
-25.23
-11.05
2.06
13.24
22.19
28.95
33.70
36.60
37.79
37.43
35.82
33.36
30.54
27.80
25.43
23.59
22.25
21.30
20.57
19.91
19.27
18.64
18.07
17.55
16.96
16.07
14.58
12.27
9.08
5.16
0.83
-3.55
-7.72
-11.60
-15.21
-18.68
-22.17
-25.86
-30.00
-34.82
-40.44
-46.59
-52.52
-56.98
-58.58
-56.26
-49.67
-39.41
-26.79
-13.44
-0.78
10.28
19.34
26.41
31.61
35.07
36.88
37.21
36.32
34.63
32.62
30.64
28.87
27.30
25.82
24.34
22.88
21.54
20.42
19.53
18.78
18.02
17.12
16.00
14.58
12.77
10.42
7.49
4.06
0.39
-3.22
-6.60
-9.75
-12.88
-16.28
-20.12
-24.46
-29.30
-34.59
-40.23
-45.82
-50.55
-53.29
-52.92
-48.69
-40.66
-29.65
-17.04
-4.30
7.37
17.22
24.93
30.51
34.09
35.87
36.07
34.96
32.88
30.24
27.52
25.14
23.36
22.20
21.46
20.81
20.03
19.08
18.13
17.34
16.78
16.24
15.36
13.75
11.24
7.96
4.20
0.34
-3.40
-6.97
-10.44
-13.91
-17.44
-21.08
-24.96
-29.26
-34.09
-39.28
-44.22
-47.88
-49.13
-47.04
-41.27
-32.15
-20.64
-8.06
4.29
15.27
24.18
30.72
34.99
37.30
38.05
37.64
36.36
34.43
32.04
29.41
26.75
24.32
22.31
20.85
19.97
19.59
19.51
19.46
19.16
18.38
17.05
15.20
12.98
10.55
8.03
5.47
2.80
-0.06
-3.20
-6.70
-10.50
-14.48
-18.39
-22.01
-25.16
-27.90
-30.50
-33.45
-37.23
-42.08
-47.76
-53.44
-57.81
-59.47
-57.31
-50.96
-40.91
-28.36
-14.77
-1.53
10.36
20.34
28.19
33.82
37.26
38.70
38.47
37.10
35.19
33.17
31.25
29.37
27.37
25.13
22.74
20.49
18.74
17.82
17.80
18.49
19.46
20.16
20.11
19.06
17.00
14.22
11.11
8.00
5.02
2.08
-1.02
-4.52
-8.46
-12.73
-17.03
-21.03
-24.53
-27.51
-30.23
-33.12
-36.63
-40.97
-45.95
-50.85
-54.55
-55.84
-53.74
-47.87
-38.53
-26.66
-13.54
-0.55
11.12
20.63
27.55
31.88
33.87
34.07
33.00
31.18
28.98
26.64
24.34
22.20
20.35
18.86
17.75
16.93
16.33
15.84
15.46
15.19
15.01
14.84
14.47
13.72
12.43
10.61
8.32
5.71
2.87
-0.17
-3.42
-6.85
-10.37
-13.81
-17.02
-19.95
-22.69
-25.48
-28.61
-32.35
-36.73
-41.47
-45.86
-48.86
-49.39
-46.67
-40.49
-31.33
-20.21
-8.39
2.98
13.08
21.47
27.96
32.48
35.08
35.84
34.97
32.81
29.78
26.36
23.00
20.04
17.75
16.21
15.37
15.03
14.93
14.83
14.55
14.01
13.16
11.96
10.33
8.21
5.57
2.47
-0.98
-4.62
-8.31
-11.96
-15.49
-18.91
-22.24
-25.58
-29.10
-33.00
-37.49
-42.56
-47.83
-52.56
-55.68
-56.12
-53.08
-46.36
-36.45
-24.40
-11.55
0.79
11.63
20.43
27.04
31.58
34.31
35.53
35.49
34.44
32.62
30.28
27.70
25.14
22.85
21.02
19.75
19.01
18.63
18.34
17.87
17.10
16.04
14.82
13.58
12.28
10.72
8.61
5.72
2.09
-2.02
-6.24
-10.24
-13.90
-17.25
-20.45
-23.62
-26.91
-30.50
-34.65
-39.56
-45.17
-50.93
-55.75
-58.28
-57.28
-52.13
-43.06
-31.04
-17.54
-4.01
8.37
18.88
27.22
33.33
37.33
39.45
39.98
39.34
37.97
36.29
34.56
32.91
31.32
29.75
28.20
26.73
25.46
24.44
23.65
22.91
22.06
20.92
19.41
17.52
15.28
12.73
9.92
6.90
3.71
0.35
-3.22
-7.04
-11.08
-15.19
-19.14
-22.67
-25.68
-28.29
-30.84
-33.81
-37.58
-42.21
-47.35
-52.15
-55.45
-56.07
-53.12
-46.28
-36.01
-23.42
-10.04
2.63
13.43
21.78
27.63
31.29
33.17
33.70
33.19
31.89
30.06
27.96
25.84
23.85
22.06
20.52
19.21
18.11
17.21
16.43
15.75
15.10
14.43
13.71
12.87
11.77
10.23
8.08
5.31
2.05
-1.41
-4.75
-7.79
-10.51
-13.05
-15.62
-18.42
-21.61
-25.30
-29.56
-34.31
-39.17
-43.36
-45.84
-45.54
-41.72
-34.33
-24.01
-11.92
0.54
12.16
22.06
29.75
35.09
38.14
39.17
38.50
36.57
33.75
30.43
26.92
23.51
20.49
18.10
16.48
15.64
15.45
15.69
16.06
16.28
16.11
15.36
13.96
11.93
9.40
6.54
3.49
0.28
-3.13
-6.84
-10.86
-15.11
-19.38
-23.44
-27.10
-30.37
-33.45
-36.74
-40.66
-45.44
-50.90
-56.36
-60.66
-62.47
-60.69
-54.83
-45.16
-32.67
-18.77
-4.89
7.80
18.57
27.17
33.64
38.28
41.43
43.33
43.92
42.89
39.71
33.94
25.49
14.80
2.87
-8.96
-19.42
-27.58
-32.98
-35.57
-35.47
-32.86
-28.04
-21.53
-14.27
-7.53
-2.59
-0.43
-1.34
-4.86
-9.98
-15.50
-20.34
-23.82
-25.64
-25.87
-24.77
-22.77
-20.45
-18.46
-17.41
-17.67
-19.11
-20.97
-21.99
-20.71
-15.93
-7.09
5.47
20.73
37.25
53.64
68.79
81.92
92.60
100.56
105.77
108.47
109.25
108.87
108.10
107.37
106.58
105.11
102.13
97.01
89.65
80.58
70.77
61.25
52.83
45.96
40.87
37.71
36.59
37.40
39.54
41.74
42.29
39.62
32.82
21.93
7.75
-8.65
-26.28
-44.43
-62.44
-79.74
-95.93
-111.16
-126.16
-142.02
-159.27
-176.95
-192.31
-201.25
-199.62
-184.70
-156.21
-116.68
-71.11
-25.97
12.06
37.42
47.14
41.68
25.05
3.83
-14.69
-24.74
-23.66
-12.35
5.47
24.83
41.10
50.99
52.92
46.96
34.45
17.72
-0.25
-16.43
-28.15
-33.79
-33.15
-27.36
-18.55
-9.09
-1.04
4.35
6.80
6.81
5.32
3.21
0.95
-1.41
-4.06
-6.96
-9.55
-10.79
-9.55
-5.08
2.59
12.61
23.57
33.84
41.96
46.95
48.44
46.83
43.10
38.53
34.21
30.60
27.46
24.14
20.17
15.79
11.99
10.20
11.55
16.33
23.78
32.36
40.40
46.57
50.13
50.76
48.30
42.50
33.26
20.93
6.58
-8.05
-21.07
-30.96
-36.98
-39.16
-37.97
-34.09
-28.39
-22.11
-16.78
-13.77
-13.47
-14.68
-14.79
-10.69
-0.20
16.83
38.35
60.91
81.03
96.40
106.35
111.57
113.54
113.82
113.70
114.20
115.97
119.34
124.17
129.87
135.27
138.90
139.11
134.24
122.83
103.77
76.61
41.93
1.62
-41.15
-82.24
-117.06
-141.46
-152.49
-149.27
-133.37
-108.68
-80.84
-56.08
-39.88
-35.75
-44.35
-63.32
-87.83
-111.81
-129.56
-137.17
-133.57
-120.24
-100.33
-77.14
-53.05
-29.28
-6.61
13.89
30.56
41.84
47.60
49.73
51.63
56.49
65.20
75.31
81.83
79.61
66.04
42.60
14.30
-12.78
-34.47
-50.42
-63.92
-79.84
-101.99
-131.16
-164.82
-198.29
-226.44
-244.94
-250.95
-243.06
-221.47
-188.39
-148.67
-109.67
-79.91
-66.39
-71.79
-92.78
-120.78
-144.77
-155.04
-146.18
-118.30
-76.21
-27.33
20.58
61.13
90.30
106.68
111.29
107.05
97.85
87.44
78.58
72.61
69.71
69.42
71.07
73.86
76.77
78.50
77.78
73.78
66.61
57.25
47.30
38.46
32.03
28.67
28.27
30.10
33.00
35.62
36.61
34.81
29.44
20.29
7.87
-6.67
-21.61
-34.96
-44.80
-49.55
-48.33
-41.16
-29.00
-13.55
3.14
19.21
33.39
45.21
54.85
62.78
69.38
74.82
79.10
82.27
84.47
85.94
86.85
87.17
86.74
85.41
83.12
79.93
75.84
70.76
64.55
57.23
49.26
41.56
35.26
31.25
29.73
30.13
31.26
31.91
31.21
28.90
25.23
20.56
15.15
9.08
2.38
-4.77
-11.96
-18.66
-24.50
-29.46
-33.85
-38.16
-42.65
-47.09
-50.75
-52.57
-51.62
-47.41
-40.08
-30.39
-19.50
-8.75
0.64
7.79
12.22
13.95
13.33
10.96
7.53
3.69
0.06
-2.87
-4.80
-5.72
-5.87
-5.72
-5.78
-6.42
-7.71
-9.45
-11.32
-13.01
-14.34
-15.22
-15.71
-15.90
-16.00
-16.24
-16.84
-17.96
-19.60
-21.69
-24.11
-26.76
-29.57
-32.49
-35.41
-38.22
-40.81
-43.23
-45.68
-48.45
-51.74
-55.41
-58.89
-61.22
-61.34
-58.42
-52.14
-42.92
-31.73
-19.96
-8.95
0.20
6.91
11.09
13.11
13.61
13.36
13.04
13.14
13.91
15.36
17.34
19.61
21.84
23.73
25.02
25.54
25.28
24.29
22.68
20.48
17.69
14.30
10.41
6.29
2.38
-0.92
-3.36
-4.96
-6.03
-7.01
-8.32
-10.25
-12.87
-16.06
-19.60
-23.32
-27.05
-30.75
-34.37
-37.70
-40.34
-41.68
-41.07
-38.07
-32.60
-25.01
-16.03
-6.57
2.48
10.37
16.57
20.79
23.00
23.38
22.36
20.54
18.62
17.28
17.04
18.06
20.12
22.58
24.59
25.40
24.62
22.42
19.41
16.28
13.53
11.33
9.52
7.95
6.58
5.47
4.69
4.06
3.20
1.60
-1.02
-4.60
-8.72
-12.78
-16.29
-19.03
-21.10
-22.90
-24.93
-27.65
-31.30
-35.72
-40.31
-44.05
-45.77
-44.52
-39.85
-32.03
-21.89
-10.64
0.50
10.59
19.06
25.66
30.36
33.30
34.68
34.78
33.91
32.42
30.59
28.63
26.68
24.79
22.97
21.30
19.81
18.61
17.76
17.27
17.07
17.02
16.93
16.61
15.92
14.84
13.42
11.77
9.95
7.95
5.64
2.92
-0.29
-3.95
-7.89
-11.88
-15.71
-19.27
-22.55
-25.67
-28.86
-32.42
-36.57
-41.36
-46.46
-51.12
-54.28
-54.86
-52.09
-45.78
-36.41
-24.95
-12.54
-0.28
10.97
20.59
28.19
33.64
36.97
38.49
38.62
37.81
36.39
34.62
32.60
30.45
28.37
26.59
25.31
24.54
24.15
23.85
23.33
22.42
21.13
19.62
18.12
16.75
15.43
13.98
12.10
9.60
6.40
2.64
-1.48
-5.66
-9.72
-13.54
-17.11
-20.51
-23.86
-27.30
-31.05
-35.27
-39.95
-44.80
-49.11
-51.97
-52.36
-49.57
-43.44
-34.48
-23.68
-12.27
-1.39
8.20
16.11
22.28
26.77
29.64
30.90
30.59
28.87
26.13
22.94
19.91
17.47
15.81
14.80
14.19
13.70
13.20
12.73
12.38
12.20
12.13
11.98
11.49
10.42
8.65
6.18
3.13
-0.32
-4.00
-7.75
-11.48
-15.13
-18.66
-22.12
-25.70
-29.71
-34.47
-40.06
-46.12
-51.77
-55.72
-56.66
-53.72
-46.75
-36.36
-23.77
-10.38
2.52
13.98
23.46
30.73
35.80
38.82
40.04
39.77
38.33
36.11
33.49
30.79
28.28
26.10
24.29
22.80
21.59
20.58
19.78
19.19
18.80
18.53
18.18
17.50
16.18
13.99
10.88
6.97
2.57
-1.96
-6.25
-10.14
-13.60
-16.79
-19.98
-23.48
-27.59
-32.51
-38.21
-44.28
-49.93
-54.10
-55.65
-53.69
-47.91
-38.64
-26.81
-13.68
-0.57
11.44
21.59
29.56
35.30
38.99
40.93
41.47
40.96
39.65
37.79
35.55
33.15
30.78
28.63
26.83
25.44
24.41
23.65
23.07
22.53
21.86
20.88
19.38
17.18
14.22
10.61
6.64
2.61
-1.20
-4.62
-7.67
-10.52
-13.37
-16.46
-19.94
-23.96
-28.56
-33.62
-38.79
-43.41
-46.62
-47.49
-45.32
-39.83
-31.33
-20.64
-8.90
2.66
13.05
21.58
28.00
32.36
34.94
36.06
35.99
34.93
33.03
30.54
27.76
25.07
22.79
21.02
19.68
18.56
17.52
16.55
15.74
15.18
14.83
14.40
13.49
11.74
9.00
5.41
1.35
-2.76
-6.57
-9.95
-12.99
-15.93
-19.12
-22.92
-27.60
-33.19
-39.38
-45.44
-50.28
-52.66
-51.56
-46.45
-37.57
-25.79
-12.48
0.90
13.06
23.12
30.65
35.67
38.45
39.45
39.11
37.85
36.02
33.89
31.69
29.58
27.65
25.92
24.37
22.97
21.69
20.56
19.61
18.88
18.31
17.75
16.93
15.53
13.27
10.07
6.02
1.40
-3.44
-8.19
-12.71
-16.95
-21.01
-25.06
-29.27
-33.86
-38.97
-44.52
-50.06
-54.73
-57.36
-56.87
-52.59
-44.55
-33.48
-20.62
-7.31
5.26
16.29
25.33
32.26
37.11
40.04
41.24
40.95
39.46
37.13
34.34
31.49
28.90
26.73
25.00
23.49
22.02
20.46
18.87
17.41
16.26
15.42
14.73
13.87
12.48
10.36
7.42
3.77
-0.38
-4.80
-9.25
-13.56
-17.61
-21.37
-24.96
-28.67
-32.86
-37.77
-43.35
-49.12
-54.17
-57.34
-57.61
-54.32
-47.44
-37.54
-25.66
-13.02
-0.76
10.20
19.25
26.06
30.55
32.85
33.26
32.20
30.17
27.63
24.97
22.44
20.15
18.08
16.16
14.37
12.75
11.42
10.53
10.14
10.17
10.37
10.36
9.73
8.24
5.87
2.80
-0.61
-4.03
-7.25
-10.23
-13.10
-16.05
-19.30
-23.05
-27.35
-32.04
-36.70
-40.59
-42.78
-42.36
-38.73
-31.84
-22.24
-10.99
0.65
11.49
20.65
27.65
32.32
34.79
35.30
34.22
31.99
29.11
26.11
23.45
21.37
19.89
18.81
17.86
16.86
15.76
14.66
13.69
12.88
12.14
11.28
10.09
8.40
6.15
3.31
-0.03
-3.75
-7.69
-11.61
-15.39
-19.02
-22.73
-26.92
-31.93
-37.77
-43.92
-49.34
-52.72
-52.86
-49.07
-41.38
-30.54
-17.70
-4.20
8.76
20.24
29.63
36.59
41.04
43.13
43.23
41.77
39.26
36.18
32.93
29.83
27.06
24.67
22.60
20.71
18.91
17.15
15.49
13.99
12.70
11.58
10.53
9.38
7.91
5.94
3.30
-0.02
-3.88
-8.02
-12.09
-15.87
-19.30
-22.53
-25.88
-29.71
-34.31
-39.77
-45.86
-51.95
-57.06
-60.00
-59.72
-55.53
-47.48
-36.27
-23.15
-9.58
3.13
14.02
22.60
28.79
32.80
34.96
35.64
35.17
33.87
32.01
29.83
27.56
25.37
23.40
21.74
20.44
19.50
18.85
18.34
17.81
17.11
16.18
15.00
13.54
11.80
9.71
7.24
4.42
1.31
-1.98
-5.31
-8.63
-11.90
-15.12
-18.36
-21.79
-25.58
-29.97
-35.08
-40.76
-46.50
-51.47
-54.60
-54.88
-51.67
-44.85
-34.98
-23.12
-10.64
1.17
11.35
19.39
25.22
29.03
31.10
31.71
31.14
29.68
27.71
25.59
23.62
21.92
20.45
19.11
17.84
16.68
15.80
15.33
15.31
15.58
15.80
15.60
14.61
12.62
9.62
5.78
1.48
-2.91
-6.98
-10.53
-13.57
-16.37
-19.37
-23.08
-27.88
-33.78
-40.29
-46.44
-50.93
-52.47
-50.16
-43.80
-33.92
-21.68
-8.55
4.09
15.17
24.07
30.59
34.80
36.92
37.29
36.28
34.32
31.77
28.96
26.16
23.53
21.18
19.13
17.40
15.99
14.93
14.25
13.95
13.96
14.11
14.08
13.54
12.18
9.80
6.43
2.28
-2.28
-6.86
-11.15
-15.05
-18.59
-21.99
-25.48
-29.35
-33.84
-39.07
-44.93
-50.95
-56.28
-59.74
-60.15
-56.63
-49.01
-37.84
-24.35
-10.05
3.59
15.44
24.82
31.54
35.76
37.86
38.34
37.66
36.21
34.32
32.25
30.25
28.44
26.92
25.64
24.52
23.48
22.50
21.58
20.77
20.02
19.25
18.30
17.02
15.32
13.18
10.65
7.84
4.81
1.59
-1.85
-5.59
-9.63
-13.85
-18.05
-21.96
-25.42
-28.54
-31.67
-35.36
-40.03
-45.75
-52.00
-57.70
-61.42
-61.82
-58.05
-50.06
-38.58
-24.97
-10.79
2.58
14.16
23.49
30.47
35.22
37.95
38.88
38.34
36.69
34.40
31.90
29.55
27.53
25.84
24.31
22.81
21.27
19.77
18.51
17.64
17.19
17.00
16.79
16.27
15.27
13.74
11.70
9.19
6.22
2.78
-1.08
-5.21
-9.40
-13.44
-17.24
-20.85
-24.49
-28.46
-32.98
-38.09
-43.49
-48.52
-52.18
-53.35
-51.12
-45.08
-35.53
-23.47
-10.31
2.48
13.75
22.80
29.43
33.73
35.92
36.22
34.86
32.13
28.51
24.58
20.92
17.94
15.77
14.27
13.21
12.42
11.91
11.76
12.07
12.73
13.41
13.69
13.14
11.57
8.97
5.56
1.64
-2.50
-6.64
-10.63
-14.41
-18.00
-21.58
-25.42
-29.88
-35.17
-41.18
-47.28
-52.42
-55.28
-54.77
-50.32
-42.17
-31.17
-18.62
-5.80
6.23
16.75
25.32
31.67
35.71
37.51
37.37
35.77
33.31
30.56
27.94
25.71
23.94
22.56
21.37
20.19
18.88
17.40
15.85
14.43
13.26
12.36
11.54
10.49
8.87
6.45
3.20
-0.71
-5.03
-9.47
-13.82
-17.94
-21.85
-25.68
-29.67
-34.16
-39.39
-45.38
-51.69
-57.44
-61.36
-62.24
-59.25
-52.26
-41.91
-29.35
-15.94
-2.91
8.82
18.71
26.46
31.95
35.26
36.60
36.36
35.02
33.05
30.85
28.71
26.79
25.12
23.66
22.36
21.17
20.09
19.15
18.37
17.70
16.95
15.85
14.14
11.68
8.50
4.79
0.80
-3.18
-6.96
-10.44
-13.66
-16.80
-20.14
-24.04
-28.83
-34.57
-40.95
-47.17
-52.07
-54.40
-53.17
-48.00
-39.24
-27.87
-15.18
-2.45
9.30
19.37
27.42
33.28
36.94
38.55
38.40
36.90
34.57
31.89
29.28
26.98
25.05
23.41
21.87
20.24
18.45
16.53
14.71
13.17
12.04
11.20
10.36
9.17
7.36
4.87
1.83
-1.52
-4.95
-8.36
-11.77
-15.35
-19.33
-23.98
-29.44
-35.55
-41.73
-46.97
-50.08
-49.93
-45.90
-38.11
-27.37
-15.04
-2.52
9.01
18.78
26.43
31.86
35.13
36.34
35.69
33.55
30.43
26.89
23.43
20.36
17.76
15.56
13.70
12.15
10.98
10.25
9.92
9.81
9.62
8.98
7.57
5.23
2.03
-1.79
-5.82
-9.72
-13.24
-16.41
-19.54
-23.09
-27.52
-33.00
-39.25
-45.44
-50.39
-52.79
-51.69
-46.68
-38.08
-26.80
-14.10
-1.31
10.45
20.40
28.12
33.50
36.68
37.91
37.55
35.97
33.56
30.72
27.77
24.93
22.32
19.93
17.71
15.65
13.84
12.41
11.49
11.05
10.87
10.58
9.72
7.97
5.20
1.52
-2.72
-7.16
-11.47
-15.53
-19.45
-23.53
-28.15
-33.62
-39.96
-46.76
-53.16
-57.89
-59.60
-57.29
-50.64
-40.16
-27.10
-13.05
0.50
12.47
22.32
29.98
35.55
39.24
41.21
41.67
40.94
39.43
37.54
35.58
33.66
31.71
29.59
27.23
24.67
22.14
19.92
18.23
17.13
16.42
15.65
14.37
12.16
8.95
4.91
0.47
-3.90
-7.86
-11.31
-14.46
-17.70
-21.52
-26.34
-32.28
-39.05
-45.84
-51.45
-54.55
-54.08
-49.54
-41.23
-30.13
-17.59
-5.02
6.47
16.17
23.78
29.32
33.04
35.26
36.28
36.36
35.70
34.47
32.82
30.98
29.15
27.51
26.11
24.93
23.85
22.80
21.78
20.87
20.12
19.52
18.89
17.98
16.54
14.42
11.63
8.31
4.63
0.81
-3.00
-6.71
-10.30
-13.80
-17.32
-21.06
-25.25
-30.01
-35.18
-40.24
-44.26
-46.15
-44.97
-40.28
-32.36
-22.17
-11.06
-0.40
8.80
15.99
21.06
24.14
25.45
25.31
24.18
22.72
21.68
21.67
22.94
25.19
27.70
29.70
30.66
30.54
29.73
28.79
28.11
27.77
27.53
27.04
25.96
24.14
21.51
18.08
13.89
9.03
3.68
-1.85
-7.26
-12.29
-16.87
-21.13
-25.41
-30.06
-35.32
-41.13
-47.01
-52.08
-55.28
-55.67
-52.72
-46.58
-37.98
-28.09
-18.12
-9.05
-1.45
4.52
8.95
12.07
14.12
15.30
15.82
15.84
15.50
14.92
14.13
13.16
11.96
10.52
8.86
7.09
5.40
4.02
3.07
2.51
2.11
1.53
0.43
-1.38
-3.88
-6.82
-9.89
-12.83
-15.49
-17.93
-20.29
-22.82
-25.78
-29.40
-33.78
-38.70
-43.60
-47.59
-49.63
-48.81
-44.71
-37.55
-28.13
-17.64
-7.30
1.89
9.36
14.96
18.76
20.97
21.78
21.39
20.01
17.95
15.56
13.18
11.07
9.27
7.71
6.24
4.77
3.30
1.97
0.84
-0.07
-0.92
-1.95
-3.39
-5.28
-7.50
-9.76
-11.78
-13.39
-14.73
-16.15
-18.14
-21.17
-25.44
-30.75
-36.42
-41.35
-44.27
-44.12
-40.34
-33.15
-23.42
-12.47
-1.62
8.11
16.17
22.38
26.86
29.71
31.05
30.99
29.68
27.41
24.53
21.40
18.31
15.45
12.90
10.70
8.89
7.50
6.55
5.92
5.37
4.59
3.30
1.34
-1.23
-4.16
-7.18
-10.10
-12.92
-15.87
-19.30
-23.51
-28.53
-34.04
-39.26
-43.14
-44.56
-42.63
-36.91
-27.61
-15.56
-2.06
11.39
23.39
32.87
39.33
42.80
43.73
42.81
40.73
37.99
34.84
31.36
27.56
23.53
19.48
15.71
12.55
10.18
8.64
7.70
7.02
6.20
4.93
3.07
0.62
-2.27
-5.41
-8.67
-11.93
-15.20
-18.53
-22.08
-26.09
-30.81
-36.30
-42.27
-47.96
-52.17
-53.65
-51.42
-45.21
-35.57
-23.69
-11.06
0.97
11.48
20.00
26.46
31.03
33.95
35.54
36.09
35.88
35.13
33.98
32.55
30.95
29.32
27.77
26.34
25.02
23.79
22.61
21.53
20.59
19.77
18.92
17.79
16.11
13.72
10.62
6.98
3.05
-0.92
-4.76
-8.37
-11.74
-14.97
-18.22
-21.69
-25.61
-30.09
-35.12
-40.44
-45.51
-49.49
-51.40
-50.35
-45.80
-37.81
-27.11
-14.89
-2.51
8.88
18.60
26.32
32.07
35.94
38.07
38.64
37.98
36.53
34.83
33.29
32.16
31.40
30.79
30.10
29.17
28.05
26.88
25.92
25.31
25.03
24.89
24.60
23.82
22.35
20.16
17.41
14.41
11.42
8.64
6.17
3.90
1.66
-0.74
-3.50
-6.67
-10.20
-13.88
-17.43
-20.61
-23.25
-25.42
-27.40
-29.66
-32.66
-36.69
-41.61
-46.78
-51.13
-53.41
-52.55
-47.98
-39.81
-28.80
-16.17
-3.33
8.48
18.33
25.73
30.62
33.25
34.02
33.35
31.63
29.20
26.42
23.62
21.18
19.32
18.11
17.41
16.99
16.68
16.41
16.27
16.31
16.48
16.56
16.25
15.26
13.49
11.05
8.25
5.41
2.83
0.54
-1.54
-3.68
-6.09
-8.87
-11.90
-14.92
-17.65
-19.93
-21.87
-23.73
-25.88
-28.65
-32.22
-36.52
-41.21
-45.67
-49.06
-50.44
-48.94
-44.10
-36.01
-25.37
-13.39
-1.43
9.29
17.96
24.24
28.21
30.18
30.58
29.84
28.37
26.56
24.72
23.08
21.73
20.60
19.56
18.50
17.45
16.55
16.04
16.11
16.74
17.66
18.39
18.41
17.42
15.37
12.51
9.29
6.12
3.23
0.65
-1.78
-4.25
-6.94
-9.90
-13.09
-16.42
-19.76
-23.00
-26.03
-28.82
-31.46
-34.19
-37.34
-41.14
-45.53
-49.97
-53.49
-54.94
-53.32
-48.17
-39.75
-28.97
-17.08
-5.40
5.05
13.66
20.29
25.07
28.30
30.30
31.28
31.36
30.64
29.25
27.39
25.33
23.31
21.50
19.97
18.73
17.82
17.27
17.09
17.23
17.50
17.66
17.43
16.66
15.30
13.43
11.26
8.99
6.74
4.57
2.39
0.00
-2.76
-5.97
-9.54
-13.24
-16.78
-19.96
-22.78
-25.45
-28.28
-31.63
-35.76
-40.72
-46.33
-52.04
-57.02
-60.22
-60.55
-57.26
-50.17
-39.80
-27.26
-13.96
-1.23
9.91
18.92
25.63
30.14
32.71
33.62
33.18
31.69
29.49
26.89
24.15
21.54
19.27
17.48
16.28
15.66
15.51
15.64
15.84
15.91
15.71
15.19
14.36
13.26
11.90
10.24
8.22
5.83
3.10
0.17
-2.80
-5.67
-8.41
-11.10
-13.91
-16.95
-20.33
-24.04
-28.11
-32.57
-37.37
-42.27
-46.73
-49.91
-50.87
-48.84
-43.50
-35.12
-24.49
-12.75
-1.19
9.03
16.94
22.00
24.06
23.45
20.89
17.32
13.80
11.26
10.20
10.47
11.10
10.54
7.11
-0.24
-11.29
-24.36
-36.67
-45.23
-47.82
-43.56
-33.01
-17.73
0.18
18.51
35.15
48.20
56.20
58.42
55.17
47.85
38.57
29.48
21.95
16.12
11.03
5.22
-2.28
-11.28
-20.24
-26.85
-28.93
-25.36
-16.52
-4.01
10.00
23.66
35.78
45.90
53.86
59.53
62.70
63.30
61.55
58.14
54.04
50.14
46.92
44.34
42.03
39.59
36.89
34.20
32.01
30.75
30.49
30.87
31.25
31.05
30.04
28.40
26.66
25.33
24.69
24.70
25.13
25.68
26.19
26.53
26.48
25.54
23.05
18.47
11.86
4.15
-2.89
-7.15
-6.82
-1.10
9.59
23.73
39.25
54.20
67.20
77.60
85.34
90.65
93.81
95.06
94.64
92.87
90.12
86.72
82.86
78.54
73.62
68.04
61.93
55.69
49.81
44.67
40.34
36.45
32.41
27.61
21.77
14.98
7.71
0.49
-6.33
-12.77
-19.28
-26.60
-35.48
-46.31
-58.94
-72.52
-85.81
-97.60
-107.30
-115.31
-122.94
-131.88
-143.30
-157.10
-171.73
-184.63
-193.16
-195.63
-191.97
-183.70
-173.42
-163.89
-157.19
-154.15
-154.38
-156.40
-158.14
-157.30
-151.75
-139.86
-121.06
-96.15
-67.49
-38.71
-13.91
3.44
11.57
10.83
3.50
-7.11
-17.71
-25.98
-30.86
-32.45
-31.52
-28.96
-25.48
-21.60
-17.92
-15.25
-14.63
-17.03
-22.75
-31.14
-40.44
-48.23
-52.12
-50.50
-42.95
-30.27
-14.13
3.54
20.96
36.70
49.74
59.46
65.51
67.94
67.22
64.20
59.97
55.60
51.85
49.02
46.96
45.21
43.34
41.05
38.36
35.48
32.71
30.26
28.12
26.13
23.99
21.47
18.44
14.93
11.05
6.98
2.88
-1.12
-5.02
-8.93
-13.15
-18.04
-23.90
-30.65
-37.70
-43.96
-48.04
-48.68
-45.14
-37.39
-26.14
-12.54
2.11
16.59
29.95
41.45
50.60
57.13
61.03
62.55
62.16
60.47
58.08
55.43
52.80
50.25
47.77
45.32
42.92
40.64
38.57
36.79
35.30
34.00
32.67
31.04
28.82
25.81
21.98
17.46
12.51
7.47
2.60
-1.93
-6.18
-10.39
-14.95
-20.32
-26.84
-34.49
-42.68
-50.31
-55.91
-58.09
-55.96
-49.47
-39.38
-26.99
-13.73
-0.83
10.85
20.82
28.79
34.61
38.22
39.75
39.54
38.09
35.96
33.57
31.14
28.70
26.18
23.56
20.92
18.46
16.45
15.15
14.76
15.34
16.71
18.44
19.89
20.36
19.33
16.66
12.65
7.89
3.02
-1.48
-5.44
-8.98
-12.41
-16.10
-20.41
-25.54
-31.44
-37.68
-43.35
-47.18
-47.87
-44.52
-36.92
-25.74
-12.29
1.79
14.99
26.22
34.88
40.79
44.03
44.85
43.64
40.91
37.32
33.54
30.09
27.29
25.14
23.45
21.99
20.57
19.15
17.80
16.67
15.82
15.20
14.64
13.86
12.60
10.68
8.08
4.99
1.62
-1.78
-5.10
-8.37
-11.74
-15.41
-19.60
-24.48
-30.15
-36.49
-43.02
-48.78
-52.48
-52.81
-48.88
-40.62
-28.84
-15.03
-0.85
12.30
23.61
32.73
39.69
44.57
47.43
48.36
47.53
45.35
42.33
38.97
35.65
32.48
29.46
26.49
23.62
21.01
18.91
17.54
16.93
16.92
17.17
17.30
16.98
16.01
14.34
11.99
9.03
5.64
2.04
-1.42
-4.45
-6.83
-8.58
-10.05
-11.77
-14.38
-18.32
-23.72
-30.22
-36.98
-42.87
-46.58
-46.95
-43.21
-35.18
-23.37
-8.90
6.67
21.55
34.03
42.73
46.86
46.49
42.55
36.74
31.02
27.09
25.86
27.27
30.43
34.08
37.13
38.99
39.64
39.47
39.03
38.74
38.87
39.43
40.17
40.62
40.10
37.81
33.01
25.24
14.56
1.69
-12.00
-24.77
-34.92
-41.34
-43.84
-43.26
-41.16
-39.33
-39.23
-41.58
-46.21
-52.20
-58.10
-62.35
-63.55
-60.83
-54.08
-44.04
-32.14
-20.09
-9.39
-0.99
4.90
8.61
10.74
11.82
12.16
11.93
11.23
10.23
9.14
8.25
7.66
7.40
7.30
7.20
6.96
6.55
6.07
5.69
5.54
5.70
6.06
6.42
6.48
5.97
4.74
2.77
0.13
-3.02
-6.51
-10.18
-13.89
-17.64
-21.48
-25.61
-30.21
-35.28
-40.50
-45.15
-48.19
-48.63
-45.82
-39.68
-30.82
-20.27
-9.28
1.11
10.12
17.39
22.77
26.29
28.02
28.09
26.75
24.43
21.65
18.96
16.75
15.13
13.97
12.95
11.82
10.47
9.02
7.68
6.68
6.05
5.68
5.29
4.51
3.02
0.62
-2.71
-6.75
-11.12
-15.43
-19.40
-23.03
-26.55
-30.34
-34.77
-39.98
-45.78
-51.59
-56.56
-59.64
-59.85
-56.54
-49.60
-39.52
-27.34
-14.37
-1.86
9.23
18.37
25.40
30.34
33.32
34.49
34.01
32.15
29.29
25.92
22.54
19.54
17.11
15.24
13.79
12.59
11.54
10.66
10.04
9.78
9.85
10.02
9.96
9.27
7.67
5.09
1.69
-2.19
-6.14
-9.88
-13.26
-16.43
-19.66
-23.34
-27.82
-33.22
-39.35
-45.59
-50.95
-54.31
-54.68
-51.49
-44.80
-35.21
-23.72
-11.48
0.44
11.20
20.22
27.18
32.04
34.96
36.22
36.15
35.04
33.18
30.86
28.38
26.05
24.10
22.55
21.27
20.03
18.65
17.11
15.53
14.06
12.73
11.42
9.91
8.03
5.72
3.07
0.25
-2.63
-5.52
-8.46
-11.48
-14.62
-17.90
-21.38
-25.22
-29.62
-34.68
-40.21
-45.60
-49.84
-51.79
-50.48
-45.50
-37.13
-26.32
-14.40
-2.65
7.93
16.83
23.86
29.02
32.35
33.88
33.73
32.16
29.59
26.55
23.54
20.88
18.72
17.00
15.57
14.36
13.34
12.55
12.05
11.79
11.61
11.22
10.35
8.78
6.50
3.62
0.36
-3.08
-6.59
-10.15
-13.88
-17.93
-22.48
-27.65
-33.39
-39.29
-44.56
-48.13
-48.86
-45.94
-39.15
-29.00
-16.62
-3.46
9.09
19.94
28.42
34.32
37.75
38.99
38.42
36.47
33.61
30.31
27.01
24.06
21.60
19.59
17.86
16.23
14.66
13.25
12.19
11.58
11.30
10.99
10.17
8.46
5.69
2.09
-1.89
-5.75
-9.10
-11.91
-14.51
-17.43
-21.25
-26.32
-32.54
-39.35
-45.72
-50.38
-52.16
-50.25
-44.45
-35.22
-23.54
-10.68
2.10
13.76
23.63
31.36
36.85
40.17
41.50
41.07
39.22
36.38
33.03
29.66
26.65
24.19
22.25
20.69
19.35
18.17
17.21
16.56
16.24
16.07
15.73
14.85
13.18
10.63
7.30
3.40
-0.82
-5.18
-9.57
-13.91
-18.19
-22.48
-26.92
-31.70
-36.93
-42.44
-47.64
-51.56
-53.00
-50.99
-45.10
-35.68
-23.77
-10.82
1.76
12.88
21.96
28.81
33.51
36.28
37.38
37.12
35.85
33.96
31.79
29.60
27.51
25.55
23.71
22.00
20.52
19.32
18.43
17.76
17.18
16.54
15.76
14.87
13.88
12.79
11.45
9.68
7.31
4.29
0.71
-3.20
-7.22
-11.17
-14.98
-18.65
-22.24
-25.92
-29.91
-34.43
-39.61
-45.25
-50.69
-54.88
-56.56
-54.67
-48.71
-38.95
-26.42
-12.59
1.00
13.13
23.09
30.66
36.02
39.51
41.51
42.38
42.40
41.82
40.82
39.52
37.96
36.13
34.11
32.02
30.05
28.34
26.92
25.71
24.50
23.10
21.43
19.52
17.46
15.29
12.90
10.08
6.65
2.57
-2.01
-6.72
-11.22
-15.26
-18.80
-21.94
-24.89
-27.93
-31.30
-35.19
-39.62
-44.34
-48.64
-51.49
-51.75
-48.57
-41.76
-31.91
-20.24
-8.19
2.96
12.43
19.89
25.39
29.08
31.10
31.53
30.48
28.21
25.10
21.67
18.40
15.62
13.42
11.73
10.41
9.33
8.48
7.84
7.41
7.01
6.42
5.41
3.84
1.74
-0.71
-3.36
-6.21
-9.43
-13.26
-17.88
-23.17
-28.75
-34.11
-38.89
-43.04
-46.84
-50.67
-54.72
-58.81
-62.35
-64.51
-64.50
-61.78
-56.18
-47.94
-37.68
-26.45
-15.58
-6.49
-0.30
2.54
2.52
1.00
-0.17
0.71
4.65
11.64
20.70
30.29
38.87
45.30
49.13
50.48
49.84
47.85
45.07
41.90
38.62
35.34
32.13
28.99
25.98
23.17
20.64
18.48
16.71
15.30
14.25
13.52
13.09
12.84
12.59
12.10
11.15
9.61
7.45
4.76
1.62
-1.84
-5.49
-9.12
-12.52
-15.47
-17.88
-19.90
-21.86
-24.21
-27.34
-31.34
-35.88
-40.21
-43.26
-43.97
-41.60
-35.91
-27.37
-16.93
-5.83
4.75
13.90
21.07
26.08
28.95
29.88
29.16
27.18
24.41
21.32
18.38
15.91
14.01
12.63
11.55
10.59
9.70
8.93
8.43
8.28
8.41
8.56
8.38
7.53
5.83
3.32
0.24
-3.09
-6.33
-9.25
-11.76
-13.93
-15.98
-18.24
-21.04
-24.55
-28.71
-33.12
-37.03
-39.50
-39.64
-36.89
-31.17
-22.97
-13.16
-2.84
6.98
15.53
22.37
27.36
30.57
32.18
32.42
31.52
29.67
27.13
24.18
21.19
18.49
16.31
14.72
13.64
12.89
12.32
11.87
11.51
11.24
10.94
10.45
9.52
7.95
5.64
2.64
-0.89
-4.74
-8.66
-12.46
-16.01
-19.29
-22.39
-25.47
-28.74
-32.38
-36.54
-41.12
-45.75
-49.75
-52.17
-52.07
-48.81
-42.25
-32.87
-21.68
-9.86
1.46
11.42
19.56
25.72
29.97
32.55
33.78
33.98
33.45
32.46
31.15
29.63
27.95
26.17
24.39
22.76
21.38
20.34
19.62
19.08
18.56
17.86
16.87
15.57
14.01
12.25
10.29
8.06
5.47
2.48
-0.92
-4.62
-8.48
-12.36
-16.15
-19.76
-23.19
-26.48
-29.79
-33.34
-37.38
-41.87
-46.47
-50.30
-52.20
-51.06
-46.23
-37.86
-26.88
-14.71
-2.82
7.70
16.29
22.86
27.56
30.62
32.24
32.59
31.92
30.52
28.71
26.75
24.84
23.16
21.81
20.93
20.54
20.58
20.88
21.18
21.26
20.98
20.27
19.17
17.72
15.95
13.90
11.60
9.11
6.46
3.63
0.56
-2.77
-6.33
-9.95
-13.38
-16.43
-19.06
-21.46
-24.02
-27.18
-31.15
-35.76
-40.29
-43.65
-44.67
-42.49
-36.85
-28.22
-17.64
-6.41
4.27
13.47
20.72
25.84
28.87
30.00
29.49
27.72
25.16
22.29
19.57
17.30
15.64
14.59
13.95
13.51
13.07
12.54
12.00
11.64
11.57
11.78
12.00
11.86
10.97
9.11
6.35
2.95
-0.74
-4.42
-7.88
-11.09
-14.04
-16.84
-19.65
-22.74
-26.42
-30.92
-36.19
-41.73
-46.59
-49.56
-49.59
-46.05
-39.01
-29.18
-17.70
-5.84
5.32
14.99
22.75
28.47
32.19
34.11
34.45
33.56
31.78
29.49
27.03
24.65
22.51
20.67
19.15
17.94
17.04
16.38
15.86
15.33
14.65
13.80
12.79
11.64
10.29
8.56
6.26
3.26
-0.37
-4.44
-8.61
-12.61
-16.33
-19.72
-22.85
-25.74
-28.46
-31.11
-33.84
-36.75
-39.73
-42.27
-43.54
-42.59
-38.67
-31.58
-21.76
-10.22
1.77
13.02
22.62
30.05
35.19
38.12
39.09
38.45
36.58
33.84
30.57
27.10
23.73
20.72
18.29
16.52
15.38
14.70
14.26
13.93
13.64
13.41
13.25
13.11
12.87
12.36
11.42
9.95
7.89
5.19
1.86
-1.99
-6.16
-10.34
-14.27
-17.87
-21.30
-24.87
-28.94
-33.69
-38.87
-43.93
-48.00
-50.17
-49.73
-46.28
-39.85
-30.92
-20.30
-9.03
1.84
11.42
19.13
24.74
28.30
30.07
30.33
29.39
27.55
25.12
22.44
19.86
17.64
15.86
14.48
13.35
12.37
11.51
10.80
10.30
9.95
9.59
9.03
8.04
6.49
4.36
1.71
-1.31
-4.54
-7.76
-10.80
-13.59
-16.22
-19.01
-22.41
-26.71
-31.92
-37.49
-42.46
-45.64
-45.97
-42.81
-36.20
-26.78
-15.67
-4.17
6.55
15.62
22.61
27.44
30.31
31.51
31.33
30.05
27.94
25.31
22.50
19.82
17.46
15.47
13.79
12.32
11.00
9.86
8.96
8.34
7.89
7.40
6.53
5.02
2.69
-0.40
-3.96
-7.62
-11.01
-13.97
-16.51
-18.86
-21.29
-24.01
-27.17
-30.80
-34.94
-39.53
-44.32
-48.71
-51.80
-52.48
-49.93
-43.83
-34.62
-23.32
-11.23
0.46
10.85
19.45
26.03
30.57
33.19
34.17
33.94
32.98
31.72
30.47
29.28
28.13
26.91
25.59
24.22
22.95
21.90
21.15
20.64
20.18
19.56
18.61
17.27
15.60
13.66
11.50
9.09
6.35
3.24
-0.25
-3.97
-7.74
-11.33
-14.60
-17.49
-20.08
-22.60
-25.38
-28.74
-32.85
-37.57
-42.29
-46.04
-47.70
-46.35
-41.57
-33.62
-23.37
-12.01
-0.83
9.15
17.28
23.33
27.41
29.83
31.01
31.27
30.90
30.00
28.66
26.98
25.09
23.21
21.51
20.16
19.23
18.76
18.70
18.97
19.36
19.64
19.55
18.89
17.59
15.77
13.62
11.39
9.20
7.08
4.90
2.51
-0.29
-3.57
-7.29
-11.27
-15.22
-18.86
-21.97
-24.53
-26.72
-28.91
-31.53
-34.89
-38.97
-43.32
-47.07
-49.11
-48.42
-44.40
-37.10
-27.23
-16.00
-4.74
5.43
13.80
20.16
24.65
27.54
29.14
29.60
29.06
27.62
25.50
23.02
20.50
18.23
16.39
15.04
14.22
13.93
14.16
14.80
15.66
16.42
16.72
16.31
15.14
13.37
11.28
9.11
6.93
4.63
1.99
-1.11
-4.62
-8.32
-11.85
-14.98
-17.60
-19.89
-22.11
-24.60
-27.62
-31.29
-35.53
-39.92
-43.76
-46.09
-45.93
-42.61
-35.99
-26.59
-15.45
-3.89
6.85
15.84
22.58
27.03
29.51
30.49
30.44
29.71
28.46
26.73
24.56
22.12
19.70
17.65
16.19
15.38
15.11
15.26
15.69
16.33
17.05
17.63
17.86
17.52
16.59
15.15
13.40
11.54
9.62
7.62
5.49
3.16
0.67
-1.97
-4.70
-7.54
-10.46
-13.40
-16.25
-18.89
-21.25
-23.40
-25.49
-27.75
-30.41
-33.67
-37.58
-41.99
-46.45
-50.25
-52.45
-52.14
-48.72
-42.12
-32.88
-22.01
-10.71
-0.07
9.19
16.66
22.29
26.16
28.47
29.42
29.33
28.49
27.27
25.94
24.68
23.59
22.66
21.86
21.21
20.74
20.54
20.63
21.01
21.55
22.07
22.31
22.11
21.32
19.95
18.10
15.95
13.67
11.40
9.20
7.05
4.93
2.81
0.66
-1.56
-3.92
-6.52
-9.43
-12.63
-15.97
-19.23
-22.26
-25.01
-27.59
-30.24
-33.23
-36.71
-40.71
-45.03
-49.26
-52.81
-54.93
-54.84
-51.92
-45.89
-37.00
-26.06
-14.22
-2.71
7.46
15.70
21.81
25.95
28.40
29.48
29.48
28.65
27.22
25.43
23.55
21.77
20.26
19.09
18.19
17.49
16.93
16.52
16.39
16.60
17.13
17.73
18.04
17.68
16.47
14.53
12.13
9.62
7.24
5.02
2.84
0.54
-1.97
-4.67
-7.49
-10.35
-13.21
-16.07
-18.93
-21.74
-24.44
-26.93
-29.23
-31.46
-33.88
-36.71
-39.95
-43.21
-45.71
-46.43
-44.47
-39.38
-31.37
-21.25
-10.19
0.66
10.40
18.49
24.77
29.21
31.86
32.81
32.16
30.14
27.16
23.74
20.45
17.72
15.78
14.58
13.92
13.57
13.38
13.34
13.51
13.87
14.28
14.47
14.20
13.32
11.85
9.96
7.82
5.55
3.16
0.56
-2.35
-5.63
-9.23
-13.04
-16.85
-20.47
-23.73
-26.60
-29.21
-31.85
-34.87
-38.59
-43.08
-48.08
-52.89
-56.54
-57.94
-56.20
-50.90
-42.26
-31.11
-18.70
-6.37
4.82
14.20
21.62
27.16
31.02
33.33
34.18
33.69
32.19
30.11
28.02
26.31
25.19
24.60
24.32
24.13
23.90
23.63
23.39
23.21
23.07
22.82
22.25
21.21
19.64
17.61
15.26
12.75
10.06
7.09
3.62
-0.47
-5.12
-10.04
-14.80
-19.05
-22.68
-25.85
-28.95
-32.45
-36.69
-41.76
-47.39
-52.89
-57.22
-59.19
-57.75
-52.34
-43.14
-31.04
-17.42
-3.78
8.65
19.09
27.20
32.99
36.64
38.41
38.68
37.86
36.33
34.43
32.36
30.19
27.97
25.80
23.84
22.31
21.37
21.05
21.19
21.53
21.73
21.51
20.70
19.30
17.37
15.08
12.56
9.87
7.04
4.01
0.74
-2.78
-6.50
-10.30
-14.09
-17.80
-21.46
-25.20
-29.24
-33.75
-38.74
-43.99
-48.89
-52.51
-53.82
-51.95
-46.54
-37.86
-26.77
-14.53
-2.39
8.66
18.03
25.49
31.03
34.70
36.56
36.68
35.26
32.63
29.27
25.75
22.57
20.09
18.39
17.40
16.89
16.60
16.37
16.15
15.94
15.79
15.64
15.35
14.69
13.40
11.30
8.41
4.90
1.09
-2.67
-6.13
-9.26
-12.22
-15.34
-19.00
-23.49
-28.92
-35.06
-41.32
-46.80
-50.43
-51.18
-48.35
-41.78
-31.91
-19.78
-6.74
5.81
16.74
25.37
31.56
35.53
37.68
38.40
37.97
36.57
34.39
31.65
28.65
25.74
23.18
21.14
19.68
18.72
18.15
17.80
17.51
17.16
16.69
16.04
15.16
13.92
12.19
9.83
6.75
3.04
-1.13
-5.50
-9.81
-13.88
-17.63
-21.07
-24.35
-27.76
-31.64
-36.31
-41.83
-47.81
-53.37
-57.23
-58.10
-55.06
-47.89
-37.22
-24.27
-10.59
2.39
13.61
22.55
29.09
33.44
35.94
36.99
36.95
36.16
34.91
33.42
31.89
30.49
29.30
28.34
27.56
26.88
26.18
25.39
24.52
23.63
22.77
21.92
20.84
19.18
16.51
12.57
7.44
1.54
-4.44
-9.77
-13.99
-16.99
-19.15
-21.12
-23.63
-27.21
-32.00
-37.67
-43.46
-48.30
-51.06
-50.81
-47.02
-39.80
-29.82
-18.20
-6.25
4.85
14.27
21.63
26.88
30.18
31.74
31.83
30.73
28.82
26.59
24.51
22.91
21.85
21.20
20.68
20.07
19.30
18.42
17.60
16.96
16.49
16.01
15.18
13.69
11.33
8.12
4.31
0.27
-3.65
-7.26
-10.56
-13.72
-17.05
-20.86
-25.44
-30.90
-37.00
-43.11
-48.18
-50.98
-50.51
-46.27
-38.51
-28.14
-16.36
-4.42
6.72
16.38
24.15
29.82
33.28
34.56
33.93
31.84
28.83
25.46
22.14
19.08
16.32
13.82
11.54
9.56
8.00
6.97
6.41
6.03
5.40
4.02
1.55
-2.09
-6.69
-11.83
-17.01
-21.76
-25.83
-29.17
-31.96
-34.63
-37.64
-41.30
-45.61
-50.04
-53.70
-55.43
-54.25
-49.62
-41.60
-30.83
-18.38
-5.45
6.81
17.55
26.25
32.69
36.95
39.24
39.85
39.07
37.26
34.81
32.17
29.73
27.78
26.34
25.22
24.18
23.01
21.71
20.49
19.55
18.98
18.60
18.04
16.86
14.74
11.63
7.72
3.35
-1.16
-5.57
-9.79
-13.85
-17.88
-22.07
-26.68
-31.90
-37.74
-43.79
-49.20
-52.80
-53.41
-50.24
-43.17
-32.76
-20.16
-6.72
6.28
17.85
27.35
34.50
39.32
42.05
43.11
42.92
41.88
40.28
38.26
35.96
33.47
30.96
28.61
26.60
25.03
23.90
23.07
22.34
21.51
20.48
19.19
17.67
15.93
13.91
11.54
8.74
5.49
1.83
-2.12
-6.22
-10.34
-14.34
-18.16
-21.81
-25.45
-29.31
-33.67
-38.66
-44.12
-49.48
-53.79
-55.93
-54.93
-50.29
-42.12
-31.17
-18.67
-6.00
5.68
15.60
23.42
29.15
32.97
35.07
35.67
35.01
33.44
31.37
29.18
27.16
25.44
23.99
22.78
21.76
21.01
20.58
20.46
20.50
20.45
20.02
19.03
17.42
15.31
12.86
10.25
7.59
4.88
2.01
-1.13
-4.60
-8.35
-12.17
-15.77
-18.94
-21.61
-23.99
-26.50
-29.61
-33.65
-38.52
-43.64
-48.01
-50.47
-50.02
-46.14
-38.96
-29.16
-17.77
-5.95
5.19
14.82
22.37
27.58
30.51
31.40
30.70
28.89
26.45
23.80
21.21
18.84
16.74
14.93
13.36
12.05
11.00
10.23
9.74
9.45
9.24
8.97
8.47
7.59
6.22
4.28
1.79
-1.14
-4.31
-7.52
-10.57
-13.39
-15.97
-18.39
-20.83
-23.53
-26.75
-30.75
-35.53
-40.75
-45.64
-49.12
-50.12
-47.88
-42.22
-33.60
-22.96
-11.46
-0.22
9.90
18.30
24.71
29.11
31.67
32.66
32.46
31.43
29.92
28.25
26.64
25.23
24.04
23.00
21.99
20.94
19.83
18.76
17.84
17.11
16.46
15.71
14.66
13.17
11.20
8.84
6.18
3.29
0.20
-3.10
-6.60
-10.22
-13.85
-17.36
-20.70
-23.86
-26.88
-29.90
-33.08
-36.61
-40.63
-45.04
-49.39
-52.85
-54.35
-52.92
-48.04
-39.85
-29.17
-17.23
-5.28
5.69
15.05
22.51
28.00
31.61
33.50
33.96
33.35
32.09
30.56
29.03
27.68
26.59
25.77
25.15
24.67
24.20
23.73
23.24
22.76
22.29
21.77
21.07
20.04
18.63
16.85
14.84
12.74
10.63
8.47
6.12
3.47
0.45
-2.86
-6.24
-9.45
-12.33
-14.89
-17.32
-20.03
-23.48
-28.04
-33.79
-40.31
-46.74
-51.88
-54.52
-53.77
-49.36
-41.68
-31.67
-20.59
-9.70
-0.03
7.84
13.73
17.77
20.31
21.68
22.15
21.87
20.94
19.52
17.81
16.08
14.53
13.26
12.26
11.51
11.04
10.89
11.11
11.60
12.18
12.58
12.55
12.01
10.97
9.58
7.95
6.15
4.12
1.72
-1.14
-4.42
-7.98
-11.53
-14.80
-17.69
-20.29
-22.93
-26.02
-29.83
-34.27
-38.80
-42.50
-44.39
-43.62
-39.82
-33.16
-24.28
-14.13
-3.71
6.09
14.57
21.32
26.07
28.80
29.66
28.97
27.17
24.74
22.11
19.64
17.54
15.93
14.80
14.09
13.70
13.45
13.20
12.84
12.36
11.77
11.11
10.32
9.26
7.72
5.50
2.55
-0.99
-4.80
-8.53
-11.87
-14.68
-17.04
-19.16
-21.35
-23.91
-27.11
-31.04
-35.60
-40.38
-44.67
-47.58
-48.21
-45.89
-40.39
-32.04
-21.63
-10.32
0.73
10.54
18.52
24.47
28.46
30.77
31.67
31.47
30.51
29.15
27.72
26.43
25.34
24.30
23.13
21.74
20.22
18.83
17.84
17.44
17.60
18.12
18.65
18.85
18.42
17.22
15.27
12.74
9.89
7.01
4.30
1.83
-0.52
-2.99
-5.81
-9.11
-12.83
-16.74
-20.50
-23.90
-26.93
-29.84
-33.08
-37.05
-41.90
-47.32
-52.53
-56.44
-57.93
-56.16
-50.80
-42.15
-31.04
-18.60
-6.04
5.60
15.60
23.56
29.40
33.22
35.28
35.90
35.45
34.26
32.65
30.88
29.10
27.37
25.73
24.17
22.76
21.58
20.73
20.24
20.06
20.05
20.02
19.75
19.07
17.83
16.00
13.67
11.05
8.39
5.88
3.58
1.37
-0.96
-3.65
-6.83
-10.45
-14.37
-18.31
-22.02
-25.27
-27.99
-30.30
-32.56
-35.25
-38.82
-43.38
-48.52
-53.27
-56.37
-56.62
-53.28
-46.37
-36.57
-25.00
-12.90
-1.35
8.85
17.18
23.41
27.53
29.72
30.38
29.99
29.00
27.74
26.33
24.78
23.07
21.26
19.57
18.23
17.45
17.30
17.61
18.14
18.59
18.72
18.36
17.47
16.02
14.03
11.56
8.72
5.61
2.36
-0.94
-4.23
-7.47
-10.60
-13.55
-16.25
-18.73
-21.10
-23.61
-26.54
-30.11
-34.34
-38.91
-43.13
-46.08
-46.83
-44.70
-39.51
-31.58
-21.66
-10.74
0.18
10.23
18.77
25.39
29.92
32.41
33.10
32.33
30.52
28.04
25.28
22.58
20.22
18.44
17.31
16.76
16.57
16.49
16.33
15.98
15.44
14.76
13.98
13.05
11.88
10.33
8.31
5.76
2.73
-0.67
-4.31
-8.05
-11.79
-15.43
-18.93
-22.23
-25.35
-28.41
-31.59
-35.06
-38.73
-42.23
-44.79
-45.48
-43.52
-38.51
-30.63
-20.57
-9.36
1.84
12.03
20.44
26.68
30.70
32.79
33.40
33.03
32.05
30.71
29.11
27.32
25.42
23.56
21.84
20.34
19.11
18.18
17.57
17.30
17.32
17.45
17.37
16.76
15.34
13.09
10.21
7.04
3.95
1.11
-1.53
-4.20
-7.12
-10.43
-14.02
-17.66
-21.08
-24.16
-26.94
-29.64
-32.59
-36.10
-40.34
-45.26
-50.44
-55.15
-58.38
-59.08
-56.46
-50.18
-40.56
-28.49
-15.23
-2.12
9.66
19.32
26.53
31.36
34.15
35.42
35.64
35.16
34.23
32.98
31.51
29.98
28.50
27.19
26.10
25.26
24.63
24.20
23.94
23.83
23.82
23.81
23.67
23.24
22.33
20.83
18.72
16.11
13.24
10.34
7.61
5.06
2.55
-0.14
-3.22
-6.70
-10.43
-14.17
-17.68
-20.83
-23.66
-26.34
-29.07
-32.11
-35.67
-39.90
-44.74
-49.76
-54.25
-57.16
-57.46
-54.41
-47.84
-38.18
-26.41
-13.70
-1.22
10.10
19.68
27.19
32.56
35.89
37.39
37.38
36.26
34.43
32.28
30.10
28.08
26.26
24.65
23.20
21.89
20.77
19.94
19.52
19.53
19.82
20.07
19.88
18.89
17.00
14.38
11.45
8.66
6.31
4.38
2.63
0.67
-1.77
-4.74
-8.04
-11.37
-14.49
-17.28
-19.73
-21.95
-24.06
-26.29
-28.92
-32.19
-36.20
-40.67
-44.88
-47.79
-48.29
-45.61
-39.57
-30.59
-19.61
-7.79
3.76
14.14
22.73
29.21
33.47
35.63
35.96
34.88
32.94
30.65
28.48
26.72
25.46
24.61
23.98
23.43
22.89
22.39
22.02
21.80
21.67
21.44
20.83
19.64
17.79
15.37
12.64
9.87
7.25
4.78
2.32
-0.35
-3.38
-6.85
-10.66
-14.66
-18.59
-22.19
-25.26
-27.75
-29.83
-31.86
-34.38
-37.84
-42.40
-47.71
-52.95
-56.97
-58.62
-57.03
-51.88
-43.44
-32.46
-20.05
-7.41
4.40
14.52
22.47
28.08
31.53
33.22
33.70
33.46
32.88
32.13
31.27
30.29
29.21
28.07
26.97
25.95
25.00
24.13
23.36
22.76
22.38
22.20
22.06
21.72
20.90
19.43
17.30
14.64
11.69
8.71
5.88
3.24
0.70
-1.90
-4.76
-7.98
-11.54
-15.29
-18.97
-22.32
-25.18
-27.55
-29.66
-31.94
-34.90
-38.86
-43.75
-48.98
-53.46
-55.97
-55.44
-51.39
-43.98
-33.94
-22.33
-10.26
1.33
11.66
20.21
26.64
30.87
33.03
33.53
32.92
31.77
30.51
29.34
28.27
27.20
26.09
25.02
24.13
23.54
23.29
23.33
23.48
23.59
23.48
23.07
22.32
21.21
19.77
18.03
16.05
13.87
11.52
9.05
6.48
3.79
0.95
-2.11
-5.43
-8.94
-12.51
-15.93
-19.01
-21.71
-24.06
-26.21
-28.30
-30.54
-33.16
-36.38
-40.28
-44.62
-48.68
-51.37
-51.58
-48.53
-42.08
-32.80
-21.73
-10.06
1.18
11.21
19.58
25.99
30.31
32.57
32.96
31.82
29.59
26.72
23.61
20.61
17.98
15.89
14.42
13.55
13.18
13.14
13.31
13.58
13.84
14.00
13.92
13.47
12.57
11.23
9.51
7.52
5.30
2.86
0.15
-2.88
-6.21
-9.75
-13.30
-16.67
-19.72
-22.49
-25.21
-28.21
-31.81
-36.07
-40.67
-44.86
-47.58
-47.83
-44.92
-38.76
-29.83
-19.06
-7.55
3.69
13.84
22.37
28.96
33.49
36.01
36.73
36.02
34.31
32.01
29.48
26.94
24.51
22.22
20.14
18.33
16.91
15.95
15.43
15.21
15.07
14.71
13.97
12.78
11.23
9.48
7.65
5.75
3.72
1.37
-1.40
-4.63
-8.21
-11.91
-15.51
-18.89
-22.06
-25.20
-28.58
-32.45
-36.96
-42.02
-47.30
-52.18
-55.83
-57.33
-55.85
-50.93
-42.64
-31.61
-18.98
-6.06
5.93
16.10
24.02
29.65
33.18
34.95
35.34
34.74
33.53
32.03
30.52
29.07
27.69
26.32
24.93
23.55
22.31
21.29
20.56
20.03
19.55
18.91
17.95
16.61
14.87
12.77
10.30
7.43
4.12
0.40
-3.68
-7.95
-12.21
-16.26
-19.97
-23.36
-26.62
-30.13
-34.26
-39.20
-44.71
-50.02
-53.96
-55.30
-53.13
-47.17
-37.92
-26.41
-13.90
-1.57
9.72
19.36
27.01
32.42
35.58
36.64
36.02
34.27
31.99
29.63
27.42
25.42
23.58
21.85
20.29
18.95
17.89
17.07
16.39
15.71
14.92
13.95
12.76
11.31
9.57
7.47
4.96
2.01
-1.35
-5.04
-8.88
-12.64
-16.14
-19.29
-22.21
-25.25
-28.80
-33.10
-37.95
-42.62
-45.98
-46.84
-44.35
-38.38
-29.44
-18.62
-7.16
3.82
13.51
21.43
27.40
31.36
33.41
33.70
32.54
30.35
27.62
24.83
22.33
20.28
18.69
17.42
16.38
15.48
14.70
14.02
13.41
12.83
12.21
11.44
10.42
8.97
6.94
4.23
0.90
-2.85
-6.75
-10.51
-14.02
-17.33
-20.64
-24.27
-28.45
-33.35
-38.86
-44.57
-49.71
-53.29
-54.30
-51.98
-46.06
-36.91
-25.38
-12.68
0.01
11.64
21.50
29.17
34.56
37.77
39.12
39.00
37.85
36.10
34.07
31.99
29.98
28.15
26.54
25.25
24.31
23.74
23.49
23.38
23.21
22.74
21.80
20.29
18.24
15.74
12.92
9.88
6.70
3.40
-0.05
-3.68
-7.52
-11.53
-15.64
-19.73
-23.66
-27.34
-30.76
-33.98
-37.19
-40.67
-44.62
-49.05
-53.53
-57.20
-58.85
-57.34
-51.99
-42.89
-30.97
-17.64
-4.44
7.43
17.33
25.11
30.89
34.86
37.20
38.08
37.76
36.63
35.10
33.61
32.39
31.46
30.72
29.99
29.18
28.32
27.62
27.26
27.31
27.65
27.94
27.83
27.01
25.47
23.40
21.15
18.98
16.99
15.06
12.97
10.57
7.86
5.05
2.40
0.05
-2.01
-4.01
-6.21
-8.83
-11.88
-15.26
-18.75
-22.18
-25.46
-28.62
-31.74
-34.97
-38.49
-42.45
-46.89
-51.61
-56.07
-59.41
-60.62
-58.83
-53.62
-45.18
-34.27
-22.03
-9.69
1.73
11.55
19.44
25.32
29.32
31.66
32.66
32.67
32.07
31.14
30.05
28.83
27.42
25.83
24.14
22.57
21.40
20.79
20.77
21.22
21.85
22.43
22.73
22.62
22.05
21.04
19.65
17.94
15.99
13.91
11.77
9.66
7.63
5.70
3.81
1.86
-0.28
-2.72
-5.51
-8.57
-11.80
-14.98
-17.90
-20.36
-22.25
-23.61
-24.69
-25.91
-27.76
-30.65
-34.71
-39.66
-44.79
-49.11
-51.54
-51.20
-47.68
-41.10
-32.10
-21.63
-10.75
-0.38
8.80
16.38
22.17
26.11
28.32
28.98
28.39
26.89
24.88
22.73
20.70
18.98
17.62
16.64
16.03
15.82
16.03
16.63
17.48
18.35
18.92
18.91
18.12
16.54
14.31
11.69
8.97
6.43
4.24
2.40
0.76
-0.95
-3.01
-5.58
-8.63
-12.00
-15.36
-18.43
-21.10
-23.43
-25.68
-28.17
-31.16
-34.76
-38.86
-43.08
-46.86
-49.47
-50.15
-48.27
-43.52
-36.04
-26.40
-15.56
-4.61
5.42
13.84
20.31
24.88
27.78
29.29
29.65
29.09
27.86
26.29
24.76
23.60
22.95
22.72
22.64
22.42
21.93
21.26
20.62
20.23
20.09
20.00
19.65
18.79
17.33
15.34
13.00
10.50
7.91
5.29
2.64
-0.02
-2.70
-5.41
-8.19
-11.05
-13.97
-16.90
-19.75
-22.48
-25.12
-27.77
-30.58
-33.69
-37.26
-41.33
-45.76
-50.10
-53.59
-55.21
-54.05
-49.58
-41.91
-31.72
-20.16
-8.44
2.44
11.82
19.40
25.12
29.08
31.49
32.63
32.83
32.48
31.87
31.19
30.50
29.75
28.88
27.85
26.69
25.48
24.29
23.18
22.17
21.25
20.42
19.65
18.89
18.05
17.03
15.76
14.24
12.49
10.58
8.59
6.60
4.65
2.73
0.77
-1.33
-3.73
-6.51
-9.61
-12.84
-15.92
-18.63
-20.85
-22.74
-24.65
-27.03
-30.29
-34.59
-39.67
-44.85
-49.13
-51.38
-50.67
-46.55
-39.21
-29.38
-18.22
-6.95
3.36
11.98
18.58
23.15
25.89
27.09
27.03
25.99
24.26
22.17
20.04
18.10
16.47
15.13
14.02
13.07
12.30
11.75
11.44
11.30
11.16
10.91
10.46
9.85
9.12
8.25
7.12
5.57
3.51
0.96
-1.95
-5.02
-8.11
-11.18
-14.20
-17.19
-20.12
-23.06
-26.15
-29.63
-33.63
-37.99
-42.13
-45.14
-46.03
-44.10
-39.18
-31.66
-22.36
-12.21
-2.07
7.41
15.76
22.64
27.84
31.21
32.78
32.72
31.34
29.05
26.28
23.41
20.77
18.54
16.78
15.47
14.53
13.81
13.23
12.69
12.11
11.39
10.41
9.08
7.29
5.03
2.30
-0.80
-4.16
-7.64
-11.11
-14.46
-17.68
-20.84
-24.13
-27.81
-32.10
-36.97
-42.04
-46.49
-49.25
-49.34
-46.13
-39.68
-30.68
-20.23
-9.52
0.49
9.23
16.48
22.22
26.45
29.16
30.38
30.25
29.10
27.38
25.57
23.98
22.68
21.47
20.08
18.30
16.19
14.04
12.24
11.10
10.63
10.57
10.45
9.84
8.46
6.28
3.45
0.24
-3.13
-6.49
-9.72
-12.79
-15.78
-18.94
-22.63
-27.18
-32.71
-38.85
-44.73
-49.11
-50.73
-48.70
-42.81
-33.57
-22.07
-9.64
2.44
13.21
22.11
28.97
33.86
36.99
38.64
39.04
38.43
37.04
35.14
33.00
30.79
28.61
26.49
24.39
22.36
20.52
19.08
18.21
17.94
18.11
18.36
18.29
17.54
15.90
13.36
10.04
6.20
2.13
-1.94
-5.80
-9.35
-12.59
-15.58
-18.49
-21.60
-25.23
-29.63
-34.88
-40.62
-46.10
-50.19
-51.79
-50.07
-44.80
-36.39
-25.72
-13.94
-2.14
8.81
18.27
25.84
31.34
34.73
36.11
35.74
34.04
31.49
28.59
25.79
23.37
21.40
19.84
18.49
17.24
16.03
14.96
14.12
13.60
13.35
13.17
12.75
11.77
10.04
7.52
4.36
0.82
-2.83
-6.39
-9.78
-13.03
-16.30
-19.77
-23.66
-28.08
-32.91
-37.70
-41.63
-43.66
-42.85
-38.67
-31.20
-21.16
-9.72
1.84
12.42
21.27
28.02
32.62
35.16
35.92
35.23
33.51
31.20
28.73
26.44
24.57
23.19
22.24
21.58
21.05
20.52
19.90
19.20
18.42
17.58
16.62
15.43
13.90
11.89
9.32
6.19
2.57
-1.39
-5.47
-9.43
-13.09
-16.39
-19.39
-22.28
-25.32
-28.79
-32.93
-37.79
-43.18
-48.47
-52.69
-54.69
-53.47
-48.57
-40.23
-29.39
-17.35
-5.45
5.30
14.26
21.19
26.11
29.22
30.84
31.34
31.13
30.51
29.69
28.69
27.50
26.10
24.57
23.08
21.87
21.12
20.88
21.03
21.31
21.43
21.14
20.32
19.03
17.37
15.49
13.48
11.37
9.14
6.77
4.23
1.51
-1.39
-4.42
-7.54
-10.68
-13.71
-16.56
-19.18
-21.70
-24.44
-27.82
-32.12
-37.28
-42.60
-46.94
-48.93
-47.53
-42.45
-34.21
-23.93
-12.96
-2.40
7.10
15.28
22.07
27.42
31.20
33.27
33.63
32.49
30.25
27.46
24.66
22.25
20.42
19.19
18.42
17.98
17.83
17.97
18.38
18.93
19.33
19.25
18.39
16.63
14.10
11.10
8.00
5.07
2.40
-0.11
-2.70
-5.62
-8.96
-12.61
-16.33
-19.82
-22.87
-25.49
-27.91
-30.42
-33.28
-36.50
-39.81
-42.64
-44.30
-44.13
-41.71
-36.90
-29.99
-21.50
-12.20
-2.89
5.69
13.00
18.72
22.74
25.20
26.34
26.47
25.82
24.63
23.06
21.30
19.57
18.11
17.15
16.83
17.16
18.02
19.21
20.46
21.51
22.15
22.24
21.75
20.77
19.49
18.11
16.82
15.66
14.42
12.67
9.80
5.26
-1.22
-9.44
-18.73
-28.17
-36.78
-43.72
-48.39
-50.34
-49.30
-45.17
-38.23
-29.19
-19.17
-9.44
-1.09
5.31
9.78
12.79
14.95
16.66
18.06
19.01
19.30
18.84
17.73
16.27
14.83
13.73
13.13
13.01
13.22
13.55
13.80
13.89
13.81
13.65
13.52
13.46
13.31
12.75
11.38
8.97
5.62
1.71
-2.11
-5.40
-8.04
-10.29
-12.58
-15.28
-18.44
-21.74
-24.58
-26.23
-26.01
-23.48
-18.63
-11.90
-4.13
3.56
10.18
15.13
18.56
21.49
25.62
32.92
44.79
61.44
81.54
102.33
120.42
132.63
136.84
132.42
120.22
102.28
81.57
61.61
45.79
36.63
34.99
39.51
46.93
53.04
53.97
47.09
31.60
8.49
-19.72
-49.22
-75.70
-95.32
-106.11
-108.94
-107.44
-106.56
-110.11
-118.72
-129.32
-136.70
-136.14
-125.89
-107.69
-85.52
-63.10
-41.98
-21.20
1.38
26.89
54.08
79.27
97.78
105.99
102.67
89.19
68.63
44.40
19.15
-5.50
-28.72
-49.69
-67.28
-80.00
-86.45
-85.87
-78.51
-65.52
-48.56
-29.45
-9.84
8.82
25.33
38.90
49.45
57.77
65.26
73.31
82.48
92.29
101.60
109.43
115.74
121.43
127.78
135.54
144.39
153.13
160.49
165.83
169.29
171.26
171.66
169.51
163.22
151.39
133.43
109.79
81.62
50.16
16.54
-18.12
-52.33
-84.04
-110.90
-130.88
-143.05
-147.89
-147.03
-142.55
-136.20
-129.02
-121.28
-112.91
-103.84
-94.20
-84.23
-74.06
-63.64
-52.70
-40.98
-28.41
-15.32
-2.33
9.83
20.62
29.88
37.89
45.19
52.33
59.57
66.84
73.71
79.75
84.80
89.06
93.10
97.46
102.34
107.40
