1653031871.00
64.000000
-0.00
-0.00
-0.00
-0.00
-0.00
-0.00
-0.00
-0.00
-0.00
-0.00
0.00
0.01
0.01
-0.00
-0.03
-0.05
-0.05
0.00
0.13
0.36
0.66
1.01
1.37
1.72
2.06
2.40
2.79
3.24
3.80
4.42
5.06
5.67
6.20
6.69
7.15
7.68
8.31
9.13
10.08
11.05
11.91
12.62
13.20
13.78
14.57
15.72
17.46
19.65
22.05
24.38
26.48
28.39
30.40
32.91
36.24
40.78
46.22
52.07
57.76
62.91
67.50
71.96
76.92
82.89
90.49
99.29
108.62
117.62
125.64
132.55
138.78
145.52
151.47
159.03
169.08
181.97
196.61
209.94
217.31
213.66
195.36
161.51
114.82
59.61
0.71
-58.48
-116.59
-173.92
-231.21
-288.62
-345.29
-399.26
-448.93
-492.95
-530.48
-560.84
-583.12
-596.11
-598.56
-589.89
-570.35
-541.26
-503.91
-458.68
-404.85
-341.20
-267.42
-185.26
-98.85
-13.52
65.58
134.86
192.70
238.77
273.26
296.40
308.68
311.30
306.47
296.96
285.42
273.58
261.98
250.24
237.54
223.25
207.30
190.19
172.88
156.43
141.64
128.71
117.22
106.39
95.51
84.33
73.17
62.71
53.60
46.10
39.94
34.54
29.38
24.25
19.37
15.24
12.09
9.81
7.94
5.93
3.43
0.44
-2.71
-5.59
-7.91
-9.63
-10.87
-11.84
-12.63
-13.20
-13.43
-13.16
-12.35
-11.12
-9.73
-8.50
-7.69
-7.43
-7.65
-8.17
-8.80
-9.41
-9.93
-10.29
-10.31
-9.79
-8.53
-6.60
-4.34
-2.27
-0.88
-0.43
-0.80
-1.57
-2.31
-2.78
-3.05
-3.42
-4.12
-5.16
-6.26
-6.98
-6.95
-6.14
-4.81
-3.44
-2.44
-1.97
-1.91
-2.01
-1.99
-1.75
-1.32
-0.86
-0.51
-0.33
-0.30
-0.37
-0.44
-0.48
-0.51
-0.55
-0.63
-0.74
-0.87
-0.96
-0.97
-0.93
-0.86
-0.83
-0.84
-0.88
-0.86
-0.72
-0.42
0.02
0.54
1.05
1.54
1.98
2.38
2.70
2.89
2.87
2.60
2.09
1.38
0.57
-0.29
-1.18
-2.11
-3.10
-4.08
-4.86
-5.26
-5.10
-4.37
-3.16
-1.69
-0.15
1.30
2.59
3.67
4.54
5.10
5.43
5.57
5.56
5.47
5.20
4.69
3.94
3.03
2.06
1.13
0.23
-0.67
-1.61
-2.57
-3.42
-4.07
-4.46
-4.65
-4.69
-4.67
-4.57
-4.35
-4.00
-3.58
-3.17
-2.86
-2.67
-2.49
-2.23
-1.82
-1.34
-0.92
-0.73
-0.87
-1.31
-1.92
-2.50
-2.94
-3.15
-3.17
-3.09
-3.02
-3.01
-3.07
-3.13
-3.15
-3.09
-2.96
-2.82
-2.76
-2.86
-3.14
-3.62
-4.24
-4.93
-5.60
-6.21
-6.70
-7.08
-7.32
-7.44
-7.47
-7.50
-7.61
-7.84
-8.19
-8.56
-8.78
-8.68
-8.18
-7.29
-6.17
-5.05
-4.16
-3.61
-3.36
-3.22
-2.94
-2.33
-1.35
-0.05
1.41
2.88
4.23
5.35
6.18
6.78
7.38
8.37
10.28
13.51
18.18
23.96
30.03
35.24
38.36
38.39
34.93
28.35
19.82
11.08
3.91
-0.41
-1.54
-0.15
2.46
4.86
6.11
5.88
4.45
2.33
-0.02
-2.35
-4.61
-6.79
-8.88
-10.80
-12.44
-13.70
-14.47
-14.59
-13.86
-12.14
-9.43
-5.91
-1.95
1.99
5.45
8.11
9.84
10.69
10.84
10.60
10.32
10.28
10.65
11.41
12.35
13.16
13.51
13.19
12.20
10.72
9.07
7.56
6.38
5.46
4.53
3.27
1.46
-0.83
-3.24
-5.32
-6.74
-7.43
-7.64
-7.69
-7.89
-8.32
-8.91
-9.44
-9.71
-9.56
-8.92
-7.84
-6.42
-4.87
-3.37
-2.09
-1.07
-0.23
0.49
1.11
1.59
1.79
1.62
1.06
0.18
-0.91
-2.11
-3.30
-4.37
-5.18
-5.56
-5.38
-4.64
-3.47
-2.14
-1.01
-0.34
-0.23
-0.56
-0.99
-1.21
-0.96
-0.30
0.48
0.88
0.47
-0.88
-2.99
-5.34
-7.37
-8.62
-8.98
-8.61
-7.88
-7.18
-6.78
-6.77
-7.06
-7.42
-7.51
-6.94
-5.40
-2.83
0.46
3.83
6.50
7.92
8.04
7.36
6.64
6.54
7.20
8.28
9.21
9.61
9.52
9.37
9.63
10.39
11.20
11.28
9.90
6.84
2.51
-2.22
-6.39
-9.32
-10.81
-11.12
-10.69
-10.00
-9.32
-8.74
-8.24
-7.75
-7.28
-6.89
-6.61
-6.43
-6.24
-5.88
-5.22
-4.25
-3.10
-2.00
-1.19
-0.78
-0.75
-0.93
-1.13
-1.21
-1.11
-0.87
-0.52
-0.09
0.36
0.77
1.00
0.94
0.56
-0.07
-0.74
-1.28
-1.54
-1.56
-1.47
-1.43
-1.55
-1.83
-2.21
-2.59
-2.90
-3.05
-2.97
-2.65
-2.10
-1.40
-0.68
-0.05
0.43
0.79
1.08
1.37
1.72
2.12
2.58
3.08
3.61
4.19
4.79
5.35
5.79
6.05
6.12
6.07
6.00
6.00
6.05
6.02
5.72
4.99
3.76
2.18
0.46
-1.15
-2.46
-3.46
-4.22
-4.89
-5.60
-6.38
-7.19
-7.91
-8.40
-8.51
-8.17
-7.39
-6.26
-4.96
-3.65
-2.45
-1.43
-0.58
0.07
0.51
0.71
0.71
0.63
0.60
0.73
1.02
1.34
1.50
1.35
0.90
0.28
-0.31
-0.66
-0.67
-0.39
0.05
0.48
0.76
0.79
0.61
0.32
0.04
-0.11
-0.09
0.08
0.29
0.46
0.51
0.43
0.22
-0.10
-0.50
-0.97
-1.48
-1.96
-2.32
-2.47
-2.38
-2.11
-1.79
-1.53
-1.41
-1.41
-1.43
-1.34
-1.13
-0.82
-0.55
-0.42
-0.49
-0.73
-1.04
-1.34
-1.56
-1.66
-1.61
-1.40
-1.06
-0.68
-0.37
-0.22
-0.23
-0.31
-0.34
-0.26
-0.09
0.03
0.03
-0.10
-0.24
-0.26
-0.09
0.21
0.45
0.47
0.19
-0.33
-0.92
-1.42
-1.73
-1.85
-1.82
-1.68
-1.46
-1.19
-0.87
-0.54
-0.20
0.12
0.44
0.75
1.03
1.20
1.23
1.10
0.87
0.62
0.44
0.31
0.21
0.06
-0.17
-0.49
-0.82
-1.13
-1.38
-1.56
-1.68
-1.72
-1.64
-1.46
-1.20
-1.00
-1.00
-1.27
-1.79
-2.41
-2.96
-3.30
-3.36
-3.19
-2.87
-2.53
-2.23
-2.01
-1.84
-1.67
-1.43
-1.09
-0.65
-0.12
0.46
1.06
1.65
2.22
2.77
3.29
3.82
4.36
4.88
5.30
5.49
5.35
4.86
4.14
3.45
3.05
3.09
3.53
4.16
4.68
4.90
4.78
4.46
4.16
4.04
4.18
4.49
4.82
5.04
5.06
4.89
4.60
4.28
4.01
3.88
3.95
4.30
4.96
5.93
7.18
8.63
10.25
12.06
14.11
16.53
19.39
22.70
26.28
29.75
32.57
34.19
34.17
32.37
28.93
24.25
18.80
13.06
7.40
2.01
-3.09
-7.97
-12.76
-17.52
-22.17
-26.52
-30.32
-33.38
-35.64
-37.21
-38.22
-38.69
-38.41
-36.99
-34.08
-29.60
-23.93
-17.81
-12.15
-7.62
-4.50
-2.66
-1.69
-1.16
-0.83
-0.62
-0.52
-0.46
-0.29
0.19
1.06
2.18
3.26
3.95
4.03
3.51
2.63
1.80
1.41
1.68
2.60
3.89
5.21
6.23
6.83
7.10
7.27
7.56
8.01
8.50
8.77
8.57
7.78
6.44
4.77
3.02
1.43
0.20
-0.57
-0.90
-0.89
-0.72
-0.61
-0.72
-1.11
-1.72
-2.38
-2.91
-3.16
-3.09
-2.75
-2.27
-1.81
-1.48
-1.33
-1.37
-1.57
-1.85
-2.12
-2.30
-2.30
-2.08
-1.66
-1.13
-0.63
-0.30
-0.23
-0.41
-0.76
-1.16
-1.50
-1.71
-1.77
-1.72
-1.63
-1.57
-1.65
-1.93
-2.41
-3.05
-3.73
-4.32
-4.72
-4.89
-4.83
-4.59
-4.29
-4.03
-3.89
-3.89
-3.99
-4.08
-4.05
-3.79
-3.31
-2.62
-1.79
-0.81
0.30
1.55
2.92
4.33
5.74
7.12
8.48
9.79
10.93
11.70
12.02
11.94
11.76
11.86
12.44
13.36
14.15
14.25
13.24
11.08
8.13
4.90
1.87
-0.70
-2.78
-4.44
-5.72
-6.64
-7.16
-7.29
-7.12
-6.78
-6.42
-6.12
-5.91
-5.76
-5.64
-5.51
-5.32
-5.07
-4.70
-4.21
-3.61
-2.99
-2.45
-2.08
-1.87
-1.75
-1.60
-1.34
-1.02
-0.78
-0.74
-0.93
-1.25
-1.52
-1.60
-1.44
-1.16
-0.90
-0.77
-0.79
-0.89
-0.97
-1.01
-1.05
-1.15
-1.38
-1.68
-1.96
-2.13
-2.11
-1.96
-1.76
-1.59
-1.47
-1.37
-1.22
-0.99
-0.70
-0.38
-0.08
0.20
0.48
0.77
1.04
1.26
1.38
1.41
1.38
1.32
1.22
1.08
0.92
0.79
0.79
0.98
1.30
1.64
1.83
1.76
1.47
1.09
0.77
0.62
0.58
0.52
0.29
-0.20
-0.89
-1.66
-2.37
-2.90
-3.26
-3.52
-3.74
-3.96
-4.18
-4.36
-4.46
-4.46
-4.40
-4.29
-4.12
-3.86
-3.45
-2.87
-2.15
-1.35
-0.57
0.14
0.75
1.29
1.82
2.39
3.03
3.70
4.31
4.73
4.87
4.69
4.27
3.77
3.30
2.96
2.74
2.58
2.44
2.30
2.15
1.99
1.81
1.57
1.27
0.92
0.54
0.14
-0.30
-0.79
-1.33
-1.87
-2.34
-2.72
-2.99
-3.20
-3.36
-3.48
-3.54
-3.53
-3.49
-3.46
-3.47
-3.51
-3.50
-3.40
-3.21
-2.98
-2.74
-2.51
-2.25
-1.92
-1.50
-1.04
-0.57
-0.12
0.39
1.05
1.91
2.93
3.92
4.66
5.01
4.96
4.68
4.38
4.22
4.23
4.31
4.28
3.98
3.39
2.56
1.64
0.84
0.28
0.05
0.14
0.44
0.79
1.05
1.13
1.06
0.97
1.00
1.27
1.84
2.67
3.69
4.78
5.85
6.76
7.39
7.61
7.36
6.67
5.67
4.55
3.49
2.62
1.92
1.29
0.58
-0.33
-1.49
-2.80
-4.08
-5.12
-5.79
-6.04
-5.99
-5.82
-5.66
-5.58
-5.57
-5.55
-5.46
-5.27
-5.00
-4.67
-4.30
-3.91
-3.52
-3.15
-2.78
-2.38
-1.90
-1.33
-0.70
-0.11
0.32
0.53
0.54
0.47
0.47
0.60
0.86
1.14
1.31
1.30
1.17
1.02
0.94
0.94
0.94
0.84
0.56
0.13
-0.37
-0.77
-0.94
-0.82
-0.39
0.28
1.11
1.95
2.65
3.07
3.17
2.98
2.58
2.12
1.66
1.21
0.73
0.19
-0.40
-1.00
-1.56
-2.08
-2.60
-3.22
-3.98
-4.90
-5.89
-6.82
-7.53
-7.88
-7.81
-7.29
-6.38
-5.22
-3.97
-2.85
-2.01
-1.50
-1.27
-1.13
-0.84
-0.22
0.82
2.22
3.78
5.23
6.28
6.75
6.54
5.74
4.50
3.07
1.67
0.47
-0.44
-1.09
-1.54
-1.85
-2.06
-2.15
-2.13
-2.02
-1.82
-1.54
-1.07
-0.28
0.98
2.73
4.83
6.94
8.68
9.72
9.92
9.27
7.88
5.93
3.62
1.17
-1.16
-3.14
-4.61
-5.60
-6.32
-7.07
-8.12
-9.56
-11.27
-12.96
-14.26
-14.85
-14.56
-13.37
-11.45
-9.04
-6.44
-3.92
-1.73
-0.05
0.93
1.12
0.46
-0.98
-3.02
-5.42
-7.92
-10.31
-12.46
-14.31
-15.76
-16.63
-16.71
-15.77
-13.70
-10.52
-6.46
-1.86
2.88
7.36
11.31
14.63
17.36
19.64
21.59
23.21
24.37
24.92
24.75
23.97
22.87
21.81
21.13
20.99
21.31
21.82
22.13
21.84
20.68
18.52
15.53
12.07
8.69
5.88
3.96
3.04
2.97
3.52
4.45
5.55
6.68
7.69
8.46
8.89
8.89
8.42
7.45
5.97
3.99
1.59
-1.07
-3.79
-6.32
-8.45
-9.98
-10.74
-10.65
-9.76
-8.30
-6.66
-5.28
-4.47
-4.29
-4.52
-4.88
-5.08
-5.05
-4.82
-4.47
-3.99
-3.30
-2.33
-1.11
0.17
1.30
2.08
2.51
2.73
2.94
3.31
3.88
4.59
5.23
5.55
5.26
4.09
1.90
-1.27
-5.11
-9.11
-12.70
-15.43
-17.05
-17.59
-17.22
-16.19
-14.67
-12.84
-10.82
-8.73
-6.64
-4.54
-2.35
0.02
2.58
5.10
7.22
8.48
8.57
7.45
5.40
2.92
0.53
-1.39
-2.66
-3.36
-3.73
-4.05
-4.54
-5.26
-6.14
-6.99
-7.65
-8.08
-8.35
-8.58
-8.87
-9.19
-9.47
-9.63
-9.73
-9.95
-10.54
-11.63
-13.17
-14.92
-16.56
-17.81
-18.53
-18.69
-18.33
-17.45
-15.95
-13.73
-10.72
-6.98
-2.70
1.81
6.20
10.19
13.54
16.08
17.71
18.36
18.10
17.14
15.83
14.58
13.71
13.38
13.51
13.89
14.27
14.44
14.27
13.74
12.89
11.82
10.69
9.66
8.89
8.41
8.17
7.98
7.69
7.17
6.40
5.39
4.24
2.99
1.73
0.58
-0.33
-0.83
-0.85
-0.39
0.46
1.53
2.64
3.60
4.26
4.52
4.39
4.02
3.61
3.34
3.31
3.44
3.60
3.64
3.52
3.31
3.11
2.98
2.88
2.71
2.38
1.87
1.26
0.63
0.04
-0.52
-1.12
-1.79
-2.49
-3.12
-3.59
-3.80
-3.79
-3.68
-3.66
-3.86
-4.32
-4.96
-5.59
-6.02
-6.18
-6.09
-5.88
-5.67
-5.55
-5.51
-5.51
-5.47
-5.36
-5.14
-4.80
-4.35
-3.78
-3.14
-2.49
-1.92
-1.56
-1.47
-1.69
-2.17
-2.79
-3.37
-3.76
-3.92
-3.91
-3.89
-4.01
-4.33
-4.72
-5.00
-4.92
-4.41
-3.53
-2.55
-1.75
-1.38
-1.53
-2.15
-3.14
-4.30
-5.40
-6.16
-6.23
-5.37
-3.58
-1.18
1.22
2.94
3.43
2.51
0.37
-2.51
-5.54
-8.17
-9.94
-10.58
-9.94
-8.08
-5.29
-1.96
1.44
4.61
7.40
9.87
12.14
14.31
16.31
17.99
19.11
19.43
18.83
17.37
15.24
12.75
10.18
7.66
5.22
2.74
0.11
-2.65
-5.36
-7.66
-9.18
-9.62
-8.93
-7.29
-5.05
-2.59
-0.26
1.75
3.35
4.53
5.34
5.84
6.13
6.39
6.82
7.60
8.74
10.09
11.33
12.10
12.13
11.34
9.83
7.89
5.88
4.15
2.94
2.31
2.15
2.21
2.20
1.88
1.19
0.21
-0.85
-1.78
-2.45
-2.85
-3.08
-3.27
-3.46
-3.63
-3.70
-3.59
-3.31
-2.96
-2.69
-2.60
-2.73
-3.02
-3.36
-3.65
-3.84
-3.93
-3.93
-3.86
-3.71
-3.49
-3.22
-2.90
-2.56
-2.21
-1.89
-1.60
-1.36
-1.17
-1.01
-0.90
-0.85
-0.88
-1.01
-1.21
-1.43
-1.60
-1.65
-1.60
-1.53
-1.58
-1.85
-2.42
-3.21
-4.08
-4.85
-5.35
-5.53
-5.41
-5.13
-4.85
-4.73
-4.87
-5.30
-5.97
-6.74
-7.44
-7.90
-8.05
-7.98
-7.88
-8.02
-8.55
-9.43
-10.36
-10.85
-10.31
-8.30
-4.72
0.14
5.58
10.69
14.67
17.00
17.58
16.69
14.74
12.20
9.40
6.53
3.74
1.11
-1.27
-3.39
-5.31
-7.15
-9.02
-10.93
-12.75
-14.19
-14.92
-14.70
-13.45
-11.30
-8.55
-5.53
-2.57
0.14
2.53
4.64
6.63
8.68
10.94
13.52
16.37
19.33
22.15
24.52
26.22
27.07
27.02
26.10
24.41
22.06
19.20
16.00
12.65
9.33
6.22
3.40
0.93
-1.24
-3.21
-5.04
-6.77
-8.34
-9.66
-10.64
-11.31
-11.79
-12.26
-12.81
-13.38
-13.73
-13.49
-12.36
-10.24
-7.30
-3.95
-0.66
2.23
4.58
6.47
8.05
9.40
10.44
10.98
10.87
10.10
8.87
7.48
6.24
5.28
4.55
3.88
3.09
2.21
1.42
1.01
1.18
1.87
2.74
3.33
3.21
2.25
0.68
-0.99
-2.27
-2.89
-2.93
-2.69
-2.56
-2.70
-2.97
-2.91
-1.95
0.36
4.16
9.13
14.57
19.54
23.05
24.30
22.85
18.66
12.12
3.93
-4.98
-13.70
-21.48
-27.86
-32.71
-36.14
-38.37
-39.59
-39.96
-39.59
-38.64
-37.32
-35.79
-34.11
-32.21
-29.93
-27.18
-24.01
-20.65
-17.40
-14.53
-12.15
-10.25
-8.72
-7.49
-6.51
-5.72
-5.02
-4.18
-2.97
-1.19
1.15
3.82
6.43
8.53
9.82
10.22
9.94
9.33
8.81
8.69
9.09
9.91
10.91
11.79
12.31
12.38
12.07
11.58
11.12
10.84
10.78
10.90
11.14
11.43
11.74
12.02
12.25
12.45
12.67
12.98
13.44
14.03
14.62
15.05
15.17
14.92
14.37
13.63
12.84
12.07
11.34
10.66
9.98
9.31
8.61
7.88
7.11
6.31
5.55
4.93
4.57
4.52
4.67
4.81
4.74
4.32
3.64
2.90
2.33
2.04
1.94
1.81
1.45
0.82
0.04
-0.66
-1.12
-1.33
-1.41
-1.49
-1.68
-1.95
-2.20
-2.32
-2.26
-2.04
-1.71
-1.39
-1.14
-1.04
-1.07
-1.20
-1.34
-1.44
-1.45
-1.40
-1.30
-1.19
-1.07
-0.91
-0.72
-0.49
-0.25
-0.00
0.25
0.54
0.87
1.24
1.66
2.15
2.79
3.68
4.86
6.28
7.80
9.22
10.41
11.34
12.14
12.98
14.03
15.30
16.70
18.01
18.97
19.46
19.46
19.17
18.87
18.91
19.46
20.41
21.31
21.41
19.95
16.42
10.86
3.98
-3.04
-8.98
-13.08
-15.30
-16.24
-16.75
-17.49
-18.69
-20.23
-21.83
-23.17
-23.98
-23.96
-22.79
-20.35
-16.95
-13.39
-10.66
-9.43
-9.68
-10.68
-11.43
-11.30
-10.37
-9.29
-8.86
-9.48
-11.04
-13.08
-15.22
-17.39
-19.74
-22.37
-25.14
-27.61
-29.36
-30.15
-30.03
-29.28
-28.15
-26.75
-25.10
-23.19
-21.09
-18.84
-16.42
-13.71
-10.53
-6.86
-2.90
0.94
4.26
6.87
8.86
10.46
11.87
13.07
13.87
14.03
13.49
12.40
11.12
10.03
9.39
9.29
9.64
10.32
11.17
12.07
12.90
13.55
13.91
13.94
13.70
13.34
13.09
13.11
13.41
13.83
14.06
13.83
13.00
11.62
9.87
7.97
6.09
4.39
3.01
2.12
1.88
2.29
3.10
3.86
4.08
3.50
2.24
0.73
-0.51
-1.12
-1.07
-0.56
0.09
0.65
1.04
1.30
1.49
1.59
1.52
1.18
0.61
-0.07
-0.67
-1.07
-1.25
-1.33
-1.48
-1.82
-2.37
-3.06
-3.81
-4.54
-5.23
-5.88
-6.46
-6.94
-7.31
-7.58
-7.84
-8.14
-8.48
-8.79
-8.96
-8.88
-8.54
-8.03
-7.48
-7.03
-6.76
-6.71
-6.78
-6.87
-6.81
-6.51
-5.96
-5.27
-4.64
-4.19
-4.00
-3.97
-3.95
-3.82
-3.57
-3.26
-2.99
-2.81
-2.64
-2.39
-1.99
-1.48
-0.98
-0.62
-0.48
-0.53
-0.69
-0.83
-0.89
-0.83
-0.70
-0.55
-0.46
-0.46
-0.54
-0.63
-0.64
-0.53
-0.27
0.09
0.46
0.82
1.13
1.41
1.63
1.73
1.65
1.38
0.99
0.62
0.35
0.19
0.05
-0.23
-0.69
-1.26
-1.79
-2.09
-2.10
-1.84
-1.48
-1.17
-1.01
-1.00
-1.05
-1.06
-0.94
-0.68
-0.33
0.00
0.20
0.20
0.04
-0.19
-0.37
-0.40
-0.23
0.08
0.44
0.73
0.89
0.91
0.86
0.87
1.00
1.29
1.67
2.01
2.21
2.24
2.13
1.99
1.90
1.85
1.76
1.51
1.07
0.50
-0.04
-0.36
-0.36
-0.07
0.33
0.66
0.79
0.72
0.54
0.35
0.21
0.12
0.04
-0.08
-0.22
-0.32
-0.34
-0.25
-0.06
0.17
0.37
0.49
0.52
0.52
0.55
0.67
0.88
1.11
1.24
1.14
0.75
0.09
-0.74
-1.62
-2.46
-3.19
-3.83
-4.41
-4.94
-5.45
-5.97
-6.45
-6.87
-7.16
-7.27
-7.19
-6.96
-6.62
-6.21
-5.75
-5.22
-4.62
-3.99
-3.39
-2.85
-2.37
-1.86
-1.23
-0.42
0.52
1.48
2.33
3.02
3.53
3.91
4.20
4.40
4.49
4.47
4.39
4.30
4.29
4.35
4.38
4.30
4.05
3.65
3.23
2.92
2.79
2.83
2.95
3.04
3.04
2.93
2.74
2.51
2.30
2.13
2.02
1.96
1.93
1.86
1.70
1.47
1.22
1.05
1.03
1.15
1.34
1.46
1.42
1.17
0.77
0.31
-0.11
-0.42
-0.58
-0.58
-0.47
-0.31
-0.17
-0.11
-0.15
-0.27
-0.43
-0.57
-0.64
-0.62
-0.49
-0.26
0.03
0.32
0.52
0.58
0.45
0.20
-0.06
-0.21
-0.19
-0.03
0.18
0.34
0.43
0.47
0.53
0.67
0.89
1.14
1.34
1.45
1.44
1.36
1.26
1.18
1.14
1.16
1.22
1.28
1.30
1.24
1.10
0.89
0.68
0.53
0.47
0.51
0.58
0.62
0.58
0.46
0.27
0.06
-0.17
-0.41
-0.66
-0.89
-1.04
-1.04
-0.89
-0.66
-0.46
-0.39
-0.50
-0.72
-0.91
-0.94
-0.73
-0.33
0.12
0.50
0.68
0.64
0.45
0.19
-0.06
-0.24
-0.32
-0.31
-0.19
0.04
0.37
0.74
1.04
1.16
1.07
0.79
0.46
0.18
0.05
0.06
0.14
0.20
0.19
0.13
0.02
-0.09
-0.23
-0.42
-0.67
-0.97
-1.29
-1.54
-1.66
-1.63
-1.43
-1.13
-0.81
-0.55
-0.38
-0.30
-0.26
-0.22
-0.19
-0.20
-0.23
-0.24
-0.12
0.23
0.78
1.42
1.94
2.20
2.15
1.91
1.61
1.35
1.12
0.87
0.54
0.19
-0.06
-0.11
0.03
0.27
0.47
0.55
0.50
0.42
0.39
0.42
0.51
0.60
0.65
0.64
0.59
0.46
0.25
-0.03
-0.33
-0.59
-0.76
-0.86
-0.93
-1.02
-1.16
-1.34
-1.50
-1.61
-1.65
-1.61
-1.51
-1.35
-1.16
-0.93
-0.67
-0.39
-0.11
0.13
0.29
0.34
0.31
0.24
0.24
0.38
0.70
1.13
1.58
1.91
2.05
1.99
1.78
1.53
1.29
1.15
1.11
1.19
1.34
1.53
1.67
1.72
1.62
1.37
0.99
0.52
0.03
-0.41
-0.71
-0.80
-0.68
-0.41
-0.10
0.12
0.16
0.02
-0.27
-0.63
-0.99
-1.31
-1.52
-1.58
-1.44
-1.13
-0.74
-0.36
-0.09
0.05
0.11
0.14
0.20
0.28
0.36
0.42
0.50
0.63
0.85
1.11
1.35
1.49
1.50
1.38
1.19
1.04
0.98
1.06
1.24
1.48
1.69
1.79
1.73
1.51
1.19
0.88
0.69
0.68
0.82
0.98
1.01
0.79
0.32
-0.28
-0.83
-1.18
-1.24
-1.10
-0.90
-0.79
-0.89
-1.19
-1.64
-2.15
-2.59
-2.89
-3.03
-3.01
-2.90
-2.75
-2.61
-2.50
-2.39
-2.28
-2.13
-1.96
-1.77
-1.60
-1.46
-1.38
-1.37
-1.42
-1.50
-1.54
-1.51
-1.36
-1.08
-0.73
-0.37
-0.07
0.14
0.25
0.28
0.25
0.18
0.08
-0.07
-0.25
-0.45
-0.64
-0.78
-0.83
-0.77
-0.63
-0.48
-0.39
-0.40
-0.51
-0.68
-0.83
-0.92
-0.94
-0.88
-0.80
-0.69
-0.58
-0.45
-0.32
-0.18
-0.04
0.10
0.28
0.52
0.83
1.20
1.58
1.90
2.11
2.18
2.16
2.11
2.13
2.23
2.40
2.59
2.72
2.76
2.73
2.68
2.64
2.64
2.65
2.65
2.61
2.56
2.51
2.50
2.56
2.66
2.74
2.74
2.64
2.44
2.20
2.00
1.88
1.80
1.72
1.56
1.33
1.07
0.84
0.67
0.51
0.28
-0.08
-0.51
-0.91
-1.16
-1.21
-1.10
-0.93
-0.78
-0.66
-0.56
-0.44
-0.29
-0.16
-0.06
-0.01
0.08
0.29
0.68
1.18
1.70
2.07
2.18
2.01
1.61
1.11
0.65
0.34
0.23
0.27
0.39
0.48
0.52
0.48
0.40
0.29
0.17
-0.00
-0.23
-0.50
-0.75
-0.94
-1.06
-1.15
-1.32
-1.65
-2.15
-2.74
-3.30
-3.73
-4.01
-4.20
-4.40
-4.67
-5.01
-5.35
-5.61
-5.76
-5.79
-5.68
-5.39
-4.82
-3.93
-2.75
-1.47
-0.29
0.61
1.19
1.57
1.90
2.32
2.80
3.23
3.50
3.56
3.50
3.43
3.47
3.61
3.76
3.79
3.65
3.37
3.09
2.92
2.93
3.06
3.20
3.22
3.04
2.68
2.19
1.68
1.24
0.91
0.70
0.58
0.52
0.48
0.40
0.25
-0.00
-0.36
-0.76
-1.16
-1.48
-1.69
-1.78
-1.78
-1.69
-1.53
-1.32
-1.12
-1.00
-1.04
-1.25
-1.55
-1.79
-1.80
-1.50
-0.96
-0.35
0.14
0.37
0.35
0.21
0.09
0.07
0.15
0.27
0.39
0.49
0.59
0.73
0.90
1.07
1.18
1.21
1.11
0.92
0.66
0.41
0.22
0.11
0.08
0.07
0.02
-0.08
-0.22
-0.33
-0.37
-0.32
-0.26
-0.25
-0.37
-0.62
-0.95
-1.28
-1.53
-1.66
-1.70
-1.70
-1.68
-1.65
-1.60
-1.48
-1.29
-1.05
-0.82
-0.62
-0.44
-0.26
-0.05
0.22
0.51
0.77
0.97
1.07
1.09
1.04
0.98
0.98
1.09
1.30
1.59
1.86
2.05
2.11
2.05
1.91
1.72
1.49
1.23
0.97
0.75
0.63
0.66
0.77
0.89
0.92
0.79
0.51
0.16
-0.14
-0.30
-0.27
-0.11
0.07
0.16
0.10
-0.10
-0.37
-0.65
-0.94
-1.28
-1.70
-2.19
-2.67
-3.04
-3.19
-3.12
-2.91
-2.65
-2.39
-2.13
-1.79
-1.33
-0.78
-0.27
0.07
0.14
0.00
-0.18
-0.20
0.06
0.61
1.27
1.83
2.14
2.17
2.04
1.90
1.80
1.73
1.57
1.26
0.83
0.44
0.24
0.34
0.67
1.09
1.44
1.63
1.66
1.58
1.42
1.21
0.96
0.70
0.49
0.38
0.37
0.40
0.40
0.30
0.11
-0.13
-0.35
-0.55
-0.72
-0.88
-1.01
-1.10
-1.12
-1.09
-1.02
-0.93
-0.82
-0.70
-0.58
-0.51
-0.53
-0.66
-0.86
-1.05
-1.16
-1.10
-0.88
-0.54
-0.14
0.26
0.60
0.87
1.04
1.12
1.09
0.99
0.85
0.73
0.65
0.61
0.62
0.63
0.62
0.56
0.46
0.32
0.21
0.17
0.24
0.40
0.59
0.72
0.71
0.56
0.32
0.06
-0.15
-0.29
-0.39
-0.53
-0.71
-0.91
-1.03
-1.01
-0.87
-0.71
-0.66
-0.84
-1.25
-1.76
-2.21
-2.43
-2.36
-2.03
-1.57
-1.10
-0.71
-0.45
-0.30
-0.22
-0.19
-0.15
-0.05
0.15
0.47
0.86
1.22
1.49
1.61
1.61
1.55
1.48
1.42
1.35
1.20
0.98
0.71
0.46
0.32
0.34
0.49
0.73
0.96
1.11
1.15
1.07
0.88
0.64
0.35
0.03
-0.30
-0.63
-0.90
-1.03
-0.98
-0.78
-0.54
-0.39
-0.44
-0.70
-1.07
-1.44
-1.65
-1.68
-1.57
-1.38
-1.15
-0.89
-0.58
-0.19
0.19
0.50
0.64
0.59
0.43
0.24
0.12
0.09
0.09
0.11
0.12
0.17
0.31
0.56
0.86
1.12
1.25
1.24
1.13
1.01
0.97
1.02
1.14
1.25
1.32
1.31
1.25
1.16
1.04
0.89
0.71
0.52
0.34
0.23
0.22
0.29
0.39
0.43
0.34
0.09
-0.28
-0.70
-1.07
-1.34
-1.50
-1.57
-1.59
-1.57
-1.53
-1.45
-1.33
-1.18
-1.06
-1.02
-1.09
-1.23
-1.34
-1.29
-1.01
-0.53
0.03
0.53
0.83
0.92
0.82
0.62
0.42
0.27
0.24
0.34
0.55
0.80
1.02
1.11
1.03
0.85
0.66
0.59
0.66
0.85
1.06
1.21
1.25
1.19
1.06
0.88
0.68
0.46
0.26
0.11
0.06
0.15
0.38
0.68
0.99
1.20
1.26
1.17
0.96
0.68
0.38
0.07
-0.22
-0.49
-0.72
-0.91
-1.04
-1.13
-1.20
-1.27
-1.32
-1.36
-1.36
-1.33
-1.32
-1.34
-1.37
-1.41
-1.41
-1.35
-1.23
-1.05
-0.80
-0.50
-0.19
0.09
0.24
0.24
0.07
-0.20
-0.46
-0.64
-0.66
-0.51
-0.24
0.11
0.47
0.80
1.03
1.16
1.18
1.13
1.05
0.97
0.89
0.80
0.70
0.61
0.60
0.68
0.87
1.10
1.28
1.29
1.07
0.61
-0.01
-0.65
-1.14
-1.37
-1.31
-1.04
-0.70
-0.45
-0.39
-0.52
-0.76
-1.01
-1.19
-1.28
-1.28
-1.22
-1.11
-0.96
-0.75
-0.49
-0.17
0.23
0.68
1.10
1.41
1.52
1.39
1.09
0.75
0.51
0.46
0.58
0.79
1.00
1.16
1.24
1.22
1.10
0.88
0.57
0.25
0.03
-0.04
0.05
0.22
0.37
0.42
0.37
0.27
0.20
0.20
0.22
0.21
0.11
-0.08
-0.32
-0.52
-0.63
-0.64
-0.59
-0.55
-0.58
-0.72
-0.95
-1.27
-1.64
-1.96
-2.15
-2.11
-1.86
-1.45
-1.05
-0.77
-0.66
-0.63
-0.57
-0.36
0.02
0.49
0.89
1.10
1.09
0.89
0.60
0.31
0.08
-0.05
-0.11
-0.12
-0.07
0.04
0.25
0.55
0.89
1.17
1.27
1.15
0.83
0.46
0.16
0.03
0.06
0.19
0.31
0.40
0.45
0.51
0.56
0.58
0.49
0.27
-0.02
-0.24
-0.29
-0.11
0.19
0.42
0.41
0.08
-0.49
-1.10
-1.55
-1.71
-1.60
-1.36
-1.13
-0.99
-0.93
-0.89
-0.79
-0.62
-0.43
-0.30
-0.27
-0.29
-0.31
-0.22
0.02
0.37
0.72
0.96
1.00
0.84
0.56
0.30
0.17
0.21
0.37
0.54
0.63
0.59
0.44
0.25
0.10
0.07
0.17
0.38
0.64
0.90
1.09
1.15
1.06
0.81
0.40
-0.10
-0.62
-1.03
-1.22
-1.13
-0.83
-0.45
-0.20
-0.18
-0.39
-0.70
-0.94
-0.99
-0.86
-0.63
-0.41
-0.26
-0.20
-0.17
-0.14
-0.07
0.04
0.17
0.35
0.55
0.75
0.89
0.93
0.87
0.76
0.71
0.76
0.91
1.10
1.20
1.14
0.90
0.55
0.22
-0.01
-0.10
-0.07
0.02
0.13
0.25
0.35
0.40
0.36
0.17
-0.15
-0.55
-0.88
-1.02
-0.94
-0.69
-0.43
-0.34
-0.50
-0.87
-1.31
-1.63
-1.72
-1.58
-1.35
-1.12
-0.98
-0.84
-0.60
-0.20
0.33
0.83
1.14
1.20
1.09
0.98
1.01
1.20
1.46
1.64
1.67
1.57
1.42
1.32
1.28
1.23
1.08
0.79
0.41
0.06
-0.14
-0.14
0.04
0.32
0.58
0.76
0.79
0.63
0.30
-0.13
-0.54
-0.76
-0.73
-0.48
-0.11
0.20
0.32
0.20
-0.12
-0.53
-0.93
-1.24
-1.41
-1.44
-1.36
-1.24
-1.13
-1.08
-1.06
-1.00
-0.82
-0.50
-0.11
0.23
0.42
0.43
0.32
0.23
0.26
0.42
0.65
0.85
0.92
0.83
0.63
0.42
0.26
0.18
0.18
0.22
0.24
0.24
0.21
0.17
0.11
0.01
-0.17
-0.48
-0.93
-1.50
-2.13
-2.74
-3.24
-3.57
-3.75
-3.85
-4.02
-4.44
-5.24
-6.47
-8.04
-9.79
-11.52
-13.10
-14.46
-15.62
-16.61
-17.45
-18.18
-18.81
-19.40
-19.95
-20.39
-20.48
-19.83
-18.07
-15.01
-10.78
-5.82
-0.76
3.83
7.61
10.48
12.55
13.91
14.64
14.74
14.28
13.39
12.34
11.41
10.81
10.61
10.74
11.07
11.47
11.86
12.25
12.68
13.18
13.77
14.42
15.04
15.56
15.92
16.08
16.02
15.69
15.05
14.06
12.77
11.34
9.99
8.88
8.08
7.55
7.13
6.73
6.30
5.87
5.43
4.96
4.41
3.75
3.04
2.43
2.05
1.94
1.96
1.88
1.49
0.72
-0.35
-1.50
-2.48
-3.16
-3.50
-3.61
-3.61
-3.59
-3.61
-3.69
-3.83
-4.05
-4.36
-4.70
-4.94
-4.91
-4.41
-3.36
-1.82
0.02
1.89
3.50
4.66
5.29
5.47
5.32
5.02
4.71
4.43
4.17
3.86
3.42
2.85
2.17
1.46
0.81
0.25
-0.20
-0.53
-0.75
-0.84
-0.82
-0.77
-0.81
-1.07
-1.67
-2.57
-3.65
-4.67
-5.44
-5.81
-5.79
-5.49
-5.05
-4.65
-4.40
-4.35
-4.46
-4.66
-4.81
-4.83
-4.68
-4.43
-4.19
-4.08
-4.16
-4.41
-4.73
-4.99
-5.08
-4.93
-4.50
-3.83
-3.01
-2.19
-1.54
-1.15
-1.02
-1.04
-1.06
-0.99
-0.82
-0.60
-0.43
-0.32
-0.26
-0.20
-0.14
-0.09
-0.11
-0.22
-0.38
-0.50
-0.55
-0.51
-0.44
-0.41
-0.48
-0.64
-0.83
-0.97
-1.01
-0.94
-0.81
-0.70
-0.67
-0.71
-0.77
-0.76
-0.60
-0.24
0.24
0.72
1.06
1.19
1.12
0.92
0.71
0.54
0.46
0.47
0.55
0.68
0.82
0.95
1.01
0.97
0.85
0.66
0.43
0.19
-0.08
-0.39
-0.70
-1.00
-1.19
-1.24
-1.11
-0.83
-0.48
-0.15
0.06
0.11
-0.02
-0.26
-0.53
-0.77
-0.96
-1.12
-1.28
-1.48
-1.67
-1.83
-1.90
-1.85
-1.71
-1.48
-1.20
-0.87
-0.54
-0.24
-0.01
0.10
0.12
0.08
0.01
-0.09
-0.23
-0.40
-0.51
-0.46
-0.11
0.53
1.31
1.97
2.28
2.12
1.60
0.96
0.47
0.25
0.27
0.37
0.39
0.25
0.04
-0.12
-0.11
0.08
0.36
0.60
0.68
0.57
0.32
-0.00
-0.33
-0.63
-0.92
-1.22
-1.52
-1.79
-2.00
-2.12
-2.18
-2.21
-2.25
-2.32
-2.42
-2.49
-2.51
-2.43
-2.26
-2.04
-1.87
-1.82
-1.97
-2.30
-2.77
-3.23
-3.60
-3.81
-3.85
-3.77
-3.63
-3.48
-3.40
-3.46
-3.75
-4.31
-5.09
-5.96
-6.77
-7.37
-7.69
-7.79
-7.78
-7.77
-7.87
-8.06
-8.30
-8.48
-8.49
-8.27
-7.77
-6.98
-5.92
-4.59
-3.03
-1.28
0.58
2.49
4.40
6.31
8.28
10.36
12.54
14.71
16.67
18.18
19.07
19.31
19.00
18.37
17.63
16.98
16.52
16.30
16.29
16.41
16.54
16.55
16.34
15.88
15.22
14.42
13.59
12.77
11.96
11.11
10.15
8.98
7.58
5.98
4.26
2.54
0.88
-0.74
-2.45
-4.37
-6.55
-8.88
-11.12
-12.97
-14.23
-14.80
-14.75
-14.20
-13.31
-12.23
-11.15
-10.24
-9.67
-9.54
-9.83
-10.37
-10.91
-11.23
-11.20
-10.82
-10.17
-9.42
-8.70
-8.11
-7.72
-7.51
-7.43
-7.40
-7.32
-7.13
-6.79
-6.30
-5.68
-4.96
-4.17
-3.36
-2.64
-2.08
-1.74
-1.64
-1.73
-1.91
-2.11
-2.31
-2.57
-2.97
-3.58
-4.40
-5.35
-6.33
-7.22
-7.94
-8.40
-8.50
-8.15
-7.35
-6.18
-4.84
-3.56
-2.46
-1.53
-0.62
0.42
1.68
3.14
4.66
6.11
7.40
8.53
9.56
10.48
11.24
11.70
11.73
11.31
10.58
9.83
9.39
9.53
10.29
11.45
12.63
13.45
13.66
13.28
12.49
11.56
10.69
9.94
9.24
8.47
7.53
6.44
5.29
4.28
3.56
3.24
3.31
3.69
4.21
4.71
5.08
5.27
5.25
4.98
4.43
3.54
2.38
1.09
-0.13
-1.05
-1.61
-1.84
-1.93
-2.06
-2.34
-2.78
-3.28
-3.77
-4.21
-4.64
-5.11
-5.64
-6.20
-6.69
-7.05
-7.23
-7.28
-7.28
-7.29
-7.37
-7.47
-7.53
-7.43
-7.12
-6.63
-6.02
-5.43
-4.96
-4.68
-4.63
-4.75
-4.96
-5.17
-5.29
-5.28
-5.15
-4.96
-4.83
-4.79
-4.86
-4.96
-4.94
-4.61
-3.85
-2.57
-0.85
1.15
3.18
4.98
6.37
7.26
7.70
7.78
7.62
7.34
7.00
6.70
6.53
6.59
6.97
7.64
8.52
9.43
10.18
10.61
10.64
10.28
9.61
8.73
7.76
6.72
5.62
4.40
3.05
1.62
0.21
-1.02
-1.97
-2.65
-3.18
-3.78
-4.65
-5.85
-7.33
-8.92
-10.42
-11.76
-12.95
-14.11
-15.37
-16.79
-18.31
-19.77
-20.96
-21.62
-21.60
-20.84
-19.43
-17.60
-15.63
-13.78
-12.19
-10.88
-9.72
-8.60
-7.41
-6.15
-4.88
-3.73
-2.88
-2.41
-2.36
-2.60
-2.91
-3.10
-3.07
-2.94
-2.96
-3.36
-4.19
-5.26
-6.27
-6.94
-7.20
-7.16
-7.03
-6.93
-6.84
-6.56
-5.90
-4.71
-2.94
-0.63
2.13
5.28
8.69
12.18
15.47
18.35
20.67
22.49
23.99
25.38
26.75
27.97
28.74
28.74
27.82
26.14
24.11
22.26
20.98
20.37
20.20
20.04
19.46
18.20
16.27
13.86
11.26
8.73
6.42
4.35
2.48
0.77
-0.78
-2.16
-3.35
-4.34
-5.17
-5.85
-6.36
-6.63
-6.59
-6.20
-5.50
-4.57
-3.57
-2.64
-1.92
-1.52
-1.48
-1.75
-2.17
-2.53
-2.56
-2.14
-1.33
-0.34
0.50
0.92
0.82
0.30
-0.41
-1.09
-1.57
-1.79
-1.81
-1.70
-1.59
-1.61
-1.84
-2.34
-3.06
-3.86
-4.52
-4.90
-4.93
-4.71
-4.38
-4.07
-3.84
-3.64
-3.41
-3.07
-2.63
-2.14
-1.67
-1.29
-1.05
-0.94
-0.94
-0.95
-0.85
-0.56
-0.04
0.64
1.35
1.92
2.27
2.35
2.22
1.94
1.62
1.32
1.09
0.95
0.94
1.04
1.25
1.55
1.90
2.24
2.50
2.65
2.66
2.57
2.43
2.27
2.12
1.97
1.82
1.67
1.55
1.50
1.53
1.64
1.76
1.82
1.78
1.67
1.54
1.46
1.46
1.50
1.48
1.28
0.85
0.20
-0.61
-1.47
-2.25
-2.84
-3.12
-3.04
-2.63
-2.01
-1.36
-0.87
-0.62
-0.62
-0.74
-0.89
-0.99
-1.04
-1.08
-1.14
-1.23
-1.31
-1.32
-1.25
-1.10
-0.86
-0.57
-0.21
0.19
0.61
0.97
1.23
1.33
1.29
1.11
0.84
0.52
0.21
-0.04
-0.19
-0.24
-0.25
-0.30
-0.46
-0.77
-1.18
-1.63
-2.02
-2.30
-2.45
-2.51
-2.50
-2.46
-2.43
-2.42
-2.42
-2.43
-2.42
-2.38
-2.26
-2.04
-1.72
-1.35
-0.97
-0.58
-0.22
0.12
0.43
0.69
0.84
0.83
0.62
0.34
0.16
0.29
0.82
1.70
2.79
3.89
4.79
5.44
5.93
6.44
7.04
7.64
8.03
8.07
7.82
7.23
6.36
5.29
4.08
2.72
1.18
-0.47
-2.02
-3.22
-4.27
-5.47
-6.95
-8.52
-9.73
-10.11
-9.38
-7.73
-5.79
-4.98
-6.57
-11.02
-17.80
-25.69
-33.40
-40.07
-45.58
-47.51
-44.71
-37.86
-29.15
-20.59
-13.07
-6.80
-1.77
1.84
4.05
4.71
4.11
2.99
2.20
2.38
3.39
5.30
8.00
11.26
14.43
16.73
17.60
16.91
14.99
12.48
10.21
8.78
8.41
8.66
8.90
8.82
8.44
8.15
8.38
9.29
10.53
11.39
11.04
9.06
5.73
1.78
-1.87
-4.64
-6.40
-7.44
-8.14
-8.71
-9.07
-8.91
-8.00
-6.30
-4.16
-2.09
-0.64
-0.10
-0.43
-1.28
-2.18
-2.74
-2.78
-2.38
-1.76
-1.19
-0.86
-0.76
-0.75
-0.69
-0.50
-0.22
0.04
0.17
0.20
0.26
0.50
0.96
1.46
1.69
1.31
0.22
-1.38
-3.18
-4.86
-6.33
-7.73
-9.28
-11.08
-12.98
-14.61
-15.49
-15.20
-13.59
-10.79
-7.25
-3.56
-0.34
1.99
3.35
3.97
4.31
4.84
5.85
7.38
9.21
11.02
12.56
13.71
14.43
14.76
14.75
14.57
14.46
14.73
15.54
16.90
18.44
19.56
19.66
18.48
16.30
13.75
11.51
9.92
8.88
7.88
6.17
3.17
-1.17
-6.34
-11.44
-15.67
-18.59
-19.90
-19.74
-18.69
-17.55
-17.09
-17.69
-19.47
-22.28
-25.83
-29.01
-30.53
-29.47
-25.62
-19.47
-11.82
-3.51
4.74
12.57
20.75
30.25
41.59
54.43
67.80
80.72
92.45
102.62
106.39
100.52
85.24
64.62
43.75
25.83
11.67
0.66
-8.22
-15.80
-21.79
-25.66
-27.17
-26.50
-24.63
-22.33
-20.17
-18.58
-17.84
-17.48
-16.86
-15.54
-13.58
-11.32
-9.08
-7.07
-5.55
-4.72
-4.40
-4.41
-4.77
-5.73
-7.56
-10.25
-13.40
-16.46
-18.89
-20.19
-20.22
-19.24
-17.89
-16.79
-16.29
-16.35
-16.70
-16.96
-16.90
-16.59
-16.41
-16.86
-18.32
-20.72
-23.48
-25.68
-26.40
-25.05
-21.63
-16.68
-11.06
-5.59
-0.75
3.35
6.83
9.82
12.23
13.82
14.35
13.84
12.68
11.51
10.92
11.18
12.10
13.18
13.84
13.75
12.89
11.52
9.97
8.47
7.06
5.61
4.01
2.20
0.30
-1.46
-2.82
-3.64
-3.93
-3.87
-3.68
-3.50
-3.37
-3.15
-2.72
-2.04
-1.21
-0.46
-0.02
0.01
-0.27
-0.64
-0.90
-0.92
-0.78
-0.61
-0.59
-0.77
-1.09
-1.41
-1.63
-1.71
-1.67
-1.55
-1.38
-1.12
-0.79
-0.45
-0.25
-0.30
-0.67
-1.23
-1.76
-2.02
-1.93
-1.59
-1.22
-1.03
-1.10
-1.32
-1.52
-1.56
-1.39
-1.08
-0.73
-0.43
-0.18
-0.00
0.11
0.14
0.08
-0.00
0.03
0.33
0.94
1.74
2.50
2.93
2.88
2.35
1.45
0.39
-0.68
-1.62
-2.34
-2.73
-2.68
-2.19
-1.34
-0.38
0.44
0.93
1.04
0.90
0.69
0.57
0.58
0.69
0.81
0.91
0.96
1.00
1.03
1.02
0.93
0.75
0.54
0.44
0.61
1.11
1.89
2.77
3.51
3.96
4.08
3.95
3.71
3.46
3.20
2.89
2.51
2.10
1.78
1.60
1.53
1.45
1.22
0.77
0.20
-0.30
-0.52
-0.37
0.09
0.66
1.12
1.33
1.26
0.99
0.65
0.34
0.11
-0.04
-0.10
-0.06
0.04
0.16
0.19
0.04
-0.38
-1.04
-1.82
-2.52
-2.98
-3.09
-2.86
-2.39
-1.82
-1.27
-0.82
-0.51
-0.34
-0.33
-0.48
-0.78
-1.16
-1.51
-1.72
-1.67
-1.37
-0.93
-0.51
-0.31
-0.42
-0.82
-1.40
-2.03
-2.58
-3.00
-3.27
-3.38
-3.31
-3.07
-2.70
-2.27
-1.87
-1.59
-1.45
-1.44
-1.48
-1.49
-1.38
-1.10
-0.67
-0.16
0.29
0.54
0.53
0.30
-0.03
-0.38
-0.68
-0.93
-1.12
-1.19
-1.04
-0.61
0.04
0.70
1.15
1.23
0.98
0.60
0.32
0.31
0.60
1.09
1.62
2.10
2.48
2.75
2.92
2.97
2.87
2.58
2.11
1.46
0.68
-0.16
-0.99
-1.74
-2.32
-2.71
-2.93
-3.06
-3.19
-3.41
-3.74
-4.10
-4.37
-4.42
-4.16
-3.63
-2.94
-2.21
-1.50
-0.84
-0.21
0.39
0.92
1.30
1.49
1.50
1.40
1.30
1.29
1.37
1.50
1.63
1.74
1.85
2.01
2.26
2.55
2.78
2.85
2.71
2.38
1.98
1.63
1.40
1.31
1.29
1.25
1.15
0.99
0.81
0.68
0.62
0.63
0.69
0.74
0.74
0.62
0.36
-0.01
-0.44
-0.84
-1.18
-1.43
-1.62
-1.75
-1.84
-1.89
-1.88
-1.84
-1.78
-1.67
-1.49
-1.19
-0.74
-0.17
0.39
0.78
0.84
0.53
-0.08
-0.78
-1.32
-1.51
-1.24
-0.61
0.19
0.91
1.37
1.54
1.53
1.51
1.59
1.78
2.02
2.22
2.31
2.33
2.29
2.24
2.14
1.95
1.64
1.23
0.81
0.47
0.26
0.20
0.21
0.20
0.10
-0.12
-0.43
-0.76
-1.05
-1.25
-1.34
-1.32
-1.23
-1.07
-0.85
-0.54
-0.19
0.10
0.25
0.23
0.09
-0.04
-0.04
0.12
0.37
0.62
0.76
0.78
0.74
0.71
0.71
0.69
0.69
0.77
1.05
1.57
2.32
3.17
3.92
4.27
4.09
3.52
2.92
2.64
2.86
3.54
4.57
5.83
7.00
7.81
8.30
8.61
8.83
8.84
8.47
7.75
6.98
6.18
5.45
5.05
5.28
6.04
6.81
6.87
5.69
3.12
-1.30
-7.82
-16.23
-25.89
-36.14
-46.36
-55.89
-63.94
-66.06
-59.61
-46.01
-29.91
-15.62
-4.84
2.91
8.77
13.60
17.52
19.59
19.02
16.08
12.12
8.54
6.37
5.83
6.53
7.79
8.54
8.10
6.48
4.35
2.51
1.45
1.22
1.56
1.97
1.88
0.72
-1.64
-4.87
-8.49
-11.99
-15.04
-17.30
-18.49
-18.52
-17.40
-15.27
-12.35
-9.00
-5.53
-2.09
1.50
5.43
9.62
13.50
16.09
16.48
14.30
10.09
5.13
0.95
-0.98
-0.53
1.76
4.87
7.81
9.99
11.37
12.33
13.39
14.05
13.99
12.91
10.66
7.43
3.74
0.30
-2.26
-3.58
-3.63
-2.51
-0.39
2.45
5.67
8.87
11.60
13.47
14.25
13.85
12.42
10.21
7.53
4.77
2.35
0.61
-0.31
-0.54
-0.47
-0.45
-0.67
-1.09
-1.48
-1.57
-1.21
-0.50
0.27
0.80
0.97
0.83
0.63
0.65
1.10
2.01
3.25
4.62
5.88
6.86
7.42
7.44
6.78
5.40
3.44
1.20
-0.86
-2.30
-2.85
-2.56
-1.69
-0.66
0.16
0.54
0.47
0.07
-0.45
-0.92
-1.21
-1.30
-1.25
-1.14
-1.10
-1.25
-1.64
-2.29
-3.07
-3.82
-4.34
-4.47
-4.23
-3.75
-3.24
-2.90
-2.79
-2.86
-2.98
-3.00
-2.84
-2.49
-1.98
-1.36
-0.71
-0.10
0.38
0.68
0.80
0.82
0.83
0.86
0.91
0.88
0.72
0.38
-0.12
-0.76
-1.47
-2.25
-3.07
-3.85
-4.45
-4.69
-4.46
-3.80
-2.90
-2.04
-1.45
-1.22
-1.31
-1.61
-2.01
-2.44
-2.87
-3.26
-3.53
-3.64
-3.57
-3.43
-3.34
-3.35
-3.44
-3.45
-3.18
-2.53
-1.50
-0.26
0.99
2.05
2.82
3.30
3.55
3.69
3.87
4.25
4.95
6.01
7.33
8.70
9.82
10.46
10.50
9.99
9.09
8.04
7.08
6.34
5.85
5.49
5.01
4.10
2.51
0.17
-2.78
-5.97
-9.01
-11.60
-13.62
-15.08
-15.99
-16.33
-16.02
-15.01
-13.37
-11.37
-9.34
-7.59
-6.28
-5.42
-4.86
-4.47
-4.13
-3.78
-3.34
-2.73
-1.90
-0.82
0.40
1.59
2.59
3.29
3.72
4.04
4.40
4.95
5.70
6.61
7.55
8.42
9.14
9.72
10.21
10.65
11.02
11.18
10.93
10.02
8.27
5.75
2.79
-0.01
-1.88
-2.18
-0.55
2.85
7.35
11.95
15.60
17.55
17.59
16.03
13.53
10.73
7.93
5.06
1.80
-2.06
-6.39
-10.73
-14.46
-17.14
-18.74
-19.57
-20.18
-21.04
-22.43
-24.35
-26.48
-28.19
-28.58
-26.67
-21.68
-13.48
-2.84
8.65
18.89
25.98
28.80
27.44
23.19
18.08
14.20
12.98
14.87
19.37
25.47
32.04
38.22
43.39
46.97
48.23
46.38
40.85
31.73
19.93
7.07
-5.05
-14.96
-21.83
-25.47
-26.23
-24.79
-21.99
-18.67
-15.53
-12.80
-10.20
-7.05
-2.66
3.08
9.55
15.48
19.64
21.44
21.26
20.26
19.67
20.18
21.63
23.19
23.80
22.57
19.04
13.22
5.69
-2.52
-10.00
-15.31
-17.40
-16.09
-12.26
-7.68
-4.41
-4.02
-6.98
-12.52
-18.99
-24.55
-27.96
-29.00
-28.56
-28.18
-29.44
-33.27
-39.58
-47.31
-54.83
-60.47
-63.06
-62.17
-58.09
-51.69
-44.10
-36.47
-29.83
-24.95
-22.32
-22.06
-23.81
-26.73
-29.67
-31.50
-31.36
-29.03
-24.87
-19.71
-14.46
-9.82
-6.07
-3.05
-0.28
2.81
6.59
10.98
15.49
19.35
21.91
22.94
22.73
21.96
21.39
21.51
22.45
24.07
26.06
28.17
30.15
31.78
32.75
32.83
31.90
30.08
27.71
25.16
22.66
20.16
17.41
14.08
10.01
5.24
0.05
-5.24
-10.36
-15.12
-19.37
-22.86
-25.17
-25.78
-24.28
-20.58
-15.09
-8.60
-2.06
3.72
8.24
11.32
13.01
13.38
12.55
10.69
8.17
5.57
3.56
2.67
3.09
4.54
6.45
8.13
9.02
8.83
7.57
5.46
2.84
0.13
-2.21
-3.72
-4.02
-2.90
-0.43
3.05
6.95
10.54
13.15
14.28
13.80
11.93
9.27
6.56
4.53
3.58
3.76
4.70
5.74
6.24
5.79
4.31
2.13
-0.29
-2.60
-4.55
-5.97
-6.55
-5.83
-3.47
0.36
4.77
8.36
9.82
8.58
5.19
0.94
-2.74
-5.07
-6.14
-6.53
-6.79
-6.97
-6.64
-5.34
-3.04
-0.24
2.22
3.74
4.26
4.20
4.29
5.03
6.43
8.01
9.10
9.23
8.36
6.91
5.51
4.61
4.32
4.35
4.24
3.66
2.59
1.28
0.11
-0.59
-0.66
0.03
1.56
4.05
7.47
11.49
15.47
18.57
20.05
19.60
17.46
14.29
10.97
8.23
6.47
5.75
5.87
6.54
7.53
8.69
10.00
11.48
13.17
15.05
16.97
18.67
19.88
20.40
20.26
19.66
18.88
18.10
17.28
16.22
14.73
12.73
10.37
7.84
5.20
2.29
-1.23
-5.55
-10.56
-15.74
-20.40
-24.00
-26.36
-27.69
-28.37
-28.67
-28.60
-27.97
-26.57
-24.37
-21.62
-18.74
-16.14
-13.99
-12.21
-10.54
-8.71
-6.71
-4.75
-3.28
-2.64
-2.89
-3.66
-4.32
-4.26
-3.19
-1.27
0.94
2.79
3.86
4.19
4.23
4.70
6.22
9.12
13.26
18.01
22.25
24.55
23.37
17.50
6.51
-8.94
-27.10
-45.48
-61.52
-73.21
-79.50
-80.35
-76.42
-68.79
-58.63
-47.19
-35.71
-25.40
-17.17
-11.45
-8.03
-6.26
-5.23
-4.11
-2.41
0.07
3.23
6.78
10.37
13.70
16.48
18.60
20.09
21.16
22.04
22.95
23.94
24.93
25.77
26.34
26.57
26.46
25.96
25.05
23.70
21.87
19.58
16.87
13.82
10.56
7.35
4.55
2.58
1.76
2.15
3.51
5.30
6.95
8.03
8.40
8.13
7.43
6.41
5.07
3.29
0.97
-1.86
-5.00
-8.10
-10.79
-12.71
-13.57
-13.18
-11.44
-8.44
-4.48
-0.13
3.92
7.11
9.13
10.04
10.15
9.76
8.99
7.76
5.89
3.29
0.11
-3.29
-6.44
-8.87
-10.21
-10.19
-8.67
-5.70
-1.55
3.28
8.18
12.55
15.88
17.79
18.01
16.39
12.96
8.01
2.21
-3.48
-8.03
-10.60
-10.81
-8.79
-5.11
-0.54
4.11
8.12
10.95
12.17
11.55
9.10
5.12
0.19
-4.90
-9.42
-12.89
-15.11
-16.14
-16.10
-15.04
-12.93
-9.83
-6.02
-2.07
1.35
3.67
4.69
4.53
3.56
2.09
0.26
-1.91
-4.38
-6.84
-8.71
-9.26
-8.00
-4.87
-0.39
4.48
8.68
11.41
12.37
11.80
10.28
8.39
6.52
4.71
2.79
0.54
-2.05
-4.75
-7.10
-8.65
-9.11
-8.45
-6.87
-4.72
-2.32
0.06
2.27
4.24
5.90
7.18
8.01
8.30
8.05
7.24
5.89
3.96
1.40
-1.74
-5.25
-8.66
-11.29
-12.48
-11.78
-9.17
-5.09
-0.28
4.50
8.64
11.86
14.10
15.38
15.73
15.10
13.46
10.91
7.67
4.06
0.47
-2.80
-5.54
-7.71
-9.33
-10.51
-11.34
-11.85
-12.01
-11.73
-10.88
-9.34
-7.08
-4.14
-0.75
2.75
5.94
8.35
9.63
9.62
8.42
6.39
4.06
1.97
0.47
-0.31
-0.48
-0.32
-0.12
-0.10
-0.34
-0.80
-1.31
-1.67
-1.65
-1.03
0.30
2.34
4.92
7.74
10.35
12.31
13.29
13.16
12.01
10.10
7.79
5.43
3.34
1.76
0.82
0.50
0.59
0.76
0.59
-0.23
-1.84
-4.17
-6.95
-9.82
-12.42
-14.39
-15.37
-15.11
-13.51
-10.71
-7.14
-3.40
-0.06
2.39
3.71
3.86
2.97
1.33
-0.65
-2.49
-3.76
-4.22
-3.91
-3.14
-2.34
-1.91
-2.03
-2.61
-3.36
-3.93
-4.04
-3.57
-2.59
-1.34
-0.12
0.76
1.10
0.87
0.22
-0.60
-1.30
-1.68
-1.69
-1.39
-0.94
-0.54
-0.40
-0.66
-1.38
-2.50
-3.85
-5.25
-6.52
-7.59
-8.43
-9.06
-9.46
-9.54
-9.18
-8.28
-6.86
-5.07
-3.18
-1.53
-0.40
0.06
-0.08
-0.57
-1.05
-1.25
-1.07
-0.60
-0.12
0.13
0.02
-0.41
-1.05
-1.78
-2.53
-3.25
-3.88
-4.26
-4.23
-3.70
-2.74
-1.60
-0.58
0.02
0.09
-0.31
-0.97
-1.64
-2.07
-2.11
-1.70
-0.95
-0.03
0.86
1.53
1.88
1.89
1.60
1.11
0.53
-0.01
-0.39
-0.53
-0.41
-0.12
0.19
0.38
0.39
0.25
0.09
0.04
0.14
0.39
0.72
1.03
1.25
1.35
1.33
1.23
1.13
1.13
1.32
1.73
2.30
2.90
3.36
3.56
3.48
3.20
2.87
2.60
2.41
2.29
2.24
2.27
2.46
2.87
3.48
4.19
4.83
5.24
5.37
5.26
5.02
4.76
4.57
4.50
4.54
4.57
4.46
4.05
3.20
1.88
0.14
-1.90
-4.09
-6.33
-8.54
-10.61
-12.37
-13.63
-14.11
-13.66
-12.24
-10.03
-7.39
-4.74
-2.44
-0.71
0.42
1.08
1.40
1.52
1.50
1.40
1.29
1.27
1.41
1.68
1.94
2.05
1.90
1.55
1.17
0.99
1.16
1.70
2.44
3.18
3.69
3.86
3.69
3.29
2.84
2.52
2.50
2.86
3.55
4.44
5.27
5.79
5.84
5.39
4.56
3.62
2.83
2.33
2.14
2.13
2.06
1.71
0.92
-0.36
-2.07
-4.05
-6.09
-7.91
-9.30
-10.06
-10.11
-9.43
-8.07
-6.14
-3.83
-1.38
0.93
2.86
4.26
5.11
5.51
5.61
5.52
5.34
5.10
4.83
4.58
4.38
4.27
4.27
4.39
4.64
5.03
5.48
5.86
6.01
5.77
5.07
3.93
2.47
0.79
-1.01
-2.82
-4.53
-5.92
-6.76
-6.85
-6.14
-4.72
-2.86
-0.86
1.00
2.54
3.69
4.41
4.73
4.61
4.10
3.27
2.28
1.34
0.64
0.27
0.23
0.41
0.66
0.86
0.95
0.94
0.89
0.83
0.78
0.76
0.74
0.72
0.71
0.71
0.71
0.73
0.76
0.84
0.97
1.18
1.46
1.81
2.18
2.55
2.92
3.27
3.57
3.76
3.79
3.68
3.53
3.48
3.66
4.05
4.51
4.79
4.70
4.17
3.28
2.18
0.93
-0.52
-2.28
-4.42
-6.80
-9.11
-10.93
-11.87
-11.73
-10.55
-8.58
-6.23
-3.95
-2.10
-0.89
-0.32
-0.24
-0.37
-0.45
-0.33
0.05
0.63
1.29
1.91
2.37
2.61
2.65
2.52
2.31
2.06
1.78
1.41
0.93
0.34
-0.20
-0.54
-0.54
-0.24
0.15
0.32
-0.01
-1.01
-2.67
-4.85
-7.37
-10.07
-12.68
-14.86
-16.18
-16.20
-14.69
-11.74
-7.85
-3.72
-0.06
2.70
4.47
5.40
5.78
5.82
5.66
5.35
4.99
4.69
4.58
4.68
4.86
4.88
4.44
3.34
1.59
-0.60
-2.83
-4.66
-5.70
-5.72
-4.71
-2.85
-0.48
1.99
4.18
5.84
6.84
7.24
7.16
6.78
6.20
5.47
4.55
3.37
1.87
0.03
-2.08
-4.31
-6.43
-8.10
-8.98
-8.80
-7.47
-5.17
-2.27
0.68
3.23
5.03
6.01
6.26
5.99
5.42
4.71
3.99
3.38
2.94
2.72
2.68
2.69
2.58
2.12
1.19
-0.23
-1.96
-3.72
-5.13
-5.84
-5.63
-4.47
-2.58
-0.31
1.94
3.85
5.21
5.94
6.04
5.62
4.76
3.65
2.53
1.78
1.73
2.51
3.94
5.59
6.89
7.33
6.69
5.20
3.53
2.46
2.50
3.79
6.02
8.68
11.09
12.68
13.25
13.01
12.39
11.78
11.34
11.01
10.57
9.56
7.51
4.23
-0.12
-5.21
-10.84
-16.96
-23.57
-29.37
-32.63
-32.44
-29.38
-24.92
-20.34
-16.41
-13.42
-11.25
-9.56
-8.25
-7.47
-7.39
-7.97
-8.92
-9.81
-10.22
-10.05
-9.08
-7.54
-5.87
-4.50
-3.58
-3.05
-2.75
-2.51
-2.14
-1.49
-0.58
0.41
1.37
2.31
3.37
4.71
6.33
8.13
9.92
11.38
12.19
12.22
11.61
10.75
10.06
9.80
9.97
10.33
10.50
10.13
9.08
7.45
5.49
3.53
1.86
0.72
0.28
0.55
1.35
2.36
3.23
3.67
3.60
3.16
2.62
2.25
2.17
2.32
2.49
2.46
2.07
1.31
0.30
-0.74
-1.61
-2.19
-2.44
-2.42
-2.25
-2.04
-1.88
-1.83
-1.95
-2.25
-2.74
-3.34
-3.93
-4.34
-4.47
-4.26
-3.80
-3.18
-2.55
-1.97
-1.47
-1.00
-0.52
-0.01
0.50
0.95
1.27
1.42
1.36
1.12
0.73
0.26
-0.24
-0.66
-0.90
-0.88
-0.56
0.03
0.77
1.51
2.08
2.40
2.51
2.54
2.64
2.95
3.53
4.31
5.18
6.01
6.67
7.03
6.97
6.41
5.36
3.92
2.28
0.67
-0.75
-1.93
-2.91
-3.73
-4.38
-4.76
-4.78
-4.44
-3.83
-3.16
-2.58
-2.16
-1.85
-1.56
-1.26
-1.02
-0.93
-1.06
-1.39
-1.79
-2.15
-2.39
-2.60
-2.88
-3.35
-4.01
-4.78
-5.53
-6.15
-6.65
-7.07
-7.46
-7.83
-8.09
-8.10
-7.74
-6.96
-5.86
-4.58
-3.29
-2.09
-0.99
0.03
0.96
1.74
2.30
2.59
2.60
2.40
2.08
1.70
1.30
0.89
0.49
0.16
-0.06
-0.14
-0.15
-0.17
-0.29
-0.52
-0.79
-1.01
-1.09
-1.02
-0.86
-0.67
-0.50
-0.34
-0.13
0.17
0.56
0.99
1.39
1.73
1.98
2.17
2.31
2.44
2.59
2.79
3.07
3.43
3.88
4.35
4.77
5.08
5.24
5.29
5.29
5.31
5.39
5.49
5.51
5.31
4.82
4.00
2.93
1.77
0.69
-0.18
-0.88
-1.60
-2.69
-4.50
-7.33
-11.23
-16.02
-21.32
-26.56
-31.18
-34.71
-36.90
-37.78
-37.71
-37.21
-36.88
-37.09
-37.86
-38.93
-39.85
-40.28
-40.14
-39.61
-38.99
-38.40
-37.69
-36.48
-34.36
-31.13
-26.93
-22.16
-17.30
-12.65
-8.30
-4.13
0.05
4.31
8.61
12.84
16.93
20.88
24.74
28.54
32.23
35.67
38.66
41.10
42.93
44.16
44.80
44.86
44.34
43.32
41.97
40.48
39.00
37.55
36.06
34.41
32.55
30.52
28.42
26.34
24.34
22.39
20.51
18.70
16.99
15.41
13.92
12.45
10.95
9.42
7.93
6.57
5.43
4.49
3.71
3.01
2.36
1.74
1.13
0.51
-0.19
-0.96
-1.78
-2.54
-3.12
-3.49
-3.68
-3.84
-4.08
-4.38
-4.62
-4.56
-4.03
-3.06
-1.82
-0.63
0.26
0.72
0.85
0.82
0.80
0.85
0.93
0.98
0.99
1.01
1.11
1.32
1.56
1.74
1.74
1.56
1.29
1.03
0.90
0.94
1.10
1.28
1.39
1.33
1.01
0.43
-0.35
-1.22
-1.99
-2.52
-2.73
-2.65
-2.36
-1.97
-1.56
-1.19
-0.87
-0.63
-0.44
-0.27
-0.05
0.29
0.78
1.41
2.10
2.75
3.26
3.58
3.69
3.62
3.39
3.05
2.61
2.14
1.67
1.23
0.86
0.56
0.30
0.06
-0.20
-0.51
-0.86
-1.27
-1.72
-2.16
-2.60
-3.04
-3.52
-4.10
-4.78
-5.53
-6.22
-6.72
-6.92
-6.87
-6.71
-6.65
-6.86
-7.36
-8.03
-8.70
-9.25
-9.66
-10.02
-10.45
-11.01
-11.67
-12.31
-12.80
-13.13
-13.30
-13.39
-13.48
-13.63
-13.93
-14.44
-15.24
-16.28
-17.34
-18.01
-17.74
-16.05
-12.72
-7.89
-2.08
3.95
9.44
13.83
16.86
18.59
19.32
19.43
19.27
19.10
19.02
19.06
19.19
19.37
19.55
19.71
19.78
19.71
19.47
19.03
18.41
17.62
16.67
15.58
14.34
12.97
11.50
9.96
8.38
6.72
4.92
2.97
0.95
-0.89
-2.21
-2.70
-2.28
-1.15
0.21
1.28
1.66
1.27
0.32
-0.81
-1.78
-2.44
-2.83
-3.03
-3.06
-2.85
-2.24
-1.20
0.13
1.36
2.01
1.75
0.49
-1.48
-3.61
-5.32
-6.19
-6.09
-5.20
-3.92
-2.64
-1.67
-1.12
-0.99
-1.20
-1.62
-2.17
-2.71
-3.11
-3.21
-2.96
-2.39
-1.67
-1.03
-0.68
-0.76
-1.26
-2.13
-3.19
-4.22
-4.98
-5.25
-4.89
-3.92
-2.50
-0.94
0.42
1.29
1.55
1.25
0.59
-0.18
-0.79
-1.14
-1.23
-1.23
-1.33
-1.69
-2.29
-2.95
-3.43
-3.52
-3.16
-2.44
-1.51
-0.54
0.36
1.16
1.83
2.29
2.44
2.22
1.62
0.78
-0.11
-0.86
-1.37
-1.69
-1.98
-2.42
-3.11
-4.01
-4.96
-5.74
-6.15
-6.12
-5.69
-4.98
-4.16
-3.36
-2.63
-1.93
-1.21
-0.43
0.33
0.91
1.14
0.89
0.21
-0.73
-1.71
-2.48
-2.93
-2.98
-2.63
-1.86
-0.71
0.72
2.21
3.48
4.28
4.51
4.23
3.66
3.00
2.37
1.74
0.97
-0.03
-1.26
-2.56
-3.69
-4.41
-4.58
-4.20
-3.41
-2.42
-1.44
-0.62
-0.03
0.32
0.48
0.52
0.52
0.52
0.50
0.40
0.09
-0.50
-1.39
-2.48
-3.55
-4.35
-4.66
-4.37
-3.49
-2.14
-0.53
1.12
2.63
3.84
4.68
5.14
5.29
5.21
5.05
4.93
4.90
4.95
4.96
4.83
4.52
4.04
3.51
3.00
2.51
1.98
1.31
0.49
-0.41
-1.28
-2.02
-2.67
-3.29
-3.95
-4.64
-5.22
-5.55
-5.59
-5.41
-5.19
-5.09
-5.19
-5.44
-5.72
-5.90
-5.88
-5.64
-5.21
-4.65
-4.02
-3.37
-2.77
-2.24
-1.80
-1.44
-1.15
-0.91
-0.70
-0.49
-0.24
0.06
0.43
0.87
1.34
1.79
2.12
2.25
2.11
1.68
1.03
0.28
-0.39
-0.85
-1.03
-0.95
-0.72
-0.51
-0.46
-0.63
-1.02
-1.50
-1.95
-2.25
-2.38
-2.37
-2.31
-2.28
-2.28
-2.25
-2.09
-1.74
-1.20
-0.52
0.22
0.93
1.53
1.97
2.24
2.33
2.24
2.03
1.72
1.33
0.90
0.43
-0.01
-0.34
-0.47
-0.39
-0.15
0.15
0.38
0.48
0.46
0.36
0.24
0.09
-0.09
-0.32
-0.59
-0.84
-1.00
-1.02
-0.94
-0.85
-0.88
-1.11
-1.57
-2.17
-2.75
-3.16
-3.28
-3.12
-2.75
-2.30
-1.85
-1.41
-0.96
-0.46
0.03
0.41
0.56
0.44
0.11
-0.24
-0.42
-0.31
0.11
0.72
1.35
1.88
2.23
2.43
2.52
2.54
2.51
2.39
2.17
1.83
1.42
1.00
0.64
0.37
0.20
0.07
-0.05
-0.18
-0.33
-0.48
-0.61
-0.75
-0.95
-1.25
-1.65
-2.08
-2.44
-2.63
-2.59
-2.35
-1.98
-1.58
-1.25
-1.02
-0.88
-0.76
-0.59
-0.31
0.11
0.61
1.12
1.56
1.86
2.04
2.11
2.12
2.11
2.09
2.07
2.07
2.08
2.12
2.16
2.17
2.13
2.02
1.83
1.61
1.37
1.13
0.92
0.73
0.61
0.59
0.66
0.78
0.85
0.82
0.63
0.35
0.04
-0.20
-0.34
-0.43
-0.54
-0.73
-1.00
-1.33
-1.66
-1.94
-2.16
-2.28
-2.27
-2.11
-1.80
-1.44
-1.14
-1.04
-1.15
-1.41
-1.65
-1.73
-1.57
-1.17
-0.61
0.01
0.62
1.15
1.58
1.86
2.01
2.07
2.14
2.29
2.56
2.90
3.20
3.37
3.35
3.18
2.91
2.60
2.27
1.95
1.66
1.44
1.36
1.40
1.52
1.58
1.50
1.23
0.83
0.39
-0.02
-0.38
-0.73
-1.12
-1.54
-1.97
-2.32
-2.58
-2.75
-2.87
-2.96
-3.01
-2.94
-2.71
-2.34
-1.91
-1.53
-1.27
-1.11
-0.97
-0.77
-0.45
-0.05
0.34
0.64
0.81
0.90
0.97
1.05
1.14
1.22
1.28
1.37
1.56
1.88
2.28
2.63
2.83
2.82
2.63
2.35
2.10
1.92
1.83
1.79
1.77
1.77
1.79
1.84
1.91
1.97
1.94
1.77
1.41
0.86
0.24
-0.28
-0.54
-0.50
-0.27
-0.08
-0.15
-0.54
-1.16
-1.78
-2.23
-2.44
-2.52
-2.61
-2.78
-2.96
-3.05
-2.97
-2.77
-2.56
-2.47
-2.50
-2.48
-2.23
-1.62
-0.73
0.22
0.93
1.23
1.13
0.82
0.53
0.45
0.59
0.85
1.07
1.16
1.12
1.03
1.01
1.11
1.30
1.53
1.74
1.89
1.95
1.90
1.71
1.37
0.90
0.39
-0.05
-0.30
-0.31
-0.11
0.16
0.37
0.42
0.28
-0.03
-0.42
-0.80
-1.12
-1.35
-1.51
-1.63
-1.72
-1.81
-1.88
-1.87
-1.77
-1.56
-1.28
-1.00
-0.75
-0.55
-0.33
-0.03
0.35
0.75
1.07
1.24
1.24
1.15
1.02
0.91
0.80
0.68
0.57
0.55
0.70
1.01
1.38
1.65
1.67
1.40
0.98
0.59
0.40
0.44
0.60
0.70
0.63
0.36
0.01
-0.27
-0.40
-0.38
-0.33
-0.39
-0.67
-1.18
-1.83
-2.44
-2.88
-3.05
-2.97
-2.74
-2.44
-2.14
-1.85
-1.57
-1.29
-1.06
-0.91
-0.81
-0.71
-0.52
-0.20
0.20
0.57
0.81
0.87
0.76
0.56
0.36
0.23
0.22
0.36
0.65
1.02
1.34
1.48
1.41
1.18
0.98
0.94
1.12
1.42
1.67
1.74
1.65
1.46
1.30
1.24
1.24
1.23
1.09
0.83
0.47
0.14
-0.07
-0.10
0.02
0.20
0.28
0.18
-0.13
-0.57
-0.96
-1.15
-1.06
-0.79
-0.53
-0.51
-0.84
-1.46
-2.15
-2.67
-2.88
-2.81
-2.64
-2.56
-2.65
-2.83
-2.91
-2.73
-2.24
-1.51
-0.68
0.07
0.63
0.96
1.07
1.01
0.87
0.72
0.63
0.65
0.79
1.04
1.37
1.74
2.09
2.36
2.50
2.51
2.40
2.21
1.98
1.74
1.47
1.19
0.91
0.65
0.46
0.35
0.29
0.28
0.28
0.25
0.18
0.01
-0.25
-0.61
-1.05
-1.55
-2.11
-2.73
-3.37
-3.96
-4.36
-4.45
-4.15
-3.51
-2.66
-1.80
-1.09
-0.63
-0.40
-0.34
-0.35
-0.32
-0.19
0.04
0.35
0.66
0.88
0.95
0.90
0.83
0.84
1.00
1.32
1.73
2.09
2.28
2.21
1.88
1.35
0.75
0.22
-0.15
-0.29
-0.20
0.07
0.39
0.65
0.72
0.54
0.16
-0.32
-0.77
-1.10
-1.28
-1.34
-1.34
-1.31
-1.26
-1.19
-1.13
-1.11
-1.18
-1.36
-1.60
-1.78
-1.78
-1.54
-1.04
-0.41
0.21
0.68
0.91
0.88
0.66
0.39
0.19
0.17
0.36
0.68
1.02
1.26
1.34
1.25
1.06
0.83
0.62
0.43
0.27
0.15
0.13
0.24
0.50
0.82
1.07
1.13
0.93
0.51
0.03
-0.37
-0.64
-0.82
-1.04
-1.38
-1.85
-2.33
-2.66
-2.75
-2.60
-2.33
-2.07
-1.89
-1.79
-1.73
-1.67
-1.59
-1.51
-1.42
-1.30
-1.09
-0.75
-0.33
0.13
0.50
0.73
0.78
0.68
0.52
0.36
0.30
0.40
0.65
1.00
1.31
1.45
1.37
1.07
0.70
0.42
0.37
0.58
1.00
1.49
1.87
2.05
1.97
1.66
1.21
0.73
0.33
0.06
-0.09
-0.21
-0.38
-0.68
-1.08
-1.50
-1.82
-2.00
-2.04
-2.00
-1.94
-1.85
-1.70
-1.45
-1.13
-0.85
-0.70
-0.74
-0.92
-1.08
-1.04
-0.72
-0.14
0.55
1.14
1.50
1.63
1.61
1.60
1.69
1.86
2.05
2.15
2.15
2.07
2.00
1.97
1.96
1.89
1.71
1.46
1.21
1.07
1.04
1.04
0.94
0.66
0.20
-0.28
-0.62
-0.73
-0.62
-0.36
-0.10
0.09
0.19
0.22
0.19
0.12
-0.02
-0.20
-0.36
-0.42
-0.31
-0.01
0.39
0.79
1.10
1.31
1.48
1.71
2.07
2.54
3.02
3.34
3.39
3.12
2.61
2.00
1.38
0.82
0.30
-0.18
-0.61
-0.92
-1.04
-0.96
-0.78
-0.66
-0.73
-1.03
-1.45
-1.82
-1.98
-1.87
-1.54
-1.11
-0.70
-0.40
-0.28
-0.36
-0.67
-1.19
-1.85
-2.57
-3.22
-3.75
-4.14
-4.40
-4.58
-4.72
-4.85
-4.95
-5.03
-5.03
-4.88
-4.53
-3.95
-3.22
-2.46
-1.85
-1.52
-1.55
-1.97
-2.73
-3.76
-4.97
-6.23
-7.41
-8.37
-9.08
-9.59
-10.02
-10.54
-11.26
-12.15
-13.09
-13.84
-14.20
-14.07
-13.48
-12.53
-11.38
-10.10
-8.73
-7.21
-5.53
-3.67
-1.63
0.56
2.89
5.36
7.93
10.51
12.97
15.14
16.88
18.13
18.89
19.22
19.19
18.87
18.35
17.65
16.81
15.81
14.65
13.32
11.91
10.51
9.28
8.29
7.54
6.97
6.45
5.91
5.33
4.77
4.25
3.73
3.11
2.29
1.25
0.11
-0.94
-1.70
-2.07
-2.06
-1.82
-1.54
-1.39
-1.45
-1.67
-1.96
-2.21
-2.38
-2.47
-2.53
-2.59
-2.65
-2.66
-2.62
-2.51
-2.37
-2.24
-2.11
-1.91
-1.58
-1.14
-0.66
-0.25
0.02
0.19
0.38
0.69
1.14
1.64
2.06
2.28
2.27
2.13
1.95
1.85
1.81
1.77
1.65
1.43
1.13
0.80
0.43
-0.03
-0.67
-1.55
-2.65
-3.83
-4.88
-5.67
-6.18
-6.52
-6.83
-7.19
-7.54
-7.71
-7.57
-7.11
-6.50
-6.00
-5.87
-6.19
-6.81
-7.46
-7.80
-7.64
-6.88
-5.55
-3.74
-1.54
0.96
3.57
6.04
8.08
9.49
10.22
10.41
10.27
9.96
9.53
8.85
7.84
6.50
4.98
3.50
2.28
1.42
0.89
0.68
0.76
1.14
1.82
2.69
3.60
4.32
4.70
4.70
4.41
3.91
3.27
2.49
1.53
0.36
-0.99
-2.43
-3.82
-5.00
-5.84
-6.25
-6.19
-5.68
-4.77
-3.55
-2.19
-0.88
0.22
0.96
1.31
1.34
1.24
1.25
1.53
2.11
2.91
3.69
4.23
4.38
4.12
3.57
2.93
2.37
2.01
1.83
1.76
1.68
1.50
1.21
0.84
0.48
0.18
-0.02
-0.11
-0.12
-0.06
0.03
0.10
0.09
-0.01
-0.22
-0.47
-0.71
-0.89
-1.00
-1.06
-1.11
-1.18
-1.31
-1.50
-1.77
-2.14
-2.57
-3.01
-3.38
-3.60
-3.66
-3.54
-3.29
-2.94
-2.50
-1.97
-1.35
-0.67
0.02
0.62
1.05
1.26
1.27
1.17
1.07
1.03
1.05
1.03
0.91
0.70
0.48
0.42
0.57
0.90
1.24
1.42
1.33
1.02
0.65
0.38
0.29
0.38
0.53
0.65
0.70
0.70
0.70
0.72
0.78
0.79
0.72
0.52
0.22
-0.09
-0.34
-0.45
-0.41
-0.29
-0.18
-0.16
-0.27
-0.48
-0.71
-0.86
-0.86
-0.69
-0.37
0.05
0.51
0.94
1.28
1.47
1.46
1.22
0.77
0.20
-0.37
-0.79
-1.01
-1.04
-0.94
-0.82
-0.70
-0.58
-0.42
-0.23
-0.10
-0.14
-0.44
-0.99
-1.75
-2.58
-3.39
-4.10
-4.67
-5.03
-5.13
-4.92
-4.45
-3.81
-3.15
-2.62
-2.30
-2.19
-2.20
-2.20
-2.09
-1.84
-1.49
-1.12
-0.81
-0.60
-0.44
-0.24
0.12
0.70
1.46
2.31
3.10
3.73
4.18
4.48
4.72
4.93
5.12
5.26
5.30
5.21
5.00
4.71
4.36
3.98
3.57
3.12
2.65
2.19
1.78
1.44
1.17
0.92
0.62
0.21
-0.33
-0.92
-1.44
-1.79
-1.90
-1.82
-1.66
-1.54
-1.52
-1.56
-1.57
-1.44
-1.14
-0.73
-0.34
-0.08
-0.01
-0.11
-0.27
-0.40
-0.42
-0.33
-0.15
0.09
0.37
0.68
1.02
1.34
1.61
1.74
1.72
1.52
1.20
0.84
0.51
0.25
0.04
-0.18
-0.46
-0.81
-1.17
-1.45
-1.62
-1.70
-1.80
-2.05
-2.46
-2.92
-3.25
-3.24
-2.86
-2.22
-1.52
-0.98
-0.69
-0.61
-0.59
-0.50
-0.29
-0.02
0.18
0.22
0.07
-0.18
-0.42
-0.51
-0.44
-0.25
-0.04
0.08
0.09
0.00
-0.16
-0.41
-0.80
-1.35
-2.03
-2.73
-3.30
-3.66
-3.82
-3.89
-4.01
-4.26
-4.59
-4.91
-5.11
-5.17
-5.07
-4.83
-4.45
-3.98
-3.51
-3.26
-3.44
-4.18
-5.34
-6.57
-7.41
-7.53
-6.85
-5.56
-3.96
-2.33
-0.77
0.68
1.99
3.08
3.84
4.25
4.44
4.67
5.13
5.86
6.71
7.45
7.91
8.13
8.29
8.56
8.99
9.50
9.94
10.20
10.30
10.31
10.27
10.12
9.71
8.87
7.50
5.65
3.47
1.14
-1.13
-3.18
-4.83
-5.95
-6.44
-6.28
-5.58
-4.54
-3.40
-2.33
-1.45
-0.74
-0.17
0.29
0.62
0.74
0.59
0.21
-0.28
-0.70
-0.90
-0.80
-0.42
0.14
0.80
1.48
2.11
2.65
3.03
3.22
3.18
2.94
2.56
2.12
1.69
1.30
0.93
0.58
0.24
-0.10
-0.38
-0.59
-0.74
-0.88
-1.09
-1.42
-1.87
-2.38
-2.83
-3.15
-3.31
-3.37
-3.43
-3.56
-3.74
-3.89
-3.94
-3.83
-3.56
-3.17
-2.69
-2.12
-1.46
-0.73
0.01
0.64
1.07
1.30
1.38
1.42
1.50
1.66
1.86
2.07
2.25
2.38
2.47
2.51
2.52
2.49
2.42
2.28
2.03
1.65
1.15
0.64
0.29
0.26
0.60
1.16
1.70
1.93
1.69
1.00
0.04
-0.95
-1.76
-2.28
-2.50
-2.48
-2.32
-2.11
-1.96
-1.95
-2.15
-2.53
-2.99
-3.42
-3.71
-3.79
-3.65
-3.35
-2.92
-2.42
-1.89
-1.41
-1.04
-0.82
-0.73
-0.66
-0.50
-0.14
0.42
1.10
1.73
2.13
2.19
1.97
1.63
1.40
1.46
1.82
2.36
2.84
3.08
3.00
2.67
2.22
1.82
1.55
1.38
1.28
1.15
0.96
0.71
0.48
0.31
0.23
0.24
0.26
0.24
0.13
-0.05
-0.22
-0.32
-0.34
-0.35
-0.43
-0.66
-1.02
-1.39
-1.64
-1.68
-1.54
-1.33
-1.16
-1.08
-1.05
-0.97
-0.74
-0.36
0.10
0.53
0.84
0.96
0.91
0.71
0.38
-0.04
-0.47
-0.85
-1.11
-1.21
-1.16
-0.97
-0.66
-0.21
0.38
1.08
1.78
2.27
2.40
2.08
1.39
0.51
-0.33
-0.95
-1.30
-1.42
-1.40
-1.31
-1.12
-0.77
-0.23
0.49
1.26
1.90
2.26
2.31
2.12
1.82
1.54
1.34
1.19
1.06
0.93
0.80
0.69
0.57
0.36
-0.03
-0.64
-1.42
-2.21
-2.83
-3.13
-3.06
-2.69
-2.17
-1.64
-1.21
-0.92
-0.74
-0.62
-0.48
-0.28
-0.03
0.22
0.40
0.48
0.45
0.34
0.19
0.04
-0.12
-0.24
-0.30
-0.27
-0.13
0.08
0.29
0.39
0.30
0.03
-0.35
-0.73
-1.01
-1.19
-1.29
-1.39
-1.54
-1.74
-1.95
-2.09
-2.09
-1.94
-1.65
-1.27
-0.83
-0.38
0.04
0.39
0.61
0.70
0.67
0.59
0.52
0.47
0.48
0.54
0.68
0.92
1.28
1.73
2.18
2.50
2.57
2.36
1.95
1.50
1.19
1.09
1.14
1.18
1.04
0.67
0.18
-0.23
-0.37
-0.20
0.17
0.50
0.58
0.33
-0.15
-0.65
-0.98
-1.08
-1.00
-0.88
-0.85
-0.97
-1.20
-1.45
-1.66
-1.82
-1.98
-2.26
-2.67
-3.14
-3.50
-3.56
-3.19
-2.41
-1.39
-0.36
0.43
0.90
1.08
1.12
1.16
1.30
1.53
1.79
1.99
2.13
2.20
2.24
2.26
2.24
2.11
1.83
1.39
0.84
0.31
-0.08
-0.24
-0.16
0.08
0.37
0.58
0.64
0.58
0.46
0.36
0.31
0.32
0.32
0.29
0.20
0.04
-0.18
-0.48
-0.87
-1.35
-1.87
-2.32
-2.62
-2.71
-2.59
-2.32
-2.01
-1.75
-1.61
-1.58
-1.61
-1.62
-1.56
-1.39
-1.09
-0.70
-0.21
0.35
0.92
1.41
1.72
1.75
1.51
1.09
0.64
0.35
0.28
0.43
0.71
1.03
1.31
1.51
1.64
1.69
1.67
1.57
1.42
1.23
1.02
0.82
0.65
0.53
0.46
0.42
0.40
0.34
0.25
0.14
0.03
-0.04
-0.08
-0.12
-0.25
-0.51
-0.91
-1.43
-1.98
-2.48
-2.83
-2.93
-2.74
-2.30
-1.69
-1.05
-0.54
-0.28
-0.32
-0.59
-0.94
-1.25
-1.43
-1.48
-1.44
-1.34
-1.16
-0.89
-0.52
-0.09
0.25
0.40
0.33
0.09
-0.12
-0.18
-0.04
0.23
0.48
0.61
0.59
0.48
0.38
0.37
0.43
0.49
0.42
0.14
-0.35
-0.95
-1.51
-1.86
-1.95
-1.81
-1.59
-1.41
-1.38
-1.47
-1.58
-1.63
-1.58
-1.46
-1.36
-1.29
-1.23
-1.09
-0.78
-0.32
0.21
0.66
0.91
0.95
0.84
0.69
0.63
0.69
0.83
0.98
1.09
1.16
1.22
1.31
1.40
1.46
1.43
1.28
1.05
0.79
0.58
0.45
0.38
0.37
0.37
0.37
0.36
0.35
0.32
0.26
0.13
-0.11
-0.49
-0.98
-1.52
-1.99
-2.29
-2.36
-2.23
-1.96
-1.64
-1.31
-0.99
-0.64
-0.24
0.20
0.64
1.02
1.27
1.37
1.35
1.26
1.12
0.97
0.80
0.61
0.40
0.24
0.20
0.33
0.62
0.93
1.10
1.00
0.62
0.12
-0.31
-0.50
-0.44
-0.25
-0.12
-0.18
-0.44
-0.81
-1.18
-1.43
-1.51
-1.45
-1.31
-1.15
-1.06
-1.10
-1.31
-1.64
-2.00
-2.28
-2.40
-2.34
-2.16
-1.95
-1.75
-1.56
-1.32
-1.01
-0.66
-0.36
-0.16
-0.06
0.01
0.16
0.46
0.91
1.38
1.72
1.81
1.63
1.28
0.93
0.70
0.66
0.77
0.92
1.03
1.04
0.94
0.76
0.52
0.26
0.02
-0.15
-0.16
0.04
0.44
0.97
1.46
1.75
1.74
1.40
0.79
0.03
-0.73
-1.34
-1.70
-1.82
-1.74
-1.58
-1.43
-1.33
-1.25
-1.13
-0.93
-0.66
-0.38
-0.16
-0.02
0.07
0.19
0.39
0.65
0.89
0.99
0.88
0.60
0.31
0.18
0.31
0.66
1.07
1.32
1.33
1.14
0.92
0.87
1.06
1.42
1.76
1.93
1.85
1.57
1.20
0.87
0.61
0.40
0.14
-0.23
-0.69
-1.19
-1.64
-1.97
-2.18
-2.28
-2.29
-2.22
-2.01
-1.64
-1.11
-0.50
0.07
0.48
0.72
0.82
0.85
0.90
0.96
0.99
1.00
1.02
1.13
1.39
1.79
2.21
2.49
2.50
2.25
1.84
1.46
1.25
1.23
1.31
1.38
1.33
1.13
0.85
0.55
0.27
0.02
-0.24
-0.53
-0.83
-1.08
-1.20
-1.19
-1.10
-1.04
-1.09
-1.27
-1.52
-1.76
-1.89
-1.89
-1.77
-1.60
-1.38
-1.08
-0.67
-0.13
0.50
1.08
1.50
1.69
1.66
1.52
1.35
1.21
1.12
1.07
1.12
1.29
1.63
2.10
2.59
2.97
3.13
3.03
2.76
2.41
2.08
1.83
1.66
1.55
1.48
1.43
1.36
1.21
0.95
0.60
0.19
-0.19
-0.51
-0.79
-1.09
-1.45
-1.87
-2.27
-2.56
-2.66
-2.60
-2.47
-2.34
-2.25
-2.17
-2.00
-1.68
-1.22
-0.67
-0.13
0.33
0.67
0.88
1.02
1.11
1.18
1.26
1.33
1.38
1.40
1.41
1.40
1.40
1.39
1.34
1.19
0.96
0.70
0.52
0.47
0.57
0.72
0.82
0.78
0.60
0.33
0.03
-0.23
-0.46
-0.65
-0.82
-0.95
-1.03
-1.07
-1.09
-1.12
-1.17
-1.22
-1.28
-1.34
-1.39
-1.42
-1.39
-1.27
-1.04
-0.74
-0.43
-0.17
0.04
0.24
0.47
0.75
1.04
1.28
1.40
1.41
1.39
1.39
1.45
1.56
1.69
1.78
1.84
1.88
1.94
2.02
2.11
2.14
2.09
1.95
1.75
1.57
1.45
1.38
1.34
1.23
1.03
0.72
0.34
-0.04
-0.38
-0.66
-0.89
-1.09
-1.30
-1.53
-1.80
-2.07
-2.31
-2.43
-2.35
-2.06
-1.61
-1.10
-0.63
-0.25
0.06
0.36
0.71
1.07
1.39
1.58
1.60
1.47
1.22
0.90
0.55
0.23
-0.00
-0.06
0.10
0.44
0.85
1.24
1.50
1.62
1.59
1.44
1.19
0.84
0.43
0.04
-0.26
-0.45
-0.53
-0.60
-0.72
-0.95
-1.29
-1.69
-2.05
-2.32
-2.43
-2.39
-2.23
-1.99
-1.70
-1.36
-0.98
-0.57
-0.19
0.12
0.32
0.44
0.49
0.53
0.59
0.67
0.76
0.86
0.96
1.05
1.08
1.00
0.79
0.47
0.13
-0.14
-0.29
-0.35
-0.39
-0.48
-0.65
-0.87
-1.07
-1.19
-1.21
-1.17
-1.16
-1.26
-1.53
-1.93
-2.40
-2.81
-3.09
-3.21
-3.17
-3.01
-2.73
-2.31
-1.76
-1.13
-0.53
-0.07
0.17
0.20
0.09
-0.03
-0.07
-0.01
0.13
0.31
0.50
0.73
1.02
1.37
1.74
2.03
2.16
2.10
1.85
1.48
1.08
0.74
0.53
0.48
0.59
0.79
1.00
1.12
1.08
0.90
0.62
0.33
0.10
-0.05
-0.15
-0.26
-0.41
-0.62
-0.84
-1.02
-1.14
-1.20
-1.26
-1.34
-1.41
-1.40
-1.25
-0.91
-0.44
0.09
0.57
0.96
1.28
1.59
1.91
2.22
2.43
2.44
2.21
1.83
1.44
1.23
1.29
1.61
2.06
2.48
2.72
2.70
2.47
2.08
1.65
1.23
0.87
0.58
0.34
0.12
-0.06
-0.21
-0.32
-0.40
-0.47
-0.57
-0.75
-1.03
-1.35
-1.63
-1.76
-1.72
-1.58
-1.50
-1.62
-1.98
-2.53
-3.07
-3.42
-3.48
-3.27
-2.92
-2.57
-2.30
-2.10
-1.90
-1.68
-1.47
-1.32
-1.28
-1.32
-1.38
-1.39
-1.33
-1.24
-1.16
-1.10
-1.05
-0.97
-0.87
-0.81
-0.92
-1.26
-1.82
-2.53
-3.29
-3.99
-4.59
-5.08
-5.46
-5.73
-5.92
-6.08
-6.26
-6.49
-6.76
-7.01
-7.14
-7.03
-6.61
-5.84
-4.75
-3.39
-1.86
-0.26
1.28
2.66
3.79
4.66
5.30
5.78
6.16
6.42
6.52
6.43
6.16
5.83
5.58
5.53
5.67
5.91
6.06
5.99
5.66
5.19
4.77
4.50
4.39
4.31
4.11
3.70
3.11
2.49
2.01
1.78
1.80
1.95
2.03
1.92
1.55
0.97
0.34
-0.20
-0.54
-0.68
-0.67
-0.63
-0.66
-0.84
-1.19
-1.64
-2.09
-2.44
-2.59
-2.52
-2.22
-1.75
-1.16
-0.51
0.09
0.51
0.62
0.38
-0.12
-0.65
-0.94
-0.81
-0.28
0.47
1.18
1.67
1.92
2.01
2.05
2.05
1.95
1.69
1.28
0.86
0.58
0.51
0.57
0.55
0.27
-0.28
-0.95
-1.50
-1.70
-1.51
-1.05
-0.55
-0.22
-0.15
-0.34
-0.67
-1.02
-1.30
-1.47
-1.51
-1.45
-1.38
-1.38
-1.51
-1.75
-2.04
-2.26
-2.32
-2.15
-1.76
-1.21
-0.59
-0.01
0.44
0.72
0.86
0.91
0.95
1.04
1.18
1.36
1.53
1.68
1.80
1.91
1.98
2.01
1.97
1.88
1.81
1.80
1.84
1.90
1.90
1.84
1.74
1.67
1.66
1.65
1.56
1.30
0.89
0.39
-0.04
-0.30
-0.36
-0.30
-0.26
-0.35
-0.59
-0.94
-1.27
-1.50
-1.61
-1.64
-1.70
-1.82
-2.01
-2.18
-2.22
-2.08
-1.75
-1.28
-0.76
-0.23
0.27
0.74
1.12
1.36
1.40
1.23
0.90
0.53
0.25
0.14
0.24
0.49
0.81
1.07
1.16
1.03
0.68
0.19
-0.34
-0.80
-1.11
-1.24
-1.21
-1.05
-0.80
-0.55
-0.34
-0.25
-0.32
-0.56
-0.90
-1.28
-1.60
-1.83
-1.93
-1.95
-1.94
-1.96
-2.06
-2.24
-2.45
-2.62
-2.66
-2.51
-2.13
-1.51
-0.73
0.12
0.86
1.36
1.50
1.32
0.97
0.66
0.59
0.84
1.32
1.87
2.33
2.59
2.69
2.68
2.61
2.47
2.23
1.90
1.54
1.27
1.16
1.18
1.23
1.20
0.98
0.58
0.07
-0.45
-0.85
-1.08
-1.14
-1.07
-0.97
-0.92
-1.00
-1.26
-1.66
-2.12
-2.55
-2.85
-2.97
-2.90
-2.64
-2.21
-1.62
-0.94
-0.24
0.36
0.79
1.00
1.01
0.90
0.81
0.85
1.08
1.46
1.91
2.27
2.47
2.48
2.36
2.21
2.11
2.08
2.06
2.00
1.86
1.65
1.43
1.26
1.17
1.12
1.05
0.89
0.63
0.27
-0.14
-0.57
-0.99
-1.41
-1.79
-2.11
-2.34
-2.45
-2.47
-2.43
-2.40
-2.42
-2.49
-2.60
-2.70
-2.75
-2.73
-2.59
-2.33
-1.96
-1.52
-1.05
-0.57
-0.12
0.30
0.70
1.05
1.31
1.42
1.37
1.20
0.99
0.86
0.87
1.04
1.32
1.64
1.92
2.10
2.15
2.07
1.88
1.61
1.31
1.02
0.77
0.54
0.33
0.10
-0.15
-0.41
-0.68
-0.96
-1.28
-1.66
-2.10
-2.58
-3.04
-3.42
-3.65
-3.72
-3.61
-3.40
-3.11
-2.83
-2.55
-2.26
-1.89
-1.39
-0.74
-0.02
0.68
1.23
1.58
1.75
1.81
1.85
1.94
2.08
2.23
2.33
2.33
2.19
1.95
1.71
1.53
1.49
1.56
1.68
1.73
1.62
1.34
0.92
0.47
0.07
-0.21
-0.40
-0.56
-0.76
-1.06
-1.45
-1.88
-2.26
-2.56
-2.76
-2.92
-3.05
-3.14
-3.12
-2.95
-2.62
-2.15
-1.63
-1.12
-0.68
-0.34
-0.10
0.01
0.03
0.01
0.03
0.16
0.45
0.89
1.41
1.91
2.31
2.59
2.70
2.68
2.54
2.34
2.14
2.00
1.97
2.03
2.12
2.17
2.09
1.86
1.51
1.11
0.73
0.41
0.14
-0.12
-0.42
-0.74
-1.04
-1.28
-1.43
-1.55
-1.72
-2.01
-2.41
-2.83
-3.13
-3.23
-3.10
-2.74
-2.25
-1.70
-1.18
-0.77
-0.49
-0.32
-0.15
0.16
0.69
1.43
2.22
2.85
3.17
3.14
2.90
2.62
2.44
2.39
2.40
2.39
2.31
2.19
2.11
2.10
2.16
2.24
2.24
2.14
1.92
1.60
1.26
0.95
0.75
0.68
0.75
0.91
1.04
1.04
0.82
0.38
-0.21
-0.83
-1.38
-1.80
-2.08
-2.27
-2.42
-2.54
-2.61
-2.53
-2.27
-1.81
-1.20
-0.55
0.02
0.45
0.70
0.79
0.75
0.65
0.53
0.45
0.45
0.58
0.84
1.19
1.55
1.85
2.02
2.06
2.03
2.00
2.05
2.21
2.44
2.61
2.60
2.34
1.85
1.27
0.77
0.50
0.47
0.60
0.74
0.73
0.51
0.09
-0.46
-1.04
-1.54
-1.90
-2.10
-2.14
-2.06
-1.94
-1.85
-1.86
-1.95
-2.05
-2.03
-1.84
-1.47
-0.98
-0.48
-0.04
0.33
0.66
0.96
1.23
1.42
1.51
1.50
1.44
1.40
1.42
1.48
1.49
1.42
1.25
1.07
0.96
0.98
1.12
1.30
1.41
1.39
1.19
0.85
0.44
0.02
-0.36
-0.67
-0.92
-1.12
-1.29
-1.46
-1.66
-1.92
-2.28
-2.71
-3.17
-3.55
-3.73
-3.58
-3.06
-2.26
-1.33
-0.45
0.23
0.64
0.81
0.82
0.78
0.80
0.94
1.21
1.55
1.89
2.12
2.18
2.07
1.86
1.66
1.55
1.53
1.53
1.49
1.39
1.24
1.08
0.95
0.84
0.74
0.62
0.46
0.30
0.14
0.01
-0.08
-0.14
-0.16
-0.18
-0.25
-0.43
-0.75
-1.20
-1.68
-2.10
-2.44
-2.67
-2.85
-2.99
-3.09
-3.08
-2.92
-2.63
-2.25
-1.90
-1.63
-1.44
-1.27
-1.05
-0.70
-0.20
0.43
1.14
1.82
2.36
2.67
2.73
2.59
2.39
2.25
2.23
2.29
2.34
2.26
2.03
1.72
1.48
1.42
1.56
1.80
1.99
1.99
1.75
1.35
0.89
0.49
0.21
0.05
-0.03
-0.04
-0.02
-0.02
-0.13
-0.38
-0.80
-1.32
-1.81
-2.14
-2.26
-2.19
-1.99
-1.77
-1.61
-1.53
-1.52
-1.52
-1.46
-1.29
-0.98
-0.55
-0.07
0.35
0.62
0.71
0.65
0.55
0.52
0.61
0.77
0.91
0.98
0.98
0.99
1.11
1.32
1.52
1.54
1.28
0.77
0.20
-0.24
-0.41
-0.37
-0.29
-0.37
-0.66
-1.10
-1.53
-1.78
-1.84
-1.82
-1.87
-2.11
-2.55
-3.01
-3.28
-3.19
-2.71
-1.97
-1.21
-0.64
-0.37
-0.34
-0.40
-0.41
-0.27
-0.03
0.25
0.48
0.64
0.76
0.88
1.02
1.18
1.33
1.47
1.63
1.81
1.99
2.11
2.08
1.86
1.46
0.99
0.56
0.28
0.18
0.23
0.35
0.46
0.52
0.49
0.38
0.17
-0.15
-0.56
-1.05
-1.59
-2.12
-2.57
-2.89
-3.03
-3.03
-2.93
-2.80
-2.68
-2.57
-2.41
-2.15
-1.76
-1.28
-0.80
-0.41
-0.16
0.02
0.22
0.49
0.83
1.12
1.26
1.20
1.00
0.81
0.80
1.01
1.40
1.82
2.14
2.31
2.30
2.19
1.99
1.71
1.35
0.94
0.53
0.18
-0.07
-0.23
-0.32
-0.40
-0.47
-0.55
-0.66
-0.85
-1.18
-1.69
-2.35
-3.04
-3.64
-4.01
-4.11
-4.02
-3.86
-3.84
-4.05
-4.52
-5.15
-5.79
-6.29
-6.56
-6.64
-6.61
-6.58
-6.64
-6.82
-7.08
-7.39
-7.70
-8.04
-8.48
-9.08
-9.90
-10.90
-11.99
-13.06
-14.03
-14.87
-15.59
-16.20
-16.66
-16.93
-16.94
-16.70
-16.25
-15.62
-14.75
-13.49
-11.70
-9.34
-6.56
-3.69
-1.11
0.86
2.14
2.82
3.13
3.26
3.35
3.41
3.42
3.38
3.27
3.02
2.48
1.46
-0.23
-2.60
-5.41
-8.19
-10.35
-11.40
-11.09
-9.48
-6.88
-3.71
-0.37
2.84
5.71
8.16
10.17
11.78
13.11
14.27
15.36
16.47
17.60
18.69
19.64
20.33
20.70
20.72
20.47
20.05
19.57
19.13
18.77
18.46
18.13
17.72
17.20
16.61
16.00
15.47
15.08
14.84
14.69
14.53
14.21
13.62
12.75
11.64
10.43
9.30
8.40
7.83
7.57
7.52
7.53
7.43
7.08
6.42
5.49
4.41
3.36
2.49
1.86
1.47
1.26
1.10
0.88
0.56
0.13
-0.38
-0.91
-1.41
-1.83
-2.18
-2.46
-2.68
-2.83
-2.91
-2.90
-2.81
-2.66
-2.52
-2.46
-2.51
-2.64
-2.74
-2.71
-2.50
-2.12
-1.75
-1.58
-1.77
-2.38
-3.28
-4.22
-4.93
-5.21
-5.06
-4.63
-4.15
-3.82
-3.68
-3.66
-3.58
-3.29
-2.75
-2.00
-1.18
-0.42
0.14
0.46
0.54
0.43
0.28
0.21
0.33
0.61
0.94
1.17
1.19
1.02
0.76
0.54
0.44
0.42
0.39
0.27
0.05
-0.18
-0.30
-0.26
-0.09
0.09
0.14
-0.01
-0.36
-0.78
-1.16
-1.41
-1.51
-1.54
-1.61
-1.80
-2.10
-2.46
-2.75
-2.86
-2.76
-2.47
-2.09
-1.71
-1.37
-1.06
-0.75
-0.40
-0.01
0.36
0.65
0.82
0.88
0.85
0.80
0.74
0.70
0.65
0.60
0.56
0.58
0.69
0.89
1.10
1.21
1.12
0.82
0.37
-0.08
-0.40
-0.54
-0.52
-0.44
-0.37
-0.36
-0.42
-0.56
-0.78
-1.12
-1.59
-2.12
-2.66
-3.13
-3.44
-3.57
-3.53
-3.31
-2.92
-2.42
-1.85
-1.30
-0.85
-0.56
-0.44
-0.47
-0.63
-0.82
-0.98
-0.99
-0.82
-0.49
-0.10
0.22
0.36
0.33
0.19
0.06
0.04
0.14
0.29
0.38
0.36
0.23
0.03
-0.18
-0.38
-0.59
-0.80
-1.00
-1.12
-1.10
-0.94
-0.68
-0.44
-0.31
-0.35
-0.54
-0.84
-1.20
-1.61
-2.02
-2.38
-2.61
-2.63
-2.42
-2.05
-1.64
-1.29
-1.08
-0.95
-0.85
-0.74
-0.58
-0.40
-0.24
-0.08
0.12
0.39
0.71
1.03
1.25
1.34
1.26
1.07
0.85
0.66
0.55
0.55
0.65
0.84
1.05
1.21
1.20
1.00
0.60
0.08
-0.47
-0.97
-1.37
-1.65
-1.84
-1.91
-1.86
-1.68
-1.41
-1.15
-1.00
-1.03
-1.23
-1.50
-1.73
-1.80
-1.70
-1.46
-1.17
-0.89
-0.68
-0.53
-0.41
-0.30
-0.18
-0.05
0.10
0.23
0.31
0.33
0.29
0.25
0.29
0.47
0.82
1.28
1.72
1.98
1.96
1.64
1.09
0.44
-0.16
-0.60
-0.82
-0.85
-0.75
-0.64
-0.63
-0.74
-0.99
-1.32
-1.70
-2.09
-2.45
-2.75
-2.90
-2.79
-2.38
-1.70
-0.88
-0.12
0.38
0.56
0.48
0.26
0.04
-0.09
-0.12
-0.07
0.06
0.30
0.66
1.12
1.57
1.87
1.87
1.55
0.99
0.39
-0.05
-0.21
-0.12
0.09
0.21
0.14
-0.16
-0.59
-1.04
-1.42
-1.70
-1.94
-2.21
-2.53
-2.85
-3.08
-3.08
-2.81
-2.31
-1.71
-1.17
-0.81
-0.69
-0.73
-0.82
-0.82
-0.62
-0.23
0.28
0.77
1.11
1.24
1.19
1.09
1.06
1.22
1.58
2.04
2.49
2.78
2.80
2.52
1.96
1.24
0.48
-0.16
-0.60
-0.82
-0.87
-0.85
-0.81
-0.79
-0.79
-0.79
-0.80
-0.82
-0.84
-0.86
-0.83
-0.78
-0.74
-0.76
-0.88
-1.06
-1.21
-1.20
-0.96
-0.52
0.04
0.59
1.03
1.34
1.58
1.82
2.10
2.46
2.85
3.22
3.50
3.68
3.73
3.65
3.46
3.19
2.86
2.47
2.03
1.49
0.87
0.21
-0.42
-0.90
-1.15
-1.15
-0.96
-0.71
-0.52
-0.50
-0.67
-0.99
-1.40
-1.81
-2.20
-2.57
-2.91
-3.24
-3.50
-3.64
-3.63
-3.46
-3.16
-2.76
-2.31
-1.84
-1.39
-0.97
-0.65
-0.47
-0.46
-0.62
-0.88
-1.13
-1.24
-1.15
-0.82
-0.33
0.21
0.68
0.99
1.11
1.08
0.96
0.80
0.62
0.45
0.29
0.16
0.07
0.05
0.07
0.07
0.03
-0.05
-0.15
-0.24
-0.28
-0.30
-0.35
-0.45
-0.60
-0.74
-0.82
-0.80
-0.68
-0.50
-0.28
-0.02
0.30
0.68
1.07
1.36
1.46
1.34
1.10
0.88
0.83
1.01
1.35
1.68
1.86
1.77
1.43
0.97
0.51
0.19
0.05
0.08
0.21
0.39
0.57
0.75
0.92
1.07
1.15
1.11
0.89
0.54
0.16
-0.14
-0.31
-0.37
-0.48
-0.81
-1.44
-2.27
-3.08
-3.56
-3.52
-2.96
-2.10
-1.25
-0.68
-0.46
-0.50
-0.58
-0.53
-0.26
0.19
0.74
1.26
1.70
2.01
2.18
2.21
2.10
1.90
1.67
1.45
1.24
1.02
0.73
0.35
-0.07
-0.43
-0.62
-0.57
-0.28
0.12
0.48
0.63
0.49
0.09
-0.48
-1.09
-1.63
-2.02
-2.25
-2.26
-2.05
-1.65
-1.13
-0.60
-0.18
0.06
0.13
0.11
0.08
0.14
0.30
0.58
0.92
1.29
1.62
1.85
1.91
1.78
1.53
1.24
1.07
1.09
1.29
1.54
1.69
1.58
1.18
0.61
0.06
-0.29
-0.40
-0.34
-0.30
-0.46
-0.87
-1.41
-1.90
-2.20
-2.27
-2.20
-2.15
-2.22
-2.38
-2.52
-2.52
-2.33
-2.02
-1.68
-1.36
-1.01
-0.53
0.13
0.90
1.61
2.08
2.19
1.98
1.58
1.14
0.80
0.62
0.62
0.76
1.02
1.33
1.65
1.89
2.01
1.96
1.74
1.38
0.93
0.47
0.06
-0.24
-0.40
-0.45
-0.47
-0.55
-0.80
-1.28
-1.94
-2.66
-3.28
-3.63
-3.63
-3.30
-2.73
-2.05
-1.38
-0.78
-0.30
0.07
0.37
0.65
0.96
1.37
1.86
2.36
2.78
3.02
3.07
3.03
3.02
3.17
3.49
3.87
4.14
4.16
3.90
3.43
2.86
2.33
1.88
1.52
1.20
0.90
0.61
0.35
0.11
-0.07
-0.22
-0.36
-0.52
-0.71
-0.96
-1.25
-1.56
-1.83
-2.01
-2.04
-1.90
-1.59
-1.13
-0.58
-0.01
0.47
0.80
0.91
0.84
0.67
0.50
0.36
0.27
0.20
0.11
0.05
0.07
0.23
0.51
0.81
1.01
1.02
0.84
0.58
0.35
0.26
0.31
0.42
0.46
0.34
0.06
-0.34
-0.76
-1.09
-1.28
-1.30
-1.18
-0.98
-0.81
-0.76
-0.86
-1.13
-1.47
-1.77
-1.91
-1.84
-1.55
-1.14
-0.69
-0.24
0.18
0.58
0.95
1.31
1.65
1.98
2.32
2.61
2.78
2.76
2.53
2.15
1.76
1.48
1.35
1.34
1.33
1.19
0.84
0.25
-0.51
-1.34
-2.10
-2.64
-2.87
-2.79
-2.50
-2.15
-1.88
-1.71
-1.62
-1.47
-1.21
-0.82
-0.34
0.17
0.65
1.09
1.48
1.81
2.03
2.16
2.19
2.18
2.16
2.12
2.07
2.00
1.92
1.86
1.82
1.82
1.82
1.79
1.72
1.60
1.42
1.19
0.90
0.56
0.22
-0.06
-0.23
-0.31
-0.32
-0.35
-0.46
-0.69
-1.02
-1.42
-1.83
-2.24
-2.63
-2.99
-3.33
-3.64
-3.89
-4.02
-4.00
-3.79
-3.44
-2.99
-2.52
-2.10
-1.73
-1.38
-1.03
-0.64
-0.18
0.35
0.94
1.57
2.17
2.67
2.98
3.03
2.79
2.31
1.71
1.12
0.62
0.25
-0.03
-0.22
-0.33
-0.31
-0.16
0.12
0.41
0.62
0.65
0.49
0.21
-0.10
-0.37
-0.55
-0.65
-0.72
-0.81
-0.98
-1.24
-1.61
-2.01
-2.36
-2.54
-2.48
-2.21
-1.81
-1.39
-1.03
-0.78
-0.64
-0.59
-0.63
-0.76
-0.95
-1.14
-1.26
-1.26
-1.16
-1.02
-0.94
-1.01
-1.23
-1.52
-1.74
-1.79
-1.58
-1.16
-0.61
-0.06
0.40
0.71
0.85
0.83
0.68
0.46
0.26
0.21
0.40
0.84
1.44
2.05
2.49
2.63
2.48
2.15
1.78
1.52
1.46
1.55
1.70
1.77
1.70
1.49
1.20
0.94
0.79
0.74
0.73
0.68
0.51
0.21
-0.15
-0.46
-0.64
-0.65
-0.53
-0.40
-0.39
-0.59
-0.94
-1.32
-1.53
-1.43
-0.98
-0.26
0.57
1.31
1.86
2.16
2.21
2.08
1.85
1.61
1.47
1.49
1.68
2.02
2.44
2.86
3.22
3.51
3.70
3.77
3.71
3.52
3.23
2.93
2.67
2.49
2.35
2.17
1.88
1.44
0.89
0.28
-0.28
-0.75
-1.11
-1.38
-1.63
-1.93
-2.33
-2.83
-3.38
-3.92
-4.35
-4.61
-4.68
-4.57
-4.30
-3.89
-3.36
-2.73
-2.07
-1.51
-1.16
-1.07
-1.21
-1.45
-1.63
-1.63
-1.44
-1.09
-0.66
-0.23
0.16
0.47
0.67
0.74
0.69
0.57
0.48
0.50
0.64
0.84
1.00
0.98
0.78
0.44
0.09
-0.17
-0.28
-0.25
-0.18
-0.12
-0.12
-0.15
-0.19
-0.24
-0.32
-0.48
-0.76
-1.12
-1.52
-1.88
-2.16
-2.36
-2.49
-2.54
-2.51
-2.37
-2.15
-1.89
-1.66
-1.52
-1.43
-1.30
-1.04
-0.59
-0.03
0.52
0.92
1.08
1.02
0.84
0.66
0.54
0.49
0.51
0.58
0.73
0.96
1.26
1.57
1.83
1.94
1.87
1.63
1.28
0.89
0.50
0.16
-0.10
-0.29
-0.41
-0.49
-0.59
-0.74
-0.93
-1.13
-1.27
-1.31
-1.24
-1.05
-0.79
-0.51
-0.31
-0.26
-0.44
-0.82
-1.34
-1.83
-2.12
-2.12
-1.82
-1.35
-0.87
-0.48
-0.21
-0.02
0.16
0.35
0.49
0.53
0.45
0.31
0.19
0.21
0.40
0.71
1.05
1.28
1.30
1.08
0.69
0.21
-0.21
-0.47
-0.53
-0.47
-0.39
-0.44
-0.69
-1.14
-1.68
-2.18
-2.52
-2.62
-2.48
-2.12
-1.63
-1.09
-0.61
-0.27
-0.11
-0.09
-0.14
-0.18
-0.14
0.02
0.28
0.58
0.87
1.09
1.18
1.14
1.02
0.89
0.86
0.97
1.21
1.48
1.66
1.66
1.51
1.26
1.00
0.77
0.51
0.16
-0.31
-0.84
-1.29
-1.56
-1.58
-1.45
-1.31
-1.30
-1.46
-1.71
-1.95
-2.07
-2.08
-2.06
-2.06
-2.09
-2.07
-1.88
-1.48
-0.94
-0.38
0.06
0.31
0.40
0.43
0.45
0.51
0.55
0.55
0.48
0.38
0.28
0.20
0.17
0.21
0.32
0.49
0.68
0.79
0.75
0.53
0.17
-0.23
-0.57
-0.80
-0.93
-1.03
-1.14
-1.29
-1.39
-1.36
-1.14
-0.76
-0.34
-0.03
0.08
-0.02
-0.22
-0.39
-0.41
-0.25
0.06
0.45
0.84
1.17
1.38
1.42
1.25
0.91
0.49
0.09
-0.16
-0.24
-0.16
0.02
0.25
0.49
0.70
0.85
0.90
0.80
0.57
0.24
-0.15
-0.58
-1.03
-1.54
-2.09
-2.64
-3.07
-3.30
-3.26
-2.98
-2.56
-2.13
-1.83
-1.70
-1.75
-1.92
-2.13
-2.30
-2.38
-2.34
-2.16
-1.85
-1.45
-1.05
-0.78
-0.73
-0.90
-1.19
-1.38
-1.32
-0.93
-0.32
0.30
0.70
0.75
0.45
-0.07
-0.65
-1.16
-1.51
-1.68
-1.65
-1.44
-1.08
-0.67
-0.35
-0.27
-0.58
-1.30
-2.38
-3.66
-4.94
-6.07
-6.92
-7.48
-7.77
-7.85
-7.80
-7.70
-7.65
-7.73
-8.07
-8.71
-9.65
-10.75
-11.82
-12.70
-13.21
-13.29
-12.91
-12.03
-10.61
-8.61
-6.15
-3.53
-1.19
0.47
1.30
1.52
1.72
2.55
4.44
7.39
10.94
14.42
17.21
19.01
19.84
19.95
19.61
18.97
18.08
16.95
15.60
14.17
12.78
11.56
10.51
9.57
8.62
7.56
6.36
5.05
3.75
2.56
1.61
0.93
0.50
0.18
-0.14
-0.57
-1.10
-1.60
-1.89
-1.82
-1.36
-0.59
0.34
1.32
2.27
3.19
4.09
4.93
5.61
6.05
6.25
6.29
6.31
6.41
6.62
6.84
6.96
6.90
6.68
6.37
6.09
5.89
5.76
5.66
5.54
5.38
5.17
4.88
4.50
4.04
3.54
3.06
2.69
2.48
2.42
2.47
2.56
2.61
2.60
2.52
2.37
2.18
1.95
1.66
1.29
0.84
0.33
-0.18
-0.63
-0.93
-1.05
-1.01
-0.88
-0.79
-0.88
-1.21
-1.83
-2.66
-3.56
-4.40
-5.04
-5.44
-5.57
-5.50
-5.27
-4.95
-4.57
-4.18
-3.83
-3.56
-3.41
-3.38
-3.39
-3.36
-3.18
-2.81
-2.28
-1.67
-1.13
-0.78
-0.66
-0.74
-0.91
-1.07
-1.14
-1.09
-0.95
-0.77
-0.59
-0.41
-0.29
-0.28
-0.45
-0.80
-1.29
-1.79
-2.16
-2.32
-2.32
-2.27
-2.25
-2.30
-2.34
-2.27
-2.01
-1.61
-1.18
-0.85
-0.68
-0.62
-0.55
-0.37
-0.04
0.36
0.72
0.93
0.92
0.75
0.51
0.31
0.18
0.12
0.10
0.07
0.06
0.10
0.21
0.36
0.44
0.30
-0.17
-0.95
-1.89
-2.78
-3.38
-3.55
-3.31
-2.80
-2.22
-1.75
-1.47
-1.34
-1.24
-1.04
-0.70
-0.27
0.14
0.41
0.49
0.42
0.29
0.20
0.20
0.27
0.40
0.56
0.74
0.97
1.26
1.58
1.87
2.03
1.99
1.74
1.29
0.75
0.22
-0.22
-0.50
-0.64
-0.72
-0.80
-0.94
-1.16
-1.39
-1.56
-1.59
-1.48
-1.25
-0.97
-0.72
-0.55
-0.45
-0.37
-0.23
0.02
0.35
0.73
1.06
1.28
1.36
1.33
1.21
1.06
0.92
0.83
0.84
0.98
1.24
1.58
1.89
2.06
1.98
1.65
1.13
0.59
0.17
-0.06
-0.09
-0.03
0.05
0.08
0.08
0.06
0.03
-0.08
-0.35
-0.82
-1.44
-2.06
-2.55
-2.82
-2.88
-2.80
-2.64
-2.43
-2.15
-1.80
-1.43
-1.10
-0.84
-0.63
-0.42
-0.14
0.21
0.58
0.92
1.18
1.38
1.54
1.68
1.78
1.84
1.86
1.89
1.99
2.16
2.35
2.43
2.35
2.07
1.68
1.30
0.97
0.68
0.37
-0.02
-0.47
-0.89
-1.15
-1.22
-1.13
-1.03
-1.05
-1.25
-1.56
-1.86
-2.00
-1.92
-1.63
-1.19
-0.69
-0.20
0.24
0.57
0.76
0.80
0.70
0.56
0.45
0.44
0.57
0.79
1.05
1.26
1.39
1.42
1.39
1.37
1.38
1.46
1.56
1.62
1.57
1.37
1.04
0.68
0.36
0.15
0.06
0.01
-0.10
-0.35
-0.79
-1.40
-2.09
-2.76
-3.32
-3.69
-3.85
-3.78
-3.50
-3.09
-2.62
-2.18
-1.83
-1.61
-1.50
-1.44
-1.36
-1.19
-0.92
-0.58
-0.23
0.06
0.27
0.42
0.57
0.74
0.92
1.06
1.10
0.99
0.76
0.50
0.29
0.19
0.25
0.44
0.70
0.94
1.07
1.01
0.75
0.32
-0.16
-0.61
-0.96
-1.22
-1.41
-1.57
-1.72
-1.82
-1.85
-1.82
-1.72
-1.61
-1.47
-1.27
-0.96
-0.53
-0.02
0.48
0.86
1.10
1.22
1.32
1.48
1.73
2.04
2.36
2.66
2.92
3.16
3.42
3.69
3.96
4.20
4.39
4.49
4.46
4.26
3.86
3.29
2.64
2.01
1.49
1.10
0.78
0.42
-0.08
-0.70
-1.39
-2.01
-2.48
-2.75
-2.89
-3.02
-3.24
-3.58
-3.98
-4.32
-4.44
-4.29
-3.87
-3.29
-2.68
-2.16
-1.79
-1.54
-1.38
-1.24
-1.08
-0.87
-0.61
-0.32
-0.04
0.21
0.42
0.58
0.70
0.82
0.91
0.98
1.01
1.03
1.06
1.11
1.14
1.12
0.97
0.67
0.27
-0.14
-0.49
-0.74
-0.91
-1.03
-1.12
-1.20
-1.24
-1.26
-1.28
-1.33
-1.44
-1.56
-1.67
-1.73
-1.74
-1.71
-1.65
-1.54
-1.37
-1.14
-0.85
-0.54
-0.23
0.09
0.42
0.76
1.06
1.26
1.30
1.19
0.99
0.80
0.68
0.66
0.66
0.62
0.53
0.44
0.43
0.55
0.76
0.93
0.92
0.68
0.25
-0.20
-0.50
-0.57
-0.45
-0.26
-0.11
-0.05
-0.06
-0.08
-0.13
-0.22
-0.43
-0.75
-1.16
-1.54
-1.79
-1.84
-1.68
-1.37
-1.00
-0.67
-0.40
-0.21
-0.04
0.18
0.44
0.71
0.90
0.95
0.88
0.76
0.69
0.72
0.88
1.11
1.38
1.63
1.89
2.13
2.34
2.46
2.42
2.23
1.89
1.47
1.02
0.56
0.15
-0.17
-0.33
-0.31
-0.16
0.03
0.12
0.02
-0.29
-0.74
-1.22
-1.63
-1.90
-2.01
-2.01
-1.93
-1.81
-1.69
-1.59
-1.54
-1.51
-1.49
-1.43
-1.28
-0.99
-0.57
-0.08
0.38
0.70
0.85
0.87
0.84
0.87
1.00
1.19
1.34
1.40
1.36
1.26
1.18
1.13
1.10
1.08
1.04
0.99
0.94
0.88
0.78
0.62
0.43
0.27
0.23
0.32
0.51
0.66
0.70
0.60
0.43
0.25
0.11
-0.03
-0.23
-0.50
-0.80
-1.05
-1.22
-1.34
-1.52
-1.81
-2.18
-2.53
-2.69
-2.58
-2.21
-1.70
-1.20
-0.80
-0.55
-0.39
-0.27
-0.13
0.04
0.22
0.38
0.50
0.58
0.65
0.74
0.87
1.01
1.12
1.15
1.08
0.94
0.78
0.68
0.65
0.71
0.78
0.81
0.72
0.49
0.15
-0.24
-0.60
-0.86
-0.98
-0.97
-0.87
-0.74
-0.62
-0.56
-0.58
-0.70
-0.89
-1.14
-1.37
-1.52
-1.58
-1.55
-1.47
-1.38
-1.29
-1.16
-0.92
-0.56
-0.10
0.33
0.62
0.70
0.61
0.46
0.39
0.46
0.65
0.85
0.95
0.90
0.74
0.58
0.47
0.40
0.33
0.20
0.03
-0.12
-0.14
0.02
0.35
0.72
0.99
1.02
0.77
0.31
-0.22
-0.67
-0.95
-1.07
-1.08
-1.10
-1.21
-1.43
-1.72
-2.00
-2.18
-2.20
-2.05
-1.77
-1.42
-1.06
-0.73
-0.44
-0.21
-0.05
0.04
0.06
0.03
-0.02
-0.01
0.07
0.23
0.40
0.54
0.61
0.63
0.66
0.78
1.02
1.32
1.61
1.81
1.87
1.80
1.63
1.40
1.11
0.76
0.40
0.06
-0.16
-0.21
-0.11
0.05
0.14
0.05
-0.26
-0.72
-1.24
-1.67
-1.95
-2.06
-2.05
-1.98
-1.92
-1.83
-1.71
-1.52
-1.30
-1.13
-1.08
-1.17
-1.31
-1.38
-1.20
-0.71
0.03
0.82
1.43
1.72
1.65
1.38
1.08
0.93
0.99
1.20
1.46
1.68
1.81
1.87
1.90
1.90
1.84
1.67
1.37
0.99
0.59
0.29
0.14
0.15
0.27
0.40
0.47
0.44
0.32
0.15
-0.07
-0.33
-0.67
-1.11
-1.62
-2.11
-2.49
-2.67
-2.63
-2.45
-2.23
-2.06
-1.92
-1.71
-1.32
-0.73
0.00
0.67
1.09
1.14
0.86
0.40
-0.02
-0.28
-0.33
-0.23
-0.05
0.14
0.35
0.58
0.82
1.07
1.27
1.42
1.51
1.58
1.64
1.67
1.66
1.59
1.49
1.36
1.23
1.07
0.86
0.56
0.14
-0.38
-0.93
-1.47
-1.92
-2.24
-2.39
-2.39
-2.25
-2.01
-1.73
-1.46
-1.23
-1.02
-0.81
-0.55
-0.24
0.10
0.44
0.74
1.01
1.26
1.51
1.77
1.99
2.09
2.04
1.84
1.53
1.21
0.96
0.82
0.78
0.79
0.81
0.82
0.83
0.83
0.82
0.80
0.78
0.76
0.75
0.76
0.72
0.60
0.33
-0.08
-0.60
-1.14
-1.62
-2.00
-2.27
-2.47
-2.65
-2.82
-2.96
-3.05
-3.07
-3.03
-2.90
-2.68
-2.33
-1.84
-1.26
-0.67
-0.20
0.09
0.20
0.22
0.29
0.50
0.87
1.33
1.76
2.06
2.18
2.14
2.03
1.91
1.83
1.78
1.74
1.69
1.64
1.62
1.63
1.68
1.72
1.73
1.66
1.52
1.31
1.04
0.70
0.28
-0.16
-0.55
-0.81
-0.88
-0.80
-0.72
-0.79
-1.10
-1.61
-2.15
-2.56
-2.75
-2.72
-2.56
-2.35
-2.11
-1.82
-1.44
-0.98
-0.53
-0.15
0.10
0.26
0.41
0.64
0.95
1.33
1.68
1.95
2.14
2.25
2.32
2.39
2.48
2.58
2.66
2.68
2.58
2.31
1.87
1.31
0.71
0.18
-0.18
-0.33
-0.31
-0.17
0.01
0.20
0.35
0.43
0.35
0.02
-0.57
-1.34
-2.13
-2.72
-2.96
-2.82
-2.37
-1.75
-1.07
-0.43
0.10
0.49
0.72
0.79
0.76
0.70
0.68
0.69
0.67
0.58
0.42
0.31
0.36
0.61
0.99
1.32
1.41
1.21
0.81
0.43
0.28
0.41
0.73
1.05
1.20
1.10
0.83
0.54
0.35
0.21
0.02
-0.37
-0.99
-1.73
-2.37
-2.70
-2.65
-2.30
-1.85
-1.48
-1.24
-1.10
-0.93
-0.65
-0.27
0.14
0.49
0.75
0.91
1.01
1.05
1.07
1.06
1.05
1.06
1.11
1.19
1.27
1.35
1.44
1.54
1.66
1.76
1.76
1.63
1.38
1.09
0.87
0.82
0.92
1.13
1.32
1.40
1.33
1.13
0.84
0.50
0.14
-0.24
-0.62
-0.97
-1.26
-1.47
-1.63
-1.75
-1.86
-1.98
-2.09
-2.14
-2.12
-1.99
-1.77
-1.48
-1.17
-0.88
-0.63
-0.42
-0.20
0.05
0.37
0.75
1.14
1.50
1.81
2.07
2.31
2.56
2.80
3.01
3.12
3.11
2.97
2.71
2.39
2.04
1.73
1.49
1.38
1.40
1.48
1.51
1.38
1.05
0.60
0.14
-0.20
-0.38
-0.46
-0.53
-0.69
-0.97
-1.35
-1.76
-2.15
-2.44
-2.60
-2.54
-2.23
-1.67
-0.96
-0.28
0.20
0.38
0.28
0.03
-0.20
-0.29
-0.19
0.06
0.38
0.74
1.08
1.40
1.66
1.79
1.75
1.52
1.18
0.88
0.74
0.82
1.09
1.40
1.61
1.65
1.53
1.33
1.11
0.92
0.72
0.48
0.15
-0.26
-0.73
-1.18
-1.60
-1.97
-2.26
-2.41
-2.40
-2.18
-1.81
-1.39
-1.03
-0.83
-0.80
-0.86
-0.89
-0.79
-0.53
-0.18
0.15
0.38
0.48
0.50
0.55
0.68
0.91
1.16
1.38
1.49
1.49
1.42
1.33
1.24
1.17
1.10
1.02
0.93
0.84
0.76
0.66
0.53
0.36
0.17
-0.01
-0.17
-0.30
-0.43
-0.56
-0.68
-0.78
-0.84
-0.92
-1.08
-1.37
-1.75
-2.13
-2.35
-2.33
-2.07
-1.68
-1.30
-1.03
-0.88
-0.83
-0.79
-0.73
-0.63
-0.48
-0.24
0.10
0.53
0.96
1.32
1.54
1.62
1.62
1.62
1.65
1.68
1.69
1.64
1.55
1.44
1.38
1.37
1.44
1.55
1.64
1.66
1.55
1.25
0.78
0.21
-0.33
-0.69
-0.80
-0.66
-0.37
-0.06
0.15
0.21
0.11
-0.14
-0.53
-1.06
-1.72
-2.45
-3.11
-3.55
-3.68
-3.49
-3.08
-2.60
-2.14
-1.75
-1.38
-0.94
-0.41
0.19
0.72
1.06
1.13
0.96
0.68
0.46
0.43
0.62
0.91
1.15
1.22
1.09
0.85
0.68
0.69
0.95
1.37
1.84
2.23
2.43
2.40
2.17
1.79
1.33
0.83
0.35
-0.09
-0.48
-0.82
-1.05
-1.15
-1.09
-0.94
-0.77
-0.68
-0.74
-0.96
-1.28
-1.63
-1.96
-2.20
-2.30
-2.26
-2.07
-1.81
-1.56
-1.41
-1.35
-1.32
-1.23
-0.98
-0.62
-0.28
-0.07
-0.05
-0.14
-0.18
-0.04
0.29
0.70
1.04
1.22
1.25
1.21
1.15
1.08
0.95
0.75
0.49
0.29
0.23
0.35
0.58
0.78
0.80
0.60
0.22
-0.22
-0.60
-0.86
-0.99
-1.06
-1.16
-1.33
-1.56
-1.79
-1.94
-1.94
-1.81
-1.62
-1.44
-1.32
-1.23
-1.11
-0.88
-0.53
-0.11
0.30
0.61
0.79
0.83
0.76
0.63
0.47
0.33
0.26
0.32
0.50
0.75
0.97
1.05
0.95
0.69
0.39
0.14
0.04
0.10
0.26
0.47
0.62
0.64
0.49
0.16
-0.30
-0.82
-1.26
-1.55
-1.65
-1.61
-1.53
-1.53
-1.68
-1.99
-2.38
-2.75
-3.01
-3.10
-3.01
-2.74
-2.29
-1.65
-0.90
-0.13
0.48
0.78
0.72
0.38
-0.03
-0.29
-0.29
0.01
0.47
0.97
1.39
1.68
1.83
1.81
1.61
1.26
0.84
0.50
0.37
0.49
0.79
1.08
1.21
1.07
0.70
0.17
-0.40
-0.93
-1.38
-1.74
-2.00
-2.14
-2.15
-2.04
-1.87
-1.72
-1.65
-1.71
-1.86
-1.99
-1.99
-1.77
-1.30
-0.65
0.05
0.64
1.03
1.21
1.23
1.20
1.24
1.37
1.56
1.73
1.79
1.73
1.56
1.38
1.27
1.26
1.34
1.47
1.60
1.73
1.86
1.99
2.05
2.00
1.78
1.37
0.84
0.28
-0.21
-0.56
-0.78
-0.91
-1.04
-1.22
-1.45
-1.67
-1.83
-1.89
-1.88
-1.85
-1.87
-1.93
-2.02
-2.02
-1.87
-1.53
-1.06
-0.55
-0.10
0.22
0.43
0.57
0.67
0.70
0.65
0.50
0.30
0.15
0.18
0.48
1.04
1.73
2.34
2.67
2.63
2.26
1.74
1.31
1.10
1.14
1.28
1.36
1.23
0.87
0.39
-0.09
-0.44
-0.65
-0.77
-0.84
-0.88
-0.86
-0.75
-0.52
-0.20
0.17
0.50
0.77
1.00
1.23
1.57
2.05
2.67
3.36
4.01
4.55
4.95
5.24
5.40
5.39
5.18
4.77
4.27
3.92
3.91
4.30
4.95
5.52
5.68
5.21
4.14
2.68
1.10
-0.37
-1.64
-2.73
-3.68
-4.54
-5.29
-5.88
-6.25
-6.35
-6.19
-5.79
-5.24
-4.63
-4.03
-3.50
-3.04
-2.68
-2.50
-2.55
-2.94
-3.70
-4.80
-6.16
-7.63
-9.11
-10.51
-11.86
-13.30
-15.10
-17.49
-20.59
-24.20
-27.87
-30.92
-32.70
-32.87
-31.42
-28.68
-25.07
-20.92
-16.36
-11.36
-5.89
0.02
6.21
12.47
18.50
24.01
28.62
31.88
33.37
32.80
30.26
26.23
21.49
16.88
13.00
10.06
7.88
6.14
4.51
2.86
1.18
-0.47
-2.09
-3.69
-5.27
-6.71
-7.79
-8.28
-8.06
-7.18
-5.82
-4.19
-2.49
-0.89
0.41
1.18
1.23
0.49
-0.83
-2.34
-3.56
-4.22
-4.30
-4.05
-3.79
-3.70
-3.76
-3.78
-3.54
-2.94
-2.06
-1.11
-0.33
0.12
0.18
-0.04
-0.34
-0.42
0.01
1.16
3.04
5.42
7.88
9.97
11.42
12.16
12.36
12.29
12.10
11.81
11.31
10.52
9.51
8.47
7.68
7.33
7.39
7.65
7.84
7.78
7.50
7.20
7.13
7.42
7.96
8.46
8.61
8.23
7.39
6.38
5.54
5.08
5.03
5.22
5.41
5.41
5.19
4.80
4.38
4.04
3.85
3.85
4.05
4.38
4.76
5.08
5.24
5.16
4.83
4.31
3.63
2.89
2.18
1.61
1.30
1.30
1.54
1.89
2.17
2.29
2.29
2.35
2.66
3.31
4.25
5.32
6.36
7.29
8.09
8.80
9.45
10.06
10.70
11.42
12.29
13.20
13.85
13.73
12.32
9.31
4.82
-0.62
-6.22
-11.19
-15.02
-17.55
-18.94
-19.47
-19.48
-19.26
-19.11
-19.32
-20.19
-21.95
-24.59
-27.86
-31.26
-34.27
-36.48
-37.76
-38.25
-38.20
-37.84
-37.32
-36.67
-35.90
-34.99
-33.88
-32.45
-30.51
-27.93
-24.69
-21.00
-17.15
-13.43
-9.97
-6.74
-3.64
-0.68
2.05
4.36
6.17
7.56
8.81
10.24
12.04
14.18
16.35
18.20
19.43
19.94
19.86
19.47
18.99
18.55
18.11
17.55
16.84
15.99
15.16
14.48
14.01
13.69
13.39
13.03
12.59
12.14
11.74
11.43
11.17
10.92
10.63
10.29
9.88
9.34
8.62
7.69
6.57
5.36
4.15
3.01
1.93
0.86
-0.23
-1.28
-2.19
-2.81
-3.07
-2.98
-2.60
-2.01
-1.24
-0.33
0.67
1.66
2.55
3.32
4.01
4.80
5.82
7.14
8.64
10.10
11.25
11.90
11.99
11.55
10.69
9.50
8.08
6.51
4.86
3.21
1.67
0.32
-0.76
-1.53
-2.02
-2.33
-2.55
-2.72
-2.84
-2.84
-2.71
-2.53
-2.49
-2.84
-3.75
-5.17
-6.83
-8.33
-9.29
-9.50
-8.96
-7.81
-6.27
-4.50
-2.59
-0.60
1.40
3.28
4.88
6.04
6.68
6.83
6.61
6.23
5.88
5.69
5.70
5.84
5.98
5.99
5.78
5.36
4.78
4.11
3.39
2.64
1.85
1.02
0.26
-0.32
-0.59
-0.52
-0.21
0.17
0.40
0.33
-0.06
-0.68
-1.37
-1.98
-2.44
-2.70
-2.80
-2.83
-2.91
-3.15
-3.64
-4.38
-5.29
-6.23
-7.07
-7.72
-8.20
-8.59
-8.99
-9.49
-10.12
-10.85
-11.59
-12.26
-12.75
-12.98
-12.85
-12.24
-11.06
-9.19
-6.61
-3.41
0.20
3.85
7.14
9.75
11.56
12.65
13.23
13.54
13.68
13.62
13.19
12.28
10.86
9.07
7.13
5.24
3.52
2.00
0.70
-0.30
-0.91
-1.01
-0.61
0.17
1.08
1.87
2.39
2.61
2.62
2.50
2.26
1.79
0.93
-0.46
-2.40
-4.71
-7.08
-9.14
-10.54
-11.00
-10.41
-8.82
-6.40
-3.41
-0.23
2.76
5.21
6.84
7.51
7.22
6.09
4.34
2.28
0.20
-1.64
-3.08
-4.07
-4.66
-4.90
-4.79
-4.29
-3.35
-1.98
-0.35
1.27
2.55
3.25
3.32
2.87
2.17
1.50
1.07
0.97
1.15
1.47
1.78
1.95
1.92
1.72
1.41
1.08
0.81
0.63
0.52
0.45
0.40
0.35
0.32
0.30
0.31
0.35
0.43
0.57
0.75
0.93
1.04
0.97
0.67
0.15
-0.50
-1.12
-1.58
-1.83
-1.88
-1.87
-1.89
-2.02
-2.21
-2.37
-2.38
-2.22
-1.98
-1.83
-1.93
-2.31
-2.87
-3.44
-3.83
-3.97
-3.85
-3.57
-3.19
-2.75
-2.26
-1.77
-1.38
-1.21
-1.34
-1.72
-2.17
-2.47
-2.42
-1.97
-1.26
-0.48
0.16
0.57
0.79
0.91
0.97
0.93
0.72
0.30
-0.21
-0.62
-0.73
-0.50
-0.05
0.36
0.47
0.21
-0.28
-0.78
-1.05
-1.03
-0.79
-0.46
-0.16
0.07
0.27
0.45
0.57
0.56
0.36
-0.04
-0.55
-1.05
-1.44
-1.66
-1.71
-1.65
-1.49
-1.24
-0.91
-0.52
-0.18
0.02
-0.02
-0.27
-0.61
-0.86
-0.87
-0.61
-0.17
0.29
0.63
0.79
0.81
0.74
0.65
0.55
0.49
0.50
0.65
0.97
1.39
1.76
1.88
1.63
1.02
0.25
-0.45
-0.87
-0.98
-0.85
-0.63
-0.43
-0.30
-0.23
-0.19
-0.18
-0.21
-0.28
-0.34
-0.34
-0.21
0.04
0.38
0.74
1.06
1.31
1.46
1.49
1.39
1.17
0.91
0.68
0.57
0.57
0.65
0.73
0.77
0.75
0.75
0.79
0.89
1.01
1.10
1.13
1.08
0.98
0.82
0.59
0.23
-0.24
-0.78
-1.28
-1.64
-1.85
-1.95
-2.04
-2.19
-2.40
-2.61
-2.75
-2.77
-2.67
-2.47
-2.18
-1.81
-1.35
-0.84
-0.33
0.10
0.43
0.64
0.79
0.93
1.11
1.33
1.56
1.75
1.87
1.93
1.93
1.91
1.86
1.77
1.58
1.31
0.94
0.56
0.23
0.06
0.06
0.20
0.36
0.41
0.23
-0.20
-0.80
-1.46
-2.03
-2.44
-2.65
-2.71
-2.71
-2.70
-2.69
-2.65
-2.52
-2.29
-1.95
-1.58
-1.26
-1.08
-1.07
-1.18
-1.31
-1.35
-1.22
-0.92
-0.52
-0.07
0.34
0.66
0.86
0.91
0.82
0.64
0.46
0.38
0.50
0.78
1.14
1.39
1.40
1.16
0.79
0.46
0.29
0.30
0.37
0.34
0.09
-0.36
-0.87
-1.31
-1.59
-1.71
-1.74
-1.71
-1.63
-1.45
-1.15
-0.79
-0.47
-0.30
-0.32
-0.48
-0.64
-0.67
-0.50
-0.16
0.25
0.64
0.95
1.20
1.38
1.51
1.60
1.65
1.66
1.63
1.58
1.49
1.34
1.17
1.01
0.94
0.99
1.18
1.44
1.69
1.83
1.85
1.73
1.52
1.26
0.99
0.72
0.49
0.30
0.12
-0.08
-0.37
-0.77
-1.26
-1.75
-2.14
-2.36
-2.39
-2.28
-2.12
-1.93
-1.69
-1.38
-0.96
-0.49
-0.07
0.20
0.26
0.16
-0.01
-0.16
-0.20
-0.15
-0.02
0.16
0.44
0.86
1.43
2.11
2.74
3.13
3.13
2.74
2.08
1.39
0.88
0.66
0.68
0.81
0.91
0.93
0.90
0.88
0.87
0.76
0.46
-0.10
-0.83
-1.53
-1.98
-2.03
-1.72
-1.22
-0.73
-0.40
-0.27
-0.26
-0.30
-0.34
-0.40
-0.50
-0.65
-0.82
-0.93
-0.94
-0.84
-0.68
-0.51
-0.35
-0.21
-0.10
-0.04
-0.05
-0.15
-0.32
-0.51
-0.66
-0.74
-0.75
-0.74
-0.75
-0.79
-0.85
-0.86
-0.77
-0.51
-0.12
0.35
0.81
1.17
1.37
1.42
1.36
1.23
1.07
0.88
0.64
0.31
-0.12
-0.64
-1.19
-1.66
-1.98
-2.08
-1.93
-1.56
-1.02
-0.41
0.20
0.74
1.18
1.53
1.78
1.98
2.14
2.27
2.34
2.29
2.08
1.73
1.32
0.91
0.58
0.39
0.34
0.44
0.68
1.00
1.28
1.39
1.24
0.82
0.26
-0.27
-0.62
-0.78
-0.83
-0.91
-1.09
-1.32
-1.50
-1.53
-1.44
-1.31
-1.25
-1.28
-1.35
-1.36
-1.22
-0.95
-0.59
-0.25
0.04
0.27
0.50
0.76
1.08
1.38
1.60
1.67
1.61
1.50
1.43
1.49
1.69
1.96
2.21
2.34
2.31
2.16
1.98
1.82
1.74
1.71
1.67
1.55
1.28
0.85
0.30
-0.28
-0.77
-1.05
-1.09
-0.92
-0.60
-0.25
0.03
0.19
0.19
0.03
-0.28
-0.74
-1.29
-1.82
-2.20
-2.32
-2.12
-1.70
-1.22
-0.88
-0.78
-0.90
-1.08
-1.11
-0.88
-0.39
0.22
0.77
1.13
1.27
1.26
1.20
1.13
1.06
0.94
0.75
0.52
0.30
0.13
0.05
0.04
0.08
0.17
0.34
0.59
0.91
1.25
1.51
1.58
1.39
0.94
0.25
-0.55
-1.33
-1.93
-2.24
-2.21
-1.88
-1.40
-0.91
-0.54
-0.32
-0.23
-0.23
-0.25
-0.26
-0.24
-0.21
-0.18
-0.13
-0.09
-0.04
0.05
0.19
0.41
0.68
0.97
1.26
1.52
1.73
1.86
1.86
1.71
1.43
1.10
0.81
0.62
0.55
0.52
0.46
0.34
0.18
0.01
-0.14
-0.31
-0.57
-0.96
-1.50
-2.09
-2.60
-2.92
-2.97
-2.73
-2.23
-1.58
-0.91
-0.34
0.04
0.22
0.25
0.23
0.21
0.23
0.24
0.20
0.08
-0.12
-0.34
-0.55
-0.70
-0.78
-0.75
-0.62
-0.39
-0.06
0.32
0.68
0.92
0.93
0.64
0.08
-0.62
-1.27
-1.71
-1.85
-1.72
-1.46
-1.22
-1.11
-1.12
-1.20
-1.24
-1.20
-1.06
-0.87
-0.63
-0.35
-0.03
0.32
0.64
0.88
1.01
1.05
1.03
0.97
0.91
0.82
0.72
0.63
0.57
0.57
0.62
0.72
0.86
1.05
1.26
1.44
1.50
1.37
1.04
0.60
0.17
-0.15
-0.33
-0.42
-0.50
-0.65
-0.87
-1.17
-1.51
-1.90
-2.32
-2.72
-2.96
-2.91
-2.48
-1.69
-0.74
0.14
0.75
1.01
0.99
0.82
0.66
0.60
0.66
0.81
1.03
1.30
1.59
1.84
1.99
1.98
1.82
1.52
1.18
0.86
0.60
0.40
0.26
0.16
0.10
0.08
0.10
0.16
0.25
0.34
0.39
0.34
0.16
-0.19
-0.68
-1.24
-1.77
-2.15
-2.27
-2.10
-1.66
-1.07
-0.50
-0.05
0.20
0.29
0.29
0.31
0.40
0.57
0.78
0.99
1.18
1.34
1.47
1.58
1.66
1.70
1.68
1.60
1.49
1.41
1.42
1.56
1.80
2.00
1.99
1.67
1.06
0.30
-0.40
-0.87
-1.07
-1.02
-0.87
-0.73
-0.67
-0.76
-1.00
-1.37
-1.81
-2.22
-2.49
-2.52
-2.31
-1.94
-1.51
-1.11
-0.78
-0.49
-0.22
0.03
0.23
0.35
0.38
0.37
0.40
0.54
0.78
1.07
1.33
1.50
1.58
1.62
1.67
1.77
1.93
2.11
2.24
2.29
2.22
2.06
1.85
1.62
1.40
1.19
0.95
0.66
0.33
0.04
-0.13
-0.10
0.09
0.32
0.42
0.27
-0.12
-0.64
-1.07
-1.27
-1.19
-0.88
-0.46
-0.02
0.40
0.84
1.33
1.85
2.35
2.75
3.02
3.21
3.39
3.68
4.06
4.47
4.81
5.02
5.15
5.36
5.80
6.55
7.50
8.42
9.03
9.10
8.49
7.17
5.24
2.81
0.12
-2.53
-4.82
-6.45
-7.25
-7.25
-6.64
-5.75
-4.92
-4.43
-4.40
-4.76
-5.31
-5.74
-5.79
-5.33
-4.43
-3.36
-2.42
-1.81
-1.60
-1.67
-1.84
-1.96
-1.99
-1.97
-1.93
-1.90
-1.84
-1.72
-1.54
-1.35
-1.21
-1.14
-1.13
-1.15
-1.16
-1.16
-1.17
-1.18
-1.18
-1.14
-1.05
-0.92
-0.81
-0.76
-0.79
-0.85
-0.88
-0.79
-0.57
-0.27
0.01
0.20
0.24
0.13
-0.12
-0.46
-0.82
-1.12
-1.30
-1.30
-1.13
-0.84
-0.49
-0.16
0.08
0.26
0.41
0.54
0.64
0.65
0.51
0.25
-0.07
-0.29
-0.28
-0.00
0.47
0.95
1.29
1.38
1.27
1.04
0.78
0.48
0.10
-0.38
-0.90
-1.29
-1.39
-1.14
-0.65
-0.15
0.11
0.01
-0.41
-0.95
-1.41
-1.66
-1.72
-1.69
-1.68
-1.72
-1.74
-1.66
-1.43
-1.09
-0.75
-0.54
-0.54
-0.75
-1.10
-1.49
-1.80
-1.95
-1.89
-1.62
-1.19
-0.67
-0.15
0.27
0.54
0.64
0.61
0.52
0.44
0.45
0.54
0.70
0.83
0.85
0.67
0.31
-0.17
-0.68
-1.09
-1.33
-1.40
-1.33
-1.21
-1.08
-0.98
-0.91
-0.88
-0.88
-0.91
-0.96
-1.01
-1.02
-0.93
-0.74
-0.50
-0.30
-0.23
-0.34
-0.57
-0.79
-0.87
-0.76
-0.49
-0.22
-0.07
-0.13
-0.36
-0.68
-0.98
-1.22
-1.42
-1.61
-1.77
-1.83
-1.73
-1.45
-1.06
-0.70
-0.50
-0.48
-0.58
-0.67
-0.67
-0.58
-0.47
-0.45
-0.58
-0.83
-1.13
-1.38
-1.54
-1.63
-1.67
-1.69
-1.69
-1.63
-1.46
-1.13
-0.68
-0.19
0.27
0.57
0.69
0.62
0.43
0.17
-0.07
-0.27
-0.40
-0.44
-0.38
-0.25
-0.05
0.16
0.34
0.45
0.47
0.37
0.12
-0.23
-0.63
-0.96
-1.13
-1.11
-0.94
-0.73
-0.59
-0.60
-0.74
-0.92
-1.06
-1.12
-1.09
-0.99
-0.84
-0.64
-0.40
-0.15
0.06
0.18
0.21
0.22
0.27
0.39
0.57
0.75
0.84
0.81
0.66
0.46
0.28
0.19
0.20
0.29
0.43
0.58
0.71
0.81
0.89
0.96
1.01
1.00
0.89
0.70
0.45
0.24
0.11
0.08
0.11
0.10
-0.00
-0.24
-0.56
-0.86
-1.03
-0.99
-0.78
-0.51
-0.31
-0.29
-0.45
-0.72
-0.99
-1.20
-1.31
-1.35
-1.36
-1.33
-1.25
-1.09
-0.85
-0.59
-0.35
-0.19
-0.10
-0.06
-0.03
-0.00
-0.00
-0.06
-0.20
-0.42
-0.68
-0.89
-0.95
-0.83
-0.55
-0.20
0.13
0.35
0.44
0.45
0.40
0.33
0.27
0.21
0.20
0.24
0.37
0.55
0.75
0.88
0.90
0.76
0.50
0.16
-0.21
-0.57
-0.90
-1.19
-1.40
-1.49
-1.46
-1.30
-1.03
-0.72
-0.43
-0.21
-0.08
-0.05
-0.07
-0.10
-0.09
-0.00
0.17
0.40
0.62
0.78
0.84
0.85
0.86
0.96
1.18
1.48
1.74
1.85
1.74
1.44
1.07
0.75
0.58
0.58
0.68
0.80
0.87
0.84
0.72
0.55
0.36
0.15
-0.08
-0.33
-0.57
-0.78
-0.89
-0.89
-0.77
-0.56
-0.33
-0.11
0.06
0.20
0.32
0.44
0.54
0.59
0.57
0.44
0.25
0.05
-0.08
-0.07
0.09
0.34
0.57
0.67
0.61
0.41
0.19
0.05
0.05
0.17
0.34
0.50
0.58
0.59
0.53
0.41
0.26
0.13
0.09
0.18
0.39
0.62
0.77
0.79
0.69
0.58
0.55
0.63
0.74
0.72
0.48
0.01
-0.57
-1.06
-1.31
-1.25
-0.93
-0.46
0.04
0.48
0.82
1.05
1.17
1.20
1.20
1.21
1.27
1.41
1.60
1.80
1.99
2.16
2.29
2.41
2.53
2.66
2.85
3.10
3.41
3.76
4.08
4.30
4.38
4.34
4.21
4.08
3.98
3.93
3.89
3.81
3.61
3.24
2.68
1.94
1.06
0.11
-0.83
-1.70
-2.46
-3.08
-3.64
-4.19
-4.80
-5.46
-6.10
-6.61
-6.89
-6.90
-6.67
-6.27
-5.75
-5.14
-4.45
-3.71
-3.02
-2.49
-2.21
-2.16
-2.25
-2.30
-2.18
-1.82
-1.31
-0.77
-0.35
-0.13
-0.08
-0.12
-0.11
0.02
0.29
0.65
1.01
1.29
1.43
1.43
1.33
1.19
1.11
1.11
1.23
1.42
1.64
1.81
1.88
1.79
1.49
1.00
0.34
-0.37
-1.00
-1.43
-1.58
-1.46
-1.14
-0.75
-0.37
-0.04
0.26
0.55
0.85
1.09
1.22
1.17
0.95
0.68
0.48
0.44
0.59
0.86
1.13
1.35
1.51
1.63
1.77
1.92
2.04
2.08
2.03
1.94
1.87
1.83
1.82
1.81
1.77
1.74
1.77
1.89
2.06
2.20
2.23
2.11
1.85
1.53
1.22
0.93
0.62
0.24
-0.22
-0.72
-1.16
-1.43
-1.48
-1.32
-1.04
-0.74
-0.50
-0.36
-0.31
-0.32
-0.37
-0.39
-0.33
-0.11
0.29
0.83
1.39
1.81
1.96
1.81
1.43
0.99
0.66
0.53
0.63
0.92
1.32
1.75
2.12
2.34
2.34
2.13
1.80
1.46
1.22
1.11
1.10
1.11
1.10
1.05
0.99
0.95
0.90
0.78
0.51
0.08
-0.49
-1.13
-1.75
-2.31
-2.79
-3.19
-3.52
-3.78
-3.95
-3.99
-3.89
-3.62
-3.21
-2.72
-2.21
-1.73
-1.30
-0.92
-0.56
-0.23
0.07
0.31
0.51
0.70
0.93
1.20
1.48
1.74
1.91
1.97
1.95
1.86
1.74
1.61
1.51
1.45
1.46
1.56
1.67
1.72
1.62
1.35
0.93
0.47
0.07
-0.23
-0.40
-0.53
-0.66
-0.85
-1.09
-1.31
-1.45
-1.47
-1.37
-1.20
-1.07
-1.04
-1.15
-1.36
-1.56
-1.64
-1.50
-1.15
-0.64
-0.10
0.35
0.64
0.76
0.74
0.64
0.52
0.42
0.40
0.48
0.67
0.97
1.32
1.66
1.90
1.98
1.91
1.72
1.51
1.34
1.27
1.25
1.23
1.11
0.86
0.50
0.11
-0.20
-0.39
-0.48
-0.55
-0.66
-0.86
-1.13
-1.42
-1.71
-1.96
-2.16
-2.28
-2.29
-2.14
-1.86
-1.57
-1.42
-1.50
-1.79
-2.10
-2.16
-1.81
-1.06
-0.17
0.58
0.97
0.99
0.81
0.70
0.84
1.26
1.82
2.36
2.76
3.01
3.16
3.25
3.26
3.10
2.73
2.16
1.51
0.96
0.64
0.62
0.86
1.23
1.58
1.81
1.86
1.76
1.57
1.40
1.36
1.51
1.86
2.32
2.75
3.00
2.99
2.77
2.45
2.15
1.99
2.00
2.23
2.67
3.33
4.16
5.09
5.96
6.59
6.84
6.61
5.91
4.81
3.45
1.94
0.39
-1.12
-2.52
-3.72
-4.66
-5.34
-5.82
-6.21
-6.59
-6.97
-7.28
-7.42
-7.38
-7.24
-7.19
-7.30
-7.51
-7.60
-7.29
-6.43
-5.11
-3.58
-2.17
-1.11
-0.51
-0.32
-0.41
-0.65
-0.91
-1.08
-1.08
-0.84
-0.39
0.20
0.82
1.39
1.81
2.03
1.98
1.66
1.12
0.47
-0.10
-0.45
-0.53
-0.43
-0.31
-0.30
-0.45
-0.68
-0.82
-0.72
-0.34
0.23
0.84
1.30
1.52
1.48
1.23
0.90
0.56
0.28
0.08
-0.04
-0.08
-0.03
0.06
0.13
0.14
0.04
-0.17
-0.44
-0.74
-1.02
-1.22
-1.31
-1.25
-0.99
-0.58
-0.11
0.30
0.50
0.42
0.11
-0.32
-0.72
-0.96
-1.00
-0.84
-0.52
-0.09
0.39
0.83
1.16
1.30
1.24
1.03
0.80
0.67
0.70
0.87
1.09
1.25
1.33
1.37
1.45
1.58
1.73
1.83
1.81
1.71
1.62
1.64
1.77
1.95
2.04
1.93
1.62
1.21
0.85
0.65
0.63
0.73
0.86
0.96
0.95
0.81
0.49
0.01
-0.57
-1.13
-1.55
-1.76
-1.78
-1.75
-1.79
-1.99
-2.32
-2.69
-2.97
-3.04
-2.88
-2.55
-2.10
-1.65
-1.27
-1.00
-0.84
-0.73
-0.58
-0.31
0.16
0.82
1.59
2.34
2.88
3.05
2.76
2.08
1.19
0.34
-0.26
-0.53
-0.51
-0.34
-0.16
-0.03
0.02
-0.03
-0.19
-0.49
-0.91
-1.35
-1.65
-1.66
-1.35
-0.80
-0.18
0.33
0.63
0.75
0.77
0.76
0.78
0.81
0.84
0.88
0.97
1.14
1.36
1.55
1.60
1.45
1.11
0.67
0.29
0.07
0.04
0.17
0.40
0.68
0.98
1.27
1.54
1.76
1.86
1.78
1.51
1.08
0.59
0.17
-0.09
-0.17
-0.13
-0.09
-0.13
-0.28
-0.50
-0.72
-0.82
-0.79
-0.60
-0.29
0.09
0.46
0.70
0.74
0.55
0.20
-0.18
-0.45
-0.56
-0.55
-0.53
-0.57
-0.65
-0.67
-0.55
-0.30
-0.02
0.13
0.02
-0.32
-0.78
-1.17
-1.35
-1.27
-0.96
-0.52
-0.06
0.29
0.45
0.41
0.19
-0.16
-0.54
-0.93
-1.29
-1.64
-1.94
-2.14
-2.18
-1.99
-1.63
-1.20
-0.84
-0.67
-0.69
-0.80
-0.84
-0.69
-0.32
0.18
0.63
0.91
0.96
0.83
0.62
0.43
0.31
0.25
0.21
0.18
0.16
0.17
0.23
0.34
0.45
0.55
0.60
0.61
0.60
0.58
0.55
0.53
0.51
0.49
0.45
0.39
0.30
0.22
0.17
0.19
0.26
0.33
0.32
0.18
-0.09
-0.47
-0.86
-1.18
-1.33
-1.29
-1.06
-0.74
-0.47
-0.41
-0.69
-1.33
-2.24
-3.22
-4.06
-4.62
-4.85
-4.83
-4.70
-4.66
-4.87
-5.43
-6.31
-7.39
-8.45
-9.29
-9.77
-9.85
-9.62
-9.26
-8.95
-8.83
-8.95
-9.26
-9.63
-9.93
-10.02
-9.83
-9.42
-8.90
-8.45
-8.19
-8.08
-7.88
-7.14
-5.38
-2.28
2.03
7.04
11.94
15.93
18.53
19.69
19.69
18.91
17.65
16.00
14.00
11.72
9.37
7.28
5.69
4.64
3.89
3.08
1.93
0.39
-1.31
-2.78
-3.67
-3.81
-3.30
-2.41
-1.49
-0.80
-0.45
-0.33
-0.18
0.36
1.55
3.49
5.99
8.66
10.97
12.45
12.86
12.21
10.81
9.04
7.30
5.80
4.62
3.72
3.07
2.65
2.48
2.56
2.80
3.04
3.09
2.83
2.25
1.48
0.68
0.00
-0.50
-0.84
-1.15
-1.52
-2.01
-2.59
-3.13
-3.47
-3.48
-3.12
-2.46
-1.65
-0.85
-0.17
0.33
0.71
1.02
1.35
1.76
2.29
2.91
3.51
3.95
4.08
3.84
3.31
2.64
1.99
1.43
0.93
0.41
-0.16
-0.73
-1.19
-1.43
-1.45
-1.36
-1.32
-1.43
-1.68
-1.95
-2.09
-2.02
-1.82
-1.65
-1.67
-1.90
-2.22
-2.40
-2.25
-1.71
-0.93
-0.16
0.34
0.44
0.17
-0.31
-0.83
-1.28
-1.63
-1.92
-2.15
-2.30
-2.31
-2.14
-1.83
-1.47
-1.17
-1.00
-0.98
-1.09
-1.26
-1.46
-1.65
-1.83
-2.03
-2.25
-2.50
-2.77
-3.00
-3.09
-2.94
-2.46
-1.69
-0.76
0.11
0.71
0.93
0.76
0.31
-0.28
-0.88
-1.39
-1.73
-1.87
-1.84
-1.71
-1.60
-1.61
-1.77
-1.99
-2.09
-1.87
-1.15
0.06
1.62
3.23
4.53
5.27
5.34
4.84
4.04
3.21
2.58
2.20
1.96
1.75
1.46
1.08
0.69
0.34
0.09
-0.10
-0.29
-0.50
-0.73
-0.92
-1.01
-0.95
-0.78
-0.54
-0.25
0.11
0.59
1.28
2.17
3.14
4.01
4.54
4.59
4.15
3.35
2.37
1.43
0.60
-0.12
-0.77
-1.35
-1.80
-2.06
-2.08
-1.95
-1.80
-1.85
-2.18
-2.75
-3.36
-3.82
-4.09
-4.20
-4.24
-4.24
-4.24
-4.28
-4.49
-5.07
-6.29
-8.33
-11.04
-13.93
-16.42
-18.13
-19.02
-19.28
-19.19
-18.87
-18.26
-17.06
-14.85
-11.37
-6.68
-1.07
5.15
11.79
18.81
25.58
30.99
33.94
34.12
32.10
28.79
24.98
21.25
18.38
16.06
14.01
12.06
10.09
7.97
5.61
2.96
0.01
-3.10
-6.33
-9.57
-12.69
-15.61
-18.31
-20.74
-22.81
-24.30
-24.95
-24.58
-22.95
-19.88
-15.32
-9.48
-2.87
3.78
9.74
14.47
17.67
19.47
20.19
20.25
19.87
19.09
17.86
16.15
14.08
11.81
9.60
7.59
5.78
4.09
2.42
0.72
-0.95
-2.50
-3.91
-5.17
-6.31
-7.34
-8.24
-8.96
-9.42
-9.64
-9.61
-9.41
-9.07
-8.67
-8.26
-7.90
-7.57
-7.24
-6.81
-6.19
-5.37
-4.36
-3.20
-1.91
-0.49
1.03
2.61
4.09
5.30
6.07
6.34
6.16
5.65
4.96
4.22
3.50
2.84
2.27
1.82
1.55
1.46
1.53
1.68
1.76
1.63
1.18
0.44
-0.43
-1.20
-1.66
-1.69
-1.33
-0.73
-0.06
0.54
1.02
1.42
1.81
2.19
2.55
2.78
2.82
2.63
2.24
1.71
1.08
0.42
-0.28
-0.96
-1.58
-2.06
-2.34
-2.39
-2.25
-2.03
-1.80
-1.62
-1.51
-1.45
-1.38
-1.29
-1.15
-0.94
-0.67
-0.33
0.07
0.48
0.79
0.92
0.84
0.54
0.12
-0.32
-0.67
-0.88
-0.96
-0.96
-0.98
-1.12
-1.42
-1.86
-2.33
-2.69
-2.87
-2.82
-2.62
-2.39
-2.22
-2.17
-2.20
-2.22
-2.17
-2.03
-1.80
-1.52
-1.24
-1.01
-0.85
-0.75
-0.68
-0.58
-0.40
-0.12
0.25
0.64
0.98
1.20
1.26
1.17
0.97
0.75
0.62
0.66
0.92
1.33
1.77
2.15
2.39
2.55
2.70
2.87
3.03
3.09
3.00
2.75
2.45
2.23
2.17
2.21
2.22
2.06
1.66
1.08
0.49
0.07
-0.08
0.02
0.24
0.42
0.48
0.40
0.26
0.16
0.16
0.30
0.55
0.83
1.09
1.25
1.30
1.22
1.05
0.89
0.80
0.83
1.00
1.27
1.58
1.89
2.15
2.28
2.24
2.00
1.61
1.14
0.74
0.46
0.31
0.25
0.20
0.09
-0.08
-0.33
-0.67
-1.13
-1.75
-2.47
-3.16
-3.63
-3.74
-3.46
-2.94
-2.39
-2.05
-2.04
-2.35
-2.86
-3.39
-3.80
-3.99
-3.97
-3.80
-3.54
-3.25
-2.97
-2.74
-2.61
-2.64
-2.89
-3.36
-4.02
-4.77
-5.47
-6.02
-6.37
-6.53
-6.57
-6.58
-6.57
-6.51
-6.37
-6.10
-5.72
-5.27
-4.81
-4.35
-3.88
-3.35
-2.73
-2.04
-1.31
-0.59
0.09
0.73
1.37
2.01
2.65
3.31
3.97
4.64
5.33
6.05
6.78
7.50
8.12
8.55
8.70
8.53
8.09
7.50
6.89
6.34
5.85
5.37
4.80
4.11
3.34
2.59
1.95
1.42
0.91
0.32
-0.37
-1.10
-1.69
-1.97
-1.87
-1.47
-0.99
-0.63
-0.50
-0.58
-0.72
-0.80
-0.78
-0.69
-0.64
-0.68
-0.82
-0.97
-1.08
-1.10
-1.07
-1.04
-1.07
-1.14
-1.21
-1.19
-1.05
-0.76
-0.39
-0.03
0.21
0.29
0.26
0.18
0.13
0.11
0.08
-0.02
-0.21
-0.47
-0.70
-0.85
-0.88
-0.85
-0.82
-0.84
-0.85
-0.78
-0.56
-0.18
0.30
0.75
1.06
1.15
1.02
0.70
0.24
-0.29
-0.83
-1.27
-1.49
-1.40
-0.98
-0.35
0.27
0.67
0.71
0.46
0.09
-0.17
-0.19
0.01
0.26
0.40
0.32
0.06
-0.30
-0.65
-0.91
-1.09
-1.18
-1.20
-1.12
-0.92
-0.61
-0.25
0.06
0.25
0.24
0.04
-0.30
-0.70
-1.05
-1.31
-1.45
-1.47
-1.38
-1.18
-0.85
-0.40
0.12
0.64
1.05
1.31
1.42
1.42
1.41
1.45
1.56
1.69
1.77
1.71
1.45
0.97
0.30
-0.46
-1.21
-1.84
-2.28
-2.53
-2.64
-2.69
-2.76
-2.89
-3.06
-3.23
-3.38
-3.47
-3.52
-3.50
-3.38
-3.05
-2.45
-1.50
-0.24
1.21
2.66
3.88
4.70
5.07
5.03
4.71
4.27
3.84
3.47
3.15
2.82
2.42
1.91
1.32
0.70
0.14
-0.33
-0.72
-1.08
-1.48
-1.92
-2.37
-2.73
-2.91
-2.87
-2.62
-2.27
-1.91
-1.59
-1.29
-0.95
-0.52
0.01
0.57
1.09
1.51
1.82
2.08
2.36
2.70
3.11
3.53
3.88
4.10
4.13
3.97
3.63
3.15
2.59
2.07
1.70
1.58
1.76
2.20
2.78
3.37
3.78
3.92
3.76
3.38
2.92
2.52
2.27
2.18
2.18
2.17
2.09
1.91
1.68
1.46
1.30
1.24
1.24
1.27
1.26
1.19
1.05
0.88
0.74
0.67
0.66
0.69
0.68
0.56
0.34
0.05
-0.22
-0.44
-0.61
-0.79
-1.04
-1.38
-1.79
-2.22
-2.63
-2.94
-3.10
-3.07
-2.80
-2.31
-1.66
-1.00
-0.45
-0.08
0.12
0.22
0.32
0.45
0.59
0.68
0.69
0.63
0.58
0.61
0.73
0.89
0.99
0.96
0.83
0.66
0.55
0.53
0.55
0.54
0.41
0.16
-0.17
-0.51
-0.84
-1.15
-1.48
-1.85
-2.21
-2.49
-2.61
-2.55
-2.35
-2.10
-1.91
-1.87
-1.99
-2.24
-2.56
-2.85
-3.05
-3.12
-3.07
-2.92
-2.68
-2.34
-1.90
-1.38
-0.85
-0.40
-0.09
0.07
0.13
0.20
0.33
0.56
0.82
1.03
1.10
1.00
0.77
0.50
0.30
0.23
0.35
0.64
1.07
1.56
2.01
2.33
2.43
2.27
1.88
1.36
0.83
0.44
0.28
0.37
0.63
0.90
1.00
0.82
0.37
-0.24
-0.87
-1.37
-1.65
-1.72
-1.64
-1.48
-1.30
-1.11
-0.96
-0.89
-0.94
-1.13
-1.44
-1.76
-1.96
-1.93
-1.61
-1.07
-0.42
0.18
0.63
0.90
1.06
1.18
1.32
1.47
1.58
1.59
1.50
1.40
1.38
1.50
1.70
1.88
1.91
1.75
1.49
1.28
1.27
1.52
1.94
2.37
2.66
2.79
2.76
2.64
2.45
2.18
1.81
1.36
0.93
0.60
0.41
0.33
0.23
0.00
-0.41
-0.94
-1.47
-1.86
-2.05
-2.04
-1.94
-1.83
-1.81
-1.92
-2.15
-2.43
-2.64
-2.70
-2.57
-2.26
-1.85
-1.40
-0.99
-0.65
-0.37
-0.13
0.10
0.36
0.67
1.07
1.59
2.22
2.94
3.65
4.26
4.64
4.74
4.56
4.19
3.70
3.17
2.64
2.12
1.60
1.12
0.76
0.55
0.51
0.59
0.68
0.68
0.54
0.24
-0.24
-0.86
-1.56
-2.25
-2.79
-3.05
-2.98
-2.64
-2.17
-1.74
-1.45
-1.32
-1.32
-1.41
-1.56
-1.77
-1.98
-2.14
-2.16
-2.02
-1.75
-1.46
-1.26
-1.23
-1.37
-1.60
-1.79
-1.84
-1.66
-1.26
-0.74
-0.22
0.13
0.25
0.13
-0.15
-0.44
-0.67
-0.79
-0.82
-0.85
-0.95
-1.18
-1.55
-2.02
-2.52
-2.95
-3.23
-3.32
-3.26
-3.08
-2.81
-2.46
-1.99
-1.41
-0.75
-0.13
0.37
0.72
0.94
1.17
1.51
2.01
2.63
3.25
3.75
4.08
4.21
4.18
4.04
3.84
3.62
3.40
3.18
2.94
2.64
2.25
1.79
1.32
0.93
0.66
0.55
0.52
0.52
0.50
0.48
0.50
0.58
0.70
0.74
0.61
0.26
-0.23
-0.74
-1.12
-1.26
-1.13
-0.80
-0.37
0.07
0.42
0.60
0.58
0.35
-0.06
-0.60
-1.14
-1.60
-1.87
-1.94
-1.82
-1.60
-1.37
-1.16
-0.96
-0.75
-0.49
-0.19
0.08
0.24
0.23
0.09
-0.15
-0.43
-0.71
-1.00
-1.32
-1.66
-2.01
-2.34
-2.66
-3.00
-3.38
-3.80
-4.18
-4.45
-4.54
-4.45
-4.27
-4.14
-4.18
-4.49
-5.02
-5.66
-6.20
-6.49
-6.46
-6.18
-5.80
-5.52
-5.43
-5.55
-5.77
-5.97
-6.07
-6.00
-5.75
-5.28
-4.58
-3.64
-2.52
-1.28
0.02
1.37
2.87
4.59
6.58
8.75
10.84
12.58
13.71
14.15
13.99
13.42
12.65
11.80
10.87
9.85
8.69
7.46
6.25
5.19
4.30
3.53
2.73
1.75
0.53
-0.85
-2.20
-3.29
-3.93
-4.06
-3.79
-3.27
-2.73
-2.31
-2.09
-2.08
-2.29
-2.69
-3.26
-3.97
-4.69
-5.26
-5.52
-5.36
-4.79
-3.93
-3.00
-2.19
-1.60
-1.22
-0.90
-0.43
0.36
1.57
3.10
4.79
6.38
7.64
8.46
8.82
8.76
8.41
7.88
7.26
6.63
6.00
5.37
4.70
3.95
3.08
2.10
1.05
-0.00
-1.01
-1.93
-2.74
-3.42
-3.93
-4.26
-4.39
-4.37
-4.28
-4.18
-4.07
-3.88
-3.52
-2.96
-2.22
-1.43
-0.76
-0.28
0.02
0.20
0.34
0.47
0.56
0.55
0.45
0.32
0.27
0.39
0.68
1.09
1.51
1.81
1.89
1.73
1.33
0.79
0.22
-0.25
-0.55
-0.68
-0.72
-0.78
-0.95
-1.25
-1.63
-2.00
-2.29
-2.50
-2.68
-2.86
-3.02
-3.10
-2.99
-2.66
-2.14
-1.57
-1.10
-0.78
-0.62
-0.50
-0.35
-0.13
0.09
0.23
0.23
0.14
0.01
-0.08
-0.11
-0.10
-0.10
-0.10
-0.08
0.03
0.23
0.46
0.66
0.73
0.65
0.47
0.24
0.05
-0.06
-0.04
0.08
0.29
0.50
0.59
0.50
0.19
-0.25
-0.70
-1.04
-1.19
-1.17
-1.04
-0.92
-0.89
-1.01
-1.27
-1.65
-2.04
-2.33
-2.42
-2.29
-1.99
-1.65
-1.39
-1.26
-1.22
-1.21
-1.15
-1.03
-0.84
-0.61
-0.31
0.06
0.51
1.01
1.45
1.71
1.71
1.44
1.01
0.57
0.27
0.20
0.34
0.57
0.75
0.78
0.62
0.33
0.01
-0.25
-0.43
-0.53
-0.58
-0.56
-0.44
-0.23
0.05
0.31
0.43
0.35
0.05
-0.40
-0.87
-1.27
-1.52
-1.60
-1.55
-1.43
-1.27
-1.11
-0.92
-0.68
-0.36
0.01
0.39
0.70
0.91
1.04
1.14
1.29
1.51
1.78
2.05
2.19
2.16
1.94
1.61
1.29
1.10
1.10
1.24
1.42
1.49
1.39
1.14
0.81
0.50
0.24
0.00
-0.26
-0.55
-0.78
-0.83
-0.64
-0.25
0.15
0.36
0.20
-0.32
-1.07
-1.82
-2.40
-2.71
-2.76
-2.62
-2.36
-2.02
-1.60
-1.09
-0.52
0.06
0.57
0.95
1.17
1.30
1.38
1.50
1.67
1.86
1.99
2.01
1.88
1.66
1.44
1.29
1.23
1.22
1.20
1.12
1.00
0.86
0.74
0.64
0.51
0.31
0.02
-0.32
-0.62
-0.81
-0.81
-0.65
-0.41
-0.19
-0.09
-0.16
-0.38
-0.67
-0.94
-1.14
-1.24
-1.29
-1.36
-1.49
-1.66
-1.78
-1.78
-1.60
-1.25
-0.83
-0.42
-0.11
0.07
0.16
0.20
0.25
0.36
0.53
0.73
0.92
1.03
1.05
1.01
0.96
0.99
1.14
1.38
1.63
1.80
1.83
1.72
1.54
1.38
1.34
1.45
1.68
1.95
2.15
2.22
2.17
2.04
1.90
1.78
1.62
1.38
1.00
0.50
-0.02
-0.48
-0.81
-1.06
-1.29
-1.59
-1.96
-2.31
-2.53
-2.51
-2.24
-1.83
-1.41
-1.12
-0.99
-0.98
-0.97
-0.85
-0.61
-0.30
-0.01
0.18
0.22
0.15
0.05
0.01
0.08
0.25
0.47
0.68
0.84
0.95
1.02
1.11
1.24
1.44
1.64
1.76
1.73
1.50
1.11
0.64
0.20
-0.13
-0.28
-0.28
-0.17
-0.03
0.07
0.08
-0.01
-0.23
-0.55
-0.93
-1.32
-1.67
-1.91
-2.00
-1.92
-1.68
-1.31
-0.87
-0.39
0.08
0.50
0.85
1.11
1.27
1.35
1.41
1.49
1.65
1.91
2.25
2.60
2.85
2.93
2.81
2.54
2.25
2.03
1.95
1.99
2.03
1.97
1.75
1.42
1.09
0.89
0.90
1.11
1.43
1.77
2.03
2.18
2.25
2.24
2.16
2.03
1.85
1.67
1.52
1.42
1.35
1.27
1.16
1.05
1.00
1.11
1.38
1.75
2.10
2.32
2.33
2.11
1.70
1.13
0.46
-0.25
-0.91
-1.37
-1.55
-1.42
-1.09
-0.74
-0.57
-0.72
-1.19
-1.85
-2.48
-2.91
-3.09
-3.09
-3.08
-3.23
-3.63
-4.25
-4.91
-5.44
-5.72
-5.76
-5.66
-5.57
-5.63
-5.85
-6.20
-6.53
-6.70
-6.59
-6.20
-5.59
-4.89
-4.21
-3.65
-3.25
-3.03
-2.97
-3.02
-3.09
-3.04
-2.75
-2.16
-1.32
-0.40
0.43
1.02
1.29
1.28
1.11
0.89
0.76
0.81
1.06
1.49
1.99
2.42
2.66
2.67
2.47
2.16
1.85
1.59
1.40
1.25
1.12
0.99
0.86
0.69
0.42
0.02
-0.52
-1.12
-1.69
-2.09
-2.23
-2.08
-1.71
-1.21
-0.69
-0.19
0.29
0.78
1.32
1.95
2.66
3.44
4.23
4.97
5.58
6.00
6.20
6.21
6.16
6.12
6.19
6.37
6.56
6.68
6.66
6.52
6.34
6.20
6.15
6.14
6.12
6.03
5.81
5.48
5.06
4.59
4.12
3.68
3.30
2.94
2.50
1.87
0.96
-0.24
-1.57
-2.83
-3.79
-4.28
-4.31
-4.02
-3.62
-3.40
-3.60
-4.37
-5.67
-7.31
-8.96
-10.31
-11.14
-11.38
-11.11
-10.39
-9.26
-7.72
-5.84
-3.81
-1.92
-0.46
0.44
0.82
0.91
0.94
1.04
1.23
1.50
1.84
2.33
3.07
4.14
5.51
7.07
8.55
9.68
10.21
9.98
9.00
7.45
5.62
3.83
2.28
1.07
0.17
-0.53
-1.15
-1.80
-2.58
-3.57
-4.75
-5.99
-7.05
-7.64
-7.64
-7.06
-6.15
-5.20
-4.44
-3.92
-3.55
-3.16
-2.69
-2.20
-1.85
-1.79
-2.02
-2.38
-2.70
-2.81
-2.75
-2.67
-2.80
-3.28
-4.11
-5.12
-6.11
-6.90
-7.45
-7.79
-7.94
-7.90
-7.56
-6.84
-5.71
-4.28
-2.79
-1.49
-0.56
-0.04
0.19
0.25
0.28
0.27
0.14
-0.19
-0.72
-1.36
-1.93
-2.29
-2.38
-2.31
-2.19
-2.13
-2.09
-1.97
-1.62
-1.02
-0.31
0.31
0.67
0.75
0.74
0.88
1.39
2.29
3.43
4.55
5.39
5.85
5.97
5.92
5.89
6.00
6.27
6.58
6.74
6.56
5.90
4.73
3.20
1.58
0.16
-0.84
-1.36
-1.47
-1.36
-1.17
-0.99
-0.79
-0.54
-0.24
0.05
0.28
0.45
0.62
0.90
1.33
1.83
2.26
2.47
2.42
2.18
1.87
1.60
1.40
1.22
1.03
0.84
0.69
0.60
0.58
0.57
0.53
0.47
0.48
0.61
0.89
1.25
1.60
1.85
1.99
2.09
2.18
2.27
2.31
2.24
2.07
1.84
1.64
1.47
1.27
0.95
0.48
-0.09
-0.63
-1.01
-1.23
-1.37
-1.58
-1.90
-2.30
-2.59
-2.65
-2.44
-2.06
-1.69
-1.44
-1.29
-1.12
-0.81
-0.33
0.25
0.80
1.20
1.44
1.56
1.62
1.65
1.61
1.46
1.19
0.93
0.81
0.92
1.23
1.58
1.78
1.73
1.45
1.12
0.88
0.83
0.93
1.07
1.13
1.08
0.94
0.77
0.60
0.42
0.21
-0.02
-0.23
-0.37
-0.41
-0.37
-0.30
-0.27
-0.32
-0.47
-0.71
-1.01
-1.35
-1.67
-1.92
-2.03
-1.95
-1.67
-1.21
-0.67
-0.11
0.36
0.73
0.99
1.19
1.38
1.56
1.73
1.84
1.86
1.80
1.69
1.59
1.52
1.50
1.54
1.63
1.74
1.86
1.95
1.99
1.99
1.98
2.02
2.14
2.32
2.49
2.55
2.38
1.92
1.20
0.34
-0.52
-1.25
-1.78
-2.13
-2.35
-2.51
-2.63
-2.69
-2.66
-2.55
-2.39
-2.25
-2.14
-2.03
-1.87
-1.60
-1.24
-0.87
-0.54
-0.30
-0.14
-0.03
0.03
0.03
-0.06
-0.22
-0.37
-0.41
-0.29
-0.01
0.31
0.56
0.66
0.63
0.53
0.45
0.39
0.35
0.24
0.04
-0.22
-0.49
-0.69
-0.79
-0.80
-0.74
-0.66
-0.57
-0.49
-0.42
-0.36
-0.31
-0.27
-0.19
-0.05
0.17
0.46
0.76
1.02
1.20
1.32
1.37
1.34
1.19
0.88
0.42
-0.11
-0.56
-0.81
-0.81
-0.57
-0.25
-0.02
0.01
-0.17
-0.49
-0.85
-1.12
-1.24
-1.21
-1.09
-0.98
-0.95
-1.07
-1.35
-1.74
-2.17
-2.59
-2.93
-3.20
-3.45
-3.75
-4.12
-4.59
-5.09
-5.59
-6.02
-6.35
-6.57
-6.65
-6.57
-6.34
-6.00
-5.64
-5.38
-5.26
-5.22
-5.12
-4.77
-4.06
-2.98
-1.65
-0.24
1.09
2.24
3.14
3.76
4.12
4.26
4.31
4.41
4.68
5.12
5.62
5.97
6.00
5.64
4.98
4.18
3.44
2.86
2.45
2.13
1.80
1.40
0.94
0.49
0.10
-0.19
-0.38
-0.48
-0.50
-0.44
-0.33
-0.19
-0.02
0.15
0.32
0.48
0.60
0.65
0.63
0.62
0.68
0.89
1.27
1.76
2.27
2.67
2.89
2.93
2.83
2.62
2.34
2.01
1.65
1.29
0.99
0.78
0.70
0.71
0.76
0.80
0.76
0.64
0.44
0.23
0.03
-0.16
-0.37
-0.61
-0.89
-1.17
-1.39
-1.51
-1.58
-1.66
-1.82
-2.04
-2.21
-2.16
-1.78
-1.11
-0.34
0.29
0.61
0.61
0.46
0.39
0.59
1.08
1.75
2.39
2.84
3.02
2.97
2.82
2.72
2.76
2.93
3.18
3.36
3.39
3.25
2.98
2.71
2.51
2.42
2.37
2.31
2.14
1.86
1.50
1.12
0.78
0.49
0.21
-0.17
-0.69
-1.34
-2.02
-2.55
-2.76
-2.60
-2.16
-1.64
-1.28
-1.17
-1.27
-1.39
-1.36
-1.11
-0.74
-0.39
-0.22
-0.28
-0.48
-0.70
-0.80
-0.75
-0.54
-0.22
0.14
0.48
0.76
0.93
0.98
0.93
0.83
0.72
0.62
0.51
0.35
0.12
-0.17
-0.45
-0.68
-0.83
-0.93
-1.02
-1.15
-1.31
-1.50
-1.67
-1.81
-1.93
-2.04
-2.16
-2.27
-2.32
-2.27
-2.07
-1.73
-1.27
-0.74
-0.22
0.22
0.51
0.67
0.72
0.74
0.80
0.92
1.09
1.26
1.39
1.45
1.44
1.38
1.29
1.19
1.09
1.00
0.94
0.94
1.02
1.17
1.36
1.51
1.53
1.40
1.12
0.78
0.47
0.26
0.18
0.18
0.19
0.14
0.02
-0.14
-0.27
-0.32
-0.25
-0.08
0.17
0.44
0.70
0.88
0.98
0.98
0.94
0.90
0.93
1.05
1.27
1.54
1.79
1.94
1.96
1.82
1.56
1.23
0.90
0.69
0.67
0.87
1.27
1.74
2.14
2.28
2.09
1.56
0.82
0.05
-0.60
-1.01
-1.17
-1.18
-1.13
-1.09
-1.07
-0.99
-0.82
-0.57
-0.33
-0.26
-0.50
-1.06
-1.84
-2.66
-3.35
-3.79
-3.93
-3.80
-3.44
-2.94
-2.37
-1.83
-1.38
-1.05
-0.78
-0.52
-0.18
0.23
0.68
1.09
1.38
1.50
1.47
1.32
1.11
0.89
0.70
0.58
0.57
0.71
0.97
1.31
1.64
1.86
1.93
1.84
1.67
1.49
1.35
1.26
1.16
1.00
0.75
0.44
0.09
-0.25
-0.51
-0.68
-0.75
-0.72
-0.64
-0.57
-0.53
-0.52
-0.47
-0.36
-0.16
0.07
0.24
0.28
0.17
-0.01
-0.17
-0.19
-0.06
0.19
0.44
0.60
0.61
0.47
0.26
0.07
-0.04
-0.03
0.06
0.18
0.28
0.37
0.51
0.75
1.07
1.40
1.59
1.52
1.17
0.64
0.08
-0.37
-0.64
-0.79
-0.89
-1.01
-1.16
-1.30
-1.39
-1.43
-1.46
-1.54
-1.72
-2.01
-2.38
-2.75
-3.05
-3.20
-3.14
-2.88
-2.48
-2.11
-1.89
-1.90
-2.09
-2.27
-2.27
-2.00
-1.48
-0.90
-0.43
-0.18
-0.08
-0.01
0.16
0.44
0.73
0.87
0.77
0.47
0.17
0.04
0.18
0.46
0.68
0.61
0.22
-0.35
-0.86
-1.11
-1.06
-0.85
-0.70
-0.76
-1.05
-1.43
-1.72
-1.85
-1.83
-1.79
-1.84
-2.03
-2.28
-2.49
-2.54
-2.40
-2.09
-1.68
-1.25
-0.86
-0.56
-0.37
-0.27
-0.20
-0.09
0.13
0.47
0.92
1.40
1.79
2.02
2.06
1.97
1.83
1.72
1.72
1.85
2.09
2.40
2.71
2.94
3.02
2.94
2.72
2.44
2.16
1.92
1.70
1.46
1.18
0.90
0.71
0.67
0.78
0.94
0.99
0.82
0.44
-0.06
-0.55
-0.92
-1.18
-1.36
-1.53
-1.67
-1.75
-1.73
-1.64
-1.54
-1.51
-1.56
-1.64
-1.61
-1.35
-0.86
-0.24
0.37
0.79
0.98
0.97
0.85
0.72
0.62
0.50
0.27
-0.11
-0.57
-0.99
-1.20
-1.11
-0.74
-0.21
0.34
0.79
1.07
1.16
1.06
0.75
0.25
-0.36
-0.94
-1.39
-1.64
-1.72
-1.73
-1.75
-1.81
-1.87
-1.92
-1.95
-1.98
-2.07
-2.20
-2.32
-2.34
-2.17
-1.80
-1.30
-0.78
-0.38
-0.17
-0.15
-0.23
-0.30
-0.28
-0.13
0.08
0.30
0.46
0.57
0.66
0.75
0.82
0.81
0.66
0.38
0.05
-0.22
-0.32
-0.23
-0.04
0.13
0.17
0.08
-0.10
-0.24
-0.28
-0.24
-0.22
-0.31
-0.57
-0.89
-1.11
-1.09
-0.80
-0.34
0.09
0.31
0.28
0.05
-0.25
-0.48
-0.56
-0.47
-0.23
0.13
0.55
0.95
1.23
1.28
1.11
0.76
0.36
0.03
-0.11
-0.04
0.19
0.48
0.69
0.74
0.64
0.50
0.43
0.52
0.73
0.89
0.86
0.60
0.21
-0.13
-0.26
-0.18
-0.04
-0.04
-0.29
-0.75
-1.20
-1.46
-1.42
-1.16
-0.87
-0.72
-0.77
-0.98
-1.20
-1.32
-1.28
-1.10
-0.83
-0.52
-0.22
0.06
0.28
0.40
0.38
0.22
-0.02
-0.26
-0.39
-0.34
-0.13
0.17
0.42
0.52
0.46
0.28
0.11
0.10
0.30
0.69
1.14
1.48
1.57
1.38
0.96
0.44
-0.04
-0.39
-0.57
-0.61
-0.55
-0.43
-0.29
-0.17
-0.14
-0.30
-0.66
-1.19
-1.78
-2.24
-2.44
-2.32
-1.97
-1.55
-1.23
-1.11
-1.19
-1.34
-1.41
-1.32
-1.04
-0.63
-0.19
0.20
0.52
0.76
0.89
0.91
0.83
0.67
0.53
0.46
0.52
0.68
0.88
1.08
1.26
1.40
1.49
1.49
1.38
1.20
1.01
0.89
0.85
0.83
0.71
0.42
-0.00
-0.43
-0.69
-0.69
-0.43
-0.05
0.31
0.51
0.51
0.33
0.04
-0.26
-0.49
-0.59
-0.56
-0.46
-0.35
-0.30
-0.31
-0.33
-0.32
-0.28
-0.24
-0.25
-0.31
-0.38
-0.37
-0.22
0.01
0.23
0.34
0.29
0.16
0.10
0.20
0.49
0.87
1.20
1.35
1.29
1.04
0.70
0.38
0.16
0.13
0.29
0.58
0.93
1.20
1.33
1.30
1.12
0.85
0.53
0.18
-0.18
-0.46
-0.58
-0.50
-0.22
0.13
0.36
0.35
0.07
-0.37
-0.79
-1.05
-1.08
-0.91
-0.64
-0.35
-0.05
0.29
0.73
1.25
1.80
2.27
2.56
2.64
2.52
2.30
2.04
1.75
1.44
1.09
0.73
0.42
0.22
0.16
0.21
0.29
0.32
0.22
-0.02
-0.37
-0.76
-1.12
-1.37
-1.51
-1.53
-1.50
-1.42
-1.34
-1.24
-1.16
-1.14
-1.25
-1.48
-1.80
-2.04
-2.08
-1.86
-1.45
-1.02
-0.74
-0.67
-0.71
-0.68
-0.44
0.02
0.58
1.07
1.39
1.56
1.69
1.91
2.24
2.63
2.95
3.09
3.00
2.74
2.35
1.92
1.48
1.05
0.62
0.26
0.00
-0.08
0.02
0.25
0.50
0.59
0.41
-0.10
-0.85
-1.68
-2.38
-2.81
-2.93
-2.81
-2.54
-2.20
-1.84
-1.45
-1.05
-0.67
-0.39
-0.23
-0.15
-0.09
0.04
0.28
0.59
0.89
1.05
0.99
0.71
0.32
-0.03
-0.21
-0.15
0.09
0.36
0.51
0.48
0.29
0.07
-0.05
0.00
0.21
0.50
0.75
0.89
0.89
0.75
0.54
0.32
0.19
0.22
0.39
0.64
0.85
0.92
0.82
0.61
0.37
0.13
-0.11
-0.41
-0.78
-1.14
-1.39
-1.44
-1.28
-0.99
-0.73
-0.59
-0.63
-0.77
-0.91
-0.94
-0.84
-0.64
-0.39
-0.14
0.09
0.34
0.62
0.93
1.24
1.46
1.47
1.25
0.82
0.32
-0.07
-0.20
-0.02
0.37
0.77
1.00
0.93
0.60
0.10
-0.41
-0.83
-1.12
-1.31
-1.40
-1.42
-1.34
-1.20
-1.03
-0.89
-0.83
-0.89
-1.01
-1.13
-1.19
-1.18
-1.17
-1.29
-1.60
-2.11
-2.66
-3.08
-3.20
-2.98
-2.51
-1.97
-1.53
-1.31
-1.31
-1.47
-1.72
-1.97
-2.17
-2.28
-2.24
-2.02
-1.63
-1.10
-0.54
-0.07
0.23
0.27
0.06
-0.33
-0.77
-1.11
-1.25
-1.20
-1.03
-0.91
-0.95
-1.18
-1.53
-1.83
-1.95
-1.87
-1.65
-1.40
-1.20
-1.05
-0.89
-0.63
-0.27
0.16
0.57
0.87
1.05
1.13
1.18
1.23
1.32
1.41
1.53
1.67
1.84
2.05
2.26
2.43
2.53
2.56
2.57
2.63
2.78
3.01
3.29
3.55
3.70
3.70
3.55
3.31
3.05
2.84
2.73
2.68
2.61
2.45
2.15
1.73
1.28
0.86
0.56
0.40
0.35
0.36
0.37
0.33
0.19
-0.06
-0.41
-0.83
-1.21
-1.49
-1.60
-1.53
-1.32
-1.04
-0.74
-0.47
-0.24
-0.04
0.16
0.40
0.70
1.07
1.47
1.86
2.20
2.46
2.64
2.75
2.84
2.92
3.00
3.09
3.20
3.37
3.62
3.98
4.42
4.90
5.30
5.52
5.48
5.15
4.59
3.93
3.32
2.89
2.67
2.62
2.59
2.45
2.15
1.68
1.13
0.58
0.05
-0.49
-1.09
-1.77
-2.49
-3.15
-3.68
-4.03
-4.23
-4.33
-4.38
-4.43
-4.49
-4.58
-4.68
-4.78
-4.84
-4.85
-4.79
-4.69
-4.62
-4.65
-4.84
-5.16
-5.56
-5.99
-6.44
-6.97
-7.60
-8.32
-9.06
-9.69
-10.18
-10.56
-10.98
-11.58
-12.46
-13.63
-15.02
-16.55
-18.14
-19.72
-21.22
-22.57
-23.75
-24.71
-25.49
-26.05
-26.35
-26.27
-25.70
-24.61
-23.09
-21.33
-19.51
-17.76
-15.99
-13.98
-11.42
-8.09
-3.95
0.79
5.79
10.66
15.11
19.03
22.47
25.52
28.25
30.64
32.60
34.05
34.96
35.41
35.54
35.52
35.50
35.57
35.76
36.02
36.25
36.34
36.16
35.60
34.56
32.98
30.90
28.41
25.71
22.96
20.26
17.62
15.00
12.38
9.77
7.27
4.99
2.99
1.27
-0.22
-1.54
-2.70
-3.69
-4.51
-5.20
-5.83
-6.49
-7.20
-7.95
-8.66
-9.25
-9.70
-10.00
-10.18
-10.24
-10.20
-10.05
-9.83
-9.57
-9.33
-9.16
-9.02
-8.84
-8.53
-8.06
-7.47
-6.86
-6.37
-6.07
-5.94
-5.90
-5.81
-5.61
-5.31
-5.00
-4.79
-4.73
-4.79
-4.82
-4.71
-4.38
-3.89
-3.32
-2.80
-2.34
-1.91
-1.45
-0.95
-0.50
-0.26
-0.36
-0.79
-1.41
-1.97
-2.25
-2.18
-1.83
-1.36
-0.92
-0.58
-0.32
-0.12
0.02
0.05
-0.07
-0.34
-0.66
-0.93
-1.04
-1.00
-0.89
-0.83
-0.93
-1.20
-1.64
-2.16
-2.67
-3.04
-3.19
-3.06
-2.67
-2.14
-1.60
-1.18
-0.88
-0.62
-0.24
0.37
1.21
2.20
3.18
4.02
4.74
5.43
6.22
7.16
8.22
9.24
10.08
10.60
10.79
10.68
10.38
9.98
9.56
9.23
9.04
9.04
9.15
9.21
8.98
8.26
6.96
5.14
3.02
0.83
-1.22
-3.06
-4.72
-6.23
-7.62
-8.82
-9.72
-10.22
-10.28
-9.97
-9.40
-8.69
-7.93
-7.15
-6.35
-5.52
-4.67
-3.80
-2.93
-2.09
-1.29
-0.57
0.07
0.65
1.23
1.91
2.72
3.65
4.61
5.51
6.23
6.73
7.00
7.06
6.91
6.56
6.05
5.45
4.82
4.24
3.69
3.10
2.40
1.53
0.51
-0.60
-1.70
-2.77
-3.79
-4.78
-5.71
-6.52
-7.11
-7.42
-7.42
-7.18
-6.84
-6.51
-6.27
-6.09
-5.91
-5.64
-5.27
-4.90
-4.69
-4.79
-5.28
-6.11
-7.13
-8.15
-9.07
-9.88
-10.68
-11.55
-12.53
-13.58
-14.60
-15.51
-16.29
-16.99
-17.66
-18.34
-19.00
-19.57
-19.98
-20.20
-20.22
-20.04
-19.60
-18.77
-17.44
-15.56
-13.24
-10.69
-8.12
-5.71
-3.43
-1.19
1.15
3.62
6.15
8.57
10.77
12.68
14.34
15.81
17.08
18.07
18.68
18.88
18.79
18.67
18.78
19.31
20.26
21.40
22.44
23.13
23.39
23.34
23.15
22.96
22.76
22.38
21.62
20.42
18.83
17.06
15.29
13.59
11.93
10.21
8.39
6.51
4.70
3.08
1.67
0.43
-0.71
-1.80
-2.83
-3.75
-4.48
-5.01
-5.32
-5.44
-5.39
-5.19
-4.85
-4.43
-4.01
-3.67
-3.45
-3.33
-3.24
-3.07
-2.76
-2.33
-1.82
-1.30
-0.81
-0.35
0.10
0.53
0.91
1.16
1.25
1.18
1.04
0.92
0.89
0.96
1.11
1.23
1.25
1.07
0.69
0.14
-0.50
-1.14
-1.70
-2.17
-2.54
-2.86
-3.15
-3.43
-3.70
-3.98
-4.23
-4.41
-4.45
-4.27
-3.88
-3.34
-2.79
-2.35
-2.10
-2.01
-2.05
-2.13
-2.17
-2.13
-1.99
-1.77
-1.52
-1.35
-1.37
-1.62
-2.07
-2.62
-3.14
-3.57
-3.94
-4.33
-4.78
-5.26
-5.68
-5.95
-6.02
-5.92
-5.74
-5.52
-5.27
-4.93
-4.43
-3.75
-2.89
-1.94
-0.98
-0.10
0.59
1.04
1.25
1.25
1.14
0.99
0.85
0.70
0.51
0.27
0.00
-0.22
-0.35
-0.37
-0.34
-0.36
-0.50
-0.72
-0.92
-0.95
-0.73
-0.32
0.11
0.39
0.46
0.36
0.25
0.26
0.40
0.58
0.66
0.61
0.46
0.33
0.31
0.38
0.50
0.57
0.60
0.64
0.71
0.83
0.95
1.00
0.98
0.90
0.81
0.71
0.58
0.38
0.09
-0.25
-0.58
-0.87
-1.10
-1.29
-1.47
-1.65
-1.82
-1.95
-1.99
-1.88
-1.62
-1.22
-0.73
-0.20
0.29
0.69
0.94
1.01
0.89
0.63
0.33
0.13
0.14
0.35
0.68
0.96
1.07
0.98
0.75
0.50
0.32
0.25
0.25
0.29
0.36
0.49
0.67
0.88
1.05
1.13
1.10
0.98
0.83
0.71
0.63
0.57
0.48
0.33
0.08
-0.25
-0.61
-0.91
-1.08
-1.08
-0.92
-0.68
-0.46
-0.37
-0.44
-0.68
-1.04
-1.41
-1.71
-1.83
-1.70
-1.32
-0.77
-0.18
0.32
0.64
0.75
0.67
0.46
0.23
0.06
0.03
0.22
0.59
1.03
1.34
1.35
1.01
0.40
-0.25
-0.70
-0.83
-0.62
-0.24
0.15
0.39
0.42
0.28
0.06
-0.16
-0.33
-0.46
-0.57
-0.67
-0.74
-0.75
-0.68
-0.54
-0.41
-0.39
-0.54
-0.87
-1.28
-1.61
-1.78
-1.75
-1.60
-1.41
-1.25
-1.11
-0.97
-0.77
-0.56
-0.41
-0.39
-0.51
-0.72
-0.91
-0.96
-0.84
-0.59
-0.28
-0.01
0.20
0.35
0.50
0.71
0.98
1.26
1.44
1.46
1.31
1.05
0.79
0.61
0.54
0.54
0.58
0.62
0.64
0.62
0.56
0.43
0.23
0.01
-0.16
-0.20
-0.07
0.17
0.45
0.66
0.73
0.68
0.54
0.36
0.17
0.02
-0.06
-0.05
0.05
0.22
0.40
0.56
0.69
0.82
0.94
1.03
1.03
0.87
0.54
0.12
-0.27
-0.50
-0.52
-0.36
-0.12
0.11
0.24
0.26
0.19
0.06
-0.10
-0.29
-0.49
-0.69
-0.86
-0.96
-0.96
-0.85
-0.63
-0.37
-0.15
-0.04
-0.07
-0.21
-0.42
-0.66
-0.91
-1.20
-1.55
-1.94
-2.29
-2.50
-2.50
-2.26
-1.84
-1.33
-0.82
-0.36
-0.02
0.20
0.27
0.22
0.11
0.01
-0.03
0.00
0.08
0.16
0.25
0.37
0.57
0.86
1.23
1.59
1.87
2.03
2.10
2.12
2.14
2.14
2.09
1.95
1.78
1.66
1.67
1.83
2.05
2.15
2.00
1.57
0.97
0.39
0.03
-0.06
0.06
0.26
0.40
0.41
0.31
0.17
0.05
-0.01
-0.05
-0.10
-0.20
-0.31
-0.38
-0.32
-0.10
0.26
0.66
0.98
1.13
1.09
0.91
0.65
0.39
0.18
0.04
-0.03
0.00
0.15
0.39
0.70
1.01
1.21
1.26
1.15
0.95
0.74
0.63
0.63
0.70
0.73
0.61
0.35
0.01
-0.27
-0.40
-0.36
-0.23
-0.12
-0.08
-0.08
-0.07
-0.01
0.08
0.13
0.11
-0.00
-0.15
-0.28
-0.41
-0.56
-0.79
-1.09
-1.36
-1.44
-1.26
-0.84
-0.35
0.01
0.09
-0.08
-0.39
-0.64
-0.73
-0.67
-0.55
-0.44
-0.40
-0.41
-0.42
-0.41
-0.42
-0.47
-0.61
-0.81
-0.98
-1.05
-0.94
-0.69
-0.36
-0.09
0.01
-0.11
-0.44
-0.86
-1.25
-1.52
-1.63
-1.61
-1.52
-1.39
-1.25
-1.08
-0.90
-0.72
-0.59
-0.55
-0.58
-0.64
-0.69
-0.70
-0.67
-0.63
-0.58
-0.52
-0.42
-0.27
-0.08
0.11
0.28
0.38
0.45
0.53
0.67
0.89
1.18
1.47
1.68
1.76
1.69
1.51
1.26
1.00
0.74
0.50
0.24
-0.02
-0.24
-0.40
-0.45
-0.38
-0.19
0.08
0.39
0.68
0.92
1.08
1.15
1.10
0.92
0.60
0.17
-0.30
-0.70
-0.92
-0.89
-0.62
-0.23
0.15
0.37
0.38
0.20
-0.09
-0.36
-0.54
-0.57
-0.45
-0.23
0.05
0.32
0.50
0.56
0.47
0.25
-0.04
-0.32
-0.50
-0.54
-0.43
-0.24
-0.02
0.16
0.25
0.24
0.12
-0.13
-0.50
-0.94
-1.33
-1.53
-1.43
-1.00
-0.36
0.31
0.82
1.09
1.17
1.15
1.15
1.20
1.24
1.19
1.00
0.73
0.49
0.39
0.44
0.57
0.65
0.55
0.26
-0.15
-0.53
-0.72
-0.69
-0.47
-0.22
-0.07
-0.09
-0.25
-0.46
-0.60
-0.64
-0.58
-0.45
-0.31
-0.19
-0.14
-0.19
-0.38
-0.67
-1.00
-1.24
-1.29
-1.12
-0.81
-0.48
-0.26
-0.17
-0.18
-0.20
-0.19
-0.19
-0.28
-0.46
-0.70
-0.86
-0.83
-0.54
-0.06
0.43
0.76
0.80
0.54
0.09
-0.39
-0.76
-0.94
-0.92
-0.77
-0.58
-0.42
-0.36
-0.39
-0.48
-0.59
-0.67
-0.71
-0.71
-0.72
-0.75
-0.82
-0.92
-1.02
-1.09
-1.09
-0.99
-0.80
-0.51
-0.16
0.19
0.45
0.55
0.42
0.09
-0.36
-0.77
-1.01
-1.05
-0.90
-0.65
-0.42
-0.24
-0.10
0.05
0.22
0.40
0.55
0.62
0.62
0.59
0.59
0.67
0.81
0.93
0.96
0.84
0.60
0.31
0.09
0.02
0.08
0.22
0.33
0.32
0.18
-0.02
-0.17
-0.19
-0.07
0.13
0.34
0.50
0.62
0.71
0.79
0.80
0.70
0.44
0.09
-0.27
-0.51
-0.54
-0.38
-0.10
0.20
0.46
0.64
0.74
0.76
0.70
0.56
0.38
0.22
0.11
0.07
0.07
0.06
0.00
-0.08
-0.16
-0.19
-0.15
-0.09
-0.05
-0.09
-0.23
-0.42
-0.62
-0.75
-0.78
-0.67
-0.40
0.03
0.54
1.03
1.39
1.56
1.54
1.39
1.19
0.95
0.67
0.33
-0.07
-0.47
-0.76
-0.87
-0.77
-0.50
-0.11
0.33
0.78
1.17
1.40
1.42
1.23
0.92
0.63
0.47
0.46
0.55
0.63
0.62
0.52
0.39
0.27
0.17
0.03
-0.21
-0.55
-0.93
-1.23
-1.36
-1.30
-1.11
-0.90
-0.73
-0.58
-0.38
-0.09
0.30
0.72
1.06
1.23
1.23
1.08
0.83
0.54
0.22
-0.10
-0.34
-0.40
-0.22
0.22
0.81
1.40
1.82
1.93
1.69
1.16
0.47
-0.20
-0.67
-0.83
-0.67
-0.30
0.12
0.40
0.44
0.22
-0.22
-0.75
-1.28
-1.68
-1.90
-1.91
-1.75
-1.50
-1.27
-1.14
-1.15
-1.24
-1.37
-1.47
-1.52
-1.57
-1.64
-1.72
-1.78
-1.73
-1.53
-1.18
-0.74
-0.30
0.04
0.26
0.34
0.33
0.29
0.27
0.26
0.26
0.26
0.29
0.39
0.59
0.91
1.30
1.69
1.96
2.04
1.89
1.56
1.12
0.65
0.25
-0.02
-0.13
-0.05
0.17
0.48
0.76
0.96
1.04
1.01
0.90
0.77
0.61
0.44
0.26
0.12
0.04
0.06
0.16
0.26
0.34
0.35
0.32
0.31
0.35
0.44
0.55
0.63
0.66
0.63
0.58
0.59
0.70
0.91
1.18
1.40
1.49
1.42
1.18
0.82
0.38
-0.05
-0.40
-0.58
-0.53
-0.26
0.15
0.55
0.78
0.73
0.42
-0.04
-0.48
-0.77
-0.84
-0.71
-0.46
-0.20
-0.02
0.02
-0.09
-0.31
-0.57
-0.81
-0.98
-1.05
-1.03
-0.91
-0.73
-0.48
-0.21
0.07
0.30
0.44
0.48
0.38
0.18
-0.09
-0.36
-0.54
-0.58
-0.44
-0.14
0.23
0.55
0.68
0.56
0.19
-0.29
-0.73
-0.95
-0.90
-0.63
-0.30
-0.09
-0.09
-0.30
-0.61
-0.86
-0.97
-0.93
-0.82
-0.77
-0.87
-1.12
-1.45
-1.72
-1.82
-1.71
-1.41
-1.00
-0.56
-0.15
0.22
0.57
0.89
1.20
1.47
1.68
1.80
1.87
1.90
1.94
1.97
1.99
1.95
1.79
1.52
1.19
0.88
0.66
0.60
0.66
0.78
0.84
0.76
0.54
0.26
0.03
-0.04
0.06
0.26
0.43
0.46
0.34
0.12
-0.10
-0.25
-0.29
-0.28
-0.30
-0.39
-0.57
-0.80
-1.01
-1.16
-1.21
-1.20
-1.15
-1.10
-1.07
-1.03
-0.95
-0.76
-0.46
-0.03
0.47
0.97
1.40
1.73
1.92
2.00
2.01
2.00
1.98
1.93
1.78
1.50
1.07
0.58
0.18
0.03
0.18
0.60
1.15
1.65
1.98
2.07
1.98
1.74
1.43
1.07
0.68
0.29
-0.02
-0.20
-0.19
-0.03
0.24
0.51
0.66
0.62
0.34
-0.13
-0.69
-1.19
-1.48
-1.49
-1.24
-0.81
-0.34
0.06
0.30
0.37
0.29
0.12
-0.11
-0.32
-0.46
-0.48
-0.34
-0.09
0.19
0.37
0.35
0.09
-0.34
-0.79
-1.10
-1.16
-0.94
-0.53
-0.04
0.38
0.63
0.64
0.42
0.02
-0.42
-0.79
-0.98
-0.99
-0.92
-0.92
-1.11
-1.49
-1.96
-2.34
-2.47
-2.32
-1.98
-1.63
-1.43
-1.42
-1.51
-1.54
-1.37
-0.96
-0.40
0.14
0.51
0.65
0.66
0.66
0.79
1.07
1.42
1.69
1.76
1.60
1.26
0.88
0.62
0.56
0.71
0.99
1.25
1.34
1.16
0.76
0.23
-0.24
-0.52
-0.58
-0.45
-0.26
-0.08
0.03
0.07
0.03
-0.13
-0.45
-0.96
-1.58
-2.15
-2.51
-2.55
-2.31
-1.95
-1.68
-1.63
-1.79
-2.04
-2.20
-2.14
-1.84
-1.38
-0.90
-0.52
-0.30
-0.21
-0.17
-0.11
0.02
0.22
0.43
0.60
0.68
0.67
0.59
0.48
0.35
0.19
0.01
-0.17
-0.30
-0.32
-0.20
0.04
0.33
0.60
0.78
0.83
0.77
0.60
0.34
0.00
-0.38
-0.76
-1.07
-1.25
-1.26
-1.12
-0.89
-0.66
-0.51
-0.46
-0.50
-0.58
-0.62
-0.59
-0.45
-0.22
0.06
0.35
0.60
0.76
0.82
0.75
0.57
0.28
-0.06
-0.41
-0.72
-0.92
-1.00
-0.94
-0.77
-0.53
-0.30
-0.12
-0.04
-0.07
-0.20
-0.38
-0.53
-0.59
-0.53
-0.35
-0.14
0.01
-0.00
-0.20
-0.52
-0.85
-1.08
-1.18
-1.19
-1.21
-1.31
-1.50
-1.67
-1.68
-1.47
-1.09
-0.67
-0.39
-0.33
-0.44
-0.58
-0.61
-0.45
-0.17
0.11
0.26
0.24
0.07
-0.17
-0.39
-0.54
-0.55
-0.42
-0.13
0.31
0.82
1.31
1.65
1.75
1.59
1.25
0.89
0.63
0.53
0.60
0.78
1.01
1.21
1.35
1.37
1.22
0.90
0.44
-0.05
-0.45
-0.67
-0.72
-0.66
-0.61
-0.64
-0.71
-0.74
-0.63
-0.38
-0.03
0.29
0.48
0.49
0.34
0.11
-0.11
-0.21
-0.12
0.18
0.65
1.17
1.62
1.89
1.91
1.70
1.33
0.93
0.59
0.39
0.36
0.52
0.79
1.08
1.27
1.26
1.02
0.62
0.20
-0.12
-0.24
-0.17
0.03
0.27
0.48
0.63
0.73
0.75
0.66
0.46
0.15
-0.23
-0.62
-0.92
-1.11
-1.16
-1.10
-0.95
-0.75
-0.53
-0.33
-0.18
-0.13
-0.17
-0.27
-0.34
-0.30
-0.07
0.36
0.91
1.47
1.89
2.08
2.02
1.76
1.41
1.08
0.85
0.74
0.73
0.79
0.85
0.87
0.86
0.80
0.73
0.67
0.66
0.68
0.70
0.69
0.63
0.52
0.38
0.22
0.04
-0.18
-0.44
-0.72
-0.96
-1.12
-1.18
-1.18
-1.21
-1.34
-1.61
-1.95
-2.21
-2.26
-2.05
-1.62
-1.12
-0.72
-0.48
-0.41
-0.40
-0.34
-0.20
-0.02
0.11
0.10
-0.06
-0.28
-0.42
-0.39
-0.16
0.16
0.47
0.64
0.65
0.53
0.37
0.25
0.20
0.21
0.23
0.21
0.10
-0.10
-0.38
-0.70
-0.99
-1.19
-1.24
-1.11
-0.81
-0.40
0.02
0.33
0.45
0.36
0.10
-0.25
-0.59
-0.86
-1.02
-1.08
-1.04
-0.89
-0.65
-0.34
-0.03
0.21
0.34
0.34
0.25
0.11
-0.01
-0.04
0.05
0.24
0.50
0.76
0.96
1.08
1.13
1.13
1.12
1.13
1.16
1.25
1.43
1.68
1.95
2.15
2.20
2.06
1.79
1.48
1.21
1.02
0.83
0.58
0.25
-0.13
-0.48
-0.73
-0.86
-0.91
-0.91
-0.93
-0.97
-1.07
-1.24
-1.50
-1.81
-2.09
-2.23
-2.11
-1.72
-1.16
-0.58
-0.15
0.02
-0.08
-0.34
-0.62
-0.77
-0.74
-0.52
-0.17
0.22
0.58
0.83
0.94
0.90
0.72
0.49
0.29
0.23
0.33
0.57
0.86
1.10
1.25
1.31
1.31
1.28
1.21
1.10
0.93
0.72
0.52
0.37
0.28
0.24
0.24
0.25
0.23
0.14
-0.01
-0.23
-0.45
-0.57
-0.50
-0.23
0.18
0.59
0.88
0.98
0.91
0.76
0.63
0.61
0.72
0.92
1.15
1.34
1.44
1.44
1.39
1.33
1.31
1.31
1.31
1.27
1.17
1.06
0.97
0.92
0.87
0.75
0.49
0.08
-0.40
-0.83
-1.09
-1.14
-1.01
-0.82
-0.67
-0.64
-0.75
-0.94
-1.14
-1.27
-1.31
-1.29
-1.26
-1.28
-1.35
-1.43
-1.43
-1.29
-1.02
-0.70
-0.44
-0.36
-0.48
-0.72
-0.96
-1.05
-0.94
-0.66
-0.33
-0.05
0.11
0.15
0.14
0.12
0.11
0.11
0.10
0.09
0.08
0.11
0.15
0.19
0.17
0.08
-0.05
-0.16
-0.22
-0.21
-0.18
-0.19
-0.28
-0.44
-0.62
-0.76
-0.83
-0.83
-0.82
-0.87
-0.99
-1.18
-1.33
-1.37
-1.23
-0.88
-0.39
0.13
0.56
0.83
0.91
0.88
0.83
0.85
0.95
1.12
1.29
1.43
1.50
1.51
1.46
1.36
1.23
1.10
0.99
0.92
0.88
0.87
0.88
0.86
0.82
0.73
0.56
0.30
-0.03
-0.39
-0.70
-0.93
-1.07
-1.15
-1.23
-1.31
-1.34
-1.24
-0.95
-0.52
-0.06
0.29
0.42
0.35
0.20
0.12
0.20
0.45
0.79
1.10
1.31
1.39
1.37
1.30
1.23
1.17
1.15
1.17
1.23
1.32
1.40
1.45
1.43
1.33
1.16
0.93
0.64
0.33
0.03
-0.19
-0.28
-0.25
-0.15
-0.06
-0.06
-0.20
-0.45
-0.72
-0.97
-1.14
-1.28
-1.43
-1.62
-1.81
-1.94
-1.89
-1.62
-1.17
-0.62
-0.07
0.41
0.81
1.12
1.35
1.46
1.41
1.17
0.78
0.35
0.02
-0.10
0.02
0.30
0.63
0.85
0.90
0.76
0.50
0.24
0.06
-0.03
-0.06
-0.09
-0.20
-0.41
-0.72
-1.09
-1.44
-1.71
-1.84
-1.81
-1.65
-1.44
-1.29
-1.26
-1.39
-1.61
-1.81
-1.88
-1.78
-1.52
-1.19
-0.90
-0.72
-0.68
-0.77
-0.91
-1.04
-1.08
-0.97
-0.71
-0.33
0.07
0.42
0.64
0.71
0.66
0.51
0.30
0.05
-0.21
-0.43
-0.51
-0.42
-0.15
0.24
0.64
0.95
1.11
1.14
1.06
0.92
0.78
0.66
0.56
0.47
0.36
0.22
0.05
-0.13
-0.24
-0.25
-0.09
0.18
0.49
0.73
0.81
0.72
0.55
0.40
0.37
0.49
0.67
0.79
0.77
0.61
0.42
0.34
0.41
0.59
0.75
0.79
0.68
0.53
0.46
0.57
0.81
1.08
1.22
1.15
0.84
0.40
-0.08
-0.48
-0.75
-0.88
-0.90
-0.87
-0.85
-0.91
-1.06
-1.31
-1.64
-1.94
-2.12
-2.06
-1.68
-1.01
-0.18
0.60
1.11
1.25
1.06
0.74
0.47
0.39
0.50
0.67
0.79
0.81
0.76
0.73
0.78
0.89
0.99
0.99
0.88
0.73
0.64
0.69
0.84
1.03
1.14
1.10
0.93
0.70
0.49
0.35
0.27
0.22
0.14
0.00
-0.17
-0.33
-0.42
-0.40
-0.28
-0.10
0.11
0.29
0.40
0.37
0.20
-0.13
-0.52
-0.87
-1.03
-0.93
-0.60
-0.16
0.24
0.52
0.67
0.77
0.89
1.04
1.21
1.36
1.47
1.55
1.63
1.69
1.72
1.67
1.52
1.29
1.01
0.72
0.48
0.29
0.15
0.04
-0.09
-0.28
-0.60
-1.05
-1.62
-2.24
-2.81
-3.23
-3.44
-3.43
-3.27
-3.07
-2.90
-2.81
-2.76
-2.71
-2.58
-2.34
-2.02
-1.67
-1.39
-1.22
-1.21
-1.34
-1.58
-1.85
-2.06
-2.13
-2.05
-1.85
-1.63
-1.49
-1.50
-1.63
-1.80
-1.90
-1.87
-1.74
-1.57
-1.48
-1.49
-1.63
-1.84
-2.09
-2.35
-2.61
-2.89
-3.21
-3.59
-4.04
-4.57
-5.16
-5.76
-6.30
-6.73
-7.04
-7.28
-7.51
-7.77
-8.06
-8.30
-8.38
-8.24
-7.85
-7.24
-6.50
-5.69
-4.86
-3.97
-2.92
-1.59
0.10
2.17
4.54
7.11
9.73
12.27
14.65
16.81
18.71
20.30
21.53
22.34
22.66
22.52
21.96
21.09
20.02
18.82
17.48
15.97
14.25
12.33
10.29
8.17
6.05
3.98
2.00
0.21
-1.29
-2.40
-3.09
-3.37
-3.36
-3.17
-2.93
-2.72
-2.60
-2.59
-2.66
-2.77
-2.85
-2.87
-2.84
-2.79
-2.78
-2.77
-2.72
-2.54
-2.18
-1.67
-1.13
-0.70
-0.51
-0.57
-0.78
-1.00
-1.11
-1.08
-0.97
-0.82
-0.69
-0.54
-0.36
-0.19
-0.10
-0.22
-0.59
-1.14
-1.71
-2.13
-2.33
-2.36
-2.33
-2.36
-2.51
-2.78
-3.11
-3.47
-3.80
-4.06
-4.21
-4.23
-4.11
-3.91
-3.66
-3.40
-3.14
-2.87
-2.59
-2.31
-2.06
-1.88
-1.76
-1.72
-1.73
-1.77
-1.80
-1.83
-1.85
-1.87
-1.93
-2.02
-2.13
-2.20
-2.20
-2.09
-1.91
-1.75
-1.67
-1.72
-1.88
-2.09
-2.28
-2.43
-2.55
-2.67
-2.83
-3.01
-3.17
-3.27
-3.27
-3.15
-2.91
-2.57
-2.15
-1.66
-1.15
-0.66
-0.24
0.08
0.33
0.54
0.72
0.89
1.05
1.20
1.35
1.55
1.83
2.17
2.51
2.78
2.95
3.03
3.07
3.14
3.23
3.29
3.22
2.99
2.61
2.18
1.82
1.59
1.47
1.39
1.29
1.14
0.97
0.89
0.98
1.27
1.72
2.21
2.64
2.92
3.06
3.11
3.14
3.20
3.27
3.32
3.34
3.36
3.47
3.76
4.20
4.69
5.05
5.15
4.98
4.63
4.29
4.08
4.06
4.16
4.26
4.27
4.18
4.03
3.88
3.77
3.69
3.62
3.53
3.43
3.37
3.36
3.38
3.34
3.15
2.74
2.03
1.02
