1651152360.00
64.000000
-0.00
-0.00
-0.00
-0.00
-0.00
-0.00
-0.00
-0.00
-0.00
-0.00
0.00
0.01
0.01
-0.00
-0.03
-0.05
-0.05
0.00
0.13
0.36
0.66
1.01
1.37
1.72
2.06
2.40
2.79
3.24
3.80
4.42
5.06
5.66
6.20
6.68
7.15
7.68
8.31
9.14
10.09
11.04
11.88
12.56
13.14
13.76
14.65
15.96
17.91
20.32
22.90
25.38
27.58
29.57
31.68
34.32
37.81
42.54
48.15
54.10
59.83
64.97
69.58
74.14
79.34
85.71
93.76
103.00
112.62
121.73
129.77
136.75
143.30
150.75
157.77
166.64
177.95
191.79
206.97
220.57
228.25
225.36
208.53
176.87
132.76
80.05
23.07
-34.94
-92.44
-149.16
-205.23
-260.37
-313.74
-363.87
-409.83
-450.91
-486.50
-515.74
-537.23
-549.22
-549.96
-538.37
-514.21
-478.67
-433.88
-382.45
-327.02
-269.84
-212.63
-156.66
-102.95
-52.37
-5.90
35.58
71.43
101.35
125.50
144.38
158.70
169.15
176.37
180.75
182.57
182.06
179.50
175.24
169.68
163.21
156.18
148.80
141.23
133.53
125.76
118.00
110.31
102.77
95.43
88.32
81.45
74.81
68.42
62.33
56.56
51.14
46.09
41.38
36.95
32.76
28.76
24.99
21.49
18.34
15.58
13.20
11.11
9.18
7.28
5.35
3.44
1.68
0.26
-0.72
-1.27
-1.60
-1.98
-2.69
-3.83
-5.30
-6.81
-7.96
-8.53
-8.51
-8.21
-8.10
-8.62
-9.95
-11.91
-13.99
-15.64
-16.48
-16.49
-16.03
-15.61
-15.75
-16.83
-19.03
-22.32
-26.30
-29.94
-31.69
-29.84
-23.26
-12.10
1.95
16.19
27.90
35.42
38.63
38.62
36.94
34.69
32.28
29.54
26.31
22.78
19.50
17.06
15.72
15.25
15.09
14.57
13.28
11.17
8.61
6.24
4.73
4.57
5.82
8.13
10.81
13.11
14.54
15.03
14.91
14.72
14.86
15.43
16.22
16.83
16.98
16.65
16.03
15.50
15.35
15.57
15.85
15.70
14.62
12.34
9.06
5.07
0.91
-2.95
-6.21
-8.82
-10.89
-12.57
-13.98
-15.14
-16.12
-16.96
-17.68
-18.26
-18.57
-18.41
-17.60
-16.02
-13.76
-11.13
-8.46
-6.13
-4.30
-3.05
-2.30
-2.03
-2.27
-3.15
-4.74
-6.94
-9.39
-11.56
-12.92
-13.19
-12.43
-10.99
-9.36
-7.90
-6.75
-5.83
-5.03
-4.32
-3.81
-3.77
-4.42
-5.92
-8.25
-11.23
-14.59
-17.98
-21.03
-23.44
-25.04
-25.80
-25.90
-25.59
-25.12
-24.69
-24.39
-24.17
-23.90
-23.36
-22.24
-20.17
-16.84
-12.07
-5.83
1.72
10.24
19.33
28.54
37.42
45.60
52.78
58.82
63.79
67.96
71.69
75.22
78.52
81.23
82.77
82.46
79.84
74.77
67.49
58.52
48.56
38.36
28.59
19.74
11.98
5.08
-1.38
-7.90
-14.69
-21.66
-28.39
-34.48
-39.72
-44.19
-48.07
-51.53
-54.50
-56.74
-57.91
-57.76
-56.14
-53.02
-48.41
-42.47
-35.52
-28.14
-21.06
-15.04
-10.62
-8.05
-7.26
-7.94
-9.65
-11.94
-14.30
-16.31
-17.63
-18.17
-18.08
-17.72
-17.48
-17.59
-17.98
-18.31
-18.21
-17.50
-16.37
-15.39
-15.34
-16.91
-20.45
-25.75
-32.04
-38.13
-42.71
-44.76
-43.84
-40.20
-34.64
-28.18
-21.71
-15.73
-10.31
-5.23
-0.18
5.10
10.74
16.80
23.22
29.85
36.41
42.47
47.49
50.84
51.96
50.42
46.03
38.84
29.27
18.05
6.20
-5.11
-14.71
-21.68
-25.52
-26.22
-24.22
-20.29
-15.28
-9.96
-4.94
-0.67
2.57
4.54
5.09
4.22
2.19
-0.44
-2.87
-4.25
-3.96
-1.82
1.79
6.05
9.99
12.93
14.74
15.92
17.50
20.68
26.46
35.35
47.28
61.55
77.09
92.58
106.73
118.57
127.58
133.77
137.64
139.85
140.84
140.51
137.98
131.87
120.83
104.20
82.51
57.44
31.28
6.21
-16.22
-35.31
-50.83
-62.56
-70.07
-72.77
-70.47
-63.86
-54.61
-45.07
-37.48
-33.28
-32.75
-35.26
-39.71
-45.21
-51.35
-58.16
-65.72
-73.77
-81.52
-87.80
-91.58
-92.40
-90.61
-87.21
-83.47
-80.42
-78.57
-77.79
-77.41
-76.54
-74.19
-69.60
-62.36
-52.64
-41.25
-29.58
-19.18
-11.38
-6.74
-4.87
-4.58
-4.28
-2.55
1.43
7.76
15.88
24.87
33.70
41.56
47.83
52.16
54.32
54.08
51.23
45.57
37.09
26.11
13.39
0.02
-12.76
-23.80
-32.23
-37.51
-39.38
-37.85
-33.19
-25.88
-16.67
-6.56
3.39
12.14
18.88
23.12
24.77
24.15
22.07
19.65
18.13
18.48
21.04
25.47
30.92
36.51
41.74
46.70
51.89
57.91
65.17
73.60
82.64
91.07
97.04
98.34
93.03
80.23
60.86
37.56
13.99
-6.39
-21.42
-30.65
-34.90
-35.57
-33.91
-30.78
-26.85
-22.78
-19.35
-17.10
-16.09
-15.86
-15.61
-14.71
-13.08
-11.30
-10.41
-11.49
-15.22
-21.51
-29.59
-38.23
-46.22
-52.72
-57.44
-60.50
-62.17
-62.59
-61.66
-59.09
-54.59
-48.07
-39.78
-30.28
-20.50
-11.60
-4.90
-1.53
-2.06
-6.24
-12.90
-20.31
-26.75
-31.04
-32.78
-32.18
-29.61
-25.25
-18.96
-10.56
-0.23
11.22
22.47
32.02
38.65
41.69
41.06
37.01
29.93
20.27
8.55
-4.35
-17.26
-28.86
-37.96
-43.88
-46.64
-46.92
-45.61
-43.46
-40.56
-36.29
-29.51
-19.08
-4.52
13.39
32.44
49.33
60.59
63.91
59.19
48.83
37.04
28.32
25.98
31.27
43.29
59.58
76.79
91.25
99.69
99.96
91.68
76.57
57.90
39.25
23.16
10.47
0.60
-7.26
-13.12
-16.10
-15.14
-9.97
-1.61
8.11
17.43
25.37
31.84
37.04
40.91
42.83
41.96
37.65
29.93
19.54
7.77
-3.91
-14.31
-22.76
-29.34
-34.86
-40.45
-47.10
-55.11
-63.88
-72.12
-78.37
-81.48
-81.03
-77.44
-71.89
-65.98
-61.43
-59.48
-60.41
-63.18
-65.55
-64.81
-58.77
-46.71
-29.81
-10.79
7.12
21.26
30.33
34.58
35.42
34.67
33.93
34.19
35.69
38.11
40.82
43.10
44.27
43.73
40.97
35.65
27.73
17.57
6.00
-5.86
-16.81
-25.97
-32.96
-38.03
-41.82
-45.07
-48.29
-51.40
-53.74
-54.21
-51.70
-45.58
-36.13
-24.61
-12.95
-3.12
3.44
6.25
5.76
3.23
0.34
-1.10
0.45
5.95
15.52
28.32
42.77
57.00
69.58
79.91
88.35
95.74
102.51
107.99
110.26
106.79
95.71
76.92
52.51
26.17
1.90
-17.23
-29.88
-36.19
-37.20
-34.09
-27.91
-19.67
-10.54
-1.85
5.21
9.98
12.48
13.31
13.24
12.89
12.56
12.26
11.85
11.06
9.67
7.46
4.34
0.40
-4.09
-8.81
-13.37
-17.54
-21.25
-24.54
-27.56
-30.39
-33.07
-35.54
-37.64
-39.18
-40.04
-40.24
-39.98
-39.70
-39.92
-41.13
-43.66
-47.35
-51.51
-55.05
-56.86
-56.40
-54.04
-51.10
-49.52
-51.07
-56.49
-65.04
-74.61
-82.55
-86.46
-84.80
-76.97
-63.44
-45.58
-25.25
-4.60
14.38
30.08
41.84
50.21
56.87
63.56
71.15
79.37
87.03
92.83
96.01
96.91
96.99
98.35
102.13
108.00
114.19
118.43
118.86
114.42
105.09
90.82
74.02
58.65
48.24
43.74
43.88
47.11
52.38
59.36
68.06
78.35
88.62
96.71
100.80
99.44
94.04
87.04
81.07
77.98
78.45
80.63
81.79
79.28
71.70
59.40
43.58
25.39
4.51
-15.63
-35.54
-57.44
-84.44
-119.53
-164.35
-218.14
-276.55
-331.57
-372.82
-391.38
-382.24
-346.59
-291.86
-229.33
-170.53
-123.87
-92.88
-76.58
-71.97
-75.16
-82.59
-91.36
-99.03
-103.68
-104.10
-100.15
-92.71
-83.56
-74.32
-65.62
-57.04
-47.45
-35.69
-21.24
-4.38
13.94
32.25
49.20
63.71
74.92
82.29
85.69
85.57
82.96
79.21
75.48
72.30
69.37
65.75
60.53
53.45
45.33
37.85
32.86
31.58
33.99
38.77
43.79
46.83
46.17
41.03
31.65
19.14
5.24
-8.03
-18.78
-25.70
-28.40
-27.52
-24.34
-20.27
-16.14
-11.96
-7.04
-0.54
7.85
17.67
27.85
37.18
44.91
50.93
55.56
59.10
61.51
62.36
61.25
58.27
54.22
50.40
48.03
47.85
49.93
53.95
59.50
66.25
73.65
80.60
85.39
86.06
81.25
70.90
56.61
41.24
28.02
19.47
16.70
19.20
25.24
32.50
38.82
42.62
43.16
40.36
34.63
26.58
16.94
6.52
-3.77
-13.01
-20.46
-25.66
-28.55
-29.32
-28.15
-25.02
-19.70
-11.99
-2.07
9.22
20.54
30.29
37.25
40.97
41.85
40.97
39.58
38.60
38.43
38.91
39.59
40.03
40.06
39.73
39.17
38.34
36.94
34.53
30.88
26.18
21.21
17.12
14.98
15.42
18.42
23.38
29.33
35.17
39.73
41.86
40.67
35.78
27.69
17.69
7.51
-1.32
-8.03
-12.75
-16.25
-19.33
-22.48
-25.70
-28.71
-31.19
-33.03
-34.35
-35.37
-36.33
-37.42
-38.70
-40.12
-41.49
-42.59
-43.22
-43.34
-43.09
-42.77
-42.66
-42.89
-43.41
-43.99
-44.47
-44.75
-44.86
-44.82
-44.55
-43.92
-42.76
-41.10
-39.07
-36.99
-35.07
-33.33
-31.55
-29.46
-26.85
-23.76
-20.47
-17.31
-14.56
-12.30
-10.39
-8.67
-7.09
-5.96
-5.84
-7.37
-10.92
-16.23
-22.39
-28.05
-31.97
-33.55
-33.04
-31.39
-29.71
-28.70
-28.48
-28.76
-29.14
-29.26
-28.61
-26.43
-21.89
-14.67
-5.59
3.33
9.60
11.52
9.19
4.60
0.73
0.01
3.25
9.49
16.80
23.42
28.47
31.92
34.11
35.11
34.60
32.15
27.63
21.52
14.87
9.01
5.09
3.63
4.35
6.25
7.99
8.39
6.86
3.53
-0.83
-5.24
-8.93
-11.61
-13.47
-15.00
-16.69
-18.77
-21.14
-23.47
-25.31
-26.36
-26.53
-25.88
-24.57
-22.66
-20.08
-16.61
-12.08
-6.45
0.04
6.99
13.96
20.55
26.49
31.55
35.57
38.44
40.23
41.23
41.97
43.02
44.72
46.93
49.00
49.98
48.91
45.30
39.25
31.44
22.91
14.63
7.24
0.97
-4.30
-8.76
-12.44
-15.15
-16.56
-16.46
-15.01
-12.71
-10.27
-8.41
-7.51
-7.61
-8.51
-9.97
-11.78
-13.79
-15.80
-17.45
-18.26
-17.89
-16.29
-13.82
-11.09
-8.75
-7.19
-6.44
-6.23
-6.20
-6.07
-5.74
-5.29
-4.83
-4.42
-4.01
-3.50
-2.85
-2.16
-1.64
-1.55
-2.05
-3.10
-4.51
-6.04
-7.52
-8.97
-10.53
-12.31
-14.35
-16.49
-18.52
-20.28
-21.74
-23.02
-24.24
-25.38
-26.22
-26.35
-25.38
-23.13
-19.80
-15.93
-12.20
-9.19
-7.14
-5.85
-4.88
-3.79
-2.40
-0.90
0.31
0.86
0.69
0.08
-0.42
-0.26
0.91
3.18
6.39
10.21
14.29
18.14
21.28
23.24
23.77
22.97
21.28
19.29
17.52
16.18
15.11
13.94
12.29
9.84
6.50
2.24
-2.91
-9.00
-15.99
-23.59
-31.02
-36.94
-39.68
-37.90
-31.41
-21.69
-11.72
-5.06
-4.41
-10.49
-21.63
-34.53
-45.45
-51.52
-51.45
-45.61
-35.80
-24.69
-15.33
-10.38
-11.48
-18.58
-29.94
-42.60
-53.40
-59.87
-60.96
-57.15
-49.94
-41.24
-32.77
-25.64
-20.28
-16.47
-13.60
-10.88
-7.65
-3.43
2.01
8.77
16.83
25.92
35.42
44.38
51.80
57.08
60.43
62.96
66.34
72.17
81.39
93.84
108.32
123.06
136.21
146.37
152.72
155.05
153.57
148.79
141.38
132.05
121.55
110.53
99.56
89.07
79.33
70.35
61.87
53.43
44.69
35.75
27.37
20.80
17.31
17.50
20.82
25.60
29.63
31.01
28.86
23.53
16.30
8.64
1.68
-4.10
-8.72
-12.36
-15.03
-16.57
-16.85
-16.07
-14.84
-14.02
-14.29
-15.86
-18.26
-20.72
-22.54
-23.55
-24.10
-24.89
-26.48
-28.97
-31.94
-34.78
-36.99
-38.49
-39.58
-40.74
-42.25
-44.11
-45.98
-47.47
-48.25
-48.19
-47.41
-46.16
-44.81
-43.80
-43.54
-44.44
-46.71
-50.27
-54.75
-59.47
-63.76
-67.12
-69.47
-71.14
-72.75
-74.82
-77.51
-80.34
-82.25
-81.96
-78.32
-70.87
-59.98
-46.81
-32.89
-19.64
-7.99
1.73
9.61
15.82
20.52
23.82
25.97
27.43
28.78
30.45
32.44
34.36
35.59
35.69
34.68
33.00
31.22
29.72
28.45
27.09
25.30
22.92
20.05
16.80
13.17
9.00
4.13
-1.40
-7.17
-12.53
-16.75
-19.42
-20.49
-20.31
-19.37
-18.14
-16.93
-15.91
-15.08
-14.41
-13.83
-13.28
-12.75
-12.21
-11.62
-10.91
-10.00
-8.82
-7.38
-5.82
-4.38
-3.28
-2.56
-2.12
-1.74
-1.17
-0.33
0.71
1.78
2.68
3.25
3.45
3.29
2.81
2.05
1.00
-0.36
-2.05
-4.04
-6.29
-8.67
-11.03
-13.16
-14.86
-15.95
-16.35
-16.05
-15.13
-13.80
-12.23
-10.66
-9.29
-8.28
-7.72
-7.57
-7.65
-7.73
-7.59
-7.15
-6.51
-5.91
-5.56
-5.60
-5.94
-6.41
-6.76
-6.91
-6.85
-6.74
-6.70
-6.82
-7.10
-7.50
-7.99
-8.55
-9.15
-9.66
-9.93
-9.83
-9.42
-9.04
-9.16
-10.21
-12.30
-15.14
-18.08
-20.39
-21.51
-21.28
-19.88
-17.68
-15.06
-12.31
-9.60
-7.07
-4.85
-2.97
-1.42
-0.09
1.14
2.32
3.42
4.38
5.15
5.73
6.12
6.32
6.29
5.96
5.38
4.71
4.20
4.03
4.25
4.67
5.00
4.95
4.42
3.50
2.41
1.38
0.56
-0.06
-0.56
-1.09
-1.81
-2.93
-4.66
-7.14
-10.31
-13.88
-17.29
-19.91
-21.27
-21.16
-19.78
-17.56
-14.99
-12.47
-10.17
-8.09
-6.17
-4.34
-2.62
-1.04
0.36
1.58
2.63
3.49
4.17
4.61
4.80
4.75
4.49
4.08
3.63
3.30
3.23
3.47
3.99
4.64
5.16
5.34
5.06
4.36
3.46
2.63
2.06
1.75
1.54
1.17
0.37
-1.00
-2.97
-5.43
-8.21
-11.11
-13.87
-16.17
-17.71
-18.25
-17.75
-16.33
-14.31
-12.01
-9.63
-7.26
-4.89
-2.54
-0.30
1.64
3.12
4.10
4.69
5.18
5.84
6.84
8.14
9.57
10.86
11.79
12.29
12.40
12.25
12.02
11.83
11.77
11.85
11.99
12.08
11.97
11.52
10.64
9.36
7.80
6.13
4.49
2.95
1.47
-0.10
-1.95
-4.21
-6.89
-9.84
-12.77
-15.29
-17.01
-17.61
-16.96
-15.19
-12.63
-9.76
-7.00
-4.63
-2.68
-0.99
0.66
2.37
4.07
5.51
6.37
6.44
5.72
4.46
3.04
1.85
1.21
1.29
2.10
3.44
4.99
6.47
7.63
8.35
8.52
8.08
7.07
5.62
3.91
2.12
0.47
-0.94
-2.17
-3.69
-5.95
-9.22
-13.43
-18.29
-23.31
-27.93
-31.66
-34.17
-35.91
-37.18
-37.95
-38.08
-37.52
-36.54
-35.41
-34.28
-33.10
-32.92
-34.28
-36.97
-40.46
-44.33
-48.40
-52.47
-56.17
-59.19
-63.34
-69.75
-78.24
-87.67
-96.88
-105.11
-111.84
-116.65
-119.17
-121.53
-124.42
-126.53
-125.48
-119.78
-109.75
-97.25
-84.66
-59.11
-17.70
32.84
81.23
119.77
146.24
161.46
167.35
166.54
162.88
157.10
150.32
144.38
141.19
141.48
144.92
149.75
154.32
157.54
156.94
151.60
142.37
131.04
119.11
107.37
96.04
85.10
73.99
60.30
41.89
17.83
-11.14
-42.92
-74.51
-102.80
-125.33
-141.10
-151.27
-157.71
-162.18
-165.81
-169.15
-172.12
-174.11
-174.06
-170.90
-164.25
-154.43
-142.42
-129.53
-116.84
-104.69
-92.46
-78.73
-62.07
-41.72
-17.96
7.92
34.25
59.52
82.85
103.92
122.82
139.62
154.16
166.07
174.93
180.55
183.02
182.71
180.14
175.83
170.23
163.82
157.06
150.41
144.30
138.99
134.51
130.65
127.05
123.28
119.09
114.43
109.41
104.22
98.88
93.12
86.45
78.21
67.81
54.86
39.23
21.20
1.41
-18.95
-38.27
-54.59
-66.08
-71.44
-70.31
-63.38
-52.14
-38.50
-24.37
-11.45
-1.07
5.72
8.26
6.41
0.61
-8.08
-18.29
-28.60
-37.91
-45.59
-51.54
-55.99
-59.39
-62.17
-64.64
-66.97
-69.09
-70.81
-71.85
-72.05
-71.49
-70.51
-69.59
-69.16
-69.33
-69.86
-70.25
-69.96
-68.72
-66.55
-63.82
-60.95
-58.21
-55.41
-51.87
-46.54
-38.39
-26.89
-12.43
3.68
19.59
33.63
44.85
53.29
59.74
65.09
69.86
73.87
76.38
76.51
73.64
67.68
59.03
48.62
37.78
28.07
20.96
17.36
17.22
19.51
22.57
24.80
25.32
24.16
22.04
19.79
17.92
16.38
14.85
12.99
10.66
7.91
4.81
1.34
-2.50
-6.51
-10.13
-12.55
-12.97
-10.95
-6.61
-0.67
5.75
11.44
15.39
17.05
16.53
14.47
11.79
9.34
7.54
6.32
5.21
3.67
1.39
-1.52
-4.69
-7.61
-9.84
-11.20
-11.72
-11.63
-11.26
-11.01
-11.19
-11.94
-13.19
-14.66
-16.05
-17.18
-18.11
-19.08
-20.44
-22.44
-25.22
-28.71
-32.64
-36.49
-39.49
-40.72
-39.33
-34.79
-27.18
-17.25
-6.24
4.42
13.49
20.13
24.07
25.51
25.00
23.32
21.19
19.21
17.66
16.49
15.43
14.19
12.56
10.58
8.41
6.30
4.36
2.56
0.78
-1.07
-3.01
-4.92
-6.64
-8.07
-9.22
-10.19
-11.18
-12.41
-14.07
-16.27
-18.97
-21.86
-24.39
-25.84
-25.54
-23.14
-18.77
-12.96
-6.55
-0.27
5.34
10.02
13.67
16.25
17.73
18.15
17.72
16.77
15.73
14.91
14.42
14.14
13.89
13.54
13.12
12.79
12.68
12.83
13.10
13.25
13.00
12.23
10.97
9.33
7.50
5.61
3.72
1.78
-0.31
-2.65
-5.34
-8.43
-11.89
-15.53
-19.00
-21.75
-23.19
-22.81
-20.37
-16.00
-10.14
-3.49
3.26
9.47
14.75
18.93
22.00
24.08
25.31
25.84
25.79
25.34
24.59
23.64
22.53
21.21
19.60
17.66
15.46
13.22
11.20
9.57
8.28
7.05
5.50
3.34
0.52
-2.79
-6.26
-9.56
-12.51
-15.05
-17.24
-19.18
-21.02
-22.88
-24.81
-26.64
-27.97
-28.19
-26.65
-22.94
-17.09
-9.54
-0.96
7.84
16.20
23.64
29.90
34.99
39.15
42.78
46.28
49.80
53.00
55.12
55.25
52.86
48.21
42.47
37.31
34.30
34.28
37.00
41.40
46.01
49.60
51.52
51.69
50.41
48.01
44.74
40.78
36.35
31.86
27.72
24.23
21.44
19.15
17.03
14.95
13.09
12.07
12.80
16.16
22.79
32.74
45.37
59.38
72.88
83.53
88.86
86.62
75.39
55.02
26.97
-5.77
-39.25
-69.39
-92.90
-107.94
-114.43
-113.84
-108.69
-101.80
-95.53
-91.12
-88.21
-85.03
-78.90
-67.32
-48.97
-24.37
4.12
33.00
58.70
78.58
91.43
97.51
98.09
94.92
89.74
83.93
78.37
73.30
68.41
63.10
56.75
49.07
40.29
31.08
22.30
14.72
8.82
4.82
2.82
2.88
4.98
8.78
13.47
17.78
20.31
20.09
16.95
11.69
5.72
0.42
-3.45
-6.03
-8.16
-10.80
-14.53
-19.32
-24.60
-29.64
-33.91
-37.29
-39.89
-41.91
-43.40
-44.19
-44.10
-43.03
-41.19
-39.03
-37.12
-35.93
-35.64
-36.06
-36.72
-37.07
-36.71
-35.54
-33.83
-32.03
-30.55
-29.56
-28.95
-28.40
-27.64
-26.59
-25.39
-24.27
-23.35
-22.57
-21.72
-20.58
-19.09
-17.42
-15.89
-14.78
-14.17
-13.94
-13.85
-13.70
-13.46
-13.26
-13.27
-13.56
-14.00
-14.37
-14.47
-14.25
-13.88
-13.57
-13.52
-13.75
-14.10
-14.38
-14.43
-14.21
-13.78
-13.25
-12.68
-12.13
-11.66
-11.38
-11.38
-11.68
-12.14
-12.45
-12.16
-10.78
-7.99
-3.83
1.24
6.37
10.62
13.24
14.04
13.47
12.47
12.19
13.62
17.35
23.52
31.88
41.87
52.67
63.28
72.55
79.50
83.55
84.86
84.29
83.01
81.91
81.09
79.75
76.58
70.65
62.13
52.47
44.05
39.26
39.72
45.80
56.74
70.77
85.46
97.79
104.46
102.56
90.38
68.23
38.55
5.30
-27.29
-55.98
-79.22
-97.14
-110.86
-121.83
-131.10
-139.13
-145.77
-150.60
-153.21
-153.56
-152.07
-149.54
-146.89
-144.80
-143.58
-143.09
-142.91
-142.47
-141.14
-138.27
-133.39
-126.45
-118.07
-109.56
-102.46
-97.98
-96.38
-96.71
-97.05
-95.10
-88.93
-77.68
-61.91
-43.38
-24.47
-7.32
6.81
17.68
25.71
31.34
34.52
34.78
31.74
25.85
18.52
11.70
6.84
4.12
2.26
-0.78
-6.86
-16.76
-30.07
-45.52
-61.64
-77.13
-91.17
-103.33
-113.61
-122.52
-131.09
-140.62
-152.16
-165.94
-181.14
-196.06
-208.75
-217.64
-222.05
-222.17
-218.76
-212.74
-204.78
-195.12
-183.48
-169.16
-151.20
-128.70
-101.12
-68.75
-32.91
4.07
39.28
69.81
93.62
110.07
119.83
124.13
123.73
118.30
106.79
88.62
65.08
39.81
17.92
4.16
0.91
7.35
19.90
33.87
45.25
51.85
53.31
50.39
44.18
35.76
26.48
18.42
14.36
17.02
27.87
46.03
68.12
89.25
105.10
113.80
116.61
117.08
118.96
124.26
132.41
141.11
147.94
151.82
153.35
154.08
155.41
157.77
160.67
163.12
164.31
163.88
161.79
158.18
153.09
146.62
138.96
130.56
122.06
114.17
107.48
102.40
98.98
96.90
95.44
93.59
90.30
84.80
76.82
66.64
54.99
42.78
30.83
19.80
10.06
1.87
-4.63
-9.32
-12.12
-13.14
-12.72
-11.43
-9.99
-9.02
-8.89
-9.65
-11.01
-12.54
-13.91
-14.89
-15.40
-15.45
-15.00
-14.01
-12.53
-10.75
-9.03
-7.69
-6.96
-6.78
-6.92
-7.04
-6.92
-6.51
-5.93
-5.34
-4.87
-4.50
-4.04
-3.20
-1.73
0.42
2.97
5.30
6.67
6.52
4.77
1.91
-1.20
-3.71
-5.08
-5.26
-4.48
-3.00
-0.82
2.22
6.26
11.23
16.68
21.94
26.39
29.64
31.69
32.73
33.01
32.67
31.78
30.46
29.02
28.06
28.22
29.91
33.04
36.92
40.54
42.93
43.44
41.95
38.64
33.85
27.82
20.71
12.65
3.93
-5.09
-14.01
-22.53
-30.51
-37.80
-44.12
-49.05
-52.08
-52.85
-51.25
-47.54
-42.22
-35.95
-29.39
-23.15
-17.75
-13.57
-10.71
-9.03
-8.10
-7.37
-6.29
-4.59
-2.21
0.63
3.58
6.30
8.57
10.35
11.81
13.17
14.53
15.66
15.97
14.70
11.24
5.50
-1.96
-10.13
-17.91
-24.55
-29.92
-34.40
-38.60
-43.01
-47.78
-52.59
-56.82
-59.56
-59.89
-57.05
-50.70
-41.03
-28.81
-15.17
-1.27
11.98
24.09
35.01
44.83
53.56
60.98
66.67
70.18
71.29
70.10
67.00
62.50
57.02
50.79
43.86
36.32
28.46
20.84
14.13
8.84
5.02
2.29
0.00
-2.49
-5.49
-8.95
-12.59
-16.15
-19.58
-23.02
-26.78
-31.02
-35.81
-40.90
-45.86
-50.06
-52.79
-53.48
-51.77
-47.69
-41.69
-34.48
-26.87
-19.60
-13.14
-7.73
-3.42
-0.12
2.31
4.00
5.01
5.36
4.98
3.83
1.97
-0.39
-2.89
-5.13
-6.76
-7.63
-7.79
-7.46
-6.90
-6.34
-5.94
-5.76
-5.88
-6.33
-7.16
-8.35
-9.80
-11.34
-12.82
-14.20
-15.58
-17.19
-19.26
-21.85
-24.69
-27.23
-28.76
-28.65
-26.60
-22.77
-17.70
-12.14
-6.77
-2.05
1.90
5.09
7.63
9.58
10.95
11.72
11.95
11.80
11.46
11.14
10.93
10.80
10.61
10.19
9.41
8.27
6.90
5.53
4.37
3.54
2.99
2.58
2.13
1.50
0.62
-0.49
-1.78
-3.20
-4.71
-6.28
-7.89
-9.54
-11.28
-13.20
-15.39
-17.89
-20.55
-23.00
-24.76
-25.28
-24.23
-21.52
-17.39
-12.31
-6.88
-1.67
2.85
6.42
8.93
10.49
11.31
11.63
11.65
11.47
11.08
10.45
9.64
8.76
7.95
7.33
6.90
6.65
6.52
6.54
6.73
7.05
7.37
7.51
7.28
6.60
5.52
4.15
2.63
1.01
-0.73
-2.61
-4.59
-6.64
-8.67
-10.60
-12.39
-14.05
-15.60
-17.09
-18.60
-20.18
-21.77
-23.21
-24.18
-24.27
-23.14
-20.60
-16.77
-12.01
-6.90
-2.02
2.19
5.49
7.87
9.50
10.57
11.22
11.49
11.39
10.94
10.24
9.43
8.68
8.09
7.74
7.61
7.65
7.79
7.91
7.91
7.73
7.34
6.77
6.09
5.31
4.41
3.33
2.03
0.55
-1.01
-2.54
-3.92
-5.12
-6.13
-7.00
-7.77
-8.55
-9.50
-10.85
-12.75
-15.19
-17.94
-20.56
-22.49
-23.20
-22.36
-19.89
-16.03
-11.23
-6.08
-1.15
3.14
6.59
9.18
10.99
12.12
12.62
12.51
11.88
10.95
9.99
9.29
8.98
9.00
9.16
9.27
9.20
9.01
8.79
8.66
8.64
8.65
8.56
8.22
7.53
6.47
5.08
3.46
1.73
-0.01
-1.72
-3.38
-5.03
-6.74
-8.58
-10.59
-12.82
-15.27
-17.87
-20.39
-22.47
-23.62
-23.38
-21.49
-17.97
-13.17
-7.65
-2.06
2.99
7.10
10.11
12.08
13.19
13.74
13.91
13.85
13.58
13.10
12.42
11.60
10.72
9.88
9.13
8.48
7.93
7.43
6.99
6.55
6.08
5.53
4.83
3.98
2.96
1.75
0.35
-1.28
-3.15
-5.19
-7.28
-9.22
-10.80
-11.94
-12.70
-13.29
-14.01
-15.14
-16.84
-19.04
-21.49
-23.73
-25.25
-25.55
-24.33
-21.49
-17.25
-12.07
-6.56
-1.32
3.18
6.71
9.29
11.09
12.32
13.13
13.56
13.61
13.30
12.72
12.05
11.47
11.14
11.06
11.10
11.13
11.05
10.83
10.48
10.08
9.63
9.12
8.53
7.82
6.96
5.87
4.46
2.70
0.64
-1.58
-3.72
-5.58
-7.10
-8.41
-9.75
-11.42
-13.58
-16.21
-19.08
-21.77
-23.72
-24.40
-23.41
-20.63
-16.30
-10.92
-5.18
0.26
4.92
8.55
11.11
12.72
13.55
13.84
13.79
13.55
13.24
12.91
12.59
12.29
12.05
11.89
11.79
11.69
11.47
11.11
10.62
10.10
9.63
9.21
8.70
7.94
6.75
5.11
3.10
0.86
-1.45
-3.74
-5.97
-8.09
-10.06
-11.87
-13.57
-15.30
-17.18
-19.16
-20.97
-22.09
-21.96
-20.22
-16.80
-12.09
-6.71
-1.36
3.46
7.48
10.67
13.08
14.74
15.64
15.77
15.22
14.20
12.96
11.76
10.72
9.86
9.15
8.55
8.09
7.81
7.74
7.84
7.99
8.05
7.90
7.47
6.71
5.63
4.25
2.64
0.85
-1.03
-2.97
-4.94
-6.93
-8.89
-10.79
-12.63
-14.52
-16.60
-19.03
-21.82
-24.68
-27.04
-28.19
-27.58
-24.99
-20.61
-15.03
-8.97
-3.06
2.25
6.73
10.28
12.91
14.65
15.62
16.04
16.12
16.11
16.14
16.25
16.32
16.24
15.87
15.20
14.30
13.33
12.47
11.83
11.46
11.24
11.03
10.65
9.98
8.95
7.58
5.92
4.07
2.11
0.17
-1.68
-3.34
-4.78
-5.99
-7.08
-8.21
-9.63
-11.54
-14.06
-17.14
-20.46
-23.52
-25.64
-26.22
-24.87
-21.55
-16.64
-10.78
-4.70
0.99
5.88
9.80
12.67
14.50
15.40
15.53
15.12
14.42
13.63
12.82
11.97
11.04
10.04
9.12
8.44
8.19
8.42
9.00
9.66
10.11
10.12
9.62
8.71
7.61
6.52
5.52
4.56
3.48
2.14
0.51
-1.36
-3.28
-5.11
-6.72
-8.12
-9.38
-10.65
-12.06
-13.72
-15.63
-17.70
-19.70
-21.32
-22.22
-22.05
-20.54
-17.61
-13.42
-8.33
-2.90
2.28
6.76
10.29
12.83
14.50
15.42
15.70
15.38
14.58
13.45
12.26
11.25
10.58
10.26
10.22
10.30
10.40
10.44
10.43
10.38
10.27
10.09
9.77
9.25
8.51
7.50
6.24
4.78
3.17
1.50
-0.18
-1.86
-3.60
-5.41
-7.36
-9.42
-11.59
-13.84
-16.16
-18.52
-20.81
-22.79
-24.10
-24.33
-23.12
-20.39
-16.32
-11.36
-6.09
-1.03
3.43
7.08
9.90
11.92
13.21
13.85
13.95
13.63
13.08
12.46
11.91
11.51
11.29
11.28
11.48
11.86
12.34
12.78
13.02
12.92
12.42
11.58
10.50
9.33
8.18
7.07
5.98
4.89
3.74
2.51
1.20
-0.24
-1.82
-3.49
-5.18
-6.80
-8.30
-9.68
-11.00
-12.36
-13.85
-15.52
-17.37
-19.33
-21.20
-22.67
-23.36
-22.90
-21.04
-17.76
-13.28
-8.02
-2.46
2.90
7.66
11.55
14.42
16.29
17.27
17.61
17.61
17.53
17.54
17.70
17.94
18.09
18.01
17.61
16.89
16.01
15.16
14.52
14.15
14.00
13.94
13.75
13.28
12.40
11.10
9.42
7.51
5.53
3.64
1.91
0.35
-1.09
-2.51
-3.96
-5.48
-7.08
-8.77
-10.54
-12.33
-14.06
-15.65
-17.06
-18.39
-19.86
-21.71
-24.08
-26.84
-29.54
-31.53
-32.18
-31.06
-28.13
-23.73
-18.42
-12.82
-7.52
-2.98
0.53
2.91
4.29
4.93
5.18
5.33
5.50
5.65
5.65
5.43
5.05
4.69
4.55
4.70
5.08
5.51
5.83
5.94
5.88
5.70
5.50
5.32
5.14
4.95
4.68
4.27
3.62
2.71
1.55
0.27
-1.01
-2.20
-3.27
-4.29
-5.34
-6.51
-7.83
-9.35
-11.14
-13.16
-15.25
-17.06
-18.07
-17.80
-15.99
-12.71
-8.36
-3.51
1.25
5.47
8.89
11.44
13.12
14.05
14.37
14.23
13.79
13.16
12.45
11.72
11.03
10.43
9.90
9.43
8.97
8.52
8.13
7.82
7.59
7.39
7.05
6.44
5.46
4.14
2.58
0.88
-0.89
-2.73
-4.66
-6.65
-8.62
-10.41
-11.96
-13.26
-14.42
-15.58
-16.90
-18.45
-20.21
-22.05
-23.73
-24.86
-25.06
-23.95
-21.35
-17.39
-12.46
-7.15
-2.08
2.31
5.80
8.43
10.35
11.73
12.71
13.37
13.74
13.89
13.85
13.64
13.29
12.79
12.14
11.42
10.76
10.27
10.01
9.96
10.01
10.00
9.81
9.36
8.61
7.58
6.30
4.77
3.04
1.13
-0.87
-2.88
-4.77
-6.45
-7.87
-9.12
-10.37
-11.82
-13.63
-15.78
-18.05
-20.12
-21.61
-22.22
-21.79
-20.27
-17.70
-14.24
-10.13
-5.77
-1.55
2.12
5.02
7.12
8.55
9.54
10.21
10.65
10.86
10.83
10.62
10.34
10.08
9.90
9.79
9.69
9.62
9.58
9.58
9.55
9.40
9.00
8.36
7.55
6.72
5.91
5.06
3.98
2.53
0.71
-1.34
-3.36
-5.12
-6.57
-7.78
-8.95
-10.25
-11.81
-13.68
-15.77
-17.85
-19.52
-20.32
-19.81
-17.79
-14.37
-9.98
-5.20
-0.61
3.45
6.82
9.50
11.51
12.82
13.39
13.22
12.54
11.73
11.27
11.54
12.63
14.36
16.31
17.98
18.99
19.15
18.45
17.05
15.15
13.03
10.86
8.77
6.74
4.64
2.34
-0.22
-2.99
-5.82
-8.53
-10.97
-13.10
-14.97
-16.73
-18.57
-20.64
-23.05
-25.69
-28.27
-30.35
-31.44
-31.16
-29.35
-26.08
-21.62
-16.34
-10.67
-5.09
-0.01
4.23
7.44
9.62
10.92
11.55
11.68
11.45
10.95
10.23
9.39
8.47
7.53
6.60
5.72
4.95
4.39
4.07
3.99
3.99
3.84
3.30
2.20
0.50
-1.66
-4.05
-6.40
-8.44
-9.98
-10.92
-11.30
-11.25
-11.01
-10.85
-11.05
-11.83
-13.27
-15.34
-17.85
-20.46
-22.70
-24.01
-23.88
-22.03
-18.49
-13.67
-8.24
-2.89
1.84
5.73
8.88
11.47
13.66
15.50
16.89
17.72
17.97
17.74
17.23
16.62
16.11
15.76
15.61
15.62
15.69
15.71
15.59
15.28
14.75
14.01
13.07
11.96
10.68
9.29
7.85
6.41
5.02
3.61
2.11
0.42
-1.53
-3.71
-6.05
-8.47
-10.86
-13.13
-15.11
-16.57
-17.21
-16.75
-15.03
-12.12
-8.30
-4.00
0.34
4.35
7.79
10.50
12.40
13.48
13.81
13.56
12.98
12.30
11.72
11.33
11.12
11.01
10.89
10.67
10.32
9.85
9.32
8.83
8.49
8.37
8.38
8.29
7.82
6.72
4.96
2.75
0.45
-1.58
-3.15
-4.33
-5.36
-6.53
-8.05
-9.98
-12.21
-14.52
-16.59
-18.03
-18.47
-17.65
-15.49
-12.22
-8.23
-4.03
-0.04
3.47
6.41
8.81
10.70
12.08
12.92
13.23
13.06
12.54
11.82
11.06
10.33
9.69
9.10
8.54
7.99
7.46
6.99
6.60
6.27
5.90
5.37
4.55
3.42
2.02
0.42
-1.31
-3.10
-4.93
-6.71
-8.35
-9.73
-10.85
-11.81
-12.85
-14.24
-16.12
-18.44
-20.85
-22.87
-23.92
-23.58
-21.65
-18.25
-13.76
-8.75
-3.81
0.58
4.13
6.77
8.60
9.78
10.47
10.80
10.87
10.80
10.70
10.67
10.73
10.83
10.87
10.73
10.40
9.94
9.47
9.12
8.94
8.88
8.84
8.70
8.40
7.90
7.18
6.22
5.02
3.57
1.91
0.11
-1.72
-3.49
-5.14
-6.64
-8.03
-9.35
-10.70
-12.21
-14.00
-16.10
-18.39
-20.50
-21.92
-22.12
-20.72
-17.69
-13.38
-8.36
-3.28
1.36
5.32
8.53
11.12
13.18
14.80
15.98
16.72
17.07
17.12
16.99
16.83
16.67
16.51
16.33
16.16
16.09
16.30
16.87
17.78
18.81
19.66
20.10
20.11
19.87
19.61
19.49
19.43
19.14
18.30
16.69
14.34
11.40
8.07
4.49
0.70
-3.29
-7.49
-11.92
-16.70
-22.02
-28.07
-34.87
-42.03
-48.83
-54.36
-57.81
-58.81
-57.44
-54.14
-49.40
-43.65
-37.13
-30.17
-23.29
-17.44
-13.69
-12.97
-15.59
-20.97
-27.77
-34.24
-38.80
-40.46
-38.95
-34.66
-28.35
-20.93
-13.34
-6.48
-1.11
2.33
3.84
3.92
3.35
2.93
3.13
4.04
5.43
6.95
8.43
9.98
11.92
14.63
18.30
22.79
27.59
31.95
35.07
36.40
35.78
33.51
30.28
26.91
24.19
22.64
22.48
23.63
25.81
28.61
31.60
34.34
36.47
37.70
37.89
37.05
35.29
32.87
30.02
26.96
23.81
20.69
17.67
14.87
12.42
10.44
8.95
7.88
7.01
6.10
4.87
3.11
0.77
-2.09
-5.26
-8.50
-11.59
-14.39
-16.87
-19.04
-20.96
-22.58
-23.87
-24.83
-25.54
-26.21
-27.18
-28.76
-31.11
-34.17
-37.60
-40.87
-43.37
-44.50
-43.82
-41.16
-36.60
-30.59
-23.79
-17.04
-11.13
-6.60
-3.61
-1.86
-0.78
0.29
1.75
3.64
5.71
7.60
9.10
10.28
11.40
12.71
14.25
15.83
17.18
18.15
18.80
19.33
19.91
20.50
20.89
20.86
20.37
19.60
18.85
18.30
17.86
17.18
15.77
13.32
9.75
5.28
0.26
-5.00
-10.31
-15.56
-20.66
-25.36
-29.17
-31.56
-32.05
-30.41
-26.86
-21.87
-16.10
-10.16
-4.49
0.60
4.89
8.22
10.47
11.64
11.94
11.73
11.42
11.30
11.53
12.08
12.87
13.81
14.82
15.85
16.85
17.73
18.46
19.03
19.48
19.83
20.06
20.13
20.04
19.89
19.84
20.06
20.57
21.23
21.69
21.59
20.66
18.83
16.16
12.83
9.03
5.03
1.16
-2.10
-4.24
-4.86
-3.87
-1.55
1.52
4.68
7.38
9.41
10.82
11.82
12.63
13.32
13.86
14.18
14.26
14.19
14.10
14.10
14.21
14.36
14.41
14.24
13.78
13.00
11.90
10.49
8.74
6.55
3.76
0.16
-4.51
-10.45
-17.71
-26.09
-35.12
-44.11
-52.35
-59.26
-64.56
-68.29
-70.73
-72.21
-72.91
-72.66
-71.03
-67.49
-61.68
-53.70
-44.15
-34.00
-24.33
-15.99
-9.30
-4.10
0.13
4.01
7.97
12.14
16.41
20.58
24.44
27.91
30.92
33.46
35.49
37.01
38.10
38.96
39.82
40.88
42.19
43.62
44.89
45.59
45.27
43.54
40.19
35.24
29.04
22.15
15.26
8.93
3.50
-1.06
-5.08
-9.03
-13.37
-18.28
-23.66
-29.00
-33.63
-36.83
-38.10
-37.17
-34.03
-28.78
-21.60
-12.72
-2.57
8.17
18.59
27.77
34.93
39.71
42.13
42.61
41.70
40.03
38.20
36.68
35.79
35.55
35.72
35.79
35.25
33.76
31.30
28.17
24.86
21.78
19.14
16.85
14.61
12.08
9.02
5.45
1.69
-1.80
-4.47
-5.92
-6.03
-4.94
-3.07
-0.93
1.04
2.61
3.82
4.91
6.23
8.09
10.72
14.13
18.13
22.26
25.80
27.92
27.83
25.11
19.90
12.95
5.46
-1.40
-6.83
-10.63
-13.03
-14.44
-15.14
-15.20
-14.62
-13.62
-12.66
-12.35
-13.15
-15.19
-18.25
-21.95
-26.02
-30.45
-35.42
-41.09
-47.41
-54.02
-60.33
-65.64
-69.43
-71.42
-71.67
-70.57
-68.70
-66.55
-64.40
-62.17
-59.43
-55.71
-50.66
-44.27
-36.89
-29.14
-21.66
-14.94
-9.22
-4.47
-0.41
3.26
6.78
10.22
13.48
16.40
18.90
21.02
22.91
24.68
26.36
27.81
28.88
29.52
29.84
30.03
30.27
30.59
30.90
31.11
31.20
31.25
31.36
31.55
31.77
31.92
31.95
31.83
31.57
31.14
30.46
29.56
28.59
27.88
27.78
28.48
30.02
32.22
34.91
38.02
41.57
45.58
49.93
54.30
58.20
61.10
62.55
62.29
60.22
56.38
50.93
44.09
36.16
27.46
18.34
9.09
-0.04
-8.96
-17.72
-26.40
-35.14
-43.90
-52.52
-60.65
-67.91
-73.93
-78.47
-81.50
-83.23
-84.07
-84.61
-85.44
-86.84
-88.64
-90.03
-89.84
-86.86
-80.48
-70.98
-59.68
-48.43
-39.07
-32.85
-30.16
-30.73
-33.96
-39.24
-46.15
-54.30
-63.11
-71.69
-78.92
-83.69
-85.14
-82.81
-76.67
-67.04
-54.44
-39.58
-23.24
-6.30
10.26
25.40
38.04
47.22
52.29
53.20
50.58
45.55
39.39
33.16
27.48
22.61
18.72
16.07
15.03
15.88
18.57
22.67
27.44
32.03
35.74
38.01
38.44
36.75
32.87
26.89
19.11
9.88
-0.46
-11.60
-23.15
-34.53
-44.99
-53.73
-60.17
-64.12
-65.86
-65.96
-65.07
-63.67
-61.99
-59.98
-57.39
-53.89
-49.08
-42.60
-34.18
-23.80
-11.84
0.95
13.56
25.07
34.90
42.93
49.31
54.25
57.76
59.65
59.75
58.22
55.66
52.94
50.82
49.45
48.31
46.33
42.42
35.94
26.94
16.16
4.69
-6.51
-16.91
-26.49
-35.57
-44.36
-52.73
-60.06
-65.48
-68.24
-68.09
-65.44
-61.19
-56.45
-52.10
-48.59
-45.98
-44.18
-43.13
-42.89
-43.56
-45.00
-46.78
-48.19
-48.48
-47.17
-44.20
-39.92
-34.91
-29.68
-24.54
-19.51
-14.47
-9.26
-3.85
1.66
7.06
12.15
16.78
20.89
24.51
27.70
30.44
32.66
34.20
34.91
34.69
33.50
31.39
28.42
24.72
20.58
16.43
12.87
10.54
9.91
11.17
14.15
18.42
23.47
28.90
34.46
40.13
46.10
52.53
59.41
66.58
73.78
80.73
87.24
93.04
97.83
101.45
103.77
104.71
104.24
102.40
99.41
95.64
91.53
87.47
83.92
80.93
77.93
74.01
68.38
60.79
51.47
40.64
28.19
14.45
-0.46
-16.64
-34.24
-53.07
-72.50
-91.83
-110.68
-128.92
-144.57
-155.72
-161.67
-163.44
-162.95
-161.70
-160.10
-157.45
-152.30
-140.07
-117.17
-83.29
-42.07
0.85
40.63
74.64
102.63
126.26
152.01
185.79
229.73
281.15
334.90
386.48
433.39
474.81
486.61
452.68
373.93
270.22
165.97
76.71
7.12
-44.57
-82.64
-111.55
-131.02
-140.08
-139.30
-131.93
-122.26
-113.72
-108.05
-106.12
-108.14
-111.00
-111.68
-108.93
-103.91
-98.70
-94.94
-93.07
-92.89
-93.87
-93.66
-90.17
-82.87
-73.25
-62.56
-52.85
-45.61
-41.63
-41.07
-42.67
-45.08
-47.46
-49.72
-51.95
-54.23
-55.87
-55.78
-52.91
-46.61
-37.34
-26.42
-15.55
-6.06
1.10
5.83
8.56
9.82
10.02
9.33
8.09
7.01
8.79
15.02
25.29
37.29
48.46
57.18
62.62
64.52
63.18
58.99
52.59
45.27
38.68
33.57
30.84
30.53
31.85
33.45
33.24
29.12
19.74
5.02
-13.78
-34.37
-54.50
-72.95
-86.18
-93.62
-96.83
-98.44
-100.94
-105.40
-111.01
-115.73
-117.20
-113.87
-106.17
-95.75
-84.58
-74.09
-64.76
-56.31
-48.48
-41.33
-35.23
-30.98
-28.83
-28.28
-28.28
-27.71
-25.89
-22.84
-19.15
-15.56
-12.89
-11.42
-10.91
-10.71
-10.00
-8.06
-4.48
0.76
7.27
14.24
20.86
26.45
30.71
33.70
35.65
36.75
36.97
36.11
33.92
30.41
26.00
21.36
17.16
13.81
11.28
9.31
7.54
5.72
3.82
1.89
-0.00
-1.79
-3.48
-5.08
-6.56
-7.81
-8.65
-8.84
-8.15
-6.39
-3.48
0.50
5.37
10.91
16.85
22.84
28.45
33.14
36.36
37.70
36.94
34.06
29.25
22.74
14.95
6.37
-2.39
-10.79
-18.46
-25.28
-31.41
-37.04
-42.33
-47.19
-51.40
-54.63
-56.73
-57.80
-58.17
-58.27
-58.38
-58.49
-58.21
-56.99
-54.34
-50.16
-44.78
-38.88
-33.15
-28.09
-23.88
-20.49
-17.87
-16.05
-15.26
-15.78
-17.89
-21.72
-27.04
-33.24
-39.29
-44.00
-46.30
-45.65
-42.24
-36.87
-30.59
-24.22
-18.09
-12.06
-5.81
0.80
7.57
14.02
19.74
24.65
29.19
34.17
40.47
48.59
58.38
68.90
78.66
86.11
90.08
90.34
87.68
83.65
79.98
77.91
77.74
78.87
80.24
80.87
80.31
78.65
76.31
73.73
71.20
69.00
67.48
67.20
68.74
72.55
78.72
86.98
96.86
107.84
119.42
131.00
141.73
150.58
156.54
159.05
158.28
155.10
150.67
145.92
141.17
136.06
129.93
122.35
113.38
103.70
94.22
85.75
78.63
72.70
67.46
62.32
56.85
50.86
44.48
38.07
32.14
27.04
22.80
19.04
15.14
10.49
4.73
-2.09
-9.66
-17.47
-25.00
-31.71
-37.09
-40.67
-42.19
-41.78
-40.02
-37.86
-36.26
-35.81
-36.54
-38.02
-39.68
-41.29
-43.09
-45.69
-49.63
-55.06
-61.57
-68.39
-74.66
-79.64
-82.92
-84.30
-83.71
-81.10
-76.64
-70.89
-64.94
-60.03
-57.08
-56.41
-57.62
-59.81
-61.86
-63.01
-62.94
-62.05
-60.91
-60.02
-59.82
-60.68
-62.83
-66.12
-70.23
-74.50
-78.35
-81.08
-82.02
-80.97
-78.20
-74.44
-70.48
-67.36
-63.74
-59.30
-54.69
-50.96
-48.94
-48.57
-50.57
-53.91
-57.71
-61.24
-64.37
-67.03
-67.64
-65.39
-59.94
-51.53
-40.61
-28.14
-15.10
-2.69
8.22
17.03
23.16
26.31
26.49
24.43
21.26
18.47
17.29
18.41
21.72
26.08
30.10
32.68
33.69
33.73
33.75
34.42
35.81
37.52
38.96
39.81
40.21
40.57
41.11
41.73
41.89
40.97
38.57
34.66
29.73
24.57
19.97
16.47
14.25
13.14
12.77
12.79
12.96
13.16
13.29
13.21
12.69
11.49
9.54
7.01
4.29
1.91
0.33
-0.14
0.56
2.27
4.66
7.32
9.93
12.23
14.11
15.50
16.39
16.88
17.21
17.87
19.41
22.21
26.26
30.92
35.17
37.93
38.55
37.04
33.98
30.15
26.20
22.35
18.57
14.71
10.78
6.99
3.70
1.29
0.05
0.19
1.80
4.88
9.25
14.52
20.01
24.80
27.82
28.08
24.92
18.17
8.38
-3.32
-15.40
-26.29
-34.80
-40.42
-43.38
-44.53
-44.97
-45.71
-47.35
-50.08
-53.72
-58.02
-62.76
-67.76
-72.70
-77.01
-79.82
-80.24
-77.72
-72.31
-64.74
-56.15
-47.67
-40.13
-33.86
-28.84
-24.91
-21.94
-19.88
-18.71
-18.27
-18.24
-18.28
-18.08
-17.55
-16.78
-15.96
-15.21
-14.56
-13.95
-13.34
-12.75
-12.31
-12.15
-12.30
-12.74
-13.32
-13.93
-14.50
-14.95
-15.19
-15.05
-14.37
-13.12
-11.43
-9.65
-8.19
-7.45
-7.69
-9.05
-11.53
-15.08
-19.49
-24.37
-29.12
-32.99
-35.33
-35.79
-34.41
-31.62
-28.03
-24.19
-20.41
-16.74
-12.95
-8.67
-3.57
2.52
9.50
16.97
24.30
30.85
36.20
40.21
43.08
45.21
47.02
48.87
51.01
53.65
56.87
60.67
64.90
69.19
73.06
76.06
77.90
78.57
78.31
77.54
76.65
75.87
75.19
74.36
73.05
70.93
67.83
63.79
59.07
54.02
49.05
44.52
40.67
37.60
35.20
33.18
31.13
28.67
25.60
21.98
18.08
14.13
10.20
5.96
0.94
-5.27
-12.74
-21.02
-29.29
-36.62
-42.24
-45.68
-46.75
-45.52
-42.18
-37.14
-31.00
-24.53
-18.54
-13.67
-10.26
-8.33
-7.65
-7.90
-8.73
-9.83
-10.94
-11.78
-12.05
-11.46
-9.86
-7.30
-4.19
-1.28
0.55
0.49
-1.76
-5.89
-10.97
-15.83
-19.44
-21.33
-21.67
-21.08
-20.29
-19.83
-19.89
-20.41
-21.20
-22.10
-23.05
-24.04
-25.08
-26.12
-27.11
-28.00
-28.80
-29.55
-30.30
-31.21
-32.42
-34.05
-36.04
-38.12
-39.91
-41.07
-41.49
-41.36
-41.16
-41.34
-42.15
-43.55
-45.24
-46.87
-48.20
-49.13
-49.60
-49.53
-48.78
-47.19
-44.69
-41.29
-36.93
-31.53
-24.85
-16.90
-8.21
0.17
7.05
11.68
14.01
14.73
14.80
15.19
16.27
17.63
18.42
17.84
15.60
11.93
7.30
2.14
-3.00
-7.95
-13.01
-18.66
-25.10
-32.01
-38.71
-44.55
-49.24
-51.50
-50.58
-46.62
-40.58
-33.40
-25.47
-16.76
-7.27
2.62
14.94
30.84
49.38
67.48
81.66
89.78
91.54
88.05
81.23
77.57
82.25
96.47
117.22
140.20
162.89
185.24
208.71
234.96
270.46
319.18
379.78
445.62
508.70
563.32
607.05
639.83
627.61
551.72
419.14
260.89
109.87
-16.23
-114.37
-188.07
-241.68
-278.73
-296.55
-294.05
-274.86
-247.14
-219.39
-196.83
-180.83
-170.46
-164.47
-157.46
-145.46
-128.14
-109.14
-92.23
-79.39
-70.45
-64.00
-59.08
-52.27
-41.25
-26.02
-8.89
7.42
21.32
32.68
42.22
50.16
58.02
66.78
76.23
84.93
91.10
93.07
89.14
82.13
72.93
62.69
52.35
42.60
33.73
25.83
18.92
12.95
7.86
2.84
-2.64
-8.83
-15.64
-22.72
-29.58
-35.70
-40.65
-44.08
-46.30
-47.60
-48.31
-48.74
-49.19
-50.02
-51.63
-54.40
-58.49
-63.88
-69.94
-75.56
-79.64
-81.57
-81.48
-80.28
-79.14
-79.02
-80.31
-82.64
-85.10
-86.82
-87.20
-86.11
-83.63
-79.91
-74.97
-68.90
-61.91
-54.49
-47.37
-41.40
-37.24
-35.18
-35.09
-36.47
-38.62
-40.76
-42.16
-42.15
-40.20
-35.95
-29.28
-20.43
-10.03
0.85
10.91
18.85
23.70
25.12
23.46
19.58
14.55
9.33
4.61
0.88
-1.52
-2.25
-1.09
1.92
6.38
11.64
17.00
22.02
26.69
31.25
35.89
40.45
44.36
46.76
46.92
44.63
40.12
33.89
26.34
17.61
7.48
-4.49
-18.78
-35.62
-54.87
-76.04
-98.30
-120.57
-141.66
-160.52
-176.52
-189.90
-201.31
-211.59
-221.42
-231.16
-240.84
-250.26
-259.18
-267.44
-275.50
-283.48
-291.09
-297.93
-303.79
-308.51
-311.63
-312.06
-308.27
-299.74
-285.81
-266.08
-241.03
-212.27
-181.96
-151.94
-123.32
-96.54
-73.26
-53.73
-36.72
-20.39
-3.36
15.05
35.02
56.44
78.95
99.87
118.21
135.03
152.22
171.05
191.67
213.47
235.49
269.02
313.07
357.71
392.16
412.61
421.59
423.53
421.80
418.05
413.81
406.11
393.13
375.00
352.80
327.21
298.47
266.68
231.79
194.64
154.55
111.64
66.72
20.86
-24.83
-68.74
-108.54
-141.73
-166.65
-184.37
-196.54
-204.61
-209.41
-211.45
-211.10
-208.72
-204.82
-200.00
-195.43
-191.46
-187.56
-182.72
-176.13
-167.47
-156.86
-144.87
-132.20
-119.89
-108.63
-98.54
-89.09
-79.36
-68.59
-56.61
-44.08
-32.33
-22.88
-16.82
-14.41
-15.08
-17.74
-21.03
-23.57
-24.08
-21.49
-15.21
-5.27
7.52
21.79
35.99
48.87
59.69
68.20
74.40
78.37
80.23
80.29
79.10
77.49
76.23
75.71
75.69
75.45
74.13
71.27
67.10
62.47
58.47
55.97
55.20
55.69
56.48
56.46
54.77
51.04
45.43
38.50
30.92
23.13
15.16
6.61
-3.00
-13.88
-25.64
-37.25
-47.32
-54.57
-58.17
-57.96
-54.27
-47.83
-39.56
-30.57
-22.02
-14.92
-9.82
-6.46
-3.89
-0.78
3.76
9.77
16.26
21.78
25.06
25.63
23.98
21.23
18.67
17.24
17.30
18.67
20.80
23.13
25.29
27.24
29.11
31.04
32.84
33.88
33.25
30.20
24.57
17.04
8.82
1.13
-5.32
-10.67
-15.54
-20.63
-26.16
-31.77
-36.69
-40.19
-41.82
-41.46
-39.08
-34.56
-27.70
-18.42
-7.15
5.10
16.90
26.90
34.28
39.02
41.72
43.17
43.93
44.07
43.33
41.34
38.02
33.66
28.90
24.47
20.93
18.55
17.35
17.30
18.39
20.68
24.15
28.54
33.27
37.56
40.65
41.99
41.40
38.98
35.02
29.86
23.87
17.46
11.05
5.04
-0.30
-4.92
-9.01
-12.90
-16.76
-20.51
-23.68
-25.57
-25.52
-23.18
-18.69
-12.67
-6.00
0.47
6.12
10.76
14.42
17.26
19.30
20.43
20.47
19.44
17.67
15.78
14.47
14.17
14.87
16.06
16.99
17.01
15.83
13.61
10.84
8.10
5.81
4.12
3.20
2.94
2.89
2.44
1.06
-1.44
-4.86
-8.82
-12.93
-16.64
-19.75
-22.45
-25.28
-28.77
-33.15
-38.19
-43.25
-47.48
-49.35
-47.79
-42.74
-35.27
-27.01
-19.52
-13.86
-10.38
-8.57
-5.14
3.19
18.02
38.21
60.69
81.72
98.08
107.75
110.33
110.95
114.62
123.19
134.34
143.96
149.08
148.97
144.70
138.11
137.27
148.06
170.87
200.47
230.29
256.60
279.14
299.46
319.22
347.75
391.95
452.41
523.01
595.61
664.39
726.55
780.58
772.80
671.11
481.82
250.31
28.74
-151.80
-283.84
-373.24
-430.36
-465.31
-477.87
-467.38
-437.48
-397.36
-357.38
-324.58
-301.19
-287.09
-280.73
-273.72
-259.35
-235.90
-207.36
-179.69
-157.20
-141.26
-131.29
-125.87
-119.46
-107.92
-90.63
-70.83
-51.54
-35.34
-23.14
-14.73
-9.49
-4.90
0.42
6.32
11.35
14.00
13.41
9.78
3.91
-3.47
-11.07
-19.12
-28.00
-37.53
-46.80
-55.01
-61.71
-66.57
-69.92
-71.99
-75.44
-82.02
-91.55
-102.45
-113.55
-124.50
-134.50
-143.20
-149.59
-156.53
-165.90
-176.78
-186.12
-191.30
-191.46
-186.35
-178.25
-169.65
-167.96
-177.71
-197.58
-221.75
-244.46
-263.09
-276.86
-288.46
-267.45
-200.27
-98.99
8.41
101.53
175.82
228.21
270.71
308.41
341.50
362.34
364.72
348.86
319.21
281.97
242.04
203.50
166.75
131.79
95.29
56.76
20.42
-6.88
-20.06
-18.73
-5.87
11.74
27.85
36.24
34.76
26.07
15.48
7.38
3.01
1.13
-2.10
-10.23
-26.75
-52.72
-86.07
-121.96
-153.90
-174.85
-178.19
-160.08
-120.98
-67.35
-10.45
36.61
62.80
62.50
36.90
-7.01
-59.66
-112.14
-158.53
-196.54
-226.54
-250.17
-269.30
-285.40
-299.38
-311.26
-319.77
-322.22
-315.04
-295.04
-260.97
-214.38
-159.86
-104.04
-53.84
-14.61
11.24
24.55
28.80
28.79
29.06
32.82
41.52
55.19
72.97
93.64
115.71
137.36
156.46
171.00
179.61
182.04
179.10
172.29
163.07
152.27
139.96
125.73
109.19
90.29
69.47
47.61
25.91
5.86
-10.74
-22.07
-26.79
-24.64
-16.79
-5.76
5.34
13.76
17.84
17.36
13.15
6.52
-1.49
-10.33
-19.84
-29.82
-39.63
-48.04
-53.54
-54.94
-51.78
-44.58
-34.61
-23.36
-12.13
-1.76
7.33
14.99
21.27
26.51
31.39
36.80
43.65
52.39
62.82
74.08
84.92
93.98
100.08
102.33
100.27
93.94
84.01
71.78
58.88
46.93
37.18
30.32
26.42
25.18
25.95
27.92
30.19
32.00
32.88
32.79
32.07
31.15
30.34
29.64
28.80
27.49
25.44
22.55
18.80
14.30
9.16
3.81
-1.35
-6.05
-10.21
-13.93
-17.45
-21.07
-25.02
-29.49
-34.29
-39.21
-44.00
-48.39
-52.08
-54.71
-56.06
-56.02
-54.72
-52.06
-48.21
-43.66
-39.01
-34.60
-30.27
-25.45
-19.39
-11.52
-0.60
13.59
30.05
47.02
62.98
77.20
89.52
99.98
108.56
117.33
127.45
138.41
148.67
157.01
163.10
167.14
169.33
169.76
171.99
178.42
188.85
201.31
213.94
225.85
236.34
244.27
247.98
250.39
253.41
256.63
258.44
258.11
256.61
255.34
255.15
227.82
162.36
69.61
-26.51
-108.17
-170.80
-217.31
-251.93
-277.13
-293.58
-296.89
-285.48
-264.01
-238.89
-215.92
-198.03
-185.49
-176.98
-170.81
-162.22
-148.76
-131.57
-114.03
-99.42
-88.60
-81.54
-77.75
-76.78
-76.10
-74.10
-70.74
-66.95
-63.60
-60.77
-58.25
-55.90
-53.89
-51.64
-49.09
-46.95
-46.16
-47.28
-49.98
-53.50
-56.96
-59.78
-61.42
-61.82
-61.26
-60.10
-58.56
-56.72
-54.67
-52.53
-50.14
-46.96
-41.96
-34.09
-22.97
-9.54
3.78
13.66
17.13
12.79
1.51
-13.86
-29.71
-43.19
-53.26
-60.75
-67.60
-75.74
-86.27
-99.34
-114.15
-129.10
-141.73
-148.79
-146.93
-133.86
-109.60
-76.89
-40.51
-5.49
24.62
48.57
67.07
81.50
92.74
100.73
104.87
104.84
101.13
95.19
88.83
83.60
80.26
78.46
77.00
74.31
69.17
61.34
51.75
42.05
33.89
28.17
24.80
22.99
21.87
21.08
20.80
21.41
22.91
24.64
25.44
24.21
20.59
15.15
9.28
4.48
1.78
1.38
2.73
4.98
7.42
9.74
11.96
14.19
16.38
18.25
19.41
19.50
18.39
16.08
12.71
8.48
3.71
-1.20
-5.74
-9.44
-12.08
-13.82
-15.26
-17.16
-20.21
-24.64
-30.08
-35.52
-39.65
-41.21
-39.36
-34.04
-25.87
-16.09
-6.09
2.92
10.23
15.69
19.54
22.12
23.69
24.26
23.76
22.21
19.86
17.15
14.58
12.45
10.87
9.70
8.78
7.98
7.28
6.68
6.08
5.33
4.25
2.79
1.03
-0.86
-2.75
-4.58
-6.39
-8.16
-9.81
-11.22
-12.35
-13.37
-14.63
-16.58
-19.56
-23.58
-28.29
-33.02
-36.91
-39.16
-39.21
-36.96
-32.74
-27.35
-21.79
-16.77
-12.63
-9.31
-6.45
-3.63
-0.62
2.48
5.33
7.55
9.22
10.77
12.83
15.93
20.30
25.78
31.86
37.78
42.74
46.59
49.42
51.40
52.61
53.09
52.87
51.87
49.85
46.54
42.91
39.91
37.83
36.06
33.63
29.95
25.00
19.26
13.51
10.80
13.42
21.41
32.42
43.31
51.95
57.67
60.79
61.97
65.34
73.87
87.38
102.64
115.79
124.91
130.40
134.18
138.63
150.78
175.91
214.85
263.47
315.77
366.94
414.18
456.24
462.41
414.25
315.37
191.20
69.73
-33.79
-116.72
-182.12
-233.34
-272.24
-294.64
-297.73
-283.64
-259.87
-235.46
-216.75
-206.04
-202.49
-203.81
-203.59
-196.80
-182.33
-163.18
-144.09
-128.81
-119.23
-115.78
-118.61
-124.59
-130.72
-134.76
-134.84
-128.55
-113.28
-88.41
-57.38
-27.51
-5.78
3.44
0.42
-10.18
-21.54
-27.90
-27.22
-20.75
-13.23
-8.31
-6.38
-5.18
-2.26
2.85
8.18
10.64
7.87
-0.16
-10.78
-19.95
-24.29
-22.69
-16.53
-8.76
-2.36
0.96
1.15
-0.35
-1.65
-1.46
0.38
3.02
5.36
6.67
6.92
6.81
7.49
10.04
14.90
21.63
29.19
36.38
42.33
46.72
49.75
51.84
53.32
54.17
54.12
52.92
50.56
47.30
43.49
39.43
35.27
31.04
26.79
22.61
18.64
15.01
11.66
8.45
5.16
1.67
-2.07
-5.91
-9.68
-13.24
-16.50
-19.49
-22.36
-25.28
-28.46
-32.03
-35.90
-39.83
-43.32
-45.81
-46.81
-46.14
-44.04
-41.18
-38.40
-36.48
-35.81
-36.32
-37.55
-38.83
-39.53
-39.22
-37.71
-35.02
-31.39
-27.23
-23.03
-19.18
-15.81
-12.69
-9.29
-5.11
0.02
5.69
11.05
15.15
17.28
17.34
15.74
13.18
10.26
7.27
4.26
1.15
-1.96
-4.76
-6.85
-7.99
-8.25
-8.08
-8.06
-8.60
-9.81
-11.46
-13.19
-14.75
-16.03
-16.99
-17.57
-17.52
-16.48
-14.13
-10.40
-5.53
0.04
5.82
11.49
16.80
21.60
25.72
29.02
31.48
33.31
34.89
36.67
38.83
41.00
42.40
42.22
39.96
35.63
29.65
22.60
14.94
6.93
-1.33
-9.51
-16.74
-21.76
-23.47
-21.50
-16.42
-9.56
-2.44
3.46
7.37
9.61
11.38
14.16
19.08
26.56
36.11
46.50
55.67
61.56
62.89
59.47
51.99
41.76
30.43
19.54
12.27
10.83
14.36
19.72
23.98
26.27
27.80
30.75
36.25
44.23
52.81
59.45
62.61
62.51
60.75
59.13
58.59
59.13
59.72
58.51
53.69
44.03
28.87
7.90
-18.60
-49.23
-80.97
-109.55
-130.74
-141.69
-141.86
-133.07
-118.73
-102.52
-87.29
-74.55
-64.70
-57.60
-52.87
-49.82
-47.39
-44.30
-39.44
-32.52
-24.44
-17.33
-13.95
-16.68
-26.45
-42.21
-61.15
-79.63
-94.52
-104.22
-109.04
-110.74
-111.56
-113.10
-115.71
-118.43
-119.56
-117.46
-111.30
-101.35
-88.85
-75.47
-62.68
-51.23
-41.07
-31.55
-21.90
-11.67
-0.84
10.19
20.90
30.79
39.34
46.16
50.88
53.40
54.06
53.66
53.17
53.33
54.28
55.51
56.21
55.75
53.99
51.21
47.75
43.59
38.29
31.33
22.62
12.94
3.94
-2.42
-4.45
-1.44
6.30
17.57
30.79
44.44
57.25
68.25
76.52
81.15
81.27
76.40
66.77
53.61
38.92
24.89
13.03
3.65
-4.18
-11.94
-20.66
-30.05
-38.36
-43.11
-42.17
-34.90
-22.46
-7.38
7.45
19.88
28.98
35.07
39.06
41.98
44.49
46.89
49.27
51.74
54.46
57.48
60.57
63.15
64.40
63.58
60.26
54.52
46.90
38.25
29.43
21.30
14.45
9.25
5.77
3.76
2.75
2.12
1.32
0.02
-1.87
-4.15
-6.48
-8.49
-9.80
-10.09
-9.25
-7.34
-4.67
-1.76
0.83
2.57
3.15
2.50
0.89
-1.17
-3.01
-3.97
-3.59
-1.75
1.31
5.02
8.71
11.85
14.23
16.00
17.55
19.38
21.82
24.91
28.39
31.82
34.74
36.78
37.75
37.51
35.92
32.83
28.20
22.31
15.83
9.67
4.63
1.07
-1.26
-3.09
-5.15
-7.78
-10.57
-12.58
-12.64
-9.97
-4.52
2.89
10.89
17.97
22.92
25.14
24.68
22.02
17.77
12.38
5.93
-1.75
-10.92
-21.77
-34.21
-47.81
-61.71
-74.65
-85.14
-91.88
-94.21
-92.49
-88.10
-83.07
-79.31
-77.92
-79.00
-81.80
-85.34
-89.00
-92.81
-97.28
-102.95
-109.86
-117.27
-123.66
-127.15
-126.23
-120.16
-109.31
-94.84
-78.24
-60.60
-42.31
-23.24
-3.20
17.42
37.46
55.20
69.05
78.16
82.78
83.95
83.06
81.34
79.65
78.63
78.73
80.13
82.48
84.70
85.16
82.38
75.90
66.62
56.60
48.01
41.96
37.93
34.10
28.40
19.76
8.66
-3.24
-14.07
-22.83
-29.78
-36.03
-42.68
-50.00
-57.18
-62.72
-65.17
-63.76
-58.57
-50.34
-40.03
-28.49
-16.27
-3.68
9.19
22.34
35.76
49.33
62.70
75.36
86.63
95.63
101.31
102.49
98.16
87.98
72.84
55.10
38.05
24.91
17.47
15.40
16.43
17.52
16.35
12.30
6.46
0.81
-2.94
-4.10
-3.04
-0.83
1.37
2.50
1.61
-2.23
-9.81
-21.27
-35.75
-51.30
-65.42
-75.98
-82.02
-83.94
-83.14
-81.26
-79.43
-78.02
-76.74
-74.97
-72.11
-67.72
-61.51
-53.22
-42.56
-29.27
-13.27
5.05
24.66
43.80
60.27
71.88
77.08
75.32
67.21
54.46
39.51
25.14
13.81
7.15
5.48
7.73
11.79
15.15
15.69
12.16
4.44
-6.49
-18.73
-29.69
-36.78
-38.07
-33.09
-22.99
-10.08
3.21
15.39
26.22
36.35
46.45
56.49
65.70
73.01
77.66
79.48
78.84
76.26
72.28
67.57
63.05
59.90
59.19
61.44
66.23
72.16
77.27
79.60
77.73
70.98
59.53
44.25
26.56
8.27
-8.75
-22.90
-33.22
-39.51
-42.29
-42.38
-40.51
-36.98
-31.81
-24.94
-16.80
-8.51
-1.73
1.90
1.29
-3.78
-12.68
-24.07
-36.06
-46.74
-54.61
-59.05
-60.40
-59.90
-59.26
-60.05
-63.14
-68.10
-73.76
-78.76
-82.13
-83.50
-82.93
-80.74
-77.28
-72.81
-66.76
-58.91
-49.87
-41.05
-33.91
-29.25
-26.89
-26.03
-25.72
-23.68
-18.61
-10.78
-1.75
6.89
14.48
21.22
27.57
33.87
42.84
56.37
74.40
94.79
115.03
133.60
150.24
165.43
179.93
197.70
221.44
250.73
282.05
311.04
334.63
351.66
362.42
347.13
296.17
215.58
124.93
43.43
-19.95
-65.55
-97.60
-120.36
-136.79
-145.32
-144.66
-135.94
-122.81
-109.27
-97.97
-89.74
-84.55
-82.09
-79.43
-74.26
-66.13
-56.59
-47.77
-41.31
-37.65
-36.45
-36.83
-36.14
-32.38
-25.47
-17.49
-9.40
-2.69
1.85
4.19
4.69
4.68
5.13
6.13
7.09
7.39
6.67
5.26
3.72
2.40
1.57
1.11
0.60
-0.41
-2.16
-4.84
-8.38
-12.70
-17.53
-22.31
-26.24
-28.52
-28.66
-26.72
-23.38
-19.56
-16.21
-13.84
-12.47
-11.74
-11.28
-10.85
-10.36
-9.82
-9.16
-8.47
-7.64
-6.56
-5.32
-4.38
-4.43
-6.01
-9.31
-14.03
-20.48
-28.56
-37.95
-48.31
-59.56
-71.61
-84.08
-96.24
-107.27
-118.24
-129.78
-141.61
-152.94
-163.22
-172.19
-179.63
-185.30
-188.89
-192.89
-198.52
-205.28
-211.80
-217.32
-221.74
-224.99
-226.56
-225.30
-223.11
-220.06
-214.02
-202.34
-184.07
-160.59
-134.79
-110.23
-69.82
-11.45
54.24
112.85
157.10
187.45
207.06
218.53
222.49
221.20
213.08
198.54
180.55
163.00
148.36
137.10
129.48
125.13
123.77
122.43
119.60
115.72
112.02
109.05
106.42
103.52
99.87
95.56
89.17
80.34
69.90
59.35
49.92
42.26
36.63
32.83
30.46
28.04
24.69
20.46
16.10
12.32
9.44
7.48
6.25
5.74
5.83
6.73
8.77
12.04
16.04
19.85
22.47
23.07
21.26
17.06
10.90
3.49
-4.31
-11.62
-17.63
-21.70
-23.48
-22.94
-20.31
-16.02
-10.58
-4.47
1.91
8.16
13.91
18.76
22.41
24.70
25.67
25.54
24.54
22.84
20.48
17.53
14.13
10.56
7.12
3.98
1.07
-1.83
-4.92
-8.18
-11.43
-14.37
-16.84
-18.86
-20.60
-22.08
-23.11
-23.21
-21.77
-18.43
-13.23
-6.67
0.43
7.20
13.01
17.55
20.88
23.21
24.81
25.85
26.42
26.58
26.44
26.12
25.79
25.49
25.03
24.03
21.95
18.30
12.84
5.77
-2.36
-10.71
-18.51
-25.22
-30.62
-34.73
-37.74
-39.84
-41.27
-42.34
-43.41
-44.82
-46.70
-48.93
-51.05
-52.51
-52.81
-51.78
-49.56
-46.59
-43.43
-40.57
-38.37
-36.92
-36.02
-35.21
-33.87
-31.32
-27.01
-20.75
-12.73
-3.54
5.89
14.56
21.63
26.71
29.94
31.90
33.39
35.09
37.44
40.52
44.05
47.47
50.08
51.12
50.08
46.87
41.99
36.47
31.48
27.96
26.19
25.75
25.68
24.91
22.58
18.35
12.34
5.03
-2.92
-10.93
-18.63
-25.86
-32.61
-38.90
-44.63
-49.60
-53.62
-56.55
-58.51
-59.81
-60.83
-61.83
-62.69
-62.99
-62.14
-59.75
-55.85
-50.94
-45.77
-40.94
-36.65
-32.57
-28.19
-23.02
-16.93
-10.15
-3.11
3.82
10.35
16.30
21.51
25.79
29.08
31.51
33.44
35.36
37.68
40.52
43.62
46.52
48.69
49.84
49.91
49.08
47.58
45.57
43.08
40.09
36.53
32.46
28.00
23.38
18.86
14.68
10.98
7.73
4.61
1.08
-3.41
-9.18
-16.09
-23.48
-30.35
-35.82
-39.37
-40.99
-41.01
-39.83
-37.61
-34.37
-30.05
-24.81
-19.09
-13.57
-8.85
-5.26
-2.76
-0.97
0.62
2.49
4.97
8.10
11.59
14.92
17.42
18.62
18.50
17.52
16.49
16.17
16.97
18.88
21.41
23.87
25.47
25.51
23.50
19.30
13.22
6.04
-1.20
-7.53
-12.45
-16.05
-18.96
-22.05
-25.99
-31.09
-37.18
-43.60
-49.46
-53.73
-55.49
-54.09
-49.38
-41.67
-31.69
-20.48
-9.10
1.56
10.90
18.66
24.87
29.77
33.67
36.93
39.84
42.66
45.46
48.14
50.46
52.04
52.52
51.66
49.35
45.64
40.85
35.58
30.75
27.49
26.77
28.86
33.07
37.70
40.63
40.17
35.77
28.43
20.35
14.08
11.60
13.54
19.02
25.98
31.86
34.32
31.67
23.16
9.08
-9.25
-29.66
-49.57
-66.69
-79.71
-88.73
-95.22
-101.23
-108.34
-116.82
-125.40
-132.02
-134.92
-133.64
-129.20
-123.87
-120.34
-120.57
-125.07
-132.69
-141.07
-147.40
-149.29
-145.00
-134.20
-117.90
-97.92
-76.28
-54.73
-34.58
-16.84
-2.13
10.21
21.05
31.19
41.27
51.77
62.97
75.01
87.59
100.11
113.06
126.41
139.55
151.74
162.86
173.44
184.57
196.66
209.18
222.28
234.98
245.36
251.49
252.47
248.49
240.71
229.91
207.63
171.82
127.79
84.90
50.19
27.07
12.89
5.43
2.52
1.61
2.17
2.72
1.06
-5.01
-16.45
-32.69
-51.44
-70.08
-86.40
-98.29
-106.24
-113.46
-124.57
-142.96
-168.85
-198.35
-225.31
-243.72
-249.35
-242.21
-226.03
-206.15
-186.82
-169.77
-154.21
-138.47
-121.44
-103.01
-84.32
-67.02
-52.32
-40.31
-30.20
-20.86
-11.77
-3.31
3.63
8.13
9.89
9.57
8.66
8.86
11.28
16.02
22.20
28.46
33.61
37.12
39.18
40.38
41.38
42.58
44.04
45.64
47.24
48.69
49.79
50.20
49.47
47.26
43.53
38.65
33.32
28.29
24.00
20.41
17.09
13.43
9.10
4.27
-0.35
-3.76
-5.04
-3.75
-0.08
5.20
11.05
16.51
20.92
23.96
25.55
25.74
24.66
22.48
19.43
15.81
11.90
7.98
4.34
1.27
-0.93
-2.03
-1.97
-0.88
0.88
2.85
4.63
6.01
6.98
7.66
8.17
8.43
8.25
7.35
5.55
2.91
-0.26
-3.55
-6.65
-9.44
-12.07
-14.81
-17.94
-21.56
-25.49
-29.22
-31.95
-32.81
-31.07
-26.44
-19.26
-10.40
-1.03
7.82
15.49
21.77
26.72
30.50
33.14
34.64
35.06
34.63
33.78
33.04
32.79
33.24
34.33
35.83
37.44
38.87
39.92
40.50
40.56
40.09
38.95
36.89
33.53
28.53
21.70
13.18
3.49
-6.56
-16.02
-24.11
-30.37
-34.81
-37.82
-40.01
-42.03
-44.27
-46.78
-49.24
-51.15
-52.04
-51.73
-50.43
-48.82
-47.86
-48.66
-52.16
-58.81
-68.17
-78.88
-88.82
-95.79
-98.30
-96.24
-90.87
-84.32
-78.50
-74.42
-71.83
-69.73
-67.13
-63.59
-59.39
-55.10
-51.07
-47.06
-42.38
-36.27
-28.27
-18.46
-7.34
4.51
16.69
29.04
41.52
53.81
65.09
74.10
79.47
80.29
76.45
68.86
59.14
49.11
40.16
32.89
27.02
21.65
15.84
9.06
1.57
-5.57
-10.88
-13.01
-11.29
-5.93
2.12
11.79
22.40
33.79
46.06
59.17
72.64
85.82
98.40
110.89
124.50
140.45
158.96
178.70
196.92
210.54
217.45
217.45
212.50
205.94
201.29
201.04
205.81
214.24
223.41
229.67
229.77
221.90
206.17
184.51
159.95
135.50
113.27
94.05
77.48
62.60
48.32
33.86
18.94
3.73
-11.27
-25.38
-38.04
-48.98
-58.46
-67.16
-75.88
-85.21
-95.13
-105.04
-114.02
-121.20
-126.19
-129.17
-130.80
-131.86
-132.92
-134.12
-135.20
-135.63
-134.90
-132.73
-129.16
-124.53
-119.29
-113.87
-108.63
-103.82
-99.58
-95.95
-92.82
-89.96
-87.03
-83.82
-80.37
-77.00
-74.25
-72.58
-72.16
-72.79
-73.95
-75.09
-75.81
-75.99
-75.70
-75.14
-74.48
-73.78
-72.93
-71.67
-69.57
-66.13
-60.87
-53.59
-44.46
-34.05
-23.19
-12.70
-3.18
5.23
12.85
20.34
28.38
37.41
47.36
57.65
67.40
75.83
82.52
87.49
91.14
93.96
96.37
98.63
100.91
103.41
106.26
109.43
112.44
114.42
114.26
111.02
104.32
94.55
82.81
70.52
59.06
49.36
41.76
36.04
31.56
27.56
23.29
18.27
12.32
5.60
-1.52
-8.67
-15.64
-22.50
-29.50
-36.77
-44.23
-51.52
-58.14
-63.73
-68.09
-71.13
-72.79
-72.99
-71.70
-69.12
-65.73
-62.16
-58.98
-56.43
-54.38
-52.46
-50.36
-47.97
-45.42
-42.96
-40.78
-38.98
-37.57
-36.58
-36.04
-35.97
-36.24
-36.62
-36.85
-36.74
-36.38
-36.03
-36.05
-36.65
-37.85
-39.44
-41.13
-42.66
-43.90
-44.77
-45.26
-45.45
-45.49
-45.56
-45.64
-45.36
-43.98
-40.74
-35.28
-28.02
-20.02
-12.49
-6.11
-0.66
4.76
11.11
18.72
27.06
35.07
41.88
47.34
52.03
56.81
62.17
67.85
73.04
76.74
78.41
78.20
76.80
75.03
73.35
71.70
69.59
66.37
61.54
54.82
46.13
35.49
23.11
9.50
-4.39
-17.26
-27.74
-34.82
-38.23
-38.56
-37.00
-34.75
-32.51
-30.16
-26.80
-21.25
-12.67
-1.02
12.64
26.51
38.62
47.56
52.99
55.67
57.03
58.47
60.70
63.51
65.90
66.57
64.50
59.33
51.42
41.58
30.72
19.61
8.73
-1.61
-11.06
-19.26
-26.01
-31.50
-36.49
-42.11
-49.42
-58.89
-70.02
-81.54
-91.88
-99.80
-104.74
-106.90
-106.99
-105.92
-104.57
-103.61
-103.36
-103.62
-103.53
-101.73
-96.80
-87.95
-75.52
-61.01
-46.64
-34.47
-25.60
-19.82
-15.74
-11.52
-5.58
2.75
13.02
23.97
34.02
42.02
47.47
50.61
52.07
52.43
51.88
50.18
46.90
41.71
34.66
26.15
16.80
7.22
-2.23
-11.49
-20.71
-30.04
-39.32
-47.97
-55.05
-59.62
-61.22
-60.17
-57.45
-54.18
-51.11
-48.29
-45.30
-41.71
-37.51
-33.28
-29.69
-26.95
-24.50
-21.20
-15.94
-8.31
1.20
11.59
22.06
32.49
43.41
55.43
68.65
82.32
95.01
105.32
112.35
115.95
116.58
114.94
111.70
107.51
103.03
98.98
95.90
93.83
92.20
89.95
85.96
79.52
70.68
60.14
49.06
38.53
29.34
21.81
15.84
11.17
7.54
4.76
2.74
1.31
0.19
-0.98
-2.51
-4.51
-6.89
-9.47
-12.12
-14.75
-17.11
-18.66
-18.46
-15.53
-9.33
-0.19
10.63
21.34
30.28
36.53
40.03
41.33
41.16
40.04
38.25
35.90
33.15
30.23
27.32
24.49
21.59
18.44
14.94
11.26
7.78
5.00
3.38
3.10
4.05
5.76
7.58
8.92
9.40
8.96
7.80
6.27
4.63
2.99
1.31
-0.45
-2.33
-4.33
-6.48
-8.92
-11.78
-15.06
-18.38
-21.08
-22.34
-21.60
-18.78
-14.37
-9.17
-4.01
0.58
4.49
7.84
10.80
13.42
15.63
17.33
18.53
19.46
20.43
21.76
23.58
25.77
28.04
30.03
31.48
32.31
32.76
33.20
34.11
35.84
38.45
41.76
45.32
48.63
51.28
53.10
54.23
55.12
56.42
58.77
62.67
68.21
74.95
81.98
88.14
92.38
94.23
94.10
93.19
93.16
95.36
100.28
107.27
114.74
120.76
123.74
123.00
118.84
112.43
105.31
98.91
94.26
91.74
91.15
91.85
93.07
94.20
95.03
95.70
96.49
97.44
98.12
97.69
95.26
90.39
83.38
75.43
68.19
63.14
61.00
61.28
62.36
61.94
57.84
48.71
34.51
16.58
-2.79
-20.96
-35.74
-45.92
-51.53
-53.69
-54.16
-54.82
-57.07
-61.62
-68.46
-77.07
-86.81
-97.15
-107.88
-119.01
-130.59
-142.61
-154.86
-167.11
-179.25
-191.53
-204.52
-219.02
-235.67
-254.62
-275.29
-296.56
-317.09
-335.65
-351.42
-363.90
-372.77
-377.74
-378.65
-375.71
-369.66
-361.61
-352.63
-343.12
-332.53
-319.53
-302.56
-280.48
-253.06
-221.06
-185.90
-149.30
-112.96
-78.41
-47.15
-20.75
-0.95
10.60
12.84
5.92
-8.55
-27.72
-48.16
-66.86
-81.75
-91.71
-96.12
-94.31
-85.44
-68.79
-44.48
-13.91
20.23
54.62
86.11
112.61
133.42
148.97
160.26
168.27
173.49
176.20
176.80
176.24
175.96
177.37
181.16
186.92
193.46
199.55
204.71
209.45
214.67
220.76
227.00
231.42
231.53
225.27
211.77
191.49
165.99
137.24
107.04
76.70
47.11
18.92
-7.11
-29.99
-48.78
-62.94
-72.64
-78.72
-82.38
-84.68
-86.26
-87.41
-88.38
-89.58
-91.47
-94.20
-97.26
-99.55
-99.94
-97.91
-94.02
-89.63
-86.19
-84.45
-83.98
-83.38
-80.95
-75.47
-66.64
-55.09
-42.06
-28.89
-16.60
-5.75
3.53
11.50
18.51
24.96
31.06
36.89
42.40
47.40
51.60
54.56
55.66
54.21
49.77
42.39
32.74
21.96
11.25
1.50
-6.95
-14.13
-20.20
-25.25
-29.18
-31.89
-33.33
-33.53
-32.37
-29.55
-24.69
-17.75
-9.33
-0.69
6.54
10.92
11.64
8.59
2.34
-6.10
-15.33
-23.65
-29.29
-30.82
-27.68
-20.47
-10.81
-0.71
8.14
14.86
19.33
21.79
22.45
21.32
18.53
14.37
9.18
2.86
-5.51
-17.63
-35.10
-58.65
-87.44
-119.02
-150.10
-177.50
-198.95
-213.33
-220.48
-220.67
-214.62
-203.60
-189.35
-173.82
-158.55
-144.25
-130.62
-116.78
-101.60
-84.71
-66.71
-48.86
-32.24
-17.19
-3.22
10.52
24.73
40.34
57.27
74.46
90.49
104.29
115.56
124.52
131.61
137.31
143.66
152.06
162.46
173.68
184.44
194.05
202.42
209.84
216.78
225.99
238.79
254.06
269.00
281.24
289.94
295.20
297.28
296.12
294.42
293.53
292.80
290.59
286.25
280.49
274.11
267.16
239.69
184.30
110.12
36.24
-23.18
-64.59
-91.13
-107.94
-119.22
-127.35
-130.08
-126.25
-117.50
-107.75
-100.97
-98.47
-99.76
-103.33
-107.36
-107.86
-103.04
-94.03
-84.19
-76.81
-73.64
-74.92
-80.09
-88.56
-96.16
-101.04
-103.25
-103.89
-103.36
-100.55
-93.52
-80.68
-61.80
-37.72
-11.40
13.14
32.00
42.57
44.00
36.79
22.36
2.83
-18.87
-40.01
-58.29
-72.52
-82.76
-90.10
-96.04
-101.59
-106.59
-109.69
-109.26
-104.06
-94.03
-80.40
-65.15
-50.18
-36.61
-24.58
-13.45
-2.50
8.74
20.27
31.69
42.40
51.79
59.43
65.04
68.67
70.66
71.56
72.00
72.35
72.63
72.56
71.86
70.59
69.34
68.99
70.26
73.29
77.47
81.72
85.06
87.05
87.98
88.67
90.08
92.88
97.16
102.19
106.30
107.07
101.54
86.99
61.82
26.67
-15.07
-57.55
-94.02
-118.94
-129.81
-127.99
-117.77
-104.50
-92.51
-83.85
-78.43
-75.02
-72.57
-70.85
-70.26
-71.13
-73.18
-75.50
-77.12
-77.60
-77.38
-77.42
-78.66
-81.42
-85.22
-89.07
-92.03
-93.77
-94.75
-95.94
-98.19
-101.74
-106.06
-110.17
-113.16
-114.60
-114.71
-114.15
-113.83
-114.65
-117.43
-122.83
-131.18
-142.20
-154.93
-167.80
-179.10
-187.52
-192.52
-194.22
-192.86
-188.21
-179.39
-165.08
-144.21
-116.65
-83.62
-47.47
-11.06
23.22
54.08
81.46
106.33
129.85
152.72
174.91
195.89
215.17
232.64
248.66
263.91
279.09
294.41
309.27
322.38
332.14
337.25
337.22
332.66
325.05
316.58
308.90
302.29
295.30
285.28
269.20
244.73
211.02
169.05
122.35
75.20
31.27
-7.37
-39.98
-66.69
-87.88
-103.86
-114.79
-119.28
-116.88
-109.26
-99.95
-92.38
-88.23
-87.01
-86.92
-85.98
-80.24
-67.65
-49.32
-28.91
-10.12
5.34
17.81
28.78
40.00
56.61
82.41
117.67
158.99
201.80
242.81
280.54
314.71
323.08
292.43
226.50
144.86
67.50
4.53
-42.61
-76.41
-100.38
-117.83
-127.91
-130.06
-125.73
-118.69
-112.88
-110.66
-112.16
-116.18
-120.97
-122.14
-116.89
-105.56
-91.73
-79.88
-73.19
-72.89
-78.78
-90.36
-102.80
-112.89
-119.36
-122.92
-124.81
-125.50
-124.64
-121.53
-115.71
-106.31
-93.59
-78.67
-63.47
-49.84
-39.03
-31.60
-27.63
-26.82
-28.29
-31.32
-35.40
-40.34
-46.11
-52.61
-59.49
-66.12
-71.64
-75.13
-75.87
-73.32
-67.14
-57.32
-44.29
-29.03
-13.00
2.10
14.81
24.30
30.64
34.60
37.17
39.05
40.34
40.71
39.79
37.47
33.97
29.80
25.49
21.51
18.26
16.13
15.49
16.52
19.12
22.81
26.92
30.71
33.57
35.03
34.76
32.61
28.69
23.52
17.99
13.06
9.51
7.49
6.53
5.78
4.37
1.84
-1.66
-5.43
-8.47
-9.79
-8.65
-4.76
1.57
9.57
18.08
25.79
31.58
34.77
35.24
33.45
30.21
26.42
22.79
19.76
17.49
15.97
15.10
14.74
14.67
14.65
14.41
13.82
12.88
11.80
10.96
10.76
11.47
13.10
15.41
17.91
20.03
21.34
21.69
21.27
20.58
20.23
20.66
21.98
23.94
26.10
27.95
29.22
29.98
30.66
32.01
34.75
39.35
45.75
53.31
61.09
68.11
73.76
77.95
81.01
83.39
85.43
87.16
88.42
88.99
88.81
87.96
86.70
85.26
83.82
82.50
81.34
80.33
79.30
77.84
75.25
70.57
62.83
51.39
36.23
18.04
-1.87
-21.99
-41.00
-58.06
-72.88
-85.48
-95.95
-104.30
-110.60
-115.14
-118.61
-121.94
-125.92
-130.71
-135.62
-139.31
-140.34
-137.90
-132.15
-124.21
-115.53
-107.39
-100.39
-94.50
-89.34
-84.48
-79.71
-74.95
-70.26
-65.72
-61.45
-57.62
-54.36
-51.71
-49.49
-47.32
-44.77
-41.50
-37.40
-32.54
-27.13
-21.42
-15.70
-10.30
-5.62
-2.09
0.02
0.73
0.38
-0.42
-1.06
-1.13
-0.61
0.18
0.82
1.01
0.79
0.42
0.20
0.19
0.20
-0.13
-1.00
-2.32
-3.65
-4.45
-4.36
-3.30
-1.48
0.81
3.33
5.93
8.53
11.02
13.35
15.58
17.91
20.61
23.76
27.15
30.30
32.62
33.73
33.59
32.42
30.44
27.69
23.99
19.16
13.23
6.74
0.55
-4.40
-7.52
-8.79
-8.79
-8.48
-8.94
-11.12
-15.66
-22.74
-31.93
-42.16
-51.88
-59.46
-63.71
-64.23
-61.41
-56.08
-49.07
-40.91
-31.89
-22.35
-12.83
-4.11
3.05
8.24
11.30
12.12
10.45
5.94
-1.48
-11.07
-21.24
-29.87
-35.12
-36.11
-33.11
-27.27
-19.88
-11.79
-3.20
6.04
15.92
25.84
34.62
40.81
43.40
42.33
38.57
33.76
29.35
25.81
22.47
17.91
10.99
1.71
-8.44
-17.12
-22.25
-23.01
-20.18
-15.60
-11.17
-8.04
-6.36
-5.64
-5.47
-5.99
-7.83
-11.68
-17.81
-25.90
-35.25
-45.19
-55.31
-65.09
-73.33
-77.78
-75.34
-62.97
-39.01
-4.06
38.84
85.00
129.19
166.75
194.17
209.31
211.41
201.09
180.41
152.63
121.56
90.88
63.50
41.23
24.72
13.66
7.02
3.41
1.12
-1.74
-6.80
-14.87
-25.40
-36.45
-45.33
-49.57
-47.72
-40.30
-29.76
-19.70
-13.33
-12.29
-16.43
-24.27
-33.80
-42.36
-47.69
-48.55
-44.94
-37.86
-29.08
-21.10
-16.79
-18.80
-27.12
-40.47
-57.67
-78.32
-102.14
-127.94
-153.41
-175.51
-191.18
-195.26
-184.18
-158.16
-121.69
-81.11
-41.66
-6.11
25.36
54.52
87.67
130.82
186.12
250.68
318.83
385.07
445.33
496.91
516.38
487.14
410.78
308.74
206.59
119.90
52.90
3.34
-33.05
-60.22
-77.45
-83.10
-77.85
-65.71
-52.03
-40.86
-34.02
-31.43
-31.83
-30.99
-24.79
-12.30
4.13
20.77
34.87
45.30
52.20
56.20
59.72
64.99
72.31
80.39
87.49
92.53
95.38
96.24
95.14
92.25
90.07
88.90
88.05
86.57
84.06
80.83
77.50
74.70
73.12
73.17
74.39
76.07
77.38
77.65
76.38
73.30
68.46
62.36
55.88
49.70
44.45
40.35
37.16
34.29
31.05
26.88
21.60
15.44
8.79
2.31
-3.31
-7.68
-10.93
-13.81
-17.52
-23.25
-31.74
-43.12
-56.79
-71.76
-87.13
-102.36
-117.43
-132.71
-148.82
-166.35
-185.69
-206.67
-228.30
-248.72
-265.43
-275.91
-278.55
-273.18
-261.23
-245.18
-227.62
-210.48
-194.66
-180.24
-166.98
-154.75
-143.66
-133.90
-125.42
-117.86
-110.69
-103.53
-96.43
-89.94
-84.83
-81.76
-80.84
-81.63
-83.30
-85.00
-86.24
-87.04
-87.86
-89.37
-92.15
-96.46
-102.16
-108.71
-115.34
-121.20
-125.68
-128.61
-130.40
-131.91
-134.22
-138.19
-144.11
-151.62
-159.79
-167.52
-173.96
-178.82
-182.58
-186.26
-191.12
-198.11
-207.34
-217.78
-227.26
-232.96
-232.21
-223.36
-206.40
-182.87
-155.23
-125.77
-95.72
-64.98
-32.66
1.94
38.39
74.93
109.04
138.61
163.05
183.65
203.10
224.65
251.08
284.08
323.66
367.69
411.56
448.49
471.01
473.59
455.20
420.47
378.32
338.47
307.49
286.39
271.19
255.81
235.81
210.53
182.81
156.65
134.68
116.93
101.60
86.84
72.38
59.85
51.48
48.42
49.58
51.77
51.09
44.67
31.76
13.76
-6.64
-26.01
-40.52
-46.22
-40.00
-21.07
7.68
39.64
66.33
80.62
79.71
66.31
47.30
30.49
21.35
21.13
27.06
34.12
37.15
32.51
18.78
-3.33
-31.57
-63.12
-95.64
-127.87
-159.38
-189.70
-217.50
-240.31
-255.10
-259.03
-249.95
-226.27
-186.74
-130.90
-60.42
19.22
98.28
164.28
205.62
215.71
195.95
155.32
106.89
62.51
28.24
2.88
-20.25
-49.11
-88.46
-137.43
-189.70
-236.22
-268.98
-283.72
-280.37
-261.60
-230.69
-190.50
-143.96
-95.39
-50.85
-17.61
-1.96
-6.61
-29.15
-62.40
-96.95
-124.40
-139.88
-142.20
-134.12
-121.31
-110.22
-105.82
-110.22
-122.37
-138.76
-154.53
-163.23
-159.65
-141.28
-108.82
-65.55
-16.67
31.41
72.44
102.45
123.84
142.45
164.46
193.33
228.98
268.14
305.25
334.17
349.94
353.25
347.01
334.63
319.22
304.76
295.99
296.60
307.38
306.16
277.15
220.17
150.56
84.53
30.44
-10.41
-40.21
-62.11
-79.04
-89.23
-92.75
-91.85
-91.01
-94.10
-102.61
-115.66
-131.19
-147.13
-159.58
-165.17
-163.31
-156.27
-147.16
-138.47
-131.69
-127.36
-125.11
-122.25
-116.22
-105.93
-92.21
-76.72
-60.99
-45.99
-32.18
-19.69
-7.70
4.33
16.24
27.18
36.27
42.98
47.13
48.84
48.37
46.45
43.83
41.05
38.37
35.91
33.78
32.05
30.69
29.57
28.44
26.98
24.89
22.01
18.37
14.15
9.62
4.99
0.44
-3.93
-8.08
-12.00
-15.72
-19.36
-23.04
-26.96
-31.30
-36.12
-41.26
-46.30
-50.41
-52.61
-51.99
-48.06
-40.97
-31.50
-20.82
-10.11
-0.27
8.19
15.12
20.62
24.86
28.05
30.42
32.18
33.54
34.64
35.56
36.35
37.03
37.66
38.32
39.04
39.79
40.45
40.88
40.98
40.68
39.92
38.69
36.92
34.57
31.73
28.59
25.45
22.57
20.06
17.80
15.54
13.00
10.08
6.82
3.38
-0.14
-3.73
-7.55
-11.83
-16.76
-22.31
-28.07
-33.23
-36.71
-37.46
-34.78
-28.56
-19.37
-8.22
3.72
15.44
26.17
35.46
43.06
48.97
53.41
56.90
60.05
63.36
67.05
70.92
74.58
77.63
79.89
81.44
82.45
83.03
83.11
82.54
81.32
79.82
78.67
78.44
79.22
80.26
80.14
77.26
70.59
60.12
46.74
31.58
15.19
-2.84
-23.53
-47.44
-73.69
-99.57
-121.19
-134.89
-138.63
-132.52
-118.43
-98.97
-76.66
-53.59
-31.77
-13.37
-0.37
6.34
7.88
7.44
9.17
16.23
29.08
45.01
59.33
67.58
67.55
60.14
48.64
37.04
28.21
23.12
20.93
20.05
19.20
18.04
17.06
17.10
18.76
22.06
26.44
30.95
34.45
35.73
33.39
26.05
12.68
-6.86
-31.24
-57.55
-81.78
-99.86
-108.89
-108.14
-99.15
-85.10
-69.64
-55.66
-44.57
-36.21
-29.45
-22.95
-15.91
-8.36
-1.02
5.17
9.58
12.10
13.08
13.08
12.47
11.25
9.10
5.63
0.68
-5.49
-12.20
-18.57
-23.62
-26.50
-26.56
-23.28
-16.45
-6.33
6.13
19.35
31.32
40.19
44.69
44.44
40.01
32.72
24.21
16.04
9.32
4.54
1.66
0.06
-1.19
-3.03
-6.02
-10.15
-14.82
-19.00
-21.55
-21.31
-17.81
-11.50
-3.52
4.85
12.51
18.82
23.57
26.87
29.50
31.82
33.75
35.23
36.62
38.67
41.94
46.50
51.81
57.80
63.77
68.70
71.93
73.66
74.54
75.07
75.18
74.53
74.06
74.20
74.64
74.62
73.28
69.77
63.33
53.72
34.35
5.66
-26.73
-56.96
-83.06
-105.62
-124.73
-138.83
-145.91
-145.16
-136.77
-123.51
-109.27
-96.90
-86.92
-78.33
-70.16
-62.53
-57.49
-54.95
-55.09
-57.88
-62.68
-68.13
-72.66
-74.98
-74.38
-70.55
-62.75
-51.00
-36.26
-20.11
-4.37
9.10
18.65
23.08
21.57
14.46
2.61
-12.92
-31.15
-51.31
-72.85
-95.15
-117.36
-138.15
-155.63
-168.04
-174.11
-173.27
-165.75
-152.49
-135.11
-115.84
-97.31
-81.92
-71.22
-65.21
-61.85
-57.47
-47.84
-29.60
-1.57
34.73
75.64
116.46
152.75
181.33
200.60
210.41
211.65
205.93
195.23
181.72
167.50
154.35
143.39
135.11
129.06
123.94
117.69
107.96
92.90
72.00
46.60
19.72
-4.99
-24.53
-37.57
-44.70
-47.82
-48.94
-49.36
-49.41
-48.91
-47.83
-46.57
-45.85
-46.02
-46.64
-46.55
-44.41
-39.62
-32.75
-25.45
-19.74
-17.04
-17.56
-20.21
-23.12
-24.43
-22.91
-18.21
-10.76
-1.45
8.83
19.39
29.75
39.54
48.30
55.38
60.15
62.12
61.28
58.09
53.37
47.88
42.09
36.05
29.55
22.49
15.01
7.54
0.62
-5.38
-10.36
-14.38
-17.49
-19.63
-20.59
-20.16
-18.28
-15.20
-11.37
-7.39
-3.88
-1.38
-0.37
-1.15
-3.78
-7.93
-12.76
-17.15
-19.90
-20.29
-18.34
-14.91
-11.33
-8.98
-8.70
-10.61
-14.12
-18.27
-22.18
-25.27
-27.35
-28.46
-28.69
-28.11
-26.81
-25.05
-23.35
-22.31
-22.28
-23.03
-23.73
-23.19
-20.42
-15.01
-7.31
1.72
10.84
18.98
25.41
29.83
32.45
33.80
34.59
35.40
36.42
37.37
37.72
37.12
35.72
34.22
33.52
34.21
36.17
38.65
40.56
40.91
39.17
35.32
29.72
23.00
15.88
9.03
2.96
-2.08
-6.23
-9.85
-13.32
-16.85
-20.34
-23.47
-25.91
-27.38
-27.76
-26.94
-24.76
-20.96
-15.39
-8.14
0.33
9.21
17.68
25.11
31.37
36.81
42.11
47.97
54.77
62.39
69.95
75.97
78.54
75.95
67.29
52.91
34.55
14.86
-3.33
-17.92
-28.00
-33.96
-37.10
-39.05
-41.28
-44.89
-50.61
-58.78
-69.41
-82.02
-95.60
-108.74
-119.90
-127.85
-131.84
-131.64
-127.32
-119.03
-107.00
-91.81
-74.64
-57.32
-41.90
-29.93
-21.90
-17.04
-13.92
-11.19
-8.34
-5.84
-4.61
-5.29
-7.70
-10.85
-13.51
-14.89
-15.02
-14.68
-14.84
-16.15
-18.61
-21.69
-24.69
-27.05
-28.56
-29.25
-29.30
-28.75
-27.44
-24.90
-20.51
-13.59
-3.79
8.67
22.78
36.80
48.62
56.28
58.59
55.49
48.05
38.04
27.34
17.30
8.50
0.87
-5.83
-11.66
-16.36
-19.36
-20.08
-18.10
-13.21
-5.29
5.76
20.03
37.48
57.83
80.58
104.98
130.21
155.29
179.04
199.84
215.77
224.96
226.39
220.49
209.31
196.09
184.15
175.55
170.37
166.79
162.02
153.68
140.71
123.51
103.46
82.09
60.58
39.68
19.94
1.93
-13.84
-27.14
-38.15
-47.42
-55.56
-62.88
-69.37
-74.86
-79.34
-83.03
-86.29
-89.27
-91.73
-93.15
-93.00
-91.11
-87.87
-84.04
-80.35
-77.19
-74.43
-71.62
-68.25
-64.03
-58.92
-53.09
-46.81
-40.30
-33.76
-27.29
-20.97
-14.83
-8.93
-3.36
1.73
6.23
10.13
13.54
16.76
20.08
23.71
27.66
31.77
35.76
39.38
42.53
45.33
48.10
51.14
54.61
58.41
62.22
65.57
68.05
69.37
69.18
67.05
62.45
54.98
44.66
32.03
17.98
3.24
-12.03
-28.35
-46.42
-66.53
-88.15
-109.94
-130.28
-147.72
-161.29
-170.48
-174.99
-174.70
-169.87
-161.45
-151.07
-140.79
-132.40
-126.89
-124.18
-123.45
-123.65
-124.03
-124.25
-124.08
-123.05
-120.22
-114.28
-104.08
-89.15
-70.02
-48.06
-25.10
-2.89
17.24
34.63
49.28
61.69
72.64
82.75
92.10
100.03
105.40
107.28
105.72
101.96
98.01
95.64
95.46
96.88
98.75
100.50
102.58
106.05
111.45
117.84
122.66
122.63
115.31
100.16
78.66
53.36
26.72
0.31
-25.22
-49.45
-71.47
-89.79
-102.75
-109.31
-109.75
-105.68
-99.52
-93.64
-89.57
-87.62
-87.09
-86.80
-85.74
-83.51
-80.35
-76.88
-73.69
-70.96
-68.43
-65.68
-62.47
-59.04
-56.21
-55.05
-56.43
-60.70
-67.50
-76.12
-85.86
-96.21
-106.67
-116.37
-123.84
-127.22
-125.02
-116.79
-103.55
-87.48
-71.12
-56.38
-44.03
-33.82
-24.90
-16.51
-8.17
0.27
8.96
18.11
27.99
38.83
50.71
63.57
77.32
91.94
107.36
123.45
139.88
156.11
171.53
185.58
197.93
208.51
217.51
225.29
232.18
238.44
244.24
249.73
255.09
260.34
265.17
268.82
270.11
267.89
261.42
250.84
237.02
221.23
204.55
187.49
170.08
152.23
134.07
116.07
98.63
81.64
64.16
44.76
22.17
-3.96
-32.79
-62.50
-91.03
-116.91
-139.68
-159.84
-178.31
-195.85
-212.60
-228.07
-241.45
-251.94
-258.94
-262.20
-261.70
-257.77
-251.10
-242.92
-234.75
-228.05
-223.50
-220.57
-217.54
-212.14
-202.55
-188.26
-170.27
-150.55
-131.00
-112.49
-94.58
-76.00
-55.72
-33.85
-11.90
7.74
22.84
32.21
36.10
35.84
33.41
30.89
30.36
33.69
42.19
55.83
72.68
89.06
100.84
105.25
102.42
95.42
88.79
86.19
88.65
94.25
99.50
101.38
98.80
92.73
85.19
77.82
71.15
64.70
57.79
50.29
42.88
36.56
32.05
29.22
27.16
24.64
20.71
15.21
8.81
2.64
-2.16
-4.93
-5.71
-5.20
-4.33
-3.94
-4.34
-5.23
-5.86
-5.41
-3.40
0.12
4.60
9.24
13.40
16.91
20.12
23.77
28.60
34.95
42.53
50.35
57.06
61.26
62.06
59.25
53.29
45.04
35.51
25.59
16.04
7.46
0.37
-4.95
-8.50
-10.58
-11.76
-12.55
-13.21
-13.71
-13.86
-13.48
-12.61
-11.52
-10.51
-9.80
-9.52
-9.58
-9.87
-10.38
-11.21
-12.46
-14.14
-16.03
-17.81
-19.21
-20.02
-20.13
-19.59
-18.40
-16.54
-13.84
-10.05
-5.05
0.92
7.50
14.29
20.84
26.86
32.30
37.26
42.15
47.09
51.71
55.81
59.45
62.75
65.91
69.06
72.14
75.47
78.80
81.15
82.28
82.56
82.46
82.42
82.72
83.37
84.93
87.15
88.52
88.56
87.62
86.12
84.40
82.56
80.26
77.78
74.23
66.97
54.83
38.09
17.77
-4.37
-26.18
-52.29
-81.57
-104.44
-121.34
-136.68
-152.86
-170.90
-190.27
-209.01
-224.27
-231.95
-229.54
-217.65
-197.64
-171.87
-143.77
-116.76
-93.12
-73.50
-56.35
-40.02
-24.34
-8.99
6.07
20.18
32.53
42.59
50.28
56.54
62.17
67.19
71.99
76.98
82.16
87.07
90.92
92.55
90.93
84.82
72.90
54.70
30.60
1.75
-30.08
-62.65
-93.44
-119.82
-139.67
-151.70
-155.57
-152.00
-142.70
-130.06
-116.66
-104.89
-96.27
-91.19
-88.76
-87.23
-84.90
-80.82
-75.21
-69.12
-63.57
-58.89
-54.59
-50.00
-45.08
-40.68
-38.03
-37.67
-38.67
-38.62
-34.75
-25.19
-9.94
9.31
30.04
50.05
68.12
84.11
98.52
111.89
124.53
136.40
147.18
156.28
162.84
165.76
163.97
156.77
144.15
126.98
106.83
85.47
64.39
44.42
25.73
8.14
-8.44
-23.70
-36.82
-46.75
-52.66
-54.38
-52.67
-49.07
-45.49
-43.50
-43.86
-46.25
-49.56
-52.53
-54.30
-54.79
-54.52
-54.24
-54.46
-55.27
-56.43
-57.64
-58.72
-59.72
-60.75
-61.80
-62.65
-62.96
-62.47
-61.16
-59.31
-57.39
-55.77
-54.67
-54.07
-53.79
-53.79
-54.18
-55.19
-56.85
-58.78
-59.95
-59.04
-54.86
-46.91
-35.67
-22.35
-8.45
4.87
16.96
27.54
36.25
42.32
44.68
42.56
36.04
26.24
14.97
3.91
-5.96
-14.59
-22.31
-29.35
-35.40
-39.86
-42.35
-43.09
-42.89
-42.54
-42.18
-40.94
-37.20
-29.37
-16.70
0.15
19.20
37.68
53.00
63.48
68.92
70.58
70.79
72.13
76.66
85.24
97.31
111.19
124.65
135.61
142.68
145.25
143.40
137.79
129.51
120.03
111.11
104.34
100.72
100.16
101.47
102.85
102.60
99.88
94.92
88.73
82.54
77.20
72.98
69.65
66.68
63.44
59.35
53.99
47.29
39.79
32.71
27.71
26.34
29.48
36.89
47.27
58.65
69.14
77.50
83.33
86.84
88.53
88.84
88.05
86.48
84.66
83.25
82.80
83.47
84.86
86.26
87.08
87.13
86.79
86.62
87.02
87.95
88.99
89.67
89.83
89.77
90.01
90.99
92.68
94.60
96.01
96.39
95.74
94.67
94.09
94.72
96.66
99.16
100.96
100.75
97.91
92.71
86.27
80.08
75.29
72.43
71.13
70.49
69.39
66.89
62.38
55.61
46.61
35.63
23.01
9.16
-5.53
-20.81
-36.64
-53.24
-70.89
-89.65
-109.11
-128.22
-145.55
-159.67
-169.65
-175.34
-177.35
-176.68
-174.32
-171.01
-167.22
-163.29
-159.63
-156.58
-154.35
-152.81
-151.44
-149.69
-147.14
-143.85
-140.19
-136.74
-133.88
-131.59
-129.52
-127.12
-124.01
-120.13
-115.73
-111.23
-106.97
-103.10
-99.83
-97.18
-94.93
-92.89
-91.00
-89.27
-87.83
-86.67
-85.70
-85.06
-84.76
-84.54
-84.07
-83.14
-81.77
-80.35
-79.34
-79.12
-80.72
-84.52
-90.13
-96.72
-103.69
-110.73
-118.13
-126.10
-134.64
-145.59
-159.51
-175.20
-190.50
-204.01
-215.16
-224.94
-234.21
-243.55
-257.34
-277.46
-301.95
-326.77
-348.94
-366.76
-381.26
-393.18
-402.67
-416.05
-435.57
-457.26
-473.53
-478.47
-468.73
-446.39
-414.49
-376.26
-343.53
-322.93
-312.59
-305.52
-296.19
-281.47
-263.99
-245.94
-174.80
-36.82
138.46
302.68
425.98
494.58
530.17
547.27
554.79
558.80
554.45
539.94
520.31
503.84
495.36
495.53
498.25
498.00
491.65
472.33
439.19
398.42
359.12
327.14
304.41
287.16
271.83
256.42
236.37
210.37
181.11
152.98
128.78
109.67
93.86
79.93
67.16
53.20
36.86
18.62
-0.12
-18.21
-34.49
-48.37
-58.61
-63.77
-63.76
-59.29
-51.57
-42.12
-32.56
-24.01
-17.06
-11.52
-6.70
-2.03
2.78
7.60
12.11
15.95
18.93
21.10
22.70
24.05
25.51
27.25
29.27
31.36
33.22
34.46
34.75
33.87
31.80
28.78
25.27
21.90
19.24
17.66
17.16
17.41
17.76
17.48
15.86
12.46
7.20
0.39
-7.18
-14.45
-20.35
-24.25
-26.26
-27.24
-28.47
-31.02
-35.22
-40.48
-45.51
-48.95
-49.86
-48.11
-44.23
-39.13
-33.70
-28.51
-23.82
-19.60
-15.68
-11.95
-8.33
-4.86
-1.62
1.31
3.83
5.90
7.47
8.48
8.90
8.67
7.83
6.46
4.78
2.99
1.27
-0.25
-1.56
-2.67
-3.65
-4.54
-5.47
-6.50
-7.72
-9.17
-10.83
-12.71
-14.79
-16.96
-19.01
-20.47
-20.68
-18.97
-14.96
-8.76
-1.03
7.21
14.97
21.57
26.77
30.68
33.48
35.30
36.16
36.05
35.08
33.54
31.81
30.19
28.79
27.47
25.94
23.95
21.38
18.37
15.18
12.09
9.28
6.72
4.21
1.51
-1.53
-4.92
-8.40
-11.58
-14.06
-15.55
-15.97
-15.48
-14.42
-13.23
-12.40
-12.32
-13.14
-14.51
-15.59
-15.06
-11.64
-4.55
6.08
19.11
32.78
45.26
55.26
62.27
66.55
68.80
69.76
69.96
69.59
68.59
66.75
63.86
59.82
54.59
48.16
40.44
31.26
20.44
7.96
-5.87
-20.32
-34.35
-46.78
-56.54
-62.86
-65.48
-64.82
-61.97
-58.49
-56.04
-55.82
-58.11
-62.13
-66.33
-68.96
-68.64
-64.69
-57.32
-47.65
-37.21
-27.62
-20.10
-15.10
-12.22
-10.44
-8.48
-5.52
-1.76
1.71
3.43
2.27
-1.90
-8.19
-15.07
-20.71
-23.78
-23.84
-21.30
-16.94
-11.67
-6.15
-0.98
3.32
6.98
10.16
12.56
13.67
13.18
11.16
8.39
5.64
3.64
4.38
9.30
18.49
30.74
44.40
57.54
69.11
78.22
84.49
90.61
99.11
110.65
123.78
136.19
145.36
150.59
151.95
150.29
150.04
154.80
165.16
178.83
192.71
203.72
211.02
213.89
193.51
142.54
69.95
-4.30
-63.17
-95.35
-107.02
-104.69
-94.49
-81.74
-68.47
-55.88
-45.21
-37.16
-30.56
-23.24
-11.78
4.89
25.08
47.43
69.55
88.19
100.51
105.46
103.33
96.07
84.55
68.33
47.70
22.94
-5.81
-38.13
-72.81
-108.15
-141.73
-171.73
-197.00
-216.04
-227.69
-231.62
-228.54
-219.99
-208.21
-195.28
-182.99
-172.41
-163.37
-154.95
-146.14
-136.25
-125.09
-113.01
-100.80
-89.76
-81.29
-76.31
-74.56
-74.24
-72.22
-65.02
-50.04
-26.80
2.73
34.60
64.13
87.41
102.30
108.68
107.90
101.97
92.61
80.79
66.85
50.75
32.62
13.01
-7.10
-26.56
-44.32
-59.58
-71.73
-80.34
-85.12
-86.05
-83.47
-78.08
-70.90
-62.96
-55.15
-47.89
-41.07
-34.06
-25.91
-15.75
-3.20
11.34
26.75
41.37
53.51
62.01
66.46
67.26
65.28
61.50
56.79
51.92
47.59
44.57
43.52
44.80
48.15
52.65
57.05
60.17
61.31
60.29
57.18
51.93
44.23
33.79
20.78
6.20
-8.27
-20.86
-30.46
-37.10
-41.86
-46.26
-51.45
-57.74
-64.46
-70.44
-74.57
-76.31
-75.75
-73.48
-70.16
-66.22
-61.83
-56.97
-51.71
-46.28
-41.00
-36.11
-31.49
-26.76
-21.45
-15.37
-8.84
-2.61
2.47
5.75
7.07
6.72
5.32
3.51
1.81
0.46
-0.62
-1.69
-3.04
-4.81
-6.86
-8.81
-10.26
-11.01
-11.29
-11.68
-12.90
-15.39
-19.10
-23.50
-27.82
-31.39
-33.89
-35.29
-35.70
-35.09
-33.26
-29.93
-24.96
-18.56
-11.09
-2.77
6.46
16.75
27.74
38.05
45.38
47.37
42.88
32.96
20.69
10.05
4.06
3.57
7.27
12.81
18.36
23.60
29.47
37.14
46.75
57.00
65.68
70.95
72.26
70.68
68.22
66.71
66.82
67.88
68.43
67.07
63.27
57.47
50.73
44.13
38.22
33.10
28.68
25.09
22.87
22.68
24.84
29.02
34.21
39.10
42.59
44.17
43.88
42.11
39.22
35.47
31.11
26.56
22.48
19.63
18.55
19.18
20.95
22.87
24.00
23.90
22.75
21.27
20.16
19.66
19.21
17.57
13.38
5.77
-5.13
-18.22
-31.82
-44.36
-54.83
-62.88
-68.55
-71.96
-73.16
-72.16
-69.20
-64.79
-59.65
-54.54
-50.06
-46.51
-43.97
-42.34
-41.58
-41.74
-42.99
-45.34
-48.57
-52.22
-55.55
-57.74
-58.35
-57.76
-57.25
-58.67
-63.46
-72.14
-84.06
-97.63
-110.80
-121.67
-128.88
-131.89
-130.98
-126.71
-120.13
-112.50
-104.82
-97.21
-88.73
-77.85
-63.31
-44.85
-22.26
3.45
30.24
55.64
77.66
95.24
108.01
115.87
118.81
119.44
120.22
122.42
125.92
130.26
135.42
141.68
149.12
157.39
169.59
187.59
210.46
234.51
255.64
271.52
281.94
288.09
291.71
299.31
315.38
339.95
368.69
396.23
419.35
437.58
452.19
434.29
368.74
261.21
136.10
18.47
-78.78
-153.73
-209.28
-249.18
-276.89
-290.78
-290.60
-279.55
-263.72
-248.75
-237.18
-228.75
-222.20
-216.82
-209.07
-197.07
-181.86
-166.75
-154.93
-148.00
-145.19
-144.96
-145.68
-143.51
-135.74
-122.19
-105.22
-88.06
-73.11
-61.30
-52.36
-45.26
-37.55
-27.53
-15.14
-1.93
9.98
18.93
24.14
25.54
23.61
19.04
13.82
9.95
8.45
9.09
10.93
12.93
14.33
14.55
13.96
12.86
11.42
9.70
7.85
6.26
5.41
5.67
7.00
10.19
15.02
20.81
26.76
32.39
37.57
42.55
47.62
52.89
58.19
62.87
66.19
67.64
67.26
65.64
63.77
62.55
62.28
62.54
62.10
59.61
54.07
45.34
34.05
21.34
8.41
-3.89
-15.10
-25.25
-34.50
-43.00
-50.84
-58.04
-64.52
-70.15
-74.76
-78.15
-80.21
-80.85
-80.09
-78.03
-74.80
-70.58
-65.56
-59.90
-53.65
-46.71
-38.95
-30.34
-21.15
-12.06
-4.02
2.08
5.79
7.37
7.71
8.03
9.44
12.41
16.64
21.09
24.27
24.71
21.33
13.89
3.19
-8.94
-20.05
-27.75
-30.55
-28.38
-22.73
-16.09
-11.04
-9.19
-10.63
-14.07
-17.48
-19.09
-18.01
-14.38
-8.88
-2.20
5.39
13.85
22.98
32.03
39.67
44.44
45.57
43.39
39.32
35.26
32.68
32.03
32.58
32.87
31.47
27.59
21.30
13.45
5.25
-2.17
-7.89
-11.39
-12.53
-11.64
-9.62
-7.87
-8.00
-11.34
-18.42
-28.70
-40.80
-53.09
-64.35
-74.00
-81.91
-87.96
-91.68
-92.32
-89.39
-83.22
-75.31
-67.92
-63.37
-63.11
-67.21
-74.49
-83.07
-91.16
-97.73
-102.72
-106.97
-111.80
-118.42
-127.33
-137.95
-148.63
-157.18
-161.80
-162.03
-159.17
-156.03
-155.86
-160.90
-171.44
-185.39
-199.06
-208.46
-210.74
-205.00
-192.38
-175.55
-157.50
-140.46
-124.88
-109.07
-89.42
-61.56
-22.11
29.41
89.49
151.27
206.58
248.91
275.73
289.16
294.63
298.31
304.54
314.66
327.37
340.18
350.94
358.71
363.60
366.10
366.39
364.18
358.83
349.67
336.17
317.92
294.69
266.42
233.23
195.60
154.43
111.03
67.09
24.52
-14.61
-48.55
-76.38
-98.30
-115.54
-129.87
-142.88
-155.30
-166.80
-176.11
-181.82
-183.23
-180.78
-175.87
-170.33
-165.77
-163.08
-162.34
-162.74
-163.23
-163.18
-162.62
-162.00
-161.97
-162.80
-164.41
-166.32
-166.97
-164.87
-159.25
-150.31
-138.82
-125.95
-112.43
-98.91
-85.92
-72.11
-56.17
-37.92
-18.47
0.81
18.60
35.05
50.23
63.70
77.28
92.64
110.30
129.93
151.32
173.78
197.50
221.10
242.02
261.26
280.88
302.14
324.68
347.32
367.70
385.40
399.79
390.62
347.30
275.90
195.95
125.49
79.11
49.18
28.97
14.55
3.99
-1.48
-0.14
6.88
15.40
20.80
19.11
10.61
-2.96
-19.17
-32.97
-40.06
-39.22
-32.37
-22.74
-13.95
-7.06
-2.39
0.03
2.01
5.22
9.98
15.32
20.12
23.45
26.01
28.40
30.68
33.07
35.45
37.05
36.87
34.26
28.99
21.81
13.52
4.73
-3.89
-11.85
-19.05
-25.66
-31.88
-37.89
-43.54
-48.68
-53.29
-57.49
-61.47
-65.36
-69.07
-72.41
-75.17
-77.31
-79.10
-80.99
-83.47
-86.80
-90.93
-95.55
-100.23
-104.73
-109.06
-113.61
-118.86
-125.29
-132.97
-141.56
-150.34
-158.41
-165.07
-169.96
-173.12
-174.87
-175.67
-175.90
-175.86
-175.69
-175.36
-174.67
-173.24
-170.72
-166.81
-161.42
-154.69
-146.82
-138.01
-128.39
-118.08
-107.27
-96.35
-85.87
-76.49
-68.83
-63.46
-60.79
-61.03
-63.91
-68.44
-73.02
-75.63
-74.54
-68.82
-58.66
-45.26
-30.23
-15.03
-0.64
12.49
24.15
34.03
41.65
46.45
48.09
46.61
42.41
36.04
27.90
18.24
7.28
-4.47
-16.12
-26.60
-35.09
-41.54
-46.59
-51.20
-55.75
-59.56
-60.97
-58.18
-50.14
-37.15
-20.57
-2.17
16.55
34.43
50.38
63.03
70.88
72.97
69.58
62.39
53.81
45.90
39.49
34.23
29.37
24.66
20.82
19.00
19.93
23.29
27.86
32.30
36.08
39.79
44.80
52.36
62.93
76.04
90.73
106.08
121.50
136.57
150.66
162.68
171.30
175.39
174.57
169.28
160.56
149.57
137.23
124.12
110.56
96.81
83.07
69.40
55.67
41.63
27.18
12.71
-0.75
-11.51
-17.79
-18.42
-13.54
-4.85
4.97
13.32
18.97
22.86
27.77
37.14
53.38
76.70
104.71
133.06
156.40
169.65
169.01
152.91
122.78
83.22
41.30
4.70
-20.66
-32.70
-33.59
-28.71
-24.33
-25.35
-33.75
-48.89
-68.57
-90.22
-111.64
-131.21
-147.78
-160.57
-169.21
-173.83
-175.62
-176.89
-180.54
-188.91
-202.48
-219.36
-235.55
-246.44
-248.24
-240.16
-224.95
-207.89
-194.56
-188.50
-189.98
-195.98
-201.33
-199.47
-185.88
-159.96
-125.23
-87.35
-51.62
-21.39
2.45
20.91
38.25
57.74
79.75
101.92
121.63
137.94
151.50
163.53
174.89
189.58
209.89
234.66
259.43
279.44
292.09
297.11
296.03
291.65
292.55
305.77
333.29
371.10
412.89
453.48
489.70
520.01
512.01
447.79
335.92
208.02
93.85
6.64
-53.89
-93.86
-120.38
-139.48
-148.62
-147.99
-140.26
-131.21
-125.99
-126.43
-131.42
-138.54
-145.51
-147.14
-140.05
-124.99
-106.93
-91.32
-81.27
-77.19
-77.84
-81.22
-82.90
-79.76
-71.30
-60.10
-49.37
-41.26
-36.54
-35.19
-36.80
-39.52
-41.89
-43.41
-45.15
-48.13
-52.56
-58.07
-64.18
-70.57
-76.53
-81.47
-85.00
-87.82
-90.22
-91.89
-92.30
-91.14
-88.46
-84.53
-79.64
-74.12
-69.28
-65.63
-62.76
-59.59
-54.95
-48.12
-38.96
-28.02
-10.44
13.50
39.45
61.72
76.77
83.62
82.84
76.19
66.58
57.46
50.59
46.61
44.14
40.65
33.61
21.91
6.57
-9.87
-24.66
-38.04
-49.00
-56.80
-60.44
-59.19
-53.26
-44.21
-34.55
-26.92
-23.53
-24.48
-28.82
-34.88
-41.38
-47.74
-53.65
-58.41
-60.83
-60.16
-54.01
-42.85
-28.96
-15.50
-5.09
1.41
5.17
8.53
13.50
21.15
30.67
40.57
49.42
56.37
61.17
63.95
64.77
63.63
60.79
56.55
51.74
47.43
44.43
42.89
42.32
41.80
40.48
38.06
34.62
30.79
27.30
24.61
22.77
21.46
20.26
18.84
16.99
14.40
10.82
6.25
1.30
-2.62
-3.68
-0.41
7.40
18.34
29.76
38.80
43.50
43.35
39.07
31.91
23.07
13.50
4.18
-3.62
-8.45
-9.18
-5.61
1.29
9.65
17.33
22.67
24.84
23.91
20.51
15.40
9.19
2.23
-5.31
-13.24
-21.25
-28.84
-35.41
-40.41
-43.40
-44.18
-42.97
-40.56
-38.36
-38.16
-41.71
-49.95
-62.68
-78.53
-95.22
-110.11
-120.71
-125.02
-122.05
-111.98
-96.18
-76.95
-56.72
-37.04
-17.89
2.09
24.31
48.65
72.55
91.78
101.86
99.91
85.70
61.65
31.59
-0.75
-32.48
-61.27
-83.84
-96.73
-97.60
-86.72
-67.39
-45.09
-25.81
-14.16
-11.99
-16.34
-22.30
-25.67
-24.76
-20.10
-13.23
-5.78
0.88
5.88
11.51
20.09
32.04
45.24
56.73
64.82
69.78
73.47
78.51
90.94
115.67
153.81
202.05
255.40
310.17
364.78
418.98
449.72
438.82
383.62
300.02
209.32
126.28
57.54
4.74
-33.23
-59.07
-73.00
-75.33
-68.30
-56.73
-45.99
-39.83
-39.69
-45.09
-54.21
-63.00
-67.39
-65.76
-59.77
-52.56
-46.54
-42.70
-40.82
-40.18
-39.05
-35.82
-30.41
-24.61
-20.94
-21.46
-27.47
-39.91
-54.64
-68.14
-77.06
-79.44
-75.40
-66.64
-55.46
-43.81
-32.75
-22.42
-12.88
-4.15
3.18
7.99
9.37
7.19
2.33
-3.76
-9.58
-14.50
-18.11
-20.29
-20.97
-20.24
-18.46
-16.33
-14.70
-14.19
-15.25
-17.56
-20.40
-22.92
-24.57
-25.24
-25.12
-24.46
-23.36
-21.90
-20.09
-18.02
-15.95
-14.32
-13.48
-13.55
-14.30
-15.20
-15.69
-15.41
-14.34
-12.85
-11.43
-10.58
-10.54
-11.28
-12.60
-14.20
-15.80
-17.21
-18.33
-19.24
-20.22
-21.69
-24.06
-27.57
-32.16
-37.45
-42.84
-47.69
-51.54
-54.19
-55.76
-56.58
-57.11
-57.79
-58.95
-60.76
-63.22
-66.38
-70.33
-75.35
-81.72
-89.34
-97.69
-105.77
-112.46
-116.82
-118.53
-118.00
-116.19
-114.30
-113.29
-113.72
-115.81
-119.51
-124.43
-129.92
-135.01
-138.62
-139.78
-137.66
-131.92
-122.84
-111.05
-97.19
-81.77
-65.30
-48.43
-32.03
-16.41
-1.78
11.48
22.78
31.50
37.18
39.53
38.48
34.38
29.43
26.03
25.89
29.55
36.89
47.39
60.07
73.45
85.85
98.11
111.81
128.21
147.45
168.91
190.96
211.04
226.13
233.87
236.32
237.39
240.57
247.74
259.76
276.83
298.66
324.08
333.97
313.95
261.77
188.13
106.98
29.31
-37.50
-88.59
-122.25
-140.58
-146.02
-142.67
-135.69
-131.63
-132.52
-138.34
-147.32
-156.71
-163.60
-163.45
-153.25
-133.35
-107.31
-79.80
-55.07
-35.55
-21.69
-13.34
-8.13
-3.46
2.29
9.32
17.26
25.05
31.20
33.85
31.19
23.21
11.47
-1.32
-12.12
-18.37
-19.03
-14.73
-7.33
0.97
8.91
16.16
22.91
29.39
35.59
41.15
45.68
48.97
51.06
52.22
52.77
53.07
53.57
54.88
57.61
62.22
68.62
75.99
82.91
87.68
88.88
85.86
78.87
68.87
57.09
44.40
31.11
17.03
1.80
-14.75
-32.35
-50.28
-67.54
-83.01
-95.70
-104.96
-110.59
-112.90
-112.66
-110.77
-108.06
-105.10
-102.22
-99.54
-97.24
-95.37
-93.73
-91.57
-87.68
-80.73
-70.02
-56.06
-40.53
-25.79
-13.77
-5.22
0.54
5.05
9.79
15.27
20.87
25.26
27.25
26.40
23.04
17.98
11.95
5.31
-1.79
-9.11
-16.11
-21.95
-25.72
-26.80
-25.07
-21.05
-15.81
-10.76
-7.21
-5.96
-6.94
-9.17
-11.23
-11.92
-10.92
-8.95
-7.39
-7.47
-9.72
-13.82
-18.85
-23.85
-28.08
-31.05
-32.29
-31.26
-27.40
-20.56
-11.22
-0.46
10.34
20.07
28.15
34.65
40.01
44.65
48.76
52.17
54.59
55.65
55.15
53.07
49.65
45.31
40.62
36.18
32.53
30.04
28.76
28.46
28.66
28.78
28.36
27.10
24.96
22.01
18.50
14.64
10.68
6.87
3.39
0.35
-2.33
-4.93
-7.83
-11.39
-15.80
-20.83
-25.92
-30.22
-32.85
-33.16
-30.89
-26.24
-19.77
-12.21
-4.29
3.39
10.39
16.43
21.30
24.91
27.18
28.10
27.78
26.47
24.59
22.68
21.28
20.75
21.16
22.23
23.49
24.52
25.12
25.40
25.59
25.86
26.21
26.39
26.13
25.23
23.68
21.58
19.12
16.50
13.90
11.48
9.28
7.28
5.30
3.10
0.56
-2.32
-5.45
-8.71
-12.07
-15.49
-18.76
-21.49
-23.15
-23.42
-22.39
-20.56
-18.59
-16.95
-15.70
-14.58
-13.40
-12.36
-12.14
-13.60
-17.47
-24.11
-33.55
-45.64
-60.18
-76.83
-94.96
-113.54
-131.13
-146.17
-157.38
-164.10
-166.40
-165.14
-161.78
-158.12
-155.96
-156.58
-160.29
-166.14
-172.23
-176.49
-177.47
-174.83
-169.11
-160.93
-150.22
-135.95
-116.78
-92.16
-63.34
-33.47
-6.68
13.48
25.55
30.66
32.03
33.68
38.88
49.19
64.19
81.99
100.17
116.66
130.57
141.87
150.85
157.74
162.66
165.89
168.15
170.69
174.92
181.98
191.76
202.79
212.66
219.26
221.67
220.46
217.06
212.81
208.67
204.24
198.12
188.84
176.18
161.62
147.67
136.76
130.12
128.94
132.34
137.45
140.49
138.54
130.61
117.37
100.36
81.36
65.29
55.64
52.98
55.13
59.43
64.40
69.57
74.83
80.05
90.28
108.52
133.57
160.31
183.45
200.30
210.71
216.01
218.12
225.81
244.90
275.30
310.98
345.02
373.38
395.09
411.17
380.31
284.37
138.64
-16.20
-146.20
-240.19
-303.61
-347.42
-381.22
-410.82
-430.19
-435.81
-426.34
-404.11
-372.27
-332.98
-288.66
-243.20
-201.56
-162.53
-127.43
-98.90
-80.60
-74.40
-79.00
-90.96
-106.04
-120.26
-127.41
-124.42
-112.49
-96.97
-83.88
-76.76
-75.91
-79.16
-83.56
-85.19
-82.27
-75.21
-66.15
-56.96
-48.08
-38.69
-27.62
-14.23
1.76
19.51
37.52
53.94
67.26
76.65
81.87
82.94
80.08
73.68
64.35
53.03
40.75
28.36
16.38
4.90
-6.21
-17.06
-27.57
-37.43
-46.26
-53.93
-60.66
-66.98
-73.32
-79.63
-85.24
-89.10
-90.14
-87.88
-82.50
-74.78
-65.67
-55.94
-46.06
-36.31
-26.95
-18.34
-10.84
-4.62
0.48
4.82
8.86
12.92
17.07
21.19
25.02
28.30
30.82
32.42
33.09
32.98
32.24
30.90
28.62
24.68
18.20
8.60
-4.00
-18.74
-34.25
-49.15
-62.52
-74.02
-83.71
-91.88
-98.88
-105.17
-111.31
-117.95
-125.43
-133.51
-141.24
-147.13
-149.64
-147.79
-141.36
-130.93
-117.61
-102.62
-87.12
-72.06
-58.01
-45.13
-33.12
-21.27
-8.86
4.52
18.60
32.44
44.76
54.43
60.90
64.41
65.84
66.37
67.05
68.53
70.94
73.95
77.00
79.49
81.06
81.68
81.63
81.34
81.26
81.62
82.39
83.16
83.10
81.11
76.05
67.22
54.76
39.82
24.31
10.35
-0.44
-7.31
-10.42
-10.44
-8.20
-4.47
0.08
4.71
8.62
11.17
12.19
12.18
12.07
12.90
15.25
19.07
23.75
28.50
32.70
36.16
38.94
41.24
43.10
44.46
45.09
44.83
43.58
41.30
37.88
33.09
26.67
18.45
8.49
-2.87
-15.07
-27.45
-39.37
-50.35
-60.17
-68.87
-76.68
-83.96
-90.94
-97.51
-103.20
-107.10
-108.18
-105.53
-98.73
-88.08
-74.55
-59.56
-44.63
-30.87
-18.85
-8.56
0.21
7.43
12.47
14.22
11.63
4.49
-6.11
-17.73
-27.29
-32.03
-30.45
-22.71
-10.37
4.24
18.82
31.73
42.35
51.02
58.82
67.05
76.62
87.60
99.02
109.28
116.74
120.41
120.35
117.50
113.20
108.65
104.57
101.00
97.34
92.51
85.11
73.97
58.55
39.47
18.36
-2.47
-21.00
-36.15
-48.03
-57.46
-65.41
-72.56
-79.13
-85.13
-90.34
-94.53
-97.44
-98.74
-98.10
-95.31
-90.42
-83.77
-76.00
-67.76
-59.98
-53.91
-50.98
-52.30
-58.12
-67.55
-78.73
-89.47
-97.51
-101.94
-103.70
-105.22
-109.17
-117.02
-128.20
-140.11
-149.07
-150.31
-140.50
-119.13
-88.57
-52.94
-16.62
16.54
43.63
62.56
74.20
80.38
82.88
83.22
83.19
85.13
91.21
102.51
118.25
138.87
163.93
191.64
219.34
244.90
267.68
288.22
307.51
312.80
296.00
258.14
209.54
161.50
120.02
86.13
58.75
38.73
23.11
12.45
7.68
8.38
12.35
16.94
20.33
21.69
21.15
18.90
17.33
18.22
21.56
25.50
27.75
26.91
22.97
16.91
9.77
3.86
0.66
0.36
1.99
4.50
7.54
11.40
16.47
22.56
29.64
37.18
44.22
49.86
53.81
56.57
59.08
62.17
65.91
70.05
73.84
76.36
76.91
75.30
71.87
67.28
62.25
57.32
52.87
49.08
45.99
43.58
41.80
40.66
40.18
40.39
41.28
42.72
44.54
46.54
48.58
50.64
52.78
55.12
57.64
60.09
61.97
62.58
61.17
57.09
49.98
39.81
26.84
11.63
-5.12
-22.61
-40.02
-56.63
-71.91
-85.63
-97.81
-108.68
-118.43
-127.04
-134.18
-139.30
-141.81
-141.42
-138.26
-133.00
-126.59
-120.13
-114.49
-110.17
-107.20
-105.23
-103.62
-101.57
-98.30
-93.28
-86.39
-78.11
-69.36
-61.27
-54.78
-50.32
-47.74
-46.46
-45.78
-45.22
-44.56
-43.78
-42.81
-41.48
-39.58
-36.91
-33.46
-29.27
-24.31
-18.36
-11.14
-2.55
7.00
16.43
24.13
28.40
27.91
22.06
11.07
-4.12
-22.12
-41.43
-60.61
-78.41
-93.81
-106.02
-114.50
-119.04
-119.84
-117.55
-113.20
-107.96
-102.86
-98.58
-95.35
-93.10
-91.58
-90.47
-89.30
-87.55
-84.68
-80.54
-75.51
-70.62
-67.22
-66.48
-68.94
-74.48
-82.49
-92.31
-103.55
-115.99
-129.45
-143.46
-157.38
-170.57
-182.62
-193.48
-203.10
-211.20
-217.24
-220.72
-221.93
-222.30
-224.28
-230.37
-241.90
-258.20
-276.55
-293.14
-304.36
-307.96
-303.31
-291.12
-272.59
-249.07
-221.94
-192.74
-163.32
-135.57
-111.02
-90.52
-74.16
-61.58
-52.29
-45.61
-40.20
-33.96
-24.54
-10.29
9.08
32.38
57.41
82.05
104.79
125.81
146.47
168.22
191.71
216.61
241.84
265.68
285.88
299.44
304.26
299.77
287.18
268.90
248.26
228.56
212.06
199.56
190.11
183.17
179.06
178.70
182.42
190.07
201.00
214.13
231.48
249.27
261.18
263.64
258.44
249.33
239.33
229.12
217.14
200.95
178.41
150.92
121.02
92.40
67.36
46.63
29.63
15.04
1.66
-11.74
-25.59
-40.43
-53.89
-66.22
-78.14
-89.79
-100.42
-108.63
-113.41
-114.12
-111.13
-105.77
-100.81
-98.98
-102.29
-111.51
-126.20
-145.05
-166.02
-186.89
-205.67
-221.29
-233.06
-240.47
-243.27
-241.49
-235.70
-226.88
-216.27
-205.09
-194.44
-184.82
-176.07
-167.58
-158.53
-148.09
-135.47
-120.19
-102.22
-82.24
-61.39
-40.78
-20.89
-1.23
19.40
42.05
66.81
92.47
116.88
137.91
154.29
165.81
172.99
176.41
176.50
173.78
169.27
164.63
161.80
162.18
165.99
172.15
178.70
183.61
185.44
183.68
178.68
171.42
163.24
155.62
149.81
146.66
146.20
147.64
149.54
150.32
148.91
145.12
139.60
133.51
127.99
123.74
120.96
119.53
119.23
120.00
121.83
124.56
127.75
130.59
132.09
131.56
128.97
125.21
121.77
119.97
120.07
120.67
119.06
112.21
98.30
77.71
53.06
28.24
6.92
-8.65
-18.02
-22.01
-21.85
-18.39
-12.18
-3.81
5.71
14.96
22.64
28.00
31.22
33.28
35.64
39.54
45.35
52.56
60.00
66.29
70.35
71.63
70.12
66.51
61.56
55.67
48.76
40.51
30.67
19.17
6.29
-7.37
-20.16
-30.60
-38.27
-44.01
-49.37
-56.06
-65.66
-79.28
-97.20
-117.06
-136.11
-152.91
-167.64
-181.11
-193.82
-205.77
-216.60
-225.86
-230.52
-228.55
-220.65
-209.63
-197.63
-184.45
-167.89
-145.23
-114.61
-72.39
-17.56
46.43
113.01
176.15
232.66
281.97
324.65
339.01
312.29
251.17
177.80
111.67
60.16
21.19
-11.26
-43.34
-78.40
-112.21
-138.12
-151.95
-154.43
-149.88
-143.52
-139.08
-138.15
-140.19
-140.96
-137.38
-130.68
-124.05
-120.54
-120.79
-122.71
-124.29
-124.96
-123.62
-119.76
-113.49
-105.34
-95.77
-84.93
-72.17
-58.48
-46.01
-35.82
-27.47
-19.30
-9.24
4.89
23.25
47.66
77.67
110.44
142.51
171.26
195.84
216.33
233.22
247.46
262.31
278.65
294.54
306.06
308.70
298.55
272.28
228.36
157.86
69.45
-15.88
-77.86
-108.93
-116.72
-112.12
-102.77
-93.45
-87.21
-83.28
-83.75
-92.16
-110.72
-137.86
-168.09
-195.04
-214.25
-224.11
-224.01
-216.13
-203.94
-190.45
-176.82
-162.48
-146.77
-129.85
-112.43
-94.50
-76.90
-60.86
-47.29
-36.05
-25.85
-15.41
-4.15
7.74
19.97
31.53
41.14
47.82
51.34
52.30
51.65
50.25
48.77
47.79
47.44
47.45
47.43
47.08
46.32
45.27
44.13
43.16
42.69
42.99
44.16
45.97
47.83
48.92
48.43
45.85
41.07
34.51
26.81
18.62
10.35
2.09
-6.27
-14.82
-23.45
-31.81
-39.45
-46.07
-51.69
-56.59
-61.06
-65.06
-68.10
-69.30
-67.74
-62.90
-54.82
-44.22
-32.19
-19.99
-8.68
1.04
8.81
14.62
18.59
20.90
21.63
20.83
18.64
15.40
11.64
7.92
4.66
1.90
-0.55
-2.96
-5.41
-7.70
-9.55
-10.85
-11.80
-12.94
-14.84
-17.84
-21.97
-26.74
-31.65
-36.45
-41.22
-46.16
-51.46
-57.23
-63.61
-70.70
-78.42
-86.54
-94.70
-102.34
-108.86
-113.70
-116.55
-117.48
-116.80
-114.41
-110.02
-103.32
-94.04
-82.00
-67.20
-49.88
-30.52
-9.68
13.51
39.71
68.40
97.60
124.49
146.39
161.55
169.50
171.23
171.29
173.96
180.93
190.89
200.90
208.28
211.42
209.99
204.76
201.33
204.43
215.18
230.79
246.93
260.22
269.02
273.08
273.02
275.24
284.92
303.02
326.57
351.64
376.28
400.66
425.65
418.28
359.27
253.16
127.04
10.36
-81.09
-145.07
-186.58
-213.13
-231.82
-242.58
-242.48
-233.46
-219.69
-205.63
-193.82
-184.81
-178.23
-173.50
-166.01
-152.31
-132.73
-110.91
-91.92
-79.25
-74.14
-76.06
-83.32
-91.00
-94.60
-92.25
-84.63
-74.51
-64.44
-56.39
-52.12
-53.30
-59.85
-70.91
-86.04
-104.77
-127.12
-151.70
-175.87
-196.62
-211.47
-218.47
-216.74
-207.73
-193.80
-178.25
-162.47
-145.87
-127.22
-105.93
-82.87
-59.89
-40.69
-20.88
-0.83
17.40
33.07
47.63
62.57
75.16
84.06
86.28
80.05
65.06
43.86
21.60
2.84
-10.13
-17.87
-18.53
-13.79
-7.15
-2.78
-1.96
-2.92
-2.93
-0.03
4.33
10.21
16.19
21.10
23.83
24.15
22.60
20.20
18.55
19.03
23.83
34.14
50.61
72.54
96.37
115.58
124.57
122.26
111.24
95.14
75.59
52.84
26.79
-1.74
-30.41
-55.75
-74.37
-84.74
-87.15
-83.62
-76.56
-68.40
-60.86
-54.87
-51.23
-48.91
-47.33
-45.58
-42.56
-37.13
-28.90
-18.79
-8.62
-0.10
6.01
9.52
10.73
9.54
5.58
-1.54
-11.27
-21.27
-27.54
-25.71
-14.02
5.95
28.56
46.44
52.87
44.82
24.34
-2.17
-26.44
-42.22
-47.35
-43.89
-34.88
-23.08
-9.88
4.32
18.83
32.22
42.69
49.40
53.40
59.05
70.57
89.56
114.22
140.98
167.60
195.16
227.23
256.11
273.45
271.37
245.95
199.41
139.47
77.43
24.91
-10.65
-28.01
-29.59
-20.25
-5.87
10.15
25.39
38.38
49.18
59.14
70.01
83.60
99.20
113.09
120.22
116.32
99.33
71.56
38.42
5.69
-22.25
-44.17
-61.04
-74.13
-83.73
-88.82
-87.97
-81.22
-70.47
-58.41
-47.75
-39.99
-35.17
-32.40
-30.72
-29.57
-29.29
-30.77
-34.71
-41.08
-48.80
-55.95
-60.38
-60.54
-55.83
-47.14
-36.49
-26.49
-19.33
-15.97
-15.82
-17.02
-17.27
-14.64
-8.37
0.94
11.74
22.23
30.97
37.40
41.68
44.40
46.09
47.06
47.34
46.69
44.88
41.75
37.50
32.62
27.86
23.89
21.26
20.07
19.94
19.95
18.93
15.73
9.49
-0.16
-13.14
-28.74
-45.82
-63.20
-80.19
-96.75
-113.42
-131.01
-150.25
-171.98
-196.14
-221.84
-247.71
-272.47
-295.05
-314.62
-330.55
-342.66
-352.24
-360.33
-367.42
-373.75
-379.55
-384.58
-387.58
-386.07
-376.99
-359.43
-333.00
-298.12
-256.62
-211.72
-166.69
-123.49
-82.43
-42.92
-6.57
25.71
54.11
79.49
102.65
124.40
145.74
167.50
203.11
252.49
304.99
347.94
374.84
384.96
379.56
360.21
329.20
290.47
247.49
205.76
171.09
146.65
131.23
120.41
109.53
96.10
79.14
59.78
40.68
25.07
15.07
10.59
9.82
10.31
9.83
6.72
-1.35
-14.88
-32.13
-49.90
-64.70
-73.78
-75.83
-71.51
-60.47
-46.20
-32.08
-19.85
-9.35
0.66
11.68
24.60
39.08
53.40
64.44
70.38
70.47
64.49
52.42
35.04
14.57
-5.55
-21.79
-32.18
-35.11
-31.12
-23.44
-17.06
-16.13
-21.69
-31.40
-41.02
-46.45
-42.65
-26.13
3.81
45.24
95.28
151.59
212.31
275.08
322.74
339.54
320.79
276.81
223.76
173.29
129.85
93.08
60.71
31.03
5.65
-12.73
-22.80
-25.87
-24.78
-22.20
-18.90
-16.87
-17.58
-20.42
-24.12
-27.85
-31.74
-36.13
-40.77
-44.61
-46.82
-46.91
-44.05
-37.80
-28.41
-16.83
-3.63
10.75
26.18
42.23
57.96
72.37
84.34
92.98
97.75
98.72
96.46
91.79
85.20
76.93
67.35
56.93
46.35
36.16
26.66
17.66
8.58
-1.42
-13.01
-26.32
-40.73
-54.93
-67.27
-76.29
-81.18
-82.12
-80.15
-76.86
-73.83
-72.12
-72.09
-73.59
-76.30
-80.18
-85.61
-93.21
-103.33
-115.63
-128.72
-140.29
-147.60
-148.27
-141.02
-126.07
-105.00
-80.34
-54.86
-31.14
-11.14
3.81
13.04
16.55
14.95
9.31
0.97
-8.72
-18.70
-28.29
-37.27
-45.73
-53.95
-62.23
-70.70
-79.34
-87.97
-96.44
-104.63
-112.49
-119.86
-126.20
-130.61
-132.04
-129.61
-122.98
-112.43
-98.63
-82.49
-64.98
-47.16
-30.15
-14.94
-2.07
8.71
18.27
27.73
37.82
48.51
59.09
68.70
76.93
84.09
90.99
98.45
106.82
115.92
125.33
134.72
143.97
153.06
161.59
168.79
173.49
174.64
171.67
164.66
154.22
141.20
126.32
110.05
92.62
74.21
55.12
35.74
16.54
-1.95
-19.24
-34.78
-48.02
-58.46
-65.84
-70.21
-71.98
-71.90
-70.90
-69.90
-69.75
-71.07
-74.14
-78.71
-83.83
-87.96
-89.37
-86.76
-79.92
-69.82
-58.18
-46.62
-35.85
-25.53
-14.77
-2.99
9.33
20.66
29.09
33.35
33.40
30.35
25.91
21.76
19.37
20.00
24.63
33.50
45.40
57.26
64.74
63.84
52.99
34.25
12.97
-4.38
-12.90
-11.24
-1.61
11.78
25.04
36.22
45.41
53.74
62.00
69.98
76.66
81.12
83.39
84.47
85.68
87.71
90.03
91.05
88.93
82.51
71.94
58.73
45.20
33.59
25.39
20.87
19.23
19.01
18.69
17.23
14.22
9.86
4.67
-0.82
-6.29
-11.62
-16.86
-22.01
-27.06
-31.90
-36.49
-40.77
-44.63
-47.78
-49.77
-50.04
-48.17
-44.07
-38.03
-30.67
-22.69
-14.67
-6.99
0.18
6.71
12.48
17.31
21.08
23.77
25.43
26.11
25.71
24.03
20.94
16.58
11.40
6.05
1.05
-3.48
-7.79
-12.33
-17.27
-22.37
-26.97
-30.47
-32.63
-33.84
-34.87
-36.46
-38.97
-42.24
-45.79
-49.10
-51.94
-54.44
-56.91
-59.66
-62.74
-65.86
-68.48
-69.96
-69.80
-67.79
-64.14
-59.30
-53.85
-48.23
-42.60
-36.85
-30.75
-24.13
-17.09
-10.05
-3.65
1.38
4.37
4.87
2.70
-1.93
-8.44
-15.98
-23.50
-29.95
-34.44
-36.34
-35.37
-31.76
-26.19
-19.69
-13.44
-8.48
-5.44
-4.47
-5.29
-7.41
-10.34
-13.77
-17.57
-21.78
-26.53
-31.93
-38.03
-44.79
-52.03
-59.46
-66.65
-73.15
-78.57
-82.73
-85.90
-88.77
-92.29
-97.25
-103.89
-111.47
-118.35
-122.50
-122.18
-116.63
-106.25
-92.37
-76.68
-60.62
-45.08
-30.31
-16.18
-2.36
11.40
25.21
38.94
52.35
65.20
77.48
89.51
101.69
114.32
127.13
139.24
149.46
156.78
160.84
162.00
160.86
157.77
152.47
144.25
132.48
117.22
99.52
81.25
64.54
51.08
41.66
36.04
33.09
31.22
28.84
24.81
18.79
11.26
3.33
-3.75
-9.04
-12.18
-13.47
-13.66
-13.54
-13.82
-14.98
-17.18
-20.27
-23.79
-27.33
-30.76
-34.45
-38.88
-44.31
-50.42
-56.31
-60.77
-62.90
-62.58
-60.45
-57.46
-53.93
-49.45
-43.46
-35.84
-27.42
-19.63
-13.95
-11.17
-10.90
-10.84
-8.36
-2.03
7.55
18.17
27.36
33.47
36.13
36.16
36.65
40.47
48.32
58.10
66.37
70.61
70.33
66.89
62.61
62.35
70.06
86.32
107.76
129.13
146.08
156.12
158.10
151.92
142.28
136.00
139.69
157.47
190.83
238.75
296.85
357.07
388.18
364.86
283.42
167.46
50.36
-44.79
-110.85
-151.73
-175.68
-190.06
-195.58
-189.90
-172.14
-145.64
-116.71
-91.46
-73.59
-63.99
-60.94
-58.28
-49.98
-33.70
-12.14
8.85
23.91
30.39
28.88
22.43
16.61
16.16
22.31
32.71
43.24
50.62
53.50
52.10
47.16
39.80
33.11
28.50
26.31
26.43
28.70
32.96
38.67
44.76
50.13
53.82
54.64
51.89
45.56
36.53
26.36
16.80
9.10
3.68
0.15
-2.52
-5.06
-7.55
-9.43
-9.84
-8.15
-4.26
1.40
8.02
14.61
20.36
24.67
27.02
26.87
23.78
17.50
8.25
-3.18
-15.69
-28.00
-38.97
-47.77
-53.96
-57.40
-58.13
-56.37
-52.49
-47.03
-40.64
-33.91
-27.24
-20.80
-14.50
-8.19
-1.71
5.05
12.09
19.41
26.94
34.50
41.72
48.05
52.82
55.47
55.66
53.33
48.72
42.13
33.97
24.65
14.73
4.95
-3.92
-11.19
-16.63
-20.50
-23.58
-26.87
-31.29
-37.41
-45.29
-54.53
-64.44
-74.35
-83.75
-92.39
-100.13
-106.83
-112.22
-115.95
-117.77
-117.78
-116.42
-114.35
-112.20
-110.26
-108.52
-106.69
-104.59
-102.17
-99.55
-96.89
-94.20
-91.36
-88.16
-84.46
-80.27
-75.75
-71.19
-66.88
-63.12
-60.13
-58.07
-56.98
-56.76
-57.22
-58.07
-59.08
-60.01
-60.71
-61.13
-61.30
-61.37
-61.58
-62.28
-63.76
-66.33
-69.90
-73.91
-77.57
-80.20
-81.43
-81.24
-79.78
-77.26
-73.95
-69.94
-65.22
-59.88
-54.24
-48.80
-43.98
-39.95
-36.63
-34.14
-32.28
-30.53
-28.35
-25.61
-22.64
-20.08
-18.69
-19.07
-22.64
-29.67
-39.06
-49.15
-58.87
-68.12
-77.46
-87.63
-99.24
-114.87
-135.11
-157.96
-180.34
-200.13
-216.87
-231.29
-244.53
-257.69
-275.32
-298.74
-324.89
-348.10
-363.29
-367.24
-358.55
-337.26
-305.04
-269.99
-237.63
-208.73
-181.09
-152.98
-124.53
-97.07
-72.15
-19.82
64.55
161.47
244.01
298.58
326.65
335.91
333.75
325.53
315.27
299.69
278.05
254.09
233.84
221.96
220.91
229.04
244.79
266.58
288.24
305.06
314.97
317.59
312.60
299.94
280.73
257.92
235.72
214.76
195.15
177.28
161.82
148.89
137.84
127.67
117.79
109.58
102.74
96.55
90.32
83.87
77.16
70.03
62.24
53.96
48.47
47.78
52.01
59.99
70.61
83.25
97.28
111.68
125.21
140.31
158.24
177.75
196.12
211.53
224.07
234.91
244.75
232.23
186.99
114.05
29.38
-52.62
-124.07
-181.14
-221.76
-245.47
-255.69
-251.51
-233.67
-206.75
-177.87
-153.45
-137.48
-131.62
-135.79
-147.30
-158.33
-161.39
-152.17
-130.26
-98.02
-59.56
-19.99
13.22
32.20
36.13
30.07
20.27
10.02
-0.28
-11.01
-21.88
-30.23
-34.61
-32.55
-23.61
-10.21
3.77
15.29
23.57
30.14
34.82
39.27
45.96
55.97
68.28
80.30
89.12
92.47
89.15
79.15
64.01
46.26
28.35
12.05
-1.48
-11.40
-17.18
-18.75
-16.89
-12.76
-7.98
-4.28
-3.06
-4.81
-8.97
-14.24
-19.27
-23.23
-25.91
-27.79
-29.72
-32.58
-36.88
-42.64
-49.43
-56.47
-62.79
-67.15
-68.34
-65.43
-58.13
-47.00
-33.44
-19.30
-6.36
4.04
11.25
15.23
16.32
15.11
12.33
8.73
4.97
1.52
-1.54
-4.37
-7.22
-10.24
-13.40
-16.46
-19.16
-21.42
-23.40
-25.53
-28.25
-31.74
-35.80
-39.67
-42.31
-42.64
-39.92
-33.92
-24.95
-13.67
-0.97
12.22
24.96
36.31
45.46
51.82
55.13
55.57
53.56
49.74
44.72
39.13
33.63
28.84
25.40
23.73
23.93
25.72
28.46
31.31
33.56
34.81
35.10
34.86
34.57
34.49
34.38
33.54
31.09
26.37
19.36
10.74
1.75
-6.25
-12.25
-15.81
-17.15
-16.86
-15.71
-14.32
-13.10
-12.15
-11.34
-10.38
-8.90
-6.64
-3.54
0.16
3.99
7.46
10.14
11.89
12.82
13.25
13.50
13.73
13.81
13.40
11.97
9.17
5.01
0.05
-4.68
-8.06
-9.32
-8.43
-6.08
-3.35
-1.21
-0.16
-0.14
-0.80
-1.85
-3.24
-5.09
-7.50
-10.34
-13.26
-15.79
-17.56
-18.36
-18.14
-16.85
-14.36
-10.37
-4.51
3.48
13.59
25.47
38.43
51.58
63.98
74.80
83.49
89.76
93.66
95.47
95.64
94.64
92.99
91.36
90.66
92.08
96.97
106.43
120.81
139.23
159.43
178.21
192.21
198.93
197.54
188.99
175.69
160.56
146.34
135.00
127.53
123.77
122.25
120.10
113.48
98.56
72.96
37.07
-5.73
-49.89
-89.67
-121.00
-142.43
-155.04
-161.15
-163.03
-162.07
-158.77
-153.39
-146.56
-139.65
-134.48
-132.69
-135.01
-140.86
-148.48
-155.69
-160.83
-163.33
-163.65
-162.67
-160.94
-158.23
-153.71
-146.63
-136.94
-125.59
-114.05
-103.65
-94.95
-87.49
-80.20
-72.11
-63.00
-53.64
-45.63
-40.72
-40.23
-44.43
-52.52
-62.83
-73.40
-82.46
-88.77
-91.63
-90.90
-86.90
-80.32
-72.23
-63.83
-56.23
-50.11
-45.55
-42.08
-38.83
-34.92
-29.78
-23.33
-16.06
-8.77
-2.22
3.18
7.54
11.44
15.47
19.92
24.45
28.26
30.34
30.06
27.43
23.15
18.31
13.96
10.77
8.88
8.03
7.83
8.08
8.85
10.47
13.28
17.33
22.26
27.33
31.71
34.81
36.48
37.10
37.28
37.61
38.34
39.33
40.21
40.68
40.74
40.69
40.97
41.80
43.06
44.18
44.51
43.51
41.09
37.61
33.66
29.83
26.52
23.76
21.39
19.09
16.68
14.05
11.29
8.61
6.29
4.59
3.84
4.41
6.72
11.05
17.37
25.23
33.77
41.97
48.90
54.04
57.34
59.16
60.05
60.53
60.94
61.31
61.22
59.84
56.09
48.99
38.12
23.97
7.88
-8.27
-22.73
-34.45
-43.26
-49.71
-54.58
-58.49
-61.74
-64.37
-66.42
-68.14
-69.91
-72.09
-74.87
-78.09
-81.41
-84.45
-86.88
-88.50
-89.15
-88.55
-86.26
-81.76
-74.65
-64.94
-53.06
-39.91
-26.55
-13.92
-2.59
7.27
15.75
22.93
28.83
33.40
36.57
38.41
39.16
39.18
38.81
38.32
37.87
37.55
37.45
37.65
38.24
39.20
40.31
41.19
41.28
40.10
37.36
33.13
27.83
22.08
16.48
11.38
6.83
2.59
-1.66
-6.16
-10.92
-15.69
-19.91
-22.95
-24.34
-23.86
-21.60
-17.80
-12.82
-7.12
-1.17
4.66
10.12
14.93
18.69
20.93
21.18
19.02
14.23
6.79
-2.74
-13.65
-25.35
-37.45
-49.54
-61.03
-71.25
-79.77
-86.53
-91.10
-93.23
-93.16
-91.61
-89.43
-87.33
-85.77
-85.00
-84.66
-82.06
-74.11
-59.16
-38.18
-14.21
9.02
28.41
42.21
50.43
57.12
66.58
80.67
97.60
113.62
125.54
132.10
134.19
134.36
139.32
155.14
184.27
224.42
270.72
318.47
364.28
405.91
420.78
393.24
324.52
234.22
145.55
71.99
15.95
-26.33
-60.24
-90.02
-114.33
-130.22
-136.29
-134.46
-128.65
-122.60
-118.59
-117.59
-119.48
-120.92
-118.69
-111.79
-102.00
-92.53
-85.55
-81.46
-79.48
-78.42
-75.82
-70.03
-61.11
-50.38
-39.18
-27.83
-15.44
-1.32
13.90
28.92
41.73
49.40
51.26
50.22
48.68
48.65
50.74
54.10
57.57
60.43
62.88
66.03
71.04
78.46
88.28
99.90
112.49
125.44
138.27
150.27
160.29
166.33
166.00
157.67
141.10
117.64
89.78
60.24
31.15
3.80
-21.41
-44.54
-65.51
-83.98
-99.51
-111.87
-121.13
-127.67
-131.94
-134.31
-135.11
-134.55
-132.94
-130.60
-127.86
-124.89
-121.67
-118.05
-114.07
-110.01
-106.46
-104.08
-103.34
-104.30
-106.45
-108.92
-110.76
-111.37
-110.64
-108.98
-107.03
-105.38
-104.28
-103.65
-103.24
-102.79
-102.21
-101.52
-100.77
-100.01
-99.25
-98.56
-97.93
-97.10
-95.35
-91.51
-84.23
-72.54
-56.34
-36.68
-15.61
4.35
20.80
32.11
37.68
37.93
34.06
27.65
20.33
13.59
8.63
6.27
6.73
9.46
13.13
16.00
16.56
14.13
9.19
3.20
-1.98
-4.64
-3.64
1.53
10.77
23.28
37.67
52.06
64.58
74.02
80.26
84.32
87.84
92.26
98.30
105.83
114.13
122.34
129.70
135.61
139.54
140.97
139.52
135.04
127.73
118.09
106.75
94.26
80.93
66.85
52.09
36.90
22.00
8.52
-2.24
-9.23
-11.98
-10.82
-6.78
-1.20
4.52
9.13
11.50
10.68
6.08
-2.21
-13.31
-25.67
-37.62
-47.86
-55.82
-61.37
-64.43
-64.56
-61.02
-53.31
-41.72
-27.66
-13.25
-0.60
8.92
15.07
18.49
20.14
20.92
21.48
22.26
23.68
26.00
29.06
32.01
33.17
30.46
22.04
7.15
-13.41
-37.25
-61.04
-81.39
-95.86
-103.59
-105.28
-102.87
-98.78
-95.44
-95.07
-99.48
-109.88
-126.02
-145.44
-163.29
-173.08
-168.53
-145.67
-104.43
-49.26
11.75
68.78
112.68
136.94
139.09
121.13
89.01
51.19
16.49
-8.18
-18.96
-15.24
0.82
25.44
54.21
82.39
105.51
119.30
120.00
105.96
78.45
41.04
-1.27
-43.09
-79.63
-106.49
-120.52
-121.24
-109.89
-89.20
-63.85
-39.11
-19.13
-5.43
4.46
14.70
27.71
44.97
67.10
93.32
122.25
152.31
181.13
206.25
223.75
227.64
215.63
192.00
165.91
148.21
146.83
154.54
159.70
161.71
155.46
133.07
95.68
49.48
1.85
-41.88
-79.74
-110.88
-135.27
-154.61
-168.59
-175.17
-173.62
-165.55
-154.53
-144.66
-137.89
-134.22
-133.73
-134.52
-133.88
-130.72
-125.71
-120.17
-114.73
-107.97
-97.65
-83.31
-64.64
-42.09
-17.48
6.85
29.31
49.76
69.59
90.72
110.15
124.42
131.43
131.84
127.80
120.74
110.74
97.53
84.36
70.90
58.56
49.52
45.19
45.44
48.80
53.46
56.76
57.34
54.41
49.02
42.91
37.65
33.98
31.82
30.58
29.55
28.31
26.39
24.25
22.66
22.17
22.94
24.69
27.11
29.91
33.05
36.19
39.28
42.12
44.35
45.52
45.40
44.14
42.29
40.49
39.06
38.06
37.25
36.38
35.51
35.18
36.37
40.07
46.90
56.80
69.06
82.58
96.06
108.21
117.83
123.85
125.35
121.82
113.38
100.93
86.14
71.06
57.70
47.47
40.97
37.95
37.67
39.29
42.31
46.58
52.26
59.36
67.58
76.13
84.01
90.24
94.19
95.53
94.12
89.86
82.57
72.19
59.01
43.80
27.69
11.83
-3.06
-16.86
-30.14
-43.84
-58.90
-75.85
-94.46
-113.78
-132.37
-148.69
-161.64
-170.81
-176.52
-179.51
-180.56
-180.17
-178.56
-175.86
-172.29
-168.27
-164.31
-160.76
-157.68
-154.92
-152.31
-149.90
-147.95
-146.93
-147.30
-149.22
-152.59
-156.91
-161.50
-165.56
-168.31
-169.14
-167.72
-164.19
-159.07
-153.22
-147.57
-142.78
-139.15
-136.56
-134.66
-133.09
-131.73
-130.72
-130.38
-130.98
-132.60
-135.02
-137.81
-140.52
-142.83
-144.68
-146.18
-147.40
-148.11
-147.61
-144.86
-138.70
-128.27
-113.28
-94.15
-71.92
-48.15
-24.83
-4.14
11.70
20.73
21.59
13.81
-1.95
-23.87
-49.15
-74.46
-96.56
-113.05
-122.81
-126.10
-124.09
-118.12
-108.87
-96.13
-79.08
-57.09
-30.25
0.41
33.31
66.81
99.54
130.28
157.69
180.20
196.29
204.93
206.07
200.77
190.85
178.34
164.99
151.87
139.43
127.54
115.79
103.73
91.14
78.16
65.30
53.21
42.37
33.01
25.21
19.17
15.35
14.30
16.22
20.53
25.88
30.58
33.29
33.62
32.17
30.21
29.00
29.28
31.19
34.44
38.67
43.72
49.54
56.00
62.68
68.88
73.90
77.32
79.34
80.64
82.10
84.42
87.70
91.46
94.75
96.51
95.92
92.69
87.00
79.41
70.52
60.80
50.48
39.62
28.39
17.16
6.59
-2.51
-9.40
-13.60
-15.03
-14.04
-11.29
-7.65
-3.91
-0.56
2.48
5.87
10.57
17.13
25.25
33.56
40.06
42.90
41.12
35.04
26.19
16.59
8.13
2.20
-0.35
0.90
5.94
14.15
24.22
34.15
41.76
45.17
43.55
37.28
27.76
16.86
6.23
-3.17
-10.93
-17.10
-21.96
-26.05
-30.04
-34.70
-40.44
-47.04
-53.30
-57.02
-55.99
-49.16
-37.22
-22.30
-7.04
6.41
16.91
24.34
29.67
33.81
36.93
38.46
37.94
35.41
31.66
27.62
24.06
22.43
23.67
27.64
32.94
37.56
39.68
38.47
34.12
27.83
22.78
21.95
26.77
36.61
49.84
64.96
81.45
99.23
109.62
106.06
88.07
62.44
37.79
19.45
8.34
2.72
-0.73
-5.44
-12.31
-20.56
-28.45
-34.52
-37.23
-37.55
-36.44
-35.07
-34.64
-35.05
-35.92
-36.61
-36.82
-36.56
-36.49
-37.21
-39.61
-44.55
-51.45
-59.39
-66.84
-72.36
-75.38
-76.72
-77.73
-79.52
-82.35
-85.02
-85.58
-81.25
-69.61
-49.69
-22.70
9.25
43.94
79.39
113.85
140.85
153.12
148.81
133.79
116.08
100.81
88.77
77.59
63.90
45.48
23.36
1.27
-16.63
-28.77
-36.46
-43.02
-52.11
-65.98
-84.56
-104.93
-124.38
-138.65
-145.60
-144.59
-135.87
-120.42
-100.12
-77.83
-56.41
-37.90
-23.05
-11.75
-3.07
4.08
10.29
15.43
18.97
20.79
21.50
22.39
24.09
27.05
31.48
37.18
43.62
50.05
55.73
60.07
62.83
63.88
63.61
62.73
62.10
62.43
63.92
66.22
68.39
69.25
67.65
62.96
55.25
45.38
34.74
24.86
17.04
11.89
9.23
8.08
7.16
5.44
2.67
-0.40
-2.34
-1.81
1.70
7.56
14.22
19.98
23.52
24.13
21.47
15.04
4.20
-11.44
-31.32
-53.50
-74.97
-92.57
-104.10
-108.99
-108.18
-103.38
-96.27
-87.95
-79.15
-70.60
-63.19
-57.71
-54.49
-53.12
-52.55
-51.50
-48.81
-43.96
-37.25
-29.76
-22.80
-17.51
-14.45
-13.47
-13.84
-14.19
-13.21
-10.24
-5.54
-0.07
4.97
8.39
9.37
7.45
3.51
-1.39
-6.73
-13.02
-21.27
-32.33
-46.44
-62.97
-80.40
-94.88
-102.77
-102.51
-95.37
-84.32
-72.52
-62.65
-56.79
-56.59
-60.26
-65.43
-70.47
-74.77
-77.02
-74.32
-63.24
-41.44
-8.74
36.95
96.49
167.86
245.59
322.94
394.20
455.31
504.09
517.08
479.41
395.76
290.69
191.35
113.32
59.41
24.70
1.49
-17.79
-34.85
-48.55
-57.43
-61.94
-63.72
-63.80
-64.65
-67.70
-73.63
-79.43
-81.84
-79.63
-74.72
-70.40
-69.12
-71.81
-77.76
-85.39
-90.98
-91.21
-83.80
-69.62
-51.39
-32.20
-14.69
-0.55
9.42
16.10
20.76
24.08
25.59
24.49
20.56
14.40
7.39
0.98
-3.47
-5.22
-4.34
-1.58
2.17
6.26
10.28
13.94
16.96
19.11
20.26
20.49
20.04
19.26
18.53
18.09
18.01
18.17
18.32
18.29
17.92
17.17
16.09
14.81
13.60
12.90
13.26
15.15
18.88
24.44
31.60
39.76
48.09
55.69
61.90
66.36
69.12
70.46
70.79
70.46
69.47
67.50
64.26
59.76
54.37
48.60
42.58
36.13
29.14
21.23
12.13
2.02
-8.52
-18.78
-28.25
-37.30
-46.46
-55.57
-65.05
-75.73
-88.10
-102.12
-117.43
-133.45
-150.66
-168.99
-186.08
-200.24
-210.67
-216.50
-217.33
-213.53
-206.27
-198.81
-193.26
-187.41
-179.69
-169.64
-156.69
-140.58
-121.80
-101.42
-83.12
-69.38
-57.73
-47.06
-37.95
-30.40
-24.11
-18.63
0.78
38.80
72.29
94.40
109.69
118.51
120.89
117.13
108.26
95.95
80.00
61.22
44.50
32.11
23.49
17.86
14.31
11.96
10.10
6.60
0.58
-4.92
-8.00
-8.34
-5.44
1.02
10.84
23.24
35.74
46.20
54.90
61.84
66.70
69.88
72.00
73.46
74.29
73.68
71.11
67.37
63.09
58.48
53.72
48.85
43.72
38.27
32.51
26.79
21.92
18.37
15.97
14.22
12.45
10.13
7.11
3.62
0.12
-3.01
-5.65
-7.88
-9.92
-11.94
-14.05
-16.24
-18.41
-20.40
-22.07
-23.37
-24.26
-24.64
-24.40
-23.43
-21.65
-18.86
-14.98
-10.03
-4.50
0.95
5.86
10.06
13.69
17.12
20.93
25.53
31.10
37.19
43.05
48.07
51.73
53.37
51.28
44.10
31.98
17.00
1.59
-12.43
-24.03
-33.04
-40.02
-45.83
-50.86
-56.44
-61.20
-63.91
-63.98
-61.48
-57.14
-52.07
-47.31
-43.34
-40.12
-37.23
-33.53
-29.22
-24.86
-21.09
-18.29
-16.42
-14.92
-13.02
-9.81
-4.86
1.80
10.09
19.92
30.99
42.72
54.25
64.51
72.52
77.54
79.29
78.33
75.88
73.23
71.25
70.05
69.06
67.45
64.54
60.14
54.63
48.63
42.42
35.66
27.55
17.53
5.75
-6.75
-18.50
-28.29
-35.51
-40.66
-45.08
-50.22
-56.83
-64.62
-72.45
-78.99
-83.24
-84.23
-81.58
-75.68
-67.69
-59.35
-52.68
-49.48
-50.71
-55.95
-62.44
-66.46
-65.08
-57.21
-43.97
-28.00
-12.25
1.27
11.98
21.68
32.71
46.21
61.86
78.41
94.66
110.32
126.07
136.52
137.49
128.49
113.11
95.93
79.42
63.89
49.03
34.82
21.66
10.90
4.91
2.63
2.39
2.59
2.25
1.20
-0.06
-0.92
-0.34
2.18
6.21
9.84
11.69
11.09
8.40
4.74
1.63
0.40
1.71
5.09
9.57
13.72
15.97
15.08
10.49
2.43
-8.57
-21.68
-35.85
-47.95
-53.83
-51.40
-42.67
-32.47
-25.23
-23.65
-27.87
-35.89
-44.64
-51.46
-55.10
-55.36
-54.18
-50.51
-43.40
-32.51
-18.49
-2.91
11.97
23.90
31.61
35.45
37.30
39.03
41.96
46.45
51.63
55.62
56.17
51.50
41.15
26.39
9.40
-7.34
-21.88
-33.67
-43.81
-54.54
-68.07
-85.33
-105.12
-124.52
-139.56
-146.44
-142.73
-128.25
-105.23
-77.72
-50.56
-28.00
-12.86
-5.90
-5.91
-10.39
-16.39
-21.41
-23.79
-22.90
-18.89
-12.42
-4.48
3.66
10.59
14.97
16.00
13.80
9.56
5.28
3.00
4.14
8.90
16.33
24.88
33.02
39.85
45.05
48.62
50.43
49.97
46.57
39.90
30.45
19.67
9.57
2.05
-1.81
-2.06
0.22
3.52
6.43
8.13
8.42
7.55
5.86
3.59
0.85
-2.29
-5.65
-8.83
-11.31
-12.55
-12.09
-9.74
-5.51
0.32
7.37
15.22
23.46
31.83
40.08
47.85
54.57
59.45
61.74
60.90
56.81
49.87
41.06
31.67
22.89
15.57
10.13
6.69
5.15
5.31
6.80
9.37
12.68
16.15
19.02
20.62
20.71
19.52
17.69
15.96
15.50
17.10
20.56
24.44
26.82
26.32
22.51
15.75
6.80
-2.26
-9.25
-13.05
-14.07
-13.60
-12.83
-12.83
-14.94
-20.82
-29.92
-40.67
-52.01
-64.33
-78.44
-94.01
-109.02
-120.43
-124.91
-116.70
-90.35
-43.37
22.32
101.69
188.80
277.49
361.23
416.34
421.34
371.55
285.50
191.67
111.08
52.03
13.08
-11.82
-29.20
-40.79
-45.17
-40.93
-29.29
-13.94
1.32
13.62
21.06
22.78
21.16
20.32
22.70
28.03
33.69
37.24
37.56
34.92
30.69
28.07
30.28
38.76
52.47
68.15
82.84
94.69
103.03
108.09
111.04
112.89
113.15
113.83
114.13
112.90
109.35
103.30
95.09
85.70
76.30
67.77
60.53
53.87
47.06
39.46
30.68
20.66
9.61
-1.99
-13.59
-24.70
-35.49
-46.21
-57.22
-68.90
-81.59
-95.44
-110.34
-125.69
-140.36
-153.16
-162.77
-168.33
-169.81
-168.04
-164.42
-160.34
-156.66
-153.42
-150.19
-146.23
-140.98
-134.35
-126.70
-118.65
-110.90
-103.99
-98.27
-93.86
-90.63
-88.37
-86.81
-85.73
-84.99
-84.56
-84.45
-84.66
-85.19
-86.06
-87.43
-89.61
-92.93
-97.59
-103.50
-110.25
-117.33
-124.29
-131.10
-138.21
-146.31
-156.01
-167.55
-180.79
-195.36
-210.93
-227.24
-244.20
-261.89
-280.31
-298.96
-316.73
-332.03
-343.11
-348.35
-346.19
-335.49
-316.05
-288.61
-254.54
-215.63
-173.87
-131.26
-89.60
-49.68
-11.66
24.10
57.10
86.93
113.70
137.94
160.44
182.00
203.86
226.97
251.09
275.14
297.89
318.77
337.72
355.27
366.72
367.39
356.76
337.64
313.16
285.49
256.49
227.82
200.98
177.18
158.04
144.67
136.48
130.72
123.06
109.29
86.50
54.44
16.02
-23.53
-58.08
-83.18
-97.59
-103.25
-103.12
-99.92
-94.94
-87.94
-77.42
-61.68
-39.94
-10.97
22.34
56.75
88.98
115.95
134.87
144.02
143.36
134.57
120.71
105.27
91.84
82.60
78.05
76.87
76.86
75.68
71.47
63.29
51.09
36.87
22.29
9.73
1.38
-1.64
0.23
5.00
9.77
11.66
9.34
3.12
-5.16
-13.12
-18.62
-20.31
-17.61
-10.57
0.18
13.71
28.60
43.22
56.08
66.24
73.53
78.58
82.36
85.78
89.36
93.96
99.66
106.00
112.16
117.12
120.13
120.88
119.72
117.45
114.93
112.54
110.08
106.78
101.59
93.75
82.89
68.85
51.43
30.26
4.95
-24.39
-56.83
-90.74
-123.71
-153.45
-178.64
-199.52
-217.58
-235.01
-253.70
-274.74
-298.36
-323.12
-346.48
-365.70
-378.59
-383.84
-381.27
-371.79
-357.41
-341.28
-325.59
-311.42
-298.88
-287.38
-275.45
-261.01
-241.63
-215.62
-183.09
-144.53
-101.18
-55.42
-10.40
30.98
66.77
96.37
124.76
149.27
164.59
168.03
161.27
147.92
131.29
113.68
97.78
84.26
72.86
64.42
60.08
60.51
65.61
75.36
87.49
100.94
115.16
129.78
145.72
164.33
186.05
209.52
231.75
248.85
257.65
256.28
244.74
225.56
202.73
180.15
160.40
144.41
131.69
121.10
111.01
99.78
86.48
70.91
53.45
34.72
15.24
-4.70
-24.91
-45.26
-65.43
-84.68
-102.10
-117.06
-129.42
-139.70
-148.77
-157.39
-166.03
-174.62
-182.67
-189.55
-194.73
-197.99
-199.33
-198.82
-196.24
-191.09
-182.70
-170.63
-155.07
-136.94
-117.66
-98.68
-80.97
-64.88
-50.37
-37.35
-25.92
-16.34
-8.61
-2.20
3.92
10.95
19.78
30.47
42.34
54.18
64.83
73.55
80.21
85.21
89.15
92.55
95.67
98.44
100.69
102.25
103.12
103.41
103.23
102.48
100.80
97.68
92.75
86.09
78.47
71.47
66.84
65.91
69.21
76.40
86.39
97.66
108.54
117.57
124.05
127.73
128.73
127.41
124.25
119.68
113.85
106.58
97.49
86.88
75.22
63.03
50.84
39.32
29.18
20.86
14.41
9.48
7.06
7.48
9.85
12.45
13.81
13.35
11.17
7.63
3.16
1.20
3.78
10.03
17.08
22.49
25.68
27.38
28.76
30.72
38.62
55.12
78.07
101.97
122.10
136.69
146.44
153.10
158.66
171.52
196.89
233.62
275.67
317.01
354.11
385.63
410.89
391.43
311.96
189.59
60.74
-47.96
-129.76
-189.85
-235.97
-272.59
-305.04
-327.75
-335.66
-329.56
-315.21
-299.15
-285.94
-274.68
-264.71
-255.29
-240.37
-216.18
-183.94
-148.27
-113.82
-83.45
-58.49
-40.09
-29.29
-23.37
-20.23
-21.20
-26.37
-32.96
-37.59
-38.99
-38.24
-36.50
-33.13
-25.46
-12.39
5.23
24.99
43.98
60.16
72.90
82.61
91.08
99.90
109.06
117.36
122.79
123.36
118.11
107.42
93.02
77.42
62.94
50.62
40.15
29.67
16.26
-3.10
-30.64
-66.88
-110.00
-155.70
-198.01
-230.50
-248.27
-249.49
-235.86
-211.81
-182.73
-153.12
-125.59
-100.96
-79.23
-60.49
-45.52
-35.34
-30.65
-31.21
-35.77
-42.58
-49.95
-56.66
-61.98
-65.42
-66.30
-63.72
-56.75
-44.94
-28.92
-10.49
7.70
23.05
33.83
39.73
41.68
41.26
39.91
38.38
36.68
34.33
30.80
25.86
19.68
12.76
5.66
-1.07
-7.00
-11.69
-14.75
-15.90
-14.99
-12.11
-7.53
-1.61
5.42
13.43
22.37
32.09
42.10
51.48
59.00
63.47
64.11
60.81
54.18
45.33
35.58
26.12
17.88
11.47
7.27
5.38
5.56
7.13
9.03
10.09
9.37
6.52
1.85
-3.78
-9.43
-14.39
-18.33
-21.36
-23.79
-26.04
-28.42
-31.06
-33.72
-35.90
-36.76
-35.39
-31.21
-24.18
-14.92
-4.53
5.84
15.38
23.85
31.48
38.62
45.28
50.99
54.95
56.37
54.95
51.07
45.64
39.68
33.85
28.18
22.32
15.79
8.50
0.97
-5.97
-11.60
-15.64
-18.21
-19.71
-20.58
-21.22
-21.96
-22.93
-24.25
-26.05
-28.43
-31.30
-34.45
-37.72
-41.08
-44.84
-49.03
-53.71
-58.86
-64.19
-69.06
-72.53
-73.98
-73.61
-72.67
-72.27
-73.79
-78.64
-87.73
-100.76
-116.05
-131.09
-143.34
-150.76
-149.91
-138.41
-116.28
-86.30
-52.64
-19.12
11.82
39.33
63.82
89.52
119.69
154.03
188.41
217.53
237.87
248.75
251.75
249.55
249.50
257.97
277.61
306.82
342.18
380.83
421.12
461.96
475.22
442.32
364.23
261.69
158.21
66.99
-8.58
-68.77
-114.28
-145.93
-161.46
-161.29
-150.47
-137.36
-128.24
-126.17
-129.84
-136.02
-142.07
-143.73
-138.82
-128.29
-115.65
-104.43
-96.50
-91.93
-90.42
-91.97
-94.22
-94.61
-91.49
-84.83
-75.34
-63.82
-50.66
-36.42
-21.94
-7.08
8.01
22.03
32.31
34.85
26.57
8.09
-16.44
-41.66
-62.75
-76.73
-82.77
-81.97
-76.27
-68.11
-59.58
-52.38
-47.73
-46.11
-47.21
-50.03
-54.85
-59.71
-63.00
-63.56
-60.88
-55.30
-47.85
-39.81
-32.29
-26.05
-21.10
-17.22
-14.01
-11.18
-8.71
-6.71
-5.33
-3.97
-2.63
-1.46
-1.06
-2.12
-5.22
-10.71
-18.57
-28.22
-37.99
-46.20
-51.61
-54.05
-54.13
-52.87
-51.34
-50.37
-50.37
-50.14
-48.57
-45.35
-41.19
-36.97
-32.98
-28.81
-23.76
-17.29
-7.51
6.44
23.37
40.63
55.58
66.92
75.02
81.39
88.11
99.67
119.37
147.39
181.14
216.71
250.87
281.95
309.86
319.37
301.36
257.83
201.01
144.68
96.60
58.71
29.95
8.15
-9.20
-22.14
-28.67
-31.19
-32.32
-34.00
-36.90
-40.85
-45.64
-51.27
-55.85
-57.95
-57.71
-56.37
-55.10
-54.40
-54.32
-54.53
-54.50
-52.47
-47.53
-40.41
-32.79
-26.70
-23.55
-23.99
-27.60
-33.13
-38.34
-41.72
-42.90
-42.34
-41.06
-40.02
-40.59
-43.93
-50.98
-58.92
-65.73
-71.05
-75.86
-81.17
-86.55
-91.15
-93.99
-94.46
-92.66
-89.39
-85.31
-80.69
-77.65
-75.26
-73.64
-73.56
-75.76
-80.62
-87.84
-96.15
-103.76
-109.00
-110.68
-109.16
-105.56
-99.22
-90.75
-80.85
-69.76
-57.38
-43.81
-29.47
-15.98
-5.27
1.09
2.36
-0.68
-5.87
-10.48
-12.16
-9.48
-2.61
7.38
19.21
31.92
45.36
59.91
75.89
93.08
110.64
127.29
141.88
153.78
162.77
169.06
172.92
174.62
174.45
173.01
171.17
170.02
170.58
173.39
178.44
185.18
192.78
200.37
207.25
212.85
216.70
218.30
217.13
212.83
205.30
194.61
180.81
163.66
142.70
117.54
88.38
56.31
23.16
-8.99
-38.48
-64.52
-87.16
-107.04
-124.95
-141.56
-157.33
-172.54
-187.33
-201.60
-214.96
-226.78
-236.31
-243.16
-247.40
-249.66
-250.75
-251.35
-251.70
-251.55
-250.38
-247.72
-243.37
-237.45
-230.08
-221.25
-210.59
-197.64
-182.10
-164.11
-144.26
-123.34
-102.08
-80.94
-60.18
-39.91
-20.21
-1.09
17.58
36.11
54.89
74.17
93.87
113.56
132.70
150.81
167.65
183.04
196.55
207.39
214.46
216.68
213.59
205.51
193.56
179.20
163.77
148.09
132.50
117.12
102.13
87.88
74.75
62.92
52.22
42.13
32.04
21.55
10.64
-0.33
-10.77
-20.05
-27.75
-33.67
-37.93
-40.87
-42.86
-44.20
-44.95
-44.98
-44.04
-41.95
-38.66
-34.40
-29.59
-24.67
-20.06
-16.01
-12.59
-9.87
-7.89
-6.77
-6.69
-7.76
-9.91
-12.88
-16.16
-19.13
-21.26
-22.26
-22.28
-21.84
-21.69
-22.47
-24.53
-27.62
-31.03
-33.77
-34.89
-33.86
-30.79
-26.34
-21.57
-17.44
-14.36
-11.90
-8.74
-3.00
7.16
22.60
42.69
65.03
85.95
101.59
109.09
107.57
98.45
84.87
70.55
58.47
50.10
45.26
42.73
41.10
39.43
37.53
35.70
34.31
33.49
33.10
32.90
32.80
32.93
33.51
34.72
36.42
38.11
39.03
38.38
35.64
30.83
24.59
18.09
12.65
9.26
8.19
8.90
10.27
11.02
10.18
7.40
2.95
-2.33
-7.24
-10.53
-11.15
-8.45
-2.47
6.15
16.25
26.47
35.62
42.91
48.05
51.20
52.76
53.20
52.97
52.44
51.87
51.40
51.06
50.69
50.05
48.89
47.11
44.95
42.93
41.73
41.80
43.17
45.30
47.41
48.75
48.99
48.32
47.25
46.20
45.15
43.35
39.43
31.90
19.64
2.42
-18.99
-43.01
-67.73
-91.26
-112.00
-128.69
-140.50
-147.21
-149.40
-148.50
-146.31
-144.30
-142.82
-140.95
-137.02
-129.61
-118.64
-105.62
-93.19
-84.05
-79.89
-80.96
-86.27
-94.19
-103.03
-111.46
-118.47
-123.26
-125.19
-123.86
-119.37
-112.48
-104.50
-97.02
-91.41
-88.38
-87.78
-88.80
-90.29
-91.33
-91.51
-90.99
-90.28
-89.82
-89.62
-89.01
-86.58
-80.31
-67.95
-47.64
-18.53
18.56
61.09
105.20
146.62
181.58
207.40
222.58
226.39
218.54
199.02
168.54
129.02
83.82
37.44
-5.54
-41.40
-68.13
-85.43
-94.14
-95.56
-90.92
-81.57
-69.10
-55.59
-43.10
-32.99
-25.32
-18.84
-11.80
-2.94
7.73
18.96
28.95
36.43
41.45
45.65
51.85
62.96
80.85
105.23
133.17
159.44
177.95
183.72
174.81
153.14
123.76
92.99
66.11
45.97
32.73
24.90
20.56
18.34
17.50
17.49
17.38
15.80
11.46
3.93
-5.75
-15.21
-21.66
-23.13
-19.46
-12.44
-5.22
-0.92
-1.34
-6.31
-13.96
-21.78
-27.70
-30.84
-31.65
-31.55
-32.18
-34.71
-39.41
-45.70
-52.46
-58.50
-62.81
-64.91
-64.97
-63.61
-61.57
-59.31
-56.95
-54.28
-50.89
-46.01
-39.09
-30.33
-20.81
-12.13
-5.62
-1.88
-0.73
-1.29
-1.57
0.25
4.65
10.42
15.62
18.81
19.66
18.80
17.25
17.23
20.43
26.75
33.97
39.19
40.59
37.92
32.34
25.98
23.37
29.37
47.14
76.71
115.59
159.76
204.15
242.86
259.08
239.85
185.50
112.06
40.30
-16.05
-53.27
-74.54
-85.44
-90.63
-90.57
-83.74
-69.69
-51.30
-33.49
-20.61
-14.55
-14.28
-16.85
-17.54
-12.91
-2.85
8.92
17.57
19.97
15.40
5.48
-7.05
-18.73
-27.01
-31.17
-32.90
-34.45
-37.36
-42.04
-47.97
-54.25
-59.65
-63.25
-64.82
-65.63
-67.17
-70.70
-77.25
-87.52
-102.02
-121.06
-145.16
-170.16
-193.68
-213.52
-227.80
-235.15
-234.88
-226.92
-211.79
-190.40
-163.78
-133.83
-102.21
-70.41
-39.79
-11.60
13.08
33.67
50.51
65.00
78.75
93.29
109.19
125.52
140.23
151.05
156.55
156.65
152.41
144.95
135.21
123.70
110.77
