1650283290.00
64.000000
-0.00
-0.00
-0.00
-0.00
-0.00
-0.00
-0.00
-0.00
-0.00
-0.00
0.00
0.01
0.01
-0.00
-0.03
-0.05
-0.05
0.00
0.13
0.36
0.66
1.01
1.37
1.72
2.06
2.40
2.79
3.24
3.80
4.42
5.06
5.66
6.20
6.68
7.15
7.68
8.31
9.14
10.09
11.04
11.88
12.56
13.14
13.76
14.65
15.96
17.91
20.32
22.90
25.38
27.58
29.57
31.68
34.32
37.81
42.54
48.15
54.10
59.83
64.97
69.58
74.14
79.34
85.71
93.76
103.00
112.62
121.73
129.77
136.75
143.30
150.75
157.77
166.64
177.95
191.79
206.97
220.57
228.25
225.36
208.53
176.87
132.76
80.05
23.07
-34.94
-92.44
-149.16
-205.23
-260.37
-313.74
-363.87
-409.83
-450.91
-486.50
-515.74
-537.23
-549.22
-549.96
-538.37
-514.21
-478.67
-433.88
-382.45
-327.02
-269.84
-212.63
-156.66
-102.95
-52.37
-5.90
35.58
71.43
101.35
125.50
144.38
158.69
169.15
176.37
180.75
182.57
182.07
179.51
175.23
169.65
163.18
156.15
148.81
141.30
133.69
126.02
118.33
110.69
103.16
95.80
88.68
81.83
75.25
68.95
62.95
57.25
51.86
46.78
42.02
37.58
33.45
29.62
26.09
22.84
19.86
17.12
14.62
12.36
10.33
8.55
7.02
5.73
4.65
3.74
2.95
2.26
1.65
1.12
0.69
0.36
0.14
-0.00
-0.12
-0.27
-0.47
-0.72
-0.98
-1.18
-1.28
-1.25
-1.15
-1.08
-1.17
-1.48
-1.98
-2.55
-3.03
-3.26
-3.22
-3.00
-2.85
-3.01
-3.62
-4.64
-5.82
-6.83
-7.38
-7.38
-7.04
-6.74
-6.91
-7.80
-9.34
-11.17
-12.76
-13.71
-13.88
-13.47
-12.92
-12.69
-13.16
-14.56
-16.99
-20.23
-23.57
-25.71
-25.00
-20.12
-10.80
1.77
15.23
26.86
34.72
38.32
38.53
37.00
35.23
33.97
33.24
32.75
32.31
32.05
32.26
33.05
34.22
35.21
35.38
34.24
31.67
27.94
23.58
19.21
15.03
11.10
7.26
3.28
-0.95
-5.38
-9.77
-13.74
-16.94
-19.16
-20.35
-20.67
-20.46
-20.04
-19.69
-19.49
-19.40
-19.30
-19.15
-18.94
-18.61
-18.04
-16.90
-14.85
-11.67
-7.53
-3.02
1.06
3.92
5.18
4.96
3.77
2.29
1.00
0.06
-0.65
-1.40
-2.31
-3.35
-4.31
-5.00
-5.32
-5.40
-5.41
-5.49
-5.62
-5.76
-5.82
-5.86
-6.00
-6.42
-7.21
-8.38
-9.81
-11.40
-13.12
-14.92
-16.77
-18.61
-20.33
-21.91
-23.40
-24.91
-26.42
-27.85
-29.03
-29.72
-29.65
-28.53
-26.17
-22.50
-17.65
-11.98
-6.09
-0.71
3.53
6.26
7.52
7.82
7.90
8.64
10.68
14.24
19.09
24.65
30.19
35.06
38.79
41.21
42.36
42.40
41.56
40.07
38.13
35.92
33.56
31.14
28.75
26.46
24.35
22.47
20.81
19.36
18.09
16.99
16.11
15.48
15.13
14.99
14.87
14.51
13.63
12.03
9.71
6.89
3.98
1.42
-0.51
-1.84
-2.90
-4.13
-5.84
-8.05
-10.46
-12.64
-14.26
-15.25
-15.85
-16.44
-17.46
-19.20
-21.84
-25.49
-30.08
-35.27
-40.28
-43.88
-44.73
-41.95
-35.54
-26.60
-16.84
-8.03
-1.21
3.52
6.81
9.52
12.18
14.84
17.15
18.79
19.68
20.04
20.15
20.22
20.23
20.03
19.49
18.64
17.70
16.97
16.73
17.15
18.17
19.57
20.97
21.93
22.15
21.51
20.11
18.28
16.32
14.44
12.63
10.74
8.58
6.06
3.26
0.33
-2.61
-5.50
-8.39
-11.27
-14.10
-16.76
-19.17
-21.43
-23.78
-26.53
-29.90
-33.85
-37.97
-41.57
-43.83
-44.05
-41.80
-37.15
-30.62
-23.07
-15.45
-8.54
-2.78
1.80
5.36
8.16
10.31
11.82
12.64
12.79
12.43
11.83
11.22
10.75
10.46
10.31
10.30
10.44
10.77
11.31
12.02
12.79
13.46
13.85
13.79
13.17
12.01
10.44
8.68
6.97
5.42
4.00
2.56
0.98
-0.77
-2.59
-4.35
-5.95
-7.41
-8.85
-10.41
-12.20
-14.32
-16.90
-20.05
-23.88
-28.26
-32.71
-36.42
-38.44
-37.96
-34.70
-28.97
-21.60
-13.63
-6.03
0.57
5.91
9.97
12.92
14.95
16.24
16.94
17.13
16.85
16.12
14.97
13.55
12.08
10.79
9.92
9.57
9.71
10.26
11.05
11.89
12.56
12.86
12.65
11.95
10.92
9.83
8.85
7.96
7.00
5.66
3.76
1.26
-1.63
-4.59
-7.32
-9.60
-11.39
-12.84
-14.22
-15.89
-18.18
-21.26
-25.05
-29.04
-32.43
-34.25
-33.69
-30.40
-24.62
-17.12
-8.97
-1.18
5.53
10.84
14.77
17.55
19.42
20.57
21.10
21.11
20.69
19.92
18.89
17.66
16.29
14.91
13.70
12.88
12.60
12.90
13.62
14.51
15.26
15.61
15.38
14.53
13.14
11.38
9.49
7.75
6.31
5.17
4.11
2.84
1.04
-1.43
-4.50
-7.92
-11.40
-14.67
-17.59
-20.18
-22.63
-25.22
-28.22
-31.71
-35.38
-38.60
-40.49
-40.28
-37.59
-32.61
-26.02
-18.73
-11.67
-5.53
-0.75
2.47
4.20
4.72
4.52
4.18
4.13
4.50
5.05
5.34
4.99
3.88
2.17
0.21
-1.69
-3.19
-3.95
-3.59
-1.85
1.20
4.95
8.33
10.32
10.33
8.60
6.07
3.91
2.96
3.58
5.69
9.03
13.36
18.53
24.30
30.12
35.12
38.25
38.68
36.12
31.02
24.35
17.27
10.51
4.12
-2.38
-9.50
-17.18
-24.54
-30.09
-32.44
-30.99
-26.25
-19.59
-12.56
-6.22
-0.91
3.54
7.48
11.05
14.06
16.25
17.46
17.77
17.49
17.01
16.57
16.24
15.96
15.66
15.32
15.00
14.81
14.81
14.98
15.27
15.55
15.63
15.34
14.46
12.90
10.71
8.14
5.63
3.58
2.21
1.39
0.76
-0.18
-1.78
-4.07
-6.79
-9.53
-11.91
-13.73
-15.06
-16.15
-17.37
-19.07
-21.55
-24.89
-28.89
-33.00
-36.39
-38.14
-37.59
-34.54
-29.29
-22.59
-15.38
-8.53
-2.69
1.72
4.58
5.98
6.22
5.83
5.45
5.63
6.62
8.20
9.81
10.80
10.82
9.99
8.88
8.21
8.47
9.71
11.52
13.26
14.39
14.63
14.04
12.85
11.32
9.58
7.65
5.51
3.15
0.69
-1.73
-3.96
-5.96
-7.84
-9.80
-12.07
-14.76
-17.91
-21.41
-25.07
-28.64
-31.73
-33.85
-34.44
-33.03
-29.40
-23.76
-16.66
-8.95
-1.47
5.10
10.37
14.25
16.87
18.44
19.18
19.23
18.74
17.82
16.69
15.58
14.73
14.24
14.13
14.24
14.41
14.46
14.32
14.00
13.54
12.92
12.07
10.85
9.17
6.97
4.31
1.32
-1.84
-5.06
-8.25
-11.38
-14.41
-17.31
-20.07
-22.78
-25.63
-28.85
-32.51
-36.38
-39.84
-42.00
-42.03
-39.45
-34.33
-27.29
-19.26
-11.19
-3.77
2.64
7.96
12.27
15.72
18.40
20.40
21.78
22.61
22.94
22.88
22.53
22.01
21.46
21.02
20.77
20.69
20.69
20.63
20.35
19.78
18.93
17.85
16.64
15.32
13.80
11.96
9.66
6.88
3.73
0.43
-2.74
-5.58
-8.05
-10.26
-12.44
-14.87
-17.80
-21.37
-25.52
-29.95
-34.06
-37.08
-38.19
-36.80
-32.74
-26.39
-18.61
-10.48
-2.96
3.33
8.21
11.84
14.50
16.44
17.80
18.64
19.07
19.21
19.20
19.11
18.89
18.44
17.70
16.74
15.79
15.10
14.82
14.93
15.17
15.26
14.95
14.10
12.75
10.98
8.93
6.68
4.28
1.76
-0.87
-3.56
-6.25
-8.84
-11.26
-13.54
-15.83
-18.45
-21.75
-25.88
-30.61
-35.28
-38.94
-40.62
-39.71
-36.15
-30.43
-23.39
-15.96
-8.88
-2.59
2.72
7.05
10.46
13.06
14.95
16.21
16.91
17.12
16.95
16.50
15.93
15.36
14.88
14.47
14.05
13.51
12.78
11.85
10.79
9.73
8.79
7.97
7.23
6.37
5.22
3.62
1.52
-0.98
-3.65
-6.22
-8.55
-10.59
-12.46
-14.39
-16.64
-19.39
-22.74
-26.63
-30.80
-34.82
-38.04
-39.79
-39.44
-36.67
-31.51
-24.43
-16.22
-7.76
0.17
7.06
12.69
17.12
20.56
23.31
25.60
27.53
29.09
30.17
30.63
30.42
29.66
28.62
27.61
26.91
26.62
26.69
26.96
27.26
27.47
27.52
27.33
26.79
25.82
24.34
22.42
20.21
17.93
15.77
13.81
12.05
10.36
8.58
6.54
4.08
1.15
-2.17
-5.67
-8.99
-11.80
-13.90
-15.38
-16.58
-18.02
-20.26
-23.66
-28.26
-33.76
-39.41
-44.23
-47.12
-47.17
-43.92
-37.62
-29.09
-19.61
-10.44
-2.55
3.63
8.14
11.34
13.64
15.37
16.75
17.89
18.80
19.54
20.08
20.45
20.65
20.67
20.50
20.13
19.58
18.92
18.29
17.83
17.62
17.62
17.64
17.47
16.86
15.74
14.20
12.41
10.55
8.72
6.91
5.03
3.04
0.92
-1.27
-3.45
-5.51
-7.38
-9.00
-10.35
-11.48
-12.52
-13.69
-15.25
-17.43
-20.32
-23.85
-27.71
-31.40
-34.28
-35.70
-35.13
-32.34
-27.50
-21.16
-14.10
-7.10
-0.76
4.59
8.85
12.06
14.30
15.60
16.04
15.77
15.02
14.04
13.08
12.28
11.67
11.25
11.01
10.98
11.18
11.61
12.13
12.55
12.59
12.06
10.87
9.09
6.90
4.54
2.18
-0.07
-2.25
-4.46
-6.86
-9.56
-12.59
-15.85
-19.15
-22.29
-25.19
-27.91
-30.73
-33.98
-37.98
-42.83
-48.32
-53.88
-58.80
-62.27
-63.71
-62.82
-59.73
-54.95
-49.23
-43.40
-38.17
-34.02
-31.13
-29.42
-28.65
-28.46
-28.46
-28.26
-27.44
-25.64
-22.55
-18.02
-12.03
-4.72
3.67
12.87
22.54
32.32
41.81
50.53
58.04
63.95
68.04
70.22
70.67
69.68
67.66
64.95
61.75
58.11
53.95
49.23
44.00
38.48
33.01
27.92
23.46
19.67
16.37
13.24
9.83
5.76
0.74
-5.27
-12.02
-18.92
-25.13
-29.74
-31.91
-31.19
-27.62
-21.77
-14.65
-7.33
-0.74
4.59
8.59
11.48
13.64
15.42
16.98
18.36
19.43
20.05
20.06
19.43
18.23
16.67
15.05
13.71
12.90
12.75
13.19
13.99
14.81
15.31
15.19
14.35
12.86
10.94
8.92
7.04
5.43
4.00
2.49
0.61
-1.84
-4.77
-7.90
-10.83
-13.24
-15.05
-16.41
-17.69
-19.27
-21.44
-24.29
-27.62
-30.97
-33.69
-35.01
-34.28
-31.16
-25.81
-18.84
-11.23
-3.96
2.22
6.96
10.30
12.52
13.95
14.86
15.42
15.70
15.81
15.81
15.76
15.68
15.52
15.25
14.89
14.60
14.51
14.75
15.27
15.85
16.16
15.91
14.93
13.32
11.30
9.18
7.14
5.21
3.28
1.18
-1.21
-3.85
-6.60
-9.26
-11.64
-13.67
-15.46
-17.21
-19.22
-21.72
-24.85
-28.53
-32.42
-35.93
-38.30
-38.78
-36.89
-32.60
-26.41
-19.21
-12.00
-5.59
-0.38
3.61
6.64
9.05
11.04
12.66
13.90
14.70
15.09
15.13
14.92
14.55
14.16
13.88
13.86
14.22
14.97
16.00
17.07
17.86
18.13
17.71
16.65
15.07
13.22
11.26
9.33
7.45
5.56
3.59
1.53
-0.64
-2.80
-4.86
-6.69
-8.26
-9.66
-11.15
-13.13
-15.97
-19.86
-24.54
-29.38
-33.38
-35.51
-35.01
-31.63
-25.72
-18.11
-9.88
-2.09
4.49
9.49
12.89
15.00
16.24
17.03
17.66
18.25
18.75
19.02
18.95
18.50
17.79
17.05
16.52
16.33
16.45
16.72
16.89
16.76
16.19
15.21
13.93
12.52
11.14
9.89
8.78
7.70
6.46
4.85
2.75
0.15
-2.81
-5.95
-9.18
-12.47
-15.92
-19.70
-23.94
-28.66
-33.70
-38.68
-42.97
-45.81
-46.48
-44.51
-39.86
-33.03
-24.83
-16.20
-7.95
-0.64
5.42
10.08
13.33
15.22
15.88
15.58
14.64
13.46
12.43
11.88
11.99
12.69
13.66
14.46
14.68
14.11
12.84
11.18
9.50
8.04
6.79
5.51
3.88
1.62
-1.39
-5.12
-9.39
-13.93
-18.42
-22.58
-26.28
-29.58
-32.82
-36.49
-41.06
-46.74
-53.25
-59.76
-65.05
-67.82
-67.13
-62.56
-54.35
-43.32
-30.57
-17.29
-4.47
7.25
17.63
26.79
35.12
42.96
50.46
57.37
63.19
67.36
69.62
70.17
69.63
68.75
68.12
67.90
67.84
67.45
66.31
64.21
61.30
57.84
54.10
50.19
46.05
41.52
36.40
30.53
23.91
16.65
9.03
1.38
-6.03
-13.02
-19.58
-25.82
-31.88
-37.88
-43.87
-49.84
-55.59
-60.71
-64.57
-66.37
-65.46
-61.49
-54.68
-45.71
-35.62
-25.48
-16.12
-8.08
-1.55
3.50
7.22
9.87
11.68
12.89
13.66
14.07
14.20
14.13
13.99
13.92
14.07
14.51
15.26
16.24
17.39
18.57
19.61
20.34
20.53
20.03
18.78
16.89
14.56
12.06
9.63
7.41
5.36
3.36
1.24
-1.13
-3.79
-6.64
-9.50
-12.18
-14.50
-16.38
-17.89
-19.30
-20.97
-23.32
-26.61
-30.80
-35.43
-39.65
-42.48
-43.04
-40.85
-35.94
-28.87
-20.54
-11.94
-3.91
2.98
8.53
12.82
16.07
18.56
20.47
21.87
22.78
23.15
23.01
22.44
21.58
20.56
19.55
18.66
18.01
17.66
17.60
17.76
17.98
18.12
18.06
17.71
17.02
15.99
14.63
12.98
11.13
9.21
7.34
5.60
4.01
2.45
0.81
-1.05
-3.20
-5.56
-8.02
-10.39
-12.56
-14.50
-16.28
-18.04
-19.94
-22.15
-24.78
-27.85
-31.21
-34.46
-36.99
-38.04
-36.95
-33.44
-27.73
-20.54
-12.84
-5.56
0.69
5.67
9.47
12.32
14.44
15.99
17.07
17.74
18.10
18.29
18.38
18.43
18.38
18.19
17.85
17.44
17.10
16.99
17.16
17.56
18.04
18.38
18.38
17.86
16.75
15.08
12.96
10.59
8.19
5.93
3.89
2.02
0.19
-1.74
-3.92
-6.37
-9.06
-11.91
-14.78
-17.57
-20.19
-22.64
-24.99
-27.46
-30.29
-33.67
-37.57
-41.64
-45.20
-47.41
-47.51
-45.10
-40.27
-33.59
-25.88
-17.98
-10.57
-4.09
1.24
5.34
8.22
10.00
10.92
11.28
11.38
11.44
11.59
11.83
12.13
12.51
12.99
13.63
14.42
15.27
16.01
16.48
16.54
16.15
15.37
14.31
13.08
11.76
10.35
8.80
7.03
4.99
2.67
0.16
-2.44
-4.96
-7.32
-9.48
-11.50
-13.52
-15.71
-18.23
-21.16
-24.37
-27.49
-29.94
-30.94
-29.85
-26.31
-20.41
-12.72
-4.12
4.42
12.09
18.35
22.97
25.96
27.55
28.04
27.76
27.01
25.93
24.56
22.80
20.61
17.98
15.07
12.13
9.44
7.24
5.58
4.40
3.55
2.82
2.01
1.02
-0.23
-1.71
-3.38
-5.13
-6.90
-8.64
-10.29
-11.85
-13.29
-14.61
-15.87
-17.12
-18.54
-20.30
-22.59
-25.52
-29.04
-32.86
-36.44
-39.06
-40.02
-38.80
-35.26
-29.70
-22.76
-15.24
-7.93
-1.39
4.03
8.21
11.20
13.15
14.25
14.72
14.74
14.48
14.06
13.59
13.20
13.01
13.19
13.84
14.94
16.36
17.85
19.18
20.14
20.64
20.62
20.05
18.91
17.18
14.88
12.09
8.99
5.73
2.47
-0.69
-3.73
-6.64
-9.44
-12.16
-14.92
-17.95
-21.50
-25.75
-30.61
-35.65
-40.08
-42.96
-43.50
-41.24
-36.24
-29.04
-20.50
-11.58
-3.17
4.09
9.89
14.26
17.46
19.84
21.69
23.14
24.15
24.66
24.69
24.35
23.84
23.31
22.87
22.55
22.40
22.47
22.77
23.21
23.59
23.60
23.02
21.76
19.95
17.84
15.72
13.77
12.01
10.29
8.39
6.09
3.32
0.13
-3.31
-6.80
-10.17
-13.35
-16.40
-19.44
-22.66
-26.28
-30.41
-34.96
-39.49
-43.28
-45.41
-45.06
-41.82
-35.88
-27.93
-18.98
-10.05
-1.89
5.10
10.87
15.53
19.24
22.16
24.38
25.96
26.99
27.54
27.68
27.50
27.06
26.41
25.64
24.87
24.19
23.67
23.30
22.98
22.62
22.12
21.45
20.58
19.43
17.90
15.90
13.45
10.71
7.97
5.52
3.47
1.70
-0.09
-2.23
-4.85
-7.81
-10.75
-13.26
-15.19
-16.68
-18.17
-20.21
-23.19
-27.25
-32.23
-37.66
-42.83
-46.93
-49.14
-48.81
-45.60
-39.63
-31.50
-22.12
-12.54
-3.67
3.87
9.84
14.29
17.46
19.67
21.19
22.19
22.72
22.77
22.39
21.67
20.80
20.00
19.46
19.24
19.30
19.46
19.52
19.32
18.80
18.03
17.13
16.21
15.28
14.25
12.95
11.29
9.30
7.19
5.27
3.74
2.61
1.66
0.57
-0.93
-2.88
-5.15
-7.48
-9.66
-11.63
-13.45
-15.26
-17.16
-19.24
-21.57
-24.25
-27.36
-30.83
-34.32
-37.19
-38.62
-37.88
-34.59
-28.81
-21.12
-12.35
-3.48
4.64
11.41
16.57
20.14
22.43
23.85
24.76
25.38
25.75
25.83
25.53
24.86
23.91
22.85
21.81
20.88
20.13
19.57
19.24
19.13
19.15
19.14
18.88
18.22
17.03
15.31
13.17
10.74
8.27
5.96
4.00
2.46
1.25
0.12
-1.23
-3.00
-5.21
-7.67
-10.07
-12.15
-13.84
-15.30
-16.79
-18.58
-20.85
-23.68
-26.99
-30.59
-34.05
-36.75
-37.89
-36.76
-32.96
-26.66
-18.57
-9.77
-1.39
5.76
11.32
15.36
18.21
20.21
21.61
22.48
22.82
22.59
21.91
20.93
19.94
19.15
18.69
18.52
18.49
18.42
18.22
17.88
17.48
17.06
16.59
15.92
14.86
13.27
11.16
8.67
6.05
3.54
1.23
-0.88
-2.96
-5.17
-7.62
-10.28
-12.99
-15.54
-17.75
-19.57
-21.09
-22.52
-24.10
-26.04
-28.46
-31.38
-34.76
-38.36
-41.75
-44.27
-45.17
-43.81
-39.91
-33.71
-25.91
-17.45
-9.24
-1.88
4.31
9.27
12.99
15.47
16.74
16.95
16.38
15.43
14.47
13.69
13.16
12.83
12.64
12.63
12.87
13.40
14.18
15.05
15.85
16.38
16.48
16.02
14.91
13.14
10.84
8.25
5.68
3.39
1.48
-0.17
-1.79
-3.63
-5.78
-8.21
-10.75
-13.21
-15.49
-17.58
-19.58
-21.64
-23.93
-26.63
-29.86
-33.63
-37.75
-41.71
-44.79
-46.17
-45.17
-41.47
-35.26
-27.19
-18.18
-9.22
-1.09
5.73
11.09
15.08
17.84
19.57
20.43
20.62
20.40
20.06
19.90
20.11
20.72
21.61
22.58
23.48
24.27
25.01
25.84
26.86
28.04
29.24
30.23
30.76
30.66
29.92
28.67
27.14
25.58
24.14
22.85
21.55
20.06
18.18
15.84
13.08
10.02
6.82
3.59
0.36
-2.90
-6.34
-10.19
-14.67
-19.89
-25.70
-31.55
-36.57
-39.75
-40.25
-37.72
-32.38
-25.04
-16.79
-8.74
-1.70
3.90
7.99
10.80
12.62
13.78
14.48
14.83
14.85
14.53
13.91
13.10
12.31
11.79
11.74
12.18
12.99
13.89
14.58
14.83
14.52
13.63
12.22
10.32
7.99
5.35
2.52
-0.31
-3.04
-5.63
-8.14
-10.72
-13.42
-16.23
-18.94
-21.29
-23.07
-24.29
-25.26
-26.50
-28.55
-31.63
-35.47
-39.23
-41.79
-42.10
-39.54
-34.19
-26.71
-18.08
-9.30
-1.16
5.84
11.46
15.60
18.23
19.41
19.27
18.08
16.21
14.04
11.92
10.08
8.63
7.61
6.98
6.72
6.80
7.12
7.55
7.91
8.06
7.88
7.36
6.54
5.45
4.08
2.40
0.40
-1.83
-4.12
-6.27
-8.13
-9.71
-11.19
-12.88
-15.10
-18.08
-21.86
-26.21
-30.63
-34.42
-36.75
-36.90
-34.44
-29.42
-22.36
-14.11
-5.64
2.25
9.03
14.49
18.66
21.68
23.72
24.96
25.51
25.48
24.99
24.14
23.06
21.88
20.71
19.63
18.69
17.95
17.44
17.13
16.97
16.79
16.41
15.68
14.55
13.11
11.51
9.88
8.19
6.30
4.03
1.31
-1.78
-5.00
-8.12
-10.98
-13.59
-16.08
-18.60
-21.31
-24.35
-27.87
-31.95
-36.47
-40.90
-44.34
-45.66
-43.94
-38.87
-30.88
-21.08
-10.84
-1.37
6.64
12.95
17.72
21.25
23.77
25.49
26.54
27.03
27.11
26.92
26.60
26.28
26.03
25.86
25.71
25.49
25.14
24.71
24.32
24.09
24.07
24.15
24.05
23.44
22.11
20.01
17.31
14.33
11.38
8.69
6.34
4.25
2.27
0.19
-2.11
-4.72
-7.60
-10.66
-13.72
-16.65
-19.36
-21.88
-24.40
-27.17
-30.47
-34.42
-38.81
-43.17
-46.70
-48.59
-48.17
-45.15
-39.63
-32.15
-23.47
-14.44
-5.82
1.79
8.02
12.73
16.00
18.09
19.36
20.12
20.64
20.99
21.16
21.10
20.79
20.31
19.84
19.54
19.50
19.72
20.14
20.66
21.20
21.71
22.12
22.27
22.02
21.22
19.90
18.18
16.28
14.41
12.63
10.90
9.14
7.32
5.45
3.60
1.78
-0.06
-2.05
-4.28
-6.74
-9.38
-12.09
-14.77
-17.40
-19.93
-22.40
-24.85
-27.44
-30.41
-33.94
-37.96
-42.03
-45.26
-46.61
-45.19
-40.67
-33.42
-24.37
-14.69
-5.46
2.64
9.31
14.57
18.58
21.53
23.56
24.84
25.54
25.84
25.91
25.89
25.86
25.85
25.86
25.85
25.79
25.65
25.42
25.11
24.74
24.29
23.75
23.02
22.04
20.76
19.21
17.45
15.55
13.53
11.39
9.09
6.69
4.30
2.10
0.20
-1.42
-2.90
-4.51
-6.44
-8.79
-11.48
-14.29
-16.98
-19.37
-21.43
-23.29
-25.19
-27.48
-30.45
-34.21
-38.56
-42.92
-46.39
-48.01
-47.07
-43.28
-36.94
-28.83
-19.96
-11.33
-3.72
2.45
7.07
10.33
12.54
14.05
15.10
15.84
16.32
16.54
16.61
16.65
16.86
17.34
18.08
18.99
19.92
20.75
21.45
22.06
22.63
23.19
23.68
23.99
23.97
23.44
22.32
20.64
18.51
16.14
13.74
11.42
9.22
7.06
4.81
2.36
-0.34
-3.23
-6.19
-9.10
-11.84
-14.39
-16.82
-19.23
-21.76
-24.53
-27.69
-31.37
-35.60
-40.20
-44.65
-48.11
-49.55
-48.18
-43.70
-36.49
-27.48
-17.87
-8.69
-0.67
5.89
10.92
14.51
16.81
18.02
18.42
18.33
18.05
17.78
17.56
17.33
17.01
16.62
16.24
16.09
16.35
17.07
18.14
19.30
20.21
20.59
20.33
19.46
18.13
16.47
14.56
12.41
10.06
7.58
5.11
2.78
0.61
-1.47
-3.66
-6.10
-8.84
-11.77
-14.70
-17.44
-19.89
-22.13
-24.31
-26.65
-29.33
-32.49
-36.22
-40.44
-44.84
-48.87
-51.71
-52.46
-50.47
-45.50
-37.91
-28.57
-18.57
-8.98
-0.57
6.29
11.54
15.32
17.90
19.59
20.66
21.37
21.91
22.37
22.76
23.06
23.24
23.29
23.29
23.37
23.64
24.18
24.98
25.95
26.93
27.74
28.21
28.21
27.65
26.48
24.73
22.56
20.18
17.83
15.70
13.84
12.16
10.46
8.51
6.17
3.42
0.37
-2.76
-5.78
-8.52
-10.93
-13.17
-15.50
-18.32
-22.00
-26.77
-32.58
-38.99
-45.24
-50.36
-53.39
-53.70
-51.15
-46.19
-39.76
-32.94
-26.78
-21.95
-18.73
-16.99
-16.38
-16.44
-16.72
-16.76
-16.15
-14.47
-11.48
-7.14
-1.65
4.55
11.02
17.34
23.28
28.72
33.56
37.64
40.73
42.59
43.02
41.97
39.53
35.94
31.52
26.71
21.92
17.44
13.37
9.61
5.94
2.18
-1.67
-5.41
-8.72
-11.34
-13.23
-14.60
-15.87
-17.51
-19.89
-23.16
-27.12
-31.22
-34.65
-36.46
-35.91
-32.65
-26.86
-19.18
-10.59
-2.07
5.58
11.82
16.48
19.59
21.37
22.11
22.08
21.48
20.45
19.10
17.54
15.93
14.48
13.38
12.76
12.60
12.72
12.90
12.88
12.53
11.82
10.82
9.66
8.44
7.16
5.76
4.15
2.25
0.05
-2.36
-4.89
-7.42
-9.86
-12.17
-14.37
-16.52
-18.80
-21.39
-24.48
-28.16
-32.25
-36.27
-39.47
-40.96
-39.95
-36.04
-29.34
-20.49
-10.47
-0.37
8.87
16.61
22.59
26.89
29.78
31.62
32.74
33.37
33.62
33.51
33.03
32.18
31.04
29.69
28.28
27.00
25.98
25.34
25.06
25.01
24.94
24.51
23.46
21.66
19.21
16.34
13.31
10.34
7.44
4.53
1.44
-1.96
-5.64
-9.48
-13.22
-16.69
-19.72
-22.34
-24.71
-27.19
-30.18
-34.03
-38.72
-43.76
-48.14
-50.59
-50.02
-45.90
-38.52
-28.83
-18.14
-7.70
1.66
9.53
15.89
20.82
24.53
27.18
28.97
30.14
30.85
31.26
31.39
31.25
30.84
30.21
29.46
28.74
28.18
27.88
27.86
28.04
28.30
28.42
28.15
27.30
25.75
23.51
20.72
17.61
14.44
11.46
8.83
6.58
4.57
2.53
0.19
-2.64
-5.94
-9.50
-13.01
-16.16
-18.85
-21.19
-23.48
-26.10
-29.38
-33.50
-38.37
-43.59
-48.40
-51.83
-52.88
-50.84
-45.62
-37.78
-28.43
-18.87
-10.24
-3.18
2.12
5.97
8.85
11.26
13.50
15.70
17.75
19.52
20.89
21.91
22.73
23.60
24.72
26.19
28.01
30.13
32.52
35.13
37.90
40.67
43.15
45.03
46.02
45.97
44.89
42.89
40.15
36.87
33.27
29.50
25.64
21.71
17.63
13.29
8.59
3.54
-1.76
-7.12
-12.36
-17.33
-22.05
-26.58
-31.15
-36.00
-41.42
-47.53
-54.15
-60.73
-66.29
-69.70
-70.03
-66.81
-60.33
-51.41
-41.22
-30.89
-21.31
-12.94
-5.96
-0.31
4.14
7.50
9.84
11.16
11.54
11.14
10.35
9.66
9.53
10.20
11.54
13.17
14.62
15.53
15.83
15.61
15.08
14.39
13.60
12.72
11.73
10.55
9.02
6.92
4.12
0.68
-3.04
-6.57
-9.49
-11.75
-13.63
-15.71
-18.60
-22.70
-28.06
-34.40
-41.10
-47.28
-51.93
-54.06
-53.01
-48.61
-41.31
-32.10
-22.17
-12.58
-4.07
3.04
8.78
13.32
16.89
19.69
21.91
23.64
24.92
25.69
25.89
25.54
24.78
23.86
23.08
22.61
22.44
22.36
22.13
21.52
20.47
19.02
17.27
15.25
12.95
10.31
7.34
4.15
0.91
-2.20
-5.11
-7.86
-10.61
-13.51
-16.74
-20.39
-24.54
-29.21
-34.31
-39.60
-44.52
-48.24
-49.81
-48.45
-43.80
-36.13
-26.27
-15.37
-4.57
5.20
13.44
20.00
24.97
28.58
31.08
32.69
33.53
33.70
33.24
32.25
30.84
29.21
27.56
26.10
24.98
24.29
24.05
24.14
24.37
24.42
24.03
22.98
21.28
19.09
16.69
14.33
12.11
10.04
7.96
5.69
3.07
-0.01
-3.51
-7.28
-11.04
-14.50
-17.47
-20.06
-22.66
-25.86
-30.20
-35.80
-42.19
-48.25
-52.56
-53.81
-51.27
-45.02
-35.90
-25.26
-14.43
-4.48
3.99
10.82
16.06
19.87
22.39
23.79
24.25
23.99
23.23
22.18
20.98
19.68
18.33
16.98
15.76
14.88
14.58
15.00
16.12
17.73
19.46
20.92
21.82
22.00
21.48
20.38
18.90
17.23
15.58
14.01
12.50
10.87
8.89
6.41
3.46
0.25
-2.96
-5.97
-8.83
-11.76
-15.06
-18.91
-23.39
-28.41
-33.77
-39.12
-43.84
-47.11
-48.01
-45.82
-40.39
-32.25
-22.49
-12.40
-3.06
4.85
11.09
15.67
18.70
20.34
20.77
20.24
19.07
17.50
15.73
13.89
12.09
10.48
9.26
8.60
8.57
9.21
10.45
12.25
14.54
17.16
19.85
22.21
23.79
24.27
23.66
22.25
20.55
19.06
18.04
17.39
16.77
15.73
14.00
11.55
8.58
5.33
2.01
-1.35
-4.80
-8.41
-12.24
-16.36
-20.93
-26.10
-31.89
-37.92
-43.35
-46.97
-47.59
-44.54
-37.91
-28.67
-18.26
-8.20
0.42
7.13
11.98
15.35
17.60
18.99
19.61
19.51
18.81
17.74
16.63
15.75
15.26
15.10
15.13
15.18
15.24
15.36
15.66
16.13
16.63
16.87
16.56
15.53
13.84
11.75
9.55
7.45
5.50
3.54
1.35
-1.27
-4.33
-7.71
-11.13
-14.33
-17.15
-19.60
-21.91
-24.41
-27.43
-31.25
-35.95
-41.36
-47.00
-52.05
-55.47
-56.24
-53.64
-47.50
-38.32
-27.19
-15.44
-4.33
5.28
13.01
18.88
23.11
25.96
27.63
28.28
28.11
27.37
26.38
25.46
24.88
24.77
25.13
25.86
26.79
27.73
28.52
29.07
29.28
29.09
28.41
27.14
25.23
22.75
19.87
16.84
13.84
10.92
7.95
4.76
1.21
-2.63
-6.56
-10.31
-13.69
-16.65
-19.28
-21.78
-24.41
-27.43
-31.07
-35.36
-40.07
-44.53
-47.77
-48.76
-46.78
-41.67
-33.96
-24.68
-15.00
-5.93
1.91
8.27
13.16
16.70
19.05
20.37
20.85
20.69
20.11
19.32
18.48
17.67
16.97
16.44
16.18
16.25
16.68
17.40
18.19
18.79
18.91
18.36
17.11
15.30
13.17
10.93
8.73
6.56
4.32
1.91
-0.73
-3.57
-6.48
-9.36
-12.13
-14.77
-17.32
-19.86
-22.50
-25.41
-28.81
-32.82
-37.30
-41.70
-45.09
-46.39
-44.77
-40.00
-32.57
-23.52
-14.09
-5.28
2.31
8.50
13.33
16.90
19.32
20.70
21.21
21.07
20.50
19.64
18.55
17.25
15.83
14.46
13.39
12.80
12.75
13.08
13.53
13.80
13.69
13.12
12.14
10.81
9.17
7.18
4.79
2.00
-1.09
-4.31
-7.45
-10.39
-13.09
-15.60
-18.06
-20.67
-23.64
-27.17
-31.34
-35.97
-40.51
-44.14
-45.89
-45.01
-41.20
-34.73
-26.36
-17.07
-7.83
0.58
7.69
13.27
17.38
20.20
22.00
23.05
23.55
23.61
23.30
22.72
22.00
21.29
20.72
20.30
19.99
19.73
19.52
19.42
19.48
19.64
19.70
19.35
18.35
16.61
14.27
11.59
8.85
6.18
3.56
0.86
-2.04
-5.19
-8.49
-11.82
-15.04
-18.12
-21.12
-24.21
-27.57
-31.42
-35.84
-40.66
-45.40
-49.21
-51.11
-50.26
-46.30
-39.46
-30.58
-20.78
-11.13
-2.40
5.06
11.20
16.19
20.18
23.29
25.58
27.06
27.79
27.86
27.40
26.57
25.55
24.54
23.72
23.18
22.98
23.10
23.44
23.89
24.31
24.52
24.37
23.73
22.49
20.62
18.20
15.41
12.48
9.66
7.08
4.77
2.58
0.28
-2.37
-5.46
-8.93
-12.54
-15.98
-18.96
-21.39
-23.37
-25.18
-27.23
-29.90
-33.46
-37.89
-42.82
-47.56
-51.17
-52.71
-51.49
-47.28
-40.39
-31.59
-21.87
-12.21
-3.37
4.17
10.23
14.90
18.35
20.84
22.55
23.63
24.17
24.30
24.22
24.13
24.19
24.43
24.72
24.88
24.75
24.30
23.66
23.02
22.52
22.20
21.93
21.52
20.80
19.62
17.97
15.89
13.48
10.85
8.11
5.33
2.53
-0.32
-3.24
-6.23
-9.20
-12.01
-14.53
-16.68
-18.49
-20.09
-21.66
-23.45
-25.71
-28.65
-32.42
-36.93
-41.78
-46.19
-49.13
-49.62
-47.05
-41.42
-33.38
-24.00
-14.38
-5.41
2.37
8.74
13.70
17.33
19.74
21.08
21.57
21.51
21.21
20.92
20.77
20.71
20.59
20.26
19.67
18.94
18.35
18.20
18.73
19.98
21.83
24.13
26.77
29.64
32.61
35.38
37.52
38.62
38.52
37.34
35.46
33.25
30.95
28.49
25.76
22.64
19.20
15.56
11.77
7.66
2.94
-2.67
-9.25
-16.56
-24.18
-31.65
-38.57
-44.58
-49.29
-52.23
-52.89
-50.92
-46.36
-39.69
-31.75
-23.50
-15.71
-8.87
-3.11
1.59
5.34
8.15
9.97
10.80
10.72
10.02
9.12
8.43
8.21
8.50
9.09
9.64
9.91
9.85
9.61
9.42
9.45
9.67
9.86
9.74
9.15
8.11
6.81
5.56
4.55
3.81
3.18
2.38
1.15
-0.62
-2.89
-5.47
-8.13
-10.66
-12.97
-15.11
-17.20
-19.43
-22.02
-25.13
-28.80
-32.86
-36.82
-39.94
-41.40
-40.46
-36.73
-30.32
-21.79
-12.07
-2.21
6.79
14.26
19.83
23.52
25.58
26.34
26.11
25.08
23.36
21.10
18.52
15.91
13.53
11.52
9.90
8.54
7.34
6.26
5.36
4.68
4.19
3.78
3.25
2.43
1.29
-0.13
-1.66
-3.19
-4.66
-6.14
-7.67
-9.29
-10.96
-12.58
-14.04
-15.28
-16.34
-17.37
-18.61
-20.32
-22.70
-25.82
-29.50
-33.30
-36.49
-38.25
-37.85
-34.94
-29.62
-22.49
-14.45
-6.46
0.70
6.60
11.16
14.60
17.19
19.14
20.56
21.48
21.96
22.09
22.08
22.10
22.25
22.50
22.79
23.04
23.27
23.52
23.82
24.14
24.32
24.21
23.66
22.63
21.14
19.28
17.14
14.77
12.21
9.46
6.55
3.43
0.12
-3.35
-6.89
-10.33
-13.51
-16.32
-18.86
-21.40
-24.36
-28.10
-32.78
-38.18
-43.60
-48.06
-50.42
-49.78
-45.74
-38.50
-28.92
-18.19
-7.58
1.90
9.71
15.80
20.42
23.97
26.73
28.85
30.33
31.14
31.33
31.06
30.57
30.06
29.64
29.31
29.01
28.68
28.39
28.22
28.25
28.43
28.56
28.36
27.52
25.93
23.64
20.90
18.05
15.38
13.03
10.93
8.85
6.49
3.67
0.33
-3.36
-7.12
-10.61
-13.65
-16.23
-18.54
-20.89
-23.63
-27.08
-31.38
-36.50
-41.99
-47.08
-50.73
-51.91
-49.91
-44.68
-36.80
-27.34
-17.49
-8.26
-0.23
6.40
11.68
15.78
18.82
20.87
21.95
22.14
21.53
20.33
18.77
17.12
15.61
14.40
13.53
13.00
12.72
12.65
12.72
12.88
13.05
13.09
12.85
12.19
11.02
9.33
7.17
4.65
1.87
-1.06
-4.08
-7.10
-10.03
-12.80
-15.37
-17.86
-20.52
-23.65
-27.42
-31.71
-36.02
-39.46
-41.10
-40.19
-36.47
-30.22
-22.21
-13.40
-4.72
3.09
9.63
14.68
18.22
20.32
21.18
21.08
20.36
19.36
18.31
17.34
16.44
15.57
14.69
13.84
13.09
12.51
12.15
11.97
11.91
11.83
11.51
10.71
9.16
6.71
3.40
-0.50
-4.56
-8.32
-11.51
-14.11
-16.39
-18.77
-21.70
-25.49
-30.13
-35.31
-40.34
-44.30
-46.26
-45.51
-41.77
-35.34
-26.95
-17.62
-8.32
0.19
7.48
13.45
18.16
21.78
24.46
26.28
27.33
27.66
27.40
26.69
25.76
24.82
24.02
23.43
22.98
22.57
22.06
21.38
20.55
19.59
18.56
17.39
15.95
14.04
11.51
8.32
4.58
0.51
-3.58
-7.40
-10.79
-13.72
-16.31
-18.80
-21.53
-24.81
-28.85
-33.62
-38.77
-43.58
-47.15
-48.53
-47.00
-42.31
-34.75
-25.10
-14.42
-3.82
5.78
13.78
19.91
24.23
27.03
28.69
29.63
30.13
30.33
30.23
29.80
29.04
28.06
27.00
25.98
25.13
24.48
24.07
23.91
23.97
24.14
24.20
23.92
23.08
21.59
19.51
17.02
14.34
11.59
8.82
5.98
2.94
-0.38
-4.01
-7.85
-11.69
-15.34
-18.63
-21.57
-24.37
-27.32
-30.72
-34.76
-39.36
-44.10
-48.27
-50.97
-51.36
-48.89
-43.52
-35.75
-26.50
-16.86
-7.77
0.14
6.62
11.73
15.73
18.91
21.52
23.71
25.55
26.97
27.88
28.22
28.04
27.49
26.79
26.17
25.77
25.61
25.62
25.66
25.58
25.26
24.57
23.37
21.55
19.10
16.14
12.99
10.01
7.50
5.55
3.94
2.29
0.24
-2.42
-5.61
-9.04
-12.37
-15.41
-18.17
-20.86
-23.83
-27.36
-31.67
-36.75
-42.29
-47.70
-52.15
-54.72
-54.64
-51.64
-45.92
-38.21
-29.49
-20.64
-12.34
-4.93
1.46
6.78
11.05
14.37
16.87
18.74
20.10
20.94
21.20
20.79
19.76
18.33
16.80
15.48
14.53
13.98
13.72
13.61
13.50
13.22
12.55
11.34
9.47
7.05
4.30
1.57
-0.85
-2.74
-4.00
-4.69
-4.96
-5.07
-5.39
-6.19
-7.56
-9.32
-11.05
-12.41
-13.30
-14.05
-15.22
-17.17
-19.68
-21.86
-22.44
-20.35
-15.25
-7.64
1.45
10.90
19.95
28.22
35.56
41.74
46.40
49.05
49.44
47.82
45.07
42.50
41.38
42.45
45.51
49.46
52.55
53.19
50.50
44.69
36.85
28.25
19.77
11.42
2.52
-7.78
-20.08
-34.39
-50.31
-67.30
-84.92
-102.79
-120.54
-137.62
-153.22
-166.33
-175.82
-180.69
-180.16
-173.99
-162.56
-146.93
-128.69
-109.36
-90.03
-70.98
-51.76
-31.69
-10.45
11.50
32.90
52.11
67.77
79.26
86.88
91.52
94.23
95.75
96.33
95.91
94.38
91.85
88.66
85.28
82.05
79.10
76.35
73.55
70.49
67.05
63.26
59.27
55.29
51.46
47.78
44.09
40.09
35.50
30.19
24.34
18.34
12.67
7.69
3.51
0.01
-3.06
-5.99
-9.02
-12.34
-16.12
-20.46
-25.26
-30.11
-34.29
-36.90
-37.15
-34.64
-29.57
-22.65
-14.89
-7.18
-0.15
6.00
11.26
15.72
19.36
22.07
23.81
24.60
24.58
23.97
22.91
21.46
19.61
17.42
15.02
12.69
10.65
9.07
7.89
6.95
6.03
4.89
3.35
1.27
-1.44
-4.80
-8.68
-12.80
-16.74
-20.08
-22.53
-24.04
-24.91
-25.65
-26.88
-29.03
-32.25
-36.26
-40.41
-43.76
-45.39
-44.58
-41.00
-34.84
-26.65
-17.28
-7.62
1.51
9.53
16.10
21.14
24.71
27.00
28.21
28.54
28.16
27.28
26.09
24.85
23.77
23.00
22.56
22.36
22.24
22.05
21.73
21.28
20.72
20.06
19.20
17.97
16.20
13.78
10.80
7.48
4.08
0.84
-2.16
-4.99
-7.80
-10.78
-14.10
-17.89
-22.26
-27.22
-32.60
-37.90
-42.31
-44.82
-44.57
-41.14
-34.78
-26.38
-17.11
-8.08
-0.05
6.65
11.99
16.02
18.80
20.35
20.79
20.33
19.27
17.93
16.49
15.05
13.63
12.28
11.14
10.36
10.06
10.22
10.69
11.27
11.74
11.95
11.83
11.39
10.67
9.76
8.71
7.52
6.13
4.41
2.21
-0.51
-3.67
-7.03
-10.31
-13.27
-15.90
-18.40
-21.18
-24.70
-29.25
-34.82
-40.95
-46.71
-50.90
-52.33
-50.21
-44.43
-35.69
-25.20
-14.40
-4.42
4.15
11.28
17.28
22.48
27.05
30.95
34.08
36.35
37.83
38.72
39.26
39.64
39.91
40.04
39.93
39.51
38.74
37.63
36.19
34.39
32.12
29.25
25.66
21.34
16.43
11.28
6.34
2.07
-1.27
-3.71
-5.57
-7.35
-9.49
-12.18
-15.31
-18.55
-21.55
-24.12
-26.34
-28.47
-30.84
-33.73
-37.36
-41.72
-46.65
-51.68
-56.00
-58.67
-58.81
-55.88
-49.97
-41.77
-32.30
-22.63
-13.53
-5.42
1.58
7.52
12.44
16.39
19.37
21.45
22.73
23.36
23.55
23.51
23.45
23.45
23.57
23.74
23.97
24.30
24.84
25.71
26.88
28.16
29.15
29.48
28.92
27.52
25.55
23.34
21.16
19.08
16.98
14.63
11.82
8.45
4.57
0.34
-4.00
-8.27
-12.39
-16.51
-20.90
-25.92
-31.78
-38.38
-45.21
-51.36
-55.74
-57.34
-55.57
-50.39
-42.33
-32.31
-21.42
-10.72
-1.02
7.16
13.65
18.53
22.09
24.63
26.43
27.61
28.27
28.49
28.34
27.96
27.43
26.76
25.96
25.10
24.32
23.79
23.63
23.73
23.82
23.56
22.67
21.07
18.88
16.33
13.61
10.81
7.95
4.97
1.83
-1.48
-4.94
-8.52
-12.14
-15.73
-19.20
-22.54
-25.81
-29.15
-32.78
-36.92
-41.60
-46.55
-51.18
-54.58
-55.80
-54.16
-49.45
-42.07
-32.91
-23.06
-13.52
-4.98
2.19
7.88
12.16
15.14
16.92
17.69
17.63
17.03
16.22
15.57
15.36
15.79
16.80
18.15
19.48
20.48
20.90
20.70
19.95
18.78
17.35
15.72
13.94
12.00
9.90
7.58
5.05
2.38
-0.33
-2.93
-5.30
-7.38
-9.15
-10.70
-12.20
-13.92
-16.19
-19.24
-23.03
-27.10
-30.60
-32.43
-31.69
-27.97
-21.52
-13.19
-4.14
4.54
12.06
18.00
22.25
24.88
26.02
25.86
24.59
22.55
20.13
17.77
15.90
14.76
14.41
14.65
15.12
15.51
15.65
15.60
15.58
15.76
16.12
16.34
15.91
14.38
11.54
7.57
2.97
-1.66
-5.86
-9.46
-12.61
-15.62
-18.84
-22.50
-26.65
-31.16
-35.73
-39.88
-42.99
-44.41
-43.54
-40.10
-34.17
-26.30
-17.30
-8.11
0.45
7.78
13.57
17.75
20.42
21.79
22.12
21.64
20.56
19.05
17.26
15.34
13.44
11.70
10.15
8.83
7.70
6.75
5.94
5.25
4.59
3.84
2.86
1.51
-0.27
-2.49
-5.02
-7.71
-10.40
-12.98
-15.48
-18.04
-20.93
-24.43
-28.68
-33.51
-38.40
-42.46
-44.69
-44.25
-40.70
-34.25
-25.66
-16.06
-6.63
1.69
8.38
13.35
16.82
19.14
20.65
21.58
22.02
22.05
21.73
21.18
20.55
20.00
19.65
19.55
19.70
20.07
20.60
21.23
21.85
22.34
22.49
22.14
21.10
19.29
16.65
13.28
9.37
5.18
1.04
-2.78
-6.13
-8.98
-11.44
-13.72
-16.06
-18.77
-22.13
-26.32
-31.36
-36.86
-42.07
-45.93
-47.36
-45.63
-40.61
-32.84
-23.31
-13.22
-3.58
4.88
11.74
16.90
20.42
22.49
23.44
23.62
23.40
23.03
22.66
22.30
21.94
21.54
21.11
20.72
20.45
20.37
20.55
21.03
21.74
22.54
23.15
23.30
22.76
21.42
19.42
17.02
14.53
12.20
10.08
8.04
5.82
3.16
-0.05
-3.73
-7.60
-11.29
-14.48
-17.08
-19.26
-21.48
-24.31
-28.26
-33.44
-39.47
-45.43
-50.09
-52.24
-51.10
-46.52
-39.05
-29.73
-19.78
-10.27
-1.88
5.06
10.60
14.94
18.30
20.88
22.83
24.27
25.29
26.03
26.56
26.95
27.22
27.39
27.45
27.45
27.48
27.65
28.03
28.61
29.29
29.86
30.04
29.60
28.40
26.50
24.10
21.52
19.00
16.68
14.50
12.25
9.69
6.65
3.10
-0.80
-4.83
-8.76
-12.44
-15.89
-19.19
-22.48
-25.95
-29.72
-33.95
-38.67
-43.73
-48.70
-52.81
-55.09
-54.64
-50.94
-44.07
-34.71
-23.96
-13.05
-2.96
5.68
12.67
18.11
22.23
25.31
27.47
28.77
29.26
29.04
28.31
27.38
26.52
25.90
25.52
25.26
24.99
24.67
24.35
24.13
24.00
23.82
23.36
22.42
20.90
18.87
16.47
13.87
11.18
8.45
5.73
3.15
0.82
-1.21
-2.95
-4.59
-6.31
-8.26
-10.42
-12.66
-14.78
-16.67
-18.34
-19.98
-21.87
-24.31
-27.53
-31.58
-36.20
-40.79
-44.46
-46.23
-45.29
-41.29
-34.45
-25.51
-15.48
-5.44
3.75
11.52
17.62
22.03
24.99
26.78
27.75
28.15
28.14
27.76
26.98
25.84
24.41
22.87
21.38
20.10
19.11
18.37
17.84
17.33
16.71
15.76
14.37
12.40
9.85
6.77
3.27
-0.38
-3.94
-7.17
-10.00
-12.47
-14.78
-17.20
-19.85
-22.74
-25.66
-28.36
-30.64
-32.51
-34.16
-35.97
-38.30
-41.33
-45.00
-48.89
-52.26
-54.21
-53.87
-50.65
-44.45
-35.68
-25.23
-14.24
-3.81
5.26
12.57
18.11
22.18
25.09
27.10
28.33
28.77
28.46
27.44
25.93
24.19
22.49
21.02
19.87
19.00
18.33
17.74
17.14
16.47
15.66
14.69
13.47
11.96
10.14
8.01
5.63
3.03
0.31
-2.46
-5.17
-7.71
-9.96
-11.92
-13.68
-15.40
-17.36
-19.81
-22.97
-26.92
-31.51
-36.23
-40.30
-42.72
-42.62
-39.55
-33.65
-25.65
-16.64
-7.70
0.37
7.16
12.59
16.76
19.84
21.96
23.28
24.01
24.35
24.49
24.50
24.38
24.06
23.50
22.75
22.00
21.45
21.27
21.48
21.91
22.29
22.31
21.72
20.42
18.43
15.91
13.04
10.10
7.32
4.88
2.82
1.02
-0.74
-2.76
-5.22
-8.11
-11.24
-14.33
-17.16
-19.67
-21.98
-24.38
-27.14
-30.48
-34.43
-38.79
-43.04
-46.42
-48.04
-47.14
-43.34
-36.84
-28.37
-18.92
-9.56
-1.07
6.10
11.77
15.98
18.88
20.64
21.52
21.73
21.49
20.97
20.33
19.72
19.33
19.27
19.56
20.10
20.70
21.18
21.55
21.92
22.43
23.10
23.73
23.96
23.44
21.99
19.76
17.12
14.49
12.17
10.22
8.48
6.69
4.63
2.17
-0.69
-3.86
-7.19
-10.50
-13.69
-16.68
-19.52
-22.31
-25.25
-28.56
-32.42
-36.86
-41.60
-46.05
-49.34
-50.51
-48.82
-44.00
-36.35
-26.74
-16.35
-6.35
2.36
9.33
14.53
18.20
20.69
22.29
23.19
23.51
23.33
22.78
22.03
21.27
20.64
20.23
20.07
20.17
20.48
20.97
21.59
22.26
22.88
23.34
23.50
23.20
22.35
20.90
19.01
16.89
14.80
12.95
11.37
9.97
8.50
6.70
4.42
1.64
-1.48
-4.68
-7.74
-10.52
-13.05
-15.50
-18.11
-21.12
-24.76
-29.14
-34.26
-39.89
-45.50
-50.23
-53.02
-52.93
-49.44
-42.77
-33.73
-23.58
-13.58
-4.65
2.71
8.43
12.66
15.65
17.60
18.72
19.19
19.17
18.83
18.32
17.76
17.28
16.91
16.61
16.29
15.84
15.22
14.51
13.81
13.17
12.50
11.54
10.00
7.68
4.57
0.84
-3.25
-7.48
-11.74
-16.02
-20.36
-24.72
-29.01
-33.05
-36.71
-39.89
-42.58
-44.83
-46.67
-48.06
-48.93
-49.25
-49.11
-48.79
-48.66
-48.94
-49.48
-49.69
-48.59
-45.19
-38.87
-29.61
-17.93
-4.71
9.21
23.15
36.62
49.13
60.20
69.50
77.16
83.87
90.66
98.26
106.39
113.62
117.91
117.63
112.51
103.81
93.79
84.69
77.95
73.99
72.48
72.69
73.66
74.14
72.61
67.57
58.08
44.33
27.67
10.11
-6.36
-20.44
-31.61
-39.90
-45.57
-48.90
-50.27
-50.30
-49.87
-49.81
-50.49
-51.55
-51.98
-50.56
-46.46
-39.81
-31.75
-24.08
-18.52
-16.08
-16.61
-18.97
-21.55
-22.88
-22.13
-19.24
-14.88
-10.12
-6.19
-4.31
-5.53
-10.37
-18.48
-28.30
-37.09
-41.65
-39.33
-29.32
-13.15
5.50
22.20
33.31
37.33
35.17
29.40
22.92
17.69
14.26
12.07
10.25
8.36
6.49
4.94
3.76
2.54
0.58
-2.49
-6.47
-10.65
-14.29
-17.12
-19.45
-21.94
-25.14
-29.13
-33.53
-37.77
-41.42
-44.40
-46.90
-49.22
-51.76
-54.88
-58.86
-63.71
-68.93
-73.48
-76.02
-75.25
-70.56
-62.20
-51.22
-39.13
-27.32
-16.81
-8.09
-1.28
3.70
7.00
8.91
9.86
10.48
11.39
12.95
15.13
17.49
19.53
20.97
21.96
22.93
24.33
26.28
28.44
30.24
31.26
31.42
31.04
30.59
30.39
30.33
29.99
28.84
26.51
23.01
18.67
14.01
9.55
5.59
2.16
-1.05
-4.53
-8.82
-14.22
-20.58
-27.17
-32.80
-36.11
-35.98
-31.97
-24.45
-14.57
-3.98
5.64
12.96
17.28
18.67
17.82
15.87
14.03
13.21
13.83
15.68
18.03
19.87
20.27
18.81
15.73
11.89
8.47
6.55
6.69
8.78
12.14
15.77
18.75
20.47
20.71
19.52
17.16
13.89
9.97
5.70
1.37
-2.74
-6.41
-9.57
-12.28
-14.82
-17.51
-20.63
-24.28
-28.42
-32.91
-37.64
-42.53
-47.42
-51.84
-55.01
-55.92
-53.71
-48.05
-39.37
-28.74
-17.50
-6.88
2.40
10.06
16.18
20.95
24.54
27.08
28.71
29.61
29.96
29.98
29.81
29.53
29.21
28.88
28.59
28.45
28.58
29.03
29.76
30.60
31.28
31.61
31.44
30.77
29.67
28.16
26.21
23.75
20.77
17.35
13.68
9.99
6.43
3.02
-0.33
-3.65
-6.90
-10.00
-12.91
-15.79
-19.01
-23.06
-28.26
-34.58
-41.47
-47.93
-52.76
-54.93
-53.89
-49.68
-42.85
-34.18
-24.48
-14.37
-4.39
4.96
13.24
20.05
25.19
28.66
30.66
31.55
31.76
31.69
31.67
31.94
32.70
34.21
36.72
40.26
44.51
48.68
51.74
52.76
51.36
47.85
43.10
38.07
33.36
29.09
25.07
21.15
17.51
14.61
12.82
12.05
11.64
10.61
8.20
4.21
-0.78
-5.67
-9.41
-11.49
-12.23
-12.65
-14.00
-17.28
-22.84
-30.23
-38.32
-45.59
-50.50
-51.85
-49.11
-42.62
-33.49
-23.32
-13.60
-5.41
0.85
5.36
8.55
10.85
12.55
13.77
14.54
14.92
14.97
14.76
14.43
14.08
13.86
13.90
14.29
15.00
15.96
17.04
18.10
19.01
19.64
19.84
19.47
18.43
16.72
14.50
12.03
9.56
7.25
5.08
2.93
0.62
-1.97
-4.84
-7.91
-11.05
-14.10
-16.93
-19.42
-21.49
-23.17
-24.61
-26.13
-28.16
-31.13
-35.23
-40.16
-45.13
-48.89
-50.13
-47.93
-42.02
-32.93
-21.81
-10.00
1.25
11.06
18.95
24.71
28.35
30.01
29.94
28.50
26.18
23.51
20.95
18.86
17.40
16.53
16.10
15.89
15.76
15.68
15.75
16.11
16.81
17.75
18.64
19.13
18.95
17.96
16.26
14.08
11.71
9.39
7.23
5.17
3.01
0.51
-2.51
-6.06
-9.99
-14.00
-17.82
-21.22
-24.11
-26.53
-28.56
-30.39
-32.28
-34.56
-37.49
-41.06
-44.78
-47.69
-48.58
-46.45
-40.85
-32.13
-21.33
-9.75
1.34
11.08
18.99
24.91
28.90
31.14
31.93
31.63
30.63
29.23
27.57
25.67
23.47
21.02
18.47
16.11
14.27
13.23
13.11
13.85
15.22
16.84
18.28
19.10
19.00
17.91
16.03
13.73
11.41
9.32
7.48
5.72
3.79
1.54
-1.01
-3.70
-6.31
-8.64
-10.64
-12.42
-14.20
-16.26
-18.86
-22.12
-25.89
-29.74
-32.98
-34.74
-34.28
-31.08
-25.13
-16.90
-7.28
2.64
11.84
19.55
25.42
29.42
31.76
32.73
32.63
31.64
29.93
27.66
25.04
22.32
19.76
17.59
15.93
14.84
14.26
14.05
14.01
13.93
13.63
13.00
12.01
10.69
9.09
7.21
5.06
2.60
-0.15
-3.14
-6.30
-9.53
-12.71
-15.73
-18.45
-20.78
-22.73
-24.46
-26.31
-28.67
-31.84
-35.73
-39.86
-43.33
-45.09
-44.24
-40.35
-33.59
-24.73
-14.90
-5.27
3.22
10.03
15.05
18.42
20.40
21.21
21.04
20.00
18.31
16.21
14.01
11.95
10.11
8.41
6.73
4.99
3.26
1.71
0.54
-0.23
-0.78
-1.44
-2.56
-4.37
-6.85
-9.86
-13.12
-16.37
-19.45
-22.28
-24.93
-27.52
-30.22
-33.21
-36.64
-40.51
-44.65
-48.57
-51.55
-52.73
-51.32
-46.93
-39.69
-30.29
-19.76
-9.21
0.45
8.68
15.27
20.22
23.65
25.69
26.49
26.27
25.32
23.92
22.31
20.63
18.92
17.21
15.56
14.14
13.13
12.62
12.57
12.76
12.84
12.41
11.19
9.04
6.03
2.39
-1.53
-5.36
-8.84
-11.86
-14.55
-17.23
-20.30
-24.07
-28.56
-33.34
-37.53
-40.04
-39.83
-36.36
-29.74
-20.77
-10.60
-0.45
8.74
16.44
22.50
27.02
30.23
32.37
33.66
34.29
34.40
34.06
33.29
32.12
30.64
28.96
27.24
25.63
24.22
23.08
22.22
21.62
21.15
20.61
19.72
18.17
15.76
12.44
8.35
3.78
-0.92
-5.39
-9.40
-12.83
-15.76
-18.44
-21.29
-24.78
-29.25
-34.73
-40.81
-46.60
-50.99
-52.88
-51.55
-46.86
-39.26
-29.64
-19.15
-8.90
0.25
7.77
13.52
17.62
20.39
22.12
23.11
23.52
23.45
22.90
21.85
20.34
18.44
16.32
14.16
12.16
10.44
9.11
8.30
8.14
8.73
10.07
11.95
13.98
15.63
16.51
16.46
15.67
14.55
13.47
12.58
11.69
10.47
8.62
6.04
2.94
-0.29
-3.27
-5.82
-8.02
-10.22
-12.85
-16.35
-21.00
-26.79
-33.32
-39.73
-44.90
-47.68
-47.26
-43.47
-36.80
-28.19
-18.72
-9.28
-0.53
7.03
13.07
17.39
20.04
21.38
22.02
22.53
23.20
23.99
24.58
24.71
24.34
23.68
23.03
22.61
22.40
22.29
22.15
21.94
21.69
21.41
20.99
20.25
18.99
17.08
14.59
11.74
8.85
6.27
4.21
2.70
1.55
0.43
-1.02
-3.05
-5.62
-8.51
-11.36
-13.91
-16.10
-18.12
-20.34
-23.15
-26.83
-31.40
-36.57
-41.71
-45.92
-48.24
-47.83
-44.29
-37.81
-29.11
-19.34
-9.68
-1.08
5.98
11.47
15.65
18.90
21.50
23.57
25.07
25.92
26.04
25.50
24.53
23.45
22.56
22.09
22.10
22.49
23.10
23.73
24.21
24.45
24.39
23.99
23.26
22.16
20.74
19.03
17.12
15.08
13.01
10.97
8.95
6.90
4.66
2.09
-0.88
-4.19
-7.62
-10.88
-13.73
-16.08
-17.97
-19.57
-21.10
-22.77
-24.81
-27.45
-30.88
-35.09
-39.73
-44.02
-46.89
-47.27
-44.48
-38.52
-30.10
-20.41
-10.76
-2.17
4.82
10.16
14.10
16.98
19.02
20.35
21.03
21.16
20.93
20.56
20.26
20.13
20.12
20.13
20.08
19.99
19.95
20.10
20.53
21.17
21.85
22.37
22.50
22.10
21.07
19.41
17.16
14.47
11.56
8.71
6.16
4.01
2.23
0.62
-1.06
-3.03
-5.36
-8.01
-10.81
-13.61
-16.31
-18.84
-21.19
-23.38
-25.49
-27.69
-30.23
-33.34
-36.98
-40.76
-43.85
-45.22
-43.97
-39.66
-32.52
-23.40
-13.50
-4.02
4.18
10.62
15.29
18.42
20.38
21.49
21.95
21.88
21.36
20.53
19.56
18.70
18.11
17.83
17.79
17.83
17.81
17.73
17.70
17.85
18.21
18.63
18.79
18.37
17.21
15.40
13.21
11.00
8.98
7.17
5.39
3.38
0.98
-1.81
-4.84
-7.87
-10.72
-13.30
-15.61
-17.77
-19.94
-22.28
-24.92
-27.95
-31.40
-35.14
-38.81
-41.84
-43.48
-43.02
-39.98
-34.36
-26.63
-17.67
-8.55
-0.22
6.69
11.90
15.44
17.57
18.57
18.68
18.11
16.99
15.52
13.88
12.34
11.14
10.41
10.15
10.24
10.49
10.73
10.88
10.91
10.89
10.81
10.62
10.19
9.32
7.81
5.60
2.78
-0.39
-3.55
-6.37
-8.69
-10.58
-12.27
-14.08
-16.32
-19.22
-22.86
-27.21
-32.03
-36.78
-40.66
-42.71
-42.12
-38.51
-32.14
-23.85
-14.82
-6.18
1.28
7.25
11.83
15.28
17.85
19.66
20.72
21.02
20.61
19.66
18.40
17.06
15.81
14.77
13.99
13.52
13.32
13.37
13.57
13.80
13.95
13.90
13.54
12.76
11.44
9.49
6.91
3.79
0.34
-3.17
-6.49
-9.48
-12.12
-14.59
-17.14
-20.07
-23.60
-27.87
-32.80
-38.05
-42.98
-46.74
-48.43
-47.37
-43.36
-36.76
-28.41
-19.38
-10.65
-2.93
3.43
8.36
11.96
14.44
16.02
16.92
17.38
17.54
17.52
17.38
17.17
16.95
16.81
16.79
16.96
17.30
17.80
18.42
19.07
19.62
19.90
19.74
18.95
17.47
15.30
12.57
9.50
6.36
3.34
0.51
-2.16
-4.79
-7.49
-10.32
-13.29
-16.39
-19.73
-23.48
-27.83
-32.80
-38.07
-42.91
-46.30
-47.23
-45.01
-39.55
-31.40
-21.56
-11.21
-1.34
7.38
14.66
20.42
24.71
27.65
29.43
30.27
30.49
30.40
30.26
30.18
30.14
30.08
29.90
29.62
29.30
29.06
28.97
29.03
29.17
29.28
29.21
28.84
28.07
26.80
24.99
22.65
19.91
16.97
14.05
11.32
8.85
6.56
4.32
1.94
-0.73
-3.70
-6.93
-10.29
-13.58
-16.70
-19.56
-22.21
-24.82
-27.65
-30.99
-35.08
-39.93
-45.25
-50.36
-54.27
-55.94
-54.54
-49.75
-41.88
-31.77
-20.60
-9.51
0.53
8.99
15.67
20.66
24.16
26.42
27.65
28.04
27.78
27.13
26.36
25.71
25.35
25.31
25.50
25.79
26.08
26.36
26.64
26.93
27.17
27.23
26.98
26.35
25.31
23.91
22.14
20.02
17.52
14.70
11.66
8.58
5.59
2.75
0.05
-2.58
-5.17
-7.76
-10.33
-12.87
-15.39
-17.86
-20.24
-22.50
-24.74
-27.15
-30.03
-33.65
-38.02
-42.70
-46.84
-49.29
-49.03
-45.51
-38.91
-30.04
-20.12
-10.34
-1.56
5.79
11.64
16.08
19.19
21.04
21.71
21.42
20.52
19.41
18.40
17.62
17.07
16.62
16.21
15.85
15.71
15.95
16.60
17.53
18.42
18.95
18.88
18.18
16.95
15.39
13.61
11.61
9.34
6.77
3.98
1.11
-1.70
-4.38
-6.96
-9.49
-11.98
-14.36
-16.58
-18.73
-21.04
-23.90
-27.64
-32.32
-37.52
-42.43
-45.95
-47.06
-45.09
-39.97
-32.22
-22.83
-12.93
-3.61
4.41
10.77
15.49
18.84
21.12
22.59
23.37
23.51
23.04
22.12
20.97
19.85
18.96
18.40
18.15
18.20
18.52
19.08
19.82
20.52
20.98
20.97
20.38
19.26
17.73
15.88
13.78
11.51
9.17
6.89
4.75
2.70
0.54
-2.01
-5.09
-8.60
-12.17
-15.39
-17.97
-19.93
-21.60
-23.47
-26.02
-29.54
-34.06
-39.28
-44.61
-49.17
-51.96
-52.07
-48.98
-42.72
-33.94
-23.70
-13.16
-3.33
5.16
12.05
17.35
21.18
23.69
25.06
25.48
25.24
24.57
23.69
22.71
21.65
20.54
19.46
18.55
17.98
17.88
18.24
18.87
19.49
19.83
19.67
18.90
17.51
15.56
13.19
10.56
7.88
5.27
2.74
0.18
-2.60
-5.69
-9.03
-12.37
-15.38
-17.85
-19.76
-21.39
-23.17
-25.52
-28.82
-33.14
-38.19
-43.28
-47.39
-49.40
-48.41
-44.03
-36.56
-26.93
-16.39
-6.18
2.79
10.08
15.64
19.64
22.34
23.96
24.66
24.59
23.93
22.87
21.64
20.47
19.55
19.01
18.84
19.00
19.36
19.82
20.31
20.80
21.22
21.47
21.40
20.78
19.45
17.38
14.71
11.73
8.79
6.19
4.02
2.21
0.53
-1.30
-3.49
-6.14
-9.19
-12.49
-15.84
-19.03
-21.94
-24.53
-26.92
-29.39
-32.30
-35.98
-40.50
-45.48
-50.03
-52.95
-53.05
-49.59
-42.61
-32.91
-21.77
-10.58
-0.39
8.21
15.08
20.31
24.07
26.53
27.86
28.33
28.24
27.93
27.63
27.43
27.29
27.14
26.91
26.61
26.31
26.08
25.96
25.95
26.00
25.98
25.76
25.20
24.19
22.67
20.62
18.10
15.20
12.04
8.76
5.46
2.25
-0.82
-3.75
-6.58
-9.39
-12.24
-15.15
-18.05
-20.77
-23.14
-25.04
-26.50
-27.71
-29.01
-30.78
-33.35
-36.86
-41.12
-45.57
-49.28
-51.16
-50.19
-45.83
-38.19
-28.13
-16.97
-6.10
3.42
11.08
16.85
20.98
23.79
25.47
26.19
26.04
25.25
24.12
22.98
22.12
21.72
21.77
22.18
22.81
23.50
24.14
24.65
25.00
25.17
25.16
24.91
24.33
23.32
21.79
19.71
17.22
14.48
11.75
9.17
6.76
4.41
1.87
-1.05
-4.40
-8.07
-11.75
-15.11
-17.92
-20.14
-22.00
-23.84
-26.14
-29.27
-33.47
-38.69
-44.49
-50.08
-54.33
-56.03
-54.27
-48.72
-39.82
-28.70
-16.79
-5.45
4.41
12.39
18.51
22.94
25.92
27.66
28.39
28.39
28.00
27.51
27.12
26.87
26.73
26.62
26.53
26.53
26.73
27.16
27.80
28.49
29.02
29.18
28.82
27.89
26.39
24.38
21.94
19.15
16.17
13.18
10.38
7.87
5.66
3.61
1.49
-0.90
-3.71
-6.92
-10.36
-13.76
-16.91
-19.68
-22.08
-24.33
-26.71
-29.59
-33.26
-37.84
-43.15
-48.60
-53.19
-55.78
-55.29
-51.16
-43.53
-33.29
-21.78
-10.41
-0.25
8.10
14.54
19.23
22.49
24.60
25.82
26.35
26.38
26.08
25.54
24.84
24.05
23.23
22.46
21.81
21.33
21.09
21.11
21.40
21.88
22.34
22.47
21.98
20.68
18.60
15.97
13.17
10.49
8.11
6.00
3.99
1.87
-0.57
-3.40
-6.59
-9.95
-13.21
-16.07
-18.31
-19.92
-21.14
-22.43
-24.39
-27.49
-31.94
-37.46
-43.20
-47.98
-50.48
-49.73
-45.41
-37.98
-28.47
-18.15
-8.15
0.76
8.20
14.08
18.40
21.31
23.01
23.85
24.16
24.21
24.12
23.88
23.43
22.81
22.17
21.70
21.61
21.93
22.55
23.27
23.85
24.13
24.04
23.58
22.73
21.46
19.73
17.58
15.09
12.49
9.97
7.66
5.54
3.43
1.12
-1.51
-4.48
-7.65
-10.87
-13.95
-16.77
-19.24
-21.34
-23.17
-24.99
-27.22
-30.34
-34.63
-40.00
-45.77
-50.82
-53.82
-53.67
-49.84
-42.59
-32.88
-22.03
-11.37
-1.88
5.97
12.09
16.68
19.99
22.25
23.62
24.27
24.35
24.01
23.41
22.68
21.93
21.31
20.96
20.97
21.40
22.19
23.17
24.15
24.92
25.32
25.27
24.73
23.70
22.20
20.28
18.02
15.55
13.02
10.57
8.29
6.16
4.10
1.93
-0.46
-3.13
-6.05
-9.12
-12.20
-15.17
-17.93
-20.43
-22.70
-24.85
-27.12
-29.87
-33.50
-38.17
-43.62
-49.08
-53.36
-55.17
-53.60
-48.38
-40.00
-29.55
-18.34
-7.61
1.77
9.31
14.94
18.83
21.34
22.86
23.76
24.27
24.47
24.37
23.94
23.25
22.46
21.76
21.33
21.24
21.47
21.92
22.44
22.93
23.31
23.51
23.46
23.09
22.27
20.91
18.96
16.52
13.76
10.95
8.34
6.04
4.03
2.15
0.15
-2.20
-5.00
-8.19
-11.56
-14.88
-17.93
-20.66
-23.11
-25.41
-27.72
-30.24
-33.25
-37.00
-41.59
-46.73
-51.61
-55.01
-55.67
-52.76
-46.18
-36.71
-25.65
-14.42
-4.18
4.44
11.25
16.35
20.04
22.61
24.30
25.30
25.69
25.54
24.93
24.05
23.11
22.37
21.95
21.89
22.12
22.52
23.03
23.60
24.18
24.68
24.97
24.82
24.04
22.53
20.34
17.66
14.79
12.01
9.51
7.31
5.25
3.13
0.76
-1.91
-4.85
-7.91
-10.95
-13.86
-16.59
-19.17
-21.71
-24.37
-27.32
-30.74
-34.77
-39.43
-44.47
-49.25
-52.80
-53.96
-51.85
-46.18
-37.43
-26.72
-15.45
-4.85
4.33
11.81
17.64
21.99
24.98
26.71
27.37
27.26
26.77
26.27
25.92
25.72
25.53
25.22
24.77
24.32
24.06
24.11
24.42
24.81
25.01
24.79
24.07
22.89
21.34
19.50
17.45
15.18
12.74
10.18
7.57
5.04
2.65
0.41
-1.75
-4.02
-6.57
-9.53
-12.83
-16.27
-19.51
-22.29
-24.54
-26.40
-28.21
-30.40
-33.33
-37.19
-41.91
-47.03
-51.76
-55.02
-55.74
-53.15
-47.09
-38.08
-27.22
-15.83
-5.12
4.11
11.50
17.09
21.08
23.77
25.41
26.29
26.65
26.74
26.70
26.58
26.36
26.04
25.67
25.37
25.27
25.48
25.99
26.69
27.42
28.01
28.25
27.97
27.08
25.56
23.51
21.15
18.73
16.41
14.18
11.95
9.62
7.17
4.74
2.44
0.29
-1.86
-4.27
-7.18
-10.60
-14.32
-18.04
-21.49
-24.59
-27.40
-30.09
-32.84
-35.75
-38.94
-42.53
-46.50
-50.61
-54.14
-56.06
-55.21
-50.80
-42.75
-31.88
-19.62
-7.56
3.07
11.65
18.19
23.02
26.56
29.05
30.60
31.27
31.20
30.63
29.84
29.05
28.37
27.76
27.18
26.59
26.08
25.82
25.98
26.64
27.64
28.67
29.28
29.11
28.02
26.10
23.71
21.28
19.12
17.29
15.66
13.96
11.94
9.54
6.88
4.16
1.58
-0.76
-2.91
-5.05
-7.39
-10.09
-13.17
-16.53
-19.94
-23.18
-26.06
-28.54
-30.74
-32.91
-35.39
-38.53
-42.54
-47.38
-52.57
-57.23
-60.14
-60.14
-56.53
-49.28
-39.15
-27.44
-15.54
-4.61
4.65
12.03
17.66
21.78
24.65
26.51
27.55
27.95
27.90
27.52
26.96
26.36
25.81
25.41
25.23
25.32
25.68
26.28
26.96
27.57
27.88
27.76
27.16
26.16
24.85
23.33
21.59
19.60
17.30
14.69
11.84
8.89
6.02
3.38
1.02
-1.04
-2.90
-4.74
-6.73
-9.06
-11.81
-14.95
-18.31
-21.62
-24.65
-27.28
-29.60
-31.90
-34.63
-38.18
-42.72
-47.94
-52.98
-56.60
-57.57
-55.04
-48.92
-39.89
-29.17
-18.08
-7.74
1.25
8.66
14.56
19.09
22.42
24.72
26.16
26.93
27.21
27.15
26.84
26.38
25.87
25.44
25.22
25.31
25.72
26.45
27.42
28.52
29.58
30.42
30.83
30.67
29.90
28.53
26.71
24.63
22.52
20.55
18.81
17.28
15.86
14.46
13.01
11.53
10.03
8.52
6.86
4.91
2.54
-0.21
-3.15
-5.96
-8.29
-9.94
-10.96
-11.69
-12.60
-14.12
-16.48
-19.61
-23.15
-26.62
-29.59
-31.82
-33.33
-34.41
-35.52
-37.21
-39.92
-43.88
-48.85
-54.09
-58.36
-60.32
-58.86
-53.55
-44.80
-33.74
-21.85
-10.50
-0.64
7.32
13.38
17.82
20.96
23.12
24.57
25.58
26.31
26.87
27.25
27.39
27.24
26.83
26.26
25.72
25.41
25.47
25.90
26.59
27.30
27.76
27.70
26.96
25.51
23.50
21.14
18.73
16.48
14.49
12.72
11.00
9.12
6.97
4.57
2.10
-0.26
-2.37
-4.28
-6.19
-8.36
-10.92
-13.86
-16.98
-19.99
-22.68
-24.92
-26.83
-28.66
-30.75
-33.48
-37.13
-41.75
-47.04
-52.25
-56.30
-57.99
-56.36
-51.09
-42.52
-31.68
-19.92
-8.58
1.37
9.42
15.53
19.99
23.18
25.44
27.01
28.00
28.46
28.46
28.12
27.60
27.07
26.61
26.21
25.82
25.40
24.98
24.68
24.60
24.79
25.15
25.48
25.50
24.99
23.81
21.95
19.51
16.65
13.58
10.54
7.71
5.21
3.00
0.91
-1.26
-3.71
-6.47
-9.41
-12.30
-14.96
-17.31
-19.49
-21.79
-24.52
-27.95
-32.21
-37.21
-42.52
-47.39
-50.81
-51.72
-49.39
-43.68
-35.12
-24.80
-13.98
-3.84
4.87
11.82
16.98
20.50
22.58
23.45
23.36
22.59
21.41
20.06
18.68
17.34
16.10
15.04
14.26
13.86
13.91
14.37
15.08
15.81
16.32
16.44
16.10
15.32
14.09
12.37
10.11
7.28
3.97
0.42
-3.10
-6.32
-9.13
-11.63
-14.02
-16.65
-19.84
-23.82
-28.64
-34.09
-39.61
-44.33
-47.24
-47.45
-44.48
-38.43
-29.92
-19.98
-9.77
-0.28
7.74
13.96
18.37
21.28
23.13
24.34
25.23
25.87
26.19
26.07
25.46
24.48
23.35
22.31
21.53
21.09
20.98
21.14
21.46
21.80
21.94
21.62
20.63
18.88
16.44
13.56
10.55
7.67
5.03
2.56
0.06
-2.68
-5.75
-9.10
-12.52
-15.74
-18.61
-21.13
-23.55
-26.27
-29.75
-34.24
-39.65
-45.42
-50.51
-53.73
-54.00
-50.78
-44.26
-35.29
-25.08
-14.82
-5.38
2.78
9.55
14.94
19.07
22.06
24.11
25.50
26.47
27.21
27.78
28.13
28.23
28.08
27.74
27.34
26.98
26.75
26.68
26.76
26.92
26.97
26.65
25.69
23.92
21.37
18.29
15.04
11.99
9.31
6.98
4.75
2.30
-0.61
-4.05
-7.91
-11.88
-15.63
-18.91
-21.64
-23.95
-26.20
-28.85
-32.34
-36.87
-42.21
-47.67
-52.13
-54.37
-53.45
-49.02
-41.49
-31.87
-21.44
-11.32
-2.27
5.46
11.91
17.26
21.66
25.19
27.90
29.83
31.00
31.46
31.31
30.76
30.15
29.90
30.33
31.52
33.25
35.01
36.26
36.61
35.95
34.46
32.41
30.06
27.54
24.90
22.21
19.57
17.12
14.91
12.91
10.95
8.83
6.41
3.69
0.83
-1.97
-4.57
-6.97
-9.30
-11.70
-14.26
-16.92
-19.51
-21.89
-24.03
-26.09
-28.45
-31.50
-35.55
-40.59
-46.16
-51.38
-55.10
-56.23
-54.08
-48.55
-40.21
-30.06
-19.32
-9.06
-0.12
7.11
12.56
16.46
19.20
21.15
22.57
23.49
23.87
23.64
22.86
21.78
20.73
20.02
19.81
20.04
20.55
21.09
21.50
21.66
21.55
21.13
20.38
19.22
17.61
15.54
13.09
10.40
7.59
4.73
1.82
-1.19
-4.31
-7.47
-10.54
-13.42
-16.20
-19.11
-22.54
-26.77
-31.86
-37.42
-42.70
-46.65
-48.24
-46.79
-42.15
-34.77
-25.62
-15.84
-6.50
1.64
8.19
13.11
16.58
18.90
20.34
21.10
21.33
21.10
20.49
19.57
18.51
17.48
16.67
16.22
16.16
16.42
16.88
17.37
17.75
17.88
17.63
16.87
15.46
13.33
10.51
7.15
3.52
-0.10
-3.47
-6.51
-9.30
-12.02
-14.88
-18.08
-21.76
-26.07
-31.03
-36.48
-41.91
-46.45
-49.07
-48.84
-45.33
-38.79
-30.06
-20.31
-10.68
-1.95
5.46
11.47
16.10
19.47
21.75
23.15
23.93
24.34
24.48
24.37
23.97
23.27
22.34
21.30
20.21
19.04
17.72
16.10
14.13
11.80
9.16
6.23
2.99
-0.63
-4.65
-8.98
-13.39
-17.64
-21.52
-25.00
-28.24
-31.55
-35.24
-39.54
-44.52
-49.98
-55.48
-60.33
-63.70
-64.70
-62.71
-57.52
-49.50
-39.51
-28.71
-18.18
-8.67
-0.46
6.62
12.93
18.79
24.36
29.57
34.21
38.06
41.09
43.41
45.36
47.31
49.58
52.36
55.65
59.27
62.87
65.95
67.88
68.00
65.84
61.24
54.48
46.28
37.55
29.22
21.93
15.96
11.17
7.16
3.44
-0.38
-4.44
-8.64
-12.69
-16.34
-19.50
-22.36
-25.36
-28.97
-33.47
-38.73
-44.17
-48.87
-51.81
-52.16
-49.51
-43.96
-36.05
-26.62
-16.63
-6.94
1.79
9.17
15.06
19.56
22.92
25.37
27.10
28.15
28.49
28.09
27.08
25.76
24.52
23.73
23.55
23.95
24.66
25.38
25.86
25.99
25.78
25.27
24.49
23.38
21.81
19.71
17.05
13.90
10.45
6.94
3.56
0.47
-2.21
-4.49
-6.45
-8.28
-10.24
-12.56
-15.32
-18.39
-21.48
-24.22
-26.38
-28.02
-29.45
-31.16
-33.56
-36.83
-40.74
-44.67
-47.74
-48.98
-47.60
-43.28
-36.21
-27.13
-17.03
-6.96
2.28
10.24
16.75
21.87
25.72
28.44
30.17
31.05
31.23
30.88
30.17
29.26
28.28
27.31
26.43
25.66
25.02
24.52
24.17
23.95
23.81
23.65
23.33
22.70
21.60
19.90
17.60
14.81
11.74
8.67
5.82
3.28
0.99
-1.24
-3.57
-6.09
-8.76
-11.40
-13.83
-15.87
-17.48
-18.75
-19.91
-21.22
-22.96
-25.33
-28.39
-32.06
-36.02
-39.72
-42.38
-43.13
-41.26
-36.45
-29.01
-19.80
-10.01
-0.81
6.94
12.89
17.13
19.97
21.75
22.70
22.89
22.38
21.29
19.89
18.56
17.66
17.32
17.40
17.52
17.29
16.60
15.68
15.00
15.06
15.97
17.40
18.61
18.85
17.71
15.34
12.35
9.52
7.43
6.15
5.32
4.27
2.35
-0.79
-5.19
-10.61
-16.57
-22.41
-27.16
-29.68
-29.05
-25.13
-19.01
-12.92
-9.42
-10.27
-15.58
-23.65
-31.67
-37.02
-38.26
-35.44
-29.68
-22.28
-14.15
-5.67
2.97
11.28
18.47
23.69
26.43
26.77
25.37
23.18
21.01
19.35
18.25
17.47
16.66
15.61
14.26
12.80
11.50
10.60
10.17
10.06
10.02
9.74
9.00
7.73
6.00
3.90
1.52
-1.11
-3.98
-7.08
-10.30
-13.53
-16.62
-19.45
-22.03
-24.51
-27.17
-30.29
-33.97
-37.97
-41.65
-44.12
-44.54
-42.36
-37.58
-30.71
-22.60
-14.22
-6.39
0.37
5.82
9.96
12.95
15.01
16.36
17.14
17.43
17.20
16.38
14.85
12.54
9.51
6.01
2.55
-0.23
-1.74
-1.72
-0.44
1.33
2.53
2.29
0.28
-3.19
-7.26
-10.92
-13.41
-14.46
-14.33
-13.60
-13.01
-13.22
-14.69
-17.66
-22.08
-27.62
-33.63
-39.14
-43.06
-44.42
-42.68
-37.97
-31.07
-23.21
-15.58
-9.01
-3.73
0.50
4.13
7.41
10.31
12.55
13.86
14.20
13.86
13.34
13.12
13.49
14.40
15.54
16.50
16.88
16.49
15.36
13.76
12.08
10.73
9.96
9.71
9.66
9.30
8.20
6.18
3.39
0.27
-2.70
-5.27
-7.45
-9.58
-12.04
-15.18
-19.12
-23.71
-28.57
-33.10
-36.57
-38.23
-37.47
-34.03
-28.08
-20.25
-11.43
-2.57
5.49
12.23
17.41
21.12
23.59
25.16
26.12
26.63
26.69
26.21
25.11
23.44
21.42
19.38
17.66
16.50
15.97
15.99
16.37
16.85
17.19
17.18
16.68
15.60
14.01
12.05
9.89
7.68
5.44
3.15
0.77
-1.72
-4.22
-6.65
-8.99
-11.33
-13.88
-16.88
-20.53
-24.85
-29.64
-34.43
-38.54
-41.18
-41.64
-39.50
-34.72
-27.73
-19.28
-10.30
-1.60
6.18
12.71
17.87
21.72
24.37
25.98
26.73
26.83
26.51
25.95
25.31
24.68
24.07
23.47
22.89
22.37
21.99
21.84
21.95
22.23
22.44
22.25
21.34
19.54
16.93
13.82
10.67
7.83
5.45
3.41
1.39
-0.87
-3.51
-6.44
-9.43
-12.27
-14.83
-17.15
-19.41
-21.85
-24.71
-28.18
-32.32
-36.94
-41.50
-45.22
-47.15
-46.53
-42.96
-36.65
-28.27
-18.80
-9.22
-0.30
7.50
13.98
19.13
23.01
25.65
27.12
27.50
26.99
25.86
24.45
23.03
21.84
20.95
20.36
20.03
19.93
20.06
20.39
20.88
21.37
21.65
21.49
20.68
19.15
16.97
14.39
11.74
9.30
7.25
5.54
3.95
2.21
0.07
-2.58
-5.71
-9.13
-12.61
-15.87
-18.75
-21.18
-23.30
-25.45
-28.06
-31.44
-35.61
-40.13
-44.15
-46.60
-46.57
-43.59
-37.77
-29.76
-20.56
-11.19
-2.53
4.88
10.82
15.36
18.75
21.29
23.22
24.68
25.67
26.18
26.21
25.89
25.46
25.15
25.11
25.35
25.73
26.13
26.47
26.75
27.00
27.20
27.21
26.81
25.82
24.14
21.84
19.11
16.20
13.34
10.67
8.24
5.96
3.67
1.23
-1.47
-4.38
-7.33
-10.08
-12.49
-14.55
-16.43
-18.43
-20.82
-23.79
-27.44
-31.73
-36.46
-41.17
-45.18
-47.59
-47.61
-44.75
-39.10
-31.28
-22.28
-13.11
-4.56
2.97
9.30
14.43
18.35
21.05
22.59
23.11
22.85
22.08
21.05
19.95
18.93
18.07
17.46
17.14
17.08
17.20
17.36
17.41
17.21
16.65
15.65
14.19
12.32
10.14
7.78
5.40
3.10
0.93
-1.07
-2.93
-4.72
-6.51
-8.42
-10.46
-12.59
-14.65
-16.46
-17.92
-19.08
-20.17
-21.50
-23.32
-25.77
-28.82
-32.24
-35.67
-38.62
-40.48
-40.64
-38.60
-34.16
-27.50
-19.24
-10.26
-1.52
6.23
12.54
17.31
20.68
22.85
24.01
24.27
23.76
22.63
21.14
19.55
18.11
16.99
16.26
15.94
16.00
16.38
17.00
17.70
18.31
18.60
18.37
17.51
16.01
14.01
11.70
9.33
7.10
5.05
3.10
1.04
-1.34
-4.16
-7.34
-10.68
-13.88
-16.71
-19.08
-21.09
-23.02
-25.27
-28.17
-31.88
-36.18
-40.46
-43.77
-45.12
-43.77
-39.45
-32.50
-23.74
-14.26
-5.05
3.11
9.78
14.85
18.41
20.69
21.99
22.64
22.94
23.11
23.23
23.30
23.24
23.00
22.61
22.13
21.69
21.36
21.19
21.13
21.11
21.03
20.75
20.13
19.02
17.37
15.21
12.74
10.20
7.87
5.88
4.23
2.78
1.28
-0.48
-2.64
-5.14
-7.81
-10.38
-12.61
-14.41
-15.90
-17.47
-19.60
-22.72
-27.02
-32.24
-37.67
-42.32
-45.11
-45.20
-42.19
-36.28
-28.12
-18.71
-9.10
-0.21
7.33
13.24
17.55
20.48
22.34
23.42
23.93
23.98
23.66
23.05
22.24
21.37
20.51
19.71
18.99
18.40
18.01
17.92
18.12
18.52
18.87
18.88
18.30
16.99
14.98
12.49
9.83
7.28
5.09
3.28
1.70
0.09
-1.81
-4.14
-6.84
-9.69
-12.40
-14.79
-16.83
-18.62
-20.37
-22.25
-24.46
-27.17
-30.49
-34.43
-38.66
-42.56
-45.21
-45.72
-43.46
-38.36
-30.87
-21.81
-12.14
-2.70
5.90
13.22
19.00
23.12
25.62
26.72
26.75
26.11
25.13
24.07
23.08
22.22
21.51
20.97
20.55
20.24
20.01
19.88
19.83
19.78
19.63
19.21
18.37
17.04
15.27
13.20
10.99
8.79
6.63
4.45
2.16
-0.36
-3.15
-6.17
-9.30
-12.33
-15.10
-17.46
-19.44
-21.24
-23.22
-25.80
-29.27
-33.55
-38.12
-42.07
-44.31
-43.96
-40.63
-34.52
-26.39
-17.25
-8.09
0.31
7.47
13.16
17.32
20.00
21.38
21.74
21.39
20.63
19.69
18.71
17.77
16.96
16.32
15.92
15.77
15.81
15.91
15.90
15.64
15.10
14.29
13.24
11.97
10.47
8.66
6.46
3.85
0.88
-2.31
-5.51
-8.53
-11.30
-13.85
-16.36
-19.06
-22.18
-25.88
-30.14
-34.70
-39.05
-42.41
-43.90
-42.80
-38.74
-31.92
-23.08
-13.30
-3.68
4.84
11.74
16.84
20.27
22.32
23.37
23.76
23.78
23.61
23.29
22.79
22.08
21.16
20.15
19.22
18.51
18.11
17.98
18.03
18.08
17.98
17.65
17.06
16.23
15.15
13.77
12.00
9.76
7.02
3.85
0.43
-3.06
-6.42
-9.58
-12.51
-15.27
-17.96
-20.74
-23.81
-27.35
-31.48
-36.01
-40.44
-43.96
-45.59
-44.60
-40.64
-34.00
-25.42
-15.94
-6.59
1.85
8.92
14.49
18.63
21.53
23.42
24.51
25.02
25.15
25.04
24.83
24.56
24.24
23.87
23.48
23.14
22.94
22.95
23.15
23.49
23.80
23.89
23.58
22.68
21.10
18.84
16.06
13.06
10.23
7.82
5.88
4.22
2.49
0.36
-2.37
-5.65
-9.25
-12.90
-16.33
-19.36
-22.00
-24.36
-26.72
-29.40
-32.65
-36.53
-40.76
-44.73
-47.60
-48.54
-46.99
-42.79
-36.23
-27.95
-18.79
-9.56
-0.97
6.46
12.46
16.99
20.18
22.29
23.64
24.47
24.95
25.13
25.03
24.66
24.05
23.29
22.52
21.88
21.54
21.59
22.02
22.67
23.25
23.50
23.25
22.47
21.27
19.80
18.14
16.31
14.29
12.07
9.70
7.28
4.93
2.73
0.73
-1.11
-2.83
-4.58
-6.49
-8.68
-11.14
-13.79
-16.43
-18.89
-21.12
-23.21
-25.43
-28.07
-31.38
-35.44
-40.03
-44.63
-48.40
-50.36
-49.69
-45.96
-39.35
-30.56
-20.67
-10.77
-1.74
5.93
12.04
16.69
20.03
22.27
23.64
24.32
24.48
24.27
23.80
23.19
22.58
22.09
21.82
21.83
22.11
22.61
23.26
23.95
24.53
24.86
24.75
24.08
22.82
21.03
18.89
16.62
14.40
12.31
10.32
8.30
6.15
3.86
1.49
-0.82
-3.01
-5.08
-7.13
-9.27
-11.57
-13.98
-16.42
-18.79
-21.02
-23.11
-25.09
-27.07
-29.27
-31.96
-35.35
-39.40
-43.66
-47.26
-49.15
-48.45
-44.76
-38.33
-29.91
-20.48
-10.95
-1.99
5.99
12.76
18.19
22.23
24.92
26.41
26.92
26.70
25.95
24.90
23.74
22.67
21.88
21.45
21.37
21.53
21.78
21.99
22.12
22.19
22.22
22.15
21.86
21.15
19.87
18.00
15.65
13.06
10.48
8.10
5.96
3.96
1.91
-0.36
-2.96
-5.88
-9.03
-12.30
-15.53
-18.63
-21.47
-24.00
-26.21
-28.25
-30.38
-32.93
-36.11
-39.85
-43.66
-46.64
-47.72
-46.03
-41.22
-33.61
-24.11
-13.90
-4.09
4.51
11.52
16.87
20.72
23.26
24.76
25.47
25.65
25.51
25.22
24.81
24.32
23.73
23.11
22.54
22.11
21.90
21.92
22.11
22.34
22.46
22.31
21.83
20.99
19.89
18.63
17.27
15.81
14.19
12.32
10.15
7.72
5.13
2.50
-0.06
-2.55
-5.01
-7.54
-10.23
-13.11
-16.14
-19.17
-22.04
-24.58
-26.75
-28.69
-30.71
-33.21
-36.53
-40.77
-45.60
-50.29
-53.75
-54.91
-52.99
-47.81
-39.85
-30.10
-19.78
-9.99
-1.45
5.53
10.99
15.14
18.27
20.61
22.32
23.51
24.22
24.50
24.43
24.14
23.79
23.52
23.42
23.52
23.77
24.10
24.45
24.76
25.03
25.17
25.05
24.50
23.38
21.64
19.40
16.86
14.28
11.85
9.67
7.68
5.79
3.83
1.68
-0.74
-3.45
-6.39
-9.41
-12.33
-14.99
-17.32
-19.38
-21.37
-23.55
-26.15
-29.35
-33.21
-37.58
-42.06
-45.96
-48.38
-48.46
-45.69
-40.06
-32.18
-23.03
-13.69
-5.02
2.48
8.65
13.54
17.31
20.11
22.06
23.25
23.77
23.72
23.23
22.47
21.67
21.00
20.58
20.44
20.52
20.80
21.25
21.84
22.52
23.14
23.43
23.16
22.18
20.49
18.32
15.92
13.53
11.30
9.24
7.31
5.44
3.55
1.55
-0.69
-3.24
-6.11
-9.21
-12.37
-15.41
-18.21
-20.79
-23.32
-26.09
-29.42
-33.51
-38.32
-43.42
-47.98
-50.93
-51.26
-48.36
-42.28
-33.72
-23.85
-13.94
-4.98
2.46
8.23
12.50
15.53
17.54
18.72
19.19
19.12
18.70
18.14
17.62
17.27
17.12
17.13
17.28
17.53
17.92
18.46
19.12
19.76
20.18
20.15
19.50
18.19
16.33
14.12
11.79
9.52
7.36
5.20
2.87
0.16
-2.99
-6.47
-10.03
-13.35
-16.20
-18.60
-20.85
-23.44
-26.81
-31.14
-36.19
-41.27
-45.38
-47.51
-46.86
-43.16
-36.65
-28.04
-18.33
-8.56
0.39
7.94
13.85
18.18
21.17
23.15
24.38
25.05
25.30
25.21
24.86
24.38
23.86
23.40
23.07
22.93
23.00
23.31
23.79
24.35
24.83
25.10
25.04
24.59
23.74
22.49
20.87
18.93
16.76
14.47
12.14
9.82
7.52
5.24
2.98
0.74
-1.53
-3.90
-6.47
-9.26
-12.22
-15.18
-17.98
-20.51
-22.82
-25.12
-27.73
-30.95
-34.96
-39.70
-44.71
-49.17
-52.00
-52.21
-49.20
-43.03
-34.41
-24.41
-14.21
-4.68
3.66
10.59
16.09
20.21
23.10
24.98
26.14
26.87
27.37
27.80
28.22
28.64
29.03
29.33
29.44
29.31
28.97
28.64
28.55
28.93
29.78
30.87
31.78
32.06
31.42
29.80
27.41
24.64
21.89
19.48
17.47
15.75
14.05
12.13
9.89
7.40
4.80
2.32
0.03
-2.11
-4.25
-6.56
-9.15
-12.05
-15.14
-18.29
-21.34
-24.17
-26.76
-29.19
-31.60
-34.21
-37.27
-41.00
-45.45
-50.36
-55.12
-58.75
-60.24
-58.82
-54.23
-46.83
-37.49
-27.34
-17.42
-8.50
-0.96
5.19
10.13
14.12
17.35
19.94
21.89
23.21
23.94
24.23
24.28
24.33
24.49
24.80
25.20
25.59
25.93
26.25
26.62
27.04
27.43
27.61
27.29
26.26
24.46
22.00
19.16
16.29
13.67
11.38
9.35
7.37
5.22
2.76
-0.01
-3.01
-6.08
-9.04
-11.71
-14.00
-15.92
-17.62
-19.40
-21.63
-24.66
-28.65
-33.45
-38.52
-43.03
-45.98
-46.49
-44.07
-38.77
-31.16
-22.19
-12.92
-4.27
3.15
9.08
13.53
16.70
18.81
20.11
20.76
20.92
20.70
20.24
19.64
19.00
18.36
17.71
17.03
16.34
15.71
15.28
15.17
15.37
15.73
15.95
15.71
14.79
13.22
11.19
9.03
7.00
5.26
3.78
2.43
1.07
-0.42
-2.09
-3.95
-5.96
-8.05
-10.16
-12.22
-14.20
-16.17
-18.27
-20.75
-23.84
-27.71
-32.32
-37.30
-41.93
-45.28
-46.39
-44.63
-39.86
-32.61
-23.78
-14.51
-5.72
1.99
8.43
13.62
17.69
20.76
22.92
24.28
24.98
25.22
25.19
25.03
24.82
24.63
24.50
24.47
24.56
24.71
24.82
24.77
24.48
23.95
23.19
22.21
20.93
19.25
17.07
14.44
11.60
8.88
6.60
4.86
3.60
2.52
1.32
-0.23
-2.21
-4.56
-7.16
-9.87
-12.54
-15.09
-17.51
-19.88
-22.38
-25.22
-28.57
-32.51
-36.89
-41.32
-45.23
-47.85
-48.44
-46.43
-41.65
-34.41
-25.50
-16.00
-6.90
1.09
7.67
12.92
17.02
20.14
22.38
23.79
24.50
24.74
24.77
24.79
24.89
25.04
25.09
24.95
24.59
24.05
23.45
22.92
22.55
22.35
22.20
21.85
21.05
19.61
17.54
15.05
12.50
10.20
8.27
6.59
4.83
2.68
-0.08
-3.41
-7.08
-10.76
-14.15
-17.07
-19.52
-21.61
-23.55
-25.63
-28.15
-31.39
-35.49
-40.31
-45.32
-49.66
-52.27
-52.21
-48.98
-42.72
-34.15
-24.41
-14.67
-5.87
1.45
7.17
11.44
14.55
16.80
18.41
19.57
20.44
21.10
21.55
21.71
21.46
20.73
19.62
18.40
17.45
17.13
17.55
18.55
19.72
20.53
20.57
19.67
17.89
15.51
12.87
10.29
8.05
6.34
5.22
4.61
4.26
3.82
2.94
1.45
-0.62
-2.97
-5.27
-7.28
-9.07
-10.94
-13.30
-16.50
-20.60
-25.43
-30.60
-35.61
-39.89
-42.83
-43.91
-42.68
-39.01
-33.06
-25.38
-16.72
-7.92
0.31
7.44
13.18
17.48
20.52
22.58
23.95
24.81
25.18
25.02
24.35
23.34
22.31
21.54
21.16
21.05
20.96
20.66
20.10
19.42
18.84
18.45
18.18
17.86
17.28
16.34
15.10
13.67
12.19
10.76
9.42
8.20
7.14
6.26
5.49
4.70
3.67
2.21
0.19
-2.40
-5.37
-8.49
-11.49
-14.23
-16.72
-19.10
-21.64
-24.60
-28.24
-32.65
-37.68
-42.81
-47.22
-49.90
-49.95
-46.86
-40.76
-32.37
-22.78
-13.10
-4.22
3.33
9.32
13.73
16.66
18.37
19.25
19.74
20.25
20.97
21.86
22.64
23.01
22.80
22.07
21.12
20.34
20.06
20.41
21.26
22.27
23.05
23.27
22.79
21.63
19.99
18.10
16.16
14.30
12.53
10.79
8.97
6.95
4.63
2.04
-0.70
-3.41
-5.95
-8.28
-10.51
-12.81
-15.36
-18.20
-21.26
-24.38
-27.40
-30.24
-32.95
-35.64
-38.46
-41.56
-45.00
-48.64
-52.10
-54.75
-55.80
-54.59
-50.78
-44.50
-36.31
-26.97
-17.24
-7.70
1.30
9.54
16.84
23.00
27.86
31.38
33.65
34.94
35.54
35.73
35.64
35.34
34.83
34.11
33.29
32.47
31.77
31.25
30.85
30.44
29.84
28.91
27.54
25.71
23.52
21.12
18.73
16.52
14.57
12.80
11.03
9.08
6.90
4.57
2.25
-0.00
-2.25
-4.68
-7.51
-10.75
-14.21
-17.57
-20.54
-23.01
-25.10
-27.09
-29.29
-31.94
-35.12
-38.80
-42.77
-46.61
-49.63
-51.04
-50.13
-46.50
-40.27
-32.09
-22.92
-13.73
-5.25
2.16
8.46
13.74
18.10
21.55
24.02
25.53
26.19
26.29
26.17
26.14
26.32
26.65
26.89
26.80
26.21
25.22
24.09
23.23
22.93
23.26
23.99
24.65
24.78
24.04
22.45
20.31
18.07
16.11
14.58
13.37
12.16
10.61
8.53
5.90
2.87
-0.35
-3.58
-6.75
-9.85
-12.92
-16.02
-19.18
-22.49
-26.05
-29.99
-34.33
-38.86
-43.04
-46.05
-47.11
-45.70
-41.91
-36.36
-29.97
-23.59
-17.78
-12.65
-8.13
-4.17
-0.88
1.48
2.68
2.75
2.02
1.00
0.24
0.06
0.54
1.58
2.99
4.70
6.71
9.05
11.72
14.58
17.36
19.75
21.48
22.46
22.76
22.60
22.24
21.86
21.56
21.29
20.90
20.22
19.05
17.34
15.12
12.56
9.81
7.00
4.18
1.33
-1.55
-4.39
-7.05
-9.44
-11.60
-13.71
-16.16
-19.35
-23.56
-28.81
-34.72
-40.56
-45.40
-48.27
-48.46
-45.69
-40.25
-32.92
-24.74
-16.77
-9.79
-4.18
0.12
3.42
6.09
8.33
10.09
11.14
11.23
10.29
8.51
6.29
4.08
2.20
0.81
-0.10
-0.59
-0.66
-0.25
0.74
2.32
4.39
6.85
9.69
12.98
16.87
21.35
26.12
30.58
34.05
36.14
36.94
36.96
36.89
37.13
37.58
37.69
36.84
34.70
31.46
27.65
23.88
20.47
17.42
14.46
11.32
7.85
3.99
-0.31
-5.18
-10.79
-17.08
-23.63
-29.62
-33.93
-35.60
-34.12
-29.67
-23.08
-15.54
-8.21
-1.99
2.72
5.92
7.86
8.88
9.29
9.29
8.97
8.38
7.53
6.45
5.21
3.88
2.64
1.66
1.16
1.32
2.18
3.62
5.36
7.01
8.26
8.99
9.26
9.29
9.27
9.25
9.09
8.61
7.67
6.28
4.58
2.75
0.90
-0.95
-2.83
-4.80
-6.87
-9.04
-11.34
-13.91
-16.85
-20.24
-23.96
-27.76
-31.40
-34.76
-37.98
-41.40
-45.23
-49.38
-53.28
-55.98
-56.56
-54.42
-49.57
-42.61
-34.40
-25.79
-17.39
-9.56
-2.54
3.50
8.40
12.11
14.76
16.63
18.11
19.49
20.90
22.30
23.59
24.68
25.54
26.19
26.64
26.96
27.23
27.59
28.18
29.09
30.25
31.46
32.46
33.04
33.16
32.93
32.44
31.71
30.57
28.80
26.27
23.11
19.65
16.31
13.39
10.94
8.74
6.49
3.88
0.76
-2.90
-7.10
-11.85
-17.24
-23.27
-29.78
-36.35
-42.31
-46.86
-49.30
-49.24
-46.68
-42.02
-35.97
-29.34
-22.89
-17.13
-12.31
-8.44
-5.37
-2.87
-0.78
1.02
2.53
3.64
4.20
4.01
2.94
1.03
-1.41
-3.82
-5.49
-5.82
-4.51
-1.73
1.90
5.55
8.35
9.77
9.69
8.47
6.73
5.09
3.89
3.02
1.99
0.14
-2.93
-7.15
-11.91
-16.31
-19.69
-21.91
-23.61
-25.90
-29.90
-36.20
-44.73
-54.78
-65.22
-74.58
-80.95
-82.16
-76.36
-63.17
-44.50
-24.38
-7.65
2.30
5.07
3.49
2.04
4.49
12.07
23.27
35.12
45.04
52.12
56.95
60.71
63.99
66.41
67.05
65.23
61.23
56.22
51.72
48.90
47.98
48.18
48.15
46.66
43.11
37.79
31.66
25.79
20.90
17.06
13.79
10.39
6.35
1.56
-3.67
-8.86
-13.57
-17.64
-21.26
-24.87
-28.91
-33.65
-38.96
-44.27
-48.64
-51.01
-50.53
-46.90
-40.42
-31.93
-22.55
-13.29
-4.85
2.43
8.49
13.38
17.13
19.80
21.48
22.31
22.53
22.41
22.17
22.01
22.00
22.12
22.25
22.25
22.02
21.63
21.26
21.13
21.35
21.82
22.25
22.29
21.70
20.49
18.87
17.18
15.73
14.66
13.91
13.21
12.21
10.54
8.00
4.60
0.64
-3.37
-6.90
-9.64
-11.64
-13.33
-15.31
-18.15
-22.10
-27.04
-32.54
-37.98
-42.70
-46.07
-47.47
-46.40
-42.53
-35.96
-27.28
-17.50
-7.89
0.45
6.91
11.45
14.51
16.70
18.49
20.03
21.23
21.88
21.82
21.12
19.98
18.71
17.57
16.78
16.44
16.59
17.17
18.01
18.89
19.53
19.67
19.10
17.69
15.41
12.39
8.91
5.31
1.98
-0.80
-2.98
-4.79
-6.59
-8.79
-11.64
-15.16
-19.12
-23.16
-26.87
-29.97
-32.33
-34.03
-35.24
-36.18
-36.98
-37.71
-38.30
-38.59
-38.20
-36.64
-33.30
-27.74
-19.90
-10.23
0.38
10.89
20.50
28.87
36.13
42.67
48.84
54.75
60.24
65.05
68.92
71.71
73.35
73.82
73.07
71.07
67.88
63.61
58.54
53.08
47.63
42.50
37.74
33.16
28.33
22.81
16.29
8.75
0.48
-8.02
-16.19
-23.56
-29.86
-35.00
-39.05
-42.25
-44.87
-47.14
-49.22
-51.11
-52.75
-54.00
-54.77
-55.04
-54.88
-54.44
-53.96
-53.78
-54.23
-55.56
-57.74
-60.27
-62.28
-62.64
-60.41
-55.16
-47.20
-37.49
-27.26
-17.60
-9.20
-2.23
3.49
8.21
12.14
15.29
17.62
19.10
19.83
20.04
19.96
19.84
19.79
19.88
20.10
20.46
20.97
21.61
22.35
23.11
23.77
24.24
24.48
24.57
24.62
24.81
25.18
25.65
25.97
25.80
24.85
23.06
20.60
17.88
15.31
13.13
11.27
9.41
7.14
4.21
0.61
-3.40
-7.42
-11.15
-14.45
-17.40
-20.27
-23.41
-27.12
-31.52
-36.42
-41.29
-45.28
-47.47
-47.11
-43.88
-38.02
-30.24
-21.46
-12.60
-4.34
2.87
8.85
13.61
17.24
19.94
21.90
23.28
24.18
24.64
24.65
24.26
23.57
22.75
21.99
21.40
21.03
20.89
20.96
21.22
21.60
21.99
22.21
22.09
21.50
20.49
19.20
17.87
16.69
15.73
14.85
13.86
12.56
10.84
8.78
6.50
4.20
1.97
-0.17
-2.28
-4.47
-6.84
-9.42
-12.17
-14.98
-17.70
-20.21
-22.47
-24.59
-26.79
-29.39
-32.66
-36.74
-41.38
-45.99
-49.60
-51.14
-49.80
-45.29
-38.04
-29.04
-19.53
-10.58
-2.85
3.46
8.45
12.32
15.23
17.29
18.59
19.27
19.47
19.34
18.91
18.16
17.09
15.76
14.43
13.40
12.95
13.22
14.14
15.42
16.71
17.64
17.95
17.57
16.57
15.13
13.48
11.83
10.29
8.87
7.51
6.10
4.57
2.95
1.28
-0.38
-2.00
-3.65
-5.39
-7.28
-9.30
-11.31
-13.19
-14.85
-16.30
-17.65
-19.06
-20.70
-22.73
-25.30
-28.48
-32.20
-36.09
-39.46
-41.41
-41.10
-38.01
-32.22
-24.36
-15.41
-6.39
1.91
9.03
14.82
19.28
22.50
24.64
25.87
26.40
26.43
26.11
25.55
24.83
24.06
23.31
22.68
22.19
21.84
21.60
21.45
21.40
21.40
21.40
21.26
20.78
19.81
18.29
16.30
14.02
11.66
9.35
7.11
4.92
2.71
0.50
-1.64
-3.67
-5.61
-7.56
-9.68
-12.10
-14.83
-17.78
-20.75
-23.59
-26.21
-28.63
-31.01
-33.61
-36.63
-40.14
-43.91
-47.32
-49.50
-49.55
-46.86
-41.34
-33.43
-24.01
-14.09
-4.61
3.75
10.61
15.87
19.64
22.19
23.79
24.71
25.11
25.06
24.61
23.82
22.82
21.78
20.89
20.31
20.15
20.42
21.04
21.86
22.66
23.22
23.39
23.13
22.45
21.44
20.15
18.62
16.82
14.73
12.34
9.68
6.89
4.11
1.51
-0.80
-2.87
-4.82
-6.85
-9.14
-11.73
-14.56
-17.52
-20.51
-23.52
-26.61
-29.93
-33.62
-37.82
-42.57
-47.74
-52.87
-57.21
-59.84
-59.93
-57.01
-51.21
-43.22
-34.04
-24.78
-16.31
-9.19
-3.64
0.41
3.19
5.02
6.20
6.96
7.46
7.75
7.89
7.95
8.05
8.38
9.18
10.78
13.53
17.75
23.50
30.52
38.13
45.40
51.36
55.34
57.12
56.94
55.38
53.09
50.63
48.32
46.30
44.53
42.91
41.31
39.64
37.80
35.64
33.01
29.71
25.57
20.48
14.57
8.11
1.51
-4.86
-10.79
-16.33
-21.67
-27.07
-32.76
-38.86
-45.37
-52.11
-58.68
-64.38
-68.29
-69.46
-67.18
-61.31
-52.35
-41.35
-29.63
-18.40
-8.63
-0.86
4.71
8.23
10.11
10.99
11.55
12.32
13.50
15.00
16.49
17.68
18.49
19.08
19.71
20.62
21.84
23.29
24.79
26.21
27.48
28.56
29.34
29.69
29.47
28.67
27.43
25.97
24.44
22.85
21.05
18.82
15.99
12.55
8.68
4.61
0.58
-3.24
-6.80
-10.13
-13.30
-16.46
-19.76
-23.41
-27.61
-32.47
-37.97
-43.92
-49.88
-55.21
-59.07
-60.66
-59.38
-55.09
-48.20
-39.59
-30.37
-21.53
-13.74
-7.24
-1.94
2.37
5.88
8.62
10.54
11.64
12.01
11.88
11.54
11.27
11.28
11.64
12.32
13.20
14.19
15.22
16.29
17.37
18.38
19.18
19.57
19.34
18.40
16.79
14.72
12.47
10.31
8.38
6.63
4.92
3.00
0.75
-1.86
-4.69
-7.56
-10.33
-12.92
-15.37
-17.77
-20.24
-22.92
-25.97
-29.51
-33.60
-38.04
-42.33
-45.66
-47.09
-45.84
-41.62
-34.69
-25.83
-16.14
-6.67
1.74
8.64
13.91
17.67
20.19
21.77
22.68
23.10
23.14
22.86
22.27
21.43
20.43
19.36
18.37
17.58
17.13
17.16
17.71
18.72
19.99
21.18
21.94
22.02
21.36
20.14
18.63
17.16
15.89
14.81
13.76
12.59
11.19
9.61
7.99
6.44
5.02
3.59
1.97
-0.04
-2.55
-5.49
-8.67
-11.82
-14.69
-17.12
-19.08
-20.75
-22.45
-24.63
-27.71
-31.93
-37.09
-42.50
-47.05
-49.51
-48.86
-44.72
-37.42
-27.93
-17.52
-7.43
1.45
8.67
14.18
18.20
21.01
22.97
24.37
25.39
26.13
26.56
26.61
26.24
25.52
24.62
23.77
23.17
22.98
23.25
23.92
24.86
25.87
26.62
26.81
26.16
24.62
22.36
19.75
17.20
15.03
13.32
11.91
10.53
8.93
6.98
4.73
2.38
0.13
-1.86
-3.58
-5.19
-6.93
-9.01
-11.53
-14.41
-17.44
-20.36
-22.95
-25.11
-26.93
-28.67
-30.73
-33.54
-37.31
-41.91
-46.71
-50.68
-52.65
-51.67
-47.36
-39.97
-30.32
-19.55
-8.81
0.99
9.26
15.75
20.53
23.85
26.01
27.31
27.86
27.72
26.87
25.38
23.44
21.39
19.64
18.52
18.20
18.63
19.54
20.55
21.30
21.53
21.18
20.37
19.32
18.29
17.50
17.10
17.16
17.66
18.46
19.32
19.96
20.11
19.69
18.77
17.51
16.07
14.46
12.59
10.34
7.70
4.82
1.91
-0.83
-3.33
-5.62
-7.80
-9.97
-12.18
-14.48
-16.85
-19.30
-21.76
-24.15
-26.35
-28.35
-30.27
-32.38
-35.03
-38.52
-42.92
-47.92
-52.78
-56.47
-57.84
-56.02
-50.73
-42.39
-32.00
-20.83
-10.03
-0.39
7.72
14.25
19.29
22.99
25.52
27.10
27.97
28.37
28.51
28.50
28.42
28.30
28.15
28.03
27.99
28.12
28.50
29.20
30.19
31.27
32.14
32.46
31.99
30.67
28.67
26.31
23.95
21.80
19.91
18.17
16.36
14.31
11.94
9.30
6.53
3.78
1.13
-1.45
-4.06
-6.80
-9.73
-12.85
-16.04
-19.18
-22.16
-24.93
-27.56
-30.20
-33.13
-36.64
-40.96
-46.04
-51.46
-56.38
-59.71
-60.42
-57.87
-52.08
-43.69
-33.79
-23.53
-13.86
-5.34
1.77
7.42
11.64
14.54
16.34
17.35
17.92
18.34
18.72
19.01
19.12
18.96
18.60
18.25
18.17
18.56
19.51
20.93
22.59
24.22
25.52
26.28
26.39
25.86
24.84
23.51
22.06
20.59
19.10
17.51
15.72
13.67
11.39
9.00
6.64
4.40
2.26
0.11
-2.24
-4.90
-7.88
-11.05
-14.17
-17.02
-19.51
-21.69
-23.83
-26.27
-29.42
-33.49
-38.43
-43.77
-48.68
-52.08
-52.96
-50.65
-45.05
-36.65
-26.43
-15.55
-5.10
4.12
11.58
17.14
20.88
23.13
24.36
25.04
25.53
25.94
26.21
26.13
25.61
24.70
23.62
22.68
22.08
21.89
22.06
22.45
22.93
23.35
23.54
23.32
22.50
21.05
19.07
16.77
14.37
11.99
9.64
7.23
4.69
2.06
-0.52
-2.89
-4.96
-6.77
-8.49
-10.27
-12.26
-14.50
-16.95
-19.52
-22.11
-24.65
-27.08
-29.39
-31.68
-34.20
-37.24
-41.07
-45.61
-50.32
-54.15
-55.84
-54.32
-49.16
-40.77
-30.20
-18.82
-7.82
2.02
10.38
17.24
22.65
26.68
29.41
31.03
31.81
32.08
32.06
31.86
31.48
30.90
30.20
29.51
29.03
28.90
29.18
29.78
30.54
31.25
31.71
31.73
31.23
30.17
28.60
26.66
24.53
22.36
20.26
18.21
16.16
14.01
11.71
9.29
6.86
4.51
2.29
0.16
-2.01
-4.38
-7.09
-10.16
-13.51
-17.00
-20.43
-23.66
-26.59
-29.30
-32.00
-34.99
-38.64
-43.21
-48.71
-54.76
-60.52
-64.81
-66.47
-64.62
-59.08
-50.36
-39.55
-27.97
-16.80
-6.84
1.54
8.28
13.52
17.44
20.29
22.30
23.74
24.79
25.55
26.07
26.33
26.36
26.26
26.17
26.26
26.70
27.58
28.87
30.44
31.99
33.18
33.70
33.35
32.14
30.29
28.13
25.93
23.90
22.03
20.22
18.31
16.20
13.85
11.33
8.76
6.21
3.72
1.20
-1.43
-4.26
-7.30
-10.48
-13.65
-16.70
-19.56
-22.23
-24.78
-27.37
-30.29
-33.84
-38.27
-43.57
-49.23
-54.28
-57.44
-57.53
-53.90
-46.64
-36.60
-25.12
-13.55
-3.06
5.67
12.38
17.16
20.27
22.08
22.94
23.13
22.85
22.22
21.37
20.39
19.40
18.52
17.86
17.52
17.58
18.09
19.04
20.29
21.57
22.54
22.89
22.46
21.25
19.41
17.15
14.62
11.96
9.21
6.49
3.94
1.74
0.04
-1.17
-2.02
-2.79
-3.74
-5.13
-7.01
-9.31
-11.84
-14.42
-16.92
-19.32
-21.74
-24.35
-27.35
-30.96
-35.36
-40.68
-46.79
-53.18
-58.90
-62.64
-63.15
-59.58
-51.89
-40.91
-28.07
-14.96
-2.93
7.23
15.25
21.27
25.62
28.67
30.78
32.25
33.28
33.99
34.41
34.51
34.29
33.81
33.21
32.69
32.42
32.48
32.86
33.47
34.15
34.75
35.10
35.00
34.29
32.86
30.74
28.12
25.31
22.63
20.29
18.27
16.38
14.32
11.86
8.94
5.75
2.55
-0.42
-3.11
-5.67
-8.37
-11.42
-14.91
-18.69
-22.56
-26.27
-29.73
-32.96
-36.09
-39.33
-42.88
-46.95
-51.69
-57.16
-63.06
-68.68
-72.92
-74.48
-72.31
-66.02
-56.03
-43.46
-29.80
-16.43
-4.33
6.00
14.43
21.04
25.97
29.43
31.66
32.94
33.55
33.73
33.68
33.50
33.26
32.98
32.67
32.30
31.92
31.62
31.56
31.87
32.56
33.45
34.23
34.51
34.00
32.61
30.51
27.99
25.39
22.95
20.74
18.66
16.55
14.30
11.90
9.46
7.13
5.01
3.09
1.24
-0.72
-2.92
-5.39
-8.05
-10.77
-13.46
-16.06
-18.62
-21.24
-24.08
-27.35
-31.32
-36.21
-42.05
-48.46
-54.62
-59.29
-61.21
-59.47
-53.88
-44.99
-33.96
-22.18
-10.92
-1.03
7.06
13.27
17.77
20.86
22.85
24.02
24.61
24.81
24.74
24.49
24.14
23.72
23.28
22.87
22.56
22.44
22.62
23.16
23.99
24.91
25.60
25.71
25.00
23.38
20.96
18.02
14.89
11.84
9.05
6.54
4.25
2.03
-0.27
-2.80
-5.66
-8.88
-12.40
-16.08
-19.66
-22.95
-25.80
-28.26
-30.53
-32.99
-36.05
-40.04
-44.96
-50.39
-55.36
-58.63
-59.01
-55.74
-48.85
-39.12
-27.81
-16.29
-5.59
3.70
11.40
17.58
22.38
25.96
28.48
30.10
30.98
31.25
31.04
30.42
29.52
28.52
27.57
26.81
26.25
25.88
25.65
25.55
25.58
25.71
25.87
25.88
25.58
24.83
23.58
21.90
19.90
17.73
15.59
13.71
12.29
11.46
11.09
10.83
10.12
8.42
5.40
1.11
-4.05
-9.49
-14.60
-19.00
-22.60
-25.65
-28.59
-31.96
-36.17
-41.37
-47.29
-53.19
-57.97
-60.41
-59.55
-54.99
-47.04
-36.68
-25.22
-13.99
-4.00
4.20
10.48
15.05
18.20
20.29
21.63
22.48
22.97
23.16
23.02
22.51
21.67
20.62
19.59
18.82
18.53
18.78
19.49
20.41
21.23
21.72
21.73
21.24
20.36
19.21
17.86
16.38
14.73
12.89
10.83
8.56
6.12
3.60
1.10
-1.29
-3.54
-5.74
-8.01
-10.50
-13.23
-16.10
-18.94
-21.52
-23.77
-25.74
-27.65
-29.88
-32.81
-36.72
-41.58
-46.95
-51.90
-55.24
-55.78
-52.81
-46.27
-36.87
-25.82
-14.45
-3.92
5.06
12.24
17.68
21.65
24.47
26.48
27.95
29.04
29.83
30.34
30.53
30.36
29.87
29.10
28.19
27.32
26.67
26.38
26.52
27.07
27.87
28.71
29.29
29.34
28.68
27.29
25.27
22.84
20.22
17.58
14.91
12.16
9.23
6.16
3.06
0.13
-2.54
-5.02
-7.55
-10.37
-13.62
-17.19
-20.77
-24.01
-26.71
-28.94
-31.02
-33.40
-36.52
-40.60
-45.55
-50.89
-55.79
-59.19
-60.01
-57.54
-51.63
-42.81
-32.20
-21.13
-10.75
-1.84
5.32
10.81
14.85
17.68
19.51
20.56
21.06
21.29
21.41
21.50
21.58
21.61
21.64
21.78
22.13
22.77
23.65
24.60
25.45
26.05
26.30
26.12
25.44
24.23
22.48
20.28
17.80
15.29
12.94
10.87
9.03
7.26
5.28
2.89
-0.01
-3.34
-6.84
-10.19
-13.15
-15.63
-17.79
-19.97
-22.58
-25.97
-30.30
-35.46
-41.01
-46.21
-50.06
-51.53
-49.80
-44.54
-36.07
-25.34
-13.69
-2.50
7.15
14.72
20.19
23.95
26.49
28.28
29.58
30.48
30.98
31.05
30.69
29.98
29.02
27.98
27.04
26.38
26.16
26.49
27.37
28.64
30.04
31.21
31.81
31.60
30.49
28.61
26.20
23.62
21.16
18.98
17.05
15.14
12.94
10.24
7.05
3.59
0.23
-2.66
-4.99
-6.88
-8.66
-10.68
-13.15
-16.13
-19.47
-22.97
-26.40
-29.62
-32.52
-35.11
-37.50
-39.96
-42.83
-46.42
-50.80
-55.62
-60.06
-63.00
-63.32
-60.33
-53.97
-44.84
-34.04
-22.78
-12.10
-2.65
5.29
11.74
16.86
20.89
24.01
26.39
28.11
29.24
29.84
30.01
29.88
29.59
29.23
28.89
28.63
28.52
28.65
29.06
29.69
30.37
30.87
30.99
30.60
29.71
28.38
26.73
24.87
22.90
20.91
18.95
17.00
14.98
12.80
10.40
7.86
5.33
2.95
0.81
-1.18
-3.23
-5.55
-8.27
-11.34
-14.55
-17.67
-20.46
-22.83
-24.86
-26.74
-28.79
-31.39
-34.84
-39.24
-44.33
-49.38
-53.32
-55.03
-53.66
-49.01
-41.56
-32.32
-22.51
-13.17
-4.98
1.80
7.19
11.34
14.43
16.57
17.88
18.47
18.45
18.01
17.35
16.72
16.25
15.99
15.88
15.83
15.80
15.86
16.08
16.50
17.05
17.51
17.59
17.04
15.77
13.85
11.52
9.07
6.77
4.79
3.14
1.71
0.27
-1.38
-3.40
-5.79
-8.45
-11.21
-13.88
-16.32
-18.45
-20.30
-22.00
-23.78
-25.99
-28.97
-32.92
-37.77
-42.96
-47.54
-50.37
-50.40
-47.09
-40.50
-31.39
-20.89
-10.26
-0.52
7.63
13.98
18.65
22.00
24.46
26.35
27.86
28.99
29.68
29.89
29.68
29.20
28.65
28.15
27.76
27.48
27.32
27.29
27.41
27.60
27.72
27.57
26.99
25.95
24.51
22.84
21.04
19.18
17.22
15.11
12.83
10.43
8.00
5.63
3.37
1.19
-0.98
-3.20
-5.55
-8.03
-10.64
-13.32
-16.03
-18.75
-21.45
-24.12
-26.79
-29.56
-32.58
-36.10
-40.25
-44.89
-49.53
-53.23
-54.93
-53.76
-49.38
-42.12
-32.91
-22.92
-13.24
-4.58
2.71
8.61
13.23
16.71
19.23
21.00
22.22
23.06
23.64
23.98
24.06
23.91
23.60
23.27
23.04
23.05
23.34
23.93
24.74
25.59
26.23
26.37
25.83
24.59
22.81
20.77
18.69
16.67
14.69
12.63
10.44
8.14
5.87
3.78
1.96
0.40
-1.04
-2.53
-4.25
-6.29
-8.69
-11.41
-14.35
-17.35
-20.26
-22.98
-25.55
-28.19
-31.23
-35.01
-39.59
-44.59
-49.13
-52.06
-52.33
-49.36
-43.26
-34.78
-25.05
-15.23
-6.25
1.35
7.41
12.02
15.38
17.73
19.26
20.14
20.54
20.63
20.57
20.46
20.34
20.17
19.93
19.69
19.58
19.76
20.29
21.06
21.83
22.33
22.38
22.00
21.31
20.46
19.46
18.21
16.57
14.49
12.05
9.47
6.99
4.75
2.80
1.04
-0.65
-2.41
-4.36
-6.58
-9.11
-11.91
-14.88
-17.82
-20.56
-22.99
-25.20
-27.43
-30.05
-33.37
-37.48
-42.09
-46.50
-49.72
-50.70
-48.75
-43.72
-36.05
-26.68
-16.69
-7.04
1.64
9.01
14.99
19.63
23.01
25.27
26.57
27.13
27.17
26.91
26.48
25.96
25.38
24.73
24.05
23.46
23.16
23.30
23.95
24.98
26.11
27.01
27.42
27.22
26.46
25.29
23.93
22.52
21.18
19.90
18.60
17.15
15.39
13.24
10.72
8.02
5.32
2.80
0.48
-1.72
-3.95
-6.29
-8.77
-11.31
-13.86
-16.39
-18.95
-21.59
-24.42
-27.53
-31.06
-35.16
-39.85
-44.85
-49.48
-52.73
-53.60
-51.41
-46.13
-38.38
-29.21
-19.76
-10.92
-3.20
3.21
8.33
12.23
15.01
16.82
17.85
18.31
18.38
18.13
17.60
16.81
15.83
14.84
14.03
13.52
13.36
13.48
13.76
14.09
14.39
14.58
14.54
14.10
13.17
11.74
9.95
8.08
6.36
4.89
3.65
2.47
1.22
-0.16
-1.67
-3.30
-5.07
-7.08
-9.38
-11.96
-14.70
-17.36
-19.73
-21.70
-23.37
-25.08
-27.30
-30.51
-34.92
-40.30
-45.87
-50.47
-52.84
-52.07
-47.88
-40.71
-31.53
-21.51
-11.70
-2.81
4.79
11.03
15.98
19.77
22.58
24.60
26.05
27.11
27.89
28.41
28.59
28.34
27.66
26.68
25.69
25.03
25.01
25.69
26.88
28.14
29.00
29.08
28.30
26.86
25.15
23.56
22.32
21.40
20.56
19.48
17.90
15.74
13.12
10.25
7.33
4.42
1.49
-1.53
-4.67
-7.85
-11.00
-14.01
-16.87
-19.60
-22.30
-25.03
-27.93
-31.15
-34.91
-39.35
-44.36
-49.45
-53.68
-55.90
-55.08
-50.79
-43.31
-33.63
-23.06
-12.83
-3.77
3.79
9.85
14.58
18.12
20.57
22.05
22.75
22.93
22.86
22.77
22.76
22.85
22.96
23.05
23.07
23.02
22.97
23.04
23.39
24.05
24.96
25.88
26.44
26.31
25.32
23.50
21.10
18.39
15.65
13.02
10.60
8.37
6.34
4.45
2.62
0.78
-1.17
-3.25
-5.49
-7.83
-10.21
-12.55
-14.76
-16.79
-18.67
-20.47
-22.39
-24.69
-27.65
-31.46
-36.12
-41.32
-46.34
-50.17
-51.70
-50.09
-45.12
-37.23
-27.54
-17.33
-7.75
0.51
7.26
12.61
16.80
19.96
22.20
23.61
24.36
24.64
24.66
24.51
24.25
23.90
23.50
23.19
23.07
23.24
23.68
24.28
24.91
25.43
25.72
25.68
25.15
23.98
22.07
19.44
16.26
12.84
9.54
6.59
4.04
1.80
-0.36
-2.68
-5.26
-8.10
-11.10
-14.10
-16.95
-19.52
-21.73
-23.57
-25.10
-26.50
-28.06
-30.07
-32.69
-35.79
-38.80
-40.88
-41.09
-38.75
-33.66
-26.25
-17.36
-8.02
0.81
8.49
14.68
19.34
22.58
24.62
25.70
26.03
25.81
25.17
24.22
23.08
21.88
20.72
19.66
18.74
17.99
17.44
17.17
17.20
17.41
17.58
17.38
16.52
14.92
12.68
10.08
7.41
4.87
2.49
0.20
-2.11
-4.56
-7.22
-10.11
-13.16
-16.24
-19.20
-21.93
-24.45
-26.98
-29.91
-33.57
-38.05
-43.00
-47.59
-50.75
-51.40
-48.90
-43.18
-34.77
-24.71
-14.19
-4.31
4.15
10.85
15.81
19.31
21.73
23.42
24.62
25.47
26.06
26.39
26.49
26.35
25.97
25.37
24.62
23.85
23.23
22.92
22.97
23.31
23.73
23.94
23.64
22.63
20.84
18.35
15.39
12.27
9.25
6.51
4.05
1.72
-0.71
-3.43
-6.50
-9.84
-13.21
-16.36
-19.18
-21.69
-24.12
-26.78
-30.01
-33.95
-38.51
-43.20
-47.25
-49.67
-49.58
-46.48
-40.40
-31.97
-22.19
-12.13
-2.67
5.64
12.58
18.14
22.40
25.53
27.68
29.04
29.81
30.18
30.27
30.16
29.89
29.49
29.06
28.72
28.59
28.73
29.15
29.75
30.37
30.84
30.97
30.60
29.66
28.13
26.11
23.73
21.16
18.58
16.10
13.76
11.54
9.32
7.00
4.47
1.75
-1.05
-3.76
-6.20
-8.31
-10.22
-12.19
-14.51
-17.31
-20.50
-23.75
-26.68
-29.04
-30.79
-32.16
-33.52
-35.28
-37.75
-41.07
-45.09
-49.26
-52.69
-54.34
-53.28
-49.06
-41.86
-32.50
-22.11
-11.88
-2.67
5.08
11.27
16.03
19.57
22.11
23.82
24.90
25.52
25.83
25.96
25.94
25.80
25.56
25.29
25.13
25.24
25.75
26.65
27.80
28.92
29.71
29.92
29.45
28.37
26.84
25.06
23.21
21.39
19.62
17.84
15.97
13.90
11.56
8.96
6.13
3.20
0.30
-2.46
-5.02
-7.36
-9.58
-11.80
-14.15
-16.68
-19.34
-22.00
-24.49
-26.77
-28.94
-31.28
-34.13
-37.76
-42.14
-46.87
-51.16
-54.04
-54.60
-52.30
-47.10
-39.50
-30.36
-20.74
-11.56
-3.51
3.09
8.25
12.17
15.11
17.30
18.85
19.80
20.13
19.94
19.38
18.71
18.15
17.87
17.94
18.40
19.20
20.32
21.70
23.22
24.70
25.89
26.55
26.49
25.70
24.29
22.54
20.73
19.05
17.57
16.15
14.63
12.84
10.76
8.51
6.27
4.18
2.24
0.37
-1.63
-3.91
-6.51
-9.35
-12.27
-15.03
-17.45
-19.44
-21.06
-22.52
-24.16
-26.36
-29.47
-33.61
-38.58
-43.75
-48.17
-50.72
-50.45
-46.91
-40.26
-31.29
-21.14
-10.99
-1.76
6.04
12.23
16.88
20.21
22.45
23.82
24.50
24.63
24.31
23.63
22.73
21.76
20.87
20.18
19.71
19.47
19.40
19.53
19.87
20.43
21.07
21.54
21.49
20.66
18.97
16.60
13.94
11.34
8.99
6.88
4.79
2.49
-0.18
-3.20
-6.42
-9.65
-12.75
-15.66
-18.39
-21.02
-23.68
-26.57
-29.90
-33.85
-38.44
-43.36
-48.00
-51.50
-53.00
-51.86
-47.88
-41.35
-32.99
-23.71
-14.43
-5.88
1.47
7.44
12.10
15.61
18.17
19.95
21.04
21.53
21.55
21.24
20.80
20.38
20.13
20.11
20.34
20.83
21.58
22.54
23.61
24.60
25.32
25.57
25.28
24.47
23.28
21.90
20.51
19.19
17.93
16.59
15.01
13.05
10.71
8.11
5.50
3.07
0.91
-1.07
-3.10
-5.45
-8.26
-11.48
-14.93
-18.30
-21.32
-23.91
-26.12
-28.25
-30.67
-33.73
-37.63
-42.21
-46.94
-50.91
-53.07
-52.50
-48.71
-41.84
-32.56
-21.96
-11.23
-1.37
6.97
13.53
18.35
21.70
23.89
25.16
25.70
25.64
25.08
24.20
23.17
22.18
21.34
20.69
20.16
19.69
19.27
18.93
18.74
18.71
18.75
18.65
18.11
16.90
14.93
12.35
9.46
6.56
3.87
1.43
-0.86
-3.20
-5.67
-8.29
-10.97
-13.62
-16.21
-18.74
-21.27
-23.78
-26.21
-28.47
-30.55
-32.56
-34.80
-37.61
-41.17
-45.29
-49.31
-52.22
-52.90
-50.59
-45.08
-36.78
-26.63
-15.77
-5.29
4.01
11.69
17.66
22.06
25.20
27.41
28.99
30.13
30.91
31.36
31.58
31.67
31.76
31.94
32.26
32.67
33.16
33.69
34.28
34.91
35.49
35.88
35.87
35.28
34.03
32.21
30.02
27.74
25.59
23.68
21.93
20.16
18.16
15.78
13.02
10.01
7.02
4.29
1.94
-0.09
-2.05
-4.26
-6.94
-10.13
-13.65
-17.20
-20.45
-23.21
-25.52
-27.65
-30.03
-33.16
-37.35
-42.59
-48.37
-53.75
-57.57
-58.69
-56.42
-50.65
-41.93
-31.33
-20.09
-9.43
-0.22
7.00
12.11
15.32
17.05
17.84
18.19
18.49
18.90
19.44
19.98
20.37
20.54
20.54
20.52
20.66
21.12
21.98
23.16
24.50
25.72
26.59
26.90
26.57
25.60
24.10
22.24
20.19
18.14
16.27
14.68
13.33
12.06
10.64
8.89
6.77
4.44
2.18
0.23
-1.30
-2.52
-3.71
-5.16
-7.05
-9.40
-12.09
-14.87
-17.53
-19.91
-21.95
-23.78
-25.70
-28.08
-31.31
-35.50
-40.39
-45.24
-48.99
-50.55
-49.11
-44.45
-36.95
-27.47
-17.08
-6.76
2.71
10.83
17.33
22.16
25.42
27.33
28.19
28.32
27.96
27.30
26.48
25.63
24.84
24.22
23.78
23.52
23.44
23.55
23.88
24.41
25.02
25.54
25.73
25.48
24.75
23.60
22.09
20.29
18.22
15.97
13.62
11.31
9.12
7.00
4.80
2.35
-0.39
-3.33
-6.25
-8.93
-11.33
-13.56
-15.86
-18.42
-21.27
-24.25
-27.06
-29.50
-31.53
-33.34
-35.25
-37.66
-40.84
-44.81
-49.25
-53.50
-56.67
-57.83
-56.29
-51.81
-44.72
-35.78
-25.95
-16.15
-7.06
0.92
7.66
13.13
17.40
20.59
22.80
24.20
24.95
25.20
25.09
24.81
24.49
24.26
24.21
24.33
24.59
24.95
25.42
26.04
26.83
27.70
28.47
28.87
28.63
27.66
26.05
24.00
21.78
19.52
17.28
15.00
12.65
10.23
7.79
5.40
3.09
0.86
-1.37
-3.71
-6.26
-9.11
-12.29
-15.76
-19.40
-23.02
-26.45
-29.62
-32.58
-35.55
-38.85
-42.80
-47.53
-52.80
-57.94
-61.88
-63.49
-61.86
-56.71
-48.46
-38.10
-26.85
-15.86
-5.96
2.40
9.05
14.02
17.46
19.64
20.91
21.64
22.18
22.70
23.25
23.72
24.00
24.06
23.97
23.93
24.15
24.78
25.81
27.07
28.30
29.20
29.60
29.46
28.80
27.71
26.27
24.55
22.61
20.53
18.38
16.21
14.03
11.87
9.76
7.73
5.78
3.86
1.80
-0.55
-3.23
-6.19
-9.19
-11.99
-14.44
-16.58
-18.62
-20.92
-23.84
-27.63
-32.32
-37.63
-42.92
-47.23
-49.50
-48.82
-44.73
-37.48
-27.92
-17.32
-6.92
2.31
9.87
15.66
19.84
22.65
24.39
25.27
25.53
25.36
24.92
24.34
23.68
23.00
22.32
21.70
21.17
20.77
20.51
20.41
20.44
20.51
20.50
20.24
19.62
18.55
17.05
15.14
12.89
10.33
7.53
4.61
1.69
-1.12
-3.79
-6.36
-8.95
-11.69
-14.60
-17.60
-20.51
-23.11
-25.21
-26.80
-27.99
-29.11
-30.57
-32.78
-36.04
-40.27
-45.00
-49.27
-51.92
-51.89
-48.55
-41.94
-32.73
-22.02
-11.00
-0.69
8.23
15.48
21.03
25.02
27.66
29.15
29.65
29.38
28.59
27.53
26.47
25.56
24.84
24.24
23.65
23.02
22.47
22.17
22.27
22.76
23.44
23.97
24.01
23.37
22.01
20.04
17.63
14.96
12.18
9.38
6.60
3.79
0.88
-2.25
-5.65
-9.24
-12.85
-16.26
-19.34
-22.10
-24.80
-27.77
-31.37
-35.77
-40.80
-45.87
-50.04
-52.28
-51.73
-48.03
-41.46
-32.84
-23.27
-13.85
-5.40
1.67
7.29
11.59
14.81
17.17
18.87
20.09
20.93
21.43
21.60
21.42
20.96
20.36
19.84
19.61
19.80
20.43
21.38
22.46
23.46
24.21
24.58
24.48
23.87
22.73
21.06
18.92
16.43
13.77
11.14
8.71
6.56
4.63
2.74
0.67
-1.78
-4.59
-7.66
-10.78
-13.75
-16.52
-19.13
-21.69
-24.34
-27.23
-30.47
-34.14
-38.20
-42.32
-45.88
-48.00
-47.75
-44.53
-38.29
-29.60
-19.53
-9.29
0.08
7.96
14.16
18.81
22.18
24.57
26.23
27.36
28.09
28.55
28.73
28.64
28.23
27.52
26.67
25.87
25.35
25.25
25.58
26.20
26.89
27.41
27.55
27.18
26.20
24.63
22.53
20.05
17.35
14.64
12.06
9.67
7.47
5.34
3.17
0.86
-1.60
-4.13
-6.58
-8.82
-10.81
-12.64
-14.46
-16.47
-18.77
-21.35
-24.09
-26.73
-29.07
-30.96
-32.45
-33.80
-35.42
-37.70
-40.82
-44.60
-48.44
-51.43
-52.59
-51.11
-46.59
-39.18
-29.54
-18.69
-7.77
2.18
10.46
16.78
21.22
24.06
25.68
26.39
26.46
26.16
25.73
25.36
25.16
25.08
25.02
24.86
24.61
24.41
24.46
24.87
25.59
26.41
27.08
27.38
27.23
26.68
25.80
24.68
23.36
21.86
20.23
18.51
16.71
14.80
12.68
10.29
7.62
4.77
1.90
-0.86
-3.44
-5.90
-8.35
-10.88
-13.53
-16.24
-18.94
-21.55
-24.09
-26.69
-29.59
-33.08
-37.32
-42.25
-47.33
-51.68
-54.23
-54.06
-50.77
-44.61
-36.39
-27.24
-18.24
-10.18
-3.47
1.83
5.90
8.95
11.18
12.69
13.56
13.83
13.58
12.97
12.18
11.40
10.77
10.37
10.25
10.47
11.07
12.01
13.19
14.36
15.28
15.76
15.70
15.19
14.34
13.22
11.85
10.24
8.41
6.47
4.57
2.84
1.29
-0.21
-1.84
-3.72
-5.84
-8.10
-10.32
-12.39
-14.28
-16.02
-17.69
-19.36
-21.18
-23.39
-26.31
-30.15
-34.84
-39.80
-44.03
-46.30
-45.64
-41.63
-34.63
-25.60
-15.78
-6.27
2.19
9.31
15.06
19.60
23.08
25.67
27.54
28.86
29.70
30.00
29.63
28.50
26.76
24.82
23.27
22.63
23.04
24.28
25.81
27.09
27.80
27.95
27.69
27.23
26.59
25.71
24.49
22.90
21.03
18.97
16.76
14.35
11.70
8.87
5.99
3.22
0.67
-1.71
-4.06
-6.51
-9.15
-11.97
-14.88
-17.80
-20.67
-23.46
-26.20
-29.00
-32.09
-35.70
-40.06
-45.14
-50.51
-55.39
-58.74
-59.55
-57.18
-51.50
-43.02
-32.65
-21.57
-10.89
-1.50
6.09
11.76
15.75
18.49
20.48
22.06
23.39
24.45
25.10
25.32
25.18
24.90
24.71
24.80
25.22
25.92
26.78
27.66
28.45
29.01
29.23
29.04
28.41
27.44
26.26
25.02
23.74
22.37
20.73
18.67
16.13
13.19
10.06
7.01
4.28
1.94
-0.11
-2.08
-4.19
-6.56
-9.18
-11.92
-14.60
-17.12
-19.47
-21.74
-24.11
-26.77
-29.96
-33.82
-38.33
-43.15
-47.60
-50.71
-51.44
-49.03
-43.30
-34.76
-24.43
-13.58
-3.34
5.54
12.74
18.24
22.19
24.80
26.28
26.88
26.90
26.64
26.34
26.08
25.83
25.48
24.99
24.40
23.86
23.55
23.58
23.96
24.56
25.14
25.46
25.28
24.50
23.15
21.40
19.47
17.60
15.88
14.25
12.56
10.63
8.38
5.91
3.42
1.14
-0.85
-2.60
-4.32
-6.27
-8.64
-11.46
-14.59
-17.78
-20.71
-23.20
-25.19
-26.91
-28.73
-31.10
-34.30
-38.31
-42.65
-46.50
-48.85
-48.83
-45.92
-40.14
-32.01
-22.39
-12.31
-2.78
5.46
11.95
16.59
19.61
21.40
22.40
22.95
23.19
23.17
22.88
22.38
21.79
21.26
20.87
20.60
20.38
20.13
19.86
19.68
19.67
19.84
20.02
19.93
19.27
17.86
15.73
13.12
10.35
7.67
5.18
2.80
0.33
-2.40
-5.45
-8.77
-12.27
-15.86
-19.49
-23.18
-26.94
-30.76
-34.60
-38.34
-41.87
-45.16
-48.31
-51.59
-55.36
-59.85
-64.96
-70.02
-73.95
-75.44
-73.40
-67.22
-56.85
-42.75
-25.77
-7.05
12.04
30.09
45.78
58.28
67.38
73.45
77.19
79.25
80.03
79.63
78.09
75.48
72.11
68.37
64.62
61.10
57.86
54.89
52.14
49.49
46.81
43.90
40.51
36.48
31.76
26.51
21.01
15.58
10.51
5.94
1.82
-2.06
-5.94
-10.05
-14.46
-19.12
-23.80
-28.22
-32.08
-35.19
-37.58
-39.44
-41.17
-43.15
-45.60
-48.43
-51.21
-53.23
-53.74
-52.15
-48.17
-41.90
-33.79
-24.56
-15.07
-6.20
1.39
7.41
11.93
15.31
17.96
20.11
21.75
22.69
22.75
21.94
20.47
18.63
16.72
14.92
13.32
12.04
11.19
10.89
11.20
11.94
12.79
13.30
13.09
11.99
10.07
7.61
4.97
2.46
0.25
-1.69
-3.53
-5.49
-7.75
-10.40
-13.40
-16.63
-19.86
-22.88
-25.52
-27.70
-29.56
-31.39
-33.58
-36.59
-40.69
-45.88
-51.69
-57.19
-61.17
-62.43
-60.10
-53.99
-44.60
-33.03
-20.66
-8.82
1.49
9.68
15.60
19.37
21.24
21.49
20.35
18.06
14.88
11.16
7.29
3.65
0.57
-1.75
-3.18
-3.57
-2.77
-0.64
2.78
7.15
11.88
16.26
19.72
22.03
23.35
24.04
24.48
24.85
25.13
25.18
24.89
24.22
23.19
21.73
19.72
17.07
13.84
10.23
6.48
2.73
-1.20
-5.73
-11.23
-17.77
-24.79
-31.20
-35.67
-37.09
-34.99
-29.68
-22.12
-13.51
-4.94
2.83
9.43
14.71
18.69
21.42
23.06
23.81
23.97
23.79
23.43
22.88
22.10
21.09
19.95
18.92
18.25
18.09
18.43
19.07
19.73
20.11
20.04
19.53
18.69
17.66
16.53
15.29
13.83
12.07
9.97
7.62
5.15
2.66
0.22
-2.22
-4.72
-7.35
-10.11
-12.91
-15.62
-18.15
-20.41
-22.38
-24.11
-25.74
-27.50
-29.67
-32.52
-36.15
-40.36
-44.56
-47.84
-49.20
-47.86
-43.54
-36.56
-27.80
-18.33
-9.16
-1.00
5.84
11.32
15.54
18.62
20.67
21.79
22.13
21.88
21.24
20.44
19.67
19.03
18.59
18.33
18.21
18.20
18.33
18.65
19.21
19.96
20.75
21.32
21.36
20.71
19.36
17.46
15.27
13.02
10.83
8.67
6.46
4.08
1.45
-1.43
-4.50
-7.66
-10.77
-13.73
-16.45
-18.94
-21.27
-23.61
-26.19
-29.27
-33.01
-37.34
-41.93
-46.08
-48.88
-49.44
-47.16
-41.93
-34.21
-24.86
-14.90
-5.26
3.37
10.62
16.33
20.53
23.37
25.04
25.77
25.76
25.19
24.25
23.13
22.00
21.01
20.23
19.65
19.19
18.79
18.40
18.01
17.66
17.30
16.87
16.22
15.21
13.74
11.77
9.37
6.68
3.87
1.10
-1.53
-4.02
-6.41
-8.80
-11.31
-14.05
-17.15
-20.72
-24.85
-29.43
-34.08
-38.05
-40.43
-40.35
-37.36
-31.61
-23.83
-15.07
-6.36
1.59
8.46
14.22
18.92
22.57
25.11
26.56
27.03
26.78
26.08
25.13
24.01
22.71
21.25
19.72
18.30
17.14
16.34
15.84
15.50
15.13
14.61
13.89
12.95
11.77
10.28
8.41
6.10
3.37
0.32
-2.89
-6.06
-9.00
-11.60
-13.86
-15.90
-17.98
-20.45
-23.60
-27.55
-32.08
-36.58
-40.15
-41.82
-40.86
-37.01
-30.59
-22.34
-13.24
-4.21
3.97
10.82
16.05
19.66
21.81
22.85
23.18
23.15
22.94
22.54
21.87
20.91
19.80
18.85
18.35
18.49
19.20
20.25
21.30
22.10
22.50
22.51
22.18
21.58
20.71
19.58
18.18
16.61
14.98
13.45
12.15
11.09
10.24
9.51
8.81
8.08
7.25
6.22
4.85
2.98
0.52
-2.48
-5.79
-9.13
-12.31
-15.31
-18.43
-22.11
-26.78
-32.60
-39.31
-46.12
-51.84
-55.19
-55.18
-51.47
-44.50
-35.41
-25.68
-16.64
-9.18
-3.59
0.35
3.07
5.06
6.64
8.03
9.33
10.59
11.78
12.85
13.71
14.28
14.48
14.31
13.86
13.27
12.74
12.48
12.62
13.20
14.05
14.89
15.41
15.44
14.98
14.30
13.76
13.71
14.32
15.55
17.08
18.47
19.18
18.80
17.14
14.35
10.84
7.23
4.03
1.56
-0.29
-1.88
-3.82
-6.63
-10.67
-15.99
-22.25
-28.71
-34.39
-38.21
-39.29
-37.26
-32.33
-25.28
-17.20
-9.14
-1.93
3.99
8.54
11.84
14.11
15.61
16.53
17.03
17.16
16.96
16.41
15.54
14.38
13.05
11.67
10.41
9.42
8.84
8.69
8.87
9.13
9.16
8.70
7.62
6.02
4.15
2.27
0.53
-1.05
-2.59
-4.21
-6.01
-8.00
-10.13
-12.28
-14.32
-16.13
-17.63
-18.89
-20.13
-21.75
-24.12
-27.45
-31.52
-35.65
-38.80
-39.91
-38.22
-33.61
-26.64
-18.29
-9.72
-1.85
4.79
10.11
14.21
17.32
19.59
21.09
21.86
21.96
21.53
20.72
19.73
18.70
17.72
16.84
16.05
15.35
14.78
14.34
14.05
13.84
13.58
13.08
12.16
10.72
8.75
6.36
3.67
0.85
-2.00
-4.82
-7.62
-10.45
-13.42
-16.60
-20.03
-23.76
-27.79
-32.10
-36.52
-40.65
-43.82
-45.19
-44.06
-40.05
-33.39
-24.79
-15.35
-6.15
2.01
8.69
13.84
17.66
20.39
22.28
23.48
24.08
24.09
23.55
22.52
21.19
19.79
18.60
17.80
17.45
17.54
17.93
18.48
19.05
19.47
19.57
19.16
18.13
16.49
14.36
11.97
9.55
7.20
4.86
2.41
-0.27
-3.19
-6.26
-9.30
-12.16
-14.84
-17.45
-20.26
-23.60
-27.72
-32.62
-37.95
-42.96
-46.69
-48.15
-46.68
-42.16
-35.03
-26.19
-16.70
-7.56
0.54
7.20
12.33
16.05
18.59
20.25
21.28
21.88
22.18
22.23
22.02
21.59
21.04
20.50
20.13
20.07
20.38
21.06
22.06
23.28
24.57
25.77
26.69
27.13
26.98
26.21
24.92
23.31
21.57
19.85
18.17
16.47
14.60
12.46
10.06
7.48
4.87
2.39
0.13
-1.95
-3.95
-6.04
-8.38
-11.01
-13.87
-16.79
-19.53
-21.93
-23.98
-25.85
-27.92
-30.62
-34.31
-39.02
-44.36
-49.51
-53.39
-54.93
-53.45
-48.81
-41.50
-32.47
-22.79
-13.44
-5.13
1.78
7.17
11.15
13.97
15.92
17.29
18.25
18.86
19.11
19.00
18.58
18.04
17.57
17.34
17.40
17.73
18.29
19.07
20.04
21.15
22.25
23.11
23.45
23.05
21.91
20.17
18.10
16.01
14.10
12.42
10.89
9.36
7.72
5.94
4.10
2.32
0.69
-0.78
-2.17
-3.68
-5.47
-7.65
-10.18
-12.90
-15.56
-17.98
-20.05
-21.80
-23.40
-25.07
-27.10
-29.75
-33.16
-37.20
-41.37
-44.81
-46.51
-45.62
-41.75
-35.12
-26.54
-17.07
-7.75
0.66
7.75
13.38
17.56
20.41
22.08
22.81
22.91
22.65
22.26
21.85
21.42
20.89
20.19
19.32
18.39
17.55
16.98
16.77
16.86
17.11
17.32
17.31
17.00
16.39
15.55
14.56
13.47
12.31
11.06
9.71
8.25
6.69
5.07
3.46
1.90
0.45
-0.93
-2.30
-3.79
-5.50
-7.51
-9.83
-12.36
-14.97
-17.46
-19.72
-21.71
-23.51
-25.35
-27.50
-30.24
-33.67
-37.62
-41.53
-44.50
-45.51
-43.79
-39.06
-31.74
-22.81
-13.47
-4.77
2.66
8.58
13.07
16.32
18.55
19.96
20.75
21.12
21.24
21.16
20.91
20.44
19.79
19.06
18.43
18.09
18.16
18.68
19.56
20.65
21.71
22.46
22.67
22.26
21.31
20.10
18.92
17.98
17.29
16.64
15.71
14.26
12.25
9.85
7.29
4.81
2.49
0.25
-2.06
-4.56
-7.31
-10.24
-13.23
-16.11
-18.75
-21.09
-23.16
-25.10
-27.13
-29.51
-32.51
-36.29
-40.80
-45.65
-50.08
-53.04
-53.48
-50.65
-44.43
-35.42
-24.72
-13.69
-3.46
5.23
12.09
17.20
20.83
23.28
24.85
25.80
26.35
26.64
26.77
26.78
26.69
26.51
26.25
25.92
25.52
25.07
24.59
24.17
23.85
23.66
23.51
23.25
22.69
21.68
20.16
18.18
15.86
13.34
10.76
8.21
5.71
3.23
0.72
-1.89
-4.64
-7.50
-10.41
-13.27
-15.96
-18.39
-20.53
-22.45
-24.35
-26.53
-29.37
-33.08
-37.62
-42.50
-46.83
-49.51
-49.58
-46.53
-40.52
-32.29
-22.96
-13.67
-5.29
1.68
7.17
11.33
14.38
16.48
17.73
18.20
17.97
17.21
16.14
14.98
13.92
13.08
12.49
12.19
12.21
12.55
13.15
13.81
14.26
14.18
13.37
11.86
9.85
7.67
5.60
3.72
1.92
-0.03
-2.35
-5.10
-8.18
-11.32
-14.32
-17.01
-19.41
-21.65
-23.92
-26.48
-29.59
-33.42
-37.88
-42.55
-46.55
-48.84
-48.42
-44.77
-38.03
-28.97
-18.74
-8.50
0.81
8.69
15.02
19.89
23.57
26.29
28.24
29.55
30.32
30.66
30.69
30.54
30.32
30.07
29.77
29.37
28.89
28.42
28.10
28.02
28.15
28.21
27.81
26.58
24.32
21.12
17.31
13.30
9.35
5.50
1.59
-2.58
-7.07
-11.74
-16.31
-20.57
-24.41
-27.91
-31.22
-34.53
-37.99
-41.78
-45.96
-50.44
-54.78
-58.17
-59.66
-58.37
-53.86
-46.32
-36.54
-25.60
-14.56
-4.22
5.01
12.94
19.58
24.93
29.08
32.10
34.16
35.45
36.15
36.38
36.24
35.83
35.26
34.73
34.42
34.42
34.71
35.14
35.49
35.53
35.09
34.07
32.51
30.57
28.55
26.77
25.33
24.07
22.49
20.03
16.28
11.22
5.26
-0.99
-7.00
-12.49
-17.46
-22.07
-26.46
-30.73
-34.97
-39.35
-44.11
-49.30
-54.65
-59.39
-62.41
-62.61
-59.27
-52.39
-42.64
-31.21
-19.37
-8.23
1.49
9.48
15.75
20.45
23.78
25.93
26.98
26.94
25.85
23.78
20.96
17.73
14.59
12.02
10.46
10.15
11.10
12.99
15.28
17.33
18.57
18.75
17.96
16.60
15.12
13.83
12.75
11.60
10.02
7.76
4.82
1.42
-2.13
-5.65
-9.16
-12.90
-17.19
-22.25
-28.10
-34.41
-40.56
-45.67
-48.78
-49.09
-46.15
-40.04
-31.36
-21.05
-10.19
0.24
9.52
17.25
23.28
27.70
30.79
32.91
34.44
35.62
36.56
37.22
37.50
37.35
36.78
35.93
34.93
33.90
32.91
31.96
31.02
30.03
28.87
27.39
25.42
22.87
19.80
16.41
13.00
9.77
6.81
4.01
1.18
-1.86
-5.14
-8.56
-11.94
-15.10
-17.96
-20.54
-22.97
-25.41
-28.10
-31.22
-34.85
-38.77
-42.44
-45.01
-45.50
-43.15
-37.72
-29.61
-19.78
-9.43
0.31
8.70
15.46
20.65
24.54
27.38
29.32
30.44
30.86
30.69
30.16
29.47
28.77
28.12
27.50
26.85
26.16
25.48
24.92
24.55
24.37
24.27
24.02
23.41
22.26
20.51
18.25
15.67
13.02
10.52
8.30
6.33
4.44
2.40
0.01
-2.79
-5.87
-8.98
-11.81
-14.15
-15.98
-17.51
-19.04
-20.92
-23.39
-26.56
-30.40
-34.75
-39.25
-43.32
-46.21
-47.11
-45.38
-40.82
-33.79
-25.10
-15.81
-6.87
1.06
7.70
13.02
17.15
20.20
22.31
23.60
24.18
24.19
23.76
23.02
22.15
21.33
20.74
20.49
20.60
20.99
21.52
22.05
22.44
22.54
22.26
21.49
20.24
18.56
16.62
14.56
12.50
10.44
8.36
6.24
4.13
2.11
0.26
-1.41
-2.97
-4.54
-6.25
-8.16
-10.28
-12.55
-14.88
-17.21
-19.47
-21.64
-23.77
-25.99
-28.54
-31.66
-35.42
-39.54
-43.34
-45.90
-46.31
-43.99
-38.93
-31.66
-23.09
-14.18
-5.77
1.59
7.67
12.44
16.05
18.70
20.60
21.91
22.73
23.09
23.01
22.53
21.82
21.07
20.47
20.10
19.96
19.95
19.94
19.84
19.62
19.29
18.81
18.13
17.13
15.73
13.92
11.81
9.58
7.46
5.58
4.00
2.63
1.35
0.04
-1.39
-2.97
-4.68
-6.49
-8.33
-10.14
-11.89
-13.59
-15.26
-16.94
-18.70
-20.64
-22.91
-25.67
-28.98
-32.64
-36.14
-38.65
-39.29
-37.36
-32.69
-25.71
-17.35
-8.72
-0.82
5.72
10.67
14.12
16.27
17.38
17.66
17.30
16.49
15.47
14.42
13.47
12.61
11.78
10.90
9.98
9.12
8.49
8.20
8.24
8.48
8.65
8.48
7.82
6.61
4.95
3.01
0.97
-1.01
-2.89
-4.71
-6.62
-8.79
-11.30
-14.12
-17.06
-19.90
-22.43
-24.62
-26.60
-28.68
-31.17
-34.25
-37.81
-41.43
-44.39
-45.87
-45.21
-42.05
-36.49
-29.07
-20.58
-11.92
-3.85
3.05
8.49
12.41
14.95
16.34
16.87
16.81
16.36
15.64
14.67
13.47
12.05
10.49
8.94
7.57
6.54
5.89
5.51
5.19
4.64
3.62
1.96
-0.35
-3.21
-6.43
-9.85
-13.32
-16.80
-20.34
-23.98
-27.80
-31.79
-35.89
-39.89
-43.50
-46.44
-48.54
-49.92
-50.99
-52.38
-54.61
-57.82
-61.45
-64.34
-64.99
-62.12
-55.06
-44.08
-30.19
-14.85
0.61
15.26
28.75
41.16
52.82
64.01
74.87
85.19
94.47
102.02
107.15
109.58
109.61
108.15
106.38
105.24
104.97
104.98
104.12
101.29
95.89
88.08
78.57
68.24
57.72
47.32
37.04
26.85
16.74
6.83
-2.69
-11.63
-19.79
-26.94
-32.88
-37.49
-40.77
-42.83
-43.81
-43.90
-43.25
-42.09
-40.72
-39.57
-39.10
-39.65
-41.33
-43.87
-46.65
-48.82
-49.55
-48.12
-44.20
-37.78
-29.21
-19.13
-8.30
2.46
12.42
21.04
28.01
33.22
36.61
38.09
37.43
34.44
29.21
22.33
14.83
7.97
2.74
-0.46
-1.86
-2.10
-1.79
-1.23
-0.39
0.90
2.66
4.57
6.15
6.91
6.62
5.32
3.23
0.66
-2.18
-5.14
-8.13
-10.98
-13.54
-15.62
-17.20
-18.38
-19.45
-20.78
-22.74
-25.53
-29.03
-32.84
-36.21
-38.30
-38.40
-36.12
-31.52
-25.06
-17.47
-9.53
-1.91
4.94
10.84
15.83
20.03
23.58
26.50
28.64
29.77
29.74
28.58
26.61
24.37
22.37
20.88
19.81
18.84
17.56
15.80
13.64
11.36
9.17
7.06
4.79
1.98
-1.66
-6.19
-11.52
-17.44
-23.70
-29.98
-35.89
-40.98
-44.96
-47.92
-50.32
-52.77
-55.67
-58.81
-61.39
-62.27
-60.49
-55.67
-48.20
-38.96
-28.94
-18.91
-9.35
-0.54
7.35
14.05
19.35
23.08
25.34
26.37
26.53
26.14
25.37
24.24
22.76
20.93
18.90
16.81
14.79
12.84
10.84
8.64
6.10
3.16
-0.14
-3.74
-7.53
-11.41
-15.22
-18.82
-22.12
-25.13
-27.93
-30.63
-33.15
-35.23
-36.39
-36.06
-33.76
-29.36
-23.03
-15.35
-7.02
1.22
8.79
15.30
20.61
24.68
27.56
29.36
30.18
30.16
29.44
28.19
26.56
24.69
22.73
20.81
19.01
17.41
16.00
14.76
13.66
12.60
11.48
10.15
8.49
6.36
3.77
0.79
-2.44
-5.77
-9.12
-12.57
-16.30
-20.51
-25.24
-30.25
-34.92
-38.40
-39.82
-38.52
-34.34
-27.61
-19.10
-9.85
-0.80
7.30
14.03
19.30
23.22
26.04
27.99
29.28
30.04
30.37
30.30
29.86
29.10
28.07
26.82
25.45
24.06
22.73
21.51
20.42
19.45
18.56
17.59
16.32
14.52
11.99
8.72
4.95
1.08
-2.42
-5.28
-7.53
-9.54
-11.86
-14.99
-19.15
-24.12
-29.31
-33.87
-36.91
-37.69
-35.81
-31.29
-24.51
-16.16
-7.11
1.79
9.87
16.73
22.27
26.62
29.98
32.50
34.27
35.31
35.66
35.44
34.83
33.99
33.04
31.99
30.86
29.69
28.58
27.68
27.06
26.68
26.36
25.87
25.01
23.69
21.92
19.78
17.35
14.67
11.70
8.39
4.67
0.53
-3.99
-8.74
-13.51
-18.06
-22.25
-26.05
-29.63
-33.27
-37.26
-41.76
-46.75
-51.95
-56.83
-60.64
-62.59
-61.99
-58.49
-52.17
-43.58
-33.64
-23.38
-13.72
-5.27
1.74
7.43
12.07
15.97
19.34
22.23
24.65
26.57
28.05
29.15
29.93
30.38
30.46
30.19
29.66
29.07
28.62
28.35
28.09
27.51
26.30
24.28
21.54
18.38
15.09
11.90
8.88
6.00
3.18
0.37
-2.43
-5.23
-8.01
-10.74
-13.36
-15.77
-17.91
-19.76
-21.48
-23.40
-25.82
-28.89
-32.35
-35.60
-37.73
-37.87
-35.52
-30.64
-23.77
-15.76
-7.58
0.01
6.54
11.89
16.14
19.44
21.92
23.61
24.51
24.65
24.22
23.47
22.74
22.22
21.92
21.67
21.19
20.36
19.25
18.10
17.21
16.75
16.59
16.44
15.92
14.81
13.10
11.00
8.81
6.75
4.91
3.21
1.47
-0.46
-2.71
-5.29
-8.12
-11.07
-13.95
-16.60
-18.88
-20.76
-22.28
-23.66
-25.15
-27.09
-29.67
-32.85
-36.23
-39.11
-40.63
-40.04
-36.99
-31.62
-24.58
-16.79
-9.13
-2.29
3.39
7.82
11.09
13.36
14.77
15.48
15.67
15.51
15.18
14.83
14.53
14.32
14.24
14.29
14.50
14.89
15.47
16.17
16.94
17.66
18.20
18.38
18.07
17.18
15.72
13.80
11.66
9.54
7.62
5.98
4.57
3.27
1.95
0.47
-1.22
-3.07
-4.96
-6.73
-8.32
-9.76
-11.23
-12.95
-15.10
-17.80
-21.05
-24.73
-28.60
-32.22
-35.01
-36.30
-35.53
-32.48
-27.38
-20.90
-13.88
-7.08
-0.99
4.20
8.50
11.93
14.48
16.11
16.87
16.91
16.49
15.90
15.38
15.09
15.09
15.35
15.73
16.09
16.26
16.18
15.87
15.45
14.97
14.43
13.65
12.44
10.67
8.37
5.75
3.09
0.60
-1.63
-3.68
-5.66
-7.68
-9.81
-12.03
-14.35
-16.74
-19.12
-21.36
-23.29
-24.75
-25.75
-26.48
-27.36
-28.83
-31.21
-34.47
-38.18
-41.51
-43.53
-43.41
-40.75
-35.66
-28.75
-20.85
-12.83
-5.36
1.16
6.57
10.89
14.23
16.71
18.40
19.36
19.61
19.21
18.25
16.94
15.55
14.35
13.56
13.23
13.33
13.72
14.30
15.02
15.86
16.74
17.52
17.96
17.81
16.91
15.27
13.05
10.58
8.18
6.08
4.32
2.79
1.27
-0.46
-2.54
-4.96
-7.59
-10.19
-12.56
-14.63
-16.49
-18.39
-20.72
-23.75
-27.60
-32.05
-36.54
-40.24
-42.31
-42.08
-39.24
-33.93
-26.69
-18.30
-9.65
-1.53
5.50
11.16
15.41
18.46
20.56
21.98
22.88
23.37
23.50
23.38
23.14
22.95
22.94
23.16
23.54
23.95
24.28
24.49
24.60
24.67
24.70
24.63
24.29
23.54
22.29
20.59
18.58
16.47
14.38
12.38
10.40
8.35
6.09
3.57
0.77
-2.27
-5.48
-8.74
-11.95
-15.01
-17.94
-20.86
-24.01
-27.66
-31.93
-36.75
-41.66
-45.95
-48.72
-49.14
-46.70
-41.45
-33.94
-25.14
-16.06
-7.56
-0.12
6.12
11.16
15.08
17.89
19.63
20.45
20.61
20.41
20.08
19.75
19.38
18.92
18.38
17.89
17.60
17.64
18.04
18.66
19.28
19.60
19.37
18.47
16.93
14.93
12.74
10.62
8.64
6.73
4.66
2.20
-0.75
-4.08
-7.58
-11.03
-14.32
-17.49
-20.65
-23.89
-27.28
-30.83
-34.53
-38.28
-41.80
-44.55
-45.73
-44.52
-40.38
-33.37
-24.18
-13.96
-3.97
4.82
11.90
17.21
20.98
23.50
25.00
25.66
25.60
24.98
23.96
22.75
21.60
20.68
20.14
20.00
20.16
20.46
20.74
20.90
20.89
20.67
20.14
19.20
17.69
15.57
12.96
10.07
7.16
4.31
1.45
-1.66
-5.20
-9.19
-13.44
-17.55
-21.21
-24.28
-26.95
-29.62
-32.78
-36.76
-41.51
-46.58
-51.14
-54.19
-54.86
-52.60
-47.43
-39.84
-30.69
-20.92
-11.38
-2.70
4.74
10.77
15.40
18.73
20.99
22.44
23.33
23.85
24.07
24.06
23.85
23.58
23.36
23.29
23.44
23.74
24.14
24.56
24.96
25.25
25.36
25.13
24.40
23.07
21.16
18.83
16.34
13.91
11.66
9.53
7.32
4.86
2.05
-0.99
-3.99
-6.63
-8.69
-10.19
-11.42
-12.90
-15.20
-18.72
-23.42
-28.82
-33.95
-37.71
-39.03
-37.30
-32.49
-25.13
-16.18
-6.70
2.36
10.33
16.88
21.94
25.59
27.97
29.22
29.51
28.99
27.87
26.33
24.59
22.81
21.11
19.57
18.24
17.15
16.34
15.88
15.75
15.86
16.02
15.98
15.52
14.48
12.86
10.80
8.53
6.29
4.27
2.54
1.00
-0.54
-2.34
-4.57
-7.25
-10.18
-13.05
-15.57
-17.61
-19.30
-20.96
-23.01
-25.78
-29.40
-33.68
-38.14
-42.00
-44.38
-44.47
-41.76
-36.26
-28.50
-19.44
-10.14
-1.51
5.86
11.77
16.26
19.48
21.64
22.93
23.51
23.56
23.26
22.72
22.02
21.20
20.30
19.38
18.54
17.89
17.50
17.35
17.32
17.22
16.83
15.95
14.50
12.55
10.27
7.89
5.58
3.38
1.19
-1.14
-3.71
-6.53
-9.47
-12.34
-14.99
-17.40
-19.62
-21.85
-24.25
-27.04
-30.35
-34.21
-38.39
-42.33
-45.19
-46.02
-44.12
-39.27
-31.90
-22.97
-13.69
-5.10
2.12
7.76
11.94
14.97
17.11
18.57
19.45
19.81
19.72
19.31
18.69
17.97
17.24
16.57
16.06
15.83
15.99
16.59
17.48
18.41
18.98
18.90
18.03
16.47
14.47
12.35
10.31
8.34
6.36
4.17
1.65
-1.20
-4.25
-7.35
-10.32
-13.05
-15.53
-17.85
-20.18
-22.77
-25.87
-29.58
-33.78
-37.96
-41.31
-42.82
-41.69
-37.54
-30.61
-21.74
-12.05
-2.72
5.37
11.78
16.45
19.65
21.76
23.16
24.06
24.56
24.65
24.30
23.59
22.67
21.78
21.10
20.71
20.56
20.54
20.56
20.62
20.72
20.86
20.90
20.61
19.74
18.13
15.87
13.20
10.46
7.96
5.80
3.90
2.04
-0.02
-2.43
-5.21
-8.25
-11.38
-14.40
-17.21
-19.79
-22.19
-24.55
-27.10
-30.04
-33.53
-37.55
-41.80
-45.66
-48.25
-48.66
-46.23
-40.76
-32.65
-22.79
-12.37
-2.54
5.84
12.34
17.00
20.13
22.22
23.69
24.86
25.80
26.49
26.86
26.90
26.67
26.27
25.83
25.41
25.09
24.93
24.98
25.25
25.63
25.93
25.90
25.33
24.12
22.34
20.17
17.78
15.32
12.84
10.34
7.85
5.41
3.07
0.87
-1.29
-3.52
-5.95
-8.63
-11.47
-14.30
-16.91
-19.20
-21.21
-23.13
-25.23
-27.77
-30.94
-34.73
-38.91
-42.93
-45.98
-47.16
-45.73
-41.41
-34.51
-25.85
-16.56
-7.66
0.14
6.57
11.66
15.58
18.49
20.49
21.62
21.99
21.81
21.34
20.83
20.50
20.41
20.49
20.62
20.72
20.79
20.96
21.37
22.09
23.05
24.00
24.60
24.56
23.74
22.18
20.08
17.69
15.23
12.84
10.58
8.40
6.22
3.87
1.17
-2.03
-5.76
-9.91
-14.20
-18.28
-21.89
-24.97
-27.72
-30.49
-33.65
-37.37
-41.55
-45.72
-49.19
-51.15
-50.86
-47.87
-42.15
-34.09
-24.51
-14.40
-4.75
3.69
10.54
15.76
19.52
22.15
23.94
25.10
25.73
25.86
25.50
24.71
23.68
22.63
21.82
21.38
21.32
21.52
21.78
21.98
22.03
21.94
21.72
21.36
20.80
19.95
18.79
17.33
15.64
13.80
11.90
10.01
8.18
6.43
4.71
2.96
1.04
-1.13
-3.59
-6.30
-9.14
-12.01
-14.81
-17.47
-20.01
-22.51
-25.12
-28.05
-31.42
-35.22
-39.10
-42.37
-44.14
-43.58
-40.20
-34.10
-25.93
-16.68
-7.44
0.93
7.92
13.35
17.31
19.97
21.58
22.37
22.59
22.46
22.13
21.72
21.28
20.82
20.36
19.96
19.70
19.61
19.69
19.85
19.96
19.87
19.46
18.66
17.42
15.67
13.37
10.54
7.28
3.83
0.48
-2.54
-5.12
-7.35
-9.45
-11.68
-14.21
-17.04
-20.02
-22.93
-25.58
-27.86
-29.80
-31.57
-33.43
-35.67
-38.50
-41.98
-45.86
-49.56
-52.23
-52.96
-51.01
-46.10
-38.54
-29.11
-18.85
-8.81
0.22
7.77
13.70
18.10
21.22
23.34
24.70
25.45
25.67
25.41
24.75
23.87
22.98
22.30
21.91
21.80
21.86
21.96
21.97
21.85
21.53
20.93
19.96
18.56
16.75
14.64
12.39
10.11
7.86
5.57
3.12
0.41
-2.57
-5.67
-8.70
-11.44
-13.84
-16.00
-18.27
-21.02
-24.57
-28.97
-33.86
-38.54
-42.04
-43.39
-41.93
-37.43
-30.25
-21.23
-11.44
-1.95
6.40
13.18
18.33
22.03
24.54
26.10
26.83
26.81
26.14
24.96
23.47
21.88
20.36
18.97
17.73
16.63
15.69
14.94
14.45
14.20
14.13
14.07
13.79
13.10
11.89
10.18
8.15
6.03
4.04
2.26
0.62
-1.07
-3.05
-5.44
-8.20
-11.10
-13.86
-16.27
-18.29
-20.05
-21.82
-23.83
-26.26
-29.20
-32.61
-36.30
-39.83
-42.49
-43.43
-41.88
-37.45
-30.34
-21.30
-11.41
-1.74
6.87
14.00
19.54
23.61
26.39
28.14
29.11
29.53
29.60
29.46
29.16
28.72
28.20
27.66
27.24
27.01
27.05
27.36
27.88
28.57
29.35
30.09
30.65
30.83
30.51
29.66
28.36
26.78
25.09
23.35
21.54
19.53
17.24
14.62
11.69
8.47
4.98
1.26
-2.69
-6.79
-10.94
-15.07
-19.11
-23.01
-26.70
-30.04
-32.94
-35.39
-37.57
-39.87
-42.76
-46.58
-51.29
-56.38
-60.89
-63.68
-63.77
-60.61
-54.25
-45.26
-34.57
-23.24
-12.25
-2.36
5.90
12.31
16.89
19.88
21.67
22.68
23.23
23.54
23.66
23.57
23.24
22.66
21.89
21.05
20.27
19.69
19.38
19.28
19.27
19.14
18.72
17.89
16.61
14.97
13.11
11.21
9.45
7.93
6.71
5.73
4.86
3.95
2.90
1.70
0.43
-0.83
-2.03
-3.28
-4.72
-6.45
-8.44
-10.53
-12.47
-14.09
-15.36
-16.36
-17.30
-18.40
-19.84
-21.81
-24.43
-27.72
-31.37
-34.73
-36.80
-36.60
-33.48
-27.46
-19.24
-9.97
-0.84
7.23
13.80
18.79
22.37
24.75
26.10
26.56
26.29
25.49
24.34
23.06
21.81
20.74
19.94
19.47
19.31
19.43
19.72
20.11
20.48
20.72
20.71
20.31
19.46
18.15
16.46
14.52
12.51
10.50
8.56
6.69
4.89
3.17
1.52
-0.11
-1.78
-3.57
-5.51
-7.56
-9.63
-11.62
-13.48
-15.20
-16.82
-18.40
-20.04
-21.92
-24.26
-27.24
-30.91
-34.99
-38.80
-41.44
-41.98
-39.80
-34.83
-27.56
-18.91
-9.95
-1.63
5.44
11.02
15.20
18.21
20.32
21.74
22.59
22.96
22.94
22.67
22.27
21.83
21.37
20.93
20.53
20.25
20.23
20.54
21.19
22.08
22.98
23.60
23.66
22.98
21.53
19.42
16.89
14.23
11.67
9.31
7.15
5.06
2.87
0.42
-2.36
-5.45
-8.76
-12.12
-15.37
-18.36
-21.05
-23.53
-25.97
-28.64
-31.80
-35.63
-40.06
-44.74
-48.96
-51.79
-52.31
-49.88
-44.43
-36.45
-26.89
-16.86
-7.39
0.84
7.50
12.55
16.12
18.43
19.68
20.11
19.97
19.49
18.92
18.44
18.16
18.07
18.12
18.20
18.29
18.44
18.74
19.32
20.16
21.15
22.03
22.55
22.53
21.90
20.70
19.03
17.02
14.80
12.52
10.31
8.25
6.32
4.38
2.27
-0.11
-2.72
-5.36
-7.85
-10.10
-12.23
-14.52
-17.26
-20.67
-24.78
-29.49
-34.47
-39.26
-43.23
-45.74
-46.19
-44.27
-40.01
-33.73
-25.97
-17.31
-8.36
0.19
7.55
12.92
15.75
16.07
14.56
12.39
10.71
10.20
10.81
11.90
12.64
12.48
11.36
9.61
7.76
6.36
5.98
7.35
11.21
17.80
26.17
34.00
38.17
36.13
27.32
13.80
-0.56
-11.71
-17.25
-17.28
-13.97
-10.14
-7.82
-7.55
-8.79
-10.64
-12.69
-15.10
-18.13
-21.64
-24.85
-26.52
-25.53
-21.44
-14.72
-6.59
1.44
8.12
12.89
15.90
17.75
19.08
20.20
20.99
21.04
19.93
17.58
14.37
11.07
8.65
7.96
9.47
13.16
18.53
24.69
30.50
34.74
36.37
34.72
29.72
21.94
12.49
2.74
-5.96
-12.53
-16.41
-17.65
-16.94
-15.35
-14.06
-14.00
-15.54
-18.37
-21.69
-24.43
-25.55
-24.25
-20.13
-13.32
-4.50
5.12
14.12
21.22
25.75
27.81
28.19
27.91
27.78
28.15
28.92
29.72
30.05
29.41
27.39
23.74
18.51
12.16
5.53
-0.36
-4.69
-7.08
-7.74
-7.28
-6.47
-5.99
-6.27
-7.49
-9.62
-12.45
-15.66
-18.90
-21.91
-24.77
-27.93
-32.22
-38.49
-47.31
-58.58
-71.36
-83.97
-94.42
-100.93
-102.46
-98.91
-91.16
-80.58
-68.72
-56.76
-45.48
-35.18
-25.93
-17.73
-10.58
-4.54
0.39
4.31
7.40
9.88
11.91
13.57
14.81
15.64
16.12
16.51
17.16
18.40
20.38
22.94
25.66
27.91
29.12
28.96
27.38
24.62
21.10
17.34
13.83
10.96
8.84
7.26
5.67
3.36
-0.21
-5.07
-10.63
-15.76
-19.20
-19.97
-17.68
-12.59
-5.37
3.23
12.58
22.29
32.10
41.77
51.02
59.58
67.20
73.72
78.95
82.71
84.86
85.43
84.78
83.56
82.42
81.69
81.07
79.63
76.14
69.59
59.70
47.08
33.11
19.44
7.51
-1.88
-8.64
-13.31
-16.72
-19.67
-22.70
-26.01
-29.63
-33.56
-37.85
-42.55
-47.65
-52.99
-58.34
-63.53
-68.55
-73.45
-78.08
-81.91
-84.03
-83.41
-79.34
-71.79
-61.43
-49.45
-37.12
-25.40
-14.81
-5.42
2.91
10.36
17.02
22.82
27.64
31.40
34.11
35.94
37.12
37.94
38.54
39.00
39.28
39.33
39.15
38.76
38.18
37.43
36.44
35.11
33.27
30.83
27.76
24.22
20.45
16.73
13.24
10.06
7.15
4.45
1.96
-0.28
-2.30
-4.32
-6.64
-9.47
-12.65
-15.48
-16.84
-15.58
-10.96
-2.93
7.76
19.82
31.63
41.59
48.39
51.27
50.23
46.11
40.46
35.22
32.20
32.66
36.97
44.65
54.51
65.04
74.66
82.08
86.36
87.16
84.58
79.09
71.29
61.77
50.99
39.34
27.24
15.09
3.26
-8.04
-18.86
-29.44
-40.05
-50.74
-61.15
-70.52
-77.99
-82.85
-84.94
-84.69
-82.95
-80.66
-78.56
-76.98
-75.92
-75.14
-74.36
-73.43
-72.32
-71.13
-70.05
-69.22
-68.75
-68.47
-68.00
-66.82
-64.41
-60.60
-55.57
-49.83
-43.93
-38.22
-32.75
-27.30
-21.62
-15.66
-9.62
-3.87
1.20
5.38
8.60
10.91
12.30
12.70
12.02
10.29
7.70
4.61
1.42
-1.60
-4.36
-7.00
-9.76
-12.85
-16.40
-20.45
-24.90
-29.40
-33.31
-35.66
-35.42
-31.80
-24.56
-14.22
-1.87
11.10
23.42
34.17
42.91
49.60
54.43
57.75
59.99
61.59
62.96
64.34
65.67
66.56
66.33
64.15
59.35
51.67
41.42
29.42
16.79
4.59
-6.44
-16.01
-24.17
-31.18
-37.28
-42.66
-47.40
-51.62
-55.42
-58.84
-61.85
-64.22
-65.64
-65.80
-64.60
-62.27
-59.34
-56.52
-54.51
-53.72
-54.14
-55.21
-56.01
-55.44
-52.57
-46.96
-38.82
-28.86
-18.09
-7.48
2.38
11.29
19.38
26.91
34.04
40.74
46.82
52.07
56.30
59.53
61.85
63.52
64.77
65.86
66.90
67.87
68.59
68.77
68.14
66.55
64.00
60.65
56.70
52.25
47.31
41.79
35.56
28.56
20.78
12.25
3.10
-6.45
-15.95
-24.76
-32.15
-37.55
-40.80
-42.28
-42.82
-43.47
-45.17
-48.44
-53.27
-59.15
-65.06
-69.72
-71.76
-70.01
-63.78
-53.07
-38.60
-21.74
-4.15
12.58
27.25
39.26
48.52
55.29
59.96
62.83
64.08
63.81
62.17
59.36
55.64
51.26
46.39
41.13
35.62
30.03
24.54
19.26
14.09
8.77
3.07
-2.99
-9.03
-14.37
-18.37
-20.73
-21.64
-21.68
-21.56
-21.70
-22.12
-22.50
-22.43
-21.73
-20.71
-20.03
-20.48
-22.52
-26.06
-30.42
-34.62
-37.88
-40.04
-41.79
-44.56
-50.13
-60.18
-75.83
-97.25
-123.37
-151.56
-177.60
-196.30
-202.58
-193.16
-167.84
-130.04
-86.01
-43.02
-7.28
17.59
31.02
34.93
32.45
26.75
20.46
15.42
12.95
13.82
18.18
25.42
34.18
42.65
49.13
52.71
53.50
52.56
51.31
50.82
51.27
51.93
51.53
48.90
43.53
35.67
26.22
16.37
7.18
-0.64
-6.77
-11.27
-14.41
-16.61
-18.27
-19.74
-21.29
-23.17
-25.64
-28.91
-33.01
-37.64
-42.09
-45.44
-46.73
-45.35
-41.16
-34.47
-25.92
-16.25
-6.18
3.63
12.58
20.20
26.26
30.73
33.88
36.06
37.60
38.70
39.44
39.84
39.97
39.94
39.87
39.85
39.83
39.72
39.33
38.56
37.40
35.94
34.31
32.60
30.82
28.84
26.50
23.67
20.36
16.76
13.15
9.79
6.82
4.13
1.48
-1.51
-5.12
-9.58
-14.99
-21.21
-27.81
-33.98
-38.61
-40.49
-38.68
-32.88
-23.50
-11.56
1.62
14.81
27.10
37.92
46.95
54.03
59.10
62.15
63.30
62.73
60.72
57.63
53.95
50.21
46.95
44.57
43.22
42.81
43.04
43.54
44.01
44.20
43.97
43.16
41.62
39.27
36.10
32.21
27.82
23.14
18.35
13.62
9.08
4.86
1.12
-2.07
-4.79
-7.35
-10.27
-14.13
-19.32
-25.76
-32.73
-39.02
-43.20
-44.11
-41.25
-34.94
-26.17
-16.31
-6.64
1.96
9.11
14.88
19.56
23.45
26.67
29.14
30.71
31.23
30.69
29.28
27.40
25.52
24.13
23.62
24.27
26.15
29.15
32.89
36.81
40.15
42.22
42.51
40.93
37.85
33.90
29.79
26.03
22.78
19.86
16.89
13.45
9.26
4.10
-2.16
-9.67
-18.47
-28.42
-38.92
-48.93
-57.07
-61.95
-62.58
-58.70
-50.88
-40.29
-28.43
-16.68
-6.01
3.03
10.34
15.99
20.09
22.71
23.89
23.73
22.44
20.41
18.04
15.78
13.88
12.45
11.41
10.57
9.72
8.73
7.59
6.44
5.41
4.57
3.74
2.57
0.63
-2.40
-6.48
-11.26
-16.15
-20.58
-24.21
-27.02
-29.22
-31.23
-33.48
-36.41
-40.34
-45.33
-50.98
-56.44
-60.48
-61.87
-59.79
-54.10
-45.42
-34.82
-23.54
-12.57
-2.54
6.23
13.62
19.57
24.01
26.90
28.33
28.48
27.69
26.39
25.00
23.93
23.46
23.72
24.69
26.21
28.06
29.96
31.63
32.80
33.18
32.44
30.33
26.72
21.71
15.67
9.11
2.58
-3.59
-9.34
-14.92
-20.71
-27.08
-34.15
-41.63
-48.82
-54.70
-58.23
-58.59
-55.46
-49.13
-40.43
-30.50
-20.46
-11.20
-3.20
3.41
8.71
12.85
15.98
18.18
19.49
19.96
19.65
18.68
17.23
15.52
13.77
12.21
11.00
10.25
9.98
10.10
10.39
10.56
10.30
9.37
7.70
5.42
2.81
0.20
-2.10
-3.91
-5.20
-6.11
-6.92
-7.99
-9.68
-12.18
-15.41
-18.89
-21.81
-23.22
-22.32
-18.75
-12.73
-5.03
3.28
11.14
17.79
22.83
26.22
28.11
28.75
28.34
27.07
25.14
22.72
20.02
17.18
14.34
11.58
8.97
6.52
4.23
2.13
0.29
-1.18
-2.13
-2.51
-2.40
-2.06
-1.83
-2.06
-2.91
-4.40
-6.33
-8.49
-10.68
-12.79
-14.85
-16.98
-19.36
-22.21
-25.64
-29.58
-33.60
-36.99
-38.83
-38.30
-34.93
-28.79
-20.51
-11.04
-1.48
7.28
14.61
20.27
24.33
27.01
28.62
29.40
29.56
29.25
28.61
27.81
27.03
26.41
26.05
25.91
25.89
25.86
25.73
25.42
24.85
23.97
22.67
20.85
18.44
15.41
11.82
7.76
3.45
-0.89
-5.03
-8.80
-12.13
-15.11
-17.92
-20.87
-24.32
-28.47
-33.30
-38.38
-42.84
-45.55
-45.45
-41.89
-34.99
-25.55
-14.88
-4.32
5.11
12.94
19.19
24.04
27.62
29.84
30.41
29.13
26.07
21.60
16.38
11.17
6.58
3.04
0.76
-0.20
0.15
1.59
3.72
5.90
7.51
8.19
8.14
8.05
8.82
11.04
14.65
18.83
22.37
24.23
23.91
21.62
17.99
13.71
9.22
4.71
0.23
-4.10
-8.00
-11.21
-13.69
-15.81
-18.31
-22.03
-27.46
-34.40
-41.78
-47.87
-50.84
-49.37
-43.14
-33.01
-20.72
-8.25
2.67
11.14
17.16
21.50
25.37
29.92
35.88
43.29
51.51
59.43
65.94
70.28
72.20
71.88
69.56
65.27
58.77
49.70
37.97
24.07
9.06
-5.63
-18.67
-29.27
-37.34
-43.37
-48.12
-52.24
-56.05
-59.57
-62.63
-65.11
-67.07
-68.64
-69.86
-70.45
-69.83
-67.26
-62.19
-54.60
-45.08
-34.57
-23.88
-13.27
-2.37
9.43
22.35
35.71
47.96
57.13
61.64
60.93
55.58
46.91
36.40
25.21
14.06
3.42
-6.24
-14.38
-20.41
-23.95
-24.87
-23.31
-19.61
-14.29
-8.02
-1.66
3.87
7.84
9.93
10.40
9.96
9.44
9.35
9.74
10.18
10.18
9.59
8.77
8.49
9.54
12.22
16.01
19.68
21.64
20.57
15.88
7.83
-2.63
-14.18
-25.53
-35.61
-43.69
-49.39
-52.86
-54.78
-56.30
-58.56
-62.07
-66.32
-69.77
-70.43
-66.81
-58.63
-47.10
-34.42
-22.96
-14.38
-9.20
-6.93
-6.59
-7.30
-8.49
-9.85
-11.13
-11.93
-11.79
-10.45
-8.16
-5.71
-4.23
-4.75
-7.70
-12.77
-18.96
-24.97
-29.63
-32.28
-32.89
-32.02
-30.63
-29.73
-30.12
-32.01
-34.99
-38.07
-40.03
-39.84
-37.03
-31.79
-24.84
-17.10
-9.29
-1.74
5.58
12.89
20.32
27.77
34.89
41.23
46.40
50.18
52.50
53.42
53.04
51.52
49.06
45.99
42.67
39.43
36.49
33.87
31.41
28.78
25.65
21.78
17.13
11.97
6.77
2.10
-1.54
-3.93
-5.27
-6.07
-7.08
-8.97
-12.10
-16.27
-20.73
-24.36
-25.96
-24.72
-20.44
-13.64
-5.42
2.97
10.50
16.60
21.21
24.63
27.20
29.13
30.49
31.25
31.45
31.28
30.94
30.57
30.12
29.34
27.97
25.93
23.40
20.79
18.50
16.69
15.23
13.74
11.87
9.55
6.95
4.40
2.04
-0.27
-3.03
-6.75
-11.76
-17.94
-24.86
-31.93
-38.71
-44.91
-50.27
-54.27
-56.05
-54.60
-49.22
-39.95
-27.72
-14.19
-1.13
10.09
18.89
25.42
30.30
34.18
37.42
40.01
41.74
42.43
42.11
41.12
40.00
39.21
38.94
39.06
39.22
39.05
38.42
37.43
36.40
35.60
35.01
34.34
33.07
30.72
27.07
22.31
17.01
11.93
7.73
4.78
3.04
2.08
1.24
-0.14
-2.49
-5.94
-10.25
-14.96
-19.58
-23.67
-27.01
-29.55
-31.43
-32.87
-34.17
-35.67
-37.60
-39.99
-42.48
-44.38
-44.82
-43.04
-38.77
-32.28
-24.32
-15.78
-7.47
0.12
6.76
12.38
16.90
20.26
22.42
23.42
23.46
22.82
21.80
20.72
19.78
19.12
18.80
18.76
18.95
19.28
19.71
20.24
20.84
21.42
21.80
21.79
21.29
20.30
18.95
17.35
15.50
13.26
10.39
6.68
2.11
-3.15
-8.86
-14.82
-20.95
-27.20
-33.36
-39.00
-43.37
-45.68
-45.32
-42.08
-36.26
-28.57
-19.91
-11.21
-3.21
3.60
9.03
13.12
16.06
18.04
19.25
19.77
19.71
19.22
18.51
17.83
17.30
16.97
16.70
16.37
15.93
15.39
14.86
14.35
13.83
13.17
12.24
11.01
9.52
7.89
6.18
4.44
2.65
0.83
-0.95
-2.68
-4.41
-6.35
-8.81
-12.06
-16.25
-21.24
-26.71
-32.14
-36.95
-40.52
-42.27
-41.74
-38.74
-33.48
-26.54
-18.84
-11.34
-4.83
0.30
4.00
6.57
8.35
9.65
10.62
11.25
11.49
11.27
10.66
9.87
9.18
8.88
9.10
9.80
10.70
11.46
11.83
11.73
11.28
10.69
10.09
9.43
8.52
7.11
5.05
2.41
-0.56
-3.49
-6.05
-8.02
-9.46
-10.61
-11.90
-13.79
-16.63
-20.48
-25.03
-29.52
-32.97
-34.42
-33.29
-29.54
-23.68
-16.56
-9.06
-1.82
4.84
10.89
16.42
21.51
26.08
29.92
32.73
34.16
33.97
32.15
29.21
26.25
24.85
26.55
32.29
41.95
54.18
66.85
77.73
85.21
88.70
88.58
85.80
81.39
76.09
70.25
63.93
57.10
49.80
42.13
34.17
25.89
17.12
7.55
-3.08
-14.83
-27.42
-40.32
-52.83
-64.21
-73.77
-80.87
-84.97
-85.79
-83.52
-78.86
-73.00
-67.24
-62.57
-59.22
-56.60
-53.50
-48.63
-41.19
-31.19
-19.43
-7.18
4.32
14.14
21.79
27.10
30.06
30.71
29.24
26.11
22.07
17.94
14.25
10.96
7.45
2.84
-3.51
-11.61
-20.76
-29.83
-37.81
-44.18
-49.00
-52.72
-55.76
-58.22
-59.81
-60.00
-58.30
-54.47
-48.63
-41.32
-33.38
-25.97
-20.40
-17.82
-18.89
-23.37
-29.95
-36.57
-40.93
-41.24
-36.70
-27.67
-15.35
-1.31
13.00
26.60
38.98
49.87
59.13
66.60
72.20
76.07
78.69
80.74
82.95
85.69
88.85
91.84
93.88
94.35
93.05
90.09
85.65
79.65
71.61
60.92
47.16
30.54
11.88
-7.51
-26.30
-43.43
-58.32
-70.73
-80.54
-87.70
-92.19
-94.26
-94.45
-93.52
-92.21
-90.88
-89.49
-87.68
-85.20
-82.14
-78.91
-75.92
-73.15
-69.99
-65.58
-59.44
-52.00
-44.63
-38.93
-35.76
-34.64
-33.77
-31.00
-24.75
-14.89
-2.65
10.00
21.17
29.71
35.27
37.96
37.85
34.90
29.16
21.28
12.77
5.76
2.16
2.73
6.63
11.78
15.80
17.13
15.56
12.05
7.82
3.58
-0.82
-5.90
-11.95
-18.57
-24.80
-29.79
-33.35
-36.11
-39.12
-43.17
-48.19
-53.18
-56.67
-57.36
-54.66
-48.97
-41.40
-33.24
-25.55
-18.80
-12.99
-7.87
-3.24
0.81
4.00
5.99
6.66
6.18
5.09
4.07
3.75
4.47
6.18
8.59
11.31
14.06
16.73
19.35
21.92
24.35
26.39
27.71
27.98
26.98
24.67
21.15
16.63
11.50
6.20
1.21
-3.14
-6.67
-9.53
-12.05
-14.65
-17.61
-20.88
-24.03
-26.31
-26.90
-25.12
-20.64
-13.51
-4.12
6.88
18.75
30.68
41.94
51.89
60.11
66.41
70.85
73.61
74.90
74.91
73.80
71.76
69.15
66.44
64.15
62.65
62.00
61.90
61.79
61.07
59.36
56.62
53.12
49.27
45.49
42.03
38.88
35.70
31.88
26.78
19.98
11.57
2.25
-6.95
-15.07
-21.61
-26.65
-30.63
-33.91
-36.49
-37.78
-36.80
-32.39
-23.54
-9.64
9.35
32.56
58.10
83.18
104.59
119.59
126.78
126.48
120.59
111.73
102.34
93.85
86.52
79.76
72.84
65.42
57.80
50.79
45.14
41.20
38.55
36.26
33.18
28.39
21.54
12.78
2.56
-8.71
-20.90
-34.18
-48.83
-64.92
-82.03
-99.12
-114.69
-127.05
-134.62
-136.27
-131.58
-121.01
-105.94
-88.47
-70.94
-55.31
-42.83
-33.91
-28.31
-25.53
-25.00
-26.20
-28.59
-31.55
-34.50
-37.04
-39.12
-41.10
-43.45
-46.51
-50.22
-54.12
-57.51
-59.68
-60.14
-58.81
-55.95
-52.10
-47.88
-43.81
-40.17
-37.01
-34.21
-31.72
-29.62
-28.25
-28.07
-29.50
-32.76
-37.67
-43.67
-49.82
-54.99
-58.10
-58.21
-54.73
-47.49
-36.80
-23.37
-8.20
7.63
23.14
37.57
50.40
61.28
69.95
76.16
79.76
80.74
79.32
75.99
71.39
66.14
60.67
55.23
49.90
44.74
39.86
35.35
31.24
27.49
23.93
20.46
17.05
13.79
10.81
8.13
5.67
3.17
0.37
-2.96
-6.86
-11.17
-15.47
-19.16
-21.59
-22.18
-20.67
-17.19
-12.24
-6.48
-0.59
4.99
10.01
14.38
18.02
20.79
22.56
23.27
23.01
22.01
20.58
18.99
17.38
15.74
13.95
11.97
9.81
7.64
5.67
4.10
3.03
2.43
2.11
1.80
1.23
0.19
-1.40
-3.48
-5.89
-8.43
-11.04
-13.79
-16.87
-20.40
-24.31
-28.25
-31.56
-33.52
-33.60
-31.62
-27.90
-23.13
-18.22
-14.07
-11.28
-10.07
-10.25
-11.27
-12.42
-12.95
-12.26
-9.94
-5.90
-0.40
6.01
12.59
18.62
23.66
27.62
30.76
33.43
35.90
38.17
39.92
40.69
40.04
37.74
33.79
28.31
21.57
13.82
5.31
-3.67
-12.78
-21.56
-29.47
-35.93
-40.45
-42.77
-42.93
-41.24
-38.19
-34.28
-29.90
-25.25
-20.33
-15.03
-9.25
-2.90
3.99
11.23
18.43
25.05
30.41
33.98
35.49
35.16
33.63
31.81
30.58
30.40
31.20
32.29
32.70
31.50
28.21
22.92
16.23
9.03
2.14
-3.83
-8.64
-12.33
-15.18
-17.57
-19.92
-22.53
-25.48
-28.47
