1650278557.00
64.000000
-0.00
-0.00
-0.00
-0.00
-0.00
-0.00
-0.00
-0.00
-0.00
-0.00
0.00
0.01
0.01
-0.00
-0.03
-0.05
-0.05
0.00
0.13
0.36
0.66
1.01
1.37
1.72
2.06
2.40
2.79
3.24
3.80
4.42
5.06
5.66
6.20
6.68
7.15
7.68
8.31
9.14
10.09
11.04
11.88
12.56
13.14
13.76
14.65
15.96
17.91
20.32
22.90
25.38
27.58
29.57
31.68
34.32
37.81
42.54
48.15
54.10
59.83
64.97
69.58
74.14
79.34
85.71
93.76
103.00
112.62
121.73
129.77
136.75
143.30
150.75
157.77
166.64
177.95
191.79
206.97
220.57
228.25
225.36
208.53
176.87
132.76
80.05
23.07
-34.94
-92.44
-149.16
-205.23
-260.37
-313.74
-363.87
-409.83
-450.91
-486.50
-515.74
-537.23
-549.22
-549.96
-538.37
-514.21
-478.67
-433.88
-382.45
-327.02
-269.84
-212.64
-156.66
-102.95
-52.35
-5.87
35.61
71.43
101.30
125.37
144.16
158.39
168.77
175.95
180.31
182.12
181.60
179.01
174.69
169.05
162.52
155.45
148.10
140.59
132.97
125.25
117.47
109.67
101.94
94.41
87.17
80.26
73.65
67.31
61.16
55.16
49.33
43.73
38.48
33.68
29.36
25.44
21.81
18.28
14.76
11.23
7.78
4.62
1.90
-0.29
-2.03
-3.51
-4.99
-6.66
-8.59
-10.66
-12.69
-14.45
-15.79
-16.70
-17.23
-17.55
-18.01
-19.04
-21.13
-24.46
-28.41
-31.53
-31.91
-27.98
-19.18
-6.38
8.51
23.21
35.76
44.94
50.23
51.57
49.24
43.91
36.74
29.19
22.64
17.87
14.85
12.95
11.39
9.71
7.95
6.44
5.56
5.57
6.51
8.23
10.39
12.65
14.59
15.78
15.92
14.92
12.93
10.31
7.51
4.88
2.69
1.08
0.04
-0.47
-0.53
-0.21
0.36
1.05
1.70
2.24
2.63
2.95
3.31
3.85
4.63
5.63
6.74
7.82
8.80
9.67
10.49
11.30
12.10
12.78
13.11
12.86
11.88
10.19
7.92
5.35
2.58
-0.31
-3.23
-6.15
-8.96
-11.60
-14.05
-16.30
-18.32
-19.98
-20.97
-20.89
-19.48
-16.73
-13.03
-8.99
-5.30
-2.48
-0.77
-0.12
-0.30
-1.02
-2.03
-3.19
-4.43
-5.73
-7.03
-8.28
-9.35
-10.09
-10.37
-10.16
-9.51
-8.60
-7.63
-6.82
-6.33
-6.22
-6.44
-6.93
-7.55
-8.20
-8.80
-9.31
-9.78
-10.29
-10.88
-11.51
-12.10
-12.54
-12.78
-12.80
-12.70
-12.56
-12.51
-12.65
-13.01
-13.57
-14.20
-14.65
-14.57
-13.60
-11.42
-8.03
-3.66
1.22
6.04
10.30
13.66
16.00
17.40
18.02
18.06
17.66
16.92
15.88
14.63
13.28
11.99
10.97
10.43
10.51
11.29
12.74
14.67
16.84
19.01
20.99
22.75
24.39
26.11
28.13
30.53
33.21
35.83
37.89
38.83
38.24
35.89
31.87
26.48
20.13
13.26
6.30
-0.39
-6.52
-11.87
-16.39
-20.22
-23.61
-26.78
-29.79
-32.33
-33.79
-33.44
-30.67
-25.30
-17.69
-8.67
0.72
9.41
16.62
21.88
25.10
26.50
26.56
25.82
24.82
23.93
23.32
22.98
22.78
22.53
21.99
20.94
19.28
17.25
15.57
15.33
17.60
22.75
29.95
37.23
42.06
42.48
37.84
29.11
18.20
7.09
-2.92
-11.31
-17.92
-22.40
-24.15
-22.76
-18.70
-13.62
-9.84
-9.23
-12.24
-17.51
-22.62
-25.38
-24.90
-21.98
-18.40
-15.84
-14.96
-15.19
-15.26
-14.02
-11.10
-6.95
-2.46
1.62
4.99
7.87
10.70
13.89
17.76
22.61
28.93
37.40
48.52
62.21
77.36
91.88
103.23
109.36
109.42
104.17
95.53
85.80
76.86
69.70
64.34
60.19
56.50
52.65
48.30
43.25
37.28
30.27
22.25
13.50
4.29
-5.40
-16.09
-28.69
-43.96
-62.01
-81.64
-100.48
-115.72
-125.32
-128.75
-127.11
-122.41
-116.69
-111.91
-109.05
-108.20
-108.86
-110.41
-112.27
-113.83
-114.35
-113.10
-110.68
-107.92
-105.49
-103.72
-102.78
-102.78
-103.73
-105.33
-107.10
-110.19
-115.39
-122.59
-130.63
-137.95
-143.22
-145.50
-144.04
-138.35
-130.48
-122.37
-115.10
-108.78
-103.42
-99.68
-98.77
-101.78
-95.47
-72.62
-34.12
11.54
54.74
90.02
116.15
134.23
146.46
155.18
160.05
160.59
156.86
149.70
140.24
129.54
118.68
109.34
102.98
98.65
94.78
89.89
83.17
74.21
62.44
47.13
28.19
7.48
-12.54
-27.74
-33.48
-26.73
-8.22
18.03
43.21
60.32
66.75
63.97
56.30
48.19
42.03
37.66
33.49
28.36
22.97
19.27
18.87
22.15
28.25
35.71
43.45
50.57
56.60
61.14
63.18
61.32
54.59
43.28
29.14
14.81
2.71
-5.93
-11.01
-13.28
-13.63
-12.52
-10.19
-7.01
-3.90
-2.10
-2.63
-5.46
-9.33
-12.18
-12.14
-8.40
-1.71
5.89
12.13
15.42
15.51
13.42
10.72
8.70
7.87
7.90
7.73
6.45
3.26
-2.40
-10.87
-21.99
-34.88
-47.79
-58.45
-64.73
-65.40
-60.64
-51.91
-41.34
-31.00
-22.23
-15.47
-10.56
-7.05
-4.62
-3.19
-2.79
-3.33
-4.42
-5.39
-5.54
-4.52
-2.52
-0.12
2.09
3.98
6.13
9.54
15.05
22.64
31.14
38.61
43.16
43.90
41.49
37.90
35.68
36.92
42.46
51.75
63.19
74.84
85.03
92.68
97.23
98.46
96.34
91.00
82.87
72.80
61.88
50.94
40.13
28.75
15.77
0.71
-15.61
-31.11
-43.29
-50.48
-52.58
-51.08
-48.17
-45.79
-44.92
-45.51
-46.92
-48.48
-49.70
-50.14
-49.34
-46.79
-42.35
-36.30
-29.19
-21.59
-14.06
-7.14
-1.27
3.20
6.17
7.36
6.88
5.39
3.86
2.95
2.67
2.58
2.05
0.79
-2.12
-7.04
-13.24
-19.04
-22.95
-24.39
-23.69
-21.97
-20.18
-20.53
-24.35
-31.05
-38.28
-44.01
-47.79
-50.68
-54.97
-62.57
-76.73
-99.36
-129.66
-164.05
-198.44
-229.81
-255.90
-275.22
-272.16
-237.40
-174.28
-97.40
-21.77
43.44
93.24
129.17
150.98
158.58
151.44
131.66
103.09
73.52
50.70
39.75
42.99
59.41
85.38
112.59
128.96
123.95
96.86
59.54
29.94
21.80
36.97
66.54
95.68
112.44
113.58
104.76
94.53
87.99
84.95
81.24
72.98
58.73
40.45
22.42
8.75
1.13
-3.62
-9.51
-19.08
-31.43
-43.08
-49.77
-48.59
-39.30
-25.04
-11.37
-3.34
-3.69
-11.67
-23.73
-35.01
-40.92
-38.25
-25.31
-4.22
20.02
41.17
53.89
55.16
44.70
24.76
-0.94
-28.63
-55.11
-77.52
-93.49
-101.30
-100.24
-90.82
-75.70
-56.42
-35.64
-16.74
-2.72
4.35
3.93
-2.61
-12.44
-20.50
-21.91
-14.63
-0.18
17.20
32.53
42.21
46.14
45.33
41.85
37.28
31.78
24.64
15.34
4.35
-6.88
-16.26
-22.34
-24.26
-22.60
-19.34
-16.84
-16.71
-19.20
-23.46
-27.80
-31.27
-32.67
-31.60
-28.83
-25.47
-22.52
-20.18
-18.20
-15.62
-11.65
-4.94
5.12
17.97
32.38
46.84
60.27
71.84
81.52
84.07
76.35
59.30
37.77
17.62
2.39
-4.88
-6.62
-5.39
-3.32
-0.85
2.66
6.37
10.67
16.25
23.78
33.15
44.01
55.35
66.53
76.93
85.81
92.64
96.84
98.01
95.74
90.26
82.02
71.96
60.87
48.79
35.24
19.48
1.45
-17.76
-35.67
-49.64
-57.94
-60.87
-60.66
-60.21
-61.62
-65.19
-69.62
-72.96
-73.92
-72.40
-69.29
-65.59
-61.76
-57.64
-52.86
-47.45
-41.98
-37.31
-34.21
-33.04
-33.64
-35.40
-37.43
-38.68
-38.04
-34.57
-27.83
-18.15
-6.69
4.87
14.89
22.30
26.93
29.34
30.37
30.63
30.31
29.35
27.81
26.09
24.79
24.38
24.89
25.84
26.63
26.97
27.21
27.98
29.68
32.03
34.06
34.69
33.35
30.29
26.38
22.53
19.09
15.82
12.12
7.59
2.36
-3.01
-7.75
-11.35
-13.73
-15.20
-16.32
-17.63
-19.52
-22.11
-25.21
-28.27
-30.53
-31.24
-29.87
-26.37
-21.21
-15.22
-9.26
-3.90
0.69
4.68
8.32
11.69
14.47
16.07
15.85
13.58
9.68
5.23
1.59
-0.07
0.73
3.57
7.31
10.55
12.14
11.56
9.00
5.17
0.94
-3.01
-6.29
-8.77
-10.48
-11.46
-11.68
-10.99
-9.12
-5.72
-0.45
6.89
16.16
26.86
38.07
48.74
57.87
64.79
69.23
71.21
70.86
68.32
63.72
57.18
49.06
39.93
30.65
22.14
15.13
9.87
6.04
2.85
-0.67
-5.19
-10.80
-16.89
-22.35
-26.03
-27.13
-25.55
-21.84
-17.11
-12.67
-9.73
-9.09
-11.03
-15.24
-21.01
-27.51
-34.08
-40.32
-46.09
-51.36
-56.11
-60.32
-64.12
-67.78
-71.73
-76.27
-81.25
-86.01
-89.47
-90.53
-88.41
-82.82
-73.93
-62.13
-47.94
-31.97
-15.10
1.49
16.36
28.15
35.89
39.30
38.78
35.28
30.03
24.34
19.27
15.57
13.48
12.76
12.80
12.90
12.48
11.30
9.41
6.98
4.11
0.80
-3.04
-7.38
-12.06
-16.76
-21.20
-25.27
-29.01
-32.45
-35.41
-37.59
-38.67
-38.65
-37.85
-36.75
-35.77
-34.88
-33.66
-31.45
-27.68
-22.15
-15.01
-6.69
2.34
11.66
20.85
29.47
37.08
43.27
47.83
50.68
51.84
51.29
49.03
45.12
39.81
33.62
27.31
21.67
17.29
14.35
12.53
11.14
9.44
6.93
3.59
-0.10
-3.38
-5.62
-6.64
-6.85
-7.08
-8.21
-10.69
-14.35
-18.49
-22.13
-24.37
-24.62
-22.73
-18.89
-13.58
-7.47
-1.30
4.24
8.64
11.78
13.93
15.64
17.43
19.54
21.68
23.21
23.34
21.53
17.79
12.65
6.90
1.37
-3.38
-7.12
-9.80
-11.40
-11.95
-11.51
-10.38
-9.07
-8.19
-8.22
-9.22
-10.77
-12.10
-12.40
-11.16
-8.47
-5.01
-1.79
0.16
0.14
-1.96
-5.68
-10.08
-14.02
-16.39
-16.34
-13.45
-7.88
-0.36
7.96
15.78
21.95
25.82
27.27
26.71
24.84
22.45
20.18
18.46
17.49
17.22
17.47
17.89
18.13
17.93
17.21
16.12
14.98
14.12
13.70
13.69
13.77
13.52
12.53
10.63
7.88
4.61
1.25
-1.84
-4.53
-6.96
-9.49
-12.51
-16.25
-20.57
-24.93
-28.45
-30.19
-29.43
-25.97
-20.21
-13.08
-5.79
0.50
4.97
7.30
7.64
6.55
4.80
3.20
2.42
2.84
4.43
6.68
8.76
9.68
8.68
5.49
0.58
-4.86
-9.22
-10.96
-9.23
-4.32
2.28
8.27
11.37
10.16
4.74
-3.38
-11.87
-18.55
-22.15
-22.57
-20.60
-17.42
-14.25
-12.19
-12.23
-15.17
-21.21
-29.59
-38.43
-45.08
-47.06
-43.04
-33.46
-20.40
-6.70
5.05
13.34
17.94
19.57
19.35
18.28
17.05
16.07
15.56
15.64
16.34
17.58
19.21
21.02
22.82
24.44
25.68
26.26
25.84
24.09
20.90
16.37
10.78
4.42
-2.47
-9.55
-16.33
-22.09
-26.36
-29.25
-31.62
-34.55
-38.52
-42.57
-44.31
-41.10
-31.53
-16.64
0.23
15.01
24.82
29.28
30.25
30.33
31.22
32.86
33.93
33.16
30.43
26.95
24.56
24.44
26.38
28.87
29.93
28.31
24.02
18.26
12.64
8.44
6.09
5.28
5.36
5.73
5.85
5.08
2.64
-2.21
-9.62
-18.78
-28.01
-35.45
-40.02
-41.98
-42.68
-43.57
-45.06
-46.07
-44.56
-38.81
-28.64
-15.71
-2.78
7.67
14.55
18.44
20.77
22.73
24.57
25.64
25.08
22.66
19.11
15.79
13.90
13.91
15.49
17.96
20.74
23.64
26.66
29.62
31.93
32.72
31.23
27.41
22.05
16.48
11.85
8.54
5.95
2.93
-1.51
-7.68
-14.91
-21.87
-27.17
-29.89
-29.88
-27.64
-23.86
-18.98
-13.20
-6.39
1.51
10.08
18.16
24.11
26.49
24.82
19.84
12.83
5.34
-1.35
-6.60
-10.45
-13.19
-14.96
-15.50
-14.25
-11.44
-7.60
-3.51
-0.09
1.55
0.44
-3.73
-10.29
-17.71
-25.06
-31.77
-37.72
-43.12
-48.48
-54.37
-61.26
-69.52
-74.18
-72.39
-64.17
-51.55
-35.90
-17.41
3.39
24.12
40.86
49.84
48.60
38.15
22.29
5.90
-7.06
-14.68
-17.11
-15.49
-11.17
-5.80
-0.61
3.46
6.19
6.84
4.92
0.88
-3.94
-8.01
-10.97
-13.46
-16.68
-21.21
-26.77
-32.38
-36.69
-38.78
-38.77
-37.95
-37.81
-39.17
-41.41
-43.15
-43.59
-41.92
-37.26
-29.31
-18.54
-6.08
6.36
17.75
27.14
32.37
32.42
27.98
19.98
9.37
-2.88
-15.68
-26.35
-32.26
-34.23
-33.31
-29.85
-24.96
-19.88
-15.29
-10.97
-4.18
7.79
23.28
40.74
60.11
80.76
101.71
121.71
128.31
112.73
92.16
75.84
61.37
49.86
42.48
39.64
40.67
44.14
50.22
59.28
68.22
75.12
80.28
83.76
85.46
85.26
83.10
80.19
77.23
71.30
59.82
42.18
18.81
-8.39
-36.19
-60.84
-78.29
-85.93
-84.82
-77.07
-64.58
-49.59
-34.23
-20.40
-9.48
-1.79
3.22
6.02
7.90
10.75
15.89
23.82
34.08
45.60
57.13
67.33
74.56
77.44
75.26
67.99
56.59
42.91
29.27
17.90
10.32
6.98
7.32
10.14
14.08
18.04
21.23
23.12
23.28
21.31
16.99
10.45
2.20
-6.93
-16.21
-25.25
-34.11
-42.96
-51.72
-59.74
-65.97
-69.42
-69.72
-67.36
-63.42
-59.08
-54.97
-51.14
-47.25
-43.04
-38.73
-34.88
-32.15
-30.84
-30.83
-31.72
-33.13
-34.90
-36.95
-39.05
-40.56
-40.44
-37.62
-31.48
-22.16
-10.64
1.55
12.85
22.03
28.42
31.89
32.69
31.28
28.17
23.86
18.84
13.54
8.36
3.59
-0.54
-3.93
-6.58
-8.63
-10.31
-11.81
-13.30
-14.83
-16.34
-17.77
-19.15
-20.63
-22.45
-24.84
-27.89
-31.44
-35.15
-38.62
-41.53
-43.82
-45.73
-47.64
-49.84
-52.29
-54.48
-55.56
-54.66
-51.21
-45.25
-37.40
-28.74
-20.41
-13.38
-8.27
-5.38
-4.71
-5.95
-8.39
-10.88
-11.92
-10.06
-4.29
5.53
18.66
33.75
49.30
64.10
77.32
88.32
96.43
100.78
100.66
95.90
87.37
76.92
66.93
59.47
55.55
54.78
55.68
56.36
55.32
51.88
46.27
39.19
31.33
23.11
14.67
6.11
-2.21
-9.69
-15.63
-19.58
-21.53
-21.92
-21.40
-20.55
-19.64
-18.68
-17.49
-15.97
-14.21
-12.48
-11.09
-10.21
-9.85
-9.83
-9.96
-10.04
-9.97
-9.72
-9.29
-8.69
-7.95
-7.18
-6.54
-6.22
-6.36
-6.99
-7.98
-9.10
-10.16
-11.06
-11.86
-12.75
-13.94
-15.55
-17.53
-19.66
-21.59
-22.93
-23.34
-22.52
-20.33
-16.75
-11.91
-6.08
0.44
7.30
14.21
20.86
26.93
32.13
36.14
38.75
39.91
39.77
38.67
36.99
35.06
32.97
30.55
27.41
23.12
17.39
10.21
1.92
-6.94
-15.74
-23.93
-31.04
-36.72
-40.71
-42.87
-43.34
-42.56
-41.27
-40.30
-40.24
-41.23
-42.80
-43.96
-43.56
-40.67
-34.93
-26.66
-16.69
-6.04
4.45
14.35
23.57
32.07
39.62
45.60
49.22
49.78
47.09
41.55
34.01
25.61
17.55
11.00
7.07
6.67
10.13
16.79
24.79
31.47
34.54
33.49
30.51
30.09
37.24
55.11
83.36
117.92
152.42
180.25
196.11
196.67
180.37
147.44
100.42
44.82
-10.98
-57.57
-87.37
-97.47
-90.59
-73.63
-54.55
-39.28
-30.22
-26.84
-27.37
-30.52
-35.99
-43.97
-54.15
-65.21
-75.13
-82.14
-85.63
-86.54
-86.98
-89.43
-95.63
-105.87
-118.87
-132.29
-143.64
-151.20
-154.51
-154.27
-151.94
-149.21
-147.68
-148.58
-152.36
-158.10
-163.08
-163.03
-153.33
-130.96
-96.12
-52.70
-7.08
34.19
66.58
88.89
102.72
110.83
115.37
116.97
115.15
109.65
101.55
93.54
88.92
90.07
97.13
107.64
117.55
122.83
121.05
112.14
97.96
81.21
64.14
47.82
31.99
15.71
-1.87
-20.84
-40.30
-58.75
-74.70
-87.41
-97.10
-104.66
-110.85
-115.64
-118.18
-117.32
-112.53
-104.51
-95.09
-86.36
-79.63
-74.66
-69.85
-62.91
-51.91
-35.89
-15.03
9.79
37.33
66.26
94.98
121.39
142.91
156.89
161.34
155.55
140.39
118.10
91.68
64.14
37.91
14.57
-5.11
-20.96
-33.08
-41.69
-47.14
-50.04
-51.29
-51.88
-52.47
-52.94
-52.19
-48.51
-40.28
-26.89
-9.16
10.80
30.38
47.42
60.81
70.50
77.15
81.47
83.92
84.76
84.29
83.15
82.24
82.43
84.20
87.28
90.65
92.90
92.60
88.79
81.21
70.28
56.93
42.30
27.47
13.28
0.37
-10.78
-19.72
-25.91
-28.97
-28.85
-26.12
-21.91
-17.52
-13.94
-11.47
-9.69
-7.93
-5.75
-3.27
-1.01
0.64
1.85
3.36
6.08
10.37
15.58
20.14
22.25
20.63
15.03
6.14
-4.89
-16.98
-29.54
-42.50
-56.09
-70.58
-86.02
-102.10
-118.00
-132.38
-143.59
-150.08
-150.93
-146.14
-136.60
-123.59
-108.25
-91.32
-73.30
-54.72
-36.17
-18.01
0.01
18.69
38.74
59.79
79.85
95.66
104.15
104.00
96.55
85.40
74.80
67.95
66.01
68.22
72.97
78.88
85.24
91.64
97.40
101.07
100.71
94.61
82.15
64.29
43.36
22.33
3.75
-10.95
-21.77
-29.72
-36.08
-41.52
-45.72
-47.50
-45.45
-38.81
-28.16
-15.72
-5.02
-0.04
-4.08
-18.61
-42.42
-71.59
-100.12
-121.43
-130.34
-124.54
-105.30
-76.79
-44.52
-13.48
13.26
34.94
52.59
68.04
82.91
97.96
112.88
126.38
136.53
141.28
139.09
129.40
112.93
91.46
67.44
43.41
21.57
3.59
-9.42
-16.94
-19.12
-16.81
-11.56
-5.29
0.21
3.76
5.16
5.00
4.34
4.07
4.41
4.77
3.98
0.82
-5.38
-14.25
-24.38
-33.61
-39.72
-41.06
-36.99
-27.97
-15.26
-0.55
14.31
27.55
37.71
43.71
45.18
42.47
36.59
28.81
20.32
11.88
3.86
-3.62
-10.42
-16.33
-21.19
-25.06
-28.25
-31.34
-34.82
-38.98
-43.70
-48.56
-53.04
-56.71
-59.41
-61.34
-62.92
-64.68
-67.03
-70.10
-73.83
-78.16
-83.24
-89.38
-96.52
-103.85
-109.63
-111.68
-108.32
-99.25
-85.93
-71.06
-57.57
-47.32
-40.67
-36.72
-34.19
-32.22
-30.56
-29.36
-28.75
-28.62
-28.37
-27.15
-24.20
-19.15
-11.99
-3.04
7.17
17.66
27.08
34.14
37.74
37.41
33.27
26.15
17.47
8.86
1.54
-3.66
-6.09
-5.74
-2.76
2.56
10.18
20.60
34.74
55.49
82.82
112.79
138.95
156.74
165.30
166.34
162.22
156.64
148.63
136.36
118.80
95.64
67.87
37.17
4.93
-27.22
-57.93
-86.95
-114.64
-136.02
-147.75
-149.39
-143.06
-131.11
-114.75
-94.80
-73.16
-52.27
-34.79
-23.26
-18.55
-19.69
-24.52
-30.65
-36.02
-40.64
-43.05
-42.07
-37.64
-30.23
-20.68
-10.02
0.70
10.49
18.39
24.03
27.27
27.96
26.41
23.46
20.27
17.38
15.14
13.43
12.09
10.81
9.22
7.27
5.17
3.19
1.48
-0.02
-1.57
-3.33
-5.32
-7.38
-9.13
-10.08
-9.93
-8.67
-6.65
-4.52
-3.01
-2.74
-3.89
-6.06
-8.26
-9.16
-7.46
-2.30
6.37
17.71
30.25
42.30
52.47
59.95
64.49
66.28
65.67
62.99
58.56
52.75
46.11
39.29
32.96
27.59
23.39
20.25
17.91
16.03
14.28
12.41
10.23
7.61
4.55
1.15
-2.39
-5.93
-9.45
-13.08
-17.08
-21.74
-27.28
-33.75
-40.87
-48.07
-54.38
-58.68
-59.92
-57.44
-51.29
-42.21
-31.49
-20.56
-10.63
-2.34
4.15
9.04
12.68
15.35
17.26
18.59
19.57
20.44
21.46
22.71
24.12
25.48
26.55
27.15
27.23
26.77
25.72
24.04
21.68
18.66
15.15
11.41
7.67
4.06
0.55
-3.03
-6.94
-11.40
-16.48
-21.95
-27.24
-31.38
-33.23
-31.77
-26.49
-17.66
-6.31
6.03
17.82
27.85
35.47
40.51
43.16
43.73
42.57
40.08
36.72
32.95
29.17
25.66
22.53
19.76
17.33
15.26
13.62
12.48
11.82
11.47
11.11
10.36
8.88
6.52
3.32
-0.51
-4.65
-8.80
-12.77
-16.51
-20.12
-23.82
-27.90
-32.57
-37.82
-43.27
-48.08
-51.07
-51.00
-46.99
-38.89
-27.37
-13.83
0.04
12.71
23.15
30.97
36.27
39.38
40.68
40.45
38.90
36.24
32.78
28.93
25.19
21.99
19.55
17.88
16.80
16.01
15.26
14.40
13.44
12.45
11.46
10.39
9.05
7.16
4.52
1.11
-2.87
-7.07
-11.09
-14.68
-17.75
-20.36
-22.72
-25.10
-27.77
-30.96
-34.80
-39.18
-43.61
-47.23
-48.92
-47.60
-42.55
-33.78
-22.03
-8.60
4.94
17.19
27.17
34.40
38.83
40.67
40.26
37.93
34.10
29.24
23.93
18.72
14.03
10.11
6.96
4.40
2.24
0.30
-1.51
-3.21
-4.84
-6.52
-8.45
-10.87
-13.95
-17.61
-21.57
-25.34
-28.40
-30.39
-31.24
-31.26
-31.02
-31.26
-32.67
-35.73
-40.53
-46.70
-53.29
-58.99
-62.40
-62.44
-58.62
-51.36
-41.88
-31.82
-22.76
-15.73
-11.11
-8.72
-8.09
-8.57
-9.58
-10.65
-11.32
-11.14
-9.64
-6.36
-1.00
6.48
16.08
27.46
39.97
52.76
65.00
76.14
85.93
94.39
101.63
108.27
114.61
120.45
125.07
127.53
126.96
122.59
113.85
100.42
83.69
65.27
46.67
28.65
11.44
-4.97
-20.59
-35.22
-48.28
-56.82
-58.45
-52.23
-39.54
-23.15
-5.76
10.95
26.56
41.51
58.76
79.60
103.29
127.17
148.81
167.94
186.45
207.10
216.59
205.58
171.85
123.44
71.87
26.03
-9.17
-32.07
-43.76
-47.49
-43.25
-35.41
-27.81
-23.55
-23.91
-28.35
-35.63
-44.86
-56.11
-68.23
-82.42
-99.08
-118.50
-140.24
-163.23
-186.30
-208.26
-227.59
-232.92
-216.71
-179.16
-129.24
-78.67
-36.13
-5.29
14.40
25.08
31.06
33.80
33.80
31.42
27.61
23.75
20.74
19.62
20.06
21.09
20.64
17.31
10.74
1.53
-9.16
-20.19
-30.67
-40.23
-49.15
-58.26
-68.11
-78.78
-89.86
-100.81
-111.15
-120.60
-128.90
-135.74
-139.80
-138.86
-130.57
-113.59
-88.44
-57.37
-23.70
12.37
46.78
74.94
94.65
107.54
116.56
123.45
127.98
128.71
124.45
114.87
101.87
88.10
76.61
69.29
66.36
67.22
70.04
72.99
73.98
71.25
62.25
45.40
20.59
-10.28
-43.21
-73.09
-95.52
-108.62
-107.51
-95.59
-79.97
-67.33
-60.74
-59.30
-59.98
-60.06
-58.48
-55.43
-52.50
-50.22
-47.96
-44.65
-40.45
-34.92
-28.64
-22.37
-16.31
-10.71
-4.92
1.79
9.70
18.56
27.68
36.09
43.13
48.62
52.37
54.99
57.68
60.38
63.51
67.26
71.22
74.67
76.80
76.90
74.98
71.76
68.14
64.98
62.48
60.11
57.11
52.98
47.69
41.76
35.83
30.30
25.30
20.74
16.52
12.79
9.82
7.67
6.01
4.17
1.58
-1.71
-5.05
-7.46
-8.18
-7.14
-4.99
-2.84
-1.84
-2.87
-6.45
-13.00
-22.83
-36.01
-52.20
-70.40
-89.11
-106.64
-121.62
-133.24
-141.37
-146.33
-148.56
-148.42
-146.13
-141.83
-135.91
-129.04
-122.23
-116.66
-113.36
-112.95
-115.45
-120.17
-125.68
-129.78
-129.82
-123.41
-109.44
-88.92
-65.11
-42.53
-25.27
-15.24
-11.35
-10.05
-7.02
0.96
14.88
33.66
55.24
77.83
100.61
123.45
146.14
167.75
186.66
201.30
210.88
215.95
218.07
219.01
219.85
220.50
219.93
216.83
210.28
200.12
186.90
171.51
154.90
137.82
120.86
104.28
88.05
71.77
54.83
36.73
17.47
-2.23
-20.97
-37.08
-49.16
-56.70
-60.35
-61.80
-63.26
-66.72
-73.38
-83.35
-95.72
-108.90
-121.13
-130.76
-136.46
-137.40
-133.22
-124.00
-110.27
-92.97
-73.32
-52.87
-33.36
-16.43
-3.26
5.83
11.37
14.44
15.99
16.18
14.34
9.44
0.92
-10.57
-23.10
-34.14
-41.63
-44.83
-44.52
-42.40
-40.08
-38.32
-36.75
-34.36
-30.25
-24.29
-17.30
-10.69
-5.90
-3.71
-4.00
-5.73
-7.32
-7.09
-3.81
2.87
12.25
22.76
32.57
40.34
45.86
50.09
54.64
60.91
69.28
78.96
88.36
95.98
101.14
104.26
106.51
109.05
112.27
115.52
117.41
116.44
111.73
103.41
92.51
80.39
68.06
55.84
43.32
29.82
14.84
-1.56
-18.74
-35.71
-51.40
-64.88
-75.44
-82.73
-86.83
-88.40
-88.65
-89.16
-91.43
-96.36
-103.85
-112.81
-121.48
-128.10
-131.49
-131.47
-128.88
-125.13
-121.60
-119.03
-117.33
-115.70
-112.98
-108.06
-100.17
-88.90
-74.28
-56.69
-37.02
-16.61
2.84
19.63
32.50
41.12
46.22
49.34
52.23
56.18
61.52
67.54
72.83
75.85
75.59
71.87
65.32
57.03
48.08
39.40
31.53
24.70
18.94
14.27
10.85
8.88
8.55
9.84
12.63
16.62
21.46
26.82
32.59
38.69
44.86
50.44
54.29
55.50
53.30
47.13
36.69
22.34
5.46
-11.62
-26.13
-35.76
-38.55
-34.09
-24.04
-11.79
-0.95
6.13
8.87
8.14
5.19
2.32
1.24
2.01
2.96
1.92
-2.43
-10.12
-20.19
-31.28
-39.54
-40.24
-29.43
-5.70
29.55
72.52
117.70
159.24
183.57
181.06
152.94
111.92
72.67
42.97
22.94
8.86
-0.98
-9.72
-17.26
-22.50
-25.37
-27.85
-32.90
-42.82
-58.59
-77.64
-95.26
-104.89
-102.35
-88.39
-68.90
-51.76
-42.64
-42.58
-48.32
-55.23
-58.91
-57.72
-52.73
-46.80
-42.64
-41.09
-40.92
-39.99
-36.48
-29.38
-18.83
-5.93
7.80
20.97
32.92
43.77
53.70
62.79
70.71
73.87
70.13
60.20
47.21
34.54
25.75
19.66
14.46
8.85
2.40
-4.65
-11.05
-15.87
-19.02
-20.95
-22.34
-23.06
-22.48
-19.87
-14.52
-6.30
4.01
14.92
24.88
32.45
37.05
38.57
37.31
34.17
30.35
26.93
24.71
24.07
24.95
27.12
30.18
33.63
37.20
40.92
44.86
49.03
53.18
56.68
58.69
58.25
54.42
46.63
34.80
19.52
1.99
-16.04
-32.63
-46.11
-55.42
-60.47
-62.04
-61.53
-60.40
-59.75
-59.99
-60.81
-61.47
-61.13
-59.18
-55.50
-50.42
-44.73
-39.34
-35.07
-32.37
-31.31
-31.54
-32.56
-33.89
-35.17
-36.20
-36.88
-37.06
-36.46
-34.75
-31.64
-27.14
-21.70
-16.19
-11.59
-8.61
-7.30
-6.99
-6.59
-5.13
-2.28
1.53
5.44
8.79
11.54
14.30
17.89
22.70
28.24
33.32
36.51
36.82
34.01
28.64
21.76
14.54
8.00
2.95
-0.02
-0.59
1.17
4.76
9.29
13.88
18.05
21.88
25.86
30.37
35.22
39.50
41.97
41.71
38.79
34.36
30.16
27.61
27.08
27.70
27.99
26.63
23.12
17.88
11.86
5.94
0.44
-4.94
-10.75
-17.31
-24.45
-31.66
-38.27
-43.75
-47.81
-50.51
-52.05
-52.83
-53.17
-53.31
-53.60
-54.08
-54.28
-53.31
-50.22
-44.58
-36.75
-27.64
-18.39
-10.46
-4.84
-1.54
0.24
1.57
3.39
6.03
9.57
13.78
17.33
18.85
17.87
15.10
11.75
8.90
6.57
4.37
1.63
-3.42
-12.23
-25.06
-40.94
-58.45
-76.09
-92.69
-106.39
-108.19
-92.50
-61.65
-25.68
4.47
20.99
25.50
21.51
12.89
2.91
-6.63
-14.52
-19.72
-21.29
-18.92
-13.22
-5.53
2.93
11.15
17.77
22.39
25.41
27.64
29.53
30.81
31.39
31.55
31.78
32.19
33.57
36.96
43.28
52.79
64.54
77.60
90.56
101.61
103.98
93.82
73.08
48.67
31.19
21.12
16.42
15.13
14.33
12.91
11.40
10.57
10.55
10.54
9.03
5.98
2.18
-1.50
-4.20
-5.09
-4.04
-1.81
0.32
0.75
-0.79
-4.14
-9.14
-15.58
-22.96
-30.78
-38.64
-46.29
-53.67
-60.15
-65.01
-67.72
-67.79
-64.82
-58.68
-49.71
-38.58
-26.22
-13.13
0.38
14.01
27.39
40.01
51.20
60.30
66.85
70.70
72.17
71.87
70.44
68.48
66.43
64.61
63.19
62.25
61.79
61.67
61.59
61.16
59.91
57.46
53.66
48.66
42.88
36.82
30.90
25.32
20.05
14.95
9.88
4.86
-0.02
-4.58
-8.67
-12.21
-15.16
-17.57
-19.55
-21.26
-22.83
-24.33
-25.65
-26.56
-26.79
-26.21
-24.92
-23.32
-21.94
-21.26
-21.52
-22.66
-24.27
-25.76
-26.44
-25.67
-23.12
-18.90
-13.66
-8.57
-4.92
-3.73
-5.34
-9.27
-14.34
-19.19
-22.69
-24.26
-23.90
-21.97
-18.94
-15.29
-11.45
-7.84
-4.96
-3.28
-3.14
-4.61
-7.44
-11.05
-14.73
-17.76
-19.64
-20.14
-19.30
-17.33
-14.52
-11.04
-7.00
-2.50
2.23
6.85
10.94
14.27
16.83
18.90
20.76
22.72
25.11
28.28
32.54
37.98
44.35
50.93
56.59
60.02
60.32
57.40
52.09
45.80
39.98
35.64
33.09
31.96
31.23
29.82
27.11
23.10
18.21
12.97
7.77
2.57
-3.11
-10.60
-20.83
-33.64
-47.75
-61.54
-73.89
-84.53
-93.99
-103.02
-113.24
-125.19
-137.88
-149.47
-158.70
-165.39
-169.65
-171.13
-168.65
-162.77
-154.01
-142.30
-127.10
-108.62
-88.24
-67.95
-50.02
-36.70
-32.53
-40.49
-60.14
-87.85
-119.17
-150.10
-176.78
-195.48
-187.81
-145.85
-79.49
-11.90
37.27
61.47
65.88
61.04
56.26
55.91
55.66
51.24
41.91
31.19
23.57
21.88
26.42
35.12
45.03
52.34
53.72
49.29
45.75
49.00
60.24
78.83
102.43
127.90
151.06
169.08
181.42
189.21
192.99
192.17
185.57
171.92
150.91
123.20
91.15
58.52
29.35
6.15
-10.24
-20.19
-25.01
-26.31
-25.79
-24.73
-23.67
-22.60
-21.53
-20.43
-19.18
-17.85
-16.61
-15.77
-15.68
-16.69
-19.21
-23.76
-30.70
-39.87
-50.48
-61.11
-69.91
-75.04
-75.14
-69.76
-59.49
-45.75
-30.29
-14.84
-0.75
11.13
20.47
27.24
31.68
34.16
35.15
35.20
34.82
34.37
34.00
33.68
33.26
32.68
31.90
31.00
30.06
29.13
28.20
27.28
26.37
25.49
24.59
23.52
22.12
20.31
18.12
15.72
13.28
10.89
8.73
7.04
6.21
6.81
9.45
14.53
22.04
31.41
41.59
51.48
60.12
66.95
71.84
74.97
76.57
76.66
74.96
70.96
64.69
56.51
46.97
36.68
26.26
16.11
6.71
-1.62
-8.72
-13.76
-16.17
-16.04
-14.06
-11.02
-7.71
-4.19
-0.47
3.26
7.86
13.75
20.45
26.79
31.68
34.33
35.36
35.74
36.37
39.45
46.31
56.69
68.97
81.40
92.48
102.31
111.10
109.30
91.74
60.31
23.00
-11.99
-37.18
-54.81
-67.08
-75.53
-81.25
-83.37
-81.17
-75.39
-68.24
-62.34
-60.13
-62.02
-67.53
-75.55
-83.56
-89.47
-92.48
-93.14
-92.51
-91.82
-91.26
-90.79
-90.34
-89.06
-86.26
-81.79
-75.92
-68.95
-61.21
-52.50
-42.82
-32.47
-21.50
-9.99
1.79
13.31
23.80
32.35
38.31
41.28
41.37
39.33
36.22
32.83
29.59
26.65
24.13
22.30
21.42
21.65
22.92
24.94
26.92
28.02
27.68
25.92
23.28
20.33
17.44
14.52
11.12
6.25
-0.51
-8.58
-16.02
-20.46
-20.31
-15.50
-7.43
1.68
9.00
12.45
10.91
4.55
-5.76
-19.06
-34.26
-49.99
-60.88
-62.28
-53.35
-38.96
-25.59
-17.43
-15.13
-16.76
-19.35
-20.40
-20.97
-21.47
-22.87
-25.37
-28.49
-31.49
-33.78
-35.23
-36.23
-38.16
-40.66
-44.09
-48.02
-51.43
-53.16
-52.34
-48.50
-41.82
-33.27
-23.98
-15.30
-7.78
-1.37
4.25
9.20
13.31
16.07
16.66
14.42
8.88
0.48
-9.57
-19.73
-28.46
-34.57
-37.43
-37.02
-33.82
-28.78
-22.49
-15.51
-8.58
-2.61
1.68
4.08
5.10
5.73
6.95
10.15
15.89
23.53
31.58
38.56
43.83
47.65
50.75
53.67
57.85
64.06
71.99
80.41
87.91
93.63
97.39
99.46
100.37
102.52
108.08
118.03
131.81
148.05
165.41
183.07
200.69
207.37
196.22
167.18
127.62
86.61
49.79
18.62
-7.61
-29.70
-47.76
-59.67
-63.94
-61.11
-53.93
-45.40
-38.63
-35.54
-36.71
-41.62
-47.64
-52.30
-54.17
-53.19
-49.92
-45.47
-41.40
-39.44
-41.18
-45.93
-52.85
-61.21
-70.22
-78.67
-82.38
-78.30
-66.51
-50.66
-35.18
-23.14
-15.39
-12.22
-10.86
-9.13
-6.40
-3.25
-0.85
-0.11
-0.05
-0.45
-1.28
-2.41
-4.11
-6.97
-11.30
-16.83
-22.63
-27.56
-31.06
-32.92
-33.08
-31.77
-29.27
-25.74
-21.28
-16.03
-10.27
-4.62
0.49
5.03
9.10
12.69
15.51
16.93
16.22
12.86
6.55
-2.59
-13.97
-26.66
-39.50
-51.19
-60.54
-66.39
-67.78
-64.55
-57.59
-48.73
-40.19
-33.85
-30.78
-31.05
-33.54
-36.38
-38.06
-38.22
-37.72
-37.74
-38.89
-40.83
-42.30
-41.17
-34.89
-21.48
-0.33
27.79
61.23
97.59
133.56
162.74
176.59
170.18
146.85
116.27
88.43
69.37
60.24
58.47
60.12
62.77
65.77
69.34
73.11
75.82
75.78
71.52
62.82
50.59
36.83
23.91
13.52
5.85
-0.36
-6.82
-14.78
-24.59
-35.67
-46.68
-55.93
-62.01
-64.29
-63.02
-58.98
-53.16
-46.60
-40.29
-34.96
-30.94
-28.33
-27.23
-27.80
-30.19
-34.36
-39.97
-46.36
-52.59
-57.63
-60.56
-60.90
-58.64
-54.30
-48.65
-42.63
-37.01
-32.36
-28.94
-26.71
-25.49
-25.02
-25.06
-25.38
-25.89
-26.59
-27.52
-28.67
-29.74
-30.14
-29.03
-25.62
-19.41
-10.46
0.61
12.80
24.91
35.76
44.30
49.81
51.91
50.69
46.66
40.61
33.39
25.77
18.33
11.51
5.53
0.40
-4.15
-8.56
-13.18
-18.08
-22.88
-27.01
-29.91
-31.40
-31.83
-31.90
-32.38
-33.69
-35.86
-38.64
-41.75
-45.09
-48.66
-52.41
-56.03
-58.92
-60.11
-58.75
-54.42
-47.44
-38.72
-29.43
-20.74
-13.48
-8.12
-4.41
-1.76
0.38
2.32
4.14
5.82
7.33
8.77
10.33
13.07
18.01
25.57
35.13
45.28
54.34
60.85
63.92
63.25
60.50
57.78
56.58
57.09
58.43
59.50
59.46
58.04
55.32
53.39
54.39
59.51
68.59
80.82
95.68
113.14
133.30
147.60
148.79
134.23
108.07
77.36
47.59
21.56
0.12
-15.19
-26.87
-35.31
-40.33
-42.06
-41.42
-39.72
-37.95
-37.05
-37.34
-39.24
-41.55
-43.02
-42.92
-41.45
-39.26
-36.97
-34.91
-33.22
-32.24
-31.33
-29.97
-28.03
-25.98
-24.49
-23.97
-24.41
-25.34
-26.23
-25.93
-23.51
-18.58
-11.50
-3.19
5.26
12.94
19.19
23.61
26.22
27.16
26.62
24.84
22.25
19.41
16.92
15.15
14.06
13.38
12.77
12.01
11.14
10.35
9.73
9.15
8.25
6.63
4.07
0.66
-3.25
-7.17
-10.71
-13.68
-16.15
-18.36
-20.65
-23.31
-26.42
-29.70
-32.52
-33.96
-33.04
-29.11
-22.09
-12.59
-1.73
9.13
18.86
26.79
32.73
36.82
39.27
40.20
39.65
37.70
34.62
30.98
27.49
24.78
23.26
22.95
23.52
24.42
25.01
24.63
22.71
18.85
12.91
5.15
-3.90
-13.48
-22.85
-31.38
-38.72
-44.68
-49.22
-52.43
-54.51
-55.85
-56.92
-58.06
-59.21
-59.70
-58.31
-53.64
-44.60
-30.96
-13.49
6.18
25.95
43.82
58.15
67.85
72.33
71.48
65.66
55.67
42.80
28.64
14.80
2.62
-7.06
-13.98
-18.34
-20.60
-21.27
-20.79
-19.54
-17.81
-15.79
-13.65
-11.44
-9.31
-7.65
-7.15
-8.70
-13.02
-20.22
-29.54
-39.47
-48.27
-54.59
-58.03
-59.13
-59.11
-59.27
-60.47
-62.95
-66.32
-69.85
-72.73
-74.26
-73.98
-71.66
-67.30
-61.12
-53.52
-44.99
-36.06
-27.23
-18.82
-10.90
-3.32
4.21
12.01
20.24
28.90
37.81
46.69
55.27
63.27
70.41
76.36
80.83
83.62
84.74
84.42
83.09
81.16
78.81
75.81
71.50
64.99
55.51
42.82
27.42
10.49
-6.58
-22.55
-36.79
-49.24
-60.15
-69.83
-78.31
-85.40
-90.73
-93.96
-94.78
-92.92
-88.09
-80.11
-69.02
-55.34
-40.00
-24.23
-9.23
4.07
15.15
23.89
30.34
34.62
36.81
37.00
35.39
32.39
28.60
24.67
21.09
18.04
15.40
12.86
10.20
7.39
4.59
2.06
-0.08
-1.93
-3.72
-5.71
-8.01
-10.44
-12.68
-14.32
-15.11
-14.97
-14.00
-12.40
-10.35
-8.03
-5.59
-3.11
-0.54
2.41
6.27
11.71
19.29
29.25
41.31
54.69
68.27
80.95
91.82
100.36
106.37
109.85
110.88
109.56
106.08
100.71
93.89
86.12
77.85
69.38
60.86
52.27
43.60
34.92
26.45
18.50
11.39
5.26
0.05
-4.49
-8.69
-12.81
-16.91
-20.82
-24.29
-27.10
-29.20
-30.72
-31.96
-33.29
-35.09
-37.65
-41.12
-45.47
-50.31
-54.93
-58.31
-59.40
-57.43
-52.14
-43.98
-33.90
-23.18
-12.98
-4.20
2.66
7.44
10.16
10.96
10.04
7.76
4.62
1.30
-1.53
-3.37
-4.02
-3.60
-2.51
-1.20
0.01
1.00
1.84
2.68
3.63
4.62
5.48
5.93
5.77
4.93
3.52
1.75
-0.17
-2.12
-4.15
-6.44
-9.20
-12.60
-16.63
-21.02
-25.22
-28.42
-29.74
-28.41
-24.07
-16.91
-7.69
2.43
12.19
20.50
26.67
30.43
31.88
31.32
29.20
26.03
22.36
18.66
15.28
12.34
9.79
7.43
5.06
2.58
0.06
-2.28
-4.18
-5.43
-6.03
-6.20
-6.35
-6.94
-8.25
-10.26
-12.65
-14.94
-16.68
-17.67
-17.97
-17.89
-17.80
-17.96
-18.36
-18.73
-18.54
-17.11
-13.90
-8.68
-1.71
6.29
14.24
21.03
25.79
28.14
28.14
26.21
22.90
18.75
14.18
9.62
5.47
2.18
0.12
-0.55
0.03
1.51
3.45
5.51
7.55
9.56
11.48
13.10
14.03
13.86
12.35
9.57
5.91
1.89
-1.97
-5.43
-8.53
-11.56
-14.96
-19.15
-24.34
-30.48
-37.20
-43.90
-49.80
-54.14
-56.31
-55.97
-53.22
-48.56
-42.80
-36.83
-31.31
-26.50
-22.23
-18.11
-13.83
-9.35
-4.96
-1.10
1.82
3.69
4.62
4.86
4.64
4.09
3.31
2.38
1.49
0.87
0.67
0.87
1.26
1.49
1.18
0.08
-1.93
-4.71
-8.00
-11.41
-14.62
-17.47
-20.09
-22.87
-26.33
-30.86
-36.41
-42.32
-47.43
-50.31
-49.77
-45.25
-37.04
-26.15
-13.99
-1.93
8.99
18.16
25.27
30.22
32.94
33.52
32.22
29.55
26.21
22.94
20.31
18.61
17.82
17.69
17.86
18.04
18.01
17.70
17.16
16.43
15.57
14.51
13.10
11.15
8.53
5.22
1.34
-2.80
-6.85
-10.50
-13.59
-16.19
-18.56
-21.15
-24.44
-28.80
-34.23
-40.25
-45.80
-49.45
-49.80
-45.91
-37.66
-25.85
-11.94
2.36
15.56
26.65
35.18
41.07
44.46
45.55
44.63
42.07
38.35
34.01
29.64
25.65
22.25
19.47
17.15
15.16
13.40
11.89
10.67
9.70
8.82
7.72
6.09
3.65
0.38
-3.49
-7.56
-11.39
-14.67
-17.30
-19.50
-21.66
-24.32
-27.95
-32.86
-38.97
-45.78
-52.33
-57.32
-59.43
-57.58
-51.39
-41.24
-28.21
-13.87
0.21
12.75
22.97
30.57
35.57
38.21
38.76
37.65
35.36
32.52
29.72
27.49
26.07
25.47
25.41
25.58
25.74
25.77
25.72
25.61
25.36
24.71
23.38
21.17
18.09
14.42
10.57
6.96
3.82
1.14
-1.23
-3.59
-6.22
-9.32
-12.88
-16.56
-19.65
-21.22
-20.34
-16.46
-9.61
-0.49
9.76
19.88
28.79
35.73
40.25
42.03
40.90
36.84
30.18
21.72
12.66
4.35
-2.08
-6.07
-7.73
-7.71
-6.92
-6.13
-5.74
-5.69
-5.58
-4.85
-3.05
-0.11
3.48
6.76
8.58
8.09
5.14
0.36
-5.08
-10.05
-13.92
-16.81
-19.33
-22.24
-26.05
-30.81
-36.20
-41.61
-46.21
-49.05
-49.11
-45.61
-38.31
-27.68
-14.81
-1.00
12.68
25.51
37.02
46.71
53.92
58.01
58.65
56.15
51.43
45.73
40.22
35.66
32.39
30.40
29.51
29.41
29.66
29.77
29.29
27.98
25.95
23.50
20.89
18.24
15.55
12.82
10.22
7.95
6.15
4.62
2.86
0.32
-3.32
-7.92
-12.94
-17.75
-22.06
-26.02
-30.14
-34.87
-40.12
-45.14
-48.58
-49.04
-45.58
-38.09
-27.35
-14.72
-1.61
10.87
22.12
31.90
40.04
46.26
50.13
51.29
49.66
45.64
39.99
33.70
27.68
22.66
19.12
17.32
17.38
19.22
22.48
26.47
30.29
33.01
33.98
33.08
30.61
27.20
23.42
19.66
16.05
12.58
9.21
5.96
2.93
0.17
-2.30
-4.51
-6.53
-8.52
-10.72
-13.42
-16.91
-21.26
-26.23
-31.35
-36.13
-40.35
-44.10
-47.64
-51.01
-53.76
-55.01
-53.72
-49.20
-41.42
-31.08
-19.35
-7.48
3.48
12.79
20.05
25.05
27.78
28.47
27.62
25.94
24.20
23.14
23.27
24.86
27.85
31.89
36.33
40.40
43.38
44.80
44.52
42.73
39.73
35.88
31.43
26.56
21.44
16.22
11.01
5.82
0.57
-4.83
-10.36
-15.83
-20.87
-25.13
-28.43
-30.87
-32.86
-34.98
-37.69
-41.19
-45.29
-49.33
-52.36
-53.34
-51.40
-46.11
-37.66
-26.82
-14.83
-3.08
7.20
15.16
20.54
23.59
24.92
25.19
24.88
24.17
22.98
21.25
19.09
16.92
15.30
14.68
15.15
16.43
18.00
19.34
20.13
20.29
19.84
18.79
17.08
14.64
11.56
8.07
4.55
1.39
-1.17
-3.13
-4.71
-6.34
-8.51
-11.57
-15.66
-20.56
-25.71
-30.24
-33.25
-33.96
-32.09
-27.91
-22.28
-16.48
-11.78
-9.15
-8.90
-10.61
-13.35
-16.11
-18.14
-19.18
-19.38
-19.02
-18.34
-17.33
-15.92
-14.06
-11.90
-9.71
-7.73
-6.00
-4.29
-2.13
0.89
4.97
9.96
15.32
20.30
24.08
25.97
25.45
22.27
16.50
8.52
-0.97
-11.05
-20.81
-29.55
-36.96
-43.06
-47.92
-51.40
-52.95
-51.82
-47.41
-39.76
-29.69
-18.56
-7.81
1.60
9.39
15.76
21.00
25.16
27.96
29.04
28.30
26.05
22.97
19.85
17.26
15.33
13.89
12.59
11.13
9.43
7.56
5.67
3.85
2.08
0.22
-1.89
-4.36
-7.21
-10.30
-13.39
-16.21
-18.51
-20.25
-21.58
-22.86
-24.60
-27.22
-30.86
-35.25
-39.62
-42.89
-43.88
-41.74
-36.17
-27.55
-16.87
-5.41
5.60
15.24
23.00
28.74
32.52
34.44
34.64
33.39
31.13
28.48
26.05
24.25
23.15
22.45
21.68
20.49
18.79
16.86
15.11
13.87
13.19
12.74
11.95
10.24
7.14
2.51
-3.55
-10.68
-18.45
-26.37
-33.95
-40.77
-46.53
-51.12
-54.55
-56.88
-57.90
-57.07
-53.55
-46.52
-35.62
-21.34
-4.99
11.60
26.65
38.95
48.10
54.42
58.62
61.35
62.98
63.57
63.01
61.23
58.39
54.90
51.30
48.07
45.52
43.62
42.23
41.11
40.15
39.33
38.66
38.04
37.28
36.08
34.16
31.36
27.64
23.10
17.89
12.26
6.49
0.92
-4.18
-8.67
-12.62
-16.29
-19.92
-23.68
-27.49
-31.07
-34.05
-36.03
-36.58
-35.37
-32.27
-27.46
-21.42
-14.91
-8.85
-4.20
-1.69
-1.59
-3.68
-7.29
-11.49
-15.27
-17.80
-18.59
-17.72
-15.56
-12.50
-8.92
-5.15
-1.61
1.14
2.57
2.30
-0.22
-5.00
-11.46
-18.69
-25.90
-32.85
-39.67
-46.73
-54.30
-63.48
-74.76
-87.81
-101.52
-114.70
-126.40
-135.96
-142.75
-146.22
-147.63
-148.02
-147.69
-146.02
-142.19
-135.69
-126.31
-114.09
-99.45
-85.36
-74.46
-68.23
-66.58
-68.76
-74.19
-82.46
-93.16
-92.87
-74.71
-41.13
-2.32
32.25
58.60
77.17
90.07
99.45
106.83
110.16
109.52
105.88
101.11
96.83
93.37
90.07
86.04
80.94
73.76
64.50
54.46
45.67
39.78
36.91
35.84
34.85
32.65
27.92
20.82
12.59
5.15
0.75
0.43
3.72
8.94
14.14
17.67
19.21
19.35
19.04
20.08
23.55
29.44
36.79
44.40
51.40
57.56
62.79
67.05
71.93
79.28
90.42
105.73
124.98
147.86
173.93
201.91
219.12
214.77
185.44
138.39
86.34
40.08
4.98
-18.47
-33.21
-43.39
-50.82
-55.65
-57.35
-56.31
-53.51
-51.64
-52.93
-58.46
-67.94
-78.60
-87.35
-92.20
-93.29
-92.25
-90.89
-90.13
-90.08
-90.50
-89.40
-85.53
-78.34
-68.01
-55.02
-39.96
-23.60
-7.34
6.98
18.07
25.38
29.41
31.22
31.99
32.57
33.48
34.87
36.67
38.93
41.63
44.65
47.62
49.95
50.83
49.53
45.48
38.47
29.03
18.51
8.79
1.66
-1.81
-1.53
1.65
6.14
10.07
12.06
11.80
9.98
7.91
7.00
8.49
13.14
20.78
30.22
39.96
48.95
56.79
63.33
68.40
71.66
72.67
70.41
63.44
50.70
32.17
8.73
-18.68
-48.99
-80.74
-108.97
-125.78
-125.64
-109.76
-84.75
-58.22
-36.30
-22.39
-17.10
-18.89
-25.58
-35.58
-47.83
-61.08
-73.45
-82.96
-87.74
-86.83
-80.80
-72.06
-63.94
-58.62
-56.25
-52.64
-43.15
-24.60
3.27
37.46
72.56
102.51
122.66
131.18
129.03
118.67
103.15
85.36
67.80
52.25
39.73
30.58
24.62
21.26
19.39
17.88
15.81
13.26
11.12
10.56
12.35
16.19
20.80
24.33
25.43
24.03
21.53
20.15
21.78
27.01
34.77
42.90
49.15
52.22
52.24
50.46
48.38
46.85
45.70
43.91
40.36
34.17
24.81
12.07
-3.84
-22.06
-41.01
-58.50
-72.60
-82.20
-88.03
-92.54
-98.82
-109.08
-123.64
-140.81
-157.72
-171.56
-180.00
-182.15
-178.67
-171.22
-161.73
-151.85
-142.64
-134.21
-125.68
-114.61
-98.37
-75.40
-45.84
-11.44
24.97
60.57
94.06
121.96
141.67
152.47
154.62
148.61
135.79
119.35
104.09
95.67
95.03
99.90
105.60
107.24
102.35
91.99
79.70
69.52
62.71
58.83
55.72
50.29
39.77
22.56
-1.65
-32.22
-67.32
-103.81
-132.47
-142.26
-126.98
-90.25
-43.48
0.34
31.45
45.63
43.80
30.79
12.59
-5.74
-20.94
-31.57
-37.50
-40.59
-41.11
-39.22
-35.10
-29.77
-25.30
-23.93
-27.12
-34.60
-44.51
-53.75
-59.61
-60.72
-57.96
-54.17
-51.13
-50.41
-52.26
-55.60
-58.32
-58.76
-56.20
-51.20
-45.11
-38.44
-30.77
-20.78
-7.04
11.48
34.18
58.94
82.65
101.96
115.11
121.22
119.87
111.19
96.48
78.02
58.96
42.61
31.08
25.85
26.42
30.58
31.92
26.06
13.05
-2.38
-10.71
-10.41
-2.58
10.93
25.98
39.72
50.78
58.87
64.44
68.17
70.36
72.02
73.90
76.06
78.56
81.91
86.91
94.01
102.69
110.96
117.04
119.60
118.17
113.49
106.95
99.39
90.41
78.67
62.62
42.39
19.74
-2.73
-22.47
-37.97
-49.13
-56.88
-62.42
-66.77
-70.33
-73.30
-76.06
-79.13
-83.03
-88.04
-94.03
-100.36
-106.15
-110.57
-113.18
-114.14
-114.06
-113.88
-114.74
-117.47
-122.11
-127.94
-133.70
-138.01
-139.84
-138.77
-135.07
-129.70
-123.49
-116.27
-107.07
-94.92
-79.51
-61.40
-41.74
-21.93
-3.61
12.07
25.28
37.08
48.80
61.62
76.53
94.04
113.50
131.69
143.54
144.11
130.04
101.11
61.18
17.90
-18.78
-36.25
-28.10
-0.08
34.07
60.95
73.03
69.34
53.31
30.08
4.34
-21.08
-45.65
-67.42
-83.44
-91.29
-90.26
-81.69
-68.50
-54.40
-43.27
-37.60
-36.96
-39.28
-41.76
-42.10
-39.02
-32.31
-22.72
-11.72
-0.77
9.78
20.43
32.22
46.33
63.59
84.26
107.74
132.52
156.67
178.47
196.39
208.81
213.81
209.43
194.37
168.93
135.50
98.36
62.63
32.54
10.14
-5.22
-16.28
-26.54
-38.87
-54.49
-72.81
-91.71
-108.41
-120.25
-125.40
-123.27
-114.60
-101.17
-85.36
-69.74
-56.64
-47.64
-43.25
-42.91
-45.34
-48.92
-52.18
-53.88
-53.71
-52.33
-50.87
-50.49
-51.90
-55.16
-59.52
-63.36
-64.11
-59.82
-50.07
-36.02
-19.90
-4.16
9.22
19.40
26.97
34.23
42.76
52.33
61.42
68.45
73.08
76.45
80.82
88.53
101.91
120.35
140.07
155.71
162.53
158.00
141.97
116.64
79.39
35.93
-2.10
-24.24
-27.78
-17.46
-1.07
13.79
21.55
19.34
8.02
-10.06
-32.01
-54.27
-74.27
-89.11
-96.97
-97.79
-93.04
-84.09
-73.04
-62.43
-54.53
-50.44
-49.59
-50.50
-50.58
-47.65
-39.92
-27.48
-12.50
1.92
13.32
21.09
26.28
30.79
36.03
42.54
49.40
54.98
58.15
59.15
59.46
60.52
62.60
64.24
63.04
56.76
44.38
26.61
5.53
-16.37
-37.14
-55.65
-71.47
-84.23
-93.44
-98.57
-99.36
-96.21
-90.34
-83.57
-77.74
-74.04
-72.53
-72.17
-71.32
-68.53
-63.11
-55.59
-47.43
-40.16
-34.63
-30.65
-27.33
-23.89
-20.17
-16.46
-13.52
-12.10
-12.41
-14.01
-15.98
-17.41
-17.63
-16.11
-11.74
-3.67
8.18
23.10
39.81
56.76
72.49
85.93
96.81
106.54
116.28
125.97
134.35
139.80
141.24
138.64
133.15
126.74
122.67
122.60
125.77
129.55
131.01
127.93
118.84
102.99
73.11
29.21
-20.84
-65.70
-97.25
-112.83
-113.60
-102.57
-83.68
-61.31
-38.83
-19.93
-8.15
-5.62
-11.81
-24.12
-39.47
-55.81
-72.41
-88.00
-100.79
-108.70
-109.96
-103.72
-90.90
-74.20
-57.01
-41.82
-28.89
-17.61
-7.84
-0.84
2.03
0.95
-1.88
-3.08
0.10
8.43
19.98
31.11
38.72
41.87
41.71
40.22
38.78
37.49
35.80
33.23
29.98
26.97
25.33
25.59
27.39
29.60
30.88
30.30
27.99
24.29
20.11
16.50
14.02
12.78
12.50
12.75
13.21
13.89
14.99
16.83
19.63
22.93
26.04
28.15
28.62
27.08
23.50
18.04
11.04
3.08
-5.34
-13.41
-20.33
-25.86
-30.54
-35.62
-42.59
-52.85
-64.81
-77.31
-88.91
-98.48
-105.54
-110.25
-113.03
-114.02
-113.09
-109.92
-104.54
-96.88
-86.94
-74.92
-61.09
-45.58
-28.11
-8.78
11.95
32.93
52.98
70.96
85.53
95.70
101.36
104.08
105.38
106.43
107.34
107.72
106.66
102.54
94.10
81.50
67.62
55.22
46.34
41.27
39.27
38.66
36.63
30.45
18.55
2.23
-17.64
-40.54
-66.47
-94.58
-118.01
-128.98
-123.70
-112.72
-100.39
-88.74
-75.45
-60.17
-42.52
-22.59
-2.45
14.16
23.36
24.20
16.93
3.44
-13.86
-32.46
-50.88
-69.24
-87.75
-105.03
-116.85
-119.59
-111.82
-95.51
-74.75
-54.20
-37.62
-26.54
-20.05
-15.24
-9.97
-3.44
4.08
12.46
22.23
34.16
48.61
64.89
81.42
95.69
105.47
109.86
109.79
107.41
104.88
103.48
103.19
103.21
102.35
99.98
96.45
92.92
90.59
89.88
90.02
89.36
86.33
80.32
72.11
63.27
55.29
48.65
42.76
36.56
29.48
21.96
15.30
10.79
8.94
9.14
10.01
10.04
8.25
4.49
-0.72
-6.50
-12.05
-16.97
-21.27
-25.29
-29.46
-34.15
-39.51
-45.49
-51.98
-58.90
-66.19
-73.75
-81.35
-88.61
-95.03
-100.18
-103.75
-105.45
-104.92
-101.68
-95.32
-85.76
-73.54
-59.79
-45.99
-33.48
-23.10
-15.07
-9.19
-5.10
-2.49
-1.14
-0.79
-1.03
-1.36
-1.32
-0.83
-0.22
-0.14
-1.25
-3.83
-7.69
-12.23
-16.77
-20.90
-24.63
-28.31
-32.27
-36.44
-40.17
-42.47
-42.47
-39.73
-34.44
-27.28
-18.98
-10.03
-0.45
9.67
19.52
27.62
32.51
33.83
32.69
31.31
31.72
35.11
41.10
47.68
52.10
52.20
47.30
38.19
26.67
14.62
4.41
-1.87
-3.34
-0.83
3.60
7.81
10.24
10.74
9.93
10.07
14.08
24.38
41.92
66.04
94.76
124.64
151.62
164.83
155.38
122.85
77.44
33.40
0.62
-17.02
-24.17
-25.98
-26.88
-28.95
-32.60
-38.08
-45.76
-55.80
-67.60
-79.96
-91.04
-99.52
-103.91
-102.74
-95.27
-82.07
-64.94
-46.08
-27.43
-9.76
6.93
22.57
36.29
46.95
53.90
56.97
56.39
52.60
46.71
40.08
34.16
30.18
28.78
29.62
31.69
34.00
35.93
37.43
39.17
40.21
39.44
35.98
29.37
19.92
8.81
-2.13
-10.90
-15.99
-16.43
-12.51
-6.00
0.41
4.11
3.34
-2.36
-12.20
-24.65
-38.12
-51.21
-62.81
-72.26
-79.07
-82.86
-83.44
-80.98
-76.02
-69.50
-63.18
-57.15
-51.70
-46.90
-42.58
-38.48
-34.26
-29.72
-24.84
-19.61
-14.08
-8.61
-3.55
0.69
3.75
5.37
5.50
4.34
2.48
0.67
-0.53
-0.60
0.87
4.07
9.03
15.90
23.94
32.81
42.30
52.14
62.34
72.91
83.60
93.78
102.62
109.31
113.40
114.50
112.09
105.64
94.34
77.11
53.16
23.04
-10.92
-44.78
-74.32
-96.08
-107.55
-107.54
-96.42
-76.19
-49.92
-21.40
5.70
28.33
42.40
45.52
39.64
30.19
22.13
17.32
15.06
13.99
13.16
12.34
12.01
12.71
14.33
16.06
17.56
17.98
17.21
15.46
13.12
10.78
8.97
7.71
6.49
4.70
1.90
-1.87
-6.42
-11.61
-16.78
-21.31
-24.80
-27.18
-28.46
-28.67
-27.62
-25.22
-21.59
-17.05
-12.21
-7.94
-5.12
-4.32
-5.65
-8.60
-12.34
-16.00
-18.84
-20.45
-20.73
-19.94
-18.49
-16.88
-15.44
-14.34
-13.57
-12.99
-12.39
-11.62
-10.61
-9.36
-8.01
-6.80
-6.01
-5.94
-6.70
-8.14
-9.78
-10.87
-10.60
-8.39
-4.03
2.21
9.68
17.53
24.90
31.10
35.64
38.34
39.19
38.32
35.97
32.43
28.04
23.19
18.37
13.99
10.43
7.87
6.25
5.29
4.61
3.81
2.63
1.03
-0.89
-2.93
-4.99
-7.08
-9.31
-11.88
-14.94
-18.54
-22.61
-26.93
-31.13
-34.65
-36.83
-36.95
-34.50
-29.30
-21.74
-12.71
-3.41
4.97
11.55
15.97
18.32
19.02
18.50
17.04
14.79
11.86
8.48
5.06
2.11
0.07
-0.90
-0.93
-0.45
0.04
0.13
-0.39
-1.49
-2.99
-4.67
-6.34
-7.94
-9.51
-11.13
-12.89
-14.90
-17.27
-20.09
-23.39
-26.95
-30.30
-32.62
-33.00
-30.71
-25.50
-17.78
-8.52
1.02
9.64
16.48
21.13
23.55
23.99
22.84
20.55
17.58
14.37
11.29
8.58
6.35
4.59
3.23
2.18
1.38
0.79
0.39
0.14
-0.10
-0.50
-1.26
-2.54
-4.40
-6.78
-9.54
-12.55
-15.77
-19.25
-23.16
-27.68
-32.84
-38.50
-44.16
-49.03
-52.14
-52.48
-49.36
-42.62
-32.74
-20.75
-7.96
4.34
15.22
24.15
30.99
35.79
38.61
39.55
38.77
36.63
33.72
30.66
28.06
26.27
25.29
24.85
24.54
24.10
23.45
22.83
22.61
23.27
25.09
27.90
31.01
33.44
34.25
32.87
29.28
23.84
17.35
10.65
4.29
-1.61
-7.11
-12.26
-16.99
-21.12
-24.57
-27.10
-28.49
-28.81
-28.48
-28.03
-27.86
-28.19
-29.02
-30.40
-31.86
-32.57
-31.65
-28.42
-22.49
-13.92
-3.73
7.51
16.58
19.88
16.24
7.67
-2.51
-11.53
-18.11
-22.38
-25.00
-26.50
-26.39
-23.66
-17.71
-9.15
0.02
8.29
14.25
17.27
17.44
15.68
13.11
10.54
8.06
5.93
4.58
4.48
6.08
9.37
13.98
19.21
24.27
28.49
31.47
33.15
33.51
32.58
30.29
27.16
23.02
18.14
13.04
8.50
5.35
4.29
5.77
9.71
15.40
21.49
26.40
28.64
27.30
22.34
14.72
6.13
-1.61
-7.12
-9.79
-9.75
-7.62
-3.77
1.06
6.14
10.83
14.57
16.91
17.52
16.38
13.73
10.07
5.86
1.52
-2.69
-6.69
-10.50
-14.10
-17.30
-19.77
-21.13
-21.21
-20.07
-18.04
-15.68
-13.59
-12.19
-11.63
-11.76
-12.36
-13.27
-14.51
-16.35
-19.18
-23.36
-29.01
-35.85
-43.12
-49.69
-54.25
-55.56
-52.80
-45.78
-35.06
-21.85
-7.77
5.50
16.58
24.55
29.09
30.38
28.92
25.41
20.61
15.31
10.25
6.14
3.56
2.84
4.04
6.92
11.00
15.68
20.36
24.57
27.96
30.33
31.54
31.50
30.15
27.52
23.72
18.97
13.55
7.81
2.18
-2.84
-6.68
-8.92
-9.36
-8.21
-5.99
-3.38
-0.96
0.93
2.28
3.31
4.29
5.57
7.57
10.85
16.05
23.65
33.75
45.83
58.85
71.46
82.37
90.79
96.51
99.81
101.35
101.78
101.63
101.07
99.92
97.59
93.27
86.10
75.51
61.44
44.53
26.04
7.53
-9.53
-24.18
-36.04
-45.35
-52.62
-58.38
-63.01
-66.67
-69.36
-71.13
-72.12
-72.62
-72.93
-73.26
-73.63
-73.76
-73.24
-71.64
-68.72
-64.55
-59.58
-54.53
-50.20
-47.24
-46.00
-46.31
-47.50
-48.44
-47.76
-44.19
-36.89
-25.75
-11.50
4.52
20.66
35.34
47.39
56.14
61.42
63.36
62.28
58.53
52.41
44.19
34.15
22.59
9.92
-3.26
-16.17
-27.89
-37.53
-44.52
-48.76
-50.75
-51.35
-51.56
-52.09
-53.24
-54.81
-56.40
-57.57
-58.08
-57.85
-56.88
-55.21
-52.83
-49.80
-46.23
-42.34
-38.33
-34.47
-30.96
-27.98
-25.72
-24.42
-24.40
-25.80
-28.41
-31.53
-34.03
-34.57
-31.96
-25.55
-15.38
-2.39
12.01
26.34
39.38
50.19
58.21
63.20
65.15
64.30
60.73
54.80
47.17
38.62
29.68
20.58
11.42
2.34
-6.29
-14.67
-22.73
-30.08
-36.21
-40.94
-44.48
-47.23
-49.60
-51.88
-55.47
-61.18
-68.81
-77.34
-85.62
-92.88
-98.77
-103.21
-106.26
-109.49
-113.71
-118.23
-121.29
-121.16
-117.04
-109.06
-98.02
-75.94
-40.82
2.73
46.24
82.98
110.46
129.05
140.22
145.72
147.45
145.87
141.61
135.94
130.16
124.82
119.67
114.21
108.21
101.82
95.02
86.88
77.53
67.92
58.99
51.29
45.01
40.11
36.41
32.93
28.94
24.51
20.16
16.44
13.51
11.28
9.52
8.02
6.21
3.85
1.09
-1.70
-4.20
-6.23
-7.74
-8.74
-9.25
-9.44
-9.48
-9.39
-9.08
-8.53
-7.77
-6.94
-6.20
-5.73
-5.60
-5.83
-6.26
-6.63
-6.70
-6.30
-5.44
-4.30
-3.13
-2.07
-1.05
0.34
2.67
6.51
12.11
19.26
27.32
35.35
42.39
47.74
51.03
52.22
51.48
49.08
45.28
40.35
34.50
27.86
20.48
12.28
3.22
-6.60
-16.77
-26.53
-34.90
-41.01
-44.43
-45.31
-44.30
-42.26
-39.90
-37.70
-35.84
-34.30
-33.03
-31.93
-30.89
-29.65
-27.93
-25.45
-22.26
-18.59
-14.77
-11.01
-7.40
-3.92
-0.48
2.92
6.08
8.24
8.64
6.86
3.09
-2.01
-7.49
-12.28
-15.40
-16.21
-15.31
-13.62
-11.82
-10.04
-8.22
-6.21
-3.86
-0.95
2.68
5.85
7.45
7.16
5.49
3.05
0.09
-3.53
-8.18
-14.19
-23.25
-36.29
-52.62
-70.20
-87.02
-102.10
-115.57
-128.05
-130.00
-115.47
-85.35
-46.93
-8.22
25.43
51.34
68.77
78.60
82.97
82.89
79.22
73.00
65.66
58.51
52.64
48.97
48.30
51.08
55.93
61.08
65.23
68.26
69.97
70.13
68.77
66.34
63.53
60.21
55.92
50.34
43.48
35.53
26.80
17.49
7.39
-4.18
-18.39
-35.87
-56.02
-76.98
-96.37
-112.06
-122.82
-128.48
-129.65
-127.37
-122.61
-116.05
-108.17
-99.30
-89.69
-79.43
-68.67
-57.80
-47.40
-38.24
-31.23
-27.09
-26.07
-27.92
-31.58
-35.57
-38.24
-37.65
-32.42
-22.64
-10.01
2.83
13.06
19.47
22.50
23.72
25.67
30.26
37.47
45.45
51.92
54.82
54.21
51.24
47.22
44.02
43.21
45.16
49.36
55.26
62.09
70.50
81.32
88.71
87.99
78.74
64.46
49.26
40.21
35.76
34.45
35.85
40.41
45.98
52.13
58.01
62.36
64.29
62.99
59.24
53.96
47.53
40.43
33.30
26.12
18.44
9.91
0.06
-10.41
-20.36
-28.60
-33.57
-33.73
-28.77
-19.81
-8.93
1.11
8.47
12.09
11.83
8.46
3.44
-2.11
-7.60
-12.97
-18.63
-24.76
-31.27
-37.75
-43.37
-47.06
-48.00
-45.94
-41.19
-34.59
-27.09
-19.57
-12.69
-6.89
-2.34
0.86
2.77
3.61
3.82
3.91
4.35
5.32
6.72
8.27
9.68
10.86
11.96
13.20
14.80
16.85
19.31
22.08
24.99
27.93
30.97
34.37
38.58
43.94
50.32
56.92
62.33
65.02
64.03
59.38
52.08
43.70
35.71
29.06
24.13
20.99
19.69
20.25
22.59
26.27
30.49
34.27
36.79
37.63
36.84
34.75
31.68
27.83
23.15
17.56
11.06
3.91
-3.45
-10.48
-16.75
-22.15
-26.93
-31.58
-36.54
-41.87
-47.10
-51.37
-53.76
-53.78
-51.77
-48.83
-46.46
-46.02
-48.18
-52.73
-58.74
-64.96
-70.25
-73.93
-75.78
-75.98
-74.93
-73.08
-70.82
-68.39
-65.85
-62.93
-59.13
-53.81
-46.59
-37.64
-27.85
-18.70
-11.78
-8.25
-8.31
-11.20
-15.43
-19.38
-21.79
-22.09
-20.36
-17.16
-13.24
-9.36
-6.19
-4.21
-3.73
-4.80
-7.22
-10.55
-14.23
-17.68
-20.49
-22.57
-24.13
-25.56
-27.26
-29.34
-31.58
-33.49
-34.50
-34.23
-32.61
-29.82
-26.12
-21.69
-16.56
-10.69
-4.13
2.84
9.72
15.82
20.52
23.47
24.68
24.52
23.59
22.56
21.89
21.89
22.60
24.01
26.05
28.65
31.67
34.85
37.88
40.52
42.76
44.78
46.89
49.32
52.07
55.01
57.89
60.59
63.03
65.13
66.62
67.05
65.88
62.70
57.46
50.44
42.15
33.05
23.46
13.53
3.39
-6.74
-16.53
-25.69
-34.06
-41.71
-48.83
-55.57
-61.85
-67.36
-71.60
-74.19
-74.98
-74.10
-71.93
-68.85
-65.16
-61.01
-56.42
-51.39
-46.00
-40.44
-34.99
-29.93
-25.50
-21.83
-18.96
-16.86
-15.42
-14.44
-13.71
-12.99
-12.12
-11.07
-10.00
-9.23
-9.06
-9.68
-11.02
-12.76
-14.37
-15.27
-14.98
-13.22
-9.94
-5.36
0.14
6.10
12.04
17.55
22.33
26.18
29.02
30.83
31.68
31.72
31.14
30.23
29.27
28.48
27.98
27.72
27.52
27.20
26.59
25.63
24.38
22.93
21.33
19.57
17.54
15.14
12.34
9.26
6.10
3.11
0.42
-2.00
-4.34
-6.85
-9.73
-13.04
-16.60
-20.06
-22.90
-24.57
-24.61
-22.78
-19.13
-14.03
-8.08
-1.91
3.95
9.16
13.57
17.12
19.76
21.48
22.33
22.50
22.33
22.14
22.16
22.42
22.79
23.04
23.06
22.86
22.54
22.21
21.85
21.34
20.49
19.15
17.28
14.97
12.37
9.65
6.96
4.44
2.19
0.31
-1.20
-2.41
-3.51
-4.75
-6.33
-8.28
-10.36
-12.09
-12.85
-12.08
-9.51
-5.29
0.08
5.86
11.32
15.95
19.50
21.98
23.44
23.98
23.61
22.37
20.34
17.70
14.69
11.51
8.32
5.21
2.26
-0.49
-2.98
-5.20
-7.15
-8.90
-10.53
-12.19
-13.98
-16.02
-18.38
-21.02
-23.80
-26.55
-29.14
-31.62
-34.19
-37.11
-40.55
-44.43
-48.39
-51.77
-53.85
-53.86
-51.27
-45.81
-37.64
-27.38
-16.05
-4.83
5.17
13.24
19.09
22.86
24.87
25.51
25.11
23.96
22.38
20.71
19.26
18.22
17.62
17.38
17.37
17.50
17.73
18.00
18.19
18.07
17.40
16.08
14.22
12.08
10.03
8.30
6.89
5.58
3.99
1.79
-1.19
-4.89
-8.99
-12.97
-16.16
-17.86
-17.55
-14.93
-10.10
-3.53
4.04
11.77
18.90
24.83
29.23
31.95
33.08
32.83
31.57
29.66
27.41
25.05
22.71
20.49
18.50
16.81
15.47
14.40
13.44
12.38
11.03
9.23
6.94
4.15
0.93
-2.61
-6.29
-9.86
-13.09
-15.80
-17.95
-19.69
-21.25
-22.93
-24.88
-27.06
-29.09
-30.34
-30.10
-27.76
-23.08
-16.29
-8.06
0.73
9.16
16.55
22.52
26.93
29.80
31.24
31.37
30.39
28.59
26.44
24.52
23.41
23.46
24.70
26.73
28.84
30.24
30.38
29.05
26.43
22.96
19.14
15.40
12.09
9.45
7.57
6.38
5.54
4.51
2.80
0.08
-3.58
-7.83
-12.16
-16.16
-19.62
-22.55
-25.14
-27.56
-29.89
-32.07
-33.89
-35.03
-35.16
-34.12
-32.00
-29.16
-26.16
-23.49
-21.39
-19.72
-18.10
-16.12
-13.64
-10.86
-8.25
-6.32
-5.42
-5.54
-6.37
-7.43
-8.23
-8.46
-7.96
-6.72
-4.72
-1.93
1.71
6.19
11.35
16.85
22.19
26.83
30.34
32.44
33.11
32.55
31.10
29.13
26.90
24.46
21.69
18.41
14.52
10.20
5.90
2.27
-0.06
-0.63
0.70
3.79
8.29
13.74
19.63
25.41
30.47
34.28
36.39
36.62
35.07
32.13
28.40
24.49
20.90
17.86
15.43
13.47
11.84
10.38
8.98
7.49
5.74
3.57
0.91
-2.17
-5.48
-8.79
-11.95
-14.94
-17.78
-20.53
-23.21
-25.83
-28.45
-31.12
-33.86
-36.44
-38.34
-38.88
-37.38
-33.46
-27.30
-19.49
-10.95
-2.62
4.81
10.90
15.47
18.47
19.96
20.05
19.01
17.23
15.11
13.02
11.16
9.57
8.17
6.84
5.55
4.28
3.09
1.96
0.86
-0.31
-1.60
-3.04
-4.63
-6.39
-8.28
-10.26
-12.28
-14.27
-16.23
-18.23
-20.34
-22.58
-24.73
-26.38
-26.96
-25.95
-23.03
-18.23
-11.94
-4.77
2.57
9.35
14.98
18.98
21.14
21.48
20.28
18.04
15.33
12.65
10.34
8.51
7.07
5.82
4.55
3.18
1.74
0.39
-0.72
-1.51
-1.99
-2.24
-2.40
-2.69
-3.31
-4.43
-6.09
-8.13
-10.25
-12.11
-13.53
-14.64
-15.83
-17.58
-20.15
-23.38
-26.64
-29.08
-29.87
-28.48
-24.82
-19.19
-12.18
-4.57
2.85
9.41
14.68
18.53
21.09
22.62
23.36
23.39
22.74
21.39
19.49
17.32
15.22
13.44
11.99
10.71
9.35
7.80
6.12
4.54
3.30
2.47
1.96
1.44
0.53
-1.03
-3.26
-5.91
-8.52
-10.66
-12.05
-12.79
-13.25
-13.97
-15.40
-17.73
-20.78
-24.06
-26.89
-28.60
-28.65
-26.70
-22.74
-17.02
-10.05
-2.48
5.01
11.77
17.26
21.09
23.07
23.23
21.85
19.42
16.50
13.63
11.15
9.15
7.53
6.16
4.93
3.87
3.04
2.49
2.12
1.75
1.22
0.45
-0.53
-1.63
-2.81
-4.14
-5.69
-7.47
-9.34
-11.13
-12.68
-13.96
-15.12
-16.37
-17.85
-19.60
-21.47
-23.18
-24.35
-24.54
-23.32
-20.39
-15.71
-9.62
-2.75
4.12
10.24
15.08
18.40
20.15
20.43
19.46
17.55
15.13
12.65
10.51
8.91
7.84
7.10
6.44
5.62
4.49
2.98
1.16
-0.77
-2.55
-3.88
-4.57
-4.58
-4.12
-3.52
-3.15
-3.27
-3.97
-5.20
-6.84
-8.77
-10.92
-13.22
-15.60
-17.94
-20.02
-21.56
-22.20
-21.65
-19.64
-16.13
-11.26
-5.37
1.01
7.33
12.99
17.48
20.43
21.66
21.21
19.40
16.76
13.92
11.48
9.77
8.83
8.36
7.91
7.05
5.58
3.54
1.23
-0.97
-2.74
-3.88
-4.46
-4.72
-5.03
-5.75
-7.07
-9.01
-11.41
-13.98
-16.44
-18.60
-20.39
-21.94
-23.46
-25.21
-27.32
-29.74
-32.15
-34.06
-34.91
-34.25
-31.84
-27.67
-21.95
-15.06
-7.51
0.07
6.99
12.69
16.79
19.30
20.51
20.85
20.72
20.32
19.68
18.76
17.51
16.00
14.37
12.80
11.42
10.23
9.15
7.95
6.43
4.43
1.92
-0.97
-4.03
-7.03
-9.74
-12.04
-13.91
-15.44
-16.79
-18.18
-19.80
-21.81
-24.10
-26.31
-27.84
-27.92
-25.96
-21.71
-15.46
-7.94
-0.17
6.90
12.57
16.49
18.68
19.30
18.64
16.96
14.60
11.89
9.20
6.86
5.08
3.94
3.34
3.15
3.20
3.41
3.72
4.09
4.45
4.66
4.50
3.78
2.34
0.19
-2.48
-5.39
-8.18
-10.64
-12.69
-14.41
-15.97
-17.46
-18.85
-19.88
-20.14
-19.14
-16.46
-11.90
-5.59
1.99
10.13
18.06
25.06
30.66
34.61
36.88
37.50
36.62
34.39
31.10
27.14
22.96
19.02
15.68
13.13
11.33
10.09
9.12
8.12
6.90
5.37
3.59
1.70
-0.16
-1.87
-3.43
-4.90
-6.42
-8.07
-9.93
-12.02
-14.39
-17.05
-19.97
-22.93
-25.49
-27.02
-26.82
-24.41
-19.67
-12.96
-5.05
3.08
10.49
16.53
20.87
23.60
24.99
25.37
25.00
24.01
22.45
20.39
17.99
15.52
13.29
11.51
10.25
9.39
8.75
8.13
7.40
6.57
5.68
4.78
3.85
2.78
1.42
-0.34
-2.53
-5.10
-7.94
-10.96
-14.06
-17.09
-19.76
-21.68
-22.37
-21.48
-18.91
-14.89
-9.91
-4.57
0.61
5.19
8.90
11.55
13.07
13.46
12.90
11.64
10.00
8.26
6.64
5.25
4.11
3.19
2.44
1.78
1.20
0.68
0.23
-0.17
-0.58
-1.10
-1.84
-2.90
-4.24
-5.75
-7.20
-8.41
-9.28
-9.82
-10.14
-10.31
-10.30
-9.95
-9.03
-7.36
-4.98
-2.16
0.70
3.20
5.17
6.65
7.88
9.09
10.35
11.49
12.18
12.13
11.24
9.66
7.75
5.93
4.50
3.57
3.04
2.70
2.36
1.87
1.20
0.36
-0.61
-1.66
-2.76
-3.87
-5.02
-6.23
-7.63
-9.34
-11.47
-13.97
-16.63
-19.00
-20.50
-20.52
-18.66
-14.86
-9.41
-2.97
3.71
9.90
15.07
18.95
21.48
22.72
22.79
21.83
19.99
17.48
14.57
11.61
8.90
6.72
5.19
4.31
3.99
4.11
4.55
5.16
5.75
6.07
5.85
4.92
3.23
0.92
-1.76
-4.60
-7.53
-10.62
-13.97
-17.57
-21.12
-24.09
-25.83
-25.77
-23.67
-19.65
-14.19
-7.94
-1.60
4.24
9.15
12.88
15.33
16.58
16.77
16.16
15.03
13.66
12.30
11.15
10.30
9.79
9.53
9.39
9.23
8.93
8.45
7.77
6.93
5.90
4.66
3.18
1.47
-0.38
-2.24
-3.99
-5.59
-7.10
-8.69
-10.54
-12.76
-15.28
-17.79
-19.73
-20.45
-19.40
-16.30
-11.26
-4.83
2.19
8.97
14.83
19.37
22.45
24.09
24.40
23.50
21.59
18.92
15.91
12.94
10.32
8.18
6.46
4.96
3.53
2.11
0.77
-0.38
-1.29
-2.04
-2.85
-3.99
-5.68
-7.94
-10.62
-13.41
-16.00
-18.19
-19.99
-21.60
-23.29
-25.26
-27.52
-29.86
-31.86
-33.02
-32.85
-30.98
-27.24
-21.70
-14.70
-6.87
1.00
8.08
13.71
17.50
19.40
19.66
18.70
16.97
14.86
12.69
10.69
9.02
7.74
6.84
6.24
5.82
5.46
5.08
4.64
4.11
3.44
2.58
1.45
-0.02
-1.82
-3.84
-5.95
-7.97
-9.83
-11.54
-13.27
-15.27
-17.78
-20.89
-24.42
-27.85
-30.40
-31.23
-29.69
-25.56
-19.21
-11.45
-3.29
4.31
10.65
15.41
18.51
20.08
20.32
19.47
17.82
15.69
13.34
11.00
8.82
6.84
5.09
3.54
2.14
0.89
-0.24
-1.28
-2.25
-3.26
-4.45
-5.99
-7.98
-10.31
-12.73
-14.88
-16.49
-17.57
-18.38
-19.35
-20.88
-23.16
-26.05
-29.08
-31.58
-32.74
-31.85
-28.43
-22.38
-14.11
-4.42
5.61
14.94
22.78
28.70
32.65
34.79
35.42
34.87
33.52
31.79
30.11
28.83
28.17
28.17
28.76
29.78
31.09
32.56
34.06
35.34
36.02
35.67
33.87
30.38
25.26
18.84
11.66
4.33
-2.60
-8.79
-14.18
-18.97
-23.56
-28.42
-33.85
-39.82
-45.85
-51.01
-54.17
-54.28
-50.75
-43.70
-33.95
-22.87
-11.94
-2.41
5.05
10.36
13.94
16.31
17.94
19.04
19.66
19.81
19.60
19.21
18.82
18.52
18.20
17.71
16.94
15.98
15.09
14.60
14.69
15.33
16.21
16.87
16.84
15.85
13.86
11.14
8.09
5.12
2.52
0.35
-1.54
-3.48
-5.79
-8.68
-12.13
-15.84
-19.34
-22.01
-23.28
-22.69
-20.07
-15.57
-9.65
-3.00
3.63
9.61
14.50
18.10
20.39
21.42
21.28
20.11
18.12
15.61
12.93
10.33
7.96
5.81
3.80
1.88
0.04
-1.61
-2.98
-4.02
-4.82
-5.53
-6.32
-7.29
-8.43
-9.64
-10.81
-11.83
-12.65
-13.31
-13.87
-14.49
-15.34
-16.60
-18.38
-20.62
-23.02
-25.05
-26.06
-25.45
-22.87
-18.31
-12.14
-4.93
2.65
9.97
16.58
22.14
26.43
29.33
30.80
30.96
30.11
28.71
27.27
26.25
25.88
26.12
26.70
27.23
27.37
26.92
25.93
24.55
23.01
21.44
19.86
18.19
16.31
14.13
11.70
9.13
6.58
4.17
1.93
-0.19
-2.35
-4.70
-7.39
-10.44
-13.74
-16.99
-19.79
-21.68
-22.24
-21.21
-18.51
-14.37
-9.22
-3.68
1.57
5.96
9.13
10.99
11.70
11.55
10.81
9.68
8.32
6.86
5.48
4.39
3.72
3.47
3.42
3.27
2.74
1.74
0.42
-0.98
-2.23
-3.26
-4.24
-5.45
-7.15
-9.46
-12.28
-15.36
-18.39
-21.12
-23.46
-25.47
-27.38
-29.54
-32.32
-36.08
-40.98
-46.85
-53.11
-58.76
-62.55
-63.35
-60.47
-53.95
-44.56
-33.55
-22.32
-12.00
-3.27
3.64
8.78
12.35
14.52
15.53
15.63
15.17
14.54
14.08
13.97
14.25
14.76
15.33
15.79
16.08
16.17
16.13
15.96
15.65
15.18
14.50
13.58
12.42
11.02
9.39
7.52
5.45
3.24
0.99
-1.22
-3.35
-5.49
-7.76
-10.31
-13.21
-16.39
-19.67
-22.72
-25.16
-26.54
-26.43
-24.49
-20.58
-14.85
-7.81
-0.17
7.25
13.78
19.02
22.86
25.37
26.70
26.99
26.36
24.93
22.90
20.55
18.19
16.12
14.51
13.41
12.69
12.18
11.69
11.12
10.47
9.77
9.06
8.24
7.19
5.71
3.70
1.16
-1.72
-4.72
-7.57
-10.13
-12.38
-14.43
-16.45
-18.61
-21.00
-23.62
-26.33
-28.87
-30.81
-31.67
-30.91
-28.21
-23.51
-17.16
-9.83
-2.35
4.56
10.37
14.88
18.04
19.96
20.72
20.47
19.43
17.89
16.20
14.65
13.36
12.33
11.41
10.46
9.43
8.41
7.55
6.98
6.70
6.55
6.26
5.53
4.20
2.29
-0.03
-2.47
-4.77
-6.77
-8.42
-9.85
-11.27
-12.92
-15.00
-17.62
-20.62
-23.65
-26.15
-27.47
-27.07
-24.59
-20.03
-13.74
-6.37
1.28
8.42
14.43
18.95
21.91
23.44
23.80
23.27
22.08
20.44
18.54
16.57
14.70
13.06
11.72
10.67
9.86
9.24
8.77
8.42
8.13
7.77
7.21
6.34
5.09
3.48
1.60
-0.41
-2.48
-4.58
-6.81
-9.34
-12.35
-15.89
-19.75
-23.43
-26.23
-27.40
-26.41
-23.10
-17.77
-11.02
-3.64
3.62
10.14
15.50
19.46
21.96
23.04
22.92
21.84
20.09
17.94
15.63
13.34
11.24
9.48
8.14
7.24
6.73
6.49
6.37
6.24
5.99
5.55
4.86
3.88
2.58
1.00
-0.77
-2.62
-4.47
-6.38
-8.48
-10.98
-14.03
-17.56
-21.24
-24.46
-26.48
-26.64
-24.56
-20.28
-14.26
-7.24
-0.03
6.67
12.39
16.89
20.09
21.97
22.59
22.06
20.61
18.58
16.31
14.12
12.14
10.34
8.63
6.94
5.33
4.00
3.14
2.83
2.95
3.19
3.16
2.64
1.65
0.46
-0.52
-0.99
-0.87
-0.38
0.01
-0.23
-1.52
-4.05
-7.62
-11.67
-15.34
-17.68
-17.93
-15.81
-11.70
-6.58
-1.83
1.25
1.85
-0.10
-3.86
-8.20
-11.88
-14.15
-15.12
-15.61
-16.83
-19.70
-24.43
-30.34
-36.23
-40.88
-43.57
-44.27
-43.55
-42.14
-40.65
-39.40
-38.45
-37.80
-37.39
-37.16
-36.97
-36.52
-35.37
-33.14
-29.67
-25.12
-20.03
-15.19
-11.31
-8.79
-7.47
-6.60
-5.06
-1.70
4.25
12.96
23.93
36.16
48.44
59.68
69.09
76.23
80.94
83.23
83.15
80.77
76.26
69.98
62.47
54.45
46.61
39.47
33.23
27.82
23.00
18.55
14.47
10.95
8.31
6.72
6.09
5.96
5.66
4.54
2.24
-1.16
-5.30
-9.66
-13.90
-17.74
-20.88
-22.94
-23.55
-22.75
-21.15
-19.81
-19.72
-21.09
-23.08
-24.10
-22.63
-18.12
-11.24
-3.59
3.20
8.18
11.38
13.44
15.00
16.28
17.04
16.85
15.50
13.14
10.25
7.39
4.97
3.11
1.66
0.37
-0.99
-2.41
-3.68
-4.51
-4.71
-4.31
-3.62
-3.12
-3.24
-4.21
-6.02
-8.40
-10.97
-13.44
-15.65
-17.66
-19.68
-21.96
-24.68
-27.81
-30.99
-33.55
-34.62
-33.42
-29.49
-22.91
-14.30
-4.62
5.05
13.80
21.09
26.68
30.62
33.14
34.49
34.95
34.79
34.23
33.45
32.54
31.52
30.35
28.94
27.25
25.29
23.17
21.08
19.19
17.58
16.19
14.80
13.14
10.98
8.26
5.13
1.91
-1.07
-3.60
-5.67
-7.54
-9.60
-12.21
-15.55
-19.51
-23.68
-27.44
-30.03
-30.76
-29.09
-24.85
-18.30
-10.09
-1.22
7.30
14.62
20.25
24.10
26.37
27.39
27.52
27.00
26.02
24.71
23.19
21.54
19.83
18.11
16.37
14.54
12.59
10.50
8.32
6.17
4.16
2.33
0.59
-1.21
-3.25
-5.54
-7.98
-10.33
-12.42
-14.26
-16.05
-18.20
-21.07
-24.91
-29.66
-34.91
-39.97
-43.94
-45.96
-45.35
-41.88
-35.83
-27.97
-19.35
-11.06
-4.00
1.33
4.81
6.61
7.03
6.43
5.19
3.70
2.41
1.71
1.91
3.05
4.94
7.17
9.30
11.05
12.30
13.15
13.72
14.08
14.19
13.97
13.35
12.36
11.05
9.53
7.89
6.20
4.54
2.93
1.36
-0.29
-2.21
-4.61
-7.57
-10.91
-14.18
-16.70
-17.73
-16.70
-13.42
-8.17
-1.66
5.09
11.13
15.77
18.82
20.56
21.48
22.04
22.41
22.47
21.89
20.31
17.52
13.55
8.58
2.93
-2.99
-8.73
-13.87
-18.04
-21.00
-22.73
-23.35
-23.11
-22.38
-21.63
-21.35
-21.95
-23.52
-25.69
-27.69
-28.66
-28.04
-25.90
-22.92
-20.00
-17.84
-16.50
-15.39
-13.64
-10.54
-5.94
-0.28
5.67
11.20
15.95
19.92
23.35
26.39
28.97
30.79
31.53
31.02
29.44
27.22
24.87
22.82
21.21
19.94
18.76
17.45
15.95
14.36
12.89
11.68
10.76
9.90
8.79
7.13
4.79
1.96
-0.93
-3.39
-5.05
-5.88
-6.20
-6.48
-7.18
-8.46
-10.22
-12.07
-13.56
-14.26
-13.90
-12.42
-9.93
-6.73
-3.23
0.14
2.96
5.01
6.20
6.63
6.47
5.89
5.03
3.98
2.85
1.71
0.68
-0.13
-0.66
-0.89
-0.84
-0.59
-0.21
0.18
0.48
0.57
0.35
-0.23
-1.20
-2.53
-4.16
-6.01
-7.96
-9.94
-11.90
-13.83
-15.73
-17.59
-19.30
-20.62
-21.17
-20.54
-18.45
-14.83
-9.97
-4.44
1.08
5.96
9.79
12.40
13.86
14.33
13.99
13.00
11.48
9.56
7.42
5.28
3.39
1.98
1.16
0.88
0.98
1.24
1.47
1.59
1.60
1.58
1.52
1.35
0.93
0.12
-1.13
-2.72
-4.49
-6.25
-7.89
-9.38
-10.81
-12.29
-13.93
-15.77
-17.72
-19.50
-20.75
-21.00
-19.86
-17.12
-12.86
-7.46
-1.53
4.25
9.30
13.29
16.10
17.80
18.54
18.48
17.75
16.48
14.84
13.03
11.25
9.62
8.18
6.86
5.61
4.39
3.23
2.20
1.39
0.80
0.39
0.06
-0.35
-0.92
-1.73
-2.77
-3.98
-5.28
-6.58
-7.86
-9.11
-10.35
-11.64
-13.01
-14.53
-16.22
-18.04
-19.80
-21.18
-21.73
-21.05
-18.89
-15.28
-10.56
-5.26
0.03
4.79
8.66
11.45
13.09
13.61
13.14
11.91
10.23
8.44
6.81
5.48
4.47
3.69
3.07
2.55
2.11
1.75
1.40
0.98
0.42
-0.37
-1.38
-2.56
-3.81
-5.02
-6.14
-7.14
-8.07
-9.03
-10.09
-11.36
-12.85
-14.56
-16.35
-18.01
-19.25
-19.70
-19.04
-17.04
-13.70
-9.26
-4.16
1.00
5.73
9.60
12.47
14.36
15.43
15.83
15.66
14.92
13.66
12.03
10.35
8.97
8.14
7.87
7.94
7.99
7.74
7.13
6.29
5.43
4.70
4.08
3.40
2.45
1.09
-0.68
-2.74
-4.86
-6.85
-8.59
-10.10
-11.49
-12.94
-14.62
-16.62
-18.88
-21.18
-23.15
-24.36
-24.38
-22.88
-19.73
-15.08
-9.34
-3.10
2.99
8.43
12.90
16.27
18.59
19.94
20.44
20.20
19.38
18.16
16.79
15.45
14.27
13.28
12.46
11.79
11.23
10.75
10.30
9.79
9.13
8.29
7.26
6.05
4.65
2.98
1.00
-1.28
-3.70
-6.03
-8.03
-9.65
-11.04
-12.50
-14.29
-16.48
-18.87
-21.05
-22.50
-22.81
-21.67
-19.05
-15.12
-10.25
-4.98
0.17
4.74
8.43
11.12
12.80
13.51
13.27
12.22
10.55
8.61
6.80
5.43
4.66
4.39
4.46
4.67
4.93
5.25
5.62
5.94
6.03
5.68
4.79
3.42
1.79
0.15
-1.36
-2.71
-4.01
-5.40
-6.96
-8.73
-10.72
-12.93
-15.32
-17.72
-19.79
-20.99
-20.77
-18.74
-14.89
-9.60
-3.58
2.37
7.61
11.77
14.72
16.54
17.35
17.29
16.48
15.08
13.31
11.43
9.72
8.39
7.60
7.33
7.46
7.78
8.03
8.00
7.60
6.88
5.98
4.99
3.90
2.58
0.83
-1.41
-4.05
-6.80
-9.29
-11.25
-12.59
-13.53
-14.43
-15.71
-17.60
-20.07
-22.77
-25.14
-26.55
-26.49
-24.65
-21.03
-15.89
-9.72
-3.12
3.26
8.90
13.39
16.57
18.41
19.06
18.79
17.88
16.69
15.48
14.48
13.78
13.37
13.15
13.01
12.89
12.76
12.62
12.44
12.18
11.77
11.13
10.23
9.09
7.75
6.23
4.56
2.76
0.88
-1.02
-2.92
-4.78
-6.63
-8.50
-10.41
-12.37
-14.39
-16.48
-18.65
-20.86
-22.99
-24.74
-25.72
-25.44
-23.51
-19.77
-14.34
-7.69
-0.57
6.23
11.97
16.19
18.74
19.79
19.67
18.77
17.41
15.82
14.17
12.57
11.18
10.16
9.60
9.51
9.79
10.24
10.66
10.92
10.94
10.71
10.21
9.46
8.48
7.31
5.99
4.56
3.00
1.27
-0.65
-2.69
-4.72
-6.61
-8.31
-9.90
-11.53
-13.34
-15.39
-17.59
-19.80
-21.86
-23.53
-24.52
-24.47
-22.99
-19.85
-15.14
-9.30
-3.04
2.87
7.83
11.55
13.99
15.31
15.74
15.46
14.66
13.50
12.15
10.74
9.43
8.34
7.57
7.20
7.25
7.68
8.35
9.07
9.63
9.86
9.66
9.00
7.94
6.57
5.01
3.32
1.52
-0.40
-2.46
-4.62
-6.82
-8.92
-10.84
-12.58
-14.26
-16.03
-18.03
-20.27
-22.64
-24.95
-26.94
-28.36
-28.87
-28.11
-25.71
-21.47
-15.52
-8.37
-0.87
6.07
11.74
15.76
18.18
19.28
19.42
18.87
17.81
16.40
14.85
13.42
12.39
11.91
12.02
12.55
13.22
13.74
13.86
13.46
12.57
11.36
10.05
8.80
7.67
6.59
5.41
3.98
2.26
0.26
-1.90
-4.10
-6.25
-8.29
-10.21
-12.00
-13.72
-15.48
-17.40
-19.64
-22.20
-24.94
-27.45
-29.16
-29.42
-27.73
-23.92
-18.27
-11.37
-4.08
2.79
8.66
13.20
16.40
18.35
19.21
19.13
18.24
16.72
14.83
12.87
11.13
9.84
9.10
8.84
8.90
9.05
9.11
9.02
8.80
8.54
8.28
7.98
7.49
6.61
5.20
3.25
0.90
-1.60
-4.00
-6.14
-8.02
-9.78
-11.59
-13.67
-16.07
-18.75
-21.54
-24.18
-26.28
-27.41
-27.04
-24.77
-20.41
-14.16
-6.67
1.16
8.38
14.28
18.51
21.09
22.27
22.38
21.69
20.44
18.80
16.94
15.04
13.33
11.97
11.09
10.67
10.60
10.66
10.66
10.46
10.05
9.47
8.74
7.85
6.72
5.28
3.54
1.61
-0.40
-2.39
-4.34
-6.27
-8.21
-10.12
-11.96
-13.71
-15.41
-17.18
-19.19
-21.55
-24.25
-27.06
-29.45
-30.74
-30.23
-27.46
-22.41
-15.52
-7.65
0.22
7.25
12.91
17.03
19.71
21.13
21.50
20.97
19.71
17.99
16.13
14.47
13.26
12.58
12.31
12.25
12.18
11.96
11.53
10.93
10.21
9.41
8.54
7.59
6.52
5.27
3.81
2.10
0.18
-1.85
-3.88
-5.79
-7.58
-9.31
-11.12
-13.14
-15.42
-17.99
-20.79
-23.72
-26.56
-28.94
-30.32
-30.09
-27.77
-23.21
-16.75
-9.13
-1.34
5.70
11.38
15.46
18.04
19.34
19.59
18.94
17.54
15.60
13.46
11.51
10.07
9.26
8.97
8.94
8.91
8.74
8.46
8.20
8.06
7.97
7.74
7.08
5.77
3.83
1.46
-0.97
-3.17
-4.96
-6.40
-7.72
-9.21
-11.10
-13.49
-16.34
-19.48
-22.61
-25.29
-26.98
-27.09
-25.17
-21.03
-14.93
-7.54
0.29
7.65
13.90
18.68
21.94
23.75
24.26
23.61
21.99
19.68
17.08
14.62
12.67
11.44
10.87
10.73
10.74
10.64
10.38
9.98
9.54
9.07
8.48
7.57
6.14
4.09
1.51
-1.35
-4.21
-6.83
-9.09
-11.01
-12.73
-14.38
-16.16
-18.24
-20.78
-23.82
-27.18
-30.35
-32.58
-33.04
-31.07
-26.50
-19.69
-11.49
-2.92
5.10
12.00
17.53
21.69
24.57
26.23
26.70
26.10
24.64
22.66
20.52
18.53
16.90
15.71
14.91
14.40
14.02
13.58
12.96
12.11
11.08
9.96
8.80
7.56
6.13
4.40
2.35
0.06
-2.30
-4.57
-6.64
-8.54
-10.34
-12.15
-14.10
-16.33
-18.96
-22.07
-25.55
-29.01
-31.81
-33.12
-32.24
-28.78
-22.89
-15.19
-6.65
1.70
9.05
14.89
19.08
21.65
22.76
22.55
21.21
18.98
16.25
13.50
11.21
9.69
9.02
9.01
9.33
9.67
9.86
9.88
9.78
9.58
9.17
8.36
7.02
5.15
2.85
0.36
-2.13
-4.51
-6.72
-8.73
-10.52
-12.07
-13.47
-14.92
-16.68
-18.97
-21.75
-24.67
-27.00
-27.90
-26.65
-22.90
-16.84
-9.13
-0.73
7.33
14.25
19.55
23.12
25.05
25.57
24.91
23.26
20.87
18.11
15.39
13.16
11.71
11.09
11.07
11.26
11.27
10.87
10.06
9.00
7.89
6.86
5.88
4.85
3.63
2.08
0.17
-2.05
-4.46
-6.91
-9.26
-11.41
-13.36
-15.14
-16.87
-18.72
-20.82
-23.28
-26.06
-28.92
-31.41
-32.88
-32.66
-30.23
-25.46
-18.66
-10.58
-2.15
5.72
12.38
17.53
21.14
23.36
24.39
24.40
23.54
21.96
19.88
17.57
15.29
13.28
11.67
10.51
9.77
9.41
9.36
9.53
9.76
9.83
9.55
8.77
7.50
5.85
4.00
2.10
0.22
-1.66
-3.56
-5.45
-7.27
-8.89
-10.26
-11.39
-12.44
-13.62
-15.13
-17.13
-19.67
-22.68
-25.87
-28.73
-30.57
-30.67
-28.49
-23.87
-17.18
-9.21
-0.94
6.68
13.01
17.69
20.69
22.11
22.15
21.06
19.13
16.69
14.11
11.73
9.82
8.53
7.84
7.63
7.68
7.83
7.92
7.89
7.73
7.41
6.88
6.03
4.77
3.10
1.06
-1.18
-3.45
-5.60
-7.53
-9.24
-10.81
-12.35
-14.03
-16.01
-18.42
-21.23
-24.25
-27.02
-28.88
-29.16
-27.35
-23.30
-17.34
-10.17
-2.65
4.46
10.59
15.46
19.01
21.26
22.31
22.28
21.34
19.69
17.60
15.30
13.07
11.14
9.69
8.80
8.43
8.45
8.63
8.85
8.99
9.01
8.85
8.42
7.57
6.19
4.26
1.89
-0.69
-3.28
-5.72
-7.92
-9.90
-11.66
-13.24
-14.69
-16.10
-17.60
-19.34
-21.36
-23.57
-25.67
-27.15
-27.43
-25.98
-22.49
-17.03
-10.05
-2.30
5.36
12.17
17.63
21.54
23.92
24.91
24.67
23.37
21.16
18.29
15.09
12.01
9.49
7.88
7.26
7.50
8.25
9.08
9.66
9.86
9.71
9.37
8.97
8.54
8.02
7.28
6.20
4.72
2.85
0.62
-1.88
-4.55
-7.23
-9.80
-12.17
-14.36
-16.49
-18.75
-21.37
-24.45
-27.91
-31.40
-34.32
-35.90
-35.40
-32.35
-26.74
-19.09
-10.30
-1.43
6.59
13.13
17.92
20.94
22.36
22.41
21.35
19.48
17.14
14.66
12.35
10.44
9.02
8.07
7.42
6.87
6.26
5.53
4.74
4.03
3.48
3.06
2.57
1.81
0.62
-0.96
-2.75
-4.53
-6.13
-7.50
-8.75
-10.06
-11.62
-13.53
-15.83
-18.46
-21.22
-23.77
-25.56
-25.94
-24.34
-20.50
-14.59
-7.30
0.40
7.52
13.33
17.49
20.05
21.24
21.41
20.77
19.54
17.89
15.95
13.89
11.83
9.88
8.13
6.68
5.57
4.81
4.40
4.28
4.36
4.50
4.54
4.24
3.40
1.90
-0.24
-2.82
-5.52
-8.01
-10.09
-11.78
-13.26
-14.84
-16.74
-19.08
-21.80
-24.65
-27.21
-28.97
-29.35
-27.86
-24.24
-18.59
-11.40
-3.45
4.40
11.43
17.14
21.30
23.81
24.73
24.20
22.52
20.13
17.54
15.22
13.40
12.14
11.33
10.82
10.49
10.28
10.16
10.06
9.91
9.65
9.24
8.65
7.83
6.67
5.01
2.76
-0.04
-3.17
-6.24
-8.93
-11.08
-12.80
-14.39
-16.24
-18.63
-21.60
-24.94
-28.12
-30.45
-31.23
-29.85
-26.05
-19.99
-12.23
-3.68
4.68
12.01
17.75
21.72
23.95
24.64
23.99
22.24
19.66
16.59
13.45
10.64
8.45
6.96
6.05
5.44
4.87
4.21
3.50
2.95
2.71
2.80
3.04
3.10
2.68
1.63
0.03
-1.90
-3.89
-5.81
-7.68
-9.60
-11.74
-14.20
-16.99
-20.00
-23.04
-25.74
-27.58
-27.95
-26.26
-22.26
-16.14
-8.53
-0.42
7.22
13.66
18.53
21.76
23.50
23.89
23.06
21.23
18.69
15.91
13.37
11.42
10.18
9.50
9.08
8.64
8.03
7.26
6.43
5.63
4.88
4.14
3.32
2.30
1.00
-0.63
-2.57
-4.76
-7.04
-9.27
-11.33
-13.22
-15.07
-17.12
-19.55
-22.43
-25.57
-28.54
-30.65
-31.17
-29.48
-25.32
-18.92
-10.98
-2.47
5.60
12.49
17.83
21.57
23.84
24.80
24.56
23.24
21.08
18.40
15.64
13.21
11.37
10.19
9.51
9.12
8.80
8.49
8.22
8.09
8.15
8.32
8.39
8.13
7.32
5.83
3.65
0.93
-2.08
-5.10
-7.88
-10.34
-12.54
-14.74
-17.23
-20.17
-23.50
-26.85
-29.62
-31.09
-30.62
-27.82
-22.70
-15.73
-7.74
0.29
7.50
13.34
17.64
20.49
22.07
22.49
21.82
20.16
17.74
14.95
12.30
10.15
8.67
7.79
7.28
6.89
6.52
6.21
6.05
6.10
6.24
6.21
5.72
4.56
2.76
0.53
-1.84
-4.10
-6.21
-8.37
-10.91
-14.18
-18.36
-23.38
-28.84
-34.06
-38.11
-40.03
-39.03
-34.70
-27.24
-17.43
-6.47
4.32
13.86
21.47
26.94
30.39
32.12
32.43
31.58
29.83
27.48
24.87
22.35
20.23
18.68
17.71
17.15
16.80
16.40
15.77
14.83
13.59
12.09
10.44
8.72
7.01
5.38
3.87
2.49
1.18
-0.17
-1.72
-3.68
-6.22
-9.47
-13.41
-17.85
-22.38
-26.40
-29.21
-30.17
-28.84
-25.14
-19.38
-12.26
-4.70
2.35
8.08
11.98
13.88
13.95
12.58
10.24
7.42
4.52
1.80
-0.57
-2.51
-3.96
-4.92
-5.40
-5.46
-5.19
-4.70
-4.12
-3.55
-3.10
-2.92
-3.12
-3.80
-4.96
-6.50
-8.25
-9.98
-11.60
-13.09
-14.60
-16.36
-18.56
-21.30
-24.48
-27.82
-30.78
-32.70
-32.89
-30.85
-26.39
-19.75
-11.57
-2.71
5.90
13.49
19.49
23.59
25.70
25.97
24.69
22.31
19.33
16.24
13.43
11.15
9.52
8.48
7.90
7.59
7.39
7.20
6.98
6.71
6.35
5.83
4.99
3.74
2.06
0.06
-2.08
-4.17
-6.14
-8.04
-10.04
-12.32
-14.99
-17.95
-20.93
-23.45
-24.93
-24.82
-22.73
-18.60
-12.74
-5.82
1.30
7.77
12.97
16.62
18.76
19.63
19.52
18.66
17.26
15.50
13.60
11.79
10.31
9.27
8.67
8.42
8.36
8.38
8.43
8.49
8.51
8.37
7.88
6.85
5.20
2.96
0.35
-2.37
-4.95
-7.30
-9.47
-11.68
-14.16
-17.12
-20.61
-24.42
-28.04
-30.78
-31.85
-30.63
-26.84
-20.71
-12.89
-4.29
4.14
11.62
17.71
22.20
25.11
26.56
26.71
25.74
23.95
21.71
19.44
17.48
16.03
15.10
14.53
14.07
13.56
12.99
12.48
12.18
12.16
12.26
12.16
11.44
9.82
7.23
3.91
0.32
-3.04
-5.82
-7.95
-9.64
-11.28
-13.30
-15.99
-19.38
-23.22
-27.00
-29.98
-31.38
-30.57
-27.23
-21.49
-13.97
-5.62
2.57
9.79
15.55
19.73
22.37
23.59
23.45
22.08
19.76
16.95
14.23
12.10
10.80
10.22
10.05
9.94
9.72
9.43
9.20
9.14
9.18
9.11
8.62
7.52
5.81
3.66
1.35
-0.86
-2.84
-4.60
-6.31
-8.18
-10.42
-13.16
-16.38
-19.86
-23.16
-25.66
-26.68
-25.66
-22.34
-16.90
-9.93
-2.29
5.13
11.65
16.89
20.68
23.02
23.89
23.33
21.51
18.75
15.57
12.56
10.15
8.54
7.65
7.21
6.92
6.60
6.24
5.92
5.79
5.93
6.26
6.61
6.69
6.27
5.22
3.58
1.55
-0.62
-2.78
-4.89
-7.07
-9.51
-12.41
-15.80
-19.50
-23.07
-25.89
-27.22
-26.49
-23.37
-18.00
-10.94
-3.05
4.72
11.54
16.88
20.53
22.49
22.93
22.07
20.18
17.62
14.84
12.29
10.34
9.14
8.55
8.26
7.90
7.27
6.40
5.50
4.78
4.37
4.16
3.91
3.31
2.17
0.44
-1.77
-4.28
-6.85
-9.28
-11.47
-13.42
-15.25
-17.20
-19.53
-22.39
-25.70
-29.07
-31.88
-33.35
-32.81
-29.88
-24.59
-17.43
-9.16
-0.68
7.23
13.95
19.15
22.68
24.57
24.93
23.94
21.89
19.18
16.24
13.54
11.40
10.01
9.34
9.25
9.50
9.81
9.96
9.84
9.45
8.88
8.22
7.51
6.66
5.51
3.87
1.65
-1.08
-4.11
-7.14
-9.91
-12.29
-14.28
-16.02
-17.67
-19.43
-21.46
-23.85
-26.57
-29.39
-31.82
-33.18
-32.70
-29.76
-24.15
-16.23
-6.87
2.71
11.31
18.06
22.55
24.84
25.29
24.38
22.57
20.21
17.60
15.00
12.67
10.78
9.45
8.66
8.29
8.17
8.13
8.07
7.90
7.58
7.08
6.35
5.34
3.97
2.23
0.13
-2.24
-4.65
-6.87
-8.69
-10.08
-11.21
-12.43
-14.12
-16.51
-19.52
-22.70
-25.35
-26.69
-26.06
-23.19
-18.24
-11.73
-4.47
2.71
9.14
14.39
18.28
20.80
21.99
21.96
20.82
18.81
16.27
13.57
11.09
9.02
7.39
6.14
5.15
4.38
3.86
3.62
3.65
3.82
3.95
3.83
3.27
2.15
0.46
-1.75
-4.28
-6.87
-9.27
-11.29
-12.95
-14.48
-16.19
-18.39
-21.17
-24.36
-27.52
-30.06
-31.30
-30.64
-27.68
-22.33
-14.95
-6.30
2.57
10.64
17.14
21.67
24.24
25.07
24.49
22.84
20.48
17.81
15.24
13.05
11.39
10.15
9.18
8.30
7.49
6.77
6.25
5.96
5.90
5.99
6.08
5.96
5.35
3.99
1.77
-1.22
-4.58
-7.81
-10.46
-12.37
-13.72
-14.95
-16.56
-18.90
-21.99
-25.52
-28.92
-31.41
-32.25
-30.86
-27.00
-20.84
-12.96
-4.22
4.41
12.02
17.97
21.92
23.85
23.99
22.74
20.59
17.98
15.33
12.91
10.89
9.37
8.32
7.63
7.16
6.78
6.40
6.01
5.65
5.36
5.09
4.75
4.12
3.03
1.37
-0.82
-3.31
-5.76
-7.88
-9.50
-10.73
-11.93
-13.61
-16.21
-19.86
-24.22
-28.53
-31.74
-32.88
-31.33
-27.08
-20.80
-13.75
-7.43
-3.14
-1.56
-2.55
-5.21
-8.19
-10.14
-10.11
-7.75
-3.26
2.79
9.70
16.75
23.30
28.76
32.61
34.50
34.30
32.21
28.73
24.56
20.42
16.86
14.09
12.03
10.44
9.06
7.79
6.72
6.00
5.76
5.92
6.22
6.29
5.83
4.67
2.85
0.53
-2.03
-4.64
-7.13
-9.38
-11.32
-12.94
-14.26
-15.42
-16.60
-17.98
-19.57
-21.18
-22.36
-22.52
-21.08
-17.72
-12.49
-5.88
1.32
8.21
14.05
18.41
21.20
22.58
22.81
22.10
20.62
18.54
16.10
13.64
11.57
10.20
9.58
9.53
9.66
9.59
9.10
8.19
6.99
5.74
4.55
3.45
2.39
1.27
0.02
-1.37
-2.91
-4.55
-6.24
-7.89
-9.46
-10.98
-12.53
-14.23
-16.13
-18.12
-19.92
-21.08
-21.12
-19.65
-16.47
-11.63
-5.37
1.85
9.38
16.49
22.47
26.78
29.19
29.79
28.94
27.07
24.58
21.76
18.82
15.92
13.26
10.99
9.20
7.84
6.74
5.65
4.36
2.78
0.94
-1.02
-2.97
-4.81
-6.49
-8.01
-9.39
-10.68
-11.96
-13.31
-14.85
-16.61
-18.57
-20.57
-22.38
-23.72
-24.33
-24.01
-22.70
-20.44
-17.42
-13.87
-10.10
-6.42
-3.13
-0.47
1.39
2.37
2.54
2.06
1.18
0.18
-0.73
-1.43
-1.90
-2.25
-2.59
-3.03
-3.60
-4.29
-5.05
-5.80
-6.55
-7.30
-8.13
-9.08
-10.17
-11.32
-12.43
-13.36
-14.11
-14.81
-15.71
-17.11
-19.14
-21.74
-24.57
-27.12
-28.73
-28.83
-26.94
-22.82
-16.60
-8.75
-0.09
8.38
15.70
21.20
24.64
26.20
26.32
25.50
24.13
22.44
20.53
18.49
16.43
14.56
13.06
12.06
11.55
11.35
11.24
10.97
10.39
9.46
8.18
6.61
4.73
2.56
0.11
-2.52
-5.20
-7.78
-10.15
-12.24
-14.13
-15.91
-17.73
-19.65
-21.67
-23.62
-25.21
-26.11
-25.97
-24.51
-21.61
-17.36
-12.06
-6.26
-0.56
4.46
8.39
11.10
12.71
13.44
13.56
13.23
12.57
11.68
10.80
10.20
10.13
10.66
11.63
12.72
13.56
13.92
13.76
13.17
12.27
11.09
9.62
7.85
5.86
3.81
1.84
0.01
-1.81
-3.87
-6.34
-9.27
-12.46
-15.53
-18.03
-19.51
-19.58
-17.98
-14.60
-9.58
-3.33
3.46
9.98
15.50
19.51
21.84
22.64
22.23
20.99
19.26
17.30
15.31
13.47
11.87
10.59
9.59
8.79
8.08
7.42
6.82
6.35
6.04
5.81
5.50
4.88
3.77
2.14
0.12
-2.04
-4.09
-5.89
-7.44
-8.87
-10.35
-12.03
-13.96
-16.05
-18.06
-19.65
-20.39
-19.84
-17.71
-13.94
-8.76
-2.68
3.61
9.42
14.19
17.62
19.65
20.48
20.35
19.58
18.39
16.97
15.45
13.91
12.45
11.14
10.02
9.11
8.43
7.94
7.59
7.32
7.02
6.62
6.04
5.25
4.27
3.15
1.99
0.85
-0.21
-1.23
-2.26
-3.39
-4.71
-6.20
-7.70
-8.95
-9.64
-9.50
-8.39
-6.38
-3.71
-0.67
2.41
5.27
7.75
9.68
10.95
11.43
11.07
9.91
8.15
6.06
3.95
2.04
0.50
-0.63
-1.34
-1.67
-1.68
-1.45
-1.08
-0.66
-0.29
-0.02
0.10
-0.01
-0.44
-1.21
-2.32
-3.64
-5.00
-6.27
-7.40
-8.45
-9.58
-10.89
-12.35
-13.76
-14.78
-15.08
-14.41
-12.71
-10.10
-6.83
-3.23
0.38
3.72
6.54
8.67
10.00
10.52
10.32
9.60
8.55
7.39
6.27
5.30
4.58
4.13
3.95
4.00
4.16
4.32
4.38
4.35
4.22
4.02
3.75
3.36
2.74
1.83
0.65
-0.69
-2.02
-3.26
-4.45
-5.80
-7.51
-9.65
-11.98
-13.95
-14.88
-14.30
-12.10
-8.65
-4.60
-0.62
2.81
5.47
7.36
8.48
8.84
8.41
7.28
5.63
3.74
1.89
0.21
-1.29
-2.65
-3.91
-5.03
-5.91
-6.45
-6.68
-6.66
-6.55
-6.47
-6.51
-6.66
-6.86
-6.99
-6.92
-6.58
-6.06
-5.56
-5.40
-5.84
-6.90
-8.35
-9.74
-10.54
-10.38
-9.10
-6.81
-3.79
-0.35
3.16
6.43
9.15
11.09
12.10
12.19
11.52
10.33
8.92
7.48
6.15
4.94
3.82
2.77
1.77
0.87
0.10
-0.54
-1.08
-1.60
-2.20
-2.93
-3.76
-4.57
-5.21
-5.54
-5.55
-5.35
-5.19
-5.36
-6.02
-7.20
-8.70
-10.15
-11.09
-11.11
-9.95
-7.61
-4.34
-0.58
3.15
6.41
8.92
10.64
11.67
12.11
12.05
11.42
10.20
8.37
6.06
3.48
0.87
-1.61
-3.86
-5.86
-7.59
-8.95
-9.80
-9.98
-9.43
-8.24
-6.61
-4.82
-3.11
-1.65
-0.49
0.32
0.70
0.52
-0.35
-1.93
-4.03
-6.25
-8.05
-8.90
-8.49
-6.82
-4.13
-0.87
2.49
5.57
8.14
10.06
11.32
11.91
11.85
11.21
10.12
8.77
7.39
6.16
5.12
4.17
3.11
1.76
0.09
-1.83
-3.86
-5.88
-7.91
-10.19
-12.99
-16.49
-20.54
-24.73
-28.57
-31.68
-33.98
-35.73
-37.45
-39.70
-42.86
-46.87
-51.30
-55.60
-58.99
-60.46
-58.97
-53.73
-44.60
-32.14
-17.53
-2.25
11.78
23.15
31.46
37.28
41.60
45.24
48.52
51.31
53.17
52.86
49.53
43.23
35.04
26.30
18.05
10.81
4.57
-1.12
-7.99
-17.55
-30.25
-45.14
-60.64
-75.42
-88.64
-99.73
-101.68
-89.78
-64.26
-30.85
2.66
29.55
45.53
49.51
43.80
33.40
23.10
16.48
14.31
16.13
20.49
25.76
31.02
36.28
42.09
48.08
53.61
58.22
62.10
65.81
68.97
71.19
71.78
69.99
64.85
56.21
45.17
34.10
25.45
20.65
19.71
21.08
22.47
21.53
16.91
8.67
-1.97
-13.56
-25.21
-36.68
-48.24
-60.03
-71.86
-83.15
-93.21
-101.38
-107.28
-110.75
-111.57
-109.55
-104.55
-96.83
-87.20
-76.82
-66.51
-56.72
-47.54
-38.94
-31.20
-24.38
-18.64
-14.19
-11.04
-8.42
-5.33
-0.98
5.01
12.03
19.84
27.93
35.43
41.63
47.12
53.01
60.30
69.18
78.11
86.11
92.20
95.55
96.09
95.49
95.67
97.95
102.52
107.91
114.10
121.54
130.26
132.50
122.53
99.63
69.37
46.21
32.07
25.80
25.72
27.54
28.95
29.53
29.24
27.90
24.77
18.04
7.88
-4.69
-18.70
-33.10
-46.35
-57.17
-64.78
-69.07
-71.19
-71.43
-70.16
-68.34
-66.87
-66.00
-65.46
-64.65
-63.13
-61.31
-59.37
-57.80
-57.41
-58.76
-61.71
-65.50
-69.05
-71.40
-72.12
-70.80
-67.33
-61.89
-54.82
-46.57
-37.82
-29.42
-22.33
-17.38
-14.77
-14.07
-14.33
-14.43
-13.45
-10.94
-6.95
-1.81
4.09
10.50
17.42
24.95
33.13
41.80
50.59
59.05
66.82
73.66
79.38
83.72
86.33
86.76
84.78
80.51
74.61
68.10
62.01
56.91
52.80
49.22
45.69
42.18
39.18
37.70
38.87
43.38
51.16
61.31
72.48
83.22
92.40
99.03
102.51
102.60
99.28
92.71
83.27
71.64
58.71
45.31
31.39
16.73
1.23
-14.90
-31.21
-47.14
-62.21
-76.17
-89.20
-102.64
-117.36
-133.19
-148.96
-163.06
-174.11
-181.32
-184.49
-183.94
-181.21
-177.15
-171.52
-163.49
-152.53
-138.79
-122.83
-105.05
-79.38
-44.35
-3.87
34.44
64.20
82.99
91.88
93.82
92.09
90.08
87.10
81.99
74.39
65.31
56.58
50.10
47.10
47.65
50.44
52.60
51.87
47.59
40.69
32.88
25.42
18.61
11.82
4.11
-5.65
-17.28
-29.38
-39.99
-47.49
-51.07
-50.74
-47.00
-40.65
-32.99
-25.19
-18.20
-12.58
-8.48
-5.61
-3.34
-0.85
2.67
7.67
14.30
22.35
31.20
39.83
47.05
51.79
53.44
52.07
48.25
42.85
36.72
30.50
24.53
19.01
13.99
9.47
5.31
1.27
-2.98
-7.65
-12.64
-17.42
-21.08
-22.65
-21.47
-17.47
-11.29
-4.16
2.50
7.42
9.87
9.68
7.22
3.10
-1.94
-7.31
-12.57
-17.54
-22.23
-26.82
-31.43
-36.02
-40.15
-43.07
-43.85
-41.75
-36.44
-28.12
-17.51
-5.53
6.83
18.70
29.34
38.12
44.47
47.96
48.37
45.76
40.70
34.29
28.21
24.39
24.55
29.63
39.40
52.50
66.87
80.39
91.44
99.21
103.60
104.99
103.95
101.10
97.01
92.11
86.60
80.32
72.71
62.96
50.27
34.17
14.80
-7.12
-30.28
-52.98
-73.51
-90.42
-102.94
-111.03
-115.41
-117.16
-117.40
-116.89
-115.97
-114.59
-112.53
-109.56
-105.49
-100.14
-93.33
-84.95
-75.09
-64.10
-52.61
-41.25
-30.48
-20.46
-11.17
-2.62
5.01
11.37
16.17
19.39
21.37
22.73
24.01
25.39
26.62
27.09
26.23
23.75
19.82
14.94
9.74
4.68
-0.04
-4.54
-9.09
-13.93
-19.11
-24.39
-29.27
-33.03
-34.95
-34.47
-31.39
-25.85
-18.33
-9.45
0.22
10.16
19.94
29.09
37.06
43.28
47.31
49.04
48.68
46.79
44.06
41.12
38.39
36.08
34.15
32.49
30.99
29.60
28.40
27.50
27.01
26.90
27.06
27.26
27.29
26.97
26.27
25.18
23.78
22.12
20.28
18.46
16.91
15.93
15.69
16.03
16.39
16.06
14.42
11.36
7.43
3.67
1.27
1.18
3.89
9.31
16.91
25.89
35.26
43.99
50.96
55.19
55.87
52.61
45.54
35.27
22.90
9.70
-3.13
-14.75
-24.80
-33.35
-40.74
-47.29
-53.10
-58.10
-62.20
-65.49
-68.25
-70.86
-73.55
-76.28
-78.66
-80.12
-80.15
-78.51
-75.35
-71.19
-66.83
-63.16
-60.96
-60.75
-62.61
-66.05
-70.02
-73.03
-73.48
-70.05
-62.03
-49.59
-33.70
-15.94
1.86
18.05
31.35
41.06
46.97
49.32
48.70
45.88
41.72
37.00
32.27
27.85
23.80
20.04
16.50
13.14
9.98
7.01
4.15
1.25
-1.93
-5.69
-10.32
-16.07
-23.13
-31.50
-40.94
-50.94
-60.78
-69.70
-77.24
-83.39
-88.64
-93.76
-99.36
-105.46
-111.29
-115.35
-115.96
-111.79
-102.25
-87.65
-68.93
-47.43
-24.58
-1.79
19.71
38.89
55.11
68.15
78.19
85.55
90.57
93.42
94.25
93.25
90.81
87.46
83.69
79.80
75.93
72.04
68.16
64.39
60.92
57.85
55.11
52.43
49.44
45.88
41.68
37.07
32.43
28.08
24.10
20.22
15.99
10.96
5.02
-1.38
-7.23
-11.19
-12.01
-8.88
-1.75
8.75
21.41
34.82
47.57
58.49
66.69
71.58
72.93
71.01
66.70
61.26
55.95
51.51
47.88
44.23
39.41
32.53
23.37
12.49
0.92
-10.20
-20.00
-27.97
-33.98
-38.18
-40.97
-42.93
-44.70
-46.79
-49.39
-52.34
-55.23
-57.69
-59.51
-60.79
-61.86
-63.17
-65.16
-67.98
-71.36
-74.53
-76.26
-75.18
-70.17
-60.78
-47.43
-31.29
-13.98
2.94
18.26
31.31
41.83
49.87
55.48
58.72
59.55
58.05
54.49
49.36
43.36
37.17
31.28
25.93
21.16
16.93
13.27
10.28
8.00
6.39
5.17
3.97
2.45
0.36
-2.36
-5.65
-9.36
-13.34
-17.34
-21.21
-24.85
-28.32
-31.87
-35.86
-40.59
-46.17
-52.32
-58.35
-63.27
-65.91
-65.29
-60.88
-52.84
-41.96
-29.49
-16.81
-5.06
5.06
13.31
19.76
24.68
28.32
30.93
32.69
33.74
34.25
34.38
34.30
34.19
34.22
34.55
35.28
36.43
37.90
39.47
40.91
42.00
42.56
42.38
41.26
39.01
35.55
31.03
25.82
20.48
15.49
11.05
6.92
2.51
-2.77
-9.22
-16.50
-23.70
-29.56
-32.84
-32.79
-29.33
-23.07
-15.12
-6.70
1.10
7.49
12.01
14.39
14.49
12.29
7.99
1.99
-5.05
-12.35
-19.20
-25.03
-29.54
-32.62
-34.32
-34.74
-34.02
-32.28
-29.69
-26.50
-23.09
-19.99
-17.77
-16.84
-17.36
-19.11
-21.66
-24.48
-27.12
-29.29
-30.83
-31.74
-32.26
-32.85
-34.10
-36.40
-39.55
-42.60
-44.10
-42.65
-37.61
-29.37
-19.30
-9.07
-0.01
7.25
12.67
16.37
18.27
17.97
15.05
9.45
1.69
-7.17
-15.90
-23.50
-29.51
-33.95
-37.17
-39.57
-41.46
-42.91
-43.80
-43.73
-42.23
-38.82
-33.18
-25.35
-15.82
-5.34
5.32
15.77
26.11
36.65
47.62
58.98
70.35
81.11
90.74
99.13
106.67
114.16
122.13
130.70
139.57
148.14
155.65
161.31
164.61
165.39
163.87
160.05
153.84
145.27
134.70
122.64
109.62
96.17
82.65
69.30
55.66
41.01
25.12
8.45
-8.10
-23.70
-37.84
-51.66
-64.26
-74.21
-81.68
-87.98
-94.00
-99.07
-102.85
-105.43
-107.28
-108.74
-110.25
-111.84
-112.72
-111.56
-107.17
-99.11
-87.67
-73.63
-57.88
-41.55
-25.72
-11.15
1.69
12.38
20.49
25.84
28.61
29.39
28.72
27.04
24.84
22.57
20.70
19.50
19.10
19.40
20.13
20.76
20.77
19.90
18.22
16.03
13.61
11.11
8.52
5.68
2.39
-1.57
-6.32
-11.93
-18.37
-25.55
-33.11
-40.35
-46.24
-49.63
-49.66
-46.05
-39.23
-30.33
-20.84
-12.23
-5.58
-1.36
0.50
0.45
-0.86
-2.82
-4.99
-7.19
-9.53
-12.20
-15.32
-18.81
-22.45
-25.92
-28.94
-31.35
-33.24
-34.80
-36.20
-37.45
-38.59
-39.85
-41.46
-43.32
-45.01
-46.02
-45.98
-44.92
-43.27
-41.78
-41.26
-41.84
-42.37
-41.11
-36.69
-28.95
-19.01
-8.54
0.83
8.01
13.26
18.36
25.50
36.13
50.26
66.66
83.74
99.96
114.16
122.99
124.14
118.16
108.58
98.98
90.68
83.13
77.18
71.30
64.96
58.74
53.27
48.66
44.54
39.57
34.00
28.54
23.34
18.16
12.49
5.84
-1.91
-10.32
-18.39
-24.68
-28.19
-28.85
-26.84
-22.19
-14.80
-4.74
7.16
19.21
29.13
34.50
33.51
26.07
13.99
0.23
-12.31
-22.08
-29.35
-35.74
-43.23
-53.15
-65.35
-78.50
-90.60
-99.62
-103.80
-101.91
-93.58
-79.80
-63.14
-47.02
-34.48
-26.75
-22.68
-19.39
-13.89
-4.72
7.47
20.60
32.66
42.85
51.69
60.02
67.90
74.07
76.56
73.78
65.57
53.44
40.02
27.86
18.49
11.96
7.17
2.65
-2.58
-8.59
-14.58
-19.46
-22.39
-23.19
-22.29
-20.43
-18.27
-16.18
-14.23
-12.35
-10.43
-8.48
-6.58
-4.82
-3.29
-2.02
-1.01
-0.26
0.13
0.01
-0.81
-2.40
-4.53
-6.55
-7.48
-6.30
-2.32
4.50
13.50
23.55
33.35
41.84
48.31
52.48
54.33
54.02
51.83
48.10
43.20
37.50
31.30
24.89
18.49
12.30
6.55
1.42
-2.94
-6.49
-9.30
-11.58
-13.61
-15.69
-18.06
-20.76
-23.68
-26.58
-29.23
-31.57
-33.73
-35.91
-38.30
-40.92
-43.61
-46.13
-48.27
-50.04
-51.58
-53.15
-54.98
-57.25
-60.02
-63.22
-66.51
-69.24
-70.51
-69.39
-65.33
-58.47
-49.60
-39.88
-30.28
-21.17
-12.28
-3.05
6.88
17.26
27.23
35.64
41.41
43.91
43.07
39.46
34.21
28.94
25.41
25.13
28.78
35.88
44.91
53.80
60.68
64.45
65.00
62.92
59.10
54.33
49.17
43.98
39.05
34.59
30.61
26.78
22.50
17.01
9.70
0.41
-10.43
-22.00
-33.38
-43.93
-53.38
-61.80
-69.38
-76.27
-82.48
-87.81
-91.87
-94.03
-93.45
-89.14
-80.39
-67.09
-50.09
-31.12
-12.33
4.33
17.71
27.64
34.63
39.45
42.65
44.41
44.69
43.54
41.25
38.35
35.35
32.50
29.66
26.48
22.72
18.46
14.18
10.53
7.95
6.40
5.44
4.38
2.71
0.32
-2.54
-5.40
-7.86
-9.68
-10.83
-11.34
-11.16
-10.21
-8.48
-6.12
-3.57
-1.43
-0.29
-0.53
-2.19
-5.08
-8.86
-13.22
-17.81
-22.14
-25.58
-27.35
-26.77
-23.45
-17.51
-9.47
-0.14
9.68
19.31
28.22
36.02
42.35
46.89
49.40
49.87
48.49
45.74
42.18
38.37
34.68
31.30
28.25
25.51
23.16
21.34
20.19
19.68
19.48
19.08
17.94
15.77
12.63
8.90
5.10
1.60
-1.42
-4.09
-6.71
-9.54
-12.80
-16.51
-20.60
-24.86
-29.08
-33.02
-36.52
-39.47
-41.93
-44.11
-46.33
-48.91
-52.00
-55.39
-58.50
-60.37
-59.98
-56.53
-49.80
-40.23
-28.80
-16.74
-5.15
5.18
13.86
20.80
26.03
29.55
31.38
31.61
30.51
28.56
26.36
24.40
22.99
22.13
21.64
21.32
21.03
20.80
20.73
20.86
21.13
21.31
21.17
20.49
19.23
17.46
15.30
12.91
10.36
7.69
4.96
2.21
-0.50
-3.20
-5.92
-8.76
-11.77
-14.94
-18.18
-21.40
-24.51
-27.45
-30.25
-32.94
-35.67
-38.62
-41.98
-45.78
-49.75
-53.23
-55.23
-54.74
-51.04
-44.02
-34.19
-22.59
-10.40
1.33
11.87
20.83
28.05
33.42
36.84
38.25
37.75
35.68
32.56
28.97
25.31
21.68
17.90
13.79
9.30
4.72
0.59
-2.56
-4.44
-5.13
-5.04
-4.67
-4.33
-4.10
-3.86
-3.42
-2.72
-1.88
-1.11
-0.62
-0.56
-0.97
-1.88
-3.30
-5.25
-7.72
-10.59
-13.70
-16.90
-20.11
-23.42
-27.05
-31.24
-36.23
-42.12
-48.79
-55.85
-62.61
-68.14
-71.41
-71.63
-68.47
-62.14
-53.38
-43.12
-32.28
-21.61
-11.67
-2.88
4.40
9.97
13.92
16.60
18.69
20.90
23.76
27.49
31.98
36.87
41.75
46.22
49.97
52.76
54.51
55.30
55.35
54.93
54.19
53.06
51.24
48.36
44.15
38.60
31.97
24.70
17.32
10.27
3.87
-1.83
-6.95
-11.58
-15.72
-19.11
-21.42
-22.47
-22.39
-21.66
-20.95
-20.78
-21.34
-22.33
-23.13
-22.96
-21.16
-17.31
-11.37
-3.68
5.11
14.18
22.73
30.13
35.92
39.81
41.54
40.95
38.16
33.68
28.37
23.23
18.98
15.85
13.52
11.37
8.84
5.65
1.94
-1.93
-5.59
-8.80
-11.49
-13.76
-15.69
-17.31
-18.65
-19.72
-20.61
-21.41
-22.17
-22.74
-22.77
-21.69
-18.99
-14.50
-8.61
-2.23
3.49
7.72
10.31
11.92
13.74
16.95
22.18
29.26
37.39
45.52
52.80
58.78
63.31
66.34
67.73
67.24
64.70
60.20
54.17
47.31
40.40
34.03
28.51
23.86
19.89
16.39
13.22
10.33
7.76
5.52
3.55
1.70
-0.31
-2.75
-5.81
-9.49
-13.60
-17.79
-21.70
-25.04
-27.76
-30.02
-32.11
-34.41
-37.22
-40.69
-44.65
-48.61
-51.74
-53.10
-51.90
-47.77
-40.95
-32.23
-22.64
-13.10
-4.17
3.95
11.28
17.71
22.97
26.64
28.44
28.41
26.99
24.84
22.60
20.66
19.11
17.91
16.99
16.44
16.35
16.67
17.06
16.92
15.51
12.36
7.41
1.20
-5.39
-11.44
-16.43
-20.31
-23.51
-26.61
-30.06
-34.03
-38.38
-42.76
-46.68
-49.52
-50.56
-49.02
-44.27
-36.10
-24.97
-11.99
1.32
13.43
23.20
30.11
34.20
35.88
35.72
34.16
31.57
28.20
24.37
20.42
16.72
13.52
10.91
8.77
6.87
4.97
2.89
0.57
-2.03
-4.90
-8.03
-11.38
-14.87
-18.36
-21.72
-24.87
-27.81
-30.72
-33.80
-37.18
-40.81
-44.34
-47.11
-48.34
-47.28
-43.47
-36.90
-27.98
-17.45
-6.18
5.02
15.48
24.71
32.38
38.28
42.34
44.65
45.40
44.88
43.41
41.36
39.08
36.86
34.91
33.28
31.82
30.32
28.55
26.39
23.86
21.10
18.19
15.12
11.74
7.91
3.61
-1.05
-5.80
-10.35
-14.56
-18.44
-22.21
-26.10
-30.26
-34.61
-38.75
-42.00
-43.52
-42.53
-38.53
-31.51
-21.97
-10.83
0.81
11.97
21.93
30.32
36.96
41.77
44.61
45.36
43.97
40.65
35.86
30.22
24.33
18.56
12.93
7.20
0.99
-6.02
-13.97
-22.80
-32.25
-42.00
-51.72
-61.11
-69.97
-78.20
-85.74
-92.55
-98.48
-103.20
-106.29
-107.35
-106.16
-102.82
-97.76
-91.54
-84.68
-77.52
-70.06
-61.97
-52.66
-41.40
-27.50
-10.54
9.44
31.81
55.32
78.45
99.64
117.70
132.05
142.62
149.78
154.04
155.81
155.25
152.13
145.88
135.82
121.48
102.95
81.05
57.24
33.25
10.69
-9.25
-25.88
-38.97
-48.72
-55.78
-61.35
-66.98
-74.20
-84.03
-96.51
-110.75
-125.32
-138.88
-150.58
-160.10
-167.47
-172.66
-175.46
-175.62
-173.07
-168.08
-161.25
-153.22
-144.23
-133.92
-121.30
-105.22
-84.87
-60.37
-32.86
-4.20
23.61
49.11
71.69
91.45
108.77
123.76
136.12
145.22
150.55
152.05
150.23
146.03
140.41
134.08
127.36
120.28
112.83
105.29
98.33
93.05
90.60
91.85
96.99
105.31
115.30
125.10
132.93
137.55
138.39
135.46
129.06
119.55
107.28
92.71
76.46
59.36
42.26
25.88
10.70
-3.00
-15.00
-25.03
-32.75
-37.85
-40.09
-39.46
-36.13
-30.48
-23.13
-14.97
-7.18
-1.06
2.27
2.19
-1.23
-7.30
-14.87
-22.71
-29.69
-34.96
-37.93
-38.22
-35.70
-30.51
-23.10
-14.24
-4.94
3.78
11.05
16.31
19.38
20.40
19.78
18.05
15.79
13.55
11.69
10.46
9.87
9.81
10.00
10.10
9.75
8.69
6.78
4.09
0.89
-2.40
-5.35
-7.63
-9.07
-9.68
-9.55
-8.75
-7.31
-5.15
-2.17
1.66
6.21
11.13
15.94
20.09
23.16
24.90
25.38
24.83
23.53
21.65
19.22
16.24
12.88
9.42
6.27
3.79
2.20
1.38
0.96
0.55
-0.06
-0.77
-1.53
-2.53
-4.22
-7.19
-11.89
-18.45
-26.47
-35.20
-43.71
-51.53
-58.82
-66.05
-73.51
-81.06
-87.98
-93.13
-95.24
-93.13
-86.46
-75.75
-61.95
-45.98
-28.50
-10.56
5.61
17.66
25.07
28.93
30.83
32.02
33.16
34.39
35.28
36.44
37.00
36.38
33.97
29.19
21.74
11.76
-0.20
-13.58
-27.99
-42.92
-56.25
-65.87
-70.71
-71.14
-68.29
-63.18
-56.55
-48.96
-41.09
-33.69
-27.78
-24.31
-23.58
-25.55
-29.01
-32.74
-35.73
-37.37
-37.22
-35.20
-31.54
-26.65
-21.03
-15.12
-9.27
-3.59
2.12
8.05
14.37
21.10
27.98
34.58
40.49
45.59
49.95
53.52
56.05
56.99
55.69
51.65
44.76
35.56
25.38
15.68
7.47
1.04
-4.03
-8.64
-13.79
-20.39
-28.78
-38.04
-46.60
-52.77
-55.14
-52.71
-44.91
-30.95
-12.02
8.41
26.83
40.93
49.97
54.12
53.99
50.38
44.14
37.63
30.68
23.80
17.70
12.90
9.55
7.43
6.16
5.35
4.71
3.47
2.15
1.51
2.01
3.67
6.12
8.79
11.09
12.42
12.26
10.88
8.85
6.94
5.87
6.14
7.72
10.02
11.97
12.47
11.25
8.76
6.05
4.30
4.40
6.61
10.54
15.33
19.92
23.59
25.92
26.85
26.68
25.88
24.93
24.16
23.63
23.13
22.39
21.12
19.15
16.42
13.02
9.14
5.02
0.93
-2.84
-6.07
-8.65
-10.56
-11.97
-13.06
-14.09
-15.32
-16.94
-19.05
-21.61
-24.44
-27.24
-29.69
-31.56
-32.78
-33.48
-33.93
-34.50
-35.49
-37.07
-39.20
-41.56
-43.56
-44.45
-43.43
-39.94
-33.85
-25.59
-16.05
-6.36
2.48
9.76
15.16
18.63
20.21
20.01
18.23
15.24
11.58
7.68
3.71
-0.51
-5.24
-10.37
-15.16
-18.45
-19.21
-17.16
-13.05
-8.34
-4.60
-2.85
-3.34
-5.72
-9.50
-14.33
-20.01
-26.30
-32.67
-38.34
-42.63
-45.22
-46.37
-46.81
-47.38
-48.65
-50.62
-52.70
-53.84
-53.01
-49.55
-43.43
-35.18
-25.67
-15.77
-6.13
2.86
10.97
17.95
23.50
27.26
29.05
28.88
27.15
24.57
22.03
20.37
20.14
21.40
23.76
26.43
28.59
29.55
29.00
26.99
23.82
19.92
15.73
11.67
8.13
5.39
3.55
2.48
1.79
0.93
-0.71
-3.55
-7.81
-13.35
-19.75
-26.22
-31.77
-35.30
-35.84
-32.84
-26.33
-16.99
-6.03
5.17
15.39
23.88
30.36
34.93
37.82
39.19
39.17
37.85
35.47
32.45
29.29
26.42
24.07
22.20
20.64
19.22
17.90
16.75
15.89
15.34
14.98
14.52
13.68
12.22
10.09
7.43
4.55
1.80
-0.53
-2.33
-3.68
-4.95
-6.58
-8.94
-12.08
-15.50
-18.23
-19.04
-16.86
-11.21
-2.42
8.47
20.07
31.02
40.29
47.36
52.05
54.48
54.83
53.34
50.25
45.77
40.11
33.50
26.25
18.81
11.80
5.96
2.05
0.66
2.04
6.05
12.11
19.41
27.04
34.14
40.04
44.12
45.86
44.82
40.73
33.76
24.63
14.50
4.71
-3.69
-10.20
-15.01
-18.84
-22.53
-26.80
-32.00
-38.15
-45.12
-52.67
-60.46
-67.92
-74.19
-78.18
-78.83
-75.58
-68.65
-59.15
-48.74
-39.13
-31.51
-26.30
-23.14
-21.21
-19.57
-17.54
-14.70
-10.99
-6.50
-1.41
4.07
9.65
14.94
19.43
22.57
23.95
23.45
21.36
18.29
14.95
11.93
9.50
7.63
6.14
4.80
3.54
2.41
1.58
1.27
1.67
2.92
5.04
7.85
11.01
14.01
16.33
17.60
17.69
16.69
14.89
12.56
9.90
6.99
3.87
0.60
-2.71
-5.87
-8.70
-11.06
-12.91
-14.30
-15.34
-16.18
-17.00
-17.90
-18.96
-20.24
-21.72
-23.42
-25.40
-27.75
-30.54
-33.79
-37.39
-41.13
-44.64
-47.46
-49.06
-48.87
-46.43
-41.54
-34.37
-25.48
-15.80
-6.30
2.12
8.98
14.10
17.65
19.89
21.11
21.50
21.25
20.51
19.46
18.29
17.16
16.18
15.49
15.17
15.33
16.04
17.31
19.04
21.07
23.17
25.08
26.52
27.23
26.94
25.45
22.68
18.75
13.91
8.57
3.12
-2.09
-6.87
-11.08
-14.60
-17.22
-18.65
-18.62
-16.95
-13.71
-9.22
-3.99
1.46
6.63
11.17
14.79
17.30
18.56
18.50
17.19
14.89
12.01
9.04
6.40
4.39
3.08
2.38
2.10
2.00
1.88
1.59
1.03
0.15
-1.03
-2.47
-4.09
-5.82
-7.63
-9.48
-11.39
-13.39
-15.54
-17.91
-20.60
-23.70
-27.23
-31.12
-35.04
-38.45
-40.65
-40.89
-38.66
-33.84
-26.80
-18.31
-9.31
-0.73
6.75
12.75
17.13
19.93
21.30
21.47
20.76
19.50
18.03
16.57
15.22
13.96
12.67
11.25
9.69
8.05
6.44
5.03
3.90
3.04
2.35
1.61
0.57
-0.95
-3.03
-5.61
-8.50
-11.46
-14.30
-16.93
-19.41
-21.93
-24.67
-27.66
-30.70
-33.28
-34.67
-34.12
-31.13
-25.61
-17.96
-8.98
0.34
9.10
16.61
22.52
26.69
29.12
29.92
29.28
27.51
25.05
22.44
20.13
18.40
17.28
16.63
16.15
15.67
15.06
14.30
13.44
12.47
11.36
10.06
8.53
6.68
4.35
1.25
-2.90
-8.26
-14.67
-21.71
-28.80
-35.40
-41.24
-46.32
-50.77
-54.58
-57.48
-58.99
-58.60
-56.07
-51.50
-45.33
-38.12
-30.37
-22.45
-14.62
-7.23
-0.69
4.49
7.89
9.31
8.88
7.07
4.50
1.80
-0.51
-2.09
-2.80
-2.62
-1.65
-0.01
2.11
4.49
6.83
8.82
10.15
10.60
10.10
8.80
7.01
5.10
3.32
1.78
0.35
-1.27
-3.45
-6.52
-10.55
-15.29
-20.04
-23.80
-25.39
-23.85
-18.76
-10.42
0.23
11.80
22.92
32.48
39.84
44.77
47.30
47.64
46.10
43.07
39.06
34.67
30.54
27.13
24.67
23.08
22.05
21.18
20.21
19.07
17.93
17.03
16.51
16.26
15.95
15.18
13.60
11.13
7.95
4.39
0.78
-2.70
-6.11
-9.67
-13.65
-18.31
-23.67
-29.47
-35.05
-39.41
-41.39
-39.95
-34.56
-25.44
-13.63
-0.71
11.65
22.06
29.72
34.45
36.45
36.15
34.06
30.77
26.95
23.33
20.52
18.90
18.48
18.95
19.87
20.84
21.65
22.28
22.79
23.21
23.48
23.42
22.87
21.69
19.82
17.27
14.15
10.58
6.78
2.94
-0.75
-4.25
-7.63
-11.08
-14.77
-18.70
-22.50
-25.46
-26.67
-25.30
-20.87
-13.49
-3.85
6.94
17.61
27.08
34.60
39.84
42.79
43.67
42.80
40.55
37.35
33.65
29.87
26.34
23.25
20.61
18.37
16.47
14.90
13.66
12.77
12.14
11.60
10.90
9.84
8.30
6.34
4.10
1.75
-0.61
-2.91
-5.19
-7.53
-10.04
-12.92
-16.37
-20.48
-25.17
-30.04
-34.34
-37.15
-37.64
-35.36
-30.46
-23.63
-15.92
-8.37
-1.81
3.30
6.87
8.98
9.78
9.41
7.94
5.45
2.09
-1.91
-6.27
-10.68
-14.81
-18.28
-20.62
-21.28
-19.74
-15.76
-9.55
-1.88
6.09
13.06
18.05
20.56
20.60
18.53
14.87
10.12
4.81
-0.58
-5.57
-9.78
-13.03
-15.33
-16.87
-17.87
-18.44
-18.49
-17.77
-16.03
-13.09
-9.04
-4.24
0.77
5.37
9.03
11.40
12.37
11.98
10.38
7.75
4.24
0.03
-4.64
-9.49
-14.16
-18.25
-21.41
-23.37
-24.02
-23.49
-22.11
-20.37
-18.74
-17.57
-17.03
-17.11
-17.64
-18.43
-19.29
-20.10
-20.79
-21.44
-22.19
-23.29
-25.00
-27.38
-30.23
-32.93
-34.55
-34.14
-30.98
-24.89
-16.31
-6.19
4.29
14.04
22.26
28.53
32.74
35.01
35.62
34.88
33.15
30.80
28.17
25.56
23.25
21.39
20.09
19.30
18.82
18.37
17.65
16.46
14.74
12.57
10.11
7.47
4.72
1.90
-0.99
-3.89
-6.76
-9.54
-12.26
-15.05
-18.06
-21.33
-24.66
-27.54
-29.22
-28.89
-26.04
-20.63
-13.18
-4.65
3.86
11.41
17.42
21.63
24.10
24.97
24.50
22.95
20.68
18.05
15.45
13.12
11.15
9.50
8.08
6.79
5.63
4.63
3.82
3.16
2.53
1.77
0.70
-0.80
-2.74
-5.07
-7.57
-10.08
-12.45
-14.75
-17.18
-20.06
-23.58
-27.62
-31.68
-34.88
-36.22
-34.91
-30.63
-23.65
-14.78
-5.08
4.41
12.84
19.73
24.82
28.12
29.73
29.85
28.78
26.87
24.46
21.91
19.47
17.27
15.36
13.70
12.24
10.93
9.75
8.67
7.62
6.49
5.14
3.40
1.22
-1.33
-4.06
-6.73
-9.18
-11.37
-13.49
-15.81
-18.59
-21.93
-25.70
-29.54
-32.85
-34.90
-34.94
-32.42
-27.17
-19.49
-10.21
-0.44
8.64
16.18
21.72
25.23
26.97
27.27
26.41
24.63
22.15
19.29
16.39
13.76
11.61
10.00
8.91
8.27
7.96
7.86
7.77
7.46
6.71
5.37
3.44
1.09
-1.46
-4.04
-6.53
-8.98
-11.52
-14.30
-17.41
-20.89
-24.62
-28.23
-31.13
-32.54
-31.66
-28.01
-21.56
-12.90
-3.00
6.96
15.94
23.24
28.54
31.84
33.32
33.24
31.88
29.59
26.72
23.64
20.68
18.08
15.95
14.25
12.85
11.64
10.56
9.62
8.84
8.17
7.42
6.32
4.63
2.25
-0.70
-3.97
-7.28
-10.42
-13.38
-16.24
-19.20
-22.41
-25.89
-29.45
-32.56
-34.49
-34.42
-31.72
-26.18
-18.18
-8.57
1.49
10.87
18.74
24.64
28.50
30.50
30.94
30.12
28.36
25.96
23.22
20.44
17.85
15.54
13.54
11.79
10.24
8.88
7.71
6.69
5.68
4.51
2.95
0.91
-1.56
-4.28
-6.99
-9.48
-11.74
-13.94
-16.40
-19.43
-23.15
-27.44
-31.87
-35.73
-38.12
-38.20
-35.42
-29.74
-21.73
-12.37
-2.93
5.43
11.87
16.17
18.47
19.08
18.29
16.30
13.32
9.61
5.48
1.32
-2.23
-4.75
-6.22
-7.01
-7.56
-8.20
-9.03
-10.07
-11.24
-11.88
-11.57
-10.42
-8.94
-7.70
-7.00
-6.89
-7.34
-8.27
-8.67
-7.82
-5.55
-2.13
2.39
8.44
16.61
27.09
39.52
54.24
70.90
88.26
104.54
118.28
128.70
135.66
139.10
131.79
110.67
78.60
42.99
10.69
-15.07
-34.10
-47.53
-57.06
-64.45
-69.33
-71.30
-70.74
-68.90
-67.18
-66.56
-66.65
-67.18
-67.85
-67.48
-65.33
-61.49
-56.67
-51.61
-46.68
-42.06
-38.05
-34.87
-31.96
-28.61
-24.25
-18.57
-11.48
-3.17
5.84
14.61
22.19
28.17
32.33
34.57
34.81
33.15
29.91
25.66
21.00
16.56
12.98
10.62
9.54
9.42
9.81
10.19
10.21
9.69
8.65
7.30
5.82
4.35
2.90
1.44
0.01
-1.31
-2.41
-3.30
-4.13
-5.13
-6.45
-8.00
-9.36
-9.94
-9.17
-6.76
-2.84
2.13
7.46
12.49
16.72
19.85
21.72
22.28
21.50
19.44
16.26
12.27
7.88
3.56
-0.25
-3.26
-5.36
-6.62
-7.26
-7.52
-7.60
-7.60
-7.51
-7.23
-6.67
-5.83
-4.79
-3.76
-3.03
-2.84
-3.34
-4.47
-5.97
-7.39
-8.26
-8.15
-6.81
-4.13
-0.21
4.74
10.40
16.42
22.48
28.41
34.17
39.70
44.77
48.85
51.15
50.92
47.78
41.91
34.04
25.21
16.45
8.48
1.59
-4.25
-9.14
-13.22
-16.60
-19.33
-21.40
-22.74
-23.22
-22.79
-21.45
-19.27
-16.35
-12.83
-8.92
-4.82
-0.76
3.15
6.79
10.29
14.07
18.67
24.49
31.56
39.41
47.19
53.90
58.20
59.21
56.75
51.30
43.69
34.75
25.19
15.56
6.12
-3.90
-15.23
-27.96
-41.58
-55.25
-68.23
-79.98
-90.17
-98.70
-107.11
-116.58
-127.32
-138.50
-149.02
-158.13
-165.56
-171.24
-175.10
-178.70
-182.79
-186.73
-188.77
-187.36
-182.05
-173.49
-162.83
-140.23
-101.80
-51.18
2.07
48.83
84.63
109.26
124.58
133.10
137.62
138.73
136.66
132.22
126.86
121.87
117.83
114.82
112.89
111.37
108.76
104.18
97.70
90.18
82.58
75.47
69.09
63.49
58.60
53.47
47.37
40.32
33.16
27.05
22.84
20.81
20.64
21.52
22.16
21.53
19.24
15.61
11.23
6.61
2.06
-2.31
-6.47
-10.48
-14.35
-17.93
-21.02
-23.43
-25.07
-25.98
-26.27
-26.11
-25.64
-24.94
-24.05
-22.95
-21.61
-20.10
-18.57
-17.23
-16.27
-15.77
-15.56
-15.29
-14.39
-12.33
-8.77
-3.72
2.37
8.76
14.62
19.29
22.44
24.13
24.60
24.16
22.98
21.10
18.56
15.53
12.37
9.47
7.20
5.65
4.71
4.08
3.49
2.75
1.83
0.75
-0.48
-1.84
-3.35
-4.97
-6.62
-8.20
-9.71
-11.22
-12.80
-14.35
-15.61
-16.17
-15.63
-13.85
-10.96
-7.41
-3.72
-0.42
2.07
3.52
3.87
3.25
2.00
0.40
-1.39
-3.50
-6.34
-10.26
-15.31
-21.01
-26.47
-30.72
-33.09
-33.53
-32.47
-30.61
-28.54
-26.54
-24.64
-22.74
-20.77
-18.80
-16.95
-15.35
-14.10
-13.24
-12.79
-12.73
-12.96
-13.24
-13.22
-12.46
-10.54
-7.22
-2.48
3.40
9.89
16.33
22.03
26.41
29.16
30.25
29.92
28.56
26.57
24.32
22.06
19.99
18.31
17.16
16.63
16.64
16.94
17.22
17.19
16.71
15.79
14.57
13.20
11.78
10.26
8.49
6.38
3.94
1.38
-1.05
-3.12
-4.70
-5.82
-6.74
-7.76
-8.95
-9.97
-10.21
-8.96
-5.81
-0.78
5.64
12.36
18.17
22.18
24.12
24.24
23.11
21.26
19.05
16.69
13.88
10.15
5.23
-0.87
-8.03
-16.19
-25.40
-35.63
-44.58
-49.44
-48.49
-42.45
-34.08
-26.47
-21.72
-20.40
-21.63
-23.47
-24.42
-24.64
-24.45
-24.45
-25.06
-26.18
-27.25
-27.53
-26.11
-22.70
-17.45
-10.47
-1.25
10.54
24.55
38.93
50.89
58.48
60.97
58.92
53.76
47.01
39.79
32.78
27.33
22.99
19.76
17.64
16.47
15.99
15.89
15.83
15.70
15.69
15.16
14.41
13.66
12.92
11.95
10.40
7.96
4.56
0.38
-4.27
-8.67
-12.30
-14.98
-16.81
-18.08
-19.18
-20.51
-22.31
-24.76
-27.51
-30.00
-31.53
-31.39
-29.07
-24.44
-17.77
-9.73
-1.24
6.85
13.81
19.11
22.50
23.99
23.76
22.16
19.57
16.37
12.98
9.77
7.04
4.99
3.64
2.86
2.39
1.94
1.31
0.48
-0.41
-1.16
-1.65
-1.90
-2.15
-2.73
-3.95
-5.91
-8.47
-11.29
-14.00
-16.28
-18.05
-19.43
-20.66
-22.03
-23.76
-25.89
-28.24
-30.40
-31.75
-31.61
-29.37
-24.74
-17.87
-9.35
-0.15
8.68
16.26
22.02
25.76
27.61
27.83
26.75
24.70
22.02
19.09
16.31
14.02
12.45
11.65
11.44
11.51
11.50
11.16
10.48
9.66
8.97
8.62
8.54
8.43
7.87
6.54
4.42
1.82
-0.78
-2.94
-4.46
-5.45
-6.27
-7.36
-9.09
-11.66
-15.04
-18.91
-22.75
-25.87
-27.47
-26.85
-23.61
-17.75
-9.77
-0.56
8.80
17.28
24.13
28.90
31.50
32.11
31.10
28.95
26.22
23.46
21.11
19.48
18.68
18.62
19.02
19.57
20.00
20.14
19.97
19.57
19.00
18.27
17.25
15.77
13.70
11.05
8.03
4.96
2.14
-0.17
-1.89
-3.08
-3.96
-4.81
-5.92
-7.47
-9.51
-11.87
-14.24
-16.26
-17.53
-17.78
-16.79
-14.51
-10.99
-6.47
-1.28
4.13
9.34
13.95
17.65
20.11
21.04
20.25
17.79
13.99
9.48
4.95
1.00
-1.95
-3.67
-4.00
-2.75
0.26
5.03
11.31
18.50
25.81
32.38
37.39
40.17
40.20
37.33
31.87
24.65
16.80
9.30
2.60
-3.47
-9.47
-15.75
-22.07
-27.43
-30.46
-30.02
-25.69
-17.95
-8.02
2.57
12.42
20.44
26.02
29.10
30.08
29.75
28.98
28.43
28.27
28.24
27.81
26.59
24.46
21.65
18.52
15.37
12.30
9.26
6.23
3.27
0.58
-1.69
-3.48
-4.88
-6.02
-6.99
-7.75
-8.19
-8.27
-8.03
-7.70
-7.59
-7.98
-8.99
-10.55
-12.37
-14.05
-15.22
-15.62
-15.16
-13.90
-12.00
-9.65
-7.03
-4.34
-1.82
0.26
1.64
2.19
1.92
1.02
-0.32
-1.93
-3.76
-5.80
-7.97
-10.05
-11.76
-12.86
-13.29
-13.24
-13.04
-12.99
-13.21
-13.63
-14.01
-14.18
-14.08
-13.82
-13.63
-13.70
-14.11
-14.84
-15.78
-16.82
-17.98
-19.33
-21.02
-23.16
-25.78
-28.80
-32.04
-35.25
-38.19
-40.62
-42.30
-43.12
-43.08
-42.33
-41.13
-39.79
-38.52
-37.47
-36.66
-36.08
-35.78
-35.88
-36.56
-37.98
-40.20
-43.05
-46.12
-48.77
-50.32
-50.26
-48.41
-44.97
-40.40
-35.20
-29.72
-24.08
-18.23
-12.10
-5.76
0.56
6.53
11.84
16.27
19.70
22.07
23.41
23.91
23.94
23.85
23.77
23.48
22.47
20.32
17.10
13.54
10.87
10.35
12.60
17.33
23.50
29.78
35.15
39.14
41.80
43.31
43.77
43.06
41.05
37.78
33.64
29.25
25.21
21.85
19.13
16.72
14.28
11.64
8.89
6.30
4.13
2.49
1.25
0.14
-1.08
-2.55
-4.26
-6.09
-7.96
-9.87
-11.92
-14.27
-17.07
-20.40
-24.24
-28.44
-32.70
-36.58
-39.50
-40.89
-40.29
-37.55
-32.84
-26.64
-19.57
-12.23
-5.13
1.29
6.71
10.88
13.68
15.17
15.51
14.98
13.82
12.25
10.55
9.05
8.23
8.52
10.20
13.24
17.23
21.53
25.39
28.07
28.91
27.38
23.18
16.47
7.96
-1.04
-8.98
-14.58
-17.33
-17.70
-16.96
-16.57
-17.62
-20.44
-24.60
-29.23
-33.44
-36.51
-38.02
-37.78
-35.89
-32.68
-28.77
-24.88
-21.58
-19.03
-17.03
-15.15
-13.07
-10.82
-8.81
-7.56
-7.42
-8.36
-10.07
-12.15
-14.29
-16.36
-18.27
-19.84
-20.72
-20.50
-18.91
-15.95
-11.97
-7.47
-2.89
1.51
5.59
9.13
11.77
12.97
12.24
9.30
4.42
-1.74
-8.28
-14.50
-20.08
-25.04
-29.41
-33.02
-35.39
-35.71
-33.23
-27.49
-18.51
-6.70
7.36
23.06
39.50
55.15
67.97
75.81
77.29
72.56
63.55
53.34
44.90
39.76
36.82
33.89
29.00
22.28
16.00
12.47
12.17
13.21
12.78
8.29
-0.84
-13.01
-25.10
-33.94
-37.51
-35.27
-27.41
-15.22
-0.60
14.49
28.16
38.74
44.82
45.60
41.24
33.12
23.45
14.64
8.70
6.70
8.59
13.53
20.30
27.75
35.07
41.71
47.41
52.06
55.66
58.20
59.63
59.85
58.72
56.14
52.09
46.73
40.44
33.76
27.18
21.00
15.19
9.58
4.06
-1.15
-5.48
-8.33
-9.56
-9.78
-10.34
-12.73
-17.93
-25.81
-35.13
-43.98
-50.50
-53.48
-52.55
-48.05
-40.59
-30.77
-19.14
-6.25
7.14
19.97
31.06
39.29
43.90
44.63
41.78
36.06
28.48
20.08
11.82
4.37
-1.91
-6.94
-10.88
-13.93
-16.27
-17.98
-19.07
-19.60
-19.71
-19.61
-19.51
-19.52
-19.64
-19.82
-20.04
-20.40
-21.07
-22.19
-23.80
-25.75
-27.91
-30.12
-32.34
-34.54
-36.59
-38.16
-38.82
-38.11
-35.78
-31.94
-26.99
-21.54
-16.23
-11.55
-7.77
-4.96
-3.03
-1.81
-1.11
-0.79
-0.74
-0.90
-1.21
-1.59
-1.88
-1.91
-1.55
-0.74
0.44
1.83
3.23
4.48
5.43
6.05
6.38
6.46
6.38
6.18
5.89
5.48
4.85
3.86
2.36
0.31
-2.17
-4.70
-6.76
-7.71
-7.08
-4.67
-0.63
4.53
10.13
15.54
20.25
24.00
26.68
28.29
28.89
28.57
27.47
25.81
23.86
21.87
20.02
18.31
16.64
14.87
12.91
10.87
8.95
7.39
6.32
5.67
5.17
4.49
3.38
1.74
-0.33
-2.68
-5.14
-7.64
-10.16
-12.72
-15.31
-17.82
-20.08
-21.84
-22.83
-22.78
-21.49
-18.90
-15.17
-10.66
-5.94
-1.59
1.92
4.34
5.69
6.15
5.91
5.15
3.97
2.44
0.71
-0.99
-2.39
-3.28
-3.59
-3.46
-3.15
-2.98
-3.19
-3.88
-4.99
-6.37
-7.84
-9.29
-10.66
-12.04
-13.61
-15.56
-18.03
-21.01
-24.26
-27.32
-29.61
-30.51
-29.59
-26.71
-22.04
-16.06
-9.37
-2.60
3.74
9.30
13.94
17.62
20.41
22.42
23.76
24.56
24.94
25.00
24.84
24.47
23.88
23.03
21.88
20.39
18.57
16.46
14.16
11.79
9.52
7.44
5.60
3.95
2.36
0.68
-1.23
-3.38
-5.70
-8.05
-10.19
-11.91
-12.91
-12.94
-11.80
-9.45
-6.04
-1.91
2.47
6.66
10.29
13.23
15.46
17.06
18.11
18.64
18.69
18.37
17.85
17.30
16.84
16.49
16.17
15.72
15.11
14.37
13.69
13.26
13.19
13.44
13.77
13.83
13.18
11.48
8.56
4.42
-0.67
-6.35
-12.14
-17.61
-22.35
-26.03
-28.40
-29.34
-28.92
-27.47
-25.56
-23.84
-22.82
-22.70
-23.28
-24.18
-25.04
-25.80
-26.74
-28.33
-30.89
-34.43
-38.48
-42.28
-44.93
-45.66
-43.96
-39.67
-33.02
-24.72
-15.84
-7.73
-1.76
1.03
0.14
-4.29
-11.62
-20.88
-31.01
-40.94
-49.62
-56.06
-59.36
-58.92
-54.53
-46.54
-35.85
-23.80
-11.93
-1.62
6.15
11.09
13.49
14.10
13.80
13.32
13.13
13.40
14.17
15.40
17.11
19.25
21.64
23.94
25.66
26.34
25.70
23.74
20.72
17.08
13.25
9.48
5.81
2.08
-1.96
-6.61
-12.08
-18.45
-25.54
-32.78
-39.21
-43.56
-44.61
-41.53
-34.33
-23.85
-11.57
0.84
11.99
20.96
27.37
31.18
32.63
32.11
30.24
27.72
25.21
23.14
21.59
20.36
19.21
18.06
17.16
16.92
17.70
19.59
22.25
25.11
27.55
29.12
29.68
29.29
28.15
26.43
24.22
21.49
18.17
14.24
9.81
5.23
1.11
-1.75
-2.50
-0.47
4.63
12.68
23.08
34.88
46.97
58.20
67.53
74.14
77.55
77.63
74.64
69.10
61.72
53.29
44.55
36.12
28.41
21.57
15.50
9.95
4.65
-0.52
-5.53
-10.19
-14.33
-17.90
-21.01
-23.86
-26.63
-29.37
-31.95
-34.18
-35.90
-37.04
-37.71
-38.07
-38.24
-38.09
-37.14
-34.62
-29.64
-21.56
-10.31
3.45
18.44
33.09
46.01
56.22
63.29
67.17
68.03
66.22
62.32
57.15
51.74
47.02
43.49
41.06
39.12
36.92
33.95
30.19
26.03
21.94
18.17
14.61
10.95
6.90
2.40
-2.39
-7.15
-11.69
-16.00
-20.32
-25.02
-30.41
-36.54
-43.10
-49.36
-54.29
-56.83
-56.20
-52.19
-45.21
-36.17
-26.19
-16.34
-7.44
-0.02
5.58
9.16
10.71
10.37
8.50
5.64
2.42
-0.57
-2.88
-4.30
-4.84
-4.69
-4.20
-3.71
-3.51
-3.78
-4.56
-5.75
-7.20
-8.76
-10.33
-11.94
-13.67
-15.67
-18.08
-20.93
-24.13
-27.43
-30.39
-32.41
-32.85
-31.15
-27.01
-20.49
-12.09
-2.59
7.10
16.13
23.88
29.97
34.25
36.74
37.58
37.04
35.40
33.02
30.22
27.24
24.27
21.37
18.55
15.77
12.95
10.02
6.93
3.65
0.23
-3.25
-6.71
-10.08
-13.41
-16.84
-20.59
-24.94
-30.07
-35.93
-42.14
-47.88
-52.07
-53.60
-51.79
-46.60
-38.67
-29.12
-19.03
-9.13
0.43
9.97
19.85
30.05
40.05
48.86
55.43
58.92
58.92
55.57
49.51
41.69
33.25
25.31
18.87
14.45
11.96
10.59
9.12
6.64
2.75
-2.20
-7.28
-11.32
-13.54
-14.16
-14.40
-16.04
-20.06
-26.62
-34.96
-43.52
-50.47
-54.29
-54.28
-50.60
-43.96
-34.32
-21.67
-6.45
10.40
27.63
43.85
57.83
68.74
76.30
81.87
86.55
90.60
93.39
94.30
93.33
91.26
89.37
82.06
67.02
45.61
21.64
-1.73
-23.03
-41.80
-57.84
-71.01
-81.37
-87.97
-90.20
-88.06
-82.21
-73.71
-64.00
-54.80
-47.81
-44.10
-42.87
-42.57
-41.62
-39.41
-35.72
-31.15
-26.84
-23.95
-23.14
-23.69
-24.34
-23.88
-21.59
-17.36
-11.61
-5.27
0.53
4.66
6.57
6.14
3.74
0.15
-3.53
-6.34
-7.89
-8.27
-8.28
-9.00
-11.36
-15.68
-21.44
-27.44
-32.31
-35.00
-35.00
-32.31
-27.34
-20.84
-13.83
-7.49
-2.90
-0.72
-1.06
-3.49
-7.01
-10.60
-13.74
-16.38
-18.85
-21.24
-23.18
-23.91
-22.60
-18.35
-10.79
-0.54
10.97
21.87
30.57
36.18
38.52
37.96
35.93
34.26
34.61
38.30
46.05
58.05
73.90
92.48
107.95
114.59
109.58
95.01
76.45
59.05
45.43
35.65
28.20
21.19
13.91
7.75
2.80
-1.02
-4.24
-7.57
-11.54
-16.36
-21.79
-26.86
-30.56
-32.63
-33.35
-33.71
-34.81
-37.31
-41.20
-45.84
-49.98
-52.43
-52.78
-51.17
-48.28
-44.80
-41.02
-36.88
-32.07
-26.15
-18.76
-9.99
0.02
11.13
23.16
35.55
47.16
56.36
61.62
62.05
57.48
49.05
38.85
29.24
21.90
17.34
14.92
13.47
11.77
8.39
2.69
-4.89
-12.98
-19.86
-24.22
-25.51
-24.26
-21.97
-21.59
-25.63
-35.09
-48.75
-63.94
-77.62
-87.36
-91.83
-86.23
-69.20
-44.09
-17.66
4.32
19.15
26.58
27.55
23.59
16.64
7.47
-2.67
-12.13
-18.80
-21.12
-18.68
-12.21
-3.11
6.99
16.08
24.00
29.88
33.45
35.07
35.64
36.04
36.54
36.99
36.78
35.42
32.78
29.52
26.46
24.09
22.28
20.46
17.92
13.86
7.58
-0.96
-10.73
-20.21
-28.12
-34.01
-38.29
-41.81
-45.56
-50.42
-56.38
-62.27
-66.41
-67.44
-64.86
-59.20
-51.70
-41.66
-30.44
-20.46
-13.49
-9.19
-5.73
-1.37
4.29
10.59
16.29
20.17
22.14
23.19
24.72
27.70
32.29
38.00
44.22
50.20
54.88
57.46
57.55
55.26
50.98
45.87
39.83
33.05
25.78
18.23
10.85
4.32
-0.65
-3.83
-5.50
-6.52
-7.71
-9.56
-12.04
-14.37
-15.34
-13.88
-9.69
-3.26
4.09
10.99
16.28
19.42
20.74
20.71
20.04
19.18
18.40
17.49
16.10
13.60
9.48
3.64
-3.73
-12.31
-21.90
-30.86
-36.69
-37.24
-32.77
-25.67
-19.00
-16.01
-17.08
-21.51
-27.97
-35.16
-42.27
-48.13
-52.51
-55.45
-54.30
-47.35
-34.12
-15.57
4.84
25.46
43.99
58.07
65.60
66.07
60.80
52.53
44.07
37.33
32.93
30.06
27.44
24.26
19.94
14.26
7.39
-0.58
-9.56
-19.07
-28.40
-36.38
-41.74
-43.69
-43.61
-42.00
-39.97
-38.60
-38.27
-38.85
-39.71
-40.25
-40.17
-39.53
-37.23
-32.85
-26.07
-16.93
-6.32
4.23
13.13
19.69
24.85
30.41
38.38
49.64
62.43
72.71
76.69
72.94
63.01
50.51
39.30
31.50
26.98
24.49
21.86
18.24
14.10
10.47
8.13
7.06
6.25
4.28
0.17
-6.07
-13.12
-18.76
-21.02
-19.00
-13.27
-5.76
0.91
4.55
4.15
0.28
-5.37
-10.94
-15.14
-17.53
-18.52
-18.81
-18.73
-18.03
-16.10
-12.70
-8.58
-5.51
-5.56
-9.28
-15.96
-23.18
-27.91
-27.89
-22.62
-13.56
-3.59
4.13
7.25
4.73
-2.83
-13.79
-26.08
-37.63
-46.49
-52.03
-52.99
-48.88
-40.53
-29.70
-18.36
-7.89
1.34
9.97
18.87
28.10
36.74
43.11
46.13
46.25
45.19
44.78
45.85
48.46
50.13
48.02
40.22
27.06
11.31
-3.06
-12.27
-13.87
-7.27
5.72
21.04
33.14
36.85
28.92
8.77
-22.44
-59.91
-95.87
-119.72
-122.50
-103.58
-71.57
-38.23
-11.34
7.67
21.54
34.56
47.62
58.52
64.32
64.32
60.84
57.97
59.37
62.72
65.34
63.81
55.27
38.71
16.04
-8.68
-30.92
-47.24
-56.40
-58.65
-55.87
-50.43
-45.39
-40.87
-36.26
-31.18
-25.81
-20.99
-17.49
-16.18
-17.05
-20.01
-23.75
-26.02
-24.58
-17.87
-6.08
8.87
23.52
34.31
39.03
38.00
34.34
30.63
28.92
30.12
34.05
39.80
46.05
51.42
53.27
50.59
42.97
30.97
15.97
-0.03
-14.97
-27.39
-36.82
-43.54
-48.09
-51.13
-52.81
-52.87
-51.47
-47.73
-41.02
-31.26
-19.10
-5.76
6.79
16.54
22.09
23.22
20.64
17.12
15.02
15.60
18.85
23.47
27.70
29.99
29.42
25.88
18.92
9.73
-0.31
-10.11
-19.01
-26.64
-32.76
-37.32
-40.39
-42.53
-43.49
-43.34
-42.36
-40.63
-37.99
-34.11
-28.93
-22.70
-15.52
-7.22
2.21
12.67
24.16
35.76
45.86
51.98
49.80
37.21
16.27
-7.36
-27.14
-38.39
-39.62
-31.89
-18.06
-1.28
15.81
30.80
42.27
48.39
48.17
42.29
33.16
23.50
16.06
12.77
13.95
18.19
23.21
27.20
28.26
26.62
23.75
22.45
25.29
32.83
41.34
45.03
39.06
23.36
5.61
-8.59
-15.74
-15.18
-8.50
1.31
10.90
17.73
19.56
15.67
7.05
-3.41
-13.34
-22.19
-30.59
-38.98
-46.69
-52.24
-53.99
-51.91
-47.22
-42.17
-38.99
-38.96
-41.65
-45.21
-47.70
-46.44
-40.44
-30.39
-18.57
-8.02
-1.41
-0.05
-3.38
-9.05
-13.59
-13.90
-8.29
2.74
16.79
30.59
41.30
47.43
49.04
47.48
44.33
40.89
37.85
35.45
33.56
31.78
29.40
25.56
19.65
11.69
2.73
-5.45
-10.93
-12.65
-10.80
-6.76
-2.24
1.46
3.94
5.27
5.64
5.12
3.57
0.90
-2.68
-6.58
-10.15
-12.76
-14.14
-14.57
-14.72
-15.46
-17.42
-20.34
-22.41
-21.51
-15.36
-2.99
14.24
32.67
47.36
54.17
51.26
39.65
22.52
3.81
-13.23
-26.81
-36.44
-42.50
-45.50
-45.94
-44.28
-40.99
-36.42
-30.73
-24.36
-17.33
-10.46
-5.12
-2.92
-5.15
-12.16
-23.06
-35.80
-47.81
-56.30
-58.83
-53.35
-38.79
-15.60
13.76
45.06
72.92
92.32
100.73
97.38
84.49
66.29
47.72
32.86
24.13
21.54
22.92
24.86
23.56
16.32
2.23
-17.34
-38.77
-56.63
-65.77
-63.34
-50.18
-30.95
-12.29
-0.20
2.63
-2.08
-9.09
-12.79
-9.48
1.38
17.33
34.66
50.09
61.78
68.47
70.22
66.68
57.35
42.28
22.84
1.91
-16.90
-30.59
-37.86
-39.36
-37.44
-34.86
-33.66
-34.58
-36.98
-39.50
-40.81
-40.22
-37.86
-34.67
-31.73
-29.67
-28.62
-27.61
-25.57
-21.60
-15.31
-6.92
2.80
12.84
22.12
29.70
34.78
36.67
34.98
29.86
22.23
13.73
6.33
1.68
0.59
2.83
7.25
12.45
17.22
20.81
22.87
23.27
21.95
18.89
14.26
8.53
2.52
-2.78
-6.39
-7.64
-6.20
-2.19
3.97
11.51
19.49
26.87
32.53
35.45
34.89
30.64
23.22
13.86
4.16
-4.28
-10.44
-14.16
-16.05
-17.15
-18.56
-21.23
-24.93
-29.32
-33.77
-37.61
-40.30
-41.37
-40.59
-38.21
-35.15
-32.63
-31.95
-33.87
-38.37
-44.58
-50.65
-54.50
-54.83
-51.78
-46.54
-40.79
-35.93
-32.83
-31.77
-31.95
-31.89
-30.47
-27.35
-22.73
-17.15
-11.50
-6.98
-4.58
-3.31
0.01
9.09
26.46
52.54
85.41
121.11
154.56
175.70
175.81
152.98
112.97
65.50
19.53
-18.53
-44.48
-56.03
-52.80
-36.23
-9.19
24.14
57.85
86.04
104.47
111.18
106.12
90.96
64.20
30.83
-3.02
-32.65
-55.43
-70.58
-78.78
-83.06
-85.12
-85.36
-82.45
-75.63
-65.16
-52.18
-38.45
-25.43
-15.88
-11.45
-12.00
-14.97
-17.43
-17.18
-13.18
-5.49
5.02
17.00
29.05
39.24
45.50
45.33
37.28
22.28
4.00
-12.30
-22.05
-22.99
-16.23
-5.10
6.28
15.30
21.20
24.85
27.75
30.96
34.80
38.15
40.45
41.02
39.55
36.08
30.61
22.85
12.34
-1.04
-16.51
-31.88
-44.32
-51.14
-50.93
-44.26
-33.54
-22.11
-13.05
-8.54
-8.82
-13.12
-19.98
-27.64
-34.62
-39.87
-42.65
-42.12
-38.53
-32.23
-23.66
-13.12
-0.84
12.96
27.30
40.51
50.44
55.11
53.46
45.67
32.68
17.36
2.24
-11.05
-21.76
-29.93
-35.11
-36.31
-32.45
-23.07
-8.95
7.11
21.02
28.61
26.72
15.03
-3.89
-25.50
-44.58
-56.50
-58.67
-50.57
-33.83
-11.99
10.15
27.55
36.51
36.19
29.88
22.32
18.88
23.16
35.41
52.63
69.87
82.16
85.25
78.65
63.78
43.36
20.47
-2.06
-21.71
-36.51
-45.37
-48.31
-46.33
-41.52
-36.26
-32.52
-31.50
-33.34
-37.14
-41.42
-44.55
-45.15
-42.70
-37.70
-30.76
-22.93
-15.27
-8.61
-3.47
-0.03
1.83
2.30
1.80
1.01
0.65
1.45
3.94
8.25
14.06
20.66
27.00
31.93
34.53
34.37
31.90
28.34
25.34
24.19
25.06
26.56
26.22
21.48
11.07
-4.22
-21.37
-36.14
-44.16
-42.13
-29.00
-6.28
21.72
48.54
67.14
71.95
60.92
36.60
5.69
-23.11
-42.00
-46.62
-37.21
-17.95
5.00
25.71
39.84
45.83
44.08
36.07
23.66
8.83
-6.33
-19.64
-29.15
-33.63
-33.09
-28.97
-23.55
-19.16
-17.34
-18.32
-21.31
-24.96
-28.02
-29.70
-29.86
-28.83
-27.13
-25.00
-22.38
-18.92
-14.23
-8.21
-1.34
5.27
10.27
12.68
12.44
10.48
8.23
6.86
6.61
6.71
5.88
3.15
-1.54
-7.21
-12.48
-16.19
-17.91
-17.94
-16.89
-15.19
-12.93
-9.83
-5.56
-0.17
5.93
12.07
17.59
22.07
25.44
27.91
29.81
31.53
33.23
35.06
37.01
38.78
39.74
39.01
35.81
30.07
22.68
15.28
9.72
7.05
6.84
7.26
5.91
1.04
-7.49
-18.16
-28.85
-37.64
-43.75
-47.65
-50.47
-53.16
-55.99
-58.49
-58.39
-54.41
-46.13
-34.26
-20.39
-6.63
5.08
13.31
17.56
18.17
15.74
10.93
4.13
-4.35
-14.05
-23.93
-32.84
-39.76
-44.34
-47.23
-49.38
-51.38
-52.71
-52.04
-47.56
-38.72
-26.41
-12.29
1.87
15.46
28.95
43.81
61.36
82.44
102.97
116.90
119.46
109.93
92.25
72.01
57.12
48.27
44.09
42.34
41.43
41.53
41.99
42.85
43.50
40.58
32.22
19.23
5.22
-9.00
-22.73
-35.30
-45.16
-51.05
-52.32
-49.27
-42.45
-34.38
-28.75
-28.47
-34.23
-43.52
-52.30
-56.57
-53.82
-43.72
-28.37
-10.96
7.03
24.72
41.86
57.88
71.86
82.53
88.53
85.24
72.30
52.19
28.66
5.68
-13.96
-28.93
-39.27
-46.01
-50.64
-53.88
-56.02
-57.85
-58.63
-57.97
-55.97
-53.14
-50.14
-47.29
-43.89
-38.96
-31.70
-21.76
-9.86
2.59
13.92
22.32
26.20
25.36
20.62
13.74
6.83
1.44
-1.66
-2.38
-1.05
1.83
5.90
10.63
15.64
20.89
26.32
31.97
37.54
42.23
44.67
44.24
40.11
33.01
25.14
19.12
16.94
18.94
23.50
27.38
27.01
19.83
5.61
-13.66
-34.75
-54.15
-68.79
-76.29
-75.34
-65.57
-47.41
-21.72
10.85
47.01
80.90
104.88
113.73
106.93
88.05
62.17
33.91
6.52
-18.23
-39.42
-56.44
-68.47
-75.14
-76.62
-73.63
-67.07
-57.77
-46.65
-34.67
-23.74
-14.49
-8.28
-6.84
-11.39
-21.81
-36.52
-52.23
-66.19
-76.89
-83.10
-83.33
-75.24
-56.48
-26.47
11.92
52.39
88.16
112.84
123.35
120.44
107.76
89.66
69.59
49.58
30.94
15.21
3.96
-1.19
0.20
6.46
13.80
17.39
13.13
-1.25
-23.15
-46.33
-63.00
-67.21
-57.11
-35.43
-7.98
18.76
39.60
52.62
57.21
53.67
43.36
28.70
13.03
0.02
-7.24
-7.36
-0.60
9.54
18.32
22.43
21.31
16.74
11.25
6.64
3.15
-0.08
-4.33
-10.22
-17.31
-24.62
-31.25
-36.76
-41.12
-44.62
-47.46
-49.75
-51.17
-51.01
-48.50
-43.11
-35.48
-26.11
-16.39
-8.07
-2.71
-1.03
-2.60
-6.06
-9.52
-11.20
-9.80
-5.05
2.44
11.44
20.66
29.12
36.28
41.77
45.11
45.74
43.05
36.99
28.40
18.98
10.61
4.67
1.49
0.42
0.46
0.53
-0.22
-2.45
-6.52
-12.07
-17.47
-19.92
-16.34
-4.83
13.78
35.52
54.48
65.02
63.63
51.29
32.27
12.12
-4.38
-14.59
-18.27
-16.79
-12.20
-6.39
-0.82
3.30
4.96
3.46
-1.42
-9.26
-18.95
-28.89
-37.41
-43.18
-45.70
-45.24
-42.63
-38.88
-34.84
-31.02
-27.80
-24.84
-21.74
-18.05
-13.36
-7.51
-0.77
6.05
11.74
15.15
15.65
13.44
9.53
5.53
3.06
3.39
6.97
13.25
20.82
27.74
32.12
32.72
29.47
23.28
15.74
8.41
2.36
-2.05
-4.97
-6.71
-7.52
-7.51
-6.80
-5.60
-4.14
-2.59
-0.96
0.90
3.05
5.26
7.03
7.79
7.15
5.19
2.45
-0.20
-1.94
-2.26
-1.16
0.93
3.26
4.86
5.00
3.30
-0.05
-4.48
-9.18
-13.45
-16.84
-19.16
-20.27
-19.85
-17.46
-12.63
-5.18
4.37
14.75
24.22
31.03
33.96
32.87
27.86
19.98
10.99
3.11
-1.82
-3.04
-1.37
0.98
1.27
-2.47
-10.40
-20.69
-30.16
-35.52
-34.50
-26.59
-13.07
3.34
19.21
30.88
35.48
32.28
22.74
9.84
-2.82
-12.13
-16.34
-15.44
-10.84
-4.78
0.46
3.18
2.63
-0.74
-5.55
-10.16
-13.35
-14.65
-14.42
-13.65
-13.44
-14.27
-15.48
-15.48
-12.41
-5.28
5.48
17.35
27.09
32.26
32.26
28.32
22.60
17.00
12.59
9.02
5.82
2.90
0.63
-0.40
0.19
2.28
5.26
8.32
10.74
11.93
11.75
10.30
7.91
4.91
1.50
-2.39
-6.97
-12.37
-18.61
-25.36
-31.97
-37.58
-41.37
-42.87
-42.00
-39.45
-35.25
-29.53
-22.40
-14.06
-4.88
4.41
12.74
18.87
21.62
20.74
16.88
11.69
6.78
3.67
3.30
5.58
9.51
13.47
15.93
15.74
12.57
6.84
-0.38
-7.84
-14.44
-19.42
-22.38
-23.21
-22.14
-19.59
-16.14
-12.25
-8.28
-4.35
-0.28
4.31
9.96
17.20
26.35
37.27
49.27
61.17
71.51
78.94
82.60
82.34
78.70
72.61
65.08
56.97
48.89
41.20
34.10
27.63
21.70
16.07
10.42
4.55
-1.53
-7.49
-12.78
-16.89
-19.53
-20.76
-20.99
-20.82
-20.90
-21.82
-23.96
-27.55
-32.49
-38.38
-44.47
-49.73
-53.09
-53.75
-51.42
-46.42
-39.56
-31.92
-24.51
-18.09
-13.02
-9.37
-7.03
-5.78
-5.41
-5.71
-6.50
-7.66
-9.13
-10.90
-13.02
-15.46
-18.12
-20.85
-23.41
-25.61
-27.29
-28.41
-28.97
-29.03
-28.71
-28.15
-27.49
-26.74
-25.75
-24.08
-21.15
-16.36
-9.39
-0.34
10.26
21.58
32.80
43.19
52.27
59.67
65.06
68.20
68.93
67.35
63.85
59.02
53.57
48.07
42.85
37.99
33.35
28.70
23.81
18.53
12.86
6.96
1.09
-4.41
-9.34
-13.66
-17.52
-21.15
-24.70
-28.06
-30.86
-32.52
-32.46
-30.31
-26.06
-20.08
-13.02
-5.62
1.43
7.56
12.28
15.15
15.74
13.66
8.79
1.38
-7.95
-18.23
-28.41
-37.58
-45.18
-51.03
-55.24
-58.00
-59.54
-60.09
-59.87
-59.09
-57.98
-56.81
-55.85
-55.30
-55.09
-55.05
-54.95
-54.46
-53.11
-50.50
-46.21
-40.11
-32.42
-23.48
-14.13
-5.60
0.90
4.59
5.21
3.32
-0.00
-3.30
-4.63
-2.48
3.75
13.69
26.17
39.32
51.58
61.29
66.78
68.10
66.87
65.14
63.99
64.62
65.71
66.09
65.55
62.38
57.43
52.31
48.35
46.32
46.14
46.62
46.19
43.39
37.39
28.71
18.36
7.39
-2.74
-10.38
-14.66
-16.05
-15.84
-15.77
-16.85
-18.89
-20.41
-18.39
-9.68
7.64
31.49
57.20
79.49
94.14
100.28
95.96
79.85
51.79
13.48
-31.36
-76.54
-114.41
-138.21
-144.49
-134.15
-111.12
-81.01
-46.50
-10.62
20.48
41.16
48.99
45.34
33.59
17.88
1.65
-12.94
-25.42
-35.82
-43.93
-49.35
-51.82
-51.78
-49.67
-45.81
-40.43
-35.18
-30.25
-25.83
-22.09
-19.17
-17.02
-15.24
-13.18
-10.42
-7.24
-4.07
-1.26
1.26
3.82
6.62
9.72
13.11
16.83
20.61
24.28
27.72
30.78
33.12
34.14
33.29
30.68
27.12
23.68
21.35
20.55
21.13
22.42
23.38
23.07
21.37
19.03
17.47
18.18
22.15
29.36
38.66
47.77
52.15
47.93
34.22
13.80
-8.73
-29.77
-47.58
-61.56
-71.15
-75.38
-72.89
-63.21
-47.55
-28.94
-11.01
3.44
13.37
19.26
22.30
23.92
25.22
26.87
29.20
32.38
36.39
40.90
45.07
47.76
48.01
45.32
39.75
31.87
22.99
13.75
5.02
-2.60
-8.78
-13.41
-16.44
-17.80
-17.41
-15.29
-11.84
-7.72
-3.72
-0.39
2.18
4.15
5.82
7.53
9.48
11.63
13.52
14.79
15.43
15.84
16.29
16.79
17.29
17.58
17.17
14.87
9.91
2.47
-5.62
-12.96
-18.92
-23.17
-25.70
-26.97
-28.76
-32.10
-36.48
-40.38
-42.85
-44.23
-45.11
-46.25
-48.86
-55.82
-68.84
-87.20
-107.98
-127.71
-143.06
-149.93
-144.19
-116.16
-66.15
-5.70
48.54
84.80
101.83
100.74
84.83
57.23
23.64
-10.54
-39.50
-58.10
-60.79
-47.10
-23.42
0.36
20.94
37.85
49.20
53.95
52.94
48.51
42.67
36.45
30.79
26.45
23.16
19.64
15.50
11.57
9.34
9.57
12.09
16.57
22.75
29.87
36.91
43.14
48.00
50.91
50.94
47.67
41.57
33.97
26.28
19.92
15.76
13.49
11.85
9.11
4.59
-1.31
-7.23
-11.52
-12.12
-7.74
1.41
13.72
26.77
38.84
48.59
55.04
53.75
42.96
25.61
7.79
-3.88
-9.67
-10.89
-8.75
-4.54
0.73
6.81
13.40
19.75
24.75
27.28
27.45
25.83
23.13
20.09
17.84
17.14
18.02
19.81
21.53
22.88
23.63
23.46
21.90
18.83
14.26
8.35
1.50
-5.60
-11.74
-15.88
-17.49
-16.62
-13.67
-9.52
-5.39
-2.61
-2.24
-4.50
-8.83
-14.10
-19.00
-22.36
-23.63
-22.93
-20.86
-18.25
-15.78
-13.91
-12.89
-12.84
-13.70
-15.37
-17.60
-20.08
-22.45
-24.32
-25.36
-25.43
-24.67
-23.45
-22.26
-21.44
-21.10
-21.00
-20.70
-19.86
-18.34
-16.27
-14.00
-11.86
-10.08
-8.67
-7.51
-6.41
-5.23
-3.92
-2.53
-1.18
-0.04
0.77
1.22
1.37
1.38
1.38
1.47
1.63
1.78
1.83
1.78
1.71
1.75
1.98
2.34
2.58
2.38
1.46
-0.23
-2.46
-4.79
-6.73
-7.93
-8.31
-8.05
-7.42
-6.65
-5.78
-4.75
-3.42
-1.82
-0.15
1.24
2.00
1.93
1.08
-0.37
-2.15
-4.05
-5.99
-7.92
-9.78
-11.47
-12.88
-13.93
-14.66
-15.20
-15.70
-16.27
-16.95
-17.72
-18.56
-19.49
-20.56
-21.82
-23.24
-24.72
-26.02
-26.84
-26.89
-25.94
-23.90
-20.81
-16.88
-12.46
-7.95
-3.79
-0.37
2.06
3.36
3.56
2.78
1.23
-0.82
-3.06
-5.24
-7.18
-8.91
-10.56
-12.39
-14.58
-17.15
-19.83
-22.13
-23.47
-23.40
-21.73
-18.63
-14.56
-10.13
-5.86
-2.10
1.14
4.07
6.99
10.06
13.25
16.32
18.94
20.88
22.12
22.81
23.24
23.63
24.09
24.54
24.83
24.83
24.47
23.81
22.91
21.79
20.40
18.66
16.59
14.32
12.14
10.36
9.10
8.25
7.45
6.28
4.47
1.98
-0.92
-3.84
-6.35
-8.13
-8.96
-8.71
-7.31
-4.74
-1.12
3.29
8.11
12.92
17.35
21.15
24.18
26.39
27.75
28.28
28.02
27.13
25.90
24.70
23.86
23.51
23.51
23.45
22.91
21.61
19.64
17.38
15.32
13.79
12.82
12.13
11.30
10.04
8.29
6.24
4.19
2.37
0.91
-0.18
-0.96
-1.54
-2.12
-3.04
-4.75
-7.65
-11.90
-17.28
-23.19
-28.83
-33.51
-36.86
-38.85
-39.81
-40.18
-40.46
-41.04
-42.13
-43.64
-45.14
-45.92
-45.16
-42.30
-37.33
-30.90
-24.11
-18.12
-13.69
-10.87
-8.99
-7.02
-3.95
0.86
7.43
15.31
23.76
32.00
39.39
45.52
50.15
53.24
54.84
55.18
54.60
53.50
52.28
51.21
50.42
49.89
49.52
49.16
48.62
47.64
45.92
43.19
39.32
34.34
28.48
22.02
15.23
8.34
1.53
-4.93
-10.70
-15.38
-18.66
-20.46
-20.94
-20.42
-19.23
-17.62
-15.71
-13.56
-11.25
-8.87
-6.53
-4.40
-2.60
-1.28
-0.56
-0.50
-1.03
-1.98
-3.17
-4.46
-5.82
-7.31
-9.01
-10.90
-12.82
-14.50
-15.74
-16.47
-16.82
-17.09
-17.52
-18.22
-19.07
-19.78
-20.00
-19.51
-18.28
-16.48
-14.37
-12.26
-10.41
-9.01
-8.18
-7.87
-7.84
-7.63
-6.65
-4.35
-0.37
5.28
12.20
19.75
27.11
33.52
38.34
41.10
41.54
39.57
35.28
28.96
21.06
12.23
3.19
-5.30
-12.64
-18.42
-22.55
-25.14
-26.46
-26.77
-26.28
-25.16
-23.55
-21.63
-19.64
-17.83
-16.36
-15.29
-14.57
-14.11
-13.85
-13.71
-13.67
-13.65
-13.53
-13.16
-12.49
-11.61
-10.68
-9.90
-9.41
-9.21
-9.21
-9.30
-9.43
-9.56
-9.70
-9.77
-9.69
-9.33
-8.72
-7.91
-7.04
-6.25
-5.57
-4.93
-4.23
-3.42
-2.52
-1.68
-1.05
-0.73
-0.73
-0.96
-1.31
-1.70
-2.07
-2.40
-2.71
-2.97
-3.23
-3.49
-3.77
-4.04
-4.29
-4.49
-4.69
-4.99
-5.50
-6.25
-7.16
-8.07
-8.77
-9.15
-9.17
-8.89
-8.42
-7.81
-7.07
-6.15
-5.02
-3.74
-2.41
-1.22
-0.29
0.32
0.68
0.92
1.14
1.34
1.43
1.29
0.86
0.21
-0.51
-1.12
-1.55
-1.84
-2.09
-2.35
-2.63
-2.87
-3.04
-3.19
-3.40
-3.74
-4.26
-4.90
-5.53
-6.05
-6.36
-6.45
-6.34
-6.01
-5.36
-4.29
-2.75
-0.82
1.26
3.18
4.66
5.55
5.89
5.85
5.64
5.38
5.16
4.98
4.83
4.68
4.50
4.28
3.97
3.57
3.08
2.53
1.96
1.37
0.71
-0.05
-0.98
-2.13
-3.46
-4.92
-6.36
-7.58
-8.38
-8.64
-8.30
-7.43
-6.17
-4.65
-2.99
-1.25
0.50
2.21
3.77
5.08
6.06
6.66
6.86
6.67
6.18
5.48
4.72
4.01
3.36
2.74
2.06
1.28
0.44
-0.36
-1.01
-1.50
-1.96
-2.58
-3.52
-4.84
-6.44
-8.12
-9.70
-11.05
-12.13
-12.91
-13.33
-13.30
-12.70
-11.46
-9.60
-7.27
-4.68
-2.10
0.29
2.33
4.02
5.39
6.49
7.38
8.01
8.36
8.39
8.12
7.67
7.13
6.61
6.15
5.74
5.35
4.94
4.51
4.06
3.59
3.08
2.47
1.71
0.71
-0.58
-2.19
-3.99
-5.80
-7.44
-8.76
-9.67
-10.11
-10.02
-9.40
-8.25
-6.60
-4.52
-2.16
0.31
2.70
4.88
6.77
8.17
8.98
9.24
9.17
8.96
8.72
8.45
8.09
7.60
6.63
5.02
3.02
