1653566434.00
64.000000
-0.00
-0.00
-0.00
-0.00
-0.00
-0.00
-0.00
-0.00
-0.00
-0.00
0.00
0.01
0.01
-0.00
-0.03
-0.05
-0.05
0.00
0.13
0.36
0.66
1.01
1.37
1.72
2.06
2.40
2.79
3.24
3.80
4.42
5.06
5.66
6.20
6.68
7.15
7.68
8.31
9.14
10.09
11.04
11.88
12.56
13.14
13.76
14.65
15.96
17.91
20.32
22.90
25.38
27.58
29.57
31.68
34.32
37.81
42.54
48.15
54.10
59.83
64.97
69.58
74.14
79.34
85.71
93.76
103.00
112.62
121.73
129.77
136.75
143.30
150.75
157.77
166.64
177.95
191.79
206.97
220.57
228.25
225.36
208.53
176.87
132.76
80.05
23.07
-34.94
-92.44
-149.16
-205.23
-260.37
-313.74
-363.87
-409.83
-450.91
-486.50
-515.74
-537.23
-549.22
-549.96
-538.37
-514.21
-478.67
-433.88
-382.45
-327.02
-269.84
-212.63
-156.66
-102.95
-52.37
-5.90
35.58
71.43
101.35
125.50
144.38
158.69
169.15
176.37
180.75
182.58
182.07
179.50
175.23
169.65
163.18
156.17
148.84
141.33
133.69
125.96
118.19
110.46
102.85
95.46
88.33
81.49
74.92
68.61
62.56
56.77
51.29
46.15
41.37
36.95
32.85
29.03
25.44
22.04
18.85
15.92
13.30
11.06
9.17
7.57
6.12
4.69
3.21
1.72
0.32
-0.80
-1.55
-1.92
-2.08
-2.28
-2.78
-3.71
-4.98
-6.32
-7.39
-7.93
-7.92
-7.61
-7.44
-7.82
-8.96
-10.71
-12.64
-14.22
-15.08
-15.15
-14.74
-14.32
-14.36
-15.20
-17.05
-19.94
-23.56
-27.06
-29.05
-27.86
-22.31
-12.35
0.57
13.92
25.06
32.26
35.29
35.19
33.50
31.42
29.38
27.24
24.78
22.06
19.54
17.71
16.77
16.48
16.36
15.85
14.62
12.70
10.40
8.21
6.62
5.94
6.21
7.15
8.31
9.25
9.77
10.02
10.34
11.11
12.47
14.25
16.04
17.40
18.12
18.19
17.86
17.40
16.95
16.51
15.90
14.89
13.29
11.12
8.34
5.13
1.73
-1.69
-5.03
-8.25
-11.32
-14.11
-16.45
-18.17
-19.15
-19.42
-19.13
-18.47
-17.57
-16.50
-15.25
-13.85
-12.34
-10.83
-9.42
-8.24
-7.37
-6.85
-6.68
-6.83
-7.14
-7.43
-7.48
-7.14
-6.40
-5.41
-4.39
-3.62
-3.24
-3.28
-3.60
-3.96
-4.14
-3.99
-3.49
-2.75
-1.98
-1.37
-1.01
-0.89
-0.85
-0.76
-0.60
-0.49
-0.64
-1.22
-2.23
-3.45
-4.55
-5.18
-5.16
-4.49
-3.40
-2.15
-0.97
0.03
0.87
1.59
2.25
2.88
3.52
4.21
5.02
5.98
7.11
8.27
9.27
9.87
9.97
9.61
8.99
8.36
7.86
7.48
7.15
6.80
6.45
6.19
6.07
6.05
6.02
5.88
5.67
5.46
5.34
5.31
5.24
5.00
4.53
3.91
3.30
2.82
2.43
2.01
1.38
0.46
-0.68
-1.90
-3.07
-4.15
-5.17
-6.23
-7.32
-8.36
-9.20
-9.69
-9.77
-9.51
-9.09
-8.71
-8.54
-8.66
-9.08
-9.73
-10.45
-11.07
-11.37
-11.24
-10.63
-9.63
-8.40
-7.08
-5.71
-4.28
-2.76
-1.18
0.34
1.64
2.60
3.19
3.48
3.54
3.44
3.19
2.81
2.38
2.05
1.98
2.31
3.01
3.93
4.85
5.55
5.93
6.04
6.01
5.99
6.06
6.20
6.29
6.21
5.86
5.24
4.39
3.38
2.22
0.92
-0.52
-2.05
-3.59
-5.01
-6.18
-7.01
-7.47
-7.56
-7.36
-6.96
-6.49
-6.06
-5.78
-5.72
-5.87
-6.20
-6.60
-7.03
-7.46
-7.92
-8.46
-9.05
-9.58
-9.85
-9.65
-8.85
-7.48
-5.76
-4.03
-2.59
-1.64
-1.19
-1.04
-0.90
-0.46
0.45
1.82
3.42
4.96
6.16
6.89
7.23
7.34
7.43
7.58
7.76
7.87
7.86
7.76
7.68
7.68
7.70
7.53
6.97
5.88
4.36
2.70
1.22
0.19
-0.28
-0.24
0.19
0.91
1.79
2.70
3.47
3.92
3.97
3.65
3.14
2.66
2.41
2.46
2.74
3.09
3.30
3.20
2.66
1.68
0.37
-1.04
-2.31
-3.24
-3.76
-3.97
-4.04
-4.19
-4.55
-5.15
-5.91
-6.70
-7.35
-7.71
-7.63
-7.04
-5.95
-4.49
-2.90
-1.49
-0.46
0.10
0.31
0.40
0.59
1.04
1.75
2.58
3.39
4.03
4.46
4.69
4.75
4.68
4.57
4.48
4.51
4.71
5.09
5.57
6.03
6.37
6.57
6.69
6.80
6.95
7.11
7.16
7.01
6.61
6.06
5.49
5.06
4.82
4.71
4.64
4.46
4.16
3.72
3.18
2.58
1.98
1.47
1.17
1.18
1.48
1.87
2.02
1.60
0.46
-1.31
-3.37
-5.31
-6.81
-7.71
-8.06
-8.04
-7.90
-7.86
-8.15
-8.87
-10.02
-11.43
-12.79
-13.76
-14.07
-13.65
-12.62
-11.24
-9.79
-8.43
-7.21
-6.09
-4.97
-3.83
-2.68
-1.53
-0.39
0.73
1.83
2.83
3.62
4.10
4.25
4.14
3.92
3.76
3.79
4.10
4.67
5.45
6.27
6.92
7.19
6.96
6.29
5.40
4.59
4.06
3.84
3.84
3.84
3.67
3.25
2.61
1.86
1.12
0.51
0.15
0.07
0.21
0.44
0.57
0.47
0.11
-0.47
-1.14
-1.80
-2.34
-2.75
-2.97
-3.06
-3.11
-3.21
-3.51
-4.07
-4.84
-5.71
-6.48
-6.99
-7.18
-7.06
-6.71
-6.20
-5.55
-4.75
-3.72
-2.45
-0.96
0.63
2.21
3.63
4.79
5.61
6.09
6.23
6.10
5.78
5.39
5.02
4.71
4.43
4.16
3.90
3.73
3.75
4.06
4.64
5.32
5.86
6.00
5.64
4.80
3.65
2.41
1.32
0.55
0.21
0.30
0.70
1.22
1.66
1.87
1.85
1.69
1.49
1.32
1.14
0.91
0.63
0.42
0.47
0.86
1.51
2.09
2.24
1.70
0.51
-1.03
-2.45
-3.43
-3.84
-3.76
-3.41
-3.00
-2.71
-2.67
-2.98
-3.74
-4.93
-6.41
-7.84
-8.85
-9.16
-8.67
-7.54
-6.08
-4.64
-3.49
-2.69
-2.17
-1.76
-1.28
-0.65
0.11
0.89
1.56
2.03
2.30
2.43
2.52
2.63
2.76
2.89
2.98
3.03
3.07
3.15
3.28
3.38
3.35
3.09
2.57
1.88
1.21
0.76
0.62
0.76
1.02
1.25
1.36
1.44
1.60
1.94
2.46
3.01
3.39
3.45
3.21
2.81
2.39
2.02
1.63
1.09
0.35
-0.50
-1.25
-1.69
-1.72
-1.48
-1.19
-1.11
-1.34
-1.84
-2.42
-2.90
-3.15
-3.19
-3.09
-3.01
-3.08
-3.37
-3.87
-4.46
-4.93
-5.08
-4.74
-3.84
-2.47
-0.83
0.81
2.21
3.19
3.72
3.89
3.87
3.81
3.77
3.72
3.59
3.35
3.04
2.74
2.53
2.41
2.34
2.25
2.10
1.87
1.57
1.22
0.83
0.46
0.17
0.04
0.11
0.31
0.56
0.69
0.62
0.32
-0.17
-0.80
-1.54
-2.35
-3.21
-4.07
-4.83
-5.42
-5.76
-5.83
-5.65
-5.27
-4.81
-4.39
-4.11
-4.03
-4.14
-4.42
-4.82
-5.27
-5.73
-6.13
-6.40
-6.50
-6.45
-6.32
-6.20
-6.18
-6.27
-6.41
-6.50
-6.44
-6.18
-5.74
-5.15
-4.48
-3.75
-3.00
-2.26
-1.60
-1.07
-0.73
-0.59
-0.62
-0.76
-0.89
-0.90
-0.71
-0.30
0.33
1.08
1.88
2.66
3.39
4.09
4.74
5.30
5.72
5.92
5.89
5.67
5.38
5.12
4.90
4.61
4.05
3.08
1.67
0.00
-1.63
-2.90
-3.66
-3.94
-3.95
-3.98
-4.17
-4.51
-4.86
-5.06
-5.05
-4.86
-4.59
-4.32
-4.06
-3.79
-3.52
-3.30
-3.23
-3.34
-3.57
-3.77
-3.74
-3.31
-2.44
-1.22
0.20
1.60
2.85
3.80
4.41
4.64
4.51
4.06
3.40
2.66
2.02
1.62
1.54
1.76
2.22
2.82
3.45
4.05
4.59
5.06
5.44
5.72
5.88
5.91
5.80
5.58
5.29
5.00
4.74
4.49
4.18
3.81
3.43
3.21
3.32
3.88
4.81
5.84
6.57
6.67
5.97
4.51
2.49
0.17
-2.24
-4.59
-6.68
-8.34
-9.36
-9.64
-9.22
-8.34
-7.33
-6.50
-6.02
-5.90
-6.09
-6.56
-7.38
-8.56
-10.02
-11.46
-12.42
-12.41
-11.15
-8.64
-5.20
-1.37
2.26
5.26
7.41
8.75
9.48
9.79
9.76
9.33
8.40
6.93
5.06
3.14
1.51
0.44
-0.03
-0.05
0.17
0.49
0.93
1.60
2.62
3.94
5.39
6.68
7.51
7.69
7.18
6.12
4.74
3.32
2.13
1.35
1.07
1.25
1.70
2.12
2.21
1.71
0.59
-1.01
-2.78
-4.39
-5.65
-6.45
-6.83
-6.85
-6.64
-6.32
-6.09
-6.11
-6.48
-7.11
-7.76
-8.12
-7.93
-7.14
-5.85
-4.20
-2.32
-0.23
2.03
4.33
6.36
7.79
8.30
7.81
6.50
4.77
3.11
1.93
1.47
1.78
2.73
4.02
5.33
6.32
6.75
6.55
5.85
4.92
4.10
3.64
3.61
3.88
4.21
4.44
4.53
4.59
4.77
5.08
5.40
5.44
4.99
3.99
2.62
1.18
-0.03
-0.84
-1.28
-1.43
-1.41
-1.28
-1.09
-0.93
-0.88
-1.07
-1.50
-2.12
-2.78
-3.30
-3.56
-3.55
-3.36
-3.11
-2.95
-2.95
-3.13
-3.46
-3.87
-4.24
-4.51
-4.62
-4.57
-4.43
-4.30
-4.29
-4.45
-4.74
-5.00
-5.03
-4.67
-3.85
-2.66
-1.34
-0.17
0.60
0.89
0.70
0.15
-0.62
-1.46
-2.24
-2.80
-2.99
-2.73
-2.03
-1.01
0.10
1.07
1.72
2.00
1.98
1.80
1.65
1.69
1.98
2.51
3.15
3.72
4.05
4.04
3.71
3.20
2.70
2.37
2.29
2.45
2.76
3.12
3.43
3.60
3.57
3.31
2.82
2.13
1.31
0.43
-0.43
-1.19
-1.81
-2.30
-2.69
-3.04
-3.40
-3.80
-4.28
-4.85
-5.49
-6.11
-6.59
-6.75
-6.49
-5.81
-4.82
-3.74
-2.76
-1.97
-1.36
-0.83
-0.28
0.27
0.77
1.13
1.33
1.40
1.41
1.46
1.57
1.70
1.82
1.87
1.87
1.85
1.86
1.97
2.21
2.62
3.21
3.92
4.65
5.21
5.46
5.34
4.89
4.29
3.70
3.23
2.93
2.73
2.59
2.48
2.44
2.48
2.58
2.66
2.63
2.45
2.14
1.74
1.32
0.88
0.39
-0.20
-0.89
-1.63
-2.31
-2.82
-3.09
-3.12
-2.99
-2.84
-2.86
-3.19
-3.89
-4.84
-5.84
-6.61
-6.97
-6.83
-6.29
-5.49
-4.59
-3.66
-2.72
-1.77
-0.88
-0.14
0.34
0.53
0.52
0.42
0.35
0.36
0.38
0.28
-0.02
-0.56
-1.22
-1.84
-2.18
-2.08
-1.51
-0.57
0.49
1.41
1.98
2.15
2.05
1.85
1.70
1.66
1.70
1.77
1.83
1.85
1.82
1.69
1.43
1.04
0.64
0.36
0.35
0.64
1.14
1.67
2.07
2.26
2.25
2.13
1.95
1.77
1.55
1.27
0.90
0.44
-0.06
-0.56
-1.04
-1.48
-1.91
-2.31
-2.67
-2.93
-3.07
-3.09
-3.07
-3.11
-3.29
-3.62
-4.01
-4.32
-4.45
-4.32
-3.94
-3.34
-2.55
-1.61
-0.61
0.31
1.00
1.34
1.32
1.05
0.72
0.49
0.47
0.63
0.95
1.38
1.92
2.54
3.14
3.57
3.65
3.30
2.61
1.81
1.20
0.99
1.21
1.69
2.20
2.51
2.53
2.34
2.08
1.91
1.93
2.14
2.47
2.82
3.06
3.08
2.77
2.12
1.18
0.12
-0.86
-1.52
-1.79
-1.66
-1.25
-0.74
-0.28
0.05
0.21
0.20
0.05
-0.27
-0.72
-1.28
-1.92
-2.60
-3.27
-3.89
-4.45
-4.90
-5.21
-5.35
-5.26
-4.89
-4.24
-3.39
-2.48
-1.76
-1.38
-1.41
-1.76
-2.22
-2.57
-2.69
-2.61
-2.44
-2.28
-2.13
-1.88
-1.42
-0.74
0.04
0.74
1.22
1.48
1.60
1.75
2.00
2.27
2.42
2.33
1.97
1.47
1.02
0.81
0.91
1.26
1.72
2.12
2.30
2.18
1.72
0.98
0.13
-0.60
-0.97
-0.86
-0.35
0.29
0.75
0.84
0.58
0.21
0.03
0.22
0.74
1.34
1.73
1.72
1.29
0.54
-0.39
-1.45
-2.65
-3.98
-5.29
-6.33
-6.87
-6.79
-6.22
-5.45
-4.79
-4.45
-4.34
-4.22
-3.80
-2.95
-1.72
-0.35
0.88
1.78
2.32
2.62
2.83
3.06
3.34
3.66
3.99
4.27
4.47
4.53
4.45
4.21
3.85
3.45
3.11
2.89
2.78
2.70
2.52
2.18
1.69
1.16
0.69
0.37
0.22
0.19
0.25
0.33
0.42
0.51
0.62
0.73
0.82
0.89
0.89
0.82
0.68
0.47
0.24
0.01
-0.24
-0.53
-0.90
-1.35
-1.86
-2.39
-2.94
-3.50
-4.09
-4.66
-5.07
-5.15
-4.74
-3.81
-2.47
-0.92
0.59
1.89
2.93
3.73
4.35
4.78
4.96
4.81
4.29
3.42
2.39
1.38
0.61
0.20
0.17
0.48
1.11
1.99
3.08
4.24
5.25
5.84
5.84
5.24
4.20
3.07
2.12
1.54
1.28
1.14
0.91
0.38
-0.50
-1.68
-3.06
-4.53
-5.96
-7.19
-8.01
-8.21
-7.69
-6.44
-4.68
-2.78
-1.11
-0.00
0.45
0.36
-0.00
-0.32
-0.39
-0.15
0.29
0.74
0.99
0.92
0.47
-0.32
-1.37
-2.51
-3.53
-4.23
-4.43
-4.09
-3.31
-2.26
-1.11
0.04
1.14
2.17
3.07
3.71
3.99
3.90
3.54
3.13
2.83
2.74
2.78
2.76
2.52
1.95
1.12
0.23
-0.48
-0.83
-0.75
-0.34
0.25
0.86
1.41
1.87
2.26
2.55
2.71
2.72
2.65
2.60
2.68
2.87
3.01
2.87
2.31
1.45
0.57
0.00
-0.05
0.31
0.78
1.01
0.82
0.26
-0.45
-1.11
-1.66
-2.18
-2.84
-3.72
-4.75
-5.78
-6.58
-7.04
-7.15
-7.03
-6.82
-6.63
-6.45
-6.20
-5.72
-4.91
-3.75
-2.37
-0.95
0.31
1.26
1.87
2.18
2.29
2.32
2.33
2.39
2.51
2.68
2.89
3.13
3.37
3.61
3.85
4.08
4.30
4.51
4.73
4.98
5.24
5.51
5.71
5.77
5.61
5.18
4.46
3.56
2.65
1.91
1.50
1.42
1.57
1.78
1.90
1.86
1.76
1.66
1.63
1.60
1.45
1.05
0.35
-0.59
-1.64
-2.67
-3.56
-4.28
-4.80
-5.11
-5.20
-5.07
-4.75
-4.31
-3.91
-3.68
-3.71
-4.02
-4.50
-4.96
-5.23
-5.23
-4.97
-4.55
-4.06
-3.55
-3.01
-2.40
-1.71
-0.99
-0.33
0.18
0.49
0.65
0.74
0.88
1.16
1.63
2.21
2.81
3.34
3.71
3.91
3.94
3.84
3.62
3.28
2.84
2.32
1.79
1.32
0.99
0.80
0.76
0.79
0.83
0.82
0.75
0.70
0.77
1.04
1.53
2.15
2.73
3.12
3.25
3.13
2.86
2.52
2.14
1.67
1.04
0.23
-0.69
-1.55
-2.20
-2.54
-2.64
-2.66
-2.79
-3.14
-3.71
-4.33
-4.83
-5.08
-5.07
-4.91
-4.77
-4.76
-4.92
-5.13
-5.25
-5.11
-4.60
-3.76
-2.72
-1.66
-0.77
-0.12
0.31
0.64
1.00
1.44
1.91
2.27
2.43
2.41
2.32
2.29
2.41
2.62
2.82
2.93
2.98
3.06
3.28
3.66
4.08
4.37
4.32
3.84
2.98
1.92
0.91
0.15
-0.20
-0.14
0.24
0.76
1.25
1.60
1.78
1.83
1.83
1.87
1.98
2.16
2.36
2.49
2.52
2.43
2.25
2.04
1.84
1.68
1.52
1.32
1.07
0.78
0.48
0.16
-0.21
-0.67
-1.23
-1.84
-2.43
-2.96
-3.46
-4.06
-4.87
-5.96
-7.22
-8.40
-9.19
-9.36
-8.84
-7.76
-6.40
-5.03
-3.89
-3.06
-2.50
-2.12
-1.85
-1.62
-1.39
-1.11
-0.73
-0.21
0.45
1.20
1.96
2.65
3.25
3.74
4.13
4.44
4.70
4.95
5.22
5.50
5.73
5.81
5.63
5.13
4.38
3.52
2.76
2.24
1.97
1.84
1.69
1.42
1.02
0.57
0.14
-0.26
-0.64
-1.06
-1.43
-1.62
-1.44
-0.82
0.11
1.06
1.70
1.81
1.44
0.80
0.23
-0.07
-0.09
-0.00
-0.05
-0.45
-1.26
-2.37
-3.60
-4.75
-5.74
-6.56
-7.23
-7.76
-8.04
-7.94
-7.35
-6.24
-4.74
-3.08
-1.48
-0.10
1.02
1.91
2.60
3.08
3.31
3.25
2.95
2.53
2.16
1.93
1.90
2.02
2.24
2.55
2.95
3.48
4.08
4.64
5.00
5.04
4.73
4.17
3.52
2.96
2.58
2.40
2.32
2.23
2.05
1.76
1.47
1.30
1.30
1.46
1.61
1.59
1.34
0.87
0.35
-0.08
-0.35
-0.48
-0.55
-0.65
-0.78
-0.91
-1.02
-1.12
-1.23
-1.38
-1.56
-1.79
-2.06
-2.43
-2.95
-3.61
-4.39
-5.14
-5.78
-6.20
-6.39
-6.34
-6.06
-5.57
-4.91
-4.14
-3.35
-2.68
-2.18
-1.81
-1.49
-1.09
-0.59
-0.04
0.43
0.76
0.96
1.17
1.54
2.16
2.93
3.68
4.21
4.44
4.43
4.30
4.20
4.20
4.28
4.39
4.49
4.60
4.71
4.82
4.86
4.79
4.56
4.18
3.70
3.23
2.87
2.68
2.70
2.89
3.10
3.20
3.06
2.70
2.21
1.73
1.40
1.23
1.15
1.04
0.84
0.58
0.32
0.15
0.05
-0.07
-0.34
-0.82
-1.49
-2.26
-3.01
-3.67
-4.27
-4.88
-5.54
-6.29
-7.04
-7.62
-7.93
-7.88
-7.53
-6.98
-6.35
-5.67
-4.94
-4.11
-3.16
-2.13
-1.17
-0.37
0.24
0.71
1.18
1.75
2.46
3.22
3.91
4.40
4.59
4.49
4.14
3.70
3.32
3.21
3.51
4.24
5.34
6.57
7.70
8.50
8.88
8.84
8.49
7.93
7.23
6.41
5.49
4.50
3.49
2.52
1.67
0.94
0.33
-0.16
-0.53
-0.79
-1.04
-1.40
-2.03
-3.00
-4.22
-5.45
-6.41
-6.93
-7.07
-7.09
-7.30
-7.86
-8.69
-9.44
-9.74
-9.36
-8.30
-6.81
-5.23
-3.84
-2.78
-2.09
-1.72
-1.64
-1.87
-2.39
-3.14
-4.00
-4.77
-5.27
-5.40
-5.18
-4.76
-4.34
-4.08
-4.00
-3.96
-3.71
-3.08
-2.09
-0.94
-0.01
0.45
0.37
-0.08
-0.57
-0.76
-0.47
0.33
1.49
2.80
4.03
4.99
5.55
5.70
5.54
5.20
4.90
4.73
4.76
4.90
5.04
5.05
4.84
4.41
3.78
3.03
2.20
1.33
0.42
-0.54
-1.51
-2.44
-3.28
-3.98
-4.50
-4.84
-4.92
-4.67
-4.01
-2.93
-1.55
-0.08
1.23
2.18
2.68
2.74
2.47
2.01
1.49
1.04
0.75
0.63
0.69
0.85
1.01
1.07
0.98
0.78
0.52
0.36
0.41
0.78
1.43
2.25
3.03
3.59
3.82
3.77
3.55
3.32
3.17
3.11
3.09
3.01
2.78
2.36
1.75
1.00
0.16
-0.70
-1.51
-2.19
-2.70
-3.04
-3.24
-3.40
-3.65
-4.09
-4.82
-5.83
-6.96
-7.97
-8.54
-8.44
-7.65
-6.37
-4.94
-3.75
-2.97
-2.61
-2.52
-2.48
-2.35
-2.09
-1.73
-1.32
-0.89
-0.46
-0.03
0.36
0.70
1.01
1.36
1.80
2.31
2.78
3.12
3.28
3.35
3.46
3.75
4.25
4.87
5.46
5.91
6.19
6.38
6.60
6.93
7.33
7.70
7.90
7.79
7.37
6.70
5.95
5.30
4.86
4.59
4.30
3.75
2.73
1.22
-0.59
-2.34
-3.67
-4.38
-4.52
-4.36
-4.24
-4.40
-4.94
-5.72
-6.58
-7.35
-7.98
-8.50
-8.92
-9.17
-9.14
-8.73
-7.94
-6.89
-5.78
-4.86
-4.23
-3.91
-3.76
-3.59
-3.24
-2.63
-1.75
-0.67
0.51
1.70
2.83
3.85
4.79
5.67
6.47
7.10
7.41
7.23
6.48
5.24
3.78
2.45
1.55
1.26
1.52
2.13
2.85
3.50
4.01
4.37
4.58
4.60
4.37
3.86
3.15
2.41
1.85
1.60
1.71
2.06
2.42
2.59
2.41
1.80
0.79
-0.54
-2.08
-3.69
-5.24
-6.61
-7.69
-8.38
-8.59
-8.20
-7.15
-5.51
-3.49
-1.41
0.42
1.78
2.69
3.28
3.73
4.14
4.53
4.83
5.00
5.06
5.10
5.19
5.38
5.65
5.96
6.26
6.50
6.66
6.67
6.50
6.11
5.52
4.76
3.96
3.22
2.66
2.35
2.35
2.62
3.08
3.58
3.97
4.09
3.87
3.26
2.33
1.22
0.14
-0.74
-1.31
-1.64
-1.91
-2.35
-3.11
-4.21
-5.52
-6.88
-8.12
-9.15
-9.93
-10.46
-10.71
-10.70
-10.49
-10.22
-10.01
-9.91
-9.85
-9.65
-9.10
-8.09
-6.64
-4.89
-3.04
-1.28
0.26
1.55
2.60
3.53
4.39
5.25
6.11
6.86
7.39
7.57
7.37
6.85
6.19
5.65
5.37
5.42
5.69
6.01
6.23
6.29
6.24
6.14
6.05
6.00
6.00
6.11
6.39
6.83
7.28
7.51
7.28
6.56
5.55
4.66
4.22
4.37
4.92
5.51
5.86
5.95
5.97
6.19
6.79
7.69
8.63
9.33
9.59
9.43
9.00
8.53
8.14
7.77
7.19
6.04
4.06
1.17
-2.37
-6.13
-9.56
-12.29
-14.16
-15.23
-15.70
-15.75
-15.53
-15.11
-14.59
-14.00
-13.35
-12.57
-11.54
-10.21
-8.64
-7.04
-5.65
-4.69
-4.20
-4.06
-4.04
-3.93
-3.67
-3.33
-3.00
-2.72
-2.48
-2.15
-1.60
-0.81
0.11
0.96
1.51
1.56
1.06
0.11
-1.08
-2.22
-3.05
-3.37
-3.12
-2.33
-1.15
0.26
1.68
2.93
3.87
4.37
4.43
4.15
3.71
3.33
3.16
3.29
3.69
4.25
4.84
5.35
5.65
5.64
5.21
4.29
2.89
1.12
-0.83
-2.76
-4.50
-5.97
-7.19
-8.20
-9.03
-9.63
-9.97
-10.01
-9.81
-9.46
-9.10
-8.77
-8.41
-7.90
-7.11
-6.00
-4.62
-3.08
-1.51
-0.06
1.16
2.04
2.50
2.54
2.26
1.88
1.68
1.91
2.70
4.00
5.61
7.21
8.49
9.22
9.31
8.82
7.96
6.99
6.14
5.51
5.07
4.64
4.04
3.11
1.87
0.43
-0.96
-2.09
-2.85
-3.30
-3.59
-3.89
-4.32
-4.85
-5.35
-5.72
-5.89
-5.97
-6.14
-6.63
-7.59
-8.99
-10.58
-11.93
-12.57
-12.07
-10.27
-7.30
-3.60
0.17
3.35
5.38
6.02
5.34
3.73
1.79
0.21
-0.45
0.13
1.91
4.49
7.21
9.35
10.30
9.74
7.74
4.77
1.53
-1.19
-2.76
-2.85
-1.50
0.89
3.66
6.10
7.59
7.81
6.80
4.94
2.77
0.86
-0.44
-1.01
-0.96
-0.51
0.12
0.77
1.37
1.84
2.13
2.15
1.86
1.30
0.57
-0.19
-0.86
-1.36
-1.65
-1.74
-1.62
-1.25
-0.55
0.52
1.94
3.61
5.30
6.80
7.90
8.48
8.50
7.99
6.99
5.59
3.90
2.09
0.43
-0.81
-1.44
-1.44
-0.98
-0.40
-0.02
-0.07
-0.60
-1.56
-2.79
-4.17
-5.62
-7.06
-8.38
-9.43
-10.06
-10.23
-10.03
-9.65
-9.37
-9.39
-9.81
-10.53
-11.33
-11.86
-11.87
-11.20
-9.93
-8.32
-6.80
-5.76
-5.45
-5.88
-6.76
-7.62
-7.98
-7.53
-6.21
-4.27
-2.06
0.05
1.83
3.22
4.30
5.16
5.96
6.83
7.90
9.21
10.72
12.16
13.16
13.33
12.46
10.64
8.21
5.65
3.44
1.86
1.06
0.96
1.46
2.40
3.64
5.02
6.35
7.45
8.06
7.98
7.01
5.14
2.57
-0.32
-3.01
-5.03
-6.12
-6.25
-5.60
-4.48
-3.22
-2.10
-1.38
-1.20
-1.62
-2.53
-3.73
-4.91
-5.79
-6.16
-5.90
-5.04
-3.64
-1.90
-0.03
1.69
3.00
3.69
3.73
3.22
2.40
1.55
0.91
0.57
0.55
0.75
1.09
1.49
1.91
2.28
2.53
2.62
2.54
2.33
2.10
1.91
1.80
1.72
1.57
1.34
1.09
1.00
1.29
2.14
3.58
5.44
7.43
9.17
10.35
10.82
10.69
10.28
10.07
10.47
11.74
13.89
16.68
19.71
22.51
24.62
25.71
25.57
24.20
21.76
18.51
14.71
10.55
6.15
1.69
-2.57
-6.24
-8.96
-10.55
-11.18
-11.32
-11.55
-12.34
-13.88
-16.10
-18.84
-21.91
-25.22
-28.69
-32.06
-34.80
-36.16
-35.42
-32.19
-26.63
-19.48
-11.85
-4.88
0.54
3.95
5.33
5.00
3.50
1.39
-0.79
-2.60
-3.77
-4.22
-3.95
-3.09
-1.76
-0.14
1.53
2.98
3.88
4.06
3.60
2.80
2.10
1.86
2.19
2.90
3.60
3.89
3.51
2.47
1.04
-0.42
-1.57
-2.22
-2.35
-2.10
-1.68
-1.26
-0.95
-0.71
-0.48
-0.16
0.25
0.64
0.93
1.00
0.89
0.69
0.56
0.62
0.90
1.32
1.71
1.91
1.81
1.49
1.13
0.96
1.10
1.56
2.18
2.72
2.95
2.78
2.27
1.60
1.01
0.70
0.76
1.15
1.70
2.18
2.34
2.04
1.26
0.08
-1.30
-2.68
-3.89
-4.80
-5.38
-5.63
-5.60
-5.32
-4.86
-4.27
-3.64
-3.07
-2.60
-2.25
-2.00
-1.83
-1.73
-1.74
-1.91
-2.26
-2.74
-3.24
-3.67
-3.98
-4.16
-4.19
-4.02
-3.55
-2.73
-1.59
-0.28
0.96
1.96
2.68
3.22
3.74
4.32
4.95
5.44
5.63
5.49
5.12
4.78
4.64
4.76
5.06
5.35
5.54
5.60
5.61
5.64
5.69
5.69
5.56
5.24
4.79
4.30
3.89
3.62
3.44
3.29
3.05
2.64
2.02
1.22
0.34
-0.47
-1.04
-1.33
-1.41
-1.46
-1.67
-2.12
-2.76
-3.40
-3.84
-4.04
-4.07
-4.12
-4.31
-4.69
-5.17
-5.67
-6.14
-6.64
-7.21
-7.88
-8.57
-9.11
-9.41
-9.43
-9.24
-8.94
-8.55
-8.02
-7.28
-6.24
-4.88
-3.29
-1.56
0.16
1.73
3.01
3.88
4.30
4.37
4.27
4.20
4.32
4.63
5.01
5.28
5.31
5.10
4.77
4.54
4.58
4.97
5.65
6.49
7.26
7.77
7.92
7.70
7.19
6.54
5.92
5.43
5.18
5.21
5.51
6.03
6.67
7.25
7.61
7.58
7.10
6.29
5.31
4.35
3.52
2.78
2.01
1.09
0.01
-1.14
-2.20
-3.04
-3.59
-3.88
-4.02
-4.07
-4.13
-4.28
-4.57
-5.07
-5.81
-6.77
-7.85
-8.91
-9.80
-10.37
-10.47
-10.02
-8.99
-7.48
-5.77
-4.16
-2.94
-2.22
-1.90
-1.79
-1.64
-1.32
-0.79
-0.11
0.65
1.46
2.31
3.21
4.12
5.01
5.83
6.59
7.25
7.79
8.12
8.19
7.99
7.63
7.24
6.96
6.79
6.61
6.30
5.76
5.06
4.34
3.77
3.42
3.22
3.04
2.76
2.39
1.98
1.62
1.32
0.99
0.48
-0.31
-1.32
-2.37
-3.20
-3.60
-3.55
-3.20
-2.83
-2.72
-2.98
-3.57
-4.27
-4.86
-5.24
-5.43
-5.55
-5.71
-5.90
-6.01
-5.81
-5.13
-3.93
-2.24
-0.23
1.95
4.15
6.23
8.00
9.21
9.64
9.17
7.99
6.63
5.90
6.56
9.05
13.23
18.35
23.27
26.80
28.07
26.66
22.75
16.97
10.33
3.91
-1.34
-4.91
-6.85
-7.72
-8.34
-9.40
-11.10
-13.15
-14.91
-15.83
-15.74
-14.96
-14.10
-13.72
-14.10
-15.12
-16.34
-17.32
-17.70
-17.35
-16.28
-14.55
-12.26
-9.55
-6.70
-4.11
-2.29
-1.60
-2.16
-3.74
-5.85
-7.89
-9.39
-10.13
-10.13
-9.55
-8.56
-7.31
-5.91
-4.51
-3.32
-2.57
-2.41
-2.80
-3.53
-4.29
-4.80
-4.90
-4.55
-3.78
-2.64
-1.15
0.64
2.62
4.57
6.23
7.37
7.86
7.71
7.11
6.31
5.56
5.02
4.76
4.74
4.85
4.99
5.11
5.18
5.22
5.27
5.31
5.30
5.18
4.86
4.30
3.55
2.72
2.00
1.60
1.64
2.07
2.71
3.25
3.36
2.84
1.67
0.03
-1.75
-3.31
-4.33
-4.64
-4.25
-3.31
-2.06
-0.68
0.64
1.88
3.00
3.94
4.57
4.74
4.33
3.34
1.96
0.51
-0.69
-1.37
-1.45
-1.09
-0.54
-0.12
-0.02
-0.23
-0.62
-0.95
-1.06
-0.90
-0.61
-0.40
-0.45
-0.73
-1.00
-0.93
-0.23
1.12
2.88
4.55
5.63
5.77
4.93
3.33
1.43
-0.30
-1.45
-1.76
-1.16
0.20
1.94
3.47
4.12
3.42
1.24
-1.99
-5.54
-8.52
-10.35
-10.90
-10.53
-9.84
-9.36
-9.31
-9.50
-9.53
-9.03
-7.89
-6.29
-4.62
-3.20
-2.19
-1.52
-0.96
-0.31
0.51
1.45
2.38
3.21
3.99
4.82
5.83
7.03
8.27
9.34
10.00
10.16
9.88
9.37
8.87
8.60
8.63
8.88
9.26
9.70
10.25
10.97
11.94
13.18
14.63
16.15
17.61
18.85
19.73
20.16
20.17
19.88
19.43
18.93
18.30
17.22
15.31
12.32
8.36
3.91
-0.37
-3.88
-6.37
-7.97
-9.08
-10.13
-11.41
-12.96
-14.67
-16.38
-17.99
-19.58
-21.28
-23.24
-25.48
-27.84
-30.01
-31.55
-32.10
-31.40
-29.40
-26.20
-22.01
-17.12
-11.88
-6.74
-2.21
1.22
3.25
3.86
3.36
2.29
1.25
0.67
0.71
1.24
1.95
2.54
2.83
2.83
2.62
2.25
1.65
0.72
-0.61
-2.21
-3.79
-4.99
-5.57
-5.51
-5.04
-4.45
-3.91
-3.47
-3.01
-2.43
-1.82
-1.39
-1.41
-2.07
-3.29
-4.77
-6.02
-6.53
-5.96
-4.24
-1.64
1.35
4.13
6.26
7.58
8.28
8.76
9.43
10.44
11.69
12.80
13.37
13.16
12.19
10.72
9.16
7.93
7.37
7.74
9.14
11.45
14.31
17.07
18.96
19.40
18.21
15.71
12.62
9.65
7.27
5.48
3.96
2.27
0.12
-2.58
-5.80
-9.49
-13.63
-18.15
-22.75
-26.84
-29.74
-30.83
-29.82
-26.85
-22.42
-17.24
-12.09
-7.65
-4.41
-2.60
-2.18
-2.79
-3.94
-5.09
-5.92
-6.21
-5.93
-5.02
-3.45
-1.24
1.39
4.00
6.06
7.14
7.12
6.22
4.95
3.86
3.33
3.51
4.26
5.28
6.22
6.75
6.66
5.96
4.84
3.62
2.64
2.10
2.00
2.12
2.18
1.96
1.38
0.56
-0.27
-0.88
-1.17
-1.12
-0.84
-0.45
-0.02
0.39
0.78
1.08
1.26
1.26
1.12
0.96
0.94
1.19
1.77
2.59
3.54
4.45
5.18
5.64
5.77
5.55
5.06
4.45
3.88
3.48
3.29
3.24
3.19
2.98
2.57
2.00
1.41
0.92
0.64
0.53
0.48
0.32
-0.10
-0.78
-1.64
-2.49
-3.18
-3.61
-3.82
-3.92
-4.05
-4.31
-4.74
-5.35
-6.07
-6.77
-7.25
-7.30
-6.75
-5.62
-4.06
-2.36
-0.75
0.64
1.85
2.99
4.13
5.21
6.11
6.72
7.04
7.18
7.36
7.67
8.09
8.50
8.70
8.61
8.26
7.76
7.23
6.71
6.15
5.48
4.67
3.78
2.96
2.29
1.81
1.44
1.05
0.57
0.03
-0.50
-0.94
-1.25
-1.42
-1.46
-1.35
-1.02
-0.48
0.20
0.83
1.24
1.33
1.12
0.75
0.42
0.27
0.30
0.43
0.49
0.31
-0.23
-1.21
-2.55
-4.09
-5.61
-6.83
-7.60
-7.81
-7.53
-6.84
-5.87
-4.72
-3.49
-2.25
-1.10
-0.10
0.75
1.44
2.04
2.61
3.19
3.81
4.41
4.92
5.20
5.14
4.67
3.87
2.90
2.02
1.42
1.18
1.27
1.54
1.83
2.03
2.09
2.00
1.78
1.38
0.81
0.07
-0.76
-1.57
-2.26
-2.79
-3.21
-3.56
-3.89
-4.17
-4.33
-4.27
-4.00
-3.65
-3.46
-3.60
-4.14
-4.94
-5.70
-6.12
-6.04
-5.47
-4.58
-3.63
-2.84
-2.31
-2.02
-1.85
-1.66
-1.32
-0.79
-0.03
0.88
1.88
2.91
3.91
4.88
5.81
6.68
7.41
7.88
7.97
7.56
6.68
5.47
4.17
3.03
2.22
1.76
1.52
1.36
1.17
0.98
0.91
1.10
1.53
2.02
2.27
2.06
1.32
0.20
-1.06
-2.17
-2.95
-3.33
-3.25
-2.78
-2.00
-1.14
-0.50
-0.37
-0.88
-1.90
-3.12
-4.16
-4.82
-5.11
-5.25
-5.43
-5.72
-6.05
-6.27
-6.29
-6.11
-5.76
-5.26
-4.55
-3.54
-2.20
-0.59
1.13
2.84
4.45
5.89
7.09
7.92
8.20
7.84
6.93
5.75
4.69
4.09
4.15
4.84
5.98
7.29
8.45
9.08
8.86
7.57
5.24
2.23
-0.86
-3.39
-4.91
-5.37
-5.08
-4.55
-4.18
-4.12
-4.26
-4.37
-4.34
-4.26
-4.37
-4.83
-5.64
-6.50
-7.02
-6.93
-6.12
-4.76
-3.11
-1.41
0.23
1.80
3.30
4.70
5.85
6.54
6.61
5.96
4.66
2.94
1.17
-0.22
-0.92
-0.83
-0.09
1.01
2.14
3.12
3.97
4.75
5.46
5.95
5.95
5.31
4.09
2.68
1.56
1.12
1.42
2.13
2.73
2.74
1.98
0.60
-1.05
-2.56
-3.66
-4.25
-4.36
-4.07
-3.64
-3.45
-4.00
-5.64
-8.24
-11.01
-12.62
-11.78
-7.84
-1.21
6.77
14.49
20.66
24.82
27.13
28.04
27.89
26.82
25.11
23.31
22.37
23.27
26.66
32.56
40.42
49.36
58.55
67.44
75.93
84.35
93.28
103.33
114.78
127.29
139.99
151.70
161.55
169.46
176.18
182.95
190.77
199.76
208.77
215.47
216.83
209.80
192.07
162.70
122.72
75.12
24.37
-24.75
-68.37
-104.58
-133.57
-157.00
-176.90
-194.64
-210.65
-224.90
-237.69
-250.19
-264.31
-281.75
-303.07
-326.95
-350.64
-371.01
-385.94
-395.06
-399.47
-400.80
-399.79
-395.50
-385.31
-365.90
-334.40
-289.31
-231.13
-162.63
-88.85
-16.66
46.41
94.03
123.14
135.11
135.28
130.86
127.97
129.34
133.89
138.20
138.98
135.11
128.08
120.82
115.86
113.96
114.05
114.24
113.11
110.50
107.49
105.35
104.64
104.67
103.82
100.47
93.91
84.81
74.99
66.62
61.16
58.86
58.66
58.81
57.69
54.48
49.38
43.35
37.60
32.98
29.76
27.65
26.12
24.61
22.77
20.37
17.34
13.62
9.31
4.61
-0.15
-4.54
-8.20
-10.93
-12.70
-13.68
-14.18
-14.59
-15.29
-16.56
-18.37
-20.41
-22.10
-22.81
-22.20
-20.35
-17.73
-15.03
-12.76
-11.09
-9.80
-8.53
-7.02
-5.24
-3.39
-1.77
-0.55
0.27
0.87
1.46
2.22
3.17
4.28
5.41
6.41
7.16
7.58
7.67
7.52
7.27
7.10
7.08
7.20
7.31
7.29
7.10
6.81
6.61
6.65
6.98
7.45
7.84
7.97
7.77
7.35
6.85
6.45
6.18
5.97
5.76
5.54
5.37
5.38
5.62
6.02
6.38
6.51
6.29
5.78
5.14
4.52
3.96
3.38
2.63
1.67
0.59
-0.39
-1.09
-1.50
-1.84
-2.41
-3.45
-4.95
-6.65
-8.17
-9.27
-9.91
-10.29
-10.62
-10.98
-11.19
-10.96
-10.05
-8.47
-6.54
-4.70
-3.33
-2.57
-2.30
-2.26
-2.18
-1.92
-1.47
-0.84
-0.06
0.89
1.95
3.01
3.89
4.46
4.71
4.79
4.95
5.44
6.31
7.45
8.60
9.47
9.92
9.94
9.63
9.19
8.78
8.56
8.65
9.05
9.65
10.20
10.42
10.12
9.30
8.18
7.09
6.32
5.94
5.82
5.69
5.31
4.61
3.63
2.53
1.47
0.51
-0.35
-1.12
-1.86
-2.52
-3.07
-3.46
-3.70
-3.91
-4.31
-5.13
-6.46
-8.23
-10.16
-11.88
-12.99
-13.24
-12.56
-11.12
-9.23
-7.24
-5.46
-4.10
-3.17
-2.55
-1.98
-1.21
-0.11
1.27
2.74
4.00
4.81
5.08
4.96
4.76
4.81
5.30
6.19
7.20
7.97
8.19
7.78
6.87
5.76
4.81
4.24
4.20
4.68
5.59
6.77
7.98
8.98
9.58
9.69
9.39
8.84
8.23
7.66
7.08
6.35
5.24
3.60
1.41
-1.17
-3.88
-6.45
-8.66
-10.48
-11.97
-13.25
-14.34
-15.18
-15.61
-15.48
-14.76
-13.52
-11.94
-10.22
-8.58
-7.17
-6.16
-5.68
-5.75
-6.24
-6.93
-7.53
-7.81
-7.66
-7.03
-5.90
-4.15
-1.72
1.32
4.65
7.69
9.87
10.84
10.67
9.76
8.59
7.44
6.23
4.71
2.74
0.50
-1.48
-2.50
-2.17
-0.58
1.67
3.73
4.87
4.76
3.46
1.33
-1.22
-3.83
-6.17
-7.95
-8.88
-8.76
-7.64
-5.79
-3.70
-1.87
-0.63
-0.05
0.03
-0.17
-0.46
-0.79
-1.20
-1.77
-2.52
-3.37
-4.12
-4.56
-4.46
-3.79
-2.69
-1.54
-0.78
-0.75
-1.57
-3.08
-4.92
-6.66
-7.93
-8.52
-8.36
-7.57
-6.34
-4.89
-3.46
-2.19
-1.11
-0.15
0.80
1.87
3.11
4.53
6.08
7.63
9.02
10.08
10.60
10.43
9.53
7.99
6.04
4.01
2.34
1.38
1.39
2.33
3.90
5.56
6.68
6.85
5.99
4.39
2.59
1.16
0.51
0.75
1.77
3.28
4.92
6.29
7.05
6.96
5.96
4.29
2.39
0.81
-0.06
-0.08
0.59
1.56
2.44
2.97
3.02
2.66
2.01
1.20
0.29
-0.75
-2.00
-3.56
-5.40
-7.38
-9.25
-10.73
-11.61
-11.79
-11.34
-10.31
-8.78
-6.78
-4.42
-1.92
0.34
1.97
2.66
2.41
1.47
0.30
-0.65
-1.06
-0.87
-0.24
0.57
1.31
1.79
1.92
1.78
1.50
1.29
1.34
1.80
2.71
3.99
5.50
7.02
8.30
9.08
9.23
8.75
7.87
6.92
6.22
5.91
5.93
6.01
5.83
5.14
3.87
2.09
0.00
-2.17
-4.17
-5.73
-6.60
-6.70
-6.10
-5.08
-4.06
-3.49
-3.62
-4.46
-5.73
-6.97
-7.74
-7.72
-6.91
-5.57
-4.10
-2.85
-2.04
-1.64
-1.51
-1.45
-1.33
-1.09
-0.78
-0.48
-0.29
-0.35
-0.76
-1.52
-2.48
-3.32
-3.69
-3.31
-2.15
-0.43
1.48
3.22
4.52
5.25
5.38
4.96
4.12
3.00
1.77
0.57
-0.57
-1.63
-2.61
-3.42
-3.94
-4.06
-3.76
-3.20
-2.58
-2.09
-1.82
-1.70
-1.70
-1.81
-2.08
-2.63
-3.49
-4.55
-5.60
-6.41
-6.77
-6.63
-6.09
-5.28
-4.39
-3.52
-2.70
-1.93
-1.22
-0.58
-0.09
0.21
0.35
0.39
0.45
0.66
1.04
1.56
2.11
2.59
2.87
2.90
2.72
2.44
2.29
2.52
3.26
4.49
5.94
7.25
8.10
8.34
8.12
7.74
7.50
7.57
7.92
8.38
8.77
8.97
9.01
8.90
8.68
8.27
7.58
6.53
5.10
3.38
1.53
-0.28
-2.00
-3.65
-5.37
-7.25
-9.24
-11.08
-12.35
-12.64
-11.72
-9.70
-7.00
-4.17
-1.75
-0.00
1.03
1.51
1.68
1.75
1.87
2.14
2.61
3.27
4.00
4.63
5.01
5.08
5.00
5.06
5.55
6.60
8.05
9.52
10.49
10.54
9.51
7.52
4.95
2.28
-0.06
-1.77
-2.78
-3.26
-3.48
-3.80
-4.52
-5.79
-7.62
-9.84
-12.13
-14.12
-15.41
-15.70
-14.93
-13.30
-11.23
-9.18
-7.51
-6.35
-5.60
-5.06
-4.53
-3.94
-3.31
-2.78
-2.45
-2.41
-2.64
-3.09
-3.57
-3.84
-3.67
-2.93
-1.65
-0.11
1.38
2.55
3.30
3.76
4.14
4.63
5.28
5.94
6.39
6.48
6.19
5.64
5.01
4.40
3.81
3.18
2.49
1.83
1.39
1.30
1.60
2.15
2.74
3.15
3.34
3.37
3.37
3.44
3.54
3.59
3.50
3.28
3.10
3.17
3.69
4.72
6.18
7.82
9.36
10.55
11.25
11.45
11.30
10.97
10.71
10.69
11.04
11.67
12.32
12.58
12.01
10.36
7.69
4.36
0.93
-2.13
-4.56
-6.35
-7.70
-8.77
-9.66
-10.42
-11.11
-11.85
-12.78
-13.88
-14.99
-15.78
-15.92
-15.31
-14.08
-12.50
-10.85
-9.18
-7.36
-5.17
-2.49
0.54
3.56
6.11
7.83
8.63
8.59
7.97
6.95
5.66
4.20
2.65
1.20
0.08
-0.55
-0.66
-0.42
-0.03
0.35
0.70
1.09
1.62
2.29
3.01
3.61
3.98
4.04
3.76
3.20
2.37
1.41
0.47
-0.25
-0.60
-0.53
-0.14
0.32
0.63
0.60
0.23
-0.38
-1.01
-1.44
-1.53
-1.21
-0.55
0.29
1.08
1.62
1.74
1.40
0.67
-0.30
-1.39
-2.52
-3.66
-4.86
-6.10
-7.35
-8.49
-9.39
-9.92
-10.05
-9.78
-9.12
-8.07
-6.66
-4.97
-3.21
-1.70
-0.75
-0.52
-0.97
-1.81
-2.66
-3.14
-3.08
-2.55
-1.78
-1.05
-0.53
-0.29
-0.22
-0.20
-0.10
0.14
0.53
1.03
1.61
2.24
2.85
3.34
3.58
3.47
3.00
2.30
1.63
1.27
1.43
2.13
3.18
4.27
5.11
5.55
5.59
5.39
5.12
4.90
4.80
4.85
5.09
5.57
6.34
7.36
8.50
9.49
10.08
10.07
9.38
8.08
6.33
4.38
2.48
0.88
-0.25
-0.88
-1.11
-1.14
-1.16
-1.29
-1.51
-1.74
-1.84
-1.76
-1.59
-1.50
-1.74
-2.55
-4.05
-6.22
-8.88
-11.68
-14.32
-16.60
-18.48
-20.03
-21.33
-22.41
-23.18
-23.56
-23.43
-22.67
-21.09
-18.48
-14.73
-9.94
-4.61
0.50
4.57
7.11
8.06
7.78
6.76
5.37
3.80
2.16
0.67
-0.22
-0.02
1.52
4.17
7.24
9.79
11.06
10.73
9.03
6.62
4.26
2.53
1.68
1.63
2.02
2.43
2.52
2.17
1.47
0.62
-0.16
-0.76
-1.21
-1.61
-2.02
-2.44
-2.85
-3.21
-3.53
-3.82
-4.07
-4.18
-4.01
-3.46
-2.57
-1.50
-0.47
0.33
0.84
1.14
1.32
1.43
1.45
1.35
1.18
1.08
1.18
1.56
2.16
2.81
3.30
3.50
3.44
3.21
2.95
2.79
2.77
2.96
3.36
3.88
4.35
4.50
4.10
3.11
1.79
0.56
-0.12
-0.05
0.60
1.34
1.64
1.25
0.30
-0.80
-1.59
-1.84
-1.67
-1.44
-1.51
-2.05
-2.90
-3.80
-4.54
-5.04
-5.41
-5.78
-6.19
-6.59
-6.86
-6.99
-7.09
-7.32
-7.79
-8.42
-8.98
-9.12
-8.60
-7.37
-5.59
-3.51
-1.43
0.46
2.03
3.20
3.94
4.21
4.09
3.71
3.28
3.00
3.01
3.28
3.76
4.32
4.91
5.51
6.17
6.87
7.49
7.86
7.84
7.39
6.67
5.94
5.49
5.46
5.77
6.16
6.36
6.21
5.72
5.05
4.34
3.67
3.03
2.39
1.77
1.27
0.98
0.97
1.15
1.34
1.34
1.05
0.49
-0.17
-0.74
-1.11
-1.27
-1.32
-1.41
-1.64
-2.02
-2.55
-3.22
-4.04
-5.03
-6.13
-7.16
-7.86
-7.95
-7.34
-6.15
-4.66
-3.21
-2.00
-1.08
-0.33
0.36
1.03
1.60
1.95
1.98
1.77
1.50
1.39
1.59
2.08
2.70
3.20
3.42
3.34
3.11
2.92
2.98
3.31
3.80
4.26
4.50
4.47
4.21
3.86
3.54
3.31
3.18
3.13
3.12
3.08
2.99
2.79
2.48
2.08
1.68
1.35
1.16
1.11
1.13
1.15
1.08
0.90
0.63
0.27
-0.22
-0.91
-1.91
-3.21
-4.68
-6.00
-6.79
-6.81
-6.09
-4.97
-3.93
-3.41
-3.49
-3.91
-4.15
-3.72
-2.40
-0.33
2.11
4.54
6.68
8.45
9.81
10.72
11.13
11.12
11.00
11.28
12.44
14.53
17.04
18.98
19.32
17.56
14.01
9.63
5.60
2.71
1.03
0.03
-1.03
-2.55
-4.45
-6.19
-7.10
-6.83
-5.41
-3.29
-1.00
1.08
2.83
4.33
5.64
6.56
6.71
5.68
3.29
-0.12
-3.78
-6.81
-8.55
-8.91
-8.27
-7.23
-6.27
-5.51
-4.85
-4.17
-3.59
-3.39
-3.85
-4.96
-6.34
-7.34
-7.40
-6.27
-4.14
-1.57
0.82
2.58
3.52
3.82
3.76
3.68
3.81
4.19
4.69
5.00
4.81
3.85
2.05
-0.40
-3.10
-5.51
-7.11
-7.59
-6.97
-5.64
-4.30
-3.62
-4.00
-5.28
-6.84
-7.90
-7.90
-6.76
-4.89
-2.87
-1.13
0.23
1.40
2.60
3.81
4.77
5.13
4.67
3.52
2.07
0.82
0.19
0.38
1.34
2.83
4.45
5.75
6.36
6.09
5.03
3.46
1.80
0.39
-0.59
-1.11
-1.28
-1.23
-1.10
-1.01
-1.15
-1.72
-2.90
-4.74
-7.09
-9.55
-11.59
-12.61
-12.20
-10.29
-7.20
-3.62
-0.39
1.75
2.43
1.73
0.16
-1.65
-3.13
-3.98
-4.20
-3.88
-3.07
-1.75
0.18
2.60
5.16
7.25
8.31
8.07
6.74
4.94
3.41
2.66
2.77
3.40
4.08
4.38
4.15
3.52
2.74
2.05
1.62
1.50
1.64
1.94
2.33
2.75
3.23
3.86
4.71
5.73
6.76
7.47
7.52
6.73
5.16
3.05
0.69
-1.73
-4.17
-6.61
-8.87
-10.53
-11.05
-10.02
-7.55
-4.34
-1.46
0.04
-0.39
-2.53
-5.54
-8.35
-10.09
-10.36
-9.30
-7.43
-5.34
-3.47
-2.01
-0.90
0.02
0.88
1.66
2.25
2.51
2.45
2.24
2.09
2.15
2.30
2.28
1.81
0.81
-0.49
-1.62
-2.14
-1.88
-1.04
-0.10
0.41
0.16
-0.84
-2.26
-3.63
-4.56
-4.91
-4.80
-4.52
-4.36
-4.48
-4.83
-5.30
-5.76
-6.11
-6.33
-6.36
-6.09
-5.42
-4.31
-2.88
-1.39
-0.16
0.61
0.89
0.86
0.80
0.95
1.35
1.95
2.56
3.10
3.56
4.07
4.73
5.56
6.41
6.99
6.99
6.25
4.87
3.14
1.43
-0.06
-1.34
-2.59
-3.97
-5.38
-6.50
-6.84
-6.09
-4.27
-1.83
0.59
2.43
3.41
3.59
3.17
2.38
1.34
0.14
-1.09
-2.07
-2.53
-2.34
-1.60
-0.63
0.20
0.64
0.75
0.76
1.03
1.74
2.87
4.11
5.06
5.37
4.93
3.97
2.91
2.22
2.18
2.75
3.60
4.24
4.29
3.61
2.42
1.16
0.26
0.06
0.63
1.79
3.12
4.06
4.05
2.68
-0.08
-3.82
-7.71
-10.75
-12.19
-11.81
-9.96
-7.39
-4.89
-2.97
-1.75
-1.03
-0.53
-0.06
0.42
0.84
1.12
1.29
1.39
1.41
1.25
0.69
-0.49
-2.32
-4.56
-6.67
-8.00
-8.07
-6.81
-4.63
-2.33
-0.75
-0.46
-1.53
-3.44
-5.31
-6.21
-5.49
-2.93
1.18
6.20
11.36
15.94
19.33
21.17
21.32
20.01
17.79
15.48
13.97
13.89
15.27
17.51
19.52
20.20
18.89
15.68
11.34
6.98
3.60
1.69
1.13
1.41
1.88
2.13
1.98
1.50
0.82
0.02
-0.90
-1.93
-2.96
-3.77
-4.09
-3.72
-2.67
-1.18
0.33
1.45
1.85
1.37
0.10
-1.72
-3.73
-5.51
-6.74
-7.20
-6.89
-5.97
-4.73
-3.49
-2.46
-1.68
-1.10
-0.65
-0.29
-0.09
-0.15
-0.56
-1.34
-2.48
-3.84
-5.30
-6.72
-7.96
-8.93
-9.61
-10.02
-10.16
-10.02
-9.53
-8.66
-7.46
-6.14
-5.05
-4.50
-4.70
-5.65
-7.16
-8.96
-10.76
-12.32
-13.42
-13.86
-13.53
-12.43
-10.76
-8.83
-6.92
-5.15
-3.42
-1.56
0.52
2.69
4.61
5.88
6.25
5.74
4.62
3.31
2.16
1.37
0.99
0.97
1.26
1.79
2.49
3.21
3.68
3.61
2.79
1.27
-0.64
-2.40
-3.49
-3.64
-2.98
-1.99
-1.19
-0.92
-1.13
-1.48
-1.53
-1.08
-0.22
0.73
1.45
1.81
1.94
2.02
2.26
2.67
3.19
3.72
4.23
4.78
5.39
6.03
6.55
6.83
6.83
6.68
6.54
6.53
6.61
6.57
6.28
5.70
5.04
4.59
4.58
4.96
5.44
5.60
5.11
3.91
2.23
0.38
-1.37
-2.97
-4.50
-6.06
-7.61
-8.97
-9.92
-10.35
-10.30
-9.95
-9.52
-9.09
-8.63
-8.03
-7.22
-6.27
-5.31
-4.46
-3.71
-2.89
-1.74
-0.08
2.08
4.52
6.92
8.98
10.60
11.95
13.35
15.12
17.29
19.56
21.34
22.07
21.51
19.89
17.88
16.29
15.62
15.93
16.78
17.50
17.49
16.56
14.84
12.71
10.49
8.35
6.30
4.38
2.70
1.44
0.73
0.45
0.26
-0.27
-1.39
-2.97
-4.59
-5.66
-5.82
-5.11
-3.99
-3.06
-2.82
-3.38
-4.51
-5.78
-6.87
-7.72
-8.53
-9.62
-11.20
-13.17
-15.17
-16.69
-17.39
-17.16
-16.23
-15.04
-14.11
-13.83
-14.39
-15.72
-17.49
-19.24
-20.45
-20.75
-19.97
-18.19
-15.74
-13.11
-10.86
-9.48
-9.25
-10.08
-11.45
-12.53
-12.38
-10.38
-6.52
-1.47
3.69
7.89
10.50
11.53
11.50
11.08
10.70
10.35
9.71
8.41
6.35
3.85
1.56
0.14
-0.02
1.07
3.08
5.50
7.87
9.84
11.20
11.81
11.59
10.57
8.94
7.04
5.32
4.15
3.73
4.01
4.76
5.67
6.45
6.91
6.94
6.59
6.05
5.71
5.97
7.10
8.97
10.99
12.24
11.80
9.18
4.59
-1.07
-6.68
-11.26
-14.42
-16.38
-17.72
-19.01
-20.52
-22.14
-23.50
-24.20
-23.95
-22.65
-20.29
-17.00
-12.97
-8.50
-4.02
0.06
3.38
5.85
7.60
8.91
10.08
11.20
12.10
12.48
12.07
10.85
9.18
7.60
6.66
6.63
7.36
8.37
9.08
9.04
8.15
6.59
4.71
2.86
1.26
0.01
-0.90
-1.50
-1.77
-1.68
-1.20
-0.35
0.64
1.49
1.85
1.53
0.53
-0.93
-2.57
-4.17
-5.70
-7.26
-8.97
-10.88
-12.86
-14.66
-16.03
-16.82
-17.04
-16.84
-16.43
-16.01
-15.76
-15.72
-15.80
-15.81
-15.44
-14.49
-12.98
-11.24
-9.77
-9.00
-9.07
-9.57
-9.80
-9.03
-6.85
-3.45
0.50
4.12
6.75
8.10
8.33
7.81
6.87
5.69
4.27
2.61
0.80
-0.87
-2.05
-2.41
-1.85
-0.55
1.12
2.73
3.99
4.87
5.58
6.40
7.53
8.92
10.33
11.39
11.87
11.76
11.32
10.96
11.03
11.65
12.71
13.89
14.91
15.63
16.12
16.57
17.16
17.85
18.42
18.44
17.56
15.61
12.70
9.23
5.74
2.68
0.38
-1.08
-1.75
-1.80
-1.40
-0.80
-0.21
0.17
0.22
-0.09
-0.73
-1.67
-2.87
-4.31
-5.89
-7.46
-8.84
-9.85
-10.49
-10.79
-10.88
-10.77
-10.42
-9.70
-8.51
-6.87
-4.93
-2.86
-0.83
1.09
2.88
4.54
6.08
7.51
8.88
10.22
11.55
12.76
13.66
14.08
14.02
13.70
13.57
14.13
15.64
18.04
20.87
23.35
24.71
24.36
22.15
18.37
13.75
9.21
5.64
3.61
3.23
4.14
5.68
7.11
7.80
7.36
5.62
2.68
-1.17
-5.50
-9.78
-13.48
-16.18
-17.67
-17.99
-17.40
-16.26
-15.02
-14.11
-13.88
-14.55
-16.09
-18.21
-20.40
-22.12
-23.04
-23.13
-22.68
-22.18
-22.05
-22.51
-23.53
-24.83
-26.03
-26.75
-26.66
-25.50
-23.15
-19.70
-15.48
-11.05
-7.03
-3.93
-1.96
-0.95
-0.50
-0.17
0.40
1.35
2.68
4.27
6.00
7.77
9.43
10.80
11.62
11.69
11.01
9.82
8.63
7.98
8.26
9.51
11.36
13.15
14.24
14.20
13.02
11.07
8.93
7.13
5.98
5.47
5.29
5.06
4.48
3.41
1.90
0.10
-1.83
-3.72
-5.42
-6.71
-7.45
-7.56
-7.19
-6.61
-6.18
-6.10
-6.38
-6.84
-7.20
-7.26
-6.90
-6.18
-5.23
-4.24
-3.35
-2.63
-2.05
-1.46
-0.71
0.29
1.46
2.61
3.52
4.12
4.50
4.93
5.70
6.95
8.63
10.45
12.10
13.26
13.76
13.58
12.77
11.43
9.66
7.55
5.24
2.86
0.59
-1.39
-2.96
-4.07
-4.74
-5.01
-4.92
-4.48
-3.75
-2.84
-1.92
-1.17
-0.75
-0.74
-1.10
-1.72
-2.48
-3.26
-3.93
-4.37
-4.46
-4.19
-3.69
-3.20
-3.00
-3.21
-3.73
-4.19
-4.13
-3.21
-1.35
1.14
3.69
5.62
6.30
5.40
3.04
-0.25
-3.57
-5.95
-6.68
-5.50
-2.78
0.69
3.95
6.25
7.22
6.93
5.79
4.30
2.90
1.79
1.04
0.65
0.62
1.03
2.00
3.44
5.12
6.59
7.41
7.36
6.54
5.37
4.33
3.84
3.98
4.61
5.44
6.22
6.80
7.13
7.22
7.01
6.41
5.30
3.64
1.46
-1.09
-3.75
-6.19
-8.06
-9.12
-9.26
-8.58
-7.34
-5.89
-4.57
-3.60
-3.08
-2.96
-3.17
-3.60
-4.19
-4.85
-5.44
-5.80
-5.77
-5.36
-4.80
-4.43
-4.58
-5.30
-6.27
-6.90
-6.64
-5.24
-2.91
-0.18
2.36
4.37
5.84
7.03
8.17
9.34
10.41
11.23
11.72
11.97
12.13
12.35
12.59
12.67
12.39
11.69
10.69
9.69
8.97
8.71
8.89
9.35
9.89
10.35
10.62
10.54
9.97
8.76
6.88
4.53
2.14
0.25
-0.73
-0.75
-0.15
0.44
0.39
-0.65
-2.69
-5.40
-8.31
-11.03
-13.34
-15.19
-16.58
-17.52
-17.98
-17.93
-17.41
-16.53
-15.41
-14.09
-12.52
-10.58
-8.27
-5.83
-3.68
-2.32
-2.09
-2.96
-4.49
-5.97
-6.71
-6.33
-4.89
-2.84
-0.80
0.71
1.47
1.61
1.45
1.35
1.52
1.98
2.62
3.27
3.82
4.22
4.49
4.64
4.67
4.56
4.27
3.81
3.26
2.76
2.45
2.36
2.33
1.99
0.93
-1.05
-3.76
-6.57
-8.66
-9.38
-8.58
-6.58
-4.02
-1.46
0.79
2.77
4.59
6.27
7.61
8.31
8.17
7.24
5.85
4.45
3.41
2.87
2.75
2.84
2.85
2.62
2.07
1.23
0.21
-0.82
-1.69
-2.23
-2.36
-2.10
-1.60
-1.13
-0.94
-1.22
-1.94
-2.96
-4.00
-4.80
-5.18
-5.11
-4.63
-3.83
-2.80
-1.67
-0.61
0.23
0.68
0.72
0.40
-0.09
-0.59
-0.89
-0.95
-0.75
-0.34
0.17
0.65
0.98
1.11
1.12
1.25
1.78
2.85
4.38
6.00
7.22
7.67
7.27
6.25
5.04
4.05
3.51
3.43
3.66
3.98
4.22
4.17
3.74
2.85
1.55
0.02
-1.46
-2.57
-3.05
-2.82
-2.05
-1.05
-0.20
0.25
0.29
0.13
0.04
0.14
0.28
0.12
-0.72
-2.34
-4.47
-6.53
-7.94
-8.40
-8.03
-7.24
-6.49
-5.98
-5.63
-5.23
-4.62
-3.88
-3.24
-2.92
-2.98
-3.30
-3.64
-3.84
-3.82
-3.68
-3.54
-3.44
-3.31
-3.03
-2.50
-1.63
-0.46
0.94
2.41
3.80
4.94
5.71
6.08
6.09
5.86
5.51
5.12
4.70
4.23
3.66
3.01
2.31
1.62
0.95
0.30
-0.47
-1.52
-3.01
-5.06
-7.58
-10.25
-12.59
-14.01
-14.11
-12.85
-10.57
-7.91
-5.53
-3.83
-2.82
-2.15
-1.36
-0.12
1.57
3.45
5.19
6.57
7.61
8.52
9.45
10.39
11.08
11.21
10.58
9.31
7.76
6.44
5.79
5.98
6.98
8.47
10.07
11.41
12.23
12.43
12.11
11.45
10.58
9.55
8.30
6.80
5.09
3.35
1.74
0.29
-1.17
-2.96
-5.34
-8.32
-11.54
-14.42
-16.37
-17.05
-16.47
-14.99
-13.14
-11.45
-10.28
-9.72
-9.64
-9.81
-9.96
-9.94
-9.65
-9.04
-8.06
-6.63
-4.78
-2.70
-0.76
0.58
1.01
0.53
-0.48
-1.36
-1.52
-0.65
1.13
3.37
5.49
7.05
7.91
8.19
8.21
8.30
8.74
9.62
10.85
12.15
13.13
13.46
12.93
11.61
9.76
7.70
5.75
4.06
2.59
1.07
-0.92
-3.75
-7.54
-11.91
-15.98
-18.58
-18.73
-16.08
-11.13
-5.05
0.75
5.19
7.81
8.73
8.47
7.57
6.45
5.31
4.31
3.62
3.43
3.90
4.96
6.25
7.18
7.12
5.77
3.29
0.40
-1.98
-3.10
-2.76
-1.42
0.07
0.90
0.67
-0.48
-2.03
-3.39
-4.21
-4.46
-4.41
-4.39
-4.70
-5.40
-6.37
-7.29
-7.82
-7.74
-7.07
-6.07
-5.17
-4.71
-4.83
-5.36
-5.93
-6.21
-6.03
-5.44
-4.59
-3.61
-2.60
-1.59
-0.64
0.16
0.74
1.03
1.04
0.80
0.37
-0.22
-0.81
-1.23
-1.24
-0.70
0.36
1.68
2.93
3.77
4.05
3.82
3.25
2.56
1.89
1.34
0.96
0.84
1.03
1.55
2.30
3.07
3.58
3.62
3.08
2.00
0.58
-0.88
-2.10
-2.89
-3.20
-3.21
-3.20
-3.41
-3.98
-4.81
-5.66
-6.24
-6.40
-6.14
-5.62
-5.00
-4.34
-3.61
-2.72
-1.65
-0.52
0.45
1.04
1.15
0.85
0.41
0.14
0.35
1.16
2.53
4.22
5.93
7.34
8.29
8.71
8.68
8.30
7.62
6.66
5.42
3.95
2.39
0.91
-0.32
-1.19
-1.63
-1.64
-1.22
-0.42
0.66
1.79
2.66
2.98
2.58
1.57
0.27
-0.89
-1.55
-1.57
-1.06
-0.28
0.44
0.89
1.00
0.87
0.63
0.42
0.30
0.24
0.17
0.02
-0.24
-0.55
-0.80
-0.84
-0.53
0.16
1.11
2.06
2.64
2.57
1.77
0.39
-1.17
-2.51
-3.34
-3.62
-3.54
-3.39
-3.40
-3.62
-3.93
-4.13
-4.07
-3.71
-3.14
-2.48
-1.78
-1.03
-0.20
0.62
1.30
1.65
1.62
1.33
1.09
1.19
1.76
2.66
3.57
4.19
4.41
4.36
4.26
4.23
4.21
4.02
3.52
2.80
2.11
1.75
1.83
2.22
2.61
2.73
2.51
2.10
1.79
1.74
1.95
2.24
2.37
2.19
1.71
1.08
0.50
0.13
0.05
0.21
0.51
0.81
0.95
0.80
0.28
-0.57
-1.59
-2.56
-3.27
-3.59
-3.60
-3.49
-3.54
-3.90
-4.56
-5.34
-5.99
-6.34
-6.36
-6.18
-5.90
-5.58
-5.17
-4.53
-3.61
-2.48
-1.32
-0.33
0.33
0.67
0.82
0.93
1.08
1.31
1.56
1.77
1.93
2.05
2.19
2.37
2.55
2.65
2.59
2.32
1.91
1.44
1.06
0.86
0.85
1.00
1.23
1.49
1.72
1.93
2.11
2.25
2.30
2.16
1.78
1.15
0.34
-0.45
-0.98
-1.12
-0.88
-0.44
-0.08
-0.06
-0.43
-1.04
-1.57
-1.74
-1.44
-0.81
-0.21
-0.00
-0.44
-1.52
-3.05
-4.71
-6.19
-7.32
-8.00
-8.23
-8.05
-7.49
-6.59
-5.41
-4.10
-2.77
-1.54
-0.51
0.29
0.88
1.32
1.68
2.02
2.38
2.76
3.13
3.46
3.73
3.92
4.05
4.15
4.32
4.63
5.14
5.77
6.37
6.72
6.67
6.19
5.44
4.67
4.10
3.81
3.74
3.78
3.87
4.05
4.36
4.82
5.33
5.67
5.61
5.03
3.96
2.53
0.94
-0.63
-1.99
-2.96
-3.41
-3.29
-2.64
-1.68
-0.65
0.23
0.82
1.09
1.08
0.82
0.36
-0.21
-0.80
-1.31
-1.71
-2.03
-2.32
-2.56
-2.73
-2.79
-2.83
-3.02
-3.53
-4.36
-5.21
-5.58
-4.95
-3.06
-0.12
3.29
6.33
8.36
9.11
8.83
8.22
8.08
9.02
11.08
13.69
15.80
16.41
14.95
11.64
7.38
3.35
0.50
-0.74
-0.46
0.97
3.19
5.93
8.97
11.95
14.27
15.21
14.19
11.05
6.20
0.55
-4.85
-9.10
-11.73
-12.75
-12.52
-11.56
-10.37
-9.41
-9.08
-9.74
-11.60
-14.54
-18.00
-21.03
-22.60
-22.13
-19.80
-16.53
-13.58
-11.95
-11.87
-12.79
-13.71
-13.85
-13.02
-11.69
-10.62
-10.36
-10.89
-11.64
-11.90
-11.21
-9.62
-7.65
-5.91
-4.76
-4.12
-3.57
-2.61
-0.97
1.24
3.67
5.88
7.58
8.68
9.24
9.45
9.48
9.48
9.52
9.55
9.41
8.89
7.85
6.33
4.60
3.05
2.02
1.65
1.79
2.11
2.29
2.17
1.81
1.40
1.12
1.05
1.11
1.15
1.04
0.76
0.40
0.09
-0.08
-0.18
-0.37
-0.87
-1.83
-3.22
-4.88
-6.51
-7.86
-8.72
-8.97
-8.61
-7.68
-6.27
-4.56
-2.78
-1.17
0.11
1.02
1.65
2.20
2.80
3.46
4.08
4.51
4.69
4.72
4.82
5.23
6.00
6.97
7.79
8.15
7.93
7.30
6.59
6.12
6.04
6.24
6.46
6.49
6.25
5.82
5.38
5.03
4.84
4.77
4.78
4.85
4.98
5.15
5.25
5.21
4.97
4.52
3.92
3.22
2.46
1.63
0.78
-0.02
-0.65
-1.08
-1.37
-1.67
-2.13
-2.74
-3.42
-4.02
-4.43
-4.66
-4.85
-5.18
-5.70
-6.42
-7.22
-8.02
-8.79
-9.49
-10.09
-10.47
-10.49
-10.06
-9.19
-7.99
-6.62
-5.19
-3.73
-2.20
-0.56
1.14
2.77
4.10
4.97
5.29
5.15
4.77
4.38
4.18
4.28
4.67
5.27
5.95
6.60
7.13
7.47
7.60
7.50
7.22
6.85
6.50
6.26
6.17
6.17
6.16
5.99
5.61
5.07
4.47
3.97
3.65
3.49
3.42
3.31
3.09
2.77
2.34
1.86
1.33
0.77
0.21
-0.28
-0.63
-0.81
-0.85
-0.83
-0.85
-0.99
-1.27
-1.67
-2.12
-2.57
-2.99
-3.39
-3.81
-4.28
-4.84
-5.52
-6.29
-7.13
-7.99
-8.81
-9.53
-10.06
-10.31
-10.25
-9.93
-9.40
-8.73
-7.88
-6.76
-5.27
-3.43
-1.45
0.35
1.65
2.25
2.19
1.70
1.08
0.58
0.33
0.36
0.69
1.32
2.23
3.35
4.56
5.72
6.77
7.69
8.51
9.18
9.62
9.73
9.45
8.79
7.88
6.82
5.71
4.57
3.42
2.32
1.39
0.76
0.43
0.29
0.15
-0.14
-0.61
-1.17
-1.70
-2.17
-2.65
-3.28
-4.12
-5.07
-5.89
-6.33
-6.28
-5.85
-5.31
-4.91
-4.72
-4.57
-4.21
-3.51
-2.58
-1.75
-1.34
-1.50
-2.02
-2.56
-2.76
-2.52
-2.03
-1.72
-1.99
-3.03
-4.64
-6.32
-7.40
-7.36
-6.04
-3.69
-0.86
1.83
3.97
5.47
6.51
7.33
8.07
8.69
9.06
9.06
8.70
8.09
7.37
6.62
5.84
4.99
4.06
3.06
2.04
1.06
0.18
-0.53
-0.96
-1.06
-0.79
-0.17
0.71
1.73
2.82
3.97
5.16
6.37
7.53
8.46
8.91
8.61
7.37
5.31
2.89
0.87
0.07
1.13
4.16
8.76
14.11
19.19
23.06
24.96
24.38
21.15
15.45
8.04
0.13
-6.84
-11.67
-13.89
-13.83
-12.45
-10.86
-9.89
-9.82
-10.50
-11.55
-12.66
-13.64
-14.45
-15.02
-15.27
-15.06
-14.23
-12.69
-10.51
-7.95
-5.43
-3.51
-2.63
-2.92
-4.11
-5.61
-6.76
-7.09
-6.56
-5.46
-4.19
-3.10
-2.29
-1.69
-1.23
-0.87
-0.63
-0.55
-0.66
-0.85
-1.02
-1.07
-0.90
-0.43
0.40
1.57
2.95
4.27
5.20
5.53
5.17
4.28
3.14
2.02
1.08
0.36
-0.15
-0.44
-0.50
-0.33
-0.02
0.26
0.36
0.22
-0.04
-0.20
-0.04
0.49
1.23
1.89
2.20
2.08
1.67
1.21
0.94
0.88
0.92
0.82
0.44
-0.17
-0.81
-1.19
-1.11
-0.50
0.49
1.61
2.58
3.15
3.22
2.83
2.15
1.38
0.71
0.23
-0.04
-0.14
-0.02
0.42
1.29
2.56
4.03
5.34
6.06
5.97
5.09
3.72
2.28
1.14
0.43
0.09
-0.07
-0.28
-0.65
-1.19
-1.80
-2.33
-2.69
-2.83
-2.76
-2.48
-2.01
-1.38
-0.62
0.15
0.79
1.21
1.37
1.29
1.03
0.62
0.10
-0.54
-1.18
-1.66
-1.77
-1.38
-0.54
0.58
1.73
2.77
3.62
4.29
4.72
4.76
4.28
3.21
1.74
0.25
-0.88
-1.45
-1.55
-1.48
-1.56
-1.96
-2.56
-3.11
-3.37
-3.32
-3.14
-3.13
-3.52
-4.31
-5.24
-5.89
-5.89
-5.06
-3.56
-1.73
-0.00
1.38
2.39
3.17
3.84
4.41
4.73
4.59
3.92
2.85
1.67
0.69
0.05
-0.28
-0.51
-0.85
-1.41
-2.14
-2.89
-3.49
-3.81
-3.86
-3.78
-3.70
-3.80
-4.14
-4.75
-5.59
-6.58
-7.68
-8.78
-9.77
-10.48
-10.79
-10.66
-10.14
-9.33
-8.34
-7.27
-6.14
-4.99
-3.82
-2.59
-1.24
0.37
2.30
4.49
6.67
8.44
9.38
9.26
8.17
6.48
4.74
3.46
2.96
3.22
3.97
4.77
5.24
5.18
4.63
3.81
3.05
2.59
2.60
3.06
3.85
4.81
5.78
6.71
7.63
8.54
9.34
9.81
9.64
8.53
6.45
3.65
0.60
-2.10
-4.03
-4.97
-4.93
-4.08
-2.64
-0.85
0.99
2.54
3.43
3.48
2.75
1.62
0.58
0.04
0.16
0.74
1.42
1.85
1.88
1.65
1.38
1.26
1.28
1.29
1.12
0.67
-0.03
-0.88
-1.78
-2.66
-3.38
-3.81
-3.81
-3.32
-2.42
-1.37
-0.41
0.32
0.86
1.34
1.89
2.44
2.85
2.91
2.59
2.04
1.57
1.51
2.11
3.37
5.10
6.94
8.48
9.39
9.52
8.92
7.70
6.04
4.02
1.71
-0.85
-3.52
-6.10
-8.33
-10.09
-11.46
-12.67
-14.05
-15.79
-17.77
-19.53
-20.40
-19.83
-17.60
-14.01
-9.77
-5.71
-2.40
-0.02
1.63
2.89
3.90
4.54
4.47
3.44
1.50
-0.91
-3.18
-4.85
-5.75
-6.15
-6.49
-7.16
-8.25
-9.55
-10.67
-11.25
-11.13
-10.42
-9.39
-8.30
-7.28
-6.29
-5.13
-3.64
-1.75
0.40
2.50
4.18
5.13
5.20
4.42
3.07
1.52
0.15
-0.76
-1.08
-0.90
-0.39
0.22
0.80
1.36
1.99
2.77
3.68
4.57
5.26
5.59
5.56
5.30
5.01
4.81
4.70
4.58
4.31
3.87
3.43
3.22
3.43
4.04
4.74
5.05
4.56
3.14
1.03
-1.31
-3.44
-5.15
-6.49
-7.73
-8.98
-10.14
-10.94
-11.09
-10.52
-9.44
-8.25
-7.28
-6.62
-6.12
-5.53
-4.70
-3.68
-2.66
-1.81
-1.23
-0.82
-0.41
0.18
1.01
2.04
3.11
4.04
4.74
5.19
5.47
5.68
5.93
6.26
6.64
7.01
7.33
7.59
7.83
8.05
8.17
8.12
7.78
7.11
6.14
4.97
3.71
2.45
1.22
0.09
-0.89
-1.65
-2.19
-2.57
-2.96
-3.51
-4.35
-5.42
-6.54
-7.44
-7.88
-7.79
-7.25
-6.51
-5.88
-5.64
-6.00
-7.02
-8.64
-10.62
-12.59
-14.12
-14.86
-14.60
-13.40
-11.56
-9.49
-7.54
-5.92
-4.58
-3.33
-1.95
-0.28
1.66
3.72
5.71
7.49
8.99
10.19
11.06
11.52
11.57
11.27
10.80
10.46
10.50
11.04
12.08
13.46
15.00
16.49
17.73
18.43
18.27
16.99
14.49
11.03
7.19
3.72
1.30
0.32
0.78
2.25
4.06
5.46
5.89
5.15
3.43
1.29
-0.64
-1.87
-2.28
-2.10
-1.86
-2.04
-2.97
-4.69
-6.96
-9.40
-11.56
-13.01
-13.49
-12.91
-11.38
-9.19
-6.73
-4.38
-2.41
-0.89
0.22
1.06
1.71
2.25
2.72
3.11
3.48
3.88
4.35
4.88
5.37
5.68
5.71
5.48
5.15
4.92
5.00
5.40
6.00
6.60
7.04
7.28
7.38
7.42
7.43
7.36
7.19
6.90
6.60
6.38
6.26
6.18
5.98
5.57
4.94
4.24
3.68
3.36
3.24
3.09
2.55
1.33
-0.68
-3.29
-6.09
-8.53
-10.16
-10.72
-10.26
-9.08
-7.62
-6.31
-5.37
-4.80
-4.35
-3.71
-2.64
-1.13
0.60
2.26
3.57
4.44
4.92
5.15
5.26
5.29
5.25
5.14
5.00
4.91
4.91
4.99
5.06
5.04
4.88
4.54
4.05
3.45
2.72
1.91
1.05
0.26
-0.38
-0.76
-0.92
-0.92
-0.92
-1.06
-1.45
-2.12
-3.01
-3.98
-4.88
-5.59
-6.10
-6.54
-7.10
-7.95
-9.15
-10.52
-11.73
-12.36
-12.13
-11.04
-9.39
-7.63
-6.10
-4.91
-3.88
-2.67
-1.05
0.97
3.05
4.70
5.52
5.38
4.49
3.27
2.12
1.31
0.84
0.57
0.33
0.03
-0.35
-0.78
-1.28
-1.94
-2.82
-3.99
-5.38
-6.84
-8.15
-9.10
-9.50
-9.25
-8.31
-6.82
-4.98
-3.10
-1.48
-0.30
0.37
0.58
0.48
0.24
0.02
-0.06
0.05
0.30
0.51
0.46
-0.04
-1.06
-2.50
-4.15
-5.73
-7.05
-7.96
-8.40
-8.31
-7.68
-6.61
-5.23
-3.79
-2.48
-1.34
-0.29
0.87
2.29
3.96
5.63
6.93
7.56
7.39
6.56
5.38
4.23
3.42
3.17
3.60
4.74
6.53
8.74
10.85
12.21
12.18
10.47
7.35
3.62
0.35
-1.59
-1.88
-0.82
0.83
2.28
3.05
3.11
2.84
2.72
3.11
4.10
5.51
6.99
8.16
8.72
8.52
7.65
6.35
4.94
3.72
2.78
2.05
1.31
0.43
-0.61
-1.67
-2.52
-2.99
-3.06
-2.80
-2.36
-1.86
-1.42
-1.11
-1.04
-1.25
-1.68
-2.13
-2.33
-2.04
-1.15
0.21
1.79
3.34
4.68
5.73
6.47
6.89
6.96
6.74
6.44
6.32
6.61
7.31
8.09
8.44
7.93
6.45
4.38
2.41
1.28
1.38
2.61
4.46
6.28
7.63
8.47
9.08
9.90
11.15
12.72
14.19
15.08
15.09
14.27
12.93
11.50
10.27
9.28
8.42
7.51
6.50
5.53
4.84
4.63
4.88
5.34
5.58
5.24
4.09
2.20
-0.13
-2.51
-4.54
-5.93
-6.60
-6.61
-6.11
-5.31
-4.40
-3.53
-2.79
-2.28
-2.06
-2.21
-2.75
-3.67
-4.84
-6.02
-6.83
-6.92
-6.01
-4.04
-1.27
1.80
4.56
6.45
7.15
6.65
5.22
3.31
1.38
-0.22
-1.37
-2.17
-2.87
-3.76
-5.04
-6.65
-8.33
-9.76
-10.73
-11.39
-12.22
-13.90
-16.90
-21.08
-25.53
-28.74
-29.12
-25.52
-17.69
-6.47
6.36
18.43
27.39
31.47
29.97
23.53
13.99
3.89
-4.30
-8.95
-9.61
-6.94
-2.18
3.42
8.93
13.63
16.89
18.01
16.48
12.35
6.39
0.02
-5.32
-8.66
-9.91
-9.65
-8.73
-7.78
-7.02
-6.40
-5.82
-5.35
-5.12
-5.23
-5.60
-6.05
-6.43
-6.75
-7.11
-7.59
-8.13
-8.49
-8.41
-7.73
-6.48
-4.91
-3.35
-2.10
-1.27
-0.81
-0.51
-0.16
0.34
0.87
1.25
1.27
0.92
0.40
0.02
-0.00
0.35
0.83
1.11
0.95
0.29
-0.67
-1.65
-2.39
-2.81
-2.95
-2.97
-2.98
-3.07
-3.16
-3.15
-2.96
-2.57
-2.08
-1.62
-1.26
-0.98
-0.72
-0.41
-0.11
-0.02
-0.29
-0.96
-1.82
-2.52
-2.69
-2.17
-1.11
0.12
1.13
1.68
1.76
1.56
1.29
1.07
0.92
0.77
0.58
0.35
0.11
-0.16
-0.47
-0.87
-1.39
-1.99
-2.61
-3.21
-3.77
-4.32
-4.89
-5.46
-5.99
-6.41
-6.70
-6.91
-7.11
-7.37
-7.70
-8.07
-8.43
-8.77
-9.11
-9.52
-10.07
-10.85
-11.89
-13.19
-14.68
-16.23
-17.68
-18.95
-20.00
-20.97
-21.99
-23.15
-24.45
-25.78
-26.97
-27.93
-28.70
-29.40
-30.18
-31.05
-31.93
-32.65
-33.10
-33.39
-33.84
-34.93
-37.08
-40.50
-45.03
-50.19
-55.33
-59.83
-63.31
-65.77
-67.44
-68.64
-69.48
-69.68
-68.57
-65.34
-59.30
-50.13
-37.96
-23.35
-7.26
9.02
24.07
36.65
46.18
53.21
59.37
66.81
77.25
91.00
106.62
121.41
132.64
138.60
139.35
136.40
131.94
127.88
125.24
123.91
122.69
119.42
111.41
96.13
72.17
40.25
3.51
-33.05
-64.16
-85.85
-96.50
-96.93
-89.49
-76.86
-61.36
-44.72
-28.42
-13.99
-3.00
3.38
4.81
1.99
-3.38
-9.25
-13.76
-15.83
-15.41
-13.25
-10.49
-8.09
-6.47
-5.43
-4.42
-2.98
-1.00
1.20
3.08
4.23
4.58
4.45
4.39
4.90
6.21
8.18
10.35
12.19
13.29
13.55
13.16
12.50
11.93
11.67
11.73
11.99
12.28
12.45
12.47
12.38
12.21
11.93
11.46
10.71
9.65
8.35
6.99
5.82
5.02
4.70
4.81
5.18
5.60
5.84
5.80
5.47
4.93
4.26
3.52
2.73
1.84
0.89
-0.08
-0.96
-1.73
-2.45
-3.32
-4.52
-6.14
-8.07
-10.08
-11.92
-13.49
-14.78
-15.82
-16.59
-16.94
-16.67
-15.73
-14.24
-12.55
-10.98
-9.70
-8.59
-7.37
-5.77
-3.70
-1.37
0.84
2.59
3.70
4.29
4.62
5.03
5.71
6.70
7.88
9.05
10.05
10.81
11.30
11.55
11.58
11.40
11.00
10.41
9.66
8.77
7.75
6.64
5.44
4.19
2.97
1.84
0.84
0.01
-0.67
-1.18
-1.52
-1.69
-1.81
-2.06
-2.68
-3.76
-5.27
-6.94
-8.45
-9.49
-9.96
-9.93
-9.55
-8.94
-8.14
-7.07
-5.72
-4.17
-2.61
-1.28
-0.33
0.18
0.35
0.31
0.24
0.25
0.39
0.61
0.73
0.54
-0.29
-1.98
-4.61
-7.99
-11.55
-14.46
-15.78
-14.77
-11.16
-5.33
1.70
8.61
14.06
17.20
17.80
16.22
13.23
9.67
6.24
3.36
1.26
0.05
-0.14
0.81
2.88
5.79
8.96
11.55
12.86
12.62
11.17
9.39
8.29
8.53
10.13
12.48
14.65
15.94
16.11
15.39
14.28
13.20
12.33
11.63
10.97
10.31
9.70
9.29
9.15
9.23
9.26
8.93
7.86
5.84
2.91
-0.59
-4.08
-6.86
-8.38
-8.41
-7.07
-4.83
-2.28
0.04
1.71
2.50
2.42
1.66
0.48
-0.82
-2.06
-3.13
-4.03
-4.75
-5.30
-5.65
-5.86
-6.00
-6.20
-6.54
-6.99
-7.42
-7.72
-7.87
-8.05
-8.56
-9.66
-11.36
-13.37
-15.18
-16.20
-16.06
-14.74
-12.51
-9.85
-7.19
-4.90
-3.20
-2.24
-2.19
-3.18
-5.17
-7.84
-10.56
-12.59
-13.33
-12.60
-10.69
-8.23
-5.87
-4.02
-2.69
-1.64
-0.51
0.91
2.58
4.17
5.30
5.54
4.66
2.67
-0.22
-3.62
-7.04
-10.03
-12.25
-13.52
-13.91
-13.66
-13.09
-12.47
-11.91
-11.36
-10.65
-9.65
-8.34
-6.84
-5.33
-3.94
-2.66
-1.44
-0.23
0.93
1.91
2.64
3.15
3.51
3.73
3.70
3.15
1.92
0.14
-1.68
-2.76
-2.38
-0.25
3.32
7.52
11.37
14.02
15.09
14.63
13.07
10.92
8.67
6.68
5.14
4.16
3.72
3.70
3.87
3.95
3.70
3.01
1.91
0.61
-0.67
-1.75
-2.59
-3.28
-3.95
-4.73
-5.66
-6.68
-7.66
-8.46
-8.88
-8.75
-8.00
-6.64
-4.82
-2.76
-0.69
1.24
2.98
4.50
5.76
6.69
7.17
7.17
6.79
6.23
5.76
5.65
5.99
6.71
7.52
8.09
8.07
7.29
5.85
4.06
2.37
1.18
0.71
0.89
1.48
2.17
2.70
2.87
2.62
1.95
0.98
-0.09
-0.98
-1.47
-1.48
-1.10
-0.58
-0.25
-0.32
-0.87
-1.81
-2.92
-3.96
-4.72
-5.08
-5.04
-4.73
-4.42
-4.40
-4.89
-5.95
-7.39
-8.88
-10.04
-10.56
-10.30
-9.28
-7.68
-5.76
-3.85
-2.22
-1.05
-0.33
0.12
0.54
1.17
2.07
3.18
4.29
5.21
5.78
5.97
5.83
5.47
5.03
4.68
4.56
4.77
5.30
6.04
6.73
7.14
7.09
6.55
5.63
4.49
3.29
2.11
0.95
-0.20
-1.34
-2.43
-3.39
-4.17
-4.83
-5.43
-6.10
-6.88
-7.67
-8.37
-8.82
-8.99
-8.94
-8.74
-8.47
-8.11
-7.65
-7.10
-6.58
-6.25
-6.20
-6.33
-6.37
-5.94
-4.73
-2.69
-0.03
2.84
5.51
7.69
9.27
10.31
10.86
10.96
10.60
9.84
8.87
7.94
7.28
6.91
6.55
5.75
4.15
1.74
-1.03
-3.36
-4.49
-4.02
-2.15
0.44
2.81
4.25
4.43
3.48
1.88
0.15
-1.30
-2.27
-2.71
-2.68
-2.20
-1.31
-0.10
1.22
2.33
2.87
2.63
1.68
0.35
-0.83
-1.45
-1.37
-0.82
-0.33
-0.44
-1.50
-3.45
-5.85
-8.05
-9.44
-9.73
-8.95
-7.47
-5.69
-3.97
-2.44
-1.12
0.00
0.93
1.56
1.80
1.67
1.35
1.15
1.39
2.24
3.64
5.26
6.67
7.48
7.51
6.89
5.91
4.93
4.15
3.54
2.98
2.34
1.66
1.16
1.10
1.57
2.46
3.40
4.03
4.09
3.55
2.56
1.34
0.09
-1.04
-1.95
-2.50
-2.59
-2.19
-1.38
-0.30
0.79
1.64
2.02
1.76
0.78
-0.82
-2.75
-4.58
-5.88
-6.39
-6.18
-5.60
-5.08
-4.94
-5.19
-5.55
-5.64
-5.16
-4.12
-2.72
-1.31
-0.14
0.70
1.30
1.79
2.27
2.69
2.92
2.82
2.33
1.52
0.59
-0.22
-0.70
-0.80
-0.58
-0.19
0.21
0.58
0.97
1.50
2.22
3.13
4.11
5.04
5.83
6.50
7.16
7.89
8.71
9.50
10.02
10.08
9.55
8.52
7.27
6.19
5.68
5.90
6.76
7.85
8.66
8.77
8.06
6.75
5.38
4.45
4.29
4.84
5.66
6.08
5.43
3.24
-0.57
-5.63
-11.22
-16.46
-20.52
-22.97
-23.79
-23.36
-22.23
-20.88
-19.55
-18.27
-16.91
-15.41
-13.78
-12.09
-10.34
-8.44
-6.29
-3.90
-1.41
0.86
2.65
3.84
4.50
4.78
4.79
4.41
3.42
1.60
-1.03
-3.97
-6.43
-7.53
-6.68
-3.86
0.39
5.22
9.85
13.85
17.23
20.21
22.92
25.15
26.34
25.86
23.37
19.10
13.78
8.44
3.93
0.63
-1.62
-3.43
-5.56
-8.61
-12.84
-18.06
-23.63
-28.65
-32.13
-33.27
-31.79
-27.96
-22.58
-16.68
-11.17
-6.65
-3.32
-1.14
0.07
0.48
0.30
-0.19
-0.66
-0.80
-0.44
0.37
1.39
2.33
2.94
3.12
2.96
2.63
2.38
2.40
2.81
3.57
4.54
5.49
6.18
6.45
6.26
5.71
4.94
4.10
3.24
2.32
1.29
0.16
-0.95
-1.79
-2.11
-1.79
-0.89
0.33
1.53
2.44
2.93
3.07
3.03
3.01
3.09
3.28
3.52
3.68
3.68
3.46
2.98
2.20
1.09
-0.35
-2.06
-3.86
-5.42
-6.39
-6.47
-5.53
-3.79
-1.68
0.25
1.50
1.88
1.51
0.77
0.11
-0.15
0.02
0.39
0.62
0.42
-0.31
-1.40
-2.56
-3.51
-4.14
-4.48
-4.73
-4.98
-5.20
-5.18
-4.70
-3.61
-1.98
-0.10
1.69
3.13
4.13
4.79
5.32
5.87
6.48
7.08
7.58
7.93
8.18
8.47
8.87
9.34
9.69
9.71
9.17
8.04
6.37
4.28
1.84
-0.90
-3.86
-6.84
-9.51
-11.47
-12.43
-12.31
-11.31
-9.83
-8.30
-7.09
-6.35
-6.01
-5.86
-5.56
-4.82
-3.43
-1.36
1.32
4.41
7.70
10.90
13.70
15.72
16.64
16.29
14.80
12.54
10.09
7.88
6.03
4.24
1.97
-1.11
-4.84
-8.46
-10.81
-10.85
-8.14
-3.08
3.16
9.14
13.59
15.81
15.74
13.85
10.83
7.29
3.70
0.33
-2.64
-5.15
-7.16
-8.74
-10.00
-11.12
-12.21
-13.29
-14.18
-14.57
-14.14
-12.67
-10.30
-7.50
-5.03
-3.72
-4.14
-6.30
-9.64
-13.10
-15.56
-16.22
-14.91
-12.16
-8.94
-6.27
-4.81
-4.70
-5.58
-6.82
-7.85
-8.34
-8.28
-7.80
-7.08
-6.20
-5.10
-3.76
-2.33
-1.08
-0.37
-0.38
-0.93
-1.50
-1.58
-0.97
0.07
0.87
0.78
-0.42
-2.44
-4.59
-6.23
-7.00
-6.97
-6.37
-5.37
-4.03
-2.30
-0.28
1.75
3.42
4.53
5.19
5.70
6.42
7.43
8.55
9.37
9.57
9.05
8.07
7.01
6.22
5.88
5.85
5.88
5.66
4.97
3.80
2.28
0.63
-0.98
-2.44
-3.74
-4.92
-6.00
-7.01
-7.93
-8.78
-9.54
-10.19
-10.61
-10.69
-10.25
-9.20
-7.56
-5.42
-2.96
-0.33
2.38
5.06
7.57
9.70
11.20
11.87
11.70
10.89
9.83
8.95
8.55
8.67
9.12
9.53
9.63
9.30
8.66
8.06
7.84
8.27
9.35
10.84
12.35
13.44
13.82
13.47
12.58
11.44
10.28
9.10
7.71
5.82
3.29
0.22
-3.05
-6.10
-8.57
-10.35
-11.52
-12.29
-12.89
-13.46
-14.08
-14.76
-15.53
-16.41
-17.44
-18.60
-19.80
-20.91
-21.74
-22.15
-22.09
-21.66
-21.12
-20.76
-20.77
-21.10
-21.43
-21.34
-20.48
-18.72
-16.23
-13.36
-10.47
-7.72
-5.15
-2.68
-0.30
1.82
3.47
4.45
4.81
4.84
5.03
5.79
7.27
9.28
11.40
13.21
14.52
15.37
15.97
16.50
16.99
17.35
17.49
17.48
17.51
17.86
18.63
19.75
20.91
21.81
22.28
22.33
22.07
21.65
21.08
20.26
19.06
17.36
15.20
12.71
10.09
7.60
5.38
3.40
1.48
-0.69
-3.33
-6.41
-9.57
-12.23
-13.80
-13.99
-12.88
-10.90
-8.55
-6.14
-3.72
-1.18
1.59
4.47
7.17
9.34
10.79
11.58
12.00
12.44
13.18
14.28
15.53
16.55
17.01
16.72
15.83
14.65
13.55
12.73
12.16
11.62
10.89
9.83
8.48
6.96
5.37
3.78
2.25
0.85
-0.29
-1.08
-1.56
-1.93
-2.44
-3.24
-4.28
-5.31
-5.97
-6.04
-5.51
-4.61
-3.71
-3.12
-3.01
-3.40
-4.14
-5.09
-6.12
-7.20
-8.29
-9.31
-10.15
-10.73
-11.09
-11.42
-11.97
-12.93
-14.27
-15.68
-16.68
-16.83
-15.88
-13.87
-11.07
-7.84
-4.55
-1.44
1.32
3.65
5.54
7.07
8.34
9.53
10.75
12.04
13.32
14.43
15.21
15.58
15.53
15.15
14.49
13.60
12.52
11.27
9.92
8.57
7.33
6.20
5.14
4.07
2.94
1.82
0.83
0.10
-0.35
-0.52
-0.46
-0.19
0.30
1.00
1.81
2.55
3.03
3.14
2.92
2.50
2.11
1.89
1.94
2.27
2.84
3.54
4.19
4.61
4.57
3.96
2.76
1.18
-0.44
-1.68
-2.15
-1.64
-0.13
2.11
4.61
6.83
8.33
8.87
8.51
7.52
6.26
5.04
4.03
3.35
3.05
3.22
3.96
5.33
7.21
9.31
11.19
12.44
12.79
12.25
11.08
9.62
8.19
7.02
6.17
5.70
5.62
5.96
6.66
7.57
8.45
8.96
8.86
8.02
6.49
4.46
2.07
-0.50
-3.16
-5.77
-8.17
-10.14
-11.46
-12.06
-12.03
-11.62
-11.14
-10.86
-10.91
-11.28
-11.89
-12.71
-13.73
-15.03
-16.56
-18.09
-19.15
-19.17
-17.76
-14.92
-11.18
-7.40
-4.58
-3.42
-4.15
-6.41
-9.44
-12.28
-14.04
-14.14
-12.37
-9.02
-4.77
-0.54
2.72
4.30
4.01
2.19
-0.43
-2.99
-4.82
-5.64
-5.60
-5.10
-4.56
-4.23
-4.14
-4.13
-4.04
-3.84
-3.59
-3.36
-3.13
-2.79
-2.15
-1.12
0.20
1.60
2.79
3.61
4.08
4.35
4.64
4.99
5.32
5.43
5.10
4.27
3.01
1.56
0.22
-0.75
-1.20
-1.09
-0.58
0.12
0.73
1.08
1.13
0.98
0.80
0.75
0.87
1.11
1.36
1.47
1.35
0.95
0.28
-0.56
-1.45
-2.25
-2.85
-3.32
-3.82
-4.56
-5.63
-6.91
-8.07
-8.76
-8.74
-8.06
-7.01
-5.94
-5.13
-4.61
-4.23
-3.77
-3.09
-2.21
-1.23
-0.36
0.28
0.67
0.87
1.02
1.19
1.43
1.69
1.91
2.04
2.11
2.24
2.51
3.00
3.60
4.14
4.48
4.57
4.56
4.64
4.97
5.52
6.12
6.49
6.41
5.79
4.72
3.39
2.04
0.85
-0.12
-0.88
-1.58
-2.33
-3.17
-4.04
-4.78
-5.24
-5.32
-5.04
-4.53
-4.00
-3.67
-3.69
-4.17
-5.08
-6.29
-7.54
-8.54
-9.00
-8.79
-7.98
-6.83
-5.69
-4.87
-4.57
-4.77
-5.30
-5.84
-6.12
-5.97
-5.46
-4.80
-4.27
-4.10
-4.36
-4.94
-5.63
-6.19
-6.43
-6.25
-5.57
-4.42
-2.83
-0.93
1.12
3.07
4.68
5.73
6.12
5.87
5.15
4.26
3.57
3.32
3.59
4.22
4.92
5.43
5.64
5.65
5.67
5.83
6.15
6.44
6.52
6.28
5.79
5.28
5.04
5.21
5.79
6.59
7.34
7.84
8.01
7.91
7.65
7.30
6.84
6.16
5.21
4.02
2.75
1.66
0.98
0.90
1.53
2.84
4.74
7.03
9.39
11.43
12.72
12.85
11.51
8.63
4.40
-0.74
-6.15
-11.25
-15.68
-19.46
-22.94
-26.58
-30.61
-34.75
-38.12
-39.57
-38.11
-33.35
-25.73
-16.34
-6.56
2.39
9.72
15.13
18.67
20.58
21.24
21.14
20.85
21.02
22.06
23.99
26.33
28.17
28.51
26.48
21.66
14.11
4.48
-6.05
-15.89
-23.27
-26.75
-25.70
-20.60
-13.01
-5.08
1.22
4.67
5.18
3.55
1.11
-0.91
-1.64
-0.72
1.77
5.38
9.54
13.60
17.02
19.55
21.14
21.99
22.32
22.21
21.57
20.27
18.24
15.65
12.78
9.94
7.23
4.57
1.82
-1.06
-3.87
-6.32
-8.30
-10.00
-11.93
-14.63
-18.33
-22.76
-27.13
-30.60
-32.59
-33.09
-32.56
-31.68
-31.08
-31.09
-31.71
-32.56
-32.94
-32.01
-28.96
-23.40
-15.53
-6.27
3.03
10.99
16.64
19.70
20.56
20.15
19.63
20.03
22.09
25.93
30.98
36.03
39.61
40.46
37.92
32.15
24.05
14.97
6.32
-0.74
-5.56
-8.05
-8.72
-8.39
-8.05
-8.54
-10.34
-13.44
-17.31
-21.10
-23.80
-24.53
-22.81
-18.64
-12.68
-5.99
0.23
4.98
7.80
8.69
8.10
6.60
4.71
2.81
1.12
-0.29
-1.38
-2.15
-2.56
-2.61
-2.27
-1.62
-0.78
0.06
0.69
0.93
0.70
0.01
-1.01
-2.17
-3.18
-3.77
-3.75
-3.03
-1.73
-0.11
1.47
2.65
3.12
2.67
1.27
-0.82
-3.01
-4.48
-4.37
-2.22
1.73
6.45
10.47
12.39
11.40
7.59
1.88
-4.29
-9.48
-12.59
-13.17
-11.44
-8.10
-4.15
-0.58
1.93
3.13
3.19
2.57
1.80
1.33
1.32
1.72
2.33
2.89
3.17
3.02
2.37
1.22
-0.33
-2.14
-3.93
-5.40
-6.30
-6.56
-6.32
-5.90
-5.65
-5.83
-6.48
-7.48
-8.60
-9.62
-10.41
-10.86
-10.92
-10.56
-9.76
-8.58
-7.14
-5.59
-4.11
-2.80
-1.69
-0.74
0.15
1.00
1.81
2.53
3.05
3.31
3.31
3.11
2.84
2.69
2.86
3.44
4.38
5.50
6.48
7.00
6.81
5.79
3.97
1.54
-1.26
-4.10
-6.58
-8.34
-9.13
-8.90
-7.93
-6.62
-5.40
-4.52
-3.98
-3.58
-3.09
-2.41
-1.61
-0.94
-0.57
-0.53
-0.64
-0.64
-0.37
0.18
0.91
1.69
2.46
3.24
4.06
4.84
5.43
5.69
5.52
5.04
4.46
4.01
3.80
3.77
3.81
3.82
3.75
3.61
3.39
3.08
2.68
2.22
1.81
1.61
1.68
1.95
2.25
2.34
2.11
1.60
1.01
0.52
0.22
0.06
-0.16
-0.65
-1.49
-2.60
-3.79
-4.84
-5.57
-5.95
-6.11
-6.26
-6.64
-7.41
-8.62
-10.16
-11.81
-13.26
-14.15
-14.21
-13.27
-11.42
-9.06
-6.77
-5.25
-4.95
-5.90
-7.68
-9.55
-10.74
-10.69
-9.28
-6.75
-3.65
-0.58
1.95
3.70
4.72
5.21
5.53
5.97
6.75
7.96
9.48
11.09
12.42
13.10
12.88
11.73
9.90
7.82
5.94
4.64
4.06
4.25
5.10
6.46
8.04
9.40
9.98
9.35
7.39
4.35
0.87
-2.32
-4.62
-5.75
-5.80
-5.05
-3.89
-2.71
-1.82
-1.41
-1.59
-2.28
-3.30
-4.41
-5.39
-6.10
-6.52
-6.68
-6.54
-6.06
-5.22
-4.15
-3.15
-2.59
-2.77
-3.72
-5.09
-6.33
-6.86
-6.35
-4.79
-2.48
0.18
2.84
5.29
7.40
9.07
10.24
10.92
11.24
11.44
11.78
12.39
13.15
13.80
14.05
13.79
13.12
12.29
11.51
10.80
9.98
8.79
7.12
5.10
3.12
1.68
1.13
1.54
2.62
3.85
4.72
5.01
4.90
4.91
5.59
7.18
9.49
11.83
13.40
13.58
12.25
9.76
6.82
4.13
2.25
1.38
1.40
1.85
1.91
0.65
-2.68
-8.07
-14.45
-19.82
-21.94
-19.30
-12.06
-2.14
7.40
13.54
14.45
10.15
2.29
-6.56
-13.86
-17.94
-18.26
-15.46
-10.89
-6.08
-2.23
0.13
1.29
2.06
3.37
5.87
9.60
14.04
18.29
21.37
22.46
21.22
17.81
12.91
7.57
2.88
-0.32
-1.66
-1.34
0.07
1.73
2.79
2.53
0.43
-3.59
-9.07
-14.99
-19.93
-22.52
-21.99
-18.49
-13.14
-7.64
-3.67
-2.30
-3.67
-7.06
-11.29
-15.14
-17.71
-18.69
-18.20
-16.71
-14.72
-12.62
-10.55
-8.46
-6.27
-4.01
-1.96
-0.59
-0.30
-1.12
-2.53
-3.55
-3.10
-0.54
3.92
9.21
13.81
16.36
16.34
14.23
11.29
9.01
8.37
9.44
11.44
13.15
13.45
11.83
8.48
4.19
-0.02
-3.26
-4.98
-5.08
-3.90
-2.13
-0.66
-0.30
-1.57
-4.44
-8.18
-11.57
-13.29
-12.44
-8.98
-3.75
1.71
5.85
7.66
7.03
4.75
2.11
0.32
-0.00
1.04
2.80
4.51
5.63
6.00
5.80
5.46
5.37
5.81
6.89
8.45
10.24
11.95
13.31
14.11
14.30
13.82
12.63
10.68
8.02
4.89
1.83
-0.50
-1.57
-1.23
0.13
1.73
2.69
2.40
0.75
-1.83
-4.62
-6.83
-7.90
-7.69
-6.40
-4.49
-2.54
-1.07
-0.48
-1.01
-2.65
-5.21
-8.29
-11.39
-14.01
-15.78
-16.56
-16.42
-15.63
-14.47
-13.17
-11.82
-10.33
-8.47
-6.02
-2.88
0.77
4.46
7.47
9.08
8.87
6.88
3.70
0.31
-2.32
-3.53
-3.23
-1.79
0.08
1.66
2.44
2.14
0.75
-1.53
-4.31
-7.03
-9.04
-9.83
-9.18
-7.35
-5.00
-2.91
-1.68
-1.42
-1.75
-2.02
-1.67
-0.53
1.16
2.82
3.92
4.20
3.76
3.00
2.39
2.24
2.57
3.19
3.78
4.08
3.94
3.32
2.32
1.09
-0.21
-1.40
-2.32
-2.85
-2.87
-2.33
-1.22
0.36
2.18
3.83
4.84
4.85
3.70
1.59
-0.99
-3.39
-5.01
-5.43
-4.58
-2.64
-0.03
2.77
5.33
7.37
8.73
9.44
9.55
9.18
8.40
7.35
6.16
4.91
3.71
2.57
1.46
0.37
-0.65
-1.55
-2.19
-2.50
-2.52
-2.33
-2.12
-2.07
-2.32
-2.93
-3.85
-4.95
-6.06
-7.03
-7.74
-8.11
-8.13
-7.80
-7.15
-6.19
-4.98
-3.60
-2.22
-1.01
-0.14
0.28
0.22
-0.25
-1.01
-1.86
-2.62
-3.14
-3.39
-3.46
-3.50
-3.66
-3.96
-4.20
-4.05
-3.20
-1.65
0.21
1.63
1.79
0.23
-2.89
-6.69
-9.83
-10.98
-9.27
-4.62
2.15
9.60
15.99
19.82
20.26
17.44
12.41
6.87
2.65
1.06
2.43
5.96
9.97
12.54
12.31
9.02
3.72
-1.71
-5.29
-5.70
-2.86
2.14
7.50
11.47
13.00
12.13
9.83
7.57
6.56
7.26
9.21
11.26
12.15
11.17
8.55
5.28
2.73
1.98
3.32
6.17
9.37
11.72
12.43
11.44
9.28
6.87
5.09
4.48
5.11
6.56
8.17
9.21
9.13
7.62
4.68
0.46
-4.72
-10.38
-15.83
-20.18
-22.49
-22.06
-18.83
-13.52
-7.55
-2.57
0.17
0.22
-1.84
-4.83
-7.49
-9.13
-9.87
-10.45
-11.67
-13.82
-16.41
-18.32
-18.37
-15.90
-11.19
-5.41
-0.20
3.03
3.54
1.57
-1.84
-5.31
-7.58
-8.01
-6.71
-4.46
-2.23
-0.77
-0.19
-0.02
0.50
1.94
4.27
6.84
8.68
8.99
7.51
4.69
1.48
-1.05
-2.09
-1.39
0.72
3.45
5.77
6.72
5.66
2.45
-2.39
-7.75
-12.13
-13.96
-12.08
-6.21
2.79
12.98
21.86
27.05
27.07
21.85
12.79
2.37
-6.61
-11.89
-12.41
-8.63
-2.32
3.98
7.89
7.91
3.92
-2.84
-10.22
-15.98
-18.50
-17.27
-13.00
-7.24
-1.86
1.60
2.43
0.74
-2.60
-6.46
-9.82
-11.99
-12.64
-11.79
-9.63
-6.50
-2.81
1.03
4.76
8.33
11.91
15.76
20.04
24.60
29.00
32.57
34.65
34.75
32.64
28.46
22.68
16.07
9.52
3.90
-0.19
-2.62
-3.71
-4.11
-4.45
-5.06
-5.85
-6.41
-6.40
-5.87
-5.37
-5.74
-7.65
-11.11
-15.33
-19.09
-21.21
-21.16
-19.28
-16.51
-14.02
-12.71
-12.97
-14.68
-17.31
-20.02
-21.78
-21.56
-18.69
-13.19
-5.92
1.52
7.40
10.38
9.98
6.64
1.39
-4.52
-9.99
-14.21
-16.58
-16.75
-14.60
-10.29
-4.31
2.60
9.57
15.76
20.40
22.93
23.07
20.94
17.13
12.57
8.28
5.01
3.07
2.33
2.43
2.98
3.67
4.19
4.21
3.42
1.72
-0.65
-3.05
-4.72
-5.17
-4.45
-3.10
-1.89
-1.37
-1.68
-2.62
-3.80
-4.97
-5.99
-6.73
-6.96
-6.43
-5.03
-3.01
-1.02
0.11
-0.24
-2.17
-5.15
-8.33
-10.78
-11.88
-11.44
-9.66
-6.96
-3.88
-0.94
1.43
2.90
3.37
2.95
1.99
0.90
0.03
-0.56
-0.94
-1.29
-1.72
-2.19
-2.56
-2.73
-2.71
-2.66
-2.77
-3.07
-3.42
-3.53
-3.11
-1.98
-0.14
2.23
4.88
7.54
9.89
11.67
12.56
12.39
11.12
8.89
6.03
2.89
-0.21
-3.08
-5.59
-7.71
-9.36
-10.45
-10.95
-10.89
-10.41
-9.72
-9.03
-8.47
-8.07
-7.74
-7.37
-6.84
-6.08
-5.05
-3.75
-2.19
-0.37
1.64
3.70
5.59
7.01
7.77
7.80
7.20
6.25
5.30
4.62
4.37
4.54
4.99
5.51
5.93
6.11
6.05
5.87
5.70
5.68
5.85
6.14
6.38
6.42
6.23
5.90
5.56
5.31
5.14
4.90
4.40
3.56
2.44
1.27
0.36
-0.03
0.15
0.77
1.50
1.99
1.99
1.42
0.39
-0.88
-2.18
-3.44
-4.67
-5.96
-7.32
-8.65
-9.72
-10.34
-10.47
-10.25
-9.96
-9.81
-9.78
-9.54
-8.60
-6.51
-3.14
1.20
5.85
10.06
13.20
14.94
15.25
14.21
12.00
8.82
4.99
1.02
-2.44
-4.82
-5.89
-5.88
-5.47
-5.52
-6.75
-9.48
-13.60
-18.64
-23.91
-28.77
-32.68
-35.30
-36.32
-35.51
-32.58
-27.37
-20.08
-11.55
-3.34
2.73
5.12
3.35
-1.71
-8.15
-13.84
-17.37
-18.47
-17.90
-16.75
-15.61
-14.24
-11.74
-7.08
0.28
10.13
21.67
33.68
44.93
54.32
61.07
64.97
66.44
66.56
66.62
67.69
70.08
73.14
75.43
75.23
71.05
61.96
47.73
28.94
6.94
-16.05
-37.23
-53.67
-63.17
-64.88
-59.58
-49.44
-37.22
-25.49
-15.94
-9.21
-5.18
-3.30
-3.00
-3.79
-5.33
-7.20
-8.95
-10.18
-10.58
-10.08
-8.91
-7.45
-6.10
-5.11
-4.56
-4.31
-4.16
-3.89
-3.44
-2.86
-2.31
-1.96
-1.87
-1.94
-1.97
-1.74
-1.13
-0.18
0.91
1.85
2.44
2.57
2.29
1.72
0.98
0.14
-0.82
-1.95
-3.24
-4.60
-5.80
-6.59
-6.72
-6.06
-4.61
-2.54
-0.13
2.29
4.34
5.72
6.23
5.86
4.85
3.54
2.35
1.57
1.32
1.51
1.89
2.23
2.34
2.11
1.58
0.87
0.22
-0.14
-0.06
0.41
1.04
1.49
1.52
1.15
0.67
0.47
0.85
1.82
3.12
4.38
5.33
5.96
6.40
6.74
6.90
6.63
5.66
3.89
1.59
-0.81
-2.82
-4.19
-4.90
-5.09
-4.97
-4.69
-4.33
-3.98
-3.76
-3.79
-4.00
-4.21
-4.10
-3.43
-2.20
-0.70
0.66
1.50
1.67
1.27
0.63
0.10
-0.06
0.33
1.20
2.38
3.60
4.59
5.14
5.19
4.83
4.24
3.68
3.32
3.24
3.45
3.85
4.34
4.79
5.07
4.98
4.43
3.33
1.73
-0.19
-2.22
-4.15
-5.84
-7.20
-8.20
-8.74
-8.71
-8.07
-6.94
-5.70
-4.86
-4.91
-6.14
-8.58
-11.97
-15.92
-19.93
-23.38
-25.58
-25.83
-23.70
-19.21
-12.98
-6.09
0.29
5.22
8.23
9.33
8.88
7.38
5.39
3.49
2.21
1.99
2.98
5.00
7.57
10.08
12.03
13.22
13.77
13.94
13.99
13.98
13.73
12.96
11.52
9.52
7.37
5.58
4.46
4.00
3.83
3.50
2.68
1.33
-0.36
-2.10
-3.67
-4.91
-5.74
-6.05
-5.80
-5.06
-4.06
-3.19
-2.76
-2.88
-3.35
-3.76
-3.70
-3.01
-1.77
-0.25
1.22
2.44
3.26
3.63
3.48
2.85
1.84
0.68
-0.33
-0.95
-1.07
-0.78
-0.31
0.11
0.36
0.42
0.41
0.44
0.57
0.82
1.18
1.69
2.38
3.27
4.28
5.16
5.66
5.58
4.95
4.05
3.29
3.04
3.42
4.28
5.27
6.01
6.22
5.80
4.80
3.36
1.65
-0.16
-1.83
-3.17
-4.06
-4.56
-4.80
-5.00
-5.27
-5.56
-5.79
-5.81
-5.51
-4.89
-3.96
-2.80
-1.51
-0.24
0.82
1.48
1.64
1.32
0.69
0.00
-0.48
-0.57
-0.14
0.80
2.10
3.49
4.63
5.21
5.08
4.30
3.13
1.92
0.96
0.35
0.02
-0.22
-0.60
-1.25
-2.24
-3.54
-5.03
-6.59
-8.00
-9.04
-9.47
-9.14
-7.99
-6.18
-4.01
-1.86
-0.14
0.89
1.22
1.05
0.71
0.59
0.88
1.61
2.62
3.63
4.40
4.76
4.72
4.35
3.75
2.98
2.03
0.87
-0.45
-1.73
-2.70
-3.11
-2.86
-2.05
-0.97
0.02
0.61
0.61
0.01
-1.06
-2.36
-3.61
-4.52
-4.85
-4.48
-3.42
-1.81
0.11
2.02
3.69
4.96
5.77
6.10
5.98
5.38
4.30
2.84
1.21
-0.27
-1.24
-1.48
-1.01
-0.05
1.07
2.08
2.86
3.41
3.83
4.20
4.49
4.68
4.71
4.59
4.39
4.23
4.16
4.22
4.33
4.35
4.11
3.47
2.34
0.71
-1.30
-3.53
-5.78
-7.89
-9.65
-10.94
-11.64
-11.77
-11.44
-10.94
-10.63
-10.83
-11.71
-13.14
-14.76
-16.12
-16.78
-16.57
-15.52
-13.81
-11.66
-9.17
-6.32
-3.02
0.74
4.73
8.47
11.31
12.62
12.10
9.87
6.48
2.75
-0.55
-2.90
-4.12
-4.30
-3.69
-2.55
-1.16
0.16
1.09
1.30
0.61
-0.89
-2.87
-4.87
-6.50
-7.59
-8.19
-8.50
-8.72
-8.92
-9.13
-9.28
-9.32
-9.25
-9.03
-8.58
-7.79
-6.59
-5.07
-3.42
-1.92
-0.80
-0.08
0.39
0.92
1.81
3.23
5.15
7.42
9.74
11.80
13.34
14.18
14.24
13.62
12.43
10.81
8.83
6.46
3.72
0.75
-2.03
-4.10
-5.01
-4.58
-3.08
-1.15
0.51
1.40
1.38
0.72
-0.17
-0.87
-1.23
-1.24
-1.07
-0.87
-0.78
-0.92
-1.30
-1.91
-2.59
-3.15
-3.37
-3.12
-2.40
-1.32
-0.02
1.36
2.77
4.18
5.48
6.57
7.27
7.53
7.42
7.08
6.70
6.44
6.40
6.65
7.22
7.99
8.71
9.04
8.63
7.31
5.19
2.67
0.25
-1.60
-2.62
-2.84
-2.50
-1.99
-1.66
-1.77
-2.34
-3.21
-4.02
-4.41
-4.09
-2.99
-1.23
0.96
3.30
5.57
7.54
9.01
9.84
10.00
9.64
9.03
8.47
8.14
8.04
7.98
7.67
6.85
5.41
3.40
1.06
-1.30
-3.41
-5.04
-6.03
-6.38
-6.14
-5.54
-4.89
-4.56
-4.82
-5.70
-6.92
-8.05
-8.69
-8.69
-8.22
-7.68
-7.40
-7.43
-7.50
-7.23
-6.32
-4.71
-2.54
-0.03
2.75
5.73
8.88
11.99
14.73
16.79
17.99
18.42
18.27
17.77
17.00
15.89
14.36
12.38
9.99
7.30
4.38
1.20
-2.31
-6.13
-10.09
-13.89
-17.21
-19.84
-21.81
-23.39
-24.93
-26.68
-28.58
-30.27
-31.18
-30.76
-28.67
-24.90
-19.76
-13.83
-7.84
-2.55
1.38
3.49
3.75
2.54
0.57
-1.37
-2.71
-3.23
-3.00
-2.29
-1.25
0.06
1.61
3.28
4.77
5.69
5.76
4.95
3.56
2.00
0.57
-0.62
-1.61
-2.39
-2.75
-2.27
-0.60
2.34
6.13
10.02
13.16
15.03
15.56
15.10
14.19
13.26
12.56
12.10
11.82
11.66
11.58
11.54
11.48
11.26
10.74
9.86
8.69
7.42
6.23
5.23
4.43
3.73
3.04
2.35
1.76
1.46
1.55
2.02
2.66
3.20
3.44
3.41
3.37
3.72
4.72
6.38
8.39
10.27
11.55
12.02
11.77
11.12
10.43
9.93
9.69
9.62
9.61
9.56
9.39
8.95
8.05
6.52
4.37
1.81
-0.72
-2.75
-3.97
-4.31
-4.05
-3.59
-3.28
-3.29
-3.47
-3.45
-2.75
-0.96
2.14
6.42
11.42
16.34
20.30
22.53
22.69
20.91
17.79
14.14
10.73
8.03
6.18
5.03
4.34
3.87
3.47
3.00
2.35
1.39
-0.02
-1.97
-4.38
-7.15
-10.11
-13.13
-16.22
-19.39
-22.62
-25.65
-28.05
-29.29
-29.02
-27.33
-24.82
-22.40
-20.89
-20.73
-21.82
-23.62
-25.60
-27.42
-29.02
-30.51
-31.91
-33.09
-33.77
-33.71
-32.86
-31.29
-29.10
-26.30
-22.78
-18.47
-13.46
-8.13
-3.01
1.38
4.74
7.11
8.76
9.99
11.02
11.88
12.49
12.87
13.14
13.55
14.35
15.54
16.91
18.03
18.49
18.10
16.95
15.44
14.05
13.18
12.96
13.22
13.58
13.61
12.99
11.71
10.04
8.40
7.16
6.44
6.02
5.49
4.44
2.68
0.28
-2.49
-5.37
-8.18
-10.76
-12.85
-14.12
-14.18
-12.86
-10.32
-7.15
-4.11
-1.87
-0.69
-0.43
-0.66
-0.96
-1.18
-1.46
-2.08
-3.20
-4.65
-5.98
-6.63
-6.24
-4.80
-2.61
-0.04
2.70
5.61
8.82
12.29
15.66
18.25
19.35
18.59
16.14
12.66
9.05
6.17
4.55
4.36
5.41
7.29
9.37
10.97
11.43
10.32
7.57
3.49
-1.27
-6.00
-10.08
-13.18
-15.22
-16.26
-16.44
-15.91
-14.87
-13.52
-12.13
-10.92
-10.00
-9.34
-8.76
-8.05
-7.04
-5.66
-3.93
-1.90
0.34
2.74
5.22
7.73
10.19
12.55
14.74
16.71
18.38
19.69
20.60
21.09
21.11
20.57
19.39
17.45
14.79
11.57
8.06
4.56
1.31
-1.63
-4.33
-6.91
-9.42
-11.74
-13.56
-14.47
-14.07
-12.24
-9.21
-5.51
-1.85
1.16
3.17
4.21
4.56
4.63
4.72
4.97
5.38
5.83
6.22
6.53
6.76
6.97
7.20
7.50
7.98
8.86
10.41
12.81
15.93
19.21
21.71
22.42
20.77
16.84
11.54
6.14
1.89
-0.47
-0.91
0.13
2.01
4.18
6.26
8.01
9.21
9.65
9.17
7.77
5.66
3.13
0.40
-2.40
-5.28
-8.22
-11.04
-13.37
-14.76
-14.90
-13.79
-11.82
-9.61
-7.77
-6.65
-6.30
-6.43
-6.66
-6.69
-6.45
-6.02
-5.55
-5.15
-4.83
-4.52
-4.16
-3.75
-3.39
-3.18
-3.18
-3.41
-3.82
-4.32
-4.83
-5.29
-5.70
-6.08
-6.45
-6.84
-7.23
-7.57
-7.82
-7.96
-8.01
-7.98
-7.87
-7.67
-7.30
-6.71
-5.89
-4.93
-3.95
-3.10
-2.44
-1.98
-1.65
-1.32
-0.90
-0.43
-0.02
0.14
-0.06
-0.61
-1.36
-2.08
-2.56
-2.59
-2.07
-0.94
0.79
3.02
5.54
8.02
10.11
11.48
11.94
11.49
10.31
8.65
6.86
5.26
4.08
3.43
3.25
3.36
3.49
3.46
3.18
2.58
1.61
0.13
-2.04
-4.98
-8.58
-12.50
-16.28
-19.58
-22.30
-24.52
-26.38
-27.76
-28.19
-27.01
-23.74
-18.61
-12.70
-7.67
-4.99
-5.12
-7.21
-9.43
-9.79
-7.10
-1.37
6.32
14.37
21.32
26.21
28.60
28.43
25.97
21.86
17.05
12.69
9.78
8.77
9.44
11.08
12.74
13.51
12.59
9.41
3.81
-3.79
-12.22
-19.75
-24.67
-25.92
-23.68
-19.29
-14.67
-11.60
-10.92
-12.38
-14.82
-16.76
-16.86
-14.39
-9.45
-3.00
3.35
7.72
8.69
5.82
-0.08
-7.19
-13.46
-17.33
-18.29
-16.82
-13.91
-10.57
-7.45
-4.84
-2.84
-1.46
-0.63
-0.21
0.13
0.75
1.86
3.41
5.05
6.32
6.88
6.64
5.85
4.92
4.33
4.39
5.25
6.79
8.75
10.72
12.27
13.09
13.05
12.26
11.00
9.66
8.55
7.86
7.58
7.59
7.70
7.71
7.49
6.96
6.15
5.20
4.32
3.71
3.46
3.46
3.41
2.91
1.77
0.17
-1.46
-2.58
-2.99
-2.96
-3.05
-3.79
-5.20
-6.76
-7.63
-7.14
-5.20
-2.30
0.77
3.32
5.14
6.38
7.40
8.41
9.41
10.17
10.52
10.38
9.87
9.19
8.53
8.00
7.59
7.20
6.72
6.05
5.22
4.37
3.68
3.31
3.33
3.67
4.21
4.82
5.42
5.89
6.12
5.92
5.10
3.54
1.31
-1.38
-4.16
-6.70
-8.79
-10.34
-11.42
-12.04
-12.10
-11.43
-9.81
-7.15
-3.62
0.39
4.31
7.57
9.68
10.31
9.35
6.87
3.30
-0.67
-4.13
-6.28
-6.65
-5.41
-3.20
-0.92
0.77
1.67
2.07
2.51
3.40
4.76
6.17
6.98
6.64
5.04
2.61
0.11
-1.75
-2.67
-2.90
-3.06
-3.76
-5.19
-6.99
-8.48
-9.12
-8.84
-8.07
-7.45
-7.51
-8.28
-9.41
-10.37
-10.80
-10.61
-9.98
-9.23
-8.56
-7.98
-7.34
-6.36
-4.77
-2.38
0.78
4.45
8.20
11.54
14.03
15.46
15.85
15.44
14.54
13.53
12.71
12.36
12.73
14.05
16.55
20.31
25.19
30.59
35.52
38.71
39.04
35.97
29.87
21.99
14.06
7.70
3.78
2.25
2.25
2.57
2.13
0.28
-3.16
-7.97
-13.67
-19.50
-24.50
-27.67
-28.23
-26.00
-21.58
-16.23
-11.49
-8.56
-7.97
-9.34
-11.73
-13.95
-15.05
-14.61
-12.74
-10.07
-7.47
-5.85
-5.85
-7.66
-10.88
-14.62
-17.72
-19.17
-18.46
-15.68
-11.46
-6.62
-1.98
1.84
4.41
5.42
4.72
2.33
-1.31
-5.30
-8.49
-9.79
-8.66
-5.29
-0.61
4.20
8.21
11.02
12.84
14.11
15.22
16.28
17.22
17.93
18.41
18.77
19.03
19.04
18.49
17.13
14.94
12.23
9.40
6.73
4.11
1.10
-2.83
-7.92
-13.81
-19.60
-24.02
-25.95
-24.91
-21.25
-16.13
-11.09
-7.49
-5.99
-6.45
-8.10
-10.07
-11.77
-13.03
-13.95
-14.59
-14.70
-13.81
-11.51
-7.78
-3.24
1.04
3.89
4.55
3.00
-0.05
-3.45
-6.06
-7.18
-6.68
-4.84
-2.13
1.01
4.26
7.39
10.11
12.05
12.90
12.57
11.37
9.93
8.92
8.77
9.47
10.55
11.37
11.47
10.78
9.63
8.41
7.25
5.90
3.76
0.33
-4.48
-10.11
-15.59
-19.80
-22.00
-21.96
-19.98
-16.71
-12.87
-9.10
-5.87
-3.54
-2.33
-2.44
-3.99
-7.04
-11.52
-17.09
-23.14
-28.70
-32.57
-33.62
-31.14
-25.19
-16.67
-7.21
1.36
7.50
10.49
10.62
9.02
7.14
6.26
7.03
9.32
12.48
15.69
18.35
20.31
21.75
23.03
24.35
25.64
26.56
26.73
25.96
24.31
22.03
19.34
16.31
12.78
8.64
4.00
-0.67
-4.64
-7.21
-8.05
-7.41
-6.01
-4.74
-4.37
-5.24
-7.28
-10.18
-13.49
-16.82
-19.82
-22.24
-23.88
-24.70
-24.82
-24.34
-23.28
-21.35
-18.03
-12.84
-5.85
2.04
9.19
13.73
14.49
11.47
5.99
0.05
-4.56
-6.86
-6.90
-5.39
-3.12
-0.61
1.85
4.02
5.49
5.77
4.68
2.58
0.44
-0.50
0.73
4.42
9.98
16.25
21.89
25.90
27.86
27.93
26.71
24.87
22.95
21.22
19.69
18.21
16.68
15.03
13.36
11.87
10.79
10.29
10.42
11.01
11.74
12.20
12.06
11.20
9.71
7.75
5.51
3.03
0.39
-2.29
-4.69
-6.48
-7.44
-7.75
-7.88
-8.43
-9.77
-11.83
-14.08
-15.83
-16.55
-16.16
-14.96
-13.46
-12.08
-10.99
-10.10
-9.20
-8.17
-7.06
-6.05
-5.33
-4.95
-4.75
-4.47
-3.91
-2.98
-1.82
-0.70
0.07
0.29
-0.10
-0.99
-2.20
-3.50
-4.69
-5.65
-6.35
-6.82
-7.15
-7.46
-7.89
-8.55
-9.49
-10.68
-11.90
-12.80
-12.95
-12.01
-9.90
-6.89
-3.52
-0.57
1.31
1.73
0.73
-1.32
-3.89
-6.48
-8.68
-10.21
-10.84
-10.39
-8.73
-5.85
-1.96
2.56
7.18
11.38
14.67
16.71
17.32
16.56
14.76
12.50
10.42
8.98
8.33
8.29
8.54
8.86
9.16
9.37
9.36
8.82
7.36
4.76
1.13
-3.07
-7.20
-10.69
-13.28
-15.00
-16.14
-17.04
-17.96
-19.00
-20.18
-21.41
-22.56
-23.55
-24.33
-24.86
-25.00
-24.53
-23.15
-20.64
-17.00
-12.57
-7.95
-3.81
-0.65
1.42
2.65
3.51
4.42
5.52
6.67
7.56
7.97
7.89
7.57
7.36
7.48
7.92
8.43
8.73
8.70
8.47
8.37
8.70
9.58
10.98
12.69
14.53
16.32
17.81
18.65
18.38
16.59
13.14
8.39
3.07
-1.87
-5.63
-7.78
-8.33
-7.65
-6.18
-4.34
-2.42
-0.58
1.13
2.74
4.35
6.08
7.93
9.78
11.38
12.47
13.03
13.36
13.99
15.37
17.61
20.33
22.76
24.11
23.82
21.80
18.36
14.05
9.57
5.69
3.32
3.25
5.85
10.80
16.92
22.54
26.05
26.49
23.89
19.16
13.65
8.66
5.05
3.10
2.63
3.23
4.36
5.50
6.16
5.90
4.37
1.37
-3.01
-8.36
-13.96
-18.91
-22.47
-24.21
-24.20
-22.86
-20.78
-18.40
-15.93
-13.38
-10.78
-8.29
-6.26
-5.16
-5.37
-6.96
-9.64
-12.75
-15.51
-17.23
-17.59
-16.72
-15.07
-13.25
-11.71
-10.58
-9.72
-8.88
-7.84
-6.51
-4.91
-3.09
-1.11
0.91
2.71
3.95
4.25
3.49
1.83
-0.25
-2.17
-3.57
-4.40
-4.87
-5.33
-6.03
-7.01
-8.21
-9.51
-10.85
-12.26
-13.71
-15.14
-16.39
-17.29
-17.70
-17.52
-16.64
-14.90
-12.02
-7.74
-1.97
4.96
12.36
19.23
24.61
27.85
28.83
27.91
25.80
23.35
21.32
20.32
20.51
21.56
22.58
22.42
20.05
15.14
8.36
1.15
-4.77
-8.18
-8.84
-7.61
-6.00
-5.62
-7.53
-11.89
-17.96
-24.34
-29.37
-31.61
-30.22
-25.09
-16.97
-7.29
2.14
9.48
13.35
13.18
9.46
3.62
-2.35
-6.54
-7.75
-5.85
-1.78
2.94
6.71
8.41
7.61
4.51
-0.23
-5.78
-11.28
-15.89
-18.73
-18.97
-16.04
-9.86
-1.18
8.51
17.24
23.21
25.38
23.81
19.50
13.87
8.25
3.46
-0.13
-2.39
-3.13
-2.13
0.64
4.78
9.35
13.20
15.37
15.46
13.75
10.92
7.70
4.66
2.12
0.37
-0.30
0.31
2.13
4.63
6.85
7.76
6.77
3.97
0.17
-3.52
-6.12
-7.17
-6.75
-5.33
-3.40
-1.32
0.70
2.55
4.09
5.19
5.78
5.86
5.52
4.80
3.70
2.18
0.30
-1.78
-3.71
-5.22
-6.24
-7.01
-7.98
-9.56
-11.88
-14.67
-17.39
-19.46
-20.52
-20.45
-19.41
-17.76
-15.89
-14.20
-12.98
-12.29
-11.94
-11.37
-9.82
-6.57
-1.23
5.97
14.15
22.05
28.33
31.98
32.59
30.40
26.15
20.84
15.47
10.83
7.27
4.72
2.65
0.38
-2.77
-7.13
-12.49
-18.12
-22.94
-25.88
-26.20
-23.86
-19.46
-14.17
-9.26
-5.70
-3.82
-3.35
-3.63
-4.07
-4.42
-4.81
-5.41
-6.12
-6.45
-5.76
-3.67
-0.38
3.26
6.23
7.78
7.81
6.84
5.73
5.17
5.40
6.27
7.36
8.33
9.01
9.45
9.77
10.03
10.07
9.69
8.69
7.06
5.03
3.04
1.55
0.84
0.88
1.34
1.77
1.79
1.27
0.36
-0.68
-1.57
-2.21
-2.71
-3.30
-4.17
-5.34
-6.61
-7.66
-8.20
-8.12
-7.47
-6.48
-5.40
-4.41
-3.57
-2.84
-2.16
-1.53
-1.03
-0.84
-1.12
-1.94
-3.15
-4.41
-5.26
-5.35
-4.58
-3.12
-1.37
0.29
1.63
2.55
3.09
3.29
3.17
2.77
2.24
1.76
1.52
1.58
1.81
2.05
2.16
2.18
2.25
2.49
2.90
3.30
3.42
3.05
2.17
0.92
-0.42
-1.60
-2.40
-2.71
-2.51
-1.89
-1.04
-0.18
0.47
0.80
0.86
0.80
0.83
1.11
1.70
2.58
3.62
4.65
5.43
5.71
5.31
4.20
2.58
0.80
-0.66
-1.42
-1.30
-0.38
1.04
2.55
3.77
4.46
4.51
4.02
3.15
2.14
1.20
0.43
-0.13
-0.52
-0.82
-1.11
-1.44
-1.80
-2.10
-2.22
-2.05
-1.53
-0.71
0.27
1.27
2.15
2.82
3.21
3.25
2.86
2.03
0.89
-0.21
-0.83
-0.53
0.80
2.90
5.16
6.86
7.51
6.99
5.60
3.84
2.22
1.02
0.33
0.11
0.22
0.52
0.83
0.90
0.49
-0.53
-2.07
-3.78
-5.18
-5.79
-5.31
-3.80
-1.57
0.86
3.04
4.69
5.77
6.48
7.06
7.68
8.43
9.36
10.45
11.69
12.92
13.82
13.97
13.04
11.03
8.30
5.50
3.23
1.77
1.00
0.48
-0.19
-1.24
-2.53
-3.73
-4.47
-4.53
-3.92
-2.86
-1.63
-0.49
0.43
1.16
1.77
2.40
3.05
3.62
3.92
3.78
3.09
1.87
0.24
-1.60
-3.40
-4.94
-6.06
-6.76
-7.15
-7.44
-7.80
-8.30
-8.89
-9.47
-9.95
-10.35
-10.78
-11.34
-12.11
-13.08
-14.28
-15.79
-17.72
-20.00
-22.27
-23.78
-23.60
-21.04
-16.05
-9.35
-2.28
3.79
8.02
10.36
11.51
12.30
13.30
14.42
15.14
14.86
13.30
10.60
7.17
3.37
-0.61
-4.76
-9.00
-13.06
-16.41
-18.56
-19.35
-19.13
-18.73
-19.06
-20.69
-23.57
-26.92
-29.61
-30.45
-28.64
-23.95
-16.81
-8.25
0.26
7.11
10.98
11.30
8.48
3.89
-0.63
-3.48
-3.83
-1.87
1.56
5.44
9.03
12.06
14.55
16.67
18.56
20.42
22.42
24.77
27.50
30.29
32.48
33.26
32.05
28.74
23.87
18.48
13.88
11.23
11.29
14.26
19.65
26.39
32.89
37.43
38.55
35.55
28.74
19.46
9.61
0.94
-5.51
-9.59
-11.85
-13.06
-13.73
-14.04
-13.96
-13.58
-13.18
-13.11
-13.53
-14.26
-14.84
-14.85
-14.17
-13.04
-11.90
-11.13
-10.81
-10.77
-10.72
-10.49
-10.09
-9.61
-9.20
-8.95
-8.86
-8.92
-9.12
-9.47
-9.91
-10.28
-10.40
-10.09
-9.33
-8.28
-7.22
-6.44
-6.15
-6.44
-7.31
-8.66
-10.38
-12.31
-14.19
-15.65
-16.27
-15.70
-13.84
-10.97
-7.75
-4.97
-3.34
-3.16
-4.17
-5.65
-6.61
-6.21
-3.99
-0.13
4.59
8.98
11.82
12.33
10.44
6.85
2.81
-0.45
-2.07
-1.95
-0.56
1.24
2.67
3.26
2.97
2.07
1.01
0.18
-0.22
-0.21
-0.02
0.19
0.44
1.04
2.35
4.50
7.10
9.36
10.40
9.75
7.65
4.97
2.71
1.51
1.35
1.63
1.65
1.04
-0.09
-1.24
-1.87
-1.68
-0.78
0.39
1.35
1.76
1.59
1.08
0.61
0.46
0.70
1.12
1.38
1.18
0.43
-0.72
-1.96
-3.02
-3.74
-4.08
-4.01
-3.46
-2.38
-0.79
1.06
2.72
3.67
3.55
2.33
0.30
-2.02
-4.17
-5.79
-6.81
-7.26
-7.23
-6.73
-5.75
-4.26
-2.33
-0.09
2.27
4.59
6.79
8.86
10.77
12.45
13.76
14.56
14.84
14.79
14.75
15.02
15.70
16.60
17.39
17.74
17.49
16.68
15.41
13.68
11.39
8.49
5.15
1.86
-0.67
-1.83
-1.43
0.19
2.31
4.11
5.06
5.09
4.58
4.10
4.13
4.89
6.26
7.95
9.64
11.11
12.26
13.00
13.17
12.54
10.99
8.65
6.04
3.82
2.49
2.14
2.24
2.02
0.78
-1.71
-5.07
-8.59
-11.53
-13.50
-14.48
-14.72
-14.47
-13.76
-12.49
-10.61
-8.27
-5.89
-4.01
-3.03
-3.03
-3.66
-4.35
-4.49
-3.67
-1.75
1.09
4.53
8.16
11.61
14.58
16.95
18.71
20.05
21.13
22.12
22.94
23.32
22.79
20.89
17.37
12.38
6.49
0.50
-4.88
-9.29
-12.76
-15.65
-18.31
-20.92
-23.42
-25.65
-27.49
-29.02
-30.37
-31.61
-32.55
-32.77
-31.88
-29.65
-26.30
-22.30
-18.34
-14.95
-12.44
-10.80
-9.79
-9.04
-8.12
-6.69
-4.50
-1.55
1.88
5.29
8.05
9.70
10.14
9.69
8.93
8.44
8.54
9.14
9.85
10.19
9.87
8.89
7.48
6.01
4.72
3.68
2.82
1.94
0.88
-0.41
-1.86
-3.33
-4.64
-5.67
-6.38
-6.80
-6.96
-6.85
-6.38
-5.49
-4.21
-2.73
-1.39
-0.52
-0.29
-0.60
-1.08
-1.33
-1.02
-0.12
1.12
2.26
2.89
2.80
2.11
1.23
0.68
0.88
1.94
3.65
5.64
7.59
9.42
11.30
13.45
16.00
18.78
21.41
23.43
24.58
24.80
24.27
23.16
21.51
19.21
16.12
12.22
7.71
3.01
-1.42
-5.23
-8.30
-10.70
-12.62
-14.27
-15.86
-17.52
-19.25
-20.86
-21.97
-22.09
-20.83
-18.14
-14.38
-10.23
-6.41
-3.46
-1.57
-0.69
-0.63
-1.17
-2.10
-3.15
-3.99
-4.32
-4.01
-3.14
-1.98
-0.79
0.28
1.23
2.09
2.80
3.09
2.64
1.31
-0.76
-3.15
-5.33
-6.94
-7.85
-8.21
-8.16
-7.77
-6.93
-5.49
-3.35
-0.60
2.54
5.80
8.95
11.92
14.70
17.36
19.85
21.97
23.37
23.53
22.07
18.95
14.60
9.98
6.20
4.16
4.17
5.83
8.28
10.57
12.12
12.88
13.14
13.27
13.37
13.19
12.37
10.61
7.93
4.66
1.24
-1.88
-4.46
-6.39
-7.70
-8.49
-8.97
-9.45
-10.28
-11.80
-14.14
-17.18
-20.50
-23.53
-25.67
-26.55
-26.07
-24.44
-22.08
-19.46
-16.96
-14.89
-13.43
-12.58
-12.20
-11.88
-11.11
-9.38
-6.52
-2.79
1.07
4.19
5.93
6.12
5.11
3.46
1.65
-0.16
-2.03
-4.12
-6.40
-8.58
-10.21
-10.84
-10.24
-8.46
-5.84
-2.88
-0.15
1.84
2.77
2.57
1.46
-0.13
-1.68
-2.67
-2.76
-1.82
0.06
2.63
5.45
8.08
10.13
11.34
11.65
11.14
10.01
8.50
6.92
5.58
4.80
4.85
5.86
7.72
10.14
12.67
14.86
16.38
17.06
16.87
15.82
13.90
11.14
7.68
3.76
-0.23
-3.84
-6.68
-8.54
-9.43
-9.53
-9.16
-8.65
-8.26
-8.11
-8.24
-8.63
-9.32
-10.35
-11.73
-13.38
-15.07
-16.46
-17.27
-17.30
-16.58
-15.29
-13.72
-12.15
-10.77
-9.69
-8.88
-8.18
-7.35
-6.17
-4.51
-2.50
-0.44
1.31
2.50
3.08
3.24
3.27
3.39
3.66
4.02
4.38
4.74
5.18
5.73
6.31
6.63
6.28
4.98
2.73
-0.08
-2.85
-5.02
-6.28
-6.71
-6.63
-6.42
-6.31
-6.30
-6.23
-5.83
-4.95
-3.56
-1.82
-0.05
1.37
2.03
1.59
-0.06
-2.76
-5.98
-8.93
-10.80
-10.98
-9.34
-6.29
-2.61
0.87
3.64
5.66
7.30
9.06
11.29
14.05
17.14
20.31
23.32
25.99
28.08
29.26
29.25
27.96
25.68
23.05
20.81
19.55
19.42
20.13
20.99
21.20
20.08
17.26
12.80
7.25
1.54
-3.10
-5.41
-4.48
-0.13
6.93
15.10
22.42
27.11
28.19
25.68
20.48
13.82
6.79
-0.04
-6.50
-12.53
-17.79
-21.59
-23.22
-22.31
-19.33
-15.50
-12.50
-11.77
-13.98
-18.75
-24.82
-30.59
-34.71
-36.48
-35.95
-33.69
-30.44
-26.84
-23.32
-20.17
-17.53
-15.48
-14.06
-13.15
-12.56
-11.96
-11.01
-9.42
-7.07
-4.14
-1.03
1.70
3.64
4.70
5.18
5.59
6.30
7.31
8.22
8.49
7.79
6.11
3.84
1.39
-0.86
-2.75
-4.20
-5.09
-5.29
-4.73
-3.57
-2.22
-1.22
-0.91
-1.33
-2.21
-3.11
-3.72
-3.87
-3.55
-2.73
-1.37
0.67
3.45
6.94
10.97
15.24
19.42
23.08
25.82
27.26
27.20
25.76
23.39
20.82
18.74
17.66
17.66
18.49
19.63
20.53
20.75
19.96
17.94
14.64
10.15
4.77
-0.96
-6.36
-10.79
-13.87
-15.67
-16.69
-17.61
-19.04
-21.11
-23.36
-24.94
-24.99
-23.08
-19.43
-14.82
-10.20
-6.25
-3.23
-0.93
0.93
2.50
3.70
4.32
4.31
3.91
3.61
3.82
4.57
5.34
5.30
3.63
-0.05
-5.41
-11.56
-17.31
-21.63
-23.97
-24.35
-23.21
-21.18
-18.77
-16.31
-13.92
-11.58
-9.35
-7.29
-5.56
-4.16
-3.01
-1.84
-0.38
1.51
3.74
6.02
8.08
9.78
11.28
12.97
15.18
18.00
21.11
23.92
25.76
26.27
25.43
23.56
21.13
18.50
15.96
13.67
11.84
10.68
10.26
10.42
10.69
10.47
9.25
6.93
3.80
0.50
-2.40
-4.59
-6.13
-7.35
-8.56
-9.92
-11.31
-12.48
-13.18
-13.34
-13.05
-12.53
-11.94
-11.40
-10.99
-10.80
-10.93
-11.42
-12.17
-12.87
-13.06
-12.35
-10.64
-8.22
-5.70
-3.72
-2.71
-2.69
-3.36
-4.25
-4.93
-5.15
-4.84
-4.02
-2.77
-1.19
0.60
2.47
4.34
6.15
7.86
9.45
10.92
12.31
13.64
14.91
16.03
16.77
16.86
16.13
14.70
13.00
11.66
11.24
11.98
13.79
16.26
18.99
21.64
23.99
25.80
26.79
26.61
25.09
22.36
18.88
15.33
12.30
10.09
8.64
7.59
6.57
5.29
3.70
1.90
0.04
-1.80
-3.59
-5.37
-7.18
-9.05
-11.07
-13.31
-15.83
-18.59
-21.40
-23.90
-25.67
-26.32
-25.61
-23.59
-20.56
-16.96
-13.38
-10.31
-8.08
-6.74
-6.13
-5.94
-5.87
-5.70
-5.34
-4.75
-3.91
-2.85
-1.62
-0.30
1.01
2.25
3.40
4.46
5.34
5.88
5.86
5.11
3.64
1.58
-0.80
-3.24
-5.48
-7.19
-7.90
-7.11
-4.43
0.08
5.75
11.39
15.72
17.79
17.43
15.27
12.42
10.03
8.79
8.66
9.04
9.06
7.96
5.48
1.79
-2.54
-6.84
-10.56
-13.40
-15.35
-16.66
-17.60
-18.39
-19.05
-19.42
-19.32
-18.71
-17.82
-17.03
-16.66
-16.77
-17.02
-16.87
-15.83
-13.77
-11.00
-8.12
-5.68
-3.94
-2.86
-2.24
-1.91
-1.84
-1.99
-2.22
-2.20
-1.58
-0.24
1.58
3.35
4.62
5.20
5.33
5.50
6.09
7.10
8.14
8.72
8.62
8.02
7.42
7.29
7.76
8.51
8.91
8.41
6.83
4.38
1.60
-0.92
-2.79
-3.94
-4.63
-5.26
-6.26
-7.93
-10.31
-13.21
-16.25
-18.94
-20.83
-21.65
-21.25
-19.65
-17.03
-13.68
-10.03
-6.61
-3.90
-2.18
-1.35
-0.95
-0.36
0.90
2.91
5.35
7.63
9.22
9.91
9.93
9.76
9.90
10.68
12.09
13.92
15.82
17.47
18.64
19.19
19.13
18.52
17.51
16.30
15.02
13.82
12.81
12.02
11.49
11.21
11.12
11.18
11.33
11.50
11.64
11.71
11.69
11.61
11.51
11.39
11.22
10.94
10.44
9.64
8.52
7.17
5.72
4.29
2.85
1.24
-0.78
-3.36
-6.43
-9.59
-12.35
-14.19
-14.88
-14.60
-13.79
-12.99
-12.62
-12.79
-13.33
-13.89
-14.15
-13.97
-13.39
-12.59
-11.68
-10.67
-9.43
-7.81
-5.82
-3.71
-1.87
-0.70
-0.33
-0.63
-1.20
-1.64
-1.64
-1.14
-0.30
0.64
1.40
1.74
1.52
0.70
-0.62
-2.17
-3.62
-4.61
-4.93
-4.58
-3.73
-2.69
-1.75
-1.12
-0.89
-1.08
-1.66
-2.63
-3.92
-5.43
-6.95
-8.15
-8.65
-8.15
-6.49
-3.79
-0.42
3.06
6.09
8.29
9.54
10.03
10.09
10.08
10.25
10.74
11.58
12.72
14.09
15.47
16.51
16.79
15.96
13.93
11.02
7.82
5.02
3.11
2.17
1.93
1.90
1.60
0.74
-0.80
-3.01
-5.78
-8.89
-11.94
-14.34
-15.44
-14.78
-12.34
-8.62
-4.55
-1.08
1.16
2.08
2.18
2.25
3.04
5.09
8.57
13.43
19.45
26.31
33.44
39.93
44.60
46.22
44.00
37.92
28.94
18.71
8.98
1.13
-4.21
-7.21
-8.51
-8.94
-9.26
-10.00
-11.42
-13.49
-15.95
-18.37
-20.26
-21.28
-21.36
-20.72
-19.79
-19.10
-19.07
-19.95
-21.67
-23.95
-26.28
-28.13
-29.12
-29.09
-28.18
-26.66
-24.75
-22.54
-19.88
-16.56
-12.48
-7.72
-2.63
2.35
6.79
10.38
12.91
14.27
14.40
13.33
11.22
8.42
5.40
2.63
0.45
-1.05
-2.00
-2.65
-3.17
-3.60
-3.83
-3.75
-3.36
-2.79
-2.22
-1.79
-1.47
-1.18
-0.85
-0.61
-0.76
-1.70
-3.73
-6.85
-10.71
-14.65
-17.90
-19.71
-19.61
-17.44
-13.39
-7.94
-1.69
4.82
11.15
17.05
22.31
26.75
30.27
33.00
35.32
37.61
39.86
41.35
40.81
36.99
29.43
18.93
7.38
-3.03
-10.70
-15.20
-17.07
-17.24
-16.30
-14.38
-11.40
-7.69
-4.23
-2.36
-3.13
-6.57
-11.58
-16.29
-18.96
-18.70
-15.85
-11.70
-7.87
-5.62
-5.34
-6.66
-8.70
-10.58
-11.81
-12.42
-12.80
-13.47
-14.74
-16.56
-18.52
-20.05
-20.64
-20.09
-18.49
-16.06
-12.91
-8.97
-4.16
1.34
6.97
11.80
14.94
15.95
15.02
12.85
10.19
7.46
4.70
1.79
-1.10
-3.36
-4.10
-2.61
1.20
6.60
12.37
17.22
20.33
21.41
20.68
18.56
15.47
11.79
7.91
4.28
1.35
-0.54
-1.26
-0.87
0.36
2.06
3.84
5.31
6.16
6.25
5.67
4.68
3.71
3.06
2.85
2.95
3.09
3.01
2.59
1.91
1.17
0.56
0.21
0.20
0.52
1.16
2.06
3.12
4.21
5.17
5.89
6.35
6.64
6.92
7.38
8.11
9.11
10.22
11.15
11.59
11.27
10.17
8.55
6.95
6.05
6.34
7.88
10.15
12.26
13.22
12.50
10.19
7.04
4.01
1.83
0.63
-0.05
-0.93
-2.56
-5.03
-7.93
-10.65
-12.64
-13.72
-14.03
-13.86
-13.47
-12.92
-12.18
-11.26
-10.36
-9.85
-10.07
-11.17
-12.89
-14.67
-15.86
-16.07
-15.28
-13.83
-12.20
-10.70
-9.39
-8.12
-6.72
-5.14
-3.51
-2.05
-0.90
-0.02
0.79
1.81
3.27
5.18
7.34
9.31
10.60
10.77
9.62
7.33
4.38
1.51
-0.60
-1.49
-1.05
0.45
2.55
4.69
6.46
7.58
7.91
7.43
6.23
4.42
2.17
-0.31
-2.80
-5.09
-6.92
-8.06
-8.27
-7.37
-5.32
-2.27
1.45
5.35
8.84
11.39
12.57
12.18
10.36
7.51
4.21
1.09
-1.34
-2.79
-3.24
-2.88
-2.11
-1.41
-1.27
-2.09
-3.97
-6.69
-9.76
-12.53
-14.47
-15.28
-14.98
-13.74
-11.88
-9.66
-7.30
-5.08
-3.34
-2.49
-2.80
-4.28
-6.47
-8.48
-9.20
-7.79
-4.05
1.39
7.24
12.01
14.56
14.58
12.61
9.70
6.95
5.04
4.11
3.90
4.15
4.73
5.76
7.43
9.75
12.47
15.11
17.12
18.10
17.95
16.80
14.99
12.92
10.90
9.16
7.81
6.88
6.37
6.25
6.49
6.98
7.46
7.66
7.31
6.30
4.70
2.68
0.43
-1.91
-4.25
-6.46
-8.43
-10.08
-11.37
-12.41
-13.35
-14.25
-15.09
-15.67
-15.79
-15.34
-14.33
-12.92
-11.31
-9.65
-8.08
-6.63
-5.35
-4.22
-3.21
-2.29
-1.42
-0.52
0.55
2.07
4.37
7.68
11.98
16.86
21.59
25.39
27.65
28.26
27.60
26.43
25.60
25.78
27.15
29.39
31.74
33.26
33.14
30.96
26.89
21.59
15.98
10.89
6.78
3.63
1.06
-1.52
-4.63
-8.57
-13.40
-18.82
-24.35
-29.35
-33.25
-35.68
-36.55
-36.05
-34.48
-32.19
-29.50
-26.68
-24.05
-21.93
-20.61
-20.17
-20.43
-20.91
-21.05
-20.36
-18.70
-16.22
-13.32
-10.47
-8.01
-6.02
-4.36
-2.82
-1.23
0.31
1.50
1.99
1.61
0.48
-0.98
-2.24
-2.92
-2.93
-2.49
-1.94
-1.59
-1.56
-1.74
-1.92
-1.84
-1.39
-0.58
0.38
1.15
1.33
0.59
-1.17
-3.75
-6.64
-9.25
-11.08
-11.98
-12.14
-11.93
-11.77
-11.86
-12.15
-12.44
-12.49
-12.12
-11.24
-9.80
-7.78
-5.21
-2.21
0.94
3.89
6.32
8.03
9.11
9.71
10.05
10.24
10.41
10.71
11.42
12.87
15.21
18.33
21.76
24.88
27.18
28.53
29.17
29.56
30.10
30.97
32.12
33.39
34.67
35.86
36.79
37.21
36.69
34.90
31.63
27.02
21.48
15.49
9.48
3.67
-1.89
-7.27
-12.43
-17.17
-21.14
-23.94
-25.40
-25.71
-25.47
-25.55
-26.75
-29.50
-33.61
-38.27
-42.31
-44.50
-43.99
-40.47
-34.27
-26.18
-17.24
-8.49
-0.77
5.35
9.58
11.95
12.75
12.47
11.78
11.20
10.98
11.00
10.84
10.10
8.70
7.00
5.63
5.10
5.47
6.24
6.62
5.91
3.93
1.04
-1.98
-4.29
-5.29
-4.73
-2.75
0.26
3.64
6.67
8.64
9.06
7.84
5.28
1.99
-1.44
-4.63
-7.62
-10.72
-14.25
-18.27
-22.40
-26.00
-28.32
-28.84
-27.38
-24.18
-19.72
-14.54
-9.13
-3.90
0.79
4.54
7.07
8.22
8.17
7.36
6.42
5.87
5.92
6.42
7.01
7.33
7.28
7.08
7.16
7.88
9.32
11.26
13.22
14.69
15.28
14.81
13.28
10.87
7.91
4.80
2.01
-0.00
-0.90
-0.59
0.73
2.67
4.69
6.28
7.06
6.84
5.62
3.63
1.25
-1.10
-3.06
-4.49
-5.46
-6.18
-6.86
-7.54
-8.12
-8.42
-8.27
-7.66
-6.71
-5.51
-4.16
-2.73
-1.39
-0.44
-0.23
-0.99
-2.56
-4.44
-5.85
-6.15
-5.06
-2.80
0.07
2.93
5.32
7.09
8.20
8.61
8.22
6.91
4.69
1.85
-1.07
-3.38
-4.59
-4.55
-3.56
-2.20
-1.04
-0.41
-0.27
-0.21
0.33
1.79
4.22
7.20
9.98
11.73
11.96
10.77
8.88
7.29
6.87
7.88
9.87
11.88
12.84
12.08
9.45
5.28
0.14
-5.38
-10.78
-15.57
-19.32
-21.67
-22.51
-22.09
-20.93
-19.64
-18.63
-17.94
-17.25
-16.14
-14.33
-11.89
-9.26
-7.04
-5.75
-5.56
-6.20
-7.11
-7.61
-7.26
-5.98
-4.03
-1.83
0.26
2.03
3.52
4.78
5.84
6.63
7.06
7.09
6.83
6.44
6.05
5.71
5.42
5.10
4.75
4.44
4.29
4.39
4.78
5.40
6.21
7.12
8.02
8.75
9.12
8.92
8.08
6.71
5.12
3.71
2.79
2.42
2.42
2.46
2.24
1.64
0.72
-0.30
-1.20
-1.80
-2.00
-1.79
-1.19
-0.35
0.52
1.14
1.27
0.83
-0.05
-1.10
-1.96
-2.34
-2.14
-1.37
-0.22
1.13
2.49
3.74
4.84
5.77
6.56
7.18
7.58
7.69
7.45
6.90
6.16
5.39
4.70
4.11
3.51
2.77
1.80
0.70
-0.34
-1.10
-1.48
-1.54
-1.46
-1.44
-1.51
-1.54
-1.30
-0.60
0.58
2.02
3.32
4.12
4.18
3.53
2.41
1.20
0.19
-0.42
-0.66
-0.66
-0.60
-0.61
-0.72
-0.91
-1.13
-1.44
-1.91
-2.64
-3.64
-4.80
-5.90
-6.70
-7.10
-7.13
-7.04
-7.04
-7.34
-7.95
-8.80
-9.71
-10.52
-11.11
-11.38
-11.29
-10.82
-10.07
-9.23
-8.50
-7.97
-7.57
-7.11
-6.33
-5.09
-3.43
-1.54
0.38
2.23
4.08
6.14
8.60
11.47
14.53
17.32
19.32
20.13
19.69
18.35
16.78
15.79
16.12
18.12
21.66
26.16
30.64
34.08
35.61
34.85
31.98
27.68
22.95
18.79
15.96
14.81
15.24
16.66
18.11
18.47
16.79
12.55
5.92
-2.22
-10.58
-17.90
-23.36
-26.87
-28.97
-30.53
-32.36
-34.90
-38.04
-41.24
-43.75
-44.94
-44.62
-43.16
-41.30
-39.81
-38.98
-38.46
-37.31
-34.50
-29.37
-22.01
-13.18
-4.02
4.37
11.10
15.66
17.95
18.32
17.68
17.28
18.40
21.78
27.32
34.08
40.57
45.23
46.89
45.02
39.79
32.13
23.46
15.41
9.23
5.35
3.23
1.70
-0.50
-3.97
-8.53
-13.36
-17.58
-20.70
-22.70
-23.93
-24.74
-25.27
-25.44
-25.04
-23.84
-21.83
-19.26
-16.67
-14.67
-13.71
-13.80
-14.43
-14.76
-14.19
-12.65
-10.71
-9.23
-8.84
-9.50
-10.54
-11.04
-10.33
-8.39
-5.76
-3.21
-1.34
-0.35
-0.08
-0.21
-0.37
-0.23
0.54
2.25
5.02
8.69
12.69
16.26
18.66
19.55
19.00
17.45
15.47
13.50
11.80
10.51
9.67
9.20
8.84
8.12
6.55
3.94
0.59
-2.74
-5.06
-5.70
-4.59
-2.32
0.17
1.96
2.59
2.03
0.67
-0.97
-2.40
-3.22
-3.24
-2.47
-1.15
0.37
1.65
2.35
2.32
1.69
0.77
-0.04
-0.36
0.03
1.16
2.82
4.67
6.30
7.30
7.42
6.59
4.96
2.85
0.72
-1.05
-2.16
-2.46
-2.01
-0.94
0.53
2.21
3.90
5.39
6.45
6.81
6.34
5.04
3.07
0.82
-1.31
-2.99
-4.02
-4.38
-4.23
-3.86
-3.56
-3.58
-4.04
-4.91
-6.08
-7.40
-8.87
-10.54
-12.53
-14.76
-16.82
-18.06
-17.72
-15.33
-10.96
-5.23
0.81
6.13
9.98
12.10
12.68
12.08
10.69
8.75
6.36
3.65
0.84
-1.74
-3.77
-5.06
-5.62
-5.67
-5.49
-5.31
-5.19
-5.09
-4.97
-4.87
-4.93
-5.31
-6.09
-7.09
-7.94
-8.15
-7.37
-5.63
-3.31
-1.15
0.15
0.18
-0.98
-2.85
-4.79
-6.35
-7.39
-8.07
-8.56
-8.83
-8.62
-7.61
-5.72
-3.27
-0.98
0.42
0.45
-0.82
-2.86
-4.93
-6.41
-7.02
-6.79
-5.91
-4.47
-2.43
0.38
4.01
8.20
12.35
15.70
17.65
18.07
17.47
16.72
16.64
17.53
19.10
20.62
21.42
21.18
20.09
18.53
16.83
14.97
12.76
10.02
6.88
3.82
1.48
0.28
0.20
0.81
1.46
1.60
0.97
-0.37
-2.10
-3.91
-5.51
-6.70
-7.35
-7.36
-6.73
-5.63
-4.45
-3.70
-3.86
-5.12
-7.30
-9.90
-12.27
-13.89
-14.55
-14.35
-13.60
-12.62
-11.63
-10.73
-9.84
-8.88
-7.76
-6.45
-4.96
-3.31
-1.53
0.44
2.66
5.17
7.96
10.87
13.62
15.87
17.33
17.87
17.58
16.73
15.70
14.85
14.44
14.59
15.21
16.01
16.57
16.44
15.27
12.95
9.66
5.84
1.98
-1.54
-4.59
-7.25
-9.73
-12.14
-14.45
-16.48
-18.09
-19.22
-19.91
-20.16
-19.78
-18.43
-15.82
-11.98
-7.34
-2.63
1.55
4.90
7.59
9.90
11.93
13.41
13.80
12.72
10.29
7.20
4.41
2.62
1.89
1.64
0.99
-0.73
-3.56
-6.99
-10.21
-12.47
-13.42
-13.05
-11.67
-9.68
-7.48
-5.48
-4.04
-3.43
-3.74
-4.78
-6.08
-7.04
-7.06
-5.73
-2.96
1.03
5.73
10.40
14.24
16.60
17.21
16.24
14.22
11.83
9.50
7.37
5.33
3.30
1.44
0.23
0.23
1.75
4.66
8.37
12.08
15.05
16.84
17.36
16.78
15.38
13.48
11.42
9.46
7.83
6.66
5.89
5.34
4.80
4.07
3.06
1.79
0.34
-1.15
-2.57
-3.87
-5.11
-6.40
-7.93
-9.87
-12.27
-15.04
-17.86
-20.27
-21.74
-21.84
-20.35
-17.41
-13.40
-8.91
-4.53
-0.71
2.32
4.51
5.91
6.58
6.56
5.90
4.72
3.24
1.83
0.86
0.63
1.22
2.47
4.05
5.58
6.79
7.56
7.87
7.77
7.30
6.45
5.27
3.94
2.77
2.08
2.06
2.70
3.65
4.50
4.87
4.59
3.73
2.48
1.06
-0.39
-1.78
-3.03
-4.03
-4.64
-4.75
-4.39
-3.72
-3.01
-2.54
-2.49
-2.87
-3.63
-4.70
-6.03
-7.62
-9.42
-11.21
-12.66
-13.37
-13.06
-11.67
-9.43
-6.81
-4.30
-2.30
-0.95
-0.16
0.30
0.68
1.17
1.83
2.62
3.45
4.24
4.94
5.50
5.96
6.36
6.76
7.18
7.58
7.84
7.79
7.29
6.30
4.90
3.33
1.84
0.67
-0.07
-0.33
-0.17
0.33
1.06
1.92
2.77
3.54
4.19
4.68
5.04
5.24
5.22
4.95
4.43
3.71
2.89
2.05
1.24
0.49
-0.20
-0.82
-1.38
-1.87
-2.36
-2.99
-3.93
-5.28
-7.00
-8.89
-10.52
-11.45
-11.36
-10.18
-8.19
-5.92
-3.95
-2.72
-2.33
-2.60
-3.14
-3.52
-3.45
-2.87
-1.89
-0.67
0.60
1.79
2.82
3.64
4.23
4.62
4.84
4.94
4.95
4.90
4.78
4.54
4.10
3.41
2.44
1.21
-0.16
-1.52
-2.68
-3.49
-3.92
-4.02
-3.92
-3.73
-3.56
-3.41
-3.31
-3.29
-3.42
-3.74
-4.19
-4.63
-4.87
-4.75
-4.21
-3.37
-2.42
-1.59
-1.08
-0.96
-1.20
-1.68
-2.20
-2.53
-2.49
-1.99
-1.05
0.11
1.26
2.18
2.83
3.28
3.72
4.23
4.82
5.31
5.49
5.21
4.47
3.37
2.07
0.69
-0.70
-2.04
-3.22
-4.12
-4.64
-4.79
-4.64
-4.37
-4.12
-3.97
-3.91
-3.93
-3.99
-4.04
-3.94
-3.52
-2.56
-0.89
1.49
4.31
7.10
9.22
10.09
9.35
6.96
3.29
-1.09
-5.51
-9.48
-12.83
-15.67
-18.21
-20.60
-22.79
-24.55
-25.59
-25.77
-25.14
-23.95
-22.44
-20.72
-18.76
-16.36
-13.37
-9.81
-5.91
-2.03
1.49
4.42
6.69
8.29
9.21
9.38
8.86
7.87
6.83
6.21
6.35
7.25
8.69
10.34
11.99
13.64
15.36
17.08
18.49
19.14
18.66
16.99
14.43
11.58
9.10
7.49
7.05
7.83
9.63
12.01
14.32
15.97
16.51
15.93
14.56
12.87
11.17
9.52
7.73
5.59
3.13
0.61
-1.52
-2.97
-3.70
-4.05
-4.51
-5.60
-7.65
-10.60
-14.04
-17.23
-19.38
-19.83
-18.34
-15.18
-11.04
-6.80
-3.15
-0.48
1.27
2.44
3.46
4.66
6.18
7.93
9.68
11.17
12.26
12.97
13.49
14.03
14.67
15.27
15.48
14.99
13.64
11.54
9.00
6.41
4.07
2.17
0.81
0.09
0.07
0.73
1.96
3.49
4.96
6.06
6.52
6.18
4.99
3.04
0.61
-1.89
-3.99
-5.29
-5.68
-5.28
-4.49
-3.66
-3.09
-2.88
-3.01
-3.48
-4.37
-5.76
-7.65
-9.82
-11.79
-13.01
-13.08
-11.93
-9.84
-7.29
-4.70
-2.31
-0.10
2.10
4.52
7.28
10.37
13.59
16.55
18.68
19.41
18.30
15.25
10.59
5.16
-0.04
-4.11
-6.50
-7.30
-7.08
-6.71
-6.92
-8.06
-9.83
-11.46
-12.00
-10.80
-7.79
-3.58
0.90
4.68
7.07
7.83
7.03
4.91
1.84
-1.71
-5.08
-7.50
-8.27
-7.10
-4.31
-0.72
2.58
4.77
5.56
5.25
4.46
3.80
3.51
3.45
3.25
2.54
1.19
-0.67
-2.71
-4.60
-6.09
-7.06
-7.57
-7.71
-7.60
-7.37
-7.11
-6.91
-6.77
-6.66
-6.49
-6.12
-5.48
-4.59
-3.59
-2.67
-1.99
-1.63
-1.55
-1.68
-1.88
-2.11
-2.31
-2.46
-2.45
-2.13
-1.34
0.02
1.93
4.16
6.32
7.94
8.58
8.05
6.45
4.24
2.03
0.45
-0.15
0.20
1.17
2.27
3.14
3.61
3.70
3.57
3.27
2.78
2.02
0.95
-0.36
-1.75
-3.03
-4.09
-4.91
-5.55
-6.07
-6.55
-6.99
-7.36
-7.62
-7.80
-7.88
-7.90
-7.83
-7.67
-7.36
-6.86
-6.16
-5.27
-4.26
-3.15
-1.97
-0.71
0.61
1.93
3.10
3.99
4.49
4.62
4.57
4.63
5.01
5.82
6.88
7.82
8.24
7.87
6.76
5.24
3.75
2.62
1.95
1.61
1.42
1.35
1.57
2.28
3.56
5.15
6.53
7.18
6.91
5.95
4.87
4.25
4.37
5.11
6.06
6.78
6.97
6.55
5.51
3.90
1.75
-0.88
-3.77
-6.61
-9.05
-10.83
-11.86
-12.20
-11.97
-11.33
-10.41
-9.39
-8.44
-7.71
-7.23
-6.91
-6.53
-5.84
-4.69
-3.10
-1.19
0.84
2.85
4.84
6.84
8.89
10.90
12.70
14.13
15.15
15.96
16.85
18.09
19.66
21.18
22.08
21.77
19.97
16.83
12.84
8.60
4.63
1.20
-1.67
-4.09
-6.18
-7.97
-9.42
-10.46
-11.09
-11.40
-11.54
-11.64
-11.73
-11.75
-11.50
-10.80
-9.57
-7.88
-5.97
-4.12
-2.60
-1.57
-1.04
-0.91
-1.05
-1.34
-1.70
-2.13
-2.65
-3.23
-3.77
-4.08
-4.00
-3.37
-2.15
-0.47
1.47
3.39
5.02
6.17
6.77
6.91
6.81
6.75
7.02
7.76
8.94
10.31
11.48
12.01
11.54
9.86
7.03
3.35
-0.68
-4.43
-7.32
-9.02
-9.56
-9.31
-8.84
-8.65
-9.01
-9.90
-11.08
-12.22
-13.09
-13.54
-13.49
-12.85
-11.59
-9.72
-7.42
-5.01
-2.80
-1.09
0.03
0.59
0.71
0.57
0.37
0.35
0.67
1.38
2.32
3.12
3.40
2.88
1.62
-0.02
-1.48
-2.30
-2.26
-1.49
-0.41
0.48
0.74
0.14
-1.26
-3.20
-5.25
-7.00
-8.10
-8.38
-7.86
-6.75
-5.35
-3.97
-2.90
-2.30
-2.21
-2.51
-2.98
-3.36
-3.45
-3.13
-2.43
-1.54
-0.72
-0.24
-0.31
-0.94
-1.99
-3.11
-3.93
-4.09
-3.42
-1.94
0.13
2.45
4.65
6.40
7.49
7.86
7.56
6.75
5.62
4.34
3.08
1.98
1.15
0.68
0.51
0.53
0.57
0.50
0.33
0.20
0.23
0.47
0.74
0.72
0.13
-1.10
-2.75
-4.37
-5.56
-6.13
-6.17
-5.96
-5.82
-5.88
-6.09
-6.26
-6.21
-5.78
-4.92
-3.64
-2.05
-0.26
1.52
3.09
4.23
4.79
4.75
4.18
3.27
2.23
1.31
0.70
0.52
0.76
1.30
1.95
2.50
2.83
2.90
2.80
2.65
2.47
2.25
1.89
1.32
0.56
-0.19
-0.70
-0.72
-0.18
0.74
1.69
2.19
1.86
0.54
-1.59
-4.05
-6.18
-7.33
-7.07
-5.30
-2.32
1.31
4.85
7.70
9.42
9.86
9.09
7.31
4.76
1.68
-1.68
-5.03
-8.07
-10.48
-12.08
-12.85
-12.95
-12.69
-12.38
-12.22
-12.27
-12.46
-12.61
-12.56
-12.15
-11.25
-9.75
-7.56
-4.70
-1.28
2.41
6.03
9.23
11.70
13.36
14.27
14.66
14.76
14.77
14.73
14.54
14.05
13.19
12.05
10.84
9.83
9.17
8.89
8.84
8.79
8.53
7.96
7.02
5.70
4.09
2.26
0.34
-1.46
-2.94
-3.85
-3.93
-3.05
-1.23
1.25
3.88
6.00
7.07
6.76
5.14
2.55
-0.48
-3.39
-5.74
-7.30
-8.06
-8.22
-8.13
-8.16
-8.59
-9.49
-10.67
-11.81
-12.49
-12.36
-11.25
-9.22
-6.56
-3.70
-1.11
0.86
2.07
2.53
2.40
1.84
1.01
0.06
-0.86
-1.57
-2.01
-2.24
-2.46
-2.82
-3.31
-3.66
-3.40
-2.13
0.23
3.36
6.58
9.24
10.97
11.80
12.03
12.00
11.82
11.37
10.40
8.78
6.61
4.19
1.85
-0.25
-2.17
-4.10
-6.20
-8.47
-10.69
-12.54
-13.70
-14.05
-13.65
-12.75
-11.71
-10.79
-10.11
-9.58
-9.00
-8.15
-6.95
-5.49
-3.96
-2.55
-1.34
-0.31
0.64
1.56
2.39
2.99
3.27
3.29
3.29
3.52
4.15
5.08
6.04
6.70
6.86
6.56
6.05
5.59
5.34
5.23
5.10
4.77
4.23
3.59
3.02
2.61
2.36
2.19
2.02
1.87
1.81
1.96
2.38
3.01
3.70
4.24
4.43
4.14
3.31
2.00
0.41
-1.18
-2.49
-3.37
-3.86
-4.19
-4.69
-5.62
-7.06
-8.83
-10.58
-11.84
-12.25
-11.63
-10.05
-7.80
-5.26
-2.76
-0.49
1.51
3.30
4.89
6.23
7.22
7.75
7.85
7.63
7.28
6.98
6.82
6.80
6.83
6.83
6.74
6.53
6.19
5.71
5.09
4.38
3.67
3.14
2.92
3.10
3.61
4.23
4.72
4.85
4.56
3.92
3.09
2.27
1.58
1.11
0.94
1.06
1.45
2.00
2.54
2.86
2.78
2.21
1.19
-0.11
-1.45
-2.53
-3.20
-3.44
-3.43
-3.46
-3.83
-4.72
-6.08
-7.71
-9.22
-10.35
-10.91
-10.93
-10.59
-10.13
-9.73
-9.41
-9.01
-8.23
-6.79
-4.58
-1.83
0.93
3.01
3.83
3.28
1.75
0.15
-0.55
0.41
3.20
7.37
12.00
16.10
18.89
20.04
19.60
17.92
15.42
12.42
9.18
5.87
2.68
-0.16
-2.46
-4.07
-5.04
-5.52
-5.76
-5.98
-6.27
-6.61
-6.91
-7.09
-7.13
-7.11
-7.06
-6.97
-6.69
-6.09
-5.10
-3.82
-2.53
-1.61
-1.35
-1.85
-2.97
-4.40
-5.79
-6.83
-7.32
-7.22
-6.56
-5.44
-4.04
-2.51
-1.03
0.31
1.50
2.58
3.57
4.37
4.77
4.48
3.34
1.43
-0.84
-2.87
-4.03
-3.90
-2.50
-0.19
2.45
4.91
6.97
8.70
10.38
12.25
14.30
16.20
17.45
17.55
16.29
13.78
10.36
6.49
2.45
-1.56
-5.45
-9.14
-12.47
-15.26
-17.30
-18.45
-18.65
-17.90
-16.27
-13.90
-11.01
-7.85
-4.75
-2.01
0.08
1.38
1.88
1.79
1.52
1.54
2.22
3.65
5.59
7.54
8.91
9.26
8.42
6.50
3.83
0.81
-2.13
-4.69
-6.58
-7.62
-7.66
-6.64
-4.62
-1.93
0.91
3.18
4.20
3.57
1.30
-2.07
-5.63
-8.38
-9.52
-8.67
-6.00
-2.05
2.41
6.64
10.11
12.59
14.11
14.95
15.46
15.93
16.58
17.44
18.35
19.14
19.60
19.64
19.27
18.52
17.45
16.06
14.45
12.81
11.40
10.48
10.13
10.17
10.20
9.80
8.76
7.18
5.44
3.92
2.86
2.22
1.79
1.35
0.85
0.45
0.33
0.62
1.26
1.95
2.35
2.18
1.34
-0.08
-1.93
-4.04
-6.36
-8.86
-11.43
-13.79
-15.48
-16.03
-15.14
-12.91
-9.81
-6.54
-3.70
-1.59
-0.11
1.11
2.44
4.01
5.67
7.05
7.80
7.68
6.76
5.24
3.42
1.55
-0.18
-1.62
-2.67
-3.32
-3.62
-3.73
-3.88
-4.22
-4.80
-5.48
-6.05
-6.34
-6.35
-6.22
-6.16
-6.29
-6.63
-7.07
-7.52
-7.99
-8.60
-9.49
-10.70
-12.12
-13.49
-14.47
-14.87
-14.62
-13.82
-12.62
-11.21
-9.82
-8.69
-8.15
-8.48
-9.72
-11.65
-13.72
-15.30
-15.87
-15.27
-13.63
-11.30
-8.60
-5.72
-2.76
0.15
2.77
4.79
5.95
6.15
5.60
4.71
3.92
3.64
4.06
5.13
6.62
8.18
9.49
10.27
10.44
10.05
9.24
8.13
6.82
5.36
3.82
2.37
1.21
0.55
0.49
0.95
1.71
2.47
2.95
3.02
2.70
2.19
1.78
1.72
2.23
3.38
5.14
7.39
9.96
12.65
15.28
17.70
19.74
21.26
22.10
22.19
21.50
20.13
18.21
15.94
13.45
10.74
7.68
4.17
0.26
-3.71
-7.23
-9.78
-11.15
-11.54
-11.41
-11.27
-11.35
-11.59
-11.71
-11.48
-10.82
-9.79
-8.52
-7.17
-5.94
-5.18
-5.32
-6.78
-9.68
-13.81
-18.54
-23.08
-26.69
-28.83
-29.27
-28.12
-25.71
-22.58
-19.23
-16.02
-13.00
-9.90
-6.29
-1.74
3.89
10.31
16.67
21.76
24.25
23.15
18.19
10.05
0.25
-9.32
-16.94
-21.49
-22.67
-20.77
-16.55
-10.96
-5.02
0.30
4.26
6.50
7.14
6.69
5.81
5.08
4.84
5.12
5.73
6.25
6.13
4.78
1.80
-2.76
-8.29
-13.64
-17.56
-19.16
-18.28
-15.40
-11.34
-6.82
-2.19
2.62
7.76
13.19
18.46
22.83
25.54
26.19
24.94
22.47
19.72
17.59
16.55
16.60
17.28
17.92
17.91
16.92
14.98
12.31
9.20
5.91
2.61
-0.45
-2.86
-4.15
-3.98
-2.40
0.02
2.33
3.55
3.06
0.82
-2.66
-6.56
-10.12
-12.77
-14.28
-14.68
-14.27
-13.47
-12.74
-12.32
-12.18
-11.93
-11.04
-9.13
-6.25
-2.88
0.24
2.44
3.34
2.94
1.52
-0.53
-2.89
-5.24
-7.33
-8.91
-9.81
-9.92
-9.26
-7.95
-6.14
-4.00
-1.62
0.90
3.49
6.07
8.55
10.83
12.84
14.57
16.07
17.42
18.71
19.93
21.04
22.02
22.88
23.73
24.71
25.82
26.91
27.67
27.75
26.92
25.15
22.68
19.82
16.98
14.45
12.42
10.91
9.79
8.84
7.80
6.52
4.97
3.26
1.53
-0.18
-1.90
-3.76
-5.79
-7.88
-9.75
-11.11
-11.86
-12.05
-11.97
-11.88
-11.94
-12.15
-12.47
-12.88
-13.47
-14.36
-15.56
-16.87
-17.90
-18.25
-17.74
-16.47
-14.88
-13.54
-12.91
-13.19
-14.25
-15.67
-17.00
-17.83
-18.00
-17.49
-16.45
-15.12
-13.74
-12.60
-11.96
-12.03
-12.93
-14.69
-17.21
-20.30
-23.69
-27.05
-29.99
-32.14
-33.11
-32.55
-30.28
-26.29
-20.83
-14.35
-7.44
-0.62
5.77
11.67
17.25
22.71
28.07
33.06
37.22
40.10
41.49
41.50
40.46
38.71
36.49
33.95
31.30
28.92
27.33
26.98
28.02
30.07
32.34
33.83
33.75
31.71
27.85
22.69
16.88
10.95
5.27
0.02
-4.72
-8.85
-12.22
-14.70
-16.24
-16.99
-17.27
-17.42
-17.68
-18.03
-18.23
-17.97
-17.05
-15.53
-13.67
-11.86
-10.34
-9.20
-8.26
-7.32
-6.16
-4.74
-3.14
-1.59
-0.32
0.49
0.75
0.49
-0.13
-0.91
-1.59
-1.99
-1.96
-1.44
-0.48
0.85
2.38
3.89
5.14
5.95
6.28
6.26
6.10
6.04
6.27
6.82
7.64
8.59
9.51
10.19
10.40
9.89
8.54
6.33
3.49
0.43
-2.49
-4.96
-6.94
-8.52
-9.87
-11.03
-11.90
-12.27
-11.97
-10.96
-9.40
-7.64
-6.07
-5.05
-4.78
-5.32
-6.49
-8.05
-9.68
-11.17
-12.45
-13.57
-14.57
-15.37
-15.74
-15.40
-14.16
-12.12
-9.66
-7.27
-5.31
-3.80
-2.48
-0.96
1.01
3.37
5.81
7.97
9.66
10.96
12.12
13.33
14.55
15.54
15.94
15.52
14.29
12.54
10.61
8.74
7.00
5.30
3.47
1.48
-0.59
-2.55
-4.20
-5.47
-6.42
-7.15
-7.74
-8.23
-8.55
-8.67
-8.63
-8.50
-8.36
-8.21
-7.99
-7.57
-6.91
-6.11
-5.43
-5.17
-5.51
-6.43
-7.67
-8.87
-9.75
-10.14
-10.04
-9.49
-8.59
-7.39
-5.92
-4.22
-2.34
-0.32
1.78
3.89
5.86
7.54
8.72
9.26
9.16
8.58
7.76
6.94
6.29
5.81
5.44
5.03
4.50
3.82
3.07
2.37
1.83
1.47
1.25
1.03
0.68
0.15
-0.52
-1.26
-2.01
-2.85
-3.88
-5.15
-6.53
-7.72
-8.33
-8.07
-6.94
-5.20
-3.28
-1.53
-0.08
1.16
2.43
3.85
5.39
6.83
7.90
8.37
8.12
7.13
5.39
3.01
0.14
-2.89
-5.57
-7.46
-8.24
-7.95
-6.92
-5.59
-4.33
-3.29
-2.42
-1.56
-0.65
0.31
1.21
1.98
2.56
2.93
3.08
3.01
2.81
2.66
2.82
3.46
4.62
6.15
7.85
9.56
11.29
13.08
14.89
16.46
17.41
17.43
16.52
15.11
13.84
13.22
13.39
14.00
14.47
14.24
13.09
11.10
8.47
5.41
1.99
-1.71
-5.44
-8.79
-11.29
-12.66
-13.00
-12.81
-12.79
-13.54
-15.39
-18.23
-21.63
-24.96
-27.60
-29.08
-29.18
-27.88
-25.33
-21.83
-17.77
-13.59
-9.75
-6.60
-4.33
-2.82
-1.75
-0.63
0.93
3.12
5.88
8.95
11.98
14.69
17.03
19.11
21.20
23.51
26.09
28.81
31.42
33.72
35.69
37.45
39.06
40.37
40.98
40.37
38.14
34.27
29.06
23.04
16.71
10.43
4.34
-1.49
-6.96
-11.93
-16.23
-19.83
-22.84
-25.59
-28.42
-31.56
-34.97
-38.25
-40.71
-41.56
-40.18
-36.34
-30.27
-22.65
-14.42
-6.61
-0.16
4.24
6.34
6.33
4.87
2.83
1.05
0.06
-0.06
0.42
1.09
1.59
1.71
1.41
0.71
-0.34
-1.53
-2.49
-2.69
-1.70
0.60
3.83
7.33
10.52
13.18
15.52
17.72
19.56
20.27
18.84
14.80
8.77
2.39
-2.29
-3.82
-2.04
1.89
6.12
9.04
9.89
8.85
6.65
3.98
1.23
-1.58
-4.55
-7.70
-10.82
-13.61
-15.77
-17.21
-18.09
-18.64
-19.11
-19.55
-19.75
-19.39
-18.22
-16.26
-13.86
-11.58
-9.99
-9.36
-9.62
-10.35
-11.04
-11.31
-10.99
-10.09
-8.62
-6.51
-3.70
-0.35
3.03
5.59
6.46
5.25
2.28
-1.47
-4.73
-6.53
-6.61
-5.36
-3.57
-1.90
-0.59
0.51
1.69
3.13
4.73
6.23
7.42
8.30
9.12
10.19
11.74
13.70
15.70
17.22
17.79
17.22
15.59
13.35
11.03
9.13
7.90
7.31
7.09
6.92
6.58
6.01
5.25
4.31
3.15
1.59
-0.52
-3.15
-6.06
-8.86
-11.19
-12.86
-13.93
-14.62
-15.13
-15.53
-15.75
-15.63
-15.03
-13.95
-12.47
-10.78
-9.10
-7.66
-6.68
-6.34
-6.67
-7.54
-8.60
-9.44
-9.71
-9.27
-8.26
-6.92
-5.48
-4.00
-2.43
-0.70
1.11
2.68
3.61
3.57
2.53
0.81
-1.13
-2.82
-4.01
-4.70
-5.07
-5.30
-5.48
-5.60
-5.60
-5.44
-5.17
-4.80
-4.35
-3.80
-3.11
-2.35
-1.61
-1.04
-0.68
-0.43
-0.10
0.56
1.58
2.79
3.80
4.25
3.92
2.87
1.42
-0.05
-1.25
-2.03
-2.36
-2.31
-1.88
-1.08
0.12
1.70
3.57
5.61
7.65
9.53
11.13
12.41
13.38
14.14
14.72
15.13
15.34
15.33
15.15
14.85
14.53
14.20
13.83
13.37
12.79
12.19
11.70
11.45
11.45
11.67
12.04
12.50
13.02
13.55
13.96
14.04
13.54
12.32
10.42
8.06
5.58
3.25
1.15
-0.86
-3.07
-5.68
-8.76
-12.14
-15.60
-18.94
-22.08
-25.00
-27.60
-29.59
-30.54
-30.10
-28.21
-25.18
-21.63
-18.17
-15.25
-12.99
-11.27
-9.93
-8.82
-7.90
-7.10
-6.28
-5.21
-3.69
-1.60
1.03
3.94
6.78
9.12
10.55
10.80
9.81
7.81
5.24
2.64
0.45
-1.07
-1.88
-2.13
-2.02
-1.74
-1.44
-1.32
-1.50
-2.04
-2.89
-3.84
-4.62
-5.04
-5.04
-4.63
-3.83
-2.66
-1.20
0.39
1.81
2.75
3.02
2.71
2.12
1.66
1.61
2.01
2.68
3.39
3.87
3.98
3.58
2.60
1.07
-0.82
-2.73
-4.21
-4.90
-4.67
-3.63
-2.12
-0.50
0.92
1.98
2.64
2.97
3.11
3.27
3.72
4.64
6.07
7.76
9.27
10.07
9.87
8.73
7.03
5.30
3.95
3.10
2.53
1.95
1.12
-0.02
-1.39
-2.92
-4.57
-6.29
-7.93
-9.17
-9.70
-9.34
-8.25
-6.90
-5.91
-5.74
-6.49
-7.88
-9.34
-10.20
-9.95
-8.38
-5.64
-2.24
1.08
3.61
4.92
5.09
4.72
4.71
5.80
8.31
11.89
15.73
18.90
20.66
20.79
19.55
17.57
15.64
14.44
14.35
15.35
17.02
18.79
20.15
20.81
20.79
20.29
19.49
18.42
17.03
15.24
13.12
10.92
8.94
7.46
6.54
5.99
5.38
4.19
1.94
-1.57
-6.19
-11.40
-16.50
-20.82
-23.97
-25.89
-26.78
-26.88
-26.33
-25.12
-23.24
-20.69
-17.63
-14.25
-10.79
-7.44
-4.40
-1.91
-0.24
0.43
0.09
-0.97
-2.26
-3.21
-3.42
-2.83
-1.79
-0.89
-0.74
-1.80
-4.21
-7.73
-11.83
-15.72
-18.48
-19.24
-17.40
-12.70
-5.41
3.77
13.75
23.30
31.15
36.23
37.90
36.14
31.72
25.98
20.45
16.39
14.33
14.00
14.60
15.26
15.43
14.89
13.63
11.56
8.47
4.23
-0.99
-6.64
-11.96
-16.41
-19.89
-22.70
-25.18
-27.34
-28.69
-28.48
-26.21
-21.97
-16.53
-10.94
-6.15
-2.59
-0.25
1.14
1.85
1.98
1.56
0.63
-0.61
-1.82
-2.63
-2.72
-1.94
-0.39
1.64
3.65
5.12
5.66
5.19
3.88
2.13
0.32
-1.33
-2.79
-4.10
-5.30
-6.31
-6.98
-7.25
-7.16
-6.91
-6.70
-6.71
-7.01
-7.63
-8.58
-9.87
-11.48
-13.33
-15.26
-17.09
-18.68
-19.89
-20.64
-20.88
-20.60
-19.96
-19.31
-19.08
-19.55
-20.64
-21.78
-22.10
-20.75
-17.31
-11.99
-5.54
1.05
6.89
11.43
14.47
16.01
16.17
15.20
13.50
11.70
10.50
10.42
11.52
13.31
14.86
15.21
13.74
10.50
6.14
1.67
-1.86
-3.75
-3.71
-1.90
1.18
4.84
8.37
11.23
13.12
14.02
14.16
13.86
13.41
13.00
12.70
12.44
12.15
11.75
11.24
10.64
10.01
9.33
8.56
7.66
6.65
5.77
5.42
6.00
7.69
10.33
13.39
16.14
17.99
18.68
18.33
17.33
16.04
14.58
12.77
10.24
6.65
1.87
-3.87
-9.91
-15.31
-19.03
-20.21
-18.43
-13.91
-7.44
-0.19
6.71
12.43
16.63
19.35
20.74
20.89
19.80
17.45
14.05
10.12
6.31
3.23
1.09
-0.35
-1.67
-3.52
-6.26
-9.87
-13.96
-18.02
-21.57
-24.32
-26.09
-26.83
-26.50
-25.19
-23.23
-21.22
-20.00
-20.32
-22.50
-26.12
-30.03
-32.69
-32.76
-29.59
-23.50
-15.56
-7.14
0.58
6.92
11.66
14.88
16.72
17.27
16.63
15.10
13.15
11.41
10.35
10.13
10.49
10.86
10.71
9.79
8.29
6.78
5.89
6.03
7.17
8.94
10.79
12.26
13.12
13.35
13.06
12.38
11.42
10.30
9.17
8.19
7.48
7.05
6.85
6.71
6.49
6.00
5.11
3.73
1.83
-0.48
-2.92
-5.13
-6.74
-7.60
-7.76
-7.46
-7.00
-6.51
-5.92
-4.99
-3.45
-1.16
1.82
5.21
8.70
11.97
14.85
17.25
19.17
20.58
21.39
21.58
21.25
20.69
20.23
20.03
19.89
19.23
17.43
14.12
9.52
4.42
-0.22
-3.68
-5.76
-6.69
-6.89
-6.62
-5.98
-5.06
-4.11
-3.60
-3.94
-5.20
-7.02
-8.68
-9.52
-9.22
-7.98
-6.31
-4.76
-3.62
-2.90
-2.36
-1.73
-0.77
0.63
2.44
4.49
6.50
8.15
9.21
9.63
9.59
9.33
8.98
8.40
7.21
5.02
1.68
-2.58
-7.18
-11.44
-14.84
-17.20
-18.64
-19.46
-19.99
-20.45
-20.99
-21.73
-22.81
-24.32
-26.20
-28.16
-29.79
-30.70
-30.80
-30.37
-29.94
-29.98
-30.60
-31.32
-31.28
-29.70
-26.21
-21.13
-15.29
-9.65
-4.99
-1.66
0.27
0.92
0.45
-0.88
-2.60
-4.04
-4.33
-2.81
0.69
5.71
11.30
16.41
20.36
23.06
25.01
26.86
29.06
31.56
33.95
35.74
36.70
36.99
37.03
37.18
37.43
37.39
36.36
33.66
28.86
22.02
13.75
5.11
-2.52
-7.80
-9.85
-8.55
-4.78
-0.14
3.46
4.48
2.25
-2.88
-9.70
-16.67
-22.39
-25.97
-27.19
-26.26
-23.65
-19.91
-15.52
-10.91
-6.47
-2.51
0.81
3.50
5.71
7.63
9.36
10.93
12.21
13.03
13.24
12.71
11.38
9.29
6.61
3.58
0.47
-2.55
-5.54
-8.82
-12.85
-18.07
-24.71
-32.60
-41.12
-49.19
-55.49
-58.72
-57.95
-52.93
-44.19
-32.88
-20.44
-8.30
2.45
11.05
17.07
20.29
20.60
18.06
12.87
5.59
-2.84
-11.04
-17.36
-20.24
-18.82
-13.34
-5.31
2.95
9.03
11.34
9.58
4.76
-1.30
-6.70
-10.06
-10.80
-9.18
-6.03
-2.40
0.79
2.99
4.12
4.52
4.75
5.28
6.37
8.00
9.98
12.19
14.58
17.14
19.85
22.50
24.84
26.63
27.87
28.77
29.63
30.72
32.08
33.53
34.78
35.58
35.84
35.62
35.00
33.92
32.09
29.07
24.48
18.26
10.84
3.12
-3.83
-9.16
-12.56
-14.26
-14.93
-15.33
-16.01
-17.24
-19.08
-21.49
-24.47
-27.99
-31.79
-35.31
-37.69
-38.04
-35.69
-30.50
-22.90
-13.84
-4.49
4.19
11.70
18.09
23.84
29.50
35.26
40.76
45.13
47.25
46.32
42.17
35.41
27.33
19.45
13.15
9.26
7.93
8.64
10.50
12.45
13.62
13.48
11.84
8.77
4.47
-0.86
-6.96
-13.47
-19.83
-25.31
-29.11
-30.57
-29.37
-25.58
-19.74
-12.73
-5.58
0.68
5.30
7.94
8.64
7.76
5.67
2.65
-1.27
-6.13
-11.80
-17.86
-23.53
-27.97
-30.61
-31.46
-31.21
-30.99
-31.95
-34.80
-39.54
-45.41
-51.14
-55.27
-56.50
-53.97
-47.51
-37.69
-25.93
-14.20
-4.61
1.22
2.73
0.66
-3.27
-7.03
-9.10
-9.02
-7.33
-5.09
-3.18
-1.91
-1.02
-0.02
1.42
3.28
5.34
7.38
9.34
11.25
13.04
14.43
14.99
14.34
12.44
9.60
6.44
3.60
1.56
0.56
0.57
1.38
2.65
3.97
4.90
5.20
4.78
3.81
2.60
1.52
0.82
0.64
0.96
1.66
2.55
3.38
3.89
3.89
3.27
2.10
0.65
-0.68
-1.47
-1.38
-0.25
1.77
4.24
6.59
8.30
9.21
9.65
10.35
12.19
15.74
21.02
27.49
34.30
40.58
45.74
49.42
51.42
51.61
49.90
46.47
41.84
36.92
32.83
30.60
30.81
33.40
37.69
42.46
46.29
47.88
46.44
41.85
34.67
25.82
16.24
6.66
-2.58
-11.31
-19.36
-26.42
-32.16
-36.32
-38.95
-40.38
-41.06
-41.35
-41.40
-41.08
-40.13
-38.22
-35.13
-30.76
-25.24
-18.92
-12.35
-6.18
-1.01
2.84
5.35
6.72
7.27
7.22
6.70
5.72
4.25
2.26
-0.34
-3.55
-7.31
-11.31
-15.05
-17.91
-19.44
-19.48
-18.28
-16.40
-14.42
-12.79
-11.66
-10.89
-10.07
-8.72
-6.34
-2.63
2.39
8.31
14.34
19.58
23.22
24.82
24.34
22.16
18.82
14.98
11.26
8.22
6.19
5.26
5.17
5.36
5.14
4.07
2.08
-0.44
-2.85
-4.67
-5.81
-6.64
-7.65
-9.09
-10.79
-12.25
-13.10
-13.42
-13.89
-15.49
-18.90
-24.06
-30.10
-35.69
-39.63
-41.33
-41.04
-39.43
-37.29
-35.10
-32.93
-30.64
-28.09
-25.23
-22.13
-18.72
-14.77
-10.00
-4.31
1.98
8.10
13.16
16.56
18.33
19.14
19.84
21.01
22.65
24.21
25.00
24.49
22.65
19.87
16.73
13.84
11.67
10.51
10.40
11.06
11.92
12.27
11.58
9.77
7.26
4.78
2.95
2.03
1.88
2.06
2.17
1.94
1.21
-0.14
-2.27
-5.23
-8.86
-12.72
-16.14
-18.48
-19.34
-18.68
-16.77
-14.04
-10.94
-7.87
-5.14
-3.02
-1.60
-0.89
-0.69
-0.66
-0.46
0.20
1.50
3.47
6.07
9.16
12.51
15.85
18.92
21.55
23.81
25.93
28.24
31.00
34.32
38.10
42.20
46.51
50.99
55.58
59.95
63.48
65.24
64.38
60.52
54.09
46.25
38.48
31.98
27.05
23.01
18.57
12.59
4.62
-4.79
-14.41
-22.96
-29.64
-34.49
-38.08
-41.19
-44.34
-47.61
-50.73
-53.36
-55.22
-56.15
-56.00
-54.53
-51.45
-46.55
-39.92
-32.02
-23.59
-15.45
-8.22
-2.21
2.47
5.83
7.84
8.52
8.02
6.75
5.29
4.26
3.96
4.26
4.65
4.47
3.25
0.88
-2.30
-5.71
-8.72
-10.98
-12.48
-13.48
-14.34
-15.34
-16.48
-17.58
-18.37
-18.67
-18.54
-18.22
-17.95
-17.75
-17.28
-15.95
-13.23
-8.81
-2.93
3.76
10.40
16.18
20.61
23.56
25.18
25.76
25.59
24.97
24.26
23.83
24.02
25.02
26.85
29.31
32.03
34.36
35.42
34.09
29.36
20.71
8.56
-5.69
-19.94
-32.07
-40.66
-45.33
-46.64
-45.66
-43.55
-41.23
-39.38
-38.48
-38.76
-40.03
-41.66
-42.65
-42.08
-39.41
-34.74
-28.68
-21.97
-15.09
-8.10
-0.86
6.74
14.47
21.75
27.80
31.95
33.88
33.65
31.67
28.62
25.31
22.42
20.42
19.35
18.84
18.27
17.14
15.23
12.75
10.17
7.96
6.40
5.54
5.25
5.34
5.54
5.52
4.83
3.09
0.24
-3.43
-7.29
-10.69
-13.26
-15.03
-16.31
-17.37
-18.13
-18.21
-17.13
-14.65
-11.02
-6.95
-3.32
-0.80
0.50
0.97
1.36
2.28
3.92
5.88
7.37
7.71
6.76
5.16
4.07
4.66
7.65
12.92
19.78
27.22
34.21
39.79
42.99
42.91
38.96
31.29
20.92
9.69
-0.38
-7.71
-11.64
-12.47
-11.08
-8.64
-6.12
-4.26
-3.45
-3.70
-4.67
-5.86
-6.84
-7.50
-8.06
-8.96
-10.53
-12.79
-15.49
-18.23
-20.63
-22.40
-23.28
-23.02
-21.46
-18.70
-15.16
-11.55
-8.57
-6.66
-5.88
-5.98
-6.64
-7.60
-8.73
-9.91
-10.92
-11.39
-10.97
-9.41
-6.72
-3.13
0.99
5.31
9.60
13.81
17.97
22.10
26.08
29.67
32.47
34.10
34.31
33.20
31.09
28.59
26.32
24.77
24.19
24.44
25.01
25.17
24.13
21.41
17.11
11.95
7.11
3.79
2.75
3.99
6.76
9.89
12.23
13.08
12.38
10.64
8.54
6.59
4.86
2.97
0.32
-3.54
-8.65
-14.62
-20.82
-26.68
-31.94
-36.69
-41.23
-45.87
-50.74
-55.71
-60.32
-63.83
-65.25
-63.60
-58.18
-48.99
-36.98
-23.88
-11.67
-1.87
5.02
9.64
13.34
17.43
22.54
28.42
34.06
38.27
40.12
39.22
35.79
30.53
24.48
18.80
14.59
12.63
13.09
15.47
18.67
21.34
22.27
20.81
17.10
11.98
6.67
2.32
-0.45
-1.73
-2.26
-3.09
-5.16
-8.95
-14.41
-20.99
-27.75
-33.48
-36.91
-36.84
-32.62
-24.48
-13.68
-2.40
6.90
12.31
13.05
9.77
4.15
-1.78
-6.51
-9.46
-11.03
-12.12
-13.58
-15.70
-18.15
-20.16
-20.93
-19.97
-17.25
-13.14
-8.23
-3.22
1.28
4.77
6.86
7.37
6.30
3.85
0.45
-3.26
-6.58
-8.78
-9.34
-8.02
-4.93
-0.53
4.51
9.41
13.41
15.85
16.30
14.67
11.29
7.02
2.94
0.10
-0.98
-0.51
0.70
1.63
1.59
0.56
-0.91
-2.06
-2.33
-1.69
-0.45
0.91
2.11
3.10
3.90
4.49
4.70
4.31
3.18
1.33
-1.05
-3.69
-6.30
-8.69
-10.75
-12.54
-14.22
-15.95
-17.84
-19.72
-21.20
-21.82
-21.24
-19.43
-16.66
-13.37
-9.91
-6.44
-2.90
0.77
4.55
8.20
11.39
13.83
15.37
16.09
16.25
16.19
16.22
16.52
17.13
17.94
18.79
19.48
19.91
19.97
19.61
18.77
17.46
15.77
13.91
12.14
10.59
9.28
8.00
6.51
4.66
2.48
0.19
-1.98
-3.89
-5.51
-6.91
-8.09
-9.00
-9.52
-9.57
-9.18
-8.51
-7.76
-7.06
-6.44
-5.81
-5.03
-3.94
-2.54
-1.00
0.37
1.17
1.04
-0.20
-2.47
-5.44
-8.59
-11.38
-13.37
-14.36
-14.40
-13.74
-12.70
-11.56
-10.41
-9.13
-7.49
-5.30
-2.65
0.18
2.70
4.54
5.60
6.11
6.54
7.39
8.93
11.14
13.65
16.00
17.79
18.85
19.28
19.32
19.22
19.15
19.10
18.95
18.51
17.62
16.26
14.51
12.45
10.16
7.69
5.16
2.83
1.05
0.16
0.36
1.57
3.49
5.75
8.02
10.19
12.21
14.07
15.72
17.02
17.90
18.39
18.66
18.95
19.40
20.10
20.99
21.98
22.94
23.75
24.21
24.00
22.84
20.49
16.93
12.40
7.33
2.21
-2.59
-6.94
-10.95
-14.95
-19.30
-24.29
-29.94
-35.97
-41.82
-46.80
-50.25
-51.78
-51.32
-49.22
-46.04
-42.40
-38.74
-35.22
-31.75
-28.07
-23.97
-19.37
-14.39
-9.25
-4.13
0.89
5.83
10.76
15.66
20.45
25.05
29.45
33.78
38.10
42.28
45.87
48.10
48.21
45.74
40.74
33.91
26.31
19.09
13.19
9.07
6.68
5.46
4.59
3.25
0.88
-2.57
-6.64
-10.65
-13.99
-16.42
-18.03
-19.07
-19.60
-19.48
-18.41
-16.33
-13.60
-10.94
-9.08
-8.28
-8.26
-8.24
-7.59
-6.09
-4.12
-2.27
-0.90
0.17
1.51
3.67
6.85
10.84
15.23
19.86
24.93
30.81
37.59
44.70
51.00
55.22
56.56
55.02
51.23
46.06
40.01
33.13
25.25
16.34
6.90
-2.11
-9.72
-15.38
-19.25
-22.09
-24.91
-28.50
-33.17
-38.59
-43.98
-48.29
-50.46
-49.76
-45.99
-39.57
-31.43
-22.69
-14.41
-7.27
-1.65
2.25
4.41
4.89
4.05
2.45
0.75
-0.71
-2.10
-4.08
-7.40
-12.38
-18.58
-24.92
-30.08
-33.13
-33.92
-32.96
-31.08
-28.96
-26.78
-24.38
-21.45
-17.85
-13.76
-9.52
-5.61
-2.54
-0.88
-1.23
-4.15
-9.79
-17.56
-26.02
-33.15
-37.06
-36.70
-32.33
-25.33
-17.54
-10.43
-4.60
0.17
4.53
8.94
13.35
17.33
20.32
21.95
22.18
21.12
18.93
15.77
11.92
7.97
4.82
3.45
4.48
7.81
12.52
17.16
20.32
21.06
19.24
15.49
10.76
6.04
2.01
-0.93
-2.59
-2.86
-1.77
0.45
3.23
5.83
7.65
8.60
9.20
10.48
13.45
18.61
25.58
33.15
39.61
43.42
43.73
40.73
35.54
29.85
25.20
22.46
21.51
21.49
21.30
20.25
18.23
15.66
12.95
10.04
6.21
0.46
-7.94
-18.92
-31.44
-43.87
-54.45
-61.88
-65.43
-64.86
-60.17
-51.64
-40.02
-26.70
-13.68
-2.98
3.96
6.91
6.72
4.96
3.10
2.05
2.01
2.68
3.51
3.85
2.96
0.12
-5.13
-12.59
-21.19
-29.12
-34.49
-35.93
-33.09
-26.67
-18.09
-8.98
-0.86
5.09
8.02
7.43
3.28
-3.80
-12.50
-20.85
-26.78
-28.69
-26.00
-19.34
-10.30
-0.83
7.40
13.38
16.81
17.82
16.69
13.72
9.33
4.23
-0.63
-4.21
-5.85
-5.36
-3.15
0.08
3.67
7.12
10.14
12.52
14.04
14.58
14.22
13.30
12.34
11.80
11.92
12.50
13.03
12.76
10.95
7.11
1.22
-6.15
-13.84
-20.43
-24.57
-25.48
-23.12
-18.06
-11.29
-3.85
3.37
9.74
14.85
18.58
21.05
22.63
23.83
25.16
27.00
29.43
32.12
34.45
35.68
35.34
33.56
31.06
28.92
27.96
28.26
28.96
28.62
25.94
20.45
12.73
4.22
-3.53
-9.46
-13.34
-15.67
-17.21
-18.64
-20.33
-22.32
-24.43
-26.40
-27.99
-29.08
-29.66
-29.80
-29.65
-29.33
-28.85
-28.12
-27.05
-25.57
-23.70
-21.47
-18.83
-15.55
-11.23
-5.54
1.55
9.54
17.40
23.83
27.74
28.56
26.52
22.48
17.70
13.38
10.44
9.23
9.53
10.57
11.25
10.45
7.40
2.04
-4.96
-12.33
-18.56
-22.34
-22.87
-20.02
-14.32
-6.84
1.10
8.16
13.31
15.95
15.92
13.42
8.83
2.58
-4.90
-13.12
-21.59
-29.82
-37.37
-43.83
-48.71
-51.44
-51.30
-47.71
-40.44
-29.92
-17.30
-4.25
7.28
15.63
19.74
19.43
15.41
9.10
2.28
-3.47
-7.15
-8.62
-8.55
-7.96
-7.68
-7.90
-8.13
-7.59
-5.73
-2.71
0.63
3.13
4.04
3.40
2.10
1.34
2.06
4.37
7.56
10.50
12.26
12.60
12.03
11.52
12.03
13.97
17.06
20.42
23.10
24.35
24.03
22.52
20.55
18.89
18.14
18.58
20.15
22.51
25.08
27.03
27.43
25.45
20.61
13.04
3.60
-6.22
-14.64
-20.11
-21.77
-19.83
-15.44
-10.32
-6.16
-3.98
-3.88
-5.16
-6.73
-7.65
-7.35
-5.81
-3.30
-0.28
2.79
5.46
7.38
8.30
8.23
7.43
6.40
5.65
5.56
6.17
7.21
8.11
8.25
7.09
4.41
0.37
-4.47
-9.28
-13.20
-15.58
-16.16
-15.15
-13.11
-10.72
-8.62
-7.07
-5.93
-4.72
-2.77
0.35
4.67
9.62
14.25
17.59
18.94
18.13
15.49
11.64
7.21
2.70
-1.53
-5.21
-8.10
-10.06
-11.04
-11.28
-11.14
-11.01
-11.13
-11.56
-12.20
-12.88
-13.54
-14.12
-14.64
-15.01
-15.06
-14.62
-13.58
-12.02
-10.11
-8.07
-6.00
-3.90
-1.71
0.56
2.71
4.47
5.56
5.91
5.70
5.25
4.88
4.76
4.87
5.04
5.09
4.95
4.70
4.45
4.37
4.54
4.96
5.58
6.34
7.17
8.03
8.89
9.77
10.72
11.83
13.15
14.61
16.05
17.21
17.84
17.78
17.08
15.92
14.59
13.31
12.15
11.06
9.82
8.24
6.11
3.27
-0.32
-4.58
-9.19
-13.64
-17.39
-20.01
-21.34
-21.54
-20.91
-19.71
-18.03
-15.79
-12.93
-9.51
-5.90
-2.61
-0.07
1.58
2.50
3.05
3.53
3.96
4.11
3.62
2.27
0.19
-2.19
-4.28
-5.62
-6.06
-5.79
-5.20
-4.68
-4.38
-4.28
-4.24
-4.13
-3.95
-3.72
-3.49
-3.26
-2.97
-2.58
-2.12
-1.64
-1.20
-0.80
-0.38
0.13
0.70
1.27
1.71
1.92
1.88
1.62
1.25
0.90
0.74
0.94
1.64
2.87
4.53
6.37
8.11
9.55
10.62
11.41
12.07
12.73
13.44
14.20
14.98
15.82
16.74
17.82
19.00
20.20
21.20
21.73
21.49
20.25
17.99
14.91
11.46
8.19
5.54
3.73
2.64
1.95
1.28
0.29
-1.18
-3.17
-5.56
-8.08
-10.36
-12.01
-12.78
-12.76
-12.41
-12.33
-13.01
-14.50
-16.33
-17.73
-18.01
-16.94
-14.86
-12.49
-10.59
-9.63
-9.64
-10.36
-11.43
-12.61
-13.74
-14.63
-14.98
-14.38
-12.52
-9.41
-5.46
-1.41
1.95
4.08
4.92
4.82
4.33
4.00
4.08
4.56
5.23
5.87
6.40
6.92
7.60
8.67
10.26
12.34
14.76
17.26
19.62
21.57
22.92
23.58
23.53
22.88
21.82
20.54
19.17
17.67
15.86
13.53
10.52
6.86
2.82
-1.15
-4.52
-6.84
-7.82
-7.40
-5.81
-3.47
-0.95
1.20
2.64
3.38
3.78
4.34
5.45
7.11
8.80
9.70
9.02
6.41
2.13
-3.14
-8.56
-13.55
-17.91
-21.80
-25.49
-29.16
-32.83
-36.32
-39.37
-41.64
-42.77
-42.46
-40.59
-37.36
-33.29
-29.10
-25.43
-22.62
-20.61
-19.13
-17.88
-16.79
-15.95
-15.46
-15.22
-14.91
-14.12
-12.57
-10.25
-7.42
-4.45
-1.61
0.93
3.14
4.94
6.24
6.92
6.91
6.24
5.03
3.38
1.40
-0.80
-3.00
-4.81
-5.78
-5.54
-4.03
-1.54
1.34
3.90
5.62
6.25
5.97
5.21
4.54
4.42
5.05
6.30
7.75
8.87
9.18
8.46
6.77
4.56
2.60
1.75
2.76
5.94
10.99
16.97
22.62
26.75
28.69
28.46
26.79
24.72
23.21
22.84
23.68
25.38
27.44
29.37
30.86
31.79
32.24
32.35
32.29
32.08
31.69
30.96
29.80
28.22
26.37
24.51
22.90
21.67
20.89
20.59
20.86
21.80
23.44
25.51
27.43
28.45
27.86
25.36
21.16
15.93
10.51
5.64
1.76
-1.01
-2.84
-4.07
-5.07
-6.18
-7.69
-9.77
-12.44
-15.58
-18.96
-22.29
-25.28
-27.67
-29.28
-30.02
-29.88
-28.97
-27.41
-25.42
-23.22
-21.07
-19.18
-17.78
-17.01
-16.97
-17.64
-18.94
-20.64
-22.45
-24.02
-25.03
-25.26
-24.69
-23.50
-22.11
-21.06
-20.83
-21.67
-23.46
-25.66
-27.54
-28.39
-27.78
-25.79
-22.92
-19.85
-17.24
-15.42
-14.43
-14.08
-14.09
-14.17
-14.10
-13.68
-12.75
-11.18
-9.02
-6.43
-3.71
-1.20
0.83
2.23
2.93
3.00
2.59
1.99
1.58
1.78
2.88
4.79
7.08
9.01
9.89
9.31
7.39
4.74
2.19
0.58
0.47
2.07
5.20
9.35
13.79
17.67
20.23
20.94
19.68
16.85
13.19
9.65
6.97
5.56
5.34
5.89
6.64
7.20
7.44
7.50
7.62
7.80
7.76
7.00
5.08
1.90
-2.15
-6.33
-9.90
-12.40
-13.87
-14.69
-15.39
-16.38
-17.81
-19.58
-21.45
-23.16
-24.43
-25.01
-24.69
-23.35
-21.00
-17.81
-14.09
-10.19
-6.48
-3.22
-0.63
1.17
2.16
2.45
2.30
2.06
2.17
2.95
4.51
6.71
9.12
11.27
12.77
13.49
13.63
13.59
13.77
14.40
15.47
16.74
17.90
18.72
18.99
18.57
17.29
15.00
11.64
7.33
2.43
-2.52
-7.00
-10.60
-13.16
-14.72
-15.48
-15.69
-15.58
-15.32
-14.94
-14.40
-13.55
-12.16
-10.07
-7.18
-3.51
0.82
5.63
10.70
15.73
20.38
24.25
26.96
28.35
28.52
27.91
27.07
26.48
26.24
26.03
25.25
23.28
19.84
15.12
9.75
4.47
-0.09
-3.65
-6.17
-7.71
-8.29
-7.83
-6.28
-3.75
-0.61
2.58
5.24
6.95
7.56
7.18
6.13
4.84
3.68
2.84
2.22
1.45
0.06
-2.29
-5.57
-9.34
-12.93
-15.68
-17.20
-17.49
-16.88
-15.83
-14.83
-14.29
-14.44
-15.32
-16.69
-18.11
-18.90
-18.46
-16.44
-12.93
-8.47
-3.86
0.08
2.74
3.84
3.41
1.61
-1.31
-5.13
-9.64
-14.45
-19.01
-22.66
-24.79
-25.12
-23.85
-21.69
-19.62
-18.63
-19.33
-21.87
-25.96
-31.13
-36.82
-42.40
-46.95
-49.31
-48.32
-43.40
-35.17
-25.64
-17.84
-14.73
-18.05
-27.65
-41.69
-57.49
-72.42
-84.23
-90.81
-89.74
-78.65
-56.20
-23.54
15.12
53.30
84.63
105.39
115.95
120.28
123.43
128.86
136.63
143.44
144.26
134.49
112.08
78.47
38.47
-0.98
-32.82
-52.14
-57.57
-51.43
-38.50
-23.91
-11.21
-1.69
4.99
9.59
12.27
12.58
10.25
6.02
1.76
-0.36
1.04
5.71
11.89
17.17
19.62
18.69
15.28
11.20
8.29
7.65
9.30
12.37
15.57
17.76
18.36
17.43
15.59
13.60
12.15
11.56
11.77
12.40
12.96
13.03
12.43
11.29
10.02
9.12
9.02
9.84
11.35
12.97
13.96
13.69
11.92
8.89
5.36
2.26
0.39
0.03
0.92
2.39
3.67
4.29
4.07
3.19
1.87
0.31
-1.37
-3.03
-4.38
-5.00
-4.49
-2.66
0.35
4.22
8.56
13.07
17.53
21.60
24.73
26.16
25.18
21.44
15.30
7.84
0.66
-4.69
-7.21
-6.84
-4.55
-1.93
-0.58
-1.62
-5.28
-10.87
-17.05
-22.31
-25.36
-25.45
-22.50
-17.10
-10.36
-3.72
1.40
3.91
3.45
0.55
-3.37
-6.41
-6.82
-3.70
2.53
10.18
16.85
20.33
19.42
14.37
6.79
-0.92
-6.23
-7.25
-3.18
5.48
17.04
28.98
38.62
43.72
43.03
