1650280018.00
64.000000
-0.00
-0.00
-0.00
-0.00
-0.00
-0.00
-0.00
-0.00
-0.00
-0.00
0.00
0.01
0.01
-0.00
-0.03
-0.05
-0.05
0.00
0.13
0.36
0.66
1.01
1.37
1.72
2.06
2.40
2.79
3.24
3.80
4.42
5.06
5.66
6.20
6.68
7.15
7.68
8.32
9.15
10.09
11.03
11.88
12.56
13.15
13.80
14.71
16.01
17.89
20.16
22.56
24.83
26.84
28.69
30.71
33.31
36.76
41.42
46.89
52.68
58.23
63.23
67.77
72.33
77.56
83.90
91.82
100.76
109.96
118.62
126.29
133.09
139.63
147.11
154.05
162.50
172.97
185.64
199.54
212.05
219.05
215.93
199.06
167.16
122.20
67.84
8.52
-52.05
-111.77
-169.92
-226.59
-281.85
-335.55
-386.89
-435.28
-479.83
-519.29
-551.99
-575.89
-589.06
-590.07
-578.47
-554.79
-521.01
-479.88
-434.29
-386.28
-336.25
-282.83
-223.76
-157.46
-84.41
-7.95
66.58
133.55
188.88
231.05
260.89
280.49
291.92
296.61
295.33
288.85
278.36
265.45
251.75
238.35
225.52
212.88
199.72
185.57
170.55
155.26
140.56
127.11
115.11
104.29
94.12
84.13
74.15
64.37
55.19
47.02
40.02
34.14
29.09
24.55
20.39
16.50
12.89
9.66
6.85
4.45
2.32
0.35
-1.55
-3.40
-5.13
-6.60
-7.67
-8.25
-8.32
-7.96
-7.38
-6.82
-6.55
-6.72
-7.32
-8.14
-8.93
-9.46
-9.67
-9.63
-9.47
-9.26
-9.05
-8.85
-8.60
-8.18
-7.36
-5.84
-3.42
-0.21
3.19
5.84
6.80
5.58
2.43
-1.73
-5.68
-8.42
-9.51
-9.25
-8.43
-7.95
-8.42
-9.90
-11.87
-13.44
-13.84
-12.70
-10.31
-7.34
-4.48
-2.06
-0.02
1.96
3.95
5.66
6.57
6.23
4.70
2.57
0.63
-0.55
-0.89
-0.77
-0.67
-0.82
-1.01
-0.80
0.13
1.74
3.59
5.06
5.66
5.29
4.23
2.96
2.00
1.63
1.90
2.68
3.72
4.82
5.80
6.62
7.27
7.76
8.10
8.25
8.13
7.63
6.71
5.33
3.62
1.80
0.09
-1.39
-2.69
-3.98
-5.38
-6.83
-8.08
-8.74
-8.57
-7.60
-6.24
-4.99
-4.28
-4.09
-4.11
-3.85
-2.94
-1.34
0.64
2.49
3.73
4.12
3.76
2.92
1.98
1.38
1.43
2.24
3.58
4.98
5.89
6.08
5.51
4.52
3.73
3.69
4.61
6.28
8.19
9.77
10.87
11.36
11.29
10.98
10.80
11.11
11.99
12.86
12.45
9.22
1.27
-12.66
-32.16
-54.42
-74.42
-86.28
-85.32
-71.77
-47.14
-16.36
13.91
37.69
51.63
55.50
51.51
42.71
31.76
20.86
11.18
3.53
-1.67
-4.72
-6.74
-9.35
-13.53
-19.90
-27.90
-36.48
-44.77
-53.01
-62.97
-77.17
-97.26
-122.23
-147.60
-166.09
-170.64
-157.56
-128.87
-92.20
-57.91
-34.73
-25.99
-28.49
-34.16
-34.18
-22.54
1.81
35.28
71.26
102.34
122.25
127.16
116.71
94.00
64.75
35.39
10.94
-6.39
-17.20
-23.44
-26.77
-27.79
-26.42
-23.20
-19.72
-18.05
-19.37
-22.86
-25.74
-24.50
-16.70
-2.24
16.57
36.04
52.62
64.11
69.97
71.02
68.72
64.42
58.93
52.43
44.91
36.63
28.42
21.67
17.79
17.62
20.88
26.17
31.49
35.05
36.01
34.78
32.87
32.07
33.63
37.56
42.60
46.73
48.13
46.01
40.90
34.41
28.40
24.21
22.20
21.80
22.04
22.04
21.45
20.50
19.67
19.36
19.59
19.97
20.00
19.25
17.64
15.32
12.54
9.36
5.65
1.17
-4.11
-9.91
-15.64
-20.68
-24.73
-27.88
-30.50
-32.91
-35.02
-36.31
-36.04
-33.61
-28.86
-22.03
-13.71
-4.54
4.72
13.27
20.15
24.49
25.74
24.04
20.22
15.48
10.90
6.99
3.67
0.57
-2.51
-5.45
-7.85
-9.36
-10.01
-10.17
-10.32
-10.66
-11.00
-10.85
-9.71
-7.44
-4.40
-1.28
1.16
2.33
1.95
0.07
-2.98
-6.65
-10.22
-12.91
-14.02
-13.10
-10.07
-5.28
0.59
6.70
12.21
16.41
18.80
19.12
17.40
14.03
9.69
5.32
1.82
-0.20
-0.67
-0.07
0.80
1.15
0.54
-1.00
-3.07
-5.14
-6.75
-7.70
-8.05
-7.99
-7.75
-7.54
-7.45
-7.53
-7.78
-8.17
-8.64
-9.10
-9.40
-9.40
-9.02
-8.28
-7.39
-6.69
-6.55
-7.14
-8.37
-9.92
-11.41
-12.60
-13.50
-14.34
-15.37
-16.66
-18.00
-19.06
-19.53
-19.35
-18.82
-18.50
-18.95
-20.52
-23.22
-26.66
-30.06
-32.25
-31.82
-27.42
-18.24
-4.51
12.21
29.36
44.02
53.92
58.09
57.09
52.51
46.15
39.39
32.93
26.95
21.55
16.98
13.58
11.58
10.80
10.65
10.32
9.12
6.70
3.17
-1.12
-5.78
-10.59
-15.53
-20.69
-26.11
-31.72
-37.29
-42.43
-46.55
-48.93
-48.78
-45.52
-39.00
-29.68
-18.60
-7.06
3.71
12.88
20.12
25.39
28.82
30.48
30.44
28.86
26.17
22.97
19.97
17.75
16.56
16.29
16.54
16.85
16.82
16.28
15.22
13.78
12.11
10.36
8.64
7.13
6.03
5.50
5.55
5.96
6.32
6.16
5.20
3.45
1.25
-0.91
-2.55
-3.47
-3.71
-3.53
-3.26
-3.12
-3.18
-3.34
-3.47
-3.42
-3.16
-2.73
-2.26
-1.84
-1.54
-1.39
-1.37
-1.44
-1.57
-1.71
-1.80
-1.77
-1.52
-0.96
-0.05
1.16
2.50
3.75
4.67
5.06
4.85
4.10
2.99
1.79
0.70
-0.20
-0.96
-1.70
-2.50
-3.42
-4.42
-5.46
-6.55
-7.69
-8.83
-9.82
-10.45
-10.51
-9.97
-9.05
-8.12
-7.57
-7.60
-8.14
-8.93
-9.66
-10.13
-10.30
-10.20
-9.88
-9.31
-8.41
-7.13
-5.53
-3.77
-2.11
-0.74
0.18
0.60
0.53
-0.01
-0.95
-2.13
-3.30
-4.18
-4.53
-4.22
-3.31
-2.02
-0.66
0.43
0.99
0.87
0.12
-1.06
-2.42
-3.73
-4.90
-5.95
-6.90
-7.72
-8.20
-8.08
-7.13
-5.41
-3.21
-1.03
0.66
1.59
1.78
1.51
1.15
0.95
0.94
0.85
0.30
-1.09
-3.44
-6.55
-9.97
-13.17
-15.79
-17.78
-19.46
-21.27
-23.72
-27.16
-31.78
-37.56
-44.12
-50.59
-55.55
-57.25
-54.17
-45.73
-32.80
-17.54
-2.62
9.80
18.86
24.99
29.25
32.46
34.65
35.24
33.71
30.13
25.30
20.34
16.04
12.67
10.01
7.87
6.33
5.84
6.87
9.61
13.86
19.16
25.03
31.02
36.74
41.72
45.52
47.85
48.75
48.57
47.82
46.85
45.65
43.96
41.48
38.09
34.02
29.66
25.48
21.70
18.35
15.31
12.48
9.87
7.57
5.65
4.06
2.65
1.26
-0.15
-1.43
-2.27
-2.39
-1.61
-0.03
2.03
4.12
5.75
6.59
6.52
5.67
4.36
2.93
1.58
0.36
-0.76
-1.80
-2.63
-3.00
-2.75
-2.00
-1.13
-0.70
-1.09
-2.31
-4.00
-5.60
-6.65
-6.97
-6.74
-6.26
-5.88
-5.78
-6.02
-6.52
-7.11
-7.61
-7.84
-7.74
-7.39
-6.99
-6.81
-7.02
-7.60
-8.38
-9.13
-9.69
-10.03
-10.27
-10.55
-10.90
-11.23
-11.33
-11.02
-10.22
-9.05
-7.78
-6.66
-5.88
-5.48
-5.37
-5.47
-5.71
-6.11
-6.69
-7.43
-8.24
-8.93
-9.35
-9.39
-9.07
-8.48
-7.75
-6.91
-5.93
-4.73
-3.26
-1.66
-0.17
0.89
1.31
1.09
0.45
-0.28
-0.91
-1.49
-2.26
-3.39
-4.83
-6.32
-7.40
-7.65
-6.74
-4.57
-1.12
3.56
9.30
15.73
22.17
27.86
32.21
35.00
36.32
36.35
35.24
33.05
29.82
25.45
20.09
14.12
8.04
2.27
-2.93
-7.37
-10.80
-13.15
-15.00
-17.24
-20.79
-26.12
-32.89
-39.98
-45.85
-49.17
-47.70
-40.97
-30.90
-21.14
-14.78
-12.77
-14.19
-17.21
-19.88
-20.38
-18.47
-13.14
-3.52
10.52
28.04
47.11
65.40
80.96
92.76
100.77
105.34
108.22
111.86
118.37
128.69
142.29
157.40
171.78
183.40
191.25
195.57
197.42
198.13
198.98
201.08
205.23
211.52
218.90
224.94
226.21
219.33
202.53
176.86
146.10
115.24
88.20
65.96
46.40
25.81
1.10
-28.55
-61.47
-94.90
-126.87
-157.26
-187.62
-219.84
-254.88
-292.21
-330.25
-367.20
-401.60
-432.45
-459.14
-481.50
-500.12
-516.23
-531.14
-545.11
-556.34
-560.86
-554.08
-532.89
-497.10
-449.34
-393.65
-333.48
-270.83
-206.60
-142.24
-81.16
-28.68
9.73
31.30
37.83
35.42
32.38
36.60
53.31
83.48
124.03
168.92
211.38
245.77
268.55
278.28
275.56
262.78
243.46
222.05
203.27
191.61
190.74
202.28
222.94
244.72
258.77
260.63
251.80
235.93
215.58
191.59
164.16
134.04
103.42
77.01
56.15
41.08
30.58
22.75
16.15
10.19
4.86
0.33
-3.37
-6.78
-10.44
-14.60
-18.63
-21.03
-20.08
-14.81
-5.39
6.97
20.20
32.33
41.58
46.73
47.33
43.62
36.31
26.51
15.60
4.70
-5.53
-15.24
-25.17
-35.93
-47.44
-58.68
-67.87
-73.11
-73.11
-67.51
-57.14
-43.77
-29.65
-17.03
-7.78
-3.04
-3.08
-7.35
-14.78
-24.04
-33.80
-42.67
-49.20
-52.00
-50.25
-44.24
-35.55
-26.48
-19.11
-14.34
-11.54
-9.03
-5.10
1.01
8.78
16.72
23.17
27.11
28.47
28.00
26.87
26.07
26.07
26.72
27.50
27.86
27.56
26.87
26.38
26.74
28.36
31.25
35.18
39.87
44.86
49.23
51.08
47.49
35.23
12.06
-21.91
-63.58
-107.68
-148.43
-181.46
-204.68
-217.86
-221.35
-214.79
-197.10
-167.57
-127.40
-80.43
-32.25
11.83
48.90
79.29
105.51
130.01
153.12
172.33
183.40
182.68
169.14
145.22
115.99
87.22
63.50
47.05
37.65
33.50
32.31
32.12
31.79
30.88
29.38
27.35
24.76
21.37
16.98
11.62
5.68
-0.12
-4.98
-8.32
-9.98
-10.31
-9.91
-9.34
-8.86
-8.39
-7.57
-6.07
-3.78
-0.92
2.08
4.84
7.26
9.67
12.67
16.88
22.35
28.56
34.61
39.83
43.82
46.89
49.89
53.90
59.51
66.44
73.59
79.66
83.78
85.43
84.41
80.64
74.26
65.61
55.26
44.44
35.05
29.41
28.43
31.35
35.83
39.22
39.48
35.22
26.74
16.19
7.59
2.90
2.21
4.23
7.95
12.96
17.52
20.44
22.15
26.87
36.46
51.33
69.81
89.71
107.93
117.75
113.28
92.73
62.46
26.89
-11.17
-51.60
-94.32
-139.56
-191.25
-251.91
-319.09
-382.12
-436.15
-481.24
-522.01
-562.71
-581.47
-563.39
-510.11
-466.31
-439.58
-426.19
-408.87
-380.71
-338.61
-283.28
-222.69
-165.43
-112.13
-53.72
13.41
87.19
160.63
227.92
285.47
329.61
360.33
386.98
424.14
477.24
542.87
612.53
679.14
737.55
781.08
770.89
683.52
529.14
346.18
177.79
50.14
-30.42
-72.27
-91.71
-104.19
-113.42
-115.31
-106.84
-90.31
-72.73
-61.36
-60.38
-70.07
-86.44
-99.48
-100.46
-87.89
-67.81
-49.34
-39.40
-40.03
-48.76
-60.56
-67.92
-65.86
-54.44
-38.50
-24.01
-15.87
-16.56
-26.26
-42.86
-60.92
-73.59
-74.76
-61.64
-36.38
-6.33
17.86
26.03
12.98
-18.49
-58.94
-96.68
-122.83
-134.31
-133.64
-125.87
-115.10
-102.61
-87.46
-68.67
-47.22
-26.36
-10.08
-1.10
0.69
-1.92
-5.04
-5.48
-2.10
4.09
10.79
15.74
17.69
16.76
14.05
10.82
7.90
5.38
2.98
0.53
-1.68
-3.00
-2.82
-1.01
1.90
4.99
7.41
8.77
9.14
8.91
8.42
7.76
6.89
5.96
5.42
5.93
7.90
11.05
14.49
17.03
17.68
16.11
12.84
9.03
6.00
4.60
4.80
6.05
7.42
7.82
6.35
2.74
-2.37
-7.42
-10.65
-11.11
-8.42
-3.34
2.39
6.63
8.02
6.46
3.34
0.30
-2.08
-3.09
-2.64
-1.51
-1.18
-2.93
-7.54
-14.22
-21.76
-29.28
-34.20
-34.06
-28.32
-19.30
-12.38
-13.72
-25.49
-42.14
-56.53
-59.75
-45.10
-10.22
41.18
100.99
159.15
208.42
244.45
255.07
235.42
191.66
137.58
85.66
46.88
17.89
-4.05
-19.89
-30.18
-34.89
-34.06
-29.69
-25.22
-23.54
-26.12
-31.08
-35.91
-39.08
-39.00
-35.29
-29.46
-24.13
-21.41
-22.38
-25.60
-29.13
-31.68
-31.98
-29.59
-25.33
-20.80
-17.32
-15.66
-15.15
-14.91
-14.45
-13.33
-11.43
-9.13
-7.06
-5.69
-5.24
-5.38
-5.67
-5.86
-5.70
-5.04
-3.93
-2.58
-1.23
-0.16
0.55
0.84
0.74
0.35
-0.14
-0.50
-0.56
-0.24
0.43
1.30
2.16
2.85
3.28
3.43
3.35
3.14
2.88
2.61
2.37
2.16
1.95
1.66
1.16
0.32
-0.95
-2.60
-4.43
-6.13
-7.43
-8.20
-8.51
-8.56
-8.56
-8.60
-8.65
-8.56
-8.21
-7.56
-6.71
-5.84
-5.12
-4.62
-4.28
-3.94
-3.38
-2.45
-1.12
0.51
2.25
3.88
5.28
6.45
7.41
8.11
8.42
8.17
7.29
5.99
4.79
4.29
4.96
6.85
9.55
12.32
14.38
15.20
14.55
12.48
9.28
5.36
1.17
-2.82
-6.23
-8.82
-10.54
-11.46
-11.71
-11.39
-10.59
-9.40
-8.04
-6.77
-5.80
-5.22
-4.96
-4.90
-4.88
-4.84
-4.80
-4.80
-4.89
-5.17
-5.82
-7.06
-9.08
-11.85
-15.04
-17.99
-19.97
-20.47
-19.41
-17.18
-14.41
-11.64
-9.12
-6.81
-4.50
-2.10
0.29
2.41
4.01
5.09
5.87
6.73
8.02
9.89
12.29
15.03
17.90
20.72
23.38
25.83
28.06
30.11
32.00
33.77
35.42
36.88
38.05
38.79
38.91
38.24
36.62
33.99
30.42
26.27
22.07
18.39
15.67
14.06
13.31
12.92
12.38
11.26
9.42
6.90
3.84
0.36
-3.52
-7.86
-12.79
-18.36
-24.57
-31.33
-38.42
-45.48
-51.99
-57.27
-60.56
-61.21
-58.86
-53.59
-46.01
-37.07
-27.80
-19.07
-11.47
-5.29
-0.70
2.18
3.31
2.82
1.13
-1.10
-3.07
-4.15
-4.05
-2.86
-1.00
1.04
2.87
4.28
5.29
6.07
6.84
7.76
8.84
9.91
10.65
10.78
10.13
8.78
6.98
5.07
3.26
1.59
-0.10
-2.06
-4.53
-7.62
-11.31
-15.36
-19.38
-22.83
-25.14
-25.87
-24.89
-22.45
-19.16
-15.78
-12.94
-10.97
-9.78
-8.98
-8.12
-6.93
-5.51
-4.32
-4.00
-5.00
-7.20
-9.85
-11.77
-11.99
-10.37
-7.81
-5.86
-5.89
-8.25
-11.99
-15.46
-17.23
-16.96
-15.53
-14.41
-14.62
-16.10
-17.78
-18.25
-16.69
-13.24
-8.90
-4.89
-2.06
-0.62
-0.38
-1.17
-3.04
-6.30
-11.16
-17.40
-24.26
-30.51
-34.80
-35.99
-33.52
-27.41
-18.21
-6.79
5.90
18.98
31.84
44.12
55.62
65.95
74.46
80.28
82.60
81.06
76.07
68.78
60.74
53.30
47.00
41.68
36.83
32.07
27.34
22.91
19.16
16.38
14.58
13.05
10.96
7.66
2.65
-4.40
-13.55
-24.35
-35.60
-45.58
-53.27
-58.10
-60.04
-59.52
-57.36
-54.52
-51.80
-49.66
-48.39
-49.06
-52.28
-57.80
-64.42
-70.68
-75.56
-78.76
-80.71
-76.41
-63.80
-44.11
-21.05
1.98
23.25
42.05
57.79
69.82
77.83
81.42
81.61
80.21
79.16
79.45
80.65
81.25
79.59
74.76
66.30
55.04
42.71
31.69
23.97
20.26
19.99
21.89
24.57
26.62
27.26
26.45
24.64
22.36
20.08
18.29
17.51
18.07
19.16
18.78
13.94
1.88
-18.48
-45.27
-73.65
-97.33
-111.11
-113.24
-106.09
-94.82
-84.84
-79.32
-78.25
-79.23
-79.40
-77.25
-73.20
-68.70
-64.87
-61.55
-57.54
-51.87
-45.01
-39.12
-37.09
-40.74
-49.47
-60.08
-68.16
-70.11
-64.90
-54.41
-42.32
-32.21
-25.86
-22.53
-19.65
-14.21
-4.34
9.93
26.87
44.10
59.51
71.90
80.94
86.67
89.27
88.90
85.91
81.09
75.73
71.13
67.90
65.79
63.77
60.89
56.75
51.65
46.45
42.31
39.85
38.79
38.26
37.06
34.85
31.83
28.41
24.94
22.09
20.14
18.85
17.72
15.99
14.08
12.79
12.62
13.80
17.13
22.86
30.42
38.44
44.74
48.78
50.77
51.14
50.80
52.04
56.86
65.89
78.19
91.01
103.22
114.44
124.62
125.39
111.79
84.94
51.57
25.07
5.09
-10.65
-23.54
-35.88
-47.65
-57.11
-62.93
-64.97
-64.35
-63.52
-63.02
-62.74
-62.56
-62.10
-60.07
-55.35
-47.61
-37.46
-26.81
-16.35
-6.47
2.37
9.88
16.27
21.50
25.07
26.06
23.33
17.18
8.75
-0.61
-9.63
-17.37
-23.55
-28.55
-33.15
-38.31
-44.30
-50.83
-57.19
-62.22
-64.62
-63.46
-58.61
-50.92
-42.04
-33.57
-26.41
-20.60
-15.37
-9.90
-3.74
2.89
9.24
14.23
17.01
17.21
15.01
11.08
6.16
1.12
-3.06
-5.62
-6.50
-6.04
-4.74
-3.01
-0.88
1.31
3.20
4.53
4.93
3.70
0.49
-4.42
-10.14
-15.28
-19.45
-22.71
-25.24
-27.29
-29.43
-31.87
-34.28
-36.15
-36.86
-37.20
-38.32
-40.99
-41.12
-35.77
-24.85
-11.30
-1.87
3.69
6.70
8.12
9.88
12.38
14.62
15.48
14.46
12.05
9.87
8.80
9.23
11.07
13.43
14.70
13.48
9.36
3.28
-2.49
-6.15
-6.67
-4.09
0.32
4.55
7.18
8.19
9.02
11.87
17.84
26.61
36.50
45.23
50.87
52.62
50.91
46.87
41.72
36.04
29.96
23.51
16.79
9.94
3.00
-4.17
-11.83
-20.01
-28.43
-36.31
-42.62
-46.50
-47.65
-46.55
-44.41
-42.82
-43.28
-46.61
-52.62
-60.08
-67.08
-71.59
-72.11
-67.82
-58.59
-44.81
-27.20
-6.96
14.17
33.92
49.92
60.36
64.62
63.47
58.79
52.83
47.51
43.92
42.44
42.85
44.60
46.76
48.14
47.46
43.94
37.70
29.96
22.65
17.44
14.98
14.46
14.03
11.76
6.70
-0.63
-8.60
-15.32
-19.69
-21.73
-22.36
-22.59
-22.92
-23.12
-22.55
-20.71
-17.63
-13.88
-10.28
-7.36
-5.28
-3.88
-2.95
-2.49
-2.66
-3.57
-5.11
-6.78
-7.93
-8.01
-6.86
-4.79
-2.48
-0.74
-0.13
-0.82
-2.49
-4.45
-5.93
-6.27
-5.13
-2.58
0.91
4.53
7.42
8.85
8.52
6.69
4.07
1.55
-0.17
-0.78
-0.39
0.65
1.97
3.27
4.36
5.05
5.12
4.37
2.77
0.56
-1.77
-3.67
-4.73
-4.94
-4.58
-4.15
-4.00
-4.19
-4.42
-4.23
-3.25
-1.43
0.93
3.29
5.15
6.18
6.34
5.71
4.47
2.82
1.04
-0.46
-1.18
-0.69
1.12
3.87
6.76
8.91
9.69
9.05
7.54
5.94
4.96
4.83
5.39
6.35
7.54
9.10
11.35
14.48
18.33
22.38
25.83
27.83
27.74
25.18
20.21
13.38
5.79
-1.07
-5.64
-6.70
-3.77
2.68
11.20
19.64
25.60
27.08
23.10
14.16
2.03
-10.63
-21.20
-27.94
-30.64
-30.54
-29.81
-30.31
-32.79
-36.70
-40.41
-41.95
-39.98
-34.28
-25.89
-16.80
-8.96
-3.68
-1.77
-3.27
-7.47
-13.21
-19.25
-24.72
-29.36
-32.91
-34.78
-34.31
-30.87
-24.37
-15.80
-7.36
-0.42
3.03
2.07
-0.21
0.25
6.12
17.60
32.32
46.54
56.89
61.49
60.77
56.79
51.68
46.85
42.67
38.70
34.22
28.90
22.88
16.94
12.06
8.59
6.11
3.66
0.18
-4.98
-11.58
-18.62
-24.63
-28.36
-29.53
-28.84
-27.59
-27.00
-27.70
-29.47
-31.51
-32.65
-31.78
-28.22
-21.94
-13.51
-4.03
5.27
13.36
19.65
24.05
26.78
27.99
27.63
25.50
21.64
16.58
11.34
7.01
4.47
4.00
5.39
8.03
10.98
13.46
15.13
15.96
16.07
15.55
14.46
12.91
11.05
8.72
6.05
3.50
1.81
1.49
2.69
5.19
8.60
12.17
14.38
13.84
9.78
2.28
-7.95
-19.64
-31.22
-41.30
-49.57
-57.42
-66.51
-77.57
-89.85
-101.62
-110.83
-115.58
-114.29
-100.20
-70.44
-28.54
16.98
57.55
87.53
104.27
107.76
102.36
91.08
76.12
59.91
45.08
33.97
27.72
25.98
27.46
30.16
31.74
30.13
24.80
16.85
8.37
1.20
-3.76
-6.42
-7.14
-6.34
-4.32
-0.96
4.02
10.65
18.33
25.63
30.65
31.41
26.39
15.23
-0.87
-19.30
-36.69
-49.92
-57.04
-57.59
-52.69
-44.21
-34.00
-23.32
-12.83
-2.83
6.48
14.78
21.66
26.41
28.99
30.24
31.35
32.91
34.49
34.97
33.17
28.79
21.96
14.55
9.46
8.86
12.58
18.18
22.45
23.01
19.46
11.81
2.08
-6.75
-12.56
-15.61
-18.19
-23.35
-34.17
-52.90
-82.63
-123.11
-169.54
-213.70
-246.69
-261.35
-254.10
-226.18
-171.45
-97.61
-23.41
33.08
65.23
77.21
77.27
73.36
68.97
65.54
62.07
58.79
57.74
60.90
67.40
74.41
78.84
78.60
73.71
64.41
52.93
43.01
37.66
37.59
41.40
46.88
51.82
54.87
54.61
51.02
45.85
40.79
36.68
33.70
31.79
30.69
30.06
29.06
27.42
26.73
28.54
33.44
40.50
47.03
48.76
41.19
19.88
-15.07
-55.60
-90.79
-113.01
-121.29
-120.11
-116.14
-114.87
-118.70
-129.68
-142.28
-150.69
-150.50
-139.22
-116.53
-84.19
-45.46
-1.80
38.74
70.33
90.69
101.25
105.35
106.31
106.20
105.43
105.58
104.06
99.81
92.04
80.47
65.58
48.80
31.95
16.58
3.63
-7.17
-15.51
-20.92
-23.38
-23.49
-22.29
-21.06
-20.80
-21.83
-24.14
-26.22
-26.55
-24.30
-19.53
-13.01
-5.80
1.20
7.40
12.36
16.36
19.77
22.66
24.77
25.65
24.98
22.79
19.51
15.80
12.51
10.25
9.16
8.87
8.81
8.51
7.79
6.76
5.71
4.97
4.67
4.69
4.73
4.53
4.01
3.40
3.14
3.59
4.90
6.85
9.00
10.85
12.09
12.57
12.35
11.49
10.22
9.11
9.17
11.60
17.13
25.27
33.94
39.98
40.31
33.42
20.15
3.51
-12.63
-25.12
-32.58
-35.52
-35.30
-33.18
-29.66
-24.72
-18.65
-12.51
-7.93
-6.37
-8.28
-12.93
-18.91
-24.94
-30.51
-35.86
-41.35
-46.87
-51.79
-55.21
-56.47
-55.43
-52.35
-47.57
-41.28
-33.64
-25.11
-16.59
-9.20
-3.65
0.21
3.54
7.80
13.89
21.49
28.99
34.23
35.60
32.82
27.02
20.12
13.88
9.23
6.15
4.12
2.63
1.52
0.92
0.90
1.23
1.42
0.97
-0.33
-2.23
-4.17
-5.51
-5.82
-5.08
-3.66
-2.15
-1.06
-0.68
-0.98
-1.71
-2.56
-3.28
-3.76
-4.01
-4.07
-3.97
-3.70
-3.26
-2.67
-1.97
-1.27
-0.70
-0.42
-0.54
-1.01
-1.58
-1.79
-1.10
0.88
4.18
8.36
12.62
16.06
17.97
18.08
16.62
14.19
11.51
9.22
7.72
7.11
7.24
7.74
8.10
7.80
6.48
4.19
1.40
-1.05
-2.33
-2.01
-0.29
2.01
3.82
4.28
3.09
0.59
-2.41
-5.10
-6.96
-7.97
-8.53
-9.20
-10.33
-11.91
-13.53
-14.66
-14.91
-14.28
-13.04
-11.48
-9.58
-6.83
-2.46
4.07
12.57
21.88
30.18
35.67
37.29
35.06
30.01
23.59
17.09
11.25
6.20
1.77
-2.15
-5.52
-8.11
-9.73
-10.36
-10.19
-9.56
-8.78
-8.02
-7.31
-6.59
-5.85
-5.17
-4.76
-4.90
-5.79
-7.50
-9.81
-12.24
-14.20
-15.13
-14.74
-13.11
-10.63
-7.88
-5.44
-3.72
-2.82
-2.58
-2.58
-2.25
-1.08
1.21
4.56
8.47
12.14
14.73
15.73
15.20
13.72
12.14
11.10
10.69
10.43
9.60
7.73
4.86
1.60
-1.11
-2.43
-1.89
0.54
4.53
9.59
15.08
20.20
24.11
26.07
25.72
23.19
19.06
14.19
9.51
5.69
3.06
1.65
1.50
2.63
4.82
7.58
10.27
12.42
13.74
14.01
13.02
10.81
7.57
3.64
-0.69
-4.86
-8.22
-10.30
-11.14
-11.25
-10.70
-9.48
-7.75
-6.30
-5.60
-5.52
-5.16
-3.68
-0.60
4.72
12.15
20.69
28.06
32.50
32.90
28.39
17.27
-2.50
-32.12
-68.53
-104.21
-132.87
-152.45
-165.60
-175.69
-183.89
-191.03
-189.86
-173.22
-138.49
-90.48
-36.85
15.35
63.41
105.98
138.75
158.58
163.44
162.01
154.95
142.51
122.48
98.52
75.50
57.15
45.67
40.47
39.04
37.16
32.90
26.45
19.79
14.16
9.95
7.56
6.82
7.20
6.94
5.35
2.46
-0.81
-3.97
-6.79
-8.80
-9.78
-9.68
-9.33
-8.94
-8.43
-7.34
-5.71
-3.95
-2.40
-1.33
-0.77
-0.86
-1.30
-1.75
-1.92
-2.03
-2.52
-3.86
-6.25
-9.66
-13.86
-18.37
-22.62
-26.07
-28.43
-29.62
-29.71
-28.78
-26.81
-23.75
-19.54
-14.30
-8.43
-2.51
2.78
6.93
9.74
11.35
12.12
12.44
12.55
12.45
11.99
11.01
9.54
7.86
6.42
5.62
5.56
5.89
6.01
5.36
3.78
1.67
-0.17
-0.97
-0.35
1.45
3.69
5.51
6.27
5.61
3.53
0.23
-3.87
-8.23
-12.23
-15.39
-17.58
-19.03
-20.11
-20.99
-21.36
-20.50
-17.65
-12.62
-6.00
0.92
6.72
10.41
11.82
11.44
10.10
8.49
7.04
5.94
5.27
5.09
5.36
5.89
6.23
5.82
4.22
1.32
-2.58
-6.82
-10.63
-13.40
-14.81
-14.87
-13.83
-12.01
-9.67
-6.99
-4.05
-1.00
1.93
4.45
6.28
7.29
7.62
7.59
7.51
7.52
7.46
7.01
5.91
4.21
2.24
0.53
-0.52
-0.83
-0.69
-0.58
-0.88
-1.70
-2.80
-3.77
-4.27
-4.16
-3.56
-2.75
-1.99
-1.43
-1.03
-0.69
-0.30
0.12
0.46
0.51
0.09
-0.95
-2.69
-5.17
-8.34
-11.99
-15.76
-19.07
-21.27
-21.84
-20.47
-17.25
-12.56
-6.95
-1.02
4.72
9.90
14.26
17.70
20.21
21.84
22.70
22.91
22.61
21.96
21.17
20.47
19.99
19.69
19.40
18.85
17.84
16.32
14.47
12.56
10.82
9.33
8.04
6.90
6.01
5.68
6.29
7.95
10.31
12.49
13.39
12.16
8.66
3.52
-2.10
-7.07
-10.78
-13.28
-15.06
-16.66
-18.30
-19.76
-20.68
-20.81
-20.21
-19.17
-18.00
-16.86
-15.65
-14.18
-12.32
-10.13
-7.83
-5.68
-3.86
-2.39
-1.18
-0.10
0.93
1.94
2.85
3.59
4.07
4.24
4.09
3.72
3.27
2.95
2.90
3.20
3.78
4.45
5.00
5.25
5.13
4.65
3.91
3.01
2.07
1.20
0.49
0.03
-0.16
-0.13
0.00
0.14
0.22
0.25
0.32
0.47
0.66
0.81
0.80
0.64
0.39
0.18
0.11
0.15
0.23
0.24
0.17
0.08
0.09
0.29
0.68
1.20
1.74
2.22
2.59
2.85
3.02
3.17
3.37
3.66
4.01
4.35
4.61
4.70
4.62
4.44
4.26
4.16
4.15
4.20
4.19
4.04
3.69
3.18
2.57
1.99
1.50
1.11
0.77
0.38
-0.10
-0.64
-1.15
-1.50
-1.60
-1.47
-1.21
-0.94
-0.76
-0.73
-0.83
-1.04
-1.35
-1.75
-2.21
-2.69
-3.14
-3.51
-3.78
-3.96
-4.06
-4.11
-4.15
-4.21
-4.30
-4.39
-4.39
-4.19
-3.72
-3.00
-2.15
-1.33
-0.72
-0.39
-0.35
-0.57
-0.98
-1.51
-2.06
-2.47
-2.57
-2.23
-1.49
-0.52
0.36
0.87
0.81
0.18
-0.85
-2.04
-3.12
-3.89
-4.27
-4.27
-3.95
-3.44
-2.86
-2.39
-2.20
-2.42
-3.02
-3.75
-4.20
-3.93
-2.73
-0.71
1.63
3.67
4.95
5.37
5.20
4.92
4.87
5.14
5.54
5.84
5.88
5.74
5.65
5.82
6.34
7.11
7.89
8.43
8.55
8.24
7.62
6.91
6.39
6.27
6.68
7.52
8.54
9.35
9.62
9.23
8.42
7.69
7.60
8.48
10.28
12.53
14.54
15.72
15.82
15.10
14.18
13.75
14.31
15.99
18.54
21.41
23.87
25.07
24.23
20.74
14.42
5.59
-4.83
-15.59
-25.38
-33.32
-39.02
-42.44
-43.79
-43.29
-40.97
-36.43
-29.10
-18.67
-5.97
6.84
16.81
20.94
17.26
5.83
-10.90
-29.00
-44.21
-53.84
-57.01
-54.11
-46.46
-35.98
-24.58
-13.90
-5.26
0.69
3.24
2.73
1.14
1.26
5.32
13.72
24.29
32.36
32.63
20.07
-7.55
-45.86
-83.94
-109.67
-116.24
-104.05
-81.94
-54.81
-26.59
-0.53
21.12
37.04
45.59
46.22
40.38
30.85
21.03
12.65
6.25
1.97
-0.34
-1.33
-1.97
-3.18
-5.57
-8.84
-12.57
-15.78
-17.09
-15.45
-10.84
-4.06
3.69
11.32
18.26
23.96
28.16
31.06
33.29
35.64
38.85
43.35
48.85
54.40
58.38
59.40
57.01
52.16
46.85
43.57
44.35
50.01
59.78
71.26
80.83
84.46
78.67
61.74
34.53
0.61
-34.62
-65.60
-88.40
-101.88
-107.53
-108.10
-105.84
-101.43
-93.98
-82.29
-66.16
-47.12
-28.04
-11.87
-0.41
6.31
9.60
11.20
12.26
12.95
12.70
10.94
7.79
4.20
1.46
0.53
1.39
2.94
3.48
1.53
-3.45
-10.78
-18.90
-26.02
-30.76
-32.49
-31.28
-27.54
-21.72
-13.99
-4.23
7.84
22.45
39.49
58.26
77.36
94.76
108.18
115.63
115.93
108.95
95.62
77.68
57.38
36.96
18.19
1.85
-12.57
-26.66
-42.27
-60.35
-80.10
-98.85
-112.93
-119.03
-115.51
-102.82
-83.13
-59.37
-34.41
-10.66
9.97
26.02
36.61
41.65
42.05
39.54
36.17
33.63
32.75
33.34
34.46
34.86
33.56
30.20
25.25
19.86
15.51
13.47
14.32
17.69
22.36
26.73
29.38
29.47
26.87
22.02
15.64
8.54
1.51
-4.79
-9.87
-13.56
-16.16
-18.28
-20.61
-23.55
-26.98
-30.29
-32.68
-33.50
-32.58
-30.22
-27.10
-23.96
-21.37
-19.54
-18.31
-17.27
-15.94
-13.97
-11.29
-8.07
-4.57
-1.00
2.67
6.60
10.96
15.73
20.54
24.77
27.71
28.81
27.81
24.89
20.65
16.02
12.04
9.56
8.96
9.98
11.71
12.90
12.28
9.09
3.30
-4.29
-12.30
-19.16
-23.65
-25.21
-24.17
-21.48
-18.39
-16.00
-14.94
-15.33
-16.91
-19.31
-22.14
-25.00
-27.40
-28.79
-28.68
-26.82
-23.31
-18.63
-13.43
-8.33
-3.75
0.07
3.05
5.12
6.28
6.57
6.17
5.29
4.20
3.08
2.06
1.20
0.55
0.14
-0.06
-0.19
-0.44
-1.06
-2.23
-3.96
-6.08
-8.32
-10.37
-11.95
-12.89
-13.06
-12.38
-10.76
-8.16
-4.65
-0.41
4.23
8.84
12.99
16.36
18.79
20.33
21.17
21.62
21.92
22.22
22.49
22.55
22.13
21.04
19.27
17.03
14.67
12.58
10.95
9.80
8.97
8.25
7.58
7.02
6.75
6.88
7.37
7.97
8.40
8.44
8.04
7.35
6.53
5.66
4.64
3.32
1.60
-0.40
-2.38
-3.96
-4.89
-5.16
-5.05
-4.95
-5.18
-5.85
-6.84
-7.91
-8.83
-9.49
-9.89
-10.10
-10.13
-9.98
-9.59
-8.93
-8.05
-7.06
-6.11
-5.24
-4.45
-3.69
-2.93
-2.16
-1.41
-0.77
-0.30
-0.03
0.07
0.04
-0.09
-0.37
-0.87
-1.63
-2.62
-3.69
-4.68
-5.37
-5.64
-5.53
-5.21
-4.91
-4.79
-4.92
-5.33
-6.02
-6.87
-7.74
-8.61
-9.53
-10.57
-11.76
-13.08
-14.59
-16.33
-18.01
-19.35
-20.28
-20.98
-21.66
-22.44
-23.24
-23.91
-24.24
-23.47
-20.90
-16.29
-9.99
-2.62
5.20
13.01
20.54
27.71
35.33
44.15
54.24
64.93
75.15
84.10
91.51
97.59
98.09
90.50
75.35
56.33
37.70
22.12
10.42
2.34
-2.98
-6.63
-8.94
-10.14
-10.54
-10.61
-10.76
-11.14
-11.74
-12.41
-13.35
-14.06
-14.03
-13.12
-11.70
-10.35
-9.50
-9.27
-9.59
-10.28
-10.76
-10.61
-9.77
-8.58
-7.53
-7.06
-7.12
-7.69
-8.72
-9.92
-11.06
-11.99
-12.74
-13.37
-13.90
-14.33
-14.65
-14.86
-14.87
-14.64
-14.17
-13.51
-12.68
-11.67
-10.45
-9.03
-7.50
-6.01
-4.69
-3.67
-2.95
-2.45
-2.04
-1.62
-1.23
-0.96
-0.96
-1.29
-1.89
-2.59
-3.20
-3.60
-3.83
-3.99
-4.24
-4.60
-5.05
-5.48
-5.82
-6.07
-6.32
-6.63
-7.03
-7.42
-7.67
-7.68
-7.42
-6.99
-6.49
-6.00
-5.50
-4.94
-4.27
-3.49
-2.66
-1.90
-1.27
-0.75
-0.29
0.16
0.61
1.00
1.28
1.45
1.57
1.73
1.99
2.32
2.67
2.96
3.19
3.34
3.45
3.48
3.43
3.30
3.15
3.06
3.09
3.22
3.38
3.49
3.49
3.40
3.25
3.13
3.08
3.15
3.37
3.75
4.28
4.89
5.48
5.91
6.11
6.10
6.02
6.10
6.59
7.68
9.35
11.41
13.41
14.79
15.00
13.69
10.79
6.61
1.71
-3.23
-7.60
-10.99
-13.27
-14.55
-15.08
-15.09
-14.72
-13.99
-12.93
-11.69
-10.60
-10.08
-10.36
-11.38
-12.66
-13.52
-13.42
-12.20
-10.14
-7.82
-5.78
-4.27
-3.22
-2.39
-1.55
-0.66
0.21
0.92
1.40
1.69
1.90
2.12
2.41
2.76
3.18
3.63
4.07
4.48
4.79
5.00
5.12
5.15
5.12
5.00
4.75
4.34
3.75
3.02
2.20
1.41
0.78
0.44
0.45
0.80
1.39
2.04
2.54
2.77
2.70
2.42
2.07
1.77
1.54
1.33
1.03
0.58
-0.06
-0.81
-1.61
-2.36
-3.01
-3.54
-3.87
-3.97
-3.79
-3.36
-2.79
-2.24
-1.89
-1.81
-1.96
-2.20
-2.32
-2.21
-1.82
-1.23
-0.56
0.08
0.63
1.03
1.30
1.45
1.53
1.61
1.73
1.90
2.09
2.22
2.24
2.13
1.93
1.73
1.61
1.61
1.69
1.81
1.89
1.88
1.78
1.57
1.30
1.01
0.76
0.60
0.56
0.63
0.73
0.78
0.72
0.54
0.29
0.06
-0.10
-0.16
-0.18
-0.21
-0.26
-0.33
-0.41
-0.50
-0.64
-0.86
-1.16
-1.46
-1.66
-1.71
-1.62
-1.51
-1.53
-1.75
-2.16
-2.60
-2.90
-2.92
-2.65
-2.13
-1.49
-0.84
-0.27
0.16
0.44
0.54
0.49
0.34
0.16
0.08
0.14
0.34
0.64
0.97
1.28
1.57
1.82
1.98
1.97
1.74
1.33
0.90
0.66
0.75
1.17
1.75
2.24
2.47
2.40
2.16
1.91
1.74
1.65
1.57
1.42
1.22
1.03
0.95
0.99
1.12
1.21
1.15
0.88
0.45
-0.02
-0.39
-0.57
-0.54
-0.37
-0.22
-0.23
-0.46
-0.88
-1.34
-1.70
-1.85
-1.77
-1.55
-1.35
-1.29
-1.45
-1.86
-2.47
-3.22
-3.98
-4.59
-4.90
-4.74
-4.05
-2.89
-1.46
-0.04
1.13
1.93
2.37
2.57
2.69
2.83
3.00
3.15
3.22
3.22
3.19
3.21
3.32
3.52
3.76
3.99
4.18
4.31
4.38
4.36
4.23
3.99
3.61
3.13
2.58
2.01
1.43
0.87
0.32
-0.24
-0.78
-1.26
-1.58
-1.64
-1.39
-0.87
-0.22
0.38
0.73
0.73
0.39
-0.23
-1.02
-1.89
-2.75
-3.56
-4.25
-4.77
-5.10
-5.24
-5.23
-5.15
-5.06
-5.01
-5.00
-4.96
-4.81
-4.46
-3.87
-3.08
-2.18
-1.29
-0.47
0.27
0.95
1.59
2.20
2.72
3.06
3.13
2.88
2.34
1.62
0.89
0.34
0.20
0.63
1.68
3.25
5.05
6.67
7.74
8.05
7.69
6.99
6.39
6.21
6.50
7.01
7.29
6.93
5.77
3.94
1.77
-0.33
-2.08
-3.35
-4.16
-4.59
-4.70
-4.55
-4.18
-3.68
-3.21
-2.99
-3.19
-3.86
-4.88
-6.02
-7.06
-7.82
-8.22
-8.22
-7.81
-6.94
-5.64
-4.06
-2.50
-1.30
-0.72
-0.80
-1.34
-1.98
-2.39
-2.43
-2.13
-1.68
-1.27
-1.04
-0.97
-1.00
-1.03
-0.96
-0.76
-0.44
-0.06
0.35
0.73
1.10
1.48
1.90
2.33
2.66
2.76
2.49
1.87
1.00
0.12
-0.56
-0.93
-1.01
-0.91
-0.78
-0.67
-0.58
-0.39
-0.07
0.34
0.74
0.99
1.00
0.81
0.56
0.38
0.35
0.43
0.47
0.32
-0.10
-0.79
-1.61
-2.42
-3.08
-3.52
-3.73
-3.77
-3.74
-3.70
-3.71
-3.79
-3.91
-4.00
-3.94
-3.63
-3.00
-2.09
-1.01
0.05
0.94
1.54
1.84
1.93
1.91
1.86
1.84
1.82
1.80
1.75
1.70
1.67
1.69
1.78
1.95
2.16
2.36
2.48
2.50
2.43
2.32
2.24
2.25
2.33
2.45
2.51
2.44
2.19
1.78
1.31
0.89
0.63
0.58
0.70
0.88
1.02
1.04
0.90
0.63
0.29
-0.07
-0.40
-0.71
-0.99
-1.27
-1.56
-1.84
-2.08
-2.23
-2.24
-2.14
-1.98
-1.87
-1.91
-2.13
-2.49
-2.86
-3.10
-3.14
-2.94
-2.59
-2.18
-1.78
-1.46
-1.20
-0.99
-0.78
-0.53
-0.21
0.21
0.70
1.19
1.60
1.84
1.85
1.67
1.41
1.17
1.00
0.91
0.84
0.74
0.62
0.54
0.60
0.82
1.17
1.52
1.74
1.74
1.48
1.06
0.58
0.16
-0.13
-0.26
-0.24
-0.09
0.15
0.43
0.67
0.72
0.49
-0.07
-0.89
-1.83
-2.73
-3.47
-3.97
-4.23
-4.28
-4.10
-3.71
-3.10
-2.33
-1.48
-0.66
0.02
0.53
0.92
1.29
1.75
2.37
3.12
3.90
4.54
4.88
4.86
4.54
4.08
3.65
3.35
3.22
3.17
3.09
2.86
2.47
1.97
1.45
1.01
0.70
0.52
0.47
0.53
0.73
1.06
1.48
1.85
2.04
1.93
1.54
0.97
0.39
-0.03
-0.23
-0.23
-0.10
0.09
0.32
0.59
0.87
1.13
1.26
1.12
0.63
-0.19
-1.22
-2.24
-3.04
-3.48
-3.53
-3.30
-2.97
-2.69
-2.56
-2.61
-2.84
-3.22
-3.69
-4.10
-4.27
-4.02
-3.29
-2.18
-0.92
0.24
1.12
1.67
1.95
2.03
1.95
1.72
1.35
0.88
0.41
0.05
-0.15
-0.19
-0.12
0.00
0.12
0.22
0.29
0.35
0.41
0.49
0.57
0.58
0.44
0.07
-0.52
-1.24
-1.95
-2.51
-2.85
-3.00
-3.08
-3.19
-3.37
-3.60
-3.78
-3.81
-3.62
-3.21
-2.67
-2.08
-1.57
-1.19
-0.94
-0.75
-0.50
-0.10
0.52
1.33
2.22
3.03
3.61
3.90
3.93
3.78
3.58
3.38
3.25
3.22
3.32
3.62
4.14
4.84
5.60
6.23
6.54
6.38
5.72
4.63
3.28
1.94
0.86
0.24
0.11
0.37
0.79
1.18
1.46
1.74
2.18
2.89
3.85
4.83
5.56
5.76
5.33
4.32
2.95
1.51
0.27
-0.56
-0.90
-0.78
-0.36
0.16
0.62
0.89
0.92
0.74
0.43
0.09
-0.15
-0.23
-0.13
0.06
0.26
0.39
0.41
0.35
0.24
0.06
-0.21
-0.63
-1.18
-1.75
-2.21
-2.45
-2.42
-2.18
-1.82
-1.39
-0.92
-0.38
0.19
0.75
1.22
1.54
1.73
1.89
2.10
2.37
2.64
2.78
2.72
2.44
2.05
1.66
1.35
1.15
1.05
1.04
1.13
1.33
1.58
1.78
1.82
1.64
1.28
0.87
0.56
0.39
0.32
0.24
0.06
-0.22
-0.53
-0.76
-0.89
-0.96
-1.05
-1.24
-1.53
-1.84
-2.08
-2.19
-2.20
-2.22
-2.30
-2.48
-2.70
-2.93
-3.15
-3.39
-3.72
-4.15
-4.63
-5.07
-5.36
-5.44
-5.33
-5.08
-4.73
-4.28
-3.73
-3.09
-2.42
-1.81
-1.34
-1.00
-0.74
-0.43
0.01
0.58
1.17
1.60
1.75
1.58
1.20
0.81
0.59
0.63
0.85
1.08
1.14
0.96
0.59
0.21
0.05
0.23
0.71
1.33
1.85
2.09
2.02
1.74
1.41
1.20
1.17
1.30
1.47
1.60
1.61
1.48
1.24
0.93
0.57
0.17
-0.25
-0.65
-0.99
-1.20
-1.24
-1.09
-0.81
-0.50
-0.28
-0.23
-0.40
-0.74
-1.18
-1.62
-2.02
-2.37
-2.72
-3.07
-3.42
-3.70
-3.81
-3.70
-3.32
-2.75
-2.09
-1.45
-0.89
-0.42
-0.01
0.37
0.69
0.91
1.01
0.98
0.86
0.73
0.66
0.70
0.86
1.09
1.34
1.58
1.75
1.85
1.87
1.83
1.70
1.48
1.13
0.70
0.27
-0.04
-0.13
0.00
0.27
0.53
0.64
0.57
0.36
0.12
-0.06
-0.15
-0.16
-0.17
-0.21
-0.31
-0.47
-0.64
-0.79
-0.86
-0.89
-0.92
-1.04
-1.30
-1.65
-1.98
-2.16
-2.11
-1.84
-1.48
-1.18
-1.03
-1.04
-1.14
-1.25
-1.30
-1.27
-1.17
-0.99
-0.75
-0.46
-0.16
0.11
0.32
0.43
0.44
0.35
0.21
0.08
0.05
0.20
0.58
1.12
1.66
2.04
2.14
1.97
1.65
1.33
1.13
1.07
1.08
1.08
1.05
1.00
0.99
1.04
1.14
1.24
1.31
1.36
1.39
1.42
1.41
1.31
1.12
0.84
0.58
0.42
0.44
0.61
0.85
1.07
1.20
1.26
1.30
1.38
1.50
1.60
1.63
1.56
1.45
1.39
1.46
1.71
2.11
2.64
3.29
4.08
5.02
6.05
7.08
7.99
8.71
9.26
9.71
10.15
10.63
11.16
11.75
12.46
13.35
14.46
15.72
16.95
17.88
18.23
17.83
16.65
14.84
12.66
10.45
8.49
6.97
5.83
4.89
3.87
2.50
0.57
-2.01
-5.25
-9.11
-13.56
-18.58
-24.10
-29.92
-35.79
-41.49
-47.05
-52.63
-58.44
-64.46
-70.35
-75.39
-78.75
-79.77
-78.38
-75.03
-70.30
-64.53
-57.61
-49.23
-39.08
-27.26
-14.22
-0.78
12.22
24.33
35.55
46.12
55.65
62.73
65.79
64.49
59.90
53.78
47.64
42.31
37.89
33.96
30.43
26.85
23.22
19.74
16.62
14.03
12.03
10.60
9.61
8.96
8.57
8.56
9.03
9.91
11.06
12.35
13.70
15.08
16.52
18.07
19.76
21.46
22.93
23.92
24.34
24.21
23.64
22.78
21.77
20.72
19.66
18.50
17.06
15.18
12.77
9.73
6.09
1.92
-2.62
-7.38
-12.17
-16.79
-20.95
-24.36
-26.95
-28.77
-29.86
-30.31
-30.14
-29.36
-27.97
-25.99
-23.44
-20.50
-17.35
-13.94
-10.28
-6.43
-2.69
0.45
2.50
3.24
2.46
0.35
-2.54
-5.76
-9.13
-12.92
-17.92
-25.12
-33.25
-41.06
-47.73
-53.11
-57.35
-59.71
-58.64
-52.51
-40.42
-22.77
-1.59
19.42
38.75
54.95
67.01
74.35
77.00
75.66
71.62
66.39
61.58
58.72
58.01
59.38
61.99
64.17
63.57
57.67
44.52
23.83
-2.36
-30.42
-56.09
-76.15
-89.43
-96.68
-99.66
-99.94
-98.22
-94.37
-88.41
-80.89
-72.94
-65.63
-59.16
-52.47
-43.68
-30.78
-12.43
11.50
39.63
69.05
95.56
114.51
122.05
116.73
100.23
77.11
53.18
33.32
19.87
12.28
8.15
4.86
0.89
-3.90
-8.83
-13.22
-16.90
-20.12
-23.26
-26.44
-29.48
-31.77
-32.46
-30.65
-25.78
-18.10
-8.81
0.14
6.95
10.75
11.92
11.76
11.63
12.03
12.42
11.76
9.34
5.39
0.98
-2.69
-5.10
-6.64
-8.44
-11.60
-16.64
-23.30
-30.81
-38.47
-46.04
-53.72
-61.69
-69.77
-77.48
-84.39
-90.54
-96.09
-101.07
-105.00
-106.75
-104.94
-98.64
-87.90
-73.84
-58.07
-41.37
-23.86
-5.51
13.35
31.75
48.47
62.46
73.21
80.77
86.35
91.11
95.61
99.68
102.88
104.92
105.73
105.35
103.88
102.78
103.75
107.98
115.63
125.89
137.47
149.12
159.88
162.25
151.35
126.87
93.78
58.91
27.28
1.16
-19.06
-33.76
-43.75
-49.07
-50.13
-47.75
-43.70
-39.75
-37.06
-36.18
-37.13
-39.58
-42.07
-43.17
-42.07
-39.02
-35.03
-30.94
-27.66
-25.77
-25.43
-25.82
-25.91
-24.89
-22.57
-19.11
-14.91
-10.64
-6.98
-4.41
-2.83
-1.87
-1.17
-0.60
-0.26
-0.45
-1.92
-5.18
-10.05
-15.46
-20.09
-23.03
-24.21
-24.32
-24.40
-25.98
-29.86
-35.49
-41.20
-45.15
-46.26
-44.59
-41.12
-37.38
-35.74
-38.12
-45.17
-55.99
-68.73
-80.99
-90.09
-93.41
-84.47
-60.66
-25.90
10.48
39.59
57.32
64.65
65.29
63.20
60.91
58.44
54.78
49.45
43.63
38.78
36.01
35.52
36.54
37.70
37.13
33.60
27.37
20.17
14.08
10.58
9.91
11.44
13.80
15.17
14.17
10.52
5.17
-0.47
-5.31
-8.88
-11.47
-13.94
-16.37
-18.80
-21.18
-23.29
-24.66
-24.39
-21.46
-15.47
-7.11
1.75
8.41
10.06
5.82
-3.63
-16.05
-28.06
-36.24
-38.24
-33.57
-23.78
-11.65
-0.16
8.80
13.41
13.05
8.57
2.16
-3.23
-5.06
-2.14
4.91
13.82
21.61
26.15
26.88
24.53
20.27
14.68
7.28
-2.90
-16.35
-32.21
-48.00
-60.51
-67.19
-67.18
-61.60
-52.79
-43.14
-34.11
-26.00
-18.23
-10.29
-2.27
5.02
10.57
13.86
15.24
15.76
16.79
19.43
24.15
30.71
38.24
45.57
51.49
55.03
55.58
53.03
47.81
40.75
32.93
25.35
18.76
13.54
9.72
7.15
5.60
4.84
4.66
4.85
5.24
5.67
6.06
6.44
7.03
8.15
10.22
13.48
17.83
22.68
27.07
30.02
30.89
29.70
27.13
24.17
21.61
19.68
17.99
15.85
12.77
8.78
4.49
0.80
-1.58
-2.46
-2.21
-1.51
-0.98
-0.83
-0.93
-1.03
-1.11
-1.53
-2.89
-5.64
-9.75
-14.71
-19.90
-25.04
-30.50
-37.08
-45.46
-55.53
-66.25
-76.00
-83.40
-87.99
-90.40
-91.66
-92.32
-91.76
-88.45
-80.94
-69.09
-54.66
-40.86
-30.74
-25.70
-24.57
-24.24
-21.21
-13.47
-1.45
12.38
24.87
33.80
38.74
40.82
41.74
42.64
43.67
44.30
44.00
42.83
41.52
40.97
41.62
43.18
44.75
45.42
44.77
43.04
40.89
39.06
37.94
37.54
37.58
37.60
37.18
36.03
34.00
31.18
27.92
24.69
21.94
19.85
18.23
16.59
14.35
11.16
7.01
2.21
-2.86
-7.93
-12.90
-17.80
-22.63
-27.19
-31.19
-34.38
-36.73
-38.52
-40.22
-42.23
-44.63
-47.06
-48.88
-49.36
-48.05
-44.76
-39.67
-33.14
-25.60
-17.53
-9.40
-1.75
4.86
10.02
13.59
15.81
17.17
18.24
19.32
20.33
20.81
20.14
17.93
14.37
10.15
6.17
3.04
0.80
-1.03
-3.18
-6.18
-10.02
-13.88
-16.72
-17.74
-16.81
-14.39
-11.28
-8.43
-6.62
-6.32
-7.10
-8.11
-8.57
-8.01
-6.28
-3.45
0.25
4.48
8.89
13.96
20.07
27.03
33.85
39.43
43.07
44.75
45.01
44.73
45.76
49.59
56.63
66.04
76.44
86.61
95.75
103.47
103.60
92.52
71.39
46.00
22.51
4.14
-9.05
-18.52
-25.94
-32.41
-37.40
-40.11
-39.96
-37.95
-35.30
-32.92
-31.25
-30.41
-30.33
-30.06
-28.73
-26.08
-22.74
-19.61
-17.56
-16.94
-17.70
-19.44
-21.11
-21.77
-21.08
-19.40
-17.38
-15.55
-14.17
-13.25
-12.66
-12.08
-11.24
-10.12
-8.91
-7.78
-6.78
-5.79
-4.65
-3.26
-1.47
0.71
3.09
5.33
7.11
8.20
8.55
8.23
7.36
6.00
4.17
1.89
-0.82
-3.80
-6.81
-9.58
-11.91
-13.72
-15.02
-15.87
-16.33
-16.44
-16.25
-15.84
-15.29
-14.66
-13.96
-13.18
-12.27
-11.23
-10.06
-8.83
-7.62
-6.48
-5.44
-4.50
-3.58
-2.55
-1.25
0.48
2.65
5.14
7.58
9.56
10.68
10.73
9.81
8.26
6.53
5.07
4.10
3.62
3.43
3.25
2.88
2.26
1.47
0.70
0.12
-0.17
-0.19
-0.05
0.09
0.15
0.11
0.04
0.10
0.40
0.99
1.76
2.49
2.93
2.94
2.54
1.94
1.43
1.27
1.66
2.70
4.40
6.64
9.15
11.49
13.08
13.43
12.32
9.94
6.92
4.02
1.86
0.70
0.34
0.28
0.04
-0.69
-1.91
-3.40
-4.88
-6.11
-6.98
-7.50
-7.79
-7.96
-8.09
-8.19
-8.21
-8.10
-7.79
-7.30
-6.62
-5.75
-4.67
-3.41
-2.10
-1.00
-0.45
-0.70
-1.72
-3.18
-4.50
-5.11
-4.68
-3.24
-1.19
0.93
2.63
3.66
4.02
3.89
3.48
2.96
2.42
1.88
1.40
1.03
0.89
1.01
1.34
1.75
2.07
2.18
2.06
1.85
1.70
1.76
2.03
2.39
2.64
2.60
2.20
1.49
0.63
-0.14
-0.63
-0.79
-0.65
-0.42
-0.28
-0.36
-0.69
-1.17
-1.65
-2.03
-2.26
-2.39
-2.48
-2.60
-2.73
-2.90
-3.08
-3.30
-3.57
-3.84
-3.99
-3.88
-3.39
-2.49
-1.28
0.11
1.53
2.91
4.24
5.53
6.82
8.08
9.30
10.44
11.47
12.33
12.94
13.15
12.77
11.65
9.71
7.04
3.84
0.50
-2.60
-5.07
-6.72
-7.56
-7.78
-7.68
-7.51
-7.44
-7.45
-7.41
-7.14
-6.50
-5.47
-4.16
-2.72
-1.36
-0.24
0.52
0.90
0.97
0.82
0.57
0.32
0.13
0.03
0.02
0.07
0.16
0.22
0.21
0.06
-0.29
-0.80
-1.37
-1.86
-2.15
-2.27
-2.32
-2.48
-2.87
-3.45
-4.09
-4.59
-4.85
-4.84
-4.64
-4.31
-3.84
-3.17
-2.24
-1.11
0.06
1.02
1.59
1.72
1.52
1.19
0.91
0.76
0.71
0.69
0.62
0.50
0.36
0.28
0.30
0.40
0.51
0.54
0.42
0.15
-0.22
-0.63
-0.98
-1.22
-1.30
-1.21
-0.99
-0.73
-0.51
-0.43
-0.49
-0.60
-0.65
-0.49
-0.08
0.50
1.07
1.42
1.42
1.05
0.39
-0.40
-1.19
-1.89
-2.47
-2.94
-3.32
-3.67
-4.00
-4.31
-4.55
-4.67
-4.60
-4.34
-3.96
-3.54
-3.16
-2.79
-2.38
-1.89
-1.34
-0.86
-0.57
-0.54
-0.69
-0.85
-0.86
-0.62
-0.20
0.29
0.69
0.93
0.95
0.78
0.42
-0.07
-0.62
-1.12
-1.42
-1.41
-1.07
-0.47
0.28
1.05
1.73
2.28
2.69
2.95
3.06
3.04
2.94
2.85
2.85
3.02
3.36
3.84
4.37
4.83
5.11
5.14
4.90
4.42
3.76
3.00
2.19
1.32
0.39
-0.63
-1.69
-2.70
-3.53
-4.08
-4.32
-4.32
-4.16
-3.94
-3.71
-3.47
-3.21
-2.92
-2.65
-2.48
-2.42
-2.47
-2.53
-2.53
-2.38
-2.12
-1.81
-1.55
-1.37
-1.26
-1.15
-0.98
-0.69
-0.29
0.18
0.67
1.16
1.65
2.13
2.58
2.96
3.20
3.22
3.02
2.60
2.07
1.52
1.04
0.70
0.49
0.43
0.49
0.66
0.90
1.16
1.34
1.35
1.13
0.63
-0.08
-0.88
-1.62
-2.11
-2.29
-2.14
-1.77
-1.32
-0.95
-0.68
-0.49
-0.28
0.04
0.51
1.11
1.75
2.35
2.85
3.25
3.55
3.73
3.76
3.58
3.18
2.62
2.02
1.53
1.29
1.30
1.47
1.68
1.81
1.80
1.69
1.52
1.35
1.22
1.13
1.08
1.06
1.08
1.09
1.07
0.96
0.77
0.51
0.26
0.08
0.03
0.11
0.29
0.53
0.74
0.85
0.81
0.57
0.17
-0.31
-0.74
-1.01
-1.08
-0.97
-0.77
-0.54
-0.33
-0.13
0.07
0.31
0.58
0.89
1.22
1.59
1.99
2.38
2.71
2.93
3.04
3.11
3.20
3.38
3.60
3.75
3.67
3.26
2.54
1.65
0.82
0.20
-0.16
-0.33
-0.43
-0.55
-0.72
-0.90
-1.04
-1.12
-1.17
-1.23
-1.27
-1.25
-1.11
-0.83
-0.48
-0.15
0.04
0.04
-0.16
-0.53
-0.98
-1.42
-1.74
-1.86
-1.73
-1.40
-1.00
-0.65
-0.48
-0.50
-0.68
-0.91
-1.07
-1.07
-0.88
-0.50
-0.00
0.53
1.00
1.32
1.48
1.45
1.25
0.89
0.40
-0.16
-0.69
-1.07
-1.24
-1.20
-1.03
-0.87
-0.81
-0.85
-0.94
-0.99
-0.97
-0.88
-0.73
-0.57
-0.39
-0.20
-0.03
0.08
0.09
0.01
-0.11
-0.17
-0.09
0.15
0.52
0.95
1.34
1.65
1.87
2.01
2.09
2.13
2.14
2.13
2.10
2.03
1.91
1.77
1.65
1.56
1.51
1.41
1.18
0.74
0.12
-0.61
-1.30
-1.85
-2.23
-2.46
-2.62
-2.76
-2.92
-3.10
-3.27
-3.36
-3.29
-2.98
-2.44
-1.75
-1.06
-0.51
-0.20
-0.10
-0.09
-0.01
0.26
0.74
1.35
1.94
2.37
2.59
2.60
2.47
2.31
2.18
2.13
2.14
2.19
2.27
2.38
2.52
2.71
2.93
3.16
3.32
3.39
3.35
3.22
3.02
2.77
2.48
2.13
1.74
1.32
0.90
0.50
0.13
-0.22
-0.55
-0.84
-1.03
-1.09
-1.01
-0.85
-0.72
-0.72
-0.92
-1.30
-1.80
-2.33
-2.84
-3.33
-3.84
-4.39
-4.97
-5.49
-5.84
-5.89
-5.58
-4.94
-4.08
-3.11
-2.16
-1.29
-0.51
0.19
0.84
1.40
1.83
2.07
2.11
2.04
1.92
1.84
1.84
1.91
2.00
2.03
1.95
1.79
1.71
1.75
1.92
2.20
2.54
2.90
3.19
3.43
3.68
4.12
4.69
5.28
5.74
6.03
6.10
5.96
5.65
5.31
5.14
5.01
4.71
4.10
3.22
2.24
1.20
0.13
-1.02
-2.33
-4.28
-7.38
-11.82
-17.45
-23.78
-30.50
-37.45
-44.70
-49.72
-50.68
-47.28
-40.92
-33.42
-25.78
-18.39
-11.40
-5.04
0.44
4.56
7.27
9.08
10.47
12.44
15.24
18.53
21.64
24.00
25.12
24.90
23.70
22.21
21.09
20.70
21.17
22.38
24.01
25.19
24.77
21.72
15.68
7.27
-2.09
-10.55
-16.50
-19.13
-18.82
-16.72
-14.17
-12.18
-11.15
-11.13
-12.02
-13.82
-16.61
-20.32
-24.48
-28.04
-29.65
-28.08
-22.86
-14.50
-4.44
5.41
13.28
18.04
19.46
18.16
15.24
11.89
8.98
6.84
5.25
3.63
1.40
-1.71
-5.47
-9.28
-12.49
-14.73
-16.02
-16.71
-17.15
-17.49
-17.60
-17.23
-16.21
-14.64
-12.82
-11.18
-10.02
-9.45
-9.39
-9.70
-10.23
-10.87
-11.55
-12.13
-12.47
-12.43
-11.86
-10.68
-8.85
-6.38
-3.31
0.19
3.87
7.41
10.50
12.97
14.88
16.43
17.89
19.44
21.03
22.44
23.35
23.50
22.81
21.41
19.57
17.58
15.64
13.89
12.42
11.33
10.70
10.58
10.89
11.42
11.90
12.06
11.80
11.15
10.29
9.36
8.46
7.61
6.76
5.87
4.94
4.00
3.13
2.33
1.60
0.90
0.18
-0.54
-1.21
-1.72
-1.94
-1.81
-1.31
-0.52
0.48
1.58
2.64
3.56
4.19
4.42
4.21
3.64
2.88
2.16
1.66
1.47
1.56
1.83
2.18
2.57
2.99
3.48
4.01
4.51
4.90
5.14
5.29
5.55
6.13
7.16
8.54
10.00
11.25
12.11
12.75
13.51
14.79
16.73
19.10
21.38
22.93
23.29
22.30
20.06
16.80
12.74
8.06
2.95
-2.34
-7.48
-12.13
-15.97
-18.73
-20.12
-19.85
-17.61
-13.16
-6.57
1.60
10.22
17.61
21.93
21.66
16.19
6.20
-6.53
-19.57
-30.63
-38.26
-42.06
-42.48
-40.31
-36.25
-30.76
-24.21
-17.20
-10.58
-5.29
-1.94
-0.48
-0.20
0.05
1.36
4.38
9.08
14.86
20.81
26.00
29.72
31.52
31.20
28.69
24.14
17.97
10.92
4.03
-1.64
-5.24
-6.38
-5.11
-1.83
2.95
8.58
14.31
19.09
21.71
21.05
16.56
8.67
-1.18
-10.94
-18.58
-22.85
-23.75
-22.60
-21.51
-22.54
-26.61
-32.94
-39.13
-42.16
-39.73
-31.41
-18.93
-5.51
5.64
12.55
15.07
14.43
12.27
9.62
6.63
2.95
-1.59
-6.49
-10.70
-13.13
-13.27
-11.57
-9.26
-7.77
-8.13
-10.55
-14.41
-18.56
-21.83
-23.38
-22.94
-20.71
-17.24
-13.10
-8.71
-4.32
-0.11
3.69
6.72
8.55
8.87
7.64
5.25
2.37
-0.20
-1.88
-2.43
-2.03
-1.14
-0.28
0.18
0.13
-0.27
-0.73
-0.99
-0.95
-0.67
-0.34
-0.16
-0.18
-0.29
-0.23
0.28
1.49
3.43
5.97
8.83
11.66
14.18
16.27
17.97
19.43
20.79
22.06
23.06
23.54
23.24
22.08
20.16
17.75
15.12
12.48
9.94
7.55
5.35
3.38
1.67
0.19
-1.12
-2.20
-2.89
-2.88
-1.90
0.14
2.98
6.03
8.50
9.67
9.09
6.82
3.33
-0.59
-4.12
-6.64
-7.87
-7.94
-7.20
-6.13
-5.12
-4.47
-4.30
-4.65
-5.41
-6.38
-7.27
-7.74
-7.58
-6.71
-5.27
-3.56
-1.87
-0.45
0.57
1.19
1.46
1.46
1.31
1.12
0.99
0.98
1.08
1.23
1.34
1.37
1.33
1.24
1.13
0.95
0.63
0.05
-0.84
-1.99
-3.25
-4.44
-5.40
-6.04
-6.35
-6.43
-6.38
-6.32
-6.34
-6.48
-6.73
-6.98
-7.10
-6.97
-6.49
-5.66
-4.54
-3.23
-1.85
-0.47
0.88
2.19
3.45
4.58
5.53
6.27
6.79
7.15
7.41
7.63
7.80
7.89
7.85
7.63
7.21
6.59
5.80
4.90
3.98
3.13
2.40
1.84
1.48
1.33
1.37
1.57
1.85
2.05
2.05
1.75
1.17
0.44
-0.27
-0.79
-1.06
-1.13
-1.10
-1.11
-1.24
-1.52
-1.93
-2.42
-2.94
-3.40
-3.71
-3.78
-3.56
-3.11
-2.56
-2.11
-1.86
-1.84
-1.95
-2.05
-2.03
-1.89
-1.71
-1.56
-1.40
-1.09
-0.44
0.64
2.05
3.58
4.93
5.90
6.41
6.53
6.41
6.23
6.17
6.34
6.84
7.65
8.70
9.81
10.82
11.68
12.50
13.61
15.41
18.18
21.87
25.91
29.21
30.53
28.93
24.21
17.15
9.27
2.24
-2.78
-5.53
-6.63
-7.10
-7.84
-9.19
-10.85
-12.15
-12.28
-10.59
-6.82
-1.29
4.94
10.17
12.41
10.17
3.13
-7.61
-19.86
-31.22
-39.91
-45.30
-47.74
-47.94
-46.41
-43.27
-38.44
-32.13
-25.00
-18.10
-12.39
-8.27
-5.45
-3.15
-0.57
2.75
6.66
10.53
13.55
15.13
15.10
13.81
11.98
10.49
10.11
11.26
13.88
17.30
20.35
21.61
19.84
14.45
5.84
-4.69
-15.27
-24.10
-29.99
-32.67
-32.69
-31.09
-28.93
-26.97
-25.61
-25.01
-25.22
-26.24
-27.97
-30.12
-32.15
-33.41
-33.20
-31.00
-26.60
-20.18
-12.24
-3.50
5.23
13.21
19.91
25.05
28.64
30.85
31.95
32.15
31.60
30.40
28.70
26.67
24.54
22.51
20.70
19.13
17.72
16.35
14.96
13.51
12.07
10.70
9.47
8.35
7.29
6.19
5.00
3.70
2.34
1.01
-0.18
-1.17
-1.94
-2.48
-2.83
-3.06
-3.21
-3.32
-3.35
-3.26
-2.93
-2.35
-1.52
-0.55
0.41
1.28
2.04
2.71
3.38
4.07
4.74
5.33
5.74
5.91
5.80
5.43
4.85
4.16
3.46
2.88
2.47
2.26
2.22
2.28
2.35
2.36
2.30
2.19
2.09
2.06
2.09
2.14
2.15
2.07
1.91
1.75
1.68
1.78
2.02
2.30
2.43
2.26
1.73
0.95
0.21
-0.12
0.24
1.35
2.92
4.42
5.31
5.34
4.69
3.94
3.78
4.61
6.36
8.41
9.99
10.48
9.80
8.40
7.06
6.60
7.65
10.68
15.86
22.88
30.46
36.25
37.24
30.93
16.62
-3.79
-26.21
-45.85
-59.10
-64.69
-63.78
-58.81
-52.13
-45.15
-38.33
-31.80
-25.90
-21.32
-18.65
-17.91
-18.37
-18.81
-18.08
-15.53
-11.30
-6.09
-0.85
3.71
7.27
10.03
12.42
14.85
17.44
19.88
21.60
22.02
20.86
18.23
14.67
10.84
7.34
4.53
2.45
0.96
-0.18
-1.19
-2.15
-3.07
-3.89
-4.55
-5.01
-5.30
-5.44
-5.44
-5.30
-4.98
-4.45
-3.73
-2.90
-2.09
-1.41
-0.86
-0.36
0.28
1.17
2.34
3.66
4.92
5.90
6.43
6.48
6.10
5.45
4.69
3.95
3.32
2.84
2.52
2.33
2.23
2.17
2.15
2.19
2.39
2.83
3.56
4.51
5.54
6.43
7.01
7.21
7.05
6.62
6.03
5.36
4.64
3.91
3.19
2.55
2.07
1.78
1.69
1.70
1.72
1.69
1.57
1.42
1.29
1.24
1.24
1.24
1.14
0.91
0.56
0.17
-0.16
-0.33
-0.30
-0.12
0.16
0.43
0.62
0.70
0.70
0.64
0.58
0.57
0.62
0.75
0.98
1.27
1.61
1.93
2.17
2.26
2.16
1.91
1.57
1.19
0.84
0.53
0.29
0.11
-0.02
-0.11
-0.20
-0.29
-0.40
-0.52
-0.64
-0.77
-0.92
-1.08
-1.25
-1.41
-1.50
-1.50
-1.43
-1.29
-1.15
-1.07
-1.08
-1.20
-1.39
-1.54
-1.57
-1.41
-1.08
-0.70
-0.39
-0.25
-0.26
-0.33
-0.34
-0.24
-0.04
0.18
0.36
0.49
0.61
0.80
1.09
1.44
1.76
1.97
2.02
1.94
1.79
1.65
1.55
1.50
1.49
1.47
1.45
1.44
1.48
1.57
1.68
1.73
1.63
1.30
0.75
0.03
-0.77
-1.54
-2.21
-2.75
-3.15
-3.46
-3.68
-3.83
-3.84
-3.67
-3.27
-2.62
-1.78
-0.90
-0.14
0.36
0.52
0.36
-0.02
-0.51
-1.00
-1.39
-1.65
-1.75
-1.66
-1.39
-1.00
-0.55
-0.15
0.13
0.26
0.29
0.26
0.25
0.25
0.25
0.17
-0.00
-0.26
-0.53
-0.73
-0.82
-0.76
-0.61
-0.42
-0.25
-0.14
-0.15
-0.27
-0.51
-0.80
-1.06
-1.24
-1.28
-1.25
-1.23
-1.28
-1.45
-1.66
-1.84
-1.90
-1.85
-1.71
-1.55
-1.39
-1.19
-0.87
-0.36
0.33
1.11
1.80
2.26
2.40
2.28
2.01
1.70
1.41
1.14
0.83
0.46
0.05
-0.32
-0.58
-0.65
-0.51
-0.19
0.24
0.67
1.01
1.18
1.18
1.05
0.88
0.75
0.67
0.59
0.46
0.23
-0.06
-0.31
-0.43
-0.38
-0.19
0.06
0.25
0.33
0.29
0.19
0.11
0.07
0.05
-0.02
-0.23
-0.60
-1.04
-1.41
-1.58
-1.49
-1.20
-0.85
-0.60
-0.58
-0.81
-1.26
-1.87
-2.54
-3.19
-3.74
-4.10
-4.22
-4.10
-3.80
-3.45
-3.16
-3.00
-2.97
-2.99
-2.98
-2.88
-2.67
-2.34
-1.87
-1.23
-0.38
0.63
1.70
2.68
3.43
3.90
4.13
4.24
4.33
4.44
4.54
4.54
4.37
4.00
3.51
2.96
2.45
2.04
1.77
1.65
1.66
1.75
1.87
1.94
1.92
1.76
1.44
1.01
0.52
0.05
-0.32
-0.56
-0.67
-0.71
-0.73
-0.75
-0.76
-0.71
-0.55
-0.30
-0.02
0.24
0.42
0.50
0.47
0.36
0.22
0.06
-0.10
-0.24
-0.38
-0.51
-0.58
-0.53
-0.33
0.02
0.38
0.55
0.37
-0.23
-1.11
-2.04
-2.74
-3.05
-2.96
-2.58
-2.11
-1.71
-1.50
-1.57
-1.98
-2.73
-3.77
-4.94
-6.05
-6.90
-7.39
-7.56
-7.54
-7.49
-7.52
-7.61
-7.65
-7.49
-7.01
-6.16
-4.95
-3.42
-1.64
0.28
2.18
3.85
5.14
6.02
6.61
7.16
7.93
9.03
10.35
11.57
12.32
12.31
11.52
10.18
8.69
7.40
6.44
5.67
4.77
3.39
1.44
-0.90
-3.19
-4.96
-5.89
-5.95
-5.38
-4.50
-3.60
-2.77
-2.04
-1.39
-0.89
-0.67
-0.86
-1.43
-2.24
-3.01
-3.52
-3.66
-3.53
-3.32
-3.24
-3.40
-3.72
-4.03
-4.09
-3.71
-2.86
-1.62
-0.15
1.35
2.72
3.88
4.81
5.52
6.02
6.30
6.35
6.18
5.85
5.42
4.97
4.51
4.03
3.50
2.91
2.31
1.79
1.43
1.29
1.33
1.45
1.49
1.31
0.85
0.14
-0.73
-1.59
-2.30
-2.76
-2.96
-2.92
-2.72
-2.41
-2.02
-1.61
-1.25
-1.01
-0.94
-1.00
-1.08
-1.03
-0.76
-0.28
0.30
0.86
1.27
1.50
1.56
1.50
1.35
1.13
0.86
0.59
0.37
0.31
0.44
0.77
1.21
1.63
1.92
2.01
1.90
1.66
1.36
1.10
0.92
0.82
0.78
0.73
0.66
0.56
0.43
0.33
0.26
0.20
0.11
-0.08
-0.38
-0.75
-1.09
-1.28
-1.27
-1.06
-0.74
-0.45
-0.26
-0.18
-0.15
-0.08
0.06
0.25
0.38
0.35
0.13
-0.23
-0.58
-0.77
-0.77
-0.66
-0.59
-0.69
-0.98
-1.35
-1.61
-1.65
-1.46
-1.15
-0.87
-0.72
-0.69
-0.69
-0.63
-0.49
-0.31
-0.15
-0.05
0.06
0.21
0.43
0.63
0.71
0.58
0.24
-0.19
-0.56
-0.76
-0.78
-0.64
-0.44
-0.25
-0.10
-0.00
0.04
0.01
-0.07
-0.18
-0.23
-0.18
-0.01
0.20
0.40
0.52
0.57
0.56
0.55
0.56
0.59
0.61
0.62
0.61
0.63
0.68
0.78
0.87
0.90
0.78
0.47
0.01
-0.47
-0.81
-0.84
-0.56
-0.06
0.44
0.75
0.79
0.61
0.35
0.13
0.03
0.02
0.05
0.11
0.22
0.43
0.70
0.98
1.15
1.18
1.09
0.98
0.96
1.08
1.30
1.51
1.61
1.52
1.30
1.06
0.95
1.02
1.25
1.51
1.62
1.47
1.08
0.61
0.22
0.03
0.04
0.12
0.11
-0.04
-0.34
-0.69
-1.00
-1.23
-1.36
-1.39
-1.32
-1.14
-0.86
-0.57
-0.35
-0.32
-0.53
-0.95
-1.53
-2.14
-2.68
-3.05
-3.16
-3.00
-2.57
-1.94
-1.23
-0.56
-0.03
0.31
0.44
0.38
0.19
-0.07
-0.33
-0.55
-0.68
-0.74
-0.78
-0.83
-0.91
-0.99
-0.99
-0.87
-0.58
-0.17
0.29
0.68
0.92
1.00
0.95
0.81
0.63
0.40
0.11
-0.21
-0.50
-0.66
-0.64
-0.44
-0.19
-0.04
-0.09
-0.35
-0.70
-1.01
-1.16
-1.14
-1.03
-0.92
-0.89
-0.95
-1.09
-1.26
-1.44
-1.64
-1.88
-2.14
-2.38
-2.52
-2.47
-2.18
-1.71
-1.19
-0.79
-0.64
-0.76
-1.06
-1.41
-1.66
-1.73
-1.65
-1.47
-1.29
-1.15
-1.07
-1.02
-0.99
-0.97
-0.94
-0.87
-0.76
-0.60
-0.39
-0.19
-0.04
0.01
-0.07
-0.26
-0.52
-0.76
-0.92
-0.93
-0.80
-0.60
-0.40
-0.25
-0.18
-0.17
-0.16
-0.11
-0.01
0.13
0.25
0.32
0.35
0.33
0.27
0.17
0.01
-0.23
-0.52
-0.80
-1.00
-1.08
-1.05
-0.97
-0.93
-0.96
-1.06
-1.14
-1.10
-0.84
-0.32
0.43
1.32
2.25
3.06
3.66
3.99
4.05
3.94
3.77
3.63
3.52
3.39
3.12
2.66
2.01
1.30
0.68
0.25
0.00
-0.13
-0.27
-0.47
-0.68
-0.84
-0.85
-0.70
-0.45
-0.16
0.10
0.32
0.49
0.62
0.66
0.56
0.33
0.03
-0.23
-0.38
-0.40
-0.39
-0.47
-0.71
-1.07
-1.43
-1.67
-1.73
-1.66
-1.60
-1.64
-1.82
-2.10
-2.37
-2.51
-2.51
-2.38
-2.17
-1.92
-1.65
-1.34
-1.00
-0.65
-0.32
-0.07
0.08
0.13
0.11
0.10
0.15
0.31
0.58
0.90
1.17
1.32
1.33
1.25
1.17
1.12
1.10
1.02
0.81
0.45
0.04
-0.30
-0.44
-0.37
-0.14
0.12
0.32
0.45
0.54
0.61
0.68
0.68
0.57
0.38
0.17
0.05
0.06
0.19
0.34
0.40
0.33
0.14
-0.10
-0.30
-0.42
-0.47
-0.48
-0.47
-0.50
-0.55
-0.61
-0.66
-0.64
-0.54
-0.38
-0.19
-0.02
0.11
0.20
0.26
0.29
0.25
0.15
0.00
-0.11
-0.11
0.06
0.39
0.81
1.24
1.63
1.98
2.33
2.72
3.19
3.74
4.30
4.79
5.11
5.13
4.83
4.26
3.53
2.84
2.31
2.01
1.88
1.81
1.69
1.48
1.23
1.03
0.98
1.11
1.35
1.59
1.70
1.57
1.14
0.46
-0.38
-1.27
-2.09
-2.77
-3.31
-3.77
-4.26
-4.85
-5.57
-6.32
-6.91
-7.17
-6.95
-6.27
-5.25
-4.10
-2.98
-2.02
-1.22
-0.54
0.03
0.47
0.73
0.71
0.39
-0.14
-0.72
-1.15
-1.32
-1.20
-0.89
-0.52
-0.18
0.14
0.51
0.98
1.57
2.18
2.61
2.68
2.24
1.30
-0.04
-1.53
-2.92
-3.96
-4.53
-4.65
-4.43
-4.05
-3.70
-3.46
-3.35
-3.30
-3.23
-3.09
-2.91
-2.74
-2.65
-2.66
-2.75
-2.79
-2.68
-2.33
-1.77
-1.12
-0.50
0.01
0.41
0.77
1.14
1.54
1.95
2.31
2.62
2.92
3.28
3.78
4.36
4.88
5.15
5.09
4.70
4.10
3.47
2.98
2.69
2.53
2.38
2.16
1.84
1.45
0.99
0.47
-0.13
-0.81
-1.58
-2.43
-3.18
-3.66
-3.86
-3.90
-4.00
-4.30
-4.79
-5.36
-5.82
-5.84
-5.20
-3.99
-2.50
-1.07
0.15
1.18
2.19
3.34
5.10
7.80
11.53
16.01
20.87
25.76
30.53
35.20
38.02
37.82
34.64
29.69
24.23
18.92
13.83
8.98
4.57
0.85
-1.73
-3.10
-3.64
-4.01
-4.72
-5.73
-6.99
-8.41
-10.04
-11.87
-13.98
-16.45
-19.32
-22.28
-24.71
-25.92
-25.38
-23.04
-19.19
-14.47
-9.27
-4.39
-0.31
2.98
5.87
8.83
12.06
15.41
18.37
20.06
19.52
16.16
9.94
1.44
-8.39
-18.45
-27.74
-35.30
-40.48
-42.98
-42.94
-41.08
-38.63
-37.09
-37.59
-40.31
-42.56
-41.17
-34.52
-24.07
-13.80
-7.71
-8.05
-13.95
-23.09
-32.46
-39.25
-41.76
-38.52
-29.24
-14.42
4.70
26.16
47.27
65.32
78.49
86.01
88.34
86.82
83.34
79.72
77.18
76.02
72.77
65.24
53.32
39.16
25.38
13.71
4.67
-1.99
-6.87
-10.45
-12.44
-12.84
-11.89
-10.23
-8.62
-7.58
-7.30
-7.67
-8.35
-8.60
-7.88
-6.06
-3.54
-0.90
1.33
2.89
3.79
4.28
5.02
6.52
9.01
12.29
15.88
19.25
22.00
23.94
25.09
25.80
26.37
27.01
27.59
27.73
26.89
24.52
20.21
13.87
5.86
-3.09
-12.01
-19.85
-25.71
-29.02
-29.64
-27.93
-24.65
-20.72
-16.98
-14.00
-12.02
-11.03
-10.89
-11.47
-12.61
-14.07
-15.48
-16.41
-16.51
-15.69
-14.18
-12.41
-10.82
-9.61
-8.69
-7.81
-6.69
-5.21
-3.39
-1.39
0.60
2.29
3.25
2.99
1.07
-2.61
-7.66
-13.21
-18.19
-21.71
-23.45
-23.70
-23.14
-22.51
-22.22
-22.27
-22.36
-22.15
-21.50
-20.50
-19.44
-18.58
-18.00
-17.60
-17.19
-16.61
-15.86
-15.03
-14.18
-13.27
-12.13
-10.56
-8.44
-5.89
-3.21
-0.79
1.01
1.99
2.14
1.55
0.45
-0.93
-2.42
-3.88
-5.27
-6.58
-7.78
-8.73
-9.24
-9.07
-8.07
-6.28
-3.91
-1.36
0.93
2.61
3.45
3.43
2.69
1.47
0.02
-1.41
-2.68
-3.70
-4.38
-4.68
-4.51
-3.85
-2.76
-1.44
-0.19
0.64
0.86
0.45
-0.37
-1.29
-2.08
-2.70
-3.40
-4.50
-6.20
-8.37
-10.46
-11.76
-11.66
-9.97
-7.04
-3.60
-0.47
1.75
2.84
2.95
2.43
1.59
0.64
-0.39
-1.58
-3.12
-5.28
-8.35
-12.54
-17.78
-23.51
-28.66
-31.89
-32.09
-28.90
-22.94
-15.67
-8.82
-3.67
-0.66
0.65
1.19
1.83
3.03
4.81
6.99
9.46
12.33
15.79
19.91
24.50
29.12
33.30
36.77
39.53
41.82
43.88
45.82
47.46
48.45
48.36
46.90
44.04
39.96
35.03
29.65
24.20
18.95
14.07
9.57
5.44
1.61
-1.91
-5.05
-7.61
-9.39
-10.21
-10.04
-9.01
-7.40
-5.51
-3.63
-1.91
-0.38
1.03
2.36
3.62
4.71
5.48
5.75
5.42
4.52
3.18
1.63
0.09
-1.26
-2.33
-3.06
-3.47
-3.59
-3.46
-3.16
-2.82
-2.60
-2.64
-3.05
-3.82
-4.82
-5.84
-6.68
-7.18
-7.29
-7.05
-6.52
-5.75
-4.75
-3.52
-2.09
-0.60
0.76
1.72
2.14
2.03
1.55
0.95
0.44
0.08
-0.19
-0.47
-0.84
-1.27
-1.70
-2.07
-2.41
-2.79
-3.25
-3.76
-4.18
-4.36
-4.22
-3.79
-3.22
-2.68
-2.27
-1.95
-1.61
-1.10
-0.35
0.59
1.59
2.53
3.32
3.95
4.48
4.90
5.19
5.30
5.21
4.99
4.73
4.47
4.18
3.79
3.20
2.45
1.68
1.11
0.88
0.99
1.29
1.53
1.47
1.02
0.23
-0.68
-1.48
-1.97
-2.11
-2.01
-1.86
-1.84
-2.00
-2.30
-2.60
-2.77
-2.77
-2.61
-2.37
-2.10
-1.86
-1.64
-1.43
-1.22
-1.01
-0.82
-0.71
-0.78
-1.12
-1.74
-2.53
-3.23
-3.60
-3.52
-3.10
-2.63
-2.38
-2.53
-3.00
-3.58
-4.05
-4.31
-4.41
-4.47
-4.57
-4.67
-4.63
-4.35
-3.82
-3.20
-2.73
-2.61
-2.90
-3.48
-4.16
-4.75
-5.15
-5.41
-5.61
-5.83
-6.02
-6.07
-5.86
-5.29
-4.42
-3.37
-2.31
-1.34
-0.52
0.19
0.84
1.47
2.05
2.55
2.91
3.13
3.25
3.35
3.52
3.83
4.35
5.09
6.00
6.94
7.73
8.14
8.03
7.42
6.47
5.44
4.54
3.83
3.24
2.66
2.04
1.46
1.08
1.06
1.46
2.25
3.32
4.55
5.84
7.08
8.14
8.89
9.26
9.35
9.32
9.40
9.65
9.98
10.15
9.95
9.32
8.39
7.40
6.56
5.93
5.46
5.03
4.61
4.25
3.99
3.81
3.61
3.26
2.64
1.76
0.69
-0.46
-1.63
-2.82
-4.07
-5.30
-6.38
-7.17
-7.58
-7.62
-7.40
-7.07
-6.73
-6.45
-6.13
-5.70
-5.13
-4.49
-3.89
-3.40
-3.05
-2.82
-2.71
-2.61
-2.41
-2.10
-1.71
-1.28
-0.83
-0.34
0.13
0.43
0.62
0.82
1.12
1.61
2.36
3.48
5.03
6.92
8.87
10.80
12.65
14.34
15.85
17.36
19.33
22.21
26.29
29.43
29.74
26.31
19.66
10.87
0.96
-9.11
-18.29
-25.48
-29.93
-31.21
-29.59
-26.06
-21.88
-18.05
-14.97
-12.50
-10.28
-8.27
-6.43
-4.86
-3.75
-3.21
-3.20
-3.40
-3.25
-1.87
1.11
5.86
11.91
18.03
22.55
23.93
21.37
14.59
5.10
-5.42
-15.36
-23.56
-29.41
-32.66
-33.30
-31.48
-27.82
-22.49
-16.24
-9.92
-4.30
0.03
2.77
3.99
4.17
4.04
4.43
5.69
7.66
9.72
11.01
10.95
9.57
7.51
5.70
4.86
4.98
5.45
5.46
4.50
2.78
1.10
0.42
1.17
3.10
5.20
6.30
5.66
3.38
0.33
-2.19
-3.16
-2.41
-0.68
0.78
0.94
-0.47
-2.91
-5.35
-6.73
-6.53
-4.94
-2.59
-0.12
2.03
3.44
3.59
1.19
-4.36
-11.36
-16.25
-15.89
-9.57
0.40
9.81
14.70
13.76
8.85
3.26
-0.04
0.20
3.13
6.57
8.34
7.17
3.32
-1.70
-6.02
-7.88
-6.00
0.15
10.22
22.89
35.75
46.43
53.16
54.99
51.92
44.73
34.86
24.07
14.01
5.39
-1.31
-6.09
-9.77
-13.67
-19.07
-26.74
-36.97
-49.74
-65.26
-82.19
-97.63
-108.08
-110.84
-105.21
-93.04
-78.16
-59.86
-40.96
-24.35
-10.22
3.26
16.93
29.31
38.00
41.61
40.15
34.49
27.14
21.01
18.00
18.19
20.71
23.89
25.99
25.92
23.24
19.01
14.82
11.44
8.41
4.76
0.17
-4.28
-6.35
-4.09
3.39
14.97
27.64
37.75
42.66
41.66
35.90
27.39
17.75
8.00
-1.45
-10.34
-18.12
-23.75
-26.11
-24.56
-19.43
-12.20
-4.86
0.71
3.46
3.49
1.86
-0.03
-1.14
-1.20
-0.65
-0.16
-0.12
-0.33
-0.26
0.58
2.17
3.91
4.94
4.65
3.11
1.05
-0.48
-0.69
0.54
2.62
4.58
5.54
5.09
3.36
0.83
-1.97
-4.68
-7.20
-9.55
-11.78
-13.86
-15.73
-17.27
-18.50
-19.57
-20.77
-22.45
-24.83
-27.93
-31.38
-34.55
-36.62
-36.83
-34.74
-30.27
-23.77
-15.86
-7.28
1.18
8.82
15.08
19.61
22.35
23.53
23.57
22.89
21.75
20.22
18.24
15.82
13.12
10.49
8.33
6.95
6.41
6.63
7.45
8.74
10.46
12.57
15.00
17.61
20.19
22.57
24.65
26.44
28.04
29.56
31.01
32.29
33.12
33.17
32.14
29.97
26.85
23.20
19.47
16.02
13.00
10.37
8.04
5.92
4.02
2.38
1.02
-0.13
-1.17
-2.23
-3.39
-4.64
-5.89
-7.04
-7.97
-8.67
-9.14
-9.50
-9.87
-10.36
-10.99
-11.70
-12.36
-12.77
-12.83
-12.50
-11.86
-11.12
-10.43
-9.90
-9.53
-9.21
-8.83
-8.34
-7.80
-7.34
-7.14
-7.26
-7.69
-8.25
-8.76
-9.05
-9.04
-8.76
-8.33
-7.88
-7.51
-7.27
-7.16
-7.12
-7.08
-6.94
-6.65
-6.19
-5.63
-5.07
-4.63
-4.44
-4.61
-5.24
-6.34
-7.82
-9.50
-11.09
-12.23
-12.62
-12.04
-10.41
-7.75
-4.19
0.05
4.68
9.35
13.69
17.40
20.34
22.54
24.17
25.44
26.45
27.20
27.57
27.47
26.86
25.88
24.70
23.54
22.46
21.40
20.19
18.62
16.54
13.89
10.74
7.23
3.53
-0.15
-3.57
-6.48
-8.71
-10.22
-11.13
-11.69
-12.15
-12.64
-13.11
-13.42
-13.40
-13.09
-12.73
-12.70
-13.32
-14.71
-16.66
-18.75
-20.50
-21.47
-21.40
-20.29
-18.36
-16.00
-13.60
-11.49
-9.81
-8.48
-7.18
-5.63
-3.81
-2.03
-0.75
-0.39
-1.16
-2.94
-5.40
-7.84
-9.67
-10.63
-10.81
-10.41
-9.65
-8.64
-7.46
-6.10
-4.28
-1.74
1.36
4.56
7.35
9.46
10.88
11.78
12.44
13.60
15.82
19.21
23.39
27.88
32.42
36.88
41.23
42.72
39.54
32.23
23.35
15.20
8.69
3.80
0.13
-2.84
-5.52
-7.83
-9.58
-10.78
-11.63
-12.21
-12.38
-12.09
-11.54
-11.20
-11.31
-11.93
-12.96
-14.16
-15.27
-15.90
-15.87
-15.32
-14.46
-13.25
-11.45
-9.00
-6.14
-3.40
-1.41
-0.67
-1.28
-2.88
-4.70
-5.96
-6.33
-6.04
-5.65
-5.65
-6.18
-6.98
-7.50
-7.33
-6.39
-5.00
-3.62
-2.69
-2.38
-2.60
-2.87
-2.78
-2.23
-1.38
-0.49
0.26
0.86
1.25
1.40
1.61
2.06
2.68
3.36
4.09
5.03
6.42
8.36
10.73
13.65
17.14
21.01
25.01
28.96
32.82
36.51
39.87
40.25
36.33
29.00
20.40
12.15
4.66
-2.13
-8.33
-13.74
-18.10
-20.81
-21.50
-20.90
-19.50
-17.95
-16.72
-16.15
-16.33
-17.32
-18.68
-19.87
-20.59
-20.79
-20.76
-19.95
-18.22
-14.53
-9.21
-3.51
1.16
4.28
6.53
9.13
13.05
18.10
22.90
25.37
24.11
19.18
12.14
5.38
0.94
-0.17
1.63
5.05
8.52
11.02
12.10
11.50
8.80
3.50
-4.33
-13.54
-21.93
-27.06
-27.40
-23.22
-16.56
-10.19
-6.17
-4.92
-5.36
-5.91
-5.69
-4.96
-4.73
-5.84
-8.20
-10.79
-12.30
-11.92
-9.81
-7.11
-4.98
-4.20
-4.78
-5.99
-6.78
-6.36
-4.59
-2.05
0.18
1.12
0.30
-1.94
-4.59
-6.41
-6.42
-4.30
-0.48
4.10
8.44
11.86
14.16
15.51
16.13
16.08
15.21
13.39
10.75
7.68
4.80
2.69
1.73
2.07
3.63
6.11
8.95
11.41
12.72
12.37
10.40
7.42
4.42
2.23
1.20
1.09
1.36
1.30
0.66
-0.39
-1.42
-2.06
-2.18
-1.93
-1.55
-1.18
-0.79
-0.19
0.73
1.89
2.94
3.51
3.36
2.56
1.47
0.52
0.06
0.16
0.60
1.09
1.36
1.30
1.03
0.76
0.72
1.11
2.02
3.39
5.05
6.74
8.19
9.17
9.59
9.46
8.90
8.03
6.97
5.82
4.63
3.47
2.36
1.31
0.29
-0.72
-1.70
-2.62
-3.42
-4.10
-4.68
-5.26
-5.92
-6.71
-7.63
-8.58
-9.47
-10.21
-10.79
-11.21
-11.49
-11.60
-11.48
-11.10
-10.50
-9.78
-9.06
-8.43
-7.88
-7.33
-6.74
-6.08
-5.43
-4.86
-4.43
-4.12
-3.85
-3.56
-3.24
-2.94
-2.71
-2.56
-2.44
-2.25
-1.96
-1.54
-1.06
-0.58
-0.16
0.20
0.54
0.94
1.46
2.09
2.75
3.31
3.63
3.63
3.36
2.98
2.72
2.78
3.21
3.91
4.67
5.28
5.62
5.68
5.56
5.39
5.30
5.38
5.69
6.23
6.93
7.68
8.31
8.74
8.97
9.13
9.35
9.75
10.29
10.83
11.16
11.13
10.68
9.86
8.77
7.53
6.25
5.00
3.84
2.79
1.91
1.19
0.63
0.18
-0.19
-0.53
-0.92
-1.39
-2.00
-2.72
-3.52
-4.32
-5.04
-5.61
-6.05
-6.39
-6.71
-7.06
-7.43
-7.73
-7.85
-7.71
-7.30
-6.72
-6.09
-5.53
-5.07
-4.72
-4.50
-4.47
-4.73
-5.32
-6.18
-7.08
-7.73
-7.89
-7.48
-6.63
-5.57
-4.55
-3.67
-2.95
-2.33
-1.82
-1.48
-1.41
-1.67
-2.18
-2.78
-3.23
-3.41
-3.32
-3.06
-2.81
-2.72
-2.81
-3.00
-3.15
-3.08
-2.72
-2.09
-1.34
-0.69
-0.36
-0.45
-0.90
-1.53
-2.10
-2.42
-2.43
-2.17
-1.75
-1.25
-0.72
-0.18
0.34
0.80
1.17
1.43
1.64
1.85
2.08
2.32
2.49
2.56
2.54
2.51
2.57
2.74
2.98
3.16
3.19
3.09
2.96
2.95
3.15
3.51
3.86
4.01
3.86
3.44
2.89
2.40
2.05
1.80
1.53
1.11
0.51
-0.14
-0.65
-0.82
-0.63
-0.16
0.37
0.75
0.84
0.63
0.16
-0.52
-1.35
-2.31
-3.26
-4.07
-4.57
-4.67
-4.39
-3.88
-3.28
-2.72
-2.19
-1.68
-1.15
-0.66
-0.36
-0.36
-0.70
-1.25
-1.83
-2.24
-2.39
-2.35
-2.26
-2.20
-2.14
-1.91
-1.33
-0.28
1.18
2.83
4.38
5.57
6.28
6.49
6.29
5.79
5.10
4.30
3.43
2.58
1.81
1.22
0.90
0.85
1.01
1.28
1.53
1.71
1.83
1.95
2.08
2.15
1.99
1.47
0.51
-0.77
-2.18
-3.49
-4.56
-5.34
-5.80
-5.97
-5.83
-5.36
-4.59
-3.63
-2.66
-1.85
-1.34
-1.13
-1.15
-1.27
-1.31
-1.18
-0.83
-0.28
0.42
1.17
1.87
2.41
2.70
2.70
2.39
1.88
1.28
0.76
0.39
0.19
0.11
0.09
0.11
0.21
0.42
0.75
1.14
1.46
1.60
1.54
1.34
1.12
0.96
0.87
0.79
0.60
0.27
-0.15
-0.53
-0.74
-0.73
-0.59
-0.48
-0.58
-0.96
-1.56
-2.22
-2.76
-3.03
-2.98
-2.65
-2.10
-1.43
-0.73
-0.07
0.49
0.93
1.21
1.37
1.44
1.46
1.47
1.52
1.63
1.78
1.93
1.98
1.89
1.62
1.24
0.84
0.53
0.35
0.26
0.17
0.02
-0.22
-0.51
-0.77
-0.91
-0.87
-0.62
-0.16
0.48
1.23
1.96
2.54
2.87
2.91
2.75
2.52
2.36
2.33
2.40
2.42
2.28
1.86
1.20
0.43
-0.27
-0.71
-0.79
-0.52
-0.05
0.42
0.70
0.64
0.24
-0.37
-1.03
-1.58
-1.92
-2.04
-2.00
-1.82
-1.56
-1.26
-0.99
-0.81
-0.76
-0.87
-1.07
-1.29
-1.48
-1.57
-1.54
-1.36
-1.04
-0.55
0.05
0.67
1.19
1.52
1.63
1.55
1.36
1.17
1.03
0.99
1.09
1.32
1.64
1.99
2.27
2.37
2.24
1.86
1.27
0.59
-0.06
-0.53
-0.71
-0.61
-0.29
0.06
0.31
0.34
0.17
-0.12
-0.42
-0.65
-0.82
-0.94
-1.04
-1.13
-1.20
-1.24
-1.21
-1.09
-0.84
-0.45
0.03
0.51
0.84
0.92
0.76
0.51
0.37
0.51
0.97
1.64
2.32
2.85
3.16
3.26
3.22
3.08
2.86
2.59
2.36
2.28
2.43
2.79
3.23
3.57
3.67
3.54
3.25
2.92
2.57
2.07
1.30
0.21
-1.07
-2.25
-3.02
-3.21
-2.88
-2.33
-2.00
-2.28
-3.37
-5.15
-7.27
-9.24
-10.64
-11.34
-11.57
-11.78
-12.52
-14.09
-16.43
-19.12
-21.53
-23.19
-24.00
-24.30
-24.76
-26.06
-28.54
-31.97
-35.63
-38.57
-39.99
-39.64
-38.04
-36.43
-36.54
-40.23
-48.91
-63.05
-81.56
-101.55
-118.71
-128.28
-126.58
-112.36
-87.44
-56.14
-23.83
4.85
27.26
42.96
53.07
59.14
62.40
63.52
62.95
61.29
59.40
58.06
57.62
57.74
57.63
56.53
54.23
51.28
48.69
47.43
47.92
49.78
52.05
53.60
53.65
52.00
49.01
45.38
41.80
38.71
36.25
34.24
32.39
30.39
28.07
25.36
22.38
19.32
16.42
13.85
11.72
10.02
8.63
7.43
6.23
4.91
3.41
1.77
0.03
-1.67
-3.23
-4.58
-5.66
-6.42
-6.81
-6.77
-6.22
-5.11
-3.46
-1.33
1.13
3.74
6.30
8.64
10.62
12.19
13.33
14.09
14.50
14.60
14.43
14.03
13.42
12.67
11.83
10.95
10.09
9.25
8.46
7.72
7.00
6.29
5.52
4.66
3.63
2.40
0.94
-0.68
-2.38
-4.04
-5.53
-6.79
-7.79
-8.57
-9.19
-9.70
-10.11
-10.36
-10.41
-10.21
-9.76
-9.11
-8.34
-7.54
-6.80
-6.19
-5.68
-5.25
-4.85
-4.44
-4.00
-3.53
-3.00
-2.36
-1.57
-0.63
0.41
1.47
2.45
3.25
3.81
4.10
4.16
4.06
3.92
3.85
3.91
4.09
4.33
4.55
4.73
4.94
5.34
6.10
7.28
8.83
10.56
12.22
13.54
14.24
14.13
13.06
11.03
8.16
4.79
1.37
-1.66
-3.97
-5.51
-6.46
-7.20
-8.08
-9.33
-10.94
-12.68
-14.21
-15.17
-15.36
-14.75
-13.50
-11.92
-10.32
-8.96
-7.98
-7.40
-7.12
-7.01
-6.91
-6.71
-6.38
-5.93
-5.40
-4.84
-4.29
-3.80
-3.37
-3.04
-2.81
-2.68
-2.59
-2.50
-2.38
-2.25
-2.14
-2.11
-2.18
-2.36
-2.61
-2.88
-3.15
-3.36
-3.48
-3.49
-3.37
-3.17
-2.95
-2.77
-2.66
-2.62
-2.60
-2.54
-2.42
-2.26
-2.11
-2.04
-2.07
-2.18
-2.35
-2.49
-2.55
-2.52
-2.40
-2.22
-1.98
-1.69
-1.34
-0.96
-0.61
-0.37
-0.26
-0.25
-0.25
-0.17
0.01
0.23
0.42
0.48
0.42
0.31
0.24
0.25
0.32
0.39
0.38
0.26
0.03
-0.26
-0.61
-1.01
-1.45
-1.87
-2.21
-2.35
-2.28
-2.03
-1.70
-1.39
-1.16
-0.98
-0.79
-0.54
-0.25
0.01
0.16
0.14
-0.01
-0.23
-0.47
-0.71
-0.95
-1.19
-1.39
-1.52
-1.55
-1.49
-1.42
-1.39
-1.44
-1.54
-1.63
-1.64
-1.55
-1.40
-1.24
-1.09
-0.94
-0.73
-0.43
-0.01
0.47
0.92
1.22
1.33
1.23
0.98
0.68
0.40
0.17
0.01
-0.11
-0.23
-0.36
-0.49
-0.60
-0.67
-0.70
-0.67
-0.63
-0.59
-0.61
-0.70
-0.87
-1.11
-1.39
-1.69
-2.00
-2.32
-2.60
-2.76
-2.72
-2.46
-2.03
-1.60
-1.33
-1.30
-1.46
-1.61
-1.59
-1.32
-0.88
-0.43
-0.11
0.05
0.11
0.14
0.15
0.08
-0.11
-0.39
-0.60
-0.56
-0.18
0.46
1.17
1.70
1.97
2.06
2.18
2.58
3.34
4.42
5.64
6.78
7.69
8.32
8.75
9.11
9.58
10.28
11.26
12.43
13.53
14.22
14.17
13.24
11.54
9.40
7.26
5.49
4.27
3.48
2.84
1.99
0.71
-1.07
-3.24
-5.64
-8.15
-10.77
-13.58
-16.68
-20.02
-23.48
-26.81
-29.78
-32.28
-34.26
-35.73
-36.65
-36.87
-36.22
-34.57
-31.96
-28.61
-24.84
-21.01
-17.35
-13.97
-10.88
-8.04
-5.43
-3.07
-0.95
0.96
2.73
4.48
6.29
8.14
9.98
11.67
13.13
14.35
15.34
16.13
16.67
16.90
16.76
16.25
15.48
14.64
13.91
13.40
13.06
12.76
12.36
11.79
11.10
10.39
9.73
9.13
8.53
7.86
7.12
6.39
5.83
5.56
5.65
6.02
6.52
6.97
7.21
7.21
6.96
6.54
6.04
5.57
5.23
5.11
5.25
5.61
6.08
6.50
6.72
6.66
6.29
5.67
4.84
3.83
2.62
1.11
-0.82
-3.30
-6.43
-10.24
-14.61
-19.25
-23.71
-27.40
-29.76
-30.40
-29.25
-26.60
-22.99
-19.06
-15.32
-12.12
-9.59
-7.74
-6.53
-5.90
-5.77
-5.97
-6.28
-6.48
-6.41
-5.98
-5.18
-4.07
-2.77
-1.35
0.09
1.50
2.84
4.07
5.16
6.03
6.67
7.12
7.52
8.02
8.78
9.79
10.94
12.00
12.79
13.24
13.37
13.33
13.23
13.21
13.31
13.62
14.18
15.02
16.15
17.54
19.13
20.91
22.89
25.15
27.76
30.69
33.79
36.79
39.33
41.15
42.16
42.44
42.15
41.46
40.39
38.82
36.54
33.31
29.01
23.72
17.71
11.46
5.51
0.36
-3.62
-6.30
-7.78
-8.32
-8.31
-8.19
-8.33
-9.00
-10.30
-12.17
-14.43
-16.87
-19.31
-21.66
-23.84
-25.71
-27.10
-27.82
-27.76
-27.00
-25.81
-24.59
-23.64
-23.18
-23.21
-23.62
-24.30
-25.19
-26.24
-27.36
-28.40
-29.12
-29.23
-28.49
-26.72
-23.81
-19.76
-14.74
-9.11
-3.49
1.43
5.07
7.24
8.20
8.52
8.87
9.63
10.88
12.36
13.75
14.81
15.47
15.83
16.07
16.32
16.59
16.79
16.77
16.38
15.59
14.48
13.29
12.33
11.98
12.51
14.04
16.41
19.12
21.41
22.44
21.52
18.27
12.68
5.04
-4.19
-14.47
-25.19
-35.74
-45.58
-54.43
-62.47
-70.28
-78.62
-87.90
-97.79
-107.04
-113.62
-115.33
-110.52
-98.82
-81.40
-60.69
-39.71
-21.14
-6.61
3.54
9.93
13.44
14.61
13.46
9.80
3.90
-3.10
-9.35
-13.06
-13.42
-11.06
-7.79
-5.58
-5.42
-6.78
-7.90
-6.77
-2.34
4.91
13.28
20.75
25.98
28.81
30.03
30.79
31.92
33.55
35.25
36.40
36.46
35.29
33.07
30.26
27.37
24.89
23.08
21.97
21.36
20.94
20.43
19.75
18.95
18.14
17.27
16.09
14.20
11.34
7.55
3.34
-0.48
-3.12
-4.08
-3.37
-1.49
0.81
2.81
4.09
4.64
4.77
4.89
5.27
5.96
6.75
7.31
7.39
6.88
5.91
4.71
3.55
2.67
2.17
2.09
2.34
2.87
3.63
4.61
5.83
7.25
8.71
9.99
10.83
11.12
10.90
10.41
9.92
9.58
9.40
9.24
8.91
8.34
7.59
6.85
6.32
6.12
6.20
6.37
6.40
6.11
5.48
4.63
3.79
3.24
3.16
3.62
4.51
5.63
6.70
7.36
7.25
6.12
3.91
0.91
-2.28
-4.90
-6.24
-5.88
-3.76
-0.21
4.27
9.06
13.53
17.12
19.30
19.72
18.34
15.49
11.89
8.38
5.66
4.07
3.44
3.24
2.85
1.80
-0.07
-2.57
-5.28
-7.67
-9.30
-9.93
-9.69
-8.98
-8.47
-8.82
-10.43
-13.23
-16.66
-19.80
-21.72
-21.73
-19.67
-15.90
-11.13
-6.23
-1.92
1.38
3.62
5.01
5.86
6.37
6.52
6.10
4.86
2.76
0.06
-2.76
-5.21
-7.10
-8.60
-10.14
-12.13
-14.66
-17.43
-19.82
-21.24
-21.34
-20.23
-18.28
-15.95
-13.49
-10.88
-7.92
-4.40
-0.30
4.14
8.46
12.15
14.91
16.67
17.65
18.19
18.61
19.02
19.34
19.35
18.83
17.72
16.12
14.32
12.64
11.30
10.38
9.82
9.47
9.21
8.97
8.73
8.56
8.48
8.47
8.42
8.16
7.55
6.57
5.43
4.51
4.30
5.17
7.24
10.24
13.58
16.48
18.22
18.35
16.78
13.86
10.19
6.46
3.21
0.71
-1.06
-2.34
-3.38
-4.37
-5.37
-6.39
-7.47
-8.73
-10.35
-12.52
-15.38
-18.92
-23.00
-27.27
-31.22
-34.23
-35.78
-35.62
-33.99
-31.55
-29.20
-27.66
-27.17
-27.36
-27.44
-26.55
-24.17
-20.32
-15.49
-10.34
-5.49
-1.31
2.05
4.57
6.32
7.40
7.96
8.26
8.57
9.08
9.85
10.75
11.53
11.95
11.89
11.41
10.75
10.21
10.02
10.23
10.73
11.23
11.39
10.95
9.79
8.02
5.89
3.74
1.90
0.61
-0.06
-0.20
0.04
0.47
1.02
1.72
2.67
4.00
5.77
7.95
10.40
12.93
15.34
17.44
19.09
20.19
20.69
20.59
19.88
18.57
16.73
14.48
12.01
9.51
7.16
5.07
3.25
1.66
0.26
-0.99
-2.10
-3.09
-4.01
-4.92
-5.90
-6.96
-8.06
-9.07
-9.84
-10.25
-10.19
-9.65
-8.67
-7.42
-6.08
-4.87
-3.99
-3.52
-3.42
-3.59
-3.85
-4.04
-4.06
-3.89
-3.58
-3.25
-2.98
-2.86
-2.86
-2.92
-2.92
-2.78
-2.51
-2.21
-2.08
-2.28
-2.89
-3.83
-4.89
-5.79
-6.34
-6.48
-6.28
-5.90
-5.49
-5.17
-4.96
-4.82
-4.69
-4.49
-4.13
-3.59
-2.84
-1.95
-1.01
-0.20
0.37
0.60
0.55
0.34
0.18
0.21
0.45
0.80
1.09
1.18
1.01
0.66
0.24
-0.12
-0.37
-0.54
-0.65
-0.70
-0.67
-0.52
-0.29
-0.07
0.02
-0.07
-0.29
-0.48
-0.52
-0.33
0.05
0.45
0.68
0.59
0.14
-0.64
-1.63
-2.72
-3.77
-4.68
-5.38
-5.81
-5.91
-5.62
-4.84
-3.49
-1.51
1.05
4.02
7.15
10.14
12.80
15.02
16.81
18.25
19.35
20.05
20.21
19.70
18.53
16.82
14.90
13.15
11.94
11.45
11.62
12.12
12.37
11.70
9.57
5.75
0.42
-5.81
-12.11
-17.65
-21.87
-24.62
-26.17
-27.04
-27.71
-28.48
-29.30
-29.89
-29.87
-28.90
-26.83
-23.71
-19.75
-15.22
-10.42
-5.61
-1.02
3.16
6.78
9.74
11.98
13.50
14.29
14.37
13.75
12.48
10.65
8.41
6.00
3.67
1.66
0.16
-0.73
-1.01
-0.72
0.02
1.05
2.16
3.13
3.77
4.01
3.92
3.64
3.33
3.06
2.83
2.54
2.11
1.57
1.00
0.53
0.23
0.10
0.07
0.05
-0.05
-0.24
-0.54
-0.93
-1.40
-1.93
-2.45
-2.88
-3.13
-3.12
-2.79
-2.10
-1.04
0.32
1.87
3.40
4.70
5.61
6.10
6.25
6.23
6.20
6.26
6.38
6.46
6.39
6.06
5.42
4.48
3.27
1.85
0.30
-1.26
-2.67
-3.77
-4.41
-4.56
-4.29
-3.82
-3.38
-3.18
-3.33
-3.76
-4.31
-4.77
-5.01
-4.98
-4.78
-4.52
-4.30
-4.19
-4.15
-4.11
-4.00
-3.75
-3.35
-2.84
-2.31
-1.85
-1.55
-1.38
-1.27
-1.07
-0.68
-0.11
0.53
1.06
1.34
1.35
1.19
1.03
0.97
1.05
1.18
1.24
1.16
0.94
0.67
0.47
0.40
0.47
0.57
0.61
0.47
0.12
-0.38
-0.95
-1.47
-1.87
-2.13
-2.28
-2.34
-2.32
-2.21
-1.98
-1.64
-1.23
-0.81
-0.45
-0.22
-0.10
-0.06
-0.05
-0.05
-0.05
-0.06
-0.04
0.08
0.37
0.88
1.59
2.41
3.18
3.77
4.07
4.06
3.77
3.25
2.57
1.73
0.74
-0.43
-1.78
-3.27
-4.78
-6.11
-7.07
-7.50
-7.38
-6.78
-5.91
-5.00
-4.23
-3.72
-3.47
-3.41
-3.45
-3.48
-3.42
-3.20
-2.84
-2.39
-1.89
-1.36
-0.76
0.05
1.14
2.52
4.05
5.49
6.57
7.14
7.18
6.83
6.33
5.88
5.59
5.47
5.47
5.50
5.47
5.34
5.06
4.60
3.97
3.20
2.38
1.61
0.97
0.49
0.15
-0.11
-0.34
-0.55
-0.71
-0.82
-0.89
-0.96
-1.08
-1.24
-1.37
-1.38
-1.21
-0.88
-0.49
-0.16
0.05
0.14
0.19
0.30
0.48
0.69
0.79
0.70
0.41
-0.01
-0.46
-0.85
-1.18
-1.50
-1.86
-2.25
-2.60
-2.83
-2.85
-2.64
-2.27
-1.83
-1.44
-1.17
-1.06
-1.07
-1.15
-1.24
-1.28
-1.28
-1.26
-1.22
-1.18
-1.14
-1.08
-0.98
-0.87
-0.77
-0.71
-0.71
-0.77
-0.88
-1.00
-1.12
-1.25
-1.39
-1.57
-1.78
-1.99
-2.10
-1.99
-1.54
-0.64
0.70
2.41
4.30
6.12
7.58
8.44
8.57
7.99
6.87
5.43
3.92
2.47
1.11
-0.18
-1.35
-2.27
-2.75
-2.63
-1.95
-0.98
-0.18
-0.00
-0.71
-2.14
-3.81
-5.03
-5.26
-4.30
-2.40
-0.15
1.65
2.11
0.45
-3.77
-10.31
-18.06
-25.03
-28.90
-27.80
-21.08
-9.65
4.39
18.51
30.64
39.57
45.00
47.07
46.08
42.29
36.13
28.31
19.81
11.64
4.45
-1.60
-6.78
-11.41
-15.53
-18.68
-20.01
-18.65
-14.12
-6.63
2.95
13.30
23.01
30.88
36.15
38.55
38.24
35.70
31.53
26.32
20.51
14.34
7.91
1.32
-5.18
-11.13
-16.01
-19.28
-20.60
-20.11
-18.57
-17.19
-17.15
-18.91
-21.91
-24.81
-26.10
-25.05
-22.37
-20.09
-20.67
-25.86
-35.70
-48.47
-61.39
-71.43
-76.25
-74.91
-68.00
-57.29
-45.14
-33.62
-24.05
-17.05
-12.38
-9.34
-7.22
-5.67
-4.56
-3.94
-3.80
-2.04
2.53
9.90
18.90
28.18
36.77
44.22
50.32
55.37
59.44
62.24
63.68
64.10
64.35
64.68
65.52
66.82
67.69
66.22
59.70
45.87
24.04
-4.05
-34.35
-61.51
-80.65
-88.98
-86.54
-75.79
-59.95
-41.51
-21.67
-1.05
19.14
36.09
45.87
45.00
32.37
10.51
-15.00
-37.59
-51.70
-54.21
-44.61
-24.60
2.17
30.02
51.32
57.85
43.89
9.76
-36.46
-80.88
-109.29
-113.23
-93.64
-59.78
-24.22
3.26
19.16
25.81
27.79
28.26
27.56
24.57
19.05
13.04
10.18
13.61
23.87
38.33
52.15
60.51
60.84
53.56
41.66
29.43
20.81
18.02
20.85
26.24
30.16
29.45
22.99
11.70
-2.11
-15.43
-25.12
-28.08
-22.45
-6.93
18.61
51.86
87.06
115.54
128.21
118.90
87.02
36.80
-22.79
-80.77
-127.88
-159.27
-175.06
-178.66
-174.47
-158.64
-131.60
-100.21
-75.60
-66.20
-72.48
-87.10
-98.05
-93.64
-67.49
-22.66
31.19
82.49
122.27
146.65
156.02
153.16
141.18
122.54
98.46
70.96
44.16
20.93
4.22
-4.66
-6.14
-1.79
6.23
14.73
20.78
22.32
18.82
12.04
4.76
-0.44
-2.43
-1.59
0.65
2.94
4.75
6.23
7.97
10.00
11.84
12.92
13.20
13.14
13.58
15.33
18.70
23.30
27.83
30.54
29.51
23.66
13.32
0.53
-11.27
-18.33
-17.89
-9.51
4.67
20.70
34.57
43.69
47.65
47.82
46.00
43.23
39.17
32.71
23.06
10.76
-2.46
-14.50
-24.13
-31.61
-38.34
-45.95
-55.14
-65.26
-74.60
-81.27
-84.00
-82.51
-77.35
-69.44
-59.67
-48.77
-37.44
-26.45
-16.67
-8.79
-3.00
1.14
4.52
8.00
11.90
15.70
18.13
17.75
13.54
5.55
-5.04
-16.19
-25.58
-31.32
-32.53
-29.51
-23.62
-16.84
-11.10
-7.67
-6.78
-7.66
-8.99
-9.52
-8.55
-6.18
-3.20
-0.76
0.02
-1.49
-5.29
-10.69
-16.55
-21.53
-24.32
-24.12
-20.97
-15.89
-10.63
-7.21
-7.27
-11.48
-19.14
-28.17
-35.86
-39.87
-38.99
-33.57
-25.22
-16.25
-8.71
-3.62
-0.51
2.04
5.55
10.86
17.83
25.66
33.38
40.92
47.64
53.13
57.24
59.51
58.95
54.71
47.00
37.69
28.48
20.84
15.57
12.47
10.58
8.76
6.38
3.86
1.83
0.80
0.94
2.07
3.64
4.91
5.18
4.15
2.02
-0.63
-3.15
-4.96
-5.83
-5.88
-5.56
-5.43
-5.80
-6.56
-7.26
-7.49
-7.10
-6.29
-5.46
-5.00
-5.28
-6.29
-7.57
-8.22
-7.31
-4.16
1.39
8.95
17.56
25.47
30.61
31.30
26.84
17.77
5.74
-6.71
-16.76
-21.22
-17.90
-7.61
5.78
17.93
26.34
30.51
31.17
29.47
27.13
24.25
20.81
17.19
14.06
11.90
10.55
9.36
7.59
4.64
0.22
-5.30
-11.08
-16.17
-20.08
-23.10
-26.14
-30.24
-34.68
-38.68
-41.51
-42.67
-41.71
-38.08
-31.36
-21.63
-9.78
2.36
12.18
17.39
16.92
11.40
2.88
-6.16
-13.94
-19.35
-22.09
-22.58
-21.31
-18.59
-14.66
-9.95
-5.36
-2.05
-0.90
-2.09
-4.96
-8.18
-10.39
-10.72
-9.47
-7.94
-7.70
-9.42
-12.31
-14.43
-13.59
-8.49
0.65
12.31
24.50
35.57
44.70
51.54
55.79
56.99
54.71
49.05
40.91
31.80
23.33
16.61
11.87
8.64
6.14
3.81
1.55
-0.36
-1.50
-1.56
-0.55
1.17
2.93
4.03
3.93
2.39
-0.41
-3.96
-7.50
-10.20
-11.41
-10.80
-8.50
-5.09
-1.40
1.70
3.59
4.09
3.44
2.15
0.74
-0.42
-1.21
-1.69
-2.06
-2.51
-3.20
-4.20
-5.46
-6.79
-7.93
-8.60
-8.63
-8.05
-7.11
-6.18
-5.72
-6.04
-7.12
-8.62
-9.89
-10.23
-9.21
-6.86
-3.70
-0.51
2.08
3.80
4.87
5.73
6.80
8.17
9.64
10.88
11.60
11.73
11.39
10.73
9.84
8.68
7.18
5.33
3.24
1.19
-0.54
-1.71
-2.28
-2.35
-2.16
-1.95
-1.89
-2.06
-2.41
-2.89
-3.43
-3.99
-4.48
-4.81
-4.87
-4.61
-4.11
-3.56
-3.17
-3.06
-3.16
-3.23
-3.02
-2.41
-1.47
-0.47
0.34
0.80
0.93
0.88
0.79
0.74
0.72
0.62
0.39
0.01
-0.47
-0.92
-1.22
-1.24
-0.92
-0.30
0.48
1.17
1.57
1.52
1.03
0.23
-0.69
-1.52
-2.09
-2.30
-2.10
-1.46
-0.44
0.77
1.88
2.49
2.34
1.42
0.08
-1.18
-1.90
-1.92
-1.42
-0.82
-0.50
-0.58
-0.93
-1.26
-1.34
-1.10
-0.66
-0.14
0.39
0.94
1.54
2.17
2.70
2.99
2.89
2.38
1.54
0.60
-0.23
-0.74
-0.84
-0.56
-0.08
0.38
0.61
0.52
0.16
-0.29
-0.63
-0.75
-0.65
-0.44
-0.28
-0.24
-0.30
-0.36
-0.29
-0.07
0.22
0.38
0.25
-0.22
-0.95
-1.73
-2.37
-2.73
-2.80
-2.63
-2.36
-2.06
-1.78
-1.47
-1.07
-0.50
0.24
1.05
1.79
2.29
2.47
2.33
1.96
1.47
0.93
0.36
-0.25
-0.89
-1.45
-1.79
-1.80
-1.52
-1.06
-0.58
-0.21
0.03
0.19
0.30
0.36
0.30
0.08
-0.31
-0.74
-1.07
-1.17
-1.02
-0.72
-0.45
-0.37
-0.52
-0.79
-0.99
-0.92
-0.52
0.12
0.70
0.96
0.73
0.06
-0.85
-1.71
-2.32
-2.60
-2.59
-2.38
-2.02
-1.55
-1.00
-0.47
-0.10
-0.02
-0.23
-0.60
-0.92
-1.00
-0.77
-0.30
0.27
0.78
1.15
1.39
1.55
1.65
1.67
1.54
1.23
0.79
0.31
-0.07
-0.26
-0.25
-0.12
0.01
0.10
0.12
0.12
0.16
0.27
0.42
0.61
0.79
0.98
1.13
1.21
1.14
0.86
0.38
-0.26
-0.91
-1.44
-1.75
-1.79
-1.59
-1.18
-0.64
-0.06
0.48
0.88
1.09
1.13
1.03
0.87
0.67
0.45
0.18
-0.13
-0.43
-0.67
-0.80
-0.82
-0.75
-0.61
-0.39
-0.04
0.40
0.84
1.11
1.06
0.63
-0.05
-0.76
-1.24
-1.39
-1.27
-1.04
-0.83
-0.66
-0.42
-0.01
0.58
1.24
1.77
2.01
1.97
1.75
1.53
1.41
1.37
1.34
1.19
0.90
0.53
0.19
-0.00
-0.03
0.07
0.18
0.21
0.12
-0.06
-0.23
-0.28
-0.16
0.11
0.47
0.81
1.05
1.13
1.06
0.86
0.58
0.27
-0.00
-0.17
-0.16
0.04
0.41
0.84
1.20
1.35
1.24
0.88
0.39
-0.08
-0.38
-0.41
-0.18
0.27
0.82
1.34
1.68
1.73
1.47
0.96
0.40
0.01
-0.03
0.30
0.91
1.61
2.24
2.69
2.97
3.09
3.07
2.88
2.50
1.94
1.27
0.65
0.21
0.01
0.02
0.13
0.19
0.12
-0.10
-0.41
-0.75
-1.07
-1.38
-1.70
-2.07
-2.50
-2.93
-3.32
-3.66
-3.92
-4.11
-4.19
-4.08
-3.70
-3.02
-2.14
-1.24
-0.56
-0.24
-0.29
-0.59
-0.90
-1.05
-0.97
-0.76
-0.56
-0.48
-0.52
-0.53
-0.35
0.12
0.79
1.50
2.06
2.37
2.43
2.33
2.17
2.01
1.88
1.84
1.95
2.25
2.71
3.17
3.42
3.27
2.64
1.59
0.25
-1.24
-2.78
-4.27
-5.57
-6.50
-6.90
-6.75
-6.16
-5.36
-4.54
-3.77
-2.98
-2.10
-1.14
-0.29
0.22
0.25
-0.12
-0.58
-0.78
-0.52
0.15
0.96
1.59
1.92
2.09
2.39
3.08
4.20
5.45
6.41
6.67
6.09
4.83
3.22
1.61
0.23
-0.81
-1.45
-1.59
-1.13
-0.02
1.58
3.27
4.53
4.96
4.43
3.15
1.61
0.32
-0.34
-0.27
0.34
1.10
1.64
1.70
1.25
0.46
-0.42
-1.15
-1.58
-1.71
-1.64
-1.45
-1.26
-1.12
-1.04
-1.02
-1.07
-1.15
-1.25
-1.39
-1.59
-1.91
-2.41
-3.12
-3.98
-4.88
-5.59
-5.89
-5.61
-4.73
-3.38
-1.89
-0.59
0.22
0.43
0.12
-0.52
-1.25
-1.84
-2.20
-2.22
-1.81
-0.92
0.46
2.24
4.20
6.02
7.35
7.91
7.60
6.57
5.18
3.90
3.17
3.27
4.25
5.87
7.71
9.24
10.03
9.87
8.92
7.62
6.48
5.82
5.51
4.90
3.12
-0.53
-6.11
-12.84
-19.35
-24.18
-26.40
-25.91
-23.44
-20.16
-17.18
-15.17
-14.33
-14.50
-15.33
-16.29
-16.58
-15.22
-11.41
-4.95
3.34
11.85
18.67
22.50
23.14
21.53
19.16
17.36
16.78
17.26
18.09
18.44
17.62
15.35
11.77
7.40
3.02
-0.52
-2.63
-3.10
-2.16
-0.31
1.87
3.90
5.42
6.15
6.01
5.05
3.54
1.97
0.78
0.22
0.15
0.19
-0.18
-1.24
-2.99
-5.02
-6.81
-7.87
-7.98
-7.21
-5.87
-4.32
-2.87
-1.74
-1.03
-0.77
-0.95
-1.46
-2.12
-2.71
-3.05
-3.09
-2.94
-2.82
-3.00
-3.63
-4.66
-5.85
-6.84
-7.29
-7.02
-6.04
-4.55
-2.83
-1.12
0.45
1.88
3.24
4.60
5.97
7.28
8.38
9.03
9.01
8.22
6.70
4.71
2.52
0.37
-1.64
-3.53
-5.30
-6.82
-7.80
-7.98
-7.23
-5.70
-3.75
-1.82
-0.26
0.74
1.15
1.02
0.45
-0.41
-1.37
-2.28
-3.08
-3.86
-4.74
-5.82
-6.99
-7.98
-8.46
-8.25
-7.41
-6.27
-5.20
-4.48
-4.09
-3.78
-3.22
-2.15
-0.59
1.14
2.53
3.08
2.60
1.25
-0.46
-1.88
-2.50
-2.14
-0.96
0.63
2.19
3.42
4.22
4.66
4.87
4.92
4.88
4.74
4.56
4.41
4.37
4.42
4.50
4.53
4.53
4.65
5.09
5.99
7.33
8.87
10.27
11.24
11.67
11.67
11.45
11.15
10.79
10.20
9.21
7.72
5.78
3.61
1.50
-0.28
-1.60
-2.46
-2.98
-3.26
-3.39
-3.37
-3.16
-2.75
-2.17
-1.47
-0.68
0.18
1.07
1.93
2.62
2.96
2.85
2.28
1.36
0.28
-0.77
-1.64
-2.26
-2.55
-2.48
-2.05
-1.37
-0.63
-0.08
0.06
-0.28
-0.96
-1.71
-2.15
-1.98
-1.08
0.37
1.91
2.92
2.78
1.16
-1.87
-5.71
-9.40
-11.81
-12.05
-9.73
-5.17
0.63
6.16
9.88
10.66
8.16
3.00
-3.42
-9.36
-13.35
-14.64
-13.33
-10.22
-6.43
-3.02
-0.76
-0.02
-0.80
-2.71
-5.01
-6.74
-7.02
-5.44
-2.37
1.12
3.66
4.26
2.81
0.11
-2.55
-4.08
-4.14
-3.17
-2.05
-1.50
-1.72
-2.32
-2.70
-2.47
-1.69
-0.85
-0.48
-0.91
-1.98
-3.18
-3.93
-3.90
-3.11
-1.98
-0.99
-0.47
-0.45
-0.69
-0.88
-0.80
-0.47
-0.05
0.22
0.23
-0.00
-0.33
-0.61
-0.74
-0.74
-0.66
-0.57
-0.50
-0.49
-0.55
-0.71
-0.98
-1.34
-1.72
-2.01
-2.14
-2.09
-1.87
-1.52
-1.06
-0.48
0.26
1.17
2.18
3.20
4.08
4.76
5.25
5.65
6.08
6.62
7.25
7.91
8.48
8.86
8.97
8.79
8.31
7.57
6.64
5.61
4.59
3.72
3.14
2.91
3.02
3.39
3.89
4.41
4.84
5.11
5.18
5.02
4.59
3.88
2.98
2.06
1.36
1.08
1.31
1.91
2.63
3.16
3.30
3.04
2.57
2.11
1.81
1.73
1.75
1.67
1.25
0.30
-1.20
-3.09
-4.96
-6.34
-6.81
-6.27
-4.97
-3.43
-2.24
-1.73
-1.92
-2.53
-3.22
-3.80
-4.31
-4.96
-5.98
-7.50
-9.47
-11.75
-14.13
-16.44
-18.46
-19.91
-20.40
-19.52
-17.01
-12.89
-7.62
-2.08
2.72
5.86
6.91
6.07
4.02
1.70
-0.07
-0.80
-0.40
0.93
2.88
5.09
7.25
9.06
10.31
10.91
10.96
10.71
10.51
10.61
11.03
11.53
11.72
11.24
9.89
7.73
5.03
2.17
-0.45
-2.52
-3.87
-4.48
-4.43
-3.91
-3.12
-2.28
-1.53
-0.87
-0.20
0.66
1.81
3.21
4.60
5.62
5.91
5.34
4.01
2.27
0.52
-0.90
-1.81
-2.23
-2.26
-2.03
-1.70
-1.40
-1.24
-1.28
-1.51
-1.86
-2.22
-2.50
-2.63
-2.63
-2.53
-2.35
-2.14
-1.90
-1.71
-1.59
-1.60
-1.71
-1.90
-2.07
-2.17
-2.18
-2.11
-2.00
-1.88
-1.77
-1.63
-1.47
-1.25
-1.00
-0.70
-0.37
-0.03
0.27
0.43
0.40
0.19
-0.09
-0.29
-0.26
0.02
0.43
0.78
0.89
0.69
0.32
-0.05
-0.21
-0.10
0.20
0.51
0.65
0.57
0.28
-0.04
-0.24
-0.17
0.22
0.88
1.66
2.33
2.62
2.34
1.45
0.12
-1.30
-2.38
-2.79
-2.41
-1.35
0.09
1.56
2.77
3.54
3.82
3.63
3.07
2.23
1.28
0.37
-0.38
-0.90
-1.23
-1.44
-1.63
-1.85
-2.09
-2.21
-2.09
-1.64
-0.90
-0.02
0.76
1.26
1.49
1.65
2.03
2.85
4.08
5.41
6.35
6.43
5.45
3.53
1.08
-1.37
-3.42
-4.87
-5.73
-6.16
-6.33
-6.40
-6.44
-6.50
-6.56
-6.58
-6.46
-6.13
-5.53
-4.67
-3.63
-2.55
-1.53
-0.64
0.17
1.02
2.04
3.30
4.73
6.13
7.18
7.63
7.31
6.23
4.54
2.52
0.50
-1.18
-2.25
-2.61
-2.29
-1.58
-0.85
-0.49
-0.71
-1.54
-2.79
-4.16
-5.39
-6.26
-6.70
-6.68
-6.21
-5.31
-4.04
-2.45
-0.66
1.21
2.99
4.53
5.72
6.50
6.91
7.05
7.01
6.87
6.62
6.18
5.49
4.48
3.20
1.74
0.23
-1.23
-2.60
-3.83
-4.88
-5.66
-6.08
-6.04
-5.53
-4.61
-3.43
-2.19
-1.06
-0.13
0.53
0.92
1.06
0.96
0.70
0.35
0.02
-0.23
-0.35
-0.39
-0.42
-0.49
-0.58
-0.65
-0.59
-0.35
-0.01
0.27
0.33
0.08
-0.41
-0.95
-1.32
-1.38
-1.14
-0.74
-0.37
-0.16
-0.10
-0.09
-0.07
-0.02
-0.02
-0.18
-0.57
-1.12
-1.64
-1.94
-1.87
-1.42
-0.68
0.16
0.95
1.56
2.00
2.27
2.43
2.49
2.46
2.31
2.06
1.73
1.39
1.08
0.82
0.62
0.45
0.30
0.13
-0.07
-0.30
-0.53
-0.69
-0.70
-0.50
-0.07
0.49
1.04
1.43
1.59
1.55
1.38
1.17
0.94
0.66
0.29
-0.20
-0.79
-1.42
-2.05
-2.64
-3.11
-3.34
-3.19
-2.59
-1.60
-0.42
0.65
1.41
1.76
1.80
1.68
1.55
1.44
1.34
1.22
1.10
1.04
1.13
1.40
1.77
2.14
2.34
2.28
1.91
1.23
0.33
-0.71
-1.74
-2.59
-3.11
-3.19
-2.83
-2.13
-1.25
-0.37
0.40
1.04
1.51
1.81
1.94
1.95
1.90
1.90
1.99
2.13
2.20
2.04
1.62
1.02
0.43
0.09
0.12
0.55
1.27
2.09
2.76
2.96
2.40
0.88
-1.57
-4.66
-7.90
-10.71
-12.66
-13.54
-13.37
-12.28
-10.40
-7.79
-4.52
-0.81
2.99
6.41
8.99
10.49
10.90
10.43
9.46
8.29
7.15
6.15
5.36
4.78
4.43
4.24
4.10
3.77
3.03
1.73
-0.11
-2.29
-4.46
-6.26
-7.41
-7.79
-7.46
-6.55
-5.25
-3.71
-2.04
-0.36
1.18
2.41
3.17
3.36
2.98
2.16
1.08
-0.05
-1.10
-2.01
-2.77
-3.38
-3.79
-3.89
-3.58
-2.73
-1.35
0.47
2.52
4.52
6.18
7.36
8.01
8.23
8.20
8.08
7.94
7.83
7.70
7.50
7.22
6.80
6.22
5.47
4.55
3.50
2.33
1.02
-0.53
-2.38
-4.52
-6.69
-8.52
-9.56
-9.52
-8.38
-6.39
-3.95
-1.42
0.94
2.97
4.54
5.41
5.29
3.96
1.45
-1.88
-5.40
-8.46
-10.57
-11.68
-12.06
-12.24
-12.69
-13.65
-15.02
-16.35
-17.05
-16.57
-14.61
-11.28
-7.05
-2.67
1.14
3.94
5.66
6.60
7.19
7.80
8.52
9.26
9.74
9.71
9.00
7.54
5.37
2.62
-0.51
-3.71
-6.67
-9.06
-10.67
-11.40
-11.29
-10.44
-8.98
-7.09
-4.92
-2.65
-0.41
1.70
3.69
5.66
7.69
9.80
11.83
13.48
14.37
14.18
12.82
10.48
7.60
4.70
2.23
0.42
-0.67
-1.14
-1.13
-0.72
0.01
0.98
2.11
3.25
4.25
4.97
5.27
5.05
4.22
2.65
0.21
-3.23
-7.64
-12.65
-17.50
-21.09
-22.36
-20.70
-16.34
-10.30
-4.04
1.20
4.84
7.08
8.56
9.84
11.07
11.93
12.02
11.17
9.66
8.07
7.03
6.84
7.47
8.56
9.61
10.19
10.01
8.98
7.20
4.95
2.60
0.53
-1.03
-2.04
-2.66
-3.12
-3.67
-4.45
-5.53
-6.89
-8.47
-10.08
-11.45
-12.24
-12.18
-11.22
-9.61
-7.82
-6.37
-5.57
-5.41
-5.64
-5.94
-6.14
-6.25
-6.38
-6.55
-6.59
-6.23
-5.19
-3.43
-1.19
1.11
3.04
4.32
4.88
4.85
4.41
3.75
3.05
2.48
2.22
2.41
3.03
3.88
4.58
4.70
4.00
2.59
0.92
-0.43
-1.04
-0.87
-0.32
0.02
-0.34
-1.54
-3.25
-4.96
-6.18
-6.74
-6.81
-6.85
-7.40
-8.85
-11.26
-14.28
-17.16
-18.96
-18.85
-16.45
-12.13
-7.05
-2.84
-1.07
-2.61
-7.23
-13.68
-20.11
-24.80
-26.67
-25.44
-21.45
-15.29
-7.52
1.32
10.54
19.16
26.01
30.14
31.27
29.98
27.51
25.24
24.02
23.83
23.85
22.98
20.48
16.44
11.82
8.05
6.45
7.63
11.36
16.81
22.89
28.45
32.16
32.43
27.78
17.56
2.83
-13.60
-28.10
-37.83
-42.05
-42.29
-41.10
-40.36
-40.19
-39.17
-35.75
-29.71
-22.51
-16.45
-13.05
-12.01
-11.41
-8.98
-3.52
4.44
12.98
19.96
24.05
25.22
24.50
23.22
22.30
22.00
21.96
21.64
20.69
19.18
17.45
15.92
14.88
14.29
13.87
13.23
12.11
10.44
8.44
6.49
4.96
4.03
3.67
3.60
3.49
3.13
2.43
1.50
0.53
-0.33
-1.02
-1.56
-1.97
-2.26
-2.42
-2.45
-2.43
-2.51
-2.80
-3.29
-3.88
-4.35
-4.54
-4.43
-4.15
-3.90
-3.84
-3.98
-4.23
-4.44
-4.54
-4.56
-4.65
-4.92
-5.39
-5.97
-6.50
-6.82
-6.83
-6.48
-5.84
-4.99
-4.04
-3.13
-2.34
-1.74
-1.37
-1.22
-1.28
-1.56
-2.01
-2.54
-3.00
-3.22
-3.05
-2.44
-1.50
-0.41
0.59
1.34
1.82
2.13
2.42
2.82
3.34
3.93
4.48
4.96
5.40
5.85
6.37
6.92
7.39
7.65
7.64
7.41
7.03
6.61
6.18
5.73
5.22
4.60
3.89
3.10
2.27
1.43
0.63
-0.04
-0.50
-0.69
-0.61
-0.36
-0.04
0.21
0.33
0.31
0.21
0.10
0.01
-0.05
-0.13
-0.24
-0.41
-0.59
-0.71
-0.71
-0.57
-0.35
-0.13
0.01
0.06
0.07
0.13
0.32
0.60
0.83
0.87
0.64
0.19
-0.27
-0.52
-0.44
-0.05
0.47
0.91
1.14
1.18
1.14
1.18
1.34
1.59
1.82
1.94
1.95
1.89
1.87
1.95
2.13
2.39
2.67
2.94
3.18
3.42
3.70
4.02
4.33
4.53
4.49
4.17
3.66
3.19
3.04
3.45
4.45
5.83
7.22
8.24
8.66
8.53
8.06
7.56
7.29
7.30
7.50
7.66
7.50
6.75
5.23
2.85
-0.27
-3.91
-7.69
-11.25
-14.31
-16.76
-18.63
-19.96
-20.72
-20.76
-19.87
-17.86
-14.79
-10.91
-6.76
-2.98
-0.20
1.08
0.67
-1.31
-4.39
-7.90
-11.12
-13.50
-14.70
-14.68
-13.58
-11.65
-9.22
-6.61
-4.22
-2.42
-1.54
-1.68
-2.71
-4.33
-6.08
-7.57
-8.53
-8.82
-8.47
-7.56
-6.24
-4.60
-2.71
-0.59
1.76
4.27
6.80
9.13
10.95
12.00
12.16
11.53
10.40
9.15
8.12
7.50
7.21
6.95
6.37
5.31
3.87
2.46
1.64
1.86
3.28
5.50
7.65
8.78
8.35
6.58
4.33
2.78
2.98
5.29
9.06
12.72
14.55
13.60
10.16
5.64
2.05
1.15
3.79
9.28
15.56
20.15
21.41
18.97
13.60
6.88
0.79
-2.71
-2.56
0.82
5.36
8.03
5.18
-6.29
-27.42
-56.14
-85.53
-105.53
-108.72
-95.45
-73.19
-52.68
-43.02
-48.49
-67.47
-93.26
-117.88
-134.25
-137.66
-125.94
-100.53
-65.82
-27.57
9.19
41.43
68.05
89.27
102.47
106.82
102.66
91.63
76.70
61.76
50.62
45.63
46.89
52.50
59.94
66.55
70.53
71.24
69.15
65.31
60.56
55.22
49.14
42.44
35.31
28.26
21.92
16.84
13.23
10.78
8.88
6.84
4.36
1.37
-2.02
-5.57
-8.92
-11.62
-13.24
-13.47
-12.27
-9.83
-6.71
-3.64
-1.34
-0.23
-0.38
-1.52
-3.20
-5.03
-6.71
-8.20
-9.57
-10.88
-12.07
-12.96
-13.35
-13.17
-12.54
-11.76
-11.18
-11.08
-11.53
-12.43
-13.57
-14.70
-15.68
-16.43
-16.98
-17.35
-17.56
-17.53
-17.14
-16.27
-14.86
-12.92
-10.56
-7.87
-4.94
-1.84
1.35
4.43
7.11
9.12
10.29
10.64
10.37
9.71
8.85
7.87
6.80
5.70
4.74
4.10
3.94
4.26
4.89
5.56
5.99
6.00
5.53
4.67
3.58
2.45
1.47
0.81
0.52
0.58
0.89
1.31
1.74
2.14
2.50
2.84
3.18
3.52
3.91
4.42
5.10
5.95
6.86
7.64
8.09
8.10
7.70
7.06
6.37
5.77
5.31
4.98
4.71
4.47
4.19
3.83
3.29
2.54
1.62
0.70
0.06
-0.04
0.54
1.76
3.39
5.07
6.40
7.05
6.76
5.40
2.98
-0.29
-4.05
-7.81
-11.08
-13.52
-14.99
-15.57
-15.42
-14.61
-13.06
-10.54
-6.87
-2.14
3.15
8.17
11.96
13.83
13.53
11.26
7.48
2.67
-2.85
-8.82
-14.88
-20.45
-24.72
-26.90
-26.49
-23.55
-18.70
-12.97
-7.46
-3.05
-0.18
1.15
1.29
0.73
-0.05
-0.68
-0.96
-0.82
-0.31
0.40
1.13
1.71
2.08
2.26
2.35
2.41
2.42
2.22
1.67
0.68
-0.69
-2.28
-3.91
-5.42
-6.73
-7.80
-8.57
-8.97
-8.94
-8.50
-7.70
-6.68
-5.56
-4.42
-3.36
-2.43
-1.71
-1.23
-1.01
-1.02
-1.25
-1.64
-2.16
-2.72
-3.19
-3.33
-2.91
-1.73
0.22
2.76
5.49
7.91
9.55
10.12
9.66
8.47
7.06
5.99
5.58
5.87
6.57
7.22
7.38
6.86
5.79
4.53
3.54
3.23
3.79
5.11
6.79
8.21
8.56
7.07
3.23
-2.84
-10.20
-17.15
-21.81
-22.84
-20.09
-14.71
-8.66
-3.89
-1.58
-1.78
-3.71
-6.31
-8.77
-10.72
-12.05
-12.65
-12.22
-10.41
-7.06
-2.48
2.62
7.35
10.93
13.01
13.74
13.68
13.49
13.67
14.29
15.10
15.65
15.57
14.75
13.35
11.64
9.85
8.08
6.25
4.22
1.85
-0.96
-4.22
-7.73
-11.04
-13.44
-14.09
-12.35
-8.08
-1.78
5.52
12.60
18.45
22.53
24.78
25.38
24.58
22.56
19.44
15.47
11.06
6.77
3.14
0.55
-0.95
-1.57
-1.73
-1.87
-2.36
-3.30
-4.54
-5.75
-6.51
-6.62
-6.18
-5.61
-5.40
-5.88
-6.98
-8.28
-9.24
-9.48
-8.97
-7.97
-6.93
-6.20
-5.96
-6.19
-6.79
-7.62
-8.57
-9.57
-10.48
-11.20
-11.59
-11.54
-11.01
-9.96
-8.43
-6.50
-4.33
-2.12
-0.08
1.61
2.84
3.61
3.97
4.04
3.90
3.63
3.30
3.03
2.93
3.10
3.55
4.17
4.75
5.09
5.10
4.82
4.40
4.01
3.72
3.53
3.33
2.98
2.37
1.45
0.27
-1.11
-2.55
-3.87
-4.87
-5.33
-5.12
-4.25
-2.93
-1.57
-0.58
-0.28
-0.75
-1.84
-3.24
-4.68
-5.95
-7.01
-7.89
-8.59
-9.09
-9.33
-9.27
-8.86
-8.10
-6.99
-5.52
-3.80
-2.01
-0.46
0.51
0.69
0.03
-1.28
-2.88
-4.40
-5.51
-6.07
-6.04
-5.46
-4.41
-2.94
-1.15
0.84
2.86
4.72
6.27
7.41
8.14
8.48
8.46
8.10
7.41
6.42
5.22
3.98
2.83
1.87
1.12
0.54
0.09
-0.27
-0.54
-0.76
-0.96
-1.19
-1.47
-1.77
-1.96
-1.91
-1.54
-0.93
-0.19
0.53
1.18
1.83
2.58
3.49
4.48
5.35
5.93
6.11
5.99
5.75
5.58
5.52
5.40
5.02
4.19
2.86
1.14
-0.81
-2.83
-4.84
-6.79
-8.58
-10.08
-11.00
-11.07
-10.08
-7.97
-4.94
-1.40
2.11
5.06
7.12
8.26
8.66
8.63
8.44
8.14
7.64
6.85
5.77
4.56
3.49
2.77
2.46
2.49
2.71
2.99
3.28
3.56
3.78
3.86
3.70
3.27
2.62
1.90
1.24
0.73
0.38
0.13
-0.13
-0.45
-0.85
-1.29
-1.75
-2.19
-2.55
-2.81
-2.95
-3.00
-2.98
-2.88
-2.68
-2.33
-1.83
-1.23
-0.66
-0.31
-0.37
-0.95
-2.05
-3.61
-5.46
-7.43
-9.34
-10.98
-12.14
-12.62
-12.26
-10.99
-8.90
-6.22
-3.32
-0.62
1.57
3.19
4.39
5.42
6.47
7.51
8.27
8.45
7.87
6.63
4.99
3.30
1.76
0.42
-0.74
-1.69
-2.26
-2.23
-1.47
-0.10
1.62
3.30
4.69
5.69
6.36
6.82
7.12
7.25
7.18
6.93
6.64
6.45
6.47
6.64
6.78
6.61
5.96
4.82
3.39
1.97
0.89
0.34
0.40
1.00
2.03
3.29
4.55
5.56
6.06
5.84
4.86
3.27
1.40
-0.31
-1.51
-2.00
-1.85
-1.24
-0.43
0.39
1.15
1.81
2.36
2.70
2.71
2.30
1.49
0.42
-0.62
-1.37
-1.66
-1.51
-1.09
-0.65
-0.42
-0.54
-1.00
-1.66
-2.35
-2.95
-3.41
-3.74
-3.97
-4.13
-4.16
-4.02
-3.67
-3.18
-2.73
-2.58
-2.95
-3.93
-5.47
-7.39
-9.55
-11.86
-14.17
-16.13
-17.11
-16.33
-13.30
-8.25
-2.25
3.17
6.67
7.82
7.23
6.19
5.83
6.57
7.96
9.08
9.23
8.35
6.97
5.87
5.52
5.84
6.35
6.50
5.98
4.90
3.70
2.87
2.74
3.28
4.15
4.85
4.90
4.06
2.41
0.35
-1.64
-3.13
-3.94
-4.17
-4.11
-4.03
-4.04
-4.06
-3.89
-3.37
-2.52
-1.54
-0.68
-0.13
0.13
0.21
0.28
0.44
0.67
0.93
1.16
1.37
1.62
1.91
2.20
2.34
2.15
1.54
0.49
-0.84
-2.19
-3.30
-3.96
-4.17
-4.12
-4.12
-4.49
-5.43
-6.92
-8.73
-10.50
-11.89
-12.61
-12.54
-11.73
-10.35
-8.62
-6.77
-4.90
-3.02
-1.05
1.06
3.30
5.50
7.42
8.87
9.73
10.08
10.10
9.95
9.75
9.48
9.05
8.38
7.46
6.34
5.17
4.11
3.30
2.83
2.69
2.80
2.99
3.04
2.75
1.97
0.70
-0.91
-2.58
-3.96
-4.79
-4.94
-4.47
-3.61
-2.63
-1.80
-1.25
-0.95
-0.79
-0.64
-0.42
-0.19
-0.05
-0.08
-0.31
-0.63
-0.90
-0.96
-0.71
-0.13
0.77
1.93
3.27
4.60
5.70
6.33
6.29
5.55
4.24
2.61
0.97
-0.42
-1.35
-1.77
-1.67
-1.13
-0.25
0.87
2.18
3.61
5.04
6.32
7.19
7.41
6.80
5.33
3.13
0.50
-2.21
-4.67
-6.64
-7.99
-8.67
-8.71
-8.21
-7.32
-6.25
-5.26
-4.54
-4.19
-4.11
-4.09
-3.87
-3.35
-2.60
-1.89
-1.55
-1.77
-2.56
-3.70
-4.93
-5.96
-6.60
-6.80
-6.59
-6.12
-5.60
-5.28
-5.33
-5.78
-6.48
-7.15
-7.52
-7.45
-7.04
-6.55
-6.29
-6.54
-7.36
-8.66
-10.19
-11.65
-12.74
-13.27
-13.20
-12.59
-11.61
-10.39
-9.06
-7.73
-6.53
-5.62
-5.16
-5.20
-5.67
-6.32
-6.83
-6.92
-6.48
-5.51
-4.09
-2.29
-0.10
2.49
5.47
8.72
12.05
15.27
18.24
20.85
22.96
24.41
24.97
24.52
23.13
21.08
18.84
16.90
15.52
14.69
14.18
13.66
12.96
12.07
11.16
10.43
9.98
9.72
9.45
8.98
8.28
7.46
6.77
6.43
6.52
6.92
7.32
7.39
6.92
5.96
4.75
3.68
3.05
2.88
2.98
2.99
2.57
1.51
-0.23
-2.55
-5.25
-8.05
-10.59
-12.50
-13.48
-13.46
-12.59
-11.21
-9.71
-8.32
-7.13
-6.12
-5.29
-4.65
-4.23
-4.02
-3.93
-3.77
-3.39
-2.76
-1.91
-1.00
-0.19
0.40
0.66
0.57
0.13
-0.60
-1.49
-2.42
-3.28
-4.03
-4.65
-5.12
-5.40
-5.42
-5.16
-4.64
-3.94
-3.19
-2.48
-1.88
-1.42
-1.12
-0.96
-0.92
-0.96
-1.01
-0.99
-0.90
-0.76
-0.67
-0.73
-0.95
-1.29
-1.66
-1.99
-2.21
-2.33
-2.36
-2.30
-2.16
-1.94
-1.66
-1.37
-1.16
-1.04
-1.02
-1.05
-1.07
-1.06
-1.02
-0.99
-0.98
-1.01
-1.01
-0.91
-0.64
-0.16
0.47
1.13
1.69
2.06
2.21
2.20
2.11
2.03
1.97
1.90
1.79
1.61
1.38
1.12
0.86
0.64
0.47
0.40
0.40
0.47
0.52
0.45
0.19
-0.25
-0.79
-1.27
-1.52
-1.50
-1.26
-0.95
-0.73
-0.70
-0.85
-1.10
-1.36
-1.59
-1.82
-2.12
-2.54
-3.05
-3.54
-3.81
-3.71
-3.16
-2.19
-0.97
0.28
1.31
1.90
1.96
1.52
0.75
-0.08
-0.71
-0.93
-0.71
-0.17
0.43
0.80
0.76
0.25
-0.58
-1.48
-2.16
-2.44
-2.24
-1.62
-0.70
0.39
1.53
2.62
3.57
4.25
4.57
4.46
3.93
3.14
2.30
1.67
1.41
1.59
2.08
2.68
3.13
3.29
3.13
2.78
2.44
2.30
2.44
2.79
3.16
3.33
3.17
2.67
1.99
1.43
1.28
1.72
2.73
4.06
5.36
6.32
6.79
6.81
6.54
6.14
5.63
4.90
3.75
1.97
-0.58
-4.07
-8.69
-14.41
-20.77
-26.53
-29.89
-29.06
-23.17
-12.95
-0.64
10.76
18.77
22.33
22.05
19.58
16.57
13.97
11.82
9.65
7.17
4.52
2.21
0.75
0.31
0.60
1.07
1.23
0.86
0.04
-1.00
-2.04
-3.08
-4.23
-5.67
-7.47
-9.48
-11.39
-12.87
-13.70
-13.88
-13.55
-12.89
-12.00
-10.87
-9.51
-7.93
-6.32
-4.92
-4.00
-3.75
-4.27
-5.56
-7.45
-9.54
-11.14
-11.35
-9.37
-4.90
1.57
8.83
15.37
19.97
22.16
22.18
20.80
18.75
16.52
14.27
12.02
9.89
8.10
6.92
6.38
6.28
6.20
5.69
4.51
2.66
0.40
-1.84
-3.61
-4.62
-4.78
-4.24
-3.34
-2.50
-2.04
-2.14
-2.79
-3.84
-5.08
-6.36
-7.59
-8.67
-9.47
-9.76
-9.29
-7.87
-5.53
-2.55
0.56
3.21
4.92
5.47
4.95
3.69
2.14
0.71
-0.32
-0.88
-1.05
-0.98
-0.84
-0.75
-0.76
-0.90
-1.17
-1.52
-1.86
-2.04
-1.94
-1.53
-0.89
-0.25
0.17
0.24
0.01
-0.31
-0.48
-0.37
-0.00
0.45
0.79
0.87
0.70
0.37
0.07
-0.08
-0.02
0.21
0.50
0.76
0.95
1.11
1.28
1.51
1.72
1.80
1.65
1.22
0.63
0.07
-0.27
-0.26
0.05
0.51
0.90
1.06
0.96
0.69
0.42
0.31
0.38
0.58
0.78
0.94
1.07
1.22
1.42
1.59
1.58
1.30
0.77
0.12
-0.45
-0.83
-1.03
-1.11
-1.13
-1.04
-0.80
-0.37
0.18
0.70
1.05
1.21
1.27
1.34
1.51
1.73
1.94
2.04
2.03
1.99
2.00
2.17
2.53
3.05
3.66
4.30
4.86
5.27
5.43
5.29
4.82
4.05
3.07
2.00
1.00
0.17
-0.38
-0.63
-0.60
-0.32
0.12
0.59
0.90
0.87
0.35
-0.64
-1.92
-3.19
-4.15
-4.67
-4.84
-4.98
-5.58
-7.06
-9.66
-13.37
-17.96
-23.07
-28.17
-32.46
-34.92
-34.49
-30.50
-23.06
-13.23
-2.72
6.71
13.87
18.45
20.94
22.10
22.54
22.56
22.21
21.57
20.84
20.19
19.64
18.86
17.33
14.67
10.81
6.11
1.27
-3.03
-6.34
-8.61
-10.18
-11.59
-13.45
-16.16
-19.72
-23.69
-27.14
-28.99
-28.25
-24.43
-17.76
-9.16
0.03
8.42
14.97
19.18
21.11
21.24
20.27
18.93
17.85
17.33
17.37
17.61
17.52
16.57
14.47
11.22
7.14
2.67
-1.69
-5.53
-8.58
-10.68
-11.85
-12.21
-11.97
-11.38
-10.62
-9.86
-9.23
-8.89
-8.98
-9.58
-10.61
-11.77
-12.56
-12.47
-11.15
-8.66
-5.49
-2.51
-0.71
-0.88
-3.34
-7.78
-13.23
-18.26
-21.36
-21.45
-18.29
-12.67
-6.16
-0.52
2.94
3.82
2.64
0.42
-1.83
-3.56
-4.74
-5.63
-6.58
-7.88
-9.75
-12.20
-14.82
-16.61
-16.11
-11.92
-3.47
8.47
21.85
34.03
42.83
47.27
47.71
45.39
41.60
37.13
32.11
26.36
19.78
12.71
5.83
-0.08
-4.45
-7.09
-8.13
-7.86
-6.58
-4.57
-2.17
0.28
2.43
4.08
5.29
6.33
7.55
9.13
10.95
12.59
13.58
13.60
12.57
10.59
7.70
3.97
-0.43
-4.98
-8.79
-10.80
-10.27
-7.13
-2.15
3.31
7.84
10.48
11.08
10.17
8.59
7.08
6.00
5.20
4.10
1.84
-2.46
-9.34
-18.51
-28.66
-37.62
-43.09
-43.64
-39.44
-32.35
-25.13
-20.32
-19.20
-21.40
-25.28
-28.77
-30.35
-29.57
-27.00
-23.75
-20.83
-18.68
-17.18
-15.87
-14.36
-12.51
-10.46
-8.37
-6.17
-3.49
0.11
4.79
10.13
15.15
18.60
19.46
17.35
12.81
7.20
2.37
0.01
1.06
5.32
11.48
17.64
22.14
24.20
24.17
23.07
21.88
21.02
20.18
18.78
16.45
13.45
10.50
8.34
7.25
6.87
6.49
5.50
3.91
2.35
1.76
2.81
5.43
8.81
11.74
13.18
12.75
10.76
8.08
5.59
3.86
3.02
2.86
3.06
3.38
3.71
4.04
4.30
4.41
4.25
3.74
2.93
1.96
1.03
0.32
-0.09
-0.28
-0.46
-0.84
-1.58
-2.61
-3.73
-4.66
-5.17
-5.23
-4.93
-4.43
-3.88
-3.34
-2.83
-2.32
-1.88
-1.61
-1.67
-2.17
-3.06
-4.19
-5.25
-5.92
-5.96
-5.26
-3.93
-2.24
-0.51
1.05
2.32
3.35
4.14
4.69
4.85
4.48
3.53
2.11
0.51
-0.91
-1.91
-2.39
-2.49
-2.41
-2.31
-2.20
-1.97
-1.45
-0.55
0.66
1.94
3.05
3.79
4.13
4.16
4.00
3.73
3.35
2.82
2.13
1.34
0.52
-0.27
-1.06
-1.92
-2.87
-3.89
-4.81
-5.41
-5.50
-5.00
-3.97
-2.57
-1.03
0.42
1.58
2.31
2.56
2.45
2.16
1.89
1.73
1.66
1.54
1.25
0.85
0.61
0.85
1.78
3.27
4.87
5.98
6.15
5.35
3.99
2.66
1.80
1.43
1.25
0.84
-0.01
-1.16
-2.25
-2.93
-3.10
-2.95
-2.73
-2.62
-2.57
-2.38
-1.91
-1.23
-0.56
-0.18
-0.22
-0.56
-0.97
-1.20
-1.15
-0.86
-0.48
-0.12
0.18
0.45
0.70
0.91
1.00
0.89
0.61
0.31
0.15
0.25
0.56
0.93
1.10
0.92
0.36
-0.44
-1.27
-1.88
-2.10
-1.81
-1.00
0.17
1.41
2.31
2.47
1.70
0.14
-1.74
-3.37
-4.35
-4.64
-4.55
-4.55
-4.93
-5.64
-6.33
-6.59
-6.15
-5.05
-3.56
-2.02
-0.67
0.42
1.26
1.89
2.28
2.36
2.14
1.70
1.25
1.00
1.10
1.52
2.12
2.62
2.82
2.56
1.87
0.88
-0.20
-1.18
-1.87
-2.13
-1.87
-1.09
0.08
1.40
2.56
3.27
3.39
2.98
2.30
1.67
1.35
1.39
1.68
1.98
2.12
2.04
1.84
1.66
1.61
1.69
1.76
1.59
1.04
0.06
-1.21
-2.51
-3.56
-4.20
-4.37
-4.13
-3.63
-3.01
-2.39
-1.87
-1.52
-1.37
-1.38
-1.44
-1.41
-1.19
-0.76
-0.22
0.32
0.75
1.04
1.21
1.29
1.30
1.27
1.27
1.36
1.56
1.83
2.00
1.93
1.52
0.83
0.07
-0.50
-0.68
-0.44
0.10
0.72
1.23
1.53
1.65
1.68
1.69
1.66
1.50
1.11
0.45
-0.38
-1.21
-1.86
-2.24
-2.40
-2.45
-2.54
-2.74
-3.05
-3.40
-3.74
-4.02
-4.21
-4.26
-4.11
-3.72
-3.14
-2.53
-2.09
-2.00
-2.31
-2.85
-3.38
-3.57
-3.26
-2.45
-1.34
-0.30
0.36
0.44
0.00
-0.61
-0.87
-0.23
1.63
4.63
8.26
11.72
14.23
15.30
14.90
13.39
11.37
9.39
7.80
6.66
5.83
5.07
4.18
3.01
1.47
-0.51
-2.90
-5.55
-8.10
-10.02
-10.79
-10.12
-8.04
-4.96
-1.46
1.95
4.91
7.27
8.95
9.86
9.87
8.99
7.44
5.65
4.15
3.29
3.11
3.38
3.74
3.90
3.76
3.38
2.80
2.02
0.93
-0.57
-2.47
-4.59
-6.58
-8.10
-8.91
-8.97
-8.43
-7.61
-6.88
-6.59
-7.02
-8.25
-10.12
-12.14
-13.63
-13.91
-12.56
-9.65
-5.74
-1.66
1.75
3.97
4.93
4.91
4.35
3.67
3.13
2.86
2.93
3.39
4.21
5.29
6.40
7.26
7.57
7.17
6.10
4.55
2.84
1.29
0.19
-0.33
-0.25
0.29
1.08
1.84
2.33
2.40
2.02
1.29
0.39
-0.50
-1.23
-1.70
-1.89
-1.82
-1.54
-1.16
-0.78
-0.54
-0.50
-0.69
-1.05
-1.45
-1.78
-1.92
-1.84
-1.54
-1.12
-0.65
-0.22
0.14
0.39
0.52
0.49
0.28
-0.11
-0.63
-1.17
-1.58
-1.75
-1.67
-1.41
-1.12
-0.93
-0.93
-1.09
-1.32
-1.51
-1.57
-1.49
-1.31
-1.07
-0.82
-0.57
-0.35
-0.19
-0.13
-0.18
-0.34
-0.59
-0.87
-1.15
-1.40
-1.57
-1.61
-1.46
-1.12
-0.64
-0.17
0.17
0.29
0.22
0.07
-0.03
0.00
0.15
0.34
0.47
0.46
0.29
0.01
-0.33
-0.67
-0.98
-1.26
-1.51
-1.73
-1.94
-2.12
-2.25
-2.30
-2.21
-1.93
-1.47
-0.89
-0.32
0.10
0.30
0.33
0.29
0.29
0.37
0.45
0.42
0.16
-0.34
-0.96
-1.52
-1.85
-1.90
-1.71
-1.45
-1.27
-1.26
-1.43
-1.65
-1.79
-1.75
-1.54
-1.27
-1.10
-1.16
-1.50
-2.06
-2.69
-3.25
-3.59
-3.54
-2.98
-1.85
-0.23
1.61
3.27
4.37
4.71
4.34
3.62
3.01
2.91
3.44
4.48
5.68
6.63
7.06
6.87
6.14
5.05
3.86
2.76
1.88
1.29
0.97
0.88
0.96
1.14
1.33
1.51
1.62
1.68
1.67
1.60
1.41
1.07
0.51
-0.24
-1.11
-1.97
-2.68
-3.14
-3.29
-3.15
-2.77
-2.25
-1.66
-1.11
-0.64
-0.21
0.27
0.91
1.78
2.83
3.89
4.70
4.97
4.51
3.28
1.43
-0.73
-2.78
-4.39
-5.33
-5.57
-5.28
-4.66
-3.93
-3.19
-2.48
-1.79
-1.17
-0.69
-0.43
-0.40
-0.56
-0.81
-1.06
-1.29
-1.50
-1.69
-1.81
-1.78
-1.52
-1.01
-0.31
0.42
1.04
1.45
1.67
1.78
1.93
2.20
2.65
3.27
4.08
5.03
6.03
6.85
7.16
6.63
5.12
2.75
-0.10
-2.93
-5.34
-7.13
-8.28
-8.84
-8.79
-8.05
-6.53
-4.30
-1.64
0.98
3.07
4.32
4.63
4.18
3.22
2.06
0.90
-0.10
-0.86
-1.37
-1.61
-1.63
-1.43
-1.03
-0.42
0.37
1.24
2.03
2.52
2.57
2.14
1.36
0.48
-0.22
-0.55
-0.44
0.11
1.03
2.23
3.60
4.95
6.01
6.54
6.37
5.57
4.40
3.19
2.17
1.33
0.50
-0.56
-1.95
-3.51
-4.88
-5.67
-5.72
-5.11
-4.24
-3.52
-3.28
-3.53
-4.03
-4.41
-4.36
-3.82
-2.92
-1.93
-1.08
-0.42
0.10
0.62
1.17
1.65
1.89
1.75
1.23
0.55
0.01
-0.10
0.30
1.06
1.89
2.44
2.54
2.18
1.58
1.03
0.79
1.00
1.69
2.73
3.97
5.23
6.32
7.05
7.26
6.74
5.34
3.04
-0.01
-3.38
-6.48
-8.70
-9.65
-9.30
-8.02
-6.35
-4.81
-3.63
-2.84
-2.27
-1.83
-1.53
-1.49
-1.80
-2.44
-3.28
-4.10
-4.72
-5.04
-5.03
-4.72
-4.18
-3.49
-2.78
-2.21
-1.91
-1.99
-2.44
-3.18
-4.04
-4.81
-5.28
-5.28
-4.73
-3.70
-2.35
-0.91
0.38
1.40
2.11
2.53
2.69
2.61
2.26
1.63
0.73
-0.37
-1.59
-2.84
-4.00
-4.97
-5.67
-5.99
-5.88
-5.28
-4.22
-2.81
-1.22
0.32
1.61
2.57
3.22
3.71
4.17
4.65
5.10
5.41
5.51
5.49
5.49
5.64
5.96
6.31
6.47
6.32
5.90
5.37
4.96
4.80
4.94
5.29
5.73
6.11
6.27
6.08
5.41
4.23
2.65
0.91
-0.70
-1.94
-2.71
-3.08
-3.19
-3.17
-3.09
-2.95
-2.75
-2.54
-2.37
-2.31
-2.37
-2.48
-2.55
-2.50
-2.33
-2.14
-2.10
-2.30
-2.77
-3.38
-3.89
-4.11
-3.95
-3.52
-3.09
-2.94
-3.25
-3.94
-4.73
-5.29
-5.34
-4.85
-3.93
-2.82
-1.72
-0.74
0.04
0.54
0.63
0.24
-0.62
-1.76
-2.87
-3.65
-3.93
-3.75
-3.23
-2.53
-1.68
-0.61
0.77
2.43
4.19
5.75
6.80
7.20
7.01
6.45
5.78
5.16
4.63
4.15
3.67
3.24
2.96
2.92
3.09
3.35
3.48
3.31
2.80
2.07
1.30
0.71
0.41
0.38
0.45
0.40
0.04
-0.69
-1.72
-2.84
-3.80
-4.41
-4.59
-4.35
-3.77
-2.94
-1.95
-0.93
-0.01
0.70
1.10
1.19
1.07
0.88
0.73
0.69
0.75
0.83
0.85
0.77
0.59
0.41
0.32
0.44
0.81
1.41
2.16
2.92
3.59
4.11
4.47
4.70
4.85
4.95
5.00
4.96
4.78
4.41
3.84
3.13
2.42
1.85
1.50
1.39
1.45
1.54
1.56
1.42
1.19
0.93
0.78
0.78
0.92
1.12
1.29
1.38
1.41
1.45
1.58
1.85
2.23
2.62
2.89
2.89
2.54
1.79
0.66
-0.78
-2.41
-4.04
-5.48
-6.50
-6.94
-6.75
-5.97
-4.76
-3.35
-1.96
-0.81
-0.02
0.32
0.25
-0.16
-0.72
-1.25
-1.54
-1.48
-1.09
-0.50
0.07
0.42
0.41
-0.01
-0.80
-1.84
-3.01
-4.13
-5.03
-5.54
-5.54
-4.98
-3.93
-2.54
-1.03
0.34
1.30
1.63
1.22
0.12
-1.46
-3.19
-4.68
-5.61
-5.82
-5.32
-4.27
-2.93
-1.51
-0.19
0.94
1.84
2.55
3.08
3.44
3.67
3.76
3.73
3.56
3.28
2.89
2.46
2.05
1.75
1.58
1.51
1.44
1.30
1.09
0.86
0.75
0.81
1.01
1.24
1.33
1.18
0.81
0.31
-0.16
-0.53
-0.77
-0.93
-1.04
-1.13
-1.19
-1.21
-1.21
-1.25
-1.37
-1.58
-1.82
-1.98
-1.96
-1.64
-1.00
-0.07
1.03
2.11
2.99
3.51
3.57
3.20
2.54
1.75
1.00
0.39
-0.05
-0.33
-0.50
-0.61
-0.71
-0.82
-0.95
-1.11
-1.23
-1.25
-1.12
-0.81
-0.37
0.10
0.45
0.62
0.60
0.47
0.30
0.15
0.00
-0.17
-0.36
-0.54
-0.62
-0.54
-0.35
-0.18
-0.20
-0.48
-0.95
-1.37
-1.54
-1.32
-0.81
-0.23
0.17
0.27
0.14
-0.02
-0.02
0.18
0.47
0.66
0.58
0.25
-0.18
-0.51
-0.57
-0.38
-0.11
0.04
-0.06
-0.41
-0.86
-1.21
-1.34
-1.24
-1.00
-0.76
-0.62
-0.58
-0.62
-0.70
-0.81
-0.99
-1.27
-1.65
-2.12
-2.59
-3.03
-3.36
-3.56
-3.62
-3.51
-3.22
-2.76
-2.14
-1.41
-0.65
0.09
0.76
1.32
1.75
2.05
2.20
2.16
1.90
1.35
0.54
-0.42
-1.36
-2.06
-2.39
-2.34
-2.05
-1.74
-1.64
-1.91
-2.62
-3.68
-4.88
-5.95
-6.65
-6.81
-6.42
-5.62
-4.68
-3.85
-3.31
-3.08
-3.04
-3.04
-2.94
-2.70
-2.35
-1.98
-1.60
-1.17
-0.58
0.27
1.38
2.68
4.05
5.43
6.82
8.28
9.83
11.35
12.63
13.44
13.64
13.27
12.51
11.60
10.69
9.81
8.95
8.06
7.18
6.39
5.73
5.19
4.68
4.07
3.32
2.43
1.51
0.67
0.02
-0.41
-0.65
-0.74
-0.77
-0.79
-0.81
-0.79
-0.62
-0.24
0.34
1.00
1.54
1.74
1.56
1.08
0.50
0.01
-0.29
-0.47
-0.70
-1.11
-1.72
-2.34
-2.74
-2.71
-2.19
-1.36
-0.49
0.11
0.27
0.00
-0.54
-1.12
-1.57
-1.80
-1.83
-1.75
-1.64
-1.58
-1.60
-1.73
-1.94
-2.17
-2.30
-2.19
-1.74
-0.96
0.06
1.15
2.08
2.66
2.78
2.46
1.77
0.89
-0.02
-0.79
-1.26
-1.33
-0.96
-0.25
0.66
1.58
2.36
2.93
3.28
3.42
3.35
3.06
2.56
2.00
1.58
1.50
1.85
2.48
3.14
3.49
3.35
2.73
1.83
0.90
0.14
-0.35
-0.61
-0.76
-0.97
-1.41
-2.17
-3.29
-4.69
-6.20
-7.62
-8.77
-9.60
-10.15
-10.53
-10.89
-11.35
-11.99
-12.82
-13.69
-14.21
-13.84
-12.09
-8.77
-4.26
0.56
4.65
7.25
8.21
7.99
7.34
6.87
6.74
6.72
6.44
5.71
4.67
3.66
3.02
2.84
2.97
3.12
3.02
2.58
1.88
1.11
0.49
0.17
0.22
0.59
1.13
1.65
2.02
2.16
2.12
2.02
1.98
2.04
2.15
2.18
2.06
1.76
1.33
0.87
0.46
0.12
-0.16
-0.41
-0.63
-0.82
-0.98
-1.12
-1.30
-1.56
-1.87
-2.15
-2.31
-2.28
-2.03
-1.63
-1.16
-0.68
-0.29
-0.01
0.12
0.07
-0.14
-0.49
-0.98
-1.62
-2.44
-3.45
-4.61
-5.79
-6.76
-7.32
-7.34
-6.85
-5.97
-4.87
-3.68
-2.47
-1.29
-0.16
0.87
1.74
2.41
2.88
3.17
3.30
3.32
3.23
3.05
2.83
2.60
2.42
2.29
2.23
2.19
2.19
2.26
2.43
2.71
3.00
3.17
3.06
2.63
1.93
1.11
0.38
-0.16
-0.50
-0.70
-0.83
-0.94
-1.02
-1.04
-0.98
-0.87
-0.75
-0.63
-0.51
-0.37
-0.20
-0.01
0.18
0.30
0.34
0.27
0.12
-0.08
-0.27
-0.34
-0.27
-0.03
0.31
0.69
1.02
1.26
1.43
1.52
1.55
1.51
1.37
1.18
1.01
0.95
1.05
1.30
1.65
1.99
2.24
2.33
2.22
1.90
1.36
0.65
-0.14
-0.87
-1.43
-1.75
-1.81
-1.65
-1.34
-0.92
-0.40
0.19
0.80
1.31
1.61
1.63
1.37
0.94
0.47
0.05
-0.29
-0.57
-0.86
-1.17
-1.49
-1.76
-1.91
-1.90
-1.75
-1.49
-1.19
-0.88
-0.60
-0.40
-0.32
-0.36
-0.52
-0.75
-0.96
-1.09
-1.10
-1.04
-0.95
-0.87
-0.78
-0.63
-0.31
0.19
0.81
1.38
1.72
1.71
1.34
0.73
0.04
-0.53
-0.90
-1.06
-1.13
-1.23
-1.45
-1.80
-2.22
-2.55
-2.66
-2.51
-2.14
-1.66
-1.23
-0.95
-0.82
-0.81
-0.86
-0.95
-1.06
-1.20
-1.32
-1.36
-1.29
-1.09
-0.88
-0.76
-0.79
-0.96
-1.14
-1.16
-0.95
-0.53
-0.04
0.35
0.52
0.47
0.29
0.12
0.07
0.18
0.43
0.79
1.20
1.60
1.89
2.01
1.87
1.49
0.97
0.47
0.15
0.14
0.42
0.86
1.30
1.59
1.67
1.60
1.48
1.40
1.41
1.44
1.43
1.29
1.00
0.61
0.21
-0.15
-0.42
-0.60
-0.72
-0.76
-0.73
-0.59
-0.34
-0.03
0.28
0.50
0.60
0.58
0.50
0.41
0.33
0.29
0.27
0.26
0.26
0.29
0.34
0.41
0.46
0.43
0.30
0.08
-0.20
-0.48
-0.72
-0.87
-0.92
-0.86
-0.72
-0.47
-0.15
0.20
0.50
0.66
0.64
0.44
0.16
-0.08
-0.18
-0.11
0.09
0.36
0.63
0.86
1.00
1.01
0.87
0.56
0.18
-0.19
-0.43
-0.50
-0.44
-0.36
-0.38
-0.53
-0.78
-1.02
-1.16
-1.17
-1.07
-0.96
-0.89
-0.88
-0.93
-1.01
-1.06
-1.04
-0.91
-0.65
-0.25
0.22
0.67
0.99
1.10
1.00
0.74
0.45
0.22
0.11
0.12
0.21
0.35
0.49
0.57
0.54
0.34
-0.04
-0.57
-1.11
-1.51
-1.62
-1.43
-1.01
-0.52
-0.10
0.14
0.19
0.14
0.11
0.19
0.43
0.78
1.15
1.45
1.62
1.70
1.72
1.74
1.76
1.77
1.73
1.66
1.58
1.54
1.54
1.55
1.50
1.38
1.21
1.03
0.90
0.84
0.84
0.86
0.86
0.82
0.73
0.55
0.26
-0.16
-0.69
-1.25
-1.71
-1.96
-1.92
-1.65
-1.25
-0.86
-0.59
-0.45
-0.42
-0.44
-0.48
-0.54
-0.61
-0.67
-0.65
-0.51
-0.21
0.17
0.57
0.88
1.08
1.17
1.20
1.16
1.06
0.88
0.61
0.31
0.00
-0.28
-0.54
-0.79
-1.04
-1.26
-1.43
-1.50
-1.46
-1.35
-1.23
-1.14
-1.10
-1.09
-1.10
-1.12
-1.15
-1.18
-1.19
-1.10
-0.89
-0.55
-0.20
0.04
0.03
-0.23
-0.65
-1.05
-1.28
-1.27
-1.08
-0.86
-0.71
-0.69
-0.74
-0.80
-0.81
-0.76
-0.72
-0.71
-0.74
-0.78
-0.75
-0.60
-0.30
0.10
0.51
0.83
1.00
1.03
0.99
1.00
1.15
1.44
1.81
2.12
2.27
2.16
1.82
1.31
0.75
0.27
-0.01
-0.04
0.20
0.60
1.04
1.37
1.48
1.34
1.01
0.61
0.24
0.02
0.00
0.20
0.58
1.07
1.57
1.97
2.18
2.14
1.87
1.41
0.82
0.15
-0.59
-1.38
-2.21
-3.07
-3.88
-4.53
-4.90
-4.84
-4.30
-3.37
-2.21
-1.10
-0.29
0.08
-0.01
-0.45
-1.05
-1.64
-2.06
-2.21
-2.04
-1.59
-0.93
-0.19
0.46
0.93
1.16
1.13
0.87
0.42
-0.15
-0.74
-1.20
-1.41
-1.31
-0.90
-0.27
0.45
1.14
1.69
2.04
2.17
2.07
1.81
1.46
1.14
0.92
0.80
0.77
0.78
0.77
0.75
0.71
0.60
0.35
-0.10
-0.77
-1.57
-2.32
-2.83
-3.00
-2.84
-2.51
-2.20
-2.03
-2.02
-2.06
-2.04
-1.90
-1.67
-1.46
-1.36
-1.35
-1.33
-1.15
-0.74
-0.09
0.67
1.39
1.94
2.26
2.37
2.32
2.19
2.04
1.90
1.78
1.66
1.52
1.32
1.05
0.75
0.48
0.28
0.18
0.18
0.22
0.23
0.18
0.06
-0.05
-0.09
0.01
0.24
0.53
0.74
0.76
0.57
0.24
-0.08
-0.23
-0.16
0.08
0.35
0.53
0.57
0.50
0.38
0.25
0.12
-0.03
-0.23
-0.45
-0.65
-0.78
-0.83
-0.80
-0.74
-0.68
-0.63
-0.61
-0.62
-0.61
-0.55
-0.38
-0.11
0.20
0.46
0.55
0.46
0.27
0.12
0.10
0.26
0.53
0.81
1.00
1.10
1.13
1.15
1.16
1.13
1.00
0.80
0.60
0.46
0.42
0.41
0.32
0.05
-0.42
-0.97
-1.41
-1.59
-1.48
-1.16
-0.79
-0.50
-0.32
-0.18
-0.02
0.20
0.42
0.52
0.41
0.10
-0.33
-0.67
-0.78
-0.61
-0.22
0.23
0.55
0.66
0.55
0.33
0.14
0.05
0.09
0.17
0.20
0.11
-0.09
-0.34
-0.55
-0.64
-0.63
-0.56
-0.51
-0.56
-0.69
-0.84
-0.91
-0.86
-0.69
-0.47
-0.29
-0.18
-0.13
-0.07
0.03
0.14
0.17
0.04
-0.28
-0.73
-1.14
-1.34
-1.23
-0.85
-0.35
0.11
0.39
0.48
0.45
0.38
0.30
0.20
0.07
-0.09
-0.22
-0.27
-0.20
-0.07
0.03
0.04
-0.05
-0.16
-0.21
-0.13
0.02
0.15
0.18
0.08
-0.08
-0.17
-0.11
0.11
0.42
0.69
0.82
0.79
0.68
0.59
0.59
0.67
0.74
0.71
0.51
0.18
-0.15
-0.37
-0.37
-0.16
0.17
0.44
0.52
0.36
0.05
-0.24
-0.34
-0.18
0.20
0.60
0.82
0.77
0.50
0.17
-0.02
0.06
0.34
0.67
0.83
0.70
0.31
-0.17
-0.56
-0.71
-0.59
-0.32
-0.03
0.19
0.30
0.36
0.42
0.52
0.63
0.69
0.66
0.52
0.32
0.15
0.08
0.14
0.30
0.46
0.50
0.40
0.17
-0.09
-0.26
-0.26
-0.12
0.08
0.20
0.14
-0.09
-0.37
-0.55
-0.49
-0.17
0.33
0.81
1.11
1.14
0.92
0.56
0.19
-0.12
-0.32
-0.43
-0.42
-0.32
-0.13
0.07
0.19
0.13
-0.15
-0.59
-1.07
-1.46
-1.65
-1.58
-1.28
-0.83
-0.34
0.09
0.37
0.43
0.31
0.07
-0.16
-0.28
-0.25
-0.09
0.12
0.32
0.43
0.45
0.41
0.39
0.44
0.57
0.75
0.89
0.91
0.78
0.54
0.28
0.15
0.20
0.41
0.65
0.78
0.70
0.45
0.14
-0.10
-0.22
-0.20
-0.10
0.01
0.09
0.13
0.11
0.04
-0.08
-0.22
-0.31
-0.29
-0.16
-0.01
0.06
-0.05
-0.32
-0.62
-0.78
-0.70
-0.38
0.04
0.38
0.49
0.36
0.09
-0.15
-0.25
-0.20
-0.10
-0.05
-0.09
-0.20
-0.29
-0.32
-0.32
-0.34
-0.43
-0.57
-0.66
-0.63
-0.44
-0.20
0.00
0.07
0.02
-0.10
-0.19
-0.22
-0.20
-0.19
-0.21
-0.28
-0.40
-0.56
-0.74
-0.91
-0.98
-0.87
-0.57
-0.14
0.27
0.51
0.46
0.15
-0.33
-0.82
-1.19
-1.35
-1.28
-1.01
-0.56
0.07
0.85
1.71
2.55
3.20
3.51
3.36
2.74
1.74
0.57
-0.52
-1.31
-1.66
-1.54
-1.01
-0.22
0.72
1.70
2.64
3.47
4.17
4.74
5.17
5.47
5.64
5.66
5.48
5.08
4.46
3.69
2.88
2.13
1.53
1.10
0.78
0.52
0.28
0.07
-0.07
-0.11
-0.08
-0.05
-0.12
-0.36
-0.75
-1.21
-1.62
-1.90
-2.03
-2.03
-1.99
-1.94
-1.91
-1.88
-1.85
-1.81
-1.76
-1.69
-1.60
-1.48
-1.34
-1.21
-1.11
-1.04
-0.99
-0.98
-1.05
-1.27
-1.64
-2.11
-2.55
-2.82
-2.83
-2.60
-2.21
-1.82
-1.53
-1.39
-1.37
-1.41
-1.49
-1.58
-1.69
-1.82
-1.95
-2.07
-2.18
-2.26
-2.34
-2.43
-2.56
-2.75
-2.99
-3.21
-3.36
-3.43
-3.46
-3.56
-3.86
-4.40
-5.08
-5.72
-6.12
-6.18
-5.95
-5.59
-5.27
-5.12
-5.10
-5.03
-4.65
-3.75
-2.28
-0.37
1.77
3.80
5.26
5.78
5.16
3.46
1.06
-1.52
-3.67
-4.77
-4.54
-3.14
-1.12
0.97
2.83
4.58
6.67
9.56
13.67
18.81
24.19
28.81
31.86
33.09
32.84
31.63
28.69
23.92
17.91
11.82
6.79
3.40
1.67
1.27
1.53
1.73
1.69
1.31
0.59
-0.38
-1.36
-2.34
-3.38
-4.76
-6.77
-9.08
-11.33
-13.21
-14.44
-14.89
-14.68
-14.04
-13.48
-13.52
-13.79
-14.29
-15.28
-16.96
-19.30
-21.92
-23.34
-22.48
-20.71
-18.98
-17.39
-16.36
-15.99
-15.97
-15.70
-14.53
-12.10
-8.23
-2.61
4.76
13.42
22.57
31.11
37.82
41.69
42.17
39.40
34.42
28.58
23.26
19.70
18.70
20.37
24.05
28.39
31.80
33.03
31.44
27.09
20.65
13.09
5.39
-1.53
-6.91
-10.27
-11.61
-11.42
-10.50
-9.62
-9.27
-9.48
-9.95
-10.36
-10.63
-11.17
-12.37
-14.04
-15.47
-15.78
-14.49
-11.76
-8.36
-5.34
-4.08
-5.30
-8.84
-13.95
-19.91
-26.26
-32.68
-38.72
-43.71
-47.53
-50.18
-51.73
-52.42
-52.83
-53.45
-54.21
-54.41
-49.28
-36.74
-18.88
-0.48
14.86
26.36
35.15
42.47
48.50
52.32
52.17
47.35
39.00
30.04
22.69
18.23
16.54
16.38
16.11
14.15
10.01
4.47
-0.99
-5.18
-7.62
-8.62
-8.48
-7.83
-7.37
-7.46
-7.94
-8.28
-7.77
-5.53
-0.30
8.10
18.17
27.13
32.39
32.70
28.52
21.52
13.84
7.29
2.61
-0.81
-3.78
-6.72
-9.53
-11.73
-12.80
-12.29
-10.14
-6.89
-3.51
-1.16
-0.60
-1.89
-4.45
-7.25
-8.98
-8.50
-5.38
-0.06
6.56
13.32
18.67
20.41
15.46
1.47
-20.58
-45.23
-64.68
-72.40
-65.99
-48.00
-24.70
-3.21
11.52
18.25
19.43
17.88
15.52
13.18
11.00
8.81
6.60
4.78
3.91
4.23
5.27
6.28
6.22
4.99
3.13
1.59
1.38
3.23
7.18
12.51
18.14
23.07
26.70
28.77
29.28
28.30
25.85
21.82
16.03
8.57
0.04
-8.41
-15.27
-18.98
-18.30
-12.71
-2.74
9.94
22.92
33.64
40.12
41.51
38.26
31.93
24.51
17.74
12.58
9.09
6.66
4.39
1.58
-2.13
-6.64
-11.60
-16.58
-21.18
-25.07
-27.93
-29.47
-29.53
-28.18
-25.80
-23.08
-20.79
-19.58
-19.63
-20.70
-22.17
-23.36
-23.83
-23.52
-22.79
-22.19
-22.21
-23.05
-24.49
-26.01
-26.95
-26.73
-25.06
-21.94
-17.65
-12.61
-7.22
-1.86
3.19
7.73
11.60
14.76
17.28
19.35
21.24
23.18
25.20
27.10
28.53
29.09
28.54
26.93
24.55
21.85
19.24
16.98
15.14
13.65
12.40
11.29
10.24
9.26
8.35
7.58
7.03
6.72
6.60
6.53
6.30
5.75
4.81
3.43
1.65
-0.44
-2.55
-4.25
-4.97
-4.23
-1.94
1.55
5.53
9.22
12.14
14.19
15.62
16.70
17.53
18.01
18.01
17.53
16.72
15.81
14.90
13.94
12.84
11.58
10.31
9.19
8.24
7.23
5.80
3.74
1.17
-1.40
-3.29
-3.96
-3.26
-1.46
0.81
2.87
4.21
4.55
3.87
2.26
-0.17
-3.38
-7.44
-12.43
-18.37
-25.07
-32.14
-39.00
-45.05
-49.87
-53.35
-55.88
-58.23
-61.32
-65.78
-71.59
-77.86
-83.12
-85.75
-84.52
-78.80
-68.54
-54.04
-35.88
-15.13
6.55
26.82
43.26
54.11
59.02
59.02
56.02
51.80
47.29
42.55
37.21
31.14
24.82
19.16
15.09
13.07
13.08
14.78
17.80
21.89
26.81
32.14
37.21
41.25
43.67
44.34
43.54
41.82
39.67
37.38
35.04
32.67
30.38
28.32
26.64
25.18
23.44
20.87
17.25
13.03
9.35
7.63
8.88
13.35
20.31
28.44
36.50
43.74
49.96
55.15
59.04
60.64
58.98
53.15
43.11
29.96
15.72
2.50
-8.35
-16.87
-24.72
-33.36
-44.15
-57.26
-71.63
-85.56
-97.45
-106.31
-111.72
-114.14
-112.94
-108.35
-101.08
-92.49
-84.36
-78.21
-74.62
-72.86
-71.95
-69.34
-64.32
-57.74
-51.71
-48.25
-47.86
-48.75
-42.84
-32.50
-15.47
6.43
28.96
47.49
59.21
64.20
64.81
63.92
62.42
60.82
57.78
52.29
44.78
37.01
31.14
28.37
28.37
28.93
28.67
26.39
22.08
16.68
11.25
6.31
1.76
-2.66
-7.09
-10.24
-10.90
-8.28
-2.70
4.43
11.18
15.96
18.19
18.09
16.82
15.20
13.63
12.02
10.18
8.09
5.95
4.10
2.67
1.67
0.89
0.05
-0.98
-2.14
-3.19
-3.91
-4.12
-3.87
-3.31
-2.73
-2.40
-2.48
-3.06
-4.08
-5.41
-6.84
-8.15
-9.14
-9.70
-9.83
-9.59
-9.04
-8.15
-6.78
-4.80
-2.20
0.80
3.78
6.33
8.20
9.47
10.44
11.49
12.80
14.25
15.51
16.22
16.16
15.39
14.14
12.71
11.34
10.15
9.16
8.31
7.55
6.79
5.94
4.92
3.70
2.37
1.07
-0.01
-0.73
-1.07
-1.16
-1.18
-1.33
-1.71
-2.34
-3.22
-4.31
-5.56
-6.91
-8.23
-9.31
-10.00
-10.17
-9.85
-9.18
-8.37
-7.66
-7.19
-7.01
-7.04
-7.12
-7.11
-6.94
-6.65
-6.31
-6.00
-5.72
-5.48
-5.26
-5.16
-5.29
-5.74
-6.48
-7.34
-8.12
-8.70
-9.15
-9.70
-10.57
-11.87
-13.52
-15.32
-17.05
-18.60
-19.97
-21.18
-22.22
-23.04
-23.53
-23.56
-23.00
-21.65
-19.26
-15.61
-10.58
-4.27
2.97
10.61
18.12
25.08
31.21
36.33
40.35
43.17
44.80
45.31
44.92
43.92
42.59
41.13
39.58
37.85
35.79
33.29
30.27
26.74
22.74
18.35
13.69
8.95
4.34
0.14
-3.43
-6.25
-8.31
-9.71
-10.55
-10.93
-10.92
-10.59
-10.07
-9.55
-9.25
-9.29
-9.65
-10.21
-10.79
-11.26
-11.56
-11.66
-11.54
-11.12
-10.38
-9.31
-8.02
-6.68
-5.43
-4.36
-3.47
-2.75
-2.21
-1.96
-2.11
-2.71
-3.67
-4.78
-5.74
-6.39
-6.68
-6.72
-6.68
-6.70
-6.78
-6.83
-6.75
-6.49
-6.07
-5.65
-5.39
-5.41
-5.75
-6.35
-7.06
-7.77
-8.39
-8.87
-9.20
-9.36
-9.32
-9.07
-8.60
-7.94
-7.12
-6.21
-5.25
-4.28
-3.31
-2.36
-1.45
-0.61
0.07
0.53
0.81
1.06
1.52
2.42
3.79
5.42
6.88
7.81
8.08
7.92
7.81
8.17
9.10
10.36
11.50
12.13
12.15
11.72
11.04
10.24
9.24
7.94
6.37
4.77
3.45
2.65
2.29
2.05
1.48
0.32
-1.39
-3.32
-5.02
-6.18
-6.73
-6.83
-6.77
-6.76
-6.89
-7.10
-7.31
-7.45
-7.51
-7.52
-7.45
-7.25
-6.85
-6.21
-5.41
-4.61
-4.07
-3.97
-4.45
-5.46
-6.89
-8.50
-10.05
-11.32
-12.17
-12.51
-12.35
-11.70
-10.57
-8.93
-6.77
-4.16
-1.24
1.75
4.58
7.06
9.06
10.50
11.36
11.62
11.30
10.50
9.35
8.02
6.64
5.30
4.06
3.01
2.29
2.07
2.43
3.31
4.49
5.69
6.68
7.36
7.80
8.17
8.63
9.25
9.99
10.73
11.38
11.88
12.21
12.33
12.16
11.59
10.54
9.05
7.26
5.39
3.71
2.39
1.59
1.34
1.66
2.46
3.58
4.77
5.72
6.11
5.75
4.64
3.02
1.28
-0.09
-0.76
-0.59
0.26
1.45
2.59
3.39
3.75
3.68
3.22
2.37
1.08
-0.66
-2.72
-4.80
-6.57
-7.83
-8.57
-9.00
-9.39
-9.88
-10.47
-11.02
-11.39
-11.58
-11.69
-11.88
-12.22
-12.64
-13.01
-13.30
-13.58
-14.08
-14.95
-16.09
-17.11
-17.43
-16.54
-14.30
-11.01
-7.28
-3.75
-0.86
1.28
2.77
3.77
4.31
4.32
3.69
2.43
0.68
-1.29
-3.22
-4.94
-6.30
-7.16
-7.43
-7.06
-6.14
-4.88
-3.55
-2.32
-1.11
0.40
2.55
5.35
8.28
10.34
10.35
7.42
1.31
-7.31
-16.89
-25.45
-31.15
-32.86
-30.39
-24.43
-16.31
-7.63
0.20
6.45
10.99
14.05
15.96
17.13
18.05
19.23
20.93
23.06
25.49
27.91
30.01
31.59
32.84
34.22
36.09
38.24
39.87
40.56
40.32
39.66
39.37
40.35
43.32
48.48
55.29
59.16
56.13
44.86
27.91
9.79
-5.72
-16.78
-23.33
-26.45
-27.65
-27.66
-26.62
-24.44
-21.41
-18.24
-15.77
-14.83
-15.83
-18.60
-22.00
-24.61
-25.43
-24.43
-22.37
-20.27
-18.94
-18.70
-19.33
-20.04
-20.09
-18.71
-16.12
-13.12
-10.64
-9.31
-9.24
-10.07
-11.07
-11.50
-10.93
-9.52
-7.71
-5.99
-4.69
-3.85
-3.31
-2.80
-2.13
-1.22
-0.22
0.72
1.46
1.89
1.82
1.04
-0.61
-3.03
-5.80
-8.23
-9.59
-9.42
-7.71
-4.90
-1.65
1.46
4.08
6.18
7.85
9.17
10.08
10.45
10.18
9.34
8.22
7.23
6.76
6.98
7.77
8.78
9.55
9.72
9.21
8.16
6.86
5.55
4.31
3.04
1.60
-0.11
-1.99
-3.78
-5.16
-5.93
-6.07
-5.83
-5.52
-5.46
-5.75
-6.30
-6.87
-7.21
-7.18
-6.80
-6.21
-5.59
-5.14
-4.94
-4.99
-5.22
-5.54
-5.86
-6.09
-6.18
-6.11
-5.88
-5.49
-5.00
-4.50
-4.08
-3.84
-3.86
-4.12
-4.55
-5.02
-5.37
-5.45
-5.23
-4.73
-4.11
-3.53
-3.18
-3.12
-3.27
-3.45
-3.42
-2.96
-1.93
-0.29
1.83
4.14
6.21
7.57
7.90
7.19
5.80
4.43
3.81
4.39
6.17
8.67
11.19
13.07
13.91
13.69
12.62
11.10
9.53
8.24
7.46
7.21
7.31
7.41
7.06
5.90
3.81
1.04
-1.90
-4.37
-5.87
-6.19
-5.48
-4.09
-2.44
-0.87
0.37
1.08
1.08
0.16
-1.74
-4.46
-7.57
-10.50
-12.70
-13.86
-13.88
-12.82
-10.76
-7.81
-4.18
-0.33
3.07
5.33
5.98
4.99
2.73
-0.22
-3.32
-6.15
-8.48
-10.15
-11.03
-11.15
-10.72
-10.19
-10.00
-10.39
-11.20
-12.00
-12.30
-11.88
-10.86
-9.61
-8.46
-7.46
-6.32
-4.57
-1.84
1.96
6.51
11.21
15.44
18.70
20.74
21.51
21.12
19.71
17.50
14.79
12.03
9.72
8.37
8.21
9.16
10.81
12.62
14.07
14.88
15.04
14.84
14.73
15.12
16.26
18.11
20.49
23.06
25.44
27.30
28.44
28.76
28.12
26.32
23.19
18.83
13.55
7.78
1.91
-3.72
-8.88
-13.40
-17.07
-19.54
-20.26
-18.84
-15.45
-11.05
-7.20
-5.60
-7.71
-14.30
-25.00
-37.71
-48.44
-52.93
-49.14
-38.25
-23.60
-9.27
1.24
6.01
5.12
0.24
-5.93
-10.85
-12.83
-11.23
-6.74
-1.51
1.26
-1.61
-11.68
-27.26
-43.67
-54.46
-53.56
-38.13
-9.91
25.53
60.97
88.57
103.37
104.61
94.15
75.30
51.71
26.96
4.59
-12.39
-22.38
-25.54
-23.91
-20.84
-18.91
-19.83
-23.95
-30.16
-36.30
-39.98
-39.37
-33.63
-24.94
-16.66
-10.74
-7.95
-7.50
-7.63
-6.57
-3.29
2.16
8.73
14.93
19.38
21.28
20.63
18.01
14.44
10.99
8.43
6.84
5.90
5.07
3.78
1.87
-0.73
-3.86
-7.15
-10.15
-12.39
-13.43
-12.95
-11.02
-8.04
-4.62
-1.37
1.22
2.81
3.24
2.61
1.28
-0.23
-1.42
-1.96
-1.72
-0.83
0.57
2.39
4.68
7.45
10.50
13.35
15.36
16.09
15.46
13.84
11.86
10.18
9.20
8.96
9.24
9.62
9.72
9.27
8.22
6.70
4.97
3.29
1.88
0.89
0.37
0.38
0.84
1.54
2.07
1.93
0.70
-1.74
-5.09
-8.68
-11.74
-13.65
-14.18
-13.51
-12.13
-10.62
-9.43
-8.74
-8.50
-8.48
-8.44
-8.18
-7.63
-6.85
-5.96
-5.13
-4.50
-4.19
-4.25
-4.61
-5.13
-5.65
-6.02
-6.22
-6.28
-6.26
-6.13
-5.73
-4.86
-3.45
-1.64
0.12
1.21
1.05
-0.64
-3.64
-7.31
-10.77
-13.21
-14.12
-13.44
-11.47
-8.75
-5.82
-3.11
-0.88
0.75
1.77
2.26
2.34
2.19
2.06
2.15
2.60
3.40
4.40
5.34
5.92
5.95
5.40
4.43
3.38
2.62
2.39
2.76
3.52
4.34
4.90
5.00
4.65
4.02
3.35
2.83
2.57
2.55
2.71
2.98
3.29
3.55
3.69
3.60
3.18
2.45
1.53
0.64
0.04
-0.12
0.15
0.71
1.31
1.77
2.00
2.04
1.97
1.82
1.59
1.25
0.86
0.54
0.44
0.66
1.14
1.73
2.19
2.39
2.31
2.04
1.70
1.41
1.19
1.04
0.95
0.91
0.93
1.05
1.26
1.57
1.94
2.32
2.66
2.91
3.01
2.98
2.83
2.60
2.34
2.07
1.84
1.73
1.79
2.06
2.47
2.87
3.09
2.98
2.49
1.72
0.83
-0.01
-0.68
-1.15
-1.50
-1.79
-2.05
-2.15
-1.87
-1.01
0.49
2.46
4.48
6.03
6.70
6.28
4.80
2.55
-0.05
-2.52
-4.34
-5.04
-4.33
-2.25
0.76
3.92
6.32
7.23
6.33
3.77
0.11
-3.90
-7.49
-10.07
-11.28
-11.04
-9.56
-7.33
-4.98
-3.12
-2.12
-2.03
-2.54
-3.18
-3.53
-3.41
-2.90
-2.30
-1.88
-1.78
-1.91
-1.99
-1.71
-0.87
0.54
2.29
4.04
5.44
6.27
6.42
5.95
5.01
3.75
2.34
0.94
-0.27
-1.14
-1.57
-1.53
-1.09
-0.41
0.31
0.83
0.98
0.68
0.00
-0.87
-1.71
-2.29
-2.52
-2.45
-2.24
-2.06
-2.06
-2.23
-2.43
-2.50
-2.32
-1.91
-1.40
-0.97
-0.76
-0.77
-0.88
-0.91
-0.72
-0.30
0.26
0.81
1.23
1.48
1.61
1.66
1.62
1.46
1.14
0.70
0.29
0.06
0.12
0.43
0.79
0.98
0.80
0.23
-0.61
-1.49
-2.22
-2.67
-2.87
-2.90
-2.83
-2.72
-2.59
-2.40
-2.17
-1.88
-1.55
-1.18
-0.77
-0.32
0.15
0.61
1.05
1.47
1.87
2.27
2.62
2.88
2.99
2.96
2.83
2.67
2.56
2.47
2.38
2.20
1.92
1.55
1.14
0.74
0.38
0.03
-0.33
-0.69
-1.02
-1.28
-1.42
-1.44
-1.40
-1.39
-1.48
-1.72
-2.10
-2.53
-2.93
-3.22
-3.39
-3.44
-3.40
-3.31
-3.13
-2.76
-2.13
-1.17
0.11
1.58
3.02
4.22
4.98
5.22
4.97
4.33
3.47
2.55
1.74
1.17
0.91
0.94
1.16
1.35
1.29
0.82
-0.07
-1.20
-2.28
-3.01
-3.24
-3.02
-2.51
-1.94
-1.46
-1.11
-0.84
-0.57
-0.28
-0.00
0.24
0.44
0.62
0.84
1.13
1.47
1.79
1.99
2.00
1.78
1.37
0.88
0.42
0.08
-0.10
-0.18
-0.21
-0.24
-0.28
-0.30
-0.27
-0.19
-0.12
-0.13
-0.26
-0.49
-0.76
-0.94
-0.97
-0.83
-0.54
-0.17
0.22
0.55
0.75
0.77
0.60
0.26
-0.18
-0.63
-0.97
-1.16
-1.18
-1.12
-1.06
-1.07
-1.17
-1.33
-1.48
-1.57
-1.57
-1.49
-1.38
-1.23
-1.07
-0.88
-0.64
-0.36
-0.08
0.13
0.22
0.18
0.07
-0.05
-0.09
-0.02
0.11
0.18
0.08
-0.23
-0.64
-1.00
-1.12
-0.91
-0.38
0.34
1.05
1.58
1.82
1.73
1.35
0.76
0.10
-0.49
-0.90
-1.07
-1.03
-0.83
-0.58
-0.34
-0.15
0.02
0.21
0.44
0.74
1.05
1.32
1.48
1.47
1.30
1.05
0.78
0.57
0.45
0.39
0.35
0.30
0.24
0.16
0.13
0.15
0.24
0.36
0.49
0.61
0.71
0.80
0.89
0.97
1.01
1.00
0.93
0.80
0.65
0.49
0.37
0.27
0.21
0.17
0.15
0.16
0.20
0.26
0.31
0.35
0.34
0.25
0.08
-0.13
-0.30
-0.38
-0.34
-0.23
-0.12
-0.11
-0.24
-0.50
-0.80
-1.07
-1.29
-1.46
-1.64
-1.82
-1.99
-2.11
-2.17
-2.20
-2.23
-2.30
-2.39
-2.49
-2.62
-2.76
-2.94
-3.11
-3.27
-3.39
-3.54
-3.84
-4.40
-5.22
-6.13
-6.82
-6.98
-6.43
-5.22
-3.54
-1.66
0.23
2.02
3.68
5.19
6.53
7.66
8.60
9.37
9.99
10.42
10.56
10.29
9.59
8.51
7.23
5.91
4.66
3.45
2.24
1.02
-0.09
-0.91
-1.27
-1.14
-0.65
-0.09
0.26
0.25
-0.13
-0.70
-1.22
-1.50
-1.44
-1.09
-0.63
-0.24
-0.09
-0.26
-0.69
-1.21
-1.61
-1.73
-1.49
-0.96
-0.34
0.20
0.49
0.52
0.37
0.17
0.06
0.08
0.18
0.24
0.13
-0.22
-0.79
-1.46
-2.10
-2.59
-2.87
-2.97
-2.95
-2.88
-2.83
-2.81
-2.82
-2.80
-2.68
-2.37
-1.80
-0.98
-0.02
0.81
1.21
1.00
0.18
-1.04
-2.32
-3.32
-3.81
-3.69
-2.99
-1.86
-0.50
0.89
2.11
3.06
3.68
4.04
4.22
4.32
4.41
4.51
4.57
4.52
4.28
3.76
2.90
1.69
0.19
-1.46
-3.03
-4.27
-4.93
-4.87
-4.13
-2.95
-1.70
-0.76
-0.33
-0.41
-0.74
-1.06
-1.18
-1.11
-1.01
-1.10
-1.46
-2.06
-2.74
-3.30
-3.56
-3.46
-2.98
-2.23
-1.32
-0.38
0.48
1.25
1.92
2.53
3.11
3.61
3.95
4.05
3.87
3.47
2.95
2.44
2.02
1.68
1.37
0.99
0.49
-0.12
-0.80
-1.47
-2.03
-2.40
-2.53
-2.40
-2.08
-1.66
-1.27
-1.00
-0.88
-0.83
-0.74
-0.53
-0.19
0.21
0.59
0.88
1.07
1.20
1.29
1.31
1.20
0.87
0.32
-0.37
-1.03
-1.49
-1.66
-1.57
-1.34
-1.14
-1.05
-1.08
-1.13
-1.06
-0.82
-0.43
0.01
0.39
0.64
0.80
0.95
1.16
1.49
1.94
2.45
2.96
3.40
3.70
3.83
3.76
3.52
3.17
2.80
2.51
2.32
2.21
2.10
1.90
1.62
1.31
1.09
1.04
1.17
1.42
1.66
1.77
1.67
1.37
0.90
0.35
-0.21
-0.69
-1.05
-1.28
-1.37
-1.40
-1.41
-1.44
-1.50
-1.61
-1.75
-1.94
-2.17
-2.38
-2.47
-2.37
-2.08
-1.70
-1.41
-1.34
-1.51
-1.82
-2.07
-2.08
-1.75
-1.15
-0.44
0.21
0.67
0.92
1.00
1.00
0.94
0.86
0.74
0.61
0.53
0.61
0.89
1.36
1.92
2.43
2.76
2.84
2.69
2.38
2.00
1.61
1.30
1.10
1.04
1.08
1.11
1.00
0.61
-0.09
-0.99
-1.86
-2.48
-2.68
-2.44
-1.91
-1.33
-0.91
-0.79
-0.92
-1.18
-1.35
-1.27
-0.86
-0.17
0.64
1.38
1.87
2.02
1.90
1.63
1.37
1.24
1.21
1.19
1.07
0.80
0.43
0.07
-0.19
-0.30
-0.32
-0.29
-0.26
-0.21
-0.10
0.10
0.39
0.73
1.04
1.30
1.48
1.56
1.55
1.43
1.25
1.05
0.89
0.82
0.83
0.86
0.83
0.71
0.47
0.13
-0.26
-0.65
-0.96
-1.16
-1.23
-1.19
-1.12
-1.11
-1.23
-1.51
-1.86
-2.17
-2.27
-2.08
-1.61
-0.98
-0.37
0.05
0.25
0.31
0.36
0.49
0.66
0.75
0.56
0.01
-0.79
-1.58
-2.03
-1.88
-1.11
0.06
1.26
2.12
2.43
2.20
1.62
0.97
0.43
0.06
-0.20
-0.44
-0.69
-0.87
-0.89
-0.75
-0.51
-0.31
-0.27
-0.39
-0.56
-0.62
-0.42
0.02
0.58
1.06
1.26
1.08
0.58
-0.05
-0.56
-0.72
-0.40
0.33
1.28
2.19
2.83
3.08
2.98
2.61
2.12
1.62
1.19
0.85
0.62
0.46
0.38
0.34
0.33
0.36
0.39
0.37
0.22
-0.12
-0.67
-1.33
-1.95
-2.34
-2.39
-2.09
-1.52
-0.81
-0.09
0.54
1.03
1.32
1.36
1.13
0.71
0.24
-0.11
-0.19
-0.01
0.35
0.69
0.88
0.86
0.69
0.48
0.29
0.16
0.04
-0.14
-0.40
-0.72
-1.02
-1.21
-1.22
-1.04
-0.73
-0.37
-0.07
0.09
0.06
-0.11
-0.34
-0.53
-0.60
-0.52
-0.31
-0.02
0.27
0.51
0.64
0.62
0.46
0.20
-0.04
-0.14
-0.04
0.22
0.52
0.68
0.52
-0.04
-0.98
-2.17
-3.40
-4.42
-4.96
-4.86
-4.14
-3.08
-2.19
-1.95
-2.62
-4.03
-5.59
-6.53
-6.25
-4.60
-1.94
1.01
3.49
4.99
5.39
4.93
4.03
3.12
2.49
2.28
2.52
3.20
4.23
5.50
6.80
7.82
8.25
7.84
6.54
4.59
2.43
0.62
-0.43
-0.59
-0.07
0.68
1.19
1.17
0.59
-0.33
-1.23
-1.83
-1.98
-1.74
-1.31
-0.96
-0.89
-1.23
-1.98
-2.98
-4.04
-4.96
-5.63
-6.07
-6.39
-6.78
-7.34
-8.09
-8.83
-9.24
-8.97
-7.78
-5.68
-2.98
-0.18
2.13
3.54
3.90
3.40
2.45
1.52
0.98
0.96
1.37
1.88
2.06
1.45
-0.26
-3.11
-6.79
-10.60
-13.64
-15.00
-14.07
-10.74
-5.47
0.86
7.09
12.08
14.93
15.22
13.11
9.36
5.09
1.49
-0.57
-0.76
0.72
3.27
6.16
8.81
10.78
11.84
11.91
11.07
9.59
7.86
6.29
5.13
4.40
3.89
3.30
2.41
1.25
-0.02
-1.13
-1.92
-2.39
-2.71
-3.13
-3.81
-4.71
-5.67
-6.41
-6.70
-6.49
-5.89
-5.11
-4.39
-3.86
-3.55
-3.39
-3.27
-3.14
-2.97
-2.75
-2.47
-2.12
-1.66
-1.12
-0.56
-0.08
0.22
0.29
0.12
-0.24
-0.68
-1.12
-1.42
-1.49
-1.24
-0.64
0.23
1.21
2.09
2.64
2.75
2.48
1.99
1.50
1.19
1.09
1.11
1.05
0.75
0.16
-0.64
-1.41
-1.91
-1.99
-1.64
-1.00
-0.25
0.42
0.92
1.21
1.28
1.14
0.78
0.22
-0.44
-1.06
-1.47
-1.57
-1.39
-1.06
-0.77
-0.67
-0.82
-1.19
-1.67
-2.10
-2.37
-2.40
-2.21
-1.86
-1.42
-0.98
-0.57
-0.25
-0.04
-0.00
-0.13
-0.38
-0.60
-0.65
-0.44
-0.03
0.42
0.69
0.69
0.44
0.12
-0.08
-0.04
0.22
0.59
0.93
1.18
1.36
1.54
1.76
1.99
2.14
2.12
1.88
1.48
1.01
0.58
0.23
-0.06
-0.36
-0.68
-1.00
-1.22
-1.25
-1.09
-0.74
-0.30
0.13
0.48
0.71
0.82
0.85
0.84
0.80
0.74
0.70
0.70
0.82
1.12
1.59
2.15
2.64
2.89
2.81
2.42
1.87
1.31
0.87
0.57
0.36
0.25
0.21
0.26
0.37
0.46
0.39
0.05
-0.61
-1.54
-2.58
-3.55
-4.29
-4.69
-4.75
-4.57
-4.27
-3.98
-3.74
-3.53
-3.22
-2.72
-2.04
-1.34
-0.80
-0.58
-0.63
-0.74
-0.62
-0.09
0.83
1.93
2.93
3.70
4.22
4.65
5.13
5.73
6.35
6.85
7.12
7.13
6.91
6.48
5.80
4.75
3.19
1.11
-1.33
-3.75
-5.67
-6.64
-6.44
-5.10
-2.97
-0.58
1.51
2.82
3.10
2.39
0.98
-0.64
-1.97
-2.66
-2.60
-1.91
-0.92
0.02
0.67
0.96
0.98
0.91
0.88
0.96
1.14
1.34
1.46
1.48
1.39
1.26
1.13
1.04
0.97
0.86
0.62
0.14
-0.62
-1.64
-2.76
-3.74
-4.30
-4.19
-3.31
-1.81
-0.04
1.42
1.98
1.25
-0.76
-3.52
-6.15
-7.76
-7.86
-6.61
-4.79
-3.42
-3.31
-4.66
-7.04
-9.64
-11.66
-12.60
-12.37
-11.17
-9.31
-7.01
-4.42
-1.71
0.88
3.06
4.60
5.48
5.93
6.44
7.50
9.38
11.99
14.87
17.25
18.38
17.73
15.19
11.13
6.35
1.80
-1.62
-3.34
-3.24
-1.61
0.90
3.57
5.69
6.77
6.53
5.02
2.54
-0.33
-2.91
-4.56
-4.90
-3.96
-2.16
-0.16
1.40
2.10
1.84
0.83
-0.64
-2.28
-3.94
-5.55
-7.03
-8.27
-9.03
-9.13
-8.45
-7.10
-5.35
-3.60
-2.17
-1.24
-0.77
-0.58
-0.43
-0.14
0.38
1.15
2.17
3.46
5.08
7.02
9.19
11.34
13.09
14.05
13.93
12.67
10.45
7.67
4.82
2.35
0.52
-0.63
-1.25
-1.58
-1.81
-2.05
-2.35
-2.69
-3.03
-3.35
-3.60
-3.74
-3.76
-3.64
-3.43
-3.17
-2.92
-2.67
-2.38
-2.00
-1.55
-1.09
-0.68
-0.39
-0.17
0.05
0.34
0.74
1.16
1.51
1.66
1.53
1.14
0.57
-0.03
-0.53
-0.83
-0.91
-0.79
-0.51
-0.10
0.46
1.11
1.76
2.18
2.12
1.40
0.05
-1.70
-3.45
-4.80
-5.53
-5.61
-5.22
-4.60
-3.98
-3.52
-3.24
-3.12
-3.09
-3.08
-3.05
-3.00
-2.96
-2.96
-2.94
-2.80
-2.42
-1.77
-1.00
-0.36
-0.10
-0.30
-0.81
-1.32
-1.51
-1.28
-0.80
-0.37
-0.28
-0.60
-1.15
-1.63
-1.81
-1.60
-1.12
-0.56
-0.11
0.13
0.15
0.00
-0.26
-0.55
-0.79
-0.92
-0.89
-0.68
-0.30
0.23
0.87
1.56
2.15
2.49
2.46
2.05
1.38
0.64
0.10
-0.11
0.06
0.43
0.78
0.86
0.56
-0.09
-0.93
-1.69
-2.07
-1.89
-1.15
0.01
1.33
2.51
3.26
3.39
2.91
2.04
1.09
0.23
-0.51
-1.12
-1.68
-2.25
-2.77
-3.05
-2.73
-1.55
0.18
1.94
3.21
3.63
3.09
1.84
0.48
-0.17
0.48
2.08
3.94
5.32
5.70
4.67
2.04
-2.13
-7.14
-11.72
-14.58
-14.14
-9.12
0.45
12.71
24.14
29.94
27.45
20.08
11.82
5.37
1.44
-0.31
-1.13
