1651147172.00
64.000000
-0.00
-0.00
-0.00
-0.00
-0.00
-0.00
-0.00
-0.00
-0.00
-0.00
0.00
0.01
0.01
-0.00
-0.03
-0.05
-0.05
0.00
0.13
0.36
0.66
1.01
1.37
1.72
2.06
2.40
2.79
3.24
3.80
4.42
5.06
5.66
6.20
6.68
7.15
7.68
8.31
9.14
10.09
11.04
11.88
12.56
13.14
13.76
14.65
15.96
17.91
20.32
22.90
25.38
27.58
29.57
31.68
34.32
37.81
42.54
48.15
54.10
59.83
64.97
69.58
74.14
79.34
85.71
93.76
103.00
112.62
121.73
129.77
136.75
143.30
150.75
157.77
166.64
177.95
191.79
206.97
220.57
228.25
225.36
208.53
176.87
132.76
80.05
23.07
-34.94
-92.44
-149.16
-205.23
-260.37
-313.75
-363.87
-409.82
-450.88
-486.47
-515.72
-537.27
-549.35
-550.19
-538.69
-514.60
-479.10
-434.30
-382.85
-327.42
-270.28
-213.16
-157.31
-103.73
-53.25
-6.82
34.68
70.55
100.47
124.54
143.23
157.30
167.52
174.58
178.93
180.82
180.39
177.77
173.22
167.10
159.92
152.19
144.37
136.69
129.18
121.66
113.90
105.71
97.09
88.29
79.70
71.75
64.69
58.48
52.78
47.12
41.04
34.39
27.41
20.58
14.51
9.60
5.92
3.15
0.72
-2.03
-5.75
-10.82
-17.16
-23.88
-29.30
-31.23
-27.83
-18.51
-4.50
11.37
25.69
35.69
40.25
40.09
37.21
33.93
31.96
32.12
34.27
37.66
41.30
44.20
45.48
44.58
41.38
36.31
30.17
23.96
18.47
14.10
10.79
8.23
6.02
3.92
1.94
0.18
-1.22
-2.20
-2.80
-3.06
-2.91
-2.30
-1.26
-0.05
0.88
1.05
0.21
-1.52
-3.67
-5.61
-6.77
-6.97
-6.41
-5.65
-5.27
-5.61
-6.62
-7.84
-8.64
-8.62
-7.68
-6.17
-4.58
-3.37
-2.81
-2.87
-3.36
-3.94
-4.13
-3.28
-0.74
3.90
10.47
18.06
25.20
30.39
32.70
32.04
29.12
25.05
20.83
17.00
13.68
10.75
8.07
5.57
3.29
1.30
-0.54
-2.40
-4.38
-6.48
-8.57
-10.45
-11.90
-12.81
-13.22
-13.35
-13.44
-13.70
-14.17
-14.71
-15.04
-14.94
-14.37
-13.49
-12.63
-12.06
-11.89
-11.99
-12.08
-11.87
-11.19
-10.11
-8.85
-7.73
-7.06
-7.04
-7.68
-8.78
-9.81
-10.01
-8.53
-4.76
1.30
8.88
16.52
22.58
25.74
25.50
22.27
17.15
11.39
6.04
1.59
-1.88
-4.54
-6.55
-7.94
-8.68
-8.74
-8.20
-7.26
-6.14
-5.01
-3.96
-2.99
-2.10
-1.27
-0.57
-0.08
0.20
0.21
-0.08
-0.70
-1.72
-3.20
-5.15
-7.49
-9.97
-12.27
-14.12
-15.42
-16.27
-17.02
-18.11
-19.96
-22.85
-26.72
-31.07
-34.89
-36.74
-35.13
-29.04
-18.38
-4.22
11.46
26.35
38.49
46.82
51.23
52.35
51.03
47.97
43.59
38.13
31.83
25.14
18.65
12.97
8.49
5.28
3.10
1.58
0.38
-0.58
-1.25
-1.50
-1.28
-0.75
-0.21
-0.01
-0.42
-1.59
-3.47
-5.92
-8.73
-11.62
-14.37
-16.78
-18.82
-20.52
-22.05
-23.64
-25.50
-27.88
-31.01
-34.99
-39.56
-43.94
-46.74
-46.31
-41.29
-31.26
-17.10
-0.83
15.07
28.46
38.13
43.91
46.39
46.36
44.46
41.08
36.51
31.10
25.35
19.79
14.81
10.59
7.11
4.28
2.03
0.39
-0.53
-0.66
-0.02
1.17
2.55
3.70
4.26
4.10
3.30
2.10
0.75
-0.65
-2.18
-4.04
-6.44
-9.40
-12.70
-16.00
-18.94
-21.31
-23.15
-24.74
-26.56
-29.11
-32.79
-37.60
-42.97
-47.68
-50.07
-48.53
-42.06
-30.75
-15.84
0.64
16.45
29.82
39.84
46.34
49.71
50.46
49.04
45.86
41.37
36.14
30.83
25.97
21.88
18.56
15.79
13.32
11.05
9.11
7.76
7.24
7.57
8.50
9.51
10.05
9.68
8.29
6.09
3.49
0.90
-1.47
-3.71
-6.06
-8.80
-12.02
-15.54
-19.02
-22.07
-24.52
-26.41
-28.04
-29.80
-32.12
-35.33
-39.58
-44.66
-49.92
-54.14
-55.78
-53.33
-45.89
-33.60
-17.68
-0.21
16.53
30.68
41.23
47.98
51.35
51.94
50.30
46.92
42.28
37.00
31.77
27.25
23.76
21.29
19.53
18.09
16.80
15.76
15.28
15.66
16.91
18.72
20.45
21.41
21.06
19.22
16.05
11.98
7.51
2.96
-1.54
-6.14
-10.99
-16.20
-21.59
-26.82
-31.45
-35.21
-38.11
-40.47
-42.89
-46.02
-50.33
-55.80
-61.72
-66.69
-68.86
-66.52
-58.71
-45.76
-29.20
-11.43
5.07
18.44
27.81
33.21
35.20
34.47
31.59
27.01
21.15
14.51
7.64
1.00
-5.12
-10.66
-15.64
-20.14
-24.06
-27.12
-28.95
-29.18
-27.64
-24.46
-20.08
-15.12
-10.18
-5.67
-1.73
1.67
4.69
7.34
9.52
10.98
11.48
10.92
9.49
7.62
5.89
4.83
4.65
5.15
5.70
5.42
3.50
-0.57
-6.83
-14.69
-23.03
-30.30
-34.77
-34.90
-29.71
-19.11
-3.98
14.03
32.85
50.54
65.53
76.85
84.13
87.53
87.62
85.25
81.34
76.64
71.60
66.37
60.91
55.18
49.27
43.38
37.78
32.67
28.17
24.37
21.32
19.02
17.32
15.91
14.32
12.10
9.02
5.19
1.02
-3.01
-6.53
-9.51
-12.23
-15.10
-18.49
-22.44
-26.68
-30.75
-34.14
-36.56
-38.04
-38.90
-39.64
-40.85
-43.05
-46.53
-51.19
-56.38
-60.84
-62.92
-60.96
-53.90
-41.72
-25.57
-7.47
10.25
25.63
37.49
45.48
49.89
51.24
50.05
46.80
41.94
35.99
29.57
23.29
17.67
13.00
9.41
6.80
4.99
3.74
2.81
1.98
1.11
0.12
-1.02
-2.31
-3.83
-5.74
-8.27
-11.59
-15.74
-20.48
-25.38
-29.89
-33.57
-36.22
-37.94
-39.11
-40.23
-41.85
-44.46
-48.42
-53.74
-59.87
-65.51
-68.71
-67.33
-59.82
-45.93
-27.06
-5.85
14.60
31.79
44.39
52.40
56.62
58.06
57.49
55.29
51.68
46.97
41.64
36.35
31.65
27.82
24.84
22.43
20.33
18.43
16.81
15.68
15.27
15.61
16.53
17.70
18.74
19.33
19.21
18.24
16.38
13.77
10.67
7.46
4.46
1.78
-0.76
-3.63
-7.38
-12.53
-19.36
-27.75
-37.08
-46.17
-53.37
-56.84
-55.13
-47.64
-35.02
-19.06
-2.19
13.26
25.61
34.20
39.19
41.19
40.90
38.80
35.26
30.60
25.26
19.78
14.71
10.46
7.12
4.53
2.36
0.34
-1.62
-3.42
-4.82
-5.65
-5.90
-5.73
-5.42
-5.18
-5.11
-5.11
-4.99
-4.56
-3.73
-2.56
-1.22
0.03
0.89
1.05
0.17
-2.11
-6.00
-11.43
-17.79
-23.87
-28.07
-28.83
-25.21
-17.32
-6.39
5.65
16.71
25.28
30.67
33.00
32.84
30.74
27.01
21.75
15.04
7.14
-1.47
-10.13
-18.32
-25.80
-32.63
-39.06
-45.24
-51.07
-56.15
-59.95
-62.00
-62.02
-60.05
-56.40
-51.51
-45.97
-40.28
-34.85
-29.82
-25.11
-20.49
-15.75
-10.87
-6.12
-1.99
0.98
2.32
1.79
-0.59
-4.40
-8.77
-12.32
-13.46
-10.77
-3.54
7.88
22.03
36.84
50.19
60.49
67.02
69.77
69.22
65.97
60.62
53.66
45.58
36.89
28.11
19.75
12.23
5.82
0.63
-3.40
-6.43
-8.63
-10.15
-11.04
-11.33
-11.12
-10.67
-10.37
-10.71
-12.09
-14.70
-18.46
-23.07
-28.22
-33.67
-39.32
-45.16
-51.22
-57.51
-64.01
-70.77
-77.81
-85.07
-92.16
-98.16
-101.65
-100.99
-94.79
-82.47
-64.52
-42.49
-18.55
5.02
26.44
44.60
59.11
70.13
78.00
83.13
85.84
86.39
85.07
82.20
78.22
73.61
68.84
64.30
60.24
56.79
53.98
51.82
50.30
49.34
48.83
48.60
48.49
48.43
48.42
48.45
48.44
48.16
47.21
45.21
41.96
37.59
32.56
27.53
23.05
19.36
16.23
13.00
8.79
2.84
-5.15
-14.66
-24.29
-31.93
-35.40
-33.14
-24.91
-11.95
3.38
18.32
30.59
38.86
42.92
43.26
40.72
36.07
29.99
23.05
15.81
8.76
2.24
-3.70
-9.18
-14.35
-19.24
-23.65
-27.23
-29.55
-30.36
-29.62
-27.57
-24.60
-21.18
-17.71
-14.53
-11.79
-9.48
-7.43
-5.41
-3.23
-0.81
1.77
4.32
6.74
8.98
11.11
13.20
15.20
16.91
18.04
18.28
17.44
15.52
12.74
9.55
6.58
4.51
3.91
5.04
7.76
11.50
15.44
18.73
20.74
21.17
20.07
17.68
14.33
10.37
6.12
1.87
-2.13
-5.70
-8.73
-11.20
-13.17
-14.76
-16.08
-17.28
-18.41
-19.50
-20.51
-21.36
-22.03
-22.53
-22.95
-23.45
-24.15
-25.09
-26.21
-27.36
-28.33
-28.96
-29.21
-29.18
-29.10
-29.28
-29.99
-31.41
-33.57
-36.33
-39.33
-42.01
-43.68
-43.61
-41.22
-36.25
-28.95
-20.05
-10.61
-1.73
5.73
11.32
14.97
16.89
17.42
16.86
15.50
13.54
11.21
8.75
6.34
4.16
2.31
0.85
-0.20
-0.89
-1.30
-1.55
-1.75
-1.96
-2.21
-2.48
-2.76
-3.01
-3.25
-3.51
-3.88
-4.47
-5.36
-6.58
-8.06
-9.63
-11.08
-12.24
-13.05
-13.64
-14.27
-15.31
-17.03
-19.48
-22.33
-24.90
-26.24
-25.42
-21.83
-15.44
-6.86
2.78
12.15
20.04
25.70
28.93
29.96
29.28
27.41
24.77
21.65
18.30
14.96
11.90
9.34
7.34
5.84
4.62
3.48
2.30
1.13
0.14
-0.49
-0.68
-0.55
-0.36
-0.38
-0.81
-1.65
-2.77
-4.01
-5.29
-6.64
-8.13
-9.80
-11.58
-13.27
-14.68
-15.76
-16.68
-17.80
-19.51
-22.06
-25.40
-29.11
-32.40
-34.28
-33.83
-30.45
-24.10
-15.31
-5.13
5.19
14.45
21.81
26.81
29.43
29.93
28.75
26.41
23.44
20.28
17.23
14.47
11.99
9.75
7.73
5.96
4.51
3.49
2.96
2.87
3.09
3.42
3.67
3.68
3.39
2.84
2.09
1.23
0.32
-0.64
-1.65
-2.71
-3.83
-4.99
-6.18
-7.41
-8.70
-10.10
-11.63
-13.33
-15.25
-17.47
-19.98
-22.59
-24.80
-25.87
-25.00
-21.61
-15.62
-7.59
1.44
10.20
17.57
22.83
25.77
26.58
25.72
23.70
20.93
17.77
14.42
11.10
7.99
5.29
3.12
1.49
0.29
-0.70
-1.63
-2.51
-3.22
-3.61
-3.58
-3.23
-2.81
-2.63
-2.86
-3.55
-4.57
-5.78
-7.05
-8.32
-9.56
-10.75
-11.86
-12.95
-14.11
-15.55
-17.47
-19.99
-23.07
-26.44
-29.57
-31.67
-31.90
-29.54
-24.27
-16.34
-6.53
3.99
14.02
22.60
29.10
33.29
35.22
35.10
33.27
30.20
26.39
22.38
18.63
15.39
12.75
10.62
8.88
7.38
6.07
5.00
4.22
3.73
3.49
3.36
3.22
2.95
2.52
1.91
1.12
0.13
-1.08
-2.52
-4.12
-5.74
-7.26
-8.59
-9.74
-10.81
-11.96
-13.43
-15.43
-18.14
-21.61
-25.57
-29.38
-32.08
-32.57
-29.95
-23.93
-14.93
-4.09
7.07
17.09
24.94
30.16
32.82
33.34
32.23
29.99
27.02
23.63
20.15
16.81
13.82
11.23
9.03
7.16
5.58
4.35
3.52
3.15
3.16
3.38
3.54
3.42
2.88
1.97
0.81
-0.43
-1.67
-2.89
-4.21
-5.68
-7.30
-8.98
-10.56
-11.90
-12.94
-13.79
-14.65
-15.81
-17.57
-20.14
-23.53
-27.43
-31.23
-34.00
-34.71
-32.50
-26.96
-18.35
-7.59
3.98
14.92
24.03
30.60
34.43
35.72
34.89
32.44
28.88
24.68
20.34
16.29
12.83
10.07
7.94
6.28
4.95
3.89
3.14
2.75
2.73
2.96
3.24
3.34
3.09
2.45
1.49
0.36
-0.78
-1.85
-2.88
-3.95
-5.18
-6.67
-8.40
-10.28
-12.12
-13.73
-15.00
-15.94
-16.76
-17.86
-19.69
-22.61
-26.59
-31.04
-34.85
-36.60
-34.98
-29.32
-19.84
-7.68
5.43
17.73
27.86
35.12
39.46
41.19
40.75
38.53
34.93
30.37
25.43
20.73
16.78
13.82
11.74
10.23
8.90
7.51
6.07
4.82
3.98
3.69
3.84
4.10
4.04
3.29
1.78
-0.29
-2.49
-4.33
-5.50
-5.97
-6.00
-6.05
-6.55
-7.73
-9.57
-11.78
-13.94
-15.70
-16.88
-17.57
-18.13
-19.06
-20.85
-23.77
-27.70
-32.05
-35.78
-37.59
-36.26
-30.97
-21.69
-9.25
4.77
18.46
30.07
38.48
43.32
44.95
44.09
41.51
37.84
33.49
28.79
24.04
19.60
15.78
12.80
10.66
9.21
8.15
7.23
6.32
5.43
4.66
4.13
3.87
3.76
3.56
3.03
2.02
0.61
-0.97
-2.39
-3.45
-4.15
-4.71
-5.49
-6.76
-8.58
-10.78
-12.98
-14.83
-16.16
-17.04
-17.75
-18.70
-20.28
-22.74
-26.09
-29.97
-33.66
-36.12
-36.26
-33.25
-26.82
-17.48
-6.34
5.13
15.54
23.84
29.49
32.44
32.95
31.49
28.62
24.91
20.90
16.99
13.42
10.27
7.49
5.00
2.79
0.89
-0.56
-1.48
-1.90
-1.94
-1.83
-1.80
-1.95
-2.27
-2.62
-2.84
-2.89
-2.91
-3.19
-4.02
-5.59
-7.91
-10.82
-14.00
-17.07
-19.69
-21.63
-22.83
-23.45
-23.86
-24.52
-25.73
-27.40
-28.96
-29.33
-27.29
-21.86
-12.79
-0.72
12.82
25.92
36.77
44.23
48.00
48.58
46.90
43.87
40.18
36.15
31.94
27.70
23.62
19.94
16.80
14.14
11.79
9.56
7.38
5.40
3.86
2.99
2.80
3.06
3.34
3.15
2.18
0.40
-1.86
-4.06
-5.65
-6.30
-6.10
-5.52
-5.28
-5.98
-7.88
-10.75
-13.99
-16.94
-19.15
-20.57
-21.58
-22.75
-24.66
-27.62
-31.60
-36.16
-40.44
-43.27
-43.41
-39.80
-31.98
-20.33
-6.12
8.74
22.24
32.80
39.62
42.72
42.79
40.73
37.41
33.44
29.25
25.15
21.37
18.06
15.29
12.99
11.00
9.14
7.37
5.77
4.48
3.66
3.29
3.24
3.23
2.93
2.11
0.70
-1.17
-3.24
-5.28
-7.17
-8.94
-10.73
-12.68
-14.79
-16.91
-18.83
-20.36
-21.50
-22.47
-23.67
-25.55
-28.40
-32.17
-36.34
-39.97
-41.83
-40.75
-35.96
-27.38
-15.74
-2.44
10.79
22.34
31.13
36.72
39.31
39.40
37.56
34.30
30.05
25.27
20.52
16.36
13.23
11.24
10.18
9.64
9.21
8.69
8.11
7.67
7.49
7.53
7.56
7.31
6.58
5.37
3.88
2.34
0.92
-0.43
-1.91
-3.73
-5.95
-8.35
-10.57
-12.28
-13.39
-14.16
-15.07
-16.66
-19.28
-22.93
-27.21
-31.42
-34.58
-35.63
-33.66
-28.16
-19.24
-7.79
4.76
16.75
26.76
33.89
37.91
39.07
37.91
35.10
31.21
26.80
22.31
18.08
14.35
11.21
8.65
6.59
4.93
3.59
2.55
1.82
1.44
1.43
1.70
2.05
2.18
1.82
0.83
-0.71
-2.53
-4.24
-5.55
-6.37
-6.89
-7.46
-8.45
-10.05
-12.18
-14.53
-16.70
-18.36
-19.42
-20.08
-20.73
-21.86
-23.89
-27.02
-31.10
-35.52
-39.20
-40.70
-38.65
-32.13
-21.18
-6.89
8.77
23.51
35.42
43.43
47.42
47.97
45.97
42.23
37.35
31.79
26.03
20.65
16.16
12.88
10.78
9.49
8.53
7.52
6.34
5.17
4.29
3.90
3.97
4.27
4.44
4.18
3.33
1.94
0.18
-1.69
-3.42
-4.86
-5.95
-6.77
-7.50
-8.37
-9.58
-11.20
-13.11
-15.05
-16.72
-17.91
-18.64
-19.14
-19.80
-20.99
-22.93
-25.68
-29.03
-32.56
-35.52
-37.00
-35.95
-31.60
-23.69
-12.79
-0.17
12.47
23.48
31.73
36.77
38.74
38.14
35.53
31.42
26.31
20.73
15.33
10.77
7.51
5.65
4.95
4.91
5.10
5.31
5.60
6.18
7.18
8.52
9.84
10.67
10.65
9.61
7.71
5.27
2.68
0.22
-1.95
-3.88
-5.72
-7.67
-9.86
-12.26
-14.73
-17.01
-18.88
-20.33
-21.57
-22.97
-25.02
-27.98
-31.82
-35.98
-39.44
-40.84
-38.84
-32.53
-21.83
-7.71
8.04
23.21
35.80
44.54
49.10
49.91
47.88
43.93
38.80
33.00
26.94
21.03
15.70
11.38
8.24
6.20
4.90
3.89
2.81
1.59
0.40
-0.41
-0.59
-0.15
0.64
1.31
1.44
0.83
-0.39
-1.86
-3.14
-3.93
-4.24
-4.38
-4.83
-6.03
-8.11
-10.85
-13.81
-16.48
-18.56
-20.02
-21.10
-22.24
-23.88
-26.41
-29.95
-34.26
-38.59
-41.66
-41.92
-38.01
-29.31
-16.34
-0.71
15.32
29.50
40.24
46.88
49.66
49.33
46.73
42.58
37.40
31.66
25.82
20.44
15.95
12.56
10.18
8.46
6.98
5.49
4.01
2.76
2.04
2.02
2.59
3.37
3.86
3.67
2.64
0.94
-1.04
-2.87
-4.27
-5.23
-6.01
-7.00
-8.51
-10.62
-13.12
-15.59
-17.61
-18.92
-19.57
-19.87
-20.30
-21.36
-23.42
-26.56
-30.41
-34.11
-36.43
-36.07
-32.00
-23.98
-12.66
0.52
13.67
25.06
33.45
38.40
40.11
39.21
36.47
32.54
27.98
23.22
18.67
14.67
11.45
9.06
7.34
6.03
4.86
3.74
2.77
2.15
2.05
2.40
2.89
3.05
2.52
1.17
-0.81
-2.99
-4.92
-6.34
-7.29
-8.03
-8.93
-10.26
-12.07
-14.17
-16.26
-18.03
-19.32
-20.21
-20.95
-21.94
-23.61
-26.23
-29.83
-33.97
-37.72
-39.78
-38.71
-33.46
-23.75
-10.36
4.97
20.02
32.70
41.64
46.46
47.61
45.98
42.53
37.95
32.71
27.18
21.75
16.87
12.92
10.07
8.23
7.05
6.19
5.40
4.69
4.22
4.23
4.80
5.80
6.88
7.61
7.65
6.88
5.47
3.81
2.32
1.28
0.75
0.55
0.40
0.12
-0.31
-0.73
-0.91
-0.73
-0.28
0.13
0.11
-0.74
-2.66
-5.69
-9.75
-14.50
-19.45
-23.84
-26.78
-27.40
-25.13
-19.98
-12.58
-4.09
4.21
11.20
16.24
19.18
20.22
19.69
17.95
15.29
11.99
8.41
4.98
2.11
0.06
-1.09
-1.53
-1.58
-1.54
-1.60
-1.75
-1.85
-1.71
-1.26
-0.57
0.16
0.71
0.90
0.66
0.03
-0.88
-1.93
-3.00
-3.98
-4.84
-5.62
-6.41
-7.36
-8.61
-10.16
-11.92
-13.66
-15.14
-16.20
-16.84
-17.24
-17.72
-18.65
-20.35
-22.96
-26.35
-30.04
-33.22
-34.88
-34.04
-30.06
-22.91
-13.22
-2.21
8.71
18.26
25.59
30.37
32.68
32.87
31.36
28.57
24.94
20.93
16.98
13.42
10.48
8.19
6.48
5.20
4.28
3.68
3.43
3.53
3.94
4.51
5.04
5.32
5.19
4.58
3.54
2.23
0.86
-0.43
-1.57
-2.66
-3.88
-5.40
-7.31
-9.51
-11.76
-13.76
-15.25
-16.12
-16.52
-16.78
-17.37
-18.74
-21.17
-24.52
-28.20
-31.13
-32.06
-29.95
-24.28
-15.34
-4.16
7.75
18.88
28.01
34.46
38.09
39.12
37.99
35.20
31.22
26.51
21.59
16.94
13.01
10.05
8.05
6.76
5.84
5.02
4.27
3.75
3.67
4.08
4.78
5.32
5.25
4.32
2.64
0.59
-1.36
-2.87
-3.84
-4.49
-5.17
-6.20
-7.76
-9.78
-12.01
-14.11
-15.82
-17.04
-17.89
-18.68
-19.85
-21.78
-24.67
-28.35
-32.22
-35.21
-36.09
-33.72
-27.57
-17.93
-5.97
6.64
18.18
27.37
33.62
36.99
37.93
36.97
34.60
31.18
27.08
22.74
18.66
15.23
12.64
10.82
9.45
8.24
7.03
5.90
5.09
4.82
5.14
5.83
6.51
6.76
6.31
5.11
3.33
1.29
-0.68
-2.33
-3.59
-4.56
-5.46
-6.51
-7.89
-9.61
-11.50
-13.31
-14.77
-15.76
-16.38
-16.93
-17.86
-19.61
-22.46
-26.31
-30.61
-34.39
-36.44
-35.60
-31.19
-23.23
-12.53
-0.51
11.20
21.20
28.63
33.24
35.28
35.21
33.53
30.67
27.02
23.01
19.08
15.63
12.89
10.88
9.43
8.33
7.40
6.61
6.01
5.65
5.58
5.75
6.05
6.31
6.32
5.92
4.97
3.49
1.68
-0.16
-1.75
-2.95
-3.83
-4.66
-5.75
-7.28
-9.28
-11.54
-13.74
-15.57
-16.87
-17.64
-18.14
-18.70
-19.73
-21.55
-24.28
-27.78
-31.57
-34.79
-36.36
-35.14
-30.37
-21.91
-10.49
2.49
15.23
26.12
34.06
38.68
40.25
39.40
36.88
33.31
29.22
24.95
20.85
17.19
14.20
12.00
10.54
9.63
8.99
8.35
7.56
6.67
5.79
5.09
4.63
4.29
3.85
3.07
1.84
0.22
-1.57
-3.28
-4.73
-5.90
-6.93
-8.06
-9.48
-11.20
-13.07
-14.82
-16.18
-17.02
-17.42
-17.65
-18.08
-19.09
-20.94
-23.65
-26.91
-29.99
-31.85
-31.33
-27.54
-20.20
-9.85
2.18
14.18
24.49
32.02
36.33
37.65
36.54
33.71
29.78
25.28
20.67
16.35
12.66
9.80
7.81
6.51
5.63
4.93
4.23
3.53
2.97
2.70
2.80
3.21
3.69
3.91
3.61
2.67
1.21
-0.51
-2.16
-3.50
-4.50
-5.30
-6.17
-7.38
-9.02
-11.00
-13.04
-14.79
-16.00
-16.66
-17.00
-17.46
-18.50
-20.50
-23.60
-27.62
-32.00
-35.81
-37.86
-36.99
-32.40
-24.02
-12.64
0.23
12.75
23.30
30.90
35.28
36.78
36.08
33.83
30.61
26.84
22.87
19.03
15.63
12.89
10.87
9.46
8.45
7.60
6.78
5.98
5.33
5.01
5.09
5.52
6.09
6.45
6.28
5.39
3.79
1.68
-0.55
-2.50
-3.88
-4.64
-4.99
-5.34
-6.16
-7.70
-9.94
-12.53
-14.98
-16.86
-18.02
-18.61
-19.03
-19.79
-21.28
-23.72
-27.04
-30.77
-34.13
-36.03
-35.36
-31.27
-23.55
-12.77
-0.24
12.32
23.25
31.39
36.27
38.10
37.48
35.13
31.69
27.62
23.30
19.06
15.19
11.93
9.38
7.46
5.99
4.82
3.87
3.20
2.89
2.96
3.29
3.63
3.77
3.56
2.99
2.19
1.31
0.47
-0.36
-1.30
-2.52
-4.14
-6.17
-8.44
-10.69
-12.64
-14.12
-15.16
-15.96
-16.89
-18.37
-20.70
-23.94
-27.72
-31.18
-33.12
-32.28
-27.78
-19.52
-8.30
4.34
16.57
26.82
34.11
38.18
39.33
38.13
35.23
31.20
26.55
21.75
17.26
13.42
10.39
8.10
6.33
4.84
3.54
2.47
1.74
1.45
1.51
1.68
1.68
1.27
0.41
-0.81
-2.17
-3.55
-4.87
-6.18
-7.54
-8.99
-10.51
-12.05
-13.52
-14.89
-16.15
-17.35
-18.61
-20.09
-21.97
-24.44
-27.55
-31.13
-34.62
-37.05
-37.21
-34.03
-27.03
-16.60
-4.00
8.96
20.49
29.32
34.91
37.42
37.39
35.51
32.32
28.32
23.92
19.56
15.65
12.46
10.03
8.17
6.60
5.08
3.55
2.15
1.10
0.60
0.62
0.89
0.98
0.48
-0.78
-2.68
-4.80
-6.65
-7.90
-8.52
-8.83
-9.31
-10.41
-12.24
-14.62
-17.08
-19.20
-20.74
-21.81
-22.78
-24.15
-26.36
-29.63
-33.81
-38.27
-41.79
-42.72
-39.34
-30.47
-16.16
2.13
21.74
39.61
53.22
61.31
63.97
62.28
57.64
51.28
43.99
36.31
28.70
21.68
15.73
11.17
8.02
5.93
4.44
3.10
1.69
0.22
-1.08
-1.98
-2.34
-2.24
-1.98
-1.97
-2.58
-3.94
-5.89
-7.97
-9.67
-10.62
-10.79
-10.50
-10.32
-10.76
-12.05
-14.06
-16.32
-18.29
-19.51
-19.84
-19.51
-18.98
-18.90
-19.85
-22.22
-26.03
-30.76
-35.35
-38.30
-38.00
-33.24
-23.70
-10.22
5.37
20.67
33.53
42.55
47.40
48.61
47.17
44.03
39.90
35.19
30.18
25.18
20.55
16.61
13.50
11.17
9.40
7.93
6.58
5.33
4.29
3.59
3.27
3.28
3.43
3.41
2.89
1.60
-0.61
-3.69
-7.36
-11.15
-14.61
-17.39
-19.43
-20.94
-22.35
-24.11
-26.47
-29.40
-32.55
-35.42
-37.59
-38.92
-39.61
-40.19
-41.35
-43.75
-47.84
-53.61
-60.35
-66.53
-69.98
-68.33
-59.87
-44.23
-22.79
1.67
25.73
46.40
61.83
71.55
76.12
76.62
74.08
69.34
63.06
55.87
48.45
41.49
35.53
30.85
27.40
24.91
23.02
21.47
20.21
19.43
19.36
20.09
21.44
22.94
23.97
23.98
22.68
20.15
16.79
13.14
9.74
6.94
4.81
3.12
1.51
-0.41
-2.91
-5.99
-9.40
-12.69
-15.40
-17.24
-18.20
-18.59
-18.97
-19.94
-21.97
-25.20
-29.32
-33.49
-36.45
-36.82
-33.45
-25.89
-14.58
-0.88
13.27
25.89
35.50
41.41
43.74
43.14
40.43
36.32
31.35
25.93
20.47
15.41
11.17
7.97
5.81
4.40
3.37
2.41
1.40
0.47
-0.11
-0.09
0.54
1.55
2.48
2.83
2.30
0.91
-0.96
-2.76
-4.04
-4.63
-4.76
-4.92
-5.56
-6.90
-8.86
-11.12
-13.32
-15.22
-16.73
-17.94
-19.03
-20.25
-21.85
-24.08
-26.98
-30.32
-33.40
-35.20
-34.53
-30.50
-22.85
-12.14
0.29
12.75
23.62
31.76
36.66
38.45
37.64
34.91
30.91
26.19
21.24
16.46
12.19
8.63
5.84
3.74
2.15
0.91
-0.12
-0.97
-1.63
-2.08
-2.38
-2.60
-2.86
-3.22
-3.76
-4.51
-5.51
-6.81
-8.41
-10.23
-12.14
-13.92
-15.38
-16.46
-17.22
-17.87
-18.72
-20.05
-22.08
-24.93
-28.48
-32.31
-35.65
-37.43
-36.48
-31.96
-23.65
-12.18
1.06
14.28
25.76
34.30
39.41
41.27
40.47
37.76
33.83
29.25
24.45
19.78
15.53
11.91
9.01
6.79
5.13
3.83
2.73
1.73
0.81
0.01
-0.64
-1.16
-1.62
-2.13
-2.75
-3.51
-4.44
-5.59
-7.06
-8.92
-11.17
-13.69
-16.20
-18.39
-20.07
-21.25
-22.21
-23.41
-25.34
-28.31
-32.29
-36.79
-40.84
-43.16
-42.42
-37.63
-28.51
-15.71
-0.75
14.35
27.57
37.44
43.33
45.41
44.44
41.39
37.12
32.26
27.22
22.29
17.76
13.86
10.71
8.31
6.50
5.08
3.92
3.01
2.46
2.36
2.66
3.07
3.14
2.49
0.96
-1.25
-3.70
-5.93
-7.69
-9.11
-10.57
-12.47
-14.98
-17.93
-20.91
-23.43
-25.21
-26.32
-27.16
-28.34
-30.47
-34.00
-39.00
-44.96
-50.66
-54.32
-53.91
-47.88
-35.74
-18.53
1.44
21.20
38.05
50.27
57.42
60.05
59.19
55.82
50.68
44.33
37.34
30.44
24.34
19.59
16.30
14.14
12.55
11.05
9.45
7.97
7.00
6.83
7.40
8.26
8.74
8.26
6.61
4.05
1.19
-1.31
-3.03
-3.95
-4.46
-5.15
-6.54
-8.86
-11.94
-15.25
-18.17
-20.24
-21.35
-21.85
-22.43
-23.85
-26.68
-31.13
-36.80
-42.71
-47.34
-48.90
-45.82
-37.29
-23.66
-6.49
11.82
28.73
42.26
51.44
56.24
57.26
55.33
51.18
45.51
38.95
32.21
25.95
20.61
16.32
12.92
10.12
7.70
5.60
3.93
2.82
2.27
2.12
2.07
1.79
1.08
-0.12
-1.68
-3.41
-5.14
-6.80
-8.48
-10.38
-12.72
-15.57
-18.81
-22.13
-25.14
-27.57
-29.38
-30.84
-32.39
-34.57
-37.77
-42.03
-46.82
-50.91
-52.54
-49.89
-41.70
-27.98
-10.11
9.39
27.72
42.63
53.01
58.91
61.12
60.59
58.05
53.93
48.60
42.52
36.35
30.73
26.07
22.40
19.40
16.71
14.10
11.65
9.66
8.48
8.21
8.58
9.05
9.00
8.00
5.98
3.24
0.27
-2.49
-4.83
-6.83
-8.81
-11.12
-13.97
-17.30
-20.78
-23.95
-26.45
-28.17
-29.35
-30.51
-32.25
-35.12
-39.31
-44.58
-50.03
-54.23
-55.38
-51.82
-42.64
-28.19
-10.19
8.72
25.78
38.92
47.32
51.33
51.95
50.25
46.92
42.30
36.64
30.39
24.24
18.89
14.80
11.97
10.02
8.43
6.83
5.18
3.73
2.79
2.54
2.89
3.52
3.95
3.77
2.69
0.70
-2.00
-4.97
-7.76
-10.03
-11.76
-13.19
-14.76
-16.85
-19.63
-22.90
-26.20
-28.95
-30.73
-31.42
-31.25
-30.75
-30.65
-31.61
-34.17
-38.46
-44.02
-49.64
-53.44
-53.24
-47.30
-34.98
-17.19
3.74
24.76
43.04
56.73
65.31
69.28
69.69
67.53
63.51
58.07
51.60
44.61
37.75
31.60
26.54
22.63
19.65
17.24
15.11
13.18
11.54
10.36
9.75
9.64
9.77
9.77
9.30
8.16
6.31
3.86
1.03
-1.90
-4.63
-6.93
-8.68
-9.96
-10.99
-12.14
-13.72
-15.89
-18.57
-21.45
-24.12
-26.24
-27.71
-28.73
-29.72
-31.20
-33.63
-37.24
-41.91
-47.05
-51.51
-53.70
-51.90
-44.86
-32.36
-15.50
3.44
21.68
36.79
47.39
53.32
55.29
54.35
51.34
46.77
40.97
34.39
27.73
21.76
17.07
13.79
11.61
9.93
8.27
6.48
4.85
3.84
3.81
4.81
6.42
7.94
8.65
8.10
6.31
3.72
0.98
-1.28
-2.73
-3.48
-3.95
-4.73
-6.21
-8.48
-11.21
-13.87
-15.97
-17.27
-17.91
-18.27
-18.85
-20.09
-22.26
-25.41
-29.32
-33.30
-36.24
-36.65
-33.07
-24.63
-11.57
4.69
21.83
37.38
49.50
57.37
61.02
61.13
58.64
54.33
48.88
42.86
36.87
31.53
27.27
24.10
21.77
19.98
18.48
17.23
16.37
16.13
16.73
18.15
19.71
20.64
20.35
18.41
14.74
9.57
3.30
-3.35
-10.15
-18.28
-29.12
-43.83
-63.29
-87.72
-116.33
-147.25
-176.93
-201.68
-219.90
-230.53
-232.88
-227.59
-216.22
-200.58
-182.21
-160.69
-135.37
-108.14
-80.17
-51.20
-20.97
10.76
44.11
78.75
115.38
153.49
188.45
216.75
237.68
251.61
259.97
264.79
257.17
232.31
207.55
189.73
174.12
158.65
142.03
123.82
104.40
84.66
67.25
54.14
43.24
33.21
24.57
17.74
12.94
9.95
8.04
7.32
7.25
4.29
-4.13
-18.46
-38.13
-61.34
-85.24
-106.71
-122.40
-130.55
-132.72
-131.02
-126.68
-120.31
-111.78
-100.56
-86.49
-69.71
-51.23
-33.21
-17.32
-4.19
6.15
14.08
20.16
24.83
28.51
31.46
33.63
35.08
36.14
37.06
37.89
38.39
38.08
36.41
33.00
27.83
21.20
13.58
5.41
-3.01
-11.48
-19.84
-27.82
-35.10
-41.39
-46.53
-50.53
-53.56
-55.89
-57.75
-59.19
-60.01
-59.72
-57.71
-53.42
-46.60
-37.59
-27.29
-16.96
-7.85
-0.76
4.14
7.19
8.87
9.37
8.46
5.62
0.37
-7.32
-16.94
-27.54
-38.19
-48.24
-57.43
-65.83
-73.47
-80.24
-85.79
-89.75
-91.89
-92.07
-90.27
-86.50
-80.85
-73.67
-65.68
-57.94
-51.49
-46.98
-44.43
-43.29
-42.88
-42.79
-43.18
-44.70
-48.17
-54.18
-62.72
-72.98
-83.26
-91.22
-94.20
-89.99
-77.48
-57.11
-30.86
-1.68
27.33
53.71
75.99
93.62
106.63
115.32
120.02
121.21
119.51
115.72
110.73
105.34
100.07
95.18
90.62
86.24
81.88
77.54
73.37
69.60
66.46
63.96
61.85
59.60
56.58
52.26
46.45
39.40
31.73
24.21
17.46
11.72
6.82
2.35
-2.24
-7.39
-13.41
-20.43
-28.28
-36.33
-43.35
-47.68
-47.57
-41.82
-30.33
-14.16
4.73
24.13
42.18
57.70
70.18
79.53
85.80
89.11
89.66
87.81
84.10
79.17
73.66
68.09
62.85
58.14
54.04
50.50
47.48
44.94
42.97
41.61
40.82
40.35
39.69
38.23
35.48
31.34
26.11
20.47
15.11
10.47
6.55
2.91
-1.06
-5.90
-11.74
-18.28
-24.93
-31.02
-36.17
-40.37
-43.99
-47.65
-51.94
-57.36
-64.13
-72.12
-80.69
-88.56
-93.86
-94.51
-88.76
-75.86
-56.51
-32.78
-7.56
16.22
36.33
51.60
61.90
67.76
69.96
69.23
66.21
61.45
55.55
49.15
42.88
37.21
32.35
28.28
24.84
21.93
19.60
17.97
17.18
17.17
17.68
18.24
18.41
17.87
16.51
14.48
12.04
9.52
7.13
4.93
2.82
0.57
-2.05
-5.14
-8.59
-12.10
-15.37
-18.19
-20.65
-23.02
-25.71
-29.01
-32.98
-37.39
-41.79
-45.75
-48.98
-51.52
-53.73
-56.21
-59.64
-64.55
-70.99
-78.32
-85.06
-89.09
-88.21
-80.85
-66.69
-46.86
-23.67
0.13
22.09
40.54
54.74
64.64
70.53
72.85
72.17
69.16
64.62
59.33
53.92
48.73
43.89
39.34
35.06
31.13
27.69
25.00
23.21
22.35
22.29
22.71
23.21
23.37
22.89
21.55
19.27
16.11
12.23
7.89
3.36
-1.14
-5.50
-9.71
-13.93
-18.31
-22.99
-27.97
-33.14
-38.28
-43.12
-47.42
-51.00
-53.83
-56.05
-57.96
-60.01
-62.68
-66.38
-71.16
-76.48
-81.09
-83.12
-80.55
-71.88
-56.74
-36.22
-12.60
11.31
32.95
50.65
63.77
72.47
77.29
78.81
77.51
73.83
68.34
61.73
54.80
48.24
42.48
37.65
33.64
30.26
27.39
25.04
23.31
22.30
21.95
22.03
22.15
21.84
20.68
18.37
14.84
10.28
5.12
-0.03
-4.59
-8.22
-11.00
-13.43
-16.19
-19.92
-24.88
-30.85
-37.26
-43.39
-48.72
-53.07
-56.60
-59.73
-62.94
-66.74
-71.51
-77.29
-83.56
-89.04
-91.80
-89.64
-80.89
-65.14
-43.54
-18.63
6.47
28.94
47.03
60.16
68.71
73.42
75.03
74.08
70.99
66.24
60.41
54.13
47.94
42.12
36.73
31.69
26.94
22.58
18.83
15.93
14.06
13.16
13.03
13.30
13.54
13.30
12.21
10.03
6.72
2.50
-2.19
-6.82
-10.97
-14.47
-17.50
-20.49
-23.90
-28.03
-32.90
-38.23
-43.54
-48.33
-52.23
-55.13
-57.21
-58.97
-61.07
-64.24
-68.87
-74.80
-81.02
-85.73
-86.73
-82.10
-70.80
-53.19
-30.98
-6.76
16.70
37.25
53.62
65.53
73.30
77.52
78.75
77.44
74.05
69.11
63.30
57.32
51.78
46.94
42.81
39.13
35.69
32.45
29.65
27.63
26.67
26.74
27.50
28.44
29.05
29.01
28.22
26.74
24.69
22.18
19.35
16.38
13.50
10.88
8.55
6.39
4.14
1.64
-1.10
-3.80
-6.04
-7.42
-7.80
-7.32
-6.39
-5.58
-5.44
-6.33
-8.12
-10.04
-10.53
-7.46
1.33
17.36
40.73
69.79
101.34
131.36
156.05
172.71
180.24
179.04
170.51
156.50
138.89
119.34
99.26
79.72
61.39
44.43
28.58
13.38
-1.43
-15.66
-28.65
-39.52
-47.62
-52.92
-56.11
-58.45
-61.32
-65.78
-72.16
-79.97
-88.03
-94.78
-98.84
-99.37
-96.37
-90.62
-83.39
-76.02
-69.55
-64.47
-60.88
-58.59
-57.35
-56.97
-57.26
-58.06
-59.15
-60.41
-61.75
-63.20
-64.69
-65.85
-66.03
-64.39
-60.27
-53.55
-44.86
-35.38
-26.54
-19.57
-15.14
-13.28
-13.57
-15.30
-17.73
-20.17
-22.14
-23.31
-23.62
-23.28
-22.71
-22.40
-22.74
-23.91
-25.84
-28.36
-31.28
-34.46
-37.83
-41.26
-44.70
-48.21
-52.04
-56.51
-61.73
-67.49
-73.18
-78.11
-81.83
-84.33
-85.94
-86.99
-87.52
-87.25
-85.83
-83.27
-80.02
-76.90
-74.58
-73.09
-71.75
-69.36
-64.66
-56.82
-45.64
-31.43
-14.70
3.98
24.11
45.09
65.99
85.60
102.71
116.45
126.64
133.67
138.27
141.03
142.18
141.76
139.90
137.02
133.84
131.03
128.88
127.15
125.29
122.80
119.57
115.76
111.64
107.24
102.44
97.21
92.06
88.05
86.47
88.15
92.82
99.06
104.71
107.68
106.54
100.78
90.64
76.90
60.71
43.64
27.43
13.41
1.73
-9.09
-21.79
-39.09
-62.22
-89.91
-118.75
-144.40
-163.31
-173.73
-175.78
-170.73
-160.09
-145.14
-127.04
-107.21
-87.47
-69.85
-55.89
-46.18
-40.18
-36.50
-33.56
-30.11
-25.62
-20.28
-14.72
-9.63
-5.40
-1.96
1.13
4.46
8.44
13.13
18.20
23.08
27.22
30.24
32.04
32.71
32.45
31.41
29.66
27.28
24.43
21.42
18.64
16.48
15.12
14.52
14.42
14.53
14.65
14.77
15.01
15.46
16.10
16.80
17.40
17.92
18.60
19.95
22.49
26.60
32.30
39.31
47.14
55.29
63.20
70.17
75.14
76.73
73.62
65.04
51.33
34.07
15.66
-1.45
-15.52
-25.96
-33.24
-38.40
-42.49
-46.13
-49.44
-52.19
-54.10
-55.03
-55.09
-54.58
-53.87
-53.27
-52.87
-52.57
-52.15
-51.46
-50.58
-49.82
-49.70
-50.73
-53.22
-57.10
-61.96
-67.07
-71.58
-74.74
-76.08
-75.55
-73.62
-71.19
-69.33
-68.98
-70.52
-73.38
-76.03
-76.29
-72.07
-62.23
-47.12
-28.56
-9.27
8.15
22.04
32.03
38.79
43.39
46.65
48.82
49.80
49.43
47.89
45.71
43.58
41.95
40.84
39.87
38.59
36.74
34.51
32.39
30.88
30.15
29.84
29.23
27.55
24.37
19.82
14.51
9.32
4.99
1.90
-0.09
-1.41
-2.63
-4.20
-6.31
-8.91
-11.70
-14.29
-16.30
-17.47
-17.77
-17.50
-17.19
-17.45
-18.70
-20.94
-23.58
-25.63
-25.97
-23.74
-18.65
-11.05
-1.73
8.30
18.15
27.11
34.74
40.69
44.74
46.81
47.02
45.77
43.66
41.21
38.74
36.25
33.59
30.65
27.55
24.60
22.16
20.41
19.20
18.14
16.82
15.03
12.80
10.40
8.09
6.05
4.30
2.82
1.57
0.60
-0.07
-0.54
-1.05
-1.93
-3.49
-5.83
-8.91
-12.50
-16.38
-20.42
-24.62
-28.96
-33.24
-36.97
-39.35
-39.56
-36.98
-31.55
-23.78
-14.66
-5.31
3.27
10.41
15.82
19.48
21.49
22.05
21.38
19.79
17.62
15.25
12.95
10.89
9.10
7.51
6.05
4.69
3.44
2.39
1.61
1.11
0.85
0.66
0.34
-0.25
-1.18
-2.36
-3.57
-4.60
-5.34
-5.83
-6.34
-7.22
-8.75
-11.05
-13.93
-17.01
-19.82
-22.00
-23.44
-24.31
-25.04
-26.12
-27.93
-30.59
-33.76
-36.76
-38.63
-38.46
-35.62
-29.98
-21.98
-12.49
-2.58
6.78
14.88
21.36
26.13
29.27
30.99
31.53
31.19
30.26
29.03
27.70
26.37
25.03
23.66
22.25
20.90
19.79
19.11
18.99
19.36
20.04
20.69
20.98
20.71
19.86
18.61
17.28
16.20
15.52
15.24
15.07
14.59
13.35
11.07
7.68
3.43
-1.29
-5.95
-10.13
-13.57
-16.26
-18.43
-20.49
-22.91
-26.03
-29.88
-34.05
-37.67
-39.69
-39.14
-35.58
-29.20
-20.78
-11.42
-2.16
6.19
13.21
18.72
22.70
25.12
26.01
25.48
23.83
21.55
19.23
17.36
16.23
15.74
15.55
15.20
14.32
12.84
11.03
9.32
8.15
7.74
8.04
8.68
9.10
8.73
7.14
4.25
0.36
-3.84
-7.48
-9.72
-9.99
-8.20
-4.79
-0.67
2.98
5.01
4.69
1.92
-2.67
-7.93
-12.56
-15.52
-16.30
-15.01
-12.28
-8.93
-5.78
-3.39
-1.92
-1.12
-0.46
0.69
2.78
5.92
9.76
13.63
16.75
18.50
18.62
17.25
14.89
12.30
10.14
8.81
8.27
8.10
7.74
6.81
5.24
3.28
1.28
-0.59
-2.35
-4.16
-6.04
-7.84
-9.28
-10.21
-10.75
-11.36
-12.55
-14.65
-17.58
-20.93
-24.14
-26.80
-28.72
-30.00
-30.87
-31.65
-32.65
-34.15
-36.26
-38.88
-41.56
-43.63
-44.30
-42.95
-39.30
-33.52
-26.13
-17.85
-9.38
-1.30
5.95
12.06
16.82
20.09
21.89
22.43
22.13
21.52
21.07
21.01
21.24
21.39
21.09
20.13
18.65
17.09
15.94
15.47
15.60
15.89
15.72
14.56
12.25
9.02
5.40
1.99
-0.76
-2.70
-3.97
-4.94
-6.08
-7.76
-10.17
-13.18
-16.38
-19.22
-21.24
-22.24
-22.49
-22.55
-23.10
-24.63
-27.16
-30.24
-33.06
-34.72
-34.47
-31.86
-26.81
-19.57
-10.65
-0.75
9.31
18.73
26.74
32.81
36.67
38.38
38.29
36.93
34.90
32.74
30.90
29.64
29.00
28.68
28.06
26.33
22.83
17.34
10.35
2.96
-3.49
-7.92
-9.90
-9.71
-8.10
-5.88
-3.64
-1.63
0.12
1.59
2.71
3.32
3.33
2.71
1.59
0.18
-1.30
-2.73
-4.17
-5.88
-8.21
-11.51
-15.92
-21.23
-26.82
-31.74
-35.01
-35.91
-34.20
-30.22
-24.76
-18.73
-12.86
-7.55
-2.78
1.70
6.17
10.81
15.55
20.22
24.63
28.63
32.17
35.19
37.60
39.26
40.06
39.94
38.90
37.03
34.39
31.07
27.13
22.72
18.04
13.37
8.91
4.81
1.10
-2.31
-5.55
-8.70
-11.78
-14.75
-17.48
-19.84
-21.78
-23.34
-24.68
-26.03
-27.62
-29.59
-31.95
-34.54
-37.01
-38.86
-39.54
-38.46
-35.19
-29.63
-22.10
-13.33
-4.29
4.03
10.94
16.09
19.56
21.59
22.50
22.53
21.87
20.69
19.21
17.65
16.21
14.98
13.90
12.89
11.88
10.88
10.00
9.35
8.96
8.77
8.65
8.45
8.07
7.45
6.59
5.55
4.34
3.01
1.54
-0.09
-1.89
-3.85
-5.91
-7.93
-9.75
-11.29
-12.58
-13.81
-15.26
-17.13
-19.54
-22.37
-25.29
-27.84
-29.46
-29.55
-27.62
-23.44
-17.12
-9.23
-0.70
7.44
14.30
19.37
22.59
24.23
24.69
24.40
23.61
22.50
21.15
19.59
17.89
16.12
14.37
12.76
11.40
10.34
9.62
9.19
9.01
8.98
8.97
8.82
8.33
7.34
5.79
3.72
1.34
-1.07
-3.21
-4.92
-6.15
-7.04
-7.82
-8.69
-9.79
-11.19
-12.93
-15.05
-17.61
-20.61
-23.83
-26.80
-28.78
-28.98
-26.77
-21.94
-14.82
-6.21
2.88
11.45
18.74
24.33
28.11
30.18
30.74
30.04
28.31
25.78
22.75
19.55
16.51
13.87
11.74
10.09
8.78
7.63
6.49
5.27
3.98
2.69
1.52
0.53
-0.26
-0.94
-1.67
-2.64
-3.96
-5.64
-7.60
-9.70
-11.83
-13.98
-16.19
-18.53
-21.07
-23.80
-26.69
-29.61
-32.29
-34.32
-35.06
-33.82
-30.03
-23.52
-14.70
-4.53
5.74
14.89
22.11
27.09
29.96
31.13
31.00
29.93
28.18
25.96
23.53
21.13
18.95
17.07
15.48
14.09
12.79
11.50
10.26
9.15
8.34
7.96
8.04
8.49
9.07
9.44
9.23
8.19
6.22
3.42
0.06
-3.53
-6.99
-10.10
-12.73
-14.91
-16.82
-18.77
-21.10
-24.11
-27.82
-31.81
-35.14
-36.56
-34.83
-29.25
-19.91
-7.78
5.59
18.54
29.66
37.99
43.15
45.17
44.50
41.86
38.14
34.22
30.66
27.63
24.89
21.99
18.56
14.58
10.34
6.32
2.99
0.61
-0.72
-1.06
-0.51
0.74
2.38
3.94
4.85
4.60
2.96
0.07
-3.53
-7.19
-10.35
-12.73
-14.41
-15.70
-17.00
-18.68
-20.98
-24.02
-27.68
-31.56
-34.92
-36.74
-36.02
-32.11
-25.05
-15.64
-5.22
4.73
13.05
19.21
23.27
25.70
27.01
27.52
27.33
26.36
24.54
21.94
18.82
15.58
12.60
10.16
8.28
6.84
5.57
4.26
2.89
1.56
0.56
0.09
0.21
0.78
1.55
2.19
2.40
1.90
0.38
-2.39
-6.47
-11.68
-17.48
-23.17
-28.09
-31.83
-34.34
-35.85
-36.65
-36.87
-36.41
-34.94
-32.16
-27.91
-22.26
-15.55
-8.27
-0.96
5.88
11.82
16.60
20.01
21.96
22.43
21.51
19.44
16.62
13.56
10.76
8.58
7.10
6.15
5.38
4.48
3.32
2.04
0.95
0.30
0.21
0.60
1.19
1.71
1.92
1.72
1.12
0.17
-1.09
-2.63
-4.51
-6.84
-9.78
-13.45
-17.85
-22.84
-28.06
-32.96
-36.92
-39.39
-39.98
-38.57
-35.26
-30.33
-24.15
-17.14
-9.69
-2.19
4.95
11.32
16.56
20.29
22.32
22.61
21.36
18.97
16.00
13.06
10.61
8.92
7.92
7.34
6.79
5.97
4.78
3.44
2.28
1.59
1.43
1.57
1.60
1.08
-0.17
-2.09
-4.38
-6.71
-8.88
-10.87
-12.79
-14.72
-16.72
-18.81
-20.97
-23.23
-25.48
-27.40
-28.34
-27.49
-24.09
-17.82
-8.96
1.59
12.56
22.70
31.06
37.17
40.97
42.64
42.50
40.89
38.18
34.78
31.15
27.70
24.73
22.34
20.44
18.79
17.15
15.34
13.34
11.32
9.51
8.16
7.37
7.12
7.17
7.18
6.78
5.69
3.84
1.36
-1.40
-4.06
-6.31
-8.11
-9.61
-11.21
-13.33
-16.30
-20.21
-24.80
-29.44
-33.16
-34.87
-33.63
-29.03
-21.39
-11.67
-1.23
8.64
17.06
23.65
28.44
31.61
33.35
33.80
33.11
31.55
29.45
27.14
24.83
22.59
20.38
18.13
15.84
13.51
11.16
8.86
6.69
4.79
3.31
2.32
1.77
1.47
1.15
0.56
-0.45
-1.93
-3.82
-6.02
-8.44
-10.96
-13.44
-15.75
-17.79
-19.64
-21.56
-23.93
-27.13
-31.24
-35.86
-40.08
-42.68
-42.54
-39.02
-32.26
-23.12
-12.90
-2.97
5.66
12.46
17.32
20.46
22.20
22.90
22.84
22.27
21.35
20.16
18.76
17.17
15.41
13.54
11.69
9.97
8.51
7.37
6.51
5.84
5.28
4.73
4.18
3.64
3.08
2.42
1.49
0.12
-1.75
-3.98
-6.29
-8.36
-10.00
-11.20
-12.18
-13.25
-14.70
-16.72
-19.41
-22.65
-26.13
-29.27
-31.27
-31.19
-28.32
-22.42
-13.83
-3.57
7.10
16.89
24.91
30.73
34.33
35.94
35.89
34.48
31.99
28.72
25.06
21.39
18.06
15.29
13.11
11.38
9.89
8.46
7.07
5.82
4.90
4.40
4.23
4.12
3.71
2.68
0.90
-1.59
-4.53
-7.64
-10.62
-13.28
-15.50
-17.30
-18.73
-19.95
-21.13
-22.49
-24.17
-26.17
-28.26
-29.91
-30.35
-28.73
-24.47
-17.52
-8.46
1.57
11.30
19.61
25.89
29.98
32.10
32.58
31.77
30.01
27.61
24.96
22.45
20.39
18.88
17.77
16.77
15.47
13.61
11.13
8.24
5.27
2.59
0.45
-1.14
-2.36
-3.51
-4.82
-6.36
-8.05
-9.66
-11.02
-12.05
-12.87
-13.68
-14.68
-16.00
-17.68
-19.68
-21.91
-24.23
-26.43
-28.09
-28.66
-27.51
-24.21
-18.70
-11.45
-3.35
4.50
11.19
16.18
19.42
21.15
21.71
21.32
20.03
17.84
14.88
11.45
8.00
4.91
2.38
0.36
-1.30
-2.76
-4.02
-4.95
-5.44
-5.52
-5.43
-5.55
-6.20
-7.49
-9.25
-11.17
-12.85
-14.10
-14.90
-15.41
-15.82
-16.21
-16.58
-16.86
-17.04
-17.27
-17.83
-19.08
-21.25
-24.37
-28.12
-31.83
-34.52
-35.14
-32.77
-27.01
-18.14
-7.14
4.55
15.45
24.47
31.07
35.28
37.48
38.05
37.31
35.51
32.89
29.82
26.74
24.05
21.89
20.18
18.61
16.87
14.86
12.71
10.76
9.34
8.60
8.37
8.31
7.95
7.02
5.49
3.57
1.57
-0.25
-1.86
-3.44
-5.20
-7.32
-9.78
-12.41
-14.88
-16.96
-18.49
-19.51
-20.24
-20.99
-22.11
-23.89
-26.42
-29.47
-32.44
-34.40
-34.35
-31.48
-25.50
-16.82
-6.49
4.11
13.68
21.33
26.71
29.96
31.45
31.62
30.78
29.15
26.94
24.40
21.84
19.54
17.62
16.05
14.63
13.13
11.42
9.58
7.81
6.42
5.58
5.27
5.23
5.06
4.42
3.18
1.46
-0.43
-2.19
-3.67
-4.93
-6.15
-7.54
-9.16
-10.93
-12.67
-14.21
-15.53
-16.71
-17.95
-19.45
-21.33
-23.66
-26.33
-29.04
-31.25
-32.22
-31.21
-27.70
-21.63
-13.49
-4.23
5.01
13.21
19.74
24.39
27.26
28.60
28.66
27.65
25.73
23.17
20.30
17.51
15.07
13.07
11.41
9.85
8.20
6.48
4.90
3.76
3.23
3.25
3.49
3.54
3.10
2.16
0.94
-0.27
-1.28
-2.10
-2.96
-4.13
-5.81
-8.06
-10.77
-13.69
-16.58
-19.17
-21.27
-22.83
-23.92
-24.74
-25.53
-26.43
-27.40
-28.17
-28.23
-27.01
-23.96
-18.82
-11.76
-3.36
5.42
13.59
20.36
25.29
28.38
29.86
30.01
29.07
27.18
24.49
21.25
17.85
14.76
12.37
10.97
10.61
11.15
12.31
13.67
14.84
15.46
15.29
14.31
12.64
10.58
8.43
6.44
4.72
3.26
1.98
0.80
-0.30
-1.37
-2.47
-3.72
-5.27
-7.25
-9.64
-12.32
-15.09
-17.76
-20.26
-22.64
-25.09
-27.84
-31.07
-34.76
-38.62
-42.06
-44.28
-44.45
-41.95
-36.55
-28.51
-18.48
-7.30
4.12
14.99
24.65
32.59
38.46
42.05
43.35
42.54
39.99
36.20
31.72
27.13
22.92
19.45
16.86
15.07
13.88
13.01
12.27
11.58
10.98
10.48
10.03
9.50
8.71
7.51
5.89
3.92
1.76
-0.39
-2.38
-4.17
-5.81
-7.45
-9.26
-11.29
-13.48
-15.61
-17.39
-18.57
-19.09
-19.07
-18.83
-18.71
-19.02
-19.98
-21.63
-23.88
-26.39
-28.65
-29.93
-29.51
-26.85
-21.77
-14.63
-6.25
2.26
9.83
15.63
19.28
20.78
20.43
18.71
16.10
13.04
9.89
6.82
3.84
0.78
-2.57
-6.19
-9.67
-12.18
-12.72
-10.49
-5.32
2.21
10.83
19.03
25.38
28.93
29.34
26.89
22.31
16.71
11.26
7.00
4.56
4.02
4.92
6.47
7.73
7.87
6.30
2.71
-2.91
-10.26
-18.74
-27.49
-35.48
-41.66
-45.09
-45.15
-41.57
-34.50
-24.52
-12.55
0.21
12.46
22.96
30.82
35.57
37.34
36.69
34.40
31.25
27.79
24.28
20.68
16.90
12.83
8.56
4.29
0.33
-3.04
-5.73
-7.82
-9.62
-11.49
-13.75
-16.49
-19.58
-22.65
-25.27
-27.11
-27.96
-27.87
-27.07
-25.91
-24.81
-24.13
-24.09
-24.76
-26.00
-27.56
-29.12
-30.47
-31.57
-32.57
-33.74
-35.36
-37.54
-40.05
-42.30
-43.42
-42.47
-38.75
-32.07
-22.87
-12.11
-1.07
8.96
16.99
22.44
25.25
25.74
24.49
22.25
19.81
17.84
16.84
17.04
18.40
20.60
23.21
25.74
27.75
28.92
29.11
28.33
26.73
24.57
22.16
19.84
17.92
16.66
16.20
16.55
17.58
18.96
20.31
21.22
21.44
20.92
19.87
18.65
17.73
17.48
18.08
19.45
21.19
22.74
23.50
23.12
21.73
19.97
18.94
19.75
23.16
29.09
36.58
44.01
49.60
52.00
50.60
45.55
37.44
26.77
13.60
-2.50
-22.13
-45.54
-72.24
-100.80
-129.16
-155.20
-177.36
-194.96
-208.10
-217.25
-222.72
-224.39
-221.77
-214.43
-202.45
-186.55
-167.95
-147.94
-127.55
-107.40
-87.78
-68.88
-50.93
-34.29
-19.30
-6.25
4.72
13.52
20.16
24.69
27.34
28.59
29.23
30.25
32.61
36.96
43.48
51.79
61.11
70.52
79.24
86.80
93.08
98.18
102.29
105.53
107.92
109.41
109.99
109.76
108.97
107.87
106.70
105.53
104.34
103.10
101.90
101.01
100.78
101.52
103.23
105.65
108.26
110.57
112.34
113.61
114.70
115.97
117.67
119.84
122.32
124.86
127.17
128.94
129.87
129.78
128.63
126.71
124.50
122.52
121.05
119.97
118.72
116.56
112.74
106.73
98.17
86.85
72.64
55.60
36.14
15.09
-6.40
-27.15
-46.25
-63.33
-78.55
-92.31
-104.93
-116.36
-126.01
-132.98
-136.33
-135.42
-130.12
-120.82
-108.24
-93.28
-76.89
-60.07
-43.89
-29.49
-17.81
-9.42
-4.35
-2.12
-1.99
-3.35
-5.95
-9.95
-15.69
-23.34
-32.51
-42.18
-50.84
-57.00
-59.67
-58.73
-54.91
-49.48
-43.79
-38.86
-35.23
-33.10
-32.39
-32.81
-33.86
-34.75
-34.58
-32.55
-28.38
-22.40
-15.50
-8.80
-3.28
0.52
2.63
3.42
3.53
3.51
3.75
4.34
5.08
5.62
5.57
4.69
2.96
0.60
-2.04
-4.65
-7.04
-9.22
-11.27
-13.34
-15.46
-17.60
-19.67
-21.60
-23.38
-25.18
-27.20
-29.71
-32.85
-36.56
-40.38
-43.46
-44.69
-42.98
-37.69
-28.95
-17.66
-5.31
6.56
16.82
24.92
30.86
34.98
37.56
38.78
38.74
37.50
35.20
32.03
28.19
23.87
19.31
14.75
10.47
6.67
3.44
0.75
-1.48
-3.36
-4.99
-6.49
-8.09
-10.03
-12.47
-15.33
-18.38
-21.28
-23.84
-26.08
-28.20
-30.44
-32.88
-35.37
-37.64
-39.41
-40.54
-41.11
-41.30
-41.44
-41.83
-42.72
-44.17
-45.96
-47.49
-47.87
-46.09
-41.43
-33.73
-23.55
-12.07
-0.74
9.12
16.64
21.51
23.93
24.35
23.31
21.28
18.71
16.04
13.66
11.90
10.88
10.46
10.27
9.86
8.94
7.47
5.73
4.21
3.43
3.82
5.51
8.34
11.83
15.38
18.36
20.36
21.22
21.06
20.13
18.65
16.65
13.99
10.43
5.74
-0.12
-6.94
-14.19
-21.05
-26.50
-29.43
-28.96
-24.65
-16.77
-6.24
5.56
17.14
27.29
35.23
40.71
43.87
45.04
44.60
42.89
40.14
36.54
32.19
27.19
21.70
15.96
10.24
4.79
-0.28
-4.98
-9.41
-13.60
-17.47
-20.83
-23.48
-25.37
-26.69
-27.81
-29.11
-30.82
-32.95
-35.28
-37.53
-39.48
-41.04
-42.27
-43.35
-44.54
-46.10
-48.29
-51.23
-54.71
-58.04
-60.06
-59.34
-54.70
-45.69
-32.93
-17.99
-2.97
10.19
20.21
26.66
29.88
30.55
29.45
27.30
24.76
22.43
20.80
20.16
20.43
21.19
21.89
22.02
21.39
20.13
18.67
17.51
17.09
17.66
19.27
21.78
24.98
28.64
32.51
36.35
39.86
42.69
44.44
44.73
43.34
40.23
35.58
29.79
23.32
16.62
10.08
3.91
-1.78
-7.07
-12.02
-16.68
-20.93
-24.41
-26.53
-26.67
-24.33
-19.39
-12.21
-3.55
5.53
14.02
21.12
26.40
29.85
31.79
32.71
33.11
33.39
33.70
33.96
33.93
33.34
32.03
30.00
27.36
24.29
20.97
17.54
14.20
11.12
8.56
6.69
5.63
5.35
5.67
6.33
7.07
7.70
8.10
8.28
8.26
8.04
7.59
6.85
5.77
4.33
2.57
0.50
-1.90
-4.68
-7.85
-11.25
-14.49
-16.87
-17.55
-15.73
-10.94
-3.31
6.40
16.93
26.86
34.99
40.61
43.55
44.10
42.78
40.01
36.14
31.36
25.85
19.78
13.34
6.72
0.06
-6.51
-12.84
-18.74
-24.03
-28.54
-32.24
-35.19
-37.54
-39.46
-41.07
-42.39
-43.32
-43.69
-43.34
-42.17
-40.23
-37.70
-34.93
-32.38
-30.61
-30.19
-31.57
-34.87
-39.66
-44.99
-49.53
-51.91
-51.16
-47.01
-39.89
-30.77
-20.82
-11.15
-2.59
4.28
9.10
11.78
12.46
11.53
9.57
7.20
4.93
3.05
1.57
0.37
-0.77
-1.96
-3.21
-4.36
-5.18
-5.41
-4.89
-3.63
-1.84
0.12
1.76
2.60
2.27
0.65
-2.04
-5.28
-8.30
-10.33
-10.87
-9.84
-7.75
-5.52
-4.21
-4.64
-6.98
-10.65
-14.37
-16.64
-16.19
-12.42
-5.56
3.44
13.27
22.61
30.40
35.92
38.85
39.12
36.93
32.69
27.00
20.58
14.18
8.45
3.81
0.46
-1.72
-3.01
-3.74
-4.05
-3.86
-2.80
-0.49
3.24
8.18
13.68
18.86
22.93
25.42
26.34
26.14
25.47
24.99
25.14
26.06
27.50
28.90
29.51
28.56
25.55
20.48
13.96
7.19
1.66
-1.22
-0.61
3.46
10.08
17.73
24.65
29.30
30.68
28.40
22.70
14.34
4.37
-5.98
-15.56
-23.53
-29.41
-33.22
-35.34
-36.36
-36.91
-37.44
-38.22
-39.30
-40.59
-41.93
-43.15
-44.19
-45.09
-45.99
-47.00
-48.14
-49.32
-50.32
-50.96
-51.11
-50.86
-50.46
-50.28
-50.75
-52.20
-54.72
-58.06
-61.54
-64.16
-64.81
-62.63
-57.24
-48.97
-38.76
-27.83
-17.37
-8.26
-0.90
4.69
8.77
11.71
13.89
15.67
17.33
19.03
20.83
22.67
24.42
26.00
27.35
28.48
29.39
30.08
30.53
30.73
30.69
30.46
30.10
29.68
29.21
28.74
28.26
27.73
27.09
26.14
24.66
22.37
19.11
14.94
10.27
5.87
2.76
1.98
4.24
9.69
17.80
27.50
37.48
46.54
53.79
58.78
61.32
61.47
59.38
55.38
49.98
43.89
37.89
32.61
28.37
25.09
22.46
20.08
17.73
15.40
13.24
11.41
9.91
8.52
6.88
4.66
1.71
-1.85
-5.66
-9.30
-12.42
-14.93
-16.99
-19.01
-21.46
-24.67
-28.69
-33.12
-37.12
-39.62
-39.56
-36.30
-29.83
-20.87
-10.63
-0.50
8.39
15.33
20.06
22.65
23.34
22.47
20.41
17.62
14.60
11.74
9.22
6.98
4.76
2.27
-0.67
-3.94
-7.23
-10.08
-12.11
-13.13
-13.29
-13.03
-12.91
-13.40
-14.71
-16.69
-18.98
-21.18
-23.05
-24.60
-26.11
-27.92
-30.35
-33.54
-37.35
-41.31
-44.55
-45.95
-44.41
-39.24
-30.45
-18.92
-6.19
6.00
16.26
23.84
28.70
31.27
32.07
31.52
29.87
27.32
24.16
20.82
17.73
15.15
13.03
11.10
9.01
6.58
3.95
1.53
-0.21
-0.98
-0.82
-0.13
0.52
0.56
-0.28
-1.96
-4.18
-6.55
-8.72
-10.53
-12.05
-13.55
-15.38
-17.91
-21.35
-25.68
-30.47
-34.85
-37.66
-37.73
-34.26
-27.14
-17.06
-5.32
6.57
17.27
25.84
31.87
35.31
36.36
35.36
32.73
28.94
24.46
19.77
15.25
11.17
7.74
5.03
3.03
1.62
0.60
-0.16
-0.69
-0.91
-0.72
-0.14
0.57
0.98
0.62
-0.74
-2.97
-5.63
-8.13
-10.06
-11.32
-12.17
-13.07
-14.52
-16.91
-20.42
-24.98
-30.18
-35.12
-38.60
-39.29
-36.14
-28.88
-18.15
-5.40
7.57
19.11
28.17
34.38
37.92
39.22
38.74
36.82
33.71
29.66
24.98
20.04
15.25
10.98
7.45
4.71
2.67
1.17
0.05
-0.78
-1.37
-1.75
-2.00
-2.21
-2.47
-2.80
-3.17
-3.50
-3.75
-3.97
-4.27
-4.78
-5.58
-6.67
-8.00
-9.54
-11.29
-13.36
-15.96
-19.36
-23.75
-29.07
-34.74
-39.70
-42.49
-41.66
-36.38
-26.74
-13.86
0.44
14.21
25.88
34.61
40.25
43.11
43.66
42.38
39.72
36.10
32.01
27.90
24.13
20.88
18.10
15.66
13.42
11.38
9.70
8.63
8.36
8.89
9.96
11.13
11.93
12.00
11.19
9.56
7.34
4.77
2.07
-0.66
-3.44
-6.36
-9.57
-13.08
-16.77
-20.32
-23.35
-25.56
-26.83
-27.36
-27.61
-28.19
-29.70
-32.45
-36.31
-40.58
-44.01
-45.11
-42.58
-35.81
-25.10
-11.69
2.62
16.06
27.28
35.61
40.99
43.70
44.14
42.74
39.89
36.07
31.83
27.68
24.00
20.97
18.49
16.38
14.43
12.55
10.80
9.38
8.50
8.33
8.85
9.85
10.87
11.41
11.02
9.53
7.11
4.25
1.53
-0.62
-2.12
-3.23
-4.42
-6.09
-8.39
-11.17
-14.05
-16.64
-18.70
-20.20
-21.29
-22.23
-23.37
-25.01
-27.41
-30.67
-34.57
-38.45
-41.21
-41.55
-38.40
-31.31
-20.72
-7.89
5.44
17.62
27.45
34.43
38.66
40.55
40.59
39.15
36.54
33.04
29.02
24.93
21.18
18.11
15.84
14.28
13.25
12.53
12.00
11.63
11.47
11.56
11.86
12.22
12.37
12.02
10.95
9.09
6.57
3.69
0.81
-1.79
-4.04
-6.06
-8.13
-10.46
-13.13
-15.99
-18.70
-20.92
-22.46
-23.32
-23.68
-23.86
-24.22
-25.16
-27.07
-30.23
-34.59
-39.60
-44.13
-46.65
-45.73
-40.49
-31.01
-18.32
-4.09
9.83
21.98
31.43
37.88
41.43
42.46
41.40
38.79
35.17
31.09
26.98
23.14
19.71
16.71
14.11
11.89
10.08
8.75
7.94
7.70
8.01
8.73
9.71
10.70
11.47
11.85
11.72
11.11
10.09
8.80
7.35
5.80
4.11
2.23
0.12
-2.21
-4.72
-7.33
-10.01
-12.75
-15.51
-18.24
-20.80
-23.01
-24.73
-25.90
-26.65
-27.31
-28.33
-30.12
-32.93
-36.50
-40.06
-42.32
-41.87
-37.69
-29.57
-18.31
-5.43
7.31
18.47
27.23
33.37
37.08
38.64
38.30
36.29
32.91
28.57
23.81
19.15
15.05
11.75
9.35
7.74
6.72
6.08
5.68
5.55
5.77
6.45
7.52
8.70
9.55
9.65
8.77
6.96
4.58
2.06
-0.20
-2.07
-3.68
-5.32
-7.28
-9.69
-12.45
-15.28
-17.79
-19.70
-20.94
-21.65
-22.16
-22.88
-24.18
-26.35
-29.42
-33.12
-36.73
-39.14
-39.09
-35.56
-28.16
-17.45
-4.76
8.16
19.75
29.06
35.92
40.76
44.20
46.73
48.49
49.36
49.16
47.80
45.44
42.38
38.96
35.44
31.94
28.53
25.26
22.27
19.69
17.62
16.04
14.82
13.72
12.50
11.04
9.29
7.31
5.20
3.05
0.88
-1.35
-3.72
-6.34
-9.29
-12.56
-16.05
-19.61
-23.07
-26.29
-29.20
-31.76
-33.96
-35.79
-37.24
-38.45
-39.64
-41.17
-43.36
-46.33
-49.78
-52.93
-54.63
-53.67
-49.13
-40.82
-29.36
-16.07
-2.60
9.58
19.53
26.93
31.98
35.08
36.58
36.69
35.57
33.46
30.75
27.92
25.43
23.45
21.87
20.32
18.42
15.96
13.03
10.00
7.36
5.53
4.65
4.55
4.78
4.76
4.04
2.41
-0.02
-2.86
-5.62
-7.99
-9.95
-11.77
-13.85
-16.42
-19.37
-22.20
-24.28
-25.18
-24.86
-23.74
-22.52
-21.89
-22.28
-23.82
-26.34
-29.45
-32.52
-34.72
-35.10
-32.86
-27.64
-19.77
-10.21
-0.25
8.90
16.46
22.17
26.14
28.58
29.55
29.04
27.06
23.93
20.44
17.77
17.31
20.24
27.12
37.56
50.12
62.46
71.89
76.12
73.90
65.47
52.36
36.90
21.36
7.41
-4.20
-13.47
-20.76
-26.45
-30.90
-34.37
-37.22
-39.82
-42.50
-45.32
-48.07
-50.34
-51.74
-52.14
-51.74
-51.07
-50.84
-51.65
-53.71
-56.66
-59.50
-60.93
-59.69
-55.11
-47.29
-37.07
-25.70
-14.43
-4.15
4.67
11.81
17.15
20.55
21.85
21.05
18.40
14.38
9.63
4.76
0.21
-3.75
-7.02
-9.58
-11.42
-12.51
-12.78
-12.12
-10.39
-7.54
-3.63
1.00
5.70
9.72
12.30
13.02
11.87
9.29
5.98
2.57
-0.54
-3.33
-6.03
-8.93
-12.12
-15.42
-18.40
-20.63
-21.85
-22.12
-21.80
-21.39
-21.44
-22.33
-24.26
-27.14
-30.45
-33.21
-34.05
-31.57
-24.79
-13.67
0.70
16.36
31.05
42.93
51.10
55.70
57.57
57.73
56.98
55.72
54.02
51.89
49.44
46.91
44.60
42.79
41.59
41.00
40.94
41.32
42.02
42.96
43.99
44.86
45.27
44.93
43.68
41.58
38.94
36.17
33.66
31.59
29.85
28.15
26.16
23.77
21.07
18.37
15.99
14.06
12.45
10.79
8.60
5.45
1.05
-4.63
-11.32
-18.33
-24.63
-29.00
-30.34
-28.05
-22.30
-14.03
-4.72
4.09
11.21
16.08
18.79
19.79
19.58
18.51
16.65
13.95
10.34
5.83
0.64
-4.92
-10.43
-15.47
-19.63
-22.59
-24.21
-24.60
-24.07
-23.09
-22.16
-21.57
-21.39
-21.44
-21.40
-21.00
-20.10
-18.79
-17.35
-16.21
-15.77
-16.26
-17.70
-19.84
-22.36
-24.91
-27.35
-29.74
-32.35
-35.45
-39.13
-43.04
-46.36
-47.86
-46.30
-40.85
-31.48
-19.11
-5.31
8.07
19.41
27.74
32.75
34.73
34.24
31.97
28.52
24.42
20.14
16.07
12.54
9.74
7.72
6.35
5.42
4.71
4.07
3.50
3.02
2.67
2.37
2.02
1.48
0.73
-0.12
-0.91
-1.48
-1.78
-1.87
-1.90
-2.00
-2.21
-2.52
-2.91
-3.43
-4.22
-5.57
-7.82
-11.32
-16.23
-22.42
-29.31
-35.80
-40.48
-41.97
-39.34
-32.51
-22.30
-10.17
2.21
13.45
22.70
29.64
34.27
36.72
37.10
35.58
32.48
28.26
23.53
18.81
14.44
10.55
7.06
3.87
0.89
-1.84
-4.28
-6.31
-7.82
-8.66
-8.67
-7.83
-6.28
-4.39
-2.70
-1.73
-1.75
-2.75
-4.44
-6.45
-8.51
-10.59
-12.88
-15.68
-19.30
-23.87
-29.30
-35.16
-40.64
-44.66
-46.07
-44.00
-38.14
-28.95
-17.53
-5.31
6.39
16.63
24.99
31.48
36.29
39.64
41.68
42.53
42.36
41.44
40.12
38.71
37.40
36.20
34.95
33.44
31.55
29.30
26.78
24.07
21.16
17.90
14.08
9.55
4.27
-1.59
-7.70
-13.65
-18.96
-23.17
-25.91
-26.96
-26.30
-24.21
-21.20
-17.89
-15.00
-13.10
-12.59
-13.53
-15.58
-17.97
-19.55
-19.11
-15.73
-9.05
0.60
12.35
25.08
37.69
49.25
59.07
66.58
71.33
73.06
71.78
67.83
61.90
54.80
47.36
40.21
33.75
28.14
23.33
19.23
15.68
12.59
10.01
8.03
6.75
6.13
5.94
5.72
4.97
3.24
0.33
-3.68
-8.46
-13.59
-18.67
-23.39
-27.54
-31.02
-33.81
-36.00
-37.79
-39.42
-40.95
-42.07
-42.06
-39.93
-34.94
-26.97
-16.81
-6.07
3.40
10.10
13.39
13.50
11.35
7.96
4.14
0.31
-3.43
-7.01
-10.35
-13.27
-15.60
-17.28
-18.37
-19.00
-19.26
-19.17
-18.63
-17.58
-16.01
-14.07
-12.01
-10.16
-8.77
-7.99
-7.81
-8.14
-8.82
-9.73
-10.82
-12.06
-13.44
-14.93
-16.46
-18.00
-19.56
-21.21
-23.06
-25.24
-27.81
-30.68
-33.47
-35.46
-35.68
-33.17
-27.37
-18.41
-7.18
4.91
16.40
26.21
33.85
39.34
42.90
44.63
44.44
42.05
37.31
30.42
21.97
12.90
4.24
-3.14
-8.66
-12.01
-13.16
-12.22
-9.45
-5.30
-0.41
4.46
8.54
11.36
12.80
13.12
12.81
12.31
11.80
11.12
9.82
7.39
3.50
-1.80
-7.99
-14.24
-19.67
-23.61
-25.84
-26.58
-26.31
-25.63
-24.95
-24.39
-23.72
-22.43
-19.89
-15.58
-9.38
-1.66
6.65
14.36
20.31
23.71
24.42
22.83
19.73
15.99
12.34
9.24
6.88
5.24
4.23
3.70
3.49
3.43
3.26
2.76
1.70
0.06
-1.99
-4.03
-5.54
-6.07
-5.43
-3.79
-1.63
0.44
1.88
2.41
1.99
0.77
-1.13
-3.67
-6.87
-10.70
-14.99
-19.43
-23.66
-27.44
-30.75
-33.68
-36.23
-38.04
-38.35
-36.23
-30.98
-22.56
-11.79
-0.12
10.83
19.76
26.03
29.62
30.97
30.63
29.09
26.80
24.17
21.65
19.67
18.43
17.91
17.90
18.12
18.43
18.87
19.60
20.73
22.17
23.57
24.39
24.12
22.48
19.50
15.50
10.95
6.32
1.92
-2.09
-5.74
-9.14
-12.44
-15.73
-19.05
-22.31
-25.33
-27.86
-29.82
-31.43
-33.36
-36.59
-42.07
-50.16
-60.15
-70.32
-78.31
-82.01
-80.33
-73.52
-63.01
-50.73
-38.34
-26.88
-16.78
-8.12
-1.02
4.35
7.82
9.53
10.01
10.09
10.64
12.25
15.08
18.89
23.17
27.42
31.31
34.79
38.01
41.09
43.99
46.42
47.90
47.97
46.44
43.48
39.61
35.50
31.71
28.51
25.74
23.01
19.90
16.19
12.04
7.89
4.28
1.61
-0.05
-1.00
-1.81
-3.15
-5.54
-9.20
-13.86
-18.79
-22.89
-25.01
-24.30
-20.49
-14.05
-6.04
2.29
9.80
15.74
19.81
21.98
22.34
21.05
18.30
14.35
9.60
4.54
-0.37
-4.70
-8.22
-10.78
-12.38
-13.05
-12.82
-11.71
-9.82
-7.33
-4.56
-1.95
0.07
1.24
1.56
1.28
0.78
0.38
0.23
0.26
0.21
-0.16
-0.99
-2.26
-3.81
-5.41
-6.90
-8.22
-9.41
-10.64
-12.12
-14.07
-16.69
-19.94
-23.44
-26.42
-27.84
-26.66
-22.32
-14.90
-5.28
5.20
15.14
23.48
29.65
33.53
35.29
35.17
33.48
30.55
26.83
22.77
18.76
15.05
11.70
8.72
6.15
4.12
2.83
2.42
2.90
4.07
5.59
7.12
8.37
9.18
9.50
9.39
8.96
8.35
7.67
6.94
6.12
5.04
3.54
1.51
-1.02
-3.91
-6.96
-9.96
-12.77
-15.36
-17.83
-20.38
-23.23
-26.45
-29.79
-32.57
-33.79
-32.50
-28.15
-20.91
-11.71
-1.90
7.23
14.77
20.40
24.20
26.44
27.34
26.99
25.51
23.09
20.10
17.02
14.24
12.04
10.48
9.50
9.00
8.92
9.21
9.80
10.49
10.96
10.88
10.01
8.32
6.04
3.60
1.45
-0.08
-0.97
-1.43
-1.84
-2.59
-3.93
-5.90
-8.32
-10.97
-13.61
-16.09
-18.39
-20.59
-22.82
-25.21
-27.74
-30.17
-31.97
-32.40
-30.74
-26.59
-20.05
-11.78
-2.82
5.75
13.07
18.69
22.53
24.70
25.39
24.82
23.17
20.70
17.72
14.54
11.44
8.60
6.13
4.12
2.67
1.89
1.85
2.49
3.61
4.87
5.91
6.48
6.47
5.95
5.07
4.00
2.86
1.72
0.62
-0.49
-1.68
-3.06
-4.76
-6.79
-9.05
-11.31
-13.32
-14.89
-16.01
-16.88
-17.86
-19.37
-21.68
-24.81
-28.31
-31.27
-32.55
-31.05
-26.25
-18.43
-8.64
1.64
10.97
18.40
23.59
26.69
28.03
27.94
26.64
24.28
21.14
17.54
13.92
10.63
7.94
5.91
4.43
3.30
2.32
1.45
0.80
0.61
1.05
2.07
3.34
4.40
4.95
5.03
5.05
5.57
6.89
8.84
10.80
12.00
11.94
10.49
7.82
4.10
-0.68
-6.67
-13.88
-22.05
-30.66
-39.25
-47.75
-56.56
-66.16
-76.46
-86.41
-94.05
-97.25
-94.59
-86.03
-72.95
-57.44
-41.41
-25.95
-11.22
3.12
17.35
31.29
44.36
55.84
65.30
72.77
78.75
84.05
89.53
95.91
103.43
111.82
120.23
127.51
132.56
134.75
134.20
131.75
128.50
125.29
122.04
117.54
109.70
96.22
75.63
48.15
15.96
-17.25
-47.40
-71.37
-87.79
-97.10
-100.91
-101.08
-98.99
-95.44
-90.90
-85.89
-81.14
-77.44
-75.32
-74.82
-75.46
-76.49
-77.10
-76.64
-74.64
-70.86
-65.22
-57.83
-49.02
-39.33
-29.41
-19.94
-11.48
-4.41
1.12
5.16
7.94
9.80
11.16
12.39
13.70
15.15
16.60
17.83
18.69
19.17
19.49
19.97
20.86
22.26
24.07
26.05
27.99
29.77
31.35
32.80
34.10
35.21
35.90
35.80
34.38
31.09
25.56
17.78
8.28
-1.95
-11.69
-19.86
-25.74
-29.16
-30.45
-30.19
-29.09
-27.76
-26.74
-26.51
-27.45
-29.80
-33.46
-37.81
-41.71
-43.73
-42.60
-37.67
-29.27
-18.65
-7.55
2.35
9.96
14.94
17.57
18.41
18.05
16.90
15.23
13.27
11.27
9.47
8.06
7.09
6.51
6.18
6.00
5.88
5.84
5.91
6.16
6.63
7.34
8.19
9.03
9.66
9.86
9.53
8.65
7.41
6.05
4.82
3.85
3.13
2.48
1.69
0.61
-0.82
-2.55
-4.47
-6.44
-8.36
-10.15
-11.72
-13.02
-14.02
-14.80
-15.56
-16.62
-18.28
-20.70
-23.71
-26.78
-29.04
-29.53
-27.53
-22.82
-15.83
-7.42
1.26
9.18
15.62
20.25
23.04
24.14
23.82
22.33
20.02
17.25
14.38
11.73
9.51
7.82
6.64
5.90
5.50
5.38
5.53
5.95
6.64
7.56
8.61
9.63
10.43
10.83
10.73
10.10
8.96
7.42
5.61
3.68
1.80
0.09
-1.43
-2.80
-4.15
-5.63
-7.31
-9.12
-10.87
-12.36
-13.41
-13.97
-14.18
-14.30
-14.65
-15.58
-17.32
-19.87
-22.92
-25.80
-27.56
-27.24
-24.15
-18.18
-9.85
-0.20
9.52
18.20
25.10
29.91
32.68
33.70
33.29
31.78
29.44
26.53
23.29
20.00
16.91
14.22
12.01
10.22
8.71
7.38
6.28
5.61
5.66
6.54
8.09
9.87
11.26
11.77
11.19
9.67
7.64
5.54
3.66
2.01
0.43
-1.31
-3.28
-5.41
-7.46
-9.15
-10.22
-10.39
-9.35
-6.87
-2.90
2.16
7.39
11.62
13.77
13.32
10.54
6.28
1.56
-2.92
-6.87
-10.32
-13.18
-15.04
-15.23
-13.20
-8.92
-3.09
3.01
8.05
11.13
12.14
11.75
10.95
10.64
11.09
11.98
12.50
11.83
9.56
5.87
1.50
-2.59
-5.51
-6.73
-6.09
-3.75
0.01
4.83
10.24
15.56
19.89
22.29
22.06
19.10
14.02
7.94
2.15
-2.42
-5.39
-6.91
-7.46
-7.56
-7.55
-7.68
-8.11
-9.04
-10.65
-13.01
-16.07
-19.52
-22.93
-25.78
-27.68
-28.42
-28.08
-27.07
-25.95
-25.38
-25.82
-27.50
-30.21
-33.44
-36.37
-38.09
-37.76
-34.88
-29.37
-21.70
-12.75
-3.62
4.63
11.23
15.81
18.41
19.44
19.45
19.01
18.56
18.31
18.26
18.28
18.18
17.88
17.39
16.85
16.45
16.36
16.64
17.23
17.96
18.64
19.12
19.30
19.12
18.60
17.75
16.60
15.16
13.43
11.34
8.81
5.73
2.11
-1.88
-5.93
-9.66
-12.80
-15.26
-17.17
-18.77
-20.31
-21.94
-23.65
-25.32
-26.75
-27.80
-28.46
-28.83
-29.12
-29.43
-29.64
-29.26
-27.62
-24.05
-18.19
-10.21
-0.81
9.01
18.22
26.01
31.96
36.04
38.49
39.67
39.97
39.71
39.09
38.18
37.03
35.70
34.30
32.97
31.80
30.78
29.80
28.70
27.37
25.80
24.10
22.38
20.75
19.20
17.68
16.07
14.24
11.98
9.06
5.31
0.70
-4.46
-9.58
-13.99
-17.25
-19.43
-21.04
-22.80
-25.25
-28.41
-31.84
-34.88
-37.05
-38.20
-38.56
-38.54
-38.51
-38.83
-39.79
-41.55
-43.95
-46.37
-47.68
-46.68
-42.57
-35.48
-26.55
-17.46
-9.82
-4.56
-1.70
-0.60
-0.41
-0.47
-0.49
-0.45
-0.34
-0.08
0.51
1.54
3.06
4.93
7.00
9.12
11.29
13.57
16.03
18.66
21.30
23.72
25.62
26.77
27.04
26.43
25.08
23.19
20.97
18.61
16.21
13.82
11.44
9.08
6.72
4.31
1.73
-1.16
-4.39
-7.84
-11.18
-14.02
-16.01
-17.12
-17.57
-17.82
-18.37
-19.60
-21.63
-24.36
-27.43
-30.29
-32.24
-32.49
-30.43
-25.77
-18.73
-10.08
-0.92
7.61
14.63
19.72
22.87
24.35
24.49
23.58
21.81
19.33
16.38
13.26
10.33
7.95
6.28
5.35
4.97
4.86
4.77
4.58
4.28
3.99
3.83
3.84
3.94
3.99
3.86
3.52
3.03
2.49
1.94
1.32
0.44
-0.89
-2.72
-4.94
-7.29
-9.47
-11.28
-12.62
-13.59
-14.36
-15.20
-16.38
-18.11
-20.35
-22.73
-24.52
-24.76
-22.66
-17.89
-10.78
-2.28
6.43
14.32
20.77
25.62
28.96
30.93
31.59
30.96
29.14
26.40
23.16
19.88
16.85
14.13
11.64
9.24
6.92
4.85
3.30
2.50
2.45
2.93
3.48
3.63
3.08
1.76
-0.08
-2.06
-3.86
-5.26
-6.35
-7.30
-8.37
-9.62
-10.92
-11.93
-12.22
-11.45
-9.45
-6.35
-2.55
1.37
4.67
6.73
7.22
6.32
4.75
3.58
3.92
6.46
11.24
17.67
24.72
31.28
36.48
39.85
41.26
40.92
39.20
36.49
33.18
29.60
25.94
22.35
18.88
15.53
12.30
9.16
6.13
3.27
0.73
-1.28
-2.60
-3.19
-3.22
-3.02
-2.96
-3.29
-4.09
-5.25
-6.64
-8.16
-9.81
-11.66
-13.77
-16.11
-18.55
-20.93
-23.09
-24.94
-26.41
-27.53
-28.39
-29.18
-30.23
-31.83
-34.06
-36.64
-38.83
-39.59
-37.93
-33.26
-25.66
-15.93
-5.32
4.85
13.55
20.26
24.89
27.63
28.79
28.63
27.43
25.45
22.97
20.29
17.65
15.14
12.79
10.56
8.46
6.55
4.97
3.84
3.30
3.38
3.97
4.82
5.54
5.74
5.18
3.85
1.98
-0.08
-2.00
-3.62
-4.99
-6.26
-7.61
-9.15
-10.87
-12.68
-14.43
-16.02
-17.34
-18.39
-19.21
-19.94
-20.78
-21.94
-23.58
-25.67
-27.96
-29.93
-30.81
-29.86
-26.51
-20.68
-12.80
-3.74
5.44
13.76
20.55
25.49
28.54
29.88
29.73
28.40
26.24
23.66
21.06
18.73
16.80
15.23
13.90
12.69
11.59
10.75
10.38
10.64
11.50
12.75
13.99
14.84
15.00
14.44
13.31
11.89
10.43
9.01
7.51
5.63
3.12
-0.18
-4.16
-8.48
-12.70
-16.41
-19.42
-21.85
-24.01
-26.29
-28.95
-32.02
-35.24
-38.16
-40.19
-40.74
-39.36
-35.77
-29.97
-22.29
-13.35
-3.95
5.05
12.92
19.18
23.70
26.58
28.11
28.59
28.29
27.38
25.99
24.23
22.28
20.31
18.48
16.83
15.27
13.68
12.01
10.34
8.93
8.03
7.76
7.98
8.32
8.38
7.91
6.90
5.57
4.24
3.08
2.09
1.09
-0.17
-1.88
-4.07
-6.63
-9.32
-11.94
-14.32
-16.43
-18.32
-20.10
-21.90
-23.88
-26.14
-28.75
-31.58
-34.25
-36.03
-36.05
-33.58
-28.32
-20.61
-11.32
-1.58
7.51
15.19
21.10
25.20
27.61
28.55
28.21
26.85
24.75
22.21
19.53
16.96
14.67
12.73
11.13
9.80
8.68
7.73
6.98
6.47
6.20
6.14
6.16
6.09
5.76
5.10
4.07
2.78
1.39
0.05
-1.10
-2.05
-2.88
-3.75
-4.85
-6.31
-8.16
-10.30
-12.54
-14.65
-16.42
-17.74
-18.66
-19.37
-20.16
-21.32
-23.05
-25.32
-27.82
-30.01
-31.24
-30.83
-28.29
-23.48
-16.65
-8.46
0.19
8.34
15.26
20.55
24.14
26.20
26.93
26.54
25.17
23.02
20.33
17.45
14.72
12.38
10.53
9.11
8.00
7.08
6.29
5.66
5.30
5.29
5.63
6.21
6.77
7.01
6.73
5.86
4.51
2.93
1.33
-0.16
-1.57
-3.04
-4.68
-6.50
-8.44
-10.34
-12.07
-13.56
-14.81
-15.87
-16.84
-17.83
-19.04
-20.67
-22.83
-25.36
-27.75
-29.19
-28.78
-25.92
-20.49
-12.97
-4.28
4.56
12.70
19.56
24.89
28.66
30.89
31.65
31.04
29.21
26.44
23.11
19.64
16.41
13.69
11.53
9.84
8.44
7.17
6.04
5.14
4.63
4.55
4.82
5.20
5.37
5.12
4.37
3.19
1.77
0.31
-1.04
-2.24
-3.37
-4.61
-6.13
-8.06
-10.37
-12.88
-15.31
-17.40
-19.01
-20.16
-21.07
-22.02
-23.28
-24.98
-27.13
-29.48
-31.60
-32.84
-32.51
-30.02
-25.09
-17.93
-9.17
0.20
9.18
16.92
22.99
27.31
30.08
31.59
32.07
31.66
30.40
28.37
25.73
22.72
19.62
16.71
14.18
12.13
10.56
9.41
8.64
8.19
8.04
8.10
8.24
8.26
7.95
7.13
5.72
3.79
1.54
-0.75
-2.84
-4.62
-6.16
-7.64
-9.26
-11.10
-13.12
-15.18
-17.13
-18.86
-20.29
-21.40
-22.18
-22.68
-23.02
-23.47
-24.34
-25.87
-28.06
-30.57
-32.70
-33.54
-32.27
-28.43
-22.07
-13.78
-4.54
4.62
12.83
19.52
24.44
27.58
29.08
29.15
28.07
26.16
23.77
21.18
18.57
16.08
13.77
11.72
9.99
8.56
7.39
6.42
5.64
5.16
5.09
5.48
6.16
6.82
7.02
6.41
4.87
2.56
-0.18
-2.99
-5.65
-8.15
-10.64
-13.29
-16.17
-19.19
-22.19
-24.96
-27.37
-29.40
-31.11
-32.62
-34.03
-35.45
-36.95
-38.55
-40.13
-41.32
-41.53
-40.04
-36.32
-30.20
-21.99
-12.38
-2.22
7.72
16.83
24.70
31.04
35.64
38.35
39.21
38.47
36.60
34.14
31.60
29.28
27.31
25.62
24.07
22.51
20.89
19.23
17.71
16.53
15.91
15.89
16.35
16.96
17.33
17.14
16.33
15.11
13.88
13.02
12.75
13.02
13.53
13.94
13.95
13.44
12.43
11.06
9.45
7.70
5.87
3.92
1.78
-0.75
-3.93
-8.01
-13.06
-18.75
-24.35
-28.77
-30.91
-30.01
-26.02
-19.59
-11.92
-4.27
2.40
7.67
11.58
14.38
16.28
17.35
17.56
16.96
15.78
14.46
13.37
12.73
12.42
12.12
11.47
10.34
8.89
7.47
6.48
6.10
6.25
6.60
6.74
6.35
5.26
3.49
1.17
-1.47
-4.18
-6.74
-8.96
-10.78
-12.25
-13.54
-14.82
-16.24
-17.86
-19.65
-21.52
-23.36
-25.06
-26.55
-27.86
-29.06
-30.32
-31.76
-33.44
-35.20
-36.66
-37.20
-36.16
-32.95
-27.32
-19.45
-10.02
-0.04
9.36
17.27
23.20
27.12
29.29
30.07
29.77
28.56
26.61
24.13
21.43
18.87
16.66
14.89
13.46
12.21
11.08
10.07
9.32
8.91
8.87
9.07
9.31
9.32
8.88
7.88
6.40
4.65
2.93
1.52
0.45
-0.46
-1.54
-3.17
-5.48
-8.32
-11.30
-13.93
-15.91
-17.19
-18.04
-18.84
-19.93
-21.47
-23.45
-25.74
-28.11
-30.19
-31.44
-31.15
-28.63
-23.45
-15.76
-6.29
3.78
13.24
21.13
27.02
30.91
33.06
33.76
33.30
31.88
29.75
27.17
24.46
21.85
19.50
17.49
15.82
14.45
13.33
12.41
11.66
11.10
10.74
10.57
10.51
10.38
9.96
9.09
7.72
5.97
4.05
2.15
0.35
-1.42
-3.31
-5.48
-7.96
-10.67
-13.45
-16.09
-18.46
-20.52
-22.34
-24.10
-26.06
-28.49
-31.49
-34.82
-37.85
-39.59
-39.04
-35.55
-29.07
-20.28
-10.33
-0.46
8.32
15.48
20.91
24.75
27.16
28.31
28.31
27.31
25.56
23.35
20.99
18.75
16.81
15.23
14.01
13.04
12.23
11.48
10.79
10.26
10.02
10.12
10.51
10.98
11.21
10.88
9.85
8.16
6.02
3.77
1.66
-0.16
-1.74
-3.28
-4.98
-6.96
-9.18
-11.49
-13.68
-15.59
-17.16
-18.44
-19.56
-20.65
-21.87
-23.38
-25.30
-27.63
-30.07
-32.00
-32.53
-30.77
-26.23
-19.06
-10.10
-0.57
8.30
15.71
21.35
25.37
28.04
29.58
30.05
29.49
28.02
25.91
23.48
21.03
18.72
16.59
14.62
12.86
11.38
10.31
9.73
9.63
9.89
10.30
10.57
10.47
9.84
8.63
6.92
4.86
2.67
0.53
-1.41
-3.11
-4.62
-6.08
-7.67
-9.50
-11.56
-13.74
-15.84
-17.67
-19.10
-20.11
-20.79
-21.26
-21.69
-22.26
-23.21
-24.77
-26.98
-29.61
-32.02
-33.28
-32.45
-28.85
-22.45
-13.89
-4.32
4.97
12.94
19.03
23.22
25.75
26.94
27.00
26.04
24.18
21.66
18.84
16.10
13.73
11.81
10.22
8.81
7.48
6.26
5.26
4.60
4.30
4.25
4.25
4.06
3.54
2.64
1.40
-0.03
-1.54
-3.07
-4.64
-6.30
-8.12
-10.08
-12.08
-14.02
-15.77
-17.31
-18.65
-19.85
-21.02
-22.29
-23.88
-25.89
-28.20
-30.32
-31.41
-30.51
-26.86
-20.33
-11.51
-1.56
8.21
16.70
23.31
27.92
30.75
32.07
32.12
31.05
29.06
26.42
23.53
20.75
18.31
16.23
14.38
12.60
10.83
9.17
7.84
7.07
6.89
7.16
7.54
7.66
7.23
6.15
4.57
2.76
1.00
-0.54
-1.90
-3.31
-4.99
-7.09
-9.57
-12.18
-14.62
-16.66
-18.27
-19.59
-20.85
-22.33
-24.19
-26.48
-29.03
-31.44
-33.05
-33.08
-30.79
-25.82
-18.41
-9.39
0.02
8.59
15.45
20.27
23.22
24.70
25.10
24.63
23.40
21.50
19.15
16.70
14.46
12.65
11.24
10.05
8.89
7.67
6.50
5.59
5.17
5.28
5.74
6.18
6.23
5.63
4.39
2.74
0.97
-0.69
-2.23
-3.76
-5.44
-7.33
-9.38
-11.47
-13.46
-15.27
-16.87
-18.24
-19.40
-20.46
-21.64
-23.18
-25.20
-27.50
-29.48
-30.26
-29.02
-25.27
-19.12
-11.24
-2.58
5.84
13.26
19.26
23.70
26.60
28.07
28.23
27.25
25.34
22.76
19.86
16.90
14.11
11.63
9.51
7.79
6.49
5.62
5.17
5.06
5.14
5.21
5.09
4.66
3.91
2.93
1.87
0.84
-0.08
-0.94
-1.88
-3.06
-4.58
-6.44
-8.52
-10.64
-12.62
-14.35
-15.85
-17.23
-18.69
-20.47
-22.67
-25.28
-27.99
-30.25
-31.28
-30.28
-26.71
-20.48
-12.11
-2.57
6.94
15.33
21.88
26.33
28.75
29.49
28.92
27.42
25.30
22.88
20.40
18.06
15.97
14.17
12.66
11.41
10.41
9.68
9.21
8.95
8.79
8.55
8.00
7.00
5.56
3.86
2.15
0.64
-0.63
-1.84
-3.25
-5.06
-7.28
-9.73
-12.14
-14.32
-16.20
-17.84
-19.37
-20.90
-22.55
-24.46
-26.69
-29.12
-31.31
-32.51
-31.83
-28.59
-22.65
-14.50
-5.14
4.26
12.73
19.67
24.93
28.57
30.74
31.56
31.14
29.62
27.28
24.45
21.49
18.68
16.20
14.08
12.27
10.70
9.37
8.34
7.70
7.53
7.75
8.15
8.41
8.22
7.39
5.93
4.04
2.02
0.14
-1.46
-2.80
-4.07
-5.50
-7.24
-9.31
-11.57
-13.75
-15.64
-17.13
-18.32
-19.41
-20.65
-22.23
-24.20
-26.55
-29.14
-31.73
-33.84
-34.80
-33.81
-30.23
-23.83
-15.02
-4.81
5.47
14.60
21.74
26.61
29.37
30.41
30.11
28.76
26.60
23.88
20.93
18.11
15.71
13.81
12.31
10.96
9.56
8.09
6.70
5.72
5.38
5.73
6.49
7.21
7.40
6.79
5.43
3.62
1.76
0.19
-1.04
-2.08
-3.24
-4.77
-6.75
-9.10
-11.56
-13.89
-15.84
-17.32
-18.33
-18.96
-19.49
-20.21
-21.48
-23.48
-26.09
-28.80
-30.72
-30.87
-28.43
-23.10
-15.21
-5.69
4.24
13.42
21.07
26.86
30.85
33.28
34.36
34.23
32.96
30.68
27.67
24.36
21.20
18.53
16.49
14.99
13.89
13.02
12.31
11.74
11.30
10.96
10.66
10.31
9.88
9.30
8.52
7.47
6.10
4.44
2.64
0.84
-0.86
-2.54
-4.41
-6.70
-9.50
-12.68
-15.87
-18.66
-20.77
-22.16
-23.03
-23.68
-24.39
-25.37
-26.77
-28.62
-30.84
-33.06
-34.59
-34.55
-32.08
-26.71
-18.63
-8.68
1.87
11.74
19.93
25.96
29.81
31.79
32.30
31.70
30.23
28.10
25.49
22.65
19.84
17.31
15.19
13.45
11.96
10.54
9.09
7.70
6.55
5.83
5.62
5.81
6.08
6.09
5.53
4.25
2.32
-0.00
-2.38
-4.51
-6.20
-7.46
-8.46
-9.47
-10.74
-12.39
-14.42
-16.62
-18.74
-20.52
-21.82
-22.66
-23.27
-23.99
-25.19
-27.08
-29.56
-32.18
-34.20
-34.73
-32.98
-28.53
-21.44
-12.33
-2.20
7.80
16.64
23.64
28.51
31.29
32.29
31.86
30.39
28.18
25.50
22.54
19.47
16.43
13.57
11.02
8.89
7.25
6.10
5.39
5.02
4.91
4.98
5.13
5.21
5.07
4.57
3.66
2.42
1.02
-0.39
-1.74
-3.05
-4.45
-6.03
-7.82
-9.73
-11.62
-13.36
-14.93
-16.38
-17.87
-19.59
-21.69
-24.16
-26.70
-28.68
-29.24
-27.50
-22.99
-15.82
-6.79
2.92
12.09
19.84
25.79
29.93
32.43
33.48
33.25
31.87
29.59
26.69
23.52
20.38
17.47
14.97
12.99
11.57
10.70
10.22
9.96
9.72
9.38
8.93
8.38
7.70
6.82
5.63
4.06
2.09
-0.20
-2.71
-5.35
-8.05
-10.73
-13.28
-15.56
-17.43
-18.87
-19.95
-20.92
-22.10
-23.79
-26.14
-28.99
-31.83
-33.84
-34.08
-31.81
-26.74
-19.26
-10.30
-1.04
7.38
14.26
19.31
22.63
24.45
24.98
24.37
22.79
20.49
17.83
15.17
12.80
10.81
9.14
7.61
6.13
4.72
3.52
2.69
2.32
2.29
2.34
2.17
1.59
0.56
-0.78
-2.25
-3.72
-5.21
-6.78
-8.54
-10.48
-12.46
-14.30
-15.85
-17.06
-18.01
-18.87
-19.86
-21.17
-22.94
-25.23
-27.87
-30.43
-32.22
-32.39
-30.17
-25.17
-17.61
-8.25
1.72
11.12
19.06
25.07
29.11
31.37
32.11
31.57
30.03
27.75
25.05
22.27
19.61
17.19
14.97
12.90
10.94
9.14
7.60
6.44
5.72
5.39
5.31
5.20
4.78
3.86
2.40
0.50
-1.57
-3.57
-5.34
-6.89
-8.37
-9.94
-11.71
-13.64
-15.58
-17.31
-18.68
-19.69
-20.48
-21.34
-22.57
-24.29
-26.31
-28.04
-28.64
-27.28
-23.47
-17.28
-9.34
-0.66
7.72
15.01
20.79
24.99
27.69
29.02
29.10
28.02
25.96
23.20
20.11
17.08
14.40
12.19
10.42
8.93
7.57
6.26
5.02
3.91
2.98
2.23
1.58
0.96
0.35
-0.25
-0.83
-1.45
-2.26
-3.45
-5.11
-7.24
-9.64
-12.07
-14.27
-16.10
-17.57
-18.88
-20.28
-22.02
-24.20
-26.67
-28.95
-30.30
-29.92
-27.17
-21.83
-14.25
-5.27
4.03
12.55
19.50
24.51
27.58
28.95
28.97
27.99
26.31
24.24
22.04
19.97
18.15
16.57
15.09
13.57
11.91
10.21
8.69
7.62
7.15
7.21
7.48
7.58
7.17
6.15
4.66
2.96
1.27
-0.34
-1.94
-3.71
-5.75
-8.02
-10.36
-12.56
-14.42
-15.88
-16.96
-17.79
-18.63
-19.78
-21.54
-24.06
-27.18
-30.29
-32.50
-32.79
-30.36
-24.97
-17.05
-7.56
2.25
11.24
18.66
24.17
27.85
29.93
30.66
30.25
28.87
26.75
24.17
21.44
18.88
16.65
14.78
13.18
11.70
10.23
8.76
7.41
6.32
5.60
5.25
5.11
4.88
4.28
3.11
1.40
-0.61
-2.64
-4.45
-5.98
-7.38
-8.87
-10.63
-12.68
-14.83
-16.84
-18.48
-19.66
-20.47
-21.15
-22.01
-23.35
-25.35
-27.96
-30.77
-33.07
-33.96
-32.59
-28.52
-21.89
-13.40
-4.17
4.62
12.03
17.54
21.03
22.67
22.77
21.70
19.77
17.34
14.76
12.35
10.37
8.96
8.13
7.79
7.77
7.92
8.12
8.31
8.46
8.53
8.50
8.34
8.04
7.58
6.99
6.28
5.49
4.64
3.74
2.73
1.50
-0.05
-1.97
-4.17
-6.42
-8.48
-10.18
-11.56
-12.92
-14.66
-17.05
-20.07
-23.24
-25.72
-26.52
-24.81
-20.30
-13.28
-4.61
4.58
13.16
20.31
25.61
29.05
30.82
31.20
30.46
28.82
26.52
23.85
21.08
18.49
16.21
14.27
12.62
11.22
10.07
9.20
8.64
8.33
8.16
7.97
7.64
7.09
6.31
5.30
4.06
2.56
0.79
-1.23
-3.45
-5.82
-8.29
-10.83
-13.34
-15.70
-17.73
-19.34
-20.57
-21.64
-22.91
-24.72
-27.21
-30.12
-32.78
-34.23
-33.52
-30.03
-23.70
-15.13
-5.34
4.45
13.23
20.33
25.50
28.78
30.40
30.61
29.65
27.79
25.31
22.56
19.88
17.54
15.67
14.22
13.00
11.78
10.43
8.97
7.56
6.39
5.57
5.04
4.60
4.02
3.12
1.90
0.44
-1.10
-2.63
-4.16
-5.81
-7.72
-9.94
-12.39
-14.89
-17.19
-19.06
-20.40
-21.24
-21.74
-22.17
-22.83
-24.01
-25.85
-28.25
-30.78
-32.69
-33.07
-31.12
-26.41
-19.11
-9.97
-0.13
9.22
17.15
23.14
27.18
29.54
30.60
30.69
29.98
28.56
26.51
24.02
21.36
18.81
16.58
14.73
13.16
11.78
10.57
9.60
9.02
8.92
9.15
9.38
9.11
7.95
5.77
2.78
-0.53
-3.62
-6.12
-8.02
-9.56
-11.08
-12.78
-14.68
-16.53
-18.04
-18.96
-19.27
-19.14
-18.89
-18.87
-19.40
-20.64
-22.57
-24.87
-26.91
-27.84
-26.85
-23.42
-17.58
-9.94
-1.50
6.66
13.69
19.11
22.83
24.96
25.71
25.26
23.79
21.54
18.81
15.92
13.20
10.86
8.98
7.55
6.48
5.69
5.10
4.70
4.43
4.28
4.17
3.98
3.64
3.06
2.28
1.35
0.35
-0.66
-1.67
-2.77
-4.05
-5.59
-7.39
-9.34
-11.28
-13.03
-14.47
-15.62
-16.62
-17.72
-19.21
-21.28
-23.93
-26.77
-29.08
-29.90
-28.34
-23.92
-16.81
-7.83
1.80
10.83
18.32
23.84
27.40
29.27
29.78
29.21
27.76
25.63
23.03
20.23
17.48
15.00
12.87
11.05
9.49
8.15
7.09
6.39
6.13
6.25
6.56
6.78
6.67
6.12
5.18
4.00
2.73
1.46
0.23
-1.05
-2.44
-4.00
-5.76
-7.70
-9.72
-11.69
-13.46
-14.91
-16.06
-17.06
-18.16
-19.65
-21.71
-24.32
-27.16
-29.65
-31.00
-30.41
-27.34
-21.69
-13.92
-4.98
4.01
11.96
18.20
22.49
25.00
26.02
25.88
24.81
23.02
20.74
18.30
16.01
14.07
12.48
11.07
9.65
8.11
6.51
5.09
4.10
3.72
3.98
4.72
5.64
6.41
6.74
6.43
5.40
3.77
1.78
-0.29
-2.19
-3.81
-5.20
-6.54
-8.06
-9.86
-11.92
-14.01
-15.87
-17.29
-18.23
-18.81
-19.29
-19.99
-21.17
-22.97
-25.33
-27.92
-30.07
-30.96
-29.76
-26.01
-19.79
-11.72
-2.87
5.68
13.06
18.81
22.81
25.20
26.20
26.02
24.87
22.95
20.50
17.78
15.05
12.57
10.47
8.79
7.45
6.34
5.39
4.64
4.28
4.41
5.07
6.04
6.93
7.36
7.06
6.04
4.55
2.91
1.40
0.18
-0.80
-1.70
-2.70
-3.97
-5.56
-7.44
-9.46
-11.40
-13.12
-14.52
-15.65
-16.65
-17.72
-19.03
-20.72
-22.76
-24.90
-26.64
-27.28
-26.07
-22.50
-16.51
-8.57
0.39
9.26
17.08
23.24
27.55
30.15
31.37
31.52
30.88
29.62
27.90
25.87
23.69
21.56
19.58
17.81
16.23
14.87
13.81
13.18
13.06
13.41
13.97
14.34
14.09
13.00
11.08
8.58
5.87
3.34
1.21
-0.46
-1.82
-3.18
-4.91
-7.29
-10.37
-13.92
-17.48
-20.55
-22.81
-24.21
-25.00
-25.62
-26.51
-28.04
-30.34
-33.29
-36.47
-39.15
-40.45
-39.54
-35.95
-29.76
-21.63
-12.62
-3.87
3.71
9.62
13.80
16.50
18.05
18.78
18.84
18.32
17.26
15.76
13.99
12.19
10.61
9.42
8.71
8.46
8.56
8.91
9.41
10.02
10.72
11.46
12.14
12.58
12.58
12.01
10.91
9.44
7.84
6.31
4.96
3.74
2.56
1.33
0.04
-1.29
-2.61
-3.93
-5.30
-6.80
-8.45
-10.20
-11.95
-13.63
-15.27
-16.99
-18.98
-21.35
-24.04
-26.75
-28.95
-29.99
-29.25
-26.35
-21.28
-14.44
-6.63
1.21
8.20
13.73
17.60
19.95
21.09
21.33
20.86
19.73
17.98
15.73
13.21
10.77
8.68
7.10
6.00
5.24
4.62
4.04
3.46
2.96
2.63
2.57
2.76
3.07
3.31
3.28
2.82
1.89
0.59
-0.87
-2.23
-3.26
-3.84
-3.99
-3.87
-3.74
-3.80
-4.15
-4.74
-5.41
-6.00
-6.43
-6.72
-6.98
-7.41
-8.19
-9.54
-11.61
-14.34
-17.32
-19.72
-20.55
-18.96
-14.61
-7.85
0.40
8.96
16.81
23.32
28.29
31.75
33.79
34.44
33.72
31.74
28.79
25.32
21.80
18.61
15.96
13.82
12.06
10.50
9.06
7.73
6.59
5.73
5.19
4.88
4.66
4.30
3.60
2.46
0.92
-0.83
-2.53
-3.98
-5.12
-6.10
-7.19
-8.63
-10.51
-12.73
-14.99
-16.95
-18.37
-19.18
-19.53
-19.66
-19.89
-20.49
-21.67
-23.46
-25.62
-27.55
-28.41
-27.34
-23.78
-17.72
-9.79
-1.05
7.36
14.54
20.03
23.81
26.06
27.03
26.92
25.85
24.01
21.67
19.16
16.81
14.83
13.26
12.01
10.92
9.92
9.01
8.31
7.92
7.87
8.04
8.26
8.33
8.14
7.69
7.00
6.07
4.90
3.43
1.67
-0.29
-2.29
-4.19
-5.92
-7.51
-9.10
-10.81
-12.70
-14.75
-16.82
-18.74
-20.37
-21.61
-22.43
-22.95
-23.37
-23.97
-25.03
-26.63
-28.53
-30.18
-30.78
-29.57
-26.03
-20.20
-12.61
-4.18
4.07
11.31
17.04
21.11
23.65
24.85
24.90
23.92
22.12
19.75
17.18
14.77
12.77
11.23
10.03
8.97
7.93
6.95
6.14
5.64
5.48
5.53
5.60
5.52
5.18
4.62
3.92
3.15
2.33
1.42
0.34
-0.90
-2.23
-3.50
-4.58
-5.47
-6.32
-7.37
-8.83
-10.69
-12.72
-14.52
-15.78
-16.39
-16.54
-16.61
-16.98
-17.91
-19.41
-21.30
-23.21
-24.65
-25.03
-23.80
-20.64
-15.55
-9.00
-1.74
5.35
11.60
16.58
20.21
22.57
23.79
23.99
23.27
21.77
19.67
17.28
14.88
12.72
10.94
9.57
8.55
7.76
7.16
6.72
6.52
6.54
6.72
6.85
6.68
6.06
4.99
3.65
2.35
1.32
0.65
0.20
-0.28
-1.07
-2.32
-4.05
-6.08
-8.19
-10.14
-11.79
-13.11
-14.18
-15.13
-16.16
-17.42
-19.06
-21.09
-23.31
-25.27
-26.24
-25.42
-22.28
-16.71
-9.23
-0.86
7.28
14.24
19.54
23.14
25.27
26.25
26.31
25.58
24.19
22.33
20.23
18.12
16.20
14.54
13.14
11.93
10.87
9.90
9.01
8.17
7.35
6.50
5.55
4.47
3.30
2.11
1.02
0.13
-0.47
-0.74
-0.62
-0.13
0.64
1.49
2.12
2.24
1.65
0.36
-1.41
-3.34
-5.11
-6.60
-7.88
-9.15
-10.60
-12.28
-14.09
-15.80
-17.22
-18.23
-18.93
-19.47
-20.07
-20.91
-22.12
-23.76
-25.81
-28.09
-30.10
-31.12
-30.27
-26.90
-20.87
-12.67
-3.37
5.77
13.71
19.85
24.10
26.69
27.94
28.14
27.42
25.94
23.91
21.59
19.30
17.26
15.54
14.10
12.79
11.48
10.13
8.85
7.81
7.20
7.09
7.38
7.79
7.93
7.50
6.40
4.78
2.94
1.19
-0.36
-1.78
-3.32
-5.20
-7.51
-10.10
-12.69
-14.97
-16.71
-17.88
-18.58
-19.03
-19.47
-20.14
-21.23
-22.79
-24.75
-26.76
-28.26
-28.55
-26.96
-23.13
-17.15
-9.60
-1.45
6.29
12.81
17.67
20.86
22.64
23.36
23.29
22.61
21.38
19.68
17.63
15.48
13.53
12.05
11.15
10.77
10.70
10.69
10.57
10.28
9.87
9.43
9.01
8.60
8.14
7.56
6.81
5.86
4.69
3.38
2.01
0.72
-0.43
-1.47
-2.55
-3.90
-5.67
-7.83
-10.16
-12.34
-14.06
-15.20
-15.83
-16.17
-16.47
-17.00
-17.97
-19.56
-21.83
-24.63
-27.48
-29.61
-30.05
-28.02
-23.19
-15.89
-7.04
2.16
10.57
17.40
22.36
25.56
27.33
27.96
27.70
26.70
25.13
23.15
20.98
18.82
16.82
15.05
13.55
12.30
11.25
10.35
9.56
8.88
8.33
7.93
7.70
7.59
7.51
7.33
6.94
6.26
5.24
3.89
2.20
0.27
-1.77
-3.73
-5.40
-6.67
-7.63
-8.47
-9.45
-10.73
-12.32
-14.02
-15.58
-16.78
-17.53
-17.95
-18.28
-18.84
-19.93
-21.66
-23.91
-26.21
-27.80
-27.79
-25.44
-20.48
-13.22
-4.53
4.46
12.65
19.30
24.14
27.21
28.75
28.99
28.12
26.33
23.87
21.07
18.34
16.01
14.27
13.04
12.10
11.17
10.12
9.00
8.01
7.40
7.26
7.46
7.66
7.54
6.88
5.68
4.11
2.46
0.93
-0.41
-1.58
-2.72
-3.98
-5.45
-7.18
-9.14
-11.24
-13.34
-15.30
-16.96
-18.26
-19.22
-19.99
-20.82
-22.01
-23.82
-26.24
-28.93
-31.17
-32.03
-30.68
-26.65
-20.12
-11.83
-2.87
5.68
13.04
18.86
23.16
26.12
27.87
28.49
27.98
26.44
24.14
21.45
18.78
16.39
14.40
12.77
11.39
10.20
9.20
8.43
7.93
7.67
7.58
7.51
7.33
6.93
6.20
5.10
3.65
1.92
0.08
-1.69
-3.27
-4.60
-5.75
-6.88
-8.09
-9.46
-10.95
-12.49
-13.96
-15.27
-16.38
-17.23
-17.81
-18.14
-18.37
-18.78
-19.68
-21.29
-23.57
-26.07
-27.97
-28.27
-26.12
-21.15
-13.66
-4.55
4.96
13.75
21.03
26.54
30.37
32.76
33.94
34.06
33.21
31.49
29.08
26.16
22.91
19.40
15.70
11.87
8.06
4.48
1.39
-1.05
-2.78
-3.90
-4.59
-5.03
-5.38
-5.73
-6.09
-6.48
-6.87
-7.24
-7.51
-7.63
-7.50
-7.04
-6.21
-4.96
-3.25
-1.09
1.43
4.14
6.74
8.93
10.39
10.90
10.32
8.64
5.90
2.23
-2.26
-7.40
-13.03
-18.85
-24.36
-28.84
-31.46
-31.58
-28.98
-24.09
-17.82
-11.30
-5.42
-0.57
3.36
6.77
10.02
13.19
16.05
18.19
19.26
19.15
18.05
16.38
14.57
12.96
11.69
10.71
9.89
9.17
8.56
8.17
8.11
8.29
8.52
8.47
7.92
6.83
5.36
3.77
2.27
0.91
-0.43
-1.90
-3.57
-5.38
-7.15
-8.71
-9.99
-11.07
-12.11
-13.26
-14.56
-15.94
-17.28
-18.44
-19.36
-20.08
-20.71
-21.49
-22.63
-24.22
-26.15
-27.97
-28.96
-28.35
-25.55
-20.47
-13.56
-5.69
2.17
9.23
15.06
19.58
22.87
24.99
25.96
25.76
24.51
22.49
20.11
17.77
15.71
13.98
12.48
11.07
9.71
8.47
7.43
6.70
6.26
6.07
6.04
6.07
6.07
5.96
5.63
5.01
4.08
2.89
1.57
0.24
-1.02
-2.21
-3.42
-4.72
-6.15
-7.71
-9.35
-11.03
-12.71
-14.33
-15.84
-17.17
-18.29
-19.21
-20.05
-21.03
-22.39
-24.27
-26.53
-28.68
-29.92
-29.38
-26.39
-20.84
-13.20
-4.46
4.23
11.93
18.07
22.51
25.34
26.71
26.77
25.70
23.79
21.44
19.06
16.95
15.14
13.49
11.76
9.84
7.83
6.00
4.70
4.11
4.19
4.67
5.19
5.43
5.24
4.63
3.74
2.70
1.60
0.45
-0.74
-2.01
-3.36
-4.80
-6.40
-8.21
-10.26
-12.50
-14.76
-16.79
-18.42
-19.63
-20.61
-21.73
-23.37
-25.64
-28.24
-30.46
-31.34
-30.01
-26.07
-19.69
-11.60
-2.83
5.63
13.04
18.97
23.31
26.06
27.33
27.25
26.03
24.01
21.57
19.12
16.94
15.11
13.52
11.97
10.32
8.61
7.06
5.96
5.51
5.67
6.14
6.47
6.27
5.43
4.16
2.90
2.16
2.20
2.91
3.86
4.44
4.08
2.52
-0.23
-3.80
-7.74
-11.54
-14.83
-17.41
-19.29
-20.68
-21.97
-23.65
-26.14
-29.54
-33.41
-36.74
-38.15
-36.35
-30.68
-21.36
-9.57
3.04
14.87
24.81
32.40
37.70
40.97
42.46
42.34
40.79
38.14
34.85
31.43
28.26
25.50
23.06
20.76
18.43
16.02
13.67
11.58
9.98
8.98
8.52
8.37
8.20
7.70
6.67
5.08
3.11
1.01
-0.97
-2.70
-4.20
-5.63
-7.18
-8.99
-11.07
-13.31
-15.51
-17.48
-19.10
-20.31
-21.18
-21.84
-22.50
-23.44
-24.98
-27.28
-30.25
-33.35
-35.66
-36.08
-33.65
-27.96
-19.33
-8.77
2.35
12.71
21.35
27.84
32.15
34.49
35.11
34.26
32.20
29.27
25.88
22.50
19.47
16.96
14.96
13.31
11.84
10.47
9.23
8.24
7.58
7.31
7.36
7.62
7.91
8.12
8.13
7.85
7.20
6.11
4.57
2.62
0.41
-1.90
-4.13
-6.19
-8.08
-9.88
-11.71
-13.60
-15.51
-17.29
-18.78
-19.89
-20.65
-21.21
-21.82
-22.75
-24.23
-26.33
-28.91
-31.56
-33.57
-34.13
-32.44
-28.05
-21.02
-11.99
-2.07
7.52
15.72
21.91
25.97
28.11
28.71
28.15
26.69
24.58
22.06
19.42
16.94
14.85
13.20
11.92
10.83
9.78
8.78
7.93
7.41
7.38
7.84
8.67
9.57
10.20
10.23
9.46
7.87
5.65
3.11
0.59
-1.66
-3.55
-5.17
-6.77
-8.58
-10.74
-13.19
-15.70
-18.01
-19.90
-21.27
-22.22
-22.94
-23.72
-24.85
-26.53
-28.85
-31.57
-34.13
-35.59
-34.94
-31.37
-24.69
-15.42
-4.67
6.16
15.90
23.79
29.53
33.18
34.92
34.99
33.68
31.31
28.34
25.20
22.23
19.59
17.30
15.31
13.57
12.08
10.87
9.97
9.35
8.96
8.73
8.60
8.54
8.47
8.30
7.91
7.15
5.95
4.31
2.36
0.33
-1.55
-3.11
-4.35
-5.38
-6.47
-7.84
-9.60
-11.71
-14.01
-16.32
-18.46
-20.33
-21.84
-22.98
-23.80
-24.52
-25.48
-27.08
-29.49
-32.44
-35.12
-36.35
-34.94
-30.21
-22.24
-11.90
-0.56
10.31
19.57
26.57
31.17
33.61
34.33
33.81
32.51
30.81
28.96
27.09
25.16
23.07
20.73
18.13
15.41
12.82
10.66
9.17
8.46
8.42
8.78
9.17
9.29
8.94
8.09
6.82
5.25
3.49
1.62
-0.31
-2.21
-3.99
-5.56
-6.92
-8.14
-9.34
-10.68
-12.22
-13.95
-15.75
-17.47
-18.96
-20.13
-21.02
-21.72
-22.36
-23.07
-24.04
-25.42
-27.36
-29.80
-32.32
-34.12
-34.14
-31.47
-25.69
-17.15
-6.93
3.59
13.11
20.85
26.56
30.36
32.54
33.33
32.92
31.49
29.33
26.79
24.22
21.89
19.97
18.49
17.39
16.59
15.96
15.35
14.67
13.86
13.01
12.23
11.61
11.09
10.47
9.49
7.97
5.96
3.69
1.48
-0.46
-2.13
-3.72
-5.46
-7.50
-9.80
-12.19
-14.50
-16.62
-18.53
-20.26
-21.75
-22.94
-23.76
-24.30
-24.83
-25.72
-27.29
-29.55
-32.08
-34.03
-34.36
-32.18
-27.09
-19.36
-9.84
0.25
9.74
17.79
23.99
28.27
30.76
31.64
31.05
29.19
26.36
23.02
19.68
16.78
14.53
12.86
11.53
10.26
8.91
7.52
6.28
5.39
4.95
4.86
4.92
4.86
4.46
3.63
2.42
0.96
-0.56
-1.94
-3.09
-4.02
-4.91
-5.94
-7.29
-8.99
-10.90
-12.80
-14.48
-15.84
-16.97
-18.03
-19.19
-20.59
-22.32
-24.42
-26.84
-29.35
-31.42
-32.27
-31.04
-27.17
-20.61
-11.99
-2.40
6.99
15.20
21.73
26.45
29.46
30.90
30.90
29.69
27.62
25.18
22.90
21.13
19.97
19.27
18.71
18.01
17.06
15.91
14.75
13.83
13.25
13.01
12.89
12.63
11.96
10.74
8.96
6.77
4.42
2.12
0.08
-1.64
-3.08
-4.39
-5.74
-7.32
-9.21
-11.41
-13.78
-16.10
-18.19
-19.91
-21.27
-22.43
-23.63
-25.16
-27.22
-29.78
-32.51
-34.72
-35.54
-34.12
-29.97
-23.16
-14.39
-4.74
4.55
12.46
18.41
22.28
24.29
24.84
24.31
22.98
21.05
18.70
16.13
13.63
11.47
9.82
8.70
7.97
7.39
6.81
6.20
5.63
5.27
5.18
5.34
5.59
5.71
5.49
4.78
3.60
2.03
0.31
-1.34
-2.74
-3.91
-5.04
-6.37
-8.12
-10.27
-12.61
-14.77
-16.44
-17.50
-18.00
-18.16
-18.28
-18.63
-19.45
-20.93
-23.04
-25.49
-27.61
-28.49
-27.20
-23.20
-16.58
-8.10
1.02
9.60
16.77
22.18
25.88
28.08
28.97
28.66
27.21
24.85
21.96
19.04
16.55
14.71
13.49
12.58
11.68
10.58
9.32
8.14
7.31
6.99
7.12
7.39
7.41
6.86
5.68
4.00
2.14
0.42
-0.99
-2.07
-3.01
-4.04
-5.35
-7.03
-9.05
-11.21
-13.31
-15.10
-16.43
-17.29
-17.82
-18.33
-19.15
-20.60
-22.76
-25.37
-27.81
-29.19
-28.65
-25.58
-19.90
-12.11
-3.15
5.85
13.92
20.43
25.17
28.21
29.76
29.98
28.99
26.96
24.22
21.19
18.35
16.02
14.26
12.91
11.65
10.30
8.85
7.51
6.57
6.19
6.33
6.71
6.96
6.77
6.02
4.76
3.19
1.53
-0.10
-1.64
-3.12
-4.60
-6.18
-7.87
-9.72
-11.66
-13.60
-15.36
-16.78
-17.73
-18.29
-18.67
-19.22
-20.31
-22.18
-24.86
-28.07
-31.21
-33.40
-33.65
-31.19
-25.76
-17.78
-8.29
1.37
9.95
16.68
21.35
24.21
25.69
26.13
25.71
24.49
22.57
20.19
17.71
15.46
13.59
12.07
10.69
9.29
7.81
6.45
5.50
5.19
5.54
6.29
7.01
7.29
6.87
5.78
4.27
2.68
1.31
0.32
-0.36
-0.93
-1.65
-2.71
-4.19
-6.00
-7.96
-9.81
-11.35
-12.51
-13.34
-14.07
-15.01
-16.48
-18.68
-21.52
-24.57
-27.06
-28.07
-26.83
-22.93
-16.54
-8.38
0.48
8.92
16.04
21.32
24.67
26.27
26.45
25.54
23.82
21.56
19.00
16.45
14.12
12.16
10.53
9.09
7.70
6.35
5.16
4.30
3.91
3.93
4.18
4.40
4.36
4.00
3.32
2.40
1.28
-0.03
-1.54
-3.26
-5.14
-7.11
-9.06
-10.90
-12.57
-14.02
-15.28
-16.37
-17.40
-18.52
-19.95
-21.90
-24.36
-27.03
-29.17
-29.80
-28.03
-23.42
-16.22
-7.36
1.87
10.26
17.02
21.89
25.00
26.65
27.11
26.55
25.16
23.17
20.89
18.68
16.81
15.37
14.26
13.29
12.31
11.34
10.56
10.25
10.55
11.41
12.49
13.37
13.62
13.08
11.80
10.09
8.25
6.54
5.02
3.57
2.00
0.08
-2.28
-5.05
-8.04
-10.91
-13.38
-15.26
-16.57
-17.52
-18.50
-19.92
-22.09
-25.00
-28.29
-31.18
-32.66
-31.85
-28.24
-22.00
-13.91
-5.12
3.19
10.19
15.44
18.94
20.92
21.65
21.36
20.26
18.57
16.55
14.50
12.65
11.13
9.94
8.95
8.01
7.04
6.07
5.22
4.64
4.40
4.44
4.57
4.52
4.08
3.17
1.88
0.40
-1.04
-2.35
-3.51
-4.64
-5.87
-7.27
-8.84
-10.52
-12.19
-13.78
-15.22
-16.47
-17.54
-18.44
-19.24
-20.07
-21.11
-22.48
-24.19
-25.96
-27.23
-27.24
-25.31
-21.10
-14.77
-7.01
1.18
8.87
15.38
20.41
23.88
25.88
26.48
25.80
24.05
21.59
18.84
16.17
13.82
11.84
10.16
8.70
7.44
6.47
5.90
5.79
6.04
6.45
6.73
6.61
5.96
4.83
3.45
2.05
0.85
-0.10
-0.91
-1.78
-2.93
-4.46
-6.36
-8.52
-10.75
-12.84
-14.63
-16.05
-17.08
-17.87
-18.65
-19.76
-21.44
-23.73
-26.28
-28.32
-28.86
-27.01
-22.39
-15.27
-6.56
2.50
10.78
17.54
22.49
25.73
27.49
27.98
27.34
25.76
23.49
20.89
18.33
16.07
14.17
12.57
11.12
9.74
8.43
7.28
6.44
5.98
5.91
6.09
6.33
6.38
6.04
5.24
4.02
2.59
1.21
0.07
-0.76
-1.41
-2.14
-3.22
-4.78
-6.73
-8.78
-10.60
-11.91
-12.66
-13.01
-13.31
-13.93
-15.20
-17.31
-20.20
-23.48
-26.44
-28.08
-27.48
-24.06
-17.88
-9.72
-0.77
7.71
14.80
20.09
23.60
25.58
26.31
26.02
24.92
23.18
21.04
18.75
16.51
14.42
12.53
10.81
9.24
7.78
6.40
5.17
4.21
3.67
3.66
4.12
4.79
5.29
5.24
4.45
3.04
1.31
-0.34
-1.63
-2.51
-3.17
-3.89
-4.97
-6.48
-8.38
-10.46
-12.46
-14.18
-15.49
-16.35
-16.78
-16.94
-17.06
-17.50
-18.63
-20.67
-23.48
-26.47
-28.66
-28.98
-26.65
-21.50
-14.05
-5.38
3.29
10.88
16.73
20.65
22.77
23.39
22.86
21.49
19.59
17.43
15.27
13.31
11.63
10.23
8.99
7.76
6.49
5.26
4.27
3.72
3.70
4.09
4.62
4.92
4.72
3.95
2.75
1.35
0.01
-1.18
-2.25
-3.31
-4.50
-5.86
-7.39
-8.99
-10.58
-12.09
-13.45
-14.63
-15.63
-16.51
-17.42
-18.61
-20.31
-22.57
-25.09
-27.17
-27.89
-26.39
-22.27
-15.71
-7.53
1.17
9.30
16.11
21.25
24.68
26.51
26.93
26.15
24.45
22.17
19.66
17.28
15.22
13.51
12.08
10.80
9.60
8.52
7.69
7.23
7.18
7.43
7.74
7.84
7.50
6.67
5.43
4.01
2.62
1.40
0.37
-0.58
-1.65
-3.04
-4.85
-7.06
-9.47
-11.82
-13.79
-15.21
-16.04
-16.46
-16.79
-17.47
-18.83
-20.96
-23.52
-25.79
-26.78
-25.58
-21.68
-15.21
-6.90
2.13
10.78
18.15
23.79
27.58
29.59
30.01
29.04
26.93
24.02
20.73
17.44
14.47
11.95
9.86
8.06
6.44
4.95
3.64
2.64
2.07
1.92
2.09
2.34
2.41
2.10
1.30
0.12
-1.24
-2.53
-3.56
-4.30
-4.88
-5.56
-6.61
-8.17
-10.21
-12.50
-14.68
-16.42
-17.50
-18.00
-18.19
-18.48
-19.31
-20.90
-23.15
-25.58
-27.40
-27.73
-25.89
-21.57
-15.06
-7.08
1.35
9.24
15.88
20.92
24.31
26.23
26.86
26.37
24.96
22.84
20.29
17.62
15.09
12.85
10.92
9.23
7.73
6.43
5.43
4.89
4.88
5.33
6.00
6.54
6.57
5.90
4.55
2.76
0.91
-0.67
-1.84
-2.68
-3.45
-4.45
-5.87
-7.73
-9.85
-11.90
-13.54
-14.58
-15.02
-15.08
-15.18
-15.74
-17.05
-19.11
-21.54
-23.67
-24.68
-23.85
-20.80
-15.62
-8.83
-1.22
6.33
13.09
18.58
22.56
25.02
26.06
25.86
24.64
22.70
20.31
17.76
15.28
13.00
11.01
9.27
7.79
6.54
5.59
4.97
4.75
4.85
5.11
5.32
5.20
4.61
3.57
2.27
0.92
-0.32
-1.46
-2.67
-4.14
-5.96
-8.02
-10.05
-11.77
-13.04
-13.91
-14.65
-15.57
-16.96
-18.96
-21.49
-24.24
-26.64
-27.97
-27.47
-24.61
-19.33
-12.11
-3.86
4.33
11.56
17.29
21.38
23.98
25.29
25.49
24.71
23.09
20.85
18.26
15.66
13.27
11.23
9.55
8.19
7.10
6.25
5.65
5.30
5.15
5.11
5.05
4.84
4.35
3.54
2.44
1.13
-0.23
-1.55
-2.74
-3.81
-4.86
-5.99
-7.32
-8.86
-10.55
-12.22
-13.73
-14.98
-16.00
-16.95
-18.02
-19.41
-21.21
-23.27
-25.20
-26.36
-26.08
-23.76
-19.21
-12.71
-4.99
2.97
10.21
16.07
20.27
22.88
24.15
24.39
23.79
22.49
20.59
18.27
15.76
13.32
11.17
9.36
7.86
6.52
5.28
4.17
3.33
2.91
2.97
3.39
3.92
4.28
4.22
3.68
2.73
1.55
0.29
-0.94
-2.16
-3.44
-4.89
-6.57
-8.46
-10.44
-12.33
-13.93
-15.11
-15.87
-16.39
-16.98
-18.06
-19.89
-22.46
-25.36
-27.77
-28.71
-27.36
-23.38
-16.99
-8.98
-0.40
7.73
14.64
19.91
23.43
25.27
25.63
24.75
22.93
20.52
17.87
15.27
12.93
10.95
9.28
7.84
6.56
5.38
4.36
3.64
3.33
3.46
3.93
4.46
4.72
4.48
3.64
2.38
0.99
-0.28
-1.31
-2.20
-3.24
-4.67
-6.60
-8.86
-11.09
-12.94
-14.17
-14.89
-15.42
-16.25
-17.75
-20.03
-22.86
-25.62
-27.50
-27.64
-25.41
-20.54
-13.31
-4.48
4.90
13.65
20.85
25.95
28.88
29.91
29.53
28.24
26.41
24.30
22.08
19.86
17.75
15.83
14.09
12.47
10.88
9.30
7.84
6.67
5.96
5.74
5.83
5.94
5.74
5.03
3.79
2.16
0.38
-1.35
-2.94
-4.44
-5.95
-7.60
-9.47
-11.49
-13.49
-15.28
-16.73
-17.85
-18.82
-19.93
-21.46
-23.57
-26.22
-29.09
-31.59
-32.96
-32.39
-29.27
-23.42
-15.26
-5.71
3.99
12.65
19.46
24.09
26.66
27.53
27.12
25.74
23.67
21.16
18.48
15.88
13.60
11.72
10.22
8.98
7.86
6.83
5.94
5.34
5.17
5.46
6.03
6.57
6.66
6.07
4.74
2.92
0.99
-0.71
-2.01
-3.01
-4.00
-5.30
-7.09
-9.35
-11.86
-14.28
-16.28
-17.69
-18.57
-19.19
-19.94
-21.21
-23.22
-25.92
-28.89
-31.41
-32.56
-31.48
-27.61
-20.91
-11.94
-1.78
8.28
17.06
23.82
28.30
30.73
31.52
31.06
29.68
27.58
24.99
22.23
19.62
17.37
15.54
13.98
12.47
10.88
9.25
7.83
6.88
6.59
6.91
7.57
8.12
8.17
7.45
5.99
4.06
2.07
0.39
-0.82
-1.63
-2.40
-3.53
-5.27
-7.60
-10.24
-12.78
-14.84
-16.26
-17.09
-17.58
-18.11
-19.01
-20.51
-22.62
-25.09
-27.35
-28.61
-28.02
-24.96
-19.26
-11.33
-2.11
7.24
15.59
22.14
26.54
28.86
29.41
28.67
27.05
24.88
22.42
19.82
17.19
14.62
12.18
9.95
7.99
6.40
5.23
4.54
4.36
4.63
5.21
5.82
6.18
6.02
5.19
3.75
1.92
-0.01
-1.75
-3.16
-4.29
-5.34
-6.56
-8.11
-10.01
-12.06
-13.98
-15.50
-16.55
-17.22
-17.80
-18.66
-20.11
-22.33
-25.19
-28.22
-30.60
-31.30
-29.39
-24.41
-16.54
-6.70
3.74
13.42
21.31
26.97
30.43
31.98
31.98
30.69
28.38
25.32
21.93
18.59
15.61
13.12
11.03
9.19
7.49
5.96
4.77
4.10
4.05
4.53
5.32
6.12
6.62
6.58
5.87
4.49
2.59
0.47
-1.57
-3.27
-4.60
-5.70
-6.83
-8.25
-10.04
-12.13
-14.29
-16.27
-17.87
-19.00
-19.73
-20.24
-20.88
-22.03
-23.99
-26.81
-30.07
-32.88
-34.10
-32.67
-28.00
-20.27
-10.38
0.33
10.48
19.04
25.46
29.69
31.96
32.58
31.87
30.09
27.55
24.57
21.47
18.52
15.89
13.65
11.76
10.10
8.61
7.26
6.11
5.31
4.98
5.13
5.65
6.29
6.74
6.71
6.05
4.81
3.17
1.39
-0.30
-1.72
-2.84
-3.75
-4.65
-5.77
-7.33
-9.40
-11.88
-14.48
-16.81
-18.49
-19.40
-19.68
-19.76
-20.18
-21.36
-23.42
-26.05
-28.57
-30.08
-29.77
-27.08
-21.97
-14.90
-6.70
1.68
9.49
16.29
21.94
26.36
29.32
30.43
29.33
26.06
21.25
16.06
11.80
9.33
8.69
9.06
9.23
8.17
5.65
2.32
-0.52
-1.54
0.21
4.94
12.11
20.47
27.98
31.98
29.78
19.60
1.81
-20.42
-41.72
-56.17
-59.69
-51.66
-35.09
-15.09
3.47
17.81
27.77
34.92
41.05
46.92
52.14
55.87
57.67
58.07
58.31
59.69
62.84
67.50
72.61
77.04
80.00
81.34
81.41
80.74
79.70
78.34
76.44
73.72
70.07
65.58
60.46
54.64
47.48
37.57
22.93
1.68
-26.90
-61.44
-98.31
-132.52
-159.30
-175.92
-182.51
-181.64
-176.77
-170.52
-163.76
-155.83
-145.65
-132.91
-118.55
-104.28
-91.69
-81.35
-72.79
-64.98
-57.10
-49.06
-41.45
-35.12
-30.64
-28.03
-26.81
-26.28
-26.01
-25.87
-25.98
-26.32
-26.45
-25.52
-22.51
-16.71
-8.08
2.62
14.08
24.87
33.85
40.40
44.47
46.39
46.67
45.81
44.27
42.38
40.43
38.59
36.92
35.38
33.89
32.36
30.80
29.32
28.10
27.34
27.06
27.09
27.10
26.68
25.55
23.68
21.30
18.80
16.56
14.75
13.32
12.02
10.57
8.73
6.44
3.83
1.09
-1.48
-3.70
-5.43
-6.76
-7.94
-9.36
-11.44
-14.43
-18.26
-22.42
-26.00
-27.90
-27.17
-23.28
-16.32
-7.05
3.35
13.54
22.41
29.24
33.83
36.34
37.13
36.59
35.05
32.75
29.93
26.85
23.81
21.06
18.78
17.02
15.77
14.95
14.52
14.44
14.63
14.95
15.21
15.14
14.56
13.38
11.72
9.85
8.10
6.69
5.69
4.90
4.00
2.68
0.79
-1.59
-4.12
-6.41
-8.16
-9.29
-10.03
-10.75
-11.91
-13.78
-16.39
-19.40
-22.12
-23.67
-23.18
-20.06
-14.25
-6.27
2.94
12.21
20.51
27.09
31.60
33.98
34.41
33.22
30.86
27.80
24.48
21.22
18.20
15.46
13.02
10.91
9.23
8.07
7.43
7.26
7.38
7.64
7.90
8.03
7.90
7.37
6.39
4.97
3.26
1.47
-0.21
-1.73
-3.18
-4.72
-6.47
-8.45
-10.54
-12.53
-14.23
-15.57
-16.67
-17.79
-19.28
-21.41
-24.25
-27.49
-30.40
-31.98
-31.25
-27.58
-21.02
-12.34
-2.77
6.31
13.85
19.30
22.60
24.07
24.09
23.01
21.11
18.68
16.03
13.50
11.33
9.60
8.18
6.81
5.25
3.41
1.43
-0.41
-1.82
-2.61
-2.79
-2.54
-2.05
-1.43
-0.64
0.46
2.04
4.12
6.54
8.96
10.93
12.04
12.02
10.82
8.65
5.84
2.83
-0.00
-2.46
-4.56
-6.50
-8.67
-11.41
-14.96
-19.22
-23.72
-27.61
-29.91
-29.75
-26.74
-21.15
-13.82
-5.92
1.39
7.34
11.60
14.24
15.53
15.76
15.12
13.76
11.86
9.63
7.35
5.32
3.74
2.73
2.27
2.22
2.41
2.64
2.83
3.00
3.25
3.66
4.25
4.89
5.35
5.42
4.97
4.05
2.86
1.63
0.55
-0.35
-1.17
-2.06
-3.19
-4.65
-6.39
-8.26
-10.03
-11.45
-12.38
-12.81
-12.94
-13.09
-13.63
-14.87
-16.94
-19.72
-22.82
-25.60
-27.26
-27.07
-24.52
-19.58
-12.71
-4.79
3.15
10.20
15.79
19.67
21.89
22.61
22.02
20.33
17.83
14.89
11.91
9.24
7.06
5.42
4.24
3.44
2.91
2.62
2.51
2.58
2.81
3.16
3.55
3.88
3.97
3.67
2.85
1.54
-0.12
-1.84
-3.33
-4.45
-5.23
-5.92
-6.77
-7.98
-9.52
-11.16
-12.64
-13.78
-14.58
-15.22
-15.94
-16.92
-18.24
-19.90
-21.91
-24.26
-26.85
-29.36
-31.19
-31.63
-30.08
-26.22
-20.23
-12.68
-4.39
3.79
11.13
17.10
21.35
23.78
24.48
23.70
21.82
19.26
16.35
13.33
10.33
7.44
4.73
2.30
0.23
-1.35
-2.30
-2.46
-1.74
-0.19
1.94
4.23
6.22
7.57
8.13
8.01
7.38
6.47
5.39
4.20
2.93
1.62
0.36
-0.81
-1.90
-3.00
-4.29
-5.99
-8.30
-11.35
-15.01
-18.81
-21.93
-23.38
-22.31
-18.34
-11.77
-3.53
5.17
13.21
19.85
24.82
28.16
30.02
30.53
29.77
27.87
25.08
21.83
18.51
15.44
12.75
10.43
8.37
6.52
4.90
3.67
2.97
2.86
3.26
3.92
4.52
4.77
4.49
3.71
2.55
1.23
-0.08
-1.30
-2.43
-3.55
-4.76
-6.15
-7.69
-9.30
-10.84
-12.19
-13.35
-14.49
-15.94
-18.04
-20.98
-24.55
-28.05
-30.41
-30.54
-27.66
-21.74
-13.47
-4.05
5.18
13.14
19.27
23.46
25.88
26.78
26.36
24.83
22.43
19.51
16.45
13.58
11.10
9.01
7.21
5.58
4.08
2.82
1.92
1.51
1.56
1.92
2.31
2.45
2.16
1.39
0.23
-1.16
-2.64
-4.13
-5.63
-7.21
-8.88
-10.64
-12.41
-14.03
-15.35
-16.32
-17.04
-17.78
-18.93
-20.81
-23.55
-26.93
-30.32
-32.78
-33.28
-31.05
-25.82
-17.97
-8.44
1.47
10.54
17.83
22.93
25.85
26.95
26.63
25.31
23.28
20.77
18.01
15.22
12.61
10.32
8.36
6.67
5.17
3.86
2.86
2.34
2.40
2.96
3.71
4.25
4.23
3.51
2.23
0.68
-0.90
-2.38
-3.89
-5.55
-7.44
-9.42
-11.20
-12.56
-13.43
-13.97
-14.52
-15.47
-17.11
-19.60
-22.79
-26.29
-29.37
-31.08
-30.46
-26.88
-20.30
-11.37
-1.32
8.48
16.86
23.13
27.17
29.25
29.80
29.21
27.77
25.63
22.94
19.89
16.75
13.85
11.45
9.69
8.50
7.72
7.16
6.71
6.33
6.03
5.79
5.53
5.14
4.54
3.74
2.78
1.72
0.57
-0.72
-2.20
-3.86
-5.63
-7.36
-8.93
-10.31
-11.58
-12.89
-14.46
-16.47
-19.02
-22.05
-25.24
-28.04
-29.65
-29.23
-26.20
-20.44
-12.46
-3.30
5.79
13.69
19.77
23.88
26.29
27.38
27.44
26.62
24.96
22.61
19.81
16.94
14.33
12.20
10.53
9.22
8.16
7.28
6.61
6.24
6.16
6.27
6.39
6.28
5.80
4.90
3.69
2.37
1.16
0.22
-0.42
-0.89
-1.39
-2.15
-3.35
-5.01
-7.06
-9.27
-11.39
-13.21
-14.58
-15.47
-16.00
-16.38
-16.87
-17.79
-19.39
-21.80
-24.85
-27.99
-30.31
-30.73
-28.41
-23.03
-15.03
-5.50
4.15
12.65
19.21
23.55
25.81
26.29
25.30
23.10
20.04
16.58
13.30
10.68
8.99
8.20
8.02
8.06
8.02
7.80
7.47
7.14
6.88
6.66
6.41
6.00
5.33
4.37
3.19
1.95
0.89
0.18
-0.09
-0.03
0.12
0.06
-0.41
-1.37
-2.80
-4.64
-6.81
-9.21
-11.67
-13.98
-15.86
-17.11
-17.70
-17.76
-17.63
-17.77
-18.61
-20.39
-22.99
-25.83
-27.90
-28.10
-25.55
-19.95
-11.80
-2.20
7.43
15.84
22.24
26.36
28.38
28.72
27.91
26.43
24.66
22.85
21.08
19.32
17.49
15.51
13.41
11.41
9.78
8.82
8.69
9.39
10.72
12.44
14.24
15.84
16.93
17.20
16.47
14.72
12.19
9.33
6.61
4.37
2.67
1.32
-0.01
-1.59
-3.54
-5.83
-8.27
-10.67
-12.80
-14.46
-15.52
-15.97
-15.97
-15.90
-16.23
-17.46
-19.83
-23.17
-26.81
-29.66
-30.56
-28.65
-23.72
-16.33
-7.65
0.94
8.33
13.90
17.60
19.71
20.61
20.55
19.65
18.00
15.79
13.34
11.02
9.08
7.58
6.36
5.19
3.93
2.63
1.52
0.85
0.78
1.27
2.05
2.79
3.17
3.04
2.42
1.49
0.48
-0.44
-1.18
-1.82
-2.51
-3.49
-4.93
-6.88
-9.24
-11.78
-14.19
-16.27
-17.92
-19.16
-20.20
-21.30
-22.72
-24.66
-27.14
-29.85
-32.10
-33.00
-31.63
-27.43
-20.44
-11.35
-1.33
8.37
16.77
23.36
28.08
31.11
32.69
32.99
32.09
30.12
27.36
24.24
21.21
18.64
16.66
15.14
13.85
12.59
11.30
10.12
9.26
8.84
8.85
9.14
9.43
9.42
8.94
7.90
6.37
4.52
2.59
0.74
-0.98
-2.70
-4.62
-6.94
-9.65
-12.54
-15.21
-17.30
-18.63
-19.27
-19.51
-19.69
-20.09
-20.89
-22.19
-24.06
-26.45
-29.04
-31.20
-32.01
-30.57
-26.38
-19.59
-11.08
-2.09
6.16
12.88
17.82
21.14
23.19
24.23
24.40
23.77
22.45
20.63
18.61
16.61
14.79
13.19
11.77
10.50
9.37
8.43
7.75
7.35
7.21
7.27
7.37
7.35
7.07
6.42
5.39
4.01
2.40
0.70
-0.94
-2.41
-3.64
-4.69
-5.67
-6.70
-7.86
-9.12
-10.33
-11.29
-11.91
-12.21
-12.36
-12.59
-13.12
-14.09
-15.54
-17.48
-19.80
-22.26
-24.41
-25.59
-25.08
-22.34
-17.25
-10.24
-2.20
5.80
12.76
18.07
21.53
23.35
23.90
23.57
22.66
21.32
19.66
17.73
15.68
13.66
11.83
10.33
9.19
8.43
7.98
7.80
7.85
8.08
8.41
8.70
8.72
8.21
6.95
4.84
2.03
-1.16
-4.26
-6.87
-8.74
-9.90
-10.61
-11.22
-12.02
-13.16
-14.57
-16.03
-17.28
-18.10
-18.43
-18.37
-18.13
-18.01
-18.32
-19.33
-21.14
-23.67
-26.55
-29.14
-30.56
-29.97
-26.81
-21.08
-13.34
-4.61
3.96
11.47
17.43
21.79
24.75
26.49
27.16
26.77
25.41
23.28
20.73
18.17
15.88
13.97
12.36
10.92
9.59
8.45
7.69
7.48
7.85
8.59
9.37
9.78
9.54
8.55
6.97
5.11
3.32
1.88
0.87
0.20
-0.32
-0.97
-1.95
-3.32
-5.02
-6.82
-8.49
-9.83
-10.82
-11.60
-12.43
-13.63
-15.45
-17.99
-21.10
-24.40
-27.25
-28.89
-28.58
-25.88
-20.79
-13.85
-5.96
1.85
8.79
14.40
18.62
21.58
23.44
24.30
24.19
23.19
21.46
19.31
17.08
15.09
13.47
12.20
11.17
10.21
9.25
8.27
7.33
6.53
5.99
5.76
5.83
6.12
6.45
6.61
6.37
5.61
4.35
2.77
1.13
-0.35
-1.60
-2.66
-3.70
-4.81
-6.01
-7.24
-8.39
-9.37
-10.18
-10.87
-11.51
-12.19
-12.98
-14.04
-15.57
-17.70
-20.39
-23.27
-25.63
-26.65
-25.59
-22.17
-16.64
-9.74
-2.49
4.20
9.72
13.87
16.68
18.33
18.92
18.50
17.15
15.10
12.71
10.40
8.51
7.13
6.16
5.36
4.51
3.53
2.46
1.44
0.61
0.10
-0.07
0.05
0.33
0.56
0.50
-0.02
-1.08
-2.61
-4.41
-6.23
-7.86
-9.21
-10.35
-11.40
-12.54
-13.81
-15.15
-16.41
-17.39
-17.99
-18.25
-18.36
-18.61
-19.35
-20.82
-23.09
-25.92
-28.76
-30.76
-31.05
-29.05
-24.62
-18.22
-10.70
-3.00
4.08
10.03
14.64
17.82
19.50
19.68
18.48
16.32
13.94
12.22
11.98
13.58
16.87
21.20
25.66
29.51
32.34
34.28
35.80
37.45
39.49
41.75
43.65
44.52
43.99
42.23
39.93
38.10
37.64
39.22
43.27
49.89
58.40
66.88
72.05
70.05
58.06
35.85
6.44
-24.73
-51.94
-71.32
-81.98
-85.58
-84.81
-81.91
-78.05
-73.81
-69.89
-67.50
-67.82
-71.14
-76.36
-81.23
-83.37
-81.23
-74.75
-65.21
-54.57
-44.64
-36.46
-30.17
-25.13
-20.39
-15.10
-8.99
-2.50
3.28
7.05
7.88
5.69
1.31
-3.80
-8.16
-10.75
-11.08
-8.99
-4.45
2.57
11.77
22.24
32.36
40.18
44.03
43.26
38.62
32.10
26.30
23.50
24.87
30.15
37.81
45.66
51.57
54.08
52.54
47.31
39.62
31.60
26.14
26.18
33.22
45.64
58.15
63.02
53.32
26.44
-13.98
-59.07
-98.46
-124.70
-135.98
-135.71
-129.64
-122.17
-114.37
-104.45
-89.97
-70.30
-47.43
-24.98
-6.26
7.41
16.92
24.51
32.19
40.60
48.71
54.59
56.58
54.19
48.48
41.49
35.42
31.65
30.31
30.41
30.46
29.27
26.49
22.73
19.21
17.13
17.07
18.74
21.11
22.94
23.31
21.97
19.41
16.50
14.10
12.66
12.07
11.80
11.17
9.67
7.11
3.67
-0.24
-4.09
-7.46
-10.10
-12.05
-13.60
-15.22
-17.44
-20.63
-24.85
-29.71
-34.37
-37.71
-38.61
-36.34
-30.71
-22.22
-11.90
-1.00
9.29
18.16
25.18
30.26
33.51
35.09
35.17
33.99
31.86
29.20
26.40
23.76
21.40
19.32
17.45
15.79
14.45
13.57
13.26
13.46
13.96
14.41
14.54
14.20
13.47
12.51
11.47
10.39
9.15
7.55
5.45
2.88
-0.01
-2.97
-5.80
-8.40
-10.81
-13.23
-15.90
-19.05
-22.80
-26.97
-31.00
-33.96
-34.76
-32.47
-26.70
-17.81
-6.83
4.85
15.88
25.29
32.61
37.69
40.64
41.60
40.80
38.60
35.44
31.82
28.16
24.70
21.47
18.44
15.62
13.11
11.13
9.87
9.42
9.63
10.20
10.65
10.57
9.67
7.94
5.60
3.03
0.64
-1.30
-2.79
-4.06
-5.43
-7.19
-9.36
-11.77
-14.12
-16.18
-17.93
-19.55
-21.39
-23.82
-27.10
-31.29
-36.13
-41.00
-44.90
-46.65
-45.18
-39.91
-31.11
-19.86
-7.75
3.60
13.02
20.02
24.75
27.68
29.33
30.09
30.17
29.72
28.86
27.75
26.51
25.21
23.84
22.35
20.74
19.04
17.37
15.89
14.74
13.95
13.37
12.77
11.84
10.42
8.57
6.65
5.15
4.58
5.17
6.77
8.93
11.00
12.47
13.01
12.52
11.03
8.55
5.02
0.41
-5.25
-11.73
-18.73
-25.84
-32.64
-38.55
-42.79
-44.38
-42.32
-35.97
-25.43
-11.62
3.82
18.98
32.13
42.13
48.52
51.46
51.45
49.16
45.32
40.61
35.65
30.92
26.67
22.92
19.53
16.37
13.44
10.93
9.14
8.31
8.44
9.20
10.04
10.31
9.48
7.23
3.57
-1.28
-6.86
-12.68
-18.26
-23.27
-27.55
-31.04
-33.77
-35.70
-36.73
-36.79
-35.89
-34.27
-32.34
-30.62
-29.59
-29.65
-30.95
-33.28
-36.06
-38.28
-38.73
-36.34
-30.57
-21.69
-10.76
0.66
11.01
19.19
24.70
27.62
28.25
26.95
23.97
19.55
14.03
7.93
1.87
-3.53
-7.77
-10.60
-11.98
-12.07
-11.12
-9.45
-7.42
-5.33
-3.47
-2.06
-1.23
-1.03
-1.45
-2.45
-3.98
-5.95
-8.17
-10.39
-12.32
-13.76
-14.64
-15.15
-15.66
-16.62
-18.45
-21.40
-25.45
-30.25
-35.08
-38.94
-40.68
-39.27
-34.16
-25.45
-13.99
-1.22
11.28
22.09
30.26
35.41
37.67
37.47
35.38
31.94
27.64
22.92
18.16
13.68
9.71
6.34
3.51
1.05
-1.22
-3.37
-5.32
-6.80
-7.49
-7.12
-5.67
-3.35
-0.65
1.79
3.41
3.84
3.04
1.30
-0.95
-3.31
-5.55
-7.68
-9.83
-12.20
-14.93
-18.15
-22.02
-26.72
-32.33
-38.55
-44.56
-48.99
-50.26
-47.16
-39.35
-27.55
-13.41
0.99
13.83
23.86
30.66
34.44
35.84
35.67
34.71
33.67
33.03
32.97
33.36
33.80
33.87
33.25
32.02
30.52
29.32
28.92
29.54
31.03
32.89
34.47
35.22
34.96
33.95
32.96
32.94
34.59
37.96
42.14
45.45
45.93
42.14
33.73
21.72
8.09
-4.89
-15.54
-23.23
-28.47
-32.46
-36.45
-41.19
-46.60
-51.79
-55.45
-56.31
-53.61
-47.32
-38.19
-27.41
-16.32
-6.03
2.69
9.47
14.24
17.11
18.29
18.04
16.65
14.45
11.72
8.69
5.54
2.40
-0.65
-3.48
-5.98
-7.99
-9.39
-10.12
-10.24
-9.92
-9.42
-8.97
-8.76
-8.87
-9.32
-10.11
-11.23
-12.66
-14.35
-16.18
-18.04
-19.83
-21.48
-22.98
-24.40
-25.88
-27.65
-30.02
-33.15
-36.94
-40.75
-43.45
-43.62
-40.13
-32.51
-21.33
-7.98
5.68
17.95
27.73
34.58
38.66
40.35
40.08
38.19
34.96
30.78
26.09
21.40
17.10
13.39
10.26
7.59
5.28
3.33
1.88
1.05
0.81
0.99
1.24
1.25
0.89
0.21
-0.61
-1.39
-2.10
-2.91
-4.07
-5.75
-7.94
-10.42
-12.81
-14.79
-16.18
-17.07
-17.75
-18.63
-20.08
-22.40
-25.60
-29.40
-33.19
-35.97
-36.61
-34.11
-28.00
-18.59
-6.99
5.16
16.21
24.96
30.86
34.07
35.12
34.63
33.05
30.66
27.65
24.24
20.72
17.39
14.47
11.98
9.85
7.99
6.41
5.22
4.55
4.46
4.82
5.34
5.67
5.55
4.90
3.80
2.42
0.88
-0.76
-2.53
-4.45
-6.52
-8.64
-10.63
-12.30
-13.50
-14.26
-14.75
-15.35
-16.51
-18.64
-21.95
-26.22
-30.72
-34.29
-35.63
-33.66
-28.00
-19.06
-8.01
3.64
14.45
23.42
30.05
34.24
36.15
36.01
34.16
31.03
27.16
23.11
19.35
16.15
13.55
11.41
9.55
7.86
6.39
5.31
4.82
5.00
5.79
6.92
8.01
8.74
8.96
8.70
8.13
7.40
6.53
5.45
3.98
2.02
-0.37
-2.96
-5.41
-7.40
-8.76
-9.52
-9.92
-10.34
-11.19
-12.83
-15.45
-19.00
-22.99
-26.57
-28.54
-27.75
-23.45
-15.64
-5.16
6.56
17.97
27.83
35.53
41.07
44.70
46.70
47.11
45.76
42.53
37.54
31.28
24.55
18.22
12.91
8.81
5.60
2.67
-0.61
-4.55
-9.01
-13.50
-17.40
-20.25
-21.96
-22.70
-22.78
-22.46
-21.80
-20.73
-19.22
-17.37
-15.51
-14.04
-13.30
-13.42
-14.26
-15.49
-16.72
-17.63
-18.12
-18.32
-18.58
-19.35
-21.04
-23.74
-27.06
-30.14
-31.86
-31.20
-27.61
-21.30
-13.10
-4.22
4.19
11.27
16.58
20.03
21.76
22.01
21.05
19.23
16.87
14.29
11.73
9.36
7.29
5.57
4.15
2.92
1.72
0.48
-0.75
-1.78
-2.38
-2.43
-2.01
-1.44
-1.15
-1.48
-2.58
-4.28
-6.17
-7.79
-8.82
-9.17
-8.99
-8.61
-8.33
-8.31
-8.54
-8.89
-9.20
-9.39
-9.49
-9.62
-9.95
-10.73
-12.19
-14.46
-17.46
-20.71
-23.39
-24.45
-22.95
-18.37
-10.89
-1.34
9.02
18.86
27.05
32.84
35.87
36.09
33.77
29.48
23.99
18.22
12.99
8.85
5.97
4.19
3.19
2.66
2.44
2.53
3.05
4.11
5.73
7.78
10.01
12.05
13.52
14.21
14.13
13.49
12.60
11.75
11.02
10.29
9.28
7.72
5.40
2.27
-1.61
-6.03
-10.72
-15.33
-19.53
-23.07
-25.91
-28.30
-30.63
-33.32
-36.51
-39.88
-42.64
-43.73
-42.19
-37.53
-29.89
-20.02
-9.10
1.66
11.21
18.87
24.30
27.45
28.51
27.82
25.80
22.93
19.68
16.38
13.28
10.49
8.05
5.96
4.22
2.85
1.92
1.47
1.53
2.05
2.85
3.67
4.22
4.29
3.79
2.82
1.65
0.52
-0.39
-1.12
-1.89
-2.97
-4.55
-6.60
-8.87
-11.00
-12.66
-13.77
-14.49
-15.23
-16.44
-18.42
-21.24
-24.56
-27.71
-29.76
-29.74
-26.93
-21.11
-12.73
-2.80
7.35
16.50
23.83
29.02
32.18
33.61
33.56
32.22
29.75
26.39
22.56
18.74
15.32
12.49
10.20
8.23
6.41
4.69
3.24
2.34
2.14
2.60
3.37
3.97
3.93
3.06
1.50
-0.36
-2.05
-3.25
-3.91
-4.22
-4.54
-5.22
-6.41
-8.09
-10.04
-11.98
-13.66
-14.97
-15.94
-16.85
-18.09
-20.12
-23.20
-27.28
-31.76
-35.58
-37.45
-36.22
-31.32
-23.03
-12.36
-0.82
10.15
19.47
26.65
31.64
34.62
35.79
35.32
33.37
30.26
26.42
22.39
18.57
15.23
12.36
9.87
7.65
5.76
4.32
3.53
3.46
4.05
5.05
6.15
7.01
7.40
7.24
6.54
5.44
4.14
2.81
1.55
0.38
-0.79
-2.15
-3.85
-5.96
-8.40
-10.96
-13.37
-15.42
-17.03
-18.28
-19.44
-20.88
-22.95
-25.82
-29.34
-32.93
-35.58
-36.16
-33.70
-27.85
-18.99
-8.22
3.06
13.55
22.37
29.12
33.77
36.41
37.13
36.06
33.47
29.83
25.76
21.85
18.46
15.63
13.19
10.89
8.58
6.34
4.38
2.96
2.22
2.13
2.48
2.95
3.18
2.90
2.04
0.69
-0.95
-2.60
-4.09
-5.40
-6.68
-8.14
-10.00
-12.33
-15.00
-17.75
-20.27
-22.28
-23.71
-24.69
-25.55
-26.72
-28.61
-31.36
-34.66
-37.72
-39.36
-38.37
-33.94
-26.01
-15.33
-3.23
8.82
19.59
28.35
34.79
38.91
40.83
40.76
39.01
36.05
32.45
28.82
25.62
23.04
21.02
19.33
17.67
15.85
13.87
11.91
10.22
9.06
8.57
8.73
9.42
10.40
11.40
12.13
12.34
11.88
10.80
9.26
7.53
5.81
4.14
2.40
0.37
-2.10
-4.99
-8.06
-10.94
-13.31
-15.02
-16.11
-16.84
-17.64
-18.91
-20.96
-23.73
-26.73
-29.00
-29.39
-26.92
-21.23
-12.73
-2.55
7.85
17.13
24.45
29.51
32.48
33.67
33.37
31.76
28.99
25.29
21.04
16.75
12.92
9.89
7.73
6.26
5.18
4.22
3.27
2.43
1.88
1.78
2.10
2.65
3.10
3.16
2.64
1.54
-0.03
-1.88
-3.83
-5.72
-7.46
-8.98
-10.29
-11.42
-12.48
-13.61
-14.90
-16.32
-17.78
-19.09
-20.08
-20.75
-21.21
-21.71
-22.57
-24.10
-26.54
-29.86
-33.65
-37.06
-38.84
-37.71
-32.84
-24.22
-12.78
-0.16
11.82
21.69
28.68
32.76
34.37
34.14
32.60
30.15
27.06
23.60
20.07
16.74
13.87
11.56
9.80
8.54
7.72
7.35
7.41
7.88
8.67
9.61
10.49
11.08
11.10
10.33
8.65
6.12
2.98
-0.38
-3.60
-6.45
-8.93
-11.19
-13.42
-15.74
-18.18
-20.66
-23.10
-25.42
-27.51
-29.30
-30.68
-31.62
-32.17
-32.55
-33.11
-34.25
-36.19
-38.75
-41.23
-42.33
-40.52
-34.48
-23.64
-8.49
9.40
27.79
44.39
57.39
65.79
69.38
68.51
63.86
56.24
46.55
35.73
24.69
14.23
4.90
-2.98
-9.35
-14.24
-17.63
-19.47
-19.68
-18.26
-15.42
-11.53
-7.09
-2.57
1.64
5.27
8.13
10.10
11.17
11.42
11.05
10.36
9.63
9.04
8.61
8.15
7.40
6.15
4.33
2.08
-0.32
-2.55
-4.37
-5.71
-6.73
-7.75
-9.21
-11.50
-14.76
-18.76
-22.75
-25.63
-26.20
-23.55
-17.43
-8.37
2.39
13.35
23.04
30.44
35.05
36.78
35.89
32.78
27.96
22.09
15.90
10.18
5.59
2.54
1.12
1.06
1.86
2.96
3.97
4.73
5.36
6.15
7.32
8.92
10.70
12.25
13.14
13.06
11.99
10.15
7.91
5.64
3.60
1.85
0.26
-1.38
-3.29
-5.61
-8.28
-11.14
-13.93
-16.41
-18.48
-20.16
-21.61
-23.07
-24.79
-26.95
-29.58
-32.50
-35.19
-36.84
-36.50
-33.44
-27.41
-18.83
-8.77
1.40
10.41
17.39
22.03
24.46
25.01
24.05
21.90
18.81
15.10
11.12
7.25
3.81
1.01
-1.06
-2.40
-3.05
-3.09
-2.63
-1.78
-0.70
0.46
1.59
2.60
3.37
3.80
3.77
3.15
1.89
0.00
-2.34
-4.89
-7.32
-9.36
-10.89
-11.97
-12.85
-13.89
-15.45
-17.79
-20.90
-24.45
-27.76
-29.89
-29.83
-26.83
-20.65
-11.76
-1.24
9.51
19.16
26.80
32.03
34.89
35.66
34.71
32.36
28.93
24.80
20.36
16.01
12.07
8.75
6.15
4.26
3.00
2.25
1.86
1.67
1.55
1.42
1.25
1.09
0.92
0.70
0.36
-0.22
-1.12
-2.41
-4.06
-6.04
-8.19
-10.36
-12.34
-14.01
-15.37
-16.60
-18.04
-20.06
-22.92
-26.54
-30.43
-33.68
-35.13
-33.75
-28.92
-20.78
-10.21
1.33
12.22
21.13
27.35
30.87
32.14
31.82
30.45
28.32
25.53
22.16
18.37
14.48
10.90
7.93
5.72
4.21
3.20
2.47
1.89
1.48
1.34
1.52
1.99
2.55
2.89
2.72
1.87
0.33
-1.73
-4.06
-6.44
-8.71
-10.74
-12.48
-13.90
-15.08
-16.17
-17.51
-19.45
-22.27
-25.94
-29.95
-33.33
-34.79
-33.17
-27.87
-19.11
-7.99
3.88
14.86
23.76
30.03
33.74
35.35
35.36
34.20
32.11
29.29
25.89
22.13
18.22
14.37
10.74
7.41
4.45
1.89
-0.20
-1.77
-2.77
-3.21
-3.17
-2.81
-2.30
-1.84
-1.57
-1.66
-2.19
-3.20
-4.64
-6.36
-8.17
-9.88
-11.36
-12.56
-13.55
-14.49
-15.59
-17.12
-19.29
-22.15
-25.44
-28.50
-30.35
-29.92
-26.41
-19.68
-10.37
0.25
10.63
19.44
25.91
29.87
31.61
31.60
30.26
27.88
24.64
20.77
16.62
12.61
9.16
6.50
4.64
3.39
2.46
1.63
0.86
0.27
0.09
0.43
1.26
2.26
2.97
2.92
1.86
-0.16
-2.77
-5.43
-7.71
-9.36
-10.50
-11.47
-12.76
-14.77
-17.71
-21.46
-25.53
-29.08
-31.06
-30.45
-26.61
-19.55
-10.01
0.73
11.19
20.12
26.81
31.11
33.26
33.63
32.60
30.39
27.20
23.28
18.97
14.71
10.94
8.01
6.04
4.93
4.41
4.09
3.70
3.08
2.33
1.64
1.19
1.03
0.98
0.73
-0.05
-1.56
-3.72
-6.26
-8.81
-11.06
-12.85
-14.22
-15.34
-16.41
-17.60
-19.11
-21.11
-23.77
-27.08
-30.68
-33.76
-35.19
-33.84
-29.01
-20.82
-10.16
1.50
12.58
21.80
28.51
32.56
34.22
33.94
32.18
29.36
25.89
22.14
18.47
15.17
12.42
10.22
8.48
7.00
5.68
4.52
3.69
3.37
3.67
4.44
5.33
5.90
5.76
4.83
3.26
1.44
-0.29
-1.79
-3.16
-4.66
-6.54
-8.89
-11.52
-14.09
-16.27
-17.84
-18.84
-19.53
-20.31
-21.59
-23.72
-26.76
-30.42
-33.94
-36.18
-35.93
-32.27
-25.01
-14.84
-3.21
8.13
17.66
24.55
28.74
30.70
31.09
30.39
28.79
26.31
22.97
19.01
14.86
11.06
8.06
6.04
4.90
4.36
4.10
3.92
3.73
3.53
3.30
2.97
2.45
1.67
0.65
-0.55
-1.83
-3.14
-4.43
-5.65
-6.64
-7.18
-6.99
-5.95
-4.16
-2.00
-0.00
1.33
1.71
1.12
-0.20
-1.91
-3.69
-5.39
-7.07
-8.98
-11.49
-14.91
-19.30
-24.37
-29.34
-33.08
-34.40
-32.40
-26.82
-18.19
-7.68
3.24
13.18
21.22
26.98
30.53
32.20
32.36
31.29
29.29
26.60
23.58
20.57
17.90
15.73
14.04
12.67
11.40
10.16
8.99
8.14
7.84
8.21
9.11
10.15
10.79
10.57
9.24
6.88
3.88
0.77
-1.95
-3.96
-5.29
-6.20
-7.12
-8.41
-10.24
-12.48
-14.81
-16.84
-18.33
-19.23
-19.71
-20.07
-20.63
-21.64
-23.30
-25.70
-28.67
-31.66
-33.70
-33.65
-30.54
-24.01
-14.61
-3.62
7.36
16.90
24.17
28.98
31.63
32.52
31.98
30.26
27.62
24.42
21.13
18.20
15.84
14.05
12.66
11.48
10.44
9.59
9.07
8.95
9.18
9.54
9.78
9.69
9.17
8.27
7.13
5.88
4.62
3.33
1.94
0.42
-1.25
-2.94
-4.52
-5.85
-6.94
-7.94
-9.11
-10.61
-12.48
-14.55
-16.53
-18.15
-19.25
-19.77
-19.78
-19.49
-19.27
-19.59
-20.95
-23.59
-27.26
-31.03
-33.52
-33.26
-29.30
-21.63
-11.24
0.19
10.92
19.63
25.74
29.37
31.02
31.30
30.59
29.11
26.95
24.22
21.12
17.93
14.95
12.40
10.37
8.87
7.85
7.23
6.97
6.99
7.21
7.50
7.69
7.60
7.11
6.23
5.09
3.91
2.87
2.00
1.20
0.28
-0.90
-2.36
-3.93
-5.39
-6.53
-7.27
-7.73
-8.11
-8.63
-9.49
-10.74
-12.31
-14.03
-15.63
-16.90
-17.77
-18.36
-18.92
-19.80
-21.29
-23.47
-26.14
-28.75
-30.48
-30.44
-27.88
-22.54
-14.74
-5.41
4.23
12.98
19.99
24.90
27.80
28.98
28.77
27.45
25.25
22.43
19.28
16.14
13.30
10.93
9.10
7.77
6.85
6.20
5.70
5.26
4.80
4.35
3.95
3.69
3.61
3.64
3.64
3.45
2.91
1.99
0.73
-0.77
-2.41
-4.11
-5.82
-7.51
-9.11
-10.59
-11.92
-13.13
-14.24
-15.24
-16.09
-16.70
-17.06
-17.22
-17.41
-17.95
-19.14
-21.18
-23.97
-26.99
-29.34
-29.95
-27.88
-22.70
-14.73
-4.94
5.27
14.57
22.03
27.25
30.34
31.59
31.37
29.96
27.60
24.58
21.28
18.10
15.35
13.21
11.63
10.43
9.42
8.48
7.65
7.02
6.69
6.71
7.02
7.48
7.91
8.13
7.97
7.34
6.19
4.61
2.78
0.97
-0.60
-1.83
-2.77
-3.59
-4.54
-5.80
-7.47
-9.49
-11.71
-13.90
-15.83
-17.34
-18.35
-18.96
-19.39
-20.01
-21.24
-23.36
-26.30
-29.47
-31.88
-32.31
-29.80
-24.04
-15.50
-5.35
4.95
14.05
21.06
25.68
28.06
28.60
27.79
26.03
23.62
20.78
17.76
14.79
12.17
10.11
8.70
7.85
7.34
6.93
6.48
6.02
5.74
5.81
6.27
6.97
7.58
7.73
7.19
5.93
4.16
2.20
0.39
-1.06
-2.13
-2.99
-3.88
-5.01
-6.47
-8.19
-10.02
-11.77
-13.29
-14.54
-15.58
-16.57
-17.73
-19.29
-21.42
-24.20
-27.39
-30.46
-32.51
-32.57
-29.85
-24.13
-15.90
-6.21
3.59
12.30
19.11
23.71
26.18
26.85
26.15
24.50
22.34
20.04
17.87
15.91
14.13
12.43
10.75
9.14
7.73
6.66
6.01
5.83
6.08
6.67
7.50
8.39
9.11
9.43
9.18
8.38
7.19
5.89
4.71
3.77
2.97
2.13
1.02
-0.49
-2.37
-4.48
-6.56
-8.39
-9.81
-10.78
-11.41
-11.97
-12.79
-14.17
-16.25
-18.85
-21.44
-23.14
-22.97
-20.16
-14.50
-6.46
2.90
12.25
20.40
26.58
30.50
32.23
31.98
29.96
26.35
21.42
15.61
9.50
3.72
-1.25
-5.16
-8.04
-10.09
-11.55
-12.59
-13.27
-13.62
-13.70
-13.68
-13.83
-14.47
-15.81
-17.89
-20.49
-23.19
-25.59
-27.40
-28.61
-29.49
-30.45
-31.81
-33.73
-36.05
-38.43
-40.50
-41.96
-42.67
-42.64
-41.94
-40.72
-39.19
-37.61
-36.26
-35.26
-34.37
-32.92
-29.89
-24.30
-15.63
-4.13
9.17
22.80
35.31
45.66
53.41
58.56
61.37
62.09
60.98
58.28
54.32
49.52
44.30
38.99
33.81
28.89
24.28
20.07
16.39
13.41
11.33
10.29
10.30
11.23
12.68
14.17
15.23
15.59
15.27
14.58
13.89
13.45
13.23
12.94
12.15
10.58
8.13
4.97
1.42
-2.20
-5.65
-8.85
-11.83
-14.77
-17.97
-21.80
-26.58
-32.34
-38.65
-44.57
-48.81
-50.14
-47.80
-41.75
-32.70
-21.91
-10.77
-0.44
8.33
15.28
20.50
24.19
26.58
27.80
27.99
27.35
26.14
24.70
23.28
21.96
20.63
19.08
17.18
15.00
12.81
10.93
9.57
8.68
7.94
6.94
5.36
3.16
0.59
-1.93
-3.97
-5.31
-5.95
-6.16
-6.31
-6.71
-7.57
-8.94
-10.73
-12.76
-14.78
-16.55
-17.89
-18.75
-19.24
-19.69
-20.55
-22.29
-25.15
-28.91
-32.82
-35.70
-36.24
-33.44
-27.01
-17.45
-6.00
5.82
16.63
25.51
32.15
36.67
39.39
40.62
40.57
39.34
37.12
34.21
31.00
27.91
25.17
22.82
20.70
18.63
16.56
14.65
13.17
12.32
12.11
12.33
12.58
12.50
11.86
10.63
8.89
6.82
4.57
2.26
-0.04
-2.25
-4.38
-6.51
-8.74
-11.15
-13.68
-16.13
-18.18
-19.63
-20.43
-20.80
-21.12
-21.82
-23.25
-25.57
-28.74
-32.41
-35.90
-38.22
-38.28
-35.22
-28.81
-19.54
-8.63
2.49
12.52
20.68
26.74
30.83
33.20
34.09
33.67
32.16
29.88
27.26
24.67
22.39
20.50
18.92
17.55
16.30
15.22
14.47
14.22
14.52
15.31
16.36
17.39
18.15
18.44
18.17
17.36
16.06
14.37
12.45
10.47
8.56
6.72
4.81
2.59
-0.12
-3.38
-7.06
-10.85
-14.40
-17.42
-19.75
-21.44
-22.68
-23.82
-25.24
-27.29
-30.10
-33.47
-36.83
-39.23
-39.64
-37.23
-31.69
-23.35
-13.17
-2.41
7.65
16.11
22.55
26.96
29.58
30.69
30.48
29.09
26.72
23.62
20.18
16.82
13.85
11.43
9.58
8.27
7.47
7.18
7.39
8.03
8.88
9.68
10.16
10.23
9.96
9.51
9.04
8.59
8.06
7.33
6.27
4.91
3.34
1.69
0.06
-1.58
-3.30
-5.16
-7.16
-9.23
-11.25
-13.11
-14.75
-16.15
-17.33
-18.38
-19.45
-20.78
-22.69
-25.51
-29.28
-33.70
-37.89
-40.61
-40.57
-36.90
-29.53
-19.24
-7.45
4.30
14.79
23.37
29.93
34.58
37.41
38.42
37.55
34.93
30.98
26.38
21.86
17.93
14.74
12.11
9.78
7.62
5.74
4.45
4.02
4.46
5.45
6.47
7.04
6.94
6.27
5.34
4.45
3.72
3.01
2.13
0.93
-0.51
-1.98
-3.22
-4.11
-4.78
-5.53
-6.71
-8.54
-11.01
-13.91
-16.88
-19.57
-21.75
-23.35
-24.44
-25.20
-25.87
-26.78
-28.24
-30.47
-33.43
-36.67
-39.25
-39.99
-37.78
-32.10
-23.26
-12.41
-1.17
8.91
16.76
22.05
24.98
26.07
25.82
24.64
22.78
20.46
17.91
15.37
13.03
11.02
9.32
7.88
6.62
5.52
4.66
4.16
4.10
4.45
5.05
5.64
5.95
5.85
5.35
4.55
3.59
2.50
1.27
-0.13
-1.66
-3.20
-4.61
-5.80
-6.84
-7.89
-9.14
-10.70
-12.49
-14.29
-15.84
-16.98
-17.69
-18.17
-18.66
-19.43
-20.64
-22.37
-24.60
-27.09
-29.39
-30.74
-30.26
-27.18
-21.19
-12.70
-2.70
7.43
16.44
23.49
28.31
31.05
32.02
31.54
29.86
27.26
24.07
20.70
17.52
14.79
12.57
10.78
9.26
7.88
6.63
5.59
4.88
4.59
4.71
5.07
5.39
5.39
4.82
3.63
1.94
-0.01
-1.96
-3.73
-5.34
-6.91
-8.62
-10.57
-12.75
-14.97
-17.02
-18.69
-19.92
-20.78
-21.48
-22.34
-23.67
-25.75
-28.59
-31.84
-34.70
-36.08
-34.82
-30.20
-22.15
-11.45
0.51
12.16
22.22
29.96
35.23
38.29
39.52
39.25
37.74
35.23
32.03
28.55
25.26
22.45
20.19
18.33
16.64
14.94
13.29
11.91
11.05
10.79
10.99
11.29
11.26
10.61
9.28
7.42
5.32
3.24
1.38
-0.21
-1.61
-3.03
-4.72
-6.91
-9.70
-12.93
-16.27
-19.24
-21.50
-22.88
-23.53
-23.86
-24.40
-25.65
-27.94
-31.23
-34.99
-38.19
-39.51
-37.74
-32.25
-23.31
-12.06
-0.13
10.88
19.89
26.45
30.67
32.90
33.47
32.64
30.66
27.84
24.56
21.25
18.22
15.58
13.32
11.32
9.52
7.95
6.73
5.96
5.71
5.92
6.43
6.99
7.34
7.26
6.57
5.24
3.38
1.24
-0.79
-2.36
-3.27
-3.57
-3.61
-3.85
-4.73
-6.44
-8.91
-11.79
-14.63
-17.01
-18.73
-19.80
-20.46
-21.09
-22.10
-23.84
-26.47
-29.81
-33.26
-35.85
-36.44
-34.08
-28.39
-19.74
-9.17
1.86
12.00
20.25
26.14
29.67
31.16
31.05
29.84
27.96
25.74
23.41
21.05
18.74
16.51
14.46
12.70
11.28
10.22
9.48
9.01
8.83
8.95
9.30
9.75
10.04
9.90
9.15
7.72
5.75
3.50
1.25
-0.75
-2.40
-3.77
-5.08
-6.55
-8.32
-10.36
-12.52
-14.55
-16.29
-17.65
-18.66
-19.40
-19.94
-20.42
-21.05
-22.11
-23.88
-26.44
-29.43
-32.00
-32.95
-31.14
-25.90
-17.42
-6.71
4.69
15.17
23.58
29.45
32.91
34.42
34.49
33.47
31.52
28.81
25.54
22.05
18.70
15.77
13.37
11.45
9.86
8.46
7.24
6.28
5.73
5.69
6.11
6.74
7.20
7.11
6.23
4.56
2.34
0.02
-1.99
-3.43
-4.32
-4.92
-5.64
-6.82
-8.64
-11.00
-13.58
-15.99
-17.92
-19.24
-20.02
-20.51
-21.02
-21.90
-23.39
-25.65
-28.53
-31.51
-33.69
-33.94
-31.31
-25.36
-16.43
-5.60
5.63
15.82
23.97
29.66
33.01
34.38
34.16
32.70
30.26
27.14
23.70
20.33
17.35
14.95
13.15
11.86
10.88
10.06
9.33
8.69
8.19
7.85
7.63
7.40
6.96
6.19
5.05
3.64
2.08
0.51
-1.03
-2.54
-4.07
-5.65
-7.29
-8.95
-10.64
-12.36
-14.10
-15.82
-17.45
-18.86
-19.99
-20.80
-21.36
-21.78
-22.21
-22.90
-24.10
-26.04
-28.78
-31.95
-34.67
-35.73
-33.90
-28.46
-19.62
-8.49
3.24
13.89
22.28
28.00
31.26
32.57
32.44
31.19
29.01
26.10
22.73
19.26
16.06
13.37
11.27
9.65
8.35
7.22
6.24
5.49
5.10
5.16
5.66
6.41
7.13
7.52
7.35
6.50
5.05
3.22
1.34
-0.33
-1.65
-2.69
-3.71
-5.01
-6.78
-9.04
-11.57
-14.07
-16.25
-17.93
-19.08
-19.82
-20.45
-21.35
-22.94
-25.54
-29.10
-33.07
-36.36
-37.62
-35.63
-29.87
-20.70
-9.34
2.56
13.43
22.26
28.67
32.79
34.99
35.56
34.68
32.47
29.12
24.99
20.56
16.33
12.73
9.99
8.16
7.16
6.87
7.16
7.99
9.29
10.93
12.62
13.96
14.59
14.25
12.92
10.81
8.28
5.70
3.37
1.45
-0.08
-1.41
-2.82
-4.60
-6.93
-9.75
-12.75
-15.50
-17.60
-18.90
-19.54
-19.89
-20.43
-21.55
-23.55
-26.50
-30.16
-33.87
-36.54
-36.85
-33.74
-26.84
-16.76
-4.97
6.68
16.64
24.06
28.91
31.70
33.00
33.17
32.29
30.38
27.57
24.25
20.93
18.06
15.86
14.25
12.95
11.68
10.34
9.06
8.10
7.70
7.92
8.53
9.14
9.30
8.74
7.45
5.65
3.67
1.80
0.15
-1.38
-2.98
-4.87
-7.15
-9.75
-12.51
-15.17
-17.50
-19.32
-20.53
-21.17
-21.40
-21.53
-21.93
-23.02
-25.05
-28.00
-31.40
-34.27
-35.38
-33.56
-28.18
-19.45
-8.39
3.39
14.28
23.03
29.12
32.66
34.12
34.05
32.86
30.76
27.90
24.48
20.84
17.36
14.38
12.05
10.28
8.83
7.49
6.21
5.13
4.53
4.57
5.21
6.17
6.99
7.29
6.84
5.67
4.02
2.21
0.55
-0.76
-1.69
-2.33
-2.90
-3.59
-4.55
-5.78
-7.18
-8.62
-9.96
-11.13
-12.15
-13.05
-13.97
-15.11
-16.76
-19.20
-22.51
-26.32
-29.76
-31.65
-30.81
-26.60
-19.18
-9.55
0.78
10.31
17.94
23.18
26.08
26.96
26.19
24.13
21.06
17.35
13.42
9.71
6.56
4.15
2.48
1.37
0.66
0.19
-0.13
-0.29
-0.30
-0.14
0.11
0.37
0.51
0.43
0.11
-0.40
-1.01
-1.67
-2.39
-3.30
-4.50
-6.09
-7.99
-10.04
-12.01
-13.68
-14.92
-15.78
-16.44
-17.25
-18.56
-20.67
-23.64
-27.11
-30.29
-32.09
-31.44
-27.64
-20.68
-11.31
-0.81
9.34
17.92
24.26
28.20
29.98
30.01
28.66
26.24
23.06
19.47
15.89
12.76
10.36
8.79
7.88
7.33
6.85
6.28
5.63
5.05
4.65
4.46
4.33
4.06
3.45
2.48
1.25
-0.03
-1.19
-2.18
-3.13
-4.23
-5.65
-7.42
-9.42
-11.37
-13.03
-14.25
-15.07
-15.69
-16.50
-17.93
-20.32
-23.73
-27.79
-31.61
-33.96
-33.61
-29.75
-22.31
-12.13
-0.61
10.65
20.33
27.69
32.51
34.99
35.52
34.47
32.20
29.08
25.48
21.77
18.27
15.20
12.63
10.53
8.76
7.23
5.93
4.92
4.25
3.91
3.72
3.35
2.49
0.98
-1.09
-3.38
-5.43
-6.89
-7.69
-8.09
-8.53
-9.52
-11.30
-13.82
-16.75
-19.63
-22.08
-23.95
-25.40
-26.74
-28.38
-30.70
-33.93
-38.02
-42.54
-46.59
-48.97
-48.45
-44.26
-36.42
-25.88
-14.19
-3.02
6.41
13.63
18.86
22.68
25.59
27.82
29.30
29.89
29.58
28.66
27.49
26.42
25.51
24.57
23.32
21.67
19.88
18.47
18.00
18.68
20.23
22.01
23.24
23.36
22.26
20.18
17.59
14.91
12.33
9.86
7.32
4.52
1.37
-2.09
-5.64
-9.01
-11.92
-14.22
-15.92
-17.25
-18.57
-20.30
-22.83
-26.37
-30.85
-35.71
-39.92
-42.11
-40.96
-35.69
-26.36
-14.00
-0.23
13.17
24.79
33.78
39.91
43.34
44.42
43.50
40.91
37.03
32.28
27.12
22.00
17.24
13.04
9.37
6.10
3.07
0.18
-2.47
-4.63
-5.96
-6.15
-5.12
-3.01
-0.22
2.75
5.39
7.34
8.47
8.86
8.68
8.04
6.96
5.28
2.84
-0.36
-4.07
-7.82
-11.04
-13.39
-14.81
-15.58
-16.18
-17.16
-18.93
-21.76
-25.60
-29.99
-34.02
-36.35
-35.61
-30.87
-22.08
-10.21
3.02
15.71
26.42
34.45
39.79
42.83
43.93
43.33
41.13
37.52
32.89
27.84
22.99
18.79
15.42
12.75
10.58
8.71
7.15
6.02
5.48
5.54
5.96
6.36
6.37
5.73
4.47
2.81
1.07
-0.54
-2.03
-3.52
-5.24
-7.30
-9.64
-12.03
-14.16
-15.78
-16.82
-17.40
-17.81
-18.47
-19.76
-21.96
-25.05
-28.60
-31.65
-32.99
-31.44
-26.33
-17.87
-7.17
4.12
14.30
22.22
27.50
30.43
31.57
31.43
30.21
27.93
24.61
20.49
16.08
11.96
8.56
5.99
4.08
2.54
1.19
0.06
-0.63
-0.72
-0.23
0.53
1.11
1.15
0.50
-0.67
-2.00
-3.17
-4.01
-4.62
-5.30
-6.32
-7.84
-9.80
-11.93
-13.93
-15.53
-16.64
-17.38
-18.04
-19.04
-20.80
-23.60
-27.33
-31.43
-34.80
-36.12
-34.23
-28.64
-19.70
-8.60
3.04
13.70
22.32
28.42
32.02
33.38
32.82
30.70
27.42
23.46
19.37
15.62
12.45
9.87
7.68
5.67
3.76
2.09
0.88
0.35
0.49
1.07
1.70
2.01
1.79
1.08
0.05
-1.06
-2.12
-3.10
-4.11
-5.27
-6.67
-8.30
-10.04
-11.75
-13.25
-14.47
-15.43
-16.28
-17.27
-18.69
-20.76
-23.57
-26.90
-30.18
-32.52
-32.83
-30.22
-24.29
-15.39
-4.63
6.43
16.26
23.75
28.46
30.61
30.77
29.58
27.50
24.77
21.52
17.92
14.24
10.84
8.04
5.99
4.60
3.65
2.93
2.41
2.23
2.55
3.41
4.58
5.59
5.98
5.45
4.07
2.24
0.41
-1.07
-2.15
-3.06
-4.16
-5.72
-7.79
-10.16
-12.48
-14.40
-15.78
-16.69
-17.37
-18.21
-19.52
-21.57
-24.41
-27.82
-31.18
-33.53
-33.74
-30.84
-24.47
-15.06
-3.82
7.66
17.89
25.90
31.38
34.48
35.61
35.15
33.41
30.68
27.32
23.73
20.27
17.19
14.56
12.39
10.68
9.52
9.06
9.37
10.40
11.94
13.62
15.10
16.15
16.71
16.90
16.92
16.98
17.14
17.40
17.65
17.72
17.56
17.21
16.90
17.05
18.25
21.00
25.49
31.22
36.82
40.29
39.48
32.94
20.53
3.59
-15.39
-33.52
-48.27
-57.97
-61.92
-60.33
-54.07
-44.53
-33.46
-22.71
-13.88
-7.99
-5.21
-4.98
-6.28
-8.10
-9.73
-10.91
-11.63
-12.05
-12.27
-12.34
-12.33
-12.27
-12.24
-12.28
-12.32
-12.21
-11.77
-10.96
-9.81
-8.55
-7.40
-6.53
-5.98
-5.65
-5.38
-5.03
-4.51
-3.82
-3.03
-2.21
-1.46
-0.84
-0.40
-0.16
-0.09
-0.13
-0.14
-0.04
0.14
0.18
-0.20
-1.31
-3.23
-5.81
-8.65
-11.34
-13.58
-15.31
-16.69
-17.95
-19.34
-21.06
-23.30
-26.22
-29.81
-33.71
-37.10
-38.80
-37.68
-33.09
-25.26
-15.31
-4.88
4.42
11.50
15.98
18.14
18.60
17.96
16.68
14.99
13.04
10.97
8.93
7.05
5.47
4.23
3.39
3.04
3.29
4.24
5.88
8.08
10.60
13.12
15.38
17.19
18.44
19.02
18.84
17.82
16.03
13.66
11.04
8.53
6.37
4.67
3.39
2.33
1.29
0.03
-1.63
-3.75
-6.27
-8.97
-11.54
-13.71
-15.33
-16.44
-17.24
-18.06
-19.30
-21.31
-24.22
-27.75
-31.10
-33.04
-32.21
-27.68
-19.35
-8.15
4.23
15.89
25.38
32.01
35.87
37.50
37.53
36.39
34.35
31.60
28.41
25.16
22.27
20.02
18.49
17.53
16.80
15.94
14.71
13.09
11.27
9.63
8.49
8.04
8.13
8.37
8.25
7.42
5.84
3.83
1.90
0.48
-0.27
-0.55
-0.79
-1.45
-2.84
-5.02
-7.80
-10.86
-13.83
-16.43
-18.50
-20.02
-21.10
-22.07
-23.34
-25.34
-28.29
-31.98
-35.66
-38.11
-37.92
-34.00
-26.02
-14.57
-1.15
12.32
24.01
32.76
38.20
40.71
41.09
40.07
38.13
35.42
31.97
27.88
23.48
19.22
15.56
12.73
10.71
9.33
8.32
7.59
7.14
7.04
7.35
7.93
8.57
8.96
8.86
8.15
6.87
5.21
3.43
1.78
0.46
-0.52
-1.26
-2.05
-3.21
-4.98
-7.41
-10.30
-13.18
-15.53
-16.97
-17.43
-17.21
-16.94
-17.27
-18.63
-21.09
-24.38
-27.93
-31.03
-32.89
-32.90
-30.66
-26.11
-19.45
-11.04
-1.49
8.52
18.27
26.97
33.65
37.35
37.45
34.06
28.31
21.76
16.16
13.08
13.69
18.26
26.02
34.93
41.92
43.82
37.98
23.94
4.10
-16.77
-33.63
-43.06
-44.60
-40.41
-33.72
-27.87
-24.79
-24.63
-24.53
-21.57
-13.98
-2.45
8.96
19.10
27.99
36.28
44.46
52.25
58.65
62.34
62.03
56.98
47.43
33.90
17.31
-1.15
-20.25
-39.16
-57.52
-75.27
-92.16
-107.22
-119.14
-126.39
-127.62
-122.26
-110.96
-95.38
-77.66
-59.66
-42.47
-26.73
-12.87
-1.24
7.82
14.13
17.83
19.50
19.98
20.12
20.46
21.10
21.94
22.83
23.70
24.52
25.32
26.11
26.85
27.48
27.94
28.16
28.04
27.47
26.28
24.46
22.16
19.67
17.39
15.55
14.15
12.95
11.62
9.92
7.84
5.53
3.23
1.08
-0.91
-2.83
-4.83
-7.09
-9.79
-13.11
-17.10
-21.49
-25.59
-28.39
-28.78
-25.99
-19.93
-11.23
-1.12
9.06
18.17
25.56
31.03
34.72
36.88
37.73
37.47
36.30
34.53
32.56
30.78
29.46
28.65
28.21
27.88
27.48
27.00
26.65
26.79
27.77
29.72
32.58
35.99
39.39
41.99
42.84
40.95
35.56
26.55
14.58
1.12
-12.00
-23.11
-31.21
-36.14
-38.47
-39.08
-38.78
-38.14
-37.46
-37.01
-37.08
-38.04
-40.19
-43.56
-47.81
-52.18
-55.57
-56.83
-55.09
-50.04
-42.16
-32.58
-22.80
-14.21
-7.74
-3.64
-1.58
-0.78
-0.36
0.51
2.43
5.72
10.38
16.01
21.93
27.30
31.33
33.50
33.68
32.14
29.46
26.29
23.28
20.88
19.29
18.47
18.15
17.88
17.22
15.85
13.68
10.90
7.83
4.78
1.94
-0.66
-3.09
-5.39
-7.56
-9.52
-11.22
-12.74
-14.27
-16.10
-18.51
-21.62
-25.22
-28.70
-31.10
-31.30
-28.38
-22.00
-12.59
-1.30
10.31
20.76
28.99
34.50
37.30
37.71
36.15
33.10
29.04
24.46
19.80
15.37
11.31
7.60
4.18
1.03
-1.80
-4.13
-5.80
-6.65
-6.61
-5.78
-4.35
-2.65
-1.03
0.21
0.88
0.97
0.56
-0.25
-1.40
-2.88
-4.71
-6.78
-8.87
-10.69
-11.98
-12.70
-13.06
-13.55
-14.72
-17.06
-20.75
-25.53
-30.65
-34.94
-37.07
-35.88
-30.77
-22.01
-10.67
1.58
13.00
22.23
28.63
32.23
33.50
33.02
31.29
28.63
25.34
21.74
18.22
15.11
12.59
10.59
8.97
7.59
6.49
5.85
5.85
6.57
7.82
9.24
10.41
11.03
10.98
10.34
9.24
7.81
6.11
4.10
1.74
-0.98
-3.98
-7.02
-9.86
-12.25
-14.06
-15.38
-16.50
-17.84
-19.89
-23.00
-27.12
-31.74
-35.80
-37.96
-36.94
-32.06
-23.49
-12.32
-0.22
11.09
20.36
26.97
30.95
32.62
32.42
30.67
27.66
23.72
19.29
14.84
10.74
7.16
4.05
1.25
-1.32
-3.63
-5.49
-6.67
-7.10
-6.91
-6.42
-5.99
-5.86
-6.05
-6.38
-6.61
-6.57
-6.22
-5.70
-5.19
-4.86
-4.74
-4.78
-4.86
-4.90
-4.85
-4.83
-4.99
-5.61
-6.97
-9.31
-12.59
-16.31
-19.42
-20.49
-18.09
-11.39
-0.56
13.09
27.44
40.20
49.55
54.60
55.46
52.89
47.93
41.52
34.42
27.23
20.48
14.71
10.37
7.65
6.38
6.09
6.16
6.07
5.65
5.01
4.48
4.28
4.36
4.42
4.01
2.80
0.77
-1.80
-4.44
-6.73
-8.53
-9.94
-11.30
-12.87
-14.73
-16.75
-18.65
-20.19
-21.29
-22.01
-22.55
-23.10
-23.84
-24.94
-26.51
-28.52
-30.69
-32.41
-32.83
-31.12
-26.78
-19.91
-11.29
-2.07
6.51
13.56
18.62
21.66
22.89
22.51
20.70
17.59
13.40
8.48
3.32
-1.59
-5.85
-9.31
-12.02
-14.16
-15.96
-17.49
-18.62
-18.98
-18.03
-15.20
-10.17
-3.01
5.71
14.90
23.28
29.59
33.03
33.40
31.07
26.81
21.46
15.74
10.11
4.79
-0.16
-4.80
-9.28
-13.79
-18.46
-23.15
-27.32
-30.09
-30.44
-27.70
-21.84
-13.60
-4.24
4.84
12.60
18.50
22.48
24.70
25.36
24.58
22.50
19.40
15.73
12.02
8.70
5.97
3.76
1.77
-0.26
-2.47
-4.76
-6.82
-8.28
-8.91
-8.75
-8.14
-7.57
-7.53
-8.23
-9.57
-11.09
-12.30
-12.86
-12.76
-12.38
-12.27
-12.93
-14.69
-17.55
-21.29
-25.39
-29.08
-31.32
-31.05
-27.44
-20.33
-10.37
1.05
12.29
21.90
29.08
33.69
36.10
36.75
35.97
33.91
30.69
26.57
21.99
17.48
13.51
10.30
7.76
5.66
3.74
1.91
0.27
-0.97
-1.67
-1.88
-1.95
-2.35
-3.48
-5.50
-8.27
-11.38
-14.33
-16.78
-18.60
-19.92
-21.07
-22.49
-24.57
-27.64
-31.79
-36.72
-41.60
-45.11
-45.77
-42.38
-34.56
-22.97
-9.18
4.83
17.24
26.85
33.30
36.82
37.95
37.26
35.13
31.87
27.75
23.20
18.71
14.79
11.83
9.96
9.04
8.71
8.56
8.32
7.92
7.47
7.15
7.06
7.15
7.16
6.79
5.76
3.98
1.57
-1.16
-3.84
-6.14
-7.91
-9.20
-10.26
-11.38
-12.88
-14.98
-17.87
-21.62
-26.04
-30.60
-34.27
-35.72
-33.73
-27.63
-17.73
-5.32
7.69
19.40
28.45
34.30
37.13
37.49
36.06
33.37
29.84
25.80
21.55
17.37
13.47
9.98
6.97
4.44
2.39
0.82
-0.27
-0.91
-1.14
-1.02
-0.67
-0.21
0.20
0.45
0.46
0.20
-0.36
-1.23
-2.45
-4.01
-5.84
-7.78
-9.62
-11.21
-12.49
-13.56
-14.69
-16.22
-18.52
-21.82
-26.03
-30.67
-34.75
-37.01
-36.23
-31.73
-23.64
-12.93
-1.13
10.19
19.83
27.14
31.99
34.54
35.04
33.81
31.18
27.61
23.63
19.75
16.33
13.55
11.37
9.67
8.31
7.26
6.51
6.14
6.19
6.62
7.29
7.94
8.31
8.12
7.25
5.79
4.02
2.30
0.94
0.10
-0.37
-0.79
-1.58
-3.00
-5.09
-7.59
-10.10
-12.21
-13.67
-14.57
-15.22
-16.15
-17.82
-20.48
-23.97
-27.64
-30.45
-31.22
-29.04
-23.58
-15.30
-5.32
4.95
14.15
21.42
26.41
29.19
30.05
29.26
27.08
23.84
19.94
15.87
12.12
8.97
6.51
4.62
3.11
1.80
0.68
-0.22
-0.78
-0.93
-0.68
-0.14
0.51
1.02
1.14
0.75
-0.18
-1.51
-2.98
-4.35
-5.44
-6.24
-6.90
-7.69
-8.84
-10.48
-12.46
-14.51
-16.29
-17.55
-18.28
-18.64
-18.95
-19.48
-20.44
-21.95
-23.98
-26.34
-28.57
-29.95
-29.56
-26.64
-20.87
-12.59
-2.73
7.44
16.73
24.28
29.67
32.81
33.83
32.99
30.74
27.71
24.60
22.05
20.39
19.51
19.01
18.40
17.47
16.38
15.70
16.06
17.79
20.70
24.03
26.85
28.41
28.60
27.97
27.42
27.83
29.67
32.93
37.19
41.77
45.71
47.87
47.16
42.97
35.79
27.33
