1653034167.00
64.000000
-0.00
-0.00
-0.00
-0.00
-0.00
-0.00
-0.00
-0.00
-0.00
-0.00
0.00
0.01
0.01
-0.00
-0.03
-0.05
-0.05
0.00
0.13
0.36
0.66
1.01
1.37
1.72
2.06
2.40
2.79
3.24
3.80
4.42
5.06
5.66
6.20
6.68
7.15
7.68
8.31
9.14
10.09
11.04
11.88
12.56
13.14
13.76
14.65
15.96
17.91
20.32
22.90
25.38
27.58
29.57
31.68
34.32
37.81
42.54
48.15
54.10
59.83
64.97
69.58
74.14
79.34
85.71
93.76
103.00
112.62
121.73
129.77
136.75
143.30
150.75
157.77
166.64
177.95
191.79
206.97
220.57
228.25
225.36
208.53
176.87
132.76
80.05
23.07
-34.94
-92.44
-149.16
-205.23
-260.37
-313.74
-363.87
-409.83
-450.91
-486.50
-515.74
-537.23
-549.22
-549.96
-538.37
-514.21
-478.67
-433.88
-382.45
-327.02
-269.84
-212.63
-156.66
-102.95
-52.37
-5.90
35.58
71.43
101.35
125.50
144.38
158.69
169.15
176.37
180.75
182.57
182.07
179.51
175.23
169.65
163.18
156.15
148.81
141.30
133.69
126.02
118.33
110.69
103.15
95.80
88.69
81.84
75.27
68.98
62.96
57.23
51.79
46.64
41.82
37.33
33.17
29.32
25.78
22.52
19.51
16.75
14.24
11.99
10.01
8.29
6.81
5.55
4.45
3.46
2.55
1.75
1.07
0.54
0.17
-0.07
-0.25
-0.47
-0.79
-1.24
-1.77
-2.26
-2.61
-2.75
-2.74
-2.68
-2.77
-3.13
-3.80
-4.67
-5.52
-6.13
-6.38
-6.32
-6.17
-6.22
-6.72
-7.70
-9.01
-10.32
-11.31
-11.82
-11.86
-11.69
-11.59
-11.86
-12.70
-14.26
-16.52
-19.15
-21.39
-22.06
-19.95
-14.32
-5.46
5.29
15.92
24.55
30.11
32.59
32.77
31.70
30.14
28.49
26.87
25.38
24.15
23.28
22.71
22.24
21.63
20.67
19.24
17.26
14.77
12.00
9.38
7.47
6.66
6.86
7.51
7.97
7.86
7.47
7.44
8.32
10.06
11.87
12.61
11.44
8.40
4.06
-0.55
-4.69
-8.13
-11.21
-14.37
-17.83
-21.36
-24.35
-26.24
-26.71
-25.84
-24.08
-21.89
-19.55
-17.15
-14.67
-12.21
-10.04
-8.47
-7.62
-7.35
-7.24
-6.92
-6.25
-5.34
-4.44
-3.69
-3.02
-2.25
-1.27
-0.11
1.01
1.93
2.59
3.12
3.63
4.12
4.37
4.07
3.01
1.26
-0.81
-2.68
-3.98
-4.65
-4.88
-5.08
-5.61
-6.54
-7.66
-8.57
-8.93
-8.65
-7.94
-7.19
-6.75
-6.83
-7.39
-8.18
-9.00
-9.65
-10.05
-10.43
-10.82
-11.09
-11.05
-10.59
-9.80
-8.92
-8.27
-8.08
-8.39
-8.95
-9.44
-9.59
-9.33
-8.78
-8.25
-8.00
-8.19
-8.86
-9.88
-11.16
-12.76
-14.80
-17.39
-20.46
-23.67
-26.41
-28.02
-27.97
-26.15
-22.95
-19.10
-15.34
-12.17
-9.66
-7.47
-5.08
-2.09
1.61
5.76
9.86
13.38
15.90
17.27
17.63
17.28
16.63
16.04
15.71
15.63
15.67
15.68
15.61
15.56
15.74
16.35
17.44
18.83
20.17
21.10
21.37
20.97
20.13
19.12
18.24
17.63
17.31
17.11
16.81
16.15
14.90
13.03
10.65
8.09
5.71
3.76
2.18
0.68
-1.21
-3.78
-7.03
-10.65
-14.12
-17.01
-19.15
-20.72
-22.05
-23.55
-25.57
-28.21
-31.33
-34.48
-36.96
-38.03
-37.15
-34.23
-29.67
-24.20
-18.62
-13.47
-8.96
-5.00
-1.34
2.19
5.64
8.95
12.05
14.86
17.32
19.40
21.00
22.04
22.44
22.19
21.43
20.46
19.69
19.53
20.21
21.65
23.53
25.33
26.64
27.24
27.17
26.62
25.82
24.89
23.80
22.47
20.75
18.66
16.30
13.95
11.93
10.44
9.57
9.12
8.78
8.22
7.20
5.68
3.72
1.41
-1.19
-4.04
-7.08
-10.14
-12.97
-15.36
-17.16
-18.43
-19.29
-19.87
-20.24
-20.38
-20.16
-19.51
-18.28
-16.36
-13.69
-10.34
-6.60
-2.91
0.27
2.65
4.29
5.49
6.64
8.02
9.70
11.57
13.42
15.11
16.54
17.62
18.30
18.60
18.61
18.61
18.89
19.62
20.75
22.05
23.19
23.98
24.40
24.48
24.26
23.67
22.58
21.00
19.09
17.17
15.54
14.34
13.46
12.70
11.86
10.88
9.82
8.82
7.95
7.15
6.28
5.16
3.70
1.93
-0.05
-2.12
-4.19
-6.25
-8.38
-10.62
-12.97
-15.25
-17.22
-18.63
-19.44
-19.87
-20.38
-21.49
-23.64
-26.96
-31.27
-36.08
-40.72
-44.51
-46.87
-47.49
-46.42
-44.05
-41.04
-38.14
-35.98
-34.87
-34.78
-35.36
-36.12
-36.62
-36.58
-35.84
-34.36
-32.08
-28.93
-24.80
-19.64
-13.51
-6.62
0.78
8.42
16.14
23.84
31.45
38.81
45.59
51.38
55.75
58.42
59.37
58.81
57.11
54.63
51.63
48.28
44.68
40.97
37.33
34.00
31.14
28.84
27.08
25.73
24.59
23.40
21.90
19.88
17.22
14.01
10.49
7.01
3.93
1.45
-0.38
-1.75
-2.95
-4.36
-6.27
-8.89
-12.19
-15.87
-19.39
-22.08
-23.43
-23.19
-21.48
-18.76
-15.59
-12.48
-9.71
-7.35
-5.34
-3.51
-1.75
0.04
1.87
3.72
5.46
6.98
8.16
8.98
9.50
9.85
10.18
10.62
11.29
12.26
13.59
15.23
17.04
18.76
20.10
20.86
20.98
20.59
19.95
19.26
18.63
18.00
17.26
16.27
14.99
13.47
11.83
10.24
8.83
7.70
6.86
6.22
5.66
5.06
4.36
3.57
2.79
2.06
1.40
0.71
-0.13
-1.19
-2.44
-3.76
-5.03
-6.21
-7.36
-8.58
-9.96
-11.48
-13.01
-14.39
-15.49
-16.28
-16.81
-17.16
-17.40
-17.50
-17.38
-16.89
-15.92
-14.44
-12.51
-10.24
-7.80
-5.31
-2.85
-0.45
1.85
4.02
6.02
7.75
9.07
9.80
9.79
8.98
7.40
5.19
2.55
-0.30
-3.11
-5.57
-7.37
-8.25
-8.11
-7.07
-5.47
-3.75
-2.31
-1.42
-1.15
-1.43
-2.10
-3.02
-4.02
-4.94
-5.65
-6.07
-6.16
-5.92
-5.37
-4.60
-3.70
-2.83
-2.16
-1.82
-1.81
-2.04
-2.36
-2.66
-2.95
-3.39
-4.17
-5.43
-7.10
-8.94
-10.68
-12.08
-13.08
-13.79
-14.32
-14.73
-14.88
-14.53
-13.49
-11.68
-9.28
-6.56
-3.87
-1.45
0.58
2.26
3.70
4.99
6.19
7.28
8.18
8.82
9.15
9.24
9.18
9.10
9.07
9.10
9.10
8.96
8.66
8.25
7.87
7.69
7.79
8.16
8.67
9.13
9.36
9.26
8.81
8.11
7.30
6.51
5.81
5.18
4.53
3.78
2.85
1.73
0.45
-0.94
-2.35
-3.71
-4.96
-6.06
-7.02
-7.91
-8.85
-10.01
-11.46
-13.19
-15.08
-16.85
-18.26
-19.11
-19.29
-18.84
-17.83
-16.42
-14.74
-12.93
-11.10
-9.33
-7.66
-6.12
-4.72
-3.42
-2.20
-1.01
0.20
1.44
2.63
3.66
4.38
4.68
4.60
4.31
4.09
4.21
4.84
6.03
7.65
9.46
11.16
12.45
13.04
12.80
11.76
10.20
8.55
7.25
6.59
6.62
7.17
7.93
8.56
8.82
8.54
7.66
6.29
4.64
3.01
1.71
0.85
0.33
-0.23
-1.23
-2.99
-5.52
-8.53
-11.56
-14.19
-16.14
-17.40
-18.15
-18.70
-19.34
-20.25
-21.51
-23.04
-24.72
-26.34
-27.66
-28.36
-28.13
-26.77
-24.26
-20.84
-16.97
-13.16
-9.84
-7.18
-5.08
-3.28
-1.48
0.52
2.73
5.02
7.17
8.97
10.25
10.97
11.26
11.35
11.56
12.13
13.20
14.67
16.31
17.84
19.02
19.74
20.04
20.05
19.83
19.41
18.62
17.28
15.31
12.82
10.18
7.85
6.22
5.34
5.01
4.89
4.70
4.33
3.67
2.49
0.43
-2.74
-6.75
-10.60
-12.93
-12.71
-9.98
-6.14
-3.45
-4.01
-8.64
-16.54
-25.68
-33.80
-39.46
-42.45
-43.52
-43.75
-43.94
-44.32
-44.73
-44.98
-45.18
-45.76
-47.23
-49.87
-53.44
-57.25
-60.37
-62.04
-61.99
-60.59
-58.71
-57.36
-57.23
-58.45
-60.52
-62.59
-63.88
-63.97
-63.03
-61.71
-60.87
-61.33
-63.61
-67.88
-73.97
-81.41
-89.54
-97.34
-103.35
-105.55
-101.55
-89.13
-67.14
-36.30
0.49
38.68
73.32
100.42
118.15
126.62
127.05
120.80
108.76
91.40
69.30
43.66
16.42
-9.67
-32.06
-49.17
-60.87
-68.26
-73.17
-77.44
-82.25
-87.88
-93.14
-96.61
-97.61
-96.85
-96.19
-97.69
-102.37
-109.46
-116.20
-117.07
-107.07
-84.08
-49.75
-8.14
36.51
81.39
125.45
168.39
212.90
259.80
306.45
347.21
376.50
391.69
393.61
384.90
367.81
348.89
332.92
321.45
313.06
306.17
300.73
297.15
294.53
290.15
289.01
297.78
321.99
363.06
418.27
481.88
546.03
602.32
605.85
531.62
386.89
210.45
45.23
-85.80
-181.03
-249.23
-295.45
-329.50
-348.84
-349.64
-332.95
-306.45
-280.33
-261.95
-253.78
-254.34
-261.06
-265.47
-261.28
-247.38
-228.13
-209.83
-196.87
-190.47
-189.55
-192.60
-194.25
-190.52
-180.61
-167.14
-154.01
-143.89
-137.47
-133.95
-132.36
-129.85
-124.55
-116.31
-106.66
-97.46
-89.73
-83.32
-77.49
-71.70
-64.99
-57.00
-48.06
-39.00
-30.61
-23.26
-16.88
-11.21
-6.03
-1.15
3.50
7.88
11.95
15.69
19.10
22.21
24.99
27.42
29.45
31.05
32.23
33.02
33.48
33.62
33.45
32.88
31.83
30.21
28.04
25.48
22.84
20.49
18.71
17.55
16.83
16.20
15.26
13.78
11.76
9.34
6.73
4.05
1.29
-1.65
-4.82
-8.22
-11.70
-15.11
-18.37
-21.49
-24.60
-27.86
-31.31
-34.86
-38.28
-41.29
-43.75
-45.70
-47.39
-49.15
-51.24
-53.72
-56.46
-59.16
-61.44
-62.92
-63.24
-62.13
-59.42
-55.18
-49.70
-43.44
-36.86
-30.28
-23.65
-16.65
-8.87
-0.06
9.65
19.74
29.47
38.17
45.46
51.30
55.94
59.63
62.51
64.50
65.48
65.35
64.22
62.29
59.84
57.03
53.93
50.53
46.88
43.13
39.49
36.18
33.32
30.94
28.94
27.24
25.73
24.37
23.11
21.89
20.67
19.40
18.08
16.68
15.20
13.60
11.86
9.98
8.03
6.16
4.55
3.34
2.53
1.98
1.42
0.59
-0.73
-2.60
-4.94
-7.56
-10.28
-12.92
-15.38
-17.63
-19.72
-21.72
-23.76
-25.91
-28.22
-30.57
-32.70
-34.25
-34.85
-34.35
-32.79
-30.49
-27.83
-25.12
-22.50
-19.91
-17.28
-14.66
-12.28
-10.50
-9.55
-9.40
-9.61
-9.58
-8.80
-7.13
-4.83
-2.41
-0.37
0.99
1.64
1.70
1.35
0.79
0.27
0.09
0.59
1.91
3.86
5.89
7.35
7.80
7.31
6.47
6.01
6.36
7.38
8.42
8.77
8.11
6.74
5.45
5.02
5.74
7.23
8.67
9.27
8.67
7.04
4.91
2.79
0.96
-0.57
-1.94
-3.24
-4.45
-5.50
-6.35
-7.12
-8.01
-9.22
-10.83
-12.71
-14.59
-16.12
-16.99
-17.00
-16.06
-14.19
-11.54
-8.41
-5.22
-2.42
-0.36
0.77
1.08
0.83
0.38
-0.02
-0.25
-0.32
-0.32
-0.29
-0.23
-0.12
0.03
0.24
0.48
0.75
1.07
1.42
1.76
2.06
2.28
2.45
2.57
2.67
2.72
2.65
2.41
1.98
1.39
0.75
0.14
-0.40
-0.90
-1.39
-1.88
-2.33
-2.69
-2.90
-3.00
-3.05
-3.16
-3.39
-3.76
-4.27
-4.88
-5.54
-6.26
-7.02
-7.82
-8.66
-9.53
-10.41
-11.31
-12.21
-13.14
-14.16
-15.31
-16.70
-18.38
-20.36
-22.58
-24.87
-26.96
-28.49
-29.15
-28.70
-27.11
-24.50
-21.17
-17.42
-13.56
-9.78
-6.21
-2.95
-0.04
2.50
4.70
6.63
8.35
9.86
11.15
12.19
13.03
13.76
14.55
15.51
16.65
17.86
18.99
19.91
20.62
21.20
21.72
22.24
22.70
22.96
22.86
22.32
21.34
20.04
18.60
17.18
15.89
14.74
13.66
12.55
11.34
10.05
8.79
7.65
6.70
5.89
5.07
4.12
2.96
1.62
0.23
-1.10
-2.31
-3.43
-4.56
-5.76
-7.09
-8.54
-10.11
-11.83
-13.71
-15.77
-17.97
-20.24
-22.50
-24.67
-26.70
-28.62
-30.52
-32.52
-34.68
-36.91
-38.95
-40.40
-40.87
-40.14
-38.19
-35.25
-31.66
-27.76
-23.76
-19.73
-15.58
-11.16
-6.30
-0.87
5.12
11.44
17.65
23.26
27.81
31.09
33.18
34.40
35.12
35.65
36.16
36.68
37.15
37.53
37.75
37.78
37.54
36.95
35.88
34.31
32.33
30.13
27.93
25.95
24.27
22.83
21.46
19.95
18.17
16.13
13.95
11.77
9.69
7.72
5.77
3.73
1.55
-0.76
-3.19
-5.69
-8.24
-10.79
-13.10
-14.84
-15.64
-15.34
-14.14
-12.62
-11.50
-11.36
-12.39
-14.32
-16.61
-18.73
-20.37
-21.51
-22.36
-23.20
-24.25
-25.66
-27.43
-29.35
-31.05
-31.98
-31.56
-29.41
-25.53
-20.39
-14.71
-9.19
-4.16
0.47
5.06
9.96
15.19
20.40
25.01
28.55
30.84
32.08
32.68
33.03
33.38
33.80
34.31
34.98
35.89
37.05
38.32
39.40
39.98
39.80
38.81
37.19
35.18
33.07
31.01
29.07
27.18
25.21
23.02
20.50
17.64
14.53
11.37
8.40
5.84
3.76
2.12
0.77
-0.49
-1.85
-3.40
-5.17
-7.13
-9.15
-11.12
-12.89
-14.39
-15.64
-16.73
-17.78
-18.89
-20.07
-21.32
-22.59
-23.88
-25.23
-26.70
-28.33
-30.11
-31.95
-33.64
-34.93
-35.54
-35.24
-33.91
-31.59
-28.51
-25.01
-21.46
-18.17
-15.32
-12.95
-10.97
-9.30
-7.90
-6.79
-6.02
-5.60
-5.48
-5.44
-5.21
-4.49
-3.03
-0.70
2.49
6.45
11.03
16.01
21.14
26.16
30.82
34.97
38.51
41.43
43.69
45.24
46.02
46.03
45.36
44.19
42.67
40.84
38.61
35.81
32.34
28.28
23.88
19.48
15.32
11.47
7.80
4.14
0.38
-3.41
-7.05
-10.30
-13.05
-15.35
-17.41
-19.57
-22.08
-25.06
-28.38
-31.66
-34.43
-36.31
-37.16
-37.20
-36.93
-36.92
-37.61
-39.06
-41.03
-43.04
-44.55
-45.18
-44.77
-43.30
-40.93
-37.81
-34.14
-30.06
-25.67
-21.07
-16.36
-11.68
-7.25
-3.29
0.05
2.81
5.16
7.42
9.89
12.70
15.73
18.61
20.84
21.95
21.64
19.96
17.34
14.61
12.75
12.64
14.74
18.91
24.50
30.54
36.11
40.53
43.54
45.23
45.93
46.02
45.84
45.66
45.65
45.88
46.27
46.58
46.46
45.55
43.59
40.61
36.86
32.72
28.45
24.02
19.05
12.94
5.25
-4.11
-14.73
-25.88
-36.77
-46.77
-55.53
-62.97
-69.14
-74.21
-78.38
-81.99
-85.30
-88.47
-91.36
-93.54
-94.45
-93.59
-90.74
-86.07
-80.08
-73.41
-66.62
-60.02
-53.60
-47.08
-40.11
-32.42
-24.02
-15.24
-6.52
1.69
9.14
15.81
21.79
27.22
32.11
36.47
40.24
43.41
45.95
47.82
48.92
49.11
48.33
46.64
44.23
41.42
38.50
35.74
33.27
31.10
29.17
27.32
25.40
23.35
21.17
19.01
17.12
15.73
14.96
14.79
15.04
15.41
15.62
15.49
15.05
14.48
14.02
13.84
13.94
14.14
14.16
13.82
13.05
11.94
10.63
9.17
7.51
5.47
2.82
-0.54
-4.54
-8.85
-12.94
-16.17
-17.96
-17.99
-16.30
-13.29
-9.63
-6.01
-2.92
-0.57
1.20
2.65
4.08
5.65
7.39
9.26
11.25
13.36
15.53
17.61
19.36
20.58
21.17
21.30
21.24
21.25
21.42
21.63
21.68
21.43
20.90
20.28
19.82
19.67
19.89
20.53
21.63
23.24
25.30
27.57
29.61
31.00
31.54
31.38
31.04
31.13
32.09
33.97
36.44
38.93
40.97
42.31
43.00
43.23
43.11
42.56
41.34
39.16
35.88
31.53
26.31
20.36
13.71
6.29
-2.01
-11.15
-20.85
-30.69
-40.20
-49.04
-57.05
-64.17
-70.40
-75.63
-79.65
-82.24
-83.23
-82.59
-80.43
-76.95
-72.41
-67.07
-61.17
-54.95
-48.62
-42.41
-36.52
-31.14
-26.43
-22.43
-19.16
-16.53
-14.46
-12.88
-11.71
-10.92
-10.43
-10.13
-9.87
-9.52
-8.94
-8.04
-6.73
-4.93
-2.67
-0.06
2.65
5.17
7.26
8.83
9.92
10.68
11.22
11.56
11.69
11.56
11.19
10.60
9.88
9.06
8.19
7.24
6.20
5.07
3.84
2.53
1.16
-0.23
-1.58
-2.86
-4.10
-5.37
-6.71
-8.07
-9.33
-10.34
-11.01
-11.37
-11.57
-11.80
-12.14
-12.60
-13.12
-13.69
-14.36
-15.21
-16.27
-17.45
-18.54
-19.31
-19.61
-19.42
-18.84
-18.02
-17.08
-16.16
-15.36
-14.74
-14.32
-14.06
-13.83
-13.53
-13.12
-12.64
-12.21
-11.94
-11.85
-11.86
-11.84
-11.63
-11.04
-9.85
-7.78
-4.56
-0.11
5.27
10.88
15.72
18.86
19.82
18.75
16.39
13.72
11.61
10.56
10.58
11.33
12.24
12.78
12.55
11.50
9.84
8.00
6.46
5.48
5.05
4.90
4.73
4.29
3.46
2.21
0.50
-1.69
-4.30
-7.12
-9.68
-11.43
-11.91
-10.91
-8.56
-5.31
-1.77
1.50
4.07
5.82
6.87
7.51
8.09
8.84
9.88
11.14
12.45
13.61
14.42
14.79
14.69
14.23
13.59
12.98
12.54
12.35
12.39
12.58
12.91
13.34
13.81
14.22
14.37
14.13
13.50
12.66
11.85
11.31
11.01
10.81
10.46
9.82
8.92
7.91
6.95
6.11
5.34
4.55
3.70
2.82
1.99
1.28
0.64
-0.01
-0.78
-1.74
-2.92
-4.27
-5.73
-7.21
-8.64
-9.95
-11.14
-12.28
-13.50
-14.91
-16.58
-18.48
-20.53
-22.56
-24.39
-25.82
-26.64
-26.64
-25.70
-23.79
-21.02
-17.61
-13.90
-10.21
-6.81
-3.86
-1.41
0.59
2.24
3.65
4.87
5.93
6.78
7.39
7.77
7.96
8.04
8.09
8.20
8.41
8.73
9.15
9.63
10.11
10.50
10.69
10.58
10.09
9.26
8.17
6.99
5.90
4.99
4.28
3.65
2.94
2.03
0.83
-0.59
-2.11
-3.60
-4.99
-6.26
-7.46
-8.62
-9.80
-11.04
-12.40
-13.99
-15.84
-17.90
-19.94
-21.51
-22.17
-21.56
-19.55
-16.37
-12.44
-8.32
-4.46
-1.14
1.56
3.69
5.40
6.80
7.99
9.03
9.95
10.77
11.48
12.04
12.45
12.71
12.88
13.03
13.25
13.58
14.03
14.53
15.00
15.35
15.51
15.48
15.27
14.94
14.50
13.95
13.27
12.43
11.42
10.29
9.12
7.97
6.89
5.88
4.89
3.88
2.85
1.78
0.69
-0.47
-1.75
-3.21
-4.89
-6.75
-8.72
-10.70
-12.63
-14.52
-16.47
-18.61
-20.99
-23.52
-25.94
-27.83
-28.75
-28.37
-26.60
-23.57
-19.62
-15.17
-10.57
-6.14
-2.08
1.50
4.52
6.96
8.84
10.23
11.24
12.01
12.68
13.36
14.10
14.86
15.57
16.15
16.59
16.94
17.30
17.73
18.23
18.68
18.95
18.93
18.57
17.98
17.26
16.56
15.92
15.33
14.75
14.09
13.33
12.47
11.55
10.63
9.78
9.05
8.46
7.97
7.51
6.95
6.19
5.19
3.98
2.67
1.39
0.26
-0.71
-1.59
-2.50
-3.56
-4.85
-6.35
-7.99
-9.67
-11.34
-12.97
-14.63
-16.37
-18.28
-20.43
-22.86
-25.54
-28.32
-30.86
-32.72
-33.43
-32.67
-30.39
-26.86
-22.56
-18.00
-13.59
-9.57
-5.99
-2.85
-0.12
2.23
4.22
5.90
7.29
8.41
9.27
9.91
10.38
10.78
11.26
11.88
12.67
13.53
14.36
15.00
15.36
15.39
15.15
14.77
14.43
14.27
14.32
14.45
14.42
13.94
12.90
11.30
9.37
7.38
5.54
3.90
2.42
0.96
-0.58
-2.20
-3.84
-5.43
-6.90
-8.25
-9.55
-10.92
-12.52
-14.47
-16.80
-19.42
-22.06
-24.39
-26.02
-26.63
-26.05
-24.27
-21.47
-17.90
-13.88
-9.72
-5.67
-1.94
1.35
4.15
6.45
8.29
9.71
10.78
11.57
12.16
12.64
13.09
13.57
14.13
14.72
15.30
15.75
16.04
16.14
16.11
16.03
15.96
15.90
15.78
15.54
15.15
14.64
14.11
13.63
13.15
12.58
11.76
10.59
9.08
7.35
5.57
3.91
2.45
1.20
0.09
-0.95
-2.00
-3.15
-4.42
-5.86
-7.48
-9.26
-11.18
-13.23
-15.39
-17.66
-20.07
-22.67
-25.46
-28.35
-31.09
-33.24
-34.28
-33.79
-31.56
-27.78
-22.97
-17.79
-12.83
-8.46
-4.75
-1.58
1.21
3.72
5.96
7.88
9.48
10.81
11.98
13.12
14.24
15.33
16.29
17.07
17.65
18.06
18.36
18.61
18.83
19.00
19.08
19.00
18.72
18.22
17.51
16.66
15.76
14.92
14.21
13.61
13.01
12.25
11.17
9.75
8.08
6.33
4.69
3.25
2.03
0.95
-0.08
-1.14
-2.27
-3.49
-4.84
-6.36
-8.06
-9.91
-11.82
-13.67
-15.36
-16.92
-18.47
-20.25
-22.46
-25.15
-28.13
-30.90
-32.83
-33.32
-32.01
-28.94
-24.49
-19.24
-13.78
-8.55
-3.83
0.28
3.72
6.43
8.39
9.63
10.28
10.55
10.72
10.99
11.48
12.20
13.09
14.06
15.05
15.98
16.81
17.46
17.88
18.04
17.96
17.71
17.40
17.11
16.88
16.68
16.44
16.07
15.49
14.62
13.43
11.95
10.24
8.42
6.69
5.20
4.05
3.20
2.48
1.69
0.60
-0.88
-2.73
-4.84
-7.05
-9.21
-11.20
-12.95
-14.47
-15.87
-17.36
-19.24
-21.71
-24.78
-28.13
-31.20
-33.32
-33.91
-32.74
-29.93
-25.89
-21.12
-16.12
-11.22
-6.63
-2.50
1.08
4.05
6.39
8.19
9.62
10.88
12.15
13.50
14.88
16.15
17.18
17.91
18.35
18.62
18.84
19.13
19.51
19.98
20.45
20.85
21.08
21.10
20.89
20.42
19.71
18.78
17.67
16.40
15.00
13.55
12.13
10.81
9.68
8.73
7.89
7.04
6.09
4.98
3.75
2.50
1.31
0.22
-0.82
-1.90
-3.15
-4.60
-6.22
-7.91
-9.54
-11.04
-12.43
-13.77
-15.25
-17.04
-19.29
-22.06
-25.25
-28.59
-31.66
-33.92
-34.91
-34.30
-32.04
-28.35
-23.69
-18.60
-13.58
-8.98
-5.03
-1.79
0.74
2.67
4.13
5.32
6.43
7.58
8.79
9.96
10.96
11.75
12.35
12.86
13.35
13.79
14.10
14.19
14.04
13.77
13.53
13.46
13.53
13.62
13.49
13.00
12.10
10.90
9.57
8.29
7.09
5.93
4.66
3.17
1.39
-0.63
-2.75
-4.83
-6.77
-8.58
-10.30
-12.09
-14.07
-16.36
-19.00
-21.97
-25.13
-28.15
-30.58
-31.86
-31.54
-29.45
-25.76
-20.98
-15.81
-10.85
-6.54
-2.98
-0.04
2.46
4.70
6.73
8.59
10.27
11.82
13.28
14.66
15.92
16.99
17.79
18.32
18.62
18.79
18.92
19.05
19.22
19.40
19.57
19.72
19.82
19.82
19.66
19.27
18.62
17.71
16.59
15.33
14.04
12.83
11.76
10.89
10.21
9.68
9.20
8.63
7.85
6.76
5.36
3.74
2.09
0.61
-0.58
-1.52
-2.34
-3.23
-4.35
-5.73
-7.33
-9.02
-10.72
-12.37
-13.98
-15.59
-17.27
-19.06
-21.05
-23.32
-25.92
-28.80
-31.73
-34.33
-36.09
-36.55
-35.42
-32.65
-28.49
-23.44
-18.06
-12.91
-8.38
-4.65
-1.74
0.52
2.32
3.83
5.17
6.39
7.48
8.47
9.39
10.29
11.17
11.99
12.70
13.23
13.62
13.99
14.47
15.13
15.90
16.62
17.08
17.13
16.80
16.22
15.59
15.06
14.65
14.24
13.69
12.85
11.67
10.19
8.54
6.84
5.20
3.70
2.43
1.38
0.54
-0.23
-1.08
-2.17
-3.63
-5.44
-7.51
-9.66
-11.72
-13.59
-15.24
-16.79
-18.44
-20.42
-22.83
-25.57
-28.22
-30.15
-30.74
-29.59
-26.72
-22.57
-17.81
-13.09
-8.88
-5.32
-2.38
0.07
2.17
3.98
5.55
6.93
8.13
9.18
10.07
10.83
11.46
11.98
12.38
12.64
12.77
12.83
12.94
13.22
13.70
14.26
14.67
14.71
14.31
13.57
12.70
11.87
11.09
10.22
9.03
7.43
5.45
3.32
1.27
-0.51
-1.98
-3.22
-4.38
-5.59
-6.93
-8.39
-9.80
-10.91
-11.43
-11.20
-10.24
-8.80
-7.23
-5.90
-5.06
-4.83
-5.25
-6.33
-8.00
-10.09
-12.30
-14.25
-15.61
-16.21
-16.15
-15.72
-15.22
-14.81
-14.46
-14.01
-13.28
-12.15
-10.54
-8.33
-5.30
-1.22
3.99
10.08
16.44
22.29
26.96
30.11
31.86
32.58
32.72
32.52
32.00
31.06
29.65
27.89
26.03
24.33
22.96
21.90
20.99
20.02
18.85
17.46
15.93
14.37
12.89
11.52
10.22
8.94
7.61
6.21
4.72
3.16
1.59
0.04
-1.44
-2.81
-4.05
-5.16
-6.14
-6.99
-7.74
-8.45
-9.19
-10.06
-11.12
-12.37
-13.75
-15.11
-16.34
-17.31
-18.02
-18.52
-18.98
-19.58
-20.50
-21.81
-23.49
-25.35
-27.07
-28.23
-28.42
-27.34
-24.89
-21.24
-16.74
-11.85
-7.03
-2.62
1.19
4.31
6.72
8.47
9.63
10.32
10.68
10.89
11.08
11.31
11.58
11.82
11.95
11.95
11.85
11.76
11.77
11.94
12.24
12.53
12.68
12.57
12.21
11.67
11.09
10.58
10.12
9.62
8.92
7.91
6.62
5.18
3.82
2.73
1.99
1.56
1.30
1.05
0.68
0.12
-0.60
-1.45
-2.35
-3.23
-4.06
-4.79
-5.46
-6.10
-6.81
-7.65
-8.67
-9.84
-11.08
-12.30
-13.42
-14.43
-15.39
-16.42
-17.70
-19.34
-21.28
-23.29
-24.94
-25.69
-25.12
-23.03
-19.57
-15.12
-10.28
-5.58
-1.45
1.89
4.37
6.03
7.00
7.39
7.37
7.16
6.94
6.85
6.95
7.21
7.54
7.84
8.06
8.19
8.23
8.20
8.10
7.94
7.72
7.47
7.19
6.93
6.70
6.52
6.39
6.27
6.08
5.75
5.22
4.49
3.64
2.78
2.01
1.32
0.66
-0.05
-0.91
-1.93
-3.08
-4.30
-5.53
-6.74
-7.94
-9.16
-10.43
-11.81
-13.38
-15.25
-17.52
-20.14
-22.89
-25.32
-26.83
-26.89
-25.23
-21.93
-17.45
-12.42
-7.45
-2.97
0.82
3.91
6.39
8.32
9.76
10.74
11.32
11.59
11.68
11.71
11.73
11.78
11.81
11.81
11.73
11.60
11.49
11.51
11.77
12.28
12.97
13.66
14.13
14.22
13.90
13.33
12.73
12.27
11.99
11.78
11.46
10.97
10.38
9.89
9.67
9.74
9.95
10.05
9.83
9.17
8.09
6.68
5.07
3.32
1.51
-0.30
-2.09
-3.88
-5.73
-7.74
-9.95
-12.29
-14.62
-16.81
-18.77
-20.56
-22.30
-24.17
-26.26
-28.63
-31.23
-33.86
-36.17
-37.64
-37.72
-36.04
-32.50
-27.41
-21.40
-15.17
-9.33
-4.20
0.16
3.85
6.98
9.66
11.93
13.83
15.39
16.66
17.64
18.34
18.71
18.76
18.57
18.27
18.05
18.05
18.29
18.65
18.90
18.79
18.18
17.09
15.70
14.23
12.86
11.67
10.60
9.56
8.48
7.33
6.12
4.86
3.58
2.24
0.82
-0.67
-2.22
-3.74
-5.12
-6.26
-7.10
-7.68
-8.17
-8.77
-9.66
-10.93
-12.52
-14.25
-15.93
-17.40
-18.63
-19.71
-20.78
-22.03
-23.59
-25.49
-27.60
-29.56
-30.90
-31.08
-29.71
-26.69
-22.25
-16.92
-11.29
-5.90
-1.09
2.97
6.23
8.70
10.45
11.59
12.24
12.58
12.73
12.79
12.83
12.92
13.14
13.55
14.16
14.94
15.81
16.66
17.42
18.06
18.53
18.82
18.86
18.62
18.06
17.20
16.07
14.73
13.26
11.76
10.34
9.09
8.00
7.02
6.07
5.07
4.04
3.05
2.16
1.42
0.78
0.12
-0.70
-1.81
-3.26
-5.02
-7.00
-9.03
-10.96
-12.68
-14.20
-15.63
-17.15
-18.95
-21.16
-23.77
-26.68
-29.60
-32.08
-33.60
-33.62
-31.80
-28.12
-22.95
-16.93
-10.78
-5.12
-0.32
3.54
6.55
8.89
10.76
12.33
13.75
15.12
16.50
17.87
19.12
20.13
20.79
21.07
21.05
20.87
20.67
20.56
20.57
20.68
20.82
20.87
20.71
20.21
19.27
17.86
16.13
14.34
12.79
11.66
10.92
10.34
9.54
8.23
6.28
3.80
1.14
-1.32
-3.25
-4.53
-5.25
-5.66
-6.08
-6.76
-7.81
-9.22
-10.89
-12.72
-14.65
-16.64
-18.69
-20.77
-22.83
-24.84
-26.83
-28.86
-30.92
-32.78
-34.05
-34.18
-32.69
-29.38
-24.46
-18.49
-12.23
-6.34
-1.26
2.87
6.13
8.71
10.77
12.41
13.66
14.54
15.09
15.39
15.54
15.66
15.78
15.89
15.92
15.84
15.69
15.59
15.68
15.98
16.38
16.63
16.46
15.68
14.30
12.47
10.44
8.49
6.86
5.64
4.83
4.33
4.01
3.77
3.58
3.47
3.45
3.50
3.44
3.11
2.35
1.15
-0.36
-1.97
-3.51
-4.87
-6.08
-7.26
-8.53
-9.98
-11.66
-13.58
-15.77
-18.26
-21.05
-24.04
-26.91
-29.15
-30.13
-29.33
-26.54
-21.95
-16.18
-9.96
-4.00
1.26
5.63
9.15
11.91
14.02
15.59
16.71
17.54
18.19
18.76
19.26
19.65
19.87
19.89
19.72
19.40
19.03
18.68
18.42
18.27
18.23
18.22
18.11
17.74
16.97
15.77
14.22
12.53
10.94
9.61
8.57
7.70
6.80
5.69
4.34
2.87
1.49
0.38
-0.41
-1.03
-1.77
-2.85
-4.34
-6.11
-7.93
-9.56
-10.93
-12.12
-13.33
-14.71
-16.29
-17.93
-19.43
-20.58
-21.33
-21.70
-21.87
-22.01
-22.31
-22.86
-23.65
-24.55
-25.28
-25.44
-24.62
-22.49
-18.94
-14.13
-8.49
-2.60
2.95
7.66
11.22
13.59
14.92
15.48
15.52
15.20
14.56
13.55
12.19
10.59
9.04
7.81
7.06
6.76
6.71
6.67
6.52
6.30
6.16
6.23
6.50
6.87
7.17
7.29
7.28
7.27
7.41
7.75
8.21
8.64
8.91
8.96
8.84
8.66
8.54
8.49
8.47
8.42
8.23
7.86
7.25
6.32
5.01
3.23
1.02
-1.49
-4.06
-6.44
-8.49
-10.21
-11.76
-13.39
-15.33
-17.70
-20.52
-23.63
-26.74
-29.43
-31.25
-31.76
-30.68
-27.98
-23.89
-18.86
-13.47
-8.22
-3.48
0.59
3.94
6.63
8.73
10.33
11.56
12.56
13.45
14.31
15.12
15.80
16.28
16.53
16.60
16.63
16.75
17.01
17.39
17.78
18.05
18.13
17.95
17.55
16.93
16.11
15.11
13.95
12.67
11.31
9.95
8.67
7.53
6.61
5.88
5.25
4.60
3.75
2.64
1.26
-0.26
-1.76
-3.12
-4.28
-5.30
-6.30
-7.42
-8.73
-10.27
-11.98
-13.76
-15.51
-17.13
-18.63
-20.08
-21.60
-23.35
-25.42
-27.87
-30.59
-33.34
-35.72
-37.23
-37.40
-35.94
-32.80
-28.28
-22.88
-17.19
-11.74
-6.85
-2.68
0.74
3.44
5.45
6.82
7.66
8.14
8.49
8.95
9.63
10.59
11.70
12.81
13.77
14.50
15.04
15.47
15.92
16.40
16.82
17.04
16.86
16.18
15.01
13.51
11.84
10.18
8.60
7.08
5.57
4.03
2.49
1.01
-0.37
-1.68
-2.98
-4.39
-5.93
-7.58
-9.24
-10.82
-12.31
-13.79
-15.46
-17.50
-20.05
-23.03
-26.16
-29.01
-31.01
-31.69
-30.76
-28.21
-24.27
-19.41
-14.14
-8.96
-4.29
-0.33
2.88
5.40
7.42
9.08
10.52
11.79
12.92
13.95
14.91
15.82
16.66
17.40
18.00
18.48
18.92
19.39
19.91
20.43
20.79
20.86
20.58
20.01
19.30
18.60
17.98
17.37
16.69
15.82
14.76
13.59
12.49
11.62
11.02
10.61
10.18
9.54
8.55
7.27
5.82
4.42
3.16
2.07
1.06
0.02
-1.10
-2.29
-3.56
-4.92
-6.50
-8.40
-10.64
-13.11
-15.60
-17.91
-19.94
-21.82
-23.76
-26.05
-28.86
-32.14
-35.54
-38.48
-40.30
-40.40
-38.49
-34.68
-29.46
-23.55
-17.68
-12.33
-7.74
-3.92
-0.75
1.86
4.00
5.74
7.17
8.37
9.45
10.45
11.38
12.20
12.88
13.40
13.76
14.01
14.21
14.39
14.62
14.90
15.21
15.46
15.56
15.40
14.92
14.15
13.12
11.93
10.65
9.32
7.93
6.42
4.76
2.88
0.83
-1.31
-3.41
-5.31
-6.91
-8.18
-9.24
-10.32
-11.71
-13.66
-16.30
-19.51
-22.95
-26.06
-28.22
-28.90
-27.83
-25.05
-20.91
-15.89
-10.54
-5.31
-0.53
3.63
7.09
9.86
12.01
13.59
14.68
15.34
15.63
15.66
15.61
15.63
15.81
16.17
16.61
17.08
17.59
18.26
19.21
20.44
21.78
22.91
23.50
23.36
22.54
21.24
19.74
18.24
16.87
15.64
14.54
13.51
12.52
11.53
10.52
9.52
8.61
7.88
7.33
6.88
6.35
5.52
4.29
2.69
0.86
-0.99
-2.71
-4.23
-5.61
-6.95
-8.33
-9.82
-11.43
-13.13
-14.87
-16.62
-18.36
-20.09
-21.87
-23.81
-26.08
-28.76
-31.78
-34.82
-37.30
-38.56
-38.05
-35.51
-31.14
-25.48
-19.30
-13.31
-8.04
-3.77
-0.53
1.80
3.43
4.61
5.60
6.59
7.70
8.93
10.18
11.32
12.26
12.94
13.39
13.67
13.84
13.95
14.07
14.27
14.60
15.00
15.36
15.47
15.17
14.40
13.25
11.90
10.53
9.22
7.99
6.79
5.62
4.53
3.59
2.77
1.97
1.04
-0.14
-1.52
-2.95
-4.20
-5.14
-5.77
-6.24
-6.75
-7.50
-8.67
-10.37
-12.73
-15.81
-19.48
-23.36
-26.85
-29.23
-29.93
-28.68
-25.66
-21.35
-16.43
-11.51
-7.05
-3.24
-0.11
2.46
4.64
6.59
8.40
10.11
11.66
12.97
13.94
14.59
14.97
15.22
15.48
15.85
16.33
16.94
17.64
18.43
19.32
20.25
21.08
21.62
21.68
21.24
20.40
19.40
18.45
17.58
16.67
15.49
13.91
12.00
10.02
8.28
6.97
6.04
5.23
4.24
2.87
1.16
-0.69
-2.41
-3.83
-4.94
-5.87
-6.80
-7.91
-9.31
-10.97
-12.81
-14.66
-16.44
-18.14
-19.85
-21.75
-24.02
-26.76
-29.85
-32.97
-35.61
-37.22
-37.31
-35.62
-32.18
-27.30
-21.52
-15.46
-9.65
-4.48
-0.10
3.49
6.36
8.63
10.41
11.81
12.92
13.83
14.60
15.25
15.77
16.20
16.57
16.97
17.47
18.09
18.76
19.38
19.84
20.10
20.15
20.01
19.69
19.16
18.38
17.35
16.16
14.89
13.65
12.48
11.33
10.16
8.87
7.42
5.82
4.09
2.34
0.68
-0.77
-1.94
-2.90
-3.82
-4.92
-6.36
-8.15
-10.16
-12.22
-14.18
-16.04
-17.85
-19.70
-21.65
-23.77
-26.09
-28.66
-31.36
-33.87
-35.63
-36.02
-34.57
-31.22
-26.35
-20.64
-14.81
-9.36
-4.52
-0.35
3.17
6.01
8.11
9.44
10.11
10.33
10.36
10.43
10.67
11.12
11.76
12.49
13.21
13.82
14.24
14.46
14.56
14.61
14.70
14.83
14.91
14.83
14.45
13.74
12.76
11.59
10.36
9.12
7.84
6.45
4.84
2.99
0.95
-1.13
-3.10
-4.85
-6.43
-8.00
-9.79
-12.00
-14.72
-17.92
-21.40
-24.81
-27.69
-29.58
-30.07
-28.95
-26.29
-22.40
-17.72
-12.70
-7.71
-3.01
1.19
4.74
7.53
9.56
10.98
11.99
12.80
13.53
14.14
14.58
14.84
15.00
15.25
15.71
16.38
17.15
17.82
18.26
18.49
18.62
18.75
18.92
19.02
18.89
18.35
17.36
16.02
14.54
13.15
12.00
11.11
10.39
9.68
8.88
7.97
7.00
6.05
5.14
4.23
3.26
2.16
0.96
-0.30
-1.58
-2.93
-4.47
-6.29
-8.41
-10.69
-12.89
-14.75
-16.11
-17.03
-17.74
-18.58
-19.89
-21.91
-24.62
-27.77
-30.92
-33.48
-34.91
-34.81
-33.07
-29.84
-25.51
-20.61
-15.66
-11.07
-7.07
-3.72
-0.94
1.40
3.43
5.20
6.71
7.93
8.83
9.48
9.98
10.44
10.96
11.55
12.16
12.74
13.23
13.59
13.82
13.96
14.03
14.04
13.97
13.76
13.30
12.50
11.32
9.82
8.18
6.56
5.09
3.75
2.38
0.82
-1.03
-3.11
-5.22
-7.13
-8.67
-9.83
-10.82
-11.92
-13.47
-15.63
-18.41
-21.54
-24.61
-27.09
-28.49
-28.47
-26.93
-23.99
-19.99
-15.34
-10.46
-5.71
-1.36
2.44
5.58
8.07
10.00
11.49
12.67
13.64
14.42
15.00
15.38
15.60
15.74
15.94
16.27
16.78
17.47
18.26
19.07
19.83
20.43
20.80
20.89
20.71
20.33
19.85
19.37
18.95
18.52
17.96
17.07
15.73
13.89
11.65
9.21
6.82
4.67
2.82
1.21
-0.32
-1.93
-3.73
-5.73
-7.87
-10.07
-12.32
-14.60
-16.90
-19.16
-21.31
-23.31
-25.20
-27.10
-29.13
-31.28
-33.46
-35.48
-37.27
-38.89
-40.58
-42.55
-44.81
-47.01
-48.51
-48.53
-46.46
-42.09
-35.64
-27.66
-18.74
-9.37
0.16
9.65
18.82
27.25
34.44
40.02
43.87
46.26
47.63
48.42
48.85
48.89
48.37
47.12
45.17
42.70
39.98
37.23
34.56
31.98
29.42
26.83
24.22
21.64
19.16
16.79
14.56
12.42
10.36
8.41
6.61
5.03
3.65
2.36
1.03
-0.47
-2.19
-4.07
-6.01
-7.91
-9.81
-11.85
-14.26
-17.23
-20.82
-24.91
-29.21
-33.36
-37.03
-40.08
-42.47
-44.32
-45.80
-47.06
-48.26
-49.54
-51.03
-52.80
-54.72
-56.45
-57.42
-57.10
-55.11
-51.53
-46.81
-41.61
-36.55
-31.94
-27.79
-23.88
-20.05
-16.31
-12.81
-9.76
-7.21
-5.04
-2.97
-0.75
1.71
4.25
6.62
8.54
9.91
10.81
11.44
12.05
12.79
13.73
14.86
16.22
17.97
20.37
23.69
28.07
33.35
39.09
44.69
49.58
53.62
57.12
60.71
64.95
70.09
75.78
81.36
86.17
89.79
92.33
94.32
96.43
99.08
102.43
106.20
110.05
113.54
116.06
116.99
115.68
111.64
104.58
94.75
82.51
68.38
52.66
35.16
15.70
-5.53
-27.61
-49.16
-68.51
-84.93
-97.49
-104.65
-106.07
-103.02
-97.46
-90.61
-84.84
-79.96
-75.96
-72.93
-71.04
-70.54
-69.92
-68.37
-65.41
-61.15
-55.82
-50.12
-44.63
-39.71
-35.60
-32.25
-29.49
-26.95
-24.30
-21.17
-17.59
-13.75
-9.93
-6.49
-3.61
-1.40
0.23
1.41
2.29
2.80
2.88
2.54
1.82
0.88
-0.18
-1.23
-2.22
-3.08
-3.85
-4.59
-5.33
-6.13
-7.03
-8.03
-9.06
-10.01
-10.79
-11.39
-11.88
-12.34
-12.85
-13.43
-14.12
-14.93
-15.87
-16.95
-18.07
-19.03
-19.49
-19.09
-17.51
-14.66
-10.75
-6.21
-1.59
2.64
6.22
9.15
11.55
13.57
15.22
16.47
17.21
17.43
17.20
16.71
16.11
15.51
14.94
14.40
13.90
13.46
13.13
12.94
12.83
12.72
12.53
12.14
11.53
10.69
9.68
8.59
7.48
6.37
5.25
4.06
2.76
1.32
-0.28
-1.98
-3.69
-5.33
-6.84
-8.22
-9.53
-10.89
-12.45
-14.35
-16.62
-19.23
-22.04
-24.88
-27.61
-30.16
-32.57
-34.91
-37.24
-39.51
-41.51
-43.00
-43.78
-43.89
-43.60
-43.38
-43.69
-44.77
-46.62
-48.91
-51.21
-53.05
-54.05
-53.86
-52.18
-48.71
-43.29
-35.98
-27.16
-17.44
-7.50
2.14
11.30
20.12
28.89
37.87
47.06
56.14
64.55
71.67
76.99
80.26
81.48
80.90
78.89
75.85
72.11
67.96
63.54
58.83
53.60
47.41
39.84
30.72
20.36
9.65
-0.15
-7.84
-12.67
-14.60
-14.21
-12.36
-9.83
-6.99
-3.84
-0.23
3.84
8.09
11.99
14.99
16.82
17.52
17.47
17.08
16.65
16.20
15.55
14.42
12.66
10.28
7.46
4.44
1.41
-1.51
-4.32
-7.05
-9.73
-12.41
-15.01
-17.45
-19.54
-21.12
-22.05
-22.26
-21.76
-20.55
-18.61
-15.98
-12.79
-9.26
-5.75
-2.61
-0.04
1.95
3.56
5.00
6.42
7.78
8.98
9.86
10.42
10.82
11.28
12.02
13.09
14.37
15.64
16.65
17.24
17.41
17.34
17.26
17.37
17.71
18.17
18.48
18.41
17.78
16.64
15.20
13.72
12.45
11.47
10.73
10.06
9.28
8.30
7.15
5.93
4.73
3.60
2.49
1.32
-0.01
-1.49
-3.10
-4.80
-6.54
-8.33
-10.16
-12.02
-13.89
-15.72
-17.49
-19.24
-21.05
-23.06
-25.36
-27.95
-30.65
-33.07
-34.69
-34.98
-33.61
-30.59
-26.30
-21.35
-16.39
-11.89
-8.06
-4.84
-2.09
0.33
2.45
4.24
5.65
6.74
7.64
8.51
9.48
10.56
11.72
12.88
14.01
15.12
16.24
17.35
18.39
19.26
19.84
20.06
19.89
19.37
18.59
17.67
16.74
15.93
15.25
14.68
14.12
13.48
12.74
11.93
11.09
10.24
9.36
8.45
7.51
6.60
5.73
4.85
3.86
2.66
1.25
-0.27
-1.69
-2.90
-3.91
-4.87
-5.98
-7.34
-8.93
-10.60
-12.21
-13.69
-15.10
-16.63
-18.44
-20.70
-23.41
-26.43
-29.43
-31.96
-33.56
-33.90
-32.86
-30.54
-27.21
-23.18
-18.75
-14.17
-9.68
-5.53
-1.92
1.01
3.29
5.05
6.46
7.63
8.62
9.44
10.11
10.74
11.44
12.32
13.41
14.66
15.94
17.14
18.20
19.06
19.68
20.03
20.09
19.89
19.49
18.98
18.43
17.86
17.31
16.79
16.29
15.82
15.31
14.68
13.85
12.81
11.65
10.50
9.51
8.69
8.00
7.29
6.42
5.34
4.08
2.73
1.44
0.27
-0.81
-1.89
-3.09
-4.53
-6.24
-8.19
-10.24
-12.25
-14.09
-15.70
-17.11
-18.46
-19.90
-21.63
-23.79
-26.43
-29.41
-32.43
-35.05
-36.79
-37.23
-36.17
-33.61
-29.78
-25.04
-19.84
-14.64
-9.85
-5.79
-2.58
-0.18
1.61
3.11
4.61
6.30
8.17
10.12
11.96
13.57
14.90
16.00
16.94
17.79
18.55
19.17
19.59
19.78
19.81
19.77
19.80
19.95
20.18
20.33
20.22
19.73
18.87
17.77
16.63
15.65
14.90
14.32
13.74
12.99
12.02
10.91
9.87
9.12
8.73
8.59
8.42
7.92
6.91
5.44
3.73
2.07
0.67
-0.42
-1.31
-2.21
-3.25
-4.54
-6.07
-7.78
-9.58
-11.39
-13.13
-14.75
-16.25
-17.66
-19.06
-20.57
-22.37
-24.57
-27.17
-29.98
-32.55
-34.32
-34.73
-33.44
-30.44
-26.08
-20.89
-15.42
-10.09
-5.15
-0.76
2.91
5.69
7.43
8.09
7.91
7.41
7.30
8.35
11.12
15.78
22.02
29.07
35.98
41.82
46.01
48.37
49.09
48.53
47.05
44.82
41.90
38.29
34.03
29.31
24.41
19.62
15.20
11.29
7.93
5.12
2.77
0.78
-1.05
-2.91
-5.00
-7.40
-10.12
-13.01
-15.88
-18.49
-20.67
-22.33
-23.56
-24.55
-25.62
-26.97
-28.62
-30.35
-31.74
-32.42
-32.24
-31.35
-30.15
-29.10
-28.56
-28.70
-29.60
-31.21
-33.45
-36.08
-38.67
-40.65
-41.41
-40.52
-37.87
-33.72
-28.58
-23.09
-17.78
-13.06
-9.07
-5.76
-2.93
-0.36
2.11
4.52
6.81
8.86
10.61
12.06
13.29
14.39
15.40
16.35
17.25
18.12
19.00
19.88
20.74
21.48
22.01
22.26
22.23
21.97
21.52
20.94
20.30
19.63
19.00
18.38
17.72
16.90
15.77
14.26
12.40
10.32
8.27
6.46
5.05
4.08
3.44
2.91
2.27
1.34
0.08
-1.43
-3.07
-4.73
-6.35
-7.94
-9.51
-11.05
-12.56
-14.05
-15.67
-17.58
-19.96
-22.83
-26.00
-29.06
-31.47
-32.72
-32.48
-30.66
-27.42
-23.17
-18.39
-13.61
-9.24
-5.49
-2.37
0.27
2.60
4.72
6.63
8.25
9.53
10.51
11.30
12.03
12.81
13.62
14.42
15.22
16.05
16.99
18.10
19.31
20.48
21.40
21.93
22.01
21.64
20.91
19.92
18.78
17.62
16.55
15.63
14.83
14.12
13.46
12.83
12.27
11.83
11.49
11.20
10.85
10.35
9.66
8.79
7.76
6.63
5.42
4.17
2.88
1.60
0.30
-1.04
-2.48
-4.08
-5.85
-7.76
-9.72
-11.66
-13.56
-15.47
-17.54
-19.93
-22.75
-25.92
-29.15
-31.99
-33.91
-34.52
-33.61
-31.26
-27.70
-23.31
-18.47
-13.58
-8.99
-5.00
-1.80
0.60
2.35
3.74
5.03
6.37
7.73
8.97
9.96
10.67
11.23
11.79
12.50
13.41
14.44
15.46
16.36
17.05
17.50
17.72
17.71
17.47
16.99
16.29
15.41
14.44
13.47
12.60
11.85
11.19
10.54
9.76
8.80
7.64
6.37
5.12
4.02
3.14
2.46
1.92
1.42
0.82
0.03
-1.01
-2.29
-3.75
-5.29
-6.80
-8.22
-9.58
-10.97
-12.50
-14.29
-16.39
-18.73
-21.13
-23.28
-24.79
-25.27
-24.40
-22.05
-18.37
-13.76
-8.79
-4.04
0.12
3.52
6.27
8.56
10.59
12.46
14.19
15.78
17.25
18.69
20.24
22.00
23.98
26.12
28.32
30.50
32.64
34.78
36.97
39.20
41.44
43.59
45.58
47.40
49.09
50.70
52.21
53.48
54.27
54.28
53.36
51.50
48.95
46.06
43.16
40.45
37.87
35.17
32.02
28.13
23.35
17.75
11.52
4.92
-1.81
-8.48
-14.91
-20.90
-26.31
-31.03
-35.11
-38.71
-42.04
-45.20
-48.13
-50.60
-52.39
-53.41
-53.81
-53.98
-54.34
-55.17
-56.47
-57.96
-59.08
-59.27
-58.07
-55.31
-51.16
-46.09
-40.71
-35.57
-31.04
-27.23
-24.08
-21.44
-19.22
-17.33
-15.72
-14.25
-12.80
-11.26
-9.63
-8.00
-6.52
-5.27
-4.22
-3.27
-2.28
-1.18
0.04
1.24
2.31
3.12
3.59
3.72
3.52
3.08
2.47
1.83
1.25
0.80
0.48
0.21
-0.11
-0.57
-1.20
-1.95
-2.76
-3.55
-4.32
-5.10
-5.91
-6.77
-7.66
-8.56
-9.48
-10.42
-11.38
-12.40
-13.49
-14.76
-16.34
-18.34
-20.71
-23.19
-25.31
-26.51
-26.36
-24.71
-21.72
-17.85
-13.67
-9.65
-6.08
-3.02
-0.39
1.96
4.10
6.03
7.66
8.93
9.85
10.47
10.91
11.25
11.58
11.95
12.40
12.99
13.73
14.56
15.34
15.91
16.13
15.93
15.35
14.50
13.55
12.66
11.96
11.50
11.25
11.09
10.87
10.48
9.92
9.25
8.63
8.17
7.88
7.71
7.57
7.37
7.12
6.84
6.56
6.25
5.85
5.25
4.37
3.19
1.79
0.31
-1.08
-2.28
-3.25
-4.06
-4.84
-5.70
-6.75
-7.95
-9.23
-10.45
-11.50
-12.35
-13.03
-13.63
-14.24
-14.96
-15.90
-17.15
-18.78
-20.76
-22.86
-24.67
-25.68
-25.42
-23.69
-20.59
-16.52
-11.99
-7.44
-3.24
0.42
3.41
5.65
7.18
8.10
8.65
9.05
9.52
10.13
10.82
11.49
12.07
12.53
12.91
13.24
13.54
13.81
14.01
14.14
14.20
14.22
14.21
14.15
13.99
13.67
13.18
12.55
11.88
11.26
10.74
10.24
9.65
8.88
7.94
6.94
6.04
5.36
4.90
4.57
4.25
3.86
3.36
2.78
2.13
1.42
0.62
-0.23
-1.13
-2.08
-3.10
-4.27
-5.61
-7.09
-8.62
-10.01
-11.15
-12.02
-12.76
-13.58
-14.72
-16.35
-18.50
-21.06
-23.77
-26.24
-28.00
-28.63
-27.80
-25.46
-21.85
-17.43
-12.78
-8.39
-4.58
-1.46
1.04
3.02
4.57
5.77
6.65
7.25
7.63
7.87
8.06
8.29
8.58
8.93
9.32
9.72
10.14
10.61
11.22
11.96
12.78
13.50
13.96
14.03
13.76
13.26
12.72
12.23
11.80
11.36
10.85
10.25
9.61
9.00
8.48
8.01
7.56
7.05
6.49
5.89
5.30
4.77
4.26
3.73
3.09
2.27
1.28
0.19
-0.88
-1.81
-2.52
-3.03
-3.48
-4.04
-4.87
-6.04
-7.49
-9.07
-10.60
-11.96
-13.12
-14.15
-15.23
-16.51
-18.10
-20.03
-22.19
-24.36
-26.20
-27.31
-27.32
-26.00
-23.37
-19.68
-15.33
-10.79
-6.44
-2.56
0.71
3.31
5.27
6.68
7.70
8.48
9.15
9.75
10.28
10.74
11.16
11.65
12.33
13.23
14.24
15.17
15.79
15.99
15.81
15.42
15.03
14.75
14.62
14.52
14.37
14.13
13.83
13.51
13.19
12.79
12.19
11.33
10.24
9.05
7.91
6.94
6.17
5.52
4.91
4.23
3.46
2.59
1.67
0.75
-0.12
-0.91
-1.60
-2.21
-2.88
-3.76
-5.01
-6.74
-8.87
-11.21
-13.49
-15.47
-17.04
-18.30
-19.48
-20.86
-22.67
-25.00
-27.75
-30.65
-33.30
-35.21
-35.92
-35.08
-32.61
-28.73
-23.92
-18.78
-13.84
-9.44
-5.71
-2.59
-0.03
2.04
3.69
5.01
6.16
7.28
8.50
9.81
11.10
12.25
13.19
13.99
14.79
15.77
16.96
18.29
19.60
20.70
21.51
22.02
22.30
22.42
22.40
22.23
21.87
21.30
20.47
19.43
18.21
16.88
15.52
14.23
13.08
12.09
11.20
10.31
9.34
8.21
6.95
5.60
4.23
2.90
1.64
0.45
-0.70
-1.83
-2.97
-4.13
-5.28
-6.40
-7.48
-8.53
-9.67
-10.98
-12.49
-14.13
-15.73
-17.07
-18.05
-18.74
-19.41
-20.41
-22.00
-24.21
-26.72
-28.98
-30.34
-30.27
-28.56
-25.32
-20.93
-15.90
-10.77
-5.95
-1.77
1.66
4.32
6.30
7.74
8.74
9.43
9.87
10.15
10.35
10.55
10.78
11.02
11.24
11.38
11.41
11.39
11.41
11.57
11.93
12.45
13.00
13.43
13.60
13.47
13.10
12.59
12.04
11.51
11.00
10.46
9.87
9.23
8.58
7.95
7.36
6.82
6.33
5.84
5.32
4.70
3.90
2.88
1.65
0.25
-1.27
-2.87
-4.52
-6.20
-7.86
-9.45
-10.94
-12.35
-13.75
-15.29
-17.11
-19.31
-21.93
-24.82
-27.69
-30.08
-31.40
-31.17
-29.14
-25.42
-20.50
-15.05
-9.75
-5.06
-1.20
1.85
4.23
6.09
7.54
8.69
9.61
10.39
11.07
11.68
12.23
12.69
13.07
13.40
13.75
14.18
14.76
15.47
16.23
16.92
17.42
17.69
17.70
17.50
17.14
16.63
15.97
15.15
14.22
13.26
12.35
11.54
10.81
10.09
9.30
8.40
7.44
6.54
5.80
5.27
4.93
4.67
4.35
3.88
3.19
2.31
1.30
0.23
-0.81
-1.76
-2.61
-3.41
-4.24
-5.24
-6.50
-8.05
-9.84
-11.71
-13.56
-15.35
-17.16
-19.18
-21.56
-24.29
-27.11
-29.60
-31.21
-31.52
-30.26
-27.47
-23.41
-18.51
-13.31
-8.31
-3.93
-0.39
2.28
4.24
5.70
6.85
7.81
8.62
9.28
9.82
10.30
10.76
11.22
11.65
12.03
12.37
12.71
13.14
13.68
14.29
14.86
15.25
15.37
15.20
14.76
14.11
13.33
12.45
11.53
10.58
9.63
8.69
7.76
6.82
5.84
4.80
3.71
2.59
1.45
0.33
-0.78
-1.88
-3.02
-4.21
-5.50
-6.93
-8.49
-10.16
-11.92
-13.72
-15.52
-17.29
-19.10
-21.00
-23.05
-25.16
-27.12
-28.53
-28.94
-27.99
-25.54
-21.74
-17.05
-12.05
-7.34
-3.30
-0.08
2.40
4.31
5.82
6.97
7.73
8.04
7.93
7.51
6.96
6.42
5.95
5.51
5.00
4.29
3.34
2.18
0.86
-0.60
-2.21
-4.03
-6.12
-8.50
-11.08
-13.74
-16.32
-18.71
-20.89
-22.92
-24.86
-26.73
-28.44
-29.89
-30.94
-31.51
-31.52
-30.90
-29.57
-27.44
-24.45
-20.65
-16.20
-11.33
-6.31
-1.29
3.62
8.38
12.93
17.21
21.10
24.52
27.50
30.12
32.49
34.62
36.41
37.68
38.28
38.18
37.54
36.53
35.28
33.71
31.63
28.85
25.44
21.75
18.37
15.94
14.83
15.08
16.37
18.15
19.84
20.95
21.23
20.67
19.47
17.90
16.27
14.79
13.52
12.41
11.39
10.36
9.33
8.31
7.32
6.38
5.51
4.74
4.16
3.83
3.78
3.91
4.03
3.91
3.41
2.50
1.27
-0.11
-1.47
-2.72
-3.80
-4.73
-5.53
-6.27
-7.01
-7.87
-8.93
-10.25
-11.81
-13.51
-15.24
-16.88
-18.31
-19.42
-20.13
-20.41
-20.24
-19.62
-18.64
-17.37
-15.97
-14.62
-13.44
-12.53
-11.86
-11.33
-10.77
-10.09
-9.24
-8.29
-7.39
-6.73
-6.45
-6.58
-6.98
-7.35
-7.29
-6.39
-4.45
-1.46
2.25
6.18
9.78
12.60
14.41
15.20
15.12
14.42
13.36
12.14
10.85
9.47
8.00
6.44
4.91
3.58
2.60
2.03
1.76
1.55
1.11
0.27
-0.96
-2.37
-3.64
-4.55
-5.01
-5.16
-5.21
-5.34
-5.63
-6.05
-6.44
-6.62
-6.38
-5.40
-3.31
0.17
5.09
11.13
17.60
23.63
28.50
31.80
33.58
34.12
33.74
32.60
30.70
27.98
24.51
20.51
16.37
12.43
8.91
5.76
2.80
-0.11
-3.02
-5.75
-8.01
-9.56
-10.36
-10.62
-10.75
-11.22
-12.33
-14.18
-16.60
-19.24
-21.66
-23.39
-24.05
-23.44
-21.60
-18.83
-15.58
-12.35
-9.51
-7.25
-5.56
-4.36
-3.60
-3.22
-3.19
-3.36
-3.53
-3.46
-2.95
-1.96
-0.57
1.06
2.70
4.19
5.41
6.35
7.09
7.75
8.48
9.36
10.38
11.45
12.43
13.19
13.67
13.86
13.78
13.42
12.81
11.97
10.96
9.82
8.59
7.22
5.62
3.68
1.32
-1.44
-4.50
-7.67
-10.72
-13.39
-15.49
-16.89
-17.57
-17.63
-17.25
-16.65
-16.01
-15.43
-14.93
-14.54
-14.36
-14.61
-15.57
-17.44
-20.22
-23.59
-27.01
-29.75
-31.16
-30.82
-28.63
-24.82
-19.90
-14.47
-9.13
-4.33
-0.29
2.96
5.54
7.64
9.39
10.87
12.10
13.12
13.99
14.81
15.66
16.58
17.50
18.34
19.03
19.60
20.14
20.78
21.57
22.43
23.20
23.69
23.77
23.42
22.71
21.71
20.51
19.16
17.72
16.28
14.96
13.84
12.93
12.17
11.44
10.65
9.80
8.97
8.21
7.56
6.99
6.40
5.70
4.84
3.79
2.56
1.21
-0.16
-1.43
-2.48
-3.30
-3.95
-4.66
-5.64
-7.06
-8.91
-11.03
-13.17
-15.10
-16.70
-17.96
-19.02
-20.12
-21.55
-23.55
-26.19
-29.20
-32.06
-34.05
-34.52
-33.14
-29.97
-25.46
-20.24
-14.94
-10.00
-5.68
-2.05
0.96
3.45
5.55
7.34
8.81
9.92
10.57
10.73
10.48
10.04
9.70
9.68
10.07
10.74
11.41
11.73
11.47
10.56
9.17
7.60
6.11
4.85
3.76
2.66
1.36
-0.26
-2.17
-4.21
-6.20
-7.93
-9.12
-9.40
-8.36
-5.77
-1.71
3.28
8.27
12.32
14.80
15.65
15.32
14.48
13.68
13.14
12.75
12.23
11.33
9.93
8.03
5.67
2.99
0.15
-2.60
-5.02
-6.97
-8.46
-9.74
-11.15
-13.03
-15.54
-18.60
-21.80
-24.59
-26.36
-26.67
-25.30
-22.37
-18.22
-13.38
-8.38
-3.70
0.31
3.49
5.86
7.59
8.90
10.02
11.08
12.09
12.95
13.57
13.93
14.11
14.28
14.56
15.02
15.63
16.28
16.92
17.51
18.07
18.59
19.02
19.25
19.17
18.74
18.01
17.14
16.28
15.54
14.90
14.28
13.53
12.57
11.40
10.07
8.70
7.40
6.22
5.18
4.26
3.37
2.45
1.43
0.30
-0.94
-2.23
-3.54
-4.86
-6.19
-7.60
-9.16
-10.94
-12.92
-15.06
-17.19
-19.19
-20.94
-22.45
-23.81
-25.19
-26.81
-28.78
-31.13
-33.64
-35.94
-37.50
-37.86
-36.72
-34.10
-30.28
-25.76
-21.06
-16.58
-12.60
-9.22
-6.49
-4.39
-2.90
-1.98
-1.52
-1.42
-1.55
-1.88
-2.43
-3.25
-4.42
-5.90
-7.58
-9.26
-10.77
-12.01
-13.11
-14.27
-15.72
-17.54
-19.66
-21.86
-23.90
-25.62
-26.97
-27.99
-28.76
-29.31
-29.64
-29.72
-29.51
-28.90
-27.72
-25.69
-22.53
-18.10
-12.48
-6.02
0.81
7.56
14.04
20.22
26.18
31.94
37.29
41.84
45.18
47.05
47.47
46.70
45.10
42.99
40.53
37.75
34.62
31.13
27.31
23.25
19.01
14.62
10.14
5.71
1.62
-1.69
-3.82
-4.44
-3.51
-1.26
1.91
5.45
8.89
11.89
14.28
16.05
17.29
18.10
18.57
18.78
18.75
18.52
18.16
17.71
17.22
16.72
16.22
15.73
15.26
14.89
14.65
14.57
14.61
14.69
14.70
14.55
14.18
13.55
12.68
11.67
10.60
9.55
8.55
7.54
6.41
5.06
3.43
1.58
-0.40
-2.33
-4.12
-5.74
-7.29
-8.88
-10.64
-12.59
-14.63
-16.59
-18.32
-19.69
-20.71
-21.42
-21.84
-21.94
-21.58
-20.68
-19.28
-17.55
-15.87
-14.57
-13.93
-14.05
-14.92
-16.41
-18.28
-20.22
-21.77
-22.47
-21.95
-20.06
-16.94
-13.05
-8.95
-5.15
-1.95
0.60
2.68
4.56
6.44
8.41
10.35
12.08
13.40
14.22
14.64
14.86
15.07
15.41
15.89
16.44
17.01
17.58
18.19
18.85
19.51
20.05
20.36
20.35
20.05
19.61
19.15
18.79
18.55
18.36
18.13
17.80
17.33
16.73
16.00
15.15
14.21
13.20
12.17
11.15
10.13
9.08
7.96
6.70
5.35
3.95
2.58
1.25
-0.06
-1.46
-3.00
-4.71
-6.56
-8.47
-10.39
-12.27
-14.15
-16.05
-18.01
-20.06
-22.24
-24.58
-27.14
-29.93
-32.87
-35.74
-38.15
-39.68
-39.88
-38.48
-35.44
-30.99
-25.64
-20.04
-14.76
-10.18
-6.40
-3.31
-0.70
1.55
3.48
5.04
6.19
7.03
7.72
8.49
9.46
10.67
12.00
13.30
14.46
15.46
16.32
17.12
17.86
18.50
18.96
19.14
18.99
18.49
17.66
16.58
15.34
14.03
12.77
11.63
10.68
9.92
9.28
8.65
7.91
6.97
5.78
4.41
2.96
1.58
0.43
-0.43
-1.02
-1.45
-1.94
-2.71
-3.90
-5.54
-7.51
-9.65
-11.75
-13.71
-15.48
-17.09
-18.61
-20.17
-21.88
-23.87
-26.13
-28.49
-30.50
-31.59
-31.22
-29.08
-25.25
-20.19
-14.55
-8.99
-4.01
0.12
3.37
5.83
7.67
9.09
10.27
11.35
12.40
13.47
14.58
15.71
16.81
17.81
18.62
19.19
19.53
19.68
19.76
19.86
20.01
20.20
20.31
20.26
19.95
19.37
18.57
17.67
16.81
16.09
15.53
15.04
14.53
13.88
13.06
12.08
11.03
9.98
9.03
8.24
7.63
7.18
6.79
6.28
5.51
4.37
2.94
1.38
-0.16
-1.58
-2.97
-4.47
-6.18
-8.10
-10.13
-12.13
-14.05
-15.91
-17.81
-19.79
-21.84
-23.93
-26.10
-28.42
-30.94
-33.52
-35.81
-37.28
-37.41
-35.94
-32.92
-28.76
-24.02
-19.24
-14.77
-10.80
-7.33
-4.36
-1.90
0.04
1.42
2.26
2.71
2.95
3.19
3.58
4.15
4.85
5.59
6.32
7.02
7.74
8.48
9.23
9.93
10.50
10.87
11.02
10.90
10.54
9.97
9.26
8.53
7.89
7.41
7.07
6.76
6.36
5.77
5.03
4.24
3.54
2.98
2.53
2.04
1.39
0.54
-0.47
-1.59
-2.80
-4.16
-5.76
-7.61
-9.64
-11.70
-13.65
-15.45
-17.21
-19.11
-21.32
-23.92
-26.77
-29.52
-31.71
-32.85
-32.57
-30.71
-27.42
-23.09
-18.25
-13.43
-9.03
-5.24
-2.04
0.66
3.04
5.20
7.20
8.98
10.50
11.66
12.47
12.97
13.27
13.52
13.81
14.17
14.59
15.01
15.33
15.52
15.59
15.58
15.54
15.51
15.47
15.36
15.08
14.60
13.91
13.07
12.16
11.26
10.41
9.66
9.02
8.52
8.16
7.90
7.69
7.44
7.10
6.63
6.03
5.30
4.43
3.43
2.34
1.21
0.10
-0.94
-1.98
-3.12
-4.42
-5.89
-7.45
-8.97
-10.37
-11.66
-12.95
-14.35
-15.92
-17.64
-19.42
-21.18
-22.86
-24.49
-26.11
-27.81
-29.70
-31.84
-34.22
-36.65
-38.74
-39.94
-39.71
-37.66
-33.80
-28.48
-22.37
-16.15
-10.44
-5.60
-1.74
1.25
3.62
5.67
7.61
9.54
11.40
13.04
14.32
15.17
15.67
15.96
16.21
16.52
16.97
17.54
18.20
18.86
19.45
19.88
20.06
19.94
19.49
18.67
17.48
15.90
13.98
11.88
9.75
7.79
6.11
4.72
3.54
2.46
1.37
0.18
-1.16
-2.70
-4.40
-6.18
-7.83
-9.12
-9.83
-9.87
-9.28
-8.26
-7.08
-6.08
-5.60
-5.93
-7.14
-9.10
-11.35
-13.28
-14.29
-13.96
-12.21
-9.31
-5.75
-2.09
1.17
3.65
5.12
5.50
4.86
3.41
1.46
-0.68
-2.73
-4.49
-5.82
-6.64
-6.88
-6.57
-5.83
-4.85
-3.86
-2.99
-2.27
-1.56
-0.69
0.53
2.17
4.16
6.32
8.39
10.11
11.32
11.99
12.20
12.19
12.17
12.31
12.62
12.99
13.25
13.23
12.86
12.20
11.49
11.03
11.13
11.98
13.58
15.67
17.88
19.74
20.90
21.16
20.52
19.07
17.01
14.56
11.95
9.38
6.97
4.75
2.65
0.58
-1.55
-3.69
-5.81
-7.90
-10.00
-12.22
-14.62
-17.16
-19.75
-22.31
-24.87
-27.58
-30.51
-33.48
-36.01
-37.41
-37.10
-34.90
-31.11
-26.38
-21.41
-16.67
-12.39
-8.61
-5.32
-2.57
-0.44
1.05
2.04
2.80
3.63
4.76
6.27
8.10
10.09
12.12
14.09
16.02
17.93
19.88
21.86
23.81
25.61
27.06
28.02
28.40
28.20
27.51
26.48
25.27
24.05
22.94
21.95
21.01
19.98
18.73
17.19
15.45
13.72
12.29
11.39
11.06
11.12
11.14
10.54
8.80
5.69
1.38
-3.55
-8.32
-12.24
-14.94
-16.47
-17.20
-17.60
-18.05
-18.77
-19.76
-20.93
-22.10
-23.10
-23.79
-24.17
-24.40
-24.78
-25.65
-27.15
-29.09
-30.96
-32.16
-32.16
-30.77
-28.11
-24.53
-20.39
-15.97
-11.46
-7.05
-2.91
0.72
3.68
5.92
7.55
8.80
9.93
11.12
12.39
13.68
14.88
15.91
16.76
17.49
18.16
18.78
19.35
19.82
20.21
20.54
20.87
21.22
21.53
21.70
21.61
21.19
20.46
19.53
18.55
17.63
16.83
16.10
15.37
14.55
13.64
12.69
11.79
11.00
10.29
9.63
8.96
8.27
7.61
7.05
6.59
6.13
5.47
4.43
2.95
1.17
-0.61
-2.04
-2.92
-3.33
-3.57
-4.10
-5.23
-7.07
-9.40
-11.88
-14.19
-16.17
-17.90
-19.58
-21.45
-23.65
-26.20
-28.97
-31.75
-34.28
-36.18
-37.08
-36.63
-34.65
-31.18
-26.57
-21.31
-15.99
-11.08
-6.88
-3.50
-0.88
1.18
2.88
4.41
5.88
7.26
8.51
9.59
10.51
11.32
12.11
12.94
13.80
14.63
15.39
16.06
16.64
17.14
17.55
17.79
17.77
17.43
16.75
15.78
14.63
13.43
12.32
11.38
10.62
9.94
9.16
8.11
6.72
5.05
3.31
1.75
0.51
-0.40
-1.17
-2.08
-3.36
-5.12
-7.31
-9.72
-12.12
-14.23
-15.78
-16.52
-16.27
-15.02
-13.03
-10.77
-8.86
-7.90
-8.23
-9.88
-12.48
-15.35
-17.78
-19.17
-19.23
-18.03
-15.91
-13.30
-10.59
-8.03
-5.72
-3.70
-1.94
-0.43
0.89
2.13
3.38
4.66
5.92
7.06
7.99
8.72
9.38
10.09
10.96
12.03
13.25
14.53
15.79
16.96
17.96
18.71
19.09
19.05
18.62
17.91
17.08
16.29
15.61
15.00
14.40
13.75
13.04
12.32
11.64
10.94
10.18
9.26
8.21
7.13
6.18
5.40
4.72
3.93
2.83
1.35
-0.41
-2.19
-3.75
-5.00
-6.04
-7.11
-8.48
-10.33
-12.66
-15.31
-17.96
-20.27
-21.97
-22.93
-23.27
-23.31
-23.49
-24.18
-25.53
-27.38
-29.33
-30.87
-31.62
-31.40
-30.29
-28.45
-26.11
-23.41
-20.48
-17.46
-14.52
-11.81
-9.41
-7.29
-5.32
-3.37
-1.39
0.57
2.39
3.94
5.21
6.29
7.33
8.51
9.92
11.55
13.33
15.14
16.83
18.34
19.62
20.66
21.48
22.09
22.55
22.89
23.16
23.35
23.38
23.11
22.45
21.37
19.99
18.53
17.28
16.49
16.29
16.63
17.28
17.89
18.10
17.66
16.55
15.02
13.43
12.16
11.42
11.20
11.25
11.29
11.02
10.28
9.03
7.28
5.13
2.70
0.11
-2.49
-4.99
-7.33
-9.50
-11.53
-13.46
-15.34
-17.22
-19.13
-21.08
-23.06
-25.07
-27.16
-29.41
-31.96
-34.84
-37.90
-40.70
-42.61
-43.00
-41.44
-37.93
-32.90
-27.07
-21.21
-15.91
-11.45
-7.83
-4.86
-2.31
0.02
2.25
4.44
6.59
8.67
10.64
12.42
13.91
15.05
15.83
16.32
16.67
17.05
17.63
18.44
19.43
20.45
21.29
21.74
21.72
21.23
20.37
19.32
18.30
17.44
16.82
16.37
15.97
15.48
14.84
14.06
13.22
12.40
11.63
10.88
10.09
9.24
8.32
7.31
6.18
4.90
3.45
1.87
0.33
-1.03
-2.12
-2.98
-3.81
-4.83
-6.20
-7.94
-9.94
-12.03
-14.08
-16.03
-17.93
-19.85
-21.91
-24.24
-26.93
-29.97
-33.21
-36.28
-38.66
-39.82
-39.35
-37.15
-33.45
-28.75
-23.59
-18.49
-13.74
-9.47
-5.66
-2.27
0.71
3.21
5.19
6.63
7.66
8.49
9.31
10.27
11.35
12.49
13.58
14.62
15.64
16.74
17.94
19.18
20.32
21.23
21.78
21.91
21.66
21.08
20.31
19.49
18.74
18.11
17.57
17.00
16.25
15.26
14.05
12.71
11.37
10.12
9.01
8.05
7.23
6.57
6.01
5.47
4.83
3.97
2.82
1.42
-0.12
-1.65
-3.08
-4.39
-5.66
-6.97
-8.40
-9.98
-11.65
-13.34
-14.98
-16.58
-18.20
-20.02
-22.19
-24.85
-27.95
-31.25
-34.30
-36.53
-37.43
-36.66
-34.20
-30.31
-25.46
-20.21
-15.04
-10.32
-6.21
-2.72
0.24
2.83
5.15
7.28
9.26
11.09
12.72
14.12
15.26
16.12
16.69
17.06
17.30
17.58
18.01
18.65
19.49
20.41
21.27
21.89
22.13
21.90
21.20
20.16
19.00
17.93
17.11
16.57
16.23
15.86
15.24
14.15
12.53
10.50
8.38
6.71
6.02
6.71
8.86
12.11
15.82
19.27
21.91
23.47
23.95
23.42
21.92
19.44
15.99
11.70
6.93
2.09
-2.40
-6.34
-9.71
-12.66
-15.37
-17.96
-20.45
-22.76
-24.82
-26.61
-28.14
-29.53
-30.97
-32.62
-34.61
-36.87
-39.21
-41.22
-42.45
-42.45
-40.97
-38.00
-33.77
-28.75
-23.50
-18.53
-14.22
-10.75
-8.09
-6.05
-4.40
-2.93
-1.52
-0.13
1.18
2.30
3.10
3.54
3.73
3.98
4.76
6.51
9.50
13.64
18.50
23.39
27.60
30.56
31.96
31.72
29.91
26.71
22.44
17.54
12.54
7.96
4.16
1.23
-0.97
-2.73
-4.26
-5.60
-6.60
-7.04
-6.74
-5.70
-4.15
-2.46
-1.01
-0.08
0.19
-0.12
-0.82
-1.68
-2.55
-3.37
-4.19
-5.14
-6.36
-7.95
-9.94
-12.30
-14.89
-17.50
-19.77
-21.30
-21.72
-20.76
-18.38
-14.73
-10.12
-4.97
0.26
5.14
9.31
12.52
14.70
15.94
16.44
16.42
16.07
15.51
14.82
14.09
13.41
12.85
12.45
12.19
12.04
12.01
12.13
12.47
13.02
13.68
14.29
14.65
14.63
14.24
13.57
12.79
12.06
11.47
11.05
10.79
10.60
10.38
10.00
9.36
8.45
7.36
6.25
5.28
4.56
4.05
3.66
3.23
2.65
1.86
0.90
-0.21
-1.44
-2.77
-4.20
-5.70
-7.18
-8.56
-9.82
-10.98
-12.10
-13.30
-14.65
-16.19
-17.92
-19.83
-21.93
-24.24
-26.74
-29.34
-31.74
-33.52
-34.22
-33.52
-31.37
-28.01
-23.90
-19.53
-15.34
-11.53
-8.19
-5.30
-2.79
-0.61
1.31
3.03
4.59
5.98
7.18
8.16
8.98
9.71
10.48
11.33
12.25
13.18
14.05
14.86
15.61
16.31
16.86
17.11
16.91
16.21
15.11
13.83
12.60
11.60
10.86
10.33
9.94
9.63
9.35
9.09
8.76
8.26
7.49
6.35
4.86
3.14
1.37
-0.23
-1.52
-2.48
-3.22
-3.96
-4.92
-6.23
-7.91
-9.87
-11.93
-13.95
-15.83
-17.54
-19.16
-20.83
-22.73
-24.99
-27.62
-30.44
-33.02
-34.83
-35.31
-34.14
-31.29
-27.08
-22.04
-16.82
-11.91
-7.63
-4.07
-1.15
1.30
3.45
5.36
7.02
8.36
9.32
9.95
10.44
11.02
11.92
13.18
14.68
16.15
17.35
18.14
18.57
18.78
18.92
19.03
19.07
18.95
18.64
18.17
17.62
17.10
16.65
16.27
15.86
15.32
14.57
13.62
12.55
11.52
10.69
10.13
9.81
9.57
9.28
8.80
8.11
7.25
6.24
5.10
3.82
2.43
1.00
-0.36
-1.55
-2.56
-3.48
-4.48
-5.77
-7.48
-9.61
-12.01
-14.46
-16.74
-18.72
-20.44
-22.03
-23.71
-25.68
-28.06
-30.80
-33.70
-36.38
-38.32
-39.01
-38.05
-35.32
-30.99
-25.56
-19.69
-14.01
-8.98
-4.84
-1.62
0.78
2.57
3.99
5.25
6.54
7.90
9.30
10.60
11.70
12.59
13.32
14.01
14.75
15.53
16.26
16.84
17.20
17.35
17.33
17.17
16.87
16.39
15.68
14.76
13.62
12.28
10.68
8.76
6.50
4.04
1.68
-0.19
-1.22
-1.24
-0.28
1.45
3.68
6.13
8.56
10.72
12.35
13.22
13.20
12.32
10.77
8.81
6.68
4.47
2.10
-0.59
-3.74
-7.39
-11.42
-15.63
-19.82
-23.87
-27.75
-31.36
-34.48
-36.68
-37.46
-36.41
-33.46
-28.94
-23.48
-17.82
-12.52
-7.85
-3.81
-0.29
2.82
5.57
7.92
9.86
11.37
12.54
13.49
14.41
15.44
16.64
17.97
19.28
20.38
21.19
21.73
22.15
22.63
23.25
23.98
24.72
25.33
25.79
26.10
26.22
25.99
25.15
23.47
20.90
17.72
14.40
11.52
9.42
8.12
7.33
6.65
5.76
4.57
3.19
1.77
0.40
-0.98
-2.46
-4.06
-5.68
-7.15
-8.36
-9.34
-10.32
-11.56
-13.23
-15.31
-17.61
-19.87
-21.91
-23.71
-25.45
-27.39
-29.76
-32.67
-35.96
-39.25
-41.97
-43.51
-43.37
-41.36
-37.61
-32.55
-26.78
-20.97
-15.66
-11.22
-7.79
-5.31
-3.53
-2.16
-0.90
0.49
2.11
3.99
6.08
8.31
10.65
13.10
15.69
18.43
21.33
24.30
27.21
29.90
32.18
33.91
35.00
35.41
35.17
34.36
33.12
31.62
30.00
28.33
26.57
24.65
22.47
20.07
17.55
15.06
12.75
10.69
8.87
7.20
5.62
4.05
2.51
1.02
-0.38
-1.68
-2.90
-4.09
-5.34
-6.73
-8.27
-9.94
-11.66
-13.35
-14.93
-16.40
-17.83
-19.32
-21.04
-23.14
-25.72
-28.75
-32.00
-35.03
-37.30
-38.26
-37.57
-35.20
-31.38
-26.56
-21.20
-15.73
-10.48
-5.70
-1.57
1.81
4.46
6.51
8.15
9.55
10.79
11.89
12.80
13.55
14.18
14.81
15.54
16.40
17.39
18.43
19.41
20.28
20.98
21.49
21.81
21.93
21.81
21.43
20.79
19.96
19.05
18.18
17.42
16.75
16.08
15.28
14.31
13.18
12.00
10.88
9.90
9.05
8.29
7.57
6.84
6.08
5.30
4.48
3.59
2.59
1.52
0.40
-0.68
-1.71
-2.71
-3.78
-5.01
-6.43
-7.99
-9.62
-11.23
-12.80
-14.39
-16.13
-18.18
-20.67
-23.70
-27.25
-31.18
-35.09
-38.38
-40.37
-40.45
-38.38
-34.37
-29.03
-23.14
-17.44
-12.35
-7.98
-4.22
-0.91
2.06
4.70
6.96
8.83
10.31
11.46
12.36
13.08
13.73
14.40
15.18
16.08
17.01
17.85
18.48
18.85
18.96
18.92
18.84
18.76
18.64
18.38
17.87
17.07
16.02
14.81
13.55
12.29
11.08
9.90
8.74
7.60
6.50
5.45
4.45
3.45
2.38
1.17
-0.20
-1.69
-3.21
-4.67
-6.05
-7.40
-8.82
-10.39
-12.15
-14.05
-15.99
-17.85
-19.60
-21.27
-23.00
-24.95
-27.28
-30.04
-33.07
-36.02
-38.35
-39.52
-39.13
-37.04
-33.41
-28.59
-23.04
-17.22
-11.56
-6.43
-2.12
1.23
3.66
5.38
6.72
7.92
9.10
10.21
11.10
11.73
12.14
12.49
12.96
13.64
14.49
15.38
16.20
16.88
17.42
17.84
18.14
18.30
18.25
17.95
17.41
16.64
15.72
14.70
13.63
12.53
11.40
10.20
8.88
7.40
5.77
4.07
2.43
0.96
-0.27
-1.33
-2.35
-3.48
-4.86
-6.51
-8.39
-10.41
-12.45
-14.45
-16.36
-18.23
-20.17
-22.33
-24.83
-27.73
-30.88
-33.92
-36.36
-37.64
-37.32
-35.20
-31.39
-26.29
-20.47
-14.54
-9.04
-4.30
-0.41
2.68
5.20
7.36
9.33
11.18
12.89
14.39
15.65
16.69
17.58
18.43
19.37
20.49
21.84
23.43
25.22
27.09
28.92
30.46
31.51
31.81
31.22
29.76
27.62
25.13
22.71
20.61
18.93
17.54
16.19
14.65
12.84
10.84
8.80
6.89
5.12
3.43
1.72
-0.03
-1.73
-3.24
-4.46
-5.43
-6.30
-7.28
-8.50
-9.94
-11.45
-12.83
-13.99
-14.96
-15.94
-17.16
-18.79
-20.92
-23.52
-26.51
-29.78
-33.08
-36.07
-38.24
-39.04
-38.03
-35.06
-30.42
-24.70
-18.68
-12.98
-7.98
-3.78
-0.27
2.63
4.97
6.73
7.95
8.73
9.31
9.91
10.66
11.58
12.59
13.57
14.45
15.22
15.95
16.70
17.47
18.18
18.65
18.71
18.26
17.33
16.10
14.78
13.50
12.33
11.20
10.06
8.85
7.61
6.35
5.04
3.58
1.80
-0.35
-2.77
-5.22
-7.43
-9.25
-10.73
-12.09
-13.65
-15.64
-18.17
-21.18
-24.54
-28.02
-31.34
-34.09
-35.80
-36.02
-34.45
-31.09
-26.32
-20.75
-15.05
-9.77
-5.19
-1.32
2.01
5.00
7.78
10.34
12.58
14.40
15.76
16.73
17.46
18.14
18.89
19.74
20.64
21.48
22.18
22.74
23.20
23.63
24.04
24.36
24.46
24.24
23.63
22.69
21.55
20.37
19.28
18.30
17.38
16.38
15.22
13.93
12.62
11.46
10.51
9.71
8.86
7.73
6.17
4.24
2.16
0.23
-1.33
-2.50
-3.39
-4.23
-5.25
-6.59
-8.34
-10.47
-12.92
-15.55
-18.19
-20.68
-22.95
-25.00
-26.98
-29.08
-31.52
-34.42
-37.74
-41.19
-44.26
-46.26
-46.57
-44.78
-40.89
-35.30
-28.73
-21.98
-15.66
-10.11
-5.40
-1.42
1.93
4.72
7.01
8.88
10.46
11.92
13.39
14.91
16.40
17.76
18.93
19.95
20.86
21.72
22.51
23.15
23.58
23.77
23.76
23.58
23.21
22.61
21.71
20.48
18.96
17.25
15.44
13.58
11.71
9.85
8.07
6.44
4.98
3.64
2.24
0.64
-1.26
-3.42
-5.69
-7.89
-9.92
-11.86
-13.95
-16.51
-19.76
-23.66
-27.81
-31.55
-34.14
-35.01
-33.89
-30.90
-26.46
-21.13
-15.48
-10.01
-5.08
-0.87
2.58
5.42
7.85
10.08
12.19
14.15
15.85
17.25
18.34
19.27
20.15
21.09
22.10
23.14
24.15
25.03
25.73
26.19
26.41
26.39
26.18
25.84
25.43
25.01
24.60
24.20
23.79
23.31
22.68
21.86
20.85
19.71
18.51
17.33
16.19
15.12
14.11
13.16
12.30
11.50
10.64
9.59
8.20
6.46
4.49
2.55
0.90
-0.33
-1.19
-1.96
-2.95
-4.46
-6.63
-9.44
-12.69
-16.15
-19.54
-22.62
-25.21
-27.32
-29.15
-31.06
-33.40
-36.33
-39.56
-42.47
-44.20
-44.10
-41.93
-37.93
-32.74
-27.07
-21.55
-16.56
-12.25
-8.63
-5.61
-3.01
-0.64
1.75
4.30
7.05
9.85
12.46
14.63
16.21
17.20
17.72
17.96
18.10
18.27
18.54
18.92
19.38
19.88
20.32
20.61
20.63
20.33
19.73
18.95
18.14
17.42
16.82
16.25
15.56
14.60
13.33
11.79
10.11
8.45
6.91
5.51
4.22
2.94
1.64
0.31
-1.02
-2.32
-3.61
-4.98
-6.54
-8.35
-10.39
-12.54
-14.65
-16.67
-18.65
-20.79
-23.28
-26.14
-29.20
-32.00
-33.98
-34.61
-33.60
-30.90
-26.78
-21.71
-16.23
-10.87
-6.03
-1.97
1.28
3.83
5.88
7.65
9.25
10.75
12.13
13.36
14.45
15.40
16.28
17.13
17.96
18.73
19.38
19.84
20.12
20.24
20.29
20.36
20.44
20.49
20.37
19.99
19.33
18.48
17.60
16.79
16.07
15.37
14.56
13.59
12.50
11.39
10.37
9.49
8.73
7.99
7.19
6.28
5.24
4.08
2.79
1.38
-0.09
-1.57
-2.95
-4.19
-5.33
-6.46
-7.71
-9.20
-10.93
-12.85
-14.84
-16.83
-18.78
-20.67
-22.58
-24.56
-26.73
-29.20
-32.04
-35.18
-38.37
-41.09
-42.72
-42.75
-40.89
-37.22
-32.18
-26.40
-20.50
-14.98
-10.11
-5.99
-2.63
0.06
2.18
3.87
5.32
6.69
8.11
9.63
11.22
12.76
14.13
15.25
16.12
16.78
17.32
17.82
18.31
18.74
19.05
19.17
19.08
18.77
18.26
17.57
16.73
15.70
14.52
13.23
11.91
10.63
9.46
8.39
7.39
6.42
5.46
4.52
3.62
2.76
1.88
0.87
-0.41
-2.01
-3.90
-5.94
-8.00
-9.95
-11.74
-13.39
-14.92
-16.39
-17.83
-19.33
-21.06
-23.18
-25.86
-29.08
-32.58
-35.84
-38.21
-39.05
-38.00
-35.02
-30.47
-24.96
-19.15
-13.59
-8.65
-4.46
-1.01
1.78
4.02
5.82
7.31
8.60
9.79
10.95
12.09
13.15
14.06
14.80
15.43
16.06
16.79
17.67
18.65
19.60
20.34
20.76
20.79
20.47
19.91
19.20
18.42
17.60
16.75
15.83
14.86
13.88
12.94
12.08
11.30
10.50
9.59
8.54
7.41
6.30
5.30
4.40
3.49
2.43
1.12
-0.37
-1.91
-3.38
-4.75
-6.11
-7.61
-9.41
-11.53
-13.90
-16.37
-18.80
-21.12
-23.35
-25.61
-28.03
-30.75
-33.82
-37.13
-40.40
-43.14
-44.81
-44.91
-43.16
-39.56
-34.44
-28.36
-21.98
-15.90
-10.55
-6.11
-2.56
0.29
2.65
4.71
6.59
8.36
10.04
11.64
13.17
14.56
15.72
16.59
17.18
17.64
18.14
18.82
19.67
20.52
21.11
21.24
20.91
20.27
19.56
18.94
18.42
17.88
17.14
16.10
14.74
13.14
11.41
9.60
7.73
5.77
3.73
1.66
-0.39
-2.37
-4.26
-6.10
-7.92
-9.75
-11.62
-13.54
-15.54
-17.68
-20.04
-22.73
-25.83
-29.25
-32.72
-35.72
-37.61
-37.80
-35.97
-32.16
-26.81
-20.59
-14.25
-8.40
-3.40
0.67
3.98
6.76
9.26
11.61
13.78
15.68
17.21
18.40
19.35
20.19
20.97
21.67
22.20
22.55
22.83
23.20
23.81
24.68
25.60
26.28
26.43
25.93
24.87
23.43
21.86
20.35
19.00
17.87
16.98
16.29
15.71
15.12
14.45
13.63
12.69
11.65
10.60
9.57
8.59
7.69
6.83
5.95
4.95
3.74
2.27
0.58
-1.20
-2.90
-4.43
-5.80
-7.15
-8.63
-10.38
-12.44
-14.79
-17.34
-19.97
-22.58
-25.07
-27.39
-29.57
-31.79
-34.25
-37.16
-40.54
-44.11
-47.29
-49.32
-49.51
-47.47
-43.25
-37.32
-30.38
-23.19
-16.36
-10.30
-5.20
-1.10
2.10
4.60
6.65
8.48
10.28
12.15
14.08
15.97
17.73
19.28
20.60
21.72
22.68
23.54
24.32
25.01
25.55
25.89
26.00
25.82
25.34
24.55
23.49
22.23
20.89
19.63
18.53
17.57
16.64
15.59
14.28
12.73
11.00
9.25
7.61
6.11
4.74
3.46
2.21
0.94
-0.42
-1.95
-3.73
-5.79
-8.05
-10.33
-12.46
-14.36
-16.06
-17.75
-19.71
-22.17
-25.23
-28.80
-32.56
-35.95
-38.30
-38.97
-37.48
-33.72
-28.04
-21.13
-13.87
-7.08
-1.25
3.43
7.08
9.96
12.29
14.23
15.83
17.12
18.17
19.05
19.85
20.57
21.19
21.66
21.96
22.13
22.27
22.49
22.82
23.23
23.64
23.94
24.00
23.75
23.14
22.19
21.02
19.79
18.65
17.67
16.80
15.92
14.90
13.70
12.38
11.05
9.81
8.67
7.59
6.51
5.42
4.35
3.34
2.40
1.46
0.43
-0.76
-2.13
-3.66
-5.31
-7.06
-8.90
-10.86
-12.94
-15.08
-17.23
-19.33
-21.32
-23.24
-25.16
-27.22
-29.59
-32.41
-35.69
-39.30
-42.89
-45.94
-47.90
-48.28
-46.81
-43.51
-38.67
-32.79
-26.47
-20.25
-14.61
-9.79
-5.85
-2.68
-0.04
2.35
4.66
6.98
9.23
11.26
12.94
14.24
15.19
15.92
16.53
17.08
17.57
18.06
18.59
19.25
20.10
21.12
22.19
23.16
23.95
24.51
24.88
25.04
24.95
24.53
23.73
22.59
21.21
19.77
18.38
17.11
15.93
14.74
13.40
11.70
9.46
6.57
3.05
-0.88
-4.86
-8.58
-11.86
-14.79
-17.62
-20.62
-23.97
-27.67
-31.56
-35.48
-39.25
-42.76
-45.83
-48.19
-49.44
-49.18
-47.17
-43.40
-38.14
-31.83
-25.02
-18.19
-11.75
-6.00
-1.08
2.98
6.28
8.98
11.29
13.33
15.21
16.93
18.50
19.91
21.18
22.32
23.33
24.23
25.00
25.64
26.15
26.50
26.61
26.47
26.08
25.50
24.83
24.09
23.24
22.19
20.86
19.29
17.61
16.08
14.95
14.42
14.54
15.24
16.35
17.66
18.95
20.00
20.57
20.41
19.28
17.08
13.86
9.89
5.54
1.23
-2.81
-6.53
-10.03
-13.46
-16.87
-20.17
-23.22
-25.93
-28.35
-30.70
-33.20
-36.03
-39.15
-42.31
-45.10
-47.03
-47.64
-46.61
-43.85
-39.50
-33.97
-27.80
-21.54
-15.66
-10.43
-5.94
-2.15
0.99
3.57
5.66
7.35
8.79
10.10
11.43
12.83
14.28
15.71
17.00
18.04
18.81
19.37
19.87
20.45
21.17
21.94
22.58
22.87
22.71
22.12
21.20
20.09
18.83
17.38
15.70
13.84
11.94
10.23
8.89
7.98
7.42
7.04
6.68
6.25
5.71
5.00
4.11
3.01
1.72
0.32
-1.04
-2.26
-3.34
-4.40
-5.70
-7.52
-10.05
-13.36
-17.34
-21.71
-26.03
-29.75
-32.30
-33.24
-32.39
-29.91
-26.18
-21.73
-17.02
-12.37
-7.91
-3.66
0.30
3.85
6.83
9.11
10.69
11.72
12.41
12.96
13.53
14.13
14.73
15.29
15.83
16.42
17.16
18.08
19.12
20.11
20.87
21.25
21.19
20.74
20.00
19.10
18.12
17.11
16.09
15.02
13.82
12.47
10.93
9.24
7.52
5.89
4.48
3.36
2.47
1.67
0.81
-0.28
-1.58
-3.00
-4.41
-5.73
-7.00
-8.38
-10.03
-12.03
-14.28
-16.55
-18.59
-20.25
-21.56
-22.71
-23.97
-25.62
-27.82
-30.63
-33.90
-37.30
-40.29
-42.24
-42.58
-40.91
-37.23
-31.87
-25.44
-18.67
-12.21
-6.52
-1.80
1.95
4.88
7.20
9.14
10.88
12.57
14.27
16.00
17.67
19.17
20.35
21.10
21.43
21.44
21.32
21.25
21.33
21.55
21.84
22.08
22.18
22.09
21.79
21.24
20.41
19.29
17.95
16.50
15.08
13.80
12.68
11.69
10.77
9.90
9.07
8.26
7.40
6.37
5.09
3.56
1.91
0.37
-0.88
-1.82
-2.60
-3.52
-4.90
-6.94
-9.67
-12.89
-16.26
-19.39
-21.98
-23.89
-25.22
-26.27
-27.45
-29.12
-31.42
-34.08
-36.54
-38.05
-37.97
-36.03
-32.32
-27.29
-21.54
-15.69
-10.20
-5.44
-1.61
1.20
3.06
4.19
4.91
5.57
6.41
7.54
8.89
10.35
11.74
12.96
13.98
14.79
15.46
16.07
16.68
17.35
18.10
18.84
19.48
19.87
19.90
19.52
18.77
17.77
16.63
15.47
14.34
13.24
12.15
11.07
10.00
8.95
7.92
6.91
5.89
4.85
3.79
2.72
1.68
0.66
-0.39
-1.56
-2.96
-4.66
-6.60
-8.64
-10.60
-12.34
-13.81
-15.14
-16.51
-18.13
-20.17
-22.68
-25.62
-28.78
-31.79
-34.15
-35.28
-34.78
-32.48
-28.60
-23.63
-18.20
-12.86
-8.05
-3.99
-0.73
1.80
3.78
5.44
6.97
8.52
10.10
11.65
13.04
14.20
15.14
15.90
16.56
17.17
17.73
18.26
18.77
19.24
19.64
19.90
19.98
19.84
19.51
19.01
18.36
17.54
16.56
15.43
14.25
13.12
12.08
11.10
10.09
8.93
7.56
6.02
4.45
2.98
1.67
0.49
-0.64
-1.84
-3.21
-4.77
-6.53
-8.42
-10.38
-12.35
-14.28
-16.18
-18.08
-20.09
-22.28
-24.68
-27.25
-29.79
-32.02
-33.57
-34.04
-33.15
-30.76
-26.99
-22.20
-16.92
-11.71
-7.04
-3.18
-0.18
2.08
3.82
5.21
6.40
7.44
8.39
9.29
10.17
11.08
12.01
12.97
13.93
14.88
15.82
16.72
17.52
18.15
18.51
18.54
18.21
17.55
16.65
15.64
14.68
13.87
13.22
12.62
11.88
10.78
9.20
7.21
5.03
2.96
1.24
-0.07
-1.08
-1.99
-3.06
-4.44
-6.21
-8.32
-10.63
-12.96
-15.12
-17.01
-18.68
-20.30
-22.14
-24.43
-27.28
-30.53
-33.77
-36.38
-37.73
-37.37
-35.13
-31.22
-26.13
-20.47
-14.82
-9.61
-5.04
-1.21
1.94
4.46
6.47
8.07
9.39
10.56
11.63
12.69
13.79
15.02
16.39
17.88
19.33
20.56
21.43
21.89
22.02
21.98
21.92
21.90
21.86
21.69
21.28
20.61
19.74
18.79
17.86
17.00
16.16
15.26
14.23
13.11
11.99
11.00
10.25
9.68
9.15
8.47
7.51
6.23
4.73
3.14
1.54
0.01
-1.42
-2.74
-3.95
-5.13
-6.39
-7.89
-9.74
-11.89
-14.20
-16.43
-18.42
-20.17
-21.84
-23.69
-25.93
-28.64
-31.71
-34.90
-37.84
-40.11
-41.23
-40.81
-38.63
-34.75
-29.52
-23.55
-17.48
-11.86
-6.98
-2.93
0.39
3.10
5.33
7.16
8.65
9.85
10.80
11.56
12.18
12.74
13.32
14.03
14.90
15.93
17.04
18.12
19.10
19.95
20.63
21.12
21.38
21.34
20.97
20.29
19.38
18.38
17.44
16.62
15.91
15.20
14.40
13.44
12.33
11.14
9.92
8.72
7.49
6.21
4.86
3.50
2.21
1.06
0.05
-0.93
-2.07
-3.54
-5.46
-7.77
-10.30
-12.79
-15.04
-16.97
-18.68
-20.34
-22.14
-24.23
-26.66
-29.41
-32.44
-35.61
-38.64
-41.05
-42.28
-41.80
-39.30
-34.86
-29.00
-22.45
-16.01
-10.29
-5.56
-1.81
1.18
3.69
5.93
8.02
10.01
11.90
13.70
15.46
17.15
18.74
20.15
21.25
22.00
22.40
22.57
22.68
22.88
23.25
23.77
24.28
24.62
24.65
24.30
23.57
22.54
21.29
19.89
18.39
16.82
15.21
13.63
12.12
10.69
9.36
8.08
6.84
5.59
4.31
2.98
1.53
-0.09
-1.90
-3.88
-5.98
-8.13
-10.27
-12.42
-14.59
-16.80
-19.03
-21.28
-23.63
-26.22
-29.27
-32.89
-36.96
-41.04
-44.47
-46.48
-46.51
-44.31
-40.07
-34.30
-27.71
-21.06
-14.99
-9.90
-5.92
-2.92
-0.61
1.34
3.22
5.18
7.25
9.38
11.48
13.48
15.30
16.86
18.13
19.09
19.79
20.36
20.91
21.52
22.18
22.81
23.31
23.57
23.56
23.26
22.70
21.93
21.01
19.99
18.92
17.84
16.76
15.68
14.59
13.49
12.41
11.36
10.40
9.55
8.82
8.22
7.67
7.09
6.40
5.53
4.48
3.29
2.03
0.75
-0.55
-1.91
-3.39
-5.01
-6.77
-8.58
-10.35
-12.01
-13.56
-15.11
-16.86
-19.11
-22.10
-25.90
-30.29
-34.74
-38.43
-40.57
-40.54
-38.18
-33.76
-27.92
-21.47
-15.10
-9.32
-4.40
-0.37
2.90
5.61
7.98
10.21
12.33
14.26
15.80
16.78
17.15
17.03
16.67
16.35
16.27
16.52
17.06
17.79
18.56
19.22
19.59
19.58
19.16
18.37
17.36
16.27
15.22
14.23
13.29
12.31
11.20
9.92
8.44
6.81
5.10
3.46
1.97
0.66
-0.53
-1.75
-3.08
-4.50
-5.89
-7.06
-7.95
-8.65
-9.48
-10.82
-12.96
-15.97
-19.68
-23.76
-27.74
-31.12
-33.36
-34.02
-32.80
-29.76
-25.36
-20.30
-15.33
-10.99
-7.42
-4.50
-1.94
0.49
2.82
4.98
6.85
8.37
9.57
10.54
11.38
12.18
12.99
13.89
14.94
16.17
17.61
19.17
20.73
22.10
23.07
23.54
23.50
23.09
22.47
21.78
21.07
20.31
19.48
18.54
17.54
16.51
15.48
14.46
13.46
12.52
11.67
10.93
10.16
9.22
7.96
6.35
4.53
2.68
0.97
-0.56
-2.02
-3.56
-5.29
-7.20
-9.20
-11.17
-13.07
-14.92
-16.80
-18.81
-21.00
-23.45
-26.28
-29.58
-33.39
-37.54
-41.59
-44.88
-46.69
-46.44
-43.96
-39.47
-33.58
-27.05
-20.57
-14.60
-9.36
-4.88
-1.10
2.03
4.56
6.58
8.24
9.73
11.21
12.76
14.34
15.84
17.11
18.11
18.88
19.55
20.21
20.90
21.54
22.02
22.27
22.26
22.04
21.62
20.99
20.15
19.09
17.87
16.59
15.33
14.10
12.88
11.62
10.33
9.03
7.79
6.67
5.65
4.68
3.66
2.50
1.11
-0.58
-2.60
-4.92
-7.38
-9.78
-11.94
-13.76
-15.35
-16.95
-18.85
-21.30
-24.37
-28.01
-31.92
-35.70
-38.80
-40.67
-40.83
-39.07
-35.48
-30.45
-24.56
-18.38
-12.38
-6.84
-1.95
2.20
5.55
8.12
10.04
11.49
12.70
13.87
15.08
16.37
17.71
19.03
20.25
21.29
22.14
22.80
23.34
23.85
24.36
24.83
25.17
25.24
25.00
24.43
23.64
22.74
21.77
20.74
19.59
18.26
16.73
15.05
13.35
11.84
10.68
9.92
9.53
9.27
8.91
8.19
7.03
5.50
3.78
2.06
0.45
-1.09
-2.70
-4.54
-6.72
-9.24
-11.99
-14.82
-17.58
-20.18
-22.59
-24.88
-27.22
-29.87
-33.05
-36.82
-40.98
-44.99
-48.08
-49.45
-48.53
-45.17
-39.74
-32.93
-25.61
-18.54
-12.23
-6.87
-2.43
1.29
4.49
7.30
9.78
11.96
13.88
15.57
17.08
18.45
19.71
20.83
21.83
22.72
23.56
24.38
25.18
25.84
26.23
26.22
25.79
25.05
24.15
23.27
22.47
21.73
20.99
20.19
19.30
18.30
17.18
15.91
14.49
12.98
11.47
10.08
8.88
7.84
6.82
5.68
4.27
2.60
0.75
-1.10
-2.85
-4.50
-6.14
-7.95
-10.04
-12.38
-14.79
-17.05
-19.03
-20.76
-22.51
-24.59
-27.30
-30.73
-34.71
-38.82
-42.49
-45.02
-45.81
-44.45
-40.88
-35.47
-28.88
-21.92
-15.32
-9.50
-4.63
-0.62
2.68
5.41
7.66
9.49
11.00
12.30
13.48
14.61
15.73
16.80
17.86
18.92
19.97
20.99
21.88
22.58
23.04
23.29
23.36
23.28
22.98
22.40
21.49
20.31
18.98
17.64
16.35
15.03
13.51
11.66
9.46
7.05
4.67
2.55
0.82
-0.55
-1.75
-3.03
-4.64
-6.68
-9.12
-11.76
-14.33
-16.63
-18.62
-20.50
-22.56
-25.13
-28.38
-32.26
-36.43
-40.34
-43.33
-44.76
-44.19
-41.39
-36.50
-29.98
-22.58
-15.09
-8.28
-2.63
1.71
4.91
7.32
9.38
11.42
13.62
15.96
18.28
20.37
22.04
23.21
23.92
24.34
24.65
25.05
25.64
26.45
27.38
28.30
29.03
29.46
29.53
29.25
28.67
27.83
26.77
25.54
24.17
22.73
21.31
20.00
18.82
17.71
16.58
15.35
13.99
12.55
11.18
9.94
8.89
7.94
6.97
5.84
4.49
2.90
1.17
-0.60
-2.32
-3.96
-5.56
-7.18
-8.93
-10.84
-12.93
-15.11
-17.30
-19.43
-21.46
-23.47
-25.55
-27.85
-30.52
-33.61
-37.04
-40.54
-43.61
-45.57
-45.78
-43.81
-39.61
-33.59
-26.47
-19.11
-12.22
-6.28
-1.46
2.30
5.19
7.39
9.05
10.24
11.02
11.50
11.79
12.11
12.64
13.55
14.85
16.44
18.11
19.62
20.77
21.47
21.76
21.75
21.60
21.39
21.12
20.69
19.97
18.87
17.45
15.80
14.10
12.43
10.77
9.03
7.14
5.10
3.01
1.02
-0.81
-2.51
-4.22
-6.08
-8.16
-10.40
-12.64
-14.75
-16.67
-18.52
-20.52
-22.91
-25.85
-29.33
-33.13
-36.83
-39.83
-41.50
-41.33
-39.10
-34.92
-29.28
-22.83
-16.28
-10.20
-4.91
-0.49
3.16
6.25
8.95
11.38
13.59
15.55
17.20
18.51
19.53
20.33
21.04
21.74
22.45
23.16
23.79
24.29
24.67
24.99
25.31
25.68
26.02
26.21
26.06
25.45
24.38
23.00
21.59
20.37
19.48
18.83
18.21
17.40
16.23
14.68
12.88
11.01
9.26
7.80
6.68
5.86
5.21
4.53
3.64
2.45
0.98
-0.68
-2.42
-4.22
-6.16
-8.33
-10.76
-13.36
-15.94
-18.33
-20.45
-22.38
-24.30
-26.46
-29.05
-32.17
-35.79
-39.66
-43.32
-46.11
-47.39
-46.68
-43.88
-39.28
-33.49
-27.17
-20.91
-15.08
-9.88
-5.36
-1.54
1.56
3.93
5.59
6.64
7.20
7.43
7.47
7.43
7.33
7.20
7.04
6.90
6.92
7.25
8.04
9.42
11.40
13.93
16.81
19.81
22.65
25.09
26.98
28.27
28.98
29.15
28.73
27.63
25.79
23.23
20.15
16.88
13.74
10.95
8.50
6.21
3.83
1.14
-1.89
-5.17
-8.51
-11.71
-14.68
-17.39
-19.86
-22.15
-24.34
-26.54
-28.89
-31.48
-34.24
-36.90
-39.02
-40.09
-39.70
-37.72
-34.28
-29.72
-24.41
-18.68
-12.80
-7.07
-1.79
2.68
6.12
8.47
9.91
10.76
11.30
11.71
12.02
12.16
12.13
12.03
12.03
12.33
13.06
14.26
15.91
17.95
20.32
22.88
25.44
27.74
29.51
30.58
30.90
30.56
29.64
28.21
26.28
23.78
20.72
17.19
13.43
9.75
6.47
3.80
1.78
0.32
-0.80
-1.80
-2.88
-4.15
-5.65
-7.35
-9.16
-10.99
-12.77
-14.46
-16.08
-17.69
-19.34
-21.10
-22.96
-24.89
-26.77
-28.46
-29.82
-30.79
-31.43
-31.94
-32.53
-33.32
-34.20
-34.75
-34.40
-32.58
-28.98
-23.64
-16.98
-9.66
-2.35
4.36
10.11
14.75
18.28
20.82
22.49
23.46
23.84
23.81
23.49
23.04
22.52
21.92
21.12
20.00
18.48
16.61
14.52
12.41
10.40
8.57
6.93
5.53
4.43
3.74
3.54
3.83
4.50
5.37
6.26
7.02
7.58
7.87
7.89
7.63
7.13
6.45
5.66
4.90
4.23
3.71
3.28
2.84
2.25
1.41
0.27
-1.09
-2.50
-3.82
-5.02
-6.18
-7.49
-9.11
-11.05
-13.19
-15.33
-17.33
-19.24
-21.24
-23.57
-26.39
-29.65
-33.09
-36.24
-38.60
-39.74
-39.40
-37.53
-34.28
-29.99
-25.09
-20.03
-15.22
-10.99
-7.51
-4.80
-2.73
-1.03
0.56
2.24
4.06
5.91
7.69
9.30
10.74
12.10
13.50
15.00
16.54
18.06
19.45
20.67
21.69
22.50
23.02
23.12
22.70
21.71
20.28
18.69
17.27
16.33
16.02
16.24
16.72
17.08
17.03
16.41
15.26
13.73
12.00
10.23
8.50
6.80
5.15
3.56
2.10
0.79
-0.39
-1.58
-2.97
-4.72
-6.89
-9.37
-11.96
-14.41
-16.61
-18.59
-20.52
-22.62
-25.06
-27.91
-31.15
-34.62
-38.03
-40.96
-42.88
-43.26
-41.75
-38.26
-33.08
-26.81
-20.17
-13.85
-8.32
-3.78
-0.16
2.75
5.22
7.45
9.54
11.49
13.26
14.80
16.10
17.18
18.08
18.86
19.54
20.16
20.75
21.34
21.92
22.49
22.96
23.28
23.35
23.14
22.62
21.78
20.66
19.36
17.99
16.67
15.46
14.32
13.14
11.81
10.30
8.71
7.30
6.34
6.00
6.27
6.97
7.79
8.48
8.87
8.90
8.55
7.81
6.59
4.78
2.37
-0.57
-3.80
-7.00
-9.92
-12.42
-14.52
-16.34
-18.06
-19.78
-21.63
-23.75
-26.33
-29.52
-33.32
-37.40
-41.11
-43.61
-44.11
-42.22
-38.05
-32.21
-25.59
-19.06
-13.28
-8.52
-4.78
-1.89
0.36
2.13
3.51
4.58
5.41
6.07
6.66
7.24
7.88
8.67
9.70
11.08
12.93
15.35
18.32
21.67
25.12
28.25
30.62
31.93
32.07
31.17
29.55
27.56
25.49
23.45
21.46
19.49
17.55
15.75
14.23
13.09
12.34
11.87
11.51
11.07
10.42
9.53
8.42
7.18
5.91
4.68
3.57
2.63
1.93
1.47
1.20
0.96
0.59
-0.08
-1.08
-2.34
-3.66
-4.88
-5.95
-6.97
-8.12
-9.56
-11.33
-13.34
-15.45
-17.54
-19.60
-21.71
-24.03
-26.71
-29.84
-33.41
-37.23
-40.87
-43.75
-45.17
-44.60
-41.81
-37.02
-30.87
-24.15
-17.62
-11.77
-6.78
-2.56
1.09
4.37
7.39
10.14
12.55
14.58
16.21
17.48
18.50
19.36
20.16
20.95
21.77
22.65
23.62
24.70
25.84
26.91
27.73
28.14
28.05
27.48
26.57
25.48
24.38
23.35
22.43
21.56
20.69
19.72
18.58
17.27
15.83
14.40
13.09
11.95
10.93
9.88
8.63
7.09
5.29
3.39
1.54
-0.16
-1.77
-3.44
-5.33
-7.55
-10.09
-12.79
-15.41
-17.79
-19.86
-21.72
-23.63
-25.89
-28.71
-32.10
-35.80
-39.28
-41.86
-42.86
-41.82
-38.61
-33.53
-27.18
-20.30
-13.62
-7.64
-2.63
1.38
4.51
6.94
8.81
10.25
11.31
12.06
12.63
13.15
13.76
14.54
15.49
16.56
17.65
18.73
19.78
20.81
21.81
22.73
23.46
23.88
23.91
23.54
22.81
21.79
20.56
19.19
17.72
16.24
14.81
13.50
12.33
11.28
10.26
9.12
7.77
6.15
4.33
2.47
0.76
-0.65
-1.75
-2.68
-3.65
-4.89
-6.56
-8.60
-10.86
-13.13
-15.31
-17.44
-19.70
-22.31
-25.40
-29.01
-32.99
-37.10
-40.89
-43.85
-45.41
-45.08
-42.69
-38.38
-32.67
-26.26
-19.82
-13.80
-8.43
-3.74
0.34
3.85
6.85
9.45
11.78
13.98
16.16
18.28
20.22
21.82
22.98
23.69
24.08
24.33
24.61
25.05
25.66
26.39
27.15
27.81
28.23
28.27
27.81
26.79
25.28
23.43
21.50
19.69
18.14
16.87
15.75
14.65
13.45
12.12
10.74
9.38
8.16
7.13
6.26
5.45
4.56
3.45
2.08
0.50
-1.17
-2.75
-4.16
-5.39
-6.51
-7.65
-8.89
-10.27
-11.75
-13.28
-14.83
-16.37
-17.92
-19.51
-21.20
-23.09
-25.29
-27.91
-30.99
-34.35
-37.57
-40.03
-41.11
-40.37
-37.71
-33.44
-28.15
-22.50
-17.03
-12.07
-7.78
-4.15
-1.14
1.33
3.35
5.06
6.57
7.98
9.28
10.43
11.35
12.03
12.50
12.91
13.37
14.01
14.83
15.75
16.67
17.50
18.14
18.58
18.77
18.73
18.45
17.92
17.14
16.11
14.84
13.35
11.68
9.95
8.26
6.70
5.31
4.02
2.70
1.25
-0.39
-2.18
-4.05
-5.92
-7.73
-9.51
-11.25
-12.97
-14.69
-16.48
-18.47
-20.85
-23.69
-26.95
-30.27
-33.11
-34.84
-34.93
-33.18
-29.74
-25.05
-19.71
-14.29
-9.26
-4.84
-1.06
2.19
5.06
7.70
10.15
12.36
14.25
15.74
16.82
17.58
18.12
18.58
19.04
19.60
20.27
21.08
22.00
22.98
23.93
24.75
25.35
25.68
25.71
25.45
24.92
24.16
23.24
22.20
21.09
19.89
18.51
16.92
15.11
13.15
11.19
9.36
7.74
6.30
4.90
3.42
1.75
-0.12
-2.12
-4.14
-6.08
-7.91
-9.69
-11.48
-13.36
-15.38
-17.48
-19.59
-21.60
-23.40
-24.96
-26.37
-27.78
-29.46
-31.60
-34.25
-37.22
-40.04
-42.08
-42.69
-41.47
-38.35
-33.62
-27.86
-21.74
-15.90
-10.74
-6.47
-3.10
-0.51
1.43
2.90
4.05
5.02
5.96
6.96
8.05
9.19
10.27
11.19
11.92
12.49
13.02
13.60
14.26
14.98
15.66
16.25
16.67
16.92
16.97
16.78
16.30
15.53
14.51
13.36
12.21
11.14
10.10
8.95
7.55
5.83
3.93
2.06
0.48
-0.67
-1.46
-2.11
-2.95
-4.22
-6.00
-8.23
-10.72
-13.23
-15.62
-17.81
-19.87
-21.93
-24.13
-26.59
-29.38
-32.55
-36.08
-39.86
-43.61
-46.84
-48.85
-48.94
-46.64
-41.99
-35.56
-28.32
-21.28
-15.17
-10.21
-6.19
-2.71
0.57
3.76
6.76
9.43
11.74
13.82
15.88
18.02
20.17
22.09
23.53
24.35
24.69
24.86
25.27
26.19
27.68
29.57
31.56
33.31
34.56
35.13
34.97
34.09
32.59
30.63
28.43
26.20
24.13
22.35
20.87
19.63
18.53
17.41
16.17
14.72
13.04
11.14
9.08
6.95
4.87
2.92
1.12
-0.56
-2.24
-4.01
-5.94
-8.04
-10.24
-12.46
-14.63
-16.70
-18.65
-20.46
-22.17
-23.85
-25.62
-27.67
-30.18
-33.25
-36.75
-40.34
-43.41
-45.25
-45.23
-43.00
-38.64
-32.63
-25.77
-18.93
-12.78
-7.70
-3.73
-0.70
1.69
3.66
5.41
7.01
8.47
9.81
10.99
12.03
12.95
13.81
14.70
15.64
16.62
17.59
18.45
19.17
19.81
20.41
20.97
21.37
21.40
20.84
19.63
17.91
15.96
14.11
12.50
11.10
9.71
8.14
6.28
4.18
1.95
-0.29
-2.49
-4.65
-6.81
-9.00
-11.26
-13.66
-16.28
-19.27
-22.67
-26.33
-29.85
-32.64
-34.05
-33.60
-31.12
-26.88
-21.43
-15.46
-9.61
-4.30
0.29
4.16
7.41
10.09
12.23
13.84
14.96
15.73
16.37
17.08
18.02
19.19
20.47
21.64
22.50
22.96
23.10
23.12
23.24
23.59
24.14
24.74
25.15
25.23
24.95
24.41
23.75
23.08
22.36
21.52
20.43
19.09
17.60
16.13
14.85
13.81
12.95
12.12
11.15
9.98
8.65
7.23
5.81
4.38
2.90
1.30
-0.41
-2.16
-3.87
-5.49
-7.07
-8.74
-10.62
-12.76
-15.06
-17.36
-19.45
-21.25
-22.87
-24.55
-26.62
-29.34
-32.78
-36.72
-40.61
-43.73
-45.37
-44.96
-42.31
-37.63
-31.42
-24.40
-17.27
-10.65
-4.91
-0.21
3.48
6.34
8.62
10.55
12.32
14.02
15.70
17.32
18.84
20.21
21.38
22.32
23.03
23.54
23.89
24.15
24.36
24.49
24.44
24.12
23.46
22.46
21.22
19.87
18.55
17.34
16.25
15.23
14.24
13.23
12.21
11.18
10.11
8.99
7.76
6.42
4.99
3.57
2.26
1.13
0.18
-0.64
-1.50
-2.51
-3.78
-5.38
-7.27
-9.35
-11.47
-13.48
-15.29
-16.92
-18.50
-20.29
-22.50
-25.23
-28.33
-31.40
-33.88
-35.19
-34.89
-32.83
-29.14
-24.22
-18.59
-12.81
-7.32
-2.45
1.59
4.77
7.13
8.81
9.98
10.88
11.69
12.54
13.49
14.47
15.38
16.09
16.56
16.80
16.93
17.06
17.30
17.68
18.16
18.64
18.95
18.95
18.56
17.79
16.73
15.55
14.41
13.41
12.56
11.74
10.86
9.81
8.58
7.25
5.93
4.71
3.66
2.78
2.01
1.26
0.44
-0.49
-1.52
-2.61
-3.73
-4.89
-6.18
-7.72
-9.57
-11.70
-13.94
-16.09
-17.96
-19.50
-20.79
-22.02
-23.40
-25.06
-27.07
-29.34
-31.69
-33.79
-35.21
-35.49
-34.29
-31.52
-27.40
-22.40
-17.09
-11.93
-7.23
-3.10
0.42
3.35
5.72
7.56
8.95
10.00
10.80
11.40
11.87
12.25
12.63
13.06
13.59
14.18
14.76
15.31
15.85
16.47
17.20
17.99
18.71
19.20
19.37
19.21
18.78
18.14
17.28
16.17
14.80
13.24
11.64
10.16
8.92
7.94
7.17
6.52
5.92
5.29
4.56
3.65
2.54
1.24
-0.11
-1.38
-2.46
-3.35
-4.17
-5.13
-6.42
-8.12
-10.15
-12.31
-14.34
-16.08
-17.43
-18.48
-19.46
-20.67
-22.38
-24.71
-27.53
-30.38
-32.60
-33.49
-32.58
-29.79
-25.47
-20.29
-14.97
-10.13
-6.10
-2.96
-0.64
1.02
2.16
2.92
3.44
3.85
4.27
4.77
5.33
5.91
6.37
6.64
6.69
6.59
6.49
6.57
6.92
7.48
8.07
8.42
8.34
7.77
6.76
5.49
4.14
2.85
1.65
0.49
-0.74
-2.14
-3.79
-5.65
-7.61
-9.50
-11.19
-12.68
-14.11
-15.70
-17.68
-20.11
-22.86
-25.60
-27.89
-29.27
-29.42
-28.18
-25.57
-21.84
-17.38
-12.64
-8.08
-4.04
-0.74
1.79
3.63
4.93
5.89
6.66
7.39
8.11
8.84
9.50
10.00
10.28
10.34
10.21
10.03
9.89
9.84
9.90
9.98
9.94
9.61
8.84
7.56
5.80
3.71
1.47
-0.75
-2.85
-4.84
-6.84
-9.08
-11.77
-15.05
-18.85
-22.82
-26.34
-28.68
-29.22
-27.70
-24.32
-19.61
-14.29
-8.95
-4.01
0.40
4.22
7.50
10.24
12.49
14.32
15.88
17.29
18.60
19.76
20.69
21.32
21.71
22.00
22.38
22.99
23.85
24.85
25.82
26.58
27.02
27.16
27.08
26.88
26.67
26.49
26.33
26.15
25.91
25.58
25.16
24.64
24.04
23.34
22.54
21.68
20.85
20.17
19.74
19.57
19.55
19.51
19.33
18.97
18.56
18.29
18.25
18.38
18.41
17.98
16.80
14.72
11.62
7.30
1.40
-6.43
-16.28
-27.65
-39.38
-49.95
-58.00
-62.89
-64.90
-65.07
-64.70
-64.74
-65.57
-67.02
-68.78
-70.62
-72.51
-74.38
-75.96
-76.71
-75.93
-73.23
-68.67
-62.64
-55.58
-47.54
-38.10
-26.75
-13.44
0.93
14.61
25.60
32.57
35.43
35.26
33.73
32.31
31.78
32.26
33.52
35.35
37.74
40.65
43.86
46.88
49.18
50.41
50.68
50.40
50.10
50.08
50.32
50.59
50.52
49.80
48.21
45.72
42.43
38.56
34.44
30.38
26.60
23.20
20.15
17.36
14.78
12.41
10.32
8.53
7.00
5.67
4.39
3.05
1.49
-0.45
-2.84
-5.72
-9.05
-12.83
-17.06
-21.66
-26.24
-30.10
-32.34
-32.39
-30.41
-27.39
-24.76
-23.60
-24.01
-24.88
-24.44
-21.08
-14.03
-3.55
9.55
24.53
41.03
58.84
77.33
95.07
110.07
120.55
125.73
126.18
123.12
117.30
108.22
94.35
74.48
49.24
21.73
-3.33
-21.72
-31.63
-34.47
-33.79
-33.31
-35.07
-38.85
-43.03
-45.97
-47.15
-47.21
-47.21
-47.72
-48.37
-48.16
-46.16
-42.19
-37.00
-31.93
-28.38
-27.08
-27.90
-29.91
-31.87
-32.75
-32.14
-30.28
-27.90
-25.77
-24.39
-23.90
-24.03
-24.39
-24.61
-24.49
-24.03
-23.41
-22.85
-22.53
-22.48
-22.59
-22.62
-22.32
-21.55
-20.37
-18.99
-17.64
-16.36
-14.95
-13.07
-10.43
-6.99
-3.10
0.64
3.60
5.36
5.76
4.89
2.98
0.38
-2.49
-5.01
-6.55
-6.58
-4.98
-2.10
1.30
4.36
6.43
7.25
6.86
5.56
3.66
1.47
-0.64
-2.36
-3.44
-3.91
-4.09
-4.50
-5.58
-7.43
-9.70
-11.73
-12.85
-12.74
-11.55
-9.91
-8.58
-8.18
-8.88
-10.38
-12.12
-13.50
-14.20
-14.31
-14.26
-14.50
-15.35
-16.75
-18.40
-19.84
-20.71
-20.79
-19.98
-18.22
-15.46
-11.66
-6.95
-1.64
3.76
8.68
12.68
15.63
17.67
19.19
20.60
22.20
24.13
26.35
28.73
31.08
33.20
34.94
36.19
37.01
37.53
38.01
38.66
39.56
40.55
41.29
41.42
40.70
39.12
36.89
34.30
31.58
28.81
25.97
22.98
19.83
16.60
13.42
10.43
7.69
5.18
2.91
0.92
-0.69
-1.76
-2.22
-2.11
-1.62
-1.03
-0.59
-0.41
-0.42
-0.46
-0.35
-0.12
0.07
-0.05
-0.68
-1.84
-3.38
-5.08
-6.77
-8.43
-10.19
-12.22
-14.63
-17.34
-20.13
-22.55
-24.13
-24.44
-23.26
-20.66
-17.01
-12.84
-8.68
-4.90
-1.69
0.89
2.87
4.24
5.03
5.30
5.14
4.64
3.89
2.94
1.84
0.67
-0.45
-1.41
-2.11
-2.50
-2.58
-2.42
-2.16
-2.00
-2.20
-2.97
-4.41
-6.46
-8.90
-11.45
-13.84
-15.92
-17.64
-19.04
-20.21
-21.26
-22.29
-23.34
-24.39
-25.33
-26.05
-26.44
-26.49
-26.27
-25.92
-25.60
-25.44
-25.52
-25.84
-26.35
-26.95
-27.51
-27.97
-28.33
-28.66
-29.10
-29.78
-30.81
-32.24
-34.05
-36.02
-37.82
-38.96
-38.99
-37.58
-34.70
-30.59
-25.71
-20.51
-15.42
-10.69
-6.46
-2.77
0.40
3.10
5.42
7.44
9.21
10.75
12.03
13.04
13.82
14.43
14.96
15.51
16.16
16.97
17.94
19.05
20.17
21.17
21.87
22.16
22.01
21.49
20.76
19.98
19.28
18.70
18.20
17.70
17.13
16.43
15.62
14.73
13.86
13.07
12.45
12.01
11.71
11.42
11.01
10.31
9.28
7.93
6.39
4.83
3.38
2.09
0.94
-0.15
-1.29
-2.60
-4.16
-5.98
-8.01
-10.15
-12.29
-14.34
-16.30
-18.26
-20.36
-22.68
-25.21
-27.72
-29.87
-31.21
-31.36
-30.14
-27.55
-23.80
-19.24
-14.28
-9.30
-4.65
-0.63
2.59
4.95
6.56
7.66
8.52
9.33
10.15
10.89
11.46
11.83
12.14
12.57
13.29
14.31
15.49
16.65
17.64
18.43
19.09
19.65
20.10
20.32
20.19
19.66
18.79
17.70
16.56
15.46
14.39
13.24
11.92
10.39
8.67
6.89
5.18
3.66
2.35
1.19
0.04
-1.22
-2.65
-4.26
-5.95
-7.67
-9.38
-11.13
-13.03
-15.21
-17.75
-20.63
-23.66
-26.47
-28.54
-29.39
-28.63
-26.16
-22.22
-17.26
-11.86
-6.57
-1.80
2.25
5.52
8.04
9.94
11.35
12.42
13.30
14.09
14.89
15.72
16.58
17.44
18.27
19.03
19.72
20.36
20.96
21.51
22.01
22.49
22.94
23.38
23.75
23.96
23.88
23.40
22.52
21.33
20.01
18.71
17.54
16.50
15.50
14.46
13.34
12.21
11.13
10.21
9.48
8.91
8.42
7.86
7.14
6.20
5.11
3.98
2.95
2.10
1.38
0.62
-0.36
-1.68
-3.37
-5.31
-7.34
-9.32
-11.16
-12.83
-14.37
-15.82
-17.29
-18.92
-20.85
-23.22
-25.92
-28.66
-30.90
-32.05
-31.67
-29.64
-26.14
-21.61
-16.58
-11.53
-6.82
-2.68
0.76
3.48
5.57
7.16
8.40
9.41
10.25
10.94
11.48
11.96
12.47
13.07
13.77
14.52
15.22
15.85
16.37
16.83
17.25
17.59
17.82
17.86
17.68
17.25
16.56
15.61
14.48
13.22
11.97
10.81
9.79
8.91
8.07
7.20
6.26
5.25
4.20
3.16
2.17
1.24
0.34
-0.57
-1.55
-2.69
-4.02
-5.56
-7.25
-8.99
-10.68
-12.25
-13.70
-15.09
-16.53
-18.13
-19.95
-21.94
-23.95
-25.63
-26.62
-26.55
-25.25
-22.74
-19.31
-15.32
-11.15
-7.09
-3.30
0.12
3.07
5.47
7.23
8.35
8.89
8.99
8.81
8.55
8.34
8.32
8.58
9.14
9.98
11.03
12.15
13.23
14.21
15.03
15.67
16.12
16.33
16.27
15.93
15.34
14.56
13.67
12.69
11.67
10.61
9.52
8.44
7.42
6.52
5.78
5.21
4.77
4.39
3.92
3.25
2.33
1.21
0.05
-0.98
-1.81
-2.49
-3.17
-4.01
-5.13
-6.51
-8.03
-9.56
-11.01
-12.40
-13.74
-15.07
-16.41
-17.79
-19.25
-20.89
-22.80
-25.11
-27.93
-31.20
-34.63
-37.81
-40.36
-41.99
-42.50
-41.84
-40.08
-37.50
-34.26
-30.47
-26.43
-22.69
-19.86
-18.37
-18.21
-19.07
-20.63
-22.18
-22.99
-22.74
-21.69
-20.45
-19.57
-19.20
-19.01
-18.52
-16.26
-10.44
0.31
16.21
36.30
58.96
82.50
105.65
125.22
137.94
142.39
140.32
135.13
129.25
123.12
115.79
108.08
98.57
87.41
75.98
65.83
57.63
50.77
43.64
34.29
21.53
4.57
-15.68
-37.29
-58.01
-76.03
-90.26
-100.28
-106.28
-109.17
-110.79
-112.74
-115.99
-120.44
-124.81
-126.93
-124.57
-116.33
-102.31
-84.32
-64.60
-45.00
-26.33
-8.50
9.08
26.81
44.53
61.51
76.70
89.32
99.05
105.94
110.21
112.01
111.36
108.20
102.65
95.07
86.17
76.83
67.80
59.47
51.77
44.35
36.82
29.01
21.08
13.43
6.55
0.72
-4.04
-7.98
-11.51
-14.98
-18.60
-22.40
-26.24
-29.95
-33.40
-36.53
-39.43
-42.13
-44.66
-46.92
-48.78
-50.11
-50.87
-51.09
-50.85
-50.23
-49.29
-48.09
-46.72
-45.30
-43.93
-42.67
-41.51
-40.35
-39.15
-37.90
-36.67
-35.56
-34.68
-34.11
-33.89
-34.05
-34.63
-35.70
-37.23
-39.05
-40.82
-42.05
-42.25
-41.12
-38.61
-34.91
-30.39
-25.42
-20.30
-15.28
-10.51
-6.16
-2.37
0.80
3.36
5.44
7.18
8.72
10.09
11.32
12.40
13.36
14.26
15.13
15.95
16.70
17.31
17.76
18.04
18.20
18.26
18.25
18.15
17.97
17.68
17.32
16.93
16.55
16.22
15.92
15.59
15.14
14.51
13.72
12.90
12.20
11.75
11.56
11.54
11.54
11.41
11.12
10.71
10.20
9.59
8.84
7.93
6.87
5.76
4.66
3.61
2.56
1.46
0.23
-1.16
-2.70
-4.39
-6.21
-8.14
-10.09
-11.96
-13.69
-15.31
-16.97
-18.89
-21.24
-24.03
-27.01
-29.73
-31.62
-32.15
-30.97
-28.03
-23.57
-18.17
-12.49
-7.18
-2.66
0.95
3.82
6.22
8.40
10.45
12.30
13.88
15.13
16.15
17.10
18.08
19.11
20.08
20.91
21.54
22.08
22.68
23.44
24.32
25.15
25.73
25.91
25.64
25.04
24.27
23.47
22.74
22.11
21.53
20.95
20.31
19.59
18.80
18.02
17.31
16.71
16.17
15.58
14.83
13.90
12.87
11.87
11.03
10.38
9.80
9.11
8.12
6.80
5.21
3.56
2.00
0.61
-0.64
-1.90
-3.30
-4.94
-6.79
-8.74
-10.63
-12.33
-13.83
-15.22
-16.70
-18.45
-20.62
-23.22
-26.16
-29.22
-32.13
-34.54
-36.07
-36.35
-35.11
-32.29
-28.08
-22.98
-17.61
-12.61
-8.41
-5.12
-2.59
-0.47
1.53
3.60
5.72
7.77
9.65
11.32
12.84
14.24
15.53
16.62
17.45
17.99
18.32
18.57
18.84
19.17
19.50
19.70
19.69
19.43
18.95
18.30
17.55
16.77
16.03
15.37
14.76
14.12
13.34
12.35
11.18
9.97
8.85
7.90
7.07
6.20
5.13
3.76
2.14
0.37
-1.43
-3.17
-4.80
-6.30
-7.65
-8.88
-10.13
-11.63
-13.64
-16.34
-19.64
-23.15
-26.29
-28.39
-28.96
-27.76
-24.91
-20.79
-15.91
-10.87
-6.14
-2.08
1.18
3.66
5.55
7.07
8.38
9.60
10.72
11.72
12.56
13.24
13.81
14.34
14.91
15.55
16.31
17.17
18.04
18.85
19.49
19.88
19.98
19.81
19.41
18.85
18.23
17.62
17.06
16.54
15.98
15.31
14.47
13.49
12.44
11.39
10.38
9.40
8.43
7.44
6.43
5.39
4.31
3.15
1.90
0.60
-0.62
-1.63
-2.37
-2.87
-3.31
-3.88
-4.73
-5.93
-7.39
-8.96
-10.48
-11.82
-12.98
-14.03
-15.11
-16.40
-18.03
-20.04
-22.40
-24.96
-27.46
-29.57
-30.90
-31.09
-29.87
-27.22
-23.38
-18.82
-14.14
-9.86
-6.27
-3.43
-1.17
0.69
2.30
3.70
4.88
5.89
6.79
7.72
8.72
9.78
10.74
11.47
11.87
12.00
12.01
12.12
12.45
13.04
13.79
14.51
14.99
15.09
14.76
14.10
13.26
12.47
11.87
11.52
11.35
11.23
11.00
10.58
9.96
9.22
8.47
7.76
7.12
6.50
5.89
5.26
4.61
3.95
3.26
2.52
1.73
0.91
0.11
-0.63
-1.32
-2.04
-2.89
-3.97
-5.33
-6.94
-8.70
-10.47
-12.12
-13.63
-15.01
-16.41
-18.01
-19.95
-22.23
-24.61
-26.68
-27.93
-27.96
-26.60
-23.95
-20.38
-16.37
-12.39
-8.76
-5.63
-3.04
-0.90
0.84
2.25
3.36
4.21
4.87
5.43
5.96
6.54
7.19
7.89
8.60
9.30
9.99
10.68
11.39
12.10
12.77
13.38
13.86
14.21
14.36
14.32
14.06
13.64
13.14
12.67
12.29
12.01
11.74
11.36
10.79
10.01
9.09
8.17
7.37
6.74
6.23
5.78
5.31
4.78
4.18
3.51
2.79
2.03
1.22
0.39
-0.47
-1.40
-2.44
-3.61
-4.90
-6.25
-7.56
-8.78
-9.93
-11.08
-12.35
-13.78
-15.37
-17.06
-18.80
-20.59
-22.47
-24.45
-26.40
-28.02
-28.89
-28.62
-27.01
-24.14
-20.37
-16.24
-12.29
-8.90
-6.22
-4.17
-2.56
-1.22
-0.02
1.08
2.09
3.06
4.08
5.26
6.58
7.94
9.10
9.87
10.15
10.05
9.81
9.70
9.89
10.36
10.98
11.55
11.93
12.07
11.97
11.65
11.13
10.43
9.61
8.75
7.93
7.19
6.52
5.86
5.15
4.34
3.47
2.58
1.74
1.00
0.36
-0.23
-0.85
-1.61
-2.56
-3.70
-4.98
-6.30
-7.58
-8.83
-10.04
-11.29
-12.60
-14.00
-15.54
-17.30
-19.31
-21.53
-23.70
-25.41
-26.19
-25.70
-23.83
-20.78
-16.95
-12.81
-8.80
-5.24
-2.31
-0.07
1.56
2.73
3.66
4.51
5.39
6.31
7.22
8.06
8.80
9.41
9.89
10.22
10.44
10.62
10.86
11.27
11.90
12.73
13.65
14.50
15.10
15.34
15.18
14.65
13.83
12.83
11.78
10.80
9.96
9.30
8.78
8.34
7.89
7.39
6.83
6.26
5.74
5.28
4.83
4.28
3.51
2.50
1.27
-0.04
-1.31
-2.44
-3.42
-4.27
-5.06
-5.84
-6.66
-7.58
-8.65
-9.91
-11.36
-12.97
-14.69
-16.49
-18.36
-20.37
-22.58
-24.98
-27.41
-29.56
-31.02
-31.38
-30.42
-28.15
-24.81
-20.84
-16.66
-12.66
-9.11
-6.15
-3.81
-2.04
-0.74
0.29
1.25
2.30
3.53
4.90
6.28
7.50
8.43
9.04
9.42
9.72
10.13
10.75
11.59
12.54
13.43
14.15
14.60
14.79
14.77
14.58
14.29
13.92
13.49
13.04
12.59
12.17
11.80
11.48
11.19
10.93
10.65
10.31
9.86
9.26
8.53
7.74
6.98
6.30
5.71
5.12
4.42
3.55
2.48
1.28
0.04
-1.15
-2.24
-3.25
-4.25
-5.32
-6.53
-7.93
-9.49
-11.18
-12.88
-14.51
-15.99
-17.36
-18.71
-20.26
-22.18
-24.55
-27.26
-29.97
-32.19
-33.40
-33.25
-31.63
-28.67
-24.74
-20.28
-15.71
-11.36
-7.46
-4.13
-1.43
0.71
2.40
3.77
4.97
6.06
7.08
7.99
8.75
9.38
9.94
10.52
11.23
12.12
13.15
14.25
15.29
16.15
16.77
17.13
17.28
17.28
17.16
16.94
16.63
16.21
15.63
14.90
14.02
13.05
12.06
11.08
10.12
9.13
8.02
6.76
5.39
4.00
2.69
1.52
0.47
-0.53
-1.55
-2.65
-3.87
-5.22
-6.72
-8.42
-10.31
-12.34
-14.37
-16.31
-18.13
-19.95
-22.00
-24.41
-27.13
-29.77
-31.70
-32.26
-31.05
-28.06
-23.74
-18.81
-13.97
-9.72
-6.24
-3.43
-1.10
0.92
2.72
4.33
5.76
7.08
8.40
9.79
11.26
12.72
14.02
15.05
15.79
16.32
16.78
17.27
17.87
18.51
19.10
19.51
19.67
19.59
19.34
19.01
18.66
18.31
17.86
17.26
16.48
15.61
14.79
14.16
13.72
13.36
12.90
12.16
11.12
9.89
8.70
7.71
6.99
6.47
5.97
5.33
4.44
3.31
2.04
0.74
-0.51
-1.71
-2.89
-4.13
-5.45
-6.85
-8.27
-9.65
-11.00
-12.37
-13.82
-15.42
-17.19
-19.15
-21.30
-23.69
-26.35
-29.20
-32.01
-34.35
-35.72
-35.67
-33.98
-30.71
-26.22
-21.06
-15.82
-11.04
-7.05
-3.98
-1.72
-0.03
1.38
2.76
4.23
5.76
7.24
8.57
9.73
10.75
11.71
12.67
13.63
14.56
15.42
16.19
16.86
17.43
17.90
18.24
18.41
18.41
18.23
17.85
17.29
16.58
15.76
14.94
14.19
13.58
13.08
12.58
11.94
11.02
9.79
8.32
6.75
5.28
4.04
3.06
2.26
1.43
0.38
-1.04
-2.81
-4.82
-6.83
-8.68
-10.29
-11.77
-13.30
-15.12
-17.35
-20.01
-22.98
-26.05
-28.93
-31.29
-32.78
-33.08
-31.96
-29.42
-25.63
-20.99
-15.97
-11.04
-6.53
-2.65
0.54
3.10
5.13
6.79
8.24
9.62
11.00
12.39
13.71
14.85
15.72
16.31
16.69
17.01
17.44
18.09
18.97
19.92
20.73
21.18
21.19
20.85
20.33
19.81
19.39
19.04
18.63
18.06
17.29
16.37
15.41
14.52
13.76
13.14
12.59
12.07
11.53
10.97
10.39
9.81
9.19
8.49
7.64
6.58
5.31
3.91
2.48
1.12
-0.09
-1.16
-2.10
-3.00
-3.92
-4.96
-6.21
-7.71
-9.41
-11.19
-12.86
-14.30
-15.49
-16.55
-17.69
-19.15
-21.11
-23.61
-26.52
-29.52
-32.15
-33.93
-34.42
-33.36
-30.74
-26.83
-22.09
-17.08
-12.32
-8.14
-4.71
-1.99
0.12
1.80
3.20
4.47
5.70
6.96
8.26
9.54
10.71
11.67
12.40
12.94
13.42
13.94
14.63
15.50
16.48
17.40
18.06
18.28
18.01
17.33
16.40
15.44
14.59
13.85
13.18
12.50
11.78
11.03
10.27
9.52
8.77
8.02
7.27
6.54
5.87
5.23
4.59
3.88
3.07
2.18
1.21
0.18
-0.94
-2.15
-3.47
-4.85
-6.22
-7.54
-8.77
-9.94
-11.13
-12.44
-14.01
-15.96
-18.30
-20.94
-23.58
-25.78
-27.10
-27.19
-25.91
-23.39
-19.96
-16.06
-12.09
-8.33
-4.97
-2.07
0.36
2.34
3.92
5.15
6.07
6.74
7.21
7.56
7.89
8.29
8.84
9.56
10.41
11.36
12.33
13.28
14.19
15.05
15.80
16.35
16.59
16.45
15.89
14.98
13.88
12.79
11.85
11.16
10.66
10.25
9.80
9.21
8.46
7.60
6.69
5.81
5.02
4.32
3.67
2.98
2.17
1.18
0.02
-1.19
-2.35
-3.33
-4.13
-4.86
-5.70
-6.82
-8.32
-10.12
-12.03
-13.80
-15.27
-16.47
-17.59
-18.94
-20.74
-23.04
-25.59
-27.94
-29.53
-29.94
-28.95
-26.63
-23.29
-19.33
-15.16
-11.16
-7.54
-4.47
-1.95
0.04
1.60
2.85
3.89
4.80
5.60
6.33
7.05
7.82
8.68
9.59
10.47
11.21
11.75
12.12
12.43
12.76
13.16
13.58
13.88
13.96
13.78
13.41
12.96
12.58
12.31
12.15
11.98
11.69
11.20
10.53
9.78
9.08
8.52
8.08
7.65
7.12
6.39
5.49
4.48
3.45
2.43
1.37
0.21
-1.07
-2.40
-3.65
-4.77
-5.77
-6.79
-7.94
-9.26
-10.69
-12.09
-13.33
-14.42
-15.45
-16.60
-18.01
-19.73
-21.71
-23.82
-25.85
-27.52
-28.50
-28.49
-27.26
-24.79
-21.33
-17.27
-13.11
-9.25
-5.93
-3.21
-1.03
0.71
2.07
3.07
3.75
4.16
4.42
4.67
5.04
5.64
6.50
7.53
8.63
9.63
10.41
10.92
11.20
11.36
11.52
11.72
11.95
12.11
12.09
11.83
11.35
10.72
10.04
9.38
8.74
8.08
7.36
6.52
5.59
4.62
3.63
2.65
1.65
0.60
-0.52
-1.65
-2.73
-3.73
-4.67
-5.59
-6.57
-7.65
-8.81
-10.03
-11.29
-12.60
-13.99
-15.49
-17.13
-18.92
-20.89
-23.02
-25.18
-27.11
-28.39
-28.63
-27.60
-25.38
-22.25
-18.62
-14.84
-11.11
-7.58
-4.36
-1.60
0.60
2.25
3.53
4.67
5.87
7.15
8.41
9.48
10.31
10.93
11.45
11.93
12.37
12.75
13.06
13.40
13.87
14.52
15.27
15.96
16.39
16.45
16.15
15.59
14.91
14.22
13.55
12.86
12.10
11.23
10.27
9.27
8.31
7.47
6.79
6.22
5.69
5.11
4.38
3.49
2.48
1.40
0.31
-0.79
-1.95
-3.27
-4.79
-6.49
-8.28
-10.01
-11.56
-12.90
-14.08
-15.27
-16.67
-18.47
-20.73
-23.35
-26.10
-28.58
-30.33
-30.95
-30.17
-27.94
-24.50
-20.30
-15.86
-11.63
-7.90
-4.76
-2.14
0.06
1.93
3.51
4.84
5.98
7.01
8.02
9.06
10.11
11.14
12.11
12.96
13.69
14.31
14.87
15.41
15.99
16.60
17.19
17.65
17.84
17.63
17.00
16.04
14.89
13.74
12.71
11.86
11.18
10.63
10.15
9.70
9.23
8.65
7.91
6.98
5.88
4.71
3.53
2.38
1.24
0.05
-1.26
-2.74
-4.38
-6.14
-7.99
-9.88
-11.77
-13.62
-15.44
-17.32
-19.40
-21.80
-24.55
-27.51
-30.32
-32.48
-33.50
-33.04
-31.02
-27.65
-23.33
-18.51
-13.62
-9.00
-4.86
-1.31
1.63
4.04
6.04
7.77
9.29
10.64
11.80
12.79
13.67
14.53
15.45
16.42
17.36
18.16
18.77
19.23
19.67
20.19
20.80
21.38
21.81
21.94
21.76
21.32
20.71
20.03
19.32
18.58
17.80
16.97
16.07
15.13
14.17
13.24
12.38
11.65
11.04
10.49
9.91
9.20
8.34
7.34
6.28
5.20
4.14
3.06
1.93
0.70
-0.63
-2.07
-3.61
-5.27
-7.02
-8.83
-10.60
-12.26
-13.75
-15.06
-16.28
-17.55
-19.07
-21.04
-23.51
-26.40
-29.36
-31.86
-33.33
-33.29
-31.58
-28.38
-24.18
-19.57
-15.06
-10.94
-7.30
-4.05
-1.13
1.46
3.62
5.28
6.43
7.21
7.83
8.46
9.21
10.06
10.92
11.74
12.48
13.23
14.04
14.97
15.96
16.87
17.56
17.90
17.85
17.47
16.86
16.16
15.46
14.78
14.09
13.26
12.24
11.03
9.71
8.39
7.18
6.14
5.25
4.42
3.52
2.44
1.10
-0.51
-2.31
-4.20
-6.06
-7.80
-9.36
-10.79
-12.21
-13.82
-15.82
-18.31
-21.16
-23.99
-26.26
-27.37
-26.93
-24.87
-21.48
-17.25
-12.75
-8.43
-4.58
-1.32
1.36
3.51
5.21
6.59
7.79
8.94
10.13
11.41
12.76
14.14
15.43
16.52
17.30
17.72
17.80
17.67
17.52
17.53
17.82
18.32
18.80
18.97
18.61
17.69
16.38
14.95
13.64
12.56
11.67
10.85
10.04
9.23
8.47
7.81
7.23
6.68
6.11
5.49
4.80
4.07
3.30
2.48
1.61
0.65
-0.41
-1.64
-3.09
-4.78
-6.65
-8.56
-10.35
-11.88
-13.12
-14.13
-15.08
-16.19
-17.66
-19.61
-22.03
-24.70
-27.23
-29.14
-30.01
-29.54
-27.73
-24.80
-21.13
-17.14
-13.21
-9.62
-6.52
-3.98
-1.95
-0.34
0.97
2.13
3.20
4.21
5.12
5.86
6.40
6.73
6.92
7.04
7.19
7.42
7.73
8.05
8.29
8.37
8.22
7.86
7.31
6.64
5.88
5.07
4.21
3.34
2.47
1.60
0.74
-0.16
-1.12
-2.16
-3.28
-4.45
-5.65
-6.89
-8.25
-9.77
-11.51
-13.40
-15.30
-16.94
-18.02
-18.26
-17.47
-15.65
-12.97
-9.78
-6.53
-3.59
-1.20
0.62
2.00
3.13
4.14
5.08
5.91
6.61
7.21
7.76
8.30
8.80
9.21
9.51
9.72
9.97
10.39
11.02
11.79
12.50
12.95
13.00
12.60
11.82
10.79
9.58
8.31
7.03
5.82
4.73
3.78
2.91
2.01
0.97
-0.30
-1.81
-3.49
-5.20
-6.88
-8.47
-10.07
-11.79
-13.73
-15.93
-18.30
-20.59
-22.47
-23.58
-23.61
-22.44
-20.14
-17.02
-13.52
-10.09
-7.02
-4.42
-2.20
-0.18
1.80
3.76
5.63
7.31
8.71
9.82
10.71
11.42
11.99
12.44
12.78
13.10
13.48
13.99
14.68
15.47
16.25
16.86
17.18
17.17
16.87
16.37
15.82
15.31
14.88
14.47
13.99
13.36
12.56
11.72
11.00
10.55
10.42
10.51
10.64
10.60
10.28
9.68
8.89
8.04
7.19
6.36
5.53
4.66
3.73
2.70
1.55
0.27
-1.13
-2.58
-3.96
-5.21
-6.35
-7.50
-8.77
-10.25
-11.89
-13.54
-15.03
-16.27
-17.30
-18.27
-19.41
-20.89
-22.80
-25.12
-27.64
-29.99
-31.67
-32.19
-31.24
-28.80
-25.20
-20.99
-16.72
-12.79
-9.38
-6.49
-4.02
-1.91
-0.14
1.26
2.31
3.01
3.43
3.65
3.82
4.08
4.56
5.28
6.17
7.06
7.73
8.02
7.88
7.36
6.63
5.89
5.36
5.16
5.33
5.81
6.46
7.12
7.67
8.03
8.15
8.02
7.63
7.05
6.35
5.68
5.10
4.57
3.94
3.01
1.70
0.07
-1.63
-3.16
-4.38
-5.33
-6.23
-7.33
-8.77
-10.57
-12.60
-14.70
-16.70
-18.42
-19.63
-20.08
-19.49
-17.74
-14.92
-11.36
-7.55
-3.98
-0.95
1.44
3.30
4.80
6.06
7.11
7.93
8.49
8.78
8.85
8.78
8.61
8.38
8.14
7.95
7.88
7.97
8.17
8.36
8.39
8.11
7.46
6.46
5.21
3.87
2.53
1.30
0.21
-0.75
-1.69
-2.72
-4.03
-5.75
-7.96
-10.55
-13.30
-15.81
-17.64
-18.42
-17.95
-16.29
-13.70
-10.56
-7.28
-4.11
-1.17
1.55
4.08
6.41
8.49
10.21
11.53
12.45
13.07
13.50
13.83
14.15
14.49
14.87
15.29
15.74
16.19
16.63
17.04
17.40
17.66
17.75
17.61
17.20
16.55
15.72
14.85
14.01
13.28
12.65
12.08
11.52
10.96
10.37
9.77
9.16
8.56
8.01
7.52
7.10
6.73
6.36
5.91
5.34
4.66
3.94
3.27
2.70
2.21
1.75
1.21
0.53
-0.31
-1.29
-2.38
-3.57
-4.87
-6.27
-7.79
-9.35
-10.90
-12.38
-13.74
-14.97
-16.09
-17.13
-18.19
-19.37
-20.80
-22.62
-24.84
-27.35
-29.82
-31.80
-32.84
-32.55
-30.80
-27.72
-23.66
-19.10
-14.52
-10.29
-6.60
-3.50
-0.94
1.14
2.81
4.10
5.08
5.85
6.55
7.31
8.15
9.01
9.75
10.24
10.49
10.64
10.91
11.46
12.30
13.27
14.11
14.61
14.67
14.33
13.70
12.92
12.09
11.27
10.51
9.88
9.44
9.19
9.02
8.75
8.21
7.34
6.20
4.98
3.87
2.97
2.26
1.59
0.83
-0.11
-1.20
-2.35
-3.50
-4.60
-5.67
-6.76
-7.90
-9.12
-10.50
-12.12
-14.05
-16.31
-18.73
-21.03
-22.78
-23.56
-23.08
-21.25
-18.25
-14.50
-10.54
-6.87
-3.80
-1.41
0.44
1.97
3.38
4.77
6.07
7.17
8.00
8.57
9.02
9.51
10.12
10.84
11.55
12.13
12.54
12.83
13.12
13.52
14.05
14.60
15.01
15.11
14.82
14.15
13.21
12.18
11.23
10.44
9.82
9.27
8.66
7.93
7.10
6.29
5.64
5.21
4.91
4.56
3.98
3.10
2.02
0.94
0.04
-0.61
-1.09
-1.55
-2.15
-2.96
-3.94
-4.96
-5.93
-6.80
-7.61
-8.43
-9.34
-10.35
-11.46
-12.63
-13.91
-15.37
-17.07
-19.02
-21.03
-22.73
-23.67
-23.44
-21.84
-18.96
-15.19
-11.07
-7.11
-3.75
-1.17
0.62
1.78
2.51
3.02
3.43
3.77
4.06
4.31
4.61
5.03
5.60
6.27
6.87
7.31
7.56
7.74
8.03
8.51
9.12
9.67
9.96
9.92
9.61
9.19
8.75
8.26
7.65
6.89
6.04
5.29
4.81
4.61
4.57
4.48
4.12
3.44
2.51
1.51
0.61
-0.10
-0.61
-1.04
-1.53
-2.20
-3.12
-4.28
-5.60
-6.95
-8.20
-9.31
-10.28
-11.19
-12.15
-13.27
-14.61
-16.15
-17.80
-19.38
-20.65
-21.31
-21.10
-19.85
-17.56
-14.45
-10.89
-7.31
-4.10
-1.47
0.53
1.96
2.95
3.62
4.06
4.37
4.64
4.98
5.44
6.02
6.61
7.12
7.44
7.61
7.73
7.92
8.32
8.95
9.74
10.55
11.22
11.58
11.60
11.28
10.68
9.89
8.97
8.01
7.06
6.22
5.56
5.12
4.91
4.88
4.94
4.99
4.94
4.73
4.37
3.87
3.29
2.64
1.91
1.08
0.12
-0.94
-2.05
-3.09
-3.96
-4.62
-5.11
-5.54
-6.07
-6.85
-7.92
-9.24
-10.71
-12.24
-13.76
-15.25
-16.75
-18.29
-19.88
-21.46
-22.87
-23.87
-24.19
-23.62
-22.07
-19.64
-16.59
-13.25
-9.95
-6.91
-4.31
-2.21
-0.66
0.34
0.84
1.01
1.06
1.18
1.50
2.00
2.58
3.12
3.53
3.86
4.18
4.58
5.10
5.66
6.20
6.63
6.92
7.09
7.21
7.34
7.50
7.66
7.77
7.73
7.48
6.98
6.27
5.44
4.62
3.90
3.34
2.94
2.61
2.31
1.95
1.46
0.82
0.02
-0.88
-1.78
-2.60
-3.34
-4.04
-4.87
-5.93
-7.24
-8.67
-10.04
-11.21
-12.17
-13.08
-14.19
-15.74
-17.82
-20.36
-23.13
-25.79
-27.92
-29.15
-29.21
-28.03
-25.73
-22.58
-18.95
-15.18
-11.52
-8.13
-5.09
-2.44
-0.20
1.63
3.06
4.13
4.88
5.39
5.73
5.95
6.13
6.31
6.53
6.85
7.30
7.88
8.52
9.13
9.59
9.75
9.54
8.96
8.10
7.10
6.09
5.14
4.24
3.30
2.17
0.70
-1.13
-3.27
-5.55
-7.86
-10.12
-12.24
-14.25
-16.27
-18.45
-20.78
-23.15
-25.40
-27.45
-29.25
-30.59
-31.32
-31.37
-30.67
-28.99
-26.08
-21.82
-16.58
-11.10
-6.05
-2.17
-0.28
-0.88
-3.67
-7.63
-11.24
-13.11
-12.29
-7.79
0.64
12.44
26.52
41.97
58.26
75.38
91.25
103.06
110.44
115.61
121.07
126.68
129.14
123.78
107.41
83.19
53.65
23.93
-0.49
-16.13
-22.40
-20.95
-14.43
-5.33
4.77
13.98
21.36
26.19
27.87
26.37
22.60
18.07
14.17
11.47
9.36
7.26
4.74
1.71
-1.58
-4.54
-6.75
-8.23
-9.58
-12.03
-16.38
-22.98
-31.57
-41.00
-49.39
-54.59
-55.07
-50.62
-42.65
-33.50
-25.64
-20.73
-19.12
-19.97
-21.81
-23.44
-24.35
-24.76
-25.12
-25.68
-26.44
-27.17
-27.71
-28.09
-28.53
-29.19
-29.93
-30.23
-29.38
-26.83
-22.48
-16.78
-10.52
-4.49
0.78
5.18
8.91
12.34
15.78
19.39
23.21
27.22
31.36
35.65
40.07
44.64
49.29
53.86
58.07
61.56
63.99
65.12
64.83
63.17
60.24
56.17
51.14
45.32
38.94
32.28
25.61
19.10
12.77
6.50
0.13
-6.47
-13.27
-20.10
-26.65
-32.62
-37.70
-41.73
-44.68
-46.68
-48.03
-49.09
-50.22
-51.71
-53.68
-56.10
-58.79
-61.56
-64.18
-66.50
-68.50
-70.25
-71.94
-73.69
-75.42
-76.80
-77.28
-76.33
-73.69
-69.51
-64.43
-59.28
-54.80
-51.29
-48.48
-45.63
-41.73
-35.95
-27.84
-17.58
-5.85
6.33
17.95
28.20
36.64
43.14
47.79
50.79
52.40
52.99
52.92
52.60
52.28
52.03
51.69
51.02
49.83
48.05
45.83
43.42
41.09
39.05
37.31
35.79
34.28
32.63
30.75
28.68
26.52
24.41
22.45
20.62
18.86
17.10
15.34
13.62
12.00
10.50
9.05
7.54
5.90
4.10
2.19
0.28
-1.56
-3.27
-4.87
-6.41
-8.00
-9.80
-11.97
-14.62
-17.71
-21.01
-24.11
-26.50
-27.74
-27.56
-25.92
-22.98
-19.06
-14.55
-9.87
-5.41
-1.46
1.79
4.31
6.22
7.70
8.95
10.10
11.19
12.21
13.08
13.76
14.22
14.48
14.61
14.72
14.96
15.44
16.18
17.12
18.12
18.99
19.62
20.00
20.20
20.30
20.39
20.42
20.36
20.13
19.73
19.15
18.41
17.47
16.28
14.83
13.16
11.41
9.72
8.18
6.77
5.40
4.01
2.58
1.16
-0.19
-1.46
-2.73
-4.10
-5.61
-7.26
-8.96
-10.68
-12.44
-14.28
-16.26
-18.35
-20.53
-22.82
-25.29
-28.01
-30.90
-33.64
-35.69
-36.45
-35.50
-32.83
-28.78
-23.97
-19.00
-14.35
-10.27
-6.84
-4.06
-1.90
-0.29
0.90
1.85
2.73
3.67
4.70
5.79
6.85
7.79
8.56
9.18
9.70
10.20
10.73
11.28
11.80
12.23
12.50
12.60
12.51
12.21
11.68
10.90
9.94
8.86
7.79
6.84
6.02
5.32
4.69
4.12
3.61
3.18
2.80
2.41
1.92
1.28
0.49
-0.40
-1.31
-2.20
-3.09
-4.05
-5.19
-6.59
-8.32
-10.38
-12.73
-15.20
-17.49
-19.14
-19.71
-18.86
-16.58
-13.22
-9.39
-5.69
-2.56
-0.14
1.68
3.04
4.04
4.67
4.88
4.69
4.24
3.73
3.36
3.23
3.29
3.42
3.51
3.53
3.59
3.80
4.26
4.95
5.78
6.55
7.17
7.59
7.88
8.13
8.40
8.66
8.86
9.00
9.11
9.28
9.56
9.87
10.08
10.04
9.71
9.15
8.54
8.02
7.65
7.36
7.02
6.46
5.60
4.43
3.04
1.51
-0.07
-1.69
-3.35
-5.08
-6.83
-8.57
-10.21
-11.76
-13.25
-14.74
-16.25
-17.75
-19.12
-20.25
-21.15
-21.96
-22.97
-24.44
-26.52
-29.07
-31.67
-33.73
-34.60
-33.82
-31.24
-27.03
-21.68
-15.82
-10.12
-5.07
-0.98
2.13
4.41
6.12
7.48
8.67
9.76
10.78
11.72
12.56
13.30
13.95
14.51
15.01
15.47
15.89
16.24
16.49
16.57
16.41
15.99
15.33
14.47
13.50
12.51
11.56
10.68
9.89
9.14
8.37
7.49
6.42
5.17
3.82
2.52
1.43
0.62
0.05
-0.44
-1.04
-1.87
-2.95
-4.15
-5.28
-6.21
-6.88
-7.31
-7.67
-8.11
-8.79
-9.85
-11.33
-13.22
-15.39
-17.56
-19.38
-20.42
-20.35
-18.95
-16.30
-12.70
-8.64
-4.64
-1.14
1.63
3.65
5.08
6.12
6.97
7.73
8.46
9.16
9.81
10.39
10.87
11.20
11.32
11.24
11.01
10.79
10.75
11.00
11.58
12.34
13.08
13.61
13.81
13.67
13.26
12.69
12.06
11.48
11.06
10.88
11.02
11.42
11.93
12.35
12.49
12.25
11.68
10.91
10.07
9.23
8.35
7.38
6.25
4.97
3.56
2.10
0.59
-0.96
-2.56
-4.19
-5.78
-7.25
-8.55
-9.71
-10.82
-11.99
-13.31
-14.78
-16.34
-17.86
-19.28
-20.63
-22.07
-23.78
-25.75
-27.68
-28.96
-28.91
-27.03
-23.28
-18.15
-12.44
-6.96
-2.22
1.59
4.59
6.97
8.89
10.41
11.62
12.63
13.57
14.51
15.40
16.13
16.53
16.58
16.35
16.05
15.87
15.93
16.24
16.71
17.18
17.53
17.61
17.37
16.76
15.78
14.50
12.98
11.34
9.68
8.04
6.47
4.94
3.43
1.91
0.42
-0.96
-2.09
-2.90
-3.39
-3.69
-4.02
-4.54
-5.29
-6.20
-7.07
-7.75
-8.18
-8.42
-8.60
-8.83
-9.23
-9.91
-10.96
-12.47
-14.33
-16.27
-17.78
-18.34
-17.56
-15.42
-12.27
-8.66
-5.13
-1.99
0.68
2.94
4.87
6.48
7.72
8.56
9.06
9.37
9.62
9.85
10.03
10.02
9.74
9.22
8.61
8.14
7.99
8.25
8.84
9.61
10.30
10.72
10.72
10.28
9.50
8.55
7.65
6.92
6.41
6.08
5.84
5.62
5.38
5.12
4.87
4.62
4.35
4.06
3.74
3.43
3.16
2.90
2.63
2.30
1.89
1.38
0.78
0.06
-0.80
-1.82
-3.00
-4.28
-5.61
-6.92
-8.18
-9.42
-10.66
-11.91
-13.17
-14.45
-15.77
-17.20
-18.82
-20.74
-23.04
-25.74
-28.68
-31.57
-33.97
-35.35
-35.34
-33.73
-30.64
-26.45
-21.69
-16.89
-12.47
-8.66
-5.48
-2.86
-0.67
1.18
2.76
4.10
5.22
6.19
7.09
7.97
8.85
9.71
10.49
11.22
11.92
12.68
13.54
14.46
15.37
16.15
16.70
16.97
16.91
16.51
15.77
14.75
13.63
12.59
11.74
11.10
10.54
9.87
8.95
7.73
6.26
4.64
2.94
1.18
-0.64
-2.55
-4.59
-6.75
-9.03
-11.38
-13.76
-16.04
-18.05
-19.63
-20.64
-21.05
-20.98
-20.69
-20.47
-20.53
-20.86
-21.22
-21.19
-20.31
-18.28
-15.07
-10.90
-6.18
-1.36
3.19
7.27
10.79
13.78
16.26
18.28
19.86
20.99
21.70
22.00
21.90
21.39
20.47
19.16
17.52
15.64
13.53
11.19
8.49
5.35
1.72
-2.28
-6.31
-9.83
-12.13
-12.48
-10.39
-5.78
0.87
8.56
16.06
22.20
26.28
28.19
28.34
27.42
26.15
25.12
24.67
24.89
25.63
26.51
27.01
26.63
24.99
21.99
17.84
12.94
7.82
2.94
-1.39
-5.09
-8.27
-11.21
-14.17
-17.34
-20.72
-24.13
-27.34
-30.20
-32.72
-35.03
-37.34
-39.80
-42.47
-45.34
-48.34
-51.30
-53.92
-55.75
-56.25
-55.01
-51.95
-47.40
-41.92
-36.16
-30.59
-25.43
-20.70
-16.34
-12.26
-8.36
-4.47
-0.34
4.25
9.35
14.77
20.06
24.73
28.35
30.77
32.05
32.39
32.04
31.24
30.12
28.82
27.41
25.95
24.49
23.01
21.49
19.87
18.13
16.27
14.41
12.68
11.20
9.99
8.95
7.91
6.73
5.36
3.94
2.66
1.68
1.05
0.67
0.34
-0.10
-0.75
-1.64
-2.78
-4.16
-5.79
-7.68
-9.78
-12.00
-14.24
-16.40
-18.35
-19.96
-21.00
-21.21
-20.42
-18.59
-15.91
-12.74
-9.48
-6.42
-3.70
-1.32
0.78
2.60
4.06
5.11
5.75
6.07
6.19
6.27
6.40
6.61
6.92
7.35
7.90
8.53
9.18
9.73
10.12
10.29
10.24
10.05
9.80
9.58
9.44
9.40
9.40
9.40
9.35
9.25
9.15
9.05
8.95
8.79
8.53
8.18
7.85
7.65
7.64
7.75
7.79
7.54
6.85
5.71
4.30
2.80
1.38
0.04
-1.30
-2.80
-4.53
-6.45
-8.42
-10.28
-11.93
-13.38
-14.75
-16.23
-17.99
-20.08
-22.48
-25.05
-27.53
-29.57
-30.75
-30.61
-28.82
-25.32
-20.35
-14.44
-8.26
-2.35
2.94
7.54
11.54
14.98
17.85
19.99
21.30
21.78
21.59
20.98
20.21
19.45
18.71
17.95
17.11
16.20
15.30
14.49
13.83
13.30
12.86
12.42
11.91
11.28
10.52
9.64
8.68
7.71
6.80
5.99
5.32
4.74
4.21
3.66
3.06
2.38
1.64
0.88
0.12
-0.59
-1.20
-1.69
-2.10
-2.48
-2.89
-3.40
-4.03
-4.81
-5.72
-6.75
-7.86
-9.05
-10.26
-11.49
-12.77
-14.19
-15.88
-17.93
-20.30
-22.75
-24.89
-26.23
-26.41
-25.26
-22.88
-19.60
-15.87
-12.11
-8.62
-5.53
-2.88
-0.64
1.24
2.78
3.99
4.88
5.47
5.83
6.08
6.31
6.61
7.05
7.61
8.25
8.93
9.58
10.16
10.67
11.11
11.52
11.93
12.36
12.78
13.13
13.38
13.52
13.60
13.69
13.83
14.05
14.28
14.50
14.69
14.88
15.12
15.43
15.76
16.04
16.17
16.13
15.95
15.66
15.26
14.67
13.75
12.41
10.65
8.58
6.42
4.37
2.51
0.85
-0.72
-2.29
-3.94
-5.65
-7.41
-9.21
-11.07
-13.01
-15.08
-17.31
-19.70
-22.29
-25.08
-27.99
-30.75
-32.97
-34.17
-33.98
-32.26
-29.22
-25.32
-21.14
-17.16
-13.68
-10.76
-8.36
-6.37
-4.79
-3.61
-2.83
-2.40
-2.19
-2.05
-1.90
-1.71
-1.56
-1.49
-1.47
-1.39
-1.05
-0.32
0.80
2.17
3.57
4.78
5.69
6.26
6.58
6.69
6.66
6.45
6.08
5.61
5.12
4.77
4.62
4.61
4.63
4.51
4.14
3.49
2.57
1.41
0.03
-1.55
-3.26
-5.00
-6.62
-8.10
-9.53
-11.14
-13.14
-15.58
-18.21
-20.54
-22.00
-22.17
-20.96
-18.57
-15.41
-11.93
-8.43
-5.10
-1.98
0.90
3.47
5.66
7.40
8.70
9.60
10.16
10.47
10.64
10.75
10.93
11.26
11.73
12.27
12.75
13.09
13.28
13.36
13.42
13.52
13.66
13.74
13.63
13.25
12.53
11.52
10.34
9.11
7.94
6.88
5.88
4.84
3.65
2.30
0.87
-0.51
-1.68
-2.54
-3.09
-3.43
-3.69
-4.02
-4.47
-4.98
-5.40
-5.53
-5.28
-4.64
-3.78
-2.92
-2.30
-2.07
-2.26
-2.78
-3.47
-4.15
-4.70
-5.09
-5.40
-5.82
-6.52
-7.64
-9.21
-11.15
-13.33
-15.57
-17.67
-19.39
-20.47
-20.60
-19.56
-17.30
-13.97
-9.96
-5.78
-1.91
1.31
3.80
5.62
6.96
7.98
8.74
9.24
9.46
9.47
9.36
9.31
9.39
9.59
9.82
10.02
10.18
10.40
10.78
11.35
12.06
12.78
13.41
13.85
14.08
14.05
13.71
13.01
11.95
10.66
9.31
8.11
7.19
6.51
5.95
5.33
4.53
3.59
2.60
1.72
1.07
0.63
0.26
-0.26
-1.13
-2.41
-3.98
-5.63
-7.18
-8.57
-9.89
-11.28
-12.89
-14.74
-16.81
-19.05
-21.38
-23.72
-25.80
-27.22
-27.51
-26.29
-23.48
-19.38
-14.56
-9.65
-5.17
-1.39
1.63
3.93
5.60
6.71
7.40
7.83
8.16
8.54
9.01
9.57
10.13
10.61
10.94
11.09
11.09
11.03
11.01
11.16
11.51
12.03
12.56
12.91
12.95
12.62
12.02
11.30
10.61
10.05
9.60
9.21
8.83
8.44
8.08
7.81
7.65
7.56
7.46
7.26
6.94
6.54
6.16
5.92
5.85
5.89
5.86
5.59
4.94
3.92
2.68
1.39
0.21
-0.84
-1.85
-2.96
-4.32
-5.94
-7.71
-9.45
-11.02
-12.41
-13.74
-15.27
-17.19
-19.56
-22.17
-24.61
-26.39
-27.08
-26.49
-24.63
-21.75
-18.16
-14.19
-10.15
-6.31
-2.87
0.01
2.28
4.01
5.31
6.33
7.17
7.84
8.31
8.53
8.51
8.33
8.13
8.04
8.14
8.48
9.03
9.73
10.51
11.29
12.00
12.57
12.91
12.94
12.60
11.88
10.86
9.69
8.56
7.61
6.89
6.34
5.85
5.28
4.54
3.63
2.61
1.57
0.61
-0.25
-1.02
-1.79
-2.67
-3.78
-5.16
-6.76
-8.43
-10.02
-11.44
-12.67
-13.81
-15.01
-16.41
-18.11
-20.18
-22.57
-25.06
-27.29
-28.75
-28.94
-27.56
-24.67
-20.63
-16.04
-11.48
-7.36
-3.83
-0.88
1.61
3.68
5.35
6.59
7.43
7.91
8.17
8.32
8.44
8.58
8.72
8.87
9.02
9.21
9.50
9.91
10.47
11.13
11.83
12.48
13.00
13.35
13.50
13.46
13.28
13.02
12.72
12.43
12.12
11.78
11.34
10.79
10.12
9.39
8.65
8.01
7.53
7.25
7.13
7.06
6.89
6.51
5.84
4.91
3.85
2.82
1.95
1.31
0.85
0.46
0.06
-0.43
-1.04
-1.75
-2.58
-3.53
-4.59
-5.74
-6.93
-8.10
-9.30
-10.66
-12.39
-14.64
-17.35
-20.18
-22.57
-23.91
-23.78
-22.08
-19.03
-15.11
-10.87
-6.81
-3.27
-0.43
1.63
2.97
3.70
3.99
4.07
4.15
4.38
4.86
5.56
6.35
7.09
7.62
7.91
7.99
8.04
8.18
8.54
9.09
9.77
10.42
10.94
11.26
11.34
11.19
10.84
10.34
9.76
9.18
8.67
8.23
7.82
7.36
6.74
5.93
4.96
3.90
2.82
1.74
0.69
-0.34
-1.29
-2.12
-2.78
-3.29
-3.75
-4.27
-4.95
-5.81
-6.80
-7.87
-8.95
-10.05
-11.22
-12.51
-13.96
-15.61
-17.45
-19.45
-21.52
-23.49
-25.07
-25.91
-25.68
-24.17
-21.39
-17.58
-13.15
-8.56
-4.18
-0.23
3.18
6.02
8.24
9.79
10.64
10.89
10.72
10.41
10.23
10.35
10.85
11.64
12.60
13.57
14.45
15.16
15.67
15.98
16.15
16.25
16.32
16.37
16.31
16.07
15.61
14.95
14.21
13.49
12.86
12.29
11.69
10.95
10.02
8.93
7.81
6.81
6.05
5.56
5.28
5.05
4.71
4.12
3.25
2.14
0.93
-0.25
-1.32
-2.23
-3.04
-3.81
-4.60
-5.48
-6.52
-7.78
-9.31
-11.08
-12.97
-14.84
-16.55
-18.03
-19.35
-20.68
-22.21
-24.09
-26.32
-28.71
-30.86
-32.25
-32.40
-30.96
-27.88
-23.41
-18.05
-12.44
-7.13
-2.52
1.23
4.09
6.20
7.76
8.97
10.06
11.16
12.33
13.47
14.42
15.04
15.25
15.14
14.90
14.73
14.82
15.22
15.89
16.70
17.46
17.98
18.11
17.82
17.18
16.33
15.45
14.65
13.94
13.27
12.54
11.69
10.72
9.65
8.56
7.48
6.44
5.46
4.54
3.69
2.91
2.19
1.51
0.84
0.17
-0.54
-1.32
-2.21
-3.22
-4.28
-5.27
-6.11
-6.76
-7.28
-7.86
-8.72
-10.07
-12.03
-14.57
-17.53
-20.62
-23.39
-25.33
-25.97
-24.97
-22.31
-18.32
-13.62
-8.91
-4.78
-1.55
0.75
2.30
3.30
3.90
4.16
4.10
3.79
3.40
3.14
3.16
3.48
3.98
4.52
4.99
5.43
5.95
6.60
7.37
8.05
8.45
8.45
8.08
7.51
6.89
6.31
5.73
5.06
4.22
3.20
2.07
0.93
-0.18
-1.25
-2.28
-3.27
-4.20
-5.04
-5.80
-6.51
-7.25
-8.10
-9.11
-10.28
-11.56
-12.86
-14.08
-15.15
-16.06
-16.88
-17.74
-18.82
-20.26
-22.11
-24.33
-26.70
-28.88
-30.39
-30.80
-29.78
-27.26
-23.42
-18.63
-13.37
-8.05
-2.99
1.59
5.56
8.84
11.36
13.09
14.10
14.53
14.62
14.58
14.59
14.72
14.89
15.04
15.10
15.07
15.01
15.01
15.14
15.43
15.84
16.29
16.68
16.88
16.75
16.18
15.15
13.73
12.09
10.45
8.99
7.74
6.62
5.46
4.14
2.65
1.13
-0.19
-1.14
-1.68
-1.95
-2.17
-2.55
-3.17
-3.96
-4.81
-5.62
-6.38
-7.14
-7.95
-8.80
-9.64
-10.49
-11.51
-12.94
-14.98
-17.58
-20.39
-22.77
-24.02
-23.59
-21.35
-17.55
-12.74
-7.62
-2.78
1.41
4.79
7.40
9.35
10.79
11.80
12.47
12.87
13.11
13.30
13.54
13.86
14.23
14.54
14.73
14.75
14.68
14.59
14.57
14.61
14.69
14.75
14.73
14.63
14.42
14.13
13.79
13.40
13.00
12.61
12.27
12.01
11.85
11.78
11.76
11.73
11.63
11.39
10.96
10.37
9.68
9.01
8.44
8.03
7.72
7.38
6.91
6.22
5.30
4.18
2.96
1.72
0.53
-0.60
-1.71
-2.89
-4.23
-5.78
-7.48
-9.18
-10.74
-12.08
-13.28
-14.52
-16.07
-18.11
-20.71
-23.74
-26.94
-29.89
-32.12
-33.16
-32.65
-30.46
-26.78
-22.06
-16.90
-11.89
-7.42
-3.65
-0.58
1.84
3.69
4.99
5.85
6.42
6.95
7.62
8.48
9.44
10.28
10.81
10.96
10.81
10.55
10.40
10.48
10.77
11.15
11.45
11.58
11.47
11.13
10.60
9.93
9.19
8.42
7.65
6.93
6.24
5.57
4.85
4.06
3.15
2.18
1.21
0.29
-0.55
-1.38
-2.29
-3.35
-4.57
-5.90
-7.22
-8.46
-9.65
-10.86
-12.24
-13.95
-16.04
-18.48
-21.07
-23.49
-25.31
-26.11
-25.58
-23.65
-20.48
-16.48
-12.09
-7.75
-3.73
-0.20
2.76
5.12
6.87
8.08
8.83
9.30
9.67
10.06
10.53
11.07
11.62
12.15
12.65
13.15
13.69
14.29
14.91
15.50
15.94
16.12
15.99
15.57
15.00
14.44
14.03
13.82
13.74
13.63
13.28
12.56
11.49
10.17
8.77
7.46
6.25
5.12
3.94
2.64
1.18
-0.36
-1.86
-3.20
-4.30
-5.15
-5.78
-6.27
-6.70
-7.18
-7.78
-8.55
-9.51
-10.62
-11.81
-12.96
-13.95
-14.73
-15.34
-15.94
-16.78
-18.04
-19.73
-21.57
-23.04
-23.57
-22.74
-20.50
-17.10
-13.04
-8.88
-5.03
-1.74
0.90
2.93
4.43
5.52
6.29
6.86
7.33
7.76
8.20
8.66
9.10
9.45
9.68
9.76
9.74
9.71
9.77
9.98
10.34
10.79
11.25
11.63
11.85
11.81
11.48
10.89
10.12
9.32
8.60
8.01
7.49
6.94
6.33
5.63
4.92
4.21
3.52
2.79
1.97
1.06
0.09
-0.88
-1.83
-2.77
-3.81
-4.98
-6.33
-7.78
-9.22
-10.58
-11.90
-13.34
-15.08
-17.22
-19.68
-22.15
-24.20
-25.37
-25.40
-24.22
-21.96
-18.87
-15.22
-11.29
-7.39
-3.77
-0.70
1.66
3.30
4.36
5.06
5.63
6.20
6.78
7.30
7.66
7.86
7.97
8.14
8.48
9.00
9.62
10.19
10.61
10.87
11.04
11.21
11.42
11.62
11.68
11.50
11.05
10.39
9.66
9.00
8.50
8.16
7.94
7.70
7.35
6.82
6.13
5.39
4.73
4.25
4.01
3.96
3.99
3.95
3.71
3.21
2.43
1.45
0.41
-0.54
-1.28
-1.76
-2.04
-2.26
-2.56
-3.07
-3.84
-4.82
-5.96
-7.15
-8.31
-9.44
-10.58
-11.86
-13.41
-15.34
-17.57
-19.82
-21.67
-22.65
-22.40
-20.85
-18.18
-14.81
-11.24
-7.90
-5.08
-2.86
-1.21
0.02
0.92
1.58
2.05
2.37
2.60
2.83
3.13
3.53
3.98
4.39
4.70
4.89
5.05
5.28
5.65
6.15
6.63
6.92
6.83
6.33
5.53
4.64
3.89
3.41
3.20
3.11
2.95
2.58
1.94
1.12
0.24
-0.57
-1.27
-1.92
-2.60
-3.39
-4.31
-5.30
-6.27
-7.15
-7.94
-8.69
-9.49
-10.46
-11.66
-13.16
-14.95
-16.98
-19.06
-20.88
-22.01
-22.05
-20.75
-18.12
-14.49
-10.35
-6.24
-2.59
0.40
2.71
4.49
5.88
6.99
7.86
8.47
8.79
8.81
8.62
8.30
7.99
7.81
7.81
7.99
8.26
8.52
8.71
8.83
8.90
8.94
8.99
9.03
9.09
9.14
9.21
9.30
9.41
9.53
9.61
9.64
9.61
9.53
9.45
9.41
9.46
9.63
9.91
10.24
10.45
10.42
10.07
9.39
8.49
7.50
6.52
5.57
4.55
3.35
1.89
0.19
-1.69
-3.59
-5.39
-7.04
-8.59
-10.16
-11.96
-14.15
-16.80
-19.80
-22.83
-25.41
-27.04
-27.36
-26.25
-23.85
-20.50
-16.63
-12.67
-8.96
-5.72
-3.06
-0.97
0.64
1.91
2.93
3.78
4.46
4.97
5.37
5.72
6.13
6.68
7.36
8.11
8.86
9.49
9.99
10.35
10.65
10.94
11.26
11.57
11.80
11.83
11.58
11.06
10.33
9.51
8.69
7.95
7.27
6.62
5.98
5.33
4.69
4.07
3.44
2.74
1.92
0.93
-0.18
-1.35
-2.49
-3.52
-4.44
-5.31
-6.21
-7.23
-8.43
-9.81
-11.30
-12.82
-14.25
-15.50
-16.51
-17.33
-18.08
-19.00
-20.31
-22.15
-24.41
-26.70
-28.45
-29.07
-28.17
-25.70
-21.95
-17.42
-12.66
-8.13
-4.11
-0.74
1.94
3.96
5.39
6.37
7.04
7.55
7.97
8.36
8.71
9.01
9.30
9.63
10.05
10.62
11.36
12.22
13.10
13.89
14.47
14.82
14.95
14.91
14.74
14.41
13.88
13.13
12.20
11.24
10.42
9.84
9.48
9.20
8.82
8.22
7.45
6.66
6.06
5.73
5.62
5.52
5.18
4.47
3.42
2.18
0.94
-0.17
-1.18
-2.18
-3.30
-4.61
-6.08
-7.63
-9.12
-10.49
-11.72
-12.86
-13.96
-15.10
-16.37
-17.92
-19.83
-22.16
-24.73
-27.15
-28.88
-29.34
-28.12
-25.19
-20.87
-15.76
-10.53
-5.69
-1.56
1.78
4.38
6.38
7.95
9.23
10.38
11.47
12.55
13.57
14.48
15.22
15.76
16.08
16.22
16.23
16.18
16.17
16.32
16.67
17.21
17.81
18.29
18.45
18.12
17.28
16.04
14.60
13.22
12.12
11.38
10.95
10.66
10.30
9.69
8.78
7.64
6.43
5.36
4.55
4.00
3.59
3.12
2.42
1.46
0.32
-0.84
-1.88
-2.75
-3.55
-4.39
-5.45
-6.79
-8.42
-10.28
-12.23
-14.14
-15.86
-17.34
-18.62
-19.85
-21.24
-22.98
-25.10
-27.43
-29.60
-31.12
-31.53
-30.50
-27.94
-24.04
-19.20
-13.93
-8.75
-4.08
-0.21
2.75
4.81
6.09
6.76
7.05
7.18
7.35
7.68
8.18
8.82
9.50
10.15
10.75
11.35
12.00
12.74
13.56
14.42
15.24
15.93
16.39
16.58
16.47
16.09
15.50
14.76
13.94
13.09
12.22
11.37
10.57
9.83
9.14
8.46
7.78
7.06
6.32
5.56
4.76
3.87
2.87
1.73
0.50
-0.78
-2.08
-3.38
-4.71
-6.07
-7.43
-8.74
-9.98
-11.15
-12.33
-13.58
-14.93
-16.43
-18.09
-19.93
-21.95
-24.06
-26.00
-27.35
-27.68
-26.63
-24.17
-20.51
-16.11
-11.48
-7.08
-3.17
0.14
2.87
5.08
6.82
8.14
9.10
9.75
10.17
10.47
10.76
11.11
11.52
11.98
12.42
12.84
13.27
13.75
14.33
14.94
15.45
15.68
15.51
14.92
14.04
13.06
12.17
11.47
10.94
10.48
9.99
9.38
8.69
7.97
7.26
6.59
5.89
5.11
4.18
3.10
1.89
0.62
-0.65
-1.91
-3.17
-4.47
-5.85
-7.29
-8.67
-9.86
-10.80
-11.50
-12.15
-12.98
-14.24
-16.05
-18.36
-20.96
-23.54
-25.75
-27.28
-27.84
-27.25
-25.46
-22.57
-18.83
-14.59
-10.24
-6.16
-2.64
0.15
2.19
3.62
4.67
5.55
6.39
7.15
7.71
7.97
7.99
7.90
7.98
8.38
9.14
10.13
11.18
12.12
12.88
13.46
13.81
13.91
13.70
13.14
12.29
11.31
10.36
9.61
9.11
8.76
8.36
7.68
6.57
5.10
3.48
2.04
1.01
0.44
0.16
-0.13
-0.72
-1.76
-3.20
-4.89
-6.60
-8.16
-9.50
-10.64
-11.71
-12.90
-14.40
-16.36
-18.75
-21.40
-23.89
-25.70
-26.34
-25.45
-22.95
-19.05
-14.21
-9.00
-3.99
0.35
3.77
6.25
7.94
9.08
9.94
10.65
11.32
11.95
12.53
13.08
13.59
14.05
14.42
14.69
14.87
15.03
15.26
15.60
16.01
16.40
16.65
16.68
16.49
16.08
15.48
14.70
13.76
12.73
11.72
10.83
10.09
9.44
8.77
7.96
7.01
6.00
5.05
4.24
3.55
2.88
2.10
1.17
0.16
-0.83
-1.68
-2.39
-3.02
-3.72
-4.60
-5.69
-6.92
-8.19
-9.42
-10.59
-11.72
-12.89
-14.19
-15.72
-17.57
-19.79
-22.33
-25.00
-27.46
-29.22
-29.81
-28.89
-26.39
-22.52
-17.71
-12.51
-7.36
-2.64
1.43
4.78
7.40
9.33
10.71
11.67
12.36
12.91
13.39
13.82
14.20
14.55
14.90
15.30
15.76
16.23
16.67
17.04
17.36
17.63
17.89
18.06
18.11
17.94
17.53
16.88
16.00
14.92
13.67
12.30
10.88
9.50
8.27
7.24
6.41
5.77
5.24
4.76
4.23
3.54
2.63
1.48
0.17
-1.14
-2.32
-3.32
-4.17
-5.02
-6.01
-7.18
-8.48
-9.79
-11.00
-12.08
-13.09
-14.20
-15.57
-17.38
-19.67
-22.42
-25.45
-28.47
-31.12
-32.98
-33.67
-33.02
-31.04
-28.02
-24.39
-20.64
-17.16
-14.18
-11.81
-10.00
-8.73
-7.95
-7.65
-7.80
-8.35
-9.22
-10.27
-11.37
-12.39
-13.24
-13.84
-14.08
-13.84
-12.97
-11.30
-8.77
-5.40
-1.35
3.15
7.84
12.52
17.01
21.15
24.76
27.69
29.79
31.02
31.36
30.90
29.71
27.87
25.49
22.71
19.74
16.78
14.04
11.60
9.41
7.29
4.98
2.28
-0.88
-4.35
-7.82
-10.87
-13.10
-14.25
-14.16
-12.88
-10.61
-7.64
-4.35
-1.12
1.74
4.07
5.83
7.11
8.01
8.61
8.90
8.86
8.53
8.01
7.48
7.07
6.82
6.65
6.43
6.04
5.48
4.82
4.20
3.73
3.44
3.25
3.00
2.51
1.65
0.43
-1.04
-2.59
-4.03
-5.31
-6.49
-7.72
-9.11
-10.76
-12.64
-14.64
-16.60
-18.29
-19.44
-19.76
-19.02
-17.18
-14.39
-10.97
-7.30
-3.72
-0.41
2.53
5.08
7.16
8.72
9.72
10.18
10.23
10.04
9.77
9.51
9.34
9.31
9.46
9.78
10.20
10.61
10.83
10.71
10.17
9.25
8.04
6.66
5.19
3.66
2.07
0.40
-1.38
-3.32
-5.46
-7.84
-10.47
-13.30
-16.13
-18.70
-20.60
-21.44
-20.94
-19.04
-15.94
-12.07
-7.93
-4.00
-0.56
2.28
4.58
6.53
8.27
9.91
11.48
12.95
14.25
15.32
16.13
16.69
17.04
17.22
17.30
17.37
17.53
17.86
18.41
19.12
19.84
20.35
20.51
20.25
19.63
18.80
17.92
17.10
16.34
15.55
14.66
13.66
12.61
11.63
10.83
10.23
9.76
9.30
8.74
8.05
7.27
6.50
5.82
5.24
4.70
4.12
3.39
2.49
1.46
0.38
-0.66
-1.58
-2.42
-3.22
-4.08
-5.02
-6.04
-7.12
-8.28
-9.57
-11.07
-12.77
-14.57
-16.29
-17.78
-19.05
-20.24
-21.65
-23.51
-25.86
-28.49
-30.95
-32.71
-33.31
-32.47
-30.14
-26.51
-21.94
-16.88
-11.83
-7.24
-3.43
-0.54
1.53
3.03
4.28
5.55
6.97
8.46
9.84
10.95
11.72
12.17
12.45
12.64
12.81
12.97
13.17
13.47
13.93
14.57
15.29
15.88
16.12
15.90
15.25
14.36
13.50
12.84
12.48
12.33
12.20
11.93
11.36
10.50
9.45
8.38
7.45
6.78
6.40
6.19
5.99
5.65
5.11
4.36
3.52
2.70
1.98
1.41
0.96
0.57
0.17
-0.28
-0.84
-1.58
-2.52
-3.65
-4.88
-6.13
-7.27
-8.23
-9.03
-9.71
-10.36
-11.11
-12.07
-13.37
-15.02
-16.89
-18.69
-19.99
-20.35
-19.51
-17.44
-14.41
-10.84
-7.16
-3.75
-0.85
1.42
3.03
4.06
4.65
4.98
5.22
5.47
5.72
5.96
6.15
6.33
6.54
6.82
7.18
7.55
7.88
8.15
8.35
8.50
8.61
8.65
8.58
8.36
7.98
7.45
6.85
6.25
5.77
5.47
5.35
5.35
5.36
5.28
5.05
4.67
4.23
3.80
3.45
3.23
3.10
2.99
2.80
2.45
1.88
1.12
0.26
-0.56
-1.24
-1.71
-2.05
-2.37
-2.83
-3.52
-4.41
-5.41
-6.36
-7.14
-7.72
-8.16
-8.58
-9.10
-9.78
-10.62
-11.55
-12.51
-13.47
-14.37
-15.13
-15.56
-15.48
-14.72
-13.21
-11.04
-8.44
-5.73
-3.24
-1.17
0.38
1.48
2.26
2.84
3.30
3.62
3.77
3.71
3.47
3.16
2.92
2.83
2.90
3.06
3.19
3.22
3.17
3.12
3.20
3.47
3.91
4.37
4.71
4.80
4.65
4.39
4.15
4.02
3.98
3.93
3.71
3.29
2.69
2.09
1.64
1.43
1.47
1.61
1.67
1.51
1.07
0.39
-0.41
-1.19
-1.86
-2.37
-2.78
-3.19
-3.69
-4.31
-5.04
-5.83
-6.60
-7.32
-7.95
-8.51
-8.97
-9.36
-9.69
-10.02
-10.47
-11.17
-12.18
-13.38
-14.47
-15.03
-14.75
-13.51
-11.49
-9.11
-6.83
-4.99
-3.74
-2.96
-2.45
-2.04
-1.64
-1.27
-0.99
-0.82
-0.75
-0.74
-0.74
-0.75
-0.82
-0.94
-1.08
-1.16
-1.05
-0.70
-0.15
0.49
1.04
1.40
1.53
1.48
1.32
1.12
0.92
0.67
0.33
-0.12
-0.69
-1.33
-1.96
-2.50
-2.93
-3.28
-3.63
-4.09
-4.69
-5.40
-6.11
-6.68
-7.04
-7.23
-7.36
-7.60
-8.07
-8.76
-9.56
-10.26
-10.66
-10.60
-10.01
-8.94
-7.51
-5.87
-4.16
-2.53
-1.11
0.02
0.82
1.31
1.59
1.75
1.83
1.87
1.81
1.65
1.44
1.24
1.18
1.35
1.74
2.27
2.81
3.22
3.41
3.37
3.14
2.81
2.48
2.18
1.93
1.68
1.39
1.03
0.65
0.31
0.10
0.04
0.07
0.09
-0.02
-0.33
-0.79
-1.30
-1.71
-1.99
-2.18
-2.38
-2.70
-3.15
-3.67
-4.17
-4.61
-5.05
-5.59
-6.29
-7.14
-8.02
-8.80
-9.41
-9.90
-10.40
-11.09
-12.07
-13.35
-14.87
-16.48
-17.95
-18.99
-19.32
-18.72
-17.16
-14.86
-12.17
-9.47
-7.01
-4.81
-2.79
-0.88
0.90
2.35
3.26
3.52
3.22
2.66
2.17
2.02
2.30
2.90
3.69
4.51
5.29
6.01
6.74
7.50
8.29
9.04
9.61
9.91
9.90
9.64
9.27
8.90
8.58
8.27
7.87
7.28
6.48
5.54
4.59
3.75
3.08
2.55
2.08
1.57
0.92
0.14
-0.78
-1.75
-2.71
-3.62
-4.47
-5.28
-6.06
-6.84
-7.66
-8.52
-9.49
-10.57
-11.76
-13.01
-14.31
-15.63
-17.01
-18.55
-20.32
-22.33
-24.48
-26.54
-28.20
-29.09
-28.90
-27.43
-24.70
-20.90
-16.37
-11.56
-6.88
-2.69
0.77
3.38
5.14
6.20
6.77
7.08
7.35
7.64
7.96
8.23
8.45
8.67
8.98
9.50
10.24
11.14
12.10
13.05
13.94
14.76
15.48
16.01
16.27
16.17
15.74
15.09
14.38
13.75
13.21
12.69
12.06
11.26
10.34
9.42
8.67
8.17
7.84
7.51
6.96
6.06
4.82
3.38
1.90
0.54
-0.66
-1.78
-2.92
-4.18
-5.60
-7.15
-8.72
-10.23
-11.61
-12.88
-14.12
-15.46
-17.07
-19.07
-21.56
-24.46
-27.52
-30.33
-32.35
-33.05
-32.06
-29.26
-24.89
-19.45
-13.61
-8.03
-3.20
0.63
3.50
5.63
7.29
8.70
9.95
11.06
11.99
12.75
13.37
13.92
14.45
14.97
15.49
16.07
16.77
17.66
18.74
19.95
21.15
22.20
22.99
23.48
23.69
23.62
23.31
22.74
21.95
20.99
19.95
18.92
17.94
17.06
16.24
15.47
14.69
13.89
13.05
12.19
11.31
10.42
9.50
8.53
7.52
6.51
5.54
4.61
3.66
2.56
1.21
-0.42
-2.29
-4.28
-6.29
-8.23
-10.06
-11.76
-13.28
-14.62
-15.86
-17.19
-18.89
-21.19
-24.11
-27.36
-30.40
-32.53
-33.15
-31.90
-28.80
-24.15
-18.46
-12.35
-6.37
-0.98
3.49
6.90
9.30
10.83
11.74
12.30
12.72
13.14
13.62
14.15
14.69
15.24
15.84
16.53
17.40
18.44
19.63
20.84
21.90
22.67
23.11
23.24
23.14
22.88
22.45
21.81
20.91
19.76
18.46
17.13
15.91
14.85
13.90
12.95
11.90
10.75
9.55
8.37
7.28
6.28
5.32
4.34
3.30
2.21
1.09
-0.02
-1.14
-2.32
-3.67
-5.26
-7.05
-8.92
-10.70
-12.29
-13.79
-15.38
-17.33
-19.72
-22.37
-24.81
-26.41
-26.62
-25.14
-22.04
-17.69
-12.62
-7.42
-2.58
1.58
4.85
7.23
8.82
9.86
10.57
11.11
11.56
11.88
12.05
12.07
12.03
12.09
12.34
12.85
13.55
14.35
15.15
15.86
16.46
16.90
17.14
17.11
16.77
16.16
15.39
14.60
13.92
13.42
13.01
12.54
11.88
10.96
9.88
8.81
7.93
7.31
6.88
6.47
5.94
5.19
4.25
3.23
2.24
1.32
0.45
-0.40
-1.31
-2.31
-3.43
-4.65
-5.95
-7.31
-8.68
-10.07
-11.48
-12.90
-14.34
-15.76
-17.18
-18.65
-20.31
-22.26
-24.44
-26.55
-28.06
-28.39
-27.14
-24.29
-20.24
-15.59
-10.92
-6.64
-2.90
0.24
2.77
4.63
5.79
6.34
6.46
6.44
6.47
6.66
7.02
7.49
8.04
8.63
9.27
9.97
10.74
11.58
12.49
13.46
14.37
15.13
15.60
15.74
15.55
15.08
14.38
13.48
12.41
11.23
10.04
8.97
8.10
7.48
7.08
6.77
6.47
6.08
5.55
4.90
4.16
3.35
2.49
1.59
0.63
-0.34
-1.29
-2.17
-2.97
-3.70
-4.44
-5.29
-6.32
-7.50
-8.79
-10.12
-11.46
-12.88
-14.53
-16.50
-18.78
-21.11
-23.03
-24.02
-23.68
-21.94
-19.04
-15.50
-11.89
-8.66
-6.00
-3.93
-2.29
-0.98
0.06
0.84
1.36
1.64
1.76
1.85
2.01
2.31
2.75
3.31
3.94
4.61
5.30
6.02
6.75
7.44
8.02
8.37
8.45
8.28
7.96
7.61
7.33
7.13
6.95
6.67
6.19
5.45
4.48
3.35
2.19
1.10
0.14
-0.67
-1.37
-1.99
-2.60
-3.16
-3.72
-4.29
-4.95
-5.81
-6.93
-8.27
-9.71
-11.09
-12.33
-13.48
-14.67
-16.08
-17.78
-19.70
-21.56
-23.02
-23.67
-23.26
-21.71
-19.17
-15.97
-12.49
-9.06
-5.86
-2.94
-0.30
1.98
3.76
4.87
5.26
5.06
4.66
4.48
4.86
5.84
7.20
8.56
9.56
10.04
10.10
9.99
10.01
10.34
10.96
11.71
12.36
12.73
12.78
12.57
12.19
11.73
11.20
10.59
9.89
9.14
8.42
7.84
7.42
7.09
6.71
6.16
5.38
4.40
3.35
2.42
1.74
1.38
1.30
1.37
1.38
1.12
0.44
-0.69
-2.13
-3.66
-5.02
-6.12
-6.99
-7.86
-8.96
-10.45
-12.29
-14.29
-16.19
-17.81
-19.15
-20.39
-21.79
-23.56
-25.73
-28.07
-30.17
-31.53
-31.70
-30.44
-27.79
-24.04
-19.65
-15.11
-10.83
-7.09
-3.98
-1.53
0.33
1.69
2.65
3.39
4.05
4.77
5.61
6.55
7.49
8.34
9.08
9.72
10.36
11.07
11.90
12.84
13.83
14.76
15.51
16.02
16.21
16.05
15.58
14.89
14.12
13.45
12.98
12.74
12.58
12.31
11.76
10.88
9.81
8.83
8.17
7.93
7.99
8.06
7.84
7.18
6.12
4.83
3.49
2.20
0.93
-0.36
-1.71
-3.06
-4.38
-5.63
-6.90
-8.26
-9.77
-11.42
-13.10
-14.71
-16.28
-17.92
-19.81
-22.11
-24.78
-27.60
-30.13
-31.79
-32.06
-30.63
-27.52
-23.10
-17.96
-12.72
-7.87
-3.65
-0.12
2.77
5.04
6.72
7.86
8.57
9.04
9.47
9.97
10.56
11.15
11.65
12.03
12.34
12.75
13.36
14.23
15.29
16.37
17.29
17.90
18.13
18.00
17.59
17.01
16.34
15.63
14.89
14.15
13.43
12.75
12.15
11.59
11.03
10.38
9.60
8.70
7.77
6.94
6.27
5.73
5.21
4.55
3.67
2.66
1.67
0.86
0.26
-0.31
-1.13
-2.43
-4.23
-6.33
-8.37
-10.09
-11.42
-12.54
-13.75
-15.28
-17.17
-19.33
-21.62
-24.01
-26.56
-29.26
-31.93
-34.08
-35.07
-34.35
-31.69
-27.38
-22.08
-16.59
-11.62
-7.55
-4.39
-1.94
0.08
1.90
3.61
5.20
6.60
7.75
8.61
9.27
9.77
10.18
10.51
10.78
11.03
11.39
12.02
13.02
14.35
15.81
17.09
17.90
18.08
17.68
16.94
16.14
15.49
15.07
14.77
14.42
13.90
13.16
12.27
11.33
10.43
9.53
8.55
7.43
6.17
4.87
3.68
2.71
1.97
1.36
0.74
-0.04
-1.06
-2.31
-3.77
-5.38
-7.06
-8.75
-10.39
-11.93
-13.34
-14.70
-16.13
-17.79
-19.83
-22.24
-24.85
-27.30
-29.13
-29.90
-29.32
-27.30
-23.97
-19.66
-14.81
-9.88
-5.27
-1.25
2.07
4.63
6.49
7.74
8.50
8.97
9.36
9.86
10.59
11.51
12.51
13.42
14.14
14.73
15.31
16.01
16.87
17.79
18.60
19.17
19.41
19.36
19.13
18.78
18.33
17.76
17.03
16.18
15.29
14.47
13.79
13.27
12.83
12.39
11.88
11.26
10.52
9.70
8.84
8.00
7.25
6.59
6.01
5.46
4.86
4.15
3.28
2.21
0.95
-0.46
-1.93
-3.36
-4.69
-5.91
-7.13
-8.50
-10.11
-11.95
-13.85
-15.60
-17.05
-18.22
-19.29
-20.54
-22.23
-24.46
-27.11
-29.84
-32.16
-33.54
-33.56
-32.01
-28.98
-24.85
-20.15
-15.44
-11.08
-7.24
-3.86
-0.85
1.85
4.20
6.04
