1650261111.00
64.000000
-0.00
-0.00
-0.00
-0.00
-0.00
-0.00
-0.00
-0.00
-0.00
-0.00
0.00
0.01
0.01
-0.00
-0.03
-0.05
-0.05
0.00
0.13
0.36
0.66
1.01
1.37
1.72
2.06
2.40
2.79
3.24
3.80
4.42
5.06
5.66
6.20
6.68
7.15
7.68
8.31
9.14
10.09
11.04
11.88
12.56
13.14
13.76
14.65
15.96
17.91
20.32
22.90
25.38
27.58
29.57
31.68
34.32
37.82
42.54
48.14
54.10
59.83
64.98
69.61
74.19
79.40
85.73
93.71
102.81
112.28
121.24
129.16
136.09
142.62
150.07
157.09
165.90
177.09
190.79
205.84
219.36
227.03
224.19
207.40
175.70
131.43
78.42
21.07
-37.29
-94.99
-151.75
-207.73
-262.80
-316.30
-366.90
-413.66
-455.73
-492.27
-522.13
-543.80
-555.64
-556.22
-544.83
-521.54
-487.59
-444.79
-395.28
-341.19
-284.53
-227.18
-170.92
-117.46
-68.16
-24.08
14.34
47.19
74.90
98.00
116.88
131.70
142.43
149.01
151.24
149.10
142.98
134.21
125.19
119.11
118.96
126.19
139.89
156.85
172.76
183.88
188.36
186.50
180.07
171.03
160.64
149.32
137.04
124.08
111.17
99.34
89.36
81.37
74.87
69.04
63.31
57.37
51.40
45.88
41.24
37.59
34.67
31.94
28.83
24.98
20.22
14.66
8.53
2.11
-4.28
-10.31
-15.66
-20.03
-23.18
-24.95
-25.24
-24.07
-21.62
-18.16
-14.19
-10.26
-6.90
-4.55
-3.45
-3.57
-4.57
-5.81
-6.51
-6.03
-4.24
-1.61
0.87
2.18
1.78
-0.13
-2.75
-5.10
-6.51
-6.88
-6.49
-5.76
-4.85
-3.70
-2.22
-0.46
1.24
2.44
2.87
2.61
2.02
1.66
1.93
2.93
4.41
5.91
6.95
7.20
6.64
5.49
4.06
2.70
1.60
0.83
0.45
0.45
0.81
1.42
2.10
2.58
2.66
2.29
1.66
1.12
0.94
1.25
1.90
2.64
3.28
3.77
4.27
4.95
5.83
6.70
7.17
6.88
5.68
3.73
1.44
-0.85
-2.90
-4.68
-6.29
-7.84
-9.31
-10.61
-11.58
-12.14
-12.24
-11.89
-11.08
-9.84
-8.25
-6.52
-4.99
-3.98
-3.63
-3.88
-4.43
-4.93
-5.11
-4.90
-4.42
-3.92
-3.59
-3.53
-3.68
-3.86
-3.89
-3.58
-2.84
-1.66
-0.14
1.62
3.62
5.87
8.39
11.17
14.22
17.42
20.45
22.87
24.13
23.91
22.06
18.73
14.56
10.69
8.37
8.41
10.73
14.30
17.59
18.97
17.48
13.37
8.27
4.30
3.11
5.09
9.41
14.70
19.59
22.71
23.03
19.84
12.47
0.04
-18.18
-42.19
-68.67
-91.97
-106.86
-111.55
-107.94
-99.42
-89.05
-78.82
-69.81
-62.50
-57.73
-56.57
-59.79
-66.42
-72.90
-73.51
-62.19
-35.70
4.12
49.57
89.77
114.93
120.68
109.72
89.83
69.77
55.21
47.72
44.28
41.75
38.71
36.10
35.99
39.10
44.98
50.99
53.79
51.34
44.24
35.21
28.10
24.97
25.98
29.48
32.92
34.46
33.60
31.09
27.70
23.36
16.96
7.23
-6.20
-22.00
-37.16
-48.66
-54.56
-54.82
-51.07
-45.77
-41.04
-38.05
-36.85
-36.58
-36.12
-34.59
-31.80
-28.27
-25.08
-23.07
-22.72
-23.94
-26.38
-29.74
-33.57
-37.02
-38.49
-36.55
-29.57
-18.03
-4.58
6.82
12.82
12.56
8.20
3.72
2.35
4.34
6.33
3.60
-6.86
-23.95
-42.38
-55.16
-56.97
-46.71
-27.72
-5.97
12.84
25.58
32.21
34.87
36.10
37.55
39.63
42.15
44.88
47.37
48.47
46.20
38.57
24.91
7.31
-9.46
-19.59
-18.75
-5.95
15.97
41.52
64.76
81.20
88.89
88.19
80.42
68.72
55.88
44.05
34.42
26.20
17.50
6.16
-9.49
-29.59
-52.16
-73.43
-88.76
-94.33
-88.13
-72.63
-52.89
-34.96
-23.40
-19.44
-21.18
-24.84
-27.07
-26.47
-23.84
-20.71
-18.14
-15.83
-12.53
-7.38
-0.62
6.15
10.93
12.35
10.70
7.64
5.35
5.37
7.82
11.40
14.09
14.25
11.40
6.52
1.45
-2.06
-3.07
-1.79
0.83
3.62
5.80
7.10
7.68
7.76
7.38
6.41
4.74
2.50
0.08
-2.01
-3.39
-3.92
-3.76
-3.20
-2.43
-1.57
-0.55
0.65
1.95
3.14
3.95
4.17
3.73
2.80
1.61
0.46
-0.48
-1.17
-1.74
-2.38
-3.21
-4.21
-5.29
-6.34
-7.36
-8.52
-10.07
-12.19
-14.95
-18.15
-21.42
-24.38
-26.76
-28.49
-29.66
-30.42
-30.83
-30.87
-30.37
-29.23
-27.49
-25.38
-23.26
-21.50
-20.36
-19.93
-20.16
-20.90
-21.91
-22.86
-23.30
-22.59
-20.04
-14.89
-6.59
5.03
19.61
36.19
53.27
69.09
81.92
90.44
93.97
92.51
86.66
77.40
65.81
53.02
40.10
28.03
17.63
9.39
3.34
-0.99
-4.43
-7.93
-12.24
-17.64
-23.84
-29.99
-34.88
-37.28
-36.34
-31.87
-24.53
-15.54
-6.29
2.21
9.68
16.46
23.11
29.82
36.09
40.77
42.49
40.16
33.30
22.04
7.05
-10.68
-29.71
-48.10
-63.47
-73.63
-77.33
-74.89
-68.00
-58.87
-49.11
-39.05
-27.98
-15.11
-0.66
13.92
26.56
35.76
41.44
44.95
48.08
51.78
55.55
57.60
56.04
50.12
41.08
31.76
25.54
24.67
29.17
36.80
44.10
48.04
47.32
42.71
36.31
30.25
25.56
21.96
18.43
14.20
9.32
4.72
1.48
0.22
0.73
2.06
3.09
2.99
1.46
-1.15
-4.15
-6.92
-9.12
-10.92
-12.80
-15.29
-18.68
-22.76
-26.93
-30.44
-32.73
-33.65
-33.45
-32.70
-32.01
-31.84
-32.35
-33.47
-34.89
-36.24
-37.13
-37.26
-36.45
-34.71
-32.14
-28.94
-25.36
-21.78
-18.67
-16.55
-15.79
-16.44
-18.11
-20.15
-21.85
-22.78
-22.84
-22.19
-20.97
-19.22
-16.85
-13.76
-10.04
-5.98
-1.94
1.87
5.45
8.95
12.60
16.47
20.44
24.21
27.37
29.54
30.46
30.13
28.95
27.55
26.61
26.60
27.59
29.27
31.15
32.88
34.40
35.88
37.54
39.46
41.49
43.40
44.96
46.03
46.51
46.25
45.09
42.89
39.69
35.74
31.29
26.48
21.18
15.15
8.26
0.75
-6.70
-13.23
-18.21
-21.53
-23.63
-25.26
-27.04
-29.23
-31.58
-33.64
-35.02
-35.67
-35.86
-35.96
-36.24
-36.65
-36.83
-36.35
-34.91
-32.52
-29.48
-26.21
-23.02
-19.99
-16.99
-13.85
-10.53
-7.31
-4.63
-2.98
-2.59
-3.34
-4.76
-6.26
-7.40
-8.00
-8.17
-8.13
-8.06
-7.97
-7.78
-7.37
-6.75
-6.01
-5.35
-4.90
-4.68
-4.63
-4.66
-4.75
-4.97
-5.48
-6.45
-7.98
-10.03
-12.45
-14.98
-17.33
-19.26
-20.66
-21.54
-21.99
-22.09
-21.87
-21.26
-20.11
-18.29
-15.70
-12.43
-8.71
-4.86
-1.20
2.03
4.72
6.88
8.56
9.75
10.47
10.67
10.40
9.78
9.01
8.29
7.77
7.47
7.31
7.17
6.91
6.43
5.60
4.35
2.66
0.66
-1.42
-3.34
-4.92
-6.20
-7.39
-8.80
-10.68
-13.11
-15.86
-18.50
-20.52
-21.48
-21.13
-19.57
-17.17
-14.68
-12.94
-12.66
-13.91
-15.86
-16.76
-14.42
-7.02
6.29
25.02
47.52
71.53
94.75
115.19
131.36
142.09
146.57
144.44
135.89
121.84
103.76
83.32
62.07
41.17
21.48
3.62
-11.84
-24.47
-34.19
-41.39
-46.96
-51.91
-56.89
-61.86
-66.16
-68.93
-69.61
-68.25
-65.42
-61.86
-58.07
-54.10
-49.70
-44.55
-38.44
-31.40
-23.56
-15.17
-6.41
2.61
11.77
20.80
29.04
35.28
37.90
35.29
26.55
12.15
-5.94
-24.76
-41.28
-53.21
-59.33
-59.40
-53.79
-43.18
-28.45
-10.67
8.93
28.97
47.98
64.34
76.46
83.27
84.62
81.71
76.87
72.82
71.55
73.57
78.05
83.22
86.97
86.96
80.66
65.68
40.79
6.97
-32.06
-70.77
-103.74
-127.89
-143.38
-152.60
-157.96
-159.84
-156.23
-144.20
-122.29
-92.21
-58.57
-27.06
-1.93
15.45
26.50
34.08
40.59
46.96
52.67
56.80
59.04
60.01
60.93
62.71
65.38
68.01
69.28
68.06
64.04
57.82
50.62
43.72
38.02
33.73
30.38
27.06
22.83
17.10
9.83
1.58
-6.76
-14.29
-20.34
-24.68
-27.42
-28.97
-29.78
-30.27
-30.72
-31.20
-31.64
-31.82
-31.48
-30.47
-28.84
-26.75
-24.50
-22.27
-20.17
-18.14
-16.05
-13.85
-11.56
-9.32
-7.25
-5.37
-3.59
-1.78
0.18
2.26
4.27
5.95
7.06
7.52
7.41
6.94
6.36
5.90
5.67
5.69
5.94
6.39
6.99
7.70
8.46
9.18
9.76
10.13
10.28
10.20
9.95
9.53
8.96
8.20
7.19
5.93
4.47
2.89
1.32
-0.16
-1.47
-2.59
-3.52
-4.27
-4.86
-5.34
-5.79
-6.28
-6.88
-7.61
-8.45
-9.30
-10.07
-10.64
-10.98
-11.14
-11.25
-11.47
-11.90
-12.52
-13.21
-13.79
-14.06
-13.90
-13.25
-12.09
-10.49
-8.59
-6.57
-4.62
-2.89
-1.42
-0.15
0.99
2.02
2.90
3.53
3.85
3.87
3.67
3.33
2.89
2.32
1.59
0.69
-0.32
-1.30
-2.13
-2.74
-3.15
-3.43
-3.72
-4.08
-4.57
-5.19
-5.89
-6.62
-7.33
-7.99
-8.59
-9.18
-9.76
-10.34
-10.84
-11.15
-11.18
-10.80
-10.00
-8.79
-7.18
-5.25
-3.05
-0.74
1.52
3.53
5.14
6.29
7.01
7.39
7.52
7.48
7.34
7.12
6.87
6.58
6.20
5.66
4.92
3.97
2.95
2.02
1.32
0.91
0.69
0.49
0.13
-0.52
-1.46
-2.61
-3.86
-5.06
-6.16
-7.14
-8.06
-9.04
-10.17
-11.49
-12.97
-14.45
-15.73
-16.58
-16.83
-16.40
-15.30
-13.59
-11.44
-9.02
-6.55
-4.21
-2.14
-0.44
0.90
1.89
2.57
2.97
3.13
3.13
3.09
3.10
3.19
3.29
3.29
3.09
2.66
2.11
1.62
1.37
1.43
1.74
2.11
2.28
2.08
1.44
0.45
-0.72
-1.93
-3.04
-4.04
-4.99
-5.97
-7.09
-8.43
-9.97
-11.67
-13.36
-14.79
-15.65
-15.67
-14.68
-12.69
-9.92
-6.73
-3.46
-0.38
2.40
4.87
7.06
8.95
10.46
11.52
12.06
12.17
11.97
11.63
11.30
11.02
10.81
10.63
10.47
10.30
10.07
9.77
9.36
8.80
8.10
7.26
6.33
5.34
4.32
3.25
2.10
0.83
-0.53
-1.92
-3.31
-4.74
-6.33
-8.19
-10.34
-12.59
-14.59
-15.90
-16.16
-15.24
-13.23
-10.39
-7.04
-3.50
0.04
3.39
6.44
9.07
11.19
12.71
13.61
13.93
13.80
13.39
12.92
12.52
12.30
12.24
12.32
12.45
12.57
12.58
12.42
12.05
11.45
10.70
9.86
9.00
8.13
7.21
6.20
5.05
3.79
2.48
1.22
0.03
-1.15
-2.44
-4.01
-5.97
-8.28
-10.74
-12.99
-14.62
-15.26
-14.73
-13.02
-10.31
-6.88
-3.04
0.85
4.53
7.75
10.37
12.32
13.61
14.29
14.47
14.30
13.94
13.51
13.09
12.69
12.25
11.77
11.24
10.75
10.33
10.00
9.69
9.29
8.71
7.96
7.05
6.04
4.96
3.79
2.54
1.22
-0.13
-1.46
-2.76
-4.05
-5.40
-6.90
-8.59
-10.41
-12.24
-13.83
-14.90
-15.19
-14.49
-12.74
-10.07
-6.71
-3.02
0.63
3.92
6.66
8.79
10.35
11.44
12.17
12.60
12.74
12.59
12.18
11.57
10.83
10.06
9.32
8.69
8.26
8.13
8.33
8.79
9.28
9.51
9.22
8.30
6.79
4.91
2.87
0.82
-1.19
-3.20
-5.23
-7.27
-9.24
-11.07
-12.72
-14.17
-15.45
-16.53
-17.32
-17.66
-17.35
-16.23
-14.26
-11.53
-8.28
-4.77
-1.27
1.98
4.81
7.11
8.80
9.89
10.44
10.60
10.54
10.39
10.25
10.12
9.97
9.76
9.52
9.27
9.09
9.00
8.96
8.85
8.55
7.90
6.85
5.47
3.93
2.40
0.99
-0.30
-1.61
-3.08
-4.81
-6.76
-8.82
-10.82
-12.64
-14.17
-15.31
-15.92
-15.85
-15.00
-13.43
-11.34
-9.08
-6.97
-5.21
-3.81
-2.66
-1.62
-0.61
0.39
1.36
2.27
3.16
4.08
5.10
6.22
7.36
8.36
9.11
9.54
9.66
9.57
9.36
9.02
8.49
7.65
6.44
4.91
3.21
1.51
-0.09
-1.61
-3.16
-4.84
-6.68
-8.56
-10.36
-11.97
-13.36
-14.55
-15.46
-15.93
-15.69
-14.51
-12.31
-9.24
-5.67
-2.00
1.39
4.27
6.54
8.17
9.17
9.61
9.61
9.37
9.13
9.08
9.30
9.71
10.18
10.54
10.68
10.57
10.27
9.88
9.51
9.21
8.97
8.71
8.34
7.78
7.02
6.13
5.20
4.24
3.19
1.87
0.13
-2.12
-4.78
-7.63
-10.34
-12.61
-14.22
-15.03
-15.03
-14.27
-12.84
-10.89
-8.60
-6.15
-3.75
-1.53
0.40
1.95
3.08
3.77
4.08
4.06
3.85
3.55
3.23
2.94
2.72
2.61
2.66
2.88
3.22
3.58
3.82
3.85
3.65
3.23
2.62
1.82
0.83
-0.34
-1.62
-2.92
-4.10
-5.12
-5.98
-6.79
-7.68
-8.75
-10.03
-11.45
-12.84
-13.97
-14.51
-14.20
-12.84
-10.47
-7.29
-3.68
-0.04
3.28
6.11
8.34
10.00
11.14
11.79
12.00
11.82
11.34
10.70
10.04
9.48
9.04
8.70
8.35
7.89
7.24
6.42
5.56
4.80
4.21
3.74
3.25
2.54
1.47
0.08
-1.47
-2.97
-4.27
-5.38
-6.46
-7.66
-9.12
-10.84
-12.65
-14.34
-15.66
-16.42
-16.48
-15.76
-14.24
-11.99
-9.18
-6.02
-2.81
0.20
2.80
4.94
6.64
8.01
9.13
10.05
10.75
11.20
11.41
11.43
11.31
11.10
10.78
10.31
9.69
8.96
8.23
7.60
7.11
6.70
6.24
5.57
4.61
3.38
1.99
0.59
-0.70
-1.87
-2.95
-4.02
-5.17
-6.44
-7.83
-9.38
-11.06
-12.85
-14.66
-16.26
-17.41
-17.83
-17.38
-16.04
-13.95
-11.34
-8.43
-5.41
-2.40
0.45
3.01
5.15
6.75
7.79
8.34
8.53
8.52
8.43
8.28
8.07
7.76
7.38
7.02
6.74
6.59
6.56
6.56
6.48
6.27
5.92
5.46
4.93
4.33
3.64
2.80
1.81
0.73
-0.33
-1.25
-1.97
-2.50
-2.98
-3.57
-4.47
-5.76
-7.43
-9.31
-11.16
-12.67
-13.59
-13.71
-12.97
-11.39
-9.10
-6.31
-3.27
-0.28
2.41
4.57
6.09
6.98
7.33
7.31
7.09
6.79
6.48
6.17
5.85
5.51
5.18
4.85
4.58
4.38
4.27
4.26
4.29
4.29
4.15
3.82
3.29
2.63
1.95
1.32
0.71
0.07
-0.71
-1.59
-2.50
-3.29
-3.90
-4.42
-5.03
-5.97
-7.34
-9.05
-10.89
-12.56
-13.86
-14.69
-15.07
-15.03
-14.58
-13.69
-12.30
-10.41
-8.10
-5.51
-2.84
-0.31
1.94
3.81
5.25
6.28
6.94
7.25
7.27
7.06
6.69
6.25
5.82
5.44
5.14
4.92
4.77
4.73
4.78
4.88
4.92
4.79
4.39
3.72
2.85
1.91
1.01
0.22
-0.47
-1.13
-1.86
-2.72
-3.75
-4.93
-6.18
-7.43
-8.58
-9.57
-10.40
-11.08
-11.59
-11.88
-11.81
-11.19
-9.89
-7.85
-5.22
-2.27
0.64
3.18
5.14
6.49
7.36
7.95
8.43
8.85
9.15
9.18
8.88
8.28
7.57
6.95
6.56
6.39
6.33
6.24
6.03
5.69
5.25
4.77
4.23
3.62
2.92
2.13
1.27
0.40
-0.49
-1.35
-2.19
-3.03
-3.88
-4.80
-5.81
-6.88
-8.00
-9.13
-10.28
-11.48
-12.69
-13.77
-14.49
-14.61
-13.99
-12.64
-10.73
-8.46
-5.99
-3.37
-0.68
1.98
4.40
6.35
7.72
8.56
9.04
9.36
9.64
9.89
10.00
9.87
9.51
8.97
8.37
7.85
7.44
7.16
6.93
6.68
6.32
5.76
4.99
4.05
3.03
2.03
1.10
0.24
-0.60
-1.52
-2.57
-3.77
-5.05
-6.31
-7.44
-8.40
-9.26
-10.09
-11.00
-12.00
-13.07
-14.08
-14.90
-15.39
-15.43
-14.92
-13.83
-12.17
-10.04
-7.56
-4.88
-2.16
0.46
2.82
4.78
6.24
7.19
7.73
8.02
8.25
8.50
8.75
8.95
9.04
9.03
8.98
9.00
9.14
9.36
9.58
9.69
9.59
9.23
8.57
7.62
6.42
5.03
3.58
2.17
0.88
-0.27
-1.32
-2.35
-3.43
-4.61
-5.87
-7.16
-8.42
-9.63
-10.84
-12.11
-13.47
-14.88
-16.18
-17.11
-17.40
-16.84
-15.35
-13.01
-10.01
-6.68
-3.31
-0.17
2.59
4.87
6.66
7.97
8.83
9.29
9.41
9.28
8.98
8.62
8.33
8.20
8.31
8.64
9.10
9.49
9.58
9.25
8.48
7.41
6.28
5.31
4.58
4.03
3.52
2.91
2.10
1.08
-0.13
-1.46
-2.88
-4.31
-5.66
-6.86
-7.86
-8.70
-9.50
-10.43
-11.61
-13.04
-14.56
-15.88
-16.69
-16.72
-15.84
-14.06
-11.56
-8.57
-5.38
-2.29
0.49
2.78
4.53
5.78
6.63
7.18
7.53
7.71
7.75
7.72
7.69
7.72
7.86
8.06
8.23
8.27
8.12
7.79
7.37
6.95
6.58
6.24
5.86
5.36
4.68
3.79
2.75
1.64
0.56
-0.42
-1.27
-2.06
-2.85
-3.71
-4.69
-5.74
-6.84
-7.99
-9.17
-10.38
-11.53
-12.43
-12.83
-12.51
-11.37
-9.48
-7.00
-4.19
-1.26
1.61
4.24
6.47
8.13
9.15
9.53
9.41
8.99
8.49
8.04
7.72
7.51
7.39
7.35
7.36
7.43
7.52
7.53
7.38
6.99
6.37
5.59
4.74
3.90
3.09
2.25
1.34
0.32
-0.82
-2.02
-3.21
-4.33
-5.36
-6.30
-7.20
-8.09
-8.99
-9.94
-10.96
-12.07
-13.22
-14.29
-15.08
-15.33
-14.83
-13.48
-11.34
-8.60
-5.54
-2.39
0.66
3.49
6.00
8.12
9.78
10.94
11.64
11.90
11.79
11.38
10.77
10.10
9.53
9.17
9.03
9.01
8.96
8.75
8.38
7.92
7.50
7.15
6.82
6.38
5.68
4.68
3.42
2.02
0.63
-0.65
-1.76
-2.73
-3.62
-4.48
-5.34
-6.22
-7.14
-8.12
-9.24
-10.57
-12.17
-13.96
-15.77
-17.32
-18.28
-18.40
-17.54
-15.71
-13.08
-9.91
-6.52
-3.21
-0.24
2.25
4.23
5.77
6.97
7.88
8.54
8.93
9.06
8.99
8.84
8.72
8.69
8.74
8.75
8.64
8.35
7.94
7.49
7.13
6.90
6.77
6.63
6.38
5.88
5.07
3.93
2.53
1.01
-0.47
-1.81
-2.98
-4.03
-5.06
-6.08
-7.03
-7.85
-8.51
-9.14
-9.94
-11.10
-12.65
-14.43
-16.12
-17.40
-18.03
-17.88
-16.93
-15.20
-12.76
-9.76
-6.38
-2.90
0.47
3.54
6.20
8.34
9.87
10.77
11.08
10.92
10.50
10.02
9.62
9.39
9.35
9.50
9.77
10.06
10.18
9.99
9.46
8.65
7.74
6.89
6.14
5.43
4.66
3.80
2.92
2.15
1.54
1.01
0.38
-0.53
-1.80
-3.31
-4.86
-6.24
-7.34
-8.21
-9.00
-9.88
-10.94
-12.18
-13.48
-14.61
-15.33
-15.38
-14.56
-12.77
-10.08
-6.69
-2.98
0.65
3.85
6.38
8.19
9.36
10.09
10.55
10.83
10.94
10.89
10.65
10.28
9.86
9.48
9.19
8.98
8.86
8.81
8.82
8.86
8.85
8.66
8.14
7.18
5.80
4.12
2.36
0.77
-0.49
-1.36
-1.89
-2.26
-2.66
-3.25
-4.10
-5.14
-6.29
-7.45
-8.56
-9.67
-10.84
-12.11
-13.44
-14.70
-15.68
-16.15
-15.93
-14.91
-13.14
-10.76
-8.01
-5.13
-2.33
0.26
2.61
4.68
6.48
7.94
9.02
9.67
9.92
9.85
9.56
9.17
8.77
8.41
8.15
8.01
7.98
8.02
8.07
8.03
7.87
7.58
7.16
6.61
5.91
5.05
4.03
2.90
1.77
0.72
-0.20
-1.05
-1.93
-2.94
-4.12
-5.47
-6.91
-8.33
-9.69
-10.98
-12.23
-13.48
-14.76
-15.98
-17.02
-17.68
-17.77
-17.13
-15.73
-13.60
-10.86
-7.68
-4.28
-0.85
2.37
5.17
7.39
8.93
9.82
10.18
10.18
9.99
9.68
9.31
8.89
8.50
8.20
8.09
8.18
8.43
8.70
8.83
8.69
8.23
7.53
6.70
5.88
5.15
4.51
3.90
3.18
2.23
0.97
-0.58
-2.29
-3.95
-5.35
-6.37
-7.02
-7.44
-7.87
-8.58
-9.74
-11.41
-13.48
-15.70
-17.71
-19.10
-19.56
-18.89
-17.11
-14.39
-11.04
-7.41
-3.81
-0.49
2.43
4.86
6.80
8.28
9.32
10.00
10.40
10.62
10.72
10.74
10.64
10.38
9.99
9.55
9.21
9.10
9.24
9.53
9.78
9.81
9.57
9.09
8.46
7.73
6.85
5.79
4.53
3.15
1.77
0.45
-0.81
-2.11
-3.53
-5.07
-6.63
-8.04
-9.20
-10.14
-11.03
-12.10
-13.47
-15.11
-16.78
-18.15
-18.87
-18.71
-17.60
-15.63
-12.96
-9.83
-6.45
-3.06
0.12
2.89
5.13
6.79
7.95
8.75
9.33
9.76
10.06
10.18
10.08
9.79
9.40
9.05
8.88
8.92
9.12
9.30
9.29
8.98
8.33
7.43
6.42
5.44
4.57
3.83
3.18
2.52
1.78
0.90
-0.15
-1.36
-2.71
-4.17
-5.68
-7.23
-8.77
-10.26
-11.65
-12.86
-13.82
-14.46
-14.67
-14.30
-13.22
-11.33
-8.63
-5.32
-1.72
1.75
4.75
7.10
8.79
9.96
10.77
11.34
11.66
11.69
11.44
10.97
10.46
10.08
9.92
9.92
9.91
9.70
9.18
8.37
7.46
6.62
6.03
5.66
5.37
4.92
4.15
2.99
1.55
-0.00
-1.49
-2.84
-4.09
-5.35
-6.70
-8.16
-9.68
-11.22
-12.74
-14.26
-15.76
-17.16
-18.29
-18.92
-18.79
-17.78
-15.85
-13.12
-9.80
-6.15
-2.46
1.01
4.04
6.51
8.39
9.75
10.66
11.21
11.47
11.46
11.24
10.85
10.38
9.92
9.52
9.22
8.99
8.79
8.55
8.22
7.77
7.18
6.48
5.68
4.82
3.89
2.87
1.72
0.42
-1.00
-2.49
-3.95
-5.36
-6.70
-8.03
-9.41
-10.89
-12.49
-14.18
-15.91
-17.54
-18.93
-19.86
-20.08
-19.38
-17.61
-14.83
-11.24
-7.21
-3.16
0.56
3.77
6.40
8.51
10.20
11.52
12.47
13.02
13.18
12.96
12.48
11.85
11.21
10.67
10.30
10.09
10.00
9.92
9.76
9.45
8.95
8.26
7.43
6.48
5.44
4.32
3.13
1.86
0.51
-0.90
-2.33
-3.73
-5.03
-6.24
-7.38
-8.57
-9.90
-11.47
-13.29
-15.24
-17.14
-18.72
-19.71
-19.88
-19.07
-17.26
-14.58
-11.29
-7.70
-4.12
-0.79
2.19
4.82
7.13
9.10
10.65
11.68
12.10
11.98
11.51
10.95
10.51
10.28
10.22
10.20
10.08
9.81
9.38
8.86
8.30
7.72
7.12
6.48
5.78
5.01
4.17
3.28
2.33
1.28
0.10
-1.29
-2.88
-4.61
-6.38
-8.07
-9.57
-10.90
-12.09
-13.20
-14.29
-15.32
-16.22
-16.84
-16.99
-16.49
-15.19
-13.07
-10.23
-6.91
-3.40
0.01
3.11
5.76
7.93
9.56
10.67
11.25
11.39
11.23
10.94
10.71
10.67
10.83
11.09
11.29
11.25
10.92
10.34
9.66
9.04
8.54
8.13
7.70
7.12
6.35
5.46
4.57
3.77
3.00
2.10
0.91
-0.63
-2.42
-4.22
-5.83
-7.15
-8.30
-9.49
-10.88
-12.47
-14.06
-15.32
-15.92
-15.63
-14.34
-12.11
-9.08
-5.56
-1.90
1.52
4.37
6.49
7.87
8.63
8.94
8.98
8.83
8.56
8.22
7.83
7.45
7.13
6.90
6.76
6.68
6.58
6.37
5.99
5.45
4.79
4.10
3.43
2.77
2.07
1.24
0.29
-0.79
-1.93
-3.13
-4.39
-5.74
-7.25
-8.89
-10.63
-12.38
-14.09
-15.74
-17.34
-18.83
-20.04
-20.71
-20.55
-19.35
-17.10
-13.99
-10.35
-6.50
-2.73
0.81
4.00
6.78
9.05
10.76
11.91
12.54
12.77
12.72
12.50
12.21
11.94
11.75
11.71
11.81
11.96
12.02
11.86
11.39
10.65
9.74
8.72
7.63
6.44
5.09
3.60
2.07
0.60
-0.74
-1.95
-3.14
-4.38
-5.69
-7.04
-8.38
-9.72
-11.15
-12.77
-14.65
-16.67
-18.56
-19.94
-20.43
-19.80
-17.97
-15.12
-11.52
-7.56
-3.57
0.17
3.49
6.31
8.63
10.46
11.81
12.67
13.05
12.97
12.54
11.93
11.37
11.08
11.14
11.45
11.79
11.94
11.75
11.23
10.48
9.65
8.78
7.85
6.76
5.49
4.09
2.68
1.38
0.24
-0.80
-1.84
-2.99
-4.30
-5.76
-7.29
-8.80
-10.24
-11.58
-12.89
-14.25
-15.75
-17.33
-18.85
-20.01
-20.48
-20.01
-18.49
-15.98
-12.71
-8.95
-5.01
-1.15
2.41
5.49
7.99
9.83
11.06
11.74
12.00
11.96
11.71
11.29
10.74
10.14
9.55
9.10
8.84
8.77
8.81
8.84
8.75
8.48
7.97
7.20
6.14
4.82
3.31
1.77
0.38
-0.75
-1.59
-2.28
-2.96
-3.80
-4.84
-6.05
-7.37
-8.75
-10.16
-11.60
-13.01
-14.28
-15.23
-15.66
-15.40
-14.37
-12.59
-10.19
-7.33
-4.22
-1.05
2.02
4.84
7.28
9.25
10.69
11.57
11.93
11.83
11.41
10.82
10.20
9.70
9.36
9.18
9.09
9.00
8.81
8.50
8.02
7.39
6.62
5.71
4.70
3.63
2.55
1.50
0.53
-0.36
-1.23
-2.18
-3.32
-4.69
-6.26
-7.91
-9.51
-11.00
-12.41
-13.85
-15.41
-17.03
-18.49
-19.44
-19.58
-18.74
-16.97
-14.44
-11.42
-8.14
-4.76
-1.43
1.73
4.52
6.79
8.38
9.26
9.52
9.36
9.05
8.80
8.73
8.81
8.94
8.95
8.75
8.34
7.81
7.24
6.72
6.27
5.87
5.48
5.09
4.65
4.07
3.28
2.17
0.74
-0.95
-2.71
-4.35
-5.72
-6.80
-7.67
-8.51
-9.48
-10.69
-12.18
-13.90
-15.80
-17.72
-19.45
-20.68
-21.09
-20.44
-18.67
-15.95
-12.56
-8.86
-5.12
-1.51
1.85
4.90
7.52
9.64
11.22
12.30
12.98
13.33
13.42
13.22
12.78
12.20
11.62
11.20
10.99
10.94
10.85
10.54
9.93
9.05
8.07
7.18
6.43
5.77
5.01
3.97
2.57
0.91
-0.84
-2.47
-3.89
-5.14
-6.37
-7.70
-9.19
-10.82
-12.50
-14.17
-15.79
-17.36
-18.82
-19.99
-20.59
-20.32
-18.97
-16.54
-13.25
-9.45
-5.56
-1.89
1.36
4.15
6.50
8.43
9.97
11.10
11.81
12.12
12.05
11.68
11.10
10.48
10.01
9.81
9.89
10.08
10.16
9.92
9.29
8.37
7.37
6.45
5.66
4.93
4.12
3.13
1.93
0.56
-0.91
-2.43
-3.97
-5.51
-7.02
-8.46
-9.79
-11.02
-12.21
-13.44
-14.72
-16.00
-17.06
-17.62
-17.37
-16.07
-13.68
-10.36
-6.46
-2.42
1.39
4.77
7.65
10.06
12.02
13.46
14.33
14.58
14.29
13.68
13.00
12.48
12.20
12.12
12.09
11.99
11.79
11.52
11.26
11.03
10.75
10.28
9.49
8.30
6.76
4.98
3.15
1.40
-0.17
-1.57
-2.83
-4.03
-5.23
-6.52
-7.95
-9.56
-11.35
-13.27
-15.21
-16.95
-18.26
-18.87
-18.55
-17.18
-14.76
-11.45
-7.54
-3.40
0.62
4.26
7.36
9.86
11.75
13.06
13.82
14.08
13.93
13.46
12.82
12.13
11.50
10.98
10.58
10.25
9.96
9.65
9.30
8.89
8.43
7.90
7.24
6.40
5.33
4.05
2.61
1.09
-0.43
-1.93
-3.42
-4.91
-6.40
-7.86
-9.28
-10.66
-12.08
-13.63
-15.36
-17.16
-18.80
-19.93
-20.19
-19.30
-17.23
-14.10
-10.22
-5.95
-1.63
2.47
6.15
9.28
11.78
13.60
14.74
15.27
15.28
14.91
14.33
13.68
13.05
12.45
11.85
11.23
10.58
9.97
9.47
9.10
8.81
8.48
7.96
7.18
6.16
4.98
3.75
2.49
1.17
-0.28
-1.87
-3.54
-5.19
-6.69
-7.96
-9.03
-10.00
-11.04
-12.32
-13.95
-15.92
-18.09
-20.16
-21.71
-22.34
-21.75
-19.84
-16.75
-12.82
-8.47
-4.14
-0.18
3.19
5.90
7.99
9.56
10.69
11.47
11.93
12.10
12.00
11.70
11.30
10.89
10.54
10.27
10.07
9.90
9.74
9.52
9.18
8.66
7.88
6.87
5.69
4.48
3.36
2.39
1.54
0.70
-0.23
-1.35
-2.65
-4.06
-5.51
-6.95
-8.36
-9.75
-11.11
-12.42
-13.71
-15.06
-16.52
-18.07
-19.54
-20.58
-20.81
-19.88
-17.69
-14.37
-10.31
-6.00
-1.88
1.73
4.68
6.94
8.59
9.76
10.56
11.12
11.49
11.69
11.70
11.51
11.11
10.57
9.96
9.37
8.82
8.34
7.90
7.51
7.16
6.87
6.60
6.29
5.81
5.04
3.92
2.50
0.90
-0.68
-2.12
-3.37
-4.46
-5.45
-6.43
-7.41
-8.44
-9.54
-10.75
-12.12
-13.65
-15.22
-16.64
-17.60
-17.86
-17.20
-15.58
-13.06
-9.85
-6.24
-2.54
0.94
3.98
6.48
8.42
9.84
10.83
11.44
11.68
11.58
11.18
10.58
9.93
9.40
9.07
8.97
8.99
9.02
8.92
8.62
8.13
7.53
6.89
6.26
5.60
4.87
3.98
2.90
1.64
0.27
-1.13
-2.52
-3.89
-5.25
-6.59
-7.88
-9.09
-10.25
-11.44
-12.76
-14.23
-15.78
-17.19
-18.14
-18.33
-17.56
-15.78
-13.09
-9.74
-6.03
-2.28
1.20
4.19
6.54
8.22
9.30
9.91
10.20
10.32
10.34
10.27
10.08
9.78
9.39
8.99
8.67
8.48
8.35
8.21
7.95
7.52
6.96
6.31
5.62
4.91
4.13
3.28
2.33
1.29
0.16
-1.04
-2.30
-3.57
-4.78
-5.89
-6.91
-7.95
-9.14
-10.57
-12.27
-14.14
-16.02
-17.71
-19.00
-19.70
-19.62
-18.62
-16.66
-13.84
-10.39
-6.63
-2.89
0.61
3.70
6.32
8.44
10.01
11.04
11.56
11.68
11.55
11.29
11.01
10.72
10.45
10.21
10.02
9.91
9.82
9.67
9.34
8.79
8.07
7.30
6.60
6.00
5.43
4.74
3.77
2.45
0.81
-1.00
-2.84
-4.56
-6.08
-7.39
-8.52
-9.53
-10.49
-11.49
-12.65
-14.05
-15.70
-17.49
-19.13
-20.22
-20.37
-19.32
-17.07
-13.85
-10.05
-6.10
-2.34
1.03
3.91
6.24
8.01
9.27
10.08
10.59
10.94
11.22
11.47
11.66
11.73
11.64
11.39
11.01
10.56
10.08
9.58
9.10
8.63
8.15
7.62
6.96
6.10
5.02
3.77
2.43
1.13
-0.09
-1.24
-2.37
-3.58
-4.86
-6.18
-7.46
-8.67
-9.81
-10.95
-12.17
-13.52
-15.01
-16.53
-17.89
-18.82
-19.04
-18.33
-16.57
-13.84
-10.39
-6.56
-2.73
0.80
3.85
6.32
8.22
9.56
10.39
10.81
10.91
10.82
10.64
10.44
10.25
10.06
9.87
9.70
9.53
9.32
9.03
8.58
7.95
7.17
6.33
5.52
4.81
4.20
3.59
2.86
1.93
0.76
-0.60
-2.03
-3.43
-4.72
-5.88
-6.94
-7.96
-9.04
-10.26
-11.64
-13.13
-14.53
-15.60
-16.04
-15.64
-14.27
-11.97
-8.89
-5.29
-1.47
2.22
5.50
8.15
10.09
11.34
12.01
12.21
12.04
11.60
10.99
10.32
9.72
9.27
8.97
8.78
8.60
8.37
8.06
7.68
7.23
6.71
6.07
5.28
4.33
3.25
2.09
0.92
-0.21
-1.27
-2.27
-3.25
-4.30
-5.48
-6.83
-8.35
-10.00
-11.75
-13.56
-15.36
-17.03
-18.34
-19.04
-18.89
-17.79
-15.79
-13.06
-9.85
-6.34
-2.69
0.97
4.45
7.49
9.86
11.40
12.13
12.21
11.92
11.50
11.10
10.76
10.45
10.14
9.82
9.49
9.12
8.69
8.16
7.52
6.86
6.27
5.83
5.51
5.20
4.67
3.76
2.40
0.67
-1.22
-3.07
-4.68
-6.00
-7.10
-8.11
-9.14
-10.29
-11.62
-13.12
-14.77
-16.48
-18.07
-19.29
-19.80
-19.33
-17.68
-14.89
-11.19
-6.99
-2.74
1.18
4.50
7.12
9.08
10.46
11.33
11.79
11.85
11.60
11.15
10.63
10.22
10.00
10.01
10.14
10.25
10.16
9.78
9.11
8.26
7.39
6.64
6.09
5.69
5.29
4.71
3.81
2.55
1.03
-0.62
-2.27
-3.84
-5.30
-6.65
-7.87
-8.98
-10.02
-11.09
-12.32
-13.78
-15.44
-17.05
-18.31
-18.89
-18.56
-17.21
-14.90
-11.80
-8.15
-4.24
-0.38
3.11
6.02
8.19
9.63
10.42
10.70
10.65
10.42
10.15
9.92
9.79
9.76
9.74
9.67
9.45
9.06
8.53
7.95
7.41
6.92
6.46
5.91
5.19
4.29
3.23
2.10
0.95
-0.23
-1.45
-2.76
-4.12
-5.47
-6.73
-7.85
-8.89
-9.95
-11.16
-12.61
-14.22
-15.79
-17.00
-17.46
-16.89
-15.18
-12.41
-8.89
-4.98
-1.01
2.73
6.11
9.01
11.37
13.14
14.27
14.79
14.79
14.40
13.80
13.13
12.50
11.97
11.57
11.26
10.99
10.70
10.30
9.77
9.10
8.33
7.50
6.64
5.74
4.79
3.75
2.64
1.48
0.28
-0.95
-2.26
-3.67
-5.20
-6.82
-8.49
-10.17
-11.84
-13.52
-15.16
-16.69
-17.94
-18.71
-18.81
-18.10
-16.54
-14.15
-11.06
-7.50
-3.76
-0.18
2.98
5.54
7.49
8.89
9.86
10.46
10.75
10.74
10.47
10.02
9.49
8.99
8.60
8.34
8.21
8.18
8.22
8.28
8.31
8.22
7.94
7.38
6.47
5.26
3.82
2.30
0.82
-0.55
-1.84
-3.10
-4.41
-5.78
-7.18
-8.62
-10.14
-11.82
-13.68
-15.66
-17.51
-18.92
-19.58
-19.25
-17.90
-15.58
-12.51
-8.91
-5.05
-1.20
2.43
5.63
8.27
10.30
11.72
12.58
12.98
13.00
12.80
12.48
12.15
11.83
11.49
11.07
10.52
9.92
9.35
8.90
8.56
8.22
7.75
7.03
6.06
4.92
3.72
2.46
1.08
-0.49
-2.29
-4.18
-5.96
-7.40
-8.46
-9.25
-10.05
-11.14
-12.67
-14.61
-16.70
-18.59
-19.94
-20.45
-19.99
-18.53
-16.16
-13.04
-9.40
-5.51
-1.70
1.78
4.75
7.15
9.05
10.59
11.83
12.78
13.34
13.42
13.01
12.22
11.29
10.50
10.04
9.97
10.17
10.43
10.52
10.33
9.81
9.04
8.13
7.13
6.03
4.81
3.41
1.87
0.30
-1.20
-2.58
-3.87
-5.17
-6.55
-8.01
-9.52
-10.99
-12.43
-13.89
-15.46
-17.10
-18.60
-19.61
-19.76
-18.83
-16.85
-14.05
-10.74
-7.23
-3.70
-0.29
2.89
5.70
7.97
9.60
10.59
11.02
11.06
10.88
10.59
10.28
9.99
9.71
9.44
9.16
8.88
8.61
8.34
8.05
7.70
7.22
6.60
5.83
4.96
4.00
2.96
1.83
0.60
-0.68
-1.96
-3.15
-4.25
-5.30
-6.34
-7.47
-8.70
-10.05
-11.50
-12.97
-14.37
-15.55
-16.24
-16.18
-15.14
-13.02
-9.93
-6.18
-2.19
1.64
4.98
7.65
9.60
10.85
11.54
11.77
11.68
11.41
11.05
10.69
10.34
10.00
9.64
9.23
8.72
8.12
7.42
6.66
5.89
5.17
4.53
3.96
3.41
2.78
1.99
1.02
-0.14
-1.43
-2.81
-4.22
-5.62
-6.97
-8.26
-9.54
-10.89
-12.37
-13.98
-15.57
-16.84
-17.47
-17.18
-15.85
-13.57
-10.56
-7.15
-3.61
-0.19
2.92
5.56
7.66
9.18
10.17
10.70
10.91
10.87
10.70
10.42
10.11
9.77
9.40
8.97
8.46
7.83
7.14
6.49
5.98
5.64
5.39
5.09
4.57
3.73
2.58
1.18
-0.33
-1.85
-3.27
-4.55
-5.71
-6.80
-7.92
-9.18
-10.66
-12.35
-14.19
-16.00
-17.55
-18.60
-18.96
-18.50
-17.16
-14.99
-12.15
-8.83
-5.26
-1.66
1.75
4.81
7.40
9.47
11.01
12.05
12.69
12.97
12.90
12.48
11.74
10.78
9.77
8.90
8.30
7.98
7.85
7.73
7.48
7.01
6.33
5.48
4.50
3.42
2.22
0.94
-0.39
-1.72
-3.03
-4.30
-5.54
-6.75
-7.92
-9.04
-10.15
-11.35
-12.72
-14.30
-16.01
-17.61
-18.75
-19.06
-18.28
-16.36
-13.41
-9.75
-5.73
-1.75
1.87
4.90
7.24
8.92
10.07
10.86
11.41
11.78
11.92
11.80
11.41
10.86
10.29
9.82
9.45
9.13
8.73
8.19
7.52
6.81
6.14
5.51
4.86
4.07
3.05
1.80
0.41
-1.01
-2.37
-3.63
-4.79
-5.88
-6.92
-7.98
-9.09
-10.34
-11.78
-13.43
-15.24
-17.02
-18.48
-19.28
-19.16
-17.97
-15.76
-12.74
-9.22
-5.49
-1.80
1.65
4.72
7.27
9.24
10.56
11.27
11.45
11.23
10.73
10.10
9.48
8.97
8.62
8.37
8.13
7.85
7.53
7.23
7.03
6.95
6.88
6.61
5.99
4.95
3.59
2.11
0.71
-0.52
-1.58
-2.58
-3.65
-4.81
-6.03
-7.23
-8.34
-9.40
-10.47
-11.67
-13.00
-14.35
-15.42
-15.86
-15.35
-13.72
-11.02
-7.56
-3.74
0.01
3.38
6.22
8.53
10.34
11.73
12.69
13.22
13.34
13.11
12.63
12.03
11.40
10.82
10.33
9.93
9.61
9.34
9.03
8.58
7.93
7.09
6.14
5.17
4.27
3.43
2.57
1.56
0.34
-1.08
-2.58
-4.00
-5.23
-6.24
-7.14
-8.13
-9.41
-11.05
-13.00
-15.02
-16.77
-17.89
-18.10
-17.22
-15.28
-12.44
-8.97
-5.21
-1.47
2.01
5.05
7.56
9.49
10.83
11.59
11.82
11.63
11.15
10.52
9.88
9.35
8.97
8.74
8.60
8.45
8.22
7.85
7.36
6.81
6.23
5.65
5.02
4.28
3.35
2.23
0.95
-0.36
-1.59
-2.68
-3.67
-4.63
-5.67
-6.84
-8.11
-9.41
-10.67
-11.89
-13.13
-14.44
-15.77
-16.91
-17.52
-17.26
-15.94
-13.53
-10.31
-6.65
-2.99
0.34
3.18
5.53
7.47
9.09
10.39
11.32
11.79
11.81
11.46
10.93
10.41
10.02
9.77
9.55
9.28
8.92
8.51
8.10
7.71
7.33
6.88
6.30
5.56
4.67
3.65
2.55
1.38
0.16
-1.09
-2.35
-3.60
-4.82
-6.00
-7.13
-8.24
-9.34
-10.49
-11.73
-13.07
-14.43
-15.68
-16.64
-17.11
-16.90
-15.92
-14.14
-11.61
-8.48
-4.96
-1.30
2.23
5.36
7.89
9.72
10.88
11.48
11.67
11.59
11.30
10.85
10.25
9.56
8.88
8.28
7.77
7.32
6.88
6.41
5.90
5.34
4.69
3.92
3.01
2.01
0.99
0.03
-0.86
-1.73
-2.65
-3.65
-4.75
-5.85
-6.90
-7.91
-8.89
-9.94
-11.10
-12.36
-13.66
-14.90
-15.90
-16.47
-16.43
-15.61
-13.99
-11.66
-8.82
-5.72
-2.58
0.44
3.21
5.59
7.46
8.69
9.30
9.41
9.26
9.08
8.98
8.96
8.90
8.75
8.55
8.39
8.37
8.46
8.51
8.35
7.87
7.10
6.18
5.23
4.36
3.53
2.69
1.78
0.78
-0.30
-1.44
-2.60
-3.76
-4.89
-5.96
-7.02
-8.16
-9.44
-10.85
-12.26
-13.39
-13.94
-13.65
-12.45
-10.42
-7.81
-4.91
-2.02
0.60
2.82
4.59
5.92
6.87
7.53
7.95
8.18
8.25
8.19
8.01
7.75
7.41
6.99
6.50
5.98
5.47
5.02
4.67
4.40
4.19
3.95
3.61
3.11
2.39
1.44
0.28
-1.04
-2.42
-3.81
-5.11
-6.31
-7.42
-8.52
-9.72
-11.10
-12.64
-14.21
-15.58
-16.48
-16.64
-15.93
-14.33
-11.96
-9.09
-5.99
-2.91
-0.03
2.56
4.80
6.69
8.21
9.36
10.15
10.60
10.74
10.61
10.23
9.62
8.84
7.97
7.11
6.38
5.84
5.48
5.23
5.01
4.72
4.29
3.66
2.82
1.79
0.64
-0.50
-1.56
-2.49
-3.36
-4.25
-5.27
-6.45
-7.78
-9.18
-10.63
-12.13
-13.69
-15.21
-16.48
-17.16
-16.98
-15.82
-13.79
-11.16
-8.25
-5.26
-2.28
0.67
3.54
6.15
8.25
9.63
10.22
10.15
9.72
9.24
8.91
8.78
8.74
8.66
8.44
8.10
7.69
7.31
7.02
6.80
6.60
6.35
5.98
5.47
4.79
3.95
2.95
1.80
0.51
-0.86
-2.25
-3.58
-4.83
-6.04
-7.32
-8.76
-10.42
-12.24
-14.03
-15.51
-16.38
-16.44
-15.59
-13.89
-11.47
-8.58
-5.48
-2.40
0.47
3.06
5.37
7.43
9.22
10.68
11.68
12.13
12.05
11.58
10.91
10.22
9.64
9.19
8.82
8.48
8.14
7.80
7.44
7.02
6.53
5.94
5.26
4.52
3.72
2.83
1.84
0.69
-0.61
-2.02
-3.46
-4.84
-6.09
-7.18
-8.15
-9.13
-10.28
-11.72
-13.43
-15.22
-16.76
-17.67
-17.65
-16.56
-14.45
-11.50
-8.01
-4.30
-0.67
2.61
5.34
7.44
8.87
9.75
10.19
10.36
10.42
10.45
10.50
10.53
10.49
10.29
9.93
9.48
9.04
8.70
8.52
8.42
8.33
8.12
7.72
7.08
6.17
5.01
3.59
1.97
0.24
-1.47
-3.04
-4.39
-5.49
-6.39
-7.23
-8.14
-9.24
-10.55
-11.97
-13.23
-14.02
-14.07
-13.23
-11.54
-9.19
-6.38
-3.32
-0.16
2.95
5.82
8.22
9.94
10.88
11.07
10.73
10.12
9.51
9.07
8.85
8.79
8.80
8.80
8.71
8.53
8.26
7.90
7.49
7.01
6.48
5.90
5.30
4.64
3.89
2.99
1.88
0.60
-0.79
-2.20
-3.55
-4.79
-5.89
-6.88
-7.81
-8.75
-9.78
-10.98
-12.35
-13.81
-15.16
-16.11
-16.38
-15.73
-14.05
-11.43
-8.06
-4.28
-0.44
3.14
6.21
8.59
10.25
11.20
11.55
11.44
11.05
10.51
9.98
9.56
9.27
9.11
9.00
8.88
8.68
8.38
7.97
7.48
6.93
6.34
5.70
4.96
4.11
3.15
2.08
0.94
-0.23
-1.41
-2.62
-3.83
-5.02
-6.17
-7.24
-8.23
-9.17
-10.16
-11.31
-12.69
-14.25
-15.80
-17.07
-17.72
-17.53
-16.41
-14.46
-11.88
-8.95
-5.87
-2.79
0.20
3.00
5.49
7.54
9.03
9.90
10.20
10.06
9.66
9.15
8.67
8.31
8.09
8.03
8.08
8.18
8.27
8.26
8.11
7.81
7.35
6.79
6.15
5.44
4.64
3.70
2.57
1.23
-0.28
-1.85
-3.33
-4.60
-5.60
-6.37
-7.05
-7.81
-8.80
-10.09
-11.61
-13.23
-14.75
-15.97
-16.73
-16.95
-16.54
-15.48
-13.74
-11.38
-8.54
-5.47
-2.43
0.28
2.47
4.07
5.09
5.64
5.83
5.79
5.63
5.46
5.37
5.46
5.79
6.34
7.04
7.75
8.30
8.57
8.53
8.22
7.80
7.41
7.11
6.88
6.56
6.04
5.25
4.26
3.22
2.25
1.42
0.71
0.04
-0.67
-1.51
-2.56
-3.88
-5.50
-7.40
-9.41
-11.33
-12.85
-13.68
-13.62
-12.57
-10.59
-7.87
-4.73
-1.52
1.39
3.76
5.50
6.66
7.37
7.78
7.97
7.96
7.76
7.39
6.93
6.48
6.13
5.94
5.87
5.82
5.67
5.30
4.72
4.00
3.31
2.76
2.39
2.10
1.71
1.04
0.02
-1.25
-2.61
-3.91
-5.08
-6.19
-7.35
-8.65
-10.06
-11.51
-12.91
-14.22
-15.46
-16.61
-17.55
-18.02
-17.75
-16.55
-14.42
-11.54
-8.22
-4.74
-1.32
1.91
4.80
7.17
8.89
9.87
10.14
9.90
9.40
8.90
8.56
8.40
8.37
8.39
8.37
8.27
8.06
7.73
7.26
6.66
5.97
5.24
4.56
3.97
3.45
2.88
2.13
1.08
-0.32
-1.99
-3.79
-5.54
-7.10
-8.46
-9.67
-10.88
-12.23
-13.81
-15.63
-17.57
-19.43
-20.88
-21.57
-21.18
-19.54
-16.66
-12.81
-8.44
-4.04
-0.03
3.33
5.98
8.01
9.53
10.70
11.59
12.24
12.62
12.74
12.61
12.32
11.98
11.71
11.60
11.67
11.85
12.03
12.10
11.97
11.61
11.05
10.27
9.27
8.05
6.60
5.00
3.35
1.74
0.23
-1.18
-2.55
-3.92
-5.34
-6.79
-8.28
-9.85
-11.57
-13.52
-15.69
-17.91
-19.86
-21.13
-21.32
-20.19
-17.74
-14.18
-9.88
-5.32
-0.90
3.08
6.44
9.12
11.14
12.54
13.44
13.96
14.23
14.36
14.40
14.32
14.07
13.59
12.94
12.22
11.58
11.10
10.79
10.55
10.28
9.86
9.29
8.59
7.80
6.95
6.01
4.94
3.71
2.31
0.77
-0.87
-2.56
-4.24
-5.85
-7.37
-8.80
-10.18
-11.58
-13.09
-14.75
-16.52
-18.20
-19.54
-20.19
-19.83
-18.30
-15.64
-12.09
-8.03
-3.85
0.09
3.61
6.61
9.09
11.05
12.47
13.30
13.52
13.23
12.60
11.88
11.32
11.07
11.11
11.30
11.45
11.43
11.19
10.76
10.21
9.58
8.87
8.03
7.06
6.00
4.93
3.93
3.00
2.07
1.02
-0.25
-1.75
-3.43
-5.18
-6.89
-8.53
-10.15
-11.83
-13.62
-15.50
-17.30
-18.78
-19.64
-19.64
-18.63
-16.60
-13.66
-10.04
-6.02
-1.95
1.86
5.16
7.85
9.91
11.39
12.36
12.86
12.93
12.65
12.13
11.51
10.92
10.44
10.04
9.68
9.32
8.96
8.63
8.35
8.08
7.77
7.34
6.70
5.84
4.74
3.45
2.03
0.58
-0.83
-2.14
-3.34
-4.49
-5.65
-6.91
-8.31
-9.87
-11.62
-13.52
-15.50
-17.38
-18.89
-19.75
-19.72
-18.65
-16.56
-13.58
-9.94
-5.95
-1.92
1.83
5.04
7.55
9.36
10.56
11.29
11.66
11.74
11.54
11.06
10.36
9.54
8.76
8.16
7.77
7.58
7.47
7.30
7.00
6.49
5.81
5.01
4.16
3.33
2.52
1.69
0.77
-0.34
-1.66
-3.15
-4.71
-6.20
-7.56
-8.78
-9.94
-11.15
-12.49
-13.98
-15.55
-17.09
-18.49
-19.56
-20.08
-19.82
-18.54
-16.15
-12.75
-8.66
-4.35
-0.30
3.15
5.88
7.95
9.49
10.67
11.54
12.11
12.33
12.21
11.80
11.22
10.65
10.21
9.99
9.95
9.99
9.96
9.72
9.23
8.48
7.59
6.66
5.78
4.96
4.12
3.16
1.98
0.55
-1.09
-2.81
-4.47
-5.93
-7.15
-8.15
-9.05
-10.03
-11.24
-12.81
-14.74
-16.87
-18.94
-20.56
-21.34
-21.01
-19.45
-16.75
-13.20
-9.18
-5.09
-1.28
2.04
4.80
6.99
8.67
9.88
10.67
11.11
11.28
11.30
11.24
11.19
11.14
11.07
10.91
10.63
10.26
9.84
9.44
9.09
8.72
8.24
7.54
6.54
5.24
3.72
2.11
0.52
-0.96
-2.30
-3.52
-4.66
-5.75
-6.83
-7.91
-9.00
-10.12
-11.30
-12.59
-14.06
-15.70
-17.40
-18.92
-19.94
-20.13
-19.25
-17.25
-14.27
-10.59
-6.58
-2.58
1.12
4.36
7.01
9.06
10.49
11.37
11.79
11.86
11.75
11.57
11.44
11.41
11.51
11.68
11.86
11.93
11.81
11.45
10.86
10.12
9.29
8.43
7.55
6.61
5.58
4.45
3.18
1.79
0.29
-1.29
-2.86
-4.35
-5.70
-6.89
-8.01
-9.23
-10.70
-12.50
-14.55
-16.63
-18.40
-19.52
-19.67
-18.66
-16.44
-13.12
-9.00
-4.55
-0.26
3.44
6.31
8.32
9.65
10.53
11.15
11.65
12.02
12.25
12.34
12.31
12.24
12.18
12.14
12.09
11.97
11.71
11.29
10.72
10.03
9.27
8.46
7.57
6.55
5.34
3.91
2.30
0.56
-1.25
-3.04
-4.77
-6.41
-7.93
-9.34
-10.65
-11.85
-12.99
-14.06
-15.05
-15.88
-16.41
-16.44
-15.76
-14.25
-11.90
-8.93
-5.63
-2.39
0.52
2.94
4.86
6.39
7.64
8.69
9.52
10.09
10.34
10.28
9.99
9.58
9.14
8.72
8.34
8.01
7.76
7.61
7.60
7.70
7.82
7.87
7.74
7.34
6.66
5.73
4.64
3.53
2.52
1.65
0.87
0.05
-0.95
-2.20
-3.66
-5.19
-6.71
-8.20
-9.75
-11.49
-13.47
-15.54
-17.42
-18.73
-19.14
-18.46
-16.69
-14.03
-10.79
-7.33
-3.96
-0.87
1.85
4.23
6.31
8.12
9.61
10.68
11.29
11.43
11.23
10.86
10.47
10.12
9.78
9.39
8.91
8.36
7.80
7.28
6.81
6.34
5.80
5.11
4.24
3.20
1.99
0.68
-0.72
-2.14
-3.52
-4.83
-6.03
-7.12
-8.14
-9.15
-10.21
-11.41
-12.80
-14.38
-16.10
-17.79
-19.25
-20.23
-20.54
-20.03
-18.68
-16.54
-13.75
-10.51
-7.02
-3.44
0.05
3.29
6.09
8.27
9.74
10.48
10.63
10.44
10.14
9.95
9.95
10.13
10.42
10.77
11.16
11.56
11.95
12.26
12.40
12.29
11.86
11.07
9.92
8.41
6.55
4.44
2.21
0.02
-1.97
-3.70
-5.19
-6.54
-7.87
-9.31
-10.93
-12.76
-14.76
-16.84
-18.80
-20.42
-21.41
-21.56
-20.73
-18.94
-16.29
-13.02
-9.36
-5.57
-1.90
1.45
4.32
6.59
8.24
9.32
9.92
10.15
10.10
9.85
9.46
9.02
8.59
8.21
7.89
7.58
7.22
6.76
6.16
5.42
4.56
3.59
2.53
1.37
0.09
-1.31
-2.80
-4.29
-5.62
-6.58
-7.03
-6.89
-6.22
-5.15
-3.89
-2.58
-1.32
-0.16
0.90
1.84
2.67
3.45
4.26
5.21
6.32
7.54
8.63
9.35
9.47
8.93
7.83
6.40
4.83
3.17
1.35
-0.79
-3.30
-6.05
-8.76
-11.11
-12.90
-14.09
-14.83
-15.26
-15.42
-15.18
-14.35
-12.76
-10.44
-7.56
-4.41
-1.26
1.72
4.45
6.90
8.96
10.47
11.27
11.26
10.50
9.26
7.85
6.59
5.61
4.86
4.12
3.12
1.66
-0.19
-2.13
-3.64
-4.16
-3.31
-1.01
2.45
6.50
10.48
13.86
16.31
17.80
18.45
18.47
18.01
17.18
16.04
14.63
12.99
11.18
9.27
7.36
5.54
3.85
2.27
0.74
-0.85
-2.54
-4.28
-6.00
-7.59
-8.99
-10.22
-11.36
-12.48
-13.60
-14.67
-15.55
-16.10
-16.28
-16.17
-15.95
-15.85
-16.04
-16.52
-17.21
-17.93
-18.54
-18.97
-19.21
-19.23
-18.84
-17.82
-15.92
-13.09
-9.55
-5.74
-2.20
0.63
2.58
3.71
4.26
4.50
4.63
4.70
4.76
4.81
4.92
5.18
5.65
6.28
6.97
7.55
7.88
7.85
7.43
6.69
5.78
4.88
4.11
3.49
2.92
2.21
1.25
0.02
-1.23
-2.15
-2.44
-1.98
-0.85
0.63
2.08
3.17
3.67
3.53
2.84
1.84
0.85
0.19
0.09
0.62
1.72
3.27
5.23
7.63
10.55
13.94
17.53
20.95
23.74
25.63
26.55
26.62
26.03
24.97
23.56
21.89
20.04
18.12
16.15
14.10
11.86
9.38
6.72
4.15
1.95
0.33
-0.77
-1.61
-2.61
-4.12
-6.27
-9.00
-12.06
-15.20
-18.22
-21.04
-23.57
-25.76
-27.53
-28.78
-29.40
-29.34
-28.59
-27.16
-25.14
-22.62
-19.68
-16.40
-12.87
-9.16
-5.41
-1.77
1.63
4.69
7.37
9.67
11.61
13.19
14.40
15.25
15.87
16.49
17.34
18.53
20.02
21.57
22.87
23.68
23.93
23.66
23.04
22.15
21.04
19.68
18.02
16.06
13.84
11.38
8.65
5.53
1.96
-2.09
-6.48
-10.94
-15.09
-18.63
-21.44
-23.64
-25.58
-27.63
-29.98
-32.51
-34.75
-36.12
-36.20
-34.89
-32.48
-29.44
-26.23
-23.09
-19.99
-16.75
-13.17
-9.12
-4.62
0.21
5.12
9.86
14.18
17.95
21.12
23.75
25.96
27.79
29.21
30.09
30.32
29.85
28.76
27.26
25.65
24.23
23.25
22.83
22.90
23.23
23.42
23.04
21.72
19.25
15.63
11.02
5.71
-0.00
-5.82
-11.52
-16.95
-22.01
-26.57
-30.45
-33.42
-35.23
-35.70
-34.86
-32.90
-30.11
-26.75
-23.01
-18.91
-14.48
-9.82
-5.18
-0.93
2.63
5.36
7.34
8.84
10.18
11.55
12.96
14.29
15.32
15.93
16.07
15.82
15.29
14.55
13.57
12.26
10.59
8.59
6.37
4.12
1.95
-0.06
-1.95
-3.77
-5.55
-7.29
-8.97
-10.53
-11.97
-13.32
-14.66
-16.05
-17.53
-19.09
-20.64
-22.06
-23.16
-23.72
-23.60
-22.68
-20.94
-18.44
-15.31
-11.72
-7.92
-4.19
-0.85
1.85
3.75
4.81
5.17
5.11
4.88
4.73
4.80
5.11
5.66
6.43
7.38
8.44
9.55
10.59
11.50
12.26
12.94
13.59
14.20
14.67
14.88
14.76
14.35
13.79
13.26
12.88
12.65
12.48
12.23
11.77
10.96
9.67
7.78
5.21
2.00
-1.67
-5.39
-8.71
-11.23
-12.67
-13.02
-12.41
-11.11
-9.41
-7.58
-5.81
-4.26
-3.01
-2.12
-1.55
-1.22
-1.00
-0.77
-0.45
-0.07
0.30
0.58
0.71
0.71
0.63
0.54
0.48
0.44
0.39
0.29
0.12
-0.14
-0.48
-0.92
-1.47
-2.14
-2.95
-3.88
-4.88
-5.89
-6.86
-7.79
-8.71
-9.72
-10.92
-12.34
-13.94
-15.58
-17.02
-17.96
-18.17
-17.48
-15.85
-13.40
-10.35
-6.96
-3.48
-0.09
3.06
5.88
8.20
9.87
10.74
10.81
10.27
9.44
8.67
8.22
8.17
8.44
8.84
9.20
9.42
9.48
9.43
9.28
9.04
8.70
8.22
7.53
6.60
5.38
3.91
2.30
0.67
-0.83
-2.11
-3.16
-4.06
-4.97
-6.06
-7.48
-9.30
-11.48
-13.82
-16.05
-17.85
-18.93
-19.10
-18.26
-16.41
-13.65
-10.15
-6.21
-2.19
1.54
4.69
7.11
8.85
10.06
10.92
11.51
11.87
12.00
11.89
11.63
11.32
11.04
10.85
10.72
10.59
10.39
10.06
9.58
8.99
8.30
7.57
6.80
5.97
5.02
3.87
2.47
0.85
-0.89
-2.61
-4.19
-5.59
-6.89
-8.22
-9.69
-11.35
-13.14
-14.87
-16.37
-17.42
-17.84
-17.46
-16.18
-14.00
-11.03
-7.56
-3.91
-0.41
2.73
5.40
7.57
9.23
10.40
11.08
11.37
11.39
11.32
11.27
11.26
11.20
10.99
10.58
10.02
9.44
8.97
8.62
8.31
7.88
7.22
6.27
5.13
3.92
2.75
1.66
0.60
-0.55
-1.83
-3.25
-4.73
-6.20
-7.66
-9.14
-10.74
-12.52
-14.43
-16.31
-17.86
-18.82
-18.94
-18.13
-16.44
-14.06
-11.24
-8.21
-5.15
-2.19
0.60
3.14
5.33
7.10
8.42
9.31
9.86
10.14
10.20
10.07
9.82
9.54
9.30
9.15
9.05
8.89
8.60
8.16
7.66
7.23
6.93
6.69
6.40
5.91
5.14
4.11
2.90
1.58
0.18
-1.25
-2.65
-3.95
-5.13
-6.24
-7.43
-8.89
-10.69
-12.72
-14.69
-16.14
-16.70
-16.10
-14.35
-11.66
-8.40
-4.95
-1.61
1.43
4.08
6.29
8.00
9.16
9.72
9.79
9.54
9.22
9.01
9.01
9.11
9.13
8.91
8.37
7.61
6.82
6.20
5.84
5.69
5.61
5.44
5.08
4.55
3.92
3.27
2.62
1.90
1.02
-0.08
-1.41
-2.87
-4.38
-5.85
-7.29
-8.74
-10.28
-11.89
-13.44
-14.70
-15.35
-15.12
-13.87
-11.69
-8.82
-5.60
-2.34
0.73
3.51
5.93
7.90
9.35
10.20
10.49
10.36
10.04
9.73
9.53
9.39
9.20
8.82
8.24
7.54
6.85
6.29
5.86
5.47
5.01
4.40
3.63
2.75
1.83
0.88
-0.11
-1.22
-2.45
-3.77
-5.09
-6.31
-7.41
-8.45
-9.56
-10.88
-12.45
-14.18
-15.84
-17.14
-17.76
-17.50
-16.28
-14.20
-11.47
-8.35
-5.12
-1.95
1.04
3.80
6.25
8.29
9.82
10.74
11.07
10.94
10.57
10.20
9.99
9.97
10.10
10.23
10.26
10.09
9.70
9.11
8.39
7.60
6.78
5.97
5.19
4.43
3.65
2.79
1.78
0.56
-0.88
-2.50
-4.21
-5.88
-7.40
-8.73
-9.90
-10.99
-12.12
-13.41
-14.90
-16.52
-18.10
-19.38
-20.05
-19.82
-18.51
-16.13
-12.82
-8.89
-4.73
-0.73
2.82
5.74
7.97
9.57
10.65
11.31
11.58
11.52
11.15
10.57
9.95
9.43
9.13
9.04
9.06
9.04
8.88
8.54
8.08
7.55
7.01
6.42
5.73
4.89
3.88
2.74
1.52
0.27
-1.03
-2.41
-3.89
-5.47
-7.05
-8.52
-9.78
-10.84
-11.83
-12.95
-14.36
-16.06
-17.83
-19.28
-19.94
-19.48
-17.78
-14.95
-11.31
-7.26
-3.19
0.61
3.92
6.64
8.73
10.20
11.08
11.46
11.43
11.12
10.70
10.30
10.00
9.80
9.64
9.45
9.22
8.98
8.80
8.72
8.66
8.53
8.21
7.65
6.86
5.88
4.75
3.49
2.07
0.46
-1.26
-2.99
-4.57
-5.90
-6.98
-7.91
-8.88
-10.06
-11.54
-13.25
-14.99
-16.45
-17.34
-17.43
-16.60
-14.80
-12.07
-8.55
-4.48
-0.23
3.76
7.12
9.63
11.28
12.25
12.76
13.00
13.05
12.97
12.77
12.51
12.22
11.92
11.59
11.19
10.71
10.19
9.68
9.21
8.75
8.27
7.70
7.03
6.21
5.21
3.97
2.43
0.66
-1.16
-2.82
-4.14
-5.15
-6.03
-7.08
-8.53
-10.42
-12.61
-14.82
-16.74
-18.12
-18.76
-18.54
-17.43
-15.45
-12.75
-9.54
-6.07
-2.60
0.71
3.73
6.37
8.57
10.28
11.50
12.23
12.51
12.42
12.04
11.44
10.76
10.11
9.61
9.28
9.08
8.89
8.59
8.12
7.49
6.76
6.00
5.24
4.43
3.53
2.47
1.22
-0.22
-1.82
-3.52
-5.20
-6.76
-8.11
-9.23
-10.17
-11.09
-12.17
-13.54
-15.19
-16.97
-18.56
-19.57
-19.64
-18.53
-16.22
-12.85
-8.78
-4.43
-0.25
3.43
6.45
8.77
10.48
11.69
12.46
12.83
12.77
12.32
11.58
10.72
9.93
9.33
8.96
8.76
8.61
8.45
8.23
7.92
7.54
7.04
6.41
5.60
4.61
3.47
2.25
1.05
-0.07
-1.09
-2.05
-3.02
-4.09
-5.30
-6.66
-8.11
-9.62
-11.19
-12.86
-14.62
-16.38
-17.93
-18.95
-19.13
-18.31
-16.47
-13.81
-10.62
-7.17
-3.66
-0.20
3.14
6.25
8.96
11.07
12.42
12.99
12.91
12.46
11.89
11.40
11.03
10.72
10.40
10.01
9.57
9.14
8.77
8.47
8.22
7.96
7.60
7.04
6.19
4.98
3.43
1.61
-0.30
-2.14
-3.75
-5.08
-6.21
-7.21
-8.21
-9.28
-10.44
-11.72
-13.09
-14.52
-15.85
-16.86
-17.26
-16.80
-15.34
-12.93
-9.83
-6.36
-2.88
0.32
3.10
5.36
7.12
8.39
9.18
9.53
9.44
8.99
8.28
7.47
6.71
6.13
5.78
5.68
5.76
5.96
6.19
6.38
6.45
6.35
6.02
5.43
4.60
3.56
2.34
1.01
-0.37
-1.74
-3.05
-4.28
-5.44
-6.57
-7.74
-9.00
-10.35
-11.75
-13.06
-14.10
-14.66
-14.54
-13.62
-11.89
-9.43
-6.46
-3.26
-0.13
2.64
4.87
6.47
7.48
8.00
8.19
8.22
8.18
8.14
8.10
8.06
7.99
7.89
7.75
7.59
7.43
7.30
7.19
7.06
6.87
6.53
5.99
5.22
4.23
3.04
1.70
0.29
-1.13
-2.51
-3.84
-5.15
-6.49
-7.90
-9.40
-10.97
-12.60
-14.20
-15.65
-16.75
-17.25
-16.92
-15.65
-13.53
-10.76
-7.61
-4.31
-1.03
2.08
4.84
7.05
8.57
9.35
9.52
9.30
8.92
8.50
8.07
7.55
6.93
6.26
5.63
5.18
4.94
4.87
4.87
4.80
4.59
4.19
3.61
2.89
2.05
1.09
0.01
-1.22
-2.54
-3.87
-5.09
-6.15
-7.05
-7.93
-8.96
-10.27
-11.83
-13.43
-14.73
-15.40
-15.19
-14.07
-12.13
-9.58
-6.62
-3.45
-0.26
2.76
5.40
7.50
8.97
9.83
10.19
10.19
9.99
9.67
9.28
8.81
8.24
7.60
6.95
6.39
5.97
5.72
5.54
5.30
4.90
4.30
3.54
2.72
1.91
1.11
0.28
-0.68
-1.84
-3.18
-4.60
-6.00
-7.30
-8.54
-9.82
-11.22
-12.78
-14.39
-15.79
-16.69
-16.80
-16.00
-14.30
-11.89
-8.97
-5.77
-2.46
0.81
3.90
6.64
8.86
10.40
11.25
11.46
11.20
10.69
10.15
9.68
9.35
9.12
8.92
8.66
8.31
7.84
7.28
6.67
6.02
5.32
4.57
3.76
2.91
2.05
1.19
0.29
-0.73
-1.93
-3.34
-4.90
-6.51
-8.04
-9.44
-10.73
-12.01
-13.39
-14.92
-16.49
-17.88
-18.76
-18.83
-17.89
-15.92
-13.07
-9.62
-5.88
-2.10
1.55
4.89
7.78
10.02
11.45
11.99
11.74
10.98
10.04
9.22
8.64
8.26
7.93
7.52
7.01
6.50
6.13
5.93
5.82
5.64
5.22
4.50
3.52
2.41
1.28
0.20
-0.83
-1.80
-2.74
-3.66
-4.60
-5.65
-6.94
-8.53
-10.41
-12.42
-14.29
-15.69
-16.34
-16.06
-14.80
-12.64
-9.73
-6.34
-2.70
0.95
4.41
7.52
10.16
12.22
13.62
14.32
14.35
13.87
13.14
12.40
11.81
11.38
10.99
10.49
9.78
8.95
8.12
7.43
6.93
6.48
5.94
5.15
4.11
2.90
1.63
0.40
-0.81
-2.06
-3.36
-4.73
-6.12
-7.52
-8.96
-10.55
-12.37
-14.37
-16.30
-17.81
-18.51
-18.13
-16.64
-14.19
-11.04
-7.48
-3.73
0.01
3.58
6.79
9.49
11.52
12.84
13.46
13.50
13.16
12.65
12.18
11.87
11.75
11.77
11.79
11.67
11.29
10.61
9.70
8.66
7.64
6.71
5.87
5.05
4.11
2.95
1.49
-0.21
-2.03
-3.76
-5.29
-6.57
-7.70
-8.82
-10.07
-11.52
-13.12
-14.76
-16.27
-17.47
-18.14
-18.11
-17.23
-15.46
-12.85
-9.60
-5.97
-2.24
1.37
4.71
7.65
10.13
12.04
13.30
13.92
13.91
13.40
12.53
11.53
10.60
9.89
9.47
9.32
9.31
9.32
9.22
8.95
8.51
7.93
7.21
6.36
5.36
4.18
2.82
1.30
-0.35
-2.06
-3.73
-5.29
-6.66
-7.90
-9.08
-10.38
-11.89
-13.64
-15.50
-17.23
-18.51
-19.05
-18.67
-17.26
-14.85
-11.58
-7.69
-3.52
0.60
4.35
7.47
9.86
11.50
12.48
12.94
13.03
12.86
12.56
12.20
11.82
11.39
10.88
10.27
9.58
8.86
8.18
7.59
7.08
6.61
6.10
5.49
4.71
3.74
2.57
1.19
-0.35
-1.97
-3.58
-5.09
-6.47
-7.73
-8.97
-10.27
-11.74
-13.40
-15.18
-16.92
-18.40
-19.38
-19.63
-18.97
-17.34
-14.77
-11.45
-7.62
-3.61
0.26
3.70
6.50
8.58
9.95
10.72
11.02
11.00
10.76
10.40
9.98
9.58
9.26
9.07
8.99
8.96
8.85
8.52
7.92
7.08
6.16
5.33
4.67
4.10
3.45
2.51
1.20
-0.43
-2.18
-3.85
-5.30
-6.52
-7.59
-8.64
-9.76
-10.99
-12.27
-13.46
-14.36
-14.74
-14.40
-13.22
-11.19
-8.45
-5.17
-1.57
2.10
5.59
8.65
11.07
12.72
13.59
13.80
13.48
12.82
12.00
11.15
10.41
9.85
9.48
9.23
8.98
8.61
8.06
7.34
6.52
5.63
4.69
3.65
2.44
1.05
-0.49
-2.07
-3.60
-5.00
-6.25
-7.40
-8.50
-9.64
-10.94
-12.46
-14.21
-16.08
-17.83
-19.14
-19.62
-19.03
-17.29
-14.54
-11.10
-7.35
-3.64
-0.20
2.82
5.36
7.37
8.83
9.72
10.05
9.93
9.52
9.02
8.57
8.22
7.93
7.57
7.05
6.39
5.67
5.01
4.47
3.99
3.44
2.67
1.61
0.31
-1.12
-2.54
-3.88
-5.10
-6.19
-7.17
-8.07
-8.95
-9.94
-11.18
-12.74
-14.57
-16.41
-17.88
-18.58
-18.23
-16.71
-14.14
-10.79
-7.01
-3.08
0.72
4.20
7.18
9.49
11.05
11.87
12.11
12.00
11.76
11.54
11.35
11.13
10.80
10.36
9.87
9.40
8.95
8.46
7.84
7.03
6.01
4.85
3.58
2.26
0.88
-0.59
-2.17
-3.86
-5.64
-7.43
-9.15
-10.72
-12.11
-13.43
-14.86
-16.56
-18.62
-20.91
-23.08
-24.65
-25.20
-24.46
-22.45
-19.43
-15.79
-12.01
-8.53
-5.70
-3.72
-2.61
-2.15
-1.94
-1.48
-0.34
1.69
4.55
7.91
11.34
14.43
16.91
18.64
19.63
19.98
19.82
19.33
18.67
17.98
17.33
16.73
16.12
15.43
14.62
13.66
12.56
11.33
10.04
8.76
7.61
6.66
5.90
5.25
4.56
3.70
2.59
1.25
-0.28
-1.88
-3.46
-4.98
-6.42
-7.82
-9.26
-10.85
-12.62
-14.51
-16.33
-17.77
-18.54
-18.40
-17.26
-15.16
-12.25
-8.77
-5.03
-1.31
2.11
5.05
7.42
9.22
10.52
11.40
11.90
12.09
12.05
11.86
11.62
11.41
11.21
10.97
10.61
10.12
9.52
8.88
8.25
7.63
6.96
6.20
5.30
4.29
3.18
2.00
0.73
-0.64
-2.10
-3.58
-5.03
-6.40
-7.74
-9.14
-10.68
-12.39
-14.13
-15.67
-16.70
-16.94
-16.24
-14.57
-12.07
-8.94
-5.44
-1.85
1.59
4.68
7.28
9.32
10.81
11.80
12.37
12.59
12.51
12.17
11.67
11.13
10.67
10.36
10.14
9.90
9.50
8.86
8.02
7.12
6.25
5.46
4.69
3.83
2.77
1.48
0.01
-1.54
-3.07
-4.49
-5.73
-6.80
-7.73
-8.62
-9.60
-10.80
-12.27
-13.91
-15.46
-16.58
-16.92
-16.24
-14.49
-11.77
-8.38
-4.67
-1.00
2.33
5.09
7.21
8.67
9.58
10.04
10.18
10.12
9.92
9.66
9.39
9.12
8.85
8.56
8.22
7.83
7.39
6.89
6.31
5.65
4.87
4.03
3.16
2.25
1.30
0.24
-0.95
-2.26
-3.63
-5.01
-6.36
-7.69
-9.06
-10.52
-12.07
-13.70
-15.31
-16.74
-17.78
-18.18
-17.74
-16.37
-14.14
-11.27
-8.01
-4.61
-1.24
1.97
4.92
7.44
9.32
10.43
10.77
10.53
10.02
9.56
9.32
9.30
9.36
9.33
9.08
8.58
7.90
7.12
6.35
5.62
4.93
4.26
3.57
2.80
1.91
0.88
-0.28
-1.52
-2.79
-4.09
-5.42
-6.79
-8.19
-9.58
-10.89
-12.14
-13.38
-14.68
-16.02
-17.24
-18.06
-18.08
-17.03
-14.86
-11.79
-8.23
-4.62
-1.24
1.77
4.44
6.76
8.68
10.09
10.86
11.03
10.72
10.19
9.63
9.17
8.82
8.51
8.16
7.71
7.13
6.46
5.72
5.00
4.36
3.81
3.30
2.72
1.95
0.93
-0.32
-1.66
-2.97
-4.13
-5.12
-5.99
-6.81
-7.66
-8.64
-9.79
-11.16
-12.70
-14.26
-15.59
-16.37
-16.32
-15.28
-13.27
-10.51
-7.37
-4.18
-1.22
1.38
3.60
5.44
6.90
7.94
8.54
8.75
8.72
8.58
8.42
8.25
7.97
7.50
6.84
6.09
5.37
4.82
4.43
4.14
3.86
3.52
3.08
2.53
1.84
0.95
-0.17
-1.46
-2.78
-3.96
-4.93
-5.74
-6.54
-7.52
-8.76
-10.21
-11.69
-12.94
-13.72
-13.89
-13.32
-11.96
-9.82
-6.97
-3.60
0.01
3.49
6.55
8.98
10.74
11.88
12.52
12.79
12.79
12.62
12.38
12.13
11.90
11.64
11.28
10.78
10.14
9.43
8.76
8.22
7.81
7.49
7.19
6.83
6.38
5.83
5.15
4.32
3.30
2.08
0.66
-0.99
-2.88
-5.08
-7.62
-10.44
-13.37
-16.13
-18.36
-19.75
-20.09
-19.32
-17.53
-14.89
-11.64
-8.10
-4.56
-1.33
1.36
3.36
4.70
5.50
5.95
6.24
6.50
6.76
6.98
7.04
6.91
6.56
6.07
5.54
5.05
4.65
4.32
3.98
3.57
3.04
2.36
1.55
0.61
-0.42
-1.46
-2.43
-3.25
-3.86
-4.37
-4.92
-5.74
-6.97
-8.62
-10.52
-12.36
-13.78
-14.48
-14.29
-13.16
-11.21
-8.65
-5.74
-2.77
0.05
2.57
4.75
6.63
8.23
9.60
10.73
11.58
12.15
12.47
12.60
12.58
12.45
12.17
11.77
11.23
10.60
9.92
9.26
8.63
7.98
7.25
6.38
5.32
4.11
2.83
1.57
0.41
-0.66
-1.70
-2.83
-4.19
-5.85
-7.78
-9.82
-11.68
-13.05
-13.66
-13.38
-12.15
-10.11
-7.43
-4.38
-1.21
1.85
4.61
6.92
8.71
9.94
10.59
10.67
10.23
9.36
8.22
7.01
5.95
5.16
4.68
4.42
4.26
4.06
3.75
3.31
2.77
2.16
1.48
0.72
-0.16
-1.17
-2.32
-3.57
-4.89
-6.22
-7.54
-8.80
-10.01
-11.17
-12.32
-13.52
-14.79
-16.13
-17.41
-18.38
-18.75
-18.23
-16.63
-13.96
-10.43
-6.40
-2.30
1.54
4.93
7.81
10.16
11.99
13.23
13.86
13.90
13.44
12.64
11.69
10.72
9.85
9.13
8.57
8.19
7.92
7.73
7.55
7.31
6.93
6.38
5.60
4.55
3.20
1.60
-0.12
-1.82
-3.37
-4.70
-5.82
-6.82
-7.84
-8.98
-10.36
-11.96
-13.67
-15.23
-16.25
-16.38
-15.34
-13.12
-9.96
-6.28
-2.56
0.79
3.53
5.59
6.98
7.79
8.15
8.19
8.07
7.97
7.98
8.13
8.33
8.46
8.44
8.25
7.99
7.75
7.59
7.48
7.32
7.02
6.52
5.83
4.99
4.01
2.92
1.70
0.37
-1.00
-2.34
-3.57
-4.66
-5.64
-6.58
-7.59
-8.77
-10.19
-11.81
-13.45
-14.84
-15.63
-15.52
-14.33
-12.13
-9.18
-5.87
-2.61
0.30
2.71
4.63
6.17
7.46
8.57
9.47
10.10
10.36
10.24
9.78
9.14
8.46
7.91
7.56
7.41
7.41
7.42
7.29
6.87
6.12
5.08
3.94
2.91
2.10
1.50
0.96
0.28
-0.66
-1.88
-3.25
-4.62
-5.90
-7.09
-8.24
-9.41
-10.58
-11.76
-12.93
-14.13
-15.35
-16.49
-17.33
-17.56
-16.91
-15.25
-12.69
-9.51
-6.05
-2.61
0.59
3.43
5.78
7.56
8.68
9.17
9.20
8.99
8.80
8.76
8.90
9.13
9.36
9.53
9.65
9.74
9.77
9.70
9.45
8.97
8.25
7.39
6.44
5.46
4.44
3.37
2.21
0.98
-0.28
-1.55
-2.83
-4.16
-5.57
-7.06
-8.58
-10.02
-11.33
-12.52
-13.70
-14.97
-16.35
-17.75
-18.88
-19.40
-19.01
-17.55
-15.08
-11.84
-8.21
-4.56
-1.18
1.78
4.22
6.15
7.54
8.37
8.69
8.56
8.16
7.69
7.36
7.24
7.33
7.53
7.70
7.76
7.64
7.37
7.00
6.59
6.19
5.77
5.25
4.54
3.60
2.47
1.23
-0.03
-1.26
-2.51
-3.85
-5.33
-6.93
-8.53
-10.02
-11.33
-12.50
-13.63
-14.81
-16.05
-17.19
-18.03
-18.30
-17.79
-16.41
-14.19
-11.24
-7.80
-4.15
-0.63
2.47
4.90
6.58
7.57
8.08
8.33
8.47
8.57
8.61
8.58
8.51
8.48
8.53
8.65
8.76
8.78
8.62
8.30
7.91
7.50
7.09
6.60
5.94
5.03
3.88
2.55
1.15
-0.24
-1.58
-2.88
-4.17
-5.51
-6.95
-8.51
-10.24
-12.13
-14.06
-15.80
-17.01
-17.37
-16.63
-14.75
-11.90
-8.38
-4.54
-0.68
2.99
6.31
9.19
11.54
13.28
14.38
14.87
14.83
14.38
13.67
12.84
12.02
11.33
10.82
10.53
10.37
10.25
10.01
9.58
8.95
8.18
7.36
6.52
5.59
4.46
3.03
1.32
-0.56
-2.43
-4.15
-5.69
-7.13
-8.61
-10.23
-12.01
-13.89
-15.78
-17.58
-19.20
-20.47
-21.17
-21.00
-19.71
-17.14
-13.42
-8.91
-4.13
0.40
4.30
7.40
9.71
11.34
12.38
12.97
13.19
13.15
13.01
12.89
12.86
12.95
13.09
13.19
13.18
13.03
12.75
12.34
11.80
11.13
10.32
9.37
8.27
7.01
5.58
3.97
2.22
0.39
-1.42
-3.19
-4.91
-6.61
-8.35
-10.19
-12.14
-14.20
-16.25
-18.08
-19.35
-19.72
-18.90
-16.80
-13.56
-9.58
-5.29
-1.13
2.67
6.02
8.92
11.38
13.34
14.68
15.35
15.38
14.93
14.25
13.59
13.07
12.68
12.30
11.77
11.01
10.09
9.14
8.35
7.79
7.39
6.98
6.37
5.44
4.15
2.60
0.89
-0.90
-2.72
-4.52
-6.26
-7.85
-9.24
-10.42
-11.54
-12.75
-14.22
-15.96
-17.76
-19.27
-20.07
-19.85
-18.45
-15.93
-12.53
-8.59
-4.49
-0.55
2.94
5.81
8.00
9.50
10.40
10.81
10.83
10.59
10.23
9.86
9.58
9.44
9.43
9.48
9.48
9.32
8.92
8.29
7.46
6.50
5.53
4.58
3.68
2.79
1.86
0.82
-0.35
-1.63
-2.95
-4.25
-5.49
-6.66
-7.80
-9.00
-10.30
-11.69
-13.03
-14.09
-14.59
-14.29
-13.12
-11.16
-8.61
-5.71
-2.65
0.45
3.50
6.37
8.89
10.84
12.10
12.64
12.58
12.18
11.64
11.12
10.65
10.19
9.66
9.05
8.39
7.70
7.04
6.41
5.79
5.19
4.59
3.99
3.35
2.60
1.65
0.43
-1.06
-2.75
-4.52
-6.22
-7.74
-9.05
-10.17
-11.21
-12.33
-13.65
-15.18
-16.78
-18.10
-18.70
-18.22
-16.49
-13.60
-9.88
-5.81
-1.82
1.77
4.80
7.21
9.03
10.32
11.11
11.42
11.32
10.88
10.22
9.53
8.95
8.56
8.30
8.07
7.72
7.18
6.43
5.59
4.75
4.02
3.39
2.84
2.27
1.59
0.71
-0.41
-1.78
-3.36
-5.07
-6.76
-8.29
-9.56
-10.60
-11.52
-12.53
-13.80
-15.37
-17.14
-18.83
-20.05
-20.46
-19.78
-17.90
-14.92
-11.10
-6.86
-2.65
1.12
4.21
6.60
8.38
9.73
10.80
11.66
12.29
12.63
12.63
12.34
11.84
11.29
10.79
10.37
9.98
9.52
8.93
8.19
7.40
6.63
5.90
5.17
4.31
3.22
1.87
0.34
-1.23
-2.74
-4.14
-5.45
-6.71
-7.97
-9.27
-10.65
-12.18
-13.89
-15.77
-17.73
-19.61
-21.19
-22.21
-22.40
-21.57
-19.61
-16.56
-12.64
-8.21
-3.68
0.59
4.35
7.48
9.96
11.77
12.90
13.36
13.22
12.62
11.81
11.03
10.46
10.20
10.19
10.30
10.35
10.22
9.84
9.24
8.52
7.76
7.01
6.22
5.30
4.16
2.79
1.25
-0.38
-2.01
-3.58
-5.08
-6.48
-7.77
-8.95
-10.06
-11.20
-12.47
-13.96
-15.67
-17.42
-18.94
-19.86
-19.84
-18.67
-16.34
-13.05
-9.16
-5.10
-1.22
2.26
5.24
7.75
9.80
11.40
12.51
13.07
13.09
12.69
12.04
11.38
10.86
10.57
10.47
10.47
10.43
10.28
9.99
9.61
9.19
8.76
8.31
7.73
6.94
5.88
4.56
3.09
1.59
0.17
-1.15
-2.37
-3.56
-4.73
-5.89
-7.05
-8.24
-9.55
-11.03
-12.67
-14.28
-15.53
-16.02
-15.42
-13.58
-10.65
-6.96
-2.96
0.91
4.38
7.31
9.65
11.40
12.57
13.18
13.33
13.17
12.88
12.57
12.28
11.90
11.36
10.65
9.86
9.17
8.69
8.41
8.23
8.02
7.66
7.14
6.51
5.78
4.95
3.96
2.79
1.48
0.12
-1.19
-2.41
-3.58
-4.83
-6.29
-8.06
-10.13
-12.39
-14.68
-16.73
-18.31
-19.15
-19.07
-17.93
-15.75
-12.64
-8.89
-4.84
-0.88
2.67
5.63
7.96
9.72
11.03
11.94
12.48
12.62
12.38
11.84
11.15
10.48
9.96
9.61
9.40
9.23
9.01
8.71
8.34
7.90
7.38
6.74
5.94
4.95
3.77
2.45
1.02
-0.48
-2.01
-3.54
-5.02
-6.39
-7.64
-8.80
-9.96
-11.23
-12.71
-14.37
-16.13
-17.72
-18.86
-19.24
-18.63
-16.96
-14.32
-10.95
-7.17
-3.30
0.40
3.73
6.57
8.81
10.36
11.23
11.49
11.30
10.88
10.40
9.96
9.59
9.25
8.93
8.63
8.36
8.16
7.99
7.80
7.51
7.05
6.36
5.46
4.37
3.13
1.78
0.35
-1.13
-2.59
-3.96
-5.20
-6.29
-7.34
-8.52
-9.98
-11.80
-13.94
-16.18
-18.19
-19.65
-20.21
-19.67
-17.96
-15.18
-11.61
-7.63
-3.62
0.08
3.23
5.76
7.65
8.98
9.80
10.19
10.22
9.98
9.59
9.13
8.71
8.35
8.08
7.84
7.59
7.28
6.86
6.36
5.80
5.20
4.57
3.84
2.97
1.92
0.74
-0.50
-1.71
-2.90
-4.11
-5.39
-6.75
-8.16
-9.52
-10.82
-12.13
-13.56
-15.15
-16.78
-18.11
-18.70
-18.19
-16.45
-13.65
-10.16
-6.40
-2.71
0.66
3.61
6.03
7.85
9.02
9.53
9.49
9.08
8.52
8.03
7.74
7.65
7.62
7.50
7.12
6.43
5.52
4.60
3.87
3.49
3.41
3.44
3.31
2.78
1.74
0.28
-1.40
-3.04
-4.41
-5.47
-6.29
-7.07
-8.02
-9.30
-10.91
-12.74
-14.54
-16.04
-16.92
-16.90
-15.78
-13.51
-10.23
-6.30
-2.23
1.50
4.55
6.78
8.28
9.22
9.82
10.19
10.39
10.39
10.16
9.72
9.13
8.48
7.87
7.30
6.79
6.29
5.81
5.38
5.01
4.69
4.37
3.92
3.23
2.29
1.17
-0.02
-1.13
-2.14
-3.06
-3.96
-4.90
-5.94
-7.15
-8.60
-10.35
-12.32
-14.34
-16.04
-17.04
-17.04
-15.92
-13.77
-10.83
-7.41
-3.80
-0.25
3.06
5.99
8.41
10.25
11.50
12.17
12.31
12.01
11.40
10.61
9.80
9.08
8.52
8.11
7.82
7.58
7.36
7.11
6.80
6.38
5.78
4.96
3.90
2.66
1.31
-0.07
-1.45
-2.81
-4.16
-5.52
-6.87
-8.23
-9.64
-11.18
-12.92
-14.86
-16.89
-18.72
-19.99
-20.35
-19.55
-17.55
-14.50
-10.71
-6.54
-2.35
1.59
5.11
8.12
10.53
12.28
13.32
13.67
13.47
12.94
12.32
11.85
11.60
11.52
11.49
11.35
11.04
10.56
9.96
9.32
8.62
7.84
6.92
5.85
4.64
3.36
2.04
0.66
-0.81
-2.42
-4.13
-5.83
-7.37
-8.66
-9.73
-10.79
-12.10
-13.82
-15.89
-18.01
-19.64
-20.26
-19.51
-17.30
-13.89
-9.69
-5.20
-0.86
3.08
6.49
9.33
11.61
13.30
14.39
14.87
14.82
14.36
13.68
12.95
12.32
11.84
11.51
11.26
10.99
10.62
10.10
9.42
8.63
7.78
6.88
5.91
4.81
3.52
2.04
0.42
-1.21
-2.73
-4.08
-5.23
-6.24
-7.23
-8.33
-9.66
-11.31
-13.28
-15.40
-17.40
-18.89
-19.53
-19.10
-17.56
-15.03
-11.75
-8.02
-4.14
-0.37
3.09
6.06
8.44
10.17
11.26
11.75
11.75
11.39
10.84
10.29
9.84
9.54
9.32
9.05
8.63
8.06
7.42
6.85
6.45
6.19
5.92
5.46
4.66
3.51
2.11
0.67
-0.67
-1.85
-2.93
-4.02
-5.22
-6.55
-7.98
-9.46
-10.97
-12.44
-13.77
-14.75
-15.12
-14.60
-13.04
-10.50
-7.19
-3.47
0.28
3.76
6.76
9.15
10.89
11.98
12.46
12.46
12.13
11.64
11.15
10.76
10.46
10.22
9.92
9.46
8.81
8.01
7.17
6.41
5.78
5.21
4.55
3.62
2.35
0.82
-0.80
-2.27
-3.49
-4.43
-5.25
-6.11
-7.18
-8.55
-10.19
-12.00
-13.81
-15.41
-16.52
-16.89
-16.32
-14.71
-12.15
-8.88
-5.23
-1.59
1.75
4.60
6.85
8.46
9.40
9.73
9.56
9.09
8.56
8.17
7.95
7.82
7.65
7.33
6.86
6.31
5.78
5.34
4.97
4.63
4.21
3.66
2.93
1.98
0.83
-0.47
-1.85
-3.18
-4.42
-5.55
-6.63
-7.76
-9.02
-10.45
-12.01
-13.59
-15.03
-16.07
-16.48
-16.08
-14.79
-12.70
-10.01
-6.97
-3.82
-0.74
2.11
4.58
6.55
7.90
8.65
8.89
8.78
8.51
8.18
7.87
7.57
7.28
6.96
6.61
6.17
5.63
5.01
4.35
3.72
3.15
2.64
2.14
1.56
0.81
-0.16
-1.35
-2.75
-4.27
-5.84
-7.36
-8.73
-9.95
-11.09
-12.28
-13.59
-14.99
-16.21
-16.90
-16.76
-15.65
-13.67
-11.10
-8.24
-5.33
-2.48
0.26
2.82
5.10
6.93
8.23
9.00
9.36
9.44
9.38
9.27
9.16
9.08
9.06
9.06
9.00
8.80
8.46
8.02
7.64
7.42
7.39
7.44
7.39
7.08
6.43
5.52
4.44
3.32
2.19
1.08
-0.05
-1.17
-2.30
-3.46
-4.74
-6.23
-8.02
-10.08
-12.21
-14.08
-15.30
-15.53
-14.62
-12.66
-9.99
-7.04
-4.19
-1.71
0.34
2.03
3.45
4.62
5.52
6.10
6.35
6.34
6.19
5.99
5.80
5.60
5.39
5.18
4.99
4.88
4.84
4.83
4.76
4.55
4.17
3.64
3.01
2.31
1.54
0.64
-0.41
-1.62
-2.94
-4.29
-5.56
-6.68
-7.65
-8.54
-9.48
-10.59
-11.92
-13.40
-14.82
-15.89
-16.30
-15.80
-14.29
-11.85
-8.72
-5.20
-1.65
1.66
4.57
7.01
8.97
10.48
11.52
12.07
12.16
11.90
11.48
11.09
10.86
10.77
10.72
10.57
10.22
9.67
8.98
8.25
7.53
6.88
6.28
5.73
5.19
4.59
3.86
2.93
1.77
0.42
-1.01
-2.43
-3.73
-4.89
-5.96
-7.04
-8.26
-9.67
-11.24
-12.83
-14.19
-15.06
-15.21
-14.45
-12.77
-10.28
-7.23
-3.97
-0.83
1.95
4.28
6.18
7.72
8.92
9.72
10.06
9.93
9.44
8.81
8.30
8.05
8.08
8.24
8.38
8.35
8.11
7.70
7.20
6.66
6.11
5.55
4.92
4.19
3.31
2.29
1.16
-0.01
-1.17
-2.31
-3.43
-4.54
-5.70
-6.90
-8.15
-9.44
-10.74
-12.03
-13.24
-14.27
-14.95
-15.09
-14.50
-13.09
-10.88
-8.01
-4.75
-1.39
1.76
4.47
6.63
8.20
9.23
9.82
10.05
10.02
9.79
9.41
8.95
8.47
8.04
7.73
7.56
7.50
7.50
7.46
7.31
7.01
6.57
5.98
5.25
4.33
3.21
1.92
0.56
-0.75
-1.89
-2.84
-3.65
-4.43
-5.30
-6.27
-7.32
-8.39
-9.44
-10.53
-11.72
-13.02
-14.33
-15.39
-15.89
-15.52
-14.17
-11.89
-8.97
-5.76
-2.62
0.21
2.61
4.58
6.21
7.53
8.56
9.27
9.62
9.60
9.31
8.86
8.40
8.00
7.67
7.37
7.03
6.66
6.28
5.93
5.66
5.44
5.19
4.81
4.26
3.51
2.62
1.65
0.69
-0.23
-1.13
-2.07
-3.09
-4.20
-5.32
-6.34
-7.18
-7.87
-8.56
-9.46
-10.68
-12.24
-13.95
-15.51
-16.56
-16.85
-16.21
-14.59
-12.11
-8.98
-5.53
-2.13
0.89
3.34
5.18
6.50
7.39
7.94
8.17
8.12
7.85
7.48
7.12
6.82
6.54
6.21
5.78
5.30
4.85
4.51
4.30
4.16
4.01
3.79
3.46
3.02
2.45
1.74
0.84
-0.22
-1.40
-2.58
-3.62
-4.44
-5.01
-5.41
-5.79
-6.30
-7.10
-8.20
-9.52
-10.89
-12.09
-12.88
-13.12
-12.67
-11.47
-9.54
-6.96
-3.94
-0.77
2.25
4.85
6.89
8.30
9.15
9.53
9.57
9.40
9.14
8.85
8.55
8.21
7.83
7.38
6.92
6.49
6.14
5.84
5.51
5.06
4.44
3.64
2.72
1.77
0.85
-0.01
-0.87
-1.80
-2.89
-4.16
-5.53
-6.89
-8.07
-8.98
-9.66
-10.28
-11.08
-12.21
-13.61
-15.05
-16.14
-16.50
-15.91
-14.33
-11.89
-8.85
-5.49
-2.08
1.15
4.04
6.47
8.43
9.91
10.96
11.59
11.82
11.71
11.35
10.88
10.42
10.00
9.59
9.10
8.48
7.75
7.00
6.34
5.81
5.36
4.90
4.30
3.49
2.45
1.24
-0.05
-1.37
-2.66
-3.92
-5.10
-6.21
-7.26
-8.30
-9.41
-10.69
-12.19
-13.85
-15.49
-16.81
-17.45
-17.15
-15.80
-13.49
-10.48
-7.11
-3.71
-0.54
2.25
4.64
6.66
8.33
9.62
10.48
10.88
10.82
10.39
9.77
9.11
8.55
8.11
7.76
7.43
7.09
6.74
6.41
6.11
5.79
5.39
4.84
4.12
3.24
2.24
1.18
0.09
-1.00
-2.09
-3.21
-4.37
-5.60
-6.89
-8.25
-9.67
-11.17
-12.71
-14.26
-15.67
-16.68
-16.98
-16.28
-14.49
-11.71
-8.30
-4.69
-1.24
1.85
4.57
6.98
9.14
10.94
12.23
12.87
12.85
12.32
11.54
10.76
10.12
9.62
9.17
8.70
8.20
7.74
7.40
7.22
7.13
6.99
6.62
5.87
4.73
3.29
1.71
0.18
-1.20
-2.39
-3.44
-4.42
-5.40
-6.43
-7.57
-8.84
-10.25
-11.76
-13.30
-14.70
-15.73
-16.13
-15.67
-14.26
-11.93
-8.91
-5.50
-2.05
1.17
3.99
6.37
8.30
9.78
10.78
11.32
11.42
11.23
10.91
10.60
10.34
10.10
9.78
9.30
8.69
8.04
7.48
7.09
6.87
6.73
6.48
5.95
5.06
3.82
2.38
0.92
-0.38
-1.45
-2.34
-3.18
-4.10
-5.22
-6.55
-8.01
-9.52
-10.98
-12.31
-13.40
-14.05
-14.04
-13.14
-11.24
-8.44
-5.03
-1.40
2.04
4.99
7.31
9.00
10.13
10.79
11.04
10.94
10.55
9.99
9.39
8.83
8.35
7.89
7.38
6.79
6.13
5.50
4.98
4.62
4.37
4.11
3.74
3.15
2.31
1.25
0.02
-1.31
-2.68
-4.03
-5.32
-6.53
-7.65
-8.76
-9.94
-11.26
-12.73
-14.20
-15.46
-16.22
-16.20
-15.26
-13.39
-10.76
-7.64
-4.32
-1.06
1.92
4.52
6.64
8.29
9.47
10.23
10.61
10.62
10.29
9.69
8.96
8.29
7.80
7.55
7.41
7.20
6.76
6.07
5.28
4.59
4.13
3.86
3.57
2.99
1.98
0.58
-1.01
-2.53
-3.83
-4.92
-5.91
-6.94
-8.08
-9.33
-10.66
-12.06
-13.54
-15.08
-16.50
-17.50
-17.71
-16.80
-14.71
-11.62
-7.97
-4.25
-0.83
2.13
4.63
6.76
8.60
10.10
11.17
11.72
11.76
11.44
10.95
10.46
10.05
9.68
9.27
8.74
8.12
7.49
6.94
6.49
6.08
5.60
4.95
4.11
3.06
1.86
0.51
-0.96
-2.51
-4.07
-5.53
-6.80
-7.84
-8.72
-9.56
-10.57
-11.87
-13.55
-15.49
-17.46
-19.07
-19.91
-19.67
-18.21
-15.65
-12.26
-8.45
-4.59
-0.96
2.24
4.93
7.10
8.78
10.04
10.95
11.53
11.85
11.91
11.76
11.47
11.13
10.82
10.58
10.41
10.27
10.10
9.87
9.50
8.96
8.22
7.25
6.06
4.66
3.12
1.50
-0.09
-1.57
-2.90
-4.07
-5.12
-6.11
-7.10
-8.15
-9.27
-10.51
-11.86
-13.33
-14.92
-16.55
-18.04
-19.12
-19.47
-18.79
-16.90
-13.81
-9.76
-5.15
-0.48
3.82
7.43
10.18
12.07
13.17
13.61
13.54
13.13
12.55
11.96
11.48
11.14
10.92
10.72
10.47
10.14
9.79
9.48
9.27
9.12
8.93
8.59
8.01
7.19
6.19
5.09
3.92
2.67
1.31
-0.16
-1.70
-3.24
-4.72
-6.09
-7.34
-8.49
-9.61
-10.78
-12.11
-13.64
-15.29
-16.81
-17.81
-17.84
-16.61
-14.06
-10.41
-6.13
-1.78
2.21
5.56
8.25
10.38
12.07
13.35
14.16
14.38
14.02
13.24
12.35
11.70
11.45
11.59
11.87
12.00
11.76
11.10
10.14
9.06
8.01
7.06
6.23
5.47
4.73
3.95
2.99
1.74
0.13
-1.79
-3.82
-5.70
-7.21
-8.28
-9.04
-9.78
-10.78
-12.21
-14.06
-16.07
-17.86
-19.02
-19.16
-18.07
-15.72
-12.29
-8.14
-3.74
0.48
4.19
7.22
9.57
11.30
12.49
13.20
13.48
13.38
13.01
12.50
11.97
11.52
11.12
10.72
10.24
9.69
9.11
8.58
8.14
7.75
7.29
6.64
5.75
4.63
3.43
2.26
1.18
0.17
-0.86
-1.98
-3.22
-4.51
-5.76
-6.93
-8.02
-9.11
-10.30
-11.70
-13.37
-15.30
-17.31
-19.11
-20.31
-20.50
-19.43
-17.04
-13.51
-9.23
-4.67
-0.26
3.66
6.88
9.29
10.89
11.77
12.04
11.89
11.48
10.95
10.43
10.00
9.72
9.60
9.59
9.64
9.65
9.55
9.30
8.89
8.34
7.66
6.88
6.01
5.06
4.03
2.91
1.70
0.40
-0.96
-2.34
-3.67
-4.90
-6.01
-7.00
-7.98
-9.04
-10.29
-11.80
-13.56
-15.50
-17.45
-19.12
-20.14
-20.13
-18.84
-16.21
-12.49
-8.13
-3.70
0.31
3.59
6.08
7.88
9.21
10.23
11.01
11.55
11.74
11.58
11.09
10.45
9.84
9.40
9.15
9.02
8.87
8.62
8.29
7.95
7.64
7.33
6.87
6.15
5.10
3.83
2.52
1.34
0.35
-0.52
-1.42
-2.45
-3.61
-4.81
-5.94
-6.95
-7.87
-8.83
-9.97
-11.34
-12.92
-14.60
-16.23
-17.61
-18.50
-18.69
-17.98
-16.28
-13.64
-10.30
-6.59
-2.85
0.65
3.76
6.41
8.55
10.11
11.01
11.26
10.96
10.34
9.64
9.08
8.72
8.51
8.34
8.15
7.92
7.72
7.58
7.45
7.23
6.80
6.08
5.16
4.17
3.25
2.47
1.77
1.03
0.17
-0.83
-1.90
-2.89
-3.78
-4.61
-5.52
-6.63
-7.94
-9.31
-10.55
-11.54
-12.28
-12.96
-13.79
-14.91
-16.21
-17.40
-18.03
-17.72
-16.28
-13.76
-10.40
-6.60
-2.77
0.75
3.71
5.99
7.55
8.45
8.79
8.73
8.42
8.02
7.65
7.38
7.23
7.17
7.15
7.08
6.93
6.70
6.42
6.16
5.95
5.79
5.59
5.24
4.63
3.73
2.60
1.39
0.21
-0.83
-1.71
-2.46
-3.17
-3.90
-4.71
-5.62
-6.61
-7.63
-8.63
-9.59
-10.53
-11.53
-12.68
-13.95
-15.17
-16.02
-16.12
-15.16
-13.02
-9.89
-6.14
-2.25
1.34
4.36
6.70
8.36
9.43
9.99
10.16
10.06
9.82
9.55
9.33
9.14
8.95
8.67
8.29
7.86
7.47
7.23
7.15
7.19
7.23
7.11
6.72
5.98
4.90
3.59
2.19
0.86
-0.27
-1.17
-1.91
-2.60
-3.33
-4.16
-5.05
-5.95
-6.85
-7.82
-8.96
-10.35
-11.96
-13.63
-15.13
-16.19
-16.57
-16.09
-14.73
-12.53
-9.69
-6.49
-3.22
-0.12
2.64
5.01
6.97
8.51
9.61
10.26
10.48
10.38
10.08
9.73
9.39
9.07
8.77
8.47
8.20
8.02
7.94
7.94
7.95
7.85
7.55
6.99
6.18
5.18
4.04
2.85
1.64
0.41
-0.80
-1.98
-3.09
-4.12
-5.09
-6.04
-7.05
-8.16
-9.40
-10.75
-12.15
-13.53
-14.79
-15.86
-16.64
-16.98
-16.74
-15.79
-14.06
-11.60
-8.56
-5.21
-1.84
1.27
3.95
6.13
7.85
9.16
10.11
10.73
11.02
11.01
10.75
10.38
9.99
9.67
9.39
9.08
8.67
8.13
7.51
6.93
6.46
6.11
5.80
5.37
4.70
3.78
2.71
1.62
0.65
-0.19
-0.97
-1.81
-2.79
-3.94
-5.21
-6.56
-7.94
-9.37
-10.89
-12.53
-14.25
-15.94
-17.39
-18.36
-18.59
-17.90
-16.21
-13.63
-10.38
-6.77
-3.14
0.28
3.32
5.89
7.96
9.50
10.51
11.03
11.11
10.88
10.50
10.09
9.75
9.49
9.30
9.11
8.92
8.74
8.60
8.49
8.33
7.97
7.28
6.21
4.86
3.40
2.05
0.94
0.09
-0.63
-1.34
-2.19
-3.23
-4.46
-5.81
-7.21
-8.55
-9.74
-10.74
-11.54
-12.25
-13.01
-13.92
-14.95
-15.91
-16.49
-16.37
-15.33
-13.33
-10.53
-7.22
-3.71
-0.30
2.80
5.44
7.51
8.93
9.69
9.88
9.65
9.21
8.74
8.38
8.19
8.16
8.23
8.33
8.43
8.46
8.39
8.19
7.84
7.35
6.76
6.11
5.41
4.67
3.87
2.99
2.02
0.96
-0.19
-1.43
-2.77
-4.15
-5.50
-6.71
-7.72
-8.56
-9.32
-10.11
-11.00
-11.97
-12.89
-13.53
-13.65
-13.05
-11.63
-9.40
-6.52
-3.26
0.08
3.19
5.88
8.01
9.55
10.50
10.93
10.97
10.76
10.50
10.35
10.35
10.45
10.50
10.34
9.89
9.16
8.24
7.28
6.37
5.56
4.87
4.28
3.78
3.34
2.85
2.23
1.35
0.19
-1.17
-2.62
-4.02
-5.30
-6.50
-7.74
-9.15
-10.80
-12.66
-14.59
-16.33
-17.62
-18.19
-17.86
-16.55
-14.32
-11.38
-8.01
-4.54
-1.22
1.77
4.36
6.53
8.29
9.66
10.62
11.17
11.31
11.07
10.56
9.95
9.40
9.04
8.90
8.90
8.89
8.73
8.35
7.77
7.07
6.33
5.59
4.77
3.80
2.60
1.19
-0.37
-1.96
-3.47
-4.82
-6.00
-7.04
-8.02
-9.06
-10.25
-11.65
-13.23
-14.92
-16.56
-17.95
-18.88
-19.12
-18.44
-16.72
-14.00
-10.50
-6.56
-2.59
1.13
4.42
7.24
9.60
11.48
12.81
13.52
13.63
13.25
12.59
11.85
11.25
10.86
10.68
10.62
10.57
10.38
9.98
9.39
8.70
8.00
7.36
6.73
5.97
4.90
3.45
1.67
-0.26
-2.14
-3.82
-5.26
-6.55
-7.81
-9.12
-10.53
-12.05
-13.67
-15.32
-16.90
-18.19
-18.92
-18.81
-17.65
-15.39
-12.19
-8.33
-4.23
-0.28
3.23
6.14
8.50
10.43
12.06
13.46
14.55
15.24
15.43
15.13
14.49
13.73
13.03
12.52
12.18
11.91
11.61
11.15
10.47
9.60
8.59
7.56
6.59
5.71
4.86
3.93
2.81
1.46
-0.05
-1.60
-3.05
-4.33
-5.44
-6.50
-7.61
-8.89
-10.41
-12.16
-14.06
-15.98
-17.65
-18.78
-19.05
-18.20
-16.14
-12.99
-9.06
-4.81
-0.71
2.94
5.99
8.49
10.55
12.24
13.53
14.32
14.52
14.16
13.42
12.54
11.75
11.14
10.68
10.28
9.87
9.44
9.01
8.56
8.04
7.37
6.51
5.46
4.29
3.06
1.81
0.56
-0.68
-1.86
-2.94
-3.89
-4.72
-5.53
-6.41
-7.43
-8.59
-9.84
-11.16
-12.56
-14.10
-15.73
-17.26
-18.29
-18.38
-17.18
-14.68
-11.17
-7.18
-3.27
0.23
3.19
5.69
7.83
9.62
10.95
11.69
11.84
11.49
10.93
10.42
10.16
10.19
10.40
10.63
10.70
10.54
10.16
9.62
8.99
8.27
7.46
6.54
5.50
4.36
3.14
1.90
0.65
-0.55
-1.66
-2.63
-3.47
-4.22
-4.96
-5.79
-6.77
-7.96
-9.36
-10.95
-12.68
-14.42
-15.94
-16.96
-17.17
-16.33
-14.35
-11.36
-7.68
-3.73
0.06
3.36
6.03
8.05
9.50
10.48
11.09
11.41
11.53
11.49
11.28
10.92
10.37
9.69
8.97
8.34
7.91
7.68
7.52
7.27
6.82
6.15
5.35
4.52
3.72
2.91
2.03
0.99
-0.20
-1.52
-2.91
-4.31
-5.67
-6.96
-8.16
-9.28
-10.34
-11.44
-12.64
-14.01
-15.50
-16.98
-18.20
-18.87
-18.72
-17.61
-15.50
-12.56
-9.04
-5.27
-1.53
1.92
4.91
7.35
9.16
10.32
10.87
10.92
10.64
10.24
9.88
9.62
9.43
9.22
8.94
8.60
8.27
8.03
7.88
7.74
7.47
6.97
6.23
5.32
4.34
3.35
2.32
1.17
-0.17
-1.69
-3.32
-4.92
-6.38
-7.64
-8.73
-9.72
-10.72
-11.81
-13.03
-14.39
-15.86
-17.36
-18.69
-19.61
-19.82
-19.07
-17.25
-14.44
-10.95
-7.18
-3.51
-0.17
2.76
5.27
7.39
9.10
10.32
11.02
11.25
11.15
10.91
10.71
10.60
10.56
10.51
10.39
10.16
9.85
9.48
9.06
8.57
7.97
7.26
6.45
5.60
4.73
3.83
2.83
1.66
0.29
-1.26
-2.88
-4.43
-5.79
-6.94
-7.93
-8.87
-9.88
-11.06
-12.45
-14.07
-15.82
-17.55
-18.98
-19.79
-19.71
-18.55
-16.33
-13.23
-9.56
-5.67
-1.88
1.61
4.67
7.26
9.40
11.07
12.28
13.04
13.39
13.41
13.22
12.90
12.54
12.15
11.73
11.27
10.72
10.11
9.47
8.83
8.26
7.74
7.18
6.44
5.40
4.06
2.52
0.95
-0.52
-1.87
-3.18
-4.57
-6.10
-7.74
-9.37
-10.88
-12.22
-13.43
-14.61
-15.87
-17.26
-18.82
-20.47
-22.07
-23.35
-23.96
-23.60
-22.12
-19.58
-16.33
-12.80
-9.42
-6.50
-4.18
-2.47
-1.30
-0.57
-0.08
0.40
1.17
2.46
4.35
6.73
9.33
11.85
14.03
15.72
16.88
17.55
17.73
17.50
16.92
16.13
15.30
14.58
14.05
13.73
13.54
13.37
13.08
12.58
11.82
10.83
9.70
8.52
7.37
6.27
5.20
4.07
2.87
1.61
0.33
-0.94
-2.19
-3.46
-4.75
-6.02
-7.22
-8.27
-9.21
-10.12
-11.17
-12.41
-13.78
-15.04
-15.80
-15.69
-14.49
-12.21
-9.08
-5.46
-1.73
1.79
4.90
7.47
9.45
10.86
11.73
12.17
12.28
12.17
11.93
11.63
11.29
10.93
10.54
10.10
9.59
8.98
8.33
7.69
7.12
6.65
6.22
5.76
5.19
4.50
3.68
2.76
1.72
0.54
-0.79
-2.18
-3.52
-4.66
-5.55
-6.26
-6.93
-7.75
-8.85
-10.26
-11.91
-13.70
-15.43
-16.87
-17.72
-17.69
-16.61
-14.45
-11.45
-7.95
-4.38
-1.06
1.84
4.30
6.37
8.12
9.54
10.62
11.28
11.50
11.31
10.82
10.14
9.43
8.82
8.37
8.08
7.90
7.75
7.56
7.32
7.00
6.63
6.15
5.51
4.64
3.54
2.30
1.03
-0.16
-1.24
-2.25
-3.25
-4.28
-5.31
-6.28
-7.18
-8.03
-8.94
-10.04
-11.35
-12.82
-14.31
-15.58
-16.45
-16.74
-16.35
-15.24
-13.44
-11.06
-8.27
-5.27
-2.25
0.60
3.17
5.36
7.13
8.46
9.37
9.89
10.12
10.12
9.98
9.77
9.52
9.27
9.06
8.91
8.80
8.68
8.48
8.09
7.46
6.59
5.59
4.59
3.69
2.92
2.24
1.54
0.72
-0.23
-1.29
-2.38
-3.47
-4.56
-5.68
-6.86
-8.07
-9.24
-10.34
-11.35
-12.36
-13.43
-14.59
-15.76
-16.72
-17.21
-16.98
-15.90
-13.97
-11.38
-8.39
-5.32
-2.41
0.17
2.36
4.17
5.63
6.73
7.47
7.83
7.86
7.63
7.27
6.88
6.57
6.41
6.40
6.52
6.71
6.90
7.00
6.92
6.63
6.12
5.44
4.64
3.77
2.86
1.91
0.93
-0.05
-0.98
-1.85
-2.67
-3.48
-4.29
-5.13
-5.98
-6.81
-7.66
-8.60
-9.69
-10.99
-12.43
-13.82
-14.94
-15.55
-15.47
-14.62
-13.04
-10.80
-8.06
-5.04
-1.96
0.95
3.55
5.75
7.52
8.86
9.75
10.17
10.12
9.65
8.87
7.95
7.06
6.30
5.68
5.13
4.56
3.88
3.08
2.11
0.97
-0.34
-1.81
-3.33
-4.81
-6.13
-7.32
-8.55
-10.09
-12.28
-15.29
-19.03
-23.15
-27.11
-30.39
-32.65
-33.77
-33.92
-33.41
-32.57
-31.67
-30.76
-29.76
-28.41
-26.43
-23.66
-20.13
-16.04
-11.70
-7.37
-3.19
0.81
4.60
8.11
11.17
13.59
15.28
16.31
16.92
17.33
17.63
17.76
17.56
16.92
15.95
14.96
14.34
14.42
15.34
17.02
19.24
21.73
24.24
26.65
28.89
30.99
32.98
34.85
36.54
37.91
38.74
38.83
38.04
36.37
34.00
31.25
28.53
26.26
24.75
24.18
24.58
25.75
27.33
28.84
29.74
29.52
27.82
24.56
20.00
14.69
9.32
4.51
0.58
-2.48
-4.94
-7.13
-9.25
-11.27
-13.01
-14.23
-14.76
-14.61
-13.98
-13.20
-12.63
-12.59
-13.22
-14.44
-15.98
-17.43
-18.43
-18.78
-18.48
-17.72
-16.73
-15.69
-14.69
-13.74
-12.87
-12.14
-11.68
-11.57
-11.85
-12.45
-13.21
-14.01
-14.77
-15.48
-16.18
-16.87
-17.47
-17.79
-17.61
-16.71
-15.01
-12.63
-9.83
-6.96
-4.32
-2.09
-0.28
1.18
2.42
3.55
4.60
5.60
6.55
7.43
8.25
9.01
9.66
10.14
10.34
10.21
9.74
8.99
8.10
7.19
6.34
5.60
4.93
4.24
3.45
2.48
1.34
0.08
-1.22
-2.45
-3.53
-4.43
-5.16
-5.75
-6.26
-6.74
-7.25
-7.90
-8.75
-9.80
-10.93
-11.89
-12.37
-12.11
-11.03
-9.27
-7.17
-5.07
-3.24
-1.78
-0.64
0.29
1.08
1.74
2.21
2.49
2.60
2.60
2.56
2.45
2.23
1.89
1.52
1.33
1.57
2.41
3.84
5.67
7.57
9.22
10.37
10.92
10.87
10.28
9.30
8.10
6.86
5.76
4.91
4.35
4.06
3.95
3.92
3.86
3.69
3.41
3.11
2.96
3.13
3.73
4.76
6.09
7.54
8.96
10.23
11.34
12.26
12.98
13.49
13.80
13.95
14.04
14.15
14.28
14.33
14.14
13.55
12.52
11.10
9.45
7.81
6.36
5.24
4.50
4.07
3.82
3.60
3.24
2.66
1.88
0.98
0.13
-0.59
-1.11
-1.45
-1.69
-1.90
-2.20
-2.67
-3.37
-4.31
-5.43
-6.59
-7.60
-8.29
-8.64
-8.75
-8.82
-9.03
-9.46
-10.06
-10.64
-11.07
-11.22
-11.10
-10.73
-10.13
-9.30
-8.23
-6.92
-5.47
-4.00
-2.69
-1.65
-0.95
-0.62
-0.60
-0.84
-1.28
-1.82
-2.38
-2.86
-3.20
-3.37
-3.37
-3.25
-3.07
-2.88
-2.68
-2.48
-2.29
-2.16
-2.16
-2.39
-2.92
-3.71
-4.64
-5.51
-6.16
-6.51
-6.61
-6.60
-6.63
-6.82
-7.23
-7.84
-8.59
-9.44
-10.35
-11.22
-11.97
-12.45
-12.51
-12.00
-10.84
-9.07
-6.81
-4.31
-1.85
0.33
2.06
3.31
4.11
4.58
4.79
4.82
4.73
4.55
4.35
4.17
4.02
3.89
3.74
3.57
3.43
3.38
3.46
3.67
3.94
4.12
4.12
3.86
3.39
2.81
2.22
1.72
1.32
0.97
0.65
0.31
-0.07
-0.49
-0.98
-1.58
-2.31
-3.20
-4.24
-5.39
-6.57
-7.70
-8.67
-9.36
-9.61
-9.34
-8.50
-7.15
-5.43
-3.55
-1.76
-0.23
0.94
1.75
2.31
2.75
3.17
3.62
4.07
4.43
4.61
4.55
4.28
3.88
3.51
3.28
3.25
3.36
3.50
3.53
3.33
2.91
2.34
1.73
1.20
0.78
0.42
0.01
-0.52
-1.21
-2.04
-2.97
-3.97
-5.01
-6.07
-7.11
-8.08
-8.93
-9.68
-10.42
-11.24
-12.21
-13.25
-14.22
-14.92
-15.18
-14.89
-14.02
-12.58
-10.61
-8.22
-5.60
-2.98
-0.63
1.25
2.60
3.47
3.98
4.26
4.42
4.50
4.54
4.60
4.69
4.87
5.09
5.31
5.43
5.37
5.10
4.68
4.19
3.73
3.38
3.17
3.03
2.85
2.53
1.97
1.19
0.24
-0.77
-1.75
-2.70
-3.63
-4.58
-5.57
-6.49
-7.25
-7.76
-8.04
-8.24
-8.55
-9.13
-10.01
-11.10
-12.23
-13.20
-13.82
-13.96
-13.52
-12.46
-10.84
-8.79
-6.52
-4.27
-2.21
-0.37
1.25
2.69
3.91
4.82
5.34
5.45
5.26
4.97
4.78
4.79
4.94
5.08
5.07
4.85
4.53
4.26
4.18
4.32
4.54
4.64
4.47
4.01
3.40
2.84
2.48
2.33
2.22
1.91
1.22
0.14
-1.16
-2.43
-3.48
-4.25
-4.87
-5.51
-6.34
-7.39
-8.65
-10.03
-11.42
-12.69
-13.63
-13.97
-13.43
-11.85
-9.30
-6.09
-2.67
0.53
3.26
5.44
7.17
8.57
9.68
10.46
10.86
10.85
10.50
9.95
9.36
8.83
8.43
8.16
8.00
7.93
7.95
8.01
8.07
8.08
8.01
7.86
7.61
7.26
6.76
6.01
4.98
3.64
2.07
0.37
-1.37
-3.06
-4.61
-5.95
-6.98
-7.68
-8.10
-8.47
-9.08
-10.14
-11.68
-13.41
-14.84
-15.37
-14.62
-12.48
-9.18
-5.13
-0.84
3.27
6.89
9.84
12.04
13.51
14.31
14.57
14.44
14.07
13.62
13.19
12.83
12.55
12.29
12.02
11.68
11.28
10.84
10.40
9.95
9.45
8.86
8.14
7.31
6.45
5.58
4.70
3.69
2.43
0.86
-0.98
-2.92
-4.76
-6.34
-7.63
-8.71
-9.73
-10.78
-11.87
-12.94
-13.89
-14.63
-15.12
-15.29
-15.05
-14.28
-12.88
-10.81
-8.18
-5.20
-2.18
0.58
2.89
4.62
5.76
6.35
6.49
6.24
5.70
4.96
4.11
3.17
2.14
0.98
-0.33
-1.78
-3.24
-4.52
-5.45
-5.95
-6.08
-6.05
-6.08
-6.34
-6.85
-7.49
-8.08
-8.46
-8.56
-8.40
-8.09
-7.77
-7.54
-7.48
-7.60
-7.80
-7.98
-8.02
-7.88
-7.69
-7.69
-8.15
-9.22
-10.75
-12.29
-13.17
-12.69
-10.40
-6.26
-0.71
5.49
11.53
16.71
20.65
23.26
24.75
25.49
25.87
26.24
26.78
27.46
28.07
28.31
27.91
26.85
25.32
23.70
22.35
21.47
21.01
20.74
20.41
19.85
19.05
18.08
17.03
15.90
14.63
13.14
11.43
9.57
7.71
6.00
4.50
3.15
1.87
0.57
-0.73
-1.92
-2.82
-3.32
-3.36
-3.03
-2.50
-1.92
-1.40
-0.93
-0.47
0.10
0.83
1.76
2.91
4.28
5.85
7.58
9.36
11.06
12.58
13.88
15.04
16.15
17.25
18.21
18.79
18.78
18.11
16.97
15.68
14.58
13.82
13.29
12.76
11.94
10.68
8.97
6.91
4.56
2.02
-0.64
-3.31
-5.80
-7.98
-9.79
-11.27
-12.52
-13.63
-14.57
-15.27
-15.63
-15.60
-15.21
-14.59
-13.84
-13.05
-12.20
-11.25
-10.18
-8.99
-7.72
-6.47
-5.34
-4.34
-3.42
-2.44
-1.24
0.30
2.22
4.46
6.85
9.18
11.29
13.07
14.46
15.44
15.94
15.91
15.29
14.09
12.44
10.52
8.53
6.59
4.67
2.55
-0.16
-3.86
-8.80
-14.91
-21.74
-28.57
-34.60
-39.22
-42.14
-43.44
-43.45
-42.56
-41.08
-39.24
-37.20
-35.17
-33.39
-32.05
-31.20
-30.69
-30.20
-29.35
-27.89
-25.79
-23.22
-20.48
-17.81
-15.29
-12.80
-10.18
-7.32
-4.30
-1.42
1.03
2.76
3.70
3.93
3.62
2.96
2.06
0.99
-0.22
-1.49
-2.72
-3.77
-4.48
-4.70
-4.31
-3.27
-1.72
0.03
1.66
2.81
3.25
2.96
2.00
0.51
-1.28
-2.99
-3.89
-2.90
1.04
8.51
19.06
31.06
41.90
48.52
48.24
39.71
23.52
2.07
-21.02
-41.76
-56.97
-64.86
-65.59
-60.95
-53.45
-45.30
-38.24
-33.40
-30.98
-29.81
-26.80
-18.05
-0.29
27.51
63.25
101.32
134.41
156.28
163.94
158.68
144.19
124.54
102.59
79.89
56.62
32.59
8.12
-16.73
-38.69
-53.55
-58.96
-57.61
-52.56
-45.99
-39.11
-31.52
-23.37
-14.75
-6.23
1.35
7.34
11.83
15.06
17.17
18.11
17.66
15.92
12.91
8.64
3.33
-2.28
-7.51
-11.90
-15.10
-16.86
-16.67
-14.26
-9.79
-3.90
2.52
8.43
12.95
15.66
16.55
15.95
14.02
10.83
6.75
3.03
1.44
3.64
10.07
19.33
28.46
34.03
33.71
27.23
16.29
3.54
-8.78
-19.63
-29.06
-37.53
-45.24
-51.85
-56.72
-59.40
-59.98
-59.09
-57.66
-56.52
-56.07
-56.17
-56.19
-55.28
-52.71
-48.28
-42.38
-35.88
-29.71
-24.44
-20.12
-16.43
-13.05
-9.93
-7.40
-5.88
-5.66
-6.61
-8.29
-10.05
-11.34
-11.77
-11.22
-9.74
-7.57
-5.02
-2.37
0.14
2.43
4.53
6.54
8.53
10.49
12.33
13.87
14.91
15.29
14.99
14.26
13.62
13.68
14.89
17.35
20.68
24.19
27.22
29.42
30.87
31.96
33.10
34.41
35.59
36.01
35.05
32.28
27.75
21.96
15.65
9.56
4.23
-0.19
-3.85
-7.02
-10.01
-12.93
-15.77
-18.48
-21.02
-23.48
-26.02
-28.79
-31.78
-34.78
-37.41
-39.24
-39.95
-39.45
-37.80
-35.18
-31.62
-27.00
-21.02
-13.32
-3.60
8.20
21.85
36.77
51.88
65.69
76.51
82.77
83.55
78.93
70.06
58.86
47.39
37.24
29.18
23.08
18.31
14.10
9.96
5.71
1.48
-2.52
-6.08
-9.05
-11.33
-12.83
-13.47
-13.22
-12.07
-10.02
-7.07
-3.23
1.38
6.40
11.27
15.40
18.42
20.38
21.71
22.94
24.34
25.66
26.17
25.05
21.77
16.42
9.63
2.29
-4.83
-11.28
-16.95
-21.89
-26.15
-29.72
-32.52
-34.54
-35.96
-37.14
-38.60
-40.89
-44.38
-49.10
-54.53
-59.64
-63.14
-63.90
-61.50
-56.49
-50.24
-44.46
-40.41
-38.38
-37.59
-36.58
-33.72
-27.70
-17.71
-3.42
14.97
36.55
59.52
81.26
98.88
109.96
113.39
109.65
100.54
88.47
75.67
63.68
53.25
44.49
37.14
30.76
24.90
19.17
13.44
7.85
2.71
-1.64
-5.04
-7.47
-9.07
-10.00
-10.43
-10.53
-10.51
-10.50
-10.50
-10.20
-9.12
-6.84
-3.28
1.05
5.26
8.34
9.66
9.17
7.42
5.20
3.20
1.74
0.75
-0.09
-1.11
-2.50
-4.25
-6.21
-8.20
-10.09
-11.86
-13.61
-15.47
-17.60
-20.06
-22.86
-25.93
-29.07
-32.06
-34.58
-36.43
-37.44
-37.57
-36.81
-35.08
-32.22
-28.02
-22.47
-15.81
-8.59
-1.46
5.07
10.86
16.08
21.09
26.18
31.37
36.47
41.16
45.18
48.29
50.28
50.88
49.74
46.57
41.29
34.14
25.69
16.68
7.84
-0.29
-7.42
-13.50
-18.57
-22.66
-25.79
-27.96
-29.25
-29.85
-29.96
-29.68
-28.89
-27.22
-24.21
-19.58
-13.47
-6.51
0.43
6.47
11.05
13.99
15.32
15.08
13.24
9.78
4.88
-0.90
-6.78
-12.02
-16.25
-19.60
-22.46
-25.22
-27.92
-30.26
-31.77
-32.07
-31.02
-28.77
-25.61
-21.88
-17.98
-14.39
-11.67
-10.25
-10.36
-11.78
-13.90
-15.88
-16.94
-16.58
-14.78
-11.94
-8.74
-6.00
-4.34
-3.98
-4.63
-5.58
-5.93
-4.91
-2.23
1.87
6.76
11.69
16.04
19.39
21.48
22.11
21.13
18.52
14.55
9.73
4.71
-0.03
-4.32
-8.35
-12.40
-16.64
-20.86
-24.61
-27.39
-28.93
-29.36
-29.08
-28.52
-27.95
-27.43
-26.85
-26.09
-24.93
-22.98
-19.52
-13.59
-4.39
8.13
22.86
37.71
50.18
58.34
61.54
60.49
56.76
51.94
46.99
42.08
36.89
31.17
25.02
18.93
13.39
8.60
4.36
0.18
-4.31
-9.10
-13.84
-18.02
-21.33
-23.89
-26.25
-29.13
-33.02
-37.89
-43.15
-47.80
-50.86
-51.74
-50.42
-47.39
-43.45
-39.34
-35.53
-32.13
-28.91
-25.43
-21.10
-15.35
-7.67
2.16
13.99
27.12
40.43
52.50
61.93
67.60
68.90
65.78
58.70
48.51
36.27
23.02
9.62
-3.28
-15.30
-26.18
-35.69
-43.65
-49.94
-54.55
-57.60
-59.30
-59.77
-59.01
-56.87
-53.31
-48.53
-43.04
-37.42
-31.89
-26.03
-18.80
-9.03
3.83
19.27
35.62
50.68
62.48
70.01
73.37
73.42
71.22
67.50
62.58
56.50
49.40
41.56
33.43
25.40
17.64
10.10
2.62
-4.85
-12.14
-18.95
-24.96
-30.07
-34.52
-38.85
-43.68
-49.42
-56.03
-62.88
-68.79
-72.40
-72.64
-69.20
-62.67
-54.43
-46.02
-38.49
-31.97
-25.64
-18.34
-9.22
1.64
13.26
24.20
33.18
39.58
43.42
45.06
44.84
42.93
39.50
35.03
30.51
27.21
26.25
28.07
32.16
37.26
41.84
44.69
45.29
43.88
41.19
38.07
35.15
32.66
30.45
28.13
25.26
21.51
16.79
11.25
5.34
-0.32
-5.07
-8.37
-9.96
-10.01
-9.09
-8.09
-7.81
-8.63
-10.29
-11.92
-12.56
-11.64
-9.30
-6.32
-3.59
-1.62
-0.22
1.36
3.87
7.56
12.02
16.37
19.79
21.93
23.00
23.44
23.60
23.46
22.73
21.13
18.61
15.55
12.64
10.68
10.33
11.90
15.27
19.90
25.00
29.69
33.27
35.31
35.74
34.68
32.36
29.03
24.99
20.70
16.75
13.72
11.97
11.39
11.45
11.39
10.57
8.74
6.08
3.07
0.21
-2.20
-4.10
-5.66
-7.06
-8.42
-9.75
-10.97
-11.96
-12.60
-12.73
-12.19
-10.85
-8.65
-5.73
-2.42
0.80
3.38
4.88
5.06
3.87
1.48
-1.82
-5.60
-9.42
-12.88
-15.67
-17.70
-19.05
-19.90
-20.45
-20.77
-20.77
-20.24
-19.02
-17.12
-14.73
-12.21
-9.93
-8.15
-6.99
-6.40
-6.30
-6.62
-7.39
-8.60
-10.19
-11.89
-13.26
-13.84
-13.29
-11.55
-8.85
-5.62
-2.38
0.42
2.54
3.91
4.66
4.96
4.94
4.61
3.87
2.63
0.84
-1.35
-3.60
-5.52
-6.70
-6.82
-5.69
-3.21
0.61
5.54
11.05
16.30
20.22
21.89
20.86
17.38
12.32
6.83
1.91
-1.95
-4.90
-7.50
-10.33
-13.65
-17.24
-20.52
-22.82
-23.72
-23.11
-21.23
-18.45
-15.12
-11.48
-7.75
-4.18
-1.07
1.28
2.63
2.95
2.39
1.26
-0.09
-1.31
-2.20
-2.62
-2.56
-2.06
-1.25
-0.24
0.84
1.90
2.93
3.88
4.71
5.32
5.63
5.56
5.12
4.44
3.68
3.00
2.40
1.80
1.06
0.08
-1.08
-2.25
-3.15
-3.54
-3.29
-2.41
-1.08
0.45
1.91
3.06
3.76
4.04
4.07
4.13
4.50
5.35
6.64
8.13
9.48
10.40
10.73
10.48
9.80
8.85
7.73
6.53
5.28
4.08
3.04
2.21
1.52
0.71
-0.57
-2.64
-5.56
-9.12
-12.86
-16.25
-18.96
-20.93
-22.34
-23.48
-24.58
-25.62
-26.40
-26.61
-26.06
-24.73
-22.85
-20.76
-18.80
-17.13
-15.69
-14.23
-12.47
-10.25
-7.56
-4.59
-1.54
1.41
4.22
6.91
9.51
11.95
14.11
15.80
16.89
17.29
17.02
16.15
14.87
13.43
12.17
11.38
11.22
11.62
12.30
12.89
13.09
12.75
11.94
10.83
9.66
8.66
7.95
7.51
7.07
6.14
4.11
0.51
-4.72
-11.05
-17.45
-22.74
-26.00
-26.94
-26.01
-24.09
-22.04
-20.29
-18.58
-16.14
-12.18
-6.46
0.42
7.13
12.17
14.67
14.85
13.96
13.66
15.08
18.23
21.96
24.54
24.56
21.60
16.33
10.09
4.22
-0.48
-3.93
-6.53
-8.77
-10.97
-13.13
-15.11
-16.86
-18.50
-20.32
-22.56
-25.20
-27.78
-29.52
-29.56
-27.33
-22.79
-16.53
-9.57
-3.03
2.17
5.60
7.27
7.55
7.02
6.28
5.88
6.15
7.17
8.74
10.46
11.85
12.54
12.39
11.46
9.96
8.14
6.26
4.51
3.04
1.84
0.80
-0.33
-1.83
-3.83
-6.26
-8.85
-11.28
-13.29
-14.85
-16.10
-17.27
-18.54
-19.97
-21.44
-22.72
-23.55
-23.60
-22.60
-20.33
-16.70
-11.81
-5.97
0.32
6.43
11.63
15.31
16.98
16.50
14.06
10.21
5.70
1.38
-2.04
-4.10
-4.58
-3.51
-1.04
2.59
7.04
11.86
16.50
20.41
23.16
24.63
25.07
24.99
24.99
25.43
26.35
27.47
28.37
28.74
28.40
27.28
25.25
22.01
17.23
10.80
3.15
-4.69
-11.36
-15.60
-16.77
-15.06
-11.33
-6.75
-2.34
1.24
3.70
4.96
4.97
3.81
1.72
-0.71
-2.64
-3.22
-1.96
1.01
4.95
8.72
11.25
11.91
10.76
8.50
6.15
4.69
4.66
5.98
8.04
9.90
10.66
9.70
6.84
2.34
-3.25
-9.12
-14.43
-18.44
-20.74
-21.28
-20.46
-18.95
-17.47
-16.55
-16.47
-17.18
-18.44
-19.85
-21.01
-21.61
-21.54
-20.92
-20.08
-19.48
-19.44
-20.01
-20.91
-21.58
-21.41
-19.82
-16.49
-11.45
-5.08
1.85
8.37
13.65
17.26
19.42
20.93
22.88
26.08
30.76
36.42
42.08
46.71
49.66
50.71
50.01
47.75
44.00
38.73
32.06
24.49
17.03
10.88
7.00
5.61
6.07
7.03
7.05
5.12
1.07
-4.48
-10.50
-15.95
-20.22
-23.15
-24.91
-25.71
-25.67
-24.80
-23.06
-20.56
-17.56
-14.39
-11.29
-8.28
-5.21
-1.96
1.31
4.08
5.56
5.06
2.37
-2.05
-7.20
-11.81
-14.91
-16.05
-15.44
-13.76
-11.81
-10.23
-9.29
-8.93
-8.83
-8.63
-8.08
-7.07
-5.71
-4.19
-2.73
-1.50
-0.62
-0.12
0.02
-0.06
-0.10
0.21
1.13
2.75
4.92
7.29
9.36
10.68
10.98
10.21
8.58
6.52
4.56
3.24
2.97
3.96
6.10
9.05
12.29
15.34
17.83
19.61
20.67
21.01
20.54
19.02
16.14
11.67
5.62
-1.62
-9.34
-16.66
-22.80
-27.20
-29.70
-30.46
-29.84
-28.25
-26.00
-23.25
-20.01
-16.23
-11.89
-7.04
-1.82
3.53
8.81
13.80
18.34
22.21
25.23
27.21
28.09
28.02
27.38
26.73
26.63
27.46
29.28
31.81
34.50
36.70
37.83
37.48
35.51
32.03
27.40
22.11
16.67
11.47
6.62
2.00
-2.71
-7.75
-13.17
-18.69
-23.79
-27.88
-30.58
-31.84
-32.00
-31.67
-31.49
-31.97
-33.32
-35.50
-38.27
-41.30
-44.21
-46.57
-47.97
-48.08
-46.79
-44.31
-41.09
-37.57
-33.84
-29.57
-24.02
-16.46
-6.53
5.43
18.43
31.20
42.48
51.31
57.12
59.56
58.42
53.66
45.56
34.94
23.18
12.05
3.21
-2.33
-4.44
-3.99
-2.45
-1.32
-1.73
-4.08
-8.12
-13.16
-18.35
-22.87
-26.03
-27.33
-26.48
-23.44
-18.46
-12.05
-4.95
2.09
8.39
13.47
17.09
19.21
19.90
19.39
17.97
15.99
13.85
11.87
10.31
9.24
8.55
7.98
7.20
5.92
4.01
1.54
-1.30
-4.29
-7.28
-10.21
-13.05
-15.73
-18.08
-19.89
-21.01
-21.41
-21.22
-20.68
-19.96
-19.20
-18.51
-17.95
-17.65
-17.66
-17.97
-18.43
-18.74
-18.62
-17.85
-16.42
-14.50
-12.40
-10.44
-8.87
-7.75
-6.92
-6.02
-4.40
-1.31
3.93
11.67
21.66
32.95
44.05
53.24
58.93
60.14
56.69
49.25
39.25
28.56
19.07
12.36
9.21
9.51
12.23
15.78
18.45
18.88
16.43
11.32
4.56
-2.36
-7.84
-10.65
-10.36
-7.49
-3.32
0.53
2.69
2.45
-0.13
-4.43
-9.68
-15.18
-20.45
-25.15
-28.94
-31.54
-32.85
-33.10
-32.87
-32.93
-33.91
-36.16
-39.76
-44.60
-50.53
-57.26
-64.15
-70.18
-74.09
-74.91
-72.46
-67.64
-62.14
-57.82
-55.94
-56.48
-58.03
-57.95
-52.95
-39.91
-16.89
15.84
55.21
95.55
129.96
152.40
159.77
152.96
136.37
115.99
97.14
82.83
73.48
67.82
64.25
61.69
59.76
58.18
56.37
53.29
48.03
40.38
31.15
21.95
14.44
9.67
7.62
7.37
7.61
7.25
5.92
4.12
2.97
3.85
7.77
14.88
24.27
34.04
41.86
45.70
44.51
38.56
29.20
18.34
7.71
-1.57
-9.16
-15.24
-20.24
-24.54
-28.38
-31.90
-35.22
-38.40
-41.45
-44.16
-46.17
-47.05
-46.47
-44.42
-41.20
-37.42
-33.79
-30.83
-28.74
-27.25
-25.75
-23.48
-19.88
-14.80
-8.67
-2.36
3.05
6.63
7.83
6.66
3.59
-0.66
-5.26
-9.48
-12.74
-14.63
-14.98
-13.97
-12.04
-9.88
-8.20
-7.52
-7.97
-9.33
-11.15
-12.96
-14.45
-15.57
-16.46
-17.40
-18.69
-20.62
-23.38
-26.96
-30.99
-34.77
-37.37
-37.92
-36.00
-31.77
-25.98
-19.59
-13.54
-8.41
-4.43
-1.58
0.19
1.04
1.30
1.60
2.91
6.14
11.72
19.24
27.37
34.35
38.55
39.12
36.19
30.66
23.78
16.69
10.28
5.19
1.97
1.09
2.78
6.78
12.28
18.13
23.10
26.34
27.59
27.08
25.37
23.03
20.43
17.74
14.93
11.89
8.54
4.85
0.82
-3.41
-7.66
-11.64
-15.04
-17.67
-19.48
-20.72
-21.87
-23.49
-26.03
-29.61
-33.94
-38.32
-41.92
-44.08
-44.54
-43.57
-41.89
-40.33
-39.55
-39.71
-40.38
-40.50
-38.58
-33.14
-23.20
-8.86
8.50
26.45
42.19
53.45
59.18
59.79
56.75
51.96
47.03
43.01
40.33
39.04
38.99
39.94
41.47
42.98
43.72
43.13
40.94
37.35
32.97
28.59
24.85
22.00
19.77
17.51
14.53
10.45
5.41
0.04
-4.86
-8.66
-11.21
-12.84
-14.16
-15.73
-17.78
-20.22
-22.67
-24.70
-26.03
-26.54
-26.29
-25.44
-24.17
-22.75
-21.43
-20.48
-20.07
-20.23
-20.81
-21.48
-21.85
-21.51
-20.16
-17.68
-14.17
-9.90
-5.34
-0.98
2.80
5.78
8.01
9.73
11.26
12.91
14.88
17.22
19.84
22.53
24.94
26.66
27.27
26.52
24.33
20.89
16.61
12.06
7.86
4.62
2.80
2.61
3.93
6.31
9.07
11.46
12.85
12.89
11.54
9.02
5.75
2.21
-1.18
-4.18
-6.76
-9.05
-11.21
-13.29
-15.10
-16.29
-16.51
-15.58
-13.62
-11.00
-8.23
-5.76
-3.88
-2.63
-1.87
-1.37
-0.93
-0.51
-0.23
-0.35
-1.13
-2.69
-4.97
-7.72
-10.60
-13.28
-15.52
-17.12
-17.94
-17.85
-16.80
-14.86
-12.24
-9.22
-6.10
-3.11
-0.40
1.88
3.53
4.36
4.27
3.35
1.86
0.23
-1.20
-2.24
-2.93
-3.47
-4.09
-4.87
-5.74
-6.54
-7.10
-7.38
-7.42
-7.39
-7.50
-7.91
-8.72
-9.87
-11.14
-12.29
-13.08
-13.38
-13.26
-12.90
-12.52
-12.27
-12.11
-11.82
-11.03
-9.41
-6.77
-3.20
0.89
4.91
8.31
10.82
12.56
13.90
15.31
17.09
19.34
22.05
25.19
28.76
32.70
36.68
40.06
42.16
42.59
41.50
39.48
37.01
33.96
29.47
22.46
12.48
0.32
-12.06
-22.31
-28.76
-31.18
-30.79
-29.54
-29.16
-30.46
-33.21
-36.48
-39.14
-40.32
-39.57
-36.87
-32.61
-27.46
-22.24
-17.76
-14.73
-13.62
-14.62
-17.46
-21.42
-25.28
-27.62
-27.30
-23.86
-17.88
-10.73
-4.10
0.66
2.98
3.06
1.66
-0.29
-1.99
-2.84
-2.42
-0.49
2.95
7.57
12.65
17.17
20.07
20.61
18.60
14.49
9.25
4.13
0.28
-1.52
-1.16
0.85
3.46
5.39
5.53
3.28
-1.00
-5.84
-8.81
-7.20
0.94
15.62
34.41
52.85
65.85
69.62
63.14
48.58
30.31
13.18
0.78
-5.56
-6.65
-4.62
-1.86
-0.18
-0.46
-2.80
-6.71
-11.60
-16.89
-22.18
-27.16
-31.55
-35.06
-37.45
-38.66
-38.92
-38.68
-38.39
-38.26
-38.06
-37.15
-34.81
-30.57
-24.51
-17.30
-9.94
-3.40
1.79
5.68
8.83
11.95
15.52
19.57
23.65
27.10
29.39
30.41
30.46
30.19
30.16
30.68
31.54
32.18
31.85
29.98
26.46
21.66
16.37
11.49
7.79
5.76
5.55
7.01
9.69
12.87
15.67
17.24
17.08
15.32
12.75
10.52
9.64
10.52
12.75
15.34
17.15
17.38
15.80
12.64
8.41
3.62
-1.26
-5.72
-9.23
-11.25
-11.57
-10.46
-8.73
-7.52
-7.80
-10.00
-13.82
-18.38
-22.66
-25.95
-28.11
-29.40
-30.28
-30.97
-31.36
-31.08
-29.73
-27.19
-23.70
-19.80
-16.05
-12.78
-10.02
-7.65
-5.48
-3.41
-1.42
0.40
1.97
3.27
4.30
5.05
5.42
5.24
4.50
3.34
2.01
0.82
0.02
-0.24
0.07
0.76
1.49
2.09
2.54
2.88
3.11
3.26
3.39
3.60
4.03
4.79
6.29
9.00
13.13
18.54
24.80
31.48
38.28
45.07
50.41
53.04
52.54
49.68
45.74
41.65
37.70
33.88
30.53
27.26
24.12
21.42
19.31
17.61
15.87
13.48
10.26
6.18
1.29
-3.91
-8.81
-12.96
-16.23
-18.79
-20.96
-23.03
-25.23
-27.70
-30.23
-32.50
-34.31
-35.59
-36.45
-36.98
-37.20
-37.08
-36.56
-35.49
-33.74
-31.35
-28.43
-25.23
-21.97
-18.83
-15.91
-13.28
-10.89
-8.64
-6.51
-4.52
-2.75
-1.31
-0.24
0.49
0.97
1.33
1.67
2.05
2.44
2.81
3.10
3.28
3.37
3.39
3.37
3.26
2.98
2.39
1.39
-0.04
-1.81
-3.66
-5.30
-6.49
-7.07
-7.05
-6.52
-5.59
-4.37
-2.93
-1.36
0.25
1.76
3.04
3.99
4.59
4.85
4.81
4.52
4.00
3.32
2.56
1.87
1.35
1.05
0.93
0.87
0.73
0.43
-0.05
-0.65
-1.32
-2.02
-2.74
-3.50
-4.34
-5.28
-6.34
-7.54
-8.85
-10.14
-11.25
-11.93
-11.96
-11.20
-9.63
-7.37
-4.67
-1.84
0.79
2.97
4.57
5.62
6.27
6.71
7.04
7.26
7.28
6.99
6.39
5.59
4.73
3.91
3.11
2.20
1.07
-0.24
-1.54
-2.55
-3.10
-3.22
-3.14
-3.19
-3.63
-4.50
-5.69
-7.02
-8.35
-9.60
-10.71
-11.56
-11.90
-11.52
-10.28
-8.20
-5.55
-2.66
0.12
2.54
4.51
6.03
7.17
8.01
8.62
9.01
9.19
9.14
8.84
8.31
7.60
6.80
5.97
5.15
4.35
3.53
2.69
1.83
0.96
0.11
-0.76
-1.69
-2.73
-3.94
-5.35
-6.96
-8.76
-10.68
-12.57
-14.25
-15.47
-15.99
-15.64
-14.39
-12.31
-9.60
-6.50
-3.25
-0.09
2.79
5.26
7.28
8.84
10.02
10.85
11.35
11.47
11.19
10.50
9.46
8.20
6.86
5.55
4.34
3.26
2.35
1.59
0.97
0.47
0.01
-0.49
-1.13
-1.96
-3.00
-4.30
-5.84
-7.60
-9.48
-11.29
-12.80
-13.75
-13.96
-13.33
-11.90
-9.77
-7.10
-4.08
-0.89
2.30
5.33
8.08
10.44
12.36
13.80
14.74
15.16
15.07
14.52
13.62
12.49
11.24
10.03
8.93
8.01
7.24
6.54
5.76
4.79
3.56
2.11
0.57
-0.91
-2.27
-3.52
-4.79
-6.24
-7.93
-9.83
-11.76
-13.46
-14.64
-15.06
-14.53
-12.96
-10.38
-6.99
-3.13
0.71
4.11
6.74
8.55
9.69
10.46
11.10
11.76
12.40
12.93
13.20
13.11
12.59
11.64
10.32
8.77
7.21
5.89
4.96
4.46
4.24
4.11
3.86
3.37
2.57
1.47
0.10
-1.48
-3.21
-5.03
-6.84
-8.50
-9.82
-10.58
-10.57
-9.67
-7.91
-5.49
-2.70
0.16
2.83
5.18
7.18
8.83
10.16
11.17
11.86
12.21
12.27
12.09
11.70
11.13
10.38
9.43
8.30
7.02
5.72
4.49
3.43
2.55
1.80
1.10
0.35
-0.47
-1.36
-2.29
-3.25
-4.26
-5.36
-6.62
-8.01
-9.45
-10.74
-11.63
-11.91
-11.45
-10.26
-8.42
-6.11
-3.53
-0.86
1.72
4.06
6.05
7.58
8.62
9.21
9.42
9.37
9.17
8.89
8.56
8.18
7.77
7.37
7.01
6.69
6.34
5.84
5.09
4.08
2.91
1.79
0.91
0.34
-0.04
-0.43
-1.06
-2.04
-3.35
-4.82
-6.27
-7.49
-8.31
-8.62
-8.35
-7.53
-6.31
-4.87
-3.47
-2.28
-1.43
-0.90
-0.61
-0.45
-0.37
-0.37
-0.52
-0.87
-1.48
-2.28
-3.15
-3.93
-4.49
-4.84
-5.05
-5.29
-5.66
-6.20
-6.80
-7.31
-7.60
-7.68
-7.63
-7.61
-7.76
-8.15
-8.78
-9.59
-10.51
-11.44
-12.22
-12.65
-12.50
-11.60
-9.89
-7.50
-4.69
-1.78
0.92
3.21
5.01
6.31
7.14
7.53
7.50
7.12
6.45
5.56
4.52
3.39
2.26
1.14
0.02
-1.15
-2.40
-3.75
-5.23
-6.84
-8.53
-10.21
-11.87
-13.53
-15.33
-17.34
-19.64
-22.19
-24.86
-27.26
-29.01
-30.03
-30.61
-31.30
-32.33
-33.55
-34.44
-34.21
-31.80
-26.59
-18.82
-9.49
-0.01
8.94
17.23
25.21
33.37
42.71
53.80
66.44
79.66
91.93
102.24
109.48
112.38
109.81
102.26
91.45
79.84
69.84
62.86
59.77
59.85
61.00
56.25
41.55
18.04
-8.49
-30.01
-45.91
-57.30
-65.42
-70.62
-72.62
-70.37
-63.25
-51.94
-38.42
-25.55
-15.10
-7.95
-4.12
-2.98
-2.95
-2.63
-1.49
0.05
0.98
1.18
1.06
1.30
2.51
5.31
9.69
14.95
19.84
23.07
24.22
23.43
21.15
17.79
13.85
9.72
5.59
1.51
-2.57
-6.50
-10.16
-13.53
-16.63
-19.47
-21.95
-23.89
-25.12
-25.48
-24.82
-23.13
-20.63
-17.69
-14.76
-12.16
-10.00
-8.20
-6.60
-5.10
-3.75
-2.73
-2.20
-2.26
-2.82
-3.66
-4.51
-5.16
-5.54
-5.68
-5.66
-5.55
-5.41
-5.29
-5.24
-5.37
-5.81
-6.66
-7.92
-9.48
-11.12
-12.59
-13.67
-14.28
-14.54
-14.65
-14.86
-15.32
-16.00
-16.72
-17.19
-17.13
-16.38
-14.93
-12.91
-10.49
-7.86
-5.20
-2.69
-0.52
1.12
2.13
2.53
2.46
2.18
1.92
1.80
1.83
1.88
1.78
1.45
0.89
0.25
-0.32
-0.70
-0.85
-0.89
-0.95
-1.16
-1.55
-2.03
-2.51
-2.93
-3.37
-3.98
-4.96
-6.35
-8.06
-9.82
-11.26
-12.05
-11.98
-10.98
-9.13
-6.59
-3.60
-0.44
2.63
5.36
7.56
9.10
9.98
10.28
10.14
9.74
9.22
8.66
8.10
7.56
7.06
6.65
6.38
6.26
6.20
6.07
5.69
5.01
4.04
2.91
1.74
0.62
-0.45
-1.55
-2.77
-4.16
-5.75
-7.48
-9.21
-10.71
-11.72
-12.00
-11.42
-9.99
-7.87
-5.31
-2.51
0.35
3.15
5.76
8.01
9.73
10.81
11.24
11.15
10.73
10.15
9.50
8.83
8.10
7.34
6.63
6.03
5.63
5.38
5.19
4.89
4.34
3.46
2.28
0.92
-0.46
-1.75
-2.91
-4.02
-5.19
-6.55
-8.12
-9.84
-11.51
-12.93
-13.89
-14.22
-13.80
-12.60
-10.63
-8.02
-4.98
-1.77
1.34
4.13
6.46
8.27
9.57
10.42
10.91
11.13
11.19
11.15
11.02
10.77
10.37
9.82
9.17
8.55
8.08
7.78
7.57
7.29
6.74
5.82
4.55
3.07
1.53
0.08
-1.27
-2.54
-3.81
-5.15
-6.61
-8.23
-10.03
-11.98
-13.91
-15.54
-16.46
-16.34
-15.00
-12.55
-9.32
-5.77
-2.33
0.73
3.33
5.51
7.32
8.80
9.87
10.47
10.60
10.34
9.87
9.38
9.03
8.84
8.76
8.68
8.48
8.15
7.70
7.23
6.79
6.39
5.97
5.44
4.70
3.72
2.56
1.33
0.13
-1.00
-2.11
-3.30
-4.66
-6.22
-7.91
-9.60
-11.19
-12.57
-13.70
-14.51
-14.84
-14.51
-13.35
-11.30
-8.49
-5.20
-1.77
1.48
4.32
6.66
8.50
9.85
10.75
11.24
11.37
11.22
10.86
10.38
9.84
9.32
8.86
8.47
8.12
7.76
7.37
6.92
6.46
6.01
5.55
5.04
4.38
3.50
2.41
1.18
-0.06
-1.19
-2.16
-2.99
-3.73
-4.44
-5.20
-6.09
-7.19
-8.56
-10.16
-11.86
-13.37
-14.38
-14.59
-13.82
-12.06
-9.49
-6.42
-3.19
-0.12
2.55
4.69
6.29
7.38
8.04
8.35
8.36
8.11
7.65
7.07
6.48
6.01
5.75
5.75
5.97
6.32
6.71
7.00
7.12
6.95
6.45
5.59
4.44
3.12
1.79
0.56
-0.52
-1.49
-2.42
-3.37
-4.35
-5.38
-6.48
-7.69
-9.06
-10.54
-11.94
-12.96
-13.26
-12.62
-11.04
-8.74
-6.07
-3.39
-0.92
1.27
3.20
4.94
6.49
7.82
8.85
9.53
9.85
9.84
9.59
9.18
8.68
8.18
7.73
7.40
7.21
7.16
7.19
7.19
7.04
6.68
6.09
5.32
4.46
3.54
2.57
1.50
0.34
-0.87
-2.07
-3.22
-4.35
-5.54
-6.90
-8.43
-10.07
-11.66
-13.01
-13.99
-14.49
-14.44
-13.76
-12.44
-10.50
-8.07
-5.38
-2.66
-0.11
2.15
4.08
5.69
6.96
7.85
8.34
8.46
8.31
8.01
7.68
7.36
7.06
6.74
6.40
6.08
5.83
5.65
5.49
5.23
4.79
4.14
3.34
2.50
1.72
1.00
0.28
-0.52
-1.46
-2.51
-3.60
-4.65
-5.59
-6.41
-7.18
-7.98
-8.91
-10.05
-11.37
-12.74
-13.89
-14.49
-14.25
-13.05
-10.96
-8.27
-5.35
-2.57
-0.17
1.77
3.30
4.54
5.58
6.51
7.32
7.97
8.41
8.60
8.54
8.27
7.84
7.34
6.82
6.35
5.96
5.67
5.48
5.32
5.11
4.78
4.28
3.63
2.88
2.07
1.23
0.36
-0.54
-1.49
-2.47
-3.43
-4.35
-5.26
-6.21
-7.27
-8.51
-9.92
-11.40
-12.80
-13.94
-14.62
-14.70
-14.09
-12.77
-10.81
-8.38
-5.69
-2.98
-0.48
1.69
3.49
4.96
6.19
7.24
8.12
8.79
9.19
9.30
9.13
8.76
8.32
7.93
7.68
7.61
7.67
7.79
7.85
7.79
7.56
7.17
6.64
6.00
5.28
4.48
3.66
2.83
2.02
1.21
0.38
-0.53
-1.51
-2.52
-3.47
-4.29
-5.00
-5.71
-6.54
-7.64
-9.03
-10.59
-12.12
-13.37
-14.14
-14.30
-13.78
-12.61
-10.86
-8.66
-6.19
-3.66
-1.22
0.99
2.91
4.48
5.65
6.38
6.66
6.56
6.23
5.85
5.59
5.49
5.52
5.58
5.63
5.68
5.82
6.09
6.44
6.74
6.84
6.63
6.14
5.45
4.68
3.88
3.07
2.24
1.40
0.59
-0.18
-0.92
-1.68
-2.52
-3.44
-4.43
-5.45
-6.48
-7.52
-8.62
-9.74
-10.81
-11.68
-12.18
-12.19
-11.64
-10.56
-9.05
-7.23
-5.23
-3.16
-1.10
0.89
2.76
4.43
5.83
6.86
7.46
7.64
7.47
7.12
6.75
6.54
6.58
6.89
7.41
8.01
8.55
8.92
9.03
8.86
8.42
7.77
7.02
6.28
5.65
5.17
4.79
4.37
3.80
2.99
1.93
0.72
-0.55
-1.79
-2.97
-4.07
-5.08
-6.00
-6.85
-7.68
-8.59
-9.68
-10.99
-12.43
-13.77
-14.72
-15.00
-14.46
-13.12
-11.14
-8.79
-6.33
-3.97
-1.82
0.09
1.76
3.18
4.33
5.15
5.64
5.85
5.93
5.99
6.15
6.39
6.65
6.81
6.83
6.72
6.57
6.51
6.56
6.69
6.74
6.59
6.13
5.40
4.51
3.62
2.90
2.40
2.11
1.89
1.60
1.07
0.24
-0.86
-2.10
-3.36
-4.51
-5.48
-6.28
-6.94
-7.53
-8.13
-8.83
-9.70
-10.80
-12.03
-13.18
-13.97
-14.11
-13.47
-12.06
-10.08
-7.82
-5.52
-3.35
-1.37
0.43
2.04
3.47
4.65
5.56
6.17
6.52
6.66
6.67
6.61
6.52
6.43
6.36
6.33
6.36
6.40
6.37
6.17
5.73
5.12
4.45
3.87
3.46
3.20
2.99
2.75
2.44
2.14
1.89
1.72
1.55
1.21
0.57
-0.45
-1.78
-3.25
-4.66
-5.87
-6.85
-7.68
-8.49
-9.40
-10.42
-11.43
-12.25
-12.67
-12.58
-11.95
-10.83
-9.32
-7.51
-5.48
-3.31
-1.14
0.87
2.59
3.92
4.89
5.57
6.09
6.49
6.77
6.89
6.81
6.56
6.21
5.85
5.54
5.30
5.11
4.92
4.70
4.42
4.09
3.74
3.42
3.20
3.08
3.05
3.01
2.84
2.45
1.81
1.01
0.18
-0.58
-1.22
-1.79
-2.39
-3.07
-3.84
-4.64
-5.37
-6.02
-6.63
-7.30
-8.18
-9.31
-10.66
-12.08
-13.38
-14.37
-14.95
-15.07
-14.73
-13.93
-12.67
-10.97
-8.90
-6.59
-4.23
-1.97
0.09
1.89
3.44
4.75
5.82
6.62
7.12
7.35
7.31
7.10
6.78
6.44
6.15
5.94
5.83
5.80
5.79
5.75
5.64
5.42
5.09
4.68
4.22
3.71
3.14
2.49
1.73
0.85
-0.13
-1.16
-2.19
-3.18
-4.13
-5.09
-6.09
-7.18
-8.40
-9.73
-11.15
-12.56
-13.85
-14.88
-15.53
-15.69
-15.28
-14.26
-12.64
-10.52
-8.05
-5.45
-2.91
-0.58
1.49
3.34
5.02
6.51
7.69
8.44
8.67
8.44
7.95
7.48
7.22
7.29
7.61
8.01
8.32
8.43
8.30
7.97
7.50
6.97
6.41
5.84
5.19
4.41
3.45
2.33
1.12
-0.10
-1.24
-2.30
-3.31
-4.29
-5.27
-6.25
-7.27
-8.41
-9.71
-11.17
-12.62
-13.84
-14.50
-14.37
-13.36
-11.57
-9.20
-6.53
-3.80
-1.18
1.23
3.37
5.18
6.60
7.58
8.12
8.28
8.20
8.08
8.08
8.28
8.65
9.07
9.36
9.40
9.13
8.62
8.01
7.44
7.01
6.74
6.52
6.24
5.77
5.05
4.11
3.04
1.91
0.78
-0.34
-1.48
-2.68
-3.99
-5.42
-6.96
-8.52
-9.95
-11.07
-11.67
-11.64
-10.92
-9.55
-7.65
-5.35
-2.80
-0.16
2.40
4.73
6.66
8.09
8.97
9.31
9.22
8.85
8.37
7.94
7.65
7.52
7.50
7.48
7.41
7.25
6.99
6.63
6.13
5.47
4.65
3.72
2.74
1.78
0.84
-0.09
-1.06
-2.07
-3.10
-4.13
-5.16
-6.27
-7.54
-9.01
-10.60
-12.08
-13.13
-13.43
-12.81
-11.28
-9.00
-6.24
-3.24
-0.20
2.72
5.38
7.59
9.19
10.07
10.30
10.09
9.72
9.40
9.23
9.16
9.07
8.87
8.55
8.13
7.67
7.18
6.67
6.12
5.51
4.86
4.16
3.40
2.59
1.76
0.90
0.01
-0.98
-2.12
-3.46
-5.02
-6.75
-8.55
-10.27
-11.71
-12.62
-12.74
-11.91
-10.13
-7.61
-4.70
-1.74
1.02
3.46
5.55
7.23
8.45
9.18
9.42
9.33
9.07
8.81
8.61
8.45
8.27
8.03
7.76
7.49
7.29
7.14
6.99
6.75
6.39
5.89
5.31
4.69
4.09
3.52
2.94
2.27
1.45
0.40
-0.86
-2.21
-3.46
-4.39
-4.81
-4.59
-3.74
-2.36
-0.69
0.96
2.29
3.03
3.01
2.20
0.68
-1.37
-3.70
-6.10
-8.40
-10.52
-12.41
-14.06
-15.43
-16.49
-17.20
-17.57
-17.65
-17.54
-17.38
-17.23
-17.03
-16.65
-15.87
-14.59
-12.77
-10.51
-7.97
-5.30
-2.63
-0.12
2.07
3.78
4.95
5.64
6.12
6.68
7.60
8.94
10.59
12.29
13.80
15.03
15.96
16.69
17.26
17.65
17.76
17.45
16.68
15.50
14.12
12.75
11.60
10.73
10.10
9.55
8.94
8.20
7.36
6.47
5.56
4.63
3.63
2.56
1.43
0.30
-0.80
-1.90
-3.12
-4.58
-6.36
-8.41
-10.49
-12.26
-13.35
-13.49
-12.61
-10.85
-8.49
-5.84
-3.19
-0.70
1.54
3.50
5.16
6.49
7.49
8.19
8.65
8.92
9.03
8.98
8.76
8.40
7.95
7.49
7.07
6.70
6.30
5.77
5.03
4.06
2.90
1.64
0.35
-0.93
-2.17
-3.37
-4.53
-5.65
-6.81
-8.09
-9.58
-11.25
-12.94
-14.34
-15.11
-14.94
-13.74
-11.58
-8.71
-5.47
-2.21
0.74
3.17
5.00
6.27
7.11
7.75
8.35
8.97
9.57
10.04
10.29
10.31
10.12
9.80
9.38
8.91
8.41
7.91
7.45
7.04
6.65
6.18
5.51
4.57
3.31
1.80
0.17
-1.43
-2.89
-4.19
-5.38
-6.58
-7.89
-9.38
-11.01
-12.64
-14.03
-14.92
-15.04
-14.25
-12.53
-10.04
-7.10
-4.05
-1.23
1.14
3.01
4.39
5.35
5.95
6.25
6.33
6.24
6.06
5.85
5.62
5.38
5.09
4.74
4.33
3.89
3.46
3.06
2.69
2.30
1.85
1.27
0.56
-0.28
-1.21
-2.20
-3.25
-4.38
-5.62
-6.98
-8.43
-9.92
-11.40
-12.80
-14.00
-14.81
-15.01
-14.41
-12.95
-10.79
-8.21
-5.54
-3.02
-0.74
1.30
3.16
4.80
6.15
7.10
7.59
7.70
7.58
7.39
7.20
7.03
6.85
6.63
6.38
6.12
5.84
5.51
5.02
4.32
3.40
2.32
1.20
0.14
-0.80
-1.64
-2.44
-3.30
-4.32
-5.57
-7.06
-8.70
-10.29
-11.59
-12.36
-12.47
-11.88
-10.64
-8.90
-6.80
-4.45
-1.97
0.54
2.94
5.09
6.82
8.03
8.70
8.87
8.71
8.39
8.08
7.88
7.78
7.73
7.60
7.31
6.84
6.21
5.52
4.82
4.14
3.45
2.71
1.87
0.93
-0.06
-1.03
-1.95
-2.85
-3.79
-4.85
-6.09
-7.52
-9.09
-10.67
-12.11
-13.23
-13.84
-13.78
-13.02
-11.57
-9.57
-7.19
-4.63
-2.06
0.41
2.69
4.70
6.42
7.77
8.73
9.28
9.43
9.30
9.02
8.73
8.53
8.42
8.30
8.06
7.66
7.12
6.53
5.97
5.40
4.75
3.90
2.81
1.52
0.21
-0.98
-1.96
-2.77
-3.58
-4.54
-5.82
-7.45
-9.38
-11.49
-13.57
-15.38
-16.67
-17.25
-17.00
-15.93
-14.11
-11.71
-8.89
-5.84
-2.76
0.14
2.71
4.82
6.43
7.58
8.33
8.75
8.86
8.72
8.40
8.01
7.70
7.54
7.48
7.39
7.10
6.48
5.52
4.32
3.01
1.70
0.38
-0.98
-2.41
-3.88
-5.32
-6.65
-7.82
-8.87
-9.87
-10.89
-11.96
-12.99
-13.87
-14.45
-14.58
-14.11
-12.96
-11.13
-8.72
-5.95
-3.10
-0.48
1.72
3.43
4.71
5.65
6.33
6.77
6.96
6.91
6.70
6.46
6.32
6.36
6.52
6.66
6.58
6.20
5.51
4.68
3.87
3.18
2.57
1.92
1.08
-0.01
-1.26
-2.52
-3.62
-4.55
-5.41
-6.40
-7.65
-9.13
-10.59
-11.69
-12.06
-11.54
-10.16
-8.11
-5.69
-3.17
-0.76
1.40
3.25
4.77
5.93
6.77
7.33
7.65
7.77
7.70
7.41
6.88
6.17
5.38
4.69
4.24
4.08
4.13
4.23
4.22
3.97
3.47
2.75
1.88
0.89
-0.16
-1.22
-2.24
-3.19
-4.10
-5.08
-6.23
-7.58
-9.01
-10.25
-10.97
-10.93
-10.04
-8.39
-6.19
-3.70
-1.15
1.26
3.39
5.11
6.33
7.05
7.34
7.33
7.15
6.92
6.68
6.44
6.18
5.92
5.66
5.41
5.15
4.85
4.45
3.93
3.29
2.54
1.71
0.81
-0.15
-1.16
-2.19
-3.23
-4.27
-5.34
-6.46
-7.64
-8.83
-9.88
-10.62
-10.85
-10.42
-9.27
-7.49
-5.25
-2.81
-0.42
1.72
3.50
4.89
5.92
6.61
6.96
6.99
6.74
6.28
5.71
5.14
4.66
4.31
4.10
4.00
3.96
3.91
3.79
3.53
3.10
2.49
1.72
0.84
-0.09
-1.03
-1.94
-2.82
-3.70
-4.60
-5.57
-6.56
-7.43
-7.99
-8.03
-7.43
-6.21
-4.50
-2.50
-0.42
1.58
3.39
4.94
6.12
6.89
7.19
7.03
6.50
5.72
4.87
4.11
3.60
3.41
3.54
3.89
4.28
4.54
4.55
4.28
3.78
3.16
2.50
1.81
1.06
0.19
-0.88
-2.14
-3.54
-4.98
-6.34
-7.53
-8.47
-9.14
-9.51
-9.54
-9.19
-8.43
-7.25
-5.65
-3.67
-1.37
1.13
3.68
6.06
8.07
9.55
10.42
10.76
10.68
10.34
9.84
9.29
8.74
8.25
7.85
7.50
7.16
6.73
6.15
5.42
4.57
3.63
2.62
1.51
0.31
-0.97
-2.31
-3.71
-5.20
-6.78
-8.37
-9.78
-10.70
-10.88
-10.18
-8.70
-6.74
-4.62
-2.61
-0.87
0.58
1.75
2.62
3.19
3.44
3.42
3.23
2.98
2.78
2.66
2.64
2.67
2.69
2.63
2.48
2.22
1.87
1.45
0.99
0.48
-0.11
-0.81
-1.60
-2.46
-3.34
-4.18
-4.96
-5.69
-6.42
-7.14
-7.85
-8.46
-8.84
-8.87
-8.41
-7.41
-5.89
-4.01
-1.98
-0.06
1.55
2.72
3.44
3.78
3.87
3.85
3.79
3.73
3.68
3.60
3.50
3.33
3.09
2.77
2.38
1.96
1.51
1.06
0.59
0.09
-0.44
-0.97
-1.48
-1.92
-2.31
-2.66
-3.02
-3.45
-4.01
-4.75
-5.71
-6.86
-8.12
-9.33
-10.29
-10.78
-10.70
-10.02
-8.83
-7.29
-5.54
-3.71
-1.92
-0.24
1.21
2.33
3.05
3.36
3.35
3.19
3.00
2.90
2.90
2.93
2.93
2.85
2.67
2.43
2.19
2.00
1.87
1.83
1.82
1.76
1.55
1.08
0.28
-0.81
-2.05
-3.26
-4.27
-5.04
-5.64
-6.20
-6.86
-7.67
-8.61
-9.63
-10.62
-11.54
-12.29
-12.75
-12.74
-12.12
-10.85
-9.03
-6.88
-4.65
-2.58
-0.77
0.75
2.03
3.11
3.97
4.60
4.95
5.06
5.01
4.98
5.10
5.45
5.94
6.42
6.70
6.71
6.50
6.18
5.86
5.56
5.23
4.78
4.20
3.50
2.75
1.97
1.11
0.12
-1.02
-2.24
-3.41
-4.39
-5.13
-5.70
-6.25
-6.95
-7.93
-9.18
-10.60
-11.99
-13.08
-13.64
-13.48
-12.54
-10.84
-8.53
-5.80
-2.89
-0.01
2.67
4.99
6.84
8.12
8.80
8.95
8.74
8.43
8.27
8.44
8.93
9.59
10.19
10.54
10.57
10.35
10.03
9.74
9.48
9.19
8.73
8.05
7.17
6.23
5.32
4.48
3.67
2.79
1.83
0.83
-0.12
-0.92
-1.60
-2.29
-3.12
-4.20
-5.50
-6.93
-8.39
-9.79
-11.08
-12.16
-12.87
-12.98
-12.32
-10.83
-8.63
-5.97
-3.19
-0.58
1.67
3.49
4.91
6.03
6.95
7.71
8.31
8.71
8.88
8.83
8.64
8.42
8.27
8.23
8.26
8.32
8.34
8.30
8.21
8.08
7.86
7.52
6.99
6.25
5.31
4.25
3.20
2.23
1.40
0.68
-0.05
-0.90
-1.97
-3.26
-4.64
-5.90
-6.87
-7.49
-7.88
-8.27
-8.91
-9.86
-10.96
-11.87
-12.20
-11.66
-10.20
-8.02
-5.45
-2.84
-0.43
1.65
3.41
4.81
5.82
6.40
6.54
6.38
6.12
5.99
6.16
6.61
7.22
7.83
8.28
8.52
8.55
8.41
8.14
7.74
7.24
6.67
6.04
5.36
4.61
3.74
2.74
1.61
0.39
-0.81
-1.92
-2.87
-3.66
-4.33
-4.99
-5.75
-6.67
-7.74
-8.88
-9.96
-10.84
-11.38
-11.47
-11.07
-10.18
-8.84
-7.16
-5.24
-3.20
-1.16
0.79
2.55
3.99
5.05
5.67
5.88
5.75
5.39
4.98
4.65
4.50
4.56
4.79
5.09
5.35
5.51
5.56
5.51
5.33
4.96
4.32
3.40
2.30
1.19
0.28
-0.38
-0.84
-1.31
-1.97
-2.88
-3.94
-4.96
-5.76
-6.33
-6.76
-7.27
-8.03
-9.11
-10.43
-11.80
-12.95
-13.63
-13.68
-13.06
-11.86
-10.28
-8.47
-6.54
-4.51
-2.37
-0.18
1.90
3.64
4.84
5.44
5.56
5.42
5.24
5.16
5.23
5.41
5.69
6.04
6.48
6.97
7.39
7.60
7.50
7.07
6.38
5.60
4.85
4.20
3.60
2.98
2.22
1.29
0.20
-0.98
-2.12
-3.17
-4.09
-4.90
-5.66
-6.43
-7.28
-8.23
-9.27
-10.38
-11.44
-12.29
-12.74
-12.59
-11.73
-10.15
-8.01
-5.51
-2.91
-0.44
1.75
3.57
4.99
6.04
6.76
7.23
7.50
7.64
7.70
7.77
7.91
8.14
8.45
8.73
8.90
8.92
8.81
8.65
8.51
8.38
8.16
7.76
7.08
6.15
5.03
3.84
2.64
1.42
0.19
-1.02
-2.12
-3.02
-3.69
-4.21
-4.77
-5.55
-6.64
-8.03
-9.60
-11.21
-12.72
-13.99
-14.82
-15.02
-14.41
-12.94
-10.72
-8.06
-5.28
-2.65
-0.30
1.72
3.43
4.85
5.97
6.79
7.35
7.71
7.91
7.93
7.78
7.51
7.21
7.00
6.98
7.12
7.32
7.43
7.33
7.03
6.59
6.07
5.49
4.80
3.94
2.91
1.76
0.60
-0.49
-1.48
-2.44
-3.43
-4.48
-5.58
-6.66
-7.69
-8.70
-9.82
-11.17
-12.76
-14.45
-15.92
-16.76
-16.60
-15.29
-12.92
-9.82
-6.44
-3.21
-0.42
1.82
3.54
4.88
5.98
6.89
7.63
8.17
8.51
8.72
8.89
9.09
9.36
9.67
9.93
10.04
9.95
9.69
9.28
8.79
8.23
7.57
6.81
5.93
4.98
4.00
3.05
2.15
1.26
0.33
-0.70
-1.84
-3.06
-4.32
-5.58
-6.84
-8.12
-9.47
-10.88
-12.25
-13.42
-14.14
-14.21
-13.48
-11.97
-9.82
-7.28
-4.59
-1.93
0.60
2.99
5.21
7.17
8.73
9.77
10.24
10.25
10.01
9.78
9.74
9.90
10.18
10.44
10.56
10.52
10.34
10.06
9.72
9.29
8.75
8.08
7.30
6.48
5.65
4.82
3.93
2.92
1.73
0.39
-1.01
-2.34
-3.48
-4.41
-5.20
-5.99
-6.91
-8.08
-9.52
-11.17
-12.88
-14.47
-15.69
-16.27
-15.97
-14.65
-12.38
-9.38
-6.00
-2.63
0.47
3.15
5.40
7.23
8.64
9.63
10.19
10.38
10.37
10.32
10.37
10.52
10.65
10.65
10.46
10.15
9.86
9.67
9.62
9.62
9.54
9.30
8.88
8.29
7.52
6.56
5.35
3.93
2.34
0.74
-0.77
-2.12
-3.30
-4.37
-5.36
-6.32
-7.29
-8.37
-9.63
-11.08
-12.61
-13.99
-14.95
-15.25
-14.79
-13.64
-11.92
-9.81
-7.40
-4.80
-2.08
0.63
3.17
5.35
7.04
8.17
8.78
8.98
8.89
8.65
8.39
8.21
8.17
8.26
8.42
8.56
8.60
8.50
8.30
8.02
7.69
7.27
6.68
5.87
4.84
3.66
2.43
1.21
0.03
-1.13
-2.28
-3.39
-4.40
-5.24
-5.92
-6.54
-7.28
-8.31
-9.68
-11.30
-12.91
-14.18
-14.82
-14.64
-13.61
-11.83
-9.51
-6.85
-4.05
-1.28
1.28
3.50
5.27
6.56
7.43
8.01
8.42
8.74
8.95
9.03
8.95
8.73
8.46
8.21
8.04
7.95
7.86
7.74
7.54
7.26
6.90
6.45
5.84
5.02
3.95
2.67
1.28
-0.08
-1.33
-2.43
-3.43
-4.43
-5.51
-6.70
-7.96
-9.25
-10.48
-11.61
-12.58
-13.29
-13.55
-13.19
-12.08
-10.26
-7.90
-5.30
-2.76
-0.49
1.45
3.10
4.56
5.88
7.03
7.93
8.45
8.55
8.28
7.79
7.27
6.92
6.83
6.98
7.26
7.49
7.48
7.12
6.40
5.43
4.34
3.30
2.41
1.71
1.15
0.64
0.09
-0.57
-1.37
-2.32
-3.40
-4.57
-5.79
-6.98
-8.11
-9.12
-10.06
-10.94
-11.81
-12.58
-13.09
-13.11
-12.46
-11.09
-9.12
-6.81
-4.44
-2.20
-0.15
1.70
3.38
4.86
6.03
6.79
7.10
7.04
6.76
6.43
6.22
6.17
6.29
6.49
6.69
6.80
6.77
6.59
6.30
5.96
5.63
5.28
4.86
4.28
3.50
2.56
1.55
0.61
-0.17
-0.78
-1.29
-1.84
-2.55
-3.49
-4.66
-5.95
-7.24
-8.45
-9.54
-10.52
-11.42
-12.18
-12.68
-12.72
-12.11
-10.76
-8.76
-6.31
-3.72
-1.26
0.87
2.59
3.89
4.82
5.44
5.82
6.05
6.22
6.42
6.70
7.04
7.37
7.57
7.54
7.23
6.70
6.07
5.47
5.02
4.73
4.53
4.32
4.01
3.54
2.94
2.25
1.52
0.78
-0.00
-0.88
-1.89
-3.07
-4.34
-5.59
-6.74
-7.79
-8.85
-10.02
-11.35
-12.72
-13.82
-14.32
-13.97
-12.74
-10.82
-8.53
-6.18
-4.00
-2.07
-0.39
1.05
2.28
3.30
4.10
4.63
4.90
4.91
4.75
4.54
4.41
4.44
4.65
4.94
5.20
5.31
5.25
5.08
4.82
4.51
4.12
3.60
2.94
2.18
1.43
0.72
0.08
-0.57
-1.31
-2.15
-3.02
-3.78
-4.35
-4.77
-5.20
-5.87
-6.91
-8.25
-9.63
-10.70
-11.17
-10.94
-10.09
-8.84
-7.38
-5.82
-4.19
-2.48
-0.76
0.87
2.27
3.34
4.05
4.48
4.75
4.96
5.18
5.40
5.62
5.82
6.00
6.14
6.24
6.23
6.08
5.76
5.29
4.77
4.28
3.92
3.67
3.47
3.19
2.72
1.96
0.93
-0.28
-1.52
-2.65
-3.55
-4.23
-4.75
-5.24
-5.80
-6.49
-7.31
-8.22
-9.17
-10.06
-10.76
-11.11
-10.94
-10.17
-8.87
-7.18
-5.30
-3.44
-1.69
-0.11
1.30
2.53
3.57
4.39
4.99
5.38
5.60
5.67
5.63
5.50
5.33
5.15
5.02
4.96
5.00
5.10
5.23
5.32
5.32
5.19
4.90
4.48
3.96
3.35
2.67
1.92
1.11
0.27
-0.52
-1.23
-1.84
-2.36
-2.87
-3.48
-4.27
-5.29
-6.55
-7.99
-9.46
-10.76
-11.65
-11.93
-11.53
-10.51
-9.05
-7.35
-5.59
-3.84
-2.12
-0.43
1.21
2.71
3.97
4.90
5.49
5.79
5.92
5.96
6.02
6.12
6.28
6.51
6.77
7.01
7.16
7.16
6.99
6.68
6.31
5.94
5.60
5.27
4.92
4.55
4.16
3.76
3.30
2.71
1.89
0.86
-0.27
-1.31
-2.11
-2.63
-2.98
-3.36
-3.97
-4.93
-6.26
-7.83
-9.43
-10.78
-11.63
-11.77
-11.12
-9.77
-7.93
-5.89
-3.92
-2.17
-0.69
0.61
1.81
2.94
3.99
4.84
5.42
5.69
5.68
5.48
5.20
4.89
4.61
4.38
4.19
4.05
3.96
3.90
3.80
3.60
3.27
2.82
2.30
1.78
1.31
0.92
0.60
0.31
-0.02
-0.44
-1.02
-1.77
-2.66
-3.61
-4.54
-5.39
-6.18
-6.94
-7.74
-8.56
-9.33
-9.90
-10.12
-9.91
-9.24
-8.17
-6.81
-5.27
-3.69
-2.16
-0.79
0.42
1.46
2.41
3.28
4.09
4.78
5.28
5.55
5.62
5.59
5.58
5.65
5.85
6.12
6.37
6.50
6.41
6.07
5.47
4.70
3.82
2.96
2.21
1.60
1.13
0.74
0.36
-0.10
-0.68
-1.35
-2.07
-2.74
-3.34
-3.91
-4.57
-5.43
-6.54
-7.79
-9.01
-10.00
-10.58
-10.68
-10.27
-9.35
-7.98
-6.22
-4.22
-2.14
-0.18
1.49
2.79
3.72
4.34
4.71
4.89
4.91
4.84
4.72
4.63
4.62
4.71
4.90
5.14
5.38
5.57
5.68
5.70
5.66
5.58
5.45
5.22
4.82
4.19
3.33
2.31
1.26
0.28
-0.55
-1.23
-1.83
-2.42
-3.02
-3.63
-4.28
-4.99
-5.85
-6.91
-8.17
-9.51
-10.72
-11.58
-11.89
-11.59
-10.70
-9.36
-7.73
-5.98
-4.21
-2.48
-0.79
0.86
2.42
3.76
4.72
5.20
5.22
4.95
4.65
4.58
4.85
5.40
6.10
6.75
7.25
7.53
7.59
7.44
7.07
6.46
5.63
4.67
3.71
2.92
2.38
2.06
1.83
1.46
0.83
-0.09
-1.18
-2.27
-3.23
-4.04
-4.76
-5.48
-6.28
-7.20
-8.20
-9.28
-10.36
-11.33
-11.97
-12.05
-11.39
-9.97
-7.96
-5.68
-3.44
-1.46
0.20
1.60
2.83
3.97
5.00
5.87
6.55
7.01
7.27
7.36
7.28
7.03
6.67
6.29
6.04
6.05
6.36
6.86
7.32
7.52
7.32
6.75
5.92
4.99
4.09
3.24
2.43
1.67
1.01
0.49
0.09
-0.25
-0.66
-1.23
-1.99
-2.88
-3.86
-4.87
-5.89
-6.95
-8.08
-9.23
-10.33
-11.21
-11.71
-11.67
-11.02
-9.77
-8.02
-5.95
-3.74
-1.59
0.33
1.92
3.15
4.05
4.68
5.15
5.53
5.85
6.07
6.16
6.12
6.01
5.91
5.92
6.05
6.26
6.46
6.58
6.60
6.54
6.41
6.24
5.97
5.55
4.95
4.20
3.39
2.59
1.84
1.11
0.32
-0.59
-1.58
-2.59
-3.52
-4.32
-5.01
-5.66
-6.37
-7.19
-8.14
-9.17
-10.19
-11.02
-11.45
-11.30
-10.46
-9.00
-7.13
-5.12
-3.22
-1.56
-0.12
1.19
2.44
3.60
4.58
5.26
5.57
5.60
5.51
5.49
5.70
6.15
6.73
7.28
7.62
7.66
7.42
7.00
6.54
6.13
5.83
5.60
5.37
5.07
4.65
4.10
3.45
2.71
1.90
1.04
0.14
-0.78
-1.68
-2.51
-3.27
-3.98
-4.71
-5.54
-6.53
-7.65
-8.83
-9.90
-10.70
-11.04
-10.80
-9.92
-8.44
-6.52
-4.34
-2.14
-0.15
1.49
2.73
3.59
4.14
4.50
4.77
5.04
5.38
5.82
6.35
6.86
7.23
7.35
7.21
6.92
6.63
6.48
6.50
6.58
6.55
6.24
5.61
4.75
3.81
2.95
2.24
1.67
1.13
0.57
-0.05
-0.72
-1.36
-1.95
-2.50
-3.05
-3.70
-4.51
-5.50
-6.63
-7.85
-9.05
-10.16
-11.04
-11.57
-11.61
-11.05
-9.86
-8.16
-6.17
-4.16
-2.38
-0.97
0.09
0.91
1.63
2.37
3.16
3.96
4.68
5.25
5.62
5.79
5.85
5.89
6.03
6.31
6.72
7.15
7.45
7.51
7.26
6.74
6.06
5.30
4.52
3.72
2.91
2.11
1.39
0.80
0.32
-0.12
-0.64
-1.33
-2.18
-3.14
-4.09
-4.96
-5.74
-6.49
-7.29
-8.20
-9.21
-10.23
-11.11
-11.67
-11.75
-11.27
-10.20
-8.64
-6.76
-4.77
-2.82
-1.03
0.56
1.93
3.05
3.91
4.54
4.98
5.34
5.69
6.06
6.41
6.64
6.68
6.56
6.36
6.22
6.26
6.47
6.75
6.89
6.74
6.21
5.37
4.36
3.39
2.60
2.03
1.60
1.19
0.69
0.08
-0.62
-1.38
-2.16
-2.95
-3.73
-4.47
-5.16
-5.79
-6.46
-7.25
-8.19
-9.19
-10.04
-10.49
-10.36
-9.62
-8.37
-6.84
-5.19
-3.53
-1.90
-0.29
1.21
2.49
3.41
3.93
4.13
4.17
4.25
4.47
4.81
5.15
5.38
5.42
5.31
5.13
4.94
4.72
4.43
4.02
3.50
2.92
2.34
1.78
1.24
0.67
0.04
-0.65
-1.38
-2.10
-2.79
-3.44
-4.05
-4.58
-5.05
-5.45
-5.85
-6.39
-7.15
-8.19
-9.44
-10.70
-11.68
-12.12
-11.84
-10.83
-9.24
-7.34
-5.38
-3.55
-1.95
-0.60
0.52
1.43
2.17
2.76
3.23
3.63
3.97
4.26
4.51
4.73
4.96
5.24
5.59
5.97
6.30
6.46
6.40
6.10
5.63
5.06
4.48
3.95
3.47
3.00
2.46
1.75
0.80
-0.40
-1.74
-3.10
-4.30
-5.25
-5.95
-6.45
-6.88
-7.35
-7.95
-8.76
-9.83
-11.10
-12.40
-13.42
-13.81
-13.32
-11.91
-9.82
-7.42
-5.09
-3.05
-1.33
0.15
1.45
2.60
3.58
4.36
4.97
5.47
5.89
6.26
6.56
6.73
6.78
6.76
6.72
6.74
6.83
6.96
7.07
7.08
6.92
6.56
6.02
5.37
4.71
4.12
3.62
3.13
2.51
1.67
0.61
-0.57
-1.69
-2.59
-3.25
-3.76
-4.33
-5.15
-6.30
-7.76
-9.40
-11.08
-12.63
-13.88
-14.63
-14.71
-13.99
-12.50
-10.45
-8.16
-5.92
-3.92
-2.15
-0.49
1.16
2.84
4.44
5.84
6.92
7.68
8.22
8.65
9.04
9.41
9.73
9.96
10.11
10.25
10.42
10.67
10.95
11.15
11.16
10.84
10.15
9.10
7.80
6.41
5.13
4.08
3.34
2.87
2.52
2.11
1.47
0.55
-0.61
-1.89
-3.16
-4.33
-5.42
-6.50
-7.64
-8.87
-10.16
-11.47
-12.73
-13.85
-14.69
-15.05
-14.71
-13.51
-11.43
-8.61
-5.38
-2.13
0.83
3.29
5.21
6.69
7.86
8.85
9.70
10.39
10.90
11.25
11.49
11.70
11.93
12.18
12.37
12.42
12.26
11.93
11.54
11.21
11.00
10.83
10.57
10.09
9.29
8.22
7.00
5.79
4.71
3.81
3.00
2.17
1.22
0.11
-1.09
-2.24
-3.23
-4.01
-4.61
-5.13
-5.68
-6.37
-7.29
-8.50
-9.98
-11.64
-13.25
-14.47
-14.96
-14.49
-13.06
-10.88
-8.25
-5.49
-2.82
-0.33
1.93
3.94
5.61
6.88
7.70
8.12
8.29
8.39
8.58
8.92
9.38
9.82
10.14
10.28
10.25
10.12
9.91
9.65
9.32
8.92
8.47
7.97
7.43
6.80
6.03
5.10
4.05
2.96
1.95
1.08
0.36
-0.28
-0.92
-1.66
-2.55
-3.58
-4.72
-5.87
-6.96
-7.91
-8.72
-9.49
-10.36
-11.43
-12.66
-13.83
-14.57
-14.55
-13.56
-11.71
-9.30
-6.72
-4.28
-2.11
-0.13
1.73
3.51
5.07
6.24
6.84
6.90
6.61
6.26
6.12
6.32
6.80
7.41
7.96
8.31
8.42
8.34
8.12
7.79
7.35
6.83
6.26
5.70
5.20
4.75
4.29
3.75
3.04
2.12
1.02
-0.22
-1.50
-2.70
-3.72
-4.53
-5.15
-5.70
-6.33
-7.16
-8.24
-9.52
-10.91
-12.28
-13.45
-14.22
-14.37
-13.76
-12.39
-10.43
-8.17
-5.98
-4.12
-2.68
-1.62
-0.82
-0.19
0.27
0.52
0.58
0.49
0.44
0.57
1.02
1.76
2.72
3.73
4.66
5.43
6.02
6.40
6.61
6.64
6.54
6.39
6.28
6.30
6.46
6.69
6.88
6.92
6.76
6.43
6.02
5.64
5.33
5.07
4.78
4.37
3.79
3.08
2.31
1.56
0.88
0.26
-0.35
-0.99
-1.69
-2.45
-3.23
-4.03
-4.86
-5.74
-6.69
-7.72
-8.82
-9.96
-11.08
-12.09
-12.87
-13.30
-13.27
-12.73
-11.69
-10.20
-8.39
-6.40
-4.37
-2.46
-0.75
0.66
1.75
2.51
2.99
3.25
3.39
3.53
3.74
4.05
4.45
4.85
5.18
5.39
5.51
5.58
5.66
5.79
5.94
6.06
6.11
6.04
5.85
5.50
4.98
4.33
3.60
2.87
2.24
1.68
1.15
0.53
-0.25
-1.17
-2.15
-3.05
-3.82
-4.46
-5.09
-5.81
-6.71
-7.77
-8.95
-10.15
-11.28
-12.24
-12.92
-13.21
-12.97
-12.14
-10.72
-8.83
-6.69
-4.52
-2.53
-0.81
0.60
1.75
2.68
3.43
4.04
4.53
4.93
5.26
5.54
5.76
5.93
6.06
6.17
6.30
6.46
6.60
6.70
6.70
6.60
6.41
6.15
5.81
5.39
4.88
4.32
3.75
3.23
2.75
2.24
1.61
0.79
-0.16
-1.08
-1.82
-2.32
-2.66
-3.05
-3.66
-4.54
-5.58
-6.62
-7.55
-8.36
-9.14
-9.96
-10.77
-11.38
-11.56
-11.13
-10.07
-8.50
-6.64
-4.68
-2.81
-1.12
0.31
1.46
2.33
2.96
3.44
3.80
4.10
4.36
4.59
4.79
4.98
5.16
5.29
5.38
5.41
5.40
5.40
5.46
5.56
5.63
5.57
5.27
4.70
3.90
2.99
2.12
1.41
0.92
0.60
0.34
-0.02
-0.58
-1.40
-2.42
-3.55
-4.66
-5.64
-6.45
-7.14
-7.78
-8.47
-9.28
-10.24
-11.27
-12.24
-12.92
-13.10
-12.62
-11.49
-9.85
-7.96
-6.11
-4.48
-3.10
-1.87
-0.66
0.60
1.81
2.78
3.32
3.39
3.12
2.80
2.71
3.01
3.62
4.35
4.97
5.28
5.29
5.09
4.82
4.58
4.39
4.18
3.87
3.40
2.79
2.10
1.41
0.76
0.16
-0.46
-1.15
-1.93
-2.75
-3.52
-4.18
-4.75
-5.32
-6.01
-6.93
-8.07
-9.31
-10.50
-11.45
-12.02
-12.11
-11.66
-10.65
-9.15
-7.28
-5.22
-3.16
-1.22
0.54
2.09
3.43
4.51
5.29
5.77
5.99
6.07
6.12
6.26
6.49
6.78
7.05
7.25
7.35
7.35
7.29
7.20
7.10
7.01
6.92
6.78
6.50
6.03
5.32
4.41
3.37
2.26
1.15
0.06
-1.00
-2.01
-2.95
-3.77
-4.51
-5.24
-6.05
-7.07
-8.31
-9.68
-10.97
-11.94
-12.36
-12.15
-11.35
-10.09
-8.52
-6.77
-4.91
-2.98
-1.03
0.89
2.70
4.36
5.85
7.11
8.11
8.77
9.08
9.06
8.84
8.57
8.38
8.32
8.39
8.53
8.66
8.74
8.73
8.59
8.34
7.97
7.54
7.08
6.59
6.06
5.43
4.63
3.65
2.46
1.13
-0.26
-1.61
-2.81
-3.76
-4.47
-5.03
-5.57
-6.29
-7.31
-8.68
-10.32
-12.02
-13.45
-14.31
-14.35
-13.48
-11.80
-9.56
-7.04
-4.47
-2.01
0.29
2.34
4.09
5.47
6.45
7.07
7.45
7.73
8.02
8.41
8.86
9.32
9.75
10.11
10.39
10.57
10.66
10.62
10.47
10.18
9.75
9.18
8.46
7.57
6.56
5.47
4.39
3.40
2.55
1.84
1.18
0.49
-0.31
-1.27
-2.36
-3.54
-4.73
-5.88
-6.97
-8.04
-9.17
-10.40
-11.72
-12.96
-13.87
-14.13
-13.53
-12.02
-9.80
-7.20
-4.59
-2.20
-0.11
1.76
3.53
5.24
6.83
8.16
9.10
9.61
9.77
9.72
9.62
9.55
9.51
9.47
9.39
9.29
9.21
9.17
9.14
9.04
8.79
8.33
7.69
6.92
6.07
5.17
4.22
3.22
2.19
1.18
0.21
-0.74
-1.72
-2.77
-3.85
-4.87
-5.75
-6.46
-7.07
-7.70
-8.47
-9.41
-10.46
-11.50
-12.38
-12.98
-13.19
-12.89
-11.96
-10.39
-8.24
-5.73
-3.16
-0.86
0.97
2.28
3.19
3.88
4.50
5.11
5.66
6.05
6.24
6.27
6.25
6.30
6.48
6.73
6.96
7.05
6.97
6.78
6.55
6.32
6.04
5.65
5.11
4.42
3.67
2.98
2.42
1.97
1.54
1.00
0.28
-0.61
-1.61
-2.62
-3.55
-4.37
-5.13
-5.92
-6.84
-7.91
-9.11
-10.33
-11.42
-12.21
-12.56
-12.38
-11.60
-10.23
-8.32
-5.99
-3.47
-0.97
1.28
3.14
4.56
5.54
6.13
6.40
6.43
6.31
6.16
6.09
6.16
6.39
6.74
7.14
7.48
7.71
7.78
7.70
7.45
7.05
6.54
5.97
5.37
4.77
4.13
3.36
2.39
1.25
0.03
-1.14
-2.16
-2.99
-3.71
-4.42
-5.26
-6.25
-7.38
-8.57
-9.74
-10.85
-11.85
-12.70
-13.30
-13.53
-13.26
-12.39
-10.93
-9.02
-6.84
-4.64
-2.58
-0.74
0.88
2.30
3.48
4.39
5.02
5.43
5.76
6.13
6.61
7.15
7.62
7.90
7.91
7.70
7.37
7.00
6.61
6.12
5.47
4.64
3.67
2.69
1.80
1.06
0.42
-0.22
-0.96
-1.85
-2.86
-3.93
-5.01
-6.08
-7.17
-8.30
-9.46
-10.60
-11.67
-12.70
-13.76
-14.96
-16.34
-17.81
-19.13
-20.00
-20.12
-19.31
-17.56
-15.04
-12.03
-8.83
-5.69
-2.77
-0.12
2.25
4.38
6.27
7.91
9.27
10.32
11.13
11.79
12.41
13.09
13.81
14.51
15.08
15.40
15.45
15.28
14.99
14.66
14.31
13.89
13.29
12.49
11.50
10.43
9.39
8.43
7.52
6.59
5.58
4.49
3.37
2.32
1.34
0.38
-0.65
-1.87
-3.32
-5.00
-6.81
-8.60
-10.16
-11.25
-11.65
-11.23
-9.98
-8.10
-5.89
-3.65
-1.60
0.19
1.75
3.14
4.36
5.32
5.85
5.86
5.41
4.71
4.07
3.72
3.72
3.95
4.20
4.30
4.17
3.89
3.58
3.36
3.23
3.13
2.93
2.56
1.99
1.26
0.46
-0.33
-1.04
-1.68
-2.30
-2.95
-3.69
-4.52
-5.38
-6.23
-7.02
-7.76
-8.50
-9.28
-10.05
-10.66
-10.95
-10.73
-9.92
-8.56
-6.75
-4.68
-2.51
-0.37
1.65
3.47
5.02
6.21
6.99
7.35
7.35
7.13
6.81
6.46
6.12
5.81
5.56
5.42
5.47
5.73
6.12
6.49
6.68
6.59
6.25
5.72
5.11
4.47
3.78
3.04
2.26
1.50
0.82
0.19
-0.48
-1.32
-2.44
-3.84
-5.42
-7.01
-8.40
-9.40
-9.86
-9.71
-8.92
-7.57
-5.81
-3.85
-1.94
-0.24
1.10
2.07
2.71
3.08
3.27
3.35
3.37
3.36
3.34
3.29
3.20
3.06
2.85
2.60
2.32
2.07
1.90
1.82
1.79
1.72
1.55
1.23
0.81
0.35
-0.11
-0.57
-1.08
-1.73
-2.54
-3.49
-4.52
-5.56
-6.58
-7.61
-8.64
-9.62
-10.44
-10.89
-10.80
-10.06
-8.71
-6.88
-4.82
-2.77
-0.92
0.63
1.86
2.82
3.56
4.13
4.53
4.77
4.85
4.79
4.61
4.36
4.08
3.82
3.64
3.58
3.61
3.71
3.79
3.77
3.60
3.26
2.79
2.25
1.69
1.15
0.60
-0.00
-0.71
-1.53
-2.42
-3.32
-4.14
-4.88
-5.59
-6.36
-7.26
-8.22
-9.08
-9.60
-9.60
-8.99
-7.84
-6.33
-4.68
-3.07
-1.60
-0.29
0.88
1.93
2.83
3.53
3.99
4.25
4.40
4.59
4.90
5.32
5.73
5.95
5.88
5.55
5.10
4.71
4.47
4.34
4.21
3.94
3.49
2.90
2.26
1.62
0.96
0.21
-0.67
-1.65
-2.60
-3.37
-3.86
-4.07
-4.16
-4.36
-4.89
-5.84
-7.16
-8.65
-10.05
-11.09
-11.56
-11.38
-10.56
-9.22
-7.51
-5.58
-3.57
-1.58
0.27
1.93
3.34
4.49
5.38
6.03
6.44
6.61
6.56
6.31
5.98
5.68
5.55
5.62
5.84
6.07
6.15
5.97
5.52
4.88
4.14
3.40
2.70
2.03
1.40
0.78
0.18
-0.41
-1.03
-1.72
-2.47
-3.24
-3.96
-4.55
-5.03
-5.51
-6.15
-7.08
-8.35
-9.85
-11.41
-12.78
-13.73
-14.08
-13.71
-12.57
-10.73
-8.34
-5.67
-3.03
-0.69
1.20
2.61
3.64
4.42
5.04
5.57
5.98
6.28
6.46
6.56
6.63
6.69
6.72
6.66
6.50
6.25
5.99
5.81
5.73
5.71
5.62
5.34
4.81
4.06
3.23
2.47
1.86
1.39
0.96
0.40
-0.37
-1.37
-2.46
-3.49
-4.33
-4.97
-5.51
-6.10
-6.87
-7.86
-8.96
-9.99
-10.74
-11.09
-10.99
-10.45
-9.49
-8.14
-6.43
-4.43
-2.29
-0.20
1.67
3.20
4.37
5.26
5.94
6.49
6.90
7.14
7.20
7.09
6.89
6.66
6.49
6.40
6.39
6.47
6.62
6.82
6.99
7.03
6.86
6.41
5.70
4.84
3.96
3.16
2.47
1.85
1.20
0.45
-0.43
-1.40
-2.39
-3.30
-4.07
-4.67
-5.17
-5.69
-6.40
-7.38
-8.60
-9.89
-10.96
-11.48
-11.21
-10.09
-8.26
-5.99
-3.61
-1.40
0.47
1.92
3.01
3.80
4.41
4.92
5.36
5.73
5.97
6.02
5.85
5.48
4.97
4.42
3.96
3.68
3.60
3.71
3.91
4.07
4.10
3.93
3.56
3.04
2.40
1.70
0.94
0.14
-0.67
-1.42
-2.06
-2.56
-2.97
-3.38
-3.90
-4.60
-5.51
-6.57
-7.67
-8.67
-9.38
-9.71
-9.56
-8.96
-7.96
-6.64
-5.08
-3.34
-1.51
0.29
1.91
3.22
4.16
4.80
5.25
5.60
5.87
6.00
5.90
5.57
5.11
4.66
4.38
4.30
4.36
4.46
4.52
4.51
4.42
4.25
3.97
3.56
3.01
2.38
1.75
1.12
0.47
-0.25
-1.08
-1.98
-2.86
-3.61
-4.22
-4.78
-5.42
-6.29
-7.43
-8.71
-9.93
-10.82
-11.19
-10.90
-9.95
-8.44
-6.51
-4.35
-2.17
-0.13
1.62
2.99
3.91
4.39
4.49
4.30
3.95
3.56
3.26
3.12
3.17
3.41
3.77
4.17
4.52
4.75
4.82
4.74
4.50
4.13
3.64
3.07
2.44
1.83
1.24
0.68
0.09
-0.60
-1.45
-2.42
-3.47
-4.49
-5.43
-6.31
-7.17
-8.07
-9.03
-9.98
-10.75
-11.15
-11.03
-10.33
-9.11
-7.54
-5.83
-4.15
-2.59
-1.17
0.16
1.42
2.56
3.47
4.05
4.20
3.95
3.46
2.93
2.55
2.44
2.56
2.79
2.97
2.96
2.73
2.36
1.90
1.41
0.88
0.21
-0.66
-1.78
-3.12
-4.60
-6.13
-7.67
-9.21
-10.77
-12.36
-13.98
-15.55
-17.05
-18.51
-20.02
-21.65
-23.41
-25.15
-26.60
-27.43
-27.37
-26.28
-24.17
-21.23
-17.70
-13.83
-9.81
-5.72
-1.59
2.59
6.77
10.83
14.63
18.06
21.11
23.91
26.65
29.46
32.37
35.30
38.15
40.86
43.43
45.85
48.00
49.63
50.46
50.31
49.21
47.37
45.11
42.65
40.05
37.25
34.12
30.58
26.59
22.10
17.13
11.69
5.98
0.36
-4.62
-8.44
-10.75
-11.57
-11.36
-10.86
-10.95
-12.33
-15.35
-19.91
-25.54
-31.58
-37.38
-42.57
-46.96
-50.47
-52.83
-53.63
-52.40
-48.98
-43.71
-37.49
-31.54
-26.90
-23.95
-22.36
-21.22
-19.65
-17.18
-13.86
-10.13
-6.57
-3.65
-1.76
-1.32
-2.79
-6.46
-11.97
-17.83
-21.87
-22.12
-17.81
-9.83
-0.44
7.68
12.48
13.28
11.24
8.18
5.43
3.17
0.74
-2.58
-6.88
-11.38
-14.78
-15.02
-10.79
-2.34
8.56
19.60
29.07
36.44
42.11
46.91
52.52
60.01
69.27
79.20
88.70
97.48
106.20
115.97
120.86
116.28
101.47
80.52
58.90
39.95
24.12
10.14
-3.67
-18.42
-33.00
-45.17
-52.79
-55.12
-52.97
-48.29
-43.36
-39.95
-38.74
-38.38
-36.91
-33.01
-26.81
-19.38
-12.08
-6.19
-2.84
-3.00
-6.56
-12.38
-18.06
-21.25
-19.84
-13.11
-2.49
8.61
16.18
17.68
12.62
3.51
-6.08
-13.30
-17.23
-18.73
-19.46
-20.61
-22.09
-22.93
-22.09
-19.48
-16.03
-13.26
-12.33
-13.53
-16.13
-18.80
-20.34
-20.16
-18.58
-16.45
-14.74
-14.01
-14.27
-15.01
-15.50
-15.08
-13.47
-11.01
-8.11
-5.36
-3.20
-1.69
-0.58
0.58
2.10
4.08
6.27
8.24
9.56
10.02
9.72
8.93
8.02
7.28
6.83
6.60
6.44
6.18
5.75
5.20
4.66
4.23
3.96
3.78
3.61
3.38
3.01
2.52
1.94
1.30
0.62
-0.07
-0.77
-1.45
-2.09
-2.71
-3.33
-4.00
-4.69
-5.35
-5.93
-6.42
-6.85
-7.37
-8.10
-9.15
-10.47
-11.86
-12.93
-13.27
-12.61
-10.87
-8.20
-4.92
-1.42
1.95
4.97
7.51
9.56
11.14
12.24
12.86
13.03
12.80
12.29
11.67
11.11
10.76
10.66
10.76
10.93
11.00
10.87
10.48
9.88
9.17
8.43
7.72
7.01
6.21
5.23
4.05
2.70
1.32
0.03
-1.13
-2.21
-3.33
-4.61
-6.11
-7.78
-9.54
-11.24
-12.72
-13.82
-14.34
-14.11
-12.99
-10.99
-8.25
-5.09
-1.87
1.10
3.63
5.70
7.42
8.90
10.21
11.29
12.01
12.24
11.93
11.16
10.14
9.12
8.26
7.66
7.27
7.01
6.79
6.59
6.43
6.32
6.19
5.96
5.50
4.73
3.66
2.40
1.08
-0.18
-1.35
-2.41
-3.38
-4.26
-5.04
-5.73
-6.41
-7.23
-8.29
-9.57
-10.92
-12.03
-12.60
-12.44
-11.54
-10.03
-8.12
-6.02
-3.88
-1.81
0.06
1.65
2.88
3.73
4.28
4.61
4.82
4.98
5.10
5.18
5.20
5.16
5.04
4.86
4.59
4.23
3.77
3.21
2.63
2.08
1.67
1.40
1.19
0.87
0.26
-0.74
-2.07
-3.53
-4.86
-5.92
-6.73
-7.50
-8.49
-9.93
-11.90
-14.32
-17.02
-19.74
-22.23
-24.31
-25.82
-26.70
-27.00
-26.83
-26.30
-25.51
-24.50
-23.33
-22.07
-20.88
-19.90
-19.30
-19.14
-19.36
-19.85
-20.35
-20.42
-19.40
-16.44
-10.74
-1.97
9.41
22.07
34.13
43.75
49.77
52.06
51.33
48.68
45.15
41.33
37.42
33.42
29.43
25.65
22.27
19.26
16.37
13.13
9.19
4.48
-0.70
-5.83
-10.36
-14.04
-16.95
-19.44
-21.92
-24.67
-27.65
-30.57
-33.01
-34.57
-34.97
-34.16
-32.28
-29.57
-26.36
-22.95
-19.50
-16.06
-12.51
-8.69
-4.50
0.04
4.77
9.46
13.84
17.71
20.95
23.50
25.42
26.81
27.87
28.84
29.94
31.31
32.94
34.69
36.31
37.53
38.16
38.13
37.39
35.91
33.53
30.00
25.02
18.34
9.95
0.08
-10.71
-21.63
-31.76
-40.26
-46.52
-50.33
-51.89
-51.71
-50.43
-48.61
-46.65
-44.79
-43.25
-42.21
-41.83
-42.07
-42.61
-42.88
-42.30
-40.47
-37.43
-33.64
-29.74
-26.31
-23.60
-21.50
-19.68
-17.73
-15.35
-12.36
-8.72
-4.52
0.05
4.65
8.79
11.92
13.58
13.56
12.01
9.36
6.25
3.27
0.78
-1.12
-2.54
-3.72
-4.85
-6.02
-7.16
-8.13
-8.71
-8.75
-8.14
-6.87
-5.00
-2.63
0.16
3.24
6.52
9.81
12.93
15.66
17.79
19.19
19.81
19.66
18.79
17.20
14.86
11.74
7.91
3.53
-1.07
-5.45
-9.17
-11.82
-13.12
-12.94
-11.30
-8.26
-3.98
1.36
7.51
14.17
21.00
27.77
34.36
40.79
47.18
53.51
59.56
64.88
68.97
71.48
72.40
72.11
71.19
70.14
69.20
68.33
67.27
65.81
63.87
61.58
59.17
56.84
54.66
52.63
50.65
48.65
46.50
44.10
41.32
38.05
34.19
29.74
24.74
19.25
13.32
7.00
0.35
-6.44
-13.05
-19.08
-24.16
-28.12
-31.02
-33.12
-34.78
-36.25
-37.57
-38.58
-38.99
-38.56
-37.23
-35.15
-32.67
-30.14
-27.82
-25.77
-23.88
-21.92
-19.69
-17.15
-14.42
-11.80
-9.64
-8.20
-7.56
-7.57
-7.97
-8.35
-8.31
-7.51
-5.80
-3.17
0.16
3.85
7.45
10.55
12.84
14.19
14.66
14.47
13.87
13.08
12.21
11.31
10.37
9.47
8.71
8.24
8.09
8.16
8.21
8.02
7.47
6.57
5.48
4.35
3.23
2.01
0.46
-1.63
-4.36
-7.65
-11.30
-15.09
-18.84
-22.46
-25.95
-29.23
-32.19
-34.64
-36.41
-37.41
-37.68
-37.29
-36.26
-34.46
-31.68
-27.78
-22.87
-17.34
-11.79
-6.78
-2.61
0.70
3.36
5.58
7.43
8.82
9.54
9.43
8.51
7.00
5.21
3.46
1.95
0.75
-0.23
-1.09
-1.93
-2.74
-3.45
-3.90
-3.98
-3.65
-3.03
-2.38
-1.97
-2.05
-2.67
-3.74
-5.02
-6.26
-7.31
-8.19
-9.03
-9.97
-11.11
-12.39
-13.65
-14.62
-14.98
-14.42
-12.68
-9.66
-5.42
-0.28
5.28
10.69
15.43
19.10
21.47
22.48
22.15
20.63
18.12
14.97
11.58
8.39
5.73
3.78
2.49
1.65
1.01
0.41
-0.17
-0.59
-0.72
-0.47
0.08
0.77
1.40
1.86
2.16
2.37
2.59
2.89
3.31
3.84
4.45
5.01
5.32
5.13
4.14
2.18
-0.82
-4.71
-9.11
-13.47
-17.19
-19.79
-21.07
-21.15
-20.38
-19.18
-17.85
-16.43
-14.81
-12.88
-10.67
