1650272033.00
64.000000
-0.00
-0.00
-0.00
-0.00
-0.00
-0.00
-0.00
-0.00
-0.00
-0.00
0.00
0.01
0.01
-0.00
-0.03
-0.05
-0.05
0.00
0.13
0.36
0.66
1.01
1.37
1.72
2.06
2.40
2.79
3.24
3.80
4.42
5.06
5.66
6.19
6.68
7.17
7.72
8.37
9.18
10.03
10.82
11.45
11.88
12.22
12.66
13.43
14.65
16.52
18.81
21.22
23.49
25.47
27.28
29.29
31.91
35.41
40.08
45.50
51.11
56.35
60.97
65.15
69.46
74.58
80.91
88.76
97.42
106.02
113.73
120.25
125.93
131.60
138.61
145.37
153.72
163.83
175.60
187.98
198.55
203.56
198.83
181.03
148.84
103.95
49.48
-10.56
-72.73
-134.80
-195.65
-254.73
-311.59
-365.69
-416.25
-463.18
-506.61
-546.65
-582.64
-612.41
-632.02
-636.21
-620.00
-580.34
-518.03
-437.75
-346.88
-253.37
-163.59
-81.27
-7.76
56.82
112.57
159.11
196.00
223.33
242.04
253.78
260.37
263.21
263.02
259.92
253.70
244.32
232.19
218.16
203.33
188.80
175.25
162.83
151.23
139.83
128.18
116.14
103.99
92.31
81.66
72.36
64.36
57.30
50.69
44.22
37.76
31.44
25.52
20.21
15.59
11.59
8.15
5.10
2.39
0.01
-1.97
-3.53
-4.73
-5.69
-6.46
-7.08
-7.51
-7.70
-7.68
-7.55
-7.44
-7.44
-7.54
-7.63
-7.57
-7.30
-6.85
-6.32
-5.83
-5.39
-4.99
-4.60
-4.23
-3.94
-3.81
-3.84
-3.93
-3.90
-3.61
-3.03
-2.29
-1.57
-1.05
-0.76
-0.65
-0.60
-0.59
-0.68
-0.99
-1.60
-2.44
-3.29
-3.92
-4.15
-3.95
-3.49
-2.96
-2.56
-2.36
-2.30
-2.31
-2.27
-2.15
-1.93
-1.62
-1.20
-0.74
-0.30
0.04
0.20
0.19
0.06
-0.08
-0.13
-0.02
0.24
0.58
0.95
1.30
1.62
1.92
2.20
2.47
2.71
2.86
2.88
2.79
2.62
2.48
2.44
2.53
2.71
2.89
2.96
2.86
2.54
1.99
1.26
0.41
-0.50
-1.34
-2.05
-2.59
-2.98
-3.27
-3.51
-3.68
-3.78
-3.79
-3.74
-3.71
-3.73
-3.80
-3.87
-3.87
-3.74
-3.53
-3.30
-3.13
-3.07
-3.11
-3.15
-3.15
-3.04
-2.83
-2.55
-2.26
-2.03
-1.89
-1.87
-1.94
-2.05
-2.13
-2.10
-1.98
-1.76
-1.47
-1.15
-0.80
-0.41
0.03
0.54
1.23
2.13
3.28
4.61
5.92
6.98
7.51
7.35
6.35
4.76
2.99
1.46
0.46
0.10
0.26
0.66
0.97
0.90
0.36
-0.54
-1.56
-2.37
-2.70
-2.42
-1.59
-0.40
0.87
1.96
2.64
2.82
2.54
1.90
1.11
0.38
-0.12
-0.35
-0.35
-0.21
-0.02
0.17
0.35
0.57
0.91
1.40
1.99
2.54
2.83
2.61
1.79
0.49
-0.94
-2.07
-2.60
-2.49
-1.98
-1.47
-1.26
-1.51
-2.14
-2.93
-3.70
-4.30
-4.72
-4.95
-5.02
-4.92
-4.65
-4.21
-3.64
-3.01
-2.42
-1.95
-1.65
-1.52
-1.51
-1.52
-1.42
-1.13
-0.66
-0.10
0.41
0.78
0.98
1.06
1.11
1.22
1.39
1.55
1.61
1.49
1.21
0.84
0.49
0.23
0.11
0.13
0.30
0.57
0.90
1.22
1.43
1.48
1.36
1.12
0.84
0.59
0.38
0.21
0.04
-0.11
-0.18
-0.10
0.17
0.61
1.14
1.66
2.06
2.28
2.28
2.07
1.70
1.24
0.77
0.36
0.04
-0.19
-0.35
-0.44
-0.48
-0.44
-0.33
-0.19
-0.10
-0.12
-0.28
-0.54
-0.84
-1.09
-1.25
-1.31
-1.30
-1.27
-1.26
-1.29
-1.37
-1.49
-1.61
-1.72
-1.80
-1.87
-1.95
-2.06
-2.17
-2.23
-2.18
-1.99
-1.71
-1.42
-1.18
-1.03
-0.94
-0.86
-0.74
-0.55
-0.31
-0.06
0.16
0.32
0.44
0.49
0.49
0.43
0.31
0.15
0.02
-0.03
0.08
0.34
0.66
0.90
0.92
0.68
0.26
-0.22
-0.59
-0.77
-0.76
-0.64
-0.53
-0.53
-0.65
-0.90
-1.24
-1.62
-1.99
-2.31
-2.55
-2.71
-2.79
-2.80
-2.72
-2.53
-2.23
-1.87
-1.50
-1.24
-1.13
-1.15
-1.22
-1.23
-1.10
-0.84
-0.52
-0.24
-0.10
-0.10
-0.18
-0.24
-0.18
0.01
0.25
0.40
0.36
0.11
-0.26
-0.61
-0.78
-0.73
-0.49
-0.15
0.21
0.52
0.76
0.93
1.07
1.17
1.21
1.19
1.12
1.03
0.98
1.00
1.09
1.19
1.24
1.17
0.97
0.71
0.47
0.36
0.43
0.63
0.90
1.13
1.28
1.37
1.45
1.61
1.87
2.17
2.41
2.49
2.35
2.03
1.66
1.39
1.30
1.42
1.62
1.77
1.72
1.44
0.99
0.50
0.13
-0.05
-0.05
0.05
0.16
0.23
0.25
0.27
0.34
0.44
0.57
0.72
0.90
1.12
1.37
1.63
1.83
1.94
1.95
1.90
1.85
1.80
1.74
1.65
1.53
1.40
1.29
1.19
1.07
0.88
0.62
0.28
-0.07
-0.43
-0.78
-1.13
-1.49
-1.79
-1.99
-2.03
-1.93
-1.73
-1.48
-1.26
-1.10
-0.98
-0.89
-0.78
-0.61
-0.38
-0.07
0.27
0.62
0.95
1.26
1.53
1.74
1.87
1.88
1.77
1.57
1.33
1.13
1.00
0.97
1.02
1.14
1.29
1.43
1.52
1.53
1.44
1.29
1.12
1.01
1.00
1.08
1.24
1.41
1.55
1.63
1.66
1.64
1.56
1.41
1.17
0.85
0.51
0.22
0.04
-0.04
-0.06
-0.08
-0.15
-0.28
-0.44
-0.64
-0.84
-1.03
-1.19
-1.26
-1.23
-1.13
-1.05
-1.11
-1.37
-1.80
-2.25
-2.56
-2.62
-2.45
-2.15
-1.83
-1.60
-1.45
-1.32
-1.19
-1.03
-0.88
-0.75
-0.61
-0.43
-0.13
0.28
0.72
1.07
1.25
1.26
1.19
1.15
1.18
1.28
1.34
1.31
1.19
1.07
1.04
1.18
1.45
1.76
2.03
2.19
2.29
2.37
2.42
2.40
2.21
1.80
1.20
0.57
0.08
-0.12
-0.05
0.17
0.38
0.50
0.50
0.44
0.38
0.32
0.23
0.09
-0.11
-0.29
-0.41
-0.44
-0.43
-0.43
-0.53
-0.74
-1.07
-1.47
-1.90
-2.34
-2.75
-3.08
-3.29
-3.33
-3.23
-3.00
-2.73
-2.47
-2.24
-2.05
-1.88
-1.75
-1.70
-1.77
-2.00
-2.35
-2.70
-2.94
-3.01
-2.89
-2.62
-2.30
-1.98
-1.74
-1.62
-1.68
-1.95
-2.42
-3.02
-3.63
-4.08
-4.26
-4.13
-3.75
-3.23
-2.69
-2.12
-1.42
-0.35
1.33
3.65
6.35
8.84
10.35
10.24
8.34
5.05
1.29
-1.82
-3.37
-2.89
-0.50
3.24
7.57
11.62
14.52
15.52
14.10
10.31
4.90
-0.74
-4.98
-6.61
-5.30
-1.74
2.63
6.27
8.14
7.97
6.21
3.65
1.06
-1.05
-2.46
-3.15
-3.21
-2.77
-1.98
-0.99
0.04
1.00
1.79
2.35
2.71
2.96
3.25
3.75
4.51
5.48
6.42
7.06
7.16
6.66
5.70
4.56
3.54
2.84
2.53
2.55
2.75
2.95
2.97
2.68
2.00
0.98
-0.25
-1.51
-2.59
-3.31
-3.62
-3.49
-3.01
-2.31
-1.55
-0.91
-0.50
-0.33
-0.33
-0.34
-0.22
0.11
0.60
1.11
1.44
1.45
1.07
0.38
-0.45
-1.25
-1.92
-2.49
-3.04
-3.60
-4.14
-4.53
-4.72
-4.72
-4.71
-4.83
-5.14
-5.50
-5.66
-5.46
-4.89
-4.16
-3.49
-2.97
-2.46
-1.66
-0.35
1.45
3.42
5.05
5.95
6.01
5.48
4.82
4.50
4.79
5.66
6.84
8.03
9.05
9.90
10.70
11.62
12.66
13.71
14.58
15.15
15.43
15.61
15.92
16.51
17.36
18.26
18.92
19.10
18.72
17.86
16.78
15.79
15.14
14.96
15.25
15.83
16.40
16.57
15.89
14.00
10.75
6.28
1.09
-4.10
-8.54
-11.65
-13.20
-13.33
-12.46
-11.09
-9.71
-8.63
-8.04
-8.02
-8.63
-9.90
-11.85
-14.40
-17.38
-20.48
-23.40
-25.85
-27.71
-28.92
-29.59
-29.83
-29.83
-29.80
-29.98
-30.61
-31.76
-33.28
-34.78
-35.73
-35.63
-34.27
-31.71
-28.24
-24.27
-20.12
-16.03
-12.17
-8.73
-5.88
-3.72
-2.22
-1.10
-0.01
1.38
3.21
5.31
7.30
8.80
9.56
9.60
9.13
8.44
7.72
7.03
6.29
5.40
4.33
3.12
1.90
0.73
-0.38
-1.50
-2.69
-3.92
-5.06
-5.91
-6.27
-6.07
-5.38
-4.37
-3.27
-2.24
-1.35
-0.59
0.12
0.82
1.55
2.27
2.98
3.62
4.14
4.47
4.54
4.31
3.77
2.97
1.97
0.85
-0.29
-1.37
-2.35
-3.18
-3.84
-4.29
-4.47
-4.33
-3.88
-3.19
-2.38
-1.56
-0.82
-0.14
0.51
1.18
1.84
2.44
2.90
3.22
3.47
3.72
4.03
4.38
4.69
4.90
5.00
5.06
5.15
5.28
5.41
5.44
5.31
5.05
4.75
4.52
4.46
4.60
4.89
5.27
5.61
5.75
5.53
4.82
3.63
2.14
0.71
-0.28
-0.57
-0.07
1.08
2.58
4.12
5.38
6.17
6.36
5.93
4.94
3.56
2.02
0.58
-0.57
-1.33
-1.69
-1.73
-1.56
-1.30
-1.10
-1.05
-1.21
-1.55
-1.98
-2.39
-2.69
-2.87
-2.93
-2.95
-2.94
-2.89
-2.82
-2.75
-2.78
-3.08
-3.78
-4.84
-6.09
-7.23
-7.95
-8.12
-7.79
-7.21
-6.65
-6.33
-6.30
-6.50
-6.83
-7.23
-7.69
-8.20
-8.77
-9.33
-9.79
-10.10
-10.25
-10.32
-10.41
-10.62
-10.95
-11.32
-11.57
-11.52
-11.13
-10.51
-9.87
-9.35
-8.91
-8.28
-7.04
-4.92
-1.93
1.54
4.94
7.78
9.93
11.55
12.97
14.43
15.91
17.15
17.90
18.04
17.73
17.29
17.00
16.99
17.19
17.39
17.34
16.93
16.16
15.16
14.13
13.28
12.75
12.53
12.51
12.46
12.19
11.59
10.70
9.69
8.77
8.06
7.59
7.33
7.22
7.27
7.49
7.88
8.35
8.71
8.79
8.49
7.88
7.16
6.60
6.38
6.54
6.92
7.25
7.28
6.86
5.96
4.69
3.21
1.64
-0.01
-1.78
-3.76
-5.95
-8.23
-10.35
-12.05
-13.14
-13.61
-13.65
-13.52
-13.45
-13.56
-13.88
-14.36
-14.99
-15.76
-16.66
-17.61
-18.48
-19.11
-19.42
-19.42
-19.24
-19.02
-18.88
-18.82
-18.77
-18.64
-18.35
-17.94
-17.47
-17.05
-16.71
-16.40
-15.93
-15.08
-13.61
-11.41
-8.45
-4.86
-0.86
3.29
7.34
11.10
14.46
17.43
20.13
22.75
25.46
28.39
31.45
34.39
36.75
38.06
37.97
36.38
33.49
29.72
25.55
21.38
17.48
14.01
11.01
8.55
6.60
5.09
3.87
2.70
1.43
-0.03
-1.61
-3.17
-4.54
-5.59
-6.29
-6.70
-6.99
-7.33
-7.91
-8.82
-10.06
-11.49
-12.89
-14.00
-14.61
-14.64
-14.06
-12.97
-11.52
-9.86
-8.16
-6.54
-5.09
-3.83
-2.68
-1.55
-0.38
0.79
1.89
2.83
3.61
4.28
4.95
5.66
6.30
6.70
6.68
6.20
5.36
4.38
3.41
2.54
1.70
0.81
-0.14
-1.10
-1.98
-2.69
-3.22
-3.66
-4.09
-4.53
-4.94
-5.19
-5.21
-5.00
-4.65
-4.35
-4.29
-4.56
-5.19
-6.11
-7.24
-8.51
-9.88
-11.28
-12.64
-13.82
-14.70
-15.21
-15.32
-15.09
-14.58
-13.82
-12.81
-11.53
-9.94
-8.03
-5.86
-3.50
-1.06
1.36
3.69
5.90
7.97
9.88
11.55
12.95
14.02
14.78
15.27
15.57
15.73
15.78
15.71
15.46
14.93
14.04
12.75
11.12
9.31
7.57
6.08
4.87
3.86
2.84
1.65
0.28
-1.21
-2.72
-4.20
-5.73
-7.35
-9.03
-10.59
-11.74
-12.26
-12.07
-11.30
-10.23
-9.11
-8.08
-7.13
-6.16
-5.13
-4.08
-3.16
-2.49
-2.15
-2.07
-2.13
-2.15
-2.03
-1.73
-1.29
-0.77
-0.22
0.33
0.88
1.34
1.65
1.70
1.45
0.96
0.36
-0.17
-0.50
-0.62
-0.58
-0.50
-0.47
-0.55
-0.72
-0.95
-1.17
-1.32
-1.32
-1.08
-0.61
0.04
0.70
1.23
1.61
1.94
2.45
3.35
4.68
6.26
7.77
8.89
9.46
9.50
9.18
8.67
8.03
7.22
6.12
4.61
2.68
0.40
-2.10
-4.61
-6.95
-8.90
-10.30
-11.08
-11.31
-11.21
-11.04
-11.00
-11.15
-11.36
-11.38
-10.95
-9.90
-8.18
-5.88
-3.11
0.02
3.40
6.95
10.54
14.03
17.28
20.13
22.49
24.28
25.46
26.07
26.21
26.00
25.57
25.02
24.34
23.45
22.27
20.77
19.01
17.13
15.32
13.73
12.44
11.38
10.36
9.11
7.34
4.92
1.87
-1.51
-4.81
-7.57
-9.51
-10.58
-11.00
-11.07
-11.11
-11.27
-11.65
-12.27
-13.19
-14.48
-16.15
-18.07
-20.04
-21.82
-23.28
-24.50
-25.73
-27.25
-29.23
-31.58
-34.01
-36.13
-37.63
-38.41
-38.52
-38.12
-37.33
-36.18
-34.62
-32.60
-30.14
-27.36
-24.36
-21.13
-17.54
-13.36
-8.41
-2.69
3.51
9.75
15.53
20.46
24.39
27.38
29.57
31.16
32.24
32.85
32.98
32.61
31.78
30.57
29.05
27.22
25.02
22.39
19.35
16.06
12.86
10.12
8.11
6.88
6.25
5.95
5.76
5.63
5.63
5.83
6.22
6.67
6.92
6.80
6.23
5.27
4.06
2.74
1.39
0.05
-1.32
-2.71
-4.11
-5.47
-6.69
-7.67
-8.32
-8.56
-8.36
-7.78
-6.92
-5.93
-4.96
-4.15
-3.62
-3.41
-3.50
-3.83
-4.28
-4.68
-4.90
-4.85
-4.50
-3.92
-3.23
-2.53
-1.90
-1.35
-0.85
-0.38
0.06
0.39
0.52
0.34
-0.20
-1.06
-2.10
-3.14
-3.95
-4.32
-4.03
-2.92
-0.91
1.89
5.18
8.46
11.14
12.75
13.00
11.89
9.67
6.69
3.31
-0.09
-3.16
-5.57
-7.04
-7.49
-7.02
-5.94
-4.65
-3.49
-2.62
-2.02
-1.57
-1.14
-0.67
-0.11
0.58
1.50
2.81
4.67
7.11
10.01
13.08
15.94
18.26
19.78
20.36
20.00
18.80
16.95
14.74
12.50
10.47
8.84
7.60
6.62
5.75
4.86
3.93
3.06
2.35
1.88
1.65
1.60
1.67
1.83
2.07
2.42
2.87
3.38
3.83
4.12
4.19
4.11
3.99
3.95
4.03
4.14
4.09
3.70
2.80
1.33
-0.77
-3.56
-7.11
-11.40
-16.21
-21.10
-25.46
-28.74
-30.58
-31.02
-30.41
-29.26
-28.06
-27.10
-26.46
-26.03
-25.64
-25.10
-24.22
-22.86
-20.92
-18.42
-15.49
-12.33
-9.17
-6.20
-3.50
-1.14
0.87
2.52
3.81
4.76
5.38
5.70
5.69
5.35
4.72
3.90
3.11
2.54
2.41
2.82
3.85
5.55
8.02
11.29
15.28
19.74
24.21
28.19
31.24
33.14
33.94
33.89
33.34
32.59
31.76
30.80
29.48
27.58
24.93
21.54
17.55
13.15
8.55
3.90
-0.63
-4.85
-8.59
-11.73
-14.31
-16.52
-18.61
-20.81
-23.13
-25.40
-27.35
-28.74
-29.53
-29.83
-29.83
-29.69
-29.37
-28.72
-27.50
-25.54
-22.76
-19.28
-15.28
-10.97
-6.51
-2.01
2.49
6.91
11.11
14.94
18.22
20.84
22.76
24.00
24.66
24.83
24.60
24.06
23.25
22.17
20.75
18.87
16.46
13.49
10.06
6.37
2.68
-0.75
-3.73
-6.17
-8.09
-9.57
-10.74
-11.67
-12.41
-12.99
-13.43
-13.77
-14.07
-14.39
-14.70
-14.85
-14.65
-13.89
-12.43
-10.28
-7.51
-4.23
-0.56
3.40
7.47
11.41
14.89
17.63
19.47
20.44
20.70
20.47
19.86
18.85
17.31
15.14
12.37
9.23
6.06
3.21
0.85
-1.09
-2.85
-4.72
-6.80
-9.01
-11.03
-12.59
-13.51
-13.83
-13.70
-13.22
-12.33
-10.87
-8.69
-5.84
-2.59
0.62
3.39
5.52
7.06
8.26
9.41
10.68
12.08
13.50
14.76
15.73
16.30
16.43
16.11
15.37
14.26
12.88
11.37
9.89
8.56
7.42
6.43
5.46
4.38
3.13
1.76
0.43
-0.69
-1.46
-1.90
-2.16
-2.43
-2.89
-3.57
-4.43
-5.36
-6.31
-7.30
-8.42
-9.75
-11.29
-12.97
-14.66
-16.24
-17.63
-18.74
-19.46
-19.71
-19.41
-18.59
-17.39
-16.02
-14.67
-13.44
-12.33
-11.25
-10.10
-8.87
-7.61
-6.44
-5.48
-4.73
-4.08
-3.39
-2.48
-1.31
0.07
1.52
2.87
4.04
5.02
5.85
6.55
7.14
7.57
7.79
7.78
7.52
6.98
6.14
5.00
3.64
2.26
1.09
0.35
0.14
0.40
0.99
1.72
2.44
3.06
3.55
3.87
4.05
4.13
4.18
4.27
4.41
4.56
4.67
4.67
4.57
4.44
4.38
4.42
4.54
4.69
4.79
4.80
4.70
4.47
4.08
3.51
2.77
1.93
1.08
0.33
-0.20
-0.42
-0.27
0.25
1.04
1.93
2.70
3.19
3.37
3.36
3.32
3.38
3.58
3.80
3.88
3.69
3.19
2.44
1.58
0.74
0.04
-0.47
-0.78
-0.97
-1.12
-1.30
-1.55
-1.83
-2.09
-2.31
-2.52
-2.76
-3.04
-3.34
-3.58
-3.74
-3.83
-3.94
-4.17
-4.53
-4.96
-5.29
-5.37
-5.12
-4.57
-3.86
-3.13
-2.52
-2.12
-1.95
-1.99
-2.18
-2.42
-2.62
-2.70
-2.58
-2.26
-1.75
-1.12
-0.43
0.19
0.69
1.04
1.29
1.54
1.87
2.33
2.84
3.29
3.57
3.65
3.61
3.56
3.59
3.72
3.86
3.90
3.75
3.39
2.86
2.23
1.60
0.98
0.38
-0.19
-0.71
-1.18
-1.55
-1.86
-2.17
-2.59
-3.20
-4.04
-5.07
-6.15
-7.13
-7.85
-8.24
-8.29
-8.05
-7.62
-7.07
-6.48
-5.89
-5.33
-4.81
-4.30
-3.78
-3.23
-2.61
-1.92
-1.22
-0.53
0.09
0.61
1.00
1.24
1.33
1.24
1.00
0.64
0.24
-0.13
-0.47
-0.77
-1.06
-1.32
-1.50
-1.50
-1.31
-0.98
-0.62
-0.33
-0.16
-0.06
0.09
0.39
0.87
1.51
2.25
3.04
3.84
4.60
5.26
5.68
5.72
5.32
4.51
3.49
2.48
1.71
1.25
1.02
0.84
0.51
-0.04
-0.78
-1.59
-2.35
-3.06
-3.76
-4.50
-5.24
-5.82
-6.08
-5.91
-5.37
-4.62
-3.84
-3.14
-2.50
-1.82
-1.02
-0.13
0.67
1.23
1.43
1.36
1.22
1.28
1.70
2.45
3.30
3.93
4.09
3.68
2.81
1.70
0.60
-0.33
-1.01
-1.48
-1.76
-1.86
-1.78
-1.55
-1.24
-0.92
-0.68
-0.52
-0.38
-0.19
0.09
0.45
0.80
1.05
1.15
1.12
1.04
1.04
1.16
1.43
1.78
2.12
2.35
2.43
2.37
2.19
1.97
1.73
1.49
1.26
1.04
0.84
0.65
0.47
0.29
0.09
-0.16
-0.45
-0.78
-1.11
-1.43
-1.71
-1.90
-1.95
-1.79
-1.36
-0.63
0.39
1.65
3.04
4.37
5.44
6.02
6.00
5.41
4.45
3.43
2.66
2.29
2.33
2.62
3.01
3.37
3.68
3.97
4.24
4.48
4.65
4.73
4.70
4.61
4.48
4.30
4.03
3.62
2.97
2.02
0.70
-1.05
-3.21
-5.71
-8.39
-11.03
-13.39
-15.27
-16.54
-17.13
-17.00
-16.19
-14.78
-12.97
-11.03
-9.26
-7.92
-7.09
-6.65
-6.30
-5.71
-4.66
-3.19
-1.56
-0.17
0.62
0.62
-0.10
-1.31
-2.71
-4.03
-5.10
-5.81
-6.11
-6.00
-5.54
-4.87
-4.15
-3.58
-3.26
-3.16
-3.14
-2.95
-2.32
-1.04
1.01
3.78
7.05
10.51
13.78
16.53
18.57
19.83
20.36
20.27
19.70
18.78
17.68
16.55
15.53
14.63
13.79
12.89
11.80
10.52
9.14
7.76
6.49
5.32
4.18
2.99
1.72
0.43
-0.80
-1.85
-2.67
-3.30
-3.78
-4.17
-4.55
-4.93
-5.34
-5.76
-6.18
-6.58
-6.91
-7.15
-7.22
-7.02
-6.48
-5.57
-4.36
-3.00
-1.67
-0.56
0.28
0.88
1.33
1.66
1.87
1.91
1.72
1.36
0.94
0.62
0.51
0.56
0.66
0.69
0.59
0.44
0.36
0.45
0.66
0.84
0.84
0.58
0.17
-0.19
-0.30
-0.12
0.27
0.65
0.87
0.86
0.70
0.53
0.45
0.48
0.57
0.65
0.70
0.76
0.88
1.11
1.46
1.93
2.49
3.13
3.85
4.63
5.45
6.25
6.93
7.38
7.51
7.26
6.64
5.72
4.59
3.29
1.84
0.23
-1.49
-3.20
-4.75
-5.98
-6.91
-7.68
-8.50
-9.57
-10.92
-12.42
-13.87
-15.05
-15.85
-16.27
-16.37
-16.18
-15.75
-15.06
-14.13
-12.99
-11.70
-10.27
-8.70
-6.94
-5.00
-2.97
-1.05
0.54
1.59
2.04
2.00
1.67
1.29
1.02
0.92
0.92
0.92
0.84
0.65
0.36
-0.01
-0.44
-0.92
-1.47
-2.08
-2.71
-3.26
-3.66
-3.86
-3.89
-3.84
-3.86
-4.04
-4.42
-4.92
-5.36
-5.62
-5.58
-5.26
-4.74
-4.14
-3.60
-3.20
-2.99
-2.90
-2.81
-2.52
-1.88
-0.74
0.89
2.90
5.03
7.02
8.66
9.85
10.64
11.18
11.59
11.98
12.34
12.64
12.82
12.87
12.80
12.63
12.37
11.99
11.49
10.89
10.24
9.64
9.11
8.66
8.22
7.68
6.95
5.97
4.76
3.49
2.37
1.63
1.41
1.67
2.22
2.77
3.08
3.02
2.62
1.97
1.16
0.24
-0.78
-1.91
-3.07
-4.19
-5.26
-6.30
-7.40
-8.58
-9.76
-10.77
-11.37
-11.45
-11.02
-10.27
-9.43
-8.69
-8.10
-7.60
-7.05
-6.32
-5.32
-4.03
-2.42
-0.53
1.53
3.55
5.30
6.55
7.18
7.16
6.64
5.79
4.81
3.86
3.07
2.53
2.30
2.43
2.86
3.51
4.24
4.92
5.47
5.88
6.19
6.43
6.59
6.62
6.49
6.19
5.81
5.47
5.23
5.08
4.93
4.68
4.33
3.96
3.72
3.71
3.90
4.17
4.32
4.27
4.03
3.70
3.39
3.16
2.99
2.82
2.64
2.44
2.26
2.13
2.05
2.00
1.97
1.92
1.84
1.72
1.52
1.18
0.67
-0.01
-0.83
-1.74
-2.67
-3.63
-4.64
-5.76
-6.98
-8.25
-9.44
-10.42
-11.10
-11.49
-11.66
-11.76
-11.87
-12.01
-12.13
-12.10
-11.82
-11.18
-10.14
-8.73
-7.00
-5.07
-3.07
-1.12
0.75
2.54
4.33
6.17
8.05
9.90
11.58
12.88
13.64
13.79
13.35
12.46
11.32
10.14
9.05
8.11
7.27
6.47
5.66
4.82
3.96
3.11
2.28
1.50
0.76
0.07
-0.56
-1.14
-1.64
-2.08
-2.46
-2.80
-3.12
-3.42
-3.68
-3.83
-3.80
-3.55
-3.08
-2.46
-1.86
-1.44
-1.34
-1.59
-2.16
-2.91
-3.68
-4.31
-4.72
-4.89
-4.87
-4.72
-4.51
-4.29
-4.04
-3.77
-3.47
-3.15
-2.84
-2.55
-2.30
-2.07
-1.79
-1.43
-0.93
-0.33
0.30
0.83
1.15
1.18
0.95
0.53
0.03
-0.50
-1.04
-1.60
-2.23
-2.89
-3.51
-3.99
-4.28
-4.37
-4.32
-4.18
-3.95
-3.56
-2.94
-2.09
-1.12
-0.23
0.39
0.61
0.50
0.23
0.04
0.10
0.47
1.09
1.83
2.54
3.10
3.42
3.45
3.19
2.72
2.14
1.57
1.08
0.69
0.36
0.03
-0.32
-0.71
-1.13
-1.54
-1.91
-2.18
-2.31
-2.27
-2.08
-1.79
-1.43
-1.04
-0.62
-0.17
0.28
0.67
0.97
1.15
1.30
1.48
1.73
2.01
2.21
2.26
2.15
1.99
1.88
1.88
1.95
1.98
1.87
1.64
1.33
1.05
0.82
0.62
0.34
-0.12
-0.82
-1.74
-2.82
-3.96
-5.01
-5.87
-6.46
-6.76
-6.80
-6.64
-6.35
-5.94
-5.44
-4.85
-4.21
-3.60
-3.06
-2.63
-2.28
-1.95
-1.59
-1.15
-0.63
-0.05
0.52
0.98
1.21
1.10
0.63
-0.10
-0.86
-1.42
-1.61
-1.42
-0.97
-0.48
-0.09
0.15
0.29
0.44
0.63
0.87
1.10
1.25
1.32
1.32
1.28
1.23
1.17
1.08
0.97
0.85
0.74
0.69
0.72
0.82
0.94
1.00
0.93
0.71
0.39
0.09
-0.06
0.04
0.36
0.81
1.22
1.47
1.50
1.32
0.99
0.63
0.31
0.10
0.02
0.04
0.08
0.07
-0.00
-0.09
-0.09
0.09
0.47
0.95
1.37
1.63
1.78
1.96
2.33
2.94
3.66
4.24
4.46
4.26
3.76
3.20
2.83
2.75
2.93
3.25
3.60
3.90
4.13
4.27
4.28
4.15
3.89
3.57
3.27
3.07
3.00
3.09
3.30
3.60
3.94
4.23
4.37
4.30
3.98
3.49
2.98
2.61
2.46
2.53
2.71
2.90
2.99
2.98
2.88
2.72
2.47
2.09
1.52
0.77
-0.11
-1.04
-1.97
-2.93
-4.00
-5.28
-6.74
-8.27
-9.66
-10.75
-11.43
-11.76
-11.82
-11.72
-11.48
-11.08
-10.44
-9.57
-8.53
-7.44
-6.42
-5.53
-4.75
-4.00
-3.21
-2.40
-1.65
-1.07
-0.73
-0.62
-0.59
-0.50
-0.25
0.14
0.56
0.89
1.08
1.16
1.26
1.45
1.77
2.15
2.50
2.77
2.96
3.15
3.40
3.72
4.04
4.30
4.47
4.59
4.76
5.05
5.43
5.81
6.07
6.08
5.82
5.31
4.64
3.93
3.26
2.69
2.26
1.95
1.69
1.42
1.07
0.64
0.20
-0.16
-0.36
-0.41
-0.41
-0.48
-0.69
-1.00
-1.29
-1.44
-1.35
-1.08
-0.75
-0.49
-0.35
-0.31
-0.26
-0.14
0.02
0.16
0.13
-0.13
-0.60
-1.17
-1.70
-2.04
-2.14
-2.00
-1.67
-1.24
-0.78
-0.36
-0.03
0.23
0.43
0.62
0.83
1.09
1.39
1.65
1.79
1.74
1.49
1.11
0.69
0.34
0.10
-0.03
-0.06
-0.01
0.10
0.25
0.37
0.38
0.23
-0.06
-0.38
-0.59
-0.59
-0.40
-0.12
0.11
0.19
0.14
0.02
-0.08
-0.13
-0.18
-0.28
-0.47
-0.73
-1.00
-1.20
-1.28
-1.25
-1.08
-0.80
-0.36
0.21
0.88
1.55
2.11
2.48
2.63
2.61
2.52
2.40
2.25
1.96
1.44
0.65
-0.34
-1.38
-2.31
-3.07
-3.67
-4.21
-4.76
-5.33
-5.84
-6.22
-6.42
-6.50
-6.50
-6.45
-6.28
-5.90
-5.27
-4.46
-3.68
-3.14
-2.93
-2.93
-2.91
-2.59
-1.90
-0.99
-0.11
0.54
0.95
1.29
1.82
2.66
3.78
5.00
6.12
7.04
7.76
8.33
8.78
9.09
9.14
8.85
8.20
7.23
6.04
4.72
3.38
2.14
1.09
0.29
-0.23
-0.50
-0.54
-0.40
-0.05
0.49
1.18
1.90
2.54
2.97
3.19
3.24
3.18
3.08
2.93
2.71
2.41
2.08
1.80
1.64
1.56
1.45
1.15
0.57
-0.33
-1.43
-2.61
-3.72
-4.67
-5.42
-5.98
-6.38
-6.65
-6.82
-6.90
-6.91
-6.82
-6.65
-6.39
-6.08
-5.72
-5.34
-4.89
-4.32
-3.59
-2.68
-1.69
-0.76
-0.05
0.32
0.32
0.06
-0.30
-0.57
-0.65
-0.48
-0.14
0.29
0.69
0.98
1.11
1.03
0.71
0.12
-0.70
-1.67
-2.65
-3.47
-4.01
-4.22
-4.13
-3.83
-3.39
-2.84
-2.22
-1.57
-1.00
-0.56
-0.23
0.13
0.72
1.74
3.24
5.06
6.78
8.01
8.61
8.81
9.01
9.65
10.85
12.51
14.18
15.37
15.76
15.45
14.85
14.39
14.35
14.65
15.04
15.03
13.97
11.25
6.50
-0.33
-8.95
-18.69
-28.69
-37.01
-41.26
-40.20
-34.89
-27.88
-21.50
-17.43
-15.16
-13.89
-12.91
-12.00
-11.37
-11.04
-10.92
-10.62
-9.71
-7.88
-5.27
-2.25
0.67
3.06
4.82
6.17
7.50
9.05
10.83
12.52
13.78
14.43
14.51
14.33
14.24
14.47
15.12
16.12
17.22
18.17
18.76
18.94
18.90
18.74
18.57
18.44
18.29
17.85
16.63
14.09
9.87
4.08
-2.96
-10.69
-18.37
-24.93
-29.06
-30.14
-28.67
-26.72
-25.05
-23.79
-22.82
-21.63
-20.00
-17.95
-15.71
-13.54
-11.57
-9.67
-7.81
-6.01
-4.34
-2.90
-1.83
-1.25
-1.20
-1.56
-1.96
-2.16
-2.07
-1.72
-1.21
-0.70
-0.37
-0.30
-0.49
-0.74
-0.92
-0.95
-0.82
-0.62
-0.41
-0.33
-0.42
-0.69
-1.03
-1.37
-1.70
-2.04
-2.44
-2.96
-3.62
-4.38
-5.13
-5.67
-5.82
-5.44
-4.47
-2.94
-0.91
1.55
4.36
7.45
10.72
14.04
17.29
20.40
23.35
26.14
28.70
30.93
32.70
33.90
34.51
34.61
34.30
33.65
32.65
31.26
29.48
27.39
25.16
23.02
21.12
19.48
18.00
16.52
14.84
12.89
10.72
8.45
6.24
4.15
2.18
0.23
-1.78
-3.86
-5.94
-7.86
-9.47
-10.73
-11.74
-12.68
-13.72
-14.90
-16.11
-17.10
-17.65
-17.71
-17.38
-16.90
-16.50
-16.25
-16.14
-16.06
-15.95
-15.84
-15.74
-15.66
-15.50
-15.14
-14.52
-13.71
-12.86
-12.18
-11.73
-11.44
-11.16
-10.71
-10.08
-9.32
-8.56
-7.90
-7.35
-6.83
-6.29
-5.74
-5.24
-4.88
-4.69
-4.58
-4.43
-4.08
-3.44
-2.52
-1.39
-0.18
1.04
2.25
3.51
4.84
6.24
7.64
8.97
10.09
10.89
11.21
10.87
9.82
8.09
5.95
3.79
2.03
0.93
0.52
0.56
0.71
0.66
0.30
-0.33
-1.06
-1.74
-2.30
-2.74
-3.10
-3.42
-3.75
-4.15
-4.75
-5.68
-7.02
-8.68
-10.39
-11.80
-12.56
-12.53
-11.82
-10.69
-9.50
-8.46
-7.66
-7.04
-6.53
-6.09
-5.73
-5.41
-5.05
-4.51
-3.69
-2.55
-1.21
0.17
1.43
2.48
3.36
4.17
5.02
5.99
7.04
8.07
8.92
9.45
9.59
9.35
8.83
8.20
7.59
7.08
6.65
6.26
5.81
5.29
4.74
4.30
4.09
4.14
4.42
4.82
5.22
5.55
5.83
6.08
6.37
6.70
7.04
7.36
7.59
7.71
7.66
7.44
7.04
6.49
5.84
5.18
4.53
3.89
3.22
2.50
1.73
0.94
0.18
-0.53
-1.18
-1.79
-2.34
-2.83
-3.23
-3.56
-3.87
-4.25
-4.73
-5.29
-5.80
-6.13
-6.18
-5.99
-5.70
-5.48
-5.47
-5.63
-5.86
-5.99
-5.96
-5.77
-5.52
-5.27
-5.05
-4.77
-4.36
-3.77
-3.02
-2.21
-1.43
-0.79
-0.35
-0.16
-0.28
-0.71
-1.40
-2.21
-2.97
-3.51
-3.74
-3.64
-3.26
-2.68
-1.98
-1.23
-0.46
0.28
0.95
1.52
1.99
2.38
2.71
2.98
3.15
3.19
3.12
2.99
2.89
2.87
2.89
2.86
2.69
2.33
1.82
1.27
0.82
0.58
0.58
0.79
1.13
1.52
1.90
2.27
2.69
3.22
3.89
4.63
5.32
5.78
5.94
5.80
5.48
5.12
4.80
4.51
4.18
3.75
3.20
2.57
1.88
1.14
0.27
-0.78
-2.02
-3.41
-4.85
-6.26
-7.58
-8.80
-9.89
-10.81
-11.51
-11.96
-12.14
-12.07
-11.74
-11.10
-10.09
-8.68
-6.90
-4.88
-2.81
-0.89
0.78
2.16
3.32
4.38
5.45
6.61
7.89
9.21
10.48
11.56
12.37
12.86
13.02
12.88
12.47
11.81
10.94
9.91
8.77
7.60
6.46
5.37
4.34
3.34
2.35
1.34
0.29
-0.78
-1.85
-2.88
-3.86
-4.78
-5.61
-6.31
-6.79
-6.92
-6.63
-5.96
-5.06
-4.12
-3.27
-2.55
-1.87
-1.16
-0.38
0.36
0.94
1.26
1.37
1.39
1.50
1.78
2.23
2.72
3.14
3.40
3.49
3.45
3.31
3.03
2.50
1.61
0.33
-1.28
-3.02
-4.66
-6.07
-7.22
-8.22
-9.19
-10.18
-11.10
-11.71
-11.77
-11.12
-9.84
-8.16
-6.40
-4.81
-3.50
-2.39
-1.33
-0.21
1.00
2.19
3.21
3.95
4.38
4.56
4.61
4.58
4.48
4.27
3.88
3.27
2.47
1.56
0.63
-0.22
-0.95
-1.52
-1.94
-2.22
-2.37
-2.38
-2.28
-2.05
-1.66
-1.07
-0.27
0.78
2.08
3.62
5.33
7.14
8.92
10.52
11.80
12.63
12.93
12.68
11.93
10.77
9.32
7.72
6.11
4.57
3.18
1.97
0.93
-0.00
-0.86
-1.69
-2.49
-3.24
-3.90
-4.43
-4.80
-5.02
-5.16
-5.26
-5.36
-5.45
-5.48
-5.39
-5.15
-4.81
-4.43
-4.13
-3.96
-3.95
-4.00
-4.00
-3.84
-3.44
-2.79
-1.97
-1.09
-0.25
0.47
1.06
1.52
1.90
2.22
2.49
2.73
2.91
3.07
3.22
3.40
3.58
3.72
3.75
3.60
3.26
2.78
2.22
1.72
1.38
1.28
1.46
1.85
2.37
2.84
3.14
3.19
3.01
2.70
2.38
2.17
2.11
2.16
2.27
2.39
2.49
2.57
2.63
2.63
2.54
2.33
2.01
1.60
1.11
0.45
-0.48
-1.79
-3.52
-5.53
-7.58
-9.37
-10.73
-11.67
-12.40
-13.20
-14.20
-15.35
-16.40
-17.04
-17.07
-16.41
-15.17
-13.51
-11.60
-9.63
-7.79
-6.28
-5.30
-4.91
-5.03
-5.39
-5.70
-5.74
-5.55
-5.32
-5.30
-5.65
-6.34
-7.13
-7.68
-7.69
-6.98
-5.51
-3.35
-0.68
2.26
5.16
7.70
9.58
10.63
10.85
10.45
9.73
9.03
8.61
8.57
8.86
9.31
9.71
9.92
9.86
9.57
9.13
8.63
8.11
7.53
6.86
6.08
5.25
4.50
3.94
3.60
3.39
3.15
2.71
2.00
1.10
0.21
-0.47
-0.85
-0.94
-0.88
-0.82
-0.86
-1.00
-1.20
-1.41
-1.63
-1.89
-2.21
-2.61
-3.07
-3.55
-4.02
-4.45
-4.84
-5.17
-5.44
-5.61
-5.64
-5.48
-5.11
-4.57
-3.89
-3.16
-2.41
-1.67
-0.90
-0.09
0.72
1.45
1.94
2.09
1.89
1.45
0.95
0.57
0.41
0.49
0.72
1.01
1.27
1.48
1.65
1.78
1.89
1.95
1.94
1.87
1.76
1.66
1.61
1.62
1.67
1.71
1.68
1.53
1.27
0.97
0.69
0.53
0.53
0.67
0.86
0.99
0.95
0.70
0.24
-0.35
-0.95
-1.44
-1.74
-1.83
-1.74
-1.53
-1.27
-1.02
-0.81
-0.66
-0.57
-0.53
-0.54
-0.58
-0.62
-0.63
-0.60
-0.50
-0.36
-0.21
-0.08
0.00
0.04
0.04
0.04
0.03
0.02
-0.02
-0.10
-0.19
-0.29
-0.36
-0.37
-0.34
-0.28
-0.22
-0.19
-0.20
-0.26
-0.38
-0.55
-0.81
-1.18
-1.71
-2.39
-3.15
-3.91
-4.58
-5.10
-5.48
-5.75
-5.96
-6.09
-6.14
-6.08
-5.93
-5.73
-5.52
-5.29
-4.99
-4.57
-3.98
-3.22
-2.32
-1.32
-0.24
0.94
2.22
3.58
4.97
6.32
7.57
8.66
9.58
10.33
10.93
11.36
11.54
11.43
10.94
10.09
8.97
7.77
6.66
5.78
5.14
4.67
4.24
3.77
3.21
2.60
2.00
1.41
0.76
-0.10
-1.33
-2.95
-4.89
-6.89
-8.71
-10.14
-11.12
-11.72
-12.05
-12.17
-12.13
-11.93
-11.58
-11.16
-10.74
-10.35
-9.95
-9.40
-8.57
-7.44
-6.08
-4.62
-3.24
-2.04
-1.05
-0.25
0.43
1.02
1.55
1.99
2.33
2.53
2.60
2.58
2.48
2.32
2.10
1.81
1.52
1.27
1.15
1.20
1.42
1.73
2.02
2.23
2.34
2.41
2.53
2.75
3.04
3.31
3.46
3.40
3.14
2.76
2.39
2.13
2.03
2.07
2.16
2.19
2.07
1.76
1.28
0.66
-0.04
-0.72
-1.33
-1.78
-2.06
-2.20
-2.24
-2.25
-2.25
-2.23
-2.12
-1.90
-1.57
-1.16
-0.70
-0.16
0.52
1.41
2.48
3.59
4.55
5.18
5.44
5.45
5.43
5.56
5.87
6.25
6.52
6.55
6.30
5.88
5.41
4.97
4.58
4.21
3.86
3.53
3.26
3.04
2.81
2.52
2.13
1.66
1.21
0.84
0.58
0.39
0.21
-0.01
-0.26
-0.50
-0.68
-0.84
-1.04
-1.38
-1.87
-2.48
-3.15
-3.80
-4.38
-4.88
-5.27
-5.51
-5.56
-5.40
-5.09
-4.71
-4.32
-3.96
-3.56
-3.06
-2.38
-1.53
-0.55
0.49
1.53
2.51
3.37
4.01
4.36
4.42
4.30
4.18
4.21
4.44
4.79
5.08
5.13
4.86
4.33
3.67
3.04
2.55
2.24
2.08
2.00
1.95
1.90
1.87
1.90
1.99
2.11
2.20
2.13
1.81
1.25
0.52
-0.22
-0.86
-1.30
-1.57
-1.74
-1.87
-1.99
-2.07
-2.05
-1.90
-1.63
-1.29
-0.96
-0.72
-0.59
-0.55
-0.52
-0.45
-0.28
-0.03
0.23
0.41
0.45
0.36
0.24
0.17
0.22
0.35
0.48
0.51
0.42
0.25
0.12
0.10
0.21
0.40
0.57
0.64
0.58
0.42
0.20
-0.05
-0.30
-0.52
-0.68
-0.74
-0.73
-0.73
-0.80
-1.01
-1.35
-1.73
-2.03
-2.14
-2.06
-1.87
-1.68
-1.58
-1.57
-1.62
-1.67
-1.67
-1.63
-1.55
-1.46
-1.33
-1.10
-0.77
-0.37
0.02
0.30
0.46
0.53
0.52
0.46
0.45
0.51
0.62
0.76
0.89
1.07
1.32
1.45
1.38
1.15
0.85
0.58
0.48
0.62
1.18
2.13
3.12
3.94
4.65
5.41
6.49
8.17
10.68
14.32
19.13
24.55
30.05
35.13
39.15
41.53
41.84
38.85
32.64
26.01
20.26
15.68
12.60
11.11
11.03
11.99
13.49
15.03
15.90
14.93
11.31
4.77
-4.44
-15.51
-27.33
-38.73
-48.66
-56.51
-62.33
-66.22
-68.25
-68.53
-67.19
-64.37
-60.20
-54.79
-48.38
-41.53
-34.78
-28.56
-23.18
-18.70
-15.02
-11.94
-9.28
-6.96
-5.06
-3.58
-2.40
-1.39
-0.48
0.27
0.73
0.78
0.43
-0.24
-0.99
-1.61
-1.95
-2.03
-1.97
-1.92
-1.97
-2.13
-2.30
-2.36
-2.23
-1.94
-1.60
-1.34
-1.22
-1.15
-0.91
-0.25
1.04
2.99
5.42
8.03
10.44
12.38
13.71
14.48
14.82
14.93
14.92
14.85
14.68
14.34
13.79
13.02
12.14
11.27
10.56
10.09
9.90
9.97
10.21
10.53
10.82
10.95
10.77
10.19
9.17
7.78
6.18
4.61
3.29
2.39
1.94
1.87
1.98
2.02
1.79
1.20
0.28
-0.79
-1.73
-2.30
-2.33
-1.87
-1.11
-0.38
0.02
-0.07
-0.62
-1.44
-2.28
-2.94
-3.33
-3.45
-3.33
-3.04
-2.62
-2.11
-1.56
-1.03
-0.55
-0.16
0.16
0.45
0.77
1.16
1.64
2.14
2.56
2.77
2.71
2.41
1.98
1.56
1.20
0.91
0.60
0.26
-0.08
-0.31
-0.35
-0.18
0.13
0.45
0.72
0.90
1.01
1.03
0.92
0.59
0.04
-0.65
-1.28
-1.65
-1.67
-1.40
-1.05
-0.86
-0.95
-1.33
-1.89
-2.44
-2.88
-3.14
-3.24
-3.19
-3.00
-2.66
-2.18
-1.59
-0.95
-0.29
0.34
0.93
1.49
1.99
2.41
2.74
2.98
3.15
3.26
3.38
3.54
3.78
4.07
4.38
4.62
4.74
4.74
4.64
4.51
4.35
4.16
3.89
3.53
3.16
2.88
2.77
2.85
3.02
3.16
3.13
2.91
2.52
2.06
1.58
1.17
0.86
0.68
0.65
0.73
0.85
0.91
0.82
0.52
0.04
-0.54
-1.15
-1.71
-2.19
-2.54
-2.74
-2.73
-2.46
-1.94
-1.20
-0.34
0.55
1.37
2.03
2.54
2.89
3.17
3.42
3.69
3.97
4.20
4.34
4.34
4.22
4.06
3.94
3.91
3.97
4.06
4.14
4.16
4.15
4.18
4.26
4.37
4.40
4.28
3.97
3.54
3.15
2.92
2.91
3.05
3.20
3.26
3.16
2.94
2.71
2.53
2.46
2.45
2.48
2.50
2.48
2.42
2.27
2.00
1.57
1.02
0.40
-0.20
-0.66
-0.98
-1.17
-1.32
-1.50
-1.73
-1.93
-2.03
-1.95
-1.69
-1.29
-0.81
-0.32
0.17
0.65
1.12
1.57
1.97
2.34
2.71
3.09
3.49
3.88
4.20
4.42
4.55
4.60
4.57
4.44
4.19
3.85
3.53
3.36
3.41
3.62
3.83
3.83
3.52
2.96
2.36
1.95
1.83
1.95
2.15
2.27
2.23
2.06
1.83
1.58
1.27
0.87
0.39
-0.11
-0.50
-0.72
-0.80
-0.85
-1.01
-1.31
-1.70
-2.09
-2.39
-2.61
-2.81
-3.07
-3.42
-3.81
-4.17
-4.47
-4.67
-4.84
-5.01
-5.18
-5.36
-5.48
-5.49
-5.34
-5.00
-4.45
-3.72
-2.89
-2.07
-1.34
-0.76
-0.31
0.04
0.29
0.44
0.48
0.39
0.25
0.14
0.15
0.30
0.54
0.81
1.02
1.16
1.26
1.39
1.58
1.80
1.99
2.07
1.98
1.75
1.45
1.13
0.88
0.70
0.55
0.41
0.22
-0.02
-0.26
-0.46
-0.62
-0.77
-0.99
-1.34
-1.83
-2.35
-2.77
-2.95
-2.87
-2.62
-2.39
-2.28
-2.30
-2.36
-2.33
-2.18
-1.97
-1.84
-1.88
-2.06
-2.25
-2.31
-2.20
-2.01
-1.92
-2.05
-2.38
-2.75
-2.98
-2.96
-2.69
-2.30
-1.89
-1.52
-1.15
-0.73
-0.22
0.35
0.87
1.25
1.40
1.34
1.12
0.85
0.61
0.45
0.42
0.48
0.62
0.77
0.90
1.02
1.12
1.23
1.37
1.53
1.68
1.77
1.75
1.62
1.43
1.27
1.18
1.17
1.19
1.15
0.99
0.71
0.36
0.03
-0.21
-0.33
-0.38
-0.39
-0.40
-0.43
-0.45
-0.45
-0.45
-0.45
-0.48
-0.57
-0.74
-0.97
-1.22
-1.44
-1.61
-1.74
-1.90
-2.15
-2.47
-2.79
-3.00
-3.04
-2.92
-2.74
-2.59
-2.49
-2.41
-2.25
-1.97
-1.60
-1.23
-0.94
-0.76
-0.64
-0.51
-0.31
-0.04
0.28
0.59
0.86
1.05
1.17
1.26
1.34
1.45
1.57
1.67
1.70
1.65
1.57
1.51
1.52
1.56
1.58
1.50
1.29
1.00
0.76
0.61
0.56
0.56
0.51
0.34
0.07
-0.24
-0.53
-0.72
-0.79
-0.76
-0.68
-0.61
-0.61
-0.68
-0.81
-0.94
-1.02
-1.04
-1.02
-1.07
-1.24
-1.59
-2.06
-2.57
-3.02
-3.37
-3.58
-3.69
-3.71
-3.64
-3.47
-3.18
-2.78
-2.29
-1.77
-1.26
-0.82
-0.43
-0.10
0.17
0.36
0.44
0.41
0.25
0.03
-0.16
-0.22
-0.07
0.28
0.75
1.19
1.44
1.45
1.25
0.97
0.75
0.63
0.56
0.46
0.31
0.16
0.13
0.30
0.64
0.98
1.11
0.89
0.34
-0.38
-1.05
-1.45
-1.49
-1.21
-0.75
-0.28
0.03
0.07
-0.16
-0.61
-1.16
-1.69
-2.11
-2.40
-2.57
-2.69
-2.80
-2.94
-3.10
-3.25
-3.31
-3.24
-2.98
-2.53
-1.93
-1.29
-0.71
-0.29
-0.07
0.04
0.13
0.30
0.58
0.92
1.21
1.42
1.55
1.70
1.93
2.22
2.46
2.52
2.33
1.98
1.63
1.43
1.45
1.64
1.85
1.98
1.98
1.86
1.71
1.56
1.45
1.38
1.33
1.30
1.25
1.16
0.97
0.65
0.22
-0.26
-0.71
-1.04
-1.23
-1.33
-1.44
-1.62
-1.90
-2.23
-2.55
-2.83
-3.05
-3.23
-3.38
-3.44
-3.32
-2.96
-2.37
-1.66
-0.99
-0.50
-0.23
-0.15
-0.14
-0.07
0.10
0.38
0.71
1.05
1.34
1.58
1.78
1.98
2.19
2.40
2.58
2.71
2.79
2.85
2.93
3.05
3.15
3.15
2.97
2.59
2.08
1.59
1.26
1.15
1.23
1.38
1.51
1.54
1.49
1.41
1.34
1.26
1.12
0.88
0.52
0.12
-0.27
-0.56
-0.73
-0.80
-0.83
-0.87
-0.93
-1.03
-1.14
-1.25
-1.38
-1.57
-1.88
-2.33
-2.89
-3.46
-3.91
-4.12
-4.07
-3.82
-3.51
-3.28
-3.16
-3.10
-2.94
-2.56
-1.93
-1.15
-0.39
0.17
0.43
0.43
0.34
0.34
0.57
1.08
1.75
2.42
2.91
3.12
3.06
2.86
2.65
2.54
2.51
2.48
2.34
2.08
1.76
1.57
1.62
1.92
2.29
2.47
2.24
1.57
0.65
-0.19
-0.63
-0.53
-0.03
0.59
1.00
1.01
0.65
0.10
-0.42
-0.76
-0.92
-0.97
-1.02
-1.13
-1.30
-1.48
-1.64
-1.80
-2.03
-2.37
-2.80
-3.23
-3.50
-3.48
-3.13
-2.52
-1.80
-1.13
-0.60
-0.22
0.08
0.36
0.64
0.91
1.13
1.32
1.49
1.68
1.87
2.03
2.10
2.09
2.02
1.98
2.02
2.14
2.29
2.40
2.41
2.27
2.01
1.70
1.45
1.35
1.49
1.81
2.20
2.52
2.60
2.40
1.98
1.48
1.10
0.93
1.00
1.17
1.30
1.25
0.97
0.51
0.00
-0.44
-0.76
-0.93
-0.99
-0.98
-0.94
-0.91
-0.96
-1.18
-1.60
-2.21
-2.89
-3.49
-3.88
-4.02
-3.91
-3.59
-3.13
-2.52
-1.82
-1.11
-0.47
-0.01
0.27
0.41
0.53
0.72
1.03
1.44
1.88
2.27
2.56
2.71
2.70
2.54
2.28
1.97
1.69
1.50
1.43
1.46
1.57
1.72
1.87
2.01
2.11
2.13
2.05
1.90
1.71
1.54
1.43
1.36
1.28
1.15
0.94
0.67
0.37
0.09
-0.16
-0.35
-0.49
-0.56
-0.53
-0.38
-0.13
0.17
0.41
0.52
0.41
0.07
-0.47
-1.12
-1.79
-2.39
-2.88
-3.21
-3.40
-3.44
-3.37
-3.21
-3.01
-2.79
-2.55
-2.25
-1.85
-1.34
-0.74
-0.13
0.40
0.79
1.02
1.13
1.15
1.12
1.08
1.03
1.01
1.04
1.14
1.30
1.50
1.67
1.78
1.77
1.65
1.43
1.14
0.83
0.56
0.39
0.38
0.55
0.86
1.22
1.51
1.63
1.55
1.36
1.17
1.09
1.13
1.22
1.23
1.09
0.79
0.43
0.12
-0.07
-0.15
-0.20
-0.30
-0.49
-0.72
-0.96
-1.16
-1.30
-1.38
-1.41
-1.39
-1.32
-1.25
-1.26
-1.42
-1.74
-2.15
-2.53
-2.77
-2.82
-2.75
-2.62
-2.49
-2.33
-2.05
-1.59
-0.97
-0.34
0.11
0.26
0.12
-0.14
-0.33
-0.31
-0.07
0.28
0.60
0.80
0.86
0.83
0.75
0.66
0.54
0.40
0.28
0.23
0.33
0.58
0.92
1.24
1.42
1.40
1.19
0.87
0.56
0.35
0.27
0.28
0.30
0.27
0.19
0.10
0.05
0.05
0.06
0.01
-0.15
-0.44
-0.81
-1.17
-1.44
-1.61
-1.73
-1.86
-2.01
-2.16
-2.24
-2.21
-2.08
-1.94
-1.93
-2.10
-2.42
-2.75
-2.94
-2.88
-2.60
-2.19
-1.77
-1.41
-1.12
-0.86
-0.60
-0.34
-0.11
0.07
0.22
0.35
0.49
0.62
0.73
0.81
0.86
0.90
0.96
1.06
1.17
1.28
1.34
1.35
1.29
1.18
1.03
0.86
0.68
0.53
0.44
0.45
0.54
0.65
0.71
0.67
0.51
0.29
0.07
-0.09
-0.18
-0.23
-0.30
-0.45
-0.68
-0.95
-1.22
-1.47
-1.69
-1.87
-2.02
-2.15
-2.25
-2.31
-2.35
-2.37
-2.40
-2.48
-2.62
-2.79
-2.92
-2.92
-2.74
-2.37
-1.90
-1.45
-1.15
-1.04
-1.06
-1.08
-0.98
-0.69
-0.24
0.27
0.77
1.17
1.49
1.81
2.25
2.98
4.19
6.03
8.55
11.57
14.72
17.43
19.20
19.74
19.11
17.69
15.98
14.38
13.02
11.82
10.52
8.97
7.17
5.32
3.73
2.71
2.52
3.32
5.21
8.15
11.92
16.09
20.06
23.10
24.64
24.32
22.15
18.47
13.88
9.04
4.57
0.86
-1.87
-3.66
-4.64
-5.03
-5.04
-4.84
-4.57
-4.33
-4.13
-3.89
-3.42
-2.46
-0.73
2.00
5.85
10.75
16.45
22.47
28.13
32.61
35.09
34.87
31.59
25.33
16.58
6.17
-4.97
-15.94
-26.00
-34.63
-41.47
-46.37
-49.32
-50.51
-50.32
-49.26
-47.83
-46.37
-44.88
-43.04
-40.30
-36.12
-30.24
-22.88
-14.74
-6.81
-0.15
4.42
6.52
6.21
3.86
0.05
-4.56
-9.36
-13.75
-17.19
-19.28
-19.81
-18.84
-16.66
-13.78
-10.78
-8.17
-6.30
-5.28
-4.93
-4.92
-4.87
-4.50
-3.78
-2.86
-2.01
-1.45
-1.19
-1.08
-0.86
-0.34
0.52
1.58
2.63
3.50
4.10
4.45
4.63
4.71
4.66
4.46
4.05
3.42
2.67
1.93
1.36
1.04
0.93
0.90
0.82
0.57
0.16
-0.33
-0.76
-1.04
-1.15
-1.13
-1.03
-0.91
-0.79
-0.67
-0.57
-0.51
-0.51
-0.59
-0.72
-0.86
-0.97
-1.05
-1.07
-1.05
-1.00
-0.92
-0.85
-0.80
-0.78
-0.79
-0.75
-0.60
-0.29
0.15
0.65
1.09
1.38
1.46
1.35
1.11
0.80
0.51
0.29
0.19
0.18
0.19
0.12
-0.08
-0.42
-0.84
-1.26
-1.62
-1.95
-2.29
-2.66
-3.01
-3.28
-3.38
-3.30
-3.10
-2.85
-2.63
-2.44
-2.26
-2.03
-1.71
-1.31
-0.85
-0.36
0.17
0.74
1.35
1.98
2.54
2.97
3.22
3.29
3.24
3.16
3.12
3.14
3.23
3.33
3.45
3.59
3.77
3.97
4.14
4.20
4.10
3.86
3.52
3.16
2.81
2.47
2.13
1.79
1.53
1.41
1.48
1.70
1.99
2.23
2.34
2.32
2.22
2.13
2.06
2.00
1.90
1.72
1.47
1.21
0.99
0.83
0.70
0.54
0.27
-0.13
-0.64
-1.19
-1.70
-2.12
-2.46
-2.73
-2.91
-2.95
-2.79
-2.39
-1.77
-1.06
-0.40
0.10
0.39
0.55
0.67
0.85
1.14
1.54
2.00
2.47
2.88
3.17
3.26
3.16
2.93
2.71
2.63
2.75
3.04
3.38
3.64
3.77
3.78
3.75
3.75
3.78
3.79
3.73
3.59
3.44
3.37
3.47
3.73
4.06
4.31
4.37
4.17
3.77
3.25
2.77
2.40
2.21
2.18
2.23
2.30
2.31
2.19
1.91
1.49
1.00
0.55
0.24
0.10
0.10
0.13
0.10
-0.01
-0.21
-0.43
-0.66
-0.90
-1.18
-1.52
-1.88
-2.21
-2.44
-2.54
-2.54
-2.50
-2.44
-2.35
-2.19
-1.91
-1.48
-0.93
-0.34
0.23
0.73
1.18
1.59
2.01
2.42
2.76
2.94
2.91
2.70
2.39
2.16
2.12
2.29
2.60
2.86
2.96
2.82
2.51
2.13
1.84
1.72
1.82
2.12
2.52
2.92
3.18
3.20
2.96
2.49
1.94
1.44
1.12
1.03
1.12
1.29
1.45
1.49
1.39
1.16
0.86
0.53
0.22
-0.05
-0.33
-0.64
-1.02
-1.47
-1.93
-2.31
-2.49
-2.44
-2.17
-1.82
-1.58
-1.61
-1.98
-2.61
-3.31
-3.79
-3.89
-3.57
-2.96
-2.29
-1.75
-1.41
-1.22
-1.03
-0.73
-0.27
0.29
0.82
1.20
1.39
1.44
1.43
1.44
1.49
1.55
1.58
1.56
1.52
1.50
1.55
1.67
1.84
2.01
2.13
2.16
2.08
1.87
1.57
1.24
0.99
0.88
0.94
1.12
1.34
1.51
1.60
1.63
1.60
1.53
1.39
1.19
0.97
0.79
0.71
0.71
0.71
0.59
0.32
-0.07
-0.45
-0.70
-0.78
-0.75
-0.77
-0.95
-1.31
-1.78
-2.24
-2.60
-2.88
-3.14
-3.42
-3.73
-4.00
-4.11
-3.98
-3.64
-3.16
-2.68
-2.31
-2.06
-1.90
-1.73
-1.50
-1.21
-0.87
-0.52
-0.17
0.20
0.61
1.04
1.43
1.69
1.74
1.55
1.19
0.78
0.47
0.40
0.60
1.04
1.60
2.12
2.43
2.44
2.16
1.74
1.34
1.12
1.12
1.26
1.40
1.40
1.20
0.83
0.43
0.08
-0.12
-0.17
-0.08
0.10
0.30
0.47
0.52
0.43
0.21
-0.08
-0.32
-0.43
-0.41
-0.31
-0.22
-0.26
-0.48
-0.85
-1.32
-1.82
-2.28
-2.67
-2.95
-3.15
-3.28
-3.37
-3.45
-3.50
-3.46
-3.27
-2.90
-2.39
-1.84
-1.37
-1.07
-0.94
-0.88
-0.76
-0.50
-0.12
0.31
0.69
0.94
1.07
1.12
1.14
1.19
1.26
1.34
1.43
1.51
1.58
1.66
1.73
1.81
1.92
2.06
2.23
2.38
2.46
2.44
2.31
2.10
1.86
1.62
1.40
1.18
0.97
0.77
0.57
0.40
0.25
0.13
0.02
-0.09
-0.20
-0.31
-0.39
-0.45
-0.49
-0.56
-0.70
-0.95
-1.29
-1.71
-2.14
-2.53
-2.85
-3.07
-3.23
-3.34
-3.40
-3.42
-3.39
-3.31
-3.14
-2.88
-2.53
-2.11
-1.64
-1.16
-0.69
-0.20
0.31
0.87
1.41
1.86
2.11
2.09
1.85
1.51
1.21
1.07
1.13
1.31
1.52
1.67
1.72
1.70
1.65
1.62
1.64
1.73
1.89
2.13
2.41
2.69
2.91
3.04
3.04
2.94
2.75
2.49
2.22
2.00
1.88
1.91
2.07
2.28
2.44
2.44
2.26
1.96
1.60
1.29
1.04
0.84
0.63
0.40
0.17
-0.03
-0.21
-0.43
-0.80
-1.42
-2.34
-3.45
-4.55
-5.42
-5.90
-5.95
-5.68
-5.22
-4.70
-4.20
-3.71
-3.20
-2.64
-2.09
-1.63
-1.31
-1.16
-1.11
-1.08
-1.01
-0.88
-0.74
-0.63
-0.53
-0.33
0.09
0.84
1.87
3.00
3.98
4.65
4.98
5.11
5.19
5.35
5.56
5.71
5.67
5.41
4.96
4.43
3.92
3.45
2.98
2.45
1.82
1.17
0.57
0.13
-0.14
-0.28
-0.39
-0.56
-0.78
-1.00
-1.16
-1.22
-1.25
-1.35
-1.62
-2.07
-2.63
-3.18
-3.64
-4.01
-4.34
-4.68
-5.08
-5.50
-5.86
-6.10
-6.16
-6.04
-5.73
-5.29
-4.74
-4.13
-3.51
-2.89
-2.27
-1.65
-1.04
-0.48
-0.01
0.33
0.57
0.77
1.02
1.33
1.66
1.94
2.11
2.18
2.22
2.31
2.50
2.76
3.02
3.17
3.15
3.02
2.85
2.76
2.79
2.91
3.03
3.02
2.84
2.51
2.13
1.82
1.65
1.61
1.57
1.39
1.01
0.44
-0.19
-0.73
-1.04
-1.13
-1.05
-0.95
-0.92
-1.01
-1.21
-1.49
-1.80
-2.13
-2.45
-2.74
-2.96
-3.14
-3.30
-3.51
-3.82
-4.21
-4.61
-4.91
-5.01
-4.88
-4.56
-4.13
-3.70
-3.29
-2.92
-2.55
-2.19
-1.87
-1.65
-1.55
-1.53
-1.49
-1.32
-0.98
-0.50
0.02
0.48
0.82
1.02
1.12
1.13
1.06
0.88
0.60
0.25
-0.11
-0.41
-0.60
-0.68
-0.68
-0.64
-0.60
-0.49
-0.24
0.22
0.93
1.83
2.79
3.67
4.36
4.82
5.06
5.12
5.05
4.90
4.69
4.46
4.29
4.20
4.21
4.27
4.31
4.22
3.92
3.39
2.66
1.84
1.03
0.36
-0.09
-0.30
-0.31
-0.20
-0.04
0.08
0.14
0.13
0.07
0.01
0.01
0.11
0.32
0.63
0.97
1.26
1.42
1.43
1.31
1.12
0.92
0.74
0.61
0.52
0.49
0.55
0.73
1.03
1.37
1.63
1.72
1.59
1.26
0.81
0.36
-0.02
-0.29
-0.45
-0.48
-0.39
-0.20
0.04
0.20
0.18
-0.11
-0.63
-1.29
-1.91
-2.34
-2.51
-2.46
-2.32
-2.21
-2.23
-2.35
-2.50
-2.55
-2.45
-2.19
-1.84
-1.48
-1.17
-0.95
-0.84
-0.90
-1.18
-1.75
-2.60
-3.63
-4.69
-5.62
-6.31
-6.72
-6.88
-6.84
-6.70
-6.49
-6.27
-6.03
-5.78
-5.47
-5.06
-4.46
-3.61
-2.47
-1.09
0.39
1.77
2.86
3.54
3.82
3.83
3.70
3.50
3.19
2.65
1.79
0.66
-0.55
-1.59
-2.29
-2.61
-2.67
-2.60
-2.49
-2.29
-1.86
-1.08
0.04
1.39
2.75
3.92
4.84
5.56
6.20
6.84
7.47
7.97
8.19
8.04
7.55
6.84
6.11
5.54
5.20
5.05
5.00
4.93
4.78
4.53
4.24
3.96
3.74
3.54
3.33
3.06
2.71
2.32
1.97
1.71
1.57
1.52
1.49
1.41
1.21
0.90
0.51
0.13
-0.16
-0.31
-0.35
-0.35
-0.38
-0.50
-0.71
-0.95
-1.17
-1.31
-1.36
-1.34
-1.27
-1.15
-1.01
-0.86
-0.74
-0.66
-0.64
-0.67
-0.71
-0.77
-0.87
-1.03
-1.25
-1.47
-1.65
-1.75
-1.79
-1.84
-1.98
-2.26
-2.65
-3.12
-3.58
-4.02
-4.42
-4.80
-5.16
-5.45
-5.62
-5.63
-5.47
-5.19
-4.83
-4.46
-4.10
-3.78
-3.51
-3.32
-3.20
-3.14
-3.11
-3.03
-2.84
-2.52
-2.12
-1.71
-1.37
-1.12
-0.94
-0.78
-0.63
-0.53
-0.54
-0.68
-0.80
-0.66
0.01
1.37
3.31
5.52
7.56
9.04
9.80
9.90
9.55
8.98
8.30
7.53
6.65
5.65
4.58
3.55
2.67
2.00
1.54
1.23
1.04
0.94
0.90
0.87
0.78
0.55
0.09
-0.59
-1.43
-2.29
-3.02
-3.49
-3.60
-3.34
-2.80
-2.12
-1.47
-0.96
-0.68
-0.62
-0.73
-0.95
-1.23
-1.54
-1.87
-2.19
-2.46
-2.65
-2.69
-2.54
-2.17
-1.60
-0.87
-0.12
0.50
0.90
1.03
0.94
0.77
0.61
0.58
0.73
1.05
1.59
2.34
3.33
4.57
6.05
7.74
9.58
11.42
13.04
14.18
14.59
14.13
12.85
11.01
8.94
6.96
5.23
3.73
2.31
0.83
-0.75
-2.33
-3.73
-4.81
-5.55
-6.05
-6.42
-6.76
-7.04
-7.16
-7.05
-6.73
-6.31
-5.95
-5.77
-5.78
-5.88
-5.93
-5.80
-5.49
-5.06
-4.65
-4.38
-4.27
-4.27
-4.25
-4.13
-3.90
-3.63
-3.41
-3.28
-3.17
-2.97
-2.55
-1.88
-1.08
-0.35
0.11
0.20
-0.01
-0.31
-0.44
-0.26
0.25
0.93
1.58
2.04
2.28
2.33
2.31
2.25
2.15
1.93
1.56
1.06
0.55
0.14
-0.04
0.07
0.47
1.08
1.79
2.41
2.78
2.78
2.38
1.69
0.90
0.17
-0.37
-0.73
-0.98
-1.25
-1.65
-2.21
-2.85
-3.34
-3.40
-2.73
-1.22
1.03
3.62
6.02
7.69
8.24
7.62
6.06
3.99
1.87
0.08
-1.23
-2.10
-2.70
-3.23
-3.84
-4.56
-5.30
-5.92
-6.27
-6.28
-5.95
-5.35
-4.61
-3.79
-2.96
-2.16
-1.45
-0.93
-0.66
-0.64
-0.79
-0.94
-0.91
-0.61
-0.05
0.60
1.13
1.35
1.19
0.67
-0.05
-0.78
-1.37
-1.72
-1.81
-1.72
-1.53
-1.27
-0.92
-0.44
0.18
0.88
1.50
1.92
2.08
2.07
2.07
2.22
2.58
3.01
3.26
3.06
2.26
0.88
-0.84
-2.61
-4.13
-5.21
-5.75
-5.75
-5.22
-4.26
-2.96
-1.54
-0.23
0.74
1.27
1.39
1.30
1.27
1.55
2.29
3.49
5.01
6.64
8.10
9.18
9.70
9.61
9.02
8.12
7.11
6.17
5.32
4.51
3.65
2.69
1.67
0.70
-0.17
-0.92
-1.61
-2.31
-3.05
-3.81
-4.53
-5.15
-5.69
-6.14
-6.52
-6.77
-6.80
-6.55
-5.99
-5.23
-4.39
-3.63
-3.05
-2.66
-2.42
-2.24
-2.08
-1.93
-1.79
-1.72
-1.77
-1.95
-2.27
-2.68
-3.10
-3.47
-3.75
-3.92
-4.02
-4.10
-4.18
-4.29
-4.39
-4.45
-4.43
-4.32
-4.10
-3.76
-3.32
-2.83
-2.32
-1.87
-1.57
-1.47
-1.63
-2.03
-2.62
-3.31
-3.97
-4.45
-4.62
-4.51
-4.23
-4.01
-4.06
-4.54
-5.46
-6.66
-7.87
-8.79
-9.37
-9.66
-9.90
-10.32
-11.08
-12.15
-13.32
-14.19
-14.36
-13.63
-11.96
-9.51
-6.58
-3.55
-0.88
1.00
1.79
2.19
2.80
4.19
6.62
10.01
14.03
18.08
21.56
23.96
25.07
24.85
23.70
21.80
19.33
16.46
13.39
10.35
7.58
5.29
3.55
2.27
1.26
0.51
-0.05
-0.51
-0.93
-1.30
-1.60
-1.84
-2.06
-2.34
-2.71
-3.16
-3.56
-3.74
-3.51
-2.81
-1.78
-0.64
0.35
1.06
1.53
1.89
2.27
2.70
3.12
3.40
3.42
3.17
2.72
2.17
1.63
1.18
0.87
0.73
0.82
1.15
1.72
2.49
3.36
4.23
4.95
5.38
5.40
4.94
4.04
2.79
1.38
-0.03
-1.33
-2.44
-3.29
-3.83
-4.02
-3.88
-3.54
-3.19
-3.01
-3.09
-3.35
-3.65
-3.83
-3.84
-3.77
-3.77
-3.93
-4.25
-4.60
-4.81
-4.77
-4.47
-3.98
-3.38
-2.80
-2.27
-1.83
-1.45
-1.06
-0.60
-0.00
0.72
1.52
2.30
2.96
3.42
3.65
3.63
3.39
3.00
2.56
2.22
2.08
2.19
2.50
2.89
3.21
3.33
3.21
2.90
2.52
2.21
2.09
2.21
2.57
3.04
3.51
3.85
4.05
4.14
4.24
4.49
4.92
5.52
6.16
6.67
6.86
6.64
6.10
5.51
5.31
6.06
8.25
12.10
17.42
23.44
28.96
32.67
33.50
31.10
25.98
19.36
12.82
7.73
4.82
4.05
4.77
6.01
6.94
7.03
6.12
4.28
1.72
-1.33
-4.62
-7.87
-10.76
-13.02
-14.48
-15.16
-15.25
-15.05
-14.77
-14.48
-14.07
-13.32
-12.06
-10.26
-8.07
-5.82
-3.84
-2.37
-1.45
-0.99
-0.81
-0.77
-0.86
-1.10
-1.59
-2.30
-3.12
-3.83
-4.24
-4.26
-3.96
-3.50
-3.08
-2.83
-2.79
-2.86
-2.89
-2.83
-2.71
-2.62
-2.66
-2.87
-3.33
-4.04
-4.94
-5.89
-6.74
-7.36
-7.67
-7.68
-7.50
-7.53
-8.08
-9.17
-10.55
-11.85
-12.85
-13.45
-13.70
-13.68
-13.72
-13.99
-14.37
-14.61
-14.59
-14.41
-14.24
-14.24
-14.47
-15.39
-17.27
-20.01
-23.11
-26.00
-28.17
-29.27
-29.17
-25.41
-17.26
-6.19
5.09
14.49
21.39
26.06
28.98
30.41
30.45
28.79
25.38
20.74
15.81
11.47
8.26
6.25
5.16
4.55
3.74
2.44
0.91
-0.24
-0.47
0.17
1.39
2.65
3.43
3.38
2.61
1.71
1.45
2.27
4.10
6.40
8.45
9.71
9.96
9.39
8.53
7.97
8.11
9.14
11.14
14.06
17.21
19.44
19.09
14.71
6.08
-5.31
-16.67
-25.09
-28.83
-27.96
-23.92
-18.59
-13.24
-8.15
-2.95
2.68
8.53
13.87
17.86
20.06
20.51
19.64
18.03
16.24
14.71
13.60
13.01
12.59
12.10
11.43
10.70
10.13
9.79
9.54
8.98
7.69
5.49
2.58
-0.56
-3.37
-5.38
-6.37
-6.40
-5.73
-4.68
-3.55
-2.53
-1.76
-1.28
-1.04
-0.94
-0.90
-0.93
-1.12
-1.63
-2.23
-2.85
-3.49
-4.17
-4.94
-5.80
-6.73
-7.68
-8.59
-9.44
-10.31
-11.20
-12.04
-12.69
-13.00
-12.90
-12.45
-11.79
-11.08
-10.48
-10.06
-9.83
-9.78
-9.90
-10.16
-10.50
-10.80
-10.97
-10.94
-10.69
-10.19
-9.42
-8.34
-6.95
-5.31
-3.57
-1.95
-0.71
0.02
0.19
-0.06
-0.58
-1.19
-1.76
-2.22
-2.57
-2.76
-2.78
-2.66
-2.51
-2.51
-2.88
-3.74
-5.03
-6.56
-8.00
-9.05
-9.50
-9.25
-8.39
-7.04
-5.42
-3.75
-2.24
-1.01
-0.13
0.45
0.83
1.12
1.41
1.74
2.14
2.62
3.16
3.73
4.25
4.63
4.81
4.81
4.79
4.93
5.39
6.21
7.31
8.52
9.70
10.75
11.70
12.59
13.47
14.32
15.11
15.78
16.28
16.56
16.54
16.13
15.23
13.82
11.98
9.86
7.65
5.52
3.60
1.93
0.53
-0.67
-1.75
-2.80
-3.91
-5.05
-6.18
-7.17
-7.97
-8.59
-9.12
-9.62
-10.09
-10.47
-10.64
-10.54
-10.24
-9.86
-9.56
-9.39
-9.27
-9.03
-8.51
-7.73
-6.79
-5.91
-5.28
-4.95
-4.85
-4.78
-4.56
-4.04
-3.15
-1.90
-0.43
1.08
2.42
3.38
3.84
3.80
3.36
2.69
1.98
1.37
0.93
0.62
0.35
-0.02
-0.63
-1.56
-2.78
-4.13
-5.39
-6.37
-6.94
-7.12
-7.01
-6.68
-6.18
-5.49
-4.56
-3.37
-1.96
-0.42
1.18
2.82
4.51
6.29
8.17
10.03
11.74
13.14
14.15
14.79
15.18
15.45
15.70
15.94
16.14
16.23
16.12
15.77
15.20
14.44
13.61
12.78
12.05
11.44
10.95
10.50
10.04
9.47
8.75
7.85
6.81
5.71
4.70
3.89
3.33
3.01
2.81
2.62
2.36
2.01
1.61
1.21
0.82
0.43
0.02
-0.40
-0.77
-1.01
-1.10
-1.06
-0.98
-0.96
-1.08
-1.34
-1.69
-2.04
-2.31
-2.48
-2.55
-2.58
-2.60
-2.63
-2.67
-2.69
-2.68
-2.66
-2.65
-2.68
-2.73
-2.76
-2.69
-2.45
-2.07
-1.60
-1.15
-0.82
-0.63
-0.52
-0.39
-0.13
0.28
0.79
1.32
1.75
2.06
2.24
2.36
2.43
2.45
2.37
2.15
1.83
1.49
1.22
1.04
0.91
0.76
0.53
0.26
0.05
-0.04
-0.01
0.05
0.02
-0.17
-0.47
-0.76
-0.92
-0.88
-0.70
-0.51
-0.46
-0.64
-1.03
-1.55
-2.04
-2.39
-2.57
-2.60
-2.56
-2.52
-2.49
-2.47
-2.40
-2.23
-1.92
-1.49
-0.98
-0.43
0.09
0.49
0.73
0.78
0.64
0.38
0.12
-0.03
-0.02
0.15
0.41
0.63
0.76
0.79
0.81
0.94
1.23
1.65
2.05
2.28
2.23
1.96
1.60
1.33
1.27
1.40
1.60
1.71
1.65
1.42
1.15
0.94
0.86
0.88
0.93
0.90
0.75
0.51
0.25
0.01
-0.18
-0.37
-0.60
-0.92
-1.29
-1.64
-1.91
-2.06
-2.12
-2.18
-2.32
-2.55
-2.80
-2.99
-3.02
-2.87
-2.62
-2.36
-2.16
-2.06
-1.99
-1.87
-1.66
-1.36
-1.02
-0.69
-0.42
-0.21
-0.04
0.12
0.32
0.57
0.88
1.24
1.58
1.84
1.99
2.03
2.01
2.00
2.01
2.04
2.06
2.04
1.99
1.96
2.00
2.14
2.38
2.66
2.95
3.19
3.35
3.39
3.31
3.16
3.01
3.00
3.21
3.66
4.23
4.75
5.05
5.06
4.82
4.49
4.19
4.00
3.93
3.98
4.15
4.44
4.79
5.02
4.89
4.13
2.60
0.39
-2.22
-4.82
-7.08
-8.80
-9.99
-10.76
-11.23
-11.49
-11.54
-11.35
-10.89
-10.17
-9.25
-8.25
-7.24
-6.33
-5.54
-4.91
-4.41
-4.03
-3.74
-3.53
-3.37
-3.22
-3.03
-2.72
-2.26
-1.68
-1.05
-0.51
-0.12
0.13
0.33
0.56
0.89
1.29
1.66
1.94
2.13
2.30
2.54
2.89
3.28
3.59
3.70
3.57
3.28
2.95
2.72
2.63
2.64
2.64
2.53
2.29
1.98
1.69
1.49
1.38
1.30
1.15
0.88
0.52
0.11
-0.27
-0.60
-0.87
-1.11
-1.32
-1.48
-1.56
-1.55
-1.46
-1.32
-1.14
-0.91
-0.62
-0.28
0.07
0.34
0.49
0.51
0.46
0.42
0.47
0.63
0.87
1.12
1.34
1.54
1.72
1.89
2.03
2.09
2.06
1.97
1.91
1.98
2.19
2.51
2.79
2.93
2.85
2.61
2.31
2.07
1.94
1.93
1.98
2.06
2.12
2.15
2.11
1.96
1.62
1.07
0.36
-0.38
-0.99
-1.32
-1.33
-1.07
-0.70
-0.39
-0.28
-0.42
-0.76
-1.18
-1.55
-1.79
-1.85
-1.81
-1.74
-1.69
-1.67
-1.69
-1.68
-1.63
-1.54
-1.41
-1.25
-1.07
-0.87
-0.69
-0.59
-0.60
-0.74
-0.98
-1.25
-1.47
-1.63
-1.71
-1.76
-1.82
-1.91
-2.05
-2.25
-2.54
-2.88
-3.22
-3.43
-3.41
-3.11
-2.58
-1.95
-1.39
-1.03
-0.90
-0.92
-1.03
-1.18
-1.36
-1.56
-1.73
-1.78
-1.59
-1.13
-0.49
0.17
0.65
0.85
0.78
0.52
0.18
-0.16
-0.50
-0.87
-1.26
-1.65
-1.97
-2.16
-2.23
-2.22
-2.21
-2.26
-2.39
-2.54
-2.64
-2.65
-2.52
-2.27
-1.95
-1.61
-1.29
-1.01
-0.81
-0.70
-0.72
-0.84
-1.04
-1.25
-1.42
-1.54
-1.65
-1.83
-2.14
-2.60
-3.17
-3.79
-4.38
-4.96
-5.57
-6.26
-7.07
-7.93
-8.71
-9.31
-9.66
-9.82
-9.89
-10.01
-10.23
-10.53
-10.78
-10.84
-10.65
-10.23
-9.68
-9.13
-8.61
-8.07
-7.38
-6.34
-4.84
-2.80
-0.28
2.57
5.54
8.38
10.84
12.75
14.04
14.74
15.00
15.00
14.90
14.80
14.73
14.62
14.40
14.01
13.39
12.60
11.73
10.95
10.41
10.22
10.39
10.83
11.38
11.87
12.17
12.21
11.98
11.49
10.80
9.92
8.90
7.76
6.55
5.34
4.20
3.22
2.41
1.74
1.17
0.62
0.10
-0.34
-0.63
-0.77
-0.76
-0.68
-0.57
-0.45
-0.26
0.04
0.44
0.91
1.36
1.77
2.14
2.54
3.07
3.73
4.50
5.32
6.10
6.78
7.31
7.65
7.74
7.54
7.00
6.13
4.97
3.60
2.09
0.51
-1.16
-2.91
-4.76
-6.69
-8.60
-10.38
-11.88
-12.98
-13.61
-13.74
-13.43
-12.77
-11.86
-10.83
-9.77
-8.77
-7.86
-7.08
-6.42
-5.85
-5.32
-4.75
-4.10
-3.34
-2.51
-1.68
-0.92
-0.35
-0.03
-0.01
-0.32
-0.93
-1.80
-2.84
-3.93
-4.93
-5.70
-6.17
-6.33
-6.24
-5.99
-5.68
-5.34
-4.97
-4.48
-3.82
-2.98
-2.06
-1.18
-0.50
-0.06
0.14
0.18
0.13
0.03
-0.14
-0.41
-0.78
-1.17
-1.49
-1.66
-1.69
-1.66
-1.69
-1.87
-2.22
-2.70
-3.21
-3.64
-3.94
-4.11
-4.16
-4.15
-4.10
-4.03
-3.91
-3.74
-3.48
-3.13
-2.71
-2.20
-1.58
-0.80
0.16
1.25
2.34
3.27
3.89
4.19
4.28
4.32
4.47
4.81
5.31
5.84
6.29
6.53
6.53
6.31
5.94
5.53
5.19
4.99
4.92
4.97
5.08
5.19
5.27
5.27
5.15
4.83
4.30
3.57
2.76
2.00
1.41
0.99
0.65
0.27
-0.25
-0.91
-1.62
-2.28
-2.85
-3.33
-3.77
-4.24
-4.72
-5.23
-5.76
-6.32
-6.92
-7.52
-8.02
-8.31
-8.28
-7.95
-7.43
-6.89
-6.44
-6.09
-5.78
-5.42
-4.97
-4.44
-3.89
-3.34
-2.81
-2.28
-1.73
-1.20
-0.76
-0.51
-0.52
-0.77
-1.18
-1.58
-1.85
-1.91
-1.80
-1.60
-1.40
-1.24
-1.04
-0.73
-0.25
0.36
0.97
1.45
1.75
1.93
2.12
2.43
2.89
3.41
3.88
4.18
4.28
4.21
4.06
3.88
3.69
3.49
3.23
2.91
2.52
2.12
1.76
1.49
1.32
1.22
1.17
1.08
0.94
0.73
0.45
0.14
-0.16
-0.39
-0.48
-0.35
0.03
0.62
1.31
1.93
2.36
2.52
2.48
2.39
2.37
2.52
2.81
3.11
3.30
3.27
3.04
2.68
2.32
2.06
1.95
1.98
2.09
2.18
2.16
1.98
1.63
1.18
0.73
0.36
0.11
-0.00
0.00
0.13
0.40
0.82
1.32
1.85
2.30
2.66
2.93
3.16
3.34
3.41
3.31
2.98
2.47
1.88
1.37
1.00
0.76
0.57
0.36
0.06
-0.33
-0.79
-1.30
-1.80
-2.29
-2.71
-3.01
-3.15
-3.08
-2.80
-2.36
-1.84
-1.36
-0.98
-0.74
-0.57
-0.39
-0.15
0.16
0.46
0.65
0.70
0.67
0.67
0.82
1.11
1.48
1.79
1.97
2.05
2.09
2.16
2.27
2.37
2.41
2.36
2.24
2.10
1.98
1.89
1.84
1.81
1.77
1.70
1.53
1.23
0.75
0.14
-0.51
-1.09
-1.51
-1.71
-1.72
-1.58
-1.32
-0.96
-0.52
-0.08
0.28
0.41
0.25
-0.17
-0.70
-1.14
-1.32
-1.20
-0.91
-0.64
-0.56
-0.72
-1.03
-1.33
-1.46
-1.38
-1.11
-0.74
-0.36
-0.02
0.23
0.34
0.26
-0.07
-0.61
-1.28
-1.92
-2.35
-2.47
-2.29
-1.90
-1.48
-1.21
-1.19
-1.42
-1.78
-2.12
-2.30
-2.26
-2.03
-1.71
-1.41
-1.18
-1.03
-0.92
-0.82
-0.73
-0.65
-0.57
-0.48
-0.35
-0.15
0.11
0.38
0.59
0.69
0.69
0.60
0.49
0.37
0.24
0.09
-0.09
-0.29
-0.50
-0.69
-0.89
-1.11
-1.37
-1.64
-1.87
-2.01
-2.02
-1.90
-1.70
-1.47
-1.22
-0.96
-0.68
-0.39
-0.10
0.19
0.52
0.92
1.36
1.76
2.00
2.00
1.75
1.35
0.98
0.81
0.93
1.30
1.74
2.07
2.15
1.97
1.65
1.35
1.22
1.30
1.51
1.73
1.86
1.89
1.86
1.85
1.84
1.79
1.61
1.26
0.78
0.26
-0.22
-0.61
-0.97
-1.35
-1.82
-2.38
-3.00
-3.62
-4.18
-4.64
-4.98
-5.22
-5.37
-5.47
-5.56
-5.66
-5.78
-5.88
-5.90
-5.76
-5.44
-4.91
-4.26
-3.57
-2.95
-2.41
-1.94
-1.46
-0.90
-0.30
0.29
0.75
1.02
1.13
1.20
1.39
1.77
2.31
2.85
3.23
3.35
3.20
2.89
2.56
2.29
2.11
1.99
1.86
1.74
1.65
1.64
1.73
1.89
2.05
2.14
2.14
2.03
1.87
1.69
1.47
1.18
0.77
0.27
-0.28
-0.76
-1.11
-1.29
-1.37
-1.45
-1.61
-1.91
-2.31
-2.74
-3.09
-3.25
-3.14
-2.76
-2.16
-1.49
-0.90
-0.51
-0.32
-0.28
-0.25
-0.15
0.06
0.33
0.56
0.72
0.80
0.84
0.89
0.95
0.99
0.97
0.84
0.61
0.35
0.11
-0.06
-0.11
-0.06
0.05
0.19
0.33
0.42
0.51
0.58
0.67
0.75
0.76
0.62
0.28
-0.24
-0.84
-1.34
-1.63
-1.64
-1.42
-1.11
-0.86
-0.76
-0.84
-1.08
-1.40
-1.75
-2.05
-2.26
-2.31
-2.18
-1.90
-1.50
-1.06
-0.60
-0.16
0.29
0.71
1.05
1.25
1.24
1.04
0.74
0.46
0.31
0.32
0.44
0.61
0.79
0.95
1.05
1.04
0.91
0.66
0.37
0.14
0.09
0.23
0.49
0.75
0.85
0.75
0.49
0.17
-0.12
-0.31
-0.41
-0.46
-0.53
-0.62
-0.76
-0.92
-1.08
-1.21
-1.34
-1.50
-1.70
-1.98
-2.33
-2.71
-3.05
-3.25
-3.24
-3.00
-2.57
-2.03
-1.45
-0.89
-0.38
0.03
0.29
0.35
0.21
-0.07
-0.33
-0.39
-0.15
0.36
0.98
1.50
1.79
1.85
1.79
1.72
1.69
1.65
1.50
1.20
0.82
0.49
0.38
0.48
0.67
0.74
0.57
0.18
-0.26
-0.50
-0.44
-0.13
0.19
0.31
0.12
-0.30
-0.79
-1.21
-1.51
-1.76
-2.05
-2.42
-2.80
-3.10
-3.20
-3.08
-2.80
-2.44
-2.09
-1.76
-1.42
-1.03
-0.58
-0.10
0.33
0.64
0.80
0.82
0.81
0.84
0.96
1.18
1.47
1.81
2.19
2.58
2.94
3.16
3.18
2.98
2.63
2.29
2.10
2.11
2.27
2.46
2.55
2.44
2.14
1.74
1.36
1.11
1.05
1.16
1.37
1.57
1.65
1.58
1.35
1.00
0.58
0.11
-0.38
-0.88
-1.35
-1.78
-2.17
-2.52
-2.86
-3.18
-3.44
-3.58
-3.55
-3.33
-2.92
-2.34
-1.63
-0.82
-0.01
0.72
1.28
1.60
1.73
1.76
1.80
1.91
2.11
2.34
2.59
2.85
3.14
3.45
3.74
3.94
4.00
3.89
3.66
3.37
3.08
2.82
2.60
2.44
2.35
2.35
2.44
2.60
2.74
2.78
2.66
2.37
1.94
1.48
1.10
0.88
0.80
0.80
0.76
0.60
0.32
-0.02
-0.30
-0.48
-0.58
-0.68
-0.85
-1.12
-1.42
-1.67
-1.83
-1.94
-2.11
-2.41
-2.83
-3.29
-3.62
-3.68
-3.49
-3.10
-2.65
-2.20
-1.75
-1.27
-0.72
-0.11
0.50
1.01
1.39
1.66
1.90
2.17
2.48
2.80
3.05
3.15
3.12
3.00
2.88
2.81
2.83
2.93
3.07
3.20
3.28
3.27
3.17
2.97
2.68
2.36
2.06
1.85
1.76
1.80
1.94
2.10
2.21
2.20
2.05
1.77
1.42
1.06
0.74
0.51
0.38
0.35
0.38
0.39
0.32
0.12
-0.15
-0.44
-0.67
-0.76
-0.72
-0.59
-0.45
-0.42
-0.59
-0.98
-1.56
-2.23
-2.87
-3.40
-3.78
-4.03
-4.19
-4.24
-4.18
-4.00
-3.69
-3.32
-2.94
-2.58
-2.22
-1.83
-1.36
-0.82
-0.28
0.22
0.62
0.93
1.16
1.38
1.61
1.85
2.11
2.39
2.66
2.92
3.10
3.17
3.11
2.96
2.80
2.70
2.71
2.81
2.94
2.98
2.86
2.58
2.19
1.77
1.44
1.24
1.19
1.24
1.33
1.38
1.33
1.19
0.96
0.69
0.41
0.11
-0.19
-0.48
-0.72
-0.85
-0.81
-0.62
-0.34
-0.08
0.04
-0.08
-0.42
-0.92
-1.45
-1.89
-2.18
-2.36
-2.50
-2.69
-2.99
-3.37
-3.80
-4.20
-4.51
-4.65
-4.59
-4.28
-3.74
-3.06
-2.33
-1.69
-1.20
-0.86
-0.63
-0.42
-0.17
0.17
0.57
0.94
1.22
1.35
1.35
1.27
1.19
1.16
1.20
1.33
1.55
1.87
2.28
2.72
3.10
3.30
3.24
2.91
2.43
1.97
1.64
1.52
1.57
1.71
1.86
1.98
2.05
2.05
1.95
1.76
1.50
1.24
1.04
0.93
0.86
0.75
0.53
0.18
-0.23
-0.58
-0.77
-0.78
-0.70
-0.63
-0.68
-0.88
-1.18
-1.53
-1.85
-2.12
-2.30
-2.41
-2.45
-2.47
-2.52
-2.67
-2.96
-3.39
-3.86
-4.25
-4.47
-4.46
-4.25
-3.93
-3.55
-3.13
-2.64
-2.05
-1.35
-0.58
0.17
0.81
1.28
1.59
1.77
1.90
2.06
2.29
2.54
2.71
2.69
2.43
2.00
1.55
1.26
1.25
1.48
1.82
2.10
2.25
2.29
2.32
2.41
2.60
2.82
2.97
3.02
2.97
2.87
2.77
2.65
2.48
2.19
1.77
1.22
0.60
0.00
-0.47
-0.76
-0.85
-0.82
-0.79
-0.89
-1.18
-1.65
-2.21
-2.72
-3.13
-3.36
-3.43
-3.36
-3.18
-2.96
-2.78
-2.72
-2.82
-3.10
-3.51
-3.97
-4.40
-4.71
-4.88
-4.85
-4.65
-4.29
-3.83
-3.31
-2.77
-2.25
-1.78
-1.38
-1.06
-0.80
-0.57
-0.30
0.04
0.47
0.98
1.54
2.07
2.47
2.64
2.51
2.12
1.61
1.19
1.06
1.26
1.73
2.26
2.64
2.79
2.69
2.42
2.07
1.70
1.35
1.06
0.88
0.85
0.96
1.16
1.35
1.46
1.45
1.32
1.10
0.83
0.57
0.35
0.19
0.09
0.01
-0.08
-0.19
-0.31
-0.38
-0.39
-0.34
-0.32
-0.41
-0.64
-1.00
-1.38
-1.69
-1.88
-2.01
-2.17
-2.43
-2.85
-3.37
-3.89
-4.26
-4.37
-4.17
-3.70
-3.09
-2.48
-1.99
-1.70
-1.54
-1.44
-1.27
-1.02
-0.72
-0.47
-0.32
-0.26
-0.18
0.03
0.40
0.87
1.30
1.58
1.67
1.64
1.62
1.72
1.94
2.24
2.51
2.68
2.71
2.62
2.45
2.24
2.01
1.83
1.72
1.69
1.70
1.70
1.61
1.41
1.13
0.83
0.61
0.50
0.52
0.64
0.80
0.92
0.97
0.89
0.69
0.36
-0.06
-0.56
-1.06
-1.51
-1.84
-2.04
-2.13
-2.19
-2.31
-2.52
-2.79
-3.02
-3.15
-3.16
-3.12
-3.12
-3.23
-3.42
-3.59
-3.61
-3.41
-3.01
-2.51
-2.04
-1.71
-1.51
-1.38
-1.22
-0.97
-0.61
-0.15
0.36
0.89
1.40
1.84
2.13
2.25
2.22
2.09
1.95
1.88
1.90
1.97
2.05
2.09
2.10
2.12
2.19
2.32
2.48
2.59
2.60
2.51
2.33
2.09
1.82
1.50
1.14
0.75
0.43
0.25
0.30
0.54
0.85
1.08
1.09
0.87
0.49
0.06
-0.33
-0.62
-0.83
-0.96
-1.01
-0.98
-0.91
-0.86
-0.92
-1.14
-1.52
-1.99
-2.44
-2.80
-3.06
-3.27
-3.47
-3.66
-3.82
-3.91
-3.91
-3.83
-3.68
-3.48
-3.21
-2.82
-2.31
-1.69
-1.03
-0.41
0.11
0.50
0.78
0.99
1.18
1.39
1.59
1.76
1.83
1.79
1.69
1.63
1.72
1.99
2.39
2.76
2.96
2.90
2.63
2.28
2.00
1.86
1.79
1.71
1.51
1.19
0.83
0.55
0.41
0.38
0.38
0.33
0.21
0.06
-0.06
-0.10
-0.10
-0.12
-0.22
-0.40
-0.62
-0.86
-1.11
-1.42
-1.81
-2.29
-2.81
-3.25
-3.52
-3.58
-3.49
-3.34
-3.25
-3.26
-3.32
-3.34
-3.18
-2.78
-2.17
-1.48
-0.83
-0.34
0.02
0.29
0.58
0.94
1.37
1.83
2.25
2.59
2.82
2.90
2.84
2.67
2.45
2.26
2.17
2.22
2.32
2.41
2.41
2.31
2.17
2.08
2.08
2.16
2.25
2.28
2.20
2.03
1.79
1.53
1.27
1.02
0.79
0.60
0.46
0.39
0.36
0.32
0.21
-0.01
-0.34
-0.75
-1.20
-1.65
-2.07
-2.47
-2.80
-3.05
-3.19
-3.22
-3.20
-3.18
-3.24
-3.38
-3.54
-3.63
-3.56
-3.28
-2.81
-2.20
-1.48
-0.71
0.08
0.78
1.33
1.65
1.78
1.79
1.83
1.98
2.23
2.51
2.73
2.86
2.94
3.01
3.09
3.09
2.92
2.53
2.00
1.48
1.16
1.12
1.31
1.57
1.76
1.83
1.77
1.64
1.49
1.30
1.08
0.84
0.63
0.54
0.60
0.75
0.89
0.86
0.59
0.12
-0.41
-0.88
-1.18
-1.33
-1.44
-1.62
-1.94
-2.36
-2.80
-3.16
-3.42
-3.61
-3.77
-3.89
-3.92
-3.76
-3.40
-2.89
-2.33
-1.82
-1.38
-0.96
-0.50
0.06
0.68
1.29
1.82
2.22
2.46
2.51
2.40
2.14
1.81
1.52
1.38
1.45
1.72
2.10
2.45
2.69
2.76
2.69
2.51
2.28
2.03
1.78
1.57
1.40
1.30
1.25
1.21
1.13
0.99
0.79
0.60
0.46
0.39
0.39
0.38
0.33
0.19
-0.05
-0.38
-0.77
-1.16
-1.45
-1.56
-1.47
-1.26
-1.08
-1.08
-1.36
-1.85
-2.42
-2.91
-3.20
-3.28
-3.21
-3.08
-2.96
-2.86
-2.78
-2.66
-2.47
-2.18
-1.80
-1.38
-0.95
-0.56
-0.25
-0.00
0.22
0.43
0.65
0.87
1.10
1.33
1.59
1.90
2.21
2.46
2.55
2.43
2.13
1.77
1.51
1.43
1.51
1.65
1.72
1.66
1.52
1.41
1.44
1.62
1.85
2.02
2.06
1.95
1.77
1.60
1.45
1.31
1.12
0.84
0.50
0.15
-0.12
-0.28
-0.33
-0.34
-0.36
-0.44
-0.59
-0.81
-1.09
-1.44
-1.85
-2.30
-2.74
-3.05
-3.16
-3.03
-2.72
-2.34
-2.02
-1.82
-1.73
-1.66
-1.49
-1.18
-0.77
-0.35
-0.03
0.17
0.29
0.43
0.65
0.93
1.21
1.39
1.45
1.47
1.53
1.72
2.02
2.35
2.60
2.70
2.65
2.49
2.26
2.00
1.72
1.44
1.19
1.05
1.05
1.18
1.39
1.57
1.65
1.59
1.41
1.18
0.97
0.80
0.64
0.47
0.27
0.08
-0.05
-0.08
-0.04
0.01
-0.03
-0.21
-0.51
-0.90
-1.29
-1.64
-1.96
-2.26
-2.56
-2.85
-3.07
-3.14
-3.01
-2.67
-2.20
-1.69
-1.24
-0.89
-0.65
-0.46
-0.28
-0.10
0.05
0.12
0.09
-0.01
-0.08
-0.04
0.17
0.53
0.96
1.34
1.60
1.67
1.62
1.50
1.41
1.38
1.42
1.48
1.49
1.42
1.26
1.04
0.81
0.58
0.36
0.17
-0.01
-0.18
-0.33
-0.43
-0.50
-0.54
-0.62
-0.76
-1.01
-1.34
-1.72
-2.07
-2.35
-2.51
-2.60
-2.66
-2.74
-2.89
-3.04
-3.14
-3.09
-2.87
-2.50
-2.08
-1.72
-1.49
-1.36
-1.23
-1.01
-0.62
-0.11
0.40
0.77
0.96
0.99
0.97
1.04
1.22
1.44
1.57
1.48
1.17
0.77
0.47
0.42
0.69
1.16
1.66
2.00
2.08
1.87
1.44
0.90
0.34
-0.14
-0.49
-0.69
-0.74
-0.69
-0.56
-0.39
-0.20
-0.03
0.01
-0.18
-0.65
-1.37
-2.20
-2.96
-3.54
-3.91
-4.14
-4.28
-4.35
-4.27
-3.94
-3.34
-2.52
-1.64
-0.83
-0.16
0.37
0.77
1.04
1.16
1.13
1.01
0.90
0.93
1.19
1.65
2.18
2.65
2.92
2.96
2.83
2.59
2.33
2.10
1.92
1.82
1.80
1.87
1.95
1.97
1.83
1.51
1.08
0.64
0.32
0.21
0.26
0.37
0.43
0.40
0.29
0.18
0.12
0.11
0.10
0.01
-0.20
-0.51
-0.89
-1.32
-1.77
-2.23
-2.68
-3.06
-3.33
-3.45
-3.46
-3.41
-3.36
-3.30
-3.21
-3.00
-2.64
-2.12
-1.49
-0.81
-0.16
0.39
0.83
1.16
1.43
1.69
1.99
2.34
2.69
2.96
3.06
3.00
2.81
2.60
2.48
2.50
2.66
2.92
3.22
3.52
3.76
3.89
3.85
3.60
3.16
2.57
1.96
1.42
1.04
0.83
0.71
0.56
0.29
-0.17
-0.75
-1.35
-1.84
-2.16
-2.32
-2.39
-2.47
-2.64
-2.88
-3.16
-3.44
-3.67
-3.88
-4.08
-4.29
-4.47
-4.60
-4.64
-4.57
-4.42
-4.22
-3.96
-3.64
-3.21
-2.66
-2.04
-1.39
-0.80
-0.32
0.02
0.24
0.39
0.56
0.80
1.14
1.56
2.02
2.46
2.82
3.09
3.29
3.45
3.57
3.64
3.63
3.57
3.48
3.42
3.39
3.37
3.33
3.22
3.06
2.86
2.66
2.46
2.26
2.05
1.85
1.69
1.60
1.58
1.57
1.52
1.37
1.13
0.85
0.61
0.43
0.31
0.18
-0.03
-0.32
-0.68
-1.02
-1.29
-1.47
-1.61
-1.76
-1.99
-2.30
-2.67
-3.05
-3.37
-3.58
-3.67
-3.61
-3.42
-3.13
-2.79
-2.42
-2.06
-1.70
-1.35
-1.02
-0.72
-0.43
-0.13
0.23
0.64
1.06
1.40
1.56
1.51
1.31
1.06
0.86
0.79
0.84
0.97
1.16
1.37
1.62
1.88
2.12
2.28
2.29
2.16
1.94
1.77
1.72
1.79
1.89
1.88
1.67
1.29
0.88
0.61
0.59
0.77
1.00
1.12
1.04
0.81
0.57
0.45
0.48
0.61
0.72
0.70
0.53
0.23
-0.11
-0.40
-0.61
-0.74
-0.84
-0.97
-1.17
-1.44
-1.70
-1.92
-2.08
-2.26
-2.55
-3.03
-3.67
-4.32
-4.81
-4.96
-4.74
-4.20
-3.48
-2.70
-1.94
-1.25
-0.62
-0.06
0.42
0.78
1.00
1.11
1.14
1.15
1.20
1.35
1.59
1.90
2.19
2.37
2.42
2.33
2.19
2.05
1.96
1.92
1.92
1.95
2.01
2.13
2.27
2.40
2.43
2.33
2.12
1.84
1.61
1.44
1.35
1.24
1.02
0.65
0.17
-0.33
-0.76
-1.02
-1.10
-1.02
-0.86
-0.71
-0.64
-0.70
-0.88
-1.16
-1.48
-1.81
-2.13
-2.43
-2.71
-2.92
-3.04
-3.05
-2.97
-2.86
-2.79
-2.80
-2.86
-2.90
-2.82
-2.56
-2.12
-1.57
-1.01
-0.53
-0.16
0.13
0.41
0.74
1.15
1.61
2.08
2.49
2.78
2.92
2.91
2.74
2.44
2.07
1.72
1.49
1.43
1.53
1.69
1.82
1.80
1.63
1.35
1.04
0.81
0.69
0.71
0.81
0.92
0.96
0.87
0.70
0.49
0.32
0.22
0.13
-0.01
-0.30
-0.71
-1.15
-1.48
-1.62
-1.58
-1.48
-1.46
-1.58
-1.82
-2.10
-2.35
-2.56
-2.77
-3.03
-3.35
-3.72
-4.05
-4.27
-4.29
-4.10
-3.71
-3.16
-2.52
-1.85
-1.21
-0.64
-0.13
0.32
0.74
1.15
1.56
1.94
2.28
2.53
2.67
2.71
2.66
2.54
2.39
2.20
2.00
1.77
1.57
1.40
1.27
1.16
0.99
0.74
0.38
-0.03
-0.39
-0.62
-0.69
-0.59
-0.40
-0.18
0.03
0.22
0.41
0.59
0.73
0.76
0.64
0.37
0.04
-0.24
-0.41
-0.46
-0.50
-0.63
-0.95
-1.44
-2.03
-2.60
-3.08
-3.45
-3.72
-3.90
-3.99
-3.95
-3.77
-3.47
-3.10
-2.72
-2.35
-1.97
-1.57
-1.12
-0.63
-0.10
0.47
1.07
1.67
2.19
2.56
2.73
2.68
2.49
2.23
1.98
1.78
1.66
1.64
1.74
1.97
2.27
2.55
2.74
2.77
2.63
2.36
2.04
1.70
1.38
1.10
0.91
0.81
0.82
0.90
0.97
0.97
0.87
0.67
0.43
0.19
-0.01
-0.13
-0.18
-0.13
-0.01
0.15
0.26
0.20
-0.12
-0.73
-1.57
-2.48
-3.30
-3.94
-4.39
-4.71
-4.95
-5.14
-5.20
-5.06
-4.66
-4.03
-3.30
-2.57
-1.94
-1.40
-0.91
-0.42
0.10
0.63
1.13
1.54
1.85
2.03
2.12
2.14
2.13
2.13
2.18
2.30
2.51
2.78
3.06
3.28
3.35
3.23
2.93
2.52
2.15
1.92
1.94
2.16
2.48
2.73
2.75
2.47
1.95
1.32
0.75
0.38
0.23
0.27
0.40
0.53
0.64
0.70
0.70
0.62
0.42
0.07
-0.41
-0.94
-1.43
-1.83
-2.13
-2.34
-2.52
-2.69
-2.88
-3.09
-3.33
-3.59
-3.85
-4.07
-4.17
-4.12
-3.91
-3.55
-3.06
-2.48
-1.82
-1.11
-0.44
0.13
0.57
0.90
1.21
1.57
1.96
2.31
2.52
2.53
2.40
2.25
2.17
2.20
2.25
2.23
2.06
1.81
1.63
1.64
1.89
2.30
2.68
2.84
2.71
2.33
1.87
1.48
1.27
1.23
1.29
1.36
1.37
1.34
1.28
1.21
1.11
0.95
0.70
0.36
0.01
-0.26
-0.37
-0.33
-0.18
-0.05
0.00
-0.09
-0.29
-0.56
-0.86
-1.17
-1.49
-1.82
-2.13
-2.34
-2.41
-2.37
-2.32
-2.40
-2.71
-3.23
-3.84
-4.33
-4.56
-4.48
-4.14
-3.63
-3.02
-2.35
-1.66
-0.97
-0.36
0.11
0.43
0.64
0.80
0.94
1.08
1.20
1.30
1.41
1.56
1.80
2.10
2.43
2.71
2.95
3.12
3.24
3.31
3.30
3.18
2.94
2.61
2.23
1.87
1.57
1.34
1.18
1.11
1.11
1.16
1.23
1.26
1.21
1.05
0.81
0.55
0.38
0.35
0.42
0.51
0.49
0.27
-0.13
-0.62
-1.05
-1.31
-1.39
-1.39
-1.43
-1.58
-1.83
-2.11
-2.35
-2.51
-2.67
-2.86
-3.08
-3.25
-3.27
-3.06
-2.67
-2.20
-1.81
-1.58
-1.50
-1.48
-1.39
-1.16
-0.78
-0.29
0.21
0.63
0.90
0.99
0.92
0.78
0.67
0.69
0.90
1.25
1.65
1.97
2.16
2.19
2.11
2.01
1.97
2.01
2.13
2.32
2.51
2.67
2.77
2.79
2.71
2.51
2.21
1.84
1.46
1.15
0.97
0.90
0.90
0.85
0.68
0.32
-0.15
-0.61
-0.91
-0.96
-0.77
-0.45
-0.14
0.03
0.01
-0.20
-0.54
-0.99
-1.52
-2.09
-2.63
-3.06
-3.30
-3.31
-3.15
-2.94
-2.78
-2.76
-2.86
-3.00
-3.07
-2.99
-2.77
-2.43
-2.05
-1.67
-1.29
-0.89
-0.43
0.09
0.62
1.08
1.39
1.52
1.48
1.35
1.19
1.05
0.97
0.96
1.03
1.17
1.40
1.66
1.96
2.22
2.42
2.51
2.47
2.28
1.99
1.66
1.36
1.13
0.99
0.88
0.72
0.46
0.11
-0.24
-0.50
-0.63
-0.63
-0.58
-0.55
-0.61
-0.78
-1.05
-1.39
-1.78
-2.21
-2.62
-2.96
-3.17
-3.23
-3.20
-3.16
-3.20
-3.31
-3.45
-3.47
-3.30
-2.88
-2.26
-1.55
-0.89
-0.38
-0.06
0.11
0.17
0.21
0.26
0.37
0.52
0.70
0.91
1.14
1.37
1.57
1.68
1.68
1.55
1.36
1.19
1.15
1.28
1.54
1.85
2.09
2.21
2.21
2.10
1.92
1.66
1.32
0.92
0.55
0.32
0.28
0.41
0.60
0.68
0.59
0.30
-0.06
-0.41
-0.67
-0.85
-1.00
-1.19
-1.40
-1.62
-1.82
-1.97
-2.10
-2.24
-2.42
-2.66
-2.92
-3.17
-3.34
-3.39
-3.30
-3.08
-2.79
-2.46
-2.12
-1.76
-1.36
-0.92
-0.41
0.13
0.70
1.24
1.72
2.10
2.33
2.39
2.27
2.03
1.78
1.62
1.62
1.77
1.97
2.12
2.17
2.11
2.01
1.93
1.90
1.88
1.84
1.74
1.64
1.60
1.67
1.84
2.04
2.17
2.16
1.99
1.72
1.44
1.24
1.15
1.18
1.22
1.21
1.05
0.74
0.32
-0.13
-0.52
-0.86
-1.17
-1.50
-1.87
-2.26
-2.63
-2.92
-3.12
-3.24
-3.34
-3.42
-3.48
-3.45
-3.29
-2.96
-2.49
-1.93
-1.39
-0.93
-0.63
-0.47
-0.43
-0.40
-0.30
-0.04
0.40
0.96
1.56
2.09
2.46
2.67
2.73
2.69
2.59
2.44
2.26
2.03
1.81
1.64
1.55
1.56
1.64
1.73
1.83
1.94
2.04
2.13
2.18
2.15
2.02
1.81
1.57
1.35
1.17
1.02
0.87
0.70
0.49
0.26
0.07
-0.03
0.01
0.17
0.36
0.49
0.47
0.25
-0.14
-0.63
-1.12
-1.53
-1.83
-2.01
-2.10
-2.14
-2.15
-2.19
-2.27
-2.43
-2.66
-2.96
-3.25
-3.45
-3.47
-3.24
-2.74
-2.02
-1.19
-0.38
0.26
0.67
0.81
0.73
0.56
0.45
0.51
0.80
1.26
1.78
2.20
2.41
2.39
2.18
1.90
1.66
1.53
1.52
1.62
1.76
1.89
1.97
1.97
1.90
1.78
1.64
1.51
1.42
1.34
1.22
1.06
0.84
0.62
0.46
0.40
0.42
0.51
0.61
0.70
0.77
0.80
0.76
0.57
0.22
-0.24
-0.71
-1.06
-1.20
-1.17
-1.06
-0.98
-1.02
-1.20
-1.47
-1.79
-2.09
-2.35
-2.57
-2.75
-2.88
-2.97
-3.01
-3.01
-2.94
-2.77
-2.47
-2.02
-1.46
-0.85
-0.30
0.11
0.35
0.42
0.40
0.38
0.43
0.59
0.84
1.15
1.43
1.60
1.59
1.42
1.13
0.85
0.72
0.81
1.12
1.55
1.97
2.27
2.38
2.32
2.11
1.83
1.52
1.25
1.05
0.97
1.03
1.18
1.35
1.46
1.46
1.36
1.22
1.11
1.07
1.07
1.03
0.88
0.60
0.22
-0.18
-0.54
-0.80
-0.98
-1.09
-1.17
-1.27
-1.40
-1.57
-1.81
-2.10
-2.44
-2.82
-3.20
-3.57
-3.88
-4.09
-4.13
-3.97
-3.59
-3.04
-2.41
-1.78
-1.23
-0.78
-0.40
-0.03
0.35
0.77
1.19
1.55
1.82
1.97
2.03
2.03
2.02
2.04
2.12
2.24
2.39
2.55
2.70
2.84
2.98
3.10
3.17
3.15
2.98
2.65
2.18
1.63
1.06
0.50
-0.04
-0.61
-1.21
-1.84
-2.46
-2.99
-3.36
-3.53
-3.52
-3.41
-3.32
-3.35
-3.49
-3.69
-3.81
-3.75
-3.50
-3.13
-2.75
-2.44
-2.19
-1.98
-1.76
-1.57
-1.52
-1.70
-2.18
-2.86
-3.55
-4.03
-4.13
-3.85
-3.28
-2.58
-1.88
-1.27
-0.74
-0.29
0.07
0.33
0.47
0.47
0.40
0.33
0.37
0.59
1.00
1.56
2.16
2.69
3.07
3.25
3.26
3.18
3.09
3.03
2.99
2.94
2.86
2.76
2.70
2.71
2.77
2.83
2.79
2.61
2.30
1.91
1.50
1.12
0.79
0.51
0.28
0.11
-0.01
-0.11
-0.23
-0.40
-0.64
-0.89
-1.13
-1.30
-1.39
-1.45
-1.51
-1.60
-1.74
-1.91
-2.07
-2.22
-2.35
-2.49
-2.66
-2.87
-3.10
-3.30
-3.45
-3.47
-3.31
-2.93
-2.30
-1.48
-0.54
0.36
1.07
1.48
1.53
1.30
0.91
0.51
0.22
0.10
0.16
0.36
0.68
1.05
1.42
1.71
1.89
1.94
1.89
1.79
1.70
1.68
1.72
1.79
1.83
1.78
1.61
1.34
1.02
0.70
0.44
0.25
0.12
0.04
0.00
-0.00
0.02
0.04
0.00
-0.12
-0.33
-0.58
-0.80
-0.91
-0.92
-0.91
-0.99
-1.27
-1.79
-2.48
-3.20
-3.78
-4.14
-4.26
-4.21
-4.07
-3.89
-3.65
-3.33
-2.87
-2.29
-1.66
-1.07
-0.59
-0.22
0.07
0.37
0.69
1.03
1.34
1.58
1.75
1.88
2.06
2.32
2.64
2.94
3.12
3.12
2.95
2.67
2.37
2.11
1.91
1.75
1.64
1.60
1.63
1.73
1.81
1.81
1.67
1.40
1.07
0.81
0.68
0.71
0.86
1.01
1.07
0.97
0.73
0.39
0.02
-0.33
-0.65
-0.95
-1.26
-1.57
-1.87
-2.17
-2.45
-2.74
-3.05
-3.41
-3.78
-4.09
-4.23
-4.10
-3.64
-2.88
-1.98
-1.10
-0.46
-0.11
-0.02
-0.01
0.12
0.49
1.07
1.70
2.19
2.40
2.33
2.10
1.88
1.79
1.86
2.02
2.16
2.21
2.21
2.24
2.37
2.61
2.88
3.04
2.99
2.72
2.34
1.99
1.79
1.75
1.79
1.82
1.73
1.51
1.21
0.92
0.71
0.62
0.62
0.65
0.67
0.66
0.61
0.53
0.41
0.20
-0.09
-0.46
-0.82
-1.09
-1.24
-1.27
-1.24
-1.24
-1.32
-1.54
-1.87
-2.27
-2.71
-3.12
-3.44
-3.61
-3.59
-3.38
-3.00
-2.47
-1.83
-1.15
-0.52
-0.04
0.21
0.26
0.21
0.23
0.42
0.77
1.16
1.43
1.51
1.41
1.26
1.23
1.36
1.63
1.93
2.13
2.21
2.22
2.21
2.24
2.28
2.25
2.08
1.79
1.45
1.20
1.12
1.22
1.40
1.54
1.54
1.40
1.21
1.08
1.04
1.07
1.09
1.04
0.91
0.73
0.59
0.50
0.44
0.37
0.22
0.04
-0.15
-0.29
-0.37
-0.45
-0.61
-0.91
-1.36
-1.90
-2.44
-2.90
-3.25
-3.50
-3.71
-3.93
-4.17
-4.38
-4.52
-4.52
-4.35
-4.02
-3.57
-3.03
-2.47
-1.89
-1.31
-0.72
-0.17
0.30
0.65
0.87
1.01
1.16
1.36
1.63
1.94
2.21
2.34
2.31
2.13
1.90
1.70
1.64
1.72
1.91
2.13
2.28
2.32
2.25
2.13
2.03
2.02
2.11
2.23
2.36
2.44
2.48
2.50
2.47
2.34
2.06
1.60
0.99
0.35
-0.21
-0.60
-0.79
-0.84
-0.81
-0.76
-0.69
-0.63
-0.57
-0.54
-0.57
-0.69
-0.90
-1.22
-1.63
-2.07
-2.52
-2.89
-3.18
-3.38
-3.57
-3.80
-4.07
-4.32
-4.42
-4.28
-3.85
-3.21
-2.51
-1.89
-1.42
-1.09
-0.79
-0.42
0.04
0.56
1.01
1.30
1.38
1.32
1.24
1.29
1.50
1.85
2.22
2.51
2.69
2.78
2.80
2.77
2.65
2.40
2.01
1.59
1.27
1.22
1.45
1.88
2.32
2.59
2.59
2.34
1.92
1.45
1.04
0.75
0.61
0.60
0.65
0.66
0.57
0.36
0.06
-0.23
-0.44
-0.56
-0.65
-0.79
-1.00
-1.30
-1.63
-1.92
-2.18
-2.39
-2.57
-2.71
-2.80
-2.85
-2.93
-3.11
-3.44
-3.86
-4.23
-4.36
-4.13
-3.56
-2.80
-2.04
-1.47
-1.14
-1.00
-0.90
-0.69
-0.30
0.26
0.88
1.44
1.84
2.04
2.08
2.04
1.99
2.02
2.12
2.27
2.38
2.39
2.25
1.99
1.67
1.40
1.27
1.32
1.51
1.78
2.01
2.11
2.04
1.83
1.54
1.30
1.19
1.23
1.37
1.49
1.49
1.37
1.21
1.13
1.21
1.36
1.41
1.15
0.53
-0.30
-1.09
-1.58
-1.66
-1.42
-1.09
-0.88
-0.90
-1.15
-1.52
-1.95
-2.38
-2.83
-3.31
-3.80
-4.24
-4.51
-4.56
-4.37
-4.03
-3.62
-3.22
-2.86
-2.50
-2.08
-1.58
-1.02
-0.48
0.01
0.42
0.78
1.11
1.40
1.62
1.75
1.79
1.81
1.88
2.03
2.20
2.32
2.34
2.27
2.19
2.18
2.27
2.42
2.54
2.57
2.51
2.40
2.27
2.13
1.95
1.72
1.48
1.30
1.25
1.35
1.50
1.60
1.54
1.29
0.88
0.41
-0.04
-0.43
-0.75
-0.97
-1.10
-1.11
-1.05
-1.00
-1.04
-1.25
-1.61
-2.03
-2.39
-2.57
-2.54
-2.39
-2.21
-2.11
-2.17
-2.37
-2.67
-3.02
-3.35
-3.57
-3.60
-3.36
-2.83
-2.03
-1.06
-0.06
0.80
1.43
1.79
1.92
1.87
1.75
1.62
1.52
1.46
1.41
1.38
1.36
1.37
1.41
1.53
1.71
1.94
2.19
2.38
2.46
2.35
2.08
1.73
1.43
1.31
1.40
1.63
1.84
1.89
1.72
1.36
0.94
0.58
0.34
0.22
0.20
0.24
0.33
0.45
0.57
0.60
0.46
0.13
-0.37
-0.91
-1.36
-1.67
-1.85
-2.01
-2.27
-2.68
-3.18
-3.66
-3.98
-4.08
-3.98
-3.78
-3.58
-3.42
-3.30
-3.18
-3.04
-2.83
-2.54
-2.11
-1.52
-0.81
-0.05
0.64
1.13
1.39
1.47
1.51
1.62
1.85
2.17
2.46
2.60
2.57
2.44
2.32
2.31
2.42
2.60
2.77
2.83
2.75
2.54
2.24
1.91
1.58
1.32
1.16
1.08
1.05
1.03
0.95
0.81
0.66
0.52
0.46
0.44
0.42
0.33
0.15
-0.11
-0.40
-0.65
-0.82
-0.93
-1.02
-1.17
-1.42
-1.76
-2.12
-2.45
-2.67
-2.79
-2.86
-2.95
-3.11
-3.37
-3.66
-3.91
-4.04
-4.02
-3.82
-3.44
-2.89
-2.17
-1.36
-0.56
0.11
0.56
0.79
0.89
1.00
1.23
1.62
2.09
2.51
2.78
2.88
2.83
2.68
2.48
2.23
1.92
1.58
1.26
1.06
1.01
1.11
1.27
1.39
1.39
1.26
1.06
0.89
0.79
0.74
0.68
0.51
0.22
-0.16
-0.52
-0.74
-0.78
-0.69
-0.58
-0.56
-0.71
-0.96
-1.18
-1.25
-1.09
-0.74
-0.34
-0.05
0.05
-0.03
-0.21
-0.35
-0.42
-0.47
-0.59
-0.88
-1.37
-1.98
-2.55
-2.94
-3.07
-2.95
-2.64
-2.26
-1.86
-1.48
-1.10
-0.71
-0.29
0.18
0.66
1.13
1.53
1.86
2.13
2.40
2.69
3.02
3.33
3.54
3.56
3.38
3.05
2.69
2.41
2.28
2.33
2.52
2.76
3.00
3.19
3.30
3.32
3.21
2.99
2.71
2.43
2.23
2.10
2.02
1.91
1.68
1.32
0.89
0.49
0.18
-0.00
-0.08
-0.11
-0.13
-0.16
-0.20
-0.29
-0.50
-0.86
-1.35
-1.90
-2.39
-2.74
-2.91
-2.97
-3.00
-3.08
-3.22
-3.41
-3.59
-3.74
-3.86
-3.96
-4.09
-4.21
-4.25
-4.10
-3.69
-3.01
-2.17
-1.32
-0.58
-0.00
0.45
0.85
1.22
1.52
1.67
1.63
1.46
1.28
1.25
1.42
1.73
2.07
2.30
2.36
2.30
2.21
2.17
2.18
2.18
2.09
1.88
1.57
1.25
1.02
0.93
0.99
1.15
1.34
1.48
1.55
1.55
1.48
1.39
1.29
1.20
1.07
0.86
0.53
0.09
-0.39
-0.78
-1.00
-1.04
-0.98
-0.91
-0.93
-1.07
-1.25
-1.42
-1.53
-1.59
-1.63
-1.69
-1.81
-2.01
-2.32
-2.72
-3.17
-3.58
-3.82
-3.81
-3.53
-3.04
-2.42
-1.78
-1.19
-0.67
-0.26
0.02
0.16
0.20
0.18
0.17
0.26
0.47
0.78
1.15
1.51
1.77
1.91
1.90
1.80
1.69
1.61
1.61
1.66
1.70
1.71
1.67
1.58
1.46
1.29
1.06
0.81
0.58
0.46
0.51
0.71
0.92
1.03
0.96
0.71
0.41
0.16
0.04
0.02
0.04
0.00
-0.11
-0.30
-0.55
-0.85
-1.20
-1.60
-2.02
-2.44
-2.82
-3.16
-3.45
-3.67
-3.80
-3.81
-3.69
-3.46
-3.17
-2.83
-2.43
-1.93
-1.30
-0.57
0.18
0.82
1.21
1.30
1.16
0.93
0.81
0.94
1.34
1.91
2.50
2.96
3.20
3.18
2.95
2.54
2.05
1.58
1.22
1.09
1.21
1.52
1.89
2.17
2.28
2.22
2.05
1.87
1.73
1.64
1.59
1.59
1.61
1.61
1.52
1.29
0.92
0.50
0.16
0.02
0.10
0.31
0.46
0.41
0.09
-0.46
-1.09
-1.68
-2.12
-2.42
-2.64
-2.85
-3.07
-3.29
-3.49
-3.65
-3.76
-3.85
-3.92
-3.94
-3.88
-3.66
-3.25
-2.67
-1.98
-1.31
-0.78
-0.49
-0.46
-0.61
-0.78
-0.80
-0.56
-0.10
0.46
0.91
1.17
1.23
1.22
1.29
1.51
1.85
2.15
2.30
2.24
2.04
1.84
1.78
1.91
2.19
2.50
2.71
2.76
2.69
2.58
2.56
2.64
2.75
2.75
2.51
1.98
1.24
0.48
-0.12
-0.41
-0.39
-0.20
0.00
0.07
-0.04
-0.27
-0.54
-0.75
-0.86
-0.93
-1.03
-1.22
-1.46
-1.70
-1.88
-1.99
-2.09
-2.29
-2.65
-3.10
-3.53
-3.82
-3.90
-3.80
-3.59
-3.34
-3.04
-2.68
-2.19
-1.59
-0.91
-0.26
0.30
0.72
1.00
1.15
1.19
1.14
1.03
0.89
0.78
0.74
0.83
1.07
1.43
1.80
2.07
2.16
2.06
1.84
1.62
1.50
1.52
1.64
1.78
1.87
1.87
1.79
1.66
1.52
1.39
1.31
1.30
1.36
1.44
1.49
1.42
1.21
0.87
0.47
0.07
-0.29
-0.60
-0.92
-1.25
-1.57
-1.82
-1.95
-1.97
-1.95
-2.01
-2.25
-2.69
-3.26
-3.78
-4.07
-4.02
-3.64
-3.01
-2.31
-1.67
-1.19
-0.87
-0.67
-0.54
-0.39
-0.16
0.20
0.69
1.29
1.92
2.46
2.79
2.83
2.59
2.19
1.84
1.74
1.97
2.47
3.01
3.33
3.26
2.78
2.07
1.36
0.85
0.64
0.69
0.89
1.11
1.27
1.32
1.23
1.06
0.85
0.67
0.56
0.54
0.55
0.53
0.43
0.25
0.02
-0.21
-0.42
-0.61
-0.79
-0.96
-1.14
-1.33
-1.54
-1.75
-1.95
-2.11
-2.20
-2.23
-2.28
-2.42
-2.69
-3.07
-3.44
-3.64
-3.58
-3.24
-2.72
-2.16
-1.66
-1.27
-0.93
-0.57
-0.15
0.30
0.71
0.99
1.10
1.07
1.00
0.98
1.08
1.30
1.60
1.89
2.11
2.19
2.14
1.97
1.70
1.39
1.08
0.81
0.61
0.52
0.53
0.61
0.73
0.86
0.97
1.08
1.22
1.40
1.60
1.75
1.76
1.56
1.17
0.69
0.27
0.03
-0.01
0.08
0.15
0.08
-0.15
-0.46
-0.72
-0.88
-0.96
-1.07
-1.27
-1.54
-1.75
-1.81
-1.70
-1.51
-1.42
-1.57
-1.95
-2.46
-2.92
-3.19
-3.22
-3.05
-2.73
-2.30
-1.78
-1.23
-0.68
-0.20
0.21
0.60
1.01
1.47
1.92
2.27
2.42
2.36
2.12
1.81
1.52
1.32
1.22
1.21
1.28
1.40
1.57
1.75
1.91
2.06
2.15
2.16
2.04
1.75
1.31
0.79
0.35
0.16
0.31
0.74
1.28
1.69
1.80
1.59
1.16
0.68
0.30
0.03
-0.18
-0.42
-0.72
-1.02
-1.23
-1.29
-1.23
-1.16
-1.16
-1.27
-1.45
-1.62
-1.75
-1.85
-2.00
-2.25
-2.59
-2.96
-3.28
-3.49
-3.57
-3.54
-3.44
-3.25
-2.95
-2.48
-1.86
-1.14
-0.47
0.02
0.28
0.33
0.27
0.20
0.22
0.33
0.50
0.66
0.78
0.89
1.03
1.22
1.44
1.61
1.68
1.63
1.50
1.40
1.37
1.44
1.59
1.73
1.83
1.86
1.83
1.74
1.64
1.53
1.45
1.43
1.52
1.65
1.75
1.69
1.40
0.91
0.39
-0.05
-0.31
-0.45
-0.55
-0.69
-0.86
-0.98
-0.99
-0.90
-0.81
-0.81
-0.98
-1.28
-1.64
-1.98
-2.30
-2.60
-2.92
-3.25
-3.53
-3.66
-3.57
-3.26
-2.80
-2.28
-1.79
-1.35
-0.93
-0.48
0.04
0.59
1.07
1.39
1.49
1.42
1.29
1.19
1.17
1.23
1.33
1.46
1.67
1.97
2.31
2.60
2.71
2.59
2.29
1.92
1.63
1.52
1.58
1.72
1.85
1.89
1.80
1.57
1.21
0.75
0.24
-0.24
-0.63
-0.86
-0.94
-0.91
-0.86
-0.88
-1.04
-1.33
-1.70
-2.06
-2.37
-2.62
-2.86
-3.16
-3.52
-3.88
-4.14
-4.19
-4.00
-3.67
-3.33
-3.08
-2.94
-2.86
-2.71
-2.42
-1.98
-1.48
-1.03
-0.70
-0.52
-0.42
-0.35
-0.24
-0.07
0.14
0.40
0.69
1.02
1.35
1.65
1.85
1.88
1.70
1.33
0.83
0.32
-0.12
-0.39
-0.47
-0.36
-0.12
0.14
0.32
0.30
0.04
-0.39
-0.88
-1.27
-1.48
-1.47
-1.31
-1.08
-0.87
-0.68
-0.52
-0.36
-0.21
-0.09
-0.02
0.01
0.02
0.05
0.12
0.19
0.24
0.27
0.30
0.38
0.55
0.80
1.06
1.24
1.29
1.23
1.16
1.16
1.28
1.43
1.52
1.47
1.28
1.05
0.89
0.87
0.94
1.03
1.04
0.96
0.85
0.77
0.77
0.82
0.81
0.64
0.25
-0.33
-1.00
-1.61
-2.01
-2.12
-1.97
-1.67
-1.42
-1.36
-1.58
-2.04
-2.65
-3.31
-3.96
-4.53
-5.00
-5.32
-5.41
-5.22
-4.71
-3.94
-3.01
-2.05
-1.20
-0.53
-0.04
0.31
0.58
0.85
1.13
1.43
1.67
1.78
1.74
1.56
1.36
1.30
1.50
1.97
2.58
3.10
3.32
3.11
2.54
1.81
1.19
0.85
0.84
1.09
1.45
1.78
2.01
2.12
2.11
1.98
1.72
1.34
0.90
0.48
0.16
-0.03
-0.08
-0.08
-0.09
-0.17
-0.35
-0.62
-0.93
-1.20
-1.32
-1.21
-0.82
-0.19
0.56
1.29
1.85
2.19
2.31
2.30
2.24
2.21
2.24
2.34
2.49
2.65
2.77
2.82
2.79
2.72
2.69
2.72
2.81
2.91
2.95
2.93
2.88
2.85
2.85
2.86
2.80
2.64
2.40
2.15
1.95
1.82
1.68
1.48
1.20
0.90
0.64
0.47
0.36
0.23
-0.02
-0.41
-0.86
-1.28
-1.59
-1.80
-2.01
-2.30
-2.69
-3.09
-3.36
-3.37
-3.11
-2.64
-2.10
-1.60
-1.19
-0.85
-0.50
-0.13
0.24
0.59
0.87
1.07
1.21
1.31
1.39
1.44
1.44
1.36
1.20
0.96
0.72
0.57
0.61
0.91
1.43
2.01
2.47
2.64
2.43
1.91
1.18
0.44
-0.16
-0.53
-0.65
-0.60
-0.50
-0.46
-0.50
-0.59
-0.63
-0.56
-0.40
-0.23
-0.19
-0.37
-0.76
-1.31
-1.91
-2.49
-3.04
-3.52
-3.93
-4.20
-4.29
-4.15
-3.82
-3.36
-2.81
-2.19
-1.48
-0.70
0.06
0.67
0.97
0.92
0.62
0.29
0.18
0.42
0.96
1.62
2.15
2.40
2.34
2.10
1.86
1.71
1.69
1.72
1.75
1.72
1.63
1.50
1.35
1.18
0.99
0.79
0.60
0.47
0.41
0.44
0.56
0.73
0.92
1.08
1.14
1.04
0.76
0.31
-0.23
-0.77
-1.23
-1.56
-1.76
-1.86
-1.89
-1.85
-1.74
-1.53
-1.20
-0.78
-0.31
0.16
0.55
0.82
0.96
0.98
0.95
0.94
0.98
1.12
1.35
1.60
1.84
2.01
2.06
2.00
1.84
1.60
1.32
1.04
0.80
0.64
0.58
0.62
0.72
0.83
0.90
0.92
0.91
0.90
0.92
0.91
0.83
0.60
0.22
-0.23
-0.64
-0.93
-1.08
-1.14
-1.19
-1.25
-1.31
-1.33
-1.25
-1.08
-0.85
-0.64
-0.48
-0.37
-0.26
-0.07
0.24
0.68
1.19
1.64
1.92
1.96
1.81
1.54
1.25
1.02
0.83
0.66
0.48
0.33
0.25
0.29
0.44
0.61
0.71
0.68
0.54
0.38
0.27
0.26
0.30
0.31
0.22
-0.00
-0.32
-0.66
-1.00
-1.30
-1.57
-1.80
-2.00
-2.16
-2.26
-2.30
-2.28
-2.19
-2.02
-1.76
-1.44
-1.10
-0.79
-0.57
-0.44
-0.37
-0.30
-0.17
0.03
0.29
0.55
0.73
0.79
0.70
0.49
0.22
-0.06
-0.24
-0.28
-0.15
0.14
0.51
0.82
0.98
0.91
0.61
0.19
-0.25
-0.60
-0.83
-0.99
-1.15
-1.39
-1.70
-2.03
-2.32
-2.53
-2.70
-2.85
-3.02
-3.16
-3.15
-2.92
-2.45
-1.83
-1.21
-0.74
-0.45
-0.30
-0.20
-0.07
0.09
0.24
0.31
0.31
0.28
0.31
0.42
0.59
0.75
0.86
0.89
0.90
0.96
1.09
1.28
1.44
1.49
1.38
1.14
0.82
0.49
0.16
-0.15
-0.45
-0.69
-0.82
-0.75
-0.52
-0.22
-0.02
-0.09
-0.46
-1.07
-1.73
-2.25
-2.48
-2.38
-1.99
-1.42
-0.79
-0.22
0.20
0.44
0.51
0.48
0.42
0.41
0.49
0.67
0.88
1.04
1.07
0.92
0.63
0.25
-0.10
-0.34
-0.44
-0.44
-0.38
-0.29
-0.21
-0.13
-0.09
-0.09
-0.17
-0.29
-0.43
-0.52
-0.56
-0.62
-0.80
-1.16
-1.72
-2.34
-2.86
-3.11
-3.02
-2.63
-2.06
-1.47
-0.99
-0.64
-0.41
-0.24
-0.08
0.07
0.20
0.31
0.44
0.61
0.87
1.19
1.51
1.78
1.93
1.96
1.88
1.73
1.52
1.28
1.04
0.85
0.76
0.77
0.86
0.94
0.93
0.75
0.43
0.04
-0.30
-0.51
-0.60
-0.63
-0.67
-0.80
-1.03
-1.31
-1.61
-1.92
-2.27
-2.68
-3.10
-3.42
-3.48
-3.20
-2.63
-1.93
-1.27
-0.79
-0.46
-0.19
0.13
0.52
0.91
1.20
1.34
1.38
1.40
1.50
1.69
1.89
2.01
1.98
1.80
1.54
1.28
1.07
0.97
1.00
1.14
1.38
1.62
1.78
1.76
1.55
1.21
0.86
0.63
0.55
0.59
0.64
0.62
0.51
0.34
0.17
0.04
-0.07
-0.23
-0.49
-0.82
-1.12
-1.24
-1.15
-0.91
-0.73
-0.83
-1.30
-2.12
-3.05
-3.84
-4.31
-4.41
-4.20
-3.81
-3.34
-2.82
-2.27
-1.67
-1.05
-0.46
-0.00
0.29
0.42
0.46
0.50
0.64
0.91
1.26
1.59
1.76
1.73
1.53
1.27
1.10
1.07
1.17
1.29
1.35
1.34
1.32
1.36
1.50
1.68
1.82
1.84
1.74
1.55
1.37
1.22
1.11
0.99
0.83
0.64
0.47
0.39
0.44
0.57
0.73
0.81
0.74
0.49
0.10
-0.34
-0.75
-1.03
-1.16
-1.19
-1.18
-1.21
-1.35
-1.63
-2.04
-2.56
-3.13
-3.65
-4.02
-4.17
-4.11
-3.89
-3.61
-3.33
-3.07
-2.81
-2.52
-2.22
-1.90
-1.60
-1.28
-0.91
-0.44
0.14
0.78
1.37
1.82
2.10
2.20
2.19
2.13
2.06
2.02
2.04
2.12
2.24
2.33
2.33
2.21
2.02
1.85
1.77
1.78
1.85
1.90
1.92
1.92
1.96
2.07
2.17
2.17
1.99
1.62
1.14
0.66
0.25
-0.08
-0.35
-0.58
-0.73
-0.77
-0.69
-0.57
-0.53
-0.66
-0.99
-1.45
-1.97
-2.49
-3.00
-3.51
-3.99
-4.37
-4.56
-4.53
-4.31
-4.01
-3.71
-3.43
-3.14
-2.78
-2.31
-1.80
-1.32
-0.91
-0.55
-0.20
0.21
0.63
1.03
1.31
1.46
1.54
1.65
1.84
2.12
2.43
2.69
2.86
2.92
2.90
2.87
2.88
2.95
3.11
3.32
3.53
3.64
3.59
3.38
3.07
2.73
2.44
2.23
2.07
1.90
1.68
1.40
1.10
0.80
0.52
0.28
0.10
0.02
0.04
0.14
0.27
0.32
0.24
-0.01
-0.44
-0.97
-1.53
-2.04
-2.43
-2.67
-2.73
-2.67
-2.53
-2.43
-2.46
-2.69
-3.11
-3.67
-4.23
-4.69
-4.90
-4.83
-4.45
-3.83
-3.04
-2.20
-1.39
-0.68
-0.09
0.39
0.79
1.13
1.42
1.64
1.78
1.87
1.94
2.04
2.21
2.47
2.76
3.01
3.14
3.10
2.90
2.65
2.47
2.47
2.68
3.03
3.38
3.59
3.61
3.50
3.35
3.24
3.16
3.04
2.83
2.51
2.16
1.88
1.70
1.60
1.48
1.24
0.86
0.40
-0.05
-0.44
-0.76
-1.03
-1.25
-1.44
-1.60
-1.77
-1.99
-2.28
-2.62
-2.93
-3.12
-3.18
-3.16
-3.14
-3.19
-3.28
-3.32
-3.20
-2.91
-2.49
-2.05
-1.66
-1.32
-0.97
-0.58
-0.17
0.18
0.41
0.49
0.49
0.52
0.65
0.93
1.31
1.68
1.98
2.18
2.29
2.36
2.40
2.40
2.34
2.21
2.05
1.91
1.83
1.80
1.76
1.65
1.44
1.12
0.77
0.48
0.30
0.25
0.27
0.31
0.32
0.29
0.20
0.06
-0.14
-0.43
-0.83
-1.31
-1.81
-2.27
-2.65
-2.93
-3.13
-3.27
-3.30
-3.19
-2.90
-2.42
-1.85
-1.30
-0.86
-0.55
-0.30
-0.01
0.38
0.89
1.40
1.79
1.96
1.92
1.74
1.54
1.45
1.47
1.58
1.70
1.75
1.71
1.60
1.46
1.36
1.33
1.40
1.56
1.76
1.94
2.00
1.90
1.65
1.32
1.03
0.87
0.87
0.96
1.03
0.95
0.66
0.13
-0.55
-1.27
-1.91
-2.36
-2.61
-2.67
-2.65
-2.63
-2.71
-2.90
-3.12
-3.28
-3.30
-3.15
-2.87
-2.54
-2.21
-1.90
-1.60
-1.23
-0.78
-0.25
0.29
0.78
1.15
1.37
1.46
1.46
1.44
1.45
1.53
1.68
1.85
2.01
2.10
2.16
2.21
2.30
2.48
2.71
2.94
3.10
3.10
2.91
2.55
2.13
1.75
1.51
1.43
1.45
1.46
1.36
1.13
0.84
0.58
0.43
0.39
0.40
0.35
0.21
0.01
-0.18
-0.32
-0.45
-0.63
-0.95
-1.44
-2.00
-2.51
-2.84
-2.92
-2.81
-2.63
-2.55
-2.67
-3.02
-3.54
-4.09
-4.52
-4.72
-4.61
-4.22
-3.59
-2.85
-2.11
-1.48
-0.99
-0.62
-0.30
0.06
0.49
0.97
1.46
1.87
2.15
2.28
2.26
2.14
2.00
1.92
1.97
2.14
2.34
2.46
2.42
2.22
2.00
1.89
2.00
2.27
2.59
2.80
2.88
2.85
2.84
2.91
3.03
3.06
2.87
2.40
1.73
1.02
0.43
0.07
-0.07
-0.07
-0.02
0.00
-0.05
-0.18
-0.35
-0.54
-0.71
-0.89
-1.08
-1.32
-1.59
-1.90
-2.24
-2.60
-3.01
-3.48
-3.99
-4.47
-4.81
-4.90
-4.68
-4.21
-3.60
-3.02
-2.55
-2.22
-1.99
-1.79
-1.53
-1.16
-0.67
-0.08
0.55
1.17
1.69
2.06
2.25
2.27
2.14
1.92
1.71
1.59
1.67
1.96
2.38
2.79
3.08
3.16
3.10
3.02
3.03
3.15
3.31
3.36
3.22
2.87
2.43
2.03
1.77
1.68
1.68
1.71
1.65
1.50
1.26
0.99
0.74
0.53
0.36
0.18
-0.07
-0.43
-0.88
-1.38
-1.84
-2.16
-2.34
-2.43
-2.50
-2.65
-2.92
-3.30
-3.71
-4.06
-4.30
-4.42
-4.44
-4.41
-4.36
-4.25
-4.03
-3.67
-3.14
-2.48
-1.75
-1.03
-0.43
0.03
0.33
0.51
0.68
0.92
1.27
1.70
2.10
2.34
2.34
2.13
1.83
1.58
1.49
1.60
1.84
2.11
2.32
2.45
2.49
2.50
2.47
2.40
2.26
2.06
1.85
1.70
1.66
1.69
1.71
1.63
1.40
1.10
0.84
0.75
0.84
1.04
1.17
1.12
0.86
0.45
-0.00
-0.41
-0.75
-1.05
-1.31
-1.50
-1.58
-1.54
-1.40
-1.26
-1.23
-1.42
-1.86
-2.53
-3.32
-4.11
-4.76
-5.16
-5.27
-5.09
-4.65
-4.01
-3.25
-2.44
-1.67
-1.02
-0.51
-0.14
0.16
0.44
0.73
1.01
1.21
1.28
1.22
1.09
0.97
0.93
0.99
1.14
1.35
1.60
1.90
2.24
2.59
2.91
3.11
3.15
3.03
2.81
2.55
2.28
2.02
1.75
1.48
1.23
1.07
1.02
1.07
1.15
1.20
1.18
1.05
0.82
0.51
0.17
-0.15
-0.39
-0.51
-0.51
-0.48
-0.51
-0.70
-1.02
-1.43
-1.82
-2.12
-2.32
-2.44
-2.55
-2.66
-2.80
-2.94
-3.10
-3.28
-3.48
-3.69
-3.85
-3.88
-3.71
-3.29
-2.64
-1.84
-1.05
-0.38
0.06
0.26
0.28
0.22
0.21
0.31
0.54
0.87
1.25
1.61
1.90
2.07
2.09
1.99
1.81
1.65
1.58
1.66
1.84
2.06
2.22
2.28
2.26
2.23
2.28
2.42
2.58
2.64
2.49
2.11
1.56
1.01
0.61
0.46
0.55
0.79
1.06
1.23
1.26
1.12
0.86
0.54
0.18
-0.16
-0.47
-0.75
-1.01
-1.23
-1.43
-1.61
-1.78
-1.96
-2.16
-2.39
-2.66
-2.98
-3.36
-3.79
-4.22
-4.58
-4.81
-4.83
-4.66
-4.29
-3.79
-3.17
-2.48
-1.80
-1.19
-0.72
-0.42
-0.25
-0.12
0.06
0.34
0.70
1.06
1.31
1.39
1.35
1.25
1.21
1.27
1.42
1.59
1.74
1.86
1.97
2.10
2.27
2.41
2.48
2.44
2.30
2.14
2.01
1.92
1.88
1.86
1.86
1.87
1.94
2.06
2.17
2.24
2.20
2.04
1.77
1.42
1.03
0.64
0.30
0.01
-0.23
-0.46
-0.72
-1.04
-1.38
-1.68
-1.90
-2.02
-2.11
-2.26
-2.54
-2.94
-3.38
-3.78
-4.10
-4.31
-4.43
-4.46
-4.35
-4.05
-3.52
-2.79
-1.92
-1.05
-0.28
0.30
0.70
0.92
1.05
1.15
1.30
1.51
1.76
2.01
2.16
2.18
2.06
1.85
1.62
1.46
1.42
1.51
1.72
1.99
2.23
2.39
2.42
2.32
2.13
1.92
1.71
1.54
1.39
1.24
1.13
1.08
1.10
1.16
1.17
1.04
0.73
0.28
-0.21
-0.59
-0.79
-0.79
-0.66
-0.52
-0.45
-0.53
-0.75
-1.10
-1.53
-1.98
-2.38
-2.63
-2.68
-2.56
-2.35
-2.22
-2.31
-2.68
-3.22
-3.75
-4.02
-3.91
-3.45
-2.82
-2.29
-1.97
-1.85
-1.75
-1.47
-0.91
-0.15
0.61
1.17
1.43
1.45
1.37
1.33
1.37
1.47
1.55
1.59
1.67
1.88
2.28
2.82
3.35
3.67
3.59
3.13
2.41
1.67
1.16
0.99
1.13
1.43
1.76
2.00
2.12
2.13
2.02
1.78
1.40
0.91
0.42
0.09
-0.01
0.12
0.34
0.51
0.55
0.45
0.29
0.10
-0.09
-0.30
-0.57
-0.90
-1.24
-1.57
-1.87
-2.12
-2.35
-2.53
-2.66
-2.71
-2.72
-2.72
-2.75
-2.81
-2.89
-2.92
-2.85
-2.64
-2.28
-1.77
-1.16
-0.51
0.06
0.50
0.77
0.91
0.96
1.00
1.08
1.20
1.31
1.38
1.41
1.44
1.52
1.69
1.94
2.21
2.40
2.46
2.36
2.13
1.85
1.56
1.32
1.15
1.02
0.94
0.91
0.91
0.93
0.94
0.89
0.73
0.43
0.02
-0.42
-0.80
-1.03
-1.06
-0.92
-0.71
-0.53
-0.48
-0.55
-0.71
-0.91
-1.10
-1.27
-1.44
-1.65
-1.91
-2.19
-2.44
-2.61
-2.66
-2.64
-2.58
-2.55
-2.51
-2.39
-2.12
-1.65
-1.03
-0.42
0.05
0.29
0.35
0.33
0.40
0.63
0.97
1.31
1.51
1.51
1.34
1.10
0.93
0.90
1.05
1.33
1.66
1.99
2.26
2.44
2.50
2.44
2.25
1.97
1.65
1.36
1.13
0.97
0.84
0.69
0.50
0.28
0.09
-0.02
-0.02
0.05
0.11
0.10
-0.05
-0.34
-0.73
-1.14
-1.53
-1.90
-2.27
-2.68
-3.11
-3.51
-3.83
-4.03
-4.13
-4.13
-4.05
-3.87
-3.55
-3.09
-2.53
-1.94
-1.41
-1.00
-0.68
-0.39
-0.10
0.21
0.49
0.67
0.76
0.81
0.91
1.12
1.44
1.79
2.03
2.10
1.99
1.80
1.65
1.64
1.78
2.01
2.24
2.40
2.51
2.59
2.68
2.74
2.72
2.56
2.25
1.85
1.47
1.22
1.14
1.18
1.24
1.21
1.05
0.79
0.46
0.12
-0.22
-0.54
-0.84
-1.06
-1.17
-1.13
-1.00
-0.84
-0.80
-0.96
-1.35
-1.92
-2.55
-3.15
-3.61
-3.89
-3.99
-3.93
-3.75
-3.49
-3.19
-2.88
-2.58
-2.24
-1.85
-1.37
-0.83
-0.31
0.10
0.35
0.48
0.59
0.83
1.26
1.82
2.36
2.70
2.76
2.58
2.33
2.19
2.29
2.59
2.96
3.23
3.27
3.07
2.68
2.23
1.82
1.55
1.46
1.56
1.79
2.05
2.23
2.24
2.04
1.68
1.23
0.81
0.49
0.31
0.23
0.23
0.27
0.34
0.43
0.52
0.55
0.46
0.20
-0.23
-0.72
-1.13
-1.31
-1.20
-0.84
-0.42
-0.12
-0.06
-0.25
-0.61
-1.00
-1.36
-1.66
-1.93
-2.21
-2.52
-2.84
-3.19
-3.56
-3.99
-4.42
-4.76
-4.85
-4.57
-3.92
-3.03
-2.14
-1.45
-1.04
-0.86
-0.73
-0.52
-0.18
0.25
0.67
1.03
1.35
1.70
2.11
2.56
2.95
3.15
3.11
2.87
2.52
2.17
1.90
1.72
1.64
1.63
1.69
1.80
1.92
1.97
1.88
1.63
1.29
0.97
0.78
0.75
0.84
0.93
0.92
0.76
0.51
0.27
0.12
0.14
0.31
0.56
0.80
0.95
0.99
0.90
0.75
0.59
0.48
0.40
0.29
0.10
-0.23
-0.66
-1.13
-1.54
-1.83
-1.99
-2.08
-2.15
-2.28
-2.49
-2.81
-3.19
-3.59
-3.94
-4.15
-4.15
-3.93
-3.53
-3.04
-2.57
-2.18
-1.85
-1.54
-1.16
-0.70
-0.18
0.32
0.75
1.09
1.32
1.45
1.49
1.46
1.42
1.45
1.60
1.84
2.09
2.22
2.15
1.95
1.74
1.68
1.83
2.11
2.37
2.43
2.23
1.80
1.30
0.88
0.63
0.57
0.64
0.74
0.81
0.79
0.71
0.61
0.57
0.64
0.79
0.95
1.02
0.94
0.70
0.35
-0.04
-0.40
-0.72
-0.99
-1.23
-1.41
-1.51
-1.52
-1.45
-1.41
-1.51
-1.82
-2.36
-3.04
-3.71
-4.21
-4.47
-4.48
-4.28
-3.97
-3.59
-3.18
-2.73
-2.25
-1.74
-1.23
-0.79
-0.44
-0.19
0.01
0.18
0.36
0.55
0.74
0.93
1.13
1.34
1.56
1.76
1.85
1.81
1.64
1.42
1.29
1.30
1.47
1.68
1.84
1.89
1.85
1.82
1.87
2.01
2.19
2.31
2.29
2.12
1.84
1.53
1.26
1.06
0.92
0.79
0.67
0.56
0.50
0.55
0.71
0.93
1.08
1.06
0.81
0.40
-0.06
-0.46
-0.77
-1.00
-1.23
-1.46
-1.68
-1.83
-1.89
-1.93
-2.05
-2.31
-2.71
-3.18
-3.61
-3.92
-4.07
-4.09
-3.99
-3.82
-3.62
-3.42
-3.19
-2.91
-2.51
-1.94
-1.21
-0.40
0.31
0.79
0.99
0.98
0.92
0.95
1.15
1.47
1.78
1.98
2.04
1.97
1.85
1.70
1.56
1.45
1.38
1.43
1.62
1.95
2.32
2.61
2.69
2.53
2.19
1.81
1.50
1.32
1.23
1.16
1.03
0.83
0.61
0.42
0.32
0.32
0.38
0.46
0.54
0.62
0.70
0.79
0.85
0.80
0.61
0.27
-0.17
-0.64
-1.06
-1.41
-1.74
-2.07
-2.43
-2.80
-3.12
-3.34
-3.45
-3.50
-3.53
-3.61
-3.72
-3.81
-3.80
-3.60
-3.19
-2.59
-1.88
-1.13
-0.45
0.12
0.54
0.82
0.97
1.05
1.11
1.20
1.32
1.48
1.63
1.75
1.78
1.71
1.57
1.43
1.41
1.55
1.86
2.23
2.52
2.58
2.35
1.92
1.46
1.18
1.18
1.46
1.84
2.15
2.27
2.18
1.96
1.72
1.54
1.41
1.30
1.19
1.06
0.96
0.92
0.92
0.94
0.88
0.70
0.38
-0.02
-0.45
-0.84
-1.19
-1.52
-1.88
-2.29
-2.73
-3.13
-3.43
-3.62
-3.71
-3.79
-3.89
-4.04
-4.19
-4.24
-4.12
-3.79
-3.27
-2.61
-1.87
-1.15
-0.51
-0.03
0.29
0.48
0.66
0.94
1.38
1.92
2.45
2.80
2.90
2.79
2.58
2.44
2.46
2.63
2.88
3.12
3.24
3.23
3.07
2.80
2.48
2.20
2.04
2.02
2.11
2.22
2.25
2.14
1.90
1.58
1.24
0.97
0.79
0.72
0.75
0.85
0.95
0.97
0.87
0.63
0.33
0.08
-0.02
0.05
0.22
0.36
0.38
0.25
-0.01
-0.30
-0.57
-0.76
-0.87
-0.92
-0.94
-0.96
-1.01
-1.15
-1.42
-1.77
-2.15
-2.47
-2.68
-2.84
-3.01
-3.27
-3.61
-3.91
-4.03
-3.91
-3.58
-3.21
-2.93
-2.78
-2.70
-2.55
-2.23
-1.76
-1.20
-0.64
-0.15
0.29
0.70
1.08
1.41
1.63
1.72
1.68
1.56
1.45
1.40
1.47
1.66
1.94
2.26
2.52
2.64
2.58
2.41
2.20
2.10
2.14
2.31
2.52
2.66
2.66
2.51
2.23
1.90
1.57
1.31
1.15
1.07
1.00
0.88
0.65
0.33
-0.00
-0.19
-0.17
0.05
0.35
0.55
0.54
0.30
-0.11
-0.57
-1.02
-1.46
-1.91
-2.35
-2.74
-2.98
-3.06
-3.06
-3.10
-3.29
-3.66
-4.09
-4.37
-4.35
-4.00
-3.40
-2.75
-2.16
-1.68
-1.26
-0.84
-0.39
0.06
0.45
0.72
0.88
0.96
0.99
1.00
1.01
1.05
1.14
1.30
1.53
1.80
2.05
2.24
2.36
2.43
2.49
2.52
2.51
2.39
2.14
1.79
1.41
1.12
1.01
1.11
1.38
1.75
2.12
2.39
2.51
2.46
2.23
1.90
1.57
1.34
1.28
1.35
1.47
1.49
1.30
0.87
0.26
-0.40
-1.03
-1.56
-1.97
-2.27
-2.47
-2.58
-2.64
-2.67
-2.74
-2.90
-3.17
-3.55
-4.00
-4.43
-4.73
-4.83
-4.67
-4.27
-3.70
-3.06
-2.45
-1.93
-1.51
-1.17
-0.86
-0.57
-0.26
0.06
0.40
0.77
1.17
1.60
2.01
2.32
2.45
2.38
2.18
1.95
1.85
1.95
2.25
2.62
2.92
3.01
2.86
2.51
2.08
1.67
1.35
1.11
0.95
0.87
0.89
1.01
1.20
1.38
1.47
1.39
1.14
0.76
0.34
-0.02
-0.27
-0.38
-0.40
-0.37
-0.37
-0.45
-0.63
-0.88
-1.16
-1.46
-1.78
-2.17
-2.65
-3.17
-3.64
-3.93
-4.01
-3.89
-3.69
-3.53
-3.48
-3.47
-3.37
-3.05
-2.48
-1.78
-1.11
-0.65
-0.44
-0.41
-0.39
-0.26
0.05
0.48
0.92
1.29
1.59
1.89
2.24
2.66
3.10
3.45
3.63
3.58
3.30
2.84
2.31
1.83
1.49
1.33
1.35
1.49
1.67
1.83
1.93
1.95
1.89
1.73
1.49
1.20
0.95
0.80
0.78
0.83
0.87
0.80
0.62
0.36
0.08
-0.17
-0.39
-0.61
-0.83
-1.04
-1.20
-1.29
-1.36
-1.49
-1.74
-2.13
-2.58
-3.01
-3.31
-3.46
-3.48
-3.41
-3.29
-3.17
-3.05
-2.93
-2.79
-2.63
-2.41
-2.09
-1.67
-1.18
-0.69
-0.27
0.01
0.15
0.18
0.17
0.18
0.26
0.44
0.71
1.10
1.55
2.02
2.42
2.68
2.77
2.73
2.63
2.59
2.63
2.75
2.87
2.90
2.77
2.50
2.12
1.74
1.43
1.24
1.17
1.17
1.19
1.17
1.11
1.00
0.87
0.70
0.49
0.22
-0.09
-0.42
-0.68
-0.84
-0.88
-0.86
-0.83
-0.85
-0.96
-1.17
-1.48
-1.90
-2.43
-3.02
-3.60
-4.07
-4.34
-4.37
-4.18
-3.83
-3.42
-3.01
-2.63
-2.26
-1.87
-1.42
-0.91
-0.35
0.19
0.68
1.07
1.36
1.56
1.70
1.76
1.73
1.61
1.45
1.31
1.30
1.46
1.77
2.12
2.38
2.50
2.46
2.38
2.34
2.42
2.59
2.81
2.98
3.03
2.94
2.72
2.41
2.06
1.72
1.41
1.16
0.96
0.83
0.78
0.84
0.95
1.06
1.06
0.88
0.52
0.06
-0.39
-0.71
-0.90
-1.01
-1.14
-1.37
-1.67
-1.98
-2.21
-2.34
-2.43
-2.55
-2.75
-3.04
-3.35
-3.64
-3.86
-4.02
-4.15
-4.24
-4.27
-4.15
-3.85
-3.36
-2.72
-2.02
-1.34
-0.75
-0.28
0.07
0.34
0.56
0.79
1.05
1.32
1.58
1.79
1.95
2.07
2.15
2.20
2.22
2.20
2.17
2.15
2.18
2.28
2.42
2.56
2.64
2.65
2.59
2.51
2.46
2.47
2.53
2.61
2.65
2.60
2.43
2.15
1.78
1.38
1.00
0.70
0.51
0.43
0.41
0.36
0.21
-0.08
-0.49
-0.94
-1.33
-1.59
-1.69
-1.68
-1.61
-1.55
-1.53
-1.59
-1.71
-1.87
-2.08
-2.31
-2.58
-2.89
-3.22
-3.56
-3.81
-3.87
-3.68
-3.23
-2.62
-1.96
-1.39
-0.97
-0.70
-0.52
-0.34
-0.10
0.18
0.46
0.70
0.84
0.92
0.99
1.11
1.33
1.60
1.84
1.98
1.96
1.84
1.72
1.71
1.86
2.15
2.46
2.66
2.71
2.61
2.46
2.34
2.29
2.28
2.22
2.05
1.74
1.33
0.92
0.60
0.45
0.49
0.70
1.00
1.30
1.50
1.54
1.43
1.20
0.91
0.57
0.18
-0.27
-0.74
-1.13
-1.35
-1.40
-1.37
-1.46
-1.81
-2.46
-3.31
-4.17
-4.87
-5.30
-5.46
-5.39
-5.14
-4.72
-4.15
-3.48
-2.76
-2.11
-1.58
-1.20
-0.90
-0.60
-0.24
0.21
0.70
1.15
1.53
1.82
2.06
2.29
2.52
2.71
2.79
2.74
2.57
2.32
2.07
1.86
1.70
1.61
1.57
1.59
1.68
1.80
1.92
2.00
1.99
1.89
1.71
1.47
1.23
1.05
0.95
0.91
0.89
0.83
0.70
0.51
0.33
0.22
0.19
0.26
0.39
0.54
0.64
0.59
0.31
-0.22
-0.97
-1.78
-2.49
-2.95
-3.15
-3.17
-3.13
-3.16
-3.28
-3.44
-3.57
-3.61
-3.53
-3.35
-3.13
-2.89
-2.67
-2.48
-2.28
-2.01
-1.59
-1.01
-0.28
0.49
1.20
1.73
2.03
2.11
2.05
1.92
1.83
1.85
1.99
2.23
2.50
2.69
2.73
2.61
2.41
2.22
2.11
2.07
2.01
1.88
1.65
1.40
1.25
1.27
1.47
1.74
1.90
1.87
1.62
1.24
0.86
0.53
0.28
0.10
-0.04
-0.10
-0.05
0.14
0.40
0.60
0.59
0.32
-0.15
-0.68
-1.09
-1.28
-1.30
-1.32
-1.52
-2.02
-2.76
-3.56
-4.20
-4.49
-4.39
-4.01
-3.49
-2.97
-2.50
-2.06
-1.58
-1.06
-0.56
-0.17
0.04
0.09
0.05
0.05
0.14
0.34
0.58
0.83
1.08
1.33
1.60
1.86
2.07
2.19
2.21
2.14
2.02
1.91
1.82
1.79
1.81
1.90
2.01
2.11
2.18
2.19
2.16
2.14
2.09
1.99
1.77
1.42
0.99
0.59
0.32
0.20
0.17
0.13
0.03
-0.12
-0.21
-0.14
0.11
0.48
0.81
0.94
0.77
0.32
-0.31
-1.01
-1.67
-2.26
-2.76
-3.19
-3.53
-3.80
-3.97
-4.03
-3.99
-3.82
-3.54
-3.17
-2.77
-2.38
-2.09
-1.89
-1.75
-1.56
-1.22
-0.69
-0.03
0.66
1.25
1.68
1.92
2.02
2.00
1.91
1.76
1.57
1.37
1.22
1.16
1.18
1.21
1.20
1.12
0.98
0.82
0.75
0.83
1.05
1.32
1.50
1.51
1.34
1.02
0.62
0.31
0.24
0.46
0.83
1.13
1.17
0.89
0.34
-0.32
-0.78
-0.78
-0.30
0.39
0.91
1.03
0.82
0.52
0.46
1.15
3.00
6.22
10.68
16.00
21.63
26.91
31.05
32.24
29.20
22.19
13.28
4.91
-1.49
-6.16
-9.62
-12.35
-14.81
-16.60
-17.53
-17.68
-17.33
-16.87
-16.51
-16.19
-15.84
-15.41
-14.74
-13.69
-12.23
-10.47
-8.67
-7.05
-5.73
-4.80
-4.23
-3.83
-3.41
-2.85
-2.20
-1.61
-1.15
-0.78
-0.44
-0.10
0.22
0.39
0.22
-0.38
-1.43
-2.78
-4.15
-5.31
-6.10
-6.41
-6.21
-5.52
-4.43
-3.11
-1.80
-0.71
-0.04
0.19
0.03
-0.37
-0.88
-1.45
-2.06
-2.69
-3.27
-3.65
-3.71
-3.42
-2.87
-2.24
-1.71
-1.40
-1.27
-1.20
-1.06
-0.75
-0.27
0.34
0.98
1.57
2.08
2.49
2.81
3.07
3.28
3.45
3.62
3.81
4.04
4.31
4.57
4.76
4.81
4.72
4.56
4.43
4.47
4.70
5.11
5.57
5.99
6.30
6.49
6.63
6.80
7.05
7.37
7.73
8.04
8.29
8.48
8.68
8.93
9.23
9.47
9.52
9.28
8.76
8.06
7.33
6.67
6.07
5.39
4.49
3.32
1.95
0.58
-0.64
-1.63
-2.48
-3.40
-4.59
-6.12
-7.94
-9.91
-11.85
-13.64
-15.16
-16.32
-16.98
-17.04
-16.44
-15.26
-13.71
-12.05
-10.48
-9.09
-7.84
-6.65
-5.47
-4.31
-3.22
-2.26
-1.41
-0.63
0.15
0.93
1.66
2.21
2.51
2.54
2.38
2.20
2.17
2.42
2.95
3.67
4.40
4.98
5.29
5.32
5.11
4.76
4.36
3.96
3.55
3.14
2.74
2.37
2.01
1.67
1.31
0.92
0.53
0.18
-0.04
-0.11
-0.07
0.02
0.03
-0.13
-0.47
-0.96
-1.49
-1.97
-2.32
-2.54
-2.67
-2.75
-2.81
-2.85
-2.83
-2.76
-2.67
-2.65
-2.77
-3.03
-3.36
-3.62
-3.69
-3.55
-3.24
-2.85
-2.46
-2.05
-1.56
-0.91
-0.11
0.76
1.56
2.15
2.46
2.55
2.50
2.43
2.40
2.44
2.49
2.51
2.48
2.38
2.27
2.21
2.25
2.42
2.70
2.99
3.21
3.28
3.20
3.03
2.86
2.75
2.71
2.68
2.58
2.37
2.09
1.84
1.73
1.80
1.98
2.13
2.13
1.91
1.49
0.97
0.43
-0.08
-0.53
-0.91
-1.18
-1.31
-1.31
-1.22
-1.18
-1.28
-1.55
-1.94
-2.36
-2.73
-3.03
-3.33
-3.67
-4.04
-4.33
-4.40
-4.16
-3.65
-2.96
-2.25
-1.60
-1.01
-0.44
0.17
0.81
1.40
1.84
2.08
2.09
1.94
1.71
1.49
1.36
1.39
1.59
1.97
2.47
3.00
3.44
3.70
3.75
3.61
3.34
3.03
2.75
2.55
2.47
2.49
2.55
2.57
2.47
2.21
1.85
1.52
1.34
1.35
1.46
1.54
1.47
1.22
0.84
0.46
0.16
-0.06
-0.27
-0.53
-0.82
-1.09
-1.25
-1.28
-1.24
-1.24
-1.38
-1.70
-2.14
-2.57
-2.90
-3.08
-3.15
-3.20
-3.30
-3.44
-3.56
-3.55
-3.32
-2.85
-2.20
-1.47
-0.77
-0.15
0.36
0.78
1.12
1.38
1.58
1.72
1.81
1.88
1.96
2.08
2.24
2.43
2.60
2.72
2.74
2.66
2.50
2.33
2.21
2.21
2.33
2.54
2.76
2.89
2.85
2.66
2.40
2.16
2.03
2.01
2.04
2.04
1.95
1.78
1.59
1.43
1.31
1.19
1.01
0.77
0.48
0.21
-0.01
-0.18
-0.36
-0.60
-0.89
-1.19
-1.45
-1.62
-1.72
-1.81
-1.95
-2.18
-2.51
-2.91
-3.35
-3.80
-4.17
-4.39
-4.36
-4.03
-3.40
-2.55
-1.62
-0.75
-0.06
0.42
0.72
0.90
1.04
1.18
1.32
1.46
1.60
1.75
1.93
2.12
2.28
2.32
2.20
1.90
1.48
1.09
0.83
0.79
0.96
1.28
1.64
1.94
2.12
2.18
2.15
2.07
1.99
1.91
1.78
1.56
1.20
0.72
0.19
-0.32
-0.69
-0.86
-0.83
-0.64
-0.39
-0.20
-0.18
-0.41
-0.87
-1.46
-2.04
-2.48
-2.76
-2.94
-3.11
-3.34
-3.59
-3.73
-3.68
-3.41
-2.98
-2.52
-2.14
-1.84
-1.57
-1.21
-0.70
-0.08
0.57
1.13
1.52
1.73
1.80
1.78
1.69
1.56
1.36
1.11
0.84
0.64
0.58
0.73
1.05
1.48
1.88
2.14
2.24
2.20
2.12
2.08
2.09
2.11
2.05
1.88
1.59
1.26
0.95
0.69
0.45
0.17
-0.18
-0.59
-0.96
-1.22
-1.33
-1.32
-1.24
-1.19
-1.20
-1.31
-1.55
-1.89
-2.32
-2.74
-3.08
-3.27
-3.24
-3.00
-2.58
-2.05
-1.47
-0.95
-0.55
-0.34
-0.30
-0.37
-0.43
-0.40
-0.25
-0.04
0.20
0.43
0.66
0.91
1.16
1.37
1.48
1.48
1.42
1.40
1.49
1.68
1.88
1.97
1.88
1.60
1.24
0.92
0.74
0.73
0.83
0.94
0.96
0.85
0.65
0.45
0.30
0.24
0.23
0.17
0.01
-0.26
-0.59
-0.87
-1.03
-1.05
-0.98
-0.92
-0.99
-1.25
-1.72
-2.33
-2.98
-3.53
-3.89
-3.98
-3.82
-3.46
-3.00
-2.57
-2.23
-1.99
-1.79
-1.56
-1.24
-0.85
-0.47
-0.17
-0.02
-0.01
-0.05
-0.04
0.12
0.43
0.81
1.15
1.32
1.31
1.16
1.01
0.99
1.18
1.53
1.93
2.24
2.39
2.39
2.34
2.31
2.30
2.26
2.11
1.83
1.46
1.09
0.80
0.62
0.53
0.49
0.48
0.52
0.64
0.82
1.00
1.07
0.98
0.75
0.45
0.18
-0.01
-0.15
-0.27
-0.43
-0.63
-0.81
-0.90
-0.83
-0.63
-0.37
-0.13
0.04
0.18
0.30
0.41
0.46
0.36
0.07
-0.35
-0.78
-1.09
-1.19
-1.10
-0.93
-0.82
-0.84
-0.98
-1.16
-1.24
-1.14
-0.84
-0.40
0.10
0.57
0.94
1.20
1.40
1.61
1.90
2.29
2.76
3.25
3.68
3.98
4.10
4.04
3.83
3.54
3.27
3.08
3.01
3.03
3.08
3.08
2.97
2.76
2.47
2.18
1.89
1.59
1.24
0.84
0.42
0.04
-0.21
-0.32
-0.32
-0.31
-0.37
-0.53
-0.78
-1.02
-1.17
-1.23
-1.23
-1.26
-1.38
-1.60
-1.87
-2.06
-2.07
-1.80
-1.23
-0.40
0.57
1.54
2.32
2.77
2.78
2.34
1.54
0.57
-0.39
-1.20
-1.82
-2.29
-2.70
-3.11
-3.50
-3.80
-3.89
-3.76
-3.43
-3.04
-2.76
-2.69
-2.84
-3.10
-3.33
-3.42
-3.34
-3.11
-2.84
-2.63
-2.55
-2.63
-2.86
-3.23
-3.67
-4.11
-4.45
-4.63
-4.61
-4.40
-4.10
-3.86
-3.79
-3.98
-4.36
-4.77
-5.01
-4.88
-4.33
-3.44
-2.41
-1.47
-0.75
-0.31
-0.07
0.07
0.22
0.48
0.89
1.47
2.20
2.98
3.68
4.16
4.31
4.11
3.65
3.09
2.61
2.33
2.28
2.36
2.41
2.31
2.00
1.53
1.04
0.65
0.43
0.36
0.37
0.35
0.25
0.06
-0.20
-0.51
-0.85
-1.19
-1.49
-1.72
-1.87
-1.97
-2.06
-2.19
-2.34
-2.50
-2.61
-2.67
-2.70
-2.70
-2.65
-2.50
-2.17
-1.64
-0.89
0.07
1.26
2.67
4.24
5.86
7.34
8.56
9.50
10.25
10.98
11.81
12.73
13.62
14.32
14.70
14.72
14.34
13.53
12.26
10.52
8.41
6.15
4.00
2.17
0.70
-0.52
-1.64
-2.79
-3.96
-5.03
-5.90
-6.53
-6.95
-7.27
-7.55
-7.80
-7.98
-8.03
-7.95
-7.77
-7.58
-7.44
-7.39
-7.40
-7.45
-7.48
-7.49
-7.52
-7.62
-7.83
-8.13
-8.39
-8.45
-8.14
-7.42
-6.39
-5.25
-4.25
-3.55
-3.17
-3.04
-2.98
-2.85
-2.53
-2.01
-1.34
-0.61
0.06
0.59
0.94
1.13
1.24
1.32
1.41
1.51
1.61
1.70
1.78
1.88
1.99
2.11
2.22
2.32
2.45
2.66
2.98
3.39
3.80
4.14
4.32
4.35
4.28
4.18
4.11
4.08
4.02
3.88
3.58
3.08
2.40
1.61
0.82
0.15
-0.31
-0.51
-0.48
-0.37
-0.33
-0.51
-0.96
-1.65
-2.45
-3.22
-3.87
-4.34
-4.63
-4.74
-4.65
-4.35
-3.89
-3.33
-2.76
-2.27
-1.89
-1.60
-1.36
-1.14
-0.92
-0.74
-0.62
-0.56
-0.55
-0.61
-0.74
-0.97
-1.30
-1.70
-2.06
-2.26
-2.24
-2.00
-1.64
-1.28
-1.04
-0.96
-1.04
-1.23
-1.45
-1.64
-1.76
-1.75
-1.60
-1.33
-0.98
-0.62
-0.32
-0.09
0.03
0.06
0.00
-0.17
-0.45
-0.80
-1.17
-1.46
-1.61
-1.61
-1.50
-1.35
-1.20
-1.06
-0.92
-0.78
-0.68
-0.68
-0.81
-1.05
-1.35
-1.60
-1.71
-1.66
-1.49
-1.28
-1.12
-1.06
-1.08
-1.11
-1.08
-0.93
-0.66
-0.33
-0.02
0.22
0.40
0.60
0.85
1.18
1.47
1.62
1.55
1.29
0.96
0.74
0.72
0.91
1.15
1.29
1.21
0.95
0.66
0.49
0.53
0.78
1.14
1.52
1.85
2.14
2.37
2.53
2.55
2.39
2.03
1.54
1.05
0.69
0.51
0.49
0.53
0.51
0.38
0.11
-0.23
-0.63
-1.04
-1.43
-1.80
-2.08
-2.23
-2.20
-2.02
-1.77
-1.59
-1.54
-1.64
-1.81
-1.96
-2.03
-2.00
-1.93
-1.83
-1.69
-1.44
-1.06
-0.58
-0.09
0.29
0.51
0.60
0.65
0.77
1.02
1.37
1.76
2.12
2.42
2.65
2.81
2.88
2.87
2.78
2.63
2.46
2.31
2.21
2.15
2.10
2.03
1.89
1.66
1.40
1.15
1.00
0.96
1.00
1.01
0.88
0.55
0.04
-0.52
-0.97
-1.19
-1.17
-0.99
-0.85
-0.89
-1.21
-1.77
-2.42
-2.98
-3.30
-3.30
-2.98
-2.42
-1.72
-0.98
-0.33
0.14
0.34
0.26
-0.03
-0.38
-0.63
-0.64
-0.39
0.06
0.58
1.04
1.35
1.50
1.53
1.52
1.55
1.69
1.97
2.35
2.70
2.91
2.89
2.65
2.29
1.97
1.82
1.89
2.12
2.39
2.53
2.47
2.18
1.73
1.22
0.76
0.40
0.19
0.09
0.05
0.02
-0.06
-0.21
-0.42
-0.67
-0.93
-1.15
-1.32
-1.43
-1.52
-1.63
-1.78
-1.99
-2.23
-2.43
-2.55
-2.55
-2.42
-2.18
-1.84
-1.43
-0.96
-0.45
0.04
0.48
0.80
0.97
0.99
0.93
0.86
0.84
0.94
1.16
1.47
1.81
2.13
2.40
2.59
2.74
2.87
2.98
3.04
3.00
2.82
2.53
2.19
1.92
1.75
1.69
1.63
1.48
1.21
0.88
0.58
0.40
0.39
0.48
0.60
0.67
0.67
0.60
0.46
0.27
-0.00
-0.34
-0.74
-1.13
-1.44
-1.63
-1.70
-1.69
-1.71
-1.84
-2.11
-2.49
-2.91
-3.26
-3.47
-3.54
-3.51
-3.39
-3.22
-2.97
-2.63
-2.20
-1.68
-1.14
-0.62
-0.18
0.13
0.28
0.28
0.19
0.10
0.08
0.18
0.38
0.59
0.75
0.81
0.83
0.86
0.97
1.19
1.47
1.76
1.97
2.05
1.94
1.62
1.16
0.64
0.18
-0.09
-0.15
-0.01
0.18
0.31
0.25
-0.03
-0.52
-1.11
-1.68
-2.12
-2.36
-2.40
-2.26
-2.02
-1.79
-1.65
-1.69
-1.93
-2.36
-2.92
-3.49
-4.00
-4.39
-4.67
-4.90
-5.08
-5.18
-5.14
-4.86
-4.34
-3.62
-2.79
-1.93
-1.01
0.03
1.31
2.84
4.56
6.27
7.77
8.89
9.59
9.93
10.07
10.10
10.08
10.00
9.84
9.58
9.26
8.95
8.74
8.64
8.64
8.67
8.65
8.51
8.22
7.79
7.25
6.63
5.97
5.33
4.73
4.20
3.71
3.25
2.76
2.21
1.61
1.01
0.47
0.09
-0.06
-0.01
0.19
0.43
0.58
0.52
0.19
-0.39
-1.14
-1.88
-2.42
-2.60
-2.32
-1.61
-0.56
0.62
1.73
2.61
3.14
3.30
3.11
2.60
1.84
0.90
-0.07
-0.91
-1.47
-1.62
-1.36
-0.78
-0.07
0.58
0.99
1.07
0.83
0.34
-0.29
-0.92
-1.45
-1.84
-2.10
-2.27
-2.40
-2.52
-2.60
-2.62
-2.59
-2.55
-2.59
-2.75
-2.98
-3.12
-2.98
-2.39
-1.31
0.10
1.59
2.85
3.67
3.98
3.88
3.53
3.12
2.73
2.39
2.07
1.75
1.44
1.16
0.95
0.82
0.81
0.93
1.23
1.71
2.32
2.99
3.57
3.99
4.21
4.24
4.12
3.84
3.36
2.63
1.67
0.57
-0.52
-1.47
-2.21
-2.81
-3.36
-3.98
-4.72
-5.58
-6.53
-7.61
-8.90
-10.52
-12.50
-14.74
-17.02
-19.07
-20.61
-21.52
-21.85
-21.77
-21.53
-21.29
-21.13
-21.07
-21.09
-21.23
-21.50
-21.83
-22.00
-21.65
-20.39
-17.97
-14.45
-10.10
-5.33
-0.51
4.05
8.18
11.81
14.92
17.50
19.51
20.96
21.86
22.29
22.23
21.67
20.73
19.61
18.50
17.49
16.61
15.81
15.08
14.26
13.26
12.13
11.02
10.05
9.16
8.23
7.09
5.65
3.60
0.66
-3.25
-7.99
-13.25
-18.58
-23.40
-27.09
-27.86
-24.85
-19.05
-12.79
-8.09
-5.59
-4.75
-4.62
-4.49
-4.16
-4.00
-4.59
-5.77
-6.97
-7.55
-7.20
-6.01
-4.34
-2.62
-1.31
-0.65
-0.47
-0.35
0.01
0.68
1.56
2.41
3.03
3.23
2.94
2.32
1.64
1.08
0.72
0.52
0.39
0.23
-0.02
-0.38
-0.82
-1.27
-1.67
-1.99
-2.14
-2.03
-1.57
-0.72
0.44
1.78
3.17
4.50
5.73
6.85
7.87
8.82
9.71
10.53
11.28
11.88
12.23
12.21
11.77
10.93
9.86
8.75
7.76
6.95
6.26
5.58
4.84
4.05
3.26
2.56
1.94
1.38
0.81
0.23
-0.26
-0.55
-0.52
-0.19
0.34
0.89
1.30
1.52
1.58
1.58
1.57
1.57
1.52
1.34
1.01
0.52
-0.05
-0.62
-1.12
-1.46
-1.55
-1.29
-0.64
0.40
1.73
3.15
4.42
5.34
5.87
6.08
6.12
6.12
6.07
5.87
5.41
4.66
3.71
2.79
2.08
1.68
1.51
1.45
1.35
1.21
1.04
0.92
0.85
0.77
0.59
0.27
-0.19
-0.70
-1.17
-1.52
-1.75
-1.94
-2.19
-2.53
-2.93
-3.31
-3.55
-3.59
-3.45
-3.25
-3.08
-3.01
-3.06
-3.17
-3.26
-3.32
-3.36
-3.43
-3.58
-3.79
-3.99
-4.07
-3.93
-3.55
-2.99
-2.39
-1.91
-1.61
-1.50
-1.48
-1.45
-1.33
-1.15
-0.94
-0.77
-0.66
-0.63
-0.66
-0.75
-0.84
-0.90
-0.87
-0.74
-0.52
-0.26
-0.05
0.10
0.15
0.11
-0.05
-0.37
-0.85
-1.42
-1.98
-2.37
-2.53
-2.44
-2.22
-1.99
-1.85
-1.87
-2.01
-2.22
-2.41
-2.52
-2.52
-2.40
-2.17
-1.87
-1.54
-1.20
-0.89
-0.60
-0.34
-0.10
0.09
0.24
0.33
0.37
0.35
0.27
0.15
0.00
-0.15
-0.26
-0.31
-0.23
-0.02
0.31
0.66
0.93
1.04
0.99
0.88
0.81
0.84
0.93
0.98
0.89
0.64
0.31
-0.01
-0.25
-0.41
-0.58
-0.81
-1.11
-1.40
-1.61
-1.73
-1.83
-2.04
-2.43
-2.99
-3.60
-4.13
-4.41
-4.38
-4.02
-3.40
-2.63
-1.82
-1.10
-0.53
-0.11
0.20
0.44
0.63
0.76
0.81
0.77
0.65
0.55
0.55
0.72
1.03
1.38
1.66
1.81
1.85
1.85
1.90
1.99
2.07
2.05
1.91
1.64
1.31
0.99
0.68
0.41
0.17
0.01
-0.03
0.04
0.09
-0.06
-0.58
-1.51
-2.72
-3.97
-5.01
-5.68
-5.98
-6.01
-5.91
-5.81
-5.77
-5.80
-5.88
-5.96
-6.02
-6.02
-5.94
-5.75
-5.41
-4.91
-4.29
-3.61
-2.99
-2.56
-2.44
-2.61
-2.97
-3.37
-3.64
-3.70
-3.56
-3.31
-3.02
-2.70
-2.31
-1.79
-1.12
-0.34
0.50
1.41
2.48
3.84
5.58
7.65
9.88
11.97
13.64
14.68
15.06
14.90
14.41
13.84
13.40
13.18
13.19
13.32
13.38
13.22
12.72
11.86
10.70
9.39
8.07
6.90
5.97
5.30
4.83
4.46
4.06
3.56
2.95
2.27
1.60
0.97
0.39
-0.22
-0.94
-1.81
-2.83
-3.90
-4.91
-5.76
-6.39
-6.82
-7.12
-7.35
-7.54
-7.67
-7.71
-7.58
-7.29
-6.89
-6.51
-6.24
-6.15
-6.22
-6.34
-6.39
-6.28
-5.98
-5.51
-4.87
-4.04
-2.97
-1.63
-0.09
1.47
2.83
3.78
4.24
4.26
4.03
3.74
3.56
3.48
3.44
3.29
2.99
2.58
2.21
2.02
2.08
2.30
2.50
2.51
2.27
1.88
1.50
1.31
1.34
1.52
1.71
1.80
1.76
1.66
1.56
1.53
1.56
1.54
1.41
1.13
0.77
0.48
0.38
0.54
0.94
1.44
1.92
2.27
2.49
2.62
2.68
2.72
2.70
2.59
2.41
2.22
2.13
2.20
2.42
2.69
2.89
2.91
2.75
2.51
2.32
2.28
2.37
2.49
2.45
2.17
1.66
1.04
0.48
0.06
-0.22
-0.46
-0.77
-1.24
-1.84
-2.50
-3.09
-3.57
-3.92
-4.16
-4.35
-4.49
-4.57
-4.59
-4.59
-4.58
-4.58
-4.56
-4.44
-4.09
-3.44
-2.49
-1.35
-0.20
0.74
1.28
1.36
1.00
0.35
-0.42
-1.16
-1.76
-2.19
-2.46
-2.55
-2.48
-2.21
-1.73
-1.06
-0.30
0.42
1.00
1.35
1.46
1.39
1.22
1.06
1.00
1.11
1.40
1.81
2.24
2.59
2.82
2.92
2.92
2.87
2.77
2.59
2.34
2.04
1.78
1.63
1.63
1.73
1.84
1.82
1.59
1.11
0.42
-0.41
-1.28
-2.07
-2.71
-3.18
-3.54
-3.85
-4.17
-4.49
-4.76
-4.91
-4.90
-4.73
-4.46
-4.13
-3.78
-3.42
-3.05
-2.69
-2.31
-1.91
-1.46
-0.94
-0.41
0.04
0.32
0.40
0.37
0.36
0.56
1.00
1.65
2.36
2.95
3.33
3.48
3.46
3.34
3.17
3.02
2.94
2.99
3.18
3.46
3.70
3.79
3.70
3.47
3.22
3.04
2.93
2.79
2.50
2.03
1.45
0.94
0.66
0.67
0.88
1.14
1.28
1.18
0.84
0.31
-0.32
-0.96
-1.49
-1.85
-1.98
-1.91
-1.76
-1.63
-1.61
-1.70
-1.82
-1.87
-1.77
-1.51
-1.15
-0.73
-0.31
0.11
0.60
1.19
1.94
2.83
3.76
4.61
5.24
5.58
5.65
5.57
5.50
5.53
5.70
5.95
6.15
6.17
5.92
5.34
4.49
3.48
2.50
1.76
1.36
1.29
1.36
1.30
0.92
0.14
-0.94
-2.13
-3.30
-4.41
-5.50
-6.63
-7.81
-8.95
-9.93
-10.69
-11.25
-11.72
-12.18
-12.70
-13.22
-13.69
-14.00
-14.12
-14.01
-13.68
-13.13
-12.34
-11.34
-10.16
-8.87
-7.61
-6.48
-5.54
-4.79
-4.14
-3.50
-2.76
-1.93
-1.05
-0.20
0.59
1.32
2.02
2.70
3.31
3.79
4.11
4.29
4.37
4.44
4.51
4.56
4.56
4.49
4.33
4.10
3.83
3.56
3.31
3.13
3.05
3.06
3.15
3.25
3.32
3.35
3.31
3.24
3.13
2.99
2.85
2.72
2.64
2.58
2.52
2.42
2.25
2.03
1.82
1.65
1.52
1.35
1.09
0.68
0.15
-0.44
-0.97
-1.38
-1.64
-1.76
-1.80
-1.82
-1.83
-1.84
-1.77
-1.61
-1.35
-1.04
-0.73
-0.44
-0.13
0.29
0.88
1.60
2.32
2.83
3.00
2.80
2.36
1.88
1.57
1.52
1.68
1.92
2.06
2.04
1.86
1.64
1.51
1.50
1.54
1.49
1.24
0.77
0.22
-0.21
-0.39
-0.29
-0.03
0.23
0.35
0.27
0.03
-0.33
-0.74
-1.17
-1.61
-2.03
-2.37
-2.60
-2.68
-2.64
-2.52
-2.40
-2.33
-2.37
-2.48
-2.62
-2.68
-2.58
-2.29
-1.84
-1.33
-0.84
-0.40
-0.02
0.34
0.68
0.98
1.19
1.28
1.24
1.09
0.93
0.80
0.76
0.77
0.80
0.79
0.73
0.66
0.67
0.82
1.11
1.42
1.64
1.66
1.50
1.25
1.05
0.97
0.96
0.87
0.58
0.02
-0.72
-1.53
-2.31
-3.00
-3.64
-4.24
-4.80
-5.22
-5.41
-5.32
-4.97
-4.47
-3.93
-3.45
-3.04
-2.68
-2.30
-1.85
-1.32
-0.72
-0.08
0.53
1.06
1.44
1.63
1.65
1.55
1.46
1.51
1.76
2.25
2.91
3.62
4.31
4.90
5.41
5.84
6.21
6.54
6.84
7.10
7.33
7.50
7.59
7.54
7.29
6.85
6.24
5.57
4.95
4.44
4.00
3.52
2.86
1.95
0.82
-0.38
-1.49
-2.34
-2.89
-3.17
-3.24
-3.19
-3.02
-2.72
-2.26
-1.66
-0.98
-0.31
0.28
0.74
1.09
1.34
1.49
1.50
1.36
1.06
0.67
0.29
0.00
-0.15
-0.19
-0.18
-0.19
-0.21
-0.23
-0.21
-0.16
-0.14
-0.23
-0.47
-0.83
-1.16
-1.31
-1.15
-0.69
-0.07
0.52
0.89
0.96
0.76
0.43
0.09
-0.14
-0.23
-0.17
0.03
0.35
0.82
1.40
2.04
2.69
3.29
3.83
4.33
4.81
5.27
5.66
5.93
6.00
5.83
5.44
4.87
4.19
3.49
2.86
2.34
1.95
1.67
1.47
1.34
1.29
1.32
1.44
1.59
1.66
1.55
1.24
0.79
0.35
0.05
-0.04
0.04
0.21
0.34
0.38
0.32
0.18
-0.04
-0.35
-0.73
-1.15
-1.52
-1.77
-1.84
-1.78
-1.66
-1.59
-1.65
-1.87
-2.22
-2.65
-3.12
-3.55
-3.92
-4.19
-4.36
-4.46
-4.50
-4.51
-4.48
-4.35
-4.11
-3.72
-3.22
-2.66
-2.10
-1.62
-1.24
-1.00
-0.88
-0.82
-0.77
-0.66
-0.45
-0.14
0.19
0.46
0.60
0.60
0.48
0.32
0.16
0.03
-0.08
-0.18
-0.25
-0.26
-0.19
-0.04
0.12
0.22
0.22
0.13
0.02
-0.06
-0.09
-0.13
-0.26
-0.54
-0.92
-1.29
-1.53
-1.55
-1.38
-1.17
-1.04
-1.10
-1.32
-1.61
-1.84
-1.95
-1.98
-2.00
-2.13
-2.40
-2.75
-3.11
-3.38
-3.58
-3.72
-3.84
-3.93
-3.94
-3.77
-3.42
-2.94
-2.44
-2.00
-1.68
-1.42
-1.14
-0.76
-0.27
0.24
0.68
0.94
1.00
0.93
0.83
0.79
0.89
1.08
1.31
1.48
1.53
1.43
1.22
1.01
0.89
0.93
1.13
1.43
1.72
1.89
1.90
1.76
1.56
1.42
1.40
1.50
1.63
1.72
1.69
1.57
1.43
1.35
1.42
1.60
1.79
1.88
1.76
1.44
1.01
0.61
0.37
0.28
0.28
0.24
0.12
-0.08
-0.26
-0.32
-0.27
-0.21
-0.32
-0.74
-1.43
-2.22
-2.83
-3.02
-2.73
-2.08
-1.34
-0.74
-0.44
-0.43
-0.61
-0.87
-1.13
-1.37
-1.58
-1.73
-1.76
-1.61
-1.28
-0.82
-0.36
-0.03
0.09
-0.00
-0.21
-0.40
-0.42
-0.23
0.14
0.55
0.84
0.94
0.86
0.72
0.65
0.74
0.97
1.23
1.38
1.37
1.22
1.03
0.92
0.93
1.03
1.13
1.17
1.11
0.94
0.69
0.41
0.12
-0.15
-0.37
-0.51
-0.59
-0.60
-0.60
-0.59
-0.61
-0.69
-0.84
-1.08
-1.43
-1.85
-2.33
-2.83
-3.33
-3.79
-4.23
-4.61
-4.88
-4.95
-4.78
-4.33
-3.65
-2.87
-2.12
-1.52
-1.14
-0.94
-0.83
-0.74
-0.60
-0.44
-0.31
-0.30
-0.41
-0.58
-0.68
-0.59
-0.27
0.24
0.81
1.31
1.66
1.82
1.81
1.66
1.40
1.06
0.71
0.44
0.30
0.33
0.47
0.61
0.66
0.59
0.42
0.22
0.06
-0.04
-0.09
-0.13
-0.22
-0.39
-0.62
-0.86
-1.00
-0.97
-0.77
-0.45
-0.15
0.02
0.00
-0.14
-0.29
-0.37
-0.36
-0.35
-0.44
-0.71
-1.12
-1.54
-1.84
-1.93
-1.80
-1.50
-1.12
-0.71
-0.31
0.04
0.32
0.49
0.57
0.61
0.65
0.71
0.76
0.76
0.70
0.61
0.57
0.67
0.93
1.30
1.66
1.93
2.04
2.04
1.99
1.95
1.93
1.89
1.78
1.59
1.36
1.15
0.98
0.85
0.68
0.42
0.05
-0.33
-0.56
-0.48
-0.03
0.69
1.40
1.81
1.75
1.23
0.48
-0.19
-0.57
-0.60
-0.45
-0.33
-0.43
-0.79
-1.30
-1.82
-2.25
-2.58
-2.90
-3.28
-3.73
-4.15
-4.40
-4.34
-3.93
-3.24
-2.42
-1.62
-0.96
-0.48
-0.18
-0.03
-0.01
-0.07
-0.13
-0.06
0.24
0.88
1.86
3.12
4.54
5.94
7.18
8.13
8.73
8.93
8.74
8.19
7.31
6.14
4.74
3.20
1.64
0.17
-1.06
-1.98
-2.53
-2.71
-2.61
-2.36
-2.12
-2.03
-2.17
-2.51
-2.94
-3.31
-3.57
-3.74
-3.95
-4.34
-4.98
-5.80
-6.65
-7.33
-7.73
-7.84
-7.75
-7.57
-7.38
-7.18
-6.88
-6.41
-5.71
-4.81
-3.80
-2.80
-1.91
-1.14
-0.47
0.16
0.76
1.27
1.59
1.62
1.34
0.80
0.19
-0.34
-0.67
-0.82
-0.90
-1.04
-1.32
-1.73
-2.19
-2.57
-2.84
-3.02
-3.17
-3.36
-3.60
-3.85
-4.04
-4.11
-4.05
-3.82
-3.43
-2.88
-2.22
-1.56
-1.02
-0.70
-0.64
-0.75
-0.92
-1.07
-1.16
-1.24
-1.40
-1.65
-1.97
-2.30
-2.57
-2.74
-2.78
-2.64
-2.26
-1.63
-0.85
-0.11
0.41
0.62
0.59
0.53
0.69
1.19
1.99
2.90
3.66
4.09
4.18
4.01
3.75
3.52
3.38
3.30
3.24
3.15
3.03
2.90
2.79
2.72
2.68
2.67
2.68
2.74
2.89
3.09
3.30
3.43
3.42
3.30
3.16
3.11
3.22
3.45
3.72
3.93
4.05
4.13
4.22
4.39
4.64
4.94
5.25
5.50
5.62
5.49
5.03
4.20
3.12
1.97
0.96
0.26
-0.12
-0.26
-0.34
-0.52
-0.84
-1.25
-1.61
-1.81
-1.79
-1.61
-1.42
-1.36
-1.51
-1.82
-2.14
-2.31
-2.24
-1.94
-1.51
-1.09
-0.75
-0.51
-0.37
-0.25
-0.12
0.07
0.32
0.64
1.00
1.34
1.57
1.65
1.56
1.37
1.17
1.07
1.10
1.27
1.49
1.72
1.90
2.05
2.22
2.47
2.83
3.28
3.73
4.06
4.12
3.77
2.99
1.85
0.56
-0.63
-1.49
-1.92
-1.96
-1.77
-1.50
-1.28
-1.12
-0.95
-0.71
-0.39
-0.03
0.26
0.42
0.45
0.42
0.40
0.44
0.52
0.53
0.37
0.02
-0.43
-0.85
-1.10
-1.12
-0.95
-0.67
-0.38
-0.13
0.05
0.14
0.09
-0.12
-0.50
-0.96
-1.41
-1.71
-1.82
-1.79
-1.75
-1.79
-1.98
-2.25
-2.50
-2.62
-2.54
-2.31
-2.02
-1.80
-1.75
-1.92
-2.28
-2.76
-3.26
-3.67
-3.89
-3.86
-3.60
-3.15
-2.58
-1.99
-1.44
-0.98
-0.66
-0.48
-0.44
-0.50
-0.62
-0.74
-0.85
-0.91
-0.93
-0.89
-0.78
-0.62
-0.42
-0.22
-0.06
0.05
0.14
0.23
0.34
0.47
0.63
0.78
0.96
1.17
1.40
1.63
1.81
1.91
1.90
1.82
1.69
1.58
1.55
1.62
1.79
2.00
2.20
2.30
2.31
2.25
2.21
2.23
2.33
2.45
2.52
2.52
2.48
2.46
2.49
2.58
2.66
2.72
2.75
2.76
2.80
2.84
2.86
2.81
2.70
2.57
2.47
2.40
2.33
2.19
1.95
1.64
1.35
1.14
1.01
0.90
0.72
0.46
0.15
-0.17
-0.47
-0.79
-1.19
-1.73
-2.36
-2.99
-3.46
-3.64
-3.49
-3.01
-2.27
-1.35
-0.32
0.69
1.62
2.42
3.11
3.76
4.42
5.07
5.62
5.92
5.88
5.53
5.01
4.53
4.23
4.15
4.18
4.17
4.01
3.67
3.20
2.69
2.17
1.63
1.06
0.47
-0.07
-0.44
-0.57
-0.47
-0.28
-0.19
-0.39
-0.94
-1.77
-2.70
-3.56
-4.20
-4.56
-4.66
-4.52
-4.16
-3.59
-2.83
-1.97
-1.16
-0.59
-0.40
-0.64
-1.19
-1.84
-2.38
-2.70
-2.83
-2.91
-3.11
-3.46
-3.87
-4.15
-4.13
-3.77
-3.17
-2.49
-1.90
-1.47
-1.23
-1.13
-1.11
-1.12
-1.10
-0.98
-0.72
-0.32
0.17
0.63
0.97
1.16
1.21
1.21
1.26
1.45
1.81
2.27
2.76
3.16
3.41
3.55
3.71
4.04
4.63
5.43
6.26
6.83
6.91
6.35
5.13
3.34
1.13
-1.35
-3.95
-6.54
-8.96
-11.05
-12.70
-13.89
-14.68
-15.21
-15.64
-16.10
-16.67
-17.33
-17.96
-18.43
-18.59
-18.44
-18.06
-17.69
-17.59
-17.96
-18.81
-19.98
-21.15
-21.95
-22.11
-21.51
-20.25
-18.56
-16.74
-15.07
-13.74
-12.85
-12.36
-12.22
-12.33
-12.56
-12.73
-12.63
-12.02
-10.78
-8.97
-6.82
-4.67
-2.76
-1.16
0.28
1.78
3.54
5.52
7.58
9.46
10.99
12.16
13.08
13.90
14.73
15.55
16.29
16.88
17.25
17.45
17.54
17.60
17.64
17.70
17.80
17.96
18.20
18.50
18.80
18.98
18.99
18.82
18.58
18.36
18.23
18.13
17.89
17.29
16.22
14.63
12.64
10.41
8.14
6.01
4.18
2.73
1.68
0.96
0.40
-0.18
-0.96
-1.99
-3.18
-4.36
-5.35
-6.05
-6.49
-6.75
-6.91
-6.99
-6.92
-6.64
-6.16
-5.55
-4.95
-4.47
-4.14
-3.89
-3.60
-3.17
-2.59
-1.95
-1.37
-1.01
-0.93
-1.12
-1.46
-1.80
-1.95
-1.78
-1.20
-0.22
1.06
2.48
3.84
4.98
5.72
6.01
5.83
5.32
4.62
3.90
3.26
2.71
2.16
1.51
0.68
-0.32
-1.40
-2.41
-3.23
-3.83
-4.23
-4.50
-4.70
-4.82
-4.81
-4.64
-4.29
-3.85
-3.43
-3.12
-2.97
-2.92
-2.88
-2.77
-2.57
-2.33
-2.10
-1.93
-1.81
-1.66
-1.44
-1.06
-0.53
0.14
0.93
1.77
2.58
3.25
3.70
3.88
3.82
3.61
3.36
3.17
3.12
3.22
3.45
3.75
4.05
4.27
4.37
4.30
4.06
3.67
3.17
2.63
2.13
1.73
1.46
1.31
1.23
1.13
0.92
0.58
0.09
-0.49
-1.12
-1.76
-2.37
-2.88
-3.23
-3.35
-3.22
-2.89
-2.43
-1.94
-1.45
-0.97
-0.46
0.09
0.69
1.26
1.76
2.18
2.53
2.90
3.33
3.84
4.36
4.83
5.19
5.43
5.59
5.74
5.93
6.20
6.50
6.74
6.85
6.75
6.46
6.06
5.64
5.27
4.96
4.71
4.46
4.22
4.00
3.80
3.61
3.37
3.01
2.52
1.93
1.29
0.62
-0.08
-0.85
-1.72
-2.65
-3.54
-4.26
-4.71
-4.87
-4.81
-4.66
-4.52
-4.47
-4.49
-4.52
-4.45
-4.21
-3.78
-3.20
-2.54
-1.89
-1.31
-0.84
-0.47
-0.18
0.05
0.20
0.29
0.31
0.29
0.28
0.30
0.37
0.52
0.74
1.04
1.40
1.81
2.23
2.61
2.87
2.96
2.86
2.59
2.19
1.72
1.22
0.71
0.25
-0.13
-0.43
-0.63
-0.79
-0.94
-1.13
-1.36
-1.62
-1.86
-2.05
-2.21
-2.36
-2.59
-2.95
-3.43
-3.96
-4.36
-4.50
-4.31
-3.83
-3.16
-2.42
-1.67
-0.91
-0.12
0.69
1.40
1.89
2.10
2.09
2.01
2.06
2.31
2.71
3.09
3.31
3.33
3.25
3.20
3.28
3.48
3.67
3.71
3.55
3.21
2.82
2.50
2.33
2.33
2.45
2.62
2.78
2.85
2.76
2.45
1.92
1.19
0.32
-0.57
-1.40
-2.08
-2.57
-2.88
-3.02
-3.04
-3.01
-2.97
-2.95
-2.94
-2.87
-2.65
-2.24
-1.63
-0.89
-0.17
0.43
0.82
1.01
1.08
1.12
1.22
1.42
1.70
2.00
2.27
2.52
2.75
2.99
3.23
3.44
3.58
3.61
3.54
3.42
3.28
3.15
3.02
2.86
2.65
2.41
2.18
2.01
1.88
1.74
1.50
1.13
0.62
0.06
-0.45
-0.86
-1.14
-1.37
-1.64
-2.01
-2.48
-2.96
-3.35
-3.61
-3.71
-3.69
-3.58
-3.36
-2.99
-2.43
-1.67
-0.78
0.12
0.89
1.43
1.72
1.81
1.82
1.84
1.94
2.11
2.30
2.44
2.52
2.58
2.69
2.92
3.28
3.70
4.08
4.32
4.35
4.14
3.74
3.20
2.62
2.10
1.73
1.57
1.61
1.79
2.02
2.18
2.19
1.99
1.58
1.02
0.42
-0.10
-0.44
-0.57
-0.56
-0.53
-0.64
-0.98
-1.59
-2.40
-3.28
-4.11
-4.77
-5.24
-5.52
-5.63
-5.58
-5.35
-4.89
-4.21
-3.36
-2.46
-1.63
-0.96
-0.45
-0.03
0.40
0.86
1.33
1.69
1.87
1.86
1.75
1.65
1.67
1.81
2.01
2.18
2.23
2.13
1.92
1.68
1.53
1.55
1.72
1.99
2.23
2.37
2.38
2.31
2.21
2.08
1.90
1.64
1.33
1.03
0.84
0.83
0.92
0.98
0.89
0.61
0.20
-0.25
-0.66
-1.04
-1.43
-1.85
-2.29
-2.68
-3.02
-3.34
-3.75
-4.31
-5.01
-5.75
-6.36
-6.71
-6.75
-6.51
-6.04
-5.43
-4.75
-4.05
-3.37
-2.77
-2.26
-1.87
-1.57
-1.34
-1.15
-0.94
-0.65
-0.27
0.20
0.73
1.27
1.78
2.21
2.56
2.80
2.91
2.89
2.75
2.56
2.43
2.43
2.59
2.88
3.23
3.53
3.70
3.70
3.53
3.19
2.76
2.31
1.90
1.60
1.41
1.30
1.22
1.11
0.92
0.66
0.35
0.09
-0.09
-0.16
-0.16
-0.13
-0.15
-0.23
-0.38
-0.58
-0.83
-1.17
-1.62
-2.17
-2.76
-3.29
-3.68
-3.93
-4.08
-4.26
-4.55
-4.94
-5.37
-5.75
-6.02
-6.13
-6.10
-5.92
-5.57
-5.04
-4.31
-3.44
-2.49
-1.54
-0.66
0.14
0.82
1.36
1.72
1.88
1.88
1.85
1.91
2.14
2.49
2.83
3.02
3.00
2.87
2.76
2.83
3.10
3.47
3.79
3.96
3.96
3.89
3.85
3.83
3.79
3.63
3.30
2.90
2.57
2.44
2.50
2.59
2.56
2.27
1.79
1.33
1.08
1.13
1.38
1.62
1.67
1.48
1.15
0.86
0.74
0.78
0.87
0.88
0.73
0.46
0.15
-0.12
-0.33
-0.54
-0.83
-1.25
-1.78
-2.36
-2.88
-3.32
-3.70
-4.12
-4.68
-5.38
-6.13
-6.78
-7.15
-7.16
-6.84
-6.32
-5.73
-5.13
-4.53
-3.90
-3.21
-2.52
-1.90
-1.39
-1.01
-0.72
-0.44
-0.12
0.27
0.68
1.07
1.40
1.65
1.85
2.02
2.19
2.37
2.59
2.84
3.09
3.24
3.24
3.04
2.70
2.32
2.04
1.95
2.06
2.31
2.56
2.68
2.60
2.31
1.85
1.32
0.82
0.43
0.17
0.02
-0.04
-0.08
-0.16
-0.30
-0.49
-0.74
-1.01
-1.26
-1.46
-1.55
-1.55
-1.51
-1.53
-1.70
-2.05
-2.56
-3.13
-3.66
-4.09
-4.37
-4.52
-4.54
-4.43
-4.20
-3.85
-3.37
-2.80
-2.15
-1.46
-0.78
-0.14
0.39
0.75
0.94
0.97
0.88
0.74
0.61
0.54
0.57
0.68
0.88
1.11
1.33
1.49
1.56
1.56
1.48
1.36
1.24
1.16
1.12
1.10
1.07
0.98
0.79
0.51
0.19
-0.11
-0.32
-0.46
-0.56
-0.68
-0.84
-1.05
-1.24
-1.40
-1.49
-1.51
-1.51
-1.50
-1.52
-1.59
-1.72
-1.92
-2.17
-2.44
-2.70
-2.94
-3.15
-3.34
-3.51
-3.64
-3.73
-3.75
-3.71
-3.63
-3.50
-3.32
-3.05
-2.66
-2.10
-1.36
-0.50
0.40
1.20
1.77
2.03
2.03
1.87
1.70
1.65
1.74
1.91
2.08
2.16
2.14
2.04
1.94
1.90
1.96
2.12
2.39
2.72
3.06
3.33
3.45
3.39
3.16
2.83
2.52
2.29
2.15
2.04
1.88
1.59
1.18
0.76
0.42
0.27
0.31
0.47
0.64
0.76
0.80
0.76
0.67
0.48
0.15
-0.38
-1.11
-1.95
-2.77
-3.44
-3.87
-4.07
-4.12
-4.14
-4.17
-4.23
-4.24
-4.13
-3.89
-3.56
-3.19
-2.77
-2.26
-1.60
-0.79
0.08
0.85
1.37
1.59
1.57
1.44
1.32
1.29
1.37
1.53
1.74
1.95
2.16
2.35
2.51
2.67
2.84
3.01
3.11
3.07
2.83
2.40
1.87
1.39
1.07
0.92
0.90
0.91
0.90
0.84
0.74
0.58
0.34
-0.01
-0.44
-0.83
-1.09
-1.18
-1.15
-1.17
-1.39
-1.87
-2.53
-3.21
-3.76
-4.11
-4.30
-4.43
-4.58
-4.75
-4.85
-4.80
-4.56
-4.15
-3.63
-3.07
-2.49
-1.85
-1.14
-0.38
0.37
0.97
1.34
1.43
1.30
1.05
0.81
0.66
0.64
0.75
0.96
1.21
1.47
1.67
1.79
1.80
1.72
1.58
1.45
1.38
1.42
1.57
1.76
1.91
1.92
1.77
1.49
1.15
0.86
0.67
0.62
0.69
0.86
1.09
1.34
1.56
1.69
1.67
1.49
1.20
0.83
0.45
0.07
-0.28
-0.59
-0.89
-1.18
-1.51
-1.90
-2.35
-2.82
-3.20
-3.37
-3.25
-2.84
-2.23
-1.54
-0.89
-0.32
0.21
0.73
1.26
1.71
1.99
2.04
1.91
1.75
1.75
2.02
2.49
2.97
3.23
3.16
2.81
2.37
2.08
2.05
2.23
2.46
2.58
2.49
2.21
1.85
1.53
1.33
1.26
1.28
1.34
1.40
1.41
1.35
1.18
0.91
0.54
0.12
-0.29
-0.67
-0.96
-1.16
-1.27
-1.31
-1.32
-1.34
-1.38
-1.46
-1.59
-1.77
-2.02
-2.36
-2.79
-3.28
-3.78
-4.18
-4.41
-4.42
-4.22
-3.85
-3.38
-2.85
-2.29
-1.68
-1.04
-0.41
0.17
0.62
0.92
1.13
1.31
1.55
1.84
2.13
2.31
2.37
2.34
2.34
2.47
2.76
3.13
3.45
3.58
3.48
3.21
2.86
2.57
2.41
2.39
2.46
2.54
2.57
2.48
2.25
1.91
1.54
1.20
0.96
0.80
0.70
0.58
0.38
0.09
-0.25
-0.60
-0.91
-1.20
-1.52
-1.92
-2.38
-2.85
-3.23
-3.43
-3.47
-3.44
-3.49
-3.75
-4.27
-4.98
-5.70
-6.26
-6.51
-6.39
-5.93
-5.21
-4.35
-3.44
-2.55
-1.74
-1.04
-0.49
-0.12
0.11
0.26
0.44
0.70
1.08
1.53
1.94
2.26
2.46
2.59
2.70
2.85
3.03
3.18
3.24
3.21
3.11
3.01
2.97
2.99
3.05
3.05
2.93
2.64
2.20
1.65
1.11
0.67
0.39
0.31
0.40
0.61
0.85
1.02
1.05
0.90
0.57
0.14
-0.32
-0.71
-1.01
-1.26
-1.52
-1.83
-2.16
-2.43
-2.56
-2.51
-2.36
-2.25
-2.35
-2.70
-3.22
-3.72
-3.97
-3.80
-3.21
-2.30
-1.29
-0.37
0.31
0.73
0.93
1.01
1.06
1.17
1.40
1.74
2.17
2.64
3.02
3.19
3.07
2.61
1.94
1.21
0.64
0.36
0.40
0.68
1.08
1.46
1.75
1.95
2.04
2.02
1.86
1.52
1.02
0.42
-0.16
-0.57
-0.75
-0.70
-0.52
-0.38
-0.40
-0.61
-0.95
-1.31
-1.61
-1.85
-2.07
-2.33
-2.65
-3.01
-3.36
-3.68
-3.96
-4.21
-4.38
-4.42
-4.25
-3.85
-3.26
-2.59
-1.96
-1.45
-1.07
-0.78
-0.53
-0.26
0.05
0.39
0.75
1.08
1.36
1.57
1.68
1.72
1.74
1.81
1.96
2.16
2.32
2.36
2.23
1.99
1.76
1.65
1.69
1.79
1.84
1.74
1.48
1.15
0.83
0.54
0.23
-0.15
-0.62
-1.13
-1.59
-1.89
-1.99
-1.94
-1.81
-1.68
-1.61
-1.61
-1.65
-1.69
-1.73
-1.78
-1.89
-2.08
-2.30
-2.48
-2.52
-2.36
-2.01
-1.53
-1.00
-0.45
0.10
0.64
1.11
1.46
1.62
1.59
1.41
1.10
0.70
0.18
-0.44
-1.11
-1.73
-2.22
-2.57
-2.84
-3.16
-3.64
-4.31
-5.10
-5.93
-6.70
-7.36
-7.90
-8.31
-8.60
-8.74
-8.72
-8.51
-8.15
-7.70
-7.22
-6.76
-6.30
-5.81
-5.21
-4.46
-3.57
-2.58
-1.54
-0.50
0.53
1.51
2.43
3.21
3.86
4.34
4.68
4.88
4.91
4.76
4.44
4.03
3.62
3.34
3.26
3.36
3.60
3.92
4.32
4.83
5.48
6.28
7.20
8.13
9.01
9.78
10.39
10.79
10.92
10.72
10.16
9.34
8.42
7.58
6.92
6.40
5.89
5.16
4.10
2.75
1.32
0.07
-0.80
-1.26
-1.47
-1.64
-1.97
-2.48
-3.09
-3.63
-3.97
-4.09
-4.07
-4.02
-4.00
-4.01
-4.01
-4.01
-4.04
-4.20
-4.54
-5.04
-5.56
-5.89
-5.88
-5.46
-4.71
-3.81
-2.94
-2.25
-1.81
-1.61
-1.62
-1.76
-1.98
-2.21
-2.37
-2.40
-2.24
-1.82
-1.17
-0.35
0.52
1.30
1.91
2.35
2.68
3.00
3.38
3.82
4.27
4.65
4.92
5.05
5.07
5.01
4.91
4.76
4.55
4.27
3.94
3.60
3.29
3.07
2.97
2.99
3.11
3.29
3.43
3.47
3.36
3.10
2.76
2.47
2.31
2.31
2.41
2.55
2.61
2.57
2.42
2.19
1.95
1.73
1.56
1.41
1.24
1.00
0.68
0.33
0.06
-0.04
0.03
0.21
0.35
0.33
0.15
-0.16
-0.52
-0.89
-1.31
-1.80
-2.39
-3.03
-3.65
-4.20
-4.69
-5.18
-5.67
-6.15
-6.54
-6.77
-6.80
-6.65
-6.34
-5.89
-5.29
-4.52
-3.58
-2.53
-1.48
-0.52
0.30
0.99
1.63
2.28
3.02
3.88
4.84
5.88
6.92
7.89
8.69
9.26
9.59
9.76
9.87
10.05
10.33
10.70
11.08
11.40
11.64
11.79
11.89
11.94
11.97
11.98
12.06
12.27
12.66
13.20
13.76
14.13
14.08
13.41
11.96
9.64
6.45
2.54
-1.78
-6.11
-10.02
-13.23
-15.68
-17.56
-19.13
-20.64
-22.12
-23.46
-24.43
-24.79
-24.42
-23.35
-21.69
-19.61
-17.25
-14.73
-12.12
-9.43
-6.70
-4.01
-1.47
0.77
2.60
4.00
5.05
5.88
6.66
7.48
8.33
9.16
9.88
10.37
10.45
9.92
8.58
6.34
3.29
-0.29
-3.97
-7.31
-10.06
-12.11
-13.54
-14.44
-14.84
-14.71
-14.01
-12.76
-11.10
-9.24
-7.39
-5.65
-4.06
-2.58
-1.16
0.21
1.50
2.68
3.74
4.66
5.44
6.05
6.54
6.97
7.45
8.05
8.74
9.38
9.75
9.68
9.06
7.91
6.32
4.41
2.30
0.09
-2.06
-4.02
-5.69
-7.04
-8.12
-8.93
-9.43
-9.47
-8.90
-7.68
-5.92
-3.80
-1.52
0.79
3.14
5.59
8.12
10.58
12.70
14.20
14.82
14.30
12.51
9.46
5.43
0.93
-3.48
-7.33
-10.28
-12.34
-13.84
-15.20
-16.61
-17.92
-18.69
-18.59
-17.51
-15.54
-12.95
-10.20
-7.62
-5.27
-2.97
-0.39
2.41
5.15
7.49
9.09
9.46
8.25
5.35
0.99
-4.21
-9.75
-15.09
-19.70
-21.75
-20.15
-15.35
-9.16
-4.66
-2.02
-0.69
-0.10
0.47
1.15
1.65
1.69
1.36
1.11
1.64
3.10
5.16
7.24
8.70
8.95
7.72
5.24
2.02
-1.20
-4.12
-6.66
-8.83
-10.74
-12.51
-14.25
-15.92
-17.38
-18.40
-18.93
-18.99
-18.61
-17.78
-16.51
-14.80
-12.63
-10.00
-6.91
-3.46
0.21
4.00
7.78
11.36
14.54
17.14
19.09
20.48
21.48
22.27
22.95
23.53
23.91
23.99
23.71
23.07
22.12
20.99
19.76
18.55
17.44
16.47
15.63
14.83
13.94
12.86
11.56
10.10
8.63
7.29
6.21
5.41
4.87
4.48
4.14
3.73
3.18
2.50
1.75
1.08
0.62
0.41
0.42
0.50
0.49
0.25
-0.25
-1.00
-1.91
-2.89
-3.88
-4.84
-5.71
-6.44
-6.99
-7.38
-7.64
-7.86
-8.07
-8.29
-8.46
-8.49
-8.24
-7.65
-6.73
-5.58
-4.36
-3.23
-2.30
-1.56
-0.97
-0.45
0.09
0.67
1.27
1.84
2.27
2.49
2.46
2.22
1.91
1.66
1.56
1.60
1.70
1.74
1.63
1.40
1.12
0.88
0.70
0.57
0.44
0.27
0.09
-0.09
-0.28
-0.53
-0.86
-1.30
-1.81
-2.31
-2.70
-2.96
-3.07
-3.06
-2.94
-2.69
-2.24
-1.60
-0.78
0.09
0.88
1.50
1.89
2.08
2.16
2.18
2.19
2.19
2.18
2.17
2.16
2.20
2.31
2.44
2.56
2.62
2.55
2.39
2.17
1.97
1.84
1.81
1.88
1.99
2.10
2.17
2.16
2.09
1.95
1.78
1.58
1.39
1.18
0.95
0.68
0.37
0.06
-0.23
-0.43
-0.54
-0.60
-0.66
-0.78
-0.98
-1.22
-1.47
-1.69
-1.91
-2.20
-2.64
-3.23
-3.90
-4.50
-4.91
-5.03
-4.87
-4.49
-3.94
-3.26
-2.46
-1.59
-0.70
0.09
0.71
1.11
1.29
1.33
1.32
1.36
1.52
1.81
2.18
2.52
2.69
2.65
2.44
2.20
2.05
2.09
2.27
2.47
2.57
2.50
2.29
2.03
1.78
1.58
1.40
1.20
0.98
0.76
0.57
0.40
0.27
0.16
0.08
0.02
-0.05
-0.20
-0.50
-0.98
-1.58
-2.17
-2.59
-2.73
-2.60
-2.32
-2.04
-1.84
-1.76
-1.78
-1.86
-2.00
-2.19
-2.42
-2.65
-2.77
-2.69
-2.36
-1.80
-1.13
-0.49
0.02
0.39
0.68
0.93
1.17
1.36
1.49
1.54
1.54
1.57
1.64
1.74
1.84
1.92
1.99
2.06
2.15
2.20
2.14
1.92
1.57
1.20
0.92
0.80
0.79
0.77
0.62
0.30
-0.11
-0.45
-0.59
-0.48
-0.22
0.04
0.15
0.05
-0.21
-0.54
-0.85
-1.09
-1.30
-1.51
-1.75
-2.00
-2.22
-2.37
-2.47
-2.54
-2.64
-2.81
-3.01
-3.19
-3.28
-3.21
-2.94
-2.45
-1.77
-0.97
-0.11
0.73
1.52
2.21
2.77
3.18
3.38
3.39
3.21
2.94
2.66
2.45
2.35
2.34
2.32
2.22
2.00
1.63
1.15
0.55
-0.16
-1.01
-1.96
-2.97
-3.89
-4.60
-5.02
-5.17
-5.15
-5.05
-4.96
-4.86
-4.72
-4.45
-4.04
-3.52
-2.96
-2.43
-1.98
-1.67
-1.53
-1.59
-1.84
-2.25
-2.72
-3.15
-3.41
-3.43
-3.21
-2.81
-2.30
-1.76
-1.20
-0.63
-0.01
0.65
1.34
2.00
2.54
2.92
3.11
3.15
3.09
3.02
3.04
3.19
3.49
3.85
4.18
4.35
4.30
4.05
3.70
3.37
3.14
3.03
3.02
3.05
3.11
3.19
3.28
3.36
3.37
3.28
3.08
2.81
2.49
2.16
1.84
1.53
1.29
1.14
1.11
1.20
1.35
1.45
1.40
1.16
0.74
0.19
-0.44
-1.13
-1.90
-2.74
-3.57
-4.31
-4.83
-5.05
-4.98
-4.69
-4.29
-3.85
-3.39
-2.92
-2.42
-1.96
-1.62
-1.45
-1.45
-1.55
-1.61
-1.59
-1.50
-1.44
-1.52
-1.77
-2.14
-2.49
-2.69
-2.69
-2.56
-2.44
-2.44
-2.57
-2.71
-2.76
-2.65
-2.40
-2.11
-1.83
-1.56
-1.25
-0.84
-0.34
0.18
0.63
0.95
1.16
1.33
1.52
1.77
2.06
2.32
2.47
2.44
2.20
1.79
1.30
0.87
0.62
0.59
0.72
0.87
0.87
0.63
0.15
-0.50
-1.21
-1.89
-2.48
-2.96
-3.30
-3.44
-3.31
-2.85
-2.07
-1.04
0.07
1.10
1.93
2.54
2.99
3.38
3.76
4.14
4.47
4.73
4.95
5.20
5.58
6.13
6.83
7.59
8.29
8.87
9.34
9.73
10.10
10.43
10.67
10.68
10.39
9.79
8.98
8.14
7.42
6.88
6.44
5.92
5.10
3.88
2.28
0.50
-1.25
-2.79
-4.04
-5.04
-5.84
-6.50
-7.04
-7.45
-7.74
-7.91
-8.04
-8.21
-8.53
-9.04
-9.76
-10.57
-11.31
-11.78
-11.82
-11.36
-10.45
-9.24
-7.90
-6.57
-5.31
-4.09
-2.83
-1.44
0.16
1.95
3.85
5.72
7.39
8.73
9.70
10.34
10.76
11.05
11.25
11.26
10.93
10.08
8.67
6.80
4.69
2.62
0.80
-0.68
-1.81
-2.69
-3.40
-3.99
-4.48
-4.85
-5.10
-5.24
-5.35
-5.50
-5.75
-6.09
-6.47
-6.81
-7.03
-7.11
-7.08
-6.97
-6.81
-6.56
-6.16
-5.56
-4.70
-3.59
-2.27
-0.83
0.60
1.88
2.88
3.52
3.81
3.87
3.87
3.99
4.34
4.92
5.63
6.33
6.83
7.03
6.86
6.28
5.33
4.07
2.61
1.11
-0.28
-1.42
-2.28
-2.92
-3.45
-3.99
-4.58
-5.15
-5.59
-5.74
-5.51
-4.93
-4.06
-3.00
-1.90
-0.83
0.12
0.92
1.58
2.13
2.66
3.22
3.83
4.46
5.00
5.32
5.28
4.80
3.87
2.60
1.18
-0.14
-1.20
-1.88
-2.25
-2.44
-2.58
-2.77
-2.98
-3.12
-3.09
-2.86
-2.46
-1.99
-1.55
-1.20
-0.91
-0.64
-0.33
0.03
0.41
0.80
1.20
1.66
2.23
2.94
3.76
4.60
5.34
5.83
5.97
5.68
4.97
3.91
2.64
1.34
0.17
-0.71
-1.26
-1.49
-1.53
-1.55
-1.74
-2.22
-2.99
-3.90
-4.75
-5.33
-5.57
-5.49
-5.22
-4.87
-4.52
-4.14
-3.73
-3.30
-2.91
-2.64
-2.53
-2.56
-2.66
-2.74
-2.75
-2.68
-2.54
-2.34
-2.09
-1.79
-1.47
-1.19
-1.03
-1.04
-1.22
-1.54
-1.87
-2.14
-2.28
-2.31
-2.29
-2.31
-2.40
-2.54
-2.67
-2.71
-2.61
-2.35
-1.93
-1.40
-0.82
-0.26
0.23
0.64
0.98
1.29
1.58
1.87
2.18
2.51
2.84
3.16
3.45
3.70
3.94
4.23
4.64
5.19
5.84
6.45
6.85
6.90
6.55
5.86
4.94
3.92
2.85
1.76
0.64
-0.44
-1.41
-2.13
-2.52
-2.60
-2.48
-2.30
-2.16
-2.13
-2.13
-2.06
-1.82
-1.38
-0.78
-0.19
0.24
0.42
0.36
0.16
-0.04
-0.15
-0.19
-0.23
-0.37
-0.64
-1.02
-1.43
-1.86
-2.36
-3.03
-3.93
-5.01
-6.13
-7.08
-7.74
-8.04
-8.05
-7.88
-7.59
-7.23
-6.83
-6.35
-5.79
-5.16
-4.48
-3.78
-3.11
-2.55
-2.13
-1.90
-1.83
-1.82
-1.80
-1.65
-1.34
-0.89
-0.36
0.13
0.51
0.73
0.82
0.82
0.81
0.85
0.98
1.22
1.59
2.08
2.63
3.18
3.64
3.93
4.00
3.86
3.60
3.28
3.01
2.79
2.66
2.59
2.55
2.52
2.44
2.28
2.01
1.64
1.23
0.84
0.50
0.19
-0.11
-0.42
-0.72
-0.97
-1.16
-1.31
-1.48
-1.74
-2.10
-2.49
-2.79
-2.89
-2.79
-2.53
-2.18
-1.79
-1.35
-0.83
-0.22
0.44
1.07
1.61
2.05
2.37
2.58
2.66
2.61
2.46
2.27
2.16
2.17
2.29
2.43
2.53
2.56
2.57
2.62
2.73
2.82
2.82
2.69
2.44
2.17
1.94
1.80
1.72
1.69
1.67
1.65
1.64
1.61
1.52
1.35
1.09
0.77
0.44
0.12
-0.20
-0.54
-0.91
-1.29
-1.57
-1.70
-1.61
-1.39
-1.16
-1.11
-1.36
-1.92
-2.64
-3.33
-3.77
-3.85
-3.56
-2.96
-2.16
-1.27
