1650350678.00
64.000000
-0.00
-0.00
-0.00
-0.00
-0.00
-0.00
-0.00
-0.00
-0.00
-0.00
0.00
0.01
0.01
-0.00
-0.03
-0.05
-0.05
0.00
0.13
0.36
0.66
1.01
1.37
1.72
2.06
2.40
2.79
3.24
3.80
4.42
5.06
5.66
6.20
6.68
7.15
7.68
8.31
9.14
10.09
11.04
11.88
12.56
13.14
13.76
14.65
15.96
17.91
20.32
22.90
25.38
27.58
29.57
31.68
34.32
37.81
42.54
48.15
54.10
59.83
64.97
69.58
74.14
79.34
85.71
93.76
103.00
112.62
121.73
129.77
136.75
143.30
150.75
157.77
166.64
177.95
191.79
206.97
220.57
228.25
225.36
208.53
176.87
132.76
80.05
23.07
-34.94
-92.44
-149.16
-205.23
-260.37
-313.74
-363.87
-409.83
-450.91
-486.50
-515.74
-537.23
-549.22
-549.96
-538.37
-514.21
-478.67
-433.88
-382.45
-327.02
-269.84
-212.63
-156.66
-102.95
-52.37
-5.90
35.58
71.43
101.35
125.50
144.38
158.69
169.15
176.37
180.76
182.60
182.10
179.53
175.22
169.57
163.01
155.89
148.48
140.94
133.34
125.68
117.99
110.32
102.73
95.29
88.09
81.20
74.63
68.39
62.45
56.77
51.33
46.12
41.17
36.55
32.32
28.50
25.05
21.89
18.88
15.94
13.03
10.26
7.75
5.69
4.13
3.03
2.15
1.22
0.02
-1.50
-3.19
-4.73
-5.80
-6.24
-6.14
-5.87
-5.88
-6.53
-7.88
-9.65
-11.34
-12.48
-12.81
-12.46
-11.83
-11.40
-11.56
-12.57
-14.52
-17.35
-20.65
-23.42
-24.16
-21.32
-14.05
-2.77
10.69
23.79
34.23
40.78
43.59
43.74
42.50
40.68
38.43
35.44
31.41
26.37
20.68
14.85
9.18
3.65
-2.05
-8.27
-15.05
-21.85
-27.61
-31.14
-31.57
-28.84
-23.74
-17.58
-11.70
-6.96
-3.55
-1.11
0.94
3.15
5.74
8.72
11.87
14.89
17.50
19.56
21.02
21.98
22.54
22.74
22.58
22.03
21.18
20.23
19.48
19.17
19.33
19.68
19.69
18.86
16.92
13.91
10.33
6.50
2.79
-0.69
-3.94
-7.03
-9.92
-12.46
-14.43
-15.64
-16.08
-15.86
-15.23
-14.47
-13.77
-13.17
-12.63
-12.05
-11.40
-10.78
-10.28
-10.00
-9.93
-9.95
-9.88
-9.60
-9.03
-8.27
-7.50
-6.91
-6.66
-6.82
-7.32
-7.91
-8.22
-7.88
-6.62
-4.43
-1.59
1.42
4.06
5.93
6.83
6.83
6.14
4.98
3.54
1.91
0.12
-1.72
-3.49
-4.95
-5.91
-6.27
-6.10
-5.66
-5.26
-5.21
-5.62
-6.38
-7.23
-7.89
-8.22
-8.23
-8.25
-8.51
-9.12
-10.05
-11.12
-12.15
-13.03
-13.76
-14.48
-15.36
-16.56
-18.19
-20.26
-22.67
-25.13
-27.20
-28.37
-28.16
-26.31
-22.87
-18.17
-12.76
-7.20
-1.93
2.75
6.66
9.62
11.50
12.24
11.93
10.86
9.47
8.34
7.92
8.48
9.97
12.04
14.22
16.02
17.18
17.69
17.78
17.69
17.58
17.38
16.88
15.87
14.27
12.23
9.99
7.81
5.76
3.78
1.67
-0.79
-3.71
-7.08
-10.70
-14.22
-17.14
-18.94
-19.23
-17.84
-14.94
-10.92
-6.26
-1.44
3.22
7.52
11.33
14.50
16.81
18.10
18.30
17.52
16.05
14.30
12.64
11.35
10.57
10.26
10.29
10.46
10.58
10.50
10.16
9.59
8.81
7.84
6.65
5.17
3.38
1.39
-0.56
-2.24
-3.49
-4.40
-5.21
-6.22
-7.68
-9.68
-12.15
-14.97
-17.94
-20.76
-23.06
-24.36
-24.28
-22.62
-19.50
-15.27
-10.42
-5.41
-0.61
3.66
7.16
9.64
10.97
11.19
10.51
9.28
7.88
6.60
5.63
5.07
4.96
5.24
5.76
6.30
6.61
6.58
6.25
5.84
5.60
5.62
5.78
5.77
5.28
4.22
2.76
1.27
0.10
-0.65
-1.18
-1.89
-3.15
-5.11
-7.67
-10.51
-13.22
-15.42
-16.79
-17.04
-15.93
-13.39
-9.51
-4.64
0.69
5.89
10.45
14.08
16.70
18.35
19.13
19.17
18.63
17.71
16.72
15.92
15.52
15.55
15.88
16.29
16.59
16.70
16.65
16.59
16.62
16.77
16.94
17.00
16.79
16.19
15.17
13.76
12.07
10.25
8.42
6.72
5.18
3.78
2.44
1.03
-0.53
-2.17
-3.69
-4.77
-5.03
-4.24
-2.34
0.52
4.04
7.87
11.65
15.10
17.92
19.91
20.86
20.71
19.52
17.49
14.90
12.06
9.24
6.60
4.26
2.24
0.55
-0.82
-1.85
-2.49
-2.71
-2.57
-2.22
-1.90
-1.90
-2.43
-3.57
-5.23
-7.23
-9.33
-11.30
-12.93
-14.06
-14.57
-14.47
-13.88
-13.06
-12.26
-11.60
-10.94
-9.88
-7.99
-4.97
-0.86
3.97
9.02
13.78
17.87
21.05
23.13
23.97
23.46
21.68
18.88
15.50
12.04
8.91
6.41
4.62
3.50
2.90
2.56
2.17
1.42
0.04
-2.11
-5.06
-8.71
-12.81
-17.05
-21.03
-24.40
-26.92
-28.55
-29.43
-29.83
-30.00
-30.12
-30.21
-30.14
-29.63
-28.31
-25.82
-21.90
-16.55
-10.03
-2.80
4.62
11.84
18.69
25.17
31.31
37.05
42.23
46.73
50.54
53.83
56.89
59.96
63.08
66.11
68.75
70.72
71.87
72.17
71.59
70.10
67.57
63.93
59.26
53.94
48.58
43.78
39.93
37.03
34.80
32.73
30.37
27.38
23.50
18.61
12.74
6.16
-0.58
-6.77
-11.79
-15.39
-17.87
-19.89
-22.17
-25.06
-28.44
-31.79
-34.54
-36.45
-37.72
-38.91
-40.65
-43.25
-46.53
-49.90
-52.61
-54.03
-53.87
-52.33
-49.93
-47.46
-45.72
-45.46
-47.18
-51.07
-56.94
-64.27
-72.28
-80.08
-86.82
-91.80
-94.58
-95.05
-93.47
-90.37
-86.38
-82.00
-77.33
-72.10
-65.86
-58.28
-49.40
-39.73
-30.02
-20.99
-13.07
-6.32
-0.63
4.11
7.89
10.58
12.07
12.46
12.08
11.41
10.94
10.93
11.45
12.33
13.34
14.26
14.93
15.27
15.21
14.70
13.71
12.26
10.42
8.33
6.14
3.98
1.91
-0.12
-2.27
-4.75
-7.77
-11.34
-15.25
-18.95
-21.75
-22.97
-22.16
-19.31
-14.81
-9.35
-3.66
1.64
6.18
9.76
12.33
13.91
14.57
14.46
13.81
12.91
12.08
11.59
11.56
11.98
12.75
13.71
14.70
15.60
16.32
16.78
16.89
16.61
15.95
14.95
13.73
12.41
11.11
9.89
8.74
7.58
6.23
4.47
2.12
-0.80
-4.00
-6.93
-8.88
-9.28
-7.85
-4.79
-0.63
3.90
8.16
11.71
14.35
16.05
16.84
16.72
15.74
14.01
11.83
9.58
7.73
6.61
6.31
6.69
7.45
8.27
8.97
9.47
9.82
10.01
10.02
9.77
9.24
8.50
7.72
7.03
6.49
6.00
5.37
4.38
2.89
0.88
-1.47
-3.81
-5.66
-6.51
-6.06
-4.24
-1.31
2.23
5.83
9.03
11.58
13.36
14.37
14.58
13.99
12.62
10.61
8.19
5.66
3.28
1.25
-0.31
-1.42
-2.14
-2.53
-2.72
-2.81
-2.88
-2.96
-3.06
-3.13
-3.12
-3.00
-2.79
-2.57
-2.46
-2.64
-3.27
-4.40
-5.94
-7.55
-8.71
-8.83
-7.49
-4.55
-0.21
5.08
10.78
16.40
21.59
26.10
29.79
32.58
34.46
35.55
36.03
36.16
36.07
35.77
35.07
33.63
31.03
26.93
21.22
14.11
6.09
-2.12
-9.82
-16.43
-21.66
-25.43
-27.87
-29.16
-29.54
-29.30
-28.80
-28.43
-28.52
-29.21
-30.41
-31.73
-32.65
-32.65
-31.38
-28.70
-24.70
-19.59
-13.66
-7.17
-0.46
6.16
12.31
17.67
21.99
25.12
27.00
27.71
27.43
26.49
25.41
24.72
24.81
25.75
27.14
28.26
28.31
26.76
23.51
18.89
13.37
7.32
0.87
-6.03
-13.34
-20.84
-28.12
-34.75
-40.45
-45.25
-49.27
-52.54
-54.87
-55.83
-55.02
-52.27
-47.82
-42.16
-35.87
-29.40
-22.96
-16.64
-10.53
-4.81
0.19
4.24
7.26
9.40
10.99
12.37
13.75
15.17
16.56
17.79
18.82
19.66
20.33
20.77
20.76
20.04
18.39
15.77
12.35
8.40
4.13
-0.41
-5.35
-10.82
-16.78
-23.02
-29.13
-34.73
-39.47
-43.11
-45.45
-46.24
-45.27
-42.45
-37.94
-32.19
-25.81
-19.36
-13.23
-7.61
-2.57
1.84
5.54
8.44
10.50
11.75
12.31
12.31
11.92
11.26
10.45
9.59
8.79
8.14
7.65
7.29
6.98
6.59
6.03
5.22
4.13
2.78
1.22
-0.52
-2.39
-4.36
-6.39
-8.46
-10.54
-12.50
-14.13
-15.08
-14.93
-13.40
-10.42
-6.27
-1.45
3.41
7.80
11.39
14.09
15.95
17.10
17.73
18.09
18.48
19.20
20.39
22.01
23.80
25.40
26.47
26.86
26.58
25.78
24.68
23.45
22.25
21.22
20.50
20.25
20.54
21.35
22.52
23.79
24.86
25.52
25.67
25.37
24.86
24.51
24.73
25.91
28.25
31.64
35.64
39.65
43.12
45.82
47.99
50.22
53.29
57.84
64.18
72.14
81.18
90.47
99.05
106.00
110.51
112.10
110.71
106.81
101.32
95.35
89.95
85.73
82.81
80.79
79.05
77.01
74.39
71.12
67.29
62.82
57.50
51.01
43.18
34.15
24.40
14.47
4.80
-4.47
-13.39
-22.00
-30.08
-37.16
-42.65
-46.21
-47.92
-48.34
-48.29
-48.48
-49.30
-50.72
-52.39
-53.89
-54.86
-55.14
-54.75
-53.86
-52.74
-51.72
-51.14
-51.25
-52.16
-53.72
-55.57
-57.30
-58.55
-59.14
-59.17
-58.91
-58.72
-59.03
-60.30
-62.90
-67.10
-72.83
-79.62
-86.61
-92.66
-96.58
-97.39
-94.47
-87.67
-77.37
-64.43
-49.99
-35.29
-21.41
-9.02
1.62
10.59
18.09
24.31
29.35
33.27
36.19
38.31
39.85
40.98
41.77
42.23
42.37
42.26
42.08
42.11
42.75
44.35
47.12
50.96
55.33
59.41
62.36
63.58
62.89
60.48
56.67
51.71
45.71
38.74
31.14
23.65
17.36
13.34
12.32
14.42
19.14
25.62
32.87
39.96
45.98
49.97
50.91
47.94
40.81
30.18
17.73
5.84
-3.18
-7.83
-8.02
-5.05
-1.12
1.50
1.18
-2.62
-9.47
-18.26
-27.74
-36.79
-44.59
-50.63
-54.64
-56.60
-56.72
-55.53
-53.79
-52.36
-51.96
-52.93
-55.10
-57.81
-60.09
-61.10
-60.37
-58.08
-54.85
-51.51
-48.65
-46.42
-44.60
-42.86
-41.13
-39.69
-39.02
-39.48
-40.99
-42.95
-44.39
-44.34
-42.08
-37.34
-30.27
-21.31
-11.10
-0.43
9.83
18.70
25.16
28.24
27.26
22.12
13.39
2.35
-9.27
-19.75
-27.81
-32.78
-34.61
-33.61
-30.35
-25.52
-19.97
-14.59
-10.22
-7.46
-6.68
-8.10
-11.84
-17.72
-24.98
-32.25
-38.04
-41.50
-42.99
-43.96
-46.12
-50.42
-56.49
-62.95
-68.53
-72.77
-76.04
-78.71
-80.20
-78.95
-73.40
-63.47
-51.43
-41.28
-37.17
-41.50
-53.96
-71.92
-91.71
-110.04
-124.91
-135.50
-141.79
-143.90
-141.85
-135.55
-125.12
-110.96
-93.93
-75.25
-56.29
-38.31
-22.22
-8.53
2.48
10.48
14.95
15.45
12.03
5.66
-1.89
-8.66
-13.37
-15.77
-16.42
-15.87
-14.05
-10.16
-3.35
6.56
18.60
31.03
42.03
50.38
55.60
57.60
56.36
51.79
44.13
34.28
23.88
14.68
7.84
3.41
0.31
-2.97
-7.68
-14.13
-21.52
-28.23
-32.34
-32.32
-27.49
-18.35
-6.44
6.07
17.08
25.09
29.63
31.18
30.81
29.65
28.50
27.70
27.27
27.07
27.01
27.11
27.42
27.97
28.70
29.50
30.22
30.72
30.89
30.73
30.31
29.78
29.30
28.96
28.76
28.59
28.32
27.80
26.89
25.47
23.39
20.53
16.89
12.74
8.60
5.21
3.33
3.49
5.86
10.20
15.95
22.40
28.86
34.74
39.63
43.30
45.69
46.87
47.03
46.40
45.27
43.90
42.50
41.24
40.21
39.42
38.86
38.49
38.24
38.07
37.89
37.58
37.03
36.17
35.02
33.65
32.23
30.92
29.86
29.12
28.65
28.28
27.77
26.89
25.61
24.18
23.13
23.08
24.61
27.94
32.93
39.08
45.71
52.09
57.58
61.69
64.07
64.58
63.31
60.57
56.84
52.67
48.55
44.85
41.75
39.24
37.18
35.30
33.33
31.03
28.33
25.27
21.98
18.65
15.39
12.25
9.27
6.45
3.82
1.42
-0.77
-2.81
-4.84
-7.03
-9.56
-12.57
-16.00
-19.60
-22.87
-25.20
-26.06
-25.14
-22.53
-18.63
-14.01
-9.25
-4.76
-0.80
2.53
5.18
7.08
8.21
8.64
8.52
8.11
7.65
7.30
7.05
6.79
6.43
5.96
5.52
5.24
5.07
4.75
3.74
1.54
-2.14
-7.15
-12.95
-18.80
-24.05
-28.41
-32.02
-35.28
-38.67
-42.38
-46.31
-50.00
-52.87
-54.40
-54.27
-52.36
-48.69
-43.43
-36.84
-29.34
-21.52
-13.97
-7.12
-1.13
4.06
8.63
12.68
16.17
18.96
20.96
22.22
22.97
23.44
23.81
24.12
24.31
24.30
24.02
23.40
22.33
20.68
18.34
15.32
11.76
7.97
4.28
0.99
-1.78
-3.99
-5.79
-7.41
-9.12
-11.17
-13.74
-16.82
-20.14
-23.14
-25.17
-25.55
-23.94
-20.39
-15.36
-9.55
-3.68
1.74
6.48
10.50
13.86
16.53
18.44
19.53
19.80
19.49
18.86
18.17
17.49
16.71
15.64
14.14
12.11
9.47
6.09
1.75
-3.61
-9.72
-15.84
-20.89
-23.85
-24.13
-21.89
-17.94
-13.41
-9.33
-6.34
-4.59
-3.83
-3.65
-3.58
-3.14
-2.00
0.03
2.94
6.41
10.00
13.22
15.72
17.34
18.14
18.29
17.97
17.33
16.52
15.70
15.11
14.95
15.42
16.57
18.32
20.48
22.83
25.18
27.45
29.64
31.74
33.65
35.02
35.30
33.76
29.70
22.66
12.62
0.06
-14.08
-28.59
-42.27
-54.17
-63.79
-71.06
-76.18
-79.42
-80.92
-80.71
-78.76
-75.20
-70.32
-64.51
-58.07
-51.14
-43.67
-35.57
-26.96
-18.14
-9.66
-2.07
4.28
9.31
13.24
16.46
19.34
22.03
24.46
26.32
27.32
27.25
26.17
24.41
22.37
20.43
18.79
17.48
16.35
15.14
13.54
11.29
8.24
4.43
0.11
-4.39
-8.71
-12.54
-15.61
-17.61
-18.17
-16.92
-13.69
-8.67
-2.45
4.10
10.01
14.59
17.52
18.92
19.16
18.73
18.00
17.19
16.40
15.62
14.87
14.14
13.41
12.57
11.52
10.17
8.53
6.77
5.10
3.67
2.52
1.57
0.66
-0.35
-1.50
-2.74
-4.00
-5.25
-6.52
-7.95
-9.69
-11.81
-14.20
-16.52
-18.25
-18.80
-17.73
-14.90
-10.49
-4.99
1.01
6.97
12.60
17.87
23.00
28.29
33.95
39.96
45.97
51.36
55.49
57.83
58.30
57.17
55.12
53.04
51.85
52.40
55.27
60.67
68.30
77.42
86.97
95.84
103.27
108.91
112.80
115.06
115.60
113.95
109.30
100.89
88.39
72.19
53.39
33.58
14.27
-3.33
-18.56
-31.12
-40.86
-47.55
-50.85
-50.51
-46.61
-39.74
-30.98
-21.72
-13.30
-6.70
-2.29
0.16
1.42
2.40
3.74
5.52
7.16
7.82
6.87
4.25
0.50
-3.50
-7.04
-9.79
-11.74
-12.94
-13.27
-12.44
-10.34
-7.32
-4.24
-2.23
-2.16
-4.15
-7.44
-10.66
-12.31
-11.41
-7.81
-2.29
3.84
9.21
12.92
14.90
15.78
16.55
18.00
20.18
22.28
22.81
20.21
13.56
3.00
-10.30
-24.65
-38.49
-50.99
-62.04
-71.99
-81.08
-89.12
-95.49
-99.61
-101.34
-101.25
-100.44
-100.03
-100.73
-102.57
-105.07
-107.57
-109.65
-111.30
-112.80
-114.40
-116.10
-117.52
-118.08
-117.38
-115.45
-112.79
-110.15
-108.12
-106.84
-105.93
-104.76
-102.84
-100.13
-97.16
-94.79
-93.91
-95.03
-98.17
-102.75
-107.71
-111.74
-113.57
-112.38
-108.09
-101.46
-93.72
-85.97
-78.57
-71.03
-62.38
-51.85
-39.48
-26.18
-13.25
-1.65
8.30
16.99
24.94
32.39
39.20
45.05
49.85
53.98
58.05
62.61
67.84
73.42
78.78
83.27
86.43
88.07
88.21
87.01
84.71
81.59
78.01
74.27
70.67
67.39
64.44
61.69
58.90
55.85
52.39
48.49
44.25
39.76
35.11
30.33
25.45
20.51
15.66
11.07
6.85
2.98
-0.80
-4.86
-9.50
-14.66
-19.72
-23.58
-25.00
-23.09
-17.73
-9.72
-0.45
8.54
16.14
21.89
25.88
28.40
29.71
29.92
29.06
27.32
25.09
22.92
21.32
20.59
20.70
21.41
22.36
23.15
23.52
23.31
22.52
21.27
19.64
17.64
15.17
12.12
8.47
4.40
0.20
-3.87
-7.70
-11.39
-15.12
-18.93
-22.57
-25.46
-26.92
-26.40
-23.72
-19.14
-13.27
-6.79
-0.34
5.64
10.88
15.19
18.34
20.13
20.45
19.32
16.99
13.94
10.70
7.81
5.61
4.22
3.53
3.32
3.33
3.32
3.14
2.74
2.08
1.20
0.10
-1.18
-2.63
-4.25
-6.12
-8.38
-11.09
-14.19
-17.35
-20.00
-21.51
-21.36
-19.33
-15.58
-10.54
-4.74
1.27
7.10
12.41
16.97
20.60
23.17
24.57
24.83
24.09
22.58
20.65
18.64
16.89
15.57
14.70
14.13
13.67
13.10
12.34
11.39
10.28
9.03
7.58
5.86
3.79
1.39
-1.30
-4.25
-7.48
-11.04
-14.91
-18.88
-22.49
-25.12
-26.12
-25.08
-21.89
-16.81
-10.38
-3.26
3.87
10.45
16.04
20.41
23.46
25.25
25.93
25.68
24.70
23.24
21.53
19.85
18.42
17.37
16.67
16.19
15.77
15.27
14.59
13.70
12.60
11.28
9.71
7.90
5.89
3.69
1.35
-1.20
-4.06
-7.37
-11.18
-15.31
-19.35
-22.65
-24.48
-24.30
-21.88
-17.40
-11.34
-4.41
2.68
9.31
15.03
19.53
22.66
24.43
24.98
24.54
23.37
21.75
19.88
17.91
15.98
14.21
12.73
11.63
10.92
10.55
10.43
10.47
10.57
10.62
10.50
10.16
9.57
8.80
7.96
7.13
6.26
5.18
3.56
1.07
-2.46
-6.89
-11.73
-16.17
-19.32
-20.49
-19.33
-15.95
-10.81
-4.59
2.08
8.61
14.56
19.52
23.17
25.33
26.01
25.46
24.07
22.30
20.51
18.89
17.54
16.42
15.53
14.84
14.39
14.18
14.19
14.31
14.33
14.01
13.15
11.65
9.57
7.11
4.49
1.88
-0.68
-3.23
-5.89
-8.75
-11.89
-15.34
-19.00
-22.59
-25.64
-27.49
-27.51
-25.33
-20.97
-14.92
-7.92
-0.80
5.80
11.46
15.98
19.25
21.19
21.78
21.15
19.58
17.51
15.34
13.34
11.58
9.94
8.31
6.64
5.01
3.56
2.42
1.58
0.94
0.33
-0.42
-1.38
-2.55
-3.84
-5.13
-6.31
-7.30
-8.16
-9.03
-10.17
-11.82
-14.05
-16.67
-19.12
-20.62
-20.39
-17.92
-13.17
-6.61
0.98
8.70
15.77
21.76
26.49
30.03
32.58
34.30
35.31
35.63
35.25
34.15
32.47
30.48
28.54
27.07
26.36
26.53
27.50
28.94
30.44
31.53
31.88
31.38
30.15
28.45
26.63
24.95
23.55
22.37
21.09
19.18
15.96
10.82
3.53
-5.54
-15.28
-24.05
-30.11
-32.12
-29.56
-22.79
-12.86
-1.15
10.98
22.44
32.42
40.47
46.34
50.04
51.73
51.75
50.57
48.68
46.50
44.32
42.23
40.17
38.10
35.98
33.92
32.03
30.32
28.66
26.83
24.72
22.42
20.32
18.88
18.35
18.59
19.06
18.94
17.41
13.78
7.56
-1.44
-13.11
-26.97
-42.13
-57.48
-71.95
-84.77
-95.57
-104.31
-111.05
-115.80
-118.48
-119.04
-117.70
-114.97
-111.75
-109.20
-108.57
-110.88
-116.52
-124.87
-134.12
-141.55
-144.28
-140.20
-128.76
-111.14
-89.78
-67.47
-46.46
-27.96
-12.21
1.10
12.36
21.82
29.56
35.66
40.29
43.70
46.12
47.60
48.04
47.30
45.30
42.15
38.12
33.53
28.67
23.65
18.47
13.02
7.24
1.29
-4.43
-9.27
-12.50
-13.54
-12.16
-8.59
-3.47
2.35
8.07
13.07
17.01
19.73
21.15
21.29
20.23
18.23
15.72
13.24
11.24
9.93
9.23
8.83
8.41
7.89
7.43
7.34
7.89
9.08
10.60
11.96
12.72
12.66
11.84
10.52
9.01
7.49
6.00
4.43
2.56
0.21
-2.75
-6.33
-10.33
-14.32
-17.73
-19.94
-20.44
-19.03
-15.79
-11.13
-5.65
0.05
5.43
10.07
13.74
16.32
17.76
18.11
17.50
16.17
14.46
12.77
11.45
10.70
10.56
10.87
11.42
12.01
12.58
13.14
13.70
14.18
14.40
14.12
13.19
11.57
9.33
6.64
3.63
0.49
-2.66
-5.68
-8.51
-11.20
-13.92
-16.91
-20.32
-24.07
-27.70
-30.53
-31.84
-31.10
-28.13
-23.08
-16.36
-8.50
-0.16
7.98
15.19
20.88
24.66
26.52
26.78
25.95
24.60
23.13
21.75
20.54
19.50
18.63
17.94
17.48
17.21
17.09
17.04
16.95
16.69
16.15
15.21
13.82
11.99
9.80
7.40
4.96
2.61
0.41
-1.72
-3.97
-6.61
-9.86
-13.79
-18.20
-22.56
-26.10
-28.01
-27.70
-24.99
-20.14
-13.79
-6.73
0.35
6.87
12.46
16.83
19.84
21.41
21.66
20.84
19.33
17.55
15.85
14.49
13.61
13.25
13.32
13.69
14.16
14.57
14.82
14.84
14.56
13.87
12.63
10.72
8.15
5.09
1.88
-1.16
-3.82
-6.11
-8.20
-10.37
-12.91
-15.98
-19.59
-23.59
-27.56
-30.91
-32.91
-32.89
-30.41
-25.48
-18.60
-10.58
-2.36
5.27
11.81
17.05
20.93
23.42
24.52
24.23
22.72
20.35
17.60
14.97
12.82
11.29
10.34
9.82
9.61
9.64
9.85
10.20
10.55
10.73
10.54
9.87
8.73
7.20
5.42
3.53
1.61
-0.37
-2.47
-4.84
-7.60
-10.85
-14.55
-18.47
-22.19
-25.08
-26.52
-26.01
-23.41
-18.92
-13.10
-6.61
-0.09
6.03
11.50
16.17
19.88
22.42
23.54
23.16
21.47
18.93
16.17
13.78
12.10
11.16
10.75
10.61
10.54
10.49
10.47
10.49
10.44
10.10
9.22
7.62
5.26
2.28
-1.02
-4.32
-7.31
-9.88
-12.09
-14.23
-16.69
-19.81
-23.71
-28.14
-32.49
-35.89
-37.43
-36.45
-32.67
-26.35
-18.11
-8.83
0.60
9.35
16.80
22.50
26.19
27.84
27.68
26.16
23.87
21.38
19.15
17.42
16.21
15.40
14.85
14.43
14.09
13.83
13.68
13.62
13.59
13.43
12.91
11.82
10.08
7.75
5.05
2.23
-0.47
-2.98
-5.42
-8.03
-11.10
-14.82
-19.14
-23.69
-27.77
-30.53
-31.14
-29.12
-24.44
-17.62
-9.52
-1.17
6.54
12.97
17.85
21.17
23.15
24.00
23.93
23.06
21.51
19.46
17.20
15.09
13.49
12.57
12.29
12.43
12.69
12.79
12.62
12.19
11.62
10.94
10.12
9.03
7.53
5.55
3.18
0.66
-1.78
-4.02
-6.12
-8.34
-11.01
-14.33
-18.23
-22.29
-25.77
-27.78
-27.60
-24.90
-19.88
-13.26
-6.04
0.87
6.82
11.55
15.06
17.45
18.75
18.94
18.04
16.26
14.04
11.85
10.10
8.96
8.32
7.95
7.60
7.16
6.67
6.23
5.90
5.58
5.09
4.14
2.56
0.29
-2.52
-5.57
-8.51
-11.07
-13.16
-14.97
-16.87
-19.27
-22.43
-26.28
-30.37
-33.97
-36.26
-36.55
-34.52
-30.23
-24.11
-16.81
-9.09
-1.61
5.10
10.69
14.98
17.91
19.49
19.74
18.81
16.94
14.50
11.93
9.69
8.08
7.16
6.80
6.75
6.77
6.75
6.68
6.59
6.45
6.11
5.35
3.95
1.92
-0.57
-3.17
-5.57
-7.60
-9.29
-10.84
-12.53
-14.60
-17.23
-20.49
-24.26
-28.20
-31.70
-34.01
-34.39
-32.37
-27.94
-21.55
-13.96
-6.03
1.57
8.36
14.11
18.66
21.90
23.70
24.02
22.96
20.86
18.24
15.68
13.65
12.38
11.81
11.67
11.64
11.54
11.31
11.06
10.88
10.76
10.61
10.21
9.41
8.10
6.30
4.13
1.78
-0.53
-2.61
-4.37
-5.86
-7.28
-8.93
-11.11
-13.98
-17.53
-21.49
-25.38
-28.56
-30.37
-30.24
-27.92
-23.51
-17.49
-10.58
-3.61
2.72
7.96
11.90
14.51
15.88
16.10
15.30
13.66
11.49
9.19
7.17
5.76
5.05
4.90
5.01
5.11
5.07
4.92
4.78
4.72
4.68
4.46
3.84
2.67
1.01
-0.94
-2.86
-4.48
-5.66
-6.48
-7.20
-8.13
-9.56
-11.61
-14.22
-17.18
-20.13
-22.66
-24.34
-24.79
-23.71
-21.00
-16.78
-11.42
-5.50
0.38
5.70
10.11
13.39
15.45
16.23
15.76
14.20
11.88
9.33
7.09
5.60
5.03
5.26
5.98
6.86
7.62
8.13
8.34
8.25
7.86
7.15
6.12
4.79
3.16
1.26
-0.90
-3.26
-5.67
-7.99
-10.06
-11.84
-13.41
-15.02
-16.92
-19.33
-22.18
-25.12
-27.56
-28.82
-28.36
-25.96
-21.77
-16.27
-10.06
-3.74
2.24
7.56
12.00
15.39
17.60
18.56
18.35
17.18
15.42
13.46
11.71
10.45
9.84
9.83
10.24
10.83
11.41
11.88
12.24
12.51
12.71
12.77
12.56
11.95
10.85
9.30
7.42
5.43
3.54
1.88
0.47
-0.81
-2.17
-3.83
-5.93
-8.43
-11.10
-13.49
-15.07
-15.30
-13.83
-10.54
-5.65
0.34
6.74
12.90
18.32
22.78
26.27
28.90
30.81
32.05
32.65
32.71
32.43
32.08
31.90
31.99
32.27
32.48
32.37
31.78
30.69
29.19
27.35
25.13
22.37
18.84
14.38
8.95
2.78
-3.75
-10.21
-16.24
-21.66
-26.60
-31.37
-36.33
-41.66
-47.26
-52.60
-56.97
-59.58
-59.91
-57.86
-53.78
-48.32
-42.18
-35.96
-30.00
-24.47
-19.43
-15.03
-11.42
-8.79
-7.18
-6.47
-6.37
-6.54
-6.66
-6.53
-6.08
-5.31
-4.28
-3.10
-1.88
-0.72
0.27
1.01
1.47
1.59
1.34
0.68
-0.41
-1.83
-3.40
-4.94
-6.31
-7.58
-8.94
-10.68
-13.04
-16.07
-19.53
-22.88
-25.39
-26.34
-25.26
-22.08
-17.15
-11.16
-4.87
1.08
6.33
10.66
14.00
16.26
17.35
17.25
16.12
14.29
12.22
10.29
8.75
7.63
6.83
6.24
5.76
5.42
5.30
5.49
6.03
6.87
7.79
8.48
8.60
7.90
6.33
4.08
1.50
-1.05
-3.31
-5.25
-7.06
-9.02
-11.35
-14.13
-17.27
-20.52
-23.45
-25.56
-26.36
-25.47
-22.81
-18.61
-13.36
-7.72
-2.28
2.54
6.52
9.62
11.84
13.18
13.63
13.26
12.24
10.89
9.56
8.61
8.20
8.35
8.88
9.55
10.15
10.54
10.71
10.66
10.40
9.88
9.02
7.73
6.03
4.06
2.03
0.19
-1.34
-2.58
-3.71
-5.05
-6.85
-9.26
-12.19
-15.35
-18.22
-20.21
-20.80
-19.68
-16.88
-12.74
-7.86
-2.87
1.65
5.38
8.24
10.28
11.62
12.34
12.44
11.92
10.83
9.33
7.69
6.21
5.11
4.46
4.21
4.23
4.39
4.62
4.88
5.07
5.01
4.42
3.10
0.97
-1.81
-4.90
-7.89
-10.47
-12.52
-14.17
-15.72
-17.49
-19.76
-22.65
-26.06
-29.69
-33.07
-35.64
-36.87
-36.41
-34.29
-30.86
-26.76
-22.71
-19.27
-16.75
-15.16
-14.32
-14.03
-14.11
-14.41
-14.74
-14.80
-14.15
-12.35
-9.10
-4.36
1.62
8.40
15.49
22.47
29.00
34.86
39.77
43.49
45.78
46.52
45.76
43.71
40.71
37.14
33.31
29.49
25.84
22.44
19.25
16.15
12.95
9.51
5.87
2.29
-0.79
-2.85
-3.47
-2.51
-0.13
3.28
7.17
11.02
14.41
17.15
19.14
20.40
20.93
20.72
19.77
18.16
16.09
13.87
11.83
10.18
8.96
8.05
7.32
6.67
6.14
5.85
5.89
6.19
6.54
6.66
6.30
5.38
4.00
2.43
0.97
-0.16
-0.92
-1.45
-2.01
-2.88
-4.25
-6.10
-8.17
-9.99
-11.03
-10.86
-9.28
-6.40
-2.62
1.57
5.63
9.17
11.89
13.62
14.28
13.92
12.74
11.05
9.18
7.42
5.89
4.57
3.41
2.36
1.41
0.63
0.03
-0.39
-0.69
-0.94
-1.17
-1.39
-1.63
-1.93
-2.35
-2.93
-3.66
-4.46
-5.27
-6.05
-6.88
-7.92
-9.39
-11.53
-14.40
-17.86
-21.46
-24.56
-26.49
-26.74
-25.14
-21.93
-17.60
-12.76
-7.94
-3.50
0.39
3.63
6.11
7.74
8.48
8.43
7.86
7.10
6.44
6.02
5.83
5.73
5.60
5.41
5.26
5.26
5.51
5.94
6.38
6.60
6.42
5.78
4.73
3.42
2.00
0.58
-0.80
-2.17
-3.57
-4.99
-6.43
-7.87
-9.30
-10.62
-11.69
-12.28
-12.09
-10.88
-8.56
-5.20
-1.04
3.61
8.36
12.85
16.70
19.56
21.17
21.43
20.52
18.80
16.80
14.93
13.46
12.41
11.64
11.02
10.44
9.92
9.48
9.10
8.69
8.11
7.27
6.15
4.77
3.18
1.44
-0.47
-2.53
-4.71
-6.97
-9.25
-11.53
-13.81
-16.12
-18.42
-20.68
-22.84
-24.82
-26.47
-27.57
-27.80
-26.82
-24.46
-20.83
-16.31
-11.46
-6.82
-2.70
0.78
3.66
5.96
7.62
8.55
8.72
8.27
7.46
6.56
5.74
5.00
4.30
3.58
2.89
2.40
2.24
2.43
2.83
3.18
3.20
2.73
1.75
0.38
-1.15
-2.63
-3.87
-4.77
-5.38
-5.85
-6.41
-7.26
-8.47
-10.00
-11.62
-13.04
-13.95
-14.09
-13.30
-11.52
-8.85
-5.45
-1.59
2.44
6.34
9.86
12.80
14.98
16.29
16.70
16.30
15.31
14.02
12.70
11.52
10.55
9.75
9.11
8.68
8.51
8.62
8.91
9.17
9.12
8.58
7.53
6.10
4.49
2.85
1.26
-0.26
-1.72
-3.12
-4.46
-5.81
-7.30
-9.07
-11.20
-13.64
-16.10
-18.15
-19.31
-19.22
-17.78
-15.20
-11.90
-8.29
-4.72
-1.31
1.93
4.99
7.76
10.01
11.48
12.04
11.75
10.92
9.92
9.11
8.68
8.68
9.02
9.55
10.09
10.44
10.47
10.09
9.31
8.21
6.86
5.38
3.80
2.16
0.50
-1.09
-2.55
-3.79
-4.87
-5.89
-7.01
-8.33
-9.94
-11.86
-14.03
-16.30
-18.42
-19.98
-20.55
-19.79
-17.62
-14.28
-10.29
-6.22
-2.53
0.53
2.99
4.90
6.34
7.32
7.82
7.91
7.73
7.50
7.38
7.40
7.52
7.59
7.50
7.22
6.83
6.44
6.15
6.01
5.98
5.98
5.88
5.56
4.90
3.87
2.54
1.05
-0.39
-1.65
-2.66
-3.54
-4.45
-5.56
-7.00
-8.75
-10.71
-12.68
-14.38
-15.51
-15.79
-15.05
-13.30
-10.76
-7.78
-4.75
-1.95
0.51
2.60
4.34
5.65
6.41
6.50
5.94
4.95
3.85
2.99
2.58
2.64
3.04
3.59
4.16
4.70
5.21
5.69
6.09
6.29
6.14
5.58
4.60
3.33
1.91
0.48
-0.91
-2.27
-3.66
-5.19
-6.92
-8.85
-10.93
-13.04
-15.04
-16.71
-17.79
-18.03
-17.19
-15.18
-12.07
-8.15
-3.80
0.50
4.37
7.53
9.89
11.44
12.27
12.49
12.20
11.50
10.53
9.48
8.54
7.86
7.46
7.26
7.12
6.87
6.48
6.00
5.54
5.12
4.71
4.16
3.33
2.19
0.85
-0.47
-1.60
-2.48
-3.24
-4.11
-5.27
-6.82
-8.69
-10.72
-12.74
-14.60
-16.16
-17.27
-17.74
-17.35
-16.01
-13.76
-10.85
-7.65
-4.54
-1.77
0.58
2.52
4.09
5.26
5.95
6.07
5.61
4.71
3.67
2.77
2.25
2.13
2.33
2.63
2.90
3.11
3.28
3.46
3.59
3.54
3.14
2.31
1.06
-0.50
-2.18
-3.79
-5.25
-6.49
-7.60
-8.70
-9.97
-11.56
-13.50
-15.68
-17.82
-19.56
-20.60
-20.72
-19.90
-18.26
-15.97
-13.23
-10.24
-7.17
-4.21
-1.47
0.90
2.82
4.20
5.08
5.52
5.66
5.69
5.75
5.93
6.20
6.43
6.46
6.16
5.47
4.47
3.28
2.06
0.98
0.12
-0.52
-0.99
-1.43
-1.96
-2.66
-3.51
-4.48
-5.48
-6.56
-7.79
-9.33
-11.23
-13.41
-15.56
-17.20
-17.83
-17.08
-14.82
-11.25
-6.80
-2.00
2.62
6.66
9.87
12.21
13.73
14.54
14.77
14.52
13.90
13.04
12.09
11.23
10.60
10.26
10.19
10.33
10.58
10.86
11.11
11.25
11.19
10.82
10.04
8.83
7.24
5.38
3.41
1.46
-0.38
-2.14
-3.89
-5.78
-7.98
-10.55
-13.40
-16.27
-18.73
-20.33
-20.72
-19.77
-17.57
-14.41
-10.63
-6.59
-2.55
1.24
4.60
7.41
9.58
11.12
12.05
12.46
12.45
12.13
11.64
11.13
10.76
10.59
10.62
10.72
10.71
10.44
9.84
8.91
7.72
6.31
4.70
2.85
0.71
-1.66
-4.15
-6.56
-8.73
-10.60
-12.23
-13.81
-15.52
-17.41
-19.41
-21.25
-22.58
-23.04
-22.36
-20.43
-17.33
-13.29
-8.67
-3.84
0.83
5.06
8.63
11.40
13.31
14.42
14.88
14.93
14.80
14.62
14.36
13.85
12.89
11.39
9.45
7.35
5.45
4.01
3.10
2.55
2.09
1.48
0.57
-0.62
-2.00
-3.48
-5.03
-6.67
-8.46
-10.37
-12.38
-14.47
-16.65
-18.96
-21.38
-23.78
-25.84
-27.13
-27.23
-25.93
-23.31
-19.69
-15.57
-11.37
-7.39
-3.77
-0.60
2.02
3.89
4.90
5.01
4.46
3.62
2.94
2.73
3.10
3.91
4.92
5.88
6.65
7.21
7.62
7.94
8.18
8.25
8.00
7.33
6.24
4.89
3.50
2.28
1.31
0.46
-0.54
-1.94
-3.87
-6.24
-8.82
-11.25
-13.19
-14.38
-14.57
-13.65
-11.59
-8.53
-4.78
-0.76
3.13
6.56
9.35
11.42
12.74
13.36
13.28
12.56
11.29
9.66
7.84
6.06
4.45
3.11
2.04
1.22
0.56
-0.01
-0.61
-1.39
-2.45
-3.84
-5.54
-7.42
-9.35
-11.22
-12.96
-14.59
-16.12
-17.60
-19.08
-20.69
-22.53
-24.65
-26.85
-28.66
-29.38
-28.30
-24.90
-19.08
-11.22
-2.03
7.51
16.36
23.59
28.38
30.18
28.87
24.77
18.78
12.14
6.19
1.95
-0.12
-0.21
1.02
2.77
4.39
5.60
6.45
7.13
7.79
8.44
8.89
8.94
8.49
7.54
6.29
4.99
3.79
2.73
1.65
0.28
-1.61
-4.16
-7.20
-10.35
-13.05
-14.76
-15.06
-13.77
-11.01
-7.10
-2.50
2.33
6.98
11.13
14.58
17.19
18.89
19.64
19.49
18.59
17.16
15.51
13.93
12.61
11.61
10.88
10.31
9.81
9.35
8.92
8.52
8.08
7.50
6.64
5.41
3.81
1.93
-0.05
-1.99
-3.75
-5.35
-6.90
-8.60
-10.63
-13.04
-15.67
-18.16
-20.00
-20.72
-20.01
-17.82
-14.36
-10.00
-5.18
-0.30
4.28
8.29
11.52
13.78
14.99
15.20
14.57
13.33
11.72
9.94
8.13
6.39
4.82
3.49
2.45
1.65
0.97
0.30
-0.48
-1.45
-2.65
-4.08
-5.77
-7.73
-9.92
-12.28
-14.73
-17.23
-19.80
-22.51
-25.44
-28.61
-31.91
-35.07
-37.75
-39.56
-40.18
-39.45
-37.35
-34.10
-30.04
-25.58
-21.14
-17.00
-13.27
-9.85
-6.54
-3.08
0.73
4.99
9.76
15.00
20.68
26.67
32.80
38.75
44.17
48.65
51.86
53.56
53.74
52.57
50.36
47.55
44.51
41.52
38.70
36.04
33.50
31.01
28.51
25.96
23.34
20.73
18.42
16.88
16.67
18.26
21.74
26.80
32.72
38.64
43.75
47.45
49.41
49.47
47.62
43.95
38.72
32.39
25.60
19.07
13.39
8.88
5.61
3.43
2.11
1.50
1.48
1.98
2.88
4.00
5.14
6.16
7.07
8.00
9.17
10.77
12.90
15.46
18.17
20.62
22.35
23.00
22.49
21.00
19.02
17.15
16.01
16.00
17.33
19.87
23.34
27.31
31.45
35.57
39.67
43.83
48.02
51.87
54.76
56.00
55.19
52.35
47.94
42.60
36.84
31.02
25.47
20.76
17.87
18.01
22.23
31.00
43.98
60.04
77.57
94.70
109.58
120.52
126.07
125.33
118.04
104.81
86.97
66.41
45.13
24.94
7.15
-7.42
-18.40
-25.77
-29.84
-31.28
-31.10
-30.58
-30.89
-32.79
-36.30
-40.72
-45.04
-48.41
-50.54
-51.73
-52.49
-53.06
-53.13
-51.92
-48.64
-43.02
-35.44
-26.83
-18.26
-10.64
-4.57
-0.48
1.39
1.08
-0.85
-3.24
-4.51
-3.32
0.88
7.56
15.28
22.23
26.77
27.67
24.18
15.82
2.36
-16.07
-38.82
-64.67
-92.02
-119.26
-145.22
-169.27
-191.21
-210.89
-227.77
-240.54
-247.09
-244.84
-231.56
-206.35
-170.49
-127.61
-82.96
-42.06
-9.11
14.06
28.09
35.30
38.47
39.71
40.01
39.51
38.15
36.16
34.16
32.75
32.08
31.63
30.50
27.86
23.46
17.82
11.97
6.96
3.42
1.39
0.42
-0.08
-0.56
-1.18
-1.93
-2.75
-3.74
-5.13
-7.20
-10.12
-13.80
-17.92
-22.01
-25.62
-28.49
-30.54
-31.84
-32.56
-32.82
-32.73
-32.35
-31.75
-31.02
-30.22
-29.37
-28.45
-27.43
-26.33
-25.23
-24.33
-23.80
-23.80
-24.30
-25.13
-25.96
-26.47
-26.46
-25.94
-25.13
-24.22
-23.25
-21.97
-19.87
-16.39
-11.18
-4.26
3.92
12.58
20.84
27.85
33.02
36.08
37.06
36.25
34.10
31.08
27.59
23.91
20.28
16.96
14.19
12.20
11.02
10.49
10.29
10.16
10.07
10.21
10.97
12.58
15.00
17.83
20.54
22.67
24.07
24.86
25.36
25.84
26.34
26.78
26.99
26.86
26.39
25.63
24.69
23.67
22.77
22.25
22.39
23.40
25.21
27.50
29.84
31.93
33.85
36.16
39.74
45.47
53.81
64.60
76.96
89.53
100.87
109.83
115.81
118.84
119.38
117.99
115.13
111.05
105.85
99.56
92.18
83.61
73.54
61.54
47.20
30.49
11.80
-8.11
-28.50
-49.00
-69.57
-90.22
-110.53
-129.41
-145.20
-156.22
-161.47
-161.01
-155.92
-147.85
-138.32
-128.30
-118.14
-107.90
-97.87
-88.76
-81.52
-76.94
-75.09
-75.11
-75.53
-74.85
-72.19
-67.58
-61.68
-55.21
-48.46
-41.19
-33.05
-24.07
-14.93
-6.75
-0.40
3.98
7.19
10.49
14.92
20.75
27.40
33.85
39.15
42.76
44.50
44.29
42.00
37.51
30.92
22.71
13.78
5.17
-2.21
-7.77
-11.16
-12.22
-10.90
-7.28
-1.71
5.12
12.21
18.37
22.49
23.83
22.17
17.93
12.08
5.86
0.43
-3.41
-5.44
-5.98
-5.70
-5.44
-5.93
-7.69
-10.84
-15.16
-20.05
-24.82
-28.92
-32.07
-34.33
-35.90
-36.93
-37.29
-36.67
-34.70
-31.24
-26.50
-20.99
-15.36
-10.22
-5.93
-2.65
-0.32
1.24
2.25
2.92
3.44
3.89
4.26
4.51
4.63
4.66
4.76
5.11
5.86
7.12
8.85
11.03
13.62
16.64
20.15
24.09
28.18
31.81
34.14
34.31
31.79
26.55
19.16
10.54
1.65
-6.78
-14.33
-20.90
-26.49
-31.16
-34.98
-38.10
-40.67
-42.86
-44.76
-46.30
-47.31
-47.61
-47.05
-45.53
-43.06
-39.65
-35.45
-30.74
-25.94
-21.52
-17.89
-15.27
-13.58
-12.56
-11.84
-11.09
-10.15
-9.04
-7.86
-6.77
-5.84
-5.08
-4.43
-3.80
-3.19
-2.71
-2.50
-2.71
-3.35
-4.29
-5.35
-6.35
-7.27
-8.25
-9.53
-11.32
-13.70
-16.60
-19.82
-23.19
-26.49
-29.56
-32.12
-33.80
-34.11
-32.63
-29.12
-23.76
-17.09
-9.97
-3.25
2.43
6.80
10.01
12.41
14.39
16.16
17.71
18.85
19.42
19.41
18.96
18.32
17.65
16.97
16.14
14.97
13.42
11.63
9.93
8.61
7.78
7.22
6.53
5.24
3.09
0.09
-3.50
-7.34
-11.15
-14.77
-18.06
-20.89
-22.98
-24.03
-23.75
-22.01
-18.85
-14.49
-9.18
-3.27
2.87
8.81
14.04
18.10
20.68
21.77
21.68
20.90
20.01
19.43
19.37
19.85
20.68
21.65
22.50
23.02
23.09
22.67
21.82
20.65
19.26
17.72
16.04
14.16
12.10
9.97
7.95
6.26
4.96
3.90
2.77
1.31
-0.45
-2.08
-2.81
-1.90
1.04
5.81
11.64
17.54
22.68
26.68
29.65
31.94
33.87
35.51
36.75
37.33
37.17
36.36
35.18
33.94
32.87
32.00
31.15
30.10
28.67
26.85
24.82
22.88
21.31
20.23
19.52
18.93
18.17
17.09
15.75
14.25
12.66
10.90
8.77
6.21
3.40
0.88
-0.66
-0.62
1.25
4.72
9.24
14.11
18.78
22.95
26.54
29.51
31.86
33.48
34.26
34.15
33.25
31.77
29.95
28.08
26.37
24.97
23.98
23.47
23.41
23.73
24.27
24.89
25.44
25.84
26.03
25.97
25.61
24.90
23.84
22.44
20.75
18.80
16.62
14.21
11.64
9.09
6.83
5.27
4.73
5.40
7.17
9.69
12.41
14.82
16.51
17.34
17.34
16.67
15.48
13.92
12.05
9.99
7.88
5.88
4.11
2.60
1.33
0.27
-0.58
-1.08
-1.11
-0.55
0.51
1.86
3.13
4.01
4.27
3.88
2.94
1.56
-0.22
-2.46
-5.29
-8.81
-12.89
-17.19
-21.10
-23.97
-25.30
-24.91
-22.96
-19.89
-16.16
-12.15
-8.06
-4.06
-0.34
2.79
5.00
6.09
6.08
5.25
3.96
2.55
1.22
-0.01
-1.16
-2.21
-3.11
-3.72
-3.97
-3.83
-3.40
-2.85
-2.39
-2.24
-2.54
-3.33
-4.52
-5.98
-7.58
-9.25
-11.04
-13.06
-15.40
-18.09
-21.02
-23.94
-26.50
-28.30
-28.96
-28.23
-26.01
-22.44
-17.83
-12.64
-7.39
-2.57
1.42
4.31
6.08
6.85
6.91
6.55
6.03
5.43
4.72
3.84
2.76
1.61
0.60
-0.05
-0.25
-0.09
0.17
0.25
-0.02
-0.66
-1.50
-2.35
-3.14
-3.90
-4.75
-5.83
-7.24
-8.97
-11.04
-13.40
-15.99
-18.54
-20.65
-21.80
-21.52
-19.64
-16.29
-11.96
-7.23
-2.67
1.40
4.82
7.57
9.68
11.18
12.09
12.46
12.30
11.68
10.68
9.43
8.08
6.80
5.71
4.87
4.27
3.83
3.44
3.03
2.52
1.82
0.86
-0.43
-2.01
-3.77
-5.53
-7.15
-8.61
-10.05
-11.70
-13.77
-16.31
-19.07
-21.58
-23.24
-23.53
-22.17
-19.22
-14.99
-9.98
-4.72
0.33
4.83
8.60
11.58
13.75
15.15
15.84
15.88
15.33
14.27
12.81
11.09
9.27
7.50
5.94
4.64
3.63
2.84
2.19
1.59
0.98
0.33
-0.39
-1.19
-2.11
-3.14
-4.33
-5.69
-7.24
-9.07
-11.24
-13.81
-16.71
-19.73
-22.47
-24.43
-25.07
-24.03
-21.25
-16.98
-11.79
-6.32
-1.14
3.35
7.02
9.89
12.05
13.61
14.60
15.06
15.00
14.46
13.52
12.30
10.90
9.47
8.10
6.85
5.76
4.83
4.05
3.45
3.04
2.83
2.72
2.55
2.13
1.30
0.02
-1.64
-3.57
-5.70
-8.06
-10.74
-13.78
-17.00
-20.02
-22.28
-23.27
-22.65
-20.45
-16.94
-12.61
-7.99
-3.50
0.55
3.98
6.67
8.57
9.67
10.05
9.83
9.18
8.33
7.44
6.64
5.97
5.43
4.96
4.53
4.09
3.59
2.95
2.10
1.00
-0.33
-1.79
-3.25
-4.58
-5.74
-6.80
-7.92
-9.32
-11.18
-13.56
-16.33
-19.13
-21.45
-22.74
-22.57
-20.72
-17.28
-12.64
-7.35
-2.00
2.92
7.07
10.29
12.54
13.87
14.37
14.20
13.48
12.40
11.07
9.60
8.06
6.56
5.17
4.00
3.09
2.42
1.91
1.45
0.97
0.42
-0.21
-0.99
-2.03
-3.39
-5.06
-7.01
-9.13
-11.44
-14.03
-17.03
-20.40
-23.87
-26.82
-28.53
-28.39
-26.15
-21.96
-16.39
-10.19
-4.08
1.44
6.09
9.80
12.62
14.61
15.84
16.31
16.11
15.36
14.25
13.00
11.81
10.77
9.84
8.95
8.05
7.13
6.25
5.44
4.66
3.81
2.75
1.41
-0.20
-1.98
-3.85
-5.80
-7.93
-10.43
-13.39
-16.80
-20.43
-23.84
-26.49
-27.80
-27.31
-24.83
-20.51
-14.82
-8.43
-2.07
3.70
8.52
12.31
15.11
17.06
18.25
18.75
18.61
17.91
16.80
15.42
13.93
12.45
11.06
9.83
8.76
7.85
7.03
6.24
5.36
4.33
3.16
1.87
0.51
-0.88
-2.30
-3.79
-5.41
-7.26
-9.46
-12.12
-15.22
-18.52
-21.47
-23.36
-23.49
-21.49
-17.43
-11.86
-5.59
0.60
6.16
10.85
14.65
17.62
19.79
21.15
21.64
21.24
20.03
18.21
16.11
14.01
12.20
10.78
9.76
9.01
8.42
7.90
7.44
7.00
6.50
5.79
4.68
3.10
1.12
-1.09
-3.28
-5.35
-7.38
-9.57
-12.15
-15.15
-18.28
-21.00
-22.58
-22.42
-20.22
-16.11
-10.59
-4.39
1.79
7.38
12.09
15.75
18.34
19.80
20.12
19.34
17.66
15.44
13.09
11.01
9.44
8.36
7.62
6.96
6.25
5.42
4.53
3.68
2.89
2.08
1.11
-0.21
-2.01
-4.30
-6.99
-9.97
-13.14
-16.49
-20.01
-23.65
-27.14
-29.97
-31.46
-31.05
-28.42
-23.71
-17.45
-10.38
-3.26
3.34
9.06
13.67
17.04
19.03
19.69
19.15
17.76
15.94
14.08
12.35
10.80
9.37
8.03
6.86
5.99
5.49
5.29
5.19
4.96
4.40
3.46
2.19
0.67
-1.01
-2.81
-4.73
-6.78
-9.02
-11.55
-14.42
-17.61
-20.84
-23.58
-25.13
-24.84
-22.36
-17.75
-11.54
-4.48
2.65
9.20
14.77
19.13
22.21
24.03
24.65
24.22
22.92
21.03
18.82
16.58
14.55
12.88
11.66
10.84
10.32
9.93
9.53
9.00
8.28
7.35
6.18
4.76
3.02
0.97
-1.39
-3.98
-6.75
-9.66
-12.73
-16.00
-19.35
-22.48
-24.86
-25.90
-25.11
-22.28
-17.60
-11.59
-4.94
1.65
7.62
12.59
16.36
18.85
20.10
20.19
19.28
17.61
15.46
13.21
11.20
9.72
8.89
8.65
8.77
8.97
9.01
8.74
8.16
7.33
6.32
5.18
3.91
2.45
0.74
-1.31
-3.72
-6.44
-9.37
-12.40
-15.32
-17.88
-19.70
-20.35
-19.44
-16.79
-12.51
-7.08
-1.13
4.66
9.85
14.18
17.54
19.86
21.03
21.00
19.82
17.76
15.25
12.75
10.65
9.13
8.25
7.93
8.05
8.44
8.92
9.29
9.37
9.05
8.32
7.29
6.13
4.96
3.81
2.57
1.02
-1.04
-3.66
-6.61
-9.39
-11.31
-11.71
-10.15
-6.57
-1.27
5.19
12.19
19.18
25.77
31.73
36.90
41.11
44.16
45.74
45.55
43.36
39.16
33.27
26.34
19.24
12.85
7.78
4.24
2.00
0.48
-1.05
-3.23
-6.41
-10.52
-14.93
-18.63
-20.44
-19.45
-15.36
-8.72
-0.82
6.64
12.14
14.97
15.38
14.55
14.07
15.33
19.04
25.06
32.64
40.79
48.72
55.91
62.14
67.20
70.81
72.65
72.48
70.36
66.66
61.91
56.54
50.71
44.23
36.71
27.80
17.38
5.74
-6.51
-18.57
-29.69
-39.22
-46.76
-52.13
-55.30
-56.40
-55.74
-53.91
-51.66
-49.81
-49.01
-49.52
-51.14
-53.30
-55.32
-56.64
-56.96
-56.29
-54.72
-52.41
-49.47
-46.03
-42.22
-38.20
-34.15
-30.29
-26.86
-24.18
-22.58
-22.31
-23.40
-25.56
-28.24
-30.78
-32.57
-33.20
-32.54
-30.72
-28.01
-24.77
-21.32
-17.85
-14.50
-11.29
-8.22
-5.28
-2.52
-0.13
1.56
2.16
1.34
-0.89
-4.12
-7.48
-10.00
-10.99
-10.28
-8.30
-5.81
-3.46
-1.53
0.08
1.56
2.88
3.58
2.98
0.51
-3.90
-9.73
-15.97
-21.52
-25.54
-27.74
-28.31
-27.75
-26.59
-25.12
-23.38
-21.31
-18.86
-16.21
-13.68
-11.69
-10.50
-10.16
-10.49
-11.19
-12.04
-12.97
-14.16
-15.92
-18.49
-21.83
-25.51
-28.72
-30.50
-30.08
-27.23
-22.36
-16.37
-10.32
-5.01
-0.82
2.28
4.49
5.97
6.75
6.76
6.02
4.78
3.43
2.40
2.03
2.42
3.43
4.81
6.24
7.46
8.30
8.78
8.99
9.15
9.51
10.20
11.17
12.13
12.60
12.01
9.89
5.99
0.39
-6.54
-14.18
-21.72
-28.30
-33.08
-35.37
-34.78
-31.34
-25.59
-18.44
-11.04
-4.46
0.49
3.51
4.64
4.23
2.72
0.52
-2.04
-4.72
-7.29
-9.50
-11.16
-12.09
-12.26
-11.78
-10.90
-9.96
-9.30
-9.18
-9.78
-11.11
-13.12
-15.71
-18.69
-21.87
-25.02
-27.91
-30.40
-32.48
-34.24
-35.86
-37.46
-39.01
-40.21
-40.54
-39.33
-36.01
-30.26
-22.23
-12.51
-2.01
8.28
17.56
25.40
31.72
36.65
40.33
42.81
44.05
44.06
43.04
41.42
39.81
38.72
38.42
38.89
39.85
40.99
42.10
43.09
43.94
44.56
44.74
44.22
42.82
40.52
37.54
34.23
30.95
27.89
25.04
22.17
18.95
15.04
10.28
4.70
-1.45
-7.65
-13.20
-17.31
-19.26
-18.54
-15.07
-9.20
-1.73
6.38
14.19
21.06
26.68
31.00
34.12
36.08
36.89
36.53
35.10
32.88
30.31
27.85
25.87
24.54
23.88
23.74
23.90
24.14
24.26
24.07
23.43
22.26
20.54
18.36
15.87
13.21
10.52
7.84
5.13
2.24
-1.01
-4.79
-9.13
-13.75
-18.06
-21.23
-22.37
-20.89
-16.67
-10.21
-2.36
5.86
13.62
20.38
25.91
30.16
33.09
34.70
35.03
34.25
32.70
30.80
28.97
27.51
26.52
25.93
25.53
25.12
24.54
23.78
22.88
21.84
20.56
18.81
16.39
13.20
9.44
5.48
1.75
-1.44
-4.04
-6.25
-8.46
-11.08
-14.43
-18.70
-23.86
-29.50
-34.89
-39.00
-40.81
-39.64
-35.35
-28.46
-19.95
-10.93
-2.37
5.11
11.23
15.90
19.17
21.09
21.76
21.33
20.10
18.47
16.88
15.69
15.06
14.93
15.04
15.11
14.92
14.46
13.85
13.27
12.81
12.40
11.85
10.87
9.29
7.07
4.39
1.53
-1.17
-3.52
-5.47
-7.21
-9.03
-11.24
-14.04
-17.48
-21.36
-25.22
-28.44
-30.29
-30.13
-27.59
-22.73
-16.01
-8.17
-0.07
7.60
14.35
19.95
24.35
27.59
29.74
30.87
31.09
30.59
29.64
28.54
27.60
27.05
26.99
27.38
28.09
28.99
30.02
31.25
32.85
34.91
37.38
40.01
42.39
44.22
45.41
46.20
47.11
48.66
51.18
54.68
58.83
63.19
67.36
71.16
74.66
78.22
82.37
87.77
94.98
104.32
115.73
128.68
142.42
156.13
169.18
181.25
192.31
202.37
211.34
218.73
223.47
224.01
218.63
206.03
185.96
159.62
129.40
98.10
67.95
39.99
13.98
-10.92
-35.37
-59.44
-82.67
-104.59
-125.16
-144.79
-164.05
-183.21
-202.08
-220.08
-236.62
-251.31
-264.11
-275.31
-285.40
-295.04
-304.82
-315.01
-325.18
-334.11
-340.02
-341.21
-336.70
-326.51
-311.39
-292.22
-269.53
-243.42
-214.15
-182.74
-151.22
-122.04
-97.25
-77.60
-62.51
-50.57
-40.52
-31.84
-24.60
-18.93
-14.30
-9.33
-2.32
8.01
21.83
38.06
54.92
70.66
84.10
94.83
103.02
109.08
113.33
116.02
117.26
117.24
116.12
114.02
110.93
106.74
101.49
95.49
89.53
84.69
82.02
82.16
85.08
90.14
96.33
102.55
107.90
111.69
113.50
113.12
110.60
106.24
100.54
94.01
86.99
79.42
70.93
61.00
49.25
35.75
21.04
6.12
-7.92
-20.13
-29.94
-37.31
-42.62
-46.55
-49.77
-52.80
-55.81
-58.65
-60.97
-62.42
-62.78
-62.09
-60.63
-58.77
-56.81
-54.70
-52.03
-48.13
-42.37
-34.43
-24.58
-13.61
-2.56
7.61
16.31
23.45
29.38
34.66
39.85
45.35
51.20
57.11
62.40
66.10
67.26
65.22
59.85
51.67
41.57
30.55
19.42
8.64
-1.60
-11.32
-20.61
-29.60
-38.41
-47.10
-55.62
-63.65
-70.75
-76.37
-80.10
-81.78
-81.58
-79.89
-77.25
-74.27
-71.49
-69.26
-67.68
-66.47
-65.06
-62.81
-59.23
-54.21
-48.06
-41.38
-34.83
-28.86
-23.64
-19.10
-15.16
-11.77
-9.02
-7.07
-6.01
-5.78
-6.17
-6.87
-7.57
-8.10
-8.47
-8.78
-9.18
-9.75
-10.54
-11.57
-12.86
-14.45
-16.29
-18.20
-19.88
-21.00
-21.35
-20.98
-20.19
-19.46
-19.41
-20.67
-23.75
-28.92
-35.98
-44.07
-51.79
-57.49
-59.83
-58.27
-53.21
-45.82
-37.46
-29.18
-21.52
-14.56
-8.24
-2.66
1.96
5.35
7.54
8.83
9.78
10.90
12.39
14.09
15.55
16.26
15.95
14.70
12.94
11.28
10.19
9.93
10.39
11.28
12.31
13.37
14.59
16.16
18.20
20.50
22.55
23.64
23.11
20.66
16.46
11.20
5.90
1.60
-0.90
-1.22
0.52
3.81
7.96
12.28
16.14
19.10
20.85
21.24
20.29
18.18
15.24
11.88
8.54
5.65
3.51
2.28
1.92
2.21
2.83
3.49
4.04
4.48
4.90
5.27
5.41
4.95
3.57
1.20
-1.88
-5.07
-7.74
-9.47
-10.20
-10.26
-10.13
-10.31
-11.12
-12.61
-14.59
-16.64
-18.17
-18.62
-17.56
-14.81
-10.51
-5.05
1.05
7.20
12.89
17.75
21.51
24.10
25.62
26.34
26.56
26.62
26.69
26.82
26.96
27.00
26.84
26.46
25.93
25.42
25.13
25.16
25.43
25.65
25.37
24.19
21.87
18.53
14.54
10.42
6.60
3.35
0.68
-1.56
-3.59
-5.68
-8.03
-10.75
-13.77
-16.79
-19.32
-20.77
-20.63
-18.65
-14.89
-9.71
-3.70
2.47
8.17
12.86
16.19
17.98
18.26
17.24
15.33
13.04
10.92
9.45
8.97
9.60
11.19
13.41
15.87
18.21
20.24
21.85
22.99
23.61
23.57
22.74
21.07
18.56
15.35
11.58
7.39
2.93
-1.66
-6.17
-10.38
-14.13
-17.36
-20.14
-22.57
-24.64
-26.21
-26.96
-26.57
-24.86
-21.93
-18.11
-13.89
-9.68
-5.72
-2.10
1.20
4.12
6.55
8.33
9.42
9.94
10.18
10.48
11.07
12.01
13.20
14.44
15.60
16.60
17.44
18.04
18.28
17.96
16.88
14.96
12.30
9.18
6.03
3.25
1.11
-0.36
-1.42
-2.52
-4.17
-6.69
-10.07
-13.91
-17.48
-19.93
-20.62
-19.25
-16.00
-11.34
-5.91
-0.27
5.19
10.26
14.84
18.79
22.00
24.27
25.51
25.71
25.05
23.86
22.56
21.50
20.95
20.95
21.42
22.20
23.12
24.05
24.83
25.20
24.84
23.44
20.89
17.40
13.40
9.46
6.02
3.22
0.99
-0.91
-2.71
-4.53
-6.41
-8.35
-10.40
-12.61
-14.93
-17.10
-18.70
-19.15
-18.00
-15.06
-10.54
-5.02
0.77
6.16
10.79
14.65
17.93
20.86
23.43
25.47
26.68
26.98
26.56
25.93
25.63
26.02
27.07
28.38
29.41
29.70
29.04
27.45
25.10
22.16
18.73
14.83
10.51
5.88
1.16
-3.28
-7.05
-9.83
-11.46
-12.06
-12.06
-12.10
-12.88
-15.07
-19.06
-24.90
-32.24
-40.29
-48.01
-54.24
-58.00
-58.74
-56.47
-51.67
-45.13
-37.73
-30.27
-23.43
-17.75
-13.58
-11.03
-9.91
-9.76
-9.96
-9.98
-9.62
-9.13
-9.07
-10.04
-12.27
-15.53
-19.12
-22.18
-24.06
-24.46
-23.37
-20.86
-16.93
-11.53
-4.86
2.52
9.66
15.58
19.70
22.12
23.50
24.60
25.83
26.91
26.96
24.93
20.13
12.58
3.12
-6.89
-15.93
-22.84
-27.07
-28.75
-28.48
-27.06
-25.16
-23.21
-21.31
-19.33
-17.03
-14.20
-10.80
-7.07
-3.52
-0.83
0.45
0.24
-0.92
-1.95
-1.61
1.02
6.20
13.49
21.94
30.49
38.18
44.30
48.24
49.46
47.53
42.26
33.89
23.21
11.41
-0.16
-10.42
-18.80
-25.34
-30.52
-34.91
-38.84
-42.25
-44.72
-45.67
-44.65
-41.43
-36.11
-28.99
-20.54
-11.37
-2.15
6.43
13.73
19.38
23.24
25.39
26.07
25.54
24.11
22.12
19.96
18.02
16.62
15.81
15.41
15.06
14.37
13.18
11.55
9.76
8.14
6.90
5.99
5.17
4.10
2.55
0.50
-1.85
-4.21
-6.37
-8.31
-10.15
-12.11
-14.33
-16.85
-19.61
-22.53
-25.51
-28.34
-30.64
-31.91
-31.58
-29.32
-25.13
-19.46
-12.96
-6.33
-0.05
5.58
10.40
14.24
16.96
18.49
18.93
18.65
18.08
17.58
17.28
17.08
16.78
16.26
15.55
14.83
14.32
14.13
14.26
14.51
14.64
14.39
13.58
12.17
10.21
7.91
5.52
3.28
1.35
-0.28
-1.70
-3.12
-4.75
-6.73
-9.11
-11.78
-14.46
-16.67
-17.90
-17.73
-15.98
-12.78
-8.50
-3.57
1.65
6.93
12.10
16.95
21.14
24.29
26.08
26.42
25.55
23.90
22.01
20.27
18.90
17.94
17.32
16.95
16.77
16.66
16.49
16.07
15.22
13.88
12.14
10.22
8.39
6.83
5.60
4.55
3.47
2.12
0.33
-2.01
-4.91
-8.33
-12.11
-15.89
-19.17
-21.34
-21.88
-20.59
-17.62
-13.45
-8.71
-4.01
0.25
3.89
6.89
9.28
11.06
12.20
12.66
12.47
11.69
10.56
9.31
8.21
7.43
7.04
6.98
7.13
7.34
7.49
7.49
7.25
6.67
5.61
4.03
1.94
-0.53
-3.22
-5.96
-8.65
-11.36
-14.19
-17.32
-20.83
-24.59
-28.26
-31.23
-32.86
-32.62
-30.32
-26.16
-20.66
-14.54
-8.43
-2.84
1.95
5.73
8.43
10.01
10.56
10.26
9.33
8.05
6.61
5.22
4.03
3.18
2.76
2.76
3.04
3.39
3.62
3.58
3.27
2.72
1.98
1.03
-0.17
-1.64
-3.37
-5.30
-7.36
-9.54
-11.87
-14.42
-17.18
-20.04
-22.72
-24.78
-25.73
-25.16
-22.85
-18.87
-13.59
-7.58
-1.51
4.04
8.62
12.04
14.31
15.59
16.06
15.91
15.29
14.31
13.08
11.77
10.55
9.59
9.08
9.05
9.46
10.12
10.80
11.27
11.35
10.96
10.10
8.83
7.26
5.49
3.61
1.70
-0.23
-2.21
-4.38
-6.90
-9.84
-13.07
-16.22
-18.67
-19.76
-19.01
-16.29
-11.95
-6.63
-1.11
3.96
8.12
11.17
13.11
14.00
13.98
13.19
11.82
10.15
8.44
6.93
5.79
5.06
4.67
4.47
4.30
4.06
3.69
3.21
2.66
2.04
1.30
0.39
-0.77
-2.18
-3.75
-5.39
-7.00
-8.55
-10.12
-11.81
-13.67
-15.59
-17.21
-18.07
-17.71
-15.89
-12.70
-8.51
-3.85
0.74
4.92
8.51
11.43
13.58
14.85
15.12
14.36
12.73
10.56
8.27
6.28
4.84
4.06
3.84
4.04
4.48
4.96
5.31
5.34
4.94
4.04
2.69
1.03
-0.76
-2.50
-4.12
-5.65
-7.25
-9.13
-11.43
-14.17
-17.06
-19.58
-21.07
-20.98
-19.05
-15.43
-10.64
-5.33
-0.14
4.53
8.48
11.67
14.15
15.91
16.99
17.37
17.07
16.20
14.88
13.36
11.89
10.78
10.22
10.31
10.98
11.98
13.02
13.81
14.18
14.18
13.93
13.62
13.35
13.09
12.74
12.16
11.33
10.31
9.24
8.24
7.37
6.68
6.31
6.54
7.76
10.37
14.61
20.46
27.68
35.86
44.54
53.33
61.96
70.27
78.17
85.69
92.96
100.17
107.62
115.64
124.51
134.31
144.84
155.56
165.58
173.79
178.99
179.99
175.73
165.28
148.06
124.02
93.98
59.75
24.08
-9.86
-39.08
-61.48
-76.24
-83.94
-86.24
-85.27
-83.00
-80.74
-78.89
-77.07
-74.59
-70.92
-66.13
-61.08
-57.04
-55.21
-56.11
-59.38
-63.97
-68.80
-73.34
-77.87
-83.31
-90.54
-99.80
-110.22
-119.93
-126.54
-127.79
-122.14
-109.21
-89.76
-65.59
-39.00
-12.23
13.07
36.05
56.49
74.35
89.27
100.53
107.28
109.12
106.44
100.30
91.94
82.31
71.90
60.95
49.96
39.80
31.37
24.94
19.78
14.20
6.38
-4.67
-18.51
-33.34
-46.84
-57.10
-63.35
-65.89
-65.70
-63.70
-60.48
-56.19
-50.85
-44.43
-36.82
-27.77
-16.80
-3.48
12.15
29.21
45.92
60.13
69.97
74.63
74.55
71.10
65.81
59.66
52.80
44.69
34.67
22.56
8.85
-5.46
-19.21
-31.62
-42.38
-51.61
-59.60
-66.48
-72.15
-76.34
-78.83
-79.57
-78.77
-76.80
-74.07
-70.89
-67.41
-63.63
-59.42
-54.57
-48.74
-41.61
-32.93
-22.66
-11.07
1.12
12.83
22.83
29.98
33.62
33.69
30.74
25.70
19.57
13.10
6.65
0.22
-6.36
-13.25
-20.40
-27.57
-34.42
-40.57
-45.76
-49.89
-53.01
-55.38
-57.40
-59.58
-62.43
-66.26
-71.06
-76.41
-81.59
-85.86
-88.71
-90.08
-90.38
-90.27
-90.38
-91.02
-92.13
-93.34
-94.18
-94.29
-93.46
-91.65
-88.84
-85.02
-80.17
-74.36
-67.84
-60.99
-54.27
-48.04
-42.53
-37.83
-34.02
-31.23
-29.62
-29.32
-30.28
-32.33
-35.18
-38.54
-42.21
-46.05
-49.82
-53.07
-55.11
-55.07
-52.16
-45.97
-36.82
-25.84
-14.84
-5.76
-0.11
1.54
-0.27
-4.23
-8.75
-12.46
-14.38
-13.88
-10.55
-4.27
4.66
15.28
26.07
35.32
41.83
45.25
46.09
45.38
44.11
42.84
41.74
40.75
39.91
39.36
39.22
39.47
39.80
39.78
39.00
37.34
34.92
32.08
29.17
26.49
24.27
22.67
21.88
22.02
23.14
25.15
27.75
30.56
33.16
35.27
36.73
37.55
37.75
37.39
36.50
35.13
33.41
31.57
29.85
28.50
27.62
27.16
26.94
26.70
26.19
25.24
23.76
21.75
19.29
16.49
13.52
10.59
7.92
5.67
3.82
2.18
0.36
-2.01
-5.13
-8.90
-12.89
-16.50
-19.15
-20.47
-20.36
-19.03
-16.91
-14.53
-12.44
-11.11
-10.79
-11.43
-12.71
-14.12
-15.20
-15.66
-15.47
-14.80
-13.84
-12.64
-11.16
-9.26
-6.93
-4.35
-1.92
-0.03
1.12
1.62
1.87
2.28
3.13
4.42
5.88
7.17
8.08
8.58
8.77
8.78
8.64
8.27
7.60
6.66
5.66
4.98
5.00
6.00
8.03
10.94
14.40
18.04
21.47
24.37
26.49
27.67
27.93
27.35
26.14
24.55
22.82
21.19
19.79
18.73
18.00
17.58
17.38
17.26
17.11
16.81
16.30
15.59
14.73
13.82
12.92
12.08
11.31
10.55
9.67
8.44
6.63
4.09
0.90
-2.49
-5.40
-7.06
-6.91
-4.76
-0.87
4.19
9.71
15.07
19.80
23.60
26.27
27.77
28.17
27.70
26.61
25.17
23.47
21.53
19.33
16.96
14.62
12.58
11.01
9.94
9.21
8.57
7.79
6.72
5.36
3.78
2.08
0.33
-1.42
-3.13
-4.83
-6.59
-8.56
-10.92
-13.77
-17.02
-20.28
-22.99
-24.44
-24.13
-21.84
-17.81
-12.60
-6.95
-1.51
3.27
7.27
10.64
13.67
16.62
19.57
22.38
24.73
26.30
26.94
26.76
26.13
25.50
25.22
25.41
25.94
26.59
27.14
27.47
27.52
27.25
26.58
25.40
23.67
21.42
18.78
15.91
12.93
9.84
6.51
2.78
-1.48
-6.18
-11.02
-15.44
-18.75
-20.30
-19.65
-16.77
-12.04
-6.18
0.03
5.90
11.05
15.32
18.73
21.36
23.24
24.42
24.99
25.08
24.90
24.57
24.17
23.68
23.00
22.05
20.82
19.38
17.81
16.22
14.60
12.92
11.07
8.91
6.38
3.51
0.49
-2.44
-5.06
-7.25
-9.11
-10.89
-12.89
-15.27
-17.93
-20.43
-22.12
-22.39
-20.91
-17.76
-13.41
-8.53
-3.73
0.61
4.34
7.46
9.98
11.88
13.06
13.53
13.40
12.91
12.33
11.78
11.25
10.61
9.74
8.68
7.60
6.74
6.25
6.13
6.17
6.12
5.77
5.09
4.19
3.20
2.24
1.27
0.17
-1.19
-2.85
-4.73
-6.69
-8.58
-10.23
-11.53
-12.33
-12.48
-11.85
-10.35
-8.03
-5.06
-1.76
1.53
4.46
6.74
8.20
8.79
8.59
7.77
6.58
5.22
3.84
2.53
1.33
0.29
-0.57
-1.25
-1.80
-2.32
-2.93
-3.63
-4.39
-5.06
-5.53
-5.74
-5.76
-5.71
-5.72
-5.90
-6.31
-6.95
-7.86
-9.03
-10.39
-11.79
-12.98
-13.65
-13.55
-12.59
-10.90
-8.80
-6.66
-4.83
-3.51
-2.75
-2.49
-2.61
-2.94
-3.30
-3.50
-3.41
-2.98
-2.26
-1.49
-0.92
-0.78
-1.09
-1.68
-2.25
-2.42
-1.97
-0.87
0.66
2.32
3.77
4.76
5.24
5.28
5.07
4.78
4.58
4.53
4.63
4.82
4.97
4.97
4.70
4.12
3.25
2.17
0.95
-0.38
-1.82
-3.40
-5.13
-6.93
-8.58
-9.81
-10.34
-10.05
-8.98
-7.37
-5.55
-3.86
-2.50
-1.49
-0.77
-0.22
0.17
0.33
0.15
-0.41
-1.27
-2.22
-3.02
-3.46
-3.54
-3.35
-3.07
-2.83
-2.71
-2.70
-2.73
-2.79
-2.90
-3.12
-3.50
-4.07
-4.83
-5.72
-6.70
-7.74
-8.82
-9.96
-11.13
-12.25
-13.18
-13.72
-13.71
-13.07
-11.83
-10.12
-8.15
-6.10
-4.16
-2.45
-1.06
-0.07
0.45
0.41
-0.20
-1.31
-2.71
-4.11
-5.25
-5.98
-6.29
-6.34
-6.30
-6.33
-6.47
-6.68
-6.87
-6.97
-6.92
-6.69
-6.24
-5.54
-4.62
-3.54
-2.49
-1.66
-1.21
-1.26
-1.81
-2.78
-3.95
-5.07
-5.82
-5.91
-5.19
-3.71
-1.69
0.55
2.71
4.57
6.04
7.11
7.79
8.08
7.95
7.41
6.48
5.25
3.83
2.32
0.85
-0.48
-1.56
-2.34
-2.83
-3.07
-3.19
-3.28
-3.41
-3.59
-3.82
-4.08
-4.36
-4.73
-5.26
-6.06
-7.21
-8.71
-10.48
-12.35
-14.07
-15.32
-15.84
-15.38
-13.85
-11.32
-8.07
-4.57
-1.28
1.41
3.36
4.65
5.45
5.95
6.18
6.11
5.67
4.88
3.89
2.91
2.12
1.56
1.15
0.77
0.37
-0.00
-0.27
-0.41
-0.50
-0.74
-1.32
-2.31
-3.66
-5.21
-6.82
-8.41
-10.06
-11.89
-13.93
-16.05
-17.94
-19.19
-19.39
-18.35
-16.11
-12.92
-9.10
-5.00
-0.85
3.21
7.11
10.76
14.10
17.07
19.68
22.03
24.33
26.82
29.75
33.26
37.33
41.75
46.16
50.18
53.55
56.26
58.53
60.79
63.53
67.27
72.48
79.57
88.74
99.85
112.19
124.44
134.81
141.35
142.43
137.07
125.17
107.41
85.00
59.45
32.27
4.87
-21.50
-45.84
-67.40
-85.78
-100.85
-112.72
-121.55
-127.43
-130.37
-130.31
-127.34
-121.85
-114.55
-106.38
-98.26
-90.89
-84.58
-79.27
-74.68
-70.48
-66.42
-62.44
-58.60
-55.05
-51.92
-49.34
-47.33
-45.92
-45.07
-44.70
-44.63
-44.55
-44.00
-42.51
-39.66
-35.27
-29.37
-22.16
-13.98
-5.13
4.02
13.12
21.77
29.55
36.20
41.72
46.42
50.87
55.63
61.07
67.22
73.82
80.54
87.14
93.63
100.27
107.52
115.97
126.29
139.01
154.19
170.94
187.05
199.17
203.51
196.94
177.92
146.85
105.91
58.35
7.81
-42.03
-87.66
-125.88
-154.22
-171.46
-178.01
-175.80
-167.67
-156.54
-144.73
-133.63
-123.87
-115.54
-108.41
-102.04
-95.85
-89.27
-82.08
-74.54
-67.36
-61.38
-57.12
-54.49
-52.79
-51.10
-48.72
-45.44
-41.63
-37.91
-34.77
-32.33
-30.33
-28.42
-26.34
-24.17
-22.21
-20.79
-20.00
-19.56
-18.85
-17.15
-13.95
-9.14
-3.08
3.57
10.07
15.86
20.64
24.39
27.18
29.08
30.08
30.11
29.10
27.10
24.28
20.95
17.46
14.15
11.26
8.93
7.11
5.63
4.22
2.59
0.57
-1.81
-4.29
-6.50
-8.10
-8.94
-9.12
-8.90
-8.52
-8.13
-7.76
-7.32
-6.68
-5.70
-4.16
-1.76
1.82
6.80
13.11
20.35
27.88
35.07
41.43
46.71
50.86
53.92
55.95
57.06
57.39
57.16
56.55
55.74
54.74
53.50
51.97
50.10
47.96
45.65
43.37
41.33
39.71
38.64
38.05
37.58
36.58
34.20
29.74
22.86
13.80
3.37
-7.24
-16.79
-24.24
-28.97
-30.79
-29.90
-26.80
-22.07
-16.28
-9.85
-3.05
3.93
10.83
17.26
22.74
26.79
29.08
29.52
28.20
25.37
21.36
16.54
11.38
6.35
1.89
-1.72
-4.44
-6.38
-7.70
-8.44
-8.51
-7.71
-5.89
-3.01
0.75
4.95
8.99
12.16
13.77
13.39
10.97
6.89
1.84
-3.33
-7.85
-11.13
-12.93
-13.26
-12.46
-11.03
-9.60
-8.72
-8.81
-10.08
-12.54
-16.07
-20.45
-25.40
-30.50
-35.24
-39.06
-41.43
-41.97
-40.55
-37.27
-32.40
-26.34
-19.50
-12.33
-5.29
1.11
6.31
9.81
11.23
10.51
7.92
3.98
-0.73
-5.77
-10.95
-16.22
-21.57
-26.73
-31.15
-34.07
-34.77
-32.79
-28.13
-21.29
-13.12
-4.68
2.99
9.08
13.19
15.46
16.51
17.31
18.84
21.75
26.21
31.75
37.47
42.29
45.22
45.58
43.06
37.71
29.96
20.59
10.59
1.05
-7.04
-13.03
-16.70
-18.25
-18.26
-17.45
-16.57
-16.19
-16.68
-18.13
-20.34
-22.87
-25.14
-26.59
-26.77
-25.47
-22.74
-18.87
-14.33
-9.73
-5.68
-2.73
-1.21
-1.22
-2.64
-5.14
-8.29
-11.59
-14.52
-16.63
-17.61
-17.38
-16.12
-14.24
-12.24
-10.60
-9.58
-9.30
-9.68
-10.62
-11.98
-13.61
-15.31
-16.85
-17.98
-18.57
-18.63
-18.30
-17.85
-17.55
-17.61
-18.15
-19.15
-20.37
-21.41
-21.77
-20.95
-18.61
-14.73
-9.69
-4.10
1.38
6.17
9.98
12.74
14.53
15.43
15.48
14.70
13.17
11.10
8.84
6.80
5.31
4.52
4.36
4.65
5.18
5.79
6.36
6.75
6.78
6.26
5.07
3.26
1.05
-1.26
-3.42
-5.32
-7.09
-8.93
-11.11
-13.75
-16.82
-20.10
-23.13
-25.33
-26.09
-24.97
-21.85
-17.01
-11.04
-4.71
1.33
6.62
10.98
14.36
16.82
18.38
19.13
19.18
18.69
17.90
16.99
16.12
15.36
14.79
14.44
14.38
14.62
15.12
15.71
16.19
16.28
15.78
14.61
12.87
10.75
8.53
6.40
4.45
2.61
0.70
-1.46
-4.00
-6.90
-9.95
-12.76
-14.84
-15.70
-15.00
-12.70
-9.00
-4.37
0.67
5.70
10.46
14.90
19.00
22.69
25.75
27.86
28.73
28.26
26.61
24.14
21.31
18.50
15.91
13.62
11.62
9.92
8.55
7.49
6.72
6.11
5.60
5.20
5.02
5.11
5.32
5.21
4.11
1.39
-3.28
-9.78
-17.52
-25.66
-33.30
-39.63
-43.99
-45.87
-44.97
-41.32
-35.36
-27.93
-20.03
-12.60
-6.31
-1.42
2.05
4.22
5.24
5.29
4.54
3.30
1.88
0.59
-0.39
-0.98
-1.23
-1.16
-0.85
-0.46
-0.16
-0.21
-0.76
-1.83
-3.27
-4.83
-6.31
-7.64
-8.92
-10.28
-11.87
-13.70
-15.73
-17.92
-20.15
-22.25
-23.94
-24.77
-24.26
-22.06
-18.12
-12.71
-6.37
0.24
6.52
12.04
16.57
20.01
22.38
23.76
24.27
24.07
23.30
22.10
20.63
19.01
17.43
16.05
15.00
14.30
13.87
13.48
12.91
11.98
10.64
8.97
7.14
5.27
3.41
1.56
-0.34
-2.36
-4.57
-7.01
-9.74
-12.73
-15.86
-18.81
-21.10
-22.22
-21.72
-19.48
-15.68
-10.83
-5.53
-0.35
4.36
8.40
11.66
14.06
15.50
15.93
15.46
14.36
13.06
11.93
11.20
10.87
10.80
10.82
10.88
10.99
11.23
11.59
11.93
12.01
11.63
10.70
9.30
7.65
5.99
4.45
3.08
1.81
0.53
-0.85
-2.47
-4.44
-6.89
-9.84
-13.12
-16.30
-18.74
-19.79
-19.00
-16.31
-12.08
-6.89
-1.37
4.02
9.00
13.42
17.10
19.85
21.47
21.86
21.14
19.66
17.86
16.13
14.72
13.68
12.91
12.26
11.67
11.17
10.88
10.86
11.07
11.32
11.35
10.99
10.23
9.26
8.31
7.54
6.91
6.22
5.24
3.77
1.74
-0.85
-3.99
-7.62
-11.55
-15.37
-18.46
-20.11
-19.86
-17.62
-13.74
-8.90
-3.78
1.10
5.49
9.29
12.42
14.75
16.14
16.57
16.23
15.49
14.79
14.46
14.62
15.14
15.83
16.50
17.11
17.77
18.61
19.69
20.93
22.12
22.99
23.33
23.07
22.28
21.19
20.00
18.88
17.85
16.83
15.68
14.30
12.67
10.88
9.06
7.41
6.11
5.40
5.51
6.68
9.07
12.72
17.45
22.89
28.52
33.81
38.33
41.87
44.38
45.97
46.83
47.23
47.49
47.99
49.13
51.20
54.29
58.23
62.61
66.91
70.70
73.80
76.37
78.80
81.52
84.73
88.24
91.44
93.52
93.75
91.66
87.11
80.18
70.91
59.28
45.21
28.78
10.37
-9.26
-29.09
-48.05
-65.16
-79.63
-90.92
-98.75
-103.19
-104.65
-103.84
-101.64
-98.87
-96.15
-93.81
-91.92
-90.38
-89.06
-87.76
-86.26
-84.37
-81.90
-78.75
-74.94
-70.59
-65.90
-61.04
-56.11
-51.15
-46.07
-40.79
-35.23
-29.42
-23.47
-17.55
-11.79
-6.23
-0.72
4.97
11.10
17.77
24.90
32.19
39.32
46.15
52.91
60.22
68.96
80.08
94.25
111.66
131.81
153.36
174.11
191.21
201.62
202.71
192.92
172.20
142.04
105.10
64.62
23.74
-14.99
-49.80
-79.73
-104.45
-124.12
-139.08
-149.77
-156.61
-159.98
-160.31
-158.07
-153.84
-148.17
-141.56
-134.42
-127.07
-119.86
-113.19
-107.48
-103.05
-100.02
-98.22
-97.31
-96.87
-96.52
-95.96
-94.86
-92.82
-89.31
-83.88
-76.30
-66.82
-56.07
-44.97
-34.42
-25.06
-17.21
-10.92
-6.09
-2.57
-0.17
1.33
2.28
3.00
3.78
4.75
5.94
7.30
8.80
10.43
12.16
13.87
15.36
16.41
16.87
16.74
16.18
15.35
14.39
13.28
11.94
10.31
8.42
6.34
4.17
1.90
-0.53
-3.18
-5.96
-8.51
-10.30
-10.78
-9.56
-6.65
-2.32
2.88
8.41
13.77
18.60
22.62
25.58
27.30
27.69
26.86
25.11
22.94
20.88
19.32
18.43
18.14
18.22
18.44
18.69
18.99
19.40
19.92
20.38
20.56
20.24
19.33
17.97
16.44
15.01
13.86
12.96
12.15
11.18
9.85
8.06
5.92
3.77
2.15
1.73
3.14
6.73
12.39
19.54
27.15
34.04
39.13
41.78
41.85
39.67
35.83
30.97
25.57
19.98
14.48
9.33
4.86
1.36
-1.00
-2.29
-2.78
-2.85
-2.81
-2.88
-3.07
-3.30
-3.51
-3.67
-3.82
-4.05
-4.43
-5.00
-5.78
-6.75
-7.84
-8.99
-10.06
-10.94
-11.50
-11.58
-10.91
-9.17
-5.96
-0.93
6.06
14.87
25.10
36.17
47.55
58.88
69.94
80.57
90.45
98.98
105.20
107.99
106.39
99.91
88.74
73.79
56.42
38.16
20.29
3.74
-10.97
-23.51
-33.71
-41.44
-46.77
-50.00
-51.72
-52.61
-53.27
-53.99
-54.71
-55.11
-54.86
-53.79
-52.06
-50.13
-48.63
-48.15
-49.00
-51.14
-54.08
-57.03
-59.09
-59.57
-58.09
-54.68
-49.67
-43.43
-36.30
-28.50
-20.26
-11.95
-4.08
2.71
7.84
11.03
12.33
12.14
11.09
9.83
8.87
8.49
8.77
9.61
10.81
12.11
13.21
13.75
13.35
11.78
9.01
5.33
1.23
-2.75
-6.25
-9.16
-11.66
-14.02
-16.45
-18.96
-21.41
-23.50
-24.88
-25.17
-24.05
-21.36
-17.16
-11.78
-5.76
0.22
5.57
9.87
12.90
14.62
15.07
14.40
12.77
10.41
7.62
4.73
2.03
-0.25
-2.01
-3.29
-4.18
-4.80
-5.20
-5.39
-5.33
-5.06
-4.66
-4.27
-3.97
-3.75
-3.47
-2.98
-2.17
-1.09
0.07
1.05
1.61
1.65
1.20
0.53
0.02
0.17
1.45
4.21
8.49
14.04
20.27
26.45
31.92
36.29
39.45
41.59
42.98
43.87
44.39
44.57
44.41
43.97
43.39
42.82
42.42
42.28
42.36
42.54
42.55
42.06
40.68
37.99
33.63
27.44
19.58
10.68
1.75
-5.92
-11.12
-13.00
-11.39
-6.78
-0.16
7.43
15.23
22.96
30.67
38.44
46.03
52.75
57.67
60.00
59.54
56.72
52.51
47.88
43.53
39.61
36.02
32.61
29.57
27.41
26.79
28.21
31.75
36.99
43.17
49.43
54.99
59.25
61.84
62.60
61.56
58.95
55.22
50.97
46.70
42.68
38.71
34.27
28.67
21.47
12.73
3.01
-6.85
-16.10
-24.38
-31.69
-38.14
-43.57
-47.32
-48.48
-46.28
-40.72
-32.78
-24.25
-17.17
-13.24
-13.51
-18.34
-27.56
-40.70
-56.95
-75.03
-93.13
-109.16
-121.25
-128.27
-130.22
-128.08
-123.34
-117.39
-111.15
-105.01
-99.07
-93.45
-88.37
-84.08
-80.66
-77.92
-75.43
-72.75
-69.63
-66.09
-62.34
-58.66
-55.25
-52.21
-49.46
-46.85
-44.10
-40.81
-36.49
-30.66
-23.04
-13.71
-3.07
8.17
19.19
29.25
37.73
44.16
48.25
49.89
49.20
46.67
43.07
39.38
36.49
35.01
35.10
36.50
38.60
40.73
42.29
42.86
42.27
40.55
37.92
34.67
31.13
27.55
24.09
20.82
17.73
14.76
11.87
9.02
6.11
3.03
-0.36
-4.13
-8.20
-12.27
-15.80
-18.16
-18.80
-17.43
-14.14
-9.37
-3.77
1.98
7.37
12.18
16.47
20.53
24.69
29.21
34.06
38.97
43.43
46.97
49.36
50.81
51.93
53.58
56.48
60.97
66.80
73.25
79.42
84.60
88.67
92.14
95.89
100.72
106.74
113.19
118.54
121.13
119.81
114.41
105.82
95.59
85.37
76.28
68.51
60.96
51.34
36.73
14.60
-15.68
-51.91
-88.97
-120.17
-139.42
-143.35
-132.37
-110.40
-83.47
-57.87
-38.57
-28.16
-26.53
-31.23
-38.44
-44.32
-46.24
-43.53
-37.24
-29.16
-20.72
-12.33
-3.74
5.22
14.03
21.52
26.67
29.39
30.70
32.15
34.76
38.26
40.92
40.34
34.43
22.33
4.80
-16.04
-37.42
-56.62
-71.62
-81.38
-85.95
-86.32
-83.97
-80.49
-77.12
-74.50
-72.68
-71.38
-70.26
-69.08
-67.72
-66.07
-64.01
-61.42
-58.44
-55.58
-53.70
-53.76
-56.35
-61.37
-67.91
-74.60
-80.13
-83.78
-85.64
-86.46
-87.22
-88.66
-90.96
-93.72
-96.22
-97.76
-97.97
-96.88
-94.94
-92.70
-90.65
-88.91
-87.15
-84.58
-80.30
-73.59
-64.27
-52.83
-40.31
-27.94
-16.78
-7.42
0.05
5.95
10.82
15.17
19.32
23.38
27.17
30.34
32.56
33.66
33.85
33.78
34.49
37.03
41.77
47.73
52.38
52.14
43.71
25.55
-1.10
-32.46
-63.36
-89.01
-106.41
-114.84
-115.38
-110.04
-101.09
-90.66
-80.82
-73.35
-69.41
-69.04
-70.94
-72.74
-71.88
-66.45
-55.84
-40.80
-23.04
-4.60
12.70
27.68
39.93
49.64
57.40
63.88
69.62
74.89
79.66
83.77
87.05
89.49
91.31
92.93
94.77
97.07
99.66
102.04
103.48
103.31
101.21
97.25
91.85
85.56
78.81
71.85
64.76
57.59
50.49
43.63
37.18
31.16
25.46
19.89
14.35
8.87
3.68
-0.93
-4.72
-7.58
-9.49
-10.49
-10.55
-9.53
-7.23
-3.45
1.88
8.63
16.45
24.76
32.92
40.32
46.53
51.42
55.15
58.02
60.40
62.50
64.44
66.23
67.90
69.46
70.86
71.86
71.95
70.51
66.97
61.09
53.06
43.39
32.72
21.53
10.07
-1.61
-13.47
-25.31
-36.73
-47.17
-55.99
-62.61
-66.60
-67.66
-65.77
-61.16
-54.44
-46.48
-38.21
-30.45
-23.70
-18.20
-14.01
-11.15
-9.64
-9.39
-10.09
-11.19
-12.09
-12.30
-11.73
-10.65
-9.50
-8.64
-8.15
-7.88
-7.62
-7.29
-6.97
-6.85
-7.03
-7.50
-8.17
-8.97
-9.92
-11.05
-12.32
-13.60
-14.70
-15.51
-16.03
-16.47
-17.05
-18.01
-19.47
-21.47
-23.96
-26.80
-29.68
-32.13
-33.57
-33.49
-31.66
-28.27
-23.85
-19.10
-14.62
-10.81
-7.73
-5.29
-3.30
-1.67
-0.37
0.55
1.03
1.08
0.82
0.43
0.11
0.03
0.24
0.73
1.50
2.58
4.05
5.99
8.42
11.22
14.22
17.19
19.99
22.57
24.95
27.14
29.06
30.50
31.15
30.69
28.90
25.72
21.34
16.17
10.80
5.93
2.18
-0.03
-0.61
0.20
1.93
4.03
6.10
7.90
9.42
10.66
11.64
12.30
12.60
12.58
12.37
12.14
11.93
11.65
11.12
10.18
8.79
7.02
4.96
2.71
0.34
-2.06
-4.31
-6.12
-7.23
-7.50
-7.00
-6.00
-4.87
-3.88
-3.18
-2.73
-2.46
-2.29
-2.30
-2.70
-3.73
-5.50
-7.89
-10.44
-12.47
-13.32
-12.51
-10.04
-6.22
-1.64
3.10
7.56
11.46
14.66
17.10
18.73
19.53
19.57
19.01
18.07
16.94
15.76
14.58
13.34
11.96
10.37
8.61
6.77
5.01
3.53
2.42
1.72
1.32
1.03
0.66
0.04
-0.91
-2.19
-3.76
-5.51
-7.33
-9.09
-10.69
-12.14
-13.52
-15.01
-16.79
-18.87
-21.07
-23.01
-24.14
-24.01
-22.39
-19.37
-15.34
-10.84
-6.37
-2.30
1.19
4.07
6.33
7.97
9.01
9.51
9.62
9.53
9.46
9.56
9.88
10.38
10.96
11.50
11.90
12.12
12.15
12.01
11.75
11.32
10.62
9.54
7.97
5.89
3.45
0.87
-1.60
-3.82
-5.77
-7.61
-9.53
-11.71
-14.17
-16.79
-19.27
-21.19
-22.11
-21.70
-19.86
-16.71
-12.64
-8.13
-3.67
0.38
3.79
6.50
8.53
9.91
10.68
10.89
10.60
9.91
8.99
8.01
7.15
6.51
6.12
5.98
6.04
6.24
6.49
6.72
6.81
6.67
6.29
5.67
4.88
3.96
2.92
1.69
0.23
-1.44
-3.27
-5.20
-7.21
-9.32
-11.52
-13.70
-15.59
-16.78
-16.89
-15.66
-13.07
-9.40
-5.13
-0.79
3.17
6.45
8.97
10.75
11.90
12.50
12.60
12.27
11.55
10.59
9.58
8.75
8.27
8.26
8.71
9.49
10.42
11.21
11.66
11.59
10.97
9.83
8.29
6.43
4.31
1.99
-0.45
-2.92
-5.30
-7.55
-9.70
-11.84
-13.96
-15.92
-17.38
-17.95
-17.29
-15.30
-12.10
-8.06
-3.64
0.74
4.74
8.17
10.91
12.91
14.17
14.72
14.65
14.18
13.66
13.49
14.03
15.42
17.46
19.56
21.00
21.18
19.89
17.38
14.21
11.00
8.18
5.92
4.15
2.73
1.49
0.31
-0.95
-2.47
-4.39
-6.70
-9.16
-11.31
-12.61
-12.59
-11.07
-8.14
-4.16
0.44
5.25
10.01
14.63
19.15
23.61
27.97
32.08
35.69
38.59
40.63
41.80
42.15
41.74
40.63
38.83
36.34
33.27
29.77
26.08
22.45
19.08
16.07
13.43
11.11
8.99
7.00
5.08
3.19
1.34
-0.48
-2.33
-4.27
-6.43
-8.90
-11.68
-14.60
-17.32
-19.37
-20.33
-20.03
-18.55
-16.25
-13.62
-11.12
-8.98
-7.22
-5.74
-4.44
-3.27
-2.26
-1.42
-0.71
-0.10
0.46
0.96
1.35
1.65
1.91
2.22
2.63
3.09
3.36
3.07
1.86
-0.54
-4.13
-8.65
-13.59
-18.31
-22.26
-25.10
-26.83
-27.74
-28.31
-28.94
-29.84
-30.95
-31.96
-32.46
-32.02
-30.39
-27.51
-23.51
-18.72
-13.55
-8.45
-3.83
0.05
3.08
5.34
7.00
8.30
9.47
10.62
11.77
12.83
13.63
13.96
13.75
13.05
12.12
11.33
11.03
11.43
12.53
14.18
16.14
18.18
20.13
21.80
23.01
23.54
23.26
22.15
20.32
18.02
15.52
13.08
10.93
9.28
8.28
7.98
8.31
9.02
9.81
10.40
10.59
10.36
9.77
8.94
7.95
6.88
5.76
4.61
3.45
2.35
1.36
0.49
-0.25
-0.89
-1.47
-1.99
-2.43
-2.79
-3.12
-3.54
-4.24
-5.41
-7.13
-9.34
-11.87
-14.48
-16.94
-19.12
-21.00
-22.64
-24.19
-25.80
-27.58
-29.57
-31.59
-33.30
-34.25
-33.98
-32.26
-29.12
-24.94
-20.28
-15.66
-11.46
-7.83
-4.80
-2.35
-0.53
0.54
0.80
0.30
-0.70
-1.82
-2.67
-3.01
-2.81
-2.21
-1.46
-0.81
-0.41
-0.32
-0.55
-1.04
-1.75
-2.57
-3.40
-4.11
-4.65
-5.03
-5.37
-5.83
-6.50
-7.42
-8.56
-9.91
-11.43
-13.04
-14.57
-15.65
-15.85
-14.77
-12.32
-8.76
-4.63
-0.57
2.97
5.80
7.95
9.57
10.73
11.39
11.49
10.97
9.95
8.64
7.31
6.16
5.24
4.39
3.37
1.97
0.11
-2.09
-4.38
-6.55
-8.45
-10.08
-11.51
-12.81
-13.98
-14.96
-15.73
-16.28
-16.69
-17.08
-17.54
-18.12
-18.80
-19.42
-19.70
-19.30
-17.85
-15.19
-11.39
-6.83
-2.01
2.60
6.70
10.22
13.18
15.61
17.46
18.65
19.19
19.19
18.96
18.89
19.30
20.41
22.23
24.63
27.37
30.16
32.72
34.94
36.89
38.80
41.01
43.78
47.17
50.97
54.82
58.37
61.50
64.39
67.45
71.20
76.02
82.10
89.46
97.93
107.21
116.80
125.94
133.75
139.48
142.82
144.08
144.01
143.35
142.18
139.63
133.99
123.36
106.47
83.21
54.66
22.69
-10.70
-43.75
-75.09
-103.54
-128.04
-147.66
-161.96
-171.19
-176.33
-178.74
-179.65
-179.63
-178.47
-175.43
-169.74
-161.12
-150.03
-137.52
-124.87
-113.11
-102.81
-94.04
-86.61
-80.27
-74.84
-70.10
-65.66
-60.90
-55.13
-47.90
-39.22
-29.56
-19.69
-10.33
-1.94
5.39
11.80
17.48
22.51
26.83
30.29
32.79
34.36
35.17
35.49
35.70
36.17
37.23
39.00
41.30
43.66
45.35
45.68
44.15
40.62
35.23
28.31
20.21
11.30
2.04
-6.94
-14.87
-21.10
-25.34
-27.93
-29.76
-31.98
-35.44
-40.33
-46.01
-51.22
-54.64
-55.34
-53.12
-48.58
-42.77
-36.79
-31.44
-27.08
-23.70
-21.15
-19.26
-17.93
-17.11
-16.68
-16.42
-16.08
-15.42
-14.33
-12.85
-11.12
-9.34
-7.64
-6.08
-4.62
-3.19
-1.75
-0.35
0.89
1.76
2.08
1.73
0.75
-0.73
-2.46
-4.18
-5.72
-7.05
-8.30
-9.70
-11.42
-13.42
-15.41
-16.91
-17.44
-16.66
-14.52
-11.21
-7.10
-2.62
1.84
5.98
9.58
12.44
14.53
15.81
16.38
16.33
15.81
14.97
14.00
13.12
12.51
12.23
12.20
12.25
12.19
11.92
11.50
11.07
10.73
10.45
10.07
9.37
8.21
6.56
4.56
2.41
0.30
-1.63
-3.35
-4.89
-6.42
-8.15
-10.31
-12.99
-16.05
-19.08
-21.49
-22.67
-22.20
-19.98
-16.22
-11.38
-6.01
-0.61
4.42
8.82
12.40
15.08
16.85
17.77
18.00
17.78
17.36
16.93
16.55
16.22
15.90
15.56
15.29
15.18
15.32
15.69
16.15
16.49
16.51
16.06
15.11
13.67
11.81
9.62
7.22
4.78
2.46
0.42
-1.30
-2.80
-4.32
-6.16
-8.55
-11.53
-14.84
-17.92
-20.10
-20.80
-19.71
-16.88
-12.74
-7.89
-2.89
1.85
6.12
9.82
12.90
15.20
16.57
16.89
16.21
14.77
12.99
11.29
10.02
9.33
9.23
9.54
10.09
10.76
11.49
12.30
13.14
13.89
14.33
14.23
13.47
12.08
10.28
8.34
6.49
4.80
3.21
1.61
-0.04
-1.72
-3.34
-4.90
-6.50
-8.24
-10.16
-12.05
-13.47
-13.85
-12.77
-10.07
-5.97
-0.98
4.29
9.27
13.55
16.90
19.21
20.45
20.62
19.82
18.24
16.21
14.12
12.35
11.10
10.38
10.02
9.79
9.52
9.17
8.82
8.57
8.47
8.48
8.43
8.15
7.47
6.33
4.79
3.01
1.18
-0.47
-1.87
-3.00
-4.05
-5.26
-6.90
-9.11
-11.84
-14.77
-17.36
-18.96
-19.04
-17.36
-14.06
-9.60
-4.59
0.38
4.91
8.76
11.84
14.10
15.52
16.10
15.93
15.15
13.95
12.55
11.07
9.61
8.21
6.92
5.82
5.02
4.61
4.59
4.86
5.21
5.41
5.26
4.64
3.58
2.12
0.38
-1.55
-3.54
-5.47
-7.23
-8.80
-10.27
-11.82
-13.70
-16.09
-18.94
-21.87
-24.31
-25.59
-25.20
-23.04
-19.36
-14.73
-9.77
-4.92
-0.39
3.83
7.72
11.18
13.94
15.76
16.53
16.38
15.66
14.75
13.90
13.17
12.51
11.84
11.17
10.66
10.51
10.82
11.55
12.45
13.16
13.35
12.80
11.51
9.65
7.55
5.53
3.78
2.33
1.01
-0.40
-2.10
-4.15
-6.48
-8.91
-11.18
-13.05
-14.20
-14.37
-13.33
-11.00
-7.53
-3.27
1.27
5.60
9.36
12.41
14.76
16.45
17.53
17.95
17.70
16.82
15.50
14.06
12.83
12.11
11.99
12.43
13.29
14.34
15.39
16.32
17.05
17.56
17.85
17.84
17.42
16.51
15.08
13.25
11.25
9.39
7.85
6.61
5.43
3.92
1.71
-1.36
-5.15
-9.18
-12.75
-15.17
-15.92
-14.87
-12.25
-8.65
-4.74
-1.12
1.82
3.94
5.22
5.70
5.38
4.21
2.26
-0.32
-3.22
-6.11
-8.71
-10.90
-12.71
-14.24
-15.58
-16.74
-17.62
-18.13
-18.30
-18.28
-18.36
-18.77
-19.61
-20.75
-21.90
-22.71
-22.99
-22.78
-22.30
-21.90
-21.92
-22.56
-23.84
-25.52
-27.19
-28.28
-28.19
-26.48
-22.98
-17.89
-11.73
-5.18
1.06
6.47
10.78
13.94
15.99
16.99
17.04
16.22
14.74
12.88
11.02
9.50
8.53
8.16
8.27
8.73
9.40
10.25
11.25
12.32
13.23
13.66
13.28
11.93
9.68
6.79
3.63
0.53
-2.33
-4.92
-7.31
-9.67
-12.11
-14.77
-17.61
-20.46
-22.93
-24.45
-24.48
-22.62
-18.85
-13.52
-7.31
-1.01
4.73
9.49
13.10
15.54
16.84
17.04
16.18
14.41
12.03
9.44
7.03
5.09
3.70
2.73
2.03
1.51
1.18
1.12
1.34
1.72
2.05
2.14
1.89
1.34
0.60
-0.18
-0.95
-1.68
-2.39
-3.09
-3.83
-4.71
-5.88
-7.49
-9.48
-11.54
-13.04
-13.28
-11.71
-8.21
-3.12
2.82
8.76
13.98
18.07
20.90
22.54
23.14
22.83
21.71
19.95
17.81
15.61
13.64
12.09
10.95
10.08
9.31
8.55
7.87
7.37
7.13
7.05
6.87
6.29
5.08
3.24
0.91
-1.66
-4.27
-6.81
-9.21
-11.42
-13.38
-15.06
-16.55
-17.99
-19.50
-21.02
-22.24
-22.63
-21.65
-19.01
-14.78
-9.44
-3.67
1.85
6.64
10.49
13.32
15.14
15.95
15.73
14.55
12.62
10.26
7.83
5.66
3.90
2.56
1.49
0.54
-0.38
-1.30
-2.22
-3.13
-4.08
-5.17
-6.45
-7.87
-9.31
-10.58
-11.55
-12.25
-12.91
-13.83
-15.29
-17.39
-20.03
-22.88
-25.50
-27.37
-27.98
-26.92
-23.96
-19.18
-13.01
-6.11
0.71
6.78
11.65
15.17
17.41
18.50
18.58
17.76
16.21
14.18
12.02
10.07
8.61
7.75
7.44
7.52
7.81
8.15
8.43
8.57
8.48
8.02
7.11
5.73
3.97
2.04
0.19
-1.46
-2.89
-4.24
-5.78
-7.73
-10.22
-13.14
-16.15
-18.72
-20.24
-20.16
-18.20
-14.40
-9.17
-3.12
3.04
8.71
13.50
17.22
19.86
21.48
22.15
22.00
21.17
19.88
18.39
16.91
15.64
14.65
13.92
13.40
13.01
12.74
12.58
12.55
12.58
12.55
12.30
11.68
10.62
9.14
7.39
5.62
4.10
3.01
2.40
2.14
1.96
1.59
0.86
-0.21
-1.41
-2.39
-2.77
-2.30
-0.93
1.16
3.58
5.81
7.42
8.18
8.20
7.89
7.79
8.34
9.66
11.49
13.30
14.48
14.56
13.44
11.34
8.64
5.79
3.11
0.78
-1.13
-2.57
-3.56
-4.24
-4.83
-5.69
-7.15
-9.34
-12.12
-15.04
-17.57
-19.28
-20.10
-20.33
-20.49
-21.10
-22.39
-24.23
-26.14
-27.51
-27.80
-26.74
-24.35
-20.86
-16.69
-12.23
-7.85
-3.84
-0.41
2.25
4.00
4.76
4.54
3.48
1.84
-0.00
-1.65
-2.76
-3.14
-2.82
-2.02
-1.03
-0.14
0.48
0.75
0.67
0.25
-0.49
-1.54
-2.84
-4.29
-5.77
-7.18
-8.53
-9.91
-11.49
-13.42
-15.78
-18.47
-21.16
-23.31
-24.30
-23.58
-20.92
-16.44
-10.64
-4.27
1.92
7.33
11.64
14.75
16.73
17.69
17.74
16.99
15.57
13.67
11.53
9.40
7.48
5.88
4.64
3.76
3.20
2.93
2.90
2.97
2.90
2.45
1.43
-0.17
-2.15
-4.17
-5.92
-7.23
-8.15
-8.93
-9.89
-11.32
-13.40
-16.13
-19.30
-22.47
-25.03
-26.36
-25.98
-23.75
-19.94
-15.14
-10.06
-5.29
-1.20
2.06
4.39
5.72
6.02
5.32
3.91
2.19
0.60
-0.58
-1.29
-1.64
-1.74
-1.62
-1.18
-0.32
0.99
2.62
4.33
5.84
6.93
7.53
7.65
7.35
6.75
5.96
5.15
4.42
3.83
3.35
2.88
2.28
1.46
0.43
-0.67
-1.50
-1.61
-0.54
2.03
6.08
11.24
16.84
22.11
26.47
29.59
31.45
32.14
31.73
30.24
27.65
24.08
19.78
15.17
10.68
6.67
3.29
0.59
-1.44
-2.82
-3.52
-3.56
-3.03
-2.17
-1.30
-0.76
-0.81
-1.52
-2.77
-4.31
-5.84
-7.12
-8.03
-8.63
-9.11
-9.75
-10.80
-12.39
-14.36
-16.30
-17.59
-17.68
-16.22
-13.25
-9.16
-4.52
0.10
4.31
7.90
10.76
12.81
13.96
14.15
13.43
12.00
10.12
8.11
6.27
4.81
3.85
3.44
3.48
3.81
4.23
4.53
4.60
4.37
3.84
3.03
1.99
0.79
-0.49
-1.77
-3.06
-4.43
-6.00
-7.88
-10.15
-12.76
-15.58
-18.33
-20.59
-21.82
-21.50
-19.26
-15.06
-9.26
-2.52
4.42
10.97
16.78
21.74
25.83
29.03
31.24
32.36
32.32
31.19
29.17
26.50
23.45
20.26
17.18
14.41
12.09
10.26
8.83
7.65
6.53
5.38
4.16
2.94
1.75
0.62
-0.41
-1.28
-1.86
-2.04
-1.83
-1.40
-1.11
-1.36
-2.37
-4.00
-5.81
-7.16
-7.45
-6.35
-3.85
-0.24
4.08
8.68
13.24
17.46
21.10
23.94
25.80
26.58
26.31
25.10
23.15
20.67
17.85
14.88
11.90
9.03
6.37
4.02
2.07
0.65
-0.12
-0.23
0.22
0.93
1.54
1.71
1.22
0.05
-1.68
-3.74
-5.88
-7.87
-9.51
-10.73
-11.56
-12.14
-12.65
-13.20
-13.75
-14.09
-13.90
-12.89
-10.95
-8.18
-4.86
-1.36
1.94
4.74
6.87
8.29
9.03
9.15
8.74
7.85
6.53
4.91
3.17
1.57
0.31
-0.49
-0.88
-1.01
-1.03
-1.09
-1.24
-1.48
-1.82
-2.27
-2.89
-3.70
-4.65
-5.68
-6.73
-7.78
-8.90
-10.22
-11.85
-13.80
-15.92
-17.93
-19.39
-19.91
-19.18
-17.07
-13.71
-9.43
-4.75
-0.22
3.64
6.48
8.19
8.91
8.95
8.61
8.14
7.60
6.94
6.10
5.14
4.23
3.57
3.30
3.39
3.66
3.89
3.92
3.73
3.39
2.97
2.48
1.88
1.08
0.05
-1.17
-2.50
-3.86
-5.24
-6.70
-8.29
-10.04
-11.89
-13.61
-14.90
-15.34
-14.67
-12.80
-9.90
-6.42
-2.82
0.48
3.29
5.60
7.50
9.01
10.07
10.58
10.50
9.92
9.10
8.32
7.82
7.65
7.71
7.80
7.71
7.38
6.88
6.43
6.25
6.48
7.04
7.70
8.13
8.07
7.47
6.50
5.45
4.58
4.00
3.66
3.36
2.92
2.18
1.14
-0.15
-1.63
-3.17
-4.65
-5.87
-6.61
-6.65
-5.86
-4.32
-2.29
-0.16
1.71
3.06
3.83
4.09
3.98
3.61
3.04
2.30
1.42
0.47
-0.43
-1.17
-1.68
-1.91
-1.85
-1.55
-1.10
-0.63
-0.27
-0.10
-0.14
-0.36
-0.69
-1.10
-1.59
-2.22
-3.02
-4.04
-5.28
-6.72
-8.29
-9.83
-11.08
-11.72
-11.44
-10.08
-7.70
-4.61
-1.28
1.78
4.17
5.74
6.55
6.85
6.87
6.80
6.67
6.42
5.97
5.24
4.20
2.81
1.10
-0.84
-2.80
-4.50
-5.71
-6.30
-6.39
-6.18
-5.95
-5.81
-5.76
-5.70
-5.54
-5.29
-5.06
-5.00
-5.21
-5.70
-6.42
-7.27
-8.08
-8.68
-8.87
-8.49
-7.45
-5.80
-3.69
-1.33
1.03
3.18
5.03
6.54
7.72
8.57
9.07
9.15
8.76
7.93
6.80
5.60
4.60
3.97
3.79
3.99
4.37
4.71
4.75
4.33
3.39
2.02
0.40
-1.17
-2.46
-3.32
-3.75
-3.84
-3.72
-3.48
-3.18
-2.88
-2.65
-2.62
-2.85
-3.37
-4.07
-4.81
-5.45
-5.86
-6.03
-6.03
-6.02
-6.13
-6.42
-6.77
-6.93
-6.58
-5.49
-3.59
-1.02
1.98
5.17
8.43
11.73
15.06
18.35
21.42
24.03
26.03
27.40
28.36
29.23
30.33
31.90
33.98
36.52
39.39
42.50
45.78
49.21
52.74
56.30
59.80
63.21
66.59
70.08
73.85
77.98
82.31
86.32
89.27
90.30
88.80
84.67
78.42
71.10
63.92
57.93
53.66
51.07
49.73
49.02
48.44
47.63
46.51
45.17
43.92
43.25
43.66
45.50
48.61
52.21
55.11
56.09
54.57
50.94
46.61
43.49
43.27
46.56
52.63
59.49
64.57
65.67
61.77
53.46
42.93
33.48
28.80
32.03
44.85
66.72
94.65
123.60
147.78
162.13
163.79
152.69
131.26
103.38
73.16
44.03
18.35
-2.53
-18.14
-28.76
-35.36
-39.46
-42.80
-46.96
-52.98
-61.17
-71.11
-81.88
-92.32
-101.39
-108.46
-113.47
-116.82
-119.10
-120.74
-121.76
-121.84
-120.54
-117.69
-113.58
-108.87
-104.28
-100.21
-96.63
-93.17
-89.35
-84.95
-80.15
-75.42
-71.34
-68.38
-66.72
-66.31
-66.82
-67.78
-68.69
-69.10
-68.77
-67.68
-66.02
-64.07
-62.09
-60.21
-58.45
-56.77
-55.14
-53.52
-51.91
-50.35
-48.98
-48.04
-47.81
-48.50
-50.09
-52.24
-54.37
-55.89
-56.37
-55.71
-54.12
-52.02
-49.88
-48.07
-46.83
-46.26
-46.31
-46.85
-47.62
-48.32
-48.62
-48.36
-47.56
-46.49
-45.58
-45.17
-45.38
-45.97
-46.57
-46.85
-46.81
-46.89
-47.81
-50.27
-54.66
-60.85
-68.24
-75.77
-82.01
-85.31
-84.13
-77.47
-65.37
-48.97
-30.17
-10.91
7.53
24.74
40.88
56.10
70.01
81.84
90.78
96.59
99.72
101.03
101.33
100.99
100.00
98.23
95.73
92.65
89.08
84.76
79.09
71.50
61.90
50.90
39.77
29.88
22.16
16.76
13.11
10.30
7.49
4.16
0.04
-5.07
-11.45
-19.34
-28.67
-38.78
-48.48
-56.35
-61.31
-63.08
-62.29
-60.25
-58.37
-57.72
-58.68
-60.98
-63.99
-67.11
-70.06
-72.92
-75.99
-79.46
-83.16
-86.60
-89.06
-90.10
-89.75
-88.69
-88.01
-88.82
-91.83
-97.17
-104.43
-112.86
-121.54
-129.44
-135.48
-138.49
-137.46
-131.76
-121.43
-107.17
-90.14
-71.57
-52.39
-33.05
-13.68
5.69
24.81
43.22
60.29
75.47
88.35
98.71
106.45
111.57
114.06
114.03
111.69
107.33
101.34
94.14
86.21
78.08
70.30
63.39
57.66
53.20
49.80
47.12
44.82
42.74
40.92
39.51
38.67
38.42
38.75
39.58
40.98
43.06
45.88
49.23
52.52
54.81
55.10
52.64
47.18
39.04
28.88
17.55
5.84
-5.60
-16.13
-25.20
-32.31
-37.24
-40.21
-41.88
-43.19
-45.02
-47.80
-51.42
-55.26
-58.64
-61.03
-62.39
-62.98
-63.22
-63.26
-62.94
-61.84
-59.56
-56.02
-51.54
-46.78
-42.52
-39.31
-37.33
-36.31
-35.70
-34.87
-33.42
-31.34
-29.07
-27.35
-27.12
-29.19
-34.08
-41.79
-51.62
-62.14
-71.32
-76.98
-77.39
-71.84
-60.95
-46.49
-30.81
-16.15
-4.11
4.52
9.61
11.45
10.62
7.86
4.17
0.69
-1.43
-1.29
1.53
6.94
14.41
23.13
32.24
41.01
48.93
55.79
61.64
66.62
70.85
74.17
76.16
76.18
73.62
68.18
60.08
50.08
39.46
29.62
21.81
16.76
14.57
14.72
16.26
18.05
19.04
18.51
16.21
12.41
7.83
3.41
-0.03
-2.05
-2.68
-2.22
-0.88
1.52
5.58
12.01
21.09
32.27
44.19
55.09
63.53
68.86
71.29
71.62
70.66
68.87
66.32
62.94
58.90
54.73
51.14
48.64
47.29
46.66
46.13
45.35
44.49
44.19
45.20
47.88
51.95
56.39
59.80
60.82
58.56
52.79
43.97
33.03
21.13
9.32
-1.63
-11.33
-19.76
-27.03
-33.33
-38.72
-43.08
-46.19
-47.95
-48.49
-48.41
-48.83
-51.23
-57.07
-67.32
-81.95
-99.77
-118.66
-136.06
-149.65
-157.92
-160.32
-157.23
-149.68
-138.93
-126.11
-112.01
-96.95
-80.83
-63.34
-44.28
-23.76
-2.29
19.34
40.22
59.66
77.19
92.54
105.59
116.24
124.54
130.73
135.27
138.71
141.49
143.66
144.78
144.05
140.77
134.76
126.52
117.14
107.87
99.74
93.39
89.08
86.94
87.10
89.54
94.02
99.92
106.53
113.33
120.25
127.60
135.61
143.89
151.13
155.41
154.81
148.25
135.79
118.68
98.77
77.96
57.66
38.71
21.40
5.74
-8.33
-20.85
-31.74
-40.81
-47.91
-52.93
-56.04
-57.71
-58.67
-59.69
-61.34
-63.82
-66.99
-70.53
-74.04
-77.19
-79.70
-81.30
-81.77
-81.05
-79.30
-76.89
-74.26
-71.69
-69.21
-66.64
-63.77
-60.55
-57.10
-53.59
-50.08
-46.50
-42.79
-39.06
-35.65
-33.03
-31.54
-31.08
-31.14
-31.03
-30.23
-28.58
-26.38
-24.12
-22.29
-21.16
-20.79
-21.18
-22.27
-24.03
-26.34
-28.93
-31.35
-32.99
-33.25
-31.72
-28.47
-24.15
-19.93
-17.03
-16.29
-17.71
-20.43
-23.11
-24.66
-24.75
-23.97
-23.40
-23.98
-25.94
-28.71
-31.34
-33.09
-33.74
-33.65
-33.30
-32.92
-32.25
-30.69
-27.70
-23.15
-17.47
-11.47
-5.99
-1.51
1.99
4.99
8.16
11.98
16.52
21.28
25.37
27.81
27.97
25.79
21.89
17.31
13.07
9.89
7.91
6.87
6.24
5.65
4.86
3.91
2.97
2.15
1.49
0.90
0.27
-0.48
-1.31
-2.09
-2.72
-3.26
-4.01
-5.37
-7.62
-10.77
-14.49
-18.32
-21.91
-25.16
-28.18
-31.06
-33.67
-35.71
-36.88
-37.17
-36.76
-35.76
-33.71
-29.39
-21.23
-8.24
9.15
28.74
47.19
61.24
68.79
69.30
63.42
52.30
37.00
18.50
-2.06
-23.00
-42.37
-58.34
-69.97
-77.39
-81.58
-83.61
-84.06
-82.86
-79.53
-73.87
-66.33
-58.19
-51.21
-47.08
-46.78
-50.01
-55.20
-59.74
-60.91
-56.71
-46.65
-32.00
-15.44
-0.49
9.43
11.82
5.63
-8.39
-27.89
-49.52
-69.78
-85.94
-96.69
-102.24
-103.82
-102.97
-100.89
-98.19
-95.20
-92.27
-89.96
-88.91
-89.40
-91.13
-93.27
-94.92
-95.42
-94.63
-92.72
-89.79
-85.61
-79.64
-71.39
-60.79
-48.54
-35.94
-24.66
-16.18
-11.45
-10.58
-12.82
-16.78
-20.83
-23.56
-24.20
-22.78
-19.94
-16.51
-13.05
-9.66
-6.04
-1.95
2.46
6.52
9.20
9.60
7.32
2.63
-3.73
-10.85
-18.05
-25.07
-31.93
-38.84
-45.86
-52.79
-59.21
-64.54
-68.18
-69.56
-68.12
-63.31
-54.72
-42.30
-26.47
-8.16
11.38
30.92
49.48
66.40
81.22
93.61
103.32
110.29
114.78
117.39
118.86
119.81
120.43
120.50
119.53
117.08
113.05
107.79
102.00
96.42
91.59
87.60
84.13
80.64
76.59
71.70
66.08
60.07
54.04
48.17
42.42
36.56
30.43
24.11
18.01
12.85
9.42
8.39
10.08
14.41
20.84
28.58
36.75
44.57
51.47
57.08
61.20
63.69
64.47
63.61
61.45
58.64
55.97
54.20
53.78
54.69
56.51
58.64
60.52
61.81
62.36
62.20
61.35
59.79
57.53
54.63
51.25
47.62
43.90
40.13
36.16
31.68
26.34
19.84
12.20
3.84
-4.42
-11.45
-16.15
-17.71
-15.88
-11.02
-3.91
4.44
13.06
21.23
28.46
34.48
39.10
42.29
44.09
44.72
44.49
43.82
43.08
42.54
42.30
42.33
42.46
42.52
42.39
42.03
41.43
40.60
39.48
37.97
35.88
33.14
29.73
25.82
21.61
17.29
12.92
8.37
3.39
-2.31
-8.87
-16.06
-23.22
-29.28
-33.08
-33.73
-30.92
-25.05
-17.09
-8.19
0.69
8.94
16.34
22.83
28.33
32.71
35.88
37.90
39.08
39.85
40.63
41.67
43.01
44.49
45.86
46.91
47.52
47.62
47.18
46.14
44.39
41.87
38.57
34.63
30.27
25.76
21.26
16.83
12.39
7.75
2.72
-2.88
-9.12
-15.82
-22.51
-28.42
-32.61
-34.26
-32.92
-28.74
-22.43
-15.01
-7.49
-0.64
5.13
9.69
13.08
15.39
16.69
17.13
16.90
16.25
15.48
14.80
14.36
14.26
14.53
15.17
16.11
17.23
18.33
19.14
19.43
19.01
17.80
15.86
13.35
10.52
7.61
4.82
2.23
-0.21
-2.66
-5.36
-8.46
-11.96
-15.56
-18.78
-20.99
-21.66
-20.48
-17.44
-12.87
-7.30
-1.34
4.44
9.63
13.99
17.41
19.86
21.30
21.72
21.13
19.65
17.55
15.18
12.93
11.12
9.91
9.27
9.02
8.92
8.68
8.13
7.17
5.83
4.23
2.55
0.90
-0.67
-2.23
-3.94
-5.98
-8.47
-11.42
-14.74
-18.24
-21.57
-24.33
-26.00
-26.14
-24.46
-20.99
-16.10
-10.44
-4.74
0.37
4.51
7.60
9.75
11.16
11.98
12.31
12.14
11.51
10.45
9.10
7.66
6.37
5.37
4.71
4.29
3.92
3.40
2.60
1.52
0.20
-1.31
-3.01
-4.99
-7.32
-9.97
-12.77
-15.50
-18.04
-20.50
-23.16
-26.33
-30.05
-33.96
-37.29
-39.15
-38.86
-36.29
-31.81
-26.16
-20.13
-14.33
-9.09
-4.58
-0.89
1.82
3.45
3.96
3.53
2.46
1.20
0.12
-0.50
-0.52
0.01
0.96
2.09
3.18
4.06
4.61
4.82
4.72
4.36
3.77
2.94
1.85
0.50
-1.09
-2.87
-4.83
-6.99
-9.41
-12.14
-15.15
-18.17
-20.74
-22.23
-22.07
-20.00
-16.16
-11.08
-5.54
-0.20
4.49
8.37
11.48
13.84
15.44
16.18
16.00
15.01
13.46
11.72
10.15
8.93
8.09
7.52
7.06
6.56
5.91
5.10
4.10
2.90
1.48
-0.14
-1.92
-3.73
-5.49
-7.16
-8.82
-10.60
-12.64
-14.99
-17.56
-20.11
-22.33
-23.82
-24.23
-23.30
-20.99
-17.45
-13.05
-8.27
-3.58
0.65
4.25
7.16
9.39
10.93
11.73
11.73
10.96
9.56
7.79
6.00
4.51
3.55
3.17
3.26
3.60
3.95
4.07
3.81
3.14
2.12
0.90
-0.35
-1.44
-2.27
-2.81
-3.16
-3.59
-4.50
-6.36
-9.47
-13.85
-19.02
-24.16
-28.32
-30.75
-31.16
-29.78
-27.11
-23.68
-19.86
-15.77
-11.51
-7.29
-3.48
-0.46
1.49
2.35
2.39
1.99
1.50
1.18
1.11
1.24
1.44
1.50
1.21
0.41
-0.94
-2.77
-4.93
-7.20
-9.45
-11.56
-13.48
-15.17
-16.60
-17.86
-19.09
-20.49
-22.11
-23.72
-24.80
-24.68
-22.82
-19.06
-13.74
-7.57
-1.42
3.97
8.12
10.80
12.00
11.85
10.56
8.48
5.97
3.40
1.02
-1.05
-2.79
-4.20
-5.27
-5.88
-5.92
-5.35
-4.28
-2.98
-1.77
-0.94
-0.66
-0.94
-1.65
-2.65
-3.77
-4.89
-5.97
-7.07
-8.31
-9.91
-12.04
-14.68
-17.53
-19.96
-21.18
-20.60
-18.04
-13.87
-8.84
-3.84
0.47
3.74
5.90
6.99
7.04
6.08
4.18
1.57
-1.35
-4.11
-6.33
-7.82
-8.56
-8.67
-8.28
-7.51
-6.41
-5.02
-3.38
-1.55
0.42
2.42
4.30
5.88
6.94
7.28
6.75
5.29
2.97
-0.06
-3.55
-7.20
-10.60
-13.28
-14.77
-14.75
-13.18
-10.35
-6.78
-3.08
0.33
3.23
5.63
7.59
9.16
10.26
10.84
10.95
10.75
10.52
10.52
10.91
11.65
12.59
13.50
14.19
14.53
14.45
13.99
13.19
12.13
10.88
9.50
8.03
6.48
4.79
2.86
0.60
-2.13
-5.29
-8.74
-12.10
-14.85
-16.46
-16.54
-14.97
-11.94
-7.88
-3.30
1.29
5.52
9.11
11.90
13.81
14.82
14.96
14.31
13.00
11.18
9.02
6.72
4.51
2.57
1.04
-0.06
-0.86
-1.53
-2.31
-3.37
-4.75
-6.40
-8.20
-10.00
-11.72
-13.34
-14.89
-16.43
-18.03
-19.77
-21.77
-24.04
-26.45
-28.61
-29.94
-29.84
-27.84
-23.84
-18.16
-11.43
-4.41
2.26
8.11
12.91
16.58
19.11
20.54
20.94
20.47
19.35
17.81
16.07
14.27
12.56
11.04
9.83
9.01
8.58
8.40
8.25
7.85
7.02
5.69
3.97
2.01
-0.07
-2.21
-4.42
-6.75
-9.24
-11.94
-14.87
-18.08
-21.52
-24.98
-28.02
-30.04
-30.47
-28.95
-25.51
-20.57
-14.81
-8.92
-3.45
1.27
5.05
7.79
9.42
9.94
9.47
8.23
6.60
4.93
3.59
2.79
2.64
3.11
4.06
5.33
6.69
7.97
9.04
9.78
10.12
10.05
9.61
8.96
8.29
7.80
7.56
7.45
7.18
6.41
4.87
2.58
-0.13
-2.71
-4.44
-4.73
-3.29
-0.19
4.14
9.03
13.81
17.94
21.06
23.09
24.07
24.12
23.38
22.03
20.22
18.15
15.99
13.92
12.07
10.53
9.32
8.43
7.79
7.28
6.75
6.09
5.23
4.19
3.03
1.86
0.76
-0.27
-1.29
-2.42
-3.80
-5.53
-7.68
-10.26
-13.22
-16.35
-19.28
-21.52
-22.58
-22.08
-19.94
-16.39
-11.94
-7.21
-2.75
1.03
3.93
5.90
6.97
7.22
6.77
5.75
4.36
2.80
1.27
-0.08
-1.11
-1.73
-1.86
-1.47
-0.61
0.61
2.02
3.46
4.81
5.98
6.97
7.79
8.46
8.97
9.27
9.29
8.89
7.90
6.15
3.60
0.39
-3.09
-6.29
-8.60
-9.60
-9.10
-7.24
-4.38
-0.96
2.58
5.91
8.74
10.86
12.07
12.24
11.37
9.62
7.31
4.84
2.58
0.78
-0.52
-1.38
-1.97
-2.41
-2.80
-3.12
-3.40
-3.69
-4.09
-4.73
-5.72
-7.05
-8.58
-10.15
-11.56
-12.76
-13.81
-14.91
-16.30
-18.11
-20.30
-22.52
-24.27
-24.97
-24.19
-21.74
-17.78
-12.69
-7.00
-1.25
4.10
8.68
12.26
14.72
16.07
16.44
16.01
14.99
13.58
11.91
10.15
8.39
6.70
5.09
3.47
1.80
0.06
-1.69
-3.36
-4.90
-6.36
-7.84
-9.46
-11.27
-13.21
-15.15
-16.94
-18.51
-19.87
-21.11
-22.36
-23.75
-25.34
-27.11
-28.87
-30.22
-30.68
-29.81
-27.37
-23.47
-18.52
-13.12
-7.84
-3.11
0.92
4.27
7.09
9.55
11.81
13.98
16.14
18.25
20.19
21.82
22.98
23.63
23.83
23.73
23.44
23.05
22.54
21.82
20.78
19.33
17.44
15.15
12.56
9.80
6.97
4.09
1.15
-1.87
-4.95
-8.01
-10.99
-13.80
-16.40
-18.70
-20.50
-21.53
-21.42
-19.93
-17.07
-13.14
-8.68
-4.27
-0.36
2.78
5.12
6.71
7.61
7.91
7.68
7.06
6.21
5.34
4.65
4.24
4.15
4.33
4.67
5.03
5.28
5.32
5.12
4.72
4.16
3.46
2.52
1.18
-0.61
-2.73
-4.90
-6.78
-8.20
-9.29
-10.44
-12.08
-14.42
-17.23
-19.91
-21.73
-22.11
-20.86
-18.16
-14.47
-10.28
-5.99
-1.92
1.73
4.76
7.06
8.59
9.42
9.72
9.68
9.45
9.14
8.79
8.44
8.12
7.83
7.54
7.22
6.84
6.39
5.89
5.33
4.69
3.92
2.97
1.85
0.61
-0.67
-1.89
-3.08
-4.31
-5.73
-7.46
-9.50
-11.68
-13.64
-14.90
-15.03
-13.77
-11.17
-7.57
-3.52
0.43
3.85
6.57
8.55
9.89
10.63
10.83
10.50
9.71
8.58
7.27
5.93
4.67
3.53
2.53
1.69
1.01
0.51
0.21
0.09
0.16
0.38
0.70
1.06
1.35
1.55
1.64
1.63
1.52
1.23
0.57
-0.67
-2.63
-5.25
-8.23
-11.10
-13.26
-14.27
-13.92
-12.32
-9.78
-6.76
-3.64
-0.68
2.05
4.51
6.67
8.44
9.72
10.42
10.59
10.37
9.95
9.48
9.06
8.69
8.32
7.92
7.47
6.97
6.42
5.78
5.00
4.06
2.92
1.62
0.20
-1.31
-2.86
-4.41
-5.95
-7.44
-8.87
-10.27
-11.61
-12.88
-13.95
-14.62
-14.66
-13.88
-12.16
-9.58
-6.29
-2.52
1.49
5.51
9.29
12.58
15.12
16.74
17.35
17.04
16.02
14.61
13.08
11.66
10.46
9.49
8.75
8.19
7.78
7.47
7.22
6.97
6.64
6.16
5.46
4.55
3.44
2.23
1.00
-0.17
-1.28
-2.38
-3.56
-4.92
-6.53
-8.40
-10.45
-12.45
-14.10
-15.03
-14.94
-13.71
-11.40
-8.31
-4.83
-1.38
1.72
4.26
6.17
7.41
7.99
7.91
7.23
6.08
4.69
3.29
2.10
1.24
0.70
0.41
0.27
0.26
0.33
0.45
0.58
0.63
0.51
0.19
-0.29
-0.87
-1.49
-2.13
-2.85
-3.72
-4.81
-6.17
-7.77
-9.56
-11.36
-12.90
-13.88
-13.95
-12.90
-10.67
-7.48
-3.75
0.01
3.30
5.84
7.53
8.50
8.90
8.89
8.59
8.05
7.33
6.50
5.65
4.83
4.10
3.49
3.06
2.86
2.89
3.10
3.36
3.43
3.12
2.33
1.11
-0.34
-1.78
-3.04
-4.04
-4.86
-5.66
-6.61
-7.82
-9.34
-11.08
-12.84
-14.27
-15.00
-14.65
-13.02
-10.17
-6.41
-2.27
1.70
5.05
7.58
9.23
10.12
10.40
10.22
9.68
8.87
7.90
6.91
6.05
5.44
5.15
5.13
5.24
5.34
5.32
5.14
4.84
4.47
4.00
3.38
2.55
1.48
0.22
-1.10
-2.38
-3.56
-4.68
-5.87
-7.24
-8.85
-10.65
-12.43
-13.88
-14.67
-14.49
-13.21
-10.89
-7.82
-4.39
-1.00
2.06
4.66
6.78
8.46
9.69
10.43
10.62
10.24
9.40
8.31
7.25
6.46
6.05
5.99
6.09
6.15
6.04
5.71
5.23
4.69
4.15
3.58
2.86
1.94
0.83
-0.40
-1.61
-2.74
-3.82
-4.99
-6.39
-8.06
-9.83
-11.37
-12.26
-12.19
-11.05
-8.94
-6.18
-3.14
-0.15
2.57
4.90
6.77
8.11
8.90
9.10
8.72
7.81
6.48
4.90
3.28
1.84
0.74
0.06
-0.24
-0.29
-0.27
-0.31
-0.49
-0.85
-1.37
-2.05
-2.86
-3.76
-4.74
-5.77
-6.88
-8.07
-9.34
-10.65
-11.94
-13.14
-14.14
-14.79
-14.89
-14.18
-12.46
-9.69
-6.05
-1.97
2.04
5.49
8.09
9.78
10.65
10.85
10.53
9.77
8.65
7.27
5.83
4.54
3.62
3.20
3.28
3.72
4.32
4.84
5.09
4.95
4.38
3.46
2.31
1.06
-0.16
-1.28
-2.26
-3.12
-3.88
-4.64
-5.58
-6.94
-8.93
-11.47
-14.15
-16.26
-17.01
-15.90
-12.95
-8.71
-4.03
0.31
3.87
6.57
8.57
10.04
11.05
11.52
11.40
10.75
9.75
8.66
7.71
7.05
6.69
6.55
6.50
6.42
6.25
6.00
5.72
5.43
5.12
4.72
4.16
3.41
2.54
1.65
0.82
0.04
-0.80
-1.83
-3.12
-4.61
-6.08
-7.24
-7.76
-7.36
-5.90
-3.35
0.15
4.28
8.64
12.83
16.56
19.70
22.27
24.31
25.86
26.89
27.38
27.30
26.75
25.91
24.99
24.20
23.72
23.66
24.06
24.86
25.90
26.99
28.00
28.86
29.62
30.41
31.28
32.17
32.88
33.13
32.69
31.42
29.37
26.69
23.58
20.14
16.46
12.64
8.87
5.52
3.01
1.71
1.68
2.70
4.28
5.92
7.25
8.17
8.72
8.98
8.94
8.51
7.58
6.15
4.37
2.49
0.80
-0.51
-1.31
-1.57
-1.31
-0.62
0.34
1.38
2.31
2.99
3.32
3.22
2.62
1.43
-0.35
-2.67
-5.35
-8.22
-11.21
-14.47
-18.33
-23.13
-28.97
-35.52
-42.04
-47.51
-51.04
-52.12
-50.79
-47.59
-43.32
-38.78
-34.52
-30.85
-27.80
-25.32
-23.34
-21.79
-20.63
-19.80
-19.21
-18.77
-18.35
-17.83
-17.13
-16.24
-15.24
-14.32
-13.71
-13.61
-14.06
-14.92
-15.93
-16.87
-17.64
-18.33
-19.12
-20.16
-21.45
-22.88
-24.32
-25.72
-27.08
-28.38
-29.45
-29.93
-29.43
-27.65
-24.61
-20.70
-16.43
-12.37
-8.87
-6.01
-3.76
-1.99
-0.64
0.26
0.69
0.63
0.21
-0.39
-0.90
-1.10
-0.91
-0.35
0.43
1.27
2.05
2.73
3.33
3.83
4.19
4.27
3.96
3.21
2.09
0.76
-0.61
-1.92
-3.20
-4.56
-6.18
-8.16
-10.45
-12.77
-14.68
-15.68
-15.35
-13.53
-10.36
-6.31
-1.94
2.21
5.77
8.61
10.73
12.17
12.95
13.08
12.59
11.59
10.32
9.05
8.03
7.40
7.13
7.10
7.15
7.14
7.01
6.76
6.44
6.09
5.72
5.26
4.64
3.84
2.87
1.84
0.82
-0.14
-1.11
-2.22
-3.57
-5.06
-6.40
-7.14
-6.83
-5.29
-2.63
0.72
4.22
7.42
10.08
12.13
13.64
14.62
15.03
14.80
13.92
12.51
10.79
9.08
7.64
6.63
6.05
5.77
5.65
5.54
5.34
5.00
4.48
3.72
2.71
1.43
-0.04
-1.60
-3.15
-4.63
-6.06
-7.53
-9.15
-10.98
-12.97
-14.91
-16.46
-17.22
-16.83
-15.13
-12.19
-8.39
-4.25
-0.29
3.12
5.83
7.82
9.19
9.99
10.24
9.91
9.09
7.91
6.59
5.36
4.36
3.62
3.11
2.79
2.62
2.61
2.72
2.87
2.95
2.87
2.55
2.03
1.36
0.64
-0.10
-0.88
-1.78
-2.91
-4.35
-6.11
-8.03
-9.83
-11.11
-11.46
-10.64
-8.62
-5.64
-2.11
1.54
4.94
7.88
10.20
11.80
12.63
12.72
12.24
11.45
10.63
9.98
9.59
9.40
9.32
9.28
9.24
9.19
9.12
8.99
8.78
8.50
8.17
7.74
7.13
6.24
5.04
3.66
2.40
1.52
1.14
1.11
1.08
0.66
-0.40
-1.99
-3.73
-4.99
-5.06
-3.37
0.35
5.92
12.71
19.82
26.39
31.86
36.20
39.88
43.63
48.25
54.24
61.61
69.77
77.54
83.35
85.61
83.23
76.02
64.88
51.52
37.87
25.43
14.88
6.07
-1.51
-8.29
-14.27
-19.08
-22.32
-23.96
-24.43
-24.48
-24.77
-25.57
-26.61
-27.37
-27.43
-26.74
-25.61
-24.51
-23.72
-23.15
-22.40
-20.97
-18.58
-15.33
-11.63
-8.06
-5.11
-3.04
-1.80
-1.17
-0.86
-0.69
-0.67
-1.00
-1.91
-3.53
-5.74
-8.21
-10.50
-12.26
-13.39
-14.04
-14.48
-14.99
-15.65
-16.33
-16.70
-16.46
-15.38
-13.44
-10.81
-7.80
-4.78
-2.04
0.26
2.17
3.89
5.69
7.84
10.54
13.79
17.46
21.27
24.88
27.94
30.17
31.46
31.86
31.54
30.68
29.40
27.74
25.69
23.25
20.54
17.77
15.12
12.75
10.64
8.74
6.89
5.01
3.06
1.02
-1.11
-3.31
-5.56
-7.77
-9.79
-11.48
-12.87
-14.16
-15.67
-17.65
-20.12
-22.81
-25.24
-26.93
-27.55
-26.99
-25.22
-22.23
-18.01
-12.58
-6.12
0.95
8.05
14.66
20.33
24.90
28.33
30.69
32.04
32.45
32.02
30.86
29.18
27.13
24.84
22.38
19.77
17.05
14.26
11.49
8.86
6.49
4.56
3.24
2.68
2.89
3.68
4.67
5.44
5.65
5.15
3.95
2.18
-0.12
-3.00
-6.50
-10.50
-14.61
-18.26
-20.92
-22.34
-22.66
-22.31
-21.81
-21.51
-21.47
-21.56
-21.54
-21.26
-20.70
-20.04
-19.58
-19.66
-20.53
-22.25
-24.62
-27.25
-29.65
-31.44
-32.47
-32.80
-32.66
-32.29
-31.87
-31.46
-31.02
-30.50
-29.91
-29.29
-28.71
-28.21
-27.80
-27.39
-26.88
-26.23
-25.53
-24.97
-24.75
-24.95
-25.37
-25.56
-24.98
-23.27
-20.42
-16.79
-13.01
-9.65
-7.06
-5.28
-4.13
-3.40
-2.96
-2.84
-3.10
-3.77
-4.74
-5.83
-6.87
-7.66
-8.12
-8.25
-8.13
-7.90
-7.74
-7.76
-8.00
-8.36
-8.70
-8.92
-8.99
-9.00
-9.07
-9.32
-9.74
-10.31
-10.99
-11.74
-12.57
-13.40
-14.06
-14.27
-13.77
-12.42
-10.27
-7.58
-4.72
-2.01
0.35
2.37
4.16
5.82
7.32
8.50
9.17
9.19
8.61
7.67
6.71
6.03
5.80
6.01
6.46
6.90
7.14
7.06
6.66
6.04
5.30
4.51
3.69
2.81
1.76
0.50
-1.08
-2.99
-5.26
-7.86
-10.69
-13.52
-16.03
-17.78
-18.39
-17.64
-15.58
-12.45
-8.69
-4.72
-0.89
2.56
5.47
7.76
9.35
10.18
10.23
9.53
8.24
6.55
4.72
2.95
1.45
0.32
-0.33
-0.49
-0.18
0.51
1.38
2.23
2.88
3.23
3.28
3.10
2.77
2.36
1.83
1.16
0.26
-0.89
-2.28
-3.80
-5.26
-6.33
-6.66
-6.01
-4.36
-1.96
0.77
3.40
5.61
7.31
8.52
9.29
9.63
9.44
8.63
7.22
5.39
3.46
1.79
0.68
0.25
0.47
1.14
2.07
3.02
3.84
4.43
4.69
4.59
4.13
3.37
2.44
1.51
0.69
-0.02
-0.80
-1.95
-3.77
-6.38
-9.59
-12.92
-15.74
-17.45
-17.70
-16.46
-13.98
-10.68
-6.98
-3.24
0.25
3.30
5.78
7.61
8.81
9.38
9.39
8.95
8.15
7.19
6.28
5.63
5.36
5.47
5.77
6.02
5.96
5.44
4.43
3.04
1.42
-0.20
-1.69
-2.94
-3.90
-4.64
-5.24
-5.82
-6.50
-7.34
-8.30
-9.24
-9.90
-9.95
-9.08
-7.17
-4.27
-0.70
3.08
6.56
9.38
11.33
12.44
12.86
12.80
12.45
11.96
11.44
11.00
10.74
10.74
11.01
11.42
11.75
11.78
11.37
10.56
9.59
8.72
8.12
7.70
7.19
6.23
4.57
2.17
-0.83
-4.19
-7.69
-11.07
-14.04
-16.22
-17.15
-16.46
-13.99
-9.91
-4.73
0.92
6.41
11.26
15.23
18.21
20.18
21.21
21.41
21.00
20.25
19.41
18.66
18.03
17.49
16.97
16.45
16.05
15.99
16.49
17.71
19.62
21.92
24.14
25.75
26.34
25.79
24.24
22.10
19.89
18.14
17.22
17.26
17.98
18.55
17.86
14.82
8.96
0.74
-8.51
-17.08
-23.56
-27.39
-28.85
-28.76
-28.04
-27.32
-26.98
-27.28
-28.49
-30.80
-34.16
-38.20
-42.21
-45.47
-47.48
-48.11
-47.53
-46.14
-44.32
-42.39
-40.58
-39.04
-37.85
-36.98
-36.33
-35.77
-35.27
-34.88
-34.78
-35.18
-36.16
-37.55
-38.87
-39.49
-38.75
-36.24
-31.85
-25.85
-18.78
-11.34
-4.16
2.26
7.62
11.78
14.72
16.49
17.17
16.91
15.96
14.67
13.40
12.48
12.11
12.26
12.76
13.42
14.12
14.82
15.55
16.31
17.03
17.59
17.88
17.83
17.50
16.93
16.20
15.30
14.20
12.84
11.14
9.08
6.77
4.46
2.52
1.41
1.48
2.85
5.36
8.57
11.98
15.16
17.86
19.95
21.39
22.07
21.87
20.70
18.59
15.75
12.56
9.47
6.88
5.08
4.14
3.92
4.14
4.44
4.50
4.17
3.49
2.65
1.85
1.21
0.75
0.34
-0.17
-0.92
-2.03
-3.61
-5.68
-8.14
-10.68
-12.75
-13.69
-12.96
-10.33
-6.03
-0.61
5.18
10.66
15.37
19.09
21.75
23.35
23.91
23.44
22.07
20.01
17.61
15.27
13.37
12.15
11.65
11.73
12.09
12.39
12.38
11.96
11.18
10.14
8.94
7.59
6.03
4.14
1.80
-1.04
-4.35
-8.03
-11.93
-15.81
-19.34
-22.08
-23.56
-23.36
-21.27
-17.44
-12.33
-6.62
-1.03
3.90
7.85
10.73
12.54
13.31
13.09
11.94
10.03
7.68
5.27
3.17
1.64
0.75
0.40
0.38
0.41
0.32
-0.01
-0.56
-1.20
-1.78
-2.18
-2.32
-2.22
-1.90
-1.38
-0.75
-0.18
0.05
-0.43
-1.90
-4.34
-7.32
-10.06
-11.72
-11.69
-9.78
-6.27
-1.71
3.32
8.36
13.08
17.24
20.64
23.04
24.35
24.60
24.01
22.87
21.46
20.00
18.66
17.53
16.65
15.99
15.40
14.69
13.66
12.21
10.28
7.93
5.21
2.21
-0.95
-4.08
-6.96
-9.37
-11.21
-12.59
-13.74
-14.88
-16.06
-17.01
-17.29
-16.45
-14.27
-10.85
-6.53
-1.76
3.05
7.63
11.79
15.37
18.22
20.20
21.29
21.58
21.30
20.70
19.98
19.27
18.62
18.03
17.40
16.62
15.56
14.13
12.37
10.43
8.52
6.76
5.17
3.62
1.97
0.09
-2.03
-4.30
-6.61
-8.88
-11.02
-12.90
-14.29
-14.90
-14.45
-12.81
-9.98
-6.17
-1.67
3.17
8.06
12.70
16.85
20.29
22.84
24.36
24.83
24.35
23.12
21.41
19.51
17.65
15.94
14.43
13.09
11.91
10.91
10.13
9.59
9.19
8.76
8.07
6.92
5.14
2.73
-0.28
-3.76
-7.59
-11.64
-15.82
-20.04
-24.19
-28.11
-31.56
-34.16
-35.51
-35.21
-33.03
-28.97
-23.31
-16.51
-9.16
-1.74
5.36
11.84
17.53
22.25
25.87
28.36
29.81
30.44
30.57
30.51
30.51
30.70
31.13
31.77
32.56
33.44
34.29
34.98
35.35
35.29
34.73
33.62
31.94
29.59
26.45
22.43
17.52
11.80
5.47
-1.25
-8.05
-14.58
-20.46
-25.29
-28.76
-30.70
-31.11
-30.18
-28.17
-25.35
-21.92
-18.11
-14.25
-10.74
-7.99
-6.27
-5.58
-5.65
-6.03
-6.29
-6.18
-5.65
-4.86
-3.95
-3.04
-2.14
-1.25
-0.41
0.24
0.54
0.36
-0.31
-1.37
-2.65
-4.02
-5.43
-6.94
-8.68
-10.80
-13.36
-16.26
-19.22
-21.80
-23.53
-24.07
-23.34
-21.53
-19.05
-16.32
-13.68
-11.23
-8.98
-6.95
-5.23
-4.05
-3.66
-4.19
-5.53
-7.35
-9.22
-10.72
-11.59
-11.80
-11.48
-10.86
-10.13
-9.47
-8.96
-8.64
-8.52
-8.55
-8.62
-8.56
-8.20
-7.42
-6.26
-4.95
-3.87
-3.35
-3.58
-4.43
-5.44
-5.96
-5.39
-3.36
0.10
4.55
9.35
13.80
17.36
19.75
20.89
20.90
19.93
18.07
15.40
11.97
7.94
3.59
-0.69
-4.44
-7.30
-9.08
-9.82
-9.78
-9.30
-8.78
-8.53
-8.76
-9.56
-10.89
-12.63
-14.62
-16.69
-18.72
-20.59
-22.27
-23.71
-24.96
-26.00
-26.80
-27.21
-26.99
-25.83
-23.43
-19.62
-14.40
-8.01
-0.90
6.43
13.48
19.85
25.31
29.73
33.14
35.62
37.36
38.66
39.94
41.61
43.94
46.85
49.78
51.84
52.08
49.85
45.13
38.52
30.96
23.41
16.46
10.27
4.73
-0.36
-5.04
-9.16
-12.57
-15.25
-17.43
-19.49
-21.80
-24.51
-27.43
-30.09
-31.88
-32.31
-31.22
-28.80
-25.50
-21.83
-18.19
-14.76
-11.56
-8.54
-5.76
-3.41
-1.74
-0.91
-0.88
-1.40
-2.09
-2.57
-2.60
-2.13
-1.23
-0.06
1.18
2.32
3.21
3.75
3.94
3.85
3.61
3.34
3.07
2.71
2.08
1.00
-0.66
-2.90
-5.60
-8.53
-11.38
-13.76
-15.24
-15.50
-14.38
-11.93
-8.44
-4.30
0.06
4.32
8.20
11.53
14.18
16.08
17.22
17.70
17.71
17.46
17.08
16.65
16.15
15.59
14.95
14.25
13.45
12.48
11.21
9.61
7.74
5.77
3.93
2.34
1.01
-0.25
-1.68
-3.51
-5.80
-8.43
-11.12
-13.58
-15.50
-16.72
-17.20
-16.98
-16.17
-14.84
-13.02
-10.74
-8.04
-5.07
-2.03
0.85
3.36
5.33
6.62
7.10
6.76
5.71
4.20
2.60
1.22
0.19
-0.63
-1.54
-2.90
-4.89
-7.49
-10.49
-13.56
-16.41
-18.86
-20.78
-22.10
-22.81
-22.96
-22.76
-22.50
-22.56
-23.17
-24.35
-25.76
-26.83
-26.94
-25.65
-22.89
-18.89
-14.09
-8.92
-3.72
1.26
5.86
9.86
13.07
15.30
16.51
16.73
16.11
14.86
13.23
11.51
10.00
8.94
8.43
8.40
8.57
8.59
8.16
7.11
5.47
3.42
1.22
-0.93
-2.93
-4.80
-6.66
-8.70
-11.06
-13.78
-16.72
-19.57
-21.89
-23.22
-23.18
-21.65
-18.73
-14.82
-10.45
-6.13
-2.23
1.12
3.94
6.29
8.14
9.37
9.84
9.46
8.39
6.94
5.49
4.36
3.72
3.57
3.84
4.44
5.30
6.34
7.40
8.22
8.57
8.31
7.51
6.39
5.21
4.13
3.12
1.95
0.36
-1.79
-4.43
-7.29
-9.92
-11.91
-12.86
-12.56
-10.97
-8.22
-4.64
-0.65
3.29
6.84
9.78
12.04
13.62
14.57
14.94
14.85
14.43
13.82
13.14
12.47
11.80
11.17
10.60
10.15
9.89
9.81
9.83
9.83
9.67
9.30
8.69
7.90
6.98
5.96
4.79
3.39
1.66
-0.45
-2.92
-5.56
-8.07
-10.10
-11.34
-11.59
-10.83
-9.16
-6.78
-3.90
-0.69
2.72
6.17
9.46
12.32
14.47
15.69
15.94
15.39
14.39
13.41
12.80
12.70
13.03
13.51
13.86
13.88
13.55
12.90
11.96
10.73
9.17
7.28
5.16
2.98
0.82
-1.34
-3.75
-6.68
-10.23
-14.24
-18.20
-21.45
-23.48
-24.07
-23.35
-21.72
-19.58
-17.19
-14.69
-12.11
-9.56
-7.22
-5.38
-4.20
-3.73
-3.80
-4.17
-4.62
-5.06
-5.47
-5.85
-6.17
-6.30
-6.15
-5.63
-4.76
-3.67
-2.48
-1.33
-0.32
0.49
1.09
1.43
1.52
1.37
0.98
0.35
-0.60
-1.94
-3.71
-5.78
-7.87
-9.56
-10.47
-10.40
-9.40
-7.77
-5.89
-4.08
-2.56
-1.43
-0.73
-0.59
-1.11
-2.36
-4.24
-6.49
-8.71
-10.54
-11.75
-12.27
-12.19
-11.62
-10.65
-9.36
-7.82
-6.18
-4.58
-3.20
-2.13
-1.34
-0.75
-0.23
0.25
0.66
0.90
0.81
0.31
-0.65
-2.02
-3.61
-5.14
-6.22
-6.45
-5.56
-3.48
-0.41
3.24
7.02
10.51
13.46
15.81
17.58
18.86
19.73
20.27
20.49
20.42
20.11
19.63
19.13
18.78
18.74
19.09
19.81
20.84
22.06
23.43
24.85
26.20
27.23
27.65
27.25
26.02
24.19
22.19
20.39
19.00
17.98
17.14
16.26
15.33
14.53
14.22
14.83
16.77
20.42
26.06
33.80
43.43
54.22
64.98
74.22
80.65
83.61
83.23
80.27
75.66
69.93
63.05
54.52
43.85
30.96
16.35
0.89
-14.54
-29.32
-43.08
-55.53
-66.17
-74.28
-79.00
-79.70
-76.29
-69.27
-59.62
-48.43
-36.64
-24.87
-13.49
-2.82
6.75
14.68
20.51
24.09
25.76
26.25
26.48
27.16
28.61
30.75
33.23
35.74
38.09
40.25
42.23
43.93
45.20
45.77
45.47
44.17
41.94
38.95
35.49
31.86
28.23
24.59
20.67
16.13
10.72
4.46
-2.37
-9.35
-16.06
-22.29
-27.97
-33.15
-37.85
-41.99
-45.50
-48.34
-50.57
-52.31
-53.73
-54.92
-55.86
-56.50
-56.80
-56.76
-56.40
-55.76
-54.88
-53.75
-52.42
-50.96
-49.55
-48.36
-47.59
-47.31
-47.43
-47.73
-47.89
-47.62
-46.70
-45.10
-42.96
-40.49
-37.98
-35.58
-33.35
-31.26
-29.24
-27.29
-25.50
-24.00
-22.91
-22.28
-22.07
-22.29
-22.96
-24.13
-25.83
-27.93
-30.19
-32.28
-33.89
-34.79
-34.81
-33.83
-31.77
-28.61
-24.48
-19.68
-14.63
-9.78
-5.44
-1.78
1.22
3.61
5.44
6.68
7.32
7.45
7.22
6.86
6.54
6.34
6.23
6.17
6.14
6.13
6.19
6.30
6.36
6.27
5.88
5.17
4.14
2.89
1.48
-0.01
-1.53
-3.04
-4.53
-6.05
-7.73
-9.70
-11.98
-14.43
-16.62
-18.03
-18.13
-16.66
-13.69
-9.61
-5.03
-0.51
3.56
7.01
9.80
11.92
13.33
13.92
13.61
12.49
10.85
9.13
7.78
7.08
7.04
7.51
8.21
8.95
9.62
10.20
10.61
10.78
10.57
9.90
8.82
7.47
6.11
4.94
4.06
3.45
2.93
2.24
1.12
-0.61
-2.92
-5.54
-8.04
-9.88
-10.65
-10.17
-8.52
-6.00
-3.06
-0.06
2.68
4.98
6.75
7.91
8.44
8.36
7.77
6.89
5.98
5.30
5.03
5.21
5.75
6.47
7.21
7.84
8.29
8.57
8.65
8.53
8.17
7.57
6.76
5.79
4.73
3.60
2.37
0.96
-0.68
-2.58
-4.73
-6.96
-9.05
-10.64
-11.37
-10.92
-9.18
-6.24
-2.47
1.61
5.48
8.72
11.12
12.67
13.45
13.58
13.16
12.32
11.20
9.96
8.75
7.69
6.78
5.99
5.23
4.48
3.74
3.04
2.40
1.80
1.23
0.68
0.15
-0.34
-0.81
-1.30
-1.87
-2.56
-3.38
-4.34
-5.46
-6.80
-8.37
-10.08
-11.66
-12.72
-12.84
-11.77
-9.48
-6.18
-2.20
2.12
6.51
10.74
14.57
17.73
19.98
21.21
21.48
21.05
20.22
19.29
18.40
17.62
16.97
16.44
16.03
15.65
15.18
14.45
13.36
11.94
10.29
8.59
6.93
5.34
3.73
2.01
0.14
-1.81
-3.77
-5.74
-7.81
-10.19
-12.98
-16.08
-19.06
-21.34
-22.30
-21.65
-19.49
-16.27
-12.63
-9.07
-5.89
-3.21
-1.02
0.66
1.74
2.12
1.78
0.82
-0.53
-2.01
-3.35
-4.33
-4.83
-4.77
-4.15
-3.01
-1.47
0.25
1.86
3.09
3.74
3.78
3.33
2.58
1.72
0.82
-0.14
-1.25
-2.57
-4.15
-6.00
-8.03
-10.08
-11.82
-12.87
-12.84
-11.49
-8.83
-5.15
-0.93
3.31
7.10
10.13
12.22
13.33
13.49
12.81
11.48
9.73
7.83
6.02
4.54
3.55
3.10
3.16
3.53
3.95
4.11
3.81
2.96
1.68
0.21
-1.20
-2.41
-3.42
-4.33
-5.33
-6.55
-8.07
-9.89
-11.94
-14.08
-16.06
-17.54
-18.12
-17.41
-15.23
-11.65
-7.07
-2.09
2.67
6.73
9.85
12.03
13.46
14.30
14.70
14.73
14.43
13.88
13.24
12.71
12.44
12.47
12.69
12.87
12.79
12.28
11.33
10.07
8.69
7.34
6.09
4.89
3.59
2.13
0.44
-1.40
-3.38
-5.51
-7.87
-10.50
-13.29
-15.83
-17.51
-17.71
-16.07
-12.66
-7.98
-2.74
2.40
7.01
10.93
14.14
16.60
18.23
18.97
18.85
18.10
17.06
16.09
15.36
14.88
14.53
14.15
13.71
13.26
12.89
12.61
12.28
11.70
10.68
9.16
7.25
5.12
3.00
1.00
-0.87
-2.66
-4.44
-6.25
-8.11
-9.98
-11.79
-13.35
-14.40
-14.64
-13.79
-11.74
-8.62
-4.72
-0.49
3.63
7.31
10.33
12.63
14.25
15.26
15.75
15.74
15.25
14.29
12.98
11.50
10.13
9.07
8.44
8.18
8.11
8.01
7.71
7.15
6.37
5.47
4.56
3.68
2.88
2.09
1.28
0.38
-0.67
-1.90
-3.34
-4.98
-6.77
-8.53
-10.01
-10.84
-10.67
-9.26
-6.66
-3.22
0.53
4.02
6.85
8.90
10.25
11.10
11.57
11.67
11.37
10.63
9.52
8.22
6.98
5.97
5.31
4.97
4.88
4.93
5.00
5.00
4.89
4.64
4.26
3.78
3.19
2.46
1.51
0.29
-1.18
-2.83
-4.60
-6.47
-8.46
-10.56
-12.63
-14.37
-15.33
-15.14
-13.63
-10.92
-7.36
-3.41
0.51
4.09
7.11
9.42
10.89
11.43
11.08
10.01
8.50
6.91
5.56
4.66
4.31
4.41
4.79
5.25
5.58
5.62
5.29
4.56
3.46
2.07
0.50
-1.14
-2.77
-4.34
-5.87
-7.43
-9.13
-11.05
-13.23
-15.65
-18.16
-20.46
-22.17
-22.86
-22.19
-20.06
-16.65
-12.37
-7.71
-3.15
1.00
4.54
7.35
9.33
10.42
10.65
10.17
9.29
8.35
7.68
7.43
7.53
7.80
8.00
7.96
7.64
7.05
6.25
5.31
4.23
3.05
1.81
0.54
-0.68
-1.83
-2.95
-4.10
-5.39
-6.91
-8.73
-10.82
-13.08
-15.24
-16.92
-17.65
-17.02
-14.84
-11.22
-6.63
-1.70
2.94
6.82
9.73
11.69
12.81
13.27
13.21
12.73
11.95
10.99
9.99
9.09
8.35
7.76
7.24
6.73
6.18
5.57
4.93
4.28
3.60
2.87
2.04
1.06
-0.03
-1.16
-2.27
-3.31
-4.32
-5.42
-6.74
-8.41
-10.47
-12.81
-15.12
-16.98
-17.91
-17.52
-15.71
-12.67
-8.81
-4.65
-0.62
3.03
6.16
8.71
10.62
11.84
12.43
12.63
12.84
13.57
15.24
18.13
22.33
27.72
34.04
40.88
47.65
53.65
58.15
60.58
60.67
58.47
54.32
48.56
41.52
33.39
24.41
14.91
5.33
-3.86
-12.32
-19.94
-26.77
-32.82
-37.98
-41.99
-44.52
-45.38
-44.63
-42.61
-39.80
-36.67
-33.63
-30.92
-28.67
-26.91
-25.59
-24.65
-24.01
-23.66
-23.60
-23.86
-24.36
-24.91
-25.26
-25.19
-24.54
-23.36
-21.78
-19.98
-18.16
-16.41
-14.76
-13.22
-11.74
-10.36
-9.11
-8.05
-7.21
-6.63
-6.30
-6.18
-6.17
-6.13
-5.85
-5.10
-3.60
-1.11
2.54
7.45
13.58
20.71
28.53
36.66
44.68
52.21
58.92
64.54
68.86
71.66
72.70
71.72
68.50
62.95
55.20
45.72
35.26
24.65
14.64
5.69
-2.08
-8.81
-14.77
-20.21
-25.30
-30.20
-35.01
-39.81
-44.53
-48.95
-52.66
-55.28
-56.65
-56.92
-56.38
-55.26
-53.39
-50.19
-44.84
-36.76
-26.00
-13.32
0.00
12.65
23.72
32.89
40.21
45.83
49.77
51.90
52.16
50.77
48.32
45.59
43.33
41.97
41.59
41.91
42.52
42.99
43.02
42.56
41.75
40.95
40.58
40.93
42.09
43.79
45.60
46.99
47.62
47.34
46.25
44.60
42.72
40.96
39.72
39.42
40.36
42.64
45.99
49.74
52.91
54.39
53.33
49.33
42.57
33.81
24.11
14.54
5.87
-1.53
-7.67
-12.82
-17.32
-21.37
-25.05
-28.26
-30.83
-32.61
-33.57
-33.87
-33.93
-34.41
-36.09
-39.60
-45.16
-52.43
-60.58
-68.55
-75.38
-80.55
-84.01
-86.00
-86.78
-86.37
-84.49
-80.74
-74.88
-67.09
-58.02
-48.63
-39.84
-32.27
-26.09
-21.13
-17.03
-13.54
-10.61
-8.25
-6.47
-5.11
-3.85
-2.35
-0.40
2.02
4.73
7.52
10.26
12.96
15.74
18.79
22.27
26.27
30.76
35.53
40.21
44.30
47.30
48.88
48.93
47.61
45.18
41.88
37.79
32.86
26.94
19.95
11.86
2.78
-7.20
-17.91
-29.07
-40.24
-50.87
-60.38
-68.31
-74.46
-78.86
-81.70
-83.18
-83.43
-82.47
-80.39
-77.34
-73.57
-69.36
-64.89
-60.14
-55.02
-49.39
-43.34
-37.16
-31.34
-26.36
-22.55
-19.93
-18.36
-17.58
-17.31
-17.33
-17.34
-17.06
-16.15
-14.40
-11.79
-8.54
-5.04
-1.63
1.44
4.09
6.35
8.21
9.64
10.56
10.92
10.77
10.28
9.69
9.21
8.98
8.99
9.11
9.18
9.06
8.66
8.02
7.21
6.30
5.37
4.39
3.27
1.86
0.04
-2.23
-4.87
-7.65
-10.23
-12.26
-13.41
-13.47
-12.35
-10.08
-6.86
-2.92
1.44
5.94
10.32
14.41
17.99
20.88
22.85
23.75
23.57
22.52
21.06
19.78
19.15
19.37
20.25
21.22
21.51
20.45
17.67
13.25
7.71
1.82
-3.61
-8.01
-11.21
-13.48
-15.46
-17.83
-21.09
-25.31
-30.05
-34.53
-37.83
-39.23
-38.32
-35.08
-29.77
-22.82
-14.75
-6.10
2.57
10.65
17.61
23.02
26.70
28.70
29.33
29.04
28.34
27.63
27.13
26.89
26.84
26.88
26.97
27.14
27.44
27.83
28.20
28.33
28.04
27.22
25.92
24.28
22.39
20.23
17.52
13.85
8.81
2.14
-6.12
-15.65
-25.95
-36.41
-46.43
-55.40
-62.70
-67.68
-69.74
-68.58
-64.38
-57.93
-50.52
-43.51
-37.96
-34.26
-32.32
-31.76
-32.26
-33.53
-35.08
-36.06
-35.26
-31.67
-25.04
-16.22
-6.94
0.99
6.53
9.77
11.72
13.57
15.94
18.74
21.40
23.51
25.11
26.55
28.11
29.58
30.30
29.63
27.47
24.50
21.99
21.23
22.90
26.86
32.29
38.14
43.57
48.01
51.22
52.97
53.18
51.92
49.59
46.81
44.09
41.58
38.87
35.28
30.24
23.73
16.34
8.98
2.42
-3.11
-7.98
-12.84
-18.23
-24.33
-30.93
-37.69
-44.42
-51.08
-57.66
-63.87
-69.10
-72.51
-73.41
-71.49
-66.98
-60.35
-52.07
-42.39
-31.38
-19.11
-5.87
7.74
21.03
33.45
44.66
54.56
63.05
69.91
74.79
77.46
77.97
76.82
74.77
72.63
70.96
69.85
69.04
68.04
66.39
63.83
60.30
55.92
50.83
45.21
39.14
32.76
26.20
19.70
13.48
7.75
2.60
-2.00
-6.16
-10.11
-14.08
-18.38
-23.29
-29.04
-35.68
-42.94
-50.16
-56.39
-60.61
-61.98
-60.17
-55.45
-48.58
-40.62
-32.64
-25.47
-19.67
-15.48
-12.96
-11.98
-12.29
-13.46
-14.98
-16.33
-17.10
-17.10
-16.43
-15.39
-14.35
-13.68
-13.59
-14.11
-15.12
-16.42
-17.75
-18.89
-19.68
-20.05
-20.10
-20.06
-20.25
-20.99
-22.38
-24.22
-26.01
-27.00
-26.55
-24.26
-20.19
-14.77
-8.67
-2.57
3.02
7.85
11.82
14.97
17.30
18.80
19.49
19.46
18.92
18.14
17.36
16.69
16.14
15.57
14.84
13.89
12.75
11.55
10.42
9.37
8.33
7.10
5.54
3.63
1.50
-0.62
-2.51
-4.12
-5.61
-7.27
-9.39
-11.97
-14.73
-17.09
-18.40
-18.20
-16.36
-13.12
-8.91
-4.23
0.51
4.99
8.98
12.28
14.73
16.22
16.73
16.35
15.27
13.78
12.19
10.80
9.84
9.40
9.39
9.61
9.81
9.80
9.52
8.98
8.25
7.35
6.21
4.79
3.07
1.05
-1.22
-3.78
-6.70
-10.03
-13.70
-17.35
-20.42
-22.30
-22.53
-20.99
-17.89
-13.69
-8.85
-3.76
1.31
6.18
10.68
14.62
17.80
20.09
21.45
21.94
21.62
20.64
19.11
17.26
15.30
13.49
12.05
11.08
10.58
10.41
10.36
10.19
9.71
8.82
7.54
6.00
4.38
2.80
1.30
-0.27
-2.17
-4.68
-7.94
-11.84
-15.95
-19.65
-22.26
-23.24
-22.37
-19.73
-15.74
-10.96
-5.95
-1.20
3.01
6.48
9.10
10.82
11.65
11.66
11.05
10.06
8.97
8.01
7.30
6.85
6.54
6.27
5.93
5.49
4.98
4.45
3.92
3.35
2.66
1.72
0.47
-1.06
-2.87
-4.90
-7.19
-9.78
-12.68
-15.79
-18.82
-21.32
-22.82
-22.89
-21.31
-18.14
-13.69
-8.44
-2.92
2.40
7.17
11.16
14.26
16.39
17.53
17.69
16.98
15.61
13.88
12.07
10.40
9.00
7.89
7.06
6.48
6.09
5.83
5.54
5.05
4.20
2.90
1.14
-0.93
-3.13
-5.29
-7.35
-9.37
-11.49
-13.87
-16.60
-19.46
-22.02
-23.62
-23.65
-21.74
-17.95
-12.79
-7.00
-1.27
3.89
8.27
11.88
14.69
16.68
17.71
17.68
16.62
14.74
12.33
9.72
7.17
4.83
2.77
1.02
-0.40
-1.51
-2.32
-2.93
-3.46
-4.03
-4.75
-5.68
-6.79
-8.01
-9.26
-10.51
-11.83
-13.34
-15.12
-17.09
-18.93
-20.10
-20.01
-18.18
-14.44
-9.02
-2.45
4.55
11.19
16.85
21.06
23.59
24.39
23.60
21.45
18.28
14.47
10.43
6.53
3.10
0.37
-1.54
-2.66
-3.20
-3.38
-3.46
-3.65
-3.99
-4.50
-5.15
-5.95
-7.00
-8.39
-10.19
-12.36
-14.81
-17.45
-20.26
-23.17
-26.06
-28.59
-30.21
-30.34
-28.56
-24.84
-19.53
-13.30
-6.86
-0.76
4.67
9.28
13.01
15.73
17.35
17.79
17.13
15.58
13.49
11.23
9.13
7.44
6.30
5.71
5.53
5.51
5.43
5.09
4.50
3.73
2.93
2.17
1.41
0.52
-0.68
-2.32
-4.47
-7.16
-10.36
-13.92
-17.52
-20.61
-22.48
-22.52
-20.32
-15.94
-9.79
-2.60
4.86
11.91
18.06
22.95
26.39
28.31
28.75
27.92
26.17
23.91
21.56
19.46
17.82
16.69
15.97
15.48
14.99
14.30
13.30
12.01
10.52
8.95
7.37
5.80
4.14
2.33
0.31
-1.91
-4.31
-6.93
-9.84
-13.07
-16.46
-19.58
-21.78
-22.40
-21.00
-17.62
-12.77
-7.24
-1.79
3.06
7.18
10.63
13.53
15.85
17.40
18.02
17.68
16.59
15.12
13.69
12.55
11.75
11.17
10.64
10.06
9.41
8.69
7.90
6.95
5.76
4.28
2.54
0.56
-1.63
-4.05
-6.78
-9.89
-13.36
-17.04
-20.61
-23.66
-25.71
-26.33
-25.24
-22.40
-18.04
-12.57
-6.57
-0.59
4.91
9.64
13.41
16.13
17.75
18.25
17.70
16.26
14.27
12.13
10.25
8.91
8.10
7.63
7.22
6.67
5.93
5.07
4.22
3.37
2.43
1.26
-0.24
-2.01
-3.93
-5.90
-7.95
-10.27
-12.98
-15.99
-18.88
-20.89
-21.22
-19.39
-15.41
-9.82
-3.50
2.72
8.26
12.88
16.59
19.41
21.26
21.99
21.53
20.00
17.73
15.21
12.89
11.04
9.71
8.80
8.13
7.54
6.95
6.32
5.62
4.83
3.90
2.75
1.36
-0.27
-2.07
-3.99
-5.99
-8.12
-10.54
-13.41
-16.72
-20.18
-23.15
-24.82
-24.52
-21.95
-17.42
-11.68
-5.65
-0.07
4.64
8.41
11.36
13.56
14.94
15.40
14.88
13.49
11.52
9.35
7.31
5.62
4.37
3.53
2.98
2.57
2.16
1.59
0.79
-0.27
-1.56
-3.10
-4.88
-6.94
-9.28
-11.85
-14.59
-17.46
-20.47
-23.63
-26.84
-29.81
-32.00
-32.73
-31.46
-27.93
-22.37
-15.35
-7.64
-0.05
6.81
12.49
16.76
19.54
20.92
21.14
20.53
19.44
18.16
16.87
15.66
14.50
13.37
12.21
10.98
9.64
8.18
6.66
5.21
4.03
3.29
3.06
3.26
3.70
4.08
4.17
3.81
2.90
1.43
-0.61
-3.15
-6.04
-8.90
-11.14
-12.06
-11.02
-7.73
-2.40
4.35
11.60
18.51
24.46
29.22
32.78
35.25
36.70
37.15
36.64
35.30
33.40
31.30
29.36
27.82
26.75
26.09
25.69
25.41
25.15
24.89
24.62
24.31
23.92
23.33
22.39
20.96
18.89
16.02
12.25
7.45
1.56
-5.42
-13.39
-22.04
-30.82
-38.91
-45.28
-48.95
-49.25
-46.11
-40.10
-32.33
-24.05
-16.34
-9.85
-4.74
-0.88
1.92
3.78
4.73
4.85
4.26
3.27
2.20
1.33
0.84
0.74
0.94
1.34
1.87
2.52
3.29
4.10
4.73
4.85
4.17
2.59
0.28
-2.36
-4.83
-6.75
-8.03
-8.87
-9.76
-11.18
-13.45
-16.52
-19.96
-23.03
-24.86
-24.73
-22.26
-17.57
-11.21
-4.01
3.17
9.63
14.94
18.88
21.39
22.46
22.10
20.46
17.84
14.71
11.64
9.11
7.44
6.64
6.53
6.81
7.16
7.33
7.18
6.65
5.77
4.64
3.36
2.03
0.63
-0.93
-2.79
-5.07
-7.77
-10.87
-14.27
-17.85
-21.38
-24.47
-26.58
-27.14
-25.73
-22.32
-17.28
-11.31
-5.20
0.43
5.22
9.06
11.99
14.02
15.13
15.31
14.60
13.18
11.32
9.34
7.54
6.10
5.12
4.55
4.25
3.98
3.54
2.72
1.46
-0.24
-2.29
-4.56
-6.92
-9.29
-11.58
-13.74
-15.76
-17.71
-19.72
-21.88
-24.10
-25.98
-26.87
-26.04
-22.97
-17.66
-10.58
-2.53
5.68
13.44
20.43
26.48
31.46
35.19
37.47
38.27
37.74
36.31
34.46
32.59
30.95
29.60
28.50
27.61
26.94
26.44
26.06
25.65
25.01
23.94
22.27
19.97
17.10
13.77
10.11
6.23
2.17
-2.01
-6.32
-10.77
-15.32
-19.76
-23.67
-26.48
-27.64
-26.79
-23.97
-19.62
-14.39
-9.01
-4.04
0.18
3.44
5.62
6.69
6.67
5.71
4.08
2.10
0.08
-1.74
-3.19
-4.19
-4.68
-4.70
-4.36
-3.87
-3.47
-3.36
-3.61
-4.14
-4.78
-5.39
-5.89
-6.34
-6.91
-7.76
-9.02
-10.78
-13.02
-15.60
-18.17
-20.17
-20.92
-19.82
-16.57
-11.35
-4.81
2.11
8.53
13.83
17.79
20.46
22.03
22.63
22.32
21.09
19.01
16.28
13.21
10.17
7.48
5.36
3.84
2.81
2.09
1.43
0.63
-0.43
-1.78
-3.34
-4.97
-6.53
-7.92
-9.11
-10.16
-11.19
-12.44
-14.14
-16.44
-19.26
-22.22
-24.65
-25.74
-24.81
-21.58
-16.28
-9.56
-2.30
4.72
10.90
15.87
19.48
21.64
22.39
21.87
20.34
18.18
15.81
13.54
11.57
9.98
8.78
7.91
7.32
6.89
6.43
5.73
4.62
3.04
1.10
-0.93
-2.80
-4.32
-5.50
-6.50
-7.61
-9.07
-11.04
-13.55
-16.44
-19.41
-21.97
-23.51
-23.44
-21.36
-17.28
-11.62
-5.13
1.34
7.15
11.90
15.49
17.96
19.40
19.90
19.59
18.66
17.32
15.81
14.28
12.82
11.45
10.21
9.17
8.36
7.81
7.40
6.95
6.21
5.03
3.37
1.35
-0.86
-3.05
-5.11
-7.03
-8.84
-10.65
-12.54
-14.62
-16.90
-19.35
-21.72
-23.61
-24.49
-23.86
-21.43
-17.29
-11.83
-5.68
0.54
6.31
11.25
15.14
17.83
19.27
19.49
18.68
17.15
15.26
13.33
11.57
10.10
8.91
8.02
7.41
7.10
7.07
7.21
7.35
7.27
6.74
5.61
3.88
1.69
-0.74
-3.13
-5.32
-7.22
-8.90
-10.50
-12.18
-14.07
-16.21
-18.50
-20.62
-22.08
-22.30
-20.81
-17.45
-12.50
-6.63
-0.62
4.84
9.40
12.98
15.70
17.60
18.57
18.47
17.26
15.14
12.61
10.28
8.64
7.85
7.73
7.90
7.98
7.76
7.28
6.72
6.23
5.80
5.25
4.27
2.69
0.53
-1.92
-4.25
-6.09
-7.35
-8.21
-9.06
-10.32
-12.20
-14.60
-17.17
-19.39
-20.77
-20.94
-19.72
-17.11
-13.25
-8.44
-3.11
2.25
7.16
11.23
14.23
16.10
16.92
16.84
16.05
14.80
13.33
11.87
10.55
9.41
8.42
7.50
6.64
5.91
5.38
5.10
5.00
4.86
4.47
3.63
2.29
0.58
-1.25
-2.97
-4.48
-5.89
-7.46
-9.52
-12.31
-15.86
-19.97
-24.27
-28.31
-31.60
-33.70
-34.27
-33.07
-30.06
-25.49
-19.81
-13.63
-7.60
-2.18
2.37
6.00
8.76
10.71
11.87
12.28
12.06
11.44
10.73
10.20
9.98
9.97
9.95
9.69
9.10
8.25
7.30
6.37
5.44
4.37
2.99
1.21
-0.91
-3.21
-5.48
-7.54
-9.30
-10.75
-11.98
-13.16
-14.46
-16.07
-18.04
-20.29
-22.49
-24.24
-25.07
-24.61
-22.75
-19.59
-15.46
-10.82
-6.12
-1.75
1.99
4.93
6.97
8.12
8.47
8.18
7.42
6.36
5.15
3.91
2.69
1.58
0.62
-0.18
-0.82
-1.28
-1.57
-1.66
-1.57
-1.35
-1.13
-1.11
-1.45
-2.25
-3.51
-5.06
-6.67
-8.08
-9.11
-9.79
-10.29
-10.95
-12.01
-13.48
-15.08
-16.26
-16.42
-15.21
-12.64
-9.07
-5.02
-0.96
2.80
6.14
8.96
11.11
12.39
12.61
11.74
9.96
7.64
5.25
3.14
1.59
0.66
0.30
0.37
0.69
1.02
1.16
0.95
0.31
-0.76
-2.19
-3.82
-5.47
-6.94
-8.11
-8.89
-9.33
-9.58
-9.89
-10.50
-11.63
-13.39
-15.72
-18.39
-20.99
-22.99
-23.89
-23.30
-21.14
-17.62
-13.21
-8.46
-3.88
0.23
3.69
6.46
8.52
9.86
10.46
10.42
9.88
9.11
8.35
7.85
7.70
7.92
8.39
8.96
9.48
9.81
9.87
9.62
9.07
8.24
7.16
5.86
4.37
2.74
1.06
-0.56
-2.03
-3.30
-4.46
-5.67
-7.14
-9.05
-11.45
-14.09
-16.46
-17.90
-17.79
-15.79
-11.98
-6.85
-1.15
4.40
9.26
13.16
16.04
17.96
19.01
19.26
18.82
17.87
16.63
15.37
14.30
13.53
13.05
12.73
12.32
11.60
10.40
8.71
6.67
4.52
2.49
0.72
-0.75
-2.00
-3.12
-4.17
-5.18
-6.12
-6.99
-7.81
-8.65
-9.63
-10.87
-12.38
-13.96
-15.20
-15.56
-14.56
-11.95
-7.84
-2.66
3.04
8.76
14.17
19.05
23.21
26.42
28.41
29.04
28.38
26.78
24.74
22.73
21.01
19.58
18.23
16.66
14.60
11.85
8.31
3.93
-1.22
-6.95
-12.92
-18.66
-23.68
-27.56
-30.05
-31.15
-31.07
-30.20
-28.98
-27.85
-27.09
-26.83
-26.99
-27.33
-27.47
-27.00
-25.60
-23.15
-19.76
-15.76
-11.62
-7.74
-4.45
-1.88
-0.10
0.88
1.04
0.41
-0.86
-2.50
-4.14
-5.38
-5.97
-5.82
-5.07
-3.95
-2.74
-1.62
-0.69
0.03
0.57
0.92
1.03
0.79
0.08
-1.13
-2.72
-4.44
-6.01
-7.19
-7.97
-8.54
-9.24
-10.32
-11.76
-13.13
-13.63
-12.36
-8.64
-2.30
6.22
16.00
25.91
35.05
42.96
49.70
55.73
61.60
67.71
74.13
80.59
86.69
92.04
96.51
100.24
103.67
107.36
111.86
117.51
124.20
131.21
137.24
140.69
140.31
135.83
128.37
120.05
113.24
109.40
108.48
108.92
108.57
105.66
99.59
90.99
81.19
71.54
62.97
55.76
49.62
43.62
36.30
25.91
11.21
-7.73
-28.82
-48.23
-61.56
-65.53
-59.42
-45.53
-28.26
-12.54
-2.15
1.13
-2.47
-11.52
-24.22
-38.90
-54.12
-68.54
-80.82
-89.94
-95.56
-98.35
-99.92
-102.12
-106.28
-112.47
-119.38
-124.87
-126.89
-124.30
-117.13
-106.22
-92.59
-76.88
-59.31
-40.06
-19.73
0.40
18.62
33.25
43.22
48.32
49.10
46.48
41.30
34.12
25.23
14.84
3.35
-8.59
-20.11
-30.33
-38.59
-44.65
-48.70
-51.15
-52.42
-52.77
-52.19
-50.55
-47.69
-43.63
-38.49
-32.47
-25.79
-18.63
-11.26
-4.14
1.93
5.93
6.89
4.32
-1.43
-9.11
-16.98
-23.38
-27.37
-29.13
-29.72
-30.60
-32.89
-36.93
-42.24
-47.85
-52.79
-56.45
-58.68
-59.62
-59.54
-58.66
-57.20
-55.43
-53.70
-52.40
-51.79
-51.95
-52.60
-53.33
-53.66
-53.24
-52.01
-50.08
-47.69
-45.11
-42.51
-40.05
-37.78
-35.73
-33.81
-31.92
-29.86
-27.47
-24.66
-21.46
-18.01
-14.42
-10.76
-6.99
-3.06
1.06
5.32
9.63
13.95
18.26
22.60
26.90
30.88
34.17
36.39
37.40
37.42
36.96
36.55
36.55
36.91
37.25
36.98
35.51
32.43
27.63
21.30
14.04
6.71
0.31
-4.22
-6.29
-5.88
-3.56
-0.38
2.49
4.17
4.33
3.25
1.44
-0.75
-3.56
-7.85
-14.75
-25.10
-38.86
-54.87
-71.17
-85.64
-96.69
-103.59
-106.42
-105.61
-101.57
-94.53
-84.66
-72.40
-58.57
-44.35
-30.91
-19.06
-8.94
-0.23
7.70
15.42
23.38
31.94
41.45
52.20
64.27
77.24
90.24
102.15
112.10
119.81
125.70
130.56
134.96
138.78
141.16
140.86
136.92
129.21
118.53
106.33
94.06
82.63
72.22
62.37
52.24
40.84
27.11
10.04
-11.08
-36.18
-64.22
-93.20
-120.88
-145.68
-167.48
-187.53
-207.55
-228.19
-247.90
-262.89
-268.25
-259.84
-236.03
-198.60
-152.37
-103.72
-58.91
-22.59
2.89
17.44
22.60
20.88
15.29
8.97
4.83
4.99
10.04
18.56
27.32
32.61
32.05
26.10
18.03
12.35
12.49
19.09
29.87
41.14
49.92
55.30
58.49
61.55
65.91
71.60
77.51
82.35
85.54
87.52
89.20
91.36
94.07
96.65
97.98
97.02
93.43
87.62
80.73
73.96
68.17
63.45
59.19
54.57
49.03
42.77
36.75
32.36
30.82
32.59
36.91
41.92
45.05
43.70
35.88
20.49
-2.33
-31.18
-63.34
-95.10
-122.57
-142.70
-154.35
-158.60
-158.25
-156.42
-154.99
-153.72
-150.45
-142.45
-128.02
-107.61
-83.78
-60.17
-39.88
-24.42
-13.41
-5.25
1.77
8.56
14.90
19.89
22.70
23.20
22.04
20.18
18.32
16.43
13.88
9.90
4.12
-3.03
-10.57
-17.30
-22.45
-25.97
-28.54
-31.20
-34.74
-39.26
-44.02
-47.62
-48.54
-45.70
-38.82
-28.44
-15.58
-1.39
13.24
27.67
41.34
53.62
63.74
71.06
75.37
77.08
77.13
76.60
76.33
76.63
77.28
77.84
77.88
77.22
75.88
74.05
71.86
69.43
66.76
63.84
60.56
56.72
51.99
46.00
38.43
29.10
18.06
5.50
-8.33
-23.17
-38.63
-54.09
-68.60
-80.90
-89.81
-94.47
-94.72
-91.09
-84.63
-76.55
-67.92
-59.49
-51.62
-44.38
-37.65
-31.21
-24.74
-17.79
-9.78
-0.04
12.01
26.61
43.37
61.16
78.33
93.07
103.88
109.89
110.89
107.22
99.70
89.48
78.05
67.02
57.71
50.78
45.93
42.08
37.89
32.38
25.42
17.69
10.27
4.10
-0.29
-2.68
-2.94
-0.86
3.71
10.59
18.93
27.23
33.81
37.33
37.34
34.36
29.53
24.03
18.59
13.31
7.83
1.79
-4.96
-12.15
-19.25
-25.72
-31.14
-35.36
-38.43
-40.56
-41.99
-42.99
-43.85
-44.94
-46.59
-49.07
-52.36
-56.13
-59.81
-62.80
-64.75
-65.66
-65.89
-65.84
-65.74
-65.42
-64.36
-62.00
-58.03
-52.54
-46.07
-39.26
-32.55
-26.08
-19.68
-13.21
-6.71
-0.52
4.91
9.41
13.35
17.79
24.17
33.66
46.63
62.26
78.79
94.22
107.04
116.79
123.99
129.64
134.56
138.90
142.14
143.47
142.28
138.56
132.78
125.74
118.11
110.23
102.07
93.35
83.88
73.74
63.32
53.15
43.61
34.95
27.60
22.54
21.32
25.39
35.14
49.09
63.93
75.58
80.74
78.16
68.97
55.88
41.92
29.22
18.59
9.64
1.32
-7.49
-17.68
-29.63
-43.12
-57.28
-70.82
-82.49
-91.56
-98.09
-102.97
-107.74
-114.10
-123.57
-137.04
-154.24
-173.09
-189.53
-198.26
-194.51
-176.24
-145.59
-108.57
-72.98
-45.36
-28.52
-20.97
-18.37
-16.05
-11.24
-3.77
4.80
12.67
19.03
24.19
28.93
33.58
37.73
40.50
41.08
39.36
36.05
32.49
29.94
29.11
29.79
31.08
31.75
30.85
28.15
24.14
19.77
15.97
13.23
11.44
10.05
8.37
5.91
2.56
-1.41
-5.54
-9.43
-12.88
-15.97
-18.93
-21.91
-24.83
-27.26
-28.58
-28.20
-25.85
-21.78
-16.64
-11.29
-6.46
-2.52
0.53
2.90
4.79
6.20
6.98
6.93
6.03
4.47
2.56
0.67
-1.03
-2.56
-4.06
-5.71
-7.60
-9.80
-12.41
-15.59
-19.50
-24.14
-29.09
-33.58
-36.61
-37.32
-35.38
-31.11
-25.33
-19.00
-12.83
-7.14
-1.88
3.09
7.79
12.03
15.55
18.16
19.89
21.00
21.83
22.62
23.52
24.57
25.86
27.59
30.03
33.45
37.90
43.22
49.03
54.82
60.15
64.69
68.18
70.37
70.92
69.45
65.73
59.88
52.56
44.83
37.82
32.29
28.37
25.52
22.90
19.78
15.87
11.33
6.63
2.16
-1.94
-5.76
-9.49
-13.19
-16.74
-19.95
-22.61
-24.63
-26.00
-26.69
-26.66
-25.79
-23.98
-21.24
-17.71
-13.69
-9.55
-5.70
-2.48
-0.11
1.30
1.80
1.53
0.68
-0.62
-2.26
-4.20
-6.44
-8.97
-11.76
-14.69
-17.51
-19.86
-21.34
-21.65
-20.63
-18.37
-15.12
-11.26
-7.20
-3.33
0.02
2.59
4.19
4.75
4.37
3.33
2.10
1.21
1.08
1.89
3.46
5.28
6.71
7.24
6.64
5.09
2.92
0.47
-2.17
-5.15
-8.75
-13.09
-18.07
-23.29
-28.29
-32.70
-36.41
-39.57
-42.43
-45.24
-48.10
-50.98
-53.82
-56.64
-59.48
-62.44
-65.57
-68.81
-72.07
-75.23
-78.20
-80.96
-83.48
-85.69
-87.42
-88.42
-88.44
-87.25
-84.66
-80.49
-74.48
-66.35
-55.86
-42.89
-27.57
-10.34
8.14
27.08
45.62
63.01
78.64
92.06
103.07
111.67
118.05
122.59
125.77
128.05
129.70
130.85
131.34
130.93
129.30
126.14
121.20
114.28
105.30
94.36
81.85
68.50
55.19
42.79
31.89
22.65
14.91
8.32
2.54
-2.63
-7.33
-11.59
-15.49
-19.07
-22.31
-25.06
-27.11
-28.28
-28.53
-27.94
-26.74
-25.21
-23.59
-22.08
-20.81
-19.85
-19.19
-18.72
-18.29
-17.75
-16.98
-15.99
-14.85
-13.73
-12.76
-12.09
-11.80
-11.93
-12.49
-13.39
-14.48
-15.54
-16.31
-16.62
-16.39
-15.73
-14.89
-14.21
-13.96
-14.31
-15.23
-16.52
-17.91
-19.12
-19.89
-20.09
-19.68
-18.73
-17.46
-16.15
-15.10
-14.56
-14.65
-15.30
-16.30
-17.26
-17.70
-17.16
-15.21
-11.66
-6.57
-0.27
6.68
13.63
19.97
25.19
28.99
31.21
31.88
31.18
29.46
27.14
24.67
22.44
20.67
19.41
18.61
18.15
17.94
17.91
18.01
18.10
17.94
17.21
15.58
12.87
9.07
4.39
-0.89
-6.48
-12.18
-17.89
-23.58
-29.28
-34.98
-40.73
-46.47
-52.01
-56.94
-60.63
-62.43
-61.88
-58.95
-54.00
-47.74
-40.88
-34.02
-27.49
-21.51
-16.37
-12.45
-10.16
-9.66
-10.69
-12.58
-14.53
-15.99
-16.85
-17.45
-18.28
-19.70
-21.60
-23.52
-24.77
-24.82
-23.45
-20.81
-17.32
-13.48
-9.66
-5.93
-2.10
2.35
7.94
14.96
23.22
31.94
39.92
45.76
48.31
46.92
41.77
33.85
24.89
16.99
12.01
11.06
14.12
20.02
26.99
33.30
37.86
40.46
41.53
41.67
41.23
40.22
38.47
35.95
32.92
29.87
27.27
25.24
23.52
21.56
18.85
15.19
10.82
6.27
2.19
-0.90
-2.82
-3.63
-3.56
-2.81
-1.45
0.55
3.23
6.44
9.79
12.64
14.28
14.16
12.07
8.29
3.52
-1.25
-5.01
-7.00
-6.96
-5.10
-2.03
1.50
4.88
7.78
10.19
12.22
14.00
15.47
16.49
16.86
16.49
15.48
14.07
12.58
11.28
10.36
9.88
9.74
9.73
9.59
9.09
8.10
6.63
4.80
2.81
0.84
-0.99
-2.68
-4.32
-6.10
-8.27
-11.07
-14.66
-19.09
-24.16
-29.48
-34.36
-38.04
-39.82
-39.26
-36.36
-31.56
-25.57
-19.15
-12.89
-7.14
-2.08
2.13
5.32
7.33
8.10
7.83
6.92
5.82
4.84
4.02
3.23
2.28
1.11
-0.22
-1.55
-2.80
-3.99
-5.27
-6.81
-8.71
-10.98
-13.48
-16.03
-18.42
-20.46
-22.05
-23.22
-24.19
-25.27
-26.78
-28.91
-31.60
-34.52
-37.09
-38.64
-38.57
-36.51
-32.44
-26.70
-19.86
-12.65
-5.71
0.45
5.56
9.53
12.36
14.12
14.94
14.95
14.33
13.31
12.06
10.73
9.39
8.11
6.94
6.00
5.37
5.10
5.13
5.27
5.27
4.87
3.90
2.34
0.31
-1.97
-4.25
-6.34
-8.17
-9.76
-11.29
-13.03
-15.22
-17.98
-21.22
-24.45
-26.96
-27.98
-26.90
-23.57
-18.35
-11.97
-5.28
0.99
6.41
10.76
13.96
15.96
16.73
16.36
15.07
13.25
11.34
9.68
8.46
7.68
7.25
7.06
7.05
7.20
7.47
7.83
8.16
8.36
8.27
7.82
6.99
5.84
4.49
3.10
1.78
0.55
-0.68
-2.07
-3.80
-5.95
-8.44
-10.91
-12.82
-13.56
-12.63
-9.82
-5.32
0.34
6.41
12.16
17.05
20.78
23.22
24.40
24.35
23.18
21.07
18.33
15.35
12.54
10.25
8.63
7.67
7.17
6.94
6.79
6.60
6.34
5.94
5.31
4.33
2.93
1.10
-1.02
-3.27
-5.47
-7.59
-9.72
-12.12
-15.02
-18.56
-22.58
-26.62
-30.00
-31.94
-31.83
-29.43
-24.89
-18.73
-11.60
-4.15
3.10
9.78
15.62
20.40
23.98
26.34
27.67
28.27
28.51
28.68
28.85
28.89
28.50
27.40
25.46
22.74
19.50
16.05
12.68
9.57
6.76
4.19
1.78
-0.51
-2.66
-4.62
-6.29
-7.68
-8.87
-10.09
-11.59
-13.49
-15.70
-17.80
-19.16
-19.07
-17.07
-13.09
-7.45
-0.75
6.31
13.10
19.18
24.24
28.07
30.55
31.63
31.38
30.04
27.95
25.54
23.21
21.18
19.54
18.25
17.20
16.37
15.79
15.50
15.48
15.53
15.26
14.24
12.13
8.85
4.65
-0.04
-4.71
-9.03
-12.88
-16.42
-19.94
-23.70
-27.78
-31.98
-35.83
-38.69
-39.90
-39.01
-35.94
-30.99
-24.81
-18.16
-11.73
-5.98
-1.15
2.70
5.56
7.37
8.07
7.67
6.34
4.40
2.26
0.34
-1.06
-1.75
-1.66
-0.78
0.85
3.09
5.66
8.18
10.21
11.41
11.62
10.94
9.61
7.93
6.09
4.06
1.71
-1.16
-4.62
-8.50
-12.34
-15.47
-17.20
-16.98
-14.63
-10.35
-4.69
1.63
7.90
13.58
18.30
21.83
23.99
24.65
23.77
21.46
18.05
14.07
10.09
6.62
3.95
2.13
1.04
0.46
0.16
-0.04
-0.30
-0.78
-1.60
-2.84
-4.53
-6.58
-8.87
-11.26
-13.62
-15.97
-18.36
-20.94
-23.82
-26.99
-30.23
-33.06
-34.80
-34.73
-32.34
-27.51
-20.64
-12.54
-4.18
3.57
10.15
15.34
19.14
21.65
22.97
23.16
22.36
20.86
19.04
17.36
16.16
15.55
15.42
15.51
15.61
15.61
15.55
15.48
15.39
15.15
14.58
13.52
12.00
10.20
8.37
6.66
5.06
3.31
1.06
-2.05
-6.27
-11.57
-17.58
-23.57
-28.59
-31.67
-32.12
-29.76
-24.95
-18.51
-11.38
-4.39
1.92
7.21
11.35
14.22
15.76
15.95
14.94
13.05
10.69
8.31
6.26
4.78
3.93
3.64
3.72
3.98
4.19
4.20
3.91
3.27
2.24
0.87
-0.82
-2.74
-4.82
-6.94
-9.03
-11.05
-13.09
-15.30
-17.92
-21.06
-24.65
-28.25
-31.15
-32.46
-31.46
-27.79
-21.68
-13.85
-5.31
2.95
10.22
16.12
20.58
23.65
25.42
25.92
25.23
23.58
21.37
19.07
17.14
15.78
14.96
14.45
13.97
13.43
12.90
12.52
12.36
12.29
11.99
11.11
9.44
7.08
4.34
1.65
-0.73
-2.79
-4.74
-6.90
-9.57
-12.93
-16.94
-21.37
-25.73
-29.32
-31.40
-31.33
-28.86
-24.18
-17.91
-10.89
-3.90
2.48
7.89
12.13
15.03
16.49
16.51
15.30
13.26
10.90
8.66
6.81
5.42
4.39
3.60
2.99
2.57
2.39
2.45
2.66
2.80
2.65
2.06
0.98
-0.49
-2.24
-4.12
-6.04
-8.00
-10.02
-12.20
-14.65
-17.45
-20.52
-23.54
-25.87
-26.77
-25.53
-21.85
-15.93
-8.40
-0.16
7.92
15.19
21.27
25.97
29.22
31.01
31.36
30.45
28.56
26.12
23.57
21.31
19.58
18.46
17.86
17.59
17.42
17.14
16.55
15.52
13.92
11.64
8.61
4.91
0.72
-3.59
-7.66
-11.16
-13.97
-16.16
-18.01
-19.87
-22.08
-24.79
-27.89
-30.91
-33.11
-33.68
-31.96
-27.69
-21.14
-13.02
-4.28
4.16
11.63
17.74
22.30
25.25
26.59
26.39
24.84
22.30
19.27
16.24
13.61
11.54
10.02
8.89
8.03
7.42
7.10
7.10
7.30
7.42
7.05
5.87
3.77
0.92
-2.30
-5.48
-8.32
-10.73
-12.79
-14.68
-16.66
-18.94
-21.67
-24.82
-28.12
-31.02
-32.77
-32.65
-30.19
-25.37
-18.66
-10.86
-2.90
4.44
10.65
15.53
19.05
21.28
22.28
22.15
21.05
19.26
17.14
15.09
13.43
12.29
11.62
11.27
11.05
10.85
10.59
10.20
9.54
8.48
6.88
4.76
2.30
-0.26
-2.67
-4.86
-6.96
-9.20
-11.83
-14.95
-18.47
-22.12
-25.51
-28.15
-29.57
-29.37
-27.31
-23.44
-18.11
-11.92
-5.58
0.30
5.26
9.05
11.61
12.92
13.04
12.08
10.18
7.60
4.65
1.70
-0.88
-2.77
-3.79
-3.97
-3.48
-2.62
-1.68
-0.88
-0.35
-0.11
-0.17
-0.56
-1.30
-2.44
-3.96
-5.82
-7.94
-10.27
-12.88
-15.82
-19.16
-22.82
-26.48
-29.59
-31.48
-31.52
-29.39
-25.17
-19.40
-12.85
-6.33
-0.48
4.37
8.12
10.79
12.39
12.96
12.57
11.41
9.82
8.17
6.78
5.84
5.39
5.37
5.70
6.28
7.04
7.85
8.53
8.86
8.65
7.79
6.32
4.41
2.32
0.31
-1.40
-2.77
-3.93
-5.18
-6.84
-9.16
-12.10
-15.33
-18.19
-19.88
-19.74
-17.51
-13.43
-8.19
-2.64
2.47
6.78
10.28
13.14
15.52
17.38
18.54
18.87
18.44
17.57
16.72
16.23
16.20
16.44
16.65
16.60
16.26
15.80
15.39
15.05
14.57
13.57
11.69
8.76
4.89
0.47
-4.01
-8.14
-11.70
-14.73
-17.42
-20.04
-22.79
-25.71
-28.68
-31.41
-33.48
-34.45
-33.90
-31.59
-27.52
-21.95
-15.41
-8.55
-1.97
3.80
8.43
11.77
13.80
14.60
14.35
13.29
11.71
9.86
8.03
6.40
5.15
4.34
3.95
3.88
3.98
4.07
4.01
3.72
3.14
2.27
1.13
-0.27
-1.89
-3.62
-5.35
-6.94
-8.30
-9.43
-10.45
-11.59
-13.10
-15.13
-17.60
-20.16
-22.24
-23.22
-22.63
-20.35
-16.62
-11.97
-7.02
-2.32
1.79
5.14
7.66
9.37
10.26
10.42
9.96
9.10
8.12
7.26
6.72
6.60
6.86
7.39
8.03
8.65
9.15
9.49
9.60
9.39
8.72
7.48
5.66
3.43
1.07
-1.08
-2.78
-4.02
-5.00
-6.08
-7.58
-9.65
-12.14
-14.69
-16.74
-17.75
-17.33
-15.32
-11.89
-7.45
-2.54
2.30
6.61
10.13
12.72
14.35
15.09
15.02
14.28
13.03
11.50
9.90
8.46
7.36
6.70
6.49
6.63
6.93
7.19
7.26
7.03
6.48
5.65
4.56
3.22
1.64
-0.17
-2.17
-4.30
-6.45
-8.54
-10.57
-12.62
-14.78
-17.12
-19.54
-21.74
-23.22
-23.48
-22.20
-19.31
-15.10
-10.07
-4.79
0.26
4.72
8.37
11.11
12.88
13.71
