1650273357.00
64.000000
-0.00
-0.00
-0.00
-0.00
-0.00
-0.00
-0.00
-0.00
-0.00
-0.00
0.00
0.01
0.01
-0.00
-0.03
-0.05
-0.05
0.00
0.13
0.36
0.66
1.01
1.37
1.72
2.06
2.40
2.79
3.24
3.80
4.42
5.06
5.66
6.20
6.68
7.15
7.68
8.31
9.14
10.09
11.04
11.88
12.56
13.14
13.76
14.65
15.96
17.91
20.32
22.90
25.38
27.58
29.57
31.68
34.32
37.81
42.54
48.15
54.10
59.83
64.97
69.58
74.14
79.34
85.71
93.76
103.00
112.62
121.73
129.77
136.75
143.30
150.75
157.77
166.64
177.95
191.79
206.97
220.57
228.25
225.36
208.53
176.87
132.76
80.05
23.08
-34.94
-92.44
-149.17
-205.25
-260.37
-313.71
-363.79
-409.72
-450.83
-486.54
-516.00
-537.77
-550.05
-551.01
-539.52
-515.37
-479.79
-434.98
-383.63
-328.40
-271.50
-214.57
-158.79
-105.12
-54.46
-7.88
33.60
69.20
98.61
122.05
140.25
154.11
164.48
171.93
176.58
178.35
177.15
173.17
166.99
159.52
151.71
144.23
137.24
130.30
122.70
113.79
103.43
92.12
80.87
70.82
62.64
56.21
50.60
44.45
36.62
26.79
15.66
4.73
-4.54
-11.18
-15.31
-17.95
-20.50
-24.29
-30.37
-39.46
-51.72
-65.88
-78.64
-84.79
-78.80
-57.37
-21.66
22.28
65.50
99.59
119.95
126.98
124.84
118.66
112.06
106.14
100.29
93.68
86.45
79.66
74.57
71.71
70.62
70.21
69.14
66.70
62.89
58.39
54.16
51.01
49.25
48.64
48.56
48.48
48.38
48.80
50.29
52.57
53.95
51.67
43.03
26.93
4.91
-19.10
-40.25
-54.74
-61.31
-61.30
-57.63
-53.12
-49.37
-46.53
-43.95
-41.22
-38.61
-36.97
-37.01
-38.71
-41.12
-42.73
-42.25
-39.19
-34.06
-27.89
-21.67
-15.82
-10.27
-4.86
0.27
4.48
6.93
7.11
5.15
1.90
-1.53
-4.19
-5.77
-6.65
-7.61
-9.46
-12.50
-16.29
-19.72
-21.50
-20.61
-16.77
-10.54
-3.05
4.44
10.83
15.41
17.77
17.80
15.63
11.72
6.80
1.85
-2.24
-4.89
-5.98
-5.90
-5.27
-4.74
-4.66
-5.00
-5.30
-4.96
-3.47
-0.72
2.91
6.65
9.60
11.06
10.72
8.78
5.78
2.47
-0.44
-2.47
-3.44
-3.48
-2.95
-2.24
-1.64
-1.31
-1.28
-1.47
-1.78
-2.08
-2.22
-1.96
-1.12
0.43
2.64
5.25
7.83
9.84
10.74
10.18
8.14
5.12
2.03
-0.06
-0.39
1.11
3.81
6.62
8.51
9.01
8.23
6.67
4.96
3.46
2.14
0.81
-0.66
-2.11
-3.17
-3.46
-2.85
-1.61
-0.21
0.88
1.45
1.59
1.47
1.21
0.76
-0.16
-1.83
-4.31
-7.39
-10.51
-13.07
-14.61
-15.03
-14.64
-14.17
-14.36
-15.63
-17.58
-19.10
-18.74
-15.48
-9.18
-0.75
7.89
14.75
18.64
19.82
20.04
21.69
26.81
36.44
50.33
66.45
81.30
90.53
90.34
78.78
56.77
28.31
-0.37
-22.58
-34.04
-34.27
-26.65
-16.73
-10.15
-11.09
-21.57
-41.48
-65.73
-87.37
-100.08
-101.69
-94.40
-81.98
-67.37
-52.04
-36.54
-21.24
-7.23
3.95
11.07
14.06
14.26
13.75
14.40
17.32
22.60
29.15
35.14
38.98
39.96
38.47
35.55
32.36
29.79
28.27
26.78
24.58
20.78
14.71
6.32
-3.84
-14.75
-25.18
-34.00
-38.77
-40.59
-40.94
-41.36
-42.97
-46.17
-50.43
-54.58
-57.23
-57.71
-56.37
-54.24
-52.66
-52.56
-54.21
-57.45
-62.14
-68.15
-74.74
-80.00
-80.32
-71.67
-51.48
-20.62
16.28
52.35
81.24
99.62
108.18
110.69
111.37
112.38
113.15
112.03
107.86
102.00
97.64
97.44
101.22
105.10
103.29
90.96
67.65
37.80
8.88
-12.27
-22.56
-23.39
-19.05
-13.87
-10.32
-8.36
-6.70
-4.31
-1.21
1.81
3.94
5.22
6.61
9.01
12.98
18.11
23.16
26.68
27.86
27.12
26.14
27.12
31.10
37.86
45.65
51.93
54.49
52.62
47.43
41.57
38.09
38.05
40.68
43.04
40.82
29.46
5.87
-30.27
-76.16
-120.05
-150.12
-155.49
-129.55
-72.78
6.49
93.90
173.20
231.16
261.32
263.81
244.44
210.91
169.66
124.59
77.57
30.10
-15.84
-57.64
-94.14
-125.99
-156.25
-189.39
-229.80
-280.38
-341.63
-411.36
-484.36
-553.51
-610.53
-648.09
-662.17
-653.42
-626.92
-590.06
-549.73
-510.16
-472.86
-437.57
-404.03
-372.95
-345.59
-322.65
-303.24
-284.96
-264.93
-241.36
-214.27
-185.35
-157.09
-131.41
-108.77
-88.14
-67.55
-45.15
-20.06
7.25
35.37
62.69
88.27
112.16
135.29
158.81
183.32
208.46
232.97
255.34
274.49
290.42
304.19
317.43
331.59
347.28
364.14
381.19
397.51
412.83
427.90
444.27
464.07
489.65
523.21
565.83
616.39
670.50
720.61
757.60
773.60
764.89
733.26
685.24
629.43
573.43
521.80
475.99
435.63
400.16
369.61
344.30
323.94
307.13
291.54
274.90
255.90
234.62
212.29
190.60
170.74
152.95
136.56
120.38
103.44
84.98
65.23
45.35
26.78
10.47
-3.54
-15.97
-27.85
-40.02
-53.19
-67.30
-81.53
-94.73
-106.05
-115.18
-122.29
-127.70
-131.59
-134.90
-137.91
-139.98
-140.03
-137.45
-132.41
-125.68
-118.10
-110.21
-105.26
-104.95
-108.68
-114.40
-120.53
-127.05
-134.84
-144.76
-156.85
-176.59
-206.31
-243.53
-282.70
-319.31
-352.12
-382.32
-411.56
-440.69
-479.64
-533.35
-598.97
-668.10
-733.22
-791.49
-844.22
-894.55
-945.55
-1011.50
-1097.89
-1196.02
-1286.32
-1349.03
-1372.87
-1357.17
-1309.46
-1160.91
-893.62
-546.29
-192.27
109.29
336.35
493.35
594.49
654.76
687.20
689.65
663.04
616.26
563.39
516.12
479.16
452.15
432.89
420.37
404.69
380.63
351.18
324.61
308.14
303.93
308.36
316.93
326.12
327.56
316.35
293.94
265.78
237.47
211.63
188.50
167.48
147.98
129.34
107.84
83.11
56.91
31.68
8.41
-13.02
-32.88
-51.40
-69.81
-89.26
-109.44
-129.56
-148.18
-164.72
-179.07
-191.12
-200.69
-207.38
-210.75
-209.16
-205.77
-201.22
-195.84
-189.75
-182.89
-175.16
-166.52
-157.27
-147.57
-137.89
-128.11
-118.58
-109.88
-102.66
-97.52
-94.91
-95.12
-98.04
-103.31
-109.78
-116.31
-121.78
-125.14
-125.50
-122.15
-114.73
-103.15
-87.70
-68.67
-46.83
-23.23
0.90
24.28
45.85
64.84
80.84
93.76
103.93
111.72
117.52
121.63
124.30
125.88
126.88
127.90
129.59
132.44
136.62
141.89
147.68
153.42
158.81
164.01
169.67
176.64
185.68
197.12
210.71
225.78
241.59
257.68
274.06
291.10
309.40
329.52
351.90
376.67
403.25
430.07
454.25
471.92
479.16
473.30
453.96
423.32
385.34
344.44
304.16
266.50
232.08
200.88
172.90
148.44
127.85
110.97
96.70
83.09
67.89
49.35
27.01
1.92
-23.79
-47.81
-68.50
-85.30
-98.55
-108.89
-116.58
-121.33
-122.55
-119.96
-113.94
-105.58
-96.35
-87.54
-79.96
-73.80
-68.79
-64.52
-60.64
-57.06
-53.89
-51.37
-49.62
-48.59
-47.95
-47.22
-45.91
-43.73
-40.68
-37.02
-33.24
-29.80
-27.06
-25.11
-23.85
-22.98
-22.16
-21.18
-19.96
-18.64
-17.43
-16.50
-15.90
-15.58
-15.43
-15.45
-15.74
-16.42
-17.59
-19.17
-20.99
-22.88
-24.76
-26.64
-28.59
-30.53
-32.22
-33.35
-33.61
-32.98
-31.68
-30.09
-28.56
-27.22
-26.01
-24.84
-23.69
-22.66
-21.99
-21.77
-22.00
-22.44
-22.77
-22.71
-22.13
-21.06
-19.58
-17.80
-15.73
-13.35
-10.62
-7.50
-4.03
-0.32
3.45
7.08
10.27
12.63
13.72
13.18
10.91
7.18
2.68
-1.75
-5.44
-8.08
-9.78
-10.85
-11.50
-11.75
-11.55
-11.02
-10.53
-10.63
-11.61
-13.29
-14.97
-15.79
-15.11
-12.89
-9.66
-6.12
-2.86
-0.04
2.46
4.85
7.15
9.12
10.38
10.54
9.48
7.33
4.46
1.33
-1.57
-3.92
-5.55
-6.50
-7.08
-7.72
-8.83
-10.64
-13.06
-15.74
-18.24
-20.33
-22.07
-23.85
-26.08
-29.05
-32.68
-36.56
-40.17
-43.03
-44.87
-45.65
-45.41
-44.24
-42.20
-39.39
-35.97
-32.16
-28.26
-24.44
-20.72
-16.87
-12.59
-7.69
-2.27
3.17
7.90
11.17
12.56
12.09
10.24
7.73
5.26
3.32
2.10
1.52
1.34
1.31
1.24
1.07
0.83
0.56
0.34
0.24
0.30
0.56
1.02
1.61
2.21
2.68
2.85
2.62
1.93
0.85
-0.50
-1.88
-3.02
-3.70
-3.81
-3.43
-2.78
-2.16
-1.80
-1.75
-1.90
-2.03
-1.93
-1.51
-0.79
0.15
1.24
2.41
3.59
4.65
5.41
5.64
5.22
4.15
2.58
0.76
-1.06
-2.73
-4.22
-5.56
-6.76
-7.77
-8.44
-8.67
-8.51
-8.15
-7.95
-8.23
-9.17
-10.69
-12.52
-14.31
-15.84
-17.02
-17.89
-18.47
-18.73
-18.50
-17.67
-16.24
-14.36
-12.33
-10.41
-8.75
-7.29
-5.82
-4.10
-2.01
0.40
2.88
5.07
6.65
7.46
7.56
7.24
6.90
6.91
7.44
8.42
9.51
10.27
10.35
9.65
8.45
7.22
6.49
6.62
7.64
9.30
11.14
12.72
13.74
14.05
13.63
12.55
10.90
8.80
6.45
4.10
2.01
0.37
-0.77
-1.54
-2.18
-2.96
-4.08
-5.58
-7.28
-8.91
-10.12
-10.69
-10.57
-9.84
-8.67
-7.23
-5.57
-3.70
-1.59
0.67
2.91
4.85
6.17
6.68
6.34
5.28
3.72
1.94
0.20
-1.30
-2.41
-3.07
-3.32
-3.26
-3.01
-2.68
-2.35
-2.00
-1.62
-1.20
-0.76
-0.39
-0.15
-0.15
-0.43
-1.04
-2.01
-3.32
-4.92
-6.80
-8.90
-11.20
-13.61
-15.96
-18.01
-19.52
-20.29
-20.33
-19.81
-18.99
-18.08
-17.18
-16.23
-15.08
-13.60
-11.81
-9.89
-8.16
-6.95
-6.40
-6.40
-6.56
-6.37
-5.49
-3.86
-1.78
0.30
2.01
3.18
3.94
4.52
5.11
5.79
6.48
7.08
7.55
7.94
8.32
8.79
9.39
10.07
10.74
11.22
11.23
10.47
8.73
6.02
2.67
-0.69
-3.30
-4.50
-4.02
-2.08
0.61
3.12
4.56
4.44
2.73
-0.21
-3.79
-7.46
-10.76
-13.40
-15.15
-15.82
-15.34
-13.79
-11.48
-8.90
-6.47
-4.41
-2.52
-0.32
2.78
7.11
12.51
18.28
23.40
26.82
27.80
26.15
22.17
16.55
10.14
3.80
-1.81
-6.20
-9.13
-10.63
-10.93
-10.45
-9.63
-8.78
-7.96
-7.00
-5.71
-4.08
-2.37
-1.11
-0.82
-1.80
-3.94
-6.75
-9.60
-11.96
-13.62
-14.65
-15.35
-16.03
-16.92
-18.04
-19.14
-19.68
-18.88
-16.00
-10.68
-3.27
5.18
13.30
19.91
24.50
27.44
29.71
32.39
36.20
41.09
46.30
50.52
52.32
50.48
44.46
34.51
21.88
8.52
-3.36
-11.98
-16.52
-17.28
-15.44
-12.48
-9.67
-7.79
-7.16
-7.91
-10.02
-13.33
-17.30
-20.97
-23.14
-22.87
-19.94
-15.05
-9.58
-4.90
-1.92
-0.69
-0.58
-0.75
-0.60
0.05
0.94
1.63
1.78
1.26
0.20
-1.15
-2.59
-4.04
-5.56
-7.18
-8.86
-10.37
-11.43
-11.82
-11.49
-10.62
-9.55
-8.70
-8.41
-8.84
-9.95
-11.46
-12.92
-13.85
-13.82
-12.65
-10.45
-7.62
-4.74
-2.44
-1.22
-1.37
-2.84
-5.24
-7.91
-10.10
-11.19
-10.93
-9.37
-6.83
-3.74
-0.52
2.45
4.78
6.06
5.97
4.33
1.30
-2.65
-6.74
-10.11
-11.96
-11.84
-9.82
-6.49
-2.87
0.01
1.45
1.32
0.07
-1.63
-3.19
-4.35
-5.17
-5.82
-6.42
-6.90
-7.05
-6.72
-5.90
-4.74
-3.52
-2.51
-1.80
-1.34
-0.87
-0.05
1.34
3.33
5.70
8.09
10.18
11.81
13.09
14.25
15.53
16.98
18.46
19.71
20.54
20.90
20.94
20.88
20.97
21.37
22.10
23.15
24.46
26.05
27.97
30.23
32.69
35.03
36.80
37.59
37.14
35.43
32.73
29.53
26.30
23.45
21.15
19.33
17.69
15.81
13.20
9.38
4.05
-2.90
-11.33
-20.84
-30.90
-40.78
-49.72
-56.97
-61.88
-64.03
-63.33
-60.13
-55.03
-48.75
-41.88
-34.85
-27.96
-21.52
-15.94
-11.58
-8.64
-6.99
-6.16
-5.60
-4.84
-3.71
-2.25
-0.65
0.93
2.43
3.82
5.06
6.08
6.80
7.20
7.31
7.09
6.47
5.36
3.79
1.87
-0.15
-1.96
-3.38
-4.36
-5.05
-5.63
-6.21
-6.82
-7.39
-7.88
-8.30
-8.75
-9.30
-9.92
-10.46
-10.62
-10.14
-8.90
-7.06
-5.01
-3.23
-2.08
-1.71
-1.93
-2.42
-2.86
-3.02
-2.93
-2.70
-2.51
-2.48
-2.60
-2.82
-3.03
-3.17
-3.20
-3.09
-2.82
-2.38
-1.80
-1.16
-0.54
-0.04
0.33
0.63
0.96
1.48
2.25
3.22
4.27
5.20
5.81
5.94
5.50
4.50
3.09
1.50
0.03
-1.08
-1.71
-1.92
-1.89
-1.82
-1.85
-2.00
-2.22
-2.47
-2.78
-3.22
-3.79
-4.36
-4.69
-4.49
-3.61
-2.18
-0.55
0.81
1.53
1.49
0.83
-0.13
-1.04
-1.63
-1.80
-1.57
-1.03
-0.32
0.41
1.07
1.57
1.85
1.86
1.63
1.30
1.04
1.05
1.38
1.86
2.16
1.87
0.81
-0.86
-2.60
-3.76
-3.87
-2.86
-1.03
1.09
3.09
4.72
5.95
6.81
7.36
7.66
7.79
7.87
7.94
7.96
7.80
7.26
6.31
5.05
3.70
2.43
1.26
-0.02
-1.62
-3.59
-5.73
-7.58
-8.75
-9.08
-8.76
-8.20
-7.83
-7.85
-8.18
-8.53
-8.58
-8.23
-7.55
-6.78
-6.09
-5.52
-4.96
-4.25
-3.30
-2.15
-0.92
0.24
1.29
2.24
3.16
4.09
5.03
5.91
6.62
7.03
7.02
6.49
5.41
3.87
2.11
0.48
-0.65
-1.08
-0.83
-0.13
0.64
1.18
1.35
1.22
1.04
1.05
1.40
2.02
2.78
3.46
3.98
4.39
4.80
5.34
5.97
6.51
6.68
6.27
5.21
3.61
1.69
-0.29
-2.17
-3.82
-5.20
-6.28
-7.02
-7.42
-7.50
-7.33
-7.05
-6.78
-6.61
-6.58
-6.67
-6.84
-7.06
-7.30
-7.49
-7.60
-7.51
-7.15
-6.50
-5.59
-4.58
-3.60
-2.74
-1.96
-1.17
-0.27
0.77
1.84
2.82
3.55
4.00
4.27
4.50
4.85
5.37
5.99
6.54
6.86
6.86
6.54
5.97
5.23
4.37
3.44
2.42
1.32
0.10
-1.28
-2.89
-4.72
-6.73
-8.77
-10.64
-12.15
-13.14
-13.50
-13.14
-12.03
-10.16
-7.64
-4.68
-1.59
1.33
3.84
5.79
7.10
7.76
7.83
7.39
6.62
5.75
5.01
4.54
4.42
4.59
4.99
5.49
6.00
6.43
6.64
6.52
5.94
4.90
3.49
1.93
0.48
-0.56
-1.05
-0.95
-0.34
0.58
1.60
2.57
3.36
3.86
4.01
3.74
3.06
2.05
0.90
-0.14
-0.85
-1.12
-0.97
-0.53
-0.01
0.46
0.75
0.80
0.60
0.13
-0.60
-1.49
-2.37
-3.03
-3.25
-2.95
-2.26
-1.42
-0.75
-0.50
-0.73
-1.38
-2.26
-3.14
-3.81
-4.09
-3.84
-2.98
-1.55
0.28
2.22
3.96
5.23
5.91
5.97
5.50
4.62
3.53
2.41
1.47
0.90
0.76
0.99
1.40
1.78
1.97
1.98
1.94
2.03
2.33
2.75
3.12
3.22
2.91
2.25
1.40
0.56
-0.10
-0.54
-0.78
-0.87
-0.93
-1.08
-1.50
-2.33
-3.55
-4.99
-6.31
-7.21
-7.50
-7.26
-6.73
-6.19
-5.81
-5.57
-5.27
-4.72
-3.83
-2.63
-1.24
0.21
1.66
3.12
4.62
6.11
7.44
8.42
8.90
8.89
8.55
8.14
7.89
7.84
7.86
7.71
7.19
6.19
4.77
3.02
1.10
-0.80
-2.45
-3.60
-4.04
-3.73
-2.90
-1.92
-1.15
-0.77
-0.66
-0.56
-0.17
0.60
1.68
2.78
3.66
4.15
4.22
3.93
3.36
2.57
1.58
0.46
-0.70
-1.75
-2.55
-3.02
-3.17
-3.14
-3.10
-3.18
-3.46
-3.88
-4.31
-4.60
-4.65
-4.40
-3.87
-3.09
-2.14
-1.17
-0.35
0.22
0.53
0.73
1.02
1.59
2.50
3.69
5.05
6.45
7.86
9.21
10.41
11.28
11.62
11.33
10.48
9.30
8.11
7.18
6.59
6.27
6.09
5.95
5.80
5.67
5.51
5.27
4.91
4.38
3.79
3.21
2.75
2.38
1.99
1.41
0.57
-0.54
-1.79
-3.10
-4.40
-5.66
-6.86
-7.89
-8.60
-8.83
-8.48
-7.57
-6.15
-4.29
-2.05
0.51
3.26
5.95
8.32
10.19
11.63
12.95
14.62
17.00
20.16
23.79
27.33
30.18
31.96
32.57
32.13
30.85
28.90
26.38
23.34
19.85
15.92
11.52
6.47
0.42
-6.96
-15.88
-26.18
-37.27
-48.20
-57.89
-65.34
-69.92
-71.38
-69.93
-66.03
-60.33
-53.54
-46.30
-39.16
-32.44
-26.22
-20.37
-14.74
-9.28
-4.13
0.39
4.03
6.76
8.91
10.96
13.40
16.40
19.79
23.16
26.10
28.45
30.27
31.64
32.48
32.39
30.77
27.01
20.79
12.14
1.49
-10.44
-22.72
-34.28
-44.09
-51.38
-55.87
-57.85
-58.10
-57.48
-56.66
-55.99
-55.55
-55.37
-55.55
-56.22
-57.31
-58.64
-59.79
-60.40
-60.25
-59.34
-57.75
-55.54
-52.67
-49.05
-44.62
-39.38
-33.39
-26.70
-19.37
-11.47
-3.20
5.09
13.01
20.20
26.47
31.83
36.37
40.31
43.82
47.04
50.10
53.10
56.06
58.87
61.33
63.11
63.94
63.66
62.28
59.95
56.79
52.86
48.16
42.69
36.49
29.72
22.56
15.19
7.81
0.69
-5.89
-11.65
-16.49
-20.53
-24.09
-27.53
-31.09
-34.65
-37.74
-39.64
-39.58
-36.90
-31.36
-23.24
-13.45
-3.36
5.56
12.36
16.94
20.15
23.44
28.03
34.13
40.53
44.94
44.85
38.67
26.30
9.22
-10.07
-28.73
-44.12
-54.14
-57.22
-52.51
-39.99
-20.64
3.58
30.15
56.57
80.86
101.88
119.13
132.47
141.83
147.07
148.04
144.74
137.29
126.07
111.60
94.54
75.64
55.85
36.34
18.43
3.62
-6.68
-11.26
-9.23
-0.13
16.06
39.07
68.39
103.24
142.47
184.23
225.81
263.70
294.02
313.44
319.97
313.52
295.62
268.59
234.46
194.43
148.95
98.58
44.81
-9.50
-60.67
-105.20
-140.81
-166.88
-184.09
-193.83
-197.67
-197.27
-194.59
-192.05
-192.17
-196.86
-206.77
-221.17
-238.30
-256.21
-273.37
-288.83
-301.86
-311.48
-316.23
-314.56
-305.47
-289.14
-267.06
-241.63
-215.58
-191.33
-170.61
-154.31
-142.09
-132.08
-120.79
-103.88
-77.61
-40.65
4.93
53.79
99.02
134.38
156.27
164.43
161.22
150.22
134.84
117.67
100.43
84.35
70.45
59.45
51.62
46.57
43.32
40.59
37.21
32.52
26.55
20.15
14.45
10.42
8.44
8.05
8.28
8.07
6.77
4.40
1.62
-0.78
-2.15
-2.25
-1.32
0.18
1.79
3.20
4.32
5.19
5.86
6.33
6.55
6.48
6.13
5.62
5.12
4.81
4.79
5.04
5.43
5.81
6.05
6.05
5.76
5.14
4.20
2.99
1.63
0.36
-0.54
-0.87
-0.57
0.26
1.39
2.56
3.55
4.25
4.63
4.80
4.91
5.19
5.85
6.99
8.51
10.10
11.38
12.01
11.86
11.08
10.01
9.02
8.29
7.82
7.42
6.87
6.04
4.93
3.65
2.35
1.13
-0.01
-1.10
-2.15
-3.09
-3.86
-4.36
-4.58
-4.60
-4.56
-4.60
-4.78
-5.09
-5.40
-5.59
-5.55
-5.25
-4.72
-4.00
-3.14
-2.17
-1.08
0.10
1.31
2.47
3.43
4.11
4.44
4.46
4.22
3.83
3.41
3.04
2.81
2.73
2.74
2.74
2.63
2.34
1.91
1.40
0.92
0.50
0.11
-0.31
-0.81
-1.31
-1.68
-1.79
-1.62
-1.31
-1.08
-1.16
-1.67
-2.58
-3.72
-4.87
-5.87
-6.51
-6.57
-5.83
-4.12
-1.51
1.64
4.72
7.10
8.37
8.50
7.80
6.71
5.59
4.66
3.95
3.48
3.26
3.36
3.77
4.36
4.92
5.24
5.26
5.09
4.94
4.96
5.18
5.43
5.47
5.01
3.96
2.41
0.59
-1.25
-2.95
-4.51
-6.02
-7.59
-9.24
-10.88
-12.40
-13.72
-14.83
-15.73
-16.38
-16.64
-16.37
-15.55
-14.36
-13.16
-12.34
-12.15
-12.60
-13.51
-14.76
-16.41
-18.72
-21.90
-25.88
-30.20
-34.12
-37.04
-38.66
-39.04
-38.36
-36.55
-33.08
-27.15
-18.05
-5.53
9.87
27.02
44.44
60.74
74.78
85.79
93.24
96.83
96.54
92.69
85.94
77.21
67.44
57.34
47.27
37.25
27.18
17.17
7.65
-0.56
-6.55
-9.64
-9.79
-7.56
-3.97
-0.10
3.23
5.61
7.06
7.77
7.90
7.51
6.53
4.97
2.95
0.73
-1.37
-3.12
-4.42
-5.28
-5.80
-6.05
-6.08
-5.88
-5.45
-4.78
-3.93
-3.00
-2.14
-1.47
-1.08
-0.94
-0.96
-1.04
-1.10
-1.14
-1.24
-1.48
-1.93
-2.51
-3.07
-3.45
-3.52
-3.31
-3.03
-2.92
-3.17
-3.85
-4.82
-5.88
-6.84
-7.56
-7.99
-8.12
-7.95
-7.45
-6.70
-5.81
-4.91
-4.11
-3.40
-2.65
-1.75
-0.66
0.55
1.70
2.67
3.36
3.77
3.98
4.03
3.97
3.80
3.53
3.17
2.74
2.25
1.75
1.34
1.13
1.19
1.54
2.05
2.52
2.78
2.74
2.40
1.89
1.31
0.79
0.34
-0.05
-0.41
-0.82
-1.32
-1.96
-2.77
-3.74
-4.81
-5.84
-6.65
-7.04
-6.91
-6.29
-5.31
-4.23
-3.25
-2.51
-2.04
-1.78
-1.64
-1.55
-1.48
-1.38
-1.22
-0.99
-0.71
-0.42
-0.19
-0.04
0.03
0.05
0.10
0.17
0.26
0.33
0.38
0.44
0.55
0.67
0.74
0.65
0.33
-0.19
-0.82
-1.40
-1.78
-1.85
-1.63
-1.22
-0.78
-0.45
-0.32
-0.41
-0.73
-1.26
-1.96
-2.74
-3.47
-3.99
-4.16
-3.95
-3.46
-2.92
-2.53
-2.38
-2.40
-2.40
-2.21
-1.73
-1.04
-0.25
0.46
0.99
1.30
1.36
1.25
1.05
0.94
1.05
1.46
2.11
2.86
3.57
4.12
4.50
4.72
4.77
4.65
4.36
3.97
3.55
3.18
2.82
2.38
1.74
0.88
-0.07
-0.90
-1.39
-1.53
-1.43
-1.30
-1.32
-1.55
-1.94
-2.41
-2.89
-3.34
-3.72
-3.98
-4.03
-3.80
-3.34
-2.78
-2.27
-1.91
-1.69
-1.49
-1.21
-0.81
-0.35
0.07
0.39
0.63
0.86
1.18
1.65
2.25
2.88
3.40
3.69
3.67
3.33
2.73
2.00
1.28
0.70
0.33
0.19
0.24
0.41
0.61
0.74
0.69
0.40
-0.10
-0.70
-1.17
-1.33
-1.10
-0.57
0.02
0.44
0.54
0.31
-0.12
-0.64
-1.15
-1.63
-2.10
-2.53
-2.87
-3.05
-3.04
-2.90
-2.75
-2.63
-2.54
-2.39
-2.10
-1.67
-1.18
-0.77
-0.51
-0.42
-0.39
-0.32
-0.11
0.24
0.67
1.08
1.39
1.58
1.65
1.65
1.57
1.44
1.28
1.10
0.92
0.78
0.66
0.59
0.57
0.61
0.70
0.83
0.93
0.97
0.88
0.58
0.06
-0.67
-1.52
-2.34
-2.92
-3.05
-2.66
-1.80
-0.72
0.26
0.87
0.99
0.67
0.15
-0.34
-0.59
-0.56
-0.29
0.13
0.61
1.09
1.57
2.04
2.51
2.97
3.43
3.90
4.33
4.68
4.87
4.84
4.56
4.10
3.52
2.89
2.22
1.52
0.81
0.14
-0.47
-1.02
-1.61
-2.33
-3.22
-4.22
-5.18
-5.95
-6.47
-6.80
-7.02
-7.21
-7.32
-7.28
-7.01
-6.51
-5.89
-5.28
-4.78
-4.39
-4.04
-3.64
-3.09
-2.37
-1.51
-0.61
0.17
0.70
0.93
0.91
0.81
0.79
0.97
1.33
1.76
2.14
2.38
2.48
2.47
2.37
2.18
1.88
1.51
1.10
0.76
0.52
0.36
0.23
0.01
-0.31
-0.74
-1.23
-1.73
-2.18
-2.57
-2.89
-3.13
-3.29
-3.39
-3.46
-3.55
-3.69
-3.87
-4.05
-4.17
-4.20
-4.12
-3.95
-3.74
-3.54
-3.37
-3.24
-3.15
-3.11
-3.16
-3.34
-3.66
-4.13
-4.74
-5.45
-6.26
-7.15
-8.07
-9.00
-9.93
-10.86
-11.86
-13.00
-14.25
-15.56
-16.79
-17.88
-18.89
-20.02
-21.51
-23.56
-26.23
-29.35
-32.64
-35.76
-38.43
-40.50
-42.00
-43.12
-44.21
-45.55
-47.19
-48.74
-49.34
-47.79
-42.87
-33.72
-20.12
-2.68
17.27
37.89
57.14
73.22
84.89
91.75
94.20
93.26
90.12
85.81
80.91
75.63
70.01
64.11
58.09
52.15
46.41
40.83
35.30
29.71
24.09
18.61
13.55
9.15
5.58
2.90
1.08
0.06
-0.25
0.05
0.92
2.30
4.17
6.59
9.73
13.90
19.50
26.89
36.09
46.63
57.43
66.95
73.56
76.10
74.14
68.16
59.23
48.56
37.12
25.48
13.87
2.49
-8.34
-18.19
-26.59
-33.35
-38.51
-42.36
-45.20
-47.14
-48.10
-47.90
-46.51
-44.10
-41.06
-37.86
-34.85
-32.17
-29.75
-27.45
-25.16
-22.90
-20.80
-18.99
-17.54
-16.42
-15.50
-14.65
-13.73
-12.65
-11.32
-9.71
-7.82
-5.77
-3.74
-1.89
-0.28
1.17
2.68
4.50
6.74
9.33
12.01
14.45
16.37
17.62
18.20
18.27
18.01
17.57
16.98
16.17
15.02
13.44
11.45
9.16
6.76
4.39
2.04
-0.42
-3.27
-6.77
-11.11
-16.31
-22.20
-28.39
-34.45
-39.90
-44.31
-47.38
-48.92
-48.92
-47.54
-45.12
-42.13
-39.13
-36.60
-34.82
-33.78
-33.20
-32.64
-31.62
-29.84
-27.19
-23.77
-19.88
-15.84
-11.91
-8.22
-4.78
-1.50
1.66
4.66
7.38
9.65
11.38
12.55
13.24
13.55
13.57
13.37
13.04
12.69
12.44
12.38
12.47
12.59
12.55
12.19
11.50
10.61
9.77
9.20
9.00
9.09
9.27
9.32
9.02
8.27
7.01
5.23
2.98
0.37
-2.43
-5.18
-7.65
-9.61
-10.96
-11.70
-11.92
-11.77
-11.36
-10.79
-10.09
-9.26
-8.28
-7.15
-5.92
-4.70
-3.60
-2.72
-2.08
-1.64
-1.30
-0.96
-0.54
0.01
0.69
1.50
2.39
3.33
4.23
5.01
5.55
5.81
5.76
5.46
5.04
4.60
4.26
4.03
3.84
3.58
3.16
2.57
1.86
1.15
0.52
-0.04
-0.62
-1.33
-2.25
-3.31
-4.34
-5.11
-5.37
-4.99
-3.94
-2.36
-0.45
1.49
3.25
4.64
5.65
6.39
7.01
7.72
8.62
9.72
10.88
11.93
12.67
13.02
12.95
12.54
11.91
11.17
10.39
9.66
9.01
8.50
8.13
7.90
7.71
7.45
7.01
6.36
5.53
4.60
3.71
2.92
2.25
1.67
1.06
0.33
-0.58
-1.66
-2.80
-3.78
-4.32
-4.12
-3.00
-1.02
1.53
4.15
6.29
7.57
7.88
7.44
6.63
5.80
5.18
4.83
4.70
4.70
4.73
4.67
4.31
3.48
2.11
0.31
-1.64
-3.37
-4.67
-5.51
-6.05
-6.53
-7.09
-7.69
-8.23
-8.57
-8.69
-8.73
-8.83
-9.11
-9.57
-10.10
-10.52
-10.69
-10.61
-10.33
-9.96
-9.58
-9.17
-8.61
-7.78
-6.61
-5.20
-3.82
-2.82
-2.50
-2.97
-4.11
-5.64
-7.13
-8.19
-8.51
-7.85
-6.10
-3.28
0.41
4.65
9.00
13.05
16.50
19.26
21.40
23.07
24.41
25.42
26.04
26.11
25.53
24.26
22.34
19.84
16.82
13.36
9.55
5.63
1.88
-1.43
-4.11
-6.16
-7.75
-9.15
-10.50
-11.82
-12.93
-13.57
-13.52
-12.71
-11.29
-9.52
-7.76
-6.30
-5.31
-4.81
-4.69
-4.80
-5.02
-5.28
-5.53
-5.72
-5.73
-5.49
-4.97
-4.30
-3.71
-3.47
-3.77
-4.59
-5.74
-6.92
-7.86
-8.41
-8.59
-8.52
-8.36
-8.25
-8.29
-8.51
-8.94
-9.60
-10.52
-11.76
-13.30
-15.11
-17.02
-18.84
-20.29
-21.12
-21.19
-20.49
-19.22
-17.70
-16.33
-15.47
-15.34
-16.01
-17.33
-18.99
-20.60
-21.68
-21.76
-20.40
-17.26
-12.23
-5.50
2.42
10.86
19.09
26.55
32.86
37.85
41.48
43.71
44.54
44.06
42.53
40.37
38.01
35.79
33.82
32.00
30.16
28.19
26.11
24.05
22.11
20.29
18.49
16.56
14.42
12.09
9.74
7.56
5.70
4.15
2.80
1.51
0.13
-1.32
-2.78
-4.10
-5.14
-5.83
-6.16
-6.18
-5.94
-5.51
-4.96
-4.40
-3.96
-3.76
-3.83
-4.09
-4.39
-4.52
-4.36
-3.88
-3.12
-2.21
-1.27
-0.43
0.21
0.56
0.65
0.53
0.33
0.16
0.08
0.04
-0.05
-0.30
-0.73
-1.32
-1.99
-2.68
-3.38
-4.05
-4.69
-5.30
-5.86
-6.38
-6.85
-7.29
-7.63
-7.80
-7.68
-7.23
-6.49
-5.59
-4.64
-3.73
-2.89
-2.07
-1.24
-0.44
0.30
0.90
1.34
1.66
1.96
2.33
2.80
3.30
3.76
4.09
4.29
4.45
4.64
4.94
5.31
5.64
5.79
5.65
5.22
4.58
3.90
3.26
2.64
1.91
0.86
-0.62
-2.51
-4.60
-6.62
-8.32
-9.58
-10.36
-10.69
-10.62
-10.18
-9.42
-8.43
-7.35
-6.24
-5.10
-3.88
-2.51
-1.03
0.39
1.56
2.32
2.68
2.71
2.57
2.30
1.93
1.46
0.93
0.44
0.08
-0.13
-0.22
-0.29
-0.41
-0.57
-0.68
-0.66
-0.45
-0.15
0.11
0.17
-0.04
-0.47
-1.00
-1.50
-1.90
-2.18
-2.32
-2.39
-2.40
-2.41
-2.48
-2.73
-3.28
-4.17
-5.32
-6.52
-7.53
-8.12
-8.23
-7.94
-7.43
-6.90
-6.53
-6.37
-6.44
-6.67
-6.98
-7.29
-7.54
-7.65
-7.66
-7.65
-7.78
-8.23
-9.12
-10.40
-11.92
-13.39
-14.56
-15.27
-15.50
-15.44
-15.31
-15.32
-15.56
-15.97
-16.38
-16.61
-16.49
-16.03
-15.31
-14.41
-13.39
-12.17
-10.51
-8.22
-5.23
-1.62
2.42
6.76
11.41
16.50
22.24
28.80
36.18
44.16
52.40
60.53
68.26
75.34
81.44
86.28
89.58
91.04
90.37
87.45
82.51
76.17
69.47
63.50
59.40
57.93
58.95
61.23
62.83
61.83
57.01
48.27
36.39
23.31
11.20
1.49
-6.19
-13.81
-24.33
-40.63
-64.62
-96.75
-134.62
-173.46
-207.40
-231.77
-244.04
-244.20
-234.48
-218.55
-200.69
-183.13
-165.69
-145.99
-121.49
-89.83
-49.47
-0.10
59.07
120.37
171.51
203.53
216.60
216.53
209.71
199.22
184.03
160.51
124.98
79.62
27.62
-24.63
-71.12
-107.45
-131.85
-144.89
-148.34
-144.30
-133.47
-115.65
-87.33
-49.35
-4.92
41.88
87.25
128.16
161.92
186.49
200.08
201.58
190.09
166.40
133.11
94.12
53.53
14.30
-21.82
-54.35
-83.20
-108.91
-131.58
-150.74
-165.34
-173.84
-175.04
-168.35
-154.14
-133.76
-109.64
-84.29
-59.68
-36.67
-14.77
6.51
27.24
46.83
64.41
79.12
90.64
99.11
105.02
109.18
111.46
110.96
106.66
98.05
85.44
69.89
52.76
33.55
13.56
-5.55
-22.36
-36.08
-46.02
-51.02
-49.81
-41.84
-28.94
-11.33
9.91
33.04
56.01
76.74
93.14
103.34
106.12
99.17
83.08
59.83
32.34
3.74
-23.22
-46.40
-64.39
-76.43
-82.31
-81.82
-75.89
-66.30
-55.23
-44.72
-36.30
-30.80
-28.37
-28.70
-30.83
-33.87
-36.97
-39.19
-39.61
-37.63
-33.24
-27.05
-20.14
-13.42
-7.59
-2.99
0.45
2.98
4.80
6.01
6.59
6.58
6.24
5.93
6.00
6.75
8.31
10.65
13.63
17.03
20.55
23.86
26.58
28.37
28.99
28.43
26.83
24.47
21.66
18.62
15.43
12.01
8.24
4.02
-0.54
-5.14
-9.24
-12.32
-14.04
-14.40
-13.75
-12.72
-11.93
-11.82
-12.62
-14.28
-16.71
-19.77
-23.27
-26.95
-30.43
-33.26
-35.12
-35.87
-35.55
-34.33
-32.31
-29.44
-25.48
-20.22
-13.58
-5.76
2.75
11.32
19.36
26.39
32.15
36.50
39.42
40.88
40.80
39.08
35.73
30.95
25.25
19.41
14.26
10.45
8.23
7.39
7.40
7.63
7.46
6.36
3.86
-0.43
-6.74
-14.91
-24.40
-34.33
-43.75
-51.84
-58.13
-62.49
-64.95
-65.63
-64.56
-61.87
-57.69
-52.11
-45.11
-36.48
-26.01
-13.63
0.27
14.83
28.65
40.33
48.88
53.96
55.88
55.14
52.15
47.19
40.35
31.56
20.91
8.71
-4.69
-19.01
-33.97
-49.06
-62.99
-73.81
-79.66
-79.39
-73.13
-62.63
-50.59
-38.83
-29.36
-22.26
-14.43
-2.60
15.27
39.42
68.13
98.42
127.06
151.05
168.49
178.22
179.57
172.48
157.77
137.07
112.76
87.51
63.74
43.33
27.22
15.23
6.51
0.08
-4.91
-8.97
-12.28
-14.98
-17.09
-18.70
-20.12
-21.69
-23.72
-26.40
-29.89
-34.22
-39.48
-45.66
-52.72
-60.59
-69.01
-77.48
-85.30
-91.67
-95.85
-97.31
-95.80
-91.35
-84.24
-74.91
-63.88
-51.79
-39.32
-27.11
-15.76
-5.73
2.67
9.25
13.91
16.69
17.76
17.48
16.45
15.29
14.58
14.61
15.42
16.83
18.59
20.52
22.52
24.59
26.63
28.52
30.02
30.94
31.20
30.89
30.20
29.30
28.28
27.10
25.69
23.99
22.00
19.75
17.31
14.74
12.11
9.53
7.15
5.13
3.57
2.50
1.88
1.58
1.51
1.60
1.83
2.18
2.66
3.22
3.78
4.23
4.43
4.29
3.77
2.93
1.91
0.86
-0.11
-0.96
-1.73
-2.42
-2.99
-3.39
-3.55
-3.51
-3.38
-3.29
-3.33
-3.47
-3.60
-3.53
-3.14
-2.42
-1.47
-0.47
0.41
1.03
1.36
1.45
1.39
1.25
1.08
0.86
0.54
0.06
-0.65
-1.65
-2.96
-4.54
-6.29
-7.98
-9.36
-10.17
-10.30
-9.79
-8.87
-7.80
-6.82
-6.08
-5.57
-5.22
-4.86
-4.34
-3.55
-2.51
-1.32
-0.19
0.63
0.94
0.63
-0.27
-1.61
-3.19
-4.82
-6.30
-7.46
-8.16
-8.30
-7.81
-6.69
-4.99
-2.86
-0.47
2.01
4.40
6.55
8.32
9.61
10.36
10.58
10.30
9.59
8.56
7.30
5.92
4.49
3.08
1.80
0.75
-0.04
-0.62
-1.17
-1.92
-3.07
-4.63
-6.47
-8.33
-9.94
-11.14
-11.91
-12.37
-12.64
-12.78
-12.80
-12.62
-12.17
-11.44
-10.45
-9.25
-7.90
-6.47
-5.01
-3.59
-2.30
-1.22
-0.42
0.07
0.26
0.20
-0.03
-0.37
-0.76
-1.16
-1.47
-1.62
-1.58
-1.37
-1.11
-1.02
-1.22
-1.78
-2.60
-3.51
-4.31
-4.88
-5.14
-5.06
-4.66
-3.89
-2.73
-1.15
0.79
2.99
5.25
7.34
9.05
10.22
10.80
10.85
10.54
10.03
9.48
8.96
8.46
7.94
7.32
6.57
5.66
4.64
3.58
2.55
1.61
0.77
0.01
-0.75
-1.55
-2.36
-3.12
-3.70
-4.07
-4.22
-4.21
-4.09
-3.86
-3.47
-2.89
-2.17
-1.43
-0.82
-0.46
-0.31
-0.24
-0.08
0.28
0.80
1.34
1.72
1.83
1.67
1.31
0.86
0.36
-0.15
-0.72
-1.34
-1.95
-2.43
-2.66
-2.58
-2.24
-1.77
-1.33
-1.04
-0.92
-0.91
-0.92
-0.89
-0.84
-0.83
-0.92
-1.11
-1.35
-1.55
-1.61
-1.54
-1.37
-1.17
-1.02
-0.95
-0.98
-1.08
-1.21
-1.36
-1.53
-1.66
-1.66
-1.49
-1.14
-0.68
-0.22
0.16
0.41
0.57
0.71
0.87
1.06
1.17
1.11
0.83
0.34
-0.23
-0.76
-1.13
-1.27
-1.18
-0.85
-0.35
0.25
0.83
1.26
1.40
1.22
0.73
0.02
-0.82
-1.79
-2.96
-4.44
-6.24
-8.30
-10.35
-12.15
-13.43
-14.06
-14.05
-13.51
-12.63
-11.56
-10.48
-9.42
-8.41
-7.45
-6.51
-5.63
-4.88
-4.29
-3.85
-3.47
-3.04
-2.47
-1.79
-1.03
-0.30
0.39
1.07
1.80
2.61
3.43
4.19
4.81
5.33
5.81
6.34
6.93
7.52
7.98
8.22
8.21
8.00
7.64
7.18
6.61
5.94
5.18
4.41
3.70
3.11
2.64
2.22
1.76
1.21
0.56
-0.11
-0.72
-1.15
-1.37
-1.34
-1.11
-0.74
-0.27
0.24
0.76
1.30
1.85
2.36
2.83
3.22
3.51
3.74
3.92
4.07
4.20
4.28
4.26
4.13
3.88
3.60
3.36
3.23
3.22
3.27
3.30
3.23
2.98
2.54
1.93
1.21
0.43
-0.33
-1.02
-1.61
-2.12
-2.58
-3.04
-3.57
-4.16
-4.82
-5.45
-5.99
-6.36
-6.53
-6.47
-6.19
-5.76
-5.26
-4.82
-4.53
-4.46
-4.58
-4.84
-5.09
-5.24
-5.22
-5.02
-4.71
-4.34
-3.95
-3.56
-3.12
-2.63
-2.04
-1.32
-0.46
0.58
1.80
3.20
4.69
6.14
7.41
8.35
8.92
9.13
9.06
8.78
8.34
7.75
7.06
6.36
5.77
5.39
5.27
5.37
5.59
5.81
5.98
6.11
6.25
6.44
6.66
6.82
6.82
6.62
6.19
5.60
4.91
4.19
3.47
2.78
2.11
1.52
1.05
0.74
0.59
0.54
0.49
0.38
0.15
-0.16
-0.53
-0.93
-1.35
-1.87
-2.54
-3.39
-4.34
-5.26
-5.94
-6.23
-6.08
-5.56
-4.86
-4.15
-3.58
-3.18
-2.89
-2.67
-2.51
-2.50
-2.74
-3.29
-4.12
-5.06
-5.93
-6.55
-6.85
-6.77
-6.35
-5.63
-4.68
-3.62
-2.60
-1.74
-1.06
-0.57
-0.17
0.19
0.52
0.73
0.69
0.28
-0.58
-1.79
-3.17
-4.43
-5.34
-5.70
-5.49
-4.76
-3.68
-2.40
-1.04
0.30
1.56
2.65
3.47
4.02
4.34
4.53
4.72
5.01
5.40
5.81
6.15
6.32
6.29
6.09
5.81
5.61
5.62
5.92
6.52
7.33
8.17
8.86
9.26
9.32
9.04
8.48
7.68
6.70
5.58
4.41
3.29
2.27
1.37
0.57
-0.18
-0.88
-1.49
-1.94
-2.20
-2.30
-2.35
-2.53
-2.93
-3.63
-4.58
-5.65
-6.66
-7.39
-7.67
-7.47
-6.90
-6.22
-5.67
-5.42
-5.47
-5.64
-5.70
-5.51
-5.02
-4.31
-3.50
-2.68
-1.84
-0.94
0.06
1.14
2.19
3.06
3.60
3.76
3.61
3.31
3.07
3.01
3.11
3.24
3.21
2.91
2.31
1.53
0.72
-0.00
-0.57
-0.99
-1.25
-1.30
-1.03
-0.36
0.78
2.31
4.06
5.78
7.29
8.50
9.41
10.13
10.74
11.25
11.57
11.59
11.24
10.51
9.43
8.11
6.64
5.09
3.53
2.04
0.71
-0.37
-1.14
-1.59
-1.76
-1.70
-1.50
-1.28
-1.14
-1.16
-1.34
-1.62
-1.95
-2.25
-2.50
-2.70
-2.84
-2.91
-2.86
-2.67
-2.34
-1.95
-1.58
-1.35
-1.32
-1.45
-1.70
-2.05
-2.51
-3.11
-3.91
-4.90
-5.99
-7.03
-7.83
-8.25
-8.21
-7.71
-6.83
-5.64
-4.23
-2.68
-1.08
0.52
2.03
3.35
4.43
5.22
5.67
5.78
5.59
5.13
4.50
3.76
3.00
2.31
1.79
1.56
1.66
2.11
2.83
3.65
4.43
5.07
5.60
6.11
6.70
7.39
8.07
8.52
8.50
7.91
6.76
5.25
3.59
2.01
0.63
-0.46
-1.26
-1.75
-1.96
-1.91
-1.66
-1.23
-0.63
0.14
1.08
2.10
3.04
3.67
3.77
3.20
1.97
0.20
-1.88
-4.05
-6.12
-7.98
-9.57
-10.84
-11.69
-12.02
-11.72
-10.74
-9.11
-6.99
-4.51
-1.81
1.07
4.12
7.32
10.59
13.79
16.72
19.20
21.08
22.23
22.49
21.75
19.91
16.97
13.08
8.51
3.59
-1.34
-6.02
-10.23
-13.82
-16.66
-18.67
-19.84
-20.20
-19.85
-18.93
-17.60
-16.07
-14.49
-13.04
-11.82
-10.86
-10.14
-9.59
-9.18
-8.86
-8.62
-8.44
-8.29
-8.11
-7.81
-7.32
-6.59
-5.65
-4.56
-3.41
-2.27
-1.20
-0.24
0.61
1.38
2.16
3.01
4.00
5.11
6.26
7.31
8.09
8.48
8.44
8.02
7.32
6.43
5.40
4.25
3.00
1.68
0.36
-0.88
-1.97
-2.87
-3.57
-4.08
-4.37
-4.42
-4.20
-3.69
-2.96
-2.09
-1.17
-0.26
0.60
1.37
2.02
2.52
2.85
3.04
3.14
3.22
3.31
3.42
3.47
3.40
3.16
2.79
2.37
2.03
1.90
2.05
2.48
3.14
3.92
4.69
5.37
5.87
6.12
6.11
5.81
5.22
4.37
3.30
2.06
0.76
-0.46
-1.45
-2.07
-2.30
-2.21
-1.95
-1.69
-1.51
-1.37
-1.18
-0.81
-0.24
0.49
1.24
1.88
2.32
2.52
2.53
2.41
2.22
1.97
1.62
1.10
0.38
-0.55
-1.59
-2.61
-3.43
-3.93
-4.06
-3.87
-3.50
-3.10
-2.83
-2.75
-2.90
-3.21
-3.62
-4.07
-4.48
-4.81
-4.98
-4.91
-4.50
-3.75
-2.71
-1.51
-0.33
0.69
1.49
2.07
2.45
2.68
2.76
2.69
2.44
2.05
1.56
1.04
0.55
0.11
-0.29
-0.71
-1.18
-1.74
-2.36
-2.98
-3.47
-3.73
-3.68
-3.32
-2.73
-2.00
-1.27
-0.59
-0.01
0.47
0.78
0.84
0.56
-0.11
-1.15
-2.48
-3.99
-5.54
-7.00
-8.22
-9.07
-9.43
-9.26
-8.59
-7.58
-6.33
-4.94
-3.33
-1.37
1.04
3.97
7.31
10.82
14.18
17.13
19.38
20.78
21.28
20.86
19.66
17.86
15.73
13.45
11.20
8.94
6.54
3.95
1.02
-2.23
-5.69
-9.16
-12.49
-15.52
-18.18
-20.38
-22.02
-23.05
-23.33
-22.71
-21.01
-18.19
-14.37
-9.97
-5.58
-1.85
0.72
2.01
2.26
1.83
1.00
-0.17
-1.81
-4.10
-6.96
-10.11
-13.09
-15.55
-17.52
-19.31
-21.46
-24.55
-29.03
-34.96
-42.15
-50.07
-58.02
-65.14
-70.47
-73.09
-72.22
-67.42
-58.58
-46.01
-30.36
-12.50
6.61
26.13
45.28
63.38
79.73
93.71
104.76
112.50
116.86
118.07
116.65
113.16
108.12
101.90
94.81
87.05
78.89
70.63
62.54
54.80
47.43
40.34
33.44
26.75
20.43
14.71
9.78
5.72
2.45
-0.29
-2.76
-5.07
-7.08
-8.48
-9.08
-8.91
-8.39
-8.12
-8.85
-11.13
-15.02
-20.02
-25.22
-29.52
-31.90
-31.53
-27.77
-20.58
-10.54
1.31
13.60
24.87
33.84
39.58
41.61
39.96
34.75
26.22
14.92
1.69
-12.38
-26.27
-39.08
-50.80
-60.08
-65.28
-65.72
-62.03
-55.65
-48.09
-40.61
-34.03
-28.82
-24.86
-21.82
-19.33
-16.87
-13.85
-9.78
-4.41
2.18
9.54
16.62
21.92
23.97
21.95
16.10
7.67
-1.81
-10.03
-15.53
-18.01
-18.20
-17.53
-17.62
-19.75
-24.59
-32.00
-41.06
-50.39
-58.41
-63.81
-65.85
-64.60
-60.58
-54.50
-46.93
-38.31
-29.04
-19.66
-10.69
-2.47
4.78
11.29
17.39
23.29
28.88
33.79
37.64
40.38
42.72
45.10
48.08
51.85
56.03
59.72
61.75
61.09
56.72
49.27
39.59
28.88
18.27
8.60
0.32
-6.38
-11.44
-14.84
-16.50
-16.73
-15.92
-14.60
-13.20
-11.99
-11.07
-10.42
-10.06
-9.92
-10.02
-10.12
-9.86
-8.92
-7.29
-5.32
-3.59
-2.63
-2.66
-3.78
-5.99
-9.46
-14.53
-21.42
-29.91
-39.00
-47.17
-52.85
-55.04
-53.49
-48.68
-41.46
-32.67
-22.95
-12.80
-2.66
7.01
15.73
23.05
28.67
32.43
34.31
34.47
33.26
31.23
29.04
27.23
26.02
25.29
24.70
23.87
22.62
20.96
18.96
16.61
13.76
10.10
5.42
-0.26
-6.59
-12.94
-18.58
-22.85
-25.25
-25.47
-23.48
-19.66
-14.87
-10.30
-7.15
-6.16
-7.26
-9.55
-11.59
-12.05
-10.21
-6.22
-0.95
4.50
9.25
12.95
15.60
17.33
18.07
17.49
15.17
10.82
4.49
-3.60
-12.45
-20.83
-27.63
-32.24
-34.66
-35.37
-35.08
-34.39
-33.59
-32.66
-31.53
-30.28
-29.19
-28.65
-28.99
-30.31
-32.39
-34.80
-36.97
-38.45
-38.85
-37.88
-35.30
-31.07
-25.44
-18.93
-12.27
-6.08
-0.69
4.09
8.94
14.82
22.66
33.00
45.61
59.25
71.66
79.99
81.70
75.71
63.22
47.67
33.62
25.10
24.03
29.67
39.32
49.74
58.46
64.26
66.73
65.41
59.34
47.48
29.63
7.17
-16.94
-39.16
-56.64
-68.17
-74.30
-76.59
-76.55
-74.94
-71.61
-65.86
-57.11
-45.31
-31.09
-15.59
-0.15
13.97
25.76
34.50
39.79
41.57
40.16
36.30
31.11
25.85
21.69
19.30
18.71
19.40
20.56
21.49
21.81
21.51
20.91
20.34
20.05
20.10
20.39
20.74
20.94
20.77
20.10
18.84
17.03
14.85
12.53
10.35
8.41
6.62
4.64
1.94
-2.06
-7.72
-15.08
-23.77
-32.97
-41.64
-48.74
-53.44
-55.38
-54.72
-52.02
-48.07
-43.56
-39.01
-34.62
-30.46
-26.51
-22.74
-19.16
-15.73
-12.39
-9.04
-5.71
-2.49
0.41
2.77
4.47
5.49
5.90
5.78
5.19
4.20
2.87
1.28
-0.51
-2.50
-4.80
-7.54
-10.75
-14.31
-17.95
-21.28
-24.02
-26.02
-27.29
-27.92
-27.90
-27.07
-25.15
-21.90
-17.27
-11.50
-5.03
1.62
8.04
13.95
19.15
23.48
26.78
28.93
30.05
30.58
31.17
32.55
35.25
39.34
44.38
49.57
53.91
56.52
56.81
54.61
50.12
43.88
36.61
29.11
22.11
16.22
11.82
9.02
7.68
7.39
7.55
7.56
6.96
5.69
4.06
2.69
2.19
2.91
4.77
7.30
9.92
12.19
14.02
15.54
16.96
18.26
19.14
19.15
17.84
15.01
10.72
5.26
-0.95
-7.41
-13.49
-18.33
-20.98
-20.55
-16.57
-9.24
0.47
11.06
20.90
28.71
33.79
36.16
36.31
35.01
33.10
31.22
29.75
28.80
28.25
27.90
27.49
26.84
25.87
24.63
23.11
21.07
18.09
13.70
7.48
-0.52
-9.70
-18.98
-27.12
-33.42
-37.93
-41.43
-44.68
-48.15
-51.66
-54.54
-56.63
-57.78
-57.98
-57.11
-55.09
-51.98
-48.75
-47.12
-48.73
-54.04
-61.40
-67.66
-69.47
-64.60
-52.60
-35.43
-16.58
0.49
13.50
21.93
26.68
29.46
29.77
28.15
25.16
21.16
16.40
11.07
5.46
-0.15
-5.42
-10.16
-14.02
-17.07
-19.64
-22.03
-24.34
-26.39
-27.94
-28.92
-29.55
-29.96
-30.39
-30.82
-30.81
-29.69
-26.89
-22.26
-16.24
-9.71
-3.44
1.95
6.27
9.71
12.68
15.45
18.03
20.06
21.03
20.51
18.38
14.87
10.61
6.42
3.13
1.28
1.06
2.21
4.21
6.39
8.20
9.43
10.32
11.55
13.91
17.90
23.41
29.58
35.07
38.63
39.51
37.75
34.11
29.58
25.03
20.95
17.41
14.29
11.47
8.94
6.78
5.18
4.30
4.28
5.16
6.84
9.03
11.34
13.39
14.95
15.95
16.45
16.38
15.49
13.27
9.19
2.99
-5.06
-14.17
-23.25
-31.28
-37.56
-41.84
-44.19
-44.82
-43.84
-41.30
-37.27
-32.01
-26.02
-19.95
-14.43
-9.87
-6.36
-3.73
-1.61
0.39
2.59
5.17
8.04
10.92
13.34
14.84
15.01
13.67
10.86
6.78
1.76
-3.77
-9.22
-13.88
-16.94
-17.67
-15.63
-10.65
-2.88
7.35
19.56
33.01
46.57
58.76
67.99
72.95
72.95
68.08
59.10
47.08
33.07
17.85
1.95
-14.04
-29.38
-43.15
-54.39
-62.32
-66.49
-66.78
-63.36
-56.52
-46.39
-33.10
-17.05
0.86
19.11
35.70
48.63
56.38
58.36
55.42
49.20
41.39
33.20
25.29
17.85
11.28
5.99
2.28
1.00
2.51
6.33
11.27
16.16
19.99
22.66
24.07
23.84
22.63
21.15
19.74
18.39
17.26
16.38
16.68
18.73
22.52
29.39
40.55
56.30
75.77
97.68
120.14
142.59
164.34
174.84
166.99
141.24
105.28
67.51
36.90
10.63
-13.82
-37.59
-60.96
-81.95
-98.13
-108.64
-114.45
-117.11
-118.38
-118.07
-115.72
-111.04
-102.92
-90.80
-75.45
-58.83
-43.12
-30.41
-21.02
-14.57
-10.37
-6.83
-2.66
2.47
7.89
12.59
15.51
16.66
16.35
14.91
12.86
10.38
7.11
2.42
-4.16
-12.77
-22.80
-33.45
-44.07
-54.17
-63.47
-71.87
-79.22
-85.18
-89.32
-91.09
-90.19
-86.49
-80.04
-70.98
-59.60
-46.47
-32.52
-18.97
-7.00
2.42
8.77
11.89
11.86
8.93
3.58
-3.35
-10.60
-16.66
-20.20
-20.52
-17.74
-12.70
-6.58
-0.44
5.04
9.60
13.30
16.39
19.18
22.03
25.27
29.10
33.37
37.54
40.76
42.18
41.32
38.31
33.77
28.50
23.19
18.14
13.38
8.74
4.09
-0.57
-5.16
-9.54
-13.66
-17.46
-20.90
-23.99
-26.75
-29.15
-31.03
-32.08
-31.92
-30.31
-27.36
-23.56
-19.51
-15.63
-11.92
-8.11
-3.95
0.45
4.61
7.99
10.43
12.40
14.82
18.51
23.77
30.15
36.77
42.61
46.88
49.07
48.87
46.17
41.10
34.19
26.44
19.19
13.72
10.86
10.78
12.90
16.16
19.41
21.75
22.74
22.45
21.37
20.08
19.01
18.31
17.83
17.34
16.69
15.96
15.39
15.19
15.37
15.76
16.00
15.69
14.49
12.18
8.72
4.23
-1.05
-6.71
-12.22
-17.01
-20.55
-22.48
-22.79
-21.82
-20.27
-18.90
-18.21
-18.08
-17.72
-16.00
-12.04
-5.74
2.01
9.73
16.01
20.14
22.27
23.08
23.32
23.35
23.18
22.75
22.22
22.02
22.67
24.39
26.95
29.84
32.48
34.55
36.02
37.11
38.11
39.21
40.34
41.11
40.79
38.52
33.61
25.94
16.16
5.52
-4.42
-12.39
-17.71
-20.45
-21.29
-21.33
-21.78
-23.62
-27.39
-33.01
-39.79
-46.71
-52.81
-57.72
-61.75
-65.61
-69.96
-74.95
-80.02
-84.17
-86.43
-86.19
-83.16
-77.34
-68.78
-57.43
-43.39
-27.06
-9.27
8.97
26.78
43.35
57.63
68.38
74.37
74.98
70.95
64.55
58.85
56.39
57.65
60.59
61.56
57.10
45.66
28.51
9.33
-7.26
-17.54
-20.28
-17.19
-11.81
-8.02
-8.53
-13.69
-21.57
-29.18
-33.89
-34.76
-33.07
-30.53
-28.04
-25.23
-21.04
-14.78
-7.00
0.41
4.86
3.44
-4.03
-15.05
-25.96
-34.18
-39.42
-43.40
-48.74
-57.39
-71.03
-88.27
-105.76
-120.83
-133.43
-145.86
-160.73
-179.03
-199.07
-218.84
-233.66
-238.03
-228.30
-204.35
-168.91
-125.85
-78.84
-18.78
50.12
114.69
162.52
189.55
198.41
193.89
180.65
162.67
143.18
122.86
103.35
87.00
75.30
68.29
64.61
62.57
61.03
59.66
57.27
54.34
52.46
52.97
55.93
60.54
65.57
70.22
74.12
76.07
75.43
72.21
66.80
60.06
53.50
49.20
49.08
53.76
61.55
69.73
75.69
77.82
75.87
70.77
64.10
57.51
52.18
48.46
46.33
45.51
45.49
45.43
44.23
40.85
34.61
25.63
15.06
5.11
-1.46
-2.60
1.77
9.05
14.51
13.02
1.32
-20.53
-49.10
-79.17
-105.89
-126.50
-140.61
-149.35
-153.97
-154.95
-151.99
-144.76
-133.63
-119.91
-105.43
-91.88
-80.19
-70.34
-61.69
-53.42
-45.09
-36.78
-28.99
-22.24
-16.71
-12.16
-7.97
-3.56
1.35
6.60
11.69
15.98
19.04
20.72
21.16
20.61
19.29
17.24
14.32
10.38
5.40
-0.38
-6.37
-11.83
-15.98
-18.26
-18.42
-16.62
-13.27
-8.95
-4.25
0.27
4.12
6.94
8.53
8.86
8.14
6.71
4.98
3.31
1.92
0.86
0.02
-0.75
-1.54
-2.28
-2.82
-2.96
-2.59
-1.74
-0.53
0.90
2.47
4.24
6.29
8.64
11.25
13.96
16.60
19.08
21.34
23.33
25.00
26.28
27.07
27.30
26.95
25.99
24.43
22.30
19.67
16.64
13.38
10.01
6.65
3.42
0.48
-1.94
-3.67
-4.60
-4.79
-4.39
-3.65
-2.74
-1.76
-0.75
0.25
1.13
1.78
2.13
2.17
2.05
1.95
2.08
2.53
3.32
4.37
5.54
6.66
7.57
8.09
8.13
7.64
6.67
5.36
3.85
2.26
0.67
-0.90
-2.42
-3.83
-5.04
-6.02
-6.73
-7.24
-7.69
-8.21
-8.89
-9.72
-10.58
-11.28
-11.60
-11.40
-10.66
-9.43
-7.84
-6.01
-4.03
-1.97
0.08
1.97
3.54
4.59
4.99
4.71
3.85
2.63
1.33
0.24
-0.40
-0.48
0.00
0.93
2.15
3.49
4.82
6.01
6.98
7.71
8.18
8.47
8.60
8.61
8.46
8.07
7.38
6.42
5.26
4.02
2.82
1.76
0.87
0.19
-0.27
-0.51
-0.52
-0.34
-0.00
0.47
1.04
1.70
2.43
3.25
4.13
5.02
5.82
6.41
6.71
6.70
6.46
6.15
5.87
5.70
5.60
5.49
5.28
4.98
4.63
4.31
4.03
3.72
3.25
2.50
1.45
0.13
-1.32
-2.80
-4.26
-5.72
-7.28
-8.97
-10.78
-12.58
-14.14
-15.17
-15.46
-14.86
-13.41
-11.28
-8.70
-5.91
-3.12
-0.49
1.81
3.62
4.82
5.35
5.27
4.79
4.21
3.84
3.90
4.44
5.37
6.46
7.46
8.15
8.41
8.24
7.71
6.94
6.05
5.12
4.19
3.29
2.38
1.40
0.25
-1.14
-2.81
-4.64
-6.41
-7.80
-8.51
-8.38
-7.41
-5.79
-3.78
-1.63
0.47
2.41
4.12
5.57
6.73
7.59
8.14
8.44
8.58
8.69
8.90
9.32
10.02
11.01
12.24
13.55
14.72
15.52
15.73
15.27
14.14
12.46
10.38
8.09
5.73
3.49
1.51
-0.06
-1.11
-1.61
-1.61
-1.21
-0.52
0.37
1.43
2.62
3.96
5.40
6.85
8.18
9.24
9.85
9.91
9.43
8.54
7.47
6.39
5.41
4.47
3.48
2.37
1.20
0.15
-0.57
-0.85
-0.73
-0.34
0.18
0.74
1.33
1.88
2.23
2.14
1.39
-0.04
-1.92
-3.81
-5.24
-5.85
-5.53
-4.36
-2.62
-0.60
1.42
3.19
4.51
5.21
5.28
4.82
4.09
3.43
3.04
2.99
3.13
3.17
2.85
2.02
0.71
-0.90
-2.61
-4.27
-5.79
-7.11
-8.23
-9.13
-9.80
-10.31
-10.74
-11.12
-11.46
-11.66
-11.66
-11.41
-11.00
-10.54
-10.09
-9.61
-8.92
-7.85
-6.29
-4.32
-2.16
-0.04
1.86
3.55
5.10
6.65
8.26
9.96
11.81
13.90
16.39
19.31
22.53
25.69
28.36
30.18
31.10
31.33
31.22
31.11
31.11
31.12
30.94
30.31
29.01
26.83
23.58
19.18
13.75
7.66
1.46
-4.27
-9.19
-13.22
-16.57
-19.51
-22.21
-24.66
-26.74
-28.33
-29.45
-30.18
-30.57
-30.50
-29.70
-27.86
-24.84
-20.74
-15.96
-10.94
-6.03
-1.41
2.92
6.90
10.36
13.02
14.59
14.92
14.14
12.54
10.55
8.59
6.95
5.79
5.09
4.70
4.42
4.11
3.75
3.42
3.23
3.19
3.15
2.86
2.06
0.70
-1.04
-2.81
-4.26
-5.15
-5.52
-5.56
-5.57
-5.81
-6.48
-7.67
-9.33
-11.28
-13.19
-14.66
-15.31
-14.89
-13.39
-11.04
-8.29
-5.66
-3.63
-2.48
-2.22
-2.57
-3.14
-3.49
-3.38
-2.77
-1.85
-0.87
-0.02
0.64
1.10
1.34
1.25
0.64
-0.63
-2.50
-4.71
-6.81
-8.44
-9.43
-9.88
-10.07
-10.24
-10.47
-10.65
-10.54
-9.98
-8.94
-7.55
-5.99
-4.41
-2.82
-1.09
0.86
3.06
5.37
7.56
9.44
10.89
11.94
12.66
13.15
13.38
13.28
12.74
11.71
10.31
8.74
7.24
6.00
5.07
4.40
3.87
3.32
2.65
1.83
0.86
-0.19
-1.22
-2.15
-2.89
-3.34
-3.47
-3.25
-2.76
-2.12
-1.51
-1.04
-0.79
-0.73
-0.76
-0.77
-0.64
-0.24
0.53
1.73
3.33
5.19
7.01
8.47
9.28
9.36
8.79
7.84
6.81
5.94
5.37
5.11
5.06
5.00
4.68
3.91
2.62
0.86
-1.17
-3.17
-4.92
-6.24
-7.07
-7.43
-7.40
-7.08
-6.62
-6.23
-6.07
-6.28
-6.90
-7.87
-8.98
-9.94
-10.52
-10.61
-10.24
-9.56
-8.78
-8.09
-7.61
-7.37
-7.33
-7.47
-7.74
-8.14
-8.54
-8.80
-8.81
-8.56
-8.15
-7.82
-7.79
-8.17
-8.88
-9.41
-9.23
-8.06
-6.00
-3.39
-0.74
1.53
3.19
4.11
4.65
5.03
5.16
4.68
3.32
1.04
-1.91
-5.12
-8.07
-9.69
-9.13
-6.12
-0.99
5.70
13.32
21.41
29.70
38.21
47.83
59.20
72.10
85.57
98.58
110.18
119.93
127.60
128.00
118.01
98.72
74.81
50.95
29.74
11.65
-3.96
-18.51
-32.68
-46.01
-58.13
-69.43
-81.16
-91.62
-99.74
-104.52
-105.28
-102.05
-95.08
-85.24
-73.77
-61.88
-50.32
-39.67
-30.24
-22.22
-15.64
-9.99
-4.58
1.09
7.05
12.99
18.03
21.50
23.18
23.54
23.64
24.55
26.88
30.54
34.94
39.19
42.56
44.56
44.89
43.34
39.69
33.80
25.76
16.28
6.50
-2.40
-9.81
-16.11
-22.60
-30.74
-41.18
-53.07
-63.95
-70.61
-70.39
-62.03
-45.87
-23.22
3.97
33.29
61.01
82.08
90.94
83.49
59.25
22.51
-18.99
-57.02
-85.67
-102.67
-107.69
-100.50
-80.29
-46.84
-2.72
44.92
85.23
107.18
103.94
76.98
35.10
-10.28
-50.16
-80.71
-102.56
-117.84
-127.27
-130.07
-124.08
-108.99
-89.00
-71.89
-65.34
-73.29
-94.36
-122.83
-151.95
-174.00
-182.55
-174.25
-149.10
-109.69
-60.18
-5.22
55.99
114.70
159.79
185.33
191.92
183.12
163.58
138.96
115.41
97.70
87.02
82.61
82.02
81.62
77.89
68.97
54.94
37.74
19.09
0.51
-15.26
-25.32
-28.01
-23.18
-11.61
5.19
24.93
44.28
59.42
68.11
70.19
67.10
61.34
55.75
50.99
46.97
42.68
37.08
30.28
23.18
16.81
11.80
8.35
6.04
3.74
0.02
-6.40
-16.84
-33.20
-57.81
-92.32
-132.06
-167.30
-187.19
-185.24
-161.68
-121.70
-72.61
-21.65
25.50
65.06
98.09
124.50
143.67
155.45
160.58
160.61
157.75
154.60
151.17
148.21
145.28
141.43
135.98
128.77
120.07
110.51
100.82
91.74
83.95
76.98
69.88
61.68
51.66
39.49
25.34
9.91
-5.63
-19.76
-31.54
-40.51
-46.66
-50.41
-52.58
-54.16
-56.19
-59.71
-65.46
-74.19
-86.18
-100.74
-115.97
-128.98
-136.44
-135.75
-125.97
-108.34
-86.14
-63.64
-44.73
-31.86
-25.63
-25.07
-28.43
-33.83
-39.74
-45.11
-49.33
-52.21
-54.10
-55.92
-59.07
-65.02
-74.75
-88.12
-103.72
-119.07
-131.40
-138.52
-139.46
-134.68
-125.74
-114.68
-103.32
-92.94
-84.12
-77.02
-71.41
-66.77
-62.20
-56.41
-48.09
-36.40
-21.53
-4.90
11.28
24.73
34.07
39.21
41.21
41.60
41.54
41.33
40.45
38.05
33.70
27.76
21.36
15.96
12.70
11.88
12.97
14.98
17.04
18.89
20.85
23.41
26.78
30.55
33.82
35.69
35.79
34.44
32.47
30.70
29.55
28.95
28.53
28.06
27.62
27.53
28.14
29.54
31.47
33.46
35.10
36.14
36.63
36.74
36.65
36.42
36.04
35.44
34.58
33.44
32.04
30.35
28.33
25.89
22.98
19.62
15.96
12.32
9.07
6.52
4.82
3.77
2.95
1.80
-0.08
-2.75
-5.94
-9.17
-12.04
-14.34
-16.09
-17.36
-18.07
-17.95
-16.68
-14.14
-10.62
-6.73
-3.24
-0.73
0.62
1.07
1.11
1.17
1.51
2.15
2.93
3.66
4.17
4.39
4.27
3.82
3.10
2.20
1.31
0.65
0.44
0.80
1.75
3.12
4.61
5.84
6.48
6.31
5.30
3.57
1.38
-0.90
-2.90
-4.23
-4.70
-4.37
-3.72
-3.55
-4.79
-8.09
-13.52
-20.32
-27.13
-32.35
-34.74
-33.79
-29.88
-23.98
-17.29
-10.71
-4.74
0.58
5.33
9.57
13.17
15.94
17.76
18.67
18.87
18.62
18.11
17.36
16.29
14.81
12.93
10.71
8.31
5.81
3.20
0.41
-2.67
-6.06
-9.57
-12.88
-15.66
-17.74
-19.31
-20.85
-22.99
-26.20
-30.56
-35.63
-40.69
-44.94
-47.86
-49.34
-49.57
-48.91
-47.65
-45.90
-43.62
-40.72
-37.15
-32.98
-28.40
-23.68
-19.09
-14.87
-11.22
-8.30
-6.20
-4.88
-4.19
-3.87
-3.65
-3.33
-2.84
-2.20
-1.43
-0.45
0.94
2.94
5.65
8.98
12.80
17.11
22.19
28.56
36.57
46.12
56.44
66.20
73.85
78.01
77.68
72.19
61.20
45.05
25.57
6.70
-6.01
-7.07
6.55
33.54
68.35
103.04
130.32
146.08
150.00
144.52
132.79
117.13
98.73
78.41
57.46
37.91
21.93
10.93
5.09
3.54
4.74
7.15
9.50
10.99
11.26
10.37
8.48
5.78
2.34
-1.86
-6.62
-11.44
-15.40
-17.53
-17.14
-14.24
-9.57
-4.43
-0.18
2.21
2.43
0.86
-1.70
-4.38
-6.58
-8.12
-9.29
-10.55
-12.36
-14.90
-18.04
-21.37
-24.42
-26.82
-28.33
-28.91
-28.61
-27.61
-26.16
-24.62
-23.36
-22.72
-22.92
-23.96
-25.56
-27.27
-28.59
-29.08
-28.52
-26.87
-24.28
-20.95
-17.06
-12.72
-8.07
-3.32
1.16
4.89
7.47
8.69
8.72
8.07
7.37
7.14
7.58
8.49
9.39
9.82
9.50
8.42
6.80
4.87
2.86
0.96
-0.52
-1.18
-0.60
1.37
4.40
7.73
10.37
11.58
11.22
9.69
7.72
5.90
4.44
3.14
1.73
0.08
-1.67
-3.24
-4.50
-5.61
-6.98
-9.05
-11.99
-15.54
-19.14
-22.17
-24.16
-25.01
-24.87
-23.98
-22.45
-20.18
-16.95
-12.60
-7.26
-1.41
4.17
8.56
11.04
11.24
9.29
5.75
1.42
-2.96
-6.88
-10.18
-12.92
-15.20
-16.95
-17.92
-17.67
-15.83
-12.22
-6.87
-0.03
7.99
16.85
26.19
35.49
44.07
51.05
55.54
56.92
55.04
50.44
44.14
37.32
30.96
25.47
20.79
16.59
12.65
9.07
6.15
4.14
2.97
2.16
1.09
-0.70
-3.35
-6.71
-10.55
-14.71
-19.14
-23.72
-28.07
-31.59
-33.68
-34.09
-33.07
-31.37
-29.82
-28.98
-28.80
-28.77
-28.21
-26.61
-23.92
-20.49
-16.90
-13.67
-11.17
-9.58
-8.91
-9.05
-9.71
-10.47
-10.68
-9.66
-6.81
-1.92
4.74
12.32
19.50
24.78
26.90
25.38
20.72
14.30
7.81
2.71
-0.40
-1.76
-2.16
-2.36
-2.68
-2.87
-2.38
-0.72
2.24
6.24
10.74
15.17
19.08
22.15
24.10
24.75
23.98
21.83
18.54
14.52
10.20
6.02
2.19
-1.22
-4.31
-7.23
-10.07
-12.85
-15.44
-17.67
-19.30
-20.18
-20.21
-19.38
-17.80
-15.58
-12.88
-9.84
-6.63
-3.41
-0.34
2.40
4.71
6.52
7.79
8.51
8.66
8.25
7.39
6.26
5.09
4.11
3.40
2.96
2.66
2.41
2.19
2.07
2.15
2.49
3.11
3.91
4.82
5.75
6.70
7.64
8.50
9.17
9.47
9.27
8.53
7.27
5.57
3.44
0.87
-2.19
-5.71
-9.60
-13.70
-17.90
-22.07
-26.18
-30.12
-33.64
-36.35
-37.76
-37.49
-35.47
-31.98
-27.55
-22.82
-18.24
-14.02
-10.07
-6.13
-1.94
2.62
7.48
12.43
17.23
21.69
25.77
29.54
33.10
36.51
39.67
42.30
44.00
44.41
43.28
40.72
37.14
33.21
29.65
26.95
25.18
23.95
22.62
20.56
17.53
13.75
9.84
6.53
4.32
3.27
3.00
2.90
2.41
1.32
-0.14
-1.36
-1.63
-0.36
2.75
7.55
13.44
19.42
24.32
27.15
27.66
26.70
26.19
28.40
34.60
43.81
52.40
55.18
47.49
27.39
-2.98
-38.09
-70.99
-95.80
-109.38
-111.75
-105.43
-94.28
-82.48
-73.59
-69.86
-71.48
-76.34
-80.58
-80.23
-73.20
-60.68
-47.31
-39.55
-43.22
-61.10
-91.74
-129.76
-167.40
-196.68
-211.33
-208.03
-186.85
-150.89
-105.27
-55.89
-8.49
32.25
63.07
82.25
89.67
86.63
75.51
59.22
40.50
21.34
2.71
-15.31
-33.02
-50.55
-67.49
-82.96
-95.92
-105.67
-112.10
-115.70
-117.23
-117.16
-115.30
-110.72
-102.15
-88.63
-70.15
-47.77
-23.30
1.39
24.96
46.64
65.99
82.48
95.51
104.72
110.45
113.93
117.01
121.51
128.56
138.24
149.64
161.27
171.45
178.64
181.62
179.67
172.58
160.70
144.79
125.73
104.31
81.12
56.58
31.16
5.48
-19.55
-42.80
-62.97
-78.83
-89.50
-94.65
-94.59
-90.12
-82.35
-72.31
-60.83
-48.54
-35.86
-23.19
-10.97
0.28
10.04
17.82
23.40
26.99
29.31
31.48
34.66
39.57
46.05
53.12
59.38
63.72
65.79
66.14
65.73
65.30
64.87
63.69
60.69
55.10
46.80
36.41
24.94
13.39
2.43
-7.53
-16.29
-23.55
-28.83
-31.42
-30.66
-26.20
-18.31
-8.09
2.82
12.76
20.62
26.27
30.50
34.44
38.94
44.18
49.69
54.85
59.24
62.70
65.04
65.75
64.02
59.15
51.06
40.47
28.74
17.27
7.04
-1.57
-8.60
-14.18
-18.26
-20.58
-20.75
-18.54
-14.01
-7.70
-0.54
6.15
10.94
12.54
10.24
4.15
-4.78
-14.96
-24.45
-31.26
-33.65
-30.42
-21.08
-5.99
13.61
35.72
57.83
77.26
91.66
99.38
99.80
93.50
81.95
67.13
50.90
34.72
19.42
5.38
-7.32
-18.70
-28.79
-37.75
-45.85
-53.34
-60.32
-66.53
-71.41
-74.23
-74.43
-71.91
-67.08
-60.69
-53.49
-46.06
-38.71
-31.64
-25.08
-19.37
-14.88
-11.87
-10.30
-9.85
-10.08
-10.61
-11.19
-11.77
-12.40
-13.09
-13.80
-14.45
-14.97
-15.32
-15.34
-14.72
-13.08
-10.07
-5.68
-0.35
5.11
9.73
12.78
14.01
13.67
12.36
10.67
9.01
7.43
5.78
3.78
1.31
-1.50
-4.32
-6.64
-8.03
-8.21
-7.13
-4.87
-1.53
2.84
8.13
14.14
20.41
26.27
30.94
33.76
34.30
32.55
28.77
23.42
16.94
9.64
1.58
-7.44
-17.74
-29.58
-42.93
-57.28
-71.59
-84.46
-94.42
-100.23
-101.02
-96.36
-86.28
-71.28
-52.53
-31.87
-11.66
5.57
17.82
24.01
24.24
19.55
11.50
1.68
-8.57
-18.20
-26.31
-32.13
-35.04
-34.74
-31.40
-25.61
-18.24
-10.25
-2.42
4.72
10.85
15.78
19.39
21.65
22.68
22.75
22.25
21.51
20.74
19.90
18.86
17.49
15.77
13.80
11.71
9.59
7.54
5.68
4.25
3.41
3.20
3.39
3.53
3.11
1.85
-0.13
-2.39
-4.28
-5.33
-5.40
-4.73
-3.83
-3.23
-3.21
-3.72
-4.36
-4.57
-3.84
-1.91
1.18
4.96
8.74
11.68
13.08
12.54
10.11
6.32
2.09
-1.58
-3.81
-4.06
-2.23
1.44
6.42
12.05
17.58
22.31
25.66
27.32
27.30
25.89
23.49
20.53
17.25
13.80
10.26
6.76
3.48
0.59
-1.83
-3.73
-5.10
-5.85
-5.87
-5.08
-3.59
-1.69
0.10
1.27
1.43
0.46
-1.52
-4.19
-7.22
-10.24
-13.03
-15.43
-17.41
-19.10
-20.77
-22.67
-24.91
-27.33
-29.52
-30.86
-30.74
-28.77
-25.00
-19.94
-14.50
-9.73
-6.56
-5.54
-6.69
-9.61
-13.65
-18.19
-22.75
-27.01
-30.77
-33.83
-36.00
-37.26
-37.84
-38.14
-38.57
-39.20
-39.72
-39.43
-37.70
-34.39
-30.04
-25.83
-23.11
-22.80
-25.09
-29.29
-34.24
-38.74
-41.91
-43.20
-42.16
-38.23
-30.81
-19.60
-5.08
11.39
27.82
42.37
54.04
62.96
69.98
75.87
80.68
83.58
83.43
79.61
72.67
64.29
56.65
51.55
49.75
50.81
53.37
55.84
56.92
55.98
53.05
48.48
42.74
36.11
28.74
20.76
12.42
4.22
-3.26
-9.58
-14.61
-18.58
-21.90
-24.95
-27.84
-30.41
-32.38
-33.56
-33.95
-33.80
-33.40
-32.99
-32.63
-32.18
-31.32
-29.65
-26.81
-22.59
-17.05
-10.58
-3.81
2.55
7.90
11.89
14.44
15.60
15.49
14.19
11.85
8.81
5.58
2.88
1.37
1.48
3.29
6.46
10.33
14.09
16.98
18.49
18.51
17.33
15.44
13.40
11.60
10.16
8.99
7.95
6.93
5.95
5.07
4.35
3.75
3.22
2.71
2.25
1.92
1.77
1.81
1.94
2.03
1.96
1.68
1.16
0.37
-0.73
-2.19
-3.94
-5.83
-7.59
-9.01
-9.95
-10.47
-10.74
-10.96
-11.20
-11.44
-11.62
-11.69
-11.64
-11.49
-11.22
-10.75
-9.99
-8.88
-7.43
-5.70
-3.74
-1.55
0.92
3.61
6.40
9.07
11.38
13.22
14.59
15.59
16.30
16.71
16.68
16.03
14.69
12.81
10.70
8.79
7.42
6.72
6.64
6.99
7.64
8.62
10.03
11.93
14.16
16.26
17.59
17.58
15.94
12.84
8.77
4.34
0.07
-3.76
-7.11
-10.03
-12.46
-14.24
-15.10
-14.82
-13.42
-11.08
-8.16
-5.00
-1.86
1.18
4.14
7.00
9.66
11.94
13.64
14.69
15.15
15.21
15.00
14.56
13.84
12.79
11.52
10.26
9.29
8.73
8.42
7.95
6.87
4.93
2.24
-0.77
-3.64
-5.98
-7.65
-8.68
-9.21
-9.40
-9.47
-9.65
-10.19
-11.21
-12.59
-14.05
-15.20
-15.81
-15.86
-15.59
-15.35
-15.47
-16.21
-17.76
-20.27
-23.84
-28.42
-33.75
-39.30
-44.42
-48.51
-51.21
-52.49
-52.55
-51.67
-50.01
-47.55
-44.12
-39.59
-33.92
-27.34
-20.26
-13.15
-6.33
0.09
6.24
12.33
18.47
24.47
29.87
34.00
36.24
36.29
34.30
30.85
26.71
22.68
19.34
17.14
16.49
17.85
21.61
27.81
35.86
44.38
51.54
55.54
55.27
50.73
42.94
33.52
24.03
15.48
8.22
2.02
-3.52
-8.73
-13.61
-17.87
-20.99
-22.36
-21.45
-17.95
-11.99
-4.11
4.70
13.21
20.20
24.73
26.30
24.96
21.30
16.24
10.92
6.42
3.53
2.67
3.71
6.16
9.29
12.43
15.10
17.12
18.55
19.58
20.40
21.12
21.74
22.18
22.30
21.96
21.09
19.72
17.94
15.88
13.64
11.22
8.51
5.41
1.89
-1.91
-5.71
-9.31
-12.67
-15.93
-19.27
-22.67
-25.81
-28.11
-29.02
-28.35
-26.34
-23.63
-20.89
-18.59
-16.80
-15.25
-13.48
-11.06
-7.70
-3.46
1.19
5.29
7.50
6.45
1.27
-7.98
-20.01
-32.58
-43.15
-49.74
-51.71
-49.96
-46.55
-43.89
-43.82
-46.74
-51.46
-55.44
-55.52
-48.74
-33.15
-8.45
23.75
59.99
95.62
125.91
147.24
157.93
158.47
150.89
137.80
121.54
103.66
85.08
66.52
48.83
33.01
19.82
9.37
1.05
-6.06
-12.61
-18.63
-23.46
-26.24
-26.45
-24.30
-20.65
-16.68
-13.34
-11.16
-10.28
-10.69
-12.57
-16.19
-21.68
-28.58
-35.68
-41.27
-43.81
-42.85
-39.50
-36.24
-35.95
-40.56
-50.02
-62.12
-73.41
-80.68
-82.39
-79.36
-74.53
-71.77
-74.47
-84.18
-99.88
-118.03
-133.46
-140.89
-136.70
-120.29
-94.30
-63.75
-34.29
-10.33
6.20
16.13
22.41
28.90
39.08
55.01
76.84
102.67
128.94
151.21
165.27
168.30
159.62
140.94
115.94
89.05
64.12
43.10
25.48
8.80
-9.90
-32.39
-57.93
-83.38
-104.54
-118.20
-123.77
-123.61
-121.94
-123.00
-129.32
-140.75
-154.62
-166.51
-171.38
-164.94
-145.23
-113.93
-76.60
-41.52
-16.88
-7.68
-13.34
-27.85
-42.33
-48.81
-43.51
-27.70
-5.93
17.28
39.80
61.93
84.53
106.49
123.99
131.90
126.69
108.97
84.09
60.08
44.32
40.51
47.40
59.99
72.07
78.98
79.25
74.68
68.69
64.49
63.80
66.49
71.35
77.10
83.61
92.00
103.75
118.93
135.29
148.86
155.50
152.88
141.26
123.30
103.00
84.33
69.51
58.71
50.73
43.97
37.48
30.60
22.74
13.39
2.33
-10.75
-26.08
-43.60
-63.39
-85.53
-110.93
-140.96
-176.50
-212.66
-241.26
-255.50
-254.91
-244.61
-228.99
-208.87
-182.00
-145.84
-100.50
-50.46
-3.63
35.19
63.03
80.40
89.37
92.01
89.58
82.86
72.54
60.10
48.02
36.66
28.15
23.27
21.04
19.91
19.15
19.24
21.51
27.17
35.85
46.18
55.65
61.97
64.32
63.66
62.02
61.19
61.63
61.92
60.09
54.23
43.78
29.94
15.22
2.25
-7.20
-12.80
-15.64
-17.52
-20.65
-26.83
-36.74
-49.42
-62.24
-71.53
-73.74
-67.02
-51.86
-31.31
-9.84
8.27
20.07
24.27
20.90
10.81
-4.34
-21.68
-37.11
-45.93
-44.50
-31.85
-10.44
14.73
38.01
55.13
64.56
67.32
65.77
62.18
57.77
52.77
47.07
40.87
34.83
29.78
26.34
24.52
23.77
23.27
22.21
20.09
16.76
12.45
7.64
2.84
-1.73
-6.25
-11.22
-17.06
-23.59
-29.83
-34.36
-35.95
-34.38
-30.71
-26.92
-25.02
-26.13
-30.09
-35.76
-41.72
-46.97
-51.18
-54.38
-56.49
-57.10
-55.55
-51.27
-44.18
-34.84
-24.33
-13.89
-4.61
2.88
8.33
11.86
13.75
14.41
14.32
14.02
13.95
14.36
15.15
15.93
16.19
15.63
14.33
12.77
11.55
11.04
11.15
11.44
11.41
10.86
10.00
9.33
9.28
9.94
11.02
12.08
12.79
13.16
13.54
14.34
15.80
17.89
20.31
22.71
24.91
26.88
28.71
30.46
32.01
32.95
32.68
30.47
25.73
18.10
7.71
-4.84
-18.42
-31.63
-43.08
-51.78
-57.42
-60.35
-61.35
-61.26
-60.56
-59.26
-57.06
-53.56
-48.62
-42.37
-35.25
-27.72
-20.18
-12.90
-6.08
0.08
5.34
9.50
12.49
14.39
15.44
15.94
16.12
16.14
16.05
15.88
15.68
15.51
15.45
15.52
15.71
15.91
16.02
15.87
15.25
13.96
11.85
8.92
5.34
1.49
-2.27
-5.65
-8.63
-11.43
-14.28
-17.29
-20.22
-22.61
-23.96
-23.98
-22.79
-20.78
-18.47
-16.17
-13.88
-11.38
-8.43
-5.07
-1.71
1.03
2.58
2.66
1.45
-0.55
-2.70
-4.45
-5.42
-5.48
-4.65
-3.03
-0.75
2.04
5.16
8.44
11.71
14.89
17.94
20.93
23.88
26.71
29.23
31.15
32.24
32.48
32.10
31.50
31.03
30.84
30.75
30.39
29.42
27.63
25.12
22.17
19.13
16.27
13.67
11.33
9.22
7.33
5.70
4.34
3.17
1.95
0.40
-1.70
-4.35
-7.30
-10.11
-12.43
-14.14
-15.47
-16.84
-18.64
-21.04
-23.84
-26.58
-28.73
-29.85
-29.79
-28.72
-26.99
-24.96
-22.81
-20.40
-17.32
-13.05
-7.22
0.14
8.53
17.08
24.80
30.81
34.59
36.02
35.42
33.50
31.12
29.14
28.08
27.93
28.08
27.42
24.68
18.90
9.98
-1.04
-12.18
-21.10
-26.00
-26.36
-23.17
-18.55
-14.86
-13.72
-15.44
-19.02
-22.78
-25.13
-25.22
-23.07
-19.37
-15.02
-10.81
-7.18
-4.24
-1.90
-0.00
1.54
2.62
2.94
1.99
-0.83
-6.08
-14.06
-24.63
-37.21
-50.81
-64.20
-76.16
-85.63
-91.79
-94.11
-92.32
-86.54
-77.32
-65.65
-52.94
-40.69
-30.24
-22.44
-17.51
-15.03
-14.16
-13.90
-13.29
-11.71
-8.88
-4.87
-0.06
4.98
9.67
13.55
16.40
18.29
19.49
20.46
21.66
23.56
26.46
30.48
35.51
41.11
46.57
51.03
53.76
54.42
53.18
50.67
47.60
44.50
41.36
37.71
32.83
26.08
17.25
6.69
-4.68
-15.68
-25.15
-32.34
-37.05
-39.63
-40.82
-41.51
-42.58
-44.84
-48.89
-54.93
-62.44
-69.98
-75.31
-76.10
-70.84
-59.63
-44.23
-27.46
-12.00
0.65
10.44
18.30
25.25
31.57
36.69
39.59
39.52
36.57
31.71
26.30
21.52
17.84
15.02
12.43
9.57
6.46
3.74
2.30
2.79
5.26
9.05
13.12
16.50
18.72
19.92
20.66
21.54
22.84
24.36
25.50
25.53
23.90
20.42
15.34
9.31
3.21
-2.10
-6.04
-8.48
-9.79
-10.63
-11.64
-13.08
-14.73
-16.03
-16.33
-15.31
-13.18
-10.60
-8.36
-7.07
-6.88
-7.42
-7.93
-7.49
-5.18
-0.35
7.21
16.93
27.19
35.49
38.91
35.22
23.99
7.16
-11.16
-25.98
-33.20
-31.16
-21.21
-7.10
6.53
15.69
18.02
12.97
1.16
-16.21
-37.62
-61.08
-83.90
-102.73
-114.28
-116.39
-108.79
-93.24
-72.69
-50.08
-27.26
-4.67
18.15
41.58
65.10
87.15
105.69
118.97
126.17
127.30
122.89
113.51
99.74
82.43
63.12
44.11
28.08
17.19
12.29
12.58
16.01
20.21
23.49
25.50
27.16
30.11
35.72
44.30
54.77
64.87
71.90
73.61
68.89
58.00
42.38
24.13
5.46
-11.92
-27.13
-40.17
-51.78
-63.10
-75.21
-88.62
-102.95
-116.94
-128.86
-137.15
-140.98
-140.27
-135.56
-127.65
-117.26
-104.95
-91.10
-76.22
-60.99
-46.09
-31.79
-17.94
-4.11
9.96
24.04
37.69
50.14
60.68
69.02
75.67
81.68
88.20
95.85
104.52
114.07
123.72
132.10
137.62
139.21
136.62
130.47
121.96
112.57
104.92
100.97
101.23
104.68
109.57
114.01
116.34
115.45
110.96
104.72
98.69
93.79
89.66
85.42
80.15
73.04
63.36
41.76
4.81
-43.09
-91.34
-129.57
-152.11
-158.48
-151.76
-136.91
-119.29
-101.87
-85.59
-70.99
-58.91
-49.79
-43.68
-40.29
-39.17
-39.66
-39.83
-38.10
-33.99
-29.33
-25.47
-23.24
-22.84
-23.92
-25.79
-27.03
-26.67
-24.76
-22.26
-20.17
-19.18
-19.47
-20.68
-22.13
-22.69
-21.58
-18.66
-14.51
-9.89
-5.65
-2.42
-0.49
0.27
0.45
0.74
1.65
3.37
5.84
8.67
11.34
13.28
14.01
13.29
11.11
7.65
3.27
-1.56
-6.37
-10.78
-14.54
-17.58
-20.03
-22.13
-24.19
-26.42
-28.79
-31.05
-32.78
-33.44
-32.60
-30.00
-25.73
-20.16
-13.95
-7.88
-2.65
1.29
3.81
5.12
5.56
5.52
5.29
5.03
4.80
4.66
4.66
4.81
5.07
5.31
5.41
5.28
4.93
4.43
3.88
3.31
2.63
1.67
0.22
-1.82
-4.40
-7.28
-10.09
-12.47
-14.13
-15.00
-15.19
-14.92
-14.46
-14.02
-13.70
-13.50
-13.36
-13.25
-13.17
-13.20
-13.39
-13.74
-14.14
-14.38
-14.21
-13.44
-12.04
-10.16
-8.16
-6.47
-5.42
-5.16
-5.56
-6.25
-6.74
-6.59
-5.53
-3.58
-0.96
1.96
4.83
7.38
9.51
11.25
12.64
13.72
14.51
15.02
15.32
15.54
15.81
16.19
16.57
16.73
16.44
15.53
14.07
12.32
10.63
9.33
8.57
8.31
8.33
8.36
8.17
7.67
6.92
6.04
5.21
4.51
3.92
3.40
2.88
2.39
1.96
1.66
1.47
1.28
0.92
0.30
-0.57
-1.53
-2.40
-3.05
-3.47
-3.71
-3.83
-3.83
-3.65
-3.26
-2.76
-2.31
-2.11
-2.23
-2.53
-2.70
-2.41
-1.50
-0.06
1.55
2.93
3.81
4.13
4.06
3.89
3.83
3.97
4.24
4.51
4.72
4.85
4.97
5.13
5.35
5.61
5.84
6.01
6.05
5.92
5.57
4.96
4.07
2.95
1.67
0.31
-1.06
-2.37
-3.54
-4.47
-5.09
-5.33
-5.25
-4.93
-4.46
-3.88
-3.15
-2.21
-1.04
0.25
1.46
2.38
2.95
3.27
3.57
4.04
4.70
5.36
5.71
5.53
4.86
3.95
3.19
2.82
2.84
3.00
3.00
2.63
1.86
0.85
-0.20
-1.13
-1.85
-2.33
-2.47
-2.19
-1.45
-0.30
1.05
2.30
3.15
3.40
2.99
2.00
0.59
-1.02
-2.59
-3.91
-4.77
-4.95
-4.32
-2.85
-0.65
2.01
4.78
7.25
9.09
10.12
10.35
9.93
9.07
8.01
6.94
6.00
5.26
4.80
4.68
4.90
5.42
6.05
6.61
6.90
6.81
6.33
5.59
4.75
3.99
3.42
3.10
3.02
3.08
3.15
3.06
2.70
2.02
1.03
-0.15
-1.39
-2.58
-3.65
-4.53
-5.20
-5.66
-5.96
-6.17
-6.41
-6.76
-7.21
-7.69
-8.07
-8.22
-8.09
-7.76
-7.36
-7.04
-6.94
-7.15
-7.70
-8.55
-9.59
-10.58
-11.30
-11.54
-11.23
-10.50
-9.58
-8.74
-8.11
-7.69
-7.33
-6.88
-6.27
-5.56
-4.89
-4.36
-4.00
-3.74
-3.44
-3.04
-2.56
-2.10
-1.76
-1.56
-1.38
-0.98
-0.13
1.34
3.34
5.62
7.79
9.54
10.68
11.20
11.24
10.92
10.35
9.57
8.61
7.52
6.37
5.23
4.14
3.12
2.13
1.20
0.35
-0.35
-0.83
-1.04
-0.97
-0.67
-0.23
0.25
0.67
0.96
1.14
1.24
1.33
1.47
1.68
1.98
2.35
2.74
3.09
3.28
3.23
2.86
2.21
1.38
0.51
-0.24
-0.78
-1.06
-1.09
-0.94
-0.69
-0.43
-0.28
-0.29
-0.46
-0.75
-1.04
-1.25
-1.31
-1.24
-1.08
-0.91
-0.78
-0.73
-0.76
-0.85
-0.96
-1.04
-1.00
-0.82
-0.51
-0.14
0.18
0.35
0.29
0.02
-0.38
-0.79
-1.10
-1.24
-1.21
-1.07
-0.92
-0.82
-0.78
-0.78
-0.80
-0.83
-0.89
-1.02
-1.25
-1.58
-1.96
-2.29
-2.52
-2.59
-2.48
-2.20
-1.79
-1.35
-0.96
-0.74
-0.73
-0.89
-1.14
-1.34
-1.37
-1.23
-0.95
-0.61
-0.30
-0.08
0.04
0.03
-0.15
-0.50
-0.97
-1.43
-1.71
-1.66
-1.26
-0.60
0.12
0.68
0.92
0.81
0.45
-0.02
-0.47
-0.82
-1.08
-1.29
-1.47
-1.60
-1.66
-1.60
-1.48
-1.33
-1.20
-1.07
-0.88
-0.55
-0.03
0.64
1.34
1.92
2.29
2.42
2.37
2.26
2.17
2.18
2.31
2.54
2.78
2.97
3.06
3.04
2.96
2.86
2.76
2.64
2.45
2.14
1.70
1.21
0.71
0.29
-0.03
-0.27
-0.49
-0.75
-1.08
-1.52
-2.07
-2.68
-3.27
-3.72
-3.91
-3.77
-3.33
-2.69
-2.00
-1.35
-0.74
-0.07
0.83
2.10
3.76
5.65
7.50
8.99
9.87
10.03
9.51
8.43
6.97
5.27
3.46
1.64
-0.03
-1.39
-2.28
-2.59
-2.39
-1.89
-1.41
-1.20
-1.42
-2.04
-2.86
-3.64
-4.16
-4.34
-4.26
-4.07
-3.94
-3.99
-4.20
-4.44
-4.60
-4.57
-4.35
-3.94
-3.42
-2.83
-2.23
-1.67
-1.24
-1.01
-1.02
-1.20
-1.43
-1.54
-1.42
-0.99
-0.28
0.62
1.56
2.39
2.97
3.22
3.17
2.89
2.53
2.26
2.16
2.27
2.53
2.83
3.03
3.04
2.84
2.47
2.00
1.57
1.25
1.09
1.06
1.07
1.05
0.94
0.72
0.42
0.10
-0.17
-0.33
-0.35
-0.21
0.07
0.45
0.88
1.29
1.64
1.90
2.04
2.05
1.96
1.80
1.63
1.49
1.45
1.51
1.65
1.84
2.02
2.16
2.20
2.15
2.00
1.78
1.49
1.15
0.77
0.38
0.04
-0.21
-0.36
-0.43
-0.48
-0.59
-0.83
-1.21
-1.70
-2.20
-2.58
-2.76
-2.76
-2.63
-2.47
-2.36
-2.32
-2.30
-2.26
-2.15
-2.00
-1.86
-1.77
-1.74
-1.72
-1.64
-1.46
-1.20
-0.90
-0.64
-0.47
-0.38
-0.32
-0.26
-0.20
-0.19
-0.31
-0.52
-0.76
-0.89
-0.82
-0.56
-0.22
0.06
0.17
0.15
0.10
0.13
0.25
0.41
0.48
0.39
0.22
0.10
0.18
0.51
1.01
1.53
1.91
2.06
1.97
1.77
1.55
1.43
1.44
1.56
1.70
1.82
1.89
1.91
1.94
2.00
2.08
2.11
2.03
1.81
1.52
1.25
1.10
1.10
1.13
1.08
0.83
0.38
-0.13
-0.56
-0.82
-0.92
-1.01
-1.28
-1.79
-2.49
-3.17
-3.60
-3.67
-3.38
-2.88
-2.28
-1.68
-1.10
-0.57
-0.13
0.16
0.23
0.12
-0.05
-0.10
0.07
0.42
0.79
0.99
0.93
0.65
0.30
0.02
-0.12
-0.18
-0.27
-0.48
-0.81
-1.17
-1.47
-1.63
-1.65
-1.56
-1.42
-1.28
-1.15
-1.06
-1.07
-1.27
-1.68
-2.19
-2.61
-2.68
-2.30
-1.52
-0.57
0.28
0.83
1.01
0.90
0.67
0.45
0.29
0.16
-0.09
-0.54
-1.26
-2.28
-3.45
-4.52
-5.20
-5.32
-4.91
-4.27
-3.72
-3.60
-4.14
-5.03
-5.69
-5.54
-4.38
-2.50
-0.73
0.41
0.55
-0.48
-1.91
-2.62
-1.56
1.61
6.47
11.70
16.64
20.74
23.60
26.09
29.52
35.07
42.94
52.39
61.39
69.09
74.82
77.89
79.35
81.03
85.20
93.79
108.29
129.10
157.86
194.95
230.73
252.78
250.84
223.25
176.25
124.73
71.57
18.66
-32.67
-82.44
-127.94
-166.19
-195.01
-213.89
-223.91
-227.98
-227.65
-223.97
-217.67
-207.77
-193.05
-173.00
-148.75
-123.04
-99.80
-81.07
-67.52
-58.73
-52.84
-47.82
-42.13
-35.34
-28.18
-22.35
-18.75
-17.63
-18.51
-19.71
-19.18
-15.19
-7.22
3.79
15.71
26.73
35.82
42.93
48.80
54.13
59.09
63.12
65.40
65.34
63.23
59.93
56.34
52.88
49.20
44.54
38.16
29.87
20.17
10.02
0.34
-8.36
-16.08
-23.10
-29.58
-35.31
-39.77
-42.37
-42.76
-40.96
-37.17
-31.67
-24.67
-16.46
-7.58
1.14
8.74
14.52
18.24
20.19
20.88
20.70
19.75
17.84
14.83
10.82
6.26
1.80
-1.88
-4.22
-4.86
-3.73
-1.02
2.84
7.30
11.74
15.59
18.31
19.36
18.32
14.98
9.51
2.42
-5.60
-14.11
-23.06
-32.58
-42.51
-51.86
-58.79
-61.22
-57.80
-48.84
-36.42
-23.67
-13.51
-7.47
-5.28
-5.32
-5.73
-5.37
-4.19
-2.90
-2.18
-2.01
-1.61
0.06
3.57
8.72
14.79
21.32
28.66
37.88
49.94
64.63
80.08
93.33
101.68
103.94
100.95
94.73
87.11
78.52
67.82
53.18
33.51
9.42
-16.65
-41.31
-61.44
-75.09
-81.85
-82.51
-78.48
-71.21
-61.89
-51.52
-41.05
-31.47
-23.76
-18.55
-15.73
-14.36
-12.84
-9.61
-3.88
3.94
12.32
19.28
23.28
23.86
21.73
18.34
15.13
12.94
11.81
11.10
9.85
7.07
2.10
-5.18
-13.97
-22.41
-27.88
-27.86
-21.17
-9.00
4.98
15.67
18.37
10.64
-6.77
-30.24
-54.57
-74.72
-87.15
-90.40
-84.94
-72.58
-55.84
-37.38
-19.59
-4.29
7.39
15.00
18.74
19.14
16.92
12.82
7.59
2.04
-2.91
-6.24
-7.13
-5.09
-0.26
6.59
14.21
21.12
25.95
27.69
25.91
20.91
13.89
6.87
2.50
3.42
11.22
25.68
44.32
62.72
75.83
79.76
73.47
59.28
41.80
25.80
14.25
7.28
2.89
-1.45
-7.00
-12.98
-17.23
-17.54
-12.97
-3.99
8.03
21.47
34.50
44.76
49.17
44.58
29.30
4.54
-25.03
-52.59
-71.49
-77.85
-72.10
-58.64
-44.04
-34.25
-32.56
-38.69
-49.50
-60.43
-67.45
-68.50
-63.64
-54.57
-43.44
-32.26
-22.75
-16.27
-13.23
-12.12
-9.06
1.35
23.45
57.45
97.47
132.71
151.57
146.87
119.29
77.19
33.02
-1.57
-19.47
-19.32
-4.60
18.50
42.73
61.33
69.20
64.23
47.74
24.20
-0.38
-20.72
-33.78
-39.11
-37.92
-31.73
-21.76
-9.43
2.93
12.05
14.72
9.55
-1.93
-15.40
-25.53
-28.26
-22.43
-9.92
5.63
20.53
32.45
40.79
46.22
49.92
52.76
54.97
56.20
55.79
53.22
48.42
41.96
34.96
28.72
24.15
21.54
20.46
20.02
19.30
17.74
15.30
12.34
9.38
6.79
4.66
2.71
0.44
-2.74
-7.39
-13.86
-22.32
-32.58
-44.09
-55.85
-66.60
-75.12
-80.69
-83.39
-84.02
-83.76
-83.58
-83.86
-84.30
-84.40
-83.90
-83.06
-82.41
-82.12
-81.52
-79.00
-72.76
-61.78
-46.59
-29.27
-12.73
0.54
9.47
14.60
17.54
19.88
22.32
24.53
25.66
25.23
23.76
22.62
23.40
26.89
32.58
38.74
43.17
44.18
41.16
34.61
25.69
15.73
5.82
-3.12
-10.31
-15.10
-17.27
-17.18
-15.82
-14.26
-13.07
-11.85
-9.46
-4.80
2.26
10.40
17.19
20.11
17.70
10.29
-0.11
-10.66
-18.81
-23.16
-23.59
-20.96
-16.43
-10.97
-5.08
1.01
7.09
12.67
17.03
19.47
19.73
18.26
16.19
14.92
15.47
17.93
21.41
24.47
25.80
24.90
22.36
19.46
17.55
17.26
18.14
18.83
17.58
13.08
5.23
-4.68
-14.19
-20.63
-22.14
-18.72
-12.38
-6.58
-4.85
-9.26
-19.58
-33.49
-47.64
-59.05
-66.08
-68.52
-67.07
-62.62
-55.86
-47.38
-37.98
-28.81
-21.24
-16.39
-14.69
-15.76
-18.53
-21.68
-24.01
-24.78
-23.85
-21.62
-18.73
-15.68
-12.63
-9.35
-5.54
-1.18
3.39
7.86
12.36
17.81
25.66
37.07
52.05
68.96
84.73
95.72
98.80
92.17
75.72
51.08
21.37
-9.24
-36.20
-55.45
-64.37
-62.39
-51.00
-33.17
-12.35
8.42
26.94
41.87
52.52
58.58
60.14
57.78
52.60
46.09
39.78
34.92
32.26
32.03
34.10
38.14
43.64
49.84
55.62
59.56
60.20
56.45
47.87
34.77
17.88
-2.02
-24.36
-48.65
-74.12
-99.28
-121.64
-137.95
-144.83
-139.62
-121.38
-91.43
-53.43
-12.85
24.21
52.43
68.48
71.75
64.13
49.12
30.68
12.09
-4.47
-18.02
-28.30
-35.50
-39.99
-42.22
-42.65
-41.73
-39.86
-37.35
-34.46
-31.52
-28.86
-26.70
-24.80
-22.22
-17.44
-8.93
3.87
19.78
35.78
47.79
52.26
47.60
35.01
18.02
1.16
-11.64
-18.40
-19.36
-16.18
-10.76
-4.51
1.73
7.29
11.34
13.12
12.04
8.09
2.14
-4.15
-9.04
-11.55
-12.04
-11.87
-12.35
-14.37
-18.11
-22.90
-27.34
-29.94
-29.73
-26.65
-21.29
-13.77
-4.06
7.88
22.11
38.77
57.95
79.49
100.99
118.29
129.09
134.31
136.31
136.29
133.46
126.09
113.09
97.08
79.21
62.19
48.74
40.23
36.45
36.19
38.08
40.96
44.30
47.20
49.05
48.94
45.77
38.88
28.60
16.21
3.32
-9.01
-20.71
-31.87
-42.65
-52.85
-61.64
-67.66
-69.58
-66.86
-60.13
-51.12
-41.61
-33.11
-26.52
-22.11
-19.68
-18.80
-19.09
-20.33
-22.58
-26.01
-30.97
-38.00
-47.63
-60.12
-75.25
-92.29
-110.05
-126.99
-141.48
-152.10
-158.01
-159.14
-156.14
-149.98
-141.58
-131.38
-119.46
-105.82
-90.73
-74.93
-59.26
-44.22
-29.52
-14.24
2.58
21.02
39.85
56.69
68.91
74.83
74.50
69.76
63.48
58.32
55.69
55.36
55.87
55.43
52.83
47.87
41.29
34.22
27.79
22.92
20.33
20.64
24.20
30.89
39.80
49.33
57.55
62.91
64.67
63.16
59.38
54.50
49.41
44.51
39.85
35.24
30.45
25.26
19.53
13.26
6.58
-0.27
-7.21
-14.56
-23.04
-33.42
-45.90
-59.55
-72.29
-81.55
-85.40
-83.60
-77.86
-71.12
-66.09
-63.98
-63.92
-63.59
-60.43
-52.97
-41.30
-26.77
-11.07
4.57
19.64
33.97
47.19
58.42
66.49
70.48
70.26
66.64
60.97
54.65
48.60
43.15
38.22
33.62
29.25
25.11
21.16
17.27
13.27
9.30
5.94
4.13
4.66
7.55
11.75
15.36
16.34
13.47
7.02
-1.39
-9.38
-14.81
-16.47
-14.28
-8.92
-1.36
7.48
16.90
26.29
35.06
42.58
48.19
51.25
51.29
48.17
42.18
34.11
25.04
16.10
8.05
1.12
-4.92
-10.62
-16.54
-23.17
-30.75
-39.07
-47.43
-54.64
-59.43
-61.08
-59.98
-57.68
-56.28
-57.43
-61.38
-66.69
-70.86
-71.38
-66.81
-57.27
-44.09
-29.10
-13.93
0.38
13.36
24.76
34.32
41.58
46.00
47.21
45.27
40.62
33.97
25.93
16.81
6.68
-4.29
-15.49
-25.67
-33.23
-36.71
-35.40
-29.50
-19.93
-7.79
6.09
21.11
36.63
51.58
64.42
73.65
78.49
79.26
77.44
74.93
73.25
72.93
73.39
73.49
72.20
69.09
64.44
59.00
53.52
48.47
43.84
39.30
34.32
28.40
21.19
12.60
2.76
-7.97
-19.00
-29.53
-38.72
-46.05
-51.50
-55.65
-59.29
-62.87
-66.21
-68.41
-68.37
-65.37
-59.62
-52.30
-45.09
-39.56
-36.61
-36.36
-38.24
-41.29
-44.39
-46.40
-46.25
-43.20
-37.07
-28.28
-17.76
-6.60
4.24
14.10
22.64
29.63
34.74
37.42
37.07
33.28
26.20
16.74
6.49
-2.63
-9.05
-12.09
-12.26
-10.86
-9.21
-7.75
-5.70
-1.48
6.24
17.38
30.11
41.34
48.00
48.38
42.77
33.17
22.37
12.70
5.35
0.30
-3.17
-5.87
-8.27
-10.39
-12.07
-13.28
-14.31
-15.65
-17.67
-20.26
-22.74
-24.02
-23.19
-19.97
-14.93
-9.29
-4.39
-1.15
0.17
-0.15
-1.68
-4.18
-7.69
-12.29
-17.81
-23.71
-29.26
-34.01
-38.17
-42.63
-48.51
-56.54
-66.42
-76.66
-85.06
-89.52
-88.73
-82.39
-70.91
-54.88
-34.75
-10.77
16.49
45.60
73.95
98.17
115.10
122.83
121.31
112.23
98.39
82.58
67.01
53.01
41.29
32.34
26.58
24.18
24.70
26.94
29.11
29.45
26.99
22.03
16.02
10.90
8.31
8.81
11.52
14.48
15.34
12.34
4.95
-5.96
-18.43
-30.20
-39.41
-45.19
-47.56
-47.00
-44.00
-38.65
-30.72
-19.88
-6.01
10.68
29.65
50.08
70.84
90.39
106.89
118.55
124.18
123.61
117.73
107.99
95.80
82.05
67.07
50.90
33.73
16.06
-1.42
-18.00
-33.20
-46.87
-58.96
-69.50
-78.38
-85.32
-89.94
-91.97
-91.41
-88.76
-84.79
-80.31
-75.70
-70.92
-65.69
-60.05
-54.81
-51.28
-50.49
-52.21
-54.71
-55.08
-50.62
-40.09
-24.30
-5.61
13.35
30.78
46.34
60.87
75.69
91.66
108.74
126.05
142.33
156.47
167.55
174.67
176.67
172.04
159.36
138.04
108.97
74.73
39.18
6.41
-20.39
-39.56
-51.05
-56.05
-56.25
-53.35
-48.96
-44.49
-41.07
-39.63
-40.73
-44.66
-51.36
-60.55
-71.73
-84.39
-97.97
-111.92
-125.52
-137.80
-147.54
-153.42
-154.47
-150.37
-141.64
-129.46
-115.16
-99.81
-83.99
-67.86
-51.47
-35.00
-18.97
-4.16
8.70
19.13
27.09
33.01
37.56
41.25
44.15
45.64
44.54
39.49
29.31
13.45
-7.66
-32.38
-57.86
-80.34
-95.93
-101.63
-96.46
-82.04
-62.16
-41.53
-23.94
-10.96
-1.70
6.27
15.32
26.61
39.69
53.20
65.89
77.32
87.79
97.74
106.89
113.96
117.26
115.57
109.04
99.28
88.72
79.54
72.79
68.09
64.05
59.13
52.45
44.21
35.51
27.74
21.93
18.32
16.42
15.26
13.88
11.70
8.56
4.63
0.19
-4.50
-9.19
-13.54
-17.10
-19.30
-19.53
-17.40
-12.86
-6.33
1.41
9.42
16.83
22.99
27.76
31.60
35.32
39.54
44.23
48.69
51.77
52.62
50.97
47.51
43.70
41.03
40.22
40.80
41.39
40.28
36.11
28.07
16.06
0.75
-16.77
-35.39
-54.14
-72.15
-88.26
-99.67
-103.88
-100.65
-91.92
-80.43
-68.71
-58.49
-50.53
-44.75
-40.46
-36.78
-33.08
-28.84
-23.43
-16.54
-8.21
0.96
9.86
17.67
24.25
30.20
36.92
45.81
57.09
69.30
79.66
84.88
80.57
66.25
43.60
15.81
-13.03
-39.19
-59.90
-72.65
-76.16
-70.82
-58.57
-42.68
-26.54
-12.62
-2.12
4.91
9.12
11.22
11.91
11.76
11.52
11.19
10.56
9.42
8.00
6.96
7.10
8.93
12.39
16.57
20.06
21.69
21.08
18.82
16.12
14.21
13.96
15.86
20.00
25.80
31.65
34.51
30.39
15.92
-9.75
-43.67
-79.35
-109.03
-126.62
-129.96
-121.19
-105.15
-86.93
-69.98
-55.54
-43.43
-33.16
-24.68
-18.37
-14.61
-13.19
-13.18
-13.33
-12.68
-11.00
-8.78
-6.97
-6.39
-7.32
-8.83
-8.84
-5.08
3.66
16.62
31.03
42.95
48.76
46.43
37.14
25.02
15.23
11.47
14.34
21.25
27.81
29.93
25.06
13.95
0.09
-12.04
-19.17
-20.07
-15.54
-7.75
3.82
16.48
25.20
25.84
18.10
5.17
-8.65
-19.93
-27.03
-30.05
-30.54
-29.68
-27.62
-23.90
-18.45
-12.11
-6.48
-3.19
-3.19
-6.57
-11.87
-16.65
-18.65
-16.96
-12.48
-7.43
-4.27
-4.69
-9.10
-16.06
-22.84
-26.74
-26.54
-22.83
-17.83
-14.10
-13.46
-16.45
-22.41
-29.97
-37.56
-43.20
-44.19
-37.41
-20.71
5.06
35.05
61.70
77.87
80.37
71.56
58.23
47.98
45.63
51.46
62.30
74.32
85.54
96.14
106.98
117.78
124.88
123.43
109.59
82.58
45.82
5.99
-29.05
-52.85
-62.19
-57.70
-43.85
-27.10
-14.00
-9.25
-14.56
-28.48
-47.12
-65.63
-79.88
-87.44
-88.08
-83.27
-75.13
-65.53
-55.15
-44.00
-31.83
-18.70
-5.12
7.94
19.48
28.95
36.50
42.75
48.41
54.11
60.05
65.95
70.72
72.35
68.22
56.22
35.94
9.50
-18.71
-43.62
-61.30
-70.60
-72.75
-70.35
-65.72
-59.81
-52.28
-42.61
-31.18
-19.53
-9.75
-3.35
-0.35
0.51
1.08
2.81
5.95
9.68
12.76
14.40
14.61
14.15
13.74
13.65
13.49
12.60
10.68
8.18
6.19
5.80
7.61
11.35
16.12
20.89
24.80
27.29
28.06
27.12
24.82
22.10
20.12
19.65
20.52
21.33
20.08
15.27
6.93
-3.22
-12.47
-18.57
-20.80
-20.20
-18.73
-17.98
-18.30
-18.77
-18.01
-15.02
-9.87
-3.50
2.86
8.29
12.45
15.50
17.65
18.57
17.80
15.07
10.64
5.25
-0.24
-5.29
-9.87
-14.22
-18.52
-22.39
-25.00
-25.39
-22.95
-17.84
-11.10
-4.50
-0.18
-0.00
-5.08
-15.30
-29.32
-44.75
-58.74
-68.60
-72.36
-69.17
-59.16
-43.35
-23.32
-0.95
21.84
43.27
61.91
76.59
86.33
90.37
88.29
80.26
67.21
50.76
32.83
15.18
-0.78
-14.25
-24.85
-32.57
-37.73
-40.94
-42.92
-44.27
-45.23
-45.67
-45.51
-45.17
-45.74
-48.65
-54.66
-63.04
-71.47
-77.02
-77.37
-71.94
-61.79
-48.74
-34.21
-18.64
-1.88
15.76
32.66
46.07
53.31
53.25
47.09
37.94
29.30
23.32
19.85
16.92
12.46
5.94
-1.10
-5.96
-6.59
-2.94
3.12
9.12
13.89
18.16
23.79
31.99
42.03
51.47
57.72
59.90
59.29
58.41
58.98
60.57
60.86
57.31
49.18
38.15
27.78
21.77
22.42
29.75
41.64
54.40
63.52
64.88
55.97
37.34
13.11
-9.83
-24.33
-26.20
-16.27
-0.27
13.80
19.17
13.13
-2.35
-22.17
-40.71
-54.13
-61.18
-62.74
-60.68
-56.98
-53.42
-51.71
-53.52
-60.17
-72.13
-88.32
-106.04
-121.51
-130.97
-131.75
-123.20
-106.83
-85.79
-63.74
-43.72
-27.41
-14.88
-4.95
4.07
13.60
24.16
35.13
45.09
52.41
55.87
55.16
50.81
44.00
36.14
28.56
22.37
18.35
16.88
17.85
20.74
24.76
29.19
33.58
37.88
42.25
46.82
51.56
56.18
60.37
63.86
66.61
68.63
69.90
70.35
69.88
68.50
66.34
63.63
60.48
56.85
52.56
47.37
41.16
34.02
26.23
18.26
10.68
3.97
-1.68
-6.45
-10.93
-15.87
-21.82
-28.76
-35.95
-42.08
-45.76
-46.00
-42.63
-36.38
-28.63
-20.97
-14.81
-11.05
-10.02
-11.45
-14.65
-18.68
-22.65
-25.95
-28.28
-29.69
-30.48
-30.95
-31.32
-31.61
-31.77
-31.79
-31.75
-31.78
-31.87
-31.74
-30.86
-28.73
-25.09
-20.20
-14.74
-9.46
-4.78
-0.56
3.74
8.71
14.46
20.55
26.11
30.18
32.20
32.20
30.77
28.83
27.33
26.94
27.92
29.97
32.22
33.31
31.77
26.52
17.31
4.97
-8.93
-22.62
-34.75
-44.68
-52.36
-57.79
-60.61
-59.95
-54.79
-44.65
-30.17
-13.22
3.51
17.37
26.48
30.27
29.40
25.39
20.10
15.18
11.91
11.05
12.77
16.72
22.04
27.58
32.19
35.02
35.71
34.32
31.13
26.41
20.42
13.50
6.26
-0.48
-5.89
-9.54
-11.52
-12.41
-12.84
-13.15
-13.19
-12.36
-10.06
-6.00
-0.46
5.86
12.12
17.80
22.86
27.67
32.68
37.95
42.90
46.32
46.85
43.59
36.56
26.73
15.71
5.10
-3.98
-11.08
-16.41
-20.58
-24.35
-28.43
-33.26
-39.03
-45.57
-52.50
-59.32
-65.56
-70.78
-74.53
-76.24
-75.30
-71.39
-64.78
-56.59
-48.59
-42.45
-39.08
-38.07
-37.85
-36.50
-32.68
-26.24
-18.28
-10.43
-4.00
0.65
4.02
6.97
10.06
13.26
16.05
17.88
18.59
18.54
18.33
18.48
19.15
20.15
21.08
21.67
21.81
21.63
21.31
20.96
20.53
19.79
18.48
16.38
13.48
9.98
6.32
2.97
0.38
-1.21
-1.81
-1.64
-0.98
-0.13
0.78
1.66
2.48
3.14
3.58
3.74
3.66
3.52
3.55
3.86
4.38
4.83
4.80
4.00
2.36
0.12
-2.20
-4.11
-5.26
-5.63
-5.45
-5.06
-4.74
-4.58
-4.51
-4.37
-4.02
-3.40
-2.59
-1.74
-1.06
-0.72
-0.84
-1.46
-2.45
-3.55
-4.43
-4.78
-4.45
-3.54
-2.31
-1.11
-0.24
0.12
0.00
-0.43
-0.95
-1.34
-1.41
-1.05
-0.26
0.87
2.14
3.36
4.38
5.17
5.77
6.25
6.63
6.87
6.87
6.62
6.15
5.64
5.27
5.18
5.31
5.47
5.40
4.89
3.91
2.56
1.06
-0.33
-1.40
-1.97
-1.94
-1.21
0.23
2.30
4.78
7.33
9.57
11.24
12.21
12.58
12.59
12.53
12.61
12.91
13.41
13.96
14.37
14.45
14.08
13.24
12.02
10.57
9.13
7.90
6.98
6.35
5.90
5.46
4.91
4.21
3.38
2.52
1.67
0.85
0.01
-0.95
-2.12
-3.52
-5.12
-6.84
-8.48
-9.81
-10.61
-10.74
-10.19
-9.08
-7.62
-6.05
-4.53
-3.11
-1.74
-0.36
1.03
2.34
3.45
4.29
4.89
5.32
5.68
5.94
5.97
5.66
4.95
3.96
2.95
2.23
1.97
2.18
2.70
3.28
3.70
3.85
3.71
3.34
2.84
2.24
1.52
0.65
-0.36
-1.48
-2.60
-3.59
-4.29
-4.59
-4.44
-3.88
-2.98
-1.91
-0.81
0.13
0.81
1.21
1.45
1.66
2.01
2.56
3.25
3.94
4.45
4.66
4.55
4.21
3.81
3.55
3.56
3.86
4.35
4.89
5.30
5.44
5.25
4.76
4.08
3.34
2.70
2.21
1.85
1.41
0.63
-0.73
-2.73
-5.18
-7.70
-9.81
-11.11
-11.36
-10.55
-8.84
-6.52
-3.96
-1.58
0.30
1.43
1.79
1.55
0.97
0.38
0.03
0.10
0.69
1.81
3.40
5.28
7.11
8.53
9.24
9.13
8.30
7.00
5.51
4.04
2.71
1.65
0.93
0.60
0.61
0.68
0.41
-0.60
-2.51
-5.11
-7.79
-9.77
-10.43
-9.52
-7.25
-4.16
-0.89
2.10
4.56
6.52
8.02
9.11
9.76
9.91
9.57
8.91
8.13
7.46
6.94
6.45
5.77
4.75
3.38
1.86
0.51
-0.46
-0.98
-1.14
-1.13
-1.10
-1.03
-0.81
-0.37
0.24
0.82
1.12
0.95
0.30
-0.69
-1.80
-2.82
-3.65
-4.24
-4.60
-4.72
-4.65
-4.46
-4.28
-4.27
-4.47
-4.84
-5.19
-5.30
-5.00
-4.23
-3.10
-1.77
-0.46
0.66
1.42
1.72
1.51
0.87
-0.03
-0.87
-1.35
-1.28
-0.68
0.19
0.97
1.39
1.41
1.20
1.05
1.12
1.36
1.51
1.28
0.49
-0.83
-2.46
-4.14
-5.67
-6.94
-7.86
-8.30
-8.13
-7.29
-5.87
-4.20
-2.70
-1.75
-1.48
-1.77
-2.27
-2.64
-2.64
-2.22
-1.49
-0.66
0.12
0.75
1.20
1.45
1.49
1.27
0.78
0.07
-0.72
-1.40
-1.83
-1.94
-1.82
-1.66
-1.64
-1.82
-2.08
-2.19
-1.95
-1.33
-0.56
0.00
0.02
-0.65
-1.82
-3.16
-4.29
-5.01
-5.31
-5.31
-5.13
-4.82
-4.37
-3.79
-3.18
-2.65
-2.31
-2.18
-2.20
-2.21
-2.13
-1.90
-1.55
-1.09
-0.59
-0.08
0.38
0.67
0.68
0.37
-0.25
-1.04
-1.89
-2.67
-3.33
-3.84
-4.22
-4.47
-4.47
-4.07
-3.06
-1.38
0.83
3.25
5.46
7.05
7.83
7.81
7.15
6.05
4.69
3.13
1.43
-0.28
-1.85
-3.07
-3.85
-4.21
-4.30
-4.31
-4.38
-4.52
-4.62
-4.48
-3.93
-2.91
-1.49
0.16
1.84
3.34
4.54
5.38
5.87
6.07
6.06
5.93
5.72
5.46
5.11
4.64
4.02
3.27
2.46
1.65
0.88
0.13
-0.66
-1.52
-2.42
-3.28
-4.04
-4.73
-5.42
-6.17
-6.94
-7.52
-7.57
-6.79
-5.09
-2.65
0.13
2.81
5.11
6.97
8.47
9.74
10.77
11.50
11.87
11.94
11.93
12.13
12.77
13.93
15.45
17.04
18.48
19.56
20.22
20.39
20.00
18.97
17.26
14.95
12.23
9.41
6.72
4.32
2.17
0.09
-2.23
-5.03
-8.35
-11.95
-15.30
-17.79
-18.97
-18.77
-17.59
-16.10
-14.96
-14.48
-14.54
-14.64
-14.30
-13.28
-11.67
-9.82
-8.03
-6.41
-4.90
-3.35
-1.70
-0.10
1.22
2.04
2.32
2.17
1.76
1.12
0.18
-1.23
-3.21
-5.67
-8.33
-10.82
-12.79
-13.99
-14.38
-13.97
-12.87
-11.21
-9.12
-6.80
-4.49
-2.46
-0.97
-0.15
0.03
-0.32
-0.98
-1.75
-2.47
-3.02
-3.31
-3.25
-2.78
-1.91
-0.78
0.42
1.46
2.17
2.52
2.54
2.37
2.17
2.12
2.41
3.18
4.55
6.51
8.99
11.83
14.82
17.75
20.38
22.57
24.19
25.16
25.41
24.88
23.51
21.29
18.22
14.38
9.97
5.35
1.00
-2.56
-4.86
-5.72
-5.26
-3.98
-2.60
-1.71
-1.52
-1.67
-1.30
0.61
4.72
11.05
18.83
26.88
34.03
39.52
43.18
45.35
46.59
47.48
48.50
49.93
51.81
53.96
55.90
57.07
57.04
55.65
53.07
49.75
46.23
42.86
39.66
36.21
31.78
25.67
17.68
8.37
-1.04
-9.26
-15.70
-20.87
-26.22
-33.26
-42.59
-53.34
-63.44
-70.61
-73.29
-71.44
-66.40
-60.32
-55.42
-53.41
-55.16
-60.69
-69.21
-79.37
-89.41
-97.53
-102.30
-102.87
-99.24
-92.11
-82.63
-71.98
-60.94
-49.45
-36.80
-22.09
-4.95
13.65
31.37
45.17
52.59
53.00
47.94
40.27
32.73
26.80
22.69
20.20
19.56
21.25
25.12
29.48
31.51
29.15
23.14
17.53
17.78
27.30
44.59
63.22
74.80
73.54
59.48
38.31
17.96
4.33
-1.97
-5.65
-13.78
-32.04
-61.64
-98.40
-134.36
-161.02
-172.32
-166.28
-144.94
-113.00
-76.07
-39.39
-6.97
18.31
34.65
41.06
37.59
25.58
7.94
-11.10
-26.96
-36.07
-36.98
-30.86
-21.04
-11.50
-5.31
-3.62
-5.68
-9.50
-12.75
-13.27
-9.19
0.80
16.82
37.37
59.35
79.01
93.20
100.36
100.67
95.61
87.20
77.74
69.66
65.24
65.88
71.19
78.58
83.85
82.97
73.92
57.55
36.85
15.47
-3.67
-19.03
-30.03
-36.46
-38.18
-35.39
-29.01
-20.77
-12.53
-5.41
0.72
7.10
15.18
25.76
38.37
51.48
62.94
70.59
72.56
67.32
53.89
32.28
3.94
-28.08
-59.50
-85.78
-103.52
-111.36
-110.29
-103.18
-93.70
-85.36
-80.71
-80.75
-84.59
-89.40
-91.01
-85.18
-69.36
-44.07
-13.20
17.33
41.79
56.69
61.70
58.93
51.27
40.98
29.10
16.05
2.53
-9.93
-19.27
-23.77
-22.87
-17.53
-9.76
-1.75
4.92
9.67
12.71
14.61
15.73
16.02
15.10
12.66
8.70
3.77
-1.21
-5.18
-7.36
-7.46
-5.81
-3.15
-0.39
1.75
2.97
3.38
3.39
3.42
3.69
4.14
4.58
4.81
4.76
4.48
4.08
3.56
2.84
1.80
0.35
-1.45
-3.47
-5.47
-7.24
-8.54
-9.20
-9.10
-8.27
-6.87
-5.26
-3.83
-2.88
-2.59
-2.88
-3.62
-4.51
-5.28
-5.61
-5.23
-3.98
-1.90
0.77
3.64
6.27
8.31
9.56
10.00
9.69
8.68
7.01
4.77
2.16
-0.50
-2.88
-4.71
-5.90
-6.48
-6.64
-6.54
-6.32
-6.07
-5.84
-5.73
-5.81
-6.17
-6.78
-7.58
-8.39
-9.08
-9.51
-9.59
-9.26
-8.51
-7.38
-5.99
-4.48
-3.01
-1.69
-0.55
0.46
1.40
2.30
3.17
3.90
4.40
4.59
4.40
3.85
2.99
1.95
0.86
-0.08
-0.78
-1.22
-1.51
-1.84
-2.35
-3.08
-3.91
-4.63
-5.06
-5.17
-5.09
-5.03
-5.15
-5.43
-5.72
-5.79
-5.46
-4.69
-3.61
-2.38
-1.11
0.18
1.55
3.07
4.74
6.51
8.25
9.80
11.01
11.72
11.86
11.44
10.62
9.64
8.76
8.17
7.86
7.71
7.52
7.07
6.31
5.28
4.11
2.99
2.07
1.41
0.98
0.61
0.08
-0.81
-2.16
-3.89
-5.75
-7.48
-8.87
-9.88
-10.56
-10.96
-11.09
-10.86
-10.14
-8.82
-6.84
-4.23
-1.09
2.41
5.98
9.26
11.84
13.42
13.86
13.24
11.84
10.02
8.16
6.56
5.47
5.03
5.21
5.89
6.79
7.64
8.20
8.33
7.96
7.07
5.64
3.72
1.44
-0.95
-3.14
-4.82
-5.84
-6.21
-6.09
-5.66
-4.99
-4.10
-2.97
-1.58
0.02
1.75
3.57
5.51
7.59
9.76
11.83
13.45
14.22
13.90
12.47
10.18
7.49
4.84
2.57
0.87
-0.24
-0.83
-1.03
-1.03
-1.03
-1.19
-1.61
-2.21
-2.81
-3.15
-3.07
-2.54
-1.74
-0.96
-0.48
-0.52
-1.11
-2.13
-3.35
-4.46
-5.18
-5.36
-4.95
-4.06
-2.91
-1.68
-0.50
0.58
1.56
2.42
3.14
3.67
3.99
4.13
4.16
4.09
3.94
3.66
3.28
2.88
2.63
2.69
3.07
3.70
4.34
4.72
4.66
4.11
3.16
1.99
0.80
-0.28
-1.19
-1.99
-2.75
-3.58
-4.58
-5.77
-7.19
-8.83
-10.77
-13.05
-15.69
-18.59
-21.51
-24.14
-26.11
-27.15
-27.06
-25.79
-23.45
-20.28
-16.58
-12.63
-8.66
-4.72
-0.72
3.53
8.20
13.35
18.91
24.66
30.34
35.67
40.33
43.99
46.40
47.36
46.86
45.01
41.98
37.99
33.22
27.86
22.14
16.29
10.55
5.09
-0.07
-4.93
-9.46
-13.42
-16.43
-18.04
-17.91
-16.07
-12.93
-9.15
-5.55
-2.87
-1.64
-2.05
-4.01
-7.07
-10.53
-13.52
-15.23
-15.12
-13.15
-9.74
-5.70
-1.94
0.81
2.25
2.52
2.11
1.56
1.36
1.69
2.52
3.64
4.72
5.44
5.51
4.72
3.02
0.55
-2.33
-5.08
-7.17
-8.15
-7.86
-6.43
-4.28
-1.94
0.08
1.45
2.13
2.31
2.35
2.58
3.19
4.14
5.22
6.12
6.60
6.54
6.04
5.34
4.73
4.55
4.99
6.09
7.62
9.15
10.22
10.41
9.57
7.80
5.44
2.95
0.76
-0.88
-1.94
-2.59
-3.09
-3.67
-4.44
-5.30
-6.03
-6.35
-6.12
-5.38
-4.35
-3.33
-2.49
-1.77
-0.99
0.12
1.71
3.72
5.90
7.88
9.28
9.71
8.86
6.51
2.70
-2.19
-7.39
-11.92
-14.89
-15.81
-14.74
-12.20
-8.84
-5.15
-1.33
2.60
6.57
10.34
13.43
15.36
15.90
15.16
13.60
11.82
10.24
9.06
8.21
7.45
6.59
5.57
4.44
3.31
2.20
1.00
-0.46
-2.28
-4.39
-6.54
-8.37
-9.55
-9.97
-9.75
-9.18
-8.55
-8.10
-7.92
-8.00
-8.26
-8.61
-8.96
-9.20
-9.14
-8.59
-7.40
-5.51
-3.00
-0.08
2.97
5.90
8.55
10.84
12.68
13.98
14.62
14.51
13.60
12.04
10.09
8.11
6.44
5.21
4.39
3.77
3.12
2.29
1.32
0.37
-0.37
-0.83
-1.08
-1.31
-1.68
-2.29
-3.07
-3.90
-4.71
-5.52
-6.44
-7.50
-8.66
-9.72
-10.40
-10.51
-9.96
-8.90
-7.62
-6.47
-5.78
-5.70
-6.20
-7.04
-7.85
-8.19
-7.82
-6.74
-5.20
-3.67
-2.53
-1.98
-1.94
-2.10
-2.12
-1.77
-0.99
0.11
1.38
2.71
3.99
5.12
6.00
6.52
6.60
6.27
5.64
4.87
4.14
3.57
3.26
3.24
3.46
3.80
4.09
4.11
3.72
2.95
1.92
0.88
-0.02
-0.73
-1.32
-1.91
-2.59
-3.38
-4.19
-4.94
-5.58
-6.07
-6.37
-6.45
-6.30
-5.95
-5.43
-4.83
-4.16
-3.43
-2.61
-1.72
-0.81
-0.02
0.58
0.96
1.27
1.69
2.33
3.16
3.99
4.57
4.74
4.52
4.07
3.60
3.16
2.68
2.00
1.03
-0.11
-1.18
-1.87
-2.01
-1.67
-1.03
-0.34
0.23
0.58
0.72
0.65
0.44
0.12
-0.26
-0.67
-1.17
-1.86
-2.89
-4.31
-6.05
-7.86
-9.44
-10.45
-10.62
-9.84
-8.16
-5.78
-3.07
-0.49
1.57
2.89
3.51
3.68
3.68
3.69
3.72
3.63
3.30
2.74
2.13
1.70
1.69
2.20
3.27
4.93
7.11
9.63
12.12
14.00
14.75
14.12
12.33
10.02
7.96
6.69
6.23
6.28
6.34
6.14
5.66
5.01
4.17
2.86
0.60
-2.97
-7.70
-12.88
-17.39
-20.15
-20.52
-18.59
-15.00
-10.76
-6.78
-3.64
-1.49
-0.12
0.82
1.64
2.51
3.48
4.53
5.60
6.63
7.50
8.06
8.09
7.32
5.55
2.71
-1.05
-5.35
-9.64
-13.35
-16.02
-17.40
-17.50
-16.48
-14.57
-11.99
-8.95
-5.66
-2.40
0.56
2.99
4.76
5.89
6.47
6.61
6.42
5.99
5.44
4.94
4.67
4.73
5.13
5.78
6.46
7.00
7.16
6.78
5.83
4.49
3.16
2.36
2.46
3.52
5.13
6.64
7.33
6.82
5.11
2.57
-0.24
-2.86
-5.04
-6.70
-7.87
-8.63
-9.02
-9.10
-8.93
-8.58
-8.10
-7.57
-7.04
-6.54
-6.08
-5.64
-5.20
-4.77
-4.35
-3.98
-3.63
-3.25
-2.76
-2.10
-1.27
-0.32
0.65
1.58
2.45
3.23
3.93
4.53
5.02
5.38
5.69
6.00
6.35
6.66
6.78
6.53
5.81
4.69
3.38
2.20
1.40
1.10
1.18
1.35
1.29
0.83
0.01
-0.96
-1.79
-2.30
-2.47
-2.46
-2.50
-2.75
-3.30
-4.05
-4.81
-5.35
-5.48
-5.07
-4.13
-2.80
-1.32
-0.02
0.90
1.33
1.37
1.26
1.30
1.69
2.52
3.67
4.93
6.10
7.03
7.73
8.29
8.83
9.38
9.86
10.11
9.92
9.18
7.79
5.75
3.13
-0.02
-3.59
-7.43
-11.31
-14.92
-17.87
-19.79
-20.37
-19.46
-17.16
-13.77
-9.77
-5.71
-2.12
0.66
2.43
3.26
3.39
3.18
3.06
3.41
4.44
6.10
8.05
9.78
10.80
10.81
9.85
8.28
6.67
5.52
5.16
5.63
6.71
8.00
9.05
9.48
9.01
7.66
5.76
3.88
2.65
2.51
3.43
5.02
6.57
7.50
7.57
6.95
6.09
5.42
5.07
4.87
4.48
3.61
2.16
0.21
-2.20
-5.11
-8.64
-12.80
-17.32
-21.62
-25.01
-27.01
-27.51
-26.81
-25.36
-23.53
-21.48
-19.24
-16.84
-14.42
-12.23
-10.44
-9.11
-8.20
-7.53
-6.95
-6.24
-5.11
-3.08
0.43
5.94
13.66
23.32
34.10
44.87
54.44
61.78
66.18
67.31
65.40
61.10
55.19
48.22
40.08
30.25
18.26
4.08
-11.29
-25.81
-36.91
-42.43
-41.41
-34.37
-22.89
-8.74
6.55
22.03
37.17
51.57
64.75
76.17
85.23
91.57
95.19
96.04
93.84
88.29
79.20
66.77
51.62
34.30
15.69
-2.62
-19.66
-34.87
-47.82
-58.17
-65.73
-70.57
-73.83
-76.22
-76.84
-75.47
-72.66
-68.98
-65.23
-62.28
-61.03
-63.33
-69.89
-78.56
-88.34
-99.46
-111.98
-125.69
-139.97
-153.79
-167.63
-181.06
-190.67
-195.00
-194.37
-188.98
-179.00
-164.73
-136.10
-91.67
-49.80
-15.09
15.93
43.99
69.31
91.70
110.72
125.95
135.53
138.99
139.46
138.66
136.72
133.86
130.26
126.14
121.78
116.20
109.21
102.99
98.27
94.38
90.64
86.48
81.52
75.64
68.17
59.06
49.90
41.45
33.70
26.72
20.65
15.67
11.85
8.71
5.82
3.43
1.48
-0.29
-1.92
-3.38
-4.70
-6.03
-7.67
-9.78
-12.04
-14.14
-15.90
-17.21
-18.17
-19.02
-20.03
-21.38
-23.10
-24.98
-26.70
-27.88
-28.20
-27.52
-25.91
-23.68
-21.16
-18.62
-16.17
-13.75
-11.29
-8.70
-6.02
-3.31
-0.60
2.05
4.62
6.99
8.93
10.21
10.66
10.24
9.10
7.48
5.61
3.64
1.63
-0.40
-2.39
-4.30
-6.12
-7.87
-9.62
-11.42
-13.20
-14.85
-16.19
-17.08
-17.44
-17.23
-16.42
-14.84
-12.40
-9.06
-5.06
-0.86
2.95
5.88
7.70
8.47
8.41
7.66
6.37
4.65
2.85
1.52
1.27
2.46
4.99
8.25
11.36
13.62
14.73
14.93
14.71
14.47
14.27
13.83
12.75
10.72
7.75
4.09
0.03
-4.23
-8.71
-13.50
-18.67
-24.03
-29.25
-33.83
-37.41
-39.80
-41.05
-41.22
-40.39
-38.50
-35.52
-31.52
-26.74
-21.62
-16.63
-12.22
-8.64
-5.96
-4.17
-3.23
-3.04
-3.41
-4.04
-4.51
-4.41
-3.49
-1.71
0.71
3.38
5.89
7.90
9.23
9.81
9.69
8.96
7.77
6.34
4.93
3.80
3.13
2.92
3.05
3.34
3.60
3.68
3.47
2.92
1.96
0.58
-1.14
-2.98
-4.61
-5.63
-5.73
-4.87
-3.18
-1.04
1.14
3.05
4.59
5.90
7.21
8.73
10.48
12.33
14.06
15.42
16.29
16.65
16.49
15.79
14.47
12.51
9.97
7.12
4.33
2.00
0.40
-0.38
-0.43
0.07
0.90
1.87
2.74
3.29
3.31
2.68
1.41
-0.34
-2.30
-4.25
-6.02
-7.59
-9.00
-10.29
-11.50
-12.59
-13.47
-14.00
-14.04
-13.41
-12.05
-10.01
-7.50
-4.88
-2.52
-0.67
0.61
1.45
2.13
2.92
3.97
5.32
6.88
8.58
10.42
12.40
14.56
16.92
19.44
22.07
24.74
27.41
30.02
32.49
34.71
36.54
37.85
38.49
38.40
37.52
35.98
33.98
31.86
29.94
28.47
27.48
26.79
26.19
25.57
25.09
25.13
26.13
28.38
31.83
36.11
40.69
45.12
49.19
52.99
56.75
60.67
64.70
68.47
71.41
72.95
72.75
70.87
67.82
64.34
61.18
58.85
57.49
56.88
56.61
56.36
55.95
55.62
55.78
56.97
59.53
63.54
68.62
74.04
78.77
81.56
81.21
76.73
67.54
53.63
35.41
13.61
-11.06
-37.81
-65.79
-93.79
-120.10
-142.66
-159.52
-169.42
-172.22
-169.01
-161.73
-152.79
-144.47
-138.47
-135.63
-135.67
-137.44
-139.13
-138.84
-135.25
-128.03
-117.75
-105.37
-91.77
-77.43
-62.61
-47.62
-33.15
-20.30
-10.40
-4.45
-2.74
-4.74
-9.34
-15.47
-22.14
-28.65
-34.50
-39.35
-42.84
-44.47
-43.79
-40.77
-36.59
-32.65
-30.16
-29.79
-31.70
-35.39
-39.81
-43.70
-46.20
-48.28
-50.71
-53.53
-56.09
-57.78
-58.29
-57.79
-56.99
-57.29
-62.22
-73.62
-90.53
-109.91
-128.55
-144.20
-155.96
-163.93
-168.68
-172.90
-176.73
-177.48
-171.46
-156.73
-133.77
-104.97
-73.48
-26.44
36.06
102.47
158.16
196.08
218.08
230.22
237.83
244.86
252.16
256.36
255.22
248.92
239.19
225.95
209.07
188.75
166.19
143.25
120.18
97.99
78.36
62.75
51.37
43.46
37.76
33.07
28.24
21.15
11.00
-1.23
-13.31
-22.93
-28.45
-29.46
-26.74
-22.09
-18.24
-17.16
-19.38
-24.12
-29.91
-35.19
-38.88
-40.58
-40.70
-40.29
-40.27
-41.07
-42.45
-43.85
-44.63
-44.36
-42.84
-40.03
-35.96
-30.74
-24.77
-18.85
-14.00
-11.24
-11.06
-13.13
-16.31
-19.03
-19.90
-18.13
-13.69
-6.95
1.70
12.21
24.72
39.11
54.44
68.80
79.67
84.71
82.62
73.68
59.64
43.14
26.93
13.23
3.39
-2.21
-3.92
-2.71
0.09
3.01
4.73
4.26
1.11
-4.57
-12.10
-20.37
-27.97
-33.63
-36.53
-36.56
-34.40
-31.21
-28.14
-25.89
-24.44
-23.17
-21.26
-18.00
-13.14
-6.88
0.24
7.60
14.63
20.93
26.27
30.52
33.64
35.70
36.74
36.81
35.94
34.10
31.31
27.60
23.13
18.19
13.20
8.53
4.50
1.11
-1.89
-4.87
-8.11
-11.57
-14.90
-17.51
-18.88
-18.74
-17.22
-14.77
-11.94
-9.20
-6.78
-4.74
-2.95
-1.40
-0.16
0.51
0.30
-1.04
-3.53
-6.98
-11.10
-15.57
-20.12
-24.49
-28.29
-30.98
-31.96
-30.83
-27.64
-23.04
-18.13
-14.13
-11.99
-12.05
-13.97
-16.93
-19.95
-22.35
-24.06
-25.58
-27.64
-30.81
-35.16
-40.34
-45.88
-51.61
-57.57
-63.57
-68.57
-70.86
-68.88
-62.44
-53.33
-44.72
-39.46
-38.42
-39.74
-39.69
-34.54
-22.29
-3.51
19.19
42.49
63.61
80.84
93.31
100.50
102.03
98.04
89.65
79.01
68.93
61.91
58.99
59.05
59.40
56.81
49.34
37.34
23.22
10.13
0.26
-5.91
-9.35
-11.32
-12.46
-12.53
-11.00
-7.74
-3.32
1.35
5.60
9.30
12.67
15.72
17.99
18.57
16.65
12.07
5.45
-1.90
-8.47
-12.98
-14.70
-13.39
-9.19
-2.65
5.79
15.52
25.87
36.00
44.90
51.50
55.01
55.07
51.84
46.02
38.54
30.46
22.75
16.24
11.38
8.14
5.93
3.73
0.48
-4.54
-11.30
-19.04
-26.49
-32.37
-35.83
-36.64
-35.22
-32.24
-28.30
-23.74
-18.67
-13.31
-8.15
-4.03
-1.74
-1.69
-3.56
-6.52
-9.59
-12.16
-14.23
-16.27
-18.95
-22.81
-28.15
-34.96
-42.96
-51.50
-59.60
-66.01
-69.37
-68.80
-64.18
-56.28
-46.40
-35.93
-25.94
-16.89
-8.78
-1.33
5.79
12.88
20.17
27.72
35.33
42.53
48.69
53.20
55.66
56.07
54.95
53.28
52.36
53.48
57.29
63.36
70.05
75.00
76.20
72.84
65.75
56.74
47.40
38.16
28.18
16.47
3.09
-10.10
-20.21
-24.94
-24.00
-19.04
-12.43
-5.64
1.42
9.70
19.45
29.24
36.26
38.13
34.61
28.06
22.08
19.37
20.31
23.05
25.18
25.27
23.92
23.35
25.98
32.89
43.40
55.69
67.93
79.21
89.28
98.67
108.26
118.76
129.92
140.31
147.73
150.14
146.76
137.42
122.88
104.46
83.52
60.77
36.28
10.27
-16.27
-41.18
-63.37
-82.93
-101.05
-119.32
-138.88
-159.61
-179.80
-196.99
-204.35
-198.08
-180.40
-158.53
-139.16
-124.66
-113.98
-105.64
-101.46
-100.38
-100.54
-97.61
-85.39
-58.47
-15.85
37.65
92.76
136.82
159.82
157.22
131.47
89.85
40.78
-9.17
-55.99
-96.89
-128.92
-149.02
-154.68
-144.21
-117.45
-76.48
-25.52
30.13
84.94
133.67
170.22
189.45
188.87
168.93
132.21
82.85
26.19
-31.73
-85.43
-133.50
-176.71
-216.19
-252.25
-284.13
-309.21
-323.01
-320.36
-284.87
-213.43
-121.02
-32.75
32.55
69.85
84.77
86.29
81.78
75.34
66.14
53.29
38.60
27.32
22.44
24.50
31.46
40.11
48.12
53.29
56.25
60.70
71.38
90.48
116.13
143.01
159.99
158.63
134.21
88.97
32.16
-22.84
-63.50
-81.77
-75.81
-49.48
-9.57
35.24
77.19
110.58
132.01
139.66
133.20
113.85
84.46
49.99
15.79
-13.17
-33.45
-43.83
-45.57
-41.62
-35.55
-30.39
-27.65
-27.51
-29.32
-32.19
-35.43
-38.90
-42.69
-46.89
-51.32
-55.38
-58.34
-59.78
-59.63
-58.15
-55.59
-51.95
-46.96
-40.34
-32.13
-23.06
-14.35
-7.28
-2.60
-0.22
0.76
1.42
2.50
4.21
6.20
8.07
9.68
11.25
13.08
15.30
17.61
19.39
20.20
19.99
19.28
18.82
19.19
20.31
21.37
21.19
18.65
13.35
5.65
-3.28
-11.99
-19.12
-23.90
-26.20
-26.39
-25.13
-22.99
-20.42
-17.62
-14.76
-12.05
-9.78
-8.09
-6.76
-5.22
-2.70
1.33
6.85
13.27
19.69
25.32
29.77
33.01
35.16
36.22
36.01
34.30
31.15
26.96
22.54
18.72
16.13
14.93
14.90
15.57
16.45
17.20
17.54
17.28
16.15
13.90
10.41
5.93
1.06
-3.35
-6.47
-7.85
-7.49
-5.88
-3.67
-1.48
0.32
1.57
2.18
2.06
1.02
-1.10
-4.39
-8.58
-13.07
-16.98
-19.46
-20.06
-18.86
-16.37
-13.27
-10.08
-6.97
-3.87
-0.72
2.31
4.88
6.56
7.23
7.15
6.90
7.07
7.96
9.38
10.75
11.32
10.44
7.87
3.84
-1.00
-5.86
-9.98
-12.92
-14.54
-14.93
-14.28
-12.70
-10.31
-7.27
-3.90
-0.73
1.69
2.94
2.99
2.17
1.07
0.19
-0.31
-0.50
-0.52
-0.43
-0.05
0.84
2.39
4.51
6.84
8.99
10.74
12.10
13.22
14.28
15.28
16.05
16.31
15.81
14.48
12.48
10.11
7.85
6.08
5.08
4.78
4.83
4.72
4.10
2.93
1.41
-0.17
-1.64
-2.99
-4.45
-6.31
-8.75
-11.72
-14.94
-18.00
-20.60
-22.51
-23.44
-23.25
-22.05
-20.27
-18.57
-17.65
-18.13
-20.47
-24.66
-29.60
-33.85
-36.21
-36.22
-34.21
-31.04
-27.83
-25.61
-25.08
-25.16
-24.54
-22.50
-19.01
-14.21
-7.76
0.99
12.51
26.57
43.98
64.66
86.93
107.87
124.73
136.11
142.22
144.46
144.87
147.96
157.12
172.54
191.15
208.69
222.07
230.24
233.95
219.56
180.90
122.67
58.41
1.57
-41.03
-68.69
-83.86
-90.12
-89.22
-82.14
-69.25
-52.41
-34.96
-20.21
-9.95
-4.24
-1.98
-4.32
-11.53
-21.55
-32.22
-42.23
-51.25
-59.27
-66.17
-71.58
-76.32
-79.05
-78.19
-73.69
-67.09
-60.58
-55.92
-54.33
-54.82
-57.02
-59.72
-61.67
-62.47
-62.46
-62.23
-62.08
-61.96
-61.59
-60.94
-59.62
-57.26
-53.98
-50.25
-46.55
-43.17
-40.14
-37.37
-34.92
-32.74
-30.72
-28.85
-27.11
-25.41
-23.60
-21.52
-19.16
-16.75
-14.53
-12.71
-11.39
-10.49
-9.76
-8.89
-7.65
-6.01
-4.17
-2.45
-1.11
-0.34
-0.13
-0.35
-0.84
-1.50
-2.28
-3.29
-4.63
-6.32
-8.26
-10.17
-11.70
-12.52
-12.48
-11.74
-10.69
-9.93
-10.00
-11.18
-13.39
-16.25
-19.30
-22.32
-25.47
-29.42
-35.11
-43.40
-54.70
-68.73
-84.47
-100.25
-113.98
-123.37
-126.39
-121.63
-108.78
-88.71
-63.27
-34.65
-4.69
25.54
55.72
85.75
115.19
142.95
167.40
186.72
199.51
204.95
203.08
194.64
181.10
164.41
146.71
129.93
115.43
103.75
94.68
87.58
81.76
76.57
71.40
65.43
57.67
46.99
32.64
14.62
-6.14
-27.92
-48.67
-66.69
-81.04
-91.54
-98.64
-102.85
-104.52
-103.79
-100.84
-96.11
-90.43
-84.74
-79.68
-75.29
-70.89
-65.38
-57.72
-47.34
-34.35
-19.45
-3.66
11.97
26.55
39.37
49.87
57.57
62.12
63.37
61.50
57.03
50.73
43.48
36.10
29.21
23.06
17.63
12.69
7.95
3.29
-1.18
-5.13
-8.17
-10.05
-10.88
-11.05
-11.19
-11.84
-13.34
-15.65
-18.40
-21.16
-23.52
-25.35
-26.76
-27.99
-29.30
-30.79
-32.38
-33.81
-34.85
-35.36
-35.38
-35.08
-34.61
-33.93
-32.76
-30.68
-27.30
-22.54
-16.68
-10.37
-4.38
0.65
4.43
7.00
8.65
9.70
10.32
10.58
10.44
9.89
9.01
7.98
7.04
6.34
5.99
5.89
5.92
5.90
5.69
5.24
4.61
3.91
3.24
2.60
1.87
0.95
-0.22
-1.55
-2.80
-3.65
-3.90
-3.54
-2.79
-1.96
-1.37
-1.16
-1.35
-1.83
-2.45
-3.06
-3.54
-3.76
-3.61
-3.03
-2.05
-0.82
0.47
1.63
2.54
3.23
3.79
4.31
4.84
5.33
5.68
5.82
5.78
5.65
5.56
5.59
5.73
5.90
6.04
6.15
6.34
6.69
7.25
7.95
8.64
9.16
9.37
9.20
8.61
7.59
6.22
4.61
2.94
1.40
0.12
-0.90
-1.72
-2.38
-2.88
-3.11
-2.97
-2.43
-1.60
-0.64
0.27
1.03
1.65
2.17
2.65
3.10
3.52
3.85
4.09
4.22
4.28
4.32
4.38
4.51
4.74
5.05
5.39
5.71
5.94
6.03
5.96
5.72
5.33
4.85
4.36
3.95
3.67
3.50
3.40
3.30
3.13
2.85
2.47
2.01
1.53
1.05
0.63
0.27
-0.05
-0.35
-0.66
-0.98
-1.28
-1.53
-1.72
-1.90
-2.13
-2.45
-2.82
-3.15
-3.32
-3.24
-2.90
-2.40
-1.88
-1.44
-1.13
-0.91
-0.69
-0.39
-0.03
0.36
0.70
0.93
1.02
0.98
0.81
0.52
0.08
-0.51
-1.22
-2.00
-2.78
-3.51
-4.19
-4.77
-5.23
-5.46
-5.41
-5.03
-4.38
-3.61
-2.90
-2.35
-1.98
-1.65
-1.19
-0.49
0.43
1.46
2.39
3.09
3.53
3.80
4.03
4.30
4.66
5.07
5.47
5.79
6.05
6.26
6.47
6.68
6.89
7.00
6.94
6.61
5.95
5.00
3.83
2.55
1.28
0.10
-0.96
-1.89
-2.72
-3.52
-4.41
-5.47
-6.80
-8.39
-10.16
-11.93
-13.45
-14.50
-14.91
-14.68
-13.89
-12.73
-11.38
-9.95
-8.44
-6.75
-4.80
-2.61
-0.36
1.66
3.16
4.01
4.29
4.32
4.47
5.04
6.08
7.36
8.51
9.18
9.20
8.65
7.75
6.75
5.82
4.91
3.75
1.95
-0.92
-5.11
-10.61
-17.16
-24.40
-31.99
-39.71
-47.36
-54.59
-60.84
-65.34
-67.52
-67.15
-64.20
-58.46
-49.16
-35.21
-15.97
7.88
33.84
57.98
76.23
85.78
85.93
77.93
64.00
46.32
26.48
5.74
-14.49
-32.45
-46.34
-55.02
-58.49
-57.88
-54.72
-50.10
-43.84
-34.52
-20.16
0.69
28.05
60.19
94.03
126.02
153.16
173.68
186.92
192.92
191.95
184.31
170.41
151.04
127.53
101.73
75.77
51.25
28.97
8.94
-9.11
-25.22
-38.85
-48.98
-54.76
-56.15
-54.90
-54.31
-58.34
-69.88
-89.10
-112.69
-135.45
-152.75
-161.93
-162.83
-156.92
-146.67
-134.48
-123.18
-115.14
-111.23
-110.99
-109.41
-100.62
-79.88
-45.72
-0.50
48.99
93.92
126.42
142.21
141.71
128.75
108.95
83.51
56.21
30.22
7.78
-9.78
-21.97
-29.01
-32.27
-33.67
-35.42
-38.52
-43.37
-49.29
-54.76
-58.11
-58.08
-54.63
-48.68
-41.81
-34.89
-28.49
-22.31
-15.47
-6.98
3.63
15.84
28.37
39.65
48.78
55.39
59.75
62.53
64.35
65.58
66.21
66.14
65.23
63.62
61.26
58.00
53.62
47.92
40.97
33.09
24.87
16.94
9.86
3.87
-1.11
-5.32
-9.07
-12.49
-15.57
-18.14
-20.03
-21.14
-21.60
-21.64
-21.57
-21.61
-21.87
-22.34
-22.90
-23.31
-23.25
-22.30
-20.11
-16.53
-11.77
-6.35
-0.95
3.91
7.99
11.42
14.43
17.18
19.55
21.32
22.25
22.29
21.67
20.73
19.73
18.73
17.58
16.01
13.85
11.18
8.27
5.53
3.28
1.65
0.55
-0.28
-1.09
-2.01
-3.01
-3.95
-4.68
-5.15
-5.43
-5.66
-6.00
-6.52
-7.21
-8.03
-8.87
-9.62
-10.20
-10.51
-10.51
-10.17
-9.54
-8.71
-7.83
-7.02
-6.32
-5.66
-4.89
-3.84
-2.40
-0.58
1.51
3.70
5.86
7.86
9.62
11.05
12.06
12.54
12.45
11.83
10.79
9.46
7.98
6.51
5.23
4.28
3.80
3.74
3.97
4.27
4.42
4.31
3.91
3.31
2.58
1.75
0.85
-0.12
-1.10
-2.03
-2.84
-3.49
-4.00
-4.40
-4.67
-4.83
-4.86
-4.78
-4.62
-4.47
-4.38
-4.31
-4.16
-3.76
-2.98
-1.85
-0.60
0.43
0.88
0.64
-0.19
-1.24
-2.13
-2.62
-2.73
-2.67
-2.69
-2.89
-3.20
-3.46
-3.51
-3.34
-3.07
-2.87
-2.88
-3.13
-3.58
-4.16
-4.81
-5.50
-6.19
-6.84
-7.39
-7.79
-8.01
-8.07
-8.05
-8.00
-7.96
-7.89
-7.75
-7.46
-6.98
-6.36
-5.66
-4.95
-4.19
-3.21
-1.83
0.09
2.45
5.00
7.35
9.19
10.34
10.84
10.82
10.40
9.65
8.56
7.16
5.55
3.92
2.49
1.43
0.75
0.41
0.24
0.12
-0.04
-0.24
-0.38
-0.33
-0.02
0.55
1.30
2.01
2.48
2.57
2.28
1.78
1.33
1.22
1.53
2.20
2.94
3.46
3.51
3.06
2.20
1.18
0.23
-0.39
-0.55
-0.23
0.48
1.33
2.09
2.57
2.70
2.53
2.15
1.64
1.03
0.31
-0.52
-1.44
-2.42
-3.45
-4.50
-5.51
-6.30
-6.66
-6.41
-5.56
-4.30
-2.96
-1.85
-1.18
-0.94
-0.98
-1.14
-1.31
-1.42
-1.44
-1.36
-1.12
-0.73
-0.26
0.19
0.44
0.39
0.00
-0.61
-1.22
-1.50
-1.19
-0.16
1.47
3.38
5.16
6.52
7.38
7.92
8.32
8.64
8.72
8.29
7.14
5.36
3.30
1.41
0.04
-0.73
-1.13
-1.42
-1.83
-2.38
-2.98
-3.51
-3.96
-4.38
-4.87
-5.47
-6.10
-6.65
-7.00
-7.10
-6.99
-6.77
-6.50
-6.22
-5.91
-5.52
-5.04
-4.50
-4.00
-3.71
-3.75
-4.15
-4.74
-5.19
-5.14
-4.36
-2.87
-1.01
0.78
2.15
3.03
3.60
4.09
4.68
5.31
5.80
6.01
5.94
5.79
5.76
5.98
6.38
6.79
7.06
7.20
7.39
7.83
8.60
9.58
10.47
10.97
11.01
10.78
10.74
11.37
12.89
15.09
17.36
18.83
18.79
17.08
14.21
11.31
9.66
10.09
12.55
16.03
18.97
20.01
18.72
15.78
12.69
10.91
11.13
12.79
14.15
12.76
6.01
-8.24
-31.08
-61.84
-97.36
-131.77
-157.27
-166.18
-153.72
-120.25
-71.86
-18.69
28.45
61.63
77.87
78.97
69.57
54.65
37.89
21.33
6.00
-7.11
-16.68
-21.51
-21.13
-16.23
-8.44
0.41
8.89
16.21
22.14
26.85
30.27
31.99
31.33
27.81
21.60
13.78
6.10
0.51
-1.10
2.07
9.46
19.17
28.49
34.84
36.44
32.93
25.31
16.42
9.18
5.64
5.68
6.71
4.70
-4.49
-23.40
-52.47
-89.47
-129.63
-165.54
-190.74
-202.81
-202.21
-189.18
-162.77
-127.36
-83.91
-36.69
8.04
44.68
70.97
89.14
101.05
109.98
117.98
125.70
131.36
132.77
128.63
119.18
106.05
91.21
76.37
62.09
48.65
35.80
23.67
12.83
4.00
-2.35
-6.41
-8.80
-10.63
-12.57
-15.03
-17.73
-20.00
-21.19
-21.08
-20.00
-18.48
-17.20
-16.45
-16.25
-16.25
-16.00
-15.18
-13.82
-12.26
-10.85
-9.92
-9.49
-9.39
-9.29
-8.89
-8.08
-6.99
-5.86
-4.86
-4.00
-3.21
-2.39
-1.48
-0.55
0.32
1.11
1.87
2.69
3.63
4.67
5.68
6.52
7.12
7.51
7.74
7.87
7.91
7.81
7.53
7.11
6.65
6.27
6.07
6.05
6.12
6.15
6.00
5.59
4.88
3.93
2.85
1.77
0.83
0.12
-0.31
-0.50
-0.50
-0.38
-0.19
0.04
0.30
0.56
0.79
0.95
0.96
0.79
0.49
0.15
-0.07
-0.01
0.39
1.07
1.86
2.55
2.96
3.05
2.93
2.73
2.60
2.58
2.64
2.72
2.75
2.68
2.53
2.32
2.06
1.76
1.36
0.87
0.32
-0.22
-0.66
-0.94
-1.09
-1.16
-1.25
-1.38
-1.53
-1.61
-1.58
-1.45
-1.31
-1.24
-1.33
-1.57
-1.88
-2.15
-2.25
-2.07
-1.55
-0.72
0.29
1.28
2.07
2.56
2.77
2.80
2.76
2.70
2.59
2.37
1.99
1.52
1.05
0.72
0.62
0.76
1.06
1.42
1.70
1.78
1.58
1.09
0.38
-0.40
-1.07
-1.52
-1.72
-1.76
-1.80
-1.95
-2.23
-2.61
-3.02
-3.42
-3.82
-4.18
-4.43
-4.42
-4.02
-3.16
-1.92
-0.45
0.99
2.24
3.17
3.81
4.18
4.35
4.37
4.26
4.03
3.69
3.28
2.79
2.22
1.58
0.90
0.27
-0.21
-0.45
-0.44
-0.29
-0.19
-0.34
-0.78
-1.43
-2.06
-2.44
-2.48
-2.22
-1.82
-1.47
-1.28
-1.26
-1.39
-1.65
-2.04
-2.55
-3.12
-3.65
-3.99
-4.07
-3.91
-3.64
-3.37
-3.18
-3.02
-2.75
-2.19
-1.19
0.26
2.05
4.01
5.95
7.73
9.25
10.45
11.26
11.64
11.53
10.97
10.07
9.00
7.96
7.10
6.48
6.07
5.74
5.34
4.74
3.89
2.84
1.67
0.51
-0.57
-1.58
-2.51
-3.40
-4.28
-5.13
-5.93
-6.67
-7.28
-7.68
-7.76
-7.39
-6.52
-5.19
-3.58
-1.89
-0.35
0.94
1.97
2.78
3.42
3.92
4.24
4.39
4.41
4.38
4.43
4.64
5.04
5.57
6.14
6.72
7.37
8.15
9.12
10.23
11.33
12.19
12.67
12.71
12.41
11.94
11.50
11.23
11.19
11.34
11.61
11.95
12.26
12.50
12.59
12.46
12.07
11.44
10.62
9.75
8.97
8.38
7.97
7.59
7.00
5.96
4.34
2.15
-0.48
-3.38
-6.42
-9.53
-12.69
-15.91
-19.13
-22.29
-25.22
-27.71
-29.41
-29.99
-29.17
-26.89
-23.41
-19.30
-15.25
-11.89
-9.65
-8.67
-8.86
-10.11
-12.23
-15.13
-18.64
-22.54
-26.50
-30.14
-33.04
-34.92
-35.60
-35.09
-33.51
-31.03
-27.82
-23.96
-19.41
-14.06
-7.74
-0.22
8.73
19.18
30.94
43.38
55.46
65.86
73.23
76.61
75.61
70.53
62.24
51.94
40.85
30.03
20.27
12.07
5.62
0.90
-2.35
-4.53
-6.10
-7.49
-9.05
-11.02
-13.52
-16.51
-19.77
-22.99
-25.78
-27.86
-29.18
-29.90
-30.34
-30.83
-31.52
-32.32
-32.95
-33.08
-32.44
-30.99
-28.92
-26.67
-24.83
-24.01
-24.66
-26.89
-30.35
-34.29
-37.80
-40.10
-40.76
-39.81
-37.63
-34.81
-31.90
-29.28
-27.03
-24.94
-22.59
-19.52
-15.40
-10.23
-4.36
1.60
7.02
11.55
15.20
18.26
21.07
23.70
25.84
26.93
26.39
23.94
19.75
14.39
8.55
2.78
-2.70
-7.99
-13.28
-18.62
-23.67
-27.75
-30.07
-30.02
-27.52
-23.08
-17.64
-12.20
-7.46
-3.62
-0.42
2.55
5.70
9.33
13.77
19.40
26.65
35.66
45.99
56.54
65.79
72.39
75.70
76.03
74.38
71.91
69.34
66.73
63.58
59.33
53.77
47.23
40.44
34.19
28.92
24.60
20.80
17.04
13.04
8.87
4.86
1.37
-1.48
-3.85
-6.11
-8.57
-11.20
-13.65
-15.47
-16.35
-16.39
-16.07
-16.00
-16.61
-17.89
-19.43
-20.59
-20.88
-20.15
-18.63
-16.74
-14.90
-13.37
-12.21
-11.29
-10.42
-9.52
-8.59
-7.69
-6.83
-6.00
-5.18
-4.41
-3.70
-2.96
-2.14
-1.14
0.22
2.15
4.85
8.33
12.42
16.86
21.47
25.76
29.23
31.45
32.33
32.13
31.27
29.95
28.07
25.27
20.53
12.94
2.09
-11.47
-26.54
-42.12
-58.43
-77.01
-96.86
-115.63
-129.70
-136.06
-133.30
-121.76
-103.38
-81.40
-59.21
-39.18
-22.83
-11.00
-5.07
-6.57
-15.98
-30.96
-46.40
-55.38
-51.90
-34.18
-5.45
26.77
54.18
71.14
76.50
73.01
65.54
58.93
54.39
53.40
56.76
64.93
78.01
95.19
114.32
132.20
145.46
151.34
148.95
138.89
123.05
103.98
83.96
64.46
46.05
28.55
11.32
-6.16
-24.43
-43.70
-63.76
-84.12
-104.33
-124.18
-143.89
-163.85
-183.85
-202.76
-218.19
-226.91
-225.86
-213.15
-188.53
-153.25
-109.52
-60.07
-8.25
41.82
85.39
117.95
136.44
140.41
132.11
115.75
95.98
76.52
59.58
45.96
35.72
28.62
24.34
22.42
22.11
22.47
22.61
22.01
20.64
18.96
17.63
17.20
17.86
19.42
21.39
23.25
24.63
25.36
25.45
24.95
23.89
22.26
20.03
17.25
14.09
10.84
7.83
5.41
3.84
3.12
3.05
3.14
2.80
1.51
-1.00
-4.64
-8.97
-13.42
-17.45
-20.70
-23.06
-24.51
-25.14
-25.00
-24.18
-22.88
-21.42
-20.21
-19.63
-19.92
-21.06
-22.82
-24.92
-27.09
-29.19
-31.15
-32.84
-34.10
-34.67
-34.33
-32.96
-30.65
-27.64
-24.30
-21.04
-18.18
-15.90
-14.21
-12.94
-11.89
-10.86
-9.71
-8.38
-6.75
-4.58
-1.61
2.40
7.51
13.50
19.95
26.43
32.56
38.08
42.81
46.49
48.87
49.79
49.27
47.56
45.04
42.04
38.78
35.37
31.91
28.61
25.76
23.64
22.37
21.96
22.30
23.37
25.23
27.99
31.68
36.05
40.57
44.50
47.10
47.74
46.05
41.95
35.64
27.54
18.27
8.58
-0.71
-8.86
-15.35
-19.94
-22.70
-23.84
-23.67
-22.46
-20.41
-17.71
-14.57
-11.29
-8.24
-5.79
-4.19
-3.57
-3.87
-4.84
-6.19
-7.65
-9.17
-10.93
-13.35
-16.90
-21.87
-28.13
-35.03
-41.56
-46.59
-49.20
-48.91
-45.76
-40.25
-33.20
-25.62
-18.55
-12.98
-9.66
-8.99
-10.82
-14.38
-18.39
-21.27
-21.52
-18.18
-11.11
-1.08
10.45
21.79
31.42
38.33
42.16
43.03
41.27
37.30
31.38
23.65
14.08
2.60
-10.84
-25.99
-42.08
-57.65
-70.65
-78.96
-80.94
-76.08
-65.20
-50.25
-33.64
-17.57
-3.53
7.83
16.48
22.69
26.79
29.12
30.08
30.15
29.77
29.24
28.61
27.62
25.89
23.11
19.25
14.61
9.71
5.13
1.30
-1.65
-3.80
-5.34
-6.42
-6.98
-6.81
-5.62
-3.18
0.61
5.65
11.76
18.65
25.99
33.35
40.29
46.38
51.37
55.28
58.28
60.59
62.28
63.13
62.80
60.97
57.51
52.61
46.56
39.60
31.72
22.68
12.30
0.81
-10.95
-21.63
-29.78
-34.36
-35.06
-32.34
-27.09
-20.26
-12.52
-4.25
4.29
12.71
20.42
26.73
31.07
33.25
33.40
31.93
29.32
25.99
22.25
18.29
14.23
10.16
6.15
2.24
-1.63
-5.66
-10.26
-16.01
-23.53
-33.30
-45.41
-59.50
-74.78
-90.21
-104.81
-117.86
-128.92
-137.83
-144.59
-149.28
-152.08
-153.16
-152.59
-150.29
-146.10
-140.02
-132.35
-123.60
-114.22
-104.15
-92.74
-78.99
-61.99
-41.30
-16.94
10.78
41.37
73.97
106.99
137.97
164.09
183.01
193.77
197.09
194.79
188.78
180.34
169.85
157.38
143.27
128.41
114.04
101.12
89.96
80.18
71.10
62.12
53.04
44.02
35.43
27.62
20.78
14.84
9.51
4.53
-0.34
-5.05
-9.38
-12.97
-15.52
-16.87
-17.07
-16.31
-14.86
-12.99
-10.90
-8.73
-6.59
-4.62
-2.96
-1.77
-1.18
-1.22
-1.86
-2.98
-4.47
-6.15
-7.83
-9.26
-10.12
-10.13
-9.14
-7.14
-4.38
-1.22
1.89
4.57
6.55
7.65
7.76
6.88
5.11
2.66
-0.15
-3.09
-6.03
-9.10
-12.60
-16.89
-22.18
-28.44
-35.46
-42.92
-50.51
-57.93
-64.85
-70.84
-75.34
-77.77
-77.82
-75.52
-71.32
-65.88
-59.83
-53.56
-47.21
-40.75
-34.18
-27.66
-21.52
-16.16
-11.92
-8.98
-7.25
-6.46
-6.17
-5.95
-5.53
-4.87
-4.16
-3.79
-4.10
-5.30
-7.33
-9.87
-12.42
-14.47
-15.59
-15.56
-14.38
-12.27
-9.60
-6.72
-3.93
-1.41
0.80
2.67
4.16
5.20
5.77
5.97
6.07
6.44
7.40
9.09
11.38
13.91
16.35
18.50
20.41
22.28
24.34
26.64
29.10
31.58
34.00
36.47
39.17
42.29
45.79
49.49
53.07
56.36
59.52
63.06
67.77
74.35
83.17
94.01
106.17
118.76
131.11
143.12
155.22
168.07
182.07
196.94
211.69
224.95
235.57
243.01
247.46
249.39
249.06
246.15
239.69
228.38
210.95
186.28
153.37
111.46
60.53
2.17
-59.80
-119.59
-170.74
-208.20
-230.06
-238.16
-236.97
-231.70
-226.25
-222.31
-219.68
-217.26
-214.19
-210.17
-205.35
-199.76
-193.05
-184.66
-174.21
-161.89
-148.55
-135.46
-123.85
-114.43
-107.20
-101.48
-96.26
-90.66
-84.20
-76.97
-69.51
-62.41
-56.06
-50.50
-45.49
-40.70
-35.94
-31.25
-26.86
-23.08
-20.13
-18.15
-17.09
-16.79
-16.97
-17.25
-17.26
-16.69
-15.43
-13.57
-11.34
-9.00
-6.71
-4.55
-2.56
-0.82
0.44
1.00
0.74
-0.22
-1.55
-2.87
-3.99
-4.98
-6.09
-7.51
-9.23
-10.95
-12.30
-13.05
-13.31
-13.53
-14.27
-15.93
-18.52
-21.67
-24.77
-27.22
-28.76
-29.45
-29.65
-29.84
-30.46
-31.77
-33.86
-36.70
-40.08
-43.59
-46.58
-48.17
-47.53
-44.12
-37.91
-29.35
-18.93
-6.81
7.40
24.37
44.30
66.24
87.88
106.14
118.38
123.45
122.19
116.79
109.69
102.41
95.15
87.15
77.65
66.67
55.10
44.36
35.59
29.17
24.79
21.62
18.85
16.05
13.21
10.59
8.47
6.96
5.99
5.44
5.12
4.81
4.21
2.87
0.26
-4.14
-10.70
-19.34
-29.43
-40.17
-50.88
-60.99
-70.02
-77.37
-82.22
-84.00
-82.35
-77.11
-69.26
-60.47
-52.39
-46.14
-42.05
-39.83
-39.40
-40.42
-41.82
-43.11
-44.12
-44.41
-43.46
-41.01
-37.23
-33.59
-31.34
-30.18
-30.17
-31.34
-33.09
-34.59
-35.17
-34.61
-34.18
-34.74
-35.04
-34.55
-33.09
-30.28
-25.96
-20.31
-7.26
13.79
32.22
46.41
59.28
72.04
84.91
97.27
108.16
116.94
122.37
124.18
124.29
123.44
121.82
119.43
116.25
112.71
109.96
108.42
108.56
111.51
116.43
121.69
125.14
124.82
119.82
110.72
98.26
83.37
67.48
48.37
27.32
7.76
-7.75
-20.48
-32.36
-44.88
-59.17
-73.05
-85.19
-94.28
-100.04
-103.24
-104.79
-104.89
-103.11
-98.68
-90.81
-79.88
-66.91
-53.94
-43.36
-36.77
-34.38
-35.26
-38.01
-41.14
-43.66
-44.70
-43.93
-41.50
-37.68
-32.71
-26.99
-21.13
-15.69
-11.16
-7.38
-3.92
-0.30
3.71
7.91
11.73
14.52
16.08
16.82
17.66
19.44
22.49
26.50
30.71
34.28
36.61
37.45
36.86
35.09
32.53
29.63
26.82
24.42
22.45
20.68
18.63
15.90
12.33
8.14
3.76
-0.41
-4.18
-7.70
-11.21
-14.82
-18.31
-21.21
-23.06
-23.69
-23.32
-22.50
-21.84
-21.81
-22.58
-24.12
-26.21
-28.56
-30.73
-32.13
-32.02
-29.65
-24.52
-16.57
-6.34
5.07
16.24
25.86
33.21
38.41
42.38
46.32
51.01
56.31
61.10
63.84
63.36
59.48
53.03
45.40
37.75
30.56
23.71
16.89
10.12
3.86
-1.26
-4.93
-7.33
-9.17
-11.17
-13.77
-16.96
-20.29
-23.21
-25.29
-26.37
-26.49
-25.89
-24.78
-23.21
-21.00
-17.80
-13.32
-7.46
-0.60
6.58
13.29
18.97
23.40
26.71
29.19
31.03
32.39
33.25
33.74
33.99
34.08
33.86
32.85
30.31
25.44
17.83
7.57
-4.63
-17.67
-30.50
-42.38
-52.99
-62.33
-70.48
-77.47
-83.23
-87.55
-90.19
-90.94
-89.62
-86.17
-80.79
-73.96
-66.26
-58.40
-50.98
-44.34
-38.66
-33.81
-29.47
-25.08
-20.05
-13.91
-6.66
1.18
8.61
14.59
18.41
19.98
19.88
18.99
18.19
17.99
18.48
19.41
20.50
21.51
22.42
23.27
24.17
25.24
26.54
28.15
30.11
32.46
35.18
38.20
41.36
44.42
47.10
49.10
50.20
50.38
49.75
48.57
47.07
45.40
43.54
41.42
38.96
36.18
33.23
30.28
27.44
24.73
22.07
19.35
16.50
13.55
10.57
7.66
4.92
2.41
0.23
-1.50
-2.69
-3.29
-3.37
-3.07
-2.56
-1.86
-0.88
0.53
2.49
4.96
7.68
10.29
12.42
13.82
14.45
14.41
13.88
12.99
11.82
10.39
8.71
6.87
5.08
3.65
2.87
2.86
3.55
4.67
5.88
6.92
7.75
8.48
9.33
10.50
12.09
14.13
16.67
19.84
23.80
28.62
34.14
39.88
45.09
49.00
50.99
50.79
48.42
44.15
38.36
31.40
23.67
15.52
7.28
-0.77
-8.52
-15.99
-23.29
-30.57
-37.88
-45.11
-52.06
-58.45
-64.02
-68.61
-72.16
-74.77
-76.58
-77.80
-78.51
-78.65
-78.02
-76.32
-73.37
-69.17
-64.03
-58.40
-52.83
-47.72
-43.22
-39.22
-35.48
-31.77
-27.95
-23.97
-19.77
-15.18
-9.90
-3.61
3.88
12.51
21.95
31.70
41.17
49.92
57.62
64.10
69.28
73.09
75.47
76.36
75.75
73.68
70.33
65.94
60.86
55.45
49.99
44.65
39.51
34.64
30.18
26.38
23.55
21.95
21.76
22.99
25.64
29.68
35.17
42.20
50.79
60.65
71.11
81.24
89.97
96.40
99.98
100.56
98.23
93.16
85.42
75.03
62.05
46.78
29.98
12.85
-3.19
-16.94
-27.82
-36.14
-42.84
-48.98
-55.18
-61.39
-67.11
-71.91
-75.76
-79.12
-82.44
-85.71
-88.19
-88.71
-86.50
-81.78
-75.95
-71.03
-68.77
-69.76
-73.12
-76.81
-78.48
-76.30
-69.55
-58.64
-44.72
-29.28
-13.91
-0.16
10.41
16.43
17.24
13.29
6.28
-1.22
-6.82
-9.18
-8.53
-6.42
-4.84
-5.16
-7.54
-11.00
-14.02
-15.34
-14.42
-11.59
-7.67
-3.51
0.33
3.59
6.17
7.96
8.78
8.59
7.64
6.50
5.79
5.84
6.43
6.83
6.20
4.15
0.93
-2.55
-5.25
-6.44
-6.15
-5.21
-4.89
-6.42
-10.41
-16.59
-23.80
-30.30
-34.30
-34.42
-30.16
-22.10
-11.82
-1.57
6.35
10.22
9.38
4.39
-3.20
-11.53
-19.07
-25.11
-29.70
-33.33
-36.47
-39.38
-42.04
-44.17
-45.22
-44.45
-41.10
-34.82
-26.04
-16.04
-6.70
0.07
3.12
2.47
-0.75
-4.76
-7.89
-8.95
-7.43
-3.41
2.42
9.00
15.05
19.36
21.29
20.89
19.13
17.62
17.77
19.84
23.03
26.02
27.81
28.29
27.86
27.46
28.19
30.46
33.22
35.07
35.21
33.97
32.76
31.85
30.77
28.90
25.65
20.32
13.34
6.39
1.49
0.03
0.01
-1.53
-6.19
-13.90
-24.10
-35.84
-48.28
-61.28
-74.88
-91.46
-113.00
-140.02
-162.78
-172.06
-164.78
-144.89
-125.45
-103.34
-74.14
-36.55
10.27
59.54
100.29
123.30
125.15
109.32
84.00
57.82
37.81
27.72
26.09
27.89
28.94
28.48
29.08
34.03
46.01
66.37
95.02
128.71
157.07
168.87
159.47
142.97
126.28
111.19
93.14
70.80
44.25
15.38
-11.50
-31.37
-41.12
-42.38
-38.61
-33.68
-30.08
-29.42
-32.06
-36.76
-41.63
-45.36
-48.91
-52.87
-57.22
-61.13
-64.18
-66.32
-67.42
-67.14
-65.05
-61.33
-55.16
-45.21
-30.20
-10.06
13.94
39.54
63.91
83.95
96.65
100.44
95.46
83.39
66.69
47.92
29.31
12.45
-1.69
-12.79
-20.71
-25.51
-27.60
-27.80
-27.18
-26.69
-26.88
-27.88
-29.49
-31.38
-33.28
-34.92
-36.01
-36.17
-35.04
-32.47
-28.64
-24.13
-19.73
-16.23
-14.17
-13.68
-14.43
-15.70
-16.54
-16.15
-14.20
-11.10
-7.96
-6.18
-6.83
-10.02
-14.82
-19.38
-21.65
-20.06
-14.02
-4.08
8.25
20.90
31.79
39.25
42.35
41.08
36.26
29.24
21.51
14.23
7.97
2.73
-1.89
-6.29
-10.58
-14.47
-17.50
-19.16
-19.18
-17.52
-14.27
-9.42
-2.92
5.26
14.78
24.71
33.64
40.04
42.81
41.72
37.47
31.45
25.20
20.01
16.49
14.54
13.45
12.29
10.33
7.39
3.98
1.12
-0.13
0.80
3.53
6.80
9.01
8.87
6.09
1.50
-3.34
-6.67
-7.19
-4.28
1.94
10.71
20.71
30.09
36.71
38.57
34.73
25.94
14.67
4.16
-3.35
-8.06
-12.93
-22.17
-38.91
-63.02
-90.77
-116.37
-134.73
-143.81
-145.11
-142.16
-138.02
-133.54
-127.17
-116.46
-99.78
-77.08
-49.39
-17.58
18.39
59.02
103.67
149.11
189.28
216.88
226.30
216.08
189.83
154.64
118.29
86.42
61.35
42.47
27.92
16.21
6.97
0.64
-2.42
-2.72
-1.74
-1.36
-3.05
-7.47
-14.69
-24.90
-38.92
-57.99
-82.90
-112.68
-143.98
-171.54
-189.81
-195.12
-187.14
-168.91
-145.37
-121.36
-100.15
-83.16
-70.52
-61.82
-56.48
-53.64
-52.09
-50.54
-48.07
-44.43
-39.81
-34.26
-27.13
-17.22
-3.56
13.61
32.47
50.15
64.06
73.14
78.33
81.83
85.78
91.15
97.39
103.17
107.37
109.81
111.24
112.69
114.62
116.57
117.42
116.10
112.32
106.76
100.79
95.70
92.09
89.65
87.37
84.21
79.58
73.68
67.36
61.66
57.37
54.60
52.82
51.13
48.66
44.95
40.16
34.85
29.77
25.48
22.10
19.39
16.91
14.30
11.37
8.15
4.71
1.10
-2.66
-6.57
-10.53
-14.40
-18.08
-21.60
-25.14
-28.92
-33.02
-37.25
-41.20
-44.43
-46.71
-48.15
-49.11
-49.96
-50.82
-51.53
-51.68
-50.93
-49.16
-46.60
-43.73
-41.01
-38.73
-36.85
-35.06
-32.88
-29.74
-25.14
-18.74
-10.49
-0.81
9.38
18.78
25.97
29.79
29.73
26.11
20.04
13.08
6.83
2.46
0.45
0.55
1.90
3.38
3.86
2.53
-0.95
-6.48
-13.71
-22.09
-31.05
-39.98
-48.24
-55.18
-60.18
-62.88
-63.22
-61.44
-57.82
-52.71
-46.49
-39.61
-32.74
-26.70
-22.46
-20.68
-21.61
-24.65
-28.63
-32.22
-34.23
-33.92
-31.11
-26.24
-19.94
-12.95
-5.53
2.11
9.56
16.28
21.63
25.25
27.02
27.59
27.80
28.83
31.28
34.80
38.69
42.27
45.53
48.82
53.16
55.76
54.41
48.67
40.44
32.80
27.85
28.26
32.92
40.46
49.50
59.55
70.73
80.68
88.08
91.86
91.34
86.02
76.12
62.24
45.74
28.20
10.97
-4.74
-18.28
-29.43
-38.52
-45.80
-51.63
-56.10
-59.28
-61.42
-62.64
-63.18
-63.28
-63.22
-63.03
-62.75
-62.33
-61.74
-61.02
-60.12
-59.05
-57.85
-56.61
-55.19
-53.30
-50.39
-45.92
-39.60
-31.45
-21.89
-11.55
-1.07
9.12
18.73
27.51
35.14
41.23
45.43
47.54
47.50
45.41
41.47
35.89
28.94
20.93
12.22
3.27
-5.47
-13.56
-20.68
-26.61
-31.33
-34.97
-37.77
-39.89
-41.35
-41.99
-41.53
-39.78
-36.72
-32.59
-27.80
-22.75
-17.66
-12.52
-7.18
-1.48
4.61
10.90
16.97
22.30
26.47
29.21
30.44
30.10
28.15
24.49
19.08
12.03
3.77
-4.98
-13.38
-20.70
-26.48
-30.65
-33.43
-35.25
-36.53
-37.63
-38.80
-40.19
-41.82
-43.63
-45.49
-47.28
-48.89
-50.32
-51.57
-52.66
-53.51
-53.91
-53.56
-52.11
-49.31
-45.05
-39.34
-32.32
-24.15
-15.04
-5.25
4.93
15.19
25.26
34.95
44.14
52.80
60.88
68.31
74.96
80.70
85.36
88.81
90.90
91.53
90.66
88.33
84.72
80.20
75.28
70.61
66.87
64.68
64.60
67.11
72.50
80.87
91.94
104.88
118.38
130.71
140.12
145.15
144.85
138.88
127.42
111.03
90.52
66.88
41.30
15.06
-10.57
-34.44
-55.61
-73.42
-87.37
-97.15
-102.62
-103.82
-101.04
-94.88
-86.17
-75.95
-65.25
-54.98
-45.79
-38.06
-31.92
-27.51
-25.06
-24.92
-27.36
-32.24
-38.79
-45.66
-51.27
-54.35
-54.44
-51.97
-48.02
-43.77
-40.09
-37.33
-35.44
-34.23
-33.59
-33.43
-33.60
-33.76
-33.43
-32.21
-29.99
-27.06
-23.99
-21.36
-19.51
-18.43
-17.80
-17.21
-16.36
-15.16
-13.72
-12.31
-11.22
-10.69
-10.77
-11.29
-11.93
-12.25
-11.93
-10.89
-9.43
-8.06
-7.31
-7.50
-8.56
-10.13
-11.66
-12.72
-13.04
-12.57
-11.43
-9.78
-7.85
-5.94
-4.47
-3.85
-4.47
-6.44
-9.56
-13.30
-16.88
-19.38
-19.92
-17.79
-12.66
-4.79
4.76
14.20
21.32
24.21
22.09
15.74
7.37
-0.13
-4.35
-4.21
-0.29
5.62
11.43
15.56
17.44
17.58
17.23
17.97
21.15
27.45
36.49
46.78
56.16
62.48
64.50
62.39
57.79
53.05
50.39
51.05
54.97
61.07
67.81
73.74
77.84
79.44
78.13
73.66
65.96
55.41
42.98
30.10
18.24
8.46
0.94
-4.94
-10.25
-15.87
-22.07
-28.37
-33.86
-37.66
-39.33
-39.00
-37.28
-34.92
-32.56
-30.58
-29.02
-27.71
-26.32
-24.53
-22.15
-19.22
-16.06
-13.20
-11.24
-10.60
-11.28
-12.88
-14.69
-16.03
-16.58
-16.61
-16.95
-18.72
-22.80
-29.41
-37.85
-46.60
-53.71
-57.40
-56.59
-51.19
-42.16
-31.23
-20.47
-11.77
-6.36
-4.61
-5.98
-9.33
-13.27
-16.59
-18.46
-18.52
-16.77
-13.44
-8.93
-3.72
1.57
6.41
10.43
13.55
16.09
18.50
21.19
24.29
27.52
30.28
31.80
31.44
28.80
23.86
16.95
8.72
0.06
-8.09
-14.95
-20.03
-23.33
-25.19
-26.20
-26.93
-27.75
-28.72
-29.65
-30.24
-30.23
-29.48
-28.02
-25.89
-23.20
-19.96
-16.20
-11.97
-7.47
-2.97
1.24
5.05
8.52
11.82
15.03
18.09
20.78
22.89
24.41
25.53
26.54
27.58
28.55
29.15
29.04
28.09
26.44
24.38
22.22
20.12
18.05
15.96
13.87
11.91
10.33
9.36
9.17
9.74
10.93
12.39
13.63
14.14
13.47
11.46
8.38
4.87
1.73
-0.33
-0.97
-0.25
1.45
3.65
5.90
7.82
9.03
9.16
7.95
5.39
1.80
-2.20
-5.97
-9.06
-11.36
-13.09
-14.52
-15.76
-16.58
-16.47
-14.83
-11.28
-5.89
0.73
7.56
13.54
17.91
20.41
21.28
21.06
20.32
19.48
18.81
18.55
18.89
19.99
21.77
23.83
25.57
26.42
26.15
25.02
23.62
22.66
22.55
23.24
24.14
24.38
23.02
19.44
13.51
5.68
-3.13
-11.77
-19.15
-24.52
-27.55
-28.22
-26.63
-22.95
-17.51
-11.03
-4.73
-0.16
1.28
-1.10
-6.91
-14.83
-23.11
-30.26
-35.45
-38.50
-39.49
-38.43
-35.12
-29.42
-21.56
-12.28
-2.69
6.14
13.50
19.17
23.25
25.89
27.11
26.81
24.99
21.87
17.91
13.67
9.60
5.90
2.52
-0.69
-3.88
-7.09
-10.23
-13.11
-15.64
-17.78
-19.66
-21.50
-23.52
-25.81
-28.30
-30.78
-33.01
-34.81
-36.16
-37.18
-38.03
-38.85
-39.65
-40.27
-40.36
-39.45
-37.07
-32.93
-27.04
-19.78
-11.83
-4.02
2.83
8.13
11.61
13.32
13.56
12.79
11.47
9.98
8.54
7.24
6.12
5.28
4.86
5.00
5.71
6.80
7.94
8.80
9.22
9.29
9.25
9.35
9.66
10.02
10.04
9.31
7.60
5.00
1.98
-0.75
-2.45
-2.63
-1.18
1.54
4.87
8.07
10.57
12.15
12.94
13.36
13.95
15.18
17.38
20.61
24.61
28.84
32.49
34.76
35.07
33.30
29.86
25.53
21.24
17.67
15.13
13.51
12.49
11.71
10.91
9.99
8.87
7.50
5.85
3.90
1.76
-0.37
-2.26
-3.76
-4.88
-5.83
-6.91
-8.33
-10.14
-12.15
-13.96
-15.20
-15.60
-15.13
-13.94
-12.33
-10.56
-8.84
-7.27
-5.81
-4.38
-2.87
-1.25
0.37
1.70
2.42
2.22
1.04
-0.96
-3.46
-6.03
-8.35
-10.14
-11.21
-11.39
-10.56
-8.69
-5.94
-2.72
0.38
2.73
3.79
3.26
1.14
-2.26
-6.34
-10.36
-13.60
-15.51
-15.88
-14.87
-12.89
-10.42
-7.85
-5.36
-2.99
-0.72
1.43
3.29
4.68
5.47
5.71
5.65
5.63
5.91
6.56
7.39
8.12
8.51
8.51
8.29
8.12
8.14
8.27
8.21
7.59
6.22
4.21
1.93
-0.16
-1.73
-2.67
-3.13
-3.39
-3.67
-4.09
-4.57
-4.99
-5.17
-5.02
-4.51
-3.67
-2.57
-1.26
0.28
2.12
4.29
6.73
9.21
11.33
12.73
13.26
13.06
12.51
12.00
11.71
11.48
10.95
9.81
8.01
5.84
3.71
1.97
0.77
0.03
-0.39
-0.50
-0.25
0.46
1.56
2.81
3.81
4.21
3.81
2.70
1.18
-0.31
-1.39
-1.80
-1.54
-0.81
0.01
0.52
0.45
-0.30
-1.61
-3.22
-4.81
-6.15
-7.10
-7.70
-8.08
-8.44
-8.94
-9.64
-10.40
-11.02
-11.26
-10.99
-10.31
-9.49
-8.85
-8.67
-9.06
-9.99
-11.37
-13.03
-14.77
-16.36
-17.51
-17.97
-17.56
-16.31
-14.36
-12.00
-9.44
-6.78
-3.94
-0.72
3.00
7.18
11.55
15.62
18.98
21.39
22.94
23.96
24.85
25.82
26.85
27.68
28.11
28.15
28.10
28.41
29.45
31.33
33.78
36.32
38.39
39.50
39.30
37.51
33.89
28.30
20.73
11.47
1.12
-9.47
-19.41
-28.08
-35.30
-41.26
-46.26
-50.49
-53.86
-56.10
-57.03
-56.74
-55.63
-54.17
-52.65
-51.01
-48.96
-46.21
-42.79
-39.06
-35.55
-32.63
-30.30
-28.18
-25.71
-22.49
-18.41
-13.75
-8.94
-4.38
-0.25
3.58
7.39
11.42
15.70
19.98
23.78
26.57
27.96
27.80
26.22
23.58
20.38
17.20
14.61
13.06
12.75
13.54
15.01
16.52
17.52
17.71
17.14
16.15
15.21
14.68
14.69
15.05
15.40
15.25
14.16
11.89
8.49
4.39
0.25
-3.16
-5.21
-5.54
-4.20
-1.52
2.01
5.96
9.99
13.85
17.27
19.85
21.00
20.16
16.97
11.57
4.67
-2.62
-9.09
-13.80
-16.31
-16.68
-15.36
-12.99
-10.23
-7.73
-6.06
-5.74
-7.10
-10.13
-14.45
-19.38
-24.15
-28.18
-31.24
-33.39
-34.92
-36.09
-37.02
-37.67
-37.90
-37.63
-36.92
-35.91
-34.74
-33.48
-31.96
-29.91
-26.99
-22.95
-17.76
-11.61
-4.94
1.69
7.73
12.73
16.37
18.44
18.91
17.94
15.96
13.64
11.81
11.14
12.01
14.32
17.61
21.23
24.60
27.37
29.50
31.13
32.51
33.87
35.32
36.88
38.36
39.45
39.78
39.09
37.25
34.37
30.68
26.45
21.93
17.31
12.84
8.79
5.40
2.80
0.93
-0.44
-1.55
-2.52
-3.30
-3.68
-3.45
-2.57
-1.21
0.34
1.77
2.96
4.00
5.09
6.40
7.91
9.38
10.42
10.67
9.92
8.14
5.51
2.28
-1.32
-5.08
-8.81
-12.29
-15.28
-17.56
-18.93
-19.34
-18.91
-17.90
-16.65
-15.54
-14.82
-14.56
-14.61
-14.56
-13.94
-12.35
-9.66
-6.11
-2.22
1.39
4.14
5.67
5.84
4.77
2.75
0.16
-2.58
-5.11
-7.20
-8.80
-10.08
-11.35
-13.01
-15.42
-18.81
-23.15
-28.07
-32.89
-36.85
-39.42
-40.54
-40.63
-40.32
-40.00
-39.60
-38.59
-36.26
-32.21
-26.51
-19.69
-12.40
-5.14
1.92
8.82
15.56
21.92
27.56
32.16
35.72
38.64
41.59
45.15
49.56
54.53
59.34
63.17
65.42
65.86
64.65
62.10
58.53
54.22
49.49
44.74
40.55
37.49
36.04
36.38
38.36
41.51
45.08
48.23
50.16
50.38
48.86
46.00
42.51
39.15
36.45
34.54
33.22
32.00
30.30
27.65
23.73
18.50
12.13
5.02
-2.35
-9.49
-16.08
-21.96
-27.18
-31.97
-36.53
-41.08
-45.75
-50.54
-55.35
-59.99
-64.27
-67.98
-70.97
-73.07
-74.02
-73.52
-71.25
-67.14
-61.48
-54.93
-48.44
-42.82
-38.51
-35.33
-32.56
-29.23
-24.53
-18.17
-10.53
-2.50
4.89
10.84
14.99
17.47
18.64
18.86
18.24
16.68
13.93
9.88
4.66
-1.31
-7.39
-12.89
-17.21
-20.05
-21.50
-22.07
-22.40
-23.03
-24.03
-24.96
-25.04
-23.56
-20.24
-15.39
-9.81
-4.37
0.28
3.94
6.82
9.31
11.80
14.48
17.43
20.58
23.84
26.99
29.65
31.28
31.25
29.15
25.01
19.44
13.48
8.20
4.36
2.15
1.19
0.86
0.51
-0.22
-1.47
-3.19
-5.29
-7.65
-10.16
-12.72
-15.21
-17.50
-19.44
-20.92
-21.95
-22.60
-23.01
-23.27
-23.32
-22.89
-21.68
-19.52
-16.53
-13.15
-9.96
-7.40
-5.60
-4.31
-3.10
-1.64
0.15
2.05
3.63
4.56
4.66
4.05
3.10
2.22
1.78
1.98
2.82
4.15
5.77
7.50
9.23
10.92
12.51
13.92
15.00
15.62
15.69
15.27
14.60
13.99
13.82
14.29
15.43
17.04
18.88
20.70
22.38
23.93
25.43
26.93
28.44
29.90
31.26
32.50
33.63
34.70
35.73
36.68
37.49
38.10
38.44
38.49
38.13
37.22
35.54
32.93
29.30
24.79
19.68
14.35
9.10
4.04
-0.92
-5.99
-11.42
-17.37
-23.92
-31.01
-38.55
-46.30
-53.87
-60.70
-66.16
-69.78
-71.34
-70.94
-68.88
-65.48
-61.01
-55.73
-50.00
-44.21
-38.73
-33.65
-28.77
-23.75
-18.36
-12.72
-7.21
-2.20
2.41
7.22
13.12
20.64
29.54
38.75
46.78
52.35
54.85
54.42
51.56
46.78
40.34
32.39
23.23
13.61
4.62
-2.68
-7.64
-10.33
-11.40
-11.78
-12.19
-12.88
-13.59
-13.80
-13.03
-11.12
-8.37
-5.46
-3.13
-2.01
-2.29
-3.81
-6.13
-8.83
-11.65
-14.58
-17.73
-21.17
-24.83
-28.39
-31.47
-33.69
-34.87
-35.13
-34.77
-34.18
-33.64
-33.25
-32.94
-32.59
-32.10
-31.44
-30.54
-29.31
-27.59
-25.23
-22.18
-18.48
-14.24
-9.58
-4.64
0.39
5.24
9.53
12.86
14.94
15.75
15.53
14.72
13.81
13.28
13.46
14.57
16.62
19.42
22.64
25.80
28.44
30.22
30.97
30.66
29.40
27.37
24.73
21.72
18.56
15.48
12.69
10.30
8.34
6.80
5.74
5.29
5.66
7.01
9.28
12.20
15.29
18.06
20.17
21.53
22.28
22.69
23.02
23.35
23.63
23.68
23.35
22.60
21.56
20.39
19.32
18.48
17.95
17.78
17.98
18.55
19.46
20.62
21.92
23.21
24.37
25.22
25.56
25.15
23.71
21.11
17.33
12.57
7.18
1.59
-3.82
-8.74
-12.96
-16.36
-18.88
-20.48
-21.16
-20.99
-20.14
-18.91
-17.71
-16.92
-16.78
-17.22
-17.95
-18.50
-18.48
-17.77
-16.50
-15.03
-13.71
-12.76
-12.17
-11.79
-11.42
-10.90
-10.18
-9.31
-8.38
-7.53
-6.87
-6.43
-6.09
-5.68
-4.98
-3.92
-2.64
-1.38
-0.46
0.01
0.16
0.28
0.77
1.86
3.62
5.88
8.34
10.64
12.51
13.77
14.38
14.47
14.27
13.99
13.78
13.65
13.52
13.32
13.00
12.51
11.74
10.55
8.76
6.37
3.59
0.78
-1.67
-3.56
-4.97
-6.14
-7.36
-8.75
-10.19
-11.48
-12.49
-13.25
-13.99
-14.90
-15.96
-16.89
-17.24
-16.67
-15.15
-13.01
-10.82
-9.10
-8.12
-7.80
-7.77
-7.65
-7.21
-6.49
-5.67
-4.98
-4.50
-4.17
-3.76
-3.09
-2.05
-0.76
0.52
1.42
1.70
1.27
0.34
-0.79
-1.79
-2.50
-2.96
-3.35
-3.85
-4.55
-5.38
-6.19
-6.83
-7.26
-7.53
-7.79
-8.20
-8.86
-9.80
-10.94
-12.18
-13.36
-14.36
-15.12
-15.62
-15.87
-15.91
-15.80
-15.55
-15.15
-14.47
-13.31
-11.45
-8.83
-5.61
-2.18
0.86
2.99
3.88
3.52
2.24
0.49
-1.27
-2.72
-3.72
-4.29
-4.56
-4.63
-4.55
-4.25
-3.58
-2.36
-0.55
1.73
4.16
6.37
8.09
9.22
9.88
10.27
10.52
10.64
10.50
9.92
8.81
7.14
4.99
2.50
-0.10
-2.55
-4.58
-5.92
-6.41
-6.02
-4.89
-3.26
-1.38
0.53
2.34
3.99
5.45
6.70
7.73
8.56
9.22
9.79
10.35
10.98
11.67
12.34
12.83
12.94
12.52
11.50
9.96
8.04
5.96
3.91
2.00
0.22
-1.51
-3.26
-5.09
-6.97
-8.80
-10.46
-11.80
-12.71
-13.07
-12.79
-11.80
-10.12
-7.89
-5.35
-2.81
-0.50
1.48
3.19
4.73
6.19
7.54
8.67
9.48
10.02
10.44
10.98
11.80
12.83
13.87
14.60
14.85
14.66
14.30
14.09
14.24
14.75
15.41
15.91
16.00
15.54
14.51
13.00
11.11
8.95
6.68
4.41
2.24
0.18
-1.80
-3.77
-5.76
-7.67
-9.37
-10.70
-11.56
-11.96
-11.93
-11.52
-10.75
-9.64
-8.23
-6.68
-5.17
-3.83
-2.73
-1.77
-0.81
0.28
1.57
3.07
4.74
6.54
8.43
10.32
12.03
13.35
14.11
14.27
13.95
13.38
12.78
12.29
11.90
11.50
10.96
10.20
9.23
8.10
6.88
5.53
3.98
2.11
-0.13
-2.73
-5.55
-8.42
-11.14
-13.60
-15.73
-17.52
-18.94
-20.01
-20.78
-21.36
-21.93
-22.60
-23.39
-24.13
-24.50
-24.16
-22.87
-20.61
-17.59
-14.20
-10.81
-7.72
-5.02
