1653558317.00
64.000000
-0.00
-0.00
-0.00
-0.00
-0.00
-0.00
-0.00
-0.00
-0.00
-0.00
0.00
0.01
0.01
-0.00
-0.03
-0.05
-0.05
0.00
0.13
0.36
0.66
1.01
1.37
1.72
2.06
2.40
2.79
3.24
3.80
4.42
5.06
5.66
6.20
6.68
7.15
7.68
8.31
9.14
10.09
11.04
11.88
12.56
13.14
13.76
14.65
15.96
17.91
20.32
22.90
25.38
27.58
29.57
31.68
34.32
37.81
42.54
48.14
54.10
59.84
65.00
69.63
74.20
79.37
85.65
93.58
102.67
112.14
121.13
129.10
136.07
142.62
150.05
157.01
165.76
176.92
190.62
205.70
219.28
227.00
224.15
207.29
175.47
131.08
78.01
20.69
-37.53
-95.06
-151.70
-207.71
-262.98
-316.82
-367.75
-414.72
-456.75
-493.00
-522.47
-543.87
-555.74
-556.73
-546.03
-523.46
-489.94
-447.09
-397.05
-342.20
-284.94
-227.50
-171.80
-119.39
-71.19
-27.80
10.64
44.19
72.96
96.99
116.27
130.78
140.54
145.60
146.01
142.22
135.46
128.04
123.04
123.39
130.68
144.19
160.95
176.81
188.11
192.94
191.54
185.64
177.31
167.96
158.09
147.66
136.63
125.37
114.49
104.50
95.45
86.94
78.36
69.22
59.67
50.16
41.44
34.23
28.89
25.24
22.66
20.40
17.87
14.88
11.60
8.45
5.86
3.99
2.72
1.67
0.43
-1.23
-3.30
-5.48
-7.34
-8.52
-8.90
-8.63
-8.01
-7.40
-7.02
-6.92
-7.09
-7.45
-7.87
-8.12
-7.85
-6.76
-4.83
-2.43
-0.31
0.76
0.36
-1.31
-3.57
-5.55
-6.68
-6.86
-6.45
-5.89
-5.49
-5.27
-5.10
-4.87
-4.61
-4.46
-4.51
-4.67
-4.74
-4.40
-3.41
-1.79
0.22
2.14
3.55
4.14
3.93
3.16
2.17
1.27
0.58
0.05
-0.41
-0.85
-1.23
-1.41
-1.28
-0.80
-0.04
0.86
1.75
2.57
3.31
4.03
4.74
5.46
6.12
6.69
7.13
7.44
7.65
7.75
7.73
7.49
6.95
6.08
4.90
3.52
1.96
0.28
-1.45
-3.17
-4.77
-6.17
-7.29
-8.13
-8.76
-9.25
-9.68
-10.05
-10.33
-10.43
-10.28
-9.89
-9.33
-8.73
-8.21
-7.88
-7.74
-7.75
-7.77
-7.60
-6.99
-5.82
-4.05
-1.85
0.46
2.53
4.04
4.84
4.97
4.57
3.85
2.96
2.05
1.18
0.42
-0.19
-0.60
-0.80
-0.81
-0.66
-0.37
0.01
0.46
0.94
1.38
1.72
1.92
1.96
1.89
1.75
1.59
1.40
1.18
0.88
0.49
0.03
-0.46
-0.93
-1.35
-1.69
-1.96
-2.26
-2.62
-3.06
-3.50
-3.83
-3.98
-3.99
-4.00
-4.20
-4.73
-5.59
-6.64
-7.67
-8.54
-9.23
-9.81
-10.37
-10.98
-11.65
-12.36
-13.12
-13.99
-15.03
-16.19
-17.28
-17.95
-17.79
-16.46
-13.80
-9.95
-5.29
-0.36
4.31
8.29
11.37
13.48
14.68
15.06
14.76
13.92
12.77
11.54
10.46
9.65
9.13
8.78
8.49
8.20
7.96
7.89
8.11
8.63
9.34
9.97
10.26
10.01
9.19
7.91
6.35
4.71
3.17
1.84
0.77
-0.06
-0.71
-1.30
-1.93
-2.65
-3.40
-4.08
-4.53
-4.70
-4.65
-4.56
-4.64
-5.00
-5.64
-6.44
-7.25
-7.98
-8.65
-9.33
-10.19
-11.39
-13.05
-15.25
-17.92
-20.79
-23.38
-25.07
-25.27
-23.63
-20.18
-15.34
-9.76
-4.19
0.79
4.84
7.85
9.91
11.19
11.89
12.13
12.03
11.69
11.21
10.77
10.53
10.60
10.97
11.54
12.17
12.79
13.46
14.31
15.45
16.88
18.42
19.81
20.77
21.14
20.91
20.16
19.07
17.79
16.43
15.01
13.51
11.84
9.94
7.77
5.37
2.91
0.62
-1.31
-2.73
-3.68
-4.35
-4.94
-5.62
-6.43
-7.27
-7.96
-8.39
-8.52
-8.49
-8.49
-8.72
-9.33
-10.40
-11.94
-13.88
-16.03
-18.12
-19.77
-20.60
-20.31
-18.77
-16.09
-12.54
-8.54
-4.55
-0.96
1.96
4.09
5.47
6.24
6.56
6.57
6.36
6.00
5.57
5.16
4.87
4.74
4.79
4.97
5.23
5.53
5.86
6.18
6.42
6.49
6.30
5.83
5.20
4.53
3.92
3.35
2.75
2.01
1.09
0.07
-0.89
-1.64
-2.09
-2.29
-2.35
-2.38
-2.45
-2.58
-2.76
-2.98
-3.28
-3.71
-4.26
-4.93
-5.69
-6.51
-7.42
-8.54
-9.93
-11.62
-13.38
-14.82
-15.47
-14.89
-12.91
-9.64
-5.47
-0.88
3.61
7.61
10.85
13.21
14.66
15.28
15.22
14.67
13.87
13.00
12.18
11.49
10.94
10.57
10.38
10.38
10.59
10.97
11.47
12.00
12.50
12.91
13.16
13.23
13.09
12.76
12.25
11.61
10.90
10.15
9.41
8.67
7.90
7.05
6.08
4.98
3.81
2.65
1.60
0.67
-0.19
-1.10
-2.17
-3.39
-4.73
-6.06
-7.27
-8.30
-9.19
-10.03
-10.94
-12.03
-13.39
-15.05
-16.93
-18.81
-20.32
-21.04
-20.59
-18.83
-15.84
-11.98
-7.73
-3.60
0.02
2.91
5.03
6.44
7.22
7.42
7.11
6.37
5.39
4.38
3.57
3.10
2.99
3.17
3.54
4.02
4.60
5.26
5.94
6.58
7.06
7.29
7.24
6.98
6.58
6.15
5.77
5.46
5.20
4.90
4.48
3.86
3.06
2.17
1.34
0.69
0.26
-0.04
-0.37
-0.87
-1.56
-2.37
-3.16
-3.80
-4.26
-4.62
-5.00
-5.50
-6.15
-6.88
-7.58
-8.16
-8.59
-8.92
-9.27
-9.75
-10.46
-11.37
-12.37
-13.26
-13.80
-13.73
-12.88
-11.19
-8.73
-5.69
-2.40
0.81
3.63
5.88
7.50
8.55
9.17
9.49
9.68
9.83
10.04
10.36
10.74
11.04
11.08
10.74
10.00
9.05
8.15
7.54
7.28
7.28
7.27
7.05
6.46
5.52
4.34
3.11
2.00
1.18
0.71
0.52
0.46
0.33
-0.04
-0.70
-1.55
-2.40
-3.10
-3.60
-3.96
-4.33
-4.81
-5.43
-6.14
-6.87
-7.57
-8.23
-8.85
-9.48
-10.16
-10.97
-11.97
-13.22
-14.66
-16.06
-17.13
-17.51
-16.94
-15.37
-12.95
-10.03
-7.00
-4.18
-1.76
0.20
1.76
2.96
3.84
4.41
4.66
4.59
4.23
3.66
2.99
2.39
2.00
1.93
2.20
2.73
3.39
4.06
4.64
5.14
5.57
5.94
6.18
6.20
5.88
5.24
4.36
3.44
2.70
2.26
2.13
2.18
2.26
2.24
2.07
1.76
1.39
0.97
0.52
0.04
-0.43
-0.86
-1.24
-1.62
-2.13
-2.92
-4.10
-5.65
-7.44
-9.27
-10.95
-12.37
-13.53
-14.52
-15.50
-16.63
-18.03
-19.71
-21.53
-23.22
-24.36
-24.55
-23.47
-21.03
-17.40
-13.00
-8.33
-3.88
0.03
3.25
5.81
7.77
9.20
10.10
10.44
10.25
9.65
8.85
8.11
7.66
7.64
8.08
8.91
10.00
11.21
12.36
13.29
13.87
14.02
13.74
13.07
12.13
11.06
10.02
9.11
8.41
7.89
7.47
7.06
6.64
6.23
5.87
5.60
5.35
5.06
4.67
4.18
3.66
3.22
2.87
2.56
2.18
1.61
0.83
-0.12
-1.16
-2.19
-3.23
-4.29
-5.42
-6.61
-7.84
-9.04
-10.26
-11.57
-13.05
-14.63
-16.07
-16.94
-16.80
-15.36
-12.63
-9.00
-5.05
-1.39
1.56
3.66
4.99
5.68
5.88
5.62
4.93
3.92
2.80
1.88
1.44
1.61
2.29
3.21
4.06
4.62
4.84
4.87
4.89
5.11
5.66
6.54
7.68
8.89
9.96
10.62
10.70
10.12
8.97
7.42
5.74
4.13
2.72
1.58
0.68
-0.01
-0.48
-0.78
-0.91
-0.94
-0.97
-1.15
-1.65
-2.55
-3.82
-5.31
-6.81
-8.11
-9.09
-9.73
-10.15
-10.50
-10.92
-11.57
-12.57
-13.97
-15.70
-17.55
-19.18
-20.12
-19.99
-18.56
-15.89
-12.29
-8.21
-4.18
-0.59
2.34
4.56
6.14
7.17
7.76
7.97
7.90
7.68
7.48
7.49
7.80
8.35
8.99
9.54
9.87
9.95
9.86
9.75
9.70
9.72
9.73
9.61
9.27
8.64
7.70
6.51
5.16
3.79
2.60
1.75
1.31
1.20
1.23
1.22
1.04
0.68
0.24
-0.17
-0.49
-0.78
-1.09
-1.53
-2.11
-2.80
-3.55
-4.34
-5.17
-6.07
-7.07
-8.18
-9.40
-10.70
-12.06
-13.45
-14.81
-16.07
-17.09
-17.67
-17.64
-16.85
-15.26
-12.96
-10.15
-7.12
-4.15
-1.48
0.73
2.44
3.63
4.32
4.54
4.31
3.73
2.92
2.09
1.52
1.42
1.90
2.93
4.34
5.90
7.36
8.53
9.29
9.59
9.40
8.82
7.97
7.05
6.20
5.51
4.97
4.51
4.03
3.42
2.62
1.59
0.31
-1.23
-2.97
-4.79
-6.54
-8.06
-9.29
-10.26
-11.10
-12.01
-13.16
-14.70
-16.71
-19.20
-22.06
-25.04
-27.71
-29.49
-29.81
-28.28
-24.84
-19.81
-13.84
-7.70
-2.05
2.71
6.44
9.22
11.17
12.44
13.10
13.26
13.03
12.57
12.05
11.65
11.48
11.61
12.03
12.67
13.43
14.17
14.77
15.16
15.30
15.25
15.06
14.74
14.26
13.56
12.62
11.50
10.33
9.26
8.35
7.57
6.79
5.87
4.77
3.55
2.35
1.35
0.63
0.19
-0.02
-0.10
-0.14
-0.18
-0.22
-0.27
-0.29
-0.25
-0.14
-0.02
-0.01
-0.27
-0.91
-1.94
-3.25
-4.64
-5.94
-7.10
-8.26
-9.71
-11.72
-14.47
-17.80
-21.29
-24.27
-26.07
-26.18
-24.33
-20.64
-15.50
-9.50
-3.32
2.36
7.05
10.43
12.49
13.43
13.62
13.44
13.19
13.01
12.93
12.92
13.00
13.22
13.63
14.25
15.06
15.93
16.76
17.48
18.09
18.60
19.03
19.36
19.55
19.54
19.31
18.86
18.21
17.41
16.50
15.51
14.47
13.38
12.21
10.90
9.42
7.78
6.06
4.37
2.83
1.51
0.40
-0.63
-1.76
-3.15
-4.90
-6.97
-9.19
-11.32
-13.12
-14.51
-15.55
-16.43
-17.41
-18.75
-20.62
-23.04
-25.88
-28.80
-31.25
-32.56
-32.10
-29.52
-24.88
-18.67
-11.68
-4.78
1.30
6.14
9.58
11.69
12.67
12.77
12.27
11.45
10.62
10.02
9.79
9.97
10.48
11.22
12.08
13.01
14.02
15.13
16.35
17.62
18.86
19.92
20.61
20.78
20.31
19.25
17.76
16.11
14.55
13.20
12.04
10.91
9.62
8.08
6.36
4.65
3.14
1.94
1.00
0.21
-0.59
-1.49
-2.51
-3.62
-4.75
-5.89
-7.05
-8.27
-9.57
-10.93
-12.32
-13.66
-14.91
-16.10
-17.26
-18.49
-19.92
-21.66
-23.77
-26.22
-28.77
-31.02
-32.39
-32.32
-30.35
-26.37
-20.65
-13.78
-6.60
0.13
5.81
10.16
13.21
15.15
16.25
16.71
16.65
16.16
15.35
14.44
13.65
13.19
13.15
13.44
13.90
14.39
14.82
15.21
15.62
16.05
16.40
16.51
16.25
15.54
14.49
13.23
11.98
10.85
9.90
9.10
8.38
7.66
6.87
5.96
4.95
3.86
2.76
1.72
0.79
-0.04
-0.85
-1.74
-2.81
-4.09
-5.56
-7.11
-8.64
-10.05
-11.31
-12.47
-13.58
-14.70
-15.85
-17.04
-18.29
-19.70
-21.37
-23.37
-25.60
-27.72
-29.17
-29.38
-27.92
-24.68
-19.93
-14.23
-8.23
-2.51
2.51
6.64
9.80
12.03
13.39
13.94
13.79
13.09
12.04
10.86
9.79
8.99
8.60
8.64
9.14
10.07
11.33
12.76
14.13
15.19
15.72
15.65
15.04
14.05
12.87
11.64
10.44
9.28
8.18
7.11
6.08
5.05
3.96
2.82
1.67
0.60
-0.30
-1.01
-1.64
-2.36
-3.32
-4.61
-6.20
-8.00
-9.92
-11.89
-13.85
-15.74
-17.46
-18.95
-20.28
-21.70
-23.55
-26.06
-29.18
-32.46
-35.12
-36.31
-35.40
-32.19
-27.01
-20.51
-13.53
-6.79
-0.80
4.14
7.92
10.52
12.02
12.55
12.36
11.77
11.10
10.54
10.22
10.14
10.28
10.64
11.25
12.16
13.37
14.78
16.25
17.63
18.82
19.76
20.41
20.71
20.62
20.10
19.16
17.91
16.48
15.00
13.49
11.94
10.27
8.42
6.41
4.30
2.20
0.24
-1.45
-2.78
-3.71
-4.31
-4.73
-5.23
-6.05
-7.32
-8.97
-10.77
-12.44
-13.80
-14.83
-15.67
-16.56
-17.71
-19.27
-21.33
-23.83
-26.59
-29.18
-31.00
-31.35
-29.69
-25.84
-20.11
-13.24
-6.14
0.38
5.80
9.97
12.96
14.91
15.92
16.06
15.47
14.37
13.14
12.10
11.51
11.40
11.62
11.97
12.31
12.64
13.10
13.81
14.81
15.95
17.00
17.64
17.69
17.09
15.95
14.45
12.83
11.24
9.78
8.49
7.34
6.28
5.24
4.13
2.90
1.51
-0.02
-1.63
-3.22
-4.73
-6.13
-7.46
-8.81
-10.27
-11.90
-13.67
-15.45
-17.08
-18.41
-19.37
-20.04
-20.58
-21.24
-22.24
-23.73
-25.68
-27.79
-29.50
-30.10
-28.92
-25.62
-20.33
-13.71
-6.69
-0.18
5.18
9.14
11.78
13.33
14.02
13.99
13.36
12.27
10.99
9.82
9.05
8.81
9.09
9.73
10.51
11.30
12.06
12.84
13.68
14.55
15.31
15.75
15.67
15.00
13.81
12.28
10.62
9.01
7.53
6.22
5.08
4.07
3.18
2.33
1.42
0.38
-0.88
-2.38
-4.08
-5.91
-7.80
-9.67
-11.48
-13.17
-14.75
-16.24
-17.70
-19.22
-20.92
-22.92
-25.33
-28.28
-31.76
-35.65
-39.57
-42.89
-44.88
-44.90
-42.62
-38.13
-31.91
-24.66
-17.09
-9.75
-3.07
2.71
7.42
10.99
13.48
15.10
16.18
17.09
18.18
19.63
21.49
23.66
25.96
28.20
30.21
31.86
33.04
33.68
33.73
33.17
32.03
30.39
28.39
26.14
23.76
21.29
18.76
16.21
13.70
11.33
9.17
7.27
5.65
4.29
3.20
2.37
1.77
1.32
0.90
0.37
-0.32
-1.18
-2.12
-3.08
-4.05
-5.08
-6.26
-7.67
-9.31
-11.13
-12.99
-14.77
-16.33
-17.65
-18.84
-20.13
-21.83
-24.18
-27.24
-30.70
-33.93
-36.10
-36.42
-34.38
-29.92
-23.50
-15.88
-7.99
-0.62
5.65
10.56
14.05
16.24
17.29
17.42
16.84
15.82
14.61
13.50
12.72
12.42
12.63
13.31
14.33
15.55
16.88
18.23
19.56
20.76
21.73
22.31
22.37
21.85
20.78
19.26
17.47
15.57
13.74
12.09
10.72
9.62
8.75
8.03
7.39
6.77
6.16
5.58
4.99
4.31
3.43
2.28
0.89
-0.64
-2.14
-3.48
-4.64
-5.70
-6.79
-8.05
-9.55
-11.28
-13.14
-14.99
-16.69
-18.19
-19.53
-20.89
-22.52
-24.68
-27.46
-30.70
-33.94
-36.48
-37.52
-36.42
-32.87
-27.06
-19.59
-11.35
-3.26
3.88
9.55
13.53
15.88
16.81
16.68
15.85
14.68
13.42
12.25
11.32
10.77
10.72
11.30
12.50
14.17
16.05
17.83
19.33
20.46
21.26
21.74
21.86
21.55
20.74
19.49
17.97
16.42
15.02
13.85
12.89
12.05
11.22
10.38
9.54
8.73
7.97
7.27
6.59
5.91
5.14
4.22
3.08
1.73
0.22
-1.30
-2.70
-3.92
-5.02
-6.13
-7.39
-8.90
-10.64
-12.53
-14.42
-16.22
-17.85
-19.33
-20.74
-22.23
-24.00
-26.26
-29.07
-32.26
-35.35
-37.60
-38.19
-36.51
-32.35
-26.05
-18.37
-10.30
-2.77
3.57
8.39
11.67
13.60
14.43
14.43
13.84
12.88
11.76
10.72
9.97
9.71
10.10
11.14
12.74
14.65
16.58
18.27
19.55
20.39
20.83
20.96
20.82
20.36
19.50
18.22
16.56
14.68
12.77
11.05
9.61
8.46
7.54
6.71
5.87
4.97
4.00
2.99
1.95
0.92
-0.08
-1.00
-1.82
-2.52
-3.17
-3.88
-4.79
-5.98
-7.48
-9.22
-11.09
-12.96
-14.76
-16.41
-17.91
-19.28
-20.60
-22.03
-23.77
-25.97
-28.61
-31.44
-33.91
-35.33
-34.99
-32.44
-27.63
-20.98
-13.29
-5.52
1.45
7.05
11.05
13.54
14.77
15.05
14.65
13.80
12.70
11.58
10.62
9.97
9.71
9.84
10.33
11.10
12.12
13.37
14.79
16.32
17.78
18.95
19.61
19.61
18.93
17.70
16.14
14.52
12.99
11.64
10.41
9.24
8.07
6.89
5.73
4.63
3.59
2.56
1.51
0.40
-0.76
-1.94
-3.09
-4.17
-5.16
-6.05
-6.84
-7.58
-8.35
-9.27
-10.43
-11.86
-13.47
-15.11
-16.62
-17.92
-19.04
-20.15
-21.48
-23.26
-25.60
-28.37
-31.16
-33.30
-33.99
-32.60
-28.87
-23.03
-15.77
-8.01
-0.60
5.79
10.84
14.46
16.75
17.87
18.06
17.62
16.85
16.04
15.39
15.06
15.12
15.58
16.44
17.62
19.03
20.54
22.02
23.37
24.49
25.31
25.75
25.74
25.26
24.40
23.31
22.16
21.09
20.13
19.24
18.33
17.35
16.27
15.10
13.88
12.65
11.47
10.44
9.65
9.14
8.87
8.70
8.45
7.97
7.22
6.23
5.10
3.91
2.71
1.50
0.32
-0.79
-1.79
-2.67
-3.50
-4.37
-5.33
-6.37
-7.45
-8.54
-9.66
-10.90
-12.34
-13.96
-15.58
-16.92
-17.71
-17.76
-17.12
-15.98
-14.56
-13.08
-11.66
-10.39
-9.32
-8.52
-7.95
-7.58
-7.30
-7.01
-6.70
-6.44
-6.31
-6.36
-6.53
-6.67
-6.65
-6.41
-5.98
-5.46
-4.96
-4.53
-4.16
-3.82
-3.47
-3.10
-2.73
-2.38
-2.06
-1.77
-1.56
-1.45
-1.51
-1.73
-2.09
-2.47
-2.78
-2.93
-2.90
-2.73
-2.51
-2.38
-2.41
-2.65
-3.05
-3.50
-3.87
-4.06
-4.10
-4.14
-4.35
-4.87
-5.70
-6.69
-7.67
-8.51
-9.20
-9.83
-10.53
-11.39
-12.41
-13.55
-14.72
-15.72
-16.31
-16.22
-15.18
-13.09
-10.06
-6.40
-2.56
1.03
4.08
6.45
8.16
9.34
10.10
10.55
10.74
10.75
10.65
10.53
10.47
10.48
10.50
10.42
10.12
9.57
8.87
8.20
7.75
7.58
7.64
7.75
7.70
7.37
6.77
5.97
5.10
4.23
3.36
2.49
1.60
0.73
-0.04
-0.68
-1.19
-1.60
-2.00
-2.46
-2.98
-3.51
-3.99
-4.36
-4.56
-4.58
-4.43
-4.14
-3.74
-3.28
-2.83
-2.51
-2.43
-2.67
-3.26
-4.18
-5.37
-6.76
-8.28
-9.86
-11.39
-12.78
-13.91
-14.71
-15.12
-15.09
-14.60
-13.61
-12.16
-10.32
-8.28
-6.27
-4.50
-3.11
-2.13
-1.53
-1.24
-1.23
-1.47
-1.91
-2.43
-2.86
-3.05
-2.92
-2.45
-1.75
-0.88
0.08
1.12
2.19
3.20
4.00
4.47
4.56
4.33
3.94
3.59
3.35
3.23
3.09
2.79
2.29
1.61
0.86
0.12
-0.60
-1.37
-2.30
-3.46
-4.81
-6.26
-7.69
-9.03
-10.24
-11.32
-12.25
-13.04
-13.71
-14.42
-15.34
-16.66
-18.38
-20.28
-21.89
-22.66
-22.13
-20.10
-16.70
-12.34
-7.58
-2.95
1.16
4.52
7.08
8.86
9.93
10.35
10.24
9.77
9.18
8.71
8.55
8.74
9.22
9.87
10.56
11.23
11.87
12.51
13.12
13.68
14.13
14.39
14.39
14.06
13.37
12.36
11.14
9.88
8.73
7.77
6.96
6.16
5.25
4.14
2.89
1.64
0.58
-0.24
-0.86
-1.49
-2.32
-3.53
-5.11
-6.93
-8.77
-10.42
-11.81
-12.96
-14.00
-15.11
-16.44
-18.10
-20.11
-22.35
-24.48
-26.00
-26.28
-24.83
-21.43
-16.33
-10.13
-3.70
2.13
6.78
10.00
11.89
12.72
12.82
12.48
11.88
11.14
10.38
9.71
9.24
9.06
9.15
9.44
9.80
10.13
10.39
10.59
10.76
10.93
11.07
11.13
11.01
10.65
10.00
9.06
7.87
6.56
5.27
4.13
3.23
2.51
1.86
1.14
0.25
-0.81
-1.96
-3.11
-4.17
-5.12
-5.99
-6.79
-7.56
-8.32
-9.08
-9.87
-10.65
-11.39
-11.99
-12.38
-12.54
-12.57
-12.67
-13.08
-14.05
-15.71
-17.99
-20.53
-22.70
-23.74
-22.93
-19.90
-14.70
-7.84
-0.13
7.51
14.32
19.77
23.62
25.85
26.60
26.17
24.91
23.22
21.42
19.74
18.32
17.20
16.42
15.94
15.71
15.67
15.75
15.91
16.12
16.40
16.68
16.88
16.85
16.45
15.65
14.51
13.24
12.00
10.94
10.07
9.33
8.65
7.96
7.24
6.48
5.66
4.77
3.77
2.68
1.49
0.22
-1.08
-2.38
-3.67
-4.96
-6.26
-7.63
-9.04
-10.48
-11.88
-13.16
-14.27
-15.26
-16.24
-17.41
-18.97
-20.98
-23.35
-25.69
-27.41
-27.87
-26.56
-23.34
-18.46
-12.57
-6.47
-0.87
3.76
7.22
9.54
10.83
11.24
10.88
9.92
8.57
7.10
5.77
4.78
4.18
3.96
4.04
4.34
4.83
5.49
6.33
7.29
8.27
9.13
9.75
10.08
10.11
9.95
9.68
9.37
9.00
8.47
7.71
6.67
5.38
3.92
2.38
0.82
-0.77
-2.36
-3.93
-5.38
-6.63
-7.63
-8.42
-9.12
-9.87
-10.82
-12.09
-13.80
-15.99
-18.67
-21.67
-24.59
-26.82
-27.65
-26.47
-23.02
-17.52
-10.67
-3.41
3.30
8.80
12.79
15.34
16.69
17.14
16.91
16.16
15.04
13.70
12.39
11.30
10.60
10.32
10.38
10.66
11.01
11.36
11.69
12.04
12.39
12.72
12.94
12.90
12.50
11.67
10.45
8.96
7.41
5.97
4.73
3.67
2.65
1.57
0.38
-0.85
-1.97
-2.85
-3.47
-3.91
-4.35
-4.93
-5.71
-6.66
-7.70
-8.69
-9.58
-10.33
-10.99
-11.66
-12.47
-13.59
-15.12
-17.02
-19.11
-21.01
-22.17
-22.05
-20.23
-16.60
-11.43
-5.32
0.95
6.62
11.14
14.25
15.98
16.54
16.18
15.18
13.80
12.29
10.92
9.88
9.31
9.19
9.39
9.75
10.15
10.53
10.93
11.34
11.73
11.99
12.02
11.74
11.16
10.35
9.38
8.27
7.02
5.61
4.07
2.48
0.95
-0.43
-1.61
-2.60
-3.41
-4.08
-4.63
-5.07
-5.43
-5.81
-6.31
-7.05
-8.07
-9.32
-10.63
-11.84
-12.80
-13.50
-14.04
-14.64
-15.55
-16.97
-18.92
-21.25
-23.50
-25.07
-25.27
-23.62
-19.98
-14.71
-8.53
-2.29
3.24
7.58
10.63
12.49
13.37
13.44
12.87
11.83
10.54
9.30
8.37
7.88
7.80
7.96
8.15
8.22
8.16
8.03
7.96
8.01
8.18
8.39
8.52
8.41
7.94
7.01
5.59
3.75
1.68
-0.37
-2.11
-3.35
-4.06
-4.37
-4.54
-4.85
-5.49
-6.52
-7.80
-9.15
-10.35
-11.28
-11.98
-12.60
-13.40
-14.61
-16.31
-18.44
-20.69
-22.63
-23.79
-23.69
-22.03
-18.73
-14.02
-8.39
-2.54
2.81
7.12
10.13
11.88
12.59
12.50
11.82
10.66
9.12
7.32
5.49
3.88
2.71
2.11
2.06
2.45
3.11
3.84
4.50
4.98
5.21
5.13
4.72
3.98
3.01
1.93
0.93
0.14
-0.41
-0.87
-1.46
-2.37
-3.70
-5.37
-7.14
-8.80
-10.20
-11.35
-12.43
-13.69
-15.37
-17.59
-20.21
-22.85
-24.90
-25.68
-24.65
-21.55
-16.54
-10.19
-3.29
3.33
8.99
13.32
16.18
17.69
18.09
17.68
16.74
15.52
14.24
13.09
12.19
11.64
11.46
11.59
11.96
12.43
12.93
13.40
13.83
14.20
14.45
14.47
14.12
13.35
12.17
10.64
8.90
7.06
5.25
3.53
1.98
0.60
-0.64
-1.84
-3.10
-4.51
-6.04
-7.62
-9.10
-10.34
-11.30
-12.01
-12.65
-13.42
-14.58
-16.33
-18.75
-21.75
-24.95
-27.70
-29.17
-28.62
-25.64
-20.36
-13.47
-6.00
0.99
6.78
11.02
13.82
15.43
16.17
16.23
15.77
14.91
13.85
12.82
12.05
11.65
11.65
11.96
12.48
13.11
13.81
14.56
15.30
15.94
16.36
16.43
16.10
15.37
14.32
13.07
11.74
10.45
9.25
8.16
7.16
6.20
5.27
4.34
3.44
2.55
1.66
0.73
-0.30
-1.39
-2.48
-3.49
-4.38
-5.20
-6.10
-7.20
-8.57
-10.13
-11.73
-13.19
-14.42
-15.43
-16.33
-17.27
-18.39
-19.82
-21.65
-23.88
-26.33
-28.54
-29.86
-29.57
-27.18
-22.64
-16.40
-9.36
-2.48
3.46
8.06
11.28
13.30
14.39
14.73
14.49
13.78
12.78
11.69
10.73
10.13
10.04
10.48
11.39
12.55
13.71
14.61
15.12
15.24
15.09
14.82
14.51
14.16
13.71
13.07
12.20
11.11
9.91
8.71
7.60
6.59
5.64
4.69
3.64
2.45
1.13
-0.28
-1.71
-3.05
-4.24
-5.24
-6.10
-6.93
-7.86
-8.97
-10.24
-11.56
-12.80
-13.92
-14.98
-16.19
-17.76
-19.82
-22.39
-25.36
-28.47
-31.37
-33.55
-34.38
-33.30
-29.94
-24.38
-17.15
-9.15
-1.40
5.27
10.39
13.88
15.97
16.96
17.19
16.90
16.32
15.67
15.15
14.90
14.99
15.39
16.04
16.88
17.87
18.97
20.14
21.28
22.26
22.90
23.06
22.71
21.86
20.65
19.29
17.98
16.90
16.12
15.62
15.28
14.93
14.44
13.77
12.95
12.05
11.14
10.26
9.37
8.41
7.37
6.26
5.19
4.26
3.51
2.91
2.35
1.65
0.69
-0.59
-2.12
-3.76
-5.34
-6.78
-8.06
-9.28
-10.55
-12.04
-13.90
-16.29
-19.24
-22.56
-25.79
-28.16
-28.88
-27.28
-23.21
-17.06
-9.69
-2.17
4.57
9.97
13.84
16.25
17.41
17.53
16.82
15.51
13.90
12.28
10.90
9.88
9.19
8.71
8.32
7.97
7.71
7.62
7.72
7.93
8.11
8.12
7.89
7.42
6.75
5.95
5.05
4.06
3.00
1.94
0.96
0.15
-0.49
-1.00
-1.48
-1.98
-2.55
-3.18
-3.85
-4.55
-5.29
-6.04
-6.78
-7.48
-8.10
-8.63
-9.05
-9.39
-9.71
-10.06
-10.53
-11.16
-11.94
-12.77
-13.53
-14.10
-14.45
-14.67
-14.98
-15.62
-16.76
-18.39
-20.31
-22.13
-23.39
-23.71
-22.83
-20.74
-17.60
-13.76
-9.63
-5.65
-2.18
0.57
2.54
3.85
4.67
5.13
5.34
5.31
5.08
4.73
4.42
4.30
4.43
4.76
5.18
5.58
5.91
6.19
6.44
6.62
6.66
6.47
6.01
5.30
4.42
3.42
2.39
1.38
0.46
-0.27
-0.76
-1.05
-1.26
-1.60
-2.20
-3.12
-4.27
-5.47
-6.56
-7.43
-8.12
-8.75
-9.50
-10.51
-11.85
-13.52
-15.39
-17.27
-18.92
-20.13
-20.79
-20.92
-20.73
-20.54
-20.75
-21.67
-23.43
-25.87
-28.49
-30.56
-31.26
-29.97
-26.42
-20.84
-13.83
-6.27
1.03
7.43
12.57
16.37
18.92
20.38
20.94
20.82
20.29
19.62
19.06
18.81
18.94
19.41
20.12
20.96
21.85
22.74
23.57
24.29
24.75
24.78
24.26
23.14
21.56
19.75
18.00
16.53
15.42
14.61
13.94
13.26
12.47
11.55
10.55
9.50
8.48
7.54
6.74
6.10
5.59
5.06
4.33
3.24
1.75
0.00
-1.80
-3.43
-4.77
-5.85
-6.79
-7.76
-8.87
-10.15
-11.57
-13.06
-14.58
-16.09
-17.55
-18.96
-20.37
-21.88
-23.67
-25.87
-28.49
-31.23
-33.56
-34.76
-34.21
-31.58
-26.98
-20.90
-14.08
-7.25
-1.00
4.29
8.43
11.35
13.08
13.70
13.42
12.49
11.25
9.98
8.92
8.20
7.88
7.93
8.30
8.91
9.65
10.44
11.22
11.97
12.68
13.35
13.89
14.23
14.25
13.91
13.28
12.49
11.67
10.89
10.08
9.09
7.82
6.24
4.51
2.89
1.54
0.52
-0.31
-1.18
-2.27
-3.59
-4.99
-6.21
-7.07
-7.52
-7.68
-7.79
-8.06
-8.59
-9.40
-10.39
-11.49
-12.62
-13.79
-15.04
-16.37
-17.83
-19.46
-21.39
-23.74
-26.54
-29.51
-32.11
-33.48
-32.84
-29.71
-24.15
-16.79
-8.57
-0.46
6.77
12.71
17.19
20.26
22.02
22.63
22.35
21.45
20.24
19.00
17.95
17.27
17.06
17.36
18.15
19.32
20.70
22.15
23.56
24.85
25.95
26.72
27.00
26.67
25.74
24.32
22.63
20.86
19.08
17.32
15.53
13.73
12.01
10.45
9.11
7.95
6.89
5.83
4.75
3.67
2.66
1.72
0.81
-0.14
-1.20
-2.35
-3.52
-4.66
-5.76
-6.92
-8.24
-9.80
-11.55
-13.35
-15.00
-16.34
-17.36
-18.18
-19.07
-20.29
-22.09
-24.53
-27.47
-30.47
-32.87
-33.89
-32.86
-29.50
-24.01
-17.10
-9.74
-2.87
2.82
7.07
9.95
11.73
12.66
12.91
12.58
11.80
10.72
9.58
8.64
8.07
7.96
8.25
8.86
9.70
10.74
11.92
13.16
14.32
15.21
15.71
15.72
15.31
14.60
13.73
12.82
11.90
10.98
10.01
9.00
7.94
6.88
5.88
4.98
4.16
3.40
2.64
1.81
0.88
-0.16
-1.25
-2.33
-3.37
-4.34
-5.27
-6.20
-7.22
-8.36
-9.67
-11.14
-12.70
-14.28
-15.76
-17.08
-18.24
-19.33
-20.57
-22.18
-24.29
-26.85
-29.49
-31.56
-32.30
-31.08
-27.62
-22.12
-15.24
-7.90
-0.96
4.92
9.44
12.52
14.29
14.94
14.70
13.82
12.58
11.26
10.10
9.25
8.80
8.76
9.13
9.84
10.80
11.90
13.01
14.07
14.99
15.73
16.20
16.27
15.85
14.91
13.56
11.98
10.43
9.11
8.09
7.35
6.74
6.12
5.35
4.40
3.36
2.37
1.62
1.18
1.01
0.91
0.64
0.05
-0.85
-1.92
-2.98
-3.92
-4.79
-5.73
-6.92
-8.40
-10.10
-11.86
-13.50
-14.94
-16.22
-17.46
-18.76
-20.18
-21.71
-23.38
-25.25
-27.40
-29.83
-32.25
-34.10
-34.56
-32.92
-28.81
-22.47
-14.70
-6.59
0.79
6.72
10.92
13.48
14.71
15.00
14.63
13.88
12.99
12.20
11.74
11.74
12.25
13.13
14.20
15.24
16.10
16.75
17.25
17.69
18.15
18.59
18.91
18.93
18.51
17.62
16.33
14.85
13.38
12.11
11.10
10.30
9.57
8.78
7.82
6.69
5.43
4.19
3.13
2.38
1.99
1.88
1.86
1.71
1.24
0.39
-0.74
-1.99
-3.18
-4.21
-5.10
-5.95
-6.89
-8.01
-9.37
-10.92
-12.56
-14.16
-15.60
-16.86
-17.98
-19.08
-20.38
-22.05
-24.26
-27.00
-30.09
-33.07
-35.27
-35.96
-34.52
-30.69
-24.74
-17.35
-9.51
-2.16
4.03
8.76
12.03
14.03
15.00
15.16
14.74
14.03
13.30
12.80
12.64
12.84
13.28
13.87
14.53
15.22
15.96
16.71
17.42
18.04
18.50
18.75
18.76
18.46
17.80
16.81
15.56
14.25
13.07
12.12
11.42
10.81
10.17
9.39
8.47
7.52
6.63
5.85
5.18
4.55
3.93
3.29
2.58
1.79
0.86
-0.23
-1.45
-2.72
-3.90
-4.94
-5.84
-6.70
-7.63
-8.74
-10.07
-11.62
-13.33
-15.10
-16.84
-18.49
-20.00
-21.39
-22.76
-24.30
-26.20
-28.60
-31.48
-34.56
-37.34
-39.11
-39.20
-37.11
-32.80
-26.70
-19.63
-12.55
-6.29
-1.36
2.06
4.08
4.88
4.68
3.68
2.12
0.31
-1.38
-2.57
-3.01
-2.59
-1.29
0.81
3.63
7.07
10.99
15.17
19.32
23.15
26.41
28.97
30.77
31.81
32.09
31.62
30.49
28.87
27.03
25.25
23.70
22.40
21.22
19.95
18.42
16.61
14.64
12.73
11.08
9.81
8.87
8.08
7.22
6.11
4.70
3.09
1.48
0.05
-1.10
-2.07
-3.00
-4.09
-5.43
-7.01
-8.70
-10.43
-12.14
-13.88
-15.68
-17.57
-19.52
-21.52
-23.63
-25.93
-28.47
-31.07
-33.26
-34.35
-33.67
-30.80
-25.81
-19.25
-11.97
-4.84
1.48
6.61
10.50
13.20
14.85
15.52
15.30
14.34
12.92
11.42
10.22
9.63
9.78
10.58
11.83
13.28
14.71
16.01
17.11
17.97
18.52
18.72
18.49
17.84
16.81
15.51
14.07
12.63
11.31
10.18
9.21
8.31
7.38
6.36
5.30
4.29
3.45
2.82
2.38
2.01
1.61
1.11
0.55
-0.00
-0.48
-0.87
-1.25
-1.74
-2.44
-3.39
-4.57
-5.92
-7.38
-8.91
-10.48
-12.05
-13.57
-14.97
-16.26
-17.54
-19.03
-21.00
-23.58
-26.60
-29.52
-31.57
-31.96
-30.14
-26.09
-20.24
-13.39
-6.44
-0.12
5.09
9.03
11.73
13.35
14.05
14.00
13.38
12.37
11.25
10.27
9.69
9.65
10.16
11.06
12.15
13.24
14.21
15.05
15.80
16.49
17.10
17.54
17.64
17.29
16.43
15.13
13.57
11.95
10.47
9.25
8.30
7.54
6.86
6.17
5.42
4.63
3.87
3.14
2.45
1.76
1.01
0.20
-0.65
-1.53
-2.41
-3.32
-4.27
-5.28
-6.31
-7.30
-8.21
-9.04
-9.91
-10.94
-12.23
-13.76
-15.39
-16.94
-18.26
-19.35
-20.39
-21.65
-23.41
-25.83
-28.77
-31.79
-34.17
-35.08
-33.85
-30.18
-24.26
-16.81
-8.83
-1.32
4.94
9.55
12.51
14.02
14.46
14.22
13.64
12.98
12.44
12.10
11.98
12.05
12.27
12.65
13.19
13.90
14.77
15.72
16.66
17.50
18.11
18.38
18.22
17.60
16.53
15.15
13.64
12.21
11.02
10.15
9.57
9.16
8.77
8.30
7.68
6.90
6.01
5.04
4.09
3.22
2.51
1.98
1.59
1.25
0.84
0.25
-0.51
-1.40
-2.28
-3.05
-3.71
-4.34
-5.08
-6.10
-7.44
-9.07
-10.84
-12.60
-14.23
-15.71
-17.07
-18.34
-19.54
-20.71
-21.94
-23.43
-25.37
-27.90
-30.86
-33.75
-35.80
-36.17
-34.25
-29.92
-23.58
-16.04
-8.24
-1.07
4.86
9.25
12.05
13.45
13.76
13.37
12.70
12.09
11.74
11.71
11.90
12.20
12.51
12.85
13.29
13.94
14.82
15.85
16.89
17.76
18.28
18.33
17.88
16.94
15.64
14.17
12.77
11.62
10.80
10.27
9.87
9.44
8.84
8.07
7.25
6.52
6.01
5.75
5.70
5.73
5.73
5.59
5.28
4.78
4.13
3.38
2.57
1.79
1.10
0.57
0.21
-0.07
-0.41
-1.04
-2.13
-3.74
-5.81
-8.11
-10.41
-12.53
-14.44
-16.24
-18.10
-20.18
-22.55
-25.21
-28.10
-31.11
-34.03
-36.52
-38.07
-38.11
-36.23
-32.31
-26.69
-20.05
-13.24
-7.01
-1.88
1.98
4.65
6.37
7.38
7.90
8.07
8.02
7.87
7.79
7.93
8.40
9.22
10.32
11.61
12.96
14.29
15.56
16.74
17.74
18.40
18.57
18.16
17.18
15.80
14.26
12.84
11.73
11.02
10.66
10.52
10.47
10.38
10.19
9.87
9.39
8.78
8.05
7.25
6.44
5.70
5.09
4.63
4.29
3.96
3.52
2.88
1.96
0.77
-0.63
-2.12
-3.58
-4.89
-5.94
-6.67
-7.07
-7.27
-7.49
-8.02
-9.11
-10.81
-12.90
-14.87
-16.13
-16.20
-14.84
-12.15
-8.47
-4.24
0.10
4.24
7.90
10.87
13.00
14.20
14.52
14.16
13.42
12.63
12.02
11.70
11.67
11.85
12.16
12.54
13.02
13.59
14.23
14.88
15.46
15.89
16.12
16.11
15.83
15.30
14.54
13.58
12.46
11.21
9.87
8.45
7.01
5.59
4.21
2.91
1.65
0.43
-0.73
-1.79
-2.67
-3.33
-3.77
-4.10
-4.43
-4.83
-5.32
-5.83
-6.26
-6.56
-6.69
-6.65
-6.50
-6.31
-6.17
-6.21
-6.48
-7.03
-7.81
-8.71
-9.60
-10.38
-10.98
-11.40
-11.58
-11.52
-11.20
-10.64
-9.95
-9.26
-8.69
-8.31
-8.06
-7.84
-7.56
-7.22
-6.91
-6.73
-6.74
-6.86
-6.94
-6.86
-6.61
-6.30
-6.15
-6.33
-6.85
-7.56
-8.22
-8.68
-8.91
-9.10
-9.48
-10.21
-11.28
-12.51
-13.70
-14.70
-15.55
-16.41
-17.48
-18.87
-20.54
-22.31
-24.00
-25.49
-26.77
-27.98
-29.30
-30.91
-32.88
-35.06
-37.07
-38.37
-38.32
-36.44
-32.49
-26.63
-19.36
-11.42
-3.59
3.47
9.32
13.78
16.92
18.96
20.20
20.94
21.43
21.86
22.31
22.84
23.44
24.12
24.86
25.66
26.48
27.31
28.08
28.71
29.12
29.19
28.84
28.05
26.83
25.27
23.51
21.69
19.91
18.22
16.59
14.98
13.36
11.73
10.11
8.53
6.99
5.51
4.12
2.90
1.90
1.11
0.42
-0.34
-1.33
-2.58
-3.99
-5.37
-6.61
-7.69
-8.74
-9.92
-11.35
-12.98
-14.66
-16.16
-17.37
-18.31
-19.14
-20.19
-21.73
-23.99
-26.97
-30.44
-33.88
-36.58
-37.76
-36.76
-33.24
-27.37
-19.75
-11.35
-3.20
3.85
9.29
13.04
15.32
16.47
16.85
16.75
16.39
15.94
15.58
15.40
15.48
15.78
16.26
16.81
17.32
17.69
17.86
17.83
17.66
17.40
17.09
16.67
16.02
15.02
13.62
11.90
10.05
8.32
6.90
5.87
5.20
4.75
4.34
3.84
3.16
2.32
1.43
0.68
0.23
0.18
0.55
1.22
2.06
2.95
3.80
4.59
5.33
6.02
6.59
6.90
6.78
6.05
4.58
2.36
-0.45
-3.61
-6.79
-9.74
-12.33
-14.56
-16.57
-18.57
-20.79
-23.40
-26.43
-29.69
-32.69
-34.73
-35.03
-33.01
-28.46
-21.72
-13.56
-5.03
2.82
9.20
13.68
16.23
17.14
16.81
15.70
14.19
12.57
11.05
9.80
8.99
8.71
8.96
9.65
10.62
11.72
12.88
14.11
15.45
16.83
18.09
19.01
19.36
19.02
18.07
16.70
15.16
13.65
12.34
11.27
10.43
9.77
9.20
8.61
7.96
7.21
6.39
5.58
4.87
4.32
3.92
3.62
3.34
2.96
2.41
1.65
0.73
-0.27
-1.24
-2.12
-2.93
-3.76
-4.75
-5.94
-7.30
-8.70
-9.97
-11.00
-11.78
-12.41
-13.08
-14.02
-15.39
-17.21
-19.28
-21.19
-22.37
-22.27
-20.54
-17.17
-12.49
-7.13
-1.75
3.06
6.90
9.60
11.12
11.58
11.15
10.09
8.72
7.34
6.17
5.37
4.98
4.96
5.24
5.75
6.44
7.26
8.15
9.06
9.90
10.60
11.11
11.37
11.35
10.99
10.25
9.13
7.73
6.23
4.85
3.80
3.17
2.93
2.90
2.88
2.73
2.39
1.93
1.44
1.00
0.61
0.21
-0.27
-0.91
-1.68
-2.52
-3.33
-4.00
-4.47
-4.74
-4.87
-4.99
-5.26
-5.79
-6.65
-7.75
-8.96
-10.10
-11.05
-11.80
-12.44
-13.17
-14.17
-15.56
-17.30
-19.19
-20.81
-21.70
-21.40
-19.69
-16.66
-12.67
-8.24
-3.87
0.04
3.26
5.70
7.31
8.15
8.29
7.92
7.25
6.47
5.71
5.02
4.42
3.95
3.68
3.71
4.09
4.80
5.72
6.72
7.62
8.33
8.77
8.91
8.73
8.25
7.52
6.65
5.78
5.02
4.47
4.08
3.81
3.57
3.30
3.02
2.77
2.60
2.55
2.56
2.55
2.42
2.13
1.65
1.01
0.23
-0.67
-1.65
-2.66
-3.62
-4.50
-5.30
-6.11
-7.02
-8.09
-9.25
-10.40
-11.40
-12.18
-12.80
-13.38
-14.10
-15.09
-16.42
-18.01
-19.69
-21.12
-21.86
-21.49
-19.74
-16.61
-12.42
-7.70
-3.01
1.17
4.54
6.97
8.45
9.08
9.01
8.45
7.64
6.78
6.04
5.54
5.34
5.49
5.93
6.59
7.35
8.08
8.75
9.34
9.90
10.40
10.76
10.83
10.50
9.73
8.60
7.28
5.93
4.69
3.64
2.82
2.25
1.90
1.73
1.65
1.56
1.37
1.07
0.66
0.19
-0.28
-0.74
-1.20
-1.68
-2.16
-2.63
-3.05
-3.41
-3.72
-4.04
-4.45
-5.03
-5.85
-6.95
-8.28
-9.74
-11.17
-12.43
-13.46
-14.28
-15.04
-15.92
-17.09
-18.61
-20.38
-22.13
-23.42
-23.77
-22.76
-20.22
-16.24
-11.26
-5.87
-0.67
3.86
7.47
10.09
11.73
12.50
12.51
11.90
10.89
9.71
8.58
7.67
7.08
6.87
7.05
7.58
8.38
9.33
10.30
11.17
11.88
12.39
12.70
12.78
12.53
11.87
10.78
9.35
7.79
6.36
5.27
4.57
4.19
3.91
3.54
2.99
2.26
1.47
0.76
0.21
-0.16
-0.41
-0.59
-0.81
-1.11
-1.54
-2.14
-2.91
-3.79
-4.74
-5.69
-6.62
-7.51
-8.41
-9.34
-10.31
-11.30
-12.26
-13.19
-14.09
-14.99
-15.97
-17.13
-18.56
-20.30
-22.25
-24.16
-25.58
-26.01
-25.02
-22.40
-18.29
-13.12
-7.51
-2.09
2.67
6.49
9.31
11.21
12.29
12.65
12.41
11.67
10.60
9.39
8.26
7.42
6.98
7.00
7.41
8.11
8.97
9.89
10.83
11.77
12.68
13.49
14.06
14.24
13.91
13.07
11.81
10.35
8.92
7.72
6.83
6.20
5.71
5.19
4.51
3.63
2.62
1.59
0.67
-0.04
-0.51
-0.77
-0.93
-1.09
-1.39
-1.92
-2.66
-3.51
-4.31
-4.92
-5.29
-5.51
-5.80
-6.36
-7.34
-8.69
-10.28
-11.86
-13.30
-14.53
-15.65
-16.88
-18.45
-20.56
-23.23
-26.29
-29.31
-31.63
-32.57
-31.58
-28.45
-23.41
-17.05
-10.19
-3.63
2.06
6.54
9.71
11.60
12.32
12.07
11.08
9.66
8.11
6.69
5.63
5.08
5.12
5.79
7.05
8.77
10.80
12.96
15.11
17.17
19.04
20.60
21.72
22.24
22.09
21.32
20.08
18.58
17.00
15.51
14.17
13.04
12.11
11.36
10.73
10.20
9.72
9.28
8.87
8.45
8.00
7.48
6.86
6.12
5.26
4.31
3.31
2.30
1.25
0.14
-1.11
-2.55
-4.15
-5.84
-7.49
-9.00
-10.36
-11.61
-12.86
-14.19
-15.71
-17.52
-19.75
-22.49
-25.66
-28.84
-31.37
-32.44
-31.44
-28.15
-22.89
-16.38
-9.46
-2.91
2.76
7.29
10.60
12.75
13.84
14.02
13.43
12.27
10.74
9.09
7.62
6.62
6.31
6.72
7.74
9.15
10.72
12.28
13.73
15.04
16.10
16.80
17.01
16.70
15.96
14.92
13.77
12.61
11.47
10.36
9.25
8.16
7.09
6.08
5.13
4.25
3.43
2.67
1.93
1.15
0.25
-0.78
-1.90
-3.03
-4.04
-4.91
-5.71
-6.62
-7.79
-9.31
-11.09
-12.92
-14.56
-15.86
-16.83
-17.65
-18.54
-19.73
-21.39
-23.54
-26.06
-28.59
-30.59
-31.37
-30.32
-27.10
-21.83
-15.10
-7.81
-0.90
4.91
9.26
12.09
13.60
14.09
13.80
12.99
11.84
10.57
9.39
8.53
8.18
8.44
9.30
10.61
12.16
13.72
15.08
16.10
16.73
16.96
16.83
16.39
15.70
14.80
13.76
12.66
11.61
10.71
10.02
9.53
9.16
8.76
8.21
7.44
6.48
5.46
4.53
3.81
3.32
2.92
2.47
1.79
0.85
-0.29
-1.47
-2.54
-3.44
-4.20
-4.92
-5.76
-6.85
-8.25
-9.96
-11.88
-13.84
-15.63
-17.11
-18.25
-19.18
-20.13
-21.38
-23.12
-25.37
-27.96
-30.50
-32.47
-33.25
-32.27
-29.21
-24.09
-17.38
-9.86
-2.44
4.08
9.21
12.78
14.90
15.83
15.86
15.27
14.30
13.16
12.04
11.13
10.54
10.36
10.60
11.21
12.12
13.19
14.35
15.51
16.61
17.60
18.40
18.88
18.93
18.48
17.54
16.25
14.81
13.45
12.31
11.43
10.72
10.03
9.20
8.17
6.96
5.71
4.55
3.59
2.86
2.37
2.05
1.81
1.55
1.14
0.45
-0.56
-1.83
-3.27
-4.70
-6.02
-7.21
-8.34
-9.50
-10.77
-12.19
-13.71
-15.29
-16.88
-18.44
-19.98
-21.55
-23.28
-25.32
-27.79
-30.69
-33.72
-36.27
-37.50
-36.59
-33.04
-26.88
-18.70
-9.51
-0.40
7.70
14.23
18.97
22.01
23.61
24.10
23.78
22.96
21.85
20.63
19.43
18.41
17.70
17.45
17.69
18.37
19.32
20.33
21.19
21.74
21.94
21.80
21.35
20.66
19.73
18.57
17.21
15.72
14.20
12.76
11.48
10.36
9.34
8.33
7.26
6.16
5.06
4.07
3.24
2.59
2.06
1.55
0.94
0.16
-0.81
-1.88
-2.90
-3.73
-4.35
-4.88
-5.52
-6.46
-7.78
-9.40
-11.10
-12.68
-14.01
-15.11
-16.08
-17.05
-18.08
-19.22
-20.52
-22.09
-24.06
-26.43
-29.01
-31.24
-32.38
-31.71
-28.82
-23.77
-17.17
-9.88
-2.79
3.43
8.47
12.25
14.82
16.24
16.56
15.88
14.44
12.59
10.74
9.25
8.34
8.05
8.34
9.05
10.05
11.17
12.28
13.26
14.05
14.59
14.86
14.87
14.59
13.99
13.11
12.02
10.84
9.72
8.75
7.95
7.27
6.62
5.89
5.06
4.10
3.10
2.15
1.37
0.83
0.52
0.31
0.01
-0.56
-1.47
-2.65
-3.93
-5.06
-5.90
-6.45
-6.86
-7.33
-8.05
-9.13
-10.55
-12.17
-13.86
-15.48
-16.96
-18.32
-19.64
-21.00
-22.55
-24.41
-26.67
-29.26
-31.84
-33.80
-34.38
-32.90
-29.10
-23.22
-16.02
-8.46
-1.46
4.40
8.87
11.96
13.81
14.57
14.42
13.57
12.28
10.85
9.57
8.65
8.23
8.38
9.10
10.34
11.97
13.78
15.55
17.09
18.28
19.02
19.26
18.97
18.16
16.90
15.36
13.75
12.29
11.09
10.19
9.50
8.87
8.16
7.31
6.30
5.20
4.13
3.25
2.63
2.26
2.02
1.73
1.20
0.38
-0.70
-1.92
-3.11
-4.22
-5.23
-6.23
-7.30
-8.50
-9.85
-11.31
-12.80
-14.24
-15.54
-16.66
-17.65
-18.62
-19.78
-21.36
-23.46
-25.97
-28.51
-30.41
-30.94
-29.52
-25.92
-20.40
-13.62
-6.44
0.28
5.95
10.26
13.18
14.85
15.48
15.30
14.50
13.27
11.82
10.40
9.23
8.50
8.34
8.76
9.67
10.94
12.44
14.04
15.60
17.02
18.17
18.92
19.13
18.73
17.74
16.27
14.54
12.81
11.26
10.00
8.98
8.06
7.13
6.17
5.24
4.43
3.80
3.33
2.88
2.31
1.52
0.52
-0.60
-1.73
-2.75
-3.63
-4.38
-5.06
-5.79
-6.67
-7.78
-9.13
-10.64
-12.16
-13.56
-14.74
-15.76
-16.75
-17.97
-19.68
-22.01
-24.93
-28.08
-30.85
-32.44
-32.13
-29.53
-24.70
-18.20
-10.91
-3.78
2.44
7.34
10.80
12.96
14.02
14.17
13.62
12.56
11.24
9.90
8.79
8.09
7.89
8.18
8.88
9.85
10.96
12.13
13.26
14.29
15.14
15.72
15.88
15.54
14.64
13.29
11.69
10.09
8.67
7.50
6.51
5.56
4.51
3.34
2.12
0.99
0.09
-0.55
-0.96
-1.27
-1.66
-2.26
-3.15
-4.33
-5.72
-7.21
-8.66
-9.97
-11.09
-12.04
-12.89
-13.75
-14.68
-15.73
-16.83
-17.93
-18.91
-19.77
-20.56
-21.44
-22.62
-24.33
-26.65
-29.41
-32.13
-34.09
-34.51
-32.83
-28.89
-23.02
-15.93
-8.46
-1.44
4.56
9.20
12.35
14.05
14.45
13.78
12.34
10.45
8.44
6.64
5.36
4.83
5.15
6.24
7.89
9.82
11.77
13.63
15.31
16.78
17.95
18.71
18.94
18.61
17.83
16.79
15.69
14.70
13.87
13.16
12.50
11.80
11.01
10.19
9.44
8.88
8.57
8.49
8.49
8.36
7.91
7.07
5.92
4.60
3.27
2.00
0.77
-0.48
-1.84
-3.32
-4.89
-6.51
-8.16
-9.81
-11.47
-13.09
-14.65
-16.16
-17.71
-19.46
-21.62
-24.28
-27.34
-30.38
-32.74
-33.66
-32.55
-29.16
-23.75
-16.97
-9.69
-2.73
3.27
7.97
11.30
13.37
14.36
14.49
13.97
13.03
11.86
10.67
9.67
9.04
8.92
9.37
10.36
11.77
13.40
15.07
16.57
17.71
18.35
18.37
17.74
16.51
14.82
12.88
10.91
9.08
7.49
6.12
4.88
3.65
2.32
0.86
-0.65
-2.06
-3.22
-4.08
-4.69
-5.16
-5.59
-5.99
-6.24
-6.13
-5.48
-4.20
-2.35
-0.17
1.97
3.70
4.72
4.89
4.28
3.13
1.73
0.32
-1.02
-2.40
-4.03
-6.16
-8.91
-12.20
-15.70
-18.87
-21.02
-21.50
-19.92
-16.27
-10.95
-4.70
1.65
7.34
11.86
15.01
16.79
17.37
16.99
15.89
14.39
12.78
11.37
10.37
9.90
9.92
10.32
10.98
11.84
12.86
14.04
15.31
16.58
17.65
18.37
18.62
18.35
17.59
16.41
14.94
13.32
11.70
10.21
8.95
7.94
7.16
6.55
6.10
5.76
5.49
5.22
4.89
4.43
3.82
3.07
2.22
1.29
0.30
-0.71
-1.69
-2.60
-3.42
-4.20
-5.05
-6.10
-7.41
-8.91
-10.48
-11.95
-13.20
-14.27
-15.23
-16.26
-17.50
-19.03
-20.94
-23.25
-25.90
-28.66
-31.08
-32.52
-32.34
-30.11
-25.83
-19.95
-13.24
-6.54
-0.52
4.43
8.18
10.78
12.30
12.83
12.53
11.63
10.47
9.43
8.79
8.68
9.09
9.83
10.75
11.71
12.69
13.71
14.75
15.75
16.58
17.07
17.15
16.83
16.19
15.34
14.36
13.27
12.10
10.89
9.72
8.68
7.86
7.24
6.79
6.43
6.08
5.73
5.35
4.93
4.48
3.99
3.45
2.88
2.25
1.53
0.71
-0.19
-1.13
-2.02
-2.85
-3.68
-4.63
-5.79
-7.22
-8.81
-10.45
-11.99
-13.38
-14.60
-15.71
-16.77
-17.90
-19.24
-20.95
-23.15
-25.72
-28.26
-30.14
-30.66
-29.29
-25.87
-20.71
-14.42
-7.75
-1.44
3.95
8.07
10.77
12.13
12.36
11.80
10.82
9.74
8.75
7.99
7.52
7.40
7.66
8.36
9.47
10.89
12.49
14.06
15.45
16.51
17.17
17.37
17.11
16.41
15.34
14.00
12.51
11.06
9.79
8.83
8.23
7.93
7.75
7.48
6.96
6.13
5.10
4.06
3.21
2.65
2.38
2.24
2.05
1.66
1.01
0.13
-0.85
-1.80
-2.66
-3.46
-4.30
-5.30
-6.53
-7.95
-9.43
-10.81
-12.02
-13.06
-14.04
-15.05
-16.12
-17.25
-18.46
-19.84
-21.57
-23.76
-26.25
-28.56
-29.96
-29.74
-27.46
-23.19
-17.46
-11.06
-4.79
0.75
5.21
8.43
10.42
11.27
11.19
10.49
9.51
8.53
7.78
7.31
7.16
7.31
7.77
8.55
9.61
10.90
12.29
13.66
14.85
15.73
16.20
16.20
15.72
14.83
13.65
12.29
10.87
9.49
8.24
7.18
6.36
5.80
5.46
5.23
5.03
4.74
4.33
3.83
3.28
2.74
2.24
1.78
1.30
0.78
0.16
-0.57
-1.41
-2.34
-3.33
-4.33
-5.28
-6.20
-7.13
-8.18
-9.42
-10.87
-12.43
-13.95
-15.27
-16.31
-17.15
-17.98
-19.02
-20.45
-22.31
-24.55
-26.92
-29.03
-30.38
-30.43
-28.79
-25.34
-20.31
-14.25
-7.89
-1.91
3.15
7.06
9.77
11.43
12.19
12.22
11.70
10.80
9.73
8.72
8.00
7.75
8.02
8.76
9.82
11.01
12.18
13.25
14.23
15.10
15.80
16.20
16.16
15.63
14.64
13.40
12.13
11.03
10.19
9.56
9.01
8.44
7.77
7.00
6.19
5.40
4.66
3.97
3.33
2.74
2.24
1.82
1.44
1.00
0.38
-0.49
-1.57
-2.73
-3.80
-4.64
-5.30
-5.88
-6.57
-7.51
-8.73
-10.15
-11.62
-13.03
-14.30
-15.42
-16.46
-17.47
-18.55
-19.80
-21.37
-23.37
-25.78
-28.35
-30.58
-31.79
-31.34
-28.86
-24.45
-18.60
-12.10
-5.72
-0.08
4.51
7.92
10.21
11.47
11.84
11.47
10.61
9.53
8.55
7.90
7.74
8.07
8.79
9.75
10.84
11.98
13.16
14.37
15.57
16.61
17.31
17.53
17.18
16.31
15.10
13.76
12.50
11.48
10.72
10.13
9.56
8.85
7.90
6.77
5.58
4.54
3.81
3.43
3.32
3.33
3.28
3.02
2.51
1.74
0.74
-0.42
-1.67
-2.92
-4.10
-5.16
-6.11
-7.03
-8.00
-9.11
-10.39
-11.79
-13.22
-14.59
-15.90
-17.24
-18.76
-20.61
-22.81
-25.10
-27.00
-27.92
-27.33
-24.96
-20.91
-15.60
-9.63
-3.66
1.77
6.26
9.61
11.76
12.79
12.87
12.19
11.03
9.63
8.27
7.18
6.53
6.41
6.78
7.56
8.62
9.88
11.28
12.76
14.20
15.42
16.23
16.46
16.11
15.27
14.10
12.78
11.42
10.09
8.85
7.75
6.85
6.17
5.63
5.14
4.56
3.87
3.10
2.38
1.78
1.30
0.84
0.29
-0.43
-1.28
-2.19
-3.06
-3.89
-4.75
-5.76
-7.04
-8.61
-10.41
-12.31
-14.14
-15.80
-17.24
-18.52
-19.75
-21.11
-22.72
-24.67
-26.91
-29.24
-31.27
-32.49
-32.35
-30.43
-26.58
-21.06
-14.45
-7.53
-1.06
4.40
8.57
11.41
13.05
13.70
13.53
12.79
11.68
10.44
9.31
8.47
8.05
8.11
8.62
9.49
10.58
11.75
12.91
14.00
14.96
15.75
16.26
16.40
16.07
15.31
14.27
13.15
12.19
11.49
11.02
10.69
10.36
9.93
9.41
8.86
8.34
7.88
7.49
7.12
6.69
6.13
5.36
4.37
3.19
1.89
0.57
-0.71
-1.94
-3.14
-4.39
-5.71
-7.10
-8.53
-9.96
-11.35
-12.73
-14.15
-15.65
-17.25
-19.03
-21.07
-23.45
-26.11
-28.76
-30.87
-31.75
-30.77
-27.65
-22.58
-16.20
-9.38
-2.96
2.47
6.67
9.65
11.55
12.54
12.74
12.29
11.35
10.19
9.09
8.32
8.03
8.21
8.78
9.59
10.55
11.63
12.84
14.11
15.31
16.25
16.76
16.78
16.34
15.55
14.51
13.35
12.12
10.92
9.83
8.88
8.06
7.26
6.40
5.45
4.49
3.69
3.20
3.05
3.12
3.19
3.03
2.49
1.55
0.32
-1.01
-2.25
-3.28
-4.05
-4.67
-5.27
-6.02
-7.03
-8.30
-9.72
-11.14
-12.45
-13.61
-14.66
-15.71
-16.92
-18.44
-20.37
-22.66
-25.06
-27.05
-28.00
-27.34
-24.78
-20.43
-14.81
-8.68
-2.79
2.33
6.40
9.38
11.33
12.35
12.53
12.04
11.09
9.93
8.83
7.97
7.48
7.39
7.70
8.38
9.35
10.53
11.78
12.96
13.93
14.60
14.92
14.92
14.64
14.14
13.46
12.64
11.69
10.62
9.50
8.35
7.25
6.23
5.32
4.53
3.85
3.28
2.79
2.36
1.94
1.46
0.86
0.11
-0.76
-1.65
-2.47
-3.11
-3.60
-4.07
-4.71
-5.68
-7.02
-8.61
-10.24
-11.73
-12.99
-14.09
-15.17
-16.33
-17.65
-19.17
-20.92
-22.96
-25.25
-27.59
-29.54
-30.48
-29.78
-27.10
-22.52
-16.55
-10.00
-3.68
1.76
6.01
9.00
10.89
11.87
12.13
11.83
11.12
10.19
9.29
8.66
8.48
8.80
9.55
10.58
11.72
12.82
13.81
14.67
15.40
15.97
16.32
16.37
16.06
15.37
14.35
13.09
11.77
10.54
9.49
8.67
8.02
7.42
6.77
6.01
5.16
4.28
3.44
2.73
2.17
1.80
1.60
1.47
1.30
0.92
0.21
-0.82
-2.04
-3.23
-4.22
-4.97
-5.59
-6.26
-7.14
-8.31
-9.71
-11.26
-12.82
-14.33
-15.72
-16.97
-18.13
-19.36
-20.87
-22.86
-25.36
-28.08
-30.42
-31.63
-31.05
-28.37
-23.77
-17.82
-11.33
-5.06
0.45
4.92
8.29
10.63
12.01
12.50
12.19
11.26
9.97
8.67
7.70
7.29
7.49
8.21
9.26
10.48
11.77
13.13
14.51
15.83
16.90
17.54
17.59
17.04
16.04
14.77
13.43
12.16
10.99
9.93
8.98
8.14
7.42
6.78
6.16
5.50
4.80
4.10
3.49
3.03
2.74
2.56
2.35
2.00
1.43
0.66
-0.21
-1.06
-1.80
-2.45
-3.15
-4.07
-5.30
-6.83
-8.47
-10.01
-11.31
-12.37
-13.30
-14.23
-15.23
-16.32
-17.49
-18.84
-20.51
-22.58
-24.87
-26.87
-27.86
-27.18
-24.51
-20.05
-14.43
-8.48
-2.90
1.85
5.66
8.54
10.57
11.78
12.22
11.94
11.10
9.96
8.77
7.80
7.19
7.01
7.27
7.91
8.91
10.24
11.88
13.73
15.60
17.22
18.36
18.89
18.82
18.32
17.60
16.84
16.11
15.41
14.67
13.84
12.94
11.97
11.00
10.03
9.06
8.09
7.12
6.15
5.19
4.24
3.22
2.08
0.76
-0.69
-2.12
-3.39
-4.39
-5.14
-5.81
-6.67
-7.90
-9.55
-11.48
-13.41
-15.11
-16.42
-17.38
-18.17
-19.09
-20.41
-22.30
-24.71
-27.28
-29.38
-30.27
-29.30
-26.17
-21.02
-14.43
-7.20
-0.17
6.00
10.88
14.30
16.25
16.86
16.39
15.12
13.36
11.37
9.36
7.51
5.99
5.00
4.66
5.01
5.96
7.27
8.67
9.92
10.90
11.58
11.96
12.01
11.68
10.91
9.71
8.22
6.67
5.26
4.13
3.29
2.65
2.05
1.41
0.70
-0.03
-0.73
-1.31
-1.73
-1.98
-2.11
-2.24
-2.54
-3.16
-4.15
-5.43
-6.79
-7.98
-8.83
-9.36
-9.78
-10.33
-11.21
-12.44
-13.91
-15.40
-16.78
-18.01
-19.15
-20.36
-21.79
-23.55
-25.73
-28.29
-31.01
-33.46
-35.02
-35.04
-33.11
-29.19
-23.66
-17.20
-10.53
-4.22
1.35
5.97
9.55
12.03
13.38
13.69
13.19
12.18
11.00
9.92
9.12
8.69
8.71
9.18
10.09
11.36
12.86
14.44
15.95
17.25
18.21
18.71
18.66
18.03
16.89
15.47
14.01
12.79
11.91
11.38
11.04
10.68
10.13
9.35
8.37
7.31
6.32
5.47
4.79
4.21
3.65
3.05
2.40
1.70
0.98
0.25
-0.53
-1.42
-2.47
-3.71
-5.11
-6.61
-8.15
-9.63
-10.96
-12.09
-13.04
-13.88
-14.84
-16.15
-18.05
-20.58
-23.51
-26.34
-28.34
-28.81
-27.27
-23.69
-18.45
-12.26
-5.92
-0.08
4.85
8.68
11.42
13.10
13.80
13.63
12.77
11.50
10.17
9.08
8.49
8.50
9.09
10.14
11.47
12.93
14.38
15.75
16.97
17.95
18.55
18.65
18.19
17.21
15.89
14.47
13.16
12.05
11.07
10.12
9.08
7.95
6.83
5.82
4.98
4.34
3.82
3.39
3.00
2.63
2.22
1.69
0.97
0.04
-1.07
-2.24
-3.37
-4.45
-5.57
-6.85
-8.34
-10.02
-11.75
-13.38
-14.81
-16.05
-17.19
-18.37
-19.78
-21.57
-23.82
-26.45
-29.17
-31.44
-32.59
-32.05
-29.50
-25.04
-19.13
-12.46
-5.74
0.44
5.67
9.70
12.45
13.97
14.42
14.07
13.22
12.15
11.07
10.16
9.55
9.36
9.66
10.44
11.60
13.00
14.45
15.81
16.98
17.89
18.48
18.70
18.53
17.99
17.16
16.15
15.05
13.94
12.86
11.85
10.93
10.12
9.43
8.82
8.27
7.74
7.24
6.79
6.42
6.09
5.70
5.14
4.33
3.28
2.09
0.87
-0.28
-1.32
-2.28
-3.22
-4.22
-5.34
-6.59
-7.96
-9.38
-10.79
-12.12
-13.33
-14.48
-15.70
-17.16
-19.01
-21.36
-24.12
-27.04
-29.62
-31.25
-31.36
-29.53
-25.75
-20.36
-14.02
-7.47
-1.34
3.94
8.11
11.08
12.81
13.35
12.86
11.65
10.11
8.66
7.58
7.05
7.07
7.59
8.51
9.69
11.01
12.30
13.42
14.27
14.77
14.92
14.71
14.13
13.19
11.95
10.55
9.13
7.85
6.78
5.92
5.22
4.62
4.12
3.76
3.59
3.61
3.73
3.77
3.58
3.08
2.31
1.43
0.58
-0.13
-0.70
-1.20
-1.75
-2.42
-3.28
-4.35
-5.60
-7.02
-8.50
-9.93
-11.20
-12.20
-12.94
-13.53
-14.18
-15.14
-16.62
-18.66
-21.05
-23.27
-24.65
-24.52
-22.52
-18.74
-13.65
-7.97
-2.39
2.61
6.79
10.09
12.50
14.01
14.67
14.59
13.95
13.01
11.99
11.05
10.26
9.68
9.38
9.43
9.89
10.74
11.88
13.10
14.18
14.93
15.24
15.11
14.63
13.88
12.95
11.89
10.69
9.41
8.14
6.97
6.01
5.28
4.70
4.18
3.68
3.21
2.82
2.57
2.41
2.24
1.91
1.31
0.45
-0.57
-1.59
-2.49
-3.25
-3.91
-4.58
-5.36
-6.33
-7.48
-8.80
-10.21
-11.65
-13.05
-14.40
-15.77
-17.27
-19.06
-21.24
-23.78
-26.43
-28.72
-30.03
-29.80
-27.72
-23.81
-18.51
-12.48
-6.39
-0.83
3.84
7.44
9.89
11.23
11.59
11.17
10.30
9.31
8.49
7.99
7.82
7.94
8.28
8.83
9.59
10.55
11.63
12.72
13.67
14.38
14.79
14.87
14.64
14.09
13.26
12.22
11.07
9.96
8.97
8.15
7.45
6.80
6.12
5.34
4.47
3.52
2.56
1.68
0.93
0.38
-0.00
-0.29
-0.61
-1.07
-1.70
-2.46
-3.26
-4.03
-4.74
-5.46
-6.31
-7.38
-8.71
-10.23
-11.84
-13.43
-14.88
-16.15
-17.23
-18.19
-19.17
-20.32
-21.82
-23.70
-25.82
-27.79
-29.07
-29.11
-27.52
-24.21
-19.45
-13.78
-7.87
-2.35
2.29
5.78
8.07
9.32
9.74
9.63
9.20
8.64
8.09
7.64
7.40
7.47
7.91
8.74
9.91
11.31
12.78
14.11
15.14
15.75
15.94
15.78
15.37
14.82
14.14
13.29
12.17
10.77
9.14
7.43
5.83
4.47
3.43
2.67
2.07
1.51
0.92
0.25
-0.45
-1.14
-1.79
-2.41
-3.07
-3.86
-4.86
-6.09
-7.51
-9.01
-10.45
-11.74
-12.87
-13.93
-15.11
-16.58
-18.48
-20.81
-23.36
-25.75
-27.50
-28.09
-27.14
-24.47
-20.18
-14.68
-8.57
-2.53
2.82
7.11
10.21
12.17
13.19
13.45
13.14
12.39
11.34
10.19
9.15
8.41
8.11
8.28
8.84
9.70
10.71
11.78
12.85
13.86
14.72
15.30
15.46
15.10
14.20
12.92
11.50
10.19
9.16
8.44
7.92
7.42
6.83
6.12
5.37
4.69
4.14
3.71
3.31
2.82
2.14
1.25
0.19
-0.94
-2.01
-2.94
-3.70
-4.36
-5.03
-5.84
-6.90
-8.23
-9.77
-11.35
-12.81
-14.05
-15.07
-16.01
-17.08
-18.51
-20.45
-22.90
-25.65
-28.23
-30.04
-30.43
-28.93
-25.43
-20.19
-13.83
-7.12
-0.76
4.74
9.08
12.14
13.92
14.49
14.07
13.00
11.68
10.49
9.63
9.18
9.07
9.24
9.68
10.42
11.49
12.85
14.34
15.76
16.90
17.62
17.87
17.69
17.15
16.35
15.34
14.16
12.84
11.44
10.03
8.73
7.65
6.83
6.23
5.76
5.27
4.69
4.01
3.29
2.60
1.96
1.32
0.61
-0.23
-1.19
-2.20
-3.18
-4.07
-4.86
-5.62
-6.45
-7.47
-8.77
-10.32
-12.01
-13.65
-15.01
-15.98
-16.60
-17.16
-18.05
-19.60
-21.95
-24.85
-27.75
-29.90
-30.59
-29.34
-26.03
-20.95
-14.68
-7.93
-1.46
4.13
8.48
11.45
13.16
13.86
13.86
13.42
12.71
11.80
10.78
9.77
8.97
8.55
8.65
9.23
10.17
11.26
12.35
13.34
14.24
15.05
15.71
16.13
16.17
15.75
14.88
13.71
12.43
11.22
10.17
9.28
8.46
7.65
6.80
5.95
5.16
4.48
3.88
3.32
2.73
2.10
1.50
0.99
0.58
0.21
-0.25
-0.91
-1.81
-2.87
-3.92
-4.86
-5.67
-6.45
-7.36
-8.48
-9.78
-11.13
-12.37
-13.45
-14.39
-15.38
-16.61
-18.25
-20.31
-22.58
-24.64
-25.92
-25.88
-24.14
-20.69
-15.80
-10.06
-4.11
1.45
6.19
9.84
12.33
13.69
14.05
13.66
12.78
11.66
10.53
9.48
8.59
7.90
7.44
7.31
7.59
8.34
9.51
10.97
12.49
13.85
14.83
15.31
15.29
14.81
13.96
12.85
11.56
10.19
8.85
7.64
6.59
5.69
4.87
4.06
3.23
2.42
1.68
1.06
0.55
0.08
-0.44
-1.07
-1.80
-2.60
-3.40
-4.18
-4.95
-5.72
-6.52
-7.37
-8.33
-9.40
-10.60
-11.87
-13.10
-14.19
-15.12
-15.99
-17.03
-18.52
-20.55
-22.99
-25.41
-27.17
-27.66
-26.46
-23.45
-18.87
-13.19
-7.05
-1.06
4.25
8.52
11.59
13.45
14.22
14.12
13.39
12.30
11.09
9.95
9.04
8.45
8.24
8.41
8.91
9.66
10.58
11.62
12.68
13.69
14.53
15.05
15.14
14.73
13.84
12.60
11.20
9.81
8.53
7.41
6.41
5.50
4.67
3.89
3.14
2.39
1.60
0.79
0.04
-0.58
-1.01
-1.30
-1.58
-2.06
-2.87
-4.00
-5.27
-6.44
-7.32
-7.86
-8.22
-8.68
-9.50
-10.79
-12.46
-14.32
-16.11
-17.68
-18.96
-20.08
-21.27
-22.80
-24.87
-27.53
-30.53
-33.36
-35.33
-35.77
-34.28
-30.87
-25.97
-20.34
-14.84
-10.24
-7.02
-5.27
-4.67
-4.61
-4.30
-3.08
-0.57
3.23
7.92
12.86
17.41
21.08
23.58
24.88
25.09
24.38
23.04
21.35
19.56
17.89
16.42
15.19
14.17
13.37
12.84
12.67
12.91
13.54
14.44
15.39
16.18
16.65
16.70
16.33
15.59
14.53
13.22
11.76
10.27
8.91
7.77
6.90
6.22
5.62
4.97
4.21
3.38
2.59
1.92
1.38
0.89
0.32
-0.40
-1.26
-2.15
-2.95
-3.56
-3.99
-4.32
-4.69
-5.25
-6.07
-7.13
-8.35
-9.63
-10.85
-11.95
-12.92
-13.77
-14.55
-15.34
-16.25
-17.41
-18.99
-21.03
-23.36
-25.53
-26.90
-26.81
-24.85
-21.05
-15.84
-9.92
-4.06
1.17
5.43
8.58
10.64
11.72
11.97
11.62
10.91
10.04
9.11
8.18
7.31
6.59
6.18
6.25
6.86
7.95
9.35
10.83
12.18
13.27
14.04
14.43
14.44
14.06
13.31
12.29
11.09
9.84
8.65
7.59
6.68
5.90
5.15
4.36
3.49
2.57
1.70
0.99
0.51
0.22
0.00
-0.25
-0.61
-1.06
-1.59
-2.19
-2.92
-3.90
-5.21
-6.82
-8.58
-10.31
-11.85
-13.15
-14.25
-15.25
-16.23
-17.27
-18.46
-19.96
-21.91
-24.35
-27.02
-29.39
-30.70
-30.24
-27.61
-22.92
-16.71
-9.82
-3.15
2.65
7.21
10.45
12.46
13.42
13.51
12.91
11.80
10.45
9.12
8.07
7.45
7.31
7.59
8.16
8.92
9.84
10.94
12.23
13.65
14.99
15.99
16.41
16.12
15.19
13.86
12.42
11.10
10.02
9.13
8.35
7.59
6.81
6.05
5.30
4.56
3.80
3.05
2.38
1.87
1.57
1.38
1.13
0.59
-0.36
-1.65
-3.08
-4.37
-5.35
-6.04
-6.62
-7.32
-8.35
-9.73
-11.38
-13.13
-14.84
-16.40
-17.83
-19.16
-20.52
-22.03
-23.85
-26.01
-28.38
-30.52
-31.79
-31.51
-29.20
-24.80
-18.70
-11.66
-4.55
1.87
7.12
11.02
13.59
14.98
15.36
14.93
13.92
12.59
11.27
10.26
9.76
9.83
10.40
11.28
12.32
13.42
14.54
15.70
16.85
17.91
18.71
19.10
19.00
18.44
17.53
16.40
15.17
13.94
12.73
11.55
10.39
9.23
8.09
7.00
6.04
5.28
4.77
4.49
4.34
4.17
3.89
3.43
2.79
2.03
1.19
0.33
-0.49
-1.23
-1.91
-2.59
-3.37
-4.40
-5.74
-7.36
-9.09
-10.71
-12.03
-13.04
-13.86
-14.74
-15.93
-17.58
-19.68
-21.99
-24.13
-25.59
-25.84
-24.53
-21.52
-17.03
-11.52
-5.62
0.04
5.01
8.99
11.86
13.60
14.27
14.00
13.05
11.74
10.40
9.29
8.56
8.24
8.29
8.68
9.36
10.31
11.47
12.75
14.03
15.16
16.01
16.44
16.36
15.74
14.66
13.31
11.92
10.70
9.71
8.91
8.17
7.38
6.49
5.52
4.58
3.74
3.03
2.47
2.04
1.69
1.33
0.89
0.30
-0.48
-1.39
-2.33
-3.23
-4.05
-4.82
-5.61
-6.46
-7.38
-8.35
-9.33
-10.31
-11.31
-12.37
-13.54
-14.84
-16.28
-17.90
-19.75
-21.86
-24.15
-26.33
-27.94
-28.38
-27.14
-24.00
-19.14
-13.13
-6.74
-0.73
4.34
8.20
10.84
12.38
13.00
12.87
12.19
11.19
10.12
9.26
8.80
8.78
9.17
9.81
10.60
11.46
12.36
13.29
14.21
15.03
15.66
16.01
16.02
15.68
15.00
13.99
12.73
11.31
9.87
8.52
7.39
6.51
5.87
5.40
5.01
4.60
4.12
3.56
2.97
2.43
2.01
1.71
1.49
1.24
0.84
0.19
-0.69
-1.72
-2.77
-3.70
-4.47
-5.10
-5.74
-6.54
-7.61
-8.94
-10.41
-11.86
-13.16
-14.27
-15.26
-16.25
-17.40
-18.79
-20.49
-22.43
-24.37
-25.93
-26.61
-25.93
-23.59
-19.66
-14.51
-8.73
-2.98
2.18
6.40
9.47
11.38
12.26
12.29
11.75
10.92
10.04
9.29
8.78
8.54
8.60
8.94
9.53
10.32
11.24
12.19
13.06
13.76
14.18
14.27
14.02
13.51
12.86
12.16
11.43
10.66
9.80
8.84
7.82
6.82
5.91
5.16
4.56
4.12
3.79
3.53
3.28
2.98
2.59
2.08
1.50
0.88
0.26
-0.37
-1.04
-1.79
-2.66
-3.62
-4.63
-5.67
-6.72
-7.78
-8.83
-9.83
-10.73
-11.52
-12.23
-12.92
-13.74
-14.80
-16.20
-17.97
-19.96
-21.82
-23.07
-23.18
-21.80
-18.90
-14.78
-10.03
-5.30
-1.10
2.32
4.95
6.90
8.26
9.07
9.33
9.00
8.20
7.11
5.99
5.11
4.69
4.82
5.51
6.67
8.14
9.69
11.07
12.08
12.59
12.63
12.33
11.85
11.33
10.76
10.09
9.23
8.21
7.14
6.17
5.40
4.82
4.31
3.72
2.97
2.12
1.33
0.77
0.52
0.54
0.67
0.70
0.47
-0.10
-0.96
-1.96
-2.94
-3.74
-4.31
-4.73
-5.15
-5.77
-6.69
-7.90
-9.26
-10.56
-11.64
-12.50
-13.23
-14.01
-14.94
-16.09
-17.43
-18.89
-20.37
-21.64
-22.39
-22.20
-20.71
-17.75
-13.50
-8.45
-3.25
1.48
5.33
8.11
9.83
10.61
10.62
10.03
9.08
8.02
7.11
6.53
6.37
6.59
7.08
7.73
8.42
9.11
9.79
10.45
11.08
11.65
12.11
12.36
12.32
11.96
11.26
10.30
9.19
8.09
7.13
6.40
5.87
5.44
4.99
4.40
3.66
2.84
2.09
1.50
1.12
0.89
0.72
0.55
0.36
0.20
0.09
-0.05
-0.33
-0.88
-1.71
-2.69
-3.60
-4.29
-4.72
-5.00
-5.34
-5.87
-6.64
-7.55
-8.46
-9.30
-10.11
-10.95
-11.91
-12.98
-14.10
-15.23
-16.43
-17.84
-19.54
-21.46
-23.26
-24.38
-24.25
-22.49
-19.09
-14.39
-9.02
-3.66
1.16
5.09
8.00
9.85
10.69
10.62
9.83
8.62
7.34
6.31
5.75
5.69
6.03
6.61
7.29
8.02
8.81
9.70
10.68
11.69
12.61
13.32
13.68
13.61
13.07
12.10
10.82
9.40
8.06
6.95
6.14
5.58
5.18
4.81
4.35
3.75
3.05
2.32
1.68
1.23
1.01
0.97
0.98
0.90
0.59
0.02
-0.76
-1.64
-2.53
-3.36
-4.12
-4.84
-5.59
-6.45
-7.43
-8.53
-9.66
-10.72
-11.63
-12.41
-13.13
-13.90
-14.82
-15.96
-17.35
-19.03
-20.96
-22.98
-24.74
-25.74
-25.43
-23.46
-19.82
-14.90
-9.41
-4.07
0.54
4.16
6.77
8.50
9.51
9.91
9.82
9.32
8.57
7.74
6.97
6.41
6.12
6.16
6.54
7.23
8.21
9.38
10.62
11.81
12.82
13.52
13.84
13.78
13.38
12.70
11.86
10.94
9.98
9.04
8.15
7.35
6.64
6.01
5.44
4.90
4.39
3.91
3.49
3.12
2.77
2.38
1.94
1.44
0.88
0.26
-0.42
-1.19
-2.05
-2.95
-3.83
-4.65
-5.45
-6.31
-7.36
-8.60
-9.97
-11.29
-12.43
-13.31
-13.99
-14.62
-15.43
-16.60
-18.24
-20.33
-22.66
-24.84
-26.34
-26.59
-25.22
-22.14
-17.60
-12.18
-6.53
-1.27
3.22
6.72
9.22
10.78
11.47
11.39
10.63
9.38
7.88
6.40
5.20
4.49
4.38
4.90
5.98
7.51
9.31
11.18
12.89
14.27
15.19
15.63
15.64
15.31
14.71
13.92
13.03
12.09
11.16
10.25
9.36
8.43
7.45
6.47
5.55
4.80
4.29
4.02
3.92
3.86
3.71
3.36
2.75
1.85
0.73
-0.55
-1.84
-3.01
-3.96
-4.66
-5.23
-5.85
-6.76
-8.07
-9.78
-11.69
-13.53
-15.05
-16.16
-16.95
-17.69
-18.70
-20.23
-22.33
-24.92
-27.65
-30.06
-31.56
-31.58
-29.71
-25.85
-20.33
-13.80
-7.10
-1.01
3.98
7.69
10.24
11.85
12.75
13.12
13.05
12.64
11.99
11.23
10.55
10.12
10.09
10.57
11.53
12.84
14.31
15.70
16.87
17.76
18.38
18.73
18.79
18.50
17.83
16.82
15.57
14.27
13.06
11.99
11.07
10.20
9.33
8.43
7.53
6.68
5.96
5.42
5.05
4.80
4.58
4.28
3.81
3.15
2.35
1.46
0.57
-0.30
-1.15
-2.01
-2.92
-3.91
-5.03
-6.31
-7.76
-9.34
-10.93
-12.40
-13.66
-14.70
-15.59
-16.53
-17.73
-19.37
-21.57
-24.21
-26.98
-29.30
-30.48
-29.91
-27.25
-22.64
-16.61
-9.95
-3.44
2.34
7.08
10.70
13.19
14.61
15.02
14.57
13.51
12.13
10.74
9.56
8.73
8.32
8.35
8.85
9.81
11.15
12.72
14.30
15.70
16.76
17.39
17.56
17.26
16.51
15.37
13.95
12.43
11.00
9.82
8.93
8.29
7.79
7.32
6.80
6.24
5.68
5.15
4.66
4.17
3.65
3.10
2.55
2.01
1.48
0.89
0.20
-0.58
-1.42
-2.23
-2.97
-3.64
-4.31
-5.10
-6.08
-7.25
-8.56
-9.90
-11.19
-12.39
-13.49
-14.53
-15.61
-16.83
-18.30
-20.06
-22.01
-23.89
-25.28
-25.73
-24.84
-22.46
-18.68
-13.85
-8.44
-2.95
2.18
6.62
10.09
12.47
13.69
13.85
13.13
11.85
10.32
8.83
7.61
6.76
6.36
6.41
6.92
7.88
9.22
10.83
12.46
13.87
14.85
15.30
15.26
14.88
14.32
13.67
12.95
12.11
11.15
10.07
9.00
8.01
7.15
6.38
5.63
4.82
3.95
3.05
2.22
1.52
0.97
0.54
0.14
-0.32
-0.90
-1.62
-2.45
-3.30
-4.12
-4.88
-5.64
-6.45
-7.38
-8.44
-9.60
-10.73
-11.72
-12.51
-13.10
-13.62
-14.23
-15.15
-16.59
-18.61
-21.10
-23.69
-25.78
-26.70
-25.93
-23.27
-18.96
-13.56
-7.78
-2.24
2.62
6.62
9.70
11.83
12.98
13.16
12.50
11.28
9.86
8.60
7.68
7.16
6.97
7.05
7.38
7.97
8.83
9.90
11.06
12.13
12.98
13.54
13.79
13.75
13.41
12.75
11.77
10.54
9.23
7.98
6.96
6.18
5.60
5.11
4.63
4.13
3.68
3.33
3.12
3.01
2.90
2.67
2.22
1.53
0.67
-0.25
-1.08
-1.77
-2.28
-2.68
-3.10
-3.65
-4.42
-5.44
-6.66
-7.99
-9.30
-10.49
-11.56
-12.55
-13.57
-14.77
-16.28
-18.18
-20.35
-22.50
-24.13
-24.65
-23.58
-20.72
-16.29
-10.86
-5.19
0.04
4.38
7.63
9.82
11.06
11.49
11.24
10.46
9.32
8.00
6.65
5.43
4.47
3.90
3.81
4.25
5.15
6.35
7.66
8.89
9.89
10.63
11.06
11.17
10.95
10.40
9.56
8.53
7.45
6.41
5.46
4.61
3.79
2.97
2.16
1.42
0.86
0.55
0.52
0.66
0.85
0.91
0.71
0.21
-0.54
-1.44
-2.37
-3.25
-4.05
-4.78
-5.47
-6.18
-6.93
-7.77
-8.70
-9.68
-10.65
-11.53
-12.30
-12.98
-13.66
-14.51
-15.69
-17.29
-19.24
-21.25
-22.79
-23.29
-22.26
-19.52
-15.34
-10.32
-5.19
-0.57
3.26
6.26
8.56
10.25
11.28
11.56
11.08
10.05
8.81
7.74
7.10
6.92
7.07
7.38
7.75
8.23
8.88
9.77
10.80
11.81
12.57
12.90
12.76
12.19
11.35
10.36
9.37
8.40
7.47
6.53
5.56
4.59
3.70
3.00
2.52
2.24
2.03
1.77
1.35
0.75
0.01
-0.79
-1.60
-2.38
-3.12
-3.79
-4.40
-4.93
-5.46
-6.11
-7.03
-8.31
-9.93
-11.73
-13.48
-14.99
-16.16
-17.07
-17.94
-19.10
-20.77
-22.93
-25.25
-27.14
-27.88
-26.95
-24.15
-19.73
-14.23
-8.32
-2.62
2.46
6.64
9.82
11.92
12.96
13.02
12.32
11.16
9.87
8.75
7.97
7.59
7.58
7.88
8.44
9.24
10.28
11.52
12.86
14.16
15.20
15.83
15.96
15.61
14.84
13.81
12.64
11.42
10.24
9.15
8.18
7.32
6.54
5.82
5.13
4.49
3.95
3.56
3.31
3.11
2.84
2.37
1.64
0.70
-0.33
-1.33
-2.21
-2.93
-3.53
-4.11
-4.79
-5.68
-6.87
-8.33
-9.96
-11.57
-12.98
-14.10
-14.98
-15.79
-16.78
-18.20
-20.18
-22.64
-25.27
-27.52
-28.72
-28.26
-25.84
-21.53
-15.85
-9.55
-3.42
1.96
6.26
9.42
11.52
12.75
13.28
13.29
12.96
12.43
11.83
11.28
10.87
10.70
10.83
11.30
12.06
13.02
14.05
15.04
15.92
16.62
17.08
17.22
16.94
16.17
14.94
13.40
11.78
10.34
9.25
8.52
8.06
7.67
7.18
6.51
5.69
4.85
4.11
3.53
3.10
2.73
2.30
1.74
1.03
0.21
-0.65
-1.47
-2.22
-2.92
-3.63
-4.42
-5.36
-6.46
-7.68
-8.95
-10.17
-11.26
-12.19
-13.02
-13.87
-14.90
-16.22
-17.90
-19.92
-22.15
-24.33
-26.07
-26.88
-26.28
-24.03
-20.16
-15.07
-9.36
-3.68
1.47
5.80
9.20
11.64
13.09
13.58
13.22
12.22
10.94
9.70
8.76
8.21
8.03
8.15
8.52
9.11
9.92
10.91
12.03
13.22
14.38
15.35
15.98
16.07
15.52
14.36
12.78
11.09
9.57
8.39
7.53
6.86
6.20
5.48
4.71
4.00
3.45
3.06
2.75
2.40
1.92
1.30
0.63
-0.01
-0.57
-1.07
-1.63
-2.35
-3.32
-4.53
-5.88
-7.28
-8.63
-9.85
-10.95
-11.92
-12.79
-13.65
-14.60
-15.76
-17.23
-19.01
-20.95
-22.68
-23.75
-23.70
-22.21
-19.24
-15.02
-10.01
-4.76
0.23
4.59
8.09
10.62
12.17
12.77
12.52
11.61
10.32
8.96
7.83
7.06
6.69
6.64
6.81
7.19
7.81
8.71
9.86
11.12
12.26
13.04
13.35
13.18
12.62
11.81
10.84
9.78
8.72
7.73
6.90
6.26
5.76
5.33
4.88
4.38
3.88
3.43
3.06
2.70
2.26
1.64
0.81
-0.16
-1.14
-2.01
-2.73
-3.31
-3.83
-4.33
-4.88
-5.51
-6.25
-7.16
-8.24
-9.44
-10.68
-11.82
-12.76
-13.52
-14.20
-14.99
-16.11
-17.68
-19.69
-21.92
-23.92
-25.10
-24.91
-23.00
-19.38
-14.44
-8.89
-3.46
1.25
4.95
7.61
9.35
10.34
10.67
10.43
9.71
8.67
7.59
6.72
6.24
6.20
6.52
7.08
7.75
8.51
9.36
10.31
11.32
12.26
12.97
13.33
13.26
12.77
11.93
10.84
9.62
8.38
7.21
6.18
5.29
4.50
3.76
3.06
2.42
1.89
1.52
1.31
1.18
1.01
0.66
0.06
-0.77
-1.71
-2.66
-3.50
-4.16
-4.66
-5.11
-5.62
-6.33
-7.28
-8.45
-9.72
-10.97
-12.07
-12.99
-13.79
-14.57
-15.47
-16.67
-18.28
-20.28
-22.43
-24.22
-25.00
-24.19
-21.52
-17.18
-11.78
-6.08
-0.80
3.62
7.04
9.49
11.05
11.78
11.75
11.07
9.91
8.51
7.07
5.78
4.81
4.29
4.32
4.92
5.98
7.32
8.74
10.08
11.26
12.24
12.96
13.31
13.16
12.46
11.30
9.89
8.51
7.36
6.53
5.94
5.47
4.97
4.41
3.79
3.17
2.59
2.08
1.63
1.22
0.83
0.45
0.03
-0.47
-1.07
-1.80
-2.62
-3.50
-4.39
-5.27
-6.15
-7.04
-7.97
-8.97
-10.01
-11.08
-12.13
-13.16
-14.22
-15.45
-17.00
-18.99
-21.32
-23.65
-25.39
-25.87
-24.61
-21.50
-16.90
-11.49
-6.03
-1.09
3.01
6.22
8.60
10.21
11.05
11.13
10.56
9.51
8.25
7.02
6.03
5.41
5.25
5.60
6.42
7.60
8.96
10.31
11.50
12.48
13.22
13.73
13.97
13.86
13.33
12.36
11.08
9.66
8.32
7.19
6.31
5.62
5.06
4.55
4.05
3.56
3.03
2.43
1.74
0.94
0.07
-0.80
-1.61
-2.34
-3.02
-3.70
-4.46
-5.34
-6.38
-7.60
-8.97
-10.39
-11.76
-12.94
-13.92
-14.78
-15.73
-17.02
-18.87
-21.30
-24.06
-26.69
-28.54
-28.98
-27.59
-24.29
-19.37
-13.45
-7.27
-1.50
3.38
7.12
9.72
11.30
12.04
12.09
11.61
10.78
9.76
8.77
7.97
7.54
7.54
8.00
8.89
10.12
11.59
13.15
14.64
15.90
16.76
17.10
16.87
16.11
14.98
13.67
12.41
11.36
10.59
10.01
9.48
8.85
8.03
7.04
5.97
4.94
4.01
3.21
2.52
1.94
1.45
1.03
0.67
0.28
-0.19
-0.82
-1.65
-2.69
-3.92
-5.33
-6.86
-8.43
-9.94
-11.32
-12.50
-13.48
-14.34
-15.22
-16.29
-17.72
-19.63
-22.00
-24.58
-26.90
-28.30
-28.17
-26.13
-22.22
-16.87
-10.78
-4.72
0.72
5.17
8.52
10.83
12.22
12.85
12.88
12.46
11.72
10.76
9.74
8.83
8.24
8.18
8.74
9.90
11.45
13.11
14.64
15.87
16.72
17.19
17.26
16.90
16.12
14.98
13.63
12.32
11.26
10.51
10.00
9.52
8.88
7.99
6.93
5.89
5.07
4.56
4.32
4.22
4.08
3.77
3.25
2.52
1.62
0.61
-0.44
-1.49
-2.47
-3.39
-4.28
-5.18
-6.11
-7.10
-8.13
-9.20
-10.31
-11.46
-12.62
-13.79
-15.01
-16.41
-18.13
-20.28
-22.67
-24.86
-26.16
-25.90
-23.69
-19.63
-14.24
-8.29
-2.52
2.55
6.69
9.82
11.92
12.99
13.04
12.20
10.76
9.14
7.76
6.94
6.79
7.26
8.15
9.26
10.46
11.64
12.77
13.77
14.56
15.06
15.21
15.01
14.48
13.66
12.62
11.43
10.20
9.03
8.03
7.23
6.62
6.12
5.65
5.18
4.72
4.30
3.94
3.62
3.28
2.87
2.38
1.85
1.32
0.84
0.38
-0.12
-0.73
-1.50
-2.44
-3.49
-4.57
-5.58
-6.48
-7.29
-8.06
-8.85
-9.72
-10.66
-11.67
-12.74
-13.94
-15.35
-16.97
-18.67
-20.09
-20.71
-20.00
-17.70
-13.90
-9.10
-4.04
0.57
4.29
6.97
8.77
9.88
10.47
10.53
10.04
9.02
7.63
6.21
5.09
4.52
4.56
5.10
5.94
6.91
7.90
8.87
9.79
10.57
11.12
11.33
11.11
10.49
9.54
8.39
7.17
6.00
5.00
4.25
3.76
3.46
3.27
3.06
2.77
2.38
1.94
1.50
1.09
0.71
0.31
-0.14
-0.70
-1.34
-2.04
-2.74
-3.38
-3.94
-4.43
-4.92
-5.50
-6.26
-7.21
-8.28
-9.35
-10.29
-11.03
-11.61
-12.14
-12.81
-13.78
-15.12
-16.82
-18.69
-20.35
-21.35
-21.19
-19.58
-16.50
-12.29
-7.55
-2.91
1.10
4.24
6.47
7.89
8.63
8.79
8.46
7.74
6.80
5.84
5.09
4.70
4.77
5.30
6.20
7.27
8.33
9.17
9.68
9.86
9.78
9.55
9.28
9.02
8.72
8.35
7.85
7.24
6.58
5.92
5.35
4.86
4.45
4.05
3.63
3.18
2.70
2.23
1.78
1.36
0.97
0.62
0.29
-0.02
-0.35
-0.74
-1.19
-1.66
-2.14
-2.60
-3.08
-3.64
-4.33
-5.13
-6.01
-6.90
-7.76
-8.59
-9.43
-10.32
-11.29
-12.34
-13.48
-14.73
-16.13
-17.66
-19.21
-20.54
-21.33
-21.23
-20.01
-17.63
-14.24
-10.19
-5.89
-1.77
1.84
4.72
6.75
7.95
8.39
8.22
7.63
6.78
5.85
4.98
4.32
3.99
4.12
4.73
5.76
7.03
8.31
9.38
10.10
10.45
10.51
10.42
10.22
9.93
9.48
8.83
8.03
7.20
6.46
5.87
5.42
4.99
4.48
3.85
3.12
2.43
1.87
1.49
1.30
1.21
1.15
1.03
0.79
0.38
-0.20
-0.92
-1.75
-2.62
-3.50
-4.36
-5.21
-6.09
-7.01
-8.01
-9.07
-10.16
-11.23
-12.24
-13.15
-13.97
-14.74
-15.56
-16.60
-17.96
-19.69
-21.62
-23.38
-24.44
-24.30
-22.64
-19.48
-15.15
-10.20
-5.24
-0.75
2.95
5.71
7.51
8.37
8.45
7.93
7.09
6.20
5.49
5.07
4.97
5.12
5.47
6.00
6.70
7.57
8.55
9.58
10.55
11.38
12.02
12.40
12.51
12.31
11.81
11.05
10.13
9.19
8.33
7.57
6.85
6.09
5.21
4.24
3.29
2.52
2.04
1.83
1.81
1.81
1.69
1.35
0.75
-0.08
-1.05
-2.08
-3.03
-3.84
-4.51
-5.10
-5.75
-6.56
-7.59
-8.79
-10.04
-11.19
-12.18
-13.02
-13.85
-14.85
-16.24
-18.11
-20.42
-22.88
-25.04
-26.33
-26.24
-24.50
-21.16
-16.59
-11.34
-6.00
-1.04
3.24
6.70
9.31
11.09
12.04
12.24
11.75
10.72
9.34
7.82
6.42
5.40
4.97
5.29
6.34
7.98
9.97
12.02
13.86
15.30
16.22
16.58
16.40
15.75
14.76
13.60
12.43
11.36
10.40
9.49
8.54
7.50
6.38
5.28
4.33
3.60
3.12
2.83
2.62
2.37
2.01
1.51
0.87
0.09
-0.82
-1.87
-3.04
-4.32
-5.67
-7.03
-8.36
-9.59
-10.67
-11.63
-12.54
-13.56
-14.89
-16.74
-19.20
-22.19
-25.38
-28.21
-29.98
-30.05
-28.06
-24.03
-18.38
-11.87
-5.27
0.73
5.73
9.56
12.26
13.92
14.67
14.67
14.10
13.19
12.21
11.36
10.75
10.45
10.44
10.74
11.37
12.35
13.62
15.04
16.41
17.51
18.21
18.44
18.20
17.55
16.53
15.26
13.86
12.52
11.39
10.57
10.00
9.57
9.11
8.51
7.74
6.86
5.97
5.14
4.43
3.83
3.28
2.69
2.01
1.22
0.40
-0.40
-1.11
-1.78
-2.54
-3.51
-4.77
-6.28
-7.89
-9.41
-10.73
-11.84
-12.82
-13.82
-14.98
-16.41
-18.18
-20.28
-22.52
-24.53
-25.75
-25.62
-23.76
-20.12
-15.05
-9.23
-3.40
1.80
5.99
9.07
11.12
12.30
12.73
12.52
11.78
10.64
9.33
8.09
7.18
6.79
6.99
7.72
8.84
10.19
11.63
13.06
14.39
15.48
16.20
16.38
15.96
14.97
13.60
12.12
10.77
9.72
8.98
8.45
8.00
7.53
6.96
6.32
5.65
4.98
4.34
3.76
3.21
2.67
2.13
1.57
1.00
0.43
-0.12
-0.68
-1.33
-2.13
-3.13
-4.32
-5.64
-6.98
-8.25
-9.39
-10.38
-11.25
-12.01
-12.75
-13.59
-14.69
-16.17
-18.05
-20.15
-22.04
-23.19
-23.07
-21.37
-18.11
-13.65
-8.57
-3.51
0.98
4.59
7.22
8.90
9.75
9.89
9.45
8.58
7.48
6.40
5.57
5.18
5.28
5.81
6.60
7.49
8.37
9.20
10.02
10.85
11.65
12.29
12.60
12.45
11.83
10.87
9.74
8.63
7.62
6.72
5.90
5.13
4.44
3.89
3.49
3.20
2.93
2.60
2.18
1.71
1.25
0.84
0.42
-0.08
-0.71
-1.42
-2.07
-2.56
-2.88
-3.13
-3.50
-4.12
-5.01
-6.03
-6.99
-7.76
-8.33
-8.83
-9.45
-10.38
-11.71
-13.40
-15.32
-17.16
-18.54
-19.04
-18.37
-16.42
-13.37
-9.61
-5.60
-1.72
1.77
4.71
6.98
8.48
9.11
8.85
7.86
6.41
4.87
3.58
2.77
2.52
2.74
3.29
3.95
4.61
5.23
5.89
6.70
7.67
8.69
9.51
9.84
9.53
8.67
7.52
6.40
5.55
4.97
4.54
4.06
3.42
2.64
1.87
1.23
0.84
0.65
0.57
0.47
0.26
-0.07
-0.51
-1.04
-1.63
-2.27
-2.93
-3.61
-4.30
-5.01
-5.76
-6.55
-7.37
-8.19
-8.99
-9.78
-10.58
-11.43
-12.37
-13.40
-14.55
-15.85
-17.33
-18.90
-20.35
-21.29
-21.25
-19.91
-17.16
-13.29
-8.81
-4.33
-0.33
2.94
5.45
7.27
8.48
9.11
9.15
8.65
7.77
6.78
5.96
5.51
5.46
5.73
6.16
6.65
7.15
7.69
8.31
8.96
9.56
9.98
10.12
9.97
9.56
8.94
8.15
7.23
6.26
5.36
4.67
4.27
4.13
4.14
4.12
3.91
3.44
2.78
2.05
1.38
0.85
0.49
0.24
0.04
-0.21
-0.59
-1.14
-1.88
-2.74
-3.65
-4.53
-5.34
-6.12
-6.97
-7.97
-9.16
-10.48
-11.79
-12.94
-13.82
-14.45
-14.94
-15.47
-16.25
-17.43
-19.02
-20.88
-22.68
-23.94
-24.15
-22.92
-20.16
-16.12
-11.36
-6.54
-2.21
1.31
3.98
5.90
7.20
7.93
8.11
7.79
7.08
6.23
5.49
5.07
5.04
5.34
5.87
6.53
7.35
8.34
9.47
10.66
11.66
12.27
12.34
11.88
11.04
10.05
9.07
8.19
7.40
6.67
6.00
5.45
5.08
4.88
4.78
4.66
4.45
4.11
3.70
3.30
2.95
2.66
2.40
2.11
1.73
1.21
0.57
-0.15
-0.91
-1.65
-2.34
-3.00
-3.68
-4.43
-5.28
-6.23
-7.23
-8.20
-9.11
-9.94
-10.76
-11.68
-12.83
-14.37
-16.37
-18.71
-21.06
-22.93
-23.73
-23.04
-20.69
-16.87
-12.05
-6.87
-1.94
2.31
5.66
8.08
9.64
10.45
10.58
10.12
9.18
7.93
6.59
5.39
4.59
4.34
4.70
5.63
6.98
8.55
10.13
11.57
12.77
13.66
14.22
14.40
14.19
13.62
12.80
11.87
10.95
10.11
9.32
8.50
7.60
6.67
5.78
5.07
4.59
4.31
4.15
3.97
3.65
3.13
2.39
1.50
0.50
-0.51
-1.46
-2.29
-3.02
-3.69
-4.41
-5.27
-6.35
-7.62
-9.02
-10.43
-11.75
-12.95
-14.04
-15.12
-16.32
-17.79
-19.65
-21.90
-24.34
-26.56
-27.99
-28.06
-26.46
-23.16
-18.49
-12.98
-7.18
-1.60
3.41
7.55
10.60
12.45
13.13
12.86
12.00
10.97
10.07
9.45
9.10
8.93
8.92
9.14
9.70
10.68
12.07
13.68
15.26
16.57
17.45
17.83
17.75
17.25
16.42
15.35
14.11
12.87
11.74
10.82
10.09
9.43
8.69
7.76
6.65
5.49
4.49
3.84
3.57
3.60
3.68
3.59
3.16
2.41
1.45
0.46
-0.45
-1.25
-2.02
-2.87
-3.89
-5.08
-6.37
-7.69
-8.95
-10.13
-11.25
-12.37
-13.52
-14.74
-16.05
-17.54
-19.30
-21.38
-23.64
-25.68
-26.90
-26.68
-24.60
-20.68
-15.35
-9.35
-3.45
1.78
6.04
9.30
11.60
12.99
13.47
13.07
11.93
10.35
8.74
7.49
6.84
6.87
7.48
8.49
9.71
11.05
12.40
13.68
14.76
15.51
15.78
15.55
14.88
13.89
12.77
11.64
10.59
9.64
8.78
7.98
7.24
6.57
6.00
5.56
5.27
5.07
4.86
4.56
4.07
3.38
2.51
1.57
0.64
-0.19
-0.90
-1.50
-2.08
-2.72
-3.54
-4.59
-5.87
-7.31
-8.78
-10.12
-11.18
-11.94
-12.46
-12.97
-13.71
-14.94
-16.74
-18.95
-21.17
-22.81
-23.27
-22.10
-19.16
-14.71
-9.29
-3.62
1.61
5.91
9.04
11.01
11.95
12.07
11.55
10.59
9.36
8.07
6.91
6.03
5.55
5.50
5.85
6.49
7.30
8.18
9.07
9.97
10.86
11.68
12.27
12.45
12.05
11.07
9.67
8.13
6.79
5.83
5.26
4.98
4.78
4.50
4.07
3.51
2.88
2.24
1.63
1.03
0.45
-0.12
-0.68
-1.21
-1.71
-2.21
-2.81
-3.61
-4.68
-5.99
-7.43
-8.81
-10.01
-10.94
-11.67
-12.30
-13.01
-13.97
-15.31
-17.08
-19.16
-21.22
-22.76
-23.24
-22.23
-19.61
-15.59
-10.72
-5.61
-0.84
3.21
6.35
8.57
9.90
10.47
10.41
9.89
9.11
8.23
7.41
6.74
6.29
6.11
6.25
6.72
7.49
8.49
9.56
10.52
11.22
11.56
11.53
11.19
10.63
9.95
9.18
8.34
7.46
6.58
5.80
5.16
4.70
4.34
3.99
3.54
2.97
2.33
1.70
1.14
0.68
0.28
-0.10
-0.48
-0.84
-1.16
-1.47
-1.86
-2.44
-3.29
-4.39
-5.62
-6.82
-7.88
-8.75
-9.49
-10.19
-10.90
-11.69
-12.59
-13.66
-15.00
-16.66
-18.52
-20.22
-21.25
-21.05
-19.31
-16.11
-11.86
-7.22
-2.81
0.97
3.93
6.08
7.44
8.06
7.96
7.28
6.24
5.15
4.30
3.85
3.82
4.10
4.57
5.14
5.80
6.58
7.48
8.50
9.56
10.56
11.37
11.88
11.97
11.58
10.73
9.53
8.20
6.95
5.97
5.31
4.95
4.73
4.50
4.18
3.75
3.27
2.82
2.45
2.13
1.79
1.37
0.82
0.20
-0.43
-1.00
-1.51
-2.04
-2.69
-3.54
-4.57
-5.70
-6.76
-7.64
-8.31
-8.81
-9.29
-9.90
-10.79
-11.99
-13.43
-14.89
-16.03
-16.47
-15.88
-14.15
-11.36
-7.84
-4.03
-0.42
2.64
4.96
6.50
7.35
7.63
7.46
6.94
6.17
5.29
4.43
3.77
3.46
3.56
4.10
4.98
6.10
7.29
8.42
9.37
10.05
10.41
10.44
10.16
9.59
8.80
7.85
6.84
5.87
5.03
4.34
3.80
3.34
2.91
2.46
1.97
1.48
1.00
0.52
0.00
-0.56
-1.17
-1.78
-2.31
-2.74
-3.08
-3.43
-3.86
-4.42
-5.12
-5.91
-6.70
-7.46
-8.15
-8.77
-9.32
-9.82
-10.32
-10.93
-11.79
-13.02
-14.55
-16.15
-17.40
-17.83
-17.10
-15.10
-12.01
-8.20
-4.11
-0.16
3.33
6.17
8.21
9.36
9.64
9.16
8.18
7.05
6.10
5.56
5.55
6.01
6.83
7.85
8.92
9.95
10.89
11.69
12.32
12.75
12.95
12.93
12.74
12.41
11.99
11.53
11.09
10.74
10.54
10.54
10.74
11.05
11.35
11.55
11.66
11.75
11.98
12.47
13.24
14.20
15.21
16.14
16.92
17.54
18.03
18.40
18.60
18.62
18.44
18.11
17.68
17.23
16.84
16.52
16.34
16.30
16.40
16.60
16.84
17.02
17.10
17.06
16.92
16.71
16.48
16.20
15.84
15.37
14.74
13.91
12.87
11.60
10.04
8.14
5.78
2.88
-0.61
-4.62
-9.02
-13.55
-17.98
-22.06
-25.64
-28.64
-31.05
-32.96
-34.47
-35.72
-36.80
-37.75
-38.54
-39.12
-39.40
-39.41
-39.21
-38.92
-38.63
-38.33
-37.89
-37.10
-35.78
-33.90
-31.58
-29.12
-26.89
-25.16
-24.08
-23.54
-23.22
-22.66
-21.43
-19.24
-16.15
-12.52
-8.94
-5.97
-3.99
-3.10
-3.15
-3.83
-4.89
-6.13
-7.42
-8.65
-9.72
-10.62
-11.42
-12.30
-13.43
-14.78
-16.11
-16.93
-16.73
-15.12
-12.11
-8.01
-3.43
0.97
4.71
7.53
9.40
10.46
10.89
10.88
10.58
10.15
9.75
9.48
9.38
9.41
9.51
9.62
9.73
9.89
10.15
10.53
10.99
11.45
11.81
12.05
12.15
12.14
12.06
11.92
11.74
11.55
11.37
11.25
11.18
11.13
11.05
10.92
10.69
10.36
9.95
9.47
8.93
8.27
7.39
6.09
4.13
1.34
-2.37
-6.82
-11.68
-16.41
-20.43
-23.21
-24.35
-23.70
-21.36
-17.73
-13.36
-8.90
-4.93
-1.86
0.14
1.11
1.26
0.90
0.33
-0.19
-0.51
-0.61
-0.53
-0.35
-0.09
0.29
0.87
1.66
2.62
3.59
4.42
4.99
5.30
5.38
5.23
4.86
4.19
3.25
2.15
1.09
0.28
-0.19
-0.36
-0.43
-0.61
-1.04
-1.74
-2.59
-3.43
-4.13
-4.62
-4.98
-5.30
-5.73
-6.35
-7.18
-8.12
-9.03
-9.79
-10.37
-10.85
-11.40
-12.21
-13.44
-15.12
-17.10
-19.08
-20.58
-21.09
-20.24
-17.83
-14.05
-9.32
-4.28
0.48
4.51
7.60
9.75
11.09
11.78
11.96
11.74
11.21
10.48
9.72
9.14
8.91
9.14
9.83
10.85
12.02
13.14
14.08
14.76
15.17
15.35
15.31
15.09
14.73
14.26
13.73
13.19
12.66
12.20
11.82
11.51
11.24
10.94
10.60
10.22
9.90
9.73
9.72
9.83
9.87
9.70
9.25
8.54
7.67
6.73
5.72
4.59
3.28
1.78
0.21
-1.31
-2.64
-3.74
-4.66
-5.50
-6.37
-7.32
-8.38
-9.55
-10.89
-12.50
-14.38
-16.43
-18.32
-19.57
-19.65
-18.24
-15.34
-11.30
-6.75
-2.35
1.37
4.14
5.96
7.00
7.42
7.39
6.96
6.20
5.20
4.13
3.21
2.64
2.51
2.75
3.18
3.53
3.63
3.38
2.84
2.17
1.55
1.10
0.86
0.80
0.87
1.05
1.34
1.78
2.36
3.07
3.80
4.42
4.79
4.85
4.60
4.13
3.57
3.00
2.47
1.96
1.45
0.88
0.27
-0.35
-0.90
-1.29
-1.48
-1.44
-1.18
-0.75
-0.25
0.19
0.44
0.38
-0.02
-0.72
-1.62
-2.58
-3.48
-4.27
-4.95
-5.61
-6.38
-7.38
-8.65
-10.07
-11.37
-12.15
-12.05
-10.84
-8.55
-5.43
-1.93
1.42
4.18
6.11
7.17
7.55
7.53
7.37
7.17
6.92
6.53
5.96
5.27
4.64
4.23
4.13
4.32
4.69
5.17
5.74
6.40
7.11
7.75
8.14
8.08
7.50
6.50
5.31
4.17
3.29
2.71
2.39
2.19
2.04
1.87
1.68
1.45
1.14
0.69
0.09
-0.62
-1.32
-1.91
-2.35
-2.67
-3.02
-3.48
-4.10
-4.80
-5.49
-6.09
-6.62
-7.22
-8.07
-9.27
-10.73
-12.15
-13.09
-13.11
-11.94
-9.59
-6.35
-2.72
0.79
3.73
5.82
6.99
7.31
6.96
6.15
5.10
4.01
3.03
2.31
1.91
1.84
2.04
2.43
2.88
3.34
3.76
4.13
4.43
4.58
4.55
4.34
4.03
3.74
3.54
3.41
3.24
2.90
2.35
1.65
0.95
0.38
-0.02
-0.28
-0.48
-0.65
-0.75
-0.68
-0.38
0.11
0.60
0.85
0.66
-0.03
-1.11
-2.33
-3.46
-4.34
-4.97
-5.45
-5.93
-6.52
-7.23
-8.02
-8.87
-9.79
-10.81
-11.88
-12.79
-13.21
-12.75
-11.21
-8.67
-5.50
-2.23
0.67
2.92
4.48
5.46
5.96
6.03
5.67
4.91
3.94
2.99
2.33
2.09
2.29
2.82
3.50
4.15
4.64
4.88
4.87
4.69
4.50
4.42
4.53
4.74
4.86
4.68
4.08
3.17
2.19
1.43
1.04
0.99
1.08
1.08
0.85
0.42
-0.12
-0.63
-1.07
-1.45
-1.82
-2.18
-2.47
-2.65
-2.76
-2.90
-3.21
-3.78
-4.59
-5.52
-6.39
-7.11
-7.68
-8.24
-8.99
-10.05
-11.38
-12.71
-13.63
-13.77
-12.92
-11.13
-8.65
-5.83
-3.03
-0.50
1.60
3.17
4.16
4.56
4.41
3.86
3.09
2.28
1.56
1.00
0.67
0.61
0.87
1.43
2.21
3.06
3.83
4.41
4.75
4.85
4.74
4.45
4.00
3.42
2.78
2.14
1.52
0.90
0.22
-0.58
-1.55
-2.67
-3.88
-5.07
-6.15
-7.02
-7.64
-8.02
-8.23
-8.34
-8.39
-8.39
-8.30
-8.13
-7.95
-7.91
-8.20
-9.00
-10.37
-12.22
-14.29
-16.15
-17.33
-17.38
-16.05
-13.34
-9.53
-5.14
-0.74
3.18
6.32
8.57
9.98
10.66
10.76
10.43
9.81
9.01
8.13
7.24
6.39
5.69
5.27
5.22
5.57
6.23
7.04
7.82
8.47
8.93
9.21
9.31
9.15
8.65
7.79
6.59
5.19
3.78
2.49
1.39
0.44
-0.46
-1.44
-2.58
-3.93
-5.43
-6.97
-8.37
-9.47
-10.19
-10.59
-10.86
-11.30
-12.22
-13.78
-15.86
-18.07
-19.78
-20.34
-19.28
-16.45
-12.11
-6.81
-1.27
3.87
8.13
11.25
13.20
14.08
14.10
13.49
12.52
11.40
10.35
9.50
8.94
8.68
8.74
9.10
9.72
10.55
11.53
12.53
13.42
14.08
14.43
14.42
14.03
13.27
12.15
10.74
9.14
7.50
5.95
4.60
3.44
2.38
1.32
0.17
-1.05
-2.27
-3.43
-4.47
-5.43
-6.38
-7.43
-8.67
-10.20
-12.09
-14.33
-16.80
-19.17
-20.95
-21.58
-20.64
-18.01
-13.96
-9.04
-3.97
0.66
4.45
7.27
9.17
10.26
10.65
10.44
9.71
8.62
7.34
6.09
5.11
4.57
4.58
5.14
6.14
7.37
8.61
9.67
10.49
11.11
11.57
11.88
11.96
11.70
11.06
10.08
8.91
7.75
6.70
5.84
5.12
4.49
3.90
3.32
2.72
2.09
1.39
0.64
-0.15
-0.93
-1.65
-2.30
-2.88
-3.45
-4.04
-4.70
-5.41
-6.16
-6.90
-7.60
-8.28
-8.93
-9.60
-10.36
-11.32
-12.59
-14.24
-16.23
-18.27
-19.89
-20.52
-19.68
-17.21
-13.28
-8.40
-3.20
1.72
5.91
9.11
11.21
12.23
12.33
11.71
10.64
9.41
8.21
7.18
6.39
5.88
5.68
5.83
6.35
7.20
8.27
9.44
10.57
11.54
12.25
12.62
12.57
12.06
11.10
9.83
8.44
7.14
6.08
5.31
4.78
4.34
3.83
3.12
2.15
0.96
-0.32
-1.52
-2.48
-3.11
-3.46
-3.68
-3.97
-4.48
-5.25
-6.23
-7.25
-8.22
-9.11
-9.99
-10.98
-12.17
-13.62
-15.24
-16.86
-18.19
-18.82
-18.40
-16.66
-13.55
-9.31
-4.43
0.46
4.77
8.14
10.42
11.71
12.23
12.19
11.73
10.93
9.85
8.56
7.22
6.08
5.35
5.21
5.67
6.63
7.88
9.18
10.35
11.24
11.77
11.88
11.57
10.88
9.89
8.73
7.51
6.30
5.13
4.03
3.02
2.13
1.36
0.74
0.24
-0.17
-0.54
-0.90
-1.31
-1.82
-2.47
-3.24
-4.10
-4.97
-5.78
-6.53
-7.25
-7.98
-8.77
-9.61
-10.49
-11.35
-12.19
-13.02
-13.86
-14.76
-15.82
-17.15
-18.80
-20.69
-22.53
-23.84
-24.04
-22.68
-19.59
-15.00
-9.45
-3.65
1.72
6.18
9.50
11.69
12.84
13.14
12.75
11.88
10.78
9.73
8.96
8.62
8.71
9.13
9.71
10.31
10.86
11.40
11.98
12.63
13.29
13.84
14.10
13.94
13.29
12.24
10.95
9.59
8.31
7.14
6.09
5.13
4.28
3.58
3.04
2.62
2.22
1.75
1.14
0.45
-0.25
-0.86
-1.39
-1.89
-2.46
-3.16
-3.98
-4.83
-5.67
-6.46
-7.27
-8.18
-9.20
-10.34
-11.52
-12.76
-14.09
-15.60
-17.23
-18.74
-19.70
-19.61
-18.13
-15.22
-11.18
-6.56
-1.93
2.27
5.78
8.48
10.35
11.36
11.54
10.97
9.84
8.39
6.89
5.59
4.63
4.11
4.08
4.55
5.51
6.87
8.49
10.13
11.54
12.47
12.78
12.44
11.55
10.31
8.95
7.69
6.64
5.84
5.24
4.74
4.27
3.77
3.21
2.58
1.85
1.05
0.23
-0.56
-1.23
-1.77
-2.18
-2.50
-2.81
-3.16
-3.63
-4.24
-5.00
-5.87
-6.77
-7.60
-8.31
-8.96
-9.67
-10.60
-11.90
-13.59
-15.59
-17.65
-19.42
-20.47
-20.39
-18.87
-15.84
-11.53
-6.45
-1.32
3.20
6.65
8.92
10.19
10.78
10.99
10.94
10.62
9.99
9.07
8.06
7.22
6.77
6.82
7.34
8.15
9.09
10.02
10.83
11.43
11.74
11.68
11.24
10.49
9.54
8.50
7.47
6.52
5.73
5.11
4.67
4.35
4.07
3.69
3.15
2.40
1.47
0.45
-0.53
-1.37
-2.03
-2.52
-2.93
-3.34
-3.84
-4.43
-5.05
-5.66
-6.22
-6.77
-7.39
-8.15
-9.06
-10.06
-11.04
-11.92
-12.67
-13.34
-14.11
-15.17
-16.67
-18.58
-20.61
-22.23
-22.82
-21.86
-19.15
-14.90
-9.67
-4.19
0.85
5.00
8.06
10.04
11.05
11.26
10.80
9.80
8.47
7.06
5.84
5.05
4.82
5.14
5.87
6.86
7.92
8.96
9.92
10.73
11.34
11.69
11.72
11.43
10.86
10.09
9.22
8.34
7.54
6.87
6.36
5.93
5.49
4.92
4.18
3.33
2.48
1.75
1.17
0.71
0.27
-0.17
-0.59
-0.89
-1.02
-1.00
-1.00
-1.24
-1.86
-2.89
-4.16
-5.45
-6.55
-7.36
-7.92
-8.38
-8.90
-9.60
-10.55
-11.74
-13.18
-14.82
-16.56
-18.18
-19.30
-19.44
-18.22
-15.48
-11.42
-6.57
-1.67
2.64
5.96
8.19
9.45
9.99
9.98
9.57
8.84
7.90
6.93
6.13
5.64
5.54
5.79
6.26
6.83
7.42
8.00
8.58
9.16
9.70
10.14
10.37
10.32
9.98
9.37
8.54
7.54
6.42
5.25
4.11
3.10
2.29
1.71
1.34
1.13
1.02
0.94
0.85
0.70
0.46
0.11
-0.34
-0.84
-1.37
-1.88
-2.36
-2.81
-3.30
-3.86
-4.56
-5.41
-6.39
-7.40
-8.33
-9.08
-9.66
-10.16
-10.78
-11.71
-13.08
-14.89
-16.92
-18.81
-20.06
-20.22
-19.01
-16.40
-12.70
-8.36
-3.90
0.29
3.95
6.95
9.18
10.52
10.95
10.54
9.52
8.25
7.03
6.05
5.37
4.96
4.80
4.94
5.48
6.44
7.75
9.20
10.50
11.43
11.86
11.83
11.45
10.89
10.25
9.57
8.84
8.03
7.13
6.21
5.37
4.67
4.12
3.68
3.25
2.81
2.35
1.93
1.59
1.33
1.14
0.92
0.61
0.13
-0.50
-1.24
-2.00
-2.68
-3.22
-3.62
-3.99
-4.47
-5.20
-6.25
-7.57
-9.01
-10.40
-11.61
-12.58
-13.34
-13.98
-14.69
-15.63
-16.96
-18.64
-20.43
-21.89
-22.44
-21.61
-19.16
-15.25
-10.35
-5.12
-0.25
3.75
6.62
8.36
9.16
9.27
8.96
8.39
7.63
6.72
5.71
4.72
3.93
3.54
3.66
4.25
5.15
6.12
6.93
7.44
7.65
7.61
7.44
7.23
7.05
6.88
6.72
6.51
6.22
5.81
5.30
4.69
4.05
3.41
2.81
2.26
1.79
1.49
1.41
1.58
1.92
2.27
2.40
2.15
1.51
0.62
-0.31
-1.09
-1.64
-2.05
-2.42
-2.91
-3.61
-4.56
-5.73
-7.05
-8.38
-9.56
-10.46
-11.09
-11.58
-12.16
-13.12
-14.65
-16.73
-19.09
-21.27
-22.68
-22.78
-21.26
-18.12
-13.72
-8.66
-3.61
0.94
4.68
7.57
9.70
11.13
11.89
11.94
11.31
10.13
8.65
7.19
6.02
5.33
5.16
5.46
6.11
7.00
8.02
9.08
10.05
10.82
11.27
11.39
11.20
10.78
10.21
9.53
8.74
7.85
6.91
5.97
5.14
4.47
3.93
3.45
2.93
2.28
1.47
0.54
-0.42
-1.32
-2.06
-2.58
-2.92
-3.19
-3.57
-4.21
-5.18
-6.42
-7.78
-9.11
-10.32
-11.41
-12.43
-13.44
-14.50
-15.66
-16.99
-18.53
-20.26
-21.98
-23.35
-23.94
-23.33
-21.33
-17.96
-13.55
-8.59
-3.61
0.95
4.79
7.77
9.85
11.05
11.46
11.18
10.43
9.45
8.53
7.87
7.61
7.77
8.28
9.04
9.96
10.94
11.91
12.77
13.44
13.85
13.97
13.81
13.38
12.72
11.84
10.81
9.69
8.58
7.57
6.71
5.98
5.35
4.75
4.13
3.50
2.91
2.35
1.83
1.27
0.59
-0.20
-1.06
-1.86
-2.50
-2.94
-3.26
-3.61
-4.16
-4.99
-6.10
-7.44
-8.91
-10.43
-11.94
-13.37
-14.65
-15.76
-16.77
-17.87
-19.26
-21.05
-23.09
-24.93
-25.95
-25.54
-23.34
-19.40
-14.13
-8.15
-2.11
3.46
8.14
11.71
14.04
15.14
15.15
14.35
13.10
11.75
10.59
9.78
9.33
9.23
9.40
9.80
10.39
11.16
12.06
13.02
13.93
14.66
15.12
15.27
15.09
14.62
13.88
12.91
11.79
10.59
9.44
8.43
7.59
6.88
6.19
5.44
4.60
3.72
2.92
2.28
1.85
1.56
1.31
1.00
0.61
0.11
-0.47
-1.15
-1.99
-3.03
-4.27
-5.61
-6.91
-7.98
-8.76
-9.31
-9.81
-10.48
-11.51
-12.99
-14.85
-16.90
-18.79
-20.10
-20.39
-19.34
-16.83
-13.08
-8.53
-3.77
0.67
4.45
7.42
9.57
10.98
11.71
11.85
11.49
10.80
9.94
9.07
8.28
7.64
7.17
6.94
6.99
7.36
8.06
9.07
10.30
11.62
12.86
13.81
14.27
14.09
13.23
11.80
10.02
8.20
6.59
5.35
4.45
3.74
3.01
2.10
0.98
-0.25
-1.44
-2.42
-3.12
-3.59
-3.95
-4.34
-4.90
-5.67
-6.64
-7.73
-8.84
-9.85
-10.72
-11.50
-12.30
-13.32
-14.71
-16.44
-18.33
-19.96
-20.85
-20.53
-18.73
-15.44
-10.97
-5.85
-0.70
3.91
7.61
10.21
11.75
12.39
12.34
11.80
10.94
9.91
8.89
8.02
7.47
7.30
7.50
7.99
8.59
9.13
9.53
9.76
9.92
10.08
10.24
10.34
10.21
9.73
8.86
7.67
6.34
5.05
3.91
3.00
2.31
1.83
1.53
1.34
1.16
0.87
0.40
-0.23
-0.91
-1.47
-1.78
-1.79
-1.58
-1.32
-1.20
-1.35
-1.86
-2.70
-3.76
-4.87
-5.86
-6.64
-7.21
-7.70
-8.28
-9.13
-10.39
-12.05
-14.02
-16.01
-17.65
-18.49
-18.12
-16.29
-13.07
-8.78
-4.01
0.61
4.53
7.44
9.27
10.14
10.26
9.85
9.08
8.08
6.96
5.87
4.93
4.29
4.04
4.20
4.72
5.45
6.28
7.09
7.82
8.44
8.90
9.17
9.20
8.93
8.33
7.45
6.40
5.35
4.46
3.84
3.50
3.34
3.24
3.07
2.78
2.39
1.91
1.39
0.82
0.23
-0.31
-0.74
-1.03
-1.21
-1.38
-1.70
-2.26
-3.08
-4.08
-5.13
-6.14
-7.07
-7.92
-8.73
-9.49
-10.24
-11.02
-11.94
-13.08
-14.44
-15.84
-16.95
-17.35
-16.68
-14.81
-11.87
-8.27
-4.52
-1.10
1.70
3.82
5.35
6.41
7.08
7.38
7.28
6.82
6.13
5.39
4.82
4.53
4.54
4.80
5.19
5.62
6.04
6.46
6.89
7.32
7.75
8.14
8.41
8.47
8.23
7.62
6.68
5.53
4.38
3.40
2.70
2.24
1.91
1.53
1.02
0.39
-0.27
-0.86
-1.30
-1.65
-1.95
-2.27
-2.60
-2.90
-3.16
-3.41
-3.74
-4.24
-4.96
-5.84
-6.76
-7.59
-8.28
-8.84
-9.39
-10.05
-10.96
-12.16
-13.64
-15.23
-16.64
-17.49
-17.38
-16.06
-13.52
-10.03
-6.05
-2.14
1.25
3.85
5.59
6.58
6.98
6.98
6.74
6.33
5.82
5.23
4.63
4.10
3.76
3.72
4.02
4.61
5.37
6.15
6.84
7.38
7.72
7.86
7.79
7.50
6.99
6.32
5.56
4.86
4.30
3.94
3.72
3.52
3.17
2.58
1.77
0.86
0.04
-0.51
-0.67
-0.47
-0.06
0.33
0.51
0.37
-0.07
-0.67
-1.30
-1.88
-2.42
-3.05
-3.89
-4.93
-6.06
-7.07
-7.80
-8.22
-8.44
-8.68
-9.15
-9.98
-11.18
-12.67
-14.32
-15.91
-17.19
-17.84
-17.54
-16.06
-13.37
-9.68
-5.41
-1.10
2.74
5.75
7.78
8.89
9.25
9.04
8.46
7.67
6.79
5.94
5.27
4.87
4.83
5.17
5.81
6.63
7.48
8.23
8.80
9.15
9.27
9.20
8.97
8.57
8.01
7.31
6.51
5.66
4.85
4.13
3.52
2.97
2.39
1.73
0.98
0.23
-0.36
-0.67
-0.66
-0.41
-0.10
0.08
-0.01
-0.39
-0.98
-1.67
-2.32
-2.87
-3.30
-3.65
-4.00
-4.44
-5.04
-5.83
-6.79
-7.87
-8.96
-9.99
-10.90
-11.73
-12.57
-13.55
-14.76
-16.20
-17.71
-18.99
-19.64
-19.33
-17.88
-15.31
-11.89
-8.00
-4.09
-0.51
2.47
4.70
6.15
6.86
6.95
6.59
5.94
5.17
4.39
3.69
3.11
2.74
2.65
2.95
3.66
4.73
6.03
7.38
8.62
9.59
10.21
10.40
10.16
9.54
8.66
7.68
6.76
5.96
5.29
4.68
4.08
3.45
2.86
2.37
2.02
1.79
1.62
1.39
1.03
0.50
-0.19
-0.92
-1.57
-2.04
-2.29
-2.40
-2.55
-2.91
-3.60
-4.63
-5.87
-7.16
-8.34
-9.29
-9.99
-10.48
-10.90
-11.41
-12.20
-13.42
-15.05
-16.85
-18.37
-19.05
-18.44
-16.37
-13.03
-8.88
-4.54
-0.56
2.75
5.27
7.07
8.24
8.85
8.94
8.54
7.75
6.74
5.72
4.89
4.41
4.35
4.71
5.44
6.47
7.70
9.04
10.34
11.43
12.15
12.41
12.18
11.53
10.58
9.50
8.43
7.48
6.72
6.12
5.59
5.00
4.25
3.36
2.43
1.64
1.10
0.85
0.78
0.70
0.47
-0.02
-0.73
-1.54
-2.33
-3.03
-3.64
-4.26
-4.98
-5.92
-7.08
-8.40
-9.73
-10.93
-11.90
-12.66
-13.32
-14.07
-15.09
-16.51
-18.39
-20.63
-22.94
-24.83
-25.74
-25.17
-22.85
-18.90
-13.77
-8.11
-2.56
2.36
6.37
9.34
11.30
12.36
12.66
12.40
11.78
10.99
10.19
9.53
9.13
9.10
9.47
10.19
11.13
12.12
13.03
13.78
14.39
14.84
15.10
15.07
14.69
13.91
12.80
11.54
10.33
9.35
8.68
8.28
8.03
7.79
7.44
6.92
6.26
5.56
4.89
4.30
3.76
3.27
2.76
2.22
1.67
1.09
0.50
-0.14
-0.84
-1.61
-2.44
-3.31
-4.19
-5.11
-6.08
-7.13
-8.27
-9.43
-10.53
-11.52
-12.37
-13.15
-13.94
-14.87
-16.11
-17.76
-19.84
-22.19
-24.42
-25.92
-26.03
-24.31
-20.69
-15.56
-9.64
-3.72
1.57
5.88
9.14
11.36
12.56
12.82
12.27
11.16
9.88
8.79
8.15
8.03
8.32
8.88
9.58
10.38
11.31
12.38
13.52
14.61
15.44
15.87
15.84
15.39
14.64
13.73
12.77
11.78
10.77
9.75
8.74
7.82
7.06
6.47
6.02
5.59
5.13
4.62
4.12
3.68
3.34
3.04
2.67
2.13
1.37
0.44
-0.53
-1.41
-2.10
-2.61
-3.00
-3.43
-4.04
-4.93
-6.11
-7.47
-8.83
-10.04
-10.99
-11.69
-12.25
-12.86
-13.73
-15.04
-16.84
-19.01
-21.26
-23.08
-23.93
-23.34
-21.07
-17.25
-12.30
-6.85
-1.52
3.20
7.02
9.85
11.66
12.51
12.45
11.62
10.26
8.67
7.20
6.15
5.66
5.75
6.32
7.21
8.27
9.39
10.46
11.43
12.26
12.91
13.33
13.46
13.23
12.61
11.67
10.55
9.44
8.49
7.75
7.14
6.52
5.79
4.95
4.07
3.28
2.68
2.29
2.07
1.94
1.81
1.62
1.32
0.86
0.23
-0.53
-1.34
-2.08
-2.67
-3.10
-3.43
-3.84
-4.47
-5.41
-6.63
-7.98
-9.27
-10.37
-11.29
-12.11
-13.03
-14.23
-15.78
-17.62
-19.52
-21.06
-21.76
-21.17
-19.07
-15.55
-11.00
-6.04
-1.32
2.69
5.77
7.91
9.22
9.82
9.77
9.14
8.05
6.71
5.40
4.36
3.78
3.68
4.02
4.72
5.72
6.92
8.21
9.45
10.45
11.09
11.36
11.28
10.95
10.43
9.75
8.92
8.00
7.08
6.28
5.71
5.34
5.06
4.72
4.23
3.61
2.96
2.37
1.86
1.37
0.83
0.20
-0.45
-1.01
-1.44
-1.76
-2.15
-2.78
-3.76
-5.06
-6.52
-7.92
-9.14
-10.17
-11.09
-11.99
-12.97
-14.07
-15.32
-16.79
-18.48
-20.25
-21.75
-22.44
-21.80
-19.53
-15.71
-10.79
-5.48
-0.45
3.81
7.10
9.40
10.81
11.37
11.15
10.27
8.92
7.43
6.20
5.51
5.55
6.24
7.33
8.50
9.47
10.09
10.44
10.67
10.98
11.43
11.89
12.18
12.07
11.48
10.49
9.29
8.11
7.10
6.31
5.66
5.06
4.46
3.84
3.22
2.61
2.01
1.40
0.85
0.43
0.21
0.16
0.17
0.07
-0.26
-0.84
-1.55
-2.25
-2.85
-3.41
-4.02
-4.78
-5.71
-6.75
-7.82
-8.92
-10.05
-11.25
-12.48
-13.65
-14.71
-15.67
-16.69
-17.97
-19.68
-21.75
-23.82
-25.32
-25.57
-24.12
-20.87
-16.21
-10.81
-5.42
-0.62
3.30
6.28
8.39
9.71
10.28
10.15
9.47
8.43
7.30
6.30
5.61
5.34
5.55
6.22
7.26
8.50
9.72
10.73
11.45
11.87
12.02
11.91
11.53
10.88
9.99
8.98
7.98
7.10
6.41
5.91
5.59
5.41
5.30
5.20
5.02
4.69
4.19
3.58
2.93
2.33
1.81
1.32
0.83
0.30
-0.24
-0.76
-1.25
-1.74
-2.28
-2.91
-3.63
-4.43
-5.31
-6.30
-7.45
-8.76
-10.14
-11.45
-12.53
-13.34
-13.96
-14.63
-15.63
-17.12
-19.06
-21.12
-22.82
-23.58
-22.99
-20.87
-17.33
-12.77
-7.72
-2.71
1.81
5.55
8.37
10.21
11.13
11.25
10.72
9.77
8.65
7.59
6.80
6.40
6.39
6.75
7.38
8.22
9.23
10.37
11.58
12.73
13.66
14.20
14.25
13.81
12.95
11.84
10.66
9.57
8.67
8.01
7.52
7.11
6.64
6.02
5.25
4.42
3.67
3.12
2.82
2.75
2.81
2.85
2.74
2.39
1.76
0.92
0.01
-0.81
-1.46
-1.93
-2.38
-2.99
-3.87
-5.05
-6.40
-7.71
-8.83
-9.67
-10.30
-10.84
-11.44
-12.23
-13.29
-14.68
-16.39
-18.33
-20.18
-21.50
-21.73
-20.46
-17.56
-13.29
-8.23
-3.08
1.55
5.30
8.04
9.79
10.65
10.76
10.28
9.44
8.48
7.60
6.91
6.41
6.11
6.03
6.25
6.83
7.75
8.89
10.07
11.13
11.94
12.47
12.69
12.57
12.07
11.16
9.92
8.51
7.14
6.03
5.28
4.85
4.64
4.49
4.26
3.88
3.34
2.68
1.96
1.25
0.62
0.13
-0.22
-0.49
-0.77
-1.16
-1.70
-2.39
-3.15
-3.91
-4.66
-5.45
-6.34
-7.39
-8.56
-9.73
-10.80
-11.74
-12.63
-13.63
-14.87
-16.43
-18.27
-20.29
-22.28
-23.93
-24.87
-24.67
-23.00
-19.74
-15.12
-9.67
-4.10
0.92
4.95
7.81
9.61
10.55
10.85
10.65
10.06
9.20
8.26
7.43
6.90
6.76
7.00
7.50
8.16
8.91
9.76
10.73
11.81
12.90
13.79
14.30
14.27
13.67
12.63
11.32
9.96
8.76
7.82
7.19
6.81
6.64
6.58
6.57
6.52
6.40
6.18
5.86
5.46
5.04
4.61
4.18
3.72
3.20
2.61
1.98
1.37
0.82
0.33
-0.15
-0.70
-1.36
-2.12
-2.92
-3.66
-4.32
-4.96
-5.68
-6.59
-7.72
-8.97
-10.21
-11.31
-12.22
-12.99
-13.73
-14.61
-15.76
-17.30
-19.24
-21.48
-23.68
-25.33
-25.82
-24.66
-21.67
-17.12
-11.61
-5.95
-0.82
3.32
6.36
8.35
9.48
9.88
9.70
9.08
8.22
7.31
6.58
6.15
6.06
6.29
6.78
7.44
8.24
9.13
10.06
10.99
11.86
12.60
13.16
13.49
13.57
13.35
12.85
12.09
11.13
10.04
8.90
7.78
6.74
5.85
5.13
4.58
4.16
3.79
3.43
3.01
2.52
2.00
1.50
1.07
0.73
0.47
0.22
-0.12
-0.63
-1.36
-2.28
-3.29
-4.24
-5.02
-5.60
-6.07
-6.58
-7.28
-8.21
-9.29
-10.38
-11.36
-12.20
-12.97
-13.84
-14.96
-16.41
-18.10
-19.78
-21.09
-21.58
-20.92
-18.94
-15.74
-11.67
-7.22
-2.89
0.90
3.90
6.00
7.17
7.48
7.07
6.15
5.01
3.90
3.09
2.73
2.87
3.45
4.32
5.27
6.13
6.79
7.27
7.65
8.05
8.48
8.90
9.16
9.08
8.57
7.62
6.31
4.79
3.20
1.70
0.41
-0.57
-1.21
-1.55
-1.66
-1.63
-1.55
-1.49
-1.54
-1.77
-2.23
-2.92
-3.76
-4.61
-5.38
-6.02
-6.59
-7.18
-7.85
-8.55
-9.15
-9.53
-9.61
-9.45
-9.25
-9.25
-9.68
-10.66
-12.12
-13.80
-15.28
-16.07
-15.78
-14.19
-11.34
-7.49
-3.03
1.63
6.09
10.07
13.38
15.94
17.73
18.79
19.23
19.14
18.65
17.94
17.21
16.66
16.43
16.54
16.92
17.42
17.89
18.25
18.53
18.78
19.01
19.22
19.37
19.40
19.28
19.04
18.69
18.29
17.87
17.48
17.18
17.00
16.95
16.99
17.06
17.09
17.10
17.13
17.25
17.49
17.81
18.05
18.04
17.62
16.74
15.48
14.01
12.54
11.22
10.12
9.16
8.21
7.09
5.63
3.74
1.44
-1.16
-3.80
-6.14
-7.75
-8.30
-7.56
-5.57
-2.59
0.86
4.24
7.06
9.04
10.13
10.45
10.18
9.45
8.29
6.72
4.77
2.60
0.45
-1.43
-2.88
-3.94
-4.80
-5.65
-6.59
-7.52
-8.27
-8.67
-8.68
-8.45
-8.19
-8.10
-8.21
-8.42
-8.60
-8.67
-8.66
-8.69
-8.86
-9.21
-9.65
-10.08
-10.40
-10.59
-10.72
-10.86
-11.05
-11.29
-11.52
-11.72
-11.89
-12.07
-12.31
-12.62
-12.95
-13.19
-13.26
-13.11
-12.77
-12.38
-12.05
-11.85
-11.76
-11.69
-11.53
-11.27
-10.95
-10.68
-10.60
-10.79
-11.28
-12.05
-13.01
-14.05
-14.99
-15.61
-15.70
-15.09
-13.77
-11.84
-9.51
-7.05
-4.72
-2.75
-1.25
-0.25
0.35
0.71
0.96
1.21
1.47
1.74
2.02
2.33
2.70
3.10
3.47
3.76
3.93
4.03
4.16
4.35
4.62
4.87
4.98
4.89
4.57
4.10
3.57
3.10
2.75
2.56
2.50
2.48
2.40
2.19
1.91
1.64
1.46
1.41
1.43
1.40
1.24
0.89
0.37
-0.34
-1.25
-2.36
-3.63
-5.01
-6.37
-7.64
-8.79
-9.81
-10.67
-11.34
-11.75
-11.88
-11.76
-11.50
-11.22
-11.03
-11.03
-11.30
-11.93
-12.95
-14.28
-15.70
-16.86
-17.41
-17.14
-16.02
-14.26
-12.16
-10.02
-8.01
-6.20
-4.61
-3.22
-2.10
-1.32
-0.92
-0.86
-1.03
-1.26
-1.43
-1.47
-1.38
-1.21
-0.96
-0.59
-0.02
0.79
1.82
2.96
4.02
4.86
5.38
5.61
5.64
5.59
5.52
5.42
5.23
4.87
4.29
3.53
2.69
1.88
1.18
0.60
0.12
-0.34
-0.84
-1.38
-1.92
-2.38
-2.71
-2.93
-3.11
-3.39
-3.87
-4.57
-5.43
-6.36
-7.21
-7.91
-8.42
-8.78
-9.14
-9.69
-10.66
-12.19
-14.25
-16.60
-18.74
-20.11
-20.21
-18.82
-15.98
-12.04
-7.48
-2.78
1.63
5.43
8.43
10.53
11.72
12.13
11.99
11.58
11.13
10.78
10.51
10.19
9.64
8.81
7.77
6.71
5.86
5.38
5.29
5.50
5.85
6.19
6.43
6.53
6.46
6.20
5.73
5.08
4.27
3.36
2.41
1.49
0.63
-0.12
-0.74
-1.23
-1.62
-1.94
-2.18
-2.34
-2.40
-2.37
-2.30
-2.30
-2.47
-2.92
-3.63
-4.55
-5.54
-6.49
-7.33
-8.03
-8.66
-9.34
-10.21
-11.38
-12.85
-14.49
-16.00
-16.97
-16.98
-15.75
-13.22
-9.56
-5.18
-0.53
3.92
7.85
11.05
13.45
15.10
16.09
16.55
16.58
16.22
15.49
14.36
12.88
11.17
9.46
7.95
6.82
6.13
5.82
5.76
5.81
5.85
5.78
5.52
5.02
4.26
3.32
2.33
1.46
0.87
0.60
0.60
0.68
0.64
0.32
-0.35
-1.33
-2.54
-3.86
-5.25
-6.69
-8.18
-9.69
-11.12
-12.36
-13.33
-14.04
-14.59
-15.18
-16.04
-17.31
-19.04
-21.13
-23.32
-25.20
-26.34
-26.29
-24.78
-21.77
-17.52
-12.50
-7.34
-2.59
1.38
4.38
6.42
7.62
8.12
8.08
7.63
6.91
6.04
5.09
4.12
3.20
2.42
1.95
2.02
2.85
4.61
7.29
10.69
14.44
18.12
21.35
23.87
25.57
26.47
26.69
26.35
25.57
24.43
23.02
21.43
19.76
18.09
16.54
15.16
13.94
12.80
11.59
10.12
8.31
6.19
3.95
1.90
0.24
-0.95
-1.81
-2.64
-3.82
-5.61
-8.13
-11.29
-14.80
-18.19
-20.84
-22.11
-21.48
-18.73
-14.07
-8.08
-1.57
4.64
10.01
14.26
17.38
19.49
20.72
21.14
20.85
19.98
18.76
17.46
16.33
15.52
15.05
14.78
14.54
14.19
13.66
13.05
12.47
12.09
11.94
11.97
12.03
11.98
11.75
11.39
11.01
10.73
10.71
11.06
11.88
13.28
15.27
17.72
20.31
22.52
23.72
23.33
20.94
16.44
9.97
1.85
-7.46
-17.48
-27.73
-37.80
-47.30
-55.94
-63.60
-70.35
-76.35
-81.82
-86.74
-90.84
-93.54
-94.15
-92.07
-87.05
-79.27
-69.24
-57.75
-45.66
-33.81
-22.98
-13.74
-6.40
-0.97
2.88
5.66
7.91
10.08
12.41
14.98
17.78
20.74
23.70
26.52
28.97
30.88
32.15
32.75
32.75
32.24
31.35
30.19
28.89
27.62
26.49
25.54
24.70
23.85
22.86
21.67
20.30
18.85
17.42
16.14
15.09
14.32
13.79
13.33
12.64
11.39
9.36
6.63
3.58
0.83
-0.97
-1.41
-0.44
1.67
4.44
7.39
10.13
12.46
14.26
15.52
16.22
16.37
16.01
15.24
14.22
13.15
12.19
11.41
10.73
10.00
9.03
7.75
6.24
4.71
3.38
2.40
1.75
1.28
0.72
-0.16
-1.52
-3.39
-5.71
-8.33
-11.04
-13.66
-16.05
-18.20
-20.20
-22.24
-24.54
-27.23
-30.29
-33.44
-36.25
-38.16
-38.69
-37.54
-34.72
-30.48
-25.28
-19.63
-13.95
-8.60
-3.77
0.44
3.99
6.93
9.32
11.23
12.73
13.89
14.74
15.38
15.89
16.38
16.91
17.47
18.04
18.57
19.01
19.33
19.48
19.40
19.04
18.41
17.60
16.76
16.04
15.51
15.11
14.74
14.27
13.68
13.03
12.41
11.90
11.47
11.03
10.51
9.86
9.16
8.50
7.96
7.50
7.02
6.41
5.59
4.64
3.69
2.92
2.39
2.06
1.77
1.34
0.66
-0.25
-1.30
-2.34
-3.28
-4.10
-4.83
-5.49
-6.14
-6.82
-7.58
-8.49
-9.59
-10.88
-12.29
-13.75
-15.22
-16.78
-18.60
-20.79
-23.28
-25.65
-27.17
-27.05
-24.75
-20.18
-13.76
-6.31
1.27
8.26
14.18
18.83
22.08
23.89
24.25
23.29
21.36
18.96
16.58
14.58
13.09
12.00
11.14
10.40
9.79
9.48
9.69
10.56
12.06
14.04
16.19
18.24
19.93
21.06
21.50
21.15
19.98
18.06
15.58
12.81
10.06
7.60
5.59
4.05
2.90
2.04
1.43
1.10
1.15
1.63
2.47
3.45
4.24
4.52
4.10
2.99
1.40
-0.36
-2.02
-3.46
-4.70
-5.86
-7.06
-8.34
-9.64
-10.83
-11.77
-12.43
-12.83
-13.08
-13.34
-13.73
-14.35
-15.25
-16.40
-17.70
-18.92
-19.72
-19.75
-18.70
-16.47
-13.18
-9.15
-4.84
-0.75
2.73
5.35
7.01
7.80
7.90
7.57
7.07
6.64
6.38
6.32
6.39
6.50
6.58
6.63
6.68
6.75
6.93
7.25
7.72
8.29
8.85
9.24
9.34
9.08
8.50
7.71
6.85
6.02
5.28
4.65
4.07
3.47
2.75
1.87
0.80
-0.39
-1.55
-2.57
-3.34
-3.86
-4.21
-4.49
-4.76
-5.03
-5.25
-5.39
-5.44
-5.42
-5.39
-5.38
-5.41
-5.45
-5.47
-5.45
-5.41
-5.44
-5.63
-6.06
-6.70
-7.47
-8.29
-9.11
-9.97
-10.95
-12.07
-13.18
-13.97
-14.06
-13.17
-11.29
-8.68
-5.81
-3.16
-1.05
0.40
1.25
1.62
1.62
1.34
0.82
0.13
-0.60
-1.24
-1.68
-1.86
-1.79
-1.49
-1.00
-0.33
0.54
1.60
2.79
3.99
4.99
5.60
5.70
5.27
4.48
3.58
2.81
2.30
2.03
1.85
1.59
1.13
0.49
-0.25
-0.95
-1.52
-1.91
-2.12
-2.19
-2.22
-2.26
-2.38
-2.57
-2.83
-3.12
-3.39
-3.63
-3.81
-3.93
-3.96
-3.90
-3.76
-3.62
-3.62
-3.88
-4.46
-5.35
-6.45
-7.66
-8.87
-10.02
-10.96
-11.48
-11.32
-10.29
-8.36
-5.77
-2.93
-0.32
1.74
3.14
3.98
4.44
4.65
4.61
4.29
3.63
2.71
1.70
0.79
0.15
-0.13
-0.07
0.25
0.72
1.22
1.64
1.91
2.01
1.99
1.90
1.78
1.65
1.47
1.22
0.95
0.75
0.72
0.86
1.09
1.23
1.14
0.80
0.30
-0.21
-0.56
-0.71
-0.68
-0.56
-0.43
-0.35
-0.35
-0.42
-0.52
-0.56
-0.48
-0.25
0.08
0.43
0.66
0.73
0.68
0.60
0.61
0.74
0.94
1.09
1.09
0.85
0.35
-0.37
-1.20
-2.00
-2.57
-2.72
-2.28
-1.23
0.32
2.10
3.76
4.98
5.56
5.47
4.89
4.04
3.16
2.36
1.67
0.96
0.14
-0.90
-2.18
-3.61
-5.08
-6.41
-7.46
-8.11
-8.33
-8.12
-7.50
-6.53
-5.24
-3.72
-2.10
-0.52
0.84
1.89
2.60
3.02
3.24
3.30
3.21
2.95
2.51
1.94
1.32
0.75
0.28
-0.10
-0.45
-0.83
-1.27
-1.73
-2.14
-2.47
-2.71
-2.87
-3.00
-3.14
-3.30
-3.52
-3.82
-4.19
-4.58
-4.88
-5.00
-4.93
-4.83
-4.97
-5.66
-7.03
-8.95
-11.01
-12.63
-13.27
-12.67
-10.86
-8.14
-4.97
-1.74
1.24
3.81
5.86
7.31
8.11
8.25
7.82
7.07
6.27
5.68
5.39
5.35
5.40
5.41
5.29
5.09
4.87
4.71
4.64
4.65
4.71
4.81
4.95
5.10
5.23
5.28
5.20
4.98
4.67
4.32
4.00
3.71
3.40
3.02
2.50
1.83
1.03
0.18
-0.66
-1.44
-2.12
-2.70
-3.18
-3.60
-4.01
-4.45
-4.97
-5.58
-6.21
-6.79
-7.21
-7.48
-7.67
-7.95
-8.46
-9.27
-10.32
-11.39
-12.21
-12.52
-12.11
-10.95
-9.10
-6.75
-4.16
-1.59
0.77
2.80
4.43
5.63
6.40
6.73
6.65
6.26
5.69
5.09
4.58
4.24
4.10
4.18
4.46
4.91
5.42
5.85
6.12
6.19
6.16
6.13
6.16
6.21
6.15
5.87
5.34
4.63
3.88
3.20
2.61
2.08
1.52
0.88
0.15
-0.61
-1.32
-1.91
-2.41
-2.88
-3.41
-4.07
-4.86
-5.71
-6.54
-7.27
-7.88
-8.42
-8.92
-9.45
-10.08
-10.88
-11.99
-13.48
-15.35
-17.39
-19.21
-20.32
-20.29
-18.99
-16.55
-13.37
-9.93
-6.65
-3.75
-1.32
0.70
2.43
3.98
5.46
6.98
8.53
10.06
11.45
12.58
13.40
13.98
14.45
14.94
15.50
16.07
16.55
16.88
17.07
17.18
17.24
17.23
17.07
16.64
15.86
14.74
13.37
11.87
10.37
8.95
7.60
6.30
5.00
3.68
2.38
1.14
0.02
-0.96
-1.79
-2.54
-3.26
-3.99
-4.75
-5.54
-6.32
-7.06
-7.75
-8.41
-9.08
-9.83
-10.71
-11.72
-12.85
-14.10
-15.46
-16.92
-18.41
-19.75
-20.62
-20.63
-19.44
-16.94
-13.32
-9.05
-4.70
-0.78
2.41
4.84
6.60
7.87
8.76
9.31
9.59
9.67
9.64
9.57
9.46
9.21
8.76
8.13
7.48
7.05
7.05
7.55
8.44
9.49
10.40
10.98
11.15
10.94
10.46
9.81
9.09
8.36
7.67
7.03
6.43
5.85
5.21
4.42
3.43
2.28
1.07
-0.04
-0.90
-1.48
-1.87
-2.26
-2.82
-3.62
-4.60
-5.60
-6.45
-7.07
-7.49
-7.86
-8.38
-9.21
-10.44
-12.06
-13.89
-15.65
-16.95
-17.47
-16.97
-15.44
-13.08
-10.19
-7.12
-4.11
-1.35
1.07
3.05
4.53
5.49
5.97
6.07
5.94
5.69
5.43
5.16
4.89
4.62
4.38
4.21
4.17
4.32
4.64
5.12
5.70
6.29
6.80
7.17
7.37
7.40
7.32
7.18
7.01
6.83
6.56
6.12
5.42
4.42
3.18
1.89
0.71
-0.23
-0.94
-1.56
-2.26
-3.19
-4.35
-5.65
-6.94
-8.11
-9.09
-9.92
-10.68
-11.49
-12.45
-13.65
-15.13
-16.84
-18.54
-19.85
-20.29
-19.46
-17.19
-13.58
-9.06
-4.19
0.50
4.62
8.01
10.66
12.65
14.04
14.83
15.03
14.67
13.89
12.88
11.89
11.09
10.57
10.29
10.17
10.12
10.09
10.09
10.18
10.38
10.69
11.06
11.36
11.49
11.37
10.95
10.24
9.29
8.17
6.95
5.71
4.53
3.42
2.40
1.44
0.50
-0.48
-1.50
-2.54
-3.59
-4.66
-5.78
-6.98
-8.23
-9.43
-10.44
-11.15
-11.59
-11.90
-12.34
-13.16
-14.53
-16.43
-18.66
-20.84
-22.48
-23.08
-22.28
-19.96
-16.30
-11.75
-6.87
-2.24
1.75
4.87
7.04
8.30
8.80
8.69
8.15
7.37
6.48
5.55
4.67
3.91
3.40
3.26
3.54
4.23
5.22
6.38
7.60
8.78
9.87
10.79
11.47
11.86
11.92
11.66
11.16
10.50
9.77
9.03
8.31
7.58
6.75
5.75
4.54
3.19
1.81
0.56
-0.52
-1.46
-2.39
-3.41
-4.60
-5.92
-7.23
-8.43
-9.46
-10.35
-11.22
-12.20
-13.41
-14.93
-16.75
-18.69
-20.44
-21.54
-21.50
-19.99
-16.97
-12.72
-7.76
-2.70
1.95
5.87
8.97
11.25
12.78
13.61
13.77
13.35
12.44
11.22
9.87
8.56
7.44
6.63
6.18
6.14
6.48
7.15
8.02
8.93
9.74
10.30
10.52
10.36
9.80
8.92
7.85
6.77
5.85
5.16
4.64
4.16
3.56
2.75
1.77
0.69
-0.42
-1.58
-2.85
-4.26
-5.71
-7.06
-8.15
-8.93
-9.47
-9.96
-10.62
-11.61
-12.98
-14.70
-16.67
-18.66
-20.36
-21.37
-21.30
-19.91
-17.18
-13.39
-8.96
-4.42
-0.18
3.47
6.41
8.60
10.06
10.83
10.96
10.58
9.84
8.90
7.91
6.98
6.19
5.62
5.29
5.23
5.40
5.76
6.24
6.80
7.41
8.04
8.63
9.10
9.35
9.33
9.05
8.57
7.97
7.29
6.52
5.61
4.54
3.35
2.11
0.88
-0.31
-1.47
-2.68
-3.95
-5.30
-6.68
-8.02
-9.23
-10.23
-10.97
-11.51
-12.02
-12.76
-14.01
-15.90
-18.32
-20.82
-22.75
-23.42
-22.38
-19.53
-15.17
-9.89
-4.40
0.69
4.96
8.22
10.47
11.84
12.51
12.67
12.46
11.99
11.34
10.56
9.70
8.83
8.06
7.49
7.22
7.34
7.83
8.65
9.62
10.57
11.31
11.70
11.68
11.30
10.65
9.89
9.15
8.52
7.99
7.48
6.84
5.95
4.79
3.45
2.08
0.85
-0.18
-1.08
-1.98
-2.99
-4.15
-5.40
-6.66
-7.84
-8.92
-9.91
-10.85
-11.83
-12.94
-14.32
-16.03
-18.01
-19.98
-21.47
-21.94
-20.98
-18.50
-14.73
-10.16
-5.34
-0.77
3.25
6.54
9.07
10.83
11.85
12.19
11.95
11.29
10.39
9.38
8.41
7.57
6.93
6.60
6.60
6.97
7.65
8.52
9.44
10.27
10.89
11.21
11.19
10.81
10.10
9.16
8.09
7.01
5.96
4.92
3.78
2.46
0.97
-0.62
-2.14
-3.48
-4.57
-5.49
-6.35
-7.25
-8.23
-9.25
-10.22
-11.05
-11.73
-12.30
-12.88
-13.59
-14.58
-15.94
-17.67
-19.64
-21.59
-23.11
-23.71
-22.96
-20.64
-16.86
-12.01
-6.69
-1.50
3.05
6.69
9.30
10.93
11.71
11.82
11.48
10.90
10.28
9.71
9.26
8.94
8.78
8.84
9.20
9.89
10.88
12.06
13.28
14.38
15.22
15.73
15.83
15.54
14.90
13.98
12.86
11.62
10.30
8.93
7.53
6.14
4.82
3.62
2.57
1.65
0.77
-0.17
-1.28
-2.58
-4.05
-5.62
-7.16
-8.57
-9.78
-10.79
-11.71
-12.74
-14.12
-16.06
-18.57
-21.40
-24.06
-25.89
-26.27
-24.82
-21.55
-16.79
-11.16
-5.33
0.13
4.81
8.51
11.14
12.73
13.38
13.29
12.73
11.94
11.15
10.48
9.94
9.55
9.33
9.34
9.63
10.23
11.06
12.02
12.97
13.83
14.56
15.11
15.43
15.42
15.01
14.18
13.01
11.63
10.19
8.80
7.46
6.14
4.76
3.33
1.89
0.53
-0.69
-1.74
-2.66
-3.57
-4.53
-5.61
-6.76
-7.98
-9.20
-10.41
-11.59
-12.75
-13.91
-15.21
-16.76
-18.70
-20.99
-23.31
-25.12
-25.74
-24.70
-21.88
-17.61
-12.51
-7.28
-2.44
1.72
5.13
7.79
9.69
10.81
11.12
10.75
9.94
9.00
8.17
7.61
7.32
7.26
7.38
7.66
8.12
8.78
9.62
10.59
11.56
12.39
12.92
13.06
12.72
11.97
10.92
9.73
8.56
7.48
6.50
5.53
4.50
3.34
2.08
0.76
-0.52
-1.71
-2.75
-3.69
-4.57
-5.48
-6.48
-7.62
-8.89
-10.21
-11.53
-12.78
-13.94
-15.09
-16.39
-17.98
-19.94
-22.11
-24.10
-25.32
-25.21
-23.42
-20.03
-15.43
-10.24
-5.07
-0.35
3.68
6.94
9.42
11.11
12.04
12.30
12.05
11.49
10.82
10.17
9.65
9.33
9.31
9.64
10.35
11.37
12.56
13.72
14.70
15.40
15.80
15.93
15.81
15.44
14.81
13.94
12.91
11.81
10.74
9.73
8.76
7.70
6.48
5.07
3.54
2.00
0.54
-0.83
-2.20
-3.66
-5.26
-6.93
-8.56
-9.98
-11.10
-11.96
-12.69
-13.50
-14.62
-16.21
-18.28
-20.70
-23.11
-24.97
-25.70
-24.82
-22.17
-17.97
-12.77
-7.27
-2.07
2.40
6.02
8.80
10.81
12.12
12.73
12.68
12.08
11.10
9.97
8.87
7.92
7.23
6.87
6.96
7.57
8.68
10.14
11.64
12.85
13.52
13.58
13.12
12.35
11.48
10.61
9.72
8.77
7.72
6.62
5.53
4.56
3.69
2.88
2.01
1.02
-0.09
-1.21
-2.20
-2.92
-3.33
-3.51
-3.65
-3.94
-4.51
-5.39
-6.51
-7.76
-9.01
-10.19
-11.25
-12.21
-13.19
-14.35
-15.89
-17.93
-20.43
-23.08
-25.31
-26.46
-26.00
-23.68
-19.66
-14.45
-8.73
-3.12
1.87
5.97
9.07
11.16
12.25
12.42
11.78
10.56
9.03
7.54
6.35
5.64
5.46
5.72
6.28
7.00
7.80
8.66
9.56
10.47
11.30
11.90
12.12
11.91
11.31
10.44
9.48
8.56
7.74
7.02
6.32
5.54
4.62
3.52
2.28
1.01
-0.18
-1.18
-1.94
-2.50
-2.96
-3.44
-4.01
-4.71
-5.54
-6.49
-7.53
-8.63
-9.76
-10.83
-11.82
-12.81
-13.95
-15.45
-17.42
-19.72
-21.88
-23.25
-23.15
-21.13
-17.19
-11.76
-5.59
0.52
5.91
10.17
13.13
14.85
15.47
15.19
14.29
13.03
11.70
10.55
9.78
9.51
9.74
10.43
11.46
12.66
13.89
15.01
15.93
16.62
17.05
17.25
17.19
16.84
16.15
15.10
13.71
12.09
10.39
8.75
7.26
5.92
4.68
3.43
2.14
0.83
-0.43
-1.55
-2.50
-3.33
-4.11
-4.96
-5.95
-7.11
-8.43
-9.85
-11.27
-12.59
-13.73
-14.64
-15.38
-16.09
-16.95
-18.16
-19.82
-21.90
-24.14
-26.08
-27.18
-26.91
-24.96
-21.36
-16.47
-10.94
-5.43
-0.49
3.58
6.71
8.94
10.33
10.92
10.74
9.92
8.69
7.37
6.25
5.54
5.34
5.65
6.47
7.77
9.51
11.61
13.85
15.99
17.75
18.92
19.40
19.17
18.29
16.92
15.21
13.38
11.56
9.85
8.21
6.56
4.82
2.97
1.09
-0.70
-2.26
-3.55
-4.59
-5.51
-6.42
-7.38
-8.38
-9.34
-10.21
-10.97
-11.70
-12.53
-13.59
-14.99
-16.78
-18.91
-21.22
-23.45
-25.19
-25.97
-25.37
-23.14
-19.35
-14.41
-8.92
-3.56
1.17
4.97
7.82
9.79
11.02
11.59
11.54
10.91
9.85
8.56
7.33
6.42
6.03
6.19
6.78
7.60
8.45
9.25
10.01
10.82
11.71
12.58
13.24
13.45
13.06
12.08
10.68
9.14
7.69
6.44
5.40
4.45
3.51
2.53
1.51
0.49
-0.50
-1.48
-2.44
-3.37
-4.24
-5.02
-5.70
-6.35
-7.10
-8.04
-9.21
-10.57
-12.02
-13.46
-14.85
-16.19
-17.59
-19.14
-20.94
-23.04
-25.36
-27.63
-29.42
-30.18
-29.40
-26.81
-22.50
-16.93
-10.78
-4.79
0.48
4.70
7.73
9.59
10.40
10.32
9.58
8.47
7.27
6.25
5.59
5.35
5.57
6.20
7.19
8.44
9.83
11.22
12.44
13.38
13.91
13.98
13.59
12.76
11.59
10.22
8.79
7.40
6.08
4.81
3.58
2.39
1.36
0.59
0.19
0.13
0.30
0.52
0.60
0.45
0.07
-0.51
-1.22
-2.02
-2.93
-3.94
-5.05
-6.20
-7.32
-8.34
-9.20
-9.92
-10.56
-11.24
-12.10
-13.27
-14.84
-16.80
-19.03
-21.22
-22.88
-23.47
-22.48
-19.69
-15.23
-9.57
-3.42
2.54
7.79
12.05
15.22
17.31
18.34
18.37
17.49
15.90
13.96
12.03
10.44
9.39
8.90
8.88
9.18
9.69
10.34
11.10
11.91
12.66
13.22
13.50
13.44
13.08
12.45
11.60
10.56
9.37
8.12
6.92
5.89
5.05
4.36
3.71
3.05
2.37
1.73
1.21
0.76
0.26
-0.45
-1.49
-2.80
-4.22
-5.51
-6.50
-7.15
-7.57
-7.92
-8.38
-9.12
-10.25
-11.87
-13.93
-16.23
-18.31
-19.57
-19.41
-17.48
-13.85
-9.04
-3.80
1.09
5.09
7.95
9.72
10.59
10.74
10.34
9.54
8.47
7.30
6.23
5.39
4.89
4.74
4.94
5.45
6.20
7.12
8.10
9.07
9.95
10.68
11.16
11.29
10.96
10.16
8.93
7.46
5.91
4.39
2.95
1.58
0.25
-1.08
-2.41
-3.76
-5.18
-6.70
-8.26
-9.73
-10.94
-11.82
-12.43
-12.96
-13.69
-14.83
-16.48
-18.56
-20.85
-23.04
-24.72
-25.48
-24.99
-23.06
-19.72
-15.25
-10.08
-4.76
0.21
4.45
7.74
10.04
11.40
11.95
11.85
11.21
10.14
8.79
7.35
6.09
5.31
5.22
5.88
7.15
8.73
10.29
11.57
12.46
12.96
13.10
12.92
12.39
11.45
10.08
8.39
6.52
4.70
3.05
1.64
0.42
-0.73
-1.90
-3.18
-4.59
-6.08
-7.54
-8.81
-9.77
-10.36
-10.67
-10.88
-11.19
-11.80
-12.84
-14.37
-16.36
-18.62
-20.80
-22.35
-22.68
-21.30
-18.06
-13.24
-7.45
-1.50
3.92
8.33
11.54
13.60
14.61
14.78
14.32
13.48
12.51
11.65
11.02
10.69
10.66
10.91
11.42
12.16
13.06
14.03
14.92
15.62
16.08
16.30
16.33
16.17
15.78
15.07
13.98
12.54
10.87
9.19
7.68
6.44
5.42
4.48
3.45
2.25
0.93
-0.35
-1.40
-2.12
-2.57
-2.98
-3.60
-4.63
-6.09
-7.82
-9.56
-11.06
-12.21
-13.11
-13.97
-15.10
-16.74
-18.97
-21.63
-24.33
-26.49
-27.49
-26.85
-24.33
-20.06
-14.51
-8.36
-2.35
2.89
6.96
9.72
11.25
11.75
11.48
10.67
9.55
8.32
7.18
6.37
6.07
6.39
7.32
8.76
10.51
12.36
14.12
15.61
16.77
17.56
18.00
18.14
18.00
17.60
16.94
16.02
14.92
13.74
12.64
11.74
11.15
10.88
10.83
10.86
10.79
10.47
9.84
9.00
8.10
7.32
6.78
6.47
6.28
6.06
5.70
5.13
4.33
3.23
1.76
-0.16
-2.52
-5.20
-8.08
-11.05
-14.11
-17.32
-20.66
-23.94
-26.70
-28.38
-28.45
-26.68
-23.27
-18.75
-13.79
-9.01
-4.80
-1.31
1.43
3.47
4.81
5.42
5.32
4.63
3.57
2.44
1.51
0.97
0.88
1.19
1.77
2.54
3.43
4.40
5.39
6.31
7.04
7.47
7.54
7.25
6.71
6.02
5.25
4.44
3.56
2.60
1.56
0.48
-0.58
-1.53
-2.35
-3.02
-3.63
-4.27
-5.02
-5.88
-6.81
-7.69
-8.44
-9.02
-9.51
-10.02
-10.69
-11.61
-12.82
-14.29
-15.96
-17.66
-19.12
-19.93
-19.64
-17.90
-14.68
-10.30
-5.37
-0.63
3.36
6.28
8.17
9.21
9.59
9.48
8.94
8.08
7.06
6.11
5.43
5.12
5.17
5.48
5.93
6.44
7.00
7.62
8.28
8.95
9.53
9.90
9.97
9.66
8.96
7.94
6.71
5.40
4.14
3.00
2.05
1.29
0.68
0.16
-0.34
-0.88
-1.50
-2.18
-2.90
-3.63
-4.37
-5.17
-6.11
-7.22
-8.46
-9.69
-10.73
-11.48
-11.96
-12.36
-12.95
-14.02
-15.71
-17.92
-20.30
-22.27
-23.20
-22.58
-20.24
-16.41
-11.63
-6.62
-2.01
1.81
4.73
6.83
8.24
9.06
9.37
9.22
8.72
8.00
7.24
6.57
6.11
5.92
6.02
6.40
7.03
7.81
8.68
9.55
10.32
10.91
11.21
11.15
10.72
9.97
9.06
8.17
7.42
6.86
6.41
5.91
5.23
4.34
3.32
2.32
1.49
0.86
0.34
-0.23
-0.96
-1.84
-2.77
-3.64
-4.39
-5.07
-5.78
-6.64
-7.69
-8.85
-10.04
-11.17
-12.23
-13.24
-14.23
-15.20
-16.16
-17.16
-18.31
-19.73
-21.44
-23.29
-24.86
-25.57
-24.88
-22.46
-18.38
-13.10
-7.36
-1.94
2.57
5.86
7.95
9.07
9.50
9.52
9.27
8.85
8.33
7.80
7.38
7.24
7.47
8.06
8.88
9.74
10.46
10.98
11.36
11.72
12.14
12.59
12.92
12.98
12.69
12.10
11.33
10.52
9.70
8.85
7.89
6.81
5.72
4.74
4.02
3.61
3.47
3.50
3.55
3.49
3.22
2.68
1.87
0.85
-0.25
-1.30
-2.18
-2.88
-3.44
-3.99
-4.64
-5.50
-6.60
-7.90
-9.29
-10.67
-11.92
-12.99
-13.96
-15.03
-16.45
-18.38
-20.67
-22.88
-24.32
-24.32
-22.53
-19.03
-14.33
-9.11
-4.02
0.48
4.16
6.92
8.71
9.53
9.47
8.73
7.60
6.41
5.41
4.76
4.51
4.66
5.16
5.96
6.98
8.14
9.36
10.58
11.74
12.78
13.58
14.04
14.09
13.71
12.95
11.92
10.73
9.48
8.25
7.07
5.96
4.89
3.85
2.82
1.79
0.79
-0.10
-0.83
-1.37
-1.72
-1.97
-2.21
-2.57
-3.12
-3.89
-4.89
-6.08
-7.39
-8.78
-10.16
-11.43
-12.52
-13.39
-14.16
-15.01
-16.17
-17.77
-19.73
-21.70
-23.11
-23.42
-22.27
-19.64
-15.84
-11.41
-6.90
-2.77
0.72
3.46
5.45
6.73
7.36
7.43
7.06
6.37
5.52
4.70
4.05
3.74
3.86
4.45
5.45
6.75
8.21
9.71
11.12
12.34
13.25
13.80
13.95
13.76
13.33
12.76
12.14
11.54
11.02
10.62
10.37
10.22
10.02
9.58
8.78
7.61
6.24
4.92
3.87
3.13
2.54
1.83
0.73
-0.85
-2.84
-5.04
-7.22
-9.27
-11.13
-12.86
-14.46
-15.97
-17.42
-18.93
-20.65
-22.69
-24.98
-27.13
-28.52
-28.48
-26.55
-22.72
-17.42
-11.45
-5.65
-0.71
3.08
5.69
7.32
8.20
8.55
8.48
8.14
7.63
7.12
6.76
6.69
6.98
7.61
8.51
9.55
10.64
11.70
12.66
13.49
14.14
14.55
14.67
14.47
13.96
13.21
12.30
11.36
10.49
9.78
9.27
8.92
8.65
8.33
7.85
7.15
6.26
5.32
4.44
3.73
3.22
2.86
2.55
2.17
1.61
0.82
-0.21
-1.44
-2.79
-4.17
-5.48
-6.68
-7.79
-8.90
-10.10
-11.51
-13.19
-15.14
-17.28
-19.40
-21.21
-22.30
-22.31
-20.97
-18.22
-14.29
-9.63
-4.82
-0.37
3.35
6.12
7.90
8.73
8.71
8.02
6.90
5.65
4.59
3.91
3.73
4.02
4.71
5.71
7.01
8.58
10.36
12.20
13.84
15.02
15.55
15.39
14.63
13.47
12.10
10.67
9.32
8.09
7.01
6.05
5.12
4.12
2.99
1.76
0.54
-0.53
-1.34
-1.94
-2.44
-3.05
-3.89
-5.02
-6.32
-7.62
-8.77
-9.68
-10.42
-11.13
-12.01
-13.26
-14.95
-17.03
-19.22
-21.12
-22.22
-22.07
-20.40
-17.20
-12.76
-7.58
-2.25
2.65
6.70
9.66
11.53
12.44
12.62
12.34
11.81
11.24
10.79
10.63
10.90
11.66
12.88
14.36
15.85
17.12
18.05
18.64
18.97
19.12
19.07
18.71
17.94
16.73
15.20
13.57
12.09
10.91
10.06
9.41
8.78
8.00
6.97
5.70
4.28
2.81
1.43
0.24
-0.73
-1.50
-2.20
-2.99
-3.98
-5.25
-6.72
-8.28
-9.80
-11.15
-12.33
-13.36
-14.36
-15.46
-16.81
-18.52
-20.62
-22.98
-25.24
-26.90
-27.36
-26.19
-23.27
-18.86
-13.54
-8.04
-3.02
1.09
4.10
6.03
6.97
7.02
6.26
4.89
3.16
1.46
0.16
-0.50
-0.40
0.38
1.68
3.29
5.05
6.85
8.57
10.08
11.27
12.04
12.33
12.15
11.57
10.68
9.59
8.40
7.19
6.04
4.99
4.09
3.36
2.78
2.32
1.92
1.51
1.03
0.48
-0.12
-0.73
-1.30
-1.82
-2.35
-2.95
-3.69
-4.62
-5.70
-6.84
-7.95
-8.93
-9.79
-10.56
-11.34
-12.24
-13.37
-14.77
-16.42
-18.20
-19.85
-21.01
-21.29
-20.39
-18.24
-15.01
-11.14
-7.18
-3.66
-0.89
1.04
2.21
2.82
3.04
2.96
2.66
2.21
1.70
1.30
1.18
1.46
2.15
3.16
4.34
5.55
6.71
7.78
8.75
9.56
10.11
10.32
10.10
9.48
8.53
7.37
6.13
4.90
3.79
2.90
2.26
1.85
1.54
1.16
0.51
-0.50
-1.83
-3.32
-4.75
-5.97
-6.94
-7.73
-8.49
-9.39
-10.59
-12.16
-14.04
-16.04
-17.78
-18.78
-18.58
-16.91
-13.83
-9.75
-5.26
-0.96
2.71
5.61
7.77
9.27
10.19
10.50
10.21
9.41
8.32
7.18
6.28
5.76
5.68
5.97
6.53
7.25
8.03
8.82
9.58
10.27
10.80
11.12
11.16
10.89
10.34
9.57
8.66
7.69
6.69
5.66
4.60
3.48
2.34
1.24
0.27
-0.49
-1.04
-1.49
-1.96
-2.60
-3.43
-4.44
-5.51
-6.59
-7.66
-8.76
-9.94
-11.24
-12.65
-14.18
-15.84
-17.56
-19.15
-20.25
-20.42
-19.29
-16.71
-12.85
-8.16
-3.23
1.34
5.13
7.93
9.72
10.64
10.85
10.55
9.90
9.04
8.09
7.18
6.47
6.08
6.11
6.55
7.34
8.35
9.47
10.55
11.50
12.22
12.62
12.63
12.21
11.39
10.28
9.01
7.76
6.69
5.85
5.24
4.78
4.34
3.81
3.11
2.24
1.28
0.30
-0.60
-1.35
-2.00
-2.62
-3.31
-4.14
-5.11
-6.15
-7.17
-8.12
-9.01
-9.84
-10.67
-11.50
-12.36
-13.30
-14.43
-15.90
-17.74
-19.81
-21.68
-22.78
-22.52
-20.57
-16.99
-12.27
-7.14
-2.36
1.54
4.32
6.01
6.80
6.86
6.34
5.38
4.16
2.98
2.27
2.39
3.59
5.79
8.65
11.63
14.23
16.09
17.12
17.43
17.23
16.68
15.90
14.95
13.88
12.79
11.80
11.04
10.50
10.09
9.67
9.07
8.20
7.04
5.66
4.15
2.59
1.06
-0.39
-1.70
-2.85
-3.82
-4.65
-5.41
-6.18
-7.04
-8.04
-9.18
-10.47
-11.86
-13.27
-14.57
-15.66
-16.47
-17.05
-17.58
-18.29
-19.41
-21.02
-22.94
-24.77
-25.96
-25.91
-24.19
-20.69
-15.65
-9.63
-3.34
2.54
7.53
11.35
13.95
15.38
15.72
15.11
13.74
11.90
9.97
8.32
7.24
6.86
7.13
7.90
8.98
10.24
11.63
13.11
14.64
16.10
17.31
18.07
18.26
17.88
17.05
15.97
14.75
13.46
12.03
10.38
8.48
6.37
4.22
2.17
0.38
-1.10
-2.24
-3.09
-3.76
-4.36
-5.05
-5.93
-7.05
-8.35
-9.66
-10.82
-11.68
-12.22
-12.54
-12.84
-13.39
-14.37
-15.89
-17.84
-19.90
-21.56
-22.26
-21.51
-19.09
-15.09
-9.91
-4.09
1.75
7.13
11.70
15.23
17.65
18.92
19.15
18.52
17.26
15.67
14.04
12.60
11.50
10.85
10.66
10.90
11.52
12.47
13.64
14.88
15.96
16.63
16.67
15.96
14.54
12.58
10.31
7.91
5.54
3.25
1.11
-0.84
-2.54
-3.96
-5.10
-5.97
-6.63
-7.06
-7.27
-7.28
-7.16
-7.02
-6.98
-7.14
-7.53
-8.07
-8.69
-9.29
-9.87
-10.48
-11.22
-12.22
-13.54
-15.19
-17.07
-18.95
-20.50
-21.32
-21.07
-19.53
-16.70
-12.85
-8.40
-3.84
0.34
3.83
6.49
8.31
9.41
9.88
9.80
9.21
8.17
6.83
5.45
4.33
3.71
3.72
4.29
5.25
6.41
7.60
8.76
9.85
10.81
11.58
12.04
12.11
11.79
11.14
10.26
9.24
8.15
7.01
5.86
4.72
3.65
2.66
1.73
0.81
-0.15
-1.15
-2.14
-3.04
-3.81
-4.45
-5.02
-5.61
-6.29
-7.07
-7.96
-8.94
-10.07
-11.40
-12.96
-14.67
-16.31
-17.50
-17.84
-16.96
-14.74
-11.28
-7.01
-2.52
1.60
4.89
7.19
8.56
9.22
9.37
9.11
8.43
7.33
5.95
4.56
3.54
3.16
3.48
4.30
5.26
6.07
6.59
6.88
7.11
7.39
7.70
7.90
7.81
7.31
6.42
5.25
3.96
2.67
1.44
0.27
-0.86
-1.94
-2.95
-3.89
-4.78
-5.69
-6.70
-7.86
-9.12
-10.38
-11.54
-12.53
-13.41
-14.34
-15.50
-17.00
-18.79
-20.61
-22.02
-22.55
-21.84
-19.76
-16.48
-12.41
-8.08
-3.97
-0.38
2.55
4.82
6.46
7.45
7.78
7.44
6.52
5.26
3.95
2.94
2.43
2.51
3.11
4.06
5.22
6.45
7.63
8.66
9.46
9.92
10.00
9.71
9.12
8.27
7.18
5.85
4.26
2.46
0.58
-1.20
-2.72
-3.90
-4.73
-5.29
-5.69
-6.01
-6.36
-6.79
-7.39
-8.19
-9.24
-10.56
-12.20
-14.23
-16.66
-19.39
-22.11
-24.29
-25.32
-24.72
-22.31
-18.30
-13.26
-7.88
-2.84
1.42
4.65
6.84
8.11
8.62
8.54
8.05
7.35
6.64
6.13
6.00
6.36
7.22
8.46
9.89
11.30
12.55
13.59
14.45
15.18
15.78
16.20
16.33
16.05
15.30
14.08
12.52
10.80
9.15
7.77
6.75
6.09
5.65
5.23
4.64
3.74
2.52
1.05
-0.48
-1.81
-2.72
-3.07
-2.90
-2.39
-1.80
-1.35
-1.25
-1.53
-2.18
-3.09
-4.20
-5.45
-6.90
-8.68
-10.94
-13.76
-17.03
-20.32
-22.97
-24.22
-23.52
-20.70
-16.10
-10.45
-4.59
0.74
5.11
8.37
10.59
11.89
12.41
12.25
11.57
10.57
9.52
8.68
8.19
8.08
8.24
8.52
8.80
9.07
9.42
10.00
10.92
12.12
13.45
14.61
15.36
15.54
15.14
14.32
13.25
12.15
11.13
10.24
9.47
8.80
8.22
7.70
7.23
6.77
6.27
5.68
5.03
4.37
3.76
3.27
2.86
2.45
1.89
1.07
-0.06
-1.48
-3.08
-4.73
-6.35
-7.92
-9.52
-11.24
-13.19
-15.46
-18.01
-20.70
-23.20
-25.06
-25.79
-24.99
-22.54
-18.64
-13.80
-8.70
-3.94
0.05
3.12
5.32
6.79
7.67
8.02
7.89
7.39
6.69
6.00
5.53
5.40
5.64
6.24
7.16
8.34
9.73
11.17
12.48
13.41
13.76
13.45
12.59
11.39
10.13
9.01
8.12
7.40
6.74
6.01
5.15
4.15
3.04
1.90
0.83
-0.09
-0.80
-1.30
-1.67
-2.09
-2.73
-3.71
-5.02
-6.52
-8.02
-9.36
-10.50
-11.45
-12.35
-13.34
-14.58
-16.19
-18.23
-20.60
-23.01
-25.00
-25.98
-25.43
-23.08
-19.04
-13.77
-8.00
-2.47
2.24
5.86
8.42
10.14
11.27
11.92
12.07
11.66
10.71
9.43
8.20
7.38
7.23
7.77
8.79
10.02
11.21
12.20
12.98
13.55
13.93
14.08
13.97
13.55
12.84
11.88
10.77
9.61
8.50
7.47
6.55
5.71
4.94
4.19
3.48
2.81
2.18
1.59
1.01
0.42
-0.20
-0.84
-1.46
-2.05
-2.64
-3.29
-4.09
-5.08
-6.29
-7.66
-9.08
-10.43
-11.66
-12.75
-13.79
-14.94
-16.35
-18.14
-20.23
-22.33
-23.97
-24.56
-23.63
-21.02
-16.94
-11.90
-6.57
-1.55
2.75
6.16
8.67
10.31
11.12
11.16
10.54
9.49
8.29
7.23
6.53
6.25
6.32
6.66
7.19
7.92
8.86
9.99
11.19
12.26
12.98
13.21
12.94
12.28
11.44
10.58
9.83
9.19
8.57
7.87
7.00
5.96
4.81
3.66
2.62
1.75
1.02
0.34
-0.38
-1.19
-2.08
-2.98
-3.78
-4.44
-4.94
-5.36
-5.84
-6.45
-7.26
-8.21
-9.22
-10.19
-11.09
-11.91
-12.70
-13.55
-14.55
-15.84
-17.45
-19.32
-21.16
-22.49
-22.76
-21.56
-18.78
-14.69
-9.82
-4.78
-0.06
4.04
7.38
9.91
11.60
12.45
12.53
12.00
11.07
9.94
8.79
7.77
7.03
6.72
6.92
7.64
8.76
10.08
11.35
12.38
13.08
13.42
13.42
13.13
12.62
11.96
11.19
10.29
9.25
8.05
6.76
5.51
4.45
3.66
3.11
2.65
2.12
1.40
0.49
-0.51
-1.44
-2.20
-2.78
-3.24
-3.69
-4.23
-4.92
-5.76
-6.69
-7.66
-8.56
-9.38
-10.11
-10.84
-11.67
-12.72
-14.08
-15.78
-17.73
-19.69
-21.31
-22.13
-21.82
-20.17
-17.27
-13.42
-9.07
-4.68
-0.62
2.85
5.60
7.55
8.71
9.16
9.04
8.55
7.84
7.03
6.20
5.49
5.02
4.93
5.28
6.03
7.04
8.13
9.14
9.98
10.60
10.96
11.04
10.81
10.28
9.53
8.66
7.76
6.89
6.05
5.22
4.37
3.49
2.54
1.52
0.41
-0.69
-1.68
-2.44
-2.89
-3.06
-3.13
-3.35
-3.91
-4.91
-6.27
-7.75
-9.10
-10.12
-10.79
-11.24
-11.68
-12.33
-13.33
-14.70
-16.41
-18.34
-20.31
-22.06
-23.22
-23.40
-22.26
-19.68
-15.88
-11.31
-6.58
-2.23
1.37
4.11
6.06
7.36
8.12
8.41
8.28
7.81
7.13
6.39
5.75
5.29
5.06
5.10
5.46
6.16
7.16
8.29
9.34
10.10
10.46
10.42
10.10
9.64
9.13
8.59
7.99
7.34
6.67
6.04
5.50
5.05
4.61
4.11
3.50
2.82
2.19
1.72
1.45
1.31
1.14
0.76
0.04
-0.98
-2.18
-3.40
-4.53
-5.56
-6.57
-7.64
-8.77
-9.93
-11.07
-12.22
-13.52
-15.17
-17.31
-19.87
-22.51
-24.64
-25.60
-24.91
-22.39
-18.27
-13.05
-7.37
-1.85
3.03
6.98
9.83
11.57
12.28
12.16
11.46
10.47
9.46
8.66
8.18
8.03
8.14
8.38
8.63
8.90
9.28
9.93
10.93
12.28
13.80
15.19
16.19
16.61
16.42
15.72
14.69
13.53
12.39
11.41
10.63
10.06
9.67
9.41
9.23
9.07
8.84
8.50
8.03
7.46
6.91
6.49
6.24
6.10
5.91
5.45
4.55
3.12
1.20
-1.10
-3.63
-6.31
-9.05
-11.84
-14.65
-17.43
-20.21
-23.01
-25.88
-28.75
-31.42
-33.48
-34.41
-33.75
-31.31
-27.25
-22.09
-16.48
-11.08
-6.33
-2.42
0.57
2.69
3.98
4.54
4.53
4.21
3.83
3.60
3.64
3.91
4.34
4.88
5.56
6.43
7.56
8.89
10.28
11.50
12.33
12.65
12.48
11.97
11.27
10.49
9.68
8.81
7.87
6.92
6.03
5.28
4.72
4.30
3.91
3.44
2.78
1.92
0.91
-0.12
-1.03
-1.74
-2.27
-2.73
-3.27
-4.04
-5.12
-6.45
-7.91
-9.36
-10.68
-11.88
-13.04
-14.32
-15.86
-17.73
-19.86
-22.02
-23.77
-24.65
-24.27
-22.43
-19.28
-15.18
-10.63
-6.10
-1.95
1.61
4.44
6.47
7.68
8.15
8.05
7.58
6.96
6.32
5.74
5.31
5.14
5.36
6.06
7.24
8.75
10.35
11.82
12.98
13.78
14.21
14.30
14.07
13.52
12.69
11.60
10.35
9.04
7.78
6.66
5.76
5.08
4.54
4.04
3.46
2.75
1.92
1.09
0.38
-0.14
-0.51
-0.86
-1.37
-2.16
-3.28
-4.65
-6.11
-7.52
-8.79
-9.92
-10.96
-12.02
-13.20
-14.65
-16.48
-18.72
-21.25
-23.70
-25.48
-26.00
-24.82
-21.89
-17.51
-12.29
-6.81
-1.56
3.18
7.20
10.35
12.49
13.54
13.60
12.94
11.91
10.89
10.17
9.88
10.05
10.64
11.54
12.63
13.81
14.96
16.04
16.97
17.68
18.09
18.10
17.65
16.79
15.63
14.37
13.19
12.20
11.44
10.88
10.41
9.94
9.38
8.67
7.82
6.85
5.85
4.87
3.99
3.25
2.66
2.21
1.89
1.65
1.44
1.20
0.87
0.43
-0.14
-0.78
-1.43
-2.00
-2.43
-2.74
-2.97
-3.20
-3.56
-4.09
-4.84
-5.75
-6.78
-7.85
-8.90
-9.90
-10.87
-11.82
-12.79
-13.87
-15.14
-16.69
-18.49
-20.32
-21.78
-22.37
-21.62
-19.34
-15.65
-10.98
-5.94
-1.10
3.07
6.33
8.56
9.76
10.06
9.63
8.74
7.64
6.57
5.67
5.05
4.75
4.81
5.19
5.85
6.68
7.57
8.46
9.31
10.09
10.73
11.11
11.09
10.61
9.71
8.58
7.44
6.46
5.67
5.00
4.32
3.52
2.53
1.41
0.24
-0.89
-1.87
-2.66
-3.28
-3.77
-4.20
-4.67
-5.21
-5.89
-6.69
-7.61
-8.62
-9.64
-10.62
-11.51
-12.37
-13.31
-14.55
-16.25
-18.41
-20.76
-22.80
-23.90
-23.56
-21.54
-18.00
-13.39
-8.28
-3.20
1.44
5.42
8.55
10.71
11.85
12.02
11.41
10.33
9.12
8.06
7.34
7.04
7.18
7.74
8.68
9.88
11.20
12.47
13.54
14.35
14.90
15.22
15.29
15.08
14.52
13.62
12.47
11.23
10.10
9.15
8.39
7.70
6.96
6.09
5.10
4.06
3.08
2.26
1.62
1.15
0.78
0.42
-0.01
-0.57
-1.29
-2.17
-3.21
-4.36
-5.56
-6.73
-7.80
-8.78
-9.73
-10.76
-11.98
-13.50
-15.32
-17.43
-19.69
-21.89
-23.67
-24.61
-24.26
-22.31
-18.74
-13.86
-8.22
-2.53
2.61
6.76
9.74
11.56
12.40
12.44
11.88
10.89
9.63
8.33
7.24
6.59
6.54
7.07
8.01
9.10
10.15
11.07
11.91
12.71
13.47
14.06
14.35
14.21
13.67
12.90
12.06
11.32
10.67
10.04
9.31
8.43
7.43
6.43
5.52
4.74
4.04
3.32
2.51
1.63
0.76
0.00
-0.58
-0.99
-1.33
-1.67
-2.09
-2.63
-3.31
-4.21
-5.37
-6.79
-8.34
-9.84
-11.10
-12.04
-12.76
-13.51
-14.56
-16.09
-18.03
-20.03
-21.56
-22.06
-21.13
-18.66
-14.88
-10.26
-5.37
-0.74
3.28
6.51
8.87
10.31
10.81
10.38
9.18
7.51
5.79
4.38
3.53
3.26
3.45
3.89
4.47
5.15
5.95
6.88
7.89
8.88
9.71
10.31
10.64
10.69
10.48
10.02
9.36
8.53
7.57
6.54
5.52
4.54
3.67
2.93
2.33
1.77
1.17
0.45
-0.36
-1.18
-1.85
-2.26
-2.42
-2.47
-2.60
-2.98
-3.68
-4.65
-5.76
-6.90
-7.97
-8.97
-9.89
-10.73
-11.53
-12.33
-13.24
-14.41
-15.89
-17.60
-19.22
-20.28
-20.28
-18.92
-16.22
-12.54
-8.49
-4.66
-1.51
0.76
2.19
2.93
3.16
3.03
2.63
2.04
1.37
0.77
0.43
0.51
1.09
2.13
3.51
5.06
6.59
8.02
9.27
10.35
11.23
11.85
12.13
12.02
11.50
10.66
9.64
8.60
7.63
6.78
6.04
5.42
4.95
4.65
4.49
4.39
4.23
3.89
3.28
2.47
1.55
0.65
-0.14
-0.86
-1.59
-2.48
-3.59
-4.89
-6.24
-7.46
-8.41
-9.04
-9.41
-9.69
-10.08
-10.77
-11.88
-13.46
-15.36
-17.28
-18.76
-19.29
-18.47
-16.12
-12.38
-7.70
-2.65
2.14
6.22
9.30
11.27
12.18
12.16
11.46
10.35
9.12
8.10
7.53
7.56
8.19
9.24
10.48
11.62
12.48
13.00
13.22
13.26
13.20
13.02
12.63
11.88
10.72
9.20
7.52
5.92
4.58
3.55
2.77
2.10
1.43
0.71
-0.08
-0.87
-1.65
-2.39
-3.08
-3.71
-4.22
-4.52
-4.54
-4.20
-3.55
-2.69
-1.83
-1.23
-1.08
-1.47
-2.36
-3.60
-4.99
-6.40
-7.78
-9.16
-10.60
-12.12
-13.73
-15.35
-16.90
-18.28
-19.33
-19.90
-19.83
-18.97
-17.34
-15.02
-12.23
-9.29
-6.45
-3.97
-1.95
-0.45
0.57
1.10
1.17
0.78
-0.02
-1.08
-2.14
-2.87
-2.98
-2.32
-0.96
0.82
2.71
4.40
5.76
6.77
7.48
7.88
7.94
7.61
6.90
5.92
4.87
3.91
3.14
2.52
1.94
1.29
0.50
-0.36
-1.23
-2.00
-2.64
-3.15
-3.57
-3.91
-4.16
-4.31
-4.38
-4.48
-4.73
-5.25
-6.09
-7.18
-8.41
-9.62
-10.74
-11.77
-12.76
-13.74
-14.80
-16.00
-17.43
-19.16
-21.13
-23.13
-24.72
-25.40
-24.71
-22.48
-18.83
-14.20
-9.18
-4.29
0.08
3.74
6.65
8.78
10.14
10.68
10.45
9.58
8.36
7.17
6.32
6.03
6.30
7.00
7.95
8.99
10.05
11.13
12.27
13.44
14.57
15.52
16.12
16.30
16.09
15.63
15.10
14.64
14.31
14.07
13.85
13.60
13.30
12.96
12.57
12.11
11.54
10.86
10.13
9.43
8.79
8.21
7.64
7.03
6.34
5.54
4.62
3.62
2.52
1.38
0.23
-0.90
-1.99
-3.05
-4.13
-5.32
-6.73
-8.51
-10.73
-13.32
-16.00
-18.24
-19.49
-19.27
-17.44
-14.20
-10.01
-5.49
-1.19
2.47
5.28
7.17
8.20
8.50
8.21
7.47
6.38
5.07
3.66
2.35
1.35
0.85
0.94
1.58
2.60
3.80
5.00
6.07
6.95
7.64
8.15
8.47
8.62
8.63
8.52
8.31
8.02
7.64
7.12
6.41
5.49
4.38
3.16
1.96
0.88
-0.00
-0.72
-1.37
-2.08
-2.97
-4.06
-5.28
-6.53
-7.68
-8.70
-9.59
-10.45
-11.41
-12.61
-14.14
-15.97
-17.95
-19.75
-20.90
-20.93
-19.55
-16.73
-12.74
-8.07
-3.27
1.16
4.90
7.80
9.78
10.86
11.12
10.70
9.84
8.83
7.96
7.40
7.21
7.36
7.79
8.46
9.39
10.61
12.10
13.75
15.36
16.72
17.68
18.14
18.12
17.72
17.03
16.16
15.21
14.22
13.21
12.12
10.86
9.38
7.72
6.02
4.46
3.23
2.39
1.93
1.68
1.47
1.10
0.44
-0.58
-1.95
-3.57
-5.31
-7.05
-8.71
-10.32
-11.96
-13.76
-15.77
-17.91
-19.95
-21.50
-22.15
-21.54
-19.58
-16.44
-12.57
-8.56
-4.94
-2.09
-0.12
1.02
1.45
1.36
0.92
0.28
-0.37
-0.89
-1.14
-1.07
-0.67
-0.05
0.71
1.49
2.27
3.03
3.82
4.69
5.62
6.52
7.24
7.65
7.63
7.19
6.40
5.37
4.23
3.06
1.96
1.01
0.31
-0.13
-0.35
-0.46
-0.62
-0.95
-1.49
-2.21
-2.99
-3.70
-4.30
-4.84
-5.41
-6.12
-7.01
-8.00
-9.00
-9.96
-10.94
-12.09
-13.50
-15.10
-16.57
-17.43
-17.21
-15.61
-12.64
-8.63
-4.11
0.34
4.22
7.19
9.16
10.18
10.45
10.20
9.63
8.86
8.00
7.15
6.46
6.09
6.10
6.47
7.07
7.71
8.31
8.82
9.30
9.77
10.18
10.45
10.46
10.14
9.52
8.67
7.69
6.66
5.65
4.75
3.98
3.37
2.88
2.45
1.99
1.48
0.90
0.32
-0.23
-0.71
-1.12
-1.51
-1.96
-2.58
-3.45
-4.63
-6.08
-7.64
-9.10
-10.26
-11.08
-11.63
-12.14
-12.83
-13.86
-15.28
-16.99
-18.80
-20.42
-21.51
-21.68
-20.61
-18.15
-14.42
-9.84
-5.00
-0.55
3.05
5.60
7.15
7.89
8.07
7.89
7.47
6.90
6.27
5.71
5.36
5.34
5.71
6.40
7.29
8.25
9.19
10.07
10.88
11.54
11.92
11.89
11.39
10.52
9.47
8.45
7.59
6.90
6.30
5.68
5.03
4.38
3.79
3.30
2.87
2.49
2.13
1.81
1.55
1.31
1.02
0.59
-0.02
-0.77
-1.57
-2.33
-3.04
-3.73
-4.52
-5.45
-6.52
-7.66
-8.76
-9.78
-10.70
-11.59
-12.51
-13.55
-14.82
-16.37
-18.24
-20.31
-22.31
-23.81
-24.36
-23.58
-21.39
-17.98
-13.79
-9.33
-5.07
-1.32
1.73
3.97
5.34
5.82
5.48
4.57
3.43
2.46
1.97
2.15
3.00
4.35
5.98
7.66
9.21
10.54
11.63
12.51
13.22
13.76
14.13
14.32
14.33
14.12
13.70
13.05
12.19
11.20
10.19
9.31
8.63
8.18
7.85
7.54
7.12
6.54
5.84
5.07
4.28
3.48
2.66
1.77
0.78
-0.31
-1.49
-2.73
-3.99
-5.23
-6.44
-7.58
-8.63
-9.57
-10.39
-11.12
-11.92
-12.97
-14.46
-16.42
-18.61
-20.56
-21.61
-21.23
-19.17
-15.58
-10.99
-6.10
-1.55
2.23
5.08
7.03
8.18
8.67
8.58
8.01
7.11
6.05
5.04
4.27
3.83
3.76
3.99
4.47
5.12
5.92
6.85
7.88
8.93
9.86
10.51
10.71
10.39
9.57
8.40
7.09
5.87
4.87
4.14
3.65
3.30
2.97
2.59
2.13
1.59
1.01
0.46
0.05
-0.13
0.00
0.43
1.04
1.64
1.99
1.91
1.31
0.21
-1.27
-3.00
-4.84
-6.69
-8.50
-10.25
-12.00
-13.84
-15.87
-18.10
-20.36
-22.27
-23.33
-23.08
-21.27
-18.00
-13.69
-8.91
-4.24
-0.10
3.26
5.71
7.23
7.86
7.71
6.99
6.01
5.05
4.39
4.19
4.48
5.17
6.13
7.17
8.14
8.96
9.65
10.27
10.90
11.54
12.07
12.33
12.16
11.53
10.54
9.37
8.17
7.03
5.95
4.92
3.98
3.19
2.66
2.41
2.39
2.46
2.46
2.28
1.87
1.22
0.41
-0.50
-1.41
-2.28
-3.09
-3.84
-4.55
-5.24
-5.90
-6.51
-7.07
-7.62
-8.25
-9.01
-9.94
-11.03
-12.24
-13.60
-15.15
-16.95
-18.93
-20.85
-22.28
-22.71
-21.75
-19.29
-15.50
-10.84
-5.84
-1.00
3.30
6.82
9.38
10.91
11.41
10.99
9.87
8.38
6.83
5.48
4.50
3.94
3.83
4.18
4.97
6.17
7.65
9.22
10.63
11.63
12.09
12.01
11.53
10.86
10.19
9.64
9.19
8.77
8.26
7.59
6.74
5.77
4.79
3.91
3.24
2.80
2.55
2.37
2.14
1.74
1.12
0.29
-0.64
-1.53
-2.25
-2.76
-3.11
-3.42
-3.87
-4.57
-5.54
-6.67
-7.80
-8.80
-9.61
-10.28
-10.94
-11.71
-12.72
-14.04
-15.69
-17.58
-19.48
-21.00
-21.61
-20.84
-18.45
-14.57
-9.69
-4.51
0.31
4.37
7.55
9.93
11.61
12.60
12.83
12.24
10.95
9.26
7.57
6.28
5.63
5.65
6.19
7.04
8.02
9.03
10.01
10.93
11.74
12.35
12.68
12.65
12.24
11.50
10.52
9.43
8.31
7.24
6.24
5.34
4.55
3.92
3.47
3.16
2.94
2.69
2.33
1.82
1.17
0.41
-0.41
-1.24
-2.01
-2.65
-3.14
-3.55
-4.02
-4.67
-5.60
-6.76
-8.02
-9.19
-10.18
-10.96
-11.62
-12.27
-13.07
-14.16
-15.65
-17.58
-19.83
-22.00
-23.54
-23.84
-22.50
-19.47
-15.15
-10.13
-5.05
-0.37
3.69
7.07
9.73
11.58
12.53
12.56
11.80
10.55
9.16
7.97
7.17
6.85
6.98
7.48
8.25
9.16
10.08
10.91
11.59
12.12
12.51
12.76
12.82
12.59
12.01
11.08
9.91
8.67
7.52
6.54
5.70
4.91
4.08
3.19
2.32
1.56
1.01
0.66
0.42
0.15
-0.30
-0.97
-1.85
-2.86
-3.91
-4.93
-5.88
-6.79
-7.70
-8.63
-9.60
-10.60
-11.60
-12.59
-13.58
-14.63
-15.86
-17.41
-19.33
-21.50
-23.56
-24.95
-25.11
-23.60
-20.35
-15.66
-10.12
-4.44
0.79
5.18
8.58
10.94
12.30
12.73
12.35
11.37
10.08
8.80
7.76
7.09
6.80
6.83
7.12
7.65
8.45
9.49
10.71
11.92
12.94
13.62
13.90
13.82
13.48
12.93
12.21
11.31
10.21
8.97
7.69
6.51
5.51
4.70
3.99
3.32
2.63
1.92
1.25
0.63
0.04
-0.61
-1.36
-2.24
-3.18
-4.10
-4.92
-5.67
-6.40
-7.22
-8.16
-9.20
-10.27
-11.32
-12.36
-13.44
-14.64
-16.04
-17.71
-19.69
-21.95
-24.31
-26.39
-27.70
-27.69
-26.02
-22.68
-18.03
-12.66
-7.25
-2.34
1.75
4.89
7.09
8.44
9.04
9.00
8.49
7.72
6.91
6.26
5.95
6.04
6.53
7.31
8.25
9.24
10.24
11.25
12.29
13.32
14.25
14.93
15.20
14.95
14.18
13.00
11.58
10.13
8.78
7.61
6.59
5.66
4.73
3.77
2.78
1.85
1.04
0.39
-0.12
-0.56
-1.02
-1.56
-2.18
-2.82
-3.40
-3.91
-4.39
-4.91
-5.54
-6.26
-6.98
-7.60
-8.08
-8.48
-8.96
-9.72
-10.89
-12.54
-14.67
-17.17
-19.83
-22.29
-24.00
-24.39
-23.05
-19.85
-15.10
-9.43
-3.60
1.73
6.14
9.48
11.76
13.08
13.55
13.30
12.49
11.35
10.15
9.12
8.46
8.25
8.50
9.15
10.10
11.23
12.41
13.51
14.42
15.06
15.39
15.41
15.17
14.69
13.98
13.07
11.99
10.83
9.69
8.68
7.82
7.07
6.34
5.58
4.77
4.00
3.40
3.08
3.03
3.14
3.18
2.94
2.31
1.29
0.05
-1.21
-2.31
-3.15
-3.79
-4.34
-4.98
-5.84
-6.96
-8.33
-9.87
-11.50
-13.14
-14.76
-16.34
-17.92
-19.59
-21.40
-23.32
-25.17
-26.59
-27.11
-26.33
-24.03
-20.28
-15.47
-10.18
-4.99
-0.38
3.34
6.04
7.68
8.28
7.90
6.68
4.95
3.17
1.90
1.62
2.59
4.76
7.78
11.18
14.46
17.27
19.44
20.88
21.57
21.49
20.69
19.34
17.70
16.10
14.79
13.92
13.49
13.39
13.45
13.53
13.48
13.17
12.49
11.39
9.92
8.22
6.48
4.85
3.45
2.27
1.23
0.24
-0.77
-1.83
-2.88
-3.82
-4.52
-4.91
-5.00
-4.90
-4.77
-4.78
-4.96
-5.30
-5.68
-5.98
-6.17
-6.25
-6.26
-6.25
-6.26
-6.32
-6.39
-6.40
-6.18
-5.54
-4.34
-2.53
-0.26
2.22
4.56
6.44
7.64
8.06
7.74
6.82
5.52
4.07
2.68
1.49
0.52
-0.22
-0.80
-1.22
-1.47
-1.52
-1.37
-1.06
-0.66
-0.20
0.30
0.89
1.63
2.48
3.30
3.87
4.01
3.61
2.73
1.55
0.33
-0.78
-1.71
-2.51
-3.31
-4.20
-5.23
-6.38
-7.59
-8.82
-9.98
-11.02
-11.89
-12.59
-13.21
-13.88
-14.78
-16.04
-17.65
-19.40
-20.90
-21.69
-21.34
-19.60
-16.52
-12.39
-7.65
-2.84
1.58
5.25
7.96
9.63
10.33
10.22
9.57
8.67
7.78
7.07
6.59
6.29
6.14
6.15
6.34
6.81
7.56
8.57
9.73
10.88
11.86
12.54
12.80
12.60
11.97
11.01
9.90
8.85
8.05
7.57
7.35
7.21
6.92
6.34
5.43
4.30
3.14
2.13
1.35
0.77
0.27
-0.29
-1.00
-1.90
-2.92
-4.00
-5.02
-5.89
-6.54
-7.02
-7.46
-8.10
-9.17
-10.74
-12.65
-14.46
-15.63
-15.67
-14.33
-11.68
-8.05
-3.97
0.05
3.55
6.25
8.01
8.86
8.94
8.44
7.60
6.64
5.74
5.04
4.62
4.52
4.69
5.01
5.36
5.64
5.83
6.00
6.23
6.56
6.94
7.20
7.19
6.77
5.96
4.90
3.81
2.86
2.12
1.51
0.85
-0.00
-1.08
-2.31
-3.50
-4.46
-5.09
-5.36
-5.32
-5.11
-4.88
-4.80
-5.01
-5.63
-6.62
-7.87
-9.15
-10.27
-11.14
-11.80
-12.45
-13.30
-14.52
-16.15
-18.00
-19.74
-20.89
-20.95
-19.56
-16.63
-12.35
-7.22
-1.88
3.00
6.94
9.69
11.29
11.95
11.95
11.52
10.82
9.93
8.93
7.93
7.11
6.64
6.60
6.90
7.32
7.63
7.72
7.65
7.57
7.65
7.89
8.14
8.15
7.72
6.81
5.57
4.29
3.24
2.58
2.30
2.27
2.28
2.20
1.92
1.43
0.76
-0.02
-0.88
-1.73
-2.52
-3.17
-3.65
-4.02
-4.37
-4.83
-5.47
-6.30
-7.22
-8.11
-8.89
-9.56
-10.19
-10.95
-11.97
-13.33
-14.94
-16.51
-17.63
-17.87
-16.91
-14.68
-11.41
-7.49
-3.43
0.34
3.56
6.05
7.79
8.77
9.07
8.78
8.09
7.21
6.35
5.68
5.30
5.24
5.48
5.95
6.54
7.16
7.76
8.31
8.82
9.29
9.69
9.96
10.01
9.75
9.20
8.40
7.46
6.46
5.43
4.38
3.31
2.30
1.45
0.85
0.55
0.47
0.46
0.39
0.17
-0.16
-0.53
-0.89
-1.27
-1.81
-2.64
-3.82
-5.26
-6.76
-8.10
-9.15
-9.94
-10.58
-11.25
-12.10
-13.22
-14.63
-16.32
-18.21
-20.09
-21.62
-22.36
-21.87
