1653125120.00
64.000000
-0.00
-0.00
-0.00
-0.00
-0.00
-0.00
-0.00
-0.00
-0.00
-0.00
0.00
0.01
0.01
-0.00
-0.03
-0.05
-0.05
0.00
0.13
0.36
0.66
1.01
1.37
1.72
2.06
2.40
2.79
3.24
3.80
4.42
5.06
5.66
6.20
6.68
7.15
7.68
8.31
9.14
10.09
11.04
11.88
12.56
13.14
13.76
14.65
15.96
17.91
20.32
22.90
25.38
27.58
29.57
31.68
34.32
37.81
42.54
48.15
54.10
59.83
64.97
69.58
74.14
79.35
85.71
93.76
103.00
112.62
121.72
129.76
136.75
143.32
150.78
157.82
166.68
177.93
191.68
206.72
220.18
227.75
224.81
207.97
176.33
132.23
79.49
22.43
-35.71
-93.33
-150.14
-206.24
-261.35
-314.67
-364.79
-410.85
-452.15
-488.05
-517.61
-539.32
-551.38
-552.05
-540.34
-516.20
-480.96
-436.79
-386.22
-331.67
-275.15
-218.20
-162.11
-108.15
-57.55
-11.61
28.65
62.76
90.85
113.58
131.79
146.19
157.10
164.53
168.28
168.38
165.31
159.97
153.39
146.50
139.79
133.21
126.39
118.79
109.91
99.36
87.09
73.71
60.87
51.12
47.13
50.57
61.00
75.72
90.63
101.80
106.94
106.00
100.70
93.26
85.45
77.75
69.92
61.73
53.47
45.93
39.96
35.93
33.49
31.71
29.40
25.83
21.03
15.85
11.56
9.32
9.63
11.99
15.13
17.44
17.70
15.47
11.19
5.99
1.16
-2.09
-2.81
-0.33
5.49
13.97
23.36
31.05
34.31
31.31
22.05
8.60
-5.55
-16.83
-22.89
-23.43
-19.89
-14.46
-8.82
-3.53
1.77
7.53
13.41
18.12
19.91
17.45
10.67
0.87
-9.77
-19.12
-25.72
-28.99
-29.09
-26.73
-23.03
-19.24
-16.52
-15.38
-15.43
-15.49
-14.32
-11.41
-7.30
-3.26
-0.53
0.47
0.33
0.12
0.64
1.84
2.98
3.16
1.97
-0.24
-2.59
-4.17
-4.51
-3.71
-2.30
-0.85
0.27
0.99
1.52
2.14
3.12
4.57
6.45
8.50
10.38
11.77
12.52
12.70
12.54
12.33
12.27
12.39
12.53
12.45
11.93
10.85
9.27
7.41
5.43
3.47
1.57
-0.30
-2.25
-4.34
-6.58
-8.86
-11.00
-12.82
-14.08
-14.65
-14.44
-13.48
-11.92
-9.99
-7.97
-6.12
-4.69
-3.81
-3.56
-3.95
-4.92
-6.34
-8.01
-9.65
-10.98
-11.77
-11.88
-11.34
-10.34
-9.20
-8.24
-7.71
-7.66
-7.97
-8.37
-8.47
-8.10
-7.36
-6.75
-6.99
-8.79
-12.49
-17.84
-23.99
-29.64
-33.65
-35.30
-34.45
-31.45
-26.86
-21.28
-15.20
-8.93
-2.52
3.95
10.30
16.08
20.60
22.99
22.58
19.25
12.82
4.63
-2.97
-7.43
-6.80
-0.50
10.38
23.36
35.31
43.34
45.81
42.41
34.16
22.90
10.75
-0.41
-9.34
-15.46
-18.88
-19.97
-19.32
-17.54
-15.15
-12.60
-10.31
-8.71
-8.12
-8.60
-9.81
-11.13
-12.01
-12.19
-11.98
-12.10
-13.27
-15.85
-19.50
-23.32
-26.25
-27.59
-27.26
-25.84
-24.22
-23.15
-22.92
-23.30
-23.69
-23.50
-22.37
-20.30
-17.61
-14.76
-12.13
-9.87
-7.84
-5.60
-2.58
1.73
7.57
14.78
22.70
30.34
36.44
39.80
39.53
35.47
28.44
20.30
13.62
10.91
13.70
21.83
33.45
45.69
55.70
61.65
63.11
60.82
56.00
49.74
42.64
34.96
26.98
19.17
12.21
6.71
2.93
0.58
-1.02
-2.67
-4.92
-7.85
-11.09
-14.09
-16.43
-18.08
-19.38
-20.81
-22.64
-24.69
-26.34
-26.76
-25.30
-21.81
-16.72
-10.85
-5.12
-0.22
3.56
6.37
8.56
10.53
12.51
14.52
16.40
17.92
18.95
19.48
19.66
19.72
19.84
20.15
20.65
21.31
22.05
22.74
23.25
23.45
23.20
22.43
21.12
19.27
16.98
14.34
11.55
8.83
6.42
4.48
3.02
1.85
0.70
-0.66
-2.36
-4.40
-6.71
-9.24
-11.93
-14.63
-17.03
-18.72
-19.31
-18.61
-16.72
-14.02
-10.92
-7.75
-4.66
-1.71
0.97
3.24
4.86
5.73
5.91
5.64
5.19
4.79
4.51
4.30
4.07
3.81
3.56
3.40
3.37
3.44
3.52
3.53
3.40
3.11
2.65
2.02
1.21
0.24
-0.84
-1.95
-3.05
-4.13
-5.28
-6.57
-8.10
-9.90
-11.95
-14.20
-16.60
-19.02
-21.31
-23.19
-24.37
-24.60
-23.78
-21.96
-19.38
-16.30
-13.00
-9.69
-6.48
-3.50
-0.84
1.40
3.13
4.31
4.96
5.21
5.21
5.12
5.08
5.10
5.12
5.04
4.83
4.50
4.14
3.83
3.55
3.20
2.68
1.93
0.97
-0.03
-0.96
-1.77
-2.46
-3.09
-3.70
-4.33
-5.04
-6.00
-7.39
-9.36
-11.89
-14.66
-17.17
-18.83
-19.18
-17.99
-15.32
-11.47
-6.88
-2.03
2.66
6.88
10.45
13.33
15.56
17.24
18.47
19.31
19.81
19.99
19.85
19.43
18.76
17.87
16.83
15.72
14.61
13.65
12.92
12.46
12.22
12.05
11.76
11.20
10.29
9.02
7.43
5.55
3.41
1.02
-1.58
-4.34
-7.20
-10.15
-13.21
-16.37
-19.50
-22.37
-24.58
-25.75
-25.59
-24.00
-21.10
-17.22
-12.72
-8.00
-3.37
0.90
4.65
7.75
10.14
11.81
12.80
13.18
13.09
12.68
12.13
11.59
11.13
10.77
10.46
10.14
9.77
9.33
8.83
8.28
7.74
7.21
6.72
6.21
5.62
4.79
3.59
1.94
-0.16
-2.59
-5.16
-7.71
-10.16
-12.52
-14.85
-17.20
-19.59
-21.95
-24.13
-25.91
-27.04
-27.28
-26.46
-24.55
-21.64
-17.98
-13.91
-9.76
-5.85
-2.42
0.39
2.51
3.93
4.74
5.11
5.24
5.32
5.45
5.62
5.72
5.65
5.33
4.77
4.13
3.56
3.18
3.00
2.93
2.76
2.31
1.48
0.29
-1.15
-2.69
-4.21
-5.64
-6.97
-8.24
-9.57
-11.08
-12.90
-15.10
-17.59
-20.13
-22.29
-23.62
-23.73
-22.48
-19.96
-16.46
-12.34
-7.93
-3.54
0.62
4.33
7.38
9.65
11.09
11.81
12.01
11.90
11.68
11.42
11.16
10.86
10.52
10.15
9.79
9.50
9.31
9.21
9.07
8.71
7.87
6.40
4.24
1.55
-1.34
-4.02
-6.14
-7.51
-8.20
-8.48
-8.74
-9.31
-10.30
-11.55
-12.64
-13.08
-12.52
-10.88
-8.37
-5.36
-2.19
0.94
4.02
7.09
10.16
13.13
15.75
17.79
19.11
19.78
19.99
19.94
19.74
19.32
18.52
17.20
15.40
13.33
11.32
9.69
8.54
7.81
7.24
6.62
5.77
4.71
3.50
2.23
0.98
-0.21
-1.29
-2.25
-3.05
-3.73
-4.35
-4.97
-5.62
-6.31
-7.00
-7.71
-8.46
-9.30
-10.24
-11.25
-12.25
-13.22
-14.23
-15.46
-17.15
-19.40
-22.06
-24.69
-26.67
-27.36
-26.40
-23.77
-19.79
-14.97
-9.83
-4.77
-0.06
4.16
7.78
10.72
12.96
14.53
15.56
16.22
16.67
16.99
17.15
17.09
16.80
16.33
15.81
15.40
15.18
15.12
15.07
14.84
14.31
13.48
12.41
11.23
10.03
8.81
7.49
6.03
4.44
2.78
1.13
-0.46
-1.99
-3.54
-5.15
-6.87
-8.69
-10.61
-12.66
-14.89
-17.33
-19.95
-22.52
-24.67
-25.93
-25.92
-24.45
-21.62
-17.76
-13.33
-8.77
-4.43
-0.55
2.74
5.35
7.25
8.49
9.17
9.42
9.40
9.19
8.91
8.67
8.59
8.76
9.19
9.73
10.18
10.33
10.13
9.65
9.11
8.68
8.41
8.20
7.86
7.22
6.18
4.81
3.24
1.65
0.16
-1.18
-2.39
-3.54
-4.76
-6.18
-7.88
-9.85
-11.96
-13.88
-15.15
-15.29
-13.90
-10.79
-6.09
-0.16
6.41
13.02
19.09
24.24
28.28
31.12
32.78
33.26
32.53
30.63
27.67
23.90
19.71
15.53
11.74
8.59
6.19
4.48
3.31
2.49
1.89
1.48
1.34
1.57
2.14
2.68
2.46
0.64
-3.37
-9.50
-16.86
-24.00
-29.52
-32.73
-34.05
-34.80
-36.52
-40.17
-45.46
-51.02
-55.11
-56.41
-54.71
-50.94
-46.44
-42.10
-38.27
-35.19
-33.47
-34.17
-37.81
-43.16
-46.93
-45.04
-35.07
-18.34
0.10
13.83
18.52
14.43
6.14
-0.23
-0.58
5.10
13.27
19.48
21.15
18.74
14.90
12.33
12.13
13.40
13.95
11.86
6.64
-0.64
-7.81
-12.59
-13.46
-10.43
-4.81
1.17
5.28
5.90
2.43
-4.71
-14.20
-24.16
-32.78
-38.92
-42.44
-44.13
-45.04
-45.68
-45.60
-43.63
-38.62
-30.46
-20.44
-10.89
-4.15
-1.49
-2.67
-6.27
-10.54
-14.19
-16.48
-16.85
-14.47
-8.21
2.94
18.93
38.27
57.90
74.26
84.61
88.14
86.25
81.90
78.20
77.07
78.60
81.14
82.12
78.93
69.90
54.74
34.90
13.25
-6.56
-21.31
-29.21
-30.46
-26.95
-21.29
-15.75
-11.55
-9.02
-8.07
-8.60
-10.59
-13.76
-17.28
-19.78
-19.89
-16.87
-11.00
-3.46
4.25
10.89
15.84
19.18
21.32
22.71
23.60
23.97
23.69
22.67
20.99
18.88
16.70
14.78
13.36
12.53
12.27
12.50
13.08
13.90
14.90
16.08
17.56
19.53
22.11
25.28
28.77
32.04
34.42
35.24
34.02
30.55
24.92
17.46
8.67
-0.84
-10.38
-19.24
-26.75
-32.37
-35.76
-36.86
-35.86
-33.06
-28.82
-23.56
-17.66
-11.56
-5.66
-0.13
5.18
10.60
16.16
21.17
24.21
23.68
18.70
9.82
-0.99
-11.11
-18.33
-21.63
-21.18
-17.80
-12.38
-5.66
1.63
8.35
12.99
14.10
11.08
4.58
-3.62
-11.31
-16.75
-19.19
-18.97
-17.22
-15.22
-13.91
-13.66
-14.38
-15.74
-17.50
-19.55
-21.82
-24.08
-25.74
-25.95
-24.02
-19.82
-13.96
-7.58
-1.85
2.48
5.31
7.22
9.13
11.72
15.14
19.00
22.59
25.43
27.34
28.46
29.37
30.85
33.25
36.32
39.19
40.72
40.24
37.65
33.45
28.70
24.69
22.13
20.81
19.68
16.92
10.59
-1.71
-22.40
-52.50
-90.14
-130.06
-164.26
-183.90
-185.09
-167.99
-136.79
-100.02
-67.29
-43.52
-28.45
-18.24
-8.22
4.84
22.36
43.89
67.84
92.22
114.73
132.44
142.48
143.52
136.70
126.01
116.42
111.58
112.67
118.35
125.90
132.48
136.07
135.24
128.88
115.90
94.88
64.79
25.54
-21.46
-72.81
-122.78
-163.70
-187.66
-189.06
-167.14
-127.20
-79.83
-37.88
-12.08
-7.01
-19.63
-40.79
-59.38
-66.85
-60.04
-41.59
-18.16
2.46
14.06
13.90
3.24
-13.31
-29.58
-39.92
-41.22
-33.90
-21.46
-8.69
0.47
4.65
5.20
4.76
5.36
7.44
9.90
11.26
10.85
9.16
7.33
6.30
6.19
6.28
5.62
3.68
0.78
-1.97
-3.13
-1.58
2.91
9.39
15.97
20.46
21.15
17.67
11.44
5.43
3.43
8.68
22.63
44.13
69.55
93.78
111.73
119.83
116.86
104.19
84.97
63.10
42.23
25.17
13.69
8.40
8.24
9.97
8.45
-1.59
-22.98
-53.73
-86.80
-112.50
-122.66
-114.46
-91.63
-62.70
-36.78
-20.06
-14.33
-17.62
-26.27
-36.64
-45.83
-51.60
-52.21
-46.48
-34.34
-16.98
3.34
23.71
41.14
53.11
58.08
55.93
47.98
36.60
24.37
13.13
3.50
-4.84
-12.35
-18.89
-23.51
-25.11
-23.18
-18.41
-12.38
-7.33
-4.93
-5.57
-8.31
-11.19
-12.18
-10.08
-5.08
1.49
7.75
12.26
14.58
15.30
15.67
17.22
21.29
28.64
38.89
50.11
58.99
61.64
55.09
38.70
14.85
-11.57
-34.59
-49.11
-52.36
-44.64
-29.08
-10.76
4.75
12.93
11.75
2.30
-11.77
-25.84
-36.17
-41.23
-41.69
-39.07
-34.18
-26.24
-13.06
7.75
37.40
74.98
117.57
161.05
201.00
233.50
255.53
265.26
262.27
247.81
224.60
196.31
166.69
138.49
112.44
87.08
59.32
25.82
-15.15
-62.15
-110.10
-151.42
-178.76
-188.29
-181.92
-167.16
-154.23
-151.51
-161.33
-178.28
-191.24
-188.60
-163.79
-119.03
-64.85
-16.00
14.09
17.75
-5.85
-52.28
-114.50
-184.60
-254.08
-313.39
-352.24
-361.69
-337.55
-283.06
-208.84
-129.88
-60.40
-9.48
20.97
35.02
39.59
41.20
43.85
48.70
55.02
61.45
67.01
71.45
75.04
77.95
80.06
81.00
80.48
78.58
75.79
72.87
70.33
68.13
65.71
62.34
57.72
52.27
47.13
43.56
42.36
43.55
46.41
50.02
53.62
56.70
58.85
59.55
58.12
54.02
47.19
38.19
28.10
18.16
9.44
2.57
-2.16
-4.77
-5.52
-4.89
-3.54
-2.09
-0.97
-0.18
0.58
1.68
3.32
5.40
7.59
9.48
10.67
10.86
9.83
7.51
4.05
-0.16
-4.60
-8.73
-12.29
-15.34
-18.23
-21.41
-25.17
-29.50
-34.00
-38.07
-41.05
-42.42
-41.90
-39.61
-35.90
-31.37
-26.61
-22.05
-17.85
-13.89
-9.94
-5.78
-1.44
2.88
6.87
10.25
12.88
14.72
15.79
16.13
15.75
14.71
13.16
11.40
9.78
8.60
8.01
7.91
8.03
8.01
7.56
6.56
5.12
3.52
2.09
1.08
0.55
0.32
0.07
-0.60
-1.99
-4.23
-7.24
-10.76
-14.40
-17.74
-20.47
-22.42
-23.61
-24.23
-24.49
-24.55
-24.38
-23.75
-22.35
-19.87
-16.22
-11.56
-6.28
-0.88
4.18
8.63
12.39
15.54
18.24
20.57
22.55
24.09
25.10
25.51
25.35
24.68
23.61
22.22
20.60
18.87
17.15
15.57
14.21
13.03
11.96
10.82
9.50
7.92
6.12
4.18
2.21
0.28
-1.54
-3.26
-4.90
-6.48
-8.04
-9.56
-11.05
-12.46
-13.76
-14.90
-15.92
-16.90
-17.95
-19.21
-20.81
-22.75
-24.85
-26.77
-28.08
-28.33
-27.24
-24.73
-20.95
-16.19
-10.79
-5.12
0.46
5.63
10.12
13.78
16.55
18.53
19.88
20.75
21.25
21.41
21.23
20.72
19.89
18.81
17.56
16.27
15.09
14.15
13.57
13.39
13.57
13.98
14.42
14.71
14.68
14.26
13.39
12.11
10.46
8.56
6.47
4.23
1.87
-0.64
-3.31
-6.09
-8.87
-11.50
-13.86
-15.91
-17.73
-19.44
-21.18
-22.94
-24.54
-25.65
-25.90
-25.05
-23.07
-20.22
-16.87
-13.45
-10.20
-7.23
-4.49
-1.91
0.57
2.92
5.09
7.06
8.77
10.24
11.39
12.15
12.46
12.32
11.85
11.25
10.78
10.60
10.79
11.31
11.96
12.54
12.81
12.59
11.78
10.40
8.57
6.54
4.55
2.80
1.37
0.23
-0.73
-1.64
-2.58
-3.55
-4.51
-5.41
-6.21
-6.89
-7.48
-7.98
-8.36
-8.61
-8.74
-8.75
-8.71
-8.62
-8.45
-8.10
-7.46
-6.43
-5.04
-3.37
-1.54
0.36
2.35
4.51
6.87
9.38
11.89
14.17
16.07
17.48
18.45
19.05
19.37
19.43
19.22
18.71
17.90
16.87
15.73
14.63
13.70
12.94
12.30
11.62
10.76
9.63
8.23
6.69
5.24
4.10
3.41
3.14
3.11
3.03
2.68
1.97
0.92
-0.40
-1.95
-3.75
-5.81
-8.01
-10.14
-11.93
-13.18
-13.87
-14.12
-14.10
-13.88
-13.38
-12.48
-11.05
-9.07
-6.65
-3.89
-0.89
2.30
5.63
9.02
12.28
15.22
17.62
19.37
20.40
20.75
20.49
19.69
18.44
16.82
14.91
12.80
10.60
8.41
6.31
4.36
2.59
0.99
-0.49
-1.92
-3.37
-4.90
-6.55
-8.35
-10.27
-12.25
-14.15
-15.80
-17.08
-17.91
-18.35
-18.53
-18.63
-18.78
-19.04
-19.37
-19.72
-20.11
-20.53
-21.06
-21.75
-22.65
-23.77
-25.10
-26.53
-27.89
-28.90
-29.27
-28.80
-27.44
-25.31
-22.63
-19.65
-16.55
-13.43
-10.32
-7.23
-4.20
-1.30
1.38
3.70
5.56
6.86
7.60
7.86
7.80
7.60
7.42
7.35
7.44
7.70
8.13
8.65
9.16
9.56
9.83
10.01
10.23
10.59
11.11
11.70
12.19
12.46
12.46
12.19
11.68
10.87
9.69
8.09
6.10
3.84
1.52
-0.74
-2.84
-4.80
-6.65
-8.44
-10.25
-12.20
-14.44
-17.04
-19.92
-22.76
-25.15
-26.69
-27.15
-26.49
-24.88
-22.54
-19.68
-16.49
-13.11
-9.73
-6.46
-3.39
-0.48
2.39
5.34
8.50
11.86
15.41
19.12
23.03
27.27
31.97
37.13
42.52
47.62
51.82
54.58
55.70
55.43
54.28
52.86
51.48
50.11
48.39
45.91
42.43
37.93
32.53
26.33
19.32
11.49
2.93
-6.04
-14.89
-23.04
-30.14
-36.13
-41.22
-45.70
-49.75
-53.34
-56.30
-58.38
-59.43
-59.43
-58.45
-56.57
-53.89
-50.37
-45.91
-40.35
-33.59
-25.65
-16.73
-7.16
2.67
12.39
21.60
29.78
36.34
40.75
42.71
42.39
40.42
37.64
34.75
32.10
29.59
26.96
24.05
21.00
18.21
16.06
14.67
13.82
13.03
11.84
10.02
7.66
5.08
2.72
0.90
-0.29
-1.05
-1.75
-2.77
-4.36
-6.47
-8.85
-11.12
-13.03
-14.57
-15.98
-17.63
-19.76
-22.32
-24.91
-26.96
-27.94
-27.57
-25.90
-23.25
-20.00
-16.44
-12.69
-8.75
-4.63
-0.40
3.71
7.43
10.49
12.75
14.22
15.02
15.38
15.52
15.64
15.81
16.04
16.29
16.51
16.69
16.86
17.04
17.22
17.35
17.38
17.28
17.06
16.77
16.52
16.37
16.36
16.46
16.56
16.47
16.04
15.16
13.83
12.18
10.43
8.79
7.34
5.97
4.34
1.99
-1.52
-6.40
-12.54
-19.46
-26.36
-32.32
-36.43
-38.02
-36.81
-32.96
-27.10
-20.18
-13.26
-7.21
-2.57
0.55
2.34
3.13
3.18
2.73
1.97
1.14
0.54
0.43
0.95
2.04
3.46
4.94
6.22
7.24
8.09
8.96
10.12
11.74
13.83
16.19
18.44
20.18
21.04
20.86
19.68
17.70
15.27
12.68
10.20
7.94
5.90
3.93
1.83
-0.62
-3.57
-7.00
-10.76
-14.58
-18.10
-20.99
-22.96
-23.84
-23.65
-22.56
-20.84
-18.77
-16.53
-14.18
-11.67
-9.01
-6.32
-3.88
-2.03
-1.04
-1.00
-1.78
-3.08
-4.58
-5.98
-7.03
-7.54
-7.40
-6.62
-5.35
-3.93
-2.72
-1.92
-1.48
-1.09
-0.38
0.87
2.55
4.25
5.52
6.06
5.91
5.30
4.49
3.56
2.37
0.74
-1.39
-3.88
-6.43
-8.79
-10.89
-12.84
-14.80
-16.87
-18.91
-20.70
-21.96
-22.57
-22.50
-21.85
-20.65
-18.85
-16.32
-12.98
-8.91
-4.41
-0.02
3.63
6.01
6.91
6.59
5.65
4.78
4.48
4.80
5.41
5.83
5.77
5.28
4.70
4.47
4.79
5.52
6.27
6.57
6.06
4.68
2.68
0.73
-0.15
1.31
6.25
15.24
27.90
42.77
57.63
70.15
78.58
82.13
81.16
76.80
70.52
63.72
57.34
51.62
46.07
39.72
31.36
20.14
5.97
-10.23
-26.68
-41.18
-51.85
-57.74
-59.12
-57.34
-54.25
-51.54
-50.18
-50.17
-50.77
-51.02
-50.36
-48.90
-47.29
-46.32
-46.39
-47.19
-47.67
-46.31
-41.35
-31.15
-14.59
8.49
36.74
67.01
94.73
114.92
123.73
119.85
104.95
83.07
59.07
36.96
18.83
4.93
-5.55
-13.48
-19.13
-22.29
-22.73
-20.81
-17.53
-14.23
-11.87
-10.61
-9.72
-8.11
-5.06
-0.71
3.80
6.94
7.46
5.07
0.57
-4.52
-8.78
-11.49
-12.94
-14.14
-16.28
-20.09
-25.53
-31.75
-37.46
-41.37
-42.56
-40.77
-36.36
-30.22
-23.38
-16.83
-11.26
-6.96
-3.87
-1.58
0.38
2.42
4.63
6.73
8.15
8.28
6.81
3.94
0.35
-3.10
-5.74
-7.36
-8.22
-8.82
-9.59
-10.73
-12.14
-13.56
-14.75
-15.49
-15.68
-15.21
-14.05
-12.18
-9.65
-6.62
-3.32
-0.05
2.88
5.18
6.65
7.27
7.20
6.73
6.22
5.96
6.09
6.59
7.28
7.94
8.41
8.63
8.64
8.51
8.30
7.99
7.54
6.96
6.29
5.59
4.93
4.35
3.83
3.38
2.96
2.56
2.11
1.52
0.69
-0.43
-1.82
-3.39
-5.03
-6.64
-8.22
-9.80
-11.42
-13.06
-14.59
-15.77
-16.34
-16.09
-14.98
-13.14
-10.84
-8.33
-5.77
-3.19
-0.59
1.98
4.34
6.28
7.63
8.37
8.67
8.81
9.00
9.34
9.77
10.16
10.42
10.50
10.48
10.40
10.32
10.18
9.93
9.56
9.08
8.61
8.25
8.07
7.97
7.77
7.22
6.18
4.66
2.82
0.93
-0.82
-2.33
-3.66
-4.92
-6.25
-7.71
-9.34
-11.11
-12.96
-14.82
-16.48
-17.71
-18.18
-17.65
-16.00
-13.34
-9.99
-6.41
-3.06
-0.27
1.85
3.35
4.42
5.26
6.00
6.71
7.36
7.94
8.43
8.87
9.26
9.58
9.80
9.89
9.83
9.69
9.54
9.47
9.55
9.75
10.03
10.23
10.23
9.87
9.11
7.96
6.57
5.11
3.76
2.57
1.50
0.46
-0.64
-1.82
-3.06
-4.32
-5.62
-7.02
-8.56
-10.25
-12.02
-13.73
-15.26
-16.46
-17.22
-17.41
-16.90
-15.57
-13.44
-10.66
-7.53
-4.43
-1.65
0.68
2.59
4.16
5.50
6.61
7.48
8.09
8.47
8.72
8.93
9.11
9.21
9.18
9.00
8.76
8.59
8.57
8.70
8.89
8.96
8.79
8.33
7.63
6.77
5.88
5.04
4.34
3.79
3.36
2.96
2.45
1.69
0.60
-0.82
-2.44
-4.10
-5.66
-7.02
-8.22
-9.35
-10.52
-11.80
-13.16
-14.46
-15.48
-15.98
-15.79
-14.79
-13.05
-10.73
-8.04
-5.24
-2.52
-0.05
2.07
3.77
5.00
5.78
6.21
6.42
6.56
6.73
6.95
7.19
7.41
7.54
7.58
7.52
7.32
6.99
6.54
6.05
5.62
5.37
5.30
5.31
5.22
4.83
4.08
3.01
1.76
0.48
-0.72
-1.80
-2.78
-3.72
-4.71
-5.86
-7.24
-8.92
-10.89
-13.04
-15.20
-17.14
-18.56
-19.22
-18.93
-17.59
-15.33
-12.41
-9.21
-6.08
-3.27
-0.86
1.19
2.97
4.52
5.81
6.80
7.48
7.89
8.11
8.21
8.21
8.12
7.97
7.83
7.82
8.04
8.48
9.01
9.44
9.61
9.43
8.97
8.35
7.67
6.96
6.16
5.20
4.07
2.83
1.55
0.30
-0.93
-2.25
-3.75
-5.42
-7.13
-8.66
-9.83
-10.65
-11.37
-12.40
-14.08
-16.44
-19.08
-21.27
-22.27
-21.65
-19.56
-16.67
-13.89
-11.90
-10.89
-10.43
-9.77
-8.31
-5.84
-2.78
0.07
1.83
1.83
-0.22
-4.24
-9.59
-14.99
-18.51
-17.88
-11.30
1.71
19.69
39.48
57.17
69.43
74.61
73.06
66.57
57.41
47.48
37.96
29.38
22.05
16.27
12.35
10.33
9.85
10.07
9.97
8.65
5.73
1.51
-3.18
-7.36
-10.27
-11.71
-12.18
-12.69
-14.45
-18.41
-24.86
-33.18
-41.87
-49.00
-52.83
-52.51
-48.47
-42.27
-35.96
-31.26
-28.88
-28.37
-28.50
-27.87
-25.61
-21.56
-16.15
-9.93
-3.28
3.78
11.30
19.07
26.45
32.43
36.01
36.67
34.61
30.75
26.32
22.43
19.66
18.04
17.13
16.38
15.31
13.72
11.68
9.44
7.28
5.44
4.02
2.94
2.06
1.22
0.29
-0.76
-1.87
-2.99
-4.08
-5.13
-6.16
-7.19
-8.15
-8.95
-9.43
-9.50
-9.16
-8.52
-7.68
-6.59
-4.94
-2.30
1.68
6.94
12.94
18.80
23.63
26.93
28.64
29.07
28.58
27.33
25.32
22.49
18.99
15.18
11.56
8.50
6.13
4.31
2.77
1.25
-0.35
-2.00
-3.57
-4.87
-5.73
-6.04
-5.79
-5.18
-4.54
-4.23
-4.53
-5.44
-6.77
-8.24
-9.61
-10.82
-11.97
-13.18
-14.49
-15.85
-17.21
-18.60
-20.13
-21.94
-23.97
-25.90
-27.20
-27.35
-26.03
-23.29
-19.50
-15.25
-11.09
-7.44
-4.46
-2.12
-0.30
1.16
2.38
3.38
4.21
4.88
5.41
5.82
6.12
6.27
6.27
6.15
5.96
5.84
5.86
6.08
6.44
6.84
7.14
7.22
7.01
6.52
5.84
5.11
4.48
4.02
3.73
3.50
3.18
2.67
1.91
0.96
-0.15
-1.34
-2.60
-3.93
-5.36
-6.90
-8.59
-10.42
-12.34
-14.26
-16.00
-17.34
-18.09
-18.09
-17.24
-15.53
-13.08
-10.12
-6.96
-3.92
-1.21
1.06
2.98
4.65
6.12
7.38
8.38
9.11
9.64
10.10
10.52
10.87
11.00
10.82
10.37
9.83
9.44
9.36
9.58
9.95
10.22
10.20
9.80
9.03
7.99
6.80
5.62
4.57
3.75
3.16
2.72
2.31
1.82
1.16
0.30
-0.79
-2.13
-3.68
-5.39
-7.15
-8.86
-10.46
-11.97
-13.43
-14.82
-15.99
-16.72
-16.74
-15.91
-14.23
-11.86
-9.05
-6.09
-3.21
-0.61
1.58
3.25
4.41
5.14
5.60
6.00
6.46
7.00
7.51
7.82
7.84
7.58
7.17
6.76
6.45
6.30
6.26
6.29
6.38
6.50
6.60
6.58
6.28
5.58
4.44
2.98
1.40
-0.09
-1.36
-2.38
-3.24
-4.06
-4.98
-6.09
-7.42
-8.92
-10.57
-12.27
-13.95
-15.46
-16.62
-17.22
-17.04
-15.99
-14.09
-11.54
-8.60
-5.52
-2.50
0.36
3.02
5.39
7.36
8.78
9.59
9.84
9.71
9.42
9.15
8.99
8.90
8.83
8.75
8.70
8.73
8.85
9.01
9.10
9.01
8.64
8.02
7.23
6.38
5.59
4.93
4.37
3.85
3.26
2.48
1.48
0.31
-0.93
-2.13
-3.30
-4.52
-5.99
-7.88
-10.24
-12.92
-15.59
-17.87
-19.47
-20.23
-20.16
-19.36
-17.94
-15.93
-13.37
-10.30
-6.88
-3.33
0.08
3.10
5.57
7.41
8.62
9.29
9.56
9.62
9.68
9.90
10.33
10.88
11.38
11.70
11.79
11.77
11.76
11.86
12.00
11.97
11.54
10.62
9.27
7.73
6.26
5.01
3.99
3.09
2.15
1.06
-0.18
-1.53
-2.90
-4.20
-5.41
-6.51
-7.57
-8.65
-9.87
-11.27
-12.86
-14.45
-15.71
-16.26
-15.78
-14.16
-11.56
-8.34
-4.96
-1.78
1.00
3.31
5.19
6.64
7.64
8.17
8.29
8.14
7.92
7.78
7.81
8.04
8.42
8.89
9.35
9.68
9.77
9.51
8.93
8.20
7.56
7.24
7.29
7.55
7.73
7.55
6.85
5.66
4.12
2.44
0.78
-0.77
-2.18
-3.46
-4.63
-5.74
-6.83
-7.98
-9.26
-10.67
-12.16
-13.59
-14.77
-15.43
-15.37
-14.45
-12.67
-10.19
-7.28
-4.27
-1.41
1.15
3.37
5.25
6.77
7.83
8.35
8.30
7.81
7.15
6.61
6.38
6.44
6.64
6.80
6.86
6.87
6.94
7.09
7.26
7.26
6.94
6.26
5.32
4.30
3.35
2.52
1.79
1.06
0.26
-0.65
-1.63
-2.67
-3.71
-4.74
-5.82
-7.02
-8.47
-10.23
-12.26
-14.39
-16.31
-17.68
-18.23
-17.83
-16.54
-14.53
-11.98
-9.10
-6.04
-2.93
0.04
2.68
4.78
6.22
6.99
7.21
7.09
6.89
6.83
7.01
7.39
7.81
8.11
8.17
8.00
7.69
7.34
7.04
6.79
6.58
6.38
6.15
5.83
5.36
4.70
3.90
3.16
2.71
2.75
3.27
4.01
4.54
4.48
3.64
2.10
0.05
-2.28
-4.76
-7.38
-10.07
-12.69
-14.95
-16.49
-17.04
-16.50
-14.99
-12.75
-10.13
-7.39
-4.75
-2.28
-0.02
2.08
4.02
5.78
7.28
8.39
9.00
9.11
8.79
8.28
7.81
7.56
7.62
7.95
8.43
8.90
9.24
9.33
9.13
8.67
8.00
7.19
6.29
5.33
4.32
3.24
2.10
0.91
-0.29
-1.49
-2.68
-3.86
-5.04
-6.21
-7.38
-8.60
-9.93
-11.44
-13.13
-14.93
-16.67
-18.10
-18.98
-19.07
-18.24
-16.47
-13.86
-10.66
-7.13
-3.58
-0.26
2.65
5.06
6.92
8.25
9.14
9.67
9.98
10.17
10.31
10.39
10.40
10.28
10.04
9.73
9.44
9.27
9.26
9.37
9.48
9.50
9.31
8.89
8.29
7.55
6.73
5.87
4.98
4.04
3.01
1.85
0.51
-0.97
-2.50
-3.93
-5.14
-6.08
-6.87
-7.72
-8.84
-10.34
-12.17
-14.14
-16.02
-17.57
-18.61
-19.00
-18.60
-17.34
-15.23
-12.41
-9.16
-5.82
-2.71
-0.02
2.13
3.76
4.96
5.84
6.52
7.09
7.57
7.97
8.24
8.37
8.37
8.28
8.16
8.04
7.93
7.79
7.60
7.37
7.14
6.95
6.77
6.52
6.13
5.50
4.63
3.55
2.35
1.09
-0.19
-1.48
-2.76
-3.99
-5.08
-6.00
-6.76
-7.50
-8.43
-9.74
-11.49
-13.57
-15.67
-17.44
-18.52
-18.71
-17.94
-16.28
-13.92
-11.08
-8.00
-4.92
-2.04
0.50
2.66
4.42
5.85
7.03
8.02
8.87
9.60
10.16
10.53
10.67
10.58
10.32
9.94
9.53
9.19
8.98
8.97
9.15
9.46
9.74
9.83
9.58
8.95
8.03
6.96
5.90
4.95
4.08
3.22
2.27
1.22
0.08
-1.06
-2.18
-3.30
-4.51
-5.87
-7.45
-9.24
-11.15
-13.05
-14.72
-15.94
-16.47
-16.13
-14.86
-12.73
-9.96
-6.83
-3.64
-0.61
2.12
4.49
6.49
8.14
9.46
10.44
11.09
11.42
11.49
11.38
11.16
10.87
10.50
10.05
9.52
8.97
8.52
8.29
8.31
8.50
8.70
8.71
8.47
7.97
7.29
6.48
5.50
4.23
2.53
0.34
-2.26
-5.06
-7.78
-10.20
-12.21
-13.80
-15.02
-15.96
-16.70
-17.34
-17.97
-18.67
-19.42
-20.09
-20.45
-20.20
-19.11
-17.13
-14.37
-11.09
-7.62
-4.23
-1.11
1.61
3.87
5.66
7.05
8.13
9.05
9.91
10.76
11.54
12.19
12.63
12.81
12.77
12.56
12.21
11.77
11.25
10.66
9.99
9.29
8.58
7.91
7.29
6.74
6.21
5.61
4.84
3.82
2.48
0.84
-1.02
-2.96
-4.81
-6.48
-7.92
-9.20
-10.43
-11.73
-13.18
-14.75
-16.33
-17.75
-18.79
-19.22
-18.91
-17.78
-15.86
-13.30
-10.28
-7.05
-3.82
-0.80
1.89
4.12
5.86
7.08
7.86
8.28
8.42
8.38
8.20
7.96
7.71
7.52
7.47
7.56
7.76
7.96
8.06
7.99
7.75
7.34
6.82
6.17
5.38
4.41
3.28
2.06
0.87
-0.18
-1.02
-1.66
-2.22
-2.84
-3.64
-4.67
-5.91
-7.30
-8.81
-10.47
-12.32
-14.32
-16.28
-17.89
-18.77
-18.66
-17.49
-15.45
-12.86
-10.04
-7.21
-4.47
-1.80
0.78
3.23
5.41
7.22
8.57
9.49
10.10
10.50
10.80
10.98
11.03
10.92
10.65
10.32
10.05
9.95
10.04
10.29
10.55
10.71
10.65
10.29
9.65
8.80
7.82
6.81
5.81
4.79
3.70
2.50
1.21
-0.11
-1.37
-2.50
-3.52
-4.48
-5.52
-6.74
-8.20
-9.86
-11.69
-13.60
-15.43
-17.02
-18.09
-18.41
-17.78
-16.23
-13.91
-11.13
-8.19
-5.29
-2.54
0.04
2.46
4.65
6.54
8.09
9.30
10.20
10.84
11.24
11.37
11.23
10.87
10.36
9.82
9.38
9.09
8.98
9.00
9.03
8.96
8.72
8.31
7.83
7.36
6.95
6.55
6.04
5.34
4.41
3.29
2.07
0.77
-0.58
-1.99
-3.39
-4.70
-5.86
-6.90
-7.98
-9.32
-11.05
-13.10
-15.20
-16.95
-17.99
-18.08
-17.13
-15.24
-12.57
-9.39
-5.99
-2.66
0.32
2.80
4.75
6.23
7.36
8.19
8.75
9.04
9.07
8.93
8.69
8.46
8.23
7.98
7.72
7.45
7.22
7.06
6.95
6.81
6.56
6.18
5.67
5.10
4.47
3.80
3.03
2.13
1.11
-0.03
-1.22
-2.46
-3.76
-5.14
-6.62
-8.19
-9.87
-11.65
-13.50
-15.33
-16.91
-17.96
-18.23
-17.58
-16.06
-13.86
-11.24
-8.45
-5.63
-2.86
-0.18
2.30
4.46
6.16
7.34
8.09
8.56
8.90
9.23
9.52
9.68
9.62
9.35
8.96
8.57
8.30
8.15
8.01
7.76
7.32
6.73
6.08
5.47
4.92
4.35
3.65
2.77
1.72
0.59
-0.53
-1.58
-2.59
-3.63
-4.77
-6.08
-7.56
-9.20
-10.97
-12.83
-14.69
-16.41
-17.81
-18.62
-18.63
-17.68
-15.79
-13.16
-10.09
-6.91
-3.91
-1.25
1.06
3.05
4.79
6.30
7.56
8.54
9.21
9.59
9.72
9.66
9.50
9.33
9.19
9.09
8.99
8.82
8.54
8.11
7.56
6.91
6.26
5.65
5.14
4.73
4.35
3.91
3.29
2.45
1.34
0.02
-1.44
-2.93
-4.35
-5.61
-6.65
-7.49
-8.24
-9.06
-10.12
-11.49
-13.06
-14.50
-15.44
-15.52
-14.62
-12.87
-10.57
-8.04
-5.50
-3.03
-0.56
1.92
4.39
6.68
8.61
10.05
10.98
11.51
11.75
11.80
11.67
11.36
10.88
10.28
9.64
9.06
8.60
8.28
8.09
7.95
7.84
7.68
7.45
7.12
6.71
6.20
5.56
4.77
3.77
2.58
1.26
-0.11
-1.45
-2.73
-3.99
-5.25
-6.53
-7.82
-9.10
-10.37
-11.67
-13.04
-14.45
-15.75
-16.71
-17.06
-16.58
-15.19
-12.95
-10.08
-6.85
-3.59
-0.54
2.11
4.28
5.98
7.26
8.16
8.72
8.96
8.92
8.67
8.32
7.99
7.76
7.65
7.58
7.44
7.18
6.80
6.41
6.11
5.92
5.76
5.45
4.80
3.75
2.41
0.95
-0.39
-1.52
-2.47
-3.34
-4.26
-5.32
-6.56
-7.97
-9.54
-11.24
-13.01
-14.72
-16.17
-17.10
-17.25
-16.46
-14.74
-12.24
-9.24
-6.05
-2.97
-0.16
2.30
4.41
6.19
7.61
8.62
9.17
9.27
9.01
8.52
7.98
7.52
7.22
7.09
7.11
7.21
7.35
7.43
7.39
7.13
6.59
5.77
4.72
3.55
2.36
1.21
0.11
-0.96
-2.09
-3.34
-4.74
-6.32
-8.05
-9.96
-12.04
-14.33
-16.84
-19.54
-22.31
-24.95
-27.18
-28.75
-29.50
-29.38
-28.45
-26.88
-24.82
-22.46
-19.95
-17.50
-15.37
-13.81
-13.03
-13.11
-13.93
-15.23
-16.63
-17.69
-17.99
-17.21
-15.32
-12.65
-9.98
-8.22
-7.91
-8.65
-8.80
-5.82
2.78
18.35
40.29
66.07
91.90
113.79
128.43
133.74
129.04
115.05
93.80
68.43
42.63
19.83
2.32
-9.37
-16.35
-20.59
-23.97
-27.47
-31.01
-33.85
-35.21
-34.71
-32.59
-29.42
-25.80
-22.15
-18.60
-15.14
-11.82
-8.83
-6.45
-4.88
-4.07
-3.73
-3.43
-2.82
-1.77
-0.40
0.94
1.95
2.49
2.61
2.54
2.54
2.79
3.32
4.00
4.61
4.94
4.86
4.35
3.49
2.43
1.32
0.27
-0.69
-1.61
-2.60
-3.72
-5.04
-6.57
-8.24
-10.01
-11.79
-13.49
-15.00
-16.13
-16.69
-16.51
-15.50
-13.70
-11.26
-8.39
-5.24
-1.95
1.36
4.53
7.30
9.40
10.61
10.94
10.58
9.91
9.31
9.00
9.02
9.22
9.41
9.41
9.15
8.68
8.11
7.54
7.03
6.54
6.00
5.29
4.33
3.15
1.86
0.60
-0.51
-1.44
-2.31
-3.26
-4.45
-5.93
-7.73
-9.81
-12.09
-14.46
-16.68
-18.45
-19.41
-19.31
-18.06
-15.85
-13.01
-9.92
-6.87
-3.99
-1.28
1.32
3.82
6.15
8.17
9.74
10.82
11.46
11.84
12.11
12.42
12.77
13.07
13.22
13.15
12.84
12.38
11.87
11.41
11.05
10.84
10.73
10.68
10.61
10.47
10.18
9.65
8.83
7.69
6.26
4.67
3.10
1.77
0.88
0.55
0.73
1.22
1.68
1.81
1.53
1.18
1.47
3.18
6.63
11.32
15.78
18.01
16.03
8.60
-4.34
-21.60
-40.83
-58.95
-72.71
-79.58
-78.65
-71.21
-60.50
-50.57
-44.70
-44.05
-47.47
-52.46
-56.74
-59.48
-61.52
-64.73
-70.95
-81.23
-95.62
-113.02
-130.95
-145.37
-150.95
-142.46
-116.94
-75.68
-24.74
26.72
69.59
98.04
111.08
111.96
105.83
97.31
89.08
82.22
77.22
74.94
76.66
83.25
94.27
107.60
120.12
128.88
132.12
129.63
122.35
111.58
98.39
83.47
67.34
50.73
34.62
20.19
8.45
0.02
-5.03
-7.14
-7.14
-6.17
-5.34
-5.52
-7.06
-9.71
-12.78
-15.42
-17.04
-17.51
-17.17
-16.61
-16.45
-17.06
-18.44
-20.24
-21.81
-22.47
-21.76
-19.58
-16.22
-12.28
-8.39
-5.02
-2.36
-0.34
1.22
2.51
3.61
4.54
5.23
5.65
5.81
5.73
5.45
5.00
4.41
3.73
3.08
2.57
2.29
2.21
2.22
2.15
1.85
1.24
0.37
-0.68
-1.79
-2.86
-3.83
-4.75
-5.72
-6.90
-8.41
-10.28
-12.30
-14.10
-15.23
-15.32
-14.24
-12.15
-9.40
-6.41
-3.52
-0.91
1.36
3.31
4.93
6.19
7.07
7.59
7.85
7.98
8.10
8.24
8.32
8.22
7.86
7.25
6.55
5.97
5.66
5.65
5.82
5.97
5.91
5.48
4.66
3.50
2.13
0.68
-0.72
-2.00
-3.13
-4.13
-5.01
-5.85
-6.77
-7.95
-9.54
-11.61
-14.03
-16.41
-18.24
-19.01
-18.44
-16.58
-13.78
-10.57
-7.41
-4.60
-2.26
-0.33
1.28
2.65
3.76
4.57
5.05
5.22
5.15
4.97
4.81
4.74
4.77
4.84
4.84
4.69
4.38
3.97
3.54
3.17
2.83
2.43
1.84
1.00
-0.12
-1.42
-2.78
-4.12
-5.37
-6.53
-7.59
-8.62
-9.67
-10.80
-12.06
-13.34
-14.43
-15.03
-14.87
-13.86
-12.05
-9.71
-7.08
-4.41
-1.80
0.68
2.99
5.03
6.68
7.82
8.39
8.45
8.13
7.63
7.13
6.79
6.65
6.66
6.72
6.70
6.56
6.31
6.02
5.80
5.67
5.57
5.34
4.84
3.95
2.68
1.18
-0.36
-1.74
-2.87
-3.78
-4.65
-5.67
-7.01
-8.70
-10.66
-12.70
-14.60
-16.13
-17.08
-17.28
-16.66
-15.19
-13.00
-10.28
-7.30
-4.29
-1.42
1.18
3.40
5.15
6.34
6.95
7.05
6.81
6.44
6.13
5.97
6.00
6.17
6.45
6.80
7.22
7.69
8.19
8.60
8.80
8.69
8.21
7.39
6.34
5.19
4.04
2.93
1.85
0.77
-0.32
-1.44
-2.57
-3.73
-4.94
-6.27
-7.75
-9.44
-11.35
-13.43
-15.52
-17.33
-18.47
-18.61
-17.56
-15.34
-12.22
-8.57
-4.78
-1.19
1.97
4.57
6.56
7.98
8.94
9.60
10.11
10.62
11.20
11.92
12.80
13.84
14.96
15.95
16.57
16.60
15.98
14.85
13.47
12.14
11.00
10.02
9.05
7.97
6.73
5.42
4.20
3.14
2.25
1.39
0.39
-0.86
-2.35
-4.00
-5.69
-7.32
-8.87
-10.36
-11.86
-13.39
-14.99
-16.62
-18.19
-19.54
-20.48
-20.78
-20.25
-18.81
-16.54
-13.71
-10.68
-7.82
-5.37
-3.41
-1.87
-0.63
0.38
1.16
1.68
1.93
1.96
1.89
1.81
1.73
1.57
1.24
0.73
0.21
-0.03
0.29
1.29
2.85
4.65
6.33
7.63
8.49
8.97
9.17
9.06
8.57
7.60
6.17
4.40
2.48
0.61
-1.15
-2.83
-4.51
-6.28
-8.17
-10.17
-12.25
-14.29
-16.09
-17.34
-17.71
-16.93
-14.95
-12.02
-8.55
-5.01
-1.82
0.79
2.72
3.98
4.59
4.57
4.03
3.11
2.05
1.09
0.41
0.09
0.15
0.54
1.25
2.27
3.56
5.02
6.43
7.53
8.13
8.13
7.64
6.87
6.08
5.41
4.86
4.26
3.40
2.14
0.50
-1.33
-3.03
-4.27
-4.78
-4.38
-3.03
-0.81
2.04
5.09
7.80
9.62
10.12
9.11
6.75
3.44
-0.25
-3.72
-6.46
-8.16
-8.71
-8.19
-6.85
-5.02
-3.02
-1.08
0.61
1.95
2.87
3.33
3.31
2.92
2.30
1.66
1.19
1.02
1.17
1.57
2.12
2.68
3.12
3.32
3.21
2.79
2.15
1.48
0.91
0.52
0.26
-0.03
-0.55
-1.37
-2.47
-3.70
-4.90
-5.99
-6.98
-7.99
-9.12
-10.46
-12.02
-13.76
-15.63
-17.49
-19.17
-20.37
-20.76
-20.10
-18.30
-15.50
-12.04
-8.35
-4.82
-1.71
0.92
3.06
4.80
6.15
7.10
7.66
7.88
7.90
7.91
8.06
8.41
8.86
9.24
9.34
9.13
8.69
8.20
7.81
7.54
7.31
7.01
6.57
6.03
5.49
5.03
4.57
3.96
3.01
1.65
-0.03
-1.76
-3.24
-4.30
-4.91
-5.25
-5.57
-6.12
-7.05
-8.42
-10.15
-12.07
-13.92
-15.39
-16.18
-16.06
-14.90
-12.69
-9.56
-5.76
-1.70
2.15
5.32
7.49
8.57
8.72
8.23
7.48
6.75
6.23
6.06
6.32
7.03
8.13
9.42
10.59
11.37
11.54
11.10
10.19
8.99
7.69
6.36
5.01
3.59
2.12
0.65
-0.70
-1.82
-2.63
-3.12
-3.35
-3.48
-3.71
-4.25
-5.27
-6.83
-8.87
-11.18
-13.46
-15.35
-16.57
-16.92
-16.32
-14.81
-12.50
-9.55
-6.17
-2.62
0.85
3.98
6.62
8.75
10.44
11.88
13.24
14.70
16.37
18.28
20.31
22.22
23.70
24.48
24.51
23.95
23.17
22.55
22.39
22.81
23.75
25.05
26.39
27.37
27.45
26.05
22.76
17.49
10.58
2.75
-5.16
-12.40
-18.48
-23.24
-26.72
-29.09
-30.60
-31.43
-31.81
-31.86
-31.64
-31.13
-30.18
-28.61
-26.28
-23.14
-19.29
-15.03
-10.72
-6.75
-3.38
-0.71
1.36
3.03
4.49
5.80
6.90
7.66
8.01
8.01
7.82
7.66
7.70
7.95
8.33
8.69
8.89
8.85
8.58
8.16
7.66
7.15
6.63
6.05
5.32
4.40
3.30
2.12
0.99
-0.02
-0.91
-1.79
-2.82
-4.08
-5.56
-7.16
-8.81
-10.48
-12.21
-14.02
-15.81
-17.32
-18.16
-18.02
-16.78
-14.58
-11.74
-8.62
-5.47
-2.44
0.42
2.98
5.08
6.54
7.30
7.45
7.26
7.04
6.99
7.14
7.35
7.47
7.40
7.17
6.90
6.71
6.63
6.62
6.49
6.05
5.13
3.73
2.14
0.97
1.07
3.28
8.05
15.18
23.77
32.34
39.33
43.50
44.27
41.77
36.70
30.04
22.72
15.41
8.44
1.90
-4.28
-10.11
-15.42
-19.89
-23.08
-24.68
-24.58
-23.00
-20.40
-17.42
-14.70
-12.77
-11.98
-12.46
-14.19
-17.01
-20.66
-24.74
-28.81
-32.39
-35.05
-36.51
-36.64
-35.40
-32.82
-28.92
-23.78
-17.63
-10.85
-3.94
2.50
8.01
12.30
15.29
17.00
17.52
16.93
15.38
13.11
10.43
7.72
5.31
3.37
1.90
0.73
-0.40
-1.72
-3.36
-5.33
-7.48
-9.56
-11.25
-12.23
-12.27
-11.30
-9.43
-6.93
-4.12
-1.31
1.28
3.53
5.39
6.82
7.83
8.44
8.76
8.92
9.07
9.27
9.50
9.68
9.76
9.77
9.83
10.03
10.40
10.82
11.11
11.06
10.60
9.81
8.88
8.01
7.28
6.68
6.11
5.41
4.52
3.41
2.16
0.86
-0.41
-1.56
-2.62
-3.66
-4.78
-6.09
-7.67
-9.48
-11.39
-13.18
-14.59
-15.36
-15.31
-14.39
-12.64
-10.23
-7.39
-4.37
-1.37
1.43
3.88
5.87
7.32
8.26
8.77
9.04
9.23
9.47
9.79
10.10
10.29
10.31
10.17
9.94
9.73
9.59
9.51
9.42
9.26
8.98
8.61
8.18
7.74
7.28
6.73
6.04
5.14
4.02
2.72
1.27
-0.25
-1.81
-3.35
-4.83
-6.21
-7.46
-8.62
-9.80
-11.13
-12.70
-14.45
-16.22
-17.71
-18.65
-18.87
-18.29
-16.95
-14.88
-12.14
-8.87
-5.40
-2.18
0.31
1.76
2.24
2.18
2.23
2.98
4.73
7.38
10.51
13.55
15.95
17.44
17.98
17.82
17.31
16.78
16.37
16.06
15.68
15.07
14.16
13.02
11.76
10.44
9.06
7.53
5.79
3.86
1.85
-0.10
-1.88
-3.45
-4.86
-6.20
-7.62
-9.24
-11.08
-13.08
-15.01
-16.54
-17.32
-17.06
-15.70
-13.38
-10.45
-7.38
-4.60
-2.40
-0.87
0.12
0.86
1.61
2.53
3.56
4.51
5.12
5.20
4.71
3.74
2.45
1.12
0.18
0.24
1.92
5.55
10.82
16.69
21.71
24.55
24.61
22.22
18.39
14.22
10.37
6.88
3.45
-0.14
-3.70
-6.72
-8.77
-9.90
-10.74
-12.23
-15.09
-19.48
-24.79
-29.91
-33.65
-35.10
-33.85
-30.06
-24.53
-18.58
-13.92
-12.11
-14.01
-19.20
-25.93
-31.62
-33.84
-31.27
-24.16
-14.08
-3.18
6.77
14.82
20.83
25.07
27.72
28.73
27.99
25.71
22.64
19.94
18.75
19.58
22.08
25.19
27.70
28.85
28.72
28.15
28.28
29.88
33.04
37.07
40.87
43.34
43.75
41.91
38.00
32.36
25.31
17.11
8.14
-0.99
-9.45
-16.35
-21.18
-24.04
-25.62
-26.85
-28.43
-30.49
-32.62
-34.10
-34.41
-33.41
-31.40
-28.82
-25.98
-22.95
-19.64
-16.00
-12.16
-8.52
-5.57
-3.65
-2.83
-2.85
-3.18
-3.31
-2.89
-1.82
-0.25
1.49
3.11
4.37
5.13
5.26
4.68
3.38
1.53
-0.51
-2.18
-2.90
-2.32
-0.44
2.33
5.26
7.57
8.61
8.08
6.07
2.99
-0.44
-3.37
-4.99
-4.70
-2.35
1.70
6.60
11.27
14.63
15.90
14.82
11.66
7.16
2.31
-1.96
-5.06
-6.84
-7.55
-7.65
-7.49
-7.25
-6.83
-6.05
-4.83
-3.29
-1.73
-0.46
0.28
0.50
0.36
0.12
0.05
0.27
0.79
1.53
2.39
3.27
4.09
4.71
4.93
4.47
3.14
0.96
-1.77
-4.40
-6.22
-6.65
-5.52
-3.20
-0.47
1.77
2.85
2.56
1.20
-0.63
-2.37
-3.68
-4.58
-5.32
-6.23
-7.51
-9.17
-11.05
-12.91
-14.47
-15.50
-15.86
-15.53
-14.57
-13.08
-11.15
-8.85
-6.27
-3.59
-1.03
1.12
2.68
3.64
4.22
4.74
5.42
6.32
7.29
8.06
8.47
8.50
8.29
8.04
7.88
7.77
7.56
7.06
6.19
5.03
3.81
2.84
2.35
2.42
2.95
3.71
4.41
4.83
4.88
4.61
4.16
3.62
2.98
2.15
0.97
-0.65
-2.73
-5.15
-7.78
-10.50
-13.15
-15.55
-17.44
-18.50
-18.48
-17.34
-15.26
-12.61
-9.85
-7.33
-5.20
-3.41
-1.80
-0.21
1.43
3.03
4.46
5.60
6.42
7.02
7.57
8.21
8.94
9.66
10.20
10.46
10.45
10.27
10.03
9.78
9.42
8.86
8.03
6.97
5.80
4.60
3.42
2.19
0.82
-0.70
-2.25
-3.61
-4.51
-4.78
-4.40
-3.53
-2.41
-1.36
-0.67
-0.61
-1.36
-3.00
-5.43
-8.38
-11.41
-14.02
-15.82
-16.56
-16.20
-14.85
-12.77
-10.25
-7.60
-5.11
-2.98
-1.28
0.06
1.16
2.18
3.20
4.16
4.99
5.57
5.89
5.99
5.94
5.82
5.66
5.52
5.42
5.40
5.48
5.68
5.96
6.28
6.60
6.89
7.16
7.33
7.33
7.03
6.36
5.32
4.04
2.68
1.39
0.19
-0.95
-2.08
-3.21
-4.31
-5.36
-6.46
-7.73
-9.26
-10.97
-12.53
-13.44
-13.28
-11.91
-9.52
-6.56
-3.53
-0.80
1.51
3.39
4.91
6.12
7.04
7.72
8.21
8.61
8.91
9.07
8.94
8.39
7.40
6.10
4.77
3.75
3.36
3.69
4.62
5.83
6.90
7.53
7.60
7.23
6.62
5.97
5.34
4.70
3.93
2.98
1.86
0.64
-0.58
-1.77
-2.90
-4.03
-5.17
-6.38
-7.70
-9.15
-10.75
-12.45
-14.13
-15.60
-16.61
-16.93
-16.42
-15.05
-12.91
-10.22
-7.27
-4.33
-1.62
0.72
2.66
4.22
5.45
6.37
7.00
7.32
7.38
7.21
6.91
6.56
6.21
5.91
5.68
5.58
5.65
5.93
6.40
6.95
7.48
7.83
7.92
7.72
7.23
6.53
5.66
4.70
3.70
2.69
1.66
0.62
-0.46
-1.59
-2.77
-3.98
-5.21
-6.46
-7.74
-9.06
-10.48
-11.99
-13.55
-15.02
-16.16
-16.71
-16.44
-15.31
-13.43
-11.12
-8.71
-6.50
-4.62
-3.04
-1.63
-0.33
0.84
1.78
2.43
2.77
2.95
3.10
3.32
3.55
3.63
3.37
2.71
1.77
0.82
0.16
0.03
0.49
1.44
2.65
3.82
4.66
4.96
4.63
3.77
2.68
1.83
1.74
2.75
4.90
7.80
10.76
13.05
14.15
13.91
12.50
10.25
7.47
4.34
1.01
-2.32
-5.29
-7.46
-8.47
-8.24
-6.97
-5.12
-3.13
-1.30
0.22
1.47
2.57
3.62
4.66
5.66
6.53
7.17
7.51
7.54
7.36
7.07
6.78
6.51
6.25
5.99
5.73
5.52
5.42
5.42
5.44
5.35
5.05
4.53
3.87
3.17
2.48
1.83
1.14
0.35
-0.60
-1.71
-2.92
-4.13
-5.22
-6.14
-6.90
-7.64
-8.58
-9.93
-11.73
-13.78
-15.63
-16.73
-16.64
-15.22
-12.72
-9.64
-6.54
-3.81
-1.60
0.22
1.90
3.64
5.53
7.52
9.45
11.15
12.44
13.20
13.40
13.08
12.44
11.68
10.97
10.37
9.68
8.50
6.35
2.89
-1.78
-7.09
-12.08
-15.77
-17.55
-17.48
-16.29
-15.04
-14.69
-15.56
-17.17
-18.39
-17.98
-15.16
-9.91
-3.02
4.29
10.89
16.01
19.36
20.94
20.80
18.99
15.60
10.94
5.59
0.40
-3.84
-6.59
-7.73
-7.61
-6.87
-6.23
-6.22
-6.90
-7.80
-8.01
-6.63
-3.18
2.02
7.89
12.94
15.89
16.11
13.86
10.05
5.88
2.37
0.11
-0.82
-0.68
0.10
1.14
2.18
3.12
3.99
4.83
5.68
6.54
7.41
8.26
9.08
9.82
10.39
10.67
10.56
10.08
9.30
8.37
7.35
6.12
4.39
1.72
-2.26
-7.67
-14.26
-21.33
-27.85
-32.71
-35.03
-34.49
-31.43
-26.77
-21.61
-16.92
-13.21
-10.54
-8.70
-7.43
-6.60
-6.22
-6.32
-6.94
-8.13
-10.06
-13.00
-17.10
-22.14
-27.23
-30.99
-31.92
-29.02
-22.14
-12.06
-0.13
12.19
23.72
33.70
41.66
47.27
50.27
50.56
48.32
44.09
38.69
32.90
27.31
22.15
17.38
12.82
8.27
3.67
-0.95
-5.46
-9.70
-13.49
-16.61
-18.92
-20.35
-21.02
-21.18
-21.13
-21.01
-20.75
-20.07
-18.74
-16.77
-14.47
-12.34
-10.79
-9.99
-9.80
-9.93
-10.21
-10.56
-10.87
-10.85
-9.99
-7.69
-3.63
2.05
8.81
15.90
22.70
28.82
34.01
38.00
40.44
40.90
39.21
35.63
30.82
25.62
20.76
16.54
12.86
9.43
6.02
2.67
-0.42
-2.99
-4.98
-6.60
-8.24
-10.22
-12.68
-15.43
-18.13
-20.33
-21.66
-21.91
-21.01
-19.07
-16.33
-13.15
-9.93
-6.96
-4.38
-2.14
-0.03
2.09
4.28
6.45
8.36
9.77
10.51
10.57
10.03
9.06
7.74
6.11
4.11
1.73
-0.92
-3.64
-6.16
-8.27
-9.84
-10.83
-11.21
-10.94
-9.98
-8.33
-6.14
-3.64
-1.16
0.97
2.45
3.12
2.98
2.19
1.05
-0.09
-0.98
-1.55
-2.00
-2.70
-4.02
-6.20
-9.20
-12.71
-16.27
-19.32
-21.40
-22.18
-21.51
-19.45
-16.20
-12.11
-7.58
-3.03
1.20
4.82
7.67
9.71
10.99
11.64
11.80
11.57
11.02
10.18
9.13
8.01
7.02
6.29
5.86
5.60
5.28
4.69
3.74
2.48
1.07
-0.32
-1.53
-2.44
-2.91
-2.80
-2.04
-0.64
1.22
3.25
5.15
6.65
7.65
8.11
8.08
7.59
6.69
5.40
3.77
1.80
-0.52
-3.22
-6.29
-9.56
-12.67
-15.14
-16.44
-16.31
-14.75
-12.11
-8.91
-5.67
-2.71
-0.16
2.02
3.85
5.34
6.45
7.17
7.58
7.82
8.04
8.31
8.60
8.79
8.77
8.47
7.94
7.32
6.77
6.43
6.35
6.46
6.61
6.59
6.26
5.56
4.53
3.30
2.00
0.74
-0.40
-1.41
-2.28
-3.03
-3.67
-4.27
-4.89
-5.64
-6.60
-7.80
-9.17
-10.58
-11.86
-12.82
-13.30
-13.16
-12.29
-10.66
-8.32
-5.44
-2.28
0.84
3.62
5.92
7.73
9.15
10.32
11.31
12.11
12.66
12.92
12.94
12.83
12.74
12.75
12.86
12.96
12.88
12.52
11.87
11.01
10.08
9.17
8.34
7.54
6.71
5.81
4.87
3.95
3.10
2.33
1.59
0.79
-0.13
-1.18
-2.35
-3.58
-4.93
-6.46
-8.22
-10.19
-12.26
-14.28
-16.15
-17.83
-19.33
-20.58
-21.38
-21.40
-20.38
-18.23
-15.16
-11.60
-8.09
-5.03
-2.62
-0.84
0.54
1.72
2.89
4.07
5.21
6.18
6.90
7.34
7.57
7.69
7.80
7.97
8.18
8.44
8.76
9.13
9.57
10.00
10.31
10.35
10.07
9.44
8.57
7.57
6.54
5.51
4.43
3.26
1.92
0.42
-1.21
-2.90
-4.56
-6.16
-7.67
-9.14
-10.55
-11.87
-12.97
-13.72
-13.96
-13.62
-12.73
-11.40
-9.76
-7.95
-6.05
-4.14
-2.30
-0.60
0.89
2.17
3.30
4.28
5.01
5.27
4.80
3.49
1.52
-0.62
-2.30
-3.01
-2.56
-1.15
0.77
2.71
4.33
5.51
6.29
6.75
6.97
6.89
6.51
5.81
4.90
3.93
3.07
2.38
1.82
1.25
0.48
-0.64
-2.15
-4.02
-6.16
-8.50
-10.97
-13.47
-15.79
-17.68
-18.84
-19.09
-18.42
-16.99
-15.05
-12.83
-10.42
-7.77
-4.81
-1.54
1.90
5.20
7.99
10.01
11.18
11.62
11.56
11.25
10.87
10.47
10.08
9.70
9.40
9.20
9.14
9.18
9.22
9.19
8.99
8.57
7.89
6.92
5.66
4.15
2.44
0.60
-1.31
-3.20
-4.99
-6.61
-7.95
-9.02
-9.89
-10.74
-11.75
-13.01
-14.43
-15.75
-16.55
-16.46
-15.26
-12.99
-9.89
-6.33
-2.71
0.68
3.70
6.31
8.53
10.37
11.78
12.73
13.21
13.31
13.16
12.90
12.64
12.40
12.16
11.87
11.51
11.09
10.67
10.28
9.96
9.71
9.49
9.27
8.93
8.37
7.48
6.24
4.71
3.04
1.40
-0.11
-1.56
-3.09
-4.82
-6.76
-8.78
-10.68
-12.28
-13.55
-14.47
-15.05
-15.20
-14.76
-13.61
-11.77
-9.43
-6.86
-4.31
-1.90
0.34
2.39
4.18
5.56
6.37
6.56
6.22
5.58
4.93
4.47
4.29
4.34
4.49
4.58
4.51
4.28
3.99
3.72
3.53
3.34
3.02
2.42
1.48
0.28
-0.99
-2.10
-2.97
-3.64
-4.32
-5.26
-6.69
-8.69
-11.20
-14.00
-16.75
-19.04
-20.48
-20.79
-19.88
-17.90
-15.16
-12.07
-9.04
-6.30
-3.93
-1.81
0.21
2.24
4.27
6.09
7.35
7.71
6.96
5.25
3.05
1.05
-0.07
0.05
1.37
3.52
5.93
8.09
9.67
10.54
10.65
9.98
8.55
6.45
3.93
1.39
-0.77
-2.28
-3.14
-3.55
-3.77
-4.00
-4.33
-4.76
-5.32
-6.12
-7.27
-8.82
-10.56
-11.98
-12.44
-11.36
-8.49
-4.01
1.47
7.12
12.14
15.99
18.48
19.68
19.84
19.22
18.07
16.58
14.90
13.14
11.38
9.62
7.84
6.03
4.26
2.70
1.55
0.95
0.87
1.11
1.27
0.97
-0.03
-1.74
-3.87
-6.01
-7.70
-8.72
-9.12
-9.29
-9.75
-11.09
-13.72
-17.75
-22.82
-28.09
-32.30
-34.10
-32.52
-27.42
-19.81
-11.63
-5.16
-2.17
-3.28
-7.72
-13.84
-19.83
-24.47
-27.43
-29.15
-30.28
-31.28
-32.15
-32.54
-32.00
-30.17
-26.77
-21.57
-14.37
-5.09
5.94
17.83
29.15
38.28
43.81
44.98
41.80
34.99
25.66
15.09
4.50
-5.09
-12.94
-18.60
-22.04
-23.52
-23.55
-22.68
-21.37
-19.88
-18.29
-16.64
-14.95
-13.27
-11.56
-9.70
-7.49
-4.79
-1.49
2.37
6.62
11.07
15.54
19.98
24.30
28.28
31.57
34.05
35.67
36.48
36.66
36.28
35.60
34.74
33.66
32.30
31.13
30.53
30.63
31.24
31.75
32.05
32.35
33.16
35.15
39.55
46.84
56.42
66.77
75.77
82.41
86.59
88.86
90.10
91.72
93.99
95.82
95.45
91.07
83.14
73.69
65.29
53.81
37.28
15.65
-9.09
-30.84
-49.63
-65.43
-77.73
-86.76
-92.73
-95.68
-96.25
-95.27
-93.40
-91.64
-90.08
-88.63
-87.05
-84.58
-79.47
-70.39
-57.12
-40.71
-23.45
-7.25
5.83
14.55
19.44
22.36
24.68
26.62
27.63
26.83
24.06
20.30
15.36
9.01
1.47
-6.67
-14.35
-20.28
-23.53
-23.72
-21.30
-16.89
-11.59
-6.41
-1.97
1.64
4.57
6.80
8.05
7.94
6.18
3.00
-1.01
-5.17
-8.95
-12.09
-14.57
-16.38
-17.41
-17.53
-16.68
-14.96
-12.74
-10.49
-8.57
-7.17
-6.16
-5.21
-3.86
-1.68
1.52
5.48
9.35
11.84
11.59
7.80
0.69
-8.52
-17.99
-26.05
-31.83
-35.53
-38.07
-40.48
-43.28
-46.17
-48.26
-48.52
-46.29
-41.53
-34.78
-26.90
-18.70
-10.72
-3.20
3.83
10.35
16.21
21.11
24.71
26.88
27.77
27.85
27.63
27.47
27.45
27.35
26.86
25.80
24.23
22.39
20.67
19.35
18.55
18.20
18.06
17.83
17.32
16.40
15.15
13.69
12.23
10.92
9.79
8.77
7.68
6.32
4.60
2.56
0.34
-1.87
-3.93
-5.77
-7.35
-8.62
-9.48
-9.78
-9.44
-8.47
-7.05
-5.41
-3.82
-2.45
-1.34
-0.40
0.50
1.53
2.85
4.58
6.69
9.07
11.47
13.61
15.30
16.55
17.63
18.91
20.75
23.26
26.26
29.35
32.15
34.51
36.62
38.93
41.93
45.87
50.58
55.55
59.89
62.45
61.93
57.12
47.32
32.76
14.79
-4.23
-21.53
-34.64
-42.02
-43.44
-39.93
-33.44
-26.29
-20.62
-17.82
-18.32
-21.55
-26.29
-31.12
-34.79
-36.39
-35.29
-31.08
-23.71
-13.83
-2.99
6.52
12.35
13.06
8.76
1.16
-7.11
-13.55
-16.67
-16.29
-13.31
-9.02
-4.62
-0.90
1.82
3.44
4.00
3.62
2.49
0.88
-0.88
-2.51
-3.86
-4.91
-5.83
-6.88
-8.37
-10.51
-13.30
-16.41
-19.27
-21.19
-21.68
-20.62
-18.30
-15.31
-12.26
-9.60
-7.45
-5.69
-4.10
-2.50
-0.93
0.46
1.50
2.11
2.38
2.58
2.96
3.67
4.72
5.96
7.17
8.12
8.54
8.20
6.88
4.42
0.67
-4.54
-11.40
-20.06
-30.42
-41.91
-53.44
-63.64
-71.24
-75.50
-76.35
-74.33
-70.27
-65.01
-59.22
-53.33
-47.62
-42.23
-37.20
-32.56
-28.33
-24.54
-21.14
-17.91
-14.42
-10.23
-5.17
0.46
5.97
10.52
13.58
15.13
15.61
15.64
15.70
16.04
16.72
17.76
19.13
20.66
21.78
21.59
19.14
13.96
6.31
-2.74
-11.83
-19.80
-26.16
-31.08
-35.01
-38.27
-40.79
-42.16
-42.02
-40.38
-37.75
-34.92
-32.54
-30.72
-28.99
-26.51
-22.47
-16.51
-8.87
-0.18
8.86
17.72
26.15
34.06
41.30
47.55
52.40
55.51
56.78
56.41
54.84
52.53
49.88
47.15
44.50
41.99
39.56
37.11
34.50
31.68
28.72
25.80
23.13
20.78
18.63
16.39
13.76
10.62
7.17
4.03
2.06
2.12
4.78
9.95
16.87
24.20
30.45
34.41
35.52
34.05
30.90
27.27
24.19
22.23
21.35
21.04
20.58
19.30
16.84
13.24
8.91
4.50
0.59
-2.44
-4.48
-5.69
-6.29
-6.51
-6.46
-6.21
-5.82
-5.39
-5.05
-4.87
-4.83
-4.81
-4.61
-4.12
-3.31
-2.32
-1.34
-0.59
-0.19
-0.14
-0.33
-0.60
-0.78
-0.79
-0.65
-0.45
-0.35
-0.44
-0.76
-1.21
-1.67
-2.05
-2.36
-2.74
-3.32
-4.14
-5.02
-5.65
-5.66
-4.87
-3.32
-1.29
0.89
3.00
4.97
6.87
8.83
10.90
13.02
15.07
16.95
18.55
19.83
20.69
21.08
21.01
20.59
20.01
19.47
19.02
18.51
17.68
16.24
14.05
11.21
8.01
4.80
1.90
-0.57
-2.70
-4.73
-7.00
-9.78
-13.18
-17.06
-21.13
-25.01
-28.43
-31.28
-33.61
-35.48
-36.86
-37.52
-37.18
-35.61
-32.78
-28.84
-24.09
-18.85
-13.37
-7.87
-2.60
2.15
6.12
9.12
11.13
12.31
12.94
13.29
13.59
13.89
14.20
14.48
14.71
14.92
15.09
15.23
15.30
15.27
15.18
15.07
15.01
15.03
15.09
15.11
14.93
14.42
13.47
12.06
10.22
8.05
5.68
3.20
0.70
-1.80
-4.32
-6.85
-9.34
-11.66
-13.65
-15.10
-15.92
-16.12
-15.83
-15.31
-14.83
-14.66
-14.99
-15.89
-17.29
-19.02
-20.79
-22.27
-23.16
-23.24
-22.41
-20.75
-18.52
-16.10
-13.95
-12.54
-12.14
-12.76
-14.07
-15.47
-16.28
-15.96
-14.31
-11.48
-7.90
-4.08
-0.45
2.71
5.29
7.27
8.68
9.58
10.09
10.33
10.45
10.52
10.50
10.25
9.58
8.37
6.64
4.55
2.43
0.60
-0.62
-1.05
-0.71
0.27
1.65
3.18
4.67
6.07
7.35
8.56
9.65
10.56
11.18
11.42
11.23
10.68
9.87
9.00
8.24
7.73
7.55
7.68
7.98
8.31
8.53
8.60
8.56
8.51
8.54
8.64
8.74
8.69
8.37
7.76
6.94
6.04
5.17
4.34
3.43
2.26
0.68
-1.38
-3.89
-6.76
-9.88
-13.06
-16.02
-18.30
-19.37
-18.73
-16.13
-11.74
-6.13
-0.15
5.35
9.70
12.57
13.98
14.21
13.68
12.80
11.92
11.26
10.91
10.82
10.86
10.87
10.65
10.08
9.07
7.69
6.11
4.58
3.32
2.41
1.80
1.28
0.64
-0.29
-1.55
-3.06
-4.68
-6.29
-7.80
-9.19
-10.42
-11.48
-12.41
-13.29
-14.28
-15.49
-16.95
-18.56
-20.08
-21.22
-21.72
-21.48
-20.49
-18.90
-16.87
-14.54
-12.06
-9.54
-7.10
-4.84
-2.83
-1.09
0.38
1.63
2.64
3.38
3.81
3.95
3.86
3.67
3.54
3.61
3.92
4.41
4.93
5.34
5.46
5.27
4.79
4.12
3.37
2.62
1.93
1.31
0.74
0.17
-0.49
-1.34
-2.49
-3.99
-5.83
-7.87
-9.91
-11.66
-12.85
-13.30
-12.91
-11.76
-10.00
-7.82
-5.42
-2.94
-0.47
1.86
3.93
5.61
6.82
7.56
7.95
8.10
8.12
8.06
7.93
7.68
7.33
6.91
6.48
6.10
5.81
5.63
5.54
5.49
5.40
5.18
4.76
4.11
3.29
2.36
1.41
0.50
-0.34
-1.10
-1.79
-2.47
-3.23
-4.21
-5.52
-7.18
-9.05
-10.84
-12.15
-12.64
-12.11
-10.60
-8.34
-5.69
-2.95
-0.33
2.12
4.40
6.51
8.37
9.87
10.89
11.37
11.37
11.03
10.52
9.97
9.50
9.13
8.84
8.60
8.34
7.99
7.48
6.82
6.06
5.31
4.66
4.12
3.60
2.97
2.12
1.01
-0.25
-1.53
-2.70
-3.72
-4.66
-5.66
-6.84
-8.28
-9.93
-11.67
-13.25
-14.36
-14.74
-14.22
-12.82
-10.77
-8.38
-6.00
-3.84
-1.97
-0.34
1.12
2.44
3.53
4.32
4.70
4.68
4.36
3.88
3.40
2.99
2.68
2.45
2.27
2.15
2.10
2.08
2.04
1.91
1.61
1.14
0.52
-0.16
-0.82
-1.41
-1.94
-2.46
-3.06
-3.82
-4.80
-6.02
-7.46
-9.04
-10.61
-11.99
-12.97
-13.32
-12.90
-11.65
-9.64
-7.07
-4.19
-1.27
1.47
3.91
5.98
7.65
8.90
9.69
10.06
10.06
9.82
9.50
9.24
9.14
9.17
9.24
9.21
8.98
8.54
7.94
7.26
6.57
5.92
5.28
4.64
3.98
3.28
2.48
1.48
0.22
-1.30
-2.94
-4.53
-5.89
-7.03
-8.08
-9.29
-10.82
-12.60
-14.37
-15.70
-16.25
-15.84
-14.54
-12.54
-10.12
-7.47
-4.74
-2.04
0.56
2.98
5.15
7.00
8.49
9.56
10.21
10.45
10.41
10.24
10.09
10.04
10.06
10.03
9.85
9.46
8.95
8.45
8.05
7.76
7.47
7.01
6.29
5.33
4.24
3.19
2.25
1.40
0.55
-0.39
-1.44
-2.56
-3.65
-4.71
-5.78
-6.97
-8.39
-10.03
-11.78
-13.44
-14.78
-15.60
-15.79
-15.26
-14.02
-12.12
-9.69
-6.89
-3.94
-1.07
1.52
3.70
5.41
6.65
7.50
8.01
8.27
8.33
8.26
8.16
8.08
8.04
8.04
8.01
7.92
7.79
7.67
7.61
7.63
7.64
7.54
7.24
6.72
6.07
5.43
4.93
4.63
4.55
4.62
4.73
4.80
4.76
4.62
4.44
4.27
4.13
3.99
3.76
3.31
2.56
1.48
0.15
-1.29
-2.71
-3.99
-5.10
-6.08
-7.07
-8.23
-9.68
-11.43
-13.32
-15.10
-16.43
-17.03
-16.78
-15.66
-13.84
-11.52
-8.95
-6.30
-3.71
-1.25
1.01
2.99
4.61
5.82
6.63
7.15
7.50
7.79
8.07
8.26
8.27
8.02
7.51
6.86
6.21
5.71
5.43
5.33
5.32
5.28
5.12
4.79
4.31
3.72
3.04
2.31
1.54
0.73
-0.11
-0.97
-1.85
-2.78
-3.79
-4.91
-6.13
-7.42
-8.76
-10.17
-11.65
-13.22
-14.83
-16.32
-17.45
-17.95
-17.60
-16.28
-14.05
-11.15
-7.89
-4.62
-1.60
1.04
3.25
5.05
6.47
7.52
8.20
8.54
8.62
8.55
8.46
8.43
8.49
8.62
8.76
8.89
8.97
8.97
8.85
8.57
8.10
7.47
6.74
6.00
5.32
4.72
4.17
3.62
3.02
2.33
1.55
0.70
-0.23
-1.21
-2.25
-3.34
-4.47
-5.63
-6.81
-8.00
-9.19
-10.37
-11.57
-12.82
-14.06
-15.16
-15.89
-15.96
-15.14
-13.41
-10.89
-7.88
-4.69
-1.57
1.31
3.87
6.05
7.81
9.15
10.10
10.71
11.06
11.19
11.16
11.03
10.89
10.79
10.75
10.74
10.66
10.43
10.01
9.45
8.83
8.22
7.62
7.02
6.37
5.65
4.90
4.16
3.48
2.85
2.22
1.49
0.58
-0.55
-1.86
-3.25
-4.61
-5.90
-7.15
-8.44
-9.87
-11.43
-13.01
-14.45
-15.56
-16.19
-16.23
-15.63
-14.41
-12.61
-10.31
-7.69
-4.91
-2.16
0.42
2.68
4.54
5.92
6.81
7.22
7.22
6.89
6.34
5.69
5.05
4.52
4.12
3.82
3.57
3.28
2.92
2.52
2.15
1.86
1.65
1.38
0.93
0.20
-0.79
-1.89
-2.98
-3.99
-4.95
-5.98
-7.15
-8.45
-9.76
-10.99
-12.14
-13.32
-14.66
-16.20
-17.76
-18.96
-19.34
-18.60
-16.66
-13.78
-10.40
-6.94
-3.73
-0.85
1.74
4.14
6.37
8.36
9.99
11.15
11.81
12.02
11.91
11.61
11.20
10.75
10.30
9.90
9.57
9.32
9.11
8.87
8.51
8.01
7.37
6.64
5.89
5.14
4.38
3.58
2.67
1.66
0.54
-0.66
-1.93
-3.31
-4.86
-6.60
-8.53
-10.58
-12.62
-14.50
-16.04
-17.05
-17.36
-16.87
-15.53
-13.41
-10.66
-7.52
-4.23
-1.05
1.82
4.28
6.31
7.95
9.28
10.32
11.05
11.46
11.56
11.44
11.25
11.10
11.03
10.94
10.74
10.37
9.89
9.42
9.06
8.81
8.54
8.10
7.38
6.38
5.15
3.80
2.40
1.00
-0.36
-1.59
-2.61
-3.40
-4.01
-4.60
-5.37
-6.43
-7.83
-9.54
-11.43
-13.38
-15.17
-16.54
-17.17
-16.77
-15.22
-12.63
-9.27
-5.55
-1.85
1.55
4.46
6.79
8.53
9.72
10.50
11.02
11.40
11.68
11.80
11.68
11.31
10.75
10.14
9.62
9.30
9.21
9.30
9.49
9.71
9.87
9.88
9.60
8.93
7.83
6.32
4.54
2.66
0.87
-0.72
-2.07
-3.26
-4.40
-5.63
-6.99
-8.53
-10.21
-11.95
-13.63
-15.06
-15.97
-16.15
-15.44
-13.82
-11.42
-8.50
-5.31
-2.08
1.05
3.94
6.46
8.50
9.98
10.89
11.29
11.30
11.04
10.61
10.05
9.37
8.56
7.63
6.60
5.48
4.31
3.11
1.93
0.83
-0.11
-0.84
-1.34
-1.65
-1.82
-1.92
-1.99
-2.07
-2.15
-2.26
-2.49
-2.94
-3.74
-4.96
-6.62
-8.63
-10.85
-13.04
-14.94
-16.23
-16.65
-16.03
-14.42
-11.99
-9.04
-5.86
-2.66
0.39
3.20
5.63
7.54
8.80
9.38
9.33
8.78
7.92
6.91
5.90
5.02
4.37
4.00
3.89
3.97
4.12
4.28
4.39
4.44
4.41
4.25
3.91
3.36
2.65
1.86
1.07
0.33
-0.37
-1.08
-1.82
-2.63
-3.54
-4.59
-5.88
-7.48
-9.35
-11.31
-13.01
-14.08
-14.24
-13.41
-11.73
-9.49
-7.03
-4.61
-2.36
-0.31
1.52
3.10
4.34
5.18
5.63
5.83
5.94
6.15
6.55
7.12
7.76
8.32
8.70
8.86
8.84
8.74
8.59
8.45
8.26
7.98
7.55
6.97
6.26
5.49
4.67
3.77
2.71
1.38
-0.21
-2.00
-3.83
-5.51
-6.94
-8.16
-9.35
-10.74
-12.52
-14.69
-17.06
-19.27
-20.94
-21.71
-21.43
-20.10
-17.87
-15.00
-11.80
-8.60
-5.66
-3.17
-1.16
0.44
1.76
2.94
4.02
4.99
5.79
6.43
6.96
7.50
8.14
8.90
9.72
10.50
11.16
11.64
11.91
11.96
11.74
11.22
10.39
9.35
8.24
7.18
6.21
5.26
4.22
3.01
1.63
0.19
-1.15
-2.31
-3.27
-4.16
-5.10
-6.19
-7.40
-8.62
-9.63
-10.19
-10.09
-9.23
-7.63
-5.41
-2.77
0.08
2.89
5.46
7.60
9.13
9.99
10.19
9.89
9.31
8.68
8.11
7.62
7.12
6.49
5.68
4.72
3.75
2.93
2.42
2.26
2.41
2.73
3.02
3.11
2.89
2.39
1.71
1.03
0.50
0.25
0.31
0.64
1.15
1.68
2.06
2.12
1.74
0.94
-0.19
-1.50
-2.90
-4.43
-6.22
-8.37
-10.80
-13.23
-15.21
-16.31
-16.25
-15.02
-12.84
-10.03
-6.90
-3.67
-0.49
2.51
5.20
7.47
9.25
10.54
11.36
11.76
11.76
11.37
10.68
9.80
8.92
8.25
7.92
8.00
8.49
9.27
10.11
10.74
10.87
10.33
9.18
7.75
6.54
6.06
6.60
8.08
10.04
11.83
12.76
12.28
10.06
6.09
0.68
-5.53
-11.73
-17.11
-21.20
-24.04
-26.15
-28.25
-30.83
-33.91
-36.98
-39.22
-39.89
-38.63
-35.57
-31.19
-26.18
-21.21
-16.79
-13.18
-10.43
-8.34
-6.62
-4.91
-2.95
-0.59
2.18
5.28
8.55
11.75
14.58
16.74
18.03
18.46
18.31
18.00
17.92
18.28
18.99
19.74
20.19
20.08
19.36
18.12
16.57
14.85
13.08
11.34
9.70
8.24
7.08
6.31
5.90
5.71
5.47
4.88
3.76
2.05
-0.13
-2.51
-4.76
-6.62
-7.90
-8.54
-8.53
-7.91
-6.73
-5.09
-3.13
-1.05
0.92
2.58
3.83
4.71
5.32
5.83
6.37
6.98
7.63
8.23
8.69
8.92
8.90
8.68
8.31
7.91
7.54
7.23
6.95
6.66
6.27
5.75
5.07
4.23
3.26
2.21
1.16
0.13
-0.85
-1.84
-2.94
-4.23
-5.75
-7.46
-9.29
-11.15
-12.98
-14.74
-16.35
-17.69
-18.58
-18.85
-18.35
-17.04
-14.97
-12.26
-9.12
-5.82
-2.64
0.18
2.49
4.25
5.56
6.51
7.20
7.64
7.84
7.82
7.68
7.56
7.59
7.81
8.13
8.40
8.48
8.33
8.01
7.62
7.21
6.74
6.11
5.28
4.28
3.24
2.31
1.55
0.91
0.29
-0.41
-1.25
-2.20
-3.19
-4.22
-5.32
-6.55
-8.00
-9.70
-11.61
-13.60
-15.45
-16.86
-17.57
-17.36
-16.21
-14.25
-11.73
-8.96
-6.18
-3.55
-1.14
1.01
2.90
4.51
5.82
6.80
7.49
7.91
8.10
8.11
7.96
7.65
7.21
6.71
6.23
5.87
5.66
5.56
5.48
5.32
5.04
4.66
4.23
3.78
3.30
2.72
2.01
1.16
0.18
-0.87
-1.96
-3.09
-4.22
-5.31
-6.32
-7.22
-8.05
-8.94
-10.08
-11.60
-13.52
-15.64
-17.60
-18.97
-19.40
-18.74
-17.04
-14.57
-11.66
-8.63
-5.70
-3.00
-0.62
1.40
3.03
4.27
5.15
5.75
6.17
6.49
6.77
7.02
7.18
7.23
7.15
6.94
6.65
6.35
6.04
5.74
5.42
5.04
4.60
4.11
3.58
3.05
2.52
1.95
1.30
0.54
-0.38
-1.48
-2.74
-4.14
-5.63
-7.13
-8.62
-10.06
-11.48
-12.87
-14.16
-15.21
-15.77
-15.63
-14.61
-12.72
-10.14
-7.16
-4.08
-1.15
1.48
3.74
5.60
7.05
8.08
8.72
9.04
9.15
9.17
9.18
9.22
9.25
9.21
9.01
8.63
8.10
7.50
6.95
6.54
6.32
6.21
6.04
5.60
4.71
3.35
1.64
-0.19
-1.90
-3.38
-4.65
-5.85
-7.12
-8.56
-10.15
-11.82
-13.50
-15.10
-16.50
-17.54
-17.98
-17.59
-16.24
-13.94
-10.91
-7.46
-3.95
-0.65
2.26
4.73
6.78
8.44
9.71
10.58
11.04
11.11
10.89
10.51
10.09
9.67
9.24
8.79
8.33
7.95
7.74
7.73
7.85
7.90
7.69
7.08
6.12
4.95
3.78
2.76
1.93
1.25
0.64
0.01
-0.73
-1.64
-2.76
-4.14
-5.78
-7.64
-9.59
-11.41
-12.80
-13.46
-13.13
-11.70
-9.28
-6.13
-2.60
1.00
4.45
7.62
10.45
12.81
14.58
15.61
15.81
15.18
13.84
11.93
9.65
7.19
4.76
2.54
0.63
-0.91
-2.14
-3.14
-4.01
-4.80
-5.47
-6.02
-6.41
-6.64
-6.74
-6.68
-6.46
-6.11
-5.71
-5.39
-5.27
-5.40
-5.75
-6.23
-6.77
-7.40
-8.24
-9.47
-11.14
-13.14
-15.15
-16.72
-17.45
-17.11
-15.71
-13.44
-10.58
-7.40
-4.10
-0.83
2.22
4.84
6.76
7.81
7.97
7.42
6.49
5.51
4.71
4.15
3.76
3.45
3.17
2.95
2.89
3.04
3.40
3.88
4.37
4.76
5.00
5.08
5.02
4.80
4.43
3.93
3.35
2.72
2.05
1.27
0.25
-1.12
-2.90
-5.06
-7.47
-9.95
-12.27
-14.13
-15.25
-15.34
-14.26
-12.08
-9.11
-5.81
-2.62
0.21
2.66
4.83
6.84
8.73
10.40
11.71
12.56
12.92
12.85
12.46
11.87
11.18
10.51
9.94
9.55
9.33
9.24
9.15
8.93
8.48
7.79
6.88
5.84
4.74
3.62
2.47
1.29
0.13
-0.97
-1.95
-2.84
-3.73
-4.79
-6.17
-7.94
-10.06
-12.33
-14.48
-16.23
-17.29
-17.44
-16.59
-14.73
-12.03
-8.71
-5.08
-1.41
2.05
5.10
7.63
9.61
11.07
12.12
12.86
13.40
13.76
13.95
13.94
13.73
13.33
12.82
12.24
11.66
11.10
10.58
10.04
9.46
8.77
7.95
7.02
6.03
4.99
3.91
2.76
1.52
0.17
-1.25
-2.66
-4.03
-5.31
-6.54
-7.80
-9.15
-10.68
-12.45
-14.50
-16.74
-18.98
-20.93
-22.22
-22.51
-21.60
-19.45
-16.25
-12.34
-8.16
-4.14
-0.61
2.21
4.28
5.71
6.69
7.46
8.19
8.98
9.79
10.54
11.08
11.35
11.32
11.03
10.59
10.12
9.70
9.39
9.18
8.99
8.75
8.33
7.71
6.91
6.03
5.23
4.58
4.09
3.65
3.05
2.17
0.94
-0.57
-2.18
-3.75
-5.16
-6.43
-7.62
-8.86
-10.23
-11.82
-13.68
-15.78
-17.97
-19.98
-21.45
-22.00
-21.41
-19.64
-16.92
-13.61
-10.08
-6.66
-3.55
-0.86
1.35
3.08
4.33
5.15
5.62
5.85
5.89
5.81
5.66
5.48
5.32
5.21
5.18
5.23
5.33
5.44
5.55
5.61
5.59
5.41
5.02
4.41
3.60
2.69
1.78
0.90
0.07
-0.78
-1.70
-2.74
-3.92
-5.24
-6.67
-8.18
-9.72
-11.27
-12.76
-14.12
-15.19
-15.78
-15.61
-14.45
-12.14
-8.71
-4.35
0.62
5.86
11.06
16.01
20.54
24.48
27.71
30.06
31.45
31.85
31.38
30.19
28.49
26.47
24.28
22.08
19.97
18.10
16.55
15.30
14.25
13.17
11.83
10.09
7.94
5.48
2.91
0.43
-1.83
-3.79
-5.40
-6.66
-7.62
-8.34
-8.95
-9.55
-10.20
-10.94
-11.79
-12.75
-13.90
-15.29
-16.96
-18.77
-20.42
-21.50
-21.60
-20.48
-18.18
-15.00
-11.37
-7.70
-4.28
-1.24
1.42
3.68
5.53
6.92
7.85
8.39
8.62
8.66
8.54
8.29
7.91
7.43
6.93
6.50
6.17
5.93
5.74
5.54
5.28
4.97
4.58
4.10
3.49
2.74
1.87
0.96
0.05
-0.83
-1.71
-2.62
-3.59
-4.64
-5.75
-6.97
-8.37
-10.04
-12.05
-14.37
-16.85
-19.23
-21.17
-22.32
-22.43
-21.37
-19.19
-16.11
-12.47
-8.63
-4.91
-1.53
1.37
3.78
5.71
7.22
8.41
9.34
10.09
10.65
11.03
11.21
11.23
11.14
11.00
10.86
10.68
10.41
10.07
9.71
9.42
9.24
9.12
8.93
8.51
7.76
6.72
5.53
4.33
3.21
2.16
1.10
-0.07
-1.39
-2.87
-4.47
-6.14
-7.86
-9.58
-11.34
-13.20
-15.20
-17.32
-19.36
-20.97
-21.72
-21.32
-19.69
-17.04
-13.72
-10.14
-6.63
-3.35
-0.44
2.06
4.10
5.68
6.85
7.73
8.39
8.88
9.17
9.23
9.09
8.84
8.62
8.50
8.48
8.50
8.46
8.33
8.13
7.90
7.64
7.32
6.86
6.18
5.25
4.07
2.74
1.34
-0.04
-1.34
-2.56
-3.71
-4.87
-6.11
-7.53
-9.18
-11.08
-13.17
-15.36
-17.42
-19.09
-20.06
-20.02
-18.85
-16.58
-13.44
-9.83
-6.14
-2.70
0.31
2.88
5.05
6.91
8.49
9.79
10.81
11.51
11.93
12.10
12.08
11.92
11.64
11.25
10.77
10.21
9.65
9.13
8.68
8.29
7.92
7.52
7.03
6.44
5.74
4.93
4.01
2.98
1.82
0.56
-0.75
-2.00
-3.11
-4.05
-4.89
-5.77
-6.85
-8.25
-9.98
-11.94
-13.96
-15.89
-17.55
-18.76
-19.34
-19.05
-17.76
-15.45
-12.34
-8.81
-5.23
-1.88
1.12
3.82
6.25
8.42
10.24
11.62
12.49
12.85
12.81
12.49
12.03
11.56
11.19
10.99
10.99
11.14
11.36
11.52
11.51
11.26
10.73
9.95
9.00
7.99
7.05
6.26
5.63
5.06
4.44
3.61
2.51
1.12
-0.49
-2.21
-3.90
-5.43
-6.76
-7.89
-8.98
-10.23
-11.86
-13.97
-16.43
-18.89
-20.82
-21.74
-21.34
-19.61
-16.77
-13.23
-9.43
-5.74
-2.40
0.46
2.83
4.72
6.23
7.43
8.42
9.24
9.88
10.32
10.54
10.54
10.38
10.12
9.82
9.49
9.17
8.87
8.59
8.31
7.95
7.44
6.73
5.83
4.85
3.93
3.15
2.52
1.95
1.31
0.53
-0.42
-1.51
-2.71
-3.97
-5.32
-6.74
-8.19
-9.61
-10.99
-12.37
-13.85
-15.45
-17.05
-18.36
-18.97
-18.56
-17.02
-14.51
-11.40
-8.05
-4.72
-1.53
1.50
4.33
6.85
8.91
10.39
11.28
11.69
11.79
11.76
11.70
11.61
11.46
11.22
10.87
10.45
9.99
9.58
9.25
9.01
8.82
8.59
8.22
7.65
6.88
5.98
5.05
4.15
3.28
2.40
1.43
0.35
-0.85
-2.11
-3.40
-4.68
-5.99
-7.36
-8.85
-10.48
-12.29
-14.24
-16.26
-18.18
-19.75
-20.69
-20.77
-19.82
-17.86
-15.03
-11.60
-7.86
-4.14
-0.67
2.37
4.90
6.93
8.54
9.77
10.67
11.27
11.58
11.65
11.59
11.49
11.43
11.40
11.34
11.17
10.88
10.51
10.14
9.81
9.51
9.18
8.74
8.14
7.35
6.39
5.29
4.12
2.93
1.82
0.81
-0.08
-0.93
-1.79
-2.71
-3.72
-4.80
-5.95
-7.18
-8.57
-10.19
-12.06
-14.10
-16.13
-17.84
-18.90
-19.00
-18.01
-15.97
-13.09
-9.68
-6.06
-2.46
0.94
4.01
6.65
8.75
10.26
11.20
11.65
11.73
11.59
11.33
11.04
10.78
10.59
10.44
10.29
10.10
9.84
9.54
9.22
8.90
8.57
8.14
7.54
6.75
5.78
4.73
3.67
2.64
1.60
0.49
-0.77
-2.18
-3.72
-5.30
-6.86
-8.37
-9.83
-11.25
-12.66
-14.11
-15.68
-17.47
-19.51
-21.67
-23.60
-24.85
-24.99
-23.81
-21.42
-18.18
-14.56
-10.96
-7.58
-4.49
-1.69
0.81
2.97
4.74
6.12
7.17
7.90
8.33
8.43
8.27
7.96
7.69
7.64
7.86
8.26
8.68
8.95
9.03
8.96
8.85
8.76
8.63
8.34
7.76
6.82
5.60
4.24
2.90
1.67
0.54
-0.58
-1.74
-2.94
-4.09
-5.14
-6.09
-7.05
-8.22
-9.72
-11.52
-13.34
-14.78
-15.42
-14.98
-13.41
-10.91
-7.80
-4.43
-1.12
1.93
4.56
6.71
8.36
9.54
10.32
10.81
11.10
11.29
11.45
11.60
11.69
11.63
11.34
10.79
10.05
9.28
8.65
8.27
8.10
8.01
7.81
7.33
6.55
5.55
4.47
3.44
2.52
1.66
0.76
-0.26
-1.44
-2.74
-4.04
-5.24
-6.28
-7.21
-8.12
-9.12
-10.28
-11.67
-13.27
-15.08
-17.02
-18.93
-20.51
-21.35
-21.10
-19.53
-16.68
-12.86
-8.54
-4.20
-0.20
3.26
6.12
8.41
10.11
11.24
11.82
11.95
11.81
11.59
11.47
11.49
11.62
11.71
11.62
11.30
10.78
10.22
9.78
9.60
9.66
9.81
9.84
9.53
8.80
7.72
6.46
5.19
4.01
2.90
1.79
0.57
-0.77
-2.23
-3.75
-5.32
-6.94
-8.61
-10.32
-12.03
-13.73
-15.42
-17.14
-18.91
-20.63
-22.09
-23.01
-23.09
-22.17
-20.25
-17.52
-14.26
-10.74
-7.20
-3.79
-0.63
2.21
4.64
6.65
8.21
9.37
10.18
10.68
10.92
10.92
10.73
10.38
9.96
9.55
9.26
9.16
9.30
9.63
10.03
10.30
10.23
9.69
8.70
7.46
6.18
5.09
4.25
3.60
2.99
2.25
1.31
0.15
-1.15
-2.53
-3.99
-5.52
-7.18
-9.01
-11.03
-13.22
-15.48
-17.65
-19.45
-20.54
-20.63
-19.53
-17.30
-14.14
-10.41
-6.47
-2.65
0.84
3.87
6.41
8.47
10.09
11.36
12.32
13.05
13.57
13.89
14.04
14.02
13.85
13.53
13.10
12.62
12.14
11.73
11.42
11.16
10.87
10.44
9.82
9.01
8.04
6.97
5.86
4.75
3.66
2.61
1.54
0.38
-0.99
-2.61
-4.42
-6.28
-8.02
-9.52
-10.82
-12.13
-13.71
-15.73
-18.17
-20.72
-22.92
-24.24
-24.30
-22.97
-20.40
-16.94
-13.02
-9.01
-5.14
-1.52
1.83
4.89
7.58
9.81
11.47
12.57
13.17
13.44
13.53
13.52
13.44
13.22
12.83
12.29
11.71
11.19
10.83
10.62
10.48
10.29
9.95
9.40
8.67
7.84
6.98
6.14
5.33
4.51
3.64
2.66
1.54
0.26
-1.20
-2.81
-4.53
-6.27
-7.91
-9.39
-10.70
-11.96
-13.35
-15.07
-17.18
-19.52
-21.73
-23.33
-23.84
-22.99
-20.80
-17.51
-13.53
-9.30
-5.11
-1.17
2.38
5.45
7.97
9.87
11.16
11.91
12.23
12.27
12.13
11.91
11.65
11.45
11.35
11.38
11.51
11.63
11.63
11.40
10.91
10.18
9.32
8.43
7.61
6.90
6.26
5.61
4.88
4.00
2.96
1.76
0.45
-0.96
-2.43
-3.96
-5.50
-6.98
-8.35
-9.57
-10.71
-11.88
-13.29
-15.05
-17.14
-19.28
-21.06
-21.99
-21.74
-20.19
-17.57
-14.29
-10.79
-7.41
-4.27
-1.38
1.34
3.90
6.22
8.20
9.77
10.95
11.86
12.64
13.38
14.12
14.79
15.24
15.38
15.17
14.66
13.99
13.23
12.41
11.41
10.09
8.38
6.34
4.19
2.22
0.65
-0.46
-1.21
-1.81
-2.46
-3.26
-4.17
-5.07
-5.84
-6.45
-6.95
-7.47
-8.17
-9.18
-10.59
-12.45
-14.73
-17.29
-19.86
-22.03
-23.34
-23.37
-21.96
-19.19
-15.39
-11.07
-6.69
-2.62
0.93
3.92
6.41
8.48
10.20
11.60
12.73
13.64
14.34
14.88
15.23
15.38
15.27
14.88
14.23
13.43
12.63
11.94
11.38
10.90
10.38
9.73
8.94
8.07
7.20
6.38
5.62
4.90
4.16
3.38
2.51
1.51
0.30
-1.15
-2.83
-4.66
-6.52
-8.34
-10.18
-12.14
-14.36
-16.83
-19.35
-21.55
-22.95
-23.14
-21.91
-19.35
-15.75
-11.55
-7.19
-3.01
0.76
4.00
6.69
8.82
10.43
11.57
12.34
12.85
13.17
13.34
13.34
13.12
12.65
11.99
11.25
10.56
10.03
9.67
9.44
9.24
8.97
8.58
8.02
7.30
6.41
5.38
4.21
2.95
1.64
0.31
-1.06
-2.47
-3.92
-5.38
-6.80
-8.13
-9.39
-10.66
-12.07
-13.74
-15.68
-17.77
-19.76
-21.29
-22.00
-21.62
-20.08
-17.44
-13.96
-9.97
-5.83
-1.84
1.81
5.02
7.77
10.03
11.75
12.87
13.39
13.34
12.88
12.19
11.47
10.86
10.43
10.22
10.16
10.17
10.15
9.99
9.64
9.13
8.49
7.80
7.06
6.27
5.38
4.39
3.32
2.23
1.13
-0.02
-1.30
-2.77
-4.41
-6.14
-7.86
-9.53
-11.22
-13.01
-14.99
-17.12
-19.23
-21.02
-22.19
-22.49
-21.74
-19.90
-17.05
-13.34
-9.07
-4.57
-0.20
3.72
6.98
9.50
11.29
12.44
13.07
13.32
13.30
13.09
12.74
12.31
11.85
11.44
11.15
10.97
10.83
10.60
10.16
9.43
8.46
7.38
6.36
5.52
4.88
4.34
3.77
2.99
1.90
0.50
-1.17
-2.99
-4.87
-6.72
-8.52
-10.24
-11.89
-13.53
-15.25
-17.16
-19.31
-21.61
-23.72
-25.20
-25.57
-24.55
-22.15
-18.64
-14.46
-10.01
-5.61
-1.47
2.26
5.49
8.14
10.22
11.82
13.04
13.99
14.69
15.09
15.16
14.88
14.29
13.51
12.66
11.85
11.16
10.61
10.20
9.87
9.53
9.10
8.53
7.80
6.95
6.03
5.07
4.08
3.03
1.87
0.56
-0.96
-2.67
-4.55
-6.47
-8.31
-9.99
-11.53
-13.07
-14.81
-16.87
-19.17
-21.39
-23.05
-23.68
-22.98
-20.92
-17.71
-13.71
-9.31
-4.90
-0.76
2.90
5.94
8.34
10.13
11.44
12.35
12.95
13.31
13.49
13.52
13.44
13.28
13.05
12.77
12.48
12.21
11.98
11.74
11.43
10.97
10.31
9.47
8.54
7.55
6.55
5.48
4.32
3.03
1.63
0.18
-1.29
-2.74
-4.19
-5.67
-7.21
-8.84
-10.62
-12.59
-14.74
-17.00
-19.15
-20.90
-21.87
-21.76
-20.40
-17.85
-14.38
-10.36
-6.19
-2.17
1.52
4.83
7.71
10.14
12.04
13.35
14.06
14.25
14.05
13.61
13.10
12.61
12.19
11.87
11.64
11.45
11.28
11.09
10.86
10.57
10.19
9.67
8.96
8.04
6.92
5.71
4.51
3.42
2.42
1.45
0.40
-0.84
-2.29
-3.93
-5.69
-7.47
-9.20
-10.83
-12.40
-13.98
-15.71
-17.65
-19.72
-21.68
-23.15
-23.71
-23.03
-21.01
-17.79
-13.70
-9.18
-4.65
-0.40
3.36
6.58
9.25
11.35
12.88
13.82
14.21
14.17
13.86
13.44
13.01
12.55
11.98
11.27
10.46
9.72
9.20
8.94
8.87
8.79
8.56
8.11
7.51
6.85
6.16
5.41
4.52
3.44
2.20
0.89
-0.40
-1.63
-2.84
-4.07
-5.37
-6.77
-8.25
-9.85
-11.64
-13.67
-15.97
-18.41
-20.72
-22.54
-23.47
-23.22
-21.73
-19.11
-15.70
-11.84
-7.86
-4.02
-0.42
2.82
5.65
7.95
9.68
10.84
11.51
11.83
11.97
12.03
12.03
11.97
11.82
11.62
11.46
11.45
11.63
11.88
12.02
11.86
11.30
10.40
9.32
8.18
7.03
5.79
4.40
2.82
1.13
-0.55
-2.15
-3.68
-5.22
-6.87
-8.69
-10.66
-12.76
-14.97
-17.28
-19.60
-21.72
-23.29
-23.95
-23.43
-21.65
-18.75
-15.06
-10.90
-6.62
-2.47
1.37
4.73
7.50
9.62
11.05
11.86
12.16
12.11
11.86
11.54
11.17
10.77
10.29
9.71
9.05
8.36
7.73
7.17
6.68
6.19
5.63
4.94
4.13
3.28
2.42
1.60
0.77
-0.10
-1.06
-2.12
-3.25
-4.44
-5.68
-6.97
-8.36
-9.91
-11.68
-13.65
-15.77
-17.87
-19.66
-20.83
-21.01
-19.99
-17.69
-14.31
-10.21
-5.84
-1.64
2.10
5.22
7.69
9.53
10.81
11.62
12.05
12.22
12.23
12.12
11.92
11.60
11.18
10.69
10.21
9.81
9.47
9.15
8.80
8.41
8.01
7.62
7.22
6.72
5.99
4.95
3.63
2.14
0.62
-0.82
-2.15
-3.42
-4.69
-5.99
-7.36
-8.81
-10.42
-12.24
-14.30
-16.54
-18.79
-20.74
-22.06
-22.44
-21.68
-19.73
-16.71
-12.88
-8.61
-4.30
-0.31
3.15
5.97
8.18
9.86
11.11
11.96
12.41
12.47
12.16
11.64
11.07
10.58
10.27
10.12
10.07
10.01
9.90
9.70
9.41
9.03
8.58
8.06
7.46
6.75
5.89
4.82
3.52
2.00
0.37
-1.25
-2.76
-4.10
-5.34
-6.59
-8.03
-9.77
-11.87
-14.28
-16.84
-19.30
-21.34
-22.65
-22.98
-22.18
-20.22
-17.22
-13.38
-9.00
-4.43
-0.05
3.84
7.00
9.34
10.92
11.86
12.35
12.56
12.64
12.65
12.62
12.53
12.34
12.04
11.73
11.50
11.42
11.49
11.58
11.54
11.21
10.58
9.76
8.92
8.18
7.54
6.87
6.00
4.83
3.34
1.62
-0.20
-2.03
-3.84
-5.67
-7.56
-9.53
-11.59
-13.77
-16.09
-18.54
-20.99
-23.19
-24.76
-25.31
-24.57
-22.49
-19.25
-15.24
-10.90
-6.63
-2.71
0.73
3.71
6.29
8.55
10.54
12.21
13.53
14.44
14.96
15.15
15.12
14.93
14.63
14.28
13.92
13.58
13.31
13.09
12.82
12.41
11.77
10.93
9.95
8.98
8.09
7.30
6.52
5.61
4.42
2.90
1.05
-1.01
-3.10
-5.06
-6.76
-8.21
-9.48
-10.78
-12.31
-14.23
-16.56
-19.11
-21.53
-23.35
-24.09
-23.42
-21.24
-17.75
-13.38
-8.62
-3.95
0.31
4.01
7.12
9.67
11.69
13.17
14.12
14.58
14.64
14.42
14.01
13.41
12.62
11.60
10.41
9.19
8.10
7.24
6.62
6.11
5.54
4.78
3.77
2.59
1.36
0.20
-0.83
-1.73
-2.57
-3.45
-4.43
-5.53
-6.69
-7.83
-8.93
-10.01
-11.21
-12.70
-14.59
-16.84
-19.18
-21.18
-22.32
-22.20
-20.65
-17.80
-14.00
-9.67
-5.26
-1.06
2.72
5.97
8.59
10.51
11.74
12.40
12.66
12.74
12.76
12.78
12.75
12.61
12.37
12.07
11.80
11.63
11.53
11.43
11.21
10.79
10.15
9.37
8.55
7.81
7.22
6.73
6.23
5.53
4.49
3.07
1.35
-0.49
-2.31
-4.05
-5.74
-7.46
-9.27
-11.18
-13.17
-15.20
-17.26
-19.24
-20.92
-21.96
-21.99
-20.78
-18.32
-14.87
-10.87
-6.81
-3.05
0.18
2.79
4.85
6.43
7.67
8.62
9.33
9.76
9.87
9.66
9.16
8.46
7.64
6.79
5.94
5.13
4.41
3.87
3.58
3.55
3.69
3.80
3.68
3.17
2.26
1.06
-0.21
-1.36
-2.31
-3.13
-3.96
-4.93
-6.11
-7.48
-9.01
-10.66
-12.40
-14.13
-15.60
-16.43
-16.26
-14.86
-12.26
-8.80
-4.95
-1.18
2.21
5.14
7.64
9.76
11.48
12.73
13.43
13.59
13.31
12.80
12.25
11.78
11.39
11.01
10.51
9.83
8.99
8.07
7.19
6.37
5.57
4.67
3.54
2.13
0.48
-1.28
-3.01
-4.65
-6.22
-7.78
-9.41
-11.16
-13.09
-15.28
-17.76
-20.51
-23.26
-25.59
-26.95
-26.88
-25.19
-22.04
-17.85
-13.13
-8.33
-3.68
0.70
4.72
8.32
11.34
13.66
15.24
16.16
16.58
16.73
16.78
16.81
16.79
16.57
16.02
15.09
13.83
12.40
11.01
9.81
8.84
8.01
7.15
6.10
4.77
3.20
1.47
-0.30
-2.06
-3.79
-5.53
-7.35
-9.30
-11.43
-13.80
-16.39
-19.06
-21.52
-23.37
-24.17
-23.65
-21.76
-18.73
-14.96
-10.89
-6.86
-3.06
0.41
3.55
6.29
8.59
10.36
11.57
12.26
12.49
12.42
12.20
11.94
11.72
11.52
11.27
10.90
10.35
9.64
8.86
8.11
7.48
7.00
6.60
6.21
5.75
5.19
4.48
3.63
2.64
1.53
0.35
-0.82
-1.91
-2.90
-3.85
-4.90
-6.20
-7.89
-9.99
-12.39
-14.82
-16.91
-18.25
-18.52
-17.56
-15.41
-12.30
-8.59
-4.62
-0.68
3.03
6.39
9.28
11.62
13.33
14.40
14.89
14.95
14.76
14.46
14.13
13.79
13.42
13.04
12.65
12.26
11.87
11.43
10.92
10.34
9.71
9.07
8.42
7.75
7.01
6.15
5.22
4.28
3.39
2.58
1.77
0.83
-0.32
-1.68
-3.13
-4.51
-5.72
-6.76
-7.74
-8.78
-10.00
-11.43
-13.07
-14.85
-16.65
-18.22
-19.20
-19.21
-17.96
-15.44
-11.91
-7.88
-3.88
-0.27
2.77
5.30
7.38
9.04
10.22
10.83
10.87
10.47
9.85
9.25
8.82
8.57
8.43
8.27
8.00
7.61
7.13
6.60
6.08
5.56
4.98
4.29
3.43
2.43
1.35
0.31
-0.58
-1.29
-1.89
-2.54
-3.38
-4.46
-5.70
-6.96
-8.07
-8.97
-9.72
-10.48
-11.41
-12.59
-13.98
-15.41
-16.62
-17.31
-17.20
-16.08
-13.87
-10.64
-6.62
-2.14
2.43
6.75
10.57
13.76
16.26
18.06
19.17
19.63
19.50
18.91
18.01
16.95
15.83
14.70
13.55
12.34
11.05
9.68
8.29
6.94
5.73
4.70
3.87
3.19
2.56
1.87
0.99
-0.14
-1.56
-3.22
-5.00
-6.70
-8.17
-9.30
-10.15
-10.95
-12.06
-13.87
-16.61
-20.24
-24.40
-28.51
-31.92
-34.10
-34.79
-33.97
-31.86
-28.79
-25.11
-21.15
-17.18
-13.35
-9.79
-6.54
-3.64
-1.14
0.89
2.34
3.18
3.40
3.09
2.39
1.48
0.55
-0.24
-0.74
-0.88
-0.66
-0.22
0.31
0.75
1.04
1.14
1.06
0.80
0.37
-0.21
-0.90
-1.60
-2.26
-2.85
-3.45
-4.16
-5.04
-6.11
-7.32
-8.61
-9.92
-11.23
-12.44
-13.33
-13.59
-12.90
-11.06
-8.08
-4.22
0.14
4.59
8.83
12.73
16.21
19.23
21.73
23.62
24.81
25.35
25.33
24.88
24.11
23.09
21.86
20.42
18.83
17.18
15.57
14.09
12.78
11.63
10.57
9.57
8.61
7.68
6.81
6.01
5.23
4.36
3.28
1.89
0.17
-1.75
-3.69
-5.49
-7.05
-8.43
-9.75
-11.19
-12.87
-14.84
-17.04
-19.32
-21.38
-22.82
-23.24
-22.32
-20.00
-16.45
-12.12
-7.54
-3.18
0.67
3.91
6.59
8.79
10.57
11.92
12.82
13.24
13.26
12.98
12.55
12.12
11.75
11.45
11.19
10.90
10.53
10.06
9.51
8.92
8.36
7.87
7.44
6.99
6.39
5.53
4.36
2.94
1.38
-0.17
-1.67
-3.10
-4.50
-5.89
-7.24
-8.49
-9.67
-10.89
-12.32
-14.03
-15.96
-17.77
-19.00
-19.20
-18.10
-15.76
-12.47
-8.67
-4.77
-1.06
2.34
5.39
8.07
10.33
12.09
13.26
13.82
13.89
13.65
13.33
13.12
13.05
13.05
12.97
12.68
12.18
11.53
10.87
10.26
9.72
9.19
8.65
8.07
7.48
6.85
6.11
5.12
3.80
2.15
0.28
-1.61
-3.35
-4.87
-6.23
-7.64
-9.30
-11.35
-13.79
-16.45
-19.02
-21.14
-22.47
-22.76
-21.91
-19.92
-16.97
-13.32
-9.32
-5.33
-1.68
1.41
3.84
5.66
6.98
7.95
8.67
9.20
9.55
9.73
9.76
9.68
9.54
9.41
9.28
9.14
9.00
8.83
8.69
8.55
8.39
8.12
7.67
7.02
6.23
5.43
4.71
4.09
3.48
2.74
1.76
0.53
-0.86
-2.26
-3.58
-4.81
-6.02
-7.32
-8.82
-10.53
-12.42
-14.40
-16.33
-17.99
-19.15
-19.50
-18.81
-16.97
-14.06
-10.38
-6.32
-2.33
1.25
4.23
6.59
8.38
9.68
10.55
11.01
11.17
11.13
11.07
11.11
11.32
11.62
11.92
12.07
12.01
11.80
11.52
11.31
11.24
11.28
11.35
11.29
11.00
10.45
9.72
8.95
8.26
7.69
7.16
6.50
5.56
4.29
2.79
1.28
0.01
-0.83
-1.22
-1.31
-1.35
-1.58
-2.18
-3.14
-4.36
-5.64
-6.82
-7.83
-8.66
-9.42
-10.26
-11.29
-12.64
-14.32
-16.24
-18.18
-19.80
-20.68
-20.51
-19.15
-16.71
-13.48
-9.85
-6.19
-2.75
0.30
2.89
4.97
6.51
7.56
8.17
8.46
8.54
8.45
8.22
7.82
7.23
6.48
5.66
4.86
4.18
3.67
3.32
3.05
2.74
2.27
1.55
0.62
-0.44
-1.47
-2.36
-3.11
-3.82
-4.68
-5.83
-7.34
-9.13
-11.03
-12.84
-14.41
-15.68
-16.71
-17.60
-18.52
-19.56
-20.80
-22.19
-23.58
-24.71
-25.24
-24.85
-23.33
-20.70
-17.18
-13.17
-9.07
-5.20
-1.72
1.33
3.97
6.19
7.98
9.37
10.45
11.37
12.27
13.20
14.10
14.86
15.37
15.66
15.88
16.23
16.88
17.91
19.24
20.69
22.02
22.97
23.36
23.18
22.64
22.20
22.44
23.81
26.39
29.78
33.15
35.56
36.25
34.90
31.66
26.96
21.28
14.97
8.21
1.17
-5.92
-12.66
-18.56
-23.13
-25.99
-27.02
-26.30
-24.15
-21.03
-17.38
-13.60
-9.93
-6.53
-3.45
-0.78
1.40
3.00
4.00
4.46
4.56
4.52
4.50
4.57
4.68
4.72
4.59
4.26
3.82
3.39
3.10
2.99
3.05
3.17
3.25
3.23
3.12
3.02
3.01
3.15
3.38
3.57
3.51
3.10
2.29
1.17
-0.15
-1.52
-2.91
-4.33
-5.81
-7.40
-9.11
-10.92
-12.80
-14.73
-16.63
-18.38
-19.80
-20.61
-20.59
-19.56
-17.53
-14.67
-11.30
-7.80
-4.48
-1.54
1.00
3.17
5.05
6.69
8.09
9.22
10.05
10.58
10.80
10.73
10.39
9.84
9.16
8.48
7.95
7.65
7.58
7.65
7.69
7.55
7.12
6.43
5.57
4.69
3.89
3.21
2.66
2.18
1.67
1.04
0.17
-1.01
-2.51
-4.26
-6.10
-7.88
-9.48
-10.82
-11.99
-13.10
-14.35
-15.87
-17.69
-19.64
-21.39
-22.53
-22.71
-21.80
-19.84
-17.10
-13.88
-10.47
-7.09
-3.88
-0.98
1.45
3.33
4.61
5.36
5.70
5.73
5.55
5.23
4.82
4.42
4.12
3.98
4.02
4.19
4.43
4.63
4.69
4.52
4.07
3.33
2.36
1.26
0.17
-0.76
-1.51
-2.10
-2.63
-3.25
-4.05
-5.07
-6.29
-7.66
-9.11
-10.57
-12.02
-13.47
-14.96
-16.53
-18.16
-19.76
-21.11
-21.91
-21.84
-20.68
-18.42
-15.27
-11.56
-7.67
-3.91
-0.46
2.62
5.28
7.48
9.17
10.32
10.97
11.26
11.34
11.38
11.42
11.45
11.40
11.20
10.88
10.50
10.13
9.81
9.53
9.23
8.84
8.33
7.73
7.07
6.41
5.74
5.00
4.11
3.00
1.65
0.14
-1.43
-2.97
-4.44
-5.87
-7.39
-9.11
-11.13
-13.45
-15.98
-18.49
-20.66
-22.12
-22.55
-21.76
-19.74
-16.69
-12.93
-8.87
-4.84
-1.08
2.24
5.08
7.45
9.42
11.01
12.29
13.26
13.94
14.38
14.61
14.68
14.60
14.38
14.02
13.56
13.09
12.70
12.46
12.37
12.32
12.12
11.63
10.76
9.58
8.25
6.92
5.70
4.56
3.41
2.09
0.57
-1.10
-2.76
-4.25
-5.45
-6.42
-7.34
-8.46
-9.99
-12.04
-14.54
-17.24
-19.77
-21.69
-22.63
-22.36
-20.81
-18.15
-14.67
-10.73
-6.69
-2.86
0.59
3.53
5.95
7.87
9.37
10.54
11.43
12.08
12.48
12.61
12.53
12.29
12.00
11.73
11.52
11.42
11.42
11.50
11.61
11.68
11.61
11.28
10.68
9.81
8.80
7.76
6.77
5.84
4.93
3.97
2.91
1.72
0.40
-1.03
-2.54
-4.13
-5.81
-7.58
-9.47
-11.48
-13.60
-15.78
-17.97
-20.03
-21.78
-22.92
-23.18
-22.28
-20.11
-16.75
-12.49
-7.79
-3.12
1.14
4.74
7.58
9.68
11.10
11.94
12.34
12.46
12.45
12.43
12.47
12.54
12.57
12.45
12.15
11.72
11.27
10.93
10.77
10.74
10.73
10.60
10.26
9.69
8.96
8.13
7.28
6.40
5.46
4.41
3.19
1.79
0.23
-1.42
-3.11
-4.79
-6.46
-8.14
-9.90
-11.80
-13.87
-16.10
-18.39
-20.51
-22.10
-22.82
-22.41
-20.79
-18.11
-14.69
-10.90
-7.06
-3.38
-0.01
2.95
5.42
7.35
8.70
9.52
9.90
9.94
9.77
9.50
9.22
8.95
8.70
8.47
8.23
7.98
7.72
7.46
7.18
6.87
6.48
5.95
5.24
4.31
3.14
1.80
0.42
-0.90
-2.08
-3.16
-4.25
-5.50
-7.01
-8.80
-10.82
-13.02
-15.37
-17.82
-20.24
-22.36
-23.82
-24.22
-23.28
-20.98
-17.54
-13.38
-8.99
-4.79
-1.06
2.08
4.65
6.71
8.31
9.51
10.33
10.83
11.08
11.23
11.41
11.71
12.13
12.55
12.80
12.71
12.20
11.36
10.38
9.49
8.81
8.31
7.78
7.01
5.88
4.42
2.79
1.16
-0.38
-1.87
-3.40
-5.06
-6.89
-8.85
-10.90
-13.05
-15.35
-17.81
-20.28
-22.41
-23.73
-23.83
-22.52
-19.97
-16.57
-12.77
-8.89
-5.10
-1.42
2.11
5.33
8.01
9.99
11.26
11.97
12.41
12.77
13.13
13.44
13.60
13.58
13.43
13.24
13.09
12.96
12.78
12.44
11.87
11.07
10.14
9.20
8.38
7.72
7.17
6.59
5.83
4.77
3.36
1.64
-0.28
-2.30
-4.31
-6.22
-8.01
-9.71
-11.45
-13.41
-15.70
-18.25
-20.76
-22.69
-23.49
-22.76
-20.48
-16.96
-12.71
-8.24
-3.91
0.11
3.74
6.90
9.49
11.41
12.65
13.34
13.67
13.81
13.85
13.79
13.57
13.21
12.78
12.38
12.10
11.92
11.76
11.55
11.24
10.85
10.40
9.92
9.39
8.79
8.06
7.20
6.21
5.10
3.86
2.52
1.12
-0.25
-1.46
-2.38
-2.99
-3.36
-3.66
-4.13
-4.98
-6.35
-8.26
-10.54
-12.87
-14.84
-16.02
-16.06
-14.85
-12.50
-9.36
-5.89
-2.54
0.38
2.72
4.47
5.63
6.22
6.22
5.69
4.74
3.57
2.47
1.70
1.48
1.88
2.85
4.22
5.78
7.30
8.61
9.64
10.43
11.12
11.94
13.12
14.84
17.12
19.69
22.05
23.55
23.55
21.70
18.07
13.12
7.62
2.36
-2.07
-5.39
-7.64
-9.12
-10.28
-11.49
-12.95
-14.59
-16.10
-17.04
-17.03
-15.94
-13.93
-11.38
-8.67
-6.08
-3.72
-1.56
0.37
2.00
3.18
3.81
3.93
3.70
3.31
2.93
2.64
2.43
2.29
2.23
2.30
2.58
3.14
3.99
5.06
6.22
7.28
7.97
8.05
7.38
5.90
3.73
1.09
-1.74
-4.52
-7.06
-9.28
-11.20
-12.88
-14.42
-15.93
-17.51
-19.21
-21.08
-23.06
-24.95
-26.40
-26.99
-26.34
-24.31
-21.02
-16.85
-12.26
-7.71
-3.49
0.24
3.44
6.09
8.15
9.58
10.34
10.51
10.27
9.88
9.62
9.61
9.84
10.09
10.09
9.68
8.83
7.73
6.61
5.67
4.95
4.38
3.82
3.15
2.34
1.39
0.34
-0.78
-1.96
-3.18
-4.49
-5.91
-7.48
-9.21
-11.11
-13.17
-15.39
-17.68
-19.86
-21.62
-22.55
-22.24
-20.46
-17.29
-13.06
-8.34
-3.66
0.59
4.24
7.33
9.94
12.12
13.84
14.99
15.53
15.52
15.16
14.70
14.36
14.22
14.21
14.14
13.85
13.30
12.59
11.90
11.37
11.04
10.81
10.52
10.04
9.33
8.45
7.50
6.57
5.61
4.51
3.14
1.45
-0.48
-2.44
-4.21
-5.69
-6.96
-8.27
-9.90
-12.06
-14.75
-17.73
-20.60
-22.87
-24.15
-24.13
-22.73
-20.03
-16.30
-11.89
-7.22
-2.66
1.48
4.96
7.65
9.51
10.64
11.20
11.44
11.54
11.62
11.72
11.78
11.73
11.54
11.25
10.92
10.56
10.15
9.62
8.86
7.88
6.77
5.71
4.87
4.30
3.88
3.41
2.66
1.56
0.15
-1.43
-3.03
-4.58
-6.10
-7.65
-9.27
-10.98
-12.80
-14.77
-16.92
-19.21
-21.49
-23.41
-24.56
-24.51
-23.04
-20.15
-16.09
-11.29
-6.23
-1.32
3.18
7.14
10.52
13.29
15.42
16.83
17.52
17.54
17.06
16.28
15.38
14.48
13.58
12.66
11.72
10.80
9.96
9.28
8.74
8.29
7.85
7.33
6.69
5.98
5.24
4.55
3.94
3.36
2.72
1.90
0.82
-0.54
-2.12
-3.82
-5.54
-7.20
-8.79
-10.38
-12.10
-14.08
-16.40
-18.97
-21.54
-23.74
-25.10
-25.28
-24.13
-21.73
-18.36
-14.35
-10.06
-5.76
-1.69
1.96
4.99
7.31
8.88
9.82
10.30
10.53
10.65
10.76
10.85
10.92
10.95
10.98
11.03
11.13
11.30
11.49
11.68
11.80
11.81
11.68
11.40
10.96
10.38
9.62
8.67
7.54
6.24
4.80
3.26
1.67
0.02
-1.65
-3.32
-4.95
-6.53
-8.07
-9.65
-11.39
-13.38
-15.64
-17.99
-20.12
-21.65
-22.21
-21.58
-19.74
-16.84
-13.18
-9.08
-4.88
-0.84
2.82
6.00
8.62
10.63
12.02
12.78
12.99
12.80
12.43
12.10
11.96
12.04
12.22
12.36
12.36
12.21
11.97
11.71
11.43
11.03
10.40
9.50
8.40
7.25
6.22
5.37
4.65
3.95
3.14
2.18
1.07
-0.15
-1.46
-2.87
-4.40
-6.05
-7.77
-9.47
-11.10
-12.64
-14.22
-15.97
-17.98
-20.17
-22.26
-23.77
-24.23
-23.32
-20.97
-17.43
-13.14
-8.60
-4.25
-0.37
2.91
5.56
7.58
9.06
10.06
10.71
11.14
11.44
11.67
11.83
11.90
11.84
11.64
11.33
10.93
10.53
10.15
9.81
9.50
9.21
8.88
8.48
7.96
7.31
6.55
5.67
4.68
3.58
2.37
1.08
-0.23
-1.45
-2.54
-3.49
-4.37
-5.27
-6.30
-7.52
-8.97
-10.69
-12.73
-15.05
-17.53
-19.85
-21.56
-22.26
-21.68
-19.79
-16.83
-13.13
-9.03
-4.83
-0.75
3.00
6.23
8.76
10.55
11.63
12.18
12.37
12.42
12.43
12.46
12.49
12.48
12.34
12.02
11.51
10.87
10.22
9.69
9.39
9.29
9.28
9.15
8.73
7.97
6.95
5.86
4.91
4.19
3.63
3.05
2.21
1.00
-0.55
-2.25
-3.89
-5.33
-6.52
-7.56
-8.60
-9.77
-11.15
-12.83
-14.80
-16.93
-18.99
-20.56
-21.23
-20.67
-18.82
-15.87
-12.20
-8.23
-4.28
-0.53
2.91
5.95
8.48
10.40
11.66
12.32
12.54
12.50
12.34
12.12
11.83
11.43
10.91
10.29
9.64
9.09
8.70
8.54
8.58
8.73
8.83
8.74
8.34
7.63
6.74
5.82
5.01
4.37
3.86
3.31
2.59
1.58
0.26
-1.32
-3.05
-4.81
-6.51
-8.09
-9.55
-10.99
-12.51
-14.21
-16.12
-18.12
-19.95
-21.30
-21.88
-21.46
-20.00
-17.56
-14.32
-10.58
-6.67
-2.93
0.38
3.12
5.25
6.87
8.07
8.94
9.47
9.66
9.49
9.03
8.43
7.87
7.47
7.28
7.22
7.15
6.93
6.51
5.92
5.27
4.69
4.21
3.82
3.41
2.91
2.27
1.49
0.61
-0.38
-1.47
-2.67
-3.93
-5.15
-6.22
-7.11
-7.90
-8.80
-10.04
-11.74
-13.79
-15.88
-17.50
-18.21
-17.70
-15.96
-13.23
-9.89
-6.32
-2.79
0.59
3.78
6.74
9.39
11.62
13.32
14.43
14.98
15.10
14.96
14.72
14.49
14.28
14.04
13.66
13.08
12.26
11.30
10.30
9.40
8.61
7.88
7.06
6.03
4.73
3.20
1.55
-0.12
-1.75
-3.33
-4.89
-6.46
-8.05
-9.68
-11.36
-13.12
-15.03
-17.13
-19.43
-21.89
-24.30
-26.37
-27.67
-27.81
-26.56
-23.90
-20.13
-15.69
-11.10
-6.75
-2.85
0.52
3.40
5.82
7.85
9.53
10.94
12.13
13.12
13.85
14.22
14.16
13.68
12.91
12.02
11.20
10.54
10.05
9.64
9.23
8.74
8.11
7.29
6.23
4.89
3.22
1.26
-0.94
-3.29
-5.68
-8.00
-10.14
-12.05
-13.67
-14.99
-16.00
-16.74
-17.30
-17.86
-18.64
-19.78
-21.25
-22.71
-23.63
-23.45
-21.83
-18.81
-14.80
-10.42
-6.17
-2.30
1.26
4.75
8.39
12.25
16.17
19.80
22.77
24.76
25.65
25.53
24.76
23.81
23.14
23.06
23.62
24.63
25.77
26.71
27.23
27.23
26.70
25.73
24.41
22.88
21.21
19.34
16.99
13.70
8.92
2.32
-5.99
-15.39
-24.83
-33.18
-39.56
-43.57
-45.29
-45.14
-43.64
-41.24
-38.31
-35.11
-31.85
-28.64
-25.54
-22.50
-19.44
-16.26
-12.92
-9.44
-5.86
-2.28
1.20
4.46
7.34
9.71
11.48
12.65
13.24
13.38
13.18
12.74
12.15
11.49
10.82
10.22
9.75
9.45
9.31
9.26
9.22
9.05
8.68
8.05
7.18
6.11
4.86
3.49
2.05
0.60
-0.80
-2.08
-3.26
-4.40
-5.70
-7.37
-9.60
-12.44
-15.71
-19.02
-21.82
-23.55
-23.81
-22.47
-19.70
-15.92
-11.68
-7.49
-3.73
-0.54
2.09
4.35
6.44
8.54
10.73
12.98
15.16
17.13
18.77
19.99
20.75
21.05
20.95
20.58
20.06
19.53
19.02
18.51
17.94
17.23
16.34
15.28
13.98
12.38
10.36
7.87
4.99
1.89
-1.15
-3.93
-6.37
-8.54
-10.61
-12.77
-15.14
-17.83
-20.81
-23.96
-26.97
-29.37
-30.66
-30.42
-28.52
-25.09
-20.56
-15.47
-10.34
-5.57
-1.38
2.14
5.02
7.36
9.28
10.90
12.25
13.36
14.17
14.59
14.49
13.73
12.21
9.96
7.20
4.38
2.00
0.47
-0.07
0.21
0.93
1.72
2.33
2.74
3.13
3.76
4.85
6.56
8.92
11.82
15.01
18.08
20.49
21.64
21.03
18.34
13.59
7.07
-0.67
-8.91
-16.85
-23.69
-28.68
-31.21
-31.02
-28.21
-23.40
-17.46
-11.37
-5.83
-1.10
2.96
6.70
10.40
14.08
17.55
20.55
22.91
24.65
25.86
26.61
26.83
26.36
25.05
22.89
20.06
16.88
13.68
10.69
8.01
5.65
3.58
1.81
0.36
-0.72
-1.44
-1.81
-1.92
-1.84
-1.67
-1.54
-1.57
-1.89
-2.60
-3.69
-5.07
-6.63
-8.32
-10.21
-12.42
-15.01
-17.86
-20.58
-22.67
-23.68
-23.43
-22.06
-19.93
-17.42
-14.78
-12.09
-9.31
-6.45
-3.60
-0.94
1.30
2.99
4.10
4.69
4.90
4.89
4.77
4.64
4.56
4.56
4.61
4.68
4.71
4.63
4.39
3.99
3.45
2.83
2.17
1.48
0.71
-0.17
-1.16
-2.25
-3.39
-4.54
-5.73
-7.02
-8.48
-10.16
-12.03
-14.00
-15.86
-17.37
-18.20
-18.05
-16.70
-14.10
-10.39
-5.89
-0.98
3.97
8.68
12.98
16.73
19.81
22.11
23.52
23.95
23.38
21.84
19.50
16.60
13.50
10.59
8.22
6.61
5.79
5.65
5.97
6.51
7.06
7.42
7.48
7.14
6.39
5.29
3.97
2.63
1.49
0.77
0.60
0.99
1.77
2.67
3.27
3.23
2.33
0.56
-1.85
-4.60
-7.35
-9.94
-12.28
-14.34
-16.07
-17.34
-17.99
-17.93
-17.23
-16.05
-14.57
-12.90
-11.04
-8.87
-6.32
-3.48
-0.59
1.98
3.90
4.99
5.28
4.96
4.31
3.62
3.10
2.93
3.17
3.83
4.81
6.00
7.22
8.32
9.17
9.68
9.79
9.50
8.87
8.02
7.09
6.23
5.46
4.72
3.86
2.76
1.41
-0.08
-1.54
-2.83
-3.95
-5.01
-6.21
-7.70
-9.59
-11.86
-14.39
-16.92
-19.08
-20.43
-20.57
-19.30
-16.67
-13.02
-8.86
-4.69
-0.84
2.53
5.41
7.83
9.82
11.33
12.34
12.92
13.16
13.17
13.05
12.85
12.55
12.15
11.66
11.13
10.62
10.16
9.73
9.28
8.73
8.00
7.10
6.09
5.08
4.20
3.48
2.86
2.19
1.31
0.13
-1.34
-2.95
-4.54
-5.95
-7.16
-8.24
-9.32
-10.53
-11.97
-13.67
-15.58
-17.60
-19.55
-21.13
-22.04
-21.95
-20.63
-18.08
-14.50
-10.25
-5.79
-1.52
2.28
5.46
7.97
9.81
11.01
11.64
11.79
11.58
11.17
10.69
10.27
10.02
9.97
10.06
10.15
10.07
9.69
9.04
8.26
7.54
7.03
6.68
6.32
5.72
4.72
3.31
1.64
-0.07
-1.62
-2.96
-4.13
-5.31
-6.66
-8.35
-10.42
-12.83
-15.44
-18.06
-20.41
-22.22
-23.18
-23.00
-21.54
-18.81
-15.05
-10.68
-6.16
-1.90
1.84
4.94
7.40
9.25
10.49
11.16
11.30
11.05
10.61
10.18
9.88
9.71
9.58
9.36
8.99
8.46
7.87
7.34
6.97
6.75
6.63
6.43
6.01
5.23
4.07
2.59
0.92
-0.82
-2.54
-4.19
-5.77
-7.25
-8.64
-9.97
-11.35
-12.91
-14.80
-17.06
-19.50
-21.75
-23.28
-23.57
-22.33
-19.57
-15.62
-11.01
-6.28
-1.85
2.06
5.41
8.19
10.37
11.90
12.77
13.05
12.93
12.63
12.33
12.11
11.92
11.71
11.42
11.06
10.65
10.23
9.81
9.37
8.88
8.31
7.62
6.80
5.83
4.74
3.56
2.34
1.12
-0.10
-1.31
-2.52
-3.72
-4.90
-6.11
-7.44
-9.04
-11.06
-13.53
-16.31
-19.08
-21.36
-22.66
-22.61
-21.05
-18.08
-14.02
-9.36
-4.62
-0.26
3.42
6.34
8.53
10.17
11.43
12.41
13.13
13.53
13.58
13.29
12.74
12.12
11.57
11.18
10.94
10.76
10.53
10.19
9.71
9.12
8.44
7.70
6.86
5.90
4.79
3.55
2.22
0.85
-0.52
-1.86
-3.19
-4.52
-5.86
-7.22
-8.57
-9.96
-11.43
-13.09
-15.06
-17.32
-19.70
-21.85
-23.31
-23.65
-22.63
-20.26
-16.82
-12.73
-8.46
-4.39
-0.73
2.43
5.10
7.32
9.08
10.36
11.13
11.42
11.31
10.93
10.46
10.01
9.64
9.36
9.11
8.85
8.53
8.14
7.64
7.02
6.28
5.45
4.57
3.67
2.75
1.80
0.79
-0.32
-1.53
-2.81
-4.13
-5.46
-6.82
-8.25
-9.82
-11.57
-13.52
-15.60
-17.65
-19.39
-20.46
-20.52
-19.39
-17.07
-13.80
-9.96
-5.93
-2.01
1.64
4.95
7.88
10.35
12.25
13.50
14.09
14.14
13.83
13.37
12.87
12.38
11.87
11.30
10.69
10.09
9.57
9.18
8.87
8.55
8.12
7.51
6.73
5.82
4.81
3.71
2.51
1.16
-0.34
-1.92
-3.50
-4.98
-6.35
-7.68
-9.09
-10.72
-12.66
-14.93
-17.43
-19.96
-22.22
-23.84
-24.45
-23.79
-21.80
-18.65
-14.69
-10.33
-5.96
-1.83
1.93
5.25
8.10
10.46
12.32
13.70
14.65
15.22
15.47
15.45
15.21
14.88
14.53
14.22
13.97
13.75
13.51
13.22
12.86
12.43
11.93
11.34
10.65
9.85
8.97
8.05
7.14
6.26
5.37
4.38
3.17
1.68
-0.09
-1.99
-3.86
-5.53
-6.93
-8.10
-9.20
-10.44
-12.01
-14.02
-16.47
-19.13
-21.62
-23.44
-24.10
-23.30
-21.00
-17.46
-13.13
-8.50
-3.99
0.10
3.62
6.51
8.74
10.34
11.34
11.84
11.98
11.90
11.74
11.57
11.42
11.28
11.12
10.93
10.72
10.53
10.41
10.35
10.31
10.19
9.85
9.21
8.28
7.19
6.12
5.22
4.51
3.89
3.14
2.10
0.68
-1.02
-2.81
-4.54
-6.12
-7.59
-9.06
-10.66
-12.52
-14.69
-17.14
-19.74
-22.23
-24.25
-25.42
-25.37
-23.91
-21.06
-17.11
-12.52
-7.84
-3.54
0.07
2.92
5.11
6.83
8.24
9.42
10.38
11.12
11.67
12.09
12.46
12.80
13.06
13.15
12.99
12.59
12.04
11.50
11.12
10.97
11.01
11.08
11.00
10.60
9.86
8.84
7.71
6.61
5.58
4.54
3.37
1.96
0.31
-1.48
-3.31
-5.08
-6.79
-8.50
-10.22
-12.00
-13.87
-15.87
-18.04
-20.29
-22.35
-23.78
-24.10
-22.99
-20.46
-16.82
-12.63
-8.41
-4.47
-0.90
2.36
5.39
8.10
10.36
12.01
13.00
13.49
13.70
13.88
14.12
14.38
14.50
14.38
14.01
13.51
13.06
12.78
12.71
12.76
12.74
12.48
11.85
10.90
9.76
8.62
7.60
6.72
5.85
4.84
3.56
1.97
0.14
-1.79
-3.70
-5.49
-7.11
-8.54
-9.85
-11.18
-12.73
-14.71
-17.21
-20.11
-23.00
-25.34
-26.57
-26.30
-24.48
-21.34
-17.33
-12.92
-8.49
-4.24
-0.32
3.20
6.21
8.62
10.44
11.70
12.55
13.12
13.50
13.71
13.77
13.67
13.46
13.23
13.05
12.91
12.78
12.58
12.26
11.80
11.23
10.62
10.01
9.38
8.68
7.85
6.87
5.76
4.61
3.46
2.31
1.09
-0.29
-1.88
-3.64
-5.41
-7.03
-8.38
-9.47
-10.44
-11.52
-12.95
-14.89
-17.33
-20.10
-22.81
-25.01
-26.22
-26.10
-24.54
-21.66
-17.77
-13.23
-8.39
-3.57
0.95
4.91
8.10
10.37
11.74
12.36
12.50
12.44
12.42
12.53
12.82
13.22
13.63
13.92
13.99
13.78
13.31
12.71
12.10
11.57
11.14
10.71
10.16
9.40
8.39
7.22
5.99
4.80
3.65
2.50
1.25
-0.16
-1.74
-3.43
-5.14
-6.79
-8.36
-9.91
-11.57
-13.47
-15.72
-18.32
-21.13
-23.91
-26.29
-27.87
-28.32
-27.43
-25.20
-21.80
-17.61
-13.02
-8.45
-4.21
-0.49
2.62
5.09
6.94
8.17
8.84
9.00
8.73
8.13
7.26
6.18
4.91
3.46
1.84
0.11
-1.56
-2.88
-3.45
-2.89
-1.06
1.86
5.35
8.68
11.14
12.31
12.14
10.87
8.87
6.53
4.08
1.68
-0.61
-2.77
-4.78
-6.63
-8.33
-9.90
-11.36
-12.74
-14.07
-15.43
-16.86
-18.41
-20.07
-21.79
-23.49
-25.00
-26.14
-26.70
-26.47
-25.25
-22.94
-19.49
-14.91
-9.24
-2.63
4.65
12.19
19.47
25.98
31.32
35.32
38.02
39.56
40.07
39.62
38.20
35.76
32.38
28.27
23.80
19.43
15.63
12.79
11.14
10.74
11.45
12.98
14.93
16.82
18.25
18.90
18.67
17.57
15.77
13.46
10.81
7.95
4.97
1.98
-0.87
-3.42
-5.54
-7.24
-8.61
-9.84
-11.09
-12.51
-14.19
-16.21
-18.59
-21.29
-24.10
-26.68
-28.54
-29.24
-28.52
-26.38
-23.12
-19.19
-15.02
-10.92
-7.04
-3.44
-0.18
2.56
4.60
5.77
6.06
5.66
4.88
4.06
3.41
3.04
2.97
3.18
3.64
4.34
5.22
6.21
7.25
8.34
9.56
11.01
12.70
14.47
16.05
17.16
17.59
17.38
16.70
15.77
14.74
13.63
12.32
10.71
8.76
6.54
4.17
1.78
-0.57
-2.81
-4.92
-6.89
-8.76
-10.65
-12.74
-15.11
-17.68
-20.10
-21.86
-22.48
-21.65
-19.40
-16.05
-12.10
-8.05
-4.30
-1.07
1.57
3.62
5.15
6.23
6.95
7.41
7.68
7.85
7.99
8.10
8.14
8.01
7.62
6.94
6.11
5.35
4.95
5.14
5.98
7.38
9.07
10.62
11.57
11.51
10.20
7.70
4.39
0.95
-1.91
-3.69
-4.24
-3.82
-2.89
-1.96
-1.31
-1.06
-1.20
-1.71
-2.67
-4.18
-6.30
-8.97
-12.03
-15.21
-18.24
-20.82
-22.70
-23.65
-23.49
-22.15
-19.72
-16.40
-12.49
-8.32
-4.16
-0.28
3.14
5.97
8.15
9.69
10.66
11.14
11.23
11.00
10.55
9.98
9.42
8.93
8.57
8.34
8.18
8.10
8.07
8.07
8.06
7.96
7.70
7.29
6.80
6.33
5.93
5.56
5.10
4.43
3.47
2.31
1.05
-0.19
-1.40
-2.64
-3.96
-5.37
-6.82
-8.28
-9.75
-11.31
-13.03
-14.86
-16.56
-17.76
-18.10
-17.34
-15.50
-12.78
-9.50
-5.96
-2.40
1.00
4.12
6.79
8.90
10.35
11.14
11.37
11.22
10.89
10.52
10.22
10.01
9.85
9.67
9.43
9.05
8.55
7.93
7.27
6.65
6.18
5.89
5.69
5.43
4.91
4.02
2.79
1.37
-0.05
-1.35
-2.53
-3.67
-4.86
-6.09
-7.29
-8.40
-9.51
-10.85
-12.71
-15.24
-18.28
-21.26
-23.46
-24.23
-23.24
-20.64
-16.92
-12.73
-8.60
-4.88
-1.63
1.18
3.61
5.67
7.35
8.64
9.53
10.10
10.39
10.47
10.39
10.20
9.94
9.67
9.43
9.24
9.08
8.89
8.65
8.34
7.97
7.58
7.16
6.70
6.12
5.37
4.44
3.36
2.22
1.08
-0.01
-1.07
-2.14
-3.27
-4.50
-5.85
-7.36
-9.12
-11.19
-13.51
-15.87
-17.88
-19.08
-19.13
-17.94
-15.70
-12.76
-9.53
-6.28
-3.19
-0.37
2.08
4.00
5.25
5.80
5.70
5.12
4.26
3.26
2.21
1.20
0.33
-0.23
-0.26
0.41
1.85
3.93
6.39
8.79
10.72
11.87
12.12
11.59
10.55
9.33
8.17
7.22
6.45
5.75
4.97
3.99
2.79
1.45
0.10
-1.07
-1.94
-2.46
-2.72
-2.98
-3.63
-5.09
-7.58
-11.04
-15.00
-18.72
-21.43
-22.58
-22.03
-20.11
-17.37
-14.35
-11.38
-8.57
-5.85
-3.17
-0.53
1.97
4.23
6.18
7.81
9.12
10.13
10.84
11.25
11.38
11.33
11.19
11.04
10.93
10.84
10.75
10.63
10.43
10.08
9.49
8.61
7.43
6.06
4.62
3.23
1.94
0.69
-0.62
-2.08
-3.70
-5.42
-7.19
-9.01
-10.93
-13.01
-15.23
-17.49
-19.56
-21.17
-22.07
-22.07
-21.09
-19.14
-16.33
-12.89
-9.10
-5.25
-1.59
1.69
4.52
6.89
8.81
10.33
11.42
12.10
12.35
12.24
11.88
11.47
11.16
11.07
11.15
11.27
11.26
11.02
10.56
9.97
9.36
8.80
8.24
7.61
6.84
5.89
4.81
3.64
2.39
1.07
-0.34
-1.81
-3.31
-4.80
-6.33
-7.97
-9.85
-12.05
-14.54
-17.13
-19.50
-21.26
-22.03
-21.57
-19.81
-16.91
-13.22
-9.19
-5.30
-1.89
0.86
3.02
4.76
6.32
7.84
9.31
10.63
11.62
12.18
12.28
12.04
11.60
11.12
10.70
10.35
10.03
9.70
9.31
8.87
8.39
7.88
7.32
6.65
5.77
4.62
3.21
1.61
-0.02
-1.54
-2.87
-4.01
-5.07
-6.16
-7.41
-8.88
-10.60
-12.54
-14.66
-16.85
-18.92
-20.59
-21.52
-21.40
-20.09
-17.66
-14.36
-10.55
-6.58
-2.69
0.97
4.28
7.15
9.48
11.22
12.40
13.10
13.45
13.54
13.44
13.18
12.82
12.43
12.11
11.88
11.71
11.53
11.24
10.84
10.36
9.91
9.51
9.13
8.66
7.99
7.04
5.81
4.37
2.82
1.24
-0.34
-1.92
-3.49
-5.04
-6.52
-7.90
-9.20
-10.54
-12.08
-13.99
-16.30
-18.79
-21.03
-22.49
-22.68
-21.39
-18.72
-15.06
-10.91
-6.69
-2.71
0.88
4.01
6.62
8.65
10.09
10.98
11.48
11.74
11.91
12.04
12.09
11.98
11.69
11.21
10.66
10.15
9.79
9.65
9.68
9.76
9.73
9.47
8.91
8.12
7.20
6.27
5.38
4.45
3.35
1.99
0.37
-1.39
-3.13
-4.74
-6.22
-7.67
-9.24
-11.04
-13.09
-15.31
-17.52
-19.52
-21.05
-21.86
-21.72
-20.51
-18.26
-15.12
-11.36
-7.34
-3.35
0.36
3.65
6.49
8.86
10.77
12.20
13.16
13.67
13.82
13.74
13.59
13.45
13.35
13.25
13.08
12.83
12.57
12.37
12.28
12.22
12.06
11.65
10.91
9.91
8.79
7.75
6.90
6.22
5.56
4.74
3.60
2.14
0.47
-1.24
-2.82
-4.20
-5.40
-6.52
-7.69
-9.05
-10.70
-12.72
-15.15
-17.87
-20.60
-22.91
-24.29
-24.32
-22.86
-20.06
-16.33
-12.21
-8.16
-4.48
-1.27
1.50
3.91
6.01
7.81
9.28
10.35
11.01
11.29
11.30
11.17
11.06
11.03
11.09
11.17
11.16
11.03
10.77
10.45
10.17
9.98
9.85
9.66
9.24
8.48
7.39
6.10
4.81
3.67
2.68
1.75
0.72
-0.54
-2.01
-3.60
-5.12
-6.45
-7.56
-8.51
-9.43
-10.46
-11.74
-13.38
-15.43
-17.82
-20.32
-22.51
-23.91
-24.08
-22.78
-20.11
-16.42
-12.22
-7.96
-3.93
-0.29
2.91
5.58
7.63
9.02
9.81
10.20
10.44
10.71
11.08
11.48
11.80
11.96
11.95
11.88
11.81
11.85
11.97
12.11
12.16
12.05
11.76
11.38
11.06
10.90
10.91
10.97
10.91
10.54
9.78
8.66
7.32
5.93
4.70
3.81
3.40
3.48
3.93
4.43
4.58
3.91
2.11
-0.91
-4.99
-9.74
-14.72
-19.52
-23.94
-28.01
-31.86
-35.60
-39.15
-42.22
-44.37
-45.24
-44.75
-43.12
-40.86
-38.52
-36.53
-35.09
-34.18
-33.48
-32.39
-30.20
-26.30
-20.58
-13.56
-6.29
0.19
5.36
9.49
13.39
17.67
22.22
26.05
27.81
26.64
22.81
17.69
13.11
10.52
10.33
11.99
14.48
16.91
18.88
20.43
21.73
22.75
23.22
22.71
20.95
18.05
14.54
11.18
8.65
7.33
7.16
7.69
8.35
8.59
8.14
7.02
5.52
4.05
3.07
2.90
3.72
5.49
8.02
11.03
14.25
17.47
20.59
23.54
26.26
28.71
30.90
32.88
34.72
36.45
37.94
38.88
38.93
37.85
35.67
32.68
29.27
25.72
22.10
18.24
14.00
9.41
4.68
0.18
-3.76
-6.99
-9.60
-11.81
-13.93
-16.22
-18.82
-21.79
-25.04
-28.44
-31.78
-34.76
-37.14
-38.75
-39.52
-39.48
-38.81
-37.71
-36.42
-35.13
-33.99
-33.10
-32.55
-32.45
-32.88
-33.85
-35.19
-36.58
-37.57
-37.65
-36.43
-33.71
-29.53
-24.23
-18.24
-12.10
-6.22
-0.87
3.83
7.88
11.30
14.13
16.34
17.94
18.96
19.46
19.57
19.44
19.21
18.98
18.79
18.52
18.02
17.07
15.55
13.48
10.98
8.24
5.42
2.57
-0.31
-3.22
-6.05
-8.66
-10.92
-12.81
-14.33
-15.43
-15.88
-15.33
-13.50
-10.42
-6.54
-2.67
0.33
1.88
1.93
0.87
-0.77
-2.52
-4.22
-5.89
-7.51
-8.98
-10.06
-10.58
-10.52
-10.11
-9.56
-8.89
-7.78
-5.74
-2.50
1.69
6.16
9.97
12.32
12.93
12.08
10.45
8.72
7.21
5.84
4.48
3.05
1.54
-0.03
-1.70
-3.39
-4.95
-6.29
-7.42
-8.19
-8.52
-8.53
-8.46
-8.49
-8.43
-7.84
-6.35
-3.95
-0.42
4.41
10.74
18.79
28.64
40.30
53.41
67.11
77.16
79.84
73.62
60.18
42.99
25.13
8.95
-3.61
-10.88
-11.88
-6.81
2.19
11.39
17.64
18.60
14.17
6.29
-2.26
-9.27
-13.56
-15.19
-14.74
-12.78
-9.64
-5.25
0.37
6.23
11.04
13.71
13.80
11.77
8.75
6.03
4.64
4.91
6.31
7.74
8.09
6.75
3.84
0.10
-3.54
-6.31
-8.00
-9.01
-10.03
-11.62
-13.87
-16.38
-18.51
-19.80
-20.11
-19.68
-18.90
-18.00
-16.87
-15.14
-12.36
-8.25
-2.95
3.08
9.27
15.17
20.60
25.56
30.04
33.91
36.89
38.78
39.62
39.79
39.87
40.29
41.14
42.13
42.83
43.04
42.87
42.75
43.07
43.96
45.10
45.87
45.45
43.05
38.03
29.92
18.46
3.76
-13.58
-32.40
-51.08
-67.88
-81.45
-91.01
-96.52
-98.38
-97.14
-93.26
-87.06
-78.96
-69.65
-60.19
-51.86
-45.66
-41.98
-40.34
-39.61
-38.49
-36.06
-32.08
-27.00
-21.62
-16.65
-12.43
-8.86
-5.64
-2.53
0.38
2.77
4.23
4.58
3.95
2.83
1.81
1.31
1.50
2.22
3.21
4.23
5.22
6.34
7.75
9.58
11.76
14.08
16.28
18.13
19.51
20.38
20.79
20.82
20.61
20.33
20.20
20.38
20.92
21.76
22.78
23.81
24.78
25.68
26.58
27.52
28.46
29.31
29.93
30.21
30.10
29.59
28.67
27.29
25.35
22.81
19.74
16.36
12.97
9.88
7.30
5.24
3.57
2.12
0.68
-0.87
-2.56
-4.40
-6.32
-8.22
-9.96
-11.36
-12.31
-12.80
-12.98
-13.14
-13.55
-14.36
-15.56
-16.97
-18.35
-19.53
-20.43
-21.09
-21.60
-22.08
-22.62
-23.31
-24.22
-25.30
-26.43
-27.33
-27.69
-27.21
-25.73
-23.28
-20.01
-16.19
-12.12
-8.12
-4.46
-1.32
1.18
3.06
4.40
5.34
5.95
6.27
6.29
6.06
5.64
5.18
4.83
4.66
4.66
4.72
4.72
4.58
4.32
3.99
3.66
3.36
3.04
2.61
1.96
1.04
-0.12
-1.42
-2.70
-3.84
-4.86
-5.81
-6.85
-8.08
-9.58
-11.35
-13.33
-15.43
-17.51
-19.37
-20.74
-21.33
-20.86
-19.22
-16.47
-12.89
-8.89
-4.89
-1.22
1.95
4.62
6.84
8.69
10.19
11.24
11.75
11.63
10.97
9.98
8.92
8.04
7.43
7.05
6.75
6.37
5.81
5.08
4.23
3.36
2.52
1.72
0.99
0.28
-0.45
-1.28
-2.28
-3.50
-4.91
-6.42
-7.92
-9.30
-10.51
-11.58
-12.66
-13.91
-15.48
-17.38
-19.38
-21.06
-21.91
-21.50
-19.68
-16.57
-12.59
-8.23
-3.91
0.12
3.74
6.90
9.57
11.68
13.19
14.09
14.42
14.30
13.86
13.23
12.52
11.81
11.13
10.50
9.91
9.35
8.77
8.15
7.45
6.67
5.83
4.93
3.98
2.96
1.84
0.61
-0.70
-1.99
-3.17
-4.22
-5.21
-6.30
-7.62
-9.22
-11.07
-13.07
-15.16
-17.32
-19.48
-21.44
-22.82
-23.14
-21.99
-19.24
-15.15
-10.25
-5.20
-0.52
3.53
6.89
9.66
11.90
13.63
14.84
15.51
15.66
15.44
15.01
14.51
14.00
13.47
12.85
12.04
11.07
10.03
9.09
8.37
7.93
7.64
7.31
6.70
5.67
4.21
2.39
0.40
-1.62
-3.54
-5.32
-6.94
-8.43
-9.87
-11.35
-13.02
-15.01
-17.32
-19.78
-22.05
-23.64
-24.09
-23.09
-20.60
-16.85
-12.26
-7.32
-2.49
1.88
5.59
8.57
10.83
12.48
13.63
14.40
14.82
14.93
14.68
14.07
13.15
12.02
10.87
9.85
9.07
8.55
8.19
7.84
7.35
6.58
5.46
3.99
2.20
0.18
-1.92
-4.01
-5.96
-7.74
-9.41
-11.09
-12.95
-15.15
-17.72
-20.48
-23.07
-24.96
-25.62
-24.66
-21.99
-17.84
-12.69
-7.18
-1.91
2.64
6.24
8.89
10.77
12.13
13.20
14.05
14.65
14.91
14.75
14.27
13.64
13.10
12.77
12.65
12.59
12.45
12.11
11.54
10.77
9.83
8.75
7.55
6.26
4.93
3.60
2.27
0.87
-0.73
-2.63
-4.91
-7.49
-10.19
-12.66
-14.47
-15.21
-14.53
-12.33
-8.79
-4.34
0.40
4.83
8.54
11.38
13.46
15.00
16.20
17.14
17.73
17.85
17.43
16.52
15.30
13.99
12.76
11.71
10.82
10.08
9.49
9.02
8.60
8.09
7.30
6.12
4.53
2.63
0.64
-1.26
-2.95
-4.44
-5.85
-7.37
-9.21
-11.43
-13.97
-16.57
-18.77
-20.06
-19.98
-18.29
-15.06
-10.68
-5.72
-0.82
3.55
7.11
9.83
11.78
13.05
13.70
13.76
13.32
12.55
11.65
10.79
10.02
9.30
8.54
7.71
6.83
5.99
5.22
4.46
3.63
2.64
1.50
0.27
-0.98
-2.24
-3.54
-4.94
-6.44
-8.00
-9.57
-11.17
-12.87
-14.76
-16.82
-18.81
-20.27
-20.71
-19.70
-17.16
-13.31
-8.64
-3.73
0.91
4.96
8.29
10.91
12.84
14.11
14.75
14.82
14.41
13.68
12.78
11.83
10.91
10.04
9.20
8.41
7.66
7.01
6.44
5.90
5.27
4.43
3.28
1.80
0.08
-1.71
-3.42
-4.93
-6.26
-7.55
-9.00
-10.81
-13.11
-15.89
-18.90
-21.71
-23.71
-24.31
-23.11
-20.05
-15.49
-10.08
-4.59
0.36
4.45
7.63
10.06
11.96
13.44
14.51
15.16
15.38
15.25
14.88
14.39
13.85
13.31
12.76
12.21
11.64
11.06
10.47
9.88
9.26
8.54
7.63
6.44
4.91
3.07
1.07
-0.88
-2.61
-4.04
-5.24
-6.39
-7.75
-9.46
-11.61
-14.15
-16.94
-19.76
-22.25
-23.93
-24.30
-23.00
-19.97
-15.51
-10.26
-4.93
-0.12
3.87
7.04
9.54
11.55
13.19
14.45
15.29
15.68
15.66
15.32
14.77
14.13
13.50
12.93
12.45
12.02
11.59
11.13
10.64
10.13
9.62
9.06
8.39
7.54
6.47
5.23
3.91
2.57
1.28
0.00
-1.31
-2.70
-4.18
-5.77
-7.44
-9.20
-11.10
-13.17
-15.45
-17.86
-20.18
-22.08
-23.10
-22.84
-21.10
-17.95
-13.72
-8.94
-4.12
0.36
4.31
7.70
10.52
12.78
14.47
15.59
16.18
16.38
16.31
16.11
15.83
15.48
15.09
14.70
14.41
14.28
14.29
14.30
14.09
13.49
12.43
11.03
9.50
8.10
6.98
6.11
5.38
4.56
3.50
2.12
0.45
-1.42
-3.38
-5.35
-7.32
-9.31
-11.34
-13.42
-15.60
-17.93
-20.48
-23.18
-25.77
-27.76
-28.58
-27.75
-25.15
-21.04
-16.01
-10.75
-5.82
-1.57
1.92
4.67
6.76
8.22
9.10
9.45
9.36
8.95
8.34
7.62
6.86
6.12
5.46
4.92
4.50
4.19
3.96
3.76
3.57
3.38
3.15
2.84
2.40
1.76
0.88
-0.25
-1.59
-3.05
-4.53
-5.92
-7.21
-8.44
-9.73
-11.18
-12.86
-14.78
-16.87
-19.03
-21.08
-22.75
-23.67
-23.44
-21.75
-18.57
-14.15
-9.02
-3.82
0.91
4.87
7.99
10.37
12.12
13.38
14.21
14.64
14.74
14.58
14.24
13.83
13.38
12.92
12.42
11.80
11.01
10.05
8.97
7.86
6.83
5.92
5.14
4.44
3.74
2.91
1.84
0.45
-1.27
-3.19
-5.13
-6.88
-8.37
-9.68
-11.02
-12.68
-14.81
-17.41
-20.27
-23.00
-25.11
-26.10
-25.57
-23.32
-19.51
-14.58
-9.20
-4.03
0.49
4.26
7.44
10.20
12.61
14.53
15.74
16.09
15.68
14.78
13.78
12.96
12.45
12.21
12.10
11.97
11.73
11.37
10.89
10.32
9.71
9.07
8.39
7.61
6.66
5.48
4.05
2.42
0.67
-1.11
-2.86
-4.55
-6.20
-7.84
-9.48
-11.17
-12.98
-15.03
-17.42
-20.13
-22.91
-25.23
-26.40
-25.83
-23.24
-18.82
-13.20
-7.19
-1.55
3.25
7.05
9.96
12.10
13.59
14.51
14.94
15.00
14.85
14.65
14.49
14.35
14.19
13.93
13.55
13.06
12.49
11.89
11.25
10.53
9.72
8.79
7.80
6.77
5.75
4.72
3.62
2.36
0.87
-0.87
-2.78
-4.73
-6.58
-8.26
-9.79
-11.27
-12.84
-14.62
-16.71
-19.12
-21.73
-24.24
-26.17
-26.94
-26.05
-23.31
-18.97
-13.64
-8.07
-2.91
1.50
5.12
8.06
10.41
12.14
13.16
13.43
13.07
12.37
11.66
11.15
10.87
10.69
10.41
9.93
9.24
8.49
7.85
7.44
7.23
7.06
6.68
5.84
4.43
2.54
0.40
-1.69
-3.49
-4.91
-6.03
-7.01
-8.08
-9.43
-11.21
-13.52
-16.32
-19.39
-22.28
-24.40
-25.14
-24.14
-21.38
-17.21
-12.26
-7.13
-2.30
1.97
5.63
8.70
11.19
13.06
14.24
14.73
14.68
14.31
13.90
13.65
13.61
13.68
13.71
13.57
13.21
12.67
12.03
11.33
10.58
9.77
8.85
7.82
6.67
5.37
3.90
2.25
0.50
-1.24
-2.88
-4.36
-5.72
-7.10
-8.68
-10.59
-12.93
-15.66
-18.59
-21.34
-23.40
-24.22
-23.39
-20.77
-16.57
-11.30
-5.64
-0.24
4.44
8.18
11.00
13.02
14.40
15.27
15.70
15.74
15.48
15.08
14.70
14.48
14.42
14.40
14.26
13.88
13.23
12.43
11.62
10.93
10.39
9.92
9.40
8.69
7.67
6.29
4.54
2.53
0.40
-1.62
-3.36
-4.79
-5.98
-7.15
-8.50
-10.23
-12.39
-14.93
-17.69
-20.37
-22.59
-23.87
-23.77
-22.01
-18.62
-13.98
-8.75
-3.61
0.94
4.72
7.78
10.29
12.35
13.93
14.92
15.26
14.98
14.26
13.33
12.42
11.68
11.17
10.84
10.62
10.39
10.07
9.61
9.02
8.39
7.77
7.16
6.48
5.62
4.45
2.94
1.18
-0.72
-2.61
-4.43
-6.17
-7.87
-9.62
-11.46
-13.49
-15.74
-18.23
-20.85
-23.37
-25.33
-26.24
-25.66
-23.39
-19.59
-14.70
-9.35
-4.11
0.56
4.49
7.64
10.05
11.77
12.79
13.15
12.95
12.43
11.88
11.51
11.41
11.46
11.45
11.13
10.44
9.45
8.38
7.48
6.86
6.45
6.05
5.42
4.38
2.89
1.07
-0.95
-3.01
-5.04
-7.02
-9.00
-11.06
-13.29
-15.78
-18.57
-21.56
-24.47
-26.80
-27.94
-27.39
-24.94
-20.85
-15.68
-10.17
-4.94
-0.33
3.58
6.87
9.63
11.90
13.68
14.94
15.74
16.20
16.43
16.51
16.46
16.24
15.84
15.24
14.48
13.59
12.61
11.61
10.66
9.84
9.15
8.52
7.79
6.81
5.46
3.77
1.89
0.04
-1.57
-2.87
-3.93
-5.00
-6.38
-8.34
-11.00
-14.27
-17.85
-21.20
-23.73
-24.86
-24.27
-21.91
-18.09
-13.34
-8.27
-3.37
1.05
4.88
8.13
10.78
12.81
14.15
14.80
14.85
14.52
14.08
13.74
13.64
13.76
13.99
14.17
14.16
13.87
13.32
12.60
11.82
11.10
10.48
9.93
9.32
8.50
7.32
5.70
3.70
1.48
-0.76
-2.84
-4.72
-6.46
-8.22
-10.15
-12.39
-14.95
-17.80
-20.75
-23.51
-25.64
-26.68
-26.19
-23.96
-20.10
-15.02
-9.39
-3.89
0.96
4.92
8.00
10.36
12.18
13.52
14.38
14.70
14.51
13.97
13.27
12.62
12.10
11.67
11.21
10.57
9.73
8.77
7.82
7.00
6.31
5.62
4.75
3.52
1.85
-0.21
-2.50
-4.82
-6.96
-8.83
-10.42
-11.84
-13.30
-15.03
-17.21
-19.91
-23.02
-26.24
-29.14
-31.21
-32.00
-31.23
-28.90
-25.33
-21.05
-16.69
-12.74
-9.45
-6.83
-4.70
-2.91
-1.39
-0.26
0.37
0.47
0.19
-0.16
-0.25
0.16
1.12
2.53
4.19
5.88
7.40
8.51
8.86
8.06
5.79
1.97
-3.07
-8.72
-14.27
-19.21
-23.37
-26.91
-30.03
-32.76
-34.88
-36.03
-35.96
-34.75
-32.82
-30.68
-28.70
-26.86
-24.80
-22.08
-18.39
-13.81
-8.71
-3.58
1.26
5.74
10.05
14.38
18.71
22.68
25.75
27.44
27.63
26.65
25.18
23.90
23.23
23.18
23.43
23.57
23.30
22.55
21.46
20.19
18.88
17.59
16.34
15.20
14.27
13.68
13.50
13.66
14.04
14.41
14.54
14.25
13.35
11.71
9.22
5.83
1.52
-3.59
-9.21
-14.87
-19.96
-23.84
-26.01
-26.27
-24.78
-21.96
-18.37
-14.51
-10.74
-7.29
-4.30
-1.87
-0.09
1.08
1.82
2.42
3.22
4.50
6.44
9.12
12.59
16.82
21.73
27.11
32.64
37.96
42.79
46.99
50.57
53.62
56.16
58.11
59.28
59.48
58.59
56.69
53.93
50.52
46.60
42.22
37.39
32.17
26.70
21.18
15.78
10.57
5.49
0.39
-4.87
-10.26
-15.56
-20.37
-24.22
-26.74
-27.75
-27.34
-25.79
-23.51
-20.90
-18.24
-15.64
-13.16
-10.79
-8.56
-6.55
-4.83
-3.41
-2.26
-1.30
-0.47
0.27
0.94
1.55
2.11
2.65
3.21
3.82
4.47
5.09
5.63
6.00
6.15
6.04
5.68
5.06
4.22
3.20
2.07
0.92
-0.20
-1.30
-2.39
-3.49
-4.64
-5.85
-7.15
-8.63
-10.37
-12.44
-14.78
-17.19
-19.33
-20.82
-21.37
-20.86
-19.33
-16.97
-14.06
-10.89
-7.72
-4.76
-2.12
0.12
2.00
3.52
4.69
5.51
5.99
6.15
6.10
5.95
5.79
5.66
5.52
5.33
5.04
4.68
4.32
4.01
3.80
3.63
3.44
3.14
2.67
2.06
1.35
0.62
-0.07
-0.75
-1.50
-2.40
-3.48
-4.70
-5.94
-7.08
-8.07
-8.94
-9.81
-10.79
-11.96
-13.30
-14.73
-16.13
-17.33
-18.18
-18.48
-18.09
-16.93
-15.07
-12.68
-10.00
-7.22
-4.47
-1.80
0.74
3.04
4.97
6.41
7.31
7.79
8.01
8.14
8.26
8.35
8.32
8.14
7.84
7.51
7.22
7.02
6.87
6.72
6.50
6.21
5.84
5.38
4.80
4.08
3.24
2.38
1.62
1.04
0.58
0.10
-0.56
-1.45
-2.52
-3.59
-4.54
-5.35
-6.13
-7.01
-8.06
-9.27
-10.56
-11.88
-13.24
-14.70
-16.19
-17.52
-18.38
-18.48
-17.70
-16.10
-13.89
-11.33
-8.62
-5.87
-3.19
-0.68
1.52
3.34
4.76
5.81
6.59
7.13
7.44
7.49
7.33
7.07
6.89
6.93
7.25
7.75
8.22
8.46
8.36
7.94
7.35
6.76
6.30
6.01
5.83
5.64
5.31
4.76
3.94
2.91
1.77
0.64
-0.39
-1.28
-2.09
-2.92
-3.84
-4.87
-5.99
-7.14
-8.25
-9.29
-10.27
-11.29
-12.47
-13.91
-15.60
-17.33
-18.71
-19.30
-18.79
-17.17
-14.72
-11.90
-9.09
-6.51
-4.16
-1.96
0.09
1.86
3.13
3.79
3.91
3.73
3.55
3.58
3.82
4.13
4.31
4.27
4.03
3.72
3.49
3.41
3.47
3.56
3.59
3.52
3.34
3.10
2.82
2.52
2.16
1.73
1.17
0.47
-0.33
-1.23
-2.18
-3.14
-4.10
-5.06
-6.04
-7.05
-8.12
-9.30
-10.65
-12.21
-13.94
-15.66
-17.11
-17.97
-18.00
-17.11
-15.39
-13.01
-10.19
-7.07
-3.80
-0.49
2.65
5.38
7.48
8.86
9.58
9.83
9.84
9.80
9.79
9.81
9.77
9.65
9.43
9.13
8.80
8.43
8.01
7.50
6.89
6.19
5.43
4.67
3.94
3.25
2.56
1.80
0.92
-0.12
-1.32
-2.64
-4.06
-5.51
-6.95
-8.34
-9.65
-10.89
-12.11
-13.39
-14.86
-16.58
-18.52
-20.45
-22.00
-22.76
-22.42
-20.89
-18.31
-15.01
-11.32
-7.53
-3.81
-0.26
2.99
5.80
8.03
9.61
10.63
11.25
11.68
12.06
12.39
12.63
12.71
12.61
12.39
12.13
11.88
11.67
11.49
11.29
11.05
10.74
10.34
9.83
9.18
8.37
7.41
6.35
5.24
4.14
3.08
2.03
0.94
-0.26
-1.60
-3.06
-4.58
-6.11
-7.68
-9.38
-11.33
-13.53
-15.84
-17.97
-19.55
-20.27
-19.98
-18.67
-16.49
-13.61
-10.22
-6.51
-2.69
0.98
4.26
6.96
9.01
10.48
11.51
12.27
12.86
13.34
13.70
13.93
14.00
13.92
13.70
13.38
13.00
12.60
12.18
11.71
11.12
10.35
9.37
8.27
7.17
6.18
5.39
4.74
4.11
3.34
2.31
0.98
-0.56
-2.22
-3.89
-5.52
-7.13
-8.74
-10.39
-12.10
-13.90
-15.81
-17.80
-19.76
-21.43
-22.49
-22.61
-21.57
-19.34
-16.10
-12.16
-7.90
-3.64
0.32
3.79
6.61
8.70
10.04
10.69
10.86
10.79
10.69
10.72
10.85
10.99
10.98
10.74
10.30
9.74
9.16
8.59
8.00
7.32
6.54
5.69
4.83
4.03
3.25
2.43
1.49
0.36
-0.92
-2.33
-3.79
-5.28
-6.77
-8.29
-9.84
-11.48
-13.27
-15.26
-17.41
-19.53
-21.31
-22.40
-22.44
-21.26
-18.90
-15.60
-11.73
-7.67
-3.75
-0.15
3.07
5.95
8.51
10.73
12.54
13.84
14.60
14.92
15.02
15.14
15.43
15.84
16.23
16.36
16.13
15.57
14.85
14.17
13.64
13.24
12.82
12.21
11.32
10.16
8.86
7.57
6.35
5.17
3.91
2.44
0.72
-1.16
-3.06
-4.79
-6.28
-7.56
-8.76
-10.07
-11.65
-13.57
-15.75
-18.00
-20.04
-21.54
-22.21
-21.84
-20.35
-17.83
-14.48
-10.58
-6.46
-2.43
1.29
4.56
7.35
9.67
11.55
12.98
13.94
14.43
14.53
14.35
14.05
13.77
13.56
13.42
13.33
13.28
13.24
13.19
13.07
12.80
12.33
11.66
10.88
10.09
9.37
8.70
8.02
7.21
6.20
4.97
3.54
1.98
0.34
-1.31
-2.91
-4.41
-5.77
-7.05
-8.29
-9.58
-10.98
-12.50
-14.15
-15.94
-17.84
-19.74
-21.41
-22.53
-22.76
-21.90
-19.96
-17.15
-13.79
-10.18
-6.51
-2.87
0.65
3.87
6.63
8.75
10.21
11.08
11.51
11.64
11.54
11.26
10.86
10.48
10.23
10.15
10.17
10.13
9.87
9.35
8.64
7.85
7.05
6.24
5.37
4.36
3.24
2.08
0.96
-0.10
-1.14
-2.32
-3.80
-5.74
-8.17
-11.03
-14.10
-17.11
-19.78
-21.91
-23.42
-24.38
-24.93
-25.21
-25.31
-25.22
-24.81
-23.92
-22.40
-20.18
-17.33
-14.05
-10.60
-7.22
-4.13
-1.43
0.89
2.92
4.82
6.73
8.74
10.83
12.90
14.78
16.34
17.55
18.50
19.29
20.02
20.70
21.23
21.55
21.60
21.39
20.94
20.23
19.18
17.75
15.98
14.04
12.18
10.65
9.56
8.83
8.23
7.48
6.36
4.82
2.98
1.05
-0.76
-2.29
-3.49
-4.43
-5.25
-6.17
-7.42
-9.22
-11.59
-14.32
-16.95
-18.84
-19.42
-18.38
-15.86
-12.32
-8.42
-4.69
-1.41
1.36
3.76
5.89
7.78
9.33
10.45
11.13
11.44
11.50
11.40
11.21
10.90
10.45
9.86
9.19
8.56
8.05
7.69
7.46
7.23
6.90
6.40
5.75
4.99
4.21
3.42
2.62
1.74
0.78
-0.30
-1.47
-2.72
-4.04
-5.44
-6.93
-8.47
-10.06
-11.71
-13.46
-15.35
-17.32
-19.20
-20.69
-21.43
-21.11
-19.60
-16.96
-13.47
-9.49
-5.43
-1.59
1.84
4.80
7.29
9.32
10.91
12.06
12.76
13.05
13.01
12.75
12.44
12.18
12.00
11.86
11.66
11.34
10.92
10.47
10.07
9.71
9.31
8.73
7.84
6.63
5.17
3.62
2.09
0.64
-0.77
-2.20
-3.72
-5.31
-6.89
-8.37
-9.69
-10.88
-12.10
-13.56
-15.37
-17.46
-19.53
-21.14
-21.83
-21.30
-19.50
-16.60
-12.91
-8.78
-4.51
-0.37
3.38
6.56
9.04
10.78
11.85
12.43
12.69
12.79
12.81
12.78
12.67
12.47
12.19
11.89
11.58
11.31
11.08
10.88
10.70
10.50
10.19
9.70
8.94
7.91
6.68
5.41
4.25
3.27
2.44
1.60
0.59
-0.68
-2.18
-3.81
-5.42
-6.91
-8.26
-9.52
-10.84
-12.33
-14.11
-16.14
-18.25
-20.13
-21.42
-21.83
-21.24
-19.71
-17.41
-14.53
-11.20
-7.52
-3.62
0.30
3.92
6.95
9.21
10.68
11.55
12.06
12.42
12.71
12.91
12.93
12.74
12.38
11.95
11.55
11.25
11.02
10.81
10.55
10.22
9.83
9.40
8.94
8.44
7.85
7.19
6.45
5.67
4.85
3.95
2.90
1.66
0.20
-1.42
-3.09
-4.68
-6.07
-7.23
-8.20
-9.10
-10.09
-11.31
-12.83
-14.64
-16.67
-18.69
-20.43
-21.52
-21.65
-20.64
-18.51
-15.52
-12.03
-8.42
-4.96
-1.79
1.01
3.46
5.54
7.22
8.50
9.37
9.86
9.97
9.74
9.23
8.53
7.82
7.27
7.02
7.10
7.41
7.74
7.85
7.55
6.81
5.70
4.44
3.24
2.26
1.54
0.97
0.40
-0.29
-1.17
-2.20
-3.34
-4.53
-5.74
-6.98
-8.27
-9.66
-11.16
-12.80
-14.55
-16.34
-17.98
-19.24
-19.90
-19.77
-18.75
-16.89
-14.30
-11.19
-7.79
-4.38
-1.21
1.49
3.62
5.20
6.33
7.13
7.69
8.02
8.12
8.01
7.73
7.35
6.91
6.42
5.87
5.24
4.60
4.08
3.82
3.84
4.03
4.18
4.04
3.48
2.53
1.37
0.23
-0.72
-1.43
-1.99
-2.53
-3.19
-4.03
-5.06
-6.22
-7.47
-8.77
-10.15
-11.69
-13.45
-15.42
-17.44
-19.17
-20.12
-19.84
-18.05
-14.78
-10.38
-5.41
-0.45
4.08
7.95
11.18
13.84
15.97
17.56
18.60
19.11
19.22
19.10
18.89
18.60
18.14
17.42
16.42
15.24
14.05
13.03
12.22
11.56
10.94
10.27
9.50
8.67
7.79
6.87
5.85
4.67
3.32
1.78
0.10
-1.63
-3.36
-5.02
-6.60
-8.11
-9.59
-11.10
-12.68
-14.38
-16.24
-18.27
-20.43
-22.60
-24.54
-25.91
-26.34
-25.54
-23.46
-20.29
-16.48
-12.51
-8.82
-5.66
-3.08
-1.04
0.57
1.83
2.77
3.41
3.77
3.93
3.95
3.91
3.82
3.67
3.46
3.21
3.04
3.06
3.35
3.91
4.59
5.20
5.57
5.63
5.44
5.19
5.05
5.13
5.39
5.68
5.80
5.57
4.94
3.94
2.70
1.39
0.14
-0.96
-1.87
-2.63
-3.35
-4.18
-5.30
-6.86
-8.85
-11.01
-12.87
-13.79
-13.26
-11.05
-7.35
-2.73
2.06
6.34
9.72
12.09
13.58
14.40
14.77
14.81
14.57
14.07
13.33
12.40
11.34
10.28
9.37
8.82
8.78
9.33
10.44
12.00
13.89
15.93
17.96
19.77
21.12
21.76
21.48
20.21
18.00
15.03
11.58
7.93
4.28
0.77
-2.53
-5.58
-8.33
-10.76
-12.81
-14.45
-15.62
-16.27
-16.39
-16.05
-15.42
-14.84
-14.67
-15.21
-16.51
-18.32
-20.17
-21.47
-21.78
-20.86
-18.70
-15.44
-11.27
-6.39
-1.04
4.46
9.70
14.29
17.97
20.68
22.50
23.62
24.17
24.18
23.61
22.48
20.86
18.94
16.93
15.01
13.28
11.85
10.80
10.26
10.27
10.75
11.43
11.99
12.15
11.79
11.00
9.92
8.69
7.32
5.75
3.90
1.79
-0.45
-2.67
-4.75
-6.72
-8.66
-10.64
-12.67
-14.63
-16.35
-17.70
-18.68
-19.49
-20.40
-21.63
-23.22
-24.96
-26.42
-27.15
-26.80
-25.27
-22.70
-19.38
-15.69
-11.89
-8.18
-4.69
-1.52
1.23
3.43
5.00
5.95
6.39
6.49
6.44
6.36
6.27
6.16
5.98
5.77
5.62
5.62
5.81
6.13
6.44
6.60
6.50
6.15
5.63
5.02
4.39
3.80
3.25
2.69
2.08
1.33
0.38
-0.78
-2.09
-3.46
-4.76
-5.94
-7.01
-8.00
-9.01
-10.10
-11.34
-12.78
-14.46
-16.37
-18.40
-20.29
-21.73
-22.42
-22.14
-20.84
-18.56
-15.48
-11.81
-7.79
-3.68
0.27
3.81
6.76
9.05
10.67
11.68
12.19
12.31
12.16
11.88
11.59
11.37
11.24
11.16
11.09
10.98
10.83
10.67
10.51
10.37
10.21
10.01
9.73
9.32
8.75
8.05
7.24
6.41
5.60
4.82
4.00
3.02
1.81
0.39
-1.13
-2.61
-3.92
-5.06
-6.09
-7.13
-8.26
-9.55
-11.04
-12.73
-14.52
-16.17
-17.30
-17.50
-16.49
-14.28
-11.20
-7.75
-4.42
-1.50
0.92
2.92
4.59
6.01
7.20
8.21
9.11
9.95
10.71
11.29
11.51
11.24
10.49
9.39
8.18
7.10
6.31
5.84
5.66
5.67
5.74
5.77
5.64
5.25
4.56
3.61
2.50
1.39
0.44
-0.31
-0.95
-1.70
-2.82
-4.45
-6.54
-8.84
-11.00
-12.74
-14.00
-14.93
-15.81
-16.86
-18.19
-19.77
-21.49
-23.24
-24.88
-26.26
-27.07
-26.98
-25.72
-23.19
-19.59
-15.31
-10.76
-6.27
-1.99
2.01
5.68
8.89
11.48
13.32
14.41
14.92
15.09
15.14
15.16
15.16
15.11
14.97
14.78
14.58
14.38
14.17
13.90
13.57
13.20
12.83
12.46
12.04
11.50
10.75
9.77
8.62
7.42
6.23
5.07
3.91
2.69
1.40
0.06
-1.29
-2.62
-3.94
-5.31
-6.80
-8.43
-10.23
-12.21
-14.35
-16.64
-19.00
-21.25
-23.06
-24.07
-23.95
-22.52
-19.85
-16.22
-12.02
-7.66
-3.46
0.37
3.71
6.49
8.66
10.21
11.20
11.73
11.94
11.97
11.93
11.87
11.81
11.74
11.67
11.66
11.70
11.81
11.91
11.92
11.76
11.38
10.80
10.05
9.19
8.26
7.27
6.22
5.16
4.14
3.18
2.25
1.24
-0.00
-1.56
-3.39
-5.35
-7.20
-8.80
-10.18
-11.55
-13.19
-15.28
-17.79
-20.40
-22.59
-23.84
-23.80
-22.39
-19.81
-16.41
-12.55
-8.50
-4.48
-0.62
2.94
6.04
8.58
10.49
11.82
12.65
13.14
13.38
13.49
13.52
13.52
13.48
13.40
13.25
13.02
12.73
12.42
12.15
11.90
11.60
11.13
10.44
9.55
8.56
7.61
6.79
6.07
5.30
4.31
3.02
1.45
-0.23
-1.85
-3.29
-4.57
-5.85
-7.28
-8.99
-10.99
-13.23
-15.58
-17.98
-20.30
-22.38
-23.97
-24.75
-24.45
-22.93
-20.30
-16.79
-12.74
-8.48
-4.25
-0.28
3.26
6.24
8.60
10.38
11.70
12.68
13.40
13.87
14.08
14.04
13.85
13.62
13.47
13.44
13.48
13.52
13.52
13.46
13.35
13.17
12.88
12.43
11.79
11.00
10.12
9.22
8.30
7.32
6.18
4.84
3.31
1.67
0.03
-1.54
-3.02
-4.46
-5.91
-7.41
-8.98
-10.65
-12.45
-14.45
-16.66
-18.98
-21.16
-22.87
-23.74
-23.53
-22.14
-19.65
-16.27
-12.31
-8.10
-3.95
-0.11
3.23
5.98
8.08
9.61
10.63
11.25
11.58
11.66
11.55
11.30
10.98
10.65
10.40
10.24
10.16
10.08
9.95
9.74
9.49
9.23
8.99
8.69
8.22
7.46
6.42
5.17
3.88
2.64
1.48
0.31
-0.95
-2.34
-3.81
-5.26
-6.63
-7.96
-9.34
-10.89
-12.69
-14.75
-16.98
-19.21
-21.20
-22.65
-23.28
-22.86
-21.31
-18.69
-15.23
-11.21
-6.95
-2.73
1.22
4.70
7.62
9.91
11.59
12.76
13.54
14.02
14.27
14.32
14.19
13.90
13.53
13.16
12.85
12.63
12.51
12.43
12.37
12.27
12.10
11.78
11.28
10.57
9.64
8.57
7.43
6.27
5.12
3.95
2.71
1.39
-0.02
-1.48
-2.95
-4.39
-5.81
-7.24
-8.71
-10.25
-11.89
-13.64
-15.56
-17.67
-19.95
-22.27
-24.37
-25.93
-26.57
-26.06
-24.30
-21.40
-17.64
-13.39
-9.00
-4.79
-0.98
2.30
5.02
7.20
8.89
10.13
10.97
11.48
11.76
11.91
12.02
12.08
12.03
11.79
11.31
10.67
9.98
9.40
9.00
8.75
8.52
8.16
7.54
6.65
5.54
4.35
3.26
2.48
2.16
2.28
2.69
3.12
3.24
2.86
1.94
0.60
-0.93
-2.42
-3.78
-4.98
-6.13
-7.39
-8.91
-10.78
-12.99
-15.43
-17.83
-19.84
-21.09
-21.31
-20.33
-18.16
-14.95
-10.98
-6.55
-2.03
2.28
6.12
9.35
11.90
13.80
15.16
16.06
16.63
16.95
17.11
17.20
17.28
17.38
17.53
17.71
17.94
18.22
18.57
18.98
19.36
19.63
19.67
19.41
18.86
18.01
16.92
15.59
14.02
12.23
10.24
8.08
5.76
3.32
0.79
-1.72
-4.12
-6.30
-8.25
-10.05
-11.88
-13.91
-16.28
-19.02
-22.07
-25.23
-28.21
-30.65
-32.18
-32.50
-31.48
-29.19
-25.86
-21.85
-17.53
-13.16
-8.92
-4.91
-1.18
2.21
5.13
7.43
8.96
9.63
9.55
9.04
8.56
8.64
9.58
11.38
13.68
15.90
17.50
18.16
17.85
16.79
15.25
13.49
11.58
9.53
7.33
5.07
2.92
1.09
-0.27
-1.20
-1.90
-2.71
-3.93
-5.72
-8.03
-10.66
-13.28
-15.66
-17.64
-19.19
-20.36
-21.27
-22.10
-23.02
-24.22
-25.75
-27.50
-29.13
-30.17
-30.14
-28.68
-25.71
-21.38
-16.04
-10.11
-3.94
2.25
8.41
14.54
20.69
26.86
32.91
38.54
43.27
46.55
47.88
46.97
43.91
39.15
33.46
27.69
22.55
18.42
15.31
12.89
10.75
8.56
6.16
3.71
1.53
0.03
-0.54
-0.27
0.24
-0.10
-2.56
-8.13
-16.95
-28.00
-39.25
-48.30
-53.13
-52.85
-47.89
-39.75
-30.48
-22.12
-16.34
-14.13
-15.65
-20.17
-26.16
-31.85
-35.79
-37.44
-37.15
-35.73
-33.58
-30.27
-24.66
-15.63
-2.98
12.06
27.03
39.03
45.70
45.96
40.12
29.54
16.16
2.00
-11.14
-21.75
-28.59
-30.76
-27.90
-20.39
-9.51
2.62
13.43
20.60
22.71
19.75
13.05
4.76
-2.85
-8.11
-10.26
-9.39
-6.10
-1.15
4.68
10.63
15.84
19.41
20.55
18.85
14.43
7.93
0.37
-7.05
-13.16
-16.95
-17.75
-15.42
-10.47
-4.08
2.18
6.83
8.90
8.29
5.69
2.30
-0.56
-1.84
-0.96
2.14
7.05
12.92
18.66
23.11
25.40
25.08
22.34
17.80
12.35
6.87
2.11
-1.34
-3.02
-2.56
0.19
4.96
10.96
16.98
21.64
23.82
23.00
19.34
13.58
6.71
-0.28
-6.57
-11.54
-14.72
-15.80
-14.69
-11.75
-7.83
-4.19
-2.11
-2.50
-5.56
-10.67
-16.67
-22.21
-26.19
-27.92
-27.14
-23.87
-18.30
-10.80
-2.07
6.89
14.81
20.49
23.16
22.69
19.64
15.00
9.88
5.26
1.79
-0.16
-0.45
0.85
3.56
7.31
11.60
15.84
19.41
21.78
22.61
21.80
19.46
15.92
11.61
6.97
2.38
-1.82
-5.34
-7.89
-9.18
-9.06
-7.57
-5.06
-2.08
0.64
2.45
2.96
2.07
-0.05
-3.02
-6.43
-9.91
-13.12
-15.90
-18.08
-19.62
-20.53
-20.97
-21.17
-21.38
-21.80
-22.43
-23.26
-24.04
-24.48
-24.35
-23.56
-22.16
-20.31
-18.16
-15.55
-12.62
-9.19
-5.04
0.05
6.17
13.24
20.94
28.67
36.04
41.76
45.22
46.20
44.96
42.08
38.25
33.98
29.53
25.65
21.64
17.55
13.45
9.42
5.43
1.44
-2.51
-6.11
-7.83
-7.74
-5.15
0.15
7.71
16.48
25.16
32.67
33.06
32.99
31.98
30.49
28.65
26.26
23.02
18.85
14.06
9.31
6.24
4.56
4.48
5.84
8.23
11.19
14.27
17.08
19.33
21.43
22.52
22.51
21.41
19.25
16.13
12.19
7.64
2.82
-1.55
-5.70
-9.66
-13.66
-18.03
-22.99
-28.50
-34.22
-39.62
-43.99
-47.17
-49.00
-49.38
-48.20
-45.25
-40.35
-33.52
-25.08
-15.58
-5.90
3.17
11.03
17.36
22.06
25.14
26.71
26.91
26.00
24.38
22.53
20.83
19.43
18.20
16.78
14.76
11.87
8.18
4.07
0.05
-3.50
-6.40
-8.70
-10.57
-12.19
-13.65
-14.92
-15.89
-16.54
-17.14
-17.98
-19.28
-21.01
-23.01
-25.03
-26.76
-27.99
-28.70
-29.27
-30.01
-31.05
-32.22
-33.22
-33.66
-33.04
-30.77
-26.39
-19.97
-11.84
-2.57
7.09
16.24
23.50
27.38
27.26
25.17
22.50
19.93
17.20
14.29
11.22
8.04
4.87
1.91
-0.72
-3.25
-5.79
-8.26
-10.22
-11.12
-10.49
-8.01
-3.73
1.88
7.84
13.23
17.16
19.10
19.25
18.38
17.27
16.21
14.92
12.96
10.25
7.25
4.77
3.56
3.74
5.04
6.89
8.71
9.94
10.32
9.81
8.61
6.90
4.81
2.37
-0.26
-2.84
-5.11
-6.77
-7.68
-7.89
-7.69
-7.52
-7.80
-8.84
-10.69
-13.16
-15.88
-18.45
-20.55
-21.95
-22.56
-22.37
-21.39
-19.64
-17.13
-13.91
-10.17
-6.23
-2.48
0.66
2.92
4.28
4.98
5.39
5.94
6.82
7.99
9.16
9.88
9.74
8.45
5.96
2.47
-1.59
-5.72
-9.44
-12.44
-14.67
-16.33
-17.81
-19.49
-21.61
-24.13
-26.74
-28.91
-30.10
-29.93
-28.28
-25.33
-21.45
-17.08
-12.58
-8.19
-4.01
-0.13
3.35
6.34
8.74
10.55
11.88
12.94
13.92
14.99
16.18
17.47
18.79
20.12
21.48
22.93
24.50
26.18
27.96
29.82
31.77
33.82
35.93
37.98
39.72
40.84
41.04
40.13
38.09
35.09
31.39
27.32
23.12
18.97
14.91
10.92
6.98
3.09
-0.64
-4.02
-6.84
-8.89
-10.05
-10.29
-9.70
-8.53
-7.15
-5.97
-5.37
-5.56
-6.51
-7.93
-9.35
-10.34
-10.61
-10.08
-8.92
-7.34
-5.59
-3.83
-2.20
-0.77
0.36
1.17
1.70
2.07
2.43
2.85
3.34
3.80
4.10
4.16
3.99
3.67
3.36
3.14
3.05
3.02
2.98
2.82
2.46
1.87
1.05
0.03
-1.09
-2.16
-3.05
-3.69
-4.13
-4.51
-5.02
-5.79
-6.82
-8.00
-9.18
-10.24
-11.20
-12.19
-13.37
-14.85
-16.58
-18.39
-19.99
-21.06
-21.39
-20.89
-19.61
-17.72
-15.44
-12.96
-10.42
-7.92
-5.56
-3.43
-1.63
-0.22
0.80
1.50
1.95
2.23
2.38
2.43
2.38
2.30
2.20
2.12
2.05
1.96
1.85
1.70
1.55
1.39
1.19
0.87
0.36
-0.36
-1.20
-2.03
-2.74
-3.29
-3.76
-4.29
-4.98
-5.89
-7.01
-8.29
-9.70
-11.16
-12.53
-13.60
-14.13
-13.93
-12.94
-11.30
-9.22
-6.95
-4.65
-2.38
-0.15
2.02
4.04
5.76
7.06
7.88
8.27
8.37
8.39
8.43
8.51
8.53
8.34
7.86
7.13
6.29
5.51
4.86
4.27
3.63
2.84
1.90
0.92
0.01
-0.79
-1.54
-2.37
-3.36
-4.53
-5.78
-7.04
-8.28
-9.53
-10.84
-12.18
-13.42
-14.38
-14.88
-14.79
-14.05
-12.67
-10.72
-8.33
-5.67
-2.97
-0.49
1.63
3.32
4.62
5.62
6.38
6.91
7.22
7.31
7.25
7.14
7.09
7.14
7.22
7.25
7.12
6.81
6.37
5.90
5.50
5.19
4.91
4.56
4.03
3.25
2.23
1.05
-0.21
-1.48
-2.75
-4.04
-5.43
-6.97
-8.70
-10.60
-12.53
-14.27
-15.54
-16.05
-15.64
-14.31
-12.22
-9.62
-6.76
-3.79
-0.82
2.07
4.76
7.11
8.97
10.28
11.05
11.38
11.36
11.06
10.55
9.89
9.18
8.53
8.05
7.78
7.68
7.68
7.66
7.52
7.21
6.71
6.04
5.28
4.47
3.66
2.90
2.17
1.43
0.66
-0.19
-1.14
-2.19
-3.31
-4.51
-5.77
-7.12
-8.60
-10.22
-11.94
-13.62
-15.04
-15.92
-16.03
-15.25
-13.60
-11.24
-8.41
-5.39
-2.42
0.30
2.68
4.65
6.24
7.50
8.49
9.25
9.79
10.09
10.14
9.97
9.63
9.18
8.64
8.05
7.45
6.89
6.44
6.14
5.95
5.77
5.49
5.02
4.35
3.55
2.72
1.88
1.03
0.08
-1.03
-2.26
-3.54
-4.71
-5.68
-6.48
-7.24
-8.17
-9.45
-11.15
-13.12
-15.08
-16.68
-17.57
-17.53
-16.52
-14.61
-12.01
-8.97
-5.76
-2.66
0.10
2.37
4.13
5.47
6.54
7.47
8.32
9.08
9.70
10.14
10.38
10.42
10.27
9.93
9.39
8.68
7.90
7.19
6.67
6.39
6.30
6.26
6.10
5.71
5.04
4.15
3.15
2.16
1.24
0.37
-0.53
-1.55
-2.75
-4.09
-5.48
-6.82
-8.06
-9.26
-10.55
-12.07
-13.87
-15.83
-17.65
-18.94
-19.36
-18.69
-16.92
-14.26
-11.02
-7.54
-4.08
-0.82
2.15
4.77
7.01
8.81
10.14
11.00
11.48
11.69
11.78
11.84
11.91
11.91
11.73
11.30
10.66
9.92
9.28
8.88
8.72
8.71
8.64
8.35
7.79
7.03
6.20
5.42
4.75
4.11
3.38
2.45
1.25
-0.19
-1.78
-3.36
-4.84
-6.15
-7.29
-8.33
-9.39
-10.55
-11.91
-13.47
-15.18
-16.85
-18.22
-18.99
-18.95
-17.99
-16.15
-13.60
-10.54
-7.19
-3.71
-0.26
3.01
5.90
8.25
9.98
11.14
11.84
12.22
12.39
12.34
12.02
11.42
10.60
9.67
8.79
8.04
7.44
6.95
6.53
6.15
5.77
5.31
4.64
3.67
2.40
0.97
-0.38
-1.44
-2.14
-2.62
-3.13
-3.91
-5.06
-6.53
-8.12
-9.63
-10.89
-11.87
-12.63
-13.32
-14.10
-15.13
-16.51
-18.17
-19.88
-21.30
-22.06
-21.86
-20.56
-18.22
-15.02
-11.24
-7.16
-3.07
0.76
4.11
6.84
8.90
10.35
11.31
11.91
12.28
12.47
12.52
12.46
12.31
12.09
11.80
11.41
10.94
10.43
9.98
9.66
9.48
9.35
9.11
8.61
7.78
6.73
5.62
4.64
3.85
3.18
2.47
1.55
0.34
-1.14
-2.77
-4.38
-5.85
-7.12
-8.20
-9.20
-10.28
-11.56
-13.13
-14.96
-16.90
-18.68
-19.99
-20.49
-19.96
-18.29
-15.56
-12.01
-8.00
-3.92
-0.13
3.17
5.88
8.02
9.66
10.90
11.83
12.52
13.05
13.47
13.77
13.86
13.66
13.13
12.30
11.32
10.39
9.68
9.21
8.92
8.63
8.17
7.46
6.52
5.45
4.38
3.41
2.58
1.85
1.14
0.35
-0.58
-1.71
-3.01
-4.43
-5.90
-7.34
-8.72
-10.08
-11.52
-13.15
-15.04
-17.09
-19.06
-20.56
-21.16
-20.61
-18.85
-16.07
-12.59
-8.81
-5.01
-1.40
1.94
4.95
7.60
9.83
11.63
13.00
13.97
14.57
14.88
14.95
14.85
14.63
14.35
14.07
13.86
13.75
13.72
13.68
13.51
13.10
12.40
11.48
10.47
9.47
8.55
7.67
6.73
5.66
4.42
3.05
1.63
0.20
-1.23
-2.70
-4.23
-5.82
-7.45
-9.13
-10.87
-12.70
-14.63
-16.54
-18.21
-19.35
-19.71
-19.10
-17.47
-14.91
-11.58
-7.71
-3.59
0.45
4.09
7.08
9.30
10.79
11.74
12.39
12.91
13.38
13.75
13.89
13.71
13.20
12.45
11.64
10.92
10.38
9.99
9.63
9.20
8.61
7.90
7.12
6.35
5.63
4.93
4.21
3.42
2.53
1.52
0.38
-0.87
-2.18
-3.48
-4.71
-5.88
-7.12
-8.58
-10.42
-12.63
-15.04
-17.23
-18.74
-19.17
-18.32
-16.27
-13.27
-9.68
-5.86
-2.09
1.41
4.50
7.06
9.02
10.35
11.11
11.44
11.51
11.47
11.41
11.37
11.31
11.16
10.89
10.50
10.02
9.48
8.88
8.20
7.40
6.51
5.60
4.77
4.10
3.56
3.05
2.38
1.41
0.11
-1.39
-2.90
-4.23
-5.32
-6.24
-7.16
-8.28
-9.73
-11.53
-13.60
-15.78
-17.86
-19.53
-20.49
-20.46
-19.27
-16.93
-13.64
-9.76
-5.69
-1.82
1.60
4.41
6.57
8.13
9.21
9.94
10.46
10.84
11.11
11.25
11.24
11.06
10.77
10.44
10.16
10.01
9.97
9.98
9.95
9.81
9.51
9.09
8.54
7.86
7.05
6.09
5.00
3.83
2.65
1.48
0.30
-0.95
-2.30
-3.73
-5.17
-6.58
-7.94
-9.38
-10.98
-12.80
-14.73
-16.55
-17.94
-18.64
-18.47
-17.41
-15.57
-13.14
-10.31
-7.26
-4.13
-1.03
1.93
4.65
7.00
8.89
10.25
11.08
11.46
11.57
11.54
11.51
11.49
11.42
11.19
10.72
9.97
9.04
8.07
7.25
6.69
6.40
6.24
6.07
5.72
5.14
4.32
3.34
2.27
1.17
0.05
-1.12
-2.36
-3.66
-4.98
-6.25
-7.42
-8.49
-9.54
-10.75
-12.28
-14.20
-16.36
-18.42
-19.93
-20.49
-19.92
-18.24
-15.65
-12.44
-8.89
-5.26
-1.75
1.43
4.11
6.17
7.62
8.54
9.08
9.38
9.56
9.66
9.71
9.68
9.54
9.26
8.84
8.35
7.85
7.41
7.10
6.90
6.77
6.65
6.48
6.16
5.59
4.65
3.28
1.53
-0.40
-2.26
-3.81
-4.98
-5.86
-6.67
-7.64
-8.91
-10.50
-12.35
-14.33
-16.25
-17.88
-18.95
-19.19
-18.43
-16.62
-13.89
-10.49
-6.75
-3.02
0.43
3.43
5.89
7.84
9.35
10.48
11.25
11.64
11.61
11.20
10.56
9.85
9.27
8.90
8.71
8.58
8.39
8.05
7.59
7.06
6.55
6.11
5.71
5.29
4.76
4.03
3.02
1.69
0.06
-1.75
-3.59
-5.28
-6.69
-7.81
-8.75
-9.73
-10.95
-12.53
-14.50
-16.69
-18.84
-20.58
-21.50
-21.28
-19.76
-17.01
-13.36
-9.27
-5.20
-1.48
1.74
4.44
6.66
8.43
9.70
10.46
10.74
10.66
10.41
10.14
9.90
9.66
9.35
8.89
8.30
7.64
6.96
6.35
5.83
5.41
5.08
4.79
4.45
3.91
3.05
1.80
0.22
-1.49
-3.11
-4.46
-5.49
-6.29
-7.00
-7.79
-8.84
-10.25
-12.08
-14.28
-16.66
-18.89
-20.54
-21.22
-20.68
-18.88
-16.02
-12.39
-8.37
-4.29
-0.42
3.04
6.00
8.47
10.47
12.04
13.19
13.87
14.06
13.81
13.21
12.45
11.71
11.09
10.59
10.16
9.75
9.31
8.87
8.47
8.15
7.88
7.59
7.17
6.53
5.60
4.39
2.97
1.44
-0.09
-1.56
-2.92
-4.16
-5.30
-6.37
-7.46
-8.67
-10.18
-12.10
-14.44
-17.03
-19.48
-21.31
-22.07
-21.50
-19.59
-16.61
-12.93
-8.98
-5.07
-1.39
1.91
4.75
7.06
8.82
10.09
11.00
11.67
12.19
12.54
12.67
12.54
12.14
11.59
11.00
10.53
10.23
10.13
10.17
10.22
10.12
9.73
8.98
7.90
6.64
5.42
4.37
3.49
2.63
1.63
0.40
-1.02
-2.48
-3.80
-4.93
-5.94
-7.02
-8.37
-10.13
-12.29
-14.75
-17.27
-19.54
-21.23
-22.02
-21.70
-20.23
-17.75
-14.51
-10.80
-6.87
-2.91
0.92
4.45
7.52
10.00
11.83
13.05
13.78
14.14
14.20
14.04
13.70
13.26
12.78
12.32
11.88
11.42
10.90
10.32
9.74
9.24
8.89
8.64
8.41
8.05
7.45
6.57
5.47
4.22
2.92
1.61
0.26
-1.17
-2.69
-4.27
-5.84
-7.34
-8.77
-10.23
-11.87
-13.83
-16.15
-18.67
-21.03
-22.82
-23.60
-23.12
-21.34
-18.44
-14.74
-10.64
-6.47
-2.52
1.04
4.10
6.61
8.57
10.03
11.07
11.79
12.24
12.44
12.39
12.09
11.59
11.02
10.56
10.32
10.34
10.49
10.62
10.55
10.16
9.46
8.53
7.49
6.48
5.55
4.73
3.97
3.14
2.17
0.99
-0.38
-1.86
-3.36
-4.83
-6.30
-7.85
-9.56
-11.45
-13.52
-15.65
-17.70
-19.46
-20.66
-21.02
-20.29
-18.37
-15.35
-11.50
-7.21
-2.90
1.09
4.56
7.38
9.54
11.12
12.20
12.92
13.35
13.57
13.57
13.39
13.06
12.64
12.19
11.76
11.38
11.04
10.75
10.49
10.25
9.98
9.62
9.12
8.46
7.63
6.65
5.55
4.33
2.98
1.50
-0.07
-1.69
-3.27
-4.76
-6.16
-7.53
-9.01
-10.77
-12.92
-15.47
-18.20
-20.74
-22.61
-23.40
-22.87
-21.04
-18.14
-14.53
-10.59
-6.62
-2.83
0.69
3.83
6.53
8.72
10.37
11.54
12.37
13.03
13.63
14.18
14.55
14.59
14.22
13.48
12.55
11.65
10.95
10.52
10.30
10.17
9.99
9.66
9.16
8.48
7.67
6.78
5.82
4.77
3.56
2.16
0.55
-1.20
-2.95
-4.56
-5.91
-7.02
-8.00
-9.04
-10.32
-11.96
-14.00
-16.30
-18.62
-20.60
-21.84
-22.03
-20.99
-18.77
-15.61
-11.88
-7.97
-4.19
-0.72
2.36
5.06
7.38
9.29
10.76
11.71
12.14
12.15
11.88
11.54
11.25
11.06
10.90
10.69
10.36
9.93
9.48
9.10
8.81
8.54
8.20
7.67
6.93
6.04
5.09
4.16
3.28
2.40
1.45
0.36
-0.91
-2.31
-3.77
-5.19
-6.50
-7.71
-8.89
-10.15
-11.67
-13.54
-15.74
-18.07
-20.20
-21.70
-22.22
-21.51
-19.56
-16.57
-12.86
-8.81
-4.76
-0.96
2.43
5.34
7.71
9.52
10.81
11.63
12.10
12.32
12.41
12.41
12.35
12.21
11.98
11.63
11.18
10.68
10.20
9.81
9.55
9.37
9.18
8.87
8.37
7.68
6.85
5.96
5.08
4.20
3.29
2.30
1.19
-0.02
-1.33
-2.71
-4.10
-5.46
-6.74
-7.92
-9.07
-10.29
-11.75
-13.57
-15.78
-18.24
-20.63
-22.53
-23.49
-23.21
-21.61
-18.85
-15.29
-11.37
-7.47
-3.82
-0.52
2.41
4.99
7.21
9.03
10.44
11.45
12.12
12.52
12.67
12.57
12.22
11.67
11.02
10.39
9.86
9.45
9.12
8.80
8.50
8.29
8.19
8.16
8.04
7.65
6.85
5.71
4.41
3.18
2.14
1.25
0.36
-0.67
-1.91
-3.28
-4.70
-6.07
-7.39
-8.66
-9.94
-11.25
-12.63
-14.10
-15.73
-17.48
-19.21
-20.67
-21.48
-21.35
-20.10
-17.76
-14.54
-10.77
-6.79
-2.90
0.73
3.98
6.77
9.08
10.90
12.24
13.19
13.78
14.10
14.13
13.88
13.34
12.56
11.65
10.80
10.19
9.93
9.98
10.20
10.40
10.41
10.17
9.69
9.04
8.28
7.43
6.51
5.52
4.46
3.38
2.31
1.26
0.23
-0.79
-1.81
-2.83
-3.88
-5.00
-6.24
-7.64
-9.23
-11.00
-12.93
-14.95
-16.94
-18.67
-19.88
-20.28
-19.69
-18.08
-15.58
-12.46
-9.04
-5.56
-2.22
0.85
3.53
5.71
7.30
8.29
8.78
8.96
9.01
9.06
9.12
9.13
9.00
8.69
8.22
7.66
7.10
6.63
6.25
5.91
5.57
5.17
4.67
4.06
3.31
2.40
1.36
0.21
-0.96
-2.10
-3.13
-4.10
-5.04
-6.05
-7.16
-8.36
-9.62
-10.89
-12.19
-13.54
-14.97
-16.38
-17.58
-18.30
-18.24
-17.20
-15.12
-12.16
-8.63
-4.88
-1.26
1.98
4.75
7.00
8.74
9.94
10.56
10.60
10.11
9.25
8.24
7.29
6.58
6.14
5.91
5.78
5.61
5.34
4.95
4.50
4.05
3.63
3.21
2.69
1.98
1.01
-0.18
-1.47
-2.71
-3.77
-4.66
-5.47
-6.41
-7.65
-9.30
-11.35
-13.64
-15.96
-18.01
-19.48
-20.12
-19.72
-18.21
-15.71
-12.45
-8.79
-5.09
-1.62
1.47
4.13
6.35
8.13
9.49
10.41
10.96
11.24
11.33
11.31
11.20
10.96
10.55
9.97
9.29
8.59
7.96
7.46
7.07
6.74
6.40
5.94
5.31
4.47
3.40
2.13
0.71
-0.75
-2.15
-3.44
-4.61
-5.75
-6.99
-8.51
-10.38
-12.61
-15.01
-17.29
-19.08
-20.04
-19.97
-18.83
-16.74
-13.92
-10.59
-6.97
-3.25
0.36
3.65
6.47
8.71
10.41
11.64
12.51
13.04
13.22
13.04
12.53
11.81
11.03
10.32
9.76
9.36
9.07
8.84
8.62
8.38
8.11
7.77
7.31
6.68
5.85
4.80
3.56
2.18
0.71
-0.76
-2.22
-3.64
-5.08
-6.58
-8.25
-10.13
-12.25
-14.51
-16.76
-18.75
-20.17
-20.72
-20.16
-18.41
-15.53
-11.81
-7.64
-3.43
0.50
3.96
6.88
9.28
11.13
12.41
13.12
13.32
13.19
12.92
12.69
12.53
12.39
12.17
11.84
11.42
11.02
10.70
10.47
10.28
10.02
9.63
9.06
8.29
7.29
6.04
4.58
3.01
1.44
-0.02
-1.34
-2.58
-3.85
-5.27
-6.88
-8.73
-10.81
-13.06
-15.36
-17.44
-18.94
-19.45
-18.68
-16.60
-13.43
-9.56
-5.44
-1.45
2.18
5.32
7.94
10.00
11.51
12.48
12.98
13.13
13.06
12.89
12.67
12.42
12.08
11.64
11.08
10.46
9.84
9.26
8.74
8.28
