1650967250.00
64.000000
-0.00
-0.00
-0.00
-0.00
-0.00
-0.00
-0.00
-0.00
-0.00
-0.00
0.00
0.01
0.01
-0.00
-0.03
-0.05
-0.05
0.00
0.13
0.36
0.66
1.01
1.37
1.72
2.06
2.40
2.79
3.24
3.80
4.42
5.06
5.66
6.20
6.68
7.15
7.68
8.31
9.14
10.09
11.04
11.88
12.56
13.14
13.76
14.65
15.96
17.91
20.32
22.90
25.38
27.58
29.57
31.68
34.32
37.81
42.54
48.15
54.10
59.83
64.97
69.58
74.14
79.34
85.71
93.76
103.00
112.62
121.73
129.77
136.75
143.30
150.75
157.77
166.64
177.95
191.79
206.97
220.57
228.25
225.36
208.53
176.87
132.76
80.05
23.07
-34.94
-92.44
-149.16
-205.23
-260.37
-313.74
-363.87
-409.83
-450.91
-486.50
-515.74
-537.23
-549.22
-549.96
-538.37
-514.21
-478.67
-433.88
-382.45
-327.02
-269.84
-212.63
-156.66
-102.95
-52.37
-5.90
35.58
71.43
101.35
125.50
144.38
158.69
169.15
176.37
180.75
182.57
182.07
179.51
175.23
169.65
163.18
156.15
148.81
141.30
133.69
126.02
118.33
110.69
103.16
95.80
88.68
81.83
75.25
68.95
62.95
57.25
51.86
46.78
42.03
37.59
33.45
29.61
26.07
22.81
19.83
17.11
14.67
12.48
10.54
8.83
7.35
6.07
4.97
4.05
3.27
2.62
2.09
1.65
1.30
1.01
0.79
0.61
0.48
0.37
0.29
0.22
0.18
0.14
0.11
0.09
0.08
0.07
0.06
0.05
0.04
0.04
0.04
0.04
0.04
0.04
0.05
0.07
0.09
0.13
0.17
0.21
0.27
0.34
0.41
0.49
0.57
0.65
0.72
0.80
0.87
0.93
0.98
1.03
1.07
1.13
1.20
1.30
1.41
1.51
1.57
1.58
1.55
1.53
1.58
1.76
2.10
2.54
3.01
3.43
3.75
4.00
4.25
4.63
5.21
6.01
6.93
7.82
8.53
8.99
9.25
9.49
9.96
10.86
12.22
13.83
15.35
16.37
16.70
16.45
16.06
16.14
17.18
19.23
21.77
23.83
24.36
22.68
18.79
13.41
7.59
2.16
-2.82
-8.16
-15.23
-25.30
-38.68
-54.36
-70.07
-83.07
-91.33
-94.14
-92.44
-88.24
-83.59
-79.74
-77.04
-75.07
-72.94
-69.20
-61.77
-48.09
-26.27
3.33
36.92
67.79
88.67
95.02
87.58
72.12
56.41
46.06
41.82
39.73
34.40
22.93
6.96
-8.25
-17.08
-16.91
-9.20
1.57
10.34
13.95
11.90
5.55
-3.09
-12.10
-20.00
-25.42
-27.31
-25.27
-19.91
-12.75
-5.56
0.37
4.45
6.74
7.66
7.29
5.51
2.50
-1.12
-4.23
-5.61
-4.39
-1.51
2.02
5.05
6.74
6.88
5.90
4.61
3.83
4.05
5.26
7.12
9.07
10.59
11.46
11.82
12.06
12.58
13.58
14.91
16.21
16.82
16.13
13.80
9.97
5.32
0.81
-2.57
-4.22
-4.03
-2.41
-0.10
2.15
3.82
4.71
4.87
4.44
3.57
2.36
0.87
-0.85
-2.70
-4.59
-6.41
-8.10
-9.62
-10.96
-12.08
-12.93
-13.46
-13.58
-13.30
-12.64
-11.74
-10.85
-10.25
-10.22
-10.91
-12.31
-14.15
-16.05
-17.55
-18.27
-17.98
-16.64
-14.38
-11.44
-8.12
-4.72
-1.49
1.36
3.71
5.49
6.69
7.33
7.45
7.14
6.54
5.81
5.05
4.31
3.60
2.93
2.33
1.89
1.68
1.71
1.86
1.89
1.51
0.53
-1.15
-3.41
-5.97
-8.45
-10.40
-11.49
-11.46
-10.28
-8.08
-5.17
-2.02
0.88
3.03
4.05
3.73
2.11
-0.53
-3.77
-7.23
-10.76
-14.54
-19.00
-24.55
-31.23
-38.49
-45.23
-50.04
-51.67
-49.42
-43.32
-34.14
-23.20
-12.12
-2.50
4.36
7.80
8.07
6.33
4.45
4.39
7.59
14.42
24.12
35.14
45.70
54.42
60.58
64.09
65.16
63.99
60.72
55.60
49.27
42.78
37.45
34.25
33.35
33.85
34.24
32.98
29.37
23.89
18.05
13.66
11.99
13.14
15.90
18.30
18.46
15.57
10.38
5.05
2.28
4.12
11.06
21.75
33.65
44.00
50.70
52.61
49.51
41.95
31.66
21.88
17.07
21.34
36.09
58.21
80.45
94.28
93.97
79.55
56.95
35.06
21.53
19.52
27.30
40.22
53.61
64.71
72.74
77.63
78.81
75.00
65.01
48.95
28.81
7.86
-10.41
-23.69
-31.57
-35.42
-37.48
-39.80
-43.40
-48.00
-52.48
-55.65
-56.89
-56.46
-55.34
-54.62
-55.00
-56.46
-58.44
-60.23
-61.42
-62.14
-62.88
-64.20
-66.33
-69.12
-72.08
-74.58
-76.15
-76.54
-75.69
-73.64
-70.37
-65.80
-59.82
-52.40
-43.79
-34.56
-25.57
-17.73
-11.69
-7.68
-5.46
-4.56
-4.58
-5.29
-6.67
-8.69
-11.10
-13.45
-15.24
-16.15
-16.32
-16.27
-16.73
-18.31
-21.20
-25.07
-29.19
-32.66
-34.62
-34.48
-32.01
-27.44
-21.37
-14.68
-8.35
-3.19
0.30
2.06
2.38
1.70
0.41
-1.34
-3.68
-7.02
-11.77
-18.05
-25.36
-32.49
-37.75
-39.65
-37.59
-32.40
-26.16
-21.59
-20.99
-25.54
-34.79
-46.83
-58.91
-68.05
-71.55
-67.57
-55.55
-36.66
-13.91
8.29
25.03
32.29
28.09
13.25
-8.88
-33.38
-55.35
-71.18
-79.25
-79.88
-74.60
-65.41
-54.33
-43.30
-34.51
-30.42
-33.33
-44.26
-61.78
-81.25
-95.32
-96.29
-78.98
-43.39
4.50
54.41
95.35
119.50
124.61
113.96
94.07
71.49
50.56
32.84
18.11
5.99
-3.11
-8.10
-8.13
-3.54
3.96
11.90
18.19
22.01
23.92
25.50
28.29
33.00
39.18
45.52
50.50
53.14
53.35
51.86
49.77
48.01
46.90
46.07
44.87
42.70
39.54
35.92
32.79
31.01
31.01
32.65
35.33
38.35
41.16
43.48
45.23
46.35
46.69
46.07
44.41
41.80
38.51
34.90
31.27
27.76
24.32
20.84
17.15
13.16
8.88
4.45
0.12
-3.78
-6.95
-9.16
-10.39
-10.82
-10.72
-10.37
-9.96
-9.58
-9.23
-8.83
-8.21
-7.10
-5.16
-2.08
2.26
7.76
14.03
20.48
26.56
31.87
36.27
39.78
42.49
44.41
45.44
45.48
44.50
42.65
40.18
37.41
34.58
31.78
28.92
25.87
22.56
19.05
15.55
12.26
9.34
6.80
4.55
2.43
0.37
-1.60
-3.34
-4.63
-5.38
-5.62
-5.57
-5.52
-5.77
-6.46
-7.58
-8.92
-10.15
-10.87
-10.71
-9.46
-7.10
-3.82
0.13
4.50
9.15
14.01
18.98
23.88
28.42
32.31
35.34
37.49
38.85
39.59
39.78
39.48
38.73
37.63
36.35
35.14
34.19
33.59
33.26
33.06
32.80
32.29
31.34
29.71
27.12
23.33
18.27
12.18
5.61
-0.71
-6.16
-10.50
-13.99
-17.29
-21.17
-26.21
-32.57
-39.98
-47.81
-55.25
-61.42
-65.50
-66.87
-65.38
-61.39
-55.85
-49.94
-44.69
-40.62
-37.49
-34.51
-30.77
-25.66
-19.21
-12.06
-5.11
0.85
5.31
8.14
9.40
9.27
7.98
5.93
3.67
1.86
1.07
1.55
3.17
5.56
8.29
11.12
14.00
17.03
20.36
24.05
28.02
32.03
35.58
38.06
38.82
37.53
34.30
29.69
24.54
19.58
15.26
11.69
8.79
6.50
4.88
3.95
3.62
3.52
3.14
1.98
-0.20
-3.28
-6.86
-10.37
-13.34
-15.41
-16.46
-16.54
-15.85
-14.68
-13.43
-12.53
-12.30
-12.90
-14.22
-15.96
-17.76
-19.36
-20.70
-21.90
-23.08
-24.30
-25.47
-26.43
-27.02
-27.25
-27.32
-27.50
-27.97
-28.70
-29.32
-29.23
-27.79
-24.57
-19.54
-13.16
-6.20
0.57
6.69
12.24
17.74
23.91
31.22
39.63
48.55
57.09
64.36
69.83
73.41
75.32
75.91
75.42
73.99
71.60
68.33
64.31
59.88
55.43
51.30
47.68
44.45
41.15
37.16
31.84
24.94
16.70
8.00
0.00
-6.27
-10.25
-11.93
-11.70
-10.03
-7.30
-3.90
-0.44
2.19
3.04
1.78
-0.91
-3.38
-3.90
-1.89
1.36
3.15
0.94
-5.86
-15.09
-22.84
-25.53
-22.08
-14.47
-6.50
-1.40
0.15
0.29
2.54
9.37
20.52
32.88
42.19
45.25
41.52
33.21
23.90
16.75
13.11
12.35
12.58
11.77
8.37
1.22
-10.69
-28.08
-50.41
-74.89
-96.34
-108.71
-107.76
-93.25
-69.57
-43.88
-23.10
-11.06
-7.55
-9.41
-12.77
-14.92
-15.05
-13.63
-11.54
-9.54
-8.39
-9.11
-12.83
-20.29
-31.21
-44.07
-56.45
-65.79
-70.14
-68.75
-62.14
-51.91
-40.20
-29.21
-20.68
-15.55
-13.77
-14.33
-15.78
-16.70
-16.21
-14.17
-11.02
-7.43
-3.92
-0.69
2.33
5.37
8.55
11.87
15.12
17.97
20.09
21.20
21.21
20.23
18.52
16.45
14.36
12.45
10.75
9.14
7.48
5.71
3.83
1.91
0.04
-1.73
-3.37
-4.83
-6.01
-6.79
-7.16
-7.25
-7.35
-7.78
-8.78
-10.35
-12.27
-14.17
-15.73
-16.72
-17.14
-17.20
-17.22
-17.53
-18.35
-19.66
-21.18
-22.48
-23.08
-22.68
-21.23
-18.95
-16.20
-13.29
-10.42
-7.67
-5.06
-2.66
-0.63
0.85
1.65
1.79
1.40
0.66
-0.21
-1.10
-1.92
-2.62
-3.18
-3.56
-3.73
-3.71
-3.59
-3.50
-3.55
-3.86
-4.44
-5.25
-6.18
-7.15
-8.11
-9.12
-10.33
-11.87
-13.75
-15.77
-17.56
-18.67
-18.72
-17.60
-15.45
-12.66
-9.61
-6.59
-3.71
-1.02
1.47
3.61
5.25
6.30
6.84
7.11
7.39
7.84
8.39
8.78
8.71
8.02
6.78
5.23
3.66
2.26
1.04
-0.12
-1.33
-2.65
-4.09
-5.57
-7.04
-8.51
-10.06
-11.74
-13.49
-15.14
-16.34
-16.75
-16.13
-14.41
-11.76
-8.52
-5.05
-1.68
1.35
3.94
6.05
7.69
8.86
9.53
9.69
9.34
8.54
7.46
6.34
5.42
4.89
4.78
4.98
5.29
5.54
5.58
5.38
4.92
4.20
3.22
2.01
0.61
-0.90
-2.48
-4.13
-5.91
-7.85
-9.88
-11.76
-13.08
-13.45
-12.65
-10.72
-7.98
-4.89
-1.87
0.83
3.10
4.96
6.45
7.59
8.40
8.92
9.22
9.37
9.37
9.21
8.85
8.29
7.58
6.87
6.33
6.09
6.19
6.52
6.87
7.00
6.73
6.00
4.87
3.54
2.20
0.96
-0.13
-1.15
-2.25
-3.55
-5.09
-6.78
-8.40
-9.56
-9.88
-9.07
-7.04
-3.98
-0.32
3.41
6.72
9.33
11.19
12.41
13.21
13.72
14.01
14.07
13.85
13.40
12.80
12.19
11.65
11.19
10.78
10.32
9.78
9.10
8.24
7.19
5.96
4.59
3.20
1.92
0.86
0.04
-0.61
-1.22
-1.99
-3.06
-4.52
-6.35
-8.38
-10.31
-11.76
-12.38
-11.95
-10.45
-8.10
-5.28
-2.43
0.15
2.32
4.11
5.62
6.96
8.07
8.82
9.06
8.76
8.08
7.31
6.71
6.38
6.19
5.87
5.19
4.13
2.87
1.74
1.02
0.80
0.95
1.23
1.35
1.11
0.43
-0.71
-2.27
-4.15
-6.20
-8.28
-10.17
-11.69
-12.68
-13.05
-12.79
-11.92
-10.56
-8.82
-6.89
-4.94
-3.11
-1.51
-0.12
1.10
2.22
3.24
4.09
4.65
4.89
4.91
4.88
5.00
5.35
5.78
6.03
5.81
4.99
3.62
1.96
0.32
-1.03
-1.93
-2.32
-2.30
-2.05
-1.80
-1.74
-1.96
-2.38
-2.77
-2.90
-2.60
-1.86
-0.84
0.29
1.39
2.42
3.40
4.39
5.38
6.33
7.15
7.75
8.09
8.17
8.00
7.66
7.21
6.75
6.33
5.96
5.58
5.11
4.50
3.79
3.05
2.37
1.76
1.18
0.51
-0.35
-1.44
-2.72
-4.17
-5.77
-7.53
-9.36
-11.05
-12.28
-12.75
-12.24
-10.82
-8.71
-6.26
-3.82
-1.63
0.15
1.45
2.25
2.61
2.66
2.54
2.38
2.25
2.17
2.07
1.88
1.61
1.30
1.01
0.78
0.62
0.49
0.35
0.18
-0.07
-0.44
-1.00
-1.80
-2.84
-4.08
-5.42
-6.72
-7.80
-8.49
-8.62
-8.09
-6.89
-5.15
-3.10
-1.04
0.76
2.18
3.26
4.11
4.81
5.39
5.75
5.79
5.50
5.00
4.49
4.18
4.12
4.25
4.38
4.35
4.05
3.48
2.69
1.78
0.80
-0.25
-1.38
-2.66
-4.15
-5.90
-7.83
-9.74
-11.38
-12.43
-12.69
-12.11
-10.85
-9.20
-7.46
-5.88
-4.63
-3.78
-3.36
-3.37
-3.69
-4.18
-4.65
-4.93
-4.97
-4.84
-4.69
-4.70
-4.94
-5.34
-5.78
-6.12
-6.27
-6.25
-6.13
-6.02
-6.00
-6.17
-6.62
-7.37
-8.42
-9.67
-10.89
-11.82
-12.22
-11.88
-10.71
-8.74
-6.09
-2.98
0.28
3.37
6.00
7.97
9.25
9.89
10.03
9.75
9.13
8.25
7.21
6.15
5.22
4.46
3.87
3.37
2.88
2.32
1.69
1.01
0.28
-0.50
-1.39
-2.40
-3.57
-4.91
-6.44
-8.13
-9.90
-11.52
-12.69
-13.11
-12.57
-11.06
-8.77
-6.04
-3.21
-0.56
1.79
3.80
5.49
6.87
7.89
8.49
8.69
8.52
8.09
7.54
7.01
6.56
6.22
5.94
5.65
5.27
4.76
4.16
3.52
2.88
2.24
1.55
0.74
-0.28
-1.48
-2.87
-4.45
-6.19
-8.09
-9.99
-11.61
-12.61
-12.64
-11.54
-9.44
-6.69
-3.74
-0.97
1.43
3.46
5.17
6.65
7.86
8.72
9.16
9.18
8.90
8.48
8.08
7.80
7.60
7.42
7.20
6.91
6.60
6.29
5.97
5.58
5.00
4.17
3.13
2.00
0.94
0.05
-0.71
-1.46
-2.38
-3.63
-5.27
-7.27
-9.51
-11.78
-13.80
-15.20
-15.64
-14.88
-12.91
-9.96
-6.46
-2.89
0.37
3.13
5.35
7.04
8.24
8.89
8.92
8.33
7.22
5.84
4.42
3.17
2.14
1.29
0.58
-0.02
-0.46
-0.66
-0.65
-0.56
-0.64
-1.17
-2.29
-3.93
-5.86
-7.72
-9.25
-10.34
-11.08
-11.72
-12.56
-13.81
-15.52
-17.57
-19.65
-21.29
-21.84
-20.46
-16.23
-8.37
3.41
18.62
35.94
53.43
69.18
81.78
90.62
95.76
97.33
95.14
88.56
76.86
59.87
38.45
14.41
-9.82
-31.87
-49.91
-62.89
-70.58
-73.55
-73.32
-72.33
-73.57
-79.72
-91.93
-108.87
-126.62
-139.61
-142.40
-131.45
-106.47
-70.77
-30.59
6.33
32.71
43.70
38.15
18.92
-8.12
-36.09
-59.17
-74.03
-79.99
-78.22
-70.50
-58.51
-43.73
-27.87
-13.07
-1.58
5.06
6.84
5.46
3.71
4.42
9.30
18.38
30.18
42.38
52.85
60.33
64.77
67.05
68.43
69.86
71.65
73.38
74.20
73.33
70.38
65.50
59.25
52.43
45.83
40.09
35.65
32.67
30.90
29.60
27.61
23.51
16.18
5.20
-8.96
-24.97
-40.82
-54.05
-62.00
-62.18
-53.01
-34.58
-9.11
19.32
45.90
66.46
78.63
82.07
77.85
67.50
52.43
33.88
13.48
-6.46
-23.09
-33.77
-37.14
-33.66
-25.49
-15.59
-6.64
-0.09
4.06
6.87
9.62
13.14
17.40
21.72
25.33
27.86
29.53
30.93
32.55
34.38
35.90
36.32
35.03
31.93
27.45
22.36
17.48
13.54
11.06
10.45
11.94
15.44
20.50
26.32
31.91
36.48
39.65
41.54
42.56
43.16
43.61
43.93
43.91
43.28
41.80
39.37
36.11
32.38
28.82
26.20
25.22
26.25
29.18
33.37
37.83
41.52
43.64
43.86
42.20
38.95
34.35
28.42
21.03
12.03
1.53
-10.03
-21.84
-32.81
-41.60
-46.80
-47.15
-42.05
-31.94
-18.54
-4.50
7.52
15.77
20.03
21.30
20.92
19.62
17.18
12.89
6.41
-1.66
-9.89
-16.82
-21.78
-25.26
-28.48
-32.57
-37.94
-44.06
-49.99
-54.93
-58.65
-61.37
-63.47
-65.08
-65.91
-65.41
-63.09
-58.81
-52.94
-46.31
-39.95
-34.83
-31.52
-30.03
-29.87
-30.26
-30.40
-29.78
-28.24
-25.98
-23.45
-21.18
-19.62
-19.00
-19.19
-19.67
-19.65
-18.37
-15.46
-11.15
-6.21
-1.70
1.50
3.02
3.04
2.17
1.10
0.38
0.32
0.98
2.31
4.23
6.64
9.38
12.22
14.82
16.83
17.99
18.32
18.15
18.04
18.57
20.08
22.50
25.40
28.25
30.69
32.63
34.19
35.48
36.37
36.54
35.63
33.49
30.37
26.81
23.53
21.15
20.00
20.08
21.11
22.59
24.01
24.97
25.30
25.06
24.46
23.67
22.75
21.55
19.87
17.45
14.11
9.76
4.42
-1.76
-8.36
-14.70
-19.95
-23.29
-24.20
-22.68
-19.15
-14.44
-9.40
-4.82
-1.21
1.18
2.38
2.60
2.17
1.42
0.56
-0.34
-1.41
-2.84
-4.81
-7.37
-10.43
-13.82
-17.34
-20.92
-24.62
-28.67
-33.37
-38.88
-45.19
-51.94
-58.50
-64.19
-68.49
-71.28
-72.82
-73.62
-74.22
-74.89
-75.43
-75.03
-72.36
-65.91
-54.53
-38.05
-17.63
4.41
25.23
42.40
54.70
62.41
67.01
70.45
74.47
79.96
86.88
94.32
100.71
104.18
102.85
95.44
81.55
62.02
38.73
14.28
-8.71
-28.23
-43.29
-53.95
-60.98
-65.22
-67.09
-66.38
-62.46
-54.83
-43.57
-29.49
-13.97
1.47
15.57
27.37
36.11
40.96
40.96
35.28
23.71
7.11
-12.38
-31.81
-48.14
-59.33
-64.89
-65.83
-63.97
-60.92
-57.45
-53.50
-48.73
-43.23
-37.79
-33.40
-30.56
-28.75
-26.57
-22.56
-16.10
-7.89
0.40
7.00
10.93
12.38
12.30
11.67
10.78
9.21
6.29
1.79
-3.80
-9.47
-14.32
-18.00
-20.77
-23.00
-24.75
-25.50
-24.45
-21.04
-15.32
-7.88
0.49
9.22
18.20
27.65
37.83
48.78
60.29
71.82
82.51
91.25
96.85
98.35
95.43
88.60
79.13
68.59
58.39
49.42
42.01
36.04
31.23
27.26
23.85
20.87
18.31
16.45
15.72
16.64
19.44
23.79
28.64
32.45
33.63
31.16
25.11
16.81
8.56
3.02
2.34
7.51
18.04
32.18
47.32
60.49
68.75
69.59
61.39
44.11
19.93
-6.66
-29.88
-44.46
-47.61
-40.28
-26.68
-12.42
-2.09
2.47
2.36
0.47
-0.36
1.36
5.38
10.18
13.71
13.92
9.29
-0.71
-14.99
-30.61
-43.23
-48.65
-44.61
-31.99
-14.66
2.19
14.14
19.08
17.32
10.57
0.47
-12.08
-26.73
-42.98
-59.45
-74.11
-85.03
-91.33
-93.57
-93.53
-93.41
-94.94
-98.76
-104.41
-110.64
-115.84
-118.48
-117.34
-111.68
-101.33
-86.94
-70.24
-54.23
-42.74
-39.55
-46.93
-64.46
-88.55
-113.20
-131.61
-138.11
-129.55
-105.74
-69.07
-23.74
25.03
71.66
111.02
139.28
154.99
159.69
157.73
154.88
156.25
164.36
178.18
193.76
206.09
211.34
208.48
199.53
188.44
179.12
173.61
171.20
168.94
163.07
150.93
132.07
108.47
83.74
61.88
46.13
38.22
38.13
44.30
53.99
63.90
70.78
72.08
66.48
54.22
36.92
17.26
-1.77
-17.57
-28.59
-34.77
-37.51
-39.28
-42.93
-50.86
-64.54
-84.56
-110.96
-143.45
-181.22
-222.27
-262.93
-298.33
-323.75
-336.46
-336.93
-328.48
-315.47
-301.08
-285.86
-267.89
-244.49
-214.06
-177.11
-136.05
-93.91
-53.56
-17.34
12.75
34.96
48.26
53.15
52.43
50.66
52.49
60.37
72.77
83.93
85.71
70.82
36.26
-14.67
-72.86
-126.21
-163.90
-179.90
-174.40
-152.77
-122.53
-90.43
-60.62
-34.70
-12.85
5.10
19.21
29.60
36.70
41.44
44.59
46.14
45.06
39.74
28.96
12.60
-7.68
-28.62
-46.02
-55.98
-56.20
-46.93
-30.99
-12.76
3.57
15.68
23.72
29.72
35.98
43.56
51.69
58.39
61.79
61.26
57.80
53.34
49.67
47.45
46.18
44.62
41.67
36.98
31.23
25.85
22.54
22.75
27.15
35.45
46.50
58.58
70.13
80.19
88.77
96.81
105.69
116.58
129.65
143.64
155.86
162.82
161.37
149.86
129.03
102.24
74.84
52.86
41.21
41.96
53.06
68.17
77.89
72.75
47.05
2.11
-52.82
-102.91
-133.10
-134.11
-106.53
-61.09
-14.90
14.67
15.99
-13.17
-65.36
-126.36
-179.77
-211.59
-213.34
-183.57
-127.41
-55.25
19.40
82.10
119.93
124.23
93.37
34.28
-38.34
-105.90
-151.69
-166.33
-150.46
-113.10
-66.99
-23.23
11.97
37.53
55.07
65.88
69.41
63.95
49.11
28.04
7.44
-4.88
-3.73
10.63
32.30
52.49
63.82
63.65
54.66
42.61
32.77
27.47
25.89
25.87
26.16
27.28
30.81
37.71
47.19
56.99
64.53
68.18
67.64
63.52
56.59
47.47
36.77
25.65
15.84
9.31
7.46
10.49
17.23
25.47
32.72
36.94
37.04
33.11
26.19
17.96
10.03
3.41
-1.84
-6.33
-10.71
-14.99
-18.39
-19.85
-18.84
-15.97
-12.84
-11.14
-11.57
-13.29
-14.29
-12.55
-7.30
0.38
7.96
12.66
12.78
8.56
2.23
-2.82
-3.43
2.01
12.88
26.46
38.99
47.19
49.71
47.92
45.30
46.07
53.06
66.02
81.18
92.16
92.03
75.56
41.15
-8.27
-65.72
-121.99
-168.18
-198.27
-210.62
-208.13
-196.85
-183.66
-174.01
-170.42
-172.08
-175.70
-177.04
-172.54
-160.45
-140.90
-115.43
-86.15
-55.25
-24.83
3.24
27.63
47.66
63.64
76.99
89.65
103.14
117.92
133.02
146.35
154.94
155.55
145.35
123.07
90.13
51.38
14.52
-12.06
-22.06
-14.07
7.62
34.75
58.56
72.87
75.35
66.87
49.66
26.52
-0.22
-28.79
-57.88
-85.86
-110.82
-131.07
-145.72
-154.90
-158.63
-157.03
-150.72
-140.74
-127.75
-111.60
-91.79
-68.27
-41.86
-12.76
19.20
54.12
91.32
129.67
167.11
200.11
223.87
227.42
203.68
156.57
101.35
55.61
30.45
27.41
40.45
59.69
75.33
81.53
76.43
62.18
40.17
13.57
-12.07
-30.40
-36.99
-31.16
-15.64
4.19
21.79
32.38
35.60
33.56
30.03
28.03
28.52
30.91
33.43
32.75
25.62
10.70
-10.92
-35.87
-59.29
-76.03
-82.02
-71.58
-45.50
-11.57
20.78
45.89
62.11
68.95
65.87
53.11
33.37
10.80
-9.53
-22.44
-24.71
-16.45
-0.36
20.30
43.45
68.55
95.28
123.98
153.55
182.21
207.99
229.32
245.27
255.35
259.01
255.19
243.44
224.68
201.34
176.42
152.26
129.84
108.81
88.02
66.28
43.04
18.39
-7.27
-33.89
-62.03
-92.70
-126.87
-164.99
-206.43
-249.05
-289.32
-322.94
-346.06
-356.47
-354.15
-341.01
-319.98
-294.03
-265.36
-235.43
-205.18
-175.60
-147.87
-123.10
-101.97
-84.48
-70.02
-57.75
-47.08
-37.87
-30.43
-25.23
-22.53
-22.11
-23.18
-24.73
-25.80
-25.91
-25.10
-23.84
-22.66
-21.86
-21.33
-20.62
-19.31
-17.17
-14.40
-11.49
-9.01
-7.27
-6.18
-5.31
-4.08
-2.06
0.76
4.00
6.92
8.73
8.87
7.23
4.18
0.35
-3.65
-7.57
-11.70
-16.74
-23.55
-32.73
-44.27
-57.46
-70.95
-83.20
-92.82
-99.01
-101.87
-102.55
-102.97
-105.11
-109.99
-116.77
-122.57
-123.24
-114.95
-95.74
-66.38
-30.21
8.13
44.11
74.33
96.69
110.25
114.79
110.76
99.34
82.50
62.71
42.50
23.94
8.52
-2.89
-9.98
-13.11
-13.37
-12.72
-13.49
-17.65
-25.95
-37.38
-49.25
-58.16
-61.45
-58.61
-51.68
-44.27
-39.56
-38.26
-37.73
-32.93
-18.92
6.40
40.71
77.65
109.21
128.70
133.07
123.49
104.25
80.58
56.83
35.61
18.05
4.63
-4.27
-8.26
-7.55
-3.51
1.54
5.16
6.14
5.05
4.02
5.43
10.69
19.64
30.91
42.94
54.86
66.58
78.43
90.52
102.46
113.71
123.88
132.97
141.16
148.43
154.35
158.17
159.38
157.98
154.57
150.00
144.91
139.42
133.15
125.79
117.54
109.42
102.87
99.00
97.71
97.51
95.97
90.91
81.54
68.89
55.33
43.20
33.54
25.58
17.27
6.69
-6.73
-21.63
-35.58
-46.44
-53.48
-57.61
-60.63
-63.69
-66.18
-65.67
-59.03
-43.95
-19.95
11.52
47.80
85.81
122.51
154.88
179.78
194.58
197.92
190.26
173.91
152.21
128.43
104.80
82.22
60.60
40.17
22.31
9.46
4.38
8.92
23.34
45.81
72.69
98.98
120.41
134.57
141.17
141.39
137.01
129.72
120.84
111.36
100.77
89.26
78.01
68.27
60.12
52.46
43.82
33.28
21.02
5.30
-13.71
-33.88
-52.82
-69.87
-86.05
-102.78
-120.56
-138.88
-161.03
-187.83
-216.94
-245.07
-271.16
-297.12
-326.56
-363.06
-408.34
-466.73
-535.17
-602.36
-653.84
-679.59
-677.58
-653.14
-615.58
-537.04
-414.75
-271.41
-138.49
-34.06
39.41
86.79
114.26
127.99
134.08
132.03
123.07
111.32
101.41
94.87
90.68
87.25
83.63
80.33
74.17
64.48
53.70
45.01
39.45
36.28
33.97
31.80
30.43
28.70
27.64
30.73
42.61
62.54
88.69
117.37
143.82
163.40
171.37
166.18
150.15
128.26
105.68
86.46
72.11
61.89
53.88
45.64
35.94
25.08
14.21
4.30
-3.99
-10.91
-17.15
-23.30
-29.42
-34.89
-38.65
-39.73
-37.86
-33.32
-27.22
-21.11
-16.52
-14.58
-15.63
-18.85
-22.52
-24.45
-22.39
-14.94
-1.97
15.17
33.95
51.45
65.45
74.58
78.28
76.88
71.49
63.91
56.23
50.26
47.03
47.34
50.34
53.50
53.45
47.85
36.47
21.36
5.93
-6.31
-10.83
-5.65
7.65
24.93
42.12
57.33
71.26
86.44
105.73
133.90
171.89
214.90
253.84
279.85
288.27
279.79
259.40
233.98
214.15
206.91
213.13
228.75
248.56
268.81
286.81
299.69
277.44
205.26
92.02
-34.55
-147.61
-233.36
-289.67
-320.70
-332.87
-332.76
-322.39
-302.75
-276.46
-247.94
-221.30
-198.58
-180.05
-165.08
-152.88
-139.44
-123.35
-105.35
-87.76
-72.80
-60.46
-48.33
-32.56
-9.75
23.04
64.59
108.92
147.31
171.32
176.33
162.64
134.91
99.46
62.76
29.06
-3.19
-32.28
-55.14
-69.93
-77.51
-79.92
-79.44
-77.86
-76.51
-77.49
-82.12
-91.89
-107.70
-128.67
-150.54
-167.14
-173.17
-166.28
-143.46
-107.41
-65.00
-22.77
9.77
27.14
30.75
26.26
19.18
12.58
7.25
3.66
3.04
6.55
14.78
26.64
37.89
43.20
38.99
25.02
4.80
-16.17
-33.07
-42.91
-45.48
-42.91
-37.84
-31.73
-25.14
-17.77
-9.38
-0.58
7.76
14.79
19.87
22.91
24.39
24.87
24.84
24.40
23.25
21.33
18.91
16.42
14.41
13.18
12.42
11.36
8.97
4.45
-2.25
-10.46
-19.14
-27.45
-35.06
-42.18
-49.18
-56.11
-62.36
-66.65
-67.55
-64.11
-56.41
-45.92
-35.17
-27.09
-24.07
-27.15
-35.62
-47.12
-58.48
-66.78
-70.24
-68.60
-62.92
-54.85
-45.94
-37.19
-28.89
-20.85
-12.49
-3.01
8.32
21.84
37.06
52.48
65.97
75.47
79.74
78.84
74.07
67.48
61.16
56.73
55.13
56.71
61.39
68.74
78.16
88.83
99.83
109.99
117.97
122.47
123.05
120.65
117.63
116.85
120.29
127.77
136.40
141.62
139.16
127.52
108.67
87.17
68.00
54.45
47.60
46.27
48.33
51.36
53.51
53.07
48.50
38.59
23.17
3.88
-16.90
-36.96
-55.44
-71.90
-85.89
-96.00
-100.30
-100.37
-97.48
-94.37
-91.66
-91.96
-95.82
-103.04
-111.27
-118.20
-122.93
-125.59
-127.23
-128.77
-130.59
-131.82
-131.15
-127.49
-120.69
-111.60
-101.30
-91.02
-81.62
-73.62
-66.68
-60.18
-53.51
-46.69
-40.41
-35.51
-32.76
-32.43
-34.31
-37.43
-40.61
-42.84
-43.64
-43.04
-41.11
-37.90
-33.24
-26.88
-18.52
-8.01
4.54
18.70
33.68
48.51
62.12
73.68
82.78
89.61
94.80
99.03
102.70
105.75
107.83
108.59
107.98
106.24
103.71
100.53
96.52
91.29
84.53
76.37
67.48
58.88
51.63
46.43
43.42
42.23
42.25
42.90
43.79
44.65
45.18
44.91
43.21
39.56
33.76
26.22
17.79
9.58
2.48
-3.05
-7.14
-10.21
-12.83
-15.35
-17.88
-20.35
-22.72
-25.02
-27.35
-29.71
-31.85
-33.28
-33.44
-31.92
-28.82
-24.68
-20.41
-16.93
-14.76
-13.83
-13.51
-12.86
-11.07
-7.82
-3.39
1.49
5.97
9.38
11.40
12.06
11.65
10.54
9.16
7.89
6.91
6.04
4.68
1.91
-3.09
-10.62
-20.26
-31.02
-41.81
-52.01
-61.80
-71.98
-83.44
-96.37
-109.89
-122.04
-130.46
-133.21
-129.50
-120.02
-106.76
-92.42
-79.68
-70.53
-65.74
-64.81
-66.15
-67.55
-66.73
-61.88
-52.00
-37.07
-17.98
3.66
25.78
46.21
63.04
75.05
81.90
84.28
83.56
81.41
79.30
78.23
78.57
80.19
82.61
85.24
87.57
89.31
90.46
91.25
92.00
92.97
94.19
95.43
96.29
96.32
95.19
92.72
88.90
83.84
77.67
70.55
62.72
54.48
46.25
38.50
31.84
26.93
24.48
25.22
29.65
37.79
48.94
61.53
73.46
82.56
87.28
87.11
82.64
75.24
66.57
58.05
50.64
44.66
39.85
35.47
30.54
24.11
15.67
5.32
-6.20
-17.64
-27.65
-35.09
-39.34
-40.45
-39.16
-36.71
-34.57
-34.09
-36.21
-41.39
-49.72
-61.14
-75.51
-92.44
-110.92
-129.20
-144.96
-155.84
-160.07
-156.89
-146.58
-130.45
-110.58
-89.77
-71.30
-58.40
-53.31
-56.08
-63.91
-71.67
-73.56
-65.25
-45.55
-16.79
16.22
48.00
74.54
94.36
108.37
118.77
127.87
137.16
146.84
155.87
161.95
162.48
155.43
139.94
116.73
88.07
57.19
27.42
1.41
-19.84
-36.31
-48.50
-57.18
-63.56
-69.12
-75.27
-82.85
-91.75
-101.51
-110.80
-117.87
-121.11
-119.89
-114.71
-106.92
-98.34
-87.07
-73.20
-58.51
-45.23
-34.31
-25.71
-19.57
-16.69
-17.87
-23.02
-31.82
-42.36
-52.12
-58.63
-60.31
-56.78
-48.78
-37.90
-26.24
-16.48
-10.52
-9.66
-13.67
-20.92
-28.93
-35.27
-38.35
-37.85
-34.98
-31.33
-28.14
-25.70
-23.48
-20.56
-16.19
-10.12
-2.64
5.45
13.57
21.47
29.27
37.01
44.31
50.36
54.29
55.59
54.37
51.52
48.29
45.89
44.89
45.20
46.15
47.02
47.37
47.18
46.76
46.53
46.79
47.66
49.04
50.76
52.75
55.04
57.74
60.87
64.35
68.00
71.60
74.99
78.00
80.59
82.74
84.53
85.99
87.16
88.08
88.73
88.96
88.53
87.18
84.74
81.20
76.44
70.49
63.67
56.62
50.23
45.37
42.63
41.91
42.32
41.73
37.95
29.64
16.75
0.36
-18.17
-37.82
-58.19
-79.36
-102.24
-127.12
-153.12
-178.17
-199.67
-215.25
-223.22
-222.71
-213.89
-199.04
-181.10
-162.85
-146.34
-132.97
-123.83
-119.59
-120.17
-117.66
-105.95
-82.86
-51.64
-18.53
10.51
31.54
43.40
47.68
47.86
46.37
44.58
42.58
40.00
36.58
32.42
28.15
24.62
22.48
20.94
19.13
16.60
13.73
11.40
10.40
10.97
12.75
15.02
16.52
16.44
14.65
11.72
8.39
5.33
3.04
1.97
2.62
5.06
9.09
14.23
19.91
25.70
31.65
38.40
47.01
58.47
72.99
89.55
105.85
118.74
125.00
122.42
110.57
91.16
67.76
44.82
26.51
15.64
13.13
17.94
27.30
37.47
44.57
45.72
39.88
28.23
13.85
0.53
-8.48
-11.53
-8.91
-2.42
5.44
12.24
16.09
15.82
11.10
2.54
-8.29
-19.09
-27.50
-31.92
-32.21
-29.68
-26.54
-24.88
-25.71
-28.54
-31.72
-33.32
-32.14
-28.44
-23.88
-20.77
-20.93
-24.69
-30.54
-35.62
-36.74
-31.68
-20.23
-4.48
11.49
22.53
23.69
11.77
-13.11
-46.35
-79.41
-102.06
-106.29
-90.13
-59.34
-25.77
-2.56
1.30
-15.40
-46.38
-81.53
-111.69
-132.08
-142.50
-145.08
-141.47
-131.39
-113.45
-87.22
-54.87
-21.21
7.88
27.95
37.83
39.85
38.49
38.19
41.57
48.76
57.99
66.89
73.87
78.61
81.83
84.51
87.17
89.61
91.09
90.77
88.13
83.15
76.23
68.08
59.43
50.84
42.46
33.96
24.50
13.13
-0.78
-17.06
-34.66
-52.01
-67.73
-81.21
-92.78
-103.36
-113.83
-124.56
-135.17
-144.88
-152.79
-158.24
-160.81
-160.31
-156.81
-150.68
-142.72
-133.98
-125.34
-117.05
-108.42
-98.11
-84.91
-68.50
-49.91
-31.34
-15.27
-3.57
3.14
5.54
5.22
3.98
3.36
4.41
7.73
13.57
21.78
31.88
42.93
53.67
62.84
69.53
73.45
74.99
75.08
74.89
75.49
77.61
81.56
87.26
94.35
102.34
110.58
118.48
125.42
130.96
134.87
137.15
137.94
137.51
136.05
133.67
130.38
126.08
120.56
113.69
105.36
95.59
84.46
72.07
58.50
43.84
28.28
12.19
-3.85
-19.23
-33.35
-45.62
-55.46
-62.19
-65.20
-64.28
-59.88
-53.19
-45.79
-38.95
-33.18
-28.13
-22.95
-16.86
-9.64
-1.89
5.26
10.68
13.78
14.55
13.35
10.66
7.11
3.43
0.39
-1.30
-1.24
0.66
3.73
6.70
7.99
6.92
3.95
0.66
-0.93
0.81
6.89
16.71
28.12
37.86
43.97
46.00
44.89
42.31
39.93
39.73
42.31
46.39
48.65
47.42
42.48
34.82
25.74
16.44
9.17
4.93
2.73
-0.88
-6.68
-13.61
-19.71
-23.33
-23.38
-17.30
-3.66
16.66
39.14
61.26
80.96
95.86
103.07
87.72
44.29
-18.22
-70.50
-104.81
-121.73
-126.92
-124.18
-116.78
-106.59
-91.94
-71.40
-46.22
-22.35
-4.06
6.09
7.66
2.07
-7.50
-15.52
-17.48
-11.61
0.05
16.76
38.19
63.54
90.27
114.30
132.03
140.52
138.37
125.52
105.35
82.30
59.56
37.87
16.25
-6.00
-28.69
-50.75
-71.47
-90.31
-107.91
-125.91
-145.69
-166.91
-186.78
-201.13
-206.42
-201.81
-189.29
-173.04
-157.47
-145.44
-137.37
-131.98
-127.81
-124.36
-122.33
-122.69
-125.21
-127.73
-126.40
-117.13
-97.12
-66.08
-26.52
16.83
58.14
91.92
114.46
124.98
126.02
122.80
121.46
126.67
139.47
156.60
171.48
176.64
166.63
140.14
100.74
55.87
14.49
-15.65
-30.10
-28.65
-14.67
6.65
30.18
52.20
70.67
84.72
93.95
98.04
97.04
91.75
83.78
75.16
67.33
60.50
53.71
45.51
35.02
22.53
9.38
-2.55
-11.70
-17.28
-19.32
-18.24
-14.67
-9.41
-3.41
2.32
7.03
10.57
13.29
16.06
19.90
25.36
32.23
39.59
46.37
51.92
56.21
59.29
61.62
63.83
66.43
69.38
72.20
74.37
75.58
75.82
74.28
70.50
64.80
58.10
51.32
44.85
38.37
30.79
20.46
4.15
-19.87
-50.42
-83.67
-114.88
-140.22
-157.66
-167.32
-171.21
-174.38
-180.85
-191.77
-205.39
-218.68
-228.67
-232.95
-229.90
-207.88
-163.67
-104.82
-45.10
5.56
44.50
73.23
93.67
106.51
112.92
110.68
99.34
81.57
62.09
44.97
31.84
22.20
14.58
8.53
2.72
-3.11
-8.39
-12.62
-16.20
-20.04
-24.16
-27.08
-26.28
-20.78
-10.57
3.33
19.30
35.52
50.33
62.55
71.37
75.93
74.71
66.80
52.64
33.96
13.06
-8.22
-28.93
-49.00
-68.34
-86.24
-100.59
-108.48
-107.58
-97.56
-80.53
-60.12
-39.75
-21.21
-4.24
12.66
30.77
50.24
70.14
89.34
107.48
124.87
141.62
156.45
166.47
167.85
157.60
134.90
101.37
60.02
13.74
-35.53
-86.24
-135.92
-180.00
-212.22
-226.73
-220.88
-196.91
-161.74
-124.34
-92.39
-69.63
-55.37
-46.00
-37.62
-28.11
-17.74
-8.27
-1.41
2.38
3.98
4.90
6.43
9.00
12.15
15.25
17.95
20.31
22.62
24.97
27.02
28.15
27.78
25.70
22.09
17.31
11.76
5.74
-0.38
-6.05
-10.53
-13.07
-13.21
-10.99
-7.03
-2.22
2.55
6.66
9.74
11.53
11.71
9.86
5.76
-0.27
-7.07
-12.75
-15.40
-14.08
-9.43
-3.62
0.61
1.16
-2.47
-9.28
-17.53
-25.79
-33.43
-40.35
-46.47
-51.32
-54.06
-54.06
-51.53
-47.55
-43.65
-41.01
-39.76
-39.10
-37.68
-33.86
-26.14
-13.42
4.78
28.06
55.11
84.14
112.88
139.20
161.66
179.75
193.73
204.65
214.02
223.58
235.00
248.45
262.11
272.46
275.46
267.41
246.73
214.28
173.54
129.84
87.84
50.24
17.77
-10.01
-34.68
-57.56
-79.82
-102.98
-124.26
-139.51
-146.33
-145.34
-139.09
-131.72
-129.32
-135.39
-150.68
-172.27
-195.08
-213.64
-223.93
-219.10
-197.83
-157.23
-104.59
-53.28
-14.14
9.86
22.81
31.62
42.07
55.86
72.44
87.74
97.81
100.10
93.20
76.96
53.36
25.84
-2.85
-31.63
-59.35
-85.18
-108.26
-128.22
-144.95
-157.56
-164.67
-165.23
-159.12
-145.58
-123.45
-92.14
-53.49
-11.73
28.51
63.48
90.95
109.70
121.85
131.27
141.82
154.98
163.65
160.74
143.46
121.77
98.05
73.14
46.29
20.49
-0.42
-12.85
-13.75
-2.01
20.12
44.50
62.51
68.94
64.56
53.98
44.39
39.10
38.52
40.08
38.46
29.91
12.88
-10.66
-36.89
-61.29
-79.67
-89.18
-89.37
-82.67
-72.10
-61.04
-53.33
-53.02
-62.43
-80.26
-100.89
-116.53
-120.72
-110.80
-89.56
-64.28
-43.19
-30.83
-25.82
-22.34
-14.31
0.66
20.38
39.64
52.76
56.35
50.66
38.50
23.15
6.76
-9.72
-25.46
-36.44
-38.63
-32.10
-21.56
-12.55
-7.77
-6.84
-7.60
-8.44
-8.24
-7.18
-5.88
-4.52
-2.60
0.29
3.75
6.28
6.38
3.66
-1.29
-7.03
-11.66
-13.66
-12.69
-9.85
-7.11
-6.30
-8.33
-13.50
-21.48
-31.49
-42.27
-52.32
-60.23
-64.91
-65.90
-63.67
-59.78
-56.29
-54.83
-55.78
-58.19
-60.29
-60.33
-57.39
-51.60
-44.00
-35.82
-27.71
-19.54
-10.62
-0.33
11.31
23.44
34.64
43.65
50.15
55.03
60.11
67.07
76.50
87.34
97.29
103.90
105.84
103.45
98.65
94.09
92.06
93.95
100.00
109.79
122.53
137.19
152.40
166.27
176.46
180.72
177.56
166.73
149.29
127.05
101.97
75.62
49.17
23.74
0.65
-18.59
-32.76
-41.70
-46.65
-50.13
-55.03
-63.47
-75.94
-91.14
-106.62
-119.86
-129.21
-134.36
-135.96
-134.96
-131.87
-126.74
-119.55
-111.03
-102.87
-97.28
-95.87
-98.47
-102.71
-104.90
-101.58
-91.08
-74.19
-53.86
-34.13
-18.90
-10.90
-11.11
-18.95
-32.43
-48.36
-62.72
-71.18
-70.17
-58.00
-35.67
-6.51
24.39
51.65
71.29
81.95
85.12
84.10
82.24
81.56
82.83
85.06
86.43
85.40
81.60
75.87
69.51
63.64
59.06
57.79
61.12
68.72
78.55
87.90
94.39
96.49
93.80
87.11
80.07
75.46
73.66
73.14
72.39
71.18
70.30
71.02
74.74
85.71
106.49
136.32
170.96
204.76
232.43
249.74
254.27
228.05
166.32
81.41
-3.50
-70.89
-115.72
-141.26
-153.36
-157.37
-157.25
-152.80
-144.69
-134.74
-125.78
-119.78
-116.71
-115.52
-115.33
-116.54
-117.19
-117.75
-120.10
-127.03
-139.56
-155.19
-168.36
-172.55
-162.99
-133.41
-89.77
-43.03
-4.24
20.25
30.51
31.07
27.50
23.50
20.84
18.69
16.77
15.73
16.89
20.97
26.80
31.41
31.37
24.65
11.26
-5.65
-21.48
-32.12
-35.17
-30.83
-21.56
-10.97
-2.36
1.86
1.27
-3.26
-10.26
-18.16
-25.49
-30.94
-33.51
-32.89
-29.91
-26.33
-24.34
-25.62
-30.41
-37.31
-44.10
-49.07
-51.98
-54.09
-57.03
-61.51
-66.54
-69.58
-67.78
-59.51
-45.21
-27.21
-8.40
9.28
25.63
41.81
59.11
77.65
96.03
111.88
123.05
128.59
129.17
126.62
123.23
120.94
120.98
123.66
128.37
133.78
138.06
139.37
136.47
129.09
117.91
104.18
89.04
73.09
56.28
37.92
16.77
-8.91
-40.99
-80.52
-126.32
-173.97
-216.06
-244.05
-251.41
-236.34
-202.74
-158.88
-114.18
-75.96
-47.62
-28.82
-17.27
-10.55
-7.33
-7.17
-9.93
-14.96
-21.07
-26.92
-31.50
-34.44
-35.96
-36.47
-36.09
-34.48
-30.77
-23.97
-13.37
0.98
18.06
35.98
52.46
65.44
73.77
77.59
78.50
79.15
82.52
90.94
105.14
123.56
142.46
156.72
161.11
151.62
126.45
86.57
35.84
-19.51
-71.94
-114.23
-141.24
-151.29
-146.50
-131.85
-113.32
-96.00
-82.87
-74.78
-71.11
-70.66
-72.10
-73.94
-74.51
-72.09
-65.43
-54.24
-39.58
-23.71
-9.61
-0.09
3.05
-0.24
-8.04
-16.73
-22.01
-20.55
-11.29
3.91
20.99
35.02
41.81
39.05
26.64
6.47
-18.42
-44.35
-67.25
-82.72
-86.94
-77.88
-56.35
-26.21
7.00
37.22
59.73
72.47
77.08
77.33
77.26
79.60
85.18
93.83
103.68
111.72
114.73
111.96
104.53
94.72
85.03
77.42
74.06
74.98
78.21
80.60
81.74
82.83
85.36
90.17
97.20
107.40
119.99
132.28
139.77
140.41
133.02
116.64
90.85
45.86
-16.52
-82.62
-129.38
-153.31
-157.80
-148.91
-132.69
-114.81
-98.95
-84.40
-69.80
-55.21
-43.27
-35.13
-31.25
-31.37
-34.41
-38.63
-40.94
-39.82
-35.87
-31.50
-27.44
-23.75
-20.64
-18.72
-18.57
-19.55
-21.04
-22.97
-26.25
-30.96
-37.01
-44.26
-52.32
-60.24
-66.25
-68.97
-67.85
-63.50
-56.51
-47.63
-37.64
-27.16
-16.60
-6.02
4.43
14.26
22.67
29.07
33.19
35.17
35.52
34.93
34.12
33.58
33.50
33.86
34.55
35.39
36.25
37.01
37.48
37.45
36.73
35.25
33.09
30.50
27.81
25.28
23.03
20.92
18.58
15.46
10.92
4.55
-3.64
-12.96
-22.18
-29.78
-34.45
-35.54
-33.23
-28.45
-22.53
-16.85
-12.57
-10.50
-11.00
-13.87
-18.22
-22.54
-25.06
-24.24
-19.36
-10.77
0.26
12.03
22.99
32.14
39.16
44.17
47.57
49.72
50.87
51.18
50.70
49.40
47.16
43.76
38.96
32.68
25.14
16.98
9.20
3.04
-0.41
-0.50
2.78
8.81
16.51
24.63
32.04
37.84
41.48
42.75
41.72
38.71
34.19
28.68
22.66
16.43
10.06
3.40
-3.81
-11.86
-20.90
-30.88
-41.46
-52.02
-61.84
-70.24
-76.79
-81.38
-84.17
-85.47
-85.58
-84.76
-83.17
-80.98
-78.33
-75.32
-71.92
-67.98
-63.29
-57.77
-51.54
-44.94
-38.43
-32.42
-27.18
-22.78
-19.07
-15.73
-12.31
-8.29
-3.22
3.14
10.68
18.97
27.29
34.92
41.34
46.38
50.17
53.04
55.29
57.07
58.36
58.93
58.57
57.02
54.15
49.95
44.61
38.51
32.24
26.50
21.98
19.24
18.53
19.76
22.55
26.33
30.48
34.46
37.93
40.74
42.98
44.83
46.52
48.19
49.86
51.46
52.89
54.10
55.19
56.36
57.87
59.88
62.46
65.50
68.83
72.22
75.39
77.99
79.58
79.62
77.59
73.20
66.53
58.05
48.49
38.56
28.74
19.13
9.63
0.10
-9.40
-18.59
-27.07
-34.52
-40.88
-46.29
-50.91
-54.63
-57.06
-57.53
-55.48
-50.73
-43.66
-35.22
-26.63
-19.24
-14.35
-13.14
-16.55
-24.97
-37.90
-53.71
-69.87
-83.53
-92.40
-95.35
-92.66
-85.61
-75.90
-65.12
-54.46
-44.74
-36.41
-29.62
-24.13
-19.28
-14.17
-8.11
-0.90
6.98
14.62
21.09
25.87
29.01
31.00
32.40
33.49
34.07
33.60
31.39
26.78
19.21
8.19
-6.64
-25.22
-46.82
-69.85
-92.16
-111.78
-127.77
-140.67
-152.30
-164.78
-179.46
-196.15
-213.24
-228.62
-240.58
-248.41
-252.19
-252.07
-247.64
-237.89
-221.80
-199.30
-171.85
-142.18
-113.37
-87.65
-65.67
-46.52
-28.65
-10.81
7.22
24.63
40.11
52.59
61.69
67.77
71.69
74.34
76.42
78.33
80.26
82.30
84.45
86.65
88.71
90.36
91.44
91.96
92.16
92.36
92.63
92.57
91.27
87.68
81.01
71.27
59.26
46.29
33.58
21.77
10.89
0.62
-9.25
-18.48
-26.42
-32.22
-35.04
-34.21
-29.22
-19.82
-6.17
10.91
29.94
49.06
66.50
81.10
92.53
101.11
107.45
111.99
114.85
115.91
114.94
111.84
106.69
99.72
91.22
81.43
70.42
58.03
43.91
27.73
9.49
-10.13
-29.86
-48.00
-62.98
-73.77
-80.11
-82.34
-81.18
-77.30
-71.13
-62.91
-52.75
-40.94
-27.98
-14.67
-1.89
9.54
19.13
26.84
32.96
37.97
42.23
45.81
48.56
50.18
50.53
49.71
48.05
45.98
43.76
41.42
38.65
35.14
30.69
25.41
19.67
13.98
8.69
3.95
-0.30
-4.19
-7.71
-10.63
-12.52
-12.94
-11.63
-8.57
-4.05
1.45
7.37
13.10
18.14
22.08
24.74
26.12
26.41
25.88
24.81
23.42
21.85
20.19
18.44
16.61
14.65
12.58
10.42
8.24
6.10
3.97
1.76
-0.67
-3.44
-6.48
-9.60
-12.41
-14.48
-15.45
-15.06
-13.25
-10.09
-5.87
-0.98
4.11
9.00
13.39
17.15
20.25
22.72
24.63
26.02
26.94
27.49
27.77
27.86
27.80
27.50
26.80
25.57
23.76
21.56
19.25
17.17
15.43
13.89
12.13
9.60
5.91
0.98
-4.90
-11.14
-17.06
-21.99
-25.37
-26.76
-25.92
-22.94
-18.21
-12.45
-6.42
-0.69
4.66
10.02
16.00
22.98
30.84
38.93
46.43
53.03
59.28
66.58
76.59
90.31
107.26
125.35
141.47
152.52
156.44
152.70
142.13
126.45
107.76
88.20
69.82
54.09
41.10
29.06
14.51
-6.32
-35.49
-71.79
-110.43
-144.65
-168.28
-178.11
-174.79
-161.95
-144.26
-125.43
-107.44
-90.81
-75.60
-62.10
-50.91
-42.48
-36.53
-32.01
-27.43
-21.66
-14.62
-7.57
-2.73
-2.44
-7.97
-18.96
-33.30
-47.84
-59.65
-67.12
-70.42
-71.15
-71.36
-72.45
-74.61
-76.95
-78.22
-77.62
-75.10
-71.20
-66.56
-61.45
-55.68
-48.78
-40.46
-30.89
-20.71
-10.79
-1.85
5.76
12.17
17.79
23.06
28.26
33.53
38.90
44.33
49.64
54.34
57.50
57.90
54.49
46.84
35.51
21.99
8.21
-4.02
-13.49
-19.75
-22.98
-23.80
-23.06
-21.85
-21.37
-22.75
-26.66
-33.01
-40.85
-48.63
-54.71
-57.90
-57.82
-54.83
-49.92
-44.30
-39.13
-35.27
-33.13
-32.60
-33.19
-34.32
-35.45
-36.34
-37.08
-37.97
-39.46
-42.05
-46.14
-51.77
-58.19
-63.51
-64.98
-59.80
-46.40
-25.58
-0.53
24.11
44.04
56.82
62.54
63.11
61.05
58.22
55.44
52.78
50.31
48.54
48.29
50.11
53.74
58.00
61.20
61.88
59.45
54.43
48.06
41.73
36.36
32.12
28.68
25.65
23.01
21.26
21.05
22.73
25.93
29.65
32.64
34.04
33.69
32.18
30.34
28.78
27.49
25.96
23.42
19.40
13.93
7.53
0.94
-5.22
-10.66
-15.27
-18.96
-21.51
-22.62
-22.18
-20.53
-18.44
-16.89
-16.56
-17.49
-19.01
-20.17
-20.12
-18.53
-15.57
-11.73
-7.49
-3.14
1.16
5.30
9.15
12.60
15.60
18.18
20.44
22.36
23.85
24.70
24.70
23.64
21.32
17.53
12.18
5.54
-1.50
-7.54
-10.95
-10.56
-6.17
1.28
10.08
18.49
25.47
30.89
35.27
39.09
42.27
44.07
43.43
39.65
32.84
23.88
14.05
4.40
-4.59
-13.01
-21.21
-29.39
-37.37
-44.71
-50.94
-55.78
-59.25
-61.43
-62.26
-61.45
-58.55
-53.19
-45.40
-35.71
-25.08
-14.57
-4.86
4.08
13.03
23.16
35.32
49.42
64.20
77.50
87.04
91.19
89.48
82.63
72.11
59.66
46.91
35.23
25.85
19.71
17.35
18.64
22.62
27.68
32.00
34.06
33.03
28.85
22.05
13.47
4.04
-5.32
-13.70
-20.21
-24.21
-25.50
-24.53
-22.29
-19.91
-18.22
-17.38
-16.91
-15.97
-13.87
-10.35
-5.56
0.05
6.04
12.06
17.84
23.14
27.86
32.01
35.87
39.90
44.51
49.86
55.70
61.55
67.01
72.04
77.22
83.61
92.31
103.97
118.18
133.33
146.66
154.87
154.88
144.69
123.78
93.31
55.62
13.55
-30.36
-74.41
-118.08
-161.99
-207.30
-254.65
-303.12
-349.54
-388.74
-414.78
-422.79
-410.72
-380.03
-335.27
-282.58
-227.94
-175.89
-129.13
-88.82
-55.30
-28.61
-8.58
5.35
14.32
20.08
24.56
29.31
35.01
41.09
46.19
48.76
47.84
43.48
36.76
29.18
22.06
16.04
11.13
7.02
3.62
1.27
0.68
2.58
7.21
14.11
22.17
29.99
36.44
40.93
43.57
44.92
45.67
46.33
47.18
48.30
49.66
51.21
52.82
54.20
54.96
54.74
53.45
51.32
48.83
46.44
44.27
42.06
39.23
35.28
30.02
23.78
17.31
11.55
7.34
5.16
5.01
6.39
8.47
10.25
10.99
10.38
8.64
6.32
4.02
2.02
0.16
-2.15
-5.67
-11.12
-18.81
-28.59
-39.77
-51.39
-62.38
-71.95
-79.65
-85.43
-89.45
-91.94
-93.04
-92.81
-91.30
-88.56
-84.55
-79.08
-71.72
-62.00
-49.71
-35.11
-19.04
-2.70
12.77
26.59
38.57
48.94
58.06
66.19
73.31
79.20
83.66
86.58
88.07
88.39
87.85
86.72
85.21
83.45
81.47
79.24
76.66
73.66
70.29
66.78
63.49
60.79
58.86
57.64
56.81
55.95
54.70
52.93
50.78
48.58
46.70
45.47
45.00
45.13
45.51
45.72
45.39
44.39
42.74
40.62
38.18
35.54
32.71
29.60
26.03
21.69
16.28
9.66
2.24
-5.01
-10.59
-13.06
-11.62
-6.57
0.66
8.02
13.51
15.85
14.67
10.39
3.84
-4.09
-12.58
-20.83
-27.98
-33.08
-35.29
-34.14
-29.81
-23.12
-15.35
-7.91
-1.86
2.28
4.57
5.42
5.25
4.24
2.32
-0.64
-4.54
-8.90
-12.93
-15.76
-16.90
-16.47
-15.13
-13.83
-13.33
-13.93
-15.42
-17.30
-19.11
-20.65
-22.05
-23.59
-25.46
-27.54
-29.35
-30.18
-29.33
-26.40
-21.43
-14.93
-7.70
-0.55
5.91
11.38
15.86
19.49
22.48
25.03
27.39
29.88
32.86
36.65
41.43
47.15
53.56
60.21
66.59
72.29
77.01
80.74
83.74
86.53
89.75
93.93
99.38
106.04
113.55
121.43
129.18
136.44
143.11
149.28
155.19
161.07
166.92
172.28
176.28
177.70
175.44
168.90
158.27
144.58
129.40
114.41
101.07
90.44
83.06
79.14
78.54
80.83
85.39
91.41
98.05
104.51
110.03
113.83
115.04
112.74
106.21
95.16
79.96
61.55
41.21
20.07
-1.17
-22.33
-43.48
-64.54
-85.01
-103.97
-120.35
-133.39
-142.87
-149.22
-153.20
-155.63
-157.09
-157.89
-158.12
-157.92
-157.46
-156.97
-156.50
-155.86
-154.63
-152.34
-148.67
-143.63
-137.56
-131.01
-124.56
-118.63
-113.42
-108.88
-104.85
-101.12
-97.51
-93.90
-90.20
-86.37
-82.31
-77.92
-73.03
-67.50
-61.32
-54.65
-47.75
-40.94
-34.46
-28.39
-22.67
-17.19
-11.81
-6.46
-1.00
4.71
10.81
17.37
24.25
31.16
37.79
43.95
49.80
55.73
62.24
69.67
78.10
87.37
97.21
107.43
117.32
126.41
134.60
141.74
147.40
150.87
151.66
149.65
145.06
137.61
127.16
113.84
97.99
79.91
59.95
38.63
16.60
-5.50
-28.70
-53.35
-78.63
-103.06
-125.68
-146.43
-165.90
-184.87
-203.96
-227.48
-257.22
-291.18
-325.43
-357.21
-385.68
-410.87
-432.61
-450.28
-471.32
-499.00
-529.70
-556.32
-574.48
-584.14
-587.74
-588.47
-589.55
-606.57
-646.58
-702.16
-756.66
-795.34
-810.47
-800.74
-769.61
-723.74
-687.68
-675.55
-683.19
-695.21
-699.51
-692.73
-677.51
-658.33
-533.08
-274.46
57.58
367.67
600.48
750.99
836.99
878.82
892.80
890.33
862.31
806.40
734.06
663.67
607.30
567.08
539.36
520.05
505.81
481.87
441.71
391.41
343.38
305.77
279.40
260.85
246.78
234.72
215.62
186.14
151.17
119.79
98.55
89.75
88.44
91.53
97.03
100.47
100.76
101.28
107.50
123.04
147.82
177.99
207.39
228.02
231.04
211.80
172.49
121.46
70.00
28.40
3.19
-3.39
6.39
27.44
53.10
76.15
89.52
87.75
68.81
35.51
-4.48
-41.35
-66.57
-75.61
-68.76
-49.75
-23.36
6.42
37.04
67.03
95.14
120.06
140.74
156.77
168.32
175.88
179.66
179.36
174.45
164.37
149.06
129.08
105.63
80.16
53.98
27.95
2.37
-22.73
-47.32
-71.11
-93.44
-113.37
-129.91
-142.29
-149.97
-152.77
-150.85
-144.71
-135.28
-123.85
-111.91
-100.82
-91.41
-83.71
-76.95
-69.77
-60.77
-49.19
-35.40
-21.07
-8.75
-1.08
0.24
-4.81
-14.33
-25.07
-33.40
-36.69
-34.12
-27.01
-18.11
-10.41
-5.88
-4.64
-4.91
-3.80
1.62
12.97
29.75
49.35
67.90
81.77
88.94
89.84
87.13
84.59
85.51
91.17
99.91
107.21
107.01
94.35
67.84
31.00
-8.66
-42.32
-63.18
-68.62
-60.60
-43.93
-23.59
-2.88
16.90
35.36
51.73
64.34
71.71
73.25
69.80
63.46
56.75
51.65
48.72
46.94
44.26
39.55
32.18
22.03
9.67
-3.39
-14.70
-21.55
-21.89
-15.19
-0.68
20.37
44.72
68.63
89.76
107.98
124.32
139.55
153.51
168.58
186.07
205.25
223.38
237.23
244.35
243.55
235.32
221.92
211.01
208.52
215.53
228.19
241.20
251.17
257.46
261.30
237.44
173.93
76.98
-32.04
-131.57
-209.18
-260.52
-286.27
-290.78
-281.32
-262.24
-237.84
-212.89
-191.91
-177.25
-168.27
-162.71
-158.38
-154.02
-145.80
-131.42
-111.13
-87.65
-64.09
-42.52
-23.89
-8.72
2.64
12.27
22.13
33.28
45.65
58.66
71.37
82.15
88.66
88.55
81.57
69.01
53.29
37.25
23.48
13.50
7.08
1.99
-5.25
-17.90
-38.35
-67.42
-104.05
-145.36
-187.19
-225.06
-255.37
-276.19
-287.62
-291.43
-290.37
-287.43
-285.26
-285.81
-289.78
-296.18
-302.13
-303.23
-294.78
-273.43
-238.71
-193.60
-143.44
-93.60
-47.48
-5.94
31.84
66.75
98.51
125.68
146.37
159.39
165.09
164.92
160.42
152.42
141.06
126.23
109.61
94.01
81.54
73.03
68.36
67.02
68.11
70.23
71.50
69.86
64.26
54.72
42.88
31.50
23.21
19.32
19.36
21.66
24.43
26.64
27.61
27.38
26.28
24.34
21.10
15.93
8.61
-0.36
-10.00
-19.38
-27.72
-34.60
-39.87
-43.45
-45.26
-45.29
-43.87
-41.79
-40.18
-39.93
-41.31
-43.97
-47.14
-49.93
-51.78
-52.57
-52.40
-51.43
-49.64
-46.98
-43.58
-39.88
-36.48
-33.89
-32.28
-31.35
-30.44
-28.91
-26.39
-23.01
-19.32
-15.81
-12.83
-10.49
-8.48
-6.21
-3.13
1.05
6.02
10.99
15.54
19.39
22.55
25.53
29.25
34.73
42.96
54.41
68.67
85.08
101.28
113.39
117.66
112.65
100.19
85.69
75.74
75.38
87.58
110.59
138.76
165.46
186.02
198.32
203.07
201.55
194.66
184.81
173.54
161.21
147.67
133.11
117.51
101.70
86.49
61.01
23.77
-17.86
-53.80
-79.24
-92.02
-98.88
-104.46
-110.55
-116.82
-121.71
-123.24
-121.03
-116.30
-110.54
-105.34
-100.67
-96.07
-91.17
-84.65
-76.35
-67.22
-58.72
-51.63
-46.28
-41.76
-37.08
-31.72
-24.84
-16.48
-6.94
3.35
14.39
26.24
39.64
55.30
73.46
93.91
110.81
118.19
113.36
99.14
81.14
64.23
50.38
39.08
28.93
18.88
9.57
2.63
-0.61
-0.35
1.74
3.49
3.39
1.22
-2.50
-5.98
-7.70
-7.30
-5.79
-4.76
-5.42
-7.86
-11.11
-13.50
-13.36
-9.51
-1.93
8.01
18.14
26.17
30.32
29.34
25.37
19.64
13.31
7.31
2.12
-2.14
-5.49
-7.98
-9.66
-10.62
-11.43
-12.55
-14.41
-17.27
-21.13
-25.71
-30.52
-35.00
-38.67
-41.71
-44.40
-47.18
-50.43
-54.45
-59.28
-64.73
-70.33
-75.63
-80.67
-85.64
-90.77
-96.35
-102.56
-109.60
-117.45
-125.65
-133.60
-140.87
-147.16
-152.35
-156.68
-160.82
-165.69
-171.87
-178.94
-185.95
-191.78
-195.16
-194.70
-188.89
-176.40
-156.41
-128.68
-93.40
-52.03
-7.25
37.79
80.35
118.54
151.23
176.60
189.82
188.45
174.79
154.24
132.26
112.90
98.59
89.85
85.23
81.86
77.98
71.05
59.69
44.38
27.26
11.32
-0.98
-8.61
-12.01
-12.38
-11.33
-11.12
-13.07
-17.03
-21.41
-24.02
-23.16
-18.38
-10.40
-0.94
8.47
17.58
27.76
41.55
61.65
89.79
125.89
167.41
209.05
243.51
263.42
263.83
244.30
209.38
167.00
125.72
92.07
69.06
56.72
53.66
58.38
69.45
84.76
100.62
111.99
113.91
103.84
83.26
57.74
35.08
22.47
23.86
38.58
61.62
85.27
101.26
102.68
85.57
49.87
-0.37
-57.57
-112.31
-155.70
-182.01
-190.18
-183.73
-169.14
-153.32
-141.41
-135.93
-137.07
-143.95
-155.48
-170.80
-189.12
-209.44
-230.45
-250.83
-269.39
-284.95
-295.78
-299.16
-291.40
-268.89
-229.77
-175.40
-110.61
-42.71
20.67
73.45
112.16
135.87
145.61
143.66
133.19
118.02
102.05
88.50
79.13
73.78
70.77
67.88
63.44
56.90
48.81
40.23
32.15
25.09
19.04
13.68
8.61
3.68
-0.99
-4.97
-7.80
-9.17
-9.10
-7.88
-5.82
-3.05
0.62
5.62
12.66
22.51
35.87
53.06
73.45
95.07
114.63
128.29
132.95
127.58
113.74
95.02
75.58
58.64
45.61
36.14
28.99
23.06
18.00
14.02
11.42
9.94
8.70
6.49
2.37
-3.92
-11.79
-19.98
-27.03
-31.76
-33.68
-32.87
-29.48
-23.47
-14.60
-2.92
10.64
23.88
33.63
36.89
32.11
20.35
4.70
-11.12
-24.24
-33.41
-38.77
-41.00
-40.64
-37.84
-32.13
-23.76
-14.26
-6.06
-1.18
-0.17
-1.92
-4.34
-5.39
-2.92
3.76
13.54
24.01
32.86
38.86
42.11
43.66
44.89
48.24
55.28
65.96
78.82
92.32
105.71
119.20
133.29
139.83
132.92
111.91
82.09
50.17
20.55
-5.13
-26.88
-45.43
-61.60
-74.68
-83.98
-89.69
-94.18
-99.69
-107.61
-117.74
-128.07
-134.78
-132.53
-117.70
-90.70
-56.40
-21.87
6.39
25.02
32.82
31.01
23.17
12.82
2.04
-8.34
-17.39
-23.44
-23.76
-17.07
-5.45
6.73
15.29
18.12
15.45
9.07
0.79
-8.15
-17.42
-27.37
-37.42
-46.14
-51.87
-53.21
-49.49
-41.21
-29.96
-18.38
-9.30
-4.68
-4.74
-8.35
-13.18
-16.36
-15.88
-10.88
-2.35
7.26
15.12
18.97
17.78
11.71
2.54
-6.99
-13.10
-12.43
-3.24
13.91
36.37
60.33
81.83
98.74
107.25
106.19
97.84
86.21
74.01
61.62
50.50
39.69
29.47
20.58
14.05
10.25
8.62
8.76
10.44
13.56
17.16
19.76
19.27
14.40
5.24
-6.76
-19.17
-29.68
-37.00
-41.73
-45.31
-49.33
-54.18
-59.00
-62.54
-63.82
-62.63
-59.24
-54.14
-47.44
-39.24
-30.04
-21.29
-15.03
-12.93
-15.14
-20.01
-25.09
-28.30
-29.14
-28.64
-28.55
-30.18
-33.68
-38.06
-42.16
-45.58
-48.71
-52.18
-56.12
-59.76
-61.81
-60.96
-56.11
-47.17
-35.37
-22.76
-11.20
-1.65
5.96
12.43
18.84
26.63
36.52
47.52
57.67
65.24
69.59
71.25
71.35
71.13
72.53
77.27
85.67
97.12
110.50
124.14
135.57
141.58
134.10
109.32
71.79
31.72
-1.41
-23.59
-35.91
-41.97
-45.54
-49.15
-54.28
-60.26
-68.05
-79.10
-93.97
-111.27
-127.95
-140.69
-147.44
-147.96
-140.29
-127.56
-114.44
-104.50
-98.81
-96.14
-94.31
-91.70
-87.50
-81.87
-76.52
-72.73
-70.54
-68.69
-65.18
-58.14
-46.52
-30.33
-10.65
9.83
28.39
43.03
52.90
58.17
59.62
58.29
55.46
52.63
51.02
51.83
55.73
62.46
70.82
79.07
85.58
89.47
90.75
89.86
87.55
84.45
81.00
77.54
74.43
72.06
70.76
70.68
71.64
73.18
74.69
75.51
75.10
73.20
69.86
65.46
60.58
55.89
52.00
49.38
48.27
48.51
49.55
50.51
50.50
48.95
46.01
42.54
39.88
39.28
41.40
45.83
51.13
55.10
55.47
50.61
40.18
25.34
8.49
-7.42
-19.81
-27.20
-29.45
-27.52
-22.86
-16.75
-9.95
-2.65
5.08
12.95
20.15
25.36
27.13
24.37
16.68
4.65
-10.26
-26.17
-41.17
-54.00
-64.30
-72.85
-81.19
-91.09
-103.77
-119.33
-136.47
-152.86
-165.93
-173.81
-175.95
-173.13
-167.04
-159.55
-152.10
-145.42
-139.48
-133.66
-126.76
-117.27
-103.62
-84.68
-60.18
-31.04
0.76
32.72
62.39
87.99
108.60
124.06
134.66
140.88
143.34
142.86
140.46
137.32
134.53
132.82
132.41
133.11
134.60
136.71
139.51
143.13
147.40
151.51
153.97
152.81
146.13
132.71
112.51
86.87
58.23
29.61
3.71
-17.83
-35.08
-49.67
-64.01
-79.80
-96.74
-111.79
-119.79
-115.36
-95.03
-59.09
-12.25
37.36
80.11
107.08
111.86
91.92
49.44
-8.47
-70.77
-124.81
-159.90
-170.63
-158.51
-131.00
-98.22
-69.03
-48.25
-36.17
-30.15
-26.99
-24.56
-22.12
-19.49
-16.25
-11.53
-4.56
4.63
14.93
24.68
32.30
37.03
39.21
39.85
40.06
40.40
40.43
38.90
34.27
25.51
12.63
-3.25
-20.29
-36.45
-50.09
-60.37
-67.40
-71.91
-74.81
-76.84
-78.32
-79.10
-78.69
-76.48
-72.14
-66.12
-59.25
-52.34
-45.86
-39.85
-34.11
-28.47
-22.95
-17.87
-14.28
-12.80
-13.24
-14.58
-15.80
-16.27
-15.99
-15.28
-14.59
-15.22
-17.80
-21.93
-26.49
-30.43
-33.13
-34.56
-34.87
-34.38
-34.67
-36.60
-39.64
-42.05
-42.02
-38.38
-31.15
-20.98
-0.88
30.78
69.56
107.38
138.15
160.09
174.33
182.43
185.89
185.87
182.06
174.78
164.98
154.89
146.53
141.01
137.78
135.73
133.53
129.11
121.43
110.93
99.10
86.70
77.31
71.04
66.26
60.41
50.56
35.14
14.45
-9.56
-34.51
-57.81
-77.73
-92.87
-102.62
-107.79
-110.33
-112.90
-118.02
-127.79
-142.48
-161.24
-182.42
-204.68
-227.65
-251.94
-278.94
-310.14
-346.44
-385.66
-422.52
-449.15
-457.54
-442.16
-402.08
-341.47
-268.19
-191.77
-119.17
-53.95
3.13
52.24
93.58
127.13
153.01
175.91
194.76
206.58
210.48
209.10
205.67
201.46
195.03
183.33
163.56
134.61
99.71
63.68
31.83
7.61
-8.10
-16.56
-20.16
-21.14
-21.35
-21.16
-20.29
-17.94
-15.24
-13.61
-13.38
-13.25
-10.78
-4.28
6.45
19.06
29.30
32.70
27.22
14.66
0.19
-9.81
-10.50
-0.03
20.15
46.44
74.46
100.70
122.87
139.54
149.62
152.16
146.87
134.77
118.37
101.17
86.55
76.46
70.55
66.48
61.13
52.11
38.88
22.72
5.89
-9.57
-22.70
-33.68
-43.34
-52.43
-61.24
-69.58
-77.05
-83.24
-87.80
-90.35
-90.50
-87.94
-82.64
-75.01
-65.86
-56.23
-47.06
-38.92
-31.98
-25.98
-20.40
-14.68
-8.42
-1.50
5.81
12.93
19.15
23.89
26.92
28.43
28.91
28.91
28.83
28.88
29.08
29.44
29.97
30.61
31.14
31.19
30.30
28.14
24.71
20.36
15.69
11.42
8.07
5.88
4.79
4.50
4.70
5.18
5.94
7.14
8.96
11.45
14.31
16.99
18.80
19.24
18.23
16.19
13.80
11.61
9.66
7.44
4.19
-0.71
-7.21
-14.54
-21.36
-26.20
-27.88
-25.68
-19.56
-10.21
0.78
10.97
17.45
17.81
11.17
-1.10
-15.48
-27.55
-33.73
-32.61
-25.36
-14.87
-4.18
4.94
12.48
19.79
28.54
39.85
54.02
70.78
89.86
111.27
135.29
161.86
189.93
216.97
239.09
251.86
251.83
237.94
212.24
179.40
145.07
114.13
89.45
71.65
59.78
52.06
45.99
38.04
23.84
-0.65
-36.96
-82.36
-129.83
-170.28
-196.11
-204.22
-196.71
-179.05
-156.81
-133.09
-108.09
-80.71
-50.86
-20.91
4.91
22.54
30.26
29.45
23.64
16.50
10.08
4.45
-1.37
-7.75
-13.46
-16.37
-15.02
-10.33
-5.94
-6.70
-16.12
-34.31
-57.57
-80.28
-97.74
-108.32
-113.66
-117.05
-120.94
-125.46
-128.45
-126.81
-118.59
-103.94
-84.54
-62.31
-38.59
-14.26
9.27
29.63
44.27
51.20
50.48
44.86
38.91
37.16
42.14
53.35
67.72
81.84
91.94
95.24
90.90
80.43
67.11
54.46
44.84
38.48
35.32
34.13
34.14
36.54
44.41
60.72
86.05
117.34
148.85
176.20
195.38
203.59
200.04
186.24
165.37
141.81
120.43
92.91
59.39
25.02
-5.06
-29.87
-51.59
-72.09
-91.13
-106.99
-118.33
-123.35
-122.94
-120.48
-118.83
-119.11
-120.85
-122.68
-123.74
-124.33
-124.03
-123.73
-124.91
-127.07
-127.48
-124.06
-116.89
-108.15
-100.52
-93.65
-85.66
-74.62
-59.88
-42.88
-26.50
-13.03
-2.45
6.38
15.95
27.55
40.29
51.68
59.12
61.53
60.14
58.18
56.07
54.86
54.21
52.44
47.61
39.00
28.06
15.94
5.71
1.17
5.51
18.52
35.54
50.01
55.40
48.10
28.52
1.22
-27.25
-50.78
-63.32
-61.50
-48.92
-34.95
-28.07
-30.42
-37.36
-41.83
-39.41
-31.02
-21.64
-17.01
-20.24
-30.73
-45.38
-59.94
-70.60
-73.63
-66.55
-48.90
-23.03
6.48
34.31
55.96
67.17
67.82
61.54
52.55
43.70
35.91
29.31
24.41
21.95
22.08
23.75
25.18
23.32
16.52
5.18
-8.08
-19.67
-26.63
-27.77
-23.49
-15.51
-6.31
2.09
8.29
11.73
12.60
11.65
9.98
8.89
9.35
11.23
14.08
17.05
19.23
19.97
19.19
17.37
15.48
14.48
14.93
16.90
19.87
22.96
25.22
25.97
25.08
23.03
20.69
18.83
17.92
17.72
17.55
16.61
14.40
10.94
6.60
1.81
-3.23
-8.56
-14.31
-20.60
-27.45
-34.84
-42.74
-51.13
-59.74
-67.95
-74.80
-79.25
-80.53
-78.50
-73.62
-66.74
-58.85
-50.72
-42.97
-36.07
-30.40
-26.28
-23.68
-22.23
-21.22
-19.92
-17.97
-15.60
-13.57
-12.78
-13.74
-16.34
-19.89
-23.59
-26.98
-30.15
-33.66
-38.11
-43.83
-50.69
-58.15
-65.51
-71.99
-76.83
-79.29
-79.00
-76.36
-72.79
-70.57
-72.02
-78.39
-88.95
-100.91
-110.35
-113.64
-108.77
-95.82
-76.47
-53.00
-27.30
-0.56
26.41
52.64
76.72
97.08
112.70
123.70
131.52
138.37
146.37
156.66
169.00
181.95
193.49
201.77
205.89
206.15
203.92
201.05
198.86
197.36
195.07
189.70
179.47
164.10
144.73
122.88
98.99
71.96
39.95
2.00
-40.52
-84.00
-124.01
-157.22
-182.36
-199.72
-209.81
-212.31
-206.31
-191.60
-169.97
-145.28
-122.06
-103.60
-90.69
-81.92
-75.12
-69.00
-63.81
-60.74
-60.71
-63.34
-66.83
-68.64
-66.47
-58.86
-45.30
-25.91
-1.27
27.56
58.79
89.77
117.46
139.22
153.82
161.80
165.14
166.20
166.83
167.82
169.26
170.97
173.03
175.63
178.60
180.92
180.57
175.04
162.32
141.80
114.70
83.72
51.91
21.41
-7.34
-35.43
-64.32
-94.33
-123.67
-148.65
-165.20
-171.02
-167.00
-157.09
-146.57
-139.63
-137.64
-139.08
-140.90
-140.45
-136.94
-131.29
-125.05
-119.18
-113.39
-106.29
-96.31
-82.59
-65.13
-44.54
-21.56
3.12
28.73
54.07
77.51
97.40
112.63
123.04
129.35
132.65
133.92
133.67
132.25
130.06
127.69
125.76
124.39
122.88
119.80
113.45
102.51
86.43
65.43
40.35
12.48
-16.44
-44.26
-68.65
-87.64
-100.26
-106.89
-109.03
-108.61
-107.17
-105.28
-102.54
-98.01
-90.84
-80.60
-67.49
-52.01
-34.87
-16.88
0.86
16.82
29.18
36.44
38.26
35.87
31.85
28.98
29.00
31.67
34.98
36.36
34.10
28.24
20.36
12.53
6.21
1.75
-1.28
-3.36
-4.61
-4.93
-4.58
-4.50
-6.08
-10.39
-17.22
-24.79
-30.38
-31.64
-27.84
-20.31
-11.63
-4.38
-0.06
1.11
-0.53
-4.87
-12.30
-23.08
-36.41
-49.94
-60.36
-64.88
-62.53
-54.61
-43.81
-32.58
-21.93
-11.37
0.16
13.08
26.50
38.55
47.34
51.99
53.00
51.86
50.23
49.24
49.18
49.70
50.22
50.34
49.85
48.58
46.05
41.45
33.71
22.04
6.37
-12.49
-33.19
-54.51
-75.79
-96.80
-116.99
-134.78
-147.54
-152.56
-148.53
-136.57
-120.04
-103.08
-88.83
-78.36
-70.87
-64.94
-59.76
-55.57
-53.10
-52.53
-52.95
-52.71
-50.36
-45.56
-39.29
-33.21
-28.48
-24.94
-20.97
-14.12
-2.28
15.43
38.23
64.02
90.22
114.46
134.97
150.27
158.87
159.10
149.76
130.98
104.81
75.07
46.37
22.68
6.27
-2.55
-4.92
-2.42
3.70
12.67
23.93
36.46
48.34
56.79
58.93
52.81
38.63
19.19
-0.71
-15.79
-22.35
-19.76
-10.58
0.72
9.77
13.95
12.97
8.33
2.18
-3.67
-8.05
-10.21
-9.71
-6.46
-1.06
5.18
10.60
14.05
15.48
16.09
17.66
21.62
28.33
37.09
46.50
55.05
61.53
64.95
64.54
59.77
50.59
37.66
22.49
7.11
-6.37
-16.20
-21.25
-21.16
-16.31
-7.73
3.10
14.66
25.75
35.81
44.87
53.23
60.96
67.65
72.34
73.82
71.08
63.57
51.35
35.00
15.43
-6.24
-28.58
-49.81
-67.87
-80.71
-86.94
-86.36
-80.13
-70.47
-59.83
-49.84
-40.79
-31.70
-21.23
-8.79
4.73
16.91
24.41
24.04
13.76
-6.61
-34.94
-66.74
-95.73
-115.36
-120.75
-110.55
-87.68
-58.36
-29.90
-7.86
5.64
12.04
14.82
17.37
21.41
26.64
31.56
34.53
34.63
31.72
26.08
17.95
7.48
-5.12
-19.20
-33.42
-45.92
-54.77
-58.64
-57.42
-52.29
-45.35
-38.82
-34.29
-32.39
-33.06
-36.17
-42.00
-51.37
-64.99
-82.69
-102.88
-122.40
-137.17
-143.11
-137.26
-118.69
-88.81
-51.32
-11.32
25.86
56.06
77.26
89.86
96.02
98.49
99.48
100.01
99.95
98.67
95.65
90.88
84.77
77.84
70.42
62.65
54.64
46.73
39.69
34.54
32.14
32.69
35.50
39.12
41.89
42.50
40.46
36.10
30.29
24.02
18.07
12.82
8.33
4.43
0.94
-2.24
-5.12
-7.64
-9.78
-11.59
-13.31
-15.21
-17.52
-20.23
-23.03
-25.32
-26.41
-25.69
-22.87
-18.19
-12.34
-6.44
-1.69
0.97
1.19
-0.64
-3.54
-6.32
-7.96
-8.07
-6.92
-5.32
-4.23
-4.35
-5.85
-8.29
-10.80
-12.49
-12.70
-11.14
-7.89
-3.13
2.96
10.29
18.65
27.46
35.76
42.33
46.05
46.31
43.02
36.35
26.32
12.90
-3.56
-21.77
-39.29
-53.18
-61.21
-62.90
-59.81
-54.75
-50.40
-48.17
-47.83
-48.17
-47.98
-46.71
-44.45
-41.42
-37.50
-32.11
-24.59
-14.60
-2.26
11.99
27.66
44.22
60.87
76.39
89.20
97.94
102.25
102.95
101.65
99.60
96.86
92.10
83.50
70.09
52.68
33.82
16.67
3.51
-5.23
-10.87
-15.47
-20.58
-26.54
-32.58
-37.57
-40.87
-42.83
-44.62
-47.72
-53.02
-60.40
-68.49
-75.27
-78.78
-77.81
-72.38
-63.53
-52.75
-41.43
-30.35
-19.76
-9.63
-0.06
8.51
15.41
19.97
21.89
21.37
19.01
15.57
11.64
7.46
2.93
-2.17
-7.94
-14.19
-20.47
-26.20
-30.98
-34.69
-37.54
-39.94
-42.30
-44.82
-47.50
-50.13
-52.48
-54.39
-55.83
-56.89
-57.67
-58.27
-58.74
-58.94
-58.57
-57.08
-53.79
-48.14
-40.01
-29.97
-19.30
-9.70
-2.79
0.34
-0.63
-5.24
-12.51
-21.23
-30.32
-38.94
-46.62
-53.21
-58.83
-63.69
-67.87
-71.22
-73.31
-73.59
-71.66
-67.41
-61.09
-53.12
-43.84
-33.42
-21.87
-9.20
4.29
17.96
30.93
42.22
51.02
56.84
59.52
59.28
56.62
52.25
46.95
41.44
36.22
31.61
27.71
24.60
22.36
21.06
20.70
21.07
21.87
22.73
23.50
24.27
25.47
27.85
32.30
39.73
50.64
64.75
80.71
96.19
108.34
114.67
113.86
106.24
93.61
78.64
63.97
51.55
42.39
36.67
34.13
34.33
36.75
40.76
45.53
50.11
53.57
55.38
55.42
54.08
51.96
49.61
47.30
45.03
42.67
40.06
37.25
34.42
31.83
29.78
28.56
28.38
29.30
31.20
33.69
36.22
38.19
39.25
39.39
38.99
38.64
38.90
40.04
41.98
44.37
46.73
48.60
49.67
49.81
49.15
48.06
47.14
47.12
48.64
51.99
56.98
62.92
68.88
74.00
77.78
80.26
81.89
83.46
85.83
89.67
95.13
101.57
107.30
109.67
105.72
93.10
71.26
42.16
10.07
-19.56
-41.91
-54.46
-57.65
-54.46
-48.96
-44.69
-43.53
-45.46
-49.15
-52.81
-55.02
-55.09
-53.04
-49.52
-45.50
-42.14
-40.53
-41.35
-44.60
-49.42
-54.18
-56.91
-56.09
-51.51
-44.77
-39.07
-38.05
-44.17
-57.38
-74.79
-91.70
-103.42
-106.99
-101.93
-89.88
-73.40
-55.05
-36.97
-21.13
-9.50
-3.88
-5.10
-12.41
-23.32
-34.38
-42.43
-45.65
-43.94
-38.48
-30.93
-22.67
-14.47
-6.59
0.82
7.52
13.10
16.93
18.22
15.87
8.75
-4.04
-22.34
-44.35
-66.59
-84.65
-94.59
-94.23
-83.72
-65.01
-40.89
-14.33
11.35
31.98
42.67
39.19
20.28
-10.72
-45.95
-75.67
-92.06
-92.20
-78.78
-58.15
-36.95
-19.28
-5.61
6.16
18.72
33.52
50.07
66.39
80.15
89.70
94.61
95.72
94.37
92.43
91.91
94.77
102.70
117.13
138.99
168.31
203.55
240.99
275.80
303.29
320.18
325.32
319.83
306.47
288.57
268.91
248.18
226.41
203.67
180.37
156.81
133.03
108.76
83.62
57.33
27.48
-6.71
-43.69
-80.79
-116.21
-149.73
-182.14
-214.31
-246.36
-282.57
-323.93
-367.19
-407.19
-440.84
-468.20
-491.10
-511.61
-531.08
-558.63
-598.80
-648.88
-700.99
-747.26
-781.86
-800.90
-802.12
-784.88
-761.28
-739.34
-719.01
-695.17
-664.59
-628.34
-590.20
-554.50
-461.96
-297.90
-95.01
93.96
237.50
332.35
388.16
415.56
419.28
409.70
385.55
351.11
318.21
300.15
302.94
323.30
352.13
377.49
391.08
382.78
354.43
319.22
294.74
292.98
315.75
356.76
404.76
449.43
479.47
492.53
493.72
490.65
487.66
483.83
475.93
459.67
433.14
395.74
352.05
308.35
269.61
237.74
211.87
191.33
173.95
156.61
134.87
105.63
65.71
13.23
-50.49
-125.71
-197.47
-247.71
-268.59
-270.67
-262.61
-249.08
-232.59
-211.70
-187.84
-163.12
-142.19
-129.80
-127.46
-131.57
-137.16
-140.10
-138.51
-133.43
-126.54
-120.50
-116.71
-113.52
-106.49
-92.64
-72.43
-49.66
-29.99
-17.37
-13.56
-17.30
-24.97
-32.07
-36.34
-38.38
-40.27
-43.98
-49.55
-55.71
-60.78
-63.53
-63.58
-61.85
-59.71
-57.85
-56.02
-53.11
-48.31
-41.69
-34.18
-26.93
-20.80
-15.99
-12.04
-8.43
-4.98
-2.00
-0.08
0.47
-0.14
-1.17
-1.89
-2.05
-1.99
-2.45
-3.88
-5.96
-7.57
-7.29
-4.20
1.48
8.33
14.30
17.62
17.62
14.91
11.11
8.06
7.14
9.00
13.55
20.30
28.67
38.08
47.94
57.63
66.45
73.83
79.39
83.07
85.12
85.93
85.87
85.13
83.76
81.70
78.97
75.73
72.35
69.25
66.70
64.78
63.29
61.98
60.71
59.53
58.54
57.74
56.73
54.82
51.24
45.56
38.04
29.62
21.60
15.20
11.13
9.45
9.73
11.35
13.67
16.18
18.43
20.02
20.60
19.99
18.28
15.80
12.96
10.11
7.46
5.09
3.10
1.68
1.00
1.14
1.91
2.92
3.69
3.86
3.42
2.61
1.92
1.78
2.43
3.80
5.54
7.09
7.85
7.40
5.62
2.86
-0.19
-2.66
-3.81
-3.31
-1.31
1.61
4.73
7.44
9.47
10.89
12.01
13.13
14.29
15.30
15.78
15.42
14.17
12.29
10.23
8.44
7.12
6.25
5.67
5.22
4.84
4.51
4.19
3.72
2.86
1.44
-0.59
-3.03
-5.58
-7.95
-10.01
-11.79
-13.35
-14.77
-15.98
-16.83
-17.17
-16.92
-16.07
-14.63
-12.62
-10.04
-6.99
-3.66
-0.37
2.54
4.77
6.24
7.04
7.38
7.51
7.61
7.75
7.95
8.15
8.26
8.18
7.83
7.16
6.21
5.12
4.02
3.05
2.22
1.51
0.84
0.19
-0.47
-1.20
-2.13
-3.47
-5.41
-7.95
-10.85
-13.65
-15.82
-16.93
-16.83
-15.64
-13.71
-11.47
-9.27
-7.36
-5.86
-4.79
-4.11
-3.71
-3.46
-3.20
-2.81
-2.21
-1.41
-0.52
0.26
0.69
0.55
-0.27
-1.68
-3.46
-5.27
-6.87
-8.08
-8.92
-9.49
-9.91
-10.29
-10.68
-11.12
-11.61
-12.21
-12.89
-13.58
-14.14
-14.40
-14.24
-13.58
-12.41
-10.68
-8.38
-5.59
-2.45
0.73
3.67
6.07
7.84
9.02
9.75
10.19
10.40
10.35
9.95
9.14
7.92
6.42
4.91
3.68
2.98
2.91
3.37
4.10
4.79
5.18
5.15
4.76
4.09
3.19
2.02
0.49
-1.46
-3.76
-6.19
-8.45
-10.26
-11.45
-12.02
-12.05
-11.66
-10.98
-10.13
-9.39
-9.14
-9.73
-11.23
-13.15
-14.46
-13.93
-10.68
-4.77
2.71
9.99
15.34
17.66
16.75
12.97
6.89
-1.01
-10.23
-19.86
-28.39
-34.04
-35.40
-32.15
-25.34
-17.12
-9.91
-5.61
-5.09
-8.11
-13.69
-20.43
-26.84
-31.60
-33.70
-32.61
-28.47
-22.04
-14.44
-6.85
-0.16
5.19
9.12
11.75
13.22
13.67
13.21
12.12
10.74
9.46
8.54
8.05
7.87
7.80
7.68
7.45
7.11
6.67
6.12
5.38
4.41
3.23
1.88
0.41
-1.16
-2.85
-4.71
-6.76
-9.05
-11.53
-14.07
-16.37
-18.02
-18.54
-17.62
-15.22
-11.63
-7.34
-2.91
1.26
4.94
8.03
10.46
12.15
13.03
13.09
12.49
11.46
10.29
9.21
8.32
7.62
7.05
6.51
5.91
5.17
4.25
3.16
1.94
0.64
-0.73
-2.20
-3.89
-5.89
-8.27
-10.99
-13.88
-16.65
-18.92
-20.29
-20.45
-19.25
-16.78
-13.33
-9.33
-5.16
-1.09
2.77
6.38
9.64
12.38
14.35
15.37
15.44
14.78
13.74
12.66
11.78
11.12
10.59
10.06
9.41
8.59
7.57
6.38
4.97
3.37
1.56
-0.42
-2.53
-4.71
-6.97
-9.40
-12.09
-15.08
-18.24
-21.17
-23.28
-23.97
-22.85
-19.94
-15.66
-10.67
-5.63
-0.98
3.10
6.65
9.72
12.32
14.36
15.75
16.45
16.52
16.13
15.51
14.86
14.34
14.03
13.92
13.93
13.90
13.65
13.11
12.29
11.27
10.14
8.91
7.49
5.75
3.60
0.98
-2.06
-5.46
-9.07
-12.63
-15.75
-17.94
-18.74
-17.89
-15.40
-11.61
-7.02
-2.16
2.51
6.68
10.17
12.89
14.84
16.06
16.65
16.65
16.10
15.02
13.53
11.84
10.25
9.00
8.17
7.62
7.10
6.34
5.25
3.93
2.55
1.24
0.01
-1.25
-2.70
-4.44
-6.50
-8.83
-11.39
-14.05
-16.61
-18.74
-20.04
-20.08
-18.57
-15.45
-10.97
-5.59
0.07
5.40
9.94
13.42
15.80
17.20
17.82
17.86
17.43
16.67
15.65
14.50
13.39
12.48
11.86
11.52
11.33
11.11
10.64
9.77
8.46
6.83
5.09
3.40
1.81
0.26
-1.36
-3.22
-5.46
-8.10
-10.98
-13.74
-15.85
-16.80
-16.12
-13.53
-9.17
-3.62
2.35
8.01
12.89
16.79
19.76
22.01
23.96
25.63
26.64
26.55
25.31
23.40
21.75
21.47
23.32
27.96
34.72
41.94
48.08
52.66
56.17
59.49
63.16
67.04
71.55
76.53
81.82
87.93
95.90
106.24
117.91
128.50
135.23
137.37
134.51
126.24
112.36
93.13
69.18
41.81
13.44
-20.20
-54.44
-80.36
-92.72
-94.36
-92.79
-94.47
-101.56
-111.84
-120.69
-123.09
-117.31
-104.86
-88.98
-72.71
-58.25
-46.93
-39.50
-36.20
-35.75
-36.96
-38.53
-38.89
-36.46
-30.74
-23.25
-17.38
-17.11
-24.62
-39.86
-60.13
-80.47
-95.17
-99.95
-93.47
-77.64
-56.45
-33.98
-13.32
4.01
18.01
29.67
40.33
51.13
62.67
74.69
85.85
93.62
94.70
85.95
65.36
32.85
-9.49
-57.53
-105.75
-148.35
-180.58
-200.02
-207.08
-204.38
-195.39
-182.83
-167.86
-150.37
-130.05
-107.50
-84.45
-63.02
-44.79
-30.24
-19.17
-11.39
-7.11
-6.45
-8.68
-11.79
-13.17
-10.82
-4.65
3.34
10.00
12.57
9.86
2.54
-7.47
-17.98
-27.23
-34.07
-37.95
-38.90
-37.66
-35.61
-34.41
-35.13
-37.77
-40.99
-42.82
-41.60
-36.85
-29.44
-20.75
-11.59
-1.36
11.59
29.18
52.81
82.98
119.32
160.30
202.79
241.55
269.84
280.68
269.72
237.86
191.89
142.26
98.93
67.60
48.66
39.30
35.64
35.31
38.27
45.72
57.94
72.86
86.38
94.38
95.54
90.39
80.65
68.59
56.31
45.55
37.15
31.24
28.36
30.53
38.61
51.23
65.02
75.46
78.44
71.58
55.77
28.09
-5.18
-33.83
-51.47
-59.27
-62.40
-63.86
-61.54
-55.22
-46.82
-39.66
-38.69
-47.46
-64.90
-85.98
-100.83
-99.55
-77.59
-40.62
-1.53
26.82
38.20
34.43
21.44
6.76
-8.10
-24.57
-44.31
-66.68
-89.33
-109.64
-120.62
-118.92
-105.46
-85.17
-63.89
-45.15
-28.41
-10.50
11.04
36.01
60.57
79.93
90.94
93.21
88.60
80.50
72.27
65.28
59.06
51.39
40.05
23.33
0.28
-29.63
-66.72
-107.33
-147.58
-183.25
-210.98
-228.42
-235.28
-233.19
-224.84
-212.32
-195.62
-173.72
-145.37
-110.84
-72.09
-33.35
-0.32
22.22
32.59
33.95
31.91
32.49
39.67
54.82
75.43
95.41
107.35
105.23
87.78
57.60
20.57
-15.16
-39.83
-45.60
-29.56
5.52
52.04
101.56
145.30
176.42
184.06
164.88
127.97
88.81
62.36
46.57
37.15
31.26
26.00
20.46
15.50
11.41
6.72
-0.82
-12.66
-26.64
-39.41
-48.24
-51.66
-48.94
-40.93
-30.25
-20.32
-14.10
-11.83
-12.30
-13.66
-13.78
-10.44
-2.63
8.77
21.54
33.16
42.68
50.17
56.13
61.20
65.81
69.68
71.79
70.91
66.36
58.68
49.08
38.82
28.83
19.68
11.46
4.03
-2.72
-8.78
-13.86
-17.77
-20.58
-22.57
-24.16
-25.81
-27.80
-30.20
-32.95
-35.90
-38.94
-41.96
-44.82
-47.34
-49.37
-50.71
-51.06
-49.96
-46.94
-41.67
-34.09
-24.61
-14.02
-3.51
5.99
14.16
21.33
28.04
34.63
41.05
46.94
51.85
54.71
54.51
50.55
42.52
30.66
15.90
0.23
-13.82
-23.76
-29.20
-31.29
-31.90
-32.72
-34.67
-37.73
-41.19
-44.54
-47.82
-52.92
-61.50
-73.59
-87.39
-100.33
-110.40
-116.66
-119.34
-111.56
-90.23
-58.73
-25.81
0.02
14.77
18.58
16.38
12.83
11.09
10.79
9.80
6.93
1.95
-3.76
-7.66
-7.15
-1.11
9.51
21.31
30.90
36.86
39.82
41.64
44.03
47.94
53.19
58.94
63.80
66.96
69.05
71.15
74.43
79.65
87.23
96.92
107.35
116.71
123.69
128.88
132.83
136.05
138.31
139.16
137.83
132.49
121.56
104.49
83.30
59.32
33.53
6.36
-21.02
-46.78
-70.05
-90.00
-106.07
-116.43
-122.01
-125.47
-130.36
-138.87
-143.18
-136.93
-118.57
-104.29
-100.38
-110.29
-130.10
-156.64
-184.12
-205.05
-213.80
-207.97
-189.40
-161.74
-132.04
-106.87
-90.01
-80.56
-74.83
-70.22
-66.15
-63.79
-63.06
-63.74
-63.86
-60.52
-50.51
-32.47
-8.56
16.70
38.46
54.57
64.79
70.99
75.73
81.36
88.77
96.81
103.41
106.72
106.52
103.46
98.91
94.12
89.97
86.57
83.24
79.02
73.26
66.12
58.32
50.86
44.55
39.79
36.40
33.83
31.56
29.40
27.58
26.52
26.59
27.87
30.08
32.74
35.34
37.51
39.00
39.73
39.77
39.21
38.20
36.80
34.96
32.45
28.94
24.15
17.96
10.59
2.63
-5.06
-11.53
-16.05
-18.36
-18.68
-17.65
-16.02
-14.46
-13.35
-12.83
-12.90
-13.42
-14.17
-14.85
-15.08
-14.55
-13.12
-10.89
-8.19
-5.46
-3.13
-1.51
-0.69
-0.60
-0.97
-1.52
-1.95
-2.10
-1.89
-1.29
-0.32
0.98
2.48
3.92
4.92
5.11
4.15
1.85
-1.79
-6.68
-12.53
-18.81
-24.73
-29.39
-31.98
-32.12
-30.02
-26.36
-21.98
-17.58
-13.48
-9.63
-5.85
-1.98
1.96
5.84
9.54
12.95
15.98
18.55
20.45
21.42
21.21
19.77
17.29
14.28
11.33
8.98
7.52
6.96
7.08
7.60
8.23
8.70
8.77
8.20
6.82
4.50
1.24
-2.82
-7.48
-12.46
-17.47
-22.18
-26.28
-29.47
-31.55
-32.40
-32.00
-30.45
-27.92
-24.69
-21.13
-17.63
-14.48
-11.81
-9.59
-7.69
-5.97
-4.41
-2.98
-1.62
-0.19
1.50
3.57
5.96
8.48
10.85
12.80
14.15
14.76
14.54
13.50
11.75
9.61
7.39
5.37
3.48
1.45
-1.15
-4.56
-8.62
-12.85
-16.61
-19.44
-21.18
-22.00
-22.21
-22.09
-21.85
-21.60
-21.40
-21.33
-21.36
-21.38
-21.20
-20.65
-19.69
-18.53
-17.51
-16.98
-17.16
-18.04
-19.42
-21.05
-22.73
-24.48
-26.49
-29.08
-32.46
-36.47
-40.60
-43.96
-45.70
-45.19
-42.28
-37.28
-30.81
-23.59
-16.34
-9.69
-4.12
0.05
2.89
4.83
6.55
8.69
11.61
15.25
19.29
23.45
27.56
31.67
35.74
39.54
42.68
44.73
45.52
45.18
44.08
42.64
41.08
39.40
37.46
35.15
32.50
29.68
26.99
24.70
22.89
21.47
20.17
18.60
16.48
13.71
10.41
6.88
3.45
0.42
-2.08
-4.00
-5.29
-5.81
-5.36
-3.77
-1.06
2.40
5.94
8.81
10.40
10.55
9.50
7.77
5.88
4.18
2.93
2.44
3.16
5.55
9.74
15.19
20.67
24.68
26.04
24.49
20.81
16.52
13.21
11.82
12.35
14.06
15.86
16.89
16.79
15.69
13.91
11.74
9.29
6.60
3.83
1.36
-0.28
-0.72
-0.00
1.43
2.90
3.83
4.08
3.95
3.98
4.63
6.04
7.99
10.09
11.97
13.41
14.34
14.81
14.93
14.76
14.43
14.02
13.63
13.28
12.94
12.54
12.07
11.55
11.06
10.64
10.25
9.81
9.21
8.39
7.36
6.15
4.79
3.24
1.43
-0.67
-2.90
-4.90
-6.17
-6.27
-5.03
-2.67
0.15
2.64
4.17
4.51
3.89
2.80
1.68
0.70
-0.21
-1.23
-2.42
-3.57
-4.37
-4.59
-4.30
-3.90
-3.98
-4.94
-6.81
-9.20
-11.52
-13.25
-14.21
-14.61
-14.94
-15.72
-17.33
-19.79
-22.86
-26.07
-28.92
-30.95
-31.82
-31.38
-29.68
-26.97
-23.59
-19.92
-16.26
-12.70
-9.24
-5.87
-2.61
0.42
3.15
5.60
7.92
10.34
12.99
15.90
18.95
22.01
25.02
28.08
31.29
34.71
38.22
41.61
44.55
46.71
47.84
47.77
46.49
44.18
41.25
38.22
35.59
33.63
32.26
31.14
29.81
28.01
25.90
23.84
22.19
21.08
20.40
19.93
19.39
18.57
17.26
15.45
13.03
9.82
5.62
0.38
-5.70
-12.24
-18.82
-25.11
-30.52
-34.69
-37.57
-39.37
-40.28
-40.35
-39.53
-37.87
-35.59
-32.10
-27.14
-21.14
-15.07
-9.77
-5.61
-2.65
-0.93
-0.57
0.45
3.84
9.94
17.59
25.27
31.90
36.94
40.20
41.87
45.77
55.20
70.77
90.34
111.01
130.88
149.34
166.53
182.79
202.57
228.95
261.03
294.52
324.94
349.99
369.66
384.92
370.27
312.20
216.95
107.40
6.27
-74.86
-134.19
-174.64
-200.43
-215.70
-220.68
-214.89
-200.33
-181.79
-164.54
-152.14
-146.10
-146.32
-151.84
-158.34
-159.20
-152.45
-139.96
-125.19
-111.08
-99.44
-91.04
-85.79
-80.93
-73.76
-63.77
-52.28
-41.19
-31.81
-24.63
-19.59
-16.40
-13.65
-10.12
-5.86
-1.63
1.76
3.96
5.05
5.27
4.78
4.02
3.44
3.02
2.67
2.37
2.20
2.27
2.57
2.92
3.01
2.53
1.06
-1.64
-5.57
-10.51
-16.02
-21.57
-26.64
-30.84
-33.94
-35.92
-36.80
-36.70
-35.82
-34.43
-32.93
-31.63
-30.73
-30.14
-29.51
-28.38
-26.37
-23.39
-19.72
-15.89
-12.48
-9.86
-8.06
-6.69
-5.16
-2.81
0.80
5.90
12.38
19.83
27.60
34.88
40.79
44.59
45.83
44.51
41.10
36.39
31.28
26.51
22.52
19.49
17.41
16.22
15.89
16.33
17.38
18.77
20.13
21.14
21.63
21.64
21.38
21.05
20.68
20.06
18.79
16.45
12.78
7.88
2.09
-4.12
-10.39
-16.57
-22.68
-28.86
-35.26
-41.95
-48.97
-56.29
-63.79
-71.14
-77.78
-82.94
-85.96
-86.49
-84.71
-81.30
-77.18
-73.18
-69.70
-66.69
-63.73
-60.34
-56.25
-51.49
-46.34
-41.19
-36.30
-31.73
-27.37
-22.99
-18.43
-13.69
-8.90
-4.33
-0.27
3.10
5.75
7.75
9.31
10.63
11.86
13.11
14.38
15.66
16.86
17.88
18.57
18.82
18.64
18.14
17.61
17.37
17.65
18.45
19.50
20.22
20.03
18.42
15.04
10.04
3.99
-2.29
-8.10
-13.01
-16.92
-19.90
-22.10
-23.87
-25.46
-26.98
-28.42
-29.84
-31.28
-32.72
-34.06
-35.12
-36.22
-37.61
-39.31
-41.24
-43.48
-46.32
-50.10
-55.07
-61.21
-69.35
-79.42
-90.13
-99.57
-106.34
-109.97
-110.86
-109.79
-107.64
-107.52
-110.98
-117.15
-123.67
-128.72
-131.78
-133.28
-133.86
-133.97
-137.52
-146.16
-158.03
-169.31
-177.22
-181.06
-181.57
-179.81
-176.71
-177.80
-185.72
-198.38
-210.71
-218.54
-220.15
-215.72
-206.08
-162.03
-76.12
33.93
138.49
218.17
269.40
297.37
309.49
312.64
311.93
305.30
290.93
269.78
244.97
219.62
196.56
177.45
163.82
156.24
149.79
140.04
125.62
107.81
88.31
67.87
46.33
23.45
-0.40
-25.90
-51.25
-70.72
-78.21
-71.23
-52.61
-29.06
-7.81
6.59
12.83
13.77
14.48
18.95
27.94
39.33
50.41
60.22
70.12
82.27
98.09
117.02
136.08
151.33
160.02
162.13
160.57
159.65
162.96
171.61
183.46
193.75
196.61
186.68
160.40
116.90
58.44
-9.23
-77.30
-135.23
-173.35
-185.79
-172.69
-140.45
-99.58
-61.07
-32.70
-17.29
-13.21
-16.65
-24.14
-33.85
-45.30
-58.11
-71.06
-82.17
-89.83
-93.76
-95.41
-97.30
-101.41
-107.91
-114.56
-117.23
-111.29
-93.36
-62.96
-23.32
19.24
57.14
84.11
97.27
98.01
91.05
82.13
75.62
72.96
72.82
72.67
70.53
66.10
60.72
56.28
53.90
53.26
52.79
50.57
45.51
37.94
29.56
22.59
18.71
18.29
20.36
23.14
24.90
24.64
22.40
18.96
15.34
12.33
10.20
8.81
7.81
6.86
5.78
4.51
3.02
1.19
-1.09
-3.91
-7.18
-10.61
-13.81
-16.41
-18.19
-19.14
-19.33
-18.84
-17.81
-16.47
-15.15
-14.28
-14.03
-14.23
-14.32
-13.69
-12.03
-9.58
-7.07
-5.23
-4.40
-4.30
-4.25
-3.65
-2.39
-0.95
-0.21
-0.97
-3.78
-8.99
-16.85
-27.65
-41.55
-58.32
-77.08
-96.32
-114.23
-129.18
-140.10
-146.64
-148.96
-147.42
-142.22
-133.28
-120.44
-103.95
-84.81
-64.74
-45.77
-29.27
-15.42
-3.14
9.13
22.34
36.10
48.75
58.30
63.55
64.77
63.36
61.08
59.12
57.95
57.49
57.52
58.04
59.23
61.17
63.49
65.41
66.05
64.99
62.23
57.99
52.56
46.13
38.99
31.53
24.26
17.73
12.91
10.49
10.68
13.19
17.59
23.61
30.92
38.90
46.40
53.09
58.30
60.78
59.22
53.18
43.63
32.43
21.38
11.47
5.38
4.62
8.74
15.59
23.11
30.42
37.53
44.40
50.49
59.17
73.04
92.09
113.53
134.22
152.82
169.75
186.16
203.13
226.83
261.64
307.43
359.08
410.13
456.25
495.85
529.03
521.83
454.71
333.16
186.38
45.44
-72.69
-164.55
-233.21
-283.35
-318.93
-337.78
-337.75
-318.75
-285.35
-244.83
-204.37
-169.91
-145.67
-133.59
-128.89
-126.13
-121.71
-115.44
-108.92
-103.56
-100.11
-98.87
-99.91
-100.50
-98.44
-93.44
-87.65
-83.72
-83.00
-85.21
-89.34
-94.70
-100.33
-106.38
-113.91
-123.98
-136.17
-148.11
-156.59
-159.17
-155.24
-145.58
-131.96
-116.36
-100.55
-85.79
-72.84
-62.05
-53.32
-45.96
-38.80
-30.57
-20.49
-8.70
3.74
15.32
24.71
31.26
35.15
37.15
38.22
39.15
40.28
41.54
42.57
42.96
42.46
40.99
38.60
35.44
31.76
27.84
24.05
20.80
18.44
17.11
16.74
17.08
17.86
18.86
20.02
21.36
22.94
24.77
26.80
28.94
31.07
33.10
34.92
36.43
37.51
38.03
37.86
36.88
35.01
32.25
28.72
24.64
20.35
16.25
12.75
10.20
8.76
8.43
9.00
10.11
11.34
12.34
12.93
13.19
13.38
13.82
14.78
16.37
18.44
20.80
23.34
26.09
29.28
33.12
37.70
42.72
47.64
51.77
54.64
56.12
56.51
56.33
56.01
55.77
55.50
54.92
53.77
52.02
49.77
47.24
44.58
41.81
38.91
35.80
32.44
28.62
23.94
17.78
9.42
-1.64
-15.30
-30.68
-46.19
-60.05
-71.02
-78.86
-84.41
-89.01
-93.65
-98.43
-102.49
-104.55
-103.56
-99.19
-91.77
-81.95
-70.27
-57.11
-42.93
-28.55
-15.24
-4.38
3.06
6.98
8.14
7.81
7.31
7.49
8.56
10.12
11.46
11.82
10.72
8.08
4.21
-0.34
-5.08
-9.63
-13.83
-17.60
-20.94
-23.97
-27.02
-30.59
-35.17
-40.97
-47.59
-54.10
-59.36
-62.54
-63.43
-62.44
-60.21
-57.30
-53.97
-50.42
-47.08
-44.82
-44.66
-47.17
-51.85
-56.95
-59.91
-58.34
-50.94
-38.07
-21.60
-4.13
12.03
25.53
36.15
44.35
50.74
55.64
59.06
61.04
61.76
61.65
61.04
59.87
57.55
53.16
45.83
35.30
22.17
7.79
-6.04
-17.60
-25.64
-29.70
-30.31
-28.90
-27.45
-27.93
-31.62
-38.61
-47.84
-57.47
-65.58
-70.87
-72.91
-72.04
-68.80
-63.54
-56.17
-46.49
-34.56
-21.04
-7.14
5.78
16.75
25.56
32.66
38.90
45.03
51.33
57.64
63.54
68.59
72.51
75.19
76.59
76.63
75.20
72.16
67.45
61.19
53.63
45.19
36.38
27.82
20.08
13.54
8.30
4.17
0.81
-2.06
-4.52
-6.40
-7.34
-6.97
-5.13
-1.88
2.50
7.66
13.28
19.15
25.13
31.12
37.00
42.59
47.67
52.07
55.67
58.39
60.23
61.20
61.29
60.41
58.43
55.18
50.56
44.62
37.63
30.06
22.53
15.72
10.41
7.38
7.21
10.00
15.07
20.93
25.72
27.79
26.43
22.18
16.55
11.33
7.82
6.26
5.81
4.98
2.26
-3.24
-11.55
-21.90
-33.11
-44.01
-53.85
-62.42
-69.84
-76.24
-81.43
-84.85
-85.86
-84.16
-80.14
-74.82
-69.54
-65.40
-62.88
-61.70
-61.14
-60.38
-58.76
-55.86
-51.46
-45.41
-37.76
-29.00
-20.32
-13.63
-11.20
-14.94
-25.69
-42.66
-63.42
-84.38
-101.66
-112.31
-114.92
-109.86
-98.58
-82.64
-63.11
-40.65
-16.24
8.07
29.14
43.69
49.72
47.62
40.18
31.58
25.70
24.70
28.60
35.65
43.56
50.38
55.11
57.68
58.54
58.36
57.69
56.87
56.08
55.46
54.99
54.56
53.89
52.71
51.14
49.85
49.94
52.11
55.72
58.05
54.74
41.12
14.11
-26.04
-75.22
-126.32
-171.25
-203.42
-219.71
-221.16
-212.04
-197.63
-181.81
-165.42
-146.23
-120.46
-84.99
-39.12
14.58
70.88
123.15
164.68
189.67
194.03
176.35
138.84
87.78
32.62
-16.23
-50.34
-65.58
-62.82
-46.73
-23.48
1.48
24.80
45.19
62.69
77.72
90.45
100.66
107.91
111.73
111.83
108.17
101.06
91.07
79.04
65.81
52.25
39.11
26.91
15.86
5.75
-3.80
-13.13
-22.20
-30.53
-37.35
-42.03
-44.35
-44.57
-43.18
-40.54
-36.64
-31.24
-24.10
-15.22
-4.99
6.01
17.09
27.56
36.77
44.04
48.74
50.44
49.14
45.31
39.84
33.80
28.05
23.10
19.00
15.54
12.38
9.31
6.21
3.07
-0.04
-3.03
-5.71
-7.91
-9.46
-10.33
-10.59
-10.40
-10.00
-9.61
-9.44
-9.67
-10.40
-11.58
-13.02
-14.45
-15.68
-16.67
-17.60
-18.83
-20.65
-23.19
-26.32
-29.79
-33.25
-36.38
-38.88
-40.51
-41.11
-40.63
-39.16
-36.93
-34.23
-31.34
-28.45
-25.67
-23.05
-20.65
-18.55
-16.89
-15.76
-15.24
-15.32
-15.91
-16.89
-18.15
-19.63
-21.31
-23.17
-25.12
-27.02
-28.73
-30.24
-31.73
-33.54
-36.03
-39.45
-43.71
-48.42
-53.05
-57.08
-60.25
-62.55
-64.11
-65.04
-65.32
-64.78
-63.18
-60.26
-55.79
-49.61
-41.64
-31.99
-21.18
-10.21
-0.59
6.01
8.30
5.95
-0.09
-7.73
-14.51
-18.43
-18.69
-15.75
-10.82
-5.02
1.25
8.22
16.27
25.13
33.55
39.67
41.86
39.58
33.70
26.05
18.74
13.37
10.76
11.06
13.99
19.04
25.38
31.89
37.34
40.72
41.72
40.87
39.23
37.97
37.82
38.85
40.63
42.64
44.51
46.13
47.56
48.77
49.59
49.76
49.03
47.39
45.07
42.53
40.30
38.86
38.41
38.91
40.07
41.39
42.33
42.36
41.09
38.28
34.00
28.59
22.68
16.99
12.19
8.70
6.59
5.61
5.38
5.52
5.78
6.06
6.34
6.64
6.94
7.23
7.45
7.41
6.83
5.34
2.67
-1.12
-5.50
-9.53
-12.15
-12.57
-10.61
-6.75
-1.95
2.77
6.67
9.44
11.20
12.27
12.94
13.35
13.45
13.16
12.50
11.70
11.11
10.98
11.38
12.10
12.86
13.81
15.88
20.76
30.38
45.84
66.46
89.64
111.38
127.59
135.35
133.54
122.70
104.23
79.91
52.07
24.07
0.24
-14.90
-18.40
-10.43
5.35
23.04
37.07
44.44
45.47
42.66
38.92
36.21
35.20
36.16
39.34
45.41
54.81
66.85
79.23
88.96
93.76
93.15
88.62
81.82
74.30
67.31
61.74
58.24
57.38
59.50
64.25
69.91
71.61
64.04
43.88
10.98
-32.23
-81.81
-133.28
-182.19
-224.26
-257.78
-280.47
-288.33
-277.30
-246.97
-202.46
-153.41
-110.71
-82.80
-76.71
-93.66
-128.43
-172.07
-216.68
-257.70
-293.59
-324.19
-328.03
-291.91
-220.73
-135.37
-56.50
5.55
50.00
80.49
101.48
116.57
124.32
121.34
107.59
85.44
58.13
29.71
4.78
-12.02
-17.44
-13.66
-5.70
1.25
7.31
10.84
10.93
8.02
3.86
0.55
-2.11
-5.06
-8.38
-10.96
-11.60
-8.92
-2.01
9.32
24.35
40.42
54.30
63.31
65.76
60.65
48.52
31.65
14.00
0.56
-4.52
0.97
16.45
38.48
61.61
80.66
92.38
96.28
94.11
88.29
80.73
72.29
62.95
52.08
39.27
24.81
9.93
-3.28
-12.58
-15.78
-11.11
2.26
23.66
51.30
82.82
115.75
147.44
173.94
191.25
196.98
191.41
177.08
157.42
135.24
111.86
87.11
58.83
25.80
-10.42
-45.84
-76.37
-99.89
-116.35
-126.52
-131.07
-132.42
-133.44
-136.73
-144.39
-158.54
-180.77
-210.91
-246.10
-268.65
-263.80
-229.59
-178.23
-124.95
-79.34
-44.53
-19.60
-1.71
12.26
22.70
29.04
31.35
30.98
29.48
27.90
26.69
26.28
27.27
28.40
28.07
25.45
21.21
16.79
13.73
13.27
16.27
22.95
30.99
37.93
42.33
44.37
45.28
46.31
48.33
51.70
56.44
61.92
67.49
72.74
77.51
81.56
84.49
85.92
85.71
83.91
80.31
74.65
66.69
56.52
44.75
32.32
20.04
8.20
-3.84
-17.48
-34.28
-55.30
-80.41
-108.10
-135.71
-159.99
-177.97
-187.66
-188.63
-182.05
-170.30
-156.25
-142.50
-130.71
-121.26
-113.22
-104.63
-93.17
-77.10
-56.11
-31.72
-6.99
14.63
30.50
39.70
43.12
42.80
41.04
39.56
39.38
40.96
44.40
49.47
55.47
61.30
65.71
67.69
66.69
62.57
55.46
45.72
34.11
22.03
11.61
5.20
4.52
9.79
19.49
30.63
39.90
44.91
45.04
41.69
37.56
35.69
38.47
46.97
60.86
78.59
97.77
115.74
130.09
139.41
143.66
144.03
142.00
138.05
130.82
117.23
93.95
59.42
15.36
-33.13
-79.08
-116.07
-140.22
-150.91
-150.10
-140.91
-126.37
-108.91
-90.46
-72.86
-58.00
-47.67
-43.11
-44.60
-51.11
-60.15
-67.95
-69.96
-62.20
-42.74
-12.97
22.19
55.65
80.60
93.22
93.88
86.59
76.78
68.96
65.08
64.51
65.08
64.54
61.70
56.63
50.13
43.27
37.13
32.67
30.99
33.04
39.20
49.04
60.85
71.58
77.42
74.86
61.76
38.35
7.15
-27.48
-59.73
-84.19
-97.43
-98.81
-90.36
-76.11
-60.17
-45.94
-35.15
-26.39
-17.05
-5.38
8.14
21.18
30.32
33.65
30.73
22.71
13.82
8.37
8.32
12.50
18.26
22.78
26.41
30.74
37.56
50.30
71.04
99.04
131.32
165.17
198.79
233.53
270.09
292.18
286.23
250.64
197.75
143.47
104.77
78.94
62.18
50.64
40.44
30.11
19.97
9.82
-1.53
-15.02
-31.36
-48.50
-64.70
-79.31
-90.79
-98.02
-101.27
-101.87
-101.00
-99.60
-96.67
-91.82
-86.04
-80.37
-76.25
-75.72
-80.92
-93.19
-113.08
-139.15
-169.47
-201.96
-233.77
-261.80
-283.51
-297.15
-301.81
-297.44
-284.29
-263.51
-237.21
-208.20
-179.56
-154.13
-133.49
-117.18
-102.61
-85.77
-63.01
-32.77
3.36
41.06
74.59
98.88
111.04
110.91
100.34
82.23
59.82
36.51
16.07
2.64
0.04
10.53
33.89
67.01
104.43
139.60
166.16
179.03
175.00
153.19
115.53
66.99
15.20
-30.98
-63.66
-78.33
-75.11
-58.48
-35.52
-13.32
3.24
12.52
15.60
14.80
12.19
8.88
5.02
0.43
-4.65
-9.44
-12.82
-13.94
-12.74
-10.20
-7.90
-7.29
-9.09
-12.93
-17.66
-21.92
-24.97
-27.02
-28.89
-31.47
-35.28
-40.35
-46.36
-52.75
-58.40
-62.28
-63.75
-62.64
-59.27
-54.48
-49.57
-46.03
-44.99
-46.06
-48.34
-50.71
-51.60
-48.83
-40.31
-25.20
-4.59
18.77
42.96
66.09
86.62
104.00
118.91
132.66
146.03
159.01
170.98
182.97
195.15
206.12
213.60
215.87
212.38
203.36
189.53
160.77
115.67
62.45
13.19
-24.84
-50.90
-67.64
-78.54
-86.14
-91.64
-93.30
-89.87
-82.10
-72.41
-63.83
-57.47
-53.64
-51.85
-50.99
-48.44
-42.51
-33.50
-23.23
-13.67
-6.11
-1.12
1.39
2.01
1.38
0.18
-1.45
-3.68
-6.29
-8.58
-9.72
-9.21
-7.34
-4.83
-2.78
-2.35
-4.14
-7.78
-12.17
-15.78
-17.42
-16.94
-15.24
-13.73
-13.68
-15.64
-19.10
-22.85
-25.09
-24.10
-18.93
-9.71
2.75
17.12
31.46
43.38
47.98
41.43
24.82
4.70
-11.31
-19.09
-19.19
-15.25
-11.01
-8.13
-5.84
-2.15
4.51
14.14
25.48
37.02
46.20
51.41
51.77
47.44
39.51
29.31
17.97
6.29
-5.08
-15.61
-24.76
-32.23
-37.93
-42.22
-46.01
-50.53
-56.53
-63.59
-70.05
-73.58
-72.31
-65.66
-54.65
-41.74
-29.89
-21.50
-17.47
-16.96
-17.64
-16.68
-11.79
-2.07
11.49
26.41
39.58
48.52
52.22
51.34
47.64
43.02
38.72
34.98
31.30
26.98
21.83
16.34
11.39
7.69
5.19
3.01
-0.20
-5.49
-13.00
-21.61
-29.32
-34.13
-34.96
-32.17
-27.56
-23.50
-21.96
-23.90
-28.89
-35.50
-41.79
-46.06
-47.19
-44.85
-39.54
-32.39
-24.97
-18.62
-13.96
-10.42
-6.49
-0.31
9.31
22.27
37.06
51.37
63.10
71.06
75.13
75.95
74.36
71.06
66.51
61.23
56.01
52.02
50.65
53.40
61.53
75.22
92.83
110.83
124.45
129.04
121.52
101.94
73.77
42.74
14.90
-5.61
-17.43
-21.61
-20.56
-17.20
-13.66
-10.83
-8.55
-6.01
-2.60
2.28
9.14
18.13
27.96
37.12
44.79
51.26
57.96
65.71
74.91
85.70
97.55
107.60
113.33
114.01
110.76
106.15
100.33
92.75
83.63
73.42
59.99
41.51
18.08
-8.44
-34.54
-60.31
-86.42
-111.69
-134.64
-158.02
-185.27
-217.73
-253.81
-288.68
-321.23
-351.33
-376.98
-373.36
-327.18
-247.52
-160.00
-100.35
-67.22
-55.73
-63.19
-80.16
-98.48
-113.16
-119.93
-114.55
-94.33
-58.93
-8.72
43.84
85.65
111.37
122.17
122.39
116.33
107.09
97.77
87.74
76.69
68.45
68.20
78.16
96.25
117.48
134.89
141.80
131.07
99.99
53.56
1.76
-45.65
-81.81
-102.49
-106.51
-91.21
-58.98
-16.22
28.40
65.49
87.22
90.83
81.53
69.22
63.41
67.79
80.15
94.59
105.40
109.65
101.86
82.97
59.80
38.91
21.08
4.36
-13.87
-31.70
-44.99
-50.64
-46.92
-35.45
-20.33
-6.03
5.47
12.58
14.20
11.12
6.90
7.20
16.00
32.97
53.26
70.81
81.76
85.81
85.79
85.54
87.73
91.29
91.42
82.11
58.26
20.21
-26.92
-75.50
-118.65
-152.45
-176.70
-193.73
-205.98
-214.16
-216.33
-210.42
-196.16
-175.93
-154.00
-134.59
-120.97
-114.57
-114.90
-118.73
-122.65
-123.63
-118.98
-106.73
-85.55
-57.36
-27.62
-3.61
11.03
16.19
15.58
15.64
22.87
43.12
77.99
124.82
178.19
234.41
288.56
334.33
365.43
377.54
372.33
354.62
330.28
287.84
225.43
152.06
81.64
27.58
-17.46
-60.70
-106.43
-153.73
-196.96
-225.37
-230.19
-208.92
-166.84
-115.98
-68.85
-36.82
-26.70
-38.81
-65.50
-97.29
-127.64
-155.05
-182.42
-211.72
-242.66
-270.99
-289.41
-289.36
-266.53
-223.29
-166.98
-106.38
-46.89
9.20
61.19
107.77
146.74
175.12
191.01
195.38
191.99
186.35
182.85
183.25
186.83
191.67
195.82
197.96
197.52
194.45
189.25
182.70
175.73
169.23
163.82
159.59
155.95
151.77
145.80
137.20
125.83
112.45
98.29
84.53
71.75
59.73
47.73
35.06
21.58
7.83
-5.27
-17.00
-27.18
-36.19
-44.72
-53.55
-63.43
-75.14
-89.39
-106.48
-125.90
-146.35
-166.23
-184.50
-201.22
-217.32
-233.65
-249.88
-264.15
-273.57
-275.53
-268.68
-253.34
-230.91
-203.01
-170.83
-135.30
-97.49
-59.15
-22.75
8.95
33.55
49.73
57.72
59.49
58.30
57.79
60.80
68.31
79.20
90.80
100.19
105.51
106.67
105.14
103.04
102.09
102.95
105.18
107.71
109.42
109.50
107.55
103.50
97.43
89.65
80.61
71.02
61.65
53.16
45.90
39.68
33.88
27.71
20.61
12.41
3.50
-5.37
-13.31
-19.63
-24.01
-26.65
-28.28
-30.18
-34.09
-41.95
-55.47
-75.39
-100.89
-129.43
-157.23
-180.41
-196.09
-203.10
-201.88
-193.78
-180.37
-163.14
-143.53
-123.21
-103.85
-86.60
-71.53
-57.53
-43.01
-26.94
-9.56
7.67
22.97
35.22
44.51
51.83
58.32
64.54
70.25
74.75
77.46
78.31
77.78
76.55
75.15
73.66
71.72
68.76
64.30
58.29
51.13
43.67
36.84
31.45
28.00
26.64
27.27
29.64
33.32
37.82
42.53
46.88
50.45
53.05
54.66
55.41
55.48
55.05
54.33
53.54
52.88
52.43
52.13
51.67
50.58
48.34
44.53
38.91
31.41
22.05
10.84
-2.24
-17.06
-33.16
-49.63
-65.25
-78.76
-89.28
-96.45
-100.28
-100.92
-98.32
-92.26
-82.64
-69.84
-54.95
-39.49
-24.94
-12.14
-1.08
9.06
19.37
30.74
43.45
57.00
70.18
81.22
88.14
89.22
83.51
71.26
54.05
34.61
16.08
1.14
-8.68
-13.42
-14.57
-14.45
-15.49
-19.54
-27.48
-39.10
-53.21
-68.02
-81.42
-91.31
-96.08
-94.78
-87.32
-74.57
-58.20
-40.27
-22.67
-6.51
8.13
21.84
35.22
48.05
58.99
66.04
67.47
62.86
53.66
42.76
33.29
27.26
24.86
24.65
24.58
23.03
19.59
15.29
12.16
12.15
15.99
22.80
30.35
36.16
38.20
35.71
29.35
21.16
13.12
6.21
0.33
-5.35
-11.07
-16.50
-20.85
-23.10
-22.01
-17.21
-9.53
-0.49
8.14
15.64
21.69
26.30
29.79
33.42
38.12
43.74
49.18
52.59
53.25
51.26
47.52
38.17
22.97
5.49
-9.55
-17.11
-19.61
-19.54
-18.12
-16.84
-16.09
-15.23
-13.65
-11.20
-7.96
-4.03
1.43
9.35
20.10
33.81
48.65
62.10
71.80
76.69
76.66
72.44
64.79
54.28
42.19
30.59
21.45
15.88
13.64
14.37
17.86
23.54
29.53
33.94
35.04
31.13
20.75
3.14
-19.82
-45.10
-69.33
-90.96
-108.76
-122.36
-132.76
-142.52
-154.96
-172.99
-197.90
-228.17
-260.29
-286.71
-298.76
-290.71
-262.44
-219.04
-168.46
-118.39
-65.17
-13.53
29.72
60.96
80.67
90.78
93.11
89.47
82.30
74.47
67.68
64.77
68.40
79.16
93.80
106.93
112.53
106.58
87.64
56.48
17.88
-20.33
-50.16
-65.45
-62.97
-43.26
-7.57
37.93
83.23
118.95
139.60
144.32
136.35
121.46
105.06
91.92
84.19
81.24
77.28
68.15
53.02
34.78
20.27
8.91
-1.11
-11.62
-24.07
-37.91
-50.72
-59.75
-62.85
-59.39
-51.16
-40.02
-27.91
-16.55
-6.96
1.12
7.47
11.25
13.87
15.34
14.81
12.18
7.81
2.54
-2.40
-6.24
-8.96
-11.31
-14.90
-20.33
-26.98
-33.62
-38.62
-40.30
-37.68
-30.82
-20.84
-9.84
0.35
8.60
13.93
16.07
15.79
14.55
13.74
14.13
15.50
17.03
17.67
15.84
10.55
2.36
-6.76
-14.68
-19.87
-21.70
-20.25
-16.22
-12.05
-11.05
-15.96
-27.98
-46.31
-67.71
-86.92
-98.37
-93.56
-70.30
-36.67
-5.72
14.05
22.23
23.53
23.14
23.79
25.57
26.51
25.37
23.20
22.33
23.89
26.87
29.34
28.41
22.62
11.83
-2.42
-17.17
-29.27
-36.57
-37.99
-33.36
-23.17
-8.45
8.71
25.81
41.05
53.99
64.00
71.54
77.95
85.00
94.53
107.58
124.19
143.27
162.74
179.76
191.82
197.46
196.76
191.41
184.00
177.31
173.55
173.86
177.92
184.14
189.91
192.27
188.77
178.23
161.05
139.08
114.79
90.39
67.16
45.24
23.76
1.56
-22.24
-47.97
-75.55
-104.73
-135.34
-167.45
-201.14
-236.60
-274.16
-314.56
-358.76
-407.13
-458.27
-507.99
-549.56
-575.23
-578.76
-557.69
-514.26
-454.37
-385.31
-313.29
-242.07
-173.20
-107.23
-44.88
12.72
64.65
110.92
152.48
190.29
224.04
251.58
269.50
274.61
265.95
245.79
219.27
192.68
171.38
158.13
152.60
152.09
152.74
150.92
144.21
131.73
113.96
92.19
67.82
42.06
16.07
-8.77
-30.63
-47.58
-58.38
-63.38
-64.77
-66.02
-70.52
-80.08
-94.11
-109.95
-124.26
-134.64
-140.70
-144.11
-147.55
-153.20
-161.51
-170.61
-176.57
-174.49
-159.86
-130.08
-85.63
-30.48
28.30
82.10
122.70
144.34
145.17
127.56
97.36
62.37
30.52
8.33
-0.17
6.03
25.05
52.72
83.49
111.77
133.07
144.88
146.93
140.84
129.26
114.93
99.96
85.49
71.90
59.17
47.26
36.32
26.70
18.81
12.83
8.68
5.91
3.88
1.92
-0.55
-3.91
-8.32
-13.77
-20.11
-26.98
-33.86
-40.04
-44.79
-47.49
-47.81
-45.89
-42.24
-37.64
-32.84
-28.45
-24.78
-21.95
-19.96
-18.79
-18.40
-18.69
-19.53
-20.80
-22.42
-24.44
-26.93
-29.99
-33.47
-37.07
-40.23
-42.38
-43.07
-42.15
-39.81
-36.59
-33.29
-30.86
-30.09
-31.34
-34.24
-37.60
-39.68
-38.83
-34.10
-25.57
-14.25
-1.56
11.25
23.40
34.47
44.11
51.76
56.63
58.00
55.58
49.71
41.38
31.90
22.65
14.79
9.11
5.90
4.95
5.62
6.90
7.80
7.54
5.85
2.93
-0.69
-4.44
-7.97
-11.33
-14.82
-18.78
-23.25
-27.80
-31.60
-33.71
-33.41
-30.48
-25.19
-18.12
-10.00
-1.51
6.72
14.15
20.37
25.18
28.63
31.02
32.70
34.00
35.08
35.94
36.49
36.67
36.39
35.55
33.99
31.63
28.62
25.39
22.58
20.72
19.98
20.00
20.05
19.34
17.35
13.97
9.44
4.14
-1.51
-7.07
-12.04
-15.80
-17.72
-17.43
-14.90
-10.48
-4.77
1.61
8.14
14.42
20.13
25.00
28.84
31.65
33.66
35.33
37.09
39.18
41.50
43.65
45.15
45.70
45.33
44.41
43.52
43.24
44.12
46.39
49.89
53.74
56.40
55.92
50.61
39.90
24.92
8.29
-6.82
-18.03
-24.67
-27.80
-29.36
-31.08
-33.62
-36.43
-38.04
-37.14
-33.16
-26.38
-17.65
-8.11
0.81
7.77
11.92
14.05
15.81
18.92
24.42
32.32
41.54
50.18
56.26
58.55
57.98
55.91
53.16
49.97
46.93
45.49
47.48
53.97
64.81
80.03
97.78
114.21
124.71
126.17
118.21
102.81
83.31
64.15
52.02
51.65
63.64
84.47
108.85
131.96
150.36
162.22
152.18
114.55
57.58
-1.28
-48.37
-79.35
-96.25
-101.99
-102.34
-101.27
-99.43
-97.48
-97.22
-101.00
-109.65
-121.20
-132.59
-141.46
-146.09
-143.85
-133.33
-115.41
-93.30
-71.30
-53.50
-43.09
-41.57
-47.91
-58.08
-67.83
-74.66
-78.26
-79.30
-78.21
-74.78
-68.49
-58.92
-45.88
-30.30
-14.06
0.90
13.59
24.16
33.34
41.65
49.05
54.98
58.32
57.88
52.85
43.52
31.29
18.42
7.26
-0.51
-4.40
-5.12
-4.08
-2.66
-1.61
-1.03
-0.65
-0.37
-0.51
-1.65
-4.21
-8.11
-12.73
-17.28
-21.19
-24.38
-27.24
-30.26
-33.80
-37.66
-41.15
-43.32
-43.49
-41.53
-37.86
-33.31
-28.77
-25.05
-22.55
-21.19
-20.56
-20.10
-19.28
-17.72
-15.20
-11.67
-7.57
-3.51
-0.11
2.10
2.66
1.25
-2.09
-6.96
-12.32
-17.39
-21.01
-21.55
-17.51
-8.18
6.20
25.26
48.46
75.47
103.85
129.94
149.51
158.49
153.73
134.09
101.56
59.48
11.92
-39.50
-92.25
-140.43
-175.29
-188.67
-177.58
-145.97
-105.52
-70.22
-54.13
-63.53
-94.56
-137.02
-180.52
-219.46
-252.50
-282.22
-290.71
-266.32
-212.62
-146.74
-86.33
-40.75
-17.18
-8.80
-8.79
-10.05
-9.41
-5.27
6.89
28.48
58.77
95.31
135.75
176.15
212.48
238.33
248.77
242.97
223.51
195.70
165.48
138.30
116.39
100.30
88.58
80.75
78.32
81.73
90.27
102.01
114.53
124.32
128.71
126.42
118.97
110.28
102.37
96.60
94.45
97.41
104.57
112.38
115.60
109.50
91.33
57.50
6.80
-57.94
-130.83
-206.15
-279.54
-347.16
-404.70
-427.75
-400.13
-327.65
-234.73
-145.14
-71.06
-15.09
24.67
51.15
67.27
71.98
64.03
46.21
25.69
10.24
4.82
10.29
24.00
41.51
54.47
56.13
45.27
26.43
6.26
-9.94
-19.74
-23.46
-23.02
-22.27
-23.91
-27.92
-32.06
-34.11
-33.27
-30.13
-25.77
-21.22
-17.66
-15.38
-13.59
-11.11
-7.71
-4.61
-3.79
-6.78
-13.67
-23.04
-31.98
-36.91
-34.79
-24.14
-5.34
19.79
48.60
78.01
104.82
126.06
139.58
144.63
142.31
135.34
126.99
119.60
113.43
106.54
95.92
79.35
56.83
30.78
5.09
-16.68
-32.57
-42.58
-47.97
-50.14
-49.91
-47.31
-42.03
-33.84
-23.10
-10.89
1.06
10.61
15.73
14.93
7.64
-5.85
-24.49
-46.65
-70.03
-91.55
-107.39
-113.66
-107.59
-88.66
-59.28
-24.15
11.17
41.87
64.89
78.90
83.65
79.30
66.42
46.12
20.41
-7.83
-35.36
-59.08
-76.64
-87.06
-91.14
-91.61
-92.70
-98.66
-112.16
-133.05
-158.40
-183.84
-205.51
-221.35
-231.23
-236.24
-237.48
-235.72
-231.55
-225.64
-218.44
-209.48
-196.88
-177.82
-149.79
-112.05
-66.22
-15.69
35.79
85.22
130.78
171.37
206.12
234.15
254.97
268.78
276.64
280.07
280.30
277.80
272.26
262.92
249.32
231.93
212.46
193.70
178.80
170.03
167.85
170.60
174.86
176.68
173.01
162.58
146.11
125.71
103.85
82.49
62.66
44.64
28.52
14.69
4.12
-1.97
-2.62
2.30
11.82
24.19
37.49
50.24
61.85
72.48
82.62
92.81
103.50
115.24
128.67
144.28
161.80
179.94
196.51
209.31
217.14
220.52
221.63
223.39
228.23
237.12
249.33
262.89
275.49
285.10
290.39
290.68
285.84
276.23
262.55
245.71
226.55
205.69
183.54
160.25
135.94
110.76
84.84
58.11
30.12
0.04
-33.09
-69.88
-110.34
-153.67
-198.64
-244.05
-289.28
-334.41
-380.16
-427.57
-477.67
-531.53
-590.00
-653.10
-718.92
-782.82
-837.71
-875.87
-891.42
-882.39
-851.12
-802.62
-742.04
-672.62
-595.41
-510.53
-419.06
-324.06
-230.14
-141.87
-62.35
7.40
67.84
119.81
163.66
199.16
225.85
243.86
254.28
259.38
262.03
264.86
269.55
276.33
284.13
291.04
294.88
293.75
286.36
272.25
252.10
227.99
203.26
181.83
167.10
160.81
162.46
169.74
179.60
189.62
198.84
207.59
216.83
227.13
238.06
248.24
255.67
258.27
254.15
241.88
220.53
189.90
150.85
105.26
55.91
5.88
-42.12
-86.40
-126.63
-163.87
-200.34
-238.92
-282.33
-331.85
-386.13
-440.56
-487.89
-520.12
-531.12
-518.73
-485.38
-437.05
-380.93
-323.29
-268.26
-218.00
-173.67
-136.14
-106.16
-83.73
-67.64
-55.36
-43.78
-30.12
-12.62
9.03
33.93
60.23
85.68
108.00
125.37
136.69
141.77
141.24
136.35
128.60
119.31
109.32
99.03
88.71
78.69
69.47
61.60
55.37
50.64
46.66
42.32
36.69
29.55
21.57
14.02
8.08
4.41
2.89
2.81
3.24
3.49
3.42
3.21
2.98
2.42
1.33
-0.41
-2.66
-5.09
-7.15
-8.00
-7.00
-4.26
-1.05
1.51
2.59
1.95
-0.14
-2.90
-4.91
-4.92
-2.77
0.00
2.06
2.51
1.29
-1.01
-3.10
-2.72
2.32
12.89
27.43
44.14
60.81
75.28
85.66
87.51
78.39
61.70
49.87
47.87
56.72
72.87
92.05
109.17
119.70
121.44
114.50
100.39
80.54
57.64
34.72
14.60
-0.79
-10.52
-14.24
-12.54
-7.29
-1.70
1.99
2.73
0.82
-2.67
-6.38
-8.83
-9.33
-8.35
-7.61
-8.37
-10.94
-14.44
-17.39
-18.33
-16.50
-12.43
-7.87
-5.18
-5.83
-9.79
-15.51
-20.65
-22.95
-21.06
-14.89
-5.78
4.04
12.07
16.19
15.27
9.50
0.45
-9.45
-17.86
-23.36
-25.89
-26.60
-27.08
-28.59
-31.51
-35.36
-39.24
-42.38
-44.47
-45.68
-46.41
-46.97
-47.49
-47.87
-47.95
-47.52
-46.47
-44.83
-42.63
-39.79
-35.99
-30.65
-23.26
-13.60
-2.02
10.61
23.22
34.95
45.49
55.19
64.83
75.31
87.18
100.45
114.71
129.31
143.84
158.14
172.32
186.21
199.12
209.86
216.97
219.29
216.16
207.32
192.46
171.03
142.61
107.72
68.68
29.68
-4.24
-28.82
-42.18
-45.29
-41.22
-33.62
-25.35
-17.93
-11.93
-7.67
-5.68
-6.58
-10.59
-17.08
-24.62
-31.54
-36.50
-38.85
-38.49
-35.57
-30.07
-21.91
-11.38
0.11
9.79
13.93
8.99
-6.83
-32.59
-64.56
-97.48
-126.37
-148.23
-162.70
-171.36
-176.47
-179.59
-180.99
-179.88
-175.23
-166.51
-154.12
-139.30
-123.74
-109.11
-96.60
-86.54
-78.17
-69.71
-58.54
-41.95
-18.26
12.14
45.96
77.18
98.25
102.43
86.40
52.24
7.36
-37.24
-70.46
-84.49
-76.93
-50.74
-12.54
29.99
70.19
103.43
127.13
140.30
143.16
137.01
124.30
108.35
92.70
80.16
71.88
67.25
64.52
61.83
58.46
55.29
54.31
57.50
65.54
77.05
88.94
97.62
100.39
96.59
87.53
75.83
64.14
54.28
46.80
41.25
36.74
32.44
27.88
22.96
17.83
12.69
7.72
3.00
-1.52
-6.08
-11.02
-16.75
-23.66
-32.03
-41.90
-52.92
-64.16
-74.23
-81.46
-84.43
-82.47
-76.06
-66.68
-56.43
-47.34
-40.73
-36.94
-35.37
-34.85
-34.20
-32.63
-29.95
-26.51
-22.89
-19.56
-16.70
-14.24
-12.06
-10.17
-8.72
-7.83
-7.37
-6.88
-5.80
-3.75
-0.81
2.48
5.35
7.20
7.75
7.03
5.14
2.16
-1.86
-6.75
-12.14
-17.39
-21.87
-25.10
-26.83
-27.05
-25.81
-23.22
-19.47
-15.00
-10.45
-6.54
-3.78
-2.22
-1.45
-0.78
0.34
2.13
4.36
6.50
7.90
7.87
5.82
1.35
-5.33
-13.03
-19.52
-22.01
-18.35
-8.13
6.69
22.27
34.31
39.74
37.79
30.13
19.82
10.04
2.84
-1.21
-2.73
-2.95
-2.99
-3.51
-4.68
-6.42
-8.71
-11.80
-16.14
-22.02
-29.29
-37.20
-44.75
-51.18
-56.43
-61.02
-65.65
-70.50
-74.99
-78.03
-78.68
-76.79
-73.22
-69.50
-67.12
-66.86
-68.64
-71.68
-75.05
-78.11
-80.75
-83.31
-86.36
-90.39
-95.61
-101.71
-107.71
-111.92
-112.08
-105.84
-91.63
-69.40
-41.06
-10.00
20.07
46.50
68.63
87.49
104.70
121.20
136.47
148.88
156.74
159.40
157.85
154.42
152.14
153.66
160.24
170.96
182.24
188.04
180.96
154.41
105.19
35.55
-46.35
-128.19
-196.92
-242.57
-260.87
-253.66
-227.15
-189.16
-146.42
-103.32
-62.00
-23.45
11.44
41.55
65.87
84.24
97.71
108.30
118.06
128.19
138.50
147.55
153.33
154.35
150.34
142.37
132.27
121.78
111.82
102.19
92.03
80.44
67.15
52.62
37.81
23.79
11.35
0.81
-7.93
-15.36
-22.22
-29.25
-36.95
-45.38
-53.93
-61.47
-66.61
-68.06
-64.86
-56.62
-43.55
-26.39
-6.28
15.52
37.93
60.20
81.82
102.17
120.10
133.87
141.65
142.42
136.80
127.31
117.63
111.22
109.85
112.92
117.86
121.45
121.18
116.06
106.46
93.47
78.11
61.11
43.04
24.57
6.58
-10.20
-25.67
-40.55
-56.20
-74.00
-94.56
-117.25
-140.28
-161.21
-177.72
-188.23
-192.17
-189.94
-182.47
-170.89
-156.38
-140.18
-123.64
-108.04
-94.13
-81.71
-69.67
-56.77
-42.64
-28.60
-17.46
-12.43
-15.25
-25.02
-38.03
-49.05
-53.52
-49.28
-37.26
-20.75
-3.80
10.41
20.55
27.08
31.54
35.57
40.27
45.94
52.25
58.51
64.04
68.34
71.07
72.02
70.91
67.23
60.44
50.18
36.78
21.56
6.80
-4.72
-10.54
-9.40
-1.68
10.66
24.60
37.01
45.40
48.42
46.01
39.12
29.36
18.59
8.66
1.14
-2.85
-2.89
0.69
6.88
14.23
21.35
27.25
31.56
34.49
36.57
38.43
40.56
43.24
46.53
50.34
54.46
58.64
62.67
66.41
69.86
73.06
76.04
78.77
81.19
83.16
84.28
83.74
80.23
72.35
59.34
41.76
21.79
2.66
-12.56
-22.27
-27.00
-29.03
-31.22
-35.59
-42.55
-50.94
-58.97
-65.32
-69.81
-73.41
-77.56
-83.38
-91.06
-99.76
-108.11
-114.94
-119.82
-123.30
-126.53
-130.63
-136.13
-142.64
-149.03
-153.81
-155.65
-153.74
-147.86
-138.38
-126.02
-111.67
-96.19
-80.26
-64.36
-48.82
-34.08
-20.79
-9.84
-2.14
1.78
2.10
-0.02
-2.71
-3.84
-1.70
4.47
14.28
26.36
38.87
50.09
58.83
64.58
67.25
66.85
63.47
57.48
49.96
42.81
38.48
38.97
45.06
55.86
69.15
82.26
92.92
99.57
101.40
98.10
90.09
78.90
67.29
58.83
56.40
60.56
68.70
75.65
75.31
62.81
36.07
-3.52
-51.40
-100.69
-143.57
-172.89
-183.93
-175.66
-151.15
-116.55
-79.08
-44.85
-17.38
2.55
15.87
23.93
27.57
27.10
22.85
15.69
7.22
-0.75
-6.77
-10.34
-12.13
-13.59
-16.17
-20.55
-26.20
-31.54
-34.64
-34.09
-29.56
-21.95
-12.94
-4.33
2.41
6.36
7.05
4.32
-1.67
-10.29
-20.22
-29.49
-35.81
-37.19
-32.54
-22.07
-7.24
9.63
26.01
39.91
50.30
57.21
61.35
63.62
64.68
64.70
63.62
61.29
57.71
52.97
47.21
40.42
32.63
24.08
15.37
7.40
1.05
-3.22
-5.58
-6.75
-7.62
-8.82
-10.48
-12.30
-13.75
-14.40
-14.11
-13.06
-11.63
-10.20
-9.10
-8.43
-8.19
-8.25
-8.46
-8.70
-8.91
-9.07
-9.26
-9.61
-10.27
-11.30
-12.63
-14.04
-15.17
-15.66
-15.34
-14.32
-13.08
-12.28
-12.53
-14.12
-16.82
-19.94
-22.54
-23.81
-23.25
-20.85
-16.97
-12.11
-6.76
-1.25
4.22
9.50
14.32
18.37
21.31
22.89
23.11
22.18
20.54
18.66
16.94
15.56
14.49
13.54
12.51
11.25
9.82
8.45
7.54
7.55
8.89
11.87
16.54
22.66
29.72
37.03
43.92
50.06
55.65
61.35
68.00
76.09
85.34
94.57
101.86
105.01
102.23
92.52
76.07
54.17
28.91
2.68
-22.36
-44.68
-63.45
-78.34
-89.20
-95.81
-97.97
-95.75
-89.88
-81.78
-73.36
-66.52
-62.53
-61.76
-63.60
-66.64
-69.05
-69.01
-65.18
-57.12
-45.41
-31.55
-17.48
-5.07
4.40
10.48
13.57
14.76
15.11
15.36
15.61
15.49
14.66
13.09
11.39
10.74
12.62
18.17
27.83
41.15
56.67
72.17
85.02
92.56
92.86
85.31
70.47
50.14
27.01
4.22
-15.12
-28.43
-34.30
-32.45
-23.86
-10.99
2.83
14.27
21.24
23.58
23.20
22.94
24.68
29.51
35.98
40.48
39.32
30.84
16.04
-2.30
-21.89
-41.39
-59.29
-73.82
-83.07
-85.86
-82.29
-74.54
-63.80
-54.71
-51.82
-57.33
-70.06
-86.25
-101.73
-112.95
-118.16
-118.06
-115.30
-112.08
-109.07
-104.96
-98.20
-89.60
-80.63
-72.30
-64.69
-56.47
-44.82
-27.27
-2.88
25.67
51.14
67.71
74.24
73.53
70.56
70.21
74.93
85.74
101.58
118.03
132.83
146.94
161.63
177.43
193.80
199.91
188.33
172.92
159.44
143.97
125.61
103.93
78.78
50.56
20.39
-8.30
-31.73
-49.43
-60.72
-64.52
-61.57
-54.25
-45.75
-39.03
-34.77
-32.29
-32.05
-33.16
-33.33
-31.09
-26.01
-18.75
-10.83
-3.59
1.40
1.41
-4.88
-16.46
-31.18
-46.29
-59.24
-68.30
-72.41
-71.31
-65.93
-57.14
-45.40
-31.44
-16.10
-0.24
15.47
30.53
44.07
54.30
58.99
56.66
46.97
31.35
12.75
-5.29
-19.63
-28.20
-30.05
-25.62
-15.71
-2.41
11.28
21.92
26.48
23.25
12.43
-4.17
-24.39
-44.86
-63.37
-78.32
-88.54
-93.29
-92.29
-85.71
-73.93
-58.18
-37.50
-12.05
17.13
47.40
74.69
94.46
103.37
100.56
86.83
67.58
47.19
28.60
12.31
-3.46
-21.75
-45.29
-67.02
-94.59
-122.47
-145.11
-157.04
-154.45
-136.15
-103.95
-62.12
-16.38
26.12
61.64
86.77
99.98
101.56
93.23
77.72
58.28
38.17
19.14
3.95
-6.81
-13.69
-18.20
-22.06
-26.61
-32.37
-38.90
-45.60
-50.36
-51.85
-49.40
-43.08
-33.76
-22.79
-11.67
-1.72
5.89
11.05
13.76
14.32
13.20
10.99
8.37
6.10
4.88
5.15
7.21
10.87
15.46
20.09
23.80
25.96
26.47
25.86
25.10
25.29
27.32
31.64
38.16
46.35
55.48
64.80
73.78
82.25
90.42
98.75
107.81
117.98
129.23
141.02
152.18
161.13
166.02
165.06
156.71
139.98
114.64
81.36
41.82
-1.37
-44.86
-84.99
-118.33
-142.39
-156.11
-160.13
-156.59
-148.60
-139.48
-132.13
-128.53
-129.73
-135.87
-146.24
-159.38
-173.02
-184.28
-190.21
-188.53
-178.38
-160.69
-137.95
-113.42
-90.11
-70.16
-54.67
-44.08
-38.63
-38.49
-43.48
-52.50
-63.28
-72.75
-77.79
-76.23
-67.31
-51.67
-30.66
-5.74
21.85
51.06
80.68
109.28
135.25
157.29
174.72
187.57
196.41
202.04
205.38
207.34
208.89
211.01
214.50
219.76
226.58
234.01
240.42
243.61
241.14
230.79
211.10
181.85
144.26
100.64
53.69
5.60
-42.67
-91.54
-142.23
-195.46
-250.31
-303.62
-350.52
-386.02
-406.88
-412.91
-407.05
-394.06
-378.52
-363.12
-348.10
-332.04
-313.45
-292.07
-269.21
-246.82
-226.27
-207.30
-188.15
-166.60
-141.18
-112.03
-80.73
-49.17
-18.41
11.93
43.37
77.48
114.87
154.74
195.30
234.52
270.77
302.90
329.80
349.97
361.41
362.17
351.31
329.71
300.25
267.17
234.88
206.73
184.30
167.57
155.48
146.80
140.48
135.80
132.06
128.40
123.86
117.66
109.64
100.40
91.12
83.01
76.82
72.52
69.41
66.52
63.06
58.65
53.40
47.71
41.93
36.16
30.18
23.27
14.33
2.07
-14.52
-35.64
-60.20
-85.83
-109.31
-127.44
-137.72
-138.87
-130.82
-114.51
-91.61
-64.34
-35.34
-7.38
17.19
37.08
52.51
65.21
77.83
92.94
112.00
134.55
158.08
178.54
191.47
193.37
182.66
159.93
127.54
88.47
45.29
-0.39
-48.11
-98.25
-151.69
-208.88
-268.72
-327.62
-379.45
-417.00
-434.56
-430.37
-407.49
-372.36
-331.83
-290.28
-248.54
-205.15
-158.78
-110.14
-62.05
-17.79
20.97
55.12
87.29
119.93
153.63
186.63
215.64
237.13
248.71
249.67
241.08
225.23
204.93
182.77
160.46
138.60
116.86
94.70
72.21
50.65
32.37
19.96
14.82
15.88
19.10
18.12
5.86
-23.46
-72.26
-138.16
-213.80
-288.19
-349.52
-388.46
-400.86
-388.55
-357.96
-317.03
-272.19
-226.72
-181.29
-135.86
-91.40
-50.45
-16.03
9.94
27.37
37.34
40.69
37.16
26.02
7.66
-15.03
-36.63
-50.91
-53.31
-42.71
-21.59
5.35
33.18
58.08
77.71
90.93
97.43
97.98
94.83
91.88
93.76
104.30
124.91
153.80
186.58
217.89
243.24
260.32
269.13
271.06
267.71
259.99
248.05
231.87
211.82
188.95
164.40
138.90
112.24
83.37
51.00
14.25
-27.25
-73.72
-125.33
-181.70
-241.02
-298.56
-346.97
-378.03
-385.54
-367.95
-329.00
-275.97
-216.44
-155.76
-96.17
-38.45
15.59
61.66
93.86
107.30
100.75
77.90
45.41
10.87
-19.97
-44.21
-61.45
-72.27
-77.18
-76.48
-70.12
-60.29
-49.36
-39.91
-33.91
-32.00
-33.18
-34.81
-33.12
-22.95
-3.38
25.11
58.70
91.47
117.66
134.11
141.27
142.30
143.08
143.55
143.68
141.96
137.15
129.59
121.31
114.94
112.30
116.39
122.94
130.08
136.22
140.71
144.23
148.06
153.16
141.97
135.23
127.50
116.86
102.34
84.70
66.57
51.23
41.12
36.84
39.84
44.49
47.65
46.21
38.29
24.06
5.11
-16.56
-39.23
-59.32
-77.84
-93.76
-107.28
-119.32
-130.65
-141.60
-151.82
-159.82
-161.56
-155.57
-137.12
-106.73
-71.73
-40.98
-18.86
-4.55
4.51
9.98
9.85
2.14
-12.85
-33.64
-55.31
-71.92
-79.79
-78.78
-71.34
-61.31
-51.76
-45.16
-42.93
-46.55
-57.52
-76.87
-103.71
-134.38
-162.97
-183.41
-191.83
-187.57
-172.19
-148.31
-118.58
-85.29
-50.57
-16.67
13.97
39.42
59.20
74.90
89.38
105.09
122.64
140.45
155.61
165.37
168.38
165.17
157.65
147.90
137.13
125.44
112.54
98.74
85.37
74.44
67.72
66.18
69.95
78.87
92.78
111.08
131.81
150.84
162.15
159.64
139.56
102.56
54.08
2.60
-43.18
-77.09
-96.90
-104.11
-102.41
-96.15
-89.21
-84.53
-84.13
-89.22
-100.09
-115.88
-134.25
-151.67
-164.22
-168.76
-164.00
-150.82
-131.75
-109.91
-87.91
-67.17
-47.99
-30.14
-13.45
1.72
14.52
23.94
29.35
30.88
29.61
27.28
25.72
26.14
28.62
32.10
34.99
36.12
35.53
34.59
35.44
39.77
47.90
58.35
68.50
75.70
78.33
76.27
70.52
62.47
53.21
43.38
33.32
23.51
14.74
7.99
3.98
2.66
3.24
4.41
4.90
3.97
1.65
-1.43
-4.33
-6.24
-6.98
-6.76
-5.92
-4.74
-3.51
-2.51
-2.02
-2.20
-3.09
-4.99
-7.92
-11.46
-14.77
-17.06
-17.79
-16.82
-14.37
-10.99
-8.14
-7.13
-8.41
-11.44
-15.37
-19.41
-23.12
-26.39
-29.36
-33.11
-38.41
-45.06
-52.08
-58.47
-63.76
-67.88
-70.91
-67.26
-54.36
-34.75
-14.47
1.53
11.62
16.68
18.70
19.71
20.19
19.88
18.20
15.17
11.51
8.21
6.00
5.22
5.75
8.45
12.54
16.87
20.67
23.64
25.67
26.67
26.69
26.00
25.04
23.72
21.93
19.76
17.52
15.49
13.85
12.68
12.08
12.02
12.06
11.60
10.18
7.60
3.90
-0.58
-5.22
-9.22
-11.84
-12.78
-12.27
-10.91
-9.41
-8.47
-8.52
-9.71
-12.01
-15.23
-18.86
-21.87
-22.91
-20.94
-16.16
-10.30
-6.04
-5.49
-8.77
-13.62
-16.40
-14.05
-5.80
6.37
18.84
28.19
32.63
32.41
29.03
24.12
18.75
13.32
8.00
3.02
-1.34
-4.94
-7.92
-10.73
-13.90
-17.80
-22.39
-27.21
-31.55
-34.73
-36.43
-36.92
-37.00
-37.68
-39.63
-42.86
-46.58
-49.53
-50.49
-48.77
-44.45
-38.30
-31.41
-24.83
-19.22
-14.78
-11.27
-8.23
-5.16
-1.71
2.20
6.39
10.51
14.21
17.15
19.01
19.45
18.23
15.35
11.31
7.13
4.11
3.39
5.53
10.22
16.44
22.83
28.22
32.01
34.31
35.73
37.09
38.94
41.36
43.89
45.73
45.94
43.51
37.37
26.54
10.58
-9.85
-32.66
-54.66
-72.67
-84.89
-91.83
-96.02
-100.72
-108.12
-118.27
-129.22
-138.28
-143.61
-144.87
-142.97
-138.83
-132.38
-122.43
-107.51
-87.26
-63.36
-39.56
-20.25
-8.48
-4.17
-3.60
-0.52
11.49
36.64
75.20
123.48
175.19
223.50
262.86
289.93
303.70
305.00
296.23
281.19
264.71
251.67
245.32
245.77
249.62
251.14
244.76
227.36
199.43
164.11
125.22
85.36
45.35
5.00
-35.43
-74.52
-110.08
-140.33
-164.94
-185.11
-202.75
-219.19
-234.52
-247.81
-257.79
-263.73
-265.88
-265.14
-262.47
-258.33
-252.28
-243.01
-228.66
-207.17
-176.93
-137.62
-90.96
-40.84
7.32
48.00
77.17
93.28
97.37
92.17
80.92
66.22
49.74
32.37
14.91
-1.40
-14.78
-23.26
-25.40
-21.01
-11.41
0.84
12.75
21.81
26.88
28.32
27.57
26.15
24.98
24.18
23.35
22.14
20.56
18.96
17.77
17.18
17.09
17.11
16.89
16.31
15.57
15.13
15.55
17.43
21.19
27.05
34.82
43.99
53.92
64.16
74.54
85.25
96.72
109.48
123.68
138.79
153.72
167.48
179.74
190.82
201.12
210.53
218.00
221.51
218.57
207.36
187.59
160.53
128.01
91.31
51.10
8.27
-35.08
-75.36
-107.89
-128.02
-132.87
-122.54
-102.02
-79.48
-63.33
-56.58
-56.18
-57.31
-57.35
-57.30
-60.68
-71.04
-89.10
-111.71
-132.85
-147.45
-152.73
-148.71
-137.98
-124.54
-112.18
-102.75
-95.74
-89.16
-81.39
-72.33
-63.49
-56.96
-53.52
-52.83
-52.75
-50.43
-43.93
-33.46
-20.94
-8.51
3.12
15.13
29.42
47.02
66.65
84.85
97.45
101.54
96.90
85.98
72.67
60.58
51.77
46.37
42.97
39.61
34.92
28.68
21.76
15.45
10.62
7.19
4.07
-0.17
-6.50
-14.64
-23.00
-29.31
-31.62
-29.19
-22.66
-13.72
-4.33
3.98
10.36
14.45
16.03
14.93
11.10
5.05
-2.04
-8.48
-12.70
-13.65
-11.20
-6.10
0.49
7.31
13.53
18.92
23.89
29.34
36.33
45.61
57.23
70.48
84.05
96.53
107.00
115.38
122.42
129.53
138.29
149.87
164.52
180.95
196.22
206.04
205.84
192.09
163.41
120.98
67.96
8.44
-53.58
-114.72
-172.09
-223.01
-264.91
-295.54
-313.54
-318.77
-312.25
-295.82
-271.60
-241.75
-208.34
-173.48
-139.23
-107.50
-79.82
-57.20
-40.11
-28.49
-21.85
-19.29
-19.55
-21.15
-22.66
-23.02
-21.73
-18.87
-14.92
-10.48
-6.02
-1.80
2.08
5.54
8.34
10.15
10.50
9.09
5.86
1.12
-4.50
-10.29
-15.71
-20.67
-25.56
-31.10
-37.92
-46.26
-55.69
-65.05
-72.54
-75.97
-73.13
-62.27
-42.72
-15.34
17.36
51.65
83.58
110.04
129.61
142.66
150.91
156.48
161.05
165.44
169.66
173.31
175.95
177.39
177.59
176.54
174.05
169.69
162.89
153.07
139.76
122.71
101.95
77.97
51.83
25.22
0.36
-20.46
-35.40
-43.57
-45.31
-42.01
-35.62
-28.03
-20.55
-13.80
-7.86
-2.72
1.30
3.37
2.31
-2.95
-12.87
-26.93
-43.76
-61.46
-78.23
-92.81
-104.62
-113.61
-119.99
-123.98
-125.77
-125.64
-124.07
-121.81
-119.62
-118.09
-117.36
-117.12
-116.66
-115.24
-112.30
-107.63
-101.44
-94.32
-87.09
-80.63
-75.77
-73.18
-73.22
-75.99
-81.28
-88.76
-98.00
-108.62
-120.33
-132.89
-146.03
-159.40
-172.46
-184.28
-193.56
-198.51
-197.13
-187.57
-168.65
-140.38
-104.14
-62.57
-19.08
22.76
59.86
90.00
111.97
125.73
132.36
134.02
133.51
133.60
136.15
141.56
148.72
155.58
160.15
161.31
159.16
154.69
149.15
143.25
136.93
129.47
119.96
107.86
93.28
76.93
59.83
42.93
26.82
11.81
-1.91
-13.95
-23.55
-29.67
-31.46
-28.60
-21.52
-11.26
1.01
14.36
28.28
42.35
55.76
66.99
73.90
74.43
67.49
53.57
34.76
14.10
-5.40
-21.60
-33.50
-41.01
-44.41
-44.02
-40.25
-33.89
-26.32
-19.28
-14.32
-12.05
-11.93
-12.49
-12.22
-10.35
-7.21
-3.98
-2.01
-2.22
-4.80
-9.37
-15.14
-21.10
-25.96
-28.27
-26.81
-21.11
-12.01
-1.60
7.35
12.33
12.02
6.67
-2.07
-11.84
-20.40
-26.17
-28.58
-27.90
-25.03
-21.04
-16.85
-12.98
-9.55
-6.46
-3.64
-1.22
0.48
1.11
0.47
-1.34
-3.95
-6.91
-9.84
-12.63
-15.40
-18.32
-21.34
-23.99
-25.47
-24.94
-21.95
-16.74
-10.15
-3.29
2.91
8.04
12.17
15.63
18.53
20.66
21.47
20.48
17.59
13.39
9.00
5.70
4.48
5.65
8.74
12.71
16.35
18.64
19.12
17.97
15.90
13.93
13.10
14.10
17.04
21.33
25.84
29.19
30.30
28.76
25.09
20.53
16.66
14.76
15.46
18.53
23.17
28.34
33.23
37.46
41.11
44.44
47.63
50.56
52.85
53.99
53.47
50.90
45.93
38.32
27.98
15.27
1.15
-12.80
-24.75
-33.17
-37.40
-37.89
-35.93
-33.10
-30.69
-29.32
-29.02
-29.49
-30.37
-31.46
-32.64
-33.87
-35.07
-36.13
-36.98
-37.56
-37.84
-37.69
-36.86
-34.91
-31.43
-26.17
-19.27
-11.35
-3.44
3.29
8.00
10.47
11.32
11.77
13.19
16.55
22.09
29.28
37.16
44.74
51.34
56.68
60.71
63.50
65.08
65.49
64.84
63.32
61.10
58.29
54.89
50.87
46.32
41.50
36.79
32.56
28.99
26.10
23.80
22.05
20.90
20.47
20.71
21.34
21.91
21.99
21.43
20.48
19.63
19.34
19.73
20.49
21.08
21.02
20.16
18.75
17.25
16.12
15.61
15.74
16.39
17.41
18.67
19.95
20.92
21.12
20.16
17.82
14.19
9.59
4.47
-0.83
-6.14
-11.39
-16.46
-21.12
-24.98
-27.63
-28.75
-28.26
-26.32
-23.21
-19.22
-14.59
-9.41
-3.73
2.45
9.03
15.81
22.45
28.57
33.80
37.93
40.98
43.14
44.80
46.30
47.93
49.80
51.94
54.25
56.62
58.87
60.77
62.13
62.84
62.96
62.69
62.26
61.68
60.68
58.67
54.88
48.73
40.00
28.90
16.04
2.20
-11.89
-25.49
-37.94
-48.56
-56.73
-62.05
-64.51
-64.60
-63.17
-61.21
-59.56
-58.73
-58.87
-59.84
-61.34
-62.84
-63.68
-63.15
-60.85
-56.94
-52.35
-48.49
-46.85
-48.36
-53.15
-60.59
-69.66
-79.33
-88.68
-96.93
-103.32
-107.12
-107.84
-105.45
-100.49
-93.85
-86.47
-79.00
-71.74
-64.71
-57.86
-51.22
-44.81
-38.52
-32.00
-24.72
-16.23
-6.30
4.86
16.68
28.34
39.01
48.03
54.86
59.20
60.87
59.93
56.78
52.18
47.17
42.84
39.99
38.90
39.18
40.00
40.40
39.64
37.46
34.10
30.17
26.41
23.41
21.59
21.06
21.69
23.11
24.79
26.06
26.24
24.83
21.68
17.14
12.03
7.43
4.31
3.25
4.28
6.99
10.72
14.90
19.08
23.00
26.37
28.85
29.98
29.27
26.34
20.87
12.68
1.66
-12.16
-28.43
-46.36
-64.72
-82.05
-97.00
-108.64
-116.69
-121.43
-123.35
-122.81
-119.81
-114.14
-105.62
-94.57
-81.82
-68.55
-55.85
-44.36
-34.15
-24.96
-16.56
-8.98
-2.48
2.72
6.80
10.37
14.36
19.51
26.03
33.47
40.94
47.52
52.64
56.28
58.86
60.86
62.50
63.61
63.69
62.23
59.11
54.66
49.64
44.85
40.87
37.86
35.64
33.95
32.63
31.72
31.34
31.44
31.75
31.78
31.02
29.08
25.77
21.06
15.02
7.82
-0.17
-8.31
-15.70
-21.46
-24.97
-26.16
-25.44
-23.44
-20.62
-16.94
-12.01
-5.34
3.14
12.73
22.03
29.31
33.20
33.30
30.40
26.29
23.08
22.36
24.67
29.44
35.50
41.83
48.04
54.52
62.09
71.60
83.60
98.48
116.51
137.62
160.90
183.99
203.07
213.74
212.40
197.66
170.75
134.71
92.85
47.31
-1.32
-53.01
-106.79
-159.60
-206.43
-241.73
-261.57
-265.16
-255.26
-237.19
-216.99
-199.67
-188.10
-182.82
-182.69
-185.71
-189.77
-193.02
-193.99
-191.41
-184.20
-171.49
-152.85
-128.57
-99.87
-68.74
-37.65
-9.00
15.48
35.03
49.86
60.77
68.72
74.44
78.40
81.00
82.78
84.47
86.86
90.45
95.16
100.33
104.82
107.40
107.01
103.04
95.39
84.43
71.03
56.40
41.85
28.52
17.10
7.67
-0.21
-7.26
-14.14
-21.16
-28.21
-34.91
-40.87
-46.03
-50.68
-55.40
-60.63
-66.31
-71.66
-75.37
-75.98
-72.46
-64.58
-53.04
-39.12
-24.29
-9.69
4.15
17.22
29.72
41.78
53.16
63.36
71.76
77.96
81.91
83.97
84.78
85.10
85.62
86.90
89.22
92.44
95.80
97.72
96.05
88.53
73.60
51.23
23.43
-5.94
-32.04
-50.48
-58.67
-56.54
-46.36
-31.55
-15.35
0.16
14.20
26.68
37.31
45.34
49.74
49.94
46.23
39.78
31.93
23.51
14.63
5.14
-4.80
-14.35
-22.34
-27.99
-31.49
-34.04
-37.12
-41.68
-47.53
-53.57
-58.44
-61.26
-62.08
-61.71
-61.26
-61.55
-62.88
-65.13
-68.12
-72.02
-77.46
-85.16
-95.37
-107.37
-119.27
-128.61
-133.19
-131.94
-125.04
-113.49
-98.19
-79.41
-56.81
-30.30
-0.83
29.26
56.73
78.52
92.81
99.46
99.75
95.66
89.06
81.43
73.84
67.15
61.94
58.41
56.09
53.95
50.79
45.79
38.95
31.09
23.54
17.55
13.84
12.48
12.94
14.48
16.37
18.09
19.42
20.36
21.07
21.80
22.81
24.28
26.27
28.67
31.14
33.11
33.86
32.71
29.33
23.96
17.33
10.45
4.12
-1.41
-6.46
-11.65
-17.44
-23.79
-30.14
-35.75
-40.04
-42.84
-44.35
-44.84
-44.39
-42.77
-39.63
-34.79
-28.46
-21.24
-13.93
-7.27
-1.68
2.77
6.14
8.54
9.96
10.39
9.93
8.95
7.98
7.57
8.09
9.61
11.95
14.79
17.75
20.40
22.28
22.98
22.23
20.04
16.78
13.03
9.37
6.22
3.76
2.06
1.18
1.23
2.32
4.36
7.01
9.64
11.59
12.28
11.45
9.24
6.07
2.47
-1.00
-3.99
-6.30
-7.90
-8.81
-9.12
-8.90
-8.28
-7.44
-6.65
-6.16
-6.22
-6.93
-8.26
-10.09
-12.23
-14.50
-16.71
-18.72
-20.34
-21.39
-21.68
-21.12
-19.74
-17.76
-15.52
-13.36
-11.54
-10.15
-9.20
-8.64
-8.48
-8.67
-9.15
-9.75
-10.23
-10.37
-10.04
-9.33
-8.39
-7.44
-6.64
-6.03
-5.56
-5.18
-4.89
-4.77
-4.98
-5.74
-7.21
-9.43
-12.24
-15.31
-18.15
-20.31
-21.44
-21.40
-20.23
-18.06
-15.05
-11.38
-7.23
-2.85
1.48
5.54
9.22
12.63
15.94
19.35
22.85
26.23
29.10
31.11
32.10
32.14
31.57
30.85
30.44
30.73
31.95
34.18
37.28
40.80
44.05
46.16
46.35
44.17
39.70
33.58
26.83
20.62
15.93
13.35
13.01
14.67
17.87
22.12
26.98
32.06
36.99
41.41
44.99
47.49
48.78
48.89
47.95
46.13
43.60
40.51
37.00
33.17
29.06
24.55
19.35
13.08
5.41
-3.74
-14.15
-25.26
-36.36
-46.71
-55.68
-62.85
-67.95
-70.91
-71.76
-70.62
-67.60
-62.74
-56.05
-47.56
-37.48
-26.31
-14.82
-3.83
5.96
14.24
21.05
26.69
31.44
35.33
38.10
39.19
37.99
34.02
27.14
17.56
5.84
-7.38
-21.54
-36.46
-52.35
-69.72
-88.98
-109.92
-131.48
-151.74
-168.46
-179.82
-185.06
-184.79
-180.59
-174.42
-167.77
-161.32
-154.89
-147.85
-139.53
-129.46
-117.48
-103.62
-88.04
-71.01
-53.01
-34.56
-16.21
1.72
19.21
36.39
53.38
70.09
86.10
100.78
113.51
123.80
131.41
136.29
138.51
138.22
135.55
130.68
123.88
115.51
106.05
96.12
86.42
77.62
70.31
64.78
61.04
58.78
57.51
56.72
55.94
54.83
53.08
50.50
46.99
42.68
37.95
33.34
29.42
26.56
24.76
23.69
22.81
21.62
19.88
17.63
15.07
12.40
9.81
7.58
6.25
6.66
9.68
15.86
25.02
36.04
47.04
55.74
60.10
58.95
52.39
41.93
30.14
19.95
13.74
12.68
16.47
23.70
32.44
40.90
47.80
52.34
54.11
53.04
49.47
44.17
38.21
32.55
27.68
23.30
18.62
12.72
5.06
-4.17
-14.16
-23.75
-31.82
-37.59
-40.80
-41.69
-40.88
-39.19
-37.38
-36.07
-35.64
-36.25
-37.94
-40.67
-44.31
-48.60
-53.16
-57.55
-61.35
-64.25
-66.06
-66.60
-65.71
-63.17
-58.84
-52.78
-45.30
-37.02
-28.63
-20.67
-13.45
-7.03
-1.38
3.44
7.17
9.46
10.01
8.78
6.11
2.62
-0.93
-3.93
-6.07
-7.25
-7.53
-6.93
-5.35
-2.66
1.18
5.93
11.11
16.10
20.33
23.54
25.76
27.18
27.98
28.11
27.40
25.69
23.05
19.86
16.70
14.18
12.66
12.20
12.51
13.12
13.48
13.10
11.65
9.01
5.31
0.89
-3.75
-8.12
-11.81
-14.55
-16.27
-17.13
-17.61
-18.45
-20.45
-24.14
-29.43
-35.50
-41.02
-44.59
-45.29
-42.98
-38.23
-31.98
-25.16
-18.43
-12.15
-6.46
-1.48
2.72
6.13
8.88
11.23
13.41
15.53
17.52
19.11
19.94
19.79
18.66
16.81
14.79
13.17
12.43
12.69
13.78
15.20
16.37
16.81
16.23
14.60
12.08
8.89
5.19
1.11
-3.22
-7.61
-11.70
-15.05
-17.23
-18.02
-17.50
-16.11
-14.45
-13.11
-12.39
-12.29
-12.61
-13.16
-13.97
-15.29
-17.47
-20.75
-25.03
-29.91
-34.78
-39.11
-42.50
-44.77
-45.82
-45.53
-43.79
-40.63
-36.34
-31.49
-26.72
-22.58
-19.29
-16.81
-14.99
-13.70
-12.97
-12.86
-13.40
-14.42
-15.67
-16.87
-17.85
-18.56
-19.01
-19.21
-19.19
-18.94
-18.59
-18.29
-18.21
-18.48
-19.13
-20.11
-21.38
-22.83
-24.30
-25.56
-26.29
-26.32
-25.64
-24.60
-23.67
-23.35
-23.96
-25.52
-27.89
-30.80
-34.00
-37.26
-40.33
-42.87
-44.55
-45.18
-44.82
-43.86
-42.87
-42.36
-42.59
-43.44
-44.42
-44.84
-43.96
-41.20
-36.29
-29.31
-20.65
-10.80
-0.20
10.89
22.38
34.17
46.00
57.41
67.80
76.74
84.06
89.98
94.90
99.16
102.85
105.80
107.72
108.35
107.59
105.51
102.24
97.86
92.36
85.70
77.99
69.50
60.68
52.02
43.90
36.48
29.82
23.99
19.14
15.57
13.53
13.07
13.89
15.42
16.96
17.97
18.23
17.89
17.26
16.65
16.14
15.56
14.57
12.83
10.19
6.80
3.02
-0.64
-3.71
-5.92
-7.25
-7.88
-8.12
-8.24
-8.38
-8.54
-8.61
-8.50
-8.31
-8.28
-8.81
-10.27
-12.79
-16.20
-20.01
-23.58
-26.29
-27.71
-27.71
-26.46
-24.29
-21.60
-18.66
-15.66
-12.69
-9.85
-7.31
-5.34
-4.14
-3.79
-4.18
-4.99
-5.87
-6.56
-7.03
-7.39
-7.87
-8.60
-9.55
-10.58
-11.52
-12.26
-12.81
-13.29
-13.81
-14.43
-15.16
-16.06
-17.20
-18.72
-20.70
-23.03
-25.36
-27.12
-27.76
-26.93
-24.62
-21.14
-16.99
-12.69
-8.61
-4.98
-1.86
0.73
2.84
4.53
5.93
7.20
8.53
10.11
12.05
14.35
16.86
19.30
21.31
22.61
23.05
22.74
21.91
20.87
19.86
19.00
18.30
17.67
16.97
16.09
14.89
13.35
11.59
10.00
9.14
9.62
11.87
15.91
21.30
27.30
33.10
38.08
41.94
44.65
46.30
46.95
46.56
45.05
42.33
38.50
33.77
28.45
22.90
17.41
12.16
7.20
2.50
-2.03
-6.41
-10.63
-14.64
-18.39
-21.93
-25.32
-28.68
-32.06
-35.43
-38.68
-41.66
-44.23
-46.24
-47.50
-47.81
-47.03
-45.13
-42.26
-38.74
-34.94
-31.19
-27.66
-24.40
-21.36
-18.55
-16.05
-14.04
-12.70
-12.14
-12.18
-12.44
-12.37
-11.49
-9.53
-6.64
-3.22
0.16
3.09
5.49
7.57
9.85
12.96
17.53
24.05
32.72
43.33
55.19
67.16
78.01
86.75
92.97
96.85
99.01
100.12
100.68
100.92
100.96
100.97
101.22
101.94
103.14
104.44
105.12
104.21
100.77
94.05
83.59
69.28
51.40
30.72
8.48
-13.61
-33.56
-49.44
-59.58
-62.88
-58.89
-48.01
-31.62
-12.20
6.83
21.69
29.10
27.12
15.58
-4.12
-29.67
-58.71
-89.26
-119.67
-148.34
-173.32
-192.41
-203.52
-205.27
-197.44
-181.08
-158.25
-131.65
-104.14
-78.41
-56.58
-39.88
-28.54
-21.86
-18.49
-16.85
-15.55
-13.69
-10.86
-7.13
-2.77
1.79
6.14
9.93
12.91
14.95
16.16
16.75
17.04
17.28
17.65
18.20
18.96
19.91
21.10
22.61
24.54
26.96
29.92
33.43
37.44
41.92
46.75
51.78
56.69
60.99
64.06
65.21
63.94
60.04
53.67
45.27
35.42
24.69
13.57
2.48
-8.19
-18.00
-26.47
-33.25
-38.16
-41.31
-43.06
-43.95
-44.56
-45.35
-46.67
-48.66
-51.31
-54.51
-57.97
-61.30
-63.98
-65.52
-65.58
-64.11
-61.36
-57.80
-54.01
-50.47
-47.55
-45.41
-44.11
-43.57
-43.59
-43.89
-44.15
-44.07
-43.52
-42.51
-41.15
-39.56
-37.75
-35.63
-33.18
-30.48
-27.92
-26.02
-25.28
-25.96
-28.09
-31.47
-35.85
-41.07
-47.01
-53.51
-60.24
-66.63
-72.01
-75.72
-77.33
-76.79
-74.30
-70.33
-65.38
-59.89
-54.12
-48.11
-41.68
-34.55
-26.48
-17.30
-7.00
4.28
16.26
28.68
41.24
53.77
66.01
77.64
88.07
96.53
102.21
104.58
103.65
100.12
95.25
90.52
87.09
85.43
85.12
85.02
83.87
80.78
75.68
69.37
63.06
57.83
54.20
52.00
50.68
49.74
49.00
48.56
48.57
48.83
48.74
47.49
44.49
39.71
33.74
27.55
22.08
17.83
14.72
12.23
9.69
6.65
3.04
-0.82
-4.46
-7.48
-9.78
-11.52
-13.05
-14.70
-16.72
-19.28
-22.53
-26.71
-31.98
-38.33
-45.39
-52.42
-58.44
-62.52
-64.04
-62.82
-59.01
-53.00
-45.23
-36.14
-26.24
-16.09
-6.29
2.62
10.34
16.76
22.02
26.27
29.62
32.08
33.57
34.05
33.62
32.52
31.08
29.64
28.46
27.58
26.84
25.92
24.42
22.08
18.89
15.12
11.29
8.02
5.76
4.75
4.89
5.86
7.22
8.63
9.87
10.86
11.64
12.26
12.71
12.94
12.83
12.28
11.26
9.85
8.24
6.70
5.45
4.60
4.11
3.80
3.46
2.92
2.13
1.10
-0.11
-1.41
-2.82
-4.37
-6.14
-8.15
-10.33
-12.42
-14.05
-14.80
-14.36
-12.67
-9.92
-6.49
-2.83
0.73
3.93
6.66
8.85
10.46
11.60
12.52
13.60
15.29
17.81
21.12
24.80
28.23
30.82
32.24
32.49
31.85
30.72
29.40
28.02
26.56
24.85
22.73
20.14
17.08
13.71
10.31
7.22
4.82
3.39
3.04
3.67
5.05
6.89
9.00
11.26
13.61
15.94
18.05
19.69
20.65
20.89
20.54
19.86
19.08
18.28
17.38
16.19
14.50
12.25
9.56
6.65
3.80
1.17
-1.22
-3.49
-5.86
-8.54
-11.59
-14.94
-18.28
-21.15
-23.01
-23.41
-22.04
-18.90
-14.23
-8.43
-1.97
4.77
11.53
18.19
24.67
30.85
36.59
41.70
46.11
49.80
52.83
55.32
57.36
59.06
60.56
62.01
63.44
64.74
65.55
65.42
63.89
60.75
56.13
50.46
44.25
37.93
31.68
25.48
19.16
12.58
5.73
-1.28
-8.21
-14.79
-20.74
-25.85
-30.00
-33.11
-35.13
-36.02
-35.74
-34.34
-31.97
-28.92
-25.57
-22.34
-19.55
-17.45
-16.08
-15.37
-15.05
-14.75
-14.05
-12.63
-10.42
-7.60
-4.58
-1.80
0.42
1.94
2.85
3.35
3.68
4.10
4.81
5.93
7.37
8.72
9.41
8.85
6.75
3.31
-0.90
-5.23
-9.24
-12.93
-16.63
-20.71
-25.24
-29.83
-33.69
-35.86
-35.44
-31.66
-24.00
-12.26
3.16
21.20
40.13
57.88
72.62
83.19
89.35
91.52
90.40
86.49
80.08
71.34
60.68
48.80
36.56
24.65
13.29
2.20
-9.14
-21.15
-33.84
-46.84
-59.51
-71.31
-82.02
-91.86
-101.37
-111.22
-121.92
-133.61
-146.04
-158.59
-170.36
-180.32
-187.44
-190.82
-189.81
-184.08
-173.62
-158.60
-139.33
-116.35
-90.59
-63.52
-37.13
-13.53
5.56
19.40
28.33
33.53
36.39
37.97
38.71
38.55
37.32
34.91
31.52
27.45
23.08
18.81
15.05
12.30
11.05
11.62
14.08
18.07
22.93
27.86
32.10
35.15
36.86
37.36
37.02
36.31
35.65
35.33
35.48
36.04
36.86
37.75
38.56
39.15
39.42
39.30
38.68
37.50
35.77
33.57
31.08
28.49
25.91
23.32
20.52
17.22
13.09
7.89
1.63
-5.41
-12.66
-19.46
-25.34
-30.23
-34.56
-39.11
-44.65
-51.57
-59.70
-68.31
-76.38
-82.90
-87.19
-88.90
-88.00
-84.62
-78.98
-71.34
-62.04
-51.48
-40.17
-28.64
-17.35
-6.63
3.42
12.81
21.64
29.95
37.67
44.61
50.55
55.36
59.08
61.90
64.10
65.92
67.38
68.24
68.05
66.35
62.82
57.47
50.55
42.49
33.72
24.53
15.08
5.51
-3.98
-13.08
-21.48
-28.94
-35.46
-41.19
-46.35
-51.08
-55.41
-59.21
-62.36
-64.77
-66.40
-67.28
-67.42
-66.76
-65.23
-62.73
-59.23
-54.81
-49.55
-43.56
-36.95
-29.85
-22.47
-15.13
-8.19
-1.93
3.61
8.65
13.58
18.77
24.36
30.11
35.54
40.15
43.62
45.93
47.23
47.70
47.43
46.35
44.38
41.53
37.94
33.87
29.62
25.44
21.60
18.39
16.08
14.86
14.80
15.74
17.31
19.14
20.96
22.65
24.25
25.86
27.46
28.97
30.23
31.13
31.67
31.92
31.93
31.69
31.10
30.07
28.53
26.51
24.02
21.05
17.50
13.18
7.98
1.96
-4.64
-11.44
-17.99
-23.99
-29.33
-34.03
-38.21
-41.92
-45.09
-47.53
-48.95
-49.16
-48.17
-46.14
-43.41
-40.34
-37.15
-33.88
-30.49
-26.84
-22.89
-18.68
-14.38
-10.19
-6.34
-2.98
-0.16
2.22
4.31
6.26
8.10
9.74
11.03
11.86
12.24
12.32
12.30
12.34
12.46
12.57
12.52
12.19
11.47
10.30
8.55
6.05
2.69
-1.45
-6.01
-10.34
-13.68
-15.40
-15.19
-13.19
-9.86
-5.79
-1.52
2.65
6.57
10.22
13.54
16.45
18.83
20.61
21.78
22.38
22.50
22.20
21.55
20.57
19.33
17.90
16.44
15.08
13.94
13.04
12.26
11.39
10.22
8.61
6.59
4.33
2.06
-0.07
-1.99
-3.83
-5.75
-7.85
-10.07
-12.13
-13.61
-14.07
-13.24
-11.12
-7.96
-4.17
-0.17
3.76
7.46
10.85
13.78
16.07
17.50
17.96
17.54
16.53
15.36
14.38
13.80
13.65
13.77
13.98
14.11
14.12
14.03
13.88
13.69
13.45
13.03
12.18
10.70
8.39
5.21
1.25
-3.26
-8.08
-12.97
-17.63
-21.77
-25.00
-26.91
-27.18
-25.68
-22.53
-18.05
-12.69
-6.83
-0.84
5.04
10.56
15.56
19.89
23.46
26.28
28.40
29.89
30.88
31.49
31.93
32.40
33.15
34.32
35.97
38.00
40.23
42.39
44.27
45.72
46.68
47.26
47.63
48.09
48.87
50.16
51.96
54.22
56.89
60.05
63.96
68.95
75.23
82.70
90.96
99.29
106.98
113.40
118.16
120.99
121.67
119.95
115.59
108.60
99.27
88.31
76.65
65.24
54.67
45.07
36.10
27.06
17.21
5.89
-7.41
-22.99
-40.88
-60.63
-81.20
-100.84
-117.38
-128.69
-133.32
-131.03
-122.88
-110.94
-97.62
-84.94
-74.07
-65.25
-58.04
-51.77
-45.85
-39.96
-33.99
-27.87
-21.49
-14.74
-7.55
0.02
7.78
15.53
23.09
30.36
37.33
44.04
50.55
57.00
63.52
70.20
76.88
83.06
87.91
90.48
89.96
85.79
77.67
65.51
49.54
30.51
10.03
-9.56
-25.78
-36.85
-42.47
-43.93
-43.48
-43.32
-44.73
-47.83
-51.90
-56.13
-60.01
-63.43
-66.36
-68.48
-69.20
-67.91
-64.38
-59.00
-52.74
-46.87
-42.52
-40.38
-40.48
-42.25
-44.78
-47.19
-49.02
-50.32
-51.53
-53.17
-55.47
-58.18
-60.67
-62.22
-62.33
-60.97
-58.58
-55.95
-53.88
-52.91
-53.09
-53.98
-54.78
-54.55
-52.54
-48.45
-42.55
-35.80
-29.72
-26.04
-26.40
-31.87
-42.62
-57.86
-76.07
-95.47
-114.55
-132.33
-148.43
-162.80
-175.52
-186.64
-196.34
-204.90
-212.77
-220.23
-227.21
-233.07
-236.74
-237.02
-232.97
-224.22
-211.07
-194.42
-175.41
-155.24
-134.81
-114.45
-93.75
-71.66
-46.89
-18.64
12.87
46.12
78.60
107.43
130.22
145.70
153.91
155.89
153.04
146.64
137.58
126.23
112.62
96.71
78.77
59.51
39.87
20.69
2.37
-14.98
-31.79
-48.85
-66.83
-85.80
-105.03
-123.24
-139.09
-151.51
-159.20
-161.31
-158.02
-150.69
-141.45
-132.66
-126.25
-123.00
-121.95
-119.24
-110.05
-90.79
-60.38
-20.11
27.20
78.08
129.01
176.80
220.16
258.08
288.93
310.94
323.67
329.00
330.45
331.88
327.09
311.17
284.18
251.32
217.91
186.54
157.87
132.01
109.32
92.09
82.59
83.01
93.62
111.83
132.96
151.69
163.42
165.56
152.96
126.33
89.81
48.55
6.68
-33.75
-73.08
-113.39
-156.90
-204.05
-250.84
-290.35
-315.27
-320.49
-304.59
-269.91
-221.55
-165.39
-106.73
-48.90
5.53
53.98
94.17
125.30
149.06
168.82
187.97
207.33
224.26
233.01
226.84
200.57
152.50
84.89
3.37
-83.84
-166.76
-234.69
-278.15
-291.09
-272.64
-227.20
-163.05
-89.77
-16.18
50.81
106.13
146.33
169.56
176.15
168.87
152.47
132.19
112.29
95.08
81.15
70.22
61.85
55.99
52.64
51.57
52.10
53.31
54.24
53.99
51.83
47.19
39.91
30.36
19.33
7.82
-3.44
-14.20
-24.64
-34.98
-45.13
-54.44
-61.75
-65.74
-65.35
-60.12
-50.51
-37.90
-24.39
-12.45
-4.26
-1.13
-3.18
-9.53
-18.78
-29.34
-39.68
-48.22
-53.37
-53.84
-48.98
-39.12
