1653564741.00
64.000000
-0.00
-0.00
-0.00
-0.00
-0.00
-0.00
-0.00
-0.00
-0.00
-0.00
0.00
0.01
0.01
-0.00
-0.03
-0.05
-0.05
0.00
0.13
0.36
0.66
1.01
1.37
1.72
2.06
2.40
2.79
3.24
3.80
4.42
5.06
5.66
6.20
6.68
7.15
7.68
8.31
9.14
10.09
11.04
11.88
12.56
13.14
13.76
14.65
15.96
17.91
20.32
22.90
25.38
27.58
29.57
31.68
34.32
37.81
42.54
48.15
54.10
59.83
64.97
69.58
74.14
79.34
85.71
93.76
103.00
112.62
121.73
129.77
136.75
143.31
150.75
157.77
166.64
177.94
191.80
207.00
220.61
228.29
225.35
208.43
176.65
132.41
79.59
22.55
-35.47
-92.95
-149.65
-205.75
-260.97
-314.46
-364.72
-410.78
-451.88
-487.45
-516.63
-538.11
-550.19
-551.14
-539.85
-516.01
-480.70
-435.98
-384.47
-328.90
-271.71
-214.75
-159.35
-106.47
-56.76
-10.95
30.27
66.23
96.42
120.64
139.05
152.23
161.02
166.47
169.46
170.64
170.23
168.14
164.08
157.88
149.71
140.14
130.05
120.31
111.50
103.70
96.55
89.45
81.81
73.19
63.31
52.15
40.22
28.89
20.38
17.14
20.82
31.21
45.95
61.20
73.27
79.83
80.68
77.34
71.94
66.11
60.48
54.87
49.04
43.17
37.90
33.98
31.73
30.80
30.30
29.13
26.60
22.75
18.29
14.28
11.62
10.60
10.76
11.20
10.94
9.46
6.88
3.82
1.00
-1.07
-2.27
-2.59
-2.03
-0.56
1.73
4.34
6.41
7.00
5.65
2.67
-0.92
-3.95
-5.67
-6.09
-5.82
-5.59
-5.74
-6.12
-6.27
-5.87
-5.00
-4.04
-3.50
-3.61
-4.32
-5.21
-5.84
-5.88
-5.24
-4.12
-2.85
-1.74
-0.97
-0.58
-0.41
-0.31
-0.16
0.10
0.43
0.77
1.07
1.32
1.54
1.80
2.10
2.46
2.84
3.23
3.64
4.15
4.82
5.72
6.79
7.95
9.05
9.93
10.51
10.78
10.74
10.38
9.68
8.59
7.10
5.30
3.19
0.82
-1.72
-4.32
-6.84
-9.09
-10.89
-12.10
-12.71
-12.84
-12.64
-12.31
-11.97
-11.66
-11.33
-10.93
-10.38
-9.69
-8.91
-8.08
-7.25
-6.43
-5.65
-4.92
-4.31
-3.89
-3.73
-3.87
-4.26
-4.80
-5.33
-5.71
-5.89
-5.88
-5.77
-5.65
-5.64
-5.77
-6.03
-6.38
-6.74
-7.08
-7.38
-7.68
-8.03
-8.47
-9.05
-9.86
-10.93
-12.26
-13.84
-15.57
-17.36
-19.14
-20.86
-22.49
-24.03
-25.45
-26.75
-27.94
-29.08
-30.31
-31.73
-33.34
-35.06
-36.69
-37.90
-38.32
-37.55
-35.18
-30.77
-23.97
-14.53
-2.44
12.04
28.41
45.88
63.52
80.24
94.96
106.73
114.90
119.32
120.29
118.49
114.74
109.74
103.95
97.63
90.99
84.32
78.00
72.47
68.02
64.70
62.27
60.23
57.95
54.72
49.98
43.38
34.89
24.84
13.77
2.34
-8.81
-19.16
-28.35
-36.14
-42.32
-46.72
-49.27
-50.05
-49.51
-48.41
-47.73
-48.33
-50.56
-54.15
-58.22
-61.65
-63.55
-63.59
-62.03
-59.53
-56.76
-54.09
-51.60
-49.16
-46.63
-43.99
-41.36
-38.80
-36.30
-33.73
-30.94
-27.81
-24.39
-20.84
-17.38
-14.18
-11.35
-8.88
-6.75
-4.91
-3.36
-2.17
-1.38
-1.01
-1.05
-1.39
-1.90
-2.42
-2.83
-3.02
-2.99
-2.76
-2.40
-1.99
-1.61
-1.31
-1.09
-0.97
-0.96
-1.10
-1.47
-2.08
-2.91
-3.85
-4.76
-5.55
-6.20
-6.73
-7.18
-7.51
-7.64
-7.45
-6.84
-5.79
-4.37
-2.71
-0.92
0.89
2.66
4.30
5.70
6.76
7.41
7.59
7.35
6.76
5.91
4.91
3.80
2.63
1.43
0.27
-0.80
-1.68
-2.32
-2.67
-2.69
-2.41
-1.85
-1.07
-0.17
0.79
1.78
2.80
3.88
5.01
6.15
7.15
7.88
8.25
8.26
7.99
7.51
6.81
5.85
4.52
2.83
0.96
-0.84
-2.30
-3.27
-3.77
-3.97
-3.98
-3.89
-3.63
-3.12
-2.36
-1.43
-0.47
0.41
1.22
2.02
2.89
3.80
4.62
5.20
5.43
5.34
5.05
4.76
4.57
4.53
4.57
4.57
4.42
4.11
3.64
3.08
2.52
2.04
1.65
1.34
1.06
0.76
0.37
-0.13
-0.74
-1.41
-2.07
-2.64
-3.06
-3.32
-3.51
-3.79
-4.30
-5.08
-6.04
-6.92
-7.48
-7.55
-7.10
-6.28
-5.26
-4.20
-3.15
-2.11
-1.05
-0.00
0.97
1.78
2.38
2.83
3.20
3.53
3.86
4.12
4.27
4.27
4.16
4.05
4.01
4.10
4.27
4.41
4.45
4.37
4.24
4.14
4.12
4.15
4.15
4.01
3.68
3.18
2.58
1.95
1.36
0.83
0.35
-0.12
-0.60
-1.15
-1.78
-2.45
-3.12
-3.74
-4.25
-4.60
-4.76
-4.71
-4.42
-3.88
-3.12
-2.21
-1.20
-0.16
0.83
1.75
2.56
3.25
3.81
4.24
4.53
4.70
4.72
4.58
4.30
3.92
3.52
3.17
2.92
2.76
2.65
2.54
2.37
2.14
1.84
1.45
0.93
0.25
-0.63
-1.71
-2.96
-4.32
-5.74
-7.21
-8.70
-10.20
-11.68
-13.04
-14.12
-14.83
-15.14
-15.17
-15.18
-15.42
-16.04
-16.99
-18.05
-18.93
-19.38
-19.35
-19.03
-18.76
-19.03
-20.32
-23.00
-27.20
-32.69
-38.85
-44.76
-49.41
-52.04
-52.32
-50.52
-47.31
-43.52
-39.89
-36.82
-34.37
-32.34
-30.41
-28.25
-25.52
-21.78
-16.51
-9.21
0.44
12.24
25.49
39.00
51.48
61.96
70.04
75.89
80.01
82.86
84.69
85.46
84.98
83.12
79.87
75.30
69.55
62.78
55.26
47.43
39.85
33.04
27.24
22.22
17.39
12.04
5.77
-1.24
-8.23
-14.22
-18.41
-20.55
-20.95
-20.31
-19.35
-18.48
-17.78
-17.09
-16.20
-15.00
-13.56
-11.97
-10.30
-8.52
-6.56
-4.33
-1.89
0.60
2.91
4.79
6.08
6.77
7.07
7.31
7.87
8.98
10.59
12.32
13.59
13.82
12.75
10.54
7.74
5.01
2.85
1.37
0.33
-0.72
-2.12
-4.00
-6.24
-8.60
-10.84
-12.80
-14.39
-15.60
-16.53
-17.37
-18.32
-19.53
-20.91
-22.15
-22.59
-21.38
-17.46
-9.92
1.66
16.69
33.38
49.09
61.18
68.15
70.33
69.68
68.64
68.75
69.58
69.00
64.46
54.52
39.82
22.86
6.79
-5.91
-14.06
-17.44
-16.13
-10.15
0.17
13.43
26.89
37.02
41.03
38.17
30.28
20.82
13.08
8.70
7.11
6.33
4.42
0.55
-4.74
-10.22
-14.84
-18.28
-20.90
-23.25
-25.65
-27.98
-29.80
-30.69
-30.58
-29.80
-28.97
-28.62
-29.00
-29.88
-30.62
-30.48
-28.92
-25.90
-21.84
-17.47
-13.55
-10.54
-8.50
-7.17
-6.15
-5.18
-4.20
-3.35
-2.86
-2.89
-3.45
-4.40
-5.47
-6.35
-6.84
-6.81
-6.33
-5.59
-4.84
-4.35
-4.26
-4.53
-4.98
-5.36
-5.51
-5.42
-5.23
-5.14
-5.29
-5.70
-6.25
-6.79
-7.23
-7.62
-8.07
-8.69
-9.53
-10.50
-11.42
-12.06
-12.29
-12.09
-11.50
-10.67
-9.70
-8.66
-7.56
-6.37
-5.07
-3.66
-2.24
-0.91
0.21
1.08
1.72
2.22
2.62
2.95
3.14
3.12
2.87
2.41
1.81
1.17
0.57
0.04
-0.36
-0.62
-0.71
-0.64
-0.51
-0.45
-0.61
-1.03
-1.63
-2.23
-2.62
-2.67
-2.38
-1.84
-1.22
-0.66
-0.31
-0.27
-0.65
-1.54
-2.95
-4.75
-6.69
-8.47
-9.81
-10.56
-10.72
-10.39
-9.71
-8.77
-7.65
-6.38
-5.01
-3.60
-2.26
-1.04
0.01
0.87
1.59
2.24
2.91
3.66
4.50
5.33
6.03
6.50
6.69
6.62
6.36
5.91
5.25
4.34
3.16
1.80
0.38
-0.93
-1.99
-2.70
-3.04
-3.02
-2.71
-2.22
-1.70
-1.28
-1.07
-1.08
-1.22
-1.41
-1.58
-1.74
-2.01
-2.52
-3.37
-4.53
-5.85
-7.05
-7.82
-7.94
-7.36
-6.20
-4.72
-3.22
-1.90
-0.86
-0.06
0.55
1.02
1.33
1.45
1.37
1.15
0.88
0.68
0.61
0.69
0.86
1.09
1.36
1.71
2.18
2.79
3.52
4.28
4.93
5.37
5.56
5.49
5.26
4.89
4.39
3.67
2.68
1.41
-0.02
-1.39
-2.51
-3.28
-3.71
-3.89
-3.90
-3.77
-3.47
-2.99
-2.41
-1.90
-1.66
-1.81
-2.35
-3.15
-3.99
-4.66
-5.00
-4.91
-4.38
-3.43
-2.16
-0.74
0.64
1.80
2.59
2.97
3.00
2.80
2.53
2.33
2.23
2.26
2.38
2.58
2.84
3.17
3.51
3.83
4.11
4.36
4.61
4.90
5.22
5.51
5.66
5.60
5.29
4.76
4.02
3.08
1.98
0.79
-0.41
-1.49
-2.37
-3.07
-3.64
-4.16
-4.65
-5.10
-5.45
-5.65
-5.72
-5.71
-5.71
-5.79
-6.00
-6.32
-6.67
-6.90
-6.86
-6.40
-5.48
-4.18
-2.68
-1.22
0.04
1.01
1.75
2.36
2.92
3.49
4.04
4.49
4.80
4.93
4.91
4.80
4.64
4.49
4.35
4.19
3.99
3.72
3.41
3.12
2.93
2.87
2.88
2.87
2.75
2.52
2.24
2.02
1.96
2.03
2.16
2.17
1.95
1.45
0.75
-0.03
-0.74
-1.32
-1.81
-2.32
-2.93
-3.64
-4.39
-5.07
-5.59
-5.98
-6.27
-6.55
-6.85
-7.14
-7.34
-7.39
-7.23
-6.82
-6.14
-5.20
-4.06
-2.87
-1.79
-0.93
-0.35
0.01
0.26
0.47
0.68
0.88
1.02
1.08
1.04
0.94
0.86
0.89
1.15
1.74
2.70
4.01
5.54
7.13
8.62
9.85
10.73
11.15
11.03
10.33
9.09
7.43
5.58
3.79
2.32
1.27
0.66
0.35
0.17
-0.05
-0.39
-0.81
-1.20
-1.42
-1.37
-1.10
-0.76
-0.58
-0.75
-1.29
-2.06
-2.84
-3.39
-3.66
-3.73
-3.79
-3.99
-4.37
-4.88
-5.34
-5.61
-5.61
-5.29
-4.67
-3.80
-2.74
-1.61
-0.53
0.35
0.96
1.29
1.40
1.33
1.16
0.91
0.56
0.12
-0.38
-0.85
-1.21
-1.36
-1.25
-0.90
-0.40
0.15
0.66
1.11
1.55
2.03
2.54
3.05
3.45
3.72
3.90
4.07
4.30
4.54
4.63
4.39
3.72
2.60
1.20
-0.31
-1.70
-2.85
-3.69
-4.21
-4.46
-4.52
-4.44
-4.27
-4.05
-3.77
-3.51
-3.31
-3.28
-3.45
-3.76
-4.09
-4.31
-4.38
-4.34
-4.34
-4.44
-4.61
-4.71
-4.53
-3.96
-3.04
-1.92
-0.78
0.25
1.16
2.00
2.81
3.60
4.28
4.78
5.06
5.15
5.11
5.00
4.85
4.59
4.20
3.66
3.03
2.42
1.97
1.77
1.85
2.12
2.47
2.79
3.01
3.11
3.13
3.09
2.99
2.85
2.62
2.30
1.87
1.32
0.68
-0.01
-0.67
-1.25
-1.67
-1.92
-2.06
-2.15
-2.31
-2.63
-3.17
-3.90
-4.76
-5.61
-6.32
-6.74
-6.79
-6.45
-5.75
-4.76
-3.57
-2.29
-1.06
-0.01
0.80
1.39
1.89
2.41
3.00
3.60
4.05
4.17
3.91
3.30
2.49
1.64
0.87
0.21
-0.32
-0.69
-0.85
-0.72
-0.30
0.33
1.04
1.68
2.10
2.23
2.10
1.81
1.50
1.24
1.07
0.96
0.83
0.65
0.42
0.19
-0.01
-0.22
-0.51
-0.94
-1.56
-2.28
-2.97
-3.48
-3.69
-3.61
-3.34
-3.08
-3.04
-3.32
-3.87
-4.50
-4.98
-5.11
-4.85
-4.26
-3.49
-2.67
-1.85
-1.06
-0.31
0.34
0.86
1.20
1.42
1.61
1.88
2.27
2.72
3.10
3.30
3.28
3.09
2.86
2.71
2.71
2.86
3.11
3.39
3.67
3.94
4.16
4.28
4.24
3.99
3.54
3.01
2.53
2.21
2.09
2.09
2.08
1.92
1.54
0.98
0.38
-0.11
-0.36
-0.39
-0.28
-0.21
-0.35
-0.80
-1.55
-2.51
-3.56
-4.56
-5.42
-6.10
-6.56
-6.79
-6.77
-6.52
-6.08
-5.49
-4.83
-4.11
-3.33
-2.46
-1.48
-0.36
0.87
2.15
3.36
4.38
5.08
5.41
5.37
5.00
4.39
3.62
2.76
1.93
1.24
0.76
0.48
0.32
0.15
-0.11
-0.45
-0.76
-0.89
-0.72
-0.27
0.38
1.07
1.69
2.14
2.32
2.16
1.62
0.72
-0.42
-1.59
-2.60
-3.32
-3.73
-3.89
-3.92
-3.87
-3.75
-3.51
-3.10
-2.55
-2.00
-1.64
-1.62
-1.96
-2.49
-2.92
-2.95
-2.45
-1.51
-0.38
0.67
1.47
1.99
2.33
2.59
2.82
2.99
3.07
3.05
2.98
2.93
2.95
3.03
3.09
3.08
2.96
2.81
2.73
2.81
3.03
3.27
3.38
3.24
2.88
2.46
2.17
2.07
2.11
2.09
1.83
1.31
0.66
0.11
-0.23
-0.39
-0.57
-1.02
-1.91
-3.21
-4.78
-6.44
-8.01
-9.38
-10.42
-11.04
-11.14
-10.71
-9.90
-8.95
-8.11
-7.55
-7.27
-7.12
-6.90
-6.44
-5.69
-4.66
-3.48
-2.25
-1.08
-0.03
0.86
1.63
2.36
3.14
4.10
5.32
6.83
8.55
10.36
12.04
13.38
14.20
14.41
14.02
13.09
11.73
10.02
8.03
5.84
3.53
1.24
-0.90
-2.80
-4.40
-5.71
-6.74
-7.51
-8.03
-8.30
-8.37
-8.28
-8.05
-7.68
-7.16
-6.44
-5.52
-4.45
-3.33
-2.29
-1.43
-0.82
-0.43
-0.19
-0.03
0.13
0.36
0.68
1.16
1.84
2.74
3.82
5.01
6.17
7.21
8.13
8.96
9.77
10.56
11.22
11.54
11.34
10.52
9.16
7.50
5.83
4.38
3.23
2.34
1.59
0.92
0.34
0.01
0.07
0.59
1.48
2.50
3.37
3.87
3.93
3.61
3.08
2.48
1.89
1.33
0.78
0.20
-0.39
-0.96
-1.46
-1.89
-2.24
-2.54
-2.84
-3.14
-3.47
-3.80
-4.09
-4.34
-4.55
-4.80
-5.16
-5.67
-6.26
-6.76
-6.99
-6.80
-6.14
-5.12
-3.96
-2.88
-2.03
-1.48
-1.20
-1.12
-1.16
-1.24
-1.27
-1.22
-1.08
-0.86
-0.56
-0.16
0.37
1.07
1.94
2.91
3.94
4.98
6.00
7.00
7.93
8.70
9.16
9.18
8.72
7.81
6.60
5.24
3.87
2.55
1.31
0.16
-0.93
-1.98
-2.98
-3.92
-4.79
-5.54
-6.18
-6.74
-7.25
-7.72
-8.15
-8.48
-8.65
-8.57
-8.19
-7.49
-6.50
-5.30
-3.95
-2.57
-1.24
-0.08
0.85
1.52
1.99
2.33
2.63
2.93
3.21
3.43
3.53
3.46
3.20
2.79
2.27
1.69
1.16
0.79
0.69
0.94
1.48
2.18
2.87
3.37
3.61
3.61
3.49
3.39
3.39
3.50
3.67
3.80
3.81
3.63
3.24
2.62
1.76
0.64
-0.77
-2.51
-4.55
-6.79
-9.08
-11.19
-12.91
-14.08
-14.58
-14.37
-13.46
-11.92
-9.86
-7.51
-5.09
-2.86
-0.97
0.54
1.73
2.70
3.55
4.30
4.97
5.58
6.22
6.97
7.88
8.89
9.86
10.64
11.17
11.49
11.72
12.00
12.38
12.84
13.24
13.40
13.20
12.57
11.54
10.17
8.57
6.86
5.17
3.58
2.14
0.86
-0.25
-1.21
-2.01
-2.66
-3.24
-3.88
-4.70
-5.73
-6.90
-7.96
-8.67
-8.87
-8.52
-7.78
-6.84
-5.89
-4.99
-4.14
-3.32
-2.58
-2.01
-1.71
-1.70
-1.92
-2.21
-2.43
-2.50
-2.48
-2.45
-2.46
-2.50
-2.46
-2.20
-1.64
-0.77
0.32
1.49
2.60
3.59
4.46
5.22
5.90
6.46
6.82
6.88
6.61
6.08
5.44
4.86
4.43
4.13
3.83
3.38
2.67
1.72
0.61
-0.56
-1.72
-2.89
-4.08
-5.31
-6.52
-7.57
-8.34
-8.72
-8.70
-8.35
-7.79
-7.13
-6.44
-5.73
-5.00
-4.26
-3.55
-2.92
-2.42
-2.02
-1.61
-1.04
-0.18
0.97
2.33
3.75
5.06
6.19
7.17
8.07
8.95
9.80
10.49
10.86
10.79
10.24
9.24
7.91
6.39
4.79
3.18
1.62
0.12
-1.32
-2.69
-3.97
-5.11
-6.02
-6.58
-6.72
-6.41
-5.74
-4.90
-4.08
-3.41
-2.96
-2.65
-2.34
-1.86
-1.06
0.17
1.82
3.84
6.06
8.31
10.42
12.27
13.77
14.89
15.61
15.89
15.75
15.22
14.40
13.40
12.32
11.22
10.06
8.83
7.52
6.19
4.93
3.85
2.96
2.25
1.64
1.09
0.59
0.18
-0.14
-0.41
-0.71
-1.12
-1.67
-2.32
-2.98
-3.59
-4.16
-4.77
-5.50
-6.33
-7.13
-7.67
-7.80
-7.54
-7.10
-6.78
-6.81
-7.22
-7.82
-8.30
-8.42
-8.15
-7.60
-7.01
-6.54
-6.21
-5.90
-5.43
-4.69
-3.72
-2.69
-1.81
-1.25
-1.04
-1.04
-1.05
-0.92
-0.64
-0.28
-0.01
0.11
0.14
0.20
0.43
0.85
1.37
1.82
2.06
2.04
1.86
1.62
1.42
1.26
1.09
0.84
0.50
0.11
-0.28
-0.65
-1.04
-1.53
-2.15
-2.86
-3.56
-4.13
-4.49
-4.64
-4.67
-4.66
-4.66
-4.64
-4.54
-4.31
-3.92
-3.39
-2.73
-1.98
-1.14
-0.21
0.87
2.15
3.68
5.44
7.37
9.28
10.92
12.03
12.41
12.00
10.82
9.03
6.85
4.45
2.02
-0.31
-2.40
-4.15
-5.48
-6.38
-6.88
-7.08
-7.09
-6.98
-6.77
-6.44
-5.94
-5.19
-4.19
-2.96
-1.56
-0.07
1.41
2.80
4.03
5.07
5.89
6.45
6.72
6.64
6.16
5.31
4.17
2.86
1.50
0.16
-1.13
-2.34
-3.45
-4.45
-5.31
-6.02
-6.63
-7.15
-7.63
-8.06
-8.37
-8.45
-8.20
-7.57
-6.56
-5.25
-3.74
-2.08
-0.30
1.62
3.64
5.69
7.59
9.14
10.17
10.62
10.49
9.88
8.89
7.62
6.14
4.51
2.80
1.08
-0.58
-2.07
-3.34
-4.33
-5.05
-5.52
-5.77
-5.82
-5.71
-5.45
-5.09
-4.70
-4.34
-4.00
-3.62
-3.11
-2.43
-1.63
-0.85
-0.22
0.19
0.41
0.55
0.69
0.85
0.98
0.99
0.79
0.39
-0.20
-0.93
-1.73
-2.56
-3.38
-4.11
-4.67
-4.98
-4.96
-4.62
-4.01
-3.27
-2.53
-1.87
-1.34
-0.94
-0.61
-0.30
0.03
0.43
0.92
1.51
2.16
2.80
3.32
3.65
3.78
3.75
3.60
3.42
3.24
3.13
3.16
3.38
3.79
4.32
4.82
5.17
5.32
5.30
5.21
5.11
5.05
4.99
4.87
4.66
4.37
4.04
3.68
3.28
2.81
2.24
1.60
0.95
0.36
-0.13
-0.55
-0.95
-1.41
-1.93
-2.47
-2.93
-3.21
-3.25
-3.04
-2.63
-2.06
-1.38
-0.61
0.19
0.97
1.63
2.10
2.33
2.31
2.07
1.67
1.14
0.52
-0.19
-0.94
-1.67
-2.26
-2.62
-2.71
-2.54
-2.17
-1.69
-1.18
-0.68
-0.22
0.14
0.34
0.34
0.12
-0.26
-0.68
-1.02
-1.17
-1.14
-1.01
-0.91
-1.00
-1.37
-2.02
-2.83
-3.67
-4.44
-5.11
-5.74
-6.42
-7.17
-7.98
-8.73
-9.29
-9.57
-9.50
-9.08
-8.34
-7.28
-5.97
-4.48
-2.93
-1.51
-0.35
0.42
0.77
0.75
0.47
0.11
-0.17
-0.24
-0.08
0.25
0.64
0.92
1.00
0.87
0.59
0.26
-0.02
-0.21
-0.33
-0.43
-0.54
-0.67
-0.80
-0.90
-0.99
-1.11
-1.36
-1.77
-2.34
-3.00
-3.60
-4.03
-4.22
-4.15
-3.92
-3.64
-3.40
-3.23
-3.13
-3.04
-2.94
-2.86
-2.86
-3.01
-3.31
-3.74
-4.21
-4.63
-4.98
-5.29
-5.63
-6.00
-6.33
-6.45
-6.22
-5.62
-4.73
-3.74
-2.82
-2.03
-1.35
-0.71
-0.10
0.47
0.91
1.19
1.35
1.52
1.84
2.36
3.08
3.87
4.64
5.31
5.88
6.36
6.74
7.02
7.14
7.09
6.93
6.72
6.52
6.37
6.20
5.97
5.63
5.23
4.86
4.58
4.41
4.29
4.14
3.91
3.61
3.28
2.95
2.60
2.18
1.63
0.90
0.02
-0.93
-1.86
-2.67
-3.26
-3.57
-3.58
-3.32
-2.86
-2.26
-1.60
-0.90
-0.19
0.53
1.21
1.78
2.19
2.42
2.47
2.42
2.33
2.24
2.16
2.07
1.94
1.78
1.63
1.51
1.44
1.40
1.37
1.34
1.30
1.26
1.21
1.12
0.94
0.62
0.16
-0.43
-1.07
-1.70
-2.25
-2.70
-3.02
-3.20
-3.21
-3.05
-2.71
-2.25
-1.76
-1.35
-1.09
-0.96
-0.90
-0.81
-0.64
-0.46
-0.38
-0.52
-0.91
-1.46
-1.99
-2.36
-2.49
-2.42
-2.23
-1.97
-1.71
-1.45
-1.23
-1.12
-1.14
-1.28
-1.46
-1.55
-1.45
-1.13
-0.62
0.01
0.69
1.35
1.95
2.40
2.64
2.66
2.53
2.36
2.27
2.30
2.42
2.55
2.61
2.61
2.58
2.58
2.65
2.74
2.77
2.68
2.46
2.16
1.88
1.68
1.58
1.55
1.54
1.52
1.48
1.47
1.49
1.51
1.44
1.21
0.79
0.23
-0.31
-0.71
-0.90
-0.93
-0.95
-1.05
-1.23
-1.34
-1.18
-0.59
0.42
1.66
2.88
3.87
4.56
5.02
5.42
5.89
6.49
7.16
7.78
8.26
8.57
8.73
8.80
8.79
8.68
8.41
7.91
7.18
6.26
5.23
4.18
3.22
2.41
1.76
1.25
0.86
0.53
0.20
-0.18
-0.65
-1.17
-1.72
-2.23
-2.69
-3.09
-3.45
-3.80
-4.14
-4.50
-4.88
-5.24
-5.54
-5.72
-5.73
-5.58
-5.31
-4.96
-4.59
-4.22
-3.83
-3.38
-2.88
-2.35
-1.80
-1.27
-0.78
-0.40
-0.20
-0.26
-0.62
-1.25
-2.00
-2.65
-3.00
-2.93
-2.44
-1.67
-0.83
-0.13
0.30
0.47
0.51
0.57
0.80
1.23
1.82
2.53
3.26
3.92
4.40
4.58
4.36
3.75
2.88
1.98
1.24
0.76
0.51
0.35
0.22
0.08
-0.01
-0.01
0.06
0.10
-0.02
-0.42
-1.10
-2.05
-3.13
-4.23
-5.24
-6.06
-6.64
-6.97
-7.05
-6.91
-6.59
-6.09
-5.45
-4.73
-3.99
-3.27
-2.58
-1.85
-1.04
-0.15
0.76
1.57
2.18
2.54
2.66
2.63
2.56
2.55
2.67
2.94
3.32
3.70
3.98
4.06
3.95
3.72
3.49
3.39
3.45
3.67
4.03
4.47
4.92
5.29
5.49
5.45
5.18
4.76
4.28
3.81
3.33
2.76
2.04
1.18
0.23
-0.68
-1.53
-2.29
-2.99
-3.61
-4.02
-4.08
-3.65
-2.69
-1.31
0.26
1.72
2.82
3.43
3.60
3.46
3.22
2.98
2.78
2.56
2.26
1.83
1.32
0.79
0.33
-0.01
-0.22
-0.32
-0.34
-0.34
-0.35
-0.43
-0.54
-0.65
-0.67
-0.54
-0.28
0.01
0.20
0.20
-0.04
-0.44
-0.92
-1.44
-1.97
-2.51
-3.03
-3.49
-3.85
-4.09
-4.30
-4.56
-4.97
-5.56
-6.29
-7.11
-7.93
-8.63
-9.15
-9.41
-9.36
-9.00
-8.38
-7.60
-6.76
-5.88
-4.95
-3.94
-2.83
-1.64
-0.48
0.53
1.28
1.70
1.80
1.66
1.37
1.06
0.83
0.76
0.91
1.30
1.87
2.53
3.14
3.61
3.90
4.05
4.19
4.38
4.63
4.91
5.17
5.39
5.61
5.90
6.26
6.63
6.87
6.84
6.45
5.71
4.70
3.58
2.50
1.55
0.79
0.20
-0.28
-0.74
-1.27
-1.94
-2.76
-3.72
-4.80
-5.94
-7.06
-8.05
-8.74
-8.99
-8.75
-8.04
-7.03
-5.91
-4.82
-3.87
-3.03
-2.29
-1.61
-1.01
-0.53
-0.22
-0.10
-0.15
-0.31
-0.49
-0.61
-0.59
-0.42
-0.11
0.27
0.69
1.15
1.68
2.30
2.99
3.65
4.18
4.49
4.58
4.50
4.31
4.02
3.63
3.12
2.53
1.94
1.49
1.29
1.36
1.62
1.93
2.09
1.98
1.54
0.81
-0.11
-1.05
-1.87
-2.44
-2.70
-2.71
-2.60
-2.56
-2.72
-3.15
-3.77
-4.40
-4.79
-4.72
-4.08
-2.90
-1.33
0.36
1.90
3.12
3.94
4.40
4.63
4.76
4.95
5.32
5.94
6.82
7.79
8.61
9.00
8.81
8.11
7.14
6.28
5.78
5.72
6.00
6.37
6.64
6.70
6.57
6.30
5.94
5.52
5.04
4.53
4.03
3.64
3.42
3.39
3.53
3.72
3.82
3.75
3.48
3.12
2.81
2.60
2.44
2.13
1.45
0.20
-1.61
-3.81
-6.13
-8.28
-10.01
-11.22
-11.86
-11.97
-11.66
-11.09
-10.46
-9.97
-9.73
-9.73
-9.87
-9.97
-9.87
-9.49
-8.87
-8.14
-7.46
-6.96
-6.66
-6.53
-6.47
-6.39
-6.24
-6.01
-5.73
-5.43
-5.16
-4.93
-4.73
-4.54
-4.30
-3.98
-3.54
-3.00
-2.43
-1.94
-1.62
-1.51
-1.61
-1.86
-2.16
-2.44
-2.63
-2.71
-2.68
-2.60
-2.55
-2.61
-2.87
-3.34
-3.96
-4.63
-5.24
-5.76
-6.22
-6.70
-7.25
-7.83
-8.28
-8.41
-8.07
-7.19
-5.85
-4.25
-2.60
-1.12
0.09
0.94
1.44
1.62
1.56
1.32
1.02
0.77
0.70
0.90
1.40
2.11
2.90
3.60
4.10
4.34
4.32
4.06
3.63
3.09
2.46
1.76
1.02
0.19
-0.72
-1.68
-2.62
-3.39
-3.83
-3.87
-3.48
-2.76
-1.79
-0.65
0.59
1.87
3.10
4.13
4.82
5.00
4.61
3.64
2.18
0.36
-1.63
-3.61
-5.38
-6.77
-7.67
-8.03
-7.89
-7.33
-6.52
-5.59
-4.69
-3.89
-3.18
-2.50
-1.76
-0.86
0.19
1.37
2.58
3.73
4.77
5.70
6.56
7.41
8.30
9.20
10.07
10.79
11.24
11.34
11.04
10.38
9.42
8.25
6.95
5.59
4.25
2.97
1.81
0.78
-0.11
-0.86
-1.49
-1.98
-2.34
-2.60
-2.80
-3.01
-3.26
-3.56
-3.85
-4.08
-4.28
-4.50
-4.82
-5.26
-5.74
-6.13
-6.23
-5.92
-5.15
-4.02
-2.66
-1.23
0.15
1.42
2.51
3.40
4.05
4.43
4.55
4.49
4.38
4.32
4.41
4.65
4.96
5.23
5.37
5.33
5.11
4.76
4.36
3.99
3.72
3.57
3.53
3.56
3.58
3.57
3.49
3.38
3.26
3.15
3.02
2.86
2.67
2.48
2.39
2.47
2.76
3.18
3.62
3.96
4.07
3.94
3.56
2.96
2.19
1.25
0.17
-1.00
-2.17
-3.21
-4.01
-4.47
-4.58
-4.35
-3.87
-3.23
-2.52
-1.81
-1.16
-0.63
-0.23
0.08
0.34
0.64
1.02
1.45
1.88
2.22
2.45
2.59
2.73
2.95
3.29
3.73
4.18
4.56
4.79
4.83
4.66
4.27
3.68
2.96
2.18
1.42
0.72
0.09
-0.50
-1.08
-1.65
-2.22
-2.78
-3.34
-3.90
-4.47
-5.01
-5.47
-5.81
-6.03
-6.18
-6.33
-6.55
-6.79
-6.94
-6.84
-6.41
-5.65
-4.65
-3.56
-2.48
-1.46
-0.47
0.54
1.62
2.75
3.86
4.83
5.56
5.99
6.13
6.05
5.88
5.72
5.67
5.70
5.79
5.84
5.78
5.59
5.30
4.96
4.62
4.31
4.01
3.68
3.30
2.91
2.57
2.36
2.30
2.34
2.37
2.25
1.93
1.44
0.92
0.52
0.31
0.24
0.19
0.03
-0.28
-0.73
-1.23
-1.73
-2.22
-2.79
-3.50
-4.36
-5.28
-6.08
-6.54
-6.50
-5.90
-4.85
-3.52
-2.17
-0.98
-0.03
0.69
1.24
1.69
2.07
2.37
2.59
2.77
2.96
3.23
3.61
4.03
4.40
4.60
4.60
4.50
4.44
4.55
4.86
5.25
5.51
5.44
4.97
4.23
3.48
2.98
2.87
3.09
3.41
3.64
3.64
3.47
3.27
3.17
3.19
3.22
3.12
2.73
2.06
1.23
0.44
-0.10
-0.31
-0.22
-0.03
0.03
-0.24
-0.92
-1.95
-3.11
-4.16
-4.90
-5.21
-5.06
-4.50
-3.65
-2.65
-1.68
-0.91
-0.48
-0.38
-0.51
-0.66
-0.64
-0.35
0.17
0.73
1.15
1.29
1.15
0.87
0.59
0.45
0.47
0.58
0.69
0.76
0.78
0.79
0.84
0.96
1.14
1.39
1.68
1.97
2.17
2.19
1.92
1.36
0.59
-0.27
-1.08
-1.78
-2.41
-3.00
-3.57
-4.05
-4.35
-4.42
-4.30
-4.13
-4.07
-4.22
-4.57
-5.05
-5.52
-5.87
-6.03
-5.99
-5.77
-5.41
-4.94
-4.36
-3.69
-2.91
-2.01
-1.05
-0.12
0.68
1.22
1.45
1.40
1.19
0.98
0.90
1.01
1.27
1.59
1.88
2.08
2.21
2.27
2.29
2.24
2.09
1.82
1.45
1.07
0.81
0.77
0.93
1.21
1.45
1.53
1.44
1.25
1.08
0.96
0.84
0.59
0.10
-0.67
-1.61
-2.56
-3.39
-4.06
-4.63
-5.17
-5.74
-6.31
-6.84
-7.29
-7.70
-8.12
-8.55
-8.90
-9.04
-8.82
-8.20
-7.25
-6.15
-5.07
-4.12
-3.35
-2.70
-2.10
-1.52
-0.99
-0.56
-0.26
-0.09
0.01
0.13
0.30
0.55
0.83
1.07
1.23
1.33
1.44
1.63
1.99
2.51
3.12
3.70
4.14
4.44
4.66
4.90
5.26
5.74
6.26
6.70
6.95
7.01
6.92
6.73
6.41
5.92
5.22
4.30
3.28
2.31
1.54
1.06
0.86
0.82
0.81
0.72
0.49
0.07
-0.50
-1.23
-2.07
-2.98
-3.88
-4.63
-5.11
-5.20
-4.86
-4.18
-3.33
-2.53
-1.94
-1.62
-1.53
-1.57
-1.64
-1.65
-1.52
-1.23
-0.75
-0.14
0.48
1.02
1.38
1.53
1.55
1.55
1.62
1.78
1.97
2.08
2.05
1.86
1.53
1.14
0.75
0.42
0.18
0.05
0.03
0.07
0.12
0.10
-0.05
-0.33
-0.71
-1.17
-1.68
-2.23
-2.85
-3.51
-4.19
-4.84
-5.42
-5.90
-6.26
-6.45
-6.41
-6.08
-5.43
-4.52
-3.47
-2.44
-1.55
-0.85
-0.31
0.15
0.61
1.08
1.52
1.90
2.14
2.24
2.20
2.09
1.98
1.94
1.99
2.13
2.29
2.39
2.35
2.16
1.87
1.55
1.25
0.99
0.71
0.40
0.04
-0.26
-0.38
-0.28
0.01
0.29
0.38
0.16
-0.32
-0.85
-1.23
-1.34
-1.24
-1.13
-1.23
-1.65
-2.37
-3.24
-4.09
-4.82
-5.40
-5.81
-6.06
-6.09
-5.87
-5.37
-4.63
-3.72
-2.73
-1.73
-0.74
0.19
1.04
1.77
2.34
2.72
2.91
2.99
3.05
3.17
3.42
3.80
4.22
4.56
4.68
4.51
4.05
3.42
2.78
2.29
2.03
1.98
2.03
2.05
1.95
1.70
1.38
1.08
0.87
0.79
0.78
0.74
0.57
0.26
-0.13
-0.49
-0.69
-0.70
-0.56
-0.41
-0.38
-0.60
-1.10
-1.86
-2.79
-3.79
-4.72
-5.46
-5.89
-5.93
-5.54
-4.74
-3.59
-2.23
-0.77
0.64
1.90
2.93
3.68
4.13
4.28
4.16
3.83
3.35
2.82
2.31
1.83
1.36
0.87
0.37
-0.07
-0.37
-0.46
-0.36
-0.16
0.07
0.32
0.63
1.10
1.79
2.67
3.64
4.53
5.19
5.54
5.54
5.19
4.50
3.54
2.39
1.21
0.15
-0.69
-1.32
-1.83
-2.34
-2.91
-3.54
-4.18
-4.75
-5.23
-5.62
-5.91
-6.04
-5.90
-5.37
-4.44
-3.21
-1.85
-0.58
0.52
1.42
2.21
2.90
3.48
3.90
4.13
4.19
4.18
4.21
4.33
4.56
4.87
5.26
5.71
6.22
6.71
7.11
7.37
7.50
7.57
7.66
7.76
7.79
7.59
7.08
6.28
5.32
4.40
3.63
3.03
2.52
1.98
1.37
0.68
-0.03
-0.70
-1.29
-1.81
-2.30
-2.79
-3.31
-3.87
-4.46
-5.10
-5.82
-6.61
-7.42
-8.11
-8.47
-8.27
-7.46
-6.14
-4.61
-3.26
-2.36
-1.99
-2.03
-2.24
-2.45
-2.59
-2.73
-2.95
-3.29
-3.69
-4.03
-4.19
-4.08
-3.68
-3.00
-2.09
-1.01
0.14
1.25
2.21
2.93
3.38
3.55
3.42
2.99
2.24
1.23
0.07
-1.07
-2.03
-2.70
-3.05
-3.10
-2.94
-2.65
-2.30
-1.96
-1.68
-1.47
-1.33
-1.28
-1.35
-1.63
-2.18
-2.99
-3.92
-4.72
-5.13
-4.97
-4.21
-3.00
-1.55
-0.07
1.31
2.51
3.52
4.31
4.82
5.06
5.03
4.80
4.39
3.84
3.14
2.30
1.35
0.41
-0.40
-0.91
-1.02
-0.73
-0.12
0.67
1.45
2.06
2.41
2.51
2.42
2.24
2.03
1.87
1.78
1.79
1.90
2.17
2.64
3.35
4.32
5.47
6.65
7.67
8.33
8.55
8.35
7.89
7.31
6.69
5.95
4.93
3.45
1.43
-1.00
-3.59
-6.01
-7.97
-9.30
-9.97
-10.06
-9.69
-8.98
-8.05
-6.99
-5.90
-4.86
-3.91
-3.03
-2.20
-1.37
-0.54
0.22
0.83
1.27
1.56
1.83
2.21
2.78
3.55
4.45
5.41
6.38
7.34
8.31
9.25
10.08
10.71
11.06
11.16
11.07
10.93
10.82
10.78
10.74
10.54
9.97
8.90
7.26
5.16
2.79
0.41
-1.74
-3.55
-4.96
-6.02
-6.81
-7.38
-7.78
-8.07
-8.30
-8.50
-8.65
-8.69
-8.49
-7.93
-6.96
-5.63
-4.09
-2.55
-1.16
-0.05
0.77
1.36
1.80
2.14
2.43
2.67
2.87
3.05
3.20
3.35
3.53
3.76
4.07
4.42
4.74
4.91
4.81
4.37
3.60
2.58
1.40
0.15
-1.11
-2.33
-3.46
-4.40
-5.11
-5.58
-5.89
-6.14
-6.45
-6.78
-7.04
-7.10
-6.85
-6.28
-5.49
-4.66
-3.92
-3.42
-3.21
-3.29
-3.62
-4.12
-4.73
-5.36
-5.90
-6.23
-6.25
-5.92
-5.26
-4.36
-3.38
-2.48
-1.73
-1.13
-0.59
-0.06
0.48
0.96
1.31
1.51
1.61
1.70
1.84
2.04
2.25
2.42
2.51
2.57
2.67
2.85
3.09
3.34
3.52
3.57
3.49
3.30
3.07
2.87
2.73
2.66
2.58
2.40
2.03
1.48
0.80
0.16
-0.32
-0.59
-0.72
-0.86
-1.11
-1.51
-2.01
-2.49
-2.87
-3.16
-3.45
-3.85
-4.43
-5.13
-5.79
-6.26
-6.38
-6.11
-5.46
-4.54
-3.46
-2.34
-1.26
-0.27
0.62
1.44
2.17
2.75
3.12
3.18
2.93
2.41
1.75
1.08
0.52
0.12
-0.09
-0.13
0.01
0.29
0.68
1.14
1.61
2.07
2.50
2.86
3.10
3.16
3.03
2.76
2.47
2.22
2.03
1.84
1.55
1.06
0.37
-0.52
-1.55
-2.65
-3.77
-4.83
-5.72
-6.32
-6.56
-6.52
-6.34
-6.25
-6.38
-6.73
-7.12
-7.36
-7.26
-6.77
-5.98
-5.02
-4.02
-3.03
-2.06
-1.11
-0.22
0.53
1.10
1.49
1.76
1.98
2.21
2.47
2.72
2.92
3.05
3.08
2.98
2.75
2.38
1.94
1.53
1.23
1.06
0.99
0.92
0.73
0.40
-0.04
-0.53
-1.00
-1.44
-1.85
-2.25
-2.61
-2.86
-2.95
-2.86
-2.60
-2.22
-1.71
-1.01
-0.04
1.24
2.72
4.17
5.30
5.87
5.79
5.18
4.27
3.30
2.44
1.70
1.04
0.38
-0.26
-0.78
-1.10
-1.17
-1.06
-0.90
-0.84
-0.96
-1.21
-1.47
-1.58
-1.41
-0.95
-0.29
0.42
1.01
1.37
1.50
1.48
1.43
1.46
1.56
1.69
1.75
1.69
1.53
1.37
1.32
1.47
1.83
2.35
2.95
3.56
4.17
4.80
5.49
6.21
6.92
7.51
7.90
8.03
7.89
7.47
6.76
5.69
4.25
2.43
0.38
-1.70
-3.52
-4.86
-5.59
-5.73
-5.40
-4.78
-4.07
-3.44
-3.02
-2.87
-2.98
-3.28
-3.68
-4.05
-4.35
-4.53
-4.62
-4.60
-4.47
-4.21
-3.88
-3.57
-3.37
-3.32
-3.31
-3.18
-2.73
-1.94
-0.89
0.20
1.17
1.96
2.69
3.53
4.59
5.87
7.22
8.39
9.20
9.56
9.48
9.09
8.52
7.86
7.14
6.33
5.35
4.13
2.68
1.04
-0.63
-2.20
-3.52
-4.55
-5.30
-5.81
-6.13
-6.27
-6.17
-5.74
-4.95
-3.83
-2.52
-1.20
-0.07
0.77
1.35
1.78
2.16
2.54
2.88
3.10
3.16
3.10
3.02
3.07
3.34
3.85
4.54
5.26
5.85
6.15
6.05
5.52
4.62
3.47
2.25
1.05
-0.07
-1.14
-2.17
-3.16
-4.05
-4.79
-5.35
-5.79
-6.22
-6.71
-7.29
-7.90
-8.50
-9.05
-9.55
-10.03
-10.50
-10.90
-11.11
-11.02
-10.53
-9.65
-8.48
-7.14
-5.77
-4.47
-3.25
-2.14
-1.14
-0.29
0.36
0.76
0.95
1.01
1.06
1.19
1.43
1.69
1.92
2.08
2.23
2.46
2.88
3.52
4.30
5.15
5.97
6.70
7.28
7.69
7.85
7.72
7.33
6.76
6.16
5.66
5.29
4.97
4.59
4.03
3.28
2.43
1.56
0.79
0.08
-0.64
-1.45
-2.38
-3.39
-4.39
-5.29
-6.06
-6.70
-7.21
-7.56
-7.65
-7.40
-6.78
-5.81
-4.63
-3.39
-2.24
-1.32
-0.66
-0.25
-0.06
0.00
0.03
0.06
0.08
0.06
-0.03
-0.14
-0.16
0.03
0.57
1.49
2.72
4.12
5.50
6.68
7.54
7.99
7.97
7.49
6.60
5.37
3.90
2.26
0.53
-1.25
-3.01
-4.66
-6.09
-7.17
-7.75
-7.74
-7.11
-5.88
-4.22
-2.36
-0.62
0.70
1.42
1.55
1.28
0.89
0.64
0.65
0.88
1.20
1.45
1.55
1.47
1.24
0.87
0.33
-0.40
-1.32
-2.33
-3.27
-3.95
-4.21
-3.98
-3.30
-2.31
-1.18
-0.09
0.84
1.56
2.10
2.52
2.85
3.10
3.23
3.21
3.05
2.86
2.74
2.80
3.04
3.36
3.54
3.43
2.94
2.16
1.28
0.47
-0.14
-0.56
-0.87
-1.13
-1.39
-1.66
-1.95
-2.26
-2.62
-2.98
-3.26
-3.31
-3.02
-2.35
-1.35
-0.15
1.16
2.51
3.86
5.12
6.22
7.04
7.54
7.73
7.72
7.57
7.31
6.88
6.24
5.42
4.56
3.86
3.47
3.44
3.66
3.92
4.05
3.97
3.73
3.44
3.18
2.95
2.66
2.25
1.71
1.14
0.69
0.46
0.41
0.39
0.19
-0.37
-1.33
-2.58
-3.94
-5.24
-6.38
-7.33
-8.15
-8.90
-9.60
-10.26
-10.79
-11.09
-11.07
-10.66
-9.85
-8.68
-7.26
-5.71
-4.16
-2.68
-1.35
-0.19
0.78
1.53
2.03
2.30
2.36
2.29
2.12
1.88
1.58
1.24
0.92
0.68
0.59
0.65
0.87
1.19
1.57
1.96
2.35
2.64
2.75
2.61
2.24
1.73
1.20
0.77
0.45
0.16
-0.20
-0.68
-1.24
-1.78
-2.19
-2.48
-2.74
-3.15
-3.87
-4.91
-6.18
-7.47
-8.55
-9.28
-9.59
-9.54
-9.20
-8.63
-7.85
-6.84
-5.63
-4.25
-2.81
-1.46
-0.33
0.50
0.98
1.14
1.05
0.85
0.69
0.72
1.02
1.60
2.37
3.16
3.81
4.25
4.49
4.60
4.68
4.73
4.72
4.58
4.28
3.84
3.36
2.87
2.39
1.90
1.42
1.00
0.75
0.75
0.97
1.24
1.36
1.15
0.53
-0.42
-1.53
-2.66
-3.73
-4.74
-5.73
-6.74
-7.71
-8.56
-9.13
-9.32
-9.08
-8.48
-7.65
-6.68
-5.64
-4.49
-3.17
-1.66
-0.01
1.63
3.10
4.30
5.23
6.00
6.78
7.70
8.78
9.93
10.97
11.73
12.08
11.97
11.46
10.68
9.78
8.86
7.96
7.10
6.25
5.46
4.77
4.23
3.86
3.59
3.29
2.83
2.13
1.18
0.06
-1.08
-2.14
-3.07
-3.88
-4.64
-5.43
-6.27
-7.16
-8.04
-8.82
-9.41
-9.76
-9.84
-9.70
-9.41
-9.05
-8.69
-8.33
-7.90
-7.36
-6.66
-5.83
-4.95
-4.14
-3.50
-3.08
-2.87
-2.84
-2.88
-2.86
-2.60
-1.95
-0.84
0.66
2.36
3.99
5.33
6.31
7.03
7.65
8.37
9.22
10.14
10.96
11.56
11.94
12.15
12.27
12.33
12.24
11.87
11.13
10.01
8.59
6.99
5.29
3.52
1.64
-0.36
-2.46
-4.58
-6.59
-8.34
-9.70
-10.56
-10.88
-10.63
-9.89
-8.77
-7.41
-5.93
-4.44
-2.97
-1.54
-0.18
1.10
2.22
3.09
3.67
3.95
3.99
3.88
3.75
3.66
3.65
3.66
3.67
3.62
3.47
3.24
3.00
2.86
2.91
3.21
3.66
4.09
4.24
3.94
3.23
2.32
1.50
1.00
0.88
0.97
1.04
0.90
0.50
-0.03
-0.55
-0.92
-1.11
-1.20
-1.27
-1.37
-1.53
-1.75
-2.07
-2.55
-3.23
-4.04
-4.85
-5.44
-5.60
-5.25
-4.42
-3.25
-1.89
-0.49
0.86
2.08
3.07
3.71
3.93
3.74
3.24
2.60
1.95
1.33
0.71
0.04
-0.71
-1.45
-2.02
-2.25
-2.06
-1.50
-0.69
0.17
0.92
1.45
1.77
1.92
2.00
2.10
2.23
2.34
2.35
2.15
1.73
1.12
0.43
-0.27
-0.93
-1.56
-2.20
-2.87
-3.58
-4.32
-5.08
-5.83
-6.55
-7.17
-7.58
-7.66
-7.33
-6.57
-5.47
-4.16
-2.76
-1.41
-0.19
0.86
1.70
2.34
2.81
3.15
3.40
3.56
3.65
3.65
3.61
3.58
3.61
3.70
3.84
3.99
4.13
4.29
4.51
4.79
5.07
5.25
5.20
4.90
4.41
3.87
3.43
3.16
3.04
2.95
2.77
2.39
1.84
1.19
0.57
0.07
-0.28
-0.55
-0.84
-1.28
-1.89
-2.63
-3.41
-4.09
-4.62
-4.96
-5.08
-4.98
-4.62
-3.99
-3.08
-1.97
-0.79
0.35
1.34
2.15
2.74
3.07
3.06
2.61
1.66
0.21
-1.65
-3.73
-5.77
-7.52
-8.74
-9.23
-8.90
-7.82
-6.14
-4.14
-2.16
-0.48
0.73
1.39
1.54
1.26
0.61
-0.31
-1.42
-2.56
-3.58
-4.35
-4.81
-5.02
-5.09
-5.13
-5.18
-5.20
-5.12
-4.88
-4.51
-4.10
-3.81
-3.80
-4.20
-5.05
-6.28
-7.72
-9.15
-10.33
-11.05
-11.20
-10.71
-9.64
-8.14
-6.42
-4.73
-3.28
-2.21
-1.52
-1.13
-0.91
-0.78
-0.70
-0.67
-0.67
-0.63
-0.49
-0.26
0.00
0.24
0.42
0.60
0.85
1.23
1.71
2.21
2.65
2.99
3.30
3.63
4.03
4.49
5.00
5.58
6.28
7.18
8.31
9.60
10.93
12.20
13.31
14.27
15.07
15.74
16.26
16.62
16.83
16.91
16.85
16.65
16.26
15.68
14.95
14.11
13.20
12.23
11.15
9.95
8.71
7.64
6.96
6.83
7.23
7.91
8.56
8.88
8.73
8.13
7.24
6.22
5.22
4.36
3.71
3.29
3.07
2.91
2.59
1.88
0.63
-1.14
-3.26
-5.47
-7.53
-9.29
-10.71
-11.84
-12.72
-13.40
-13.89
-14.19
-14.33
-14.32
-14.18
-13.88
-13.37
-12.65
-11.76
-10.79
-9.92
-9.29
-9.00
-9.04
-9.29
-9.56
-9.62
-9.28
-8.44
-7.08
-5.33
-3.35
-1.37
0.47
2.03
3.25
4.06
4.40
4.25
3.67
2.81
1.88
1.05
0.42
-0.06
-0.52
-1.00
-1.48
-1.86
-2.05
-2.03
-1.89
-1.72
-1.56
-1.34
-0.89
-0.11
0.99
2.26
3.45
4.31
4.70
4.61
4.17
3.56
2.99
2.58
2.37
2.33
2.39
2.50
2.58
2.60
2.57
2.48
2.38
2.30
2.26
2.21
2.09
1.81
1.34
0.73
0.08
-0.48
-0.86
-1.02
-0.94
-0.63
-0.08
0.71
1.74
2.97
4.32
5.72
7.07
8.21
8.93
8.98
8.15
6.39
3.88
1.02
-1.75
-4.07
-5.81
-7.08
-8.14
-9.24
-10.54
-12.03
-13.58
-15.07
-16.43
-17.63
-18.69
-19.54
-19.98
-19.76
-18.61
-16.39
-13.19
-9.36
-5.38
-1.77
1.12
3.15
4.49
5.43
6.32
7.42
8.77
10.20
11.44
12.21
12.37
11.96
11.14
10.12
8.99
7.74
6.22
4.32
2.00
-0.65
-3.42
-6.09
-8.43
-10.20
-11.15
-10.97
-9.39
-6.30
-1.87
3.38
8.67
13.19
16.30
17.64
17.24
15.44
12.73
9.61
6.55
3.88
1.75
0.18
-0.94
-1.73
-2.33
-2.79
-3.08
-3.19
-3.14
-2.96
-2.74
-2.57
-2.47
-2.45
-2.46
-2.48
-2.49
-2.46
-2.31
-1.94
-1.18
0.10
1.90
4.04
6.20
8.00
9.17
9.65
9.58
9.23
8.84
8.49
8.13
7.63
6.91
6.05
5.25
4.70
4.52
4.68
5.05
5.49
5.93
6.40
6.94
7.54
8.10
8.47
8.50
8.18
7.57
6.85
6.17
5.59
5.07
4.50
3.81
3.01
2.16
1.34
0.51
-0.44
-1.70
-3.41
-5.62
-8.23
-11.04
-13.79
-16.27
-18.31
-19.81
-20.71
-20.99
-20.61
-19.62
-18.07
-16.11
-13.91
-11.64
-9.45
-7.42
-5.61
-4.08
-2.93
-2.23
-2.04
-2.30
-2.82
-3.37
-3.70
-3.69
-3.35
-2.81
-2.26
-1.87
-1.71
-1.76
-1.95
-2.17
-2.31
-2.31
-2.19
-2.01
-1.82
-1.63
-1.38
-0.99
-0.37
0.49
1.49
2.50
3.37
4.04
4.50
4.79
4.92
4.85
4.51
3.84
2.81
1.49
-0.05
-1.67
-3.24
-4.58
-5.53
-6.01
-5.97
-5.47
-4.63
-3.60
-2.49
-1.38
-0.31
0.68
1.54
2.28
2.89
3.39
3.75
3.93
3.90
3.72
3.50
3.40
3.52
3.84
4.25
4.55
4.59
4.36
3.93
3.47
3.11
2.88
2.74
2.56
2.27
1.85
1.37
0.92
0.58
0.32
0.05
-0.37
-1.06
-2.03
-3.17
-4.30
-5.24
-5.89
-6.29
-6.60
-7.02
-7.66
-8.51
-9.37
-9.98
-10.12
-9.75
-8.98
-7.99
-6.94
-5.89
-4.79
-3.58
-2.25
-0.90
0.34
1.37
2.14
2.70
3.11
3.43
3.65
3.73
3.61
3.27
2.72
2.06
1.41
0.93
0.74
0.87
1.25
1.76
2.25
2.61
2.80
2.85
2.81
2.69
2.48
2.16
1.73
1.19
0.56
-0.15
-0.94
-1.78
-2.59
-3.26
-3.72
-3.97
-4.08
-4.16
-4.32
-4.61
-5.02
-5.49
-5.94
-6.30
-6.50
-6.45
-6.07
-5.30
-4.18
-2.80
-1.29
0.25
1.73
3.10
4.27
5.18
5.78
6.06
6.06
5.87
5.54
5.10
4.55
3.90
3.19
2.47
1.80
1.22
0.76
0.44
0.25
0.20
0.24
0.28
0.22
0.02
-0.37
-0.89
-1.47
-2.01
-2.45
-2.76
-2.95
-3.08
-3.23
-3.50
-3.92
-4.48
-5.14
-5.78
-6.32
-6.71
-6.98
-7.20
-7.48
-7.85
-8.28
-8.66
-8.80
-8.52
-7.68
-6.24
-4.25
-1.86
0.76
3.36
5.73
7.62
8.88
9.45
9.38
8.81
7.89
6.74
5.43
4.04
2.69
1.53
0.67
0.15
-0.09
-0.18
-0.22
-0.25
-0.19
0.03
0.41
0.89
1.34
1.66
1.79
1.76
1.63
1.49
1.40
1.41
1.59
1.97
2.61
3.51
4.67
6.03
7.54
9.10
10.60
11.90
12.84
13.31
13.24
12.67
11.74
10.61
9.41
8.19
6.96
5.62
4.11
2.43
0.66
-1.07
-2.59
-3.79
-4.66
-5.24
-5.58
-5.72
-5.64
-5.22
-4.39
-3.12
-1.49
0.32
2.07
3.56
4.65
5.31
5.57
5.52
5.22
4.73
4.03
3.14
2.11
1.00
-0.08
-1.08
-1.99
-2.83
-3.66
-4.46
-5.15
-5.64
-5.87
-5.91
-5.94
-6.15
-6.67
-7.48
-8.41
-9.25
-9.84
-10.14
-10.13
-9.79
-9.02
-7.67
-5.65
-3.05
-0.14
2.67
5.06
6.87
8.11
8.91
9.34
9.29
8.61
7.18
5.04
2.47
-0.12
-2.36
-4.02
-5.12
-5.85
-6.45
-7.07
-7.71
-8.23
-8.34
-7.71
-6.03
-3.18
0.71
5.24
9.79
13.71
16.45
17.76
17.67
16.42
14.35
11.78
8.96
6.01
3.05
0.15
-2.65
-5.32
-7.85
-10.20
-12.22
-13.66
-14.23
-13.67
-11.93
-9.20
-5.91
-2.54
0.45
2.82
4.54
5.75
6.64
7.36
8.03
8.65
9.20
9.59
9.77
9.68
9.28
8.58
7.63
6.48
5.16
3.74
2.30
0.96
-0.13
-0.88
-1.21
-1.16
-0.87
-0.50
-0.17
0.10
0.42
0.91
1.62
2.48
3.34
3.99
4.33
4.39
4.27
4.06
3.83
3.54
3.09
2.42
1.55
0.55
-0.49
-1.54
-2.63
-3.85
-5.26
-6.85
-8.46
-9.84
-10.73
-10.94
-10.42
-9.29
-7.74
-5.95
-3.97
-1.83
0.46
2.80
4.96
6.71
7.90
8.53
8.74
8.67
8.42
7.94
7.15
6.02
4.65
3.24
2.04
1.22
0.80
0.64
0.57
0.42
0.10
-0.32
-0.72
-0.96
-0.93
-0.66
-0.24
0.18
0.46
0.55
0.42
0.09
-0.41
-1.05
-1.79
-2.55
-3.24
-3.79
-4.19
-4.52
-4.88
-5.38
-6.11
-7.08
-8.25
-9.50
-10.61
-11.34
-11.50
-10.99
-9.86
-8.31
-6.57
-4.85
-3.28
-1.88
-0.66
0.41
1.36
2.16
2.80
3.27
3.50
3.48
3.19
2.69
2.08
1.50
1.03
0.69
0.45
0.22
-0.05
-0.35
-0.67
-0.92
-1.07
-1.11
-1.04
-0.91
-0.73
-0.52
-0.27
0.00
0.25
0.40
0.39
0.16
-0.28
-0.91
-1.66
-2.52
-3.43
-4.38
-5.31
-6.17
-6.90
-7.50
-7.99
-8.41
-8.83
-9.22
-9.51
-9.57
-9.29
-8.60
-7.54
-6.22
-4.80
-3.42
-2.13
-0.95
0.15
1.19
2.19
3.12
3.95
4.66
5.28
5.82
6.31
6.73
7.01
7.09
6.88
6.36
5.52
4.41
3.14
1.84
0.67
-0.21
-0.72
-0.87
-0.75
-0.51
-0.29
-0.17
-0.13
-0.13
-0.16
-0.20
-0.29
-0.42
-0.54
-0.59
-0.52
-0.31
0.02
0.43
0.92
1.44
1.94
2.33
2.48
2.30
1.80
1.06
0.23
-0.54
-1.15
-1.55
-1.74
-1.77
-1.70
-1.60
-1.49
-1.33
-1.05
-0.59
0.08
0.88
1.70
2.43
2.99
3.40
3.73
4.06
4.41
4.79
5.11
5.34
5.41
5.32
5.06
4.66
4.16
3.64
3.18
2.90
2.86
3.07
3.45
3.87
4.20
4.34
4.25
3.93
3.46
2.91
2.34
1.80
1.29
0.78
0.25
-0.32
-0.91
-1.52
-2.11
-2.69
-3.27
-3.80
-4.24
-4.47
-4.40
-3.98
-3.23
-2.25
-1.20
-0.21
0.60
1.19
1.59
1.83
1.95
1.93
1.76
1.42
0.96
0.50
0.19
0.10
0.19
0.37
0.54
0.64
0.76
0.98
1.36
1.87
2.39
2.85
3.22
3.53
3.84
4.19
4.55
4.87
5.14
5.40
5.67
5.97
6.24
6.37
6.30
5.99
5.50
4.92
4.35
3.87
3.53
3.29
3.09
2.83
2.41
1.76
0.84
-0.30
-1.60
-2.92
-4.15
-5.15
-5.73
-5.77
-5.21
-4.15
-2.81
-1.49
-0.42
0.27
0.61
0.74
0.79
0.86
0.96
1.12
1.31
1.54
1.78
1.96
2.01
1.89
1.63
1.31
1.02
0.85
0.85
0.99
1.19
1.35
1.37
1.23
0.96
0.65
0.39
0.24
0.16
0.12
0.03
-0.11
-0.23
-0.27
-0.18
0.01
0.22
0.33
0.29
0.10
-0.19
-0.52
-0.90
-1.37
-2.04
-2.98
-4.19
-5.59
-7.01
-8.28
-9.23
-9.80
-9.96
-9.75
-9.22
-8.41
-7.33
-6.02
-4.54
-2.98
-1.49
-0.22
0.74
1.35
1.69
1.84
1.91
1.96
2.01
2.06
2.16
2.37
2.77
3.36
4.08
4.82
5.45
5.92
6.21
6.38
6.50
6.58
6.65
6.71
6.74
6.71
6.60
6.37
5.99
5.45
4.71
3.80
2.75
1.62
0.50
-0.50
-1.33
-1.95
-2.42
-2.83
-3.26
-3.79
-4.45
-5.18
-5.90
-6.50
-6.90
-7.13
-7.29
-7.57
-8.07
-8.83
-9.66
-10.28
-10.40
-9.91
-8.87
-7.53
-6.19
-5.03
-4.06
-3.19
-2.29
-1.28
-0.24
0.73
1.52
2.09
2.52
2.91
3.32
3.74
4.12
4.35
4.40
4.32
4.23
4.25
4.43
4.70
4.87
4.79
4.38
3.78
3.17
2.78
2.69
2.82
3.00
3.09
3.04
2.93
2.87
2.93
3.08
3.21
3.20
2.97
2.55
1.98
1.35
0.73
0.18
-0.28
-0.65
-0.95
-1.20
-1.49
-1.90
-2.50
-3.29
-4.21
-5.14
-5.91
-6.38
-6.46
-6.16
-5.54
-4.69
-3.72
-2.70
-1.73
-0.92
-0.32
0.05
0.23
0.32
0.42
0.51
0.55
0.43
0.11
-0.34
-0.76
-0.97
-0.85
-0.41
0.22
0.91
1.51
1.94
2.15
2.09
1.70
0.99
0.01
-1.05
-1.99
-2.61
-2.79
-2.55
-2.00
-1.32
-0.66
-0.14
0.22
0.44
0.56
0.60
0.54
0.35
0.03
-0.35
-0.70
-0.88
-0.88
-0.78
-0.72
-0.88
-1.30
-1.93
-2.60
-3.13
-3.39
-3.29
-2.82
-1.98
-0.82
0.56
2.01
3.39
4.60
5.65
6.62
7.58
8.50
9.30
9.81
9.88
9.44
8.51
7.22
5.73
4.20
2.81
1.70
0.97
0.71
0.92
1.54
2.50
3.63
4.74
5.62
6.08
6.00
5.37
4.34
3.10
1.83
0.65
-0.41
-1.40
-2.35
-3.29
-4.20
-5.08
-5.95
-6.83
-7.68
-8.43
-9.01
-9.33
-9.42
-9.40
-9.47
-9.77
-10.35
-11.11
-11.83
-12.27
-12.27
-11.82
-10.99
-9.94
-8.84
-7.78
-6.76
-5.74
-4.65
-3.50
-2.35
-1.33
-0.55
-0.05
0.23
0.39
0.58
0.82
1.10
1.33
1.47
1.57
1.71
1.99
2.40
2.80
2.99
2.84
2.33
1.61
0.91
0.42
0.23
0.30
0.52
0.76
0.95
1.05
1.08
1.07
1.09
1.20
1.47
1.94
2.64
3.53
4.50
5.38
5.99
6.16
5.87
5.20
4.36
3.60
3.09
2.84
2.73
2.56
2.19
1.63
1.03
0.60
0.46
0.60
0.80
0.84
0.54
-0.12
-0.96
-1.73
-2.23
-2.42
-2.39
-2.35
-2.43
-2.66
-2.94
-3.06
-2.86
-2.26
-1.31
-0.13
1.08
2.15
2.95
3.39
3.44
3.11
2.47
1.59
0.57
-0.53
-1.70
-2.98
-4.37
-5.85
-7.28
-8.53
-9.49
-10.12
-10.47
-10.59
-10.56
-10.39
-10.05
-9.46
-8.55
-7.22
-5.43
-3.20
-0.66
1.97
4.42
6.43
7.86
8.66
8.88
8.56
7.71
6.36
4.62
2.65
0.66
-1.14
-2.66
-3.88
-4.85
-5.60
-6.10
-6.27
-6.03
-5.38
-4.34
-2.97
-1.32
0.59
2.78
5.16
7.55
9.65
11.16
11.84
11.66
10.74
9.31
7.54
5.50
3.19
0.54
-2.40
-5.43
-8.27
-10.66
-12.44
-13.65
-14.38
-14.70
-14.55
-13.70
-11.96
-9.22
-5.61
-1.44
2.91
7.09
10.90
14.24
17.08
19.36
20.97
21.79
21.77
20.99
19.62
17.89
15.95
13.93
11.79
9.48
6.99
4.37
1.82
-0.44
-2.17
-3.23
-3.62
-3.47
-2.97
-2.33
-1.73
-1.26
-1.00
-0.97
-1.16
-1.54
-2.06
-2.69
-3.46
-4.43
-5.67
-7.17
-8.81
-10.45
-11.94
-13.26
-14.46
-15.59
-16.59
-17.25
-17.33
-16.63
-15.20
-13.25
-11.10
-8.98
-6.92
-4.79
-2.42
0.27
3.16
5.99
8.43
10.23
11.28
11.68
11.65
11.49
11.40
11.43
11.46
11.26
10.67
9.64
8.33
7.00
5.86
5.02
4.44
4.08
3.89
3.92
4.26
4.91
5.78
6.66
7.32
7.58
7.38
6.77
5.86
4.79
3.65
2.52
1.37
0.18
-1.13
-2.60
-4.20
-5.87
-7.47
-8.81
-9.76
-10.20
-10.12
-9.62
-8.84
-7.95
-7.08
-6.27
-5.51
-4.71
-3.82
-2.80
-1.68
-0.51
0.63
1.71
2.71
3.66
4.57
5.46
6.26
6.87
7.17
7.10
6.64
5.87
4.91
3.88
2.88
1.96
1.13
0.40
-0.20
-0.65
-0.91
-0.97
-0.81
-0.49
-0.10
0.23
0.32
0.09
-0.45
-1.23
-2.13
-3.09
-4.08
-5.11
-6.15
-7.12
-7.91
-8.46
-8.82
-9.09
-9.34
-9.55
-9.61
-9.35
-8.64
-7.52
-6.08
-4.53
-3.00
-1.61
-0.39
0.64
1.45
2.00
2.25
2.19
1.83
1.26
0.59
-0.04
-0.53
-0.77
-0.74
-0.47
-0.03
0.49
0.98
1.34
1.54
1.58
1.50
1.34
1.13
0.87
0.53
0.10
-0.40
-0.94
-1.45
-1.89
-2.25
-2.57
-2.88
-3.21
-3.56
-3.84
-3.97
-3.84
-3.40
-2.67
-1.74
-0.73
0.24
1.07
1.66
1.92
1.77
1.19
0.26
-0.79
-1.63
-1.96
-1.57
-0.52
0.97
2.54
3.91
4.93
5.67
6.29
6.99
7.83
8.73
9.46
9.79
9.55
8.69
7.34
5.69
3.95
2.36
1.08
0.27
0.01
0.32
1.13
2.29
3.60
4.85
5.90
6.70
7.32
7.85
8.40
9.00
9.62
10.19
10.65
11.03
11.38
11.74
12.04
12.10
11.70
10.67
9.02
6.94
4.71
2.59
0.73
-0.87
-2.29
-3.60
-4.82
-5.95
-6.96
-7.83
-8.54
-9.06
-9.35
-9.37
-9.06
-8.37
-7.29
-5.88
-4.23
-2.53
-0.96
0.35
1.38
2.21
2.96
3.69
4.39
4.99
5.36
5.50
5.44
5.27
5.07
4.85
4.58
4.27
3.95
3.72
3.65
3.73
3.81
3.71
3.24
2.34
1.10
-0.24
-1.47
-2.39
-3.00
-3.36
-3.63
-3.90
-4.20
-4.47
-4.62
-4.63
-4.54
-4.48
-4.55
-4.74
-4.95
-5.04
-4.92
-4.65
-4.38
-4.31
-4.53
-4.95
-5.36
-5.54
-5.33
-4.70
-3.74
-2.56
-1.26
0.05
1.28
2.32
3.08
3.54
3.77
3.86
3.94
4.03
4.10
4.11
4.05
3.93
3.78
3.57
3.29
2.93
2.54
2.24
2.15
2.33
2.73
3.18
3.54
3.76
3.91
4.15
4.62
5.39
6.42
7.63
8.93
10.29
11.71
13.16
14.55
15.70
16.38
16.41
15.73
14.40
12.62
10.64
8.68
6.87
5.21
3.59
1.86
-0.10
-2.29
-4.57
-6.69
-8.41
-9.57
-10.16
-10.34
-10.31
-10.26
-10.26
-10.30
-10.27
-10.11
-9.84
-9.52
-9.31
-9.31
-9.62
-10.24
-11.13
-12.18
-13.25
-14.18
-14.80
-15.05
-14.94
-14.52
-13.93
-13.20
-12.30
-11.14
-9.61
-7.74
-5.64
-3.56
-1.71
-0.24
0.83
1.57
2.04
2.26
2.22
1.90
1.29
0.47
-0.51
-1.59
-2.76
-4.01
-5.28
-6.46
-7.39
-7.97
-8.17
-8.06
-7.77
-7.39
-6.97
-6.47
-5.92
-5.35
-4.86
-4.60
-4.66
-5.06
-5.69
-6.36
-6.85
-6.99
-6.75
-6.20
-5.52
-4.91
-4.47
-4.23
-4.07
-3.83
-3.40
-2.73
-1.89
-1.01
-0.22
0.38
0.75
0.92
0.94
0.90
0.91
1.06
1.42
2.00
2.74
3.52
4.21
4.70
4.95
4.99
4.86
4.58
4.18
3.68
3.11
2.56
2.17
2.02
2.10
2.32
2.51
2.53
2.33
1.99
1.64
1.40
1.29
1.18
0.91
0.32
-0.66
-1.93
-3.32
-4.65
-5.76
-6.58
-7.10
-7.34
-7.29
-6.96
-6.37
-5.59
-4.72
-3.87
-3.11
-2.44
-1.79
-1.09
-0.29
0.60
1.51
2.30
2.84
3.08
3.04
2.83
2.64
2.61
2.81
3.17
3.57
3.85
3.95
3.90
3.80
3.75
3.78
3.88
3.96
3.97
3.87
3.65
3.33
2.88
2.32
1.62
0.84
0.01
-0.78
-1.48
-2.08
-2.56
-2.91
-3.16
-3.32
-3.43
-3.57
-3.81
-4.20
-4.77
-5.53
-6.45
-7.53
-8.72
-9.96
-11.14
-12.09
-12.67
-12.77
-12.35
-11.44
-10.12
-8.52
-6.68
-4.66
-2.51
-0.36
1.65
3.28
4.40
4.94
5.03
4.83
4.55
4.28
4.07
3.92
3.84
3.91
4.23
4.81
5.60
6.43
7.12
7.56
7.79
7.95
8.27
8.88
9.83
11.04
12.33
13.50
14.44
15.08
15.42
15.46
15.17
14.55
13.65
12.56
11.46
10.50
9.75
9.19
8.66
8.00
7.08
5.86
4.44
2.96
1.57
0.31
-0.83
-1.92
-3.01
-4.07
-4.99
-5.64
-5.97
-5.99
-5.81
-5.53
-5.18
-4.74
-4.11
-3.28
-2.32
-1.39
-0.65
-0.21
-0.03
-0.04
-0.11
-0.19
-0.29
-0.45
-0.69
-0.99
-1.28
-1.45
-1.47
-1.32
-1.03
-0.66
-0.30
-0.03
0.09
0.02
-0.22
-0.56
-0.95
-1.32
-1.64
-1.92
-2.17
-2.39
-2.59
-2.75
-2.86
-2.92
-2.91
-2.86
-2.78
-2.76
-2.87
-3.18
-3.70
-4.38
-5.12
-5.84
-6.46
-6.94
-7.21
-7.19
-6.78
-5.96
-4.81
-3.53
-2.32
-1.34
-0.56
0.14
0.92
1.86
2.89
3.85
4.55
4.88
4.85
4.57
4.21
3.87
3.62
3.40
3.17
2.88
2.55
2.22
1.94
1.74
1.56
1.36
1.06
0.65
0.19
-0.26
-0.61
-0.82
-0.91
-0.93
-0.96
-1.05
-1.25
-1.59
-2.05
-2.60
-3.19
-3.73
-4.13
-4.30
-4.21
-3.87
-3.40
-2.98
-2.78
-2.93
-3.45
-4.17
-4.81
-5.10
-4.86
-4.13
-3.13
-2.17
-1.48
-1.14
-1.04
-1.01
-0.90
-0.60
-0.14
0.49
1.29
2.27
3.37
4.47
5.37
5.91
6.01
5.77
5.36
5.00
4.80
4.79
4.88
4.96
4.98
4.94
4.90
4.94
5.07
5.30
5.52
5.65
5.57
5.26
4.77
4.21
3.69
3.27
2.89
2.44
1.81
0.98
0.01
-0.98
-1.93
-2.85
-3.81
-4.88
-6.01
-7.03
-7.72
-7.90
-7.52
-6.67
-5.49
-4.13
-2.64
-1.03
0.70
2.46
4.05
5.23
5.86
5.90
5.51
4.94
4.39
3.98
3.68
3.37
2.96
2.41
1.76
1.08
0.43
-0.14
-0.58
-0.85
-0.94
-0.89
-0.79
-0.76
-0.85
-1.05
-1.22
-1.24
-1.01
-0.60
-0.20
-0.03
-0.24
-0.81
-1.60
-2.37
-2.96
-3.29
-3.44
-3.50
-3.60
-3.82
-4.23
-4.89
-5.79
-6.87
-7.93
-8.72
-8.99
-8.60
-7.59
-6.13
-4.44
-2.69
-1.01
0.52
1.81
2.77
3.37
3.63
3.71
3.78
4.01
4.45
5.03
5.65
6.16
6.50
6.65
6.66
6.59
6.48
6.40
6.39
6.45
6.54
6.56
6.33
5.72
4.70
3.38
2.04
0.97
0.45
0.57
1.18
1.96
2.56
2.71
2.36
1.65
0.80
-0.01
-0.72
-1.36
-2.02
-2.69
-3.33
-3.85
-4.21
-4.45
-4.68
-4.92
-5.16
-5.22
-4.98
-4.35
-3.40
-2.29
-1.18
-0.15
0.77
1.61
2.39
3.05
3.53
3.75
3.66
3.25
2.57
1.72
0.87
0.22
-0.06
0.15
0.82
1.77
2.75
3.53
3.94
3.92
3.56
3.02
2.52
2.25
2.30
2.64
3.14
3.59
3.82
3.73
3.28
2.46
1.29
-0.20
-1.92
-3.73
-5.41
-6.76
-7.63
-7.97
-7.83
-7.36
-6.73
-6.13
-5.70
-5.49
-5.43
-5.30
-4.93
-4.19
-3.15
-1.99
-0.97
-0.25
0.14
0.30
0.35
0.36
0.32
0.19
-0.08
-0.48
-0.92
-1.34
-1.67
-1.86
-1.91
-1.77
-1.42
-0.84
-0.04
0.89
1.86
2.76
3.51
4.07
4.42
4.57
4.59
4.50
4.36
4.22
4.04
3.79
3.41
2.89
2.24
1.52
0.81
0.15
-0.49
-1.18
-2.02
-3.04
-4.20
-5.36
-6.37
-7.13
-7.65
-8.07
-8.51
-9.06
-9.69
-10.26
-10.58
-10.46
-9.84
-8.70
-7.14
-5.32
-3.38
-1.49
0.24
1.71
2.85
3.59
3.94
3.97
3.83
3.68
3.72
4.02
4.59
5.34
6.11
6.78
7.22
7.37
7.21
6.80
6.27
5.78
5.49
5.50
5.78
6.20
6.55
6.65
6.37
5.71
4.78
3.75
2.83
2.16
1.77
1.58
1.42
1.17
0.76
0.26
-0.21
-0.52
-0.64
-0.60
-0.50
-0.43
-0.45
-0.61
-0.92
-1.43
-2.17
-3.18
-4.38
-5.62
-6.65
-7.21
-7.11
-6.29
-4.88
-3.15
-1.39
0.15
1.37
2.31
3.06
3.71
4.26
4.64
4.81
4.78
4.65
4.56
4.59
4.74
4.92
5.05
5.08
5.06
5.08
5.16
5.27
5.30
5.17
4.87
4.49
4.16
3.96
3.86
3.77
3.53
3.05
2.33
1.49
0.70
0.08
-0.28
-0.43
-0.43
-0.41
-0.47
-0.65
-0.93
-1.24
-1.44
-1.48
-1.31
-1.03
-0.75
-0.64
-0.79
-1.22
-1.86
-2.58
-3.23
-3.74
-4.09
-4.38
-4.75
-5.32
-6.15
-7.17
-8.25
-9.21
-9.88
-10.16
-10.01
-9.43
-8.41
-6.98
-5.20
-3.20
-1.15
0.78
2.44
3.75
4.69
5.30
5.63
5.75
5.73
5.63
5.48
5.33
5.21
5.14
5.14
5.23
5.35
5.42
5.33
4.98
4.32
3.41
2.36
1.33
0.51
-0.01
-0.19
-0.10
0.11
0.29
0.31
0.15
-0.15
-0.48
-0.75
-0.91
-0.95
-0.91
-0.82
-0.74
-0.72
-0.80
-1.03
-1.43
-2.00
-2.71
-3.53
-4.40
-5.28
-6.14
-6.90
-7.44
-7.67
-7.45
-6.75
-5.63
-4.22
-2.71
-1.31
-0.18
0.59
0.99
1.10
1.03
0.91
0.82
0.78
0.74
0.68
0.58
0.51
0.52
0.68
0.96
1.32
1.66
1.93
2.19
2.48
2.87
3.35
3.83
4.22
4.47
4.63
4.77
4.95
5.12
5.19
5.10
4.84
4.47
4.08
3.67
3.21
2.61
1.87
1.05
0.23
-0.49
-1.15
-1.83
-2.59
-3.44
-4.27
-4.96
-5.44
-5.73
-5.90
-6.01
-6.04
-5.92
-5.60
-5.04
-4.32
-3.52
-2.71
-1.92
-1.13
-0.34
0.42
1.04
1.42
1.49
1.28
0.91
0.53
0.29
0.28
0.51
0.91
1.40
1.88
2.30
2.62
2.85
3.00
3.04
2.94
2.69
2.29
1.79
1.25
0.72
0.22
-0.27
-0.78
-1.30
-1.80
-2.27
-2.69
-3.12
-3.62
-4.24
-4.97
-5.75
-6.50
-7.12
-7.57
-7.86
-8.09
-8.33
-8.63
-8.95
-9.16
-9.12
-8.71
-7.93
-6.85
-5.59
-4.28
-2.98
-1.71
-0.47
0.76
1.97
3.10
4.04
4.69
4.97
4.85
4.45
3.94
3.49
3.18
2.96
2.72
2.36
1.88
1.35
0.89
0.57
0.35
0.17
0.02
-0.04
0.14
0.64
1.42
2.33
3.12
3.61
3.74
3.60
3.33
3.07
2.84
2.63
2.39
2.09
1.73
1.36
1.00
0.67
0.35
0.03
-0.34
-0.83
-1.47
-2.25
-3.13
-3.99
-4.73
-5.23
-5.45
-5.39
-5.08
-4.56
-3.84
-2.94
-1.89
-0.79
0.25
1.10
1.69
2.00
2.09
2.01
1.83
1.58
1.31
1.13
1.12
1.38
1.92
2.64
3.38
4.01
4.45
4.71
4.89
5.09
5.34
5.63
5.90
6.08
6.10
5.94
5.59
5.10
4.54
3.97
3.47
3.05
2.70
2.41
2.14
1.88
1.62
1.30
0.88
0.32
-0.37
-1.15
-1.97
-2.77
-3.57
-4.39
-5.24
-6.07
-6.76
-7.17
-7.17
-6.72
-5.87
-4.75
-3.52
-2.32
-1.28
-0.48
0.03
0.27
0.33
0.34
0.43
0.64
0.92
1.14
1.19
1.07
0.91
0.86
1.04
1.43
1.89
2.26
2.46
2.49
2.40
2.23
1.96
1.58
1.07
0.51
-0.04
-0.50
-0.88
-1.23
-1.58
-1.94
-2.25
-2.43
-2.46
-2.32
-2.08
-1.79
-1.52
-1.28
-1.10
-0.98
-0.97
-1.13
-1.56
-2.30
-3.36
-4.60
-5.84
-6.80
-7.28
-7.15
-6.44
-5.30
-3.95
-2.62
-1.44
-0.49
0.23
0.81
1.28
1.67
1.94
2.00
1.83
1.47
1.02
0.65
0.49
0.62
1.01
1.60
2.28
2.92
3.41
3.66
3.63
3.34
2.88
2.36
1.86
1.46
1.16
0.95
0.77
0.59
0.34
-0.05
-0.58
-1.22
-1.88
-2.40
-2.65
-2.57
-2.19
-1.59
-0.94
-0.37
0.01
0.14
-0.00
-0.42
-1.11
-2.05
-3.22
-4.53
-5.86
-7.02
-7.79
-8.02
-7.67
-6.81
-5.67
-4.47
-3.42
-2.59
-1.93
-1.31
-0.56
0.37
1.48
2.69
3.88
4.93
5.77
6.37
6.73
6.86
6.82
6.64
6.37
6.09
5.89
5.83
5.95
6.19
6.44
6.57
6.46
6.12
5.61
5.05
4.56
4.19
3.92
3.69
3.44
3.13
2.75
2.35
1.99
1.72
1.60
1.59
1.61
1.55
1.27
0.73
-0.09
-1.07
-2.08
-2.96
-3.60
-3.98
-4.07
-3.89
-3.46
-2.80
-1.98
-1.10
-0.30
0.33
0.75
1.00
1.19
1.39
1.62
1.83
1.95
1.94
1.84
1.71
1.60
1.52
1.43
1.30
1.13
1.03
1.12
1.48
2.07
2.72
3.20
3.34
3.11
2.60
1.99
1.40
0.88
0.43
0.03
-0.29
-0.48
-0.51
-0.46
-0.46
-0.68
-1.15
-1.80
-2.47
-3.07
-3.59
-4.15
-4.85
-5.73
-6.72
-7.65
-8.42
-8.97
-9.28
-9.34
-9.09
-8.48
-7.52
-6.34
-5.11
-4.05
-3.28
-2.82
-2.58
-2.44
-2.29
-2.04
-1.65
-1.11
-0.42
0.39
1.23
1.96
2.50
2.80
2.88
2.81
2.68
2.54
2.38
2.17
1.89
1.53
1.13
0.76
0.49
0.36
0.37
0.52
0.78
1.08
1.37
1.55
1.61
1.55
1.45
1.36
1.31
1.27
1.17
0.88
0.33
-0.52
-1.64
-2.90
-4.17
-5.28
-6.13
-6.60
-6.65
-6.20
-5.20
-3.72
-1.90
0.03
1.80
3.23
4.29
5.05
5.62
6.07
6.39
6.49
6.36
6.04
5.69
5.44
5.37
5.42
5.48
5.45
5.28
4.98
4.62
4.24
3.86
3.48
3.05
2.56
2.05
1.55
1.13
0.82
0.65
0.61
0.66
0.73
0.76
0.64
0.34
-0.11
-0.65
-1.17
-1.65
-2.07
-2.52
-3.03
-3.63
-4.30
-5.00
-5.71
-6.42
-7.09
-7.64
-7.93
-7.80
-7.18
-6.11
-4.77
-3.37
-2.08
-0.93
0.10
1.13
2.14
3.07
3.73
4.01
3.87
3.46
3.01
2.78
2.91
3.35
3.93
4.43
4.73
4.81
4.77
4.76
4.84
5.00
5.16
5.22
5.15
4.94
4.59
4.10
3.46
2.65
1.71
0.70
-0.30
-1.23
-2.09
-2.89
-3.67
-4.40
-5.06
-5.61
-6.07
-6.50
-6.98
-7.59
-8.36
-9.21
-10.03
-10.62
-10.83
-10.57
-9.82
-8.65
-7.16
-5.46
-3.64
-1.76
0.09
1.83
3.34
4.49
5.19
5.46
5.37
5.10
4.83
4.72
4.82
5.11
5.48
5.79
5.93
5.81
5.46
4.98
4.51
4.18
4.07
4.16
4.35
4.48
4.45
4.21
3.79
3.24
2.59
1.86
1.06
0.21
-0.68
-1.56
-2.41
-3.20
-3.92
-4.56
-5.10
-5.53
-5.86
-6.09
-6.26
-6.41
-6.60
-6.87
-7.26
-7.76
-8.29
-8.71
-8.83
-8.47
-7.55
-6.11
-4.29
-2.31
-0.37
1.34
2.71
3.67
4.19
4.27
3.94
3.32
2.57
1.91
1.50
1.40
1.55
1.80
2.00
2.08
2.10
2.17
2.41
2.84
3.38
3.88
4.24
4.40
4.39
4.30
4.21
4.15
4.11
4.00
3.78
3.39
2.84
2.16
1.42
0.67
-0.06
-0.74
-1.38
-2.01
-2.65
-3.32
-4.05
-4.84
-5.72
-6.68
-7.67
-8.61
-9.34
-9.70
-9.55
-8.85
-7.67
-6.15
-4.48
-2.79
-1.18
0.28
1.51
2.45
3.05
3.33
3.37
3.29
3.21
3.18
3.23
3.35
3.53
3.79
4.10
4.39
4.58
4.58
4.41
4.12
3.83
3.64
3.58
3.60
3.60
3.48
3.21
2.81
2.34
1.87
1.42
0.96
0.48
-0.06
-0.65
-1.32
-2.07
-2.89
-3.75
-4.60
-5.34
-5.89
-6.22
-6.37
-6.46
-6.64
-7.01
-7.59
-8.27
-8.86
-9.15
-8.98
-8.29
-7.13
-5.61
-3.91
-2.16
-0.47
1.07
2.39
3.41
4.07
4.35
4.32
4.13
3.98
4.05
4.43
5.07
5.84
6.56
7.11
7.45
7.67
7.94
8.45
9.24
10.23
11.21
11.96
12.37
12.50
12.50
12.56
12.74
12.98
13.18
13.25
13.24
13.24
13.41
13.84
14.58
15.61
16.86
18.24
19.65
20.93
21.99
22.75
23.23
23.47
23.45
23.00
21.74
19.16
14.77
8.36
0.11
-9.29
-18.85
-27.51
-34.48
-39.42
-42.49
-44.11
-44.77
-44.82
-44.39
-43.48
-42.09
-40.32
-38.38
-36.58
-35.20
-34.45
-34.38
-34.88
-35.72
-36.57
-37.13
-37.16
-36.59
-35.51
-34.06
-32.37
-30.47
-28.20
-25.37
-21.74
-17.14
-11.44
-4.52
3.58
12.64
22.06
30.95
38.30
43.34
45.90
46.49
46.15
45.95
46.49
47.61
48.52
48.20
45.91
41.55
35.68
29.26
23.20
18.09
14.11
11.16
9.09
7.80
7.30
7.48
8.08
8.68
8.86
8.39
7.33
6.00
4.82
4.09
3.88
3.99
4.09
3.88
3.20
2.15
0.98
0.03
-0.43
-0.31
0.27
1.09
1.84
2.29
2.33
1.98
1.37
0.69
0.10
-0.25
-0.34
-0.26
-0.16
-0.22
-0.55
-1.15
-1.96
-2.88
-3.82
-4.74
-5.63
-6.47
-7.22
-7.86
-8.41
-8.90
-9.46
-10.17
-11.04
-12.00
-12.89
-13.50
-13.65
-13.25
-12.30
-10.93
-9.30
-7.61
-6.04
-4.70
-3.67
-2.98
-2.59
-2.47
-2.52
-2.64
-2.73
-2.73
-2.67
-2.58
-2.53
-2.56
-2.65
-2.75
-2.77
-2.70
-2.54
-2.35
-2.21
-2.14
-2.12
-2.12
-2.15
-2.29
-2.61
-3.16
-3.86
-4.54
-5.05
-5.34
-5.46
-5.59
-5.80
-6.12
-6.40
-6.53
-6.45
-6.25
-6.14
-6.28
-6.72
-7.38
-8.05
-8.55
-8.80
-8.81
-8.66
-8.39
-7.97
-7.31
-6.35
-5.08
-3.57
-1.96
-0.33
1.24
2.71
4.05
5.19
6.08
6.71
7.12
7.38
7.55
7.66
7.68
7.59
7.47
7.41
7.54
7.92
8.49
9.09
9.52
9.64
9.37
8.73
7.77
6.60
5.31
3.98
2.71
1.53
0.50
-0.33
-0.91
-1.22
-1.28
-1.19
-1.04
-1.01
-1.26
-1.93
-3.15
-4.97
-7.29
-9.90
-12.43
-14.49
-15.73
-15.95
-15.16
-13.48
-11.15
-8.40
-5.44
-2.43
0.47
3.11
5.32
6.99
8.12
8.80
9.18
9.36
9.34
9.02
8.26
7.05
5.55
4.04
2.86
2.24
2.20
2.61
3.24
3.91
4.49
4.92
5.13
5.07
4.73
4.16
3.47
2.78
2.19
1.74
1.41
1.15
0.93
0.70
0.39
-0.05
-0.67
-1.48
-2.45
-3.50
-4.58
-5.66
-6.75
-7.81
-8.74
-9.34
-9.40
-8.73
-7.27
-5.14
-2.55
0.20
2.82
5.05
6.71
7.68
7.99
7.73
7.10
6.26
5.35
4.48
3.67
2.97
2.44
2.17
2.18
2.46
2.98
3.69
4.54
5.48
6.36
6.96
6.99
6.25
4.76
2.75
0.64
-1.18
-2.45
-3.12
-3.30
-3.14
-2.77
-2.24
-1.62
-0.98
-0.44
-0.15
-0.16
-0.49
-1.05
-1.72
-2.39
-3.00
-3.52
-3.92
-4.19
-4.25
-4.00
-3.35
-2.23
-0.70
1.11
3.01
4.78
6.26
7.36
8.04
8.33
8.31
8.07
7.72
7.35
7.00
6.63
6.16
5.55
4.80
4.04
3.41
2.99
2.76
2.62
2.44
2.15
1.80
1.47
1.24
1.10
0.95
0.67
0.20
-0.42
-1.13
-1.80
-2.40
-2.93
-3.46
-4.00
-4.54
-5.03
-5.42
-5.68
-5.88
-6.07
-6.30
-6.51
-6.59
-6.38
-5.79
-4.83
-3.65
-2.45
-1.43
-0.71
-0.31
-0.22
-0.37
-0.73
-1.28
-1.98
-2.78
-3.59
-4.29
-4.78
-5.00
-4.92
-4.52
-3.86
-3.01
-2.04
-1.07
-0.21
0.47
0.91
1.11
1.09
0.92
0.66
0.40
0.18
-0.00
-0.20
-0.49
-0.94
-1.56
-2.26
-2.90
-3.32
-3.47
-3.36
-3.14
-2.98
-2.99
-3.23
-3.70
-4.35
-5.10
-5.79
-6.25
-6.27
-5.71
-4.59
-3.05
-1.38
0.17
1.44
2.44
3.31
4.17
5.10
6.05
6.91
7.54
7.88
7.96
7.85
7.63
7.35
7.09
6.91
6.87
7.01
7.33
7.72
8.05
8.21
8.12
7.78
7.24
6.56
5.75
4.83
3.83
2.86
2.05
1.48
1.14
0.93
0.69
0.30
-0.25
-0.87
-1.43
-1.84
-2.12
-2.38
-2.76
-3.33
-4.03
-4.70
-5.11
-5.10
-4.64
-3.82
-2.82
-1.82
-0.94
-0.17
0.51
1.14
1.71
2.19
2.50
2.66
2.71
2.76
2.91
3.24
3.72
4.27
4.75
5.07
5.18
5.08
4.84
4.53
4.21
3.94
3.77
3.72
3.75
3.80
3.71
3.37
2.72
1.86
0.94
0.19
-0.27
-0.42
-0.37
-0.28
-0.35
-0.64
-1.18
-1.88
-2.63
-3.33
-3.94
-4.47
-4.98
-5.56
-6.27
-7.13
-8.08
-9.00
-9.69
-9.99
-9.78
-9.06
-7.93
-6.60
-5.30
-4.20
-3.39
-2.93
-2.84
-3.12
-3.75
-4.71
-5.88
-7.08
-8.10
-8.81
-9.14
-9.13
-8.91
-8.57
-8.15
-7.65
-7.00
-6.21
-5.31
-4.35
-3.38
-2.38
-1.23
0.22
2.10
4.44
7.11
9.88
12.46
14.55
16.02
16.83
17.06
16.80
16.07
14.85
13.14
11.03
8.77
6.63
4.87
3.55
2.51
1.54
0.43
-0.88
-2.30
-3.67
-4.85
-5.77
-6.41
-6.77
-6.82
-6.53
-5.84
-4.75
-3.33
-1.75
-0.19
1.14
2.14
2.76
3.11
3.31
3.49
3.74
4.05
4.43
4.84
5.28
5.73
6.10
6.28
6.18
5.78
5.16
4.48
3.88
3.39
2.95
2.39
1.61
0.60
-0.57
-1.75
-2.86
-3.84
-4.72
-5.49
-6.10
-6.51
-6.67
-6.60
-6.40
-6.14
-5.93
-5.80
-5.78
-5.91
-6.20
-6.63
-7.06
-7.31
-7.14
-6.41
-5.11
-3.39
-1.50
0.34
1.97
3.31
4.36
5.10
5.48
5.45
5.03
4.32
3.51
2.82
2.40
2.32
2.59
3.13
3.87
4.68
5.42
5.92
6.07
5.82
5.24
4.46
3.60
2.70
1.79
0.86
-0.00
-0.68
-1.05
-1.09
-0.93
-0.79
-0.87
-1.25
-1.90
-2.74
-3.70
-4.76
-5.93
-7.22
-8.57
-9.91
-11.14
-12.23
-13.11
-13.71
-13.95
-13.74
-13.08
-12.04
-10.77
-9.39
-7.95
-6.44
-4.79
-3.06
-1.36
0.12
1.22
1.86
2.10
2.06
1.85
1.54
1.17
0.71
0.21
-0.26
-0.58
-0.67
-0.51
-0.14
0.33
0.83
1.34
1.86
2.40
2.93
3.40
3.77
4.07
4.45
5.04
5.92
7.04
8.26
9.42
10.38
11.10
11.59
11.88
12.01
11.96
11.70
11.14
10.18
8.76
6.86
4.58
2.13
-0.24
-2.32
-4.00
-5.29
-6.23
-6.85
-7.13
-7.01
-6.52
-5.75
-4.85
-3.99
-3.28
-2.72
-2.22
-1.67
-0.98
-0.13
0.85
1.84
2.75
3.48
4.01
4.33
4.48
4.47
4.30
3.92
3.35
2.62
1.87
1.26
0.92
0.89
1.11
1.43
1.72
1.90
1.97
1.97
1.92
1.83
1.66
1.36
0.92
0.31
-0.50
-1.55
-2.85
-4.35
-5.92
-7.37
-8.47
-9.07
-9.14
-8.76
-8.12
-7.41
-6.80
-6.37
-6.14
-6.11
-6.18
-6.30
-6.39
-6.40
-6.30
-6.15
-5.98
-5.84
-5.68
-5.42
-4.94
-4.18
-3.16
-1.97
-0.71
0.58
1.93
3.37
4.89
6.35
7.57
8.36
8.65
8.48
7.96
7.22
6.31
5.20
3.89
2.37
0.72
-0.96
-2.56
-4.05
-5.45
-6.82
-8.15
-9.41
-10.52
-11.38
-11.94
-12.13
-11.93
-11.28
-10.10
-8.36
-6.12
-3.50
-0.71
2.02
4.55
6.78
8.69
10.30
11.58
12.50
13.02
13.12
12.85
12.30
11.62
10.96
10.44
10.11
9.93
9.82
9.69
9.47
9.16
8.80
8.42
8.03
7.57
6.95
6.05
4.79
3.15
1.16
-1.05
-3.28
-5.36
-7.11
-8.48
-9.47
-10.16
-10.67
-11.07
-11.41
-11.68
-11.88
-11.97
-11.94
-11.71
-11.20
-10.29
-8.91
-7.06
-4.81
-2.29
0.38
3.14
5.99
8.87
11.65
14.02
15.60
16.07
15.37
13.75
11.66
9.54
7.70
6.18
4.95
3.97
3.36
3.28
3.82
4.86
6.05
6.97
7.29
6.96
6.13
5.06
3.93
2.83
1.66
0.36
-1.10
-2.57
-3.89
-4.88
-5.47
-5.74
-5.83
-5.95
-6.18
-6.56
-7.06
-7.63
-8.20
-8.76
-9.23
-9.49
-9.39
-8.83
-7.81
-6.44
-4.95
-3.59
-2.57
-1.94
-1.66
-1.61
-1.62
-1.60
-1.49
-1.28
-1.00
-0.66
-0.25
0.26
0.86
1.51
2.13
2.63
2.94
3.08
3.13
3.18
3.29
3.46
3.58
3.59
3.45
3.25
3.09
3.09
3.26
3.53
3.77
3.85
3.74
3.48
3.15
2.84
2.57
2.30
1.93
1.39
0.62
-0.31
-1.30
-2.21
-2.89
-3.23
-3.16
-2.71
-1.97
-1.13
-0.37
0.16
0.44
0.57
0.70
0.95
1.30
1.65
1.87
1.88
1.74
1.60
1.62
1.89
2.37
2.90
3.31
3.44
3.20
2.59
1.68
0.64
-0.36
-1.17
-1.70
-2.02
-2.20
-2.38
-2.60
-2.86
-3.12
-3.33
-3.50
-3.64
-3.75
-3.82
-3.78
-3.63
-3.41
-3.25
-3.32
-3.69
-4.40
-5.35
-6.41
-7.39
-8.14
-8.52
-8.46
-7.96
-7.10
-6.03
-4.91
-3.86
-2.97
-2.27
-1.77
-1.44
-1.20
-0.98
-0.67
-0.26
0.22
0.64
0.89
0.91
0.77
0.57
0.43
0.38
0.35
0.22
-0.07
-0.51
-0.99
-1.42
-1.73
-1.92
-2.04
-2.08
-1.97
-1.60
-0.86
0.24
1.57
2.91
4.05
4.88
5.47
6.01
6.73
7.81
9.24
10.88
12.45
13.61
14.06
13.61
12.24
10.10
7.47
4.74
2.22
0.17
-1.35
-2.42
-3.24
-4.04
-4.98
-6.12
-7.35
-8.47
-9.25
-9.51
-9.18
-8.31
-7.08
-5.72
-4.41
-3.29
-2.36
-1.58
-0.85
-0.11
0.64
1.32
1.84
2.09
2.05
1.76
1.30
0.76
0.16
-0.48
-1.14
-1.76
-2.22
-2.38
-2.14
-1.50
-0.60
0.38
1.20
1.71
1.87
1.71
1.34
0.89
0.41
-0.09
-0.64
-1.30
-2.09
-2.93
-3.73
-4.36
-4.70
-4.65
-4.16
-3.18
-1.76
-0.00
1.92
3.81
5.52
6.98
8.18
9.17
9.97
10.53
10.80
10.75
10.39
9.79
9.01
8.11
7.16
6.21
5.35
4.69
4.29
4.15
4.18
4.27
4.31
4.25
4.10
3.90
3.66
3.42
3.16
2.91
2.70
2.56
2.50
2.46
2.35
2.09
1.63
1.00
0.32
-0.31
-0.83
-1.25
-1.64
-2.10
-2.73
-3.65
-4.93
-6.61
-8.65
-10.88
-13.09
-15.01
-16.46
-17.35
-17.73
-17.82
-17.79
-17.73
-17.59
-17.23
-16.50
-15.34
-13.92
-12.55
-11.65
-11.42
-11.75
-12.20
-12.11
-10.84
-8.06
-3.94
0.93
5.66
9.78
13.28
16.50
19.61
22.36
24.05
23.87
21.42
16.68
10.58
4.15
-1.92
-7.54
-12.96
-18.27
-23.08
-26.64
-28.73
-28.86
-26.97
-22.72
-15.30
-3.53
13.85
37.57
66.66
96.25
120.28
133.71
135.74
129.28
118.51
106.82
95.80
87.46
78.14
64.52
43.73
15.26
-18.60
-53.65
-85.19
-110.23
-124.76
-129.14
-121.26
-104.29
-84.37
-66.52
-52.07
-39.22
-28.45
-18.75
-11.36
-7.16
-6.63
-8.79
-10.51
-10.08
-7.30
-3.29
0.77
3.10
3.24
1.30
-1.62
-3.89
-4.54
-3.46
-1.47
0.63
1.78
1.68
0.40
-1.40
-2.79
-3.28
-2.86
-2.03
-1.22
-1.00
-1.53
-2.77
-4.34
-5.72
-6.62
-7.02
-7.16
-7.24
-7.44
-7.76
-8.08
-8.17
-7.81
-6.95
-5.66
-4.15
-2.59
-1.15
0.06
1.04
1.82
2.44
2.89
3.21
3.39
3.48
3.56
3.66
3.79
3.90
3.96
3.96
3.92
3.90
3.88
3.84
3.67
3.34
2.88
2.40
2.01
1.78
1.66
1.55
1.37
1.11
0.84
0.66
0.59
0.56
0.47
0.20
-0.26
-0.83
-1.40
-1.86
-2.18
-2.43
-2.72
-3.16
-3.78
-4.56
-5.41
-6.24
-6.99
-7.63
-8.18
-8.60
-8.84
-8.76
-8.24
-7.26
-5.92
-4.44
-3.04
-1.84
-0.87
-0.08
0.60
1.15
1.50
1.58
1.40
1.05
0.68
0.46
0.42
0.52
0.65
0.71
0.67
0.55
0.42
0.36
0.38
0.46
0.53
0.50
0.31
-0.06
-0.60
-1.20
-1.75
-2.10
-2.19
-2.02
-1.71
-1.44
-1.33
-1.44
-1.70
-1.97
-2.15
-2.23
-2.27
-2.35
-2.49
-2.61
-2.63
-2.49
-2.23
-1.98
-1.83
-1.75
-1.60
-1.18
-0.34
0.92
2.41
3.90
5.22
6.33
7.31
8.28
9.27
10.22
10.94
11.28
11.24
10.93
10.62
10.52
10.71
11.10
11.47
11.60
11.38
10.83
10.06
9.21
8.41
7.70
7.11
6.58
6.05
5.42
4.59
3.56
2.37
1.10
-0.19
-1.50
-2.91
-4.47
-6.14
-7.77
-9.10
-9.94
-10.23
-10.09
-9.75
-9.45
-9.30
-9.28
-9.29
-9.18
-8.89
-8.41
-7.79
-7.05
-6.17
-5.08
-3.69
-2.02
-0.18
1.60
3.09
4.19
4.89
5.32
5.59
5.77
5.78
5.54
4.98
4.18
3.27
2.46
1.92
1.71
1.85
2.26
2.87
3.55
4.20
4.70
4.96
4.94
4.66
4.23
3.75
3.31
2.95
2.63
2.29
1.82
1.18
0.38
-0.53
-1.43
-2.25
-2.93
-3.46
-3.87
-4.19
-4.50
-4.86
-5.35
-6.05
-6.94
-8.00
-9.11
-10.11
-10.83
-11.16
-11.03
-10.44
-9.42
-8.07
-6.45
-4.68
-2.88
-1.16
0.39
1.70
2.76
3.59
4.26
4.79
5.20
5.53
5.80
6.06
6.34
6.61
6.82
6.91
6.83
6.61
6.30
5.93
5.54
5.08
4.54
3.90
3.24
2.62
2.14
1.80
1.57
1.38
1.13
0.83
0.47
0.14
-0.10
-0.23
-0.27
-0.32
-0.53
-1.00
-1.81
-2.93
-4.22
-5.49
-6.57
-7.30
-7.63
-7.56
-7.12
-6.33
-5.23
-3.88
-2.42
-1.01
0.17
1.05
1.66
2.11
2.59
3.16
3.80
4.38
4.74
4.80
4.59
4.27
3.99
3.90
4.00
4.22
4.42
4.50
4.42
4.22
4.02
3.91
3.92
4.02
4.06
3.90
3.42
2.61
1.55
0.43
-0.52
-1.16
-1.43
-1.41
-1.26
-1.12
-1.08
-1.16
-1.35
-1.62
-1.99
-2.53
-3.26
-4.20
-5.27
-6.32
-7.20
-7.74
-7.84
-7.44
-6.60
-5.42
-4.06
-2.66
-1.38
-0.29
0.54
1.11
1.45
1.56
1.49
1.27
0.96
0.64
0.41
0.33
0.42
0.63
0.87
1.07
1.23
1.42
1.76
2.33
3.12
4.02
4.87
5.53
5.93
6.10
6.06
5.83
5.40
4.76
3.98
3.15
2.39
1.77
1.26
0.80
0.31
-0.27
-0.88
-1.48
-2.01
-2.49
-3.00
-3.61
-4.36
-5.18
-5.95
-6.52
-6.75
-6.55
-5.92
-4.96
-3.76
-2.43
-1.01
0.42
1.82
3.06
3.98
4.45
4.38
3.86
3.11
2.45
2.13
2.25
2.71
3.27
3.63
3.64
3.28
2.69
2.06
1.49
0.94
0.32
-0.45
-1.39
-2.35
-3.19
-3.79
-4.16
-4.36
-4.46
-4.43
-4.22
-3.75
-3.04
-2.21
-1.43
-0.81
-0.39
-0.14
-0.01
-0.00
-0.14
-0.42
-0.77
-1.09
-1.23
-1.12
-0.76
-0.23
0.37
0.97
1.52
2.02
2.47
2.91
3.36
3.84
4.38
4.96
5.59
6.22
6.83
7.36
7.75
7.94
7.91
7.65
7.20
6.61
5.92
5.15
4.35
3.57
2.89
2.40
2.11
1.92
1.66
1.09
0.07
-1.44
-3.34
-5.38
-7.29
-8.84
-9.89
-10.40
-10.43
-10.07
-9.47
-8.78
-8.19
-7.86
-7.88
-8.27
-8.89
-9.51
-9.88
-9.81
-9.27
-8.32
-7.12
-5.82
-4.49
-3.15
-1.82
-0.60
0.42
1.12
1.50
1.69
1.85
2.19
2.79
3.64
4.60
5.54
6.32
6.88
7.20
7.30
7.26
7.16
7.12
7.20
7.38
7.59
7.65
7.43
6.84
5.91
4.74
3.48
2.26
1.14
0.17
-0.68
-1.41
-2.02
-2.52
-2.95
-3.40
-3.97
-4.72
-5.66
-6.70
-7.68
-8.47
-8.93
-8.98
-8.59
-7.78
-6.63
-5.23
-3.77
-2.41
-1.30
-0.51
-0.07
0.07
0.00
-0.19
-0.41
-0.59
-0.70
-0.76
-0.78
-0.78
-0.72
-0.52
-0.11
0.54
1.37
2.26
3.04
3.58
3.79
3.69
3.34
2.87
2.42
2.08
1.89
1.83
1.84
1.81
1.66
1.37
0.92
0.36
-0.26
-0.89
-1.50
-2.07
-2.56
-2.99
-3.32
-3.55
-3.62
-3.49
-3.13
-2.59
-1.99
-1.50
-1.25
-1.23
-1.29
-1.19
-0.73
0.14
1.30
2.55
3.70
4.68
5.54
6.37
7.21
8.06
8.81
9.37
9.70
9.85
9.88
9.93
10.06
10.27
10.47
10.53
10.29
9.67
8.73
7.61
6.48
5.44
4.50
3.56
2.48
1.20
-0.22
-1.62
-2.82
-3.66
-4.14
-4.33
-4.36
-4.36
-4.37
-4.41
-4.51
-4.77
-5.29
-6.16
-7.37
-8.76
-10.10
-11.21
-11.99
-12.44
-12.63
-12.59
-12.24
-11.54
-10.44
-9.01
-7.36
-5.58
-3.63
-1.41
1.16
4.01
6.89
9.43
11.28
12.25
12.40
11.94
11.14
10.20
9.21
8.20
7.16
6.15
5.25
4.52
3.97
3.57
3.27
3.04
2.86
2.78
2.76
2.76
2.68
2.47
2.13
1.76
1.51
1.52
1.81
2.32
2.81
3.00
2.68
1.71
0.19
-1.65
-3.47
-4.95
-5.89
-6.24
-6.04
-5.41
-4.47
-3.27
-1.84
-0.28
1.31
2.76
3.89
4.63
4.99
5.10
5.14
5.26
5.55
6.01
6.56
7.10
7.53
7.79
7.82
7.60
7.16
6.55
5.91
5.37
5.07
5.03
5.22
5.53
5.85
6.11
6.28
6.33
6.22
5.86
5.20
4.23
3.06
1.86
0.76
-0.18
-1.07
-2.06
-3.33
-4.97
-6.96
-9.17
-11.43
-13.53
-15.30
-16.54
-17.11
-16.97
-16.17
-14.92
-13.49
-12.10
-10.85
-9.72
-8.60
-7.39
-6.09
-4.78
-3.58
-2.56
-1.72
-0.98
-0.28
0.43
1.14
1.82
2.49
3.17
3.91
4.72
5.59
6.48
7.33
8.06
8.62
8.95
9.03
8.84
8.38
7.68
6.76
5.65
4.40
3.02
1.53
-0.01
-1.52
-2.85
-3.83
-4.33
-4.33
-3.96
-3.53
-3.34
-3.60
-4.33
-5.35
-6.39
-7.24
-7.80
-8.13
-8.30
-8.32
-8.12
-7.55
-6.54
-5.16
-3.61
-2.13
-0.85
0.20
1.17
2.17
3.26
4.32
5.19
5.74
5.97
6.00
6.00
6.09
6.28
6.50
6.70
6.84
6.92
6.97
7.00
6.98
6.84
6.53
6.00
5.28
4.40
3.45
2.50
1.63
0.85
0.09
-0.71
-1.57
-2.48
-3.35
-4.07
-4.62
-5.01
-5.29
-5.48
-5.53
-5.37
-5.00
-4.49
-4.03
-3.82
-4.00
-4.57
-5.36
-6.18
-6.81
-7.10
-6.99
-6.48
-5.59
-4.43
-3.17
-2.03
-1.19
-0.75
-0.64
-0.67
-0.61
-0.33
0.19
0.80
1.31
1.60
1.64
1.54
1.47
1.58
1.95
2.54
3.27
4.02
4.73
5.32
5.78
6.06
6.12
5.94
5.52
4.94
4.32
3.79
3.44
3.31
3.38
3.61
3.93
4.28
4.57
4.71
4.63
4.30
3.78
3.14
2.48
1.84
1.18
0.40
-0.61
-1.90
-3.45
-5.19
-6.99
-8.70
-10.21
-11.38
-12.12
-12.34
-11.98
-11.06
-9.64
-7.86
-5.93
-4.09
-2.56
-1.42
-0.66
-0.11
0.39
0.96
1.63
2.35
3.03
3.66
4.21
4.72
5.20
5.63
6.00
6.30
6.54
6.71
6.80
6.75
6.53
6.16
5.67
5.10
4.46
3.73
2.86
1.86
0.77
-0.29
-1.20
-1.87
-2.30
-2.53
-2.63
-2.66
-2.62
-2.45
-2.07
-1.42
-0.45
0.84
2.37
4.01
5.54
6.78
7.55
7.75
7.39
6.54
5.36
3.96
2.50
1.04
-0.34
-1.57
-2.59
-3.32
-3.70
-3.73
-3.45
-2.96
-2.37
-1.79
-1.33
-1.02
-0.85
-0.73
-0.51
-0.03
0.80
1.94
3.23
4.44
5.36
5.86
5.94
5.68
5.14
4.37
3.37
2.17
0.83
-0.50
-1.62
-2.35
-2.64
-2.59
-2.45
-2.48
-2.87
-3.67
-4.76
-5.96
-7.12
-8.17
-9.10
-9.96
-10.79
-11.60
-12.40
-13.24
-14.14
-15.08
-15.94
-16.56
-16.74
-16.32
-15.25
-13.52
-11.24
-8.54
-5.63
-2.68
0.14
2.74
5.11
7.28
9.20
10.78
11.80
12.07
11.52
10.25
8.53
6.68
4.99
3.58
2.48
1.66
1.09
0.77
0.69
0.83
1.05
1.24
1.28
1.14
0.87
0.56
0.29
0.07
-0.15
-0.42
-0.83
-1.36
-1.96
-2.52
-2.90
-3.08
-3.09
-3.06
-3.19
-3.57
-4.20
-4.95
-5.60
-5.99
-6.01
-5.69
-5.11
-4.33
-3.34
-2.09
-0.52
1.31
3.21
4.94
6.28
7.12
7.53
7.65
7.66
7.64
7.59
7.42
7.08
6.57
6.00
5.48
5.12
4.96
4.97
5.10
5.25
5.37
5.38
5.24
4.99
4.68
4.39
4.13
3.89
3.56
3.05
2.31
1.35
0.24
-0.92
-2.05
-3.09
-3.94
-4.55
-4.88
-4.95
-4.86
-4.76
-4.75
-4.89
-5.13
-5.37
-5.54
-5.57
-5.43
-5.14
-4.68
-4.08
-3.38
-2.64
-1.95
-1.38
-1.00
-0.86
-0.99
-1.38
-1.99
-2.72
-3.47
-4.18
-4.75
-5.13
-5.25
-5.06
-4.54
-3.72
-2.75
-1.79
-0.94
-0.23
0.44
1.11
1.74
2.14
2.03
1.18
-0.40
-2.48
-4.70
-6.67
-8.20
-9.27
-10.03
-10.69
-11.34
-11.97
-12.52
-12.94
-13.26
-13.53
-13.82
-14.10
-14.23
-14.01
-13.29
-12.03
-10.33
-8.37
-6.38
-4.49
-2.81
-1.35
-0.11
0.91
1.75
2.46
3.08
3.64
4.15
4.61
5.03
5.40
5.75
6.08
6.33
6.48
6.53
6.56
6.67
6.88
7.16
7.35
7.31
6.96
6.35
5.60
4.84
4.13
3.47
2.85
2.27
1.78
1.38
1.05
0.70
0.21
-0.46
-1.26
-2.10
-2.90
-3.59
-4.12
-4.44
-4.52
-4.31
-3.83
-3.13
-2.30
-1.42
-0.51
0.45
1.45
2.49
3.48
4.32
4.91
5.22
5.29
5.20
5.07
5.03
5.12
5.34
5.65
5.95
6.17
6.26
6.23
6.12
5.98
5.85
5.73
5.65
5.59
5.56
5.53
5.43
5.19
4.75
4.13
3.37
2.61
1.94
1.43
1.06
0.79
0.53
0.22
-0.20
-0.77
-1.56
-2.60
-3.86
-5.22
-6.45
-7.30
-7.61
-7.35
-6.63
-5.63
-4.51
-3.36
-2.17
-0.94
0.31
1.48
2.48
3.26
3.82
4.21
4.52
4.78
5.02
5.24
5.42
5.58
5.69
5.71
5.60
5.31
4.84
4.21
3.50
2.75
2.03
1.33
0.67
0.06
-0.49
-0.97
-1.42
-1.87
-2.38
-2.96
-3.62
-4.30
-4.98
-5.61
-6.20
-6.74
-7.27
-7.81
-8.43
-9.17
-10.02
-10.91
-11.63
-11.93
-11.60
-10.56
-8.92
-6.94
-4.93
-3.13
-1.70
-0.65
0.08
0.57
0.87
1.03
1.14
1.31
1.67
2.28
3.13
4.08
4.94
5.55
5.83
5.83
5.65
5.45
5.31
5.29
5.35
5.43
5.45
5.35
5.16
4.95
4.83
4.93
5.27
5.81
6.43
7.01
7.46
7.73
7.78
7.55
6.97
5.97
4.56
2.87
1.08
-0.63
-2.20
-3.63
-5.03
-6.46
-7.89
-9.14
-10.00
-10.23
-9.76
-8.65
-7.08
-5.31
-3.52
-1.83
-0.27
1.16
2.46
3.58
4.49
5.15
5.57
5.80
5.91
5.98
6.04
6.14
6.31
6.57
6.94
7.40
7.90
8.33
8.62
8.68
8.50
8.11
7.60
7.07
6.58
6.13
5.70
5.21
4.64
4.01
3.34
2.66
1.96
1.21
0.32
-0.74
-1.95
-3.24
-4.48
-5.58
-6.50
-7.27
-8.02
-8.88
-9.88
-10.95
-11.87
-12.35
-12.15
-11.17
-9.55
-7.56
-5.49
-3.55
-1.79
-0.15
1.45
3.04
4.54
5.86
6.92
7.78
8.58
9.47
10.50
11.59
12.52
13.03
13.01
12.48
11.65
10.80
10.12
9.68
9.42
9.18
8.82
8.28
7.59
6.81
6.01
5.24
4.53
3.91
3.38
2.94
2.51
1.94
1.08
-0.16
-1.76
-3.55
-5.31
-6.85
-8.12
-9.23
-10.34
-11.57
-12.91
-14.22
-15.28
-15.89
-15.98
-15.60
-14.89
-14.01
-13.04
-12.05
-11.05
-10.06
-9.12
-8.26
-7.50
-6.79
-6.03
-5.12
-3.99
-2.67
-1.22
0.26
1.69
3.08
4.47
5.93
7.45
8.96
10.34
11.49
12.31
12.83
13.10
13.19
13.18
13.06
12.78
12.24
11.30
9.85
7.85
5.33
2.42
-0.67
-3.66
-6.30
-8.40
-9.89
-10.81
-11.34
-11.67
-12.01
-12.47
-13.05
-13.74
-14.46
-15.14
-15.69
-15.94
-15.76
-15.04
-13.80
-12.20
-10.45
-8.69
-6.96
-5.24
-3.49
-1.76
-0.16
1.19
2.23
3.00
3.57
3.90
3.89
3.40
2.36
0.89
-0.73
-2.12
-3.00
-3.22
-2.83
-1.96
-0.82
0.44
1.72
2.99
4.22
5.37
6.35
7.05
7.34
7.18
6.56
5.56
4.23
2.59
0.67
-1.50
-3.74
-5.75
-7.21
-7.84
-7.58
-6.63
-5.35
-4.15
-3.27
-2.73
-2.35
-1.84
-0.98
0.29
1.85
3.47
4.93
6.06
6.82
7.24
7.39
7.33
7.12
6.77
6.32
5.84
5.44
5.18
5.11
5.18
5.33
5.49
5.59
5.59
5.50
5.31
5.08
4.83
4.61
4.41
4.21
3.95
3.58
3.11
2.57
2.00
1.41
0.76
0.04
-0.73
-1.47
-2.05
-2.42
-2.64
-2.84
-3.20
-3.86
-4.85
-6.13
-7.56
-8.98
-10.19
-11.00
-11.28
-10.98
-10.15
-8.96
-7.60
-6.22
-4.87
-3.52
-2.16
-0.83
0.37
1.32
1.97
2.39
2.73
3.19
3.86
4.72
5.60
6.31
6.74
6.94
7.09
7.43
8.08
9.01
10.01
10.77
11.11
11.04
10.78
10.62
10.76
11.21
11.81
12.28
12.39
12.00
11.03
9.48
7.30
4.51
1.19
-2.48
-6.19
-9.62
-12.49
-14.62
-15.90
-16.31
-15.91
-14.84
-13.28
-11.48
-9.60
-7.73
-5.92
-4.18
-2.51
-0.97
0.37
1.45
2.22
2.69
2.92
2.98
2.94
2.80
2.54
2.14
1.58
0.92
0.28
-0.24
-0.61
-0.89
-1.22
-1.70
-2.33
-2.98
-3.48
-3.73
-3.75
-3.68
-3.69
-3.93
-4.45
-5.22
-6.14
-7.09
-7.91
-8.48
-8.70
-8.62
-8.39
-8.23
-8.36
-8.88
-9.76
-10.84
-11.90
-12.73
-13.16
-13.07
-12.44
-11.27
-9.69
-7.81
-5.79
-3.75
-1.77
0.08
1.73
3.10
4.14
4.87
5.33
5.61
5.79
5.83
5.70
5.33
4.75
4.05
3.41
3.00
2.91
3.13
3.54
3.97
4.24
4.20
3.79
3.01
1.96
0.76
-0.48
-1.63
-2.59
-3.30
-3.72
-3.83
-3.64
-3.18
-2.55
-1.88
-1.33
-1.11
-1.35
-2.10
-3.28
-4.69
-6.09
-7.19
-7.81
-7.87
-7.40
-6.49
-5.27
-3.82
-2.21
-0.52
1.17
2.71
3.99
4.92
5.48
5.79
5.98
6.19
6.52
6.96
7.42
7.81
8.04
8.10
8.02
7.89
7.74
7.59
7.40
7.12
6.75
6.28
5.77
5.23
4.62
3.88
2.95
1.84
0.65
-0.49
-1.47
-2.25
-2.87
-3.37
-3.86
-4.38
-5.02
-5.82
-6.80
-7.92
-9.04
-9.96
-10.50
-10.51
-9.96
-8.92
-7.51
-5.89
-4.22
-2.66
-1.35
-0.39
0.23
0.58
0.82
1.10
1.50
1.98
2.44
2.78
2.96
3.07
3.25
3.61
4.13
4.72
5.21
5.57
5.82
6.09
6.45
6.86
7.15
7.15
6.79
6.15
5.49
5.03
4.89
4.99
5.15
5.18
5.01
4.68
4.34
4.10
3.99
3.95
3.85
3.60
3.14
2.49
1.71
0.87
0.03
-0.77
-1.51
-2.16
-2.62
-2.81
-2.65
-2.12
-1.30
-0.34
0.58
1.35
1.92
2.29
2.50
2.51
2.31
1.88
1.28
0.66
0.24
0.14
0.40
0.92
1.54
2.12
2.59
2.95
3.22
3.43
3.59
3.71
3.83
3.96
4.11
4.24
4.27
4.15
3.83
3.35
2.78
2.18
1.58
0.96
0.26
-0.56
-1.49
-2.54
-3.63
-4.72
-5.70
-6.48
-6.96
-7.10
-6.91
-6.44
-5.76
-4.94
-4.02
-3.01
-1.97
-0.95
-0.00
0.85
1.61
2.31
2.96
3.50
3.84
3.90
3.68
3.31
2.96
2.82
3.00
3.46
4.09
4.70
5.19
5.53
5.74
5.86
5.90
5.81
5.55
5.09
4.49
3.84
3.28
2.90
2.78
2.89
3.14
3.38
3.43
3.17
2.57
1.70
0.69
-0.31
-1.22
-2.07
-2.95
-3.99
-5.29
-6.88
-8.69
-10.57
-12.32
-13.70
-14.52
-14.62
-13.99
-12.71
-10.94
-8.89
-6.77
-4.68
-2.65
-0.68
1.27
3.20
5.02
6.58
7.75
8.52
9.00
9.39
9.90
10.67
11.66
12.75
13.75
14.54
15.08
15.38
15.48
15.40
15.11
14.57
13.74
12.61
11.18
9.54
7.76
5.98
4.31
2.88
1.75
0.91
0.24
-0.50
-1.57
-3.14
-5.20
-7.57
-9.90
-11.85
-13.20
-13.90
-14.08
-13.98
-13.78
-13.62
-13.51
-13.37
-13.04
-12.39
-11.30
-9.77
-7.97
-6.12
-4.50
-3.30
-2.58
-2.30
-2.37
-2.69
-3.21
-3.84
-4.46
-4.94
-5.14
-5.00
-4.61
-4.15
-3.81
-3.76
-4.00
-4.43
-4.87
-5.13
-5.05
-4.53
-3.58
-2.27
-0.76
0.74
2.03
2.98
3.56
3.79
3.78
3.59
3.25
2.72
2.00
1.12
0.16
-0.81
-1.72
-2.60
-3.52
-4.57
-5.79
-7.11
-8.42
-9.52
-10.24
-10.45
-10.11
-9.29
-8.08
-6.59
-4.92
-3.12
-1.29
0.52
2.19
3.63
4.79
5.66
6.28
6.68
6.85
6.78
6.45
5.95
5.43
5.09
5.07
5.33
5.76
6.17
6.43
6.54
6.56
6.56
6.50
6.29
5.82
5.07
4.16
3.28
2.58
2.10
1.75
1.36
0.83
0.16
-0.56
-1.21
-1.70
-2.04
-2.31
-2.64
-3.17
-3.95
-4.97
-6.10
-7.13
-7.84
-8.11
-7.89
-7.26
-6.32
-5.16
-3.81
-2.26
-0.54
1.26
3.01
4.60
5.98
7.18
8.27
9.27
10.17
10.90
11.37
11.59
11.61
11.53
11.43
11.31
11.12
10.75
10.12
9.22
8.13
6.96
5.84
4.82
3.87
2.93
1.95
1.00
0.20
-0.29
-0.38
-0.13
0.29
0.63
0.66
0.31
-0.36
-1.18
-1.95
-2.54
-2.93
-3.17
-3.38
-3.66
-4.07
-4.55
-4.98
-5.15
-4.84
-3.95
-2.55
-0.87
0.75
2.00
2.77
3.08
3.13
3.11
3.13
3.19
3.16
2.89
2.29
1.33
0.06
-1.43
-3.01
-4.50
-5.74
-6.57
-6.89
-6.71
-6.14
-5.34
-4.49
-3.74
-3.14
-2.69
-2.35
-2.07
-1.81
-1.55
-1.29
-1.06
-0.89
-0.84
-0.93
-1.17
-1.50
-1.82
-2.07
-2.28
-2.55
-3.04
-3.86
-4.99
-6.29
-7.54
-8.56
-9.21
-9.43
-9.22
-8.60
-7.58
-6.24
-4.69
-3.04
-1.43
0.06
1.41
2.63
3.72
4.65
5.39
5.84
5.93
5.62
4.93
3.96
2.91
1.99
1.36
1.07
1.09
1.33
1.70
2.16
2.69
3.25
3.72
3.93
3.79
3.31
2.63
1.94
1.40
1.05
0.79
0.48
0.03
-0.54
-1.14
-1.64
-2.00
-2.30
-2.69
-3.31
-4.17
-5.17
-6.16
-7.02
-7.72
-8.36
-9.01
-9.69
-10.25
-10.49
-10.20
-9.32
-7.89
-6.10
-4.14
-2.23
-0.54
0.77
1.60
1.91
1.82
1.54
1.29
1.29
1.58
2.09
2.65
3.13
3.46
3.61
3.65
3.60
3.51
3.41
3.33
3.26
3.24
3.24
3.24
3.20
3.09
2.90
2.66
2.39
2.11
1.87
1.69
1.59
1.53
1.46
1.29
0.96
0.47
-0.12
-0.72
-1.26
-1.73
-2.21
-2.77
-3.47
-4.27
-5.08
-5.79
-6.37
-6.84
-7.25
-7.66
-7.98
-8.11
-7.91
-7.35
-6.49
-5.51
-4.56
-3.77
-3.11
-2.46
-1.64
-0.50
1.04
2.93
5.01
7.02
8.67
9.69
9.86
9.10
7.45
5.11
2.42
-0.23
-2.42
-3.85
-4.34
-3.86
-2.55
-0.66
1.47
3.46
4.94
5.60
5.28
3.98
1.92
-0.52
-2.93
-4.98
-6.53
-7.61
-8.38
-8.96
-9.38
-9.60
-9.54
-9.22
-8.76
-8.35
-8.16
-8.18
-8.25
-8.10
-7.53
-6.48
-5.05
-3.43
-1.77
-0.15
1.47
3.12
4.78
6.36
7.66
8.52
8.83
8.64
8.05
7.26
6.47
5.84
5.47
5.43
5.68
6.20
6.93
7.85
8.91
10.07
11.21
12.20
12.88
13.13
12.89
12.17
11.08
9.77
8.48
7.39
6.67
6.32
6.23
6.18
5.92
5.33
4.37
3.16
1.78
0.31
-1.23
-2.86
-4.49
-6.03
-7.35
-8.41
-9.24
-9.97
-10.71
-11.51
-12.25
-12.75
-12.82
-12.34
-11.32
-9.87
-8.19
-6.47
-4.85
-3.46
-2.32
-1.44
-0.81
-0.39
-0.14
0.01
0.11
0.23
0.44
0.78
1.25
1.81
2.35
2.77
2.99
3.00
2.91
2.80
2.75
2.77
2.75
2.59
2.18
1.52
0.66
-0.32
-1.32
-2.28
-3.15
-3.89
-4.46
-4.83
-5.01
-5.04
-5.01
-5.07
-5.34
-5.91
-6.82
-7.96
-9.13
-10.04
-10.44
-10.18
-9.29
-7.92
-6.32
-4.68
-3.13
-1.65
-0.22
1.18
2.50
3.61
4.43
4.89
5.01
4.88
4.61
4.28
4.00
3.83
3.82
3.96
4.21
4.46
4.59
4.54
4.28
3.90
3.51
3.20
3.03
3.01
3.15
3.43
3.82
4.28
4.73
5.04
5.13
4.97
4.59
4.11
3.62
3.19
2.80
2.35
1.72
0.84
-0.31
-1.64
-2.96
-4.07
-4.77
-4.94
-4.58
-3.79
-2.77
-1.73
-0.81
-0.10
0.44
0.92
1.43
2.00
2.60
3.12
3.46
3.59
3.51
3.31
3.11
3.00
3.04
3.21
3.47
3.75
4.00
4.19
4.29
4.30
4.17
3.89
3.43
2.87
2.28
1.82
1.59
1.58
1.68
1.69
1.43
0.84
0.01
-0.85
-1.52
-1.87
-1.89
-1.70
-1.52
-1.51
-1.81
-2.43
-3.27
-4.18
-4.91
-5.23
-4.95
-4.02
-2.56
-0.84
0.83
2.17
3.04
3.46
3.54
3.44
3.32
3.28
3.37
3.58
3.87
4.16
4.39
4.52
4.56
4.57
4.58
4.58
4.57
4.50
4.36
4.18
3.98
3.76
3.50
3.13
2.67
2.15
1.68
1.34
1.14
0.99
0.79
0.44
-0.06
-0.65
-1.27
-1.88
-2.48
-3.10
-3.77
-4.47
-5.14
-5.72
-6.19
-6.52
-6.71
-6.72
-6.49
-5.95
-5.05
-3.83
-2.41
-0.99
0.23
1.07
1.48
1.48
1.24
0.94
0.74
0.77
1.02
1.43
1.90
2.28
2.52
2.57
2.48
2.34
2.23
2.20
2.29
2.49
2.76
3.07
3.37
3.60
3.68
3.54
3.14
2.50
1.68
0.80
-0.03
-0.74
-1.30
-1.79
-2.32
-3.01
-3.93
-5.06
-6.28
-7.42
-8.32
-8.86
-8.98
-8.68
-7.97
-6.90
-5.57
-4.08
-2.55
-1.09
0.24
1.43
2.44
3.25
3.81
4.13
4.25
4.26
4.25
4.26
4.30
4.32
4.29
4.24
4.20
4.23
4.34
4.51
4.66
4.68
4.47
3.96
3.12
2.01
0.78
-0.43
-1.48
-2.30
-2.90
-3.35
-3.75
-4.16
-4.61
-5.07
-5.53
-5.95
-6.35
-6.75
-7.21
-7.75
-8.36
-8.96
-9.41
-9.52
-9.15
-8.26
-6.88
-5.18
-3.35
-1.59
-0.03
1.30
2.39
3.29
4.03
4.61
4.99
5.13
4.98
4.58
3.98
3.27
2.55
1.89
1.32
0.85
0.47
0.17
-0.03
-0.09
0.02
0.31
0.71
1.12
1.35
1.30
0.96
0.46
-0.01
-0.28
-0.27
-0.00
0.44
0.98
1.52
1.98
2.21
2.06
1.45
0.40
-0.93
-2.30
-3.48
-4.32
-4.77
-4.83
-4.50
-3.79
-2.71
-1.32
0.28
1.97
3.58
4.95
5.92
6.43
6.48
6.23
5.89
5.67
5.65
5.82
6.08
6.33
6.53
6.65
6.71
6.67
6.48
6.10
5.56
4.93
4.32
3.78
3.30
2.87
2.43
1.96
1.43
0.88
0.29
-0.30
-0.88
-1.44
-1.98
-2.54
-3.20
-4.01
-5.05
-6.26
-7.55
-8.76
-9.72
-10.26
-10.32
-9.85
-8.95
-7.76
-6.43
-5.07
-3.71
-2.37
-1.03
0.27
1.41
2.25
2.68
2.71
2.45
2.08
1.78
1.70
1.88
2.30
2.87
3.47
3.96
4.24
4.29
4.18
4.03
3.94
3.92
3.94
3.90
3.71
3.33
2.76
2.03
1.15
0.11
-1.01
-2.11
-3.02
-3.60
-3.83
-3.81
-3.75
-3.90
-4.38
-5.16
-6.05
-6.80
-7.20
-7.11
-6.55
-5.60
-4.41
-3.09
-1.71
-0.34
0.94
2.06
2.95
3.57
3.91
4.07
4.13
4.22
4.36
4.57
4.78
4.95
5.06
5.16
5.32
5.57
5.88
6.19
6.39
6.41
6.23
5.85
5.34
4.74
4.09
3.45
2.87
2.38
1.99
1.64
1.23
0.70
-0.02
-0.89
-1.84
-2.76
-3.57
-4.18
-4.57
-4.80
-4.98
-5.26
-5.78
-6.59
-7.59
-8.57
-9.28
-9.52
-9.23
-8.46
-7.33
-5.94
-4.37
-2.70
-1.04
0.44
1.60
2.31
2.60
2.56
2.37
2.19
2.11
2.12
2.21
2.33
2.46
2.62
2.82
3.08
3.40
3.75
4.08
4.35
4.51
4.50
4.31
3.96
3.46
2.87
2.23
1.60
1.04
0.57
0.20
-0.07
-0.30
-0.53
-0.79
-1.08
-1.44
-1.87
-2.41
-3.06
-3.78
-4.48
-5.13
-5.72
-6.33
-7.07
-7.99
-9.03
-10.02
-10.74
-10.98
-10.61
-9.63
-8.15
-6.37
-4.52
-2.81
-1.40
-0.30
0.55
1.29
2.03
2.81
3.61
4.34
4.88
5.19
5.30
5.25
5.14
5.06
5.08
5.20
5.43
5.72
6.04
6.31
6.49
6.55
6.50
6.34
6.07
5.70
5.21
4.64
4.06
3.55
3.16
2.89
2.68
2.48
2.24
1.99
1.78
1.69
1.70
1.77
1.79
1.66
1.32
0.74
-0.06
-1.09
-2.34
-3.78
-5.32
-6.83
-8.14
-9.09
-9.57
-9.52
-8.92
-7.79
-6.22
-4.35
-2.43
-0.68
0.69
1.63
2.17
2.46
2.60
2.67
2.68
2.63
2.57
2.54
2.60
2.77
3.06
3.47
3.99
4.60
5.25
5.78
6.07
5.97
5.47
4.66
3.67
2.63
1.64
0.69
-0.23
-1.14
-2.01
-2.79
-3.44
-3.94
-4.31
-4.59
-4.82
-5.03
-5.18
-5.22
-5.07
-4.71
-4.14
-3.47
-2.82
-2.32
-2.02
-1.92
-1.94
-1.97
-1.91
-1.72
-1.37
-0.88
-0.23
0.60
1.63
2.85
4.17
5.43
6.45
7.04
7.13
6.77
6.09
5.29
4.52
3.87
3.34
2.93
2.65
2.54
2.62
2.87
3.21
3.52
3.68
3.62
3.32
2.86
2.29
1.73
1.23
0.81
0.46
0.13
-0.25
-0.73
-1.32
-2.01
-2.74
-3.46
-4.17
-4.91
-5.72
-6.62
-7.57
-8.46
-9.13
-9.45
-9.32
-8.72
-7.71
-6.41
-4.98
-3.57
-2.28
-1.19
-0.32
0.31
0.72
0.91
0.93
0.82
0.69
0.60
0.62
0.75
0.97
1.24
1.56
1.95
2.41
2.91
3.35
3.61
3.62
3.41
3.08
2.76
2.54
2.41
2.26
1.98
1.51
0.90
0.22
-0.40
-0.92
-1.36
-1.76
-2.15
-2.55
-2.94
-3.33
-3.74
-4.19
-4.72
-5.28
-5.81
-6.20
-6.34
-6.14
-5.54
-4.54
-3.18
-1.58
0.06
1.54
2.68
3.41
3.80
3.99
4.13
4.31
4.49
4.58
4.49
4.24
3.93
3.73
3.75
4.01
4.42
4.81
5.09
5.23
5.26
5.26
5.23
5.16
4.97
4.64
4.17
3.63
3.08
2.57
2.07
1.50
0.83
0.03
-0.88
-1.86
-2.86
-3.85
-4.82
-5.73
-6.60
-7.39
-8.09
-8.65
-8.99
-8.99
-8.54
-7.62
-6.31
-4.79
-3.26
-1.87
-0.68
0.35
1.26
2.05
2.65
2.96
2.92
2.58
2.07
1.58
1.26
1.16
1.24
1.38
1.47
1.45
1.32
1.10
0.79
0.37
-0.19
-0.85
-1.54
-2.13
-2.50
-2.59
-2.38
-1.91
-1.22
-0.37
0.57
1.51
2.33
2.92
3.23
3.28
3.14
2.88
2.57
2.22
1.79
1.21
0.40
-0.69
-2.07
-3.62
-5.13
-6.36
-7.07
-7.16
-6.69
-5.83
-4.78
-3.70
-2.69
-1.76
-0.93
-0.19
0.44
0.99
1.48
1.96
2.43
2.89
3.34
3.85
4.49
5.35
6.37
7.43
8.33
8.98
9.38
9.62
9.79
9.89
9.78
9.32
8.44
7.22
5.82
4.43
3.15
1.95
0.75
-0.51
-1.82
-3.06
-4.10
-4.84
-5.24
-5.39
-5.41
-5.45
-5.65
-6.03
-6.58
-7.20
-7.85
-8.51
-9.19
-9.89
-10.54
-10.94
-10.88
-10.20
-8.85
-7.00
-4.92
-2.89
-1.07
0.50
1.86
3.07
4.10
4.84
5.20
5.16
4.82
4.34
3.90
3.62
3.50
3.51
3.61
3.77
3.97
4.20
4.39
4.41
4.16
3.54
2.55
1.30
-0.07
-1.36
-2.45
-3.25
-3.77
-4.08
-4.29
-4.46
-4.65
-4.82
-4.90
-4.82
-4.52
-4.00
-3.32
-2.59
-1.95
-1.51
-1.39
-1.58
-2.08
-2.77
-3.52
-4.15
-4.52
-4.50
-4.04
-3.17
-1.98
-0.65
0.68
1.84
2.72
3.29
3.56
3.59
3.43
3.11
2.65
2.06
1.38
0.67
0.03
-0.47
-0.74
-0.72
-0.44
0.04
0.61
1.17
1.62
1.95
2.25
2.58
3.00
3.43
3.74
3.74
3.35
2.60
1.63
0.61
-0.34
-1.24
-2.14
-3.09
-4.08
-5.00
-5.70
-6.11
-6.24
-6.16
-6.00
-5.82
-5.66
-5.55
-5.49
-5.52
-5.63
-5.76
-5.79
-5.57
-4.97
-3.95
-2.52
-0.82
1.01
2.84
4.56
6.10
7.42
8.47
9.24
9.72
9.90
9.82
9.50
8.98
8.26
7.29
6.01
4.40
2.51
0.51
-1.32
-2.73
-3.56
-3.81
-3.63
-3.27
-2.90
-2.61
-2.34
-1.99
-1.47
-0.72
0.24
1.37
2.59
3.76
4.73
5.36
5.54
5.27
4.59
3.62
2.48
1.30
0.22
-0.68
-1.34
-1.81
-2.19
-2.63
-3.25
-4.08
-5.02
-5.91
-6.54
-6.79
-6.60
-5.98
-5.03
-3.84
-2.54
-1.21
0.10
1.34
2.50
3.57
4.56
5.48
6.32
7.01
7.42
7.36
6.67
5.27
3.25
0.84
-1.63
-3.83
-5.54
-6.66
-7.25
-7.39
-7.22
-6.87
-6.42
-5.94
-5.43
-4.81
-3.98
-2.89
-1.57
-0.17
1.10
2.04
2.62
2.94
3.22
3.70
4.52
5.78
7.47
9.50
11.64
13.55
14.74
14.69
13.05
9.77
5.23
0.12
-4.70
-8.49
-10.83
-11.70
-11.38
-10.29
-8.85
-7.35
-5.94
-4.78
-3.95
-3.58
-3.67
-4.12
-4.67
-5.03
-4.98
-4.48
-3.60
-2.52
-1.37
-0.21
0.98
2.24
3.54
4.77
5.76
6.33
6.36
5.84
4.87
3.65
2.36
1.18
0.14
-0.79
-1.68
-2.58
-3.46
-4.19
-4.62
-4.62
-4.14
-3.29
-2.24
-1.22
-0.44
-0.07
-0.24
-0.99
-2.33
-4.16
-6.31
-8.48
-10.26
-11.33
-11.47
-10.70
-9.32
-7.72
-6.28
-5.25
-4.65
-4.37
-4.25
-4.17
-4.11
-4.07
-3.98
-3.74
-3.18
-2.22
-0.92
0.52
1.86
2.92
3.66
4.21
4.72
5.28
5.86
6.36
6.65
6.72
6.61
6.44
6.28
6.12
5.93
5.64
5.25
4.85
4.56
4.52
4.82
5.50
6.50
7.69
8.91
9.98
10.69
10.86
10.39
9.24
7.55
5.56
3.60
2.00
0.99
0.62
0.80
1.30
1.90
2.36
2.52
2.31
1.74
0.92
0.03
-0.75
-1.30
-1.55
-1.59
-1.50
-1.42
-1.40
-1.42
-1.43
-1.39
-1.29
-1.18
-1.12
-1.20
-1.42
-1.78
-2.22
-2.70
-3.19
-3.66
-4.09
-4.47
-4.83
-5.21
-5.67
-6.24
-6.93
-7.66
-8.34
-8.88
-9.27
-9.54
-9.79
-10.10
-10.49
-10.87
-11.09
-11.04
-10.59
-9.74
-8.55
-7.15
-5.65
-4.17
-2.77
-1.48
-0.34
0.61
1.32
1.78
1.99
2.02
1.95
1.87
1.86
1.99
2.32
2.93
3.89
5.23
6.90
8.72
10.38
11.55
11.98
11.55
10.36
8.63
6.67
4.71
2.88
1.24
-0.20
-1.38
-2.19
-2.55
-2.48
-2.08
-1.61
-1.34
-1.51
-2.23
-3.43
-4.99
-6.72
-8.49
-10.21
-11.81
-13.19
-14.19
-14.66
-14.52
-13.78
-12.60
-11.17
-9.65
-8.09
-6.50
-4.86
-3.21
-1.68
-0.41
0.54
1.22
1.78
2.40
3.17
4.06
4.95
5.74
6.31
6.68
6.89
7.02
7.16
7.31
7.46
7.55
7.50
7.24
6.75
6.09
5.36
4.66
4.10
3.71
3.49
3.37
3.27
3.12
2.88
2.58
2.25
1.92
1.57
1.10
0.42
-0.55
-1.72
-2.95
-4.02
-4.72
-4.96
-4.75
-4.16
-3.32
-2.30
-1.15
0.08
1.34
2.54
3.59
4.37
4.83
5.00
4.94
4.73
4.46
4.16
3.87
3.58
3.33
3.15
3.06
3.02
3.00
2.95
2.85
2.74
2.67
2.65
2.68
2.70
2.65
2.49
2.25
1.99
1.79
1.72
1.86
2.23
2.83
3.59
4.40
5.11
5.58
5.72
5.47
4.83
3.82
2.49
0.93
-0.77
-2.50
-4.14
-5.57
-6.71
-7.49
-7.87
-7.85
-7.43
-6.66
-5.61
-4.36
-2.98
-1.56
-0.17
1.10
2.15
2.90
3.30
3.34
3.10
2.71
2.29
1.92
1.66
1.47
1.37
1.33
1.38
1.53
1.75
1.97
2.10
2.08
1.89
1.55
1.13
0.73
0.47
0.44
0.70
1.23
1.90
2.55
2.98
3.10
2.90
2.47
1.96
1.50
1.13
0.88
0.74
0.65
0.53
0.23
-0.42
-1.52
-3.05
-4.81
-6.52
-7.95
-8.97
-9.68
-10.21
-10.70
-11.06
-11.11
-10.55
-9.16
-6.93
-4.08
-1.00
1.90
4.31
6.11
7.48
8.74
10.30
12.48
15.41
19.06
23.25
27.67
31.95
35.61
38.16
39.19
38.58
36.52
33.52
30.17
26.92
23.95
21.15
18.32
15.34
12.22
9.11
6.14
3.31
0.51
-2.38
-5.41
-8.52
-11.57
-14.43
-17.01
-19.34
-21.49
-23.46
-25.21
-26.61
-27.55
-27.96
-27.81
-27.15
-26.08
-24.69
-23.11
-21.46
-19.79
-18.11
-16.39
-14.53
-12.45
-10.09
-7.46
-4.61
-1.67
1.23
3.94
6.34
8.32
9.82
10.80
11.23
11.10
10.45
9.43
8.28
7.32
6.84
7.02
7.80
8.97
10.21
11.21
11.79
11.83
11.31
10.26
8.78
7.04
5.25
3.69
2.52
1.77
1.32
0.94
0.39
-0.49
-1.73
-3.29
-5.06
-6.94
-8.84
-10.63
-12.21
-13.45
-14.26
-14.65
-14.68
-14.52
-14.34
-14.27
-14.31
-14.40
-14.39
-14.13
-13.52
-12.55
-11.23
-9.58
-7.67
-5.55
-3.34
-1.18
0.79
2.48
3.83
4.83
5.48
5.77
5.69
5.26
4.56
3.71
2.85
2.10
1.54
1.21
1.07
1.07
1.15
1.27
1.44
1.70
2.08
2.56
3.02
3.32
3.33
3.03
2.55
2.07
1.78
1.74
1.87
2.03
2.11
2.09
2.03
2.02
2.10
2.17
2.07
1.63
0.72
-0.65
-2.41
-4.43
-6.52
-8.49
-10.16
-11.34
-11.88
-11.75
-10.97
-9.71
-8.14
-6.49
-4.92
-3.54
-2.39
-1.46
-0.66
0.07
0.78
1.45
2.02
2.40
2.52
2.36
2.00
1.61
1.34
1.30
1.51
1.90
2.35
2.74
2.98
3.07
3.03
2.93
2.80
2.68
2.57
2.49
2.42
2.39
2.39
2.37
2.33
2.20
1.96
1.58
1.06
0.41
-0.33
-1.12
-1.92
-2.80
-3.81
-5.06
-6.53
-8.11
-9.54
-10.57
-10.99
-10.78
-10.09
-9.10
-8.00
-6.84
-5.58
-4.19
-2.69
-1.24
-0.02
0.82
1.27
1.43
1.49
1.61
1.88
2.31
2.83
3.32
3.67
3.83
3.77
3.58
3.38
3.28
3.35
3.56
3.78
3.88
3.79
3.50
3.07
2.57
2.04
1.47
0.84
0.14
-0.58
-1.22
-1.69
-1.93
-1.94
-1.78
-1.59
-1.49
-1.61
-2.10
-3.03
-4.41
-6.15
-8.06
-9.86
-11.22
-11.86
-11.63
-10.53
-8.79
-6.72
-4.67
-2.85
-1.34
-0.12
0.85
1.61
2.16
2.52
2.74
2.96
3.27
3.73
4.31
4.91
5.42
5.77
5.92
5.88
5.71
5.50
5.36
5.37
5.55
5.80
5.95
5.86
5.47
4.85
4.16
3.54
3.07
2.74
2.53
2.40
2.34
2.36
2.46
2.63
2.79
2.85
2.75
2.41
1.80
0.90
-0.27
-1.65
-3.17
-4.73
-6.24
-7.62
-8.75
-9.49
-9.68
-9.21
-8.03
-6.32
-4.35
-2.49
-1.01
-0.01
0.64
1.19
1.85
2.72
3.73
4.71
5.48
5.97
6.20
6.27
6.29
6.28
6.22
6.06
5.75
5.30
4.82
4.45
4.28
4.29
4.35
4.26
3.91
3.28
2.50
1.73
1.09
0.58
0.11
-0.40
-0.98
-1.52
-1.93
-2.12
-2.12
-2.05
-2.04
-2.15
-2.41
-2.77
-3.19
-3.66
-4.17
-4.75
-5.40
-6.03
-6.54
-6.77
-6.62
-6.04
-5.09
-3.94
-2.77
-1.76
-0.98
-0.43
-0.05
0.21
0.38
0.45
0.44
0.43
0.51
0.76
1.21
1.81
2.49
3.16
3.76
4.26
4.65
4.90
4.97
4.84
4.55
4.12
3.61
3.09
2.57
2.07
1.58
1.13
0.75
0.49
0.37
0.41
0.58
0.85
1.18
1.57
2.00
2.47
2.94
3.33
3.50
3.31
2.68
1.60
0.19
-1.34
-2.73
-3.73
-4.17
-4.00
-3.28
-2.14
-0.74
0.75
2.19
3.48
4.49
5.11
5.27
4.94
4.19
3.19
2.16
1.31
0.78
0.60
0.69
0.95
1.21
1.38
1.33
1.02
0.49
-0.14
-0.71
-1.07
-1.20
-1.20
-1.26
-1.59
-2.27
-3.21
-4.15
-4.83
-5.04
-4.73
-4.02
-3.04
-1.92
-0.71
0.62
2.08
3.66
5.23
6.61
7.60
8.03
7.83
7.00
5.62
3.82
1.76
-0.42
-2.56
-4.52
-6.18
-7.50
-8.49
-9.23
-9.78
-10.18
-10.36
-10.23
-9.67
-8.67
-7.33
-5.81
-4.31
-2.98
-1.82
-0.78
0.29
1.51
2.90
4.36
5.71
6.74
7.31
7.42
7.17
6.70
6.09
5.31
4.23
2.76
0.92
-1.14
-3.14
-4.79
-5.89
-6.37
-6.32
-5.87
-5.16
-4.23
-3.10
-1.76
-0.24
1.33
2.80
4.02
4.93
5.57
6.06
6.47
6.87
7.23
7.53
7.80
8.07
8.41
8.82
9.20
9.40
9.28
8.76
7.89
6.79
5.61
4.46
3.38
2.38
1.48
0.70
0.11
-0.21
-0.19
0.20
0.94
1.96
3.13
4.26
5.22
5.95
6.49
6.99
7.60
8.41
9.40
10.45
11.48
12.45
13.36
14.25
15.07
15.67
15.82
15.33
14.09
12.15
9.64
6.77
3.70
0.55
-2.63
-5.76
-8.79
-11.60
-14.07
-16.07
-17.50
-18.28
-18.43
-17.96
-16.98
-15.57
-13.86
-11.98
-10.11
-8.46
-7.23
-6.55
-6.36
-6.49
-6.63
-6.51
-5.99
-5.12
-4.12
-3.25
-2.74
-2.65
-2.94
-3.45
-3.99
-4.45
-4.79
-5.03
-5.27
-5.57
-5.98
-6.48
-6.99
-7.41
-7.69
-7.79
-7.72
-7.50
-7.16
-6.67
-6.00
-5.15
-4.15
-3.12
-2.22
-1.60
-1.31
-1.35
-1.62
-2.02
-2.49
-3.04
-3.66
-4.33
-4.91
-5.24
-5.17
-4.65
-3.77
-2.71
-1.60
-0.48
0.67
1.91
3.22
4.46
5.39
5.85
5.79
5.40
4.97
4.78
4.99
5.54
6.25
6.86
7.21
7.25
7.07
6.80
6.52
6.24
5.89
5.40
4.74
4.01
3.32
2.81
2.51
2.35
2.21
2.01
1.70
1.34
0.97
0.64
0.31
-0.11
-0.70
-1.49
-2.49
-3.65
-4.92
-6.25
-7.52
-8.59
-9.27
-9.42
-9.02
-8.12
-6.89
-5.52
-4.17
-2.92
-1.85
-0.98
-0.28
0.28
0.77
1.29
1.90
2.61
3.37
4.08
4.68
5.13
5.41
5.50
5.38
5.03
4.46
3.78
3.10
2.52
2.10
1.78
1.45
1.00
0.38
-0.38
-1.15
-1.77
-2.13
-2.17
-1.97
-1.63
-1.30
-1.07
-0.90
-0.68
-0.30
0.32
1.14
1.99
2.61
2.71
2.08
0.64
-1.46
-3.86
-6.06
-7.57
-8.09
-7.61
-6.38
-4.81
-3.27
-1.99
-1.02
-0.27
0.34
0.85
1.29
1.64
1.88
1.95
1.75
1.19
0.26
-0.95
-2.21
-3.24
-3.84
-3.94
-3.60
-2.99
-2.23
-1.45
-0.73
-0.15
0.24
0.36
0.25
0.02
-0.19
-0.23
-0.08
0.18
0.37
0.29
-0.21
-1.20
-2.62
-4.29
-5.98
-7.50
-8.69
-9.53
-10.11
-10.54
-10.94
-11.37
-11.83
-12.28
-12.63
-12.77
-12.60
-12.05
-11.11
-9.88
-8.52
-7.23
-6.13
-5.27
-4.58
-3.89
-3.07
-1.99
-0.61
1.06
2.99
5.09
7.25
9.36
11.28
12.93
14.29
15.36
16.17
16.71
16.96
16.91
16.58
16.08
15.54
15.12
14.86
14.68
14.40
13.88
13.07
12.07
11.02
10.05
9.17
8.31
7.39
6.37
5.30
4.25
3.26
2.29
1.30
0.29
-0.63
-1.26
-1.43
-1.12
-0.44
0.38
1.07
1.50
1.59
1.38
0.95
0.42
-0.08
-0.43
-0.52
-0.34
0.04
0.45
0.72
0.73
0.49
0.09
-0.33
-0.64
-0.80
-0.86
-0.89
-0.96
-1.15
-1.42
-1.74
-2.03
-2.24
-2.33
-2.31
-2.18
-1.98
-1.76
-1.56
-1.50
-1.67
-2.09
-2.67
-3.28
-3.78
-4.12
-4.36
-4.65
-5.09
-5.64
-6.11
-6.29
-6.05
-5.39
-4.47
-3.46
-2.48
-1.53
-0.58
0.40
1.35
2.22
2.93
3.46
3.84
4.11
4.27
4.32
4.20
3.93
3.54
3.06
2.55
1.99
1.38
0.76
0.19
-0.20
-0.28
-0.06
0.39
0.84
1.04
0.83
0.18
-0.79
-1.88
-2.92
-3.84
-4.64
-5.39
-6.12
-6.81
-7.34
-7.62
-7.59
-7.30
-6.94
-6.71
-6.77
-7.12
-7.65
-8.15
-8.43
-8.37
-7.98
-7.34
-6.50
-5.51
-4.38
-3.14
-1.84
-0.60
0.47
1.29
1.81
2.08
2.16
2.12
2.03
1.91
1.79
1.72
1.72
1.86
2.17
2.67
3.33
4.08
4.83
5.50
6.06
6.53
6.97
7.47
8.08
8.78
9.51
10.16
10.64
10.90
10.97
10.90
10.78
10.62
10.38
9.99
9.35
8.46
7.38
6.28
5.32
4.58
4.04
3.56
2.97
2.14
1.05
-0.25
-1.67
-3.07
-4.37
-5.54
-6.62
-7.66
-8.70
-9.72
-10.60
-11.22
-11.44
-11.24
-10.70
-9.93
-9.03
-8.06
-7.04
-5.96
-4.88
-3.93
-3.22
-2.80
-2.63
-2.56
-2.41
-2.02
-1.35
-0.41
0.69
1.79
2.75
3.48
3.98
4.31
4.57
4.83
5.11
5.36
5.53
5.59
5.56
5.52
5.50
5.47
5.32
4.92
4.20
3.17
1.95
0.65
-0.64
-1.87
-3.02
-4.09
-5.04
-5.82
-6.44
-6.95
-7.42
-7.89
-8.31
-8.58
-8.59
-8.28
-7.71
-6.98
-6.20
-5.41
-4.55
-3.55
-2.38
-1.09
0.14
1.16
1.85
2.23
2.37
2.41
2.43
2.47
2.54
2.68
2.92
3.27
3.70
4.14
4.55
4.94
5.37
5.88
6.44
6.95
7.26
7.27
6.99
6.52
6.01
5.60
5.34
5.24
5.33
5.64
6.23
7.10
8.15
9.22
10.11
10.63
10.57
9.73
7.96
5.18
1.50
-2.78
-7.23
-11.39
-14.85
-17.32
-18.64
-18.78
-17.82
-15.96
-13.52
-10.87
-8.36
-6.21
-4.49
-3.13
-1.99
-0.99
-0.05
0.86
1.73
2.54
3.22
3.64
3.69
3.30
2.50
1.45
0.36
-0.58
-1.23
-1.56
-1.59
-1.40
-1.06
-0.62
-0.13
0.32
0.61
0.66
0.40
-0.10
-0.73
-1.35
-1.84
-2.21
-2.49
-2.74
-2.95
-3.07
-3.03
-2.85
-2.64
-2.55
-2.72
-3.11
-3.59
-3.90
-3.80
-3.17
-2.01
-0.44
1.36
3.16
4.80
6.12
7.06
7.63
7.85
7.78
7.49
7.02
6.44
5.87
5.41
5.18
5.21
5.45
5.78
6.09
6.31
6.46
6.55
6.59
6.50
6.13
5.40
4.30
2.93
1.46
0.03
-1.31
-2.60
-3.87
-5.10
-6.20
-7.04
-7.51
-7.65
-7.60
-7.56
-7.69
-8.04
-8.50
-8.93
-9.18
-9.21
-9.10
-8.95
-8.84
-8.71
-8.43
-7.84
-6.88
-5.63
-4.25
-2.90
-1.67
-0.54
0.55
1.60
2.55
3.29
3.73
3.84
3.71
3.47
3.26
3.17
3.25
3.48
3.82
4.19
4.52
4.70
4.66
4.41
3.98
3.45
2.90
2.41
1.98
1.63
1.34
1.11
0.92
0.75
0.53
0.18
-0.39
-1.19
-2.14
-3.09
-3.90
-4.49
-4.88
-5.19
-5.54
-5.99
-6.49
-6.88
-6.97
-6.60
-5.74
-4.42
-2.77
-0.93
0.94
2.71
4.23
5.39
6.09
6.25
5.88
5.03
3.88
2.64
1.51
0.69
0.24
0.14
0.28
0.51
0.68
0.72
0.63
0.51
0.49
0.65
1.01
1.54
2.20
2.97
3.86
4.84
5.83
6.72
7.39
7.83
8.06
8.21
8.32
8.38
8.28
7.90
7.17
6.07
4.64
2.92
0.94
-1.24
-3.46
-5.46
-6.91
-7.56
-7.34
-6.46
-5.28
-4.18
-3.39
-2.93
-2.69
-2.48
-2.24
-1.97
-1.77
-1.68
-1.67
-1.70
-1.72
-1.76
-1.86
-2.04
-2.24
-2.31
-2.12
-1.59
-0.81
0.04
0.75
1.18
1.28
1.15
0.91
0.75
0.77
1.00
1.38
1.83
2.23
2.54
2.74
2.86
2.90
2.84
2.61
2.19
1.54
0.69
-0.31
-1.43
-2.66
-4.01
-5.42
-6.81
-8.00
-8.79
-9.07
-8.80
-8.08
-7.09
-6.02
-5.04
-4.21
-3.52
-2.89
-2.26
-1.60
-0.98
-0.53
-0.38
-0.59
-1.07
-1.63
-1.96
-1.87
-1.31
-0.39
0.64
1.58
2.37
3.08
3.81
4.61
5.38
5.95
6.19
6.09
5.79
5.48
5.29
5.19
5.03
4.59
3.81
2.72
1.50
0.31
-0.71
-1.53
-2.18
-2.73
-3.29
-3.97
-4.88
-6.06
-7.46
-8.92
-10.18
-11.01
-11.21
-10.71
-9.52
-7.77
-5.64
-3.40
-1.30
0.48
1.90
3.08
4.20
5.41
6.75
8.14
9.47
10.66
11.76
12.84
13.96
15.08
16.01
16.46
16.22
15.23
13.64
11.76
9.99
8.66
7.94
7.80
8.02
8.31
8.39
8.12
7.44
6.39
5.00
3.31
1.35
-0.82
-3.01
-5.00
-6.55
-7.46
-7.69
-7.33
-6.57
-5.69
-4.95
-4.54
-4.56
-5.01
-5.75
-6.60
-7.33
-7.77
-7.83
-7.53
-6.95
-6.22
-5.40
-4.49
-3.46
-2.24
-0.79
0.86
2.59
4.21
5.49
6.23
6.33
5.81
4.81
3.56
2.32
1.28
0.51
-0.02
-0.46
-0.94
-1.59
-2.40
-3.26
-4.05
-4.65
-4.99
-5.15
-5.23
-5.39
-5.77
-6.44
-7.37
-8.42
-9.38
-10.03
-10.22
-9.90
-9.18
-8.29
-7.47
-6.95
-6.87
-7.24
-8.02
-9.02
-9.99
-10.65
-10.72
-10.03
-8.56
-6.46
-4.01
-1.47
0.96
3.19
5.17
6.89
8.28
9.31
10.01
10.49
10.90
11.33
11.78
12.10
12.12
11.79
11.22
10.67
10.38
10.47
10.85
11.27
11.49
11.32
10.73
9.80
8.66
7.45
6.29
5.25
4.35
3.55
2.79
1.93
0.87
-0.40
-1.84
-3.31
-4.63
-5.70
-6.43
-6.83
-6.94
-6.84
-6.61
-6.32
-6.01
-5.70
-5.37
-4.96
-4.44
-3.83
-3.24
-2.77
-2.51
-2.46
-2.53
-2.59
-2.54
-2.37
-2.08
-1.69
-1.17
-0.50
0.36
1.37
2.45
3.49
4.47
5.37
6.25
7.12
7.91
8.50
8.73
8.48
7.68
6.40
4.79
3.04
1.38
0.01
-0.95
-1.49
-1.71
-1.79
-1.90
-2.15
-2.51
-2.90
-3.21
-3.36
-3.36
-3.27
-3.22
-3.32
-3.67
-4.31
-5.19
-6.18
-7.08
-7.69
-7.92
-7.78
-7.34
-6.76
-6.09
-5.36
-4.55
-3.66
-2.74
-1.90
-1.19
-0.64
-0.14
0.38
1.00
1.70
2.37
2.91
3.28
3.49
3.63
3.79
3.99
4.24
4.50
4.71
4.87
4.97
5.03
5.04
4.98
4.81
4.54
4.21
3.87
3.57
3.32
3.08
2.79
2.43
1.98
1.50
1.05
0.65
0.27
-0.17
-0.78
-1.63
-2.72
-3.90
-4.96
-5.65
-5.84
-5.48
-4.67
-3.61
-2.50
-1.45
-0.50
0.38
1.23
2.05
2.79
3.41
3.88
4.22
4.43
4.53
4.50
4.37
4.16
3.93
3.73
3.57
3.41
3.20
2.89
2.46
1.97
1.46
0.97
0.50
0.04
-0.44
-0.98
-1.62
-2.41
-3.36
-4.44
-5.57
-6.60
-7.41
-7.88
-7.98
-7.78
-7.43
-7.10
-6.97
-7.15
-7.65
-8.44
-9.38
-10.28
-10.90
-11.04
-10.57
-9.51
-8.04
-6.41
-4.90
-3.69
-2.83
-2.29
-2.01
-1.92
-1.97
-2.10
-2.24
-2.32
-2.27
-2.06
-1.72
-1.30
-0.86
-0.40
0.06
0.58
1.15
1.79
2.46
3.09
3.61
3.96
4.11
4.08
3.84
3.41
2.77
1.96
1.06
0.22
-0.46
-0.97
-1.41
-1.94
-2.67
-3.61
-4.64
-5.59
-6.31
-6.77
-7.00
-7.03
-6.83
-6.32
-5.44
-4.15
-2.56
-0.79
1.01
2.73
4.34
5.83
7.20
8.42
9.47
10.30
10.88
11.25
11.42
11.45
11.38
11.24
11.07
10.87
10.67
10.47
10.27
10.06
9.82
9.50
9.06
8.42
7.53
6.36
4.96
3.44
1.97
0.71
-0.22
-0.84
-1.25
-1.61
-2.02
-2.49
-2.97
-3.39
-3.71
-3.97
-4.23
-4.56
-4.96
-5.37
-5.70
-5.86
-5.78
-5.39
-4.67
-3.66
-2.45
-1.16
0.07
1.15
2.06
2.79
3.34
3.70
3.83
3.71
3.40
3.02
2.73
2.64
2.75
3.00
3.25
3.39
3.38
3.22
2.93
2.56
2.13
1.64
1.10
0.48
-0.20
-0.92
-1.67
-2.40
-3.09
-3.73
-4.30
-4.77
-5.14
-5.33
-5.29
-5.01
-4.50
-3.85
-3.22
-2.78
-2.64
-2.81
-3.14
-3.40
-3.40
-3.04
-2.40
-1.71
-1.19
-0.98
-1.06
-1.26
-1.40
-1.38
-1.24
-1.06
-0.90
-0.72
-0.40
0.16
0.91
1.72
2.39
2.76
2.79
2.58
2.29
2.08
2.00
2.05
2.16
2.29
2.40
2.48
2.51
2.47
2.33
2.08
1.68
1.17
0.58
-0.01
-0.54
-1.01
-1.47
-2.02
-2.75
-3.69
-4.80
-6.00
-7.17
-8.22
-9.05
-9.52
-9.53
-8.96
-7.78
-6.08
-4.06
-1.96
-0.01
1.61
2.82
3.59
3.98
4.11
4.13
4.16
4.28
4.46
4.58
4.51
4.18
3.67
3.14
2.78
2.71
2.92
3.28
3.64
3.90
4.05
4.14
4.29
4.52
4.76
4.89
4.81
4.45
3.88
3.21
2.56
2.01
1.52
1.05
0.52
-0.09
-0.82
-1.66
-2.63
-3.73
-4.89
-5.95
-6.70
-6.95
-6.65
-5.84
-4.70
-3.40
-2.06
-0.76
0.50
1.70
2.77
3.61
4.16
4.41
4.42
4.30
4.17
4.11
4.15
4.26
4.37
4.42
4.35
4.17
3.91
3.65
3.44
3.29
3.14
2.94
2.64
2.23
1.77
1.31
0.91
0.57
0.29
0.01
-0.29
-0.65
-1.10
-1.61
-2.14
-2.65
-3.13
-3.58
-4.09
-4.72
-5.52
-6.47
-7.45
-8.30
-8.82
-8.86
-8.34
-7.28
-5.82
-4.14
-2.43
-0.85
0.51
1.58
2.35
2.80
2.92
2.78
2.49
2.18
1.95
1.84
1.81
1.82
1.82
1.80
1.78
1.81
1.89
2.05
2.27
2.55
2.83
3.04
3.11
2.97
2.63
2.13
1.56
1.04
0.63
0.35
0.20
0.16
0.19
0.24
0.25
0.11
-0.25
-0.83
-1.60
-2.44
-3.28
-4.07
-4.85
-5.65
-6.42
-7.02
-7.27
-7.03
-6.23
-5.00
-3.54
-2.07
-0.81
0.11
0.64
0.80
0.63
0.26
-0.19
-0.58
-0.81
-0.83
-0.66
-0.31
0.17
0.73
1.31
1.78
2.07
2.09
1.84
1.36
0.68
-0.14
-1.09
-2.16
-3.31
-4.42
-5.40
-6.13
-6.63
-6.97
-7.27
-7.62
-7.99
-8.28
-8.32
-7.98
-7.27
-6.29
-5.24
-4.33
-3.72
-3.48
-3.58
-3.90
-4.25
-4.40
-4.14
-3.39
-2.24
-0.86
0.48
1.58
2.33
2.72
2.80
2.64
2.31
1.89
1.45
1.09
0.86
0.77
0.75
0.73
0.65
0.48
0.30
0.20
0.25
0.52
0.98
1.58
2.27
3.03
3.89
4.90
6.08
7.36
8.64
9.74
10.55
11.03
11.21
11.15
10.90
10.46
9.86
9.12
8.31
7.46
6.55
5.53
4.31
2.84
1.18
-0.51
-2.03
-3.22
-3.94
-4.18
-3.96
-3.40
-2.61
-1.77
-1.01
-0.43
-0.03
0.22
0.39
0.48
0.48
0.36
0.12
-0.17
-0.40
-0.48
-0.37
-0.16
0.02
0.02
-0.24
-0.74
-1.35
-1.88
-2.20
-2.22
-2.02
-1.78
-1.69
-1.88
-2.36
-3.02
-3.67
-4.15
-4.39
-4.38
-4.16
-3.79
-3.31
-2.73
-2.05
-1.25
-0.32
0.75
1.90
3.02
3.95
4.50
4.56
4.12
3.31
2.33
1.38
0.64
0.18
0.03
0.17
0.58
1.22
2.02
2.88
3.71
4.44
5.02
5.44
5.70
5.81
5.78
5.66
5.49
5.32
5.17
5.05
4.91
4.75
4.55
4.35
4.13
3.85
3.43
2.79
1.97
1.04
0.18
-0.49
-0.95
-1.29
-1.68
-2.23
-2.97
-3.80
-4.58
-5.18
-5.55
-5.73
-5.81
-5.86
-5.91
-5.93
-5.93
-5.91
-5.88
-5.85
-5.80
-5.71
-5.54
-5.24
-4.81
-4.23
-3.52
-2.70
-1.82
-0.93
-0.11
0.57
1.07
1.37
1.49
1.46
1.32
1.10
0.83
0.56
0.35
0.29
0.40
0.69
1.10
1.50
1.77
1.82
1.63
1.31
0.99
0.83
0.89
1.19
1.63
2.10
2.48
2.65
2.54
2.13
1.45
0.59
-0.31
-1.16
-1.89
-2.55
-3.29
-4.24
-5.49
-6.98
-8.53
-9.87
-10.75
-11.00
-10.57
-9.52
-7.96
-6.07
-4.02
-2.00
-0.18
1.32
2.47
3.35
4.07
4.74
5.45
6.22
7.03
7.79
8.41
8.78
8.83
8.52
7.95
7.25
6.60
6.10
5.75
5.48
5.20
4.82
4.33
3.74
3.08
2.32
1.44
0.46
-0.54
-1.43
-2.13
-2.59
-2.82
-2.89
-2.89
-2.90
-2.96
-3.13
-3.42
-3.83
-4.34
-4.92
-5.51
-6.06
-6.47
-6.62
-6.42
-5.88
-5.09
-4.18
-3.28
-2.43
-1.59
-0.71
0.18
0.94
1.41
1.48
1.22
0.83
0.55
0.50
0.65
0.83
0.85
0.66
0.33
0.04
-0.02
0.20
0.65
1.17
1.60
1.85
1.90
1.85
1.79
1.80
1.84
1.83
1.67
1.34
0.85
0.31
-0.19
-0.60
-0.91
-1.21
-1.56
-2.08
-2.84
-3.82
-4.95
-6.06
-6.94
-7.41
-7.34
-6.72
-5.65
-4.31
-2.93
-1.75
-0.95
-0.63
-0.75
-1.17
-1.66
-2.05
-2.19
-2.07
-1.72
-1.20
-0.52
0.35
1.43
2.75
4.23
5.73
7.10
8.17
8.88
9.22
9.28
9.18
9.01
8.84
8.69
8.50
8.23
7.80
7.15
6.24
5.06
3.63
2.06
0.50
-0.88
-1.97
-2.71
-3.21
-3.64
-4.15
-4.87
-5.80
-6.87
-7.95
-8.92
-9.68
-10.15
-10.26
-9.95
-9.17
-7.96
-6.39
-4.62
-2.78
-1.02
0.58
1.98
3.13
3.99
4.55
4.81
4.81
4.65
4.42
4.21
4.04
3.91
3.82
3.75
3.75
3.85
4.08
4.42
4.81
5.16
5.38
5.43
5.35
5.21
5.08
4.97
4.82
4.51
3.89
2.93
1.72
0.44
-0.63
-1.35
-1.71
-1.85
-2.01
-2.41
-3.14
-4.12
-5.17
-6.05
-6.58
-6.69
-6.41
-5.82
-5.03
-4.11
-3.09
-1.99
-0.83
0.32
1.36
2.15
2.59
2.69
2.56
2.38
2.32
2.46
2.76
3.13
3.46
3.70
3.85
3.94
3.97
3.90
3.68
3.27
2.73
2.14
1.61
1.16
0.80
0.50
0.23
-0.01
-0.24
-0.50
-0.88
-1.44
-2.21
-3.11
-4.01
-4.77
-5.37
-5.89
-6.46
-7.20
-8.14
-9.14
-9.99
-10.48
-10.48
-9.96
-9.02
-7.79
-6.40
-4.96
-3.51
-2.07
-0.63
0.79
2.11
3.23
4.06
4.54
4.71
4.71
4.72
4.86
5.17
5.56
5.88
5.99
5.81
5.39
4.85
4.36
4.01
3.80
3.65
3.39
2.88
2.05
0.99
-0.11
-1.04
-1.62
-1.81
-1.70
-1.45
-1.25
-1.22
-1.44
-1.89
-2.55
-3.34
-4.16
-4.86
-5.29
-5.34
-4.97
-4.24
-3.33
-2.43
-1.69
-1.12
-0.65
-0.12
0.57
1.46
2.47
3.45
4.30
4.96
5.42
5.71
5.79
5.62
5.18
4.52
3.75
3.07
2.63
2.50
2.65
2.93
3.17
3.22
3.01
2.55
1.90
1.17
0.46
-0.13
-0.60
-0.94
-1.21
-1.51
-1.90
-2.41
-3.02
-3.66
-4.23
-4.67
-4.96
-5.14
-5.29
-5.47
-5.77
-6.22
-6.80
-7.48
-8.15
-8.71
-8.99
-8.90
-8.37
-7.47
-6.31
-5.08
-3.90
-2.81
-1.81
-0.85
0.06
0.85
1.41
1.70
1.68
1.40
0.96
0.46
0.04
-0.18
-0.09
0.34
1.06
1.90
2.66
3.22
3.60
3.93
4.37
5.01
5.73
6.34
6.61
6.44
5.93
5.27
4.70
4.32
4.11
3.93
3.60
3.04
2.28
1.41
0.53
-0.34
-1.27
-2.35
-3.63
-5.07
-6.48
-7.65
-8.38
-8.58
-8.27
-7.53
-6.49
-5.24
-3.91
-2.60
-1.41
-0.36
0.55
1.42
2.33
3.26
4.14
4.78
5.08
5.00
4.67
4.31
4.13
4.22
4.54
4.91
5.13
5.02
4.53
3.73
2.80
1.95
1.31
0.88
0.57
0.22
-0.28
-0.92
-1.62
-2.25
-2.73
-3.06
-3.29
-3.46
-3.59
-3.63
-3.54
-3.30
-2.97
-2.64
-2.45
-2.52
-2.87
-3.43
-3.99
-4.32
-4.21
-3.59
-2.55
-1.27
0.03
1.18
2.07
2.67
2.99
3.06
2.98
2.87
2.86
3.02
3.34
3.75
4.12
4.39
4.56
4.72
4.96
5.34
5.84
6.37
6.79
6.98
6.89
6.53
5.96
5.30
4.65
4.09
3.68
3.43
3.28
3.18
3.02
2.69
2.15
1.41
0.58
-0.27
-1.07
-1.87
-2.78
-3.94
-5.38
-7.01
-8.58
-9.80
-10.43
-10.41
-9.80
-8.79
-7.57
-6.31
-5.08
-3.97
-3.02
-2.29
-1.79
-1.48
-1.31
-1.20
-1.08
-0.94
-0.77
-0.56
-0.29
0.09
0.63
1.35
2.18
3.05
3.84
4.47
4.92
5.21
5.37
5.44
5.40
5.22
4.84
4.26
3.50
2.68
1.87
1.11
0.42
-0.21
-0.78
-1.30
-1.74
-2.10
-2.41
-2.69
-2.99
-3.32
-3.69
-4.07
-4.37
-4.51
-4.39
-3.96
-3.22
-2.26
-1.19
-0.11
0.90
1.83
2.70
3.50
4.18
4.64
4.78
4.55
3.96
3.12
2.21
1.44
0.98
0.92
1.24
1.84
2.56
3.22
3.67
3.79
3.51
2.83
1.85
0.76
-0.23
-0.96
-1.37
-1.56
-1.71
-1.96
-2.44
-3.10
-3.89
-4.68
-5.42
-6.07
-6.63
-7.10
-7.53
-7.96
-8.44
-8.99
-9.57
-10.07
-10.33
-10.20
-9.57
-8.37
-6.58
-4.24
-1.46
1.53
4.46
7.00
8.94
10.21
10.95
11.38
11.72
12.09
12.47
12.74
12.74
12.38
11.68
10.74
9.75
8.91
8.37
8.17
8.25
8.45
8.57
8.47
8.04
7.27
6.23
5.02
3.75
2.57
1.56
0.78
0.17
-0.42
-1.15
-2.16
-3.46
-4.98
-6.55
-8.03
-9.28
-10.25
-10.95
-11.44
-11.79
-12.09
-12.39
-12.68
-12.81
-12.59
-11.85
-10.53
-8.68
-6.51
-4.25
-2.12
-0.27
1.23
2.36
3.14
3.60
3.86
4.09
4.51
5.27
6.40
7.77
9.14
10.26
11.01
11.36
11.41
11.24
10.89
10.30
9.44
8.38
7.30
6.49
6.15
6.32
6.86
7.48
7.90
7.95
7.57
6.80
5.69
4.26
2.56
0.72
-1.09
-2.63
-3.72
-4.27
-4.33
-4.02
-3.49
-2.88
-2.28
-1.76
-1.34
-1.04
-0.82
-0.66
-0.55
-0.52
-0.63
-0.94
-1.48
-2.18
-2.90
-3.49
-3.82
-3.84
-3.56
-3.05
-2.42
-1.82
-1.35
-1.13
-1.18
-1.46
-1.89
-2.33
-2.67
-2.85
-2.83
-2.68
-2.50
-2.45
-2.69
-3.28
-4.18
-5.25
-6.33
-7.27
-8.01
-8.55
-8.93
-9.18
-9.29
-9.22
-8.93
-8.43
-7.73
-6.93
-6.11
-5.37
-4.77
-4.31
-3.96
-3.66
-3.31
-2.86
-2.28
-1.57
-0.74
0.25
1.42
2.79
4.30
5.83
7.15
8.04
8.33
7.97
7.05
5.81
4.55
3.57
3.12
3.31
4.09
5.20
6.27
6.84
6.57
5.36
3.36
0.96
-1.38
-3.28
-4.51
-5.01
-4.86
-4.18
-3.12
-1.85
-0.58
0.48
1.14
1.33
1.10
0.66
0.30
0.23
0.58
1.27
2.10
2.85
3.39
3.70
3.88
4.02
4.14
4.18
4.01
3.58
2.89
2.08
1.35
0.89
0.83
1.17
1.80
2.54
3.15
3.42
3.23
2.56
1.50
0.24
-1.00
-2.04
-2.78
-3.29
-3.70
-4.24
-5.06
-6.21
-7.57
-8.90
-9.88
-10.27
-9.94
-8.93
-7.41
-5.67
-3.97
-2.52
-1.43
-0.64
-0.05
0.46
0.94
1.33
1.55
1.53
1.30
0.95
0.62
0.37
0.19
0.04
-0.09
-0.14
0.02
0.44
1.08
1.75
2.21
2.31
2.07
1.69
1.43
1.51
1.95
2.61
3.22
3.50
3.24
2.38
0.98
-0.78
-2.74
-4.70
-6.47
-7.90
-8.85
-9.25
-9.07
-8.43
-7.51
-6.55
-5.72
-5.04
-4.38
-3.51
-2.27
-0.59
1.37
3.34
5.03
6.26
7.01
7.42
7.65
7.88
8.16
8.48
8.70
8.68
8.32
7.58
6.56
5.46
4.47
3.76
3.35
3.14
2.95
2.62
2.08
1.37
0.59
-0.12
-0.69
-1.11
-1.47
-1.86
-2.40
-3.10
-3.93
-4.82
-5.63
-6.27
-6.62
-6.66
-6.36
-5.78
-5.01
-4.16
-3.36
-2.69
-2.18
-1.82
-1.54
-1.29
-1.03
-0.71
-0.29
0.26
0.95
1.73
2.48
3.04
3.29
3.19
2.79
2.25
1.75
1.41
1.32
1.42
1.65
1.89
2.04
2.01
1.75
1.22
0.45
-0.50
-1.53
-2.52
-3.39
-4.10
-4.66
-5.09
-5.39
-5.52
-5.39
-4.93
-4.10
-2.97
-1.70
-0.51
0.44
1.04
1.34
1.42
1.41
1.39
1.39
1.43
1.51
1.62
1.74
1.86
1.92
1.87
1.69
1.40
1.07
0.80
0.60
0.42
0.16
-0.24
-0.80
-1.45
-2.09
-2.58
-2.88
-3.09
-3.37
-3.90
-4.82
-6.22
-8.12
-10.50
-13.15
-15.82
-18.29
-20.35
-21.82
-22.69
-23.13
-23.36
-23.67
-24.04
-24.30
-24.39
-24.31
-23.96
-23.41
-22.83
-22.26
-21.89
-21.45
-20.57
-19.11
-16.89
-13.43
-8.34
-1.41
7.50
18.04
30.29
44.34
58.98
72.20
82.58
89.72
93.91
98.11
102.18
105.67
108.41
110.67
110.71
108.60
104.93
100.63
96.73
93.78
92.51
93.07
94.76
96.25
96.08
92.17
82.13
64.12
37.52
4.45
-30.57
-61.92
-84.76
-96.63
-98.64
-94.62
-89.14
-85.54
-84.55
-84.88
-84.66
-82.80
-79.37
-75.37
-71.83
-69.09
-66.81
-64.25
-60.92
-56.90
-52.79
-49.39
-47.17
-46.06
-45.45
-44.44
-42.23
-38.56
-33.80
-28.83
-24.58
-21.57
-19.75
-18.54
-17.21
-15.22
-12.45
-9.25
-6.16
-3.67
-1.96
-0.92
-0.16
0.75
2.15
4.15
6.64
9.29
11.73
13.66
14.93
15.53
15.57
15.12
14.22
12.87
11.08
8.90
6.48
4.00
1.64
-0.49
-2.32
-3.80
-4.93
-5.70
-6.18
-6.45
-6.63
-6.75
-6.79
-6.65
-6.19
-5.37
-4.22
-2.87
-1.48
-0.21
0.79
1.45
1.70
1.52
0.95
0.14
-0.72
-1.39
-1.70
-1.59
-1.15
-0.49
0.24
1.00
1.77
2.57
3.35
4.04
4.55
4.77
4.68
4.27
3.57
2.65
1.61
0.59
-0.22
-0.68
-0.72
-0.40
0.12
0.66
1.06
1.29
1.37
1.39
1.42
1.48
1.56
1.59
1.54
1.39
1.17
0.96
0.84
0.86
0.99
1.14
1.14
0.85
0.16
-0.90
-2.24
-3.70
-5.14
-6.51
-7.74
-8.80
-9.55
-9.81
-9.39
-8.20
-6.33
-4.03
-1.68
0.38
1.90
2.80
3.17
3.16
2.93
2.62
2.31
2.09
2.04
2.20
2.54
2.97
3.35
3.57
3.60
3.46
3.28
3.13
3.06
3.02
2.96
2.86
2.73
2.58
2.39
2.12
1.70
1.08
0.29
-0.60
-1.49
-2.28
-2.94
-3.47
-3.96
-4.52
-5.27
-6.30
-7.62
-9.12
-10.60
-11.79
-12.43
-12.39
-11.64
-10.33
-8.65
-6.80
-4.89
-3.03
-1.22
0.48
2.03
3.39
4.56
5.57
6.47
7.25
7.85
8.11
7.90
7.14
5.87
4.23
2.46
0.83
-0.49
-1.43
-1.99
-2.30
-2.42
-2.42
-2.32
-2.12
-1.87
-1.64
-1.54
-1.62
-1.92
-2.39
-2.98
-3.62
-4.25
-4.81
-5.24
-5.46
-5.42
-5.08
-4.48
-3.68
-2.79
-1.92
-1.15
-0.51
0.02
0.56
1.21
2.01
2.89
3.72
4.31
4.53
4.40
4.04
3.66
3.42
3.40
3.59
3.86
4.11
4.27
4.33
4.32
4.26
4.10
3.77
3.22
2.42
1.48
0.58
-0.11
-0.50
-0.63
-0.67
-0.81
-1.20
-1.86
-2.69
-3.54
-4.30
-4.92
-5.42
-5.83
-6.15
-6.32
-6.22
-5.77
-4.92
-3.72
-2.30
-0.82
0.63
1.97
3.17
4.21
5.06
5.69
6.06
6.21
6.20
6.14
6.11
6.15
6.19
6.15
5.96
5.59
5.11
4.63
4.29
4.16
4.26
4.49
4.76
4.95
4.98
4.87
4.63
4.30
3.87
3.30
2.51
1.45
0.17
-1.21
-2.52
-3.57
-4.28
-4.71
-4.98
-5.26
-5.59
-5.90
-5.97
-5.62
-4.78
-3.61
-2.36
-1.30
-0.49
0.18
0.89
1.76
2.67
3.32
3.42
2.84
1.77
0.57
-0.36
-0.82
-0.83
-0.60
-0.34
-0.17
-0.12
-0.14
-0.21
-0.31
-0.39
-0.36
-0.10
0.48
1.36
2.39
3.35
4.07
4.47
4.58
4.46
4.14
3.63
2.87
1.87
0.68
-0.59
-1.83
-2.96
-3.92
-4.63
-5.03
-5.04
-4.61
-3.77
-2.65
-1.39
-0.14
1.00
2.00
2.81
3.40
3.75
3.85
3.77
3.59
3.42
3.29
3.17
2.98
2.71
2.39
2.15
2.14
2.41
2.90
3.47
3.94
4.20
4.24
4.15
4.06
4.05
4.11
4.18
4.19
4.10
3.93
3.70
3.44
3.13
2.74
2.28
1.79
1.32
0.93
0.61
0.30
-0.07
-0.51
-0.94
-1.24
-1.26
-0.92
-0.22
0.77
1.94
3.14
4.27
5.23
5.92
6.26
6.21
5.75
4.92
3.79
2.55
1.41
0.59
0.29
0.56
1.31
2.33
3.31
4.01
4.29
4.22
3.96
3.67
3.44
3.15
2.59
1.54
-0.12
-2.29
-4.72
-7.06
-9.04
-10.51
-11.43
-11.89
-11.97
-11.74
-11.29
-10.69
-10.08
-9.60
-9.32
-9.25
-9.29
-9.30
-9.12
-8.64
-7.81
-6.64
-5.18
-3.52
-1.76
-0.00
1.67
3.20
4.60
5.94
7.32
8.79
10.39
12.05
13.68
15.16
16.33
17.11
17.42
17.27
16.76
16.02
15.20
14.43
13.77
13.17
12.49
11.58
10.30
8.67
6.80
4.87
3.09
1.60
0.45
-0.40
-1.05
-1.67
-2.39
-3.33
-4.50
-5.85
-7.24
-8.55
-9.68
-10.58
-11.25
-11.62
-11.67
-11.34
-10.67
-9.70
-8.49
-7.02
-5.23
-3.08
-0.69
1.68
3.69
5.10
5.89
6.28
6.54
6.82
7.08
7.10
6.69
5.80
4.68
3.66
3.04
2.92
3.14
3.39
3.43
3.18
2.75
2.35
2.14
2.12
2.15
2.02
1.59
0.85
-0.11
-1.17
-2.27
-3.39
-4.55
-5.71
-6.80
-7.72
-8.40
-8.86
-9.14
-9.37
-9.62
-9.95
-10.39
-10.86
-11.20
-11.23
-10.73
-9.59
-7.83
-5.62
-3.18
-0.72
1.63
3.83
5.93
7.92
9.77
11.39
12.69
13.62
14.14
14.22
13.83
12.90
11.34
9.15
6.41
3.36
0.31
-2.35
-4.31
-5.37
-5.54
-5.03
-4.15
-3.24
-2.55
-2.19
-2.13
-2.29
-2.61
-3.07
-3.68
-4.36
-4.98
-5.35
-5.33
-4.89
-4.20
-3.51
-3.08
-3.09
-3.58
-4.50
-5.72
-7.11
-8.51
-9.75
-10.68
-11.16
-11.11
-10.51
-9.42
-7.93
-6.14
-4.17
-2.18
-0.37
1.04
1.89
2.11
1.81
1.23
0.67
0.38
0.50
0.99
1.75
2.61
3.46
4.26
5.01
5.69
6.31
6.80
7.09
7.14
6.97
6.59
6.03
5.31
4.47
3.56
2.66
1.88
1.29
0.90
0.64
0.37
-0.01
-0.56
-1.24
-1.93
-2.53
-2.96
-3.22
-3.35
-3.41
-3.44
-3.47
-3.51
-3.51
-3.41
-3.13
-2.63
-1.95
-1.15
-0.33
0.44
1.20
2.00
2.92
3.98
5.14
6.29
7.34
8.21
8.86
9.29
9.48
9.39
9.01
8.37
7.61
6.88
6.31
5.95
5.79
5.76
5.84
6.03
6.33
6.72
7.09
7.29
7.15
6.56
5.56
4.26
2.84
1.43
0.11
-1.13
-2.34
-3.60
-4.90
-6.21
-7.47
-8.60
-9.59
-10.45
-11.23
-11.95
-12.63
-13.23
-13.68
-13.86
-13.63
-12.83
-11.42
-9.48
-7.21
-4.91
-2.83
-1.08
0.33
1.50
2.46
3.18
3.57
3.59
3.33
2.97
2.70
2.65
2.80
3.00
3.08
2.90
2.41
1.68
0.84
0.04
-0.58
-0.93
-1.02
-0.88
-0.63
-0.37
-0.20
-0.20
-0.40
-0.82
-1.44
-2.20
-3.03
-3.81
-4.48
-5.03
-5.52
-6.11
-6.96
-8.16
-9.62
-11.14
-12.42
-13.18
-13.27
-12.66
-11.44
-9.74
-7.70
-5.44
-3.10
-0.80
1.35
3.31
5.11
6.86
8.58
10.24
11.68
12.74
13.30
13.38
13.16
12.87
12.73
12.86
13.21
13.66
14.05
14.23
14.12
13.66
12.81
11.58
9.98
8.09
6.06
4.07
2.25
0.69
-0.64
-1.76
-2.74
-3.55
-4.16
-4.52
-4.62
-4.49
-4.20
-3.80
-3.37
-2.92
-2.49
-2.14
-2.00
-2.21
-2.93
-4.22
-5.97
-7.90
-9.59
-10.58
-10.56
-9.45
-7.49
-5.08
-2.74
-0.91
0.12
0.21
-0.58
-2.06
-3.87
-5.52
-6.48
-6.32
-4.85
-2.23
1.07
4.39
7.06
8.68
9.19
8.85
8.12
7.43
7.06
7.06
7.31
7.55
7.53
7.08
6.15
4.82
3.25
1.67
0.26
-0.87
-1.75
-2.44
-3.06
-3.68
-4.31
-4.92
-5.49
-5.94
-6.17
-6.02
-5.31
-3.91
-1.80
0.93
4.03
7.16
9.97
12.12
13.38
13.65
13.01
11.69
10.01
8.30
6.80
5.70
5.04
4.82
4.94
5.26
5.60
5.76
5.64
5.19
4.47
3.58
2.66
1.82
1.14
0.68
0.43
0.31
0.21
0.04
-0.20
-0.49
-0.71
-0.82
-0.85
-0.90
-1.15
-1.70
-2.58
-3.70
-4.98
-6.31
-7.69
-9.08
-10.41
-11.50
-12.09
-11.93
-10.92
-9.20
-7.11
-5.06
-3.38
-2.17
-1.34
-0.72
-0.18
0.30
0.61
0.69
0.51
0.19
-0.07
-0.10
0.18
0.72
1.37
1.93
2.26
2.29
2.07
1.75
1.52
1.50
1.67
1.92
2.06
1.95
1.56
0.99
0.39
-0.13
-0.59
-1.09
-1.76
-2.62
-3.61
-4.60
-5.49
-6.27
-7.02
-7.79
-8.58
-9.24
-9.58
-9.46
-8.84
-7.84
-6.63
-5.40
-4.25
-3.16
-2.07
-0.92
0.27
1.40
2.32
2.93
3.19
3.14
2.87
2.47
1.99
1.53
1.17
1.03
1.19
1.61
2.13
2.52
2.59
2.25
1.61
0.84
0.16
-0.35
-0.68
-0.90
-1.10
-1.36
-1.68
-2.04
-2.43
-2.83
-3.23
-3.63
-4.03
-4.43
-4.85
-5.31
-5.80
-6.33
-6.80
-7.14
-7.21
-6.91
-6.22
-5.15
-3.81
-2.31
-0.78
0.71
2.03
3.10
3.82
4.17
4.18
4.01
3.86
3.90
4.18
4.68
5.29
5.89
6.41
6.83
7.16
7.39
7.52
7.56
7.54
7.47
7.34
7.10
6.72
6.18
5.56
5.01
4.65
4.55
4.65
4.78
4.72
4.31
3.46
2.19
0.61
-1.18
-3.02
-4.80
-6.39
-7.66
-8.49
-8.77
-8.49
-7.68
-6.45
-4.98
-3.46
-2.03
-0.78
0.24
1.04
1.64
2.06
2.30
2.35
2.23
1.95
1.57
1.20
0.95
0.88
0.97
1.13
1.24
1.17
0.90
0.53
0.22
0.14
0.32
0.68
1.03
1.21
1.15
0.91
0.66
0.55
0.66
0.93
1.22
1.37
1.24
0.79
0.09
-0.79
-1.74
-2.67
-3.55
-4.35
-5.05
-5.64
-6.07
-6.27
-6.19
-5.78
-5.05
-4.07
-2.93
-1.74
-0.58
0.50
1.51
2.47
3.41
4.34
5.16
5.77
6.05
5.96
5.57
5.08
4.70
4.57
4.73
5.04
5.28
5.27
4.87
4.10
3.04
1.83
0.64
-0.40
-1.21
-1.74
-2.04
-2.15
-2.15
-2.06
-1.89
-1.63
-1.32
-1.08
-1.06
-1.39
-2.07
-2.99
-3.98
-4.88
-5.62
-6.17
-6.55
-6.71
-6.56
-6.02
-5.12
-3.96
-2.74
-1.65
-0.81
-0.21
0.25
0.70
1.25
1.98
2.91
3.97
5.10
6.18
7.15
8.00
8.78
9.57
10.36
11.09
11.63
11.86
11.74
11.34
10.79
10.18
9.54
8.81
7.93
6.96
6.04
5.33
4.89
4.60
4.24
3.57
2.52
1.20
-0.15
-1.23
-1.86
-2.08
-2.05
-2.05
-2.29
-2.91
-3.89
-5.10
-6.39
-7.62
-8.71
-9.68
-10.59
-11.51
-12.48
-13.46
-14.32
-14.91
-15.04
-14.61
-13.59
-12.06
-10.20
-8.22
-6.23
-4.27
-2.26
-0.20
1.84
3.62
4.87
5.37
5.07
4.22
3.16
2.31
1.94
2.11
2.72
3.49
4.17
4.54
4.54
4.19
3.63
3.00
2.40
1.87
1.38
0.94
0.57
0.37
0.36
0.54
0.79
0.95
0.91
0.63
0.22
-0.21
-0.55
-0.80
-1.01
-1.28
-1.67
-2.18
-2.76
-3.33
-3.83
-4.23
-4.52
-4.70
-4.76
-4.70
-4.48
-4.07
-3.50
-2.81
-2.10
-1.45
-0.92
-0.53
-0.26
-0.07
0.07
0.17
0.25
0.29
0.31
0.34
0.43
0.62
0.95
1.46
2.15
3.01
3.93
4.79
5.42
5.71
5.64
5.34
5.01
4.85
4.97
5.35
5.87
6.38
6.77
6.96
6.88
6.49
5.76
4.71
3.43
2.05
0.69
-0.56
-1.67
-2.63
-3.40
-3.92
-4.12
-3.94
-3.43
-2.69
-1.90
-1.18
-0.61
-0.20
0.11
0.37
0.62
0.81
0.92
0.87
0.67
0.32
-0.11
-0.56
-0.99
-1.39
-1.75
-2.01
-2.06
-1.78
-1.12
-0.19
0.77
1.47
1.66
1.22
0.25
-1.07
-2.50
-3.89
-5.13
-6.17
-7.03
-7.71
-8.23
-8.64
-9.00
-9.37
-9.76
-10.19
-10.61
-10.96
-11.11
-10.92
-10.23
-8.94
-7.09
-4.86
-2.54
-0.43
1.30
2.62
3.63
4.45
5.16
5.76
6.22
6.48
6.51
6.35
6.06
5.71
5.34
4.99
4.64
4.28
3.90
3.50
3.08
2.66
2.25
1.86
1.50
1.19
0.93
0.70
0.45
0.13
-0.30
-0.86
-1.55
-2.32
-3.16
-4.02
-4.87
-5.67
-6.33
-6.83
-7.17
-7.37
-7.41
-7.21
-6.64
-5.58
-4.06
-2.25
-0.45
1.02
1.96
2.31
2.19
1.78
1.25
0.72
0.24
-0.20
-0.58
-0.91
-1.12
-1.17
-1.05
-0.82
-0.60
-0.51
-0.62
-0.87
-1.13
-1.23
-1.05
-0.60
-0.01
0.51
0.78
0.70
0.36
-0.06
-0.33
-0.32
-0.07
0.26
0.49
0.47
0.24
-0.10
-0.46
-0.83
-1.27
-1.82
-2.43
-2.89
-3.00
-2.58
-1.67
-0.44
0.89
2.14
3.26
4.22
5.03
5.64
5.96
5.92
5.57
5.04
4.51
4.13
3.94
3.88
3.82
3.67
3.43
3.15
2.96
2.92
3.04
3.25
3.43
3.49
3.31
2.87
2.15
1.21
0.15
-0.89
-1.76
-2.39
-2.77
-2.98
-3.14
-3.39
-3.84
-4.53
-5.45
-6.53
-7.62
-8.58
-9.28
-9.60
-9.55
-9.16
-8.49
-7.57
-6.40
-4.96
-3.26
-1.45
0.27
1.68
2.64
3.18
3.47
3.73
4.11
4.65
5.23
5.70
5.92
5.86
5.57
5.17
4.74
4.35
3.96
3.55
3.06
2.49
1.83
1.11
0.34
-0.45
-1.26
-2.03
-2.73
-3.32
-3.78
-4.07
-4.22
-4.22
-4.10
-3.91
-3.75
-3.73
-3.94
-4.39
-4.98
-5.53
-5.83
-5.74
-5.24
-4.41
-3.37
-2.17
-0.82
0.72
2.39
4.02
5.34
6.14
6.34
6.09
5.68
5.35
5.25
5.34
5.53
5.76
6.05
6.46
7.00
7.59
8.06
8.28
8.19
7.84
7.27
6.50
5.48
4.20
2.70
1.12
-0.34
-1.55
-2.50
-3.25
-3.95
-4.66
-5.39
-6.08
-6.65
-7.07
-7.39
-7.67
-7.95
-8.27
-8.61
-8.92
-9.12
-9.11
-8.78
-8.03
-6.81
-5.10
-2.95
-0.48
2.14
4.71
7.04
9.00
10.52
11.61
12.32
12.68
12.71
12.38
11.74
10.90
10.06
9.40
9.02
8.89
8.89
8.90
8.85
8.75
8.59
8.33
7.83
6.95
5.65
4.00
2.20
0.50
-0.96
-2.14
-3.15
-4.08
-4.97
-5.77
-6.36
-6.70
-6.80
-6.82
-6.93
-7.21
-7.64
-8.06
-8.28
-8.21
-7.89
-7.46
-7.09
-6.83
-6.63
-6.30
-5.70
-4.78
-3.57
-2.21
-0.82
0.48
1.61
2.48
3.04
3.28
3.24
3.03
2.76
2.47
2.15
1.75
1.24
0.68
0.22
-0.00
0.07
0.36
0.72
0.96
0.96
0.70
0.23
-0.36
-1.03
-1.77
-2.61
-3.55
-4.58
-5.58
-6.41
-6.92
-7.04
-6.80
-6.28
-5.60
-4.81
-3.95
-3.06
-2.23
-1.59
-1.25
-1.20
-1.28
-1.20
-0.69
0.35
1.83
3.54
5.26
6.86
8.36
9.84
11.30
12.68
13.80
14.51
14.70
14.34
13.44
12.06
10.24
8.13
5.90
3.75
1.86
0.31
-0.89
-1.78
-2.41
-2.75
-2.79
-2.55
-2.09
-1.55
-1.09
-0.81
-0.78
-0.98
-1.38
-1.95
-2.65
-3.46
-4.35
-5.22
-5.98
-6.50
-6.69
-6.55
-6.16
-5.70
-5.34
-5.27
-5.54
-6.07
-6.67
-7.05
-6.94
-6.16
-4.66
-2.57
-0.14
2.35
4.61
6.41
7.61
8.12
7.95
7.18
5.98
4.58
3.21
2.02
1.06
0.32
-0.28
-0.73
-1.01
-1.03
-0.78
-0.33
0.18
0.60
0.86
1.02
1.21
1.56
2.08
2.63
3.04
3.14
2.89
2.36
1.67
0.92
0.13
-0.70
-1.59
-2.53
-3.49
-4.44
-5.39
-6.38
-7.44
-8.55
-9.62
-10.50
-11.08
-11.29
-11.12
-10.59
-9.72
-8.55
-7.12
-5.53
-3.89
-2.34
-1.00
0.09
0.94
1.55
1.93
2.08
2.00
1.73
1.37
1.08
0.97
1.11
1.49
2.01
2.58
3.05
3.33
3.35
3.13
2.71
2.21
1.74
1.39
1.17
1.05
0.96
0.83
0.62
0.32
-0.04
-0.43
-0.78
-1.03
-1.17
-1.20
-1.19
-1.24
-1.46
-1.91
-2.57
-3.36
-4.12
-4.69
-4.97
-4.88
-4.41
-3.60
-2.51
-1.24
0.08
1.34
2.47
3.46
4.34
5.14
5.89
6.53
6.94
6.99
6.60
5.83
4.84
3.87
3.14
2.75
2.61
2.57
2.41
2.05
1.50
0.89
0.37
0.05
-0.03
0.09
0.32
0.52
0.55
0.31
-0.24
-1.02
-1.87
-2.61
-3.09
-3.28
-3.24
-3.16
-3.20
-3.53
-4.19
-5.14
-6.24
-7.25
-7.92
-8.07
-7.64
-6.73
-5.57
-4.44
-3.56
-2.97
-2.54
-2.08
-1.40
-0.49
0.52
1.39
1.89
1.94
1.61
1.15
0.82
0.84
1.28
2.02
2.86
3.59
4.04
4.17
4.03
3.69
3.27
2.87
2.60
2.53
2.73
3.17
3.74
4.25
4.49
4.35
3.83
3.08
2.31
1.71
1.38
1.32
1.43
1.55
1.52
1.22
0.59
-0.40
-1.67
-3.12
-4.53
-5.73
-6.53
-6.83
-6.62
-5.98
-5.01
-3.80
-2.44
-0.99
0.44
1.72
2.72
3.34
3.56
3.49
3.29
3.16
3.24
3.58
4.12
4.74
5.29
5.66
5.81
5.75
5.56
5.32
5.08
4.88
4.68
4.43
4.08
3.61
3.04
2.40
1.74
1.08
0.42
-0.23
-0.88
-1.51
-2.10
-2.62
-3.07
-3.42
-3.73
-4.02
-4.37
-4.84
-5.47
-6.20
-6.89
-7.34
-7.36
-6.83
-5.77
-4.33
-2.70
-1.05
0.47
1.80
2.91
3.77
4.33
4.57
4.53
4.30
4.07
3.99
4.18
4.63
5.20
5.71
5.99
5.99
5.74
5.39
5.03
4.73
4.46
4.12
3.66
3.04
2.27
1.38
0.39
-0.73
-1.93
-3.15
-4.29
-5.19
-5.75
-5.90
-5.64
-5.04
-4.26
-3.52
-3.06
-3.09
-3.69
-4.80
-6.21
-7.65
-8.90
-9.83
-10.42
-10.71
-10.69
-10.40
-9.83
-9.02
-8.07
-7.04
-6.01
-4.99
-4.01
-3.08
-2.23
-1.49
-0.85
-0.28
0.33
1.08
2.04
3.22
4.50
5.73
6.75
7.44
7.82
8.02
8.20
8.46
8.82
9.12
9.19
8.89
8.17
7.06
5.67
4.09
2.39
0.64
-1.04
-2.51
-3.66
-4.46
-5.00
-5.43
-5.86
-6.35
-6.81
-7.15
-7.24
-7.06
-6.57
-5.78
-4.71
-3.36
-1.80
-0.13
1.49
2.92
4.08
4.95
5.61
6.11
6.51
6.84
7.09
7.22
7.20
7.00
6.63
6.13
5.57
5.09
4.79
4.71
4.81
4.93
4.93
4.70
4.25
3.67
3.09
2.57
2.15
1.73
1.22
0.57
-0.21
-1.06
-1.91
-2.73
-3.60
-4.57
-5.69
-6.89
-8.00
-8.80
-9.12
-8.95
-8.37
-7.59
-6.75
-5.93
-5.13
-4.29
-3.43
-2.58
-1.79
-1.09
-0.43
0.24
0.98
1.75
2.48
3.10
3.55
3.86
4.09
4.30
4.50
4.67
4.71
4.56
4.17
3.57
2.84
2.07
1.34
0.68
0.07
-0.52
-1.12
-1.76
-2.44
-3.15
-3.89
-4.68
-5.54
-6.48
-7.48
-8.50
-9.47
-10.34
-11.06
-11.63
-12.03
-12.21
-12.10
-11.64
-10.80
-9.66
-8.34
-7.01
-5.77
-4.65
-3.60
-2.56
-1.51
-0.49
0.45
1.28
2.01
2.69
3.36
4.01
4.56
4.88
4.87
4.52
3.89
3.15
2.46
1.93
1.54
1.18
0.69
-0.02
-0.93
-1.92
-2.83
-3.52
-3.96
-4.20
-4.29
-4.26
-4.10
-3.80
-3.33
-2.71
-1.98
-1.15
-0.21
0.84
1.99
3.17
4.30
5.25
5.98
6.48
6.81
7.02
7.15
7.24
7.24
7.12
6.82
6.33
5.66
4.89
4.10
3.39
2.77
2.20
1.58
0.82
-0.11
-1.18
-2.27
-3.22
-3.91
-4.29
-4.32
-4.04
-3.50
-2.72
-1.75
-0.66
0.49
1.58
2.52
3.17
3.48
3.41
3.03
2.44
1.78
1.16
0.62
0.13
-0.38
-0.99
-1.72
-2.56
-3.41
-4.18
-4.74
-4.99
-4.89
-4.44
-3.71
-2.81
-1.88
-1.03
-0.30
0.32
0.90
1.53
2.26
3.08
3.92
4.63
5.06
5.14
4.90
4.51
4.14
3.97
4.05
4.30
4.56
4.69
4.67
4.54
4.43
4.40
4.40
4.31
3.99
3.41
2.70
2.05
1.62
1.45
1.41
1.29
0.93
0.26
-0.64
-1.61
-2.49
-3.21
-3.75
-4.19
-4.59
-5.01
-5.45
-5.89
-6.29
-6.61
-6.80
-6.79
-6.55
-6.01
-5.14
-3.99
-2.63
-1.20
0.18
1.45
2.57
3.55
4.39
5.09
5.62
5.99
6.18
6.14
5.86
5.34
4.63
3.87
3.21
2.75
2.55
2.58
2.79
3.13
3.57
4.04
4.42
4.53
4.31
3.79
3.18
2.73
2.62
2.83
3.16
3.39
3.31
2.93
2.34
1.73
1.21
0.80
0.41
-0.13
-0.98
-2.25
-3.97
-6.02
-8.17
-10.10
-11.50
-12.11
-11.84
-10.74
-9.03
-7.01
-5.00
-3.28
-2.01
-1.23
-0.80
-0.51
-0.13
0.48
1.36
2.35
3.27
3.93
4.27
4.33
4.28
4.27
4.41
4.66
4.93
5.05
4.95
4.65
4.24
3.84
3.52
3.27
3.02
2.73
2.43
2.18
1.99
1.83
1.54
1.03
0.29
-0.55
-1.24
-1.60
-1.60
-1.38
-1.17
-1.17
-1.46
-2.03
-2.85
-3.87
-5.04
-6.21
-7.16
-7.60
-7.31
-6.27
-4.63
-2.71
-0.81
0.85
2.20
3.26
4.07
4.69
5.15
5.57
6.06
6.70
7.50
8.33
8.99
9.28
9.09
8.46
7.48
6.31
5.09
3.93
2.92
2.11
1.56
1.25
1.14
1.12
1.13
1.19
1.36
1.74
2.40
3.35
4.55
5.92
7.40
8.92
10.45
11.91
13.28
14.47
15.33
15.57
14.77
12.47
8.36
2.56
-4.35
-11.40
-17.47
-21.65
-23.45
-22.90
-20.39
-16.55
-12.09
-7.67
-3.80
-0.87
0.96
1.75
1.74
1.24
0.58
-0.00
-0.34
-0.39
-0.18
0.18
0.57
0.88
1.09
1.26
1.51
1.93
2.60
3.53
4.69
6.00
7.27
8.26
8.69
8.34
7.15
5.29
3.12
1.03
-0.69
-1.93
-2.76
-3.29
-3.64
-3.85
-3.97
-4.07
-4.29
-4.78
-5.56
-6.51
-7.36
-7.83
-7.70
-6.97
-5.80
-4.46
-3.16
-1.98
-0.92
0.11
1.15
2.15
3.02
3.64
3.96
4.05
4.02
3.98
3.96
3.85
3.49
2.75
1.58
0.11
-1.42
-2.74
-3.67
-4.15
-4.29
-4.25
-4.20
-4.26
-4.40
-4.56
-4.68
-4.74
-4.75
-4.76
-4.79
-4.75
-4.58
-4.20
-3.65
-3.02
-2.47
-2.09
-1.92
-1.91
-1.96
-2.05
-2.21
-2.49
-2.95
-3.58
-4.30
-4.96
-5.39
-5.45
-5.06
-4.20
-2.98
-1.54
-0.08
1.24
2.34
3.22
3.91
4.45
4.79
4.91
4.80
4.54
4.30
4.26
4.47
4.86
5.26
5.43
5.27
4.79
4.11
3.39
2.76
2.28
1.96
1.82
1.83
1.97
2.17
2.38
2.55
2.69
2.88
3.20
3.75
4.57
5.64
6.85
8.03
8.93
9.29
8.88
7.63
5.65
3.17
0.53
-1.94
-3.98
-5.44
-6.24
-6.42
-6.08
-5.37
-4.49
-3.64
-2.92
-2.42
-2.12
-2.02
-2.12
-2.46
-3.11
-4.07
-5.31
-6.67
-7.96
-8.96
-9.50
-9.50
-8.98
-8.02
-6.72
-5.20
-3.60
-2.06
-0.76
0.16
0.61
0.63
0.33
-0.10
-0.53
-0.90
-1.20
-1.49
-1.82
-2.18
-2.48
-2.65
-2.63
-2.47
-2.29
-2.21
-2.33
-2.66
-3.15
-3.71
-4.24
-4.66
-4.90
-4.89
-4.59
-4.01
-3.22
-2.31
-1.41
-0.60
0.13
0.78
1.40
1.97
2.44
2.75
2.90
2.95
3.03
3.24
3.61
4.14
4.69
5.15
5.47
5.62
5.65
5.63
5.63
5.67
5.76
5.89
6.08
6.33
6.61
6.89
7.09
7.17
7.09
6.84
6.41
5.78
4.92
3.80
2.47
1.02
-0.48
-2.01
-3.66
-5.56
-7.78
-10.25
-12.71
-14.83
-16.32
-17.05
-17.11
-16.69
-15.96
-14.97
-13.63
-11.83
-9.54
-6.90
-4.21
-1.78
0.17
1.57
2.50
3.14
3.63
4.04
4.41
4.76
5.11
5.46
5.78
6.00
5.98
5.65
4.99
4.16
3.37
2.85
2.72
2.95
3.35
3.71
3.84
3.63
3.05
2.17
1.05
-0.20
-1.52
-2.84
-4.15
-5.43
-6.70
-7.91
-8.96
-9.72
-10.06
-9.91
-9.28
-8.26
-6.98
-5.53
-3.98
-2.38
-0.79
0.76
2.22
3.58
4.81
5.84
6.60
7.03
7.11
6.95
6.70
6.55
6.58
6.79
7.07
7.29
7.37
7.31
7.15
6.95
6.72
6.46
6.10
5.57
4.80
3.82
2.69
1.56
0.59
-0.07
-0.38
-0.41
-0.34
-0.35
-0.58
-1.09
-1.84
-2.78
-3.88
-5.11
-6.43
-7.74
-8.87
-9.61
-9.83
-9.51
-8.79
-7.91
-7.13
-6.58
-6.26
-6.08
-5.85
-5.46
-4.91
-4.27
-3.64
-3.11
-2.70
-2.36
-2.03
-1.64
-1.15
-0.52
0.28
1.28
2.40
3.55
4.59
5.42
6.01
6.40
6.70
6.94
7.14
7.20
7.06
6.66
6.03
5.25
4.45
3.74
3.20
2.81
2.53
2.22
1.75
1.02
-0.02
-1.34
-2.89
-4.55
-6.20
-7.69
-8.85
-9.50
-9.53
-8.94
-7.85
-6.45
-4.95
-3.50
-2.16
-0.91
0.26
1.35
2.31
3.11
3.74
4.18
4.47
4.61
4.61
4.50
4.30
4.09
3.93
3.91
4.06
4.37
4.76
5.13
5.37
5.42
5.27
4.99
4.67
4.39
4.18
4.00
3.78
3.44
2.93
2.22
1.35
0.40
-0.52
-1.34
-2.03
-2.66
-3.37
-4.24
-5.31
-6.47
-7.52
-8.24
-8.45
-8.08
-7.18
-5.90
-4.44
-3.01
-1.73
-0.67
0.20
0.96
1.62
2.17
2.54
2.68
2.69
2.77
3.17
4.11
5.64
7.63
9.74
11.59
12.74
12.84
11.66
9.17
5.63
1.48
-2.67
-6.20
-8.71
-10.05
-10.34
-9.90
-9.10
-8.24
-7.51
-6.94
-6.49
-6.06
-5.56
-5.00
-4.45
-4.02
-3.83
-3.98
-4.50
-5.36
-6.46
-7.63
-8.60
-9.05
-8.68
-7.36
-5.16
-2.40
0.45
2.94
4.76
5.83
6.25
6.21
5.95
5.61
5.28
4.95
4.57
4.06
3.33
2.35
1.12
-0.30
-1.81
-3.30
-4.65
-5.68
-6.24
-6.18
-5.48
-4.25
-2.78
-1.41
-0.41
0.08
0.16
0.05
0.03
0.32
1.00
1.99
3.13
4.25
5.24
6.01
6.54
6.80
6.76
6.44
5.86
5.13
4.39
3.78
3.47
3.54
4.05
4.95
6.12
7.35
8.35
8.90
8.92
8.49
7.86
7.26
6.84
6.55
6.20
5.60
4.59
3.22
1.62
0.04
-1.29
-2.19
-2.56
-2.42
-1.90
-1.19
-0.49
0.07
0.45
0.66
0.78
0.83
0.81
0.66
0.35
-0.11
-0.64
-1.12
-1.44
-1.53
-1.42
-1.16
-0.85
-0.56
-0.36
-0.28
-0.34
-0.58
-0.99
-1.50
-2.03
-2.42
-2.57
-2.41
-1.96
-1.28
-0.47
0.38
1.16
1.81
2.30
2.65
2.91
3.11
3.27
3.35
3.31
3.18
3.05
3.05
3.28
3.75
4.42
5.15
5.86
6.45
6.90
7.17
7.22
7.03
6.64
6.14
5.70
5.49
5.60
6.04
6.72
7.50
8.26
8.96
9.57
10.04
10.29
10.17
9.60
8.56
7.19
5.70
4.27
2.94
1.64
0.20
-1.41
-3.07
-4.50
-5.36
-5.44
-4.74
-3.46
-1.92
-0.39
0.94
2.00
2.79
3.31
3.52
3.44
3.11
2.66
2.24
2.00
1.95
2.03
2.09
2.01
1.79
1.51
1.34
1.43
1.81
2.42
3.11
3.69
4.00
3.93
3.41
2.42
0.99
-0.76
-2.64
-4.47
-6.09
-7.46
-8.62
-9.71
-10.84
-12.10
-13.50
-15.04
-16.67
-18.35
-19.99
-21.49
-22.69
-23.42
-23.57
-23.06
-21.91
-20.18
-17.98
-15.47
-12.82
-10.20
-7.80
-5.77
-4.15
-2.91
-1.93
-1.11
-0.40
0.16
0.48
0.54
0.43
0.40
0.73
1.58
2.95
4.58
6.08
7.12
7.55
7.48
7.22
7.12
7.42
8.13
9.08
9.97
10.53
10.57
10.00
8.85
7.16
5.02
2.55
-0.09
-2.66
-4.98
-6.91
-8.45
-9.64
-10.57
-11.31
-11.87
-12.26
-12.47
-12.53
-12.46
-12.24
-11.81
-11.10
-10.08
-8.78
-7.34
-5.90
-4.59
-3.50
-2.63
-1.94
-1.39
-0.99
-0.71
-0.50
-0.28
0.08
0.69
1.58
2.68
3.88
5.02
5.99
6.74
7.23
7.49
7.52
7.35
7.05
6.71
6.44
6.33
6.38
6.56
6.76
6.88
6.87
6.71
6.41
5.98
5.40
4.64
3.65
2.43
1.03
-0.45
-1.83
-2.91
-3.59
-3.83
-3.69
-3.29
-2.72
-2.01
-1.15
-0.16
0.88
1.86
2.66
3.25
3.71
4.14
4.62
5.11
5.49
5.64
5.48
5.06
4.51
3.97
3.55
3.24
3.00
2.77
2.50
2.24
2.05
2.00
2.13
2.40
2.75
3.10
3.41
3.71
4.05
4.46
4.90
5.24
5.33
5.06
4.40
3.43
2.26
1.04
-0.17
-1.35
-2.51
-3.64
-4.73
-5.71
-6.53
-7.08
-7.26
-6.99
-6.23
-5.03
-3.53
-1.91
-0.33
1.12
2.43
3.60
4.62
5.44
6.01
6.34
6.45
6.43
6.32
6.14
5.83
5.35
4.72
4.00
3.24
2.53
1.84
1.15
0.43
-0.29
-0.95
-1.47
-1.84
-2.10
-2.34
-2.64
-3.01
-3.46
-3.99
-4.65
-5.47
-6.48
-7.59
-8.61
-9.32
-9.57
-9.37
-8.88
-8.36
-8.03
-7.95
-8.01
-7.97
-7.57
-6.65
-5.22
-3.46
-1.59
0.16
1.69
2.94
3.94
4.68
5.13
5.27
5.14
4.81
4.42
4.09
3.91
3.85
3.83
3.73
3.46
2.98
2.37
1.75
1.31
1.17
1.36
1.80
2.31
2.64
2.60
2.10
1.15
-0.16
-1.69
-3.30
-4.85
-6.27
-7.49
-8.53
-9.45
-10.33
-11.25
-12.27
-13.38
-14.49
-15.46
-16.03
-15.98
-15.11
-13.36
-10.86
-7.88
-4.84
-2.09
0.13
1.80
3.05
4.10
5.10
6.05
6.84
7.32
7.42
7.21
6.88
6.60
6.46
6.39
6.25
5.93
5.36
4.62
3.81
3.00
2.22
1.43
0.62
-0.18
-0.89
-1.49
-2.03
-2.63
-3.39
-4.31
-5.25
-6.01
-6.38
-6.30
-5.83
-5.19
-4.61
-4.28
-4.33
-4.79
-5.56
-6.47
-7.25
-7.61
-7.33
-6.37
-4.83
-2.98
-1.11
0.60
2.05
3.27
4.29
5.11
5.67
5.88
5.67
5.05
4.13
3.09
2.11
1.33
0.84
0.65
0.71
0.96
1.37
1.96
2.75
3.67
4.61
5.33
5.63
5.39
4.71
3.85
3.11
2.76
2.82
3.18
3.57
3.72
3.45
2.72
1.58
0.20
-1.25
-2.61
-3.76
-4.67
-5.35
-5.83
-6.11
-6.16
-5.93
-5.41
-4.63
-3.65
-2.58
-1.47
-0.41
0.58
1.41
2.07
2.54
2.86
3.11
3.35
3.63
3.98
4.40
4.87
5.34
5.69
5.74
5.41
4.71
3.85
3.15
2.88
3.13
3.78
4.48
4.87
4.68
3.83
2.43
0.78
-0.83
-2.17
-3.17
-3.89
-4.51
-5.21
-6.10
-7.15
-8.25
-9.22
-9.90
-10.21
-10.15
-9.80
-9.25
-8.64
-8.09
-7.69
-7.49
-7.49
-7.60
-7.66
-7.49
-6.95
-5.98
-4.64
-3.07
-1.50
-0.08
1.07
1.94
2.56
2.98
3.26
3.47
3.67
3.91
4.24
4.62
4.95
5.09
4.91
4.39
3.56
2.59
1.62
0.78
0.11
-0.45
-0.95
-1.45
-1.96
-2.45
-2.88
-3.26
-3.65
-4.09
-4.62
-5.18
-5.67
-5.92
-5.75
-5.12
-4.06
-2.75
-1.38
-0.15
0.88
1.69
2.34
2.87
3.28
3.55
3.69
3.73
3.73
3.74
3.77
3.82
3.85
3.87
3.91
4.00
4.19
4.47
4.80
5.13
5.37
5.46
5.38
5.18
4.92
4.69
4.51
4.34
4.09
3.67
3.04
2.23
1.34
0.46
-0.34
-1.04
-1.68
-2.28
-2.90
-3.57
-4.29
-5.00
-5.57
-5.84
-5.67
-5.05
-4.08
-2.95
-1.87
-0.96
-0.22
0.44
1.12
1.82
2.47
2.93
3.12
3.04
2.82
2.61
2.56
2.73
3.09
3.50
3.83
3.95
3.83
3.53
3.13
2.74
2.40
2.12
1.84
1.53
1.18
0.80
0.41
-0.00
-0.47
-1.01
-1.62
-2.26
-2.92
-3.59
-4.33
-5.16
-6.08
-7.04
-7.92
-8.61
-9.04
-9.14
-8.91
-8.31
-7.31
-5.94
-4.29
-2.52
-0.84
0.61
1.75
2.63
3.31
3.85
4.23
4.42
4.36
4.10
3.78
3.58
3.64
4.00
4.57
5.18
5.63
5.78
5.59
5.10
4.42
3.71
3.11
2.72
2.57
2.59
2.70
2.79
2.79
2.68
2.50
2.32
2.16
1.99
1.74
1.31
0.62
-0.32
-1.44
-2.61
-3.67
-4.50
-5.02
-5.20
-5.01
-4.46
-3.56
-2.38
-1.04
0.30
1.52
2.50
3.22
3.73
4.10
4.41
4.69
4.98
5.26
5.49
5.64
5.71
5.73
5.72
5.72
5.69
5.57
5.34
4.99
4.59
4.24
3.97
3.76
3.53
3.18
2.68
2.07
1.42
0.78
0.17
-0.44
-1.06
-1.67
-2.21
-2.62
-2.88
-3.02
-3.12
-3.25
-3.48
-3.83
-4.21
-4.43
-4.31
-3.69
-2.54
-1.05
0.48
1.73
2.45
2.60
2.31
1.78
1.18
0.57
-0.07
-0.79
-1.62
-2.53
-3.44
-4.26
-4.89
-5.25
-5.31
-5.04
-4.51
-3.86
-3.22
-2.75
-2.54
-2.58
-2.79
-3.02
-3.15
-3.09
-2.82
-2.38
-1.86
-1.31
-0.78
-0.24
0.34
0.98
1.62
2.12
2.30
2.00
1.10
-0.40
-2.36
-4.53
-6.63
-8.31
-9.35
-9.61
-9.14
-8.10
-6.73
-5.25
-3.87
-2.66
-1.65
-0.80
-0.04
0.67
1.39
2.09
2.75
3.32
3.74
4.00
4.13
4.19
4.22
4.24
4.24
4.22
4.15
4.07
3.98
3.87
3.72
3.50
3.21
2.87
2.57
2.37
2.37
2.62
3.10
3.73
4.39
4.92
5.18
5.08
4.61
3.78
2.62
1.21
-0.34
-1.88
-3.17
-4.02
-4.31
-4.06
-3.42
-2.56
-1.63
-0.73
0.17
1.03
1.84
2.53
3.04
3.32
3.40
3.32
3.15
2.97
2.82
2.73
2.69
2.68
2.69
2.72
2.77
2.86
2.97
3.02
2.95
2.68
2.25
1.72
1.25
0.94
0.81
0.82
0.87
0.86
0.75
0.51
0.14
-0.35
-0.97
-1.68
-2.41
-3.12
-3.78
-4.37
-4.92
-5.37
-5.61
-5.51
-4.98
-4.02
-2.75
-1.35
-0.01
1.18
2.15
2.89
3.41
3.75
3.97
4.17
4.44
4.83
5.33
5.85
6.31
6.64
6.80
6.77
6.56
6.20
5.73
5.20
4.67
4.16
3.68
3.20
2.67
2.06
1.36
0.63
-0.03
-0.51
-0.77
-0.84
-0.86
-1.00
-1.34
-1.90
-2.57
-3.21
-3.72
-4.07
-4.33
-4.58
-4.87
-5.23
-5.67
-6.21
-6.84
-7.51
-8.05
-8.25
-7.93
-7.05
-5.74
-4.25
-2.82
-1.59
-0.54
0.43
1.41
2.37
3.20
3.78
4.05
4.11
4.11
4.20
4.44
4.80
5.18
5.46
5.58
5.53
5.37
5.18
5.03
4.95
4.92
4.88
4.77
4.54
4.18
3.75
3.33
2.97
2.67
2.37
1.96
1.38
0.64
-0.19
-0.98
-1.60
-1.99
-2.18
-2.27
-2.37
-2.57
-2.94
-3.48
-4.21
-5.10
-6.06
-6.94
-7.53
-7.66
-7.27
-6.42
-5.24
-3.94
-2.66
-1.47
-0.40
0.55
1.34
1.95
2.37
2.63
2.83
3.03
3.28
3.56
3.82
3.97
3.99
3.91
3.78
3.67
3.61
3.59
3.54
3.40
3.10
2.64
2.02
1.32
0.62
-0.01
-0.51
-0.87
-1.09
-1.22
-1.33
-1.48
-1.74
-2.12
-2.55
-2.93
