1651141232.00
64.000000
-0.00
-0.00
-0.00
-0.00
-0.00
-0.00
-0.00
-0.00
-0.00
-0.00
0.00
0.01
0.01
-0.00
-0.03
-0.05
-0.05
0.00
0.13
0.36
0.66
1.01
1.37
1.72
2.06
2.40
2.79
3.24
3.80
4.42
5.06
5.66
6.20
6.68
7.15
7.68
8.31
9.14
10.09
11.04
11.88
12.56
13.14
13.76
14.65
15.96
17.91
20.32
22.90
25.38
27.58
29.57
31.68
34.32
37.81
42.54
48.15
54.10
59.83
64.97
69.58
74.14
79.34
85.71
93.76
103.00
112.62
121.73
129.77
136.75
143.30
150.75
157.77
166.64
177.95
191.79
206.97
220.57
228.25
225.36
208.53
176.87
132.76
80.05
23.07
-34.94
-92.44
-149.16
-205.23
-260.37
-313.74
-363.87
-409.83
-450.91
-486.50
-515.74
-537.23
-549.22
-549.96
-538.37
-514.21
-478.67
-433.88
-382.45
-327.02
-269.84
-212.63
-156.66
-102.95
-52.37
-5.90
35.58
71.43
101.35
125.50
144.38
158.69
169.15
176.37
180.75
182.57
182.07
179.51
175.23
169.65
163.18
156.15
148.81
141.30
133.69
126.02
118.33
110.69
103.16
95.80
88.68
81.83
75.25
68.95
62.95
57.25
51.86
46.78
42.03
37.59
33.45
29.61
26.07
22.81
19.83
17.11
14.67
12.48
10.54
8.83
7.35
6.07
4.97
4.05
3.27
2.62
2.09
1.65
1.30
1.01
0.79
0.61
0.47
0.37
0.29
0.23
0.20
0.17
0.16
0.17
0.18
0.20
0.22
0.26
0.29
0.34
0.38
0.42
0.46
0.51
0.56
0.61
0.66
0.71
0.77
0.84
0.91
0.99
1.07
1.17
1.28
1.40
1.53
1.68
1.85
2.04
2.25
2.48
2.74
3.02
3.33
3.68
4.05
4.46
4.91
5.39
5.91
6.48
7.08
7.73
8.42
9.15
9.93
10.76
11.62
12.54
13.49
14.50
15.57
16.71
17.90
19.15
20.41
21.67
22.83
23.81
24.50
24.76
24.47
23.51
21.82
19.37
16.19
12.35
8.01
3.39
-1.31
-5.83
-9.94
-13.44
-16.19
-18.11
-19.17
-19.42
-18.98
-17.98
-16.55
-14.83
-12.95
-10.99
-9.04
-7.13
-5.26
-3.46
-1.67
0.11
1.98
3.98
6.11
8.38
10.74
13.19
15.56
17.80
19.89
21.84
23.66
25.36
26.91
28.33
29.68
30.78
31.64
32.41
33.30
34.49
36.09
38.13
40.56
43.44
46.38
49.37
52.55
56.19
60.43
65.20
70.21
75.05
79.39
82.48
84.16
84.60
84.11
82.78
80.09
74.80
64.72
51.93
36.71
19.61
1.42
-16.94
-34.77
-51.90
-68.61
-85.53
-103.44
-123.77
-147.54
-175.00
-205.10
-235.15
-261.06
-278.25
-283.17
-274.46
-254.10
-225.97
-194.52
-163.24
-133.91
-106.77
-81.38
-57.56
-35.64
-16.60
-1.01
11.19
20.73
28.52
35.30
41.42
46.85
51.48
55.11
57.74
59.51
60.58
61.06
60.98
60.26
58.76
56.25
52.49
47.33
40.89
33.56
25.95
18.71
12.29
6.90
2.49
-1.07
-3.86
-5.86
-6.95
-7.13
-6.51
-5.42
-4.17
-3.00
-1.91
-0.71
0.91
3.26
6.59
11.07
16.78
23.63
31.33
39.35
47.05
53.77
58.92
61.99
62.50
59.98
54.22
45.44
34.55
23.01
12.54
4.62
0.18
-0.43
2.75
9.50
19.38
31.52
44.51
56.39
65.20
69.56
69.06
64.29
56.41
46.63
35.84
24.62
13.46
3.12
-5.33
-10.67
-11.97
-9.02
-2.54
5.88
14.14
20.12
22.27
19.99
13.77
4.99
-4.56
-13.25
-20.12
-25.10
-28.79
-32.09
-35.65
-39.63
-43.67
-47.25
-50.05
-52.12
-53.88
-55.84
-58.33
-61.28
-64.28
-66.74
-68.03
-67.66
-65.30
-60.83
-54.37
-46.27
-37.10
-27.58
-18.40
-10.15
-3.21
2.19
5.97
8.17
8.98
8.69
7.77
6.73
5.98
5.75
6.01
6.52
7.00
7.26
7.24
7.10
7.05
7.30
7.85
8.60
9.25
9.54
9.32
8.63
7.65
6.62
5.68
4.86
4.05
3.08
1.88
0.44
-1.16
-2.79
-4.40
-5.99
-7.57
-9.18
-10.87
-12.67
-14.58
-16.64
-18.87
-21.31
-24.07
-27.31
-31.19
-35.77
-40.90
-46.17
-50.84
-54.04
-54.94
-53.01
-48.20
-41.01
-32.41
-23.52
-15.37
-8.61
-3.47
0.25
2.94
5.06
7.02
9.13
11.56
14.37
17.44
20.51
23.25
25.37
26.78
27.56
27.97
28.28
28.64
29.06
29.45
29.67
29.64
29.32
28.75
27.93
26.86
25.49
23.74
21.60
19.12
16.38
13.47
10.54
7.73
5.14
2.87
0.90
-0.90
-2.72
-4.75
-7.05
-9.58
-12.15
-14.56
-16.66
-18.42
-19.93
-21.39
-23.08
-25.27
-28.16
-31.64
-35.27
-38.30
-39.83
-39.08
-35.65
-29.70
-21.85
-13.03
-4.24
3.72
10.37
15.58
19.46
22.25
24.12
25.22
25.63
25.47
24.92
24.19
23.40
22.60
21.75
20.81
19.82
18.99
18.56
18.72
19.45
20.52
21.54
22.10
21.94
21.04
19.62
18.00
16.53
15.35
14.45
13.66
12.74
11.51
9.93
8.06
6.04
4.01
2.13
0.50
-0.85
-1.95
-2.96
-4.05
-5.43
-7.17
-9.23
-11.42
-13.49
-15.29
-16.78
-18.12
-19.56
-21.41
-23.85
-26.77
-29.73
-31.93
-32.47
-30.53
-25.79
-18.51
-9.56
-0.06
8.90
16.62
22.86
27.74
31.45
34.09
35.57
35.74
34.56
32.28
29.41
26.58
24.33
22.93
22.29
22.06
21.81
21.20
20.10
18.52
16.52
14.07
11.01
7.16
2.47
-2.88
-8.48
-13.78
-18.28
-21.63
-23.62
-24.24
-23.55
-21.83
-19.67
-18.01
-17.91
-20.13
-24.69
-30.69
-36.54
-40.54
-41.58
-39.45
-34.89
-29.14
-23.46
-18.71
-15.38
-13.70
-13.73
-15.54
-19.11
-24.22
-30.37
-36.76
-42.29
-45.75
-46.01
-42.35
-34.74
-23.93
-11.32
1.48
13.08
22.69
30.12
35.62
39.63
42.47
44.29
45.03
44.57
42.79
39.55
34.90
28.99
22.26
15.35
9.13
4.51
2.22
2.63
5.60
10.45
16.04
21.05
24.38
25.45
24.53
22.60
21.11
21.29
23.71
27.93
32.74
36.62
38.37
37.57
34.57
30.17
25.13
19.84
14.24
8.04
1.06
-6.52
-14.14
-20.92
-25.95
-28.50
-28.23
-25.23
-20.11
-13.84
-7.66
-2.79
-0.20
-0.26
-2.62
-6.30
-9.99
-12.47
-12.96
-11.29
-7.79
-3.05
2.36
8.08
13.96
19.98
26.11
32.21
38.09
43.47
48.07
51.71
54.20
55.39
55.16
53.35
49.92
45.02
39.03
32.66
26.75
22.08
19.05
17.55
16.95
16.41
15.23
13.15
10.40
7.59
5.30
3.80
2.94
2.16
0.87
-1.27
-4.14
-7.15
-9.49
-10.46
-9.79
-7.75
-5.05
-2.54
-0.89
-0.35
-0.68
-1.35
-1.76
-1.45
-0.11
2.51
6.71
12.86
21.20
31.67
43.72
56.56
69.53
82.39
95.22
107.82
119.15
127.07
128.99
123.02
109.11
89.47
67.84
48.16
32.99
22.87
16.48
11.69
6.53
-0.14
-8.58
-18.59
-29.85
-42.25
-55.72
-69.78
-83.28
-94.40
-101.25
-102.88
-99.91
-94.51
-89.46
-86.87
-87.23
-89.46
-91.67
-92.26
-90.54
-86.68
-81.23
-74.66
-67.34
-59.87
-53.32
-49.16
-48.78
-52.86
-60.93
-71.29
-81.35
-88.20
-89.25
-82.87
-68.90
-48.80
-25.55
-2.98
15.04
25.52
26.97
19.61
5.22
-13.45
-33.34
-51.95
-67.71
-80.13
-89.48
-96.26
-100.79
-103.02
-102.68
-99.62
-94.14
-87.04
-79.46
-72.45
-66.63
-61.95
-57.82
-53.46
-48.26
-42.11
-35.38
-28.76
-22.85
-17.76
-12.90
-7.20
0.52
10.85
23.46
37.02
49.49
58.62
62.46
59.65
49.71
33.22
11.99
-10.93
-31.63
-46.06
-51.05
-45.28
-29.87
-8.28
14.50
33.26
44.04
45.28
38.14
25.92
12.74
2.12
-4.19
-6.31
-5.73
-4.36
-3.70
-4.49
-6.77
-10.23
-14.46
-19.06
-23.66
-27.93
-31.68
-34.90
-37.88
-41.29
-45.94
-52.55
-61.43
-72.19
-83.81
-94.88
-104.01
-110.16
-112.75
-111.59
-106.77
-98.48
-87.14
-73.41
-58.19
-42.51
-27.20
-12.77
0.67
13.15
24.63
34.76
43.01
48.80
51.82
52.13
50.31
47.19
43.75
40.76
38.69
37.52
36.82
35.79
33.51
29.30
23.29
16.79
12.37
13.23
22.09
40.04
65.71
95.36
123.76
145.45
156.12
153.55
137.96
111.80
79.17
44.90
13.61
-11.04
-27.01
-33.96
-33.18
-26.99
-18.01
-8.50
0.11
7.35
13.60
19.59
25.94
32.85
39.99
46.67
52.14
55.82
57.41
56.92
54.60
50.99
46.78
42.75
39.55
37.49
36.54
36.30
36.22
35.82
34.87
33.37
31.48
29.38
27.17
24.82
22.33
19.73
17.10
14.48
11.84
9.14
6.47
4.09
2.37
1.56
1.56
1.88
1.79
0.70
-1.55
-4.69
-8.27
-11.89
-15.45
-19.11
-23.04
-27.25
-31.55
-35.71
-39.73
-43.97
-49.02
-55.44
-63.37
-72.11
-80.14
-85.41
-85.93
-80.42
-68.80
-52.13
-32.33
-11.57
8.29
26.09
41.30
53.90
64.07
71.99
77.77
81.50
83.41
83.80
83.09
81.68
79.88
77.86
75.72
73.58
71.61
70.03
69.05
68.67
68.66
68.61
68.05
66.63
64.22
60.95
57.10
52.95
48.70
44.41
40.04
35.53
30.85
26.02
21.11
16.18
11.32
6.60
2.07
-2.19
-6.21
-10.08
-13.95
-17.94
-22.16
-26.65
-31.45
-36.70
-42.62
-49.43
-57.07
-64.95
-71.81
-75.95
-75.69
-69.97
-58.83
-43.45
-25.81
-8.03
8.22
22.03
33.25
42.11
49.00
54.16
57.73
59.81
60.54
60.12
58.78
56.78
54.40
51.94
49.70
47.92
46.73
46.06
45.79
45.68
45.51
45.13
44.40
43.23
41.60
39.53
37.11
34.46
31.78
29.18
26.75
24.46
22.18
19.76
17.08
14.11
10.95
7.74
4.65
1.74
-1.04
-3.85
-6.89
-10.34
-14.28
-18.64
-23.23
-27.72
-31.83
-35.35
-38.24
-40.68
-43.05
-45.80
-49.40
-54.13
-59.98
-66.42
-72.42
-76.52
-77.20
-73.39
-64.84
-52.29
-37.24
-21.44
-6.38
7.01
18.41
27.86
35.52
41.48
45.78
48.49
49.77
49.93
49.29
48.13
46.60
44.78
42.76
40.65
38.65
36.99
35.86
35.31
35.28
35.56
35.88
35.92
35.43
34.23
32.28
29.62
26.41
22.90
19.37
16.06
13.15
10.62
8.29
5.82
2.90
-0.66
-4.75
-9.01
-12.99
-16.37
-19.12
-21.52
-24.00
-26.88
-30.18
-33.63
-36.86
-39.57
-41.75
-43.62
-45.52
-47.76
-50.52
-53.89
-57.98
-62.85
-68.41
-74.18
-79.18
-82.07
-81.49
-76.58
-67.34
-54.74
-40.41
-26.17
-13.50
-3.20
4.69
10.62
15.22
18.91
21.80
23.74
24.51
24.08
22.74
21.07
19.73
19.31
20.16
22.51
26.53
32.41
40.23
49.75
60.33
70.86
80.08
86.97
90.98
92.19
91.07
88.22
84.02
78.52
71.53
62.96
52.99
42.19
31.33
21.14
12.02
3.95
-3.35
-10.22
-16.84
-23.13
-28.90
-33.96
-38.31
-42.15
-45.87
-49.86
-54.41
-59.61
-65.17
-70.44
-74.42
-76.00
-74.29
-68.95
-60.32
-49.32
-37.25
-25.44
-15.04
-6.89
-1.48
1.09
1.20
-0.25
-2.09
-3.15
-2.63
-0.40
3.13
7.14
10.88
13.78
15.63
16.42
16.22
15.18
13.55
11.73
10.28
9.67
10.13
11.50
13.22
14.59
15.02
14.31
12.65
10.51
8.38
6.51
4.87
3.19
1.21
-1.15
-3.74
-6.26
-8.47
-10.33
-11.99
-13.78
-16.01
-18.79
-22.04
-25.55
-29.07
-32.44
-35.59
-38.56
-41.43
-44.29
-47.32
-50.78
-54.98
-60.08
-65.87
-71.49
-75.65
-76.82
-73.84
-66.34
-54.94
-41.05
-26.36
-12.34
0.04
10.41
18.80
25.43
30.52
34.25
36.76
38.19
38.73
38.60
38.03
37.19
36.19
35.02
33.69
32.26
30.90
29.88
29.45
29.67
30.35
31.04
31.18
30.32
28.29
25.29
21.74
18.19
14.99
12.28
9.87
7.43
4.67
1.43
-2.18
-5.92
-9.41
-12.44
-14.87
-16.81
-18.46
-20.13
-22.17
-24.90
-28.52
-32.90
-37.53
-41.52
-43.88
-43.84
-41.17
-36.28
-30.10
-23.78
-18.24
-13.98
-10.99
-8.83
-6.89
-4.61
-1.61
2.14
6.33
10.48
14.08
16.84
18.78
20.22
21.55
23.01
24.55
25.74
25.89
24.30
20.55
14.79
7.84
1.13
-3.66
-5.19
-2.90
2.71
10.26
17.91
24.05
27.67
28.57
27.21
24.29
20.53
16.47
12.53
9.00
6.12
3.93
2.29
0.84
-0.80
-2.91
-5.52
-8.43
-11.30
-13.91
-16.18
-18.23
-20.30
-22.58
-25.23
-28.29
-31.75
-35.46
-39.22
-42.83
-46.14
-49.24
-52.48
-56.38
-61.36
-67.38
-73.65
-78.65
-80.47
-77.36
-68.52
-54.47
-37.09
-19.08
-3.17
8.77
16.15
19.67
20.90
21.52
22.74
24.88
27.39
29.14
28.96
26.31
21.58
16.14
11.67
9.28
8.83
8.90
7.47
2.94
-5.21
-16.21
-28.47
-39.89
-47.92
-49.54
-41.36
-20.60
13.36
57.61
105.47
148.03
176.92
187.13
178.40
154.48
120.92
82.59
42.53
2.48
-35.61
-68.52
-91.99
-102.61
-100.00
-87.67
-71.75
-58.16
-49.60
-44.47
-38.36
-27.02
-8.99
13.71
37.18
57.98
74.86
88.74
101.34
113.74
125.64
135.77
142.77
145.95
145.44
141.91
136.22
129.16
121.37
113.35
105.34
97.39
89.45
81.62
74.26
67.72
62.06
56.83
51.15
44.18
35.52
25.59
15.61
7.33
2.47
2.02
5.67
11.68
17.35
20.03
18.13
11.68
2.18
-8.08
-17.05
-23.54
-27.28
-28.59
-27.87
-25.21
-20.40
-13.13
-3.38
8.36
21.06
33.34
43.90
51.88
57.03
59.61
60.03
58.52
54.98
49.15
40.96
30.78
19.38
7.74
-3.43
-13.83
-23.71
-33.57
-43.81
-54.51
-65.42
-76.07
-86.00
-94.97
-103.05
-110.48
-117.58
-124.56
-131.52
-138.32
-144.75
-150.40
-154.75
-157.15
-156.91
-153.43
-146.39
-135.87
-122.44
-107.07
-90.94
-75.17
-60.44
-46.85
-33.95
-20.93
-7.06
8.04
24.14
40.56
56.39
70.80
83.27
93.50
101.43
106.98
110.01
110.44
108.29
103.75
97.30
89.79
82.09
74.88
68.34
62.21
55.99
49.13
41.16
32.05
22.29
12.76
4.26
-2.83
-8.69
-13.94
-19.36
-26.07
-34.71
-45.27
-57.30
-70.39
-84.41
-99.32
-114.90
-130.65
-147.14
-164.46
-181.76
-197.51
-210.15
-218.64
-222.40
-221.19
-215.26
-208.18
-203.26
-201.98
-203.66
-206.56
-208.73
-208.25
-203.54
-194.02
-184.69
-180.31
-182.48
-189.06
-196.54
-202.31
-205.57
-207.23
-209.37
-219.57
-242.62
-276.98
-315.62
-350.50
-376.44
-391.87
-398.13
-362.90
-273.87
-144.49
-6.08
114.60
207.03
272.82
317.60
346.10
360.15
358.54
341.44
313.70
284.00
260.30
246.36
241.93
244.26
250.19
253.18
249.32
239.38
227.95
219.98
218.23
223.29
233.83
247.80
260.66
268.70
270.26
266.11
258.11
247.98
237.54
227.64
218.51
208.68
195.98
178.01
153.38
121.91
84.49
43.64
1.58
-39.57
-76.39
-103.76
-118.52
-121.22
-115.51
-110.35
-107.54
-107.26
-109.45
-114.35
-119.51
-124.47
-129.20
-133.74
-138.31
-142.49
-146.51
-150.17
-152.41
-151.81
-147.87
-140.47
-129.81
-116.12
-99.04
-78.88
-56.40
-32.68
-9.29
11.62
28.59
41.39
51.02
59.30
67.37
75.29
82.24
86.83
87.49
83.49
75.08
63.37
49.97
36.27
23.37
12.15
3.10
-3.80
-9.08
-13.68
-18.79
-25.42
-34.17
-44.92
-56.87
-68.77
-79.32
-87.47
-92.61
-94.51
-93.35
-89.64
-84.20
-78.14
-72.69
-68.89
-67.26
-67.50
-68.47
-68.43
-65.67
-59.03
-48.37
-34.59
-19.23
-4.00
9.82
21.61
31.37
39.43
46.16
51.81
56.47
60.19
63.04
65.09
66.38
66.83
66.25
64.52
61.71
58.17
54.50
51.36
49.23
48.19
47.90
47.69
46.84
44.87
41.66
37.48
32.81
28.11
23.67
19.50
15.49
11.38
6.94
1.93
-3.90
-10.74
-18.66
-27.39
-36.28
-44.32
-50.40
-53.59
-53.45
-50.10
-44.07
-36.11
-26.82
-16.73
-6.24
4.10
13.61
21.56
27.42
31.13
33.11
34.10
34.78
35.45
35.96
35.91
35.00
33.26
31.12
29.18
27.89
27.42
27.64
28.30
29.14
30.00
30.73
31.07
30.75
29.53
27.42
24.74
22.03
19.70
17.78
15.77
12.82
8.04
0.95
-8.26
-18.70
-28.98
-37.60
-43.30
-45.26
-43.28
-37.67
-29.24
-19.08
-8.42
1.61
10.14
16.66
21.03
23.46
24.41
24.56
24.70
25.54
27.52
30.61
34.28
37.65
39.89
40.56
39.86
38.60
37.98
39.19
43.06
49.79
58.74
68.42
76.73
81.37
80.56
73.70
61.75
47.09
32.80
21.73
15.64
14.80
18.22
24.23
31.13
37.54
42.52
45.38
45.69
43.28
38.47
32.12
25.46
19.73
15.72
13.50
12.38
11.32
9.36
6.00
1.28
-4.40
-10.54
-16.92
-23.61
-30.82
-38.54
-46.30
-53.12
-57.92
-59.99
-59.38
-56.88
-53.56
-50.25
-47.17
-43.97
-40.15
-35.52
-30.40
-25.47
-21.46
-18.73
-17.22
-16.54
-16.24
-15.89
-15.08
-13.33
-10.15
-5.19
1.44
9.06
16.58
22.83
27.01
28.82
28.45
26.29
22.67
17.79
11.87
5.43
-0.59
-5.07
-7.02
-6.06
-2.48
2.85
8.85
14.54
19.23
22.36
23.43
21.93
17.52
10.37
1.18
-8.90
-18.78
-27.93
-36.43
-44.73
-53.07
-61.09
-67.81
-72.14
-73.38
-71.63
-67.56
-62.02
-55.49
-48.01
-39.35
-29.41
-18.49
-7.23
3.68
13.73
22.73
30.67
37.57
43.31
47.74
50.73
52.30
52.60
51.76
49.89
47.00
43.19
38.86
34.85
32.47
33.11
37.76
46.39
57.71
69.22
77.90
81.09
77.23
66.28
49.54
29.17
7.58
-13.12
-31.34
-46.13
-57.24
-64.97
-69.98
-73.01
-74.65
-75.13
-74.48
-72.64
-69.70
-65.95
-61.68
-57.08
-52.17
-46.91
-41.41
-36.06
-31.37
-27.70
-25.02
-22.89
-20.62
-17.63
-13.75
-9.27
-4.86
-1.25
0.96
1.45
0.23
-2.46
-6.19
-10.34
-14.23
-17.21
-18.79
-18.68
-16.91
-13.67
-9.32
-4.27
0.92
5.56
8.77
9.60
7.25
1.27
-8.23
-20.69
-35.20
-50.68
-66.06
-80.32
-92.48
-101.67
-107.28
-109.00
-106.90
-101.18
-92.08
-79.81
-64.64
-47.13
-28.23
-9.09
9.17
25.84
40.71
53.89
65.51
75.44
83.29
88.60
91.20
91.31
89.58
86.91
84.10
81.72
79.89
78.30
76.27
72.98
67.84
60.76
52.32
43.66
36.14
30.86
28.26
28.02
29.25
30.92
32.12
32.34
31.42
29.37
26.24
22.09
17.02
11.26
5.15
-0.94
-6.74
-12.13
-17.18
-21.99
-26.59
-30.77
-34.14
-36.19
-36.43
-34.64
-30.86
-25.53
-19.34
-13.04
-7.27
-2.28
2.07
6.25
10.76
15.88
21.51
27.21
32.46
36.90
40.44
43.25
45.43
46.92
47.36
46.32
43.44
38.59
31.90
23.78
14.91
6.28
-1.01
-5.96
-8.15
-8.00
-6.70
-5.78
-6.47
-9.18
-13.43
-18.19
-22.46
-25.72
-28.04
-29.82
-31.52
-33.42
-35.70
-38.54
-42.23
-46.96
-52.64
-58.83
-64.86
-70.16
-74.49
-78.01
-80.98
-83.51
-85.40
-86.26
-85.91
-84.47
-82.39
-79.99
-77.28
-73.96
-69.58
-63.96
-57.22
-49.56
-41.02
-31.27
-19.89
-6.77
7.46
21.52
33.99
44.07
52.14
59.66
68.66
80.72
96.22
114.20
132.64
149.21
162.04
170.08
173.10
171.46
165.81
156.92
145.56
132.57
118.79
104.94
91.57
78.93
67.09
55.94
45.38
35.32
25.76
16.70
8.16
0.08
-7.68
-15.29
-22.86
-30.32
-37.38
-43.53
-48.18
-50.88
-51.50
-50.30
-47.87
-44.87
-41.73
-38.47
-34.71
-29.86
-23.43
-15.31
-5.87
4.13
13.78
22.27
29.03
33.80
36.56
37.52
37.03
35.59
33.83
32.37
31.73
32.20
33.71
35.88
38.16
39.92
40.64
40.04
38.11
35.11
31.51
27.85
24.57
21.89
19.79
18.04
16.40
14.81
13.38
12.40
12.13
12.58
13.43
14.18
14.30
13.54
11.95
9.91
7.89
6.27
5.22
4.65
4.31
3.96
3.43
2.76
2.15
1.85
2.08
2.90
4.21
5.77
7.32
8.64
9.66
10.52
11.52
13.19
16.05
20.56
26.78
34.33
42.38
49.95
56.24
60.87
63.93
65.78
66.76
66.98
66.32
64.56
61.65
57.70
52.96
47.67
41.86
35.38
28.03
19.66
10.35
0.35
-10.04
-20.64
-31.39
-42.40
-53.83
-65.78
-78.27
-91.26
-104.70
-118.55
-132.61
-146.57
-159.86
-171.81
-181.85
-189.74
-195.62
-199.96
-203.20
-205.60
-207.11
-207.54
-206.68
-204.42
-200.70
-195.37
-187.90
-177.51
-163.28
-144.75
-122.14
-96.49
-69.42
-42.71
-17.93
3.94
22.52
37.97
50.50
60.44
68.26
74.55
79.99
85.22
90.70
96.63
102.99
109.13
114.21
117.66
119.30
119.42
118.50
117.07
115.57
114.28
112.51
109.25
103.71
95.67
85.46
73.70
60.97
47.70
34.11
19.35
2.48
-16.88
-38.21
-60.37
-82.27
-103.37
-123.74
-138.26
-142.64
-135.14
-117.80
-94.78
-70.16
-47.20
-28.59
-16.18
-10.78
-12.32
-19.31
-29.14
-38.91
-46.48
-50.96
-52.56
-51.83
-49.37
-46.13
-42.86
-39.86
-36.83
-33.11
-27.88
-21.16
-12.56
-2.82
5.99
11.20
10.43
2.65
-11.35
-28.86
-46.11
-59.36
-66.39
-67.24
-63.95
-59.47
-56.27
-55.30
-55.60
-55.17
-51.92
-44.77
-33.93
-20.48
-5.63
9.96
24.72
37.82
48.77
57.36
63.47
67.28
69.21
70.02
70.74
72.45
76.25
82.67
91.46
101.48
111.01
118.33
122.25
122.52
119.72
115.06
109.64
104.09
98.31
91.77
83.82
74.13
62.78
50.16
36.88
23.36
10.01
-2.93
-15.29
-26.89
-37.68
-47.77
-57.47
-67.12
-76.87
-86.30
-94.87
-102.25
-108.49
-114.00
-119.37
-124.95
-130.51
-135.10
-136.41
-132.10
-120.45
-101.02
-74.78
-43.94
-11.42
19.98
48.12
73.32
96.79
120.12
144.69
171.31
200.12
230.44
260.56
287.54
309.18
322.67
325.53
316.67
297.17
270.39
241.04
213.76
183.63
148.67
108.97
67.00
26.20
-10.79
-42.66
-68.69
-86.91
-97.48
-99.07
-91.46
-76.50
-58.17
-41.38
-30.39
-27.87
-34.01
-46.82
-61.81
-75.12
-84.82
-91.18
-95.90
-100.87
-107.36
-115.74
-125.97
-137.17
-148.92
-161.11
-173.40
-184.75
-193.36
-197.30
-195.16
-186.66
-172.03
-152.00
-127.20
-97.98
-64.53
-27.46
11.82
50.98
87.22
118.14
142.20
159.03
169.23
173.87
173.94
170.04
162.41
151.26
137.19
121.31
105.07
89.77
76.14
64.16
53.23
42.65
31.92
20.94
9.86
-1.12
-11.83
-22.08
-31.54
-39.60
-45.63
-49.22
-50.52
-50.29
-49.67
-49.71
-50.97
-53.25
-55.71
-57.23
-56.84
-54.05
-49.07
-42.65
-35.99
-30.42
-27.20
-27.37
-31.52
-39.63
-50.85
-63.59
-75.71
-85.03
-89.96
-89.90
-85.33
-77.63
-68.44
-59.25
-51.00
-44.11
-38.60
-34.45
-31.60
-30.02
-29.56
-29.81
-30.13
-29.88
-28.70
-26.77
-24.85
-23.91
-24.70
-27.33
-31.16
-35.11
-38.16
-39.82
-40.24
-40.05
-39.95
-40.41
-41.57
-43.33
-45.51
-47.93
-50.24
-51.81
-51.72
-48.96
-42.76
-32.86
-19.67
-4.27
11.70
26.10
36.55
40.84
37.56
26.71
10.16
-8.63
-25.39
-36.18
-38.39
-31.23
-15.54
6.74
33.06
60.62
86.45
107.57
121.38
126.17
121.60
108.65
89.27
65.78
40.56
16.04
-5.00
-19.42
-24.31
-18.14
-1.82
20.97
44.75
63.97
75.04
77.40
73.26
66.34
60.20
57.10
57.73
61.73
68.37
76.97
86.95
97.59
107.96
117.04
124.03
128.68
131.32
132.60
133.02
132.52
130.33
125.27
116.15
102.28
83.59
60.53
33.74
3.96
-27.88
-60.42
-91.89
-120.37
-144.25
-162.60
-175.24
-182.48
-184.87
-182.98
-177.58
-169.97
-162.00
-155.68
-152.50
-152.90
-156.13
-160.97
-166.08
-170.61
-174.38
-177.67
-180.90
-184.20
-187.26
-189.35
-189.96
-188.48
-184.47
-177.99
-169.61
-160.13
-150.08
-139.21
-126.32
-110.31
-89.92
-64.44
-34.23
-0.66
34.31
68.78
101.49
132.12
159.07
179.59
190.94
191.96
183.79
168.98
150.19
129.34
110.85
94.69
80.36
67.64
56.43
46.64
38.19
31.31
24.59
18.07
11.71
6.08
1.83
-0.67
-1.31
-0.09
3.20
8.91
17.62
28.99
42.37
56.91
71.81
86.73
101.82
117.57
134.28
151.92
169.40
185.36
198.68
208.76
215.67
219.80
221.60
221.23
218.70
213.45
204.83
192.54
176.57
157.42
136.14
114.11
92.77
73.41
56.57
42.21
30.18
19.99
11.13
3.15
-4.30
-11.54
-18.55
-25.50
-32.62
-39.83
-47.51
-56.25
-66.60
-79.14
-94.38
-110.50
-124.72
-134.60
-139.06
-139.52
-138.21
-136.09
-132.57
-126.02
-114.84
-98.68
-82.02
-65.90
-51.37
-39.39
-30.16
-23.37
-18.66
-15.99
-15.83
-18.94
-25.36
-32.57
-38.86
-42.81
-43.89
-42.54
-39.80
-36.80
-34.22
-31.69
-28.84
-25.80
-22.87
-20.75
-20.27
-22.10
-26.56
-33.61
-42.49
-52.29
-62.07
-70.47
-76.08
-77.70
-74.75
-67.51
-57.02
-44.75
-32.42
-21.66
-13.57
-8.61
-6.71
-7.32
-9.54
-12.26
-14.34
-14.94
-13.82
-11.21
-7.73
-4.00
-0.38
3.10
6.66
10.48
14.45
18.07
20.75
22.04
21.87
20.53
18.55
16.46
14.59
13.03
11.68
10.30
8.65
6.57
3.96
0.85
-2.65
-6.40
-10.32
-14.43
-18.85
-23.76
-29.29
-35.40
-41.85
-48.17
-53.77
-58.09
-60.67
-61.40
-60.48
-58.44
-56.01
-54.02
-53.10
-53.57
-55.36
-57.98
-60.80
-63.27
-65.13
-66.47
-67.41
-67.84
-67.10
-64.09
-57.67
-47.18
-32.83
-15.77
2.41
20.12
36.37
50.88
63.87
75.81
86.98
97.45
107.10
115.79
123.57
130.54
136.77
142.04
145.90
147.78
147.35
144.69
140.15
133.99
125.87
114.73
99.20
78.45
52.89
24.44
-3.98
-29.45
-49.91
-64.60
-73.93
-78.73
-79.68
-76.88
-70.05
-58.88
-43.60
-25.29
-5.89
12.13
26.44
35.47
39.03
38.23
35.01
31.24
27.90
24.72
20.61
14.30
4.85
-8.37
-26.01
-48.91
-77.64
-111.42
-147.23
-180.03
-204.33
-216.45
-216.23
-207.03
-193.91
-180.90
-169.13
-156.58
-139.89
-116.60
-86.75
-52.79
-18.18
14.36
43.94
71.34
98.06
125.16
152.54
179.08
203.21
223.69
239.95
252.06
260.26
264.61
264.89
260.83
252.54
240.82
227.21
213.57
201.46
191.56
183.49
176.06
167.81
157.69
145.36
131.28
116.24
100.88
85.32
69.10
51.50
31.87
10.15
-13.13
-36.97
-60.26
-82.19
-102.39
-120.90
-137.94
-153.56
-167.58
-179.54
-189.12
-196.32
-201.75
-206.48
-211.74
-218.52
-227.25
-237.67
-248.83
-259.34
-267.53
-271.85
-271.18
-265.28
-255.07
-242.68
-231.03
-223.00
-220.38
-223.02
-228.55
-232.84
-231.21
-219.88
-197.00
-163.03
-120.21
-71.44
-19.15
35.28
91.21
147.83
203.11
253.57
294.83
323.15
336.80
336.89
326.94
311.69
295.58
281.71
271.64
265.74
263.82
265.35
269.54
275.07
280.17
282.93
281.95
276.79
268.08
257.30
246.11
235.84
227.14
219.95
213.65
207.23
199.40
188.79
174.10
154.42
129.46
99.60
65.68
28.75
-10.04
-49.31
-87.09
-120.83
-147.84
-166.14
-175.32
-176.84
-173.56
-168.59
-164.15
-161.02
-158.83
-156.93
-155.06
-153.55
-152.94
-153.41
-154.49
-155.34
-155.10
-153.63
-151.61
-150.26
-150.78
-153.86
-159.53
-167.36
-176.71
-186.59
-196.17
-205.00
-212.94
-219.93
-225.67
-229.45
-230.27
-227.15
-218.55
-203.72
-183.21
-158.87
-133.24
-108.63
-86.32
-66.32
-47.53
-26.69
-0.77
31.70
69.90
111.01
151.43
188.15
219.65
246.15
271.19
298.31
329.11
362.14
393.44
418.51
434.31
440.29
425.71
385.52
321.37
242.37
160.98
87.21
25.93
-22.14
-58.36
-84.79
-101.67
-109.70
-110.63
-107.31
-102.86
-99.47
-97.86
-97.60
-97.91
-96.74
-92.82
-86.09
-77.75
-69.52
-62.68
-57.63
-53.97
-51.13
-47.69
-42.73
-36.13
-28.57
-21.14
-14.73
-9.69
-5.97
-3.31
-1.11
1.02
3.03
4.49
4.84
3.78
1.18
-2.63
-7.16
-11.77
-15.95
-19.49
-22.44
-24.96
-27.12
-28.84
-29.88
-29.98
-29.05
-27.20
-24.77
-22.32
-20.31
-18.91
-18.03
-17.32
-16.37
-14.91
-12.90
-10.50
-8.23
-6.57
-5.90
-6.44
-8.17
-10.62
-12.80
-13.27
-10.61
-4.24
5.37
16.74
27.73
36.41
41.66
43.40
42.07
40.24
38.96
38.43
38.23
37.70
36.40
34.25
31.41
28.14
24.63
20.74
16.47
12.00
7.62
3.58
-0.01
-3.31
-6.57
-10.06
-14.17
-19.06
-24.69
-30.94
-37.47
-43.99
-50.46
-57.07
-64.22
-72.25
-81.29
-91.22
-101.71
-112.19
-122.29
-132.08
-142.05
-152.96
-165.26
-178.92
-193.47
-208.03
-221.16
-231.67
-238.88
-242.74
-243.90
-242.95
-240.73
-238.33
-236.58
-234.66
-231.39
-225.88
-217.80
-207.81
-195.69
-181.39
-165.18
-147.18
-124.99
-96.84
-62.75
-24.35
15.23
56.03
98.87
144.15
191.60
243.35
299.12
355.33
406.45
446.05
474.04
492.66
504.13
510.24
516.46
526.05
538.79
551.79
559.65
563.13
563.76
561.76
525.88
441.60
318.18
183.06
78.78
3.27
-51.72
-93.25
-129.59
-163.09
-189.40
-205.08
-210.57
-210.03
-210.99
-214.65
-220.12
-226.24
-231.58
-232.05
-225.68
-213.98
-201.01
-192.76
-189.66
-190.31
-193.32
-197.42
-199.91
-199.31
-195.88
-191.09
-187.53
-184.71
-181.72
-178.53
-175.70
-173.21
-171.07
-169.25
-167.32
-164.85
-159.68
-149.46
-132.27
-106.69
-71.82
-28.23
21.49
72.75
119.60
156.82
180.91
190.85
188.39
177.23
161.98
146.98
135.53
129.45
129.07
133.45
140.76
148.83
155.71
160.06
161.37
159.76
155.71
149.86
142.78
134.79
126.10
116.86
107.26
97.58
88.04
78.78
69.70
60.58
51.17
41.68
32.94
26.31
23.21
24.44
29.68
37.41
45.45
51.47
53.99
52.81
48.88
43.67
38.29
33.11
27.70
21.27
12.61
1.14
-12.53
-26.62
-38.77
-47.05
-50.55
-49.56
-45.46
-41.21
-39.61
-42.18
-48.42
-56.28
-63.38
-67.65
-67.91
-63.92
-58.24
-54.14
-54.24
-59.40
-68.86
-81.29
-95.23
-109.20
-121.87
-134.80
-150.24
-170.00
-194.39
-222.58
-253.92
-287.79
-323.06
-343.34
-335.35
-295.37
-232.80
-163.69
-101.83
-55.27
-26.18
-12.24
-8.06
-9.89
-14.98
-21.51
-28.91
-34.58
-36.63
-34.14
-26.79
-14.01
2.72
21.54
40.90
61.32
83.90
109.24
137.49
165.77
191.96
213.46
228.12
234.88
235.39
232.28
228.25
225.17
224.07
225.67
229.66
235.46
234.69
223.44
202.15
175.00
146.08
116.88
87.03
55.57
22.82
-9.46
-35.98
-55.59
-68.28
-75.26
-78.37
-79.01
-77.92
-75.39
-71.56
-65.87
-57.93
-47.93
-36.72
-25.35
-14.27
-3.25
8.29
20.69
34.37
48.81
63.06
75.89
86.02
92.76
96.02
96.07
93.27
88.19
81.15
72.62
63.10
52.88
42.39
32.20
22.87
14.71
7.86
2.16
-2.57
-6.44
-10.25
-14.56
-19.37
-24.05
-27.87
-30.52
-32.19
-33.46
-35.04
-39.13
-47.34
-59.72
-74.59
-89.51
-102.52
-112.69
-119.98
-124.87
-130.40
-138.75
-149.75
-160.69
-168.22
-170.32
-167.26
-161.10
-154.77
-154.40
-164.60
-186.53
-217.73
-254.15
-292.25
-329.60
-364.29
-373.35
-342.01
-270.58
-175.84
-79.64
2.68
65.14
108.51
136.67
154.26
161.77
159.37
148.81
134.19
120.41
110.84
106.40
106.01
107.76
107.16
101.25
90.11
76.95
66.34
62.06
66.06
77.63
94.49
110.39
118.03
111.79
90.19
56.48
17.59
-18.19
-43.78
-55.47
-54.49
-44.98
-31.69
-18.03
-5.74
4.57
12.49
17.53
19.26
17.25
11.94
4.68
-2.54
-7.79
-9.97
-9.41
-7.15
-4.59
-2.90
-2.52
-3.02
-3.38
-2.65
-0.41
2.88
6.20
8.40
8.67
6.93
3.86
0.50
-2.25
-4.07
-5.43
-7.26
-10.57
-15.88
-22.84
-30.27
-36.60
-40.58
-41.77
-40.73
-38.82
-37.65
-38.52
-41.91
-47.35
-53.53
-58.67
-61.01
-59.25
-52.88
-42.25
-28.49
-13.19
1.87
15.10
25.28
31.72
34.30
33.50
30.25
25.79
21.46
18.36
17.16
17.80
19.63
21.52
22.34
21.33
18.36
13.85
8.44
2.74
-2.73
-7.50
-10.98
-12.63
-12.27
-10.42
-8.29
-7.23
-7.83
-9.39
-9.88
-6.83
1.46
15.01
32.07
49.87
65.80
78.33
87.26
93.33
97.53
100.67
103.30
105.86
109.03
113.79
121.13
131.64
144.98
159.59
172.65
180.63
180.11
168.82
146.43
114.80
77.81
40.68
9.01
-12.18
-19.53
-12.10
8.26
37.13
68.60
96.57
116.07
124.02
119.36
102.70
75.92
41.79
3.81
-34.19
-68.77
-97.60
-120.11
-137.44
-151.70
-164.85
-177.46
-188.23
-194.27
-192.05
-178.70
-152.91
-115.36
-68.47
-15.98
37.71
88.00
130.67
162.41
181.23
186.67
179.62
161.86
135.55
102.88
65.97
26.94
-12.03
-48.86
-81.72
-109.19
-130.18
-143.92
-150.03
-148.79
-141.43
-130.01
-117.03
-104.74
-94.46
-86.40
-79.91
-73.97
-67.84
-61.28
-54.63
-48.52
-43.39
-39.35
-36.05
-32.81
-28.96
-24.01
-17.84
-10.66
-2.88
5.04
12.69
19.69
25.62
30.02
32.42
32.55
30.54
26.88
22.31
17.47
12.62
7.65
2.30
-3.36
-8.68
-12.39
-13.19
-10.33
-4.10
4.12
12.34
18.73
22.21
22.66
20.68
17.08
12.40
6.81
0.34
-6.83
-14.06
-20.44
-25.04
-27.38
-27.65
-26.63
-25.39
-24.79
-25.25
-26.62
-28.39
-30.00
-31.08
-31.58
-31.64
-31.43
-31.07
-30.59
-30.07
-29.72
-29.90
-31.02
-33.40
-37.17
-42.27
-48.50
-55.66
-63.58
-72.12
-81.09
-90.24
-99.08
-106.99
-113.16
-116.72
-116.88
-112.99
-104.57
-91.21
-72.67
-48.93
-20.43
11.60
45.28
78.20
107.95
132.55
150.78
162.18
167.06
166.38
161.70
155.05
148.71
144.84
145.04
150.05
159.75
173.25
189.21
205.99
221.86
235.04
243.86
246.91
243.25
232.71
215.97
194.41
169.86
144.18
118.83
94.74
72.37
51.84
33.24
16.71
2.42
-9.62
-19.68
-28.36
-36.44
-44.61
-53.26
-62.42
-71.75
-80.74
-88.79
-95.35
-99.82
-101.65
-100.36
-95.83
-88.30
-78.51
-67.54
-56.52
-46.34
-37.49
-30.11
-24.10
-19.37
-15.84
-13.46
-12.07
-11.31
-10.80
-10.23
-9.62
-9.30
-9.77
-11.37
-14.08
-17.49
-21.01
-24.18
-26.88
-29.33
-31.92
-34.91
-38.38
-42.18
-46.07
-49.79
-53.13
-55.82
-57.56
-58.00
-56.93
-54.27
-50.19
-44.97
-39.00
-32.69
-26.46
-20.68
-15.71
-11.71
-8.62
-6.14
-3.83
-1.28
1.70
4.92
7.91
10.04
10.84
10.14
8.08
4.94
0.91
-4.06
-10.08
-17.19
-25.02
-32.80
-39.58
-44.67
-47.87
-49.55
-50.28
-50.46
-50.01
-48.41
-45.04
-39.62
-32.46
-24.32
-16.13
-8.53
-1.68
4.68
10.89
16.97
22.47
26.48
28.12
26.90
23.14
17.89
12.59
8.54
6.49
6.36
7.45
8.71
9.21
8.39
6.23
3.17
-0.08
-2.78
-4.35
-4.43
-2.99
-0.24
3.38
7.24
10.56
12.67
13.11
11.87
9.38
6.35
3.53
1.41
0.12
-0.54
-0.96
-1.58
-2.82
-4.94
-8.10
-12.19
-16.89
-21.75
-26.34
-30.43
-34.12
-37.74
-41.78
-46.73
-52.98
-60.81
-70.28
-81.09
-92.49
-103.22
-111.90
-117.41
-119.34
-118.08
-114.50
-109.50
-103.51
-96.44
-87.88
-77.59
-65.77
-53.10
-40.46
-28.57
-17.78
-8.04
0.91
9.36
17.45
25.19
32.54
39.51
46.18
52.62
58.81
64.57
69.65
73.81
76.99
79.34
81.16
82.78
84.44
86.31
88.62
91.72
96.11
102.25
110.33
120.15
131.17
142.68
153.96
164.33
173.11
179.67
183.39
183.80
180.65
173.98
164.12
151.64
137.37
122.22
106.98
92.05
77.23
61.87
45.09
26.24
5.24
-17.42
-40.82
-63.96
-85.90
-105.81
-122.92
-136.53
-146.15
-151.70
-153.62
-152.87
-150.58
-147.89
-145.63
-144.30
-144.13
-145.19
-147.53
-151.09
-155.67
-160.80
-165.79
-169.92
-172.70
-174.08
-174.41
-174.22
-173.81
-173.02
-171.31
-168.03
-162.84
-155.94
-147.99
-139.79
-131.83
-124.24
-116.77
-109.14
-101.28
-93.35
-85.72
-78.74
-72.61
-67.36
-62.84
-58.75
-54.55
-49.45
-42.49
-32.83
-20.04
-4.33
13.58
32.84
52.96
73.92
96.14
120.12
146.05
173.94
203.70
235.26
268.54
303.07
337.65
370.39
399.18
422.46
439.82
452.01
460.39
466.13
469.62
470.35
467.21
459.12
445.54
426.76
403.70
377.52
349.10
318.80
286.45
251.83
215.17
177.43
140.14
104.86
72.60
43.55
17.30
-6.62
-28.17
-46.74
-61.37
-71.43
-77.02
-79.06
-79.11
-78.94
-80.20
-84.02
-90.95
-100.75
-112.46
-124.58
-135.55
-144.14
-149.96
-153.46
-155.76
-158.18
-161.78
-167.04
-173.79
-181.29
-188.55
-194.54
-198.45
-199.83
-198.54
-194.72
-188.67
-180.75
-171.40
-161.15
-150.54
-140.14
-130.39
-121.56
-113.71
-106.80
-100.75
-95.47
-90.83
-86.60
-82.44
-78.00
-73.06
-67.68
-62.12
-56.84
-52.23
-48.54
-45.80
-43.93
-42.87
-42.67
-43.56
-45.85
-49.80
-55.42
-62.42
-70.20
-77.99
-85.14
-91.32
-96.66
-101.69
-107.11
-113.47
-120.97
-129.39
-138.22
-146.84
-154.68
-161.26
-166.17
-169.05
-169.55
-167.37
-162.21
-153.85
-142.18
-127.22
-109.08
-87.93
-63.84
-36.81
-6.83
25.99
61.32
98.44
136.24
173.10
206.87
235.10
255.39
266.10
266.95
259.30
245.82
229.63
213.43
198.79
186.14
175.10
164.95
154.98
144.50
132.88
119.53
104.15
86.80
68.00
48.43
28.70
9.09
-10.36
-29.71
-48.76
-67.03
-83.77
-98.23
-109.95
-118.94
-125.78
-131.53
-137.48
-144.78
-154.04
-165.10
-176.91
-187.85
-196.01
-199.59
-197.16
-187.72
-170.89
-146.85
-116.54
-81.51
-43.69
-5.13
32.31
67.01
97.57
122.82
141.85
154.20
160.09
160.38
156.38
149.42
140.58
130.40
118.97
105.97
90.83
72.90
51.84
27.97
2.51
-22.53
-44.93
-63.01
-76.24
-85.38
-91.92
-97.29
-102.09
-105.94
-107.81
-106.77
-102.47
-95.23
-85.79
-74.91
-63.22
-51.32
-40.02
-30.33
-23.21
-19.16
-17.93
-18.48
-19.28
-18.70
-15.49
-9.03
0.50
12.19
24.68
36.51
46.56
54.32
59.90
63.80
66.56
68.49
69.61
70.06
70.07
70.00
70.22
70.99
72.40
74.46
77.06
80.06
83.77
88.48
94.23
100.70
107.13
112.68
116.67
118.77
118.88
118.15
117.60
117.56
117.17
114.57
107.78
95.75
78.79
58.48
38.91
24.09
16.59
16.39
21.00
26.80
31.06
33.05
34.25
40.04
56.13
86.45
131.47
188.12
251.46
316.69
380.02
423.22
430.65
393.04
314.05
210.49
104.67
14.77
-50.77
-93.72
-122.60
-145.21
-166.26
-185.81
-201.05
-209.32
-210.41
-206.85
-202.65
-201.21
-201.95
-201.81
-197.02
-185.75
-169.29
-151.13
-134.93
-122.83
-114.90
-108.62
-101.10
-90.47
-76.80
-61.88
-48.10
-37.31
-30.25
-26.75
-25.64
-25.61
-25.58
-24.92
-23.46
-21.18
-18.45
-15.59
-12.96
-10.78
-9.15
-7.94
-6.94
-5.82
-4.32
-2.32
0.24
3.30
6.83
10.75
15.03
19.44
23.71
27.61
31.06
34.22
37.38
40.72
44.23
47.76
50.87
53.39
55.59
58.21
62.25
68.60
77.69
89.23
102.23
115.01
125.79
133.10
136.14
134.71
128.96
118.92
104.02
85.27
63.43
39.68
15.54
-7.45
-28.08
-45.92
-61.52
-76.31
-92.16
-111.41
-136.25
-168.26
-207.72
-252.64
-298.42
-338.36
-365.45
-374.57
-364.63
-338.67
-302.55
-262.55
-223.18
-186.09
-150.75
-115.85
-80.67
-45.77
-12.46
17.78
43.73
64.91
81.43
93.78
102.50
107.96
110.34
109.74
106.33
100.03
91.28
81.01
70.13
58.90
46.77
32.85
16.76
-0.85
-18.95
-35.59
-48.59
-56.47
-59.35
-58.79
-56.94
-55.57
-55.48
-57.42
-60.82
-63.94
-64.44
-60.55
-51.52
-37.89
-21.07
2.78
32.64
63.85
90.63
109.50
119.75
122.20
117.71
107.24
91.93
72.84
52.38
32.38
15.89
4.96
0.10
0.41
4.63
11.18
18.03
24.06
29.18
34.05
38.94
44.71
50.66
55.93
59.22
59.20
55.62
49.43
42.32
35.81
30.81
27.23
24.76
21.82
16.19
6.00
-9.54
-30.01
-53.58
-77.21
-97.75
-108.09
-103.92
-86.00
-60.52
-35.90
-19.00
-11.89
-12.21
-17.44
-23.70
-29.86
-37.15
-47.44
-61.84
-80.88
-103.80
-127.07
-147.74
-162.86
-170.65
-170.25
-161.41
-140.92
-109.83
-72.80
-36.23
-5.35
18.29
37.40
54.90
72.70
91.86
110.29
125.48
135.21
138.01
134.06
124.75
112.29
99.36
88.80
81.83
78.28
76.55
74.29
69.87
62.71
53.39
43.63
36.72
36.09
44.56
62.71
87.70
113.13
130.34
131.66
114.01
82.63
49.57
28.97
30.66
56.02
98.08
145.01
185.79
207.49
203.27
175.20
133.11
88.36
48.18
14.45
-14.50
-41.45
-69.99
-102.13
-137.71
-174.37
-208.44
-235.66
-252.48
-260.30
-258.41
-247.15
-227.33
-200.69
-170.42
-140.96
-116.66
-100.26
-91.76
-88.15
-85.78
-81.10
-71.84
-57.93
-41.34
-24.44
-9.80
1.27
9.49
16.58
24.93
36.54
51.94
69.70
87.09
100.96
109.05
110.94
107.55
100.80
92.69
84.41
76.06
67.11
56.89
45.38
33.59
23.07
15.44
11.82
12.37
15.12
18.50
21.77
25.52
31.13
39.51
50.25
61.70
71.66
78.51
81.80
81.65
78.11
70.96
60.01
45.86
30.50
16.82
7.71
4.96
8.15
14.99
22.31
27.54
29.46
29.13
26.75
22.44
16.32
8.55
-0.28
-9.24
-17.12
-23.01
-26.75
-29.15
-31.67
-35.40
-40.76
-47.18
-53.68
-59.11
-62.53
-63.62
-61.26
-56.72
-52.39
-50.78
-53.31
-59.98
-69.30
-78.91
-86.61
-91.21
-92.90
-92.34
-91.77
-90.91
-89.01
-85.51
-80.29
-73.93
-67.32
-61.52
-57.03
-53.86
-51.37
-48.50
-44.20
-37.73
-28.97
-18.24
-6.29
6.30
18.89
31.03
42.93
55.12
68.25
82.73
98.88
116.68
136.02
156.67
174.30
184.96
185.96
176.91
159.32
136.02
110.06
84.60
62.61
46.39
37.36
35.03
38.52
44.47
49.90
52.52
51.31
46.22
37.98
28.11
18.29
9.91
3.67
-0.21
-2.71
-4.98
-8.09
-12.72
-18.58
-24.87
-30.59
-35.15
-38.30
-40.91
-44.28
-49.53
-57.16
-66.80
-77.65
-88.83
-99.61
-105.35
-102.65
-90.73
-72.10
-51.40
-33.27
-20.95
-15.59
-16.38
-20.98
-26.82
-31.94
-35.14
-36.03
-34.94
-32.47
-29.15
-25.09
-21.54
-18.11
-14.77
-11.66
-8.93
-6.63
-4.68
-2.95
-1.37
0.07
0.93
0.52
-1.69
-5.84
-11.76
-18.92
-26.92
-35.81
-44.76
-53.85
-63.46
-73.68
-84.19
-94.52
-103.71
-111.04
-116.32
-119.79
-122.12
-123.91
-125.33
-126.08
-125.68
-122.69
-115.84
-104.54
-89.15
-71.00
-51.66
-32.16
-12.64
7.48
30.48
58.62
93.04
133.32
177.44
222.80
267.42
310.38
343.69
360.27
355.80
331.09
291.94
245.79
198.94
155.60
117.92
86.30
61.19
42.46
29.40
21.00
15.76
12.00
8.37
4.19
-0.64
-4.87
-6.06
-4.17
-0.07
4.19
5.97
3.15
-5.20
-18.50
-33.98
-47.64
-55.67
-55.55
-47.06
-33.67
-21.22
-15.24
-18.45
-29.67
-45.13
-60.77
-73.80
-83.62
-90.95
-96.27
-99.11
-98.52
-94.07
-86.64
-78.48
-71.89
-68.53
-68.71
-71.20
-74.09
-75.67
-75.10
-72.53
-69.71
-67.07
-65.00
-63.55
-62.27
-60.26
-56.52
-50.37
-41.82
-31.70
-21.26
-12.05
-5.19
-1.05
0.70
0.70
-0.40
-2.23
-4.61
-7.31
-10.15
-12.84
-15.21
-17.21
-18.92
-20.21
-20.74
-19.99
-17.34
-12.50
-5.51
3.31
13.66
24.47
34.93
44.39
52.26
58.07
61.55
62.82
62.59
62.02
62.39
64.66
68.86
73.96
78.18
79.68
77.28
70.93
61.59
50.77
39.96
30.16
21.79
14.87
9.34
5.08
1.91
-0.61
-3.08
-6.07
-9.87
-14.41
-19.29
-24.10
-28.62
-33.01
-37.79
-43.62
-50.98
-59.98
-70.14
-80.44
-89.54
-96.15
-99.31
-98.76
-94.86
-88.23
-79.42
-68.46
-54.98
-38.56
-19.27
1.96
23.21
41.86
55.31
61.63
60.20
51.75
37.94
20.86
2.58
-15.35
-31.96
-46.85
-60.01
-71.64
-82.01
-91.29
-99.35
-105.22
-107.67
-105.67
-98.71
-87.16
-71.59
-52.91
-32.24
-10.76
11.24
33.40
55.32
76.80
97.64
118.63
140.54
163.53
186.91
210.64
234.12
256.38
276.22
292.08
303.87
311.86
316.28
316.88
314.62
309.49
300.38
285.46
262.33
230.77
191.70
146.49
86.82
10.96
-76.76
-167.38
-247.21
-314.51
-369.92
-413.45
-442.72
-454.64
-446.09
-417.42
-372.67
-318.35
-261.65
-206.42
-153.81
-103.35
-54.14
-4.13
48.06
102.68
158.45
211.85
258.86
294.75
315.07
316.84
300.41
268.39
224.76
173.96
120.17
68.32
23.34
-10.72
-31.77
-40.04
-38.54
-32.17
-26.11
-24.29
-28.01
-36.34
-46.99
-57.46
-65.74
-70.88
-73.00
-73.03
-72.35
-72.11
-73.14
-75.75
-79.91
-85.31
-91.51
-98.02
-104.25
-109.49
-112.84
-113.39
-110.44
-103.78
-93.81
-81.52
-68.16
-54.97
-42.85
-32.25
-23.25
-15.75
-9.58
-4.66
-1.00
1.42
2.75
3.27
3.44
3.81
4.84
6.76
9.44
12.43
15.11
16.88
17.41
16.78
15.37
13.67
12.11
10.83
9.68
8.30
6.36
3.70
0.43
-3.10
-6.50
-9.44
-11.82
-13.72
-15.35
-16.97
-18.77
-20.92
-23.51
-26.51
-29.65
-32.37
-33.89
-33.42
-30.41
-24.83
-17.19
-8.42
0.47
8.62
15.54
21.08
25.36
28.57
30.90
32.43
33.23
33.35
32.89
32.04
30.96
29.81
28.68
27.66
26.86
26.42
26.49
27.15
28.30
29.68
30.92
31.63
31.51
30.43
28.46
25.79
22.63
19.17
15.51
11.71
7.83
4.04
0.51
-2.55
-5.17
-7.60
-10.38
-14.16
-19.44
-26.34
-34.43
-42.77
-50.14
-55.41
-57.93
-57.79
-55.77
-53.10
-50.95
-50.06
-50.53
-51.95
-53.78
-55.72
-57.90
-60.74
-64.65
-69.68
-75.40
-81.06
-85.88
-89.33
-91.24
-91.73
-91.07
-89.60
-87.73
-85.83
-84.05
-81.90
-77.90
-69.64
-54.29
-29.66
4.94
48.22
97.17
148.00
197.13
241.80
280.10
310.55
331.80
342.76
343.07
333.80
317.61
298.25
279.58
264.31
253.22
245.09
237.35
227.20
212.73
193.72
171.69
149.37
129.65
114.55
104.53
98.46
94.16
89.35
82.38
72.56
60.01
45.29
29.00
11.73
-5.87
-22.96
-38.64
-52.21
-63.62
-73.59
-83.48
-94.65
-107.75
-122.24
-136.33
-147.59
-153.80
-153.85
-148.04
-137.98
-125.98
-114.25
-104.44
-97.43
-93.51
-92.58
-94.22
-97.70
-101.88
-105.34
-106.79
-105.42
-101.26
-95.12
-88.25
-81.84
-76.65
-72.83
-69.96
-67.33
-64.13
-59.71
-53.74
-46.28
-37.84
-29.29
-21.60
-15.59
-11.68
-9.82
-9.59
-10.45
-11.79
-13.17
-14.36
-15.40
-16.46
-17.70
-19.20
-20.99
-23.22
-25.97
-29.24
-32.89
-36.56
-39.71
-41.87
-42.93
-43.27
-43.71
-44.62
-45.68
-45.83
-43.72
-38.18
-28.54
-14.69
2.54
21.38
39.85
56.01
68.75
77.89
83.87
87.29
88.58
89.94
91.06
91.57
91.29
90.59
90.10
90.41
92.05
95.53
99.48
103.32
107.44
112.04
116.98
121.30
123.40
121.52
114.33
100.78
80.62
54.82
23.91
-9.54
-41.73
-68.96
-88.89
-100.87
-105.93
-108.91
-111.03
-112.47
-113.07
-113.11
-113.37
-115.02
-116.44
-117.29
-117.34
-115.96
-113.09
-108.84
-103.60
-97.85
-92.10
-86.65
-82.03
-78.37
-75.14
-72.06
-68.90
-65.61
-62.24
-58.75
-54.93
-50.71
-45.89
-40.09
-33.22
-25.27
-16.14
-5.48
7.31
22.93
41.50
62.59
85.20
107.77
128.70
146.88
161.97
174.24
184.20
191.98
197.25
199.28
197.23
190.65
179.67
165.01
147.59
128.20
107.30
85.09
61.74
37.63
13.32
-10.51
-33.27
-54.58
-74.19
-91.90
-107.46
-120.59
-130.99
-138.50
-143.07
-144.85
-144.10
-141.20
-136.68
-131.18
-125.38
-119.89
-115.18
-111.52
-108.88
-106.95
-105.17
-102.87
-99.37
-94.24
-87.44
-79.27
-70.26
-60.91
-51.55
-42.30
-33.16
-24.19
-15.57
-7.62
-0.64
5.22
10.15
14.62
19.36
25.05
32.16
40.82
50.76
61.44
72.20
82.34
91.22
98.35
103.43
106.41
107.51
107.09
105.40
102.35
97.32
89.37
77.61
61.55
41.33
17.66
-8.48
-36.01
-63.78
-90.51
-114.69
-134.82
-149.74
-159.05
-163.18
-163.10
-159.82
-153.81
-144.87
-132.29
-115.39
-93.94
-68.50
-40.24
-10.64
18.91
47.38
74.06
98.33
119.45
136.42
148.17
153.76
152.84
145.68
133.22
116.80
97.95
78.23
59.08
41.68
26.72
14.25
3.71
-5.79
-15.03
-24.26
-33.11
-40.84
-46.76
-50.70
-53.12
-55.00
-57.38
-60.93
-65.54
-70.29
-73.63
-74.04
-70.67
-63.85
-55.08
-46.42
-39.60
-35.22
-32.59
-30.22
-26.76
-21.72
-15.64
-9.65
-4.68
-1.00
1.87
4.67
7.93
11.59
15.06
17.51
18.19
16.77
13.37
8.43
2.55
-3.73
-10.02
-16.13
-21.90
-27.10
-31.48
-34.98
-37.90
-40.96
-44.96
-50.23
-56.27
-61.69
-64.74
-64.15
-59.77
-52.59
-44.30
-36.44
-29.82
-24.43
-19.70
-14.87
-9.42
-3.21
3.70
11.15
18.97
27.02
35.06
42.70
50.07
57.30
64.44
71.24
77.17
81.52
83.66
83.13
79.68
74.38
68.54
63.19
58.68
54.66
50.37
45.14
38.77
31.31
25.04
22.31
24.73
32.76
45.66
62.13
80.97
101.30
121.64
142.67
164.59
186.74
207.98
227.06
243.14
256.11
266.30
261.92
235.12
183.23
111.49
31.72
-43.54
-106.03
-152.97
-182.99
-201.81
-211.79
-213.68
-207.72
-194.26
-174.42
-150.26
-125.40
-102.53
-84.30
-68.80
-52.53
-36.00
-20.51
-8.28
-2.11
-4.10
-8.79
-16.14
-24.97
-33.72
-40.88
-48.08
-55.13
-61.15
-64.56
-63.39
-57.26
-45.29
-27.60
-5.61
18.73
43.50
66.57
86.04
100.63
108.85
110.88
107.70
100.48
90.50
78.92
66.24
52.54
38.01
22.68
7.49
-6.17
-16.95
-23.72
-25.72
-22.97
-16.19
-6.49
4.61
15.85
26.24
35.13
42.21
47.57
51.51
54.46
56.96
59.54
62.82
67.39
73.64
81.56
90.77
100.57
110.11
118.63
125.61
130.76
134.03
135.52
135.43
134.06
131.75
128.78
125.34
121.34
116.54
110.61
103.27
94.48
84.49
73.78
62.90
52.30
42.24
32.66
23.34
14.02
4.48
-5.25
-14.97
-24.38
-33.06
-40.68
-47.01
-51.91
-55.34
-57.32
-57.89
-57.13
-55.22
-52.51
-49.53
-46.93
-45.26
-44.77
-45.32
-46.44
-47.57
-48.26
-48.39
-48.01
-47.27
-46.24
-45.03
-43.73
-42.57
-41.88
-41.91
-42.75
-44.29
-46.25
-48.32
-50.27
-51.95
-53.32
-54.47
-55.59
-56.96
-58.84
-61.26
-64.03
-66.70
-68.79
-69.94
-70.12
-69.51
-68.41
-67.04
-65.48
-63.77
-61.92
-60.05
-58.26
-56.62
-55.11
-53.61
-52.05
-50.47
-48.96
-47.65
-46.53
-45.44
-44.14
-42.35
-39.92
-36.79
-33.09
-29.02
-24.88
-20.93
-17.41
-14.47
-12.22
-10.72
-9.97
-9.90
-10.27
-10.67
-10.65
-9.82
-8.14
-5.90
-3.63
-1.79
-0.61
0.06
0.50
0.95
1.41
1.66
1.49
0.87
0.06
-0.53
-0.54
0.10
1.18
2.31
3.16
3.58
3.66
3.61
3.58
3.50
3.24
2.79
2.24
1.71
1.27
0.81
0.15
-0.93
-2.81
-5.70
-9.48
-13.84
-18.40
-22.96
-27.54
-32.40
-37.90
-44.81
-53.40
-63.26
-73.42
-82.90
-91.07
-97.89
-103.81
-109.59
-117.21
-127.92
-141.59
-156.81
-171.78
-184.81
-194.61
-200.46
-202.47
-203.94
-207.61
-214.18
-222.19
-229.41
-233.91
-234.59
-231.21
-224.36
-218.93
-217.84
-220.24
-222.29
-220.14
-212.08
-198.74
-182.13
-164.55
-152.64
-149.40
-152.69
-156.74
-156.48
-150.03
-138.61
-125.01
-80.51
3.94
115.01
224.78
310.45
363.19
384.89
383.05
367.71
349.26
330.77
313.21
296.59
280.59
264.56
248.36
233.65
223.35
219.46
217.38
211.58
198.84
180.09
159.16
140.49
127.52
121.23
119.88
117.61
109.94
96.09
78.86
62.51
50.08
42.99
40.78
42.09
43.90
43.53
39.12
29.49
14.25
-6.18
-29.49
-51.67
-68.17
-76.18
-75.39
-67.80
-57.33
-46.11
-35.56
-26.00
-17.35
-9.78
-3.92
-0.31
1.31
2.18
4.14
8.26
14.40
21.04
25.82
26.58
22.34
13.71
2.77
-7.60
-14.94
-17.83
-16.26
-11.49
-5.61
-0.74
1.53
0.57
-3.19
-8.61
-14.17
-18.41
-20.21
-19.25
-16.00
-11.61
-7.51
-5.02
-5.02
-7.71
-12.64
-18.81
-25.16
-30.89
-35.65
-39.39
-42.25
-44.32
-45.39
-45.88
-45.61
-44.22
-41.24
-36.21
-28.74
-18.63
-6.06
8.21
22.94
36.75
48.40
57.20
63.15
66.88
69.24
71.01
72.66
74.32
75.95
77.29
77.92
77.28
74.87
70.40
63.99
56.16
47.59
38.96
30.56
22.21
13.42
3.80
-6.68
-17.43
-27.33
-35.04
-39.43
-40.04
-37.25
-32.11
-25.96
-20.01
-15.02
-11.33
-9.03
-8.22
-9.25
-12.57
-18.53
-27.07
-37.62
-49.21
-60.73
-71.07
-79.22
-84.33
-85.90
-83.99
-79.46
-73.94
-69.30
-67.13
-68.00
-71.29
-75.41
-78.31
-78.05
-73.26
-63.18
-47.64
-27.04
-2.37
24.71
51.93
76.76
96.88
110.87
118.58
121.23
120.92
119.85
119.25
118.77
116.56
109.97
96.91
76.90
51.62
24.45
-0.78
-21.15
-35.69
-45.64
-53.93
-64.08
-79.16
-100.94
-129.34
-162.30
-195.85
-224.70
-243.32
-247.37
-234.95
-207.14
-167.38
-120.13
-69.16
-16.35
38.35
95.93
156.90
220.08
282.28
338.84
384.83
416.19
430.56
427.46
408.04
374.58
329.81
276.48
216.92
153.03
86.48
19.28
-45.78
-105.10
-154.97
-192.78
-218.10
-233.04
-241.42
-247.19
-252.92
-259.00
-263.85
-265.12
-260.68
-249.39
-231.08
-206.11
-175.05
-138.50
-97.33
-52.78
-6.60
39.03
81.83
119.83
151.89
177.82
198.30
214.35
226.70
235.33
239.48
238.26
231.36
219.63
205.02
189.88
176.13
164.54
154.68
145.16
134.37
120.99
104.38
84.68
62.74
39.87
17.56
-2.88
-20.58
-35.13
-46.54
-54.97
-60.58
-63.58
-64.30
-63.30
-61.12
-58.07
-54.03
-48.51
-41.06
-31.67
-20.95
-9.99
0.02
8.13
13.80
16.77
16.92
14.18
8.75
1.19
-7.43
-15.73
-22.41
-26.54
-27.71
-25.95
-21.54
-14.94
-6.82
1.96
10.26
16.89
20.91
21.98
20.50
17.52
14.29
11.75
10.33
9.78
9.34
8.14
5.53
1.28
-4.44
-11.23
-18.74
-26.38
-33.81
-40.83
-47.50
-53.95
-60.29
-66.40
-71.92
-76.42
-78.92
-78.67
-75.51
-70.01
-63.41
-57.04
-51.91
-48.47
-46.71
-45.25
-42.66
-37.90
-30.78
-22.02
-12.63
-3.36
5.61
14.55
25.26
39.55
58.69
82.97
111.83
144.33
179.72
217.40
247.86
262.39
255.24
226.98
184.54
137.05
91.41
50.51
14.04
-19.32
-49.02
-73.30
-90.18
-98.99
-101.24
-100.16
-99.17
-100.61
-104.76
-109.11
-110.28
-105.64
-94.62
-78.95
-61.71
-45.85
-33.32
-24.58
-18.56
-13.85
-9.53
-5.49
-2.34
-0.77
-0.39
-1.48
-3.72
-6.44
-9.20
-11.98
-14.99
-18.47
-22.48
-26.66
-30.41
-32.97
-33.74
-32.61
-29.94
-26.45
-22.98
-20.28
-18.69
-18.19
-18.24
-18.20
-17.50
-15.83
-13.16
-9.77
-6.29
-3.36
-1.48
-0.65
-0.51
-0.44
0.16
1.57
4.55
8.95
14.08
18.95
22.74
25.00
25.74
25.43
24.68
24.05
23.60
22.94
21.46
18.66
14.45
9.19
3.59
-1.54
-5.54
-8.21
-9.91
-11.23
-12.58
-14.11
-15.63
-16.74
-17.08
-16.43
-14.95
-13.61
-13.46
-15.09
-18.33
-22.36
-26.04
-28.49
-29.26
-28.45
-27.58
-28.07
-30.68
-35.08
-40.36
-45.62
-50.41
-54.74
-58.68
-63.52
-70.09
-78.33
-87.25
-95.61
-102.57
-107.84
-111.34
-105.49
-86.04
-53.92
-16.04
18.21
41.56
51.36
49.33
39.93
28.67
18.37
9.97
3.13
-2.47
-6.58
-8.45
-7.44
-5.15
-1.49
1.99
3.57
2.27
-1.41
-6.03
-9.96
-12.43
-13.52
-13.61
-14.17
-16.71
-22.02
-29.58
-38.11
-46.39
-53.20
-58.54
-62.82
-66.96
-71.87
-77.84
-83.79
-87.79
-87.87
-83.77
-75.83
-64.66
-50.92
-35.63
-19.62
-2.62
16.20
37.73
61.11
85.58
110.69
136.68
163.45
186.36
200.72
203.52
203.43
205.21
211.43
218.86
225.67
230.21
231.31
229.18
224.84
219.51
212.75
204.32
194.17
182.90
170.55
156.65
140.95
123.35
104.18
83.28
61.51
40.37
21.73
6.52
-5.24
-13.86
-19.78
-23.45
-26.01
-28.26
-30.58
-32.60
-33.74
-33.30
-30.63
-25.56
-18.60
-11.18
-4.85
-0.77
0.75
-0.03
-2.35
-5.24
-7.96
-10.13
-11.90
-13.71
-16.13
-19.81
-25.64
-34.59
-47.50
-64.56
-84.96
-106.80
-127.65
-145.31
-158.58
-167.52
-173.14
-176.69
-178.97
-180.09
-179.72
-177.49
-173.47
-168.18
-162.34
-156.57
-151.15
-146.06
-141.07
-136.02
-130.87
-125.73
-120.74
-116.01
-111.64
-107.71
-104.33
-101.60
-99.55
-98.03
-96.56
-94.49
-91.07
-85.78
-78.56
-69.90
-60.79
-52.37
-45.69
-41.32
-39.37
-39.55
-41.36
-44.35
-48.12
-52.48
-57.28
-62.48
-68.05
-73.98
-80.24
-86.73
-93.32
-99.89
-106.36
-112.71
-118.87
-124.68
-129.78
-133.60
-135.42
-134.44
-129.79
-120.62
-106.22
-86.31
-61.26
-32.13
-0.49
31.94
63.68
93.61
120.87
144.69
164.26
178.91
188.37
193.03
193.92
192.35
189.42
185.56
180.46
173.50
164.19
152.79
140.34
128.44
118.60
111.69
107.58
105.29
103.36
100.49
95.89
89.47
81.71
73.37
65.14
57.52
50.72
44.77
39.62
35.24
31.57
28.51
25.89
23.57
21.60
20.27
20.12
21.71
25.32
30.75
37.33
44.11
50.11
54.65
57.31
58.01
56.84
53.99
49.72
44.33
38.07
31.13
23.62
15.65
7.42
-0.79
-8.67
-16.10
-23.21
-30.38
-37.89
-45.57
-52.59
-57.59
-59.14
-56.41
-49.69
-40.44
-30.90
-23.49
-20.13
-21.74
-27.98
-37.28
-47.20
-55.10
-58.76
-57.04
-50.08
-39.08
-25.74
-11.58
2.72
17.24
32.42
48.56
65.39
82.03
97.28
109.98
119.32
125.38
128.68
129.78
129.03
126.42
121.89
115.50
107.54
98.38
88.96
79.86
70.98
61.55
50.49
37.01
20.96
2.87
-16.31
-34.25
-48.73
-58.15
-61.88
-60.30
-54.27
-44.66
-32.00
-16.45
3.61
29.66
62.04
99.44
138.99
177.49
212.52
243.16
259.67
255.20
227.14
179.08
119.84
59.24
4.58
-40.25
-74.21
-98.19
-112.64
-118.59
-117.79
-112.35
-104.67
-97.00
-91.06
-88.04
-88.57
-91.45
-93.99
-94.80
-93.00
-88.77
-83.14
-77.58
-73.48
-71.78
-71.99
-72.94
-73.50
-72.90
-71.13
-68.85
-66.85
-65.79
-66.03
-67.23
-68.82
-70.34
-71.08
-70.69
-69.04
-66.18
-62.39
-58.20
-54.19
-51.03
-49.38
-49.69
-52.20
-56.99
-63.92
-72.65
-82.65
-93.20
-103.45
-112.52
-119.47
-123.45
-123.81
-120.21
-112.74
-101.97
-88.79
-74.23
-59.13
-43.97
-28.81
-13.43
2.46
19.02
36.09
53.26
69.92
85.50
99.73
112.71
124.97
137.13
149.60
162.25
174.34
184.70
192.04
195.37
194.26
188.99
180.46
169.90
158.53
147.26
136.53
126.30
116.32
106.36
96.39
86.66
77.53
69.30
62.09
55.89
50.54
45.78
41.26
36.54
31.26
25.29
18.92
12.81
7.71
4.35
3.14
4.22
7.53
12.89
20.01
28.48
37.77
47.31
56.65
65.59
74.14
82.37
90.25
97.65
104.26
109.73
113.67
115.66
115.31
112.34
106.66
98.48
88.24
76.52
63.81
50.35
36.20
21.28
5.60
-10.59
-26.77
-42.28
-56.35
-68.35
-77.82
-84.57
-88.72
-90.67
-90.98
-90.20
-88.68
-86.51
-83.65
-80.11
-76.10
-72.11
-68.77
-66.67
-66.13
-67.15
-69.57
-73.10
-77.54
-82.71
-88.34
-94.08
-99.49
-104.17
-107.93
-110.82
-113.13
-115.27
-117.67
-120.65
-124.44
-129.12
-134.71
-141.04
-147.77
-154.37
-160.05
-164.08
-166.02
-165.92
-164.33
-162.07
-159.82
-157.78
-155.72
-153.14
-149.45
-144.06
-136.27
-125.25
-110.22
-90.87
-67.69
-41.96
-15.46
10.17
33.89
55.26
74.18
90.52
103.92
114.07
120.97
125.20
127.64
129.07
129.61
128.63
124.92
117.33
105.27
89.15
70.42
51.35
34.56
22.44
16.66
17.72
24.93
36.68
50.86
65.46
78.98
90.63
100.29
108.39
115.59
122.57
129.63
136.43
141.95
144.78
143.60
137.58
126.66
111.33
92.36
70.51
46.72
22.18
-1.44
-22.22
-38.51
-49.56
-55.74
-58.47
-59.54
-60.45
-61.93
-63.87
-65.56
-66.11
-64.86
-61.61
-56.63
-50.48
-43.85
-37.36
-31.61
-27.22
-24.74
-24.58
-26.69
-30.48
-34.95
-39.04
-42.11
-44.23
-46.02
-48.28
-51.41
-55.17
-58.84
-61.62
-63.09
-63.42
-63.22
-63.21
-63.82
-65.07
-66.58
-67.81
-68.21
-67.40
-65.24
-61.83
-57.58
-53.15
-49.46
-47.32
-47.32
-49.55
-53.52
-58.21
-62.30
-64.40
-63.40
-58.70
-50.28
-38.62
-24.52
-8.86
7.47
23.65
38.86
52.25
63.02
70.54
74.53
75.11
72.66
67.89
61.76
55.25
49.28
44.48
41.16
39.27
38.46
38.05
37.41
36.10
33.97
31.04
27.37
23.04
18.12
12.74
6.87
0.65
-5.63
-11.73
-17.64
-23.65
-30.00
-36.61
-43.08
-49.59
-56.20
-62.76
-68.98
-74.80
-80.48
-86.47
-93.09
-100.46
-110.06
-122.29
-135.93
-148.35
-156.83
-159.78
-157.17
-150.20
-140.86
-133.95
-132.74
-137.63
-146.31
-155.55
-162.80
-166.81
-167.36
-164.84
-163.45
-166.03
-172.57
-180.41
-186.36
-188.45
-186.49
-181.52
-152.91
-92.83
-8.33
82.12
161.23
220.87
261.07
285.40
297.89
302.03
297.12
283.34
263.12
240.75
220.08
203.37
190.90
182.08
176.30
170.18
161.13
147.97
130.83
110.10
86.60
61.43
36.62
14.76
-3.71
-19.05
-31.78
-42.20
-51.79
-59.73
-65.55
-69.07
-70.37
-70.51
-69.88
-67.41
-59.55
-44.40
-21.09
8.70
41.16
71.48
95.22
110.08
116.36
116.19
112.29
107.22
102.35
98.20
94.80
92.07
89.83
87.89
85.96
83.72
81.29
78.61
75.65
72.24
68.23
63.56
58.86
53.61
47.43
40.19
31.70
22.13
12.03
2.31
-6.15
-12.81
-17.80
-21.66
-24.92
-27.80
-29.93
-30.58
-29.12
-25.52
-20.56
-15.63
-12.08
-10.70
-11.60
-14.29
-17.94
-21.73
-24.89
-26.69
-26.64
-24.42
-20.23
-14.85
-9.37
-4.85
-1.93
-0.77
-1.04
-2.27
-3.93
-5.60
-6.94
-7.68
-7.61
-6.63
-4.87
-2.60
-0.26
1.71
2.89
2.95
1.78
-0.60
-3.99
-7.90
-11.58
-14.02
-14.27
-11.78
-6.69
0.10
7.21
13.24
17.23
18.92
18.79
17.64
16.19
14.74
13.13
10.97
7.96
4.01
-0.55
-4.89
-7.89
-8.56
-6.42
-1.65
4.99
12.45
19.50
25.35
29.81
33.21
35.90
37.86
38.62
37.70
34.90
30.19
23.92
16.51
8.43
-0.01
-8.47
-16.40
-22.91
-25.25
-22.15
-15.13
-8.14
-4.77
-6.04
-10.27
-14.88
-18.13
-19.98
-22.07
-25.95
-32.08
-39.31
-45.70
-49.79
-51.43
-51.59
-51.79
-53.49
-57.10
-62.24
-67.65
-71.81
-73.34
-71.39
-65.70
-56.64
-46.48
-35.89
-25.86
-17.16
-10.21
-5.05
-1.48
1.01
3.02
5.12
7.91
11.36
14.99
17.77
18.30
15.30
8.21
-2.41
-14.95
-27.04
-36.65
-42.40
-44.01
-42.22
-38.46
-34.27
-30.85
-28.79
-27.84
-27.57
-27.27
-26.14
-23.68
-19.80
-14.87
-9.55
-4.48
-0.08
3.43
6.00
7.64
8.32
8.08
7.07
5.61
3.98
2.44
1.03
-0.17
-0.94
-0.82
0.78
4.29
9.76
16.73
24.38
31.75
37.98
42.52
45.10
45.82
45.05
43.40
41.55
40.03
39.07
38.55
38.22
37.90
37.72
38.07
39.43
41.99
45.58
49.72
53.86
57.54
60.50
62.49
63.22
62.31
59.56
55.13
49.69
44.14
39.20
34.94
30.73
25.53
18.49
9.45
-0.86
-11.15
-20.18
-27.22
-32.28
-35.96
-39.02
-42.05
-45.25
-48.48
-51.30
-53.11
-53.20
-50.89
-45.71
-37.57
-27.03
-15.18
-3.44
6.93
15.11
20.96
24.92
27.74
30.14
32.53
34.95
37.03
38.29
38.30
36.92
34.37
31.13
27.81
24.91
22.79
21.59
21.31
21.79
22.82
24.11
25.32
26.07
25.91
24.34
20.90
15.38
7.96
-0.70
-9.56
-17.57
-24.01
-28.71
-32.02
-34.51
-36.67
-38.68
-40.61
-42.48
-44.51
-46.97
-50.02
-53.38
-56.28
-57.64
-56.54
-52.60
-46.22
-38.46
-30.61
-23.71
-18.26
-14.23
-11.22
-8.87
-7.04
-5.83
-5.43
-5.91
-7.23
-9.17
-11.53
-14.17
-16.90
-19.47
-21.50
-22.61
-22.66
-21.94
-21.21
-21.45
-23.41
-27.26
-32.41
-37.79
-42.32
-45.45
-47.49
-49.44
-52.54
-57.71
-65.08
-74.00
-83.30
-91.53
-97.13
-98.58
-94.73
-85.21
-70.95
-54.19
-37.80
-23.99
-13.07
-3.10
9.38
27.57
52.69
83.10
114.86
143.28
164.79
177.97
183.73
184.45
182.84
180.96
179.85
179.62
179.96
180.62
181.62
183.11
184.88
186.04
184.94
179.72
169.19
153.57
134.69
115.30
98.02
84.14
73.29
63.78
53.63
41.67
27.96
13.62
0.14
-11.38
-20.50
-27.26
-31.85
-34.29
-34.50
-32.59
-29.14
-25.32
-22.65
-22.53
-25.81
-32.45
-41.60
-51.85
-61.79
-70.29
-76.90
-81.75
-85.36
-88.32
-90.99
-93.42
-95.43
-96.77
-97.28
-96.93
-95.80
-94.02
-91.64
-88.65
-84.94
-80.34
-74.68
-67.93
-60.24
-52.05
-43.97
-36.64
-30.56
-25.86
-22.39
-19.76
-17.63
-15.88
-14.57
-13.89
-13.88
-14.35
-14.93
-15.25
-15.19
-14.94
-14.94
-15.65
-17.25
-19.67
-22.62
-25.79
-28.94
-31.88
-34.33
-35.87
-35.95
-34.13
-30.28
-24.71
-18.05
-11.07
-4.41
1.58
6.80
11.27
15.04
18.03
20.15
21.33
21.56
20.84
19.14
16.29
12.03
6.25
-0.83
-8.49
-15.63
-21.09
-24.06
-24.40
-22.64
-19.78
-16.85
-14.58
-13.33
-13.09
-13.72
-15.00
-16.76
-18.77
-20.74
-22.36
-23.37
-23.65
-23.27
-22.45
-21.48
-20.54
-19.60
-18.35
-16.22
-12.55
-6.78
1.30
11.45
23.00
35.12
47.11
58.50
69.05
78.56
86.74
93.16
97.36
99.11
98.51
95.97
92.03
87.14
81.62
75.68
69.55
63.54
57.94
52.94
48.53
44.59
40.90
37.19
33.21
28.59
22.95
16.02
7.76
-1.50
-11.14
-20.44
-28.79
-35.58
-40.40
-43.12
-43.92
-43.34
-42.20
-41.32
-41.34
-42.50
-44.20
-45.48
-45.40
-43.45
-39.72
-34.83
-29.61
-24.81
-20.96
-17.72
-14.46
-10.55
-5.72
-0.26
5.17
9.97
13.86
16.96
20.55
26.16
35.11
48.19
65.46
86.29
109.83
135.14
156.06
166.96
163.95
146.93
119.95
89.12
59.50
33.79
12.27
-6.26
-22.48
-36.40
-47.38
-54.61
-57.55
-56.67
-52.74
-46.67
-39.38
-31.13
-22.19
-13.13
-4.98
2.32
7.81
11.73
15.30
20.05
26.86
35.16
42.86
45.92
42.50
32.38
17.47
1.00
-13.63
-24.12
-30.05
-32.96
-35.70
-41.24
-51.84
-67.75
-87.11
-106.55
-122.91
-134.30
-140.55
-142.66
-141.68
-138.22
-132.07
-123.94
-113.22
-100.50
-87.13
-74.37
-62.74
-51.78
-40.62
-28.46
-15.20
-1.43
11.41
21.80
28.75
32.17
32.84
31.93
30.64
29.69
29.44
29.70
30.20
30.85
31.82
33.28
35.26
37.50
39.46
40.64
40.63
39.34
37.00
34.03
30.87
27.91
25.34
23.23
21.48
19.96
18.53
17.03
15.38
13.56
11.73
10.17
9.20
9.07
9.87
11.39
13.18
14.68
15.42
15.11
13.74
11.44
8.45
5.00
1.37
-2.16
-5.16
-7.18
-7.85
-7.09
-5.17
-2.74
-0.70
0.01
-1.40
-5.43
-12.24
-21.54
-32.66
-44.58
-56.00
-65.56
-72.07
-74.79
-73.54
-68.68
-60.99
-51.37
-40.66
-29.56
-18.50
-7.72
2.71
12.88
22.94
33.00
43.03
52.77
61.77
69.57
75.85
80.54
83.79
85.80
86.72
86.52
85.06
82.12
77.59
71.42
63.70
54.49
43.91
32.18
19.67
7.01
-5.06
-15.87
-25.09
-32.80
-39.47
-45.71
-51.89
-58.04
-63.83
-68.77
-72.50
-74.96
-76.44
-77.37
-78.16
-78.96
-79.69
-80.19
-80.44
-80.68
-81.48
-83.53
-87.28
-92.76
-99.44
-106.37
-112.51
-117.07
-119.65
-120.38
-119.74
-118.41
-117.15
-116.62
-117.28
-119.26
-122.28
-125.62
-128.29
-129.31
-127.94
-123.92
-117.33
-108.45
-97.49
-84.49
-69.40
-52.30
-33.59
-13.87
6.17
26.06
45.62
64.83
83.53
101.35
117.67
131.95
143.99
153.89
161.98
168.56
173.70
177.31
179.34
179.83
179.08
177.41
175.13
172.38
169.25
165.88
162.53
159.59
157.45
156.32
156.06
156.20
156.00
154.71
151.79
147.21
141.41
135.11
129.07
123.75
119.27
115.38
111.64
107.55
102.62
96.44
88.72
79.27
68.07
55.26
41.03
25.61
9.16
-8.12
-25.93
-43.79
-61.07
-77.12
-91.40
-103.59
-113.63
-121.61
-127.69
-131.99
-134.53
-135.35
-134.48
-132.05
-128.28
-123.40
-117.65
-111.22
-104.29
-97.06
-89.80
-82.84
-76.42
-70.58
-65.21
-60.01
-54.84
-49.85
-45.57
-42.66
-41.61
-42.49
-44.84
-47.94
-51.13
-54.15
-57.15
-60.49
-64.41
-68.77
-73.12
-76.91
-79.72
-81.36
-81.78
-80.98
-78.88
-75.44
-70.79
-65.35
-59.85
-55.00
-51.28
-48.74
-47.04
-45.65
-44.13
-42.27
-40.08
-37.62
-34.85
-31.47
-26.96
-20.80
-12.65
-2.58
8.97
21.38
34.23
47.45
61.35
76.38
92.76
110.22
127.99
145.04
160.40
173.53
184.29
192.75
199.00
202.92
204.32
203.01
199.05
192.68
184.32
174.36
163.11
150.82
137.74
124.27
110.95
98.38
87.06
77.17
68.54
60.67
53.00
45.03
36.62
27.97
19.59
12.14
6.26
2.46
1.01
1.98
5.14
10.12
16.32
23.09
29.76
35.82
40.84
44.53
46.63
46.94
45.26
41.52
35.83
28.49
19.95
10.75
1.42
-7.62
-16.08
-23.85
-31.03
-37.85
-44.67
-51.85
-59.70
-68.37
-77.88
-88.05
-98.56
-108.96
-118.80
-127.66
-135.35
-141.83
-147.23
-151.60
-154.82
-156.57
-156.46
-154.21
-149.87
-143.76
-136.36
-128.15
-119.54
-110.91
-102.74
-95.48
-89.41
-84.28
-79.17
-72.79
-63.91
-51.99
-37.49
-21.70
-6.20
7.79
19.80
30.11
39.31
47.89
55.82
62.60
67.51
69.98
69.88
67.52
63.50
58.41
52.57
46.03
38.71
30.66
22.22
14.03
6.76
0.82
-3.78
-7.51
-10.93
-14.53
-18.46
-22.57
-26.61
-30.40
-33.98
-37.53
-41.21
-44.86
-47.98
-49.76
-49.38
-46.36
-40.76
-33.24
-24.93
-17.11
-10.92
-7.14
-5.89
-6.70
-8.48
-9.88
-9.69
-7.24
-2.75
2.83
8.19
12.32
15.07
17.28
20.44
26.02
34.84
46.68
60.38
74.22
86.47
95.82
101.48
103.13
100.76
94.55
85.05
73.15
60.05
46.94
34.66
23.42
12.89
2.44
-8.37
-19.52
-30.45
-40.35
-48.55
-54.82
-59.35
-62.55
-64.80
-66.22
-66.68
-65.96
-64.00
-61.03
-57.57
-54.17
-51.17
-48.64
-46.43
-44.35
-42.45
-41.01
-40.52
-41.45
-43.88
-47.54
-51.91
-56.48
-61.01
-65.66
-70.77
-76.68
-83.52
-90.75
-97.39
-102.33
-104.91
-105.33
-104.55
-103.89
-104.42
-106.60
-109.57
-111.63
-110.94
-106.30
-97.53
-85.27
-70.30
-53.08
-33.76
-11.52
14.77
46.24
83.65
127.21
176.64
231.18
289.28
343.13
382.53
397.75
384.28
345.39
290.30
229.53
171.23
119.88
77.04
43.40
19.21
4.30
-2.61
-4.26
-4.09
-5.05
-8.67
-15.01
-22.56
-29.38
-33.93
-35.60
-34.81
-32.57
-30.09
-28.30
-27.75
-28.13
-28.47
-27.49
-24.21
-18.59
-11.27
-3.35
4.06
10.19
14.71
17.54
18.54
17.95
15.21
10.36
4.07
-2.54
-8.28
-12.31
-14.39
-14.90
-14.56
-14.28
-14.57
-15.57
-16.98
-18.29
-18.89
-18.31
-16.33
-13.03
-8.80
-4.08
0.65
4.97
8.50
11.04
12.64
13.48
13.89
14.20
14.77
15.83
17.56
19.78
22.20
24.38
25.84
26.22
25.35
23.43
20.94
19.63
20.72
24.92
32.22
41.84
52.45
62.51
70.72
76.41
79.65
81.06
81.71
82.66
84.56
87.37
90.26
91.89
90.85
86.19
77.78
66.63
54.67
44.13
36.83
33.56
33.88
36.40
39.33
41.00
40.32
36.68
29.71
19.06
4.40
-14.28
-36.26
-60.01
-83.36
-104.02
-120.17
-131.01
-136.80
-138.61
-137.85
-135.70
-132.90
-129.77
-126.40
-122.91
-119.61
-116.88
-114.94
-113.63
-112.31
-110.08
-106.10
-99.98
-91.87
-82.36
-72.20
-62.02
-52.12
-42.52
-33.10
-23.85
-15.02
-7.13
-0.84
3.31
5.17
5.14
4.06
2.97
2.69
3.55
5.32
7.33
8.88
9.49
9.02
7.69
5.87
3.91
2.05
0.39
-1.10
-2.57
-4.20
-6.19
-8.65
-11.53
-14.52
-17.22
-19.28
-20.50
-20.95
-20.90
-20.78
-21.07
-22.31
-25.00
-29.42
-35.30
-41.59
-46.52
-48.10
-44.87
-36.60
-24.46
-10.71
2.04
11.52
16.24
15.48
9.15
-2.36
-18.25
-37.25
-57.81
-78.29
-97.37
-114.31
-128.94
-141.53
-152.43
-161.84
-169.64
-175.46
-178.82
-179.33
-176.86
-171.57
-163.78
-153.79
-141.70
-127.42
-110.83
-91.98
-71.25
-49.39
-27.27
-5.78
14.41
32.89
49.48
64.23
77.26
88.70
98.57
106.75
113.04
117.16
118.98
118.40
115.49
110.39
103.34
94.64
84.83
74.72
65.50
58.60
55.36
56.66
62.48
71.85
83.05
94.25
104.09
112.12
118.66
124.37
129.63
134.32
138.03
140.50
141.97
143.09
144.52
146.38
148.07
148.51
146.68
142.25
135.77
128.47
121.84
117.10
114.93
115.36
117.89
121.62
125.49
128.46
129.70
128.65
125.13
119.17
111.02
100.95
89.23
76.07
61.59
45.91
29.09
11.29
-7.24
-26.15
-44.94
-63.14
-80.44
-96.75
-112.12
-126.58
-139.94
-151.69
-161.16
-167.77
-171.38
-172.33
-171.38
-169.40
-167.10
-164.83
-162.73
-160.72
-158.67
-156.38
-153.54
-149.74
-144.59
-137.85
-129.54
-119.88
-109.01
-96.89
-83.17
-67.37
-49.16
-28.65
-6.57
15.83
37.07
55.79
71.10
82.72
90.95
96.48
100.19
102.88
105.18
107.55
110.31
113.71
117.91
122.81
128.05
133.00
136.96
139.33
139.88
138.84
136.90
134.94
133.66
133.35
133.87
134.59
134.72
133.38
129.71
123.01
112.83
99.08
82.28
63.66
44.95
27.96
13.99
3.41
-4.30
-10.32
-16.23
-23.13
-31.38
-40.64
-50.29
-59.87
-69.45
-79.39
-90.09
-102.30
-116.06
-130.79
-145.43
-159.09
-171.42
-182.86
-193.91
-204.75
-216.08
-227.84
-239.43
-249.92
-258.48
-264.59
-268.54
-270.52
-270.42
-269.20
-267.08
-263.55
-257.29
-246.78
-230.81
-209.36
-182.74
-143.88
-90.96
-27.49
38.02
96.41
141.52
175.54
201.70
222.69
240.71
253.79
260.95
262.42
259.76
255.18
250.62
246.59
242.79
238.57
232.10
222.59
210.28
196.44
182.73
170.43
159.55
149.53
139.89
129.81
119.47
109.80
102.16
97.60
96.28
97.06
98.18
97.91
94.63
87.54
76.47
61.65
43.43
22.14
-1.94
-28.20
-55.50
-82.54
-107.76
-129.85
-147.93
-161.55
-170.67
-175.52
-176.26
-172.96
-165.73
-154.90
-141.23
-125.90
-110.21
-95.08
-80.84
-67.15
-53.44
-39.35
-25.16
-11.76
-0.27
8.40
13.93
16.61
17.03
15.70
12.76
8.03
1.13
-8.18
-19.91
-33.76
-49.23
-65.66
-82.35
-98.56
-113.52
-126.48
-136.77
-143.83
-147.15
-146.18
-140.36
-129.20
-112.51
-90.56
-64.11
-34.38
-2.83
29.01
59.67
87.84
112.40
132.50
147.54
157.30
161.88
161.68
157.31
149.44
138.71
125.65
110.76
94.49
77.45
60.52
44.72
31.06
20.14
11.96
5.99
1.41
-2.75
-7.04
-11.48
-15.70
-19.27
-21.97
-23.93
-25.49
-27.02
-29.08
-31.86
-35.20
-38.79
-42.40
-45.98
-49.60
-53.31
-56.88
-60.40
-63.60
-66.00
-67.33
-67.59
-67.16
-66.57
-66.26
-66.32
-67.06
-68.33
-69.50
-70.00
-69.58
-68.44
-67.19
-66.75
-63.78
-56.66
-45.37
-31.19
-15.98
-1.05
12.85
24.82
33.35
36.70
33.22
22.24
6.50
-9.81
-22.51
-28.74
-27.66
-20.19
-8.08
6.47
21.93
37.67
53.42
68.21
80.68
89.59
94.24
94.82
91.96
86.75
80.41
73.70
66.92
60.08
53.13
46.13
39.32
32.91
27.09
22.09
17.93
14.45
11.48
8.85
6.55
4.78
3.92
4.40
6.61
10.52
15.72
21.45
26.79
30.84
32.80
31.95
27.59
19.14
6.30
-10.61
-30.38
-50.93
-69.60
-83.78
-91.56
-92.17
-86.16
-75.04
-60.84
-45.48
-30.39
-16.34
-3.47
8.46
19.83
30.88
41.50
51.10
58.72
63.30
64.03
60.74
53.96
44.85
34.91
25.57
17.98
12.83
10.35
10.41
12.62
16.39
21.08
26.13
31.17
36.07
40.93
45.91
51.01
55.96
60.08
62.66
63.31
62.27
60.47
59.10
59.12
60.77
63.41
65.47
65.14
60.92
51.98
38.34
20.49
-0.64
-23.69
-46.91
-68.65
-87.35
-101.80
-111.46
-116.50
-118.12
-118.03
-117.76
-118.16
-119.68
-121.93
-123.80
-123.76
-120.30
-112.73
-101.37
-87.11
-69.17
-48.15
-25.66
-3.79
14.98
31.39
47.05
63.24
80.09
96.71
110.82
119.96
122.40
117.85
107.71
94.12
79.23
63.98
49.51
35.84
21.85
5.61
-14.66
-39.39
-67.35
-96.96
-125.26
-148.72
-164.79
-172.33
-171.68
-164.05
-151.01
-132.54
-109.82
-84.12
-56.73
-29.27
-3.39
19.55
38.71
53.83
65.03
72.39
76.46
78.04
77.75
75.92
72.73
68.34
63.17
57.91
53.11
49.32
46.68
44.74
42.74
39.99
36.31
32.05
27.88
24.27
21.39
18.94
16.29
12.73
7.81
1.52
-5.66
-13.03
-19.96
-26.01
-31.01
-35.00
-38.00
-39.96
-40.73
-40.32
-39.12
-37.97
-37.85
-39.50
-43.03
-47.81
-52.72
-56.58
-58.51
-58.19
-55.66
-51.17
-44.89
-36.90
-27.24
-16.13
-4.08
8.08
19.38
29.02
36.53
41.91
45.59
48.15
50.14
51.83
53.25
54.28
54.84
54.98
54.86
54.70
54.57
54.35
53.73
52.33
49.76
45.84
40.38
33.23
24.08
12.71
-0.87
-16.12
-32.07
-47.53
-61.60
-74.03
-85.17
-95.62
-105.78
-115.53
-124.36
-131.81
-137.85
-143.02
-148.15
-153.87
-160.23
-166.54
-171.39
-172.98
-169.47
-159.34
-141.74
-116.77
-85.51
-49.91
-12.39
24.57
58.84
88.97
114.32
135.00
151.66
165.19
176.29
185.22
191.85
195.86
197.10
195.77
192.29
187.06
180.23
171.66
161.25
149.20
136.12
122.93
110.44
99.06
88.69
78.97
69.53
60.31
51.63
44.01
37.83
33.09
29.36
25.97
22.34
18.29
14.10
10.34
7.42
5.34
3.54
1.12
-2.72
-8.25
-15.04
-22.00
-27.75
-31.04
-31.10
-27.85
-21.86
-14.13
-5.85
1.92
8.43
13.33
16.66
18.67
19.77
20.34
20.68
21.01
21.41
21.90
22.41
22.85
23.08
22.98
22.43
21.33
19.58
17.05
13.55
8.84
2.68
-5.03
-14.22
-24.51
-35.40
-46.31
-56.71
-66.15
-74.26
-80.71
-85.23
-87.74
-88.37
-87.41
-85.26
-82.17
-78.19
-73.20
-67.04
-59.66
-51.15
-41.69
-31.50
-20.73
-9.56
1.79
13.02
23.76
33.66
42.47
50.04
56.39
61.71
66.32
70.61
75.01
79.75
84.87
90.25
95.75
101.35
107.15
113.19
119.25
124.57
127.97
128.05
123.67
114.34
100.37
82.74
62.79
41.79
20.82
0.62
-18.24
-35.29
-50.21
-62.88
-73.49
-82.53
-90.49
-97.70
-104.14
-109.48
-113.38
-115.71
-116.61
-116.47
-115.68
-114.49
-113.02
-111.31
-109.39
-107.14
-104.27
-100.11
-93.78
-84.46
-71.81
-56.27
-39.01
-21.59
-5.50
8.32
19.63
28.76
36.36
42.94
48.72
53.60
57.21
59.20
59.29
57.44
53.79
48.76
42.94
36.98
31.49
26.84
23.12
20.22
17.92
16.01
14.40
13.04
11.86
10.74
9.47
7.90
5.96
3.68
1.17
-1.50
-4.30
-7.32
-10.68
-14.46
-18.56
-22.74
-26.57
-29.60
-31.54
-32.38
-32.44
-32.27
-32.48
-33.48
-35.24
-37.30
-38.88
-39.16
-37.60
-34.15
-29.25
-23.68
-18.27
-13.64
-10.05
-7.49
-5.77
-4.75
-4.39
-4.73
-5.76
-7.38
-9.36
-11.39
-13.19
-14.59
-15.51
-15.99
-16.12
-16.05
-15.91
-15.80
-15.73
-15.65
-15.42
-14.84
-13.70
-11.82
-9.07
-5.45
-1.13
3.61
8.40
12.92
17.02
20.68
23.94
26.76
29.00
30.34
30.55
29.50
27.25
24.07
20.26
16.20
12.34
9.20
7.33
7.18
8.90
12.26
16.68
21.29
25.25
27.82
28.54
27.20
23.80
18.54
11.75
3.91
-4.39
-12.57
-20.15
-26.89
-32.79
-38.01
-42.76
-47.13
-50.98
-53.97
-55.64
-55.62
-53.72
-50.05
-45.03
-39.17
-32.99
-26.74
-20.41
-13.79
-6.68
0.89
8.54
15.62
21.52
25.90
28.88
30.96
32.77
34.80
37.16
39.55
41.48
42.42
42.15
40.89
39.24
38.04
37.97
39.27
41.63
44.29
46.32
46.96
45.83
42.96
38.58
32.96
26.22
18.35
9.32
-0.83
-11.91
-23.60
-35.53
-47.35
-58.84
-69.89
-80.44
-90.36
-99.32
-106.75
-111.97
-114.37
-113.65
-109.90
-103.54
-95.10
-84.96
-73.36
-60.48
-46.70
-32.72
-19.44
-7.78
1.70
8.86
13.90
17.02
18.26
17.40
14.22
8.84
1.96
-5.23
-11.36
-15.41
-16.97
-16.32
-14.24
-11.59
-8.93
-6.37
-3.60
-0.25
3.85
8.54
13.39
17.95
21.94
25.36
28.34
30.97
33.10
34.42
34.61
33.53
31.34
28.43
25.22
22.11
19.33
16.89
14.63
12.32
9.69
6.50
2.63
-1.90
-6.68
-11.23
-15.27
-18.79
-22.07
-25.44
-29.06
-32.91
-36.85
-40.17
-42.23
-42.61
-41.23
-38.35
-34.52
-30.35
-26.41
-23.12
-19.64
-14.64
-6.81
4.61
19.60
37.28
56.62
76.62
96.44
116.54
137.38
159.01
180.71
201.30
219.56
235.10
248.23
252.02
241.22
213.37
170.77
119.98
68.93
23.61
-12.84
-40.05
-59.55
-72.61
-80.38
-83.99
-84.70
-82.53
-79.30
-76.58
-75.58
-76.89
-79.63
-82.06
-82.42
-79.71
-74.06
-66.92
-59.98
-54.73
-51.54
-50.39
-49.72
-47.92
-44.33
-39.46
-35.05
-32.73
-33.68
-37.61
-42.95
-47.31
-48.79
-46.59
-40.81
-32.79
-24.17
-17.11
-12.84
-11.92
-13.78
-17.30
-21.03
-22.84
-21.08
-14.52
-3.11
13.53
32.84
52.08
68.77
81.91
92.73
102.36
116.09
132.75
150.20
166.84
182.66
199.20
213.58
225.51
234.77
240.75
241.55
235.81
222.70
202.73
177.64
150.04
123.45
100.56
82.77
69.64
60.14
52.47
44.54
34.28
20.21
2.49
-17.79
-38.88
-59.18
-77.01
-91.00
-100.06
-103.50
-101.16
-93.29
-81.07
-66.36
-51.17
-36.75
-23.49
-11.06
1.04
13.02
24.80
35.86
45.53
53.14
58.28
60.74
60.50
57.70
52.69
45.95
37.91
28.77
18.55
7.15
-5.52
-19.31
-33.86
-48.58
-62.80
-75.88
-87.32
-96.71
-103.82
-108.60
-111.22
-112.13
-111.96
-111.31
-110.63
-110.04
-109.49
-108.69
-107.23
-104.78
-101.22
-96.71
-91.59
-86.31
-81.32
-77.08
-73.88
-71.76
-70.60
-70.26
-70.66
-71.74
-73.40
-75.40
-77.71
-80.12
-82.37
-84.26
-85.77
-87.11
-88.47
-89.93
-91.46
-93.74
-97.08
-101.32
-105.92
-110.40
-114.54
-118.40
-122.05
-125.76
-131.28
-139.46
-149.88
-161.20
-172.17
-182.18
-191.26
-199.45
-207.00
-216.32
-228.15
-241.11
-252.28
-259.02
-260.06
-255.75
-247.19
-236.26
-227.55
-222.92
-220.68
-216.73
-207.34
-191.11
-169.33
-144.80
-100.64
-33.01
49.64
131.12
198.06
245.53
275.55
290.86
299.09
304.94
307.27
304.60
296.65
284.65
269.65
252.62
235.30
220.37
209.67
201.64
194.62
187.68
180.91
174.80
169.91
167.25
167.77
171.04
174.11
174.41
170.83
163.99
155.60
147.61
142.38
141.57
145.16
151.09
157.07
161.41
163.33
162.45
153.76
134.29
104.39
67.71
29.05
-7.50
-39.46
-65.62
-85.84
-100.73
-110.57
-115.92
-117.77
-117.49
-116.27
-115.04
-113.96
-112.58
-110.07
-105.18
-97.38
-87.37
-76.90
-67.81
-61.38
-57.75
-56.01
-54.72
-52.28
-47.78
-41.29
-34.48
-28.29
-23.77
-21.53
-21.53
-23.00
-24.50
-24.49
-21.93
-16.63
-9.27
-1.28
5.88
11.23
14.66
16.89
18.94
21.65
25.25
29.46
33.52
36.67
38.46
38.81
37.92
36.12
33.67
30.81
27.80
24.89
22.39
20.37
18.97
18.24
18.09
18.34
18.85
19.50
20.24
21.02
21.81
22.63
23.55
24.65
26.07
27.91
30.25
33.10
36.53
40.60
45.35
50.66
56.11
60.98
64.40
65.53
63.75
58.78
50.59
39.49
26.04
11.16
-4.01
-18.25
-30.69
-41.11
-50.00
-58.22
-66.56
-75.23
-83.75
-91.23
-96.87
-100.49
-102.64
-104.43
-106.98
-110.80
-115.55
-120.14
-123.22
-123.84
-122.03
-118.86
-116.18
-115.82
-118.95
-125.54
-134.38
-143.52
-150.93
-155.16
-155.78
-153.55
-150.25
-148.32
-150.03
-156.49
-166.77
-177.62
-184.08
-180.90
-164.40
-133.63
-90.66
-39.53
15.31
70.41
124.02
175.97
227.09
278.41
330.48
382.71
432.97
477.51
511.57
530.53
531.32
513.44
479.18
432.98
380.12
325.43
272.37
222.70
176.63
133.26
91.12
48.78
5.44
-38.74
-82.52
-123.86
-160.56
-190.73
-213.38
-228.45
-236.63
-238.89
-235.86
-227.54
-213.20
-191.71
-162.03
-123.90
-78.28
-27.63
24.31
73.13
114.82
146.66
167.84
179.36
183.28
181.70
175.93
166.15
151.72
131.71
105.62
73.76
37.40
-1.36
-39.85
-75.37
-105.58
-128.92
-144.79
-153.52
-156.19
-154.34
-149.68
-143.84
-138.01
-132.76
-127.92
-122.71
-116.14
-107.50
-96.70
-84.37
-71.56
-59.41
-48.81
-40.24
-33.80
-29.28
-26.28
-24.25
-22.62
-20.92
-18.89
-16.53
-14.04
-11.67
-9.62
-7.89
-6.37
-4.84
-3.12
-1.14
1.12
3.59
6.13
8.59
10.76
12.40
13.32
13.42
12.74
11.44
9.72
7.80
5.80
3.82
1.86
-0.15
-2.29
-4.72
-7.53
-10.81
-14.54
-18.61
-22.89
-27.19
-31.35
-35.17
-38.44
-40.94
-42.54
-43.22
-43.19
-42.73
-42.25
-42.08
-42.41
-43.21
-44.17
-44.84
-44.80
-43.78
-41.64
-38.48
-34.57
-30.18
-25.38
-19.95
-13.37
-4.94
5.99
20.27
38.25
59.47
82.36
104.29
122.23
133.50
136.74
132.32
122.86
111.93
102.73
96.98
94.41
93.23
91.20
86.68
79.38
71.37
65.71
65.30
71.58
84.01
100.50
118.49
136.02
146.81
146.47
133.07
107.93
75.16
39.65
5.40
-25.09
-50.51
-70.41
-84.23
-91.90
-94.11
-92.32
-88.47
-84.44
-81.55
-80.51
-81.52
-83.88
-86.38
-87.49
-85.56
-79.04
-66.93
-49.31
-27.70
-4.94
15.80
32.11
42.94
48.69
50.82
51.12
51.03
51.22
52.61
54.23
55.56
56.35
56.46
55.62
53.25
48.51
40.61
29.30
15.13
-0.19
-14.47
-25.94
-33.91
-38.97
-42.51
-45.94
-49.81
-53.80
-56.55
-56.61
-53.28
-46.96
-38.93
-30.82
-23.85
-18.40
-14.26
-10.67
-7.04
-3.33
-0.04
2.09
2.54
1.13
-1.04
-3.14
-4.51
-4.88
-4.36
-3.35
-2.26
-1.49
-1.40
-2.47
-5.33
-10.27
-17.07
-24.88
-32.52
-38.58
-41.98
-42.59
-41.62
-41.23
-43.46
-49.36
-58.62
-69.85
-81.05
-90.38
-96.95
-100.95
-103.06
-103.61
-102.18
-98.01
-90.37
-78.37
-60.90
-36.96
-6.13
31.05
73.01
117.11
159.72
194.20
212.55
209.99
188.10
153.70
114.97
78.57
48.56
26.38
11.41
1.94
-3.84
-7.57
-10.65
-14.00
-17.87
-21.91
-25.63
-28.59
-30.55
-31.17
-30.40
-28.60
-26.45
-24.53
-23.17
-22.54
-22.75
-23.98
-26.20
-29.34
-33.33
-38.15
-43.66
-49.60
-56.40
-63.12
-68.67
-71.65
-70.84
-65.48
-55.60
-41.86
-25.28
-7.08
11.70
29.94
46.65
60.97
72.27
80.29
85.20
87.39
87.19
84.83
80.26
73.44
64.62
54.43
43.77
33.63
24.78
17.56
11.98
7.69
4.13
0.73
-3.10
-7.84
-13.79
-20.38
-27.19
-33.84
-40.15
-46.15
-52.05
-58.08
-64.40
-70.76
-76.57
-81.21
-84.08
-84.83
-83.51
-80.63
-77.13
-74.27
-72.90
-73.35
-75.37
-78.11
-80.52
-81.80
-81.63
-80.23
-78.15
-75.28
-70.99
-64.44
-54.90
-41.97
-25.54
-5.51
18.01
43.67
69.33
91.96
108.46
116.83
116.78
109.70
97.96
86.79
77.60
70.70
66.11
63.87
64.15
67.15
73.02
81.86
91.31
99.78
106.75
112.40
117.26
121.88
126.56
131.20
135.38
138.48
139.94
139.70
138.05
135.36
132.05
128.36
124.27
119.56
114.04
107.86
101.81
96.93
93.82
92.44
91.90
90.62
86.84
79.16
67.06
50.95
31.80
10.14
-13.57
-39.03
-65.85
-93.57
-121.53
-148.89
-174.73
-198.36
-220.06
-240.03
-258.32
-274.64
-288.53
-299.40
-306.74
-310.12
-309.50
-305.97
-300.23
-292.49
-282.42
-269.47
-253.25
-233.88
-211.87
-181.35
-139.79
-87.93
-30.18
27.03
77.82
118.70
148.22
168.82
182.84
191.07
194.17
193.14
189.60
184.32
178.72
174.17
171.86
172.04
173.58
175.10
175.39
173.85
170.04
164.06
156.18
146.91
136.28
123.65
108.50
90.73
70.85
49.23
26.48
3.09
-20.28
-43.55
-67.07
-91.41
-117.03
-140.50
-158.52
-168.61
-170.29
-164.51
-153.42
-139.08
-123.27
-107.44
-92.88
-81.32
-73.99
-73.43
-78.13
-85.66
-93.38
-99.43
-102.81
-103.38
-102.01
-99.71
-97.16
-94.24
-91.03
-86.03
-78.97
-69.85
-58.64
-45.46
-30.55
-14.48
1.89
17.08
29.58
38.25
42.97
44.56
44.25
43.29
42.59
42.84
44.22
46.71
49.99
53.75
57.60
61.07
63.81
65.77
67.39
69.24
71.89
75.45
79.57
83.58
86.69
88.29
88.12
86.31
83.12
78.94
74.13
69.15
64.51
60.69
58.00
56.45
55.78
55.58
55.36
54.75
53.54
51.76
49.65
47.62
46.18
45.75
46.48
48.22
50.46
52.55
53.88
54.01
52.72
49.94
45.67
39.97
33.03
25.17
16.74
8.03
-0.86
-10.11
-20.04
-30.86
-42.58
-54.83
-67.05
-78.53
-88.67
-97.12
-103.85
-109.15
-113.58
-117.68
-121.83
-126.07
-130.04
-133.15
-134.77
-134.46
-131.99
-127.34
-120.58
-111.92
-101.76
-90.78
-79.80
-69.55
-60.33
-51.84
-43.35
-33.98
-23.08
-10.38
3.95
19.63
36.36
53.91
71.99
90.08
107.27
122.30
133.68
140.04
140.37
134.52
123.40
109.03
94.05
81.02
71.61
66.00
63.12
61.23
58.94
55.81
52.55
50.48
50.79
53.90
59.21
65.24
70.07
71.77
68.79
60.18
45.79
26.49
4.08
-18.97
-40.01
-56.92
-68.54
-74.77
-76.36
-74.48
-70.36
-65.15
-59.93
-55.70
-53.21
-52.67
-53.56
-54.58
-54.03
-50.39
-42.86
-31.72
-18.21
-3.93
9.63
21.48
31.05
38.03
42.18
43.31
41.40
36.81
30.53
23.88
17.94
13.15
9.03
4.52
-1.31
-8.79
-17.33
-25.32
-30.74
-31.76
-27.18
-16.66
-0.57
20.15
44.05
66.53
82.26
86.56
77.80
58.44
33.99
10.35
-8.31
-20.54
-27.19
-29.96
-30.66
-30.43
-30.00
-29.89
-30.91
-33.74
-38.41
-43.70
-46.75
-44.18
-33.60
-15.28
7.44
29.36
45.83
54.65
56.63
54.77
52.17
50.46
49.33
47.42
43.47
37.59
31.04
25.48
22.06
20.92
21.32
21.92
21.91
19.93
15.54
9.03
1.17
-7.05
-14.85
-21.82
-27.95
-33.37
-38.24
-42.32
-45.23
-46.64
-46.50
-45.13
-42.99
-40.34
-37.06
-32.78
-27.05
-19.89
-11.90
-4.19
2.05
6.05
7.78
8.01
7.91
8.69
11.14
15.37
20.94
26.86
32.13
35.91
37.78
37.84
36.52
34.39
31.81
29.19
26.56
23.78
20.66
17.31
14.12
11.59
10.09
9.53
9.48
9.30
8.54
7.13
5.26
3.21
1.08
-1.30
-4.23
-7.83
-11.95
-16.08
-19.58
-21.91
-22.85
-22.50
-21.17
-19.21
-16.85
-14.18
-11.23
-8.06
-4.82
-1.68
1.18
3.79
6.35
9.27
12.98
17.93
24.35
32.27
41.40
51.28
61.32
70.95
79.72
87.40
93.91
99.32
103.70
107.06
109.25
110.07
109.35
107.16
103.77
99.67
95.29
90.87
86.27
81.02
74.54
66.45
56.77
45.89
34.30
22.15
9.09
-5.66
-22.95
-43.26
-66.42
-91.39
-116.66
-140.58
-162.01
-180.30
-195.29
-206.98
-215.38
-220.48
-222.40
-221.65
-219.13
-216.04
-213.24
-210.79
-207.81
-202.82
-194.44
-181.99
-165.89
-147.59
-129.44
-113.52
-100.82
-90.98
-82.80
-75.01
-66.90
-58.66
-51.19
-46.36
-45.24
-47.43
-51.21
-54.59
-56.41
-56.57
-55.59
-53.79
-51.89
-49.17
-43.67
-33.32
-17.75
1.01
19.41
33.90
42.39
42.97
35.67
22.28
5.61
-11.46
-26.56
-37.51
-42.50
-30.54
1.77
48.15
95.56
132.45
154.15
162.20
161.12
155.46
148.50
140.37
130.74
120.08
109.76
101.21
94.85
90.31
86.89
84.03
80.26
74.90
68.52
62.57
58.26
55.45
52.82
48.58
41.35
30.14
15.57
-0.19
-14.36
-24.79
-31.04
-34.11
-35.59
-36.82
-38.71
-41.20
-43.50
-45.28
-45.58
-44.33
-42.05
-39.28
-36.13
-32.32
-27.21
-20.36
-11.96
-3.02
4.57
8.87
8.54
3.13
-6.92
-20.48
-36.00
-51.56
-65.13
-75.02
-79.83
-79.06
-73.23
-63.88
-53.04
-42.70
-34.40
-29.04
-27.04
-27.68
-29.87
-32.29
-34.01
-34.55
-33.92
-32.39
-30.35
-28.05
-24.23
-18.42
-9.92
1.41
14.98
29.80
45.01
60.26
75.76
93.33
114.51
139.81
168.14
197.34
225.04
249.95
271.83
282.76
277.56
254.75
217.87
173.76
129.32
88.96
54.51
25.95
2.50
-15.17
-26.27
-30.46
-28.58
-22.76
-15.92
-10.40
-7.81
-8.68
-11.50
-14.39
-15.65
-14.43
-9.38
-1.87
6.85
15.28
21.59
24.52
23.14
17.46
8.73
-0.84
-9.00
-14.05
-15.88
-15.81
-15.37
-15.73
-17.04
-18.89
-20.83
-23.22
-26.82
-32.64
-41.42
-51.83
-61.91
-69.79
-74.92
-78.02
-80.34
-82.32
-83.42
-82.54
-78.98
-73.19
-66.63
-61.20
-58.33
-58.34
-60.33
-62.63
-63.39
-61.19
-55.55
-46.84
-36.44
-26.33
-18.61
-14.90
-15.89
-20.91
-27.89
-34.53
-37.48
-34.15
-23.32
-5.39
17.69
43.08
67.75
89.17
105.65
116.56
121.82
121.83
117.34
109.24
98.56
86.49
74.23
62.73
52.62
43.79
35.92
28.68
22.11
16.63
12.82
10.95
10.68
11.75
13.18
13.94
13.29
10.77
6.13
-0.77
-9.79
-20.35
-31.22
-40.91
-48.01
-51.65
-51.80
-49.20
-45.07
-40.71
-37.29
-35.65
-36.50
-40.23
-46.89
-56.08
-67.00
-78.39
-88.66
-96.11
-99.27
-97.38
-90.61
-80.04
-67.36
-54.26
-42.04
-31.33
-22.22
-14.56
-8.22
-3.23
0.41
2.81
4.33
5.49
6.78
8.44
10.34
12.00
12.85
12.50
11.00
8.85
6.86
5.77
5.95
7.25
9.08
10.66
11.32
10.68
8.79
6.02
2.86
-0.19
-2.87
-5.11
-7.02
-8.79
-10.68
-12.87
-15.50
-18.61
-22.06
-25.48
-28.31
-29.88
-29.62
-27.32
-23.16
-17.77
-11.90
-6.22
-1.12
3.30
7.12
10.34
12.79
14.16
14.12
12.47
9.33
5.04
0.11
-4.91
-9.54
-13.44
-16.45
-18.62
-20.25
-21.85
-24.06
-27.46
-32.37
-38.80
-46.46
-54.97
-64.14
-74.18
-85.73
-99.62
-116.43
-136.18
-158.11
-180.94
-203.11
-223.21
-240.12
-253.07
-261.65
-265.75
-265.53
-261.17
-252.69
-239.58
-220.83
-195.27
-162.21
-122.11
-76.74
-28.73
19.20
65.14
108.39
149.12
187.81
224.48
258.46
288.49
313.21
331.54
342.91
347.24
344.78
336.12
322.21
304.42
284.47
264.00
244.06
224.69
204.91
183.25
158.75
131.67
103.90
78.37
58.11
45.07
39.51
40.07
44.48
50.49
56.55
61.95
66.51
70.09
72.30
72.46
69.90
64.38
56.47
47.43
38.95
32.50
28.78
27.51
27.72
28.34
28.84
29.51
31.10
34.30
39.09
44.66
49.79
53.43
55.16
55.23
54.14
52.05
48.48
42.44
33.02
20.13
4.84
-10.69
-23.92
-32.83
-36.64
-36.00
-32.74
-29.18
-27.45
-28.93
-34.06
-42.34
-52.45
-62.58
-70.72
-75.15
-74.96
-70.40
-62.85
-54.43
-47.30
-42.77
-40.84
-40.08
-38.16
-32.71
-22.22
-6.66
12.60
33.20
52.74
69.31
81.99
90.73
96.05
98.66
99.20
98.15
95.83
92.51
88.39
83.59
78.17
72.07
65.11
57.03
47.57
36.57
24.13
10.62
-3.36
-17.12
-30.10
-41.98
-52.71
-62.41
-71.21
-79.09
-85.90
-91.49
-95.79
-99.01
-101.62
-104.14
-106.94
-110.04
-113.03
-115.24
-116.00
-114.88
-111.84
-107.22
-101.53
-95.24
-88.53
-81.35
-73.59
-65.28
-56.83
-48.90
-42.18
-37.09
-33.54
-30.96
-28.48
-25.34
-21.05
-15.52
-8.97
-1.89
5.10
11.27
15.81
18.02
17.64
14.94
10.85
6.60
3.34
1.71
1.62
2.38
3.07
2.91
1.58
-0.80
-3.79
-6.88
-9.71
-12.09
-14.08
-15.92
-17.89
-20.30
-23.30
-26.81
-30.42
-33.52
-35.46
-35.75
-34.18
-30.84
-26.07
-20.24
-13.71
-6.74
0.46
7.66
14.54
20.66
25.56
28.75
29.83
28.48
24.46
17.71
8.45
-2.70
-14.67
-26.13
-35.76
-42.65
-46.50
-47.57
-46.55
-44.26
-41.47
-38.81
-36.71
-35.42
-34.98
-35.20
-35.87
-36.85
-38.28
-40.58
-44.31
-49.82
-57.01
-65.11
-72.84
-78.64
-81.05
-79.14
-72.68
-62.08
-48.14
-31.67
-13.30
6.68
28.05
50.58
73.88
97.43
120.78
143.52
165.30
185.64
203.83
219.03
230.43
237.57
240.35
239.04
233.91
225.01
212.08
194.62
172.15
144.49
111.90
75.09
35.15
-6.75
-49.41
-91.65
-132.26
-170.09
-204.05
-233.35
-257.69
-277.19
-292.13
-302.49
-307.54
-305.84
-295.71
-276.04
-247.09
-210.92
-171.13
-132.04
-97.64
-70.67
-52.08
-41.03
-35.30
-31.88
-27.63
-19.77
-6.43
13.08
38.20
67.20
97.61
126.83
152.66
173.78
189.73
200.84
207.81
211.43
212.34
210.91
207.26
201.22
192.57
181.18
167.35
151.82
135.76
120.48
107.12
96.37
88.31
82.52
78.19
74.41
70.20
64.58
56.70
45.83
31.54
13.77
-6.98
-29.64
-52.72
-74.51
-93.52
-108.75
-119.91
-127.32
-131.68
-133.81
-134.39
-133.81
-132.18
-129.45
-125.47
-120.12
-113.39
-105.31
-95.92
-85.13
-72.70
-58.41
-42.11
-24.03
-4.79
14.68
33.34
50.30
65.16
77.98
89.24
99.55
109.33
118.66
127.22
134.43
139.61
142.29
142.33
140.02
135.92
130.62
124.41
117.26
108.83
98.74
86.82
73.26
58.47
42.93
26.93
10.62
-5.87
-22.24
-37.96
-52.45
-65.34
-76.68
-86.87
-96.44
-105.68
-114.39
-121.90
-127.27
-129.71
-128.91
-125.20
-119.38
-112.53
-105.60
-99.24
-93.70
-88.93
-84.68
-80.68
-76.71
-72.56
-68.16
-63.50
-58.66
-53.79
-49.03
-44.47
-40.08
-35.75
-31.36
-26.83
-22.23
-17.73
-13.55
-9.86
-6.68
-3.93
-1.50
0.58
2.13
2.86
2.51
1.05
-1.30
-4.20
-7.36
-10.72
-14.43
-18.71
-23.56
-28.69
-33.55
-37.48
-39.86
-40.23
-38.28
-33.83
-26.87
-17.69
-6.98
4.23
14.66
23.24
29.37
33.13
35.13
36.31
37.44
38.91
40.68
42.41
43.64
43.97
43.19
41.24
38.19
34.26
29.85
25.59
22.25
20.58
21.02
23.59
27.82
32.90
37.93
42.19
45.22
46.87
47.26
46.67
45.38
43.55
41.24
38.27
34.41
29.40
23.12
15.61
7.13
-1.93
-11.12
-19.95
-27.92
-34.57
-39.58
-42.89
-44.76
-45.71
-46.34
-47.20
-48.59
-50.54
-52.87
-55.28
-57.44
-59.00
-59.65
-59.10
-57.22
-54.04
-49.79
-44.81
-39.46
-33.92
-28.24
-22.30
-15.99
-9.36
-2.64
3.69
9.11
13.14
15.55
16.31
15.59
13.69
10.88
7.42
3.56
-0.40
-4.14
-7.34
-9.81
-11.58
-12.92
-14.23
-15.92
-18.23
-21.09
-24.16
-26.92
-28.76
-29.22
-27.93
-24.79
-19.91
-13.63
-6.47
0.94
7.98
14.21
19.41
23.65
27.12
30.08
32.71
35.10
37.25
39.17
40.85
42.33
43.59
44.61
45.28
45.51
45.18
44.25
42.70
40.53
37.78
34.45
30.54
26.06
21.07
15.72
10.34
5.38
1.25
-1.78
-3.79
-5.11
-6.29
-7.80
-9.83
-12.27
-14.76
-16.91
-18.43
-19.09
-18.58
-16.36
-11.75
-4.21
6.24
18.80
32.02
44.16
53.75
60.02
62.83
62.51
59.49
54.14
46.80
37.97
28.38
18.85
10.11
2.43
-4.40
-10.95
-17.82
-25.42
-33.78
-42.67
-51.71
-60.53
-68.79
-75.98
-81.46
-84.37
-83.89
-79.56
-71.56
-60.83
-48.87
-37.35
-27.59
-20.23
-15.10
-11.49
-8.51
-5.46
-2.03
1.58
4.86
7.35
8.75
9.09
8.77
8.36
8.55
9.91
12.68
16.72
21.67
26.84
31.41
34.58
35.84
35.15
32.97
29.97
26.69
23.74
21.22
18.79
15.87
11.91
6.68
0.45
-6.28
-13.00
-18.65
-22.22
-23.00
-20.74
-15.84
-9.19
-1.89
5.10
11.16
17.41
25.83
38.80
58.19
84.72
117.93
156.49
198.73
236.27
261.10
267.18
252.97
221.74
179.28
131.29
82.26
35.73
-5.41
-38.20
-61.12
-74.67
-81.23
-84.00
-85.50
-86.66
-87.09
-86.14
-82.94
-77.36
-69.77
-60.74
-50.83
-40.60
-30.75
-22.30
-16.51
-13.91
-14.29
-16.72
-19.99
-23.15
-25.84
-28.20
-30.57
-33.12
-35.27
-35.97
-34.02
-28.72
-20.14
-9.19
2.67
14.07
23.28
29.00
30.48
27.62
20.90
11.31
0.14
-11.21
-21.46
-29.55
-34.73
-36.64
-35.46
-31.89
-26.94
-21.73
-17.15
-13.74
-11.59
-10.43
-9.90
-9.78
-10.10
-10.95
-12.37
-14.13
-15.84
-17.06
-17.42
-16.83
-15.35
-13.29
-10.90
-8.33
-5.61
-2.79
0.03
2.66
4.90
6.57
7.43
7.36
6.38
5.11
3.97
3.08
2.32
1.56
1.89
4.42
10.03
18.62
28.94
39.00
46.75
50.87
51.04
47.76
41.69
33.37
23.20
11.59
-0.56
-12.15
-22.01
-29.28
-33.78
-36.13
-37.38
-38.60
-40.56
-43.37
-46.88
-50.68
-54.33
-57.51
-60.14
-62.11
-63.17
-63.96
-63.52
-61.35
-57.43
-52.05
-45.65
-38.75
-31.58
-24.24
-16.95
-9.90
-3.61
1.42
4.75
5.90
4.26
-0.44
-8.09
-18.14
-29.46
-40.96
-51.73
-61.29
-69.74
-77.56
-84.62
-90.23
-93.45
-93.38
-89.67
-82.49
-71.40
-56.25
-38.24
-18.97
-0.25
16.33
29.61
38.79
43.32
42.90
39.99
34.92
28.12
20.50
13.15
7.09
3.03
1.41
2.75
5.05
7.36
9.73
12.67
16.76
22.31
29.20
36.94
44.76
51.71
56.94
60.07
61.13
60.52
58.71
56.06
52.59
48.01
41.93
34.33
25.88
17.62
10.58
5.29
1.52
-1.48
-4.58
-8.30
-12.60
-17.10
-21.34
-24.97
-27.70
-29.08
-28.40
-24.81
-17.64
-6.61
7.88
24.90
43.28
61.91
80.01
97.14
113.16
128.02
141.77
154.51
166.48
178.15
190.14
202.91
216.38
229.70
241.20
248.85
250.84
246.14
234.76
217.67
196.41
172.56
147.43
121.93
96.64
72.10
48.79
27.15
7.31
-10.99
-28.40
-45.72
-63.64
-82.61
-102.71
-123.86
-145.74
-167.92
-189.71
-210.11
-227.90
-241.86
-251.03
-254.84
-253.10
-245.83
-233.09
-214.93
-191.47
-163.09
-130.58
-95.27
-58.93
-23.56
9.01
37.44
61.11
79.92
94.07
103.62
108.34
107.83
101.81
90.51
74.79
56.08
36.08
16.40
-1.74
-17.60
-30.95
-42.01
-51.26
-59.16
-66.00
-71.83
-76.50
-79.88
-81.94
-82.75
-82.32
-80.41
-76.60
-70.41
-61.63
-50.53
-37.81
-24.34
-10.89
2.19
14.85
27.15
38.94
49.62
58.18
63.36
64.15
60.15
51.87
40.82
29.23
19.51
13.59
12.38
15.55
21.76
29.24
36.38
42.18
46.42
49.54
52.31
55.42
59.47
64.86
71.88
80.49
90.28
100.70
111.26
121.76
132.18
142.65
153.16
163.44
172.67
179.81
183.94
184.68
182.10
176.22
167.09
154.70
139.40
121.49
101.41
79.81
57.45
34.91
11.65
-13.00
-39.47
-66.85
-94.59
-122.18
-149.11
-174.49
-197.36
-218.42
-238.37
-257.43
-273.70
-286.77
-297.01
-305.27
-311.88
-316.89
-322.54
-330.49
-340.99
-350.37
-357.03
-360.76
-362.46
-362.53
-361.13
-361.10
-364.16
-369.92
-372.84
-370.10
-360.92
-346.21
-326.46
-283.62
-208.92
-105.36
-6.30
77.28
143.80
199.59
246.41
285.19
316.69
338.78
350.41
352.60
351.37
349.72
348.37
346.23
342.60
337.13
327.55
312.58
292.81
273.02
255.95
242.76
232.91
225.57
219.53
212.02
201.07
186.34
170.67
155.93
142.97
131.45
120.95
111.11
101.22
91.16
81.45
73.56
67.88
63.88
60.43
56.55
51.57
44.86
35.96
24.64
11.10
-4.62
-22.54
-42.59
-64.57
-88.04
-112.35
-136.75
-160.48
-182.88
-203.48
-222.06
-238.53
-252.82
-264.65
-273.48
-278.79
-280.19
-277.59
-271.20
-261.36
-248.24
-231.90
-212.12
-188.61
-161.58
-131.70
-99.97
-67.49
-35.23
-3.59
26.88
55.75
82.83
107.33
128.47
145.78
159.32
169.58
177.90
184.65
189.78
193.20
193.70
189.91
181.06
167.28
149.41
129.72
109.04
87.63
65.69
42.02
15.02
-16.25
-51.70
-90.50
-129.96
-169.19
-207.96
-236.40
-246.34
-234.12
-202.29
-158.28
-120.21
-91.69
-72.37
-61.07
-56.73
-56.08
-58.06
-61.47
-64.57
-65.55
-61.68
-52.96
-40.63
-26.11
-11.70
0.08
7.57
10.20
8.32
4.02
-1.73
-8.35
-15.25
-22.50
-30.61
-39.68
-49.20
-58.18
-64.83
-68.42
-69.01
-67.14
-64.01
-61.20
-59.90
-60.70
-63.58
-67.81
-72.97
-78.76
-84.73
-90.15
-93.97
-94.69
-90.77
-81.23
-65.89
-45.71
-22.42
2.14
26.50
49.64
70.95
90.11
106.83
120.89
132.19
140.71
146.53
149.64
149.97
147.45
142.12
134.27
124.38
113.13
101.24
89.54
78.85
69.99
63.58
59.79
58.28
58.24
58.72
59.02
58.97
58.92
59.54
61.37
64.52
68.58
72.86
76.70
79.84
82.57
85.66
89.99
96.23
104.49
114.28
124.71
134.75
143.51
150.41
155.05
157.13
156.37
152.50
145.44
135.31
122.47
107.50
91.06
73.84
56.63
40.46
26.57
16.27
10.69
10.40
15.36
24.93
38.15
53.96
71.36
89.36
106.90
122.80
135.83
144.87
149.16
148.46
143.09
133.89
121.93
108.20
93.35
77.49
60.41
41.81
21.66
0.34
-21.41
-42.82
-63.28
-82.45
-100.17
-116.30
-130.62
-143.04
-153.71
-163.10
-171.83
-180.33
-188.60
-196.17
-202.26
-206.13
-207.25
-205.46
-200.79
-193.42
-183.61
-171.77
-158.49
-144.48
-130.43
-116.86
-104.04
-91.99
-80.69
-70.17
-60.54
-52.02
-44.83
-39.03
-34.47
-30.79
-27.53
-24.26
-20.69
-16.81
-12.88
-9.24
-6.17
-3.79
-1.96
-0.49
0.74
1.69
2.17
1.95
0.87
-1.01
-3.57
-6.53
-9.62
-12.52
-14.90
-16.45
-17.01
-16.72
-16.00
-15.54
-15.95
-17.60
-20.43
-23.97
-27.49
-30.27
-31.74
-31.62
-29.88
-26.70
-22.35
-17.15
-11.43
-5.51
0.27
5.57
10.08
13.59
16.05
17.62
18.63
19.49
20.61
22.20
24.25
26.54
28.69
30.25
30.85
30.32
28.73
26.42
23.94
21.78
20.28
19.45
19.06
18.73
18.20
17.45
16.67
16.14
15.99
16.07
15.91
14.89
12.51
8.61
3.49
-2.15
-7.47
-11.63
-13.92
-13.83
-11.06
-5.64
1.92
10.61
19.16
26.50
32.24
36.86
41.38
46.62
52.47
57.57
59.75
56.99
48.33
34.36
16.88
-1.90
-20.24
-37.29
-52.88
-67.02
-79.31
-88.77
-94.07
-94.08
-88.42
-77.67
-63.19
-46.62
-29.44
-12.64
3.20
17.69
30.31
40.36
47.05
49.96
49.20
45.57
40.17
34.04
27.82
21.68
15.57
9.56
4.05
-0.36
-3.17
-4.34
-4.34
-3.99
-4.02
-4.67
-5.61
-6.07
-5.34
-3.09
0.45
4.54
8.34
11.14
12.61
12.84
12.15
10.96
9.66
8.54
7.86
7.82
8.60
10.24
12.68
15.65
18.82
21.86
24.53
26.75
28.54
29.90
30.83
31.25
31.13
30.53
29.60
28.52
27.29
25.63
23.04
18.99
13.24
6.06
-1.75
-9.06
-14.68
-17.79
-17.99
-15.36
-10.35
-3.54
4.40
12.85
21.28
29.30
36.70
43.43
49.62
55.42
60.88
65.70
69.20
70.33
68.14
62.31
53.61
43.86
35.37
30.10
28.99
31.68
37.00
43.58
50.46
57.12
63.12
67.73
69.81
68.09
61.85
51.21
37.28
21.68
5.98
-8.74
-22.05
-33.97
-44.70
-54.33
-62.79
-69.97
-75.78
-80.37
-83.91
-86.56
-88.17
-88.37
-86.62
-82.49
-75.90
-67.27
-57.38
-47.24
-37.82
-29.82
-23.60
-19.21
-16.44
-14.89
-14.12
-13.67
-13.16
-12.40
-11.31
-10.01
-8.62
-7.24
-5.84
-4.29
-2.42
-0.06
2.84
6.20
9.82
13.35
16.42
18.68
19.94
20.19
19.66
18.63
17.32
15.82
14.07
11.96
9.38
6.31
2.79
-1.13
-5.38
-9.85
-14.32
-18.37
-21.48
-23.13
-22.99
-21.07
-17.77
-13.75
-9.79
-6.47
-4.08
-2.59
-1.79
-1.43
-1.36
-1.57
-2.10
-2.98
-4.14
-5.49
-6.86
-8.14
-9.28
-10.26
-11.07
-11.68
-12.07
-12.19
-12.07
-11.75
-11.30
-10.77
-10.18
-9.49
-8.59
-7.32
-5.64
-3.60
-1.40
0.64
2.16
2.91
2.73
1.64
-0.23
-2.71
-5.62
-8.73
-11.81
-14.55
-16.60
-17.66
-17.53
-16.20
-13.78
-10.58
-6.95
-3.25
0.17
3.11
5.47
7.27
8.54
9.32
9.57
9.24
8.34
7.02
5.56
4.25
3.29
2.69
2.30
1.89
1.37
0.81
0.43
0.45
0.98
2.05
3.58
5.49
7.76
10.41
13.40
16.57
19.62
22.14
23.74
24.12
23.13
20.85
17.46
13.24
8.49
3.48
-1.60
-6.61
-11.40
-15.75
-19.35
-21.82
-22.81
-22.16
-20.00
-16.83
-13.36
-10.35
-8.38
-7.75
-8.53
-10.69
-14.20
-19.03
-25.04
-31.91
-39.07
-45.85
-51.69
-56.31
-59.67
-61.95
-63.32
-63.91
-63.78
-63.03
-61.79
-60.22
-58.35
-56.06
-53.12
-49.33
-44.69
-39.40
-33.81
-28.32
-23.20
-18.60
-14.67
-11.58
-9.58
-8.87
-9.51
-11.26
-13.68
-16.08
-17.74
-18.06
-16.64
-13.34
-8.22
-1.39
7.03
17.00
28.52
41.44
55.33
69.35
82.32
92.83
99.64
101.99
99.90
94.19
86.15
77.16
68.38
60.46
53.66
47.96
43.17
39.01
35.10
31.13
26.86
22.34
17.72
13.05
7.90
1.23
-8.38
-22.24
-40.88
-63.78
-89.35
-115.46
-140.07
-161.72
-179.73
-194.09
-205.19
-213.54
-219.67
-223.96
-226.62
-227.55
-226.24
-221.88
-213.67
-201.20
-184.68
-164.92
-143.00
-119.91
-96.27
-72.31
-48.00
-23.25
2.13
28.29
55.32
83.05
110.88
137.73
162.24
183.14
199.69
211.97
220.70
226.87
231.33
234.54
236.57
237.31
236.56
234.20
230.31
225.04
218.51
210.92
202.51
193.58
184.43
175.25
165.93
156.59
147.18
137.49
127.18
115.90
103.56
90.34
76.61
62.79
50.08
39.42
31.16
24.77
19.07
12.72
4.78
-5.13
-16.89
-28.50
-37.70
-42.71
-42.82
-38.39
-30.44
-20.16
-8.81
2.31
14.04
27.87
45.35
67.38
93.97
124.44
157.70
192.44
215.08
214.99
187.75
138.31
78.38
19.95
-29.49
-67.63
-95.61
-116.22
-130.88
-140.65
-146.74
-150.70
-153.75
-155.75
-155.11
-149.79
-138.75
-121.62
-99.47
-74.72
-50.34
-28.91
-11.77
1.15
10.80
19.53
27.98
36.41
44.15
49.40
50.00
44.55
33.24
17.87
1.23
-13.89
-25.07
-31.07
-31.97
-28.80
-22.99
-16.00
-9.03
-2.84
2.04
5.90
9.33
12.71
16.00
18.66
19.78
18.26
15.32
11.61
8.19
6.17
6.41
9.38
15.12
23.40
33.85
46.07
59.35
73.27
87.65
102.59
118.45
135.63
154.32
174.29
194.80
214.60
232.66
248.30
261.31
271.68
279.34
283.92
284.93
281.94
274.75
263.62
249.10
231.71
211.71
189.12
163.87
136.19
106.73
76.45
46.48
17.72
-9.25
-34.26
-57.23
-78.12
-96.69
-112.60
-125.51
-135.30
-142.24
-146.93
-150.25
-153.06
-156.01
-159.37
-163.06
-166.84
-170.50
-174.05
-177.71
-181.92
-187.15
-193.86
-202.49
-213.24
-225.91
-239.60
-252.66
-263.05
-268.81
-268.87
-263.33
-253.50
-241.28
-228.50
-216.36
-205.30
-195.22
-185.94
-177.38
-169.64
-162.84
-156.92
-151.63
-146.68
-141.89
-137.30
-133.13
-129.65
-126.87
-124.44
-121.74
-118.02
-112.78
-105.95
-97.88
-89.27
-80.80
-72.97
-65.94
-59.63
-53.87
-48.53
-43.60
-39.14
-35.08
-31.16
-26.88
-21.65
-15.07
-7.14
1.61
10.23
17.66
23.09
26.22
27.27
26.80
25.42
23.48
21.02
17.83
13.72
8.71
3.13
-2.53
-7.78
-12.38
-16.44
-20.30
-24.37
-28.90
-33.94
-39.34
-44.88
-50.40
-55.95
-61.70
-67.83
-74.43
-81.31
-88.11
-94.37
-99.69
-103.89
-107.03
-109.56
-112.14
-115.41
-119.79
-125.20
-131.06
-136.15
-138.78
-137.14
-129.94
-117.06
-99.84
-80.84
-63.06
-49.24
-40.72
-37.19
-36.96
-38.03
-39.03
-39.66
-40.45
-42.03
-44.99
-48.80
-51.61
-50.96
-44.93
-33.14
-16.73
2.14
21.19
37.66
50.15
59.44
68.36
80.28
97.60
120.89
148.86
178.82
205.91
226.28
238.93
245.77
249.65
252.36
254.10
253.68
248.96
234.96
206.97
163.12
105.80
40.98
-23.19
-78.13
-117.04
-123.58
-92.08
-33.18
31.20
82.55
114.62
130.84
137.65
139.74
138.89
133.04
120.70
103.48
85.85
72.35
65.17
63.81
65.97
68.88
68.76
63.30
53.07
41.09
30.74
24.04
21.09
20.78
21.62
21.54
19.32
14.92
8.97
1.44
-8.67
-22.36
-39.24
-57.53
-73.79
-84.63
-87.91
-83.42
-72.92
-59.09
-44.20
-29.14
-13.77
2.21
18.31
33.13
45.00
52.58
55.50
54.39
50.72
45.86
40.84
35.82
30.47
24.45
17.83
11.18
5.32
0.94
-1.91
-3.66
-5.19
-7.30
-10.28
-13.80
-17.07
-19.21
-19.56
-18.43
-16.33
-13.93
-11.80
-10.25
-9.31
-8.80
-8.50
-8.15
-7.65
-6.94
-6.17
-5.68
-5.84
-6.98
-9.26
-12.58
-16.58
-20.72
-24.21
-26.22
-26.04
-23.27
-17.99
-10.87
-3.00
4.40
10.37
14.54
17.13
18.76
20.15
21.78
23.82
26.10
28.34
30.34
32.08
33.68
35.30
37.08
39.03
41.05
42.95
44.42
45.18
44.97
43.66
41.32
38.19
34.68
31.13
27.72
24.41
20.98
17.19
12.97
8.46
3.93
-0.35
-4.31
-8.06
-11.84
-15.90
-20.35
-25.10
-29.94
-34.53
-38.41
-41.08
-42.03
-40.94
-37.78
-32.92
-27.04
-20.94
-15.35
-10.69
-7.10
-4.51
-2.75
-1.65
-1.05
-0.81
-0.82
-1.05
-1.59
-2.61
-4.20
-6.32
-8.67
-10.83
-12.46
-13.45
-13.98
-14.38
-14.86
-15.41
-15.85
-16.11
-16.36
-16.93
-18.10
-19.91
-22.25
-25.13
-28.96
-34.45
-42.25
-52.33
-63.76
-74.86
-83.82
-89.45
-91.51
-90.69
-88.00
-84.14
-78.94
-71.15
-58.71
-39.38
-11.61
24.49
66.54
110.11
149.64
179.82
196.83
198.94
186.37
160.89
125.28
83.17
38.93
-2.68
-37.24
-61.73
-75.32
-79.58
-77.78
-73.63
-70.05
-68.51
-69.14
-71.36
-74.55
-78.49
-83.21
-88.74
-94.72
-100.42
-104.97
-107.80
-108.87
-108.61
-107.53
-105.76
-102.90
-98.09
-90.55
-79.84
-66.03
-49.35
-29.84
-7.23
18.81
48.11
79.68
111.79
142.57
170.80
196.22
219.32
240.57
259.69
275.36
285.57
288.44
282.97
269.55
249.88
226.71
203.14
182.14
165.89
155.44
150.42
149.27
149.67
149.26
146.14
139.28
128.46
114.06
96.76
77.38
56.75
35.76
15.31
-3.79
-20.98
-36.07
-49.35
-61.40
-72.80
-83.88
-94.40
-103.71
-111.06
-115.96
-118.56
-119.56
-119.91
-120.27
-120.75
-120.84
-119.70
-116.61
-111.24
-103.80
-94.86
-85.19
-75.46
-66.26
-58.05
-51.23
-46.11
-42.85
-41.31
-41.09
-41.47
-41.70
-41.21
-39.71
-37.25
-34.07
-30.33
-26.11
-21.40
-16.23
-10.85
-5.77
-1.67
0.93
1.72
0.86
-1.17
-3.69
-6.01
-7.61
-8.21
-7.82
-6.66
-5.17
-3.82
-2.99
-2.76
-2.90
-2.85
-1.99
0.08
3.36
7.47
11.77
15.66
18.80
21.07
22.58
23.42
23.64
23.29
22.41
21.21
19.90
18.71
17.72
16.85
15.91
14.76
13.34
11.70
10.08
8.68
7.62
6.85
6.25
5.62
4.74
3.40
1.40
-1.22
-4.28
-7.42
-10.23
-12.47
-14.18
-15.72
-17.62
-20.32
-23.73
-27.26
-29.98
-30.99
-29.77
-26.29
-21.03
-14.78
-8.37
-1.96
4.49
11.07
17.65
23.78
28.93
32.69
34.92
35.73
36.36
37.97
41.31
46.60
53.65
62.35
72.73
84.79
98.01
112.74
128.65
144.68
159.14
170.16
176.36
177.20
172.92
164.31
154.60
147.14
144.65
148.37
157.89
171.82
188.51
206.70
212.98
198.24
159.25
101.09
34.93
-27.59
-78.73
-115.46
-138.31
-149.82
-151.38
-144.93
-133.14
-119.38
-107.18
-99.12
-96.21
-98.12
-103.75
-110.16
-114.82
-116.19
-114.13
-109.70
-104.32
-99.06
-94.31
-90.01
-84.79
-77.86
-69.54
-61.36
-55.32
-52.69
-53.34
-55.45
-57.51
-57.65
-55.03
-50.12
-44.23
-38.79
-34.66
-31.93
-30.27
-29.25
-28.20
-26.96
-25.74
-24.72
-23.86
-22.93
-21.66
-20.25
-19.06
-18.28
-18.39
-20.01
-23.39
-28.29
-34.08
-39.93
-45.19
-49.02
-50.23
-48.44
-44.41
-39.63
-35.85
-34.72
-34.70
-34.60
-34.61
-33.09
-27.99
-19.64
-9.92
-1.22
4.56
6.78
5.88
3.79
3.57
8.04
19.19
38.52
66.41
101.36
137.87
166.29
177.29
167.42
140.48
104.21
66.45
32.48
4.55
-17.19
-33.30
-43.82
-48.38
-47.29
-42.60
-37.32
-34.39
-35.90
-42.49
-53.30
-66.04
-77.95
-86.91
-92.65
-96.16
-98.90
-101.92
-105.40
-108.44
-109.42
-108.15
-103.30
-95.16
-85.01
-74.24
-63.82
-54.06
-44.86
-36.06
-27.72
-19.99
-13.38
-8.09
-3.72
0.40
4.92
10.09
15.88
21.97
28.19
34.12
39.45
44.21
48.65
53.24
58.58
65.18
73.15
82.21
91.66
99.51
104.44
105.75
103.38
97.70
89.20
78.33
65.56
51.40
36.58
22.16
9.11
-2.05
-11.42
-19.73
-28.06
-37.32
-48.01
-59.98
-72.44
-84.50
-95.49
-105.23
-114.02
-122.44
-131.06
-140.18
-149.59
-158.33
-164.80
-166.96
-162.80
-150.98
-131.41
-105.49
-75.85
-45.55
-17.25
7.49
28.28
45.70
60.76
74.54
88.04
102.08
117.19
133.49
150.48
167.05
181.79
193.48
201.62
206.50
209.07
210.46
211.46
212.21
212.21
210.47
205.84
197.30
184.25
166.54
144.44
118.61
89.90
59.36
28.13
-2.59
-31.61
-57.92
-80.75
-99.67
-114.49
-125.16
-131.71
-134.16
-132.74
-127.89
-120.40
-111.18
-101.17
-91.09
-81.37
-72.21
-63.62
-55.62
-48.24
-41.55
-35.55
-30.16
-25.14
-20.13
-14.79
-8.86
-2.29
4.77
11.98
18.91
25.11
30.23
34.08
36.63
38.01
38.43
38.09
37.13
35.49
33.01
29.41
24.47
18.15
10.61
2.23
-6.38
-14.52
-21.43
-26.50
-29.38
-30.15
-29.40
-28.04
-27.06
-27.13
-28.39
-30.43
-32.66
-34.70
-36.72
-39.53
-44.27
-51.98
-63.17
-77.65
-94.70
-113.37
-132.81
-152.43
-171.85
-190.82
-209.05
-226.20
-241.87
-255.58
-266.85
-275.13
-279.86
-280.50
-276.57
-267.61
-253.16
-232.73
-205.94
-172.72
-133.54
-89.51
-42.20
6.55
54.90
101.09
143.45
180.33
210.20
231.88
244.85
249.48
246.87
238.61
226.31
211.33
194.66
177.09
159.32
142.13
126.31
112.65
101.83
94.42
90.85
91.31
95.69
103.41
113.50
124.65
135.58
145.29
153.19
159.12
163.12
165.30
165.78
164.68
162.32
159.22
156.14
153.94
153.38
154.80
157.92
161.58
163.85
162.29
154.48
138.77
114.88
84.35
50.26
16.55
-13.10
-36.08
-51.55
-60.65
-65.93
-70.52
-77.18
-87.53
-101.93
-119.57
-138.55
-156.44
-170.84
-179.91
-182.76
-179.54
-171.37
-159.98
-147.23
-134.13
-120.82
-106.63
-90.58
-71.91
-50.39
-26.32
-0.36
23.77
42.57
53.80
57.70
56.65
53.54
50.21
47.08
43.85
40.20
36.63
33.80
31.82
29.92
26.63
20.83
12.55
3.18
-5.14
-10.39
-11.79
-10.28
-7.84
-6.54
-7.42
-10.15
-13.44
-15.93
-16.74
-15.93
-14.09
-11.77
-9.23
-6.40
-3.25
-0.13
2.02
2.08
-0.37
-5.61
-12.81
-20.64
-27.72
-33.11
-36.45
-37.82
-37.48
-35.64
-32.49
-28.08
-22.57
-16.21
-9.39
-2.55
3.79
9.08
12.86
14.97
15.62
15.29
14.66
14.29
14.60
15.86
18.29
21.96
26.82
32.62
38.83
44.87
50.28
54.93
58.89
62.37
65.55
68.45
71.57
75.16
79.46
84.63
90.91
98.40
107.06
116.64
126.73
136.82
146.35
154.87
162.02
167.48
170.83
171.50
168.81
162.22
151.42
136.40
117.55
95.64
71.75
47.17
23.24
1.04
-18.89
-36.69
-53.07
-68.96
-85.11
-101.87
-119.11
-136.33
-152.95
-168.48
-182.55
-194.98
-205.53
-214.01
-220.16
-223.78
-224.75
-223.23
-219.67
-214.76
-209.31
-204.01
-199.37
-195.76
-193.50
-193.08
-195.12
-200.06
-207.84
-217.52
-227.25
-234.62
-237.39
-233.95
-223.63
-206.29
-181.89
-150.26
-111.35
-66.09
-17.09
31.28
73.95
106.70
127.72
138.03
140.74
139.51
137.05
134.49
131.66
128.00
123.33
118.06
112.81
107.86
102.87
97.19
90.34
82.65
75.32
69.96
67.95
69.81
74.94
81.80
88.47
93.26
95.18
94.02
90.16
84.24
76.93
68.76
60.15
51.42
42.85
34.73
27.30
20.71
15.03
10.28
6.35
3.12
0.40
-1.98
-4.17
-6.29
-8.46
-10.83
-13.55
-16.75
-20.43
-24.43
-28.42
-32.05
-35.13
-37.70
-40.12
-42.86
-46.35
-50.74
-55.84
-61.17
-66.26
-70.90
-75.25
-79.88
-85.50
-92.69
-101.55
-111.64
-121.99
-131.47
-139.02
-143.98
-146.19
-146.03
-144.34
-142.11
-140.34
-139.60
-139.74
-139.72
-137.78
-132.02
-121.16
-105.17
-85.58
-65.03
-46.53
-32.45
-23.79
-19.87
-18.74
-17.82
-14.69
-7.39
5.29
23.89
48.02
76.21
105.85
133.72
156.92
173.93
185.28
193.27
200.69
209.38
219.09
227.58
231.83
229.48
219.96
204.64
185.98
166.64
148.64
133.12
120.44
110.48
102.93
97.33
93.12
89.61
86.19
82.47
78.38
74.16
70.30
67.32
65.73
65.68
66.89
68.72
70.31
70.91
70.20
68.47
66.64
66.12
68.18
73.39
81.35
90.49
98.37
102.24
99.76
89.80
72.89
50.80
25.51
-1.03
-27.32
-52.48
-76.02
-97.59
-116.66
-132.17
-143.32
-150.76
-155.76
-159.78
-164.00
-168.99
-174.75
-180.68
-185.31
-187.67
-188.52
-188.42
-187.09
-183.15
-175.05
-162.44
-146.60
-129.42
-114.02
-104.73
-103.93
-111.47
-125.10
-141.91
-160.20
-179.48
-199.11
-206.32
-192.68
-156.29
-103.73
-46.08
7.13
50.35
77.02
91.25
97.40
96.86
90.28
78.23
61.62
44.12
27.40
12.08
-1.04
-12.36
-23.66
-35.96
-49.05
-61.39
-70.81
-75.84
-75.74
-69.97
-59.63
-47.42
-36.17
-28.13
-24.50
-25.30
-29.96
-37.29
-45.35
-52.79
-59.04
-63.84
-67.07
-68.69
-68.58
-66.83
-63.41
-57.98
-50.26
-40.14
-27.63
-12.97
3.29
20.31
37.05
52.57
66.29
77.82
87.11
94.33
99.90
104.36
108.25
112.02
116.05
120.71
126.44
133.80
143.26
154.96
168.44
182.64
196.10
207.49
216.03
221.59
224.55
225.45
224.63
222.09
217.68
211.22
202.65
192.07
179.75
166.15
152.19
139.18
128.85
122.87
122.26
126.88
135.32
145.11
153.41
157.75
156.58
149.51
137.18
120.83
101.87
81.58
60.91
40.60
21.26
3.45
-12.34
-25.85
-37.11
-46.43
-54.25
-60.98
-66.88
-72.03
-76.51
-80.45
-84.11
-87.76
-91.60
-95.59
-99.52
-103.03
-105.86
-107.86
-109.02
-109.44
-109.20
-108.35
-106.90
-104.99
-102.83
-100.76
-99.05
-97.80
-96.80
-95.63
-93.85
-91.16
-87.48
-82.89
-77.50
-71.36
-64.52
-57.21
-49.90
-43.31
-38.20
-35.10
-34.16
-35.15
-37.56
-40.80
-44.18
-46.85
-47.77
-45.85
-40.16
-30.26
-16.32
0.97
20.60
41.48
62.67
83.35
102.77
120.07
134.20
144.02
148.57
147.51
141.48
132.15
121.90
113.01
106.94
103.70
101.95
99.49
94.20
84.59
70.16
51.25
28.75
3.99
-21.28
-45.00
-65.29
-81.07
-92.64
-101.61
-110.25
-120.34
-132.32
-145.17
-156.98
-165.91
-170.99
-172.28
-170.43
-166.05
-159.28
-149.97
-138.00
-123.69
-107.80
-91.27
-74.83
-58.82
-43.32
-28.40
-14.30
-1.62
8.88
16.60
21.30
23.26
23.11
21.69
19.69
17.55
15.36
12.95
10.14
6.88
3.31
-0.24
-3.53
-6.58
-9.72
-13.51
-18.50
-24.84
-32.26
-40.07
-47.38
-53.33
-57.33
-59.09
-58.67
-56.41
-52.79
-48.33
-43.41
-38.32
-33.24
-28.36
-23.94
-20.28
-17.55
-15.72
-14.46
-13.33
-11.93
-10.05
-7.72
-5.11
-2.38
0.37
3.09
5.78
8.39
10.85
13.01
14.73
15.81
16.09
15.45
13.81
11.24
7.84
3.78
-0.81
-5.82
-11.13
-16.56
-21.81
-26.52
-30.44
-33.44
-35.41
-36.12
-35.08
-31.63
-25.16
-15.60
-3.54
9.74
22.67
33.76
42.06
47.24
49.59
49.79
48.73
47.38
46.68
47.51
50.66
56.69
65.91
78.27
93.23
109.82
126.68
142.37
155.65
165.85
172.92
177.39
179.98
181.17
180.84
178.11
171.47
159.32
140.57
115.15
84.31
50.42
16.59
-14.01
-38.91
-56.88
-68.17
-74.36
-77.85
-81.11
-86.04
-93.41
-102.84
-113.03
-122.39
-129.65
-134.29
-136.68
-137.74
-138.52
-139.79
-141.76
-144.14
-146.36
-147.88
-148.33
-147.54
-145.43
-141.90
-136.74
-129.70
-120.59
-109.25
-95.62
-79.64
-61.28
-40.52
-17.25
8.75
37.87
70.43
106.16
143.63
179.84
210.54
231.41
239.43
234.19
218.06
195.35
170.80
148.05
129.01
114.01
102.57
94.10
88.06
83.79
80.21
75.81
69.00
58.72
44.96
28.88
12.44
-2.08
-12.78
-18.66
-19.87
-17.58
-13.60
-9.71
-7.12
-6.20
-6.61
-7.68
-8.83
-9.92
-11.13
-12.76
-14.95
-17.49
-19.92
-21.70
-22.46
-22.13
-20.92
-19.18
-17.19
-15.04
-12.53
-9.35
-5.27
-0.41
4.55
8.60
10.65
10.04
6.83
1.87
-3.57
-8.21
-11.23
-12.48
-12.60
-12.98
-15.61
-22.70
-35.96
-55.81
-80.74
-107.37
-131.37
-148.86
-157.82
-158.67
-153.89
-146.82
-140.32
-135.95
-133.81
-133.09
-132.56
-130.92
-126.83
-118.90
-105.80
-86.64
-61.44
-31.36
1.30
33.59
62.53
85.86
102.44
112.43
117.04
118.04
117.29
116.15
115.43
115.26
115.42
115.52
115.24
114.32
112.55
109.62
105.18
98.93
90.75
80.83
69.53
57.23
44.11
30.05
14.79
-1.76
-19.28
-36.91
-53.46
-67.76
-79.00
-87.02
-92.27
-95.55
-97.69
-99.15
-99.93
-99.50
-97.11
-92.22
-84.75
-75.15
-64.24
-52.77
-41.20
-29.54
-17.44
-4.54
9.38
24.32
40.08
56.37
72.73
88.50
102.71
114.21
121.75
124.26
121.10
112.17
97.89
79.15
57.14
33.29
9.09
-14.00
-34.61
-51.60
-64.09
-71.57
-73.87
-71.16
-63.93
-53.14
-40.17
-26.88
-15.30
-7.18
-3.45
-3.87
-7.24
-11.92
-16.67
-21.10
-25.68
-31.07
-37.41
-43.83
-48.51
-49.41
-45.02
-35.00
-20.24
-2.44
16.67
35.94
55.04
74.35
94.51
115.97
138.67
161.97
184.80
205.92
224.05
238.13
247.37
251.35
250.07
243.82
232.99
217.74
197.72
172.13
140.10
101.27
56.29
7.07
-43.43
-91.79
-134.94
-170.73
-198.39
-218.36
-231.95
-240.71
-245.87
-247.92
-246.57
-241.02
-230.40
-214.15
-192.32
-165.56
-134.96
-101.83
-67.46
-33.04
0.41
32.07
61.36
87.78
110.82
129.75
143.57
151.07
151.26
143.79
129.26
109.22
85.80
61.13
36.81
13.69
-7.96
-28.15
-46.76
-63.46
-77.84
-89.61
-98.78
-105.70
-110.83
-114.56
-117.11
-118.55
-119.04
-118.96
-118.97
-119.72
-121.68
-124.83
-128.65
-132.30
-134.79
-135.06
-132.03
-124.64
-112.12
-94.45
-72.63
-48.61
-24.87
-3.63
13.75
26.83
35.84
41.09
42.71
40.71
35.30
27.23
17.72
8.22
-0.10
-6.56
-11.04
-13.81
-15.31
-16.06
-16.60
-17.42
-18.92
-21.31
-24.50
-28.19
-32.01
-35.65
-39.00
-42.15
-45.26
-48.51
-52.00
-55.81
-60.00
-64.67
-69.87
-75.53
-81.27
-86.44
-90.38
-92.61
-93.09
-92.36
-91.31
-90.91
-91.90
-94.50
-98.30
-102.40
-105.53
-106.39
-103.91
-97.40
-86.64
-71.93
-54.00
-33.78
-12.15
10.25
33.10
56.33
79.91
103.66
127.07
149.23
169.07
185.67
198.61
208.21
215.44
221.60
227.76
234.38
241.19
247.47
252.38
255.48
256.84
256.84
255.86
253.93
250.72
245.70
238.45
228.84
217.13
203.86
189.72
175.41
161.52
148.53
136.73
126.16
116.68
107.99
99.62
90.99
81.44
70.39
57.48
42.70
26.42
9.27
-8.12
-25.16
-41.37
-56.44
-70.11
-82.25
-92.82
-101.86
-109.45
-115.63
-120.39
-123.76
-125.89
-127.21
-128.27
-129.68
-131.81
-134.70
-138.11
-141.62
-144.83
-147.49
-149.54
-151.06
-152.25
-153.31
-154.38
-155.46
-156.47
-157.31
-157.96
-158.49
-159.04
-159.68
-160.28
-160.42
-159.45
-156.69
-151.69
-144.32
-134.79
-123.59
-111.31
-98.55
-85.80
-73.42
-61.54
-50.07
-38.80
-27.49
-15.97
-4.28
7.44
18.98
30.30
41.45
52.49
63.39
73.90
83.67
92.36
99.88
106.40
112.27
117.85
123.35
128.79
134.07
139.08
143.71
147.82
151.08
152.97
152.89
150.35
145.19
137.60
127.94
116.60
103.85
89.83
74.63
58.50
42.02
25.99
11.25
-1.60
-12.25
-20.68
-27.03
-31.55
-34.42
-35.86
-36.11
-35.46
-34.27
-32.86
-31.54
-30.57
-30.19
-30.51
-31.43
-32.55
-33.26
-32.96
-31.29
-28.31
-24.41
-20.07
-15.52
-10.67
-5.20
1.21
8.68
17.08
26.16
35.65
45.43
55.42
65.53
75.54
85.20
94.32
102.86
110.90
118.58
125.90
132.54
137.94
141.49
142.65
141.20
137.22
131.06
123.21
114.20
104.50
94.49
84.42
74.46
64.64
54.97
45.38
35.93
26.74
17.95
9.70
1.99
-5.27
-12.21
-18.91
-25.33
-31.35
-36.77
-41.53
-45.65
-49.39
-53.02
-56.83
-60.95
-65.40
-70.05
-74.73
-79.31
-83.63
-87.49
-90.75
-93.26
-95.11
-96.62
-98.28
-100.55
-103.63
-107.22
-110.65
-113.10
-114.03
-113.30
-111.27
-108.45
-105.24
-101.82
-98.17
-94.32
-90.45
-86.88
-83.85
-81.25
-78.62
-75.13
-70.07
-63.06
-54.37
-44.87
-35.77
-28.23
-22.97
-20.09
-19.13
-19.49
-20.78
-23.09
-26.83
-32.37
-39.56
-47.66
-55.40
-61.38
-64.47
-63.98
-59.68
-51.63
-40.20
-26.04
-10.13
6.29
21.90
35.57
46.58
54.70
60.04
62.83
63.28
61.47
57.50
51.65
44.43
36.57
28.73
21.35
14.39
7.55
0.60
-6.43
-13.17
-19.05
-23.61
-26.64
-28.32
-29.15
-29.71
-30.39
-31.32
-32.42
-33.64
-35.04
-36.85
-39.38
-42.94
-47.36
-51.73
-54.63
-54.64
-51.12
-44.60
-36.62
-29.15
-24.01
-21.86
-21.94
-22.45
-21.24
-16.51
-7.04
7.64
28.30
53.23
78.02
96.85
105.13
101.98
90.72
77.18
67.08
63.77
67.11
74.35
81.94
87.12
88.61
86.31
80.66
72.24
61.73
50.08
38.88
30.41
26.76
28.94
36.32
46.80
57.70
66.65
72.05
73.25
70.63
65.07
57.67
49.40
41.10
33.47
27.04
22.81
20.42
19.56
19.53
19.18
17.20
12.61
5.17
-4.27
-14.14
-22.51
-27.50
-27.84
-23.12
-13.95
-2.06
9.96
19.11
22.87
20.13
11.82
0.63
-9.93
-16.72
-17.98
-13.68
-5.22
5.34
16.09
25.63
33.15
38.14
40.42
39.93
36.97
32.20
26.49
21.12
17.27
15.63
16.18
18.42
21.94
27.10
35.27
48.46
68.15
94.00
123.13
150.42
169.85
176.33
167.29
143.28
107.59
65.11
20.82
-21.19
-58.32
-89.33
-113.99
-132.57
-145.58
-153.65
-157.58
-158.42
-157.31
-155.28
-152.98
-150.53
-147.57
-143.60
-138.21
-131.31
-123.15
-114.25
-105.09
-96.06
-87.43
-79.41
-72.33
-66.53
-62.21
-59.19
-56.86
-54.28
-50.60
-45.37
-38.74
-31.33
-23.96
-17.25
-11.40
-6.22
-1.34
3.54
8.43
13.02
16.77
19.16
19.87
18.99
17.08
15.01
13.75
14.01
16.13
19.89
24.75
29.96
34.77
38.58
40.92
41.51
40.11
36.59
31.04
23.84
15.72
7.59
0.33
-5.44
-9.57
-12.31
-14.09
-15.25
-15.84
-15.66
-14.42
-11.87
-7.96
-2.86
2.96
8.84
14.00
17.60
19.02
18.03
14.91
10.36
5.28
0.33
-3.98
-7.14
-8.56
-7.57
-3.42
4.38
15.67
29.58
44.29
57.98
69.36
77.85
83.53
86.83
88.27
87.94
85.52
80.13
71.19
58.98
44.43
28.75
13.22
-0.95
-13.17
-23.30
-32.10
-40.24
-47.60
-53.18
-55.16
-51.24
-39.37
-19.23
10.47
45.71
78.44
101.11
110.37
107.22
94.48
74.87
50.16
21.44
-9.38
-38.75
-62.79
-79.45
-89.22
-94.93
-96.84
-96.81
-96.14
-95.12
-92.32
-85.30
-72.51
-53.84
-31.24
-8.63
8.55
15.57
9.86
-7.71
-33.56
-63.73
-94.18
-121.48
-142.88
-156.86
-162.59
-160.11
-149.98
-128.48
-96.36
-58.30
-20.90
10.89
35.43
53.90
68.42
82.03
96.01
109.01
119.24
125.61
128.20
128.08
127.03
124.37
120.68
116.29
110.65
103.39
94.74
85.44
76.30
67.78
59.72
51.98
44.09
35.42
26.13
17.18
9.79
4.71
1.79
0.00
-1.69
-4.25
-8.13
-12.90
-17.34
-19.94
-19.45
-15.38
-8.15
1.26
11.39
20.76
28.40
34.07
38.11
41.08
43.43
45.34
46.80
47.66
47.78
47.13
45.78
43.90
41.72
39.57
37.72
36.37
35.57
35.22
35.04
34.71
33.90
32.25
29.51
25.58
20.56
14.68
8.20
1.35
-5.66
-12.50
-18.72
-23.82
-27.60
-30.46
-33.37
-37.58
-44.03
-52.82
-63.15
-73.58
-82.61
-89.27
-93.22
-94.71
-94.40
-93.08
-91.54
-90.39
-89.89
-89.78
-89.29
-87.41
-83.28
-76.59
-67.72
-57.68
-47.70
-38.81
-31.59
-26.12
-22.20
-19.57
-18.08
-17.64
-18.04
-18.96
-19.94
-20.58
-20.82
-20.87
-21.09
-21.58
-21.97
-21.37
-18.76
-13.33
-4.78
6.57
19.98
34.50
49.07
62.59
73.94
82.16
86.74
87.79
85.98
82.23
77.26
71.30
64.17
55.68
45.95
35.67
25.93
17.74
11.56
7.26
4.46
2.98
3.08
5.14
9.48
15.96
23.91
32.42
40.71
48.46
55.88
63.40
71.03
78.47
85.15
90.43
93.81
94.91
93.65
90.37
85.70
79.78
73.02
66.12
59.93
55.10
51.75
49.51
48.16
47.41
45.83
42.56
37.62
31.93
26.77
22.96
20.48
18.95
16.52
8.47
-9.16
-37.97
-76.24
-119.62
-163.16
-202.63
-234.60
-258.58
-278.69
-299.07
-322.10
-347.60
-373.63
-398.59
-421.55
-441.15
-437.63
-398.56
-322.29
-220.81
-113.21
-15.83
62.33
113.10
143.60
161.04
167.74
164.69
152.91
134.41
115.13
98.94
88.02
84.01
85.83
89.30
90.81
88.52
82.98
76.39
70.53
66.47
65.16
65.78
65.85
63.56
58.39
51.25
43.89
37.56
33.02
30.99
31.21
32.59
34.16
35.30
35.86
36.01
35.77
35.39
35.50
36.59
38.84
42.22
46.39
50.66
54.26
56.42
56.96
56.58
56.54
58.36
63.15
71.19
81.71
93.12
103.44
110.73
113.47
110.74
102.30
88.66
71.09
51.24
30.47
9.11
-13.78
-39.86
-70.18
-103.89
-137.76
-166.94
-186.85
-195.01
-192.00
-180.92
-165.83
-150.01
-134.92
-120.31
-105.14
-88.67
-70.99
-52.91
-35.47
-19.45
-5.24
6.95
16.87
24.01
27.73
27.63
23.81
17.06
8.71
0.27
-6.97
-12.30
-15.77
-18.00
-19.89
-22.10
-24.71
-26.99
-27.66
-25.39
-19.47
-10.10
1.53
13.79
25.18
34.79
42.34
47.99
51.96
54.33
54.99
53.80
50.82
46.38
41.06
35.51
30.33
25.90
22.54
20.48
19.96
21.12
23.84
27.51
31.21
33.89
34.80
33.83
31.53
28.79
26.46
24.88
23.77
22.37
19.69
14.79
7.01
-3.99
-18.12
-34.83
-53.07
-71.48
-88.60
-103.26
-114.77
-123.03
-128.22
-130.44
-129.38
-124.24
-114.06
-98.22
-77.04
-51.95
-25.31
0.21
22.36
39.92
52.78
61.68
67.68
71.67
74.13
75.22
75.00
73.54
70.98
67.46
63.12
58.09
52.63
47.12
41.96
37.44
33.49
29.77
25.77
21.10
15.72
9.89
4.07
-1.37
-6.21
-10.36
-13.74
-16.28
-17.83
-18.39
-18.18
-17.63
-17.26
-17.45
-18.35
-19.88
-21.88
-24.27
-27.13
-30.58
-34.63
-39.01
-43.19
-46.52
-48.35
-48.27
-46.18
-42.31
-37.14
-31.25
-25.24
-19.54
-14.36
-9.67
-5.33
-1.21
2.69
6.29
9.54
12.57
15.73
19.46
24.00
29.15
34.29
38.60
41.46
42.68
42.66
42.07
41.52
41.23
41.01
40.43
39.15
37.12
34.65
32.19
30.08
28.35
26.70
24.70
22.00
18.60
14.85
11.33
8.60
6.91
6.06
5.46
4.37
2.18
-1.36
-6.08
-11.44
-16.76
-21.44
-25.06
-27.48
-28.75
-29.06
-28.69
-28.00
-27.40
-27.25
-27.67
-28.45
-28.96
-28.51
-26.79
-24.26
-22.12
-21.74
-23.85
-27.75
-31.42
-32.23
-28.21
-18.98
-5.88
8.72
22.56
34.32
43.76
51.18
56.74
59.96
60.03
56.30
48.82
38.53
26.82
15.08
4.23
-5.22
-13.00
-18.68
-21.67
-21.47
-18.06
-12.13
-4.93
2.23
8.55
14.03
19.31
25.19
32.17
40.15
48.53
56.46
63.21
68.40
72.11
74.82
77.19
79.76
82.54
84.87
85.50
82.99
76.38
65.68
52.04
37.52
24.29
13.95
6.91
2.40
-1.11
-5.10
-10.32
-16.43
-22.16
-26.02
-27.02
-25.05
-20.92
-15.91
-11.23
-7.68
-5.62
-5.10
-6.08
-8.46
-12.02
-16.33
-20.78
-24.63
-27.35
-28.78
-29.23
-29.34
-29.84
-31.19
-33.38
-35.90
-37.85
-38.30
-36.62
-32.73
-27.05
-20.41
-13.73
-7.75
-2.84
1.00
4.05
6.63
9.01
11.23
13.18
14.71
15.74
16.34
16.69
17.02
17.46
17.96
18.41
18.66
18.71
18.68
18.77
19.05
19.44
19.67
19.44
18.53
16.98
15.00
12.89
10.90
9.12
7.52
6.00
4.45
2.79
1.00
-0.91
-2.97
-5.17
-7.42
-9.60
-11.60
-13.38
-15.08
-16.87
-18.93
-21.20
-23.31
-24.67
-24.64
-22.84
-19.29
-14.49
-9.14
-3.97
0.51
4.07
6.64
8.24
8.82
8.42
7.11
5.13
2.83
0.54
-1.50
-3.27
-4.85
-6.36
-7.90
-9.48
-11.08
-12.66
-14.18
-15.60
-16.85
-17.91
-18.88
-19.98
-21.53
-23.79
-26.88
-30.64
-34.73
-38.75
-42.34
-45.27
-47.40
-48.68
-49.11
-48.81
-48.04
-47.20
-46.75
-47.07
-48.36
-50.64
-53.63
-56.84
-59.59
-61.20
-61.18
-59.45
-56.43
-52.87
-49.66
-47.44
-46.45
-46.42
-46.71
-46.46
-44.71
-40.60
-33.40
-22.68
-8.43
8.91
28.48
49.10
69.53
88.61
105.45
119.57
130.86
139.58
146.16
151.06
154.57
156.80
157.80
157.64
156.47
154.47
151.75
148.28
143.93
138.57
132.21
125.00
117.20
108.96
100.30
91.07
81.07
70.12
58.11
45.01
30.78
15.42
-0.94
-17.91
-34.73
-50.32
-63.61
-73.75
-80.50
-84.19
-85.57
-85.45
-84.49
-82.99
-81.07
-78.74
-76.09
-73.29
-70.49
-67.74
-65.01
-62.24
-59.45
-56.81
-54.53
-52.86
-51.88
-51.53
-51.60
-51.80
-51.86
-51.62
-51.09
-50.38
-49.67
-49.08
-48.70
-48.54
-48.59
-48.80
-49.19
-49.70
-50.26
-50.87
-51.62
-52.86
-55.05
-58.53
-63.14
-68.12
-72.16
-73.76
-71.84
-66.05
-56.90
-45.41
-32.77
-19.86
-7.19
5.08
17.01
28.67
40.12
51.26
61.87
71.54
79.77
86.18
90.50
92.67
92.83
91.19
87.96
83.35
77.52
70.70
63.17
55.25
47.16
39.03
30.93
22.92
15.10
7.60
0.43
-6.38
-12.97
-19.64
-26.81
-34.80
-43.74
-53.50
-63.76
-74.09
-83.63
-91.60
-97.48
-101.17
-102.98
-103.31
-102.46
-100.46
-97.14
-91.20
-81.49
-67.52
-49.76
-29.52
-8.25
12.97
33.67
53.66
74.36
96.74
120.74
145.06
167.45
185.77
198.79
206.49
209.77
212.17
217.29
227.81
244.57
266.51
291.54
317.44
342.63
353.52
340.50
299.78
236.28
161.40
87.10
21.11
-33.90
-78.28
-113.22
-137.55
-150.00
-150.46
-141.11
-126.20
-110.66
-98.50
-91.97
-91.46
-94.49
-98.08
-99.86
-98.91
-95.84
-92.13
-89.31
-88.36
-89.66
-91.94
-93.62
-93.05
-90.12
-85.33
-79.40
-72.75
-65.51
-57.80
-49.43
-40.71
-32.39
-25.50
-20.80
-18.42
-17.60
-16.96
-15.03
-10.48
-2.78
7.79
20.23
33.31
46.03
58.05
69.64
81.32
93.58
106.39
119.31
131.63
142.76
151.78
158.14
161.55
161.91
159.41
154.62
148.50
142.25
136.92
133.23
131.43
131.46
133.06
136.04
140.23
145.38
151.16
157.22
163.34
169.58
176.05
182.67
188.98
194.05
196.72
195.87
190.76
181.16
167.32
149.84
129.50
107.17
83.81
60.34
37.64
16.43
-2.78
-19.70
-34.30
-46.82
-57.67
-67.45
-76.79
-86.21
-96.15
-106.79
-118.13
-130.08
-142.57
-155.61
-169.41
-184.26
-200.44
-218.13
-237.30
-257.74
-279.25
-301.70
-325.13
-349.75
-375.68
-402.95
-431.42
-461.02
-491.85
-524.15
-558.02
-592.83
-627.01
-658.12
-683.42
-700.47
-707.57
-703.65
-688.01
-660.09
-619.66
-567.31
-504.88
-435.42
-362.55
-289.45
-218.02
-148.66
-80.77
-13.74
52.17
115.56
174.12
225.52
268.09
301.23
325.30
341.19
349.83
351.94
348.11
339.05
325.79
309.65
291.96
273.79
255.71
237.94
220.48
203.38
186.85
171.13
156.43
142.72
129.84
117.47
105.38
93.47
81.88
70.91
61.04
52.78
46.57
42.71
41.12
41.36
42.68
44.27
45.53
46.24
46.62
47.03
47.84
49.16
50.85
52.65
54.33
55.72
56.72
57.30
57.50
57.41
57.14
56.80
56.36
55.64
54.34
52.08
48.67
44.29
39.44
34.76
30.71
27.37
24.40
21.16
17.08
11.89
5.96
-0.06
-5.46
-9.93
-13.70
-17.36
-21.67
-27.26
-34.38
-42.42
-50.34
-57.06
-61.71
-63.78
-63.01
-59.35
-53.16
-45.00
-34.70
-21.97
-6.69
10.85
29.87
49.37
68.28
85.48
100.14
113.15
125.86
139.21
153.02
166.07
176.83
183.91
186.15
182.79
175.36
166.54
159.39
156.72
160.73
172.79
192.69
218.15
235.30
232.55
205.58
160.05
107.14
56.78
14.54
-18.19
-42.79
-61.83
-76.12
-85.54
-90.01
-89.94
-86.25
-79.88
-71.52
-61.78
-51.59
-41.62
-33.83
-32.44
-42.40
-66.58
-103.03
-144.69
-181.81
-206.00
-215.16
-209.79
-194.75
-176.29
-158.94
-143.76
-128.96
-112.02
-91.76
-68.69
-44.41
-21.37
-1.39
14.85
27.74
37.84
45.24
49.40
49.70
46.21
39.44
30.64
21.44
13.33
7.03
2.29
-1.91
-6.86
-12.63
-19.04
-25.38
-30.73
-34.28
-35.70
-35.27
-33.72
-31.93
-30.47
-29.78
-29.92
-30.73
-31.98
-33.50
-35.13
-36.68
-37.82
-38.05
-36.97
-34.24
-29.76
-23.65
-16.36
-8.53
-0.96
5.67
10.92
14.71
17.35
19.33
21.14
23.06
25.12
27.25
29.40
31.63
34.03
36.62
39.27
41.74
43.76
45.19
46.04
46.47
46.59
46.51
46.28
45.88
45.36
44.68
43.73
42.35
40.37
37.67
34.33
30.56
26.64
22.80
19.12
15.50
11.64
7.16
1.65
-5.13
-13.06
-21.52
-29.46
-35.59
-38.82
-38.63
-35.20
-29.42
-22.51
-15.80
-10.27
-6.58
-4.95
-5.24
-6.97
-9.42
-11.73
-13.08
-12.94
-11.17
-8.07
-4.19
-0.16
3.56
6.84
9.73
12.45
15.10
17.62
19.73
21.16
21.71
21.37
20.28
18.59
16.39
13.70
10.51
6.90
3.04
-0.86
-4.62
-8.08
-11.13
-13.70
-15.69
-17.16
-18.24
-19.26
-20.54
-22.27
-24.32
-26.21
-27.16
-26.36
-23.23
-17.64
-10.00
-1.19
7.70
15.67
22.09
26.78
29.98
32.06
33.41
34.21
34.56
34.54
34.43
34.68
35.86
38.48
42.91
49.31
57.68
67.96
79.97
93.25
106.87
119.33
128.68
132.99
130.89
122.00
106.94
86.88
63.05
36.44
7.87
-21.63
-50.51
-76.90
-99.04
-115.97
-127.98
-136.41
-143.08
-149.38
-155.73
-161.36
-164.92
-165.05
-161.21
-154.01
-145.07
-136.49
-130.07
-126.85
-126.63
-128.05
-128.72
-125.59
-115.39
-95.22
-63.24
-19.44
33.98
92.81
151.69
205.52
250.69
285.70
310.99
327.94
337.78
340.67
335.61
320.98
295.40
258.46
211.03
155.21
94.19
32.09
-26.34
-76.35
-114.22
-138.24
-149.16
-150.01
-144.96
-137.95
-131.79
-127.86
-126.50
-127.58
-130.79
-135.57
-140.85
-145.03
-146.36
-143.55
-136.26
-125.22
-111.88
-97.97
-84.81
-73.00
-62.34
-52.13
-41.57
-30.21
-18.17
-6.14
4.83
13.57
19.09
20.76
18.48
12.71
4.45
-4.95
-13.99
-21.34
-26.06
-27.70
-26.05
-21.06
-12.55
-0.33
15.59
34.60
55.33
75.73
93.43
106.36
113.30
114.27
110.52
104.14
97.35
91.72
87.63
84.14
79.40
71.42
58.77
41.06
19.12
-5.31
-29.96
-52.55
-71.13
-84.56
-92.56
-95.68
-94.90
-91.13
-84.90
-76.40
-66.11
-55.18
-45.58
-39.52
-38.34
-41.62
-46.98
-50.92
-50.10
-42.65
-28.36
-8.50
14.98
40.19
65.38
88.90
108.80
122.94
129.43
127.74
118.66
104.08
86.26
67.08
47.70
28.56
9.70
-8.86
-25.87
-39.82
-49.53
-54.74
-56.25
-55.53
-54.10
-53.05
-52.86
-51.95
-48.32
-40.38
-27.68
-11.04
8.01
28.03
48.10
67.87
89.34
114.67
145.20
180.73
219.65
259.90
299.97
339.28
365.32
368.04
342.06
290.17
222.26
150.09
82.47
23.79
-25.02
-64.83
-95.19
-115.75
-126.84
-130.12
-128.40
-124.83
-121.87
-120.98
-122.68
-125.34
-126.96
-126.02
-122.18
-116.33
-109.96
-104.16
-99.20
-94.48
-88.06
-78.37
-64.71
-48.75
-33.21
-20.90
-13.51
-11.38
-13.70
-18.78
-25.09
-31.66
-38.04
-43.94
-49.02
-52.72
-54.66
-54.76
-53.08
-49.81
-45.05
-38.86
-31.13
-21.87
-11.23
0.15
11.17
20.52
26.92
29.63
28.45
23.86
15.92
5.58
-6.03
-17.82
-28.78
-38.07
-44.91
-48.84
-49.81
-48.28
-44.95
-40.77
-36.62
-32.94
-29.77
-26.79
-23.62
-20.07
-16.19
-12.12
-8.22
-4.97
-2.69
-1.44
-1.01
-1.04
-1.25
-1.59
-1.97
-2.64
-4.13
-6.92
-11.12
-16.28
-21.70
-26.56
-30.39
-32.48
-32.52
-30.49
-26.43
-20.37
-12.28
-2.23
9.61
23.00
38.39
55.79
74.33
92.18
107.27
118.26
125.50
131.17
134.06
134.30
132.20
127.48
119.06
105.90
88.23
67.80
47.15
28.46
13.44
2.63
-4.12
-7.00
-6.08
-1.69
4.50
9.28
8.50
-0.83
-19.40
-44.77
-72.15
-96.11
-112.65
-120.57
-121.39
-118.00
-112.61
-106.19
-98.52
-89.31
-78.94
-68.81
-60.85
-56.72
-57.08
-61.14
-67.84
-74.46
-78.87
-79.80
-76.89
-70.53
-61.44
-50.53
-38.77
-27.42
-17.84
-11.57
-9.50
-11.52
-16.36
-22.05
-26.48
-28.07
-26.23
-21.07
-13.57
-4.80
4.05
11.91
17.97
21.92
24.14
25.52
27.31
30.49
35.65
42.60
50.54
58.45
65.51
71.47
76.74
82.30
88.01
94.18
100.87
107.83
114.51
120.35
124.84
127.71
128.83
128.24
126.30
123.39
119.84
115.83
111.25
105.68
98.53
89.24
77.41
63.15
46.81
28.99
10.40
-8.19
-26.11
-42.79
-57.90
-71.30
-82.82
-92.34
-99.53
-104.02
-105.44
-103.67
-98.98
-92.01
-83.67
-74.85
-66.35
-58.75
-52.44
-47.56
-44.10
-41.83
-40.36
-39.21
-37.95
-36.27
-34.09
-31.51
-28.75
-26.03
-23.55
-21.42
-19.69
-18.36
-17.34
-16.49
-15.65
-14.74
-13.76
-12.86
-12.27
-12.17
-12.69
-13.85
-15.59
-17.80
-20.37
-23.19
-26.18
-29.30
-32.56
-36.00
-39.65
-43.47
-47.34
-51.00
-54.20
-56.69
-58.24
-58.58
-57.52
-54.88
-50.70
-45.30
-39.20
-33.08
-27.50
-22.80
-19.09
-16.32
-14.45
-13.48
-13.51
-14.63
-16.85
-20.04
-23.86
-27.87
-31.49
-34.15
-35.40
-35.08
-33.41
-30.93
-28.29
-25.90
-23.77
-21.53
-18.67
-14.89
-10.32
-5.37
-0.57
3.81
7.90
12.09
16.79
22.09
27.71
33.12
37.77
41.35
43.79
45.26
45.94
45.83
44.75
42.46
38.79
34.02
28.78
23.90
20.10
17.77
16.76
16.42
15.75
13.73
9.67
3.33
-5.02
-14.72
-24.95
-34.95
-44.35
-53.26
-62.19
-71.64
-82.04
-93.62
-106.30
-119.53
-132.18
-142.38
-147.86
-146.38
-135.97
-116.64
-90.72
-62.26
-35.50
-13.14
4.61
19.59
34.53
52.67
75.01
100.10
124.96
146.88
164.54
178.42
189.87
200.74
214.51
233.22
257.08
284.54
313.27
340.99
366.37
388.71
408.44
428.90
452.13
477.94
503.66
525.26
538.59
540.72
529.88
488.03
407.09
290.62
153.84
16.45
-106.07
-206.33
-281.65
-338.02
-380.03
-407.77
-421.38
-422.70
-415.82
-403.02
-387.31
-370.84
-355.10
-340.11
-323.48
-303.39
-279.12
-251.21
-220.98
-190.25
-160.62
-133.78
-110.76
-91.18
-74.69
-61.15
-50.72
-43.75
-40.74
-41.46
-44.94
-48.92
-50.28
-46.75
-38.02
-25.93
-13.69
-4.60
-0.23
-0.08
-1.87
-2.67
-0.50
5.10
13.21
22.23
30.67
37.65
42.94
46.88
50.08
53.21
56.84
61.34
66.75
72.76
78.79
84.11
87.97
89.71
88.85
85.17
78.68
69.65
58.44
45.44
31.03
15.66
-0.09
-15.48
-29.76
-42.33
-52.93
-61.72
-69.18
-75.86
-82.25
-88.64
-95.09
-101.37
-107.09
-111.76
-114.90
-116.12
-115.12
-111.62
-105.36
-96.19
-84.05
-69.13
-51.86
-32.84
-12.76
7.96
29.01
49.95
69.96
87.75
101.73
110.36
112.39
107.06
94.73
76.60
54.35
29.85
4.83
-19.23
-40.89
-58.94
-72.54
-80.45
-81.64
-75.78
-63.22
-44.78
-21.30
6.08
35.23
62.64
85.06
99.93
106.15
104.13
95.59
82.74
68.25
56.58
47.57
40.32
34.00
28.06
22.65
18.40
13.29
8.00
3.71
0.96
0.34
2.12
6.33
12.94
21.60
31.30
40.99
49.25
54.60
56.84
56.54
54.61
52.19
50.05
48.14
46.42
44.48
41.81
38.73
37.12
37.64
41.19
47.84
55.90
62.66
64.98
60.52
48.93
31.66
11.52
-8.07
-24.40
-36.73
-45.24
-50.70
-53.92
-55.45
-56.29
-57.65
-60.60
-66.19
-75.92
-90.44
-109.35
-131.56
-152.70
-169.85
-181.40
-186.84
-181.12
-162.33
-131.70
-93.67
-53.98
-17.23
13.93
39.31
60.39
79.05
95.65
109.66
120.54
127.79
131.62
132.68
132.32
131.97
132.63
133.98
135.37
136.24
136.54
136.71
136.74
136.68
136.26
134.82
130.99
123.56
111.98
96.51
78.27
58.68
39.17
20.72
3.81
-11.70
-26.02
-39.14
-50.77
