1653126438.00
64.000000
-0.00
-0.00
-0.00
-0.00
-0.00
-0.00
-0.00
-0.00
-0.00
-0.00
0.00
0.01
0.01
-0.00
-0.03
-0.05
-0.05
0.00
0.13
0.36
0.66
1.01
1.37
1.72
2.06
2.40
2.79
3.24
3.80
4.42
5.06
5.66
6.20
6.68
7.15
7.68
8.31
9.14
10.09
11.04
11.88
12.57
13.14
13.76
14.65
15.96
17.91
20.31
22.91
25.40
27.63
29.63
31.71
34.28
37.63
42.19
47.61
53.41
59.04
64.13
68.73
73.27
78.40
84.64
92.53
101.61
111.12
120.19
128.26
135.28
141.81
149.10
155.82
164.28
175.18
188.74
203.83
217.49
225.24
222.25
204.96
172.44
127.19
73.33
15.48
-42.93
-100.43
-157.04
-213.33
-269.39
-324.47
-376.87
-425.14
-468.01
-504.52
-533.87
-555.17
-567.41
-569.45
-560.39
-539.66
-507.68
-465.73
-415.93
-360.91
-303.44
-245.99
-190.63
-139.06
-92.58
-52.12
-17.66
12.20
40.18
69.50
102.54
139.52
178.13
214.36
243.99
264.35
275.05
277.61
274.30
266.99
256.72
243.91
229.03
212.99
197.08
182.42
169.49
157.94
146.84
135.24
122.66
109.35
96.08
83.84
73.35
64.76
57.67
51.31
44.97
38.26
31.38
24.72
18.80
13.99
10.37
7.74
5.78
4.14
2.66
1.28
0.01
-1.12
-2.10
-2.93
-3.63
-4.23
-4.80
-5.44
-6.21
-7.12
-7.99
-8.62
-8.87
-8.71
-8.31
-7.88
-7.61
-7.52
-7.53
-7.47
-7.23
-6.72
-5.91
-4.83
-3.58
-2.36
-1.43
-1.00
-1.14
-1.75
-2.56
-3.30
-3.83
-4.13
-4.29
-4.40
-4.44
-4.36
-4.12
-3.75
-3.36
-3.07
-2.94
-2.91
-2.89
-2.76
-2.41
-1.82
-1.03
-0.13
0.73
1.42
1.86
2.04
2.01
1.87
1.71
1.57
1.43
1.28
1.06
0.81
0.56
0.39
0.36
0.50
0.87
1.44
2.17
2.95
3.65
4.17
4.51
4.70
4.85
5.01
5.19
5.26
5.04
4.44
3.41
2.10
0.61
-0.89
-2.26
-3.45
-4.46
-5.35
-6.20
-7.05
-7.89
-8.63
-9.20
-9.54
-9.65
-9.53
-9.17
-8.48
-7.40
-5.92
-4.19
-2.43
-0.90
0.22
0.90
1.24
1.37
1.38
1.31
1.14
0.88
0.50
0.02
-0.52
-1.07
-1.53
-1.81
-1.87
-1.73
-1.49
-1.27
-1.17
-1.21
-1.37
-1.56
-1.72
-1.79
-1.77
-1.70
-1.62
-1.58
-1.59
-1.63
-1.73
-1.89
-2.11
-2.40
-2.74
-3.08
-3.32
-3.45
-3.47
-3.47
-3.51
-3.63
-3.74
-3.71
-3.42
-2.82
-1.91
-0.76
0.58
2.08
3.75
5.53
7.29
8.85
9.99
10.60
10.69
10.42
9.98
9.55
9.18
8.83
8.53
8.46
8.86
9.75
10.64
10.69
9.15
5.82
1.39
-2.95
-6.13
-7.81
-8.56
-9.33
-10.78
-12.78
-14.58
-15.40
-15.06
-14.09
-13.26
-12.98
-12.92
-12.36
-10.74
-8.17
-5.33
-3.06
-1.84
-1.48
-1.28
-0.53
1.14
3.54
6.17
8.55
10.40
11.74
12.70
13.38
13.75
13.72
13.21
12.25
10.90
9.29
7.48
5.52
3.51
1.53
-0.24
-1.67
-2.65
-3.19
-3.36
-3.31
-3.21
-3.22
-3.43
-3.85
-4.40
-5.00
-5.57
-6.09
-6.57
-7.04
-7.50
-7.90
-8.23
-8.51
-8.77
-9.07
-9.45
-9.85
-10.16
-10.26
-10.09
-9.65
-9.02
-8.24
-7.28
-6.06
-4.46
-2.47
-0.23
1.95
3.72
4.79
5.05
4.57
3.55
2.27
1.02
0.10
-0.23
0.21
1.37
2.89
4.15
4.39
2.99
-0.28
-5.22
-11.19
-17.42
-23.19
-28.09
-32.06
-35.34
-38.29
-41.23
-44.34
-47.63
-51.01
-54.40
-57.71
-60.85
-63.69
-66.05
-67.83
-69.07
-69.91
-70.50
-70.76
-70.21
-68.17
-64.03
-57.67
-49.55
-40.51
-31.16
-21.52
-10.83
2.06
18.00
36.93
57.57
77.76
95.17
108.05
115.76
118.85
118.76
117.43
116.79
118.36
122.92
130.28
139.27
147.97
154.35
156.83
154.82
148.78
139.85
129.30
118.04
106.50
94.77
82.89
71.05
59.50
48.43
37.81
27.39
16.87
6.12
-4.76
-15.40
-25.35
-34.23
-41.88
-48.42
-54.12
-59.19
-63.65
-67.20
-69.41
-69.98
-69.00
-67.04
-64.95
-63.45
-62.77
-62.51
-61.89
-60.14
-56.96
-52.58
-47.62
-42.68
-38.08
-33.72
-29.35
-24.80
-20.18
-15.84
-12.07
-8.95
-6.18
-3.32
-0.08
3.49
7.02
9.99
12.04
13.13
13.43
13.16
12.43
11.10
8.98
5.92
1.98
-2.63
-7.55
-12.42
-16.91
-20.84
-24.17
-26.97
-29.41
-31.61
-33.54
-34.99
-35.68
-35.39
-34.09
-31.98
-29.41
-26.73
-24.16
-21.76
-19.45
-17.16
-14.84
-12.51
-10.20
-7.93
-5.69
-3.44
-1.12
1.27
3.62
5.78
7.48
8.50
8.70
8.09
6.84
5.24
3.65
2.34
1.51
1.19
1.34
1.86
2.66
3.65
4.72
5.72
6.47
6.84
6.79
6.43
5.97
5.61
5.46
5.52
5.67
5.73
5.56
5.09
4.35
3.41
2.41
1.44
0.60
-0.06
-0.51
-0.72
-0.67
-0.39
0.02
0.39
0.57
0.44
0.05
-0.48
-0.95
-1.24
-1.35
-1.43
-1.63
-2.08
-2.79
-3.68
-4.67
-5.69
-6.68
-7.53
-8.10
-8.26
-7.97
-7.34
-6.65
-6.15
-6.00
-6.15
-6.36
-6.35
-5.94
-5.12
-4.04
-2.87
-1.75
-0.74
0.10
0.72
1.06
1.10
0.88
0.50
0.06
-0.46
-1.13
-2.08
-3.37
-4.89
-6.39
-7.54
-8.11
-8.00
-7.30
-6.19
-4.89
-3.59
-2.43
-1.48
-0.79
-0.32
-0.00
0.27
0.52
0.73
0.73
0.37
-0.42
-1.50
-2.59
-3.33
-3.46
-2.94
-1.96
-0.81
0.24
1.04
1.62
2.09
2.55
3.09
3.75
4.51
5.34
6.13
6.74
7.05
7.00
6.58
5.89
5.04
4.07
2.98
1.73
0.37
-1.01
-2.20
-2.96
-3.13
-2.67
-1.69
-0.41
0.96
2.27
3.53
4.84
6.35
8.10
9.97
11.73
13.12
14.00
14.39
14.40
14.18
13.79
13.22
12.44
11.46
10.39
9.39
8.56
7.90
7.26
6.48
5.44
4.14
2.73
1.39
0.31
-0.40
-0.75
-0.83
-0.78
-0.77
-0.90
-1.22
-1.70
-2.25
-2.80
-3.36
-4.01
-4.84
-5.88
-7.01
-7.95
-8.38
-8.06
-6.98
-5.32
-3.40
-1.50
0.21
1.74
3.18
4.61
6.03
7.30
8.21
8.61
8.35
7.39
5.72
3.41
0.57
-2.55
-5.67
-8.46
-10.67
-12.23
-13.27
-14.06
-14.92
-16.03
-17.43
-19.00
-20.56
-21.94
-23.02
-23.74
-24.03
-23.80
-22.95
-21.41
-19.16
-16.27
-12.79
-8.76
-4.12
1.23
7.35
14.19
21.44
28.57
34.90
39.74
42.62
43.39
42.34
40.06
37.26
34.52
32.17
30.24
28.57
26.96
25.28
23.45
21.36
18.89
15.86
12.20
8.04
3.73
-0.21
-3.34
-5.40
-6.42
-6.62
-6.25
-5.55
-4.65
-3.69
-2.83
-2.26
-2.13
-2.46
-3.12
-3.86
-4.50
-4.98
-5.42
-6.00
-6.80
-7.65
-8.22
-8.14
-7.13
-5.19
-2.56
0.38
3.26
5.84
7.99
9.65
10.77
11.29
11.17
10.49
9.40
8.07
6.65
5.22
3.86
2.69
1.89
1.64
1.99
2.80
3.69
4.22
4.02
2.94
1.06
-1.35
-3.96
-6.47
-8.68
-10.48
-11.82
-12.73
-13.28
-13.55
-13.64
-13.60
-13.50
-13.32
-13.05
-12.61
-11.93
-10.94
-9.60
-7.93
-6.01
-3.99
-2.05
-0.36
0.98
1.97
2.70
3.26
3.69
3.98
4.08
3.98
3.72
3.39
3.10
2.92
2.84
2.80
2.75
2.63
2.41
2.09
1.66
1.18
0.71
0.36
0.20
0.22
0.32
0.33
0.12
-0.38
-1.17
-2.18
-3.39
-4.76
-6.24
-7.65
-8.72
-9.20
-8.92
-7.93
-6.46
-4.82
-3.29
-1.94
-0.72
0.49
1.73
2.93
3.93
4.56
4.77
4.61
4.19
3.67
3.11
2.55
2.00
1.49
1.08
0.80
0.65
0.62
0.62
0.61
0.58
0.51
0.37
0.09
-0.37
-1.01
-1.77
-2.50
-3.08
-3.47
-3.73
-4.03
-4.49
-5.16
-5.93
-6.60
-6.97
-6.90
-6.38
-5.45
-4.19
-2.67
-0.96
0.83
2.55
4.03
5.14
5.85
6.25
6.47
6.61
6.71
6.74
6.64
6.38
6.04
5.69
5.42
5.24
5.12
4.98
4.74
4.37
3.87
3.28
2.64
1.95
1.25
0.56
-0.12
-0.76
-1.36
-1.93
-2.47
-2.94
-3.30
-3.50
-3.53
-3.46
-3.45
-3.63
-4.08
-4.71
-5.27
-5.46
-5.08
-4.13
-2.84
-1.55
-0.53
0.09
0.46
0.84
1.44
2.34
3.42
4.45
5.18
5.53
5.49
5.16
4.65
4.02
3.31
2.58
1.87
1.27
0.85
0.63
0.58
0.63
0.66
0.61
0.46
0.23
-0.02
-0.26
-0.49
-0.73
-0.97
-1.20
-1.39
-1.53
-1.68
-1.89
-2.24
-2.74
-3.36
-4.01
-4.64
-5.22
-5.75
-6.23
-6.59
-6.79
-6.76
-6.49
-6.03
-5.41
-4.65
-3.75
-2.72
-1.64
-0.61
0.27
0.99
1.60
2.20
2.87
3.58
4.22
4.65
4.82
4.76
4.58
4.39
4.24
4.10
3.90
3.58
3.16
2.67
2.20
1.78
1.46
1.24
1.10
1.01
0.91
0.71
0.37
-0.17
-0.87
-1.66
-2.42
-3.05
-3.50
-3.77
-3.92
-4.04
-4.20
-4.45
-4.79
-5.25
-5.85
-6.57
-7.36
-8.11
-8.62
-8.70
-8.22
-7.17
-5.69
-3.96
-2.20
-0.60
0.72
1.67
2.24
2.44
2.40
2.26
2.20
2.32
2.62
3.00
3.31
3.43
3.31
3.01
2.61
2.24
1.95
1.76
1.66
1.62
1.66
1.74
1.84
1.86
1.73
1.40
0.90
0.32
-0.24
-0.68
-0.99
-1.23
-1.47
-1.81
-2.23
-2.69
-3.12
-3.47
-3.76
-4.07
-4.46
-4.93
-5.38
-5.61
-5.46
-4.84
-3.82
-2.57
-1.31
-0.21
0.64
1.25
1.71
2.09
2.44
2.77
3.06
3.27
3.38
3.37
3.26
3.07
2.82
2.54
2.23
1.87
1.48
1.07
0.70
0.39
0.17
0.03
-0.02
-0.01
0.08
0.24
0.44
0.64
0.77
0.75
0.51
0.02
-0.71
-1.62
-2.61
-3.55
-4.37
-5.02
-5.48
-5.72
-5.70
-5.35
-4.61
-3.50
-2.16
-0.80
0.38
1.28
1.96
2.56
3.22
4.01
4.82
5.51
5.95
6.09
5.98
5.74
5.47
5.22
4.99
4.73
4.38
3.91
3.37
2.82
2.39
2.16
2.18
2.39
2.62
2.68
2.42
1.80
0.92
-0.04
-0.88
-1.49
-1.85
-2.03
-2.15
-2.32
-2.62
-3.05
-3.58
-4.08
-4.43
-4.52
-4.30
-3.80
-3.14
-2.42
-1.71
-1.00
-0.29
0.46
1.19
1.82
2.26
2.50
2.57
2.55
2.52
2.44
2.22
1.75
1.01
0.09
-0.81
-1.45
-1.69
-1.53
-1.13
-0.71
-0.43
-0.37
-0.49
-0.71
-0.92
-1.10
-1.21
-1.27
-1.28
-1.25
-1.22
-1.25
-1.44
-1.85
-2.50
-3.35
-4.28
-5.15
-5.79
-6.09
-5.97
-5.43
-4.60
-3.61
-2.63
-1.70
-0.82
0.10
1.12
2.25
3.38
4.34
4.93
5.06
4.74
4.10
3.35
2.72
2.36
2.31
2.45
2.58
2.47
1.96
1.11
0.07
-0.92
-1.68
-2.17
-2.47
-2.71
-3.01
-3.43
-3.93
-4.46
-4.97
-5.44
-5.90
-6.37
-6.87
-7.39
-7.89
-8.31
-8.62
-8.80
-8.82
-8.63
-8.18
-7.41
-6.33
-4.99
-3.53
-2.09
-0.76
0.48
1.75
3.18
4.82
6.57
8.23
9.55
10.34
10.54
10.19
9.43
8.41
7.27
6.11
5.03
4.13
3.50
3.12
2.94
2.78
2.50
2.01
1.33
0.55
-0.19
-0.76
-1.11
-1.23
-1.20
-1.13
-1.15
-1.37
-1.85
-2.56
-3.38
-4.12
-4.59
-4.65
-4.27
-3.47
-2.35
-1.02
0.37
1.71
2.91
3.95
4.86
5.71
6.53
7.25
7.78
8.01
7.90
7.48
6.87
6.22
5.65
5.24
5.01
4.93
4.95
4.93
4.79
4.43
3.84
3.06
2.20
1.31
0.42
-0.46
-1.33
-2.15
-2.88
-3.51
-4.05
-4.54
-5.02
-5.49
-5.88
-6.12
-6.13
-5.91
-5.52
-5.02
-4.51
-4.03
-3.53
-2.95
-2.17
-1.12
0.17
1.59
2.93
3.97
4.59
4.78
4.61
4.19
3.64
3.03
2.42
1.86
1.41
1.09
0.88
0.74
0.56
0.25
-0.18
-0.65
-1.08
-1.40
-1.65
-1.89
-2.21
-2.64
-3.18
-3.74
-4.28
-4.76
-5.23
-5.74
-6.32
-6.92
-7.44
-7.73
-7.67
-7.18
-6.29
-5.08
-3.65
-2.11
-0.49
1.18
2.88
4.55
6.11
7.50
8.66
9.57
10.21
10.55
10.59
10.39
10.10
9.87
9.84
10.01
10.26
10.40
10.26
9.81
9.13
8.40
7.83
7.54
7.60
7.96
8.45
8.89
9.08
8.85
8.14
6.98
5.45
3.61
1.42
-1.23
-4.45
-8.25
-12.45
-16.68
-20.50
-23.51
-25.45
-26.26
-26.05
-25.04
-23.49
-21.62
-19.60
-17.49
-15.30
-13.05
-10.80
-8.77
-7.18
-6.25
-5.97
-6.16
-6.41
-6.33
-5.64
-4.32
-2.60
-0.80
0.82
2.11
3.13
4.00
4.87
5.83
6.95
8.26
9.78
11.37
12.77
13.54
13.28
11.78
9.22
6.09
3.04
0.60
-0.95
-1.67
-1.76
-1.42
-0.77
0.11
1.15
2.16
2.95
3.38
3.46
3.37
3.37
3.69
4.47
5.70
7.18
8.63
9.73
10.25
10.16
9.58
8.80
8.08
7.57
7.21
6.80
6.12
5.05
3.64
2.08
0.62
-0.59
-1.52
-2.29
-3.04
-3.88
-4.80
-5.70
-6.48
-7.12
-7.70
-8.31
-8.98
-9.60
-9.95
-9.79
-9.04
-7.81
-6.36
-4.94
-3.69
-2.62
-1.65
-0.73
0.13
0.84
1.33
1.56
1.58
1.48
1.32
1.16
0.99
0.81
0.63
0.51
0.52
0.68
0.96
1.26
1.44
1.37
0.98
0.27
-0.64
-1.66
-2.66
-3.61
-4.52
-5.43
-6.39
-7.42
-8.48
-9.50
-10.37
-10.96
-11.13
-10.73
-9.67
-7.96
-5.70
-3.05
-0.21
2.65
5.42
8.05
10.46
12.60
14.34
15.57
16.22
16.27
15.77
14.78
13.44
11.90
10.35
8.97
7.86
7.06
6.50
6.04
5.57
4.98
4.20
3.24
2.14
0.97
-0.19
-1.25
-2.18
-3.03
-3.85
-4.72
-5.65
-6.62
-7.56
-8.42
-9.17
-9.83
-10.38
-10.77
-10.96
-10.88
-10.47
-9.65
-8.36
-6.53
-4.15
-1.34
1.67
4.56
7.00
8.81
9.95
10.55
10.76
10.69
10.31
9.58
8.46
7.02
5.42
3.87
2.52
1.41
0.52
-0.21
-0.84
-1.39
-1.85
-2.23
-2.53
-2.75
-2.91
-3.04
-3.21
-3.51
-4.02
-4.74
-5.62
-6.53
-7.40
-8.26
-9.16
-10.15
-11.14
-11.91
-12.16
-11.72
-10.58
-8.97
-7.15
-5.32
-3.51
-1.63
0.40
2.53
4.56
6.23
7.38
8.01
8.29
8.39
8.42
8.37
8.13
7.61
6.78
5.72
4.60
3.58
2.80
2.35
2.23
2.31
2.46
2.50
2.33
1.92
1.28
0.46
-0.49
-1.48
-2.41
-3.15
-3.62
-3.81
-3.88
-4.02
-4.38
-4.94
-5.54
-5.84
-5.59
-4.64
-3.07
-1.11
0.91
2.70
4.09
5.01
5.52
5.74
5.80
5.80
5.73
5.55
5.17
4.58
3.81
3.02
2.34
1.87
1.62
1.49
1.35
1.11
0.78
0.39
0.03
-0.27
-0.55
-0.89
-1.32
-1.87
-2.47
-3.05
-3.52
-3.83
-3.97
-4.00
-4.02
-4.17
-4.57
-5.23
-6.00
-6.58
-6.67
-6.07
-4.81
-3.10
-1.29
0.37
1.76
2.93
3.99
5.00
5.89
6.55
6.84
6.72
6.24
5.55
4.78
4.03
3.40
2.89
2.53
2.28
2.08
1.85
1.51
0.99
0.28
-0.51
-1.21
-1.62
-1.60
-1.12
-0.31
0.59
1.30
1.61
1.49
1.01
0.35
-0.30
-0.87
-1.37
-1.88
-2.51
-3.32
-4.28
-5.31
-6.27
-7.00
-7.40
-7.38
-6.96
-6.15
-5.02
-3.62
-2.06
-0.44
1.10
2.42
3.42
4.06
4.38
4.51
4.55
4.60
4.65
4.57
4.21
3.43
2.23
0.72
-0.83
-2.13
-2.99
-3.40
-3.55
-3.80
-4.48
-5.75
-7.46
-9.17
-10.27
-10.18
-8.60
-5.65
-1.82
2.15
5.53
7.77
8.62
8.11
6.51
4.18
1.54
-1.02
-3.18
-4.74
-5.61
-5.90
-5.82
-5.67
-5.69
-5.95
-6.31
-6.40
-5.80
-4.17
-1.49
1.97
5.67
9.02
11.58
13.17
13.88
13.96
13.63
13.04
12.19
11.05
9.62
7.97
6.31
4.84
3.73
3.00
2.57
2.26
1.95
1.58
1.22
0.94
0.82
0.82
0.82
0.72
0.41
-0.13
-0.89
-1.85
-3.00
-4.35
-5.90
-7.64
-9.51
-11.35
-12.93
-13.98
-14.24
-13.62
-12.21
-10.26
-8.13
-6.13
-4.48
-3.26
-2.48
-2.11
-2.08
-2.30
-2.62
-2.96
-3.25
-3.51
-3.79
-4.12
-4.46
-4.69
-4.63
-4.15
-3.18
-1.73
0.12
2.25
4.50
6.71
8.71
10.32
11.39
11.82
11.55
10.58
9.04
7.15
5.19
3.48
2.20
1.40
0.97
0.72
0.47
0.07
-0.51
-1.22
-1.95
-2.60
-3.04
-3.22
-3.10
-2.70
-2.08
-1.29
-0.37
0.64
1.71
2.72
3.52
3.95
3.90
3.45
2.79
2.12
1.60
1.25
1.00
0.78
0.55
0.35
0.22
0.17
0.19
0.20
0.16
0.03
-0.18
-0.50
-0.98
-1.64
-2.43
-3.22
-3.87
-4.25
-4.37
-4.34
-4.35
-4.51
-4.88
-5.39
-5.95
-6.49
-7.03
-7.62
-8.31
-9.11
-9.93
-10.58
-10.85
-10.55
-9.62
-8.14
-6.38
-4.67
-3.30
-2.44
-2.07
-1.98
-1.86
-1.30
0.07
2.52
6.11
10.65
15.62
20.34
24.09
26.37
27.04
26.31
24.59
22.33
19.86
17.36
14.91
12.59
10.47
8.65
7.16
5.95
4.90
3.89
2.83
1.75
0.72
-0.17
-0.85
-1.36
-1.83
-2.42
-3.27
-4.45
-5.87
-7.35
-8.57
-9.28
-9.27
-8.53
-7.21
-5.62
-4.04
-2.70
-1.70
-0.97
-0.38
0.17
0.66
0.97
0.96
0.57
-0.10
-0.85
-1.46
-1.82
-1.94
-1.96
-1.99
-2.05
-2.06
-1.90
-1.54
-1.12
-0.86
-0.96
-1.52
-2.43
-3.46
-4.36
-4.96
-5.22
-5.19
-4.97
-4.69
-4.43
-4.27
-4.24
-4.33
-4.49
-4.68
-4.84
-4.97
-5.08
-5.21
-5.40
-5.60
-5.75
-5.73
-5.44
-4.78
-3.76
-2.41
-0.89
0.64
2.00
3.06
3.81
4.28
4.55
4.72
4.83
4.89
4.90
4.85
4.74
4.58
4.38
4.17
3.97
3.79
3.66
3.54
3.39
3.15
2.81
2.39
1.97
1.61
1.31
1.05
0.75
0.40
0.04
-0.28
-0.53
-0.76
-1.06
-1.54
-2.20
-2.95
-3.64
-4.16
-4.49
-4.70
-4.86
-4.98
-4.97
-4.67
-3.99
-2.95
-1.65
-0.24
1.16
2.51
3.81
5.05
6.16
6.99
7.42
7.37
6.88
6.11
5.28
4.58
4.16
4.05
4.15
4.31
4.35
4.18
3.84
3.44
3.11
2.90
2.76
2.57
2.25
1.78
1.23
0.70
0.25
-0.16
-0.64
-1.28
-2.08
-2.99
-3.92
-4.79
-5.58
-6.31
-7.02
-7.71
-8.37
-8.95
-9.36
-9.57
-9.50
-9.12
-8.39
-7.31
-5.94
-4.38
-2.75
-1.19
0.17
1.25
2.05
2.66
3.18
3.74
4.34
4.92
5.39
5.65
5.67
5.47
5.08
4.56
3.96
3.32
2.71
2.19
1.80
1.55
1.43
1.39
1.38
1.37
1.31
1.19
0.97
0.63
0.15
-0.46
-1.16
-1.88
-2.53
-3.01
-3.30
-3.43
-3.53
-3.72
-4.09
-4.64
-5.31
-6.04
-6.79
-7.50
-8.12
-8.50
-8.49
-7.98
-6.96
-5.58
-4.01
-2.45
-1.01
0.28
1.41
2.38
3.13
3.59
3.74
3.64
3.38
3.08
2.81
2.58
2.40
2.23
2.10
2.03
2.05
2.12
2.20
2.22
2.15
2.01
1.88
1.82
1.87
1.97
2.01
1.90
1.59
1.09
0.51
-0.06
-0.59
-1.10
-1.68
-2.37
-3.14
-3.89
-4.50
-4.88
-5.10
-5.31
-5.72
-6.46
-7.52
-8.72
-9.79
-10.46
-10.55
-10.01
-8.93
-7.46
-5.82
-4.16
-2.61
-1.22
-0.02
0.97
1.69
2.07
2.10
1.79
1.26
0.66
0.16
-0.12
-0.13
0.16
0.74
1.60
2.65
3.76
4.75
5.49
5.95
6.22
6.48
6.84
7.33
7.84
8.18
8.18
7.80
7.08
6.18
5.24
4.33
3.48
2.67
1.87
1.10
0.38
-0.29
-0.96
-1.67
-2.44
-3.20
-3.78
-4.00
-3.76
-3.05
-2.00
-0.75
0.61
2.00
3.40
4.73
5.85
6.64
7.05
7.13
7.02
6.85
6.69
6.51
6.24
5.84
5.37
4.93
4.62
4.48
4.44
4.42
4.34
4.15
3.90
3.63
3.40
3.27
3.22
3.18
3.03
2.60
1.83
0.76
-0.41
-1.46
-2.24
-2.76
-3.21
-3.80
-4.64
-5.68
-6.78
-7.80
-8.67
-9.42
-10.01
-10.34
-10.24
-9.58
-8.36
-6.72
-4.85
-2.85
-0.68
1.80
4.60
7.47
9.91
11.28
11.11
9.30
6.17
2.31
-1.59
-4.99
-7.56
-9.14
-9.74
-9.43
-8.33
-6.65
-4.70
-2.82
-1.30
-0.37
-0.05
-0.24
-0.73
-1.29
-1.69
-1.86
-1.80
-1.67
-1.67
-1.95
-2.54
-3.33
-4.15
-4.81
-5.27
-5.58
-5.88
-6.31
-6.91
-7.60
-8.18
-8.46
-8.29
-7.65
-6.64
-5.41
-4.06
-2.66
-1.21
0.31
1.91
3.51
5.03
6.33
7.32
7.92
8.10
7.88
7.34
6.58
5.73
4.91
4.20
3.63
3.21
2.91
2.69
2.52
2.36
2.16
1.89
1.53
1.12
0.67
0.20
-0.31
-0.91
-1.59
-2.31
-2.98
-3.48
-3.77
-3.88
-3.96
-4.16
-4.64
-5.38
-6.27
-7.08
-7.55
-7.52
-6.92
-5.75
-4.09
-2.06
0.18
2.45
4.52
6.18
7.36
8.07
8.47
8.72
8.92
9.04
8.99
8.66
8.03
7.18
6.24
5.36
4.62
4.03
3.55
3.15
2.82
2.56
2.41
2.37
2.38
2.37
2.22
1.84
1.23
0.43
-0.48
-1.39
-2.24
-3.02
-3.71
-4.32
-4.83
-5.26
-5.66
-6.10
-6.59
-7.06
-7.33
-7.20
-6.49
-5.18
-3.41
-1.43
0.52
2.28
3.80
5.13
6.31
7.29
7.99
8.31
8.25
7.92
7.49
7.11
6.85
6.65
6.38
5.99
5.49
5.00
4.60
4.33
4.12
3.88
3.54
3.11
2.65
2.21
1.79
1.34
0.79
0.13
-0.58
-1.26
-1.88
-2.46
-3.06
-3.78
-4.65
-5.63
-6.64
-7.56
-8.29
-8.75
-8.91
-8.75
-8.24
-7.38
-6.17
-4.66
-2.89
-0.96
0.98
2.76
4.21
5.21
5.72
5.82
5.66
5.41
5.21
5.09
5.06
5.04
5.00
4.94
4.86
4.80
4.74
4.65
4.48
4.19
3.76
3.19
2.53
1.83
1.17
0.63
0.20
-0.16
-0.54
-1.05
-1.75
-2.61
-3.53
-4.39
-5.13
-5.71
-6.20
-6.65
-7.12
-7.64
-8.19
-8.73
-9.16
-9.32
-9.07
-8.30
-7.01
-5.31
-3.41
-1.54
0.14
1.56
2.72
3.64
4.33
4.76
4.93
4.87
4.63
4.30
3.94
3.55
3.12
2.64
2.14
1.67
1.32
1.11
1.04
1.02
0.95
0.79
0.52
0.17
-0.20
-0.60
-1.08
-1.69
-2.45
-3.30
-4.06
-4.58
-4.70
-4.47
-4.04
-3.67
-3.63
-4.06
-4.97
-6.20
-7.55
-8.75
-9.59
-9.89
-9.50
-8.37
-6.53
-4.14
-1.51
1.01
3.10
4.57
5.43
5.84
6.07
6.30
6.65
7.08
7.46
7.66
7.63
7.41
7.07
6.70
6.37
6.08
5.84
5.62
5.36
5.00
4.50
3.78
2.85
1.72
0.46
-0.84
-2.11
-3.28
-4.26
-4.97
-5.39
-5.53
-5.52
-5.52
-5.72
-6.24
-7.10
-8.18
-9.24
-9.98
-10.08
-9.28
-7.43
-4.60
-1.06
2.69
6.10
8.71
10.33
11.07
11.20
11.08
10.91
10.70
10.37
9.84
9.12
8.32
7.57
6.94
6.38
5.77
5.05
4.30
3.66
3.30
3.24
3.36
3.44
3.27
2.75
1.95
1.04
0.16
-0.62
-1.33
-2.01
-2.70
-3.33
-3.85
-4.21
-4.48
-4.81
-5.27
-5.92
-6.69
-7.45
-8.11
-8.65
-9.06
-9.35
-9.47
-9.33
-8.76
-7.69
-6.11
-4.12
-1.96
0.15
1.95
3.29
4.10
4.46
4.46
4.23
3.85
3.33
2.70
1.97
1.23
0.59
0.13
-0.13
-0.21
-0.17
-0.03
0.17
0.40
0.60
0.71
0.69
0.51
0.17
-0.36
-1.12
-2.10
-3.25
-4.36
-5.13
-5.31
-4.79
-3.70
-2.33
-1.05
-0.15
0.23
0.09
-0.53
-1.57
-2.93
-4.45
-5.91
-7.06
-7.68
-7.63
-6.90
-5.63
-3.98
-2.18
-0.42
1.13
2.40
3.34
3.93
4.19
4.14
3.83
3.35
2.81
2.34
2.02
1.88
1.84
1.81
1.73
1.61
1.53
1.57
1.77
2.10
2.47
2.78
3.01
3.20
3.43
3.74
4.10
4.40
4.51
4.35
3.91
3.23
2.39
1.42
0.31
-0.96
-2.36
-3.77
-5.07
-6.14
-6.90
-7.29
-7.32
-6.99
-6.31
-5.37
-4.24
-3.05
-1.88
-0.75
0.31
1.30
2.15
2.80
3.19
3.32
3.23
2.99
2.68
2.35
2.08
1.95
2.02
2.28
2.67
3.07
3.34
3.46
3.45
3.36
3.23
3.02
2.66
2.11
1.37
0.56
-0.21
-0.81
-1.19
-1.37
-1.43
-1.45
-1.54
-1.78
-2.22
-2.89
-3.74
-4.68
-5.56
-6.21
-6.46
-6.16
-5.28
-3.87
-2.13
-0.32
1.33
2.70
3.80
4.75
5.68
6.64
7.58
8.33
8.74
8.71
8.31
7.69
7.05
6.52
6.10
5.72
5.25
4.62
3.83
2.93
2.04
1.21
0.47
-0.23
-0.89
-1.52
-2.07
-2.46
-2.65
-2.71
-2.73
-2.87
-3.16
-3.59
-4.05
-4.40
-4.58
-4.59
-4.57
-4.63
-4.90
-5.44
-6.18
-7.03
-7.82
-8.34
-8.43
-8.02
-7.11
-5.82
-4.30
-2.64
-0.92
0.84
2.61
4.35
5.96
7.33
8.32
8.84
8.82
8.26
7.25
5.94
4.56
3.31
2.29
1.50
0.86
0.32
-0.05
-0.12
0.25
1.07
2.20
3.38
4.31
4.82
4.93
4.78
4.61
4.61
4.88
5.44
6.24
7.22
8.24
9.20
9.99
10.58
11.05
11.59
12.42
13.64
15.11
16.40
16.88
15.91
13.20
8.92
3.78
-1.27
-5.35
-7.94
-9.02
-8.98
-8.44
-7.97
-8.02
-8.81
-10.35
-12.45
-14.80
-17.06
-19.02
-20.65
-22.15
-23.81
-25.89
-28.52
-31.61
-34.88
-37.81
-39.69
-39.75
-37.42
-32.60
-25.87
-18.36
-11.33
-5.67
-1.59
1.32
3.79
6.36
9.12
11.78
13.93
15.31
15.92
15.98
15.71
15.26
14.66
13.88
12.96
11.98
11.00
10.07
9.14
8.19
7.24
6.40
5.83
5.68
6.04
6.85
7.94
9.11
10.16
10.97
11.47
11.65
11.45
10.80
9.63
7.95
5.86
3.62
1.53
-0.06
-0.88
-0.76
0.31
2.21
4.62
7.09
9.09
10.20
10.29
9.52
8.39
7.44
7.16
7.75
9.03
10.60
11.89
12.35
11.58
9.48
6.30
2.58
-0.98
-3.75
-5.33
-5.73
-5.29
-4.62
-4.44
-5.39
-7.87
-11.88
-16.98
-22.36
-26.98
-29.94
-30.71
-29.39
-26.52
-22.87
-19.11
-15.60
-12.41
-9.51
-6.91
-4.71
-2.96
-1.60
-0.35
1.09
2.92
5.04
7.11
8.71
9.60
9.87
9.85
10.00
10.57
11.55
12.61
13.30
13.25
12.37
10.88
9.14
7.51
6.15
5.01
3.92
2.77
1.56
0.47
-0.31
-0.70
-0.75
-0.61
-0.46
-0.36
-0.30
-0.17
0.12
0.56
1.06
1.45
1.56
1.40
1.12
1.03
1.44
2.48
4.02
5.66
6.96
7.58
7.50
6.94
6.24
5.61
5.05
4.34
3.19
1.46
-0.77
-3.20
-5.53
-7.55
-9.29
-10.90
-12.51
-14.09
-15.46
-16.38
-16.76
-16.74
-16.63
-16.70
-17.06
-17.53
-17.81
-17.63
-16.95
-15.89
-14.71
-13.63
-12.76
-12.12
-11.61
-11.06
-10.25
-8.95
-7.04
-4.61
-2.02
0.25
1.71
2.17
1.78
0.93
0.15
-0.21
0.01
0.76
1.91
3.34
5.01
6.90
8.96
11.04
12.90
14.30
15.06
15.24
15.08
14.89
14.91
15.16
15.49
15.65
15.51
15.11
14.63
14.31
14.23
14.33
14.41
14.22
13.61
12.58
11.23
9.76
8.33
7.00
5.79
4.63
3.48
2.35
1.30
0.44
-0.22
-0.69
-1.13
-1.67
-2.44
-3.48
-4.73
-6.10
-7.47
-8.78
-9.98
-10.98
-11.70
-12.02
-11.86
-11.21
-10.16
-8.85
-7.43
-5.97
-4.51
-3.07
-1.70
-0.48
0.48
1.14
1.54
1.76
1.89
1.98
2.04
2.02
1.92
1.74
1.47
1.13
0.71
0.25
-0.17
-0.46
-0.57
-0.61
-0.75
-1.19
-2.03
-3.20
-4.53
-5.83
-6.99
-8.00
-8.90
-9.72
-10.39
-10.82
-10.89
-10.61
-10.13
-9.66
-9.42
-9.47
-9.73
-10.00
-10.08
-9.88
-9.46
-8.90
-8.31
-7.67
-6.83
-5.59
-3.82
-1.55
0.97
3.37
5.30
6.57
7.24
7.55
7.83
8.32
9.05
9.85
10.46
10.72
10.62
10.36
10.17
10.17
10.30
10.34
10.08
9.44
8.52
7.53
6.72
6.20
5.88
5.54
4.97
4.04
2.75
1.26
-0.23
-1.61
-2.83
-3.93
-4.98
-5.98
-6.80
-7.30
-7.36
-7.04
-6.61
-6.42
-6.72
-7.42
-8.11
-8.22
-7.33
-5.41
-2.88
-0.45
1.26
1.90
1.55
0.53
-0.74
-1.99
-3.11
-4.13
-5.09
-6.05
-7.03
-8.09
-9.32
-10.82
-12.74
-15.10
-17.77
-20.47
-22.77
-24.24
-24.58
-23.75
-21.96
-19.56
-16.89
-14.07
-11.02
-7.55
-3.60
0.65
4.75
8.22
10.78
12.60
14.18
16.13
18.81
22.09
25.41
28.01
29.34
29.24
27.99
26.04
23.87
21.74
19.80
18.07
16.60
15.48
14.76
14.44
14.44
14.60
14.78
14.84
14.74
14.48
14.08
13.60
13.07
12.50
11.90
11.24
10.52
9.75
8.92
8.05
7.14
6.21
5.33
4.56
3.92
3.40
2.92
2.38
1.75
1.03
0.23
-0.67
-1.72
-3.03
-4.68
-6.63
-8.78
-10.90
-12.81
-14.37
-15.56
-16.41
-17.04
-17.56
-18.04
-18.57
-19.12
-19.65
-20.04
-20.11
-19.69
-18.72
-17.22
-15.36
-13.41
-11.64
-10.25
-9.29
-8.70
-8.31
-8.01
-7.73
-7.52
-7.44
-7.54
-7.77
-7.96
-7.87
-7.19
-5.65
-3.16
0.18
4.01
7.85
11.19
13.70
15.31
16.19
16.61
16.80
16.76
16.36
15.38
13.72
11.42
8.67
5.69
2.66
-0.33
-3.25
-6.11
-8.95
-11.87
-15.01
-18.51
-22.34
-26.19
-29.40
-31.15
-30.78
-28.06
-23.35
-17.46
-11.32
-5.62
-0.68
3.59
7.39
10.91
14.18
17.12
19.67
21.83
23.75
25.58
27.43
29.30
31.09
32.63
33.73
34.14
33.73
32.45
30.45
27.97
25.32
22.73
20.31
18.06
15.97
14.04
12.35
10.93
9.72
8.53
7.12
5.31
3.09
0.62
-1.87
-4.19
-6.24
-7.99
-9.44
-10.52
-11.19
-11.47
-11.50
-11.46
-11.49
-11.57
-11.52
-11.07
-10.06
-8.46
-6.43
-4.21
-2.14
-0.63
-0.03
-0.50
-1.86
-3.53
-4.72
-4.78
-3.57
-1.54
0.44
1.57
1.51
0.51
-0.80
-1.78
-2.12
-1.95
-1.64
-1.56
-1.86
-2.46
-3.15
-3.72
-4.10
-4.37
-4.70
-5.19
-5.90
-6.76
-7.65
-8.45
-9.12
-9.66
-10.08
-10.36
-10.48
-10.38
-10.02
-9.40
-8.53
-7.45
-6.19
-4.80
-3.33
-1.88
-0.57
0.54
1.42
2.09
2.63
3.11
3.59
4.05
4.45
4.75
4.91
4.93
4.87
4.82
4.83
4.88
4.87
4.67
4.18
3.40
2.42
1.43
0.62
0.08
-0.21
-0.40
-0.66
-1.12
-1.83
-2.76
-3.83
-4.98
-6.13
-7.23
-8.17
-8.83
-9.12
-8.97
-8.38
-7.41
-6.16
-4.71
-3.11
-1.39
0.45
2.38
4.29
6.07
7.58
8.71
9.40
9.66
9.59
9.30
8.90
8.47
8.07
7.71
7.37
7.04
6.67
6.17
5.50
4.64
3.64
2.61
1.63
0.76
-0.01
-0.76
-1.54
-2.37
-3.25
-4.15
-5.09
-6.09
-7.20
-8.42
-9.73
-11.09
-12.42
-13.62
-14.54
-15.04
-14.99
-14.31
-12.99
-11.12
-8.87
-6.41
-3.92
-1.53
0.69
2.68
4.42
5.86
6.96
7.67
7.98
7.93
7.56
6.98
6.28
5.58
4.95
4.43
4.01
3.68
3.38
3.07
2.75
2.43
2.17
1.97
1.81
1.59
1.24
0.73
0.09
-0.62
-1.31
-1.99
-2.66
-3.38
-4.14
-4.94
-5.75
-6.61
-7.60
-8.78
-10.07
-11.28
-12.05
-12.08
-11.23
-9.58
-7.37
-4.90
-2.40
0.02
2.32
4.44
6.27
7.70
8.66
9.17
9.36
9.42
9.53
9.76
10.11
10.50
10.78
10.85
10.64
10.20
9.61
8.98
8.39
7.81
7.20
6.48
5.63
4.67
3.65
2.57
1.45
0.26
-0.98
-2.21
-3.36
-4.41
-5.36
-6.29
-7.32
-8.51
-9.87
-11.30
-12.63
-13.63
-14.08
-13.85
-12.89
-11.30
-9.24
-6.94
-4.54
-2.16
0.10
2.17
3.96
5.37
6.38
7.02
7.38
7.57
7.66
7.66
7.59
7.46
7.30
7.17
7.06
6.91
6.63
6.15
5.47
4.65
3.79
2.95
2.14
1.34
0.52
-0.29
-1.01
-1.57
-1.98
-2.32
-2.75
-3.36
-4.19
-5.18
-6.24
-7.33
-8.46
-9.64
-10.79
-11.74
-12.21
-11.98
-10.97
-9.29
-7.23
-5.07
-3.00
-1.04
0.88
2.81
4.73
6.47
7.84
8.72
9.08
9.03
8.76
8.42
8.10
7.84
7.60
7.38
7.16
6.96
6.77
6.55
6.23
5.74
5.07
4.29
3.46
2.65
1.88
1.09
0.24
-0.69
-1.67
-2.67
-3.67
-4.72
-5.91
-7.31
-8.92
-10.60
-12.13
-13.27
-13.79
-13.58
-12.67
-11.16
-9.23
-7.05
-4.77
-2.49
-0.27
1.80
3.63
5.12
6.20
6.88
7.28
7.52
7.71
7.88
7.95
7.79
7.28
6.41
5.30
4.14
3.10
2.24
1.53
0.86
0.06
-0.96
-2.28
-3.87
-5.69
-7.66
-9.67
-11.58
-13.24
-14.57
-15.63
-16.60
-17.72
-19.18
-21.07
-23.33
-25.63
-27.49
-28.45
-28.18
-26.52
-23.54
-19.42
-14.48
-9.02
-3.28
2.65
8.63
14.43
19.88
24.90
29.61
34.10
38.45
42.68
46.93
51.06
54.79
57.78
59.74
60.61
60.33
59.03
57.06
55.04
53.20
51.29
48.73
44.85
39.35
32.13
23.40
12.97
2.27
-6.75
-12.73
-15.72
-17.62
-19.27
-20.80
-22.09
-23.18
-23.29
-22.66
-21.98
-21.96
-22.91
-24.53
-26.25
-27.51
-27.82
-26.90
-25.11
-23.17
-21.83
-21.54
-22.23
-23.53
-24.87
-25.62
-25.16
-23.31
-20.22
-16.28
-11.96
-7.72
-4.14
-1.80
-1.07
-1.98
-4.25
-7.29
-10.42
-13.08
-15.00
-16.24
-17.00
-17.41
-17.36
-16.69
-15.29
-13.31
-11.16
-9.36
-8.34
-8.31
-9.21
-10.91
-13.22
-16.02
-19.06
-21.95
-24.10
-24.90
-23.96
-21.36
-17.64
-13.63
-10.13
-7.69
-6.48
-6.37
-7.08
-8.28
-9.58
-10.51
-10.57
-9.30
-6.51
-2.42
2.41
7.26
11.34
14.14
15.44
15.21
13.66
11.19
8.32
5.56
3.30
1.92
1.84
3.61
7.77
14.59
23.87
34.94
46.76
58.35
68.94
78.20
85.98
92.03
96.03
97.77
97.59
96.23
94.61
93.22
91.77
89.23
84.46
77.50
70.25
66.01
67.44
74.60
83.97
89.49
84.93
65.66
30.18
-19.53
-79.16
-143.69
-207.65
-264.72
-307.45
-328.24
-322.42
-289.87
-235.13
-165.94
-91.66
-21.31
38.59
84.40
114.98
129.30
126.69
107.88
75.74
34.73
-9.89
-52.60
-88.45
-106.86
-101.21
-75.62
-44.06
-19.96
-8.13
-5.34
-5.04
-1.95
5.68
14.88
21.41
23.09
21.24
18.97
18.59
20.86
24.97
29.62
32.85
33.17
30.84
27.50
24.93
23.54
23.11
23.07
22.96
22.05
19.81
16.21
11.14
5.23
-2.02
-10.67
-20.26
-29.80
-38.60
-46.06
-51.95
-56.33
-59.60
-63.23
-68.17
-75.38
-85.44
-97.96
-110.41
-118.28
-116.11
-96.80
-62.90
-21.19
19.25
50.38
67.98
73.02
70.12
64.98
61.44
60.06
60.38
61.41
63.23
65.25
67.55
70.27
73.87
78.32
82.71
86.72
89.64
90.67
89.08
85.37
78.94
72.22
66.37
60.76
54.93
49.05
44.39
41.75
41.07
40.02
34.80
22.38
1.06
-26.99
-57.10
-84.15
-106.04
-123.37
-138.73
-153.45
-166.02
-171.65
-163.94
-138.92
-94.41
-40.28
8.85
39.64
45.90
30.99
6.43
-12.86
-17.71
-5.08
20.68
51.16
77.07
91.15
89.23
70.03
34.64
-14.34
-71.34
-128.17
-174.34
-199.51
-196.37
-163.00
-103.46
-24.77
58.51
130.77
179.45
199.11
192.48
168.67
139.30
114.24
98.42
90.73
86.98
82.31
73.90
61.95
48.81
37.24
28.91
23.45
18.55
11.69
0.95
-14.25
-32.60
-51.50
-67.90
-79.44
-85.56
-87.87
-88.93
-90.93
-94.47
-98.09
-99.13
-95.18
-85.48
-71.41
-55.83
-41.46
-30.37
-24.15
-24.83
-35.00
-56.48
-87.97
-123.43
-152.95
-166.39
-158.23
-130.57
-91.96
-52.67
-19.12
8.60
34.59
61.76
87.08
101.54
95.20
64.16
15.26
-35.10
-67.48
-67.99
-34.09
24.92
92.75
153.00
194.59
213.73
212.79
196.98
171.45
139.62
103.34
64.33
25.47
-8.71
-32.80
-42.24
-35.35
-14.34
15.46
47.49
76.35
99.15
115.56
126.62
133.34
135.89
133.78
126.70
115.29
101.15
86.43
73.04
62.25
54.59
50.28
49.56
52.67
59.42
68.61
77.93
84.32
84.84
77.60
62.45
41.02
16.20
-8.79
-31.10
-48.78
-61.09
-68.52
-72.60
-75.56
-79.57
-86.21
-96.08
-108.87
-123.68
-139.37
-154.71
-168.35
-178.74
-184.34
-184.09
-177.80
-166.36
-151.34
-134.51
-117.28
-100.52
-84.81
-70.81
-59.47
-51.75
-48.09
-47.99
-50.03
-52.32
-53.15
-51.56
-47.49
-41.59
-34.83
-28.17
-22.35
-17.87
-14.95
-13.62
-13.68
-14.67
-15.86
-16.46
-15.74
-13.34
-9.25
-3.84
2.33
8.70
14.80
20.26
24.68
27.68
28.96
28.46
26.56
24.01
21.71
20.42
20.50
21.86
24.07
26.60
29.00
30.92
32.19
32.74
32.52
31.54
29.79
27.33
24.31
21.03
17.98
15.75
14.89
15.66
17.97
21.33
25.14
28.81
31.98
34.39
35.80
35.91
34.42
31.27
26.75
21.55
16.50
12.32
9.36
7.58
6.71
6.42
6.48
6.81
7.33
7.91
8.35
8.46
8.18
7.64
7.04
6.59
6.32
6.09
5.70
4.97
3.90
2.69
1.57
0.72
0.13
-0.36
-0.97
-1.91
-3.22
-4.89
-6.84
-9.00
-11.29
-13.59
-15.68
-17.25
-17.94
-17.50
-15.87
-13.22
-9.97
-6.67
-3.85
-1.86
-0.88
-0.83
-1.51
-2.60
-3.81
-4.89
-5.61
-5.85
-5.55
-4.75
-3.59
-2.29
-1.09
-0.15
0.52
0.95
1.30
1.68
2.09
2.39
2.37
1.91
1.00
-0.07
-0.87
-0.94
-0.04
1.75
4.06
6.38
8.29
9.61
10.38
10.74
10.84
10.72
10.42
10.00
9.59
9.29
9.12
8.92
8.40
7.31
5.57
3.32
0.88
-1.48
-3.57
-5.35
-6.80
-7.85
-8.32
-7.97
-6.65
-4.33
-1.19
2.50
6.46
10.45
14.32
17.92
21.16
23.93
26.20
27.98
29.30
30.18
30.60
30.49
29.82
28.64
27.08
25.37
23.67
22.10
20.66
19.24
17.72
16.00
14.03
11.86
9.65
7.56
5.74
4.25
3.03
1.94
0.87
-0.25
-1.34
-2.27
-2.98
-3.48
-3.95
-4.58
-5.54
-6.90
-8.59
-10.41
-12.05
-13.18
-13.42
-12.51
-10.36
-7.19
-3.49
0.08
2.88
4.48
4.80
4.09
2.80
1.40
0.24
-0.50
-0.79
-0.65
-0.09
0.85
2.08
3.39
4.48
5.07
4.99
4.22
2.96
1.42
-0.16
-1.65
-2.98
-4.17
-5.26
-6.37
-7.58
-8.98
-10.60
-12.38
-14.13
-15.63
-16.60
-16.87
-16.37
-15.15
-13.41
-11.41
-9.36
-7.41
-5.54
-3.67
-1.69
0.43
2.63
4.83
6.93
8.91
10.73
12.32
13.54
14.22
14.24
13.69
12.79
11.90
11.28
11.01
11.00
11.05
10.98
10.72
10.32
9.85
9.41
9.04
8.73
8.45
8.12
7.65
6.95
5.97
4.71
3.30
1.87
0.51
-0.78
-2.12
-3.65
-5.46
-7.53
-9.70
-11.78
-13.65
-15.30
-16.87
-18.58
-20.63
-23.09
-25.78
-28.32
-30.15
-30.70
-29.49
-26.29
-21.11
-14.28
-6.35
1.93
9.74
16.40
21.48
24.97
27.16
28.54
29.53
30.33
30.94
31.28
31.35
31.27
31.26
31.37
31.48
31.18
30.01
27.62
23.96
19.31
14.21
9.30
5.13
2.05
0.12
-0.83
-1.10
-1.02
-0.81
-0.60
-0.39
-0.25
-0.31
-0.73
-1.70
-3.27
-5.38
-7.82
-10.36
-12.75
-14.79
-16.31
-17.21
-17.41
-16.92
-15.83
-14.27
-12.44
-10.53
-8.70
-7.07
-5.69
-4.57
-3.63
-2.78
-2.00
-1.39
-1.15
-1.34
-1.82
-2.18
-1.94
-0.83
1.05
3.18
4.88
5.68
5.47
4.52
3.25
1.96
0.71
-0.62
-2.16
-3.86
-5.56
-7.09
-8.44
-9.72
-11.17
-13.00
-15.22
-17.67
-20.03
-21.94
-23.08
-23.28
-22.47
-20.67
-18.02
-14.69
-10.91
-6.99
-3.24
0.06
2.78
4.91
6.58
7.94
9.10
10.02
10.59
10.67
10.17
9.11
7.59
5.77
3.82
1.90
0.18
-1.19
-2.10
-2.50
-2.46
-2.13
-1.72
-1.42
-1.35
-1.58
-2.08
-2.75
-3.38
-3.75
-3.70
-3.15
-2.13
-0.78
0.73
2.27
3.68
4.78
5.37
5.26
4.39
2.92
1.23
-0.20
-0.89
-0.58
0.76
2.90
5.47
8.00
10.05
11.28
11.55
10.96
9.86
8.76
8.19
8.46
9.61
11.36
13.24
14.78
15.65
15.66
14.82
13.27
11.21
8.98
6.93
5.41
4.64
4.59
4.97
5.36
5.39
4.92
4.05
3.00
1.99
1.02
-0.05
-1.40
-3.11
-5.09
-7.17
-9.26
-11.41
-13.82
-16.62
-19.63
-22.20
-23.37
-22.21
-18.20
-11.50
-2.96
6.16
14.56
21.20
25.47
27.22
26.63
24.13
20.29
15.70
10.96
6.57
2.90
0.13
-1.77
-2.95
-3.73
-4.38
-5.10
-5.88
-6.57
-6.98
-7.07
-6.97
-6.96
-7.33
-8.20
-9.46
-10.89
-12.22
-13.31
-14.16
-14.84
-15.47
-16.12
-16.81
-17.49
-18.04
-18.36
-18.34
-17.94
-17.19
-16.09
-14.64
-12.80
-10.53
-7.87
-4.96
-1.97
0.90
3.53
5.88
7.93
9.66
10.98
11.81
12.15
12.12
11.89
11.64
11.38
11.02
10.40
9.44
8.17
6.79
5.51
4.46
3.61
2.87
2.08
1.20
0.27
-0.67
-1.54
-2.36
-3.16
-3.93
-4.63
-5.20
-5.63
-6.00
-6.43
-7.04
-7.83
-8.68
-9.36
-9.67
-9.45
-8.65
-7.33
-5.57
-3.52
-1.36
0.65
2.26
3.29
3.73
3.72
3.51
3.30
3.19
3.14
3.04
2.85
2.58
2.23
1.74
1.01
0.04
-0.96
-1.60
-1.39
-0.08
2.17
4.79
7.03
8.36
8.65
8.22
7.61
7.25
7.31
7.63
7.93
7.91
7.39
6.31
4.70
2.66
0.41
-1.74
-3.37
-4.12
-3.75
-2.30
-0.08
2.41
4.63
6.17
6.87
6.80
6.26
5.58
5.04
4.75
4.68
4.64
4.45
4.04
3.43
2.74
2.10
1.59
1.25
1.09
1.09
1.26
1.59
1.98
2.29
2.34
1.99
1.22
0.16
-0.96
-1.92
-2.57
-2.92
-3.11
-3.33
-3.80
-4.61
-5.76
-7.09
-8.38
-9.39
-9.93
-9.95
-9.49
-8.70
-7.76
-6.78
-5.84
-4.94
-4.11
-3.39
-2.86
-2.63
-2.74
-3.17
-3.82
-4.53
-5.10
-5.34
-5.10
-4.36
-3.21
-1.88
-0.67
0.17
0.50
0.36
-0.03
-0.44
-0.65
-0.62
-0.43
-0.25
-0.30
-0.73
-1.68
-3.20
-5.26
-7.70
-10.23
-12.50
-14.14
-14.95
-14.91
-14.11
-12.74
-10.93
-8.74
-6.23
-3.53
-0.85
1.49
3.23
4.29
4.76
4.92
5.11
5.54
6.29
7.27
8.26
9.10
9.63
9.80
9.61
9.13
8.45
7.70
7.02
6.51
6.22
6.02
5.72
5.10
4.06
2.66
1.14
-0.23
-1.29
-2.05
-2.68
-3.38
-4.29
-5.39
-6.57
-7.70
-8.62
-9.26
-9.54
-9.37
-8.66
-7.39
-5.63
-3.56
-1.39
0.63
2.34
3.64
4.53
5.03
5.23
5.20
5.00
4.68
4.27
3.78
3.27
2.80
2.44
2.21
2.09
2.00
1.88
1.69
1.47
1.22
0.97
0.69
0.35
-0.06
-0.52
-0.98
-1.41
-1.80
-2.19
-2.63
-3.16
-3.81
-4.58
-5.47
-6.44
-7.38
-8.16
-8.59
-8.52
-7.88
-6.66
-5.00
-3.09
-1.13
0.69
2.27
3.57
4.66
5.56
6.23
6.55
6.40
5.75
4.70
3.53
2.52
1.88
1.66
1.74
1.94
2.06
1.97
1.62
1.04
0.34
-0.30
-0.73
-0.89
-0.84
-0.77
-0.89
-1.35
-2.10
-2.95
-3.67
-4.11
-4.27
-4.29
-4.34
-4.57
-4.98
-5.56
-6.25
-7.02
-7.84
-8.64
-9.26
-9.51
-9.22
-8.32
-6.90
-5.14
-3.22
-1.30
0.54
2.23
3.70
4.85
5.55
5.72
5.35
4.55
3.52
2.54
1.84
1.54
1.60
1.86
2.09
2.17
2.10
1.96
1.85
1.76
1.55
1.08
0.34
-0.53
-1.26
-1.68
-1.86
-2.05
-2.58
-3.62
-5.08
-6.64
-7.96
-8.89
-9.53
-10.12
-10.90
-11.93
-13.10
-14.22
-15.10
-15.64
-15.72
-15.24
-14.02
-11.94
-9.04
-5.55
-1.87
1.62
4.67
7.25
9.49
11.56
13.51
15.26
16.61
17.38
17.50
17.07
16.32
15.48
14.71
14.02
13.34
12.52
11.51
10.33
9.10
8.00
7.12
6.47
5.92
5.33
4.57
3.64
2.62
1.65
0.80
0.05
-0.66
-1.39
-2.15
-2.89
-3.57
-4.18
-4.79
-5.51
-6.35
-7.24
-7.97
-8.31
-8.07
-7.20
-5.78
-3.99
-2.06
-0.18
1.54
3.05
4.35
5.46
6.38
7.10
7.58
7.81
7.80
7.62
7.35
7.07
6.88
6.82
6.93
7.18
7.54
7.91
8.20
8.34
8.31
8.13
7.86
7.50
6.99
6.23
5.15
3.72
2.07
0.39
-1.08
-2.19
-2.93
-3.49
-4.13
-5.10
-6.48
-8.19
-10.02
-11.75
-13.26
-14.54
-15.62
-16.47
-16.91
-16.67
-15.51
-13.38
-10.53
-7.44
-4.63
-2.48
-1.12
-0.40
-0.01
0.36
0.92
1.67
2.50
3.25
3.80
4.16
4.41
4.71
5.16
5.78
6.45
6.99
7.23
7.02
6.33
5.17
3.59
1.65
-0.54
-2.78
-4.82
-6.45
-7.56
-8.21
-8.61
-8.97
-9.41
-9.92
-10.37
-10.71
-11.00
-11.46
-12.28
-13.54
-15.08
-16.56
-17.62
-17.97
-17.52
-16.36
-14.74
-12.90
-11.07
-9.43
-8.04
-6.91
-6.02
-5.32
-4.82
-4.52
-4.49
-4.75
-5.22
-5.76
-6.16
-6.26
-6.00
-5.43
-4.65
-3.76
-2.75
-1.59
-0.20
1.42
3.18
5.00
6.79
8.50
10.09
11.50
12.65
13.48
13.97
14.18
14.17
13.96
13.48
12.62
11.32
9.61
7.65
5.66
3.87
2.48
1.64
1.46
1.92
2.90
4.17
5.49
6.69
7.70
8.53
9.22
9.76
10.13
10.33
10.48
10.74
11.21
11.76
12.10
11.87
10.84
9.10
6.96
4.83
3.01
1.57
0.40
-0.62
-1.57
-2.40
-3.00
-3.34
-3.47
-3.52
-3.65
-3.90
-4.25
-4.61
-4.95
-5.28
-5.63
-6.08
-6.63
-7.21
-7.67
-7.84
-7.60
-6.98
-6.17
-5.45
-5.09
-5.19
-5.58
-5.83
-5.43
-4.01
-1.52
1.67
4.91
7.53
9.06
9.43
8.87
7.79
6.55
5.37
4.27
3.20
2.13
1.11
0.24
-0.39
-0.77
-1.01
-1.24
-1.53
-1.89
-2.21
-2.37
-2.28
-1.92
-1.40
-0.85
-0.45
-0.33
-0.53
-1.04
-1.79
-2.69
-3.65
-4.58
-5.33
-5.75
-5.71
-5.17
-4.20
-2.94
-1.54
-0.10
1.30
2.61
3.79
4.78
5.56
6.17
6.65
7.01
7.19
7.04
6.49
5.54
4.38
3.27
2.45
2.01
1.91
1.95
1.94
1.75
1.33
0.67
-0.17
-1.12
-2.10
-3.01
-3.82
-4.49
-5.08
-5.64
-6.29
-7.11
-8.12
-9.32
-10.65
-12.06
-13.50
-14.91
-16.19
-17.25
-17.93
-18.13
-17.76
-16.85
-15.47
-13.73
-11.76
-9.71
-7.67
-5.74
-3.96
-2.27
-0.53
1.42
3.74
6.46
9.46
12.54
15.44
17.96
19.95
21.31
21.97
21.88
21.08
19.71
18.01
16.25
14.62
13.21
11.96
10.75
9.48
8.18
6.94
5.86
4.98
4.20
3.36
2.27
0.89
-0.75
-2.48
-4.09
-5.41
-6.31
-6.75
-6.71
-6.17
-5.11
-3.57
-1.67
0.36
2.26
3.85
5.09
6.04
6.82
7.50
8.01
8.22
7.99
7.32
6.34
5.29
4.40
3.75
3.30
2.92
2.49
2.01
1.51
1.08
0.71
0.37
-0.02
-0.46
-0.87
-1.16
-1.28
-1.31
-1.42
-1.80
-2.54
-3.58
-4.77
-5.95
-7.08
-8.21
-9.48
-10.94
-12.52
-14.00
-15.08
-15.46
-14.99
-13.65
-11.64
-9.28
-6.90
-4.72
-2.84
-1.19
0.38
1.94
3.50
4.95
6.15
6.98
7.43
7.54
7.41
7.16
6.88
6.59
6.29
5.89
5.33
4.61
3.79
3.01
2.35
1.86
1.43
0.91
0.19
-0.76
-1.84
-2.83
-3.52
-3.80
-3.62
-3.08
-2.30
-1.43
-0.61
0.03
0.37
0.36
0.01
-0.56
-1.13
-1.41
-1.22
-0.46
0.75
2.18
3.62
4.93
6.12
7.23
8.20
8.89
9.08
8.64
7.61
6.25
4.88
3.72
2.77
1.82
0.61
-1.03
-3.03
-5.10
-6.90
-8.10
-8.54
-8.26
-7.48
-6.52
-5.68
-5.15
-4.97
-5.02
-5.13
-5.21
-5.28
-5.46
-5.86
-6.53
-7.33
-8.14
-8.84
-9.46
-10.08
-10.72
-11.23
-11.35
-10.76
-9.30
-7.08
-4.41
-1.72
0.67
2.64
4.25
5.65
6.91
8.00
8.79
9.15
9.10
8.75
8.32
7.96
7.72
7.50
7.15
6.55
5.72
4.75
3.80
2.95
2.16
1.30
0.31
-0.81
-2.01
-3.21
-4.40
-5.64
-6.96
-8.36
-9.71
-10.90
-11.90
-12.74
-13.56
-14.44
-15.39
-16.29
-17.04
-17.61
-18.05
-18.40
-18.55
-18.24
-17.07
-14.77
-11.33
-7.04
-2.37
2.19
6.31
9.83
12.71
14.93
16.47
17.34
17.62
17.45
17.03
16.47
15.80
14.95
13.94
12.85
11.87
11.19
10.84
10.63
10.27
9.46
8.07
6.16
3.95
1.68
-0.51
-2.54
-4.30
-5.65
-6.40
-6.41
-5.74
-4.63
-3.51
-2.79
-2.69
-3.21
-4.17
-5.31
-6.43
-7.45
-8.32
-8.94
-9.16
-8.80
-7.80
-6.26
-4.45
-2.66
-1.10
0.22
1.41
2.67
4.11
5.74
7.42
8.96
10.11
10.73
10.74
10.21
9.32
8.31
7.35
6.49
5.66
4.76
3.73
2.71
1.91
1.50
1.54
1.87
2.27
2.51
2.55
2.55
2.73
3.18
3.84
4.37
4.39
3.65
2.16
0.24
-1.68
-3.22
-4.26
-4.94
-5.55
-6.33
-7.29
-8.23
-8.79
-8.69
-7.80
-6.22
-4.20
-2.03
0.07
1.92
3.46
4.68
5.59
6.23
6.61
6.74
6.62
6.24
5.62
4.86
4.06
3.33
2.72
2.23
1.80
1.41
1.11
0.99
1.15
1.59
2.17
2.70
2.97
2.88
2.45
1.84
1.28
0.99
1.10
1.61
2.42
3.32
4.04
4.38
4.16
3.36
2.05
0.46
-1.11
-2.31
-2.86
-2.64
-1.74
-0.49
0.65
1.26
1.10
0.19
-1.29
-3.11
-5.10
-7.24
-9.58
-12.15
-14.80
-17.23
-19.08
-20.03
-20.03
-19.26
-18.05
-16.70
-15.43
-14.26
-13.12
-11.94
-10.69
-9.38
-8.03
-6.63
-5.21
-3.85
-2.60
-1.42
-0.10
1.59
3.75
6.14
8.23
9.40
9.31
8.16
6.56
5.23
4.59
4.61
4.87
4.95
4.68
4.26
4.06
4.33
5.12
6.21
7.31
8.17
8.66
8.79
8.62
8.29
7.87
7.43
6.95
6.36
5.62
4.75
3.90
3.24
2.92
2.97
3.27
3.63
3.87
3.89
3.67
3.26
2.74
2.19
1.68
1.29
1.05
0.96
0.93
0.83
0.55
0.05
-0.66
-1.53
-2.51
-3.54
-4.60
-5.66
-6.66
-7.54
-8.23
-8.64
-8.71
-8.40
-7.70
-6.61
-5.18
-3.48
-1.61
0.30
2.11
3.67
4.88
5.67
6.06
6.10
5.88
5.48
4.98
4.45
4.00
3.70
3.61
3.71
3.89
3.99
3.89
3.53
2.96
2.29
1.65
1.11
0.67
0.33
0.06
-0.20
-0.51
-0.91
-1.45
-2.09
-2.74
-3.28
-3.65
-3.92
-4.20
-4.67
-5.41
-6.37
-7.37
-8.19
-8.64
-8.66
-8.31
-7.71
-6.98
-6.16
-5.19
-3.96
-2.40
-0.57
1.32
2.98
4.12
4.57
4.28
3.36
1.97
0.30
-1.49
-3.29
-5.03
-6.73
-8.49
-10.54
-13.21
-16.71
-20.96
-25.34
-28.82
-30.27
-28.98
-24.97
-19.02
-12.31
-5.93
-0.51
3.85
7.33
10.08
12.07
13.09
12.98
11.80
9.83
7.58
5.55
4.13
3.52
3.68
4.39
5.42
6.61
8.09
10.10
12.88
16.42
20.28
23.77
26.16
27.00
26.29
24.44
22.05
19.65
17.46
15.43
13.27
10.71
7.65
4.31
1.10
-1.57
-3.41
-4.45
-4.90
-5.05
-5.07
-5.00
-4.75
-4.25
-3.53
-2.73
-2.03
-1.60
-1.49
-1.67
-2.02
-2.41
-2.76
-3.06
-3.37
-3.75
-4.24
-4.84
-5.50
-6.14
-6.74
-7.26
-7.70
-8.00
-8.04
-7.69
-6.85
-5.53
-3.83
-1.97
-0.11
1.61
3.14
4.49
5.65
6.55
7.13
7.36
7.27
6.95
6.48
5.91
5.30
4.67
4.12
3.76
3.65
3.74
3.89
3.87
3.54
2.90
2.11
1.37
0.83
0.47
0.15
-0.32
-1.06
-2.03
-3.07
-3.97
-4.58
-4.86
-4.94
-5.01
-5.25
-5.72
-6.39
-7.16
-7.94
-8.70
-9.47
-10.19
-10.76
-10.95
-10.55
-9.44
-7.68
-5.51
-3.26
-1.16
0.64
2.12
3.33
4.30
5.00
5.41
5.50
5.31
4.93
4.45
3.99
3.64
3.43
3.37
3.44
3.57
3.65
3.59
3.30
2.81
2.20
1.61
1.17
0.90
0.75
0.58
0.28
-0.20
-0.79
-1.36
-1.79
-2.10
-2.40
-2.89
-3.68
-4.76
-6.00
-7.26
-8.44
-9.53
-10.52
-11.38
-11.96
-12.10
-11.65
-10.62
-9.18
-7.64
-6.27
-5.24
-4.61
-4.29
-4.22
-4.34
-4.66
-5.24
-6.11
-7.31
-8.79
-10.49
-12.29
-14.06
-15.64
-16.94
-17.94
-18.70
-19.32
-19.88
-20.30
-20.34
-19.60
-17.74
-14.61
-10.48
-5.95
-1.71
1.85
4.82
7.70
11.01
14.83
18.68
21.77
23.45
23.60
22.67
21.35
20.12
19.03
17.87
16.50
15.08
14.02
13.69
14.16
15.10
16.04
16.63
16.83
16.75
16.46
15.86
14.72
12.89
10.45
7.67
4.93
2.46
0.27
-1.79
-3.96
-6.42
-9.33
-12.74
-16.57
-20.48
-23.80
-25.59
-24.91
-21.19
-14.49
-5.61
4.19
13.53
21.21
26.41
28.71
28.13
25.19
20.92
16.66
13.69
12.84
14.11
16.73
19.55
21.46
21.81
20.47
17.70
13.91
9.50
4.80
0.15
-4.11
-7.64
-10.17
-11.51
-11.55
-10.18
-7.36
-3.20
1.88
7.08
11.32
13.59
13.28
10.41
5.57
-0.40
-6.73
-12.88
-18.45
-23.11
-26.56
-28.61
-29.36
-29.21
-28.71
-28.27
-27.98
-27.59
-26.82
-25.61
-24.15
-22.74
-21.40
-19.73
-17.09
-12.97
-7.38
-0.95
5.45
11.14
16.09
20.90
26.45
33.30
41.28
49.45
56.56
61.56
64.01
64.05
62.06
58.28
52.66
45.11
35.76
25.24
14.57
4.86
-3.04
-8.72
-12.16
-13.56
-13.22
-11.54
-9.09
-6.62
-4.97
-4.86
-6.59
-9.99
-14.38
-18.84
-22.47
-24.70
-25.37
-24.72
-23.23
-21.41
-19.53
-17.64
-15.62
-13.35
-10.85
-8.34
-6.11
-4.41
-3.36
-2.88
-2.75
-2.76
-2.75
-2.69
-2.70
-2.95
-3.57
-4.55
-5.69
-6.69
-7.29
-7.41
-7.25
-7.15
-7.45
-8.26
-9.38
-10.36
-10.75
-10.26
-8.91
-6.98
-4.86
-2.87
-1.11
0.44
1.88
3.24
4.41
5.24
5.61
5.56
5.23
4.86
4.61
4.52
4.50
4.44
4.24
3.90
3.51
3.19
3.02
3.00
3.10
3.20
3.23
3.13
2.86
2.44
1.93
1.42
0.99
0.68
0.45
0.22
-0.16
-0.77
-1.61
-2.58
-3.53
-4.31
-4.88
-5.22
-5.43
-5.58
-5.76
-6.02
-6.42
-6.98
-7.63
-8.18
-8.35
-7.87
-6.65
-4.81
-2.68
-0.64
1.02
2.21
2.96
3.40
3.60
3.62
3.49
3.29
3.09
2.95
2.90
2.87
2.85
2.82
2.76
2.68
2.54
2.29
1.91
1.44
0.94
0.48
0.06
-0.35
-0.80
-1.27
-1.72
-2.04
-2.16
-2.11
-1.98
-1.92
-2.06
-2.47
-3.14
-3.90
-4.55
-4.92
-4.94
-4.70
-4.43
-4.41
-4.86
-5.81
-7.11
-8.42
-9.34
-9.55
-8.91
-7.46
-5.43
-3.13
-0.90
1.02
2.49
3.51
4.15
4.55
4.83
5.06
5.27
5.42
5.47
5.41
5.25
5.07
4.93
4.82
4.75
4.69
4.64
4.64
4.69
4.77
4.79
4.68
4.36
3.87
3.34
2.89
2.59
2.40
2.18
1.76
1.07
0.19
-0.69
-1.33
-1.60
-1.49
-1.12
-0.70
-0.45
-0.55
-1.12
-2.17
-3.59
-5.13
-6.47
-7.26
-7.31
-6.56
-5.16
-3.34
-1.38
0.48
2.07
3.28
4.05
4.42
4.47
4.34
4.16
4.00
3.85
3.65
3.35
2.97
2.60
2.37
2.37
2.65
3.14
3.66
4.03
4.11
3.84
3.31
2.64
1.93
1.25
0.57
-0.12
-0.79
-1.38
-1.82
-2.11
-2.34
-2.63
-3.14
-3.88
-4.79
-5.71
-6.47
-7.03
-7.46
-7.89
-8.43
-9.04
-9.56
-9.69
-9.18
-7.91
-5.98
-3.70
-1.42
0.55
2.08
3.16
3.90
4.40
4.74
4.96
5.10
5.17
5.22
5.23
5.22
5.14
4.97
4.65
4.20
3.65
3.12
2.73
2.56
2.62
2.81
2.99
3.00
2.78
2.35
1.77
1.12
0.42
-0.33
-1.13
-1.95
-2.71
-3.34
-3.79
-4.08
-4.29
-4.53
-4.89
-5.39
-6.05
-6.82
-7.64
-8.47
-9.20
-9.72
-9.86
-9.46
-8.48
-6.97
-5.15
-3.28
-1.58
-0.20
0.87
1.70
2.36
2.90
3.29
3.52
3.57
3.50
3.36
3.23
3.20
3.28
3.45
3.62
3.71
3.62
3.31
2.84
2.29
1.79
1.38
1.06
0.77
0.44
0.05
-0.38
-0.81
-1.18
-1.47
-1.71
-1.92
-2.13
-2.36
-2.60
-2.81
-2.99
-3.17
-3.45
-3.98
-4.84
-6.01
-7.33
-8.50
-9.21
-9.22
-8.40
-6.77
-4.46
-1.71
1.20
3.96
6.31
8.07
9.24
9.92
10.28
10.42
10.37
10.09
9.54
8.79
7.99
7.30
6.81
6.50
6.29
6.04
5.70
5.25
4.78
4.35
4.01
3.76
3.56
3.31
2.96
2.46
1.87
1.26
0.74
0.35
0.05
-0.27
-0.72
-1.37
-2.15
-2.94
-3.64
-4.20
-4.67
-5.18
-5.85
-6.76
-7.83
-8.90
-9.72
-10.01
-9.59
-8.37
-6.47
-4.13
-1.69
0.54
2.32
3.57
4.34
4.74
4.90
4.89
4.80
4.68
4.62
4.66
4.83
5.09
5.33
5.41
5.27
4.89
4.36
3.83
3.37
3.02
2.77
2.56
2.34
2.11
1.83
1.50
1.10
0.62
0.10
-0.43
-0.90
-1.30
-1.64
-1.98
-2.36
-2.82
-3.33
-3.87
-4.41
-4.96
-5.51
-6.06
-6.62
-7.21
-7.84
-8.48
-9.04
-9.34
-9.19
-8.41
-7.01
-5.14
-3.06
-1.06
0.67
2.06
3.14
3.96
4.57
4.95
5.12
5.09
4.94
4.73
4.52
4.36
4.28
4.27
4.27
4.20
3.94
3.44
2.73
1.96
1.32
0.95
0.84
0.90
0.93
0.80
0.46
-0.03
-0.55
-1.01
-1.37
-1.66
-1.97
-2.36
-2.84
-3.37
-3.88
-4.33
-4.73
-5.12
-5.58
-6.18
-6.92
-7.73
-8.48
-8.99
-9.09
-8.69
-7.78
-6.45
-4.83
-3.05
-1.21
0.60
2.31
3.80
4.97
5.73
6.08
6.10
5.95
5.77
5.62
5.52
5.42
5.32
5.23
5.21
5.26
5.35
5.40
5.34
5.14
4.83
4.47
4.08
3.64
3.12
2.54
1.94
1.41
0.99
0.65
0.31
-0.09
-0.55
-1.02
-1.39
-1.62
-1.75
-1.89
-2.18
-2.72
-3.52
-4.56
-5.77
-7.04
-8.25
-9.23
-9.79
-9.74
-9.02
-7.67
-5.86
-3.80
-1.72
0.17
1.79
3.11
4.15
4.98
5.65
6.18
6.52
6.59
6.34
5.79
5.05
4.31
3.76
3.52
3.58
3.84
4.13
4.33
4.41
4.38
4.30
4.14
3.88
3.47
2.92
2.27
1.62
1.02
0.50
0.03
-0.43
-0.90
-1.38
-1.90
-2.45
-3.04
-3.63
-4.19
-4.66
-5.06
-5.47
-6.02
-6.85
-8.01
-9.42
-10.87
-12.04
-12.64
-12.42
-11.34
-9.52
-7.23
-4.77
-2.43
-0.36
1.39
2.82
3.96
4.82
5.43
5.80
6.02
6.13
6.19
6.20
6.11
5.90
5.60
5.28
5.08
5.11
5.41
5.89
6.45
6.93
7.22
7.29
7.10
6.64
5.89
4.85
3.57
2.24
1.04
0.19
-0.24
-0.33
-0.24
-0.19
-0.32
-0.69
-1.26
-2.00
-2.86
-3.79
-4.71
-5.55
-6.27
-6.89
-7.47
-8.09
-8.71
-9.15
-9.15
-8.52
-7.19
-5.30
-3.13
-0.94
1.12
3.01
4.77
6.37
7.70
8.62
8.99
8.82
8.26
7.56
6.93
6.50
6.24
6.08
5.89
5.62
5.25
4.84
4.47
4.17
3.94
3.71
3.41
2.98
2.40
1.70
0.93
0.17
-0.54
-1.19
-1.79
-2.35
-2.92
-3.53
-4.22
-5.02
-5.87
-6.67
-7.29
-7.60
-7.59
-7.34
-7.05
-6.93
-7.16
-7.81
-8.82
-10.02
-11.16
-11.97
-12.19
-11.68
-10.37
-8.40
-5.97
-3.41
-1.02
0.95
2.38
3.28
3.74
3.94
4.04
4.17
4.38
4.64
4.90
5.12
5.23
5.21
5.09
4.90
4.70
4.53
4.43
4.39
4.40
4.43
4.45
4.42
4.30
4.05
3.63
3.05
2.31
1.47
0.56
-0.37
-1.27
-2.09
-2.78
-3.27
-3.59
-3.78
-3.95
-4.24
-4.75
-5.53
-6.57
-7.79
-9.05
-10.14
-10.83
-10.85
-10.07
-8.48
-6.27
-3.76
-1.31
0.78
2.39
3.47
4.10
4.35
4.27
3.93
3.40
2.85
2.46
2.45
2.90
3.80
4.95
6.12
7.07
7.67
7.91
7.87
7.65
7.32
6.93
6.49
6.10
5.83
5.76
5.88
6.08
6.19
6.03
5.56
4.84
4.01
3.23
2.57
2.05
1.59
1.13
0.61
0.00
-0.69
-1.45
-2.28
-3.12
-3.93
-4.61
-5.11
-5.40
-5.52
-5.57
-5.64
-5.83
-6.19
-6.74
-7.38
-8.00
-8.39
-8.35
-7.77
-6.63
-5.05
-3.21
-1.31
0.52
2.23
3.77
5.11
6.18
6.90
7.25
7.25
6.97
6.52
5.97
5.41
4.92
4.55
4.33
4.24
4.21
4.16
4.07
3.92
3.75
3.53
3.23
2.79
2.18
1.45
0.69
-0.01
-0.56
-0.98
-1.32
-1.67
-2.09
-2.58
-3.10
-3.57
-3.97
-4.30
-4.61
-4.95
-5.37
-5.89
-6.54
-7.37
-8.36
-9.46
-10.50
-11.19
-11.24
-10.46
-8.86
-6.68
-4.30
-2.09
-0.28
1.12
2.21
3.14
4.02
4.84
5.51
5.95
6.10
6.01
5.74
5.41
5.12
4.91
4.76
4.62
4.42
4.08
3.64
3.16
2.76
2.51
2.38
2.26
2.02
1.59
0.97
0.28
-0.37
-0.91
-1.36
-1.76
-2.13
-2.45
-2.68
-2.79
-2.82
-2.86
-3.02
-3.39
-4.02
-4.89
-5.93
-7.04
-8.02
-8.64
-8.65
-7.93
-6.50
-4.60
-2.55
-0.63
0.98
2.25
3.28
4.17
4.93
5.51
5.81
5.83
5.63
5.33
5.07
4.91
4.84
4.80
4.71
4.53
4.26
3.95
3.65
3.39
3.18
3.04
2.94
2.86
2.75
2.53
2.17
1.66
1.05
0.40
-0.22
-0.78
-1.31
-1.88
-2.54
-3.28
-4.07
-4.82
-5.50
-6.15
-6.87
-7.75
-8.74
-9.66
-10.22
-10.11
-9.14
-7.37
-5.03
-2.50
-0.08
1.98
3.59
4.76
5.48
5.83
5.87
5.75
5.58
5.44
5.33
5.17
4.91
4.55
4.21
4.04
4.13
4.46
4.85
5.10
5.02
4.59
3.89
3.12
2.45
2.01
1.79
1.68
1.50
1.11
0.46
-0.37
-1.23
-1.96
-2.47
-2.82
-3.12
-3.52
-4.10
-4.92
-5.97
-7.19
-8.50
-9.76
-10.74
-11.20
-10.94
-9.88
-8.12
-5.88
-3.42
-1.00
1.15
2.88
4.10
4.79
4.99
4.84
4.53
4.22
4.00
3.89
3.83
3.76
3.63
3.48
3.35
3.30
3.33
3.42
3.50
3.47
3.26
2.85
2.25
1.54
0.81
0.15
-0.41
-0.89
-1.30
-1.69
-2.04
-2.34
-2.59
-2.82
-3.07
-3.40
-3.83
-4.32
-4.84
-5.41
-6.04
-6.76
-7.51
-8.14
-8.40
-8.06
-7.00
-5.26
-3.07
-0.74
1.40
3.14
4.39
5.19
5.65
5.95
6.20
6.46
6.72
6.89
6.91
6.77
6.56
6.41
6.42
6.57
6.73
6.72
6.44
5.88
5.17
4.46
3.86
3.38
2.94
2.49
2.00
1.51
1.09
0.79
0.55
0.31
-0.08
-0.67
-1.46
-2.38
-3.30
-4.12
-4.75
-5.22
-5.64
-6.14
-6.81
-7.62
-8.42
-8.97
-9.02
-8.47
-7.37
-5.89
-4.29
-2.76
-1.37
-0.12
1.01
2.04
2.90
3.51
3.85
3.93
3.84
3.65
3.40
3.10
2.75
2.36
1.97
1.57
1.16
0.69
0.10
-0.60
-1.38
-2.17
-2.97
-3.81
-4.82
-6.07
-7.60
-9.33
-11.11
-12.77
-14.26
-15.63
-17.00
-18.55
-20.37
-22.46
-24.72
-27.02
-29.23
-31.30
-33.24
-35.23
-37.48
-40.23
-43.52
-47.08
-50.23
-51.95
-51.18
-47.09
-39.46
-28.78
-16.18
-3.10
9.06
19.24
26.90
31.95
34.71
35.75
35.78
35.56
35.77
36.86
38.97
41.91
45.21
48.32
50.79
52.41
53.18
53.23
52.71
51.76
50.44
48.83
46.96
44.87
42.51
39.79
36.58
32.88
28.77
24.49
20.29
16.40
12.91
9.88
7.30
5.11
3.24
1.58
-0.01
-1.62
-3.23
-4.73
-5.98
-6.89
-7.50
-7.90
-8.18
-8.29
-8.06
-7.28
-5.87
-3.98
-2.05
-0.61
-0.15
-0.90
-2.79
-5.50
-8.59
-11.62
-14.27
-16.36
-17.81
-18.64
-18.90
-18.67
-18.03
-17.09
-15.95
-14.70
-13.47
-12.35
-11.42
-10.70
-10.12
-9.56
-8.87
-7.96
-6.86
-5.71
-4.66
-3.84
-3.31
-2.98
-2.79
-2.66
-2.57
-2.54
-2.55
-2.59
-2.60
-2.57
-2.54
-2.60
-2.88
-3.44
-4.27
-5.24
-6.14
-6.72
-6.78
-6.20
-5.04
-3.46
-1.70
-0.01
1.42
2.50
3.23
3.66
3.86
3.91
3.84
3.69
3.48
3.23
2.93
2.58
2.17
1.68
1.18
0.74
0.45
0.37
0.50
0.73
0.93
0.98
0.83
0.53
0.16
-0.18
-0.46
-0.70
-0.96
-1.27
-1.64
-2.04
-2.45
-2.83
-3.21
-3.59
-3.98
-4.38
-4.78
-5.21
-5.73
-6.43
-7.35
-8.45
-9.59
-10.53
-10.98
-10.74
-9.72
-8.04
-5.91
-3.60
-1.32
0.78
2.67
4.32
5.74
6.88
7.72
8.24
8.44
8.39
8.10
7.63
6.99
6.26
5.52
4.88
4.43
4.18
4.06
3.95
3.74
3.44
3.12
2.95
3.03
3.36
3.80
4.12
4.11
3.68
2.86
1.79
0.64
-0.46
-1.44
-2.31
-3.07
-3.73
-4.27
-4.73
-5.18
-5.71
-6.48
-7.58
-8.96
-10.43
-11.66
-12.35
-12.28
-11.48
-10.12
-8.49
-6.82
-5.25
-3.78
-2.35
-0.92
0.48
1.76
2.83
3.69
4.34
4.85
5.26
5.57
5.76
5.81
5.74
5.60
5.47
5.36
5.28
5.20
5.13
5.06
5.01
4.97
4.87
4.64
4.21
3.60
2.88
2.14
1.43
0.74
0.03
-0.71
-1.41
-2.00
-2.42
-2.67
-2.86
-3.07
-3.35
-3.68
-3.99
-4.30
-4.66
-5.16
-5.78
-6.31
-6.41
-5.78
-4.35
-2.36
-0.25
1.54
2.79
3.56
4.08
4.59
5.18
5.73
6.06
6.05
5.71
5.21
4.72
4.34
4.05
3.72
3.22
2.52
1.70
0.93
0.35
0.07
0.10
0.33
0.64
0.89
0.98
0.87
0.56
0.11
-0.41
-0.92
-1.39
-1.80
-2.17
-2.54
-2.97
-3.48
-4.07
-4.69
-5.31
-5.90
-6.53
-7.26
-8.12
-9.08
-9.96
-10.53
-10.57
-9.96
-8.72
-7.01
-5.01
-2.92
-0.85
1.12
2.93
4.50
5.80
6.81
7.57
8.15
8.57
8.76
8.60
7.98
6.90
5.52
4.10
2.93
2.19
1.93
2.00
2.23
2.46
2.62
2.68
2.66
2.57
2.39
2.11
1.76
1.38
1.00
0.61
0.16
-0.41
-1.11
-1.89
-2.66
-3.33
-3.91
-4.46
-5.08
-5.78
-6.53
-7.23
-7.81
-8.24
-8.52
-8.63
-8.49
-7.98
-7.02
-5.62
-3.93
-2.13
-0.41
1.15
2.55
3.78
4.85
5.72
6.35
6.72
6.78
6.48
5.72
4.51
3.03
1.62
0.72
0.70
1.62
3.26
5.17
6.86
8.00
8.44
8.20
7.31
5.82
3.75
1.25
-1.38
-3.74
-5.47
-6.40
-6.61
-6.35
-5.87
-5.34
-4.72
-3.98
-3.13
-2.34
-1.88
-1.95
-2.56
-3.58
-4.75
-5.89
-6.91
-7.76
-8.34
-8.46
-7.93
-6.67
-4.80
-2.64
-0.59
1.08
2.29
3.15
3.79
4.32
4.74
5.02
5.12
5.06
4.92
4.78
4.69
4.72
4.92
5.34
5.93
6.62
7.23
7.61
7.65
7.33
6.68
5.80
4.76
3.64
2.56
1.60
0.84
0.25
-0.25
-0.80
-1.50
-2.36
-3.33
-4.31
-5.23
-6.08
-6.87
-7.61
-8.27
-8.79
-9.06
-8.98
-8.46
-7.47
-6.04
-4.29
-2.36
-0.40
1.51
3.31
4.98
6.44
7.60
8.37
8.72
8.69
8.41
8.04
7.70
7.46
7.29
7.15
7.04
6.95
6.91
6.94
6.95
6.82
6.40
5.58
4.37
2.88
1.34
-0.08
-1.24
-2.15
-2.87
-3.52
-4.15
-4.77
-5.36
-5.93
-6.48
-7.02
-7.59
-8.19
-8.91
-9.83
-10.95
-12.20
-13.33
-14.05
-14.10
-13.40
-12.03
-10.21
-8.18
-6.10
-4.08
-2.17
-0.43
1.09
2.38
3.47
4.44
5.31
6.09
6.70
7.06
7.14
7.00
6.79
6.66
6.73
7.00
7.39
7.77
7.99
7.99
7.77
7.32
6.70
5.96
5.15
4.36
3.63
2.98
2.34
1.64
0.82
-0.11
-1.08
-1.99
-2.82
-3.59
-4.37
-5.19
-6.04
-6.90
-7.80
-8.71
-9.58
-10.23
-10.41
-9.89
-8.59
-6.69
-4.53
-2.46
-0.72
0.68
1.83
2.83
3.66
4.26
4.54
4.51
4.32
4.15
4.15
4.34
4.68
5.03
5.28
5.35
5.24
4.98
4.66
4.31
3.96
3.62
3.26
2.90
2.55
2.26
1.98
1.60
0.97
0.00
-1.23
-2.51
-3.59
-4.32
-4.71
-4.95
-5.28
-5.83
-6.60
-7.50
-8.40
-9.16
-9.66
-9.80
-9.42
-8.46
-6.92
-4.99
-2.91
-0.92
0.85
2.33
3.56
4.54
5.25
5.65
5.73
5.52
5.14
4.69
4.29
3.99
3.79
3.66
3.52
3.31
3.00
2.59
2.14
1.68
1.23
0.74
0.19
-0.45
-1.15
-1.84
-2.49
-3.09
-3.72
-4.43
-5.22
-5.98
-6.53
-6.73
-6.51
-5.96
-5.22
-4.46
-3.75
-3.01
-2.08
-0.80
0.92
2.99
5.19
7.28
9.05
10.42
11.36
11.91
12.06
11.83
11.24
10.35
9.32
8.28
7.32
6.47
5.70
4.95
4.24
3.61
3.06
2.60
2.18
1.71
1.14
0.44
-0.37
-1.26
-2.15
-3.00
-3.76
-4.40
-4.92
-5.30
-5.59
-5.83
-6.06
-6.34
-6.71
-7.19
-7.81
-8.57
-9.42
-10.27
-10.97
-11.30
-11.05
-10.07
-8.36
-6.14
-3.71
-1.41
0.56
2.17
3.54
4.79
5.94
6.89
7.48
7.61
7.30
6.71
6.04
5.44
4.98
4.64
4.35
4.06
3.75
3.45
3.21
3.07
3.06
3.15
3.22
3.11
2.69
1.90
0.80
-0.43
-1.58
-2.48
-3.07
-3.44
-3.74
-4.16
-4.84
-5.82
-7.04
-8.36
-9.60
-10.60
-11.26
-11.49
-11.23
-10.45
-9.16
-7.44
-5.47
-3.43
-1.52
0.13
1.48
2.54
3.31
3.82
4.04
3.99
3.72
3.35
3.04
2.90
2.97
3.17
3.39
3.52
3.53
3.47
3.43
3.43
3.44
3.31
2.94
2.30
1.49
0.66
-0.03
-0.52
-0.84
-1.08
-1.28
-1.49
-1.70
-1.96
-2.32
-2.86
-3.61
-4.54
-5.53
-6.39
-6.89
-6.81
-6.04
-4.59
-2.63
-0.43
1.70
3.53
4.93
5.90
6.50
6.81
6.89
6.79
6.56
6.28
6.01
5.79
5.59
5.37
5.05
4.63
4.11
3.55
3.03
2.62
2.36
2.24
2.19
2.08
1.81
1.31
0.64
-0.10
-0.80
-1.38
-1.88
-2.40
-3.04
-3.85
-4.80
-5.83
-6.94
-8.14
-9.42
-10.70
-11.79
-12.41
-12.33
-11.44
-9.87
-7.90
-5.85
-3.98
-2.40
-1.11
-0.08
0.67
1.08
1.10
0.73
0.06
-0.82
-1.80
-2.88
-4.05
-5.30
-6.56
-7.79
-8.99
-10.30
-11.90
-13.78
-15.58
-16.73
-16.63
-15.01
-12.08
-8.46
-4.84
-1.69
0.84
2.72
3.82
3.78
2.21
-1.03
-5.57
-10.58
-15.17
-18.77
-21.30
-23.07
-24.37
-25.18
-25.12
-23.75
-20.85
-16.62
-11.59
-6.31
-1.01
4.51
10.72
18.12
26.87
36.71
46.94
56.61
64.81
70.86
74.44
75.56
74.49
71.61
67.29
61.89
55.70
49.01
42.04
34.95
27.78
20.50
13.15
5.88
-0.94
-6.88
-11.59
-14.97
-17.11
-18.26
-18.61
-18.29
-17.40
-16.12
-14.73
-13.53
-12.75
-12.36
-12.09
-11.58
-10.51
-8.80
-6.64
-4.38
-2.41
-0.99
-0.20
0.04
-0.11
-0.49
-1.03
-1.77
-2.82
-4.25
-6.08
-8.21
-10.48
-12.70
-14.67
-16.21
-17.16
-17.39
-16.92
-15.90
-14.60
-13.34
-12.35
-11.67
-11.21
-10.83
-10.45
-10.05
-9.65
-9.21
-8.62
-7.79
-6.73
-5.63
-4.77
-4.38
-4.53
-5.08
-5.76
-6.35
-6.74
-6.96
-7.00
-6.83
-6.31
-5.35
-3.92
-2.11
-0.06
2.10
4.32
6.53
8.65
10.53
11.99
12.88
13.18
12.99
12.48
11.85
11.26
10.76
10.34
9.93
9.43
8.83
8.13
7.38
6.61
5.80
4.88
3.82
2.65
1.52
0.59
-0.04
-0.40
-0.62
-0.89
-1.30
-1.90
-2.61
-3.36
-4.06
-4.70
-5.23
-5.66
-5.97
-6.11
-6.04
-5.68
-4.94
-3.81
-2.33
-0.69
0.87
2.07
2.80
3.10
3.16
3.19
3.31
3.46
3.48
3.20
2.57
1.75
1.00
0.57
0.59
0.98
1.53
2.03
2.35
2.48
2.50
2.49
2.44
2.31
1.99
1.45
0.76
0.03
-0.62
-1.16
-1.62
-2.13
-2.81
-3.69
-4.72
-5.79
-6.84
-7.84
-8.80
-9.64
-10.20
-10.23
-9.50
-7.98
-5.87
-3.58
-1.55
-0.11
0.72
1.15
1.50
2.05
2.87
3.82
4.65
5.13
5.13
4.69
3.94
3.05
2.18
1.41
0.80
0.37
0.14
0.08
0.14
0.22
0.19
-0.04
-0.47
-1.02
-1.52
-1.84
-1.92
-1.83
-1.69
-1.68
-1.89
-2.27
-2.75
-3.19
-3.56
-3.88
-4.23
-4.69
-5.31
-6.02
-6.75
-7.34
-7.64
-7.54
-6.96
-5.92
-4.50
-2.83
-1.11
0.47
1.72
2.58
3.07
3.29
3.41
3.53
3.70
3.86
3.95
3.91
3.75
3.56
3.41
3.31
3.23
3.10
2.90
2.66
2.46
2.37
2.37
2.41
2.38
2.19
1.81
1.29
0.74
0.28
0.04
0.02
0.17
0.35
0.36
0.11
-0.43
-1.13
-1.84
-2.45
-2.94
-3.40
-3.86
-4.27
-4.47
-4.23
-3.43
-2.11
-0.46
1.23
2.77
4.05
5.07
5.86
6.38
6.60
6.47
6.02
5.39
4.76
4.27
3.97
3.76
3.49
3.06
2.48
1.90
1.49
1.39
1.57
1.85
1.98
1.78
1.26
0.55
-0.11
-0.55
-0.76
-0.85
-1.02
-1.36
-1.87
-2.42
-2.85
-3.12
-3.28
-3.50
-3.97
-4.73
-5.73
-6.82
-7.81
-8.59
-9.10
-9.29
-9.08
-8.35
-7.00
-5.06
-2.71
-0.26
1.92
3.58
4.66
5.25
5.55
5.75
5.93
6.08
6.12
5.98
5.64
5.17
4.64
4.12
3.61
3.11
2.62
2.21
1.93
1.84
1.92
2.09
2.18
2.09
1.75
1.16
0.38
-0.52
-1.46
-2.35
-3.08
-3.57
-3.80
-3.88
-3.98
-4.31
-4.96
-5.95
-7.17
-8.47
-9.70
-10.73
-11.41
-11.60
-11.17
-10.10
-8.49
-6.53
-4.48
-2.52
-0.72
0.90
2.36
3.62
4.62
5.28
5.59
5.58
5.35
5.01
4.64
4.30
4.02
3.82
3.72
3.69
3.69
3.65
3.52
3.26
2.90
2.49
2.09
1.75
1.49
1.26
1.00
0.69
0.34
0.02
-0.23
-0.37
-0.49
-0.69
-1.09
-1.74
-2.61
-3.61
-4.66
-5.70
-6.64
-7.38
-7.74
-7.52
-6.61
-5.10
-3.21
-1.23
0.62
2.27
3.78
5.23
6.61
7.79
8.55
8.77
8.46
7.78
6.99
6.25
5.69
5.29
5.04
4.90
4.83
4.76
4.63
4.38
4.02
3.61
3.24
2.94
2.70
2.44
2.12
1.70
1.21
0.73
0.28
-0.13
-0.52
-0.89
-1.25
-1.58
-1.89
-2.21
-2.55
-2.91
-3.32
-3.81
-4.41
-5.08
-5.65
-5.87
-5.54
-4.66
-3.48
-2.38
-1.73
-1.65
-2.05
-2.67
-3.31
-3.84
-4.23
-4.42
-4.26
-3.60
-2.45
-1.11
-0.09
0.05
-0.97
-2.99
-5.46
-7.61
-8.78
-8.60
-7.13
-4.77
-2.07
0.52
2.78
4.70
6.44
8.07
9.47
10.34
10.34
9.26
7.19
4.49
1.69
-0.78
-2.73
-4.24
-5.54
-6.82
-8.13
-9.37
-10.41
-11.18
-11.76
-12.22
-12.53
-12.48
-11.70
-9.94
-7.24
-4.01
-0.90
1.48
2.86
3.39
3.55
3.99
5.25
7.54
10.71
14.14
16.94
18.16
17.13
13.75
8.58
2.69
-2.75
-6.83
-9.21
-10.00
-9.64
-8.68
-7.62
-6.87
-6.76
-7.39
-8.65
-10.25
-11.80
-12.94
-13.52
-13.57
-13.34
-13.25
-13.74
-15.22
-17.89
-21.64
-26.11
-30.72
-35.00
-38.69
-41.80
-44.50
-46.88
-48.83
-50.04
-50.21
-49.25
-47.48
-45.62
-44.76
-45.93
-49.63
-55.38
-61.64
-66.06
-66.24
-60.44
-48.09
-29.83
-7.18
17.87
43.12
66.41
85.70
99.40
106.78
108.28
105.43
100.41
95.19
90.92
87.73
84.96
81.64
77.07
71.01
63.71
55.75
47.84
40.61
34.58
30.00
26.82
24.70
23.01
21.02
18.14
14.02
8.70
2.56
-3.79
-9.66
-14.44
-17.80
-19.81
-20.98
-22.09
-23.90
-26.71
-30.18
-33.37
-35.13
-34.62
-31.64
-26.68
-20.68
-14.67
-9.40
-5.31
-2.41
-0.43
1.09
2.70
4.90
7.94
11.77
16.09
20.48
24.60
28.22
31.13
33.06
33.61
32.36
29.17
24.36
18.71
13.27
9.01
6.39
5.27
4.97
4.61
3.52
1.49
-1.17
-3.85
-5.93
-7.08
-7.33
-7.04
-6.78
-7.19
-8.95
-12.67
-18.74
-27.03
-36.59
-45.61
-51.77
-53.10
-48.77
-39.58
-27.70
-15.80
-5.95
1.03
5.62
8.98
12.18
15.66
19.28
22.61
25.33
27.41
28.98
30.11
30.66
30.38
28.99
26.42
22.83
18.65
14.43
10.71
7.83
5.90
4.74
4.06
3.60
3.22
2.93
2.73
2.51
1.98
0.82
-1.22
-4.07
-7.34
-10.37
-12.46
-13.08
-12.11
-9.85
-6.94
-4.10
-1.98
-0.95
-1.15
-2.42
-4.49
-6.93
-9.29
-11.12
-12.04
-11.90
-10.78
-9.03
-7.10
-5.34
-3.96
-2.93
-2.14
-1.45
-0.79
-0.19
0.29
0.59
0.68
0.58
0.35
0.06
-0.24
-0.48
-0.61
-0.59
-0.39
-0.06
0.29
0.48
0.35
-0.16
-1.01
-2.03
-2.99
-3.73
-4.23
-4.55
-4.82
-5.15
-5.55
-5.97
-6.32
-6.56
-6.69
-6.79
-6.93
-7.16
-7.49
-7.87
-8.28
-8.71
-9.17
-9.61
-9.94
-9.98
-9.55
-8.58
-7.12
-5.35
-3.49
-1.73
-0.11
1.38
2.82
4.18
5.37
6.23
6.63
6.58
6.18
5.64
5.14
4.78
4.58
4.51
4.53
4.58
4.67
4.80
4.96
5.08
5.02
4.69
4.03
3.09
2.06
1.13
0.44
0.01
-0.26
-0.53
-0.96
-1.57
-2.30
-3.03
-3.68
-4.23
-4.74
-5.28
-5.90
-6.59
-7.31
-8.01
-8.66
-9.24
-9.71
-10.01
-10.05
-9.76
-9.14
-8.24
-7.17
-6.02
-4.87
-3.66
-2.33
-0.88
0.62
2.00
3.05
3.63
3.75
3.60
3.43
3.47
3.81
4.36
4.91
5.29
5.47
5.52
5.59
5.75
5.94
6.02
5.84
5.37
4.73
4.10
3.67
3.54
3.67
3.91
4.14
4.26
4.22
4.00
3.57
2.96
2.23
1.45
0.72
0.09
-0.49
-1.19
-2.18
-3.57
-5.27
-7.01
-8.40
-9.09
-8.93
-7.98
-6.50
-4.86
-3.34
-2.16
-1.37
-0.90
-0.57
-0.23
0.27
0.95
1.75
2.53
3.14
3.52
3.72
3.85
4.04
4.31
4.62
4.89
5.03
5.05
5.04
5.04
5.07
5.06
4.90
4.52
3.96
3.32
2.71
2.21
1.78
1.34
0.80
0.14
-0.60
-1.33
-1.98
-2.54
-3.06
-3.61
-4.25
-5.02
-5.93
-6.97
-8.06
-9.08
-9.83
-10.15
-9.91
-9.06
-7.70
-6.03
-4.23
-2.48
-0.86
0.61
1.98
3.27
4.45
5.44
6.13
6.42
6.30
5.83
5.14
4.40
3.71
3.14
2.71
2.45
2.37
2.48
2.72
2.98
3.13
3.07
2.82
2.49
2.21
2.02
1.86
1.56
0.97
0.09
-0.95
-1.91
-2.57
-2.86
-2.86
-2.75
-2.71
-2.88
-3.29
-3.89
-4.63
-5.42
-6.17
-6.76
-7.07
-6.95
-6.26
-4.95
-3.06
-0.72
1.78
4.17
6.19
7.71
8.79
9.60
10.37
11.27
12.35
13.51
14.53
15.17
15.29
14.95
14.42
14.03
14.08
14.70
15.80
17.21
18.75
20.26
21.58
22.40
22.27
20.75
17.56
12.80
6.86
0.28
-6.57
-13.57
-20.77
-28.12
-35.22
-41.25
-45.26
-46.55
-45.09
-41.56
-37.11
-32.89
-29.55
-27.03
-24.71
-21.87
-18.17
-13.83
-9.49
-5.86
-3.29
-1.62
-0.38
0.88
2.32
3.77
4.90
5.49
5.57
5.42
5.41
5.73
6.34
6.93
7.13
6.66
5.50
3.92
2.33
1.16
0.57
0.45
0.46
0.23
-0.42
-1.37
-2.33
-2.96
-3.10
-2.83
-2.37
-2.04
-2.08
-2.62
-3.69
-5.19
-6.95
-8.69
-10.09
-10.91
-11.01
-10.52
-9.69
-8.80
-8.09
-7.62
-7.32
-7.05
-6.67
-6.01
-4.97
-3.48
-1.56
0.72
3.15
5.46
7.42
8.90
9.95
10.71
11.35
11.92
12.38
12.63
12.58
12.23
11.62
10.87
10.04
9.15
8.19
7.13
6.00
4.87
3.85
3.02
2.43
2.01
1.67
1.28
0.72
-0.01
-0.85
-1.64
-2.27
-2.70
-3.04
-3.48
-4.21
-5.29
-6.63
-8.02
-9.22
-10.16
-10.92
-11.74
-12.83
-14.27
-15.87
-17.33
-18.33
-18.61
-18.07
-16.66
-14.27
-10.77
-6.08
-0.35
6.00
12.32
18.02
22.76
26.61
29.87
32.81
35.47
37.61
38.87
39.07
38.36
37.24
36.35
36.11
36.63
37.62
38.65
39.21
38.96
37.72
35.45
32.30
28.58
24.84
21.72
19.93
19.97
22.02
25.71
30.04
33.54
34.68
32.42
26.75
18.80
10.52
3.90
0.11
-0.90
-0.34
0.10
-0.90
-3.79
-8.17
-13.30
-18.62
-24.03
-29.60
-35.09
-39.69
-42.22
-41.76
-38.48
-33.85
-30.18
-29.47
-32.46
-38.10
-44.16
-48.35
-49.42
-47.60
-44.14
-40.33
-36.74
-33.10
-28.82
-23.65
-18.16
-13.50
-10.72
-10.25
-11.57
-13.59
-15.14
-15.60
-14.99
-13.80
-12.60
-11.69
-11.05
-10.45
-9.74
-8.97
-8.42
-8.44
-9.27
-10.87
-12.93
-14.96
-16.48
-17.16
-16.90
-15.80
-14.12
-12.12
-10.00
-7.88
-5.72
-3.45
-0.95
1.77
4.58
7.22
9.36
10.76
11.33
11.21
10.69
10.10
9.72
9.71
10.08
10.74
11.59
12.50
13.40
14.22
14.89
15.41
15.75
15.96
16.07
16.07
15.93
15.54
14.77
13.56
11.95
10.05
8.02
5.99
3.97
1.90
-0.29
-2.56
-4.74
-6.57
-7.76
-8.15
-7.72
-6.61
-5.05
-3.29
-1.53
0.16
1.79
3.43
5.10
6.77
8.27
9.41
10.08
10.26
10.12
9.86
9.61
9.39
9.07
8.54
7.79
6.90
5.98
4.97
3.67
1.85
-0.49
-2.96
-4.95
-5.93
-5.81
-5.07
-4.47
-4.61
-5.53
-6.77
-7.70
-8.00
-7.86
-7.81
-8.25
-9.17
-10.09
-10.40
-9.74
-8.21
-6.25
-4.40
-2.94
-1.84
-0.90
0.10
1.28
2.58
3.89
5.06
5.99
6.61
6.91
6.98
6.95
6.94
7.01
7.12
7.15
6.96
6.48
5.75
4.91
4.13
3.50
3.05
2.70
2.33
1.84
1.19
0.34
-0.70
-1.91
-3.29
-4.75
-6.24
-7.68
-9.04
-10.30
-11.44
-12.31
-12.71
-12.43
-11.39
-9.67
-7.58
-5.46
-3.58
-2.03
-0.74
0.43
1.56
2.61
3.47
4.01
4.22
4.17
4.01
3.89
3.83
3.79
3.71
3.53
3.25
2.93
2.62
2.37
2.17
1.99
1.78
1.48
1.09
0.65
0.28
0.07
0.11
0.37
0.76
1.11
1.23
1.03
0.46
-0.41
-1.47
-2.58
-3.55
-4.22
-4.41
-4.02
-3.06
-1.66
0.02
1.77
3.45
4.97
6.27
7.31
8.03
8.40
8.38
8.05
7.51
6.90
6.35
5.96
5.71
5.52
5.30
4.98
4.56
4.10
3.69
3.36
3.10
2.82
2.43
1.89
1.24
0.58
0.03
-0.36
-0.62
-0.86
-1.21
-1.73
-2.43
-3.25
-4.15
-5.13
-6.29
-7.67
-9.23
-10.73
-11.83
-12.18
-11.60
-10.17
-8.17
-5.99
-3.92
-2.15
-0.72
0.38
1.18
1.72
2.07
2.32
2.60
2.99
3.52
4.16
4.84
5.46
5.89
6.02
5.74
5.06
4.09
3.05
2.14
1.49
1.09
0.83
0.57
0.24
-0.12
-0.43
-0.64
-0.77
-0.90
-1.14
-1.57
-2.19
-2.92
-3.66
-4.32
-4.92
-5.47
-5.98
-6.37
-6.45
-5.99
-4.87
-3.13
-0.99
1.24
3.36
5.27
6.99
8.54
9.84
10.71
10.95
10.50
9.50
8.26
7.13
6.34
5.95
5.84
5.82
5.73
5.51
5.17
4.77
4.37
3.95
3.48
2.87
2.08
1.13
0.11
-0.86
-1.62
-2.09
-2.28
-2.33
-2.43
-2.80
-3.52
-4.60
-5.93
-7.35
-8.73
-9.96
-10.93
-11.51
-11.54
-10.86
-9.46
-7.45
-5.12
-2.78
-0.66
1.19
2.82
4.34
5.78
7.07
8.05
8.59
8.65
8.33
7.86
7.46
7.33
7.50
7.89
8.29
8.51
8.39
7.92
7.18
6.30
5.40
4.54
3.76
3.08
2.47
1.91
1.31
0.63
-0.17
-1.08
-2.03
-2.97
-3.86
-4.74
-5.66
-6.68
-7.83
-9.14
-10.58
-12.08
-13.48
-14.51
-14.89
-14.42
-13.11
-11.16
-8.93
-6.73
-4.79
-3.13
-1.69
-0.45
0.61
1.42
1.93
2.20
2.34
2.48
2.72
3.07
3.44
3.75
3.94
4.03
4.10
4.23
4.45
4.70
4.90
4.93
4.76
4.40
3.87
3.23
2.49
1.69
0.90
0.21
-0.37
-0.94
-1.72
-2.83
-4.19
-5.46
-6.27
-6.48
-6.30
-6.23
-6.68
-7.70
-8.88
-9.64
-9.54
-8.53
-6.90
-5.05
-3.25
-1.53
0.14
1.75
3.20
4.35
5.15
5.68
6.05
6.31
6.44
6.41
6.24
6.06
6.02
6.21
6.57
6.96
7.22
7.28
7.15
6.93
6.70
6.49
6.30
6.04
5.66
5.18
4.61
3.99
3.32
2.59
1.79
0.92
0.07
-0.66
-1.21
-1.53
-1.69
-1.77
-1.91
-2.17
-2.62
-3.25
-4.02
-4.88
-5.75
-6.55
-7.15
-7.43
-7.31
-6.77
-5.87
-4.75
-3.55
-2.36
-1.22
-0.09
1.08
2.29
3.49
4.55
5.38
5.90
6.11
6.06
5.84
5.54
5.25
5.04
4.94
4.92
4.85
4.57
3.93
2.92
1.70
0.53
-0.27
-0.55
-0.33
0.16
0.61
0.79
0.66
0.33
-0.05
-0.34
-0.59
-0.90
-1.39
-2.07
-2.87
-3.64
-4.33
-4.98
-5.74
-6.75
-8.03
-9.39
-10.51
-11.06
-10.86
-9.91
-8.40
-6.60
-4.75
-3.01
-1.48
-0.19
0.88
1.77
2.57
3.39
4.26
5.13
5.89
6.41
6.60
6.50
6.16
5.70
5.21
4.76
4.39
4.12
3.97
3.92
3.93
3.93
3.82
3.54
3.07
2.44
1.70
0.88
0.03
-0.86
-1.79
-2.73
-3.65
-4.45
-5.08
-5.53
-5.89
-6.30
-6.88
-7.66
-8.58
-9.45
-10.09
-10.34
-10.15
-9.55
-8.63
-7.48
-6.17
-4.74
-3.23
-1.67
-0.15
1.26
2.47
3.41
4.05
4.39
4.50
4.46
4.38
4.32
4.29
4.25
4.15
3.94
3.64
3.26
2.88
2.52
2.23
2.05
2.01
2.16
2.47
2.84
3.11
3.13
2.84
2.31
1.71
1.18
0.81
0.55
0.26
-0.22
-0.99
-2.07
-3.39
-4.80
-6.07
-6.96
-7.26
-6.83
-5.70
-4.09
-2.33
-0.72
0.52
1.37
1.96
2.49
3.09
3.74
4.33
4.67
4.68
4.38
3.93
3.52
3.30
3.30
3.47
3.71
3.92
4.08
4.19
4.28
4.36
4.41
4.40
4.30
4.10
3.80
3.40
2.94
2.43
1.93
1.45
0.99
0.53
0.02
-0.58
-1.34
-2.32
-3.58
-5.10
-6.75
-8.29
-9.40
-9.77
-9.25
-7.93
-6.13
-4.29
-2.77
-1.71
-1.00
-0.36
0.49
1.64
3.00
4.33
5.38
6.03
6.28
6.22
5.93
5.49
4.88
4.10
3.20
2.33
1.65
1.31
1.30
1.49
1.63
1.52
1.07
0.35
-0.49
-1.27
-1.91
-2.45
-2.99
-3.62
-4.35
-5.11
-5.82
-6.45
-7.02
-7.60
-8.25
-8.97
-9.72
-10.41
-10.91
-11.09
-10.84
-10.11
-8.88
-7.24
-5.35
-3.39
-1.54
0.08
1.47
2.68
3.76
4.75
5.67
6.49
7.15
7.61
7.87
7.94
7.89
7.75
7.56
7.32
6.99
6.49
5.80
4.98
4.09
3.23
2.38
1.50
0.53
-0.52
-1.53
-2.34
-2.81
-2.95
-2.91
-2.90
-3.11
-3.64
-4.48
-5.54
-6.72
-7.91
-8.98
-9.79
-10.18
-10.03
-9.29
-7.97
-6.21
-4.21
-2.22
-0.45
0.93
1.89
2.54
3.02
3.47
3.93
4.33
4.60
4.69
4.63
4.52
4.51
4.63
4.85
5.05
5.13
5.04
4.83
4.57
4.31
4.00
3.55
2.88
1.97
0.92
-0.13
-1.00
-1.57
-1.83
-1.85
-1.76
-1.69
-1.74
-1.99
-2.49
-3.23
-4.13
-5.08
-5.93
-6.51
-6.71
-6.47
-5.81
-4.86
-3.76
-2.64
-1.52
-0.35
0.95
2.42
3.97
5.42
6.55
7.19
7.30
6.94
6.30
5.58
4.94
4.47
4.20
4.10
4.10
4.11
4.05
3.87
3.54
3.07
2.50
1.89
1.28
0.72
0.24
-0.16
-0.48
-0.77
-1.10
-1.56
-2.23
-3.19
-4.40
-5.78
-7.15
-8.32
-9.08
-9.29
-8.89
-7.91
-6.48
-4.82
-3.15
-1.61
-0.25
1.00
2.25
3.60
5.02
6.38
7.47
8.08
8.13
7.66
6.82
5.85
4.94
4.21
3.69
3.34
3.08
2.85
2.61
2.34
2.03
1.66
1.24
0.76
0.22
-0.36
-0.98
-1.58
-2.10
-2.48
-2.71
-2.83
-2.95
-3.21
-3.70
-4.42
-5.31
-6.26
-7.14
-7.83
-8.23
-8.23
-7.75
-6.73
-5.21
-3.29
-1.15
1.00
2.95
4.57
5.82
6.69
7.24
7.51
7.51
7.27
6.79
6.15
5.47
4.88
4.47
4.25
4.15
4.06
3.90
3.64
3.27
2.82
2.26
1.61
0.84
-0.00
-0.82
-1.52
-2.06
-2.50
-2.96
-3.56
-4.36
-5.37
-6.50
-7.68
-8.88
-10.06
-11.20
-12.18
-12.78
-12.82
-12.18
-10.93
-9.30
-7.55
-5.88
-4.32
-2.82
-1.27
0.33
1.90
3.28
4.35
5.08
5.55
5.88
6.15
6.36
6.43
6.30
5.94
5.38
4.76
4.20
3.85
3.74
3.88
4.19
4.57
4.89
5.04
4.95
4.59
4.00
3.28
2.52
1.80
1.18
0.65
0.17
-0.31
-0.85
-1.49
-2.25
-3.11
-3.98
-4.70
-5.11
-5.04
-4.45
-3.41
-2.12
-0.82
0.31
1.25
2.06
2.87
3.71
4.54
5.20
5.56
5.56
5.26
4.81
4.36
4.01
3.79
3.71
3.71
3.75
3.75
3.64
3.35
2.88
2.29
1.65
1.08
0.59
0.16
-0.28
-0.82
-1.50
-2.32
-3.20
-4.09
-4.98
-5.88
-6.85
-7.96
-9.26
-10.78
-12.44
-14.11
-15.56
-16.57
-16.97
-16.72
-15.96
-14.91
-13.81
-12.81
-11.88
-10.89
-9.73
-8.38
-6.99
-5.83
-5.20
-5.22
-5.82
-6.68
-7.27
-7.01
-5.41
-2.24
2.33
7.71
13.10
17.69
21.00
23.00
24.04
24.66
25.30
26.09
26.88
27.38
27.34
26.62
25.22
23.24
20.73
17.76
14.41
10.82
7.21
3.75
0.57
-2.28
-4.81
-7.04
-8.95
-10.47
-11.51
-11.96
-11.77
-10.90
-9.44
-7.55
-5.49
-3.56
-2.00
-0.92
-0.28
0.11
0.49
1.03
1.75
2.54
3.22
3.61
3.64
3.34
2.80
2.17
1.61
1.20
0.99
0.96
1.06
1.20
1.26
1.18
0.91
0.50
0.01
-0.46
-0.80
-0.99
-1.02
-0.97
-0.92
-0.94
-1.05
-1.21
-1.40
-1.59
-1.79
-2.03
-2.32
-2.68
-3.08
-3.56
-4.14
-4.84
-5.65
-6.53
-7.41
-8.23
-9.00
-9.73
-10.41
-11.00
-11.38
-11.44
-11.12
-10.43
-9.48
-8.37
-7.20
-6.04
-4.87
-3.69
-2.50
-1.32
-0.27
0.57
1.09
1.29
1.25
1.12
1.07
1.21
1.55
2.02
2.48
2.80
2.90
2.80
2.55
2.25
1.91
1.51
0.98
0.30
-0.49
-1.25
-1.80
-1.96
-1.65
-0.92
0.05
0.98
1.65
1.89
1.67
1.08
0.23
-0.75
-1.75
-2.69
-3.49
-4.07
-4.37
-4.37
-4.13
-3.71
-3.17
-2.52
-1.69
-0.62
0.71
2.17
3.51
4.40
4.58
3.96
2.80
1.62
1.09
1.83
4.10
7.74
12.13
16.42
19.74
21.48
21.41
19.74
16.98
13.75
10.61
7.95
5.91
4.52
3.75
3.49
3.61
3.87
3.97
3.58
2.56
0.90
-1.22
-3.55
-5.87
-8.02
-9.89
-11.32
-12.18
-12.40
-12.06
-11.36
-10.55
-9.75
-8.89
-7.76
-6.21
-4.29
-2.30
-0.66
0.34
0.70
0.69
0.66
0.86
1.32
1.88
2.40
2.79
3.06
3.22
3.22
3.01
2.51
1.77
0.89
0.00
-0.79
-1.49
-2.14
-2.83
-3.64
-4.67
-6.02
-7.69
-9.48
-10.86
-11.12
-9.56
-5.94
-0.68
5.19
10.29
13.49
14.34
13.23
11.10
8.99
7.53
6.75
6.30
5.74
4.87
3.84
2.94
2.37
2.04
1.61
0.70
-0.91
-3.11
-5.52
-7.71
-9.36
-10.41
-10.99
-11.32
-11.51
-11.52
-11.22
-10.53
-9.53
-8.44
-7.53
-6.91
-6.51
-6.11
-5.50
-4.58
-3.40
-2.11
-0.85
0.32
1.39
2.32
3.03
3.37
3.23
2.60
1.61
0.46
-0.63
-1.48
-1.98
-2.07
-1.78
-1.20
-0.40
0.51
1.43
2.32
3.17
3.96
4.69
5.33
5.86
6.19
6.28
6.08
5.63
5.00
4.32
3.72
3.26
2.95
2.74
2.54
2.31
2.07
1.91
1.90
2.01
2.15
2.16
1.93
1.43
0.76
0.09
-0.46
-0.85
-1.13
-1.40
-1.74
-2.14
-2.58
-3.00
-3.41
-3.83
-4.32
-4.90
-5.54
-6.13
-6.51
-6.51
-6.04
-5.08
-3.70
-2.05
-0.28
1.46
3.07
4.49
5.68
6.59
7.21
7.55
7.65
7.61
7.54
7.54
7.67
7.92
8.23
8.47
8.51
8.24
7.60
6.60
5.31
3.84
2.25
0.58
-1.18
-3.08
-5.15
-7.45
-10.02
-12.87
-15.90
-18.80
-21.01
-21.86
-20.80
-17.74
-13.18
-8.13
-3.67
-0.53
1.23
2.10
2.74
3.58
4.55
5.31
5.51
5.08
4.35
3.73
3.51
3.64
3.80
3.67
3.11
2.23
1.34
0.72
0.51
0.68
1.07
1.50
1.81
1.92
1.85
1.67
1.48
1.36
1.32
1.29
1.18
0.92
0.52
0.00
-0.59
-1.27
-2.09
-3.09
-4.25
-5.46
-6.58
-7.48
-8.16
-8.72
-9.35
-10.32
-11.78
-13.75
-15.97
-17.89
-18.80
-18.04
-15.19
-10.34
-4.08
2.60
8.57
12.85
14.87
14.55
12.24
8.48
3.80
-1.46
-7.20
-13.31
-19.57
-25.47
-30.25
-33.18
-33.67
-31.54
-26.96
-20.38
-12.36
-3.43
5.93
15.30
24.37
32.97
40.98
48.30
54.74
60.05
64.04
66.74
68.48
69.79
71.18
72.80
74.24
74.50
72.15
65.81
54.70
39.20
21.00
2.71
-12.90
-23.98
-30.24
-32.99
-34.34
-36.16
-39.15
-42.66
-45.31
-45.95
-44.44
-41.73
-39.23
-37.94
-37.84
-37.95
-36.99
-34.17
-29.75
-24.85
-20.87
-18.62
-17.85
-17.50
-16.28
-13.45
-9.29
-4.84
-1.38
0.27
0.06
-1.32
-2.96
-4.11
-4.50
-4.22
-3.54
-2.72
-1.92
-1.26
-0.89
-0.94
-1.47
-2.43
-3.62
-4.85
-6.01
-7.07
-8.08
-9.03
-9.85
-10.39
-10.52
-10.21
-9.59
-8.89
-8.35
-8.13
-8.27
-8.63
-9.03
-9.35
-9.57
-9.85
-10.39
-11.30
-12.52
-13.77
-14.67
-14.86
-14.09
-12.24
-9.28
-5.24
-0.25
5.40
11.16
16.35
20.26
22.40
22.68
21.45
19.33
17.00
14.97
13.47
12.52
12.02
11.88
12.02
12.33
12.58
12.37
11.21
8.78
5.14
0.80
-3.36
-6.47
-7.87
-7.28
-4.64
0.00
6.46
14.31
22.63
30.10
35.17
36.69
34.42
29.20
22.73
16.92
13.18
12.03
13.03
15.19
17.35
18.55
18.19
16.01
12.12
6.85
0.74
-5.46
-10.95
-14.99
-17.00
-16.74
-14.35
-10.30
-5.35
-0.40
3.69
6.26
7.06
6.26
4.43
2.35
0.71
-0.04
0.09
0.65
0.88
-0.01
-2.53
-6.67
-11.91
-17.45
-22.46
-26.33
-28.62
-28.94
-26.92
-22.22
-14.89
-5.67
4.03
12.40
17.91
19.91
18.83
15.95
12.79
10.44
9.28
8.91
8.62
7.77
6.13
3.95
1.69
-0.15
-1.31
-1.76
-1.66
-1.20
-0.51
0.32
1.21
2.01
2.52
2.50
1.76
0.27
-1.80
-4.06
-5.98
-7.06
-7.12
-6.36
-5.38
-4.86
-5.24
-6.51
-8.21
-9.72
-10.65
-10.96
-10.97
-11.01
-11.21
-11.36
-11.08
-10.02
-8.07
-5.38
-2.25
1.03
4.23
7.14
9.57
11.33
12.29
12.50
12.12
11.46
10.76
10.21
9.81
9.51
9.22
8.90
8.58
8.26
7.95
7.57
7.08
6.40
5.49
4.34
2.98
1.52
0.09
-1.17
-2.15
-2.82
-3.19
-3.33
-3.30
-3.19
-3.11
-3.24
-3.75
-4.76
-6.18
-7.72
-8.96
-9.53
-9.24
-8.16
-6.55
-4.71
-2.87
-1.15
0.39
1.70
2.71
3.36
3.64
3.61
3.42
3.20
3.06
3.03
3.07
3.15
3.23
3.30
3.34
3.35
3.30
3.15
2.85
2.37
1.73
1.02
0.31
-0.32
-0.88
-1.39
-1.90
-2.42
-2.90
-3.27
-3.49
-3.62
-3.78
-4.14
-4.80
-5.80
-7.08
-8.51
-9.94
-11.23
-12.24
-12.85
-12.98
-12.63
-11.85
-10.76
-9.47
-8.03
-6.46
-4.74
-2.91
-1.07
0.60
1.91
2.68
2.81
2.28
1.21
-0.21
-1.64
-2.79
-3.40
-3.40
-2.93
-2.26
-1.69
-1.42
-1.47
-1.68
-1.77
-1.41
-0.39
1.27
3.32
5.32
6.85
7.61
7.52
6.68
5.23
3.25
0.77
-2.12
-5.17
-7.92
-9.92
-10.86
-10.88
-10.43
-10.10
-10.24
-10.76
-11.22
-11.04
-9.85
-7.64
-4.72
-1.50
1.71
4.81
7.92
11.21
14.82
18.77
23.01
27.27
31.08
33.75
34.48
32.66
28.17
21.56
13.87
6.32
-0.09
-4.85
-7.88
-9.47
-9.97
-9.75
-9.19
-8.61
-8.34
-8.58
-9.37
-10.59
-11.93
-13.04
-13.50
-12.88
-10.84
-7.30
-2.54
2.77
7.71
11.40
13.33
13.40
11.91
9.28
5.94
2.28
-1.35
-4.50
-6.70
-7.57
-6.99
-5.16
-2.51
0.44
3.20
5.45
6.98
7.69
7.68
7.15
6.45
5.94
5.83
6.06
6.33
6.24
5.49
3.99
1.91
-0.44
-2.75
-4.81
-6.49
-7.72
-8.40
-8.41
-7.71
-6.32
-4.43
-2.36
-0.43
1.10
2.11
2.63
2.71
2.40
1.61
0.20
-1.93
-4.75
-8.02
-11.34
-14.28
-16.51
-17.87
-18.34
-17.92
-16.58
-14.24
-10.91
-6.76
-2.22
2.16
5.85
8.57
10.31
11.29
11.77
11.92
11.75
11.16
10.10
8.63
6.97
5.39
4.08
3.09
2.33
1.67
1.02
0.37
-0.16
-0.44
-0.36
0.08
0.80
1.65
2.43
2.98
3.22
3.11
2.73
2.20
1.67
1.25
0.94
0.65
0.26
-0.35
-1.17
-2.05
-2.73
-2.90
-2.30
-0.81
1.50
4.39
7.51
10.48
12.99
14.88
16.11
16.76
16.98
16.86
16.38
15.45
13.96
11.88
9.30
6.43
3.53
0.80
-1.59
-3.53
-4.96
-5.79
-5.96
-5.53
-4.67
-3.69
-2.94
-2.63
-2.77
-3.20
-3.71
-4.14
-4.50
-4.91
-5.49
-6.33
-7.38
-8.52
-9.66
-10.70
-11.65
-12.53
-13.39
-14.23
-15.02
-15.68
-16.08
-16.09
-15.63
-14.70
-13.37
-11.79
-10.09
-8.36
-6.61
-4.82
-2.96
-1.02
0.90
2.69
4.16
5.23
5.87
6.16
6.28
6.36
6.50
6.67
6.80
6.82
6.71
6.51
6.31
6.16
6.08
6.04
5.96
5.79
5.52
5.23
5.00
4.94
5.09
5.40
5.75
5.92
5.67
4.74
2.97
0.33
-2.90
-6.27
-9.19
-11.19
-12.04
-11.81
-10.77
-9.17
-7.15
-4.75
-2.03
0.78
3.33
5.27
6.41
6.79
6.57
5.94
4.95
3.61
1.96
0.13
-1.71
-3.42
-5.05
-6.74
-8.59
-10.55
-12.30
-13.44
-13.63
-12.80
-11.13
-8.99
-6.76
-4.68
-2.79
-1.04
0.69
2.53
4.51
6.60
8.67
10.52
11.93
12.67
12.58
11.61
9.82
7.37
4.47
1.43
-1.46
-3.88
-5.61
-6.53
-6.67
-6.21
-5.38
-4.43
-3.52
-2.71
-1.96
-1.17
-0.27
0.77
1.88
2.96
3.91
4.70
5.38
6.05
6.74
7.41
7.93
8.17
8.05
7.59
6.93
6.24
5.62
5.10
4.61
4.02
3.18
1.99
0.46
-1.24
-2.86
-4.10
-4.78
-4.88
-4.56
-4.06
-3.62
-3.35
-3.31
-3.49
-3.91
-4.55
-5.40
-6.34
-7.24
-7.93
-8.34
-8.47
-8.37
-8.10
-7.69
-7.13
-6.36
-5.39
-4.28
-3.17
-2.26
-1.67
-1.45
-1.45
-1.45
-1.20
-0.64
0.10
0.72
0.93
0.62
-0.06
-0.78
-1.21
-1.21
-0.87
-0.41
-0.08
-0.01
-0.26
-0.83
-1.76
-3.02
-4.45
-5.70
-6.30
-5.87
-4.39
-2.26
-0.18
1.11
1.22
0.27
-1.12
-2.06
-1.83
-0.11
2.81
6.22
9.23
11.17
11.73
11.03
9.40
7.25
4.87
2.46
0.16
-1.81
-3.22
-3.81
-3.45
-2.18
-0.21
2.17
4.65
6.97
8.91
10.34
11.20
11.49
11.28
10.65
9.70
8.49
7.01
5.21
3.07
0.67
-1.75
-3.85
-5.30
-5.96
-6.00
-5.84
-5.95
-6.63
-7.84
-9.19
-10.18
-10.37
-9.60
-8.02
-5.94
-3.75
-1.70
0.08
1.54
2.72
3.66
4.40
5.04
5.64
6.29
6.98
7.68
8.27
8.69
8.94
9.11
9.34
9.66
10.03
10.25
10.11
9.43
8.17
6.46
4.50
2.48
0.49
-1.43
-3.32
-5.16
-6.86
-8.30
-9.36
-9.98
-10.19
-10.06
-9.69
-9.17
-8.54
-7.87
-7.21
-6.68
-6.37
-6.31
-6.44
-6.59
-6.51
-5.92
-4.64
-2.62
0.04
3.09
6.19
8.97
11.09
12.35
12.67
12.14
10.88
9.10
6.98
4.70
2.49
0.57
-0.84
-1.62
-1.82
-1.63
-1.30
-0.99
-0.77
-0.56
-0.24
0.23
0.76
1.17
1.27
0.95
0.21
-0.78
-1.79
-2.63
-3.17
-3.41
-3.51
-3.66
-4.11
-5.02
-6.41
-8.19
-10.06
-11.68
-12.63
-12.63
-11.59
-9.70
-7.37
-5.13
-3.45
-2.48
-2.06
-1.69
-0.80
1.04
3.93
7.58
11.39
14.67
16.86
17.65
17.08
15.43
13.13
10.60
8.21
6.24
4.87
4.18
4.15
4.62
5.36
6.04
6.38
6.19
5.48
4.42
3.27
2.31
1.68
1.35
1.18
1.03
0.84
0.69
0.72
1.04
1.60
2.20
2.56
2.45
1.79
0.66
-0.71
-2.06
-3.15
-3.77
-3.85
-3.42
-2.70
-2.01
-1.70
-1.92
-2.59
-3.34
-3.76
-3.54
-2.65
-1.32
0.15
1.51
2.76
4.03
5.39
6.75
7.80
8.24
7.88
6.86
5.48
4.02
2.52
0.77
-1.52
-4.46
-7.86
-11.25
-14.10
-16.12
-17.32
-17.94
-18.29
-18.50
-18.50
-18.09
-17.10
-15.50
-13.43
-11.18
-8.99
-7.05
-5.35
-3.81
-2.30
-0.74
0.82
2.24
3.33
3.97
4.16
4.03
3.76
3.53
3.41
3.42
3.47
3.51
3.46
3.31
3.05
2.67
2.16
1.48
0.60
-0.48
-1.71
-2.94
-3.97
-4.56
-4.54
-3.91
-2.87
-1.74
-0.91
-0.69
-1.22
-2.42
-4.06
-5.75
-7.14
-7.92
-7.97
-7.38
-6.37
-5.22
-4.10
-3.08
-2.09
-1.03
0.12
1.28
2.27
2.96
3.25
3.15
2.74
2.16
1.65
1.47
1.87
2.89
4.40
6.04
7.43
8.31
8.65
8.62
8.46
8.34
8.23
8.03
7.63
7.02
6.31
5.68
5.25
5.06
5.04
5.04
4.95
4.68
4.18
3.44
2.46
1.27
-0.08
-1.44
-2.63
-3.44
-3.71
-3.36
-2.44
-1.08
0.50
2.08
3.50
4.66
5.54
6.20
6.70
7.15
7.63
8.17
8.80
9.42
9.88
9.99
9.57
8.59
7.19
5.61
4.13
2.89
1.85
0.83
-0.38
-1.92
-3.79
-5.89
-8.06
-10.18
-12.17
-13.98
-15.61
-17.02
-18.15
-18.97
-19.48
-19.73
-19.76
-19.57
-18.99
-17.78
-15.71
-12.70
-8.89
-4.67
-0.51
3.14
6.06
8.21
9.66
10.49
10.74
10.46
9.70
8.62
7.46
6.46
5.86
5.83
6.46
7.70
9.37
11.13
12.59
13.47
13.62
13.12
12.17
11.00
9.73
8.41
7.04
5.69
4.45
3.42
2.56
1.69
0.56
-1.01
-2.95
-4.98
-6.76
-8.04
-8.82
-9.29
-9.73
-10.26
-10.80
-11.08
-10.87
-10.10
-8.91
-7.58
-6.36
-5.39
-4.67
-4.11
-3.66
-3.29
-3.01
-2.81
-2.66
-2.49
-2.20
-1.73
-1.04
-0.16
0.80
1.68
2.36
2.81
3.15
3.60
4.34
5.38
6.58
7.67
8.42
8.75
8.70
8.40
7.87
7.02
5.68
3.65
0.94
-2.26
-5.54
-8.44
-10.59
-11.82
-12.18
-11.85
-11.03
-9.85
-8.35
-6.60
-4.73
-2.95
-1.46
-0.35
0.44
1.08
1.68
2.22
2.55
2.51
2.04
1.28
0.60
0.37
0.75
1.53
2.12
1.69
-0.46
-4.60
-10.37
-16.89
-22.95
-27.38
-29.27
-28.08
-23.72
-16.53
-7.26
3.04
13.13
21.89
28.53
32.71
34.53
34.35
32.61
29.76
26.22
22.36
18.52
14.96
11.81
9.06
6.68
4.64
2.98
1.81
1.22
1.29
1.93
3.00
4.27
5.52
6.56
7.32
7.82
8.19
8.56
8.99
9.41
9.61
9.39
8.58
7.17
5.34
3.35
1.53
0.19
-0.51
-0.52
0.01
0.77
1.32
1.21
0.16
-1.87
-4.59
-7.46
-9.93
-11.58
-12.32
-12.36
-12.05
-11.74
-11.61
-11.68
-11.88
-12.19
-12.63
-13.27
-14.12
-15.01
-15.68
-15.84
-15.29
-14.07
-12.41
-10.68
-9.24
-8.34
-8.02
-8.18
-8.61
-9.08
-9.39
-9.49
-9.48
-9.60
-10.14
-11.30
-13.03
-14.99
-16.59
-17.16
-16.16
-13.45
-9.33
-4.49
0.27
4.34
7.50
9.98
12.25
14.76
17.64
20.63
23.22
24.92
25.52
25.15
24.21
23.06
21.87
20.58
19.01
17.03
14.71
12.24
9.86
7.76
6.00
4.57
3.42
2.59
2.14
2.12
2.54
3.25
4.01
4.43
4.15
2.91
0.69
-2.23
-5.37
-8.17
-10.21
-11.34
-11.62
-11.28
-10.51
-9.45
-8.14
-6.65
-5.07
-3.58
-2.33
-1.40
-0.74
-0.24
0.21
0.66
1.11
1.50
1.79
1.94
1.92
1.67
1.18
0.46
-0.40
-1.26
-1.96
-2.45
-2.74
-2.94
-3.20
-3.60
-4.16
-4.84
-5.60
-6.33
-6.93
-7.27
-7.22
-6.70
-5.74
-4.46
-3.00
-1.51
-0.07
1.30
2.55
3.61
4.38
4.82
4.95
4.93
4.88
4.90
4.95
4.95
4.79
4.48
4.13
3.91
3.93
4.15
4.46
4.62
4.48
3.98
3.20
2.30
1.42
0.64
-0.02
-0.58
-1.05
-1.45
-1.77
-2.03
-2.23
-2.40
-2.56
-2.71
-2.91
-3.21
-3.71
-4.49
-5.52
-6.70
-7.85
-8.74
-9.20
-9.13
-8.54
-7.52
-6.24
-4.95
-3.89
-3.16
-2.72
-2.32
-1.69
-0.70
0.59
1.90
2.92
3.46
3.54
3.34
3.05
2.79
2.59
2.41
2.26
2.21
2.28
2.46
2.62
2.63
2.43
2.03
1.55
1.08
0.65
0.21
-0.30
-0.89
-1.53
-2.15
-2.68
-3.10
-3.44
-3.74
-4.05
-4.38
-4.79
-5.36
-6.15
-7.17
-8.31
-9.35
-10.02
-10.06
-9.36
-7.98
-6.14
-4.11
-2.16
-0.48
0.80
1.67
2.19
2.48
2.73
3.12
3.73
4.55
5.42
6.11
6.42
6.27
5.76
5.13
4.69
4.68
5.19
6.14
7.30
8.36
9.04
9.18
8.78
7.93
6.85
5.72
4.65
3.71
2.87
2.08
1.31
0.55
-0.16
-0.83
-1.46
-2.13
-2.89
-3.76
-4.71
-5.70
-6.67
-7.61
-8.49
-9.24
-9.73
-9.80
-9.25
-8.05
-6.29
-4.24
-2.23
-0.55
0.65
1.42
1.91
2.36
2.92
3.64
4.41
5.09
5.51
5.60
5.37
4.92
4.32
3.66
3.00
2.40
1.95
1.69
1.61
1.63
1.64
1.54
1.27
0.90
0.47
0.04
-0.44
-1.03
-1.76
-2.59
-3.39
-4.00
-4.32
-4.36
-4.23
-4.13
-4.22
-4.62
-5.35
-6.35
-7.46
-8.52
-9.32
-9.72
-9.67
-9.20
-8.45
-7.53
-6.51
-5.39
-4.15
-2.79
-1.38
-0.07
0.99
1.72
2.13
2.31
2.37
2.43
2.51
2.62
2.75
2.89
3.09
3.41
3.91
4.61
5.49
6.44
7.29
7.88
8.10
7.93
7.41
6.64
5.69
4.64
3.53
2.41
1.34
0.38
-0.43
-1.10
-1.64
-2.13
-2.64
-3.29
-4.16
-5.34
-6.84
-8.54
-10.22
-11.57
-12.28
-12.13
-11.04
-9.12
-6.63
-3.91
-1.27
1.01
2.79
4.08
4.96
5.60
6.10
6.52
6.80
6.86
6.69
6.36
6.00
5.74
5.64
5.66
5.70
5.67
5.53
5.29
4.99
4.64
4.25
3.84
3.49
3.27
3.18
3.16
3.08
2.86
2.49
2.09
1.80
1.69
1.72
1.73
1.57
1.18
0.63
-0.00
-0.65
-1.34
-2.13
-3.02
-3.91
-4.53
-4.64
-4.09
-2.92
-1.35
0.32
1.88
3.20
4.25
5.02
5.50
5.65
5.52
5.20
4.82
4.49
4.22
3.96
3.60
3.10
2.49
1.90
1.48
1.31
1.41
1.74
2.19
2.63
2.94
3.05
2.95
2.68
2.32
1.96
1.59
1.20
0.76
0.28
-0.15
-0.46
-0.60
-0.66
-0.79
-1.23
-2.11
-3.42
-5.01
-6.58
-7.85
-8.60
-8.75
-8.35
-7.50
-6.33
-4.95
-3.40
-1.69
0.13
1.96
3.63
4.97
5.88
6.37
6.56
6.56
6.46
6.26
5.93
5.44
4.82
4.13
3.46
2.90
2.48
2.22
2.14
2.21
2.43
2.71
2.95
3.02
2.86
2.41
1.71
0.81
-0.21
-1.28
-2.31
-3.28
-4.15
-4.93
-5.58
-6.11
-6.53
-6.93
-7.47
-8.30
-9.45
-10.80
-12.06
-12.90
-13.07
-12.49
-11.29
-9.71
-7.99
-6.31
-4.76
-3.32
-1.97
-0.63
0.70
2.03
3.31
4.41
5.26
5.77
5.98
5.96
5.84
5.69
5.59
5.55
5.56
5.58
5.59
5.56
5.46
5.30
5.06
4.76
4.37
3.87
3.24
2.49
1.71
1.02
0.53
0.25
0.12
-0.05
-0.45
-1.22
-2.37
-3.82
-5.45
-7.14
-8.76
-10.24
-11.53
-12.51
-13.09
-13.16
-12.63
-11.50
-9.91
-8.08
-6.34
-5.09
-4.64
-5.21
-6.75
-8.93
-11.09
-12.42
-12.15
-9.82
-5.46
0.40
6.88
13.00
17.95
21.19
22.50
21.86
19.45
15.51
10.39
4.53
-1.57
-7.31
-12.08
-15.31
-16.56
-15.71
-12.95
-8.87
-4.29
-0.05
3.24
5.36
6.47
7.03
7.48
8.08
8.83
9.47
9.69
9.36
8.61
7.83
7.44
7.72
8.65
9.96
11.23
12.14
12.52
12.43
12.02
11.44
10.75
9.91
8.88
7.66
6.38
5.26
4.47
4.07
3.94
3.82
3.48
2.82
1.94
1.05
0.38
0.02
-0.04
0.08
0.24
0.33
0.30
0.13
-0.20
-0.71
-1.36
-2.07
-2.76
-3.36
-3.85
-4.28
-4.68
-5.10
-5.56
-6.08
-6.72
-7.50
-8.44
-9.44
-10.33
-10.93
-11.15
-11.02
-10.65
-10.12
-9.41
-8.32
-6.64
-4.31
-1.46
1.49
4.09
6.00
7.16
7.79
8.28
8.99
10.17
11.93
14.20
16.75
19.08
20.42
19.95
17.10
11.92
5.21
-1.73
-7.62
-11.73
-14.12
-15.42
-16.41
-17.47
-18.48
-18.98
-18.58
-17.27
-15.42
-13.58
-12.10
-11.00
-10.00
-8.74
-7.04
-5.00
-3.02
-1.61
-1.15
-1.77
-3.23
-5.01
-6.52
-7.29
-7.13
-6.15
-4.69
-3.13
-1.72
-0.52
0.58
1.72
2.98
4.29
5.52
6.52
7.23
7.70
8.08
8.50
8.96
9.34
9.50
9.31
8.82
8.21
7.70
7.43
7.39
7.48
7.57
7.63
7.72
7.91
8.21
8.47
8.45
7.92
6.77
5.02
2.80
0.31
-2.28
-4.81
-7.14
-9.14
-10.69
-11.78
-12.47
-12.94
-13.36
-13.84
-14.36
-14.76
-14.83
-14.41
-13.40
-11.87
-9.97
-7.91
-5.91
-4.12
-2.59
-1.31
-0.18
0.81
1.68
2.34
2.72
2.82
2.74
2.68
2.79
3.07
3.34
3.34
2.90
2.06
1.07
0.32
0.15
0.71
1.98
3.76
5.77
7.72
9.31
10.31
10.56
10.06
8.96
7.56
6.14
4.95
4.07
3.50
3.12
2.77
2.27
1.46
0.18
-1.63
-3.94
-6.63
-9.50
-12.33
-14.90
-17.00
-18.45
-19.05
-18.70
-17.41
-15.37
-12.91
-10.39
-8.14
-6.32
-4.91
-3.75
-2.68
-1.68
-0.81
-0.28
-0.25
-0.73
-1.56
-2.47
-3.18
-3.51
-3.42
-2.97
-2.24
-1.30
-0.22
0.85
1.77
2.41
2.80
3.14
3.76
4.91
6.63
8.68
10.66
12.18
13.04
13.27
13.06
12.60
12.08
11.55
11.04
10.51
9.91
9.17
8.17
6.81
5.02
2.88
0.59
-1.54
-3.16
-3.99
-3.87
-2.84
-1.14
0.88
2.86
4.50
5.67
6.39
6.76
6.91
6.92
6.86
6.76
6.64
6.46
6.15
5.63
4.86
3.89
2.90
2.10
1.67
1.65
1.95
2.38
2.74
2.90
2.82
2.51
1.98
1.30
0.49
-0.39
-1.31
-2.21
-3.05
-3.76
-4.31
-4.69
-4.98
-5.30
-5.80
-6.56
-7.59
-8.79
-9.99
-11.00
-11.68
-11.96
-11.79
-11.18
-10.14
-8.74
-7.08
-5.31
-3.57
-1.97
-0.59
0.53
1.38
2.01
2.47
2.85
3.25
3.71
4.18
4.59
4.80
4.77
4.51
4.18
3.94
3.92
4.13
4.49
4.82
4.97
4.82
4.36
3.63
2.73
1.77
0.83
-0.00
-0.69
-1.25
-1.71
-2.14
-2.61
-3.17
-3.86
-4.67
-5.58
-6.48
-7.25
-7.74
-7.82
-7.44
-6.63
-5.48
-4.10
-2.62
-1.14
0.27
1.57
2.76
3.81
4.70
5.38
5.78
5.84
5.57
5.09
4.59
4.23
4.10
4.14
4.22
4.18
3.94
3.54
3.03
2.50
1.98
1.46
0.92
0.35
-0.25
-0.82
-1.35
-1.82
-2.23
-2.63
-3.05
-3.53
-4.09
-4.72
-5.44
-6.24
-7.15
-8.15
-9.15
-9.96
-10.38
-10.24
-9.51
-8.31
-6.84
-5.30
-3.78
-2.32
-0.88
0.50
1.81
2.96
3.95
4.79
5.50
6.11
6.58
6.88
6.99
6.99
7.07
7.42
8.24
9.58
11.34
13.29
15.10
16.46
17.13
17.03
16.22
14.84
13.01
10.87
8.48
5.95
3.46
1.25
-0.53
-1.89
-3.02
-4.22
-5.76
-7.68
-9.79
-11.79
-13.43
-14.62
-15.36
-15.67
-15.49
-14.76
-13.51
-11.93
-10.31
-8.91
-7.79
-6.81
-5.80
-4.66
-3.48
-2.40
-1.57
-1.01
-0.65
-0.40
-0.26
-0.33
-0.71
-1.43
-2.37
-3.35
-4.21
-4.89
-5.44
-5.98
-6.73
-7.91
-9.70
-12.16
-15.08
-18.04
-20.26
-20.76
-18.79
-14.31
-8.10
-1.49
4.34
8.98
12.71
16.66
22.14
29.87
39.37
49.27
57.90
64.16
67.93
69.50
69.64
69.06
68.10
66.66
64.31
60.43
53.98
43.42
26.55
2.45
-27.27
-58.46
-86.03
-106.01
-117.27
-121.75
-119.30
-111.21
-99.38
-85.25
-69.02
-50.95
-32.66
-17.10
-6.98
-3.18
-5.08
-10.16
-15.33
-17.92
-17.21
-14.27
-11.07
-9.73
-11.64
-17.52
-26.68
-36.76
-44.22
-45.38
-37.71
-20.80
3.16
29.33
50.91
61.80
59.10
44.27
22.15
-1.20
-20.68
-33.44
-38.44
-36.83
-31.06
-23.89
-17.42
-12.34
-7.71
-1.29
9.28
25.84
47.38
70.11
89.85
104.69
115.92
126.70
139.35
153.61
167.59
177.68
180.63
175.45
164.01
149.32
132.95
113.78
81.83
34.64
-21.02
-73.40
-113.67
-139.25
-152.34
-156.93
-156.32
-151.45
-140.14
-120.84
-94.80
-66.23
-40.33
-21.20
-9.47
-4.19
-3.18
-3.20
-2.53
-1.47
-1.39
-3.20
-6.54
-10.11
-12.74
-13.77
-12.74
-10.22
-7.68
-6.44
-6.94
-8.66
-10.51
-11.64
-11.62
-10.25
-7.93
-5.44
-3.45
-2.19
-1.38
-0.50
0.75
2.47
4.66
7.17
9.83
12.50
15.14
17.71
20.04
21.69
22.35
22.04
21.20
20.49
20.42
21.17
22.52
24.07
25.21
25.67
25.67
25.73
26.33
27.58
29.30
31.13
32.71
33.26
32.09
28.77
23.10
14.96
4.17
-9.05
-23.82
-38.36
-50.99
-60.12
-64.82
-65.30
-63.17
-61.08
-61.66
-66.66
-72.11
-74.13
-70.61
-62.27
-51.17
-39.07
-27.18
-16.26
-7.02
-0.08
3.51
3.13
-0.90
-7.00
-12.71
-16.20
-15.51
-10.09
-1.05
8.70
16.02
18.91
17.51
13.72
10.22
9.28
11.71
16.90
23.02
28.20
30.95
30.58
27.30
21.85
15.33
8.80
3.24
-0.80
-3.24
-4.37
-4.74
-4.98
-5.65
-6.98
-8.89
-10.98
-12.70
-13.50
-13.11
-11.66
-9.78
-8.42
-8.39
-9.98
-12.77
-15.85
-18.30
-19.73
-20.37
-20.97
-22.31
-24.83
-28.43
-32.67
-37.02
-41.14
-44.81
-47.80
-49.73
-50.01
-48.02
-43.39
-36.11
-26.64
-15.86
-4.81
5.55
14.55
21.96
27.93
32.84
37.03
40.65
43.59
45.62
46.54
46.39
45.46
44.29
43.44
43.36
44.22
45.78
47.39
48.04
46.66
42.59
35.90
27.63
19.49
13.25
9.99
9.54
10.53
10.97
9.18
4.60
-1.97
-8.74
-13.74
-15.67
-14.38
-10.69
-5.94
-1.30
2.58
5.53
7.53
8.46
7.96
5.73
1.89
-2.92
-7.59
-11.01
-12.44
-11.82
-9.77
-7.20
-4.97
-3.61
-3.21
-3.59
-4.44
-5.50
-6.66
-7.94
-9.42
-11.19
-13.22
-15.43
-17.61
-19.59
-21.19
-22.29
-22.79
-22.58
-21.59
-19.78
-17.18
-13.93
-10.17
-6.06
-1.75
2.60
6.80
10.59
13.71
15.99
17.42
18.14
18.42
18.52
18.63
18.81
19.00
19.11
19.08
18.83
18.35
17.58
16.40
14.68
12.37
9.55
6.48
3.50
0.94
-1.06
-2.49
-3.51
-4.29
-4.99
-5.65
-6.16
-6.29
-5.75
-4.27
-1.78
1.50
5.12
8.53
11.33
13.44
15.04
16.40
17.64
18.60
19.03
18.72
17.76
16.42
15.08
13.97
13.11
12.35
11.50
10.49
9.40
8.38
7.54
6.84
6.13
5.16
3.67
1.50
-1.35
-4.74
-8.40
-12.02
-15.37
-18.26
-20.56
-22.07
-22.60
-21.98
-20.20
-17.45
-14.14
-10.73
-7.63
-5.06
-3.07
-1.54
-0.32
0.72
1.62
2.43
3.17
3.90
4.63
5.28
5.62
5.39
4.44
2.88
1.10
-0.37
-1.09
-0.95
-0.20
0.72
1.41
1.76
1.88
2.00
2.19
2.32
2.14
1.46
0.30
-1.17
-2.72
-4.17
-5.48
-6.69
-7.82
-8.82
-9.61
-10.08
-10.26
-10.25
-10.30
-10.63
-11.34
-12.31
-13.16
-13.32
-12.18
-9.35
-4.87
0.78
6.77
12.22
16.46
19.21
20.57
20.87
20.50
19.79
18.95
18.10
17.31
16.59
15.92
15.19
14.24
12.91
11.11
8.98
6.81
5.00
3.89
3.58
3.89
4.43
4.76
4.56
3.80
2.64
1.40
0.43
-0.07
0.00
0.61
1.63
2.92
4.35
5.80
7.17
8.36
9.23
9.64
9.52
8.86
7.81
6.59
5.42
4.49
3.88
3.59
3.49
3.46
3.33
3.02
2.52
1.93
1.38
0.94
0.58
0.18
-0.42
-1.30
-2.36
-3.37
-4.07
-4.36
-4.31
-4.15
-4.12
-4.37
-4.88
-5.52
-6.17
-6.79
-7.43
-8.12
-8.83
-9.39
-9.56
-9.19
-8.31
-7.12
-5.94
-5.05
-4.54
-4.29
-4.10
-3.79
-3.37
-2.96
-2.74
-2.84
-3.21
-3.72
-4.18
-4.51
-4.67
-4.71
-4.64
-4.46
-4.14
-3.69
-3.22
-2.82
-2.56
-2.44
-2.37
-2.24
-2.05
-1.87
-1.82
-2.02
-2.47
-3.14
-3.91
-4.71
-5.55
-6.48
-7.59
-8.85
-10.19
-11.41
-12.28
-12.63
-12.35
-11.46
-10.04
-8.21
-6.10
-3.82
-1.46
0.90
3.17
5.25
7.07
8.52
9.50
9.97
9.92
9.46
8.78
8.07
7.46
6.95
6.47
5.96
5.41
4.88
4.45
4.18
4.01
3.86
3.68
3.47
3.27
3.12
2.97
2.74
2.40
1.96
1.52
1.14
0.81
0.46
-0.07
-0.87
-1.95
-3.20
-4.44
-5.45
-6.01
-6.00
-5.34
-4.14
-2.59
-1.02
0.30
1.16
1.51
1.46
1.19
0.87
0.61
0.42
0.24
-0.01
-0.38
-0.85
-1.33
-1.74
-1.99
-2.11
-2.13
-2.10
-1.99
-1.76
-1.38
-0.93
-0.63
-0.73
-1.37
-2.44
-3.61
-4.46
-4.74
-4.46
-3.90
-3.43
-3.30
-3.54
-3.98
-4.42
-4.79
-5.16
-5.66
-6.34
-7.06
-7.54
-7.48
-6.76
-5.47
-3.89
-2.38
-1.21
-0.48
-0.13
0.04
0.19
0.39
0.61
0.75
0.70
0.42
-0.11
-0.84
-1.67
-2.48
-3.16
-3.64
-3.93
-4.14
-4.39
-4.82
-5.44
-6.21
-7.06
-7.92
-8.81
-9.81
-11.01
-12.46
-14.12
-15.92
-17.77
-19.65
-21.57
-23.56
-25.69
-28.01
-30.54
-33.24
-35.96
-38.49
-40.53
-41.82
-42.21
-41.71
-40.54
-39.11
-37.87
-37.16
-37.00
-37.01
-36.49
-34.63
-30.84
-24.99
-17.50
-9.20
-1.04
6.18
11.98
16.19
18.89
20.29
20.70
20.50
20.14
19.95
20.12
20.53
20.90
21.04
21.10
21.66
23.47
26.98
31.87
37.12
41.31
43.26
42.50
39.31
34.49
28.90
23.19
17.80
13.13
9.65
7.89
8.33
11.13
16.07
22.54
29.54
35.96
40.84
43.67
44.56
44.09
43.10
42.28
42.09
42.67
43.97
45.88
48.17
50.46
52.29
53.31
53.42
52.94
52.31
51.77
51.09
49.80
47.65
44.89
42.13
39.83
37.91
35.67
32.27
27.34
21.22
14.74
8.70
3.42
-1.28
-5.62
-9.52
-12.51
-14.07
-14.16
-13.35
-12.60
-12.65
-13.63
-14.94
-15.77
-15.46
-13.71
-10.74
-7.12
-3.64
-1.14
-0.33
-1.50
-4.34
-8.00
-11.40
-13.69
-14.62
-14.48
-13.81
-12.96
-11.84
-10.08
-7.35
-3.80
-0.07
2.87
4.20
3.48
0.86
-3.14
-7.72
-12.06
-15.46
-17.52
-18.28
-18.16
-17.81
-17.75
-18.07
-18.35
-17.84
-15.92
-12.47
-8.03
-3.60
-0.19
1.61
1.78
0.84
-0.46
-1.35
-1.30
0.00
2.49
5.65
8.46
9.44
7.20
1.15
-7.96
-18.00
-26.22
-30.28
-29.29
-24.13
-17.23
-11.58
-9.60
-12.24
-18.92
-27.85
-36.78
-43.75
-47.64
-48.55
-47.61
-46.23
-45.31
-44.82
-43.82
-40.97
-35.22
-26.58
-16.37
-6.71
0.44
4.32
5.22
4.06
1.70
-1.55
-5.03
-7.86
-9.60
-10.94
-12.90
-16.09
-19.92
-22.98
-23.52
-20.31
-13.54
-4.92
2.33
6.86
8.05
6.22
2.31
-2.32
-6.32
-8.92
-9.96
-9.77
-8.68
-7.15
-4.90
-1.79
2.63
8.88
16.82
25.40
33.04
38.55
41.59
42.90
43.57
44.12
43.91
41.32
34.88
24.44
11.73
-0.39
-9.21
-13.40
-13.44
-11.17
-8.85
-8.10
-9.46
-12.38
-15.87
-19.00
-21.28
-22.65
-23.28
-23.30
-22.67
-21.10
-18.31
-14.17
-8.92
-3.13
2.43
7.07
10.34
12.15
12.81
12.88
13.06
13.93
15.88
18.98
23.01
27.44
31.66
35.08
37.31
38.27
38.10
37.15
35.81
34.40
33.11
31.97
30.84
29.47
27.59
25.07
22.00
18.66
15.44
12.59
10.18
8.03
5.87
3.42
0.39
-3.54
-8.66
-15.14
-22.76
-30.76
-38.01
-43.32
-45.99
-46.08
-44.38
-42.01
-39.96
-38.68
-38.05
-37.63
-36.95
-35.79
-34.22
-32.46
-30.68
-28.91
-27.01
-24.80
-22.25
-19.52
-16.94
-14.83
-13.28
-12.14
-11.10
-9.84
-8.29
-6.66
-5.27
-4.41
-4.17
-4.40
-4.81
-5.15
-5.28
-5.20
-5.02
-4.85
-4.81
-4.94
-5.28
-5.81
-6.45
-7.03
-7.34
-7.10
-6.09
-4.23
-1.60
1.54
4.82
7.88
10.49
12.59
14.24
15.47
16.30
16.60
16.25
15.26
13.82
12.29
11.04
10.26
9.91
9.80
9.67
9.36
8.87
8.29
7.70
7.13
6.60
6.19
6.08
6.46
7.30
8.23
8.61
7.88
5.91
3.13
0.35
-1.74
-3.01
-3.91
-5.13
-7.08
-9.43
-11.34
-11.91
-10.86
-8.67
-6.34
-4.71
-3.89
-3.25
-1.80
1.07
5.29
10.08
14.43
17.56
19.24
19.75
19.56
19.10
18.61
18.14
17.62
16.92
15.87
14.36
12.41
10.23
8.22
6.78
6.20
6.46
7.24
7.98
8.05
6.94
4.29
0.08
-5.39
-11.44
-17.20
-21.78
-24.55
-25.34
-24.46
-22.51
-20.18
-18.00
-16.23
-14.91
-13.93
-13.16
-12.54
-12.03
-11.55
-10.93
-9.90
-8.25
-5.96
-3.23
-0.52
1.69
3.09
3.65
3.65
3.53
3.68
4.26
5.18
6.17
6.98
7.53
7.88
8.25
8.76
9.45
10.18
10.77
11.08
11.07
10.83
10.49
10.13
9.74
9.26
8.63
7.86
7.00
6.17
5.38
4.61
3.81
2.90
1.89
0.84
-0.17
-1.05
-1.78
-2.36
-2.82
-3.18
-3.50
-3.87
-4.41
-5.28
-6.53
-8.08
-9.65
-10.88
-11.41
-10.99
-9.58
-7.35
-4.62
-1.79
0.73
2.67
3.94
4.59
4.82
4.86
4.89
4.99
5.16
5.34
5.49
5.58
5.58
5.51
5.32
5.03
4.66
4.30
4.06
3.97
3.99
4.02
3.95
3.72
3.38
3.00
2.66
2.37
2.08
1.70
1.22
0.67
0.12
-0.33
-0.70
-1.09
-1.60
-2.33
-3.31
-4.47
-5.74
-7.01
-8.18
-9.16
-9.80
-9.94
-9.47
-8.37
-6.74
-4.76
-2.65
-0.61
1.21
2.73
3.89
4.70
5.20
5.46
5.58
5.58
5.47
5.23
4.86
4.42
3.99
3.67
3.48
3.40
3.34
3.24
3.07
2.85
2.62
2.42
2.26
2.15
2.05
1.93
1.72
1.35
0.81
0.13
-0.63
-1.36
-2.05
-2.67
-3.26
-3.82
-4.34
-4.81
-5.26
-5.80
-6.55
-7.53
-8.62
-9.56
-9.99
-9.64
-8.43
-6.52
-4.23
-1.90
0.25
2.08
3.59
4.77
5.63
6.13
6.29
6.18
5.92
5.58
5.22
4.85
4.45
4.07
3.77
3.65
3.71
3.92
4.17
4.34
4.38
4.27
4.04
3.70
3.28
2.81
2.31
1.84
1.41
1.02
0.59
0.08
-0.53
-1.19
-1.83
-2.35
-2.74
-3.03
-3.36
-3.84
-4.57
-5.58
-6.83
-8.20
-9.51
-10.49
-10.89
-10.53
-9.34
-7.44
-5.06
-2.55
-0.18
1.84
3.43
4.61
5.41
5.90
6.16
6.25
6.21
6.05
5.75
5.31
4.77
4.22
3.76
3.46
3.35
3.39
3.52
3.65
3.71
3.64
3.41
3.00
2.47
1.87
1.32
0.87
0.55
0.32
0.11
-0.15
-0.49
-0.92
-1.43
-1.97
-2.51
-3.03
-3.53
-4.07
-4.72
-5.58
-6.65
-7.87
-9.05
-9.94
-10.25
-9.83
-8.67
-6.94
-4.91
-2.83
-0.86
0.93
2.55
3.96
5.07
5.80
6.07
5.93
5.52
5.01
4.54
4.15
3.79
3.42
3.02
2.64
2.37
2.27
2.36
2.60
2.89
3.15
3.34
3.43
3.44
3.37
3.21
2.89
2.36
1.57
0.56
-0.55
-1.58
-2.41
-2.95
-3.28
-3.51
-3.71
-3.95
-4.21
-4.52
-4.94
-5.56
-6.34
-7.10
-7.53
-7.31
-6.30
-4.63
-2.66
-0.81
0.64
1.64
2.34
2.93
3.51
4.05
4.47
4.66
4.58
4.30
3.94
3.64
3.50
3.57
3.79
4.07
4.24
4.16
3.76
3.08
2.26
1.45
0.77
0.27
-0.10
-0.44
-0.83
-1.30
-1.79
-2.19
-2.41
-2.44
-2.41
-2.48
-2.81
-3.45
-4.32
-5.33
-6.34
-7.30
-8.17
-8.86
-9.23
-9.10
-8.33
-6.96
-5.15
-3.20
-1.37
0.17
1.32
2.11
2.61
2.88
3.02
3.09
3.11
3.06
2.85
2.40
1.71
0.85
0.00
-0.66
-1.01
-1.08
-1.00
-0.98
-1.17
-1.59
-2.18
-2.83
-3.50
-4.22
-5.05
-6.04
-7.13
-8.14
-8.92
-9.39
-9.57
-9.58
-9.47
-9.19
-8.64
-7.76
-6.68
-5.65
-4.94
-4.62
-4.46
-4.01
-2.86
-0.84
1.84
4.67
7.09
8.72
9.51
9.66
9.51
9.31
9.18
9.07
8.86
8.44
7.75
6.88
5.92
5.03
4.31
3.80
3.47
3.24
3.02
2.71
2.26
1.64
0.81
-0.28
-1.63
-3.20
-4.83
-6.29
-7.30
-7.69
-7.41
-6.60
-5.49
-4.32
-3.25
-2.38
-1.72
-1.27
-1.00
-0.90
-0.92
-1.05
-1.28
-1.57
-1.82
-1.90
-1.61
-0.84
0.40
1.93
3.48
4.79
5.76
6.40
6.82
7.10
7.27
7.24
6.96
6.44
5.79
5.14
4.62
4.30
4.14
4.08
4.07
4.08
4.12
4.16
4.14
3.95
3.50
2.76
1.83
0.88
0.12
-0.34
-0.54
-0.65
-0.91
-1.47
-2.39
-3.55
-4.80
-5.96
-6.91
-7.57
-7.91
-7.92
-7.63
-7.13
-6.55
-6.04
-5.69
-5.46
-5.24
-4.82
-4.07
-2.94
-1.53
0.00
1.49
2.85
4.06
5.13
6.04
6.71
7.04
7.03
6.76
6.39
6.10
6.00
6.08
6.25
6.40
6.46
6.43
6.30
6.09
5.76
5.28
4.60
3.73
2.71
1.55
0.31
-0.98
-2.26
-3.52
-4.79
-6.13
-7.58
-9.11
-10.62
-11.91
-12.80
-13.22
-13.21
-12.88
-12.41
-11.91
-11.44
-10.98
-10.45
-9.76
-8.71
-7.13
-4.89
-1.99
1.38
4.91
8.22
11.00
13.04
14.25
14.62
14.20
13.11
11.56
9.83
8.22
7.01
6.31
6.09
6.10
6.04
5.58
4.54
2.93
0.91
-1.23
-3.21
-4.84
-6.06
-6.90
-7.44
-7.73
-7.74
-7.43
-6.77
-5.80
-4.63
-3.36
-2.03
-0.63
0.83
2.31
3.64
4.59
4.98
4.71
3.87
2.62
1.23
-0.05
-0.98
-1.36
-1.02
0.06
1.74
3.65
5.35
6.42
6.72
6.40
5.86
5.53
5.61
6.01
6.39
6.37
5.77
4.70
3.52
2.64
2.28
2.44
2.90
3.42
3.82
4.08
4.28
4.48
4.72
4.95
5.12
5.15
4.98
4.51
3.68
2.46
0.95
-0.67
-2.15
-3.35
-4.23
-4.98
-5.88
-7.22
-9.11
-11.39
-13.64
-15.34
-16.08
-15.73
-14.54
-13.04
-11.81
-11.23
-11.41
-12.12
-12.90
-13.22
-12.44
-9.93
-5.26
1.48
9.42
17.10
23.00
26.33
27.46
27.78
28.96
32.01
36.67
41.65
45.27
46.37
44.71
40.87
35.70
29.76
23.17
15.77
7.55
-1.20
-9.81
-17.53
-23.75
-28.25
-31.30
-33.56
-35.89
-38.99
-43.06
-47.63
-51.53
-53.40
-52.22
-47.90
-41.38
-34.28
-28.21
-23.98
-21.27
-18.80
-15.10
-9.29
-1.67
6.51
13.57
18.28
20.29
20.20
19.09
17.98
17.42
17.38
17.47
17.33
16.84
16.24
15.91
16.17
17.11
18.54
20.08
21.34
22.08
22.28
22.15
21.92
21.76
21.63
21.35
20.67
19.40
17.55
15.27
12.84
10.50
8.42
6.64
5.11
3.73
2.43
1.19
0.07
-0.86
-1.58
-2.17
-2.74
-3.42
-4.24
-5.11
-5.84
-6.27
-6.31
-6.02
-5.57
-5.13
-4.83
-4.69
-4.69
-4.78
-4.95
-5.22
-5.60
-6.06
-6.52
-6.86
-7.00
-6.91
-6.64
-6.29
-6.00
-5.83
-5.81
-5.90
-6.03
-6.19
-6.40
-6.73
-7.25
-7.93
-8.65
-9.21
-9.43
-9.23
-8.63
-7.76
-6.77
-5.72
-4.65
-3.58
-2.59
-1.79
-1.34
-1.31
-1.68
-2.36
-3.20
-4.08
-4.94
-5.78
-6.59
-7.36
-8.07
-8.63
-9.05
-9.29
-9.40
-9.38
-9.23
-8.90
-8.22
-7.03
-5.13
-2.45
0.92
4.66
8.32
11.44
13.63
14.70
14.65
13.70
12.12
10.17
8.05
5.87
3.69
1.56
-0.46
-2.27
-3.75
-4.76
-5.24
-5.19
-4.73
-4.08
-3.55
-3.48
-4.16
-5.74
-8.06
-10.65
-12.73
-13.43
-12.12
-8.61
-3.28
3.05
9.33
14.67
18.45
20.53
21.09
20.57
19.45
18.22
17.21
16.61
16.44
16.57
16.77
16.82
16.54
15.91
15.03
14.06
13.13
12.33
11.65
11.05
10.52
10.12
9.90
9.91
10.06
10.15
9.88
8.93
7.02
3.98
-0.21
-5.38
-11.24
-17.42
-23.61
-29.74
-35.95
-42.50
-49.59
-57.16
-64.85
-71.83
-77.02
-79.31
-77.89
-72.74
-64.71
-55.41
-46.65
-39.86
-35.69
-34.01
-34.35
-36.25
-39.45
-43.79
-48.88
-53.94
-57.96
-59.98
-59.23
-55.08
-46.81
-33.73
-15.51
7.20
32.55
57.74
79.93
97.11
108.63
115.05
117.45
116.81
113.74
108.67
102.20
95.28
88.99
84.12
80.90
78.98
77.84
77.11
76.82
77.26
78.81
81.67
85.88
91.34
97.88
105.05
112.04
117.60
120.34
119.19
113.66
103.84
90.10
72.78
52.25
29.14
4.69
-19.23
-40.51
-57.48
-69.47
-76.89
-80.87
-82.57
-82.79
-81.87
-79.96
-77.34
-74.50
-71.98
-70.10
-68.82
-67.71
-66.25
-64.04
-61.07
-57.72
-54.64
-52.50
-51.69
-52.24
-53.76
-55.47
-56.49
-56.04
-53.77
-49.87
-45.05
-40.28
-36.40
-33.82
-32.45
-31.87
-31.56
-31.14
-30.42
-29.20
-27.28
-24.46
-20.73
-16.43
-12.20
-8.72
-6.38
-5.12
-4.47
-3.89
-3.11
-2.27
-1.75
-1.88
-2.72
-4.02
-5.41
-6.59
-7.51
-8.22
-8.82
-9.28
-9.56
-9.67
-9.73
-9.94
-10.41
-11.00
-11.36
-11.11
-10.06
-8.27
-6.04
-3.71
-1.48
0.57
2.43
4.03
5.21
5.84
5.93
5.69
5.42
5.41
5.71
6.25
6.79
7.16
7.32
7.28
7.10
6.78
6.23
5.38
4.21
2.81
1.37
0.07
-1.01
-1.89
-2.67
-3.44
-4.21
-4.89
-5.37
-5.57
-5.46
-5.06
-4.34
-3.26
-1.74
0.17
2.23
4.04
5.18
5.48
5.09
4.50
4.28
4.84
6.23
8.16
10.17
11.85
13.03
13.76
14.18
14.40
14.39
14.05
13.32
12.28
11.08
9.93
8.95
8.13
7.38
6.59
5.75
4.88
4.04
3.26
2.53
1.82
1.08
0.28
-0.63
-1.70
-2.94
-4.24
-5.40
-6.14
-6.25
-5.64
-4.38
-2.69
-0.87
0.84
2.22
3.17
3.68
3.85
3.81
3.69
3.55
3.39
3.19
2.93
2.68
2.50
2.46
2.58
2.79
3.02
3.19
3.26
3.21
3.03
2.71
2.20
1.55
0.81
0.06
-0.62
-1.20
-1.73
-2.26
-2.87
-3.59
-4.36
-5.10
-5.70
-6.05
-6.08
-5.75
-5.05
-4.02
-2.75
-1.37
-0.02
1.18
2.18
2.93
3.47
3.83
4.08
4.30
4.57
4.94
5.41
5.92
6.34
6.57
6.55
6.32
5.97
5.59
5.25
4.96
4.71
4.42
4.08
3.65
3.15
2.59
1.95
1.22
0.35
-0.65
-1.73
-2.81
-3.83
-4.72
-5.47
-6.02
-6.27
-6.09
-5.37
-4.14
-2.56
-0.93
0.50
1.60
2.42
3.09
3.72
4.28
4.67
4.79
4.62
4.27
3.91
3.71
3.73
3.94
4.22
4.47
4.60
4.58
4.44
4.23
4.02
3.84
3.65
3.42
3.07
2.60
2.05
1.49
0.99
0.55
0.09
-0.50
-1.32
-2.32
-3.32
-4.06
-4.30
-3.92
-3.00
-1.74
-0.41
0.79
1.77
2.54
3.19
3.76
4.24
4.61
4.80
4.79
4.64
4.42
4.22
4.12
4.10
4.07
3.93
3.61
3.15
2.70
2.41
2.39
2.65
3.06
3.47
3.75
3.87
3.79
3.46
2.78
1.66
0.14
-1.53
-3.02
-4.04
-4.49
-4.54
-4.43
-4.34
-4.25
-3.93
-3.12
-1.72
0.14
2.13
3.87
5.12
5.84
6.15
6.27
6.33
6.37
6.33
6.11
5.66
5.05
4.45
4.04
3.92
4.02
4.11
3.97
3.44
2.52
1.37
0.21
-0.72
-1.30
-1.45
-1.22
-0.67
0.07
0.89
1.66
2.29
2.69
2.77
2.49
1.85
0.93
-0.12
-1.07
-1.69
-1.82
-1.43
-0.61
0.48
1.63
2.68
3.55
4.16
4.51
4.54
4.24
3.65
2.83
1.89
0.94
0.05
-0.70
-1.30
-1.73
-1.98
-2.04
-1.93
-1.69
-1.39
-1.20
-1.26
-1.70
-2.52
-3.54
-4.45
-4.96
-4.90
-4.32
-3.47
-2.63
-1.97
-1.51
-1.18
-0.93
-0.81
-0.92
-1.28
-1.75
-2.08
-1.99
-1.39
-0.41
0.67
1.53
1.98
1.98
1.63
1.08
0.46
-0.15
-0.68
-1.08
-1.27
-1.19
-0.85
-0.30
0.31
0.79
1.02
0.97
0.75
0.59
0.73
1.31
2.23
3.16
3.69
3.51
2.57
1.12
-0.46
-1.83
-2.91
-3.90
-5.05
-6.55
-8.27
-9.90
-11.01
-11.28
-10.57
-8.87
-6.28
-2.95
0.83
4.53
7.42
8.72
8.06
5.69
2.53
-0.25
-1.75
-1.77
-0.81
0.31
0.97
1.06
0.98
1.25
2.08
3.21
4.09
4.28
3.78
3.04
2.67
3.04
4.05
5.18
5.82
5.55
4.38
2.71
1.06
-0.14
-0.73
-0.81
-0.63
-0.42
-0.30
-0.27
-0.24
-0.14
0.07
0.39
0.77
1.14
1.36
1.33
0.98
0.33
-0.54
-1.45
-2.21
-2.70
-2.85
-2.70
-2.32
-1.80
-1.21
-0.61
-0.03
0.45
0.74
0.76
0.47
-0.10
-0.83
-1.53
-2.06
-2.32
-2.35
-2.32
-2.38
-2.64
-3.07
-3.59
-4.06
-4.40
-4.54
-4.42
-3.95
-3.04
-1.71
-0.18
1.22
2.11
2.33
1.93
1.22
0.53
0.06
-0.14
-0.18
-0.15
-0.12
-0.15
-0.35
-0.83
-1.64
-2.67
-3.69
-4.39
-4.63
-4.47
-4.11
-3.80
-3.66
-3.64
-3.64
-3.61
-3.62
-3.74
-3.98
-4.23
-4.28
-3.97
-3.29
-2.31
-1.18
-0.04
1.00
1.83
2.29
2.26
1.71
0.81
-0.08
-0.51
-0.16
1.00
2.65
4.25
5.27
5.40
4.66
3.35
1.88
0.62
-0.19
-0.55
-0.61
-0.58
-0.70
-1.12
-1.87
-2.94
-4.25
-5.74
-7.35
-9.03
-10.65
-12.01
-12.94
-13.35
-13.27
-12.91
-12.57
-12.46
-12.67
-13.17
-13.79
-14.45
-15.16
-16.07
-17.35
-19.13
-21.42
-24.10
-26.95
-29.59
-31.61
-32.60
-32.32
-30.79
-28.27
-25.19
-21.93
-18.74
-15.71
-12.93
-10.55
-8.89
-8.25
-8.71
-10.06
-11.82
-13.39
-14.23
-13.90
-12.02
-8.38
-2.96
3.89
11.55
19.24
26.31
32.38
37.27
40.82
42.70
42.61
40.50
36.91
32.97
30.06
29.14
30.33
32.84
35.33
36.53
35.64
32.38
26.82
19.07
9.20
-2.63
-15.92
-29.77
-42.99
-54.45
-63.23
-68.67
-70.23
-67.45
-60.03
-48.15
-32.71
-15.29
2.21
18.10
31.32
41.61
49.21
54.47
57.57
58.53
57.44
54.73
51.20
47.78
45.13
43.40
42.18
40.86
38.93
36.35
33.52
30.96
29.02
27.65
26.51
25.22
23.59
21.76
20.05
18.77
18.04
17.74
17.62
17.36
16.72
15.58
13.96
12.03
10.09
8.45
7.28
6.51
5.82
4.79
3.16
1.02
-1.18
-2.81
-3.37
-2.71
-1.13
0.83
2.69
4.09
4.85
4.70
3.29
0.20
-4.69
-11.02
-17.93
-24.46
-30.02
-34.72
-39.33
-44.71
-51.23
-58.46
-65.28
-70.49
-73.40
-74.05
-73.04
-70.85
-67.38
-61.90
-53.49
-41.70
-27.12
-11.29
3.73
16.20
25.18
30.68
33.31
33.89
33.05
31.24
28.86
26.38
24.30
22.95
22.34
22.15
21.86
21.10
19.72
17.93
16.05
14.38
13.03
11.99
11.21
10.72
10.57
10.72
11.01
11.12
10.79
10.01
9.08
8.54
8.91
10.44
13.01
16.22
19.61
22.82
25.66
28.07
29.97
31.25
31.78
31.53
30.62
29.31
27.94
26.79
25.94
25.26
24.39
22.97
20.74
17.75
14.28
10.79
7.58
4.72
2.00
-0.93
-4.28
-7.97
-11.69
-15.05
-17.81
-19.96
-21.66
-23.06
-24.18
-24.80
-24.67
-23.65
-21.85
-19.59
-17.27
-15.18
-13.42
-11.90
-10.45
-8.95
-7.38
-5.79
-4.32
-3.09
-2.15
-1.44
-0.76
0.20
1.80
4.28
7.65
11.61
15.56
18.76
20.49
20.22
17.68
12.81
5.82
-2.82
-12.38
-21.93
-30.57
-37.62
-42.83
-46.31
-48.36
-49.19
-48.86
-47.25
-44.38
-40.47
-35.99
-31.51
-27.46
-24.00
-21.10
-18.66
-16.66
-15.19
-14.32
-14.07
-14.26
-14.70
-15.19
-15.61
-15.87
-15.82
-15.32
-14.25
-12.64
-10.68
-8.65
-6.81
-5.27
-3.97
-2.81
-1.73
-0.77
-0.06
0.35
0.51
0.60
0.77
1.10
1.49
1.78
1.85
1.67
1.34
1.00
0.77
0.68
0.69
0.73
0.69
0.53
0.25
-0.12
-0.55
-1.01
-1.52
-2.11
-2.76
-3.42
-4.00
-4.40
-4.59
-4.61
-4.51
-4.33
-4.08
-3.67
-2.99
-1.97
-0.61
1.05
2.82
4.53
5.98
7.05
7.71
8.03
8.14
8.18
8.20
8.21
8.13
7.91
7.54
7.05
6.49
5.91
5.35
4.85
4.46
4.22
4.10
4.04
3.95
3.74
3.39
2.92
2.40
1.89
1.45
1.11
0.86
0.68
0.51
0.28
-0.00
-0.28
-0.43
-0.30
0.17
0.98
2.04
3.25
4.56
5.95
7.41
8.83
10.05
10.84
11.13
10.94
10.50
10.02
9.69
9.51
9.43
9.30
9.07
8.76
8.45
8.22
8.11
8.08
8.05
7.96
7.74
7.42
7.02
6.57
6.09
5.57
4.99
4.33
3.63
2.94
2.30
1.66
0.87
-0.22
-1.61
-3.06
-4.17
-4.53
-4.00
-2.82
-1.51
-0.62
-0.48
-1.03
-1.94
-2.83
-3.55
-4.15
-4.80
-5.54
-6.17
-6.32
-5.63
-3.95
-1.44
1.53
4.43
6.80
8.34
9.00
8.93
8.45
7.89
7.53
7.47
7.60
7.65
7.39
6.68
5.62
4.45
3.47
2.87
2.66
2.70
2.70
2.42
1.71
0.63
-0.60
-1.73
-2.49
-2.78
-2.59
-2.05
-1.35
-0.65
-0.06
0.38
0.66
0.78
0.74
0.54
0.25
-0.01
-0.12
-0.05
0.11
0.15
-0.09
-0.68
-1.41
-1.98
-2.11
-1.79
-1.34
-1.24
-1.91
-3.43
-5.51
-7.62
-9.27
-10.25
-10.63
-10.67
-10.60
-10.55
-10.53
-10.49
-10.41
-10.31
-10.20
-10.03
-9.65
-8.90
-7.66
-5.90
-3.71
-1.25
1.25
3.58
5.48
6.72
7.19
6.88
5.98
4.79
3.65
2.80
2.35
2.27
2.42
2.66
2.88
3.01
3.05
3.00
2.86
2.61
2.22
1.68
1.03
0.35
-0.22
-0.58
-0.72
-0.79
-1.04
-1.74
-3.11
-5.17
-7.69
-10.30
-12.58
-14.17
-14.94
-14.89
-14.12
-12.74
-10.76
-8.20
-5.18
-1.99
0.94
3.18
4.46
4.84
4.65
4.33
4.25
4.59
5.29
6.18
7.09
7.90
8.54
8.90
8.77
7.89
6.13
3.62
0.81
-1.68
-3.21
-3.43
-2.43
-0.65
1.32
2.94
3.94
4.28
3.99
3.06
1.42
-0.93
-3.84
-6.92
-9.59
-11.32
-11.72
-10.68
-8.31
-4.93
-0.89
3.49
7.87
11.92
15.20
17.24
17.61
16.08
12.76
8.16
3.11
-1.48
-4.84
-6.57
-6.74
-5.74
-4.12
-2.34
-0.68
0.81
2.18
3.43
4.48
5.14
5.22
4.66
3.57
2.19
0.84
-0.27
-1.06
-1.55
-1.85
-2.05
-2.21
-2.38
-2.63
-3.08
-3.86
-5.00
-6.41
-7.81
-8.83
-9.15
-8.62
-7.31
-5.45
-3.37
-1.40
0.28
1.53
2.37
2.84
3.05
3.10
3.09
3.07
2.99
2.82
2.53
2.17
1.90
1.84
2.03
2.38
2.72
2.90
2.91
2.85
2.87
3.05
3.39
3.76
3.97
3.87
3.33
2.29
0.89
-0.63
-1.95
-2.81
-3.12
-3.04
-2.84
-2.82
-3.12
-3.71
-4.47
-5.32
-6.19
-7.05
-7.78
-8.16
-7.97
-7.13
-5.74
-4.06
-2.42
-1.01
0.10
0.99
1.77
2.45
2.96
3.19
3.09
2.73
2.28
1.96
1.92
2.17
2.62
3.10
3.50
3.73
3.81
3.74
3.50
3.03
2.34
1.52
0.74
0.14
-0.19
-0.33
-0.40
-0.55
-0.81
-1.16
-1.55
-1.95
-2.39
-2.93
-3.61
-4.37
-5.08
-5.56
-5.68
-5.42
-4.88
-4.25
-3.66
-3.18
-2.77
-2.31
-1.66
-0.79
0.23
1.25
2.11
2.76
3.27
3.76
4.31
4.88
5.29
5.36
4.95
4.14
3.12
2.19
1.57
1.33
1.39
1.57
1.71
1.75
1.77
1.90
2.21
2.63
2.95
2.92
2.34
1.23
-0.20
-1.66
-2.89
-3.79
-4.46
-5.07
-5.76
-6.52
-7.23
-7.70
-7.81
-7.52
-6.95
-6.26
-5.56
-4.89
-4.18
-3.33
-2.29
-1.10
0.15
1.28
2.15
2.73
3.06
3.28
3.51
3.86
4.32
4.82
5.25
5.54
5.72
5.87
6.11
6.50
6.98
7.44
7.74
7.78
7.53
6.97
6.11
4.92
3.40
1.62
-0.27
-2.01
-3.39
-4.23
-4.57
-4.55
-4.40
-4.32
-4.37
-4.46
-4.41
-4.02
-3.20
-1.97
-0.54
0.87
2.04
2.87
3.37
3.60
3.65
3.57
3.37
3.07
2.70
2.37
2.20
2.29
2.67
3.23
3.76
4.02
3.88
3.42
2.90
2.67
2.95
3.73
4.69
5.38
5.41
4.58
3.02
1.04
-0.98
-2.71
-3.98
-4.76
-5.13
-5.20
-5.10
-4.91
-4.65
-4.28
-3.75
-3.05
-2.27
-1.56
-1.01
-0.60
-0.15
0.60
1.83
3.56
5.57
7.54
9.15
10.13
10.33
9.68
8.20
6.01
3.42
0.80
-1.44
-3.02
-3.91
-4.25
-4.30
-4.22
-4.11
-3.92
-3.61
-3.24
-2.96
-2.91
-3.15
-3.61
-4.15
-4.66
-5.11
-5.50
-5.89
-6.21
-6.41
-6.41
-6.26
-6.08
-6.01
-6.13
-6.33
-6.43
-6.21
-5.59
-4.61
-3.41
-2.11
-0.75
0.67
2.17
3.70
5.21
6.55
7.61
8.36
8.78
8.94
8.92
8.80
8.65
8.50
8.36
8.24
8.13
8.05
8.00
7.92
7.74
7.35
6.64
5.55
4.09
2.39
0.61
-1.07
-2.58
-3.91
-5.16
-6.42
-7.70
-8.96
-10.08
-10.95
-11.56
-11.97
-12.25
-12.50
-12.73
-12.89
-12.89
-12.68
-12.21
-11.47
-10.50
-9.34
-8.06
-6.70
-5.29
-3.85
-2.37
-0.91
0.46
1.63
2.48
2.99
3.18
3.18
3.11
3.09
3.22
3.56
4.11
4.85
5.70
6.53
7.17
7.47
7.34
6.83
6.08
5.30
4.67
4.23
3.95
3.66
3.20
2.50
1.61
0.69
-0.10
-0.72
-1.27
-1.96
-2.92
-4.10
-5.28
-6.12
-6.36
-5.94
-5.02
-3.87
-2.71
-1.67
-0.74
0.16
1.04
1.85
2.49
2.85
2.90
2.72
2.45
2.24
2.21
2.41
2.78
3.21
3.59
3.80
3.79
3.57
3.19
2.76
2.39
2.17
2.15
2.27
2.45
2.53
2.44
2.13
1.64
1.03
0.40
-0.23
-0.84
-1.42
-2.02
-2.67
-3.40
-4.17
-4.90
-5.46
-5.69
-5.52
-4.94
-4.04
-2.97
-1.78
-0.52
0.85
2.30
3.72
4.91
5.67
5.89
5.62
5.06
4.46
4.03
3.86
3.87
3.93
3.91
3.74
3.42
3.07
2.76
2.56
2.45
2.33
2.07
1.60
0.93
0.18
-0.54
-1.11
-1.56
-1.97
-2.45
-3.02
-3.62
-4.13
-4.47
-4.68
-4.85
-5.14
-5.62
-6.24
-6.83
-7.18
-7.09
-6.45
-5.29
-3.72
-1.95
-0.21
1.31
2.49
3.32
3.87
4.25
4.54
4.74
4.82
4.72
4.47
4.12
3.76
3.47
3.29
3.14
2.96
2.72
2.46
2.27
2.24
2.37
2.57
2.67
2.59
2.32
2.00
1.76
1.67
1.62
1.43
0.93
0.11
-0.85
-1.72
-2.35
-2.73
-3.02
-3.40
-4.00
-4.79
-5.67
-6.49
-7.18
-7.64
-7.83
-7.69
-7.18
-6.35
-5.27
-4.02
-2.69
-1.30
0.11
1.46
2.62
3.45
3.88
3.98
3.87
3.72
3.64
3.62
3.62
3.58
3.49
3.42
3.41
3.45
3.46
3.36
3.04
2.54
1.91
1.29
0.75
0.37
0.10
-0.08
-0.23
-0.39
-0.61
-0.93
-1.36
-1.90
-2.47
-3.00
-3.41
-3.69
-3.88
-4.06
-4.32
-4.75
-5.36
-6.10
-6.89
-7.58
-8.03
-8.15
-7.91
-7.37
-6.63
-5.76
-4.81
-3.79
-2.69
-1.57
-0.50
0.43
1.18
1.76
2.22
2.63
3.06
3.51
3.97
4.40
4.76
5.00
5.09
5.03
4.85
4.62
4.40
4.23
4.10
3.99
3.87
3.72
3.57
3.42
3.24
2.97
2.53
1.91
1.18
0.45
-0.15
-0.60
-0.99
-1.47
-2.17
-3.09
-4.08
-4.95
-5.55
-5.83
-5.82
-5.63
-5.32
-4.89
-4.32
-3.60
-2.79
-2.00
-1.33
-0.79
-0.32
0.22
0.92
1.73
2.53
3.11
3.34
3.24
2.94
2.66
2.57
2.72
3.04
3.38
3.60
3.62
3.42
3.06
2.59
2.09
1.63
1.25
0.95
0.70
0.43
0.08
-0.40
-0.95
-1.51
-1.99
-2.32
-2.50
-2.64
-2.87
-3.32
-4.02
-4.92
-5.83
-6.57
-7.02
-7.14
-6.98
-6.58
-5.97
-5.11
-3.99
-2.70
-1.40
-0.30
0.49
1.00
1.37
1.70
2.01
2.21
2.14
1.79
1.29
0.96
1.09
1.80
2.92
4.11
4.97
5.25
4.96
4.32
3.62
3.06
2.73
2.54
2.39
2.17
1.90
1.70
1.72
2.08
2.76
3.62
4.41
4.88
4.86
4.32
3.36
2.13
0.74
-0.70
-2.12
-3.41
-4.35
-4.75
-4.47
-3.57
-2.29
-0.96
0.13
0.88
1.35
1.69
2.04
2.44
2.86
3.24
3.54
3.76
3.92
4.02
4.02
3.89
3.63
3.31
3.02
2.83
2.72
2.63
2.46
2.14
1.68
1.16
0.67
0.25
-0.08
-0.37
-0.63
-0.86
-1.04
-1.20
-1.39
-1.69
-2.15
-2.71
-3.26
-3.69
-3.97
-4.18
-4.48
-4.99
-5.67
-6.33
-6.69
-6.52
-5.76
-4.51
-3.00
-1.43
0.04
1.36
2.47
3.35
3.92
4.14
4.02
3.65
3.13
2.58
2.04
1.56
1.15
0.85
0.68
0.67
0.79
0.98
1.14
1.19
1.09
0.84
0.48
0.02
-0.49
-1.04
-1.59
-2.11
-2.56
-2.90
-3.12
-3.22
-3.26
-3.34
-3.53
-3.90
-4.42
-5.06
-5.71
-6.31
-6.82
-7.22
-7.45
-7.45
-7.14
-6.49
-5.53
-4.39
-3.19
-2.02
-0.94
0.05
0.94
1.68
2.22
2.55
2.69
2.72
2.74
2.82
2.97
3.20
3.46
3.72
3.95
4.09
4.10
4.01
3.86
3.78
3.85
4.14
4.59
5.11
5.51
5.66
5.51
5.08
4.52
3.99
3.62
3.43
3.33
3.19
2.88
2.33
1.53
0.54
-0.57
-1.76
-2.96
-4.10
-5.06
-5.73
-5.98
-5.78
-5.13
-4.10
-2.76
-1.20
0.48
2.16
3.70
4.97
5.90
6.50
6.84
7.02
7.09
7.04
6.87
6.55
6.10
5.57
5.00
4.39
3.76
3.12
2.55
2.12
1.86
1.74
1.64
1.40
0.97
0.35
-0.35
-0.98
-1.45
-1.76
-1.97
-2.22
-2.67
-3.40
-4.45
-5.77
-7.21
-8.62
-9.83
-10.72
-11.23
-11.37
-11.15
-10.57
-9.63
-8.35
-6.81
-5.13
-3.47
-1.99
-0.77
0.15
0.84
1.35
1.76
2.12
2.46
2.78
3.05
3.25
3.40
3.51
3.64
3.89
4.27
4.77
5.27
5.62
5.72
5.52
5.07
4.47
3.82
3.18
2.61
2.15
1.82
1.62
1.50
1.34
1.04
0.57
-0.00
-0.55
-0.96
-1.22
-1.41
-1.64
-1.96
-2.30
-2.51
-2.48
-2.15
-1.60
-0.96
-0.35
0.17
0.59
0.92
1.14
1.25
1.22
1.10
0.95
0.82
0.77
0.82
0.97
1.15
1.28
1.29
1.13
0.80
0.40
0.03
-0.21
-0.28
-0.24
-0.18
-0.20
-0.30
-0.45
-0.56
-0.61
-0.67
-0.86
-1.31
-2.07
-3.09
-4.23
-5.33
-6.26
-6.97
-7.45
-7.70
-7.68
-7.37
-6.76
-5.91
-4.93
-3.94
-3.01
-2.18
-1.45
-0.84
-0.39
-0.15
-0.12
-0.21
-0.25
-0.10
0.31
0.94
1.62
2.19
2.55
2.66
2.60
2.42
2.16
1.80
1.33
0.78
0.21
-0.29
-0.66
-0.93
-1.17
-1.48
-1.84
-2.19
-2.43
-2.49
-2.42
-2.33
-2.34
-2.50
-2.77
-3.01
-3.02
-2.67
-1.90
-0.80
0.44
1.61
2.53
3.16
3.60
4.01
4.54
5.16
5.69
5.89
5.56
4.70
3.51
2.27
1.23
0.47
-0.09
-0.57
-1.03
-1.44
-1.70
-1.72
-1.53
-1.27
-1.07
-1.02
-1.10
-1.21
-1.27
-1.27
-1.32
-1.51
-1.93
-2.48
-3.02
-3.39
-3.57
-3.61
-3.70
-3.96
-4.39
-4.90
-5.32
-5.50
-5.37
-4.94
-4.24
-3.30
-2.15
-0.81
0.65
2.12
3.48
4.60
5.38
5.75
5.71
5.34
4.81
4.32
4.05
4.03
4.17
4.30
4.27
4.05
3.70
3.31
2.95
2.64
2.34
2.03
1.74
1.48
1.29
1.13
0.90
0.50
-0.13
-1.03
-2.14
-3.38
-4.60
-5.65
-6.37
-6.64
-6.45
-5.86
-5.00
-3.99
-2.94
-1.84
-0.65
0.67
2.16
3.73
5.26
6.58
7.54
8.07
8.21
8.02
7.62
7.14
6.65
6.27
6.02
5.90
5.85
5.74
5.51
5.15
4.75
4.39
4.11
3.81
3.34
2.56
1.49
0.29
-0.79
-1.53
-1.89
-1.97
-1.96
-2.01
-2.18
-2.45
-2.76
-3.06
-3.32
-3.51
-3.57
-3.40
-2.93
-2.14
-1.09
0.10
1.29
2.35
3.23
3.89
4.33
4.56
4.54
4.27
3.78
3.16
2.55
2.10
1.90
1.93
2.09
2.24
2.25
2.09
1.80
1.46
1.08
0.65
0.11
-0.59
-1.40
-2.17
-2.79
-3.16
-3.30
-3.27
-3.16
-3.00
-2.80
-2.59
-2.44
-2.47
-2.83
-3.60
-4.71
-5.98
-7.14
-7.95
-8.24
-7.97
-7.20
-6.06
-4.73
-3.40
-2.21
-1.28
-0.58
0.02
0.68
1.57
2.69
3.86
4.80
5.21
4.96
4.14
3.02
1.90
0.98
0.35
-0.01
-0.15
-0.12
0.08
0.41
0.78
1.10
1.26
1.24
1.10
0.93
0.78
0.67
0.54
0.35
0.09
-0.22
-0.51
-0.75
-0.92
-1.05
-1.21
-1.42
-1.69
-2.02
-2.39
-2.85
-3.44
-4.19
-5.03
-5.85
-6.45
-6.61
-6.23
-5.31
-3.95
-2.38
-0.79
0.62
1.73
2.50
2.92
3.06
2.98
2.76
2.46
2.11
1.76
1.47
1.29
1.27
1.43
1.74
2.11
2.48
2.77
2.93
2.95
2.81
2.51
2.05
1.45
0.76
0.06
-0.59
-1.11
-1.47
-1.67
-1.76
-1.83
-1.98
-2.26
-2.70
-3.22
-3.74
-4.17
-4.50
-4.77
-5.08
-5.47
-5.94
-6.40
-6.71
-6.73
-6.38
-5.64
-4.57
-3.27
-1.85
-0.49
0.67
1.55
2.18
2.69
3.28
4.08
5.10
6.19
7.09
7.61
7.66
7.34
6.87
6.45
6.22
6.16
6.16
6.10
5.90
5.56
5.12
4.66
4.18
3.66
3.07
2.42
1.77
1.22
0.83
0.56
0.30
-0.07
-0.64
-1.37
-2.18
-2.94
-3.59
-4.16
-4.69
-5.22
-5.71
-6.03
-6.05
-5.69
-4.94
-3.88
-2.63
-1.32
-0.05
1.10
2.05
2.79
3.32
3.65
3.84
3.90
3.87
3.77
3.61
3.41
3.18
2.91
2.61
2.30
2.03
1.83
1.74
1.72
1.67
1.52
1.23
0.82
0.41
0.10
-0.06
-0.09
-0.08
-0.16
-0.41
-0.83
-1.40
-2.05
-2.71
-3.33
-3.89
-4.43
-4.98
-5.58
-6.20
-6.78
-7.19
-7.30
-7.01
-6.30
-5.23
-3.92
-2.54
-1.25
-0.14
0.74
1.43
2.00
2.55
3.12
3.72
4.25
4.59
4.64
4.40
3.95
3.50
3.23
3.21
3.43
3.77
4.09
4.29
4.29
4.08
3.71
3.26
2.82
2.48
2.24
2.04
1.75
1.29
0.62
-0.19
-1.03
-1.84
-2.60
-3.33
-4.06
-4.79
-5.48
-6.10
-6.65
-7.17
-7.70
-8.24
-8.73
-9.06
-9.12
-8.80
-8.04
-6.88
-5.39
-3.76
-2.16
-0.77
0.29
1.01
1.44
1.65
1.73
1.70
1.58
1.42
1.26
1.18
1.20
1.30
1.40
1.42
1.33
1.20
1.10
1.10
1.17
1.19
1.07
0.80
0.46
0.13
-0.15
-0.44
-0.87
-1.48
-2.24
-2.99
-3.61
-4.03
-4.35
-4.67
-5.09
-5.62
-6.16
-6.57
-6.71
-6.49
-5.90
-4.98
-3.82
-2.55
-1.25
0.01
1.23
2.41
3.53
4.54
5.36
5.96
6.32
6.47
6.44
6.22
5.80
5.18
4.39
3.54
2.73
2.06
1.62
1.41
1.38
1.43
1.40
1.16
0.63
-0.15
-1.05
-1.88
-2.48
-2.78
-2.83
-2.76
-2.72
-2.85
-3.23
-3.88
-4.76
-5.77
-6.81
-7.71
-8.33
-8.56
-8.34
-7.72
-6.82
-5.75
-4.60
-3.35
-1.98
-0.47
1.17
2.83
4.39
5.76
6.88
7.74
8.37
8.78
9.03
9.15
9.23
9.33
9.50
9.72
9.89
9.92
9.76
9.38
8.84
8.19
7.48
6.72
5.90
5.03
4.16
3.36
2.72
2.28
1.97
1.65
1.15
0.36
-0.68
-1.82
-2.89
-3.79
-4.56
-5.28
-6.04
-6.76
-7.25
-7.29
-6.73
-5.61
-4.14
-2.58
-1.15
0.04
1.01
1.80
2.45
2.96
3.33
3.60
3.84
4.16
4.59
5.05
5.39
5.48
5.28
4.87
4.41
4.07
3.90
3.83
3.70
3.34
2.72
1.87
0.89
-0.10
-1.05
-1.94
-2.74
-3.40
-3.86
-4.10
-4.18
-4.24
-4.43
-4.81
-5.37
-5.97
-6.50
-6.91
-7.21
-7.45
-7.62
-7.64
-7.41
-6.87
-6.07
-5.13
-4.22
-3.39
-2.60
-1.74
-0.73
0.39
1.46
2.26
2.67
2.67
2.39
2.01
1.66
1.37
1.16
0.98
0.84
0.75
0.75
0.81
0.89
0.92
0.87
0.75
0.60
0.49
0.45
0.48
0.53
0.55
0.47
0.28
-0.01
-0.38
-0.79
-1.25
-1.79
-2.43
-3.15
-3.89
-4.56
-5.10
-5.51
-5.80
-6.00
-6.11
-6.07
-5.80
-5.21
-4.29
-3.10
-1.77
-0.45
0.77
1.85
2.82
3.70
4.49
5.14
5.57
5.75
5.72
5.59
5.49
5.45
5.45
5.37
5.16
4.84
4.51
4.28
4.19
4.20
4.19
4.09
3.86
3.52
3.11
2.64
2.14
1.60
1.03
0.44
-0.22
-1.05
-2.10
-3.31
-4.54
-5.59
-6.30
-6.71
-6.99
-7.38
-8.01
-8.77
-9.40
-9.53
-8.93
-7.56
-5.68
-3.71
-2.11
-1.23
-1.15
-1.74
-2.67
-3.48
-3.67
-2.73
-0.29
3.74
9.02
14.78
20.03
23.91
26.02
26.58
26.31
26.08
26.50
27.69
29.25
30.47
30.55
28.86
25.02
19.06
11.44
3.03
-5.09
-11.96
-17.05
-20.38
-22.43
-23.84
-25.12
-26.51
-28.07
-29.70
-31.30
-32.69
-33.58
-33.62
-32.52
-30.12
-26.49
-21.77
-16.13
-9.67
-2.54
4.94
12.17
18.38
22.88
25.30
25.76
24.70
22.77
20.49
18.17
15.87
13.53
11.07
8.48
5.91
3.51
1.49
-0.08
-1.22
-2.01
-2.54
-2.84
-2.87
-2.61
-2.05
-1.31
-0.56
0.00
0.26
0.20
-0.10
-0.51
-0.93
-1.31
-1.68
-2.11
-2.64
-3.30
-4.03
-4.74
-5.34
-5.77
-6.05
-6.22
-6.34
-6.51
-6.79
-7.29
-8.03
-8.98
-9.99
-10.80
-11.15
-10.82
-9.79
-8.21
-6.33
-4.42
-2.65
-1.06
0.32
1.45
2.21
2.50
2.31
1.76
1.09
0.58
0.40
0.57
0.91
1.25
1.45
1.51
1.52
1.57
1.71
1.90
2.09
2.21
2.26
2.29
2.34
2.39
2.40
2.33
2.19
2.00
1.82
1.66
1.49
1.25
0.89
0.43
-0.15
-0.82
-1.58
-2.44
-3.39
-4.36
-5.28
-6.03
-6.51
-6.67
-6.48
-5.96
-5.17
-4.14
-2.97
-1.74
-0.53
0.59
1.63
2.60
3.52
4.36
5.06
5.52
5.68
5.57
5.34
5.21
5.36
5.88
6.69
7.57
8.30
8.70
8.70
8.34
7.71
6.91
6.06
5.27
4.61
4.12
3.76
3.44
3.07
2.60
2.04
1.42
0.79
0.15
-0.49
-1.13
-1.73
-2.28
-2.76
-3.23
-3.78
-4.51
-5.43
-6.40
-7.18
-7.52
-7.20
-6.23
-4.79
-3.20
-1.82
-0.84
-0.24
0.20
0.74
1.52
2.52
3.54
4.36
4.82
4.98
4.99
5.05
5.23
5.51
5.78
5.95
6.04
6.12
6.20
6.26
6.19
5.88
5.28
4.52
3.74
3.12
2.72
2.52
2.36
2.10
1.63
0.88
-0.10
-1.30
-2.62
-3.97
-5.25
-6.34
-7.16
-7.72
-8.08
-8.39
-8.81
-9.35
-9.89
-10.19
-9.99
-9.13
-7.70
-5.94
-4.16
-2.57
-1.21
0.01
1.20
2.39
3.48
4.36
4.95
5.30
5.50
5.64
5.74
5.73
5.56
5.26
4.91
4.63
4.46
4.38
4.30
4.15
3.93
3.66
3.38
3.09
2.77
2.40
1.98
1.55
1.19
0.89
0.64
0.34
-0.08
-0.63
-1.26
-1.90
-2.48
-2.98
-3.46
-3.97
-4.53
-5.08
-5.49
-5.64
-5.44
-4.94
-4.23
-3.48
-2.84
-2.40
-2.16
-2.08
-2.10
-2.17
-2.27
-2.38
-2.49
-2.63
-2.81
-3.08
-3.43
-3.85
-4.25
-4.52
-4.57
-4.37
-3.95
-3.42
-2.86
-2.32
-1.80
-1.27
-0.72
-0.14
0.41
0.90
1.29
1.56
1.72
1.80
1.84
1.89
1.98
2.11
2.23
2.28
2.12
1.64
0.77
-0.42
-1.77
-3.01
-3.89
-4.21
-3.94
-3.20
-2.20
-1.17
-0.26
0.45
0.99
1.41
1.75
2.07
2.35
2.56
2.64
2.56
2.31
1.96
1.61
1.29
1.01
0.69
0.24
-0.32
-0.91
-1.36
-1.55
-1.47
-1.23
-1.01
-0.99
-1.21
-1.61
-2.10
-2.59
-3.02
-3.35
-3.53
-3.47
-3.15
-2.63
-2.14
-1.95
-2.30
-3.22
-4.53
-5.87
-6.89
-7.37
-7.30
-6.81
-6.08
-5.16
-4.03
-2.61
-0.86
1.10
3.03
4.68
5.88
6.61
7.02
7.24
7.37
7.42
7.32
7.05
6.68
6.32
6.10
6.07
6.18
6.32
6.39
6.32
6.11
5.85
5.61
5.47
5.44
5.51
5.60
5.66
5.62
5.46
5.21
4.89
4.51
4.07
3.49
2.76
1.87
0.88
-0.13
-1.07
-1.95
-2.80
-3.66
-4.53
-5.29
-5.76
-5.77
-5.21
-4.18
-2.92
-1.69
-0.71
-0.03
0.44
0.88
1.37
1.88
2.27
2.41
2.25
1.89
1.51
1.29
1.30
1.50
1.73
1.86
1.81
1.63
1.40
1.23
1.14
1.06
0.90
0.55
0.00
-0.72
-1.54
-2.39
-3.19
-3.89
-4.43
-4.75
-4.83
-4.69
-4.42
-4.18
-4.12
-4.36
-4.93
-5.82
-6.94
-8.15
-9.29
-10.18
-10.62
-10.50
-9.74
-8.43
-6.71
-4.82
-2.95
-1.28
0.15
1.34
2.33
3.15
3.82
4.34
4.73
5.00
5.17
5.27
5.31
5.35
5.44
5.62
5.87
6.12
6.24
6.15
5.81
5.30
4.78
4.38
4.19
4.15
4.09
3.81
3.20
2.34
1.43
0.75
0.44
0.50
0.71
0.81
0.57
-0.05
-0.91
-1.81
-2.56
-3.11
-3.50
-3.85
-4.20
-4.50
-4.56
-4.16
-3.18
-1.64
0.19
2.00
3.49
4.56
5.25
5.67
5.91
5.92
5.61
4.96
4.08
3.19
2.56
2.30
2.39
2.67
2.98
3.22
3.36
3.43
3.48
3.49
3.46
3.35
3.16
2.91
2.60
2.20
1.70
1.10
0.42
-0.29
-0.94
-1.48
-1.89
-2.23
-2.57
-2.99
-3.55
-4.23
-4.97
-5.72
-6.43
-7.13
-7.82
-8.45
-8.91
-9.02
-8.64
-7.73
-6.43
-4.96
-3.52
-2.23
-1.04
0.17
1.46
2.78
3.99
4.90
5.42
5.55
5.41
5.13
4.81
4.49
4.16
3.83
3.52
3.26
3.08
2.95
2.79
2.55
2.19
1.72
1.24
0.88
0.73
0.81
0.99
1.08
0.91
0.38
-0.40
-1.26
-1.99
-2.50
-2.83
-3.15
-3.66
-4.46
-5.55
-6.78
-7.95
-8.86
-9.31
-9.21
-8.52
-7.32
-5.73
-3.94
-2.14
-0.51
0.83
1.84
2.55
3.05
3.47
3.87
4.26
4.61
4.82
4.85
4.68
4.39
4.06
3.79
3.62
3.57
3.63
3.75
3.83
3.80
3.55
3.04
2.33
1.52
0.74
0.09
-0.44
-0.92
-1.45
-2.08
-2.76
-3.41
-3.95
-4.39
-4.80
-5.27
-5.86
-6.56
-7.29
-8.00
-8.65
-9.22
-9.67
-9.88
-9.72
-9.09
-7.99
-6.54
-4.90
-3.22
-1.62
-0.10
1.29
2.52
3.53
4.24
4.63
4.75
4.69
4.52
4.29
4.04
3.79
3.58
3.50
3.57
3.81
4.12
4.36
4.42
4.26
3.95
3.61
3.38
3.26
3.14
2.83
2.21
1.26
0.16
-0.82
-1.40
-1.50
-1.23
-0.84
-0.62
-0.70
-1.08
-1.63
-2.25
-2.95
-3.78
-4.76
-5.78
-6.54
-6.76
-6.24
-5.04
-3.39
-1.62
-0.00
1.35
2.44
3.33
4.04
4.60
5.02
5.34
5.59
5.79
5.88
5.80
5.51
5.06
4.53
4.05
3.69
3.47
3.35
3.29
3.24
3.18
3.08
2.91
2.68
2.39
2.06
1.70
1.29
0.81
0.20
-0.55
-1.38
-2.23
-3.01
-3.65
-4.15
-4.52
-4.79
-5.02
-5.28
-5.64
-6.15
-6.82
-7.53
-8.07
-8.22
-7.81
-6.82
-5.35
-3.61
-1.81
-0.10
1.45
2.81
3.99
4.94
5.66
6.12
6.40
6.56
6.72
6.91
7.12
7.25
7.16
6.78
6.11
5.26
4.41
3.74
3.36
3.25
3.27
3.27
3.10
2.72
2.13
1.44
0.74
0.08
-0.50
-1.01
-1.48
-1.92
-2.34
-2.73
-3.09
-3.42
-3.77
-4.19
-4.80
-5.64
-6.68
-7.79
-8.76
-9.34
-9.41
-8.91
-7.94
-6.65
-5.22
-3.80
-2.49
-1.32
-0.31
0.57
1.32
1.94
2.42
2.73
2.88
2.86
2.67
2.35
1.95
1.53
1.14
0.85
0.67
0.58
0.51
0.40
0.19
-0.11
-0.47
-0.83
-1.13
-1.35
-1.51
-1.64
-1.75
-1.86
-1.95
-1.97
-1.90
-1.76
-1.60
-1.53
-1.60
-1.81
-2.13
-2.48
-2.81
-3.11
-3.40
-3.72
-4.09
-4.48
-4.81
-4.95
-4.75
-4.07
-2.90
-1.36
0.31
1.81
2.95
3.66
4.02
4.19
4.30
4.41
4.51
4.55
4.52
4.44
4.38
4.35
4.37
4.38
4.33
4.18
3.96
3.72
3.55
3.46
3.40
3.29
3.02
2.57
1.98
1.35
0.76
0.23
-0.30
-0.89
-1.54
-2.15
-2.65
-2.99
-3.24
-3.53
-3.99
-4.61
-5.28
-5.85
-6.28
-6.63
-6.98
-7.32
-7.47
-7.13
-6.06
-4.26
-2.02
0.18
1.94
3.10
3.81
4.36
4.97
5.69
6.34
6.68
6.59
6.17
5.63
5.26
5.19
5.40
5.69
5.80
5.53
4.84
3.89
2.91
2.11
1.61
1.37
1.25
1.08
0.75
0.26
-0.32
-0.89
-1.37
-1.77
-2.14
-2.58
-3.16
-3.92
-4.86
-5.89
-6.87
-7.61
-7.95
-7.84
-7.30
-6.50
-5.60
-4.71
-3.82
-2.85
-1.66
-0.23
1.39
3.00
4.41
5.45
6.10
6.43
6.60
6.68
6.69
6.56
6.24
5.78
5.33
5.06
5.09
5.33
5.56
5.51
5.04
4.18
3.16
2.25
1.64
1.34
1.20
0.97
0.49
-0.31
-1.32
-2.36
-3.26
-3.94
-4.42
-4.80
-5.16
-5.59
-6.10
-6.72
-7.45
-8.30
-9.22
-10.09
-10.71
-10.87
-10.43
-9.34
-7.69
-5.70
-3.61
-1.64
0.08
1.53
2.76
3.81
4.69
5.36
5.79
5.99
6.06
6.12
6.25
6.46
6.64
6.66
6.43
5.96
5.29
4.43
3.35
2.00
0.39
-1.30
-2.76
-3.63
-3.69
-2.95
-1.65
-0.17
1.16
2.11
2.66
2.87
2.84
2.59
2.11
1.36
0.34
-0.88
-2.13
-3.26
-4.11
-4.60
-4.73
-4.55
-4.12
-3.51
-2.73
-1.85
-0.98
-0.27
0.10
-0.02
-0.65
-1.63
-2.68
-3.52
-3.92
-3.89
-3.53
-3.03
-2.51
-2.00
-1.45
-0.88
-0.36
-0.05
-0.03
-0.27
-0.58
-0.75
-0.63
-0.28
0.09
0.19
-0.18
-1.02
-2.13
-3.16
-3.70
-3.41
-2.11
0.14
3.04
6.14
8.96
11.07
12.23
12.35
11.48
9.78
7.48
4.84
2.17
-0.26
-2.28
-3.80
-4.81
-5.37
-5.52
-5.29
-4.70
-3.84
-2.81
-1.82
-1.05
-0.58
-0.42
-0.44
-0.50
-0.54
-0.62
-0.90
-1.58
-2.74
-4.25
-5.84
-7.10
-7.68
-7.37
-6.19
-4.36
-2.29
-0.42
0.82
1.16
0.54
-0.87
-2.68
-4.37
-5.34
-5.09
-3.35
-0.15
4.10
8.71
12.90
16.03
17.73
17.97
16.91
14.84
12.04
8.80
5.45
2.35
-0.16
-1.91
-2.89
-3.27
-3.23
-2.87
-2.22
-1.37
-0.59
-0.27
-0.71
-1.98
-3.72
-5.36
-6.33
-6.29
-5.28
-3.58
-1.55
0.50
2.37
3.88
4.88
5.31
5.22
4.82
4.37
4.01
3.66
3.04
1.82
-0.12
-2.63
-5.34
-7.78
-9.58
-10.54
-10.64
-10.03
-8.90
-7.49
-6.03
-4.74
-3.75
-3.10
-2.69
-2.33
-1.76
-0.82
0.53
2.13
3.71
4.97
5.68
5.84
5.55
5.04
4.48
3.98
3.54
3.18
2.94
2.91
3.11
3.51
3.94
4.21
4.20
3.90
3.44
2.96
2.55
2.19
1.82
1.36
0.84
0.34
-0.03
-0.27
-0.42
-0.60
-0.93
-1.42
-2.04
-2.69
-3.33
-3.93
-4.49
-5.01
-5.46
-5.76
-5.81
-5.54
-4.93
-4.02
-2.89
-1.63
-0.28
1.12
2.49
3.74
4.75
5.41
5.69
5.62
5.31
4.87
4.39
3.94
3.57
3.37
3.38
3.60
3.93
4.19
4.18
3.80
3.10
2.27
1.53
1.05
0.82
0.74
0.61
0.29
-0.29
-1.07
-1.90
-2.64
-3.21
-3.58
-3.82
-4.05
-4.32
-4.69
-5.16
-5.69
-6.26
-6.82
-7.29
-7.55
-7.49
-7.02
-6.14
-4.95
-3.60
-2.23
-0.91
0.34
1.51
2.60
3.60
4.45
5.14
5.67
6.03
6.24
6.28
6.15
5.85
5.43
4.97
4.57
4.30
4.20
4.23
4.33
4.39
4.36
4.20
3.90
3.51
3.04
2.53
1.97
1.37
0.78
0.24
-0.17
-0.44
-0.57
-0.62
-0.71
-0.94
-1.41
-2.16
-3.22
-4.49
-5.83
-7.03
-7.86
-8.18
-7.98
-7.38
-6.58
-5.74
-4.91
-3.98
-2.81
-1.28
0.51
2.18
3.11
2.71
0.64
-2.92
-7.24
-11.25
-14.00
-15.02
-14.43
-12.75
-10.56
-8.35
-6.45
-5.14
-4.54
-4.43
-4.07
-2.35
1.74
8.40
16.68
24.61
30.04
31.54
29.02
23.59
16.93
10.55
5.29
1.36
-1.41
-3.21
-4.19
-4.51
-4.41
-4.30
-4.62
-5.69
-7.50
-9.71
-11.74
-12.95
-12.92
-11.65
-9.45
-6.83
-4.22
-1.81
0.44
2.77
5.36
8.22
11.17
13.85
15.87
16.96
17.07
16.40
15.27
14.05
12.99
12.24
11.79
11.61
11.63
11.80
12.09
12.40
12.63
12.64
12.35
11.73
10.76
9.37
7.47
4.97
1.91
-1.43
-4.53
-6.88
-8.13
-8.33
-7.88
-7.39
-7.31
-7.80
-8.74
-9.92
-11.25
-12.83
-14.86
-17.36
-20.05
-22.45
-24.03
-24.54
-24.04
-22.84
-21.28
-19.58
-17.78
-15.81
-13.63
-11.29
-8.90
-6.59
-4.40
-2.39
-0.63
0.73
1.56
1.78
1.45
0.81
0.17
-0.24
-0.31
-0.08
0.32
0.78
1.22
1.65
2.12
2.64
3.20
3.71
4.10
4.29
4.25
4.05
3.80
3.63
3.54
3.46
3.19
2.52
1.32
-0.41
-2.54
-4.83
-6.95
-8.60
-9.52
-9.56
-8.73
-7.19
-5.17
-2.92
-0.67
1.44
3.24
4.63
5.51
5.89
5.88
5.65
5.40
5.22
5.11
4.98
4.77
4.51
4.32
4.41
4.93
5.87
7.00
7.85
7.94
6.96
4.97
2.41
-0.05
-1.80
-2.52
-2.35
-1.69
-1.01
-0.63
-0.62
-0.89
-1.31
-1.85
-2.52
-3.36
-4.32
-5.29
-6.14
-6.79
-7.22
-7.47
-7.57
-7.54
-7.33
-6.92
-6.32
-5.57
-4.72
-3.82
-2.88
-1.91
-0.90
0.12
1.13
2.13
3.09
4.04
4.97
5.87
6.72
7.50
8.19
8.81
9.35
9.80
10.10
10.15
9.86
9.17
8.11
6.82
5.46
4.13
2.87
1.67
0.49
-0.61
-1.49
-2.05
-2.22
-2.16
-2.13
-2.45
-3.34
-4.82
-6.68
-8.54
-9.92
-10.38
-9.68
-7.83
-5.10
-1.90
1.39
4.55
7.52
10.34
13.03
15.52
17.57
18.82
18.84
17.25
13.97
9.29
3.94
-1.11
-4.99
-7.28
-8.12
-8.14
-8.07
-8.30
-8.82
-9.28
-9.26
-8.60
-7.41
-5.96
-4.48
-3.02
-1.47
0.31
2.33
4.37
6.04
6.90
6.66
5.33
3.23
0.86
-1.28
-2.86
-3.85
-4.42
-4.80
-5.17
-5.54
-5.77
-5.65
-5.03
-3.84
-2.10
0.03
2.33
4.50
6.21
7.21
7.44
7.07
6.45
5.95
5.68
5.46
4.94
3.78
1.95
-0.23
-2.25
-3.69
-4.47
-4.84
-5.16
-5.60
-6.04
-6.11
-5.47
-4.07
-2.22
-0.44
0.75
1.15
0.85
0.18
-0.50
-1.00
-1.33
-1.62
-2.02
-2.59
-3.24
-3.83
-4.22
-4.37
-4.34
-4.31
-4.47
-4.96
-5.79
-6.81
-7.77
-8.36
-8.38
-7.76
-6.66
-5.36
-4.13
-3.13
-2.35
-1.67
-0.94
-0.10
0.78
1.57
2.16
2.47
2.55
2.47
2.37
2.35
2.54
3.03
3.88
5.04
6.38
7.66
8.57
8.87
8.44
7.38
5.99
4.70
3.92
3.83
4.37
5.24
6.15
6.93
7.60
8.31
9.19
10.20
11.11
11.64
11.56
10.79
9.32
7.18
4.29
0.66
-3.56
-7.89
-11.63
-14.09
-14.91
-14.20
-12.49
-10.41
-8.43
-6.70
-5.13
-3.59
-2.13
-0.94
-0.22
0.04
0.13
0.48
1.39
2.88
4.59
6.06
6.90
6.99
6.51
5.80
5.15
4.72
4.50
4.37
4.19
3.88
3.44
2.89
2.34
1.85
1.49
1.29
1.20
1.12
0.90
0.41
-0.40
-1.47
-2.70
-3.99
-5.27
-6.50
-7.63
-8.53
-9.02
-8.94
-8.23
-7.00
-5.51
-4.09
-2.97
-2.23
-1.84
-1.65
-1.57
-1.54
-1.59
-1.75
-2.06
-2.53
-3.11
-3.72
-4.20
-4.41
-4.22
-3.57
-2.46
-0.96
0.81
2.69
4.44
5.75
6.32
5.94
4.66
2.79
0.83
-0.74
-1.60
-1.70
-1.21
-0.37
0.61
1.56
2.31
2.65
2.33
1.20
-0.65
-2.88
-4.94
-6.39
-7.00
-6.88
-6.34
-5.70
-5.05
-4.28
-3.14
-1.48
0.62
2.83
4.73
5.96
6.48
6.52
6.47
