1650966822.00
64.000000
-0.00
-0.00
-0.00
-0.00
-0.00
-0.00
-0.00
-0.00
-0.00
-0.00
0.00
0.01
0.01
-0.00
-0.03
-0.05
-0.05
0.00
0.13
0.36
0.66
1.01
1.37
1.72
2.06
2.40
2.79
3.24
3.80
4.42
5.06
5.66
6.20
6.68
7.15
7.68
8.31
9.14
10.09
11.04
11.88
12.56
13.14
13.76
14.65
15.96
17.91
20.32
22.90
25.38
27.58
29.57
31.68
34.32
37.81
42.54
48.15
54.10
59.83
64.97
69.58
74.14
79.34
85.71
93.76
103.00
112.62
121.73
129.77
136.75
143.30
150.75
157.77
166.64
177.95
191.79
206.97
220.57
228.25
225.36
208.53
176.87
132.76
80.05
23.07
-34.94
-92.44
-149.16
-205.23
-260.37
-313.74
-363.87
-409.83
-450.91
-486.50
-515.74
-537.23
-549.22
-549.96
-538.37
-514.21
-478.67
-433.88
-382.45
-327.02
-269.84
-212.63
-156.66
-102.95
-52.37
-5.90
35.58
71.43
101.35
125.50
144.38
158.70
169.15
176.37
180.75
182.57
182.07
179.51
175.25
169.68
163.20
156.15
148.77
141.19
133.51
125.78
118.06
110.41
102.88
95.54
88.41
81.51
74.87
68.51
62.46
56.75
51.39
46.35
41.61
37.12
32.86
28.84
25.11
21.72
18.70
16.05
13.69
11.52
9.45
7.42
5.47
3.70
2.25
1.19
0.50
0.03
-0.44
-1.13
-2.13
-3.35
-4.55
-5.47
-5.91
-5.88
-5.65
-5.59
-6.03
-7.11
-8.65
-10.22
-11.37
-11.86
-11.72
-11.29
-11.05
-11.36
-12.40
-14.15
-16.47
-19.06
-21.39
-22.58
-21.58
-17.59
-10.50
-1.16
8.81
17.63
24.00
27.51
28.60
28.04
26.47
24.14
20.96
16.91
12.29
7.87
4.58
3.19
3.88
6.12
8.74
10.47
10.49
8.91
6.67
5.11
5.22
7.09
9.87
12.24
13.07
12.02
9.68
7.18
5.55
5.34
6.39
8.12
9.90
11.32
12.35
13.21
14.19
15.46
16.91
18.23
19.07
19.16
18.44
17.10
15.51
13.99
12.71
11.68
10.53
8.89
6.49
3.27
-0.56
-4.61
-8.44
-11.68
-14.12
-15.72
-16.52
-16.69
-16.40
-15.80
-15.04
-14.21
-13.37
-12.59
-11.92
-11.42
-11.10
-10.89
-10.67
-10.32
-9.76
-9.07
-8.42
-7.97
-7.81
-7.84
-7.91
-7.79
-7.37
-6.56
-5.37
-3.80
-1.89
0.22
2.32
4.07
5.19
5.53
5.16
4.37
3.53
2.95
2.70
2.66
2.64
2.47
2.10
1.67
1.35
1.26
1.45
1.77
2.05
2.15
2.01
1.64
1.08
0.36
-0.55
-1.46
-2.35
-3.21
-4.16
-5.35
-6.93
-8.93
-11.21
-13.39
-14.95
-15.44
-14.54
-12.25
-8.83
-4.78
-0.66
3.08
6.21
8.75
10.84
12.63
14.13
15.16
15.45
14.76
13.08
10.65
7.87
5.15
2.84
1.08
-0.11
-0.84
-1.30
-1.67
-2.15
-2.87
-3.96
-5.50
-7.51
-10.02
-12.94
-16.06
-18.97
-21.13
-21.96
-21.00
-18.07
-13.25
-6.92
0.41
8.19
15.91
23.16
29.66
35.24
39.90
43.73
46.90
49.60
51.92
53.83
55.12
55.44
54.40
51.59
46.74
39.73
30.81
20.56
9.91
-0.03
-8.21
-13.92
-17.01
-17.82
-17.10
-15.72
-14.41
-13.55
-13.06
-12.43
-10.90
-7.74
-2.62
4.26
12.13
19.93
26.74
32.03
35.70
37.82
38.35
37.04
33.57
27.77
19.90
10.80
1.59
-6.71
-13.46
-18.30
-20.88
-20.76
-17.74
-12.31
-5.90
-0.63
1.38
-1.14
-7.94
-17.41
-27.31
-36.21
-43.88
-50.92
-57.92
-64.76
-70.90
-75.37
-77.30
-76.09
-72.46
-67.75
-63.10
-58.96
-55.28
-52.79
-52.28
-54.13
-57.40
-61.83
-67.17
-72.91
-78.19
-82.26
-86.17
-91.07
-97.21
-102.55
-106.33
-108.46
-109.28
-109.26
-109.52
-113.56
-124.66
-144.28
-169.90
-199.41
-230.18
-258.77
-280.96
-282.81
-257.28
-208.73
-159.53
-116.29
-79.18
-44.93
-11.95
21.31
56.04
91.21
125.84
160.27
197.46
237.69
278.83
316.95
347.77
367.55
372.91
362.97
339.77
308.32
271.72
231.25
187.01
139.29
88.96
36.83
-15.51
-65.52
-109.39
-144.51
-169.11
-182.04
-182.53
-170.37
-146.42
-111.94
-68.59
-18.56
33.86
82.74
121.99
147.57
158.98
159.35
154.00
147.83
143.20
138.91
131.85
119.45
101.46
79.90
57.20
34.43
10.60
-15.85
-44.75
-72.69
-93.59
-101.29
-92.63
-69.25
-37.18
-4.39
22.21
38.73
44.49
40.96
30.31
14.74
-3.34
-20.89
-34.25
-40.26
-38.23
-31.51
-27.14
-33.27
-55.20
-91.78
-134.61
-170.52
-186.43
-174.13
-133.03
-69.78
4.30
76.58
135.93
174.61
189.28
181.48
157.32
125.96
97.05
77.74
70.77
74.43
84.18
95.08
103.43
107.50
107.12
103.13
96.94
90.32
85.12
82.78
83.88
87.79
92.75
96.46
97.00
93.59
86.87
78.62
70.91
65.11
61.32
58.41
54.64
48.50
39.15
26.43
10.57
-8.16
-29.43
-52.57
-76.22
-98.45
-117.17
-130.99
-139.89
-145.37
-149.95
-156.19
-165.58
-177.87
-191.25
-203.27
-211.99
-216.80
-218.29
-217.57
-215.16
-210.33
-201.27
-185.77
-161.80
-128.00
-83.87
-30.15
30.62
93.56
151.62
196.73
222.03
224.19
205.06
171.81
135.25
106.85
95.16
102.93
125.94
154.38
176.33
182.15
167.99
136.87
96.75
56.88
23.99
0.28
-15.92
-27.86
-37.91
-46.57
-53.20
-57.79
-61.95
-68.57
-80.01
-96.31
-114.56
-129.84
-137.42
-134.81
-122.43
-103.04
-80.10
-56.44
-33.65
-12.27
7.73
26.65
44.83
62.43
79.05
93.46
103.82
108.58
107.20
100.70
91.28
81.29
72.24
64.41
57.20
49.95
42.60
35.85
30.76
28.20
28.35
30.73
34.48
38.68
42.67
46.07
48.62
50.08
50.09
48.12
43.59
36.06
25.45
12.34
-2.04
-15.99
-27.88
-36.64
-42.14
-45.06
-46.53
-47.64
-49.16
-51.57
-55.35
-60.86
-68.10
-76.15
-83.08
-86.36
-83.95
-75.32
-61.96
-46.80
-33.07
-23.00
-17.20
-14.86
-14.51
-14.93
-15.57
-16.57
-18.41
-21.48
-25.71
-30.53
-34.94
-37.83
-38.47
-36.71
-32.90
-27.54
-20.76
-12.20
-1.46
11.17
24.21
35.15
41.42
41.57
36.00
26.84
17.06
9.26
4.85
3.95
5.77
9.24
13.46
17.79
21.78
25.05
27.27
28.15
27.52
25.40
22.04
17.87
13.43
9.18
5.38
2.03
-1.04
-4.05
-7.15
-10.46
-14.17
-18.54
-23.87
-30.32
-37.77
-45.79
-53.74
-60.93
-66.86
-71.32
-74.47
-76.79
-78.96
-81.66
-85.38
-90.31
-96.39
-103.43
-111.34
-120.14
-129.90
-140.45
-151.15
-160.86
-168.27
-172.40
-173.05
-170.95
-167.57
-164.55
-163.11
-163.51
-165.03
-166.10
-164.84
-159.58
-149.36
-134.14
-114.57
-91.81
-66.99
-41.09
-14.90
11.08
36.76
62.75
90.19
119.57
149.10
173.89
186.92
181.78
155.79
111.57
55.98
-2.98
-59.51
-111.23
-157.85
-198.42
-229.41
-245.25
-241.11
-215.96
-173.91
-122.76
-70.68
-23.14
18.41
55.53
90.60
124.62
156.28
182.48
199.77
206.23
202.39
190.98
175.81
160.43
146.87
135.51
125.63
116.34
107.31
98.89
91.71
86.14
81.89
78.01
73.34
67.01
58.99
50.10
41.64
34.91
30.71
29.14
29.77
31.88
34.82
38.11
41.46
44.50
46.75
47.60
46.55
43.45
38.62
32.79
26.84
21.47
16.95
13.14
9.61
6.00
2.19
-1.62
-5.02
-7.60
-9.17
-9.81
-9.86
-9.80
-10.10
-11.11
-12.97
-15.55
-18.33
-20.49
-21.09
-19.37
-14.97
-8.08
0.67
10.33
19.90
28.47
35.34
40.05
42.47
42.73
41.19
38.34
34.68
30.59
26.30
21.98
17.74
13.70
9.94
6.50
3.38
0.66
-1.50
-2.89
-3.31
-2.72
-1.07
1.43
4.25
6.69
8.10
8.05
6.47
3.57
-0.15
-3.84
-6.67
-8.01
-7.61
-5.45
-1.71
3.26
8.85
14.33
19.54
24.48
29.26
34.00
38.82
43.83
48.96
53.78
57.71
61.69
66.54
72.32
78.09
82.61
85.21
85.80
84.75
82.48
82.37
86.88
96.06
107.50
118.15
126.05
130.63
132.09
130.81
132.07
140.04
155.51
175.52
195.86
213.65
227.73
238.00
244.94
255.73
276.54
309.17
350.24
394.28
437.09
476.72
512.79
505.79
433.10
299.35
135.45
-24.46
-161.29
-270.56
-354.47
-416.21
-458.44
-477.71
-472.50
-446.06
-405.98
-360.56
-315.59
-274.79
-241.33
-217.32
-200.35
-187.89
-178.94
-174.27
-174.44
-177.67
-180.27
-177.97
-167.75
-146.29
-114.19
-78.14
-47.72
-30.40
-28.03
-37.58
-53.77
-71.96
-87.99
-99.47
-105.39
-105.35
-100.27
-90.45
-77.49
-63.95
-52.40
-43.91
-37.92
-33.00
-27.40
-20.83
-13.64
-6.78
-0.71
4.40
8.69
12.35
15.36
17.73
19.32
20.46
21.49
23.02
25.40
28.70
32.80
36.80
40.38
43.53
46.65
48.42
47.75
43.84
36.62
26.90
16.44
7.83
2.52
1.74
5.84
14.32
25.71
38.14
49.39
57.85
63.21
66.04
67.45
68.03
67.77
65.98
61.76
54.42
43.60
29.24
11.20
-10.38
-34.84
-60.52
-84.94
-105.37
-119.70
-127.10
-128.22
-124.82
-118.85
-111.79
-104.21
-96.00
-86.86
-76.80
-66.40
-56.71
-48.95
-44.09
-42.57
-44.26
-48.53
-54.57
-61.41
-67.90
-72.61
-73.90
-70.21
-60.57
-45.09
-25.13
-3.07
18.23
36.40
50.13
59.57
66.00
71.28
77.07
84.32
93.04
102.51
111.61
119.26
124.74
127.85
128.88
128.40
127.03
125.03
122.17
117.68
110.50
99.80
85.43
68.13
49.35
30.79
13.83
-0.80
-12.99
-22.98
-30.91
-36.66
-39.91
-40.38
-38.17
-33.99
-28.99
-24.44
-21.32
-20.03
-20.41
-21.89
-23.81
-25.73
-27.60
-29.56
-31.66
-33.62
-34.68
-33.89
-30.51
-24.41
-16.28
-7.75
-0.78
2.93
2.44
-2.12
-9.59
-17.75
-23.49
-23.18
-13.80
6.20
35.83
71.04
104.97
129.61
138.25
127.61
98.56
54.62
1.08
-56.32
-112.08
-161.71
-201.89
-230.62
-247.40
-253.48
-252.78
-249.47
-246.14
-242.79
-237.71
-228.92
-214.87
-194.52
-167.35
-135.22
-101.10
-68.70
-41.84
-24.25
-18.47
-24.10
-36.92
-40.35
-21.75
20.41
74.51
124.51
158.94
173.84
171.72
158.92
142.38
125.41
108.61
91.17
73.05
55.46
40.46
30.11
25.70
27.16
31.09
34.82
36.69
36.81
36.33
36.25
36.82
37.86
39.03
39.44
38.69
37.32
36.65
37.79
40.82
44.81
48.84
52.54
55.88
59.15
62.11
63.63
61.97
55.51
43.76
28.44
12.79
-0.02
-8.04
-10.94
-9.80
-5.59
0.53
6.48
9.34
5.92
-5.39
-22.76
-40.59
-51.39
-48.65
-29.55
0.89
32.81
55.99
63.99
56.04
37.04
11.96
-14.34
-38.29
-57.87
-71.54
-77.94
-76.04
-65.79
-48.48
-26.95
-4.58
15.15
29.26
36.31
36.68
32.18
25.48
19.30
15.52
15.30
19.03
26.08
35.31
45.31
53.81
58.06
55.66
45.49
28.73
8.74
-10.58
-26.14
-36.38
-41.84
-44.47
-46.56
-49.24
-52.70
-53.96
-50.10
-39.55
-21.85
1.56
27.45
51.01
67.12
71.65
62.56
40.16
7.04
-31.04
-67.41
-93.95
-104.44
-96.86
-73.77
-40.67
-1.60
35.55
64.47
82.47
89.53
86.22
73.72
54.98
34.90
19.00
8.63
3.70
2.27
1.39
-1.78
-8.51
-18.12
-28.87
-38.15
-45.07
-49.72
-53.67
-59.11
-67.38
-77.47
-85.95
-88.56
-82.49
-68.47
-49.70
-30.64
-14.88
-3.90
2.92
7.21
10.42
13.63
17.68
24.04
33.92
47.20
61.69
73.53
78.80
75.24
63.28
45.57
25.90
7.69
-6.84
-16.64
-21.51
-21.72
-18.10
-11.98
-5.04
1.30
6.30
9.98
12.94
15.84
19.11
22.75
26.49
29.85
32.30
33.28
32.40
29.56
25.19
20.23
15.93
13.45
13.30
15.00
17.20
18.24
16.96
13.33
8.61
4.74
3.60
6.08
11.70
18.85
25.45
29.70
30.51
27.67
21.64
13.52
4.73
-3.38
-9.95
-14.82
-18.62
-22.47
-27.36
-33.55
-40.12
-45.44
-48.15
-47.96
-45.63
-42.55
-40.26
-39.82
-41.71
-45.35
-49.64
-53.58
-56.59
-58.33
-58.74
-58.19
-57.28
-56.49
-55.13
-51.64
-44.45
-32.89
-17.12
1.55
20.82
38.37
49.73
51.81
46.27
38.42
33.29
33.31
37.71
43.62
47.81
47.96
43.92
37.16
30.09
22.99
15.69
8.11
0.49
-6.35
-11.18
-12.48
-9.17
-1.89
6.78
13.80
17.06
15.97
11.80
7.01
4.13
4.32
6.03
5.59
0.02
-10.68
-22.73
-30.00
-26.75
-10.15
18.30
52.54
83.63
103.46
106.97
92.77
62.62
21.02
-25.10
-66.66
-94.97
-104.50
-94.02
-67.00
-30.58
6.46
36.23
51.43
52.50
46.90
40.88
34.88
25.25
9.04
-12.52
-34.58
-50.84
-56.40
-50.90
-39.92
-32.17
-35.14
-50.76
-76.55
-105.73
-129.54
-140.57
-135.52
-116.87
-90.35
-61.40
-32.77
-4.56
24.52
55.44
87.62
119.14
146.24
164.97
173.20
171.58
162.80
150.51
137.92
121.39
100.06
74.77
47.14
19.61
-4.08
-19.44
-23.21
-15.58
-0.92
14.73
25.27
27.11
20.87
10.62
1.16
-4.50
-6.30
-6.53
-8.13
-12.32
-19.19
-27.12
-33.44
-35.56
-32.13
-23.50
-11.63
1.20
12.95
21.92
27.73
30.97
32.45
32.54
30.79
26.26
17.95
7.42
-4.36
-16.25
-27.15
-36.17
-42.77
-46.81
-48.56
-48.65
-47.91
-47.65
-48.84
-52.10
-57.77
-66.09
-77.14
-90.52
-105.10
-119.06
-130.94
-140.00
-146.34
-150.41
-151.87
-148.67
-137.28
-114.17
-78.21
-32.62
15.47
57.26
85.88
99.08
99.72
93.79
87.26
83.68
83.57
85.86
89.75
95.50
103.73
114.00
123.76
128.83
125.32
111.81
90.58
67.07
47.87
38.34
40.37
51.44
65.23
73.74
70.19
51.74
20.82
-15.70
-49.20
-72.71
-83.36
-82.72
-75.25
-65.71
-57.22
-50.59
-45.14
-40.02
-35.15
-31.27
-29.30
-29.50
-31.09
-32.57
-32.37
-29.60
-24.40
-17.75
-10.96
-5.01
-0.21
3.77
7.62
11.91
16.85
22.15
27.13
31.07
33.41
33.98
33.02
31.09
28.80
26.62
24.68
22.78
20.57
17.72
14.21
10.33
6.66
3.84
2.30
2.07
2.79
3.82
4.54
4.53
3.72
2.31
0.61
-1.12
-2.81
-4.59
-6.64
-9.11
-11.92
-14.70
-16.93
-18.11
-17.98
-16.65
-14.61
-12.47
-10.74
-9.58
-8.84
-8.18
-7.34
-6.31
-5.36
-4.82
-4.85
-5.37
-6.01
-6.47
-6.58
-6.51
-6.62
-7.28
-8.60
-10.43
-12.42
-14.24
-15.77
-17.14
-18.63
-20.50
-22.80
-25.26
-27.46
-28.88
-29.10
-27.93
-25.40
-21.71
-17.16
-12.03
-6.65
-1.32
3.62
7.81
10.90
12.65
12.96
11.99
10.10
7.81
5.69
4.18
3.58
3.94
5.12
6.84
8.75
10.50
11.83
12.55
12.57
11.94
10.75
9.10
7.08
4.70
1.97
-1.06
-4.13
-6.71
-8.18
-8.01
-6.03
-2.50
1.96
6.67
11.19
15.39
19.39
23.28
26.97
30.10
32.28
33.28
33.21
32.54
31.95
32.11
33.40
35.92
39.40
43.50
47.92
52.67
58.07
64.49
72.13
80.69
89.32
96.92
102.51
105.70
106.72
106.50
106.38
107.86
112.52
121.86
136.86
157.08
179.83
199.96
211.24
208.62
190.39
159.08
120.58
81.56
46.84
18.08
-5.92
-27.01
-46.12
-63.05
-77.53
-90.36
-103.78
-120.61
-142.71
-170.54
-201.95
-233.25
-261.16
-284.44
-303.91
-321.50
-338.99
-356.70
-374.71
-390.94
-402.16
-405.93
-402.02
-392.04
-378.54
-364.00
-350.00
-339.33
-332.32
-327.00
-320.70
-311.56
-298.24
-279.99
-256.65
-228.28
-197.95
-166.63
-132.99
-95.37
-53.81
-9.54
35.20
77.84
133.87
201.67
267.17
315.82
342.79
351.76
350.50
348.10
350.26
358.99
369.75
377.07
376.48
365.34
337.65
292.69
234.25
169.32
106.14
49.79
4.70
-25.68
-40.10
-40.62
-31.20
-17.18
-3.73
5.84
9.28
7.47
3.30
-0.41
-2.39
-2.34
-0.87
1.22
3.44
5.03
5.93
6.68
7.70
8.86
9.99
10.86
11.51
12.39
13.99
16.94
21.65
28.10
35.66
43.42
50.06
53.89
53.02
45.79
31.51
11.24
-11.94
-33.44
-48.58
-54.19
-49.88
-37.96
-22.43
-7.35
4.44
11.77
14.82
14.24
10.58
4.15
-4.57
-14.53
-24.04
-31.16
-34.46
-33.57
-29.36
-23.43
-17.36
-11.99
-7.25
-2.39
3.29
9.94
16.94
23.24
27.92
30.69
31.98
32.66
33.61
35.29
37.58
39.76
40.73
39.37
34.89
27.23
17.34
7.06
-1.37
-6.06
-6.28
-2.72
2.72
7.77
10.63
10.58
7.94
3.65
-1.26
-6.02
-10.09
-12.94
-13.94
-12.41
-7.98
-0.88
7.95
17.10
25.13
31.03
34.53
36.03
36.32
36.15
35.92
35.53
34.47
32.10
28.01
22.21
15.16
7.53
-0.08
-7.39
-14.48
-21.46
-28.24
-34.31
-38.82
-40.92
-40.11
-36.52
-30.81
-23.99
-17.15
-11.15
-6.61
-3.73
-2.39
-2.18
-2.45
-2.58
-2.18
-1.12
0.45
2.26
3.99
5.36
6.05
5.73
4.24
1.68
-1.43
-4.35
-6.41
-7.25
-7.05
-6.37
-5.93
-6.20
-7.31
-9.02
-10.95
-12.81
-14.45
-15.80
-16.77
-17.14
-16.68
-15.18
-12.62
-9.20
-5.22
-0.95
3.53
8.30
13.49
19.00
24.34
28.63
30.96
30.78
28.25
24.29
20.27
17.38
16.00
15.57
14.96
13.15
9.87
5.76
1.97
-0.38
-0.50
2.26
8.62
19.13
33.52
49.72
63.65
70.14
64.82
46.05
15.74
-21.39
-59.57
-93.51
-119.21
-133.73
-134.57
-119.55
-87.73
-40.89
15.27
71.60
117.39
143.68
146.28
127.51
95.53
61.45
35.47
23.66
26.66
40.73
60.27
80.53
98.91
114.83
128.48
139.66
147.33
150.15
147.45
139.84
129.29
118.26
108.83
102.40
99.80
101.62
108.15
119.04
132.81
146.86
158.03
163.81
163.31
157.49
148.37
137.84
126.57
113.89
98.61
80.16
59.25
37.68
17.46
-0.38
-16.34
-32.44
-51.21
-74.65
-103.22
-135.75
-170.05
-203.98
-236.23
-266.23
-293.62
-317.50
-336.39
-348.98
-355.28
-357.31
-358.45
-361.97
-368.92
-377.14
-381.69
-376.75
-357.96
-324.09
-277.38
-222.72
-166.17
-113.40
-68.59
-33.80
-8.68
9.24
23.65
38.25
55.36
75.17
95.94
114.92
129.58
138.56
141.79
140.35
135.99
130.79
127.04
126.84
131.54
141.12
153.93
166.87
176.39
179.69
175.60
164.92
150.04
134.16
120.32
110.84
106.75
107.84
112.65
118.89
123.99
125.71
122.76
115.18
104.37
92.67
82.65
76.05
72.98
71.77
69.73
64.70
56.64
48.26
44.20
48.92
64.23
87.91
114.07
135.30
145.43
141.46
123.93
95.76
60.60
21.56
-19.21
-60.31
-100.75
-139.98
-177.82
-214.16
-248.01
-276.50
-294.86
-297.81
-282.20
-249.31
-205.40
-159.79
-121.41
-95.48
-82.33
-78.50
-79.31
-81.30
-83.02
-84.22
-84.44
-82.21
-75.50
-63.08
-45.66
-26.02
-7.93
5.29
12.12
13.16
10.59
7.00
4.36
3.34
3.45
3.52
2.45
-0.20
-4.06
-8.10
-11.09
-12.12
-10.98
-8.23
-5.00
-2.46
-1.37
-1.78
-3.07
-4.35
-4.86
-4.32
-2.94
-1.11
0.86
3.02
5.73
9.42
14.33
20.32
26.87
33.27
38.79
42.89
45.26
45.84
44.79
42.46
39.32
35.85
32.51
29.54
27.05
25.02
23.46
22.43
22.13
22.67
23.97
25.67
27.16
27.77
27.13
25.25
22.60
19.82
17.48
15.87
14.95
14.49
14.16
13.64
12.58
10.62
7.46
2.96
-2.70
-9.10
-15.69
-22.02
-27.84
-33.13
-37.89
-42.07
-45.53
-48.21
-50.28
-52.11
-54.17
-56.75
-59.85
-63.18
-66.29
-68.78
-70.44
-71.31
-71.62
-71.65
-71.54
-71.26
-70.60
-69.28
-67.07
-63.93
-59.95
-55.25
-49.79
-43.38
-35.74
-26.69
-16.34
-5.12
6.34
17.35
27.29
35.71
42.23
46.66
48.96
49.47
48.84
47.95
47.71
48.78
51.42
55.43
60.26
65.09
69.03
71.30
71.43
69.46
65.85
61.28
56.40
51.54
46.75
41.89
36.91
31.95
27.23
22.83
18.61
14.26
9.55
4.54
-0.32
-4.46
-7.44
-9.24
-10.30
-11.34
-13.08
-16.01
-20.24
-25.47
-31.09
-36.32
-40.38
-42.68
-43.00
-41.59
-39.14
-36.67
-35.20
-35.37
-37.14
-39.87
-42.49
-44.07
-44.12
-42.70
-40.23
-37.15
-33.73
-30.00
-26.01
-21.95
-18.22
-15.21
-13.12
-11.78
-10.75
-9.51
-7.73
-5.36
-2.62
0.20
2.81
5.04
6.83
8.16
9.01
9.35
9.17
8.51
7.45
6.16
4.79
3.48
2.29
1.17
0.03
-1.20
-2.55
-4.00
-5.45
-6.86
-8.29
-9.85
-11.65
-13.60
-15.39
-16.49
-16.31
-14.45
-10.80
-5.63
0.46
6.84
12.93
18.32
22.87
26.60
29.65
32.17
34.28
35.99
37.26
38.07
38.49
38.75
39.23
40.31
42.25
45.03
48.35
51.64
54.34
56.08
56.86
57.09
57.32
58.09
59.60
61.67
63.75
65.00
64.50
61.34
54.96
45.45
33.79
21.77
11.47
4.42
0.77
-0.93
-3.19
-8.44
-17.88
-30.95
-45.65
-59.58
-71.10
-79.85
-86.61
-92.71
-99.17
-106.21
-113.20
-118.80
-121.44
-119.80
-113.11
-101.56
-86.34
-69.38
-52.88
-38.65
-27.71
-20.20
-15.64
-13.31
-12.61
-13.00
-13.89
-14.51
-13.96
-11.52
-6.96
-0.73
6.22
12.80
18.25
22.33
25.35
27.86
30.28
32.71
34.87
36.26
36.47
35.34
33.09
30.16
27.08
24.24
21.73
19.37
16.82
13.80
10.24
6.37
2.67
-0.34
-2.32
-3.31
-3.62
-3.79
-4.30
-5.46
-7.25
-9.44
-11.66
-13.54
-14.74
-15.02
-14.24
-12.41
-9.62
-6.13
-2.20
1.87
5.81
9.39
12.43
14.79
16.40
17.27
17.45
17.08
16.36
15.53
14.80
14.30
13.98
13.66
13.06
11.97
10.35
8.41
6.47
4.80
3.54
2.60
1.67
0.44
-1.38
-3.92
-7.09
-10.57
-13.81
-16.21
-17.22
-16.54
-14.25
-10.72
-6.50
-2.08
2.23
6.29
10.06
13.51
16.54
18.95
20.58
21.32
21.13
20.09
18.35
16.15
13.82
11.72
10.10
9.09
8.61
8.44
8.28
7.85
6.96
5.58
3.77
1.70
-0.50
-2.73
-5.05
-7.52
-10.22
-13.05
-15.74
-17.82
-18.85
-18.46
-16.58
-13.41
-9.33
-4.81
-0.26
3.99
7.72
10.78
13.03
14.42
14.94
14.71
13.96
13.00
12.12
11.52
11.20
11.00
10.69
10.04
9.01
7.66
6.14
4.62
3.16
1.79
0.47
-0.82
-2.14
-3.57
-5.25
-7.35
-9.98
-13.06
-16.40
-19.65
-22.36
-24.15
-24.67
-23.72
-21.27
-17.55
-12.97
-8.09
-3.43
0.71
4.23
7.21
9.68
11.56
12.68
12.91
12.30
11.15
9.91
8.97
8.44
8.20
7.93
7.37
6.40
5.15
3.87
2.78
1.98
1.38
0.77
-0.13
-1.52
-3.54
-6.15
-9.18
-12.27
-14.94
-16.67
-17.01
-15.69
-12.74
-8.42
-3.20
2.37
7.82
12.78
16.99
20.31
22.62
23.89
24.12
23.46
22.14
20.49
18.88
17.50
16.36
15.29
14.04
12.42
10.44
8.26
6.16
4.34
2.80
1.41
-0.06
-1.81
-4.01
-6.72
-9.90
-13.39
-16.88
-19.88
-21.84
-22.27
-20.88
-17.75
-13.22
-7.88
-2.36
2.83
7.30
10.88
13.56
15.41
16.62
17.35
17.75
17.93
17.94
17.76
17.39
16.83
16.18
15.57
15.14
14.97
15.00
15.12
15.09
14.67
13.66
11.95
9.59
6.75
3.68
0.70
-2.02
-4.48
-6.88
-9.52
-12.67
-16.26
-19.93
-23.05
-24.92
-25.01
-23.17
-19.57
-14.68
-9.10
-3.39
1.99
6.68
10.49
13.36
15.30
16.43
16.88
16.84
16.48
15.98
15.46
15.00
14.55
14.02
13.29
12.31
11.15
9.96
8.90
8.03
7.33
6.61
5.67
4.34
2.52
0.24
-2.42
-5.36
-8.53
-11.84
-15.15
-18.19
-20.51
-21.61
-21.12
-18.86
-15.00
-9.98
-4.40
1.13
6.16
10.38
13.59
15.71
16.71
16.69
15.83
14.40
12.71
10.98
9.33
7.79
6.27
4.65
2.83
0.72
-1.67
-4.27
-6.91
-9.36
-11.37
-12.82
-13.74
-14.38
-15.11
-16.29
-18.16
-20.75
-23.84
-27.04
-29.86
-31.77
-32.32
-31.20
-28.35
-24.00
-18.60
-12.78
-7.15
-2.21
1.81
4.98
7.50
9.61
11.44
12.89
13.75
13.81
13.01
11.57
9.86
8.25
6.97
5.98
5.09
4.11
3.02
1.93
1.06
0.47
0.05
-0.48
-1.42
-2.96
-5.13
-7.81
-10.83
-14.00
-17.15
-20.07
-22.46
-23.92
-24.05
-22.52
-19.22
-14.38
-8.51
-2.34
3.43
8.26
11.96
14.58
16.32
17.29
17.50
16.88
15.45
13.38
11.02
8.79
7.02
5.95
5.65
6.07
7.07
8.38
9.65
10.46
10.51
9.66
8.04
5.94
3.65
1.37
-0.96
-3.55
-6.64
-10.38
-14.69
-19.18
-23.25
-26.20
-27.47
-26.73
-24.00
-19.64
-14.23
-8.43
-2.85
1.99
5.76
8.30
9.59
9.67
8.63
6.58
3.64
-0.01
-4.07
-8.16
-11.84
-14.72
-16.55
-17.25
-16.96
-15.93
-14.51
-13.02
-11.69
-10.69
-10.09
-9.88
-10.01
-10.34
-10.70
-10.96
-11.06
-11.14
-11.45
-12.23
-13.51
-15.01
-16.13
-16.12
-14.35
-10.54
-4.79
2.44
10.50
18.62
26.12
32.40
37.04
39.89
41.10
41.08
40.38
39.52
38.81
38.26
37.65
36.69
35.21
33.31
31.36
29.80
29.00
28.97
29.36
29.59
29.13
27.81
25.98
24.36
23.75
24.56
26.57
28.93
30.42
29.82
26.39
20.07
11.78
3.31
-2.96
-4.63
0.01
11.30
27.88
46.95
64.94
78.65
86.00
86.57
81.41
72.44
61.73
50.95
41.07
32.48
25.19
19.15
14.32
10.66
8.02
6.01
4.16
1.99
-0.69
-3.71
-6.67
-9.18
-11.15
-12.88
-14.97
-17.94
-21.89
-26.36
-30.44
-33.17
-33.89
-32.52
-29.51
-25.60
-21.50
-17.67
-14.25
-11.21
-8.44
-5.93
-3.81
-2.28
-1.51
-1.55
-2.25
-3.31
-4.30
-4.88
-4.90
-4.44
-3.80
-3.28
-3.07
-3.24
-3.67
-4.23
-4.84
-5.47
-6.12
-6.82
-7.62
-8.63
-9.98
-11.76
-13.91
-16.17
-18.11
-19.24
-19.16
-17.72
-15.01
-11.30
-6.97
-2.39
2.09
6.15
9.52
11.99
13.47
14.02
13.79
13.03
12.00
10.93
9.97
9.15
8.46
7.85
7.28
6.69
6.02
5.25
4.33
3.29
2.20
1.11
0.02
-1.17
-2.64
-4.64
-7.27
-10.46
-13.85
-16.94
-19.18
-20.21
-19.89
-18.31
-15.69
-12.35
-8.59
-4.69
-0.96
2.31
4.83
6.44
7.10
6.95
6.21
5.09
3.82
2.53
1.36
0.42
-0.25
-0.69
-1.01
-1.37
-1.94
-2.75
-3.76
-4.80
-5.75
-6.51
-7.11
-7.63
-8.24
-9.12
-10.40
-12.18
-14.37
-16.74
-18.89
-20.31
-20.54
-19.32
-16.65
-12.80
-8.25
-3.52
0.92
4.74
7.78
9.93
11.17
11.52
11.06
9.89
8.26
6.41
4.64
3.15
2.05
1.28
0.68
-0.02
-1.02
-2.43
-4.23
-6.22
-8.21
-10.01
-11.60
-13.03
-14.46
-16.02
-17.81
-19.87
-22.19
-24.65
-27.02
-28.95
-30.04
-29.94
-28.49
-25.77
-22.04
-17.61
-12.74
-7.63
-2.45
2.53
7.00
10.61
13.12
14.50
14.87
14.47
13.57
12.38
11.07
9.77
8.57
7.52
6.60
5.78
5.02
4.37
3.82
3.38
2.96
2.43
1.65
0.56
-0.82
-2.41
-4.17
-6.11
-8.30
-10.81
-13.54
-16.19
-18.29
-19.33
-18.90
-16.87
-13.42
-9.02
-4.22
0.42
4.54
7.92
10.54
12.43
13.60
14.08
13.92
13.21
12.14
10.95
9.88
9.05
8.45
7.93
7.32
6.52
5.52
4.44
3.46
2.67
2.07
1.55
0.96
0.22
-0.69
-1.71
-2.85
-4.21
-5.98
-8.33
-11.24
-14.45
-17.43
-19.62
-20.59
-20.13
-18.37
-15.60
-12.19
-8.49
-4.79
-1.36
1.56
3.79
5.24
5.96
6.12
5.94
5.59
5.17
4.63
3.93
3.05
2.11
1.28
0.81
0.82
1.30
2.02
2.61
2.73
2.17
0.91
-0.92
-3.05
-5.25
-7.39
-9.44
-11.43
-13.44
-15.47
-17.40
-19.03
-20.08
-20.25
-19.31
-17.24
-14.24
-10.66
-6.97
-3.59
-0.75
1.50
3.27
4.70
5.88
6.78
7.31
7.39
7.04
6.33
5.39
4.32
3.22
2.15
1.22
0.57
0.33
0.56
1.16
1.87
2.34
2.21
1.23
-0.62
-3.16
-6.01
-8.65
-10.53
-11.21
-10.43
-8.18
-4.68
-0.29
4.52
9.34
13.80
17.68
20.85
23.23
24.79
25.49
25.30
24.23
22.40
20.02
17.41
14.90
12.78
11.22
10.24
9.78
9.65
9.64
9.49
9.00
8.07
6.69
4.97
3.05
0.98
-1.27
-3.82
-6.78
-10.11
-13.65
-17.05
-19.87
-21.66
-22.14
-21.20
-18.99
-15.85
-12.18
-8.36
-4.70
-1.37
1.48
3.76
5.43
6.52
7.17
7.56
7.82
7.97
7.96
7.69
7.14
6.40
5.62
4.93
4.33
3.75
3.13
2.40
1.59
0.74
-0.17
-1.23
-2.47
-3.93
-5.52
-7.13
-8.68
-10.21
-11.86
-13.82
-16.16
-18.71
-21.11
-22.83
-23.39
-22.47
-20.00
-16.19
-11.46
-6.34
-1.35
3.06
6.64
9.30
11.13
12.31
12.98
13.25
13.17
12.76
12.06
11.21
10.33
9.52
8.79
8.11
7.41
6.65
5.83
5.00
4.20
3.44
2.70
1.89
0.91
-0.40
-2.17
-4.48
-7.21
-10.08
-12.68
-14.51
-15.21
-14.60
-12.72
-9.77
-6.06
-1.93
2.23
6.10
9.38
11.90
13.62
14.58
14.91
14.78
14.31
13.64
12.85
12.00
11.15
10.30
9.44
8.57
7.65
6.67
5.62
4.50
3.30
2.07
0.79
-0.57
-2.08
-3.85
-5.95
-8.37
-10.98
-13.54
-15.74
-17.33
-18.07
-17.81
-16.49
-14.16
-11.01
-7.32
-3.51
0.05
3.12
5.61
7.59
9.16
10.40
11.26
11.67
11.54
10.91
9.89
8.72
7.62
6.72
6.02
5.41
4.77
3.98
3.05
2.04
1.05
0.06
-0.98
-2.16
-3.55
-5.09
-6.75
-8.49
-10.39
-12.59
-15.18
-18.10
-21.03
-23.49
-25.01
-25.31
-24.38
-22.45
-19.89
-17.02
-14.10
-11.26
-8.69
-6.58
-5.22
-4.83
-5.49
-7.10
-9.31
-11.77
-14.23
-16.67
-19.30
-22.38
-26.06
-30.26
-34.70
-39.02
-43.02
-46.77
-50.61
-55.01
-60.30
-66.61
-73.72
-81.24
-88.76
-96.09
-103.28
-110.64
-118.64
-127.52
-137.21
-147.15
-156.32
-163.31
-166.48
-164.08
-154.70
-137.85
-114.58
-87.77
-61.58
-40.28
-26.70
-21.13
-21.38
-23.77
-24.92
-23.06
-18.47
-12.87
-8.12
-5.04
-3.28
-1.84
0.41
4.48
11.19
21.25
35.12
52.62
72.66
92.78
109.60
120.05
122.88
119.21
111.96
104.33
98.17
93.62
88.88
81.39
69.81
55.30
41.30
31.86
29.79
35.41
48.05
65.12
83.13
99.50
113.84
127.39
141.40
155.80
169.06
181.96
194.06
202.82
204.86
198.21
183.40
163.06
141.48
123.50
117.69
127.75
149.49
173.92
192.90
202.60
203.82
201.13
201.15
216.30
253.06
306.78
364.64
412.72
441.20
446.30
430.32
362.15
238.76
88.59
-49.78
-155.52
-228.59
-276.65
-306.18
-321.21
-325.25
-317.80
-300.82
-282.15
-270.72
-270.93
-281.23
-296.74
-312.26
-324.32
-327.71
-316.66
-294.16
-267.23
-241.57
-219.56
-201.08
-184.80
-169.27
-150.61
-127.09
-101.28
-77.26
-57.25
-41.54
-29.54
-20.68
-14.47
-8.87
-2.16
5.71
14.35
24.39
36.32
49.88
64.17
78.23
91.90
104.99
116.38
124.59
129.00
128.68
122.71
111.09
95.33
78.14
62.19
49.28
34.76
18.50
4.05
-4.62
-6.92
-6.32
-8.41
-18.23
-37.22
-61.91
-84.20
-96.46
-95.18
-82.12
-62.59
-41.05
-20.23
-0.83
16.92
32.06
40.77
37.94
20.50
-9.75
-45.90
-78.58
-99.30
-103.31
-89.31
-60.51
-23.42
14.86
48.73
74.64
90.33
94.31
85.60
64.55
33.07
-4.83
-43.31
-76.04
-98.03
-106.91
-102.71
-86.72
-59.99
-23.13
22.87
75.08
127.42
171.01
196.32
196.56
170.43
123.16
64.86
7.39
-39.23
-69.65
-83.98
-86.74
-84.16
-81.32
-79.98
-78.16
-71.31
-54.54
-25.03
16.46
65.51
115.12
157.56
186.13
196.45
187.18
160.14
120.02
73.47
27.92
-9.91
-35.40
-46.98
-46.10
-36.53
-23.04
-10.09
-0.81
3.36
2.52
-2.12
-8.90
-16.19
-22.76
-28.10
-32.46
-36.65
-41.58
-47.76
-54.84
-61.61
-66.38
-67.64
-64.78
-58.29
-49.63
-40.51
-32.31
-25.58
-20.10
-15.30
-10.68
-6.15
-2.02
1.25
3.36
4.35
4.53
4.34
4.10
3.95
3.83
3.63
3.31
2.89
2.42
1.89
1.17
0.05
-1.60
-3.83
-6.49
-9.34
-12.19
-15.00
-17.91
-21.11
-24.66
-28.27
-31.34
-33.11
-32.93
-30.55
-26.17
-20.38
-13.91
-7.42
-1.34
4.06
8.65
12.33
15.03
16.76
17.60
17.69
17.19
16.21
14.92
13.43
11.89
10.40
8.99
7.64
6.30
4.95
3.66
2.52
1.60
0.83
0.01
-1.11
-2.75
-4.99
-7.85
-11.26
-15.13
-19.23
-23.16
-26.33
-28.11
-28.00
-25.84
-21.85
-16.52
-10.48
-4.31
1.58
6.97
11.72
15.76
19.03
21.44
22.97
23.62
23.50
22.82
21.79
20.56
19.16
17.53
15.58
13.33
10.92
8.57
6.49
4.76
3.26
1.76
0.04
-2.02
-4.42
-7.05
-9.81
-12.63
-15.57
-18.64
-21.83
-24.93
-27.52
-29.07
-29.04
-27.15
-23.49
-18.50
-12.83
-7.11
-1.75
3.03
7.15
10.55
13.12
14.80
15.65
15.94
16.10
16.54
17.46
18.77
20.10
20.98
21.08
20.31
18.90
17.29
15.90
15.03
14.69
14.71
14.79
14.70
14.28
13.35
11.64
8.73
4.20
-2.08
-9.72
-17.77
-24.95
-30.05
-32.34
-31.70
-28.64
-23.96
-18.52
-13.04
-8.04
-3.81
-0.50
1.88
3.41
4.27
4.64
4.68
4.54
4.36
4.22
4.18
4.19
4.09
3.62
2.61
0.99
-1.09
-3.27
-5.07
-6.07
-6.05
-5.05
-3.46
-1.88
-0.99
-1.34
-3.10
-6.07
-9.61
-12.88
-15.08
-15.59
-14.15
-10.79
-5.79
0.40
7.28
14.31
21.01
26.98
31.98
35.86
38.59
40.16
40.61
40.02
38.54
36.33
33.56
30.34
26.68
22.51
17.83
12.75
7.51
2.44
-2.18
-6.29
-10.00
-13.63
-17.46
-21.63
-26.08
-30.54
-34.60
-37.80
-39.69
-39.92
-38.35
-35.09
-30.56
-25.38
-20.16
-15.35
-11.09
-7.25
-3.59
0.05
3.60
6.78
9.22
10.65
11.06
10.66
9.82
8.90
8.18
7.79
7.70
7.80
7.91
7.84
7.41
6.52
5.15
3.41
1.43
-0.71
-3.00
-5.49
-8.09
-10.51
-12.19
-12.52
-11.06
-7.84
-3.38
1.53
6.08
9.77
12.54
14.64
16.39
18.13
20.01
22.05
24.11
25.80
26.54
25.64
22.80
18.36
13.43
9.39
7.16
6.50
5.97
3.60
-2.03
-10.89
-21.29
-30.41
-35.21
-33.41
-24.10
-7.94
12.69
34.07
51.70
61.50
60.89
49.90
31.50
10.55
-8.01
-21.00
-27.91
-30.43
-31.02
-31.36
-31.54
-30.55
-27.29
-21.70
-15.02
-9.13
-5.48
-4.34
-4.78
-5.26
-4.67
-2.91
-0.88
0.09
-1.04
-4.67
-10.44
-17.46
-24.74
-31.58
-37.76
-43.29
-48.27
-52.60
-55.86
-57.45
-56.86
-53.95
-49.08
-42.99
-36.57
-30.57
-25.39
-21.02
-17.07
-13.12
-8.96
-4.78
-1.10
1.43
2.34
1.60
-0.27
-2.31
-3.40
-2.79
-0.21
3.99
9.01
13.81
17.41
19.04
18.40
15.64
11.26
6.08
1.07
-2.92
-5.49
-6.57
-6.04
-3.15
3.59
15.90
35.21
61.83
94.13
127.98
157.33
175.56
176.95
158.06
118.25
60.74
-7.16
-75.01
-131.75
-168.50
-180.84
-170.05
-142.47
-107.81
-75.48
-51.72
-38.40
-34.22
-36.12
-40.46
-43.67
-39.55
-24.72
-0.98
25.87
50.03
67.36
75.29
72.86
60.97
42.42
20.82
0.49
-15.97
-26.58
-31.11
-30.94
-28.22
-24.81
-21.76
-19.76
-18.92
-18.90
-18.81
-18.22
-17.03
-15.27
-12.88
-9.82
-6.37
-2.86
0.63
4.46
8.86
13.78
18.78
23.09
25.83
26.14
23.74
19.12
13.54
8.46
5.06
3.99
5.25
8.27
12.01
15.34
17.35
17.71
16.60
14.72
13.03
12.44
13.49
16.14
19.82
23.54
26.32
27.39
26.54
24.09
20.84
17.74
15.55
14.57
14.60
15.11
15.49
15.34
14.53
13.23
11.70
10.24
9.09
8.38
8.09
7.94
7.44
5.97
2.97
-1.73
-7.81
-14.42
-20.32
-24.25
-25.31
-23.35
-19.08
-13.99
-9.76
-7.66
-7.94
-9.60
-10.74
-9.26
-3.75
5.97
18.59
31.75
42.65
48.83
48.81
42.47
31.14
17.27
3.90
-6.08
-10.67
-9.22
-2.46
7.76
19.09
29.32
36.92
41.23
42.50
41.59
39.63
37.56
35.92
34.59
33.04
30.51
26.46
20.84
14.10
7.07
0.60
-4.66
-8.47
-10.90
-12.21
-12.67
-12.43
-11.48
-9.79
-7.32
-4.09
-0.24
3.93
7.92
11.15
13.08
13.44
12.31
10.17
7.60
5.14
3.12
1.70
0.97
1.05
1.93
3.40
4.89
5.63
4.94
2.60
-1.00
-5.11
-8.97
-12.16
-14.73
-16.93
-18.98
-20.79
-22.09
-22.62
-22.35
-21.48
-20.28
-18.86
-17.15
-15.01
-12.48
-9.95
-8.06
-7.39
-8.12
-9.83
-11.69
-12.85
-12.83
-11.72
-10.07
-8.58
-7.75
-7.75
-8.43
-9.52
-10.81
-12.23
-13.88
-15.95
-18.62
-22.01
-26.07
-30.47
-34.68
-38.01
-39.81
-39.70
-37.63
-33.83
-28.74
-22.82
-16.47
-10.09
-4.01
1.51
6.30
10.37
13.76
16.56
18.75
20.19
20.77
20.49
19.53
18.18
16.72
15.23
13.61
11.68
9.41
7.02
4.84
3.20
2.12
1.30
0.20
-1.67
-4.51
-8.08
-11.76
-14.79
-16.48
-16.49
-14.82
-11.79
-7.83
-3.35
1.37
6.14
10.78
15.03
18.57
21.03
22.14
21.83
20.21
17.63
14.49
11.17
7.94
4.90
2.04
-0.72
-3.48
-6.22
-8.84
-11.17
-13.11
-14.66
-15.98
-17.38
-19.11
-21.22
-23.49
-25.43
-26.42
-25.94
-23.71
-19.80
-14.57
-8.53
-2.19
4.06
9.94
15.25
19.83
23.51
26.18
27.83
28.56
28.59
28.18
27.54
26.80
26.02
25.25
24.53
23.91
23.38
22.89
22.21
21.10
19.34
16.87
13.86
10.70
7.94
6.02
5.14
5.03
5.08
4.55
2.90
0.00
-3.80
-7.90
-11.69
-14.79
-17.17
-19.09
-20.93
-23.04
-25.63
-28.64
-31.73
-34.42
-36.22
-36.92
-36.71
-36.12
-35.81
-36.20
-37.25
-38.52
-39.36
-39.34
-38.47
-37.28
-36.56
-36.99
-38.87
-41.86
-45.18
-47.90
-49.23
-48.78
-46.55
-42.78
-37.75
-31.68
-24.76
-17.17
-9.27
-1.51
5.60
11.57
16.07
19.00
20.49
20.92
20.75
20.45
20.30
20.35
20.44
20.37
20.06
19.57
19.07
18.69
18.42
18.07
17.33
15.89
13.58
10.32
6.27
1.78
-2.58
-6.15
-8.28
-8.54
-6.90
-3.70
0.49
5.02
9.38
13.34
16.90
20.24
23.53
26.92
30.46
33.99
37.22
39.74
41.12
41.15
39.90
37.81
35.48
33.52
32.25
31.63
31.27
30.73
29.70
28.16
26.29
24.37
22.50
20.59
18.25
15.16
11.18
6.48
1.47
-3.41
-7.78
-11.47
-14.51
-17.35
-20.43
-24.11
-28.36
-32.70
-36.13
-37.31
-34.98
-28.53
-18.86
-7.80
2.19
9.11
12.09
11.56
9.01
6.29
4.86
4.85
5.88
7.00
7.48
7.01
5.63
3.74
1.92
3.28
9.42
19.45
29.02
33.16
28.69
15.16
-5.13
-27.73
-47.17
-61.73
-68.47
-65.94
-54.37
-35.64
-12.80
10.81
32.41
50.10
62.55
70.11
72.74
70.88
65.31
56.89
46.73
36.19
26.69
19.19
14.32
11.61
10.04
8.37
5.77
2.19
-1.57
-4.32
-5.25
-4.08
-1.47
1.53
4.02
5.49
5.92
5.54
4.56
2.99
0.80
-2.06
-5.48
-9.19
-13.04
-17.29
-22.58
-29.76
-39.35
-51.21
-64.62
-78.53
-91.82
-103.66
-113.60
-121.48
-127.36
-131.19
-133.11
-133.62
-133.54
-133.87
-135.33
-138.13
-141.88
-145.61
-147.51
-145.91
-139.93
-129.80
-116.41
-100.85
-84.01
-66.51
-48.74
-29.85
-9.21
12.82
34.75
54.64
70.91
82.51
88.97
90.36
89.25
88.51
90.16
94.63
101.45
109.94
119.33
128.65
136.90
145.78
157.12
171.91
189.48
208.67
228.91
250.20
272.76
281.82
267.11
228.25
175.41
120.00
68.74
24.53
-11.23
-37.84
-55.84
-64.13
-64.45
-59.23
-51.88
-45.29
-40.94
-39.30
-40.53
-44.50
-48.82
-51.62
-51.31
-48.17
-43.72
-39.72
-37.58
-38.13
-41.51
-46.19
-50.53
-53.25
-54.09
-53.16
-50.44
-46.03
-40.41
-34.44
-28.45
-22.59
-16.71
-10.85
-5.24
-0.23
3.76
6.26
7.03
6.40
4.97
3.49
2.46
2.09
2.34
2.96
3.57
3.82
3.52
2.72
1.70
0.72
-0.14
-1.00
-2.11
-3.71
-5.80
-8.14
-10.37
-12.21
-13.58
-14.59
-15.37
-15.87
-15.80
-14.76
-12.42
-8.77
-4.18
0.72
5.30
9.21
12.53
15.59
18.76
22.14
25.39
27.86
28.81
27.83
24.98
20.80
16.06
11.40
7.14
3.24
-0.50
-4.30
-8.19
-12.11
-15.96
-19.72
-23.42
-27.05
-30.44
-33.27
-35.12
-35.73
-35.14
-33.75
-32.22
-31.20
-31.07
-31.73
-32.68
-33.13
-32.39
-30.09
-26.32
-21.52
-16.26
-10.96
-5.79
-0.69
4.46
9.63
14.55
18.72
21.66
23.05
22.90
21.56
19.58
17.50
15.71
14.37
13.45
12.89
12.64
12.72
13.13
13.72
14.18
14.13
13.24
11.36
8.59
5.15
1.27
-2.87
-7.13
-11.21
-14.61
-16.66
-16.72
-14.41
-9.86
-3.68
3.25
10.05
16.02
20.77
24.17
26.30
27.35
27.58
27.26
26.62
25.78
24.73
23.36
21.56
19.28
16.64
13.82
11.01
8.36
5.92
3.65
1.50
-0.59
-2.67
-4.78
-6.99
-9.41
-12.18
-15.38
-18.94
-22.59
-25.86
-28.23
-29.27
-28.84
-27.06
-24.28
-20.84
-16.98
-12.89
-8.68
-4.64
-1.13
1.47
2.90
3.21
2.71
1.87
1.07
0.50
0.08
-0.42
-1.24
-2.50
-4.15
-5.97
-7.66
-8.94
-9.58
-9.47
-8.72
-7.65
-6.88
-7.09
-8.78
-12.01
-16.27
-20.55
-23.72
-24.86
-23.61
-20.19
-15.27
-9.70
-4.26
0.47
4.17
6.84
8.69
10.13
11.55
13.17
14.94
16.60
17.81
18.40
18.41
18.03
17.46
16.72
15.72
14.38
12.69
10.83
9.06
7.52
6.18
4.82
3.13
0.83
-2.18
-5.78
-9.66
-13.42
-16.60
-18.77
-19.55
-18.72
-16.26
-12.36
-7.50
-2.38
2.26
5.77
7.83
8.53
8.23
7.43
6.55
5.84
5.36
5.12
5.12
5.34
5.71
6.06
6.15
5.79
4.85
3.39
1.56
-0.38
-2.16
-3.63
-4.75
-5.65
-6.56
-7.71
-9.23
-11.09
-13.19
-15.35
-17.45
-19.39
-20.98
-21.88
-21.68
-20.01
-16.82
-12.48
-7.72
-3.44
-0.32
1.44
2.10
2.24
2.45
3.05
4.04
5.21
6.36
7.34
8.11
8.63
8.79
8.43
7.44
5.81
3.50
0.44
-3.47
-8.20
-13.42
-18.34
-21.86
-22.92
-20.86
-15.71
-8.17
0.54
9.13
16.51
22.03
25.43
26.83
26.62
25.31
23.41
21.33
19.40
17.90
16.99
16.70
16.81
17.02
16.94
16.28
14.87
12.78
10.30
7.82
5.67
4.05
3.02
2.52
2.29
2.05
1.58
0.85
-0.04
-1.05
-2.02
-2.54
-1.98
0.19
4.15
9.58
15.67
21.23
24.57
24.39
20.56
14.17
6.93
0.61
-3.47
-4.70
-3.30
-0.85
0.93
1.18
0.16
-1.36
-2.67
-3.32
-3.30
-3.32
-5.60
-12.41
-24.65
-41.37
-60.37
-78.73
-93.29
-101.20
-95.43
-73.17
-39.15
-3.23
26.18
45.03
52.74
50.77
41.84
29.16
14.91
0.75
-11.89
-21.95
-29.19
-33.94
-36.23
-36.04
-32.76
-27.12
-20.47
-13.99
-8.32
-3.88
-0.89
1.07
2.79
4.84
6.77
7.84
7.70
6.58
4.93
3.39
2.64
3.59
6.65
11.15
16.00
20.30
23.63
25.94
27.61
30.22
35.57
44.76
57.55
72.84
89.16
104.80
117.69
120.35
107.42
78.79
40.23
-0.03
-34.92
-59.83
-72.69
-73.89
-65.73
-51.08
-33.20
-15.42
-0.61
9.43
14.23
14.94
11.96
6.12
-0.78
-6.77
-10.38
-11.17
-9.65
-6.68
-3.29
-0.38
1.60
3.07
4.65
6.77
9.41
11.87
13.68
14.69
14.97
14.90
15.07
15.78
16.80
17.44
16.91
14.81
11.29
6.88
2.44
-1.23
-3.66
-4.82
-5.03
-4.78
-4.47
-4.42
-4.80
-5.66
-6.94
-8.50
-10.21
-11.94
-13.65
-15.33
-17.08
-19.13
-21.69
-24.88
-28.55
-32.30
-35.44
-37.28
-37.27
-35.23
-31.40
-26.28
-20.54
-14.74
-9.30
-4.46
-0.32
3.12
5.88
7.99
9.52
10.58
11.31
11.86
12.32
12.70
12.93
12.89
12.56
12.05
11.54
11.17
10.96
10.76
10.33
9.48
8.19
6.62
4.98
3.42
1.86
0.10
-2.12
-4.95
-8.30
-11.86
-15.16
-17.71
-19.13
-19.25
-18.08
-15.78
-12.57
-8.67
-4.32
0.19
4.57
8.47
11.62
13.86
15.16
15.68
15.60
15.17
14.65
14.24
14.03
14.03
14.14
14.14
13.87
13.22
12.22
10.98
9.63
8.28
6.95
5.62
4.23
2.73
1.04
-0.87
-3.06
-5.52
-8.16
-10.79
-13.11
-14.81
-15.56
-15.13
-13.46
-10.65
-7.01
-2.89
1.27
5.10
8.30
10.75
12.44
13.50
14.12
14.45
14.54
14.39
13.97
13.35
12.64
12.06
11.72
11.62
11.61
11.46
10.96
10.02
8.66
6.95
4.98
2.83
0.53
-1.85
-4.19
-6.31
-8.02
-9.16
-9.76
-9.99
-10.17
-10.55
-11.19
-11.82
-12.03
-11.42
-9.94
-7.94
-6.03
-4.76
-4.30
-4.34
-4.27
-3.54
-1.96
0.21
2.40
4.08
5.01
5.28
5.19
5.05
5.00
4.98
4.92
4.83
4.83
5.17
5.99
7.23
8.61
9.74
10.23
9.91
8.75
6.92
4.61
1.97
-0.98
-4.24
-7.93
-12.12
-16.86
-22.12
-27.75
-33.50
-38.99
-43.84
-47.72
-50.46
-52.02
-52.46
-51.88
-50.35
-48.00
-44.99
-41.60
-38.09
-34.62
-31.18
-27.55
-23.46
-18.76
-13.56
-8.19
-3.10
1.38
5.18
8.58
11.99
15.73
19.82
23.90
27.31
29.42
29.76
28.20
24.96
20.60
15.81
11.27
7.50
4.80
3.20
2.43
1.90
0.89
-1.22
-4.83
-9.97
-16.27
-23.01
-29.20
-33.89
-36.45
-36.55
-34.14
-29.45
-23.06
-15.83
-8.75
-2.84
1.03
1.96
-0.21
-4.69
-9.87
-13.84
-15.11
-12.91
-7.65
-0.66
5.54
9.00
9.24
7.03
3.50
-0.54
-4.72
-9.22
-14.19
-20.57
-28.22
-35.64
-40.91
-42.96
-42.05
-39.27
-36.33
-34.78
-37.25
-44.89
-56.55
-69.57
-81.03
-88.71
-91.23
-88.70
-72.95
-43.55
-8.60
20.86
38.83
46.15
45.50
41.71
37.42
33.70
29.30
23.39
17.88
14.39
13.65
15.17
18.10
21.43
24.71
26.86
27.60
27.71
28.09
29.18
30.62
31.92
32.44
31.88
29.57
25.33
19.75
13.66
7.74
2.24
-2.85
-7.84
-13.13
-19.32
-26.55
-34.10
-40.54
-44.16
-43.71
-38.84
-30.43
-20.07
-9.29
1.05
11.17
21.82
33.48
45.64
56.93
65.82
71.63
75.45
79.21
84.69
92.46
101.53
109.83
115.25
116.62
114.21
109.84
105.29
101.64
99.04
97.10
95.24
92.96
89.82
85.36
79.59
71.93
61.62
48.37
33.03
17.62
4.73
-3.58
-10.88
-19.39
-30.53
-44.35
-59.80
-74.94
-87.43
-95.39
-98.65
-98.19
-94.70
-89.29
-83.30
-77.94
-74.16
-72.47
-72.93
-75.27
-78.69
-81.61
-82.81
-81.53
-77.60
-71.29
-63.23
-54.32
-45.59
-37.82
-31.11
-25.32
-20.19
-15.55
-11.43
-8.07
-5.73
-4.36
-3.45
-2.09
0.36
4.00
8.37
12.81
17.00
21.08
25.59
30.98
37.27
43.82
49.70
54.19
57.19
59.20
60.89
62.66
64.32
65.23
64.71
62.44
58.64
53.94
49.02
44.35
40.08
36.10
32.19
28.14
23.73
18.71
12.90
6.35
-0.52
-6.98
-12.33
-16.27
-19.16
-21.94
-25.66
-30.97
-37.76
-45.20
-52.06
-57.18
-59.82
-59.67
-56.87
-51.80
-45.07
-37.40
-29.63
-22.59
-16.90
-12.85
-10.31
-8.87
-7.92
-6.91
-5.48
-3.55
-1.25
1.22
3.78
6.50
9.56
13.07
16.86
20.42
23.05
24.22
23.72
21.80
18.99
15.89
12.93
10.40
8.43
7.15
6.60
6.68
7.02
7.13
6.52
4.98
2.72
0.19
-2.09
-3.81
-4.94
-5.67
-6.15
-6.42
-6.30
-5.50
-3.84
-1.36
1.65
4.70
7.29
9.00
9.58
9.04
7.52
5.23
2.35
-1.02
-4.89
-9.28
-14.10
-18.98
-23.34
-26.38
-27.44
-26.18
-22.78
-17.90
-12.39
-7.01
-2.15
2.17
6.15
9.92
13.41
16.31
18.28
19.17
19.10
18.44
17.60
16.88
16.30
15.70
14.89
13.77
12.42
10.97
9.57
8.22
6.81
5.18
3.26
1.14
-0.98
-2.94
-4.66
-6.28
-8.04
-10.15
-12.66
-15.38
-17.93
-19.80
-20.57
-19.98
-18.06
-15.09
-11.53
-7.84
-4.39
-1.35
1.27
3.56
5.59
7.32
8.69
9.58
9.98
10.02
9.88
9.77
9.78
9.88
9.96
9.95
9.82
9.62
9.46
9.34
9.18
8.81
8.03
6.75
5.00
2.91
0.64
-1.66
-3.94
-6.19
-8.38
-10.42
-12.12
-13.19
-13.36
-12.43
-10.37
-7.30
-3.41
1.03
5.80
10.68
15.43
19.76
23.43
26.30
28.40
29.94
31.18
32.37
33.59
34.77
35.76
36.44
36.73
36.63
36.15
35.30
34.07
32.52
30.81
29.18
27.78
26.65
25.53
23.97
21.55
18.16
14.10
10.06
6.81
4.77
3.77
3.05
1.65
-1.07
-5.08
-9.65
-13.67
-16.20
-16.86
-15.88
-13.89
-11.57
-9.31
-7.14
-4.85
-2.18
1.13
5.19
9.95
15.05
19.73
22.67
22.34
17.43
7.52
-6.54
-22.75
-38.64
-52.16
-62.31
-69.27
-73.89
-77.01
-79.02
-79.82
-79.29
-77.69
-75.79
-74.56
-74.60
-75.82
-77.33
-77.87
-76.21
-71.56
-63.63
-52.61
-39.06
-23.87
-8.33
5.96
17.39
24.71
27.54
26.54
23.31
19.85
18.04
19.06
23.20
29.86
37.88
45.88
52.59
57.11
59.02
58.48
56.14
53.00
50.06
48.08
47.37
47.69
48.48
49.00
48.60
46.89
43.79
39.51
34.43
28.97
23.39
17.77
11.95
5.68
-1.12
-8.21
-14.94
-20.40
-23.79
-24.69
-23.32
-20.45
-17.15
-14.34
-12.55
-11.81
-11.92
-12.68
-14.08
-16.15
-18.70
-21.05
-22.09
-20.81
-16.88
-11.05
-4.90
-0.11
2.41
2.88
2.41
2.25
3.14
5.01
7.32
9.53
11.48
13.30
15.09
16.68
17.59
17.34
15.86
13.60
11.44
10.33
10.92
13.37
17.29
21.96
26.62
30.76
34.31
37.53
40.76
44.17
47.59
50.56
52.49
52.81
51.09
47.01
40.49
31.82
21.90
12.17
4.35
-0.25
-1.35
0.13
2.30
3.06
0.88
-4.81
-13.56
-24.31
-35.70
-46.32
-54.94
-60.58
-62.86
-62.21
-59.96
-57.95
-58.01
-61.22
-67.63
-76.31
-85.75
-94.37
-100.97
-104.88
-106.12
-105.29
-103.40
-101.50
-100.34
-100.01
-99.87
-98.81
-95.74
-89.98
-81.47
-70.76
-58.64
-45.88
-32.96
-20.05
-7.12
5.90
18.95
31.75
43.88
54.87
64.27
71.78
77.13
80.22
81.07
80.03
77.79
75.32
73.52
72.83
72.95
72.85
71.18
66.85
59.56
49.99
39.56
29.97
22.60
18.14
16.50
16.93
18.38
19.84
20.66
20.70
20.19
19.51
19.03
18.88
19.03
19.41
19.99
20.80
21.83
22.91
23.69
23.78
22.94
21.28
19.22
17.34
16.10
15.73
16.08
16.85
17.64
18.09
17.93
16.95
15.08
12.35
9.02
5.51
2.38
0.13
-0.89
-0.64
0.70
2.86
5.61
8.82
12.38
16.13
19.72
22.65
24.48
24.94
24.10
22.30
20.03
17.74
15.76
14.20
13.07
12.22
11.39
10.23
8.28
5.13
0.56
-5.38
-12.28
-19.55
-26.53
-32.68
-37.67
-41.44
-44.17
-46.23
-48.01
-49.78
-51.59
-53.16
-54.05
-53.76
-52.05
-48.94
-44.82
-40.30
-36.06
-32.77
-30.95
-30.91
-32.60
-35.63
-39.24
-42.57
-44.83
-45.53
-44.63
-42.51
-39.81
-37.15
-34.95
-33.16
-31.36
-28.94
-25.51
-21.15
-16.57
-12.76
-10.56
-10.17
-10.86
-11.25
-9.82
-5.66
1.18
9.62
18.12
25.27
30.45
33.93
36.56
39.19
42.12
44.93
46.80
47.04
45.50
42.70
39.42
36.31
33.58
30.98
28.14
24.87
21.34
17.93
14.96
12.50
10.32
8.06
5.46
2.51
-0.63
-3.73
-6.65
-9.32
-11.69
-13.64
-14.91
-15.23
-14.36
-12.31
-9.31
-5.81
-2.28
0.85
3.41
5.42
7.06
8.57
10.07
11.49
12.62
13.18
12.99
12.06
10.59
8.86
7.12
5.46
3.89
2.35
0.74
-0.95
-2.68
-4.34
-5.79
-6.84
-7.35
-7.24
-6.58
-5.59
-4.56
-3.73
-3.16
-2.72
-2.10
-0.97
0.89
3.45
6.52
9.77
12.86
15.60
17.90
19.73
21.04
21.70
21.56
20.49
18.50
15.70
12.38
8.85
5.40
2.27
-0.46
-2.80
-4.86
-6.82
-8.86
-11.15
-13.78
-16.70
-19.71
-22.45
-24.53
-25.65
-25.74
-25.06
-24.09
-23.35
-23.24
-23.79
-24.74
-25.58
-25.82
-25.04
-23.09
-20.00
-16.03
-11.55
-6.99
-2.72
1.00
4.05
6.47
8.41
10.02
11.40
12.54
13.27
13.36
12.62
11.02
8.75
6.12
3.39
0.64
-2.25
-5.50
-9.22
-13.27
-17.35
-21.05
-24.04
-26.07
-26.88
-26.18
-23.76
-19.69
-14.50
-9.09
-4.45
-1.25
0.47
1.25
1.86
2.92
4.60
6.72
8.89
10.82
12.34
13.38
13.92
13.86
13.11
11.68
9.70
7.40
5.11
3.11
1.55
0.41
-0.49
-1.45
-2.72
-4.37
-6.19
-7.79
-8.83
-9.27
-9.44
-9.89
-11.06
-12.99
-15.20
-16.99
-17.72
-17.09
-15.26
-12.58
-9.45
-6.07
-2.58
0.93
4.21
7.00
9.08
10.46
11.36
12.11
12.98
14.15
15.63
17.37
19.31
21.36
23.44
25.49
27.46
29.32
31.05
32.53
33.60
34.16
34.22
33.98
33.78
33.90
34.42
35.18
35.88
36.16
35.80
34.77
33.28
31.75
30.71
30.70
31.98
34.43
37.53
40.59
43.03
44.61
45.38
45.51
45.00
43.66
41.25
37.75
33.55
29.26
25.35
21.73
17.75
12.40
4.85
-5.13
-17.10
-30.15
-43.42
-56.42
-69.13
-81.80
-94.65
-107.51
-119.88
-130.97
-140.11
-146.89
-151.33
-153.76
-154.61
-154.13
-152.24
-148.65
-142.94
-134.93
-124.85
-113.30
-101.10
-89.08
-77.84
-67.70
-58.76
-50.98
-44.32
-38.66
-33.81
-29.49
-25.32
-20.96
-16.02
-10.35
-3.92
3.08
10.29
17.43
24.24
30.67
36.80
42.98
49.46
56.44
63.83
71.35
78.76
85.79
92.29
98.20
103.66
108.49
112.25
114.03
112.89
108.41
100.74
90.82
79.87
69.09
58.71
49.43
41.60
35.00
29.35
24.77
21.99
19.77
18.19
16.77
14.84
11.72
7.05
2.37
-1.40
-3.69
-4.43
-3.74
-2.13
-0.03
2.20
4.41
6.60
8.55
9.99
10.48
9.81
7.78
4.36
-0.29
-5.89
-12.06
-18.58
-25.30
-32.16
-38.99
-45.66
-51.92
-57.38
-61.62
-64.28
-65.27
-64.73
-62.96
-60.26
-56.93
-53.15
-49.04
-44.69
-40.23
-35.90
-31.94
-28.64
-26.22
-24.84
-24.54
-25.17
-26.42
-27.85
-28.99
-29.47
-29.06
-27.75
-25.65
-22.97
-19.92
-16.69
-13.40
-10.14
-6.94
-3.79
-0.74
2.16
4.79
6.95
8.37
8.76
7.94
5.90
2.91
-0.55
-3.88
-6.58
-8.33
-9.10
-9.03
-8.32
-7.08
-5.33
-3.10
-0.53
2.04
4.13
5.32
5.41
4.52
3.03
1.43
0.19
-0.30
0.28
2.12
5.32
9.76
15.06
20.68
26.00
30.59
34.23
36.99
39.07
40.70
42.01
43.07
43.89
44.44
44.71
44.63
44.14
43.21
41.89
40.36
38.97
38.23
38.62
40.47
43.83
48.33
53.34
58.07
61.88
64.39
65.47
65.14
63.40
60.17
55.30
48.75
40.64
31.21
20.62
8.86
-4.16
-18.38
-33.26
-47.70
-60.34
-70.15
-76.90
-81.26
-84.40
-87.21
-89.65
-90.76
-89.21
-84.12
-75.59
-64.62
-52.50
-40.08
-27.44
-14.09
0.52
16.45
33.22
49.99
66.05
81.05
94.86
107.23
117.57
124.88
128.20
127.06
121.89
114.03
105.31
97.43
91.39
87.24
84.15
80.87
76.21
69.46
60.54
50.02
39.00
28.96
21.42
17.43
17.14
19.57
22.79
24.67
23.71
19.65
13.49
6.85
1.15
-3.11
-6.35
-9.53
-13.33
-17.72
-21.90
-24.76
-25.54
-24.17
-21.38
-18.34
-16.22
-15.83
-17.52
-21.22
-26.68
-33.62
-41.77
-50.86
-60.57
-70.61
-80.75
-90.87
-101.01
-111.28
-121.73
-132.28
-142.60
-152.14
-160.20
-166.00
-168.85
-168.22
-163.83
-155.66
-143.89
-128.95
-111.47
-92.22
-72.08
-51.82
-32.04
-12.98
5.33
22.94
39.71
55.23
68.78
79.61
87.21
91.52
93.08
92.85
91.87
91.02
90.69
90.77
90.84
90.44
89.31
87.50
85.23
82.67
79.76
76.18
71.47
65.33
57.85
49.57
41.35
34.18
28.87
25.86
25.11
26.12
28.12
30.35
32.20
33.45
34.10
34.23
33.78
32.47
29.94
26.01
20.86
15.00
9.08
3.52
-1.61
-6.53
-11.52
-16.68
-21.84
-26.66
-30.83
-34.20
-36.78
-38.70
-40.10
-41.18
-42.25
-43.65
-45.61
-48.07
-50.52
-52.14
-52.10
-49.88
-45.49
-39.39
-32.20
-24.42
-16.28
-7.87
0.61
8.66
15.50
20.36
22.84
23.09
21.81
19.92
18.22
17.13
16.64
16.52
16.50
16.46
16.42
16.49
16.73
17.11
17.47
17.62
17.35
16.49
14.97
12.81
10.10
6.97
3.59
0.19
-2.93
-5.38
-6.75
-6.70
-5.11
-2.15
1.74
5.98
9.99
13.40
16.06
17.96
19.18
19.78
19.82
19.35
18.47
17.26
15.74
13.93
11.79
9.38
6.91
4.68
2.99
1.92
1.27
0.61
-0.56
-2.55
-5.39
-8.80
-12.42
-15.93
-19.19
-22.15
-24.84
-27.16
-28.89
-29.67
-29.17
-27.20
-23.82
-19.44
-14.68
-10.24
-6.73
-4.63
-4.22
-5.68
-8.98
-13.70
-18.97
-23.49
-25.98
-25.65
-22.62
-17.96
-13.27
-10.01
-8.94
-9.91
-12.15
-14.81
-17.47
-20.27
-23.75
-28.42
-34.43
-41.37
-48.49
-54.81
-59.45
-61.76
-61.38
-58.22
-52.44
-44.46
-35.04
-25.17
-15.98
-8.42
-3.06
0.13
1.69
2.51
3.50
5.28
7.96
11.14
14.17
16.38
17.40
17.21
16.05
14.28
12.21
10.13
8.31
7.11
6.93
8.12
10.80
14.67
19.06
23.07
25.80
26.70
25.68
23.25
20.36
18.22
17.91
20.10
24.81
31.48
39.17
46.84
53.66
59.10
62.97
65.27
66.07
65.49
63.66
60.84
57.32
53.44
49.42
45.38
41.33
37.28
33.24
29.33
25.65
22.22
18.89
15.39
11.37
6.61
1.11
-4.92
-11.17
-17.36
-23.33
-28.96
-34.08
-38.29
-41.03
-41.80
-40.43
-37.18
-32.72
-27.76
-22.79
-17.92
-13.04
-8.08
-3.36
0.46
2.67
2.89
1.34
-1.20
-3.84
-5.93
-7.35
-8.41
-9.54
-10.95
-12.51
-13.83
-14.57
-14.60
-14.06
-13.17
-12.13
-11.04
-10.04
-9.41
-9.55
-10.78
-13.06
-15.85
-18.19
-19.13
-18.11
-15.25
-11.25
-7.00
-3.18
-0.04
2.54
4.73
6.52
7.72
8.12
7.78
7.08
6.53
6.46
6.82
7.16
6.92
5.79
3.82
1.36
-1.18
-3.56
-5.74
-7.80
-9.74
-11.48
-12.92
-14.11
-15.29
-16.81
-18.91
-21.55
-24.32
-26.53
-27.48
-26.67
-23.95
-19.52
-13.86
-7.58
-1.31
4.42
9.24
12.96
15.56
17.14
17.90
18.06
17.82
17.39
16.99
16.78
16.79
16.90
16.87
16.47
15.67
14.66
13.80
13.41
13.54
13.99
14.34
14.18
13.33
11.83
9.99
8.20
6.81
6.11
6.30
7.51
9.77
13.02
17.08
21.58
26.07
30.07
33.14
35.04
35.70
35.23
33.82
31.61
28.75
25.36
21.71
18.08
14.83
12.15
10.01
8.14
6.17
3.84
1.08
-1.93
-4.89
-7.61
-10.09
-12.57
-15.39
-18.82
-22.89
-27.37
-31.74
-35.40
-37.77
-38.53
-37.71
-35.69
-33.09
-30.47
-28.18
-26.27
-24.56
-22.93
-21.45
-20.38
-20.06
-20.63
-21.87
-23.22
-24.09
-24.07
-23.15
-21.66
-20.12
-18.94
-18.30
-18.19
-18.48
-19.06
-19.95
-21.26
-23.10
-25.51
-28.42
-31.59
-34.66
-37.14
-38.55
-38.45
-36.64
-33.18
-28.46
-23.03
-17.43
-11.95
-6.60
-1.18
4.50
10.39
16.14
21.18
25.02
27.47
28.72
29.30
29.75
30.43
31.33
32.18
32.61
32.39
31.50
30.18
28.80
27.63
26.69
25.67
24.08
21.40
17.44
12.45
7.15
2.46
-0.84
-2.38
-2.36
-1.35
0.04
1.40
2.71
4.22
6.22
8.84
11.90
14.98
17.57
19.28
20.01
19.97
19.47
18.83
18.17
17.33
15.99
13.84
10.72
6.70
2.07
-2.76
-7.38
-11.47
-14.78
-17.25
-18.97
-20.23
-21.46
-23.04
-25.06
-27.21
-28.75
-28.81
-26.79
-22.69
-17.21
-11.48
-6.59
-3.12
-0.99
0.30
1.28
2.21
2.92
3.07
2.36
0.81
-1.36
-3.77
-6.18
-8.44
-10.52
-12.37
-13.90
-14.94
-15.42
-15.27
-14.53
-13.29
-11.70
-9.98
-8.42
-7.31
-6.83
-6.99
-7.60
-8.40
-9.19
-9.92
-10.62
-11.34
-11.91
-11.93
-10.82
-8.05
-3.37
3.08
10.74
18.86
26.72
33.77
39.76
44.64
48.47
51.29
53.12
54.00
54.01
53.34
52.19
50.68
48.81
46.46
43.53
39.98
35.97
31.72
27.41
23.08
18.60
13.83
8.78
3.72
-0.91
-4.67
-7.34
-9.02
-10.07
-10.92
-11.88
-13.08
-14.56
-16.28
-18.18
-20.11
-21.76
-22.70
-22.57
-21.17
-18.60
-15.15
-11.12
-6.69
-1.91
3.10
8.10
12.57
15.98
17.88
18.18
17.11
15.05
12.46
9.73
7.24
5.31
4.20
3.93
4.25
4.66
4.66
3.93
2.49
0.63
-1.26
-2.91
-4.29
-5.54
-6.83
-8.21
-9.58
-10.79
-11.73
-12.47
-13.18
-14.05
-15.17
-16.52
-17.99
-19.48
-20.97
-22.43
-23.71
-24.48
-24.29
-22.75
-19.80
-15.84
-11.62
-7.97
-5.49
-4.39
-4.43
-5.09
-5.74
-5.86
-5.10
-3.40
-0.98
1.78
4.40
6.54
8.01
8.83
9.14
9.13
8.97
8.79
8.73
8.82
9.01
9.09
8.79
7.93
6.52
4.81
3.15
1.90
1.19
0.97
0.99
0.95
0.63
-0.15
-1.46
-3.33
-5.70
-8.49
-11.55
-14.72
-17.91
-21.07
-24.23
-27.34
-30.25
-32.65
-34.11
-34.17
-32.50
-29.00
-23.89
-17.69
-11.17
-5.12
-0.15
3.49
5.93
7.54
8.69
9.57
10.16
10.37
10.23
9.95
9.87
10.22
11.02
11.99
12.83
13.30
13.51
13.78
14.55
16.09
18.37
21.01
23.36
24.79
24.83
23.36
20.65
17.18
13.46
9.82
6.35
2.95
-0.43
-3.78
-6.86
-9.40
-11.17
-12.02
-11.99
-11.11
-9.48
-7.24
-4.65
-2.02
0.35
2.29
3.79
4.95
5.88
6.53
6.78
6.51
5.70
4.47
2.97
1.25
-0.73
-3.11
-5.86
-8.78
-11.50
-13.66
-15.10
-15.88
-16.24
-16.36
-16.29
-15.92
-15.23
-14.35
-13.67
-13.64
-14.54
-16.29
-18.39
-20.18
-21.11
-20.95
-19.78
-17.89
-15.49
-12.74
-9.80
-6.98
-4.76
-3.57
-3.62
-4.71
-6.43
-8.41
-10.60
-13.19
-16.45
-20.27
-24.12
-27.19
-28.79
-28.76
-27.48
-25.69
-24.03
-22.73
-21.61
-20.31
-18.58
-16.48
-14.32
-12.46
-11.09
-10.18
-9.59
-9.25
-9.19
-9.53
-10.30
-11.32
-12.25
-12.65
-12.19
-10.72
-8.29
-5.16
-1.79
1.26
3.40
4.27
3.91
2.81
1.68
1.10
1.28
1.97
2.77
3.47
4.21
5.47
7.70
10.97
14.88
18.69
21.60
23.10
22.99
21.41
18.67
15.14
11.16
7.07
3.16
-0.44
-3.78
-7.09
-10.62
-14.50
-18.58
-22.51
-25.84
-28.17
-29.29
-29.09
-27.57
-24.73
-20.61
-15.33
-9.22
-2.72
3.62
9.30
13.98
17.45
19.65
20.63
20.55
19.70
18.44
17.06
15.79
14.70
13.68
12.62
11.42
10.06
8.56
6.99
5.37
3.67
1.90
0.08
-1.70
-3.38
-4.98
-6.68
-8.78
-11.52
-14.92
-18.63
-21.97
-24.20
-24.76
-23.51
-20.75
-17.01
-12.88
-8.73
-4.79
-1.14
2.12
4.86
6.95
8.39
9.31
9.96
10.61
11.41
12.43
13.65
15.01
16.47
17.96
19.38
20.64
21.57
22.01
21.78
20.75
18.91
16.38
13.47
10.52
7.87
5.62
3.65
1.67
-0.65
-3.42
-6.44
-9.28
-11.44
-12.52
-12.41
-11.18
-8.97
-5.94
-2.24
1.94
6.28
10.35
13.71
16.12
17.62
18.44
18.83
18.90
18.61
17.81
16.47
14.75
12.99
11.51
10.45
9.70
9.04
8.26
7.30
6.23
5.17
4.15
3.09
1.85
0.32
-1.54
-3.71
-6.20
-9.04
-12.29
-15.89
-19.56
-22.81
-25.07
-25.86
-24.93
-22.35
-18.36
-13.37
-7.77
-1.87
4.07
9.83
15.20
20.04
24.19
27.57
30.11
31.74
32.41
32.11
30.93
29.05
26.79
24.51
22.55
21.06
20.02
19.21
18.31
17.09
15.44
13.41
11.13
8.77
6.39
4.00
1.49
-1.31
-4.56
-8.39
-12.80
-17.61
-22.44
-26.73
-29.84
-31.17
-30.34
-27.32
-22.44
-16.36
-9.83
-3.51
2.20
7.16
11.43
15.07
18.07
20.32
21.76
22.43
22.55
22.47
22.43
22.53
22.65
22.58
22.11
21.19
19.89
18.39
16.79
15.10
13.21
10.98
8.28
5.13
1.64
-2.03
-5.71
-9.28
-12.67
-15.84
-18.75
-21.33
-23.47
-25.05
-25.82
-25.53
-23.92
-20.88
-16.54
-11.32
-5.86
-0.84
3.24
6.17
8.09
9.37
10.41
11.50
12.66
13.76
14.55
14.83
14.55
13.85
12.99
12.22
11.75
11.61
11.72
11.91
12.01
11.86
11.34
10.38
9.00
7.31
5.50
3.77
2.20
0.70
-0.97
-3.12
-6.01
-9.72
-14.10
-18.81
-23.36
-27.21
-29.85
-30.86
-30.03
-27.37
-23.12
-17.70
-11.62
-5.37
0.55
5.74
9.91
12.90
14.73
15.61
15.86
15.83
15.82
15.97
16.30
16.73
17.14
17.42
17.54
17.48
17.26
16.83
16.11
15.00
13.38
11.20
8.45
5.15
1.37
-2.74
-6.99
-11.13
-14.91
-18.18
-21.02
-23.65
-26.34
-29.19
-31.99
-34.24
-35.35
-34.85
-32.61
-28.87
-24.04
-18.60
-12.85
-7.02
-1.28
4.11
8.86
12.67
15.39
17.09
18.01
18.46
18.64
18.68
18.58
18.33
17.96
17.56
17.22
16.96
16.67
16.16
15.24
13.80
11.81
9.34
6.58
3.70
0.92
-1.67
-4.03
-6.30
-8.72
-11.56
-15.03
-19.14
-23.59
-27.83
-31.13
-32.83
-32.54
-30.29
-26.57
-22.16
-17.86
-14.16
-11.12
-8.45
-5.73
-2.76
0.30
2.97
4.75
5.34
4.84
3.63
2.19
0.91
0.02
-0.43
-0.37
0.29
1.61
3.51
5.72
7.82
9.37
10.09
9.92
9.02
7.65
6.05
4.36
2.65
0.87
-1.09
-3.38
-6.15
-9.46
-13.18
-16.98
-20.27
-22.44
-22.95
-21.55
-18.36
-13.83
-8.59
-3.24
1.82
6.41
10.57
14.37
17.80
20.69
22.79
23.90
23.96
23.19
21.95
20.63
19.56
18.86
18.46
18.20
17.90
17.40
16.58
15.40
13.85
11.96
9.80
7.46
5.05
2.65
0.33
-1.99
-4.49
-7.45
-11.15
-15.57
-20.35
-24.66
-27.43
-27.73
-25.13
-20.01
-13.41
-6.78
-1.46
1.72
2.59
1.60
-0.40
-2.49
-3.90
-4.25
-3.60
-2.39
-1.22
-0.62
-0.86
-1.91
-3.52
-5.42
-7.44
-9.50
-11.61
-13.77
-15.97
-18.16
-20.07
-21.25
-21.01
-18.77
-14.47
-8.88
-3.52
-0.21
-0.24
-3.85
-10.12
-17.47
-24.31
-29.59
-32.91
-34.27
-33.77
-31.60
-28.15
-24.24
-21.04
-19.74
-21.00
-24.61
-29.46
-33.92
-36.46
-36.16
-32.98
-27.61
-21.13
-14.61
-8.79
-4.04
-0.44
2.16
3.95
5.20
6.09
6.69
6.87
6.30
4.59
1.58
-2.44
-6.71
-10.18
-11.90
-11.35
-8.60
-4.20
1.04
6.38
11.28
15.50
19.01
21.89
24.20
25.93
26.97
27.21
26.64
25.41
23.81
22.16
20.69
19.40
18.17
16.77
14.99
12.71
9.76
5.99
1.30
-4.25
-10.39
-16.82
-23.35
-30.15
-37.59
-45.91
-54.75
-63.06
-69.27
-71.86
-69.82
-62.93
-51.60
-36.64
-19.15
-0.49
17.60
33.19
44.48
50.43
51.22
48.17
43.31
38.62
35.42
34.01
33.94
34.36
34.57
34.21
33.36
32.30
31.28
30.36
29.39
28.20
26.67
24.86
22.88
20.85
18.74
16.35
13.45
9.79
5.29
0.16
-5.11
-9.76
-13.04
-14.37
-13.61
-11.03
-7.26
-3.00
1.20
5.05
8.44
11.38
13.85
15.76
17.08
17.85
18.27
18.54
18.80
18.98
18.87
18.21
16.90
15.07
13.06
11.34
10.26
9.95
10.23
10.69
10.86
10.38
9.12
7.23
5.11
3.18
1.81
1.12
0.94
0.84
0.28
-1.25
-4.02
-7.93
-12.45
-16.75
-19.91
-21.22
-20.42
-17.65
-13.39
-8.21
-2.54
3.27
8.97
14.27
18.79
22.24
24.45
25.54
25.85
25.87
26.06
26.69
27.83
29.35
30.95
32.30
33.09
33.11
32.30
30.77
28.63
26.03
23.10
19.94
16.65
13.34
10.14
7.15
4.43
1.97
-0.24
-2.16
-3.69
-4.71
-5.08
-4.80
-3.98
-2.84
-1.63
-0.49
0.65
2.01
3.86
6.32
9.28
12.38
15.16
17.25
18.49
19.16
19.71
20.51
21.72
23.26
24.90
26.37
27.33
27.46
26.85
25.74
24.49
23.52
23.15
23.49
24.21
24.52
23.38
20.66
16.79
12.74
9.50
7.72
7.40
7.93
8.22
7.08
4.38
0.25
-4.94
-10.59
-15.45
-17.38
-13.66
-2.16
12.38
24.84
30.65
28.40
19.83
8.25
-2.92
-11.15
-15.60
-17.01
-16.45
-15.62
-16.55
-21.16
-30.66
-44.71
-61.21
-77.30
-90.52
-99.09
-102.99
-103.44
-101.88
-99.24
-96.25
-92.05
-86.37
-79.65
-72.42
-65.22
-58.30
-51.34
-43.94
-35.88
-27.41
-19.51
-13.36
-9.51
-7.62
-6.50
-4.33
0.24
7.44
16.32
24.91
31.29
34.46
34.77
32.11
27.80
23.35
19.89
17.93
17.26
17.33
17.52
17.27
16.23
14.44
12.00
9.00
5.52
1.69
-2.34
-6.34
-9.99
-12.91
-14.49
-14.32
-12.25
-8.45
-3.44
2.06
7.34
11.89
15.48
18.27
20.47
22.21
23.47
24.08
23.88
22.81
21.00
18.68
16.18
13.69
11.25
8.77
6.15
3.31
0.27
-2.86
-5.98
-8.96
-11.78
-14.48
-17.17
-19.91
-22.72
-25.57
-28.34
-30.88
-33.09
-34.94
-36.39
-37.35
-37.60
-36.95
-35.38
-33.09
-30.47
-27.94
-25.75
-23.69
-21.02
-16.74
-10.19
-1.48
8.37
18.00
26.15
32.06
35.87
38.56
41.51
45.78
51.70
58.83
66.63
74.55
81.89
88.15
93.12
96.74
98.62
98.21
95.04
89.93
84.11
78.20
71.82
64.08
54.50
43.41
32.51
23.70
18.89
17.19
14.34
4.69
-15.79
-47.43
-87.59
-131.75
-176.43
-218.63
-251.44
-267.26
-262.44
-239.74
-204.46
-160.51
-109.10
-54.41
4.65
65.18
120.80
164.76
193.54
208.42
207.57
194.07
165.07
125.78
84.66
48.84
20.65
-1.24
-18.31
-32.76
-44.18
-52.27
-55.82
-55.82
-53.70
-51.33
-49.55
-47.96
-45.88
-42.17
-36.86
-29.66
-21.66
-14.54
-9.77
-7.64
-7.28
-7.48
-6.79
-4.75
-1.04
3.57
7.92
10.92
12.19
12.01
10.80
9.23
7.61
6.37
5.61
5.21
4.87
4.32
3.35
1.81
-0.25
-2.77
-5.58
-8.62
-11.87
-15.19
-18.25
-20.51
-21.47
-20.84
-18.74
-15.58
-11.91
-8.23
-4.83
-1.81
0.83
3.11
4.98
6.41
7.36
7.88
8.02
7.95
7.78
7.68
7.73
7.97
8.35
8.80
9.20
9.49
9.60
9.47
9.08
8.43
7.54
6.45
5.20
3.83
2.30
0.51
-1.65
-4.28
-7.37
-10.78
-14.23
-17.37
-19.80
-21.25
-21.53
-20.65
-18.76
-16.13
-13.08
-9.90
-6.82
-3.99
-1.47
0.73
2.67
4.39
5.98
7.46
8.79
9.86
10.54
10.73
10.44
9.85
9.28
9.06
9.37
10.18
11.28
12.36
13.22
13.78
14.14
14.46
14.83
15.22
15.48
15.47
15.03
14.10
12.67
10.78
8.53
6.12
3.86
2.20
1.54
2.17
4.11
7.09
10.64
14.23
17.45
20.04
21.94
23.17
23.79
23.88
23.51
22.76
21.80
20.77
19.80
18.87
17.83
16.44
14.45
11.74
8.42
4.82
1.38
-1.55
-3.88
-5.85
-7.93
-10.56
-13.95
-17.98
-22.26
-26.37
-30.00
-33.13
-35.94
-38.71
-41.59
-44.57
-47.38
-49.69
-51.17
-51.55
-50.71
-48.62
-45.41
-41.35
-36.85
-32.36
-28.20
-24.42
-20.84
-17.06
-12.74
-7.79
-2.45
2.79
7.39
10.99
13.54
15.26
16.49
17.59
18.82
20.32
22.15
24.31
26.70
29.12
31.27
32.81
33.47
33.10
31.76
29.61
26.91
24.01
21.22
18.90
17.24
16.22
15.51
14.62
13.11
10.83
8.00
5.15
2.89
1.65
1.63
2.83
5.16
8.49
12.52
16.71
20.26
22.28
22.10
19.49
14.82
8.95
2.92
-2.34
-6.30
-8.88
-10.36
-11.24
-12.01
-12.99
-14.29
-15.83
-17.46
-19.02
-20.36
-21.40
-22.08
-22.42
-22.51
-22.53
-22.68
-23.09
-23.76
-24.53
-25.12
-25.22
-24.56
-22.95
-20.33
-16.73
-12.34
-7.50
-2.67
1.68
5.21
7.84
9.71
11.11
12.28
13.28
14.03
14.33
14.03
13.11
11.69
9.98
8.20
6.53
5.06
3.85
2.92
2.26
1.81
1.49
1.15
0.59
-0.40
-1.93
-4.02
-6.50
-9.13
-11.66
-13.95
-16.00
-17.82
-19.32
-20.28
-20.37
-19.30
-17.00
-13.73
-9.97
-6.24
-2.93
-0.20
2.00
3.78
5.26
6.50
7.53
8.41
9.23
10.02
10.78
11.35
11.57
11.26
10.38
9.01
7.32
5.52
3.81
2.30
1.07
0.09
-0.76
-1.67
-2.82
-4.37
-6.36
-8.73
-11.34
-13.98
-16.42
-18.41
-19.68
-20.00
-19.20
-17.30
-14.46
-11.02
-7.36
-3.79
-0.53
2.34
4.82
6.99
8.88
10.52
11.88
12.89
13.48
13.62
13.31
12.62
11.64
10.49
9.25
8.02
6.86
5.77
4.72
3.65
2.54
1.43
0.36
-0.65
-1.64
-2.73
-4.10
-5.86
-8.03
-10.49
-13.03
-15.37
-17.21
-18.25
-18.24
-17.07
-14.80
-11.67
-8.06
-4.37
-0.89
2.22
4.94
7.29
9.30
10.96
12.32
13.42
14.30
14.94
15.28
15.18
14.57
13.51
12.17
10.79
9.55
8.53
7.66
6.80
5.82
4.64
3.28
1.78
0.18
-1.53
-3.36
-5.31
-7.38
-9.53
-11.74
-14.01
-16.30
-18.55
-20.58
-22.14
-22.91
-22.59
-20.99
-18.13
-14.27
-9.85
-5.34
-1.14
2.55
5.70
8.35
10.46
11.98
12.80
12.92
12.49
11.76
10.98
10.28
9.63
8.91
8.04
7.06
6.11
5.32
4.73
4.30
3.88
3.36
2.70
1.89
0.93
-0.25
-1.75
-3.65
-5.91
-8.39
-10.81
-12.87
-14.29
-14.87
-14.54
-13.36
-11.49
-9.17
-6.63
-4.14
-1.92
-0.10
1.28
2.26
2.90
3.20
3.02
2.11
0.19
-2.76
-6.45
-10.18
-13.14
-14.69
-14.71
-13.57
-11.94
-10.34
-8.91
-7.35
-5.24
-2.33
1.30
5.30
9.32
13.13
16.72
19.98
22.66
24.31
24.57
23.47
21.64
20.24
20.43
22.92
27.43
32.65
36.61
37.51
34.43
27.88
19.61
11.92
6.73
4.79
5.57
7.73
9.88
11.23
11.69
11.62
11.35
10.93
10.17
8.91
7.19
5.27
3.47
1.98
0.77
-0.36
-1.56
-2.89
-4.28
-5.55
-6.56
-7.28
-7.88
-8.67
-10.07
-12.35
-15.44
-18.84
-21.67
-22.99
-22.07
-18.67
-13.09
-6.01
1.69
9.18
15.72
20.76
23.86
24.68
23.01
18.81
12.36
4.29
-4.44
-12.69
-19.49
-24.32
-27.32
-29.13
-30.56
-32.18
-34.13
-36.17
-37.95
-39.26
-40.17
-40.83
-41.27
-41.24
-40.18
-37.53
-33.01
-26.81
-19.57
-12.18
-5.39
0.37
5.04
8.77
11.78
14.17
16.02
17.44
18.67
19.95
21.35
22.60
23.23
22.85
21.51
19.93
19.22
20.36
23.70
28.61
33.77
37.72
39.50
38.96
36.76
33.94
31.42
29.79
29.13
29.27
29.96
30.92
31.93
32.65
32.65
31.45
28.71
24.43
18.96
13.05
7.60
3.42
0.97
0.18
0.44
0.83
0.51
-0.94
-3.28
-5.89
-8.08
-9.56
-10.49
-11.26
-12.03
-12.45
-11.72
-9.03
-4.17
2.20
8.72
13.86
16.60
16.76
14.85
11.73
8.16
4.56
1.17
-1.78
-3.88
-4.59
-3.44
-0.31
4.46
10.13
15.78
20.63
24.20
26.42
27.54
27.99
28.17
28.33
28.50
28.51
28.15
27.31
25.99
24.36
22.60
20.81
19.00
17.00
14.56
11.35
7.12
1.77
-4.49
-11.16
-17.61
-23.23
-27.73
-31.15
-33.76
-35.88
-37.60
-38.78
-39.04
-38.04
-35.69
-32.38
-29.02
-26.70
-26.34
-28.12
-31.27
-34.22
-35.19
-32.95
-27.41
-19.65
-11.50
-4.77
-0.63
0.65
-0.50
-3.37
-7.34
-12.08
-17.42
-23.28
-29.64
-36.37
-43.23
-49.89
-55.94
-60.98
-64.65
-66.51
-66.20
-63.76
-59.65
-54.79
-50.40
-47.58
-46.80
-47.63
-48.59
-47.83
-44.18
-37.53
-28.78
-19.36
-10.42
-2.39
4.89
12.24
20.40
29.51
39.41
49.80
60.10
69.16
75.99
77.78
72.06
59.69
43.26
26.21
11.77
1.82
-3.46
-5.19
-5.04
-4.01
-2.29
0.09
3.10
6.47
9.71
12.30
13.97
14.59
14.39
13.65
12.31
10.13
6.72
1.91
-4.01
-10.23
-15.69
-19.33
-20.71
-20.26
-19.00
-18.02
-17.94
-18.63
-19.33
-19.02
-16.75
-12.02
-5.00
3.58
12.66
21.10
27.89
32.21
33.49
31.45
26.22
18.46
9.46
0.96
-5.27
-7.96
-6.74
-2.22
4.33
11.38
17.62
22.09
24.28
24.05
21.55
17.14
11.37
4.92
-1.52
-7.27
-11.72
-14.41
-15.14
-13.97
-11.30
-7.79
-4.10
-0.75
2.07
4.44
6.60
8.75
10.93
13.06
14.97
16.55
17.88
19.17
20.73
22.78
25.32
28.01
30.30
31.57
31.42
29.80
27.02
23.58
19.94
16.33
12.79
9.23
5.59
1.85
-1.96
-5.86
-9.91
-14.11
-18.37
-22.33
-25.57
-27.65
-28.36
-27.76
-26.18
-24.05
-21.75
-19.54
-17.58
-16.01
-15.00
-14.71
-15.21
-16.39
-17.95
-19.47
-20.61
-21.26
-21.53
-21.68
-21.94
-22.38
-22.93
-23.50
-24.11
-24.94
-26.24
-28.20
-30.75
-33.56
-36.09
-37.76
-38.18
-37.28
-35.37
-33.00
-30.72
-28.81
-27.09
-24.92
-21.47
-16.11
-8.73
0.18
9.71
18.98
27.38
34.82
41.52
47.84
54.03
60.16
66.11
71.71
76.62
80.31
82.08
81.21
77.43
71.23
64.01
57.74
54.15
54.09
57.10
61.60
65.58
67.28
65.79
61.07
53.64
44.18
33.21
21.18
8.65
-3.57
-14.48
-23.20
-29.28
-32.95
-35.00
-36.49
-38.28
-40.72
-43.63
-46.49
-48.82
-50.48
-51.67
-52.81
-54.22
-55.92
-57.59
-58.72
-58.81
-57.63
-55.26
-52.06
-48.48
-44.85
-41.31
-37.78
-34.14
-30.32
-26.39
-22.53
-18.85
-15.30
-11.69
-7.79
-3.55
0.86
5.05
8.71
11.76
14.45
17.20
20.29
23.71
27.10
29.92
31.80
32.73
33.08
33.42
34.20
35.51
37.10
38.47
39.17
38.99
37.98
36.39
34.45
32.26
29.80
26.95
23.67
19.99
16.08
12.13
8.27
4.57
1.09
-2.09
-4.86
-7.12
-8.85
-10.21
-11.46
-12.85
-14.51
-16.37
-18.18
-19.60
-20.39
-20.41
-19.71
-18.35
-16.42
-14.02
-11.26
-8.35
-5.58
-3.26
-1.66
-0.88
-0.86
-1.41
-2.23
-3.00
-3.38
-3.06
-1.85
0.27
3.10
6.24
9.21
11.58
13.13
13.91
14.10
13.95
13.64
13.23
12.77
12.38
12.27
12.69
13.84
15.69
17.95
20.10
21.52
21.74
20.57
18.20
15.11
11.96
9.36
7.72
7.08
7.13
7.36
7.18
6.14
4.11
1.28
-2.00
-5.32
-8.42
-11.18
-13.56
-15.51
-16.91
-17.65
-17.69
-17.23
-16.66
-16.45
-16.95
-18.22
-19.98
-21.76
-23.06
-23.55
-23.07
-21.65
-19.40
-16.47
-13.02
-9.37
-5.90
-3.06
-1.23
-0.51
-0.72
-1.47
-2.32
-2.89
-3.07
-2.95
-2.73
-2.64
-2.87
-3.53
-4.63
-6.10
-7.76
-9.36
-10.65
-11.46
-11.77
-11.74
-11.59
-11.51
-11.61
-11.89
-12.27
-12.67
-13.05
-13.41
-13.72
-13.91
-13.92
-13.70
-13.26
-12.66
-11.98
-11.19
-10.19
-8.78
-6.79
-4.14
-0.92
2.63
6.21
9.53
12.39
14.78
16.75
18.46
19.94
21.16
21.91
21.89
20.83
18.65
15.50
11.76
7.98
4.65
2.12
0.47
-0.53
-1.34
-2.53
-4.60
-7.79
-12.02
-16.95
-22.08
-26.98
-31.43
-35.44
-39.19
-42.83
-46.41
-49.79
-52.75
-55.01
-56.34
-56.57
-55.53
-53.12
-49.34
-44.32
-38.32
-31.74
-25.01
-18.50
-12.47
-7.07
-2.34
1.75
5.27
8.35
11.21
14.07
17.12
20.40
23.79
26.96
29.54
31.22
31.85
31.50
30.37
28.74
26.76
24.51
21.96
19.08
15.92
12.60
9.32
6.22
3.40
0.93
-1.13
-2.67
-3.50
-3.49
-2.55
-0.77
1.65
4.36
6.99
9.22
10.79
11.57
11.57
10.96
10.01
8.97
8.07
7.42
7.05
6.94
7.11
7.56
8.26
9.09
9.76
9.98
9.47
8.14
6.05
3.43
0.52
-2.42
-5.18
-7.60
-9.53
-10.92
-11.86
-12.53
-13.12
-13.74
-14.33
-14.62
-14.32
-13.19
-11.11
-8.11
-4.34
-0.02
4.56
9.06
13.09
16.34
18.60
19.84
20.22
19.98
19.33
18.47
17.49
16.48
15.53
14.69
14.00
13.43
12.91
12.37
11.71
10.91
9.91
8.65
7.07
5.14
2.91
0.49
-2.00
-4.45
-6.83
-9.16
-11.43
-13.54
-15.26
-16.36
-16.61
-15.93
-14.36
-12.06
-9.24
-6.05
-2.64
0.88
4.41
7.81
10.91
13.54
15.52
16.78
17.32
17.22
16.62
15.69
14.60
13.50
12.52
11.74
11.16
10.73
10.38
10.00
9.53
8.89
8.00
6.80
5.30
3.53
1.61
-0.37
-2.37
-4.42
-6.61
-8.96
-11.37
-13.60
-15.33
-16.25
-16.14
-14.91
-12.63
-9.47
-5.69
-1.61
2.46
6.19
9.32
11.63
13.03
13.57
13.42
12.86
12.21
11.71
11.54
11.66
11.97
12.30
12.55
12.63
12.53
12.19
11.54
10.48
9.00
7.19
5.21
3.24
1.32
-0.62
-2.74
-5.17
-7.84
-10.50
-12.75
-14.20
-14.65
-14.07
-12.62
-10.53
-8.06
-5.35
-2.57
0.19
2.81
5.20
7.27
8.97
10.27
11.17
11.71
11.89
11.77
11.36
10.65
9.61
8.22
6.53
4.65
2.76
1.03
-0.43
-1.59
-2.54
-3.38
-4.24
-5.18
-6.25
-7.50
-8.97
-10.70
-12.70
-14.90
-17.08
-18.89
-19.92
-19.81
-18.37
-15.64
-11.91
-7.65
-3.34
0.61
3.96
6.65
8.71
10.23
11.28
11.90
12.17
12.12
11.87
11.51
11.07
10.56
9.96
9.28
8.61
8.06
7.71
7.54
7.36
6.86
5.77
3.90
1.26
-2.01
-5.74
-9.70
-13.65
-17.27
-20.13
-21.75
-21.78
-20.11
-16.94
-12.78
-8.31
-4.20
-0.94
1.24
2.37
2.71
2.65
2.60
2.91
3.77
5.14
6.80
8.42
9.73
10.56
10.91
10.90
10.66
10.29
9.77
9.08
8.20
7.19
6.10
4.96
3.77
2.47
1.10
-0.26
-1.48
-2.56
-3.64
-5.11
-7.37
-10.65
-14.84
-19.38
-23.47
-26.28
-27.16
-25.81
-22.21
-16.61
-9.53
-1.76
5.65
11.55
15.03
15.72
14.03
10.97
7.83
5.63
4.82
5.23
6.38
7.81
9.32
10.93
12.67
14.39
15.67
15.97
14.87
12.31
8.60
4.32
0.08
-3.72
-6.94
-9.65
-12.03
-14.17
-16.03
-17.51
-18.50
-19.00
-19.14
-19.11
-19.00
-18.69
-17.83
-15.98
-12.86
-8.48
-3.27
2.08
6.89
10.71
13.43
15.32
16.81
18.26
19.81
21.30
22.34
22.51
21.53
19.38
16.32
12.77
9.22
6.03
3.43
1.49
0.21
-0.46
-0.58
-0.24
0.40
1.14
1.74
2.03
1.90
1.41
0.70
-0.02
-0.57
-0.85
-0.85
-0.65
-0.34
-0.01
0.32
0.64
0.99
1.42
2.01
2.82
3.93
5.36
7.07
8.90
10.62
11.94
12.63
12.65
12.17
11.54
11.20
11.47
12.41
13.80
15.18
16.02
15.88
14.53
12.01
8.59
4.65
0.60
-3.17
-6.37
-8.80
-10.41
-11.25
-11.46
-11.29
-10.97
-10.74
-10.78
-11.20
-12.08
-13.48
-15.43
-17.91
-20.80
-23.86
-26.83
-29.43
-31.55
-33.19
-34.46
-35.47
-36.22
-36.58
-36.29
-35.10
-32.89
-29.67
-25.64
-21.02
-16.07
-10.98
-5.94
-1.09
3.42
7.44
10.94
13.93
16.56
18.98
21.37
23.81
26.27
28.55
30.37
31.50
31.84
31.53
30.84
30.06
29.37
28.76
28.03
26.89
25.10
22.51
19.10
14.99
10.37
5.53
0.72
-3.82
-7.99
-11.76
-15.11
-17.97
-20.14
-21.41
-21.64
-20.94
-19.65
-18.22
-17.03
-16.20
-15.56
-14.78
-13.58
-11.88
-9.82
-7.74
-6.01
-4.92
-4.63
-5.13
-6.33
-8.03
-9.99
-11.92
-13.51
-14.48
-14.69
-14.13
-12.93
-11.41
-9.93
-8.87
-8.50
-8.94
-10.12
-11.81
-13.67
-15.36
-16.61
-17.23
-17.16
-16.43
-15.15
-13.46
-11.47
-9.26
-6.82
-4.09
-1.04
2.26
5.62
8.76
11.40
13.35
14.57
15.13
15.25
15.15
15.01
14.98
15.09
15.29
15.44
15.41
15.13
14.66
14.11
13.61
13.20
12.82
12.41
11.91
11.34
10.72
10.05
9.23
8.10
6.49
4.36
1.79
-1.00
-3.73
-6.08
-7.75
-8.52
-8.24
-6.88
-4.58
-1.64
1.55
4.64
7.37
9.63
11.42
12.79
13.77
14.38
14.58
14.35
13.69
12.65
11.31
9.81
8.26
6.81
5.53
4.43
3.49
2.63
1.79
0.91
0.01
-0.92
-1.84
-2.74
-3.61
-4.45
-5.28
-6.12
-7.04
-8.14
-9.51
-11.18
-13.05
-14.89
-16.36
-17.14
-16.95
-15.73
-13.57
-10.77
-7.67
-4.63
-1.92
0.30
1.99
3.23
4.14
4.84
5.44
5.99
6.51
6.97
7.34
7.54
7.52
7.21
6.63
5.82
4.91
4.02
3.25
2.61
2.05
1.44
0.70
-0.25
-1.43
-2.80
-4.34
-6.02
-7.81
-9.68
-11.57
-13.35
-14.80
-15.67
-15.70
-14.72
-12.71
-9.78
-6.22
-2.36
1.42
4.84
7.71
9.98
11.67
12.85
13.54
13.76
13.55
12.95
12.08
11.09
10.12
9.23
8.41
7.61
6.75
5.81
4.78
3.72
2.65
1.54
0.32
-1.14
-2.92
-5.06
-7.48
-10.08
-12.73
-15.31
-17.68
-19.59
-20.76
-20.89
-19.79
-17.50
-14.28
-10.56
-6.85
-3.48
-0.63
1.69
3.63
5.32
6.85
8.23
9.42
10.35
10.99
11.35
11.50
11.44
11.18
10.68
9.89
8.82
7.57
6.28
5.10
4.09
3.22
2.38
1.44
0.33
-1.00
-2.52
-4.21
-6.02
-7.91
-9.70
-11.17
-12.05
-12.11
-11.26
-9.58
-7.23
-4.39
-1.22
2.14
5.50
8.66
11.35
13.40
14.75
15.48
15.75
15.69
15.39
14.85
14.09
13.19
12.27
11.49
10.97
10.70
10.53
10.24
9.57
8.29
6.31
3.72
0.75
-2.26
-5.02
-7.37
-9.32
-11.06
-12.80
-14.67
-16.66
-18.60
-20.17
-21.04
-20.93
-19.68
-17.32
-14.06
-10.28
-6.44
-2.93
0.03
2.39
4.25
5.82
7.28
8.74
10.29
11.92
13.61
15.27
16.76
17.88
18.44
18.33
17.55
16.25
14.69
13.13
11.82
10.86
10.26
9.94
9.72
9.41
8.84
7.88
6.45
4.61
2.45
0.09
-2.33
-4.74
-7.03
-9.06
-10.59
-11.37
-11.21
-10.07
-8.12
-5.68
-3.16
-0.87
1.01
2.45
3.49
4.15
4.45
4.37
3.98
3.44
2.99
2.82
3.01
3.49
4.00
4.29
4.18
3.67
2.87
1.95
1.03
0.19
-0.59
-1.38
-2.24
-3.23
-4.37
-5.66
-7.07
-8.57
-10.13
-11.73
-13.30
-14.73
-15.86
-16.43
-16.28
-15.33
-13.72
-11.67
-9.44
-7.20
-5.00
-2.85
-0.77
1.14
2.73
3.90
4.65
5.14
5.54
5.99
6.49
6.92
7.09
6.92
6.41
5.69
4.89
4.08
3.29
2.50
1.72
0.97
0.29
-0.32
-0.95
-1.72
-2.80
-4.25
-6.08
-8.20
-10.46
-12.68
-14.62
-16.06
-16.80
-16.70
-15.71
-13.91
-11.44
-8.49
-5.30
-2.08
0.94
3.61
5.82
7.57
8.89
9.83
10.42
10.65
10.52
10.06
9.38
8.62
7.91
7.31
6.80
6.32
5.75
5.02
4.15
3.15
2.08
0.95
-0.27
-1.64
-3.19
-4.87
-6.57
-8.14
-9.51
-10.65
-11.58
-12.29
-12.68
-12.58
-11.84
-10.42
-8.43
-6.14
-3.87
-1.87
-0.27
0.93
1.78
2.37
2.75
2.97
3.05
3.05
3.00
2.93
2.82
2.68
2.48
2.22
1.89
1.54
1.18
0.84
0.53
0.27
0.04
-0.15
-0.35
-0.64
-1.10
-1.84
-2.94
-4.42
-6.23
-8.27
-10.37
-12.34
-13.99
-15.16
-15.75
-15.75
-15.20
-14.14
-12.65
-10.82
-8.71
-6.45
-4.15
-1.88
0.32
2.45
4.51
6.43
8.08
9.33
10.07
10.32
10.19
9.82
9.38
8.98
8.67
8.47
8.36
8.35
8.41
8.48
8.42
8.13
7.49
6.47
5.12
3.50
1.71
-0.20
-2.18
-4.20
-6.25
-8.30
-10.33
-12.33
-14.22
-15.89
-17.13
-17.72
-17.48
-16.39
-14.57
-12.26
-9.75
-7.29
-5.04
-3.07
-1.44
-0.17
0.70
1.18
1.35
1.35
1.36
1.52
1.83
2.13
2.24
2.05
1.64
1.22
1.02
1.04
0.99
0.42
-1.00
-3.18
-5.51
-7.17
-7.48
-6.34
-4.26
-2.12
-0.75
-0.56
-1.48
-3.19
-5.32
-7.54
-9.60
-11.19
-12.01
-11.83
-10.69
-8.88
-6.78
-4.63
-2.46
-0.16
2.27
4.53
6.05
6.31
5.16
2.93
0.35
-1.88
-3.50
-4.78
-6.41
-9.00
-12.71
-17.01
-20.86
-23.23
-23.70
-22.69
-21.44
-21.35
-23.35
-27.38
-32.43
-37.03
-39.94
-40.60
-39.05
-35.64
-30.79
-25.21
-20.33
-18.27
-21.11
-29.44
-41.28
-52.15
-56.61
-50.71
-33.83
-8.96
18.73
44.29
64.76
79.43
88.73
92.88
91.22
82.80
67.54
47.21
25.47
6.97
-4.23
-5.95
1.38
14.98
30.87
45.27
55.71
61.39
62.72
60.41
54.66
45.01
31.03
13.36
-5.48
-21.49
-30.59
-30.40
-21.39
-6.84
8.34
19.51
23.81
20.74
11.75
-0.70
-13.95
-25.56
-33.34
-35.56
-31.25
-20.64
-5.56
10.97
25.38
34.68
37.41
34.06
26.65
17.78
9.65
3.51
-0.23
-1.55
-0.37
3.33
9.20
16.13
22.13
25.20
24.28
20.08
14.91
11.47
11.35
14.11
17.59
19.21
17.39
12.31
5.59
-0.67
-5.04
-7.27
-8.14
-8.70
-9.66
-11.04
-12.42
-13.27
-13.26
-12.42
-11.02
-9.37
-7.79
-6.43
-5.29
-4.24
-3.11
-1.81
-0.44
0.72
1.35
1.22
0.44
-0.71
-1.77
-2.44
-2.64
-2.55
-2.45
-2.59
-3.01
-3.53
-3.90
-3.91
-3.53
-2.93
-2.45
-2.40
-2.96
-4.10
-5.54
-6.99
-8.18
-9.00
-9.55
-10.02
-10.65
-11.60
-12.98
-14.74
-16.73
-18.63
-20.04
-20.60
-20.04
-18.35
-15.65
-12.18
-8.20
-3.93
0.42
4.63
8.45
11.67
14.14
15.85
16.87
17.37
17.56
17.60
17.63
17.74
17.94
18.18
18.33
18.29
17.99
17.43
16.71
15.92
15.13
14.33
13.44
12.36
10.99
9.30
7.31
5.12
2.86
0.59
-1.64
-3.87
-6.19
-8.62
-11.14
-13.65
-15.99
-17.95
-19.35
-19.96
-19.63
-18.24
-15.79
-12.46
-8.60
-4.63
-0.96
2.14
4.57
6.42
7.83
8.92
9.74
10.27
10.47
10.32
9.92
9.40
8.94
8.64
8.51
8.44
8.31
7.99
7.44
6.68
5.76
4.71
3.53
2.23
0.84
-0.57
-1.89
-3.10
-4.23
-5.41
-6.79
-8.50
-10.52
-12.70
-14.70
-16.11
-16.55
-15.79
-13.83
-10.92
-7.43
-3.74
-0.09
3.37
6.54
9.30
11.50
13.00
13.75
13.86
13.53
13.00
12.41
11.83
11.27
10.72
10.15
9.60
9.03
8.40
7.65
6.71
5.58
4.25
2.79
1.23
-0.34
-1.84
-3.18
-4.37
-5.46
-6.59
-7.92
-9.57
-11.57
-13.80
-16.01
-17.85
-18.90
-18.86
-17.58
-15.13
-11.79
-7.94
-3.95
-0.10
3.43
6.49
9.02
10.95
12.28
13.06
13.41
13.45
13.28
12.94
12.46
11.80
10.98
10.06
9.12
8.24
7.53
6.99
6.58
6.16
5.58
4.68
3.38
1.70
-0.26
-2.40
-4.61
-6.79
-8.91
-10.92
-12.82
-14.59
-16.22
-17.60
-18.51
-18.68
-17.85
-15.94
-13.13
-9.80
-6.41
-3.28
-0.55
1.83
3.95
5.87
7.54
8.89
9.87
10.48
10.78
10.78
10.48
9.89
9.07
8.17
7.41
6.92
6.70
6.60
6.33
5.64
4.40
2.68
0.71
-1.12
-2.49
-3.16
-3.15
-2.66
-2.04
-1.67
-1.79
-2.50
-3.67
-5.05
-6.28
-7.03
-7.13
-6.60
-5.75
-5.02
-4.87
-5.61
-7.28
-9.59
-12.02
-13.98
-14.97
-14.67
-13.04
-10.25
-6.68
-2.77
1.03
4.42
7.21
9.38
10.98
12.07
12.69
12.85
12.56
11.90
11.00
10.01
9.04
8.12
7.19
6.23
5.23
4.21
3.26
2.41
1.66
0.99
0.34
-0.36
-1.13
-2.03
-3.10
-4.39
-5.89
-7.55
-9.27
-10.99
-12.64
-14.24
-15.76
-17.11
-18.09
-18.43
-17.91
-16.39
-14.00
-11.02
-7.86
-4.90
-2.37
-0.34
1.27
2.58
3.66
4.49
5.03
5.20
5.01
4.52
3.90
3.32
2.89
2.69
2.66
2.70
2.67
2.50
2.17
1.68
1.08
0.38
-0.48
-1.56
-2.93
-4.63
-6.62
-8.82
-11.11
-13.36
-15.42
-17.11
-18.25
-18.64
-18.16
-16.74
-14.45
-11.48
-8.08
-4.49
-0.89
2.57
5.83
8.79
11.36
13.43
14.95
15.98
16.69
17.29
17.97
18.78
19.62
20.32
20.68
20.57
19.92
18.74
17.08
15.02
12.67
10.18
7.68
5.26
2.93
0.60
-1.85
-4.57
-7.66
-11.11
-14.83
-18.60
-22.10
-24.94
-26.77
-27.36
-26.72
-25.13
-23.07
-21.08
-19.54
-18.59
-18.07
-17.68
-17.14
-16.34
-15.38
-14.46
-13.78
-13.41
-13.25
-13.10
-12.72
-11.98
-10.86
-9.44
-7.89
-6.32
-4.75
-3.09
-1.19
1.11
3.83
6.77
9.58
11.80
13.13
13.45
12.90
11.78
10.42
9.08
7.91
6.97
6.32
6.04
6.23
6.97
8.29
10.13
12.34
14.76
17.22
19.57
21.73
23.66
25.28
26.53
27.36
27.78
27.88
27.85
27.83
27.81
27.58
26.84
25.28
22.85
19.79
16.58
13.74
11.60
10.20
9.22
8.23
6.80
4.72
2.04
-0.95
-3.91
-6.61
-9.03
-11.35
-13.84
-16.68
-19.87
-23.21
-26.33
-28.82
-30.31
-30.55
-29.48
-27.24
-24.22
-20.95
-17.99
-15.78
-14.50
-13.97
-13.81
-13.46
-12.47
-10.57
-7.78
-4.40
-0.86
2.32
4.78
6.41
7.38
8.07
8.85
9.94
11.33
12.87
14.39
15.81
17.13
18.37
19.49
20.34
20.77
20.73
20.33
19.76
19.13
18.45
17.56
16.34
14.79
13.06
11.45
10.18
9.39
9.06
9.07
9.26
9.43
9.44
9.17
8.62
7.89
7.19
6.66
6.36
6.17
5.88
5.31
4.44
3.36
2.21
1.07
-0.13
-1.54
-3.28
-5.34
-7.53
-9.61
-11.33
-12.55
-13.29
-13.63
-13.65
-13.44
-13.07
-12.56
-12.00
-11.43
-10.87
-10.30
-9.69
-9.04
-8.44
-7.97
-7.68
-7.49
-7.19
-6.52
-5.34
-3.66
-1.68
0.31
2.11
3.64
4.91
6.04
7.08
8.08
8.97
9.70
10.20
10.45
10.43
10.12
9.50
8.61
7.49
6.22
4.89
3.57
2.32
1.17
0.15
-0.77
-1.64
-2.58
-3.73
-5.18
-6.91
-8.80
-10.66
-12.34
-13.79
-15.02
-16.06
-16.85
-17.29
-17.27
-16.78
-15.96
-15.05
-14.27
-13.71
-13.28
-12.79
-12.10
-11.15
-10.08
-9.13
-8.51
-8.36
-8.63
-9.18
-9.81
-10.41
-10.92
-11.38
-11.83
-12.28
-12.72
-13.10
-13.45
-13.81
-14.29
-15.01
-16.05
-17.43
-19.11
-21.00
-22.96
-24.85
-26.54
-27.93
-28.99
-29.68
-29.97
-29.77
-29.04
-27.72
-25.84
-23.50
-20.86
-18.09
-15.36
-12.86
-10.71
-8.97
-7.60
-6.49
-5.49
-4.49
-3.43
-2.35
-1.32
-0.40
0.40
1.10
1.72
2.30
2.80
3.23
3.59
3.96
4.38
4.95
5.72
6.72
7.98
9.53
11.42
13.60
15.94
18.20
20.12
21.51
22.40
23.01
23.71
24.82
26.50
28.67
31.05
33.26
34.87
35.59
35.21
33.59
30.72
26.65
21.56
15.76
9.61
3.54
-2.12
-7.14
-11.44
-15.04
-18.06
-20.60
-22.82
-24.85
-26.89
-29.10
-31.54
-34.16
-36.81
-39.29
-41.45
-43.22
-44.54
-45.33
-45.42
-44.61
-42.72
-39.73
-35.81
-31.26
-26.43
-21.58
-16.87
-12.35
-8.06
-4.04
-0.40
2.77
5.40
7.57
9.42
11.20
13.13
15.34
17.84
20.49
23.04
25.22
26.79
27.65
27.81
27.44
26.75
25.96
25.27
24.78
24.52
24.40
24.24
23.82
22.89
21.31
19.02
16.14
12.89
9.57
6.50
3.97
2.23
1.46
1.74
3.02
5.09
7.64
10.30
12.75
14.82
16.47
17.76
18.79
19.62
20.26
20.69
20.92
21.02
21.04
21.05
20.99
20.79
20.29
19.39
18.05
16.24
14.01
11.42
8.63
5.85
3.36
1.42
0.15
-0.49
-0.72
-0.89
-1.33
-2.30
-3.96
-6.37
-9.48
-13.11
-16.90
-20.38
-23.02
-24.46
-24.61
-23.71
-22.25
-20.72
-19.46
-18.56
-17.92
-17.34
-16.73
-16.12
-15.61
-15.32
-15.27
-15.46
-15.84
-16.35
-16.95
-17.51
-17.85
-17.77
-17.10
-15.80
-14.00
-11.97
-10.05
-8.53
-7.57
-7.12
-6.96
-6.80
-6.37
-5.53
-4.27
-2.72
-1.09
0.45
1.76
2.71
3.24
3.32
3.06
2.72
2.75
3.67
5.90
9.61
14.62
20.46
26.41
31.75
35.82
38.24
38.89
37.98
35.99
33.58
31.43
30.03
29.55
29.75
30.05
29.70
28.02
24.73
20.01
14.57
9.31
4.99
1.90
-0.24
-2.10
-4.38
-7.39
-10.85
-14.09
-16.34
-17.09
-16.22
-13.98
-10.79
-7.17
-3.72
-1.10
0.12
-0.32
-2.16
-4.55
-6.33
-6.43
-4.29
0.02
5.92
12.55
19.05
24.58
28.37
29.71
28.09
23.42
16.17
7.35
-1.82
-10.20
-17.04
-22.13
-25.66
-28.06
-29.78
-31.22
-32.66
-34.36
-36.47
-39.02
-41.86
-44.69
-47.11
-48.80
-49.63
-49.62
-48.94
-47.74
-46.15
-44.26
-42.19
-40.14
-38.30
-36.71
-35.08
-32.83
-29.20
-23.70
-16.40
-8.02
0.36
7.82
13.96
19.12
23.99
29.17
34.71
40.13
44.66
47.77
49.46
50.19
50.61
51.11
51.66
51.97
51.74
50.94
49.85
48.88
48.24
47.84
47.27
46.12
44.19
41.65
38.89
36.29
34.00
31.92
29.78
27.47
25.05
22.77
20.78
18.99
16.97
14.23
10.46
5.87
1.13
-2.80
-5.16
-5.64
-4.53
-2.46
-0.15
1.95
3.69
5.14
6.38
7.40
8.09
8.37
8.27
7.95
7.67
7.65
8.01
8.70
9.57
10.43
11.10
11.52
11.69
11.67
11.40
10.73
9.39
7.18
4.09
0.34
-3.64
-7.45
-10.88
-14.01
-17.09
-20.44
-24.27
-28.64
-33.49
-38.58
-43.54
-47.83
-50.80
-51.83
-50.62
-47.22
-42.12
-36.03
-29.66
-23.60
-18.29
-14.06
-11.14
-9.52
-8.88
-8.46
-7.30
-4.54
0.13
6.28
12.80
18.25
21.35
21.37
18.31
12.94
6.51
0.48
-3.88
-5.77
-5.04
-2.15
1.98
6.26
9.68
11.63
11.98
11.05
9.43
7.68
6.10
4.55
2.57
-0.31
-4.16
-8.42
-11.93
-13.36
-11.87
-7.58
-1.77
3.46
6.05
4.68
-0.70
-8.93
-18.08
-26.03
-30.91
-31.58
-27.80
-20.28
-10.84
-2.28
2.22
0.30
-8.40
-21.44
-34.44
-42.84
-43.43
-35.58
-21.30
-4.00
13.08
27.70
39.15
47.14
51.21
51.18
47.72
42.58
38.32
37.59
41.79
51.08
64.01
75.91
82.28
81.09
73.93
64.28
57.12
52.81
50.77
50.19
50.26
50.33
50.59
51.27
52.12
52.34
50.48
45.55
37.02
25.19
11.73
-0.73
-9.51
-12.87
-10.45
-3.37
6.69
17.57
26.85
32.27
32.01
25.20
12.53
-3.41
-18.67
-29.12
-32.41
-29.19
-22.70
-17.08
-15.26
-17.46
-21.26
-23.33
-21.22
-14.94
-6.79
0.10
3.57
3.39
1.05
-1.37
-2.45
-2.04
-1.00
-0.36
-0.49
-0.80
-0.11
2.67
7.86
14.79
21.99
27.66
30.15
28.26
21.32
9.19
-7.77
-28.67
-52.15
-76.45
-99.75
-120.48
-137.63
-150.84
-160.35
-166.72
-170.64
-172.68
-173.30
-172.83
-171.55
-169.64
-167.13
-163.86
-159.53
-153.87
-146.84
-138.64
-129.71
-120.48
-111.24
-102.14
-93.25
-84.81
-77.17
-70.67
-65.34
-60.76
-56.00
-49.94
-41.63
-30.65
-17.24
-2.26
13.08
27.65
40.65
51.85
61.54
70.24
78.34
85.75
91.85
95.66
96.37
93.79
88.48
81.60
74.42
67.79
61.98
56.60
50.89
43.95
34.89
23.03
8.38
-7.86
-22.93
-32.84
-33.67
-23.27
-2.49
24.68
52.49
75.51
90.37
96.45
95.26
89.23
80.65
71.34
62.77
56.26
52.85
52.75
54.93
57.35
57.56
53.78
45.54
33.93
21.17
9.81
1.91
-1.52
-0.66
3.34
8.92
14.58
19.30
22.62
24.52
25.25
25.06
24.20
22.81
20.95
18.59
15.63
12.09
8.10
4.06
0.50
-2.13
-3.71
-4.50
-5.03
-5.83
-7.09
-8.57
-9.62
-9.44
-7.43
-3.44
1.99
7.75
12.41
14.65
13.84
10.27
5.23
0.51
-2.18
-1.82
1.63
7.32
13.89
19.89
24.15
25.90
24.86
21.31
16.04
10.34
5.68
3.29
3.74
6.65
10.94
15.13
18.00
18.91
17.92
15.60
12.67
9.80
7.43
5.80
4.96
4.80
5.02
5.12
4.52
2.86
0.15
-3.16
-6.27
-8.48
-9.38
-9.12
-8.17
-7.11
-6.27
-5.64
-4.97
-4.00
-2.71
-1.38
-0.46
-0.26
-0.82
-1.83
-2.82
-3.37
-3.32
-2.78
-2.02
-1.40
-1.13
-1.34
-2.03
-3.15
-4.54
-6.00
-7.21
-7.85
-7.67
-6.54
-4.56
-2.07
0.43
2.40
3.42
3.26
2.02
0.05
-2.12
-4.00
-5.18
-5.49
-4.96
-3.76
-2.11
-0.21
1.77
3.69
5.42
6.84
7.79
8.06
7.43
5.76
3.17
0.08
-2.88
-5.08
-6.17
-6.27
-5.93
-5.90
-6.84
-8.99
-12.09
-15.41
-17.98
-18.92
-17.68
-14.34
-9.62
-4.80
-1.33
-0.40
-2.54
-7.37
-13.77
-20.13
-24.81
-26.55
-24.85
-19.99
-12.99
-5.31
1.58
6.65
9.50
10.42
10.09
9.29
8.59
8.30
8.51
9.21
10.36
11.89
13.61
15.22
16.28
16.43
15.47
13.44
10.61
7.38
4.11
1.11
-1.41
-3.30
-4.45
-4.87
-4.77
-4.52
-4.61
-5.44
-7.11
-9.40
-11.75
-13.54
-14.31
-13.92
-12.51
-10.42
-8.04
-5.63
-3.33
-1.23
0.62
2.10
3.10
3.55
3.48
3.02
2.36
1.62
0.84
-0.05
-1.08
-2.22
-3.28
-4.00
-4.17
-3.76
-2.91
-1.94
-1.21
-0.99
-1.46
-2.63
-4.41
-6.55
-8.71
-10.50
-11.65
-12.06
-11.91
-11.55
-11.40
-11.67
-12.32
-13.06
-13.44
-13.04
-11.58
-9.08
-5.79
-2.25
0.85
2.81
3.18
1.89
-0.62
-3.51
-5.83
-6.87
-6.47
-5.14
-3.91
-3.93
-5.97
-10.10
-15.59
-21.23
-25.80
-28.55
-29.48
-29.27
-28.95
-29.50
-31.48
-34.92
-39.32
-43.89
-47.71
-50.04
-50.30
-48.18
-43.65
-36.94
-28.53
-19.10
-9.40
-0.12
8.36
16.04
23.24
30.48
38.09
46.05
53.89
60.91
66.37
69.85
71.34
71.18
69.92
68.07
65.95
63.66
61.11
58.13
54.58
50.34
45.38
39.67
33.23
26.10
18.44
10.61
3.15
-3.34
-8.32
-11.59
-13.29
-13.93
-14.10
-14.26
-14.60
-15.06
-15.48
-15.83
-16.19
-16.68
-17.33
-17.96
-18.31
-18.21
-17.76
-17.35
-17.47
-18.45
-20.30
-22.63
-24.81
-26.24
-26.61
-25.88
-24.26
-21.98
-19.22
-16.00
-12.33
-8.30
-4.15
-0.33
2.64
4.27
4.28
2.74
0.14
-2.68
-4.63
-4.80
-2.70
1.48
6.85
12.12
15.97
17.48
16.39
13.16
8.72
4.17
0.39
-2.11
-3.31
-3.51
-3.18
-2.77
-2.50
-2.39
-2.33
-2.12
-1.59
-0.64
0.77
2.61
4.83
7.29
9.77
11.95
13.48
14.13
13.81
12.72
11.24
9.83
8.88
8.54
8.67
8.88
8.71
7.76
5.83
2.99
-0.54
-4.35
-7.99
-11.02
-13.10
-14.06
-13.97
-13.09
-11.84
-10.72
-10.16
-10.47
-11.80
-14.14
-17.40
-21.34
-25.61
-29.70
-33.05
-35.15
-35.68
-34.55
-31.89
-28.01
-23.31
-18.23
-13.18
-8.55
-4.66
-1.71
0.26
1.37
1.89
2.18
2.59
3.40
4.73
6.58
8.86
11.45
14.27
17.24
20.22
23.02
25.33
26.83
27.28
26.63
25.06
23.01
21.03
19.77
19.81
21.46
24.66
28.86
33.20
36.64
38.43
38.31
36.65
34.17
31.69
29.72
28.33
27.26
26.11
24.60
22.62
20.21
17.41
14.19
10.52
6.44
2.19
-1.87
-5.36
-8.09
-10.11
-11.72
-13.28
-15.07
-17.17
-19.49
-21.81
-23.82
-25.24
-25.78
-25.26
-23.58
-20.82
-17.23
-13.19
-9.14
-5.44
-2.30
0.20
2.18
3.75
5.03
6.04
6.72
7.02
6.90
6.39
5.58
4.57
3.50
2.46
1.54
0.81
0.28
-0.14
-0.61
-1.38
-2.58
-4.20
-6.04
-7.71
-8.82
-9.07
-8.40
-6.93
-4.86
-2.41
0.23
2.91
5.47
7.76
9.67
11.17
12.36
13.38
14.36
15.27
15.98
16.26
15.88
14.78
13.07
11.07
9.21
7.86
7.19
7.07
7.14
6.92
6.08
4.61
2.78
0.97
-0.57
-1.81
-2.96
-4.25
-5.66
-6.92
-7.61
-7.37
-6.11
-4.06
-1.58
0.96
3.39
5.69
7.90
9.99
11.81
13.18
13.96
14.12
13.79
13.14
12.31
11.34
10.23
8.99
7.73
6.65
5.95
5.72
5.84
5.97
5.70
4.71
2.92
0.55
-2.04
-4.44
-6.37
-7.71
-8.44
-8.62
-8.34
-7.72
-6.94
-6.19
-5.53
-4.90
-4.06
-2.73
-0.76
1.77
4.51
6.96
8.68
9.45
9.37
8.83
8.25
7.93
7.97
8.24
8.49
8.52
8.26
7.76
7.14
6.50
5.84
5.13
4.34
3.53
2.85
2.41
2.24
2.21
2.06
1.47
0.24
-1.66
-4.09
-6.77
-9.40
-11.76
-13.74
-15.35
-16.65
-17.70
-18.51
-19.03
-19.15
-18.78
-17.95
-16.84
-15.73
-14.94
-14.66
-14.89
-15.40
-15.85
-15.96
-15.68
-15.23
-14.98
-15.29
-16.29
-17.79
-19.37
-20.64
-21.46
-21.99
-22.58
-23.53
-24.89
-26.38
-27.57
-28.10
-27.78
-26.55
-24.24
-20.55
-15.28
-8.69
-1.80
3.75
6.22
4.67
-0.45
-7.13
-12.42
-13.44
-8.46
2.56
18.02
35.35
51.77
64.90
72.92
74.58
69.28
57.41
40.73
22.49
6.78
-2.85
-5.01
-1.26
4.48
7.90
6.61
1.32
-4.69
-7.53
-5.05
1.97
10.37
16.50
18.08
15.12
9.37
3.08
-2.08
-5.40
-6.67
-5.65
-1.94
4.51
12.80
20.85
25.99
26.07
20.44
10.22
-2.31
-14.74
-25.30
-33.04
-37.48
-38.31
-35.43
-29.36
-21.58
-14.32
-9.81
-9.37
-12.89
-18.95
-25.61
-30.97
-33.74
-33.13
-28.89
-21.39
-11.84
-2.13
5.80
10.66
12.26
11.40
9.21
6.57
3.93
1.65
0.31
0.84
3.92
9.23
15.26
19.70
20.62
17.55
11.80
5.67
1.08
-1.50
-3.15
-5.45
-9.25
-13.98
-17.98
-19.62
-18.50
-15.91
-13.98
-14.26
-16.56
-18.80
-18.22
-13.04
-3.73
6.90
14.77
16.31
10.10
-2.49
-17.82
-31.36
-39.36
-39.98
-33.69
-22.75
-10.28
0.78
8.49
12.29
12.93
11.89
10.66
10.16
10.60
11.80
13.65
16.45
20.73
26.63
33.25
38.61
40.34
36.85
28.33
16.83
5.39
-3.38
-8.32
-10.07
-10.34
-10.84
-12.42
-14.75
-16.79
-17.45
-16.32
-13.80
-10.90
-8.70
-7.95
-8.86
-11.19
-14.45
-18.14
-21.95
-25.78
-29.62
-33.39
-36.63
-38.49
-37.87
-33.86
-26.25
-15.88
-4.46
5.97
13.80
18.36
19.98
19.59
18.16
16.24
13.98
11.31
8.29
5.27
2.74
1.20
0.90
1.88
3.96
6.83
10.12
13.40
16.30
18.52
19.88
20.30
19.79
18.37
16.16
13.44
10.58
8.02
5.96
4.28
2.46
-0.23
-4.33
-9.87
-16.22
-22.19
-26.52
-28.25
-27.13
-23.68
-19.00
-14.46
-11.16
-9.73
-10.20
-12.15
-14.93
-17.97
-20.94
-23.69
-26.14
-28.10
-29.19
-29.10
-27.73
-25.41
-22.87
-20.93
-20.19
-20.78
-22.31
-24.11
-25.53
-26.13
-25.77
-24.56
-22.70
-20.45
-18.13
-16.12
-14.85
-14.71
-15.86
-18.05
-20.66
-22.75
-23.35
-21.73
-17.63
-11.40
-3.82
4.15
11.66
18.22
23.72
28.32
32.24
35.59
38.34
40.35
41.54
42.01
42.01
41.90
41.93
42.19
42.56
42.79
42.56
41.64
39.94
37.54
34.70
31.80
29.21
27.15
25.54
23.99
21.93
18.86
14.57
9.31
3.61
-1.88
-6.63
-10.35
-12.94
-14.45
-14.91
-14.40
-13.07
-11.17
-9.06
-7.05
-5.35
-3.95
-2.72
-1.45
-0.01
1.60
3.22
4.57
5.33
5.26
4.37
2.87
1.18
-0.27
-1.16
-1.40
-1.01
-0.15
1.06
2.49
4.00
5.37
6.37
6.84
6.79
6.39
5.85
5.28
4.59
3.54
1.94
-0.19
-2.48
-4.29
-4.90
-3.81
-0.96
3.25
7.99
12.32
15.42
16.90
16.84
15.81
14.63
14.11
14.77
16.62
19.20
21.70
23.32
23.57
22.39
20.13
17.38
14.70
12.53
11.12
10.60
10.95
11.98
13.28
14.25
14.29
13.06
10.59
7.34
3.89
0.72
-2.00
-4.35
-6.49
-8.43
-9.95
-10.66
-10.24
-8.64
-6.12
-3.21
-0.48
1.59
2.71
2.78
1.92
0.50
-0.94
-1.75
-1.35
0.60
3.98
8.21
12.29
15.08
15.65
13.54
8.99
2.92
-3.32
-8.27
-10.88
-10.75
-8.22
-4.29
-0.27
2.61
3.39
1.65
-2.44
-8.17
-14.46
-20.07
-23.94
-25.51
-24.87
-22.70
-19.98
-17.54
-15.78
-14.55
-13.33
-11.58
-9.08
-5.99
-2.82
-0.13
1.71
2.66
2.96
2.99
3.06
3.24
3.51
3.77
4.09
4.67
5.82
7.69
10.06
12.32
13.60
13.20
10.84
6.83
1.96
-2.91
-7.07
-10.18
-12.17
-13.12
-13.17
-12.46
-11.22
-9.73
-8.29
-7.08
-6.12
-5.24
-4.24
-3.03
-1.68
-0.38
0.71
1.61
2.48
3.57
5.06
6.93
8.95
10.72
11.85
12.09
11.37
9.82
7.68
5.26
2.88
0.89
-0.37
-0.65
0.02
1.28
2.45
2.70
1.41
-1.60
-5.90
-10.59
-14.62
-17.12
-17.58
-15.97
-12.55
-7.83
-2.39
3.09
7.83
11.02
12.03
10.60
7.09
2.45
-1.97
-4.79
-5.03
-2.44
2.37
8.06
12.99
15.72
15.48
12.45
7.71
2.83
-0.71
-2.08
-1.39
0.41
1.95
2.07
0.17
-3.60
-8.41
-13.09
-16.48
-17.78
-16.77
-13.85
-9.99
-6.37
-3.98
-3.24
-3.83
-4.82
-5.06
-3.67
-0.37
4.44
9.87
14.86
18.51
20.27
20.10
18.33
15.58
12.59
9.99
8.24
7.51
7.72
8.56
9.64
10.48
10.65
9.88
8.14
5.72
3.20
1.22
0.22
0.21
0.76
1.13
0.63
-1.11
-4.00
-7.52
-11.02
-13.93
-15.94
-17.06
-17.53
-17.73
-18.00
-18.62
-19.69
-21.09
-22.49
-23.48
-23.62
-22.58
-20.23
-16.62
-12.02
-6.87
-1.67
3.01
6.76
9.38
10.88
11.54
11.67
11.54
11.29
10.97
10.61
10.29
10.20
10.54
11.43
12.82
14.43
15.77
16.28
15.47
13.16
9.60
5.46
1.64
-1.03
-2.12
-1.77
-0.64
0.29
0.09
-1.79
-5.35
-9.94
-14.53
-17.98
-19.43
-18.66
-16.17
-13.04
-10.53
-9.60
-10.53
-12.87
-15.57
-17.36
-17.09
-14.11
-8.43
-0.75
7.58
14.86
19.47
20.33
17.39
11.68
5.08
-0.34
-2.95
-2.07
1.94
7.88
14.15
19.10
21.41
20.38
16.11
9.43
1.71
-5.46
-10.73
-13.20
-12.59
-9.27
-4.15
1.42
5.88
7.83
6.41
1.76
-5.05
-12.26
-18.16
-21.69
-22.74
-22.03
-20.56
-19.04
-17.68
-16.23
-14.28
-11.57
-8.16
-4.37
-0.59
2.90
5.94
8.47
10.41
11.68
12.27
12.33
12.25
12.49
13.42
15.04
17.01
18.75
19.72
19.65
18.53
16.53
13.80
10.48
6.76
3.09
0.20
-1.13
-0.42
2.20
5.99
9.87
12.81
14.18
13.75
11.59
7.87
2.89
-2.91
-8.85
-14.15
-18.13
-20.50
-21.45
-21.47
-21.10
-20.66
-20.14
-19.32
-17.96
-16.01
-13.63
-11.08
-8.60
-6.36
-4.46
-3.04
-2.26
-2.26
-3.02
-4.23
-5.36
-5.82
-5.24
-3.62
-1.39
0.80
2.34
2.91
2.56
1.56
0.27
-1.09
-2.45
-3.80
-5.06
-6.02
-6.38
-5.97
-4.89
-3.54
-2.55
-2.58
-3.99
-6.82
-10.75
-15.24
-19.68
-23.46
-26.04
-26.99
-26.08
-23.32
-19.01
-13.65
-7.90
-2.41
2.24
5.69
7.84
8.89
9.34
9.80
10.79
12.55
14.95
17.56
19.84
21.36
21.85
21.29
19.74
17.39
14.58
11.77
9.52
8.25
8.07
8.64
9.23
9.07
7.65
4.89
1.19
-2.79
-6.46
-9.40
-11.42
-12.53
-12.87
-12.73
-12.56
-12.91
-14.22
-16.58
-19.53
-22.06
-22.86
-20.88
-15.88
-8.63
-0.78
5.79
9.71
10.67
9.35
7.10
5.18
4.41
4.96
6.58
8.94
11.81
15.05
18.48
21.71
24.25
25.52
25.11
22.90
19.17
14.61
10.13
6.68
4.85
4.70
5.70
7.00
7.77
7.54
6.27
4.29
2.03
-0.22
-2.35
-4.40
-6.46
-8.49
-10.28
-11.51
-11.87
-11.17
-9.52
-7.25
-4.89
-2.86
-1.40
-0.47
0.15
0.75
1.51
2.48
3.65
4.97
6.34
7.59
8.48
8.71
8.18
7.03
5.62
4.39
3.55
3.04
2.59
1.93
1.06
0.25
-0.08
0.31
1.27
2.20
2.31
1.01
-1.77
-5.56
-9.55
-12.93
-15.22
-16.34
-16.49
-15.95
-14.85
-13.25
-11.18
-8.81
-6.45
-4.39
-2.75
-1.40
-0.03
1.61
3.55
5.59
7.36
8.56
9.10
9.08
8.76
8.32
7.82
7.16
6.17
4.73
2.92
1.02
-0.60
-1.62
-1.99
-1.96
-2.01
-2.60
-3.98
-6.06
-8.43
-10.59
-12.20
-13.13
-13.48
-13.33
-12.65
-11.27
-9.00
-5.84
-2.07
1.79
5.14
7.55
8.89
9.34
9.29
9.14
9.10
9.20
9.32
9.29
9.01
8.51
7.86
7.14
6.40
5.58
4.64
3.52
2.20
0.69
-0.99
-2.90
-5.08
-7.62
-10.50
-13.55
-16.38
-18.47
-19.30
-18.57
-16.35
-13.15
-9.67
-6.54
-4.08
-2.26
-0.79
0.57
1.83
2.78
3.13
2.70
1.58
0.07
-1.38
-2.40
-2.75
-2.37
-1.41
-0.15
1.04
1.78
1.84
1.17
-0.05
-1.54
-3.13
-4.81
-6.70
-8.91
-11.34
-13.69
-15.50
-16.40
-16.21
-15.04
-13.10
-10.58
-7.52
-3.90
0.29
4.85
9.39
13.40
16.43
18.25
18.82
18.24
16.71
14.46
11.85
9.35
7.51
6.77
7.29
8.86
10.91
12.69
13.60
13.36
12.07
10.09
7.84
5.61
3.49
1.39
-0.81
-3.19
-5.71
-8.27
-10.70
-12.81
-14.32
-14.94
-14.34
-12.29
-8.75
-3.99
1.45
6.81
11.30
14.25
15.37
14.82
13.19
11.34
10.11
10.02
11.09
12.89
14.76
16.09
16.56
16.21
15.30
14.14
12.97
11.85
10.82
9.87
9.06
8.46
8.07
7.76
7.24
6.28
4.71
2.59
0.17
-2.21
-4.33
-6.22
-8.09
-10.21
-12.69
-15.34
-17.68
-19.23
-19.71
-19.27
-18.36
-17.53
-17.01
-16.54
-15.48
-13.12
-9.11
-3.74
2.15
7.51
11.53
13.90
14.77
14.49
13.36
11.46
8.83
5.65
2.43
-0.04
-1.01
-0.12
2.42
5.76
8.80
10.56
10.57
8.99
6.45
3.72
1.33
-0.53
-1.95
-3.06
-3.81
-4.01
-3.55
-2.69
-2.16
-2.92
-5.70
-10.47
-16.31
-21.67
-25.01
-25.42
-23.02
-18.81
-14.20
-10.35
-7.82
-6.42
-5.58
-4.63
-3.15
-1.02
1.64
4.62
7.70
10.67
13.23
15.03
15.76
15.27
13.75
11.73
9.92
8.96
9.08
10.01
11.10
11.57
11.00
9.53
7.81
6.65
6.54
7.23
7.89
7.42
5.20
1.41
-2.90
-6.36
-8.00
-7.78
-6.64
-6.03
-7.12
-10.18
-14.46
-18.57
-21.21
-21.79
-20.57
-18.40
-16.17
-14.29
-12.61
-10.63
-7.99
-4.69
-1.17
2.02
4.54
6.36
7.69
8.76
9.63
10.26
10.62
10.84
11.21
12.05
13.45
15.17
16.62
17.08
16.02
13.29
9.26
4.78
0.91
-1.42
-1.79
-0.48
1.54
3.04
2.94
0.82
-2.98
-7.53
-11.80
-15.03
-17.00
-17.90
-18.18
-18.17
-18.01
-17.66
-16.98
-15.94
-14.61
-13.22
-11.96
-10.90
-9.89
-8.55
-6.39
-3.07
1.42
6.64
11.76
15.88
18.36
19.05
18.36
17.05
15.85
15.20
15.14
15.33
15.39
15.02
14.17
12.99
11.77
10.75
10.04
9.57
9.19
8.71
8.01
7.06
5.89
4.51
2.90
0.97
-1.34
-3.97
-6.77
-9.50
-11.94
-13.98
-15.66
-17.11
-18.40
-19.44
-19.95
-19.60
-18.12
-15.51
-12.07
-8.33
-4.83
-1.93
0.36
2.25
4.05
5.91
7.74
9.34
10.52
11.29
11.77
12.02
11.94
11.24
9.79
7.81
5.98
5.12
5.80
7.90
10.61
12.80
13.60
12.83
11.05
9.19
8.00
7.66
7.72
7.31
5.66
2.42
-2.14
-7.25
-12.04
-15.90
-18.67
-20.68
-22.31
-23.74
-24.67
-24.51
-22.73
-19.25
-14.62
-9.78
-5.66
-2.70
-0.75
0.74
2.33
4.24
6.33
8.34
10.02
11.23
11.90
11.94
11.29
9.95
8.14
6.28
4.89
4.27
4.36
4.72
4.90
4.63
3.96
3.05
1.94
0.58
-1.24
-3.70
-6.79
-10.06
-12.85
-14.79
-16.07
-17.60
-20.12
-23.98
-28.92
-34.06
-37.76
-38.29
-34.66
-27.27
-17.99
-8.67
-0.90
4.35
6.87
7.66
8.39
10.33
13.57
16.85
19.48
21.00
21.08
19.29
15.90
12.02
9.33
9.64
14.20
24.82
41.82
62.84
79.68
82.72
67.57
39.12
10.65
-12.64
-29.09
-39.45
-45.56
-49.66
-53.36
-57.12
-60.70
-63.91
-67.24
-70.10
-71.65
-71.21
-68.17
-61.39
-49.55
-32.31
-11.32
9.59
26.91
38.16
42.62
41.57
38.03
35.44
36.01
39.78
44.68
48.58
50.01
48.69
45.41
41.63
38.54
36.34
34.11
30.45
24.80
17.77
10.84
5.60
2.90
2.50
3.15
3.18
1.27
-2.94
-8.83
-15.20
-20.68
-24.13
-24.91
-22.96
-18.85
-13.65
-8.66
-5.02
-3.39
-3.83
-5.82
-8.56
-11.19
-13.05
-13.68
-12.89
-10.71
-7.45
-3.66
-0.01
2.88
4.66
5.39
5.44
5.25
5.04
4.71
3.91
2.33
-0.01
-2.68
-4.98
-6.33
-6.52
-5.84
-4.91
-4.42
-4.83
-6.15
-8.09
-10.14
-11.83
-12.87
-13.16
-12.72
-11.63
-9.94
-7.68
-4.90
-1.69
1.80
5.42
9.02
12.50
15.76
18.56
20.57
21.39
20.75
18.70
15.67
12.36
9.49
7.60
6.87
7.20
8.20
9.48
10.60
11.16
10.87
9.56
7.34
4.48
1.39
-1.58
-4.31
-6.88
-9.43
-12.00
-14.42
-16.33
-17.40
-17.49
-16.71
-15.28
-13.42
-11.19
-8.49
-5.26
-1.60
2.11
5.33
7.56
8.57
8.50
7.75
6.81
5.99
5.37
4.86
4.33
3.83
3.55
3.77
4.63
6.00
7.38
8.14
7.77
6.12
3.54
0.69
-1.74
-3.41
-4.46
-5.48
-7.16
-9.88
-13.47
-17.25
-20.28
-21.75
-21.30
-19.11
-15.69
-11.69
-7.63
-3.82
-0.42
2.50
4.87
6.62
7.72
8.24
8.34
8.25
8.18
8.20
8.30
8.35
8.23
7.88
7.32
6.65
5.98
5.40
4.89
4.37
3.71
2.71
1.23
-0.84
-3.48
-6.49
-9.52
-12.14
-13.92
-14.64
-14.19
-12.66
-10.16
-6.84
-2.94
1.13
4.82
7.60
9.16
9.62
9.46
9.37
9.90
11.23
13.14
15.07
16.44
16.83
16.15
14.64
12.83
11.25
10.21
9.61
8.95
7.65
5.38
2.35
-0.67
-2.77
-3.40
-2.73
-1.67
-1.42
-2.99
-6.71
-12.09
-17.88
-22.46
-24.24
-22.07
-15.63
-5.69
5.92
16.68
24.10
26.56
23.86
17.35
9.40
2.50
-1.64
-2.58
-1.06
1.56
3.99
5.39
5.47
4.31
2.10
-0.92
-4.41
-7.91
-10.84
-12.78
-13.74
-14.17
-14.84
-16.47
-19.31
-22.99
-26.69
-29.42
-30.50
-29.69
-27.32
-24.06
-20.70
-17.84
-15.73
-14.19
-12.77
-10.95
-8.44
-5.26
-1.80
1.35
3.74
5.18
5.83
6.05
6.16
6.30
6.37
6.20
5.73
5.15
4.82
5.16
6.38
8.34
10.58
12.43
13.30
12.86
11.10
8.25
4.63
0.53
-3.77
-7.93
-11.48
-13.80
-14.27
-12.49
-8.48
-2.70
3.99
10.60
16.22
20.18
22.22
22.41
21.14
19.03
16.78
14.96
13.93
13.69
14.00
14.47
14.76
14.69
14.26
13.55
12.65
11.61
10.43
9.17
7.91
6.74
5.67
4.59
3.29
1.63
-0.29
-2.14
-3.43
-3.82
-3.38
-2.72
-2.73
-4.14
-7.12
-11.07
-14.83
-17.22
-17.54
-15.76
-12.43
-8.23
-3.64
1.18
6.22
11.33
16.13
20.05
22.61
23.58
23.09
21.47
19.14
16.48
13.87
11.61
9.91
8.77
8.02
7.39
6.68
5.95
5.46
5.54
6.38
7.94
9.95
12.00
13.66
14.54
14.31
12.79
9.99
6.15
1.77
-2.59
-6.36
-9.14
-10.76
-11.28
-10.96
-10.16
-9.26
-8.55
-8.08
-7.73
-7.25
-6.47
-5.37
-4.06
-2.69
-1.38
-0.10
1.20
2.58
3.98
5.24
6.11
6.39
5.95
4.82
3.18
1.37
-0.23
-1.28
-1.60
-1.20
-0.28
0.84
1.76
2.08
1.49
-0.13
-2.65
-5.62
-8.43
-10.48
-11.53
-11.79
-11.94
-12.86
-15.18
-18.88
-23.23
-26.98
-28.79
-27.84
-24.14
-18.47
-12.05
-6.03
-1.07
2.66
5.28
6.89
7.41
6.66
4.67
1.82
-1.15
-3.38
-4.25
-3.61
-1.81
0.49
2.63
4.06
4.51
3.96
2.59
0.78
-0.95
-2.02
-2.00
-0.78
1.32
3.52
4.87
4.49
2.01
-2.26
-7.34
-11.99
-15.12
-16.33
-15.99
-14.99
-14.33
-14.51
-15.37
-16.16
-15.99
-14.23
-10.78
-6.03
-0.59
4.96
10.12
14.49
17.61
18.97
18.19
15.27
10.69
5.41
0.61
-2.69
-3.92
-3.05
-0.58
2.74
6.08
8.73
10.24
10.54
9.87
8.70
7.49
6.43
5.47
4.36
2.97
1.53
0.59
0.82
2.60
5.76
9.52
12.83
14.82
15.10
13.90
11.93
10.11
9.21
9.70
11.56
14.32
17.24
19.49
20.50
20.15
18.76
16.92
15.15
13.64
12.17
10.31
7.74
4.48
0.85
-2.74
-6.10
-9.38
-12.93
-17.08
-21.85
-26.87
-31.55
-35.31
-37.93
-39.59
-40.75
-41.82
-43.04
-44.30
-45.33
-45.78
-45.44
-44.20
-42.03
-38.96
-35.05
-30.49
-25.58
-20.78
-16.47
-12.85
-9.90
-7.41
-5.14
-2.95
-0.79
1.32
3.36
5.34
7.32
9.31
11.28
13.05
14.37
14.87
14.28
12.49
9.67
6.22
2.60
-0.88
-4.19
-7.58
-11.33
-15.55
-20.03
-24.29
-27.78
-30.05
-30.86
-30.14
-27.94
-24.42
-19.87
-14.69
-9.39
-4.47
-0.30
3.00
5.46
7.25
8.58
9.65
10.63
11.65
12.81
14.08
15.38
16.62
17.73
18.67
19.43
19.89
19.83
19.01
17.21
14.42
10.83
6.77
2.55
-1.63
-5.69
-9.56
-13.04
-15.79
-17.42
-17.69
-16.71
-14.91
-12.92
-11.30
-10.35
-10.01
-9.94
-9.78
-9.25
-8.33
-7.19
-6.09
-5.26
-4.78
-4.53
-4.32
-3.96
-3.31
-2.37
-1.24
-0.07
1.01
1.87
2.45
2.74
2.74
2.47
1.99
1.37
0.71
0.13
-0.25
-0.33
-0.04
0.62
1.63
2.97
4.66
6.70
9.03
11.44
13.63
15.28
16.14
16.16
15.47
14.30
12.85
11.29
9.67
8.09
6.67
5.57
4.87
4.48
4.10
3.37
2.01
0.00
-2.41
-4.92
-7.29
-9.60
-12.10
-15.05
-18.44
-21.89
-24.72
-26.28
-26.22
-24.60
-21.87
-18.58
-15.16
-11.78
-8.39
-4.88
-1.22
2.45
5.91
8.97
11.60
13.90
16.10
18.37
20.76
23.14
25.25
26.81
27.60
27.64
27.15
26.51
26.09
26.06
26.36
26.70
26.70
26.05
24.61
22.42
19.65
16.57
13.45
10.64
8.47
7.25
7.13
8.02
9.62
11.45
13.04
14.07
14.47
14.41
14.19
14.01
13.91
13.63
12.77
10.96
8.10
4.43
0.45
-3.31
-6.52
-9.19
-11.52
-13.84
-16.27
-18.75
-21.12
-23.26
-25.21
-27.11
-29.13
-31.29
-33.53
-35.76
-38.06
-40.58
-43.45
-46.57
-49.41
-51.21
-51.25
-49.13
-45.02
-39.54
-33.48
-27.54
-22.15
-17.45
-13.46
-10.07
-7.17
-4.55
-1.95
0.95
4.44
8.62
13.40
18.43
23.23
27.28
30.24
32.00
32.74
32.93
33.15
33.95
35.60
38.02
40.81
43.35
45.10
45.83
45.62
44.84
43.91
43.04
42.18
41.08
39.47
37.25
34.55
31.74
29.25
27.46
26.58
26.59
27.25
28.20
29.11
29.79
30.24
30.62
31.05
31.46
31.48
30.65
28.54
24.94
19.95
13.96
7.53
1.38
-3.81
-7.56
-9.81
-11.05
-12.17
-14.16
-17.62
-22.56
-28.43
-34.47
-40.15
-45.40
-50.44
-55.47
-60.35
-64.64
-67.77
-69.44
-69.78
-69.28
-68.51
-67.81
-67.16
-66.15
-64.26
-61.10
-56.58
-51.01
-44.92
-38.89
-33.30
-28.21
-23.40
-18.54
-13.36
-7.88
-2.38
2.71
7.02
10.41
13.00
15.12
17.13
19.37
22.01
25.04
28.27
31.42
34.19
36.49
38.46
40.48
42.97
46.15
49.89
53.70
56.88
58.79
59.07
57.72
55.06
51.60
47.87
44.41
41.65
39.85
39.08
39.10
39.51
39.79
39.50
38.39
36.44
33.78
30.66
27.28
23.72
19.93
15.77
11.06
5.78
0.06
-5.77
-11.32
-16.31
-20.68
-24.54
-28.13
-31.59
-34.89
-37.93
-40.65
-43.12
-45.52
-48.05
-50.69
-53.23
-55.36
-56.91
-57.90
-58.60
-59.24
-59.86
-60.16
-59.62
-57.72
-54.25
-49.36
-43.58
-37.57
-31.85
-26.66
-21.88
-17.17
-12.21
-6.87
-1.33
4.05
8.94
13.19
16.92
20.47
24.18
28.21
32.49
36.76
40.72
44.06
46.54
47.99
48.30
47.51
45.84
43.65
41.30
39.03
36.88
34.78
32.67
30.59
28.71
27.19
26.17
25.63
25.56
25.89
26.58
27.50
28.44
29.07
29.09
28.36
27.00
25.34
23.78
22.57
21.73
21.07
20.24
18.97
17.10
14.63
11.62
8.08
3.91
-1.02
-6.73
-13.02
-19.46
-25.54
-30.90
-35.47
-39.49
-43.33
-47.31
-51.51
-55.79
-59.85
-63.40
-66.21
-68.16
-69.20
-69.35
-68.64
-67.15
-65.02
-62.40
-59.46
-56.31
-52.98
-49.41
-45.53
-41.25
-36.61
-31.83
-27.25
-23.21
-19.88
-17.14
-14.56
-11.61
-7.88
-3.22
2.15
7.80
13.25
18.17
22.39
25.87
28.54
30.29
30.99
30.71
29.77
28.73
28.27
28.88
30.69
33.42
36.46
39.17
41.08
42.02
42.11
41.63
40.85
39.94
38.90
37.69
36.18
34.32
32.13
29.76
27.38
25.18
23.28
21.67
20.21
18.67
16.79
14.36
11.21
7.32
2.80
-2.09
-6.96
-11.35
-14.82
-17.08
-18.12
-18.25
-18.06
-18.19
-19.10
-20.89
-23.18
-25.33
-26.64
-26.70
-25.50
-23.40
-20.94
-18.67
-17.03
-16.32
-16.76
-18.43
-21.26
-24.95
-29.01
-32.85
-35.98
-38.09
-39.08
-39.07
-38.29
-36.98
-35.43
-33.86
-32.41
-31.14
-29.91
-28.49
-26.60
-24.01
-20.58
-16.28
-11.15
-5.27
1.20
7.99
14.78
21.16
26.73
31.21
34.46
36.54
37.61
37.92
37.76
37.35
36.91
36.53
36.19
35.75
35.02
33.84
32.19
30.13
27.82
25.40
22.97
20.51
18.03
15.56
13.23
11.17
9.54
8.40
7.77
7.60
7.79
8.20
8.66
8.95
8.91
8.38
7.32
5.71
3.58
0.99
-1.94
-5.02
-8.09
-11.04
-13.90
-16.77
-19.78
-23.00
-26.38
-29.77
-33.02
-36.10
-39.11
-42.28
-45.85
-49.94
-54.51
-59.21
-63.47
-66.57
-67.85
-66.90
-63.78
-59.01
-53.41
-47.89
-43.13
-39.45
-36.77
-34.77
-33.00
-31.03
-28.54
-25.31
-21.29
-16.56
-11.35
-5.91
-0.51
4.63
9.35
13.55
17.21
20.39
23.24
25.98
28.81
31.80
34.80
37.49
39.44
40.25
39.66
37.65
34.41
30.36
26.14
22.55
20.40
20.31
22.52
26.73
32.19
37.94
43.05
46.85
49.04
49.57
48.60
46.38
43.25
39.63
35.97
32.73
30.19
28.47
27.50
27.10
27.08
27.25
27.46
27.58
27.47
26.97
25.94
24.22
21.71
18.39
14.42
10.15
5.99
2.36
-0.53
-2.73
-4.53
-6.30
-8.32
-10.66
-13.15
-15.51
-17.48
-18.89
-19.72
-20.03
-19.90
-19.41
-18.62
-17.64
-16.63
-15.74
-15.06
-14.59
-14.21
-13.73
-13.00
-11.92
-10.55
-9.08
-7.72
-6.75
-6.33
-6.47
-7.03
-7.74
-8.27
-8.27
-7.50
-5.80
-3.19
0.16
3.96
7.87
11.55
14.79
17.49
19.65
21.28
22.31
22.62
22.13
20.86
19.02
16.98
15.09
13.60
12.54
11.76
11.08
10.40
9.71
8.98
8.13
6.92
5.08
2.48
-0.80
-4.38
-7.80
-10.60
-12.53
-13.58
-13.89
-13.67
-13.16
-12.56
-12.03
-11.68
-11.56
-11.65
-11.85
-12.05
-12.13
-12.05
-11.80
-11.41
-10.92
-10.32
-9.59
-8.66
-7.43
-5.84
-3.86
-1.53
1.03
3.73
6.53
9.44
12.49
15.64
18.74
21.50
23.62
24.91
25.32
25.02
24.27
23.28
22.18
20.99
19.66
18.18
16.58
14.97
13.47
12.19
11.15
10.23
9.15
7.53
5.11
1.77
-2.30
-6.70
-10.95
-14.67
-17.68
-20.03
-21.93
-23.63
-25.38
-27.30
-29.38
-31.50
-33.47
-35.13
-36.49
-37.70
-39.02
-40.69
-42.75
-45.01
-47.12
-48.67
-49.32
-48.84
-47.14
-44.25
-40.42
-36.02
-31.57
-27.49
-23.98
-20.96
-18.12
-15.10
-11.61
-7.64
-3.30
1.16
5.51
9.54
13.04
15.88
17.96
19.38
20.38
21.26
22.30
23.55
24.92
26.18
27.17
27.84
28.28
28.55
28.69
28.57
28.05
26.99
25.42
23.51
21.52
19.65
17.96
16.35
14.62
12.56
10.14
7.49
4.93
2.85
1.50
0.95
1.07
1.54
2.07
2.48
2.75
3.06
3.69
4.91
6.85
9.38
12.14
14.56
16.09
16.36
15.35
13.38
11.03
8.93
7.50
6.85
6.75
6.75
6.46
5.63
4.26
2.51
0.62
-1.23
-2.99
-4.62
-6.12
-7.49
-8.65
-9.62
-10.49
-11.49
-12.89
-14.93
-17.74
-21.21
-25.10
-29.06
-32.78
-36.03
-38.74
-40.88
-42.40
-43.24
-43.31
-42.60
-41.16
-39.12
-36.60
-33.67
-30.31
-26.48
-22.21
-17.64
-13.01
-8.61
-4.67
-1.35
1.33
3.49
5.36
7.22
9.34
11.91
15.01
18.54
22.35
26.24
30.03
33.53
36.48
38.61
39.67
39.50
38.17
35.94
33.27
30.67
28.53
27.06
26.16
25.47
24.48
22.71
19.90
16.05
11.47
6.68
2.30
-1.13
-3.21
-3.78
-2.93
-0.96
1.70
4.60
7.41
10.00
12.36
14.54
16.52
18.20
19.39
19.95
19.77
18.84
17.16
14.69
11.46
7.60
3.45
-0.51
-3.83
-6.27
-7.98
-9.45
-11.33
-14.16
-18.15
-23.14
-28.64
-33.99
-38.57
-41.93
-44.00
-45.09
-45.94
-47.42
-50.14
-54.07
-58.42
-61.76
-62.57
-59.77
-53.18
-43.55
-32.25
-20.79
-10.36
-1.61
5.32
10.61
14.55
17.43
19.46
20.82
21.69
22.33
23.04
24.10
25.65
27.58
29.63
31.41
32.64
33.21
33.22
32.89
32.42
31.95
31.50
31.08
30.71
30.49
30.51
30.75
31.12
31.33
31.10
30.16
28.42
26.09
23.61
21.57
20.45
20.49
21.57
23.29
25.08
26.50
27.26
27.37
26.97
26.31
25.58
24.87
24.09
23.04
21.41
18.92
15.44
11.07
6.14
1.10
-3.67
-7.96
-11.74
-15.13
-18.21
-20.99
-23.36
-25.21
-26.50
-27.37
-28.14
-29.20
-30.88
-33.35
-36.45
-39.76
-42.64
-44.43
-44.68
-43.25
-40.34
-36.46
-32.15
-27.78
-23.55
-19.49
-15.63
-12.08
-9.01
-6.59
-4.75
-3.23
-1.64
0.37
2.90
5.74
8.54
10.91
12.69
14.01
15.19
16.62
18.54
20.94
23.54
25.90
27.51
28.00
27.12
24.87
21.40
17.01
12.13
7.29
3.03
-0.24
-2.32
-3.30
-3.53
-3.43
-3.33
-3.36
-3.46
-3.51
-3.40
-3.09
-2.65
-2.17
-1.74
-1.44
-1.33
-1.49
-1.97
-2.73
-3.64
-4.51
-5.17
-5.48
-5.42
-5.02
-4.36
-3.57
-2.83
-2.39
-2.51
-3.37
-4.95
-7.02
-9.22
-11.19
-12.76
-13.89
-14.70
-15.20
-15.26
-14.59
-12.89
-10.07
-6.28
-1.92
2.51
6.60
10.12
13.00
15.30
17.09
18.48
19.57
20.49
21.38
22.33
23.37
24.44
25.42
26.17
26.63
26.79
26.73
26.54
26.31
26.06
25.75
25.30
24.64
23.74
22.58
21.12
19.23
16.73
13.52
9.69
5.64
1.92
-0.86
-2.34
-2.52
-1.76
-0.62
0.40
0.97
1.03
0.68
0.04
-0.81
-1.98
-3.56
-5.64
-8.08
-10.60
-12.82
-14.44
-15.35
-15.73
-15.91
-16.23
-16.91
-17.95
-19.22
-20.53
-21.75
-22.95
-24.23
-25.71
-27.40
-29.13
-30.63
-31.71
-32.33
-32.69
-33.11
-33.86
-34.99
-36.26
-37.21
-37.35
-36.37
-34.24
-31.14
-27.39
-23.27
-18.96
-14.54
-10.11
-5.76
-1.61
2.22
5.69
8.81
11.67
14.33
16.80
19.07
21.09
22.84
24.28
25.43
26.31
26.93
27.33
27.56
27.62
27.48
27.06
26.31
25.21
23.79
22.13
20.26
18.13
15.70
12.95
10.02
7.23
5.01
3.77
3.70
4.73
6.53
8.66
10.72
12.46
13.80
14.77
15.44
15.81
15.88
15.59
14.99
14.20
13.40
12.69
12.05
11.35
10.45
9.26
7.89
6.51
5.29
4.22
3.11
1.68
-0.28
-2.84
-5.82
-8.95
-11.97
-14.69
-17.10
-19.20
-21.04
-22.63
-23.97
-25.05
-25.81
-26.13
-25.84
-24.77
-22.82
-20.05
-16.72
-13.20
-9.90
-7.12
-4.99
-3.45
-2.39
-1.65
-1.16
-0.87
-0.72
-0.61
-0.40
0.05
0.83
1.89
3.06
4.12
4.87
5.19
5.10
4.70
4.11
3.46
2.73
1.82
0.53
-1.35
-3.96
-7.30
-11.10
-14.96
-18.33
-20.77
-22.00
-22.00
-20.97
-19.25
-17.24
-15.32
-13.77
-12.74
-12.27
-12.32
-12.79
-13.59
-14.56
-15.55
-16.41
-16.97
-17.13
-16.87
-16.27
-15.46
-14.57
-13.62
-12.58
-11.36
-9.91
-8.31
-6.71
-5.30
-4.22
-3.49
-3.02
-2.62
-2.09
-1.24
0.06
1.86
4.12
6.76
9.65
12.63
15.48
18.07
20.28
22.08
23.52
24.68
25.63
26.36
26.81
26.86
26.42
25.51
24.24
22.79
21.28
19.74
18.12
16.30
14.22
11.89
9.44
7.01
4.69
2.52
0.45
-1.63
-3.82
-6.27
-9.09
-12.33
-15.90
-19.57
-22.96
-25.69
-27.45
-28.14
-27.82
-26.70
-25.03
-23.03
-20.90
-18.85
-17.09
-15.78
-15.01
-14.69
-14.64
-14.62
-14.46
-14.17
-13.85
-13.73
-14.01
-14.77
-15.97
-17.41
-18.81
-19.89
-20.44
-20.43
-19.99
-19.37
-18.92
-18.95
-19.65
-21.03
-22.87
-24.76
-26.22
-26.74
-26.01
-23.94
-20.68
-16.61
-12.20
-7.89
-4.00
-0.67
2.13
4.56
6.77
8.82
10.65
12.09
13.02
13.45
13.56
13.65
14.02
14.78
15.88
17.09
18.17
18.98
19.56
20.04
20.61
21.32
22.14
22.91
23.48
23.72
23.60
23.12
22.31
21.28
20.21
19.43
19.30
20.15
22.09
24.97
28.45
32.10
35.55
38.51
40.80
42.25
42.72
42.09
40.34
37.55
33.94
29.82
25.56
21.54
18.11
15.41
13.35
11.58
9.59
6.93
3.36
-1.07
-6.03
-11.11
-15.93
-20.28
-24.10
-27.40
-30.26
-32.73
-34.89
-36.81
-38.55
-40.11
-41.32
-41.91
-41.50
-39.85
-36.90
-32.90
-28.30
-23.62
-19.31
-15.62
-12.57
-10.09
-8.03
-6.34
-4.97
-3.92
-3.10
-2.37
-1.54
-0.39
1.22
3.28
5.64
7.99
10.04
11.63
12.78
13.71
14.70
15.99
17.67
19.64
21.69
23.54
24.85
25.27
24.45
22.20
18.65
14.41
10.53
8.20
8.38
11.35
16.53
22.68
28.32
32.31
34.17
34.21
33.17
31.86
30.85
30.33
30.24
30.44
30.86
31.47
32.21
32.95
33.48
33.63
33.33
32.62
31.59
30.28
28.63
26.53
23.87
20.68
17.05
13.18
9.21
5.29
1.40
-2.50
-6.60
-11.09
-16.12
-21.68
-27.53
-33.18
-38.05
-41.61
-43.56
-43.92
-43.00
-41.28
-39.21
-37.18
-35.39
-33.89
-32.70
-31.80
-31.25
-31.15
-31.56
-32.43
-33.58
-34.75
-35.63
-36.01
-35.85
-35.18
-34.13
-32.77
-31.12
-29.12
-26.75
-24.05
-21.17
-18.34
-15.79
-13.63
-11.81
-10.20
-8.56
-6.69
-4.44
-1.77
1.32
4.84
8.79
13.21
18.10
23.34
28.66
33.70
38.02
41.28
43.33
44.25
44.31
43.85
43.15
42.43
41.75
41.11
40.47
39.77
38.99
38.06
36.97
35.74
34.45
33.17
31.92
30.59
28.96
26.73
23.62
19.52
14.55
9.10
3.77
-0.79
-4.09
-5.98
-6.71
-6.84
-7.05
-7.85
-9.50
-11.93
-14.92
-18.19
-21.44
-24.37
-26.63
-27.93
-28.16
-27.51
-26.46
-25.57
-25.25
-25.56
-26.24
-26.88
-27.08
-26.67
-25.67
-24.21
-22.53
-20.86
-19.54
-18.95
-19.46
-21.32
-24.44
-28.42
-32.55
-36.04
-38.20
-38.66
-37.44
-34.83
-31.28
-27.22
-22.89
-18.39
-13.71
-8.91
-4.08
0.61
5.03
9.14
13.02
16.76
20.44
24.00
27.32
30.28
32.76
34.75
36.31
37.52
38.51
39.37
40.19
40.95
41.57
41.81
41.41
40.17
38.10
35.41
32.49
29.80
27.68
26.29
25.59
25.36
25.34
25.25
24.87
24.08
22.87
21.31
19.56
17.81
16.17
14.63
13.06
11.19
8.75
5.59
1.70
-2.70
-7.23
-11.50
-15.24
-18.33
-20.83
-22.86
-24.61
-26.23
-27.93
-29.92
-32.31
-35.08
-38.00
-40.66
-42.65
-43.65
-43.62
-42.68
-41.05
-38.95
-36.48
-33.71
-30.65
-27.33
-23.79
-20.04
-16.07
-11.91
-7.65
-3.47
0.41
3.79
6.64
9.02
11.06
12.89
14.51
15.86
16.85
17.46
17.73
17.77
17.64
17.34
16.78
15.86
14.51
12.77
10.73
8.54
6.30
4.06
1.83
-0.34
-2.29
-3.83
-4.76
-4.98
-4.55
-3.67
-2.61
-1.61
-0.84
-0.33
-0.07
-0.06
-0.30
-0.85
-1.69
-2.79
-4.09
-5.56
-7.20
-8.97
-10.82
-12.60
-14.18
-15.45
-16.40
-17.12
-17.70
-18.24
-18.74
-19.13
-19.30
-19.14
-18.61
-17.80
-16.88
-16.14
-15.78
-15.90
-16.40
-17.01
-17.39
-17.27
-16.45
-14.87
-12.55
-9.60
-6.19
-2.58
0.93
4.11
6.86
9.19
11.23
13.11
14.91
16.64
18.25
19.67
20.80
21.56
21.85
21.66
21.01
20.02
18.86
17.72
16.75
16.04
15.56
15.19
14.72
13.89
12.49
10.40
7.72
4.66
1.57
-1.27
-3.67
-5.70
-7.59
-9.67
-12.22
-15.41
-19.19
-23.31
-27.42
-31.09
-33.93
-35.66
-36.19
-35.67
-34.45
-32.94
-31.51
-30.30
-29.19
-27.96
-26.37
-24.39
-22.16
-19.88
-17.73
-15.71
-13.71
-11.63
-9.42
-7.20
-5.22
-3.68
-2.62
-1.89
-1.17
-0.14
1.39
3.35
5.49
7.48
9.06
10.19
10.96
11.51
11.90
12.10
11.98
11.52
10.73
9.75
8.71
7.66
6.57
5.40
4.19
3.07
2.25
1.89
2.01
2.42
2.83
3.01
2.90
2.63
2.48
2.69
3.35
4.25
4.99
5.11
4.30
2.52
0.01
-2.78
-5.39
-7.49
-8.90
-9.61
-9.70
-9.26
-8.38
-7.23
-6.01
-5.03
-4.53
-4.67
-5.37
-6.40
-7.47
-8.39
-9.14
-9.88
-10.86
-12.25
-14.06
-16.14
-18.28
-20.26
-21.92
-23.14
-23.78
-23.72
-22.92
-21.47
-19.59
-17.58
-15.69
-14.02
-12.56
-11.21
-9.90
-8.62
-7.45
-6.53
-5.91
-5.59
-5.51
-5.51
-5.45
-5.21
-4.70
-3.92
-2.89
-1.69
-0.39
0.94
2.22
3.32
4.15
4.66
4.90
4.99
5.11
5.35
5.66
5.90
5.89
5.62
5.25
5.13
5.65
7.07
9.44
12.61
16.31
20.21
24.07
27.65
30.75
33.20
34.89
35.79
35.97
35.56
34.64
33.29
31.55
29.49
27.23
24.90
22.55
20.16
17.63
14.91
12.07
9.22
6.49
3.91
1.37
-1.30
-4.20
-7.36
-10.70
-14.07
-17.39
-20.65
-23.86
-27.04
-30.17
-33.14
-35.73
-37.71
-38.80
-38.76
-37.47
-34.91
-31.23
-26.71
-21.67
-16.43
-11.26
-6.35
-1.79
2.34
6.03
9.26
12.04
14.35
16.22
17.70
18.87
19.83
20.66
21.37
21.97
22.41
22.71
22.91
23.09
23.32
23.58
23.74
23.59
22.97
21.82
20.29
18.62
17.06
15.73
14.58
13.50
12.33
10.98
9.43
7.67
5.68
3.46
1.07
-1.29
-3.27
-4.44
-4.41
-3.03
-0.41
3.07
6.89
10.56
13.75
16.40
18.60
20.48
22.08
23.33
24.11
24.37
24.20
23.78
23.30
22.87
22.52
22.31
22.34
22.78
23.74
25.18
26.82
28.18
28.71
28.02
26.11
23.34
20.39
18.05
16.93
17.19
18.45
19.90
20.59
19.80
17.40
13.81
9.88
6.50
4.21
3.09
2.82
2.91
2.93
2.64
2.07
1.44
1.07
1.21
1.79
2.16
1.09
-3.02
-11.53
-24.83
-41.85
-60.10
-76.39
-87.97
-93.51
-93.58
-90.26
-86.09
-82.85
-80.57
-77.51
-70.81
-57.78
-37.11
-9.61
21.97
53.65
81.34
101.75
112.97
114.81
108.60
96.79
82.18
67.10
52.75
39.08
25.20
10.12
-6.45
-23.87
-40.89
-56.20
-69.07
-79.46
-87.70
-93.77
-96.82
-94.99
-85.96
-68.12
-41.60
-8.90
25.56
56.82
81.16
97.15
105.45
107.49
103.99
94.41
77.81
54.43
27.00
0.46
-19.88
-30.79
-32.75
-29.74
-27.26
-29.74
-38.64
-52.27
-66.96
-78.95
-85.85
-87.11
-83.62
-76.97
-68.71
-59.84
-50.60
-40.55
-28.85
-14.73
2.01
20.48
38.78
54.45
65.37
70.57
70.64
67.35
62.91
59.03
56.35
54.55
52.76
50.17
46.36
41.27
34.89
27.06
17.50
6.18
-6.39
-19.06
-30.42
-39.33
-45.33
-48.61
-49.68
-48.97
-46.57
-42.35
-36.33
-28.80
-20.26
-11.07
-1.22
9.68
22.07
35.90
50.41
64.25
75.97
84.77
90.87
95.52
100.56
107.81
118.42
132.51
148.90
165.14
177.92
183.93
181.03
169.26
151.03
130.34
111.16
95.84
84.38
74.95
65.23
53.76
40.47
26.28
12.15
-1.54
-15.07
-28.81
-42.85
-56.87
-70.44
-83.38
-95.71
-107.38
-117.92
-126.35
-131.52
-132.67
-129.86
-123.98
-116.40
-108.43
-100.99
-94.49
-89.01
-84.51
-80.90
-78.04
-75.66
-73.33
-70.59
-67.16
-63.14
-58.96
-55.29
-52.71
-51.46
-51.36
-51.91
-52.47
-52.56
-51.98
-50.81
-49.29
-47.57
-45.67
-43.38
-40.42
-36.56
-31.79
-26.30
-20.51
-14.95
-10.08
-6.32
-3.85
-2.71
-2.75
-3.63
-4.92
-6.12
-6.85
-6.93
-6.42
-5.63
-4.93
-4.67
-5.04
-6.08
-7.69
-9.72
-11.95
-14.12
-16.01
-17.42
-18.32
-18.83
-19.26
-19.94
-21.09
-22.77
-24.87
-27.22
-29.68
-32.17
-34.65
-37.05
-39.22
-40.95
-42.05
-42.39
-41.94
-40.81
-39.16
-37.17
-34.92
-32.43
-29.71
-26.77
-23.70
-20.61
-17.48
-14.10
-10.10
-5.05
1.21
8.43
15.94
22.93
28.73
33.11
36.29
38.65
40.47
41.68
41.94
40.88
38.37
34.66
30.29
25.82
21.65
17.80
14.07
10.14
5.79
1.03
-3.94
-8.79
-13.13
-16.57
-18.79
-19.47
-18.42
-15.63
-11.30
-5.91
-0.10
5.48
10.33
14.25
17.27
19.58
21.40
22.83
23.87
24.43
24.44
23.88
22.79
21.31
19.65
18.04
16.68
15.69
15.09
14.75
14.48
14.07
13.38
12.35
10.99
9.33
7.36
5.12
2.62
-0.05
-2.82
-5.66
-8.63
-11.91
-15.64
-19.80
-24.00
-27.55
-29.58
-29.34
-26.54
-21.43
-14.75
-7.45
-0.42
5.75
10.83
14.91
18.20
20.90
23.12
24.82
25.93
26.40
26.22
25.50
24.39
23.06
21.60
20.06
18.45
16.78
15.08
13.38
11.66
9.88
7.96
5.93
3.92
2.19
1.03
0.63
0.96
1.75
2.54
2.79
2.04
0.01
-3.30
-7.54
-12.06
-15.96
-18.28
-18.27
-15.57
-10.35
-3.24
4.91
13.33
21.51
29.22
36.38
42.88
48.47
52.82
55.68
57.00
56.96
55.83
53.85
51.13
47.64
43.35
38.39
33.04
27.72
22.83
18.58
15.00
11.94
9.23
6.74
4.46
2.44
0.70
-0.84
-2.34
-4.03
-6.06
-8.44
-11.02
-13.55
-15.75
-17.37
-18.24
-18.24
-17.32
-15.47
-12.85
-9.68
-6.29
-2.98
0.10
2.96
5.73
8.55
11.48
14.48
17.39
20.07
22.39
24.28
25.75
26.77
27.34
27.44
27.09
26.35
25.32
24.16
22.99
21.92
20.95
20.00
18.89
17.36
15.21
12.36
8.90
5.12
1.36
-2.07
-5.03
-7.60
-9.99
-12.43
-14.99
-17.52
-19.71
-21.12
-21.45
-20.58
-18.67
-16.11
-13.34
-10.73
-8.48
-6.65
-5.25
-4.32
-3.91
-4.02
-4.52
-5.15
-5.57
-5.53
-4.98
-4.04
-2.99
-2.06
-1.36
-0.85
-0.43
0.00
0.44
0.80
0.97
0.91
0.71
0.54
0.54
0.72
0.96
1.02
0.79
0.31
-0.26
-0.75
-1.19
-1.76
-2.66
-3.88
-5.14
-5.90
-5.78
-4.73
-3.13
-1.58
-0.60
-0.35
-0.60
-0.96
-1.14
-1.07
-0.88
-0.76
-0.78
-0.91
-1.05
-1.13
-1.19
-1.34
-1.61
-1.97
-2.28
-2.39
-2.21
-1.77
-1.15
-0.51
0.07
0.48
0.71
0.76
0.66
0.45
0.17
-0.20
-0.69
-1.30
-2.01
-2.71
-3.23
-3.32
-2.75
-1.37
0.85
3.74
6.96
10.08
12.69
14.48
15.41
15.61
15.30
14.69
13.89
12.89
11.70
10.38
9.10
8.04
7.30
6.80
6.33
5.67
4.69
3.43
2.10
0.96
0.16
-0.31
-0.63
-1.00
-1.59
-2.43
-3.45
-4.52
-5.60
-6.66
-7.71
-8.73
-9.60
-10.17
-10.26
-9.77
-8.77
-7.44
-6.06
-4.84
-3.89
-3.16
-2.51
-1.84
-1.18
-0.66
-0.49
-0.73
-1.27
-1.82
-2.14
-2.07
-1.71
-1.34
-1.28
-1.72
-2.72
-4.16
-5.83
-7.46
-8.82
-9.74
-10.19
-10.31
-10.34
-10.55
-11.09
-11.91
-12.77
-13.35
-13.35
-12.64
-11.28
-9.53
-7.72
-6.21
-5.30
-5.11
-5.58
-6.43
-7.25
-7.69
-7.57
-6.96
-6.18
-5.62
-5.67
-6.49
-7.93
-9.63
-11.12
-12.04
-12.20
-11.67
-10.68
-9.52
-8.42
-7.53
-6.91
-6.60
-6.66
-7.11
-7.84
-8.63
-9.19
-9.29
-8.88
-8.05
-6.99
-5.79
-4.48
-2.97
-1.20
0.77
2.82
4.77
6.52
8.08
9.47
10.69
11.68
12.37
12.74
12.88
13.00
13.32
13.99
15.00
16.19
17.28
18.01
18.18
17.74
16.82
15.66
14.46
13.32
12.12
10.56
8.26
4.95
0.66
-4.13
-8.43
-10.86
-9.97
-4.68
5.19
18.64
33.54
47.08
56.52
59.82
56.09
45.59
29.56
9.79
-11.62
-32.58
-51.22
-66.15
-76.61
-82.57
-84.61
-83.66
-80.75
-76.69
-72.03
-67.11
-62.13
-57.25
-52.60
-48.28
-44.34
-40.81
-37.71
-35.03
-32.76
-30.84
-29.18
-27.68
-26.32
-25.13
-24.22
-23.68
-23.52
-23.53
-23.43
-22.86
-21.56
-19.49
-16.73
-13.53
-10.13
-6.72
-3.38
-0.13
3.10
6.32
9.50
12.52
15.14
17.10
18.20
18.35
17.61
16.20
14.47
12.83
11.68
11.32
11.77
12.85
14.15
15.27
15.93
16.09
15.94
15.79
15.90
16.33
17.02
17.70
18.06
17.87
16.99
15.53
13.73
11.89
10.26
8.93
7.82
6.77
5.58
4.19
2.68
1.26
0.19
-0.35
-0.33
0.06
0.53
0.79
0.71
0.39
0.14
0.31
1.12
2.51
4.24
5.99
7.52
8.71
9.59
10.20
10.55
10.68
10.62
10.41
10.19
10.05
10.05
10.19
10.37
10.43
10.21
9.55
8.36
6.62
4.44
2.03
-0.35
-2.44
-4.05
-5.12
-5.64
-5.65
-5.22
-4.43
-3.38
-2.17
-0.82
0.68
2.41
4.41
6.63
8.89
10.89
12.37
13.18
13.35
13.03
12.43
11.62
10.60
9.29
7.68
5.86
4.05
2.50
1.40
0.77
0.50
0.36
0.05
-0.69
-2.04
-4.01
-6.40
-8.85
-10.91
-12.17
-12.38
-11.49
-9.60
-6.87
-3.41
0.67
5.25
10.02
14.51
18.22
20.70
21.82
21.71
20.78
19.44
18.04
16.69
15.36
13.94
12.33
10.56
8.77
7.14
5.84
4.98
4.52
4.29
4.06
3.54
2.54
0.98
-0.99
-3.08
-4.87
-5.95
-6.03
-4.97
-2.86
0.07
3.46
6.99
10.35
13.35
15.85
17.73
18.95
19.46
19.31
18.59
17.39
15.88
14.20
12.52
11.04
9.92
9.29
9.08
9.15
9.19
8.89
7.98
6.29
3.77
0.59
-2.89
-6.14
-8.58
-9.77
-9.55
-8.18
-6.20
-4.32
-3.09
-2.73
-3.08
-3.65
-3.87
-3.26
-1.63
0.84
3.71
6.39
8.40
9.46
9.55
8.79
7.40
5.59
3.54
1.40
-0.70
-2.69
-4.59
-6.46
-8.38
-10.41
-12.54
-14.70
-16.79
-18.72
-20.42
-21.87
-23.01
-23.82
-24.28
-24.33
-23.89
-22.87
-21.18
-18.80
-15.77
-12.28
-8.55
-4.88
-1.51
1.35
3.54
4.99
5.69
5.76
5.40
4.82
4.25
3.78
3.38
2.96
2.42
1.74
0.98
0.25
-0.34
-0.74
-0.96
-1.06
-1.13
-1.24
-1.50
-1.96
-2.66
-3.57
-4.58
-5.49
-6.08
-6.13
-5.47
-4.03
-1.81
1.13
4.66
8.58
12.63
16.52
19.96
22.77
24.88
26.34
27.31
27.96
28.44
28.78
28.96
28.86
28.40
27.54
26.33
24.87
23.32
21.79
20.35
19.02
17.78
16.59
15.40
14.13
12.73
11.15
9.40
7.50
5.49
3.41
1.26
-0.97
-3.28
-5.62
-7.93
-10.07
-11.90
-13.24
-13.98
-14.06
-13.49
-12.40
-10.96
-9.33
-7.63
-5.92
-4.21
-2.55
-1.06
0.12
0.85
1.09
0.92
0.49
-0.03
-0.49
-0.91
-1.36
-1.92
-2.63
-3.41
-4.08
-4.49
-4.58
-4.46
-4.31
-4.35
-4.72
-5.40
-6.27
-7.15
-7.90
-8.48
-8.91
-9.29
-9.67
-10.09
-10.51
-10.87
-11.17
-11.43
-11.72
-12.02
-12.24
-12.16
-11.56
-10.27
-8.35
-6.05
-3.73
-1.68
-0.02
1.37
2.73
4.25
5.96
7.69
9.19
10.23
10.69
10.61
10.09
9.23
8.11
6.81
5.43
4.12
3.06
2.32
1.85
1.48
1.01
0.26
-0.77
-2.01
-3.32
-4.57
-5.72
-6.81
-7.88
-8.96
-10.05
-11.09
-12.07
-12.97
-13.81
-14.55
-15.10
-15.30
-15.01
-14.17
-12.86
-11.29
-9.72
-8.38
-7.39
-6.70
-6.16
-5.61
-4.92
-4.07
-3.12
-2.16
-1.30
-0.57
-0.01
0.37
0.55
0.48
0.16
-0.41
-1.14
-1.90
-2.55
-2.98
-3.15
-3.10
-2.95
-2.78
-2.68
-2.70
-2.89
-3.32
-4.07
-5.16
-6.53
-7.98
-9.30
-10.29
-10.93
-11.32
-11.62
-11.93
-12.19
-12.25
-11.93
-11.13
-9.89
-8.37
-6.71
-5.05
-3.44
-1.91
-0.52
0.67
1.62
2.35
2.89
3.30
3.57
3.69
3.64
3.46
3.20
2.93
2.61
2.15
1.44
0.42
-0.86
-2.32
-3.86
-5.46
-7.15
-8.97
-10.89
-12.78
-14.56
-16.16
-17.66
-19.19
-20.83
-22.56
-24.19
-25.45
-26.07
-25.93
-25.02
-23.48
-21.49
-19.21
-16.72
-14.05
-11.22
-8.29
-5.43
-2.88
-0.88
0.44
1.11
1.34
1.40
1.51
1.79
2.19
2.62
3.00
3.25
3.38
3.35
3.15
2.76
2.13
1.27
0.21
-1.04
-2.44
-3.97
-5.54
-7.03
-8.27
-9.04
-9.21
-8.67
-7.45
-5.65
-3.50
-1.22
1.01
3.11
5.07
6.98
8.79
10.40
11.56
12.06
11.78
10.78
9.23
7.45
5.70
4.21
3.10
2.32
1.71
1.05
0.08
-1.32
-3.08
-4.96
-6.66
-7.88
-8.56
-8.79
-8.84
-9.00
-9.48
-10.36
-11.55
-12.85
-13.96
-14.58
-14.41
-13.26
-11.10
-8.02
-4.25
-0.07
4.20
8.27
11.93
15.02
17.49
19.38
20.80
21.90
22.80
23.57
24.19
24.61
24.76
24.64
24.28
23.79
23.24
22.72
22.26
21.84
21.41
20.85
19.99
18.70
16.91
14.67
12.13
9.49
6.86
4.31
1.82
-0.60
-2.91
-5.07
-7.12
-9.15
-11.34
-13.77
-16.27
-18.39
-19.55
-19.24
-17.25
-13.73
-9.17
-4.19
0.67
5.03
8.69
11.62
13.86
15.46
16.49
17.01
17.03
16.60
15.73
14.47
12.87
11.00
8.96
6.88
4.92
3.29
2.18
1.65
1.60
1.70
1.54
0.74
-0.89
-3.28
-6.16
-9.19
-12.11
-14.79
-17.21
-19.42
-21.38
-22.93
-23.81
-23.73
-22.48
-19.99
-16.43
-12.13
-7.58
-3.21
0.68
3.92
6.48
8.39
9.67
10.28
10.22
9.61
8.67
7.73
7.06
6.79
6.86
7.02
7.01
6.65
5.92
4.96
4.00
3.23
2.69
2.32
1.94
1.38
0.55
-0.57
-1.96
-3.58
-5.36
-7.15
-8.68
-9.53
-9.25
-7.52
-4.35
-0.05
4.83
9.67
14.03
17.75
20.84
23.43
25.60
27.29
28.39
28.78
28.46
27.52
26.17
24.60
22.99
21.39
19.81
18.24
16.63
14.97
13.24
11.41
9.48
7.43
5.24
2.91
0.44
-2.19
-4.98
-7.94
-11.02
-14.11
-17.04
-19.57
-21.48
-22.53
-22.62
-21.74
-19.99
-17.56
-14.69
-11.55
-8.32
-5.14
-2.16
0.47
2.60
4.17
5.20
5.75
5.94
5.84
5.56
5.18
4.81
4.57
4.57
4.83
5.26
5.70
5.97
5.96
5.66
5.13
4.47
3.76
2.99
2.11
0.97
-0.53
-2.48
-4.89
-7.66
-10.58
-13.32
-15.45
-16.55
-16.30
-14.64
-11.77
-8.11
-4.21
-0.69
2.02
3.67
4.34
4.39
4.40
4.93
6.39
8.82
11.94
15.27
18.37
20.96
23.01
24.63
25.89
26.76
27.12
26.79
25.72
23.98
21.77
19.30
16.80
14.41
12.23
10.28
8.56
6.99
5.48
3.90
2.18
0.28
-1.73
-3.72
-5.53
-7.10
-8.46
-9.79
-11.26
-13.06
-15.21
-17.57
-19.86
-21.67
-22.66
-22.58
-21.39
-19.19
-16.22
-12.75
-9.03
-5.25
-1.55
1.97
5.18
7.98
10.27
11.99
13.15
13.81
14.11
14.13
13.97
13.63
13.07
12.20
11.03
9.64
8.21
6.96
6.07
5.56
5.34
5.14
4.71
3.83
2.38
0.39
-2.09
-4.95
-8.09
-11.38
-14.59
-17.42
-19.52
-20.57
-20.37
-18.92
-16.39
-13.08
-9.35
-5.49
-1.71
1.88
5.23
8.32
11.03
13.24
14.83
15.78
16.15
16.14
15.95
15.73
15.50
15.22
14.78
14.16
13.39
12.54
11.68
10.77
9.66
8.21
6.40
4.36
2.28
0.40
-1.20
-2.60
-4.05
-5.83
-8.14
-10.95
-14.05
-17.04
-19.45
-20.87
-21.04
-19.92
-17.70
-14.71
-11.32
-7.83
-4.43
-1.24
1.70
4.34
6.65
8.55
9.96
10.79
10.97
10.45
9.33
7.81
6.17
4.68
3.56
2.88
2.57
2.50
2.48
2.35
1.99
1.33
0.29
-1.12
-2.87
-4.81
-6.74
-8.43
-9.76
-10.69
-11.40
-12.15
-13.24
-14.88
-17.07
-19.56
-21.94
-23.74
-24.56
-24.22
-22.70
-20.24
-17.13
-13.73
-10.27
-6.92
-3.75
-0.77
2.01
4.54
6.74
8.52
9.79
10.53
10.81
10.76
10.53
10.23
9.93
9.65
9.45
9.37
9.45
9.69
10.04
10.36
10.56
10.54
10.30
9.86
9.27
8.53
7.65
6.60
5.38
3.92
2.18
0.06
-2.49
-5.40
-8.43
-11.16
-13.10
-13.83
-13.18
-11.32
-8.63
-5.65
-2.80
-0.31
1.81
3.68
5.39
6.92
8.16
8.99
9.34
9.26
8.88
8.41
8.02
7.81
7.77
7.86
7.96
7.99
7.89
7.66
7.30
6.81
6.12
5.16
3.83
2.10
0.01
-2.33
-4.72
-7.01
-9.11
-11.01
-12.83
-14.66
-16.53
-18.31
-19.74
-20.57
-20.62
-19.88
-18.48
-16.60
-14.37
-11.88
-9.21
-6.44
-3.72
-1.17
1.12
3.13
4.92
6.50
7.88
8.98
9.72
10.04
9.98
9.63
9.14
8.70
8.43
8.36
8.38
8.35
8.11
7.59
6.81
5.84
4.71
3.39
1.83
0.02
-1.96
-3.95
-5.80
-7.45
-9.00
-10.64
-12.50
-14.55
-16.54
-18.06
-18.70
-18.21
-16.53
-13.88
-10.62
-7.14
-3.78
-0.73
1.94
4.26
6.29
8.06
9.53
10.60
11.21
11.36
11.16
10.78
10.38
10.09
9.94
9.94
10.16
10.60
11.28
12.08
12.79
13.18
13.11
12.56
11.68
10.61
9.40
7.96
6.11
3.73
0.81
-2.50
-5.98
-9.42
-12.66
-15.58
-17.98
-19.60
-20.18
-19.59
-17.89
-15.43
-12.66
-10.03
-7.82
-6.14
-4.96
-4.21
-3.78
-3.62
-3.67
-3.89
-4.20
-4.57
-4.87
-5.00
-4.82
-4.28
-3.47
-2.63
-2.09
-2.15
-2.99
-4.55
-6.66
-9.05
-11.49
-13.78
-15.78
-17.32
-18.27
-18.51
-18.06
-17.14
-16.10
-15.28
-14.77
-14.26
-13.07
-10.49
-6.12
-0.12
6.71
13.30
18.67
22.27
24.12
24.56
24.13
23.25
22.24
21.34
20.76
20.72
21.29
22.31
23.38
23.85
23.13
20.85
17.11
12.48
7.79
3.83
1.09
-0.44
-1.14
-1.61
-2.36
-3.73
-5.75
-8.29
-11.04
-13.59
-15.49
-16.27
-15.64
-13.54
-10.21
-6.11
-1.76
2.35
5.93
8.84
11.02
12.46
13.14
13.08
12.39
11.25
9.89
8.48
7.10
5.75
4.32
2.77
1.08
-0.64
-2.25
-3.66
-4.85
-5.92
-7.06
-8.45
-10.27
-12.60
-15.43
-18.64
-21.96
-25.04
-27.42
-28.68
-28.52
-26.88
-23.96
-20.22
-16.17
-12.30
-8.87
-5.99
-3.57
-1.55
0.09
1.30
2.00
2.20
1.98
1.53
1.03
0.59
0.26
0.02
-0.20
-0.46
-0.77
-1.16
-1.62
-2.12
-2.65
-3.22
-3.91
-4.85
-6.17
-7.93
-10.04
-12.26
-14.24
-15.60
-16.05
-15.44
-13.79
-11.25
-8.10
-4.65
-1.17
2.13
5.14
7.80
10.07
11.88
13.15
13.87
14.05
13.84
13.34
12.65
11.81
10.80
9.65
8.38
7.09
5.82
4.60
3.40
2.19
0.92
-0.47
-2.07
-3.98
-6.25
-8.87
-11.68
-14.39
-16.66
-18.17
-18.69
-18.08
-16.34
-13.57
-9.94
-5.72
-1.24
3.22
7.37
11.02
13.99
16.14
17.36
17.64
17.09
15.97
14.65
13.45
12.58
12.03
11.61
11.11
10.37
9.38
8.25
7.13
6.10
5.11
4.04
2.69
0.94
-1.26
-3.86
-6.76
-9.80
-12.76
-15.31
-17.07
-17.66
-16.87
-14.74
-11.56
-7.74
-3.70
0.26
3.99
7.38
10.31
12.58
14.07
14.77
14.86
14.66
14.44
14.37
14.39
14.39
14.25
13.96
13.60
13.25
12.93
12.57
12.07
11.33
10.33
9.07
7.59
5.92
4.10
2.15
0.12
-1.95
-4.05
-6.20
-8.48
-10.93
-13.59
-16.38
-19.13
-21.50
-23.12
-23.58
-22.63
-20.27
-16.76
-12.59
-8.26
-4.18
-0.55
2.60
5.30
7.52
9.19
10.18
10.48
10.26
9.79
9.37
9.19
9.22
9.26
9.09
8.59
7.77
6.77
5.76
4.83
3.98
3.17
2.33
1.40
0.33
-0.91
-2.39
-4.14
-6.15
-8.37
-10.74
-13.23
-15.81
-18.37
-20.70
-22.43
-23.17
-22.64
-20.79
-17.84
-14.17
-10.20
-6.22
-2.37
1.25
4.52
7.30
9.45
10.90
11.74
12.15
12.33
12.41
12.44
12.38
12.22
11.95
11.65
11.34
11.02
10.59
9.92
8.93
7.60
6.02
4.32
2.57
0.80
-1.03
-2.94
-4.96
-7.07
-9.29
-11.66
-14.18
-16.74
-19.06
-20.74
-21.34
-20.59
-18.46
-15.21
-11.25
-7.06
-3.02
0.65
3.85
6.56
8.79
10.53
11.70
12.30
12.32
11.84
10.98
9.95
8.91
8.04
7.46
7.24
7.39
7.78
8.19
8.32
7.97
7.01
5.57
3.84
2.07
0.41
-1.13
-2.66
-4.39
-6.45
-8.91
-11.63
-14.33
-16.60
-18.00
-18.14
-16.85
-14.19
-10.49
-6.21
-1.79
2.42
6.24
9.60
12.45
14.76
16.47
17.51
17.92
17.80
17.28
16.52
15.61
14.60
13.51
12.35
11.19
10.08
9.05
8.07
7.09
6.05
4.89
3.57
2.10
0.47
-1.27
-3.10
-4.97
-6.91
-8.96
-11.24
-13.80
-16.56
-19.24
-21.43
-22.66
-22.58
-21.06
-18.20
-14.23
-9.50
-4.40
0.68
5.34
9.19
11.99
13.67
14.38
14.45
14.22
13.95
13.73
13.57
13.41
13.21
12.99
12.72
12.40
11.98
11.46
10.84
10.12
9.25
8.14
6.70
4.87
2.71
0.35
-2.03
-4.31
-6.53
-8.80
-11.31
-14.12
-17.18
-20.17
-22.65
-24.08
-24.05
-22.38
-19.22
-14.98
-10.19
-5.33
-0.71
3.54
7.33
10.58
13.08
14.61
15.09
14.60
13.48
12.15
11.03
10.35
10.09
10.04
9.93
9.47
8.48
6.92
4.91
2.63
0.35
-1.74
-3.51
-4.97
-6.26
-7.55
-9.10
-11.12
-13.78
-17.11
-20.95
-24.88
-28.24
-30.29
-30.45
-28.47
-24.54
-19.23
-13.24
-7.25
-1.69
3.25
7.54
11.26
14.49
17.24
19.46
21.11
22.18
22.66
22.64
22.20
21.43
20.35
18.97
17.32
15.46
13.48
11.48
9.51
7.57
5.65
3.77
2.05
0.61
-0.50
-1.41
-2.45
-4.10
-6.77
-10.65
-15.50
-20.73
-25.44
-28.76
-29.97
-28.81
-25.47
-20.55
-14.82
-9.05
-3.82
0.61
4.21
7.07
9.31
11.02
12.23
13.00
13.45
13.72
13.98
14.37
14.98
15.86
16.95
18.16
19.27
20.03
20.19
19.61
18.30
16.46
14.29
11.98
9.56
6.94
4.00
0.61
-3.24
-7.51
-11.99
-16.41
-20.36
-23.35
-24.91
-24.79
-23.00
-19.92
-16.12
-12.23
-8.76
-5.96
-3.89
-2.47
-1.60
-1.17
-1.06
-1.14
-1.23
-1.16
-0.76
0.03
1.16
2.54
4.03
5.53
6.94
8.21
9.25
9.98
10.33
10.29
9.95
9.49
9.06
8.71
8.27
7.44
5.90
3.43
0.08
-3.78
-7.56
-10.55
-12.16
-12.05
-10.27
-7.23
-3.57
0.03
3.09
5.44
7.19
8.52
9.55
