1651144494.00
64.000000
-0.00
-0.00
-0.00
-0.00
-0.00
-0.00
-0.00
-0.00
-0.00
-0.00
0.00
0.01
0.01
-0.00
-0.03
-0.05
-0.05
0.00
0.13
0.36
0.66
1.01
1.37
1.72
2.06
2.40
2.79
3.24
3.80
4.42
5.06
5.66
6.20
6.68
7.15
7.68
8.31
9.14
10.09
11.04
11.88
12.56
13.14
13.76
14.65
15.96
17.91
20.32
22.90
25.38
27.58
29.57
31.68
34.32
37.81
42.54
48.15
54.10
59.83
64.97
69.58
74.14
79.34
85.71
93.76
103.00
112.62
121.73
129.77
136.75
143.30
150.75
157.77
166.64
177.95
191.79
206.97
220.57
228.25
225.36
208.53
176.87
132.76
80.05
23.07
-34.94
-92.44
-149.16
-205.23
-260.37
-313.74
-363.87
-409.83
-450.91
-486.50
-515.74
-537.23
-549.22
-549.96
-538.37
-514.21
-478.67
-433.88
-382.45
-327.02
-269.84
-212.63
-156.66
-102.95
-52.37
-5.90
35.58
71.43
101.35
125.50
144.38
158.69
169.15
176.37
180.75
182.57
182.07
179.51
175.23
169.65
163.18
156.15
148.81
141.30
133.69
126.02
118.33
110.69
103.16
95.80
88.68
81.83
75.25
68.95
62.95
57.25
51.86
46.78
42.03
37.59
33.45
29.61
26.07
22.81
19.83
17.11
14.67
12.48
10.54
8.83
7.35
6.07
4.97
4.05
3.27
2.62
2.09
1.65
1.30
1.01
0.79
0.61
0.47
0.37
0.29
0.23
0.19
0.17
0.16
0.16
0.17
0.19
0.22
0.25
0.28
0.32
0.36
0.41
0.45
0.50
0.55
0.60
0.65
0.71
0.77
0.83
0.90
0.98
1.07
1.16
1.27
1.39
1.52
1.67
1.83
2.01
2.22
2.45
2.72
3.02
3.34
3.67
4.00
4.33
4.66
5.03
5.45
5.95
6.53
7.17
7.85
8.52
9.20
9.89
10.61
11.42
12.33
13.36
14.45
15.57
16.65
17.67
18.63
19.59
20.55
21.49
22.28
22.70
22.48
21.37
19.27
16.21
12.41
8.18
3.73
-0.77
-5.33
-10.05
-15.01
-20.10
-25.02
-29.31
-32.48
-34.29
-34.84
-34.61
-34.25
-34.37
-35.20
-36.57
-37.92
-38.69
-38.49
-37.38
-35.80
-34.40
-33.76
-34.27
-36.16
-39.41
-43.54
-47.40
-49.12
-46.65
-38.62
-25.18
-8.35
8.68
22.76
32.05
36.64
38.12
38.49
39.08
40.09
40.90
40.77
39.54
37.70
36.03
35.15
35.13
35.66
36.20
36.40
36.20
35.81
35.59
35.84
36.74
38.26
40.26
42.51
44.76
46.80
48.47
49.62
50.11
49.92
48.96
47.26
45.08
43.04
41.98
42.66
45.37
49.75
54.96
59.94
63.84
66.25
67.01
65.89
62.24
54.96
42.84
25.25
2.76
-22.49
-47.14
-67.39
-80.18
-84.06
-79.58
-68.99
-55.30
-41.37
-29.12
-19.24
-11.44
-4.87
1.19
6.80
11.11
12.49
9.02
-0.71
-16.95
-38.52
-63.02
-87.44
-108.95
-125.32
-135.16
-137.98
-134.19
-125.22
-113.51
-102.20
-94.44
-92.58
-97.43
-107.86
-121.19
-133.83
-142.22
-143.45
-135.65
-118.20
-91.83
-58.66
-22.06
13.82
44.83
67.60
80.16
82.15
74.72
60.23
41.81
22.92
6.82
-3.85
-7.48
-3.76
6.20
19.94
34.14
45.20
50.17
47.60
38.14
24.44
10.09
-1.80
-9.74
-14.21
-16.71
-18.43
-19.11
-17.10
-10.67
0.52
14.86
29.44
41.66
50.51
56.63
61.11
64.21
64.80
61.20
52.74
40.89
28.80
19.77
15.42
14.75
14.89
12.55
5.65
-6.18
-21.98
-40.20
-58.85
-75.36
-86.40
-88.27
-78.23
-56.09
-25.49
6.21
29.83
37.74
27.23
2.39
-26.82
-48.07
-51.28
-32.51
4.75
51.44
96.88
132.80
155.84
167.33
171.18
171.36
170.15
168.12
164.84
159.59
151.49
139.20
120.97
95.23
61.85
23.04
-16.46
-50.51
-73.41
-81.83
-75.88
-59.21
-37.94
-18.78
-7.04
-5.09
-12.14
-25.35
-41.55
-58.89
-77.23
-97.21
-118.62
-139.18
-154.80
-161.21
-156.21
-140.92
-119.55
-97.64
-79.92
-68.82
-64.29
-64.59
-67.56
-71.63
-75.99
-80.30
-84.10
-86.52
-86.47
-83.17
-76.62
-67.70
-57.74
-47.91
-38.76
-29.99
-20.79
-10.38
1.40
13.86
25.55
34.77
40.34
42.09
40.95
38.67
37.15
37.76
40.97
46.31
52.64
58.58
63.01
65.30
65.49
64.13
61.96
59.51
57.01
54.35
51.35
47.97
44.42
40.99
37.94
35.34
33.07
30.98
28.93
26.84
24.71
22.59
20.55
18.74
17.25
16.16
15.43
14.91
14.43
13.80
12.86
11.48
9.60
7.25
4.64
2.21
0.55
0.25
1.67
4.80
9.21
14.21
19.07
23.25
26.51
28.88
30.45
31.23
31.12
29.99
27.96
25.43
23.06
21.40
20.63
20.37
19.89
18.51
15.96
12.54
8.89
5.70
3.37
1.93
1.12
0.61
0.13
-0.56
-1.65
-3.28
-5.50
-8.26
-11.33
-14.43
-17.26
-19.45
-20.58
-20.15
-17.72
-13.09
-6.51
1.23
9.05
15.89
21.05
24.28
25.74
25.79
24.81
23.13
21.08
19.00
17.17
15.85
15.13
14.99
15.36
16.07
16.95
17.73
18.10
17.80
16.76
15.17
13.41
11.87
10.66
9.54
8.08
5.83
2.54
-1.75
-6.78
-12.17
-17.48
-22.19
-25.66
-27.23
-26.39
-23.07
-17.71
-11.14
-4.34
1.90
7.18
11.47
14.94
17.76
19.92
21.23
21.43
20.29
17.85
14.40
10.42
6.43
2.80
-0.35
-3.11
-5.61
-7.91
-9.92
-11.48
-12.52
-13.10
-13.46
-13.85
-14.42
-15.12
-15.74
-16.09
-16.15
-16.17
-16.60
-17.86
-20.14
-23.20
-26.34
-28.59
-29.01
-26.99
-22.50
-16.08
-8.67
-1.30
5.20
10.40
14.29
17.13
19.22
20.75
21.80
22.35
22.45
22.31
22.23
22.53
23.34
24.51
25.60
26.17
25.94
24.98
23.77
22.99
23.14
24.32
26.08
27.60
28.08
27.12
24.96
22.42
20.50
19.93
20.77
22.36
23.60
23.53
21.85
19.21
17.13
17.53
21.94
30.90
43.57
57.65
69.90
76.62
74.34
60.50
34.36
-2.26
-44.75
-86.65
-121.49
-144.80
-155.09
-153.42
-141.65
-121.01
-91.72
-54.44
-11.89
30.15
64.13
83.20
83.99
67.69
39.00
4.17
-31.05
-62.09
-85.48
-98.93
-102.25
-98.28
-92.61
-91.61
-99.32
-115.08
-133.72
-148.60
-155.59
-155.71
-154.44
-158.35
-171.19
-191.91
-215.69
-236.94
-252.09
-260.58
-263.53
-261.81
-254.94
-241.49
-220.50
-192.75
-160.82
-127.99
-96.79
-67.90
-40.14
-11.43
19.62
52.60
85.05
113.25
134.11
146.72
153.10
157.39
163.86
174.82
189.56
204.90
216.84
222.39
220.66
212.64
200.18
185.05
168.40
150.77
132.33
113.01
92.69
71.33
49.28
27.57
7.77
-8.46
-20.05
-27.04
-30.51
-31.99
-32.78
-33.62
-34.73
-36.28
-38.71
-42.60
-48.18
-54.91
-61.42
-66.09
-67.80
-66.57
-63.61
-60.88
-60.14
-62.31
-67.11
-73.25
-78.93
-82.44
-82.65
-79.25
-72.79
-64.48
-55.74
-47.78
-41.22
-36.09
-32.03
-28.70
-25.90
-23.60
-21.71
-19.85
-17.45
-13.99
-9.25
-3.31
3.57
11.21
19.64
28.85
38.56
48.14
56.78
63.96
69.83
75.18
81.22
89.07
99.47
112.71
128.68
147.00
166.82
186.62
204.23
217.21
223.52
222.37
214.55
202.19
187.84
173.46
159.80
146.35
132.05
116.09
98.46
79.98
61.90
45.42
31.24
19.59
10.32
3.10
-2.53
-7.05
-10.93
-14.46
-17.53
-19.72
-20.46
-19.36
-16.52
-12.56
-8.47
-5.21
-3.42
-3.15
-3.94
-4.96
-5.32
-4.33
-1.75
2.24
7.00
11.60
14.98
16.13
14.30
9.29
1.61
-7.52
-16.47
-23.70
-28.36
-30.55
-31.22
-31.67
-32.90
-35.26
-38.45
-41.85
-45.00
-47.69
-49.89
-51.53
-52.34
-51.96
-50.08
-46.61
-41.59
-35.07
-27.18
-18.18
-8.66
0.40
7.90
13.02
15.58
16.02
15.12
13.48
11.19
7.96
3.43
-2.38
-8.88
-15.14
-20.31
-24.10
-26.83
-29.35
-32.50
-36.84
-42.32
-48.27
-53.30
-55.50
-52.92
-44.29
-29.76
-11.18
8.23
24.90
36.07
40.59
39.00
32.90
24.08
13.98
3.72
-5.59
-12.50
-15.56
-13.77
-7.18
2.91
14.33
24.76
32.56
37.13
38.96
39.15
38.74
38.22
37.35
35.37
31.57
25.64
18.01
9.60
1.31
-6.36
-13.50
-20.49
-27.53
-34.36
-40.34
-44.78
-47.33
-48.16
-47.69
-46.24
-43.80
-40.11
-34.99
-28.75
-22.17
-16.30
-12.00
-9.72
-9.35
-10.50
-12.68
-15.35
-17.97
-19.81
-20.14
-18.39
-14.40
-8.58
-1.81
4.86
10.58
14.88
17.74
19.35
19.96
19.79
19.06
18.06
17.24
17.10
17.94
19.72
22.00
24.13
25.51
25.87
25.35
24.35
23.36
22.66
22.33
22.21
22.11
21.78
20.95
19.28
16.38
12.03
6.28
-0.42
-7.37
-13.89
-19.47
-23.90
-27.11
-29.07
-29.70
-28.94
-26.89
-23.87
-20.40
-16.97
-13.91
-11.31
-9.06
-7.05
-5.26
-3.73
-2.52
-1.63
-0.90
-0.18
0.56
1.21
1.56
1.40
0.69
-0.33
-1.24
-1.59
-1.18
-0.17
0.90
1.35
0.67
-1.34
-4.41
-8.02
-11.57
-14.66
-17.14
-19.17
-21.10
-23.28
-25.88
-28.78
-31.53
-33.51
-34.05
-32.80
-29.81
-25.60
-20.99
-17.01
-14.59
-14.43
-16.59
-20.16
-23.23
-23.25
-17.83
-5.77
12.37
34.33
56.87
76.86
92.07
101.43
104.91
103.08
96.86
87.44
76.31
65.04
55.04
47.09
41.25
36.97
33.41
29.81
25.70
20.79
15.04
8.52
1.40
-6.08
-13.55
-20.58
-26.75
-31.64
-35.06
-36.95
-37.46
-36.76
-35.03
-32.39
-28.96
-24.90
-20.43
-15.93
-11.80
-8.48
-6.32
-5.42
-5.65
-6.64
-7.90
-8.98
-9.54
-9.50
-8.98
-8.20
-7.38
-6.64
-6.00
-5.48
-5.10
-4.98
-5.18
-5.74
-6.60
-7.59
-8.58
-9.36
-9.83
-9.91
-9.61
-9.02
-8.29
-7.61
-7.14
-7.05
-7.41
-8.23
-9.44
-10.85
-12.16
-12.98
-12.96
-11.89
-9.86
-7.17
-4.18
-1.11
2.06
5.45
9.01
12.41
15.04
16.40
16.47
15.74
15.03
14.90
15.31
15.61
15.03
13.19
10.48
7.87
6.32
6.26
7.37
8.83
9.86
10.09
9.67
8.97
8.31
7.76
7.24
6.69
6.12
5.56
4.92
3.85
1.88
-1.43
-6.18
-12.01
-18.09
-23.42
-27.21
-29.12
-29.41
-28.65
-27.37
-25.75
-23.65
-20.73
-16.90
-12.43
-7.89
-3.82
-0.36
2.75
6.03
9.87
14.35
19.18
23.94
28.27
32.02
35.22
38.04
40.66
43.21
45.65
47.74
49.10
49.30
48.10
45.49
41.74
37.16
32.03
26.51
20.77
15.13
10.09
6.21
3.92
3.25
3.77
4.63
4.83
3.71
1.18
-2.10
-5.06
-6.68
-6.57
-5.21
-3.76
-3.50
-5.17
-8.68
-13.20
-17.73
-21.61
-24.87
-28.01
-31.68
-36.20
-41.44
-46.95
-52.35
-57.57
-62.89
-68.83
-75.85
-84.03
-92.89
-101.38
-108.26
-112.28
-112.53
-108.48
-100.06
-87.69
-72.36
-55.57
-39.01
-24.41
-13.14
-5.81
-2.18
-1.56
-3.27
-7.12
-13.19
-20.85
-28.33
-32.34
-28.33
-11.75
19.74
64.49
116.12
164.90
200.95
216.37
207.60
176.87
131.64
81.92
37.04
2.37
-20.99
-34.49
-41.94
-47.78
-55.03
-64.21
-73.48
-79.22
-77.69
-64.66
-35.66
9.97
67.26
126.74
177.72
212.07
226.97
223.93
201.76
167.74
133.96
108.96
93.37
83.60
76.86
72.60
68.51
61.50
49.37
30.17
2.55
-33.46
-76.86
-127.45
-172.48
-203.93
-218.69
-218.61
-209.26
-196.30
-182.92
-169.52
-155.17
-138.96
-123.04
-109.95
-101.03
-96.31
-94.88
-95.10
-95.02
-93.06
-88.37
-82.72
-78.52
-77.89
-82.29
-91.74
-103.91
-113.93
-115.45
-103.02
-75.82
-37.85
3.21
39.03
63.78
76.19
79.36
78.51
78.47
81.38
87.56
96.20
106.12
115.64
122.24
122.59
113.75
94.85
68.00
38.23
11.96
-5.62
-12.53
-10.52
-4.16
1.41
2.40
-2.43
-11.98
-23.60
-34.40
-41.93
-44.53
-41.57
-33.43
-21.61
-8.64
2.60
10.08
13.14
12.64
10.28
7.64
5.59
4.39
4.33
5.13
7.67
13.18
22.54
35.50
50.49
64.97
76.18
81.88
80.91
73.63
61.66
47.41
33.46
21.80
13.25
7.36
2.92
-1.31
-6.00
-11.17
-16.52
-21.88
-27.37
-33.25
-39.56
-45.74
-50.70
-53.06
-51.92
-47.32
-40.29
-32.53
-25.77
-21.25
-19.37
-19.71
-21.16
-22.23
-21.39
-17.49
-10.16
-0.09
11.06
21.17
28.36
31.76
31.66
29.38
26.53
24.43
23.64
23.98
24.88
25.65
25.63
24.23
20.98
15.75
9.00
1.97
-3.71
-6.53
-5.83
-2.17
2.92
7.60
10.57
11.52
11.09
10.34
10.24
11.26
13.42
16.51
20.29
24.48
28.75
32.68
35.77
37.68
38.42
38.39
38.17
38.25
38.73
39.29
39.40
38.59
36.75
34.12
31.18
28.34
25.75
23.24
20.53
17.37
13.72
9.76
5.75
1.81
-2.16
-6.43
-11.29
-16.84
-22.91
-29.07
-34.89
-40.15
-44.96
-49.77
-55.22
-61.84
-69.76
-78.63
-87.56
-95.22
-100.15
-101.01
-96.99
-87.99
-74.79
-58.83
-41.93
-25.75
-11.51
0.30
9.89
17.95
25.36
32.85
40.74
48.81
56.44
62.90
67.67
70.72
72.40
73.29
73.79
73.93
73.37
71.71
68.69
64.35
58.94
52.71
45.75
38.08
29.82
21.31
13.07
5.62
-0.80
-6.27
-11.20
-16.05
-21.16
-26.66
-32.50
-38.54
-44.62
-50.55
-56.11
-61.04
-65.07
-68.02
-69.77
-70.19
-69.04
-65.91
-60.24
-51.58
-39.93
-25.88
-10.54
4.77
19.06
31.82
42.99
52.63
60.54
66.28
69.30
69.36
66.70
61.95
55.89
49.15
42.15
35.17
28.57
22.83
18.45
15.70
14.49
14.31
14.49
14.38
13.55
11.91
9.65
7.07
4.47
1.97
-0.44
-2.87
-5.38
-7.88
-10.05
-11.52
-11.91
-11.09
-9.17
-6.50
-3.56
-0.82
1.38
2.88
3.64
3.70
3.20
2.28
1.18
0.12
-0.67
-1.11
-1.26
-1.36
-1.67
-2.37
-3.43
-4.60
-5.58
-6.08
-5.99
-5.37
-4.48
-3.53
-2.75
-2.24
-2.03
-2.08
-2.35
-2.77
-3.20
-3.50
-3.54
-3.32
-2.94
-2.66
-2.72
-3.26
-4.22
-5.37
-6.30
-6.66
-6.12
-4.50
-1.71
2.19
7.02
12.44
17.93
22.96
27.06
30.01
31.89
33.08
34.06
35.24
36.84
38.80
40.92
42.98
44.94
46.97
49.46
52.77
57.16
62.58
68.73
75.06
80.96
85.88
89.44
91.54
92.33
92.16
91.44
90.33
88.51
84.89
77.62
64.44
43.36
13.41
-24.67
-68.24
-113.17
-154.82
-189.35
-214.64
-230.70
-239.30
-243.13
-244.83
-246.36
-248.59
-251.24
-253.03
-251.75
-244.80
-229.81
-205.54
-172.65
-133.92
-93.60
-56.29
-25.46
-2.67
12.43
21.44
26.21
28.25
28.45
27.45
25.95
24.80
24.85
26.56
29.85
34.07
38.29
41.67
43.68
44.17
43.27
41.10
37.70
32.84
26.26
17.88
8.14
-1.88
-10.71
-16.95
-19.76
-19.15
-15.86
-10.89
-5.03
1.39
8.51
16.57
25.59
35.19
44.62
53.04
59.83
64.82
68.29
70.91
73.34
76.02
78.86
81.30
82.56
81.96
79.28
74.80
69.17
63.13
57.26
51.87
46.96
42.45
38.25
34.36
30.81
27.60
24.69
21.95
19.26
16.53
13.71
10.76
7.71
4.54
1.24
-2.17
-5.62
-8.96
-11.97
-14.43
-16.30
-17.71
-18.99
-20.53
-22.64
-25.34
-28.34
-31.05
-32.76
-32.83
-30.91
-27.00
-21.42
-14.69
-7.36
0.11
7.33
13.96
19.56
23.69
25.98
26.34
25.01
22.60
19.82
17.31
15.37
14.01
12.95
11.79
10.18
7.92
5.14
2.23
-0.23
-1.68
-1.83
-0.84
0.81
2.51
3.78
4.36
4.23
3.47
2.14
0.35
-1.76
-3.91
-5.77
-7.07
-7.71
-7.75
-7.34
-6.59
-5.41
-3.70
-1.35
1.55
4.77
8.05
11.15
13.95
16.40
18.39
19.77
20.40
20.36
19.93
19.62
19.86
20.82
22.30
23.89
25.19
26.05
26.61
27.14
27.86
28.67
29.27
29.29
28.49
26.86
24.61
21.82
18.27
13.36
6.24
-3.80
-16.92
-32.51
-49.20
-65.18
-78.68
-88.41
-93.88
-95.47
-94.22
-91.49
-88.61
-86.42
-85.14
-84.32
-83.18
-81.11
-78.05
-74.75
-72.47
-72.34
-74.54
-77.84
-79.61
-76.72
-66.66
-48.57
-23.74
4.65
32.37
55.33
70.51
76.75
74.92
67.69
58.73
51.64
48.83
50.67
55.54
60.44
62.27
59.05
50.66
38.64
25.38
13.11
3.15
-4.22
-9.28
-12.19
-12.59
-9.85
-3.70
5.01
14.04
20.38
21.47
16.38
6.30
-5.91
-17.02
-24.73
-28.29
-28.26
-25.71
-21.41
-15.56
-8.15
0.47
9.26
16.68
21.31
22.51
20.73
17.29
13.90
12.02
12.53
15.56
20.55
26.43
31.90
35.67
36.90
35.46
32.02
27.74
23.85
21.10
19.50
18.52
17.41
15.65
13.17
10.30
7.56
5.40
4.09
3.71
4.24
5.66
7.85
10.49
13.09
14.95
15.45
14.20
11.28
7.31
3.22
0.10
-1.19
-0.26
2.70
7.00
11.62
15.57
18.04
18.62
17.30
14.42
10.51
6.21
2.10
-1.32
-3.68
-4.87
-4.99
-4.44
-3.77
-3.46
-3.73
-4.47
-5.23
-5.50
-4.92
-3.52
-1.64
0.10
1.13
1.02
-0.42
-3.13
-6.84
-11.02
-15.08
-18.42
-20.65
-21.73
-21.98
-21.97
-22.24
-23.13
-24.58
-26.30
-27.92
-29.19
-30.10
-30.84
-31.61
-32.42
-32.98
-32.74
-31.12
-27.74
-22.68
-16.48
-9.96
-3.91
1.16
5.06
7.88
9.76
10.77
10.90
10.13
8.62
6.74
4.96
3.73
3.26
3.47
4.04
4.65
5.10
5.36
5.56
5.84
6.23
6.67
7.04
7.25
7.29
7.22
7.08
6.86
6.48
5.84
4.88
3.58
1.99
0.18
-1.70
-3.50
-5.09
-6.40
-7.52
-8.62
-9.99
-11.85
-14.26
-17.02
-19.72
-21.78
-22.68
-22.05
-19.75
-15.97
-11.14
-5.88
-0.81
3.56
6.97
9.37
10.91
11.82
12.25
12.28
11.93
11.27
10.45
9.69
9.14
8.83
8.63
8.34
7.84
7.14
6.46
6.00
5.87
5.95
6.00
5.75
5.12
4.24
3.41
2.86
2.68
2.72
2.72
2.45
1.80
0.81
-0.36
-1.61
-2.88
-4.16
-5.46
-6.80
-8.17
-9.61
-11.13
-12.68
-14.04
-14.82
-14.62
-13.15
-10.43
-6.81
-2.86
0.88
4.05
6.51
8.31
9.54
10.21
10.29
9.77
8.77
7.50
6.21
5.08
4.18
3.45
2.80
2.14
1.44
0.72
-0.04
-0.81
-1.55
-2.19
-2.64
-2.90
-3.05
-3.30
-3.88
-4.84
-6.12
-7.52
-8.80
-9.86
-10.72
-11.53
-12.42
-13.45
-14.52
-15.37
-15.69
-15.15
-13.56
-10.89
-7.34
-3.35
0.58
4.00
6.69
8.69
10.19
11.40
12.36
12.97
13.03
12.43
11.26
9.82
8.51
7.62
7.26
7.27
7.39
7.35
6.93
6.07
4.78
3.18
1.46
-0.16
-1.53
-2.59
-3.41
-4.17
-5.02
-6.01
-7.03
-7.88
-8.36
-8.45
-8.31
-8.25
-8.53
-9.30
-10.52
-11.93
-13.15
-13.74
-13.35
-11.79
-9.07
-5.47
-1.42
2.63
6.24
9.06
10.87
11.57
11.11
9.57
7.16
4.25
1.32
-1.13
-2.76
-3.44
-3.33
-2.83
-2.48
-2.71
-3.73
-5.34
-7.09
-8.39
-8.84
-8.39
-7.33
-6.12
-5.19
-4.78
-4.93
-5.54
-6.47
-7.57
-8.67
-9.59
-10.19
-10.46
-10.56
-10.78
-11.39
-12.54
-14.12
-15.78
-17.09
-17.65
-17.33
-16.25
-14.83
-13.64
-13.12
-13.45
-14.42
-15.56
-16.44
-16.96
-17.45
-18.50
-20.53
-23.42
-26.43
-28.54
-28.96
-27.69
-25.68
-24.52
-25.73
-30.03
-36.98
-45.13
-52.60
-57.85
-60.36
-60.74
-60.46
-61.39
-65.19
-72.82
-84.09
-97.27
-108.76
-113.46
-105.89
-82.12
-41.78
11.03
68.42
121.17
161.71
186.49
196.42
195.52
188.60
179.25
169.21
158.96
148.82
139.66
132.73
128.91
127.92
128.19
127.37
123.46
115.64
104.64
92.32
80.72
71.15
63.64
57.07
49.75
40.26
28.13
14.05
-0.50
-13.90
-25.03
-33.76
-40.78
-47.20
-53.88
-61.02
-68.05
-73.96
-77.81
-79.19
-78.40
-76.28
-73.84
-71.84
-70.56
-69.79
-69.01
-67.68
-65.49
-62.53
-59.21
-56.11
-53.70
-52.16
-51.30
-50.61
-49.52
-47.54
-44.40
-40.11
-34.91
-29.15
-23.26
-17.63
-12.55
-8.23
-4.79
-2.23
-0.51
0.47
0.88
0.98
1.10
1.48
2.25
3.32
4.48
5.49
6.23
6.74
7.17
7.60
8.02
8.28
8.22
7.79
7.09
6.28
5.47
4.62
3.58
2.24
0.58
-1.21
-2.87
-4.22
-5.28
-6.22
-7.31
-8.70
-10.45
-12.44
-14.56
-16.65
-18.53
-19.96
-20.61
-20.12
-18.29
-15.15
-11.05
-6.54
-2.22
1.44
4.20
6.09
7.29
8.11
8.78
9.49
10.28
11.09
11.79
12.28
12.50
12.51
12.37
12.15
11.83
11.34
10.62
9.66
8.56
7.49
6.55
5.71
4.79
3.53
1.74
-0.66
-3.52
-6.55
-9.44
-11.94
-13.92
-15.46
-16.71
-17.93
-19.38
-21.25
-23.55
-26.04
-28.25
-29.64
-29.66
-28.01
-24.71
-20.08
-14.64
-8.98
-3.62
1.13
5.13
8.37
10.92
12.85
14.22
15.05
15.42
15.43
15.21
14.82
14.29
13.58
12.69
11.65
10.60
9.70
9.00
8.52
8.14
7.77
7.34
6.86
6.35
5.81
5.17
4.30
3.10
1.53
-0.29
-2.16
-3.87
-5.28
-6.39
-7.31
-8.23
-9.31
-10.67
-12.39
-14.54
-17.18
-20.23
-23.42
-26.20
-27.87
-27.72
-25.35
-20.84
-14.76
-8.00
-1.47
4.18
8.68
12.15
14.86
17.09
18.98
20.47
21.45
21.86
21.81
21.51
21.27
21.28
21.58
22.05
22.53
22.90
23.14
23.33
23.50
23.56
23.34
22.65
21.40
19.68
17.70
15.71
13.83
12.06
10.29
8.40
6.36
4.20
1.96
-0.32
-2.65
-5.05
-7.45
-9.78
-11.98
-14.15
-16.46
-19.11
-22.20
-25.68
-29.35
-33.00
-36.52
-39.78
-42.64
-44.70
-45.32
-43.77
-39.49
-32.51
-23.59
-14.20
-6.02
-0.49
1.81
1.35
-0.53
-2.18
-2.33
-0.60
2.36
5.27
6.73
5.80
2.19
-3.59
-10.26
-15.58
-16.48
-9.64
7.24
34.00
67.28
101.01
128.33
144.11
146.85
138.94
125.10
110.01
96.36
84.37
72.77
60.43
47.56
35.73
26.90
22.20
21.21
22.09
22.43
20.31
14.95
6.75
-3.24
-13.94
-24.70
-35.43
-46.28
-57.25
-67.88
-77.16
-83.75
-86.41
-84.57
-78.55
-69.65
-59.61
-50.13
-42.27
-36.22
-31.47
-27.23
-22.88
-18.24
-13.63
-9.49
-6.20
-3.74
-1.81
0.10
2.38
5.20
8.38
11.58
14.43
16.73
18.51
20.00
21.44
22.88
24.18
25.05
25.11
24.21
22.39
19.92
17.23
14.70
12.59
10.98
9.75
8.71
7.66
6.42
4.91
3.13
1.17
-0.84
-2.75
-4.50
-6.09
-7.66
-9.45
-11.76
-14.75
-18.41
-22.37
-25.95
-28.25
-28.42
-25.88
-20.59
-13.05
-4.13
5.11
13.74
21.14
27.04
31.51
34.78
37.16
38.86
40.04
40.74
41.02
40.93
40.51
39.67
38.12
35.47
31.32
25.57
18.52
10.82
3.23
-3.69
-9.81
-15.32
-20.63
-26.01
-31.58
-37.36
-43.32
-49.39
-55.24
-60.12
-62.84
-62.22
-57.56
-49.16
-38.30
-26.79
-16.32
-7.86
-1.53
3.18
6.90
10.06
12.69
14.56
15.34
14.79
12.87
9.80
6.12
2.51
-0.34
-2.00
-2.44
-1.93
-0.89
0.39
1.80
3.41
5.24
7.17
8.97
10.45
11.57
12.56
13.70
15.28
17.34
19.73
22.12
24.24
25.86
26.95
27.59
27.90
27.96
27.76
27.17
26.03
24.18
21.60
18.41
14.85
11.25
7.93
5.14
3.01
1.54
0.57
-0.12
-0.79
-1.72
-3.10
-5.04
-7.57
-10.54
-13.70
-16.69
-19.09
-20.64
-21.33
-21.52
-21.83
-22.88
-24.94
-27.66
-30.06
-30.88
-29.18
-24.87
-18.88
-12.92
-8.83
-7.70
-9.48
-13.01
-16.62
-19.01
-19.87
-19.89
-20.13
-21.26
-22.87
-23.81
-23.04
-20.62
-17.91
-16.65
-17.32
-18.21
-15.89
-7.08
9.59
32.95
60.36
89.35
118.24
145.47
167.78
179.36
173.34
145.29
96.88
36.93
-21.27
-65.27
-88.47
-92.02
-83.01
-70.32
-60.89
-58.06
-62.18
-72.24
-87.01
-105.08
-124.28
-141.16
-151.44
-151.35
-139.20
-116.27
-86.55
-55.53
-28.41
-8.76
2.37
6.27
5.61
3.38
1.89
2.40
5.22
10.23
17.12
25.52
34.81
43.94
51.65
56.81
58.98
58.60
56.87
55.26
54.95
56.33
58.94
61.71
63.31
62.53
58.39
50.25
37.89
21.68
2.74
-17.10
-35.61
-50.76
-61.33
-67.10
-68.75
-67.34
-63.85
-59.09
-53.81
-48.92
-45.41
-44.12
-45.23
-48.04
-51.17
-53.01
-52.36
-48.83
-42.85
-35.26
-26.85
-18.06
-8.95
0.52
10.22
19.64
27.92
34.10
37.45
37.66
34.92
29.82
23.19
15.94
8.99
3.17
-0.84
-2.64
-2.14
0.44
4.63
9.85
15.56
21.19
26.20
29.99
31.97
31.65
28.82
23.66
16.78
9.06
1.37
-5.70
-12.10
-18.39
-25.58
-34.85
-47.01
-62.11
-79.32
-97.09
-113.68
-127.84
-139.29
-148.75
-157.53
-166.87
-177.25
-188.28
-198.96
-208.26
-215.72
-221.50
-226.13
-229.93
-232.62
-233.28
-230.72
-223.93
-212.40
-196.18
-175.57
-150.77
-121.75
-88.23
-49.75
-5.80
44.26
101.47
167.35
243.40
329.71
423.44
518.00
603.95
671.53
714.03
730.06
723.69
702.19
672.76
640.03
605.57
569.28
531.50
494.18
460.42
432.71
411.26
393.62
375.75
354.08
327.15
296.10
263.88
233.45
206.12
180.77
154.44
123.35
84.21
34.93
-24.89
-93.40
-165.65
-233.23
-285.36
-311.84
-307.02
-272.65
-217.91
-156.32
-100.82
-59.61
-34.87
-24.18
-23.69
-30.49
-43.15
-60.70
-81.29
-102.00
-119.99
-134.17
-145.85
-158.04
-173.67
-193.60
-215.93
-236.62
-251.12
-256.33
-251.72
-239.31
-222.66
-205.47
-190.34
-178.23
-168.58
-159.97
-150.89
-140.47
-128.66
-116.33
-104.85
-95.67
-89.92
-88.26
-90.87
-97.64
-108.10
-121.35
-136.05
-150.53
-163.19
-172.93
-179.43
-183.12
-184.88
-185.66
-186.20
-186.98
-188.33
-190.52
-193.66
-197.46
-200.88
-202.24
-199.74
-192.32
-180.20
-164.88
-148.47
-132.59
-117.70
-103.10
-87.61
-70.53
-52.00
-32.88
-13.97
4.63
23.60
43.96
66.26
90.10
114.06
136.28
155.17
169.87
180.48
187.74
192.61
195.80
197.56
197.79
196.36
193.49
189.83
186.43
184.35
184.20
186.07
189.69
194.57
200.29
206.32
211.79
215.33
215.28
210.21
199.49
183.51
163.35
140.31
115.37
89.03
61.56
33.31
4.93
-22.60
-48.29
-71.33
-91.27
-107.90
-121.21
-131.26
-138.32
-142.80
-145.29
-146.37
-146.49
-145.82
-144.31
-141.76
-137.90
-132.56
-125.67
-117.35
-107.85
-97.50
-86.75
-76.11
-66.09
-57.10
-49.39
-42.93
-37.49
-32.75
-28.44
-24.45
-20.84
-17.75
-15.27
-13.44
-12.20
-11.52
-11.37
-11.72
-12.48
-13.41
-14.22
-14.65
-14.70
-14.61
-14.81
-15.65
-17.19
-19.18
-21.22
-23.06
-24.71
-26.39
-28.34
-30.64
-33.24
-36.08
-39.33
-43.39
-48.59
-55.01
-62.20
-69.31
-75.38
-79.61
-81.64
-81.53
-79.56
-76.04
-71.10
-64.65
-56.49
-46.50
-34.92
-22.40
-9.93
1.48
11.12
18.90
25.35
31.44
38.17
46.20
55.64
66.04
76.67
86.83
96.16
104.73
112.80
120.50
127.56
133.26
136.74
137.40
135.14
130.32
123.47
114.93
104.86
93.36
80.88
68.30
56.72
47.00
39.31
33.06
27.23
21.00
14.19
7.38
1.61
-2.18
-3.64
-3.16
-1.59
0.11
1.39
2.22
3.00
4.24
6.14
8.36
9.96
9.59
5.96
-1.69
-13.16
-27.18
-41.61
-54.13
-63.08
-68.25
-71.07
-74.22
-80.54
-91.87
-108.05
-126.67
-143.56
-153.82
-153.17
-139.25
-112.36
-75.58
-33.98
6.69
41.58
67.74
84.49
92.81
94.28
90.24
81.45
68.61
52.87
36.25
21.18
9.56
1.96
-2.64
-6.26
-10.77
-17.00
-24.51
-31.94
-37.77
-40.67
-39.38
-32.54
-18.70
2.89
31.39
63.75
95.18
120.60
136.38
141.49
137.49
127.45
114.57
101.18
88.61
77.60
68.72
62.46
58.91
57.46
56.69
54.77
50.10
41.89
30.43
16.86
2.72
-10.71
-22.82
-33.71
-43.88
-53.65
-62.69
-69.96
-73.96
-73.53
-68.36
-59.44
-48.67
-38.30
-30.12
-24.91
-22.44
-21.83
-22.04
-22.36
-22.55
-22.85
-23.67
-25.41
-28.14
-31.56
-35.02
-37.72
-38.90
-37.93
-34.34
-27.86
-18.52
-6.85
5.99
18.30
28.16
34.08
35.33
32.27
26.07
18.31
10.51
3.75
-1.38
-4.70
-6.42
-6.81
-6.11
-4.32
-1.16
3.75
10.54
18.95
28.17
37.32
45.80
53.68
61.56
69.93
78.49
85.84
89.87
88.70
81.65
69.60
54.58
38.79
23.59
9.21
-4.96
-19.37
-33.81
-47.18
-58.01
-65.27
-68.79
-69.17
-67.26
-63.66
-58.64
-52.48
-45.78
-39.69
-35.62
-34.65
-37.04
-42.02
-48.10
-53.63
-57.35
-58.65
-57.45
-53.98
-48.54
-41.44
-33.19
-24.49
-16.24
-9.20
-3.64
0.83
5.15
10.43
17.31
25.59
34.21
41.64
46.52
48.19
46.93
43.73
39.84
36.24
33.40
31.30
29.63
28.16
26.86
25.98
25.85
26.66
28.20
29.86
30.81
30.30
28.06
24.32
19.79
15.32
11.55
8.74
6.82
5.63
5.15
5.57
7.15
9.92
13.50
17.00
19.48
20.19
19.00
16.48
13.65
11.58
10.97
11.95
14.06
16.61
19.07
21.32
23.52
25.77
27.71
28.40
26.69
21.79
13.79
3.71
-6.84
-16.40
-24.18
-30.23
-35.21
-40.04
-45.57
-52.43
-60.90
-70.64
-80.29
-87.24
-88.21
-80.36
-62.86
-37.72
-9.59
15.68
33.06
40.00
36.87
26.28
11.72
-3.67
-17.71
-29.12
-37.15
-41.39
-41.87
-39.30
-35.25
-31.95
-31.60
-35.61
-43.78
-54.00
-62.57
-65.40
-59.54
-44.54
-22.86
1.01
22.20
37.40
45.94
49.50
50.90
52.53
55.26
58.33
60.01
58.64
53.29
43.96
31.22
15.64
-2.55
-23.38
-46.75
-71.89
-97.10
-119.81
-137.30
-147.41
-149.31
-143.65
-132.31
-117.67
-101.98
-86.87
-73.13
-60.73
-48.91
-36.47
-22.33
-6.07
11.62
28.97
43.77
54.14
59.34
59.82
56.84
51.77
45.53
38.67
31.64
25.24
20.73
19.48
22.47
29.83
40.81
54.07
68.11
81.76
94.22
105.07
114.00
120.61
124.30
124.43
120.67
113.32
103.41
92.54
82.44
74.51
69.48
67.31
67.42
68.98
71.17
73.41
75.34
76.79
77.60
77.64
76.66
74.40
70.61
65.08
57.67
48.26
36.75
23.14
7.58
-9.45
-27.13
-44.36
-59.72
-71.68
-78.82
-80.17
-75.51
-65.52
-51.88
-37.04
-23.99
-15.70
-14.60
-22.11
-38.21
-61.41
-88.99
-117.69
-144.47
-167.08
-184.52
-196.97
-205.72
-212.93
-221.31
-233.36
-250.29
-270.97
-291.59
-306.43
-309.83
-298.43
-272.66
-236.76
-196.96
-158.99
-126.00
-97.85
-71.87
-44.44
-12.55
25.34
69.13
117.32
167.28
215.43
257.43
288.65
305.10
304.47
287.04
255.90
216.37
174.68
136.52
105.84
84.29
71.40
65.19
63.03
62.35
61.02
57.55
51.06
41.34
28.65
13.70
-2.58
-19.06
-34.49
-47.55
-57.20
-63.15
-66.15
-68.05
-71.05
-76.76
-85.27
-94.91
-102.81
-106.11
-103.06
-93.60
-79.14
-61.85
-43.93
-27.21
-13.23
-3.44
0.81
-1.48
-10.39
-24.57
-41.24
-56.77
-67.81
-72.53
-71.46
-67.41
-64.54
-66.83
-76.62
-93.90
-116.52
-141.11
-164.34
-183.81
-198.44
-208.21
-213.66
-215.23
-212.78
-205.30
-190.85
-166.76
-130.15
-78.90
-12.82
65.37
149.75
232.02
303.47
357.27
390.26
403.51
401.24
388.98
371.61
352.40
333.00
314.14
296.25
279.62
264.12
248.94
232.63
213.76
191.61
166.60
140.19
114.38
90.98
71.15
55.18
42.59
32.40
23.38
14.38
4.66
-5.94
-16.93
-27.37
-36.22
-42.69
-46.54
-48.03
-47.72
-46.25
-44.05
-41.44
-38.63
-35.84
-33.28
-31.01
-28.91
-26.62
-23.63
-19.63
-14.55
-8.69
-2.43
3.90
10.24
16.72
23.46
30.36
37.07
43.11
48.02
51.47
53.28
53.37
52.07
50.40
50.39
54.76
65.79
83.71
105.58
125.48
136.38
133.20
115.19
86.81
56.06
31.40
18.67
19.85
33.81
58.19
90.60
128.44
167.49
200.91
220.09
217.47
189.79
139.90
75.80
7.12
-58.91
-119.84
-177.25
-233.68
-289.45
-341.43
-384.31
-413.55
-427.71
-429.10
-422.39
-412.60
-403.60
-397.74
-396.39
-400.42
-410.12
-424.31
-439.84
-451.75
-454.56
-443.95
-417.93
-377.18
-324.09
-261.85
-193.60
-122.26
-50.67
18.16
81.12
135.42
179.17
211.78
234.10
248.06
256.06
260.23
262.00
261.94
260.05
256.18
250.54
243.90
237.42
232.21
228.76
226.66
224.72
221.49
215.86
207.45
196.47
183.41
168.74
152.71
135.57
117.79
100.17
83.59
68.76
55.90
44.73
34.69
25.26
16.26
7.88
0.61
-4.98
-8.63
-10.59
-11.67
-13.08
-15.93
-20.81
-27.53
-35.23
-42.83
-49.46
-54.69
-58.32
-60.07
-59.36
-55.44
-47.82
-36.73
-23.21
-8.87
4.71
16.31
25.32
31.62
35.47
37.51
38.79
40.66
44.60
51.62
61.80
73.91
85.63
94.34
98.42
98.44
97.50
100.39
111.59
133.17
163.47
197.18
227.07
246.31
250.50
238.42
211.56
172.80
125.10
70.76
11.43
-51.52
-116.58
-182.05
-246.32
-308.02
-366.18
-419.98
-468.63
-511.37
-547.90
-578.90
-606.13
-631.66
-656.49
-679.21
-695.79
-700.62
-688.66
-657.36
-607.54
-542.71
-467.47
-386.07
-301.60
-216.35
-132.28
-51.42
24.45
94.45
159.12
220.43
280.92
342.23
403.62
461.50
510.04
543.03
556.23
549.05
524.80
489.34
449.03
408.83
371.47
337.66
307.01
278.90
252.97
229.17
207.58
188.21
170.70
154.12
137.06
117.97
95.87
70.78
43.76
16.33
-10.19
-35.15
-58.28
-79.02
-95.83
-106.27
-107.82
-99.05
-80.53
-54.78
-25.50
3.67
30.20
53.01
72.35
89.16
104.32
118.10
129.98
138.78
143.20
142.25
135.61
123.79
107.97
89.82
71.15
53.74
39.10
28.26
21.77
19.72
21.98
28.37
38.67
52.48
68.90
86.32
102.52
115.16
122.21
122.35
115.05
100.43
79.24
53.05
24.25
-4.19
-29.48
-50.20
-67.03
-82.49
-99.69
-120.75
-145.69
-172.34
-197.12
-216.30
-227.13
-228.59
-221.59
-208.72
-193.55
-179.54
-168.79
-161.42
-155.81
-149.69
-141.43
-130.90
-119.25
-107.98
-98.00
-89.24
-81.04
-72.78
-64.12
-54.90
-44.96
-34.27
-23.09
-11.95
-1.36
8.86
19.88
33.37
50.41
70.45
90.96
108.32
119.52
123.60
122.15
118.52
116.09
116.72
120.08
124.17
126.60
125.80
121.66
115.21
107.98
101.30
96.08
93.01
92.84
96.29
103.31
112.37
120.20
122.54
115.65
97.85
70.20
35.93
-1.11
-38.15
-74.51
-111.47
-150.98
-193.99
-239.08
-282.20
-317.69
-340.22
-346.84
-338.27
-318.56
-293.44
-268.09
-245.15
-224.01
-201.47
-173.30
-135.93
-87.82
-30.14
33.11
95.66
150.12
189.68
209.92
210.00
192.80
163.83
129.65
96.40
68.90
50.51
43.28
47.91
63.53
87.48
115.56
142.88
165.05
179.37
185.29
184.17
178.39
170.28
161.34
151.92
141.52
129.30
114.72
98.07
80.62
64.37
51.52
43.68
41.30
43.29
47.19
49.80
48.11
40.14
25.42
4.91
-19.44
-45.42
-70.91
-94.08
-113.22
-126.70
-133.01
-131.14
-121.05
-103.84
-81.76
-57.62
-34.19
-13.64
2.69
14.09
20.27
21.03
16.24
5.88
-9.84
-30.43
-54.89
-81.71
-108.66
-132.77
-150.51
-158.27
-153.30
-134.52
-103.23
-62.96
-18.69
24.44
62.28
92.41
114.19
128.18
135.59
137.68
135.50
129.86
121.19
109.57
94.82
76.91
56.51
35.34
16.07
1.69
-5.46
-4.53
3.36
15.48
28.24
38.39
43.84
44.12
40.28
34.22
27.96
22.95
19.65
17.41
14.83
10.28
2.39
-9.55
-25.55
-44.98
-66.70
-89.19
-110.64
-129.24
-143.49
-152.62
-156.74
-156.80
-154.07
-149.64
-144.03
-137.30
-129.31
-120.07
-109.96
-99.56
-89.35
-79.64
-70.53
-62.07
-54.33
-47.47
-41.58
-36.67
-32.56
-29.06
-25.89
-22.87
-19.82
-16.70
-13.66
-11.04
-9.25
-8.62
-9.25
-10.97
-13.52
-16.68
-20.42
-24.74
-29.46
-34.08
-37.90
-40.26
-40.89
-39.96
-37.95
-35.30
-32.17
-28.47
-24.12
-19.31
-14.60
-10.73
-8.22
-7.18
-7.25
-7.92
-8.78
-9.62
-10.16
-9.85
-7.83
-3.34
3.79
12.82
22.29
30.72
37.17
41.52
44.13
45.52
46.16
46.64
47.91
51.12
57.16
65.88
75.86
84.67
89.98
90.65
87.38
82.44
78.76
78.86
84.08
94.44
108.96
126.08
144.01
160.95
175.20
185.17
189.61
187.64
179.03
164.10
143.71
118.91
90.61
59.44
25.70
-10.25
-47.57
-84.66
-119.30
-149.02
-171.52
-184.89
-187.75
-179.41
-160.23
-132.10
-98.65
-64.74
-35.39
-14.29
-2.81
0.06
-3.20
-9.86
-17.98
-26.46
-34.59
-41.60
-46.76
-49.96
-52.19
-55.69
-62.99
-75.85
-94.13
-115.45
-135.73
-150.37
-155.66
-149.83
-133.57
-109.65
-82.05
-54.58
-29.90
-8.91
8.98
25.05
40.27
54.66
67.35
77.18
83.49
86.53
87.42
87.67
88.74
91.75
97.46
106.33
118.42
133.31
149.93
166.63
181.60
193.32
200.95
204.43
204.09
200.33
193.08
181.74
165.23
142.48
112.95
77.27
37.58
-2.56
-38.77
-67.05
-85.29
-94.33
-98.11
-102.54
-113.47
-134.60
-166.19
-205.22
-246.78
-286.01
-319.62
-346.49
-367.28
-383.60
-397.27
-409.92
-422.69
-435.91
-448.67
-458.58
-462.21
-456.10
-438.10
-408.14
-368.28
-321.73
-271.40
-218.76
-163.41
-103.60
-37.32
36.13
115.14
195.39
270.44
333.29
378.28
402.75
407.79
397.76
378.86
357.38
338.21
324.18
315.96
312.48
311.65
310.93
308.13
302.02
292.81
282.04
272.06
264.89
261.42
260.87
261.05
259.13
252.70
240.50
222.80
201.08
177.49
154.17
132.61
113.28
95.59
78.06
58.92
36.71
10.87
-17.90
-47.67
-75.83
-99.75
-117.50
-128.40
-133.14
-133.52
-131.95
-130.71
-131.32
-134.16
-138.52
-142.94
-145.78
-145.65
-141.63
-133.32
-120.65
-103.86
-83.61
-61.00
-37.53
-14.72
6.38
25.50
43.06
59.78
75.93
90.97
103.64
112.55
116.89
116.82
113.40
108.00
101.66
94.82
87.40
79.24
70.44
61.55
53.22
45.92
39.64
33.95
28.26
22.27
16.17
10.61
6.48
4.56
5.18
8.10
12.54
17.58
22.43
26.72
30.51
34.05
37.51
40.74
43.21
44.22
43.23
40.09
35.15
29.05
22.58
16.40
10.91
6.32
2.69
0.08
-1.46
-1.84
-1.11
0.59
2.90
5.37
7.51
9.01
9.78
10.01
10.08
10.41
11.32
12.96
15.26
18.07
21.17
24.36
27.44
30.10
32.00
32.74
32.11
30.13
27.16
23.76
20.42
17.32
14.27
10.80
6.44
0.99
-5.30
-11.85
-18.01
-23.30
-27.64
-31.39
-35.21
-39.82
-45.77
-53.29
-62.25
-72.19
-82.52
-92.68
-102.35
-111.60
-120.88
-130.83
-141.89
-153.93
-166.06
-176.82
-184.81
-189.35
-190.89
-190.84
-190.78
-191.48
-192.38
-191.78
-187.76
-179.25
-166.75
-152.09
-137.71
-125.65
-116.92
-111.58
-108.93
-107.86
-106.77
-103.69
-96.77
-85.13
-69.99
-54.82
-44.29
-42.07
-48.57
-59.96
-69.23
-69.25
-56.25
-32.00
-3.24
21.36
35.15
36.31
28.06
16.53
7.48
3.96
5.82
10.89
16.92
22.88
29.05
36.07
43.98
51.90
58.52
62.94
65.28
66.52
67.86
70.04
72.86
75.35
76.24
74.60
70.21
63.68
56.15
48.84
42.66
38.04
34.96
33.14
32.25
32.08
32.62
34.02
36.52
40.28
45.18
50.70
55.94
59.85
61.62
60.96
58.05
53.42
47.57
40.80
33.22
25.00
16.55
8.51
1.50
-4.19
-8.72
-12.49
-15.85
-18.71
-20.58
-20.89
-19.40
-16.47
-13.08
-10.35
-9.17
-9.84
-12.04
-15.06
-18.14
-20.83
-23.03
-24.94
-26.87
-29.05
-31.50
-34.15
-36.98
-40.11
-43.75
-47.99
-52.57
-56.84
-59.90
-60.94
-59.44
-55.44
-49.37
-41.94
-33.96
-26.24
-19.45
-14.04
-10.09
-7.16
-4.37
-0.63
5.00
12.89
22.70
33.47
44.01
53.21
60.26
64.65
66.16
64.90
61.37
56.36
50.72
45.00
39.21
32.79
25.01
15.62
5.30
-4.36
-11.43
-14.58
-13.79
-10.48
-6.84
-4.99
-6.17
-10.41
-16.84
-24.19
-31.37
-37.65
-42.51
-45.30
-45.09
-40.78
-31.55
-17.41
0.65
20.75
40.72
58.66
73.41
84.63
92.42
97.03
98.59
97.24
93.25
87.13
79.39
70.20
59.19
45.63
29.11
10.18
-9.38
-27.07
-40.54
-48.55
-51.39
-50.56
-47.99
-45.28
-43.28
-42.16
-41.93
-42.61
-44.30
-46.86
-49.65
-51.47
-50.86
-46.72
-38.77
-27.84
-15.63
-4.21
4.70
10.23
12.55
12.56
11.38
9.90
8.62
7.93
8.36
10.79
16.23
25.30
37.72
52.19
66.65
78.82
86.88
89.67
86.76
78.29
64.81
47.35
27.43
7.07
-11.55
-26.55
-36.87
-42.50
-44.45
-44.42
-44.31
-45.86
-50.32
-58.25
-69.44
-82.90
-97.10
-110.29
-120.94
-128.17
-131.80
-132.17
-129.71
-124.67
-116.97
-106.40
-92.93
-76.91
-59.00
-39.90
-20.15
-0.07
20.01
39.65
58.14
74.65
88.47
99.25
107.05
112.29
115.54
117.39
118.26
118.40
117.90
116.72
114.85
112.33
109.33
106.08
102.86
99.95
97.56
95.89
95.09
95.16
95.87
96.70
96.88
95.53
91.82
85.17
75.26
62.10
45.92
27.30
6.99
-14.00
-34.64
-53.93
-71.12
-85.79
-97.93
-107.87
-116.14
-123.18
-129.12
-133.66
-136.06
-135.46
-131.06
-122.43
-109.52
-92.59
-72.20
-49.14
-24.48
0.52
24.54
46.48
65.74
82.10
95.62
106.23
113.59
117.11
116.24
110.83
101.31
88.76
74.56
60.08
46.28
33.41
20.99
8.02
-6.58
-23.48
-42.59
-62.96
-82.92
-100.37
-112.89
-118.03
-113.62
-98.24
-71.93
-36.55
4.32
46.10
84.25
115.24
136.96
148.57
150.15
142.27
126.00
103.07
76.19
49.10
26.14
11.27
6.84
12.54
25.02
38.60
47.02
45.62
32.85
10.66
-16.63
-44.11
-68.15
-87.26
-102.01
-114.06
-125.18
-136.64
-149.09
-162.88
-178.32
-195.82
-215.65
-237.59
-260.50
-282.24
-299.91
-310.48
-311.65
-302.47
-283.66
-257.36
-226.46
-193.85
-161.74
-131.33
-102.77
-75.40
-48.24
-20.53
7.79
35.77
61.65
83.24
98.85
107.97
111.75
112.84
114.66
120.34
131.70
148.62
169.11
189.91
207.44
218.81
222.45
218.25
207.24
191.16
171.96
151.57
131.80
114.24
100.26
90.89
86.76
88.16
95.01
106.79
122.30
139.37
154.89
165.36
167.89
161.17
146.03
125.32
103.07
83.55
70.02
64.09
65.80
73.90
86.33
100.42
113.35
122.49
126.46
124.82
118.14
107.94
96.23
84.93
75.26
67.56
61.50
57.41
55.50
55.99
59.22
65.45
74.56
85.59
96.51
104.42
107.14
102.59
89.36
67.89
40.94
13.13
-10.60
-26.79
-41.04
-56.61
-75.05
-96.06
-117.63
-136.70
-149.59
-152.93
-144.62
-124.82
-95.92
-63.12
-34.26
-17.58
-18.88
-38.91
-72.90
-112.06
-147.08
-170.85
-178.64
-171.35
-153.96
-132.62
-112.12
-95.03
-82.14
-73.55
-68.83
-67.58
-69.54
-73.78
-78.67
-82.45
-84.18
-84.14
-83.38
-82.71
-82.16
-81.22
-78.85
-74.13
-66.80
-57.57
-47.91
-39.45
-33.41
-30.34
-30.29
-32.76
-36.79
-41.18
-44.76
-46.71
-46.72
-45.03
-42.31
-39.56
-37.72
-37.35
-38.44
-40.46
-42.55
-43.90
-44.13
-43.40
-42.48
-42.36
-43.91
-47.47
-52.77
-58.86
-64.27
-67.42
-67.00
-62.43
-54.05
-42.95
-30.66
-18.62
-8.01
0.41
6.25
9.56
10.87
11.30
12.26
15.03
20.16
27.21
35.14
42.87
50.10
57.33
65.32
74.20
82.94
89.58
92.29
90.51
85.50
79.89
76.42
76.52
79.73
83.96
86.67
86.01
81.53
73.96
64.53
54.36
44.00
33.61
23.16
12.73
2.47
-7.49
-17.16
-26.71
-36.32
-46.05
-55.69
-64.83
-73.01
-79.86
-85.14
-88.86
-91.16
-92.38
-93.10
-93.98
-95.42
-97.10
-97.67
-94.99
-87.03
-72.91
-53.76
-32.53
-12.95
1.98
11.08
15.14
16.06
15.60
14.47
12.31
8.33
2.16
-5.69
-14.04
-21.59
-27.58
-32.00
-35.45
-38.68
-42.13
-45.58
-48.24
-49.13
-47.63
-43.92
-39.09
-34.77
-32.36
-32.31
-33.69
-34.53
-32.61
-26.42
-15.89
-2.44
11.56
23.77
32.65
37.88
40.23
41.04
41.62
42.85
45.01
47.89
51.16
54.64
58.60
63.86
71.57
82.85
98.26
117.29
138.37
159.12
177.06
190.25
197.93
200.32
198.13
191.85
181.57
167.38
149.73
129.82
109.42
90.57
75.01
63.80
57.17
54.74
56.02
60.31
66.53
72.77
76.93
77.05
72.05
62.04
48.45
34.07
21.48
11.91
3.99
-4.34
-14.99
-28.65
-45.04
-63.14
-80.53
-95.29
-106.50
-115.84
-124.13
-131.36
-136.72
-140.12
-142.30
-142.59
-140.28
-134.67
-127.64
-118.78
-106.17
-86.72
-58.97
-23.57
19.22
67.49
118.05
163.88
201.66
231.69
257.68
283.02
294.67
282.00
240.24
194.79
156.00
128.06
104.26
82.57
61.66
40.59
21.19
5.58
-4.81
-13.19
-21.08
-28.80
-34.93
-38.91
-40.81
-39.38
-33.85
-24.45
-15.20
-8.69
-6.22
-7.28
-11.53
-18.71
-27.38
-36.12
-43.73
-51.03
-57.75
-62.88
-64.90
-63.24
-58.43
-51.29
-43.08
-35.20
-29.66
-27.33
-28.05
-30.63
-33.69
-35.86
-35.91
-33.18
-27.91
-21.53
-15.88
-12.63
-12.69
-15.95
-21.31
-27.00
-31.19
-32.51
-30.36
-24.97
-17.23
-8.61
-0.90
4.03
4.70
0.45
-8.16
-19.48
-31.26
-41.41
-48.68
-52.91
-54.71
-55.02
-54.54
-53.61
-52.44
-51.32
-50.85
-51.78
-54.66
-59.48
-65.48
-71.29
-75.35
-76.32
-73.53
-67.12
-57.96
-47.43
-37.01
-27.99
-21.15
-16.66
-14.12
-12.71
-11.53
-9.82
-7.19
-3.63
0.57
5.00
9.29
13.16
16.50
19.25
21.46
23.24
24.71
26.00
27.04
27.53
26.89
24.32
19.09
10.82
-0.08
-12.26
-23.64
-31.97
-35.72
-34.72
-30.32
-24.71
-19.92
-16.74
-14.37
-10.98
-4.86
4.39
15.51
25.97
32.91
34.17
28.84
17.32
0.97
-18.22
-38.14
-56.86
-73.00
-85.88
-95.61
-102.85
-108.40
-112.90
-116.55
-119.27
-120.90
-121.47
-121.31
-120.93
-120.91
-121.63
-123.12
-124.87
-125.88
-124.75
-119.93
-110.02
-94.25
-72.77
-46.84
-18.70
9.02
33.98
54.88
71.84
86.17
99.63
113.50
127.91
141.69
152.95
159.96
161.86
158.97
152.46
143.77
134.05
124.06
114.30
105.34
97.80
92.05
87.89
84.42
80.32
74.63
67.25
59.05
51.49
45.70
41.89
39.26
36.49
32.65
27.79
22.92
19.38
17.97
18.32
19.01
18.14
14.23
6.80
-3.58
-15.86
-29.22
-43.34
-58.31
-73.95
-89.41
-103.10
-113.23
-118.49
-118.65
-114.56
-107.80
-100.10
-92.88
-86.94
-82.54
-79.55
-77.60
-76.15
-74.57
-72.15
-68.20
-62.14
-53.60
-42.48
-29.05
-13.99
1.81
17.41
32.17
45.85
58.60
70.73
82.40
93.55
103.90
113.18
121.18
127.83
133.03
136.50
137.87
136.89
133.57
128.27
121.30
112.47
100.92
85.71
66.71
45.17
23.42
3.90
-11.91
-23.83
-32.39
-37.83
-39.50
-36.19
-27.35
-14.09
0.58
12.91
20.02
21.23
18.15
13.68
10.49
10.06
12.42
16.81
22.45
28.83
35.72
42.90
49.78
55.31
58.39
58.25
54.87
48.95
41.67
34.23
27.48
21.73
16.96
12.93
9.40
6.28
3.53
1.20
-0.81
-2.77
-5.25
-8.94
-14.39
-21.76
-30.70
-40.43
-49.97
-58.49
-65.43
-70.58
-74.01
-75.92
-76.54
-76.13
-75.03
-73.68
-72.55
-72.01
-72.24
-73.16
-74.51
-75.96
-77.16
-77.82
-77.63
-76.36
-73.89
-70.39
-66.42
-62.76
-60.11
-58.73
-58.12
-57.18
-54.56
-49.16
-40.55
-28.94
-15.08
0.14
15.83
31.23
45.69
58.72
70.02
79.59
87.62
94.34
99.71
103.32
104.39
102.18
96.26
86.85
74.74
61.01
46.74
32.62
18.84
5.22
-8.71
-23.40
-39.06
-55.55
-72.42
-89.08
-104.97
-119.73
-133.19
-145.24
-155.66
-164.13
-170.33
-174.21
-176.03
-176.36
-175.67
-174.08
-171.10
-165.85
-157.40
-145.32
-129.98
-112.51
-94.57
-77.83
-63.67
-52.94
-46.16
-43.68
-45.93
-53.24
-65.54
-81.81
-99.95
-116.86
-129.12
-133.79
-129.22
-115.36
-93.74
-67.08
-38.59
-11.39
12.20
31.03
45.35
56.55
66.62
77.41
89.97
104.32
119.61
134.60
148.19
159.64
168.77
175.76
181.10
185.44
189.45
193.66
198.32
203.30
208.09
211.97
214.16
214.02
211.16
205.60
197.73
188.26
178.04
167.88
158.30
149.44
141.15
133.13
125.19
117.34
109.85
103.14
97.66
93.70
91.33
90.27
89.87
89.18
87.21
83.11
76.48
67.48
56.68
44.83
32.51
19.89
6.71
-7.50
-23.24
-40.81
-60.31
-81.66
-104.51
-128.20
-151.59
-173.09
-190.97
-203.80
-210.79
-211.93
-207.71
-198.91
-186.39
-171.22
-154.91
-139.45
-126.92
-118.99
-116.46
-119.12
-125.95
-135.38
-145.58
-154.60
-160.57
-161.99
-158.13
-149.29
-136.72
-122.11
-107.07
-92.64
-79.30
-67.15
-56.17
-46.32
-37.46
-29.23
-21.08
-12.45
-2.97
7.39
18.45
29.92
41.52
53.02
64.12
74.42
83.45
90.79
96.31
100.34
103.70
107.38
112.27
118.82
126.84
135.63
144.29
151.94
157.95
161.95
163.66
162.87
159.44
153.44
145.25
135.57
125.18
114.67
104.38
94.44
84.97
76.28
68.74
62.62
57.77
53.63
49.37
44.33
38.38
32.00
26.03
21.18
17.66
15.01
12.34
8.75
3.77
-2.48
-9.31
-15.79
-21.15
-25.01
-27.46
-28.96
-30.14
-31.66
-34.12
-37.94
-43.27
-49.84
-56.94
-63.57
-68.78
-71.92
-72.86
-71.92
-69.60
-66.38
-62.62
-58.58
-54.55
-50.85
-47.78
-45.49
-43.87
-42.66
-41.50
-40.04
-38.00
-35.19
-31.44
-26.70
-21.04
-14.71
-8.08
-1.54
4.57
10.05
14.81
18.83
22.07
24.45
25.86
26.24
25.59
23.92
21.19
17.20
11.76
4.82
-3.23
-11.58
-19.15
-24.95
-28.48
-29.77
-29.18
-27.00
-23.25
-17.72
-10.23
-1.05
9.05
18.88
27.22
33.11
36.11
36.22
33.75
29.30
23.66
17.98
13.70
12.30
14.98
22.07
32.80
45.37
57.41
66.76
72.11
73.38
71.53
68.06
64.43
61.56
59.75
58.76
58.17
57.62
56.98
56.32
55.77
55.34
54.75
53.46
50.95
46.89
41.38
34.92
28.09
21.23
14.23
6.53
-2.62
-13.88
-27.55
-43.48
-61.09
-79.13
-95.51
-107.23
-110.92
-104.06
-86.35
-60.57
-32.28
-8.10
6.54
9.35
1.73
-12.23
-27.69
-40.87
-49.92
-54.61
-55.41
-52.67
-46.39
-36.58
-23.81
-9.41
4.71
16.66
25.21
30.16
32.36
33.17
33.85
34.98
36.27
36.88
36.10
33.88
31.10
29.12
29.05
31.11
34.57
38.18
41.04
43.03
44.75
46.99
50.11
53.82
57.57
61.01
64.45
68.70
74.46
81.54
88.46
92.67
91.20
81.82
64.03
39.57
12.37
-12.23
-28.88
-33.74
-25.86
-7.77
15.01
35.42
46.91
45.37
30.21
4.10
-28.28
-62.16
-94.19
-123.25
-150.19
-176.97
-205.59
-237.36
-272.63
-310.94
-351.06
-391.15
-428.72
-460.72
-483.96
-495.67
-494.13
-479.06
-451.46
-413.17
-366.47
-313.77
-257.74
-201.32
-147.46
-98.45
-55.19
-16.89
18.52
53.29
88.75
124.82
160.26
193.39
222.81
247.65
267.35
281.32
288.85
289.48
283.45
272.11
257.79
243.28
231.07
222.73
218.45
217.13
216.89
215.68
211.96
205.08
195.16
182.71
168.20
151.85
133.80
114.51
94.88
76.14
59.40
45.18
33.24
22.81
13.13
3.79
-5.07
-13.04
-19.80
-25.30
-29.66
-32.82
-34.27
-33.06
-28.24
-19.53
-7.70
5.43
17.58
26.82
32.22
34.11
33.71
32.58
32.07
32.99
35.47
39.01
42.52
44.72
44.56
41.93
38.00
34.96
35.20
40.09
49.13
59.94
69.21
74.07
73.25
67.36
58.16
47.46
36.22
24.43
11.55
-2.68
-17.80
-32.72
-46.32
-58.14
-68.56
-78.69
-89.65
-101.93
-115.19
-128.37
-140.24
-149.97
-157.34
-162.63
-166.35
-168.92
-170.51
-171.04
-170.33
-168.19
-164.50
-159.28
-152.63
-144.74
-135.77
-125.82
-114.71
-102.09
-87.51
-70.73
-51.94
-31.78
-11.19
8.94
27.95
45.56
61.73
76.75
91.06
105.33
120.14
135.61
151.03
164.75
174.63
178.89
176.94
169.75
159.56
148.97
140.02
133.58
129.42
126.74
124.67
122.59
120.11
117.01
113.31
109.60
107.14
107.67
112.42
121.21
131.72
139.92
141.26
132.28
111.82
81.20
43.40
1.82
-40.57
-81.50
-119.03
-151.19
-175.97
-191.84
-198.44
-196.95
-189.85
-180.18
-170.56
-162.44
-156.04
-150.65
-145.35
-139.58
-133.29
-126.82
-120.55
-114.61
-108.83
-102.85
-96.33
-89.05
-81.00
-72.34
-63.37
-54.43
-45.91
-38.08
-31.11
-24.95
-19.41
-14.18
-8.85
-3.07
3.39
10.54
18.00
25.05
30.71
34.01
34.41
31.99
27.46
21.94
16.60
12.25
9.17
7.06
5.25
2.96
-0.40
-5.05
-10.71
-16.67
-21.97
-25.68
-27.05
-25.79
-22.04
-16.31
-9.31
-1.72
5.86
12.98
19.31
24.53
28.48
31.25
33.23
35.10
37.54
40.93
45.09
49.27
52.40
53.48
52.02
48.24
42.92
37.17
31.94
27.93
25.40
24.35
24.65
26.07
28.36
31.15
33.96
36.22
37.46
37.28
35.56
32.41
28.06
22.87
17.13
11.10
4.95
-1.14
-7.08
-12.77
-18.13
-23.14
-27.83
-32.27
-36.63
-41.15
-46.04
-51.43
-57.20
-62.97
-68.04
-71.55
-72.59
-70.38
-64.46
-54.79
-41.91
-26.92
-11.44
2.74
14.10
21.87
26.27
28.22
28.97
29.32
29.38
28.56
26.03
21.35
14.89
7.78
1.58
-2.28
-3.00
-0.66
3.81
8.84
12.60
13.48
10.60
4.05
-5.02
-14.81
-23.40
-29.40
-32.28
-32.37
-30.45
-27.21
-22.94
-17.47
-10.53
-2.22
6.71
15.03
21.45
25.30
26.86
27.35
28.29
30.77
34.95
40.02
44.72
47.98
49.41
49.28
48.17
46.51
44.23
40.92
36.05
29.47
21.55
13.10
5.15
-1.45
-6.22
-9.15
-10.50
-10.67
-10.02
-8.79
-7.19
-5.39
-3.67
-2.29
-1.47
-1.24
-1.45
-1.79
-1.90
-1.61
-0.99
-0.35
-0.02
-0.14
-0.48
-0.40
0.81
3.64
7.88
12.69
16.78
19.06
18.98
16.83
13.52
10.27
8.40
9.21
14.05
24.09
39.89
60.84
84.92
109.12
130.41
146.95
158.61
166.70
172.94
178.38
182.87
185.36
184.70
180.39
172.81
162.61
150.10
134.84
115.83
92.28
64.28
33.09
0.74
-30.88
-60.95
-90.26
-120.90
-155.11
-193.77
-235.13
-274.71
-306.46
-324.85
-327.05
-314.11
-290.57
-262.62
-235.78
-213.14
-194.92
-179.43
-164.49
-148.72
-131.77
-113.95
-95.45
-76.10
-55.59
-34.06
-12.47
7.42
23.70
35.06
41.31
43.28
42.38
39.87
36.58
32.79
28.68
24.61
21.34
19.75
20.55
23.92
29.34
35.88
42.45
48.15
52.31
54.48
54.21
51.11
44.97
36.02
25.17
13.90
4.13
-2.29
-4.06
-1.17
4.68
10.05
10.58
2.34
-16.64
-45.69
-81.71
-120.59
-158.77
-194.17
-226.19
-254.72
-279.27
-298.64
-311.48
-317.18
-316.45
-310.95
-302.53
-292.41
-280.87
-267.54
-251.91
-233.74
-213.03
-189.94
-164.54
-136.80
-106.68
-74.19
-39.47
-2.81
35.26
73.81
111.37
146.22
176.76
202.06
222.09
237.42
248.73
256.25
259.69
258.55
252.80
243.28
231.74
220.29
210.71
203.86
199.59
197.01
195.04
192.81
189.88
186.14
181.72
176.86
171.93
167.44
164.18
163.04
164.79
169.68
177.29
186.51
195.88
204.07
210.23
214.13
216.00
216.24
215.14
212.79
209.25
204.66
199.30
193.29
186.42
178.09
167.75
155.42
142.00
129.04
117.94
109.20
102.14
95.35
87.64
78.92
70.36
63.66
59.78
58.00
55.72
49.17
34.68
9.82
-25.87
-70.68
-121.01
-172.07
-218.64
-256.13
-281.50
-293.89
-294.67
-286.85
-274.07
-259.67
-246.03
-234.41
-225.21
-218.39
-213.66
-210.57
-208.35
-205.84
-201.55
-193.97
-182.03
-165.41
-144.78
-121.57
-97.48
-73.99
-52.04
-32.02
-14.16
1.15
13.20
21.13
24.46
23.35
18.79
12.30
5.45
-0.51
-4.88
-7.43
-8.27
-7.72
-6.28
-4.68
-3.75
-4.29
-6.84
-11.44
-17.66
-24.73
-31.84
-38.42
-44.15
-48.84
-52.18
-53.58
-52.23
-47.40
-38.83
-27.04
-13.29
0.64
13.04
22.70
29.21
32.97
35.00
36.50
38.53
41.67
45.85
50.38
54.12
55.82
54.46
49.48
40.94
29.52
16.34
2.79
-9.90
-20.95
-30.30
-38.58
-46.63
-54.85
-62.69
-68.54
-70.38
-66.66
-57.29
-43.87
-29.31
-16.69
-8.23
-4.75
-5.84
-10.55
-18.02
-27.82
-39.71
-53.28
-67.66
-81.48
-93.08
-100.92
-103.69
-100.63
-91.58
-77.12
-58.69
-38.51
-19.26
-3.55
6.67
10.47
8.07
0.69
-9.72
-20.87
-30.61
-37.37
-40.45
-40.08
-37.17
-32.77
-27.77
-22.69
-17.77
-13.31
-9.68
-7.37
-6.68
-7.35
-8.38
-8.12
-4.72
3.10
15.41
30.75
46.39
59.22
66.88
68.76
66.22
62.10
59.54
60.76
66.47
75.91
87.62
100.23
113.06
125.99
139.17
152.49
165.45
177.32
187.50
195.86
202.86
209.26
215.65
222.07
227.89
232.01
233.45
231.76
227.34
221.22
214.64
208.58
203.40
198.84
194.11
187.99
178.96
165.27
145.50
119.36
88.33
55.89
26.68
4.93
-7.21
-10.39
-7.69
-3.04
0.46
1.59
0.80
-0.90
-3.14
-6.70
-12.98
-22.92
-36.16
-51.04
-65.53
-78.33
-89.53
-100.51
-112.92
-127.74
-144.71
-162.41
-178.98
-192.65
-202.25
-207.26
-207.74
-204.21
-197.54
-188.77
-178.82
-168.21
-157.00
-145.02
-132.21
-118.90
-105.80
-93.70
-83.24
-74.65
-67.78
-62.27
-57.71
-53.79
-50.38
-47.54
-45.54
-44.56
-44.55
-45.03
-45.16
-43.97
-40.89
-35.89
-29.52
-22.42
-14.86
-6.50
3.21
14.45
26.46
37.67
46.33
51.38
52.93
52.05
49.90
46.96
42.77
36.53
27.91
17.79
8.14
1.21
-1.40
0.62
6.46
14.68
23.85
32.76
40.42
45.95
48.67
48.40
45.67
41.71
38.10
36.10
36.32
38.56
42.06
45.88
49.27
51.81
53.50
54.71
55.93
57.51
59.28
60.35
59.07
53.46
41.91
23.95
0.68
-25.34
-50.83
-72.77
-89.34
-100.19
-106.17
-108.67
-108.91
-107.67
-105.36
-102.39
-99.47
-97.50
-97.25
-98.82
-101.38
-103.36
-102.93
-98.76
-90.52
-79.01
-65.86
-52.97
-41.85
-33.27
-27.15
-22.84
-19.42
-15.96
-11.72
-6.33
0.17
7.19
13.59
17.99
19.12
16.22
9.33
-0.68
-12.35
-23.99
-34.07
-41.60
-46.29
-48.55
-49.30
-49.58
-50.24
-51.62
-53.53
-55.36
-56.42
-56.11
-54.19
-50.85
-46.75
-42.84
-40.04
-38.91
-39.24
-40.15
-40.27
-38.34
-33.83
-27.12
-19.38
-12.01
-5.96
-1.38
2.43
6.59
12.05
19.16
27.57
36.41
44.70
51.79
57.49
62.16
66.56
71.73
78.74
88.45
101.00
115.56
130.32
142.86
150.86
152.87
148.65
139.03
125.40
109.04
90.77
70.91
49.64
27.33
4.67
-17.52
-38.68
-58.69
-77.83
-96.43
-114.30
-130.45
-143.30
-151.23
-153.41
-150.27
-143.36
-134.71
-125.95
-117.57
-108.92
-98.69
-85.70
-69.65
-51.29
-32.08
-13.51
3.50
18.92
33.42
47.93
63.16
79.38
96.49
114.19
132.18
150.08
167.22
182.40
193.90
200.06
199.92
193.83
183.41
171.04
159.00
148.92
141.50
136.81
134.63
134.68
136.51
139.22
141.43
141.52
138.17
130.91
120.40
108.11
95.81
84.92
76.12
69.28
63.68
58.42
52.81
46.65
40.30
34.45
29.86
26.90
25.40
24.64
23.75
22.07
19.59
16.92
14.95
14.33
14.99
16.03
16.15
14.25
9.99
4.01
-2.39
-7.87
-11.57
-13.35
-13.64
-12.98
-11.74
-9.88
-7.07
-2.97
2.49
9.07
16.26
23.54
30.63
37.45
44.08
50.43
56.30
61.41
65.75
69.78
74.34
80.23
87.66
95.77
102.76
106.36
104.64
96.57
82.09
61.79
36.47
7.01
-25.54
-59.70
-93.50
-124.65
-150.85
-170.15
-181.16
-183.18
-176.43
-162.21
-142.99
-122.23
-103.67
-90.51
-84.55
-85.92
-93.26
-104.60
-117.98
-131.98
-145.81
-158.93
-170.80
-180.62
-187.46
-190.64
-190.06
-186.44
-181.14
-175.76
-171.61
-169.30
-168.74
-169.39
-170.60
-171.79
-172.32
-171.17
-166.91
-157.99
-143.37
-123.17
-98.97
-73.49
-49.76
-30.01
-14.99
-3.79
5.66
15.69
27.93
42.76
59.24
75.54
89.60
99.91
105.96
108.24
108.02
106.67
105.26
104.28
103.71
103.26
102.62
101.56
100.10
98.53
97.52
97.92
100.60
105.87
113.13
120.84
126.92
129.65
128.40
124.04
118.40
113.45
110.26
108.72
107.82
106.51
104.41
101.98
100.14
99.55
100.03
100.60
99.99
97.32
92.56
86.56
80.59
75.81
72.88
71.91
72.60
74.47
77.00
79.57
81.35
81.29
78.18
70.98
59.15
42.90
23.12
1.22
-21.22
-42.72
-62.08
-78.55
-92.00
-103.13
-113.25
-123.61
-134.57
-144.91
-151.92
-152.53
-144.88
-129.51
-109.28
-88.15
-69.35
-54.27
-42.55
-33.14
-25.43
-19.74
-16.76
-16.93
-20.05
-25.55
-32.95
-41.81
-51.25
-59.37
-63.49
-61.32
-52.42
-38.97
-24.89
-14.01
-8.06
-6.09
-5.34
-3.11
1.90
9.29
17.79
26.12
33.14
37.28
35.99
26.04
4.89
-27.60
-68.38
-111.79
-151.44
-182.29
-201.69
-209.25
-205.94
-193.30
-173.27
-148.50
-122.57
-99.35
-81.90
-71.25
-66.07
-63.41
-60.09
-53.96
-44.46
-32.20
-18.20
-3.13
12.87
29.88
47.78
65.89
83.09
98.17
110.28
119.24
125.59
130.33
134.51
138.77
143.11
146.93
149.34
149.58
147.23
142.20
134.44
123.82
110.29
94.28
77.14
61.04
48.37
40.71
37.86
37.53
35.90
28.92
13.58
-11.04
-43.72
-81.66
-121.54
-160.42
-196.34
-228.22
-255.52
-277.64
-293.74
-302.75
-303.95
-297.37
-283.95
-265.14
-242.19
-215.60
-185.12
-150.39
-111.65
-70.18
-28.00
12.91
51.37
87.21
120.79
152.24
180.94
205.60
224.87
238.08
245.55
248.39
247.96
245.27
240.80
234.67
226.97
218.06
208.67
199.70
191.98
185.92
181.48
178.23
175.74
173.84
172.81
173.24
175.56
179.55
184.06
187.09
186.34
180.06
167.61
149.68
127.96
104.61
81.69
61.00
44.09
32.37
27.02
28.56
36.35
48.37
61.52
72.46
78.52
78.16
70.74
55.86
32.65
-0.33
-44.34
-99.13
-161.87
-226.90
-286.93
-335.06
-367.02
-382.45
-384.66
-379.16
-371.69
-366.36
-365.06
-367.68
-372.78
-378.21
-381.34
-379.09
-368.41
-347.16
-315.36
-275.97
-234.74
-198.82
-174.62
-165.52
-170.72
-185.37
-202.21
-213.77
-214.43
-201.43
-174.75
-136.33
-89.22
-37.07
15.97
65.46
107.09
137.70
156.23
164.13
164.82
162.44
160.43
160.56
162.81
166.04
168.99
171.16
172.98
175.43
179.32
184.53
189.83
193.37
193.46
189.29
180.89
168.66
152.66
132.57
108.18
80.06
49.99
20.60
-5.69
-27.59
-45.20
-59.37
-70.60
-78.20
-80.28
-74.66
-60.02
-36.84
-7.51
24.42
55.36
82.63
105.02
122.68
136.55
147.54
156.11
162.17
165.33
165.39
162.67
158.00
152.56
147.57
144.02
142.61
143.61
146.74
151.06
155.02
156.73
154.41
146.81
133.40
114.13
89.12
58.28
21.50
-20.90
-67.62
-116.23
-163.62
-206.96
-244.86
-277.74
-307.50
-336.35
-365.67
-395.29
-423.57
-448.14
-466.63
-477.31
-479.14
-471.69
-454.90
-429.00
-394.49
-352.11
-302.84
-247.79
-188.38
-126.44
-64.38
-4.94
49.30
96.55
136.15
168.47
194.45
215.12
231.29
243.67
253.02
260.34
266.63
272.54
278.22
283.30
287.34
290.10
291.60
291.75
289.99
285.15
275.91
261.47
242.18
219.62
196.12
173.83
154.09
137.07
122.08
108.04
93.95
79.22
63.74
48.01
33.14
20.72
12.38
9.02
10.11
13.45
15.67
13.44
4.83
-9.87
-28.30
-46.99
-62.74
-73.61
-79.18
-80.14
-77.41
-71.61
-62.79
-50.74
-35.39
-17.11
3.16
24.17
44.74
64.09
81.95
98.49
113.85
127.82
139.67
148.28
152.64
152.28
147.60
139.67
129.92
119.62
109.46
99.53
89.32
78.12
65.30
50.62
34.27
16.75
-1.37
-19.77
-38.41
-57.28
-76.12
-94.24
-110.53
-123.84
-133.14
-137.52
-135.98
-127.32
-110.54
-85.71
-54.79
-21.79
8.04
29.85
40.66
40.14
30.13
13.39
-7.64
-31.40
-56.68
-81.59
-102.83
-116.02
-117.32
-105.57
-83.67
-58.20
-37.08
-26.32
-27.61
-37.81
-50.86
-60.93
-65.10
-64.12
-61.19
-59.62
-60.91
-64.34
-67.90
-69.95
-70.15
-69.52
-69.66
-71.69
-75.75
-80.97
-85.88
-88.90
-88.77
-84.83
-77.17
-66.67
-54.88
-43.71
-34.92
-29.63
-28.00
-29.28
-32.15
-35.28
-37.78
-39.41
-40.42
-41.34
-42.70
-44.84
-47.86
-51.66
-55.86
-59.84
-62.77
-63.83
-62.41
-58.51
-52.88
-46.83
-41.80
-38.85
-38.36
-40.06
-43.45
-48.11
-53.86
-60.47
-67.36
-73.33
-76.76
-76.20
-70.93
-61.50
-49.58
-37.42
-27.04
-19.59
-15.10
-12.86
-11.75
-10.81
-9.36
-6.98
-3.34
1.90
8.99
17.95
28.41
39.60
50.56
60.48
69.00
76.34
83.12
90.01
97.37
105.00
112.25
118.30
122.50
124.58
124.66
123.05
120.12
116.13
111.26
105.70
99.75
93.81
88.29
83.51
79.56
76.32
73.50
70.78
67.87
64.65
61.16
57.55
53.97
50.57
47.38
44.32
41.24
37.93
34.23
30.02
25.25
19.97
14.28
8.31
2.25
-3.68
-9.19
-13.92
-17.60
-20.04
-21.27
-21.53
-21.15
-20.48
-19.72
-18.89
-17.92
-16.76
-15.48
-14.24
-13.26
-12.68
-12.43
-12.30
-11.95
-11.10
-9.70
-7.84
-5.78
-3.82
-2.19
-1.03
-0.32
0.15
0.83
2.29
5.15
9.87
16.57
25.02
34.65
44.76
54.64
63.81
71.95
79.02
85.16
90.58
95.50
100.06
104.29
108.10
111.34
113.86
115.57
116.48
116.82
116.94
117.23
117.73
117.79
116.12
111.01
100.98
85.35
64.46
39.44
11.81
-17.05
-46.03
-74.22
-100.85
-125.23
-146.96
-165.94
-182.22
-195.63
-205.36
-210.07
-208.39
-199.84
-185.46
-167.74
-149.85
-134.49
-122.98
-115.08
-109.57
-105.21
-101.58
-99.23
-99.21
-102.24
-108.12
-115.66
-123.08
-128.73
-131.48
-130.83
-126.62
-118.78
-107.19
-91.85
-73.17
-52.17
-30.40
-9.63
8.58
23.29
34.20
41.66
46.34
49.04
50.32
50.34
48.83
45.20
38.99
30.36
20.36
10.75
3.44
-0.34
-0.36
2.68
7.92
14.93
23.96
35.47
49.24
63.84
76.76
85.23
87.40
83.14
74.12
63.24
53.55
47.27
45.06
45.77
46.76
44.54
35.90
18.79
-7.01
-39.83
-76.49
-113.00
-145.30
-169.84
-184.13
-187.19
-179.80
-164.59
-145.52
-126.95
-112.41
-103.80
-101.00
-102.32
-105.47
-108.44
-110.18
-110.65
-110.51
-110.70
-111.99
-114.81
-119.12
-124.33
-129.34
-132.74
-133.16
-129.83
-122.88
-113.37
-102.81
-92.62
-83.61
-76.02
-69.97
-65.89
-64.74
-67.59
-74.87
-85.72
-97.86
-108.13
-113.31
-110.86
-99.35
-78.47
-48.86
-11.98
30.00
74.38
118.31
159.33
195.72
226.69
252.22
272.71
288.76
301.13
310.67
318.12
323.71
326.79
325.87
319.16
305.44
284.77
258.67
229.62
200.29
172.72
148.05
126.62
108.31
92.92
80.22
69.89
61.38
53.99
47.01
40.03
32.96
26.01
19.43
13.23
7.10
0.51
-6.90
-15.06
-23.24
-30.18
-34.49
-35.12
-31.65
-24.38
-14.17
-2.16
10.49
22.71
33.56
42.33
48.55
52.11
53.33
52.84
51.41
49.85
48.77
48.61
49.64
51.97
55.67
60.79
67.44
75.80
86.08
98.40
112.65
128.41
144.97
161.51
177.18
191.21
202.98
211.91
217.63
220.07
219.50
216.63
212.32
207.37
202.08
196.22
188.98
179.36
166.46
149.87
129.82
107.20
83.31
59.57
37.16
16.70
-1.70
-18.36
-33.71
-48.04
-61.44
-73.80
-84.93
-94.76
-103.40
-111.08
-118.07
-124.50
-130.26
-135.10
-138.80
-141.35
-143.18
-145.10
-148.14
-153.15
-160.43
-169.56
-179.51
-188.97
-196.83
-202.53
-206.18
-208.45
-210.32
-212.60
-215.66
-219.19
-222.03
-222.34
-218.15
-208.17
-192.46
-172.87
-152.53
-134.79
-121.79
-113.56
-107.90
-101.15
-89.72
-71.74
-48.19
-22.98
-1.79
9.77
8.26
-6.37
-30.74
-59.34
-86.34
-107.31
-119.87
-123.60
-119.19
-107.89
-91.27
-71.38
-50.72
-31.78
-16.34
-4.72
4.22
12.53
22.12
33.88
47.11
59.76
69.16
73.04
70.38
61.89
49.87
37.50
27.81
22.75
22.68
26.41
31.86
36.99
40.47
42.05
42.28
41.95
41.56
41.11
40.24
38.58
35.99
32.53
28.26
23.07
16.65
8.83
-0.09
-9.15
-16.89
-21.79
-22.78
-19.65
-13.04
-4.24
5.23
14.01
21.12
26.15
29.17
30.60
30.94
30.58
29.67
28.23
26.25
23.81
21.14
18.58
16.38
14.73
13.60
12.86
12.33
11.78
10.95
9.52
7.12
3.38
-1.95
-8.83
-16.77
-24.83
-31.84
-36.81
-39.21
-39.22
-37.55
-35.18
-32.95
-31.40
-30.76
-31.12
-32.52
-34.95
-38.22
-41.85
-45.13
-47.34
-48.04
-47.27
-45.49
-43.27
-40.97
-38.46
-35.25
-30.78
-24.84
-17.78
-10.42
-3.69
1.80
5.97
9.29
12.54
16.51
21.77
28.45
36.19
44.02
50.42
53.63
52.18
45.56
34.57
21.25
8.20
-2.32
-9.09
-12.10
-12.27
-10.90
-9.15
-7.81
-7.41
-8.27
-10.58
-14.28
-18.89
-23.36
-26.30
-26.34
-22.59
-15.04
-4.60
7.09
18.20
27.27
33.53
36.97
38.12
37.59
35.81
32.93
28.97
24.10
18.77
13.69
9.54
6.76
5.23
4.33
3.02
0.21
-4.80
-12.01
-20.64
-29.30
-36.47
-40.94
-42.14
-40.16
-35.49
-28.71
-20.23
-10.34
0.68
12.34
23.95
34.73
44.08
51.73
57.80
62.64
66.67
70.16
73.18
75.58
77.14
77.70
77.26
75.98
74.21
72.36
70.91
70.43
71.52
74.70
80.20
87.59
95.76
103.02
107.57
108.10
104.14
96.05
84.69
70.99
55.69
39.37
22.59
5.96
-9.92
-24.74
-38.59
-51.88
-64.99
-77.90
-90.11
-100.82
-109.38
-115.47
-119.17
-120.66
-120.00
-117.20
-112.53
-106.84
-101.53
-98.13
-97.61
-99.94
-104.08
-108.49
-111.93
-113.96
-114.92
-115.47
-116.13
-116.89
-117.26
-116.32
-112.81
-105.10
-91.42
-70.48
-42.26
-8.54
27.28
61.15
89.76
111.57
127.01
137.90
146.27
153.57
160.25
165.98
170.16
172.33
172.34
170.19
165.87
159.11
149.44
136.41
119.86
100.19
78.35
55.73
33.84
13.94
-3.18
-17.30
-28.79
-38.51
-47.65
-57.27
-67.87
-79.07
-89.75
-98.61
-104.90
-108.74
-110.77
-111.42
-110.34
-106.43
-98.64
-86.71
-71.54
-54.65
-37.17
-19.08
0.70
23.33
48.77
75.20
99.51
118.64
131.01
137.14
139.23
140.05
141.64
144.77
148.84
152.30
153.09
149.15
138.97
122.32
100.78
77.68
57.32
43.51
38.17
40.50
47.43
54.81
58.92
57.56
50.19
37.51
20.71
0.84
-21.30
-44.92
-68.99
-91.97
-111.96
-127.13
-136.26
-139.22
-137.05
-131.48
-124.33
-116.90
-109.79
-103.12
-96.99
-91.72
-87.80
-85.53
-84.59
-84.00
-82.47
-78.89
-72.80
-64.53
-55.04
-45.48
-36.79
-29.45
-23.39
-18.13
-13.02
-7.61
-1.88
3.67
8.25
11.20
12.36
12.19
11.56
11.33
12.07
13.87
16.50
19.52
22.34
24.28
24.62
22.85
19.05
14.08
9.42
6.65
6.73
9.45
13.50
16.93
17.95
15.52
9.57
0.90
-9.16
-19.12
-27.58
-33.49
-36.30
-36.07
-33.46
-29.53
-25.45
-22.20
-20.45
-20.52
-22.40
-25.76
-29.88
-33.72
-36.17
-36.44
-34.44
-30.94
-27.29
-24.87
-24.49
-26.02
-28.50
-30.61
-31.30
-30.27
-28.04
-25.70
-24.44
-25.01
-27.54
-31.51
-36.04
-40.18
-43.13
-44.38
-43.67
-41.05
-36.75
-31.22
-25.05
-18.84
-13.15
-8.35
-4.59
-1.94
-0.44
-0.24
-1.58
-4.52
-8.61
-12.64
-14.78
-13.23
-7.09
2.89
14.32
23.91
28.80
27.64
21.05
11.19
0.64
-8.69
-16.15
-22.30
-28.30
-35.18
-43.42
-52.76
-62.46
-71.64
-79.53
-85.78
-90.43
-93.76
-96.11
-97.66
-98.25
-97.43
-94.62
-89.41
-81.84
-72.62
-63.04
-54.61
-48.55
-45.35
-44.61
-45.11
-45.15
-42.89
-36.85
-26.23
-11.14
7.28
27.15
46.33
63.05
76.42
86.60
94.59
101.71
109.03
116.93
124.98
132.01
136.59
137.41
133.91
126.50
116.68
106.53
98.21
93.27
92.36
95.19
100.87
108.16
115.95
123.33
129.78
135.20
139.78
143.90
147.82
151.52
154.68
156.78
157.41
156.49
154.39
151.76
149.32
147.59
146.66
146.21
145.54
143.75
140.05
134.00
125.68
115.84
105.74
96.69
89.53
84.07
78.90
71.80
60.46
43.55
21.32
-4.21
-29.92
-52.60
-69.98
-81.47
-88.16
-92.19
-95.77
-100.35
-106.23
-112.80
-119.11
-124.48
-128.72
-132.04
-134.68
-136.65
-137.75
-137.73
-136.60
-134.51
-131.58
-127.72
-122.54
-115.67
-107.16
-97.59
-87.95
-79.18
-71.70
-65.27
-59.11
-52.37
-44.56
-35.80
-26.64
-17.83
-9.85
-2.65
4.37
12.09
21.35
32.56
45.59
59.78
74.31
88.43
101.69
114.04
125.61
136.52
146.60
155.32
161.90
165.60
166.12
163.78
159.46
154.27
149.05
144.03
138.70
132.07
122.85
109.68
91.26
66.56
35.23
-1.98
-42.96
-84.58
-123.52
-157.41
-185.49
-208.62
-228.38
-246.01
-261.65
-274.37
-282.93
-286.54
-285.13
-278.96
-267.93
-251.05
-226.56
-192.76
-149.24
-97.75
-42.29
11.75
59.15
96.44
122.74
139.56
149.80
156.31
160.82
163.51
163.25
158.29
146.97
128.30
102.31
70.27
34.62
-1.21
-33.47
-58.91
-75.54
-82.91
-81.91
-74.25
-61.89
-46.69
-30.31
-14.30
-0.13
10.93
18.01
20.92
20.26
17.25
13.42
10.09
8.11
7.55
7.98
8.84
9.84
11.17
13.38
17.06
22.34
28.75
35.28
40.84
44.63
46.44
46.60
45.73
44.47
43.28
42.46
42.30
43.15
45.33
48.87
53.12
56.74
58.06
55.73
49.36
39.68
28.16
16.41
5.47
-4.39
-13.45
-22.10
-30.38
-37.82
-43.67
-47.13
-47.82
-45.94
-42.35
-38.42
-35.89
-36.54
-41.79
-52.33
-67.84
-87.03
-107.93
-128.43
-146.77
-161.95
-173.75
-182.44
-188.14
-190.51
-188.46
-180.59
-165.80
-143.92
-116.17
-84.92
-53.19
-23.82
1.22
21.19
36.44
47.94
56.67
63.22
67.65
69.72
69.25
66.35
61.58
55.85
50.13
45.29
42.01
40.66
41.38
43.96
47.89
52.49
56.98
60.63
62.88
63.37
62.03
59.13
55.25
51.23
47.88
45.81
45.17
45.61
46.47
46.93
46.38
44.50
41.39
37.47
33.35
29.62
26.61
24.25
22.04
19.32
15.53
10.50
4.50
-1.86
-7.95
-13.31
-17.80
-21.62
-25.15
-28.87
-33.12
-37.93
-42.88
-47.05
-49.29
-48.60
-44.62
-37.74
-29.04
-19.82
-10.98
-2.79
5.17
13.70
23.47
34.59
46.41
57.67
66.84
72.63
74.42
72.46
67.90
62.35
57.34
53.75
51.49
49.59
46.74
41.99
35.26
27.42
19.80
13.48
8.71
4.81
0.49
-5.47
-13.59
-23.49
-33.93
-43.33
-50.08
-52.96
-51.47
-46.08
-38.46
-31.32
-27.77
-30.34
-39.86
-54.96
-72.38
-88.10
-98.79
-102.88
-100.89
-94.86
-87.35
-80.39
-75.02
-71.28
-68.70
-66.72
-64.92
-63.05
-60.77
-57.49
-52.41
-44.66
-33.69
-19.66
-3.56
12.90
27.82
39.84
48.67
55.14
60.75
66.77
73.66
80.72
86.49
89.48
88.78
84.35
76.88
67.41
56.93
46.20
35.61
25.14
14.36
2.56
-11.00
-26.58
-43.56
-60.14
-73.43
-80.10
-77.52
-64.84
-43.66
-17.93
7.13
26.63
37.45
38.93
32.73
21.72
8.79
-3.94
-15.47
-25.56
-34.36
-42.02
-48.62
-54.28
-59.18
-63.46
-67.13
-69.95
-71.47
-71.14
-68.69
-64.20
-58.20
-51.43
-44.66
-38.39
-32.79
-27.72
-22.93
-18.25
-13.69
-9.46
-5.91
-3.37
-2.00
-1.66
-1.91
-2.04
-1.29
1.02
5.17
11.03
17.94
24.92
30.97
35.40
38.13
39.70
41.08
43.15
46.47
51.05
56.46
61.90
66.18
67.93
65.84
59.14
47.95
33.24
16.38
-1.53
-19.93
-38.72
-57.64
-75.76
-91.39
-102.48
-107.27
-104.74
-94.71
-77.81
-55.58
-30.40
-5.33
16.67
33.94
46.97
58.37
71.71
89.80
113.22
140.08
166.91
190.19
207.64
218.67
224.00
224.87
222.23
216.42
207.33
194.82
179.13
161.08
141.87
122.58
103.83
85.65
67.62
49.30
30.54
11.56
-7.27
-25.72
-43.80
-61.69
-79.51
-97.18
-114.37
-130.63
-145.39
-157.94
-167.48
-173.27
-175.01
-173.08
-168.55
-162.80
-156.94
-151.44
-146.12
-140.57
-134.65
-128.63
-123.10
-118.43
-114.44
-110.40
-105.48
-99.26
-92.05
-84.75
-78.43
-73.74
-70.60
-68.22
-65.31
-60.51
-52.81
-41.77
-27.60
-11.07
6.71
24.59
41.57
56.97
70.31
81.22
89.34
94.31
95.97
94.46
90.37
84.62
78.21
71.95
66.35
61.53
57.44
54.01
51.29
49.46
48.63
48.69
49.20
49.43
48.67
46.49
42.96
38.64
34.35
30.82
28.30
26.52
24.87
22.77
19.95
16.60
13.20
10.23
7.97
6.47
5.64
5.40
5.79
6.85
8.59
10.92
13.60
16.35
18.91
21.10
22.85
24.21
25.27
26.14
26.81
27.13
26.79
25.51
23.13
19.78
15.82
11.69
7.73
4.07
0.65
-2.57
-5.47
-7.69
-8.67
-7.80
-4.70
0.73
8.23
17.29
27.20
37.18
46.49
54.54
60.99
65.80
69.22
71.72
73.86
76.08
78.57
81.22
83.62
85.25
85.74
85.01
83.30
81.07
78.69
76.21
73.32
69.60
64.82
59.21
53.39
48.10
43.80
40.31
36.80
32.14
25.36
16.18
5.22
-6.23
-16.73
-25.36
-32.12
-37.99
-44.55
-53.34
-65.28
-80.34
-97.49
-115.01
-130.92
-143.49
-151.61
-155.14
-154.93
-152.67
-150.39
-149.77
-151.43
-154.49
-156.75
-155.62
-149.15
-137.02
-120.70
-102.83
-86.11
-72.14
-61.06
-51.80
-42.93
-33.52
-23.52
-13.62
-4.70
2.66
8.39
12.70
15.87
17.90
18.66
18.05
16.37
14.57
14.00
16.04
21.35
29.63
39.60
49.53
57.98
64.44
69.52
74.72
81.82
92.01
105.16
119.37
131.08
135.95
130.30
112.59
84.27
49.57
14.07
-17.19
-41.34
-58.23
-69.80
-78.64
-86.78
-94.93
-102.64
-108.96
-112.91
-113.72
-110.80
-103.65
-92.04
-76.26
-57.34
-36.94
-16.96
1.02
15.97
27.48
35.58
40.65
43.46
45.38
48.37
54.75
66.44
84.17
106.92
132.00
155.69
174.39
185.59
188.48
183.88
173.67
160.17
145.49
131.29
118.57
107.54
97.63
87.86
77.47
66.59
56.35
48.31
43.38
40.92
38.73
34.06
24.93
11.24
-5.32
-22.14
-36.92
-48.45
-56.64
-62.02
-65.17
-66.54
-66.35
-64.77
-62.00
-58.25
-53.99
-49.92
-46.93
-45.62
-45.86
-46.72
-46.89
-45.51
-42.74
-39.70
-37.72
-37.51
-38.64
-39.99
-40.40
-39.49
-37.78
-36.29
-35.86
-36.74
-38.56
-40.62
-42.27
-43.13
-43.08
-42.21
-40.75
-39.03
-37.32
-35.77
-34.37
-32.99
-31.64
-30.53
-30.04
-30.46
-31.79
-33.61
-35.24
-36.04
-35.73
-34.39
-32.32
-29.83
-27.03
-23.93
-20.49
-16.71
-12.62
-8.09
-2.82
3.60
11.41
20.30
29.31
37.03
42.06
43.56
41.57
36.99
31.15
25.39
20.72
17.75
16.72
17.59
19.99
23.28
26.53
28.74
29.17
27.53
24.15
19.76
15.35
11.73
9.51
8.96
10.15
12.93
17.04
21.99
27.15
31.71
34.86
35.85
34.24
30.03
23.65
15.89
7.58
-0.58
-8.11
-14.78
-20.42
-24.89
-28.05
-29.90
-30.69
-30.91
-31.15
-31.89
-33.24
-34.92
-36.40
-37.07
-36.63
-35.13
-32.94
-30.55
-28.31
-26.24
-24.15
-21.89
-19.56
-17.62
-16.69
-17.24
-19.35
-22.64
-26.37
-29.63
-31.44
-30.96
-27.75
-22.03
-14.87
-8.00
-3.30
-2.08
-4.62
-10.16
-17.32
-24.83
-31.85
-38.02
-43.06
-46.46
-47.47
-45.38
-40.02
-32.10
-23.20
-15.22
-9.81
-7.66
-8.22
-10.02
-11.35
-11.01
-8.78
-5.28
-1.39
2.39
6.18
10.53
15.89
22.14
28.57
34.29
38.70
41.75
43.79
45.16
45.86
45.55
43.75
40.19
34.95
28.38
20.79
12.28
2.67
-8.32
-20.84
-34.72
-49.53
-64.55
-78.81
-91.03
-99.67
-103.20
-100.48
-91.27
-76.55
-58.34
-39.19
-21.47
-6.77
4.35
12.09
17.06
19.95
21.37
21.89
22.09
22.51
23.40
24.50
25.03
23.96
20.56
14.91
8.13
2.13
-1.03
0.23
6.50
17.04
30.04
42.96
53.17
58.52
57.72
50.53
37.58
20.12
-0.28
-21.97
-43.27
-62.47
-77.87
-87.97
-91.91
-89.91
-83.39
-74.80
-66.91
-61.96
-61.01
-63.80
-69.18
-75.77
-82.73
-89.84
-97.22
-104.83
-112.15
-118.23
-122.08
-123.05
-120.91
-115.67
-107.38
-96.08
-81.96
-65.56
-47.93
-30.25
-13.43
2.27
17.22
32.15
47.52
63.21
78.52
92.59
104.92
115.77
126.00
136.51
147.64
158.77
168.58
175.69
179.33
179.62
177.29
173.02
166.99
158.83
148.04
134.49
118.78
102.00
85.40
69.96
56.20
44.18
33.53
23.60
13.61
2.92
-8.68
-20.77
-32.45
-42.77
-51.12
-57.53
-62.42
-66.28
-69.25
-71.18
-71.77
-70.93
-68.78
-65.46
-60.82
-54.38
-45.49
-33.75
-19.37
-3.21
13.42
29.12
42.80
53.97
62.73
69.72
75.82
81.89
88.48
95.78
103.53
111.16
118.03
123.59
127.51
129.79
130.69
130.58
129.74
128.23
125.75
121.70
115.36
106.16
93.87
78.86
62.22
45.77
31.62
21.58
16.37
15.24
16.07
16.17
13.40
7.11
-1.43
-9.57
-14.18
-12.91
-4.97
8.56
25.12
41.36
54.01
60.42
58.81
48.19
28.11
-1.30
-39.00
-82.57
-128.03
-170.26
-204.12
-225.81
-233.92
-229.71
-216.42
-198.07
-178.44
-160.28
-145.32
-134.47
-128.10
-125.97
-127.13
-129.96
-132.32
-132.13
-127.91
-119.18
-106.47
-91.08
-74.67
-58.76
-44.44
-32.20
-22.06
-13.73
-6.92
-1.46
2.80
6.37
10.29
15.94
24.26
34.86
45.59
53.03
53.85
46.33
31.21
11.33
-9.65
-28.68
-44.16
-55.78
-63.83
-68.43
-69.48
-66.88
-61.10
-53.29
-44.96
-37.35
-30.93
-25.39
-19.90
-13.70
-6.38
1.88
10.58
19.03
26.60
32.84
37.43
40.23
41.29
40.87
39.45
37.61
35.84
34.32
32.94
31.33
29.12
26.02
21.94
16.90
11.08
4.84
-1.19
-6.14
-9.02
-9.07
-6.08
-0.53
6.48
13.55
19.53
23.80
26.37
27.70
28.38
28.87
29.35
29.73
29.76
29.23
27.97
26.05
23.68
21.20
18.90
16.98
15.42
14.02
12.53
10.75
8.57
5.94
2.87
-0.53
-4.09
-7.46
-10.20
-11.94
-12.48
-11.93
-10.62
-8.94
-7.19
-5.52
-4.02
-2.83
-2.13
-2.11
-2.86
-4.31
-6.14
-7.90
-9.09
-9.31
-8.37
-6.22
-2.97
1.22
6.15
11.60
17.20
22.53
27.19
30.95
33.86
36.19
38.23
40.13
41.73
42.69
42.63
41.40
39.08
36.01
32.62
29.44
26.94
25.49
25.20
25.85
26.87
27.48
27.04
25.32
22.56
19.36
16.42
14.17
12.60
11.32
9.67
7.01
2.92
-2.71
-9.63
-17.29
-24.91
-31.66
-36.77
-39.67
-40.19
-38.53
-35.32
-31.33
-27.25
-23.40
-19.55
-15.12
-9.44
-2.20
6.26
15.02
22.93
29.18
33.66
36.99
40.05
43.40
46.84
49.52
50.34
48.54
43.94
36.85
27.66
16.50
3.08
-13.09
-32.28
-54.23
-78.08
-102.52
-126.21
-148.11
-167.63
-184.49
-198.47
-209.05
-215.52
-217.26
-214.32
-207.93
-200.40
-194.50
-192.42
-194.89
-200.86
-207.91
-213.02
-213.31
-206.30
-189.92
-162.45
-123.04
-72.61
-14.65
44.77
98.35
139.87
166.50
179.88
185.39
189.83
198.50
213.34
232.51
251.87
267.03
275.16
275.65
269.63
258.91
245.03
228.97
211.42
193.50
177.18
165.22
160.24
163.60
174.32
189.05
203.03
211.84
213.15
207.51
197.85
187.91
180.36
175.79
172.76
169.06
163.10
154.84
145.63
137.32
131.19
127.29
124.60
121.56
116.74
109.17
98.14
82.88
62.45
35.98
3.43
-33.70
-72.20
-107.73
-136.00
-154.06
-161.19
-158.83
-149.93
-137.93
-125.90
-116.05
-109.62
-106.93
-107.34
-109.27
-110.28
-107.65
-99.02
-83.29
-61.03
-34.64
-7.77
15.63
32.31
40.56
40.58
34.18
24.07
13.03
3.20
-4.16
-8.63
-10.36
-9.79
-7.52
-4.25
-0.78
2.16
4.02
4.80
5.24
6.79
11.13
19.48
31.75
46.28
60.10
69.91
73.29
69.54
59.82
46.50
32.15
18.68
7.00
-2.84
-11.23
-18.61
-25.33
-31.65
-37.70
-43.50
-48.82
-53.23
-56.24
-57.42
-56.68
-54.25
-50.62
-46.32
-41.68
-36.68
-31.03
-24.46
-16.97
-9.15
-2.18
2.33
2.78
-1.91
-11.83
-25.77
-41.28
-55.13
-64.08
-65.81
-59.61
-46.59
-29.27
-10.81
5.81
18.54
26.53
29.97
29.81
27.10
22.51
15.94
6.63
-6.31
-23.12
-42.72
-62.75
-80.19
-92.53
-98.65
-99.06
-95.20
-88.49
-79.68
-69.12
-57.60
-47.16
-40.72
-40.75
-47.58
-58.50
-68.44
-72.16
-66.60
-52.28
-32.84
-13.13
3.02
14.21
21.44
27.14
33.57
41.72
50.93
59.08
63.32
61.39
52.51
37.80
19.78
1.52
-14.21
-25.26
-30.17
-27.98
-18.53
-3.10
15.07
30.90
38.73
34.36
16.65
-11.77
-45.46
-78.01
-104.27
-121.67
-130.68
-134.25
-136.66
-142.21
-153.84
-172.18
-195.22
-219.12
-239.28
-252.04
-256.03
-252.86
-246.67
-242.71
-245.44
-256.24
-272.63
-288.73
-297.37
-292.37
-270.83
-234.40
-189.15
-144.12
-108.21
-87.12
-81.24
-85.72
-92.06
-91.66
-79.04
-53.35
-17.92
22.95
66.76
114.44
169.24
235.04
313.90
405.20
506.72
610.15
703.46
772.66
806.00
797.79
751.03
675.86
586.70
499.73
428.79
382.11
359.54
356.00
358.87
356.66
342.21
313.40
272.82
225.17
175.17
126.10
79.70
35.94
-5.96
-43.93
-78.06
-109.91
-142.09
-176.82
-214.80
-254.41
-292.57
-325.35
-349.90
-366.04
-375.72
-382.56
-390.56
-402.90
-420.77
-442.99
-465.77
-483.92
-492.99
-490.36
-476.27
-453.53
-426.32
-398.40
-372.00
-347.47
-324.04
-301.25
-279.23
-258.58
-239.70
-222.09
-204.33
-184.59
-161.47
-134.53
-104.39
-72.02
-38.15
-3.01
33.42
70.75
107.84
142.79
173.52
198.41
216.90
229.57
237.65
242.44
244.84
245.25
243.61
239.66
233.05
223.50
211.00
196.13
180.18
165.00
152.38
143.23
137.00
131.70
124.65
113.69
98.15
79.19
59.24
41.09
26.90
17.79
13.89
14.72
19.49
27.29
37.00
47.33
56.93
64.59
69.49
71.34
70.31
66.93
61.85
55.75
49.13
42.35
35.52
28.58
21.38
13.73
5.47
-3.55
-13.51
-24.53
-36.64
-49.66
-63.24
-76.87
-89.97
-101.95
-112.24
-120.18
-124.99
-125.81
-121.91
-113.11
-99.97
-83.91
-66.78
-50.32
-35.40
-21.77
-8.30
6.14
21.81
37.43
50.37
57.51
56.48
46.54
28.78
5.69
-19.71
-44.49
-66.23
-83.28
-94.92
-101.65
-105.08
-107.40
-110.21
-113.64
-116.12
-115.20
-109.09
-97.74
-83.22
-68.53
-56.01
-46.02
-36.84
-25.69
-10.21
10.50
35.93
64.85
96.30
129.97
165.70
202.50
237.84
267.80
288.03
295.42
289.28
271.58
246.07
217.01
188.09
161.91
139.96
122.48
108.43
95.54
80.90
62.12
38.62
12.28
-13.11
-33.44
-46.05
-50.67
-49.24
-44.55
-38.96
-33.59
-28.54
-23.51
-18.52
-13.90
-10.01
-6.89
-4.19
-1.34
1.95
5.28
7.67
7.90
5.13
-0.66
-8.48
-16.58
-23.00
-26.13
-25.14
-20.19
-12.34
-3.24
5.34
11.94
15.86
17.24
16.93
16.18
16.22
17.94
21.65
27.01
33.19
38.99
43.19
44.82
43.45
39.36
33.52
27.46
22.92
21.27
22.99
27.33
32.41
35.73
35.02
29.12
18.49
5.06
-8.52
-19.80
-27.42
-31.41
-32.89
-33.38
-34.08
-35.48
-37.31
-38.87
-39.53
-39.00
-37.49
-35.51
-33.62
-32.33
-32.06
-33.26
-36.39
-41.82
-49.48
-58.67
-68.01
-75.82
-80.68
-81.97
-80.06
-76.07
-71.37
-67.01
-63.42
-60.50
-57.95
-55.58
-53.40
-51.52
-49.89
-48.28
-46.32
-43.77
-40.70
-37.50
-34.67
-32.53
-31.04
-29.88
-28.65
-27.18
-25.66
-24.41
-23.64
-23.16
-22.37
-20.56
-17.25
-12.53
-6.98
-1.41
3.63
8.17
12.77
18.18
24.85
32.48
39.97
45.77
48.46
47.29
42.41
34.85
26.17
18.01
11.68
7.80
6.18
5.76
4.85
1.70
-4.99
-15.42
-28.67
-42.99
-56.51
-67.89
-76.62
-82.82
-86.72
-88.29
-87.04
-82.35
-73.81
-61.54
-46.18
-28.66
-9.90
9.37
28.60
47.31
65.01
81.19
95.43
107.49
117.29
124.83
130.07
132.91
133.17
130.69
125.33
116.96
105.49
90.79
72.81
51.71
28.10
3.13
-21.54
-44.00
-62.42
-75.54
-82.90
-84.90
-82.59
-77.21
-69.85
-61.26
-51.90
-42.15
-32.45
-23.39
-15.41
-8.64
-2.80
2.69
8.38
14.42
20.47
25.84
29.83
32.07
32.70
32.32
31.68
31.38
31.65
32.29
32.71
32.20
30.16
26.30
20.86
14.45
7.99
2.34
-1.88
-4.45
-5.48
-5.27
-4.15
-2.46
-0.50
1.42
2.91
3.70
3.64
2.85
1.70
0.69
0.35
1.04
2.97
6.15
10.39
15.37
20.46
24.73
26.97
26.03
21.33
13.23
3.07
-7.22
-15.96
-22.37
-26.94
-31.03
-36.19
-43.37
-52.53
-62.79
-72.97
-82.09
-89.71
-95.69
-99.92
-102.07
-101.54
-97.80
-90.73
-80.87
-69.36
-57.58
-46.61
-36.96
-28.47
-20.57
-12.76
-4.95
2.30
7.87
10.58
9.62
5.09
-1.92
-9.56
-15.93
-19.75
-20.86
-20.10
-18.82
-18.08
-18.18
-18.62
-18.53
-17.25
-14.69
-11.45
-8.39
-6.32
-5.64
-6.20
-7.40
-8.36
-8.14
-5.95
-1.35
5.64
14.55
24.41
33.81
41.05
44.34
42.22
34.09
20.55
3.46
-14.43
-30.21
-41.52
-47.17
-47.20
-42.58
-34.74
-25.07
-14.69
-4.47
4.92
12.87
18.92
22.89
25.06
26.28
27.81
31.10
37.41
47.62
62.06
80.51
102.17
125.61
148.83
169.43
185.01
193.78
194.97
189.03
177.39
161.98
144.58
126.39
107.78
88.34
67.18
43.52
17.39
-10.03
-36.47
-59.43
-77.23
-89.83
-98.76
-106.26
-113.95
-121.94
-128.92
-132.99
-132.95
-128.83
-121.76
-113.11
-103.63
-93.19
-81.26
-67.59
-52.79
-38.41
-26.41
-18.52
-15.58
-17.27
-22.22
-28.32
-33.33
-35.48
-33.94
-28.92
-21.57
-13.41
-5.83
0.28
4.57
7.02
7.73
6.80
4.43
1.04
-2.64
-5.79
-7.79
-8.47
-8.14
-7.43
-6.94
-7.01
-7.69
-8.82
-10.21
-11.78
-13.48
-15.25
-16.84
-17.85
-17.76
-16.15
-12.76
-7.55
-0.67
7.55
16.70
26.31
35.87
44.86
52.75
58.93
62.83
64.07
62.63
58.99
54.17
49.44
45.96
44.43
44.93
46.93
49.70
52.52
54.89
56.42
56.69
55.15
51.23
44.53
35.03
23.19
9.73
-4.56
-19.03
-33.30
-47.15
-60.43
-73.02
-84.83
-95.77
-105.87
-115.20
-124.06
-132.98
-142.83
-154.60
-169.16
-186.81
-206.91
-227.96
-247.87
-264.35
-275.24
-278.61
-273.00
-257.77
-233.71
-203.33
-170.70
-140.69
-117.88
-105.57
-105.37
-117.04
-138.53
-166.05
-194.23
-216.69
-227.31
-221.67
-198.17
-158.19
-105.41
-44.52
19.80
83.52
143.60
198.14
246.36
288.39
324.44
353.90
374.65
383.34
376.81
353.87
316.70
270.88
224.04
183.74
155.74
143.11
146.35
163.85
192.46
227.85
265.04
299.11
326.24
344.60
354.57
358.08
357.45
354.22
348.65
340.03
327.40
310.34
289.12
264.45
237.00
207.23
175.48
142.35
108.87
76.29
45.60
17.32
-8.33
-30.77
-48.64
-60.06
-63.77
-60.46
-53.34
-47.41
-47.50
-56.12
-72.40
-92.58
-112.00
-127.14
-136.88
-142.25
-145.08
-146.81
-147.85
-147.88
-146.65
-144.44
-141.95
-139.86
-138.21
-136.16
-132.43
-126.00
-116.67
-105.29
-93.34
-82.27
-72.85
-64.89
-57.57
-49.92
-41.39
-32.01
-22.32
-13.03
-4.70
2.42
8.24
12.84
16.31
18.85
20.76
22.47
24.42
26.95
30.15
33.88
37.80
41.58
44.91
47.52
49.15
49.47
48.11
44.79
39.43
32.32
24.08
15.56
7.59
0.71
-4.96
-9.69
-13.94
-18.07
-22.18
-26.10
-29.54
-32.30
-34.33
-35.76
-36.80
-37.60
-38.31
-39.05
-39.96
-41.11
-42.39
-43.51
-44.05
-43.59
-41.98
-39.39
-36.27
-33.18
-30.52
-28.34
-26.40
-24.31
-21.81
-18.99
-16.32
-14.47
-14.04
-15.23
-17.84
-21.31
-25.03
-28.48
-31.36
-33.51
-34.85
-35.37
-35.09
-34.10
-32.54
-30.55
-28.20
-25.61
-23.06
-21.00
-19.91
-20.07
-21.23
-22.60
-23.17
-22.25
-19.84
-16.77
-14.28
-13.40
-14.53
-17.25
-20.64
-23.63
-25.44
-25.72
-24.55
-22.35
-19.80
-17.68
-16.71
-17.26
-19.25
-22.16
-25.23
-27.83
-29.57
-30.26
-29.78
-27.96
-24.65
-19.87
-14.03
-7.88
-2.21
2.45
6.03
8.90
11.57
14.44
17.65
21.06
24.44
27.55
30.28
32.58
34.43
35.86
36.92
37.69
38.26
38.66
38.84
38.77
38.44
37.96
37.42
36.81
35.85
34.02
30.82
25.94
19.47
11.93
4.04
-3.49
-10.17
-15.78
-20.36
-24.11
-27.39
-30.56
-33.91
-37.57
-41.50
-45.48
-49.40
-53.25
-57.21
-61.46
-65.91
-70.08
-73.08
-73.83
-71.41
-65.38
-55.85
-43.71
-30.45
-18.12
-8.98
-5.00
-7.20
-15.20
-27.06
-39.89
-50.81
-57.95
-61.02
-61.09
-59.80
-58.47
-57.54
-56.67
-55.24
-52.81
-49.30
-44.90
-39.63
-33.22
-25.20
-15.22
-3.34
9.83
23.30
36.18
47.98
58.81
69.26
79.97
91.33
103.23
115.14
126.39
136.49
145.28
152.87
159.39
164.77
168.68
170.75
170.79
168.99
165.91
162.27
158.68
155.28
151.76
147.49
141.75
134.07
124.29
112.47
98.57
82.23
62.79
39.54
12.13
-19.13
-53.21
-88.56
-123.30
-155.38
-182.55
-202.23
-211.87
-209.54
-194.77
-169.18
-136.34
-100.93
-67.42
-38.86
-16.43
0.26
12.38
21.10
27.25
31.47
34.58
37.90
43.10
51.56
63.59
77.64
90.40
97.68
96.18
85.04
66.60
45.55
26.88
13.68
5.93
1.14
-3.74
-10.25
-17.51
-22.89
-23.89
-19.74
-11.95
-3.49
2.74
5.14
3.79
-0.14
-5.22
-10.58
-16.07
-21.99
-28.69
-36.23
-44.25
-52.09
-59.05
-64.66
-68.88
-72.14
-75.06
-78.12
-81.21
-83.57
-84.09
-81.93
-77.07
-70.41
-63.35
-57.19
-52.39
-48.53
-44.71
-40.23
-35.06
-29.81
-25.33
-22.04
-19.66
-17.39
-14.37
-10.23
-5.38
-0.88
2.02
2.32
-0.33
-5.60
-12.70
-20.75
-29.07
-37.31
-45.31
-52.84
-59.50
-64.70
-67.85
-68.51
-66.65
-62.65
-57.38
-52.25
-49.35
-51.24
-60.41
-78.35
-104.41
-135.36
-165.77
-189.57
-201.94
-200.80
-187.31
-165.10
-138.99
-113.72
-93.25
-80.52
-77.60
-85.64
-104.66
-133.33
-168.87
-207.30
-243.93
-274.11
-293.83
-300.35
-292.58
-270.92
-236.74
-191.62
-136.99
-74.38
-6.19
63.86
131.09
191.25
242.15
284.40
320.69
353.81
384.68
411.48
430.53
438.32
433.29
416.51
390.92
359.74
325.21
288.20
248.71
206.86
163.48
120.40
80.18
45.54
18.72
0.96
-7.84
-9.13
-5.36
0.77
7.07
12.34
16.45
19.95
23.51
27.50
32.04
37.20
43.30
50.88
60.38
71.67
83.88
95.57
105.34
112.26
116.15
117.48
117.03
115.60
113.92
112.60
112.16
112.92
114.86
117.63
120.69
123.60
126.23
128.64
130.95
133.09
134.74
135.58
135.48
134.65
133.48
132.29
131.04
129.28
126.34
121.62
114.85
106.17
96.02
84.88
73.17
61.10
48.77
36.29
23.83
11.71
0.27
-10.19
-19.50
-27.65
-34.82
-41.25
-47.19
-52.81
-58.08
-62.88
-67.00
-70.26
-72.67
-74.36
-75.58
-76.50
-77.11
-77.10
-76.09
-73.75
-70.15
-65.84
-61.73
-58.82
-57.75
-58.49
-60.27
-61.90
-62.22
-60.72
-57.75
-54.40
-51.98
-51.58
-53.67
-58.11
-64.31
-71.38
-78.32
-83.99
-87.48
-88.33
-87.03
-84.99
-84.22
-86.51
-92.48
-100.79
-107.98
-109.41
-100.85
-80.42
-49.95
-14.91
17.10
38.93
46.26
38.78
19.67
-6.20
-34.27
-61.44
-85.98
-106.74
-122.43
-131.77
-134.20
-130.59
-123.29
-115.16
-108.25
-102.89
-97.62
-90.20
-78.91
-63.64
-46.02
-28.68
-14.26
-4.49
0.18
0.33
-2.85
-8.06
-14.12
-20.17
-25.65
-30.41
-34.59
-38.58
-42.84
-47.85
-54.04
-61.80
-71.23
-82.00
-93.05
-102.57
-108.27
-107.92
-99.94
-83.89
-60.56
-31.82
-0.30
31.21
60.15
84.60
103.55
116.85
125.07
129.16
130.02
128.33
124.41
118.27
109.78
98.78
85.29
69.75
53.25
37.71
25.46
18.55
17.74
21.78
27.49
30.72
27.83
17.00
-1.23
-24.48
-49.58
-73.73
-95.14
-112.96
-126.95
-137.15
-143.68
-146.80
-146.88
-144.22
-138.76
-130.01
-117.25
-99.90
-78.00
-52.45
-24.91
2.56
27.80
49.02
64.91
74.91
79.23
78.76
74.96
69.42
63.61
58.54
54.51
51.20
47.80
43.35
37.12
29.02
19.67
10.34
2.39
-3.32
-6.84
-9.07
-11.30
-14.47
-18.54
-22.35
-24.12
-22.15
-15.70
-5.37
7.01
19.07
28.68
34.76
37.39
37.53
36.40
34.91
33.49
32.25
31.26
30.60
30.18
29.54
27.97
24.95
20.70
16.23
12.83
11.33
11.60
12.62
13.22
12.74
11.08
8.32
4.14
-2.28
-11.80
-24.44
-39.22
-54.19
-66.90
-74.70
-74.89
-64.85
-43.27
-11.57
25.08
58.51
80.25
85.12
73.77
52.39
29.73
12.61
2.87
-2.81
-10.04
-22.72
-40.33
-58.04
-69.47
-70.29
-60.49
-44.30
-28.00
-17.29
-15.50
-23.56
-40.87
-65.91
-96.26
-127.88
-155.08
-171.88
-174.25
-161.92
-138.35
-108.77
-77.31
-45.32
-11.87
23.92
60.61
94.01
119.07
133.04
137.56
138.38
142.47
154.41
173.99
196.44
214.85
223.55
220.39
207.13
188.01
167.43
148.16
130.78
114.34
97.48
79.53
60.84
42.65
26.58
14.08
5.98
2.25
1.97
3.50
4.88
4.38
0.97
-5.33
-13.58
-22.32
-30.14
-36.17
-40.39
-43.44
-46.21
-49.40
-53.16
-57.11
-60.60
-63.09
-64.35
-64.42
-63.36
-61.08
-57.45
-52.62
-47.34
-42.85
-40.30
-39.93
-40.63
-40.28
-36.77
-29.20
-18.30
-6.02
5.61
15.43
23.41
30.07
35.70
39.89
41.74
40.69
37.08
32.23
27.81
24.95
23.74
23.33
22.63
21.01
18.70
16.59
15.70
16.71
19.57
23.57
27.55
30.21
30.58
28.35
24.19
19.78
17.62
20.37
30.01
47.01
70.06
96.35
122.40
144.98
161.71
171.29
173.30
167.93
155.73
137.73
115.84
93.23
74.24
63.50
64.17
76.21
95.51
114.57
124.66
118.67
93.45
50.64
-4.26
-63.74
-120.37
-168.16
-203.18
-223.55
-229.50
-223.17
-208.44
-190.15
-173.05
-160.82
-155.32
-156.52
-162.87
-171.94
-181.10
-188.00
-190.99
-189.29
-183.03
-173.14
-160.91
-147.49
-133.38
-118.38
-101.77
-82.96
-62.06
-40.12
-18.83
0.07
15.43
26.92
34.95
40.15
43.11
44.14
43.48
41.38
38.35
35.04
32.06
29.79
28.29
27.35
26.64
25.76
24.40
22.33
19.44
15.78
11.59
7.24
3.17
-0.21
-2.59
-3.79
-3.84
-3.05
-2.02
-1.69
-3.13
-7.24
-14.33
-23.86
-34.44
-44.37
-52.14
-57.11
-59.52
-60.22
-60.10
-59.61
-58.63
-56.69
-53.40
-48.61
-42.34
-34.65
-25.58
-15.42
-5.16
3.23
7.00
3.37
-9.53
-31.89
-62.07
-97.10
-133.45
-167.79
-197.33
-219.86
-233.64
-237.47
-231.05
-215.34
-192.77
-166.91
-141.64
-120.14
-104.02
-92.97
-85.25
-78.44
-70.56
-60.62
-48.75
-35.75
-22.38
-9.02
4.30
17.47
30.05
41.40
51.11
59.38
66.80
73.74
79.58
82.66
81.03
73.69
61.38
46.50
31.80
18.94
7.72
-3.48
-16.34
-31.26
-46.80
-60.37
-69.51
-72.91
-70.64
-63.66
-53.10
-39.82
-24.55
-8.24
7.74
21.82
32.86
40.73
46.48
52.02
59.42
70.17
84.78
102.71
122.62
142.81
161.61
177.90
191.26
202.10
211.37
220.10
228.96
237.83
245.79
251.38
252.89
248.81
238.17
220.83
197.82
171.37
144.72
121.41
104.32
94.84
92.46
95.13
100.00
104.39
106.48
105.57
101.79
95.69
87.92
79.08
69.77
60.67
52.33
45.01
38.42
31.84
24.44
15.76
6.10
-3.47
-11.51
-16.79
-18.76
-17.80
-14.98
-11.67
-9.08
-8.13
-9.38
-13.07
-19.09
-26.82
-35.12
-42.52
-47.60
-49.38
-47.62
-42.67
-35.32
-26.45
-16.97
-7.78
0.20
6.24
10.04
12.15
13.94
17.27
23.80
34.27
48.23
64.17
80.13
94.40
106.05
115.07
122.01
127.37
131.16
132.59
130.37
123.24
110.63
93.09
72.23
50.22
29.08
10.09
-6.56
-21.64
-36.23
-50.98
-65.48
-78.04
-85.90
-86.11
-76.57
-57.08
-29.85
0.54
28.07
46.49
50.84
38.68
10.82
-28.84
-74.22
-118.65
-156.35
-183.66
-199.33
-204.16
-200.19
-189.95
-175.98
-160.69
-146.25
-134.44
-126.23
-121.49
-118.95
-116.76
-113.29
-108.00
-101.64
-95.97
-92.91
-93.61
-97.93
-104.49
-111.31
-116.57
-119.31
-119.56
-117.98
-115.35
-111.96
-107.50
-101.15
-92.02
-79.54
-63.66
-44.83
-23.86
-1.72
20.52
41.68
60.60
76.30
88.31
96.84
102.73
107.04
110.63
113.71
115.91
116.44
114.63
110.15
103.22
94.51
84.91
75.27
66.22
58.02
50.57
43.50
36.41
29.05
21.49
14.09
7.38
1.95
-1.64
-2.92
-1.63
2.13
7.76
14.22
20.29
25.01
27.94
29.24
29.42
28.87
27.67
25.57
22.30
17.88
12.80
7.92
4.14
2.14
2.14
3.92
6.87
10.27
13.40
15.73
16.97
17.10
16.26
14.57
12.08
8.68
4.25
-1.17
-7.32
-13.59
-19.23
-23.44
-25.69
-25.84
-24.22
-21.55
-18.68
-16.39
-15.15
-15.09
-16.02
-17.64
-19.54
-21.33
-22.64
-23.23
-23.17
-22.80
-22.72
-23.55
-25.67
-29.03
-33.11
-37.18
-40.57
-42.94
-44.38
-45.18
-45.69
-46.06
-46.23
-45.96
-44.94
-42.83
-39.23
-33.59
-25.27
-13.59
1.81
20.65
41.76
63.19
82.64
98.10
108.34
113.27
113.79
111.42
107.69
103.66
99.68
95.58
91.04
86.01
80.89
76.38
73.19
71.69
71.80
73.01
74.66
76.07
76.73
76.34
74.84
72.40
69.45
66.41
63.52
60.56
56.85
51.41
43.29
32.01
17.72
1.23
-16.17
-33.15
-48.75
-62.90
-76.41
-90.76
-107.26
-126.28
-146.55
-165.34
-179.07
-184.55
-179.97
-165.71
-144.41
-120.30
-98.02
-81.31
-71.98
-69.83
-73.13
-79.66
-87.60
-95.80
-103.48
-109.65
-112.65
-110.39
-100.93
-83.28
-57.97
-27.07
6.17
38.07
65.29
85.51
98.08
103.98
105.38
104.79
104.16
104.36
105.32
106.49
107.46
108.19
108.84
109.38
109.32
107.85
104.20
98.22
90.51
82.31
74.92
69.23
65.34
62.68
60.32
57.41
53.55
48.80
43.62
38.60
34.23
30.75
28.11
26.03
24.12
22.08
19.79
17.34
14.97
12.86
11.07
9.48
7.87
6.05
3.96
1.63
-0.86
-3.46
-6.19
-8.98
-11.66
-13.92
-15.40
-15.86
-15.35
-14.19
-12.83
-11.67
-10.80
-9.97
-8.64
-6.24
-2.46
2.57
8.31
14.03
19.07
23.09
26.14
28.45
30.22
31.44
31.95
31.64
30.57
29.02
27.30
25.55
23.67
21.59
19.66
18.76
20.21
25.15
33.97
46.11
60.41
75.62
90.90
105.74
119.54
131.05
138.40
139.59
133.55
120.79
103.50
84.69
67.10
52.23
40.10
29.77
20.10
10.53
1.28
-6.83
-12.95
-16.73
-18.58
-19.50
-20.66
-22.84
-26.04
-29.50
-32.02
-32.40
-30.03
-25.05
-18.36
-11.27
-5.18
-1.26
-0.26
-2.45
-7.55
-14.87
-23.30
-31.64
-38.91
-44.68
-49.27
-53.58
-58.66
-65.22
-73.21
-81.81
-89.80
-96.06
-99.99
-101.58
-101.24
-99.46
-96.65
-93.14
-89.24
-85.49
-82.46
-80.52
-79.65
-79.31
-78.69
-77.09
-74.32
-70.83
-67.53
-65.27
-64.45
-64.74
-65.28
-65.12
-63.62
-60.80
-57.23
-53.64
-50.61
-48.31
-46.50
-44.80
-42.95
-40.95
-39.10
-37.73
-37.14
-37.33
-38.09
-39.09
-39.95
-40.49
-40.75
-40.95
-41.36
-42.13
-43.20
-44.31
-45.20
-45.68
-45.79
-45.77
-46.01
-46.85
-48.51
-50.97
-54.00
-57.24
-60.30
-63.00
-65.35
-67.76
-70.84
-75.30
-81.59
-89.65
-98.77
-107.73
-115.19
-120.08
-121.90
-120.81
-117.55
-113.15
-108.59
-104.59
-101.39
-98.71
-95.81
-91.74
-85.63
-76.96
-65.84
-52.99
-39.57
-26.93
-16.45
-9.46
-7.21
-10.69
-20.32
-35.61
-55.21
-77.10
-99.20
-119.85
-137.86
-152.38
-162.42
-166.62
-163.48
-151.84
-131.64
-104.24
-72.42
-39.67
-9.52
15.35
33.67
45.89
54.04
61.53
72.29
89.46
113.88
142.85
170.33
188.39
190.12
172.62
138.85
97.22
59.14
35.29
32.08
49.44
80.66
114.36
138.27
143.41
127.31
94.82
56.03
22.05
0.55
-6.67
-3.35
4.54
12.21
18.25
24.54
34.42
50.56
73.65
102.22
132.99
161.34
181.79
188.93
178.84
150.48
106.63
53.53
-0.76
-48.76
-85.72
-110.68
-126.04
-135.92
-144.24
-153.21
-162.95
-171.96
-178.21
-180.12
-177.01
-169.08
-156.89
-141.34
-123.59
-105.20
-88.11
-74.26
-65.08
-60.98
-61.14
-63.71
-66.25
-66.24
-61.58
-50.99
-34.35
-12.63
12.34
38.56
64.42
89.12
112.69
135.59
158.09
179.72
199.16
214.72
225.04
229.81
229.97
227.32
223.71
220.25
217.08
213.49
208.57
201.47
191.47
177.72
159.08
134.27
102.30
62.90
16.64
-35.13
-90.34
-146.14
-198.67
-243.08
-274.16
-287.63
-281.63
-257.66
-220.44
-176.88
-134.36
-99.39
-76.65
-68.70
-75.81
-95.88
-124.60
-156.16
-184.51
-204.82
-214.66
-214.39
-206.47
-194.01
-179.34
-163.20
-144.78
-122.50
-94.88
-61.24
-21.96
21.69
67.56
112.70
153.46
185.95
206.88
214.57
209.84
196.09
178.48
162.50
152.29
149.73
154.34
164.06
176.31
188.66
198.98
205.43
206.53
201.64
191.56
178.58
165.67
155.19
147.67
141.45
133.57
121.37
103.98
82.81
60.88
41.32
26.02
15.09
7.30
1.03
-4.85
-10.54
-15.40
-18.36
-18.46
-15.15
-8.39
1.42
13.50
26.91
40.54
53.42
64.89
74.82
83.52
91.33
98.13
102.92
103.85
98.94
87.14
69.05
46.98
23.95
2.28
-17.55
-37.00
-58.55
-84.28
-114.74
-148.79
-184.31
-218.96
-250.89
-278.82
-301.93
-320.08
-334.27
-346.96
-361.63
-381.13
-405.93
-433.12
-457.05
-471.59
-472.60
-459.47
-434.73
-402.18
-364.66
-322.81
-275.09
-219.16
-153.69
-79.93
-2.07
73.53
140.28
193.55
232.35
259.31
279.17
296.29
312.36
325.99
333.93
333.28
323.17
305.00
281.17
253.61
222.93
189.00
152.31
115.05
81.02
54.51
38.80
34.81
41.03
54.19
70.46
86.53
100.17
110.32
116.88
120.50
122.40
124.31
128.31
136.31
149.56
168.07
190.37
213.67
234.49
249.38
255.62
251.62
237.04
212.80
180.84
143.99
105.71
69.70
39.48
17.75
5.88
3.54
8.81
18.67
29.89
39.76
46.52
49.39
48.21
43.18
34.80
23.91
11.88
0.44
-8.74
-14.59
-17.00
-16.65
-14.57
-11.66
-8.53
-5.77
-4.18
-4.91
-9.07
-17.15
-28.59
-41.78
-54.48
-64.58
-70.67
-72.21
-69.41
-62.85
-53.27
-41.56
-28.88
-16.76
-6.83
-0.32
2.51
2.60
1.79
2.03
4.52
9.12
14.45
18.58
19.98
18.12
13.62
7.89
2.34
-2.01
-4.82
-6.22
-6.53
-6.00
-4.74
-2.67
0.34
4.39
9.51
15.58
22.43
29.73
37.11
44.19
50.57
55.92
59.98
62.68
64.10
64.53
64.42
64.32
64.78
66.17
68.55
71.59
74.64
76.85
77.35
75.45
70.63
62.67
51.69
38.52
24.78
12.94
5.73
5.26
12.13
24.94
40.54
55.05
64.93
67.99
63.61
52.50
36.14
16.27
-5.32
-26.89
-46.80
-63.69
-76.75
-85.93
-92.04
-96.45
-100.70
-105.94
-112.40
-119.36
-125.33
-128.82
-128.93
-125.90
-120.99
-115.95
-112.27
-110.63
-110.78
-111.87
-112.97
-113.39
-112.91
-111.52
-109.19
-105.72
-100.81
-94.27
-86.17
-76.99
-67.49
-58.53
-50.74
-44.34
-39.02
-34.07
-28.71
-22.27
-14.52
-5.59
4.11
14.20
24.51
35.04
45.82
56.64
66.98
76.10
83.32
88.30
91.13
92.17
91.82
90.36
87.87
84.32
79.75
74.27
68.15
61.65
54.98
48.28
41.68
35.34
29.46
24.26
19.84
16.19
13.08
10.09
6.70
2.43
-2.98
-9.45
-16.51
-23.49
-29.76
-34.91
-38.89
-41.98
-44.69
-47.49
-50.69
-54.28
-57.97
-61.32
-63.88
-65.42
-65.92
-65.60
-64.83
-63.96
-63.15
-62.34
-61.20
-59.28
-56.17
-51.64
-45.72
-38.70
-31.03
-23.22
-15.74
-8.93
-3.03
1.88
5.81
8.85
11.14
12.86
14.16
15.19
16.07
16.95
17.94
19.15
20.64
22.43
24.46
26.63
28.81
30.86
32.67
34.16
35.28
35.99
36.31
36.24
35.83
35.16
34.39
33.72
33.31
33.11
32.86
32.07
30.21
27.00
22.55
17.37
12.12
7.28
2.97
-1.11
-5.50
-10.75
-17.30
-25.39
-35.07
-46.08
-57.71
-68.73
-77.61
-82.99
-84.22
-81.72
-76.77
-70.98
-65.53
-60.75
-56.21
-51.21
-45.36
-38.91
-32.67
-27.51
-23.98
-22.14
-21.63
-22.05
-23.18
-25.03
-27.64
-30.92
-34.54
-38.00
-40.96
-43.35
-45.44
-47.66
-50.41
-53.88
-58.02
-62.66
-67.61
-72.77
-78.05
-83.29
-88.21
-92.43
-95.54
-97.31
-97.70
-96.71
-94.23
-89.96
-83.48
-74.56
-63.47
-51.07
-38.65
-27.43
-18.11
-10.62
-4.19
2.16
9.18
17.11
25.64
34.24
42.50
50.28
57.73
65.07
72.42
79.61
86.28
91.97
96.32
99.31
101.19
102.47
103.67
105.20
107.21
109.63
112.25
114.84
117.20
119.09
120.22
120.18
118.49
114.74
108.84
101.06
92.00
82.54
73.59
65.93
60.11
56.42
54.84
55.10
56.79
59.40
62.47
65.57
68.32
70.29
70.98
69.82
66.26
59.88
50.45
37.97
22.63
4.80
-14.90
-35.58
-55.98
-74.61
-89.95
-100.81
-106.67
-107.82
-105.24
-100.29
-94.22
-87.83
-81.36
-74.61
-67.26
-59.15
-50.32
-40.87
-30.80
-19.96
-8.22
4.23
16.68
27.94
36.67
41.88
43.21
41.09
36.46
30.47
24.18
18.36
13.58
10.20
8.39
7.93
8.10
7.79
5.81
1.47
-4.97
-12.21
-18.42
-22.06
-22.60
-20.83
-18.44
-17.12
-17.73
-20.05
-23.17
-26.27
-29.25
-32.89
-38.33
-46.36
-56.91
-68.96
-80.98
-91.57
-99.87
-105.68
-109.15
-110.55
-110.08
-107.87
-104.02
-98.59
-91.34
-81.79
-69.48
-54.41
-37.63
-21.32
-8.34
-1.38
-1.98
-10.15
-24.43
-42.64
-62.40
-81.54
-97.99
-109.63
-114.25
-109.81
-94.78
-68.61
-31.97
13.12
63.27
113.88
159.75
196.02
219.34
228.87
226.53
216.34
203.09
190.91
182.28
177.80
176.63
177.25
178.14
178.07
176.21
172.04
165.25
155.77
143.80
129.78
114.46
98.68
83.29
68.90
55.74
43.63
32.14
20.94
10.05
-0.09
-8.84
-15.73
-20.72
-24.31
-27.22
-30.04
-32.93
-35.65
-37.81
-39.23
-40.14
-41.09
-42.61
-45.03
-48.28
-51.93
-55.49
-58.51
-60.73
-62.08
-62.58
-62.31
-61.33
-59.69
-57.39
-54.39
-50.58
-45.80
-39.83
-32.45
-23.50
-12.94
-0.98
11.98
25.33
38.33
50.22
60.31
68.00
72.98
75.27
75.29
73.92
72.27
71.49
72.49
75.66
80.96
87.96
96.05
104.49
112.44
119.03
123.42
124.97
123.32
118.48
110.81
101.03
89.85
77.90
65.65
53.32
40.83
27.84
13.98
-0.75
-15.74
-30.06
-42.69
-52.81
-60.00
-64.45
-66.83
-68.22
-69.79
-72.77
-78.57
-88.42
-102.76
-120.86
-140.98
-161.03
-179.32
-194.89
-206.40
-212.14
-210.83
-202.42
-188.15
-169.72
-148.57
-125.77
-102.62
-79.35
-57.14
-38.26
-25.13
-19.33
-20.69
-27.34
-37.03
-46.54
-52.92
-54.62
-51.34
-43.82
-33.33
-21.54
-10.40
-1.84
2.81
3.20
-0.33
-6.82
-15.14
-24.23
-33.14
-40.83
-46.01
-46.98
-42.14
-30.50
-11.87
13.05
42.63
74.32
104.66
129.61
145.42
149.71
142.35
125.89
104.88
84.43
68.50
58.86
54.99
54.93
56.47
58.04
58.93
59.02
58.27
56.45
53.21
48.43
42.37
35.79
29.62
24.59
20.89
18.21
15.85
13.21
10.15
6.99
4.50
3.53
4.56
7.40
11.21
14.73
16.85
17.10
15.41
12.40
9.00
6.05
3.92
2.58
1.45
0.03
-1.86
-4.62
-8.19
-12.02
-15.28
-17.44
-18.25
-18.55
-19.48
-22.04
-27.87
-37.79
-51.39
-67.32
-83.92
-99.47
-113.67
-126.92
-139.94
-154.94
-173.28
-194.31
-215.28
-232.40
-241.77
-242.30
-235.12
-214.11
-178.22
-131.30
-80.45
-32.08
6.93
39.73
69.85
99.20
127.99
153.90
173.41
183.74
183.91
174.89
159.77
141.32
122.09
103.90
86.54
69.41
52.57
36.98
23.83
14.12
7.00
0.83
-5.89
-14.47
-24.81
-35.26
-43.19
-46.19
-42.76
-33.51
-20.46
-6.30
6.06
14.56
18.58
18.76
16.47
13.24
9.87
6.62
3.51
0.46
-2.36
-4.59
-6.04
-7.06
-8.65
-12.24
-19.12
-29.77
-43.67
-59.49
-75.63
-90.85
-104.69
-117.45
-129.81
-142.24
-154.54
-165.65
-173.71
-176.32
-170.86
-155.06
-127.80
-89.88
-44.49
3.05
46.51
80.40
101.68
110.53
110.06
104.78
98.88
94.94
93.49
93.65
94.26
94.67
95.02
95.85
97.46
99.44
100.76
100.26
97.41
92.73
87.64
83.81
82.35
83.37
85.96
88.75
90.61
91.12
90.57
89.63
88.74
87.79
86.06
82.72
77.31
70.19
62.48
55.53
50.20
46.35
42.84
38.07
30.65
19.95
6.13
-10.03
-27.53
-45.37
-62.59
-78.23
-91.40
-101.48
-108.28
-112.21
-114.13
-115.15
-116.43
-118.99
-123.62
-130.57
-139.39
-148.58
-155.79
-158.26
-153.47
-140.04
-118.13
-89.55
-57.34
-25.02
4.16
27.82
44.74
54.85
59.09
59.03
56.56
53.50
51.19
50.22
50.38
50.75
50.13
47.47
42.30
34.90
26.26
17.74
10.77
6.38
4.94
6.03
8.47
10.63
10.86
8.01
1.71
-7.62
-19.06
-31.65
-44.68
-57.70
-70.36
-82.03
-91.67
-98.01
-99.87
-96.55
-88.04
-75.05
-58.78
-40.71
-22.44
-5.51
8.71
19.31
26.03
29.37
30.32
30.03
29.40
28.88
28.44
27.78
26.60
24.81
22.62
20.45
18.76
17.91
18.09
19.28
21.32
24.05
27.28
30.86
34.59
38.23
41.53
44.31
46.62
48.77
51.29
54.70
59.20
64.55
69.98
74.45
77.03
77.15
74.71
70.00
63.39
55.23
45.86
35.98
26.77
19.70
15.89
15.42
16.86
17.65
15.05
7.45
-4.94
-20.12
-35.24
-47.82
-56.67
-62.04
-65.13
-67.29
-69.29
-71.17
-72.41
-72.32
-70.40
-66.50
-60.84
-53.84
-46.05
-38.05
-30.54
-24.33
-20.28
-19.23
-21.67
-27.45
-35.62
-44.60
-52.51
-57.84
-59.88
-58.95
-56.15
-52.83
-50.07
-48.33
-47.45
-46.86
-45.93
-44.20
-41.43
-37.68
-33.19
-28.43
-23.95
-20.42
-18.38
-18.12
-19.62
-22.49
-26.19
-30.07
-33.55
-36.15
-37.50
-37.30
-35.30
-31.30
-25.19
-17.05
-7.12
4.17
16.37
29.08
41.98
54.72
66.74
77.10
84.70
88.62
88.63
85.46
80.47
75.10
70.13
65.42
60.27
54.13
47.31
41.09
37.18
36.87
40.31
46.43
53.42
59.62
64.11
66.88
68.46
69.35
69.64
68.97
66.79
62.67
56.52
48.62
39.49
29.76
20.08
11.00
2.98
-3.65
-8.68
-12.06
-13.81
-14.12
-13.38
-12.16
-11.22
-11.27
-12.74
-15.58
-19.28
-23.12
-26.48
-29.09
-31.01
-32.52
-33.80
-34.86
-35.50
-35.51
-34.91
-33.97
-33.24
-33.27
-34.38
-36.49
-39.08
-41.30
-42.30
-41.41
-38.37
-33.38
-27.01
-20.01
-13.13
-6.91
-1.62
2.76
6.42
9.57
12.26
14.40
15.74
16.15
15.61
14.39
12.86
11.43
10.38
9.84
9.83
10.32
11.33
12.92
15.21
18.26
22.00
26.18
30.35
33.95
36.48
37.67
37.51
36.32
34.45
32.23
29.81
27.21
24.40
21.42
18.39
15.42
12.59
9.93
7.49
5.45
4.08
3.58
3.91
4.51
4.43
2.70
-1.20
-6.81
-12.73
-17.18
-18.82
-17.58
-14.81
-12.85
-13.98
-19.39
-28.72
-40.25
-51.62
-60.53
-65.22
-64.63
-58.38
-46.92
-31.57
-14.57
1.50
14.35
22.90
27.50
29.63
31.05
33.02
35.70
38.33
39.76
39.04
35.76
30.01
22.21
12.91
2.64
-8.12
-19.04
-30.07
-41.53
-54.03
-68.24
-84.34
-101.69
-118.74
-133.46
-144.17
-150.34
-153.08
-154.89
-158.76
-166.93
-179.75
-195.22
-209.32
-217.04
-213.73
-196.38
-164.45
-120.11
-67.92
-13.78
36.55
79.15
113.05
140.32
164.86
190.36
218.49
248.02
275.62
297.52
311.26
316.44
314.31
306.56
294.41
278.37
258.80
236.71
214.02
193.14
176.07
163.66
155.27
149.16
143.20
135.56
125.32
112.60
98.33
83.88
70.51
58.91
49.15
40.81
33.38
26.68
21.00
17.06
15.67
17.32
21.82
28.21
35.03
40.68
43.95
44.31
41.93
37.39
31.27
23.84
15.14
5.11
-6.10
-18.07
-30.21
-42.02
-53.28
-64.02
-74.38
-84.37
-93.86
-102.63
-110.51
-117.49
-123.72
-129.43
-134.87
-140.25
-145.67
-151.06
-156.15
-160.46
-163.52
-164.99
-164.84
-163.38
-161.03
-158.06
-154.36
-149.46
-142.78
-133.91
-122.85
-110.01
-95.95
-81.07
-65.50
-49.13
-31.96
-14.30
3.14
19.55
34.35
47.34
58.56
67.99
75.28
79.89
81.51
80.47
77.83
74.95
72.78
71.37
69.98
67.72
64.31
60.46
57.60
57.08
59.39
63.94
69.41
74.55
78.80
82.46
86.30
90.90
96.10
100.94
104.13
104.67
102.43
98.22
93.42
89.24
86.26
84.18
82.30
80.00
77.07
73.45
68.60
61.26
49.74
32.86
10.99
-13.57
-37.36
-57.14
-71.28
-80.14
-85.33
-88.38
-89.75
-88.71
-84.22
-76.00
-65.15
-53.79
-44.24
-38.08
-35.79
-36.93
-40.72
-46.49
-53.84
-62.41
-71.56
-80.09
-86.47
-89.37
-88.47
-84.84
-80.72
-78.64
-80.14
-84.93
-90.81
-94.58
-93.43
-86.16
-73.60
-58.10
-42.42
-28.69
-17.88
-9.92
-4.16
0.03
3.00
4.84
5.54
5.26
4.34
3.25
2.33
1.53
0.53
-1.04
-3.21
-5.42
-6.59
-5.50
-1.35
5.85
15.12
24.81
33.13
38.79
41.21
40.53
37.25
31.89
24.88
16.61
7.66
-1.17
-8.94
-14.94
-18.97
-21.44
-23.22
-25.19
-28.00
-31.81
-36.42
-41.42
-46.49
-51.49
-56.50
-61.77
-67.58
-74.14
-81.49
-89.49
-97.90
-106.48
-115.02
-123.37
-131.30
-138.50
-144.64
-149.58
-153.52
-157.03
-160.80
-165.21
-169.95
-173.93
-175.48
-172.97
-165.34
-152.51
-135.42
-115.77
-95.46
-76.06
-58.39
-42.46
-27.69
-13.29
1.29
16.30
31.82
48.20
66.16
86.67
110.37
137.01
165.17
192.61
217.02
236.73
251.19
260.85
266.68
269.79
271.07
271.23
270.78
269.90
268.31
265.17
259.34
249.92
236.66
220.24
202.03
183.57
166.06
150.13
135.87
123.21
112.09
102.59
94.83
88.73
83.99
80.17
76.83
73.79
71.06
68.74
66.82
65.01
62.83
59.76
55.57
50.42
44.77
38.97
32.81
25.41
15.62
2.80
-12.42
-28.00
-41.11
-49.43
-52.22
-50.74
-47.54
-45.28
-45.46
-47.90
-51.23
-53.72
-54.15
-51.88
-46.68
-38.47
-27.59
-15.43
-4.67
1.04
-1.64
-14.29
-35.76
-62.49
-89.87
-114.09
-133.25
-147.41
-157.58
-164.59
-168.53
-168.79
-164.73
-156.47
-145.12
-132.35
-119.45
-106.70
-93.25
-78.05
-60.44
-40.80
-20.94
-3.68
8.02
12.10
8.19
-2.68
-18.84
-38.20
-58.76
-79.24
-99.47
-120.12
-141.79
-163.93
-184.28
-199.36
-204.33
-194.44
-166.69
-121.13
-60.83
9.09
82.93
155.30
218.94
264.91
286.31
282.83
261.36
231.96
202.80
177.85
159.62
145.39
133.22
122.89
115.01
109.64
105.57
100.73
93.37
83.12
70.36
56.75
44.25
34.15
26.56
20.55
14.92
8.99
2.82
-3.39
-8.95
-13.22
-15.98
-17.59
-18.86
-20.60
-23.21
-26.56
-30.34
-33.85
-36.40
-37.57
-37.50
-36.88
-36.71
-38.04
-41.57
-47.60
-55.64
-64.60
-73.08
-79.83
-84.06
-85.64
-85.00
-82.80
-79.75
-76.29
-72.53
-68.32
-63.34
-57.28
-49.98
-41.57
-32.42
-23.13
-14.34
-6.59
-0.29
4.32
7.10
8.05
7.39
5.57
3.23
1.10
-0.31
-0.76
-0.29
0.92
2.71
4.92
7.45
10.04
12.37
14.07
14.92
14.93
14.29
13.23
11.89
10.23
8.16
5.68
2.99
0.44
-1.59
-2.90
-3.57
-3.88
-4.16
-4.65
-5.35
-6.14
-6.87
-7.45
-7.88
-8.19
-8.29
-7.94
-6.77
-4.44
-0.90
3.58
8.62
13.79
18.78
23.41
27.54
31.02
33.53
34.52
33.45
30.17
24.97
18.52
11.65
5.12
-0.51
-4.91
-8.31
-10.98
-13.10
-14.73
-15.93
-16.83
-17.65
-18.56
-19.60
-21.72
-25.52
-30.90
-37.09
-43.02
-47.82
-50.97
-52.28
-51.81
-52.04
-55.12
-62.11
-72.60
-85.35
-99.11
-112.92
-126.08
-138.00
-151.50
-168.59
-189.31
-211.71
-233.30
-252.66
-269.90
-285.95
-301.68
-321.66
-348.40
-380.99
-415.19
-445.67
-468.40
-481.84
-486.68
-457.85
-384.20
-271.19
-139.80
-14.18
90.31
169.67
227.16
268.19
297.41
313.53
315.38
304.24
284.67
262.55
242.78
228.18
219.80
217.49
217.06
214.54
207.00
193.96
175.87
153.52
128.40
103.00
80.19
59.85
40.57
20.35
-1.87
-25.52
-48.14
-65.73
-74.21
-71.11
-57.64
-37.24
-13.95
9.39
31.72
52.05
69.88
84.87
96.62
104.41
107.92
107.50
104.26
99.48
94.15
88.96
84.16
79.74
75.58
71.57
67.59
63.42
58.89
54.04
49.63
46.93
47.51
52.63
62.70
76.94
93.39
109.32
121.95
129.28
130.55
126.37
118.34
108.51
98.92
91.05
85.79
83.37
83.57
85.74
88.78
91.18
91.35
88.11
81.37
72.40
63.55
57.31
55.21
57.01
60.75
63.62
63.13
58.00
48.24
34.68
18.24
-0.48
-21.04
-42.73
-64.25
-83.69
-99.18
-109.43
-114.18
-114.13
-110.44
-104.06
-95.37
-84.16
-70.17
-53.96
-37.48
-24.28
-18.72
-24.81
-44.78
-77.96
-120.49
-165.76
-205.76
-232.87
-241.74
-230.79
-202.74
-163.91
-122.58
-86.58
-61.37
-48.96
-48.02
-54.97
-65.40
-75.31
-81.81
-83.44
-80.10
-72.85
-63.61
-54.54
-47.47
-43.28
-41.66
-41.18
-39.88
-36.04
-28.82
-18.77
-7.67
1.93
7.48
7.19
0.50
-11.87
-28.16
-46.08
-63.36
-78.23
-89.75
-98.07
-104.28
-110.02
-116.69
-124.59
-132.49
-137.78
-137.43
-129.26
-113.08
-91.02
-66.90
-44.98
-28.72
-19.90
-18.55
-23.04
-30.37
-36.47
-36.90
-28.18
-9.27
17.43
46.47
71.37
87.22
92.65
90.01
83.73
77.86
74.43
73.25
73.26
74.00
76.23
81.51
90.92
104.21
119.79
135.57
149.99
162.57
173.83
184.78
196.25
208.39
220.58
231.51
239.73
244.33
245.71
245.86
247.89
254.79
268.00
286.40
306.48
323.60
333.83
335.37
328.92
316.74
301.18
283.46
263.27
239.46
211.04
178.09
141.90
104.53
68.11
34.27
3.98
-22.32
-44.43
-62.27
-75.85
-85.50
-91.83
-95.77
-98.29
-100.22
-102.15
-104.24
-106.12
-106.81
-104.77
-98.24
-85.71
-66.69
-42.09
-14.13
14.18
40.01
61.56
78.37
91.23
101.46
110.20
118.02
124.88
130.37
134.13
135.98
135.93
133.91
129.58
122.30
111.47
96.81
78.76
58.50
37.69
18.20
1.68
-10.71
-18.68
-22.81
-24.39
-24.99
-26.06
-28.58
-32.78
-38.15
-43.82
-49.24
-54.36
-59.62
-65.46
-72.06
-79.36
-87.07
-94.89
-102.55
-110.28
-118.57
-127.86
-138.21
-149.37
-161.46
-174.36
-187.67
-200.14
-211.17
-220.55
-228.39
-234.72
-239.49
-243.89
-248.80
-254.41
-258.89
-261.36
-261.38
-258.97
-254.02
-246.58
-238.86
-232.73
-229.02
-225.47
-221.46
-217.57
-215.55
-216.95
-222.76
-235.34
-254.65
-277.64
-296.66
-307.04
-307.44
-300.27
-289.23
-262.65
-215.96
-151.64
-94.51
-50.18
-17.59
11.16
39.79
71.13
107.32
146.75
186.62
223.35
255.77
280.50
294.69
297.26
290.61
279.09
265.05
249.85
234.03
219.79
207.34
196.38
186.25
176.99
168.66
159.81
149.25
136.72
124.37
113.78
106.11
101.63
100.24
101.30
103.20
104.59
104.97
105.43
106.86
109.74
113.58
117.20
118.92
116.94
110.14
98.50
83.19
65.75
47.71
30.43
15.07
2.54
-6.66
-12.66
-16.37
-19.38
-23.51
-30.12
-39.55
-50.88
-62.23
-71.36
-76.52
-76.98
-73.23
-66.78
-59.53
-53.27
-49.12
-47.37
-47.63
-49.13
-51.20
-53.61
-56.71
-61.39
-68.80
-79.88
-94.87
-112.91
-131.99
-149.17
-161.33
-166.00
-162.03
-149.91
-131.41
-108.93
-84.56
-59.47
-33.62
-6.22
23.43
54.96
86.35
114.22
134.99
146.35
148.40
143.72
136.34
130.07
127.19
127.88
130.65
133.32
133.92
131.17
124.51
113.95
99.90
83.25
65.27
47.72
32.54
21.78
17.19
19.93
30.24
47.17
68.64
91.74
113.34
130.71
141.95
146.04
142.77
132.50
115.94
94.21
68.87
41.98
15.94
-6.81
-24.28
-35.44
-40.34
-40.03
-36.12
-30.15
-23.24
-15.90
-8.28
-0.49
7.07
13.76
18.94
22.23
23.81
24.33
24.66
25.52
27.23
29.60
32.06
33.92
34.51
33.44
30.65
26.39
21.08
15.04
8.29
0.38
-9.52
-22.36
-38.84
-59.09
-82.48
-107.61
-132.63
-155.56
-174.85
-189.87
-201.14
-210.16
-218.67
-227.75
-237.01
-244.53
-247.43
-242.98
-229.73
-208.26
-181.15
-152.32
-126.07
-106.01
-94.19
-90.31
-91.57
-93.09
-89.20
-75.45
-50.26
-15.64
23.48
61.00
91.84
113.15
124.62
127.62
123.85
114.94
102.54
88.79
76.55
68.99
68.29
74.84
86.82
99.98
109.55
111.92
105.54
91.03
70.84
47.61
24.01
2.37
-16.88
-33.71
-48.03
-59.63
-68.63
-75.15
-80.85
-87.41
-95.84
-108.37
-125.95
-147.59
-170.69
-192.21
-208.81
-220.22
-227.82
-233.89
-243.75
-261.41
-287.40
-318.40
-348.78
-371.79
-384.88
-388.57
-368.05
-317.90
-242.97
-156.38
-72.50
-9.10
36.95
71.44
99.21
124.11
147.88
171.06
194.88
220.64
248.27
276.76
301.37
317.56
323.26
317.34
301.32
279.05
255.08
233.15
216.45
205.22
198.84
196.45
195.63
193.84
189.55
182.65
174.25
166.60
160.58
156.45
153.95
151.92
149.32
145.64
140.70
134.17
125.81
115.15
102.57
89.36
76.66
64.58
51.93
37.12
19.78
2.33
-10.50
-13.62
-4.65
13.61
33.48
45.28
41.65
20.78
-13.14
-52.28
-88.91
-118.26
-139.28
-153.31
-162.13
-166.49
-166.10
-160.56
-150.32
-136.81
-121.56
-105.13
-86.69
-64.63
-37.77
-6.66
26.09
56.36
79.77
92.94
94.11
83.15
61.01
29.33
-9.78
-53.53
-98.42
-140.48
-175.99
-202.26
-218.19
-224.28
-222.12
-213.73
-201.17
-186.53
-172.12
-160.46
-153.96
-153.98
-160.02
-169.37
-177.74
-180.59
-174.76
-159.60
-137.01
-110.64
-84.47
-61.50
-43.12
-29.26
-18.86
-10.61
-3.33
3.92
11.87
21.00
31.52
43.32
56.09
69.49
83.32
97.57
112.11
126.47
139.70
150.52
157.72
160.55
159.04
153.95
146.42
137.69
128.68
119.86
111.11
101.73
90.60
76.46
58.41
36.36
11.38
-14.33
-37.86
-56.30
-67.57
-70.90
-67.00
-57.69
-45.30
-31.94
-18.91
-6.58
5.35
17.28
29.11
39.98
48.46
53.09
52.79
47.08
36.05
20.22
0.61
-21.09
-42.26
-59.47
-69.21
-69.19
-59.59
-43.75
-27.60
-17.97
-20.47
-37.86
-69.66
-112.84
-163.25
-216.64
-269.14
-317.22
-357.62
-387.84
-407.08
-417.04
-421.75
-426.18
-434.01
-445.62
-457.65
-464.09
-458.81
-438.03
-401.62
-352.77
-296.23
-236.24
-175.03
-112.42
-46.49
25.26
104.71
191.98
284.72
377.78
463.66
533.99
581.62
602.97
599.37
576.86
544.38
511.08
483.95
466.38
458.27
457.03
459.03
460.77
459.66
454.32
444.52
430.92
414.69
397.10
379.12
361.03
342.22
321.32
296.61
266.88
232.20
194.34
156.63
123.11
97.32
81.26
74.78
75.78
81.00
87.08
91.57
93.37
92.83
91.29
90.41
91.55
95.35
101.63
109.49
117.55
124.09
127.24
125.16
116.39
100.34
77.77
50.77
22.45
-4.01
-26.23
-43.14
-54.98
-62.77
-67.77
-71.06
-73.47
-75.75
-78.52
-82.17
-86.65
-91.35
-95.28
-97.42
-97.07
-94.06
-88.69
-81.47
-72.80
-62.94
-51.94
-39.94
-27.17
-14.08
-1.19
11.04
22.23
32.14
40.62
47.47
52.60
56.05
58.15
59.43
60.39
61.21
61.50
60.44
57.12
50.99
42.10
30.97
18.31
4.65
-9.80
-24.94
-40.60
-56.31
-71.47
-85.44
-97.84
-108.61
-117.83
-125.69
-132.20
-137.31
-140.88
-142.81
-143.09
-141.84
-139.23
-135.55
-131.06
-126.01
-120.70
-115.36
-110.28
-105.62
-101.50
-97.92
-94.69
-91.58
-88.35
-84.82
-80.93
-76.71
-72.25
-67.71
-63.29
-59.15
-55.48
-52.30
-49.60
-47.24
-45.08
-43.02
-41.06
-39.27
-37.73
-36.54
-35.73
-35.21
-34.85
-34.49
-34.02
-33.41
-32.74
-32.16
-31.84
-31.84
-32.12
-32.52
-32.85
-32.96
-32.80
-32.40
-31.89
-31.39
-31.05
-30.98
-31.22
-31.73
-32.38
-32.95
-33.26
-33.14
-32.54
-31.55
-30.33
-29.12
-28.09
-27.36
-26.92
-26.71
-26.60
-26.51
-26.38
-26.20
-26.00
-25.76
-25.47
-25.11
-24.71
-24.35
-24.17
-24.30
-24.75
-25.38
-25.96
-26.27
-26.31
-26.23
-26.20
-26.36
-26.66
-26.98
-27.13
-27.05
-26.75
-26.60
-27.02
-28.27
-30.45
-33.43
-36.94
-40.62
-44.03
-46.73
-48.73
-50.08
-50.90
-51.23
-51.14
-50.65
-49.62
-47.82
-44.90
-41.72
-39.19
-38.00
-38.41
-40.31
-43.39
-47.18
-51.18
-54.89
-60.27
-69.09
-82.38
-100.26
-122.42
-148.74
-179.16
-213.05
-248.49
-285.82
-323.64
-358.57
-386.05
-402.17
-405.37
-396.70
-378.96
-355.17
-332.56
-316.16
-307.39
-304.33
-303.77
-303.51
-303.14
-303.51
-280.85
-224.49
-137.50
-35.93
61.22
141.58
201.60
243.43
268.15
283.27
289.92
288.55
280.88
270.57
262.06
258.87
261.97
270.66
284.01
296.92
305.58
308.68
307.39
304.04
300.60
298.21
297.49
299.04
300.15
297.80
289.41
273.40
249.44
218.44
182.45
144.35
107.33
72.42
40.21
11.44
-12.33
-29.02
-36.82
-35.24
-25.45
-9.95
7.67
24.41
38.76
50.68
61.07
71.05
81.33
92.12
103.08
113.38
121.99
128.04
131.12
131.46
129.90
127.42
124.50
120.73
114.90
105.34
90.83
70.93
46.00
17.46
-13.00
-43.92
-74.29
-103.42
-131.13
-156.59
-178.77
-196.75
-209.10
-214.77
-213.75
-207.14
-196.79
-185.42
-174.27
-163.60
-153.14
-140.82
-124.30
-102.25
-74.97
-44.13
-13.36
15.63
42.32
66.92
91.99
120.44
153.64
190.81
229.54
265.52
297.48
326.03
340.42
332.74
300.71
249.10
187.57
136.58
98.60
72.16
55.54
47.47
44.52
45.74
49.81
54.84
59.00
59.73
57.77
54.86
51.85
49.39
47.01
42.52
33.15
17.04
-6.87
-35.81
-65.50
-92.20
-112.83
-125.58
-130.41
-128.48
-121.52
-112.19
-102.17
-92.98
-86.26
-83.06
-83.56
-87.45
-94.05
-102.51
-112.34
-122.67
-132.65
-141.72
-149.51
-155.99
-161.64
-167.26
-173.51
-180.49
-187.04
-190.92
-189.61
-181.20
-165.21
-142.83
-116.38
-88.28
-60.23
-32.96
-6.67
18.30
41.12
60.61
76.01
87.54
96.42
104.26
112.11
119.74
125.72
128.19
125.81
118.37
106.81
92.75
77.84
63.44
50.54
39.82
31.72
26.31
23.21
21.65
20.76
19.95
19.15
18.86
19.71
22.11
26.06
31.28
37.60
45.24
54.83
67.09
82.36
100.27
119.75
139.24
157.13
172.04
183.08
189.79
192.09
190.02
183.57
172.54
156.44
134.66
106.72
72.80
33.94
-7.90
-50.26
-90.67
-126.99
-157.52
-180.71
-195.08
-199.44
-193.70
-179.62
-161.24
-144.25
-134.35
-135.20
-146.75
-164.93
-183.01
-194.05
-193.42
-180.30
-157.52
-130.05
-102.74
-78.65
-58.33
-40.46
-23.04
-4.53
15.71
37.69
61.24
85.85
110.07
130.80
143.71
144.96
133.49
112.75
90.24
74.65
71.90
82.23
100.13
117.11
125.87
123.38
111.61
95.54
80.18
68.38
60.51
55.58
52.79
52.19
54.27
58.75
63.80
66.36
63.39
53.41
37.37
18.34
0.13
-14.29
-24.01
-30.35
-36.05
-43.95
-55.88
-72.04
-91.01
-110.32
-127.28
-139.73
-146.67
-148.51
-146.88
-144.10
-142.39
-143.05
-146.14
-150.54
-154.44
-156.07
-154.24
-148.49
-138.92
-125.82
-109.46
-90.23
-68.83
-46.50
-24.88
-5.53
10.62
23.58
34.10
43.12
51.28
58.56
64.49
68.44
70.12
69.78
68.16
66.23
64.84
64.51
65.29
66.82
68.51
69.66
69.65
68.09
64.83
60.09
54.29
47.95
41.57
35.45
29.72
24.27
18.84
13.03
6.38
-1.59
-11.21
-22.53
-35.19
-48.56
-61.84
-74.42
-86.16
-97.50
-109.47
-123.44
-140.56
-161.25
-184.60
-208.17
-228.50
-242.09
-246.58
-241.70
-229.36
-212.99
-196.26
-182.02
-171.63
-165.20
-162.14
-161.82
-163.70
-167.13
-170.95
-173.25
-171.69
-164.27
-150.01
-129.47
-104.52
-77.68
-51.27
-26.86
-5.08
13.99
30.59
44.84
56.62
65.49
70.56
70.52
63.78
48.97
25.75
-4.46
-38.04
-69.42
-92.16
-100.41
-90.66
-62.78
-20.15
31.28
84.65
133.96
175.31
207.48
231.58
250.44
267.63
286.35
308.53
334.13
361.03
385.73
404.66
415.67
418.76
415.86
409.58
401.86
393.16
382.52
368.50
349.96
326.66
299.03
267.78
233.65
197.36
159.88
122.42
86.12
51.53
18.39
-14.09
-46.58
-78.84
-109.36
-135.74
-155.44
-166.68
-168.88
-162.72
-149.67
-131.53
-109.94
-86.36
-62.23
-39.27
-19.63
-5.73
0.26
-2.92
-15.11
-34.64
-58.63
-83.77
-106.99
-126.12
-140.07
-148.82
-153.14
-154.09
-152.59
-148.96
-142.87
-133.73
-121.18
-105.67
-88.39
-70.95
-54.71
-40.42
-28.38
-18.78
-12.02
-8.65
-8.93
-12.34
-17.39
-21.88
-23.62
-21.02
-13.57
-1.83
12.87
28.90
44.70
59.07
71.34
81.24
88.77
94.04
97.11
98.06
97.02
94.19
89.62
83.02
73.64
60.56
43.22
21.88
-2.12
-26.60
-49.15
-67.74
-81.12
-88.85
-91.13
-88.53
-81.81
-71.92
-60.05
-47.53
-35.69
-25.65
-18.16
-13.45
-11.34
-11.27
-12.48
-14.20
-15.90
-17.44
-19.21
-21.93
-26.28
-32.55
-40.42
-48.98
-57.10
-63.90
-69.01
-72.66
-75.57
-78.73
-83.33
-90.60
-101.75
-117.50
-137.65
-160.76
-184.29
-205.30
-221.29
-231.00
-234.62
-233.46
-229.23
-223.47
-217.37
-211.82
-207.69
-205.89
-207.15
-211.68
-219.03
-228.12
-237.52
-245.73
-251.28
-252.58
-247.87
-235.25
-213.11
-180.45
-137.20
-84.41
-24.19
40.34
105.29
166.69
221.34
267.65
305.92
337.72
364.61
386.90
403.12
410.86
408.24
395.33
374.57
349.93
325.37
303.46
285.05
269.75
256.85
246.07
237.47
231.03
225.98
220.75
213.42
202.64
188.32
171.81
155.33
141.00
129.92
121.81
115.32
108.88
101.43
92.84
83.73
74.94
66.95
59.64
52.39
44.37
34.93
23.75
10.93
-3.02
-17.13
-30.11
-40.47
-47.01
-49.32
-48.04
-44.86
-41.89
-41.02
-43.19
-48.33
-55.54
-63.66
-71.60
-78.46
-83.47
-85.84
-84.95
-80.52
-72.86
-62.80
-51.39
-39.48
-27.45
-15.26
-2.60
10.67
24.31
37.69
49.92
60.19
68.03
73.40
76.67
78.38
79.07
79.05
78.32
76.55
73.16
67.43
58.69
46.54
30.97
12.47
-8.04
-29.40
-50.50
-70.50
-88.90
-105.52
-120.37
-133.48
-144.89
-154.69
-162.93
-169.77
-175.35
-179.86
-183.43
-186.15
-188.07
-189.22
-189.60
-189.20
-187.82
-185.04
-180.25
-172.66
-161.57
-146.59
-127.73
-105.51
-80.80
-54.76
-28.61
-3.35
20.50
43.09
65.32
88.49
113.81
141.78
171.79
202.20
230.72
255.08
273.61
285.49
290.85
290.66
286.69
281.32
277.21
276.59
280.45
287.89
296.19
301.61
300.69
291.50
274.13
250.53
223.48
195.54
168.30
142.25
117.05
91.94
66.16
39.06
10.24
-20.45
-52.66
-85.47
-117.44
-146.80
-171.94
-191.83
-206.30
-216.01
-222.11
-225.79
-227.84
-228.58
-227.99
-225.89
-222.13
-216.59
-209.04
-199.23
-187.14
-173.19
-158.31
-143.71
-130.36
-118.54
-107.78
-97.26
-86.41
-75.45
-65.22
-56.79
-50.62
-46.18
-41.94
-36.11
-27.39
-15.65
-1.94
11.86
23.85
32.80
38.50
41.60
43.17
44.08
44.78
45.26
45.32
44.72
43.16
40.15
34.89
26.49
14.41
-1.06
-18.73
-36.82
-53.67
-68.30
-80.54
-90.75
-99.30
-106.32
-111.69
-115.33
-117.36
-117.98
-117.18
-114.57
-109.54
-101.61
-90.86
-78.01
-64.11
-50.11
-36.58
-23.72
-11.61
-0.53
9.03
16.49
21.48
24.03
24.61
23.96
22.92
22.14
21.89
21.88
21.33
19.12
14.22
6.13
-4.91
-17.92
-31.57
-44.66
-56.50
-67.01
-76.51
-85.26
-93.06
-99.17
-102.48
-102.14
-98.03
-91.07
-82.91
-75.32
-69.52
-65.84
-63.81
-62.52
-61.08
-58.81
-55.30
-50.32
-43.77
-35.76
-26.59
-16.75
-6.77
2.81
11.52
18.85
24.37
27.86
29.47
29.82
29.79
30.17
31.31
33.06
34.95
36.57
37.80
38.83
39.82
40.63
40.69
39.17
35.40
29.30
21.51
13.30
6.09
0.96
-1.60
-1.79
-0.25
2.21
4.87
7.20
8.92
9.96
10.42
10.53
10.54
10.69
11.16
12.05
13.43
15.27
17.49
19.97
22.57
25.31
28.31
31.74
35.61
39.64
43.29
46.10
47.98
49.43
51.35
54.55
59.26
64.96
70.57
75.04
77.94
79.69
81.37
84.29
89.45
97.37
107.98
120.71
134.46
147.55
157.92
163.46
162.78
155.67
143.10
126.74
108.19
88.59
68.65
49.22
31.53
17.18
7.44
2.75
2.53
5.65
10.94
17.45
24.19
29.76
32.35
30.47
23.83
13.82
2.99
-6.08
-12.07
-15.27
-16.93
-18.17
-19.07
-18.73
-16.05
-10.65
-3.34
4.27
10.62
14.94
17.41
18.94
20.49
22.65
25.53
28.97
32.77
36.85
41.18
45.63
49.85
53.41
56.04
57.84
59.45
61.79
65.67
71.31
78.02
84.27
88.17
88.03
83.01
73.33
60.26
45.74
31.88
20.53
12.80
8.81
7.75
8.29
9.38
11.15
15.43
25.22
43.28
70.28
103.58
137.40
164.49
178.64
176.86
160.14
132.66
99.97
67.12
37.55
12.81
-7.11
-23.29
-37.51
-51.88
-68.36
-88.02
-110.53
-134.17
-156.42
-175.15
-189.49
-200.28
-209.49
-219.07
-229.80
-240.83
-250.12
-255.52
-255.74
-250.77
-241.59
-229.43
-215.20
-199.44
-182.68
-165.74
-149.86
-136.23
-125.45
-117.16
-110.21
-103.26
-95.43
-86.80
-78.21
-70.84
-65.54
-62.42
-60.69
-59.10
-56.41
-51.99
-46.08
-39.69
-34.12
-30.41
-28.92
-29.21
-30.38
-31.35
-31.37
-30.11
-27.65
-24.30
-20.35
-16.00
-11.20
-5.79
0.50
7.95
16.74
26.87
38.00
49.56
60.88
71.48
81.21
90.35
99.31
108.34
117.23
125.31
131.63
135.43
136.43
134.93
131.67
127.54
123.29
119.30
115.61
112.00
108.20
104.02
99.47
94.80
90.32
86.29
82.77
79.57
76.35
72.70
68.15
62.18
54.13
43.39
29.68
13.47
-3.85
-20.25
-33.65
-42.67
-47.11
-47.85
-46.36
-44.02
-41.69
-39.63
-37.78
-36.01
-34.35
-32.97
-32.08
-31.83
-32.25
-33.23
-34.58
-36.13
-37.88
-40.16
-43.61
-48.90
-56.38
-65.72
-75.94
-85.71
-93.94
-100.25
-105.10
-109.48
-114.38
-120.28
-126.90
-133.50
-139.17
-143.42
-146.41
-148.84
-151.62
-155.46
-160.67
-167.21
-174.93
-183.38
-191.47
-197.02
-196.93
-188.20
-169.36
-141.56
-108.40
-74.54
-43.77
-17.76
3.96
22.75
39.55
54.18
65.86
74.26
80.26
85.72
92.55
101.61
112.35
123.17
132.30
138.52
141.44
141.42
139.22
135.67
131.52
127.29
123.31
119.76
116.67
114.02
111.74
109.68
107.57
105.00
101.55
96.92
91.13
84.62
78.16
72.56
68.30
65.33
63.10
60.75
57.51
52.97
47.24
40.83
34.49
28.92
24.65
21.97
20.84
20.89
21.31
21.02
18.90
14.27
7.17
-1.52
-10.37
-17.86
-22.76
-24.52
-23.30
-19.91
-15.62
-11.94
-10.29
-11.66
-16.27
-23.46
-31.84
-39.75
-45.88
-49.58
-50.92
-50.31
-48.09
-44.21
-38.25
-29.80
-18.67
-5.20
9.91
25.76
41.57
56.77
70.79
82.86
91.95
97.12
97.99
95.30
90.79
86.60
84.25
83.99
84.87
85.49
84.97
83.29
80.85
77.51
72.01
62.22
46.34
24.15
-2.45
-30.16
-55.72
-77.31
-94.99
-109.93
-123.19
-134.73
-143.32
-147.34
-145.76
-138.82
-127.88
-114.71
-100.70
-86.39
-71.66
-56.27
-40.44
-25.00
-11.14
0.22
8.76
14.75
18.64
20.61
20.47
17.90
12.93
6.13
-1.60
-9.57
-17.82
-27.28
-39.40
-55.45
-75.98
-100.45
-127.40
-154.58
-179.15
-197.79
-206.97
-203.52
-185.54
-153.07
-108.55
-56.40
-2.18
48.75
92.23
125.91
149.33
163.42
169.96
170.99
168.35
163.53
157.57
151.12
144.50
137.81
130.99
123.91
116.44
108.49
100.10
91.44
82.76
74.25
65.98
57.73
49.11
39.68
29.28
18.17
7.06
-3.12
-11.52
-17.68
-21.60
-23.61
-24.14
-23.51
-21.75
-18.73
-14.20
-7.94
0.11
9.74
20.32
30.80
39.86
46.33
49.52
49.46
46.87
42.76
38.06
33.40
29.19
25.86
24.16
25.06
29.52
38.00
50.15
64.80
80.32
95.09
108.04
118.78
127.54
134.85
141.14
146.55
150.89
153.79
154.84
153.66
149.91
143.30
133.63
120.96
105.70
88.66
70.83
53.18
36.50
21.49
8.93
-0.36
-5.66
-6.79
-4.30
0.62
6.55
12.48
18.19
24.20
31.31
39.99
50.12
60.91
71.26
80.14
86.69
90.29
90.43
86.74
78.94
66.95
51.03
31.72
9.91
-13.36
-36.99
-60.10
-82.24
-103.53
-124.67
-146.60
-170.10
-195.30
-221.52
-247.42
-271.56
-292.96
-311.52
-327.98
-343.59
-359.50
-376.32
-393.65
-410.04
-423.02
-429.60
-427.05
-413.78
-390.06
-358.25
-322.09
-285.61
-251.78
-221.90
-195.65
-172.06
-150.51
-131.28
-115.37
-103.70
-96.29
-91.74
-87.47
-80.15
-66.39
-43.27
-9.16
35.41
87.06
139.42
184.31
214.02
224.05
215.03
192.72
166.13
144.38
133.90
136.97
152.08
175.60
203.38
231.99
258.89
282.24
300.44
312.00
315.62
310.30
295.69
272.03
240.04
200.65
154.74
103.11
46.89
-12.03
-70.46
-124.09
-168.31
-199.39
-215.74
-218.27
-209.80
-193.64
-172.22
-146.39
-115.74
-79.81
-39.21
3.66
44.94
80.38
106.66
122.30
127.77
125.05
116.55
104.40
89.97
73.88
56.37
37.64
17.99
-2.12
-22.16
-41.60
-59.77
-75.83
-88.62
-96.75
-98.88
-94.18
-82.94
-66.87
-49.04
-33.05
-21.93
-16.99
-17.30
-20.13
-22.08
-20.54
-14.90
-6.70
1.01
4.98
3.09
-4.98
-17.72
-32.55
-46.74
-58.24
-65.96
-69.65
-69.62
-66.52
-61.25
-55.05
-49.34
-45.33
-43.42
-42.85
-41.62
-37.29
-27.76
-12.13
9.18
34.59
61.89
88.69
112.70
131.94
145.04
151.70
153.03
151.42
149.76
150.36
153.72
158.28
161.16
159.74
153.23
143.32
133.29
126.20
122.90
121.40
117.67
107.72
89.62
64.40
35.34
6.32
-19.66
-41.06
-57.36
-68.06
-72.25
-68.81
-57.45
-39.52
-18.23
1.97
16.51
21.92
16.80
2.15
-18.89
-42.06
-63.29
-80.01
-92.03
-101.38
-111.19
-124.08
-140.75
-159.52
-177.10
-189.99
-195.98
-194.86
-188.25
-178.70
-168.72
-160.07
-153.69
-149.84
-148.49
-149.49
-152.59
-157.25
-162.50
-167.04
-169.46
-168.59
-163.81
-155.15
-143.25
-129.09
-113.66
-97.70
-81.62
-65.52
-49.30
-32.91
-16.48
-0.58
13.65
24.49
30.12
29.32
22.11
10.05
-4.23
-17.87
-28.95
-36.99
-42.92
-48.43
-55.08
-63.81
-74.85
-87.94
-102.51
-117.71
-132.33
-145.01
-154.60
-160.73
-164.01
-165.81
-167.50
-169.57
-171.13
-170.01
-163.55
-149.51
-126.77
-95.54
-57.22
-14.16
30.52
73.15
110.05
138.47
157.50
168.67
175.50
182.25
192.11
205.97
222.19
237.63
249.22
255.32
256.23
253.67
249.85
246.36
243.87
242.10
240.39
238.22
235.54
232.78
230.51
229.11
228.43
227.74
225.99
222.13
215.52
206.04
194.03
180.06
164.69
148.35
131.39
114.16
97.04
80.41
64.52
49.36
34.71
20.30
5.95
-8.22
-21.81
-34.31
-45.34
-54.85
-63.10
-70.57
-77.67
-84.59
-91.25
-97.44
-103.11
-108.49
-114.07
-120.26
-127.00
-133.50
-138.23
-139.37
-135.33
-125.36
-109.83
-90.07
-67.89
-44.88
-21.88
1.43
26.14
53.54
84.33
118.03
152.95
186.41
215.36
236.72
247.96
247.88
237.64
221.29
205.31
196.65
199.91
215.24
237.86
260.10
274.55
277.02
267.58
249.50
227.00
203.39
180.46
159.09
140.17
124.92
114.19
107.44
102.12
94.28
79.82
56.22
23.44
-16.10
-58.65
-100.69
-139.99
-175.93
-208.91
-239.26
-266.32
-287.90
-300.52
-300.27
-284.24
-252.02
-206.73
-154.68
-103.69
-60.45
-28.36
-6.83
7.38
17.81
26.13
31.48
31.31
23.18
6.34
-17.69
-45.60
-73.27
-96.99
-114.26
-124.24
-127.87
-127.46
-125.77
-125.03
-126.16
-128.80
-131.90
-134.59
-136.51
-137.79
-138.42
-137.98
-135.71
-131.01
-124.01
-115.67
-107.42
-100.51
-95.35
-91.50
-87.85
-83.29
-77.15
-69.45
-60.66
-51.37
-41.96
-32.55
-23.13
-13.73
-4.55
4.09
11.93
18.85
24.89
30.19
34.82
38.74
41.91
44.34
46.21
47.73
49.10
50.33
51.21
51.50
51.12
50.32
49.74
50.21
52.50
57.07
63.81
72.04
80.64
88.22
93.51
95.58
94.06
89.14
81.47
71.80
60.80
48.81
35.98
22.35
8.06
-6.42
-20.32
-32.78
-43.00
-50.58
-55.74
-59.33
-62.62
-66.88
-72.90
-80.57
-88.73
-95.55
-99.08
-98.08
-92.54
-83.75
-73.89
-65.30
-59.67
-57.74
-59.34
-63.72
-69.97
-77.06
-83.84
-88.97
-90.94
-88.46
-80.73
-67.82
-50.59
-30.53
-9.29
11.60
31.06
48.45
63.58
76.42
86.83
94.31
97.88
96.32
88.81
75.49
57.84
38.38
19.96
4.80
-6.12
-13.11
-17.28
-19.94
-22.06
-24.21
-26.74
-29.94
-34.06
-39.19
-44.99
-50.71
-55.44
-58.44
-59.49
-58.98
-57.54
-55.81
-54.09
-52.31
-50.34
-48.27
-46.63
-46.26
-47.91
-51.68
-56.78
-61.62
-64.43
-64.05
-60.42
-54.64
-48.36
-43.07
-39.59
-37.97
-37.72
-38.28
-39.13
-39.80
-39.81
-38.76
-36.77
-34.80
-34.60
-38.09
-46.42
-59.15
-74.04
-87.80
-97.34
-100.99
-99.07
-93.46
-86.44
-79.51
-72.66
-64.57
-53.50
-38.25
-18.64
4.55
30.29
57.78
86.61
116.39
146.10
174.04
198.28
217.47
231.55
241.60
249.14
255.19
259.69
261.72
260.32
255.21
247.13
237.54
227.98
219.42
212.14
205.82
199.94
194.07
187.93
181.28
173.67
164.45
152.84
138.24
120.50
100.13
78.19
56.01
34.78
15.28
-2.15
-17.48
-30.87
-42.60
-53.08
-62.76
-72.04
-80.95
-89.12
-95.93
-100.77
-103.41
-104.18
-103.76
-102.92
-102.30
-102.22
-102.71
-103.49
-104.12
-103.98
-102.47
-99.26
-94.37
-88.20
-81.26
-73.93
-66.33
-58.40
-50.14
-41.76
-33.70
-26.44
-20.11
-14.43
-8.85
-2.91
3.27
8.86
12.47
12.74
8.89
1.24
-8.79
-18.98
-26.99
-30.97
-30.03
-24.44
-15.35
-4.46
6.60
16.59
24.86
31.26
35.93
39.04
40.76
41.23
40.76
39.84
39.03
38.85
39.60
41.40
44.22
48.02
52.73
58.19
64.16
70.28
76.15
81.46
86.00
89.69
92.43
94.10
94.49
93.39
90.65
86.14
79.83
71.71
61.88
50.62
38.36
25.68
13.11
1.02
-10.42
-21.27
-31.72
-41.98
-52.18
-62.29
-72.11
-81.31
-89.57
-96.74
-102.96
-108.62
-114.23
-120.20
-126.58
-133.02
-138.93
-143.63
-146.60
-147.52
-146.28
-142.80
-137.03
-128.92
-118.45
-105.68
-90.75
-73.87
-55.38
-35.70
-15.38
5.01
24.99
44.20
62.38
79.34
94.77
108.26
119.36
127.77
133.42
136.50
137.39
136.38
133.61
128.98
122.30
113.50
102.78
90.70
78.09
65.80
54.42
44.05
34.33
24.55
14.04
2.42
-10.22
-23.39
-36.41
-48.66
-59.79
-69.70
-78.50
-86.35
-93.38
-99.64
-105.02
-109.26
-111.86
-112.24
-109.80
-104.34
-96.10
-85.83
-74.46
-62.82
-51.37
-40.15
-28.92
-17.33
-5.05
8.13
22.17
36.68
50.82
63.35
72.91
78.46
79.68
77.11
72.06
66.06
60.47
56.09
53.00
50.75
48.52
45.51
41.31
36.19
31.28
28.38
29.54
36.35
49.39
67.85
89.66
112.05
132.29
148.50
160.05
167.60
172.62
176.71
180.83
184.64
186.41
183.35
172.51
152.00
121.96
85.12
46.43
11.97
-12.65
-23.93
-21.65
-9.11
7.76
22.27
29.02
25.44
12.18
-7.76
-30.67
-53.53
-74.78
-93.99
-111.10
-125.74
-137.17
-144.83
-148.93
-150.61
-151.39
-152.43
-153.83
-154.76
-153.99
-150.76
-145.35
-138.96
-133.15
-129.06
-126.88
-125.76
-124.36
-121.45
-116.34
-109.06
-99.97
-89.39
-77.20
-62.93
-45.93
-25.82
-2.75
22.44
48.27
72.80
93.89
109.81
119.89
125.08
127.86
131.34
137.86
147.67
158.54
166.80
168.99
163.61
151.73
136.18
120.06
105.25
92.02
79.58
67.24
55.10
44.08
35.09
28.37
23.07
17.73
11.10
2.89
-5.93
-13.63
-18.53
-19.83
-17.95
-14.33
-10.76
-8.65
-8.58
-10.30
-13.10
-16.34
-19.70
-23.31
-27.44
-32.25
-37.57
-42.98
-48.00
-52.41
-56.15
-59.36
-62.10
-64.43
-66.42
-68.41
-71.09
-75.36
-81.91
-90.88
-101.72
-113.37
-124.75
-135.21
-144.66
-153.32
-161.36
-168.53
-174.18
-177.54
-178.02
-175.46
-170.01
-161.84
-150.90
-136.92
-119.70
-99.47
-77.16
-54.25
-32.42
-13.13
2.82
15.35
24.94
32.32
38.14
42.68
45.82
47.19
46.47
43.69
39.29
33.99
28.44
22.93
17.20
