1653559739.00
64.000000
-0.00
-0.00
-0.00
-0.00
-0.00
-0.00
-0.00
-0.00
-0.00
-0.00
0.00
0.01
0.01
-0.00
-0.03
-0.05
-0.05
0.00
0.13
0.36
0.66
1.01
1.37
1.72
2.06
2.40
2.79
3.24
3.80
4.42
5.06
5.66
6.20
6.68
7.15
7.68
8.31
9.14
10.09
11.04
11.88
12.56
13.14
13.76
14.65
15.96
17.91
20.32
22.90
25.38
27.58
29.57
31.68
34.32
37.81
42.54
48.15
54.10
59.83
64.97
69.58
74.14
79.35
85.71
93.76
103.00
112.62
121.73
129.76
136.75
143.31
150.77
157.82
166.69
177.95
191.71
206.77
220.23
227.79
224.83
207.98
176.33
132.23
79.50
22.45
-35.68
-93.32
-150.15
-206.28
-261.40
-314.72
-364.82
-410.84
-452.10
-487.99
-517.57
-539.32
-551.43
-552.12
-540.39
-516.18
-480.84
-436.57
-385.96
-331.45
-275.04
-218.22
-162.22
-108.26
-57.54
-11.42
29.02
63.23
91.30
113.87
131.88
146.12
156.99
164.51
168.44
168.71
165.70
160.24
153.45
146.34
139.49
132.91
126.20
118.77
110.10
99.84
87.94
74.89
62.02
51.45
45.73
46.77
54.85
68.12
83.01
95.49
102.67
103.71
99.81
93.24
86.22
79.74
73.76
67.86
61.79
55.79
50.34
45.74
41.92
38.41
34.60
30.19
25.35
20.60
16.54
13.57
11.69
10.59
9.76
8.76
7.39
5.72
3.98
2.49
1.46
0.92
0.72
0.54
-0.04
-1.24
-2.95
-4.66
-5.55
-4.98
-2.84
0.26
3.14
4.68
4.28
2.24
-0.53
-3.00
-4.56
-5.19
-5.34
-5.49
-5.78
-6.03
-5.89
-5.23
-4.22
-3.26
-2.74
-2.82
-3.43
-4.18
-4.71
-4.77
-4.33
-3.56
-2.77
-2.24
-2.11
-2.36
-2.78
-3.10
-3.07
-2.60
-1.74
-0.70
0.29
1.09
1.70
2.28
2.98
3.87
4.88
5.82
6.48
6.77
6.78
6.74
6.89
7.38
8.15
9.04
9.80
10.25
10.28
9.89
9.08
7.91
6.44
4.64
2.58
0.35
-1.93
-4.14
-6.20
-8.01
-9.52
-10.66
-11.45
-11.91
-12.08
-12.02
-11.76
-11.29
-10.65
-9.90
-9.14
-8.45
-7.89
-7.45
-7.07
-6.71
-6.36
-6.05
-5.80
-5.62
-5.50
-5.38
-5.23
-5.00
-4.70
-4.34
-3.98
-3.69
-3.53
-3.57
-3.77
-4.09
-4.41
-4.60
-4.57
-4.23
-3.54
-2.49
-1.17
0.27
1.61
2.60
3.09
3.02
2.50
1.71
0.85
0.05
-0.58
-1.04
-1.33
-1.50
-1.55
-1.47
-1.23
-0.78
-0.20
0.48
1.22
1.97
2.68
3.32
3.85
4.19
4.29
4.09
3.62
2.97
2.26
1.60
1.06
0.65
0.34
0.12
-0.05
-0.20
-0.36
-0.60
-0.93
-1.32
-1.70
-2.01
-2.23
-2.48
-2.87
-3.51
-4.37
-5.34
-6.24
-6.94
-7.44
-7.80
-8.23
-8.90
-9.91
-11.25
-12.83
-14.42
-15.78
-16.64
-16.76
-16.00
-14.34
-11.90
-8.96
-5.89
-3.05
-0.72
1.00
2.13
2.84
3.32
3.74
4.22
4.83
5.60
6.52
7.52
8.48
9.26
9.76
9.96
9.94
9.84
9.81
9.90
10.11
10.32
10.41
10.24
9.79
9.08
8.16
7.16
6.15
5.21
4.39
3.71
3.15
2.71
2.36
2.11
1.99
1.98
2.01
1.92
1.51
0.63
-0.68
-2.25
-3.76
-4.93
-5.66
-6.10
-6.51
-7.23
-8.39
-9.92
-11.51
-12.73
-13.19
-12.64
-11.05
-8.60
-5.66
-2.65
0.06
2.23
3.79
4.82
5.48
5.97
6.41
6.91
7.45
8.00
8.51
8.90
9.13
9.19
9.13
9.02
8.99
9.11
9.43
9.94
10.52
11.04
11.36
11.41
11.15
10.65
10.01
9.34
8.71
8.16
7.68
7.23
6.77
6.25
5.68
5.10
4.55
4.11
3.79
3.55
3.30
2.92
2.34
1.53
0.60
-0.35
-1.19
-1.87
-2.37
-2.73
-3.01
-3.29
-3.67
-4.27
-5.20
-6.44
-7.87
-9.22
-10.14
-10.38
-9.83
-8.59
-6.86
-4.93
-2.99
-1.16
0.51
2.00
3.27
4.28
4.98
5.36
5.45
5.34
5.16
5.02
5.02
5.13
5.28
5.39
5.41
5.39
5.41
5.52
5.71
5.89
5.95
5.88
5.71
5.53
5.40
5.28
5.09
4.74
4.22
3.60
3.00
2.54
2.24
2.07
1.95
1.79
1.48
0.95
0.20
-0.76
-1.79
-2.75
-3.47
-3.90
-4.04
-4.03
-4.07
-4.34
-4.96
-5.88
-6.96
-7.92
-8.49
-8.49
-7.85
-6.70
-5.23
-3.69
-2.26
-1.03
-0.03
0.77
1.36
1.79
2.07
2.26
2.43
2.64
2.90
3.15
3.35
3.43
3.39
3.25
3.11
3.01
2.99
3.02
3.06
3.05
2.97
2.82
2.60
2.34
2.06
1.78
1.52
1.30
1.16
1.10
1.12
1.16
1.14
0.99
0.66
0.12
-0.56
-1.31
-2.03
-2.64
-3.10
-3.43
-3.69
-3.94
-4.24
-4.62
-5.09
-5.59
-6.10
-6.57
-6.98
-7.33
-7.66
-8.01
-8.47
-9.07
-9.79
-10.54
-11.10
-11.25
-10.86
-9.89
-8.48
-6.87
-5.29
-3.90
-2.79
-1.95
-1.34
-0.93
-0.69
-0.56
-0.48
-0.36
-0.15
0.16
0.56
1.00
1.43
1.79
2.04
2.17
2.19
2.14
2.11
2.16
2.36
2.69
3.11
3.53
3.87
4.09
4.18
4.14
3.95
3.60
3.10
2.52
1.95
1.52
1.30
1.29
1.36
1.38
1.18
0.73
0.07
-0.70
-1.43
-2.05
-2.56
-3.01
-3.41
-3.74
-3.93
-3.90
-3.66
-3.31
-3.01
-2.90
-3.01
-3.27
-3.61
-3.92
-4.17
-4.34
-4.37
-4.17
-3.63
-2.72
-1.51
-0.19
1.03
1.99
2.64
3.03
3.24
3.38
3.48
3.56
3.61
3.60
3.50
3.31
3.06
2.82
2.67
2.63
2.70
2.84
2.99
3.09
3.11
3.06
2.97
2.89
2.86
2.92
3.06
3.24
3.39
3.43
3.27
2.87
2.23
1.39
0.46
-0.46
-1.26
-1.89
-2.34
-2.64
-2.81
-2.88
-2.87
-2.79
-2.70
-2.70
-2.87
-3.25
-3.78
-4.35
-4.84
-5.17
-5.33
-5.40
-5.45
-5.55
-5.72
-5.91
-6.10
-6.31
-6.61
-7.05
-7.67
-8.32
-8.79
-8.84
-8.31
-7.22
-5.80
-4.31
-3.02
-2.06
-1.42
-1.02
-0.74
-0.50
-0.25
0.02
0.34
0.72
1.12
1.51
1.79
1.92
1.89
1.73
1.52
1.36
1.33
1.45
1.70
2.02
2.34
2.58
2.71
2.71
2.62
2.47
2.32
2.21
2.19
2.23
2.31
2.38
2.39
2.33
2.23
2.12
2.02
1.90
1.71
1.39
0.95
0.42
-0.15
-0.73
-1.28
-1.76
-2.12
-2.31
-2.32
-2.24
-2.16
-2.22
-2.52
-3.09
-3.87
-4.71
-5.45
-5.91
-5.92
-5.41
-4.41
-3.10
-1.75
-0.61
0.17
0.60
0.80
0.92
1.08
1.29
1.50
1.61
1.59
1.45
1.24
1.07
1.02
1.15
1.43
1.81
2.17
2.41
2.49
2.46
2.38
2.35
2.38
2.38
2.28
1.99
1.57
1.16
0.92
0.95
1.21
1.53
1.72
1.67
1.39
0.98
0.52
0.06
-0.42
-0.95
-1.49
-1.92
-2.16
-2.17
-2.07
-2.01
-2.14
-2.47
-2.89
-3.22
-3.35
-3.29
-3.22
-3.33
-3.77
-4.57
-5.63
-6.72
-7.61
-8.10
-8.09
-7.56
-6.63
-5.43
-4.15
-2.94
-1.90
-1.05
-0.34
0.29
0.91
1.56
2.29
3.08
3.88
4.58
5.08
5.28
5.15
4.72
4.14
3.58
3.13
2.84
2.63
2.37
1.96
1.38
0.68
0.01
-0.52
-0.88
-1.13
-1.40
-1.81
-2.41
-3.15
-3.97
-4.78
-5.55
-6.34
-7.19
-8.15
-9.26
-10.52
-11.92
-13.42
-14.98
-16.50
-17.90
-19.06
-19.91
-20.42
-20.59
-20.39
-19.74
-18.54
-16.72
-14.27
-11.31
-8.07
-4.82
-1.81
0.77
2.87
4.56
5.96
7.24
8.50
9.75
10.95
11.98
12.73
13.15
13.25
13.10
12.79
12.38
11.94
11.49
11.07
10.72
10.50
10.46
10.57
10.77
10.92
10.86
10.50
9.87
9.09
8.34
7.77
7.48
7.43
7.50
7.53
7.41
7.07
6.55
5.92
5.31
4.76
4.31
3.90
3.48
3.01
2.53
2.10
1.82
1.74
1.79
1.86
1.85
1.64
1.22
0.61
-0.12
-0.90
-1.73
-2.61
-3.58
-4.66
-5.80
-6.93
-7.90
-8.55
-8.76
-8.41
-7.48
-6.02
-4.16
-2.16
-0.33
1.06
1.87
2.15
2.13
2.07
2.17
2.43
2.74
2.94
2.97
2.88
2.83
2.95
3.26
3.66
3.99
4.15
4.13
4.04
4.00
4.13
4.41
4.77
5.10
5.32
5.41
5.39
5.32
5.27
5.29
5.42
5.61
5.77
5.79
5.57
5.10
4.44
3.69
2.96
2.31
1.73
1.19
0.62
-0.02
-0.73
-1.49
-2.25
-2.98
-3.65
-4.29
-4.89
-5.43
-5.86
-6.17
-6.35
-6.49
-6.75
-7.29
-8.17
-9.28
-10.32
-10.89
-10.66
-9.51
-7.62
-5.40
-3.33
-1.80
-0.98
-0.81
-1.03
-1.38
-1.62
-1.64
-1.40
-0.94
-0.32
0.43
1.22
2.00
2.70
3.25
3.64
3.94
4.22
4.59
5.13
5.84
6.69
7.54
8.27
8.74
8.86
8.61
8.06
7.32
6.51
5.70
4.91
4.14
3.42
2.82
2.40
2.16
2.06
1.99
1.91
1.80
1.72
1.68
1.61
1.38
0.88
0.10
-0.83
-1.72
-2.40
-2.81
-3.08
-3.38
-3.88
-4.65
-5.66
-6.77
-7.81
-8.60
-8.95
-8.72
-7.84
-6.35
-4.43
-2.40
-0.60
0.71
1.42
1.59
1.43
1.14
0.86
0.66
0.57
0.58
0.71
0.97
1.37
1.87
2.39
2.83
3.14
3.31
3.37
3.35
3.29
3.18
2.99
2.71
2.33
1.88
1.47
1.19
1.11
1.19
1.35
1.44
1.40
1.22
1.03
0.92
0.96
1.11
1.22
1.18
0.92
0.47
-0.09
-0.67
-1.25
-1.80
-2.30
-2.72
-3.03
-3.23
-3.38
-3.62
-4.06
-4.73
-5.59
-6.48
-7.18
-7.50
-7.35
-6.70
-5.67
-4.42
-3.09
-1.85
-0.79
0.01
0.53
0.76
0.77
0.65
0.49
0.39
0.39
0.51
0.74
1.07
1.48
1.94
2.44
2.92
3.31
3.58
3.69
3.69
3.61
3.56
3.58
3.70
3.88
4.04
4.11
4.08
3.99
3.94
4.01
4.20
4.42
4.58
4.58
4.39
4.02
3.50
2.85
2.13
1.35
0.58
-0.16
-0.87
-1.57
-2.29
-3.03
-3.77
-4.49
-5.16
-5.75
-6.22
-6.48
-6.43
-5.98
-5.12
-3.94
-2.60
-1.28
-0.13
0.82
1.64
2.43
3.21
3.93
4.43
4.55
4.21
3.47
2.51
1.52
0.67
0.02
-0.46
-0.85
-1.20
-1.51
-1.74
-1.87
-1.87
-1.76
-1.59
-1.40
-1.23
-1.07
-0.92
-0.77
-0.59
-0.40
-0.23
-0.12
-0.10
-0.21
-0.43
-0.74
-1.11
-1.51
-1.88
-2.18
-2.43
-2.68
-3.06
-3.73
-4.79
-6.27
-8.02
-9.74
-11.07
-11.70
-11.46
-10.36
-8.63
-6.56
-4.45
-2.52
-0.88
0.42
1.38
2.02
2.40
2.62
2.79
2.98
3.20
3.41
3.56
3.68
3.82
4.08
4.53
5.13
5.80
6.44
6.97
7.35
7.60
7.72
7.73
7.62
7.40
7.10
6.76
6.42
6.16
6.01
5.97
6.00
5.97
5.74
5.20
4.29
3.07
1.62
0.07
-1.44
-2.82
-3.94
-4.71
-5.10
-5.17
-5.07
-5.03
-5.29
-5.96
-6.99
-8.18
-9.19
-9.72
-9.56
-8.71
-7.34
-5.73
-4.12
-2.67
-1.45
-0.42
0.44
1.15
1.71
2.15
2.51
2.81
3.05
3.12
2.88
2.24
1.20
-0.08
-1.34
-2.30
-2.80
-2.80
-2.36
-1.68
-0.89
-0.15
0.47
0.95
1.24
1.36
1.26
0.95
0.46
-0.15
-0.83
-1.51
-2.14
-2.75
-3.36
-3.97
-4.58
-5.14
-5.58
-5.85
-5.99
-6.09
-6.30
-6.76
-7.56
-8.72
-10.10
-11.48
-12.55
-13.04
-12.73
-11.55
-9.59
-7.04
-4.19
-1.37
1.15
3.18
4.62
5.52
6.03
6.36
6.72
7.22
7.83
8.44
8.88
9.03
8.89
8.56
8.23
8.06
8.18
8.62
9.30
10.11
10.87
11.46
11.79
11.82
11.51
10.87
9.91
8.74
7.49
6.34
5.43
4.81
4.39
4.00
3.46
2.64
1.48
0.01
-1.64
-3.34
-4.93
-6.21
-7.01
-7.26
-7.02
-6.47
-5.85
-5.39
-5.19
-5.24
-5.48
-5.85
-6.33
-6.95
-7.72
-8.54
-9.21
-9.47
-9.13
-8.12
-6.52
-4.52
-2.38
-0.33
1.46
2.93
4.04
4.85
5.43
5.89
6.32
6.81
7.35
7.92
8.42
8.77
8.91
8.86
8.67
8.43
8.19
7.97
7.72
7.40
6.98
6.45
5.83
5.16
4.43
3.68
2.96
2.35
1.94
1.78
1.84
2.02
2.16
2.17
1.98
1.64
1.18
0.69
0.20
-0.26
-0.70
-1.15
-1.64
-2.22
-2.86
-3.52
-4.15
-4.68
-5.10
-5.46
-5.85
-6.34
-6.95
-7.64
-8.32
-8.84
-9.03
-8.78
-8.01
-6.79
-5.25
-3.60
-2.08
-0.87
-0.09
0.27
0.31
0.20
0.10
0.13
0.30
0.51
0.59
0.46
0.15
-0.18
-0.31
-0.06
0.56
1.44
2.33
3.04
3.43
3.42
3.05
2.36
1.45
0.43
-0.57
-1.41
-2.02
-2.42
-2.66
-2.83
-2.94
-2.98
-2.89
-2.63
-2.21
-1.74
-1.36
-1.20
-1.31
-1.71
-2.34
-3.13
-4.00
-4.78
-5.31
-5.38
-4.88
-3.83
-2.44
-1.01
0.18
0.94
1.33
1.48
1.62
1.87
2.26
2.71
3.11
3.37
3.50
3.56
3.67
3.90
4.24
4.60
4.89
5.02
5.03
5.00
5.05
5.22
5.49
5.78
6.02
6.21
6.37
6.57
6.77
6.91
6.87
6.56
5.97
5.15
4.22
3.32
2.51
1.84
1.25
0.70
0.12
-0.57
-1.36
-2.23
-3.09
-3.86
-4.46
-4.90
-5.20
-5.43
-5.66
-5.95
-6.37
-7.00
-7.78
-8.61
-9.25
-9.46
-9.08
-8.14
-6.86
-5.55
-4.48
-3.78
-3.42
-3.27
-3.16
-2.98
-2.68
-2.29
-1.82
-1.29
-0.76
-0.27
0.14
0.45
0.71
0.96
1.27
1.63
1.97
2.22
2.30
2.22
2.08
1.98
1.99
2.08
2.15
2.10
1.86
1.49
1.06
0.63
0.24
-0.11
-0.41
-0.66
-0.83
-0.92
-0.99
-1.09
-1.27
-1.49
-1.69
-1.80
-1.80
-1.73
-1.65
-1.63
-1.74
-2.03
-2.57
-3.37
-4.31
-5.17
-5.63
-5.41
-4.46
-2.95
-1.26
0.25
1.35
1.99
2.33
2.52
2.65
2.69
2.59
2.30
1.88
1.48
1.20
1.13
1.22
1.35
1.41
1.34
1.17
1.03
1.04
1.25
1.66
2.15
2.58
2.82
2.81
2.55
2.10
1.58
1.11
0.77
0.58
0.48
0.33
0.03
-0.45
-1.06
-1.70
-2.23
-2.58
-2.75
-2.78
-2.76
-2.73
-2.76
-2.84
-3.02
-3.31
-3.70
-4.18
-4.71
-5.32
-6.04
-6.87
-7.74
-8.47
-8.80
-8.52
-7.58
-6.11
-4.40
-2.75
-1.35
-0.26
0.62
1.38
2.07
2.67
3.08
3.25
3.18
2.96
2.73
2.59
2.60
2.71
2.83
2.90
2.88
2.83
2.81
2.86
2.97
3.11
3.22
3.28
3.28
3.22
3.07
2.79
2.38
1.85
1.26
0.69
0.21
-0.14
-0.37
-0.49
-0.57
-0.65
-0.78
-0.97
-1.22
-1.48
-1.75
-2.04
-2.40
-2.85
-3.37
-3.94
-4.53
-5.12
-5.66
-6.03
-6.07
-5.58
-4.44
-2.72
-0.67
1.38
3.15
4.52
5.51
6.21
6.66
6.81
6.57
5.90
4.89
3.74
2.68
1.94
1.58
1.55
1.72
1.96
2.19
2.44
2.76
3.15
3.56
3.84
3.86
3.58
3.10
2.59
2.23
2.11
2.18
2.29
2.28
2.03
1.54
0.84
-0.01
-0.98
-2.05
-3.19
-4.37
-5.53
-6.60
-7.53
-8.30
-8.86
-9.14
-9.04
-8.46
-7.38
-5.85
-4.00
-1.99
0.02
1.88
3.50
4.77
5.63
6.02
6.00
5.69
5.27
4.90
4.67
4.58
4.60
4.67
4.79
4.96
5.19
5.46
5.71
5.88
5.93
5.85
5.65
5.34
4.92
4.37
3.72
3.00
2.25
1.49
0.76
0.04
-0.63
-1.21
-1.68
-2.03
-2.30
-2.55
-2.86
-3.29
-3.82
-4.40
-4.94
-5.39
-5.77
-6.21
-6.86
-7.87
-9.27
-10.92
-12.56
-13.86
-14.54
-14.44
-13.51
-11.86
-9.63
-7.02
-4.26
-1.59
0.73
2.48
3.53
3.89
3.72
3.27
2.82
2.59
2.71
3.20
3.99
4.93
5.90
6.76
7.40
7.78
7.90
7.79
7.56
7.33
7.21
7.21
7.26
7.21
6.93
6.34
5.54
4.68
3.96
3.49
3.24
3.10
2.90
2.56
2.07
1.51
0.96
0.49
0.06
-0.40
-0.96
-1.66
-2.48
-3.33
-4.11
-4.75
-5.24
-5.64
-6.03
-6.44
-6.89
-7.38
-7.94
-8.64
-9.53
-10.52
-11.42
-11.94
-11.81
-10.93
-9.40
-7.46
-5.40
-3.44
-1.70
-0.23
0.95
1.87
2.54
3.01
3.36
3.65
3.90
4.13
4.33
4.54
4.76
5.01
5.27
5.50
5.65
5.72
5.75
5.80
5.93
6.14
6.37
6.51
6.42
6.03
5.36
4.49
3.57
2.74
2.06
1.51
1.02
0.51
-0.09
-0.75
-1.47
-2.19
-2.92
-3.65
-4.36
-5.05
-5.71
-6.33
-6.97
-7.64
-8.30
-8.81
-8.95
-8.56
-7.54
-6.00
-4.17
-2.30
-0.53
1.09
2.61
4.08
5.42
6.51
7.21
7.45
7.31
6.95
6.49
6.05
5.65
5.28
4.98
4.82
4.87
5.13
5.51
5.87
6.12
6.21
6.22
6.23
6.26
6.24
6.04
5.50
4.55
3.30
1.95
0.77
-0.04
-0.35
-0.20
0.27
0.88
1.45
1.86
2.06
2.01
1.71
1.15
0.28
-0.88
-2.31
-3.91
-5.57
-7.22
-8.87
-10.54
-12.24
-13.86
-15.14
-15.72
-15.32
-13.85
-11.52
-8.72
-5.90
-3.36
-1.17
0.75
2.53
4.24
5.82
7.15
8.15
8.83
9.28
9.59
9.87
10.14
10.40
10.61
10.73
10.74
10.64
10.44
10.13
9.75
9.30
8.76
8.14
7.42
6.61
5.69
4.70
3.67
2.67
1.79
1.05
0.49
0.08
-0.26
-0.57
-0.92
-1.31
-1.76
-2.27
-2.87
-3.55
-4.32
-5.11
-5.86
-6.56
-7.25
-8.05
-9.07
-10.33
-11.68
-12.80
-13.34
-13.03
-11.83
-9.94
-7.75
-5.62
-3.82
-2.45
-1.42
-0.61
0.13
0.86
1.58
2.25
2.79
3.18
3.43
3.61
3.84
4.19
4.70
5.32
5.92
6.40
6.72
6.87
6.87
6.71
6.37
5.84
5.14
4.39
3.69
3.17
2.87
2.77
2.79
2.86
2.93
2.96
2.93
2.75
2.36
1.69
0.74
-0.44
-1.71
-2.98
-4.18
-5.33
-6.54
-7.89
-9.38
-10.93
-12.33
-13.32
-13.72
-13.46
-12.62
-11.40
-9.99
-8.57
-7.17
-5.78
-4.40
-3.04
-1.76
-0.64
0.34
1.23
2.11
3.01
3.90
4.67
5.22
5.54
5.72
5.89
6.21
6.71
7.32
7.92
8.38
8.65
8.70
8.57
8.28
7.83
7.22
6.46
5.63
4.82
4.15
3.68
3.43
3.36
3.40
3.52
3.67
3.81
3.92
3.95
3.82
3.49
2.91
2.11
1.15
0.14
-0.80
-1.58
-2.18
-2.64
-3.09
-3.76
-4.85
-6.47
-8.54
-10.80
-12.78
-13.98
-14.02
-12.77
-10.45
-7.52
-4.51
-1.90
0.08
1.42
2.24
2.69
2.92
3.01
3.05
3.12
3.30
3.64
4.11
4.68
5.24
5.79
6.31
6.81
7.28
7.64
7.79
7.68
7.29
6.68
5.94
5.14
4.35
3.60
2.88
2.23
1.68
1.23
0.88
0.58
0.27
-0.07
-0.45
-0.83
-1.16
-1.42
-1.61
-1.77
-1.94
-2.16
-2.44
-2.80
-3.25
-3.82
-4.57
-5.53
-6.73
-8.13
-9.65
-11.13
-12.35
-13.07
-13.11
-12.37
-10.87
-8.81
-6.44
-4.06
-1.90
-0.11
1.26
2.25
2.89
3.28
3.47
3.57
3.67
3.89
4.26
4.76
5.28
5.69
5.91
5.96
5.92
5.92
6.06
6.34
6.72
7.12
7.44
7.62
7.63
7.47
7.15
6.69
6.12
5.50
4.86
4.25
3.69
3.17
2.66
2.14
1.60
1.06
0.57
0.17
-0.15
-0.42
-0.69
-1.00
-1.34
-1.70
-2.06
-2.46
-2.96
-3.68
-4.67
-5.93
-7.36
-8.73
-9.73
-10.09
-9.59
-8.18
-6.01
-3.42
-0.81
1.47
3.21
4.37
5.05
5.40
5.55
5.59
5.53
5.37
5.13
4.82
4.49
4.21
4.04
4.01
4.11
4.31
4.55
4.77
4.99
5.18
5.35
5.41
5.28
4.85
4.11
3.14
2.11
1.21
0.56
0.13
-0.19
-0.52
-0.92
-1.38
-1.84
-2.25
-2.64
-3.05
-3.51
-3.98
-4.41
-4.73
-4.99
-5.32
-5.92
-6.93
-8.36
-10.04
-11.66
-12.87
-13.37
-13.02
-11.84
-10.05
-7.94
-5.81
-3.90
-2.37
-1.22
-0.40
0.20
0.67
1.11
1.49
1.78
1.89
1.74
1.34
0.80
0.28
-0.05
-0.12
0.04
0.25
0.35
0.23
-0.11
-0.57
-1.01
-1.31
-1.45
-1.46
-1.45
-1.45
-1.49
-1.58
-1.69
-1.82
-1.98
-2.18
-2.42
-2.70
-3.01
-3.34
-3.66
-3.95
-4.18
-4.36
-4.51
-4.67
-4.92
-5.30
-5.88
-6.65
-7.55
-8.41
-9.02
-9.17
-8.72
-7.63
-6.02
-4.10
-2.09
-0.22
1.36
2.54
3.27
3.56
3.48
3.13
2.66
2.18
1.76
1.40
1.13
1.00
1.07
1.37
1.85
2.37
2.79
3.01
3.04
2.95
2.83
2.72
2.57
2.29
1.85
1.29
0.70
0.18
-0.29
-0.75
-1.27
-1.86
-2.45
-2.95
-3.37
-3.74
-4.18
-4.76
-5.51
-6.40
-7.36
-8.31
-9.14
-9.68
-9.78
-9.30
-8.23
-6.73
-5.03
-3.32
-1.73
-0.23
1.23
2.67
4.01
5.13
5.93
6.38
6.50
6.37
6.09
5.76
5.46
5.26
5.22
5.33
5.54
5.79
6.00
6.09
6.00
5.68
5.12
4.37
3.54
2.79
2.25
1.95
1.84
1.79
1.64
1.30
0.77
0.11
-0.56
-1.19
-1.71
-2.15
-2.57
-3.04
-3.67
-4.58
-5.80
-7.31
-8.97
-10.53
-11.71
-12.23
-11.95
-10.88
-9.20
-7.17
-5.08
-3.15
-1.49
-0.11
1.05
2.07
3.01
3.88
4.66
5.32
5.82
6.12
6.22
6.16
5.98
5.77
5.59
5.51
5.56
5.72
5.94
6.13
6.20
6.07
5.70
5.12
4.40
3.63
2.90
2.24
1.66
1.12
0.58
-0.01
-0.73
-1.61
-2.66
-3.80
-4.91
-5.84
-6.53
-7.06
-7.59
-8.30
-9.28
-10.45
-11.60
-12.46
-12.78
-12.43
-11.36
-9.67
-7.52
-5.12
-2.73
-0.55
1.25
2.62
3.60
4.27
4.75
5.11
5.43
5.74
6.04
6.37
6.75
7.21
7.72
8.27
8.77
9.16
9.41
9.51
9.50
9.39
9.19
8.84
8.35
7.76
7.14
6.57
6.04
5.50
4.83
3.98
2.96
1.89
0.90
0.06
-0.60
-1.20
-1.84
-2.67
-3.73
-4.97
-6.27
-7.44
-8.29
-8.65
-8.40
-7.46
-5.83
-3.64
-1.11
1.50
3.88
5.83
7.25
8.18
8.74
9.05
9.20
9.26
9.28
9.34
9.53
9.87
10.34
10.79
11.06
11.07
10.84
10.52
10.27
10.15
10.08
9.89
9.41
8.59
7.53
6.42
5.42
4.61
3.93
3.27
2.53
1.65
0.63
-0.52
-1.79
-3.19
-4.64
-6.03
-7.24
-8.18
-8.86
-9.40
-9.99
-10.80
-11.94
-13.37
-14.93
-16.34
-17.28
-17.48
-16.80
-15.24
-12.98
-10.31
-7.54
-5.01
-2.91
-1.34
-0.30
0.34
0.71
0.98
1.26
1.60
1.99
2.40
2.83
3.24
3.66
4.08
4.50
4.89
5.23
5.50
5.63
5.59
5.39
5.06
4.69
4.35
4.07
3.84
3.61
3.30
2.94
2.53
2.16
1.86
1.61
1.37
1.06
0.64
0.08
-0.57
-1.27
-1.99
-2.71
-3.45
-4.24
-5.11
-6.02
-6.86
-7.47
-7.67
-7.34
-6.48
-5.17
-3.58
-1.88
-0.23
1.27
2.56
3.61
4.44
5.06
5.48
5.74
5.87
5.92
5.92
5.92
5.92
5.91
5.88
5.85
5.84
5.88
5.95
6.01
6.00
5.86
5.60
5.28
4.98
4.73
4.50
4.24
3.92
3.54
3.13
2.77
2.45
2.14
1.79
1.35
0.82
0.19
-0.55
-1.40
-2.37
-3.46
-4.63
-5.80
-6.88
-7.73
-8.20
-8.19
-7.59
-6.45
-4.89
-3.13
-1.37
0.24
1.67
2.93
4.04
4.97
5.64
5.94
5.86
5.49
5.03
4.71
4.70
5.04
5.61
6.23
6.74
7.11
7.36
7.57
7.80
8.01
8.16
8.22
8.21
8.18
8.15
8.05
7.77
7.19
6.28
5.13
3.88
2.70
1.67
0.80
0.03
-0.65
-1.25
-1.74
-2.09
-2.30
-2.45
-2.68
-3.14
-3.94
-5.08
-6.47
-8.00
-9.51
-10.92
-12.14
-13.09
-13.67
-13.76
-13.25
-12.14
-10.55
-8.68
-6.75
-4.97
-3.42
-2.18
-1.25
-0.67
-0.44
-0.54
-0.86
-1.25
-1.53
-1.57
-1.35
-0.89
-0.28
0.38
1.01
1.54
1.92
2.13
2.21
2.23
2.26
2.36
2.54
2.78
3.01
3.18
3.28
3.28
3.22
3.08
2.88
2.62
2.28
1.89
1.49
1.10
0.77
0.48
0.19
-0.13
-0.53
-1.02
-1.55
-2.08
-2.55
-2.98
-3.44
-4.03
-4.80
-5.74
-6.73
-7.61
-8.16
-8.22
-7.73
-6.72
-5.34
-3.81
-2.35
-1.15
-0.26
0.32
0.64
0.78
0.82
0.79
0.72
0.66
0.64
0.69
0.86
1.14
1.53
2.00
2.51
3.00
3.44
3.79
4.05
4.22
4.25
4.10
3.71
3.05
2.20
1.29
0.46
-0.19
-0.70
-1.19
-1.77
-2.51
-3.30
-3.98
-4.37
-4.42
-4.24
-4.02
-3.97
-4.23
-4.74
-5.40
-6.05
-6.60
-7.01
-7.22
-7.13
-6.59
-5.55
-4.06
-2.39
-0.87
0.17
0.65
0.66
0.46
0.29
0.28
0.41
0.61
0.78
0.91
1.02
1.19
1.44
1.81
2.28
2.86
3.50
4.17
4.80
5.33
5.68
5.80
5.68
5.36
4.92
4.49
4.18
4.06
4.08
4.15
4.08
3.77
3.17
2.35
1.45
0.59
-0.14
-0.77
-1.32
-1.87
-2.42
-2.97
-3.51
-4.00
-4.44
-4.85
-5.23
-5.60
-5.96
-6.31
-6.71
-7.19
-7.77
-8.44
-9.07
-9.50
-9.52
-9.00
-7.93
-6.48
-4.88
-3.41
-2.27
-1.54
-1.18
-1.09
-1.16
-1.25
-1.25
-1.09
-0.71
-0.15
0.52
1.19
1.73
2.09
2.22
2.16
2.00
1.86
1.88
2.15
2.69
3.40
4.06
4.43
4.39
3.94
3.24
2.54
2.00
1.71
1.64
1.70
1.76
1.72
1.53
1.15
0.57
-0.15
-0.94
-1.69
-2.31
-2.75
-3.03
-3.20
-3.38
-3.65
-4.06
-4.65
-5.35
-6.06
-6.69
-7.15
-7.48
-7.79
-8.21
-8.81
-9.56
-10.24
-10.61
-10.46
-9.67
-8.30
-6.53
-4.61
-2.74
-1.10
0.23
1.22
1.88
2.25
2.38
2.31
2.14
1.92
1.73
1.62
1.62
1.71
1.88
2.10
2.36
2.68
3.07
3.54
4.03
4.46
4.75
4.82
4.70
4.47
4.19
3.96
3.75
3.52
3.20
2.74
2.16
1.52
0.91
0.38
-0.05
-0.39
-0.67
-0.90
-1.13
-1.40
-1.80
-2.40
-3.24
-4.29
-5.47
-6.67
-7.71
-8.39
-8.55
-8.09
-7.04
-5.56
-3.93
-2.41
-1.20
-0.34
0.21
0.58
0.89
1.21
1.58
1.99
2.40
2.73
2.95
3.06
3.14
3.29
3.59
4.07
4.66
5.32
5.97
6.61
7.22
7.74
8.07
8.12
7.88
7.44
6.91
6.42
5.99
5.53
4.87
3.91
2.61
1.06
-0.60
-2.17
-3.48
-4.45
-5.05
-5.38
-5.54
-5.68
-5.90
-6.21
-6.60
-7.01
-7.39
-7.77
-8.22
-8.82
-9.64
-10.72
-11.96
-13.20
-14.16
-14.58
-14.25
-13.10
-11.24
-8.94
-6.54
-4.38
-2.68
-1.50
-0.75
-0.30
-0.02
0.20
0.40
0.61
0.87
1.21
1.65
2.20
2.80
3.37
3.85
4.19
4.42
4.63
4.86
5.13
5.37
5.48
5.41
5.15
4.81
4.50
4.32
4.25
4.15
3.90
3.38
2.57
1.57
0.48
-0.59
-1.59
-2.52
-3.41
-4.26
-5.03
-5.70
-6.29
-6.88
-7.60
-8.50
-9.51
-10.45
-11.07
-11.15
-10.56
-9.34
-7.63
-5.57
-3.35
-1.11
0.99
2.83
4.29
5.35
6.02
6.37
6.50
6.51
6.54
6.68
7.02
7.56
8.19
8.76
9.13
9.28
9.29
9.31
9.47
9.75
10.00
10.05
9.73
9.06
8.13
7.14
6.27
5.63
5.20
4.92
4.66
4.30
3.75
2.93
1.83
0.47
-1.05
-2.61
-4.08
-5.40
-6.60
-7.80
-9.10
-10.57
-12.16
-13.68
-14.88
-15.47
-15.26
-14.14
-12.19
-9.60
-6.68
-3.80
-1.27
0.71
2.12
3.11
3.88
4.67
5.58
6.56
7.48
8.14
8.43
8.38
8.17
8.04
8.21
8.75
9.59
10.56
11.45
12.14
12.63
12.94
13.11
13.13
12.89
12.31
11.38
10.19
8.91
7.71
6.68
5.82
5.02
4.13
3.05
1.73
0.22
-1.35
-2.82
-4.06
-4.99
-5.64
-6.11
-6.55
-7.10
-7.83
-8.79
-9.97
-11.29
-12.59
-13.64
-14.17
-13.94
-12.89
-11.15
-9.05
-6.92
-5.05
-3.49
-2.13
-0.80
0.63
2.14
3.58
4.76
5.60
6.11
6.44
6.73
7.04
7.34
7.54
7.61
7.58
7.57
7.72
8.06
8.53
8.96
9.18
9.11
8.75
8.20
7.55
6.87
6.18
5.50
4.82
4.14
3.45
2.73
1.99
1.23
0.51
-0.14
-0.68
-1.16
-1.59
-2.05
-2.54
-3.09
-3.71
-4.40
-5.12
-5.72
-6.03
-5.84
-5.04
-3.69
-1.96
-0.13
1.58
3.01
4.13
4.96
5.57
6.02
6.33
6.47
6.43
6.16
5.69
5.11
4.55
4.14
3.96
4.01
4.20
4.43
4.60
4.65
4.54
4.24
3.80
3.24
2.66
2.13
1.69
1.27
0.82
0.31
-0.25
-0.73
-1.05
-1.19
-1.23
-1.35
-1.69
-2.28
-3.02
-3.74
-4.26
-4.52
-4.59
-4.61
-4.76
-5.17
-5.86
-6.79
-7.88
-8.96
-9.89
-10.50
-10.64
-10.21
-9.20
-7.71
-5.95
-4.14
-2.49
-1.09
0.04
0.93
1.64
2.24
2.73
3.17
3.53
3.79
3.89
3.77
3.48
3.09
2.79
2.72
2.94
3.37
3.87
4.29
4.54
4.63
4.58
4.43
4.18
3.82
3.35
2.80
2.22
1.65
1.10
0.55
-0.02
-0.62
-1.22
-1.78
-2.25
-2.61
-2.93
-3.25
-3.65
-4.14
-4.67
-5.17
-5.57
-5.90
-6.25
-6.77
-7.52
-8.44
-9.37
-10.06
-10.30
-10.01
-9.20
-7.99
-6.55
-5.00
-3.50
-2.15
-1.07
-0.31
0.11
0.28
0.34
0.41
0.56
0.78
1.00
1.19
1.34
1.50
1.73
2.05
2.41
2.71
2.87
2.89
2.83
2.80
2.83
2.90
2.87
2.61
2.07
1.31
0.50
-0.15
-0.53
-0.61
-0.46
-0.20
0.04
0.13
0.01
-0.36
-0.97
-1.75
-2.61
-3.47
-4.27
-4.99
-5.60
-6.05
-6.27
-6.14
-5.58
-4.57
-3.23
-1.76
-0.39
0.70
1.45
1.90
2.20
2.50
2.90
3.42
3.96
4.41
4.70
4.80
4.76
4.66
4.58
4.55
4.59
4.66
4.76
4.88
5.00
5.13
5.22
5.23
5.07
4.74
4.24
3.61
2.95
2.36
1.92
1.66
1.55
1.49
1.37
1.08
0.58
-0.10
-0.90
-1.68
-2.35
-2.89
-3.35
-3.83
-4.43
-5.22
-6.20
-7.33
-8.49
-9.52
-10.25
-10.50
-10.17
-9.25
-7.87
-6.30
-4.86
-3.81
-3.28
-3.17
-3.28
-3.37
-3.30
-3.09
-2.83
-2.62
-2.49
-2.35
-2.13
-1.81
-1.45
-1.15
-0.96
-0.83
-0.62
-0.19
0.49
1.31
2.08
2.60
2.78
2.68
2.42
2.15
1.97
1.87
1.76
1.57
1.29
0.98
0.72
0.55
0.42
0.23
-0.12
-0.60
-1.10
-1.45
-1.55
-1.43
-1.25
-1.24
-1.54
-2.19
-3.08
-4.01
-4.77
-5.16
-5.06
-4.42
-3.31
-1.89
-0.38
1.02
2.18
3.08
3.78
4.37
4.90
5.40
5.81
6.08
6.22
6.28
6.34
6.45
6.64
6.86
7.02
7.09
7.06
6.98
6.90
6.86
6.82
6.69
6.41
5.93
5.26
4.48
3.70
3.00
2.43
2.00
1.66
1.37
1.05
0.64
0.12
-0.52
-1.24
-1.99
-2.69
-3.30
-3.87
-4.49
-5.33
-6.56
-8.22
-10.19
-12.17
-13.71
-14.42
-14.08
-12.73
-10.66
-8.28
-5.97
-3.95
-2.30
-0.96
0.11
0.95
1.56
1.97
2.23
2.48
2.83
3.29
3.80
4.20
4.35
4.17
3.70
3.10
2.54
2.17
2.00
2.03
2.16
2.34
2.54
2.73
2.85
2.83
2.65
2.31
1.92
1.62
1.51
1.58
1.74
1.79
1.61
1.15
0.49
-0.22
-0.85
-1.31
-1.61
-1.82
-2.02
-2.28
-2.64
-3.10
-3.73
-4.55
-5.62
-6.90
-8.24
-9.40
-10.09
-10.10
-9.35
-7.95
-6.12
-4.17
-2.36
-0.88
0.23
0.99
1.53
1.96
2.42
2.96
3.55
4.11
4.56
4.87
5.07
5.24
5.49
5.88
6.43
7.09
7.77
8.39
8.90
9.24
9.35
9.18
8.67
7.81
6.65
5.34
4.08
3.09
2.45
2.16
2.07
1.97
1.66
1.03
0.12
-0.95
-2.02
-2.94
-3.61
-4.05
-4.37
-4.72
-5.24
-5.97
-6.84
-7.65
-8.16
-8.16
-7.60
-6.56
-5.26
-3.96
-2.85
-2.03
-1.51
-1.24
-1.13
-1.12
-1.10
-1.00
-0.79
-0.48
-0.14
0.12
0.30
0.43
0.65
1.04
1.64
2.40
3.18
3.88
4.42
4.82
5.08
5.18
5.05
4.62
3.87
2.88
1.79
0.80
0.03
-0.49
-0.85
-1.17
-1.54
-1.97
-2.38
-2.66
-2.77
-2.78
-2.83
-3.09
-3.66
-4.52
-5.55
-6.60
-7.47
-8.01
-8.04
-7.47
-6.27
-4.56
-2.56
-0.62
0.96
2.02
2.56
2.71
2.68
2.64
2.69
2.83
3.03
3.23
3.40
3.48
3.46
3.32
3.04
2.63
2.14
1.68
1.39
1.36
1.61
2.05
2.53
2.90
3.08
3.04
2.84
2.52
2.11
1.61
1.03
0.41
-0.18
-0.69
-1.16
-1.63
-2.16
-2.75
-3.35
-3.86
-4.22
-4.45
-4.67
-5.00
-5.52
-6.23
-7.03
-7.76
-8.25
-8.32
-7.85
-6.82
-5.27
-3.42
-1.51
0.17
1.46
2.31
2.77
3.01
3.16
3.32
3.53
3.81
4.13
4.48
4.81
5.06
5.18
5.15
5.04
4.91
4.88
4.96
5.09
5.16
5.06
4.76
4.30
3.79
3.30
2.84
2.40
1.93
1.45
1.03
0.73
0.57
0.46
0.31
0.03
-0.40
-0.93
-1.48
-2.04
-2.64
-3.34
-4.15
-4.97
-5.58
-5.72
-5.24
-4.13
-2.59
-0.94
0.50
1.54
2.16
2.47
2.64
2.80
3.01
3.24
3.45
3.62
3.72
3.74
3.66
3.48
3.19
2.85
2.51
2.23
1.96
1.65
1.27
0.82
0.39
0.12
0.03
0.08
0.11
-0.02
-0.35
-0.80
-1.19
-1.40
-1.41
-1.37
-1.45
-1.77
-2.27
-2.76
-3.01
-2.91
-2.53
-2.12
-1.94
-2.18
-2.84
-3.74
-4.61
-5.19
-5.33
-4.99
-4.26
-3.29
-2.23
-1.24
-0.45
0.09
0.38
0.47
0.46
0.43
0.44
0.54
0.72
0.95
1.18
1.37
1.51
1.64
1.83
2.13
2.53
2.92
3.21
3.32
3.28
3.19
3.17
3.21
3.25
3.14
2.82
2.30
1.70
1.11
0.59
0.09
-0.43
-0.98
-1.50
-1.87
-2.04
-2.03
-1.95
-1.94
-2.07
-2.35
-2.70
-3.03
-3.34
-3.66
-4.08
-4.64
-5.26
-5.75
-5.86
-5.46
-4.56
-3.34
-2.08
-0.99
-0.14
0.49
1.04
1.58
2.14
2.68
3.14
3.50
3.74
3.88
3.91
3.79
3.53
3.15
2.70
2.26
1.90
1.67
1.61
1.67
1.78
1.82
1.71
1.40
0.95
0.45
0.02
-0.30
-0.54
-0.74
-0.96
-1.24
-1.54
-1.82
-2.02
-2.15
-2.20
-2.24
-2.36
-2.62
-3.08
-3.73
-4.50
-5.24
-5.74
-5.80
-5.32
-4.29
-2.87
-1.30
0.18
1.39
2.25
2.78
3.05
3.17
3.22
3.26
3.35
3.48
3.65
3.78
3.82
3.72
3.49
3.22
2.99
2.88
2.92
3.07
3.27
3.47
3.65
3.76
3.79
3.65
3.29
2.69
1.87
0.97
0.15
-0.42
-0.66
-0.61
-0.45
-0.44
-0.76
-1.51
-2.55
-3.67
-4.63
-5.29
-5.65
-5.82
-5.97
-6.23
-6.69
-7.37
-8.25
-9.23
-10.18
-10.86
-11.01
-10.49
-9.31
-7.64
-5.78
-4.00
-2.46
-1.20
-0.16
0.74
1.55
2.27
2.86
3.29
3.53
3.60
3.56
3.48
3.46
3.58
3.86
4.25
4.64
4.90
4.96
4.84
4.64
4.48
4.44
4.48
4.51
4.40
4.14
3.81
3.56
3.52
3.69
3.94
4.06
3.85
3.23
2.29
1.24
0.35
-0.22
-0.51
-0.70
-1.02
-1.68
-2.70
-3.95
-5.20
-6.24
-6.93
-7.17
-6.94
-6.24
-5.11
-3.65
-2.06
-0.60
0.53
1.21
1.44
1.30
0.91
0.37
-0.20
-0.71
-1.08
-1.26
-1.28
-1.21
-1.16
-1.20
-1.35
-1.51
-1.61
-1.56
-1.37
-1.14
-0.99
-1.05
-1.36
-1.89
-2.56
-3.27
-3.97
-4.66
-5.36
-6.08
-6.81
-7.58
-8.44
-9.48
-10.71
-12.11
-13.55
-14.90
-16.07
-17.12
-18.22
-19.54
-21.18
-23.06
-24.95
-26.51
-27.34
-27.12
-25.65
-22.89
-19.02
-14.33
-9.19
-3.94
1.15
5.91
10.20
13.89
16.91
19.17
20.70
21.58
21.96
22.01
21.86
21.60
21.23
20.74
20.06
19.20
18.23
17.31
16.60
16.18
16.00
15.87
15.56
14.89
13.89
12.72
11.60
10.67
9.91
9.17
8.31
7.27
6.11
4.98
3.98
3.13
2.33
1.45
0.44
-0.66
-1.78
-2.86
-3.90
-4.93
-5.94
-6.83
-7.40
-7.42
-6.76
-5.40
-3.56
-1.54
0.31
1.77
2.76
3.38
3.83
4.25
4.72
5.18
5.53
5.67
5.61
5.39
5.11
4.86
4.68
4.64
4.76
5.06
5.53
6.03
6.39
6.46
6.14
5.47
4.55
3.56
2.60
1.74
1.03
0.48
0.06
-0.26
-0.58
-0.99
-1.60
-2.38
-3.28
-4.17
-4.96
-5.62
-6.16
-6.63
-7.09
-7.62
-8.31
-9.22
-10.35
-11.56
-12.58
-13.06
-12.75
-11.57
-9.69
-7.41
-5.13
-3.12
-1.54
-0.41
0.35
0.87
1.31
1.79
2.39
3.06
3.71
4.19
4.41
4.38
4.23
4.14
4.23
4.56
5.09
5.74
6.43
7.09
7.66
8.13
8.45
8.61
8.57
8.34
7.93
7.42
6.93
6.56
6.36
6.26
6.14
5.88
5.42
4.83
4.22
3.68
3.22
2.76
2.19
1.41
0.40
-0.81
-2.13
-3.47
-4.73
-5.75
-6.35
-6.35
-5.64
-4.22
-2.27
-0.05
2.11
3.93
5.24
6.01
6.31
6.27
6.02
5.67
5.22
4.67
3.98
3.20
2.45
1.89
1.72
2.00
2.71
3.70
4.78
5.80
6.73
7.59
8.38
9.04
9.42
9.33
8.69
7.54
6.05
4.38
2.63
0.84
-0.99
-2.86
-4.63
-6.18
-7.40
-8.25
-8.80
-9.17
-9.44
-9.70
-9.97
-10.25
-10.49
-10.56
-10.31
-9.59
-8.34
-6.63
-4.64
-2.60
-0.74
0.79
1.95
2.76
3.29
3.63
3.83
3.93
3.93
3.82
3.66
3.52
3.51
3.68
4.03
4.50
4.97
5.31
5.44
5.31
4.92
4.29
3.47
2.50
1.43
0.29
-0.88
-2.05
-3.18
-4.24
-5.21
-6.02
-6.61
-6.93
-6.96
-6.69
-6.23
-5.69
-5.18
-4.78
-4.52
-4.40
-4.36
-4.39
-4.40
-4.29
-3.90
-3.12
-1.92
-0.42
1.10
2.37
3.20
3.55
3.57
3.42
3.27
3.16
3.10
3.03
2.95
2.89
2.91
3.00
3.12
3.18
3.12
2.97
2.81
2.70
2.69
2.74
2.74
2.58
2.15
1.45
0.51
-0.53
-1.55
-2.50
-3.33
-4.07
-4.68
-5.15
-5.42
-5.52
-5.53
-5.62
-5.93
-6.55
-7.47
-8.60
-9.81
-10.97
-11.92
-12.47
-12.38
-11.48
-9.75
-7.41
-4.89
-2.60
-0.84
0.30
0.95
1.26
1.37
1.32
1.11
0.78
0.45
0.31
0.53
1.16
2.06
3.01
3.74
4.11
4.13
3.91
3.57
3.15
2.58
1.78
0.73
-0.43
-1.50
-2.27
-2.67
-2.77
-2.77
-2.81
-2.98
-3.24
-3.53
-3.78
-4.01
-4.24
-4.51
-4.83
-5.18
-5.55
-5.91
-6.24
-6.48
-6.50
-6.18
-5.42
-4.25
-2.82
-1.38
-0.13
0.83
1.54
2.11
2.66
3.23
3.73
4.05
4.14
4.02
3.85
3.79
3.95
4.32
4.80
5.24
5.51
5.58
5.48
5.27
4.99
4.66
4.28
3.85
3.40
2.95
2.49
2.01
1.46
0.84
0.15
-0.56
-1.25
-1.90
-2.54
-3.22
-3.96
-4.67
-5.21
-5.42
-5.18
-4.44
-3.30
-1.91
-0.45
0.90
2.06
3.00
3.74
4.30
4.71
4.96
5.02
4.83
4.37
3.67
2.86
2.10
1.58
1.37
1.44
1.63
1.77
1.75
1.57
1.36
1.27
1.37
1.62
1.85
1.89
1.64
1.12
0.44
-0.28
-0.96
-1.57
-2.18
-2.84
-3.62
-4.57
-5.70
-7.01
-8.42
-9.74
-10.68
-10.95
-10.34
-8.87
-6.73
-4.31
-1.96
0.02
1.55
2.68
3.48
4.06
4.44
4.63
4.65
4.58
4.46
4.38
4.35
4.35
4.38
4.44
4.51
4.58
4.59
4.47
4.15
3.64
3.03
2.41
1.95
1.70
1.68
1.78
1.85
1.70
1.21
0.38
-0.65
-1.66
-2.48
-3.03
-3.36
-3.67
-4.15
-4.94
-6.04
-7.34
-8.66
-9.78
-10.47
-10.54
-9.87
-8.51
-6.62
-4.51
-2.53
-0.94
0.11
0.70
1.00
1.21
1.46
1.83
2.26
2.70
3.07
3.30
3.38
3.29
3.04
2.72
2.41
2.23
2.25
2.45
2.74
3.00
3.08
2.89
2.41
1.72
0.95
0.28
-0.17
-0.37
-0.42
-0.47
-0.67
-1.09
-1.67
-2.26
-2.75
-3.07
-3.27
-3.45
-3.69
-4.00
-4.37
-4.82
-5.38
-6.10
-6.97
-7.90
-8.67
-9.02
-8.77
-7.82
-6.27
-4.35
-2.37
-0.59
0.80
1.76
2.40
2.85
3.24
3.62
3.99
4.31
4.55
4.72
4.87
5.02
5.19
5.34
5.48
5.67
5.95
6.34
6.77
7.09
7.16
6.89
6.35
5.64
4.92
4.27
3.72
3.23
2.79
2.38
1.98
1.57
1.07
0.40
-0.50
-1.61
-2.86
-4.12
-5.28
-6.29
-7.14
-7.81
-8.30
-8.51
-8.36
-7.79
-6.76
-5.40
-3.84
-2.27
-0.84
0.36
1.31
2.03
2.55
2.91
3.14
3.23
3.17
2.96
2.62
2.19
1.81
1.58
1.62
1.92
2.41
2.96
3.43
3.71
3.77
3.68
3.46
3.17
2.81
2.37
1.84
1.25
0.66
0.11
-0.35
-0.76
-1.14
-1.52
-1.90
-2.25
-2.54
-2.78
-3.01
-3.29
-3.66
-4.17
-4.86
-5.73
-6.77
-7.90
-8.93
-9.59
-9.62
-8.89
-7.45
-5.55
-3.50
-1.61
-0.02
1.27
2.30
3.13
3.75
4.12
4.24
4.23
4.23
4.42
4.88
5.52
6.18
6.67
6.90
6.91
6.86
6.90
7.13
7.48
7.80
7.90
7.69
7.22
6.63
6.08
5.65
5.34
5.05
4.71
4.25
3.67
2.97
2.17
1.24
0.18
-0.99
-2.24
-3.47
-4.59
-5.54
-6.30
-6.91
-7.45
-8.05
-8.82
-9.79
-10.89
-11.90
-12.58
-12.69
-12.13
-10.92
-9.23
-7.26
-5.25
-3.38
-1.79
-0.55
0.33
0.91
1.27
1.51
1.71
1.88
2.04
2.19
2.35
2.59
2.93
3.37
3.87
4.37
4.81
5.18
5.48
5.69
5.79
5.71
5.45
4.99
4.39
3.68
2.90
2.08
1.24
0.44
-0.24
-0.74
-1.06
-1.29
-1.57
-2.08
-2.94
-4.17
-5.68
-7.25
-8.64
-9.62
-10.04
-9.80
-8.91
-7.47
-5.68
-3.77
-1.96
-0.41
0.85
1.88
2.74
3.49
4.09
4.48
4.61
4.52
4.32
4.17
4.19
4.41
4.79
5.22
5.61
5.94
6.22
6.50
6.80
7.11
7.39
7.56
7.57
7.34
6.87
6.20
5.39
4.54
3.74
3.03
2.41
1.82
1.21
0.55
-0.12
-0.76
-1.31
-1.79
-2.31
-3.03
-4.11
-5.60
-7.42
-9.32
-10.97
-12.03
-12.29
-11.70
-10.39
-8.60
-6.60
-4.60
-2.71
-0.96
0.64
2.07
3.26
4.17
4.76
5.07
5.20
5.24
5.26
5.31
5.39
5.48
5.57
5.63
5.67
5.69
5.68
5.61
5.43
5.12
4.68
4.16
3.67
3.30
3.10
3.02
2.95
2.77
2.39
1.77
0.98
0.11
-0.71
-1.41
-1.95
-2.37
-2.75
-3.20
-3.80
-4.57
-5.44
-6.27
-6.88
-7.08
-6.76
-5.86
-4.44
-2.67
-0.80
0.88
2.16
2.91
3.18
3.14
2.98
2.85
2.81
2.83
2.88
2.92
2.97
3.05
3.17
3.29
3.36
3.38
3.37
3.39
3.45
3.55
3.65
3.76
3.86
3.95
4.02
4.00
3.83
3.49
2.99
2.40
1.80
1.22
0.66
0.10
-0.51
-1.22
-2.08
-3.14
-4.41
-5.85
-7.29
-8.52
-9.32
-9.49
-8.95
-7.79
-6.15
-4.28
-2.41
-0.70
0.73
1.83
2.63
3.16
3.47
3.61
3.64
3.63
3.64
3.71
3.83
3.95
3.97
3.85
3.57
3.21
2.87
2.63
2.51
2.46
2.40
2.25
1.98
1.59
1.13
0.65
0.19
-0.25
-0.69
-1.11
-1.51
-1.84
-2.04
-2.10
-2.02
-1.89
-1.80
-1.87
-2.16
-2.68
-3.37
-4.16
-4.99
-5.77
-6.41
-6.76
-6.69
-6.07
-4.90
-3.26
-1.38
0.48
2.07
3.27
4.04
4.47
4.65
4.71
4.70
4.66
4.60
4.50
4.35
4.14
3.90
3.67
3.52
3.49
3.54
3.59
3.54
3.34
3.00
2.58
2.16
1.76
1.39
1.03
0.70
0.45
0.28
0.17
0.01
-0.28
-0.76
-1.40
-2.12
-2.85
-3.54
-4.17
-4.72
-5.13
-5.29
-5.08
-4.44
-3.36
-1.92
-0.25
1.46
3.04
4.30
5.16
5.61
5.77
5.80
5.88
6.10
6.43
6.75
6.90
6.77
6.30
5.56
4.68
3.80
3.04
2.44
1.99
1.64
1.31
0.97
0.57
0.08
-0.49
-1.09
-1.67
-2.15
-2.48
-2.69
-2.83
-2.95
-3.07
-3.17
-3.19
-3.15
-3.10
-3.16
-3.40
-3.89
-4.59
-5.42
-6.25
-6.99
-7.53
-7.77
-7.62
-7.06
-6.14
-5.03
-3.97
-3.16
-2.71
-2.58
-2.61
-2.62
-2.50
-2.26
-1.99
-1.77
-1.61
-1.40
-1.04
-0.48
0.20
0.86
1.37
1.69
1.93
2.21
2.61
3.08
3.44
3.50
3.15
2.41
1.43
0.40
-0.48
-1.11
-1.46
-1.56
-1.52
-1.46
-1.49
-1.67
-1.98
-2.32
-2.55
-2.57
-2.34
-1.92
-1.39
-0.89
-0.52
-0.39
-0.53
-0.91
-1.39
-1.77
-1.85
-1.49
-0.67
0.46
1.65
2.59
3.06
2.98
2.43
1.65
0.92
0.46
0.35
0.56
0.99
1.52
2.08
2.65
3.23
3.78
4.27
4.65
4.93
5.19
5.46
5.72
5.89
5.83
5.47
4.82
3.99
3.15
2.40
1.81
1.37
1.09
0.97
0.96
0.97
0.85
0.43
-0.37
-1.51
-2.77
-3.91
-4.74
-5.22
-5.46
-5.66
-5.96
-6.45
-7.06
-7.68
-8.26
-8.78
-9.36
-10.08
-10.93
-11.79
-12.41
-12.52
-11.99
-10.83
-9.20
-7.38
-5.62
-4.07
-2.81
-1.83
-1.09
-0.53
-0.13
0.16
0.36
0.51
0.64
0.78
0.95
1.21
1.58
2.06
2.62
3.21
3.75
4.20
4.48
4.55
4.39
4.00
3.43
2.78
2.17
1.70
1.37
1.16
0.96
0.68
0.30
-0.15
-0.57
-0.91
-1.19
-1.47
-1.87
-2.45
-3.21
-4.06
-4.94
-5.80
-6.64
-7.46
-8.15
-8.56
-8.46
-7.72
-6.33
-4.50
-2.49
-0.61
0.94
2.07
2.75
2.99
2.84
2.36
1.66
0.88
0.18
-0.33
-0.58
-0.61
-0.53
-0.47
-0.54
-0.75
-1.02
-1.22
-1.24
-1.04
-0.70
-0.35
-0.13
-0.07
-0.16
-0.33
-0.53
-0.73
-0.92
-1.08
-1.22
-1.34
-1.52
-1.81
-2.24
-2.78
-3.36
-3.88
-4.30
-4.63
-4.93
-5.27
-5.69
-6.22
-6.89
-7.69
-8.56
-9.35
-9.82
-9.76
-9.01
-7.59
-5.70
-3.64
-1.72
-0.21
0.78
1.27
1.39
1.34
1.31
1.43
1.72
2.11
2.49
2.76
2.89
2.92
2.91
2.93
2.99
3.10
3.27
3.50
3.83
4.24
4.67
4.99
5.10
4.91
4.45
3.81
3.14
2.56
2.13
1.83
1.60
1.38
1.12
0.75
0.25
-0.46
-1.36
-2.38
-3.41
-4.31
-4.98
-5.40
-5.61
-5.72
-5.85
-6.16
-6.75
-7.67
-8.85
-10.11
-11.18
-11.77
-11.70
-10.91
-9.52
-7.73
-5.77
-3.84
-2.05
-0.46
0.96
2.28
3.51
4.61
5.47
5.96
6.02
5.73
5.28
4.89
4.75
4.90
5.30
5.82
6.38
6.92
7.41
7.85
8.21
8.45
8.54
8.46
8.20
7.75
7.12
6.35
5.48
4.55
3.60
2.63
1.68
0.74
-0.13
-0.90
-1.58
-2.17
-2.70
-3.19
-3.69
-4.24
-4.90
-5.71
-6.72
-7.87
-9.06
-10.09
-10.75
-10.87
-10.34
-9.18
-7.49
-5.45
-3.27
-1.13
0.84
2.52
3.87
4.87
5.52
5.87
5.99
5.93
5.76
5.52
5.29
5.16
5.21
5.48
5.93
6.41
6.80
7.04
7.15
7.24
7.38
7.57
7.72
7.71
7.47
6.99
6.33
5.59
4.83
4.08
3.36
2.69
2.08
1.49
0.87
0.19
-0.57
-1.39
-2.24
-3.14
-4.13
-5.24
-6.44
-7.67
-8.88
-10.08
-11.36
-12.80
-14.35
-15.79
-16.76
-16.94
-16.16
-14.45
-12.02
-9.18
-6.24
-3.47
-1.05
0.89
2.38
3.51
4.44
5.31
6.16
6.94
7.55
7.93
8.07
8.09
8.08
8.12
8.24
8.42
8.67
8.99
9.35
9.65
9.76
9.54
8.95
8.05
7.00
5.99
5.18
4.61
4.24
3.97
3.71
3.41
3.03
2.54
1.89
1.07
0.10
-0.94
-1.88
-2.63
-3.12
-3.44
-3.76
-4.25
-5.04
-6.18
-7.62
-9.28
-11.00
-12.56
-13.71
-14.19
-13.78
-12.45
-10.39
-7.90
-5.38
-3.11
-1.20
0.36
1.70
2.90
4.01
4.98
5.78
6.39
6.82
7.13
7.38
7.60
7.83
8.03
8.19
8.28
8.29
8.22
8.07
7.83
7.45
6.89
6.11
5.13
4.01
2.86
1.80
0.89
0.12
-0.59
-1.30
-2.11
-3.06
-4.10
-5.15
-6.06
-6.71
-7.06
-7.19
-7.31
-7.67
-8.46
-9.69
-11.15
-12.48
-13.30
-13.36
-12.56
-10.99
-8.82
-6.28
-3.64
-1.12
1.06
2.75
3.90
4.59
4.96
5.18
5.38
5.65
6.04
6.52
7.07
7.62
8.10
8.43
8.60
8.64
8.62
8.61
8.67
8.78
8.89
8.91
8.78
8.45
7.89
7.07
6.03
4.88
3.78
2.90
2.33
2.02
1.80
1.47
0.90
0.09
-0.81
-1.58
-2.12
-2.43
-2.68
-3.06
-3.69
-4.58
-5.60
-6.52
-7.09
-7.12
-6.47
-5.12
-3.14
-0.72
1.91
4.47
6.73
8.52
9.79
10.60
11.07
11.32
11.47
11.57
11.63
11.66
11.67
11.68
11.71
11.72
11.63
11.39
10.96
10.41
9.89
9.53
9.40
9.46
9.55
9.50
9.17
8.53
7.62
6.55
5.43
4.32
3.26
2.25
1.27
0.30
-0.73
-1.87
-3.13
-4.46
-5.77
-6.92
-7.83
-8.47
-8.92
-9.27
-9.64
-10.10
-10.65
-11.25
-11.76
-12.04
-11.89
-11.12
-9.63
-7.46
-4.85
-2.18
0.18
1.99
3.22
4.04
4.66
5.24
5.77
6.14
6.25
6.12
5.88
5.73
5.76
5.92
6.06
5.99
5.69
5.25
4.86
4.67
4.73
4.91
5.03
4.89
4.46
3.80
3.10
2.57
2.35
2.47
2.81
3.21
3.49
3.54
3.35
2.95
2.37
1.63
0.66
-0.62
-2.24
-4.17
-6.27
-8.33
-10.14
-11.49
-12.22
-12.20
-11.43
-9.98
-8.05
-5.92
-3.87
-2.14
-0.79
0.25
1.12
1.99
2.90
3.79
4.58
5.15
5.50
5.71
5.90
6.12
6.35
6.49
6.44
6.16
5.72
5.25
4.91
4.76
4.78
4.85
4.85
4.65
4.22
3.61
2.90
2.22
1.67
1.29
1.07
0.91
0.71
0.37
-0.19
-0.92
-1.81
-2.78
-3.80
-4.83
-5.86
-6.84
-7.73
-8.49
-9.14
-9.75
-10.37
-11.01
-11.56
-11.83
-11.62
-10.77
-9.29
-7.29
-4.99
-2.63
-0.41
1.52
3.09
4.32
5.27
6.03
6.66
7.18
7.53
7.63
7.45
7.01
6.42
5.80
5.22
4.70
4.22
3.75
3.32
3.00
2.88
2.95
3.09
3.15
2.96
2.49
1.84
1.23
0.83
0.77
1.00
1.37
1.69
1.80
1.65
1.25
0.70
0.11
-0.47
-1.01
-1.53
-2.09
-2.73
-3.45
-4.21
-5.01
-5.87
-6.83
-7.97
-9.27
-10.66
-12.02
-13.21
-14.17
-14.90
-15.43
-15.69
-15.58
-14.93
-13.65
-11.77
-9.50
-7.15
-5.01
-3.25
-1.90
-0.90
-0.16
0.39
0.78
1.04
1.23
1.44
1.75
2.19
2.73
3.28
3.75
4.07
4.22
4.22
4.14
4.04
3.98
3.99
4.10
4.26
4.38
4.35
4.09
3.60
2.95
2.27
1.69
1.22
0.80
0.32
-0.35
-1.23
-2.25
-3.26
-4.10
-4.68
-5.00
-5.11
-5.13
-5.14
-5.25
-5.51
-5.95
-6.53
-7.17
-7.71
-7.97
-7.80
-7.09
-5.85
-4.22
-2.39
-0.60
0.95
2.14
2.96
3.46
3.73
3.88
3.93
3.91
3.82
3.70
3.62
3.63
3.73
3.89
4.07
4.23
4.38
4.53
4.73
4.96
5.17
5.29
5.26
5.09
4.84
4.61
4.49
4.50
4.63
4.78
4.86
4.78
4.52
4.11
3.58
3.01
2.43
1.85
1.24
0.54
-0.29
-1.28
-2.41
-3.63
-4.83
-5.95
-6.92
-7.76
-8.51
-9.25
-9.97
-10.59
-10.98
-10.97
-10.46
-9.46
-8.05
-6.42
-4.70
-3.02
-1.48
-0.14
0.95
1.73
2.19
2.32
2.16
1.73
1.09
0.34
-0.38
-0.93
-1.19
-1.13
-0.82
-0.41
-0.05
0.17
0.30
0.46
0.79
1.35
2.11
2.90
3.55
3.91
3.94
3.67
3.23
2.75
2.37
2.17
2.15
2.23
2.28
2.16
1.73
0.91
-0.29
-1.75
-3.31
-4.74
-5.85
-6.54
-6.85
-6.92
-7.00
-7.31
-7.98
-8.95
-10.03
-10.88
-11.24
-10.91
-9.91
-8.39
-6.59
-4.78
-3.12
-1.72
-0.56
0.38
1.14
1.74
2.17
2.49
2.73
2.94
3.20
3.52
3.84
4.10
4.24
4.22
4.07
3.88
3.68
3.53
3.41
3.28
3.14
2.96
2.73
2.46
2.08
1.59
0.99
0.38
-0.17
-0.55
-0.78
-0.94
-1.12
-1.43
-1.86
-2.35
-2.80
-3.17
-3.53
-3.97
-4.61
-5.40
-6.25
-6.98
-7.52
-7.96
-8.49
-9.29
-10.38
-11.55
-12.40
-12.55
-11.79
-10.17
-7.99
-5.63
-3.42
-1.53
-0.00
1.19
2.11
2.81
3.33
3.73
4.08
4.45
4.91
5.46
6.03
6.52
6.83
6.93
6.89
6.84
6.90
7.07
7.30
7.41
7.32
7.06
6.73
6.46
6.27
6.09
5.78
5.26
4.61
3.98
3.53
3.31
3.29
3.34
3.36
3.26
3.05
2.70
2.23
1.60
0.82
-0.07
-1.00
-1.90
-2.73
-3.47
-4.09
-4.58
-4.97
-5.33
-5.78
-6.44
-7.34
-8.37
-9.29
-9.79
-9.62
-8.68
-7.10
-5.15
-3.14
-1.32
0.22
1.48
2.53
3.45
4.26
4.97
5.51
5.83
5.94
5.88
5.77
5.75
5.93
6.28
6.68
6.92
6.88
6.56
6.08
5.68
5.52
5.63
5.91
6.17
6.23
5.99
5.44
4.66
3.80
3.00
2.36
1.92
1.62
1.34
0.94
0.36
-0.36
-1.12
-1.76
-2.19
-2.43
-2.58
-2.79
-3.17
-3.80
-4.67
-5.70
-6.76
-7.69
-8.29
-8.44
-8.06
-7.17
-5.90
-4.39
-2.83
-1.35
-0.10
0.86
1.49
1.86
2.09
2.35
2.75
3.36
4.09
4.80
5.32
5.56
5.51
5.27
4.97
4.74
4.64
4.71
4.93
5.24
5.57
5.79
5.78
5.46
4.83
4.00
3.16
2.52
2.24
2.30
2.58
2.85
2.90
2.60
1.97
1.12
0.24
-0.49
-0.98
-1.23
-1.34
-1.45
-1.68
-2.08
-2.64
-3.32
-4.08
-4.88
-5.64
-6.25
-6.59
-6.51
-5.96
-4.97
-3.67
-2.26
-0.91
0.24
1.12
1.72
2.09
2.31
2.52
2.80
3.19
3.63
4.01
4.27
4.37
4.40
4.44
4.56
4.71
4.81
4.75
4.53
4.20
3.91
3.72
3.61
3.47
3.19
2.74
2.22
1.80
1.63
1.70
1.88
1.96
1.81
1.45
1.05
0.84
0.93
1.28
1.71
1.98
1.97
1.68
1.23
0.70
0.09
-0.66
-1.60
-2.66
-3.70
-4.56
-5.16
-5.62
-6.11
-6.77
-7.56
-8.26
-8.60
-8.36
-7.53
-6.25
-4.77
-3.29
-1.93
-0.71
0.38
1.37
2.30
3.17
4.01
4.85
5.71
6.60
7.49
8.31
8.97
9.43
9.64
9.63
9.47
9.25
9.02
8.81
8.60
8.36
8.03
7.59
7.05
6.44
5.80
5.18
4.65
4.19
3.77
3.26
2.55
1.60
0.49
-0.59
-1.41
-1.83
-1.87
-1.71
-1.61
-1.79
-2.35
-3.27
-4.39
-5.55
-6.59
-7.39
-7.85
-7.92
-7.62
-7.01
-6.17
-5.25
-4.35
-3.55
-2.90
-2.40
-2.03
-1.72
-1.44
-1.13
-0.77
-0.35
0.11
0.61
1.10
1.54
1.86
2.02
2.00
1.88
1.78
1.82
2.10
2.55
3.05
3.41
3.45
3.06
2.26
1.15
-0.14
-1.43
-2.56
-3.34
-3.66
-3.51
-3.04
-2.52
-2.27
-2.48
-3.17
-4.13
-5.09
-5.80
-6.15
-6.20
-6.08
-5.95
-5.92
-6.06
-6.41
-6.93
-7.52
-7.99
-8.08
-7.62
-6.59
-5.14
-3.57
-2.14
-1.04
-0.33
0.02
0.08
-0.08
-0.37
-0.67
-0.81
-0.65
-0.13
0.66
1.51
2.18
2.51
2.43
2.06
1.54
1.09
0.83
0.81
0.99
1.27
1.54
1.72
1.76
1.64
1.35
0.89
0.29
-0.42
-1.15
-1.79
-2.28
-2.55
-2.61
-2.46
-2.14
-1.70
-1.22
-0.80
-0.54
-0.46
-0.51
-0.58
-0.60
-0.58
-0.63
-0.91
-1.53
-2.53
-3.80
-5.15
-6.36
-7.23
-7.64
-7.57
-7.10
-6.37
-5.53
-4.68
-3.84
-2.99
-2.03
-0.95
0.20
1.33
2.30
3.04
3.52
3.79
3.90
3.85
3.62
3.20
2.67
2.13
1.77
1.68
1.89
2.26
2.58
2.66
2.45
1.99
1.44
0.95
0.64
0.51
0.51
0.57
0.63
0.65
0.61
0.50
0.28
-0.04
-0.43
-0.81
-1.13
-1.35
-1.51
-1.72
-2.07
-2.64
-3.41
-4.25
-5.01
-5.51
-5.67
-5.47
-4.98
-4.26
-3.40
-2.46
-1.49
-0.60
0.08
0.42
0.34
-0.04
-0.51
-0.81
-0.78
-0.40
0.19
0.82
1.38
1.84
2.24
2.58
2.87
3.07
3.16
3.19
3.23
3.36
3.57
3.80
3.94
3.92
3.72
3.38
2.96
2.56
2.24
2.02
1.91
1.86
1.77
1.57
1.18
0.60
-0.13
-0.92
-1.70
-2.36
-2.86
-3.19
-3.44
-3.72
-4.19
-4.97
-6.12
-7.55
-9.07
-10.40
-11.26
-11.45
-10.90
-9.67
-7.94
-6.01
-4.19
-2.74
-1.84
-1.50
-1.57
-1.80
-1.93
-1.81
-1.42
-0.87
-0.30
0.19
0.58
0.96
1.41
1.98
2.61
3.20
3.65
3.91
3.97
3.88
3.64
3.26
2.77
2.18
1.54
0.91
0.34
-0.13
-0.46
-0.66
-0.77
-0.86
-1.08
-1.49
-2.10
-2.81
-3.48
-3.97
-4.26
-4.40
-4.48
-4.53
-4.55
-4.50
-4.39
-4.34
-4.47
-4.92
-5.66
-6.58
-7.47
-8.12
-8.33
-8.02
-7.14
-5.74
-3.93
-1.94
-0.04
1.50
2.52
3.04
3.23
3.35
3.59
4.04
4.62
5.18
5.59
5.80
5.87
5.90
6.01
6.24
6.59
6.99
7.39
7.70
7.89
7.90
7.71
7.32
6.77
6.10
5.40
4.76
4.20
3.75
3.38
3.04
2.68
2.27
1.80
1.28
0.69
0.04
-0.69
-1.48
-2.30
-3.09
-3.82
-4.46
-5.04
-5.55
-6.06
-6.61
-7.26
-8.05
-8.96
-9.84
-10.47
-10.57
-9.97
-8.65
-6.81
-4.80
-2.95
-1.47
-0.38
0.46
1.21
1.98
2.78
3.53
4.15
4.59
4.93
5.23
5.54
5.85
6.09
6.20
6.19
6.16
6.22
6.44
6.77
7.08
7.20
7.01
6.51
5.80
5.10
4.58
4.38
4.49
4.80
5.10
5.20
4.97
4.41
3.64
2.86
2.21
1.79
1.54
1.37
1.17
0.84
0.35
-0.28
-1.01
-1.80
-2.56
-3.26
-3.85
-4.31
-4.70
-5.10
-5.64
-6.40
-7.37
-8.40
-9.27
-9.73
-9.60
-8.84
-7.56
-5.97
-4.30
-2.71
-1.29
-0.06
0.99
1.87
2.57
3.10
3.46
3.66
3.75
3.78
3.80
3.86
4.02
4.32
4.74
5.24
5.76
6.20
6.50
6.62
6.54
6.28
5.84
5.25
4.51
3.65
2.71
1.71
0.69
-0.29
-1.13
-1.75
-2.04
-2.02
-1.73
-1.33
-0.99
-0.84
-0.95
-1.33
-1.91
-2.63
-3.37
-4.07
-4.68
-5.19
-5.67
-6.18
-6.81
-7.54
-8.31
-8.93
-9.25
-9.13
-8.51
-7.42
-6.02
-4.46
-2.93
-1.57
-0.41
0.56
1.40
2.11
2.66
2.98
3.02
2.82
2.50
2.23
2.13
2.23
2.45
2.69
2.89
3.08
3.31
3.63
4.00
4.30
4.42
4.30
3.97
3.51
3.05
2.69
2.48
2.45
2.53
2.66
2.73
2.62
2.26
1.63
0.81
-0.07
-0.83
-1.36
-1.60
-1.65
-1.69
-1.95
-2.58
-3.62
-4.91
-6.20
-7.21
-7.74
-7.67
-7.02
-5.88
-4.37
-2.65
-0.93
0.60
1.77
2.49
2.82
2.90
2.92
3.04
3.28
3.60
3.88
4.04
4.05
3.96
3.85
3.82
3.89
4.08
4.32
4.58
4.82
4.98
5.00
4.81
4.39
3.78
3.06
2.36
1.78
1.35
1.01
0.68
0.30
-0.12
-0.57
-0.99
-1.38
-1.77
-2.20
-2.69
-3.24
-3.82
-4.38
-4.87
-5.22
-5.39
-5.42
-5.39
-5.45
-5.77
-6.44
-7.47
-8.74
-10.07
-11.22
-11.95
-12.07
-11.46
-10.14
-8.27
-6.15
-4.16
-2.62
-1.73
-1.50
-1.71
-2.05
-2.18
-1.85
-0.97
0.37
1.97
3.57
4.96
6.01
6.70
7.09
7.28
7.34
7.34
7.26
7.12
6.92
6.76
6.72
6.83
7.03
7.18
7.11
6.73
6.14
5.51
5.04
4.79
4.66
4.47
4.02
3.28
2.36
1.44
0.70
0.22
-0.05
-0.19
-0.30
-0.46
-0.68
-0.93
-1.16
-1.29
-1.29
-1.16
-0.96
-0.86
-1.05
-1.68
-2.79
-4.28
-5.86
-7.17
-7.92
-7.92
-7.18
-5.88
-4.31
-2.72
-1.30
-0.13
0.79
1.46
1.89
2.10
2.11
2.04
2.00
2.11
2.38
2.79
3.25
3.68
4.06
4.41
4.77
5.16
5.53
5.83
6.02
6.09
6.05
5.89
5.54
4.97
4.17
3.25
2.36
1.68
1.29
1.17
1.14
0.96
0.46
-0.39
-1.48
-2.57
-3.46
-4.11
-4.59
-5.08
-5.72
-6.56
-7.54
-8.58
-9.58
-10.50
-11.25
-11.70
-11.67
-11.02
-9.71
-7.91
-5.86
-3.90
-2.24
-0.99
-0.17
0.28
0.43
0.39
0.29
0.25
0.33
0.51
0.73
0.89
0.99
1.10
1.31
1.68
2.17
2.66
3.03
3.24
3.32
3.36
3.44
3.56
3.63
3.58
3.34
2.91
2.34
1.70
1.02
0.34
-0.35
-1.04
-1.71
-2.34
-2.88
-3.33
-3.73
-4.17
-4.77
-5.61
-6.65
-7.73
-8.55
-8.81
-8.32
-7.11
-5.40
-3.50
-1.72
-0.19
1.06
2.13
3.09
3.95
4.66
5.17
5.48
5.65
5.76
5.88
6.05
6.25
6.45
6.65
6.86
7.08
7.33
7.56
7.71
7.72
7.54
7.14
6.52
5.72
4.81
3.85
2.93
2.09
1.38
0.78
0.27
-0.22
-0.75
-1.35
-2.05
-2.84
-3.70
-4.63
-5.65
-6.77
-8.05
-9.51
-11.13
-12.82
-14.41
-15.66
-16.34
-16.27
-15.38
-13.80
-11.78
-9.68
-7.79
-6.26
-5.06
-4.04
-3.00
-1.83
-0.53
0.83
2.12
3.25
4.18
4.96
5.65
6.34
7.07
7.81
8.51
9.06
9.38
9.45
9.33
9.10
8.86
8.66
8.51
8.37
8.21
8.00
7.74
7.41
6.99
6.47
5.88
5.21
4.50
3.74
2.93
2.04
1.06
-0.01
-1.12
-2.22
-3.26
-4.21
-5.07
-5.92
-6.84
-7.91
-9.19
-10.64
-12.12
-13.38
-14.14
-14.11
-13.14
-11.23
-8.56
-5.46
-2.31
0.54
2.85
4.52
5.60
6.22
6.61
6.98
7.44
7.99
8.52
8.87
8.95
8.78
8.48
8.25
8.19
8.33
8.54
8.68
8.60
8.30
7.83
7.29
6.79
6.37
6.06
5.86
5.74
5.65
5.52
5.27
4.85
4.30
3.67
3.07
2.54
2.07
1.60
1.02
0.28
-0.60
-1.57
-2.56
-3.52
-4.48
-5.46
-6.48
-7.53
-8.60
-9.70
-10.89
-12.22
-13.67
-15.08
-16.13
-16.45
-15.79
-14.16
-11.82
-9.18
-6.62
-4.37
-2.48
-0.83
0.68
2.12
3.47
4.69
5.77
6.73
7.59
8.34
8.94
9.30
9.39
9.25
8.99
8.74
8.58
8.55
8.58
8.60
8.52
8.31
7.98
7.57
7.10
6.56
5.96
5.25
4.44
3.51
2.46
1.28
-0.02
-1.34
-2.57
-3.55
-4.19
-4.55
-4.82
-5.29
-6.18
-7.54
-9.23
-10.94
-12.30
-13.03
-12.94
-12.04
-10.44
-8.36
-6.05
-3.79
-1.77
-0.13
1.10
1.97
2.58
3.02
3.41
3.81
4.25
4.69
5.05
5.25
5.28
5.18
5.08
5.07
5.18
5.33
5.42
5.34
5.12
4.82
4.54
4.32
4.14
3.94
3.68
3.37
3.04
2.71
2.36
1.90
1.27
0.45
-0.50
-1.48
-2.40
-3.24
-4.05
-4.94
-5.98
-7.15
-8.29
-9.13
-9.41
-8.92
-7.64
-5.74
-3.54
-1.37
0.49
1.91
2.87
3.46
3.80
4.00
4.17
4.36
4.59
4.87
5.19
5.57
5.98
6.42
6.84
7.21
7.51
7.71
7.83
7.86
7.79
7.58
7.21
6.69
6.06
5.39
4.74
4.16
3.69
3.33
3.07
2.87
2.68
2.44
2.05
1.46
0.65
-0.32
-1.28
-2.08
-2.61
-2.87
-3.00
-3.21
-3.69
-4.50
-5.58
-6.79
-7.93
-8.86
-9.45
-9.56
-9.09
-7.95
-6.22
-4.15
-2.12
-0.46
0.66
1.27
1.61
1.90
2.29
2.77
3.26
3.67
4.00
4.30
4.66
5.11
5.58
5.98
6.16
6.05
5.66
5.11
4.52
4.03
3.68
3.42
3.17
2.83
2.40
1.93
1.54
1.30
1.21
1.18
1.06
0.74
0.23
-0.38
-0.94
-1.35
-1.61
-1.82
-2.16
-2.76
-3.70
-4.96
-6.45
-8.05
-9.64
-11.02
-11.92
-12.10
-11.40
-9.83
-7.66
-5.33
-3.27
-1.77
-0.86
-0.37
-0.05
0.35
0.91
1.63
2.41
3.21
3.99
4.77
5.52
6.20
6.76
7.15
7.38
7.53
7.67
7.90
8.25
8.69
9.11
9.37
9.33
8.90
8.11
7.08
5.99
5.01
4.26
3.76
3.47
3.25
3.00
2.63
2.12
1.48
0.77
0.11
-0.42
-0.80
-1.04
-1.20
-1.37
-1.63
-2.03
-2.57
-3.20
-3.86
-4.51
-5.13
-5.77
-6.54
-7.52
-8.72
-10.01
-11.15
-11.81
-11.77
-10.93
-9.42
-7.51
-5.56
-3.85
-2.58
-1.76
-1.29
-0.98
-0.69
-0.35
0.02
0.35
0.57
0.66
0.69
0.74
0.88
1.15
1.53
1.94
2.32
2.63
2.85
2.94
2.92
2.80
2.59
2.34
2.09
1.86
1.66
1.46
1.22
0.92
0.59
0.27
0.04
-0.06
-0.08
-0.15
-0.43
-1.04
-1.96
-3.05
-4.12
-5.00
-5.69
-6.31
-7.01
-7.87
-8.83
-9.70
-10.31
-10.58
-10.59
-10.48
-10.36
-10.20
-9.88
-9.20
-8.07
-6.55
-4.88
-3.35
-2.18
-1.44
-1.01
-0.69
-0.34
0.12
0.58
0.89
0.93
0.71
0.36
0.09
0.07
0.34
0.83
1.39
1.85
2.10
2.13
2.04
1.95
1.97
2.14
2.39
2.59
2.62
2.46
2.13
1.69
1.23
0.74
0.22
-0.34
-0.89
-1.33
-1.57
-1.59
-1.46
-1.33
-1.34
-1.61
-2.15
-2.89
-3.73
-4.56
-5.35
-6.10
-6.86
-7.60
-8.22
-8.51
-8.27
-7.37
-5.82
-3.83
-1.71
0.18
1.60
2.46
2.83
2.88
2.80
2.74
2.77
2.92
3.17
3.51
3.95
4.45
4.93
5.31
5.52
5.55
5.46
5.36
5.33
5.41
5.56
5.72
5.82
5.83
5.73
5.53
5.26
4.91
4.43
3.78
2.93
1.91
0.80
-0.30
-1.29
-2.19
-3.03
-3.87
-4.73
-5.59
-6.38
-7.08
-7.69
-8.23
-8.73
-9.18
-9.58
-9.97
-10.41
-10.97
-11.67
-12.39
-12.93
-13.06
-12.62
-11.57
-10.02
-8.14
-6.09
-4.01
-2.00
-0.14
1.47
2.74
3.71
4.46
5.17
5.97
6.93
8.00
9.07
10.00
10.70
11.17
11.45
11.60
11.71
11.86
12.08
12.35
12.59
12.69
12.50
11.95
10.98
9.60
7.90
5.93
3.86
1.85
0.08
-1.31
-2.28
-2.89
-3.27
-3.53
-3.74
-3.94
-4.10
-4.25
-4.40
-4.55
-4.67
-4.76
-4.85
-4.97
-5.17
-5.41
-5.64
-5.77
-5.75
-5.67
-5.68
-5.99
-6.71
-7.82
-9.17
-10.50
-11.53
-12.02
-11.85
-10.98
-9.54
-7.73
-5.80
-3.96
-2.35
-1.02
0.06
0.91
1.56
2.04
2.39
2.69
3.05
3.53
4.13
4.80
5.43
5.95
6.34
6.62
6.80
6.90
6.88
6.73
6.46
6.13
5.82
5.58
5.41
5.24
4.97
4.51
3.87
3.13
2.42
1.87
1.52
1.30
1.11
0.85
0.51
0.18
-0.01
-0.00
0.18
0.41
0.51
0.36
-0.06
-0.63
-1.20
-1.63
-1.89
-2.05
-2.24
-2.61
-3.27
-4.25
-5.50
-6.94
-8.42
-9.77
-10.80
-11.35
-11.25
-10.46
-9.00
-7.02
-4.77
-2.53
-0.54
1.06
2.24
3.09
3.77
4.38
4.96
5.46
5.79
5.93
5.96
6.05
6.40
7.09
8.01
8.93
9.60
9.88
9.80
9.52
9.19
8.90
8.60
8.15
7.49
6.66
5.81
5.10
4.62
4.32
4.12
3.92
3.69
3.48
3.36
3.31
3.28
3.18
2.91
2.44
1.80
1.08
0.36
-0.33
-0.97
-1.64
-2.41
-3.33
-4.37
-5.48
-6.60
-7.69
-8.79
-9.90
-10.94
-11.72
-11.99
-11.54
-10.35
-8.59
-6.60
-4.71
-3.09
-1.76
-0.62
0.42
1.34
2.02
2.32
2.19
1.72
1.13
0.70
0.62
0.93
1.54
2.27
2.94
3.41
3.67
3.74
3.71
3.65
3.60
3.57
3.49
3.31
2.98
2.49
1.89
1.26
0.67
0.18
-0.23
-0.63
-1.12
-1.76
-2.55
-3.40
-4.19
-4.86
-5.44
-6.03
-6.77
-7.75
-8.90
-10.13
-11.28
-12.32
-13.25
-14.14
-15.03
-15.91
-16.82
-17.81
-18.98
-20.37
-21.85
-23.16
-23.95
-23.91
-22.99
-21.31
-19.14
-16.70
-14.19
-11.71
-9.36
-7.26
-5.52
-4.13
-2.94
-1.66
-0.00
2.23
5.08
8.42
12.14
16.21
20.65
25.58
31.00
36.75
42.52
47.83
52.17
55.11
56.34
55.68
53.13
48.82
43.07
36.33
29.14
21.98
15.24
9.12
3.68
-1.12
-5.36
-9.08
-12.31
-15.05
-17.26
-18.95
-20.16
-20.98
-21.55
-22.03
-22.56
-23.21
-24.01
-24.89
-25.74
-26.38
-26.56
-26.02
-24.58
-22.23
-19.17
-15.77
-12.51
-9.78
-7.72
-6.27
-5.12
-3.96
-2.56
-0.88
0.95
2.70
4.19
5.31
6.09
6.63
7.01
7.31
7.54
7.70
7.79
7.83
7.84
7.85
7.84
7.73
7.44
6.89
6.07
5.02
3.91
2.86
1.99
1.32
0.78
0.28
-0.28
-0.92
-1.64
-2.43
-3.26
-4.15
-5.08
-6.03
-6.93
-7.72
-8.39
-9.03
-9.82
-10.93
-12.45
-14.25
-16.06
-17.42
-17.96
-17.43
-15.86
-13.52
-10.79
-8.05
-5.57
-3.46
-1.73
-0.31
0.86
1.83
2.65
3.39
4.11
4.87
5.67
6.48
7.25
7.95
8.59
9.18
9.75
10.30
10.83
11.33
11.81
12.25
12.59
12.76
12.62
12.09
11.14
9.89
8.54
7.32
6.36
5.66
5.10
4.51
3.74
2.76
1.64
0.50
-0.51
-1.31
-1.88
-2.27
-2.56
-2.88
-3.34
-4.04
-5.07
-6.47
-8.24
-10.27
-12.34
-14.15
-15.32
-15.55
-14.75
-13.01
-10.67
-8.07
-5.54
-3.24
-1.19
0.64
2.29
3.78
5.07
6.17
7.07
7.78
8.33
8.73
9.03
9.26
9.47
9.70
9.93
10.13
10.28
10.36
10.40
10.39
10.33
10.18
9.87
9.42
8.85
8.28
7.77
7.37
7.05
6.73
6.36
5.91
5.37
4.77
4.16
3.54
2.93
2.33
1.74
1.14
0.52
-0.13
-0.85
-1.66
-2.53
-3.42
-4.31
-5.22
-6.20
-7.36
-8.75
-10.28
-11.73
-12.75
-13.01
-12.30
-10.64
-8.22
-5.39
-2.52
0.09
2.26
3.92
5.11
5.90
6.42
6.80
7.16
7.57
8.06
8.56
8.97
9.20
9.20
8.99
8.65
8.27
7.93
7.70
7.58
7.60
7.75
8.00
8.25
8.37
8.24
7.81
7.17
6.49
5.94
5.64
5.55
5.57
5.57
5.48
5.27
4.97
4.56
4.01
3.26
2.31
1.25
0.17
-0.84
-1.77
-2.64
-3.52
-4.41
-5.25
-5.91
-6.30
-6.43
-6.44
-6.51
-6.87
-7.65
-8.84
-10.29
-11.75
-12.89
-13.42
-13.15
-12.04
-10.22
-7.98
-5.66
-3.56
-1.86
-0.58
0.39
1.19
1.96
2.77
3.59
4.36
5.00
5.48
5.88
6.27
6.73
7.25
7.75
8.11
8.28
8.27
8.16
8.03
7.87
7.60
7.15
6.51
5.82
5.25
4.92
4.78
4.65
4.31
3.66
2.79
1.90
1.21
0.84
0.74
0.77
0.76
0.61
0.31
-0.11
-0.59
-1.12
-1.72
-2.41
-3.16
-3.90
-4.57
-5.15
-5.72
-6.42
-7.37
-8.51
-9.64
-10.42
-10.50
-9.73
-8.16
-6.10
-3.92
-1.96
-0.41
0.67
1.37
1.79
2.09
2.37
2.73
3.18
3.69
4.17
4.54
4.73
4.74
4.59
4.34
4.04
3.76
3.53
3.38
3.30
3.26
3.20
3.08
2.88
2.60
2.28
1.94
1.60
1.25
0.91
0.58
0.26
-0.02
-0.25
-0.47
-0.77
-1.20
-1.80
-2.53
-3.31
-4.04
-4.65
-5.09
-5.39
-5.61
-5.85
-6.21
-6.79
-7.67
-8.82
-10.10
-11.22
-11.87
-11.75
-10.77
-9.02
-6.79
-4.43
-2.29
-0.62
0.48
1.06
1.30
1.43
1.68
2.19
2.94
3.81
4.60
5.19
5.58
5.87
6.17
6.51
6.84
7.01
6.95
6.66
6.27
5.92
5.69
5.55
5.39
5.11
4.67
4.18
3.74
3.45
3.29
3.16
2.89
2.38
1.67
0.88
0.19
-0.27
-0.47
-0.50
-0.53
-0.72
-1.17
-1.89
-2.82
-3.85
-4.83
-5.67
-6.30
-6.74
-7.09
-7.49
-8.09
-8.96
-10.03
-11.10
-11.88
-12.13
-11.71
-10.62
-9.02
-7.17
-5.32
-3.64
-2.25
-1.15
-0.32
0.31
0.80
1.21
1.59
2.00
2.47
3.01
3.57
4.10
4.54
4.85
5.05
5.17
5.25
5.33
5.41
5.48
5.47
5.33
4.99
4.45
3.73
2.95
2.19
1.53
0.98
0.49
0.01
-0.47
-0.94
-1.35
-1.67
-1.93
-2.17
-2.42
-2.69
-2.95
-3.22
-3.50
-3.88
-4.41
-5.10
-5.89
-6.72
-7.53
-8.32
-9.12
-9.91
-10.56
-10.85
-10.54
-9.50
-7.80
-5.69
-3.55
-1.69
-0.26
0.70
1.31
1.70
1.98
2.23
2.50
2.82
3.18
3.48
3.66
3.67
3.53
3.40
3.43
3.75
4.37
5.15
5.89
6.43
6.66
6.60
6.33
5.93
5.44
4.87
4.22
3.53
2.86
2.31
1.93
1.69
1.49
1.20
0.76
0.17
-0.50
-1.19
-1.85
-2.52
-3.24
-4.06
-4.97
-5.95
-6.95
-7.95
-8.95
-9.99
-11.06
-12.10
-13.01
-13.62
-13.78
-13.35
-12.30
-10.70
-8.77
-6.73
-4.82
-3.18
-1.85
-0.78
0.12
0.93
1.72
2.52
3.31
4.05
4.70
5.23
5.64
5.97
6.23
6.46
6.66
6.83
7.00
7.21
7.46
7.73
7.87
7.77
7.34
6.64
5.83
5.13
4.70
4.57
4.64
4.73
4.70
4.48
4.11
3.65
3.15
2.66
2.14
1.58
0.97
0.30
-0.40
-1.12
-1.86
-2.63
-3.45
-4.31
-5.17
-5.97
-6.64
-7.16
-7.60
-8.11
-8.88
-9.98
-11.29
-12.48
-13.14
-12.93
-11.75
-9.80
-7.47
-5.21
-3.30
-1.87
-0.84
-0.10
0.50
1.05
1.65
2.33
3.13
3.98
4.77
5.37
5.67
5.67
5.49
5.27
5.17
5.24
5.49
5.86
6.30
6.75
7.12
7.31
7.26
6.90
6.27
5.44
4.55
3.72
3.04
2.55
2.26
2.11
2.02
1.91
1.66
1.23
0.58
-0.24
-1.12
-1.94
-2.59
-3.01
-3.27
-3.51
-3.92
-4.64
-5.67
-6.84
-7.80
-8.21
-7.86
-6.75
-5.06
-3.14
-1.28
0.34
1.63
2.59
3.26
3.67
3.87
3.93
3.99
4.22
4.72
5.52
6.50
7.45
8.14
8.43
8.32
7.94
7.44
6.98
6.60
6.27
5.93
5.55
5.15
4.79
4.51
4.29
4.08
3.82
3.48
3.08
2.62
2.13
1.60
1.03
0.41
-0.19
-0.73
-1.21
-1.67
-2.17
-2.79
-3.51
-4.26
-4.93
-5.41
-5.67
-5.84
-6.08
-6.60
-7.49
-8.65
-9.82
-10.62
-10.74
-10.00
-8.46
-6.37
-4.08
-1.95
-0.23
0.96
1.67
2.07
2.35
2.69
3.13
3.63
4.07
4.37
4.53
4.62
4.75
4.99
5.32
5.69
6.03
6.34
6.63
6.94
7.28
7.56
7.71
7.65
7.37
6.88
6.25
5.55
4.88
4.29
3.81
3.43
3.06
2.65
2.13
1.54
0.89
0.25
-0.33
-0.82
-1.22
-1.55
-1.83
-2.09
-2.36
-2.68
-3.08
-3.53
-4.01
-4.44
-4.80
-5.11
-5.46
-5.94
-6.64
-7.58
-8.66
-9.72
-10.52
-10.81
-10.42
-9.31
-7.59
-5.52
-3.42
-1.58
-0.17
0.83
1.52
2.06
2.56
3.04
3.50
3.88
4.18
4.42
4.62
4.78
4.86
4.81
4.65
4.44
4.25
4.14
4.12
4.17
4.23
4.25
4.19
4.01
3.70
3.25
2.72
2.20
1.76
1.47
1.31
1.18
0.96
0.58
0.07
-0.49
-1.01
-1.46
-1.88
-2.35
-2.95
-3.67
-4.44
-5.15
-5.75
-6.25
-6.72
-7.20
-7.68
-8.12
-8.46
-8.72
-8.98
-9.31
-9.67
-9.88
-9.68
-8.88
-7.49
-5.74
-3.98
-2.53
-1.53
-0.92
-0.49
-0.02
0.59
1.33
2.11
2.79
3.30
3.63
3.83
3.97
4.14
4.38
4.72
5.12
5.47
5.71
5.74
5.55
5.18
4.69
4.14
3.60
3.11
2.68
2.34
2.06
1.81
1.53
1.17
0.73
0.22
-0.28
-0.71
-1.00
-1.15
-1.17
-1.12
-1.07
-1.10
-1.29
-1.68
-2.26
-2.97
-3.69
-4.29
-4.70
-4.93
-5.10
-5.33
-5.75
-6.37
-7.05
-7.57
-7.71
-7.32
-6.40
-5.09
-3.57
-2.02
-0.57
0.70
1.72
2.46
2.92
3.16
3.28
3.38
3.51
3.65
3.71
3.65
3.49
3.34
3.34
3.55
3.96
4.44
4.87
5.14
5.25
5.21
5.10
4.92
4.71
4.48
4.23
4.01
3.80
3.60
3.39
3.13
2.81
2.43
2.00
1.54
1.04
0.50
-0.09
-0.72
-1.40
-2.11
-2.85
-3.60
-4.33
-5.01
-5.59
-6.10
-6.60
-7.20
-7.98
-8.97
-10.12
-11.26
-12.22
-12.80
-12.85
-12.32
-11.21
-9.65
-7.81
-5.91
-4.18
-2.77
-1.71
-0.95
-0.37
0.20
0.87
1.68
2.61
3.56
4.39
4.95
5.18
5.09
4.80
4.54
4.51
4.81
5.36
5.93
6.28
6.22
5.74
4.98
4.17
3.48
2.97
2.60
2.27
1.92
1.54
1.17
0.85
0.61
0.47
0.38
0.34
0.31
0.25
0.12
-0.11
-0.44
-0.83
-1.25
-1.66
-2.07
-2.51
-3.02
-3.60
-4.25
-4.92
-5.56
-6.10
-6.51
-6.83
-7.11
-7.47
-8.00
-8.74
-9.63
-10.51
-11.16
-11.38
-11.01
-10.05
-8.58
-6.83
-5.04
-3.42
-2.10
-1.11
-0.40
0.07
0.38
0.57
0.71
0.87
1.17
1.67
2.37
3.17
3.91
4.46
4.81
5.04
5.29
5.65
6.10
6.54
6.87
6.99
6.91
6.65
6.28
5.84
5.40
5.02
4.74
4.58
4.53
4.52
4.49
4.39
4.22
3.98
3.65
3.21
2.61
1.81
0.85
-0.16
-1.07
-1.75
-2.13
-2.32
-2.53
-3.01
-3.97
-5.47
-7.39
-9.44
-11.25
-12.47
-12.87
-12.42
-11.25
-9.65
-7.91
-6.27
-4.86
-3.65
-2.60
-1.66
-0.87
-0.25
0.18
0.43
0.56
0.67
0.80
1.00
1.30
1.69
2.15
2.63
3.09
3.50
3.90
4.36
4.90
5.48
5.97
6.27
6.32
6.18
5.96
5.79
5.71
5.71
5.71
5.65
5.48
5.18
4.75
4.19
3.54
2.85
2.25
1.81
1.60
1.54
1.46
1.13
0.37
-0.89
-2.58
-4.53
-6.53
-8.42
-10.11
-11.62
-13.01
-14.37
-15.82
-17.46
-19.26
-21.10
-22.68
-23.57
-23.42
-22.04
-19.50
-16.12
-12.36
-8.65
-5.30
-2.51
-0.35
1.21
2.27
3.04
3.74
4.58
5.63
6.83
7.99
8.94
9.58
9.90
9.98
9.90
9.76
9.59
9.44
9.35
9.32
9.26
9.08
8.68
8.02
7.21
6.39
5.71
5.21
4.84
4.48
4.05
3.54
3.02
2.58
2.21
1.88
1.48
0.93
0.20
-0.62
-1.43
-2.13
-2.70
-3.20
-3.72
-4.31
-5.02
-5.80
-6.62
-7.50
-8.49
-9.67
-11.09
-12.69
-14.33
-15.75
-16.64
-16.75
-15.97
-14.35
-12.07
-9.44
-6.75
-4.21
-1.95
0.02
1.71
3.18
4.44
5.50
6.34
6.99
7.52
8.01
8.58
9.27
10.11
11.01
11.89
12.63
13.20
13.56
13.74
13.75
13.60
13.33
12.98
12.60
12.20
11.72
11.08
10.15
8.92
7.48
6.07
4.89
4.05
3.48
2.96
2.21
1.09
-0.40
-2.08
-3.74
-5.21
-6.45
-7.56
-8.68
-9.96
-11.55
-13.53
-15.88
-18.44
-20.89
-22.79
-23.70
-23.29
-21.48
-18.46
-14.66
-10.61
-6.78
-3.50
-0.89
1.12
2.71
4.10
5.46
6.86
8.29
9.67
10.94
12.07
13.06
13.88
14.50
14.87
14.99
14.91
14.78
14.72
14.82
15.02
15.16
15.08
14.64
13.82
12.72
11.50
10.35
9.39
8.64
8.05
7.49
6.84
6.01
5.03
3.99
2.96
1.98
1.00
-0.08
-1.34
-2.81
-4.42
-6.10
-7.77
-9.36
-10.87
-12.29
-13.69
-15.19
-16.97
-19.16
-21.70
-24.33
-26.55
-27.82
-27.73
-26.18
-23.37
-19.72
-15.70
-11.65
-7.79
-4.25
-1.08
1.63
3.87
5.69
7.21
8.57
9.89
11.16
12.33
13.30
14.05
14.62
15.11
15.60
16.12
16.64
17.09
17.41
17.56
17.54
17.37
17.06
16.61
15.95
15.01
13.78
12.34
10.85
9.54
8.58
8.03
7.74
7.45
6.94
6.12
5.10
4.10
3.35
2.95
2.82
2.80
2.64
2.23
1.53
0.60
-0.47
-1.57
-2.66
-3.71
-4.72
-5.75
-6.88
-8.23
-9.92
-11.97
-14.24
-16.39
-17.92
-18.32
-17.28
-14.85
-11.36
-7.43
-3.65
-0.44
2.03
3.78
4.96
5.73
6.22
6.58
6.90
7.30
7.84
8.50
9.22
9.86
10.33
10.62
10.75
10.81
10.83
10.79
10.65
10.35
9.88
9.31
8.68
8.03
7.33
6.52
5.60
4.64
3.80
3.21
2.87
2.68
2.43
2.00
1.38
0.70
0.13
-0.22
-0.39
-0.51
-0.74
-1.18
-1.82
-2.57
-3.36
-4.13
-4.84
-5.49
-6.08
-6.67
-7.35
-8.22
-9.38
-10.81
-12.31
-13.57
-14.20
-13.88
-12.49
-10.18
-7.29
-4.26
-1.46
0.86
2.64
3.94
4.87
5.54
5.98
6.18
6.12
5.84
5.44
5.07
4.89
5.02
5.51
6.24
7.04
7.68
8.02
8.09
8.00
7.96
8.06
8.27
8.42
8.32
7.87
7.09
6.14
5.22
4.44
3.81
3.25
2.68
2.02
1.30
0.52
-0.30
-1.16
-2.02
-2.87
-3.68
-4.44
-5.20
-6.02
-6.96
-8.03
-9.23
-10.47
-11.67
-12.68
-13.34
-13.44
-12.80
-11.35
-9.17
-6.53
-3.78
-1.29
0.69
2.08
2.94
3.41
3.63
3.74
3.87
4.06
4.36
4.74
5.15
5.52
5.79
5.94
5.98
5.95
5.87
5.76
5.64
5.51
5.41
5.36
5.34
5.30
5.15
4.82
4.28
3.57
2.82
2.16
1.72
1.52
1.50
1.51
1.39
1.01
0.33
-0.63
-1.74
-2.87
-3.87
-4.67
-5.29
-5.82
-6.38
-7.11
-8.05
-9.19
-10.42
-11.59
-12.51
-12.99
-12.84
-11.99
-10.46
-8.41
-6.11
-3.86
-1.92
-0.44
0.57
1.22
1.68
2.12
2.65
3.31
4.05
4.75
5.27
5.55
5.62
5.58
5.55
5.63
5.83
6.10
6.39
6.58
6.62
6.42
5.95
5.20
4.26
3.29
2.46
1.97
1.88
2.15
2.62
3.09
3.36
3.30
2.87
2.15
1.28
0.44
-0.22
-0.65
-0.94
-1.22
-1.66
-2.33
-3.21
-4.19
-5.17
-6.07
-6.89
-7.70
-8.55
-9.54
-10.63
-11.75
-12.68
-13.22
-13.16
-12.41
-11.02
-9.17
-7.08
-5.00
-3.09
-1.43
-0.05
1.02
1.76
2.19
2.37
2.40
2.38
2.38
2.46
2.61
2.81
3.03
3.24
3.41
3.52
3.59
3.61
3.64
3.73
3.87
4.06
4.21
4.25
4.13
3.85
3.46
3.01
2.56
2.13
1.75
1.44
1.18
0.95
0.66
0.23
-0.35
-1.08
-1.88
-2.67
-3.42
-4.14
-4.88
-5.64
-6.36
-6.91
-7.24
-7.40
-7.53
-7.86
-8.54
-9.60
-10.89
-12.17
-13.15
-13.60
-13.39
-12.48
-10.98
-9.05
-6.92
-4.82
-2.96
-1.46
-0.36
0.41
0.98
1.49
2.02
2.63
3.26
3.85
4.33
4.70
5.02
5.34
5.70
6.14
6.62
7.14
7.68
8.23
8.71
9.05
9.14
8.90
8.34
7.53
6.59
5.65
4.80
4.13
3.65
3.33
3.07
2.73
2.20
1.44
0.54
-0.37
-1.14
-1.72
-2.13
-2.50
-2.96
-3.64
-4.58
-5.74
-6.98
-8.13
-9.04
-9.65
-10.03
-10.38
-10.94
-11.85
-13.09
-14.47
-15.65
-16.34
-16.31
-15.47
-13.89
-11.69
-9.12
-6.42
-3.90
-1.82
-0.34
0.49
0.80
0.82
0.83
1.03
1.51
2.21
3.00
3.78
4.50
5.15
5.74
6.24
6.57
6.68
6.56
6.27
5.94
5.70
5.60
5.57
5.51
5.31
4.93
4.42
3.86
3.34
2.88
2.51
2.27
2.20
2.32
2.60
2.88
2.96
2.67
1.99
1.06
0.12
-0.65
-1.19
-1.63
-2.16
-2.89
-3.85
-4.89
-5.89
-6.73
-7.42
-8.02
-8.59
-9.17
-9.79
-10.47
-11.27
-12.24
-13.38
-14.54
-15.46
-15.82
-15.34
-13.90
-11.63
-8.82
-5.90
-3.26
-1.11
0.47
1.57
2.36
2.97
3.47
3.91
4.34
4.79
5.30
5.87
6.44
6.94
7.31
7.56
7.74
7.96
8.27
8.69
9.13
9.50
9.66
9.52
9.05
8.31
7.44
6.60
5.88
5.33
4.89
4.47
4.00
3.45
2.83
2.18
1.49
0.76
-0.02
-0.81
-1.57
-2.24
-2.79
-3.24
-3.64
-4.11
-4.71
-5.51
-6.54
-7.79
-9.22
-10.81
-12.50
-14.21
-15.76
-16.92
-17.40
-16.97
-15.52
-13.16
-10.17
-6.99
-4.01
-1.50
0.47
2.00
3.23
4.30
5.24
6.03
6.61
6.97
7.16
7.28
7.40
7.59
7.81
8.05
8.28
8.48
8.69
8.96
9.32
9.78
10.26
10.66
10.84
10.74
10.35
9.75
9.10
8.52
8.09
7.78
7.50
7.13
6.61
5.94
5.19
4.44
3.75
3.11
2.50
1.88
1.22
0.53
-0.19
-0.94
-1.76
-2.72
-3.85
-5.14
-6.52
-7.92
-9.31
-10.73
-12.24
-13.90
-15.64
-17.21
-18.27
-18.45
-17.55
-15.56
-12.74
-9.47
-6.13
-3.06
-0.47
1.56
3.06
4.13
4.92
5.59
6.31
7.13
8.07
9.05
9.97
10.75
11.33
11.70
11.85
11.85
11.76
11.72
11.80
12.00
12.17
12.09
11.59
10.62
9.33
8.01
6.95
6.31
6.08
6.08
6.11
6.01
5.76
5.36
4.87
4.30
3.68
3.01
2.34
1.72
1.18
0.69
0.21
-0.34
-1.00
-1.77
-2.63
-3.53
-4.45
-5.35
-6.22
-7.09
-8.00
-9.02
-10.22
-11.57
-12.95
-14.08
-14.63
-14.33
-13.05
-10.92
-8.22
-5.33
-2.60
-0.22
1.67
3.07
4.00
4.56
4.88
5.15
5.55
6.15
6.93
7.75
8.44
8.89
9.10
9.18
9.28
9.47
9.71
9.89
9.94
9.84
9.67
9.52
9.45
9.39
9.25
8.95
8.50
8.02
7.70
7.63
7.78
7.97
7.94
7.52
6.65
5.44
4.06
2.72
1.50
0.46
-0.43
-1.22
-1.94
-2.63
-3.35
-4.17
-5.16
-6.35
-7.74
-9.25
-10.77
-12.12
-13.06
-13.41
-13.05
-12.02
-10.51
-8.76
-7.02
-5.44
-4.03
-2.72
-1.43
-0.18
0.98
1.95
2.67
3.19
3.61
4.02
4.47
4.89
5.21
5.36
5.35
5.26
5.19
5.21
5.31
5.40
5.37
5.17
4.84
4.45
4.06
3.66
3.21
2.64
1.91
1.08
0.28
-0.37
-0.81
-1.05
-1.17
-1.27
-1.38
-1.53
-1.69
-1.87
-2.09
-2.43
-2.93
-3.56
-4.25
-4.89
-5.43
-5.89
-6.35
-6.92
-7.63
-8.43
-9.22
-9.85
-10.19
-10.17
-9.70
-8.76
-7.39
-5.71
-3.91
-2.21
-0.77
0.35
1.17
1.81
2.35
2.85
3.33
3.77
4.11
4.30
4.32
4.14
3.80
3.37
2.94
2.60
2.38
2.24
2.15
2.06
1.92
1.75
1.51
1.23
0.89
0.50
0.04
-0.49
-1.07
-1.66
-2.21
-2.65
-2.92
-3.03
-3.06
-3.08
-3.17
-3.33
-3.50
-3.58
-3.52
-3.35
-3.16
-3.11
-3.25
-3.56
-3.95
-4.28
-4.52
-4.72
-5.01
-5.57
-6.45
-7.58
-8.74
-9.66
-10.11
-9.98
-9.26
-8.06
-6.52
-4.83
-3.17
-1.70
-0.54
0.27
0.80
1.19
1.57
2.01
2.45
2.77
2.87
2.73
2.47
2.24
2.17
2.28
2.52
2.78
3.00
3.16
3.28
3.35
3.32
3.16
2.84
2.44
2.03
1.71
1.52
1.42
1.35
1.23
1.06
0.83
0.56
0.26
-0.07
-0.39
-0.68
-0.91
-1.09
-1.23
-1.37
-1.54
-1.74
-1.97
-2.24
-2.56
-2.95
-3.43
-4.01
-4.66
-5.35
-6.09
-6.85
-7.60
-8.25
-8.63
-8.58
-7.98
-6.84
-5.30
-3.60
-2.00
-0.70
0.27
0.99
1.56
2.10
2.64
3.13
3.54
3.85
4.10
4.35
4.65
5.02
5.44
5.83
6.12
6.24
6.19
5.97
5.66
5.33
5.02
4.73
4.42
4.03
3.53
2.98
2.45
2.03
1.73
1.55
1.43
1.32
1.23
1.18
1.18
1.20
1.18
1.05
0.75
0.25
-0.40
-1.15
-1.90
-2.58
-3.12
-3.52
-3.84
-4.14
-4.50
-4.99
-5.58
-6.21
-6.82
-7.37
-7.85
-8.30
-8.75
-9.24
-9.78
-10.32
-10.78
-10.99
-10.75
-9.92
-8.48
-6.58
-4.53
-2.69
-1.31
-0.49
-0.14
-0.05
-0.00
0.14
0.44
0.86
1.36
1.90
2.41
2.85
3.19
3.45
3.65
3.85
4.11
4.41
4.72
4.96
5.08
5.08
4.99
4.89
4.83
4.80
4.77
4.65
4.42
4.08
3.69
3.30
2.93
2.56
2.12
1.54
0.81
-0.03
-0.90
-1.70
-2.36
-2.87
-3.26
-3.60
-3.89
-4.14
-4.35
-4.52
-4.74
-5.13
-5.80
-6.73
-7.80
-8.79
-9.41
-9.48
-8.94
-7.88
-6.44
-4.83
-3.18
-1.61
-0.20
0.97
1.84
2.42
2.79
3.09
3.44
3.92
4.50
5.07
5.52
5.79
5.88
5.84
5.73
5.58
5.43
5.28
5.19
5.16
5.20
5.26
5.27
5.16
4.91
4.55
4.16
3.81
3.54
3.33
3.14
2.86
2.44
1.85
1.13
0.36
-0.39
-1.05
-1.60
-2.01
-2.30
-2.52
-2.75
-3.09
-3.59
-4.27
-5.07
-5.87
-6.57
-7.13
-7.60
-8.10
-8.75
-9.62
-10.71
-11.89
-12.98
-13.76
-14.02
-13.59
-12.41
-10.55
-8.21
-5.67
-3.25
-1.24
0.20
1.04
1.42
1.54
1.63
1.85
2.23
2.74
3.24
3.62
3.83
3.93
4.00
4.15
4.41
4.75
5.10
5.38
5.55
5.63
5.64
5.60
5.45
5.17
4.72
4.14
3.51
2.99
2.67
2.60
2.69
2.81
2.81
2.59
2.18
1.66
1.15
0.72
0.40
0.12
-0.23
-0.72
-1.43
-2.34
-3.36
-4.37
-5.24
-5.89
-6.29
-6.50
-6.67
-6.97
-7.53
-8.42
-9.57
-10.78
-11.72
-12.09
-11.66
-10.37
-8.39
-6.02
-3.63
-1.54
0.05
1.12
1.81
2.33
2.90
3.62
4.44
5.21
5.76
5.98
5.94
5.81
5.81
6.05
6.49
7.01
7.45
7.76
7.98
8.20
8.47
8.71
8.78
8.53
7.87
6.88
5.77
4.77
4.12
3.90
4.03
4.37
4.68
4.81
4.71
4.39
3.95
3.43
2.86
2.18
1.37
0.42
-0.62
-1.73
-2.85
-3.92
-4.87
-5.63
-6.12
-6.37
-6.52
-6.76
-7.29
-8.20
-9.44
-10.76
-11.85
-12.40
-12.23
-11.36
-9.96
-8.26
-6.50
-4.81
-3.23
-1.78
-0.50
0.55
1.32
1.81
2.12
2.40
2.83
3.46
4.26
5.13
5.98
6.74
7.40
7.97
8.46
8.87
9.19
9.43
9.59
9.66
9.61
9.44
9.13
8.72
8.26
7.77
7.25
6.69
6.10
5.50
4.99
4.65
4.49
4.43
4.34
4.09
3.62
2.96
2.18
1.35
0.50
-0.39
-1.32
-2.25
-3.07
-3.74
-4.24
-4.65
-5.13
-5.82
-6.81
-8.12
-9.64
-11.20
-12.57
-13.46
-13.65
-12.97
-11.44
-9.29
-6.86
-4.53
-2.56
-1.04
0.13
1.10
2.01
2.89
3.69
4.39
4.98
5.56
6.22
6.96
7.69
8.25
8.53
8.52
8.38
8.30
8.41
8.68
8.95
9.02
8.78
8.25
7.56
6.86
6.26
5.78
5.38
5.01
4.67
4.32
3.94
3.50
3.00
2.48
2.06
1.81
1.70
1.65
1.48
1.06
0.36
-0.51
-1.40
-2.15
-2.75
-3.27
-3.83
-4.54
-5.39
-6.28
-7.12
-7.86
-8.48
-8.95
-9.20
-9.06
-8.37
-7.07
-5.27
-3.23
-1.26
0.42
1.71
2.67
3.40
3.98
4.47
4.88
5.24
5.56
5.82
6.01
6.10
6.06
5.93
5.75
5.59
5.51
5.52
5.65
5.88
6.17
6.45
6.62
6.60
6.35
5.90
5.34
4.78
4.28
3.84
3.44
3.02
2.55
2.07
1.64
1.29
1.02
0.75
0.39
-0.13
-0.81
-1.59
-2.39
-3.11
-3.69
-4.12
-4.43
-4.69
-5.01
-5.56
-6.45
-7.69
-9.09
-10.33
-11.03
-10.93
-9.97
-8.35
-6.42
-4.50
-2.83
-1.50
-0.54
0.14
0.62
1.02
1.46
2.03
2.74
3.51
4.19
4.69
4.95
5.02
4.99
4.92
4.83
4.71
4.52
4.28
4.05
3.88
3.76
3.63
3.40
2.99
2.41
1.79
1.27
0.95
0.85
0.82
0.72
0.43
-0.03
-0.53
-0.93
-1.15
-1.24
-1.34
-1.58
-2.03
-2.66
-3.36
-4.02
-4.60
-5.12
-5.66
-6.26
-6.96
-7.76
-8.67
-9.66
-10.63
-11.42
-11.84
-11.70
-10.91
-9.57
-7.90
-6.21
-4.78
-3.75
-3.10
-2.70
-2.38
-2.00
-1.52
-0.94
-0.32
0.32
0.97
1.57
2.07
2.37
2.42
2.28
2.07
1.93
1.99
2.24
2.59
2.93
3.14
3.20
3.13
2.96
2.72
2.41
2.06
1.71
1.42
1.25
1.23
1.33
1.44
1.44
1.21
0.72
0.04
-0.73
-1.46
-2.06
-2.54
-2.94
-3.31
-3.71
-4.18
-4.74
-5.42
-6.18
-6.94
-7.57
-7.87
-7.72
-7.04
-5.89
-4.41
-2.76
-1.16
0.21
1.25
1.91
2.24
2.37
2.45
2.61
2.90
3.24
3.54
3.72
3.76
3.75
3.77
3.85
4.00
4.17
4.33
4.49
4.72
5.04
5.40
5.69
5.74
5.42
4.76
3.91
3.13
2.63
2.49
2.63
2.85
2.91
2.69
2.20
1.57
0.97
0.52
0.24
0.03
-0.25
-0.71
-1.38
-2.21
-3.07
-3.84
-4.43
-4.78
-4.92
-4.91
-4.88
-4.97
-5.32
-5.97
-6.87
-7.81
-8.53
-8.72
-8.23
-7.09
-5.49
-3.71
-2.06
-0.72
0.23
0.83
1.15
1.32
1.40
1.48
1.62
1.86
2.22
2.69
3.21
3.72
4.14
4.39
4.45
4.34
4.10
3.83
3.58
3.38
3.22
3.07
2.88
2.64
2.33
1.95
1.50
1.03
0.57
0.20
-0.07
-0.26
-0.43
-0.70
-1.11
-1.70
-2.38
-3.04
-3.64
-4.16
-4.64
-5.16
-5.74
-6.33
-6.88
-7.32
-7.66
-7.93
-8.10
-8.07
-7.66
-6.71
-5.21
-3.29
-1.17
0.92
2.91
4.78
6.60
8.30
9.75
10.75
11.18
11.09
10.70
10.25
9.93
9.72
9.51
9.16
8.62
7.95
7.28
6.74
6.36
6.10
5.87
5.63
5.38
5.12
4.86
4.59
4.26
3.86
3.39
2.86
2.30
1.71
1.10
0.49
-0.08
-0.59
-1.02
-1.39
-1.70
-1.96
-2.16
-2.33
-2.52
-2.82
-3.30
-3.93
-4.59
-5.11
-5.36
-5.31
-5.04
-4.70
-4.43
-4.32
-4.40
-4.67
-5.15
-5.79
-6.53
-7.17
-7.46
-7.22
-6.33
-4.94
-3.32
-1.81
-0.65
0.07
0.46
0.70
0.97
1.37
1.90
2.52
3.10
3.58
3.90
4.08
4.16
4.22
4.28
4.34
4.41
4.47
4.52
4.57
4.65
4.77
4.91
5.04
5.08
4.99
4.76
4.38
3.87
3.26
2.55
1.76
0.89
-0.04
-0.96
-1.78
-2.40
-2.82
-3.10
-3.38
-3.79
-4.40
-5.15
-5.96
-6.74
-7.45
-8.10
-8.68
-9.18
-9.54
-9.76
-9.86
-9.98
-10.23
-10.72
-11.41
-12.18
-12.82
-13.12
-12.90
-12.09
-10.70
-8.91
-6.95
-5.10
-3.59
-2.50
-1.78
-1.24
-0.73
-0.15
0.51
1.15
1.72
2.21
2.66
3.13
3.60
4.00
4.23
4.23
4.07
3.87
3.81
3.99
4.36
4.78
5.09
5.17
5.02
4.69
4.29
3.86
3.46
3.10
2.79
2.51
2.24
1.96
1.66
1.33
0.99
0.60
0.10
-0.60
-1.52
-2.60
-3.68
-4.56
-5.13
-5.41
-5.57
-5.88
-6.52
-7.53
-8.75
-9.90
-10.63
-10.72
-10.08
-8.77
-6.99
-4.98
-2.97
-1.15
0.36
1.52
2.34
2.91
3.33
3.64
3.89
4.06
4.11
4.06
3.97
3.96
4.14
4.54
5.09
5.66
6.12
6.40
6.53
6.53
6.47
6.32
6.07
5.70
5.28
4.87
4.56
4.37
4.23
4.04
3.73
3.30
2.81
2.36
2.04
1.84
1.70
1.50
1.16
0.58
-0.24
-1.29
-2.48
-3.67
-4.75
-5.58
-6.13
-6.42
-6.61
-6.89
-7.44
-8.39
-9.67
-11.03
-12.13
-12.62
-12.31
-11.20
-9.51
-7.55
-5.59
-3.82
-2.33
-1.13
-0.21
0.49
1.02
1.52
2.10
2.82
3.66
4.51
5.23
5.72
5.93
5.87
5.64
5.33
5.08
5.03
5.23
5.67
6.17
6.51
6.50
6.09
5.41
4.69
4.18
3.96
3.93
3.91
3.71
3.24
2.58
1.88
1.31
0.93
0.72
0.57
0.40
0.16
-0.13
-0.44
-0.78
-1.16
-1.64
-2.23
-2.92
-3.62
-4.26
-4.85
-5.43
-6.16
-7.13
-8.35
-9.61
-10.62
-11.03
-10.65
-9.49
-7.77
-5.82
-3.94
-2.31
-0.94
0.24
1.28
2.20
2.98
3.60
4.04
4.34
4.59
4.85
5.14
5.46
5.81
6.16
6.51
6.88
7.29
7.75
8.27
8.80
9.23
9.45
9.33
8.86
8.13
7.35
6.68
6.26
6.07
5.99
5.86
5.57
5.10
4.52
3.95
3.50
3.20
3.00
2.80
2.45
1.85
0.96
-0.14
-1.30
-2.35
-3.18
-3.75
-4.14
-4.48
-4.92
-5.56
-6.45
-7.55
-8.77
-9.93
-10.78
-11.05
-10.55
-9.20
-7.18
-4.82
-2.51
-0.59
0.82
1.77
2.39
2.85
3.23
3.53
3.75
3.94
4.14
4.42
4.79
5.23
5.67
6.07
6.41
6.65
6.77
6.75
6.63
6.49
6.40
6.42
6.51
6.57
6.49
6.19
5.70
5.13
4.62
4.29
4.16
4.21
4.34
4.50
4.62
4.66
4.57
4.32
3.90
3.31
2.60
1.84
1.10
0.43
-0.20
-0.88
-1.67
-2.61
-3.64
-4.64
-5.51
-6.23
-6.82
-7.38
-8.03
-8.80
-9.68
-10.55
-11.27
-11.65
-11.55
-10.88
-9.67
-8.07
-6.31
-4.67
-3.31
-2.26
-1.42
-0.64
0.22
1.18
2.17
3.11
3.92
4.56
5.04
5.39
5.60
5.66
5.60
5.49
5.41
5.46
5.65
5.95
6.26
6.47
6.49
6.28
5.85
5.23
4.48
3.65
2.79
1.97
1.25
0.68
0.26
-0.05
-0.29
-0.52
-0.78
-1.04
-1.29
-1.53
-1.79
-2.12
-2.55
-3.08
-3.61
-4.03
-4.32
-4.52
-4.80
-5.33
-6.21
-7.38
-8.66
-9.79
-10.52
-10.63
-10.05
-8.82
-7.09
-5.11
-3.14
-1.43
-0.10
0.86
1.56
2.14
2.69
3.21
3.63
3.88
3.95
3.92
3.92
4.05
4.34
4.74
5.11
5.35
5.39
5.26
5.05
4.86
4.76
4.74
4.72
4.58
4.24
3.67
2.95
2.21
1.58
1.17
0.97
0.93
0.92
0.82
0.56
0.13
-0.37
-0.85
-1.21
-1.43
-1.52
-1.56
-1.63
-1.78
-2.08
-2.54
-3.20
-4.05
-5.09
-6.24
-7.39
-8.34
-8.89
-8.86
-8.17
-6.84
-5.06
-3.12
-1.32
0.09
1.01
1.50
1.76
1.96
2.26
2.72
3.29
3.90
4.46
4.89
5.17
5.29
5.30
5.24
5.16
5.12
5.10
5.08
4.97
4.70
4.27
3.74
3.24
2.86
2.68
2.66
2.72
2.77
2.73
2.57
2.29
1.89
1.40
0.86
0.31
-0.21
-0.70
-1.19
-1.75
-2.41
-3.19
-4.00
-4.73
-5.30
-5.67
-5.90
-6.12
-6.47
-7.08
-7.99
-9.16
-10.41
-11.51
-12.16
-12.12
-11.25
-9.61
-7.44
-5.08
-2.89
-1.17
-0.06
0.46
0.55
0.45
0.43
0.67
1.21
1.95
2.73
3.37
3.81
4.08
4.26
4.45
4.62
4.71
4.67
4.50
4.26
4.05
3.90
3.77
3.56
3.20
2.72
2.25
1.94
1.85
1.92
1.97
1.79
1.26
0.41
-0.60
-1.54
-2.24
-2.65
-2.87
-3.09
-3.46
-4.01
-4.64
-5.16
-5.46
-5.54
-5.54
-5.68
-6.17
-7.04
-8.26
-9.67
-11.12
-12.44
-13.43
-13.91
-13.68
-12.67
-11.01
-9.01
-7.11
-5.68
-4.92
-4.77
-5.01
-5.34
-5.55
-5.59
-5.58
-5.73
-6.23
-7.19
-8.65
-10.55
-12.79
-15.24
-17.75
-20.09
-22.07
-23.52
-24.38
-24.70
-24.61
-24.25
-23.73
-23.09
-22.35
-21.51
-20.57
-19.43
-17.84
-15.39
-11.59
-6.03
1.54
10.94
21.56
32.30
41.79
48.64
51.87
51.26
47.46
41.87
36.20
32.01
30.33
31.44
34.95
40.03
45.56
50.29
52.91
52.33
47.90
39.78
29.13
17.90
8.32
2.20
0.32
2.18
6.30
10.81
14.17
15.54
14.90
12.73
9.70
6.33
2.96
-0.22
-3.07
-5.43
-7.21
-8.40
-9.12
-9.57
-9.97
-10.48
-11.13
-11.88
-12.58
-13.08
-13.30
-13.23
-13.00
-12.81
-12.86
-13.27
-13.99
-14.84
-15.58
-16.01
-16.05
-15.74
-15.26
-14.85
-14.72
-15.01
-15.72
-16.63
-17.39
-17.59
-16.94
-15.36
-13.04
-10.36
-7.76
-5.56
-3.89
-2.67
-1.72
-0.85
0.10
1.17
2.31
3.43
4.41
5.16
5.65
5.92
6.08
6.19
6.32
6.45
6.51
6.41
6.12
5.68
5.21
4.82
4.56
4.40
4.23
3.94
3.50
2.93
2.35
1.90
1.63
1.55
1.53
1.44
1.17
0.64
-0.11
-1.04
-2.06
-3.10
-4.13
-5.10
-5.98
-6.76
-7.47
-8.24
-9.22
-10.54
-12.11
-13.68
-14.84
-15.20
-14.57
-13.04
-10.92
-8.64
-6.52
-4.73
-3.27
-2.05
-1.01
-0.09
0.71
1.46
2.24
3.16
4.23
5.37
6.42
7.20
7.62
7.75
7.74
7.76
7.88
8.06
8.17
8.12
7.88
7.53
7.15
6.82
6.57
6.39
6.24
6.05
5.80
5.42
4.86
4.09
3.14
2.12
1.17
0.39
-0.17
-0.55
-0.84
-1.16
-1.58
-2.16
-2.87
-3.69
-4.54
-5.35
-6.05
-6.65
-7.21
-7.86
-8.76
-9.98
-11.45
-12.92
-14.03
-14.43
-13.92
-12.51
-10.42
-8.02
-5.64
-3.52
-1.72
-0.19
1.15
2.32
3.32
4.12
4.68
5.05
5.29
5.48
5.66
5.85
6.03
6.21
6.37
6.54
6.72
6.90
7.05
7.20
7.35
7.51
7.64
7.65
7.40
6.79
5.86
4.75
3.68
2.86
2.33
2.02
1.71
1.23
0.55
-0.21
-0.87
-1.32
-1.58
-1.85
-2.35
-3.19
-4.33
-5.60
-6.82
-7.97
-9.10
-10.34
-11.63
-12.74
-13.29
-12.94
-11.55
-9.30
-6.59
-3.89
-1.56
0.26
1.65
2.79
3.82
4.75
5.52
6.02
6.23
6.23
6.21
6.35
6.71
7.23
7.76
8.17
8.42
8.59
8.79
9.10
9.45
9.71
9.74
9.47
8.93
8.24
7.48
6.69
5.85
4.95
4.00
3.07
2.25
1.63
1.23
1.01
0.86
0.63
0.22
-0.42
-1.25
-2.15
-2.97
-3.62
-4.11
-4.60
-5.29
-6.38
-7.94
-9.84
-11.81
-13.42
-14.32
-14.23
-13.13
-11.19
-8.74
-6.19
-3.93
-2.20
-1.09
-0.52
-0.28
-0.13
0.12
0.62
1.36
2.29
3.27
4.19
4.94
5.54
6.00
6.40
6.77
7.10
7.35
7.48
7.48
7.39
7.28
7.19
7.15
7.11
6.99
6.70
6.21
5.54
4.75
3.95
3.20
2.54
1.97
1.48
1.03
0.62
0.22
-0.20
-0.66
-1.21
-1.85
-2.58
-3.36
-4.17
-5.01
-5.92
-6.93
-8.00
-9.03
-9.84
-10.25
-10.12
-9.40
-8.13
-6.45
-4.54
-2.60
-0.80
0.73
1.96
2.89
3.59
4.11
4.47
4.70
4.79
4.81
4.82
4.93
5.19
5.56
5.96
6.28
6.47
6.57
6.63
6.71
6.83
6.91
6.87
6.65
6.25
5.71
5.11
4.51
3.99
3.55
3.21
2.95
2.76
2.64
2.55
2.44
2.27
2.01
1.63
1.12
0.50
-0.21
-1.00
-1.89
-2.90
-4.06
-5.36
-6.77
-8.20
-9.45
-10.27
-10.41
-9.67
-8.05
-5.74
-3.07
-0.50
1.64
3.15
4.08
4.63
5.05
5.53
6.17
6.90
7.61
8.18
8.53
8.69
8.74
8.79
8.91
9.12
9.37
9.57
9.66
9.61
9.47
9.28
9.05
8.73
8.23
7.50
6.53
5.46
4.51
3.82
3.49
3.43
3.46
3.37
3.02
2.39
1.53
0.56
-0.42
-1.37
-2.29
-3.21
-4.12
-4.98
-5.74
-6.37
-6.91
-7.46
-8.13
-9.01
-10.08
-11.24
-12.31
-13.09
-13.38
-13.05
-12.05
-10.45
-8.40
-6.15
-3.94
-1.97
-0.36
0.84
1.63
2.08
2.28
2.38
2.54
2.89
3.45
4.11
4.67
4.96
4.88
4.49
3.95
3.46
3.19
3.18
3.43
3.88
4.44
5.01
5.47
5.71
5.56
4.98
4.01
2.84
1.75
1.00
0.71
0.80
1.05
1.15
0.93
0.36
-0.41
-1.19
-1.83
-2.28
-2.62
-2.95
-3.37
-3.90
-4.51
-5.19
-5.92
-6.69
-7.49
-8.27
-8.96
-9.56
-10.09
-10.65
-11.30
-12.03
-12.70
-13.06
-12.87
-11.96
-10.37
-8.34
-6.21
-4.27
-2.68
-1.47
-0.55
0.21
0.85
1.40
1.88
2.33
2.78
3.29
3.83
4.38
4.88
5.32
5.71
6.06
6.33
6.50
6.53
6.45
6.34
6.24
6.15
6.01
5.77
5.38
4.93
4.50
4.15
3.85
3.51
3.04
2.46
1.85
1.36
1.04
0.84
0.60
0.18
-0.52
-1.46
-2.48
-3.42
-4.17
-4.72
-5.15
-5.62
-6.25
-7.12
-8.20
-9.37
-10.43
-11.14
-11.30
-10.77
-9.51
-7.63
-5.35
-2.97
-0.78
0.95
2.09
2.63
2.72
2.55
2.36
2.30
2.49
2.89
3.41
3.95
4.44
4.86
5.24
5.67
6.17
6.74
7.33
7.87
8.29
8.54
8.63
8.59
8.47
8.31
8.13
7.92
7.63
7.25
6.74
6.11
5.39
4.63
3.86
3.08
2.27
1.42
0.45
-0.67
-1.99
-3.48
-5.10
-6.75
-8.31
-9.69
-10.84
-11.80
-12.67
-13.58
-14.65
-15.90
-17.19
-18.25
-18.74
-18.41
-17.14
-15.06
-12.49
-9.83
-7.44
-5.56
-4.21
-3.33
-2.71
-2.17
-1.52
-0.68
0.37
1.55
2.74
3.80
4.63
5.22
5.65
6.02
6.41
6.80
7.10
7.23
7.15
6.90
6.59
6.28
6.01
5.70
5.25
4.60
3.76
2.84
1.93
1.10
0.38
-0.26
-0.85
-1.39
-1.84
-2.18
-2.42
-2.63
-2.88
-3.28
-3.87
-4.65
-5.59
-6.62
-7.69
-8.78
-9.90
-11.05
-12.18
-13.18
-13.85
-13.99
-13.49
-12.37
-10.79
-9.02
-7.29
-5.76
-4.44
-3.26
-2.13
-1.01
0.10
1.14
2.04
2.79
3.43
3.97
4.44
4.82
5.08
5.20
5.22
5.25
5.37
5.62
5.92
6.16
6.22
6.08
5.77
5.40
5.01
4.56
3.99
3.21
2.23
1.17
0.18
-0.60
-1.16
-1.58
-1.98
-2.46
-3.04
-3.70
-4.35
-4.98
-5.58
-6.21
-6.92
-7.78
-8.81
-9.98
-11.20
-12.31
-13.11
-13.39
-13.02
-12.00
-10.43
-8.52
-6.48
-4.49
-2.63
-0.93
0.56
1.81
2.78
3.46
3.89
4.13
4.28
4.43
4.64
4.93
5.28
5.66
6.05
6.37
6.62
6.79
6.91
7.01
7.14
7.33
7.54
7.76
7.91
7.92
7.72
7.28
6.64
5.90
5.18
4.62
4.27
4.08
3.96
3.79
3.51
3.08
2.49
1.70
0.67
-0.59
-2.00
-3.40
-4.64
-5.70
-6.65
-7.68
-8.94
-10.40
-11.82
-12.84
-13.09
-12.38
-10.78
-8.54
-5.99
-3.43
-1.08
0.97
2.66
3.99
4.94
5.54
5.87
6.08
6.33
6.71
7.24
7.81
8.29
8.55
8.59
8.47
8.33
8.27
8.33
8.44
8.50
8.39
8.04
7.45
6.65
5.74
4.81
3.97
3.32
2.90
2.70
2.65
2.61
2.46
2.12
1.58
0.87
0.07
-0.76
-1.60
-2.42
-3.24
-4.07
-4.94
-5.92
-7.05
-8.26
-9.37
-10.07
-10.04
-9.08
-7.23
-4.78
-2.13
0.32
2.30
3.76
4.74
5.39
5.85
6.25
6.67
7.11
7.54
7.83
7.91
7.75
7.44
7.12
6.94
6.99
7.22
7.57
7.89
8.09
8.11
7.94
7.59
7.11
6.55
5.93
5.28
4.60
3.93
3.30
2.76
2.34
2.01
1.69
1.26
0.60
-0.29
-1.34
-2.37
-3.25
-3.91
-4.38
-4.81
-5.37
-6.16
-7.21
-8.47
-9.77
-10.91
-11.67
-11.87
-11.37
-10.18
-8.45
-6.43
-4.41
-2.62
-1.17
-0.03
0.87
1.65
2.37
3.04
3.65
4.19
4.64
5.01
5.30
5.50
5.65
5.76
5.86
6.01
6.24
6.57
6.94
7.26
7.41
7.27
6.85
6.22
5.56
5.07
4.89
5.05
5.43
5.82
6.00
5.82
5.25
4.41
3.48
2.63
1.94
1.36
0.81
0.22
-0.42
-1.03
-1.56
-2.05
-2.58
-3.26
-4.12
-5.05
-5.90
-6.54
-7.01
-7.43
-8.01
-8.79
-9.65
-10.25
-10.25
-9.41
-7.78
-5.66
-3.47
-1.55
-0.09
0.96
1.75
2.42
3.04
3.54
3.87
3.98
3.95
3.94
4.07
4.41
4.90
5.41
5.79
5.96
5.93
5.78
5.63
5.56
5.57
5.60
5.54
5.30
4.85
4.22
3.49
2.74
2.05
1.44
0.88
0.31
-0.32
-1.05
-1.89
-2.79
-3.71
-4.57
-5.28
-5.79
-6.10
-6.30
-6.52
-6.90
-7.55
-8.47
-9.61
-10.77
-11.75
-12.34
-12.34
-11.67
-10.36
-8.58
-6.59
-4.66
-3.00
-1.72
-0.81
-0.19
0.21
0.52
0.85
1.31
1.97
2.86
3.86
4.78
5.43
5.67
5.54
5.18
4.81
4.59
4.58
4.70
4.82
4.79
4.59
4.26
3.90
3.60
3.40
3.28
3.23
3.17
3.08
2.91
2.60
2.13
1.51
0.82
0.17
-0.33
-0.63
-0.78
-0.92
-1.17
-1.64
-2.34
-3.20
-4.17
-5.20
-6.32
-7.55
-8.87
-10.14
-11.14
-11.62
-11.36
-10.32
-8.66
-6.67
-4.70
-3.03
-1.80
-1.05
-0.67
-0.52
-0.43
-0.27
0.05
0.51
1.02
1.47
1.77
1.93
2.02
2.12
2.32
2.61
2.92
3.17
3.28
3.24
3.08
2.84
2.54
2.20
1.84
1.47
1.10
0.75
0.42
0.13
-0.13
-0.39
-0.70
-1.09
-1.53
-1.98
-2.36
-2.57
-2.60
-2.49
-2.35
-2.32
-2.51
-2.93
-3.48
-4.02
-4.45
-4.75
-5.04
-5.49
-6.18
-7.03
-7.79
-8.17
-7.96
-7.14
-5.85
-4.33
-2.82
-1.46
-0.36
0.45
0.98
1.27
1.41
1.47
1.51
1.52
1.49
1.43
1.44
1.62
2.08
2.80
3.64
4.35
4.79
4.89
4.76
4.54
4.33
4.16
3.95
3.62
3.16
2.64
2.19
1.90
1.80
1.82
1.89
1.88
1.73
1.41
0.90
0.20
-0.61
-1.45
-2.20
-2.78
-3.16
-3.41
-3.64
-4.00
-4.61
-5.56
-6.85
-8.35
-9.82
-10.92
-11.33
-10.86
-9.57
-7.71
-5.65
-3.74
-2.20
-1.07
-0.25
0.39
0.96
1.53
2.11
2.67
3.21
3.71
4.18
4.62
5.03
5.40
5.74
6.03
6.25
6.42
6.56
6.68
6.81
6.93
7.00
6.94
6.68
6.18
5.48
4.70
3.96
3.38
3.02
2.85
2.81
2.83
2.83
2.77
2.62
2.35
1.95
1.43
0.80
0.07
-0.77
-1.73
-2.83
-4.00
-5.14
-6.09
-6.76
-7.12
-7.30
-7.47
-7.81
-8.41
-9.25
-10.24
-11.17
-11.82
-11.94
-11.36
-10.02
-8.03
-5.66
-3.23
-1.06
0.69
1.97
2.82
3.31
3.49
3.45
3.29
3.17
3.22
3.51
4.03
4.64
5.16
5.47
5.54
5.43
5.25
5.13
5.13
5.25
5.40
5.48
5.41
5.15
4.74
4.25
3.76
3.32
2.96
2.69
2.49
2.35
2.27
2.20
2.11
1.92
1.58
1.06
0.42
-0.26
-0.86
-1.33
-1.73
-2.17
-2.74
-3.43
-4.13
-4.67
-4.96
-5.08
-5.21
-5.59
-6.39
-7.66
-9.27
-11.04
-12.74
-14.11
-14.92
-14.96
-14.14
-12.52
-10.35
-7.99
-5.77
-3.93
-2.50
-1.43
-0.59
0.12
0.75
1.33
1.85
2.31
2.69
3.01
3.29
3.57
3.89
4.29
4.77
5.27
5.72
6.08
6.30
6.42
6.48
6.51
6.50
6.42
6.22
5.87
5.40
4.85
4.24
3.62
3.03
2.52
2.13
1.89
1.79
1.76
1.69
1.49
1.11
0.55
-0.11
-0.82
-1.52
-2.19
-2.85
-3.55
-4.35
-5.26
-6.30
-7.44
-8.65
-9.88
-11.07
-12.13
-12.90
-13.20
-12.83
-11.72
-9.91
-7.63
-5.15
-2.75
-0.61
1.21
2.71
3.90
4.80
5.39
5.67
5.69
5.51
5.24
4.99
4.85
4.88
5.08
5.44
5.92
6.46
7.00
7.51
7.94
8.27
8.48
8.53
8.39
8.05
7.52
6.84
6.07
5.27
4.50
3.75
3.03
2.29
1.56
0.92
0.43
0.14
0.01
-0.11
-0.40
-1.02
-1.95
-3.05
-4.09
-4.88
-5.33
-5.52
-5.62
-5.82
-6.25
-6.93
-7.86
-8.98
-10.23
-11.49
-12.55
-13.13
-12.99
-12.00
-10.21
-7.88
-5.35
-2.95
-0.87
0.84
2.18
3.22
3.95
4.39
4.57
4.60
4.63
4.81
5.20
5.79
6.49
7.19
7.79
8.21
8.43
8.47
8.36
8.19
8.04
7.97
7.97
7.98
7.89
7.65
7.24
6.73
6.21
5.74
5.37
5.09
4.88
4.71
4.51
4.19
3.68
2.96
2.04
1.00
-0.06
-1.09
-2.03
-2.87
-3.64
-4.34
-4.99
-5.62
-6.26
-6.96
-7.75
-8.70
-9.82
-11.12
-12.51
-13.87
-14.96
-15.55
-15.47
-14.67
-13.22
-11.30
-9.12
-6.88
-4.69
-2.62
-0.75
0.88
2.17
3.09
3.63
3.89
4.01
4.14
4.36
4.65
4.96
5.21
5.47
5.81
6.36
7.16
8.14
9.13
9.91
10.37
10.49
10.34
10.05
9.68
9.26
8.79
8.23
7.60
6.92
6.21
5.50
4.80
4.13
3.52
2.99
2.57
2.22
1.90
1.50
0.90
0.00
-1.21
-2.66
-4.20
-5.66
-6.91
-7.95
-8.89
-9.95
-11.34
-13.18
-15.41
-17.80
-19.95
-21.38
-21.74
-20.81
-18.67
-15.58
-11.95
-8.21
-4.74
-1.79
0.49
2.10
3.13
3.76
4.22
4.74
5.48
6.42
7.45
8.36
9.00
9.33
9.46
9.58
9.83
10.31
10.99
11.76
12.49
13.03
13.25
13.05
12.45
11.53
10.46
9.43
8.60
7.99
7.57
7.23
6.90
6.53
6.10
5.62
5.04
4.32
3.48
2.57
1.69
0.93
0.34
-0.12
-0.51
-0.90
-1.35
-1.87
-2.49
-3.23
-4.13
-5.20
-6.41
-7.73
-9.08
-10.43
-11.80
-13.22
-14.73
-16.28
-17.71
-18.75
-19.12
-18.59
-17.11
-14.82
-11.98
-8.91
-5.90
-3.18
-0.88
0.96
2.35
3.36
4.14
4.81
5.46
6.10
6.67
7.11
7.38
7.57
7.74
7.98
8.32
8.73
9.16
9.51
9.73
9.76
9.56
9.12
8.46
7.63
6.73
5.82
4.95
4.13
3.37
2.67
2.06
1.53
1.02
0.45
-0.31
-1.32
-2.55
-3.91
-5.24
-6.41
-7.34
-8.09
-8.75
-9.48
-10.45
-11.73
-13.36
-15.26
-17.26
-19.08
-20.39
-20.84
-20.22
-18.45
-15.68
-12.27
-8.69
-5.38
-2.67
-0.67
0.73
1.76
2.69
3.70
4.85
6.11
7.37
8.54
9.55
10.38
11.03
11.52
11.89
12.22
12.59
13.07
13.67
14.28
14.73
14.81
14.39
13.47
12.18
10.77
9.48
8.47
7.77
7.28
6.85
6.35
5.71
4.95
4.15
3.40
2.76
2.21
1.71
1.17
0.47
-0.48
-1.71
-3.20
-4.80
-6.35
-7.71
-8.83
-9.78
-10.71
-11.82
-13.26
-15.06
-17.08
-19.02
-20.45
-20.95
-20.21
-18.14
-14.97
-11.14
-7.19
-3.61
-0.68
1.54
3.14
4.28
5.08
5.61
5.91
6.02
6.06
6.13
6.35
6.77
7.36
8.03
8.68
9.22
9.60
9.84
10.00
10.15
10.35
10.65
11.00
11.34
11.52
11.43
10.98
10.18
9.12
7.97
6.92
6.07
5.46
5.04
4.67
4.24
3.67
2.98
2.23
1.50
0.82
0.17
-0.50
-1.24
-2.07
-2.97
-3.89
-4.78
-5.64
-6.51
-7.49
-8.64
-10.03
-11.70
-13.60
-15.63
-17.56
-19.05
-19.71
-19.21
-17.44
-14.57
-10.99
-7.26
-3.85
-1.09
0.92
2.27
3.14
3.70
4.10
4.42
4.72
5.02
5.35
5.78
6.37
7.17
8.16
9.23
10.17
10.80
11.03
10.90
10.60
10.30
10.08
9.91
9.67
9.25
8.64
7.95
7.29
6.75
6.31
5.88
5.35
4.69
3.94
3.19
2.57
2.13
1.82
1.50
1.00
0.19
-0.96
-2.34
-3.77
-5.04
-6.02
-6.72
-7.26
-7.83
-8.56
-9.56
-10.82
-12.33
-13.96
-15.54
-16.80
-17.43
-17.14
-15.79
-13.46
-10.42
-7.07
-3.82
-1.01
1.20
2.74
3.68
4.15
4.31
4.34
4.35
4.44
4.63
4.89
5.19
5.51
5.88
6.29
6.77
7.26
7.74
8.16
8.52
8.81
9.02
9.11
9.03
8.76
8.22
7.42
6.39
5.24
4.13
3.23
2.68
2.47
2.49
2.53
2.35
1.84
1.01
0.02
-0.96
-1.83
-2.61
-3.39
-4.29
-5.37
-6.61
-7.95
-9.37
-10.85
-12.37
-13.82
-14.92
-15.32
-14.72
-13.02
-10.41
-7.31
-4.25
-1.60
0.46
2.01
3.21
4.20
5.01
5.57
5.85
5.87
5.76
5.69
5.78
6.06
6.45
6.82
7.07
7.19
7.25
7.34
7.49
7.64
7.67
7.49
7.05
6.48
5.91
5.43
5.05
4.65
4.09
3.27
2.22
1.04
-0.08
-1.03
-1.74
-2.28
-2.75
-3.24
-3.82
-4.48
-5.20
-5.91
-6.57
-7.24
-8.04
-9.14
-10.68
-12.65
-14.83
-16.79
-18.03
-18.17
-17.06
-14.85
-11.93
-8.76
-5.69
-2.92
-0.55
1.43
2.96
4.00
4.57
4.76
4.80
4.95
5.37
6.07
6.90
7.66
8.19
8.49
8.64
8.79
9.01
9.30
9.58
9.76
9.81
9.72
9.53
9.20
8.72
8.03
7.17
6.23
5.33
4.56
3.97
3.49
3.02
2.44
1.69
0.79
-0.19
-1.14
-1.99
-2.68
-3.22
-3.66
-4.08
-4.58
-5.20
-5.96
-6.89
-7.98
-9.29
-10.84
-12.61
-14.46
-16.20
-17.54
-18.21
-18.06
-17.02
-15.18
-12.71
-9.85
-6.89
-4.10
-1.71
0.17
1.55
2.54
3.30
3.98
4.66
5.38
6.13
6.91
7.72
8.54
9.34
10.05
10.62
11.03
11.29
11.43
11.44
11.35
11.14
10.89
10.63
10.40
10.12
9.69
9.06
8.23
7.30
6.42
5.69
5.14
4.71
4.31
3.87
3.35
2.75
2.11
1.48
0.89
0.37
-0.11
-0.62
-1.27
-2.12
-3.14
-4.20
-5.16
-5.89
-6.40
-6.83
-7.37
-8.24
-9.54
-11.21
-13.04
-14.70
-15.84
-16.17
-15.53
-13.94
-11.58
-8.74
-5.77
-2.97
-0.58
1.26
2.52
3.26
3.66
3.91
4.21
4.70
5.40
6.22
7.00
7.59
7.88
7.86
7.63
7.34
7.14
7.15
7.38
7.77
8.22
8.62
8.87
8.91
8.74
8.36
7.78
7.07
6.29
5.56
5.00
4.69
4.60
4.62
4.57
4.31
3.80
3.10
2.34
1.66
1.09
0.60
0.14
-0.35
-0.85
-1.38
-1.93
-2.58
-3.33
-4.19
-5.10
-5.97
-6.80
-7.68
-8.75
-10.11
-11.76
-13.51
-15.03
-16.00
-16.15
-15.37
-13.74
-11.47
-8.90
-6.32
-4.00
-2.07
-0.55
0.64
1.59
2.36
2.95
3.34
3.55
3.63
3.69
3.84
4.13
4.51
4.90
5.20
5.38
5.47
5.56
5.70
5.92
6.18
6.38
6.43
6.27
5.91
5.41
4.87
4.41
4.08
3.85
3.67
3.46
3.17
2.83
2.46
2.11
1.74
1.31
0.75
0.06
-0.72
-1.51
-2.23
-2.87
-3.46
-3.99
-4.51
-5.01
-5.54
-6.16
-6.97
-8.00
-9.22
-10.53
-11.70
-12.51
-12.71
-12.18
-10.91
-9.02
-6.78
-4.49
-2.43
-0.80
0.33
1.01
1.37
1.56
1.71
1.88
2.10
2.40
2.77
3.22
3.74
4.29
4.81
5.22
5.49
5.66
5.75
5.81
5.82
5.70
5.41
4.94
4.35
3.75
3.21
2.71
2.22
1.69
1.11
0.55
0.07
-0.29
-0.55
-0.73
-0.86
-0.92
-0.85
-0.69
-0.55
-0.58
-0.93
-1.65
-2.64
-3.72
-4.73
-5.55
-6.21
-6.80
-7.46
-8.29
-9.33
-10.56
-11.87
-13.07
-13.93
-14.19
-13.69
-12.39
-10.42
-8.06
-5.63
-3.41
-1.59
-0.25
0.68
1.30
1.78
2.22
2.67
3.11
3.47
3.72
3.87
4.01
4.28
4.72
5.31
5.96
6.56
7.01
7.30
7.45
7.49
7.42
7.24
6.95
6.57
6.14
5.68
5.20
4.69
4.13
3.53
2.94
2.39
1.92
1.51
1.17
0.87
0.63
0.43
0.25
0.05
-0.21
-0.58
-1.07
-1.68
-2.39
-3.15
-3.90
-4.57
-5.11
-5.56
-6.04
-6.70
-7.70
-9.06
-10.70
-12.36
-13.73
-14.50
-14.49
-13.63
-12.02
-9.90
-7.57
-5.31
-3.35
-1.75
-0.48
0.54
1.39
2.15
2.83
3.43
3.97
4.46
4.93
5.36
5.73
6.02
6.24
6.42
6.56
6.67
6.70
6.64
6.50
6.29
6.03
5.76
5.43
5.03
4.56
4.02
3.47
2.96
2.54
2.25
2.05
1.91
1.73
1.40
0.84
0.06
-0.82
-1.63
-2.21
-2.50
-2.57
-2.61
-2.83
-3.34
-4.08
-4.88
-5.56
-5.99
-6.21
-6.42
-6.83
-7.63
-8.90
-10.52
-12.30
-13.94
-15.16
-15.69
-15.38
-14.17
-12.19
-9.69
-7.02
-4.51
-2.39
-0.73
0.53
1.52
2.35
3.08
3.69
4.15
4.41
4.48
4.38
4.22
4.09
4.11
4.36
4.83
5.45
6.07
6.54
6.76
6.73
6.53
6.28
6.02
5.75
5.41
4.93
4.31
3.59
2.86
2.22
1.73
1.37
1.08
0.77
0.37
-0.17
-0.86
-1.63
-2.43
-3.21
-3.97
-4.77
-5.67
-6.69
-7.82
-9.02
-10.25
-11.49
-12.70
-13.76
-14.46
-14.53
-13.80
-12.25
-10.08
-7.65
-5.33
-3.39
-1.90
-0.79
0.11
0.95
1.82
2.75
3.70
4.59
5.35
5.94
6.38
6.72
7.04
7.39
7.73
8.00
8.16
8.20
8.16
8.10
8.04
7.97
7.81
7.53
7.11
6.57
5.96
5.33
4.73
4.18
3.67
3.19
2.72
2.26
1.83
1.44
1.07
0.67
0.13
-0.66
-1.74
-3.07
-4.47
-5.77
-6.83
-7.65
-8.32
-9.02
-9.92
-11.05
-12.35
-13.62
-14.64
-15.16
-15.03
-14.18
-12.65
-10.56
-8.12
-5.58
-3.21
-1.19
0.40
1.62
2.58
3.43
4.25
5.06
5.81
6.45
7.00
7.50
8.03
8.61
9.21
9.73
10.10
10.25
10.22
10.06
9.82
9.57
9.32
9.07
8.80
8.49
8.10
7.63
7.10
6.56
6.03
5.53
5.05
4.54
3.94
3.21
2.39
1.54
0.77
0.15
-0.31
-0.65
-0.98
-1.40
-1.99
-2.72
-3.54
-4.37
-5.15
-5.91
-6.68
-7.56
-8.59
-9.78
-11.12
-12.51
-13.75
-14.60
-14.78
-14.09
-12.49
-10.14
-7.43
-4.79
-2.58
-0.97
0.10
0.86
1.59
2.49
3.63
4.94
6.23
7.29
7.96
8.20
8.09
7.83
7.64
7.66
7.95
8.46
9.05
9.63
10.09
10.42
10.60
10.64
10.51
10.18
9.67
9.01
8.27
7.55
6.93
6.42
6.00
5.57
5.06
4.37
3.51
2.49
1.37
0.25
-0.83
-1.79
-2.61
-3.30
-3.92
-4.56
-5.31
-6.20
-7.22
-8.31
-9.35
-10.23
-10.80
-10.90
-10.41
-9.28
-7.59
-5.55
-3.45
-1.56
-0.04
1.10
1.98
2.76
3.56
4.43
5.33
6.18
6.92
7.50
7.94
8.26
8.48
8.60
8.63
8.60
8.56
8.56
8.61
8.65
8.61
8.45
8.16
7.80
7.41
7.01
6.57
6.06
5.49
4.93
4.47
4.16
3.99
3.84
3.59
3.18
2.63
2.02
1.47
1.02
0.66
0.31
-0.08
-0.57
-1.12
-1.69
-2.24
-2.75
-3.23
-3.73
-4.29
-4.96
-5.74
-6.65
-7.64
-8.68
-9.64
-10.35
-10.64
-10.39
-9.59
-8.34
-6.85
-5.32
-3.92
-2.73
-1.75
-0.92
-0.21
0.42
0.99
1.48
1.90
2.28
2.66
3.09
3.63
4.22
4.78
5.21
5.42
5.41
5.25
5.03
4.82
4.65
4.51
4.39
4.30
4.26
4.21
4.03
3.61
2.93
2.11
1.34
0.84
0.64
0.64
0.60
0.37
-0.08
-0.58
-0.92
-0.96
-0.71
-0.35
-0.13
-0.19
-0.57
-1.18
-1.86
-2.47
-2.95
-3.28
-3.51
-3.72
-4.00
-4.41
-4.98
-5.69
-6.46
-7.23
-7.96
-8.58
-8.96
-8.98
-8.47
-7.38
-5.78
-3.91
-2.06
-0.51
0.63
1.40
1.94
2.37
2.74
3.01
3.16
3.21
3.25
3.37
3.57
3.75
3.78
3.55
3.15
2.73
2.52
2.59
2.87
3.14
3.19
2.91
2.38
1.83
1.45
1.37
1.55
1.85
2.08
2.11
1.91
1.50
1.00
0.48
-0.02
-0.50
-0.97
-1.43
-1.85
-2.21
-2.51
-2.77
-3.04
-3.32
-3.64
-3.96
-4.27
-4.59
-4.98
-5.49
-6.17
-7.00
-7.90
-8.74
-9.35
-9.59
-9.33
-8.53
-7.24
-5.62
-3.90
-2.30
-1.00
-0.06
0.54
0.90
1.14
1.32
1.47
1.59
1.68
1.73
1.77
1.78
1.74
1.65
1.54
1.47
1.51
1.65
1.83
1.92
1.86
1.61
1.22
0.77
0.36
0.02
-0.21
-0.33
-0.31
-0.14
0.15
0.48
0.73
0.75
0.50
0.05
-0.44
-0.81
-0.92
-0.81
-0.60
-0.47
-0.58
-0.96
-1.53
-2.13
-2.61
-2.91
-3.02
-3.03
-3.06
-3.20
-3.52
-4.04
-4.76
-5.61
-6.55
-7.45
-8.14
-8.42
-8.12
-7.16
-5.65
-3.84
-2.06
-0.58
0.42
0.95
1.08
0.96
0.72
0.45
0.26
0.21
0.34
0.67
1.13
1.64
2.10
2.42
2.55
2.47
2.27
2.04
1.90
1.92
2.09
2.30
2.44
2.41
2.22
1.92
1.59
1.31
1.07
0.86
0.65
0.45
0.32
0.28
0.36
0.52
0.66
0.70
0.54
0.20
-0.30
-0.84
-1.34
-1.75
-2.07
-2.36
-2.67
-3.05
-3.50
-4.02
-4.59
-5.21
-5.87
-6.57
-7.25
-7.85
-8.27
-8.41
-8.21
-7.62
-6.65
-5.37
-3.90
-2.36
-0.92
0.30
1.22
1.79
2.00
1.92
1.64
1.34
1.19
1.31
1.67
2.15
2.55
2.71
2.62
2.39
2.21
2.22
2.45
2.81
3.19
3.50
3.70
3.78
3.73
3.56
3.23
2.80
2.30
1.83
1.45
1.17
0.97
0.82
0.66
0.45
0.14
-0.31
-0.86
-1.44
-1.93
-2.24
-2.40
-2.53
-2.81
-3.35
-4.13
-5.00
-5.76
-6.28
-6.58
-6.81
-7.18
-7.81
-8.70
-9.75
-10.76
-11.54
-11.94
-11.84
-11.19
-10.01
-8.40
-6.54
-4.65
-2.94
-1.54
-0.51
0.19
0.66
1.05
1.52
2.15
2.96
3.85
4.67
5.27
5.57
5.60
5.47
5.31
5.25
5.32
5.45
5.56
5.61
5.60
5.61
5.70
5.87
6.04
6.11
5.97
5.64
5.18
4.70
4.28
3.92
3.55
3.11
2.55
1.91
1.26
0.70
0.28
0.01
-0.22
-0.51
-1.00
-1.76
-2.76
-3.86
-4.85
-5.57
-5.98
-6.19
-6.44
-6.96
-7.88
-9.17
-10.65
-12.06
-13.13
-13.66
-13.53
-12.72
-11.32
-9.48
-7.45
-5.49
-3.78
-2.44
-1.43
-0.64
0.05
0.71
1.39
2.09
2.80
3.51
4.21
4.87
5.46
5.95
6.37
6.77
7.17
7.60
8.01
8.35
8.57
8.70
8.76
8.79
8.76
8.57
8.11
7.34
6.32
5.22
4.25
3.54
3.11
2.85
2.59
2.21
1.68
1.06
0.41
-0.22
-0.85
-1.50
-2.16
-2.78
-3.28
-3.65
-3.98
-4.44
-5.21
-6.41
-8.02
-9.85
-11.58
-12.88
-13.45
-13.11
-11.84
-9.80
-7.27
-4.63
-2.17
-0.14
1.41
2.50
3.27
3.85
4.34
4.79
5.23
5.64
6.04
6.39
6.70
6.96
7.18
7.38
7.57
7.78
8.01
8.24
8.45
8.59
8.61
8.49
8.21
7.77
7.19
6.52
5.86
5.30
4.91
4.69
4.57
4.42
4.11
3.55
2.78
1.88
1.00
0.27
-0.29
-0.71
-1.09
-1.49
-1.95
-2.46
-2.99
-3.52
-4.09
-4.73
-5.49
-6.39
-7.45
-8.67
-9.99
-11.32
-12.47
-13.15
-13.09
-12.14
-10.33
-7.91
-5.23
-2.68
-0.55
1.05
2.13
2.85
3.40
3.96
4.68
5.57
6.57
7.55
8.38
8.97
9.31
9.44
9.43
9.36
9.28
9.23
9.21
9.21
9.19
9.11
8.96
8.75
8.52
8.32
8.14
7.93
7.61
7.11
6.43
5.63
4.82
4.11
3.60
3.30
3.16
3.08
2.95
2.69
2.30
1.82
1.33
0.84
0.34
-0.27
-1.04
-1.99
-3.04
-4.06
-4.92
-5.57
-6.01
-6.31
-6.54
-6.80
-7.19
-7.79
-8.65
-9.73
-10.86
-11.78
-12.21
-11.95
-10.96
-9.36
-7.38
-5.30
-3.37
-1.76
-0.51
0.44
1.22
1.95
2.72
3.52
4.32
5.05
5.64
6.08
6.36
6.53
6.62
6.70
6.80
6.96
7.21
7.53
7.87
8.15
8.29
8.18
7.76
7.04
6.11
5.15
4.30
3.68
3.27
3.01
2.82
2.62
2.38
2.10
1.77
1.39
0.97
0.51
0.02
-0.53
-1.20
-2.04
-3.10
-4.32
-5.57
-6.71
-7.64
-8.41
-9.12
-9.93
-10.88
-11.88
-12.68
-12.98
-12.55
-11.30
-9.37
-7.07
-4.75
-2.70
-1.05
0.21
1.24
2.17
3.12
4.07
4.95
5.69
6.22
6.57
6.76
6.89
7.01
7.15
7.32
7.49
7.63
7.74
7.83
7.92
8.00
8.00
7.84
7.41
6.69
5.75
4.75
3.88
3.27
2.95
2.80
2.67
2.37
1.85
1.14
0.34
-0.39
-0.97
-1.37
-1.64
-1.90
-2.26
-2.77
-3.40
-4.09
-4.75
-5.32
-5.81
-6.25
-6.71
-7.22
-7.81
-8.49
-9.31
-10.27
-11.30
-12.22
-12.75
-12.62
-11.71
-10.10
-8.06
-5.92
-3.94
-2.27
-0.92
0.18
1.05
1.74
2.28
2.75
3.26
3.90
4.69
5.50
6.18
6.57
6.59
6.32
5.90
5.52
5.29
5.24
5.27
5.28
5.16
4.90
4.52
4.11
3.69
3.25
2.77
2.20
1.57
0.95
0.41
-0.02
-0.35
-0.67
-1.05
-1.56
-2.20
-2.90
-3.59
-4.18
-4.63
-4.97
-5.23
-5.50
-5.87
-6.45
-7.29
-8.38
-9.61
-10.75
-11.54
-11.70
-11.06
-9.63
-7.61
-5.31
-3.10
-1.25
0.16
1.18
1.94
2.57
3.10
3.51
3.80
3.99
4.22
4.61
5.21
5.94
6.65
7.19
7.47
7.53
7.46
7.35
7.22
7.02
6.72
6.29
5.76
5.21
4.70
4.24
3.81
3.39
2.98
2.62
2.36
2.21
2.13
2.06
1.92
1.67
1.31
0.80
0.14
-0.66
-1.55
-2.43
-3.23
-3.90
-4.49
-5.07
-5.70
-6.39
-7.09
-7.73
-8.32
-8.98
-9.81
-10.81
-11.84
-12.57
-12.68
-11.96
-10.44
-8.37
-6.12
-4.01
-2.24
-0.87
0.11
0.75
1.09
1.17
1.11
1.08
1.25
1.73
2.46
3.28
3.99
4.47
4.72
4.87
5.03
5.28
5.55
5.75
5.77
5.61
5.34
5.04
4.74
4.43
4.03
3.53
2.98
2.49
2.16
2.02
1.98
1.92
1.75
1.43
1.03
0.63
0.26
-0.09
-0.48
-0.96
-1.49
-2.00
-2.40
-2.63
-2.72
-2.80
-2.99
-3.40
-4.07
-4.96
-5.97
-7.00
-7.93
-8.62
-8.96
-8.79
-8.05
-6.73
-4.98
-3.00
-1.10
0.49
1.63
2.36
2.80
3.15
3.55
4.07
4.68
5.30
5.83
6.23
6.46
6.53
6.44
6.26
6.07
5.98
6.05
6.30
6.64
6.91
7.00
6.81
6.35
5.67
4.85
3.95
3.07
2.29
1.72
1.47
1.56
1.95
2.47
2.94
3.18
3.12
2.80
2.32
1.79
1.28
0.75
0.15
-0.56
-1.38
-2.23
-3.03
-3.69
-4.18
-4.51
-4.76
-5.00
-5.34
-5.87
-6.63
-7.58
-8.55
-9.29
-9.54
-9.21
-8.34
-7.14
-5.86
-4.71
-3.76
-3.02
-2.44
-1.92
-1.41
-0.85
-0.19
0.58
1.43
2.27
3.04
3.69
4.23
4.74
5.25
5.79
6.35
6.86
7.29
7.56
7.64
7.53
7.23
6.83
6.38
5.94
5.49
5.04
4.56
4.07
3.61
3.22
2.91
2.66
2.45
2.26
2.06
1.86
1.66
1.43
1.21
1.00
0.81
0.66
0.52
0.33
0.02
-0.44
-1.09
-1.91
-2.87
-3.91
-4.98
-6.04
-7.08
-8.12
-9.14
-10.08
-10.80
-11.09
-10.80
-9.88
-8.43
-6.69
-4.96
-3.44
-2.22
-1.26
-0.44
0.36
1.18
2.00
2.78
3.45
4.02
4.52
4.98
5.41
5.79
6.05
6.15
6.08
5.86
5.60
5.40
5.36
5.47
5.64
5.71
5.54
5.07
4.39
3.65
3.03
2.59
2.30
2.03
1.72
1.37
1.05
0.84
0.73
0.62
0.41
-0.01
-0.63
-1.35
-1.99
-2.44
-2.66
-2.71
-2.72
-2.78
-2.99
-3.38
-3.94
-4.65
-5.47
-6.38
-7.33
-8.19
-8.80
-8.95
-8.50
-7.49
-6.08
-4.51
-3.02
-1.74
-0.70
0.17
0.92
1.58
2.14
2.60
2.94
3.20
3.40
3.61
3.88
4.26
4.74
5.31
5.87
6.27
6.45
6.40
6.19
5.93
5.70
5.48
5.20
4.78
4.17
3.41
2.62
1.92
1.41
1.09
0.91
0.77
0.58
0.33
0.07
-0.11
-0.14
-0.04
0.13
0.20
0.06
-0.35
-0.95
-1.63
-2.22
-2.67
-2.99
-3.26
-3.57
-4.00
-4.53
-5.18
-5.92
-6.76
-7.70
-8.66
-9.45
-9.84
-9.60
-8.64
-7.04
-5.09
-3.14
-1.51
-0.37
0.27
0.55
0.66
0.77
1.01
1.44
2.07
2.85
3.70
4.53
5.21
5.68
5.90
5.89
5.69
5.37
4.99
4.61
4.28
4.05
3.93
3.90
3.90
3.86
3.73
3.49
3.18
2.80
2.34
1.75
1.01
0.14
-0.73
-1.48
-1.98
-2.25
-2.37
-2.48
-2.68
-2.98
-3.30
-3.57
-3.77
-3.95
-4.17
-4.46
-4.79
-5.06
-5.20
-5.19
-5.11
-5.11
-5.34
-5.91
-6.78
-7.80
-8.78
-9.51
-9.80
-9.58
-8.85
-7.67
-6.17
-4.52
-2.90
-1.44
-0.28
0.56
1.09
1.38
1.55
1.73
2.01
2.45
3.01
3.61
4.09
4.32
4.23
3.85
3.34
2.90
2.73
2.92
3.43
4.12
4.82
5.40
5.78
5.95
5.95
5.83
5.60
5.29
4.90
4.42
3.87
3.29
2.73
2.28
1.99
1.83
1.74
1.56
1.18
0.57
-0.24
-1.16
-2.08
-2.91
-3.61
-4.13
-4.46
-4.61
-4.66
-4.70
-4.85
-5.19
-5.72
-6.39
-7.06
-7.53
-7.57
-7.06
-6.00
-4.55
-3.00
-1.63
-0.64
-0.02
0.34
0.58
0.77
0.90
0.91
0.83
0.71
0.71
0.89
1.26
1.66
1.95
2.01
1.86
1.62
1.45
1.47
1.74
2.19
2.65
2.94
2.91
2.56
1.98
1.35
0.83
0.51
0.29
0.03
-0.39
-1.04
-1.83
-2.65
-3.36
-3.95
-4.45
-4.96
-5.55
-6.23
-6.99
-7.75
-8.50
-9.20
-9.86
-10.49
-11.15
-11.89
-12.82
-14.01
-15.44
-17.03
-18.55
-19.75
-20.35
-20.16
-19.18
-17.58
-15.74
-14.09
-13.04
-12.77
-13.23
-14.12
-14.99
-15.42
-15.08
-13.78
-11.57
-8.64
-5.26
-1.70
1.90
5.63
9.69
14.28
19.47
25.09
30.82
36.38
41.70
46.90
52.14
57.44
62.45
66.59
69.25
70.04
68.88
65.92
61.31
55.07
47.12
37.49
26.56
15.12
4.24
-5.12
-12.34
-17.37
-20.65
-22.82
-24.49
-25.99
-27.39
-28.59
-29.48
-29.99
-30.21
-30.28
-30.37
-30.60
-30.99
-31.50
-32.03
-32.52
-32.84
-32.87
-32.44
-31.42
-29.71
-27.36
-24.52
-21.45
-18.45
-15.72
-13.41
-11.51
-9.91
-8.47
-7.07
-5.67
-4.35
-3.23
-2.39
-1.85
-1.50
-1.14
-0.62
0.10
0.96
1.82
2.53
3.06
3.44
3.74
4.00
4.18
4.23
4.10
3.80
3.39
2.96
2.60
2.33
2.11
1.84
1.43
0.78
-0.12
-1.22
-2.43
-3.61
-4.68
-5.56
-6.30
-6.99
-7.76
-8.76
-10.07
-11.69
-13.51
-15.31
-16.79
-17.64
-17.63
-16.69
-14.90
-12.53
-9.98
-7.58
-5.59
-4.01
-2.69
-1.37
0.14
1.89
3.78
5.58
7.12
8.31
9.18
9.83
10.33
10.70
10.95
11.08
11.14
11.23
11.41
11.69
12.01
12.25
12.34
12.25
12.05
11.80
11.55
11.32
11.07
10.76
10.37
9.91
9.40
8.81
8.14
7.35
6.46
5.54
4.66
3.88
3.17
2.42
1.46
0.18
-1.37
-3.03
-4.52
-5.63
-6.32
-6.74
-7.23
-8.09
-9.51
-11.42
-13.54
-15.47
-16.79
-17.19
-16.50
-14.75
-12.15
-9.00
-5.71
-2.65
-0.11
1.74
2.94
3.65
4.10
4.55
5.22
6.18
7.39
8.73
10.02
11.08
11.83
12.23
12.37
12.36
12.31
12.32
12.42
12.60
12.79
12.91
12.86
12.56
11.98
11.16
10.19
9.23
8.40
7.78
7.34
7.02
6.72
6.39
6.02
5.63
5.23
4.80
4.27
3.59
2.72
1.70
0.63
-0.40
-1.36
-2.26
-3.21
-4.26
-5.48
-6.84
-8.29
-9.74
-11.07
-12.10
-12.63
-12.47
-11.48
-9.69
-7.29
-4.63
-2.11
0.00
1.59
2.73
3.60
4.40
5.24
6.16
7.12
8.07
8.98
9.86
10.72
11.48
12.06
12.37
12.41
12.25
12.06
11.98
12.02
12.14
12.20
12.06
11.67
11.06
10.34
9.60
8.95
8.40
7.93
7.50
7.04
6.51
5.92
5.28
4.64
4.02
3.40
2.74
1.99
1.12
0.17
-0.82
-1.78
-2.69
-3.53
-4.33
-5.13
-6.02
-7.10
-8.44
-10.01
-11.65
-13.09
-14.02
-14.18
-13.48
-12.01
-10.01
-7.76
-5.50
-3.37
-1.47
0.19
1.58
2.75
3.76
4.71
5.63
6.52
7.29
7.88
8.26
8.51
8.73
9.01
9.34
9.63
9.78
9.69
9.39
8.99
8.61
8.34
8.15
7.97
7.72
7.36
6.97
6.61
6.35
6.17
5.98
5.70
5.28
4.76
4.22
3.72
3.30
2.92
2.50
2.00
1.33
0.48
-0.56
-1.74
-2.98
-4.15
-5.15
-5.91
-6.45
-6.87
-7.32
-7.98
-8.98
-10.31
-11.79
-13.09
-13.76
-13.46
-12.05
-9.71
-6.86
-4.05
-1.70
-0.03
1.01
1.61
1.97
2.27
2.60
2.96
3.35
3.77
4.18
4.59
4.97
5.29
5.53
5.65
5.65
5.54
5.37
5.22
5.16
5.22
5.37
5.50
5.51
5.29
4.77
4.02
3.12
2.23
1.45
0.84
0.39
0.02
-0.36
-0.76
-1.20
-1.62
-1.99
-2.32
-2.67
-3.10
-3.65
-4.25
-4.81
-5.24
-5.53
-5.78
-6.14
-6.74
-7.63
-8.72
-9.77
-10.51
-10.71
-10.26
-9.21
-7.75
-6.08
-4.42
-2.89
-1.53
-0.35
0.64
1.44
2.05
2.52
2.93
3.36
3.85
4.33
4.65
4.66
4.31
3.70
3.07
2.71
2.78
3.25
3.94
4.58
4.98
5.02
4.77
4.33
3.79
3.18
2.51
1.79
1.12
0.61
0.39
0.44
0.67
0.85
0.83
0.51
-0.04
-0.65
-1.14
-1.44
-1.60
-1.75
-2.03
-2.52
-3.21
-3.97
-4.68
-5.25
-5.65
-5.97
-6.35
-6.96
-7.89
-9.08
-10.34
-11.34
-11.79
-11.52
-10.54
-9.06
-7.30
-5.48
-3.73
-2.15
-0.81
0.23
0.95
1.40
1.71
2.03
2.48
3.06
3.71
4.34
4.85
5.19
5.32
5.24
4.99
4.65
4.35
4.22
4.30
4.52
4.73
4.79
4.63
4.24
3.68
3.02
2.32
1.61
0.94
0.36
-0.09
-0.39
-0.56
-0.64
-0.68
-0.72
-0.81
-0.97
-1.20
-1.51
-1.85
-2.16
-2.44
-2.71
-3.06
-3.57
-4.25
-5.06
-5.88
-6.63
-7.25
-7.76
-8.24
-8.77
-9.41
-10.07
-10.61
-10.81
-10.46
-9.49
-8.01
-6.24
-4.46
-2.89
-1.61
-0.57
0.30
1.08
1.80
2.43
2.97
3.41
3.75
3.98
4.08
4.06
3.98
3.98
4.18
4.61
5.20
5.78
6.15
6.22
6.00
5.56
5.01
4.41
3.80
3.14
2.45
1.74
1.09
0.57
0.26
0.18
0.29
0.47
0.58
0.47
0.12
-0.40
-0.95
-1.43
-1.80
-2.14
-2.52
-3.00
-3.49
-3.90
-4.19
-4.42
-4.74
-5.33
-6.28
-7.53
-8.88
-10.08
-10.85
-10.98
-10.38
-9.06
-7.21
-5.13
-3.17
-1.59
-0.49
0.21
0.68
1.08
1.50
1.92
2.30
2.60
2.83
3.05
3.25
3.41
3.47
3.36
3.10
2.76
2.47
2.33
2.38
2.62
2.95
3.26
3.46
3.47
3.30
2.97
2.58
2.22
1.97
1.83
1.77
1.74
1.63
1.40
1.05
0.62
0.17
-0.21
-0.51
-0.76
-1.02
-1.40
-1.96
-2.71
-3.57
-4.40
-5.10
-5.63
-6.03
-6.45
-7.05
-7.92
-9.10
-10.46
-11.81
-12.89
-13.45
-13.28
-12.33
-10.70
-8.62
-6.39
-4.31
-2.57
-1.28
-0.39
0.18
0.55
0.85
1.18
1.59
2.11
2.66
3.17
3.56
3.78
3.86
3.83
3.78
3.79
3.89
4.14
4.50
4.93
5.33
5.63
5.78
5.73
5.51
5.15
4.69
4.23
3.85
3.65
3.66
3.81
3.96
3.89
3.46
2.65
1.63
0.66
-0.04
-0.36
-0.40
-0.38
-0.56
-1.05
-1.83
-2.74
-3.59
-4.24
-4.67
-4.95
-5.26
-5.75
-6.50
-7.52
-8.73
-9.93
-10.92
-11.49
-11.51
-10.93
-9.83
-8.36
-6.66
-4.89
-3.15
-1.54
-0.12
1.05
1.96
2.61
3.03
3.26
3.37
3.43
3.54
3.75
4.12
4.62
5.22
5.85
6.49
7.12
7.72
8.22
8.55
8.63
8.41
7.92
7.25
6.54
5.88
5.35
4.92
4.52
4.12
3.68
3.25
2.86
2.51
2.17
1.74
1.15
0.36
-0.56
-1.46
-2.21
-2.77
-3.19
-3.61
-4.14
-4.78
-5.45
-6.04
-6.56
-7.11
-7.89
-9.03
-10.49
-11.99
-13.17
-13.67
-13.30
-12.11
-10.32
-8.22
-6.09
-4.13
-2.50
-1.24
-0.33
0.32
0.83
1.33
1.89
2.53
3.21
3.90
4.61
5.34
6.03
6.61
6.96
7.06
6.98
6.91
7.01
7.34
7.83
8.29
8.50
8.35
7.87
7.20
6.52
5.96
5.55
5.24
4.94
4.57
4.13
3.65
3.17
2.72
2.29
1.85
1.35
0.75
0.06
-0.73
-1.59
-2.52
-3.49
-4.45
-5.32
-6.04
-6.60
-7.08
-7.60
-8.33
-9.38
-10.70
-12.12
-13.32
-13.97
-13.82
-12.84
-11.14
-8.98
-6.63
-4.28
-2.06
-0.06
1.61
2.84
3.56
3.85
3.91
3.97
4.24
4.76
5.45
6.13
6.68
7.08
7.37
7.63
7.89
8.09
8.20
8.18
8.04
7.84
7.64
7.46
7.28
7.03
6.65
6.09
5.33
4.45
3.56
2.78
2.18
1.76
1.47
1.21
0.91
0.55
0.14
-0.30
-0.78
-1.35
-2.04
-2.82
-3.64
-4.46
-5.29
-6.23
-7.38
-8.74
-10.17
-11.38
-12.03
-11.85
-10.81
-9.05
-6.92
-4.75
-2.79
-1.18
0.11
1.13
1.97
2.68
3.32
3.90
4.46
5.01
5.56
6.08
6.52
6.88
7.13
7.31
7.46
7.61
7.74
7.85
7.91
7.94
7.96
7.97
7.95
7.86
7.64
7.29
6.85
6.42
6.09
5.86
5.67
5.36
4.83
4.08
3.17
2.22
1.33
0.51
-0.29
-1.11
-1.97
-2.79
-3.51
-4.09
-4.52
-4.86
-5.21
-5.64
-6.19
-6.92
-7.83
-8.90
-10.04
-11.05
-11.67
-11.63
-10.75
-9.03
-6.68
-4.06
-1.56
0.50
1.98
2.93
3.49
3.85
4.20
4.60
5.09
5.60
6.06
6.41
6.59
6.60
6.48
6.29
6.10
5.98
5.93
5.94
5.95
5.91
5.80
5.65
5.51
5.43
5.42
5.45
5.48
5.44
5.32
5.11
4.82
4.45
3.96
3.39
2.77
2.19
1.73
1.38
1.12
0.88
0.61
0.29
-0.06
-0.44
-0.85
-1.33
-1.92
-2.58
-3.29
-3.99
-4.67
-5.37
-6.15
-7.04
-7.98
-8.79
-9.25
-9.13
-8.35
-7.00
-5.29
-3.54
-2.01
-0.86
-0.10
0.36
0.68
0.97
1.31
1.73
2.19
2.65
3.04
3.32
3.47
3.49
3.42
3.33
3.28
3.34
3.51
3.77
4.03
4.22
4.26
4.12
3.86
3.51
3.14
2.78
2.46
2.19
1.99
1.87
1.80
1.72
1.55
1.24
0.80
0.29
-0.21
-0.66
-1.05
-1.40
-1.72
-2.00
-2.24
-2.47
-2.77
-3.22
-3.82
-4.51
-5.15
-5.66
-6.01
-6.26
-6.44
-6.55
-6.52
-6.21
-5.54
-4.53
-3.31
-2.09
-1.08
-0.42
-0.12
-0.09
-0.19
-0.26
-0.21
0.00
0.38
0.87
1.44
2.03
2.60
3.10
3.46
3.63
3.59
3.39
3.09
2.82
2.66
2.62
2.66
2.69
2.65
2.50
2.26
2.03
1.87
1.82
1.84
1.86
1.82
1.66
1.37
0.99
0.52
-0.01
-0.60
-1.24
-1.91
-2.54
-3.09
-3.51
-3.82
-4.07
-4.35
-4.71
-5.17
-5.71
-6.30
-6.88
-7.43
-7.90
-8.21
-8.29
-8.05
-7.47
-6.59
-5.53
-4.44
-3.43
-2.57
-1.90
-1.40
-1.03
-0.75
-0.49
-0.17
0.26
0.78
1.28
1.61
1.65
1.39
0.95
0.53
0.31
0.34
0.57
0.85
1.05
1.11
1.08
1.01
0.93
0.82
0.65
0.38
0.06
-0.24
-0.42
-0.42
-0.24
0.05
0.33
0.46
0.32
-0.16
-0.91
-1.82
-2.70
-3.42
-3.89
-4.12
-4.18
-4.12
-4.03
-3.94
-3.90
-3.93
-4.06
-4.27
-4.56
-4.90
-5.26
-5.57
-5.73
-5.61
-5.12
-4.24
-3.06
-1.75
-0.50
0.53
1.27
1.73
1.94
1.93
1.77
1.53
1.35
1.36
1.61
2.08
2.63
3.10
3.33
3.28
3.00
2.64
2.39
2.33
2.49
2.76
3.00
3.04
2.84
2.41
1.89
1.39
1.02
0.80
0.67
0.52
0.27
-0.10
-0.52
-0.89
-1.13
-1.24
-1.29
-1.42
-1.75
-2.33
-3.10
-3.91
-4.62
-5.14
-5.43
-5.54
-5.55
-5.53
-5.53
-5.62
-5.83
-6.21
-6.76
-7.42
-8.06
-8.49
-8.49
-7.93
-6.83
-5.36
-3.79
-2.43
-1.45
-0.88
-0.59
-0.41
-0.21
0.03
0.29
0.53
0.76
1.09
1.58
2.22
2.93
3.52
3.89
4.08
4.23
4.54
5.10
5.80
6.42
6.72
6.59
6.11
5.50
4.94
4.53
4.22
3.94
3.60
3.24
2.89
2.57
2.23
1.81
1.29
0.72
0.25
-0.02
-0.10
-0.11
-0.23
-0.62
-1.30
-2.17
-3.08
-3.88
-4.53
-5.04
-5.49
-5.95
-6.45
-7.03
-7.72
-8.53
-9.42
-10.26
-10.87
-11.04
-10.63
-9.65
-8.23
-6.62
-5.08
-3.77
-2.74
-1.94
-1.25
-0.57
0.14
0.91
1.71
2.50
3.24
3.90
4.44
4.82
5.03
5.05
4.92
4.69
4.47
4.34
4.40
4.65
5.03
5.40
5.61
5.60
5.38
5.05
4.74
4.50
4.32
4.13
3.86
3.49
3.05
2.59
2.13
1.69
1.24
0.83
0.50
0.32
0.31
0.40
0.45
0.32
-0.07
-0.70
-1.49
-2.31
-3.07
-3.74
-4.36
-4.99
-5.69
-6.50
-7.45
-8.48
-9.49
-10.27
-10.63
-10.39
-9.46
-7.92
-5.99
-3.94
-2.02
-0.39
0.87
1.80
2.44
2.87
3.18
3.42
3.65
3.87
4.10
4.36
4.68
5.07
5.53
6.02
6.46
6.78
6.94
6.95
6.88
6.79
6.71
6.62
6.45
6.16
5.71
5.13
4.49
3.86
3.31
2.86
2.46
2.03
1.53
0.92
0.24
-0.43
-1.02
-1.48
-1.80
-2.03
-2.25
-2.53
-2.98
-3.62
-4.44
-5.39
-6.43
-7.49
-8.48
-9.26
-9.63
-9.39
-8.44
-6.86
-4.92
-2.99
-1.41
-0.33
0.30
0.68
0.97
1.27
1.56
1.80
1.95
2.04
2.15
2.37
2.72
3.21
3.77
4.35
4.91
5.40
5.81
6.13
6.30
6.32
6.17
5.90
5.59
5.32
5.12
4.99
4.84
4.59
4.21
3.76
3.30
2.90
2.55
2.16
1.67
1.00
0.19
-0.68
-1.51
-2.22
-2.85
-3.44
-4.07
-4.78
-5.55
-6.39
-7.33
-8.43
-9.70
-11.06
-12.33
-13.21
-13.42
-12.80
-11.40
-9.42
-7.15
-4.89
-2.82
-1.03
0.46
1.68
2.64
3.37
3.91
4.34
4.75
5.18
5.65
6.08
6.41
6.59
6.65
6.69
6.80
7.06
7.45
7.87
8.18
8.31
8.23
7.98
7.60
7.14
6.60
5.99
5.37
4.80
4.38
4.15
4.06
3.94
3.62
3.01
2.13
1.15
0.27
-0.37
-0.82
-1.19
-1.62
-2.16
-2.74
-3.25
-3.64
-3.96
-4.35
-4.96
-5.82
-6.86
-7.95
-9.02
-10.08
-11.18
-12.34
-13.37
-14.00
-13.89
-12.85
-10.95
-8.47
-5.87
-3.54
-1.74
-0.54
0.19
0.66
1.07
1.52
2.05
2.63
3.21
3.77
4.33
4.92
5.53
6.15
6.73
7.23
7.62
7.89
8.05
8.09
8.00
7.76
7.38
6.85
6.24
5.61
5.03
4.56
4.23
3.97
3.69
3.26
2.62
1.84
1.10
0.57
0.34
0.33
0.34
0.12
-0.51
-1.53
-2.78
-4.03
-5.08
-5.83
-6.37
-6.87
-7.54
-8.50
-9.75
-11.13
-12.39
-13.23
-13.42
-12.81
-11.41
-9.34
-6.85
-4.23
-1.76
0.33
1.90
2.94
3.57
3.97
4.33
4.77
5.29
5.81
6.21
6.44
6.55
6.68
6.96
7.44
8.05
8.66
9.13
9.41
9.53
9.56
9.53
9.44
9.23
8.87
8.33
7.65
6.90
6.15
5.47
4.92
4.51
4.20
3.91
3.57
3.11
2.56
1.98
1.42
0.88
0.30
-0.38
-1.20
-2.10
-2.99
-3.82
-4.59
-5.34
-6.11
-6.95
-7.88
-8.92
-10.16
-11.58
-13.13
-14.53
-15.44
-15.51
-14.55
-12.68
-10.20
-7.51
-4.98
-2.81
-1.07
0.25
1.20
1.85
2.33
2.77
3.30
3.95
4.66
5.31
5.79
6.09
6.33
6.66
7.19
7.89
8.64
9.26
9.61
9.66
9.46
9.11
8.69
8.21
7.67
7.04
6.35
5.67
5.05
4.53
4.10
3.70
3.28
2.80
2.27
1.75
1.28
0.88
0.50
0.06
-0.51
-1.23
-2.05
-2.89
-3.69
-4.44
-5.19
-6.01
-6.98
-8.13
-9.46
-10.93
-12.40
-13.69
-14.54
-14.71
-14.07
-12.63
-10.58
-8.20
-5.81
-3.65
-1.86
-0.49
0.55
1.36
2.10
2.85
3.62
4.35
4.92
5.30
5.51
5.67
5.92
6.34
6.91
7.50
7.94
8.13
8.07
7.78
7.37
6.93
6.52
6.16
5.83
5.48
5.07
4.54
3.89
3.16
2.43
1.76
1.21
0.78
0.43
0.10
-0.33
-0.96
-1.85
-3.01
-4.36
-5.76
-7.08
-8.24
-9.23
-10.16
-11.12
-12.20
-13.38
-14.60
-15.66
-16.37
-16.48
-15.81
-14.27
-11.92
-9.00
-5.85
-2.85
-0.33
1.53
2.74
3.44
3.88
4.28
4.80
5.47
6.24
7.03
7.74
8.35
8.89
9.41
9.94
10.46
10.93
11.29
11.53
11.64
11.64
11.55
11.37
11.07
10.61
9.97
9.16
8.24
7.28
6.36
5.55
4.84
4.22
3.64
3.06
2.46
1.86
1.29
0.76
0.25
-0.28
-0.87
-1.55
-2.28
-3.01
-3.70
-4.36
-5.05
-5.88
-6.96
-8.32
-9.94
-11.71
-13.51
-15.19
-16.54
-17.31
-17.27
-16.27
-14.28
-11.53
-8.37
-5.25
-2.55
-0.49
0.95
1.92
2.68
3.41
4.20
5.01
5.74
6.29
6.64
6.89
7.15
7.51
7.97
8.40
8.66
8.69
8.49
8.21
7.96
7.82
7.73
7.59
7.30
6.82
6.25
5.72
5.33
5.11
4.97
4.78
4.41
3.83
3.12
2.39
1.73
1.13
0.48
-0.35
-1.45
-2.74
-4.05
-5.14
-5.90
-6.37
-6.77
-7.42
-8.53
-10.11
-11.91
-13.51
-14.51
-14.64
-13.84
-12.28
-10.24
-7.99
-5.75
-3.69
-1.89
-0.41
0.74
1.63
2.31
2.89
3.42
3.93
4.42
4.89
5.37
5.88
6.42
6.97
7.45
7.82
8.03
8.09
8.02
7.88
7.69
7.51
7.36
7.28
7.25
7.20
7.00
6.57
5.85
4.91
3.90
2.96
2.21
1.67
1.26
0.86
0.33
-0.39
-1.28
-2.28
-3.28
-4.20
-4.96
-5.53
-5.95
-6.27
-6.61
-7.09
-7.78
-8.76
-9.99
-11.42
-12.90
-14.20
-15.06
-15.22
-14.53
-12.94
-10.63
-7.94
-5.25
-2.90
-1.06
0.32
1.42
2.47
3.61
4.85
6.08
7.11
7.82
8.19
8.31
8.34
8.43
8.64
8.98
9.38
9.77
10.08
10.26
10.32
10.28
10.13
9.88
9.54
9.11
8.64
8.18
7.76
7.41
7.07
6.68
6.19
5.62
5.04
4.52
4.08
3.71
3.32
2.90
2.45
2.02
1.64
1.25
0.77
0.14
-0.64
-1.52
-2.40
-3.20
-3.91
-4.57
-5.24
-5.95
-6.72
-7.57
-8.52
-9.58
-10.73
-11.90
-12.91
-13.55
-13.60
-12.93
-11.55
-9.60
-7.34
-5.09
-3.07
-1.40
-0.06
1.03
1.94
2.71
3.34
3.83
4.21
4.56
4.96
5.45
6.00
6.55
7.01
7.34
7.55
7.64
7.65
7.60
7.52
7.46
7.42
7.38
7.28
7.04
6.63
6.11
5.56
5.06
4.64
4.23
3.72
3.09
2.38
1.73
1.27
1.02
0.90
0.74
0.40
-0.15
-0.84
-1.55
-2.23
-2.84
-3.42
-4.00
-4.58
-5.17
-5.76
-6.40
-7.14
-8.02
-9.05
-10.13
-11.12
-11.82
-12.04
-11.67
-10.66
-9.15
-7.33
-5.44
-3.66
-2.08
-0.71
0.47
1.47
2.25
2.80
3.17
3.45
3.73
4.09
4.52
4.97
5.38
5.70
5.95
6.16
6.32
6.38
6.31
6.07
5.67
5.21
4.79
4.47
4.28
4.15
3.99
3.73
3.35
2.92
2.55
2.30
2.18
2.11
2.01
1.81
1.49
1.09
0.63
0.14
-0.40
-1.01
-1.68
-2.41
-3.11
-3.75
-4.29
-4.74
-5.15
-5.58
-6.05
-6.58
-7.16
-7.80
-8.51
-9.29
-10.11
-10.85
-11.32
-11.29
-10.61
-9.25
-7.36
-5.23
-3.13
-1.32
0.07
1.00
1.51
1.68
1.66
1.64
1.79
2.23
2.99
3.90
4.73
5.20
5.15
4.63
3.86
3.17
2.83
2.94
3.40
3.94
4.32
4.40
4.20
3.86
3.52
3.24
2.99
2.71
2.34
1.95
1.66
1.56
1.66
1.88
2.09
2.20
2.13
1.88
1.47
0.91
0.24
-0.49
-1.19
-1.75
-2.06
-2.16
-2.16
-2.24
-2.56
-3.16
-3.97
-4.80
-5.49
-5.95
-6.23
-6.52
-7.01
-7.85
-9.00
-10.26
-11.34
-11.94
-11.84
-11.01
-9.53
-7.64
-5.59
-3.62
-1.90
-0.52
0.51
1.21
1.67
1.98
2.29
2.69
3.27
4.03
4.89
5.68
6.21
6.37
6.16
5.74
5.33
5.11
5.12
5.28
5.38
5.27
4.89
4.32
3.73
3.26
2.95
2.72
2.41
1.94
1.36
0.81
0.47
0.41
0.53
0.67
0.68
0.49
0.20
-0.06
-0.22
-0.40
-0.78
-1.56
-2.74
-4.15
-5.46
-6.42
-6.89
-6.98
-6.88
-6.77
-6.78
-6.90
-7.17
-7.61
-8.29
-9.21
-10.24
-11.09
-11.42
-11.02
-9.81
-7.97
-5.86
-3.83
-2.16
-0.99
-0.30
0.04
0.22
0.38
0.64
1.03
1.51
2.02
2.47
2.78
2.97
3.06
3.15
3.30
3.58
3.99
4.48
4.99
5.42
5.68
5.69
5.40
4.78
3.93
3.00
2.21
1.72
1.58
1.67
1.75
1.62
1.18
0.51
-0.22
-0.84
-1.25
-1.47
-1.59
-1.73
-1.96
-2.31
-2.78
-3.38
-4.10
-4.89
-5.70
-6.44
-7.05
-7.54
-7.99
-8.56
-9.37
-10.40
-11.51
-12.38
-12.69
-12.22
-10.91
-8.93
-6.60
-4.25
-2.11
-0.28
1.25
2.55
3.66
4.57
5.22
5.62
5.78
5.80
5.75
5.70
5.67
5.66
5.69
5.80
6.03
6.44
6.96
7.49
7.86
7.90
7.56
6.87
5.93
4.91
3.92
3.06
2.35
1.76
1.28
0.87
0.52
0.21
-0.08
-0.36
-0.64
-0.93
-1.27
-1.71
-2.29
-3.01
-3.83
-4.65
-5.39
-5.97
-6.40
-6.78
-7.21
-7.84
-8.69
-9.74
-10.87
-11.90
-12.59
-12.76
-12.26
-11.07
-9.34
-7.34
-5.37
-3.72
-2.51
-1.75
-1.32
-1.06
-0.81
-0.50
-0.11
0.33
0.80
1.27
1.77
2.30
2.85
3.40
3.90
4.32
4.65
4.95
5.23
5.51
5.76
5.91
5.91
5.75
5.43
5.01
4.51
3.96
3.43
2.99
2.69
2.54
2.48
2.41
2.22
1.84
1.28
0.60
-0.13
-0.85
-1.52
-2.15
-2.77
-3.39
-3.99
-4.55
-5.04
-5.52
-6.09
-6.87
-7.95
-9.33
-10.85
-12.24
-13.21
-13.49
-12.93
-11.56
-9.52
-7.13
-4.70
-2.54
-0.85
0.35
1.16
1.75
2.29
2.85
3.42
3.91
4.24
4.39
4.42
4.43
4.51
4.70
4.98
5.32
5.70
6.11
6.58
7.11
7.64
8.04
8.19
7.98
7.41
6.58
5.67
4.84
4.19
3.72
3.37
3.05
2.66
2.13
1.44
0.61
-0.32
-1.31
-2.31
-3.32
-4.38
-5.56
-6.91
-8.41
-9.97
-11.40
-12.49
-13.01
-12.79
-11.79
-10.04
-7.70
-4.99
-2.19
0.43
2.65
4.33
5.42
6.00
6.25
6.34
6.41
6.55
6.75
6.97
7.18
7.34
7.44
7.49
7.50
7.54
7.66
7.88
8.16
8.37
8.35
7.98
7.25
6.26
5.19
4.21
3.43
2.88
2.52
2.27
2.05
1.79
1.42
0.88
0.13
-0.79
-1.82
-2.90
-3.96
-5.02
-6.12
-7.37
-8.82
-10.49
-12.24
-13.87
-15.08
-15.60
-15.27
-14.06
-12.11
-9.65
-6.96
-4.32
-1.94
0.03
1.51
2.53
3.21
3.73
4.26
4.92
5.75
6.67
7.60
8.43
9.05
9.45
9.61
9.62
9.57
9.59
9.75
10.07
10.42
10.62
10.54
10.14
9.50
8.79
8.18
7.75
7.47
7.26
7.02
6.69
6.24
5.68
5.04
4.33
3.61
2.89
2.20
1.46
0.61
-0.40
-1.56
-2.76
-3.89
-4.87
-5.73
-6.56
-7.52
-8.73
-10.20
-11.86
-13.50
-14.89
-15.75
-15.86
-15.08
-13.42
-11.07
-8.31
-5.52
-3.02
-1.01
0.48
1.53
2.31
3.00
3.69
4.45
5.28
6.19
7.16
8.15
9.08
9.86
10.41
10.69
10.75
10.71
10.68
10.77
10.97
11.17
11.23
11.00
10.44
9.63
8.72
7.86
7.18
6.73
6.43
6.20
5.90
5.46
4.85
4.10
3.28
2.44
1.66
0.94
0.29
-0.32
-0.96
-1.66
-2.46
-3.33
-4.24
-5.15
-6.05
-6.97
-8.00
-9.17
-10.47
-11.72
-12.66
-13.00
-12.55
-11.26
-9.27
-6.84
-4.30
-1.96
-0.05
1.31
2.15
2.62
2.97
3.39
4.00
4.76
5.54
6.15
6.52
6.68
6.74
6.83
6.98
7.18
7.35
7.44
7.47
7.46
7.43
7.37
7.23
6.95
6.56
6.12
5.74
5.50
5.39
5.33
5.19
4.90
4.40
3.75
3.03
2.33
1.69
1.15
0.69
0.25
-0.26
-0.89
-1.70
-2.67
-3.75
-4.83
-5.85
-6.83
-7.84
-8.97
-10.22
-11.45
-12.37
-12.66
-12.13
-10.80
-8.87
-6.67
-4.53
-2.65
-1.13
0.05
0.98
1.78
2.52
3.23
3.92
4.52
5.00
5.31
5.48
5.54
5.50
5.38
5.17
4.95
4.80
4.84
5.10
5.51
5.93
6.20
6.24
6.08
5.81
5.50
5.15
4.74
4.23
3.64
3.04
2.48
2.00
1.56
1.12
0.65
0.17
-0.28
-0.66
-1.00
-1.32
-1.64
-1.94
-2.19
-2.39
-2.60
-2.89
-3.36
-4.02
-4.80
-5.61
-6.35
-6.99
-7.54
-8.08
-8.66
-9.31
-9.95
-10.44
-10.59
-10.24
-9.29
-7.81
-5.98
-4.08
-2.37
-1.01
-0.03
0.67
1.22
1.77
2.36
2.98
3.58
4.08
4.44
4.64
4.69
4.63
4.52
4.48
4.57
4.84
5.26
5.75
6.20
6.50
6.60
6.48
6.22
5.86
5.45
5.01
4.54
4.02
3.45
2.82
2.11
1.34
0.56
-0.16
-0.70
-1.02
-1.15
-1.21
-1.34
-1.62
-2.06
-2.56
-3.05
-3.44
-3.74
-4.04
-4.40
-4.89
-5.52
-6.28
-7.11
-7.91
-8.51
-8.74
-8.47
-7.68
-6.51
-5.15
-3.83
-2.69
-1.76
-1.02
-0.43
-0.00
0.26
0.36
0.39
0.44
0.60
0.88
1.22
1.49
1.62
1.62
1.55
1.54
1.70
2.04
2.52
3.01
3.35
3.45
3.26
2.83
2.27
1.69
1.22
0.89
0.68
0.55
0.42
0.24
0.02
-0.22
-0.47
-0.69
-0.92
-1.17
-1.45
-1.76
-2.10
-2.44
-2.81
-3.19
-3.58
-3.96
-4.28
-4.53
-4.74
-4.97
-5.31
-5.85
-6.60
-7.44
-8.16
-8.50
-8.22
-7.24
-5.67
-3.81
-2.01
-0.59
0.31
0.76
0.97
1.14
1.38
1.68
1.97
2.16
2.24
2.25
2.24
2.26
2.30
2.33
2.35
2.37
2.42
2.50
2.55
2.54
2.44
2.25
2.01
1.75
1.50
1.28
1.11
0.99
0.94
0.93
0.92
0.83
0.62
0.22
-0.33
-0.99
-1.65
-2.18
-2.50
-2.56
-2.39
-2.12
-1.95
-2.01
-2.34
-2.86
-3.38
-3.74
-3.88
-3.85
-3.83
-3.95
-4.29
-4.80
-5.42
-6.05
-6.58
-6.94
-7.00
-6.67
-5.92
-4.81
-3.51
-2.29
-1.32
-0.70
-0.39
-0.26
-0.18
-0.03
0.23
0.61
1.07
1.55
1.96
2.25
2.41
2.48
2.50
2.50
2.51
2.50
2.51
2.56
2.68
2.87
3.04
3.07
2.86
2.43
1.88
1.37
1.03
0.91
0.95
1.00
0.94
0.69
0.27
-0.27
-0.84
-1.40
-1.93
-2.44
-2.92
-3.37
-3.78
-4.20
-4.71
-5.42
-6.40
-7.58
-8.72
-9.51
-9.68
-9.11
-7.91
-6.31
-4.58
-2.93
-1.47
-0.27
0.66
1.29
1.63
1.77
1.80
1.85
2.00
2.23
2.48
2.68
2.79
2.80
2.79
2.80
2.85
2.89
2.88
2.79
2.62
2.42
2.28
2.22
2.24
2.29
2.32
2.25
2.05
1.71
1.22
0.60
-0.12
-0.88
-1.58
-2.13
-2.50
-2.71
-2.86
-3.07
-3.43
-3.95
-4.60
-5.27
-5.90
-6.49
-7.06
-7.69
-8.44
-9.25
-10.01
-10.55
-10.70
-10.36
-9.50
-8.23
-6.69
-5.09
-3.62
-2.40
-1.47
-0.83
-0.41
-0.14
0.07
0.32
0.69
1.24
1.96
2.74
3.43
3.91
4.12
4.13
4.03
3.93
3.88
3.85
3.79
3.69
3.57
3.48
3.40
3.31
3.08
2.64
1.98
1.22
0.54
0.10
-0.03
0.06
0.22
0.27
0.11
-0.25
-0.72
-1.18
-1.54
-1.80
-2.00
-2.24
-2.63
-3.23
-4.06
-5.10
-6.30
-7.58
-8.84
-9.94
-10.66
-10.83
-10.29
-9.04
-7.25
-5.27
-3.44
-2.03
-1.11
-0.52
-0.02
0.61
1.44
2.37
3.23
3.90
4.35
4.67
4.98
5.34
5.72
6.02
6.16
6.13
5.99
5.85
5.82
5.90
6.04
6.13
6.07
5.81
5.34
4.69
3.93
3.17
2.49
1.97
1.59
1.29
0.97
0.53
-0.07
-0.77
-1.49
-2.15
-2.71
-3.18
-3.64
-4.21
-5.02
-6.16
-7.64
-9.27
-10.76
-11.72
-11.85
-11.06
-9.51
-7.57
-5.61
-3.94
-2.62
-1.57
-0.62
0.38
1.44
2.48
3.40
4.12
4.67
5.13
5.61
6.18
6.83
7.46
8.00
8.41
8.72
8.98
9.25
9.51
9.70
9.73
9.55
9.18
8.67
8.07
7.46
6.88
6.35
5.90
5.51
5.13
4.73
4.24
3.65
2.93
2.11
1.20
0.23
-0.76
-1.71
-2.58
-3.34
-4.00
-4.60
-5.22
-5.92
-6.80
-7.90
-9.25
-10.77
-12.26
-13.43
-13.96
-13.60
-12.27
-10.15
-7.59
-5.00
-2.72
-0.90
0.49
1.62
2.68
3.79
4.97
6.14
7.19
8.03
8.66
9.06
9.26
9.28
9.14
8.91
8.67
8.53
8.58
8.87
9.35
9.93
10.46
10.77
10.72
10.29
9.53
8.63
7.79
7.19
6.91
6.87
6.92
6.88
6.61
6.06
5.26
4.29
3.26
2.23
1.28
0.44
-0.25
-0.83
-1.37
-2.01
-2.85
-3.97
-5.28
-6.64
-7.86
-8.80
-9.50
-10.07
-10.74
-11.60
-12.61
-13.52
-13.97
-13.66
-12.45
-10.42
-7.88
-5.23
-2.83
-0.93
0.44
1.36
1.97
2.45
2.93
3.50
4.21
5.06
6.01
6.95
7.80
8.48
9.01
9.41
9.73
9.98
10.16
10.22
10.10
9.77
9.23
8.50
7.65
6.75
5.89
5.17
4.62
4.26
4.03
3.87
3.72
3.55
3.38
3.24
3.12
2.96
2.70
2.25
1.59
0.76
-0.13
-0.99
-1.77
-2.43
-3.01
-3.50
-3.92
-4.27
-4.59
-4.97
-5.53
-6.31
-7.28
-8.26
-8.99
-9.16
-8.59
-7.26
-5.34
-3.18
-1.15
0.44
1.46
1.97
2.18
2.34
2.68
3.28
4.08
4.90
5.58
6.03
6.27
6.44
6.67
6.98
7.29
7.42
7.22
6.67
5.90
5.15
4.61
4.35
4.30
4.27
4.08
3.65
3.02
2.34
1.76
1.41
1.32
1.41
1.56
1.60
1.47
1.15
0.75
0.41
0.23
0.22
0.28
0.26
0.02
-0.48
-1.15
-1.88
-2.55
-3.14
-3.70
-4.31
-5.01
-5.77
-6.54
-7.29
-8.01
-8.72
-9.37
-9.82
-9.88
-9.38
-8.30
-6.78
-5.10
-3.50
-2.17
-1.11
-0.24
0.55
1.35
2.16
2.90
3.49
3.86
4.00
3.96
3.82
3.66
3.50
3.37
3.27
3.19
3.12
3.10
3.13
3.25
3.44
3.66
3.84
3.89
3.76
3.43
2.98
2.50
2.10
1.85
1.73
1.68
1.62
1.49
1.27
0.97
0.61
0.21
-0.22
-0.66
-1.12
-1.60
-2.11
-2.67
-3.27
-3.90
-4.51
-5.03
-5.42
-5.67
-5.83
-5.98
-6.19
-6.53
-6.97
-7.48
-8.01
-8.47
-8.79
-8.90
-8.71
-8.22
-7.46
-6.48
-5.39
-4.24
-3.12
-2.08
-1.17
-0.43
0.14
0.63
1.13
1.69
2.27
2.75
3.01
3.00
2.78
2.52
2.38
2.46
2.76
3.15
3.52
3.74
3.77
3.61
3.30
2.93
2.56
2.26
2.04
1.89
1.78
1.67
1.52
1.32
1.06
0.76
0.47
0.23
0.03
-0.13
-0.30
-0.55
-0.90
-1.38
-1.94
-2.57
-3.22
-3.88
-4.50
-5.06
-5.49
-5.79
-5.97
-6.12
-6.36
-6.77
-7.35
-7.95
-8.32
-8.20
-7.42
-6.01
-4.21
-2.35
-0.77
0.35
0.96
1.18
1.19
1.14
1.13
1.21
1.35
1.55
1.81
2.11
2.47
2.85
3.24
3.57
3.84
4.03
4.14
4.19
4.14
3.98
3.71
3.35
2.96
2.57
2.16
1.70
1.17
0.62
0.13
-0.23
-0.44
-0.56
-0.70
-0.91
-1.18
-1.46
-1.73
-2.00
-2.33
-2.76
-3.26
-3.79
-4.31
-4.87
-5.53
-6.36
-7.34
-8.37
-9.31
-10.11
-10.84
-11.63
-12.61
-13.81
-15.17
-16.54
-17.79
-18.80
-19.52
-19.96
-20.14
-20.15
-20.10
-20.10
-20.22
-20.47
-20.82
-21.25
-21.77
-22.43
-23.28
-24.34
-25.47
-26.43
-26.93
-26.68
-25.57
-23.66
-21.17
-18.41
-15.58
-12.65
-9.41
-5.43
-0.29
6.24
14.11
22.93
32.12
41.10
49.56
57.45
65.05
72.69
80.54
88.48
96.01
102.37
106.58
107.62
104.55
96.84
84.63
68.96
51.57
34.56
19.69
7.90
-0.89
-7.46
-12.77
-17.53
-21.96
-25.97
-29.40
-32.27
-34.78
-37.17
-39.51
-41.65
-43.25
-43.97
-43.62
-42.24
-40.11
-37.62
-35.10
-32.76
-30.61
-28.53
-26.36
-24.03
-21.61
-19.25
-17.17
-15.44
-14.04
-12.78
-11.46
-9.98
-8.36
-6.73
-5.24
-3.95
-2.83
-1.77
-0.70
0.41
1.48
2.39
3.05
3.44
3.56
3.48
3.26
2.97
2.66
2.36
2.08
1.84
1.65
1.49
1.35
1.17
0.89
0.46
-0.11
-0.76
-1.39
-1.98
-2.58
-3.32
-4.33
-5.60
-6.98
-8.24
-9.17
-9.71
-10.02
-10.42
-11.21
-12.51
-14.22
-15.97
-17.32
-17.87
-17.40
-15.93
-13.64
-10.90
-8.09
-5.50
-3.33
-1.58
-0.18
1.01
2.10
3.16
4.18
5.17
6.11
7.00
7.81
8.52
9.08
9.48
9.80
10.19
10.77
11.59
12.54
13.44
14.07
14.30
14.15
13.72
13.13
12.48
11.78
11.05
10.30
9.59
8.97
8.44
7.91
7.29
6.49
5.54
4.50
3.45
2.44
1.46
0.48
-0.53
-1.53
-2.48
-3.35
-4.18
-5.05
-6.05
-7.27
-8.72
-10.29
-11.83
-13.08
-13.79
-13.76
-12.88
-11.22
-8.98
-6.44
-3.91
-1.63
0.28
1.81
3.07
4.19
5.30
6.42
7.47
8.37
9.00
9.36
9.53
9.63
9.77
9.96
10.19
10.38
10.54
10.68
10.84
11.04
11.20
11.18
10.85
10.12
9.07
7.85
6.70
5.79
5.21
4.92
4.79
4.65
4.38
3.91
3.25
2.46
1.64
0.87
0.18
-0.45
-1.11
-1.88
-2.85
-4.10
-5.60
-7.29
-8.96
-10.34
-11.16
-11.18
-10.34
-8.77
-6.72
-4.50
-2.36
-0.40
1.34
2.84
4.13
5.15
5.89
6.38
6.69
6.93
7.18
7.49
7.85
8.25
8.68
9.14
9.60
10.01
10.32
10.43
10.35
10.07
9.66
9.14
8.53
7.81
7.01
6.18
5.43
4.82
4.40
4.09
3.80
3.42
2.87
2.11
1.12
-0.08
-1.41
-2.75
-3.95
-4.87
-5.47
-5.86
-6.21
-6.74
-7.58
-8.74
-10.07
-11.30
-12.17
-12.41
-11.91
-10.66
-8.82
-6.65
-4.44
-2.47
-0.89
0.25
1.01
1.54
1.97
2.39
2.86
3.38
3.95
4.54
5.12
5.66
6.11
6.45
6.68
6.86
7.04
7.27
7.54
7.76
7.87
7.79
7.54
7.12
6.60
6.05
5.53
5.09
4.76
4.53
4.36
4.18
3.94
3.61
3.22
2.77
2.28
1.71
1.03
0.26
-0.55
-1.28
-1.88
-2.34
-2.76
-3.25
-3.90
-4.74
-5.69
-6.69
-7.68
-8.67
-9.68
-10.76
-11.85
-12.80
-13.37
-13.34
-12.56
-11.07
-9.06
-6.83
-4.71
-2.93
-1.61
-0.72
-0.16
0.24
0.63
1.12
1.74
2.42
3.08
3.61
3.97
4.17
4.30
4.42
4.57
4.75
4.95
5.12
5.26
5.33
5.26
4.99
4.49
3.81
3.07
2.41
1.92
1.61
1.37
1.14
0.83
0.46
0.07
-0.27
-0.57
-0.85
-1.16
-1.54
-1.98
-2.41
-2.78
-3.06
-3.32
-3.64
-4.14
-4.86
-5.77
-6.75
-7.68
-8.42
-8.85
-8.83
-8.28
-7.14
-5.48
-3.46
-1.37
0.46
1.83
2.67
3.11
3.36
3.60
3.91
4.24
4.47
4.52
4.40
4.20
4.08
4.11
4.28
4.51
4.64
4.60
4.39
4.07
3.76
3.50
3.26
2.99
2.60
2.10
1.54
1.02
0.62
0.35
0.20
0.11
0.01
-0.14
-0.39
-0.77
-1.31
-2.00
-2.80
-3.64
-4.42
-5.08
-5.59
-5.98
-6.31
-6.67
-7.16
-7.85
-8.76
-9.85
-10.95
-11.83
-12.26
-12.06
-11.15
-9.64
-7.70
-5.63
-3.66
-2.00
-0.74
0.15
0.74
1.12
1.39
1.64
1.96
2.40
2.93
3.52
4.07
4.48
4.70
4.76
4.74
4.72
4.78
4.93
5.14
5.36
5.51
5.55
5.51
5.41
5.34
5.36
5.47
5.61
5.64
5.45
5.03
4.49
3.98
3.59
3.33
3.07
2.65
1.94
0.97
-0.14
-1.21
-2.12
-2.82
-3.33
-3.71
-3.98
-4.15
-4.24
-4.31
-4.50
-4.93
-5.74
-6.93
-8.38
-9.86
-11.13
-11.94
-12.15
-11.74
-10.76
-9.37
-7.74
-6.08
-4.53
-3.22
-2.18
-1.36
-0.70
-0.11
0.44
0.95
1.37
1.66
1.85
1.97
2.09
2.25
2.47
2.75
3.07
3.43
3.79
4.10
4.25
4.15
3.78
3.16
2.39
1.61
0.94
0.44
0.10
-0.14
-0.36
-0.58
-0.80
-1.06
-1.36
-1.77
-2.30
-2.95
-3.64
-4.23
-4.62
-4.81
-4.88
-4.99
-5.29
-5.87
-6.71
-7.66
-8.51
-9.01
-8.96
-8.28
-6.99
-5.27
-3.34
-1.45
0.21
1.54
2.48
3.03
3.22
3.12
2.88
2.67
2.66
2.94
3.47
4.10
4.66
4.98
5.03
4.83
4.51
4.23
4.10
4.17
4.43
4.78
5.11
5.37
5.51
5.53
5.46
5.32
5.14
4.93
4.70
4.47
4.23
3.96
3.61
3.13
2.48
1.67
0.78
-0.07
-0.75
-1.19
-1.43
-1.57
-1.76
-2.13
-2.74
-3.54
-4.44
-5.28
-5.94
-6.34
-6.48
-6.45
-6.40
-6.49
-6.86
-7.51
-8.32
-9.07
-9.48
-9.34
-8.56
-7.20
-5.44
-3.52
-1.69
-0.14
1.05
1.89
2.43
2.77
3.01
3.22
3.47
3.79
4.17
4.55
4.83
4.93
4.82
4.54
4.22
4.00
3.95
4.06
4.23
4.31
4.20
3.91
3.53
3.21
3.03
3.02
3.10
3.13
3.02
2.75
2.38
2.05
1.82
1.71
1.66
1.57
1.37
1.08
0.72
0.32
-0.13
-0.64
-1.21
-1.78
-2.29
-2.65
-2.89
-3.08
-3.38
-3.90
-4.69
-5.67
-6.73
-7.75
-8.69
-9.60
-10.52
-11.42
-12.17
-12.55
-12.32
-11.37
-9.80
-7.87
-5.93
-4.30
-3.09
-2.21
-1.45
-0.63
0.34
1.37
2.30
2.96
3.32
3.46
3.54
3.74
4.12
4.64
5.16
5.54
5.69
5.68
5.64
5.72
5.98
6.33
6.59
6.54
6.10
5.33
4.44
3.69
3.23
3.05
3.01
2.94
2.73
2.41
2.08
1.85
1.80
1.86
1.90
1.76
1.33
0.57
-0.46
-1.62
-2.76
-3.74
-4.50
-5.03
-5.39
-5.67
-5.98
-6.43
-7.06
-7.91
-8.91
-9.96
-10.79
-11.14
-10.72
-9.43
-7.38
-4.91
-2.48
-0.47
0.93
1.81
2.40
2.92
3.51
4.12
4.67
5.06
5.32
5.51
5.71
5.95
6.20
6.40
6.52
6.62
6.73
6.92
7.16
7.40
7.54
7.51
7.29
6.92
6.45
5.95
5.46
4.97
4.52
4.13
3.84
3.68
3.61
3.55
3.39
3.04
2.49
1.83
1.16
0.59
0.14
-0.20
-0.49
-0.79
-1.12
-1.46
-1.83
-2.20
-2.57
-2.92
-3.25
-3.59
-4.00
-4.55
-5.23
-6.02
-6.86
-7.74
-8.64
-9.56
-10.40
-10.98
-11.06
-10.46
-9.16
-7.35
-5.31
-3.36
-1.70
-0.42
0.53
1.21
1.71
2.06
2.32
2.54
2.76
2.99
3.25
3.52
3.81
4.09
4.35
4.57
4.74
4.88
5.02
5.14
5.21
5.14
4.90
4.51
4.11
3.85
3.84
4.09
4.46
4.77
4.81
4.50
3.86
3.01
2.15
1.45
1.01
0.86
0.93
1.06
1.06
0.76
0.13
-0.80
-1.90
-3.05
-4.17
-5.22
-6.24
-7.25
-8.25
-9.22
-10.10
-10.78
-11.16
-11.13
-10.61
-9.59
-8.14
-6.39
-4.49
-2.63
-0.93
0.51
1.65
2.49
3.07
3.44
3.65
3.78
3.87
3.96
4.10
4.28
4.49
4.71
4.92
5.11
5.34
5.62
5.96
6.29
6.52
6.58
6.41
6.05
5.55
4.98
4.41
3.89
3.45
3.07
2.71
2.30
1.76
1.07
0.33
-0.31
-0.73
-0.88
-0.85
-0.82
-0.99
-1.44
-2.13
-2.97
-3.89
-4.81
-5.73
-6.66
-7.59
-8.57
-9.63
-10.82
-12.12
-13.41
-14.40
-14.81
-14.39
-13.09
-11.06
-8.62
-6.16
-3.98
-2.30
-1.17
-0.51
-0.19
-0.04
0.10
0.36
0.79
1.39
2.14
2.98
3.82
4.60
5.22
5.63
5.84
5.94
6.05
6.24
6.51
6.78
6.91
6.78
6.38
5.76
5.04
4.33
3.71
3.22
2.85
2.61
2.47
2.41
2.37
2.29
2.12
1.84
1.48
1.10
0.76
0.45
0.12
-0.33
-0.97
-1.80
-2.75
-3.67
-4.48
-5.11
-5.62
-6.07
-6.60
-7.27
-8.11
-9.12
-10.20
-11.18
-11.87
-12.03
-11.50
-10.24
-8.39
-6.19
-3.95
-1.92
-0.24
1.09
2.11
2.88
3.46
3.87
4.14
4.35
4.60
5.00
5.54
6.15
6.73
7.20
7.58
7.95
8.43
9.05
9.74
10.34
10.72
10.79
10.56
10.10
9.45
8.61
7.61
6.47
5.32
4.30
3.54
3.05
2.75
2.46
2.01
1.30
0.31
-0.90
-2.21
-3.48
-4.62
-5.56
-6.32
-6.96
-7.63
-8.53
-9.77
-11.38
-13.16
-14.75
-15.73
-15.77
-14.75
-12.81
-10.29
-7.60
-5.12
-3.06
-1.52
-0.40
0.43
1.13
1.80
2.47
3.12
3.72
4.28
4.86
5.52
6.31
7.17
8.04
8.81
9.44
9.93
10.29
10.51
10.53
10.32
9.86
9.26
8.65
8.15
7.79
7.51
7.22
6.83
6.32
5.68
4.97
4.18
3.34
2.45
1.53
0.63
-0.25
-1.08
-1.92
-2.79
-3.69
-4.64
-5.63
-6.68
-7.85
-9.23
-10.79
-12.47
-14.00
-15.08
-15.38
-14.70
-13.07
-10.74
-8.06
-5.45
-3.19
-1.41
-0.05
1.00
1.89
2.71
3.46
4.11
4.64
5.08
5.51
6.02
6.65
7.36
8.07
8.62
8.93
8.99
8.86
8.66
8.47
8.27
8.03
7.72
7.33
6.92
6.56
6.25
5.95
5.61
5.18
4.69
4.23
3.89
3.67
3.52
3.31
2.96
2.43
1.75
0.94
0.04
-0.97
-2.07
-3.24
-4.41
-5.49
-6.44
-7.28
-8.13
-9.12
-10.40
-12.00
-13.82
-15.57
-16.89
-17.41
-16.86
-15.19
-12.59
-9.39
-5.99
-2.76
0.06
2.37
4.15
5.48
6.42
7.08
7.52
7.81
8.01
8.18
8.36
8.59
8.84
9.07
9.24
9.37
9.50
9.70
10.00
10.35
10.63
10.64
10.26
9.44
8.30
7.05
5.93
5.07
4.52
4.12
3.72
3.14
2.31
1.29
0.20
-0.82
-1.70
-2.44
-3.13
-3.87
-4.76
-5.88
-7.25
-8.81
-10.45
-11.96
-13.09
-13.56
-13.19
-11.93
-9.90
-7.36
-4.66
-2.12
0.03
1.69
2.92
3.86
4.68
5.50
6.34
7.13
7.77
8.17
8.36
8.42
8.48
8.65
8.93
9.25
9.55
9.78
9.95
10.09
10.20
10.20
9.98
9.44
8.63
7.70
6.85
6.24
5.88
5.66
5.42
5.05
4.54
3.95
3.36
2.81
2.27
1.67
0.96
0.10
-0.85
-1.84
-2.82
-3.72
-4.56
