1650346947.00
64.000000
-0.00
-0.00
-0.00
-0.00
-0.00
-0.00
-0.00
-0.00
-0.00
-0.00
0.00
0.01
0.01
-0.00
-0.03
-0.05
-0.05
0.00
0.13
0.36
0.66
1.01
1.37
1.72
2.06
2.40
2.79
3.24
3.80
4.42
5.06
5.66
6.20
6.68
7.15
7.68
8.31
9.14
10.09
11.04
11.88
12.56
13.14
13.76
14.65
15.96
17.91
20.32
22.90
25.38
27.58
29.57
31.68
34.32
37.81
42.54
48.15
54.10
59.83
64.97
69.58
74.14
79.34
85.71
93.76
103.00
112.62
121.73
129.77
136.75
143.30
150.75
157.77
166.64
177.95
191.79
206.97
220.57
228.25
225.36
208.53
176.87
132.76
80.05
23.07
-34.94
-92.44
-149.16
-205.23
-260.37
-313.74
-363.87
-409.83
-450.91
-486.50
-515.74
-537.23
-549.22
-549.96
-538.37
-514.21
-478.67
-433.88
-382.45
-327.02
-269.84
-212.63
-156.66
-102.95
-52.37
-5.90
35.58
71.43
101.35
125.50
144.38
158.69
169.15
176.37
180.75
182.57
182.07
179.51
175.23
169.65
163.18
156.15
148.81
141.30
133.69
126.02
118.33
110.69
103.16
95.80
88.68
81.83
75.25
68.95
62.95
57.25
51.86
46.78
42.03
37.58
33.45
29.61
26.08
22.83
19.85
17.13
14.65
12.41
10.41
8.64
7.10
5.80
4.71
3.79
3.01
2.34
1.76
1.25
0.83
0.50
0.27
0.11
-0.01
-0.14
-0.31
-0.52
-0.76
-0.98
-1.11
-1.15
-1.10
-1.04
-1.06
-1.24
-1.60
-2.06
-2.49
-2.77
-2.82
-2.69
-2.54
-2.57
-2.94
-3.67
-4.62
-5.53
-6.15
-6.34
-6.18
-5.95
-5.99
-6.58
-7.75
-9.27
-10.74
-11.77
-12.18
-12.05
-11.71
-11.56
-11.92
-12.97
-14.79
-17.30
-20.12
-22.44
-23.11
-20.95
-15.37
-6.77
3.37
13.05
20.50
24.92
26.62
26.63
26.03
25.44
24.84
23.97
22.72
21.40
20.64
21.04
22.88
25.91
29.53
32.94
35.57
37.12
37.57
37.02
35.61
33.36
30.21
26.22
21.25
15.49
9.27
3.09
-2.53
-7.20
-10.78
-13.40
-15.41
-17.15
-18.76
-20.13
-20.94
-20.93
-20.07
-18.62
-17.04
-15.75
-15.04
-14.90
-15.15
-15.43
-15.44
-14.86
-13.50
-11.31
-8.45
-5.26
-2.16
0.47
2.42
3.67
4.34
4.55
4.38
3.84
2.92
1.69
0.34
-0.90
-1.82
-2.33
-2.43
-2.22
-1.81
-1.30
-0.82
-0.40
-0.03
0.34
0.76
1.23
1.71
2.06
2.16
1.82
0.95
-0.39
-1.93
-3.24
-3.82
-3.33
-1.68
1.39
5.58
10.38
15.27
19.82
23.79
27.00
29.26
30.38
30.22
28.76
26.24
23.06
19.69
16.42
13.36
10.47
7.67
4.94
2.28
-0.25
-2.60
-4.75
-6.74
-8.60
-10.35
-12.06
-13.79
-15.71
-17.98
-20.67
-23.68
-26.63
-28.99
-30.12
-29.58
-27.19
-23.15
-17.92
-12.13
-6.37
-1.12
3.24
6.52
8.66
9.75
10.10
10.18
10.44
11.13
12.09
12.71
12.23
10.04
6.17
1.29
-3.52
-7.27
-9.51
-10.48
-10.89
-11.51
-12.87
-15.09
-18.07
-21.62
-25.54
-29.55
-33.18
-35.88
-37.21
-37.01
-35.37
-32.45
-28.21
-22.41
-14.63
-4.64
7.26
19.94
31.37
39.16
41.26
36.80
26.60
13.07
-0.48
-10.94
-16.39
-16.61
-12.90
-7.32
-1.91
1.86
3.21
1.87
-2.08
-8.26
-15.99
-24.35
-32.35
-39.29
-44.95
-49.67
-54.18
-59.18
-64.89
-70.75
-75.55
-77.84
-76.45
-70.87
-61.47
-49.30
-35.74
-22.21
-9.85
0.52
8.41
13.61
16.16
16.33
14.61
11.67
8.23
4.87
1.91
-0.68
-3.18
-5.94
-9.21
-12.92
-16.81
-20.55
-23.95
-27.17
-30.58
-34.69
-39.87
-46.29
-53.81
-62.00
-70.18
-77.39
-82.51
-84.48
-82.49
-76.33
-66.39
-53.61
-39.16
-24.11
-9.29
4.69
17.29
27.95
36.18
41.66
44.45
45.04
44.21
42.76
41.31
40.05
38.87
37.43
35.48
32.96
30.03
26.99
24.03
21.07
17.74
13.48
7.70
0.04
-9.54
-20.63
-32.32
-43.29
-51.93
-56.74
-56.61
-51.18
-40.93
-26.97
-10.76
6.30
22.99
38.40
51.80
62.53
70.16
74.45
75.56
74.04
70.70
66.51
62.29
58.55
55.38
52.49
49.36
45.56
40.99
35.94
30.88
26.23
22.03
17.85
12.98
6.61
-1.82
-12.41
-24.71
-37.55
-49.20
-57.61
-60.93
-58.06
-49.03
-35.01
-17.90
0.32
18.11
34.53
49.10
61.42
71.02
77.34
80.09
79.45
76.18
71.38
66.11
61.10
56.62
52.52
48.41
43.98
39.10
33.86
28.53
23.39
18.60
14.10
9.63
4.82
-0.73
-7.42
-15.51
-24.99
-35.43
-45.77
-54.38
-59.41
-59.29
-53.32
-41.87
-26.39
-8.76
9.19
26.12
41.25
54.14
64.37
71.50
75.16
75.33
72.51
67.67
61.97
56.42
51.58
47.51
43.88
40.21
36.15
31.55
26.57
21.50
16.66
12.20
8.07
3.99
-0.47
-5.81
-12.47
-20.67
-30.23
-40.41
-49.92
-57.02
-60.05
-57.87
-50.27
-38.08
-22.85
-6.38
9.76
24.47
37.06
47.05
53.97
57.46
57.39
54.10
48.46
41.64
34.81
28.77
23.82
19.71
15.94
12.01
7.69
3.09
-1.39
-5.31
-8.45
-10.97
-13.43
-16.64
-21.38
-28.15
-36.89
-46.92
-56.93
-65.23
-70.09
-70.16
-64.89
-54.66
-40.70
-24.65
-8.18
7.38
21.16
32.54
41.09
46.36
48.08
46.30
41.56
34.84
27.32
20.02
13.53
7.90
2.76
-2.41
-7.95
-13.92
-20.12
-26.22
-32.01
-37.50
-42.96
-48.87
-55.76
-64.13
-74.23
-85.83
-98.01
-109.07
-116.80
-118.94
-113.92
-101.31
-82.02
-57.97
-31.52
-4.84
20.43
43.22
62.79
78.45
89.65
96.00
97.61
95.21
90.04
83.49
76.75
70.47
64.65
58.92
52.81
46.12
39.01
31.91
25.29
19.38
14.04
8.78
2.88
-4.42
-13.67
-25.04
-38.08
-51.57
-63.59
-71.85
-74.32
-69.80
-58.40
-41.53
-21.41
-0.42
19.49
37.08
51.76
63.24
71.32
75.72
76.29
73.19
67.08
59.04
50.35
42.14
35.05
29.12
23.95
18.92
13.60
7.92
2.19
-3.09
-7.55
-11.16
-14.31
-17.72
-22.18
-28.39
-36.75
-47.18
-58.93
-70.51
-79.81
-84.49
-82.62
-73.38
-57.37
-36.54
-13.52
9.13
29.50
46.57
59.98
69.71
75.71
77.94
76.49
71.80
64.73
56.44
48.15
40.78
34.77
30.00
25.93
21.94
17.64
13.01
8.39
4.16
0.54
-2.66
-5.98
-10.07
-15.54
-22.78
-31.99
-43.03
-55.28
-67.39
-77.35
-82.79
-81.70
-73.14
-57.70
-37.37
-14.89
7.13
26.80
43.14
55.81
64.72
69.74
70.71
67.74
61.41
52.83
43.46
34.66
27.35
21.78
17.54
13.90
10.20
6.13
1.83
-2.27
-5.75
-8.47
-10.72
-13.14
-16.46
-21.35
-28.26
-37.29
-48.08
-59.63
-70.23
-77.71
-79.89
-75.23
-63.48
-45.80
-24.48
-2.25
18.52
36.23
50.13
60.02
65.94
67.96
66.24
61.22
53.71
44.88
36.00
28.13
21.82
17.05
13.33
9.95
6.32
2.18
-2.31
-6.73
-10.69
-14.06
-17.10
-20.42
-24.76
-30.81
-38.98
-49.24
-60.91
-72.58
-82.12
-87.13
-85.51
-76.28
-59.96
-38.55
-14.87
8.24
28.67
45.30
57.84
66.40
71.12
72.08
69.48
63.80
55.98
47.22
38.71
31.35
25.49
20.98
17.34
14.03
10.64
7.03
3.31
-0.36
-3.87
-7.31
-10.91
-15.06
-20.14
-26.52
-34.50
-44.28
-55.74
-68.17
-80.03
-89.07
-92.79
-89.23
-77.77
-59.39
-36.48
-12.02
11.26
31.53
47.93
60.35
68.92
73.83
75.22
73.33
68.70
62.13
54.62
47.12
40.39
34.84
30.49
27.02
23.97
20.87
17.44
13.60
9.44
5.08
0.54
-4.21
-9.28
-14.79
-20.87
-27.77
-35.86
-45.51
-56.68
-68.48
-79.01
-85.69
-86.03
-78.62
-63.74
-43.36
-20.43
2.09
22.02
38.32
50.81
59.69
65.19
67.33
66.19
62.05
55.56
47.71
39.60
32.21
26.17
21.66
18.46
16.05
13.86
11.43
8.54
5.16
1.42
-2.55
-6.65
-10.90
-15.35
-20.17
-25.64
-32.17
-40.21
-49.98
-61.07
-72.14
-81.00
-85.13
-82.54
-72.57
-56.17
-35.67
-13.89
6.67
24.41
38.64
49.28
56.37
59.93
59.98
56.75
50.86
43.31
35.28
27.83
21.73
17.23
14.11
11.85
9.84
7.66
5.20
2.62
0.19
-1.97
-4.01
-6.29
-9.24
-13.14
-18.15
-24.31
-31.73
-40.43
-50.10
-59.78
-67.72
-71.70
-69.78
-61.03
-46.03
-26.73
-5.82
14.14
31.34
44.92
54.77
61.11
64.18
64.13
61.18
55.73
48.46
40.32
32.29
25.24
19.70
15.75
13.10
11.21
9.49
7.47
4.90
1.68
-2.12
-6.42
-11.11
-16.12
-21.39
-26.95
-32.94
-39.72
-47.74
-57.29
-68.09
-78.96
-87.81
-92.13
-89.79
-79.87
-63.11
-41.72
-18.65
3.31
22.26
37.34
48.54
56.18
60.59
62.00
60.64
56.92
51.45
45.04
38.48
32.41
27.26
23.16
20.06
17.71
15.77
13.88
11.70
9.04
5.82
2.07
-2.09
-6.60
-11.42
-16.54
-22.05
-28.11
-35.02
-43.18
-52.76
-63.29
-73.39
-80.80
-82.98
-78.07
-65.64
-47.01
-24.79
-1.92
19.20
37.26
51.89
63.26
71.54
76.74
78.84
78.05
74.94
70.41
65.36
60.45
55.98
51.88
47.93
43.90
39.64
35.06
30.07
24.52
18.28
11.32
3.77
-4.08
-11.85
-19.22
-26.10
-32.58
-38.99
-45.87
-53.76
-62.99
-73.26
-83.41
-91.48
-95.17
-92.68
-83.44
-68.43
-49.83
-30.31
-12.13
3.32
15.57
24.71
30.89
34.16
34.49
32.02
27.23
20.97
14.27
8.08
3.08
-0.45
-2.59
-3.70
-4.19
-4.45
-4.70
-4.99
-5.32
-5.65
-5.99
-6.42
-7.14
-8.44
-10.63
-14.07
-19.04
-25.63
-33.53
-41.81
-48.96
-53.05
-52.29
-45.68
-33.37
-16.79
1.83
20.10
36.15
48.94
58.19
64.07
66.81
66.56
63.48
57.88
50.41
41.99
33.63
26.22
20.26
15.86
12.72
10.34
8.16
5.71
2.74
-0.81
-4.83
-9.15
-13.64
-18.27
-23.12
-28.38
-34.28
-41.13
-49.20
-58.51
-68.53
-77.96
-84.80
-86.81
-82.32
-70.89
-53.62
-32.90
-11.61
7.80
23.84
36.08
44.76
50.34
53.13
53.25
50.85
46.31
40.28
33.62
27.15
21.53
17.06
13.76
11.41
9.64
8.05
6.27
4.03
1.20
-2.18
-5.97
-10.02
-14.29
-18.84
-23.90
-29.76
-36.80
-45.31
-55.26
-66.04
-76.23
-83.73
-86.26
-82.07
-70.70
-53.23
-31.99
-9.82
10.77
28.13
41.62
51.28
57.47
60.55
60.85
58.68
54.48
48.85
42.45
36.02
30.17
25.35
21.72
19.14
17.20
15.43
13.40
10.94
8.05
4.83
1.38
-2.33
-6.41
-11.00
-16.24
-22.28
-29.32
-37.61
-47.16
-57.43
-67.08
-74.07
-76.17
-71.77
-60.58
-43.81
-23.83
-3.40
15.18
30.56
42.33
50.63
55.77
57.86
56.95
53.19
47.09
39.60
31.92
25.19
20.17
16.98
15.12
13.75
12.02
9.48
6.18
2.54
-0.89
-3.84
-6.38
-8.95
-12.10
-16.29
-21.81
-28.85
-37.42
-47.24
-57.47
-66.56
-72.39
-72.87
-66.65
-53.77
-35.73
-15.05
5.56
23.96
38.95
50.17
57.80
62.09
63.24
61.43
57.00
50.52
42.81
34.81
27.42
21.41
17.21
14.91
14.15
14.29
14.52
14.07
12.45
9.51
5.41
0.50
-4.82
-10.32
-15.93
-21.82
-28.33
-35.92
-44.94
-55.39
-66.48
-76.56
-83.30
-84.36
-78.22
-64.82
-45.70
-23.54
-1.28
18.66
34.88
46.93
54.99
59.44
60.64
58.95
54.80
48.82
41.84
34.72
28.25
22.98
19.17
16.72
15.26
14.28
13.27
11.87
9.87
7.25
4.06
0.41
-3.62
-8.01
-12.80
-18.12
-24.22
-31.49
-40.28
-50.59
-61.71
-72.04
-79.25
-80.95
-75.46
-62.57
-43.73
-21.56
0.92
21.23
37.90
50.52
59.34
64.81
67.29
67.00
64.17
59.22
52.82
45.77
38.88
32.78
27.79
23.96
21.10
18.91
17.03
15.15
12.98
10.34
7.10
3.22
-1.30
-6.38
-11.95
-17.94
-24.45
-31.67
-39.93
-49.37
-59.58
-69.35
-76.67
-79.23
-75.24
-64.17
-47.12
-26.51
-5.24
14.16
30.17
42.27
50.62
55.58
57.41
56.22
52.20
45.79
37.76
29.18
21.12
14.55
10.00
7.56
6.84
7.14
7.71
7.89
7.30
5.86
3.66
0.85
-2.51
-6.46
-11.13
-16.67
-23.28
-31.20
-40.63
-51.53
-63.26
-74.33
-82.49
-85.27
-80.84
-68.72
-50.12
-27.57
-4.10
17.63
35.89
49.97
59.83
65.73
67.96
66.90
63.06
57.19
50.22
43.02
36.29
30.40
25.47
21.47
18.30
15.89
14.13
12.81
11.52
9.73
6.92
2.73
-2.86
-9.55
-16.78
-23.99
-30.83
-37.36
-44.03
-51.62
-60.89
-72.07
-84.41
-96.02
-104.11
-105.83
-99.24
-84.08
-61.96
-35.81
-8.92
15.93
37.05
53.76
66.01
74.02
78.05
78.48
75.92
71.26
65.49
59.49
53.85
48.84
44.46
40.66
37.49
35.07
33.52
32.73
32.31
31.55
29.66
26.08
20.67
13.80
6.18
-1.46
-8.62
-15.25
-21.74
-28.82
-37.26
-47.58
-59.52
-71.82
-82.20
-87.93
-86.61
-77.14
-60.14
-37.79
-13.10
11.03
32.54
50.33
64.08
73.79
79.49
81.28
79.47
74.75
68.18
60.97
54.19
48.52
44.12
40.72
37.84
35.14
32.51
30.16
28.39
27.30
26.62
25.69
23.63
19.74
13.79
6.13
-2.48
-11.08
-18.96
-25.79
-31.75
-37.39
-43.43
-50.60
-59.36
-69.70
-80.82
-91.04
-98.02
-99.36
-93.34
-79.68
-59.73
-36.07
-11.74
10.70
29.67
44.57
55.45
62.53
65.97
65.96
62.89
57.46
50.72
43.78
37.61
32.69
28.99
26.10
23.55
21.01
18.51
16.26
14.51
13.30
12.32
10.89
8.24
3.92
-2.05
-9.28
-17.12
-24.86
-31.99
-38.42
-44.49
-50.94
-58.39
-67.35
-78.14
-90.56
-103.47
-114.81
-122.01
-122.95
-116.81
-103.76
-85.51
-64.98
-45.44
-29.28
-17.46
-9.72
-5.37
-3.94
-4.45
-6.33
-9.98
-16.36
-25.68
-36.55
-45.82
-49.30
-43.19
-23.92
9.51
54.31
104.35
152.51
192.75
221.15
235.92
229.20
197.84
147.64
91.72
42.67
7.56
-12.76
-21.42
-21.16
-14.58
-2.90
12.75
31.14
49.27
64.28
74.63
80.38
82.79
83.30
84.17
87.07
92.33
99.01
106.05
112.76
118.53
122.28
122.11
116.67
105.43
89.04
69.12
48.25
29.09
13.57
2.39
-5.03
-9.69
-12.84
-15.94
-20.57
-28.07
-39.13
-53.64
-70.75
-89.11
-107.08
-123.10
-136.02
-145.22
-150.53
-152.14
-150.65
-146.94
-142.04
-136.76
-131.50
-126.12
-120.16
-113.04
-104.38
-94.15
-82.60
-70.15
-57.17
-43.89
-30.53
-17.26
-4.27
8.28
20.15
30.90
39.75
45.61
47.46
44.65
37.27
26.03
11.96
-3.86
-20.43
-36.57
-50.69
-60.87
-65.38
-63.41
-55.67
-44.30
-32.09
-21.42
-13.37
-7.61
-2.88
2.09
7.88
14.14
19.91
24.29
26.91
28.19
29.09
30.65
33.56
37.90
43.00
47.64
50.21
49.15
43.29
32.38
17.28
-0.10
-17.28
-31.95
-42.66
-49.09
-51.96
-52.53
-52.08
-51.51
-51.19
-50.98
-50.36
-48.67
-45.32
-40.07
-33.22
-25.58
-18.27
-12.35
-8.53
-7.06
-7.77
-10.28
-14.12
-18.81
-23.87
-28.81
-33.13
-36.40
-38.21
-38.20
-35.92
-30.92
-22.85
-11.72
2.05
17.55
33.65
49.22
63.30
75.09
83.87
88.97
89.92
86.72
79.96
70.83
60.84
51.41
43.46
37.30
32.79
29.59
27.45
26.25
25.91
26.21
26.72
26.90
26.33
24.94
22.95
20.68
18.16
15.01
10.54
4.20
-4.06
-13.65
-23.63
-33.15
-41.72
-49.15
-55.31
-59.69
-61.49
-59.96
-55.11
-48.05
-40.86
-35.95
-35.07
-38.68
-45.77
-54.38
-62.35
-68.07
-70.76
-70.45
-67.63
-62.87
-56.69
-49.43
-41.32
-32.61
-23.58
-14.71
-6.72
-0.57
2.91
3.32
1.03
-2.88
-7.10
-10.57
-12.81
-13.71
-13.18
-10.82
-6.02
1.64
11.88
23.66
35.48
46.06
54.76
61.68
67.18
71.43
74.13
74.63
72.38
67.26
59.84
51.15
42.34
34.34
27.63
22.27
18.04
14.63
11.79
9.37
7.34
5.66
4.21
2.76
1.00
-1.39
-4.71
-9.10
-14.69
-21.43
-29.14
-37.32
-45.06
-51.10
-54.08
-52.97
-47.45
-38.10
-26.23
-13.48
-1.35
9.07
17.20
22.85
26.06
27.03
26.15
24.03
21.41
19.07
17.57
17.10
17.42
17.97
18.07
17.17
15.06
11.93
8.29
4.71
1.65
-0.79
-2.88
-5.10
-8.07
-12.27
-17.97
-25.08
-33.05
-40.84
-47.03
-50.06
-48.66
-42.20
-30.95
-16.07
0.68
17.36
32.32
44.44
53.20
58.46
60.28
58.69
53.78
45.85
35.63
24.29
13.34
4.26
-1.89
-4.77
-4.76
-2.77
0.09
2.82
4.69
5.30
4.51
2.36
-0.97
-5.29
-10.30
-15.73
-21.33
-27.11
-33.33
-40.44
-48.72
-57.81
-66.45
-72.53
-73.69
-68.21
-55.69
-37.29
-15.45
6.96
27.40
44.20
56.67
64.91
69.45
70.87
69.67
66.22
60.79
53.82
45.93
37.99
31.00
25.91
23.45
24.01
27.61
33.84
41.85
50.42
58.07
63.36
65.21
63.20
57.70
49.74
40.74
32.03
24.48
18.31
13.02
7.72
1.52
-5.98
-14.50
-23.18
-30.99
-37.06
-40.90
-42.32
-41.19
-37.38
-30.86
-21.98
-11.76
-1.73
6.37
11.25
12.53
10.81
7.45
4.04
1.81
1.38
2.61
4.80
7.10
8.78
9.58
9.63
9.34
9.08
8.94
8.61
7.55
5.18
1.22
-4.20
-10.50
-16.86
-22.49
-26.88
-30.03
-32.33
-34.50
-37.30
-41.35
-46.87
-53.49
-60.07
-64.76
-65.30
-59.66
-46.77
-27.15
-3.00
22.26
45.04
62.60
73.72
78.81
79.37
77.26
73.96
70.33
66.57
62.53
58.00
52.81
46.92
40.33
33.12
25.45
17.67
10.23
3.61
-1.90
-6.27
-9.81
-13.01
-16.35
-20.04
-24.01
-27.88
-31.23
-33.93
-36.40
-39.77
-45.63
-55.37
-69.45
-86.71
-104.46
-119.00
-126.82
-125.71
-115.37
-97.33
-74.26
-49.12
-24.45
-2.09
16.89
31.95
43.02
50.38
54.64
56.61
57.12
56.91
56.40
55.73
54.75
53.11
50.58
47.19
43.35
39.75
37.14
35.97
36.21
37.33
38.47
38.72
37.33
33.92
28.45
21.32
13.22
4.96
-2.73
-9.46
-15.28
-20.69
-26.39
-33.03
-40.87
-49.57
-58.14
-65.06
-68.65
-67.53
-61.14
-49.92
-35.30
-19.26
-3.75
9.81
20.74
28.98
34.74
38.25
39.67
39.18
37.10
33.99
30.52
27.28
24.60
22.46
20.66
18.92
17.10
15.28
13.68
12.53
11.92
11.67
11.35
10.38
8.25
4.76
0.07
-5.25
-10.55
-15.23
-19.11
-22.38
-25.54
-29.21
-33.85
-39.72
-46.67
-54.02
-60.62
-64.91
-65.33
-60.82
-51.24
-37.53
-21.45
-5.02
10.05
22.73
32.64
39.82
44.44
46.66
46.63
44.66
41.27
37.09
32.78
28.79
25.35
22.42
19.92
17.77
16.00
14.71
13.99
13.81
13.92
13.91
13.28
11.67
8.94
5.27
1.06
-3.21
-7.21
-10.88
-14.46
-18.34
-22.92
-28.49
-35.11
-42.48
-49.89
-56.22
-60.06
-60.05
-55.36
-46.00
-32.98
-18.01
-2.99
10.51
21.60
30.06
36.08
39.99
42.03
42.36
41.19
38.76
35.48
31.72
27.81
23.92
20.14
16.49
13.09
10.16
7.90
6.43
5.63
5.12
4.34
2.75
0.05
-3.69
-8.09
-12.63
-16.85
-20.56
-23.91
-27.30
-31.25
-36.17
-42.17
-48.81
-55.11
-59.61
-60.80
-57.54
-49.55
-37.51
-22.95
-7.74
6.39
18.27
27.34
33.53
37.01
38.04
36.88
33.92
29.64
24.65
19.57
14.94
11.17
8.46
6.85
6.19
6.18
6.41
6.42
5.82
4.39
2.10
-0.85
-4.20
-7.70
-11.15
-14.52
-17.87
-21.45
-25.56
-30.58
-36.62
-43.37
-49.92
-54.80
-56.36
-53.32
-45.31
-33.03
-18.07
-2.37
12.33
24.79
34.40
40.98
44.60
45.51
44.09
40.95
36.80
32.33
28.03
24.10
20.53
17.24
14.27
11.77
9.96
8.94
8.56
8.43
7.93
6.48
3.75
-0.28
-5.28
-10.69
-15.95
-20.66
-24.73
-28.39
-32.10
-36.44
-41.90
-48.64
-56.19
-63.37
-68.39
-69.38
-64.96
-54.82
-39.93
-22.31
-4.32
12.01
25.41
35.49
42.45
46.70
48.60
48.42
46.49
43.27
39.39
35.47
31.94
28.93
26.34
23.99
21.78
19.82
18.32
17.41
17.00
16.69
15.96
14.30
11.43
7.41
2.59
-2.55
-7.58
-12.24
-16.57
-20.89
-25.72
-31.60
-38.89
-47.40
-56.27
-63.92
-68.42
-68.03
-61.80
-49.95
-33.89
-15.72
2.31
18.36
31.33
40.80
46.82
49.69
49.84
47.80
44.26
39.98
35.69
31.87
28.66
25.94
23.46
21.04
18.71
16.71
15.33
14.69
14.61
14.55
13.78
11.63
7.77
2.33
-4.10
-10.76
-16.91
-22.12
-26.39
-30.09
-33.84
-38.34
-44.08
-51.18
-59.06
-66.38
-71.31
-71.93
-66.92
-56.15
-40.80
-23.06
-5.47
9.86
21.74
29.93
34.91
37.39
38.00
37.17
35.21
32.37
28.93
25.22
21.55
18.25
15.66
14.05
13.66
14.52
16.47
19.13
22.01
24.68
26.79
28.21
28.97
29.27
29.50
30.05
31.18
32.64
33.54
32.48
27.99
19.20
6.34
-9.11
-24.75
-37.94
-46.49
-49.14
-45.71
-36.98
-24.40
-9.85
4.69
17.41
26.99
32.71
34.57
33.16
29.37
24.27
18.87
13.95
9.97
7.05
4.99
3.49
2.28
1.29
0.58
0.34
0.57
1.03
1.24
0.63
-1.21
-4.40
-8.64
-13.39
-18.05
-22.17
-25.64
-28.70
-31.87
-35.82
-41.13
-48.07
-56.32
-64.84
-71.90
-75.44
-73.73
-65.93
-52.47
-34.97
-15.74
2.90
19.21
32.26
41.82
48.07
51.35
52.03
50.58
47.58
43.76
39.84
36.38
33.67
31.73
30.32
29.11
27.80
26.28
24.60
22.96
21.55
20.38
19.21
17.56
14.94
11.02
5.81
-0.33
-6.79
-13.00
-18.61
-23.61
-28.28
-33.12
-38.64
-45.21
-52.89
-61.18
-69.00
-74.74
-76.63
-73.27
-64.18
-50.01
-32.44
-13.67
4.26
19.88
32.45
41.80
48.03
51.29
51.78
49.83
46.05
41.23
36.27
31.90
28.55
26.26
24.85
24.00
23.45
23.09
22.94
23.09
23.50
24.02
24.25
23.76
22.17
19.31
15.20
10.07
4.27
-1.78
-7.72
-13.26
-18.28
-22.85
-27.20
-31.69
-36.73
-42.64
-49.48
-56.84
-63.71
-68.58
-69.77
-65.94
-56.66
-42.65
-25.62
-7.70
9.13
23.54
34.92
43.20
48.54
51.18
51.36
49.46
46.09
41.97
37.85
34.26
31.42
29.26
27.51
25.90
24.32
22.82
21.59
20.77
20.32
19.92
19.11
17.42
14.56
10.56
5.72
0.48
-4.68
-9.42
-13.58
-17.24
-20.72
-24.50
-29.17
-35.20
-42.66
-50.99
-58.95
-64.76
-66.64
-63.38
-54.76
-41.68
-25.90
-9.51
5.66
18.35
28.03
34.72
38.75
40.54
40.49
39.03
36.53
33.40
30.01
26.65
23.53
20.77
18.46
16.68
15.50
14.93
14.87
15.01
14.89
13.99
11.85
8.32
3.55
-1.93
-7.47
-12.50
-16.74
-20.33
-23.79
-27.93
-33.46
-40.66
-49.09
-57.45
-63.83
-66.25
-63.30
-54.65
-41.17
-24.68
-7.29
9.12
23.24
34.45
42.56
47.66
49.97
49.87
47.90
44.76
41.15
37.60
34.40
31.59
28.99
26.43
23.79
21.16
18.76
16.86
15.67
15.14
14.93
14.47
13.17
10.56
6.54
1.38
-4.43
-10.29
-15.78
-20.71
-25.22
-29.65
-34.50
-40.24
-47.17
-55.20
-63.69
-71.33
-76.38
-77.11
-72.35
-61.98
-47.07
-29.58
-11.76
4.48
17.96
28.30
35.65
40.36
42.71
42.93
41.29
38.25
34.49
30.75
27.63
25.40
23.99
23.05
22.21
21.31
20.43
19.85
19.76
20.12
20.58
20.53
19.41
16.88
13.01
8.18
2.94
-2.22
-7.05
-11.57
-16.06
-20.88
-26.43
-33.01
-40.75
-49.45
-58.42
-66.43
-71.83
-72.92
-68.55
-58.58
-44.01
-26.78
-9.10
7.08
20.56
30.90
38.18
42.69
44.74
44.59
42.62
39.31
35.35
31.41
28.05
25.55
23.89
22.86
22.18
21.67
21.29
21.11
21.17
21.39
21.48
20.95
19.30
16.15
11.40
5.33
-1.53
-8.52
-15.07
-20.88
-25.90
-30.38
-34.78
-39.60
-45.27
-52.02
-59.59
-67.13
-73.23
-76.15
-74.33
-66.99
-54.45
-38.10
-20.02
-2.34
13.29
25.95
35.32
41.50
44.77
45.41
43.90
40.83
36.99
33.12
29.75
27.09
25.00
23.23
21.60
20.12
19.00
18.44
18.42
18.64
18.51
17.45
15.08
11.42
6.88
2.03
-2.63
-6.91
-10.93
-15.01
-19.60
-25.05
-31.52
-38.84
-46.34
-52.84
-56.73
-56.47
-51.04
-40.45
-25.80
-8.98
7.92
23.23
35.95
45.73
52.49
56.24
56.96
54.87
50.60
45.25
40.15
36.42
34.51
34.02
33.98
33.34
31.57
28.99
26.71
25.98
27.59
31.37
36.12
40.18
42.08
41.10
37.57
32.67
28.14
25.95
27.72
33.99
43.55
53.01
57.29
51.13
31.13
-2.36
-44.67
-87.98
-123.82
-145.77
-151.38
-142.19
-122.47
-97.20
-70.48
-44.88
-21.70
-1.66
14.74
26.97
34.87
38.99
40.60
41.43
43.04
46.32
51.18
56.77
61.83
65.29
66.58
65.80
63.49
60.26
56.50
52.14
46.79
40.00
31.61
22.02
12.14
3.18
-3.79
-8.19
-10.21
-10.67
-10.82
-11.87
-14.60
-19.21
-25.25
-31.88
-38.02
-42.67
-45.01
-44.53
-41.00
-34.53
-25.56
-14.92
-3.67
6.93
15.73
21.86
24.96
25.21
23.23
19.91
16.18
12.75
10.14
8.60
8.20
8.90
10.50
12.60
14.65
16.03
16.18
14.81
11.97
7.93
3.12
-2.13
-7.52
-12.90
-18.12
-23.05
-27.57
-31.66
-35.41
-39.07
-43.04
-47.75
-53.61
-60.79
-69.06
-77.70
-85.54
-91.23
-93.60
-92.04
-86.60
-77.99
-67.23
-55.34
-43.14
-31.11
-19.46
-8.24
2.39
12.12
20.33
26.27
29.29
29.19
26.33
21.58
15.86
9.73
3.18
-4.06
-12.01
-20.00
-26.69
-30.61
-30.99
-28.25
-23.94
-20.13
-18.56
-20.15
-24.90
-32.26
-41.41
-51.38
-61.06
-69.12
-74.37
-76.25
-75.14
-72.28
-69.16
-66.70
-64.71
-61.97
-56.83
-48.04
-35.34
-19.47
-1.87
15.96
32.67
47.24
58.76
66.34
69.26
67.16
60.23
49.31
35.63
20.65
5.83
-7.45
-17.88
-24.40
-26.36
-23.75
-17.25
-8.12
2.20
12.36
21.30
28.21
32.46
33.54
31.30
26.04
18.63
10.22
1.82
-6.09
-13.59
-21.04
-28.56
-35.50
-40.54
-42.02
-38.70
-30.28
-17.59
-2.36
13.42
28.04
40.49
50.44
58.07
63.76
67.90
70.77
72.59
73.60
74.06
74.29
74.43
74.47
74.11
72.93
70.52
66.67
61.45
55.11
47.95
40.16
31.87
23.15
14.13
5.01
-3.95
-12.52
-20.56
-28.07
-35.21
-42.30
-49.72
-57.74
-66.25
-74.56
-81.35
-84.97
-83.93
-77.41
-65.73
-50.22
-32.86
-15.65
-0.13
12.93
23.38
31.41
37.25
41.03
42.83
42.83
41.42
39.16
36.64
34.26
32.14
30.21
28.34
26.53
24.93
23.71
22.93
22.32
21.38
19.57
16.53
12.23
7.01
1.33
-4.39
-9.90
-15.26
-20.72
-26.69
-33.59
-41.69
-50.88
-60.50
-69.30
-75.63
-77.85
-74.88
-66.54
-53.60
-37.65
-20.55
-4.14
10.15
21.39
29.17
33.50
34.67
33.15
29.61
24.93
20.11
16.23
14.12
14.10
15.89
18.63
21.28
23.06
23.65
23.20
22.07
20.41
18.07
14.70
10.04
4.20
-2.16
-8.12
-12.73
-15.42
-16.18
-15.61
-14.64
-14.35
-15.57
-18.74
-23.65
-29.42
-34.68
-37.83
-37.53
-33.05
-24.48
-12.62
1.30
16.09
30.77
44.67
57.28
68.13
76.63
82.24
84.54
83.44
79.23
72.51
64.10
54.86
45.51
36.61
28.50
21.43
15.59
11.21
8.49
7.44
7.79
8.89
9.88
9.94
8.50
5.40
0.85
-4.70
-10.79
-17.08
-23.39
-29.67
-35.99
-42.47
-49.17
-55.98
-62.39
-67.48
-69.96
-68.60
-62.65
-52.23
-38.42
-22.91
-7.54
6.24
17.59
26.27
32.32
35.92
37.21
36.44
34.03
30.61
26.88
23.37
20.28
17.54
14.91
12.29
9.81
7.76
6.38
5.55
4.80
3.46
1.03
-2.52
-6.65
-10.40
-12.77
-13.11
-11.40
-8.28
-4.92
-2.66
-2.61
-5.17
-9.73
-14.66
-17.77
-17.02
-11.29
-0.91
12.49
26.48
38.73
47.65
52.69
54.12
52.66
49.02
43.76
37.31
30.12
22.78
15.89
9.95
5.17
1.44
-1.62
-4.39
-7.09
-9.64
-11.72
-12.97
-13.23
-12.77
-12.21
-12.34
-13.76
-16.64
-20.57
-24.78
-28.44
-31.02
-32.56
-33.57
-34.95
-37.60
-42.16
-48.71
-56.63
-64.55
-70.64
-73.08
-70.54
-62.63
-50.03
-34.29
-17.36
-1.08
13.16
24.56
32.81
37.99
40.41
40.53
38.92
36.23
33.06
29.93
27.18
24.96
23.28
22.02
21.07
20.37
19.94
19.84
20.10
20.57
20.96
20.87
19.92
17.89
14.84
11.04
6.85
2.62
-1.49
-5.52
-9.71
-14.41
-19.99
-26.64
-34.14
-41.66
-47.78
-50.80
-49.28
-42.59
-31.25
-16.76
-1.05
14.03
27.26
38.02
46.16
51.65
54.47
54.68
52.50
48.49
43.38
37.97
32.84
28.32
24.46
21.10
18.06
15.19
12.47
10.00
8.01
6.68
6.05
5.89
5.75
5.08
3.40
0.50
-3.49
-8.15
-12.95
-17.46
-21.48
-25.17
-29.00
-33.58
-39.44
-46.73
-55.00
-63.06
-69.25
-71.77
-69.33
-61.56
-49.20
-33.83
-17.47
-1.92
11.49
22.07
29.66
34.35
36.40
36.16
34.17
31.09
27.65
24.47
21.93
20.02
18.48
16.99
15.33
13.62
12.19
11.40
11.37
11.87
12.33
12.07
10.63
7.95
4.30
0.21
-3.89
-7.74
-11.40
-15.11
-19.20
-24.02
-29.76
-36.32
-43.12
-49.08
-52.80
-52.93
-48.68
-40.19
-28.54
-15.44
-2.67
8.47
17.39
24.14
29.03
32.40
34.32
34.72
33.51
30.85
27.14
23.04
19.26
16.39
14.74
14.36
14.95
16.10
17.33
18.21
18.50
18.03
16.68
14.35
10.97
6.54
1.29
-4.33
-9.86
-14.94
-19.58
-24.13
-29.01
-34.40
-40.02
-45.37
-50.15
-54.52
-59.07
-64.47
-70.95
-78.07
-84.79
-89.87
-92.32
-91.54
-87.43
-80.18
-70.27
-58.42
-45.64
-33.13
-21.98
-12.76
-5.18
1.86
10.00
20.77
35.15
53.18
73.81
95.25
115.36
132.09
143.82
149.48
148.56
141.11
127.66
109.31
87.65
64.60
42.11
21.76
4.33
-10.47
-23.92
-37.84
-53.68
-71.60
-90.08
-106.15
-116.50
-118.92
-113.21
-101.31
-86.39
-71.58
-58.81
-48.52
-40.08
-32.65
-25.70
-19.22
-13.42
-8.38
-3.91
0.28
4.32
8.09
11.33
13.90
16.01
18.17
20.92
24.58
29.05
33.84
38.27
41.71
43.75
44.24
43.25
40.95
37.57
33.32
28.39
22.96
17.13
10.89
4.16
-3.19
-11.03
-18.84
-25.57
-29.89
-30.59
-27.11
-19.82
-9.92
0.90
11.10
19.70
26.35
31.18
34.42
36.19
36.45
35.23
32.75
29.53
26.27
23.63
22.05
21.63
22.13
23.15
24.24
25.01
25.16
24.53
23.03
20.67
17.48
13.54
8.90
3.70
-1.87
-7.51
-12.87
-17.71
-21.94
-25.77
-29.65
-34.10
-39.55
-46.00
-52.86
-58.96
-62.76
-62.78
-58.11
-48.77
-35.74
-20.78
-5.88
7.29
17.62
24.75
28.82
30.32
29.86
28.16
25.98
24.15
23.31
23.66
24.76
25.65
25.17
22.61
18.12
12.74
7.91
4.90
4.08
4.90
6.14
6.57
5.46
2.79
-0.91
-4.94
-8.80
-12.38
-15.83
-19.50
-23.79
-29.01
-35.13
-41.72
-47.76
-51.80
-52.35
-48.38
-39.72
-27.23
-12.51
2.65
16.66
28.55
37.86
44.49
48.52
50.13
49.68
47.74
45.08
42.38
40.01
37.85
35.32
31.64
26.26
19.15
10.91
2.61
-4.66
-10.09
-13.37
-14.76
-14.79
-14.10
-13.25
-12.62
-12.36
-12.40
-12.52
-12.45
-12.04
-11.36
-10.83
-11.08
-12.82
-16.51
-22.14
-29.01
-35.84
-41.01
-42.96
-40.69
-34.05
-23.77
-11.23
1.96
14.41
25.20
33.85
40.20
44.28
46.18
46.11
44.40
41.54
38.10
34.56
31.27
28.39
25.97
24.00
22.45
21.35
20.72
20.60
20.96
21.65
22.42
22.94
22.90
22.12
20.67
18.77
16.78
14.91
13.09
11.00
8.19
4.29
-0.78
-6.76
-13.13
-19.24
-24.42
-28.02
-29.47
-28.34
-24.58
-18.53
-10.94
-2.70
5.48
13.32
20.90
28.31
35.30
40.97
44.07
43.50
38.94
31.14
21.72
12.50
4.82
-0.85
-4.80
-7.68
-10.04
-12.01
-13.40
-13.93
-13.49
-12.24
-10.59
-9.07
-8.15
-8.16
-9.25
-11.37
-14.34
-17.93
-21.88
-26.00
-30.14
-34.20
-38.10
-41.86
-45.59
-49.46
-53.59
-57.68
-61.06
-62.63
-61.28
-56.28
-47.59
-35.96
-22.64
-9.06
3.60
14.51
23.22
29.50
33.33
34.85
34.43
32.70
30.37
28.11
26.37
25.25
24.56
23.94
23.09
21.83
20.23
18.46
16.70
14.97
13.08
10.68
7.50
3.46
-1.20
-5.98
-10.37
-14.00
-16.85
-19.16
-21.37
-23.97
-27.36
-31.87
-37.59
-44.34
-51.42
-57.65
-61.50
-61.53
-56.90
-47.73
-35.08
-20.63
-6.23
6.72
17.38
25.50
31.22
34.76
36.35
36.22
34.69
32.19
29.25
26.40
23.98
22.10
20.62
19.30
17.96
16.57
15.29
14.31
13.70
13.28
12.64
11.28
8.85
5.32
0.96
-3.74
-8.27
-12.30
-15.79
-18.98
-22.33
-26.34
-31.43
-37.75
-45.04
-52.50
-58.83
-62.50
-62.14
-57.02
-47.30
-34.12
-19.26
-4.63
8.22
18.32
25.42
29.70
31.65
31.86
30.85
29.04
26.71
24.01
21.03
17.88
14.78
12.04
9.99
8.86
8.62
9.06
9.77
10.32
10.38
9.71
8.18
5.76
2.51
-1.42
-5.74
-10.10
-14.19
-17.93
-21.58
-25.67
-30.71
-36.84
-43.47
-49.25
-52.42
-51.47
-45.69
-35.53
-22.46
-8.45
4.68
15.74
24.23
30.20
33.90
35.58
35.41
33.66
30.73
27.21
23.67
20.54
17.96
15.89
14.19
12.76
11.61
10.82
10.37
10.08
9.55
8.35
6.13
2.83
-1.26
-5.65
-9.83
-13.47
-16.61
-19.57
-22.86
-27.06
-32.54
-39.33
-46.95
-54.36
-60.02
-62.33
-60.03
-52.71
-41.03
-26.52
-11.15
3.29
15.58
25.14
31.92
36.09
37.93
37.77
36.03
33.25
30.01
26.82
23.98
21.58
19.59
17.96
16.72
15.98
15.84
16.31
17.18
18.01
18.29
17.50
15.40
12.06
7.84
3.25
-1.27
-5.46
-9.32
-13.06
-17.01
-21.54
-26.90
-33.08
-39.56
-45.23
-48.56
-47.97
-42.43
-31.88
-17.37
-0.79
15.75
30.56
42.71
52.02
58.80
63.48
66.41
67.77
67.74
66.54
64.45
61.76
58.74
55.60
52.47
49.50
46.81
44.57
42.89
41.80
41.18
40.77
40.10
38.57
35.48
30.29
22.82
13.38
2.79
-7.91
-17.73
-26.08
-32.86
-38.42
-43.36
-48.29
-53.62
-59.33
-64.93
-69.51
-71.90
-70.99
-66.16
-57.49
-45.82
-32.52
-19.14
-7.01
2.94
10.20
14.63
16.34
15.82
13.95
11.94
11.21
12.91
17.52
24.54
32.57
39.76
44.47
45.89
44.28
40.75
36.69
33.13
30.40
28.08
25.45
21.87
17.21
11.79
6.22
1.00
-3.66
-7.89
-12.00
-16.27
-20.88
-25.90
-31.32
-37.07
-42.81
-47.90
-51.34
-52.03
-49.20
-42.78
-33.49
-22.64
-11.59
-1.37
7.62
15.42
22.16
27.74
31.69
33.42
32.52
29.11
23.94
18.12
12.79
8.68
5.97
4.32
3.20
2.23
1.35
0.76
0.66
1.00
1.34
1.02
-0.59
-3.70
-8.06
-13.10
-18.24
-23.24
-28.25
-33.77
-40.33
-48.15
-56.93
-65.73
-73.19
-77.73
-78.03
-73.32
-63.72
-50.17
-34.25
-17.78
-2.39
10.80
21.32
29.17
34.65
38.08
39.69
39.59
37.90
34.88
31.04
27.09
23.69
21.29
19.89
19.19
18.79
18.42
18.12
18.08
18.36
18.72
18.53
17.08
13.94
9.22
3.52
-2.30
-7.54
-11.91
-15.56
-18.89
-22.39
-26.42
-31.25
-37.00
-43.44
-49.94
-55.30
-58.05
-56.80
-50.86
-40.57
-27.30
-12.99
0.51
11.91
20.76
27.24
31.80
34.80
36.44
36.81
36.02
34.38
32.35
30.38
28.85
27.94
27.68
28.09
29.18
30.99
33.58
36.83
40.50
44.21
47.45
49.78
50.85
50.56
49.00
46.52
43.52
40.43
37.48
34.70
31.77
28.20
23.40
16.94
8.81
-0.49
-9.91
-18.15
-23.97
-26.63
-26.04
-22.77
-17.77
-12.09
-6.59
-1.89
1.58
3.46
3.35
0.90
-4.14
-11.79
-21.82
-33.78
-47.00
-60.52
-73.04
-82.93
-88.50
-88.47
-82.46
-71.17
-56.32
-40.06
-24.44
-10.80
0.33
9.16
16.21
22.02
26.87
30.76
33.50
34.92
34.94
33.77
31.79
29.41
27.00
24.79
22.99
21.80
21.41
21.86
22.85
23.81
24.04
23.07
20.72
17.08
12.15
5.57
-3.42
-15.49
-30.56
-47.20
-62.76
-74.02
-78.48
-75.26
-65.52
-51.89
-37.33
-24.07
-12.94
-3.63
4.67
12.51
19.82
25.93
30.09
31.88
31.35
28.97
25.30
20.78
15.60
9.73
3.04
-4.53
-12.81
-21.45
-29.80
-37.00
-42.15
-44.39
-43.11
-38.13
-29.77
-18.90
-6.81
5.01
15.10
22.37
26.30
27.06
25.41
22.45
19.29
16.72
15.08
14.27
13.95
13.81
13.66
13.60
13.98
15.28
17.94
22.18
27.88
34.55
41.37
47.31
51.31
52.48
50.21
44.31
35.08
23.32
10.15
-3.17
-15.66
-26.77
-36.46
-44.94
-52.38
-58.60
-63.06
-65.05
-64.03
-59.88
-53.08
-44.56
-35.44
-26.74
-19.16
-13.02
-8.37
-5.12
-3.16
-2.38
-2.71
-3.98
-5.93
-8.25
-10.65
-12.86
-14.72
-16.11
-16.98
-17.33
-17.31
-17.27
-17.75
-19.30
-22.31
-26.78
-32.25
-37.95
-43.03
-46.87
-49.22
-50.29
-50.55
-50.66
-51.24
-52.70
-55.18
-58.38
-61.57
-63.65
-63.47
-60.14
-53.33
-43.46
-31.49
-18.69
-6.27
4.94
14.51
22.34
28.58
33.45
37.29
40.47
43.46
46.70
50.43
54.56
58.68
62.12
64.33
64.95
64.07
62.00
59.09
55.53
51.23
45.96
39.57
32.17
24.18
16.22
8.87
2.47
-3.04
-8.01
-12.95
-18.43
-24.81
-32.24
-40.47
-48.86
-56.29
-61.40
-62.80
-59.52
-51.41
-39.22
-24.51
-9.19
4.99
16.81
25.79
32.01
35.87
37.85
38.32
37.53
35.76
33.31
30.59
27.99
25.77
24.06
22.80
21.91
21.30
20.91
20.67
20.36
19.67
18.27
15.93
12.67
8.75
4.58
0.49
-3.38
-7.13
-11.06
-15.56
-20.99
-27.50
-34.87
-42.42
-48.90
-52.77
-52.61
-47.58
-37.83
-24.52
-9.46
5.37
18.40
28.71
36.06
40.63
42.76
42.81
41.15
38.20
34.45
30.38
26.42
22.82
19.71
17.10
15.01
13.50
12.62
12.31
12.37
12.42
12.01
10.76
8.45
5.08
0.92
-3.66
-8.23
-12.51
-16.45
-20.27
-24.43
-29.47
-35.70
-42.93
-50.29
-56.29
-59.15
-57.39
-50.37
-38.53
-23.35
-6.85
8.93
22.50
33.07
40.52
45.08
47.14
47.11
45.39
42.45
38.84
35.04
31.47
28.37
25.79
23.68
21.93
20.47
19.27
18.35
17.73
17.38
17.12
16.63
15.50
13.36
10.11
5.94
1.36
-3.08
-7.00
-10.34
-13.35
-16.49
-20.23
-24.82
-30.18
-35.81
-40.78
-43.90
-44.08
-40.68
-33.93
-24.95
-15.53
-7.61
-2.81
-1.99
-5.23
-11.90
-20.98
-31.28
-41.60
-50.85
-58.22
-63.30
-66.15
-67.34
-67.74
-68.28
-69.62
-71.98
-75.05
-78.13
-80.31
-80.77
-79.04
-75.08
-69.21
-61.98
-53.85
-45.07
-35.57
-25.06
-13.32
-0.43
13.07
26.25
37.98
47.15
52.95
55.09
53.91
50.40
46.16
43.06
42.86
46.68
54.73
66.22
79.65
93.24
105.41
115.03
121.47
124.55
124.35
121.11
115.22
107.22
97.84
87.97
78.47
69.95
62.60
56.17
50.10
43.84
37.23
30.53
24.39
19.46
16.07
13.99
12.56
10.98
8.66
5.44
1.61
-2.41
-6.29
-9.96
-13.65
-17.75
-22.69
-28.81
-36.35
-45.19
-54.73
-63.71
-70.35
-72.74
-69.48
-60.16
-45.62
-27.70
-8.68
9.31
24.64
36.32
43.84
47.13
46.54
42.91
37.53
31.97
27.63
25.47
25.78
28.24
32.07
36.40
40.40
43.44
45.10
45.23
43.91
41.37
37.87
33.57
28.38
22.05
14.27
4.92
-5.71
-17.06
-28.44
-39.49
-50.23
-61.04
-72.15
-83.15
-92.72
-98.89
-99.77
-94.30
-82.92
-67.35
-50.13
-33.63
-19.49
-8.37
-0.19
5.45
8.88
10.33
10.06
8.55
6.50
4.76
4.03
4.72
6.88
10.36
14.95
20.53
27.09
34.67
43.22
52.56
62.37
72.33
82.26
92.22
102.46
113.13
123.90
133.84
141.50
145.28
144.06
137.55
126.29
111.35
93.85
74.58
54.08
32.88
11.70
-8.57
-27.20
-44.01
-59.44
-74.25
-88.97
-103.39
-116.41
-126.42
-131.99
-132.52
-128.54
-121.54
-113.37
-105.68
-99.45
-94.93
-91.80
-89.50
-87.50
-85.47
-83.29
-80.97
-78.68
-76.60
-74.99
-74.02
-73.81
-74.29
-75.25
-76.26
-76.85
-76.58
-75.21
-72.87
-70.14
-67.91
-67.16
-68.51
-71.87
-76.12
-79.39
-79.49
-74.71
-64.42
-49.23
-30.76
-11.05
8.14
25.65
40.90
53.60
63.46
70.03
72.94
72.18
68.31
62.43
55.88
49.80
44.85
41.17
38.48
36.41
34.73
33.41
32.54
32.13
31.98
31.64
30.59
28.38
24.89
20.33
15.17
9.97
5.22
1.20
-2.07
-4.78
-7.39
-10.51
-14.72
-20.24
-26.58
-32.47
-36.09
-35.76
-30.62
-21.02
-8.38
5.43
18.79
30.73
40.97
49.52
56.30
61.00
63.19
62.70
59.82
55.37
50.42
45.95
42.57
40.42
39.25
38.71
38.48
38.50
38.84
39.60
40.65
41.60
41.84
40.71
37.77
32.94
26.52
19.10
11.35
3.87
-2.93
-8.82
-13.87
-18.38
-22.89
-28.01
-34.08
-40.91
-47.57
-52.67
-54.92
-53.66
-49.28
-42.98
-36.31
-30.45
-25.84
-22.22
-19.07
-16.05
-13.20
-10.82
-9.20
-8.35
-7.94
-7.39
-6.16
-3.87
-0.42
4.08
9.41
15.37
21.79
28.51
35.26
41.70
47.37
51.83
54.79
56.21
56.22
55.12
53.24
50.94
48.53
46.31
44.38
42.72
41.17
39.67
38.32
37.30
36.62
35.81
33.95
30.01
23.45
14.70
5.24
-2.89
-7.84
-8.56
-5.14
1.35
9.34
17.23
23.77
28.26
30.51
30.66
29.05
26.02
21.87
16.98
11.85
7.09
3.27
0.63
-1.10
-2.66
-4.95
-8.71
-14.19
-21.15
-28.97
-36.94
-44.44
-51.20
-57.31
-63.23
-69.63
-77.18
-86.22
-96.47
-106.86
-115.51
-120.13
-118.62
-109.76
-93.68
-71.90
-46.89
-21.38
2.40
23.13
40.34
54.08
64.54
71.83
76.14
77.93
78.13
77.98
78.69
81.01
84.86
89.39
93.38
95.66
95.68
93.60
90.20
86.45
83.04
80.20
77.55
74.37
69.86
63.35
54.40
42.86
28.86
12.79
-4.65
-22.58
-40.07
-56.36
-71.05
-84.04
-95.32
-104.71
-111.66
-115.33
-114.93
-110.04
-100.90
-88.38
-73.77
-58.45
-43.62
-30.21
-18.90
-10.15
-4.23
-1.10
-0.35
-1.22
-2.77
-4.10
-4.68
-4.41
-3.69
-3.09
-3.08
-3.87
-5.30
-6.94
-8.38
-9.40
-10.08
-10.80
-12.07
-14.35
-17.83
-22.38
-27.59
-32.89
-37.80
-42.06
-45.77
-49.30
-53.15
-57.65
-62.86
-68.34
-73.21
-76.30
-76.47
-72.88
-65.34
-54.33
-40.95
-26.61
-12.66
-0.11
10.39
18.55
24.19
27.12
27.06
23.81
17.52
9.01
-0.20
-8.13
-12.89
-13.29
-9.34
-2.10
6.67
15.27
22.60
28.29
32.56
35.76
38.00
39.18
39.14
37.97
36.10
34.23
33.00
32.60
32.63
32.30
30.85
28.17
25.19
23.70
25.70
32.54
44.10
58.77
73.97
87.09
96.37
101.31
102.43
100.81
97.59
93.65
89.64
85.97
82.69
79.52
75.68
70.14
62.00
50.86
37.09
21.83
6.66
-6.81
-17.39
-24.68
-29.09
-31.72
-33.95
-37.09
-41.92
-48.57
-56.65
-65.48
-74.36
-82.77
-90.39
-97.12
-103.07
-108.56
-114.02
-119.83
-126.06
-132.25
-137.35
-139.93
-138.50
-131.97
-120.02
-103.27
-83.17
-61.69
-40.89
-22.45
-7.38
4.07
12.19
17.60
20.95
22.83
23.75
24.18
24.57
25.26
26.43
27.98
29.68
31.18
32.26
32.73
32.54
31.65
30.00
27.51
24.14
19.90
14.87
9.22
3.18
-3.04
-9.34
-15.83
-22.90
-31.14
-40.95
-52.15
-63.69
-73.63
-79.79
-80.39
-74.87
-64.09
-50.13
-35.54
-22.58
-12.75
-6.55
-3.64
-2.90
-2.64
-0.76
4.74
15.09
30.28
48.87
68.44
86.48
101.24
112.20
119.88
125.31
129.31
132.07
133.20
132.07
128.19
121.50
112.36
101.40
89.27
76.47
63.29
49.85
36.19
22.41
8.60
-5.15
-18.88
-32.78
-46.87
-60.79
-73.50
-83.37
-88.58
-87.82
-80.83
-68.66
-53.33
-37.21
-22.25
-9.63
0.36
8.05
14.04
18.92
23.14
26.89
30.11
32.48
33.69
33.57
32.40
31.00
30.38
31.25
33.52
36.20
37.64
36.22
30.80
21.09
7.60
-8.56
-25.74
-41.92
-54.87
-62.71
-64.57
-61.21
-55.12
-49.73
-48.07
-51.37
-58.47
-66.23
-70.96
-69.94
-62.44
-49.72
-34.18
-18.33
-3.87
8.44
18.46
26.14
31.29
33.64
33.16
30.41
26.44
22.55
19.86
18.96
19.84
21.99
24.60
26.80
27.86
27.26
24.74
20.30
14.23
7.12
-0.20
-6.77
-11.68
-14.36
-14.81
-13.67
-12.10
-11.56
-13.33
-18.14
-25.79
-35.02
-43.67
-49.17
-49.21
-42.53
-29.28
-11.06
9.60
30.02
48.03
62.32
72.50
78.79
81.77
82.06
80.29
77.00
72.72
67.92
63.01
58.34
54.13
50.43
47.09
43.83
40.36
36.50
32.24
27.65
22.72
17.28
11.03
3.74
-4.53
-13.30
-21.76
-29.12
-34.88
-39.09
-42.34
-45.53
-49.64
-55.33
-62.77
-71.43
-80.06
-86.89
-90.03
-88.01
-80.28
-67.45
-51.18
-33.59
-16.69
-1.84
10.38
20.02
27.39
32.73
36.14
37.69
37.61
36.32
34.38
32.31
30.38
28.61
26.85
24.95
22.87
20.74
18.72
16.95
15.37
13.73
11.54
8.24
3.43
-3.00
-10.71
-18.99
-27.03
-34.20
-40.35
-45.81
-51.25
-57.40
-64.75
-73.37
-82.78
-91.95
-99.49
-103.81
-103.55
-97.98
-87.29
-72.62
-55.75
-38.59
-22.68
-8.92
2.40
11.31
17.89
22.15
24.14
24.13
22.77
21.01
19.78
19.66
20.71
22.52
24.47
26.12
27.33
28.26
29.12
29.95
30.45
30.08
28.26
24.64
19.31
12.75
5.73
-0.96
-6.76
-11.53
-15.58
-19.64
-24.57
-30.99
-38.81
-46.96
-53.48
-55.91
-52.07
-40.72
-22.11
1.91
28.16
52.79
71.98
82.82
84.00
76.05
61.24
42.87
24.46
8.85
-2.25
-8.38
-10.00
-8.19
-4.25
0.54
5.15
8.99
12.09
14.92
18.13
22.25
27.33
32.95
38.34
42.63
45.04
45.09
42.63
37.85
31.23
23.40
14.88
5.95
-3.31
-12.81
-22.13
-30.21
-35.44
-36.02
-30.52
-18.38
-0.27
21.92
45.35
66.76
83.21
92.84
95.27
91.70
84.36
75.66
67.31
59.93
53.17
46.27
38.70
30.44
21.87
13.41
5.28
-2.61
-10.36
-17.90
-24.92
-31.03
-36.08
-40.33
-44.40
-49.04
-54.74
-61.50
-68.89
-76.26
-82.99
-88.77
-93.62
-97.85
-101.97
-106.53
-111.85
-117.87
-123.93
-128.77
-130.88
-128.84
-121.93
-110.40
-95.52
-79.16
-63.30
-49.42
-38.20
-29.40
-22.17
-15.39
-8.10
0.25
9.72
19.98
30.62
41.30
51.81
62.02
71.75
80.73
88.57
94.93
99.58
102.45
103.53
102.89
100.59
96.71
91.48
85.31
78.71
72.17
66.03
60.31
54.80
49.11
42.81
35.61
27.36
18.24
8.80
-0.10
-7.43
-12.32
-14.40
-13.88
-11.49
-8.18
-4.78
-1.90
0.13
1.16
1.19
0.43
-0.73
-1.72
-2.05
-1.54
-0.46
0.54
0.79
-0.07
-1.93
-4.26
-6.42
-7.97
-8.91
-9.63
-10.67
-12.47
-15.13
-18.35
-21.65
-24.53
-26.72
-28.26
-29.48
-30.83
-32.82
-35.86
-40.25
-46.11
-53.20
-60.77
-67.52
-71.73
-71.77
-66.62
-56.38
-42.26
-26.23
-10.32
4.00
16.11
26.10
34.38
41.29
46.87
51.00
53.61
54.92
55.41
55.71
56.40
57.85
60.16
63.19
66.65
70.17
73.31
75.53
76.26
75.03
71.67
66.50
60.30
54.09
48.64
44.04
39.52
33.68
25.14
13.14
-2.04
-18.99
-35.64
-49.78
-59.59
-63.97
-62.59
-55.81
-44.53
-30.11
-14.20
1.47
15.35
26.32
33.94
38.45
40.60
41.42
41.87
42.61
43.99
46.00
48.42
50.88
52.92
54.10
54.11
52.87
50.63
47.87
45.22
43.15
41.85
41.05
40.05
37.96
33.82
26.94
16.98
4.00
-11.74
-29.77
-49.56
-70.49
-91.78
-112.44
-131.37
-147.46
-159.68
-167.28
-169.82
-167.33
-160.38
-150.05
-137.77
-125.07
-113.30
-103.44
-95.90
-90.35
-85.71
-80.26
-72.15
-60.11
-44.04
-25.29
-6.18
10.79
23.96
33.06
39.02
43.36
47.33
51.28
54.63
56.22
54.85
49.86
41.42
30.54
18.79
7.95
-0.59
-6.09
-8.62
-8.95
-8.43
-8.54
-10.54
-14.97
-21.39
-28.34
-33.72
-35.43
-32.10
-23.49
-10.60
4.70
20.22
33.96
44.47
50.96
53.31
51.97
47.83
42.03
35.71
29.85
25.03
21.37
18.65
16.41
14.17
11.65
8.83
5.92
3.22
0.96
-0.84
-2.40
-3.97
-5.77
-7.84
-10.10
-12.39
-14.65
-16.89
-19.26
-21.97
-25.34
-29.66
-35.05
-41.20
-47.20
-51.59
-52.70
-49.26
-40.93
-28.52
-13.75
1.38
15.24
26.92
36.20
43.22
48.14
50.98
51.73
50.55
47.86
44.40
40.95
38.17
36.39
35.62
35.63
36.12
36.84
37.56
38.13
38.36
38.02
36.89
34.88
32.13
28.99
25.83
22.74
19.39
15.00
8.61
-0.46
-12.26
-26.00
-40.15
-52.80
-62.12
-66.82
-66.39
-61.12
-51.91
-40.13
-27.27
-14.75
-3.78
4.86
10.83
14.28
15.71
15.77
15.04
13.90
12.52
10.96
9.30
7.67
6.26
5.21
4.58
4.37
4.62
5.40
6.74
8.56
10.55
12.21
13.02
12.65
11.08
8.65
5.84
3.13
0.83
-1.00
-2.52
-4.13
-6.34
-9.60
-13.96
-18.85
-22.91
-24.38
-21.63
-13.82
-1.28
14.61
31.97
49.04
64.58
77.91
88.68
96.59
101.32
102.70
100.85
96.26
89.60
81.45
72.17
61.89
50.72
38.94
27.08
15.79
5.63
-3.08
-10.35
-16.47
-21.85
-26.90
-31.96
-37.29
-43.01
-49.08
-55.20
-60.90
-65.64
-69.04
-71.09
-72.24
-73.34
-75.41
-79.23
-84.98
-91.97
-98.61
-102.83
-102.68
-96.95
-85.67
-70.07
-52.13
-34.02
-17.48
-3.61
7.11
14.57
18.84
20.06
18.61
15.10
10.43
5.57
1.29
-2.03
-4.52
-6.68
-9.17
-12.39
-16.32
-20.40
-23.76
-25.60
-25.58
-24.02
-21.84
-20.16
-19.92
-21.55
-24.85
-29.17
-33.67
-37.59
-40.40
-41.99
-42.68
-43.22
-44.61
-47.70
-52.67
-58.72
-64.01
-66.19
-63.20
-54.13
-39.52
-21.30
-2.06
15.76
30.48
41.44
48.82
53.21
55.36
55.92
55.44
54.43
53.39
52.80
52.95
53.89
55.39
56.99
58.20
58.68
58.36
57.38
55.97
54.24
52.11
49.38
45.88
41.68
37.12
32.76
29.08
26.28
24.07
21.83
18.69
13.91
7.15
-1.25
-10.27
-18.29
-23.55
-24.65
-20.98
-12.93
-1.68
11.27
24.64
37.68
50.28
62.69
75.24
87.95
100.40
111.79
121.17
127.87
131.81
133.56
134.07
134.09
133.65
131.83
127.08
117.89
103.47
84.19
61.36
36.73
11.85
-12.20
-34.84
-55.78
-74.75
-91.47
-105.67
-117.29
-126.54
-133.84
-139.79
-145.03
-150.15
-155.64
-161.78
-168.40
-174.84
-179.94
-182.27
-180.43
-173.41
-160.85
-143.08
-121.10
-96.40
-70.68
-45.57
-22.39
-2.04
15.00
28.61
38.93
46.32
51.39
54.84
57.36
59.40
60.98
61.76
61.28
59.28
55.98
52.03
48.24
45.21
43.07
41.36
39.28
36.06
31.25
24.93
17.64
10.16
3.18
-2.97
-8.38
-13.56
-19.15
-25.68
-33.18
-41.07
-48.13
-52.76
-53.48
-49.47
-40.87
-28.81
-15.10
-1.62
10.16
19.53
26.46
31.48
35.29
38.49
41.36
43.89
45.83
46.90
46.97
46.16
44.82
43.32
42.01
41.06
40.50
40.26
40.29
40.44
40.48
40.04
38.67
35.99
31.92
26.74
21.09
15.77
11.45
8.39
6.29
4.39
1.73
-2.52
-8.63
-16.15
-23.88
-30.14
-33.21
-31.85
-25.61
-14.96
-1.11
14.44
30.23
45.21
58.68
70.25
79.54
86.08
89.30
88.72
84.18
76.00
64.97
52.17
38.67
25.25
12.32
0.01
-11.52
-21.92
-30.60
-36.97
-40.78
-42.35
-42.58
-42.62
-43.48
-45.64
-49.00
-53.09
-57.36
-61.52
-65.65
-70.15
-75.51
-82.09
-89.85
-98.21
-106.00
-111.65
-113.57
-110.67
-102.77
-90.78
-76.51
-62.11
-49.52
-40.03
-34.07
-31.31
-30.80
-31.19
-30.99
-28.91
-24.21
-16.90
-7.75
2.05
11.44
19.85
27.35
34.35
41.23
47.93
53.88
58.28
60.40
60.00
57.33
53.02
47.86
42.50
37.34
32.47
27.77
22.99
17.76
11.72
4.66
-3.19
-11.06
-17.63
-21.34
-20.96
-16.01
-6.95
4.95
18.06
30.95
42.58
52.31
59.78
64.71
66.93
66.52
63.93
59.94
55.41
50.98
46.90
43.02
38.97
34.41
29.19
23.38
17.06
10.18
2.48
-6.46
-16.97
-29.19
-42.93
-57.85
-73.46
-89.12
-103.99
-117.02
-127.19
-133.92
-137.47
-138.93
-139.69
-140.56
-141.04
-139.26
-132.75
-119.70
-99.92
-75.14
-48.32
-22.50
0.20
18.91
33.72
45.03
53.17
58.24
60.37
60.04
58.14
55.67
53.52
52.08
51.28
50.75
50.07
49.02
47.63
46.07
44.49
42.87
40.97
38.44
34.92
30.25
24.53
18.16
11.75
5.88
1.00
-2.86
-6.07
-9.42
-13.81
-19.91
-27.75
-36.49
-44.50
-49.77
-50.60
-46.19
-36.91
-24.18
-9.89
4.18
16.76
27.23
35.44
41.38
45.08
46.61
46.19
44.26
41.47
38.51
35.94
34.03
32.74
31.80
30.88
29.78
28.50
27.23
26.17
25.36
24.58
23.37
21.23
17.87
13.36
8.18
2.99
-1.62
-5.39
-8.48
-11.39
-14.81
-19.35
-25.27
-32.36
-39.84
-46.41
-50.61
-51.19
-47.51
-39.77
-28.99
-16.60
-4.03
7.63
17.71
25.93
32.14
36.26
38.29
38.39
36.98
34.60
31.80
29.04
26.58
24.53
22.95
21.84
21.13
20.63
20.07
19.13
17.55
15.22
12.20
8.70
5.01
1.35
-2.13
-5.47
-8.80
-12.35
-16.47
-21.45
-27.43
-34.15
-40.82
-46.12
-48.53
-46.82
-40.53
-30.24
-17.42
-3.90
8.68
19.32
27.68
33.88
38.12
40.51
41.07
39.86
37.07
33.11
28.48
23.70
19.14
15.09
11.72
9.17
7.55
6.92
7.17
8.02
8.95
9.37
8.74
6.75
3.42
-0.87
-5.60
-10.28
-14.62
-18.57
-22.31
-26.18
-30.56
-35.71
-41.63
-47.79
-53.07
-55.94
-54.91
-49.05
-38.49
-24.43
-8.81
6.27
19.19
29.11
35.89
39.93
41.78
41.99
40.97
39.07
36.50
33.41
29.83
25.77
21.25
16.39
11.48
6.90
3.10
0.40
-1.14
-1.76
-1.96
-2.32
-3.24
-4.85
-6.99
-9.28
-11.29
-12.78
-13.71
-14.27
-14.85
-15.96
-18.15
-21.81
-26.97
-33.05
-38.84
-42.72
-43.14
-39.15
-30.76
-18.90
-5.12
8.91
21.82
32.68
40.96
46.41
48.98
48.84
46.43
42.50
37.93
33.52
29.78
26.90
24.79
23.25
22.12
21.31
20.77
20.34
19.77
18.69
16.72
13.61
9.30
3.95
-2.14
-8.54
-14.79
-20.55
-25.58
-29.89
-33.73
-37.53
-41.81
-46.81
-52.34
-57.57
-61.15
-61.60
-57.85
-49.66
-37.76
-23.69
-9.29
3.81
14.51
22.35
27.38
29.99
30.64
29.82
27.97
25.42
22.41
19.13
15.80
12.72
10.23
8.63
8.03
8.30
9.07
9.87
10.24
9.85
8.59
6.48
3.74
0.59
-2.73
-6.07
-9.35
-12.65
-16.14
-20.10
-24.79
-30.21
-35.90
-40.84
-43.62
-42.85
-37.72
-28.39
-15.99
-2.29
10.85
22.04
30.55
36.24
39.34
40.16
39.05
36.35
32.53
28.19
23.92
20.27
17.55
15.76
14.67
13.91
13.12
12.03
10.51
8.49
5.93
2.82
-0.85
-4.96
-9.27
-13.51
-17.44
-20.95
-24.12
-27.20
-30.53
-34.54
-39.60
-45.89
-53.11
-60.31
-65.95
-68.19
-65.53
-57.35
-44.15
-27.38
-8.93
9.48
26.58
41.54
53.79
62.76
68.04
69.52
67.67
63.52
58.40
53.49
49.48
46.49
44.23
42.29
40.40
38.48
36.58
34.69
32.66
30.15
26.78
22.26
16.56
9.99
3.11
-3.39
-8.98
-13.41
-16.82
-19.74
-22.92
-27.07
-32.68
-39.81
-47.94
-55.97
-62.43
-65.76
-64.82
-59.20
-49.46
-36.98
-23.53
-10.76
0.18
8.80
15.08
19.28
21.64
22.36
21.69
20.03
17.97
16.18
15.15
14.98
15.36
15.73
15.56
14.64
13.17
11.63
10.48
9.84
9.41
8.60
6.82
3.76
-0.45
-5.33
-10.27
-14.79
-18.71
-22.16
-25.51
-29.23
-33.72
-39.19
-45.48
-51.95
-57.51
-60.84
-60.77
-56.67
-48.72
-37.83
-25.34
-12.60
-0.58
10.24
19.66
27.58
33.79
38.02
40.09
40.08
38.43
35.77
32.79
30.01
27.72
26.02
24.87
24.24
24.07
24.30
24.78
25.26
25.40
24.88
23.47
21.09
17.80
13.82
9.47
5.03
0.69
-3.59
-8.05
-13.03
-18.70
-24.77
-30.36
-34.11
-34.61
-30.88
-22.82
-11.22
2.47
16.68
30.18
42.26
52.73
61.62
69.03
74.97
79.44
82.61
84.82
86.64
88.62
91.13
94.24
97.68
100.97
103.53
104.74
103.95
100.41
93.34
82.10
66.45
46.77
24.07
-0.26
-24.85
-48.69
-71.26
-92.39
-111.86
-129.19
-143.60
-154.25
-160.62
-162.69
-160.91
-155.85
-147.86
-136.98
-123.11
-106.48
-87.90
-68.82
-50.87
-35.30
-22.58
-12.38
-3.90
3.64
10.65
17.13
22.87
27.72
31.67
34.84
37.33
39.08
39.97
40.02
39.42
38.55
37.79
37.27
36.73
35.60
33.19
29.03
23.02
15.51
7.15
-1.37
-9.53
-17.12
-24.18
-30.92
-37.45
-43.52
-48.40
-50.74
-48.82
-41.01
-26.52
-6.09
17.68
40.75
58.84
68.89
70.22
64.66
55.69
46.93
40.81
38.03
37.92
39.29
41.09
42.76
43.88
43.95
42.33
38.49
32.37
24.60
16.32
8.76
2.87
-1.12
-3.85
-6.68
-11.38
-19.41
-31.27
-46.13
-61.83
-75.63
-85.22
-89.64
-89.58
-87.05
-84.35
-83.09
-83.50
-84.47
-84.10
-80.63
-73.16
-61.97
-48.34
-33.95
-20.31
-8.37
1.59
9.66
15.97
20.43
22.81
22.92
20.85
17.13
12.61
8.20
4.61
2.12
0.63
-0.20
-0.75
-1.25
-1.70
-1.96
-1.88
-1.44
-0.87
-0.56
-0.96
-2.36
-4.76
-7.90
-11.34
-14.68
-17.79
-20.93
-24.63
-29.48
-35.73
-42.95
-49.98
-55.14
-56.78
-53.94
-46.63
-35.89
-23.34
-10.62
1.06
11.01
19.02
25.05
29.09
31.17
31.51
30.47
28.65
26.62
24.81
23.43
22.48
21.82
21.30
20.82
20.33
19.80
19.13
18.18
16.79
14.84
12.34
9.41
6.28
3.07
-0.23
-3.87
-8.28
-13.90
-20.96
-29.21
-37.89
-45.81
-51.59
-54.04
-52.50
-47.01
-38.31
-27.59
-16.23
-5.55
3.47
10.24
14.58
16.67
16.93
15.83
13.84
11.36
8.72
6.26
4.26
2.94
2.31
2.27
2.63
3.26
4.20
5.53
7.24
9.04
10.28
10.14
7.99
3.63
-2.47
-9.36
-15.94
-21.38
-25.38
-28.31
-30.96
-34.29
-38.91
-44.81
-51.17
-56.46
-58.91
-56.98
-49.91
-37.95
-22.28
-4.60
13.28
29.83
43.90
54.66
61.52
64.09
62.37
56.94
48.99
40.12
31.97
25.73
21.83
19.95
19.32
19.18
19.08
19.08
19.52
20.74
22.79
25.37
27.85
29.58
30.00
28.83
26.07
21.95
16.83
11.11
5.10
-1.05
-7.41
-14.11
-21.16
-28.15
-34.16
-37.88
-37.99
-33.66
-24.89
-12.62
1.60
16.00
29.09
39.90
47.99
53.34
56.14
56.70
55.35
52.48
48.48
43.77
38.66
33.41
28.13
22.95
17.95
13.29
9.11
5.53
2.51
-0.09
-2.54
-5.06
-7.77
-10.60
-13.35
-15.79
-17.76
-19.24
-20.47
-21.87
-24.05
-27.66
-33.23
-40.84
-49.92
-59.15
-66.69
-70.65
-69.68
-63.46
-52.77
-39.25
-24.84
-11.20
0.61
10.22
17.69
23.25
27.12
29.37
30.10
29.45
27.75
25.47
23.12
21.15
19.83
19.15
18.92
18.85
18.71
18.35
17.74
16.88
15.68
14.03
11.79
8.93
5.56
1.90
-1.89
-5.81
-10.18
-15.51
-22.17
-30.07
-38.43
-45.88
-50.82
-52.00
-48.94
-42.13
-32.81
-22.60
-13.10
-5.51
-0.54
1.71
1.61
-0.12
-2.59
-5.07
-7.04
-8.40
-9.28
-9.85
-10.05
-9.43
-7.22
-2.52
5.27
16.14
29.37
43.68
57.68
70.33
81.25
90.64
98.92
106.27
112.37
116.40
117.45
114.87
108.56
98.94
86.96
73.94
61.63
52.08
47.32
48.73
56.40
68.88
83.47
97.28
108.21
115.65
120.38
123.78
126.85
129.64
131.43
131.46
129.71
127.23
125.74
126.76
130.71
136.56
141.99
144.32
141.25
131.53
114.97
91.96
62.83
27.39
-14.80
-63.61
-117.36
-172.39
-223.56
-265.60
-294.62
-309.20
-310.32
-300.47
-282.38
-258.23
-229.63
-198.10
-165.65
-134.72
-107.61
-85.56
-68.28
-54.02
-40.36
-25.14
-7.36
12.40
31.84
47.37
55.17
52.44
38.68
16.20
-10.29
-35.20
-53.92
-64.19
-66.36
-62.47
-54.94
-45.52
-35.10
-24.24
-13.82
-5.31
-0.19
0.71
-2.18
-7.29
-12.57
-16.36
-18.00
-17.98
-17.54
-18.11
-20.69
-25.50
-31.81
-38.20
-42.90
-44.40
-41.89
-35.48
-25.98
-14.47
-1.90
11.13
24.11
36.30
46.47
53.07
54.72
50.92
42.35
30.79
18.42
7.14
-1.93
-8.48
-12.72
-14.93
-15.24
-13.68
-10.33
-5.53
0.13
6.01
11.60
16.49
20.27
22.36
22.13
19.27
14.17
8.11
2.85
0.02
0.46
3.86
9.08
14.51
18.69
20.62
19.85
16.44
10.91
4.07
-3.23
-10.24
-16.58
-22.26
-27.44
-32.15
-36.13
-38.86
-39.72
-38.30
-34.45
-28.42
-20.71
-12.06
-3.31
4.61
10.90
14.90
16.25
14.88
10.97
5.05
-2.10
-9.45
-15.85
-20.32
-22.24
-21.57
-18.79
-14.83
-10.79
-7.61
-5.91
-5.83
-7.08
-9.13
-11.39
-13.43
-15.01
-16.14
-16.94
-17.68
-18.79
-20.95
-24.95
-31.44
-40.39
-50.81
-60.64
-67.32
-68.59
-63.35
-52.13
-36.96
-20.85
-6.87
2.49
5.87
3.17
-4.60
-15.63
-27.79
-39.02
-47.72
-52.89
-54.20
-51.77
-45.99
-37.36
-26.46
-13.83
-0.06
14.25
28.51
42.12
54.62
65.70
75.31
83.69
91.15
97.90
103.86
108.55
111.33
111.66
109.27
104.23
96.84
87.48
76.73
65.62
55.64
48.58
45.85
47.72
52.98
59.30
64.26
66.26
64.74
59.60
50.27
35.39
13.56
-15.30
-48.77
-82.07
-109.47
-126.52
-131.63
-126.31
-113.98
-98.25
-81.59
-65.09
-49.03
-33.68
-19.74
-8.10
0.60
6.28
9.40
10.69
10.75
9.89
8.18
5.60
2.17
-1.94
-6.54
-11.44
-16.59
-22.06
-27.95
-34.29
-40.80
-46.81
-51.26
-53.01
-51.15
-45.44
-36.44
-25.37
-13.71
-2.75
6.73
14.52
20.68
25.32
28.44
29.97
29.96
28.67
26.59
24.15
21.61
19.04
16.35
13.61
11.10
9.35
8.79
9.53
11.13
12.64
12.98
11.29
7.33
1.56
-5.12
-11.66
-17.30
-21.70
-24.95
-27.40
-29.54
-31.92
-35.02
-39.16
-44.24
-49.55
-53.88
-55.81
-54.23
-48.75
-39.84
-28.63
-16.41
-4.29
7.00
16.98
25.25
31.36
34.91
35.77
34.27
31.16
27.50
24.30
22.24
21.54
21.91
22.78
23.51
23.62
22.95
21.59
19.85
18.03
16.29
14.70
13.20
11.77
10.42
9.10
7.64
5.63
2.60
-1.81
-7.54
-13.96
-19.95
-24.07
-25.03
-22.04
-15.15
-5.25
6.08
17.09
26.43
33.53
38.68
42.69
46.40
50.12
53.53
55.92
56.62
55.46
52.82
49.43
45.93
42.66
39.58
36.56
33.64
31.16
29.62
29.41
30.43
32.03
33.14
32.66
29.88
24.79
18.04
10.64
3.62
-2.39
-7.32
-11.61
-15.99
-21.19
-27.64
-35.22
-43.19
-50.24
-54.73
-55.09
-50.35
-40.43
-26.29
-9.56
7.89
24.58
39.65
52.86
64.30
74.04
81.92
87.57
90.55
90.57
87.50
81.35
72.25
60.44
46.36
30.76
14.63
-1.02
-15.42
-28.27
-39.74
-50.20
-59.90
-68.80
-76.54
-82.65
-86.90
-89.35
-90.41
-90.64
-90.63
-90.93
-92.08
-94.52
-98.56
-104.00
-110.01
-115.06
-117.17
-114.52
-105.96
-91.50
-72.32
-50.44
-28.22
-7.72
9.60
23.06
32.55
38.38
41.01
41.01
38.95
35.53
31.57
27.92
25.38
24.44
25.17
27.19
29.81
32.26
33.93
34.45
33.68
31.59
28.17
23.49
17.74
11.32
4.84
-1.02
-5.75
-9.26
-11.90
-14.39
-17.47
-21.46
-25.97
-29.90
-31.77
-30.33
-25.12
-16.72
-6.56
3.64
12.49
19.27
23.99
27.03
28.73
29.18
28.28
25.91
22.23
17.75
13.23
9.43
6.84
5.59
5.44
5.95
6.66
7.23
7.50
7.35
6.74
5.65
4.22
2.83
2.01
2.11
2.95
3.62
2.68
-1.23
-8.70
-19.24
-31.31
-42.87
-52.00
-57.32
-58.12
-54.35
-46.54
-35.68
-23.13
-10.37
1.39
11.42
19.52
25.84
30.59
33.91
35.91
36.88
37.35
37.92
39.01
40.60
42.28
43.51
43.99
43.91
43.84
44.45
46.14
48.74
51.59
53.73
54.31
52.89
49.59
44.94
39.62
34.16
28.86
23.67
18.37
12.56
5.78
-2.36
-11.91
-22.32
-32.38
-40.33
-44.43
-43.64
-38.06
-28.95
-18.28
-7.96
0.68
7.13
11.50
14.10
15.21
15.00
13.64
11.48
9.01
6.74
4.97
3.71
2.70
1.62
0.23
-1.51
-3.41
-5.14
-6.39
-6.95
-6.82
-6.20
-5.38
-4.63
-4.07
-3.72
-3.53
-3.50
-3.73
-4.40
-5.71
-7.84
-10.94
-15.13
-20.35
-26.16
-31.59
-35.15
-35.23
-30.64
-21.10
-7.37
9.01
26.30
42.99
58.02
70.64
80.27
86.37
88.61
87.11
82.54
76.03
68.87
62.05
56.05
50.82
45.95
40.88
35.16
28.57
21.15
13.11
4.79
-3.50
-11.47
-18.92
-25.67
-31.54
-36.40
-40.24
-43.28
-45.98
-48.94
-52.64
-57.29
-62.75
-68.59
-74.29
-79.27
-82.96
-84.75
-84.11
-80.77
-74.95
-67.34
-58.83
-50.15
-41.55
-32.76
-23.42
-13.55
-3.77
4.86
11.36
15.35
17.24
18.00
18.62
19.71
21.33
23.16
24.89
26.46
28.08
30.01
32.38
35.03
37.54
39.41
40.16
39.46
37.17
33.40
28.44
22.69
16.49
9.95
2.92
-4.79
-13.10
-21.38
-28.50
-33.15
-34.41
-32.15
-27.08
-20.43
-13.33
-6.53
-0.23
5.59
10.83
15.15
18.06
19.24
18.79
17.27
15.44
13.91
12.88
12.14
11.26
9.96
8.28
6.71
5.93
6.60
9.02
12.96
17.61
21.78
24.10
23.44
19.22
11.67
1.73
-9.22
-19.92
-29.62
-38.32
-46.47
-54.48
-62.20
-68.67
-72.38
-71.75
-65.83
-54.62
-39.17
-21.29
-3.15
13.15
25.99
34.44
38.38
38.46
35.82
31.74
27.35
23.42
20.33
18.25
17.21
17.11
17.81
18.99
20.25
21.15
21.37
20.89
19.93
19.03
18.78
19.69
21.93
25.23
28.93
32.08
33.60
32.41
27.50
18.17
4.32
-13.12
-31.99
-49.16
-61.27
-65.74
-61.65
-49.93
-33.01
-13.80
5.13
22.10
36.33
47.53
55.54
60.15
61.08
58.19
51.69
42.15
30.53
17.99
5.66
-5.51
-14.99
-22.56
-28.29
-32.36
-34.97
-36.38
-36.93
-37.03
-37.17
-37.71
-38.79
-40.34
-42.05
-43.63
-44.83
-45.66
-46.40
-47.58
-49.85
-53.64
-58.78
-64.25
-68.30
-68.96
-64.81
-55.52
-41.93
-25.70
-8.69
7.63
22.32
34.82
44.67
51.44
54.77
54.67
51.56
46.26
39.61
32.26
24.58
16.78
9.15
2.16
-3.60
-7.60
-9.62
-9.80
-8.70
-7.03
-5.49
-4.54
-4.43
-5.15
-6.57
-8.59
-11.20
-14.54
-18.87
-24.45
-31.30
-38.98
-46.43
-52.13
-54.34
-51.64
-43.32
-29.74
-12.32
6.73
24.92
40.18
51.26
58.05
61.32
62.38
62.53
62.70
63.28
64.23
65.29
66.12
66.43
65.94
64.36
61.48
57.26
52.07
46.71
42.25
39.73
39.68
41.87
45.24
48.24
49.40
47.86
43.75
38.03
32.02
26.73
22.31
18.03
12.70
5.43
-3.70
-13.49
-22.08
-27.86
-30.15
-29.50
-27.20
-24.50
-22.05
-19.82
-17.63
-15.69
-14.81
-15.97
-19.66
-25.30
-31.30
-35.72
-37.16
-35.40
-31.36
-26.57
-22.37
-19.39
-17.58
-16.72
-16.87
-18.61
-22.81
-30.10
-40.37
-52.62
-65.24
-76.54
-85.28
-90.90
-93.48
-93.56
-91.91
-89.50
-87.36
-86.47
-87.43
-90.12
-93.58
-96.07
-95.67
-90.87
-81.15
-67.16
-50.49
-33.10
-16.75
-2.60
8.84
17.57
23.87
28.24
31.32
33.96
37.09
41.50
47.53
54.93
63.04
71.08
78.55
85.39
91.94
98.62
105.63
112.85
119.94
126.53
132.47
137.83
142.74
147.21
150.88
153.03
152.85
149.83
144.02
136.10
127.09
117.96
109.25
100.87
92.16
82.05
69.14
51.81
28.40
-2.35
-40.55
-84.52
-130.57
-173.63
-208.51
-231.32
-240.39
-236.45
-222.00
-200.34
-174.85
-148.44
-123.39
-101.28
-82.92
-68.34
-56.82
-47.29
-38.69
-30.32
-21.96
-13.75
-5.98
1.08
7.21
12.26
16.12
18.76
20.20
20.45
19.46
17.01
12.78
6.46
-2.14
-12.98
-25.75
-39.82
-54.17
-67.37
-77.74
-83.62
-83.79
-77.90
-66.53
-51.06
-33.23
-14.72
3.04
19.05
32.53
42.92
49.89
53.46
54.05
52.53
49.92
47.22
45.13
43.95
43.58
43.68
43.87
43.89
43.64
43.15
42.49
41.70
40.76
39.63
38.23
36.44
34.01
30.52
25.49
18.42
8.98
-2.94
-17.10
-33.00
-49.77
-66.16
-80.53
-91.02
-95.93
-94.13
-85.56
-71.33
-53.56
-34.80
-17.39
-2.94
7.94
15.49
20.49
23.80
26.13
27.81
28.89
29.28
28.91
27.86
26.43
25.07
24.27
24.44
25.76
28.09
30.96
33.65
35.34
35.33
33.31
29.49
24.55
19.50
15.33
12.72
11.78
12.04
12.56
12.17
9.85
4.99
-2.25
-10.80
-18.73
-23.51
-22.79
-15.10
-0.57
18.94
40.34
60.13
75.43
84.59
87.32
84.40
77.11
66.83
54.78
42.02
29.40
17.62
7.08
-2.09
-10.07
-17.11
-23.43
-29.04
-33.76
-37.33
-39.57
-40.56
-40.66
-40.46
-40.53
-41.29
-42.85
-45.09
-47.74
-50.57
-53.56
-56.92
-61.00
-66.20
-72.75
-80.55
-88.99
-96.94
-102.84
-105.11
-102.61
-95.02
-83.04
-68.13
-52.10
-36.47
-22.10
-9.13
2.73
13.71
23.57
31.62
37.00
39.19
38.43
35.82
32.91
31.23
31.69
34.39
38.74
43.87
48.93
53.39
56.95
59.44
60.63
60.25
58.02
53.83
47.85
40.53
32.41
23.99
15.43
6.54
-3.02
-13.37
-23.99
-33.58
-40.36
-42.63
-39.51
-31.31
-19.45
-6.02
6.91
17.86
26.14
31.74
34.95
36.13
35.54
33.36
29.83
25.31
20.25
15.16
10.51
6.69
3.99
2.53
2.26
2.91
4.01
4.97
5.19
4.22
1.89
-1.74
-6.36
-11.59
-17.01
-22.31
-27.35
-32.28
-37.47
-43.32
-49.96
-56.85
-62.83
-66.21
-65.42
-59.57
-48.88
-34.61
-18.74
-3.28
10.24
20.96
28.69
33.60
35.96
35.99
33.88
29.93
24.68
18.94
13.62
9.60
7.38
7.04
8.22
10.33
12.75
15.07
17.06
18.74
20.17
21.39
22.34
22.84
22.56
21.15
18.29
13.73
7.40
-0.57
-9.71
-19.13
-27.48
-33.11
-34.48
-30.68
-21.82
-9.09
5.50
19.77
31.94
41.02
46.82
49.65
50.02
48.32
44.92
40.14
34.50
28.68
23.40
19.21
16.33
14.61
13.70
13.20
12.83
12.48
12.08
11.51
10.56
9.03
6.83
4.05
0.93
-2.30
-5.61
-9.20
-13.48
-18.95
-26.01
-34.76
-44.81
-55.10
-63.93
-69.29
-69.37
-63.22
-51.16
-34.74
-16.36
1.49
16.87
28.68
36.72
41.33
43.12
42.69
40.62
37.44
33.66
29.80
26.23
23.17
20.64
18.52
16.70
15.14
13.90
13.08
12.64
12.30
11.60
10.06
7.39
3.70
-0.58
-4.90
-8.86
-12.37
-15.72
-19.39
-23.92
-29.61
-36.47
-43.98
-51.04
-56.12
-57.48
-53.82
-44.72
-30.97
-14.35
2.86
18.58
31.47
41.07
47.56
51.37
52.93
52.50
50.37
46.92
42.70
38.35
34.46
31.40
29.31
28.11
27.68
27.85
28.54
29.62
30.92
32.16
32.96
32.98
31.92
29.68
26.27
21.86
16.64
10.87
4.71
-1.76
-8.67
-16.26
-24.78
-34.12
-43.61
-51.88
-57.17
-57.89
-53.24
-43.56
-30.35
-15.69
-1.65
10.31
19.45
25.69
29.27
30.48
29.66
27.22
23.75
19.95
16.51
13.88
12.18
11.23
10.70
10.30
9.90
9.56
9.40
9.46
9.54
9.26
8.18
5.99
2.70
-1.32
-5.49
-9.25
-12.30
-14.71
-16.94
-19.64
-23.44
-28.61
-34.78
-40.86
-45.20
-46.03
-42.05
-32.92
-19.50
-3.58
12.56
26.75
37.40
43.75
45.81
44.21
39.97
34.23
28.12
22.53
17.97
14.63
12.39
10.99
10.19
9.78
9.64
9.68
9.79
9.93
10.06
10.34
11.10
12.82
15.86
20.30
25.76
31.55
37.14
42.56
48.42
55.52
63.99
72.58
78.63
78.93
71.08
54.87
32.67
8.70
-12.54
-27.94
-36.76
-40.46
-41.67
-42.81
-45.23
-48.88
-52.57
-54.71
-53.59
-47.56
-35.22
-15.89
9.55
37.59
61.87
74.43
68.76
43.18
3.03
-40.27
-73.28
-86.05
-76.11
-49.11
-15.49
14.57
35.30
46.42
51.11
52.54
51.48
46.14
34.16
15.05
-8.66
-32.06
-50.09
-59.75
-61.11
-56.93
-51.08
-46.57
-44.47
-43.82
-42.73
-39.73
-34.72
-29.09
-24.87
-23.51
-25.06
-28.06
-30.26
-29.80
-26.06
-20.02
-13.73
-9.37
-8.30
-10.64
-15.35
-20.81
-25.57
-28.82
-30.45
-30.96
-31.00
-31.17
-31.80
-33.04
-34.95
-37.56
-40.93
-45.05
-49.70
-54.36
-58.24
-60.41
-60.12
-56.99
-51.24
-43.61
-35.21
-27.17
-20.35
-15.21
-11.72
-9.64
-8.63
-8.54
-9.32
-10.94
-13.18
-15.53
-17.27
-17.73
-16.59
-13.95
-10.32
-6.32
-2.40
1.31
4.99
8.93
13.32
18.24
23.56
29.02
34.08
37.85
39.03
36.25
28.45
15.49
-1.64
-20.86
-39.47
-54.81
-64.79
-68.15
-64.60
-54.70
-39.81
-21.93
-3.50
13.03
25.72
33.54
36.55
35.74
32.57
28.48
24.58
21.64
20.24
20.90
24.11
30.16
38.93
49.76
61.65
73.61
85.24
96.99
109.98
125.10
142.04
158.64
171.05
174.81
166.36
144.03
108.29
61.22
5.89
-54.12
-114.63
-170.71
-216.97
-248.47
-262.03
-257.19
-236.41
-204.20
-165.67
-125.26
-85.97
-49.66
-17.59
8.76
27.36
36.06
33.45
19.84
-2.28
-28.52
-53.73
-73.57
-85.50
-89.10
-85.53
-76.71
-64.53
-50.58
-36.16
-22.45
-10.48
-0.86
6.43
12.21
17.71
24.19
32.24
41.57
51.03
59.15
64.70
67.28
67.52
66.98
67.65
71.36
79.19
91.17
106.19
122.25
136.91
147.96
154.12
155.63
154.19
152.29
151.90
153.16
153.92
150.50
139.47
119.74
93.62
66.09
42.53
26.34
17.78
14.97
15.84
19.86
27.89
40.55
56.09
69.85
75.56
68.13
46.02
11.50
-31.10
-78.13
-128.18
-181.50
-237.74
-293.78
-343.26
-378.41
-393.15
-385.63
-358.80
-319.02
-273.42
-227.53
-184.33
-144.61
-108.24
-75.24
-46.18
-21.94
-3.03
10.84
20.83
28.59
35.72
43.16
50.85
57.87
62.87
64.78
63.50
60.04
56.22
53.87
53.96
56.25
59.37
61.59
61.56
58.93
54.35
49.13
44.54
41.41
39.84
39.22
38.21
34.91
27.30
13.85
-5.57
-29.26
-53.76
-74.55
-87.45
-89.72
-80.88
-62.77
-38.94
-13.91
7.88
22.79
28.73
25.56
15.12
0.86
-12.96
-22.18
-23.52
-15.19
2.86
28.92
59.63
90.40
116.15
132.39
136.34
127.76
108.93
83.85
56.79
31.06
8.38
-10.88
-26.94
-39.82
-49.19
-54.82
-57.21
-57.94
-59.37
-63.77
-72.30
-84.42
-98.00
-109.92
-117.08
-117.27
-109.77
-95.38
-76.12
-54.60
-33.32
-14.14
1.94
14.66
24.18
30.81
34.78
36.34
35.88
33.98
31.36
28.71
26.50
25.00
24.24
24.21
24.88
26.16
27.81
29.41
30.35
30.04
28.12
24.54
19.68
14.08
8.36
2.92
-2.16
-7.12
-12.48
-18.82
-26.48
-35.28
-44.23
-51.68
-55.66
-54.49
-47.38
-34.69
-17.80
1.31
20.63
38.54
54.00
66.45
75.60
81.33
83.68
82.89
79.52
74.44
68.68
63.22
58.80
55.86
54.46
54.44
55.48
57.09
58.69
59.54
58.86
56.03
50.77
43.25
34.09
24.17
14.33
5.19
-3.00
-10.36
-17.31
-24.50
-32.49
-41.50
-51.05
-59.78
-65.68
-66.71
-61.49
-49.93
-33.35
-14.03
5.54
23.42
38.53
50.62
59.82
66.32
70.22
71.54
70.51
67.64
63.72
59.67
56.29
54.11
53.28
53.65
54.86
56.43
57.98
59.26
60.15
60.64
60.73
60.45
59.89
59.21
58.65
58.34
58.09
57.21
54.59
49.00
39.49
25.79
8.43
-11.28
-31.46
-49.99
-64.77
-74.07
-76.92
-73.32
-64.38
-52.03
-38.53
-25.84
-15.16
-6.89
-0.81
3.48
6.28
7.80
8.20
7.86
7.36
7.46
8.92
12.35
18.07
25.87
34.86
43.44
49.52
51.10
46.97
37.16
23.08
7.00
-8.66
-22.12
-32.47
-39.70
-44.26
-46.83
-48.16
-49.16
-51.03
-54.98
-61.93
-71.93
-83.87
-95.50
-104.07
-107.08
-103.17
-92.50
-76.58
-57.76
-38.39
-20.33
-4.65
8.22
18.25
25.55
30.29
32.73
33.27
32.42
30.77
28.86
27.10
25.66
24.57
23.69
22.89
22.13
21.45
20.99
20.83
20.88
20.84
20.26
18.67
15.85
11.92
7.35
2.75
-1.37
-4.81
-7.69
-10.45
-13.64
-17.69
-22.81
-28.83
-35.16
-40.79
-44.51
-45.12
-41.85
-34.65
-24.22
-11.86
0.93
12.80
22.87
30.76
36.40
39.90
41.45
41.29
39.77
37.38
34.61
31.87
29.39
27.17
25.06
22.98
20.92
19.06
17.57
16.58
15.98
15.49
14.74
13.43
11.47
8.96
6.14
3.27
0.45
-2.30
-5.05
-7.87
-10.76
-13.70
-16.63
-19.43
-21.78
-23.14
-22.75
-19.83
-13.80
-4.52
7.67
21.98
37.38
52.88
67.79
81.85
95.18
107.93
120.09
131.24
140.74
147.94
152.23
152.86
148.58
137.50
117.54
87.53
48.37
3.62
-40.93
-78.77
-104.60
-115.80
-112.92
-99.06
-78.59
-55.81
-34.05
-15.32
-0.38
10.88
18.96
24.46
27.83
29.37
29.30
27.74
24.71
19.91
12.59
1.66
-14.09
-35.32
-61.64
-91.35
-121.84
-150.28
-174.58
-193.78
-207.91
-217.24
-221.56
-219.90
-211.00
-194.29
-170.70
-142.78
-113.99
-87.43
-64.86
-46.37
-30.90
-17.13
-4.30
7.50
17.55
25.17
30.09
32.65
33.54
33.37
32.45
30.67
27.66
23.08
16.83
9.22
1.05
-6.44
-11.72
-13.13
-9.34
0.22
15.02
33.25
52.14
68.56
79.97
85.07
84.29
79.53
73.50
68.76
66.80
67.56
69.48
70.03
66.58
57.21
41.36
20.02
-4.47
-28.99
-50.30
-65.81
-74.10
-75.13
-70.07
-60.83
-49.48
-37.67
-26.36
-15.83
-6.04
3.00
10.71
15.82
16.57
11.14
-1.57
-21.39
-46.51
-73.52
-97.96
-115.25
-121.85
-116.25
-99.52
-75.14
-48.08
-23.40
-4.86
5.91
9.45
7.78
3.41
-1.52
-5.58
-8.02
-8.49
-6.93
-3.59
0.94
5.63
9.40
11.42
11.54
10.42
9.23
9.20
11.01
14.52
18.80
22.50
24.46
24.08
21.61
17.89
14.08
11.32
10.45
11.79
15.15
19.65
23.89
26.30
25.67
21.66
15.02
7.43
0.96
-2.42
-1.39
4.42
14.22
26.01
36.84
43.63
44.06
37.52
25.51
11.12
-2.08
-11.28
-15.08
-13.48
-7.38
1.81
12.22
21.52
27.03
26.51
19.11
6.18
-8.93
-21.94
-29.30
-29.49
-23.45
-13.97
-4.32
2.87
6.35
6.17
3.33
-0.63
-3.90
-4.63
-1.26
7.05
19.99
35.95
52.48
66.92
77.28
82.59
82.90
78.80
71.04
60.47
48.19
35.79
25.16
17.91
14.68
14.61
15.69
15.49
12.21
5.35
-4.21
-14.84
-25.00
-33.85
-41.29
-47.61
-52.78
-56.13
-56.49
-52.74
-44.66
-33.15
-20.06
-7.40
3.34
11.61
17.57
21.57
23.72
23.85
21.91
18.33
14.14
10.56
8.48
8.12
9.06
10.68
12.60
14.80
17.58
21.16
25.55
30.52
35.87
41.55
47.78
54.90
63.14
72.23
81.25
88.73
93.01
92.95
88.41
80.43
70.75
61.07
52.16
43.52
33.69
21.16
5.38
-12.40
-29.20
-41.07
-44.43
-37.54
-21.50
-0.38
19.74
32.47
33.13
20.30
-3.90
-34.59
-65.97
-92.88
-111.99
-121.88
-122.62
-115.17
-101.04
-82.19
-61.06
-40.40
-22.67
-9.44
-1.09
3.03
3.92
2.24
-1.95
-8.93
-18.59
-29.97
-41.38
-51.06
-58.00
-62.49
-65.79
-69.44
-74.40
-80.56
-86.90
-92.05
-94.68
-93.81
-88.71
-78.85
-64.02
-44.66
-22.05
1.70
24.17
43.24
57.71
67.38
72.99
75.69
76.62
76.57
75.92
74.78
73.32
72.02
71.83
73.96
79.48
88.78
101.16
114.76
126.98
135.13
137.27
132.63
121.69
105.74
86.36
65.03
42.95
20.94
-0.47
-21.04
-40.68
-59.31
-76.38
-90.53
-99.37
-99.95
-89.61
-67.44
-35.43
0.98
33.90
55.19
59.38
45.89
19.56
-11.10
-37.22
-52.79
-56.45
-50.99
-41.11
-30.75
-21.52
-12.93
-3.73
6.45
16.49
24.22
27.75
26.45
21.30
14.26
7.14
0.71
-5.64
-13.38
-23.94
-37.77
-54.05
-71.03
-86.90
-100.58
-111.94
-121.43
-129.26
-134.79
-136.49
-132.56
-121.94
-104.91
-83.26
-59.68
-37.02
-17.55
-2.66
7.13
11.96
12.51
9.93
5.69
1.42
-1.59
-2.70
-2.24
-1.56
-2.59
-7.23
-16.53
-30.18
-46.37
-62.20
-74.50
-80.83
-80.09
-72.74
-60.39
-45.23
-29.41
-14.76
-2.73
5.59
9.65
9.62
6.70
2.95
0.76
2.03
7.48
16.42
27.15
37.68
46.53
53.03
57.26
59.60
60.40
59.75
57.61
53.96
49.01
43.16
36.99
31.11
26.13
22.48
20.32
19.45
19.38
19.48
19.18
18.21
16.57
14.40
11.79
8.71
5.01
0.58
-4.61
-10.50
-17.11
-24.52
-32.79
-41.58
-49.85
-55.83
-57.46
-53.09
-42.14
-25.50
-5.25
15.78
34.85
49.77
59.33
63.34
62.50
58.14
51.88
45.29
39.62
35.65
33.64
33.43
34.58
36.52
38.72
40.71
42.20
42.93
42.62
40.94
37.49
32.06
24.67
15.71
5.68
-5.06
-16.59
-29.39
-44.18
-61.49
-81.23
-102.36
-122.83
-139.88
-150.58
-152.53
-144.51
-126.85
-101.28
-70.50
-37.46
-4.82
25.36
51.62
72.94
88.61
98.28
102.09
100.77
95.59
88.15
80.00
72.31
65.60
59.79
54.40
48.94
43.25
37.72
33.17
30.59
30.65
33.45
38.33
43.97
48.58
50.29
47.54
39.55
26.71
10.68
-5.93
-20.27
-30.26
-35.31
-36.64
-36.80
-38.68
-44.29
-53.86
-65.66
-76.57
-83.23
-83.30
-76.11
-62.79
-45.52
-26.68
-8.15
8.96
23.93
36.11
44.73
48.97
48.46
43.55
35.38
25.49
15.33
5.82
-2.74
-10.51
-17.78
-24.80
-31.68
-38.58
-45.69
-53.15
-60.72
-67.55
-72.13
-72.73
-68.09
-57.94
-43.28
-25.98
-8.20
8.30
22.53
34.11
43.03
49.35
53.06
54.15
52.84
49.61
45.17
40.29
35.62
31.62
28.56
26.48
25.19
24.24
22.84
19.98
14.68
6.28
-5.17
-18.85
-33.25
-46.57
-57.24
-64.32
-67.72
-68.02
-66.10
-62.59
-57.69
-51.13
-42.58
-32.00
-19.84
-6.89
6.03
18.43
30.20
41.40
51.82
60.72
66.82
68.74
65.54
57.23
44.89
30.37
15.71
2.63
-7.78
-15.21
-19.75
-21.74
-21.52
-19.34
-15.33
-9.53
-1.93
7.47
18.44
30.35
41.94
51.45
56.98
57.09
51.34
40.53
26.54
11.75
-1.61
-11.94
-18.44
-20.93
-19.58
-14.62
-6.40
4.45
16.67
28.45
37.69
42.67
42.76
38.65
32.11
25.34
20.08
17.10
16.14
16.35
16.93
17.54
18.38
19.83
22.08
24.89
27.69
29.82
30.91
30.93
30.22
29.27
28.49
27.92
26.99
24.51
18.84
8.50
-7.22
-27.60
-50.47
-72.66
-90.85
-102.48
-106.32
-102.51
-92.21
-77.11
-59.04
-39.80
-21.01
-4.03
10.19
21.21
29.14
34.50
38.08
40.76
43.28
46.01
48.66
50.11
48.62
42.49
30.89
14.53
-4.40
-22.89
-38.25
-49.00
-55.09
-57.54
-57.62
-56.25
-53.85
-50.66
-47.07
-43.79
-41.70
-41.55
-43.69
-47.85
-53.15
-58.14
-61.07
-60.37
-55.13
-45.41
-32.32
-17.60
-3.02
10.17
21.42
30.73
38.22
43.87
47.47
48.84
48.04
45.55
42.13
38.63
35.73
33.80
32.87
32.69
32.86
32.97
32.72
31.95
30.69
29.02
27.05
24.81
22.31
19.48
16.26
12.50
8.01
2.47
-4.40
-12.69
-22.05
-31.59
-39.94
-45.54
-47.08
-43.90
-36.19
-24.99
-11.95
1.12
12.56
21.25
26.68
28.95
28.61
26.43
23.15
19.33
15.32
11.29
7.37
3.61
0.11
-3.15
-6.27
-9.43
-12.76
-16.37
-20.30
-24.56
-29.17
-34.17
-39.63
-45.55
-51.86
-58.37
-64.88
-71.21
-77.30
-83.29
-89.42
-95.92
-102.65
-108.93
-113.50
-114.85
-111.74
-103.65
-90.93
-74.55
-55.57
-34.62
-11.72
13.49
41.31
71.60
103.68
136.61
169.53
201.94
233.64
264.42
293.59
319.74
340.72
353.91
356.74
347.30
324.89
290.39
246.30
196.34
144.79
95.67
52.09
15.89
-12.35
-32.91
-46.71
-55.03
-59.38
-61.46
-63.01
-65.48
-69.74
-75.91
-83.46
-91.58
-99.47
-106.58
-112.48
-116.67
-118.41
-116.80
-111.14
-101.48
-88.98
-75.97
-65.43
-60.15
-61.86
-70.52
-84.34
-100.30
-115.20
-126.71
-133.91
-137.28
-138.04
-137.45
-136.29
-134.94
-133.76
-133.51
-135.31
-140.06
-147.75
-157.01
-165.39
-170.37
-170.60
-166.74
-161.46
-158.35
-160.33
-168.24
-180.29
-192.45
-199.78
-197.88
-184.02
-157.62
-120.13
-74.70
-25.45
23.23
67.77
106.26
139.13
168.82
198.60
230.99
266.33
302.60
336.36
364.46
385.53
400.39
411.43
421.03
430.11
437.36
439.59
432.90
414.27
382.70
339.57
287.94
231.25
172.21
112.40
52.68
-5.76
-60.66
-108.69
-146.22
-170.53
-180.49
-176.67
-161.03
-136.65
-107.83
-80.43
-61.46
-57.45
-71.90
-102.81
-142.16
-178.06
-199.00
-198.33
-176.69
-141.18
-101.88
-67.50
-42.61
-27.39
-19.50
-16.42
-16.88
-20.56
-26.97
-34.49
-40.60
-43.01
-41.06
-36.20
-31.50
-30.23
-34.42
-44.14
-57.67
-72.41
-86.10
-97.55
-106.84
-114.97
-123.12
-132.10
-142.08
-152.64
-163.15
-173.13
-182.45
-191.31
-199.86
-207.82
-214.11
-217.00
-214.45
-204.82
-187.55
-163.51
-134.77
-104.00
-73.69
-45.60
-20.68
0.69
18.23
31.57
40.30
44.31
44.23
41.50
38.09
35.89
36.11
38.91
43.62
49.30
55.29
61.68
69.19
78.78
91.07
105.90
122.20
138.19
151.80
161.17
165.37
164.77
161.21
157.53
156.77
161.15
171.42
186.78
205.13
223.73
239.82
251.30
257.22
257.86
254.51
248.65
241.09
231.27
217.27
196.51
166.80
127.15
78.33
22.81
-35.42
-91.37
-139.74
-175.86
-196.87
-202.52
-195.33
-179.65
-160.19
-140.70
-123.40
-109.16
-98.18
-90.51
-86.23
-85.19
-86.87
-90.44
-95.04
-99.92
-104.48
-108.06
-109.77
-108.54
-103.46
-94.12
-80.88
-64.71
-46.85
-28.47
-10.57
5.94
20.12
30.99
37.93
41.04
41.28
40.29
39.65
40.34
42.37
44.93
46.96
47.77
47.32
46.14
44.81
43.57
42.13
39.83
36.16
31.04
24.99
18.87
13.53
9.40
6.40
4.04
1.66
-1.34
-5.46
-10.97
-17.82
-25.43
-32.45
-36.94
-36.77
-30.36
-17.20
1.80
24.62
48.69
71.59
91.51
107.52
119.47
127.69
132.62
134.28
132.10
124.85
111.09
89.78
60.79
25.20
-14.93
-56.80
-97.09
-132.24
-158.92
-174.73
-178.93
-172.85
-159.53
-142.76
-125.87
-110.93
-98.54
-88.32
-79.44
-71.11
-62.86
-54.68
-47.16
-41.47
-39.06
-40.83
-46.41
-53.80
-59.91
-61.70
-57.37
-46.88
-31.75
-14.09
4.32
22.38
39.56
55.35
68.93
79.19
85.26
86.94
85.02
80.99
76.52
72.89
70.60
69.44
68.75
67.84
66.28
64.02
61.29
58.50
55.95
53.77
51.76
49.50
46.40
41.98
36.05
28.71
20.32
11.33
2.12
-6.82
-14.72
-20.54
-23.10
-21.61
-16.15
-7.81
1.63
10.33
17.22
22.20
26.08
29.90
34.33
39.30
44.05
47.52
48.80
47.43
43.57
37.85
31.18
24.50
18.56
13.80
10.27
7.74
5.77
3.80
1.37
-1.89
-6.07
-11.03
-16.45
-22.01
-27.60
-33.39
-39.84
-47.49
-56.62
-66.90
-77.17
-85.59
-90.12
-89.18
-82.28
-70.28
-55.05
-38.81
-23.34
-9.55
2.52
13.16
22.61
30.66
36.78
40.37
41.14
39.19
35.09
29.69
24.09
19.41
16.56
15.98
17.43
20.00
22.43
23.61
22.91
20.29
16.10
10.71
4.33
-3.05
-11.42
-20.70
-30.58
-40.81
-51.22
-61.80
-72.39
-82.35
-90.43
-94.96
-94.35
-87.79
-75.61
-59.31
-41.06
-23.04
-6.89
6.60
17.32
25.45
31.20
34.67
36.04
35.74
34.52
33.28
32.72
33.03
33.77
34.17
33.48
31.30
27.79
23.51
19.10
15.06
11.58
8.66
6.27
4.41
3.17
2.52
2.14
1.27
-1.21
-6.42
-14.97
-26.42
-39.21
-51.03
-59.64
-63.66
-63.03
-58.80
-52.41
-44.90
-36.41
-26.34
-13.95
0.88
17.26
33.42
47.32
57.37
62.87
64.13
62.16
58.28
53.84
50.20
48.67
50.48
56.46
66.58
79.70
93.51
105.15
111.76
111.11
101.80
83.37
56.30
22.13
-16.37
-55.25
-90.03
-116.57
-132.15
-135.93
-128.70
-112.10
-87.73
-56.90
-21.15
16.93
53.39
83.36
102.54
108.76
102.82
88.11
69.18
49.94
32.53
17.23
3.50
-8.84
-18.90
-25.06
-26.01
-21.81
-14.40
-6.88
-2.29
-2.24
-6.33
-12.45
-18.01
-21.10
-21.37
-19.95
-18.66
-19.14
-22.20
-27.64
-34.50
-41.47
-47.12
-50.09
-49.26
-44.01
-34.53
-22.13
-9.16
1.54
7.41
7.17
1.29
-8.14
-18.12
-25.85
-29.55
-28.73
-23.85
-15.81
-5.35
6.87
20.21
33.70
46.10
56.24
63.39
67.52
69.19
69.21
68.29
66.87
65.12
63.16
61.00
58.52
55.35
50.88
44.54
36.16
26.24
15.95
6.85
0.38
-2.52
-1.59
2.88
10.17
19.33
29.25
38.62
46.09
50.52
51.40
49.06
44.68
39.96
36.60
35.77
37.62
40.97
43.34
41.25
30.95
9.60
-23.55
-66.34
-113.69
-158.61
-193.86
-213.95
-216.57
-203.04
-177.66
-146.20
-114.20
-85.64
-62.48
-45.02
-32.71
-25.02
-21.67
-22.49
-26.79
-33.18
-39.58
-43.88
-44.70
-41.78
-35.93
-28.52
-20.75
-13.28
-6.21
0.57
6.94
12.34
16.02
17.39
16.45
13.83
10.52
7.40
4.92
3.02
1.35
-0.28
-1.83
-2.92
-3.22
-2.70
-1.76
-1.11
-1.54
-3.65
-7.67
-13.45
-20.60
-28.59
-36.96
-45.35
-53.39
-60.63
-66.37
-69.64
-69.35
-64.68
-55.37
-41.98
-25.73
-8.25
8.89
24.52
38.03
49.20
58.10
64.85
69.58
72.46
73.58
73.02
70.73
66.64
60.73
53.13
44.07
33.85
22.75
11.06
-0.78
-12.07
-21.98
-29.78
-35.26
-38.94
-41.99
-45.73
-51.08
-58.22
-66.64
-75.57
-84.40
-92.78
-100.43
-106.70
-110.38
-109.91
-103.92
-91.88
-74.50
-53.57
-31.57
-10.88
6.66
20.07
29.21
34.50
36.65
36.41
34.42
31.21
27.23
22.95
18.91
15.60
13.35
12.19
11.71
11.24
10.02
7.57
3.77
-1.06
-6.31
-11.34
-15.63
-19.01
-21.63
-24.07
-27.05
-31.18
-36.51
-42.27
-46.87
-48.32
-44.95
-36.04
-22.11
-4.78
13.76
31.48
46.98
59.63
69.42
76.65
81.69
84.82
86.31
86.47
85.69
84.34
82.60
80.35
77.14
72.39
65.69
57.10
47.26
37.20
27.98
20.31
14.28
9.48
5.18
0.67
-4.48
-10.44
-17.28
-25.10
-34.05
-44.19
-55.09
-65.64
-74.10
-78.58
-77.64
-70.87
-59.03
-43.73
-26.93
-10.43
4.44
16.85
26.37
32.85
36.44
37.52
36.65
34.43
31.34
27.70
23.68
19.48
15.43
11.94
9.45
8.20
8.10
8.73
9.38
9.30
7.93
5.07
0.99
-3.76
-8.51
-12.75
-16.41
-19.86
-23.89
-29.29
-36.50
-45.11
-53.81
-60.50
-62.96
-59.57
-50.01
-35.57
-18.93
-3.41
8.03
13.70
13.73
9.94
5.22
2.57
4.16
10.82
22.06
36.46
52.24
67.75
81.67
93.04
101.17
105.65
106.48
104.08
99.28
93.13
86.63
80.47
74.83
69.47
63.85
57.48
50.21
42.33
34.55
27.64
22.11
18.03
15.10
12.90
11.12
9.59
8.04
5.93
2.40
-3.48
-12.25
-23.72
-36.88
-50.07
-61.42
-69.17
-72.01
-69.18
-60.67
-47.24
-30.44
-12.30
5.03
19.79
30.92
38.14
41.77
42.47
41.01
38.13
34.50
30.71
27.19
24.11
21.43
19.01
16.71
14.54
12.68
11.24
10.23
9.36
8.19
6.27
3.31
-0.73
-5.73
-11.54
-18.05
-25.27
-33.21
-41.82
-50.88
-59.88
-67.95
-73.90
-76.35
-74.10
-66.57
-54.11
-38.03
-20.30
-3.09
11.84
23.43
31.41
36.07
37.99
37.80
36.07
33.31
30.02
26.61
23.37
20.42
17.71
15.13
12.59
10.06
7.60
5.32
3.29
1.52
-0.03
-1.47
-2.97
-4.76
-7.12
-10.32
-14.55
-19.91
-26.45
-34.06
-42.45
-50.91
-58.25
-62.92
-63.45
-58.94
-49.52
-36.37
-21.37
-6.51
6.72
17.51
25.63
31.22
34.47
35.60
34.88
32.71
29.61
26.06
22.47
19.04
15.92
13.19
10.96
9.28
8.10
7.18
6.18
4.73
2.57
-0.35
-3.92
-7.90
-12.03
-16.13
-20.16
-24.25
-28.74
-34.07
-40.55
-48.07
-55.87
-62.50
-66.07
-64.87
-57.88
-45.29
-28.54
-9.89
8.11
23.38
34.70
41.84
45.39
46.34
45.70
44.11
41.77
38.50
34.03
28.35
21.88
15.45
10.08
6.59
5.23
5.60
6.72
7.28
6.02
1.95
-5.34
-15.51
-27.35
-38.94
-48.29
-54.20
-57.21
-59.90
-66.23
-80.03
-103.08
-133.79
-167.15
-196.11
-213.76
-215.52
-200.37
-170.82
-131.85
-89.35
-48.70
-13.74
13.55
32.94
45.48
52.85
56.84
59.16
61.20
63.95
67.93
72.97
78.19
82.27
83.96
82.70
78.93
73.88
68.95
64.97
61.91
59.10
55.87
52.20
48.88
47.16
48.15
52.34
59.39
68.34
77.97
87.25
95.66
103.31
110.97
120.00
132.09
148.66
170.27
196.17
224.32
251.91
276.22
295.25
307.95
313.89
312.64
303.43
285.34
257.99
222.34
181.08
138.23
98.02
63.66
36.37
15.50
-0.91
-15.00
-28.37
-41.85
-55.78
-70.50
-86.42
-103.81
-122.24
-140.39
-156.23
-167.83
-174.12
-175.33
-172.77
-168.14
-162.76
-157.01
-150.33
-141.68
-130.21
-115.80
-99.38
-82.61
-67.34
-54.96
-45.92
-39.79
-35.64
-32.59
-30.22
-28.56
-27.82
-28.02
-28.78
-29.45
-29.50
-28.84
-27.99
-27.84
-29.14
-32.01
-35.75
-39.02
-40.40
-38.91
-34.22
-26.44
-15.92
-2.96
12.03
28.39
45.15
61.16
75.46
87.48
96.92
103.45
106.52
105.36
99.39
88.63
73.93
56.74
38.97
22.68
9.96
2.69
1.94
7.39
16.91
26.92
33.56
34.03
27.55
15.48
0.45
-14.83
-28.41
-39.40
-47.61
-53.06
-55.76
-55.76
-53.53
-50.07
-46.77
-44.94
-45.36
-48.05
-52.27
-57.00
-61.29
-64.60
-66.91
-68.59
-70.13
-71.85
-73.79
-75.75
-77.52
-79.08
-80.69
-82.82
-85.86
-89.93
-94.71
-99.61
-103.94
-107.17
-109.12
-109.92
-109.91
-109.47
-108.93
-108.38
-107.67
-106.36
-103.67
-98.63
-90.28
-78.01
-61.81
-42.47
-21.47
-0.64
18.26
33.99
45.92
54.00
58.54
59.96
58.71
55.38
50.71
45.65
41.20
38.17
36.90
37.24
38.59
40.22
41.51
42.18
42.21
41.80
41.08
40.05
38.60
36.56
33.82
30.51
26.94
23.54
20.69
18.60
17.17
16.16
15.25
14.21
12.97
11.63
10.32
9.08
7.82
6.31
4.38
1.89
-1.17
-4.71
-8.62
-12.75
-16.91
-20.75
-23.82
-25.67
-25.95
-24.51
-21.48
-17.21
-12.18
-6.87
-1.69
3.04
7.06
10.26
12.56
14.02
14.73
14.89
14.73
14.50
14.39
14.51
14.78
15.06
15.16
14.97
14.51
13.90
13.27
12.59
11.74
10.50
8.72
6.40
3.69
0.80
-2.20
-5.33
-8.79
-12.68
-16.92
-21.16
-24.82
-27.26
-27.99
-26.77
-23.65
-18.93
-13.08
-6.63
-0.08
6.17
11.79
16.62
20.52
23.46
25.40
26.38
26.51
25.96
24.95
23.75
22.54
21.48
20.63
19.98
19.46
18.93
18.22
17.17
15.74
13.95
11.94
9.81
7.64
5.38
2.98
0.36
-2.50
-5.57
-8.85
-12.39
-16.25
-20.37
-24.49
-28.07
-30.42
-30.96
-29.43
-26.01
-21.24
-15.83
-10.46
-5.54
-1.31
2.23
5.13
7.46
9.27
10.62
11.54
12.11
12.37
12.36
12.08
11.52
10.69
9.61
8.36
7.10
5.98
5.12
4.52
4.04
3.39
2.29
0.55
-1.85
-4.75
-7.86
-10.90
-13.70
-16.26
-18.75
-21.43
-24.52
-28.06
-31.85
-35.40
-38.02
-39.03
-37.94
-34.64
-29.47
-23.10
-16.36
-9.99
-4.49
-0.10
3.12
5.21
6.21
6.27
5.62
4.63
3.65
2.92
2.49
2.24
1.99
1.65
1.26
0.95
0.84
0.91
1.06
1.09
0.88
0.39
-0.37
-1.33
-2.47
-3.82
-5.39
-7.19
-9.17
-11.24
-13.35
-15.52
-17.84
-20.34
-22.92
-25.20
-26.65
-26.71
-25.05
-21.72
-17.14
-11.99
-6.93
-2.48
1.09
3.69
5.33
6.04
5.91
5.09
3.81
2.38
1.06
0.05
-0.58
-0.87
-0.84
-0.59
-0.15
0.43
1.11
1.78
2.30
2.54
2.38
1.76
0.70
-0.74
-2.43
-4.24
-6.08
-7.97
-10.00
-12.34
-15.13
-18.36
-21.81
-25.01
-27.36
-28.26
-27.38
-24.72
-20.65
-15.72
-10.47
-5.34
-0.55
3.78
7.57
10.73
13.12
14.68
15.51
15.82
15.87
15.89
15.96
16.07
16.14
16.15
16.13
16.17
16.35
16.68
17.14
17.59
17.83
17.64
16.86
15.42
13.43
11.19
8.99
7.10
5.47
3.86
1.85
-0.91
-4.53
-8.84
-13.37
-17.54
-20.74
-22.49
-22.50
-20.70
-17.30
-12.71
-7.48
-2.20
2.64
6.71
9.84
12.02
13.30
13.82
13.71
13.16
12.38
11.53
10.74
10.08
9.58
9.26
9.13
9.21
9.43
9.67
9.81
9.68
9.19
8.32
7.11
5.65
4.00
2.26
0.51
-1.21
-2.89
-4.61
-6.49
-8.72
-11.42
-14.58
-17.96
-21.13
-23.50
-24.49
-23.73
-21.16
-17.06
-11.97
-6.47
-1.05
3.93
8.32
12.00
14.92
17.04
18.37
19.02
19.14
18.95
18.67
18.45
18.35
18.33
18.35
18.38
18.41
18.53
18.77
19.10
19.40
19.43
18.97
17.86
16.07
13.70
10.90
7.82
4.58
1.24
-2.20
-5.80
-9.66
-13.88
-18.35
-22.76
-26.51
-28.91
-29.39
-27.69
-23.96
-18.70
-12.56
-6.16
-0.04
5.40
9.85
13.06
14.96
15.63
15.40
14.62
13.65
12.67
11.72
10.75
9.73
8.73
7.87
7.28
7.02
7.05
7.20
7.28
7.08
6.47
5.41
3.97
2.34
0.70
-0.77
-2.08
-3.35
-4.83
-6.81
-9.49
-12.89
-16.81
-20.82
-24.31
-26.66
-27.30
-25.95
-22.63
-17.73
-11.87
-5.72
0.11
5.23
9.43
12.68
15.00
16.41
16.94
16.62
15.54
13.86
11.86
9.91
8.35
7.40
7.09
7.22
7.47
7.52
7.20
6.48
5.49
4.36
3.19
1.92
0.46
-1.23
-3.11
-5.03
-6.92
-8.82
-10.98
-13.65
-16.91
-20.47
-23.62
-25.50
-25.40
-23.08
-18.84
-13.41
-7.58
-2.00
2.97
7.17
10.54
12.99
14.48
15.09
15.02
14.57
14.02
13.52
13.05
12.50
11.82
11.06
10.35
9.83
9.57
9.45
9.29
8.79
7.76
6.15
4.11
1.90
-0.21
-2.06
-3.68
-5.24
-7.00
-9.17
-11.84
-15.00
-18.49
-22.04
-25.21
-27.46
-28.20
-26.97
-23.60
-18.34
-11.82
-4.88
1.64
7.12
11.26
14.08
15.79
16.66
16.91
16.70
16.13
15.28
14.26
13.19
12.18
11.28
10.56
10.05
9.76
9.68
9.67
9.56
9.14
8.27
6.97
5.34
3.54
1.74
-0.04
-1.81
-3.62
-5.59
-7.82
-10.46
-13.60
-17.17
-20.84
-24.02
-25.98
-26.09
-24.05
-20.01
-14.50
-8.20
-1.81
4.16
9.37
13.62
16.79
18.84
19.79
19.75
18.92
17.56
15.95
14.34
12.92
11.77
10.88
10.23
9.76
9.44
9.27
9.24
9.30
9.31
9.07
8.38
7.07
5.16
2.81
0.23
-2.31
-4.69
-6.94
-9.25
-11.84
-14.92
-18.46
-22.16
-25.45
-27.61
-27.98
-26.18
-22.26
-16.70
-10.24
-3.70
2.31
7.42
11.52
14.61
16.70
17.79
17.89
17.18
15.95
14.56
13.31
12.31
11.47
10.55
9.42
8.09
6.74
5.68
5.08
4.92
5.00
4.99
4.65
3.89
2.75
1.35
-0.16
-1.67
-3.16
-4.65
-6.28
-8.23
-10.68
-13.64
-16.85
-19.77
-21.68
-21.89
-20.03
-16.13
-10.64
-4.30
2.11
7.94
12.77
16.38
18.72
19.86
19.90
19.01
17.44
15.46
13.37
11.43
9.78
8.54
7.73
7.29
7.13
7.10
7.05
6.83
6.37
5.59
4.50
3.10
1.45
-0.36
-2.23
-4.04
-5.80
-7.66
-9.86
-12.62
-15.99
-19.71
-23.25
-25.90
-26.99
-26.13
-23.24
-18.62
-12.84
-6.60
-0.56
4.76
9.02
12.12
14.08
15.06
15.26
14.88
14.14
13.17
12.10
10.99
9.91
8.95
8.21
7.76
7.61
7.70
7.85
7.86
7.55
6.83
5.73
4.31
2.64
0.74
-1.38
-3.70
-6.17
-8.75
-11.42
-14.27
-17.47
-21.06
-24.83
-28.26
-30.55
-30.94
-28.97
-24.71
-18.72
-11.90
-5.07
1.13
6.40
10.65
13.87
16.07
17.29
17.59
17.16
16.26
15.14
14.00
12.94
11.95
10.98
9.98
9.02
8.20
7.66
7.46
7.49
7.51
7.17
6.19
4.53
2.39
0.10
-2.05
-3.95
-5.73
-7.67
-10.04
-12.95
-16.35
-19.98
-23.44
-26.27
-27.91
-27.84
-25.72
-21.51
-15.59
-8.63
-1.52
5.00
10.38
14.42
17.14
18.69
19.27
19.05
18.22
16.94
15.44
13.89
12.43
11.12
10.00
9.05
8.25
7.59
7.02
6.49
5.93
5.27
4.45
3.42
2.14
0.59
-1.22
-3.26
-5.42
-7.63
-9.88
-12.28
-15.07
-18.37
-22.11
-25.85
-28.82
-30.20
-29.37
-26.17
-20.97
-14.52
-7.66
-1.11
4.63
9.34
12.93
15.33
16.53
16.54
15.51
13.72
11.51
9.27
7.33
5.90
5.05
4.78
4.95
5.34
5.70
5.78
5.41
4.59
3.52
2.49
1.83
1.67
1.94
2.33
2.40
1.71
-0.05
-2.99
-6.99
-11.69
-16.45
-20.46
-22.89
-23.08
-20.79
-16.27
-10.20
-3.48
3.02
8.65
13.07
16.17
18.02
18.77
18.62
17.75
16.39
14.77
13.07
11.46
10.06
8.94
8.14
7.68
7.53
7.59
7.73
7.80
7.63
7.12
6.19
4.80
3.00
0.89
-1.38
-3.64
-5.78
-7.80
-9.92
-12.44
-15.72
-19.86
-24.56
-29.10
-32.49
-33.80
-32.46
-28.44
-22.29
-14.86
-7.05
0.39
6.95
12.35
16.45
19.18
20.58
20.82
20.17
18.97
17.57
16.28
15.30
14.69
14.38
14.26
14.17
14.01
13.78
13.54
13.28
12.95
12.37
11.34
9.75
7.63
5.19
2.66
0.25
-2.02
-4.28
-6.77
-9.73
-13.32
-17.53
-22.11
-26.51
-29.98
-31.70
-31.05
-27.82
-22.32
-15.30
-7.70
-0.37
6.10
11.43
15.55
18.47
20.21
20.81
20.42
19.27
17.68
15.94
14.25
12.75
11.50
10.57
10.00
9.79
9.83
9.96
9.98
9.71
9.08
8.13
6.94
5.62
4.25
2.87
1.45
-0.06
-1.77
-3.83
-6.40
-9.65
-13.59
-18.06
-22.58
-26.45
-28.79
-28.88
-26.38
-21.50
-14.91
-7.58
-0.43
5.90
11.08
15.06
17.90
19.67
20.43
20.26
19.33
17.92
16.33
14.74
13.24
11.79
10.31
8.83
7.47
6.45
5.90
5.83
6.02
6.18
5.99
5.29
4.05
2.39
0.47
-1.56
-3.65
-5.78
-8.04
-10.57
-13.51
-16.91
-20.66
-24.37
-27.43
-29.10
-28.76
-26.09
-21.23
-14.75
-7.44
-0.15
6.45
11.94
16.10
18.86
20.24
20.34
19.35
17.54
15.20
12.64
10.12
7.88
6.12
4.98
4.42
4.34
4.49
4.62
4.53
4.17
3.56
2.75
1.78
0.68
-0.54
-1.84
-3.18
-4.53
-5.99
-7.75
-10.05
-13.07
-16.75
-20.69
-24.21
-26.52
-26.89
-24.95
-20.82
-15.04
-8.47
-1.97
3.76
8.36
11.79
14.16
15.66
16.36
16.28
15.40
13.83
11.80
9.71
7.95
6.79
6.27
6.21
6.31
6.30
6.01
5.40
4.53
3.46
2.23
0.87
-0.59
-2.11
-3.70
-5.39
-7.29
-9.57
-12.34
-15.62
-19.17
-22.47
-24.83
-25.48
-23.91
-20.06
-14.36
-7.64
-0.85
5.22
10.14
13.79
16.33
17.90
18.63
18.52
17.60
15.96
13.81
11.44
9.18
7.29
5.92
5.10
4.72
4.62
4.60
4.50
4.20
3.58
2.59
1.21
-0.48
-2.37
-4.30
-6.15
-7.93
-9.76
-11.88
-14.56
-17.93
-21.85
-25.82
-29.04
-30.61
-29.84
-26.52
-20.99
-14.04
-6.67
0.23
6.09
10.70
14.11
16.47
17.94
18.62
18.54
17.76
16.41
14.69
12.84
11.10
9.64
8.50
7.68
7.18
6.98
7.02
7.15
7.09
6.54
5.28
3.32
0.91
-1.60
-3.95
-6.11
-8.24
-10.61
-13.42
-16.67
-20.19
-23.66
-26.60
-28.52
-28.91
-27.35
-23.63
-17.93
-10.80
-3.09
4.22
10.33
14.77
17.48
18.67
18.73
18.04
16.88
15.40
13.71
11.84
9.88
7.93
6.12
4.61
3.52
2.93
2.80
2.98
3.25
3.32
2.99
2.11
0.67
-1.21
-3.38
-5.67
-7.95
-10.24
-12.69
-15.57
-19.13
-23.44
-28.25
-32.96
-36.71
-38.66
-38.19
-35.15
-29.94
-23.36
-16.37
-9.91
-4.63
-0.86
1.35
2.09
1.51
-0.27
-3.12
-6.85
-11.16
-15.64
-19.89
-23.55
-26.43
-28.49
-29.75
-30.24
-29.91
-28.64
-26.34
-22.95
-18.55
-13.35
-7.59
-1.51
4.69
10.82
16.66
21.88
26.07
28.74
29.50
28.19
25.03
20.61
15.91
12.05
9.98
10.28
12.93
17.39
22.78
28.17
32.81
36.34
38.64
39.80
39.95
39.15
37.42
34.85
31.64
28.10
24.66
21.67
19.31
17.62
16.46
15.62
14.90
14.15
13.27
12.21
10.93
9.38
7.58
5.51
3.16
0.57
-2.24
-5.19
-8.26
-11.51
-15.02
-18.85
-22.80
-26.34
-28.70
-29.06
-26.90
-22.29
-15.81
-8.42
-1.10
5.44
10.86
15.06
18.05
19.86
20.49
20.01
18.62
16.67
14.55
12.64
11.14
10.15
9.59
9.38
9.39
9.48
9.49
9.23
8.55
7.31
5.49
3.21
0.66
-1.93
-4.42
-6.72
-8.89
-11.08
-13.55
-16.56
-20.30
-24.69
-29.26
-33.14
-35.26
-34.75
-31.22
-25.00
-17.00
-8.43
-0.39
6.44
11.82
15.83
18.65
20.42
21.18
21.01
20.01
18.40
16.43
14.38
12.47
10.89
9.74
9.05
8.76
8.78
8.91
8.96
8.75
8.10
6.93
5.22
3.08
0.72
-1.61
-3.75
-5.69
-7.64
-9.93
-12.94
-16.80
-21.33
-25.92
-29.73
-31.82
-31.50
-28.52
-23.14
-16.04
-8.12
-0.25
6.88
12.86
17.47
20.63
22.35
22.67
21.77
19.99
17.75
15.50
13.60
12.19
11.19
10.41
9.68
8.97
8.35
7.99
7.92
8.00
7.93
7.37
6.14
4.28
2.03
-0.32
-2.58
-4.73
-6.88
-9.19
-11.83
-14.96
-18.69
-22.98
-27.53
-31.73
-34.71
-35.57
-33.72
-29.11
-22.28
-14.16
-5.79
2.01
8.70
14.01
17.85
20.20
21.14
20.86
19.72
18.13
16.49
15.07
13.96
13.14
12.51
11.99
11.53
11.11
10.76
10.46
10.22
9.95
9.56
8.87
7.70
5.92
3.53
0.69
-2.35
-5.31
-8.03
-10.55
-13.11
-16.07
-19.69
-23.98
-28.51
-32.48
-34.92
-34.96
-32.17
-26.75
-19.41
-11.21
-3.17
3.97
9.80
14.22
17.26
18.98
19.49
18.94
17.60
15.77
13.75
11.73
9.79
8.00
6.52
5.51
5.17
5.55
6.42
7.40
8.06
8.07
7.34
5.99
4.21
2.19
0.04
-2.17
-4.40
-6.68
-9.15
-12.00
-15.43
-19.43
-23.65
-27.35
-29.61
-29.64
-27.05
-22.03
-15.25
-7.62
-0.03
6.84
12.56
16.90
19.82
21.38
21.77
21.21
19.97
18.26
16.26
14.09
11.91
9.88
8.19
7.01
6.38
6.21
6.31
6.42
6.28
5.73
4.69
3.19
1.28
-0.94
-3.35
-5.92
-8.60
-11.42
-14.49
-17.93
-21.86
-26.32
-31.08
-35.62
-39.12
-40.68
-39.55
-35.45
-28.70
-20.13
-10.87
-2.00
5.70
11.81
16.27
19.23
20.88
21.41
21.02
19.91
18.30
16.46
14.63
12.98
11.56
10.35
9.34
8.54
8.02
7.82
7.89
8.04
7.96
7.34
5.99
3.91
1.26
-1.65
-4.55
-7.28
-9.81
-12.32
-15.09
-18.40
-22.40
-26.87
-31.18
-34.39
-35.50
-33.82
-29.25
-22.31
-13.93
-5.13
3.25
10.64
16.76
21.42
24.52
26.07
26.20
25.24
23.58
21.60
19.54
17.54
15.68
14.02
12.66
11.68
11.11
10.92
11.00
11.18
11.27
11.05
10.28
8.81
6.60
3.79
0.63
-2.55
-5.52
-8.23
-10.85
-13.71
-17.16
-21.41
-26.26
-31.11
-34.95
-36.68
-35.47
-31.08
-24.01
-15.32
-6.30
1.97
8.83
14.11
17.95
20.55
22.06
22.53
22.02
20.63
18.62
16.29
13.95
11.83
10.09
8.80
7.97
7.55
7.48
7.65
7.92
8.09
7.98
7.43
6.35
4.73
2.63
0.24
-2.27
-4.77
-7.21
-9.71
-12.55
-15.99
-20.08
-24.46
-28.32
-30.60
-30.33
-27.10
-21.20
-13.50
-5.16
2.80
9.73
15.33
19.55
22.38
23.84
23.97
22.88
20.89
18.38
15.78
13.43
11.48
9.99
8.91
8.13
7.57
7.19
6.92
6.66
6.23
5.43
4.10
2.23
-0.03
-2.46
-4.85
-7.13
-9.41
-11.94
-15.02
-18.89
-23.57
-28.73
-33.67
-37.41
-38.91
-37.42
-32.77
-25.42
-16.38
-6.85
2.11
9.77
15.80
20.17
22.97
24.34
24.49
23.66
22.17
20.37
18.52
16.78
15.18
13.66
12.19
10.82
9.72
9.06
8.90
9.10
9.32
9.13
8.21
6.47
4.07
1.34
-1.44
-4.10
-6.67
-9.31
-12.22
-15.64
-19.71
-24.37
-29.28
-33.75
-36.80
-37.40
-34.90
-29.25
-21.08
-11.53
-1.90
6.75
13.80
19.02
22.49
24.41
25.01
24.56
23.36
21.72
19.89
18.05
16.27
14.56
12.98
11.61
10.54
9.81
9.37
9.10
8.79
8.23
7.25
5.75
3.70
1.15
-1.72
-4.71
-7.61
-10.34
-12.97
-15.73
-18.94
-22.81
-27.29
-31.96
-36.01
-38.43
-38.30
-35.12
-29.05
-20.97
-12.14
-3.91
2.76
7.48
10.41
11.95
12.45
12.03
10.66
8.28
5.04
1.30
-2.45
-5.83
-8.64
-10.97
-12.97
-14.80
-16.51
-18.05
-19.34
-20.31
-20.84
-20.79
-19.99
-18.29
-15.73
-12.57
-9.32
-6.58
-4.92
-4.63
-5.64
-7.45
-9.17
-9.78
-8.29
-4.14
2.72
11.70
21.85
32.06
41.33
48.99
54.68
58.29
59.92
59.75
58.18
55.71
52.97
50.58
49.04
48.62
49.26
50.54
51.76
52.07
50.68
47.09
41.20
33.33
24.13
14.36
4.71
-4.29
-12.37
-19.34
-25.15
-29.76
-33.29
-36.03
-38.42
-41.02
-44.23
-48.15
-52.41
-56.13
-58.19
-57.52
-53.54
-46.39
-36.98
-26.69
-16.98
-8.95
-3.07
0.77
3.03
4.24
4.79
4.83
4.42
3.65
2.68
1.73
0.94
0.37
-0.10
-0.60
-1.21
-1.92
-2.63
-3.26
-3.78
-4.26
-4.80
-5.52
-6.39
-7.39
-8.49
-9.75
-11.31
-13.39
-16.17
-19.62
-23.48
-27.12
-29.72
-30.46
-28.75
-24.45
-17.93
-10.01
-1.66
6.18
12.86
18.06
21.72
23.99
25.06
25.13
24.40
23.07
21.31
19.33
17.32
15.43
13.75
12.34
11.22
10.34
9.63
8.98
8.29
7.50
6.54
5.38
4.02
2.43
0.62
-1.40
-3.61
-6.04
-8.80
-12.05
-15.89
-20.25
-24.65
-28.32
-30.28
-29.75
-26.42
-20.57
-13.05
-4.91
2.87
9.65
15.12
19.24
22.07
23.69
24.16
23.64
22.34
20.58
18.67
16.88
15.40
14.28
13.50
13.00
12.70
12.49
12.26
11.89
11.27
10.33
9.10
7.61
5.95
4.14
2.19
0.01
-2.50
-5.45
-8.92
-12.88
-17.10
-21.11
-24.18
-25.54
-24.55
-20.95
-15.02
-7.51
0.54
8.13
14.48
19.14
22.05
23.35
23.33
22.30
20.56
18.35
15.88
13.37
10.97
8.85
7.13
5.85
4.97
4.40
4.01
3.68
3.30
2.79
2.07
1.09
-0.16
-1.66
-3.36
-5.21
-7.19
-9.35
-11.77
-14.54
-17.71
-21.21
-24.74
-27.78
-29.64
-29.59
-27.13
-22.21
-15.28
-7.20
0.99
8.38
14.39
18.83
21.80
23.52
24.15
23.80
22.55
20.56
18.11
15.55
13.21
11.27
9.74
8.50
7.46
6.56
5.84
5.30
4.89
4.45
3.80
2.82
1.49
-0.11
-1.89
-3.83
-5.95
-8.34
-11.07
-14.17
-17.63
-21.28
-24.77
-27.51
-28.76
-27.86
-24.47
-18.80
-11.54
-3.69
3.71
9.93
14.61
17.73
19.47
20.12
19.90
19.05
17.73
16.13
14.36
12.53
10.74
9.11
7.76
6.75
6.05
5.57
5.11
4.52
3.67
2.53
1.14
-0.44
-2.13
-3.90
-5.71
-7.59
-9.61
-11.89
-14.55
-17.65
-20.97
-24.04
-26.12
-26.42
-24.36
-19.84
-13.32
-5.67
2.07
9.01
14.61
18.72
21.40
22.80
23.02
22.13
20.28
17.76
15.00
12.43
10.38
8.91
7.92
7.17
6.47
5.75
5.03
4.35
3.68
2.89
1.83
0.41
-1.33
-3.25
-5.20
-7.09
-9.00
-11.14
-13.76
-16.98
-20.71
-24.57
-27.96
-30.19
-30.66
-29.03
-25.25
-19.62
-12.69
-5.16
2.23
8.85
14.24
18.19
20.67
21.81
21.82
20.92
19.37
17.45
15.43
13.57
12.03
10.81
9.86
9.03
8.24
7.44
6.63
5.82
4.95
3.95
2.69
1.15
-0.65
-2.64
-4.75
-6.98
-9.34
-11.98
-15.00
-18.47
-22.26
-25.94
-28.89
-30.34
-29.70
-26.68
-21.50
-14.73
-7.23
0.18
6.84
12.34
16.51
19.40
21.09
21.77
21.59
20.69
19.23
17.37
15.31
13.27
11.41
9.87
8.69
7.84
7.21
6.65
6.05
5.29
4.30
3.00
1.36
-0.56
-2.65
-4.75
-6.71
-8.45
-10.10
-12.01
-14.66
-18.41
-23.22
-28.56
-33.50
-36.97
-37.96
-36.08
-31.69
-25.80
-19.55
-13.72
-8.66
-4.35
-0.58
3.02
6.40
8.93
9.71
8.14
4.49
-0.32
-5.16
-9.02
-11.12
-11.57
-11.49
-12.44
-15.54
-20.59
-26.51
-31.78
-34.69
-33.23
-26.33
-14.45
0.21
14.29
24.53
27.88
22.05
3.58
-27.05
-64.15
-99.03
-124.93
-141.42
-150.08
-152.53
-150.73
-146.94
-141.78
-136.83
-133.64
-133.32
-136.05
-140.48
-144.40
-145.06
-139.45
-124.85
-100.54
-68.56
-33.38
-0.17
27.56
48.76
64.75
78.26
92.24
108.24
126.19
144.60
161.65
176.00
186.82
193.78
196.94
196.78
193.78
188.36
180.88
171.73
161.33
149.87
137.05
122.30
105.26
86.30
66.99
49.80
37.32
31.02
30.46
33.28
36.16
36.17
31.74
22.99
11.19
-2.06
-15.43
-28.04
-39.30
-48.76
-55.95
-60.43
-62.17
-61.61
-59.65
-57.41
-55.90
-55.73
-56.90
-58.98
-61.31
-63.38
-65.02
-66.45
-68.16
-70.65
-74.28
-79.15
-85.05
-91.48
-97.67
-102.66
-105.43
-105.10
-101.10
-93.33
-82.19
-68.43
-52.97
-36.79
-20.75
-5.71
7.59
18.52
26.73
32.21
35.29
36.56
36.69
36.24
35.57
34.90
34.29
33.77
33.28
32.67
31.74
30.20
27.81
24.42
19.98
14.52
8.10
0.73
-7.60
-17.01
-27.63
-39.56
-52.69
-66.40
-79.46
-90.02
-95.98
-95.57
-87.98
-73.66
-54.26
-32.17
-9.78
11.02
29.12
44.12
56.03
64.97
71.05
74.35
75.10
73.74
70.95
67.57
64.38
61.95
60.49
59.83
59.52
59.02
57.89
55.91
53.08
49.52
45.35
40.55
35.01
28.51
20.82
11.76
1.23
-10.69
-23.59
-36.53
-48.01
-56.16
-59.14
-55.71
-45.70
-30.16
-11.08
9.14
28.30
44.85
58.04
67.76
74.25
77.84
78.85
77.59
74.46
69.99
64.89
59.89
55.63
52.47
50.42
49.14
48.14
46.85
44.81
41.79
37.75
32.81
27.19
21.12
14.71
7.92
0.52
-7.87
-17.64
-28.93
-41.36
-53.84
-64.63
-71.64
-73.03
-67.75
-55.93
-38.90
-18.84
1.82
20.94
37.15
49.88
59.22
65.55
69.29
70.74
70.07
67.53
63.50
58.58
53.47
48.77
44.80
41.52
38.69
35.95
33.09
30.02
26.80
23.48
20.00
16.23
11.93
6.88
1.00
-5.76
-13.41
-22.00
-31.63
-42.27
-53.48
-64.25
-73.00
-77.85
-77.24
-70.46
-57.98
-41.35
-22.80
-4.53
11.71
24.93
34.76
41.25
44.57
44.98
42.82
38.63
33.18
27.39
22.18
18.20
15.73
14.60
14.31
14.21
13.73
12.52
10.51
7.81
4.64
1.12
-2.76
-7.13
-12.19
-18.18
-25.32
-33.78
-43.59
-54.34
-65.02
-73.95
-79.14
-78.77
-71.88
-58.73
-40.79
-20.28
0.39
19.24
34.91
46.77
54.68
58.89
59.85
58.20
54.65
49.97
44.82
39.77
35.19
31.33
28.31
26.13
24.68
23.71
22.82
21.57
19.51
16.36
12.06
6.79
0.94
-5.14
-11.21
-17.24
-23.46
-30.28
-38.20
-47.52
-58.10
-69.08
-78.83
-85.23
-86.22
-80.51
-68.02
-50.07
-28.96
-7.31
12.60
29.28
42.10
51.06
56.50
58.89
58.71
56.52
52.87
48.41
43.69
39.13
34.96
31.27
28.06
25.33
23.12
21.43
20.18
19.05
17.53
15.06
11.20
5.87
-0.66
-7.78
-14.83
-21.32
-27.12
-32.52
-38.11
-44.60
-52.50
-61.79
-71.61
-80.34
-85.83
-86.06
-79.79
-67.02
-49.10
-28.26
-7.02
12.53
29.00
41.77
50.82
56.36
58.74
58.38
55.86
51.96
47.51
43.28
39.73
36.96
34.73
32.72
30.72
28.77
27.08
25.86
25.09
24.41
23.24
20.95
17.10
11.59
4.70
-3.05
-11.01
-18.62
-25.59
-31.93
-38.06
-44.65
-52.42
-61.71
-72.15
-82.49
-90.76
-94.76
-92.78
-84.15
-69.47
-50.44
-29.35
-8.42
10.62
26.77
39.56
48.97
55.10
58.17
58.49
56.53
52.96
48.56
44.09
40.10
36.85
34.27
32.11
30.12
28.18
26.40
24.98
24.04
23.51
22.99
21.88
19.58
15.69
10.17
3.41
-3.91
-11.06
-17.54
-23.22
-28.43
-33.76
-39.93
-47.53
-56.72
-67.09
-77.53
-86.33
-91.54
-91.41
-84.96
-72.29
-54.66
-34.15
-13.09
6.46
23.09
36.14
45.54
51.53
54.49
54.83
53.07
49.80
45.72
41.48
37.57
34.22
31.43
29.05
26.95
25.10
23.61
22.63
22.19
22.13
22.01
21.27
19.33
15.81
10.69
4.33
-2.63
-9.53
-15.88
-21.54
-26.73
-31.96
-37.79
-44.74
-53.01
-62.40
-72.12
-80.81
-86.72
-88.12
-83.81
-73.54
-58.16
-39.37
-19.30
0.08
17.29
31.48
42.30
49.69
53.78
54.81
53.21
49.65
44.94
39.89
35.17
31.17
28.01
25.56
23.63
22.04
20.70
19.61
18.74
18.01
17.18
15.90
13.74
10.40
5.86
0.40
-5.42
-11.06
-16.17
-20.83
-25.50
-30.85
-37.52
-45.79
-55.47
-65.67
-74.97
-81.55
-83.63
-79.95
-70.19
-55.13
-36.51
-16.56
2.59
19.34
32.80
42.67
49.06
52.23
52.58
50.61
46.97
42.42
37.67
33.30
29.63
26.75
24.54
22.82
21.43
20.26
19.25
18.36
17.46
16.32
14.62
12.04
8.41
3.82
-1.38
-6.68
-11.66
-16.14
-20.33
-24.73
-30.04
-36.80
-45.14
-54.50
-63.63
-70.71
-73.85
-71.63
-63.59
-50.41
-33.69
-15.51
2.18
17.96
31.00
40.95
47.71
51.31
51.92
49.94
46.06
41.13
35.95
31.09
26.77
22.97
19.56
16.49
13.89
11.96
10.83
10.39
10.27
9.95
8.91
6.81
3.61
-0.49
-5.13
-9.97
-14.75
-19.40
-24.02
-28.84
-34.17
-40.34
-47.46
-55.23
-62.78
-68.74
-71.55
-69.94
-63.38
-52.37
-38.25
-22.86
-8.08
4.56
13.98
19.59
21.30
19.53
15.25
9.81
4.73
1.26
0.02
0.78
2.55
3.89
3.42
0.14
-6.28
-15.47
-26.57
-38.35
-49.49
-58.83
-65.54
-69.26
-70.15
-68.79
-65.88
-62.12
-57.99
-53.84
-49.85
-45.98
-41.93
-36.88
-29.70
-19.16
-4.52
14.12
35.70
58.46
80.44
99.91
115.73
127.27
134.32
136.94
135.32
129.79
120.89
109.39
96.35
82.97
70.50
59.84
51.39
44.97
40.00
35.83
32.04
28.50
25.25
22.33
19.61
16.83
13.73
10.13
5.96
1.22
-4.11
-10.07
-16.75
-24.22
-32.46
-41.34
-50.45
-59.11
-66.25
-70.69
-71.37
-67.75
-60.04
-49.19
-36.62
-23.83
-12.02
-1.97
5.97
11.69
15.22
16.73
16.47
14.86
12.39
9.53
6.61
3.82
1.27
-0.89
-2.44
-3.14
-2.91
-1.97
-0.78
0.11
0.28
-0.37
-1.69
-3.42
-5.46
-8.01
-11.59
-16.86
-24.39
-34.30
-46.04
-58.32
-69.31
-76.97
-79.52
-75.89
-65.93
-50.42
-30.87
-9.24
12.45
32.46
49.59
63.31
73.76
81.64
87.88
93.28
98.32
103.04
107.12
110.00
110.96
109.21
104.02
95.03
82.54
67.63
52.01
37.53
25.62
16.81
10.66
5.92
1.12
-4.92
-12.65
-21.82
-31.63
-41.12
-49.53
-56.39
-61.55
-64.93
-66.45
-65.98
-63.48
-59.22
-53.83
-48.14
-42.89
-38.45
-34.75
-31.43
-28.16
-24.85
-21.71
-19.12
-17.42
-16.75
-17.07
-18.16
-19.77
-21.58
-23.35
-24.83
-25.91
-26.59
-27.00
-27.36
-27.89
-28.72
-29.91
-31.44
-33.31
-35.55
-38.27
-41.58
-45.57
-50.25
-55.49
-60.95
-66.05
-70.15
-72.54
-72.70
-70.32
-65.35
-57.97
-48.52
-37.54
-25.71
-13.80
-2.60
7.25
15.34
21.57
26.00
28.89
30.52
31.22
31.26
30.91
30.38
29.81
29.28
28.82
28.34
27.71
26.72
25.23
23.10
20.36
17.11
13.48
9.55
5.25
0.42
-5.14
-11.57
-18.81
-26.59
-34.41
-41.66
-47.63
-51.62
-53.01
-51.32
-46.34
-38.25
-27.67
-15.55
-3.05
8.76
19.09
27.58
34.19
39.10
42.53
44.63
45.54
45.40
44.43
42.93
41.19
39.46
37.82
36.26
34.63
32.78
30.58
27.96
24.93
21.54
17.85
13.83
9.44
4.61
-0.72
-6.57
-12.96
-19.89
-27.34
-35.12
-42.84
-49.84
-55.29
-58.27
-58.10
-54.39
-47.23
-37.14
-24.99
-11.83
1.29
13.42
23.90
32.34
38.65
43.00
45.70
47.15
47.75
47.83
47.61
47.19
46.56
45.62
44.25
42.39
39.99
37.08
33.67
29.81
25.52
20.75
15.45
9.49
2.76
-4.83
-13.24
-22.32
-31.82
-41.49
-51.16
-60.68
-69.85
-78.25
-85.15
-89.60
-90.55
-87.23
-79.39
-67.43
-52.30
-35.38
-18.13
-1.84
12.53
24.43
33.70
40.42
44.88
47.48
48.67
48.89
48.59
48.11
47.61
47.10
46.42
45.32
43.57
41.04
37.76
33.84
29.39
24.37
18.60
11.90
4.25
-4.06
-12.51
-20.64
-28.24
-35.54
-43.08
-51.34
-60.35
-69.54
-77.90
-84.19
-87.30
-86.37
-80.86
-70.79
-57.00
-41.20
-25.48
-11.40
0.78
12.08
24.07
37.57
51.72
64.10
71.87
73.36
69.13
61.97
55.80
54.30
59.81
72.80
91.85
113.92
134.73
149.57
154.45
147.40
129.30
103.66
75.54
50.00
30.61
18.70
13.53
13.02
14.69
16.39
16.64
14.73
10.70
5.16
-0.82
-5.95
-9.03
-9.23
-6.39
-1.08
5.52
11.96
16.97
19.79
20.39
19.35
17.52
15.73
14.41
13.53
12.73
11.53
9.65
7.11
4.30
1.79
0.04
-0.74
-0.77
-0.51
-0.54
-1.31
-3.00
-5.55
-8.77
-12.41
-16.26
-20.18
-24.09
-27.95
-31.78
-35.66
-39.66
-43.66
-47.39
-50.30
-51.77
-51.26
-48.52
-43.72
-37.36
-30.22
-23.05
-16.46
-10.78
-6.15
-2.57
-0.00
1.55
2.13
1.82
0.85
-0.45
-1.71
-2.65
-3.12
-3.17
-2.93
-2.55
-2.18
-1.90
-1.76
-1.86
-2.29
-3.15
-4.48
-6.23
-8.25
-10.45
-12.81
-15.49
-18.71
-22.67
-27.35
-32.40
-37.19
-41.01
-43.32
-43.86
-42.70
-40.19
-36.76
-32.83
-28.85
-25.24
-22.48
-20.97
-20.96
-22.41
-25.00
-28.19
-31.37
-34.06
-35.99
-37.14
-37.61
-37.59
-37.21
-36.65
-36.07
-35.71
-35.86
-36.75
-38.46
-40.89
-43.85
-47.07
-50.40
-53.71
-56.88
-59.82
-62.52
-65.16
-68.11
-71.75
-76.20
-81.04
-85.30
-87.66
-86.89
-82.28
-73.93
-62.76
-50.21
-37.89
-27.22
-19.05
-13.67
-10.84
-10.06
-10.81
-12.77
-15.78
-19.75
-24.41
-29.07
-32.73
-34.14
-32.21
-26.42
-17.06
-5.28
7.30
19.14
29.28
37.57
44.39
50.20
55.13
58.84
60.67
60.02
56.50
49.97
40.42
28.10
13.73
-1.18
-14.27
-22.81
-24.43
-18.01
-4.08
15.35
37.53
59.70
79.69
96.16
108.45
116.32
119.88
119.50
115.85
109.94
103.00
96.42
91.62
89.78
91.61
97.04
105.04
113.70
120.70
123.99
122.45
116.17
106.40
95.04
84.06
74.99
68.78
65.73
65.61
67.63
70.54
72.79
72.86
69.71
63.12
53.72
42.71
31.34
20.48
10.66
2.33
-3.81
-6.84
-6.24
-2.52
2.35
5.36
3.50
-4.99
-19.88
-38.97
-58.92
-76.26
-88.27
-93.35
-91.15
-82.52
-69.38
-54.36
-40.12
-28.43
-19.43
-11.41
-1.50
13.15
33.94
59.76
86.86
109.66
122.49
121.62
106.79
81.62
52.50
26.52
9.09
2.46
5.57
15.23
27.71
40.08
50.61
58.48
63.17
64.03
60.42
51.96
38.90
22.18
3.23
-16.41
-35.42
-52.89
-68.46
-82.13
-94.12
-104.61
-113.52
-120.51
-125.12
-127.08
-126.60
-124.50
-121.93
-119.98
-119.16
-119.36
-120.05
-120.68
-121.13
-121.53
-121.97
-121.90
-120.07
-114.78
-104.67
-89.42
-70.04
-48.61
-27.59
-9.02
5.94
17.05
24.69
29.45
31.95
32.63
31.92
30.26
28.21
26.24
24.68
23.52
22.30
20.39
17.14
12.25
5.91
-1.19
-8.15
-14.15
-18.71
-21.74
-23.44
-24.19
-24.40
-24.71
-26.01
-29.31
-35.33
-43.83
-53.28
-60.92
-63.70
-59.38
-47.56
-29.95
-9.73
9.65
25.63
37.02
43.94
47.12
47.29
44.95
40.41
34.14
27.00
20.18
14.89
11.99
11.61
13.16
15.50
17.44
18.14
17.39
15.63
13.57
11.88
10.77
9.93
8.63
6.06
1.45
-5.75
-15.86
-28.86
-44.02
-59.65
-73.02
-80.83
-80.14
-69.40
-49.15
-21.91
8.53
38.31
64.42
85.19
100.19
109.74
114.51
115.17
112.45
107.20
100.47
93.41
87.14
82.54
80.05
79.48
80.01
80.30
78.85
74.45
66.55
55.48
42.25
28.19
14.46
1.71
-10.03
-21.21
-32.65
-45.33
-60.10
-77.32
-96.31
-115.08
-130.46
-138.89
-137.60
-125.63
-104.27
-76.66
-46.79
-18.30
6.30
25.80
40.00
49.24
54.02
54.83
52.24
46.93
39.70
31.55
23.52
16.61
11.64
9.01
8.62
9.85
11.75
13.32
13.75
12.57
9.65
5.07
-0.99
-8.29
-16.56
-25.54
-35.15
-45.55
-57.18
-70.35
-84.69
-98.65
-109.45
-113.75
-108.83
-93.72
-69.82
-40.56
-10.26
17.20
39.32
55.24
65.32
70.42
71.41
68.93
63.59
56.07
47.24
37.99
29.09
21.04
14.03
8.06
3.00
-1.32
-5.09
-8.52
-11.81
-15.09
-18.42
-21.80
-25.20
-28.67
-32.35
-36.51
-41.54
-47.96
-56.32
-66.90
-79.38
-92.41
-103.55
-109.66
-107.83
-96.35
-75.56
-47.80
-16.80
13.43
39.73
60.25
74.56
83.13
86.87
86.68
83.41
77.83
70.70
62.79
54.74
47.07
40.17
34.37
29.90
26.92
25.34
24.78
24.58
23.90
22.04
18.63
13.74
7.76
1.21
-5.47
-12.10
-18.73
-25.65
-33.38
-42.60
-53.86
-67.03
-80.90
-92.95
-99.83
-98.42
-87.01
-66.15
-38.54
-8.21
20.79
45.48
64.39
77.36
84.92
87.83
86.79
82.54
75.97
68.05
59.72
51.67
44.30
37.73
32.02
27.25
23.64
21.34
20.32
20.14
20.01
18.97
16.25
11.57
5.23
-1.94
-9.07
-15.49
-21.15
-26.55
-32.59
-40.27
-50.27
-62.57
-76.09
-88.68
-97.44
-99.50
-92.96
-77.54
-54.79
-27.59
0.76
27.38
50.38
68.82
82.40
90.99
94.43
92.52
85.34
73.57
58.64
42.60
27.68
15.73
7.60
3.05
1.03
0.31
0.18
0.67
2.32
5.64
10.57
16.34
21.81
25.95
28.28
28.89
28.19
26.43
23.41
18.48
10.75
-0.52
-15.48
-33.37
-52.33
-69.59
-81.95
-86.61
-82.05
-68.58
-48.29
-24.44
-0.43
21.04
38.41
51.15
59.36
63.35
63.53
60.49
55.07
48.39
41.55
35.37
30.18
25.83
21.95
18.25
14.75
11.72
9.55
8.35
7.81
7.25
5.80
2.78
-2.03
-8.31
-15.35
-22.40
-28.91
-34.78
-40.36
-46.35
-53.56
-62.58
-73.34
-84.79
-94.83
-100.64
-99.55
-89.97
-72.13
-48.16
-21.46
4.32
26.33
43.03
54.15
60.32
62.44
61.44
58.12
53.30
47.78
42.28
37.27
32.88
28.91
25.08
21.25
17.56
14.41
12.24
11.19
10.99
10.94
10.16
7.93
4.02
-1.32
-7.45
-13.70
-19.61
-25.12
-30.53
-36.48
-43.68
-52.68
-63.46
-75.04
-85.38
-91.73
-91.39
-82.68
-65.71
-42.51
-16.38
9.08
31.01
47.84
59.29
65.89
68.46
67.80
64.55
59.38
53.02
46.19
39.50
33.40
28.09
23.62
20.01
17.25
15.33
14.17
13.54
13.01
12.01
10.01
6.68
2.05
-3.52
-9.49
-15.35
-20.87
-26.14
-31.61
-37.95
-45.86
-55.76
-67.42
-79.57
-89.94
-95.65
-94.09
-83.90
-65.66
-41.80
-15.87
8.60
29.07
44.37
54.51
60.12
61.92
60.58
56.72
51.10
44.61
38.15
32.36
27.46
23.36
19.72
16.37
13.40
11.13
9.84
9.53
9.74
9.65
8.38
5.38
0.65
-5.27
-11.53
-17.37
-22.42
-26.86
-31.36
-36.89
-44.42
-54.58
-67.23
-81.11
-93.82
-102.25
-103.42
-95.53
-78.66
-54.92
-27.77
-1.00
22.36
40.63
53.44
61.27
64.91
65.08
62.43
57.67
51.70
45.48
39.83
35.14
31.33
28.01
24.80
21.62
18.75
16.65
15.56
15.27
15.06
13.99
11.32
6.81
0.82
-5.92
-12.66
-18.98
-24.89
-30.82
-37.44
-45.52
-55.69
-68.10
-82.08
-95.79
-106.38
-110.61
-105.96
-91.59
-68.87
-41.01
-12.01
14.58
36.48
52.90
64.09
70.66
73.25
72.37
68.65
62.98
56.40
49.93
44.24
39.57
35.76
32.48
29.46
26.67
24.33
22.69
21.82
21.44
20.92
19.43
16.32
11.38
4.92
-2.31
-9.48
-16.02
-21.88
-27.54
-33.90
-41.99
-52.60
-65.72
-80.23
-93.75
-103.08
-105.11
-97.89
-81.43
-57.74
-30.18
-2.42
22.64
43.28
58.91
69.61
75.71
77.62
75.92
71.46
65.34
58.72
52.46
47.02
42.44
38.52
35.10
32.18
29.91
28.53
28.04
28.12
28.06
26.99
24.21
19.43
12.94
5.49
-2.09
-9.21
-15.78
-22.21
-29.24
-37.71
-48.21
-60.77
-74.53
-87.58
-97.17
-100.38
-94.96
-80.33
-57.86
-30.61
-2.36
23.50
44.72
60.41
70.74
76.35
77.99
76.28
71.87
65.46
57.86
49.87
42.17
35.19
29.10
23.91
19.54
15.92
12.90
10.31
7.82
5.07
1.66
-2.70
-8.09
-14.38
-21.32
-28.61
-36.02
-43.49
-51.18
-59.54
-69.05
-79.92
-91.59
-102.45
-110.03
-111.65
-105.51
-91.43
-71.19
-47.98
-25.43
-6.52
7.12
15.27
18.73
18.73
16.53
13.11
9.09
4.76
0.16
-4.83
-10.20
-15.57
-20.03
-22.21
-20.58
-14.09
-2.63
12.53
28.89
43.30
52.88
55.96
52.71
45.05
35.95
28.38
24.26
23.96
26.29
29.21
30.52
28.73
23.56
16.05
8.43
3.44
3.58
10.28
23.28
40.65
59.26
75.84
87.83
94.01
94.57
90.64
83.77
75.42
66.72
58.43
50.92
44.18
37.90
31.56
24.71
17.18
9.32
1.95
-3.99
-7.79
-9.40
-9.44
-8.96
-9.05
-10.32
-12.83
-16.13
-19.60
-22.76
-25.54
-28.21
-31.37
-35.71
-41.79
-49.78
-59.21
-68.79
-76.52
-80.12
-77.72
-68.45
-52.86
-32.70
-10.50
11.21
30.39
45.79
56.97
64.11
67.76
68.72
67.95
66.34
64.70
63.51
62.90
62.70
62.59
62.25
61.53
60.43
59.02
57.32
55.20
52.39
48.58
43.54
37.24
29.90
21.91
13.77
5.98
-1.03
-7.02
-12.07
-16.66
-21.64
-28.00
-36.40
-46.69
-57.76
-67.65
-74.21
-75.87
-72.21
-64.02
-52.91
-40.70
-28.82
-18.14
-9.11
-1.98
2.92
5.31
5.06
2.42
-1.99
-7.30
-12.63
-17.32
-21.02
-23.66
-25.38
-26.39
-27.00
-27.50
-28.20
-29.28
-30.79
-32.57
-34.33
-35.76
-36.65
-37.02
-37.03
-36.98
-37.26
-38.20
-40.08
-42.83
-45.78
-47.59
-46.33
-40.12
-27.81
-9.62
12.76
36.72
59.56
79.27
94.97
106.68
114.88
119.99
122.16
121.42
117.97
112.41
105.66
98.67
92.07
85.96
79.97
73.58
66.41
58.47
50.06
41.66
33.69
26.38
19.80
13.90
8.59
3.70
-1.04
-6.04
-11.69
-18.28
-25.87
-34.31
-43.26
-52.24
-60.75
-68.25
-74.15
-77.91
-79.11
-77.57
-73.51
-67.54
-60.58
-53.67
-47.76
-43.48
-41.09
-40.46
-41.24
-43.02
-45.47
-48.30
-51.20
-53.69
-55.24
-55.35
-53.77
-50.58
-46.15
-40.86
-34.93
-28.31
-20.80
-12.36
-3.27
5.85
14.15
20.95
25.84
28.73
29.75
28.99
26.49
22.29
16.63
10.19
4.19
0.26
0.07
4.67
14.01
26.65
40.11
51.47
58.42
59.81
55.89
47.83
37.10
24.87
11.81
-1.71
-15.30
-28.35
-40.10
-49.90
-57.40
-62.63
-65.77
-67.02
-66.38
-63.78
-59.25
-53.12
-46.16
-39.39
-33.85
-30.24
-28.80
-29.15
-30.62
-32.44
-34.09
-35.43
-36.75
-38.58
-41.52
-45.97
-51.93
-58.81
-65.31
-69.52
-69.25
-62.59
-48.60
-27.81
-2.21
25.19
51.15
73.05
89.34
99.57
104.18
104.01
100.07
93.33
84.73
75.26
65.83
57.27
50.11
44.59
40.68
38.23
37.04
36.98
37.86
39.36
40.91
41.67
40.65
36.99
30.20
20.42
8.38
-4.63
-17.15
-27.80
-35.63
-40.31
-42.21
-42.18
-41.16
-39.73
-37.87
-34.94
-30.11
-22.79
-12.98
-1.44
10.59
21.84
31.36
38.69
43.81
46.90
48.04
47.18
44.16
38.91
31.72
23.29
14.71
7.14
1.44
-2.07
-3.73
-4.32
-4.66
-5.35
-6.59
-8.25
-10.14
-12.17
-14.46
-17.27
-20.86
-25.43
-31.09
-38.03
-46.44
-56.41
-67.50
-78.51
-87.45
-91.98
-90.15
-81.18
-65.75
-45.81
-23.88
-2.29
17.38
34.37
48.44
59.55
67.69
72.91
75.42
75.64
74.05
71.00
66.60
60.83
53.76
45.86
37.89
30.74
24.98
20.60
16.97
13.21
8.57
2.79
-3.85
-10.84
-17.72
-24.36
-31.04
-38.27
-46.60
-56.40
-67.67
-79.92
-92.00
-102.07
-107.87
-107.17
-98.50
-81.70
-58.11
-30.26
-1.09
26.83
51.76
72.72
89.16
100.58
106.37
106.18
100.23
89.56
75.94
61.28
47.19
34.64
24.07
15.67
9.69
6.43
5.99
7.93
11.05
13.70
14.19
11.42
5.28
-3.38
-13.14
-22.57
-30.77
-37.69
-44.03
-50.90
-59.27
-69.41
-80.56
-90.98
-98.36
-100.42
-95.63
-83.58
-65.13
-42.10
-16.83
8.21
30.80
49.13
61.91
68.54
69.19
64.81
56.97
47.47
37.98
29.75
23.52
19.52
17.65
17.66
19.16
21.71
24.82
27.98
30.61
32.14
32.02
29.85
25.49
19.07
10.96
1.66
-8.39
-18.88
-29.67
-40.70
-51.81
-62.62
-72.28
-79.48
-82.57
-80.00
-70.86
-55.43
-35.26
-12.94
8.70
27.37
41.89
52.14
58.69
62.23
63.19
61.71
57.91
52.20
45.47
38.95
33.95
31.47
31.95
35.11
40.01
45.12
48.59
48.62
43.87
33.96
19.55
2.28
-15.87
-33.13
-48.39
-61.32
-72.19
-81.60
-90.24
-98.63
-106.91
-114.58
-120.37
-122.41
-118.74
-108.15
-90.76
-68.23
-43.23
-18.66
3.14
20.88
34.20
43.37
48.92
51.42
51.44
49.63
46.67
43.23
39.84
36.78
34.17
31.99
30.24
28.98
28.27
28.08
28.24
28.41
28.19
27.23
25.33
22.45
18.64
13.96
8.45
2.11
-5.12
-13.31
-22.44
-32.18
-41.70
-49.52
-53.71
-52.42
-44.56
-30.26
-11.02
10.72
32.25
51.29
66.42
77.10
83.53
86.31
86.32
84.54
82.03
79.78
78.64
78.99
80.65
82.77
83.99
82.91
78.52
70.60
59.79
47.25
34.15
21.14
8.28
-4.76
-18.22
-31.81
-44.76
-56.01
-64.84
-71.12
-75.49
-79.06
-83.08
-88.30
-94.74
-101.38
-106.38
-107.53
-102.84
-91.23
-72.92
-49.46
-23.35
2.62
25.99
45.08
59.10
68.01
72.38
73.12
71.43
68.65
66.06
64.68
65.00
66.83
69.28
71.06
70.92
68.07
62.43
54.59
45.52
36.17
27.14
18.59
10.34
2.19
-5.97
-14.00
-21.61
-28.54
-34.70
-40.26
-45.64
-51.32
-57.72
-64.85
-72.22
-78.70
-82.81
-83.04
-78.37
-68.64
-54.62
-37.86
-20.17
-3.14
12.14
25.19
35.89
44.27
50.30
53.91
55.04
53.74
50.07
44.18
36.21
26.46
15.52
4.32
-5.91
-14.03
-19.32
-21.80
-22.24
-21.83
-21.72
-22.62
-24.66
-27.53
-30.84
-34.31
-37.96
-42.01
-46.68
-52.07
-58.03
-64.19
-69.86
-74.09
-75.68
-73.47
-66.65
-55.24
-40.23
-23.45
-7.05
7.08
17.82
25.00
29.13
30.97
31.22
30.23
28.12
24.90
20.70
15.82
10.73
5.95
1.93
-1.03
-2.86
-3.75
-4.09
-4.36
-5.01
-6.26
-8.11
-10.34
-12.67
-14.88
-16.95
-19.02
-21.41
-24.51
-28.72
-34.26
-41.01
-48.29
-54.75
-58.56
-57.94
-51.76
-40.02
-23.97
-5.76
12.15
27.73
39.72
47.77
52.17
53.59
52.78
50.46
47.23
43.57
39.76
35.91
32.00
28.02
24.08
20.40
17.24
14.78
12.98
11.60
10.29
8.73
6.73
4.23
1.26
-2.14
-5.96
-10.20
-14.90
-20.09
-25.88
-32.38
-39.67
-47.49
-55.04
-60.88
-63.16
-60.17
-50.96
-35.88
-16.59
4.37
24.32
41.17
53.85
62.29
67.06
68.91
68.48
66.18
62.34
57.26
51.39
45.16
38.98
33.12
27.74
22.97
18.92
15.75
13.54
12.20
11.48
10.97
10.27
9.18
7.79
6.43
5.54
5.38
5.86
6.44
6.24
4.28
-0.11
-6.92
-15.17
-22.94
-27.81
-27.66
-21.53
-10.20
3.91
17.44
27.27
31.54
30.12
24.32
16.13
7.31
-1.02
-8.45
-14.86
-20.09
-23.85
-25.91
-26.37
-25.78
-24.98
-24.71
-25.28
-26.43
-27.51
-27.94
-27.62
-27.04
-27.11
-28.66
-32.03
-36.87
-42.25
-47.08
-50.59
-52.59
-53.48
-54.09
-55.35
-57.88
-61.74
-66.17
-69.64
-70.11
-65.59
-54.82
-37.83
-16.04
8.03
31.53
51.99
67.92
78.83
85.02
87.11
85.79
81.67
75.38
67.61
59.13
50.64
42.62
35.30
28.73
22.90
17.88
13.74
10.47
7.93
5.78
3.71
1.49
-0.88
-3.26
-5.47
-7.46
-9.43
-11.75
-14.89
-19.22
-24.82
-31.41
-38.44
-45.21
-51.06
-55.51
-58.18
-58.72
-56.78
-52.05
-44.47
-34.55
-23.36
-12.40
-3.22
3.12
6.30
6.85
5.74
3.96
2.03
-0.13
-2.99
-7.03
-12.26
-18.05
-23.35
-27.16
-28.99
-29.06
-28.19
-27.43
-27.71
-29.59
-33.22
-38.42
-44.72
-51.46
-57.92
-63.39
-67.34
-69.42
-69.38
-66.89
-61.48
-52.58
-39.82
-23.34
-4.02
16.49
36.04
52.44
63.98
69.90
70.58
67.45
62.52
57.71
54.24
52.29
51.05
49.23
45.72
40.09
32.77
24.76
17.10
10.45
4.83
-0.13
-4.87
-9.54
-13.91
-17.68
-20.75
-23.56
-26.98
-31.95
-39.12
-48.44
-59.18
-70.02
-79.30
-85.22
-86.15
-80.94
-69.27
-51.82
-30.29
-6.93
15.97
36.71
54.38
68.84
80.46
89.79
97.22
102.81
106.20
106.69
103.51
96.20
84.97
70.96
56.01
42.22
31.31
24.20
20.72
19.87
20.13
20.04
18.52
15.14
10.08
3.95
-2.52
-8.80
-14.69
-20.36
-26.26
-32.97
-40.91
-50.04
-59.47
-67.39
-71.22
-68.36
-57.01
-37.07
-10.39
19.53
48.54
72.95
90.42
100.40
103.83
102.55
98.44
92.88
86.46
79.00
69.91
58.72
45.53
31.37
18.10
7.83
2.29
2.06
6.38
13.29
20.39
25.59
27.61
26.21
21.86
15.29
7.19
-1.97
-11.87
-22.13
-32.35
-42.00
-50.53
-57.42
-62.08
-63.90
-62.27
-56.81
-47.54
-35.10
-20.75
-6.10
7.24
18.08
25.81
30.44
32.43
32.39
30.93
28.56
25.66
22.50
19.27
16.07
13.03
10.28
7.98
6.30
5.27
4.76
4.47
3.98
2.91
0.94
-2.07
-6.10
-10.93
-16.18
-21.44
-26.40
-31.07
-35.80
-41.10
-47.19
-53.46
-58.31
-59.32
-54.02
-40.90
-20.10
6.30
34.75
61.12
81.73
94.22
97.92
93.89
84.49
72.61
60.98
51.29
43.80
37.16
28.86
16.17
-2.40
-25.93
-50.61
-70.34
-78.76
-71.70
-49.33
-16.68
17.66
44.36
56.41
51.26
31.18
1.99
-29.06
-55.44
-72.64
-78.63
-73.64
-59.60
-39.51
-16.74
5.53
24.88
39.92
50.37
56.86
60.47
62.26
62.73
61.66
58.08
50.81
39.06
23.03
4.11
-15.40
-33.10
-47.23
-57.30
-64.06
-69.07
-73.95
-79.86
-87.31
-96.35
-106.90
-119.00
-132.80
-148.38
-165.51
-183.60
-201.72
-218.81
-233.80
-245.69
-253.58
-256.88
-255.57
-250.53
-243.52
-236.74
-231.88
-229.04
-226.25
-219.90
-205.98
-181.75
-146.66
-102.42
-51.92
2.00
57.27
112.31
165.23
213.25
252.95
281.42
297.58
302.80
300.34
294.08
287.08
280.94
276.01
272.15
269.40
268.08
268.38
269.86
271.26
270.69
266.28
256.63
241.15
220.14
194.60
165.98
135.92
105.93
77.14
50.09
24.82
1.05
-21.38
-42.16
-60.46
-75.16
-85.24
-90.25
-90.48
-86.78
-80.28
-72.12
-63.29
-54.68
-47.11
-41.31
-37.77
-36.56
-37.25
-39.02
-40.94
-42.19
-42.28
-41.03
-38.57
-35.21
-31.45
-27.86
-25.08
-23.67
-23.99
-26.16
-30.04
-35.39
-41.89
-49.28
-57.34
-65.90
-74.80
-83.96
-93.39
-103.15
-113.11
-122.74
-131.03
-136.52
-137.71
-133.44
-123.21
-107.34
-86.74
-62.70
-36.55
-9.60
16.90
41.70
63.57
81.47
94.73
103.25
107.47
108.21
106.42
102.86
98.05
92.28
85.81
79.07
72.74
67.64
64.50
63.69
65.14
68.34
72.49
76.64
79.67
80.42
77.84
71.27
60.76
47.12
31.64
15.55
-0.50
-16.51
-32.83
-49.49
-65.64
-79.57
-89.15
-92.80
-90.08
-81.91
-70.24
-57.34
-45.07
-34.50
-25.89
-18.97
-13.40
-9.02
-5.88
-4.10
-3.59
-3.86
-4.15
-3.63
-1.68
1.89
6.90
12.81
18.72
23.22
24.56
21.06
11.86
-2.47
-19.92
-37.66
-53.21
-65.22
-73.61
-78.90
-81.40
-80.79
-76.47
-68.52
-58.35
-48.72
-42.65
-42.01
-46.48
-53.40
-58.78
-58.80
-51.26
-36.19
-15.73
6.87
28.39
46.55
60.32
69.66
75.07
77.07
76.11
72.66
67.45
61.47
55.85
51.48
48.70
47.24
46.33
45.11
42.95
39.66
35.59
31.34
27.60
24.81
23.08
22.24
22.01
22.16
22.59
23.30
24.10
24.47
23.42
19.83
12.94
2.89
-9.00
-20.47
-29.04
-32.88
-31.36
-25.16
-15.79
-4.95
5.97
16.05
24.67
31.26
35.22
36.03
33.51
28.00
20.40
11.90
3.80
-2.89
-7.55
-10.14
-11.03
-10.92
-10.54
-10.46
-10.98
-12.17
-14.03
-16.50
-19.57
-23.12
-26.97
-30.79
-34.37
-37.76
-41.49
-46.37
-53.00
-61.27
-69.84
-76.27
-77.74
-72.02
-58.49
-38.34
-14.23
10.71
33.89
53.80
70.00
82.75
92.51
99.66
104.53
107.31
108.02
106.32
101.55
93.05
80.59
64.85
47.34
29.91
14.02
0.12
-12.23
-23.82
-34.93
-44.83
-51.81
-53.93
-49.80
-39.33
-23.80
-5.65
12.04
26.15
33.92
33.55
24.52
7.86
-13.96
-37.52
-59.24
-76.20
-86.60
-89.88
-86.40
-77.16
-63.41
-46.62
-28.38
-10.29
6.23
20.20
31.23
39.44
45.30
49.35
52.00
53.47
53.91
53.44
52.32
50.92
49.54
48.32
47.12
45.50
42.91
38.87
33.15
25.93
17.74
9.35
1.51
-5.22
-10.59
-14.73
-18.06
-21.15
-24.55
-28.54
-32.97
-37.23
-40.40
-41.48
-39.65
-34.42
-25.73
-13.81
0.77
17.12
33.97
49.61
62.16
69.96
72.15
68.95
61.70
52.40
43.08
35.29
29.74
26.35
24.41
22.94
20.97
17.79
13.13
7.18
0.47
-6.35
-12.74
-18.44
-23.40
-27.66
-31.25
-34.12
-36.18
-37.42
-37.96
-37.98
-37.63
-36.89
-35.51
-33.15
-29.43
-24.14
-17.42
-9.72
-1.79
5.51
11.47
15.65
18.04
19.00
19.12
18.96
18.87
18.82
18.49
17.43
15.28
12.03
8.08
4.01
0.42
-2.37
-4.38
-5.94
-7.53
-9.72
-13.16
-18.59
-26.70
-37.85
-51.68
-66.95
-81.63
-93.42
-100.41
-101.68
-97.50
-89.09
-78.06
-65.92
-53.80
-42.42
-32.23
-23.51
-16.35
-10.57
-5.71
-1.18
3.44
8.19
12.58
15.82
17.14
16.19
13.21
8.98
4.43
0.24
-3.43
-6.95
-10.92
-15.72
-21.14
-26.25
-29.69
-30.09
-26.59
-19.23
-8.92
2.80
14.23
23.93
31.06
35.36
37.07
36.67
34.60
31.11
26.09
18.91
8.49
-6.36
-26.36
-50.70
-76.55
-99.13
-112.93
-113.57
-99.47
-72.56
-37.57
-0.22
34.73
64.67
89.09
108.69
124.29
136.17
144.17
148.16
148.42
145.69
140.73
134.04
125.57
114.99
102.02
86.85
70.19
53.20
37.02
22.42
9.47
-2.39
-14.14
-26.64
-40.26
-54.57
-68.53
-80.92
-90.84
-98.14
-103.32
-107.21
-110.42
-112.97
-114.33
-113.68
-110.46
-104.63
-96.77
-87.77
-78.52
-69.64
-61.40
-53.88
-47.20
-41.61
-37.50
-35.20
-34.70
-35.58
-37.13
-38.67
-39.85
-40.85
-42.20
-44.44
-47.72
-51.62
-55.32
-57.94
-58.97
-58.53
-57.25
-55.99
-55.57
-56.53
-59.06
-63.06
-68.16
-73.77
-79.10
-83.23
-85.32
-84.84
-81.90
-77.16
-71.71
-66.62
-62.50
-59.18
-55.69
-50.53
-42.16
-29.53
-12.46
8.20
30.84
53.42
74.00
91.14
104.05
112.54
116.91
117.78
115.98
112.47
108.23
104.13
100.67
97.99
95.79
93.61
91.09
88.08
84.74
81.34
78.13
75.16
72.35
69.48
66.45
63.34
60.49
58.48
57.87
58.92
61.22
63.63
64.46
61.98
55.12
43.91
29.57
14.22
0.24
-10.49
-16.98
-19.28
-18.22
-15.01
-10.84
-6.65
-3.03
-0.28
1.49
2.22
1.98
0.89
-0.71
-2.27
-3.16
-2.81
-0.97
2.06
5.40
7.83
8.05
5.19
-0.99
-9.90
-20.38
-30.92
-40.08
-46.83
-50.77
-52.21
-52.01
-51.31
-51.02
-51.36
-51.59
-49.93
-44.08
-31.89
-12.30
13.94
44.05
73.66
97.93
112.85
116.34
108.66
92.12
70.16
46.40
23.90
4.81
-9.57
-18.75
-22.84
-22.54
-18.95
-13.43
-7.38
-2.02
1.72
3.34
2.82
0.65
-2.27
-4.91
-6.54
-7.03
-6.97
-7.49
-9.79
-14.68
-22.22
-31.67
-41.60
-50.08
-55.08
-54.92
-48.82
-37.37
-22.65
-7.76
4.10
10.66
11.30
7.08
0.15
-7.15
-13.04
-16.54
-17.35
-15.54
-11.39
-5.50
1.14
7.16
11.15
12.21
10.34
6.47
2.22
-0.68
-1.03
1.60
6.69
12.99
18.82
22.51
22.78
19.06
11.65
1.64
-9.38
-19.72
-28.00
-33.51
-36.34
-37.35
-37.93
-39.57
-43.41
-49.89
-58.53
-68.03
-76.58
-82.23
-83.34
-78.94
-68.90
-54.03
-35.88
-16.41
2.49
19.46
33.86
45.66
55.20
62.88
69.06
74.11
78.45
82.51
86.40
89.73
91.59
90.81
86.64
79.19
69.55
59.52
51.01
45.43
43.40
44.74
48.57
53.41
57.18
57.40
51.56
37.94
16.41
-11.27
-41.76
-71.13
-96.06
-114.62
-126.41
-131.95
-131.99
-126.96
-116.98
-102.24
-83.48
-62.16
-40.32
-20.03
-2.92
10.17
19.23
24.77
27.53
28.06
26.58
23.11
17.78
11.07
3.93
-2.46
-7.14
-9.73
-10.55
-10.39
-10.12
-10.26
-10.88
-11.75
-12.61
-13.46
-14.54
-16.24
-18.88
-22.55
-27.18
-32.61
-38.74
-45.49
-52.67
-59.74
-65.66
-68.97
-68.12
-62.05
-50.64
-34.81
-16.33
2.78
20.79
36.60
49.76
60.15
67.65
72.05
73.15
71.05
66.37
60.27
54.13
49.18
46.17
45.15
45.56
46.54
47.23
47.04
45.82
43.78
41.32
38.93
36.92
35.43
34.28
33.14
31.57
29.19
25.80
21.39
16.29
11.08
6.63
3.84
3.39
5.39
9.18
13.51
16.88
18.14
16.84
13.34
8.51
3.23
-1.93
-6.81
-11.45
-15.80
-19.57
-22.38
-23.96
-24.40
-24.20
-23.97
-24.17
-24.86
-25.67
-26.03
-25.46
-23.87
-21.57
-19.22
-17.59
-17.21
-18.27
-20.45
-23.09
-25.36
-26.63
-26.75
-26.21
-26.03
-27.39
-31.17
-37.40
-44.99
-51.86
-55.41
-53.25
-43.85
-27.05
-4.11
22.45
49.45
73.69
92.69
105.18
111.17
111.65
108.11
101.97
94.32
85.84
76.95
67.92
58.92
49.93
40.76
31.05
20.50
9.09
-2.72
-13.87
-22.71
-27.38
-26.43
-19.64
-8.74
2.67
9.97
9.18
-1.52
-21.00
-45.67
-70.92
-92.89
-109.54
-120.75
-127.53
-131.02
-131.79
-129.75
-124.56
-116.22
-105.27
-92.80
-80.07
-68.12
-57.54
-48.43
-40.57
-33.72
-27.81
-22.88
-19.03
-16.10
-13.61
-10.78
-6.72
-0.72
7.55
17.91
29.72
42.03
53.78
64.03
72.14
77.96
81.72
83.89
84.93
85.09
84.31
82.29
78.60
72.78
64.33
52.89
38.39
21.38
3.26
-13.83
-27.38
-35.20
-36.02
-29.85
-17.78
-1.64
16.41
34.15
49.43
60.32
65.49
64.54
58.30
48.65
37.90
28.05
20.24
14.61
10.65
7.80
5.74
4.52
4.35
5.31
7.15
9.38
11.32
12.39
12.22
10.70
8.00
4.50
0.65
-3.09
-6.44
-9.36
-12.07
-15.12
-19.19
-24.80
-31.91
-39.57
-45.88
-48.39
-44.99
-34.68
-18.18
2.29
23.85
43.97
61.29
75.69
87.83
98.34
107.04
112.93
114.67
111.30
102.93
90.79
76.84
63.17
51.46
42.61
36.81
33.43
31.12
27.87
21.60
10.93
-3.89
-20.73
-36.17
-46.96
-51.67
-51.50
-49.91
-51.09
-58.08
-71.55
-89.69
-109.27
-127.02
-140.80
-149.91
-154.70
-155.80
-153.57
-147.99
-138.99
-126.84
-112.50
-97.37
-82.96
-70.39
-60.28
-52.85
-48.32
-46.97
-48.98
-53.85
-59.98
-64.65
-64.64
-57.26
-41.24
-17.23
12.45
44.66
76.29
105.02
129.62
149.91
166.37
179.77
190.83
199.92
207.00
211.75
213.78
212.83
208.83
202.00
192.81
181.98
170.46
159.16
148.52
138.10
126.38
111.14
90.26
62.81
29.66
-6.46
-41.80
-72.79
-97.10
-114.03
-124.20
-128.81
-129.02
-125.70
-119.56
-111.51
-102.79
-94.78
-88.52
-84.40
-81.99
-80.43
-78.87
-76.95
-74.90
-73.26
-72.45
-72.46
-72.83
-72.88
-72.19
-70.89
-69.72
-69.81
-72.13
-76.96
-83.58
-90.25
-94.75
-94.92
-89.46
-78.20
-62.07
-42.79
-22.24
-2.06
16.49
32.62
45.77
55.55
61.70
64.27
63.58
60.26
55.06
48.72
41.92
35.24
29.30
24.66
21.80
20.86
21.57
23.15
24.58
24.81
23.19
19.59
14.44
8.49
2.52
-2.94
-7.82
-12.49
-17.76
-24.51
-33.33
-44.11
-55.67
-65.78
-71.57
-70.36
-60.54
-42.24
-17.52
10.15
36.75
58.82
74.16
82.21
83.76
80.42
73.90
65.64
56.60
47.43
38.69
30.89
24.49
19.68
16.23
13.60
11.12
8.26
4.87
1.13
-2.64
-6.18
-9.46
-12.67
-16.06
-19.81
-23.93
-28.39
-33.28
-38.90
-45.69
-53.93
-63.31
-72.65
-79.96
-82.95
-79.77
-69.78
-53.78
-33.81
-12.48
7.80
25.35
39.37
49.67
56.40
59.81
60.26
58.32
54.79
50.62
46.60
43.14
40.22
37.55
34.89
32.31
30.19
29.02
29.00
29.87
30.83
30.89
29.28
25.70
20.43
14.11
7.36
0.54
-6.43
-13.93
-22.48
-32.52
-44.24
-57.34
-70.86
-83.08
-91.69
-94.32
-89.30
-76.36
-56.86
-33.57
-9.78
11.54
28.47
40.32
47.24
49.87
48.86
44.90
38.75
31.40
24.00
17.64
13.00
10.18
8.73
7.99
7.51
7.23
7.51
8.74
11.03
13.91
16.49
17.68
16.72
13.35
7.89
1.05
-6.40
-13.86
-21.09
-28.19
-35.55
-43.70
-53.06
-63.66
-74.81
-84.94
-91.86
-93.29
-87.64
-74.69
-55.71
-33.14
-9.82
11.83
30.26
44.80
55.41
62.28
65.66
65.89
63.52
59.38
54.47
49.62
45.36
41.77
38.62
35.67
32.90
30.59
29.16
28.89
29.60
30.67
31.11
29.96
26.71
21.43
14.77
7.68
1.06
-4.53
-9.06
-12.97
-17.09
-22.36
-29.55
-38.81
-49.43
-59.70
-67.23
-69.63
-65.25
-53.87
-36.82
-16.64
3.74
21.76
35.82
45.41
50.82
52.77
52.03
49.25
45.00
39.77
34.11
28.56
23.58
19.54
16.66
15.11
14.99
16.28
18.73
21.81
24.72
26.59
26.76
24.98
21.50
16.84
11.63
6.32
1.12
-4.04
-9.44
-15.55
-22.88
-31.68
-41.62
-51.46
-59.10
-62.15
-58.64
-47.81
-30.40
-8.40
15.59
39.12
60.23
77.45
89.62
95.72
95.14
88.07
75.77
60.49
44.93
31.41
21.28
14.70
10.92
8.86
7.62
6.80
6.34
6.19
6.02
5.09
2.44
-2.75
-10.82
-21.43
-33.67
-46.28
-58.05
-68.16
-76.41
-83.33
-90.01
-97.78
-107.74
-120.07
-133.66
-146.09
-154.10
-154.63
-145.88
-128.06
-103.58
-76.39
-50.97
-31.03
-18.50
-13.05
-12.29
-12.55
-10.06
-2.02
12.66
33.19
57.31
82.09
104.82
123.71
138.08
148.25
154.98
158.87
159.97
157.77
151.58
141.04
126.50
109.10
90.37
71.80
54.41
38.79
25.30
14.27
6.11
1.05
-1.17
-1.46
-1.18
-1.74
-4.05
-8.23
-13.66
-19.25
-24.07
-27.71
-30.56
-33.61
-38.09
-44.79
-53.67
-63.54
-72.26
-77.26
-76.29
-68.13
-53.03
-32.59
-9.35
13.94
35.04
52.60
66.26
76.39
83.74
89.12
93.21
96.62
99.81
103.16
106.87
110.87
114.84
118.32
120.80
121.85
121.11
118.40
113.60
106.79
98.18
88.17
77.27
66.01
54.84
44.14
34.30
25.77
19.19
15.23
14.29
16.14
19.78
23.58
25.82
25.18
21.01
13.16
1.71
-13.31
-31.57
-51.95
-72.23
-89.27
-100.04
-102.81
-97.99
-88.07
-76.59
-66.87
-61.10
-60.16
-64.00
-72.12
-83.66
-97.24
-110.87
-122.16
-128.96
-130.15
-125.97
-117.84
-107.64
-96.87
-86.22
-75.72
-65.19
-54.78
-45.06
-36.77
-30.46
-26.33
-24.24
-24.01
-25.47
-28.46
-32.68
-37.67
-42.95
-48.20
-53.37
-58.33
-62.51
-64.64
-62.95
-55.79
-42.36
-23.23
-0.18
24.36
48.01
68.91
85.77
97.71
104.02
104.20
98.25
86.86
71.56
54.31
37.09
21.31
7.58
-4.22
-14.52
-23.66
-31.67
-38.37
-43.67
-47.85
-51.56
-55.50
-60.13
-65.41
-70.93
-76.21
-81.10
-85.90
-91.20
-97.52
-104.88
-112.60
-119.24
-122.82
-121.28
-112.99
-97.32
-74.96
-47.98
-19.43
7.46
30.01
46.73
57.38
62.72
64.04
62.65
59.62
55.73
51.45
47.05
42.60
38.10
33.63
29.40
25.77
23.06
21.37
20.42
19.63
18.31
15.97
12.45
7.99
2.95
-2.37
-7.92
-13.88
-20.59
-28.37
-37.40
-47.67
-58.88
-70.22
-80.30
-87.12
-88.48
-82.63
-69.01
-48.62
-23.91
1.89
25.68
45.29
59.69
68.91
73.56
74.48
72.49
68.47
63.28
57.75
52.47
47.67
43.23
38.83
34.28
29.62
25.22
21.48
18.67
16.70
15.11
13.22
10.39
6.27
0.87
-5.45
-12.16
-18.76
-24.96
-30.88
-36.98
-44.01
-52.66
-63.13
-74.73
-85.66
-93.31
-94.95
-88.62
-73.95
-52.45
-27.09
-1.44
21.41
39.55
52.35
60.17
63.78
63.92
61.26
56.45
50.30
43.70
37.45
32.01
27.45
23.59
20.22
17.31
14.98
13.36
12.37
11.68
10.74
9.05
6.31
2.58
-1.85
-6.55
-11.20
-15.73
-20.37
-25.58
-31.94
-39.80
-49.04
-58.76
-67.20
-72.07
-71.11
-62.92
-47.48
-26.35
-2.29
21.56
42.50
58.85
70.06
76.44
78.80
77.97
74.76
69.85
63.83
57.28
50.65
44.32
38.63
33.82
30.11
27.56
26.05
25.14
24.18
22.43
19.33
14.66
8.62
1.71
-5.52
-12.66
-19.57
-26.40
-33.51
-41.37
-50.40
-60.81
-72.19
-83.29
-91.93
-95.44
-91.46
-78.88
-58.45
-32.74
-5.38
20.04
40.98
56.29
66.16
71.45
73.18
72.21
69.24
64.85
59.64
54.09
48.49
42.85
37.06
31.07
25.05
19.51
15.03
12.03
10.41
9.53
8.34
5.80
1.25
-5.29
-13.13
-21.22
-28.57
-34.70
-39.89
