1653295168.00
64.000000
-0.00
-0.00
-0.00
-0.00
-0.00
-0.00
-0.00
-0.00
-0.00
-0.00
0.00
0.01
0.01
-0.00
-0.03
-0.05
-0.05
0.00
0.13
0.36
0.66
1.01
1.37
1.72
2.06
2.40
2.79
3.24
3.80
4.42
5.06
5.66
6.20
6.68
7.15
7.68
8.31
9.14
10.09
11.04
11.88
12.56
13.14
13.76
14.65
15.96
17.91
20.32
22.90
25.38
27.58
29.57
31.68
34.32
37.81
42.54
48.15
54.10
59.83
64.97
69.58
74.14
79.34
85.71
93.76
103.00
112.62
121.73
129.77
136.75
143.30
150.75
157.77
166.64
177.95
191.79
206.97
220.57
228.25
225.36
208.53
176.87
132.76
80.05
23.07
-34.94
-92.44
-149.16
-205.23
-260.37
-313.74
-363.87
-409.83
-450.91
-486.50
-515.74
-537.23
-549.22
-549.96
-538.37
-514.21
-478.67
-433.88
-382.45
-327.02
-269.84
-212.63
-156.66
-102.95
-52.37
-5.90
35.58
71.43
101.35
125.50
144.38
158.69
169.15
176.37
180.75
182.57
182.07
179.51
175.23
169.65
163.18
156.15
148.81
141.30
133.69
126.02
118.33
110.69
103.16
95.80
88.68
81.83
75.25
68.95
62.95
57.25
51.86
46.78
42.03
37.59
33.45
29.61
26.07
22.81
19.83
17.11
14.67
12.48
10.54
8.83
7.35
6.07
4.97
4.05
3.27
2.62
2.09
1.65
1.30
1.01
0.79
0.61
0.47
0.37
0.29
0.23
0.19
0.16
0.14
0.14
0.15
0.18
0.23
0.27
0.30
0.29
0.24
0.17
0.09
0.04
0.03
0.07
0.13
0.20
0.23
0.21
0.16
0.11
0.10
0.17
0.29
0.44
0.56
0.61
0.55
0.42
0.31
0.31
0.48
0.82
1.22
1.53
1.61
1.42
1.03
0.65
0.52
0.79
1.44
2.26
2.91
3.08
2.67
1.85
0.98
0.55
0.83
1.82
3.15
4.25
4.60
4.00
2.71
1.31
0.38
0.30
0.96
1.84
2.19
1.32
-1.30
-6.02
-12.92
-21.50
-30.41
-37.45
-40.13
-36.69
-27.09
-13.31
1.26
13.18
20.32
22.55
21.29
18.53
15.67
13.10
10.52
7.56
4.41
1.74
0.29
0.35
1.50
2.89
3.65
3.22
1.72
-0.31
-2.20
-3.48
-4.03
-4.12
-4.12
-4.35
-4.91
-5.64
-6.34
-6.86
-7.27
-7.74
-8.47
-9.54
-10.75
-11.67
-11.80
-10.73
-8.36
-4.90
-0.85
3.18
6.68
9.31
10.99
11.85
12.04
11.69
10.85
9.45
7.53
5.16
2.63
0.33
-1.33
-2.12
-2.02
-1.21
-0.24
0.50
0.77
0.53
-0.16
-1.19
-2.45
-3.89
-5.39
-6.81
-7.96
-8.84
-9.62
-10.70
-12.49
-15.28
-19.12
-23.82
-29.08
-34.43
-39.33
-43.11
-44.98
-44.24
-40.51
-33.92
-25.13
-15.13
-4.86
5.00
14.11
22.37
29.71
35.95
40.80
44.04
45.66
45.93
45.29
44.21
43.00
41.74
40.40
38.86
37.08
35.12
33.14
31.27
29.55
27.90
26.06
23.77
20.81
17.13
12.86
8.29
3.74
-0.58
-4.61
-8.53
-12.57
-17.02
-21.98
-27.37
-32.81
-37.71
-41.28
-42.77
-41.67
-37.78
-31.33
-22.89
-13.24
-3.13
6.77
15.96
24.05
30.72
35.71
38.92
40.41
40.46
39.51
37.93
36.04
33.93
31.63
29.18
26.77
24.61
22.87
21.53
20.29
18.71
16.37
13.13
9.16
4.84
0.66
-3.08
-6.27
-9.09
-11.76
-14.55
-17.66
-21.25
-25.45
-30.30
-35.65
-41.05
-45.70
-48.63
-48.96
-46.25
-40.59
-32.67
-23.42
-13.80
-4.52
3.95
11.36
17.51
22.25
25.50
27.33
28.04
28.02
27.65
27.15
26.57
25.83
24.84
23.57
22.04
20.27
18.28
16.05
13.57
10.86
7.92
4.78
1.48
-1.91
-5.26
-8.45
-11.45
-14.41
-17.65
-21.53
-26.19
-31.45
-36.63
-40.77
-42.91
-42.33
-38.86
-32.81
-24.93
-16.09
-7.08
1.53
9.43
16.46
22.51
27.39
30.91
32.96
33.60
33.11
31.89
30.33
28.68
27.02
25.32
23.55
21.73
19.94
18.21
16.45
14.49
12.11
9.20
5.77
2.01
-1.81
-5.48
-8.84
-11.92
-14.92
-18.13
-21.90
-26.39
-31.47
-36.63
-41.04
-43.81
-44.22
-42.00
-37.38
-30.94
-23.41
-15.52
-7.83
-0.73
5.47
10.61
14.61
17.52
19.48
20.63
21.07
20.87
20.07
18.77
17.17
15.47
13.84
12.35
10.90
9.35
7.56
5.50
3.22
0.80
-1.66
-4.13
-6.63
-9.19
-11.86
-14.71
-17.84
-21.35
-25.27
-29.53
-33.81
-37.60
-40.20
-40.90
-39.20
-34.94
-28.40
-20.21
-11.23
-2.34
5.75
12.52
17.72
21.32
23.44
24.29
24.19
23.43
22.22
20.65
18.75
16.56
14.18
11.77
9.54
7.58
5.84
4.14
2.24
0.01
-2.60
-5.50
-8.57
-11.75
-14.99
-18.30
-21.65
-25.06
-28.57
-32.24
-36.08
-39.94
-43.38
-45.80
-46.52
-45.08
-41.31
-35.45
-28.02
-19.62
-10.87
-2.34
5.45
12.07
17.21
20.77
22.90
23.93
24.27
24.25
24.09
23.90
23.68
23.41
23.01
22.42
21.59
20.51
19.17
17.57
15.66
13.36
10.61
7.41
3.85
0.13
-3.57
-7.13
-10.55
-13.95
-17.49
-21.32
-25.46
-29.70
-33.62
-36.63
-38.11
-37.59
-34.89
-30.18
-23.94
-16.81
-9.45
-2.42
3.86
9.12
13.27
16.32
18.40
19.64
20.26
20.44
20.32
20.01
19.57
19.02
18.33
17.43
16.27
14.82
13.08
11.08
8.87
6.50
4.02
1.46
-1.16
-3.86
-6.67
-9.66
-12.87
-16.32
-20.02
-23.90
-27.74
-31.14
-33.53
-34.30
-33.01
-29.59
-24.39
-18.06
-11.32
-4.77
1.24
6.50
10.86
14.19
16.38
17.48
17.74
17.54
17.26
17.16
17.28
17.50
17.62
17.45
16.87
15.86
14.44
12.72
10.80
8.78
6.63
4.28
1.68
-1.18
-4.23
-7.34
-10.50
-13.85
-17.61
-21.89
-26.52
-30.91
-34.21
-35.60
-34.58
-31.15
-25.81
-19.28
-12.25
-5.23
1.53
7.97
13.98
19.42
24.04
27.62
30.06
31.43
31.97
31.95
31.56
30.93
30.06
28.98
27.72
26.37
24.95
23.37
21.42
18.88
15.65
11.84
7.80
3.93
0.51
-2.43
-5.06
-7.69
-10.55
-13.79
-17.36
-21.18
-25.04
-28.64
-31.52
-33.13
-32.98
-30.80
-26.68
-21.07
-14.61
-7.89
-1.33
4.87
10.61
15.78
20.18
23.62
26.01
27.42
28.08
28.30
28.36
28.38
28.34
28.11
27.56
26.66
25.46
24.04
22.46
20.65
18.46
15.80
12.70
9.36
6.07
3.06
0.43
-1.99
-4.45
-7.24
-10.52
-14.30
-18.45
-22.69
-26.68
-29.95
-32.01
-32.43
-30.97
-27.68
-22.91
-17.19
-11.10
-5.13
0.38
5.26
9.42
12.84
15.51
17.42
18.60
19.14
19.13
18.71
18.01
17.12
16.09
14.92
13.64
12.26
10.82
9.34
7.81
6.16
4.30
2.15
-0.35
-3.17
-6.27
-9.53
-12.90
-16.36
-19.94
-23.66
-27.39
-30.83
-33.46
-34.72
-34.11
-31.47
-26.94
-20.98
-14.21
-7.29
-0.71
5.12
10.01
13.84
16.56
18.24
19.00
19.08
18.78
18.33
17.92
17.58
17.24
16.78
16.12
15.21
14.05
12.64
10.98
9.01
6.72
4.12
1.29
-1.66
-4.66
-7.68
-10.74
-13.94
-17.37
-21.09
-25.07
-29.12
-32.82
-35.58
-36.80
-36.07
-33.31
-28.82
-23.19
-17.06
-10.99
-5.28
-0.08
4.53
8.46
11.58
13.81
15.15
15.71
15.75
15.54
15.30
15.18
15.20
15.31
15.39
15.32
14.99
14.34
13.32
11.90
10.09
7.92
5.51
2.98
0.50
-1.85
-4.09
-6.40
-9.05
-12.31
-16.33
-21.06
-26.11
-30.87
-34.58
-36.61
-36.53
-34.32
-30.28
-24.97
-18.98
-12.80
-6.82
-1.28
3.60
7.64
10.70
12.76
13.96
14.56
14.85
15.04
15.12
14.91
14.21
12.88
11.01
8.83
6.62
4.56
2.64
0.76
-1.25
-3.50
-6.07
-9.00
-12.37
-16.30
-20.95
-26.42
-32.79
-40.08
-48.32
-57.63
-68.11
-79.75
-92.19
-104.61
-115.80
-124.46
-129.66
-131.24
-129.83
-126.63
-122.89
-119.46
-116.54
-113.80
-110.67
-106.54
-100.86
-93.16
-83.05
-70.36
-55.37
-38.95
-22.37
-7.00
6.24
17.05
25.73
32.91
39.09
44.44
48.83
52.04
53.97
54.77
54.69
53.91
52.39
49.91
46.27
41.48
35.94
30.29
25.35
21.82
20.20
20.72
23.33
27.76
33.50
39.92
46.30
51.95
56.41
59.55
61.62
63.10
64.58
66.43
68.70
71.16
73.55
75.85
78.43
81.96
87.11
94.14
102.76
112.14
121.20
128.87
134.33
136.89
136.05
131.44
123.14
111.79
98.64
85.30
73.24
63.31
55.52
49.10
42.86
35.65
26.68
15.79
3.44
-9.32
-21.13
-30.57
-36.62
-38.93
-37.88
-34.46
-29.81
-24.94
-20.48
-16.78
-13.94
-11.99
-10.83
-10.27
-9.94
-9.46
-8.54
-7.15
-5.50
-4.00
-3.05
-2.91
-3.61
-4.95
-6.66
-8.46
-10.17
-11.78
-13.40
-15.20
-17.25
-19.49
-21.75
-23.85
-25.75
-27.60
-29.74
-32.48
-36.03
-40.25
-44.69
-48.62
-51.18
-51.63
-49.48
-44.72
-37.77
-29.45
-20.72
-12.37
-4.87
1.69
7.38
12.28
16.31
19.26
21.01
21.65
21.58
21.31
21.26
21.56
22.00
22.20
21.86
20.81
19.18
17.13
14.83
12.38
9.78
7.06
4.25
1.40
-1.50
-4.57
-7.93
-11.80
-16.30
-21.42
-26.98
-32.59
-37.60
-41.22
-42.72
-41.64
-37.95
-32.13
-24.96
-17.34
-10.03
-3.50
1.98
6.28
9.34
11.17
11.85
11.64
10.88
9.86
8.80
7.78
6.79
5.85
4.97
4.24
3.66
3.18
2.67
2.05
1.28
0.45
-0.29
-0.84
-1.13
-1.21
-1.17
-1.12
-1.23
-1.72
-2.89
-4.94
-7.95
-11.65
-15.41
-18.39
-19.77
-19.03
-16.17
-11.62
-5.99
0.10
6.21
12.12
17.64
22.52
26.49
29.30
30.91
31.51
31.45
31.12
30.72
30.23
29.50
28.32
26.62
24.48
22.14
19.87
17.86
16.10
14.41
12.42
9.83
6.40
2.16
-2.72
-8.01
-13.49
-19.10
-24.89
-30.92
-37.17
-43.33
-48.84
-52.91
-54.77
-53.97
-50.56
-45.15
-38.71
-32.26
-26.49
-21.62
-17.48
-13.72
-10.11
-6.56
-3.24
-0.34
1.99
3.71
4.91
5.79
6.69
8.00
10.17
13.61
18.46
24.54
31.21
37.52
42.48
45.35
45.85
44.11
40.45
35.17
28.37
20.02
10.17
-0.82
-12.21
-22.95
-31.88
-38.05
-40.82
-40.05
-36.04
-29.51
-21.44
-12.86
-4.70
2.43
8.20
12.58
15.63
17.43
18.04
17.60
16.35
14.75
13.33
12.50
12.41
12.90
13.54
13.91
13.76
13.12
12.19
11.23
10.37
9.58
8.67
7.52
6.06
4.37
2.52
0.53
-1.72
-4.48
-8.03
-12.50
-17.77
-23.33
-28.43
-32.25
-34.16
-33.94
-31.76
-28.11
-23.58
-18.68
-13.73
-8.93
-4.40
-0.31
3.18
5.86
7.61
8.43
8.41
7.73
6.65
5.37
3.93
2.24
0.04
-2.88
-6.56
-10.80
-15.23
-19.50
-23.43
-27.08
-30.68
-34.49
-38.69
-43.28
-48.21
-53.40
-58.74
-64.00
-68.76
-72.41
-74.28
-73.87
-71.05
-66.10
-59.69
-52.62
-45.65
-39.24
-33.63
-28.87
-24.96
-21.94
-19.86
-18.69
-18.22
-18.14
-18.06
-17.67
-16.78
-15.39
-13.53
-11.31
-8.79
-6.01
-3.05
-0.02
2.86
5.38
7.44
9.13
10.77
12.78
15.52
19.06
23.12
27.12
30.43
32.60
33.59
33.76
33.77
34.35
36.04
39.06
43.25
48.09
52.97
57.29
60.62
62.77
63.68
63.33
61.73
59.00
55.45
51.59
48.01
45.22
43.41
42.38
41.66
40.71
39.10
36.65
33.46
29.78
25.92
22.10
18.39
14.75
11.08
7.28
3.27
-1.07
-5.89
-11.23
-17.00
-22.80
-27.94
-31.60
-33.12
-32.21
-29.00
-24.01
-17.90
-11.37
-5.04
0.54
4.90
7.75
9.09
9.33
9.20
9.56
11.11
14.17
18.49
23.46
28.22
32.02
34.36
35.06
34.29
32.45
30.09
27.83
26.23
25.61
26.02
27.12
28.28
28.77
27.99
25.76
22.43
18.85
16.11
15.14
16.41
19.79
24.58
29.89
34.96
39.37
43.06
46.07
48.38
49.80
49.99
48.65
45.60
40.79
34.19
25.85
15.91
4.81
-6.67
-17.59
-27.04
-34.59
-40.31
-44.70
-48.31
-51.49
-54.34
-56.86
-59.28
-62.13
-66.09
-71.66
-78.68
-86.23
-92.87
-97.10
-97.89
-94.94
-88.66
-79.94
-69.72
-58.78
-47.63
-36.66
-26.19
-16.59
-8.25
-1.45
3.76
7.62
10.62
13.33
16.21
19.39
22.70
25.69
27.81
28.63
27.96
25.92
22.87
19.26
15.55
12.02
8.81
5.85
2.98
0.02
-3.09
-6.27
-9.26
-11.68
-13.11
-13.26
-11.98
-9.36
-5.66
-1.20
3.70
8.81
13.99
19.15
24.19
28.95
33.27
36.99
40.07
42.57
44.63
46.35
47.70
48.49
48.46
47.42
45.36
42.51
39.22
35.83
32.62
29.72
27.19
24.94
22.74
20.15
16.69
11.99
6.23
0.20
-4.83
-7.61
-7.50
-4.73
-0.26
4.79
9.65
14.30
19.26
25.13
32.02
39.34
45.91
50.47
52.23
51.21
48.30
44.90
42.32
41.33
41.78
42.62
42.26
39.20
32.50
22.15
9.06
-5.23
-19.03
-30.89
-40.01
-46.30
-50.37
-53.22
-55.81
-58.69
-61.80
-64.57
-66.18
-66.03
-63.94
-60.20
-55.38
-50.04
-44.69
-39.65
-35.19
-31.52
-28.82
-27.01
-25.75
-24.47
-22.50
-19.39
-15.09
-10.11
-5.32
-1.76
-0.20
-0.93
-3.57
-7.27
-10.93
-13.64
-14.91
-14.85
-14.07
-13.59
-14.61
-18.30
-25.41
-36.00
-49.09
-62.71
-74.26
-81.23
-82.00
-76.33
-65.27
-50.73
-34.70
-18.79
-4.00
9.06
19.98
28.35
33.90
36.68
37.18
36.23
34.68
33.18
31.91
30.67
29.03
26.58
23.12
18.73
13.76
8.66
3.82
-0.57
-4.53
-8.35
-12.37
-16.94
-22.29
-28.48
-35.33
-42.47
-49.34
-55.22
-59.32
-60.91
-59.51
-55.01
-47.75
-38.40
-27.76
-16.60
-5.49
5.17
15.05
23.82
31.13
36.69
40.36
42.24
42.63
41.96
40.63
38.91
36.92
34.65
32.01
28.95
25.47
21.67
17.70
13.70
9.69
5.50
0.90
-4.40
-10.59
-17.71
-25.64
-33.99
-42.19
-49.45
-54.89
-57.73
-57.48
-54.11
-48.01
-39.84
-30.34
-20.09
-9.56
0.89
10.85
19.87
27.45
33.18
36.89
38.62
38.71
37.67
36.13
34.64
33.52
32.82
32.28
31.58
30.43
28.70
26.44
23.73
20.54
16.75
12.22
6.90
0.88
-5.68
-12.70
-20.26
-28.39
-36.87
-44.93
-51.37
-54.83
-54.39
-49.86
-41.83
-31.38
-19.64
-7.44
4.67
16.30
26.94
35.97
42.82
47.30
49.71
50.80
51.37
51.94
52.42
52.10
49.79
44.21
34.48
20.48
3.11
-15.83
-34.13
-49.68
-61.12
-68.01
-70.85
-70.63
-68.41
-64.98
-60.80
-56.08
-50.90
-45.31
-39.29
-32.70
-25.34
-17.20
-8.56
-0.07
7.47
13.39
17.56
20.44
23.00
26.30
31.08
37.52
45.18
53.23
60.73
66.94
71.36
73.89
74.70
74.11
72.51
70.17
67.22
63.64
59.35
54.30
48.56
42.31
35.75
29.05
22.26
15.40
8.45
1.41
-5.73
-12.96
-20.28
-27.57
-34.49
-40.47
-44.73
-46.58
-45.60
-41.82
-35.68
-27.93
-19.34
-10.58
-2.20
5.33
11.59
16.27
19.25
20.69
20.98
20.61
20.02
19.44
18.94
18.44
17.83
16.99
15.77
14.02
11.62
8.59
5.06
1.29
-2.51
-6.29
-10.24
-14.67
-19.80
-25.73
-32.33
-39.37
-46.64
-53.85
-60.70
-66.64
-70.94
-72.87
-71.97
-68.27
-62.29
-54.80
-46.49
-37.77
-28.80
-19.65
-10.60
-2.15
5.13
10.83
14.86
17.51
19.25
20.51
21.51
22.23
22.49
22.06
20.84
18.85
16.27
13.38
10.47
7.79
5.48
3.51
1.72
-0.14
-2.34
-5.12
-8.70
-13.23
-18.72
-24.93
-31.22
-36.68
-40.26
-41.12
-38.93
-34.06
-27.38
-19.99
-12.84
-6.47
-1.01
3.72
7.89
11.55
14.58
16.72
17.76
17.65
16.61
15.07
13.62
12.74
12.70
13.51
14.89
16.49
17.94
18.93
19.19
18.43
16.31
12.47
6.74
-0.73
-9.43
-18.65
-27.64
-35.87
-43.03
-48.88
-53.05
-54.87
-53.56
-48.60
-40.07
-28.88
-16.54
-4.69
5.49
13.52
19.57
24.17
27.82
30.74
32.95
34.35
34.95
34.95
34.66
34.35
34.17
34.07
34.00
33.90
33.88
34.13
34.82
35.87
36.89
37.22
36.08
32.88
27.41
20.08
11.84
3.99
-2.21
-6.00
-7.23
-6.39
-4.20
-1.22
2.40
6.81
12.16
18.23
24.39
29.82
33.87
36.38
37.57
37.82
37.34
36.07
33.85
30.71
26.97
23.27
20.26
18.38
17.67
17.83
18.42
19.03
19.37
19.36
19.06
18.59
18.05
17.46
16.72
15.63
14.01
11.68
8.59
4.81
0.40
-4.64
-10.31
-16.59
-23.19
-29.48
-34.51
-37.32
-37.24
-34.20
-28.71
-21.67
-14.01
-6.44
0.62
6.92
12.19
16.04
18.12
18.30
16.84
14.35
11.56
9.09
7.23
5.95
5.02
4.22
3.39
2.45
1.30
-0.09
-1.77
-3.63
-5.46
-7.01
-8.15
-9.03
-10.05
-11.73
-14.42
-18.03
-22.02
-25.48
-27.48
-27.36
-24.95
-20.55
-14.78
-8.40
-2.08
3.64
8.40
12.00
14.37
15.56
15.68
14.91
13.41
11.38
9.06
6.68
4.43
2.35
0.38
-1.64
-3.84
-6.28
-8.87
-11.49
-13.99
-16.33
-18.58
-20.89
-23.50
-26.70
-30.81
-36.00
-42.12
-48.60
-54.36
-58.20
-59.10
-56.63
-51.09
-43.32
-34.34
-24.99
-15.75
-6.88
1.38
8.72
14.73
19.11
21.84
23.15
23.44
23.12
22.45
21.51
20.32
18.83
16.99
14.76
12.17
9.32
6.40
3.57
0.88
-1.80
-4.75
-8.31
-12.66
-17.80
-23.53
-29.49
-35.21
-40.09
-43.47
-44.69
-43.30
-39.24
-32.92
-25.04
-16.44
-7.83
0.34
7.77
14.22
19.49
23.39
25.84
26.96
27.05
26.49
25.63
24.68
23.67
22.49
20.92
18.76
15.91
12.45
8.57
4.58
0.71
-2.94
-6.40
-9.84
-13.44
-17.40
-21.94
-27.21
-33.22
-39.68
-45.88
-50.85
-53.55
-53.33
-50.09
-44.40
-37.16
-29.34
-21.59
-14.21
-7.24
-0.67
5.39
10.71
15.03
18.25
20.50
22.12
23.52
25.00
26.63
28.28
29.67
30.52
30.64
30.01
28.69
26.78
24.34
21.43
18.12
14.47
10.54
6.31
1.68
-3.55
-9.49
-15.96
-22.40
-27.89
-31.42
-32.20
-29.96
-25.01
-18.11
-10.22
-2.13
5.64
12.82
19.31
25.03
29.83
33.50
35.94
37.13
37.20
36.45
35.22
33.78
32.29
30.74
29.02
26.99
24.55
21.65
18.30
14.53
10.42
6.10
1.69
-2.60
-6.66
-10.44
-14.05
-17.70
-21.64
-26.07
-30.99
-36.14
-40.96
-44.64
-46.31
-45.23
-41.09
-34.13
-25.11
-15.08
-5.09
4.04
11.93
18.49
23.88
28.35
32.13
35.44
38.48
41.41
44.34
47.34
50.41
53.61
57.04
60.93
65.58
71.21
77.77
84.84
91.63
97.13
100.42
100.88
98.22
92.41
83.50
71.51
56.56
38.99
19.53
-0.76
-20.63
-38.93
-54.68
-67.07
-75.43
-79.25
-78.36
-73.20
-64.83
-54.76
-44.51
-35.11
-26.89
-19.62
-12.86
-6.36
-0.27
4.96
8.90
11.36
12.54
12.88
12.83
12.65
12.31
11.65
10.54
8.96
7.08
5.09
3.08
0.96
-1.59
-4.88
-9.18
-14.48
-20.56
-26.97
-33.19
-38.79
-43.45
-47.12
-49.94
-52.23
-54.42
-56.88
-59.77
-62.92
-65.79
-67.55
-67.23
-64.03
-57.58
-48.18
-36.82
-25.00
-14.31
-5.92
-0.16
3.62
6.93
11.56
19.04
30.08
44.32
60.40
76.36
90.16
100.25
105.89
107.26
105.30
101.39
96.99
93.38
91.44
91.49
93.17
95.55
97.22
96.83
93.51
87.19
78.56
68.69
58.57
48.66
38.83
28.59
17.41
5.06
-8.29
-22.06
-35.40
-47.37
-57.18
-64.29
-68.62
-70.46
-70.39
-69.18
-67.65
-66.59
-66.79
-68.91
-73.34
-79.99
-88.21
-96.86
-104.60
-110.35
-113.47
-113.82
-111.51
-106.59
-99.03
-88.92
-76.72
-63.38
-50.00
-37.44
-25.89
-14.84
-3.63
8.00
19.45
29.48
36.83
40.93
42.23
41.90
41.26
41.11
41.56
42.19
42.45
41.96
40.45
37.67
33.20
26.55
17.48
6.33
-5.80
-17.17
-25.90
-30.41
-29.90
-24.51
-15.20
-3.44
9.12
20.98
30.97
38.37
42.93
44.85
44.53
42.41
38.83
33.94
27.75
20.26
11.62
2.05
-8.15
-18.67
-29.23
-39.47
-48.85
-56.69
-62.35
-65.42
-65.96
-64.53
-61.96
-59.09
-56.38
-53.84
-51.12
-47.76
-43.48
-38.18
-31.95
-24.81
-16.77
-7.90
1.52
10.90
19.53
26.82
32.59
37.03
40.53
43.25
44.96
45.02
42.68
37.51
29.58
19.58
8.59
-2.19
-11.74
-19.44
-25.10
-29.01
-31.73
-33.83
-35.72
-37.53
-39.13
-40.27
-40.76
-40.42
-39.15
-36.76
-33.12
-28.27
-22.56
-16.64
-11.29
-7.14
-4.43
-3.07
-2.80
-3.50
-5.22
-8.03
-11.66
-15.32
-17.85
-18.07
-15.26
-9.31
-0.65
10.13
22.55
36.24
50.77
65.39
78.99
90.38
98.66
103.43
104.75
102.84
97.66
88.89
76.04
58.92
38.04
14.70
-9.15
-31.34
-49.93
-63.61
-71.90
-75.19
-74.56
-71.45
-67.18
-62.56
-57.76
-52.44
-46.16
-38.91
-31.29
-24.51
-19.95
-18.67
-21.03
-26.57
-34.25
-42.72
-50.76
-57.45
-62.30
-65.12
-65.86
-64.45
-60.83
-54.93
-46.92
-37.31
-26.99
-17.19
-9.18
-4.04
-2.43
-4.44
-9.47
-16.29
-23.09
-27.78
-28.47
-24.08
-14.72
-1.80
12.35
25.13
34.41
38.94
38.54
33.91
26.34
17.34
8.33
0.37
-6.10
-11.20
-15.53
-19.69
-24.03
-28.46
-32.64
-36.28
-39.32
-42.00
-44.54
-46.85
-48.38
-48.22
-45.40
-39.36
-30.25
-18.95
-6.97
3.89
11.93
15.88
15.10
9.72
0.66
-10.27
-20.61
-27.62
-29.02
-23.65
-12.00
3.90
21.03
36.28
47.38
53.30
54.18
50.98
44.96
37.38
29.47
22.33
16.92
13.81
12.92
13.51
14.33
14.02
11.56
6.64
-0.24
-7.97
-15.14
-20.46
-23.09
-22.80
-20.00
-15.52
-10.26
-4.76
0.94
7.22
14.48
22.61
30.82
37.79
42.20
43.32
41.22
36.77
31.19
25.74
21.49
19.23
19.50
22.45
27.75
34.43
41.18
46.59
49.65
49.93
47.56
43.02
36.89
29.72
21.98
14.07
6.29
-1.22
-8.49
-15.66
-22.91
-30.27
-37.53
-44.24
-49.72
-53.30
-54.36
-52.54
-47.80
-40.37
-30.73
-19.51
-7.45
4.74
16.35
26.78
35.54
42.34
47.11
49.99
51.34
51.63
51.36
51.03
51.00
51.46
52.36
53.45
54.38
54.80
54.49
53.37
51.38
48.53
44.78
40.21
34.96
29.41
23.97
19.04
14.73
10.90
7.13
2.95
-1.96
-7.59
-13.54
-19.10
-23.43
-25.83
-25.83
-23.40
-18.87
-12.84
-6.04
0.88
7.41
13.25
18.20
22.18
25.13
27.05
28.03
28.25
27.94
27.34
26.57
25.63
24.42
22.87
20.99
18.92
16.80
14.73
12.72
10.69
8.51
6.11
3.43
0.44
-2.92
-6.74
-11.13
-16.18
-21.95
-28.33
-35.00
-41.34
-46.49
-49.49
-49.63
-46.67
-40.99
-33.46
-25.14
-16.94
-9.46
-2.89
2.77
7.60
11.62
14.80
17.12
18.64
19.50
19.89
20.03
20.10
20.21
20.35
20.43
20.27
19.67
18.48
16.66
14.31
11.60
8.73
5.86
3.02
0.17
-2.79
-5.91
-9.16
-12.51
-15.97
-19.59
-23.43
-27.36
-30.99
-33.57
-34.22
-32.15
-26.96
-18.77
-8.21
3.79
16.18
27.95
38.29
46.53
52.27
55.46
56.49
56.26
56.00
56.94
59.75
64.12
68.73
71.59
70.84
65.52
55.98
43.73
30.80
18.89
8.93
1.05
-5.10
-9.90
-13.54
-16.16
-18.08
-19.97
-22.76
-27.38
-34.30
-43.27
-53.21
-62.49
-69.40
-72.64
-71.80
-67.44
-60.91
-53.85
-47.70
-43.34
-41.09
-40.79
-42.01
-43.95
-45.48
-45.20
-41.77
-34.45
-23.53
-10.37
3.02
14.71
23.52
29.28
32.63
34.58
35.93
37.13
38.21
39.06
39.62
39.90
39.96
39.78
39.11
37.61
34.97
31.09
26.26
20.93
15.59
10.38
5.10
-0.66
-7.21
-14.42
-21.66
-27.99
-32.50
-34.70
-34.63
-32.78
-29.85
-26.41
-22.78
-19.10
-15.40
-11.82
-8.63
-6.19
-4.94
-5.32
-7.69
-12.34
-19.34
-28.37
-38.60
-48.70
-56.95
-61.72
-61.88
-57.22
-48.55
-37.51
-26.06
-15.89
-7.95
-2.36
1.44
4.27
6.81
9.33
11.66
13.29
13.56
11.91
8.07
2.17
-5.16
-12.87
-19.68
-24.42
-26.33
-25.26
-21.64
-16.32
-10.19
-4.01
1.78
6.97
11.49
15.34
18.50
20.98
22.84
24.22
25.25
25.99
26.37
26.24
25.45
24.04
22.22
20.44
19.17
18.84
19.59
21.18
23.05
24.41
24.46
22.67
18.99
13.84
7.99
2.29
-2.68
-6.73
-10.11
-13.25
-16.64
-20.61
-25.32
-30.72
-36.57
-42.36
-47.40
-50.78
-51.71
-49.72
-44.90
-37.85
-29.54
-20.95
-12.86
-5.69
0.41
5.48
9.57
12.78
15.18
16.91
18.15
19.07
19.84
20.61
21.47
22.49
23.68
24.99
26.28
27.31
27.80
27.54
26.40
24.37
21.56
18.16
14.40
10.52
6.79
3.39
0.37
-2.39
-5.19
-8.43
-12.51
-17.68
-23.91
-30.86
-37.83
-43.85
-47.90
-49.11
-47.07
-41.88
-34.15
-24.83
-14.93
-5.35
3.29
10.61
16.50
21.06
24.56
27.35
29.82
32.26
34.78
37.34
39.74
41.77
43.24
44.08
44.28
43.86
42.83
41.13
38.60
35.04
30.25
24.20
17.07
9.27
1.35
-6.15
-12.85
-18.61
-23.51
-27.76
-31.61
-35.34
-39.14
-43.07
-46.94
-50.19
-52.01
-51.51
-48.15
-41.92
-33.47
-23.81
-13.92
-4.43
4.49
12.93
20.95
28.29
34.46
38.94
41.49
42.31
41.94
41.03
40.02
39.01
37.83
36.19
33.91
31.05
27.76
24.19
20.34
16.06
11.19
5.68
-0.30
-6.33
-11.95
-16.80
-20.76
-23.90
-26.37
-28.33
-29.88
-31.17
-32.39
-33.79
-35.46
-37.18
-38.41
-38.42
-36.66
-32.95
-27.61
-21.31
-14.71
-8.23
-2.02
3.92
9.52
14.58
18.76
21.75
23.49
24.17
24.32
24.47
25.08
26.34
28.15
30.27
32.40
34.28
35.69
36.44
36.37
35.39
33.46
30.68
27.21
23.23
18.88
14.22
9.22
3.80
-2.11
-8.58
-15.64
-23.18
-30.93
-38.36
-44.71
-49.12
-50.84
-49.49
-45.10
-38.20
-29.58
-20.16
-10.73
-1.84
6.20
13.27
19.30
24.20
27.92
30.53
32.21
33.28
34.08
34.86
35.75
36.71
37.63
38.38
38.81
38.79
38.15
36.72
34.41
31.22
27.32
22.93
18.21
13.24
8.00
2.48
-3.26
-9.08
-14.82
-20.50
-26.32
-32.55
-39.31
-46.30
-52.65
-57.15
-58.63
-56.48
-50.94
-42.99
-34.08
-25.57
-18.48
-13.28
-10.03
-8.45
-8.13
-8.44
-8.67
-8.07
-6.02
-2.24
3.12
9.45
15.90
21.58
25.79
28.23
29.00
28.54
27.43
26.13
24.89
23.66
22.23
20.36
17.90
14.87
11.37
7.59
3.70
-0.22
-4.17
-8.29
-12.80
-17.91
-23.68
-29.89
-36.00
-41.24
-44.83
-46.14
-44.89
-41.18
-35.40
-28.13
-20.01
-11.71
-3.84
3.04
8.50
12.31
14.50
15.35
15.33
14.95
14.63
14.56
14.67
14.78
14.68
14.30
13.70
13.04
12.44
11.86
11.15
10.06
8.42
6.15
3.33
0.17
-3.11
-6.25
-9.01
-11.36
-13.42
-15.53
-18.16
-21.66
-26.00
-30.69
-34.84
-37.41
-37.67
-35.41
-30.95
-25.01
-18.33
-11.50
-4.85
1.45
7.30
12.51
16.89
20.30
22.71
24.22
25.02
25.29
25.13
24.59
23.75
22.70
21.60
20.59
19.79
19.16
18.52
17.62
16.16
13.93
10.87
7.13
2.98
-1.24
-5.31
-9.16
-12.92
-16.84
-21.17
-26.03
-31.31
-36.70
-41.65
-45.47
-47.45
-47.00
-43.90
-38.38
-31.10
-22.97
-14.88
-7.42
-0.83
4.95
10.07
14.57
18.43
21.51
23.76
25.19
25.90
26.01
25.66
24.94
23.95
22.78
21.52
20.26
19.05
17.93
16.82
15.61
14.07
12.01
9.32
6.09
2.56
-0.92
-4.10
-6.91
-9.46
-12.03
-14.88
-18.19
-21.85
-25.46
-28.39
-29.82
-29.04
-25.60
-19.53
-11.32
-1.87
7.82
16.89
24.87
31.67
37.49
42.52
46.77
49.99
51.75
51.68
49.73
46.27
41.98
37.66
33.97
31.25
29.53
28.55
28.00
27.54
26.85
25.63
23.65
20.74
16.91
12.33
7.29
2.11
-3.04
-8.12
-13.28
-18.71
-24.52
-30.62
-36.65
-41.94
-45.65
-47.02
-45.53
-41.17
-34.44
-26.28
-17.78
-9.91
-3.28
1.93
5.75
8.40
10.04
10.84
10.96
10.61
9.99
9.22
8.31
7.22
5.90
4.40
2.91
1.62
0.62
-0.18
-1.04
-2.27
-4.11
-6.65
-9.82
-13.40
-17.13
-20.79
-24.27
-27.59
-30.98
-34.77
-39.24
-44.51
-50.35
-56.14
-61.02
-64.11
-64.78
-62.80
-58.45
-52.35
-45.27
-37.88
-30.67
-23.85
-17.49
-11.65
-6.41
-1.94
1.61
4.11
5.66
6.45
6.80
6.99
7.17
7.30
7.17
6.46
4.92
2.37
-1.18
-5.57
-10.55
-15.82
-21.10
-26.19
-31.01
-35.57
-40.01
-44.43
-48.82
-52.98
-56.47
-58.72
-59.17
-57.46
-53.52
-47.67
-40.50
-32.73
-24.96
-17.59
-10.69
-4.14
2.25
8.59
14.88
20.99
26.74
31.96
36.44
40.01
42.52
43.91
44.21
43.62
42.48
41.22
40.18
39.50
39.02
38.30
36.86
34.30
30.59
26.10
21.48
17.35
14.08
11.58
9.42
7.04
4.09
0.53
-3.29
-6.84
-9.60
-11.17
-11.31
-9.98
-7.32
-3.59
0.78
5.40
9.93
14.13
17.98
21.56
25.11
28.92
33.20
37.91
42.66
46.74
49.38
50.12
49.05
46.89
44.64
43.18
42.89
43.54
44.48
44.89
44.05
41.46
36.89
30.44
22.53
13.88
5.34
-2.36
-8.75
-13.83
-17.95
-21.58
-25.14
-28.69
-31.91
-34.14
-34.67
-32.92
-28.78
-22.59
-15.16
-7.47
-0.42
5.40
9.79
12.89
14.95
16.29
17.11
17.54
17.63
17.45
17.11
16.78
16.57
16.48
16.44
16.27
15.85
15.13
14.15
13.00
11.73
10.27
8.50
6.22
3.28
-0.32
-4.45
-8.91
-13.50
-18.16
-22.93
-27.85
-32.80
-37.32
-40.68
-42.04
-40.79
-36.81
-30.51
-22.71
-14.31
-6.02
1.76
8.88
15.21
20.58
24.77
27.64
29.24
29.89
30.02
30.03
30.08
30.11
29.90
29.23
27.97
26.23
24.19
22.07
20.03
18.10
16.25
14.41
12.51
10.56
8.55
6.48
4.24
1.68
-1.30
-4.65
-8.10
-11.16
-13.28
-14.06
-13.34
-11.27
-8.11
-4.12
0.60
6.05
12.22
18.96
25.87
32.42
38.19
43.00
46.99
50.45
53.58
56.26
58.08
58.50
57.18
54.15
49.73
44.35
38.26
31.46
23.79
15.20
5.82
-4.13
-14.50
-25.42
-37.19
-50.04
-63.75
-77.63
-90.68
-101.95
-110.86
-117.31
-121.44
-123.41
-123.26
-120.91
-116.27
-109.45
-100.70
-90.41
-78.93
-66.65
-53.97
-41.32
-29.10
-17.48
-6.30
4.78
15.99
27.15
37.50
45.97
51.56
53.76
52.71
49.03
43.55
37.01
30.03
23.19
17.16
12.64
10.09
9.52
10.42
11.89
13.06
13.27
12.21
9.91
6.64
2.97
-0.26
-1.90
-0.84
3.53
10.94
20.00
28.70
35.06
37.88
37.08
33.49
28.27
22.46
16.72
11.59
7.81
6.37
8.11
13.13
20.32
27.60
32.67
34.07
31.87
27.68
23.80
22.20
23.61
27.29
31.53
34.47
35.01
33.12
29.81
26.55
24.73
25.24
28.39
33.94
41.31
49.65
57.86
64.69
68.90
69.61
66.62
60.40
51.72
41.12
28.42
12.92
-5.89
-27.58
-50.46
-71.98
-89.82
-102.86
-111.54
-117.30
-121.54
-124.75
-126.42
-125.72
-122.37
-117.09
-111.33
-106.45
-102.91
-100.16
-97.17
-93.28
-88.86
-85.37
-84.68
-88.12
-95.50
-104.82
-112.77
-115.85
-111.71
-99.98
-82.36
-61.82
-41.33
-22.84
-6.87
7.06
19.68
31.27
41.46
49.55
55.08
58.16
59.46
59.81
59.80
59.55
58.74
56.88
53.67
49.13
43.70
37.96
32.43
27.31
22.51
17.71
12.66
7.26
1.68
-3.76
-8.75
-13.12
-16.93
-20.38
-23.61
-26.62
-29.08
-30.38
-29.88
-27.03
-21.69
-14.18
-5.24
4.24
13.42
21.76
28.97
35.03
39.95
43.77
46.57
48.52
49.82
50.72
51.35
51.64
51.49
50.83
49.80
48.78
48.24
48.44
49.27
50.21
50.49
49.47
46.95
43.34
39.57
36.73
35.68
36.61
38.92
41.37
42.61
41.90
39.57
37.22
37.06
40.98
49.54
61.64
74.80
86.29
94.04
97.31
96.61
93.44
89.94
88.70
92.41
103.08
121.02
144.25
168.95
190.74
206.59
215.85
220.00
221.43
221.82
221.26
218.52
212.24
202.22
190.04
178.66
171.16
169.31
172.65
178.30
182.01
179.63
168.82
149.79
125.07
98.11
71.84
47.75
26.04
6.51
-10.54
-24.05
-32.78
-36.30
-35.56
-32.89
-31.17
-32.73
-38.54
-48.07
-59.83
-72.23
-84.36
-96.36
-109.18
-124.28
-143.11
-166.74
-195.39
-227.97
-261.73
-292.36
-314.88
-324.99
-320.40
-301.70
-272.08
-236.24
-198.96
-164.01
-133.87
-110.11
-93.88
-86.08
-87.02
-96.00
-111.29
-130.52
-151.46
-172.66
-193.43
-213.46
-231.98
-247.48
-257.75
-260.45
-253.84
-237.40
-212.08
-180.29
-145.44
-111.23
-80.74
-55.60
-35.91
-20.76
-9.11
-0.51
4.84
6.68
5.43
2.57
0.12
-0.24
1.85
5.21
7.77
7.64
4.09
-2.20
-9.34
-15.25
-18.47
-18.80
-17.17
-15.08
-13.68
-13.14
-12.59
-10.75
-6.82
-1.00
5.76
12.39
18.52
24.67
31.78
40.34
49.80
58.57
64.62
66.25
62.64
54.11
41.92
27.97
14.36
3.06
-4.44
-7.40
-6.08
-1.54
4.68
11.05
16.50
20.48
22.79
23.40
22.48
20.58
18.77
18.43
20.67
25.56
31.73
36.59
37.30
32.04
20.95
6.18
-9.10
-22.02
-31.15
-36.59
-39.43
-40.72
-40.86
-39.67
-37.02
-33.38
-30.08
-28.99
-31.77
-39.16
-50.71
-64.87
-79.58
-92.95
-104.04
-112.99
-120.91
-129.28
-139.35
-151.73
-166.61
-184.11
-204.51
-227.92
-253.33
-277.95
-297.44
-307.22
-304.30
-288.62
-263.07
-232.20
-200.52
-170.69
-143.29
-117.52
-92.41
-67.47
-42.53
-17.16
9.82
39.70
73.63
111.35
150.23
185.39
211.23
223.66
221.87
208.54
187.88
164.84
143.34
125.01
109.22
94.44
79.73
65.28
52.02
39.49
27.55
16.76
8.23
3.14
2.11
4.65
8.60
10.46
5.25
-8.75
-28.72
-48.79
-63.25
-69.05
-66.63
-59.32
-40.59
-12.56
16.70
39.20
52.18
56.80
54.93
47.92
36.90
23.81
8.85
-6.79
-21.04
-31.95
-38.79
-41.79
-41.27
-36.64
-29.20
-20.26
-9.79
3.28
19.87
40.01
62.94
87.91
114.56
142.63
170.82
197.24
219.53
235.09
241.78
238.94
227.75
210.62
190.06
167.71
144.71
122.28
102.01
85.47
73.58
65.86
60.44
54.66
46.32
34.71
20.89
6.94
-4.97
-13.42
-17.91
-18.64
-16.21
-11.30
-4.64
2.97
10.86
18.60
25.98
33.08
40.05
47.02
54.02
60.90
67.42
73.27
78.22
82.13
85.09
87.42
89.57
91.97
94.72
97.42
99.25
99.21
96.56
91.21
83.80
75.50
67.63
61.18
56.61
53.76
52.12
51.03
49.91
48.30
45.86
42.33
37.44
31.10
23.37
14.71
5.91
-1.94
-7.72
-10.71
-10.86
-8.94
-6.36
-4.69
-5.10
-7.99
-12.88
-18.66
-24.04
-27.96
-29.89
-29.80
-28.04
-25.13
-21.65
-18.16
-15.15
-13.09
-12.26
-12.77
-14.44
-16.98
-20.07
-23.54
-27.50
-32.26
-38.19
-45.47
-53.89
-62.67
-70.66
-76.59
-79.51
-79.14
-75.97
-71.00
-65.34
-59.80
-54.70
-49.93
-45.26
-40.56
-35.94
-31.79
-28.62
-27.07
-27.79
-31.33
-38.00
-47.67
-59.67
-72.79
-85.49
-96.00
-102.51
-103.41
-97.57
-84.70
-65.68
-42.59
-18.40
3.68
20.94
31.74
35.84
34.25
28.97
22.36
16.68
13.50
13.52
16.54
21.78
28.34
35.56
43.29
51.70
60.90
70.63
80.14
88.34
94.28
97.54
98.51
98.23
97.96
98.70
100.81
104.02
107.68
111.15
114.07
116.37
118.07
118.98
118.60
116.08
110.51
101.17
87.87
71.09
52.01
32.26
13.61
-2.50
-15.25
-24.47
-30.51
-33.95
-35.43
-35.59
-35.23
-35.22
-36.48
-39.50
-44.05
-49.02
-52.72
-53.68
-51.31
-46.41
-40.97
-37.48
-37.96
-43.28
-52.89
-65.06
-77.39
-87.30
-92.55
-91.62
-84.22
-71.43
-55.63
-39.85
-26.85
-18.17
-13.71
-12.03
-11.29
-10.23
-8.83
-8.14
-9.62
-14.09
-21.22
-29.58
-37.25
-42.77
-45.72
-46.80
-47.32
-48.40
-50.37
-52.71
-54.34
-54.27
-52.07
-48.02
-42.80
-37.14
-31.46
-25.76
-19.78
-13.34
-6.60
-0.18
5.04
8.21
8.95
7.59
5.06
2.54
0.97
0.64
1.23
2.03
2.40
2.10
1.34
0.65
0.48
1.02
2.12
3.39
4.42
4.90
4.73
3.97
2.74
1.16
-0.64
-2.51
-4.25
-5.53
-6.04
-5.51
-3.87
-1.24
2.21
6.32
11.02
16.25
21.76
27.10
31.60
34.73
36.26
36.41
35.71
34.72
33.81
33.09
32.51
32.01
31.65
31.49
31.57
31.75
31.70
31.09
29.68
27.53
24.91
22.28
20.03
18.34
17.09
15.90
14.30
11.90
8.53
4.28
-0.48
-5.24
-9.37
-12.27
-13.45
-12.65
-9.89
-5.47
0.10
6.23
12.37
18.06
23.03
27.09
30.25
32.59
34.26
35.40
36.07
36.26
35.90
34.98
33.57
31.81
29.85
27.85
25.84
23.79
21.64
19.27
16.63
13.67
10.46
7.10
3.74
0.51
-2.52
-5.30
-7.88
-10.34
-12.87
-15.68
-19.06
-23.21
-28.06
-33.10
-37.44
-40.02
-40.01
-37.09
-31.61
-24.39
-16.43
-8.51
-1.11
5.57
11.42
16.30
20.04
22.48
23.68
23.90
23.52
22.93
22.37
21.93
21.58
21.27
21.00
20.85
20.90
21.17
21.57
21.93
22.08
21.90
21.42
20.68
19.67
18.21
15.99
12.74
8.51
3.63
-1.38
-6.03
-10.03
-13.31
-15.85
-17.46
-17.81
-16.56
-13.64
-9.31
-4.14
1.25
6.39
10.98
14.85
17.81
19.61
20.06
19.18
17.17
14.42
11.38
8.47
5.99
4.12
2.85
2.03
1.34
0.47
-0.81
-2.57
-4.76
-7.22
-9.81
-12.40
-14.86
-17.00
-18.70
-19.94
-21.01
-22.47
-25.06
-29.38
-35.60
-43.24
-51.19
-58.00
-62.34
-63.38
-61.03
-55.81
-48.61
-40.33
-31.60
-22.79
-14.10
-5.72
2.07
8.90
14.44
18.55
21.38
23.32
24.95
26.78
29.08
31.77
34.42
36.48
37.41
36.89
34.90
31.67
27.57
22.95
18.08
13.14
8.24
3.47
-1.08
-5.39
-9.57
-13.80
-18.37
-23.50
-29.25
-35.44
-41.64
-47.23
-51.53
-54.00
-54.34
-52.55
-48.88
-43.68
-37.29
-30.03
-22.17
-14.09
-6.24
0.87
6.82
11.47
14.95
17.64
19.94
22.04
23.84
25.09
25.51
25.06
23.97
22.65
21.50
20.73
20.32
20.01
19.50
18.57
17.12
15.17
12.83
10.15
7.21
4.06
0.78
-2.57
-5.99
-9.55
-13.37
-17.54
-22.01
-26.46
-30.37
-33.11
-34.12
-33.14
-30.20
-25.63
-19.88
-13.41
-6.63
0.09
6.30
11.57
15.50
17.88
18.75
18.37
17.08
15.23
13.05
10.70
8.27
5.88
3.57
1.38
-0.69
-2.62
-4.36
-5.79
-6.81
-7.41
-7.68
-7.75
-7.76
-7.77
-7.85
-8.13
-8.86
-10.38
-12.92
-16.44
-20.51
-24.38
-27.19
-28.29
-27.42
-24.70
-20.54
-15.40
-9.62
-3.47
2.85
9.04
14.64
19.16
22.16
23.49
23.29
21.95
19.93
17.71
15.55
13.55
11.70
9.99
8.41
7.03
5.92
5.07
4.39
3.66
2.70
1.39
-0.28
-2.23
-4.35
-6.64
-9.14
-11.95
-15.14
-18.74
-22.71
-26.98
-31.45
-35.90
-39.98
-43.19
-44.93
-44.71
-42.25
-37.60
-31.12
-23.43
-15.21
-7.14
0.25
6.59
11.69
15.56
18.32
20.17
21.32
21.96
22.18
22.05
21.63
20.92
19.92
18.63
17.07
15.24
13.25
11.20
9.19
7.22
5.17
2.84
0.06
-3.20
-6.74
-10.24
-13.32
-15.77
-17.61
-19.16
-20.85
-23.07
-25.96
-29.28
-32.43
-34.62
-35.08
-33.31
-29.20
-23.04
-15.42
-7.04
1.45
9.50
16.72
22.79
27.52
30.80
32.66
33.25
32.89
31.91
30.67
29.39
28.18
27.04
25.91
24.75
23.51
22.20
20.82
19.37
17.84
16.27
14.69
13.17
11.73
10.37
9.08
7.76
6.35
4.68
2.54
-0.27
-3.87
-8.08
-12.46
-16.32
-18.95
-19.81
-18.66
-15.56
-10.86
-5.04
1.34
7.70
13.53
18.41
22.12
24.63
26.11
26.77
26.85
26.53
25.90
25.02
23.94
22.73
21.41
20.01
18.52
16.93
15.20
13.26
11.03
8.40
5.31
1.81
-1.94
-5.71
-9.27
-12.49
-15.39
-18.13
-20.99
-24.24
-28.04
-32.28
-36.59
-40.33
-42.78
-43.37
-41.79
-38.10
-32.67
-25.95
-18.37
-10.27
-1.96
6.17
13.64
19.95
24.72
27.87
29.60
30.29
30.32
29.95
29.27
28.29
27.06
25.69
24.38
23.29
22.44
21.67
20.68
19.15
16.89
13.92
10.44
6.78
3.21
-0.15
-3.33
-6.48
-9.78
-13.35
-17.24
-21.40
-25.69
-29.83
-33.37
-35.82
-36.74
-35.92
-33.49
-29.84
-25.53
-21.01
-16.56
-12.22
-7.94
-3.72
0.30
3.91
6.90
9.16
10.74
11.82
12.55
13.06
13.40
13.58
13.67
13.76
13.94
14.26
14.62
14.76
14.40
13.28
11.32
8.58
5.32
1.78
-1.85
-5.52
-9.33
-13.46
-18.05
-23.08
-28.28
-33.13
-36.98
-39.24
-39.50
-37.71
-34.07
-29.01
-23.06
-16.70
-10.38
-4.37
1.15
6.10
10.42
14.04
16.91
18.97
20.28
20.98
21.28
21.38
21.40
21.32
21.10
20.69
20.09
19.32
18.35
17.10
15.45
13.34
10.82
8.07
5.29
2.65
0.19
-2.14
-4.50
-7.07
-10.07
-13.64
-17.82
-22.39
-26.90
-30.73
-33.27
-34.13
-33.28
-30.98
-27.61
-23.56
-19.06
-14.27
-9.38
-4.69
-0.57
2.62
4.73
5.82
6.20
6.28
6.40
6.80
7.50
8.36
9.19
9.80
10.09
10.07
9.81
9.40
8.92
8.34
7.62
6.68
5.49
4.05
2.34
0.27
-2.35
-5.70
-9.91
-14.91
-20.41
-25.93
-30.91
-34.81
-37.26
-38.12
-37.44
-35.50
-32.70
-29.48
-26.25
-23.31
-20.85
-18.94
-17.55
-16.49
-15.42
-13.82
-11.11
-6.83
-0.93
6.13
13.42
19.80
24.36
26.74
27.19
26.43
25.25
24.14
23.14
21.85
19.72
16.25
11.13
4.31
-4.02
-13.45
-23.25
-32.53
-40.40
-46.28
-50.08
-52.14
-52.97
-52.91
-51.96
-49.81
-46.10
-40.69
-33.80
-25.96
-17.94
-10.55
-4.53
-0.45
1.43
1.24
-0.44
-2.85
-5.35
-7.69
-10.01
-12.70
-15.80
-18.80
-20.63
-20.24
-17.13
-11.77
-5.37
0.80
6.13
11.19
17.50
26.80
40.08
56.99
75.73
93.78
108.81
119.38
125.25
127.11
125.95
122.57
117.36
110.52
102.37
93.72
85.81
79.94
76.94
76.84
78.84
81.68
83.95
84.37
81.82
75.37
64.37
48.77
29.36
7.93
-13.00
-30.83
-43.61
-50.48
-51.80
-48.79
-43.04
-36.05
-29.05
-22.99
-18.53
-15.98
-15.25
-15.83
-17.05
-18.36
-19.70
-21.47
-24.37
-28.97
-35.30
-42.80
-50.42
-56.92
-61.18
-62.36
-60.05
-54.31
-45.71
-35.30
-24.44
-14.52
-6.54
-0.86
2.78
5.06
6.64
7.86
8.64
8.62
7.48
5.21
2.18
-0.93
-3.35
-4.51
-4.13
-2.22
1.02
5.40
10.71
16.67
22.77
28.34
32.65
35.27
36.25
36.11
35.45
34.57
33.17
30.47
25.63
18.20
8.41
-2.92
-14.79
-26.25
-36.68
-45.63
-52.77
-57.77
-60.38
-60.59
-58.61
-54.91
-50.04
-44.56
-38.94
-33.56
-28.62
-24.10
-19.77
-15.35
-10.70
-5.97
-1.67
1.50
2.96
2.54
0.55
-2.34
-5.36
-7.88
-9.68
-10.84
-11.69
-12.61
-13.96
-16.00
-18.86
-22.51
-26.58
-30.41
-33.11
-33.82
-32.15
-28.34
-23.31
-18.36
-14.76
-13.31
-14.14
-16.70
-20.04
-23.13
-25.09
-25.42
-23.90
-20.58
-15.63
-9.26
-1.71
6.71
15.58
24.40
32.64
39.80
45.53
49.65
52.09
52.89
52.18
50.20
47.24
43.60
39.47
34.89
29.81
24.18
18.04
11.59
5.12
-1.11
-6.97
-12.45
-17.63
-22.55
-27.12
-31.19
-34.64
-37.51
-40.06
-42.68
-45.72
-49.30
-53.20
-56.96
-60.02
-61.95
-62.50
-61.64
-59.41
-55.92
-51.27
-45.69
-39.53
-33.29
-27.47
-22.38
-18.13
-14.55
-11.33
-8.19
-4.93
-1.52
2.02
5.66
9.31
12.90
16.28
19.25
21.57
23.10
23.80
23.81
23.39
22.82
22.21
21.54
20.60
19.22
17.33
15.01
12.46
9.81
7.06
4.11
0.88
-2.57
-5.94
-8.82
-10.80
-11.58
-11.07
-9.29
-6.45
-2.81
1.27
5.40
9.14
12.13
14.16
15.18
15.35
14.94
14.26
13.57
13.03
12.66
12.35
11.96
11.37
10.59
9.73
8.98
8.52
8.43
8.65
8.95
9.01
8.54
7.32
5.29
2.56
-0.60
-3.88
-7.00
-9.86
-12.56
-15.38
-18.62
-22.43
-26.68
-30.95
-34.62
-37.08
-37.87
-36.76
-33.81
-29.28
-23.52
-16.98
-10.11
-3.35
2.91
8.41
12.97
16.52
19.02
20.52
21.09
20.89
20.15
19.13
18.07
17.11
16.31
15.60
14.90
14.06
12.94
11.47
9.63
7.52
5.30
3.16
1.19
-0.61
-2.32
-4.08
-6.08
-8.50
-11.46
-15.01
-18.96
-22.93
-26.32
-28.48
-28.90
-27.35
-23.94
-19.05
-13.19
-6.84
-0.43
5.64
11.07
15.60
19.13
21.74
23.66
25.14
26.39
27.47
28.28
28.69
28.62
28.14
27.41
26.59
25.78
24.95
23.97
22.73
21.17
19.30
17.15
14.79
12.25
9.56
6.74
3.79
0.66
-2.71
-6.39
-10.42
-14.74
-19.11
-23.11
-26.18
-27.76
-27.44
-25.08
-20.88
-15.31
-8.92
-2.26
4.22
10.19
15.40
19.65
22.82
24.89
26.00
26.41
26.38
26.11
25.67
24.99
24.00
22.67
21.09
19.39
17.75
16.24
14.82
13.38
11.76
9.90
7.78
5.44
2.99
0.46
-2.09
-4.63
-7.13
-9.59
-12.02
-14.52
-17.13
-19.81
-22.37
-24.40
-25.42
-25.06
-23.11
-19.68
-15.12
-9.84
-4.30
1.22
6.54
11.60
16.36
20.69
24.38
27.22
29.09
30.08
30.41
30.44
30.44
30.52
30.61
30.51
30.01
28.99
27.49
25.57
23.32
20.80
18.04
15.03
11.78
8.31
4.65
0.89
-2.79
-6.23
-9.30
-12.00
-14.55
-17.27
-20.46
-24.26
-28.46
-32.59
-36.00
-38.08
-38.44
-36.99
-33.92
-29.61
-24.51
-19.02
-13.39
-7.77
-2.22
3.18
8.29
12.92
16.84
19.95
22.26
23.92
25.07
25.72
25.74
24.98
23.36
21.03
18.33
15.69
13.43
11.68
10.36
9.27
8.17
6.87
5.34
3.55
1.56
-0.63
-3.02
-5.63
-8.44
-11.31
-14.03
-16.34
-18.00
-18.73
-18.27
-16.30
-12.60
-7.24
-0.85
5.32
9.66
10.77
8.10
2.29
-4.99
-11.69
-16.09
-17.32
-15.42
-10.93
-4.57
3.05
11.42
19.95
27.89
34.45
39.11
41.82
43.09
43.81
44.91
47.09
50.56
55.01
59.60
63.25
64.87
63.74
59.69
53.20
45.05
36.06
26.80
17.50
8.32
-0.38
-7.94
-13.54
-16.52
-16.76
-14.80
-11.67
-8.45
-5.88
-4.23
-3.31
-2.70
-2.07
-1.24
-0.23
0.79
1.62
2.07
1.96
1.06
-0.77
-3.71
-7.81
-13.04
-19.22
-26.15
-33.67
-41.75
-50.58
-60.40
-71.35
-83.25
-95.53
-107.37
-118.12
-127.66
-136.63
-146.43
-158.75
-174.81
-194.56
-216.10
-235.84
-249.22
-252.07
-241.71
-217.70
-181.88
-138.02
-90.88
-45.51
-6.30
23.73
43.47
53.90
57.64
58.14
58.54
60.78
65.27
71.24
77.34
82.41
85.72
87.07
86.68
84.88
82.04
78.51
74.49
70.13
65.54
60.75
55.75
50.47
44.83
38.77
32.34
25.70
19.10
12.81
7.03
1.85
-2.70
-6.65
-10.02
-12.89
-15.24
-16.99
-17.90
-17.61
-15.76
-12.20
-7.13
-1.17
4.79
9.91
13.72
16.22
17.79
18.98
20.20
21.58
22.95
24.05
24.65
24.72
24.41
23.95
23.53
23.19
22.75
21.95
20.55
18.51
16.02
13.45
11.10
9.08
7.17
4.93
1.92
-2.12
-7.07
-12.54
-17.92
-22.59
-26.04
-27.96
-28.20
-26.85
-24.12
-20.35
-15.93
-11.25
-6.64
-2.29
1.66
5.21
8.40
11.36
14.28
17.34
20.63
24.06
27.30
29.96
31.69
32.39
32.29
31.90
31.73
32.10
32.95
33.91
34.40
33.99
32.56
30.32
27.72
25.23
23.04
21.00
18.61
15.30
10.67
4.72
-2.09
-8.93
-14.74
-18.49
-19.44
-17.31
-12.45
-5.73
1.63
8.52
14.23
18.62
21.95
24.62
26.80
28.29
28.73
27.79
25.50
22.29
18.82
15.66
13.11
11.15
9.50
7.96
6.47
5.17
4.32
4.09
4.50
5.39
6.43
7.24
7.48
6.91
5.45
3.20
0.39
-2.69
-5.85
-9.06
-12.42
-16.01
-19.70
-23.04
-25.40
-26.19
-25.08
-22.16
-17.94
-13.03
-7.99
-3.12
1.48
5.89
10.14
14.16
17.73
20.62
22.63
23.68
23.82
23.18
21.92
20.22
18.27
16.31
14.54
13.13
12.04
11.13
10.14
8.88
7.33
5.62
3.98
2.58
1.37
0.14
-1.43
-3.53
-6.18
-9.24
-12.49
-15.78
-19.00
-22.02
-24.57
-26.15
-26.19
-24.33
-20.57
-15.42
-9.66
-4.11
0.68
4.51
7.46
9.73
11.51
12.88
13.89
14.62
15.15
15.55
15.82
15.86
15.56
14.85
13.81
12.63
11.51
10.65
10.13
9.91
9.82
9.65
9.15
8.12
6.41
4.07
1.26
-1.74
-4.63
-7.26
-9.64
-11.99
-14.56
-17.39
-20.27
-22.65
-23.95
-23.78
-22.14
-19.41
-16.12
-12.71
-9.31
-5.84
-2.14
1.81
5.80
9.50
12.62
15.08
16.97
18.45
19.57
20.22
20.25
19.58
18.34
16.81
15.30
13.98
12.86
11.81
10.73
9.51
8.14
6.60
4.83
2.83
0.59
-1.77
-4.13
-6.40
-8.62
-10.97
-13.62
-16.68
-20.05
-23.43
-26.41
-28.54
-29.39
-28.71
-26.38
-22.52
-17.49
-11.75
-5.87
-0.25
4.79
9.12
12.69
15.44
17.31
18.29
18.42
17.84
16.76
15.41
13.96
12.52
11.16
9.89
8.69
7.54
6.40
5.30
4.27
3.39
2.70
2.14
1.54
0.65
-0.69
-2.58
-5.02
-7.94
-11.30
-15.09
-19.27
-23.53
-27.39
-30.12
-31.09
-29.98
-26.97
-22.61
-17.60
-12.52
-7.64
-3.00
1.43
5.55
9.10
11.74
13.29
13.83
13.68
13.26
12.92
12.80
12.84
12.85
12.62
11.99
10.89
9.31
7.32
5.04
2.58
0.09
-2.39
-4.82
-7.24
-9.68
-12.07
-14.32
-16.34
-18.14
-19.88
-21.82
-24.16
-26.81
-29.38
-31.27
-31.89
-30.95
-28.56
-25.10
-21.06
-16.72
-12.15
-7.34
-2.33
2.59
6.93
10.21
12.17
12.93
12.88
12.53
12.25
12.12
11.99
11.61
10.78
9.53
8.05
6.69
5.64
4.94
4.30
3.34
1.70
-0.70
-3.61
-6.61
-9.29
-11.48
-13.32
-15.15
-17.27
-19.76
-22.43
-24.87
-26.77
-27.92
-28.30
-27.90
-26.63
-24.29
-20.63
-15.63
-9.53
-2.89
3.61
9.32
13.87
17.19
19.47
21.01
22.06
22.79
23.24
23.40
23.26
22.81
22.09
21.10
19.83
18.23
16.25
13.88
11.19
8.27
5.26
2.31
-0.46
-2.99
-5.24
-7.31
-9.37
-11.68
-14.53
-18.16
-22.52
-27.33
-31.94
-35.64
-37.77
-38.02
-36.42
-33.31
-29.10
-24.12
-18.47
-12.20
-5.41
1.65
8.58
14.98
20.56
25.18
28.79
31.33
32.67
32.73
31.63
29.80
27.91
26.62
26.26
26.65
27.14
26.92
25.46
22.69
19.03
15.15
11.62
8.72
6.36
4.30
2.27
0.10
-2.33
-5.19
-8.63
-12.73
-17.29
-21.76
-25.34
-27.21
-26.93
-24.55
-20.62
-15.96
-11.30
-6.99
-2.96
1.14
5.63
10.66
16.02
21.29
26.01
29.86
32.72
34.68
35.88
36.44
36.41
35.87
34.91
33.68
32.29
30.75
28.91
26.55
23.44
19.52
14.88
9.83
4.75
0.04
-4.05
-7.47
-10.44
-13.33
-16.46
-19.96
-23.56
-26.68
-28.58
-28.63
-26.59
-22.61
-17.17
-10.83
-4.15
2.45
8.55
13.78
17.72
20.08
20.73
19.83
17.73
14.90
11.74
8.52
5.37
2.34
-0.53
-3.21
-5.62
-7.70
-9.45
-10.90
-12.17
-13.38
-14.68
-16.17
-17.86
-19.69
-21.46
-22.95
-24.00
-24.62
-25.07
-25.76
-27.08
-29.20
-31.97
-34.89
-37.29
-38.54
-38.22
-36.24
-32.76
-28.15
-22.85
-17.27
-11.77
-6.62
-2.09
1.63
4.37
6.09
6.84
6.79
6.12
5.04
3.68
2.14
0.49
-1.19
-2.82
-4.34
-5.74
-7.04
-8.30
-9.52
-10.69
-11.73
-12.61
-13.28
-13.70
-13.85
-13.74
-13.36
-12.77
-12.04
-11.28
-10.63
-10.22
-10.09
-10.11
-9.95
-9.20
-7.45
-4.51
-0.47
4.30
9.32
14.10
18.35
21.96
24.91
27.21
28.82
29.65
29.64
28.84
27.43
25.72
24.02
22.52
21.30
20.27
19.26
18.17
16.96
15.66
14.32
12.97
11.54
9.93
8.07
5.91
3.52
1.03
-1.42
-3.75
-5.99
-8.31
-10.94
-14.12
-17.94
-22.25
-26.62
-30.40
-32.91
-33.55
-32.02
-28.34
-22.91
-16.29
-9.16
-2.08
4.57
10.62
16.02
20.73
24.68
27.74
29.82
30.95
31.32
31.16
30.71
30.07
29.19
28.02
26.57
24.93
23.27
21.71
20.25
18.72
16.93
14.71
12.02
8.94
5.62
2.21
-1.14
-4.32
-7.28
-10.04
-12.69
-15.39
-18.32
-21.61
-25.20
-28.83
-32.00
-34.13
-34.66
-33.31
-30.12
-25.47
-19.93
-14.07
-8.30
-2.79
2.44
7.37
11.90
15.78
18.80
20.81
21.85
22.12
21.91
21.44
20.80
20.01
19.03
17.86
16.61
15.38
14.24
13.15
11.95
10.49
8.65
6.39
3.80
1.00
-1.89
-4.77
-7.56
-10.29
-13.02
-15.88
-19.00
-22.42
-25.97
-29.23
-31.66
-32.71
-32.00
-29.50
-25.47
-20.30
-14.45
-8.26
-2.03
3.99
9.54
14.35
18.24
21.13
23.08
24.24
24.78
24.87
24.57
23.93
22.96
21.67
20.12
18.43
16.72
15.10
13.59
12.06
10.28
8.03
5.24
2.01
-1.40
-4.66
-7.56
-10.04
-12.24
-14.39
-16.71
-19.39
-22.52
-26.01
-29.56
-32.67
-34.73
-35.16
-33.65
-30.23
-25.31
-19.48
-13.33
-7.26
-1.50
3.92
8.98
13.59
17.62
20.86
23.19
24.62
25.31
25.48
25.34
25.00
24.45
23.65
22.60
21.39
20.14
18.94
17.74
16.39
14.68
12.48
9.87
6.99
4.06
1.27
-1.35
-3.81
-6.19
-8.58
-11.08
-13.81
-16.91
-20.41
-24.19
-27.91
-30.97
-32.77
-32.84
-31.00
-27.42
-22.47
-16.60
-10.20
-3.63
2.80
8.70
13.68
17.46
19.95
21.30
21.86
21.96
21.86
21.65
21.32
20.85
20.21
19.43
18.52
17.47
16.27
14.90
13.35
11.60
9.61
7.38
4.89
2.22
-0.55
-3.37
-6.25
-9.24
-12.41
-15.79
-19.33
-22.89
-26.26
-29.16
-31.27
-32.27
-31.81
-29.72
-25.96
-20.81
-14.69
-8.16
-1.69
4.34
9.74
14.37
18.17
21.11
23.23
24.62
25.46
25.93
26.13
26.12
25.82
25.15
24.07
22.64
20.98
19.23
17.48
15.72
13.84
11.71
9.15
6.15
2.79
-0.76
-4.25
-7.51
-10.50
-13.29
-16.06
-18.96
-22.02
-25.10
-27.90
-30.06
-31.24
-31.18
-29.77
-27.00
-23.02
-18.05
-12.40
-6.43
-0.45
5.31
10.61
15.30
19.18
22.10
23.94
24.76
24.72
24.13
23.28
22.38
21.48
20.52
19.41
18.11
16.69
15.31
14.10
13.09
12.14
10.99
9.37
7.17
4.50
1.69
-0.89
-3.03
-4.76
-6.39
-8.30
-10.80
-13.96
-17.55
-21.18
-24.43
-26.96
-28.56
-29.11
-28.53
-26.75
-23.77
-19.75
-14.99
-9.93
-4.99
-0.48
3.46
6.89
9.93
12.63
14.95
16.77
17.94
18.42
18.34
17.86
17.19
16.46
15.70
14.85
13.86
12.70
11.35
9.82
8.05
6.03
3.73
1.22
-1.34
-3.78
-6.01
-8.06
-10.12
-12.47
-15.33
-18.73
-22.51
-26.23
-29.35
-31.29
-31.61
-30.09
-26.80
-22.08
-16.43
-10.44
-4.59
0.75
5.37
9.18
12.13
14.19
15.39
15.84
15.81
15.59
15.41
15.41
15.51
15.54
15.36
14.88
14.10
13.08
11.78
10.19
8.28
6.14
3.91
1.76
-0.23
-2.07
-3.86
-5.74
-7.78
-10.06
-12.62
-15.50
-18.65
-21.86
-24.75
-26.85
-27.75
-27.21
-25.25
-22.06
-17.91
-13.06
-7.74
-2.21
3.20
8.14
12.29
15.48
17.70
19.08
19.83
20.10
20.03
19.68
19.09
18.28
17.32
16.23
15.07
13.85
12.55
11.11
9.46
7.51
5.30
2.91
0.48
-1.85
-4.01
-6.07
-8.17
-10.44
-12.97
-15.75
-18.72
-21.72
-24.58
-27.02
-28.69
-29.23
-28.39
-26.14
-22.68
-18.37
-13.63
-8.74
-3.89
0.83
5.25
9.15
12.27
14.43
15.62
16.02
15.94
15.64
15.25
14.78
14.13
13.20
11.97
10.53
8.99
7.50
6.04
4.54
2.84
0.79
-1.62
-4.25
-6.89
-9.34
-11.53
-13.58
-15.69
-18.06
-20.77
-23.65
-26.33
-28.32
-29.19
-28.64
-26.62
-23.31
-19.06
-14.33
-9.52
-4.99
-0.95
2.53
5.42
7.71
9.37
10.40
10.84
10.87
10.74
10.71
10.93
11.33
11.72
11.82
11.43
10.54
9.22
7.62
5.86
3.98
2.04
0.08
-1.82
-3.63
-5.34
-7.07
-8.96
-11.16
-13.71
-16.45
-19.08
-21.17
-22.28
-22.07
-20.44
-17.51
-13.54
-8.90
-3.94
1.11
6.09
10.84
15.20
18.90
21.66
23.29
23.76
23.28
22.22
20.96
19.82
18.93
18.24
17.64
17.00
16.26
15.35
14.21
12.72
10.77
8.30
5.35
2.20
-0.82
-3.41
-5.41
-6.96
-8.34
-9.97
-12.09
-14.76
-17.80
-20.87
-23.62
-25.71
-26.89
-26.97
-25.83
-23.40
-19.80
-15.27
-10.18
-4.92
0.19
4.97
9.34
13.23
16.55
19.16
20.96
21.96
22.29
22.19
21.86
21.41
20.81
20.05
19.08
17.97
16.84
15.71
14.53
13.17
11.44
9.30
6.80
4.07
1.28
-1.45
-4.05
-6.43
-8.56
-10.45
-12.18
-13.95
-15.99
-18.39
-21.01
-23.49
-25.26
-25.82
-24.84
-22.34
-18.57
-13.98
-9.03
-4.07
0.69
5.15
9.25
12.89
15.92
18.21
19.68
20.37
20.46
20.18
19.75
19.25
18.64
17.81
16.66
15.18
13.47
11.69
10.02
8.50
7.13
5.80
4.36
2.65
0.60
-1.77
-4.37
-7.01
-9.53
-11.79
-13.75
-15.44
-16.95
-18.42
-19.96
-21.67
-23.58
-25.57
-27.36
-28.55
-28.69
-27.45
-24.71
-20.66
-15.64
-10.08
-4.37
1.15
6.18
10.41
13.60
15.66
16.69
17.02
17.08
17.22
17.58
18.10
18.54
18.67
18.33
17.52
16.32
14.83
13.15
11.34
9.40
7.34
5.14
2.77
0.21
-2.55
-5.50
-8.53
-11.47
-14.19
-16.57
-18.64
-20.50
-22.26
-23.87
-25.12
-25.63
-25.02
-23.12
-20.00
-15.97
-11.44
-6.78
-2.24
2.05
5.95
9.30
11.90
13.60
14.36
14.31
13.69
12.82
11.90
11.04
10.30
9.63
9.03
8.52
8.11
7.83
7.59
7.23
6.55
5.40
3.73
1.60
-0.81
-3.30
-5.74
-8.11
-10.47
-12.93
-15.57
-18.39
-21.32
-24.17
-26.74
-28.78
-30.02
-30.18
-29.02
-26.44
-22.54
-17.62
-12.15
-6.67
-1.65
2.59
5.95
8.50
10.38
11.74
12.71
13.29
13.54
13.51
13.28
12.92
12.47
11.87
11.01
9.80
8.24
6.45
4.59
2.79
1.08
-0.64
-2.54
-4.71
-7.17
-9.77
-12.28
-14.52
-16.43
-18.12
-19.83
-21.82
-24.24
-27.00
-29.76
-31.98
-33.11
-32.77
-30.86
-27.58
-23.33
-18.51
-13.45
-8.29
-3.12
1.93
6.58
10.45
13.26
14.91
15.56
15.58
15.32
15.01
14.70
14.31
13.77
13.10
12.37
11.65
10.94
10.12
9.05
7.60
5.72
3.48
1.01
-1.55
-4.08
-6.56
-8.99
-11.50
-14.24
-17.33
-20.86
-24.70
-28.54
-31.86
-34.06
-34.66
-33.41
-30.34
-25.72
-19.93
-13.33
-6.26
0.99
8.01
14.34
19.54
23.30
25.59
26.65
26.88
26.71
26.41
26.09
25.68
25.09
24.24
23.11
21.75
20.22
18.51
16.59
14.39
11.87
9.07
6.11
3.17
0.35
-2.31
-4.86
-7.46
-10.25
-13.38
-16.84
-20.53
-24.11
-27.08
-28.88
-29.03
-27.31
-23.82
-18.96
-13.29
-7.32
-1.44
4.15
9.25
13.70
17.30
19.88
21.40
22.01
22.02
21.75
21.45
21.13
20.66
19.89
18.74
17.28
15.69
14.10
12.52
10.86
8.99
6.90
4.69
2.53
0.57
-1.13
-2.70
-4.30
-6.13
-8.34
-11.00
-14.10
-17.52
-20.98
-24.06
-26.25
-27.07
-26.21
-23.65
-19.64
-14.61
-9.05
-3.37
2.19
7.47
12.33
16.61
20.13
22.74
24.44
25.34
25.67
25.64
25.44
25.12
24.67
24.06
23.24
22.20
20.93
19.45
17.81
16.02
14.14
12.18
10.13
7.99
5.78
3.56
1.33
-0.98
-3.53
-6.50
-9.94
-13.68
-17.26
-20.09
-21.62
-21.59
-20.04
-17.28
-13.69
-9.59
-5.18
-0.57
4.07
8.51
12.42
15.52
17.64
18.75
19.00
18.63
17.93
17.12
16.39
15.77
15.22
14.63
13.84
12.77
11.38
9.69
7.75
5.60
3.29
0.86
-1.61
-4.02
-6.38
-8.74
-11.28
-14.23
-17.69
-21.55
-25.41
-28.68
-30.75
-31.19
-29.94
-27.16
-23.24
-18.49
-13.21
-7.55
-1.73
3.93
9.05
13.23
16.26
18.10
18.96
19.14
18.90
18.42
17.78
17.03
16.21
15.40
14.61
13.84
12.95
11.82
10.33
8.47
6.29
3.89
1.33
-1.32
-4.02
-6.76
-9.55
-12.44
-15.46
-18.61
-21.70
-24.37
-26.14
-26.55
-25.37
-22.64
-18.67
-13.94
-8.88
-3.82
1.03
5.54
9.52
12.74
14.98
16.11
16.21
15.54
14.59
13.86
13.72
14.35
15.65
17.38
19.23
20.94
22.35
23.38
23.98
24.10
23.68
22.66
21.04
18.88
16.37
13.79
11.39
9.38
7.77
6.42
5.08
3.55
1.71
-0.40
-2.64
-4.87
-6.98
-9.00
-10.98
-13.04
-15.27
-17.69
-20.20
-22.64
-24.68
-25.95
-26.15
-25.12
-22.90
-19.70
-15.79
-11.47
-6.95
-2.43
1.87
5.69
8.75
10.86
12.02
12.40
12.37
12.29
12.44
12.85
13.37
13.74
13.65
12.92
11.52
9.54
7.17
4.60
1.97
-0.66
-3.29
-5.93
-8.58
-11.22
-13.82
-16.41
-19.06
-21.79
-24.51
-26.88
-28.45
-28.77
-27.59
-25.00
-21.35
-17.11
-12.62
-8.05
-3.38
1.41
6.15
10.50
14.00
16.31
17.38
17.46
16.97
16.29
15.65
15.04
14.35
13.43
12.23
10.78
9.11
7.23
5.14
2.81
0.29
-2.35
-5.04
-7.70
-10.36
-13.09
-15.92
-18.88
-21.88
-24.81
-27.44
-29.48
-30.58
-30.41
-28.77
-25.63
-21.21
-15.86
-9.96
-3.86
2.15
7.86
13.00
17.36
20.74
23.03
24.29
24.68
24.41
23.69
22.68
21.47
20.13
18.69
17.20
15.70
14.24
12.83
11.50
10.22
8.89
7.40
5.61
3.41
0.78
-2.26
-5.62
-9.16
-12.79
-16.42
-19.96
-23.23
-26.03
-28.07
-29.04
-28.75
-27.06
-24.00
-19.73
-14.55
-8.86
-3.09
2.31
6.97
10.66
13.34
15.10
16.12
16.57
16.56
16.17
15.47
14.56
13.62
12.83
12.27
11.91
11.60
11.13
10.34
9.12
7.47
5.43
3.10
0.51
-2.26
-5.13
-7.98
-10.74
-13.36
-15.89
-18.40
-20.90
-23.25
-25.13
-26.14
-25.92
-24.22
-21.06
-16.66
-11.43
-5.82
-0.25
4.98
9.64
13.55
16.60
18.70
19.88
20.23
19.98
19.39
18.64
17.85
17.02
16.10
15.09
14.03
12.98
11.89
10.64
9.06
7.00
4.45
1.57
-1.41
-4.29
-7.00
-9.58
-12.15
-14.82
-17.65
-20.66
-23.83
-27.08
-30.19
-32.81
-34.49
-34.76
-33.34
-30.28
-25.89
-20.67
-15.12
-9.55
-4.18
0.89
5.53
9.56
12.77
15.06
16.45
17.14
17.33
17.23
16.93
16.47
15.84
15.02
14.03
12.92
11.68
10.34
8.87
7.25
5.45
3.50
1.42
-0.70
-2.85
-5.02
-7.25
-9.60
-12.15
-14.90
-17.85
-20.91
-23.88
-26.49
-28.34
-29.02
-28.20
-25.81
-22.04
-17.31
-12.15
-7.00
-2.08
2.55
6.95
11.15
15.01
18.35
20.92
22.61
23.45
23.60
23.28
22.64
21.75
20.59
19.13
17.45
15.68
13.99
12.50
11.16
9.80
8.18
6.15
3.68
0.95
-1.84
-4.43
-6.76
-8.89
-10.99
-13.29
-15.97
-19.07
-22.43
-25.65
-28.15
-29.35
-28.82
-26.46
-22.53
-17.51
-12.01
-6.52
-1.36
3.27
7.29
10.59
13.10
14.80
15.71
15.93
15.63
15.00
14.20
13.37
12.58
11.79
10.92
9.83
8.41
6.61
4.52
2.24
-0.11
-2.45
-4.77
-7.10
-9.48
-11.95
-14.52
-17.20
-20.00
-22.87
-25.69
-28.24
-30.18
-31.18
-30.95
-29.35
-26.39
-22.23
-17.13
-11.38
-5.32
0.74
6.46
11.53
15.72
18.89
21.07
22.36
22.98
23.13
23.00
22.68
22.18
21.39
20.17
18.39
16.02
13.16
10.02
6.84
3.85
1.14
-1.27
-3.46
-5.57
-7.75
-10.17
-12.99
-16.27
-19.98
-23.96
-27.91
-31.44
-34.14
-35.60
-35.53
-33.77
-30.34
-25.49
-19.56
-12.99
-6.21
0.38
6.45
11.77
16.20
19.71
22.39
24.35
25.67
26.33
26.30
25.57
24.25
22.57
20.77
19.02
17.33
15.55
13.49
11.04
8.17
4.94
1.48
-2.14
-5.81
-9.40
-12.79
-15.91
-18.82
-21.72
-24.81
-28.16
-31.55
-34.50
-36.40
-36.72
-35.20
-31.86
-26.95
-20.85
-13.95
-6.65
0.68
7.72
14.21
19.98
24.88
28.78
31.58
33.19
33.63
33.04
31.75
30.12
28.54
27.18
26.07
25.03
23.88
22.43
20.60
18.42
15.90
13.09
10.00
6.65
3.11
-0.54
-4.23
-7.93
-11.68
-15.55
-19.50
-23.31
-26.58
-28.82
-29.57
-28.58
-25.79
-21.38
-15.67
-9.11
-2.18
4.65
10.94
16.39
20.83
24.25
26.66
28.13
28.72
28.54
27.75
26.60
25.34
24.16
23.14
22.23
21.27
20.12
18.63
16.73
14.45
11.89
9.22
6.59
4.08
1.67
-0.75
-3.27
-5.98
-8.92
-12.10
-15.52
-19.04
-22.34
-24.86
-25.95
-25.07
-21.98
-16.84
-10.19
-2.70
4.99
12.47
19.44
25.74
31.20
35.66
39.00
41.18
42.28
42.42
41.79
40.52
38.78
36.66
34.30
31.78
29.18
26.54
23.88
21.18
18.38
15.44
12.27
8.88
5.34
1.81
-1.54
-4.54
-7.14
-9.48
-11.79
-14.30
-17.11
-20.09
-22.83
-24.76
-25.37
-24.29
-21.47
-17.12
-11.69
-5.65
0.51
6.33
11.49
15.69
18.73
20.53
21.13
20.63
19.20
17.02
14.29
11.24
8.11
5.12
2.43
0.09
-1.93
-3.76
-5.47
-7.12
-8.75
-10.34
-11.89
-13.47
-15.15
-17.00
-19.07
-21.38
-23.90
-26.66
-29.71
-33.13
-36.91
-40.87
-44.58
-47.39
-48.68
-48.02
-45.36
-41.09
-35.77
-29.97
-24.04
-18.13
-12.27
-6.58
-1.28
3.32
7.00
9.73
11.66
13.06
14.07
14.75
15.02
14.83
14.20
13.27
12.25
11.24
10.23
9.11
7.70
5.90
3.67
1.10
-1.68
-4.52
-7.31
-10.03
-12.73
-15.52
-18.56
-21.94
-25.61
-29.31
-32.63
-35.07
-36.20
-35.77
-33.75
-30.32
-25.84
-20.73
-15.49
-10.53
-6.23
-2.86
-0.56
0.68
0.92
0.35
-0.90
-2.65
-4.78
-7.15
-9.65
-12.21
-14.78
-17.32
-19.75
-21.91
-23.62
-24.66
-24.91
-24.41
-23.29
-21.81
-20.20
-18.71
-17.49
-16.63
-16.12
-15.89
-15.74
-15.44
-14.73
-13.42
-11.38
-8.57
-5.01
-0.75
4.09
9.35
14.83
20.33
25.72
30.93
35.95
40.70
44.99
48.50
50.89
51.94
51.67
50.40
48.65
47.05
46.13
46.20
47.21
48.72
50.04
50.40
49.28
46.49
42.30
37.26
31.97
26.82
21.99
17.42
12.99
8.65
4.38
0.21
-3.91
-8.08
-12.38
-16.76
-21.00
-24.65
-27.16
-28.01
-26.82
-23.52
-18.39
-11.99
-5.04
1.80
8.04
13.46
18.02
21.75
24.71
26.87
28.16
28.46
27.69
25.81
22.91
19.30
15.50
12.15
9.83
8.84
9.03
9.94
10.94
11.53
11.36
10.30
8.27
5.18
0.96
-4.29
-10.28
-16.55
-22.68
-28.46
-33.88
-38.99
-43.67
-47.48
-49.75
-49.84
-47.46
-42.82
-36.61
-29.73
-23.01
-17.04
-12.04
-8.02
-4.81
-2.19
0.12
2.42
4.90
7.58
10.28
12.65
14.33
15.05
14.78
13.68
12.07
10.29
8.69
7.47
6.73
6.37
6.11
5.51
4.21
2.03
-0.98
-4.48
-8.07
-11.46
-14.59
-17.56
-20.57
-23.69
-26.77
-29.38
-30.97
-30.99
-29.07
-25.13
-19.43
-12.44
-4.75
3.08
10.54
17.19
22.65
26.64
29.04
30.02
30.00
29.58
29.31
29.50
30.11
30.82
31.27
31.21
30.62
29.66
28.47
27.14
25.59
23.76
21.67
19.50
17.54
16.07
15.22
14.89
14.84
14.78
14.53
14.03
13.39
12.78
12.35
12.26
12.67
13.75
15.66
18.44
21.94
25.75
29.32
32.03
33.43
33.31
31.74
28.99
25.35
21.09
16.39
11.40
6.31
1.43
-2.91
-6.39
-8.88
-10.48
-11.50
-12.35
-13.38
-14.71
-16.26
-17.79
-19.12
-20.21
-21.26
-22.61
-24.54
-27.22
-30.66
-34.73
-39.21
-43.82
-48.10
-51.43
-53.16
-52.80
-50.24
-45.79
-40.05
-33.61
-26.83
-19.76
-12.37
-4.75
2.67
9.26
14.37
17.64
19.13
19.23
18.51
17.49
16.48
15.57
14.71
13.83
12.90
11.99
11.15
10.45
9.79
9.00
7.84
6.14
3.89
1.23
-1.58
-4.33
-6.99
-9.70
-12.78
-16.51
-20.97
-25.87
-30.53
-34.04
-35.57
-34.65
-31.42
-26.51
-20.82
-15.10
-9.71
-4.66
0.21
4.96
9.32
12.85
15.15
16.13
16.03
15.34
14.51
13.77
13.09
12.33
11.36
10.18
8.93
7.69
6.44
5.04
3.30
1.10
-1.52
-4.37
-7.27
-10.08
-12.82
-15.67
-18.82
-22.39
-26.30
-30.22
-33.64
-35.94
-36.62
-35.37
-32.25
-27.59
-21.91
-15.75
-9.53
-3.52
2.10
7.18
11.49
14.84
17.03
18.00
17.85
16.80
15.17
13.24
11.29
9.48
7.93
6.65
5.59
4.62
3.58
2.30
0.71
-1.10
-2.95
-4.57
-5.77
-6.52
-7.01
-7.58
-8.60
-10.30
-12.65
-15.31
-17.72
-19.23
-19.37
-17.93
-15.04
-11.05
-6.37
-1.37
3.72
8.73
13.49
17.78
21.34
23.93
25.45
25.88
25.30
23.77
21.38
18.25
14.57
10.66
6.80
3.18
-0.17
-3.37
-6.68
-10.31
-14.33
-18.64
-22.94
-26.84
-29.91
-31.80
-32.43
-31.97
-30.83
-29.51
-28.40
-27.58
-26.88
-25.87
-24.10
-21.21
-17.06
-11.76
-5.58
1.01
7.46
13.25
17.99
21.51
23.90
25.42
26.32
26.72
26.64
26.04
24.90
23.34
21.51
19.53
17.42
15.12
12.50
9.52
6.22
2.76
-0.65
-3.73
-6.19
-7.77
-8.34
-8.01
-7.19
-6.55
-6.79
-8.40
-11.48
-15.71
-20.45
-24.96
-28.58
-30.82
-31.41
-30.26
-27.50
-23.48
-18.68
-13.70
-9.08
-5.20
-2.15
0.12
1.81
3.17
4.37
5.47
6.49
7.37
8.00
8.28
8.18
7.74
7.10
6.41
5.81
5.35
4.99
4.59
4.02
3.17
1.98
0.46
-1.33
-3.31
-5.42
-7.70
-10.28
-13.36
-17.01
-21.03
-24.87
-27.72
-28.75
-27.47
-23.88
-18.44
-11.92
-5.07
1.57
7.69
13.16
17.88
21.76
24.70
26.66
27.72
28.07
27.94
27.51
26.86
25.94
24.66
22.91
20.66
17.98
15.02
12.01
9.15
6.53
4.16
1.99
-0.09
-2.09
-4.02
-5.85
-7.69
-9.80
-12.54
-16.19
-20.72
-25.71
-30.33
-33.62
-34.84
-33.67
-30.31
-25.30
-19.31
-12.91
-6.52
-0.37
5.33
10.38
14.57
17.78
20.02
21.49
22.48
23.35
24.34
25.54
26.78
27.82
28.34
28.19
27.39
26.15
24.70
23.17
21.57
19.78
17.70
15.31
12.67
9.85
6.76
3.21
-1.03
-6.05
-11.58
-17.00
-21.48
-24.23
-24.77
-23.13
-19.75
-15.31
-10.50
-5.74
-1.14
3.34
7.78
12.07
15.94
19.04
21.08
21.99
21.95
21.26
20.19
18.99
17.77
16.55
15.32
14.05
12.74
11.37
9.96
8.53
7.08
5.56
3.79
1.54
-1.38
-5.09
-9.55
-14.59
-20.00
-25.54
-30.89
-35.66
-39.31
-41.28
-41.17
-38.87
-34.69
-29.16
-22.89
-16.34
-9.74
-3.18
3.25
9.34
14.73
19.09
22.19
24.04
24.84
24.88
24.47
23.88
23.27
22.75
22.33
21.99
21.68
21.36
20.92
20.29
19.33
17.94
16.06
13.59
10.47
6.53
1.53
-4.75
-12.32
-20.76
-29.25
-36.63
-41.78
-43.93
-42.97
-39.39
-34.05
-27.85
-21.43
-15.07
-8.83
-2.71
3.20
8.61
13.16
16.56
18.72
19.72
19.76
19.09
17.85
16.10
13.87
11.17
8.01
4.45
0.55
-3.53
-7.62
-11.48
-14.85
-17.62
-19.77
-21.49
-23.11
-24.97
-27.35
-30.32
-33.67
-36.87
-39.20
-39.99
-38.77
-35.50
-30.55
-24.57
-18.25
-12.12
-6.49
-1.39
3.34
7.93
12.55
17.31
22.12
26.79
30.99
34.40
36.73
37.82
37.71
36.53
34.53
31.98
29.14
26.22
23.37
20.59
17.79
14.83
11.57
7.95
4.06
0.04
-3.96
-7.82
-11.59
-15.40
-19.35
-23.41
-27.23
-30.31
-32.02
-31.93
-29.91
-26.21
-21.32
-15.80
-10.16
-4.77
0.15
4.40
7.87
10.50
12.34
13.59
14.55
15.52
16.70
18.12
19.60
20.87
21.65
21.76
21.13
19.83
17.97
15.66
12.99
10.04
6.91
3.73
0.59
-2.50
-5.67
-9.20
-13.37
-18.34
-23.98
-29.82
-35.07
-38.91
-40.64
-39.98
-37.08
-32.42
-26.61
-20.13
-13.32
-6.36
0.56
7.16
13.07
17.93
21.53
23.92
25.34
26.08
26.38
26.38
26.16
25.75
25.21
24.56
23.70
22.45
20.60
18.03
14.80
11.21
7.61
4.29
1.33
-1.49
-4.52
-8.16
-12.63
-17.83
-23.29
-28.20
-31.66
-32.93
-31.73
-28.26
-23.17
-17.20
-10.95
-4.74
1.28
6.96
12.01
16.08
18.86
20.31
20.76
20.75
20.74
21.01
21.49
21.91
21.99
21.58
20.70
19.51
18.16
16.69
15.06
13.13
10.80
8.03
4.89
1.51
-1.99
-5.57
-9.31
-13.36
-17.81
-22.60
-27.34
-31.39
-33.95
-34.37
-32.35
-28.08
-22.18
-15.46
-8.69
-2.37
3.27
8.17
12.34
15.77
18.41
20.26
21.44
22.15
22.67
23.12
23.47
23.55
23.14
22.13
20.58
18.73
16.81
14.97
13.19
11.32
9.20
6.74
4.03
1.18
-1.70
-4.60
-7.59
-10.82
-14.39
-18.31
-22.40
-26.31
-29.53
-31.46
-31.66
-29.85
-26.13
-20.85
-14.56
-7.80
-1.09
5.21
10.78
15.33
18.65
20.61
21.32
21.11
20.48
19.95
19.88
20.32
21.01
21.49
21.30
20.19
18.18
15.52
12.54
9.52
6.65
3.95
1.43
-0.98
-3.27
-5.51
-7.77
-10.17
-12.91
-16.07
-19.61
-23.23
-26.39
-28.40
-28.65
-26.85
-23.11
-17.89
-11.79
-5.35
1.03
7.10
12.62
17.28
20.80
23.02
24.01
24.05
23.52
22.65
21.56
20.26
18.74
17.12
15.55
14.10
12.72
11.15
9.04
6.12
2.32
-2.21
-7.17
-12.21
-17.12
-21.85
-26.43
-30.99
-35.56
-40.07
-44.34
-48.08
-50.89
-52.42
-52.29
-50.31
-46.48
-41.03
-34.40
-27.05
-19.37
-11.61
-3.95
3.43
10.26
16.25
21.16
24.98
27.89
30.21
32.23
34.17
36.13
38.13
40.14
42.10
43.85
45.11
45.57
45.02
43.48
41.32
39.10
37.40
36.50
36.24
36.00
34.80
31.61
25.65
16.71
5.30
-7.44
-19.98
-30.71
-38.38
-42.30
-42.51
-39.69
-35.11
-30.38
-27.10
-26.51
-29.05
-34.09
-40.02
-44.67
-46.09
-43.28
-36.45
-27.07
-17.16
-8.64
-2.71
0.36
1.17
0.76
0.23
0.40
1.70
4.12
7.41
11.14
14.89
18.32
21.19
23.38
24.78
25.23
24.52
22.36
18.58
13.29
6.96
0.50
-4.94
-8.25
-8.68
-6.08
-0.94
5.73
12.77
19.14
24.13
27.49
29.31
29.90
29.61
28.79
27.68
26.44
25.17
23.90
22.67
21.52
20.49
19.62
18.90
18.29
17.74
17.17
16.53
15.78
14.90
13.84
12.49
10.68
8.27
5.16
1.37
-2.93
-7.53
-12.29
-17.15
-22.07
-26.85
-31.03
-33.95
-34.97
-33.83
-30.81
-26.61
-22.10
-17.89
-14.15
-10.67
-7.13
-3.38
0.43
3.94
6.76
8.63
9.52
9.55
8.86
7.61
5.91
3.86
1.57
-0.80
-3.09
-5.18
-7.02
-8.70
-10.43
-12.48
-15.05
-18.19
-21.77
-25.51
-29.09
-32.28
-35.08
-37.61
-40.11
-42.66
-45.16
-47.21
-48.21
-47.61
-45.03
-40.40
-33.96
-26.22
-17.74
-9.05
-0.54
7.52
14.95
21.56
27.13
31.42
34.20
35.38
35.02
33.30
30.60
27.33
23.89
20.63
17.77
15.39
13.40
11.53
9.41
6.65
3.00
-1.58
-6.89
-12.56
-18.21
-23.56
-28.52
-33.19
-37.75
-42.37
-47.11
-51.82
-56.17
-59.65
-61.70
-61.84
-59.79
-55.62
-49.67
-42.48
-34.53
-26.08
-17.12
-7.48
2.98
14.16
25.61
36.62
46.39
54.25
59.84
63.18
64.65
64.81
64.24
63.37
62.44
61.43
60.17
58.42
55.99
52.73
48.66
43.88
38.63
33.19
27.79
22.62
17.70
12.92
8.02
2.67
-3.43
-10.38
-18.00
-25.65
-32.36
-37.10
-39.03
-37.93
-34.23
-28.83
-22.75
-16.76
-11.20
-6.11
-1.41
2.93
6.78
9.95
12.35
14.04
15.20
16.02
16.61
16.94
16.90
16.35
15.28
13.75
11.98
10.23
8.73
7.61
6.88
6.43
6.08
5.57
4.68
3.24
1.22
-1.24
-3.91
-6.55
-9.06
-11.53
-14.22
-17.38
-21.01
-24.77
-28.04
-30.12
-30.47
-28.91
-25.61
-20.96
-15.47
-9.57
-3.57
2.25
7.63
12.34
16.19
19.04
20.89
21.83
22.02
21.64
20.90
19.96
19.00
18.17
17.51
16.98
16.42
15.60
14.30
12.38
9.80
6.67
3.23
-0.26
-3.58
-6.59
-9.28
-11.78
-14.32
-17.18
-20.60
-24.60
-29.00
-33.30
-36.86
-39.01
-39.26
-37.43
-33.77
-28.78
-23.09
-17.21
-11.46
-5.96
-0.77
3.98
8.06
11.20
13.26
14.26
14.40
14.01
13.39
12.72
12.09
11.47
10.83
10.07
9.15
8.04
6.75
5.28
3.68
1.93
-0.01
-2.20
-4.65
-7.31
-10.02
-12.69
-15.32
-18.07
-21.13
-24.56
-28.09
-31.21
-33.22
-33.49
-31.75
-28.09
-22.93
-16.87
-10.49
-4.25
1.55
6.71
11.07
14.57
17.21
19.05
20.26
21.02
21.50
21.79
21.93
21.85
21.51
20.80
19.74
18.37
16.80
15.16
13.46
11.66
9.63
7.25
4.47
1.38
-1.85
-5.04
-8.06
-10.88
-13.58
-16.30
-19.18
-22.39
-25.97
-29.82
-33.65
-36.96
-39.11
-39.56
-37.92
-34.14
-28.48
-21.45
-13.70
-5.88
1.40
7.64
12.51
15.94
18.04
19.09
19.44
19.40
19.24
19.15
19.21
19.49
19.92
20.33
20.46
20.07
19.01
17.28
15.06
12.59
10.04
7.51
4.91
2.16
-0.81
-3.95
-7.21
-10.53
-13.94
-17.49
-21.15
-24.70
-27.71
-29.65
-30.01
-28.52
-25.21
-20.42
-14.63
-8.34
-1.98
4.08
9.54
14.11
17.55
19.67
20.52
20.31
19.40
18.22
17.10
16.28
15.77
15.50
15.29
14.97
14.34
13.24
11.56
9.22
6.26
2.80
-0.89
-4.48
-7.68
-10.34
-12.56
-14.69
-17.20
-20.46
-24.50
-28.94
-33.05
-36.03
-37.23
-36.35
-33.42
-28.77
-22.83
-16.05
-8.85
-1.62
5.29
11.61
17.13
21.69
25.19
27.53
28.70
28.79
28.01
26.66
25.03
23.35
21.74
20.25
18.88
17.57
16.24
14.74
12.86
10.49
7.57
4.22
0.68
-2.79
-6.00
-8.92
-11.72
-14.66
-18.02
-21.90
-26.19
-30.51
-34.24
-36.74
-37.49
-36.22
-32.97
-28.07
-21.98
-15.21
-8.21
-1.39
4.98
10.63
15.41
19.21
22.04
24.00
25.24
25.91
26.09
25.85
25.16
24.07
22.57
20.72
18.55
16.14
13.57
10.96
8.40
5.94
3.57
1.18
-1.39
-4.28
-7.57
-11.29
-15.39
-19.78
-24.38
-29.02
-33.44
-37.24
-39.90
-40.92
-39.94
-36.83
-31.83
-25.46
-18.36
-11.20
-4.46
1.57
6.72
10.92
14.05
16.06
16.94
16.83
15.95
14.60
13.02
11.39
9.81
8.32
7.00
5.89
4.98
4.13
3.11
1.68
-0.30
-2.78
-5.55
-8.29
-10.74
-12.82
-14.74
-16.92
-19.80
-23.61
-28.25
-33.27
-37.95
-41.55
-43.41
-43.04
-40.16
-34.76
-27.17
-18.10
-8.49
0.73
8.87
15.72
21.47
26.40
30.62
33.99
36.16
36.88
36.20
34.47
32.17
29.77
27.49
25.36
23.32
21.33
19.41
17.59
15.83
13.98
11.87
9.29
6.22
2.76
-0.84
-4.20
-7.05
-9.25
-10.96
-12.54
-14.43
-16.82
-19.47
-21.68
-22.47
-21.00
-16.92
-10.47
-2.43
6.21
14.61
22.22
28.79
34.19
38.37
41.34
43.17
44.13
44.53
44.70
44.88
45.14
45.43
45.65
45.63
45.16
43.98
41.82
38.53
34.16
29.00
23.49
18.10
13.15
8.73
4.73
0.91
-2.95
-7.04
-11.44
-16.18
-21.25
-26.61
-32.14
-37.51
-42.21
-45.57
-46.93
-45.82
-42.15
-36.27
-28.82
-20.59
-12.27
-4.33
3.00
9.62
15.51
20.64
24.98
28.51
31.13
32.71
33.07
32.07
29.78
26.54
22.91
19.43
16.43
13.92
11.58
9.08
6.21
3.03
-0.10
-2.77
-4.66
-5.73
-6.24
-6.66
-7.55
-9.35
-12.28
-16.30
-21.13
-26.32
-31.33
-35.54
-38.34
-39.15
-37.62
-33.68
-27.68
-20.28
-12.34
-4.63
2.25
7.97
12.38
15.51
17.47
18.47
18.81
18.82
18.75
18.71
18.63
18.32
17.60
16.38
14.74
12.85
10.86
8.86
6.85
4.81
2.72
0.60
-1.56
-3.86
-6.47
-9.60
-13.39
-17.79
-22.56
-27.24
-31.29
-34.16
-35.38
-34.69
-32.05
-27.69
-22.03
-15.63
-9.04
-2.69
3.18
8.46
13.11
17.01
19.98
21.87
22.62
22.40
21.56
20.50
19.55
18.80
18.16
17.43
16.44
15.09
13.37
11.29
8.82
5.93
2.65
-0.87
-4.38
-7.64
-10.57
-13.25
-15.99
-19.12
-22.89
-27.26
-31.80
-35.85
-38.57
-39.26
-37.52
-33.41
-27.39
-20.21
-12.66
-5.45
0.93
6.23
10.39
13.51
15.75
17.33
18.44
19.21
19.72
20.00
20.11
20.03
19.76
19.20
18.23
16.76
14.75
12.35
9.75
7.13
4.62
2.19
-0.29
-2.96
-5.94
-9.30
-13.05
-17.21
-21.69
-26.27
-30.60
-34.13
-36.29
-36.63
-34.98
-31.51
-26.64
-20.88
-14.65
-8.20
-1.66
4.81
10.98
16.45
20.87
24.02
25.91
26.78
26.88
26.47
25.63
24.44
22.96
21.32
19.71
18.20
16.77
15.23
13.44
11.29
8.84
6.22
3.56
0.93
-1.74
-4.56
-7.70
-11.25
-15.32
-19.90
-24.92
-30.08
-34.86
-38.58
-40.50
-40.11
-37.25
-32.21
-25.59
-18.15
-10.62
-3.53
2.81
8.30
12.95
16.81
19.91
22.19
23.61
24.17
23.96
23.23
22.26
21.26
20.30
19.24
17.81
15.80
13.16
10.06
6.80
3.72
0.99
-1.37
-3.50
-5.62
-7.91
-10.45
-13.29
-16.46
-20.03
-23.96
-28.08
-31.97
-34.93
-36.22
-35.23
-31.76
-26.09
-18.93
-11.14
-3.52
3.40
9.40
14.45
18.59
21.81
24.09
25.43
25.92
25.76
25.19
24.42
23.56
22.59
21.45
20.09
18.47
16.63
14.61
12.41
10.00
7.35
4.45
1.35
-1.79
-4.83
-7.64
-10.23
-12.75
-15.42
-18.52
-22.19
-26.39
-30.77
-34.73
-37.54
-38.50
-37.17
-33.49
-27.82
-20.69
-12.76
-4.56
3.49
11.06
17.84
23.50
27.80
30.61
32.04
32.36
31.90
30.97
29.77
28.35
26.72
24.91
23.00
21.17
19.54
18.20
17.06
15.94
14.60
12.86
10.65
8.01
5.04
1.87
-1.42
-4.77
-8.12
-11.46
-14.82
-18.25
-21.79
-25.35
-28.65
-31.23
-32.58
-32.23
-30.02
-26.03
-20.65
-14.37
-7.67
-1.00
5.28
10.83
15.38
18.76
20.96
22.12
22.54
22.55
22.42
22.29
22.18
22.03
21.74
21.24
20.51
19.52
18.23
16.57
14.48
11.92
8.89
5.49
1.90
-1.71
-5.15
-8.26
-10.96
-13.24
-15.23
-17.16
-19.31
-21.84
-24.68
-27.39
-29.30
-29.74
-28.25
-24.79
-19.74
-13.65
-7.12
-0.61
5.52
11.00
15.56
19.00
21.25
22.44
22.84
22.82
22.64
22.39
22.07
21.62
20.96
20.09
19.03
17.85
16.65
15.55
14.63
13.89
13.19
12.26
10.77
8.51
5.51
2.04
-1.53
-4.79
-7.57
-9.93
-12.17
-14.71
-17.88
-21.78
-26.16
-30.41
-33.73
-35.36
-34.82
-32.07
-27.45
-21.59
-15.06
-8.33
-1.70
4.59
10.28
15.03
18.57
20.79
21.79
21.91
21.58
21.19
20.96
20.92
20.91
20.70
20.10
19.05
17.61
15.97
14.34
12.83
11.49
10.31
9.23
8.18
7.02
5.49
3.29
0.19
-3.79
-8.32
-12.90
-17.05
-20.60
-23.69
-26.66
-29.73
-32.73
-35.12
-36.21
-35.48
-32.86
-28.73
-23.71
-18.38
-13.07
-7.86
-2.69
2.35
7.02
10.94
13.79
15.44
16.08
16.04
15.73
15.47
15.38
15.41
15.40
15.13
14.48
13.39
11.98
10.41
8.86
7.40
5.94
4.22
1.97
-0.98
-4.63
-8.74
-13.01
-17.22
-21.27
-25.23
-29.19
-33.20
-37.15
-40.74
-43.58
-45.27
-45.51
-44.16
-41.26
-37.01
-31.76
-25.94
-19.98
-14.29
-9.11
-4.58
-0.70
2.62
5.50
8.03
10.28
12.28
14.06
15.61
16.92
17.93
18.55
18.69
18.30
17.43
16.18
14.75
13.30
11.98
10.82
9.75
8.64
7.35
5.77
3.87
1.65
-0.90
-3.81
-7.12
-10.81
-14.78
-18.81
-22.62
-25.86
-28.14
-29.14
-28.60
-26.46
-22.90
-18.25
-12.96
-7.43
-1.94
3.35
8.37
12.95
16.88
19.90
21.86
22.79
22.95
22.69
22.33
22.00
21.65
21.11
20.25
19.05
17.66
16.21
14.82
13.48
12.05
10.41
8.52
6.45
4.33
2.26
0.26
-1.74
-3.85
-6.18
-8.80
-11.75
-15.05
-18.69
-22.60
-26.55
-30.16
-32.93
-34.36
-34.13
-32.18
-28.71
-24.12
-18.84
-13.29
-7.80
-2.64
1.95
5.74
8.55
10.32
11.12
11.19
10.85
10.44
10.20
10.25
10.57
11.02
11.43
11.64
11.53
11.01
10.05
8.65
6.85
4.73
2.39
-0.07
-2.61
-5.18
-7.75
-10.37
-13.12
-16.18
-19.74
-23.84
-28.27
-32.47
-35.71
-37.28
-36.75
-34.03
-29.45
-23.58
-17.03
-10.39
-4.09
1.60
6.54
10.72
14.16
16.95
19.10
20.60
21.42
21.57
21.10
20.10
18.72
17.08
15.31
13.53
11.89
10.51
9.43
8.55
7.67
6.53
4.94
2.87
0.43
-2.19
-4.84
-7.50
-10.34
-13.60
-17.46
-21.85
-26.43
-30.59
-33.59
-34.85
-34.07
-31.37
-27.18
-22.10
-16.64
-11.08
-5.52
0.02
5.42
10.43
14.72
18.05
20.36
21.81
22.65
23.09
23.22
23.01
22.36
21.28
19.87
18.36
16.94
15.71
14.60
13.42
11.95
10.05
7.69
5.00
2.15
-0.70
-3.45
-6.07
-8.54
-10.90
-13.25
-15.76
-18.61
-21.89
-25.42
-28.72
-31.07
-31.74
-30.29
-26.72
-21.49
-15.35
-9.00
-2.93
2.68
7.81
12.45
16.53
19.90
22.41
24.06
24.95
25.27
25.12
24.55
23.54
22.11
20.34
18.41
16.44
14.44
12.30
9.84
6.92
3.55
-0.13
-3.93
-7.63
-11.10
-14.30
-17.26
-20.07
-22.88
-25.85
-29.11
-32.59
-35.97
-38.66
-40.02
-39.48
-36.83
-32.30
-26.43
-19.89
-13.23
-6.80
-0.77
4.74
9.57
13.51
16.48
18.52
19.86
20.78
21.49
22.01
22.18
21.84
20.92
19.55
17.98
16.44
15.03
13.66
12.14
10.29
8.06
5.51
2.78
0.01
-2.77
-5.64
-8.75
-12.32
-16.51
-21.39
-26.83
-32.43
-37.61
-41.66
-43.93
-44.03
-41.92
-37.87
-32.36
-25.92
-19.00
-12.01
-5.23
1.09
6.79
11.75
15.92
19.30
21.96
23.95
25.37
26.38
27.11
27.71
28.28
28.85
29.39
29.83
30.09
30.05
29.63
28.70
27.20
25.12
22.51
19.45
16.05
12.37
8.38
4.05
-0.69
-5.87
-11.46
-17.36
-23.31
-28.91
-33.65
-36.96
-38.39
-37.72
-34.93
-30.31
-24.25
-17.23
-9.74
-2.26
4.74
10.84
15.76
19.40
21.84
23.34
24.17
24.61
24.81
24.84
24.69
24.37
23.87
23.19
22.31
21.20
19.81
18.08
15.99
13.56
10.84
7.93
4.95
1.97
-1.00
-4.01
-7.19
-10.70
-14.64
-19.01
-23.60
-28.02
-31.70
-34.07
-34.68
-33.34
-30.10
-25.26
-19.27
-12.58
-5.60
1.32
7.87
13.80
18.91
23.03
26.08
28.09
29.18
29.54
29.35
28.77
27.86
26.65
25.14
23.38
21.50
19.68
18.05
16.61
15.26
13.78
12.03
10.00
7.83
5.71
3.77
1.94
0.04
-2.21
-4.96
-8.26
-12.07
-16.29
-20.74
-25.15
-29.03
-31.74
-32.62
-31.27
-27.69
-22.36
-16.00
-9.30
-2.71
3.61
9.70
15.57
21.09
25.97
29.89
32.61
34.10
34.57
34.35
33.80
33.17
32.56
31.94
31.23
30.41
29.49
28.49
27.38
26.06
24.40
22.31
19.80
16.96
13.85
10.55
7.11
3.59
0.11
-3.25
-6.49
-9.82
-13.57
-18.03
-23.23
-28.86
-34.27
-38.66
-41.30
-41.73
-39.82
-35.78
-30.03
-23.13
-15.68
-8.16
-0.97
5.63
11.44
16.32
20.15
22.89
24.59
25.45
25.75
25.76
25.65
25.48
25.22
24.82
24.28
23.60
22.81
21.87
20.66
19.06
17.04
14.66
12.07
9.45
6.90
4.39
1.81
-1.06
-4.37
-8.26
-12.77
-17.88
-23.41
-29.02
-34.18
-38.26
-40.65
-40.90
-38.89
-34.79
-29.03
-22.15
-14.70
-7.17
0.02
6.55
12.19
16.76
20.25
22.72
24.31
25.15
25.39
25.07
24.23
22.89
21.18
19.24
17.31
15.61
14.21
13.05
11.92
10.53
8.62
6.09
3.06
-0.23
-3.46
-6.40
-8.98
-11.35
-13.77
-16.53
-19.83
-23.75
-28.25
-33.12
-38.01
-42.39
-45.58
-46.96
-46.08
-42.94
-37.91
-31.68
-24.95
-18.25
-11.88
-5.95
-0.59
4.01
7.61
10.09
11.56
12.35
12.89
13.50
14.24
14.96
15.40
15.42
15.12
14.72
14.47
14.37
14.20
13.57
12.17
9.97
7.21
4.36
1.82
-0.24
-1.95
-3.63
-5.70
-8.48
-12.12
-16.56
-21.53
-26.53
-30.92
-33.98
-35.11
-34.03
-30.83
-25.96
-20.05
-13.67
-7.21
-0.86
5.26
10.97
16.05
20.25
23.46
25.77
27.42
28.63
29.55
30.14
30.29
29.99
29.37
28.65
28.05
27.64
27.30
26.76
25.76
24.10
21.75
18.79
15.42
11.81
8.11
4.40
0.71
-3.01
-6.83
-10.79
-14.90
-19.11
-23.29
-27.22
-30.58
-32.97
-33.99
-33.37
-31.05
-27.23
-22.29
-16.63
-10.60
-4.43
1.68
7.49
12.68
16.90
19.93
21.76
22.58
22.75
22.60
22.35
22.06
21.68
21.10
20.27
19.19
17.94
16.65
15.38
14.15
12.83
11.25
9.26
6.83
4.01
1.04
-1.88
-4.58
-7.03
-9.31
-11.64
-14.29
-17.46
-21.25
-25.53
-29.98
-34.13
-37.40
-39.29
-39.46
-37.78
-34.38
-29.57
-23.75
-17.35
-10.75
-4.29
1.77
7.16
11.67
15.08
17.29
18.33
18.39
17.78
16.89
15.98
15.17
14.43
13.59
12.52
11.18
9.62
7.94
6.17
4.29
2.16
-0.28
-3.01
-5.88
-8.64
-11.07
-13.11
-14.88
-16.67
-18.80
-21.48
-24.76
-28.47
-32.22
-35.54
-37.89
-38.81
-38.02
-35.47
-31.33
-26.02
-19.99
-13.70
-7.46
-1.50
4.02
8.96
13.09
16.25
18.34
19.35
19.43
18.80
17.72
16.43
15.09
13.77
12.49
11.21
9.88
8.47
6.92
5.21
3.24
0.96
-1.67
-4.62
-7.77
-11.02
-14.28
-17.64
-21.24
-25.24
-29.66
-34.25
-38.54
-41.95
-43.91
-44.00
-42.08
-38.25
-32.86
-26.36
-19.30
-12.11
-5.19
1.22
6.90
11.69
15.40
17.97
19.44
20.00
19.97
19.64
19.24
18.82
18.36
17.77
17.02
16.14
15.18
14.15
13.02
11.70
10.15
8.35
6.33
4.18
1.90
-0.50
-3.09
-5.97
-9.23
-12.87
-16.73
-20.45
-23.52
-25.33
-25.45
-23.64
-20.02
-14.96
-8.95
-2.46
4.12
10.51
16.50
21.84
26.33
29.75
31.97
33.02
33.11
32.61
31.91
31.29
30.85
30.47
29.97
29.21
28.17
26.94
25.63
24.29
22.86
21.17
19.15
16.79
14.24
11.65
9.18
6.87
4.67
2.54
0.45
-1.56
-3.44
-5.11
-6.54
-7.73
-8.72
-9.60
-10.50
-11.58
-13.06
-15.14
-17.94
-21.40
-25.21
-28.84
-31.59
-32.84
-32.15
-29.45
-25.00
-19.36
-13.13
-6.86
-0.90
4.59
9.54
13.88
17.53
20.35
22.26
23.30
23.62
23.41
22.90
22.19
21.33
20.35
19.28
18.21
17.24
16.37
15.49
14.35
12.71
10.41
7.50
4.18
0.78
-2.42
-5.24
-7.71
-10.02
-12.43
-15.26
-18.69
-22.77
-27.24
-31.61
-35.20
-37.28
-37.33
-35.12
-30.83
-24.96
-18.21
-11.25
-4.60
1.41
6.64
11.03
14.50
17.02
18.57
19.30
19.43
19.20
18.85
18.47
18.03
17.44
16.58
15.42
13.98
12.34
10.52
8.53
6.33
3.94
1.38
-1.25
-3.88
-6.45
-8.98
-11.54
-14.24
-17.20
-20.55
-24.29
-28.29
-32.20
-35.45
-37.42
-37.64
-35.95
-32.57
-27.92
-22.43
-16.44
-10.14
-3.69
2.60
8.29
12.87
16.00
17.65
18.07
17.72
17.03
16.30
15.66
15.11
14.62
14.16
13.65
12.98
12.01
10.61
8.72
6.37
3.70
0.86
-2.04
-4.92
-7.77
-10.66
-13.70
-17.08
-20.99
-25.56
-30.71
-36.04
-40.90
-44.50
-46.18
-45.60
-42.84
-38.27
-32.43
-25.83
-18.91
-12.04
-5.58
0.11
4.72
8.10
10.30
11.59
12.33
12.91
13.59
14.49
15.62
16.86
18.06
19.10
19.82
20.12
19.86
18.97
17.44
15.33
12.84
10.18
7.54
5.02
2.59
0.10
-2.68
-5.94
-9.81
-14.24
-18.98
-23.54
-27.27
-29.52
-29.74
-27.67
-23.41
-17.38
-10.15
-2.38
5.34
12.52
18.79
23.93
27.83
30.52
32.13
32.85
32.88
32.41
31.57
30.46
29.15
27.72
26.24
24.77
23.35
21.96
20.51
18.86
16.85
14.43
11.65
8.64
5.56
2.51
-0.52
-3.57
-6.69
-9.91
-13.25
-16.76
-20.50
-24.43
-28.28
-31.53
-33.56
-33.80
-32.01
-28.36
-23.34
-17.54
-11.45
-5.31
0.83
6.94
12.86
18.25
22.70
25.89
27.74
28.44
28.37
27.91
27.27
26.50
25.49
24.20
22.65
20.95
19.24
17.54
15.73
13.64
11.15
8.25
5.12
1.98
-0.96
-3.64
-6.14
-8.69
-11.61
-15.17
-19.56
-24.65
-29.99
-34.80
-38.14
-39.22
-37.65
-33.58
-27.62
-20.58
-13.16
-5.86
1.06
7.43
13.01
17.54
20.82
22.81
23.68
23.73
23.23
22.38
21.29
20.02
18.65
17.29
16.02
14.80
13.51
11.93
9.95
7.53
4.75
1.81
-1.16
-4.11
-7.08
-10.20
-13.60
-17.38
-21.61
-26.19
-30.88
-35.26
-38.75
-40.76
-40.84
-38.81
-34.81
-29.24
-22.59
-15.34
-7.87
-0.50
6.49
12.82
18.23
22.54
25.67
27.65
28.61
28.75
28.30
27.45
26.37
25.17
23.90
22.62
21.33
20.05
18.72
17.29
15.61
13.59
11.12
8.19
4.89
1.35
-2.27
-5.86
-9.38
-12.97
-16.80
-21.04
-25.65
-30.31
-34.46
-37.35
-38.33
-37.03
-33.46
-27.99
-21.22
-13.82
-6.36
0.72
7.14
12.69
17.26
20.81
23.37
25.05
26.03
26.44
26.48
26.27
25.92
25.48
24.96
24.31
23.47
22.34
20.88
19.09
17.00
14.65
12.03
9.15
6.05
2.81
-0.45
-3.61
-6.68
-9.78
-13.16
-17.05
-21.53
-26.43
-31.30
-35.45
-38.17
-38.89
-37.36
-33.69
-28.35
-21.95
-15.11
-8.23
-1.59
4.70
10.49
15.55
19.59
22.42
24.05
24.71
24.80
24.64
24.40
24.02
23.38
22.37
21.04
19.60
18.21
16.92
15.60
14.00
11.88
9.20
6.11
2.90
-0.16
-2.97
-5.57
-8.20
-11.09
-14.42
-18.26
-22.52
-26.97
-31.20
-34.68
-36.83
-37.16
-35.42
-31.70
-26.35
-19.93
-12.99
-6.03
0.54
6.41
11.32
15.17
17.93
19.75
20.80
21.30
21.41
21.21
20.74
20.04
19.14
18.11
17.01
15.89
14.75
13.57
12.26
10.72
8.84
6.58
3.90
0.88
-2.31
-5.52
-8.60
-11.55
-14.48
-17.70
-21.56
-26.32
-31.93
-37.97
-43.66
-48.01
-50.20
-49.73
-46.65
-41.44
-34.82
-27.53
-20.08
-12.72
-5.59
1.19
7.39
12.71
16.92
19.96
21.99
23.31
24.22
24.92
25.43
25.69
25.66
25.39
24.98
24.48
23.87
22.99
21.62
19.61
16.98
13.86
10.54
7.30
4.29
1.53
-1.13
-3.95
-7.20
-11.01
-15.30
-19.84
-24.25
-28.16
-31.21
-33.13
-33.68
-32.68
-29.95
-25.49
-19.38
-11.93
-3.57
5.18
13.76
21.65
28.37
33.60
37.27
39.53
40.75
41.34
41.56
41.48
40.94
39.79
37.99
35.67
33.07
30.40
27.74
24.92
21.71
17.87
13.34
8.20
2.73
-2.81
-8.16
-13.19
-17.89
-22.34
-26.65
-30.93
-35.24
-39.56
-43.83
-47.85
-51.34
-53.84
-54.83
-53.79
-50.36
-44.52
-36.65
-27.44
-17.70
-8.17
0.71
8.79
16.07
22.57
28.17
32.61
35.65
37.27
37.70
37.44
37.06
36.97
37.32
37.98
38.68
39.16
39.26
39.03
38.56
37.93
37.18
36.29
35.24
34.07
32.79
31.33
29.44
26.71
22.67
17.03
9.93
2.04
-5.60
-11.82
-15.73
-16.98
-15.75
-12.63
-8.34
-3.45
1.70
6.89
12.01
16.84
21.10
24.49
26.79
27.95
28.13
27.64
26.83
25.97
25.20
24.45
23.56
22.31
20.57
18.31
15.60
12.56
9.27
5.79
2.12
-1.78
-5.91
-10.26
-14.84
-19.75
-25.15
-31.27
-38.23
-45.84
-53.48
-60.19
-64.88
-66.75
-65.59
-61.84
-56.40
-50.27
-44.21
-38.56
-33.37
-28.60
-24.29
-20.60
-17.69
-15.64
-14.29
-13.35
-12.55
-11.75
-11.02
-10.57
-10.56
-11.00
-11.73
-12.54
-13.24
-13.85
-14.54
-15.57
-17.17
-19.45
-22.36
-25.74
-29.38
-33.14
-36.98
-41.00
-45.28
-49.75
-54.08
-57.58
-59.42
-58.92
-55.81
-50.40
-43.40
-35.72
-28.12
-21.07
-14.75
-9.18
-4.39
-0.43
2.57
4.57
5.63
5.98
5.91
5.76
5.77
6.03
6.45
6.81
6.86
6.43
5.48
4.11
2.49
0.79
-0.88
-2.51
-4.14
-5.84
-7.68
-9.66
-11.84
-14.30
-17.23
-20.74
-24.80
-29.09
-32.95
-35.58
-36.29
-34.80
-31.23
-26.12
-20.10
-13.64
-6.96
-0.09
6.92
13.80
20.10
25.23
28.79
30.69
31.22
30.90
30.22
29.53
28.88
28.08
26.86
24.98
22.31
18.92
14.99
10.76
6.48
2.37
-1.41
-4.85
-8.00
-11.12
-14.49
-18.42
-23.08
-28.41
-34.05
-39.39
-43.70
-46.39
-47.20
-46.27
-44.01
-40.90
-37.26
-33.25
-28.90
-24.35
-19.84
-15.69
-12.12
-9.14
-6.54
-4.02
-1.38
1.46
4.55
7.97
11.97
16.84
22.72
29.46
36.65
43.71
50.09
55.33
59.11
61.22
61.63
60.56
58.51
56.15
54.19
53.15
53.24
54.31
55.97
57.63
58.66
58.42
56.36
52.27
46.37
39.45
32.67
27.25
23.99
23.04
23.87
25.50
26.90
27.34
26.53
24.60
21.88
18.71
15.35
11.88
8.42
5.09
2.03
-0.62
-2.86
-4.83
-6.72
-8.73
-10.93
-13.27
-15.62
-17.87
-19.87
-21.54
-22.71
-23.18
-22.81
-21.60
-19.84
-18.11
-17.16
-17.64
-19.86
-23.66
-28.32
-32.78
-35.96
-37.06
-35.79
-32.42
-27.57
-21.96
-16.19
-10.62
-5.45
-0.86
2.95
5.80
7.60
8.50
8.89
9.21
9.82
10.78
11.90
12.78
13.07
12.64
11.67
10.52
9.57
9.02
8.72
8.31
7.36
5.61
3.14
0.24
-2.71
-5.54
-8.29
-11.15
-14.21
-17.46
-20.74
-23.93
-27.01
-30.00
-32.78
-34.93
-35.78
-34.71
-31.46
-26.38
-20.22
-13.82
-7.74
-2.08
3.30
8.49
13.38
17.56
20.67
22.54
23.32
23.35
22.94
22.25
21.21
19.75
17.86
15.77
13.82
12.33
11.45
11.03
10.68
9.94
8.41
5.92
2.66
-0.96
-4.40
-7.28
-9.45
-11.11
-12.69
-14.65
-17.29
-20.54
-23.94
-26.78
-28.25
-27.68
-24.65
-19.03
-10.89
-0.55
11.46
24.34
37.06
48.52
57.78
64.23
67.83
68.91
68.10
65.99
63.01
59.35
55.03
50.00
44.28
38.04
31.63
25.59
20.43
16.55
14.04
12.71
12.19
12.13
12.28
12.49
12.57
12.18
10.79
7.81
2.81
-4.30
-13.21
-23.23
-33.43
-42.81
-50.48
-55.78
-58.41
-58.45
-56.32
-52.56
-47.67
-41.96
-35.58
-28.67
-21.50
-14.50
-8.20
-2.93
1.20
4.36
6.83
8.82
10.35
11.37
11.83
11.84
11.67
11.68
12.14
13.10
14.36
15.54
16.20
16.00
14.83
12.83
10.37
7.86
5.55
3.51
1.52
-0.67
-3.33
-6.64
-10.71
-15.60
-21.32
-27.69
-34.24
-40.15
-44.49
-46.46
-45.76
-42.64
-37.81
-32.12
-26.22
-20.40
-14.64
-8.80
-2.79
3.27
9.21
14.81
19.89
24.32
27.94
30.58
32.12
32.51
31.88
30.49
28.67
26.69
24.73
22.85
20.98
18.95
16.60
13.77
10.42
6.60
2.48
-1.78
-6.08
-10.47
-15.14
-20.28
-26.00
-32.19
-38.42
-44.04
-48.28
-50.45
-50.17
-47.45
-42.71
-36.56
-29.67
-22.46
-15.19
-7.95
-0.86
5.82
11.73
16.52
19.97
22.16
23.46
24.35
25.24
26.31
27.41
28.20
28.30
27.51
25.88
23.68
21.20
18.59
15.84
12.74
9.15
4.99
0.32
-4.72
-10.00
-15.38
-20.74
-25.91
-30.64
-34.71
-38.05
-40.66
-42.62
-43.89
-44.19
-43.02
-39.90
-34.62
-27.44
-19.02
-10.16
-1.48
6.75
14.51
21.89
28.80
34.94
39.90
43.38
45.36
46.13
46.08
45.60
44.88
43.91
42.56
40.71
38.35
35.61
32.70
29.89
27.35
25.11
23.12
21.17
19.06
16.59
13.64
10.16
6.24
1.96
-2.56
-7.30
-12.32
-17.72
-23.58
-29.80
-36.05
-41.73
-46.06
-48.32
-48.02
-45.15
-40.08
-33.47
-26.01
-18.16
-10.23
-2.39
5.13
11.99
17.76
22.18
25.25
27.26
28.68
29.92
31.13
32.27
33.13
33.51
33.30
32.44
30.94
28.86
26.27
23.35
20.26
17.12
13.96
10.73
7.32
3.61
-0.37
-4.56
-8.87
-13.26
-17.80
-22.63
-27.75
-32.93
-37.75
-41.68
-44.32
-45.53
-45.44
-44.33
-42.39
-39.66
-36.03
-31.40
-25.82
-19.60
-13.17
-6.98
-1.28
3.81
8.29
12.13
15.21
17.44
18.75
19.29
19.36
19.31
19.39
19.61
19.83
19.84
19.56
19.06
18.52
18.02
17.51
16.72
15.36
13.22
10.26
6.61
2.49
-1.82
-5.94
-9.41
-11.66
-12.21
-10.83
-7.63
-3.11
2.13
7.52
12.70
17.56
22.12
26.36
30.14
33.23
35.41
36.57
36.83
36.44
35.72
34.97
34.34
33.74
32.85
31.18
28.26
23.81
17.89
10.87
3.29
-4.29
-11.52
-18.26
-24.52
-30.39
-35.89
-40.91
-45.33
-49.10
-52.42
-55.73
-59.64
-64.65
-70.91
-78.09
-85.48
-92.24
-97.52
-100.52
-100.27
-95.66
-85.75
-70.27
-50.27
-27.99
-6.33
12.25
26.58
37.05
44.99
51.71
57.71
62.63
65.66
66.26
64.55
61.13
56.66
51.48
45.49
38.53
30.74
22.80
15.77
10.72
8.18
7.92
9.06
10.39
10.80
9.65
6.82
2.67
-2.23
-7.27
-11.95
-15.79
-18.39
-19.36
-18.41
-15.46
-10.70
-4.62
2.15
8.88
15.04
20.27
24.45
27.64
29.97
31.60
32.73
33.52
34.09
34.44
34.54
34.32
33.91
33.58
33.75
34.76
36.65
39.00
40.99
41.74
40.83
38.64
36.37
35.69
38.14
44.53
54.75
67.63
81.28
93.26
101.03
102.41
96.07
82.04
61.78
37.75
12.84
-10.33
-29.62
-43.39
-50.21
-49.02
-39.45
-22.39
-0.18
23.65
45.07
60.70
68.63
68.93
63.23
54.03
43.48
32.60
21.09
7.56
-10.11
-34.50
-68.05
-112.14
-165.75
-224.34
-279.88
-322.64
-344.05
-339.63
-310.41
-262.44
-204.44
-145.13
-91.29
-47.31
-15.28
4.40
12.92
12.93
8.17
2.56
-0.82
-0.39
3.87
10.91
19.13
27.00
33.46
38.08
41.03
42.94
44.48
46.05
47.57
48.57
48.45
46.87
43.93
40.12
36.13
32.57
29.67
27.34
25.17
22.74
19.74
16.10
11.93
7.41
2.71
-2.12
-7.10
-12.29
-17.69
-23.25
-28.89
-34.60
-40.46
-46.53
-52.75
-58.74
-63.79
-67.03
-67.77
-65.75
-61.31
-55.33
-48.81
-42.60
-37.12
-32.39
-28.28
-24.77
-22.03
-20.39
-20.14
-21.35
-23.86
-27.32
-31.26
-35.31
-39.12
-42.50
-45.40
-47.99
-50.65
-53.83
-57.83
-62.51
-67.15
-70.59
-71.53
-69.06
-62.99
-53.98
-43.36
-32.80
-23.93
-18.06
-15.79
-16.91
-20.30
-24.24
-26.85
-26.61
-22.73
-15.15
-4.31
9.13
24.51
41.08
57.82
73.45
86.54
95.87
100.78
101.22
97.79
91.54
83.90
76.42
70.44
66.68
64.89
63.96
62.34
58.93
53.70
47.90
43.53
42.33
44.84
50.07
55.93
60.16
61.27
59.02
54.25
48.35
42.66
37.89
34.17
31.11
28.20
25.14
22.07
19.69
18.95
20.72
25.38
32.53
41.14
49.93
57.94
64.76
70.54
75.59
79.94
83.13
84.40
82.99
78.52
71.17
61.54
50.48
38.86
27.41
16.78
7.59
0.38
-4.46
-6.80
-6.97
-5.66
-3.85
-2.56
-2.58
-4.27
-7.41
-11.36
-15.29
-18.54
-20.86
-22.62
-24.53
-27.34
-31.40
-36.35
-41.16
-44.46
-44.97
-41.98
-35.50
-26.26
-15.40
-4.17
6.34
15.37
22.45
27.34
30.08
30.93
30.42
29.25
28.15
27.58
27.69
28.20
28.58
28.33
27.10
24.82
21.66
17.90
13.85
9.80
5.94
2.40
-0.84
-3.90
-6.93
-10.12
-13.60
-17.46
-21.80
-26.63
-31.77
-36.75
-40.82
-43.07
-42.77
-39.64
-33.96
-26.55
-18.41
-10.45
-3.30
2.75
7.64
11.38
14.00
15.55
16.09
15.76
14.74
13.25
11.50
9.68
8.01
6.59
5.49
4.68
4.00
3.27
2.29
0.93
-0.86
-3.08
-5.68
-8.63
-11.86
-15.28
-18.82
-22.45
-26.21
-30.17
-34.30
-38.41
-41.99
-44.36
-44.84
-43.01
-38.86
-32.82
-25.57
-17.82
-10.11
-2.78
3.96
9.93
14.95
18.83
21.47
22.97
23.56
23.64
23.58
23.59
23.72
23.79
23.55
22.76
21.25
19.02
16.13
12.70
8.84
4.63
0.20
-4.33
-8.73
-12.84
-16.51
-19.75
-22.73
-25.70
-28.84
-32.12
-35.21
-37.41
-37.95
-36.15
-31.77
-25.08
-16.81
-7.91
0.69
8.31
14.59
19.40
22.77
24.78
25.57
25.36
24.45
23.23
22.05
21.15
20.55
20.13
19.63
18.80
17.49
15.68
13.42
10.79
7.83
4.52
0.81
-3.31
-7.77
-12.42
-17.08
-21.63
-26.06
-30.51
-35.19
-40.25
-45.53
-50.58
-54.67
-57.04
-57.10
-54.64
-49.80
-42.96
-34.57
-25.04
-14.82
-4.38
5.62
14.49
21.59
26.52
29.25
30.10
29.57
28.19
26.39
24.45
22.54
20.77
19.19
17.73
16.26
14.58
12.57
10.21
7.63
5.06
2.66
0.51
-1.48
-3.58
-6.15
-9.58
-14.18
-19.95
-26.47
-32.86
-38.01
-40.87
-40.86
-38.02
-32.99
-26.71
-20.04
-13.52
-7.32
-1.38
4.45
10.21
15.80
21.05
25.74
29.69
32.84
35.24
37.10
38.69
40.29
41.98
43.65
44.94
45.32
44.16
40.95
35.41
27.63
18.10
7.64
-2.82
-12.53
-21.08
-28.52
-35.17
-41.43
-47.44
-52.95
-57.35
-59.89
-59.97
-57.24
-51.73
-43.77
-33.91
-22.82
-11.25
0.02
10.28
18.96
25.74
30.65
34.03
36.48
38.61
40.87
43.35
45.69
47.20
47.12
44.96
40.77
35.20
29.27
23.95
19.81
16.87
14.73
12.82
10.71
8.26
5.58
2.88
0.34
-2.02
-4.28
-6.57
-8.90
-11.12
-12.81
-13.38
-12.21
-8.84
-3.14
4.62
13.83
23.78
33.75
43.15
51.45
58.21
63.06
65.81
66.49
65.35
62.69
58.67
53.12
45.56
35.46
22.58
7.38
-8.96
-24.72
-38.12
-47.93
-53.79
-56.36
-57.08
-57.67
-59.63
-63.78
-69.99
-77.21
-83.79
-88.12
-89.33
-87.90
-85.60
-85.07
-88.73
-97.82
-111.77
-128.44
-144.78
-157.75
-164.99
-164.98
-156.99
-141.07
-118.16
-90.26
-60.36
-31.92
-7.94
9.81
21.16
27.36
30.59
33.28
37.37
43.84
52.25
60.84
66.98
68.25
63.52
53.66
41.29
29.74
21.72
18.39
19.18
22.35
25.84
27.92
27.48
24.21
18.60
12.05
6.70
5.03
9.06
19.77
36.57
57.38
79.20
98.83
113.55
121.67
122.84
118.10
109.65
100.24
92.34
87.33
85.21
84.86
84.94
84.71
84.51
85.46
88.67
94.36
101.41
107.59
110.22
107.21
97.66
82.12
62.19
40.03
17.75
-3.07
-21.58
-37.58
-51.07
-61.88
-69.47
-73.31
-73.19
-69.58
-63.48
-55.97
-47.77
-38.77
-28.12
-15.07
0.10
15.73
29.15
37.74
40.15
36.43
28.40
18.98
10.89
5.51
2.51
0.63
-1.45
-4.08
-7.73
-12.10
-16.46
-20.24
-23.75
-28.09
-34.25
-42.83
-53.44
-66.82
-83.19
-101.79
-121.01
-139.26
-155.53
-169.08
-179.94
-188.21
-196.37
-206.27
-218.11
-230.26
-240.94
-249.22
-254.56
-257.05
-242.11
-202.47
-142.08
-74.26
-12.01
37.60
71.68
94.95
110.80
121.44
126.23
125.02
118.19
108.88
100.89
97.15
99.31
106.95
118.79
131.46
142.07
149.25
153.37
155.14
154.92
153.05
149.38
144.25
137.30
128.45
118.13
107.04
95.37
82.58
68.01
51.21
32.72
13.53
-4.74
-20.25
-31.31
-37.24
-38.48
-36.22
-32.12
-27.54
-23.56
-20.78
-19.37
-19.16
-19.93
-21.47
-23.49
-25.70
-27.71
-29.19
-29.96
-29.99
-29.37
-28.23
-26.72
-24.97
-23.11
-21.27
-19.58
-18.14
-17.09
-16.54
-16.54
-17.01
-17.73
-18.41
-18.76
-18.74
-18.56
-18.68
-19.56
-21.45
-24.14
-27.09
-29.52
-30.76
-30.45
-28.53
-25.19
-20.66
-15.18
-8.96
-2.27
4.45
10.62
15.62
18.99
20.56
20.53
19.37
17.64
15.79
14.04
12.41
10.82
9.23
7.70
6.35
5.26
4.37
3.47
2.31
0.67
-1.48
-4.09
-6.98
-10.02
-13.13
-16.29
-19.53
-22.86
-26.29
-29.78
-33.23
-36.45
-39.14
-40.93
-41.40
-40.21
-37.17
-32.26
-25.63
-17.61
-8.64
0.70
9.80
18.02
24.85
29.94
33.21
34.78
34.93
34.01
32.38
30.39
28.34
26.43
24.72
23.15
21.54
19.71
17.55
15.06
12.30
9.33
6.21
2.89
-0.68
-4.45
-8.31
-12.08
-15.54
-18.62
-21.40
-24.12
-27.11
-30.56
-34.42
-38.28
-41.37
-42.84
-41.97
-38.46
-32.54
-24.87
-16.29
-7.54
0.87
8.70
15.83
22.12
27.31
31.15
33.49
34.42
34.28
33.49
32.43
31.32
30.16
28.85
27.27
25.41
23.37
21.29
19.26
17.27
15.17
12.77
9.93
6.63
3.02
-0.68
-4.30
-7.80
-11.38
-15.37
-19.97
-25.18
-30.57
-35.40
-38.80
-40.03
-38.67
-34.81
-28.89
-21.60
-13.68
-5.73
1.80
8.64
14.58
19.48
23.22
25.69
26.93
27.07
26.38
25.23
23.90
22.58
21.26
19.87
18.30
16.52
14.54
12.39
10.05
7.38
4.27
0.69
-3.24
-7.26
-11.05
-14.44
-17.47
-20.41
-23.63
-27.34
-31.49
-35.62
-39.03
-40.93
-40.74
-38.21
-33.49
-27.02
-19.30
-10.86
-2.16
6.31
14.04
20.60
25.65
29.12
31.18
32.14
32.36
32.06
31.36
30.29
28.88
27.22
25.43
23.56
21.61
19.50
17.18
14.60
11.74
8.59
5.11
1.26
-2.88
-7.16
-11.38
-15.42
-19.32
-23.34
-27.83
-33.01
-38.77
-44.59
-49.65
-53.01
-53.95
-52.12
-47.67
-41.24
-33.75
-26.24
-19.61
-14.38
-10.60
-7.93
-5.82
-3.89
-2.19
-1.27
-2.04
-5.27
-11.14
-18.93
-27.09
-33.64
-36.88
-35.91
-30.98
-23.39
-15.13
-8.36
-4.92
-5.85
-11.09
-19.46
-28.89
-37.16
-42.68
-45.27
-46.21
-47.70
-51.75
-59.01
-68.26
-76.73
-81.14
-79.04
-69.68
-54.08
-34.34
-12.65
9.42
30.98
51.41
69.76
84.73
95.01
100.24
101.62
101.80
103.92
110.29
121.27
135.13
148.84
159.28
164.42
163.76
158.16
149.27
138.81
128.11
117.80
107.70
96.92
84.21
68.52
49.57
28.07
5.66
-15.77
-34.62
-49.97
-61.52
-69.22
-72.92
-72.35
-67.32
-58.15
-45.84
-31.97
-18.29
-6.15
3.84
11.83
18.43
24.22
29.38
33.57
36.12
36.46
34.52
30.84
26.44
22.42
19.50
17.81
16.90
16.10
14.85
12.91
10.48
7.89
5.43
3.16
0.87
-1.71
-4.82
-8.57
-12.92
-17.77
-22.93
-28.03
-32.53
-35.64
-36.60
-34.88
-30.46
-23.90
-16.12
-8.14
-0.75
5.62
10.82
14.86
17.68
19.12
19.06
17.47
14.62
10.96
7.08
3.45
0.32
-2.34
-4.70
-6.98
-9.34
-11.77
-14.19
-16.50
-18.70
-20.84
-23.03
-25.41
-28.10
-31.24
-34.96
-39.38
-44.42
-49.82
-55.04
-59.34
-61.97
-62.38
-60.30
-55.83
-49.41
-41.65
-33.26
-24.93
-17.21
-10.52
-5.13
-1.15
1.42
2.67
2.78
2.12
1.13
0.33
0.07
0.43
1.14
1.67
1.53
0.45
-1.49
-3.91
-6.39
-8.62
-10.49
-12.09
-13.59
-15.18
-17.02
-19.23
-21.91
-25.03
-28.37
-31.48
-33.83
-34.91
-34.42
-32.25
-28.44
-23.10
-16.39
-8.53
0.07
8.79
16.90
23.78
29.04
32.76
35.39
37.65
40.27
43.71
48.14
53.33
58.80
63.94
68.25
71.38
73.29
74.20
74.45
74.38
74.18
73.83
73.11
71.81
69.74
66.91
63.43
59.42
54.91
49.73
43.78
37.17
30.38
24.28
19.90
18.10
19.30
23.32
29.49
36.80
44.10
50.30
54.52
56.16
54.96
50.97
44.48
35.78
25.12
12.57
-1.71
-17.34
-33.51
-49.17
-63.26
-75.06
-84.49
-92.03
-98.50
-104.74
-111.40
-118.76
-126.74
-134.85
-142.28
-148.14
-151.66
-152.59
-151.42
-149.26
-147.44
-146.89
-147.69
-148.89
-148.93
-146.30
-140.35
-131.57
-121.37
-111.29
-102.22
-93.93
-85.13
-74.03
-59.06
-39.36
-15.03
13.05
43.46
74.41
103.84
129.47
148.99
160.54
163.22
157.62
145.83
131.02
116.42
104.40
95.65
89.15
82.91
74.98
64.44
51.82
38.73
27.00
17.89
11.60
7.35
3.97
0.41
-3.87
-8.88
-14.38
-20.16
-26.15
-32.39
-38.69
-44.60
-49.32
-52.01
-52.07
-49.42
-44.48
-38.04
-30.91
-23.75
-16.85
-10.24
-3.83
2.41
8.30
13.55
17.82
20.89
22.79
23.71
23.95
23.74
23.17
22.19
20.75
18.89
16.75
14.53
12.40
10.37
8.35
6.19
3.80
1.24
-1.33
-3.75
-5.96
-8.10
-10.39
-13.09
-16.37
-20.31
-24.99
-30.49
-36.81
-43.71
-50.55
-56.32
-59.84
-60.09
-56.60
-49.56
-39.72
-28.14
-15.81
-3.47
8.36
19.33
29.04
37.10
43.16
47.10
49.10
49.64
49.25
48.32
46.98
45.11
42.61
39.53
36.14
32.79
29.71
26.81
23.76
20.13
15.65
10.27
4.15
-2.44
-9.11
-15.42
-20.90
-25.29
-28.73
-31.93
-35.93
-41.62
-49.16
-57.71
-65.68
-71.37
-73.60
-71.97
-66.77
-58.57
-47.95
-35.57
-22.20
-8.85
3.44
13.97
22.56
29.53
35.47
40.76
45.48
49.44
52.30
53.86
53.97
52.56
49.58
45.12
39.53
33.40
27.47
22.37
18.40
15.51
13.39
11.68
10.17
8.80
7.56
6.38
5.08
3.39
1.15
-1.68
-4.97
-8.60
-12.52
-16.78
-21.36
-26.00
-30.11
-32.92
-33.69
-32.02
-27.95
-21.89
-14.42
-6.06
2.69
11.34
19.28
25.84
30.41
32.74
33.06
32.01
30.41
28.92
27.81
26.96
26.02
24.68
22.85
20.72
18.64
16.91
15.67
14.77
13.89
12.64
10.69
7.91
4.33
0.16
-4.32
-8.86
-13.28
-17.58
-21.87
-26.34
-31.13
-36.29
-41.62
-46.74
-51.09
-54.08
-55.18
-53.99
-50.37
-44.40
-36.42
-26.99
-16.81
-6.66
2.84
11.20
18.21
23.81
28.09
31.13
33.03
33.89
33.79
32.90
31.42
29.56
27.46
25.22
22.79
20.11
17.14
13.94
10.76
7.87
5.57
4.05
3.33
3.30
3.78
4.57
5.48
6.33
6.90
6.93
6.21
4.71
2.71
0.92
0.33
1.85
5.90
12.00
18.89
25.03
29.29
31.45
32.25
32.83
34.02
35.84
37.56
38.24
37.39
35.27
32.74
30.76
29.82
29.79
30.05
29.87
28.75
26.54
23.41
19.65
15.53
11.13
6.45
1.37
-4.06
-9.65
-15.02
-19.72
-23.57
-26.72
-29.73
-33.35
-38.18
-44.44
-51.77
-59.35
-66.06
-70.86
-73.00
-72.14
-68.22
-61.44
-52.13
-40.79
-28.16
-15.26
-3.23
6.91
14.46
19.27
21.68
22.45
22.60
23.40
26.20
32.24
42.27
56.12
72.56
89.56
104.86
116.67
124.05
126.93
125.75
120.92
112.65
101.05
86.48
69.81
52.34
35.39
19.86
5.95
-6.78
-19.04
-31.29
-43.41
-54.64
-63.76
-69.58
-71.39
-69.19
-63.70
-56.11
-47.67
-39.31
-31.56
-24.51
-18.09
-12.34
-7.44
-3.66
-1.05
0.60
1.80
3.03
4.59
6.36
7.92
8.80
8.68
7.58
5.80
3.78
1.89
0.28
-1.14
-2.64
-4.49
-6.87
-9.77
-13.10
-16.66
-20.31
-23.98
-27.72
-31.70
-36.26
-41.84
-48.80
-57.17
-66.43
-75.48
-82.82
-87.03
-87.26
-83.51
-76.52
-67.49
-57.56
-47.61
-38.17
-29.57
-22.03
-15.67
-10.48
-6.27
-2.74
0.22
2.43
3.37
2.45
-0.53
-5.12
-10.14
-14.15
-15.98
-15.33
-12.87
-10.04
-8.31
-8.69
-11.33
-15.73
-21.13
-26.83
-32.25
-36.76
-39.58
-40.03
-38.07
-34.67
-31.75
-31.35
-34.58
-40.97
-48.52
-54.62
-57.21
-55.55
-50.25
-42.65
-34.05
-25.24
-16.59
-8.38
-1.11
4.51
7.86
8.76
7.64
5.35
2.87
0.85
-0.55
-1.65
-2.94
-4.75
-7.03
-9.35
-11.11
-11.88
-11.58
-10.57
-9.49
-9.01
-9.58
-11.19
-13.39
-15.35
-16.13
-15.03
-11.82
-6.93
-1.25
4.16
8.51
11.57
13.72
15.80
18.74
23.28
29.77
38.13
47.92
58.51
69.14
79.05
87.60
94.31
98.93
101.43
101.92
100.63
97.86
93.97
89.38
84.51
79.65
74.87
70.04
64.92
59.37
53.46
47.51
41.98
37.23
33.31
29.97
26.70
23.06
18.81
14.04
9.07
4.30
0.02
-3.75
-7.19
-10.70
-14.72
-19.62
-25.54
-32.21
-38.79
-43.97
-46.17
-44.13
-37.41
-26.79
-14.11
-1.69
8.44
15.19
18.67
19.94
20.39
21.13
22.56
24.34
25.64
25.62
23.88
20.73
17.12
14.34
13.46
14.90
18.22
22.41
26.31
29.04
30.28
30.14
28.99
27.32
25.68
24.63
24.63
25.64
26.89
26.74
23.26
14.96
1.76
-14.73
-31.45
-44.75
-51.53
-50.01
-40.17
-23.50
-2.59
19.56
40.10
56.83
68.47
74.72
76.21
74.17
70.16
65.57
61.38
57.88
54.76
51.29
46.73
40.68
33.24
25.07
17.02
9.88
4.11
-0.24
-3.48
-6.11
-8.66
-11.51
-14.86
-18.72
-23.01
-27.59
-32.37
-37.26
-42.15
-46.82
-51.09
-54.86
-58.30
-61.76
-65.65
-70.17
-75.05
-79.59
-82.84
-83.94
-82.45
-78.46
-72.48
-65.15
-57.05
-48.57
-39.96
-31.42
-23.24
-15.73
-9.20
-3.87
0.12
2.72
4.06
4.44
4.30
4.13
4.29
4.81
5.46
5.77
5.40
4.26
2.55
0.61
-1.26
-2.98
-4.60
-6.23
-7.87
-9.52
-11.26
-13.31
-16.08
-19.96
-25.14
-31.40
-38.10
-44.27
-48.88
-50.99
-50.08
-46.10
-39.53
-31.26
-22.36
-13.86
-6.46
-0.46
4.21
7.84
10.86
13.65
16.56
19.76
23.31
27.03
30.54
33.36
35.06
35.41
34.46
32.47
29.76
26.56
22.87
18.67
13.93
8.75
3.45
-1.62
-6.18
-10.10
-13.51
-16.64
-19.83
-23.41
-27.61
-32.46
-37.65
-42.50
-46.05
-47.34
-45.86
-41.78
-35.93
-29.44
-23.19
-17.53
-12.28
-7.18
-2.23
2.12
5.20
6.51
6.08
4.45
2.40
0.59
-0.54
-0.78
-0.02
1.81
4.68
8.30
12.14
15.62
18.31
20.03
20.78
20.52
19.12
16.47
12.76
8.73
5.46
4.05
5.14
8.72
14.11
20.33
26.32
31.16
34.15
34.86
33.26
29.85
25.62
21.88
19.83
20.24
23.30
28.62
35.57
43.41
51.37
58.68
64.51
68.15
69.15
67.61
64.18
59.91
55.81
52.51
50.01
47.73
44.87
40.72
35.02
28.00
20.23
12.46
5.39
-0.49
-4.95
-8.13
-10.53
-12.86
-15.79
-19.71
-24.55
-29.84
-34.98
-39.48
-43.18
-46.18
-48.64
-50.66
-52.10
-52.71
-52.20
-50.38
-47.19
-42.68
-37.04
-30.61
-23.85
-17.25
-11.27
-6.22
-2.24
0.60
2.30
2.94
2.67
1.76
0.53
-0.74
-1.88
-2.89
-3.83
-4.75
-5.63
-6.40
-7.03
-7.56
-8.17
-9.02
-10.28
-11.96
-14.03
-16.38
-18.96
-21.77
-24.87
-28.34
-32.19
-36.29
-40.30
-43.64
-45.66
-45.80
-43.77
-39.73
-34.17
-27.80
-21.30
-15.08
-9.33
-4.04
0.90
5.53
9.87
13.89
17.52
20.64
23.12
24.81
25.70
26.00
26.03
26.14
26.45
26.75
26.57
25.42
23.06
19.62
15.50
11.18
7.03
3.19
-0.35
-3.69
-6.91
-10.09
-13.34
-16.77
-20.45
-24.28
-27.94
-30.84
-32.31
-31.74
-28.83
-23.68
-16.86
-9.14
-1.33
5.92
12.21
17.36
21.26
23.88
25.21
25.32
24.44
22.92
21.10
19.30
17.68
16.27
15.01
13.83
12.67
11.53
10.43
9.38
8.36
7.33
6.21
4.98
3.70
2.53
1.61
0.99
0.48
-0.25
-1.56
-3.69
-6.64
-10.19
-13.92
-17.35
-19.90
-21.08
-20.44
-17.78
-13.19
-7.11
-0.18
6.87
13.42
19.06
23.56
26.81
28.70
29.21
28.38
26.45
23.78
20.72
17.54
14.30
10.92
7.24
3.27
-0.88
-4.95
-8.71
-12.02
-14.90
-17.50
-19.96
-22.38
-24.77
-27.12
-29.42
-31.66
-33.84
-35.95
-37.98
-39.86
-41.54
-42.84
-43.45
-42.87
-40.54
-36.04
-29.28
-20.59
-10.73
-0.60
8.95
17.41
24.60
30.63
35.65
39.80
43.10
45.46
46.76
46.93
45.89
43.63
40.15
35.47
29.74
23.19
16.24
9.41
3.19
-2.14
-6.56
-10.35
-13.94
-17.77
-22.10
-26.94
-32.14
-37.50
-42.91
-48.38
-54.00
-59.78
-65.50
-70.70
-74.73
-76.93
-76.84
-74.35
-69.79
-63.88
-57.48
-51.43
-46.29
-42.23
-39.02
-36.08
-32.47
-27.10
-19.00
-7.83
5.62
19.36
30.59
36.68
36.29
29.96
19.90
9.13
0.13
-5.92
-9.25
-10.80
-11.52
-11.78
-11.54
-10.67
-9.19
-7.27
-4.94
-1.99
1.87
6.61
11.56
15.57
17.42
16.63
13.77
10.35
8.18
8.60
11.96
17.65
24.47
31.15
36.80
40.97
43.62
44.90
44.98
44.02
42.18
39.69
36.82
33.82
30.86
27.93
24.96
21.85
18.67
15.64
13.07
11.13
9.80
8.75
7.54
5.74
3.15
-0.17
-3.91
-7.72
-11.28
-14.58
-17.83
-21.42
-25.69
-30.63
-35.76
-40.11
-42.54
-42.00
-37.98
-30.71
-21.25
-11.30
-2.75
2.85
4.76
3.40
0.13
-3.22
-5.01
-4.25
-0.82
4.75
11.66
19.11
26.48
33.20
38.74
42.63
44.59
44.72
43.43
41.33
38.99
36.76
34.64
32.37
29.64
26.25
22.27
18.03
14.01
10.64
8.15
6.47
5.24
4.03
2.47
0.44
-1.89
-4.16
-6.10
-7.60
-8.89
-10.39
-12.52
-15.48
-19.16
-23.12
-26.73
-29.33
-30.36
-29.46
-26.56
-21.84
-15.76
-8.91
-1.95
4.57
10.33
15.22
19.30
22.63
25.26
27.09
28.01
27.89
26.74
24.69
21.94
18.78
15.55
12.57
10.21
8.70
8.16
8.37
8.96
9.46
9.61
9.48
9.37
9.64
10.40
11.34
11.86
11.29
9.24
5.75
1.23
-3.70
-8.43
-12.51
-15.70
-17.94
-19.29
-19.88
-19.78
-18.90
-16.93
-13.37
-7.71
0.30
10.50
22.37
35.16
48.08
60.38
71.27
79.98
85.84
88.43
87.84
84.62
79.59
73.53
66.97
60.09
52.85
45.16
36.97
28.26
18.95
8.89
-2.06
-13.77
-25.78
-37.29
-47.41
-55.59
-61.84
-66.88
-71.84
-77.78
-85.12
-93.41
-101.34
-107.19
-109.45
-107.20
-100.36
-89.53
-75.84
-60.68
-45.57
-31.94
-20.87
-12.86
-7.72
-4.59
-2.30
0.25
3.76
8.30
13.27
17.59
20.04
19.74
16.41
10.63
3.57
-3.38
-9.07
-12.87
-14.60
-14.28
-11.68
-6.36
2.11
13.66
27.30
41.17
52.94
60.59
63.00
60.28
53.63
44.89
35.92
28.14
22.28
18.47
16.39
15.60
15.72
16.49
17.71
19.20
20.78
22.27
23.53
24.57
25.49
26.35
27.14
27.66
27.61
26.70
24.82
22.07
18.82
15.58
12.85
10.95
9.87
9.25
8.45
6.83
4.04
0.22
-4.06
-8.05
-11.21
-13.45
-15.19
-17.10
-19.73
-23.30
-27.69
-32.61
-37.78
-43.02
-48.14
-52.73
-56.16
-57.63
-56.53
-52.64
-46.31
-38.34
-29.70
-21.31
-13.80
-7.51
-2.55
1.15
3.72
5.32
6.17
6.51
6.59
6.60
6.70
7.03
7.74
8.93
10.72
13.04
15.70
18.34
20.54
21.87
21.96
20.57
17.58
13.04
7.24
0.67
-6.07
-12.49
-18.34
-23.71
-28.84
-33.87
-38.57
-42.28
-44.17
-43.57
-40.32
-34.82
-27.88
-20.32
-12.74
-5.50
1.23
7.26
12.34
16.25
18.93
20.51
21.30
21.63
21.66
21.37
20.65
19.39
17.61
15.33
12.63
9.51
5.93
1.91
-2.34
-6.47
-10.11
-13.03
-15.25
-17.06
-18.87
-20.99
-23.54
-26.45
-29.56
-32.76
-35.97
-39.06
-41.73
-43.41
-43.46
-41.34
-36.95
-30.67
-23.24
-15.50
-8.06
-1.16
5.32
11.61
17.82
23.81
29.26
33.87
37.52
40.31
42.53
44.43
46.09
47.39
48.15
48.28
47.87
47.12
46.20
45.08
43.46
40.99
37.42
32.87
27.72
22.50
17.55
12.86
8.04
2.52
-4.11
-11.83
-20.12
-28.05
-34.54
-38.69
-40.01
-38.56
-34.87
-29.74
-23.99
-18.22
-12.79
-7.87
-3.64
-0.31
1.96
3.13
3.39
3.15
2.84
2.74
2.91
3.21
3.45
3.54
3.44
3.16
2.66
1.79
0.40
-1.57
-4.05
-6.91
-9.90
-12.93
-15.96
-19.07
-22.48
-26.42
-31.11
-36.57
-42.52
-48.32
-53.10
-56.00
-56.42
-54.22
-49.69
-43.38
-35.88
-27.67
-19.12
-10.64
-2.63
4.43
10.16
14.38
17.16
18.76
19.41
19.29
18.35
16.49
13.59
9.62
4.77
-0.65
-6.07
-10.78
-14.00
-15.16
-14.15
-11.51
-8.29
-5.66
-4.51
-5.12
-7.21
-10.29
-14.00
-18.23
-23.05
-28.29
-33.35
-37.15
-38.56
-36.79
-31.64
-23.63
-13.71
-2.93
7.74
17.61
26.24
33.44
39.17
43.56
46.82
49.23
51.09
52.70
54.28
55.99
57.82
59.68
61.36
62.65
63.37
63.42
62.84
61.68
59.99
57.84
55.26
52.34
49.11
45.59
41.80
37.85
33.89
29.98
26.06
21.83
16.88
10.69
3.01
-5.81
-14.70
-22.16
-26.71
-27.40
-24.00
-16.95
-7.39
3.25
13.54
22.52
29.57
34.39
36.84
36.92
34.83
30.62
24.34
16.11
6.31
-4.55
-15.86
-26.86
-37.18
-44.81
-47.88
-46.50
-43.14
-40.92
-42.21
-47.42
-55.68
-65.42
-74.99
-83.62
-90.25
-94.47
-96.08
-95.05
-91.71
-86.77
-81.18
-75.78
-71.16
-67.29
-63.65
-59.36
-53.70
-46.56
-38.45
-30.14
-22.11
-14.54
-7.25
-0.06
7.07
13.84
19.67
23.90
26.21
26.76
26.10
25.01
24.17
24.01
24.55
25.38
25.86
25.39
23.69
20.86
17.31
13.47
9.67
6.03
2.67
-0.16
-2.02
-2.38
-0.97
1.97
5.74
9.47
12.56
15.03
17.42
20.48
24.82
30.58
37.51
45.10
52.78
60.04
66.39
71.32
74.35
75.19
73.87
70.71
66.25
61.11
55.76
50.56
45.72
41.39
37.68
34.56
31.90
29.40
26.67
23.39
19.36
14.64
9.46
4.19
-0.77
-5.08
-8.55
-11.18
-13.23
-15.21
-17.72
-21.25
-25.92
-31.41
-36.95
-41.65
-44.72
-45.72
-44.50
-41.22
-36.16
-29.70
-22.32
-14.57
-6.98
0.03
6.28
11.84
16.88
21.47
25.55
28.82
30.97
31.79
31.21
29.36
26.45
22.63
18.02
12.64
6.58
0.07
-6.52
-12.65
-17.84
-21.73
-24.11
-24.90
-24.06
-21.66
-17.96
-13.59
-9.54
-6.98
-6.89
-9.70
-15.14
-22.39
-30.39
-38.16
-44.99
-50.40
-54.00
-55.48
-54.68
-51.76
-47.20
-41.71
-35.91
-30.02
-23.75
-16.35
-6.95
5.10
19.80
36.36
53.22
68.37
79.89
86.49
87.94
85.07
79.50
73.03
67.17
62.81
60.28
59.54
60.36
62.33
64.69
66.22
65.32
60.53
51.01
37.03
19.91
1.54
-16.14
-31.63
-43.95
-52.50
-56.87
-56.95
-53.14
-46.61
-39.19
-32.82
-28.83
-27.37
-27.37
-27.11
-24.99
-20.25
-13.17
-4.89
3.16
9.78
14.25
16.49
16.87
16.02
14.68
13.48
12.88
13.07
13.97
15.34
16.86
18.24
19.27
19.78
19.63
18.63
16.70
13.87
10.35
6.48
2.58
-1.18
-4.86
-8.71
-13.10
-18.31
-24.39
-31.14
-38.01
-44.24
-48.94
-51.26
-50.66
-47.09
-41.03
-33.36
-25.02
-16.74
-8.94
-1.75
4.78
10.59
15.38
18.91
21.09
22.09
22.26
21.96
21.55
21.19
20.98
20.66
19.93
18.64
16.85
14.75
12.51
10.24
7.84
5.12
1.37
-3.83
-10.24
-16.99
-23.01
-27.72
-31.07
-33.77
-36.60
-40.79
-46.84
-54.03
-60.77
-65.46
-67.31
-66.37
-63.59
-59.98
-57.34
-57.06
-59.63
-64.84
-72.21
-81.39
-91.53
-101.63
-103.40
-91.30
-65.91
-34.34
-5.26
15.78
26.02
28.46
26.19
21.79
15.92
8.53
0.64
-6.38
-11.09
-12.58
-10.42
-5.31
1.74
8.79
14.18
17.27
18.50
18.95
19.52
20.76
22.30
23.65
24.05
23.27
22.02
21.59
23.22
27.41
33.85
41.35
48.64
54.48
58.20
59.71
59.38
57.69
55.04
51.75
47.99
43.95
39.69
35.24
30.57
25.62
20.38
14.85
9.14
3.38
-2.25
-7.54
-12.29
-16.36
-19.76
-22.61
-25.19
-27.84
-30.89
-34.48
-38.56
-42.92
-47.26
-51.38
-55.26
-58.96
-62.58
-66.01
-68.87
-70.46
-69.93
-66.51
-59.74
-49.65
-36.88
-22.54
-8.04
5.32
16.60
25.44
31.97
36.66
40.05
42.58
44.57
46.24
47.79
49.36
51.03
52.71
54.21
55.25
55.54
54.82
52.88
49.58
44.97
39.35
33.32
27.52
22.48
18.29
14.64
10.93
6.62
1.44
-4.47
-10.57
-16.13
-20.38
-22.70
-22.78
-20.73
-16.99
-12.22
-7.09
-2.04
2.79
7.54
12.38
17.33
22.17
26.49
29.94
32.42
34.14
35.59
37.22
39.26
41.62
43.84
45.42
45.94
45.24
43.48
41.02
38.22
35.36
32.48
29.51
26.33
22.89
19.23
15.37
11.15
6.16
-0.15
-8.24
-18.06
-28.95
-39.65
-48.59
-54.46
-56.47
-54.58
-49.42
-42.07
-33.74
-25.56
-18.31
-12.35
-7.66
-4.02
-1.18
0.96
2.32
2.72
2.12
0.68
-1.18
-2.89
-3.88
-3.79
-2.56
-0.47
1.92
3.90
4.86
4.43
2.58
-0.29
-3.61
-6.71
-9.13
-10.76
-11.91
-13.19
-15.26
-18.53
-22.91
-27.80
-32.25
-35.30
-36.20
-34.70
-31.02
-25.82
-20.03
-14.69
-10.75
-8.79
-8.94
-10.74
-13.32
-15.71
-17.17
-17.47
-16.82
-15.67
-14.37
-12.95
-11.04
-8.09
-3.68
2.26
9.24
16.31
22.37
26.51
28.43
28.41
27.21
25.63
24.22
23.13
22.18
21.17
19.96
18.45
16.41
13.44
9.14
3.42
-3.24
-9.81
-15.05
-18.02
-18.42
-16.74
-13.91
-11.03
-8.99
-8.35
-9.24
-11.48
-14.61
-18.07
-21.27
-23.80
-25.45
-26.25
-26.42
-26.28
-26.24
-26.61
-27.56
-28.94
-30.22
-30.70
-29.67
-26.85
-22.55
-17.65
-13.31
-10.54
-9.88
-11.36
-14.56
-18.88
-23.71
-28.47
-32.67
-35.78
-37.28
-36.67
-33.52
-27.64
-19.20
-8.77
2.68
13.93
23.83
31.55
36.78
39.77
41.12
41.57
41.73
41.91
42.16
42.30
42.16
41.61
40.69
39.51
38.16
36.65
34.89
32.75
30.19
27.29
24.23
21.13
17.99
14.60
10.71
6.17
1.01
-4.47
-9.86
-14.73
-18.72
-21.60
-23.21
-23.43
-22.20
-19.53
-15.58
-10.64
-5.08
0.74
6.56
12.25
17.67
22.59
26.69
29.58
30.99
30.85
29.37
26.97
24.07
21.05
18.05
15.03
11.79
8.03
3.45
-2.09
-8.47
-15.19
-21.44
-26.35
-29.27
-29.97
-28.71
-26.01
-22.47
-18.64
-15.02
-12.16
-10.56
-10.48
-11.68
-13.21
-13.67
-11.67
-6.43
1.88
12.18
22.94
32.78
40.84
46.90
51.20
54.15
56.16
57.60
58.82
60.16
61.73
63.34
64.40
64.09
61.70
56.88
49.83
41.30
32.27
23.76
16.53
10.99
7.07
4.35
2.06
-0.63
-4.41
-9.59
-15.94
-22.74
-28.99
-33.76
-36.73
-38.39
-39.85
-42.39
-46.58
-51.74
-55.90
-56.44
-51.20
-39.53
-22.69
-3.45
15.03
30.33
41.49
49.00
54.28
58.96
64.25
70.56
77.45
83.69
87.59
87.44
82.16
71.73
57.40
41.37
26.06
13.28
3.69
-3.22
-8.63
-13.75
-19.27
-25.28
-31.44
-37.29
-42.54
-47.07
-50.84
-53.86
-56.17
-57.96
-59.54
-61.27
-63.20
-64.99
-65.89
-64.97
-61.62
-55.68
-47.62
-38.24
-28.44
-19.02
-10.59
-3.56
1.82
5.60
8.13
9.96
11.65
13.56
15.66
17.59
18.92
19.36
18.91
17.85
16.51
15.12
13.77
12.34
10.70
8.74
6.43
3.74
0.62
-2.97
-7.03
-11.43
-15.92
-20.25
-24.30
-28.16
-32.00
-35.82
-39.30
-41.80
-42.60
-41.34
-38.20
-33.77
-28.73
-23.46
-17.97
-12.21
-6.47
-1.59
1.35
1.60
-0.80
-4.97
-9.78
-14.47
-19.02
-24.00
-29.80
-36.14
-41.85
-45.43
-45.77
-42.75
-37.21
-30.49
-23.81
-17.92
-13.02
-9.16
-6.31
-4.51
-3.61
-3.16
-2.52
-1.12
1.23
4.15
6.89
8.70
9.28
8.95
8.59
9.27
11.82
16.49
22.93
30.37
37.89
44.72
50.29
54.33
56.87
58.23
59.06
60.14
62.19
65.53
69.94
74.73
78.98
81.90
83.01
82.10
79.11
74.12
67.31
59.09
49.99
40.54
30.93
21.07
10.76
0.11
-10.19
-18.94
-24.92
-27.56
-27.33
-25.74
-24.79
-26.14
-30.50
-37.36
-45.23
-52.27
-56.94
-58.52
-57.14
-53.52
-48.48
-42.61
-36.15
-29.18
-21.86
-14.70
-8.40
-3.59
-0.52
1.09
1.94
2.77
4.10
5.97
8.03
9.76
10.77
11.02
10.77
10.44
10.38
10.64
10.95
10.82
9.77
7.60
4.45
0.76
-3.00
-6.50
-9.71
-12.87
-16.32
-20.31
-24.90
-29.92
-35.05
-39.93
-44.14
-47.21
-48.58
-47.81
-44.69
-39.39
-32.54
-24.99
-17.57
-10.79
-4.74
0.78
6.04
11.06
15.59
19.23
21.63
22.71
22.71
21.96
20.81
19.47
17.98
16.34
14.53
12.66
10.80
9.03
7.28
5.47
3.55
1.65
-0.08
-1.57
-2.86
-4.18
-5.72
-7.79
-10.47
-13.69
-17.14
-20.36
-22.85
-24.00
-23.30
-20.52
-16.30
-11.62
-7.34
-3.80
-0.85
1.87
4.78
7.82
10.65
11.97
10.89
7.55
3.25
-0.50
-2.78
-3.33
-2.88
-2.29
-3.51
-7.73
-14.60
-22.37
-29.12
-33.90
-36.54
-38.20
-40.31
-45.85
-57.06
-74.39
-96.22
-120.07
-143.85
-165.41
-183.80
-187.59
-170.30
-134.72
-92.04
-53.01
-22.18
-1.77
14.14
29.71
46.57
62.73
75.71
84.41
89.23
91.54
92.75
93.38
93.61
94.31
94.70
94.94
93.29
89.21
83.72
76.78
69.74
63.57
58.76
54.10
47.96
39.29
28.71
18.02
9.06
3.54
1.73
2.85
5.01
6.45
6.13
4.27
1.69
-0.94
-2.98
-4.22
-4.59
-4.12
-2.84
-0.77
2.15
5.94
10.34
15.07
19.60
23.25
25.27
25.21
23.00
19.26
14.97
11.11
8.37
6.94
6.62
7.03
7.87
8.99
10.30
11.72
13.01
13.91
14.20
13.80
12.77
11.27
9.41
7.27
4.87
2.38
0.04
-1.83
-3.05
-3.69
-4.15
-5.01
-6.68
-9.21
-12.14
-14.64
-15.74
-14.65
-11.00
-4.89
3.16
12.28
21.47
29.81
36.60
41.49
44.52
45.98
46.35
46.11
45.59
45.01
44.39
43.67
42.68
41.17
38.95
35.84
31.76
26.71
20.80
14.20
7.01
-0.78
-9.34
-18.86
-29.37
-40.77
-52.86
-65.42
-78.23
-91.16
-104.15
-117.05
-129.42
-140.36
-148.83
-154.02
-155.46
-152.90
-146.42
-136.61
-124.54
-111.36
-97.94
-84.74
-71.92
-59.33
-46.40
-32.76
-18.84
-5.97
4.34
11.33
15.24
17.15
18.78
22.53
30.53
43.79
61.80
82.85
104.65
124.54
139.90
146.04
140.29
125.13
107.47
93.74
85.95
82.08
79.84
76.46
71.00
64.34
57.72
51.33
44.09
34.01
20.70
5.18
-10.64
-24.43
-33.96
-37.99
-36.89
-32.41
-26.72
-21.28
-16.58
-12.46
-8.25
-3.27
2.60
8.57
13.20
15.14
13.96
10.17
4.92
-0.43
-4.73
-7.47
-8.80
-9.44
-10.02
-10.77
-11.42
-11.42
-10.20
-7.48
-3.44
1.35
6.10
10.16
13.21
15.16
16.06
16.02
15.26
14.20
13.46
13.64
14.88
16.76
18.24
18.20
16.01
11.89
6.83
2.32
-0.28
-0.04
3.33
9.45
17.32
25.42
31.94
35.16
33.94
28.14
18.65
7.10
-4.73
-15.47
-24.46
-31.70
-37.58
-42.47
-46.54
-49.77
-52.03
-53.27
-53.63
-53.42
-53.03
-52.74
-52.62
-52.52
-52.16
-51.36
-50.13
-48.72
-47.49
-46.75
-46.60
-46.85
-47.15
-47.11
-46.46
-45.06
-42.95
-40.17
-36.67
-32.30
-26.80
-20.02
-11.99
-3.03
6.24
15.09
22.80
28.84
33.01
35.42
36.48
36.68
36.50
36.22
35.87
35.26
34.14
32.28
29.65
26.38
22.69
18.80
14.82
10.74
6.49
2.06
-2.40
-6.63
-10.33
-13.25
-15.30
-16.56
-17.18
-17.30
-17.00
-16.30
-15.20
-13.66
-11.57
-8.73
-4.89
0.16
6.37
13.29
20.07
25.68
29.27
30.43
29.32
26.58
22.97
19.08
15.16
11.04
6.40
1.00
-5.05
-11.35
-17.32
-22.42
-26.36
-29.08
-30.68
-31.28
-30.93
-29.67
-27.57
-24.88
-21.89
-18.97
-16.33
-14.08
-12.26
-10.88
-9.98
-9.56
-9.59
-9.89
-10.32
-10.74
-11.09
-11.21
-10.81
-9.49
-6.84
-2.74
2.54
8.36
13.99
18.98
23.30
27.28
31.32
35.55
39.71
43.30
45.85
47.13
47.32
46.81
46.06
45.33
44.66
43.83
42.63
40.93
38.84
36.61
34.58
32.93
31.66
30.55
29.26
27.54
25.23
22.35
19.02
15.32
11.33
7.03
2.36
-2.84
-8.71
-15.32
-22.51
-29.89
-36.82
-42.58
-46.59
-48.59
-48.69
-47.27
-44.86
-41.92
-38.86
-35.93
-33.38
-31.37
-30.04
-29.42
-29.46
-30.07
-31.16
-32.74
-34.88
-37.62
-40.93
-44.57
-48.23
-51.54
-54.19
-55.98
-56.87
-56.89
-56.13
-54.73
-52.77
-50.32
-47.41
-44.16
-40.81
-37.75
-35.37
-33.93
-33.42
-33.44
-33.37
-32.47
-30.19
-26.24
-20.71
-13.93
-6.49
0.89
7.46
12.66
16.33
18.78
20.76
23.20
27.03
32.83
40.78
50.67
62.06
74.51
87.48
100.28
112.02
122.00
129.56
134.31
136.22
135.50
132.69
128.35
122.61
115.35
106.77
96.98
86.09
74.29
61.61
48.78
36.71
26.15
17.56
11.76
8.94
8.69
10.37
12.97
16.52
21.29
27.02
32.85
38.28
42.39
44.15
42.94
38.52
32.54
27.41
25.01
20.39
11.20
-2.18
-17.08
-26.33
-30.02
-29.29
-25.16
-20.84
-18.69
-19.20
-22.01
-26.11
-30.10
-33.17
-35.45
-36.48
-35.25
-32.91
-30.81
-29.75
-30.28
-32.80
-37.88
-45.13
-53.52
-62.16
-70.32
-76.89
-80.94
-81.90
-79.41
-73.34
-63.10
-48.27
-29.39
-8.18
13.23
32.58
48.06
58.95
65.51
68.88
70.23
69.94
67.44
62.02
53.31
41.59
27.91
13.57
-0.33
-13.16
-24.98
-36.18
-47.08
-57.67
-67.65
-76.48
-83.55
-88.27
-90.29
-89.72
-87.24
-83.94
-80.88
-78.56
-76.66
-74.07
-69.52
-62.17
-52.19
-40.70
-29.22
-18.97
-10.37
-3.10
3.56
10.08
16.48
22.30
27.05
30.54
33.08
35.29
37.68
40.39
42.95
44.55
44.32
41.81
37.18
31.14
24.73
18.91
14.31
11.01
8.65
6.58
4.18
1.00
-3.07
-7.87
-13.03
-18.20
-23.05
-27.29
-30.60
-32.63
-33.03
-31.59
-28.35
-23.66
-17.96
-11.74
-5.34
0.96
6.90
12.09
16.09
18.62
19.58
19.29
18.30
17.15
16.24
15.62
15.12
14.44
13.30
11.57
9.32
6.75
4.09
1.55
-0.87
-3.35
-6.22
-9.76
-14.17
-19.42
-25.37
-31.76
-38.27
-44.52
-50.04
-54.29
-56.78
-57.22
-55.57
-52.05
-46.87
-40.14
-31.80
-21.78
-10.26
2.12
14.36
25.29
34.02
40.19
44.00
46.10
47.26
48.09
48.93
49.83
50.66
51.19
51.21
50.54
49.08
46.81
43.82
40.23
36.15
31.65
26.72
21.36
15.62
9.61
3.47
-2.75
-9.02
-15.29
-21.32
-26.61
-30.52
-32.42
-32.03
-29.50
-25.39
-20.44
-15.27
-10.28
-5.59
-1.14
3.06
6.96
10.40
13.17
15.16
16.42
17.16
17.76
18.57
19.79
21.37
23.03
24.32
24.83
24.29
22.65
20.04
16.73
13.08
9.45
6.13
3.28
0.80
-1.61
-4.40
-7.96
-12.54
-18.11
-24.36
-30.70
-36.38
-40.64
-42.80
-42.47
-39.68
-34.83
-28.64
-21.83
-14.87
-7.91
-0.83
6.56
14.31
22.18
29.70
36.31
41.55
45.14
46.97
47.15
45.91
43.64
40.84
38.05
35.69
33.94
32.73
31.74
30.56
28.80
26.23
22.83
18.77
14.40
10.20
6.66
4.03
2.14
0.36
-2.28
-6.59
-12.82
-20.40
-27.98
-33.92
-36.86
-36.15
-32.06
-25.44
-17.44
-9.12
-1.27
5.64
11.34
15.66
18.52
19.88
19.83
18.61
16.63
14.33
12.16
10.40
9.08
8.02
6.93
5.61
4.01
2.27
0.57
-0.97
-2.38
-3.78
-5.23
-6.69
-7.96
-8.88
-9.37
-9.59
-9.82
-10.37
-11.47
-13.17
-15.33
-17.63
-19.63
-20.80
-20.59
-18.61
-14.74
-9.18
-2.42
4.91
12.35
19.73
27.17
34.91
43.11
51.60
59.95
67.56
73.96
78.98
82.72
85.29
86.57
86.08
83.17
77.43
69.00
58.72
47.84
37.56
28.62
21.16
14.78
8.91
3.03
-3.13
-9.56
-16.09
-22.45
-28.45
-34.07
-39.47
-44.97
-50.91
-57.38
-64.08
-70.33
-75.23
-77.92
-77.89
-75.12
-70.06
-63.39
-55.82
-47.80
-39.55
-31.23
-23.07
-15.51
-9.13
-4.37
-1.33
0.35
1.33
2.22
3.43
5.00
6.73
8.38
9.79
10.92
11.72
12.12
11.99
11.23
9.77
7.68
5.07
2.10
-1.04
-4.22
-7.36
-10.47
-13.68
-17.18
-21.21
-25.90
-31.20
-36.76
-42.02
-46.25
-48.74
-48.97
-46.76
-42.30
-36.14
-28.98
-21.59
-14.63
-8.57
-3.72
-0.19
2.06
3.23
3.65
3.75
3.89
4.34
5.20
6.37
7.62
8.64
9.12
8.92
7.99
6.45
4.50
2.42
0.47
-1.14
-2.29
-3.00
-3.43
-3.82
-4.46
-5.62
-7.52
-10.26
-13.86
-18.10
-22.59
-26.77
-29.97
-31.58
-31.23
-28.84
-24.62
-18.99
-12.49
-5.63
1.15
7.52
13.30
18.43
22.90
26.66
29.64
31.68
32.68
32.66
31.74
30.16
28.17
25.96
23.64
21.30
19.04
16.92
14.96
13.06
11.03
8.62
5.72
2.36
-1.22
-4.76
-8.08
-11.19
-14.29
-17.67
-21.53
-25.94
-30.73
-35.52
-39.74
-42.73
-43.87
-42.67
-39.03
-33.26
-25.98
-17.94
-9.80
-1.91
5.55
12.52
18.82
24.15
28.16
30.63
31.54
31.15
29.87
28.14
26.30
24.56
23.03
21.74
20.68
19.78
18.94
18.02
16.86
15.34
13.39
10.99
8.14
4.89
1.27
-2.63
-6.75
-11.09
-15.66
-20.44
-25.34
-30.09
-34.19
-37.04
-38.08
-36.95
-33.65
-28.54
-22.18
-15.20
-8.17
-1.55
4.34
9.22
12.85
15.12
16.07
15.94
15.11
14.01
13.01
12.28
11.84
11.60
11.45
11.30
11.07
10.62
9.77
8.31
6.13
3.27
-0.03
-3.46
-6.71
-9.68
-12.43
-15.16
-18.10
-21.39
-25.05
-28.92
-32.72
-36.06
-38.43
-39.30
-38.21
-34.93
-29.58
-22.61
-14.76
-6.78
0.72
7.40
13.21
18.17
22.33
25.64
28.00
29.31
29.67
29.30
28.53
27.65
26.81
25.98
25.01
23.69
21.93
19.72
17.16
14.40
11.57
8.78
6.12
3.61
1.24
-1.10
-3.58
-6.41
-9.78
-13.76
-18.32
-23.21
-28.05
-32.33
-35.45
-36.91
-36.39
-33.84
-29.52
-23.91
-17.53
-10.86
-4.26
1.99
7.66
12.55
16.49
19.40
21.28
22.24
22.45
22.09
21.35
20.39
19.32
18.24
17.15
16.05
14.93
13.75
12.44
10.92
9.05
6.78
4.19
1.50
-0.97
-2.98
-4.49
-5.71
-7.08
-9.07
-11.94
-15.60
-19.58
-23.17
-25.63
-26.40
-25.27
-22.36
-18.01
-12.65
-6.64
-0.27
6.24
12.62
18.54
23.62
27.52
30.08
31.35
31.59
31.12
30.18
28.89
27.25
25.26
23.04
20.87
19.03
17.70
16.81
16.08
15.10
13.53
11.18
8.04
4.24
-0.01
-4.42
-8.64
-12.29
-15.08
-16.90
-17.96
-18.66
-19.48
-20.70
-22.25
-23.69
-24.36
-23.69
-21.35
-17.45
-12.38
-6.70
-0.92
4.59
9.64
14.15
18.00
21.06
23.13
24.13
24.09
23.21
21.77
20.06
18.29
16.58
14.92
13.27
11.53
9.59
7.39
4.89
2.14
-0.75
-3.63
-6.39
-9.02
-11.59
-14.25
-17.15
-20.38
-23.95
-27.80
-31.88
-36.08
-40.21
-43.97
-46.90
-48.51
-48.33
-46.15
-42.00
-36.18
-29.15
-21.43
-13.55
-5.97
0.90
6.76
11.42
14.86
17.20
18.63
19.38
19.63
19.50
19.11
18.50
17.78
17.05
16.44
16.06
15.90
15.84
15.59
14.82
13.21
10.64
7.23
3.28
-0.79
-4.56
-7.76
-10.24
-12.08
-13.50
-14.89
-16.67
-19.09
-22.14
-25.37
-28.05
-29.29
-28.32
-24.80
-18.88
-11.15
-2.44
6.42
14.74
22.13
28.35
33.31
36.92
39.13
39.96
39.57
38.26
36.43
34.44
32.48
30.61
28.73
26.72
24.47
21.99
19.29
16.46
13.54
10.62
7.77
5.04
2.47
0.02
-2.34
-4.69
-7.03
-9.33
-11.57
-13.79
-16.06
-18.46
-20.91
-23.13
-24.63
-24.90
-23.57
-20.58
-16.18
-10.85
-5.08
0.75
6.42
11.76
16.67
20.97
24.45
26.94
28.34
28.70
28.16
26.90
25.01
22.53
19.44
15.79
11.82
7.93
4.59
2.09
0.43
-0.71
-1.83
-3.34
-5.43
-7.99
-10.75
-13.44
-15.89
-18.10
-20.17
-22.23
-24.38
-26.72
-29.30
-32.07
-34.83
-37.22
-38.75
-38.92
-37.40
-34.15
-29.40
-23.63
-17.34
-11.01
-4.88
0.93
6.36
11.30
15.52
18.73
20.73
21.51
21.28
20.45
19.38
18.32
17.34
16.38
15.40
14.41
13.49
12.67
11.84
10.81
9.35
7.35
4.86
2.09
-0.71
-3.36
-5.84
-8.22
-10.67
-13.31
-16.25
-19.51
-23.02
-26.51
-29.54
-31.54
-31.93
-30.32
-26.67
-21.27
-14.67
-7.50
-0.35
6.25
11.90
16.31
19.33
21.02
21.60
21.43
20.84
20.07
19.21
18.29
17.36
16.50
15.79
15.22
14.62
13.73
12.29
10.18
7.47
4.34
0.97
-2.48
-5.97
-9.47
-12.88
-16.07
-18.91
-21.38
-23.68
-26.12
-28.97
-32.28
-35.74
-38.76
-40.65
-40.86
-39.14
-35.60
-30.61
-24.66
-18.23
-11.71
-5.40
0.46
5.66
10.07
13.62
16.36
18.48
20.19
21.73
23.13
24.28
24.93
24.85
24.04
22.69
21.13
19.69
18.51
17.47
16.33
14.80
12.71
10.06
6.95
3.58
0.10
-3.31
-6.55
-9.61
-12.54
-15.51
-18.71
-22.32
-26.34
-30.58
-34.58
-37.73
-39.37
-39.01
-36.50
-32.06
-26.20
-19.61
-12.87
-6.41
-0.39
5.13
10.06
14.28
17.60
19.88
21.14
21.62
21.66
21.59
21.57
21.57
21.40
20.91
20.02
18.83
17.53
16.24
14.99
13.67
12.13
10.24
7.97
5.39
2.60
-0.34
-3.43
-6.66
-10.04
-13.59
-17.35
-21.35
-25.53
-29.70
-33.46
-36.26
-37.56
-36.97
-34.39
-30.06
-24.46
-18.16
-11.69
-5.43
0.31
5.30
9.33
12.22
13.87
14.38
14.06
13.31
12.55
12.00
11.66
11.34
10.87
10.18
9.33
8.41
7.44
6.30
4.79
2.76
0.16
-2.92
-6.31
-9.83
-13.31
-16.68
-19.87
-22.87
-25.77
-28.77
-32.10
-35.85
-39.86
-43.66
-46.59
-47.88
-46.91
-43.35
-37.30
-29.19
-19.59
-9.16
1.46
11.66
20.96
29.04
35.82
41.38
46.07
50.38
54.78
59.42
64.00
68.07
71.14
72.97
73.64
73.43
72.99
72.75
72.64
71.67
69.00
64.15
57.30
49.10
40.40
32.38
25.80
20.57
15.15
8.31
-0.80
-12.37
-26.36
-42.38
-58.96
-74.30
-86.87
-96.77
-103.57
-106.61
-105.08
-98.71
-87.62
-71.28
-49.42
-22.69
5.81
33.77
59.66
83.04
103.76
116.14
115.66
102.15
88.41
78.85
74.15
70.47
65.92
59.18
49.68
38.67
28.22
20.13
13.87
9.09
5.25
1.81
-2.20
-7.50
-13.45
-18.68
-22.06
-24.31
-26.07
-28.13
-31.01
-35.21
-40.68
-46.19
-50.05
-50.95
-49.17
-45.25
-39.98
-33.92
-27.59
-21.30
-14.99
-8.60
-2.36
2.88
6.54
8.42
8.83
8.26
7.35
6.72
6.79
7.63
8.91
10.29
11.47
12.32
12.76
12.68
12.00
10.58
8.40
5.57
2.35
-0.95
-4.06
-6.93
-9.72
-12.76
-16.35
-20.72
-25.90
-31.72
-37.82
-43.65
-48.46
-51.44
-51.87
-49.34
-43.95
-36.33
-27.42
-18.19
-9.36
-1.25
6.10
12.71
18.58
23.55
27.47
30.25
31.98
32.89
33.21
33.12
32.65
31.73
30.28
28.27
25.76
23.01
20.33
18.05
16.38
15.27
14.42
13.35
11.66
9.17
6.06
2.71
-0.49
-3.39
-6.20
-9.36
-13.34
-18.37
-24.25
-30.36
-35.87
-39.89
-41.73
-41.07
-37.97
-32.88
-26.52
-19.69
-13.12
-7.28
-2.43
1.35
3.99
5.48
5.89
5.42
4.46
3.49
2.85
2.70
2.91
3.20
3.28
2.96
2.26
1.30
0.21
-0.92
-2.06
-3.23
-4.45
-5.71
-7.00
-8.36
-9.87
-11.65
-13.78
-16.34
-19.33
-22.70
-26.37
-30.18
-33.91
-37.19
-39.52
-40.40
-39.42
-36.39
-31.40
-24.73
-16.81
-8.07
1.00
9.79
17.57
23.65
27.59
29.43
29.80
29.63
29.81
30.78
32.28
33.59
33.88
32.63
29.92
26.31
22.55
19.19
16.43
14.08
11.84
9.40
6.69
3.80
0.87
-1.99
-4.80
-7.65
-10.69
-14.01
-17.70
-21.70
-25.87
-29.87
-33.23
-35.37
-35.71
-33.91
-29.89
-23.95
-16.65
-8.66
-0.60
7.07
14.08
20.23
25.36
29.34
32.08
33.64
34.26
34.28
34.00
33.54
32.86
31.77
30.13
27.94
25.38
22.73
20.20
17.83
15.47
12.87
9.78
6.11
1.91
-2.58
-7.03
-11.10
-14.57
-17.42
-19.90
-22.44
-25.53
-29.46
-34.13
-38.98
-43.16
-45.75
-46.07
-43.92
-39.55
-33.54
-26.58
-19.26
-12.03
-5.24
0.85
5.97
9.97
12.82
14.69
15.84
16.52
16.86
16.85
16.38
15.44
14.18
12.87
11.79
11.06
10.59
10.10
9.31
8.01
6.10
3.60
0.54
-3.01
-6.97
-11.20
-15.45
-19.47
-23.05
-26.18
-28.99
-31.69
-34.37
-36.84
-38.58
-38.91
-37.20
-33.21
-27.15
-19.69
-11.67
-3.83
3.38
9.72
15.14
19.57
22.97
25.31
26.72
27.42
27.62
27.45
26.87
25.75
24.06
21.92
19.62
17.52
15.85
14.60
13.55
12.37
10.79
8.71
6.18
3.35
0.36
-2.70
-5.81
-8.95
-12.16
-15.51
-19.14
-23.11
-27.33
-31.39
-34.59
-36.14
-35.39
-32.16
-26.76
-19.88
-12.28
-4.60
2.81
9.78
16.25
22.07
27.03
30.92
33.66
35.27
35.96
36.01
35.66
35.06
34.30
33.36
32.22
30.84
29.24
27.44
25.47
23.37
21.08
18.53
15.62
12.33
8.81
5.32
2.17
-0.46
-2.60
-4.55
-6.69
-9.37
-12.80
-16.94
-21.57
-26.31
-30.60
-33.81
-35.31
-34.67
-31.76
-26.87
-20.58
-13.59
-6.46
0.38
6.72
12.35
17.09
20.73
23.24
24.79
25.70
26.39
27.06
27.69
28.03
27.78
26.77
25.08
23.00
20.82
18.75
16.79
14.80
12.64
10.21
7.57
4.82
2.09
-0.56
-3.16
-5.79
-8.58
-11.65
-15.12
-19.03
-23.28
-27.58
-31.41
-34.18
-35.35
-34.62
-32.04
-27.94
-22.79
-17.04
-10.99
-4.86
1.21
6.98
12.11
16.23
19.07
20.56
20.86
20.30
19.28
18.13
17.02
15.96
14.85
13.60
12.21
10.76
9.42
8.30
7.33
6.29
4.85
2.79
0.15
-2.78
-5.61
-8.04
-10.03
-11.82
-13.78
-16.20
-19.14
-22.47
-25.90
-29.10
-31.70
-33.31
-33.55
-32.14
-29.01
-24.34
-18.52
-11.96
-5.07
1.88
8.62
14.88
20.30
24.57
27.47
29.03
29.48
29.16
28.40
27.41
26.27
24.95
23.37
21.48
19.32
16.98
14.63
12.40
10.37
8.49
6.60
4.54
2.22
-0.32
-2.90
-5.31
-7.38
-9.13
-10.73
-12.52
-14.83
-17.84
-21.57
-25.75
-29.92
-33.44
-35.63
-35.92
-34.01
-29.97
-24.28
-17.66
-10.88
-4.54
1.08
5.98
10.29
14.08
17.32
19.86
21.57
22.44
22.64
22.38
21.86
21.13
20.12
18.79
17.17
15.43
13.78
12.34
11.07
9.76
8.17
6.15
3.73
1.14
-1.33
-3.46
-5.23
-6.84
-8.70
-11.20
-14.63
-18.96
-23.86
-28.68
-32.68
-35.10
-35.47
-33.64
-29.79
-24.39
-18.01
-11.23
-4.47
1.98
7.92
13.22
17.70
21.18
23.54
24.80
25.11
24.74
23.95
22.93
21.75
20.41
18.96
17.51
16.21
15.14
14.22
13.19
11.72
9.56
6.68
3.26
-0.39
-3.90
-7.02
-9.73
-12.16
-14.57
-17.31
-20.65
-24.68
-29.27
-33.99
-38.20
-41.18
-42.31
-41.18
-37.79
-32.45
-25.75
-18.38
-10.95
-3.91
2.51
8.24
13.26
17.49
20.84
23.19
24.54
25.05
25.00
24.72
24.42
24.14
23.72
22.99
21.88
20.44
18.79
17.01
15.03
12.69
9.86
6.57
3.04
-0.40
-3.48
-6.15
-8.54
-10.94
-13.64
-16.89
-20.78
-25.25
-30.08
-34.78
-38.68
-41.01
-41.20
-39.01
-34.68
-28.82
-22.15
-15.26
-8.52
-2.09
3.91
9.29
13.77
17.14
19.28
20.32
20.52
20.20
19.62
18.95
18.25
17.53
16.79
16.00
15.11
14.07
12.84
11.41
9.81
8.10
6.35
4.65
3.01
1.39
-0.31
-2.26
-4.68
-7.71
-11.42
-15.69
-20.23
-24.50
-27.84
-29.51
-28.97
-26.02
-20.91
-14.34
-7.12
-0.03
6.45
12.12
16.96
20.96
24.03
26.10
27.17
27.41
27.11
26.54
25.78
24.78
23.40
21.62
19.60
17.61
15.86
14.37
12.91
11.16
8.87
6.03
2.83
-0.41
-3.47
-6.26
-8.85
-11.41
-14.15
-17.26
-20.89
-25.11
-29.74
-34.35
-38.21
-40.55
-40.75
-38.58
-34.27
-28.34
-21.45
-14.17
-6.85
0.24
6.90
12.85
17.75
21.35
23.58
24.62
24.84
24.63
24.31
23.95
23.49
22.80
21.82
20.57
19.11
17.53
15.81
13.86
11.60
8.98
6.06
2.96
-0.17
-3.20
-6.07
-8.80
-11.48
-14.26
-17.31
-20.77
-24.64
-28.68
-32.40
-35.11
-36.10
-34.90
-31.38
-25.89
-19.11
-11.84
-4.78
1.63
7.27
12.17
16.42
20.01
22.77
24.53
25.16
24.71
23.47
21.83
20.19
18.77
17.58
16.47
15.26
13.88
12.36
10.78
9.16
7.44
5.42
3.03
0.32
-2.52
-5.25
-7.76
-10.20
-12.90
-16.21
-20.30
-24.98
-29.71
-33.72
-36.29
-36.88
-35.30
-31.68
-26.44
-20.10
-13.23
-6.34
0.17
6.02
10.98
14.93
17.80
19.59
20.44
20.61
20.37
19.93
19.39
18.68
17.70
16.36
14.69
12.79
10.81
8.87
7.02
5.20
3.31
1.28
-0.95
-3.37
-5.99
-8.81
-11.87
-15.20
-18.82
-22.71
-26.73
-30.68
-34.21
-36.91
-38.30
-37.97
-35.67
-31.41
-25.51
-18.51
-11.04
-3.68
3.13
9.18
14.36
18.65
22.00
24.36
25.69
26.04
25.59
24.65
23.56
22.64
22.05
21.76
21.58
21.28
20.64
19.58
18.09
16.25
14.12
11.72
9.05
6.11
2.92
-0.45
-3.92
-7.39
-10.90
-14.54
-18.48
-22.82
-27.47
-32.01
-35.74
-37.85
-37.69
-34.97
-29.96
-23.32
-15.92
-8.53
-1.67
4.43
9.72
14.17
17.74
20.35
22.00
22.80
22.95
22.75
22.47
22.22
22.02
21.79
21.46
20.94
20.22
19.28
18.07
16.58
14.77
12.66
10.28
7.66
4.85
1.86
-1.28
-4.49
-7.73
-10.98
-14.31
-17.85
-21.66
-25.59
-29.17
-31.72
-32.56
-31.21
-27.62
-22.17
-15.48
-8.25
-1.06
5.70
11.77
16.97
21.12
24.11
25.93
26.72
26.79
26.48
26.03
25.46
24.65
23.43
21.76
19.74
17.62
15.59
13.72
11.84
9.71
7.16
4.17
0.92
-2.32
-5.31
-7.94
-10.31
-12.62
-15.17
-18.25
-22.01
-26.40
-31.04
-35.31
-38.41
-39.58
-38.34
-34.62
-28.77
-21.38
-13.22
-4.95
2.86
9.83
15.68
20.25
23.48
25.46
26.42
26.73
26.76
26.75
26.77
26.67
26.24
25.28
23.74
21.75
19.52
17.26
15.07
12.95
10.81
8.56
6.14
3.54
0.82
-1.94
-4.70
-7.43
-10.22
-13.24
-16.70
-20.75
-25.34
-30.14
-34.54
-37.77
-39.13
-38.21
-35.03
-30.03
-23.86
-17.24
-10.70
-4.50
1.29
6.67
11.55
15.77
19.13
21.50
22.90
23.50
23.52
23.10
22.33
21.24
19.87
18.36
16.87
15.53
14.36
13.24
11.96
10.33
8.26
5.79
3.09
0.36
-2.19
-4.45
-6.46
-8.38
-10.46
-12.98
-16.16
-20.05
-24.47
-28.92
-32.70
-35.03
-35.30
-33.20
-28.89
-22.88
-15.87
-8.56
-1.45
5.14
11.03
16.06
20.10
23.01
24.79
25.55
25.51
24.93
24.06
23.06
22.02
20.97
19.90
18.78
17.55
16.10
14.31
12.09
9.44
6.47
3.36
0.32
-2.53
-5.14
-7.51
-9.72
-11.91
-14.23
-16.91
-20.09
-23.66
-27.23
-30.06
-31.36
-30.52
-27.44
-22.50
-16.39
-9.84
-3.40
2.63
8.11
12.87
16.74
19.53
21.20
21.93
22.04
21.84
21.54
21.15
20.57
19.67
18.46
17.02
15.52
14.08
12.75
11.46
10.05
8.42
6.53
4.43
2.18
-0.14
-2.49
-4.86
-7.32
-9.97
-12.99
-16.53
-20.60
-24.92
-28.86
-31.55
-32.13
-30.12
-25.62
-19.34
-12.34
-5.68
-0.08
4.15
7.06
8.91
9.95
10.39
10.40
10.11
9.74
9.46
9.41
9.60
9.97
10.41
10.83
11.25
11.77
12.46
13.30
14.12
14.66
14.69
14.11
13.05
11.69
10.21
8.63
6.82
4.57
1.64
-2.10
-6.69
-11.97
-17.65
-23.24
-28.09
-31.55
-33.10
-32.52
-29.95
-25.84
-20.76
-15.29
-9.87
-4.84
-0.40
3.35
6.38
8.71
10.44
11.65
12.43
12.86
13.00
12.85
12.46
11.86
11.10
10.25
9.43
8.69
8.05
7.39
6.58
5.40
3.76
1.65
-0.80
-3.38
-5.90
-8.26
-10.58
-13.07
-16.00
-19.51
-23.46
-27.39
-30.64
-32.52
-32.57
-30.66
-27.02
-22.06
-16.22
-9.94
-3.60
2.41
7.72
12.03
15.20
17.29
18.57
19.37
