1651143053.00
64.000000
-0.00
-0.00
-0.00
-0.00
-0.00
-0.00
-0.00
-0.00
-0.00
-0.00
0.00
0.01
0.01
-0.00
-0.03
-0.05
-0.05
0.00
0.13
0.36
0.66
1.01
1.37
1.72
2.06
2.40
2.79
3.24
3.80
4.42
5.06
5.66
6.20
6.68
7.15
7.68
8.31
9.14
10.09
11.04
11.88
12.56
13.14
13.76
14.65
15.96
17.91
20.32
22.90
25.38
27.58
29.57
31.68
34.32
37.81
42.54
48.15
54.10
59.83
64.97
69.58
74.14
79.34
85.71
93.76
103.00
112.62
121.73
129.77
136.75
143.30
150.75
157.77
166.64
177.95
191.79
206.97
220.57
228.25
225.36
208.53
176.87
132.76
80.05
23.07
-34.94
-92.44
-149.16
-205.23
-260.37
-313.74
-363.87
-409.83
-450.91
-486.50
-515.74
-537.23
-549.22
-549.96
-538.37
-514.21
-478.67
-433.88
-382.45
-327.02
-269.84
-212.63
-156.66
-102.95
-52.37
-5.90
35.58
71.43
101.35
125.50
144.38
158.69
169.15
176.37
180.75
182.57
182.07
179.51
175.24
169.66
163.18
156.14
148.80
141.29
133.69
126.04
118.37
110.72
103.17
95.76
88.55
81.60
74.93
68.58
62.56
56.87
51.49
46.41
41.60
37.07
32.84
28.91
25.32
22.06
19.11
16.41
13.91
11.57
9.40
7.44
5.74
4.36
3.29
2.45
1.70
0.91
-0.02
-1.07
-2.12
-2.98
-3.52
-3.70
-3.66
-3.68
-4.01
-4.83
-6.08
-7.50
-8.71
-9.41
-9.54
-9.30
-9.15
-9.55
-10.73
-12.61
-14.77
-16.66
-17.86
-18.28
-18.20
-18.07
-18.37
-19.39
-21.33
-24.26
-28.06
-32.13
-35.19
-35.44
-31.24
-21.95
-8.58
6.37
19.77
29.16
33.65
34.03
32.07
29.46
27.11
25.08
23.09
21.10
19.46
18.82
19.54
21.40
23.63
25.29
25.65
24.67
22.96
21.47
21.09
22.18
24.47
27.18
29.38
30.44
30.25
29.15
27.72
26.33
25.00
23.41
21.14
18.04
14.40
10.93
8.32
6.82
5.98
4.52
1.28
-4.13
-10.98
-17.57
-22.01
-23.08
-20.84
-16.52
-11.83
-8.05
-5.55
-3.81
-1.78
1.49
6.37
12.99
20.83
28.87
35.59
39.15
37.88
30.86
18.59
3.03
-12.85
-26.15
-34.96
-38.83
-38.74
-36.31
-33.21
-30.53
-28.91
-28.58
-29.26
-30.08
-29.57
-26.03
-18.36
-6.86
6.50
18.63
26.53
28.45
24.54
16.61
7.23
-1.39
-7.89
-11.85
-13.46
-13.19
-11.53
-9.07
-6.48
-4.51
-3.73
-4.36
-6.13
-8.25
-9.85
-10.26
-9.38
-7.66
-5.91
-4.86
-4.75
-5.26
-5.71
-5.51
-4.38
-2.48
-0.19
2.14
4.30
6.22
7.79
8.86
9.21
8.74
7.65
6.31
5.15
4.45
4.22
4.19
4.13
3.82
3.27
2.64
2.12
1.93
2.21
3.03
4.39
6.24
8.42
10.74
12.97
14.94
16.55
17.83
18.79
19.49
20.06
20.62
21.21
21.80
22.16
21.92
21.10
19.52
17.20
14.36
11.37
8.63
6.39
4.68
3.38
2.35
1.45
0.68
0.07
-0.33
-0.60
-0.81
-1.04
-1.23
-1.23
-0.87
0.02
1.54
3.69
6.32
9.17
11.87
14.02
15.32
15.61
15.00
13.71
12.00
10.04
7.81
5.28
2.50
-0.37
-3.04
-5.20
-6.65
-7.34
-7.38
-6.94
-6.22
-5.39
-4.55
-3.82
-3.15
-2.51
-1.82
-1.09
-0.46
-0.14
-0.27
-0.83
-1.65
-2.50
-3.20
-3.74
-4.13
-4.35
-4.31
-3.91
-3.19
-2.38
-1.86
-1.96
-2.78
-4.08
-5.47
-6.55
-7.14
-7.36
-7.45
-7.74
-8.50
-9.86
-11.78
-14.07
-16.38
-18.29
-19.35
-19.32
-18.11
-15.91
-13.08
-10.13
-7.56
-5.80
-5.01
-5.05
-5.49
-5.75
-5.39
-4.30
-2.76
-1.31
-0.43
-0.31
-0.82
-1.58
-2.21
-2.49
-2.34
-1.82
-1.02
-0.01
1.12
2.26
3.21
3.81
3.91
3.46
2.53
1.23
-0.26
-1.79
-3.18
-4.29
-5.04
-5.36
-5.30
-4.95
-4.44
-3.90
-3.48
-3.28
-3.38
-3.78
-4.48
-5.39
-6.44
-7.54
-8.58
-9.47
-10.19
-10.74
-11.19
-11.64
-12.16
-12.80
-13.52
-14.25
-14.81
-15.05
-14.83
-14.06
-12.73
-10.92
-8.78
-6.53
-4.43
-2.70
-1.45
-0.69
-0.28
-0.03
0.28
0.73
1.34
2.05
2.81
3.62
4.52
5.56
6.65
7.64
8.30
8.52
8.27
7.71
7.04
6.49
6.17
6.08
6.14
6.26
6.36
6.41
6.40
6.28
5.96
5.27
4.08
2.32
0.10
-2.33
-4.61
-6.44
-7.67
-8.38
-8.80
-9.16
-9.55
-9.89
-10.07
-10.02
-9.89
-9.96
-10.50
-11.56
-12.88
-13.95
-14.25
-13.45
-11.60
-9.07
-6.41
-4.11
-2.38
-1.17
-0.24
0.69
1.77
2.98
4.18
5.23
6.07
6.76
7.35
7.80
7.99
7.74
6.99
5.93
4.89
4.24
4.17
4.59
5.20
5.67
5.80
5.61
5.27
4.91
4.56
4.13
3.51
2.72
1.86
1.08
0.48
0.01
-0.51
-1.26
-2.36
-3.72
-5.09
-6.08
-6.39
-5.90
-4.79
-3.57
-2.90
-3.43
-5.49
-8.88
-12.91
-16.55
-18.79
-18.99
-17.14
-13.74
-9.64
-5.61
-2.12
0.79
3.26
5.54
7.69
9.59
11.07
12.05
12.63
13.16
14.07
15.78
18.57
22.45
27.09
31.68
35.05
35.90
33.16
26.54
16.70
5.26
-5.74
-14.48
-19.95
-22.17
-22.00
-20.60
-18.91
-17.43
-16.23
-15.17
-14.23
-13.56
-13.37
-13.69
-14.31
-14.74
-14.42
-13.01
-10.53
-7.41
-4.32
-1.84
-0.34
0.19
0.05
-0.40
-0.89
-1.42
-2.14
-3.22
-4.60
-5.94
-6.58
-5.80
-3.12
1.51
7.66
14.51
21.03
26.18
29.16
29.47
27.05
22.23
15.68
8.29
0.95
-5.58
-10.81
-14.57
-16.96
-18.25
-18.77
-18.83
-18.59
-18.12
-17.39
-16.33
-14.91
-13.19
-11.25
-9.25
-7.37
-5.76
-4.53
-3.69
-3.19
-2.95
-2.87
-2.90
-3.02
-3.29
-3.80
-4.67
-6.09
-8.14
-10.73
-13.54
-16.08
-17.88
-18.68
-18.61
-18.13
-17.81
-18.03
-18.76
-19.59
-19.87
-19.09
-17.06
-14.01
-10.44
-6.93
-3.92
-1.61
0.00
1.02
1.52
1.54
1.08
0.17
-1.01
-2.21
-3.18
-3.77
-4.04
-4.15
-4.27
-4.46
-4.52
-4.17
-3.10
-1.15
1.58
4.77
7.99
10.83
13.04
14.59
15.63
16.35
16.82
16.98
16.61
15.55
13.85
11.73
9.56
7.66
6.16
4.96
3.86
2.70
1.47
0.24
-0.90
-1.99
-3.08
-4.22
-5.34
-6.17
-6.39
-5.78
-4.32
-2.27
-0.06
1.88
3.32
4.28
5.06
6.04
7.45
9.28
11.24
12.90
13.95
14.41
14.55
14.87
15.75
17.27
19.17
21.00
22.36
23.11
23.41
23.64
24.14
25.06
26.27
27.45
28.25
28.51
28.27
27.90
27.84
28.54
30.22
32.77
35.81
38.76
41.11
42.57
43.06
42.74
41.79
40.34
38.39
35.93
32.89
29.20
24.56
18.44
10.25
-0.28
-12.70
-25.56
-36.83
-44.57
-47.84
-46.94
-43.11
-37.57
-30.76
-22.33
-11.91
-0.13
10.67
17.02
15.81
6.05
-10.29
-28.69
-43.82
-51.64
-50.92
-43.38
-32.63
-22.63
-16.23
-14.50
-16.76
-21.20
-25.69
-28.56
-28.98
-27.12
-23.88
-20.53
-18.16
-17.40
-18.30
-20.48
-23.35
-26.30
-28.81
-30.45
-30.78
-29.44
-26.29
-21.56
-15.92
-10.40
-6.10
-3.87
-4.05
-6.38
-10.13
-14.39
-18.39
-21.67
-24.11
-25.77
-26.77
-27.11
-26.69
-25.46
-23.48
-20.91
-17.98
-14.89
-11.76
-8.65
-5.68
-3.03
-0.93
0.54
1.59
2.67
4.38
7.16
11.13
16.03
21.39
26.67
31.41
35.23
37.86
39.06
38.73
36.98
34.22
30.98
27.81
24.96
22.44
19.98
17.30
14.23
10.79
7.16
3.53
0.05
-3.19
-6.09
-8.53
-10.38
-11.59
-12.28
-12.72
-13.23
-14.05
-15.20
-16.48
-17.53
-17.89
-17.17
-15.07
-11.45
-6.39
-0.20
6.60
13.38
19.50
24.44
27.89
29.75
30.10
29.17
27.36
25.14
22.97
21.21
20.01
19.30
18.89
18.57
18.19
17.74
17.20
16.61
15.95
15.19
14.34
13.37
12.23
10.87
9.24
7.37
5.39
3.55
2.07
1.09
0.62
0.55
0.70
0.86
0.72
-0.09
-2.03
-5.43
-10.35
-16.46
-23.05
-29.19
-34.00
-36.92
-37.73
-36.64
-34.15
-30.91
-27.49
-24.27
-21.38
-18.73
-16.15
-13.55
-10.94
-8.45
-6.24
-4.33
-2.62
-0.94
0.80
2.51
3.97
4.93
5.29
5.17
4.88
4.78
5.08
5.76
6.56
7.10
7.11
6.49
5.40
4.12
2.91
1.90
1.04
0.22
-0.69
-1.68
-2.66
-3.49
-4.08
-4.47
-4.78
-5.17
-5.74
-6.56
-7.64
-9.01
-10.81
-13.14
-16.00
-19.12
-21.92
-23.71
-23.87
-22.18
-18.89
-14.61
-9.99
-5.58
-1.60
1.96
5.19
8.10
10.60
12.53
13.80
14.45
14.60
14.47
14.24
14.04
13.96
14.03
14.22
14.47
14.65
14.64
14.38
13.89
13.35
12.96
12.90
13.27
14.05
15.08
16.16
17.05
17.51
17.33
16.40
14.70
12.30
9.45
6.44
3.58
1.10
-0.91
-2.48
-3.76
-4.85
-5.84
-6.75
-7.56
-8.33
-9.09
-9.98
-11.07
-12.37
-13.79
-15.17
-16.32
-17.07
-17.22
-16.57
-14.94
-12.17
-8.27
-3.51
1.66
6.63
10.87
14.08
16.28
17.65
18.44
18.79
18.67
18.00
16.81
15.28
13.78
12.63
12.06
12.05
12.40
12.81
13.03
12.86
12.26
11.29
10.05
8.69
7.36
6.16
5.13
4.27
3.54
2.90
2.36
1.90
1.54
1.20
0.78
0.19
-0.64
-1.67
-2.79
-3.87
-4.87
-5.81
-6.79
-7.86
-8.98
-10.04
-10.91
-11.65
-12.44
-13.52
-14.97
-16.66
-18.14
-18.85
-18.41
-16.68
-13.87
-10.37
-6.63
-2.99
0.30
3.11
5.38
7.06
8.19
8.80
8.95
8.70
8.15
7.47
6.89
6.62
6.78
7.30
7.98
8.54
8.82
8.82
8.69
8.64
8.82
9.21
9.63
9.86
9.67
8.95
7.74
6.25
4.75
3.53
2.74
2.33
2.08
1.65
0.85
-0.40
-1.93
-3.52
-4.95
-6.18
-7.27
-8.40
-9.72
-11.31
-13.14
-15.08
-16.87
-18.22
-18.86
-18.57
-17.31
-15.23
-12.54
-9.55
-6.45
-3.34
-0.25
2.75
5.53
7.84
9.47
10.29
10.32
9.73
8.74
7.59
6.42
5.32
4.28
3.30
2.38
1.57
1.01
0.88
1.34
2.45
4.02
5.62
6.79
7.14
6.59
5.43
4.10
3.03
2.38
2.05
1.73
1.18
0.31
-0.72
-1.66
-2.32
-2.68
-2.89
-3.14
-3.60
-4.24
-4.97
-5.66
-6.29
-7.02
-8.07
-9.62
-11.67
-13.94
-15.95
-17.18
-17.28
-16.15
-13.92
-10.89
-7.38
-3.69
-0.08
3.17
5.83
7.71
8.79
9.18
9.16
9.03
9.03
9.25
9.65
10.10
10.56
11.02
11.55
12.18
12.86
13.42
13.68
13.51
12.99
12.34
11.83
11.64
11.74
11.89
11.77
11.15
10.03
8.62
7.22
6.10
5.30
4.68
3.99
3.01
1.68
0.10
-1.50
-2.93
-4.03
-4.75
-5.13
-5.26
-5.21
-5.11
-5.13
-5.47
-6.35
-7.87
-9.94
-12.22
-14.19
-15.26
-14.99
-13.27
-10.28
-6.50
-2.54
1.10
4.06
6.27
7.76
8.72
9.28
9.50
9.40
8.99
8.33
7.54
6.74
6.06
5.49
5.01
4.52
3.93
3.21
2.41
1.59
0.87
0.38
0.23
0.45
0.95
1.51
1.90
1.91
1.47
0.63
-0.44
-1.55
-2.55
-3.37
-4.02
-4.57
-5.13
-5.76
-6.46
-7.12
-7.64
-7.98
-8.22
-8.55
-9.09
-9.83
-10.58
-11.18
-11.57
-11.99
-12.72
-13.93
-15.39
-16.56
-16.82
-15.77
-13.49
-10.44
-7.24
-4.38
-2.12
-0.49
0.59
1.19
1.44
1.48
1.58
1.96
2.77
3.94
5.21
6.28
6.93
7.13
7.04
6.86
6.77
6.79
6.90
6.97
6.97
6.92
6.90
6.96
7.05
6.98
6.55
5.60
4.15
2.42
0.74
-0.59
-1.40
-1.75
-1.84
-1.94
-2.21
-2.74
-3.52
-4.52
-5.71
-7.12
-8.73
-10.47
-12.25
-13.94
-15.45
-16.74
-17.76
-18.43
-18.62
-18.24
-17.23
-15.61
-13.44
-10.87
-8.02
-5.11
-2.36
-0.08
1.44
2.00
1.56
0.29
-1.51
-3.45
-5.20
-6.60
-7.73
-8.84
-10.29
-12.33
-14.92
-17.76
-20.36
-22.37
-23.74
-24.90
-26.57
-29.51
-34.11
-40.22
-47.18
-54.16
-60.50
-66.02
-71.06
-76.28
-82.32
-89.56
-97.99
-107.26
-116.88
-126.32
-135.13
-143.15
-150.66
-158.78
-169.35
-184.50
-205.69
-232.56
-262.35
-290.28
-310.99
-320.48
-317.52
-303.91
-283.42
-259.99
-236.30
-213.25
-190.48
-167.47
-144.29
-121.78
-100.97
-82.41
-65.76
-49.98
-33.88
-16.72
1.48
20.12
38.35
55.58
71.73
87.24
102.83
119.16
136.56
154.93
173.98
193.60
214.10
235.99
259.40
283.34
305.43
322.43
331.38
330.77
321.10
304.57
284.00
261.77
239.23
216.91
195.08
174.20
154.91
137.63
122.11
107.39
92.28
76.02
58.74
41.44
25.49
11.90
0.77
-8.64
-17.40
-26.19
-34.82
-42.25
-47.09
-48.35
-45.82
-40.06
-31.97
-22.34
-11.63
-0.07
12.08
24.44
36.46
47.69
57.88
66.95
74.86
81.40
86.15
88.67
88.75
86.55
82.73
78.14
73.63
69.70
66.45
63.61
60.68
57.23
53.06
48.30
43.30
38.48
34.09
30.12
26.31
22.37
18.18
13.96
10.26
7.69
6.61
6.99
8.30
9.87
11.01
11.35
10.85
9.74
8.49
7.70
8.05
10.15
14.33
20.47
27.99
36.04
43.74
50.55
56.34
61.30
65.82
70.25
74.76
79.16
82.82
84.77
83.84
79.07
70.06
57.31
42.05
25.95
10.52
-3.23
-14.93
-24.68
-32.69
-39.10
-43.82
-46.70
-47.65
-46.76
-44.41
-41.13
-37.55
-34.15
-31.25
-28.92
-27.10
-25.69
-24.66
-24.01
-23.73
-23.62
-23.24
-22.00
-19.28
-14.73
-8.37
-0.54
8.14
16.95
25.13
31.96
36.83
39.26
39.16
36.81
32.94
28.49
24.39
21.23
19.20
18.13
17.60
17.21
16.64
15.70
14.32
12.45
10.07
7.27
4.26
1.34
-1.21
-3.24
-4.87
-6.44
-8.29
-10.60
-13.20
-15.69
-17.57
-18.49
-18.28
-16.84
-13.94
-9.21
-2.40
6.33
16.07
25.20
31.77
34.07
31.11
22.92
10.61
-3.91
-18.30
-30.42
-38.88
-43.44
-45.03
-45.26
-45.67
-47.02
-48.97
-50.42
-50.23
-48.12
-45.08
-42.97
-43.78
-48.55
-56.60
-65.48
-71.61
-71.27
-61.74
-41.93
-12.71
23.04
60.45
93.16
114.48
119.57
107.74
83.51
55.34
32.22
19.78
18.14
22.73
27.33
27.63
22.85
14.98
6.46
-1.74
-10.13
-19.21
-27.89
-33.30
-32.39
-24.04
-10.39
3.90
13.72
15.82
10.11
-0.57
-11.94
-20.08
-22.83
-20.29
-14.40
-7.84
-2.89
-0.61
-0.49
-0.91
0.03
3.59
9.88
17.81
25.73
32.12
36.27
38.42
39.43
40.22
41.23
42.32
42.91
42.50
40.98
38.69
36.25
34.20
32.66
31.29
29.46
26.51
22.09
16.36
9.84
3.29
-2.71
-8.06
-13.22
-19.10
-26.65
-36.38
-48.11
-60.88
-73.38
-84.31
-92.86
-98.75
-102.15
-103.41
-102.85
-100.73
-97.45
-93.53
-89.58
-86.04
-82.96
-79.89
-76.16
-71.20
-64.95
-57.92
-51.00
-45.09
-40.71
-37.93
-36.49
-35.99
-35.96
-35.80
-34.65
-31.40
-24.99
-14.70
-0.46
17.08
36.85
57.51
77.58
95.53
109.67
118.44
120.80
116.55
106.54
92.31
75.62
57.93
40.32
23.63
8.77
-3.24
-11.52
-15.73
-16.39
-14.86
-12.96
-12.41
-14.29
-18.81
-25.33
-32.74
-39.84
-45.75
-50.07
-52.87
-54.38
-54.83
-54.14
-52.05
-48.30
-42.89
-36.10
-28.48
-20.57
-12.80
-5.35
1.76
8.52
14.90
20.70
25.68
29.46
31.68
32.08
30.57
27.41
23.14
18.57
14.50
11.55
9.86
9.13
8.62
7.48
4.97
0.70
-5.29
-12.57
-20.44
-28.08
-34.75
-39.89
-43.26
-44.93
-45.24
-44.60
-43.36
-41.66
-39.49
-36.84
-33.73
-30.26
-26.41
-21.95
-16.48
-9.65
-1.47
7.51
16.26
23.65
28.87
31.69
32.49
32.01
31.10
30.46
30.53
31.37
32.68
33.73
33.51
30.99
25.58
17.44
7.60
-2.40
-11.01
-17.27
-21.03
-22.84
-23.56
-23.97
-24.45
-25.08
-25.80
-26.61
-27.63
-29.02
-30.90
-33.28
-36.12
-39.44
-43.27
-47.66
-52.60
-57.93
-63.36
-68.66
-73.70
-78.33
-82.17
-84.33
-83.53
-78.47
-68.50
-54.07
-36.84
-19.22
-3.65
8.09
15.24
18.04
17.38
14.42
10.34
6.19
2.86
1.00
0.90
2.46
5.16
8.24
11.03
13.14
14.64
15.95
17.48
19.36
21.28
22.68
23.05
22.18
20.22
17.48
14.23
10.64
6.94
3.60
1.40
1.19
3.52
8.31
14.81
21.90
28.51
33.93
37.90
40.43
41.61
41.40
39.67
36.31
31.51
25.90
20.50
16.46
14.69
15.48
18.42
22.64
27.07
30.92
33.75
35.45
36.06
35.60
34.03
31.37
27.73
23.38
18.66
13.88
9.25
4.94
1.15
-1.90
-3.97
-4.93
-4.87
-4.12
-3.15
-2.44
-2.31
-2.72
-3.37
-3.76
-3.52
-2.55
-1.09
0.37
1.32
1.34
0.19
-2.24
-5.91
-10.50
-15.38
-19.56
-21.96
-21.75
-18.74
-13.51
-7.21
-1.09
3.91
7.46
9.72
11.10
11.89
12.16
11.77
10.61
8.74
6.43
4.09
2.06
0.50
-0.71
-1.85
-3.19
-4.85
-6.73
-8.56
-10.01
-10.96
-11.45
-11.72
-12.08
-12.67
-13.49
-14.34
-15.01
-15.43
-15.76
-16.35
-17.54
-19.53
-22.26
-25.42
-28.57
-31.37
-33.63
-35.37
-36.76
-37.96
-39.15
-40.44
-41.95
-43.64
-45.30
-46.35
-45.90
-43.02
-37.08
-28.04
-16.50
-3.53
9.64
21.99
32.78
41.55
48.03
52.05
53.58
52.78
49.97
45.66
40.42
34.81
29.30
24.30
20.07
16.76
14.44
13.12
12.88
13.90
16.41
20.49
25.93
32.13
38.22
43.27
46.63
48.00
47.55
45.70
43.07
40.36
38.29
37.50
38.34
40.56
43.26
44.97
44.15
39.83
31.95
21.53
10.27
-0.07
-8.16
-13.42
-15.92
-16.13
-14.68
-12.20
-9.36
-6.81
-5.15
-4.81
-5.89
-8.13
-11.04
-14.02
-16.55
-18.24
-18.87
-18.35
-16.72
-14.26
-11.30
-8.26
-5.51
-3.20
-1.34
0.22
1.66
3.17
4.83
6.60
8.25
9.43
9.77
9.08
7.47
5.39
3.41
1.96
1.15
0.70
0.14
-0.97
-2.86
-5.44
-8.37
-11.18
-13.41
-14.60
-14.48
-12.88
-9.82
-5.54
-0.49
4.72
9.41
12.98
15.12
15.84
15.52
14.64
13.62
12.62
11.57
10.29
8.73
6.99
5.33
3.97
2.95
2.18
1.48
0.77
0.04
-0.63
-1.21
-1.72
-2.26
-2.95
-3.89
-5.16
-6.72
-8.53
-10.43
-12.24
-13.81
-15.02
-15.90
-16.60
-17.31
-18.21
-19.35
-20.69
-22.09
-23.29
-23.95
-23.67
-22.06
-18.83
-13.99
-7.93
-1.41
4.59
9.17
11.79
12.42
11.51
9.71
7.68
5.73
3.91
2.01
-0.15
-2.63
-5.29
-7.86
-10.06
-11.68
-12.65
-12.98
-12.76
-12.13
-11.24
-10.26
-9.40
-8.87
-8.84
-9.45
-10.69
-12.43
-14.46
-16.51
-18.32
-19.73
-20.67
-21.20
-21.49
-21.69
-21.94
-22.30
-22.75
-23.25
-23.84
-24.59
-25.61
-26.94
-28.36
-29.40
-29.41
-27.84
-24.44
-19.45
-13.51
-7.41
-1.80
2.95
6.83
10.00
12.64
14.80
16.43
17.48
17.96
17.94
17.54
16.83
15.84
14.61
13.12
11.47
9.72
7.98
6.33
4.85
3.61
2.66
1.98
1.47
0.90
0.02
-1.34
-3.24
-5.54
-8.01
-10.42
-12.55
-14.32
-15.64
-16.49
-16.86
-16.88
-16.73
-16.70
-17.04
-17.85
-18.96
-19.95
-20.24
-19.30
-16.86
-13.12
-8.59
-3.99
0.08
3.25
5.48
6.83
7.38
7.13
6.09
4.39
2.35
0.42
-1.00
-1.73
-1.81
-1.47
-0.93
-0.26
0.58
1.72
3.20
4.91
6.54
7.66
7.90
7.06
5.22
2.72
0.00
-2.58
-4.93
-7.17
-9.56
-12.31
-15.46
-18.83
-22.13
-25.03
-27.29
-28.80
-29.62
-30.00
-30.30
-30.96
-32.32
-34.50
-37.15
-39.54
-40.61
-39.36
-35.14
-27.97
-18.57
-8.11
2.05
10.81
17.50
21.97
24.47
25.49
25.59
25.29
25.02
25.07
25.55
26.42
27.51
28.59
29.41
29.81
29.70
29.13
28.25
27.22
26.16
25.01
23.58
21.59
18.85
15.34
11.30
7.10
3.17
-0.20
-2.92
-5.11
-7.09
-9.15
-11.58
-14.46
-17.69
-21.05
-24.29
-27.25
-29.93
-32.53
-35.40
-38.90
-43.21
-48.12
-53.04
-56.91
-58.58
-57.08
-52.03
-43.81
-33.44
-22.29
-11.68
-2.53
4.76
10.15
13.94
16.47
18.20
19.51
20.74
22.12
23.70
25.45
27.27
29.09
30.94
32.90
35.01
37.26
39.56
41.78
43.79
45.45
46.56
46.86
46.03
43.83
40.21
35.42
29.89
24.19
18.76
13.90
9.67
6.02
2.83
0.03
-2.38
-4.36
-5.82
-6.70
-6.96
-6.73
-6.43
-6.68
-8.20
-11.46
-16.31
-21.84
-26.57
-28.91
-27.78
-23.03
-15.46
-6.50
2.35
9.98
15.89
20.05
22.74
24.23
24.75
24.47
23.60
22.38
21.05
19.81
18.81
18.05
17.51
17.11
16.71
16.26
15.73
15.17
14.70
14.37
14.21
14.08
13.71
12.81
11.18
8.88
6.27
4.00
2.75
3.02
4.90
7.99
11.58
14.87
17.25
18.41
18.37
17.27
15.24
12.38
8.75
4.47
-0.28
-5.28
-10.42
-15.65
-20.96
-26.24
-31.14
-35.10
-37.42
-37.52
-35.06
-30.11
-23.16
-14.95
-6.42
1.58
8.30
13.30
16.49
18.06
18.45
18.14
17.55
16.92
16.38
15.97
15.70
15.59
15.65
15.82
16.02
16.16
16.18
16.11
16.00
15.88
15.70
15.36
14.71
13.62
11.99
9.75
6.92
3.64
0.15
-3.24
-6.18
-8.51
-10.29
-11.75
-13.24
-14.94
-16.91
-18.98
-20.98
-22.77
-24.38
-25.99
-27.82
-30.13
-33.06
-36.63
-40.58
-44.40
-47.29
-48.36
-46.85
-42.36
-35.05
-25.56
-14.93
-4.33
5.23
13.06
18.89
22.82
25.24
26.58
27.24
27.44
27.25
26.69
25.83
24.85
23.96
23.31
22.94
22.79
22.75
22.73
22.66
22.49
22.06
21.15
19.53
17.13
14.10
10.75
7.52
4.70
2.35
0.23
-2.04
-4.80
-8.20
-12.07
-16.04
-19.65
-22.59
-24.78
-26.42
-27.86
-29.57
-31.90
-35.01
-38.75
-42.62
-45.80
-47.31
-46.25
-42.10
-34.93
-25.42
-14.69
-4.04
5.44
13.07
18.61
22.26
24.36
25.33
25.45
24.92
23.83
22.35
20.67
19.05
17.74
16.88
16.49
16.47
16.61
16.71
16.59
16.08
15.09
13.53
11.39
8.78
5.87
2.94
0.16
-2.38
-4.79
-7.21
-9.74
-12.39
-15.00
-17.44
-19.68
-21.93
-24.48
-27.64
-31.48
-35.68
-39.57
-42.22
-42.78
-40.70
-35.92
-28.87
-20.40
-11.51
-3.19
3.88
9.36
13.21
15.68
17.10
17.76
17.89
17.58
16.87
15.80
14.49
13.19
12.18
11.70
11.78
12.27
12.83
13.17
13.10
12.65
11.97
11.19
10.41
9.55
8.50
7.16
5.51
3.63
1.68
-0.25
-2.15
-4.12
-6.34
-8.91
-11.89
-15.22
-18.84
-22.74
-26.96
-31.51
-36.12
-40.20
-42.82
-43.00
-40.10
-34.13
-25.79
-16.31
-6.92
1.42
8.28
13.64
17.70
20.68
22.72
23.93
24.44
24.47
24.25
24.01
23.84
23.76
23.72
23.67
23.60
23.56
23.60
23.74
23.92
24.04
23.86
23.14
21.67
19.37
16.37
12.99
9.63
6.62
4.11
2.03
0.10
-1.96
-4.34
-7.04
-9.91
-12.70
-15.23
-17.42
-19.35
-21.29
-23.57
-26.49
-30.26
-34.85
-39.94
-44.84
-48.62
-50.28
-49.00
-44.50
-37.07
-27.56
-17.14
-6.96
2.11
9.62
15.48
19.85
22.97
25.10
26.45
27.20
27.55
27.65
27.62
27.50
27.29
27.03
26.77
26.61
26.69
27.08
27.74
28.47
28.95
28.84
27.88
26.01
23.40
20.37
17.31
14.50
12.10
10.09
8.36
6.80
5.32
3.96
2.75
1.75
0.90
0.07
-0.93
-2.30
-4.14
-6.41
-8.98
-11.62
-14.15
-16.49
-18.69
-20.92
-23.44
-26.48
-30.25
-34.75
-39.70
-44.45
-48.05
-49.42
-47.69
-42.52
-34.27
-23.89
-12.63
-1.71
8.02
16.15
22.55
27.24
30.26
31.71
31.75
30.76
29.24
27.76
26.74
26.39
26.65
27.30
28.02
28.63
29.06
29.42
29.83
30.36
30.89
31.18
30.85
29.59
27.25
23.89
19.78
15.28
10.73
6.39
2.34
-1.46
-5.12
-8.73
-12.37
-16.02
-19.57
-22.85
-25.68
-27.95
-29.72
-31.22
-32.80
-34.88
-37.78
-41.54
-45.83
-49.93
-52.85
-53.52
-51.19
-45.56
-37.01
-26.50
-15.24
-4.47
4.88
12.33
17.80
21.46
23.61
24.65
24.96
24.95
24.93
25.10
25.43
25.87
26.32
26.81
27.42
28.20
29.07
29.83
30.20
29.94
28.98
27.31
25.08
22.43
19.51
16.46
13.42
10.50
7.75
5.17
2.67
0.21
-2.21
-4.53
-6.70
-8.69
-10.61
-12.64
-14.93
-17.51
-20.28
-23.00
-25.46
-27.56
-29.40
-31.22
-33.29
-35.80
-38.87
-42.51
-46.60
-50.81
-54.50
-56.75
-56.57
-53.20
-46.51
-37.06
-26.02
-14.75
-4.42
4.25
11.08
16.24
20.07
22.91
24.99
26.48
27.49
28.05
28.23
28.08
27.68
27.15
26.59
26.07
25.58
25.06
24.46
23.79
23.06
22.33
21.55
20.60
19.26
17.39
14.99
12.23
9.40
6.82
4.62
2.84
1.38
0.13
-1.00
-2.04
-2.99
-3.86
-4.75
-5.78
-7.13
-8.98
-11.42
-14.43
-17.85
-21.39
-24.73
-27.60
-29.92
-31.76
-33.39
-35.14
-37.28
-40.00
-43.25
-46.70
-49.77
-51.62
-51.32
-48.12
-41.68
-32.26
-20.77
-8.51
3.18
13.27
21.30
27.32
31.70
34.83
36.96
38.10
38.26
37.51
36.14
34.55
33.18
32.29
31.91
31.87
31.90
31.81
31.48
30.92
30.22
29.47
28.73
28.00
27.21
26.21
24.80
22.74
19.85
16.10
11.72
7.19
3.27
0.80
0.53
2.84
7.56
13.88
20.48
25.83
28.63
28.19
24.58
18.49
10.96
3.08
-4.31
-10.71
-15.92
-20.05
-23.44
-26.59
-30.01
-34.10
-38.92
-44.16
-49.21
-53.29
-55.73
-56.07
-54.20
-50.40
-45.22
-39.41
-33.61
-28.09
-22.65
-16.69
-9.68
-1.45
7.47
16.02
23.06
27.78
30.10
30.50
29.72
28.37
26.70
24.74
22.55
20.42
18.86
18.39
19.25
21.32
24.06
26.82
29.00
30.25
30.56
30.08
28.97
27.30
25.07
22.27
19.12
16.02
13.52
12.07
11.73
12.09
12.40
11.85
9.90
6.48
1.92
-3.33
-8.90
-14.65
-20.62
-26.91
-33.55
-40.46
-47.42
-54.07
-59.87
-64.14
-66.10
-65.09
-60.82
-53.51
-43.95
-33.24
-22.53
-12.75
-4.45
2.15
7.06
10.37
12.25
13.01
13.03
12.78
12.60
12.69
13.01
13.42
13.80
14.19
14.75
15.67
17.05
18.82
20.79
22.69
24.22
25.16
25.33
24.66
23.20
21.14
18.75
16.32
14.00
11.86
9.86
7.92
5.99
4.05
2.05
-0.02
-2.16
-4.30
-6.35
-8.21
-9.93
-11.63
-13.50
-15.64
-17.98
-20.30
-22.38
-24.23
-26.10
-28.50
-31.91
-36.58
-42.27
-48.21
-53.30
-56.28
-56.12
-52.27
-44.89
-34.78
-23.20
-11.49
-0.70
8.58
16.19
22.29
27.08
30.68
33.20
34.75
35.51
35.73
35.61
35.20
34.39
33.04
31.16
28.94
26.82
25.29
24.64
24.88
25.68
26.55
27.02
26.83
26.00
24.69
23.10
21.35
19.48
17.48
15.40
13.34
11.40
9.64
7.96
6.23
4.31
2.14
-0.23
-2.76
-5.36
-8.04
-10.78
-13.52
-16.15
-18.49
-20.46
-22.14
-23.81
-25.86
-28.69
-32.48
-37.12
-42.11
-46.62
-49.63
-50.18
-47.64
-41.96
-33.71
-23.95
-13.94
-4.80
2.77
8.56
12.71
15.55
17.39
18.46
18.90
18.86
18.52
18.09
17.80
17.73
17.87
18.07
18.21
18.30
18.46
18.93
19.85
21.15
22.55
23.55
23.75
22.92
21.15
18.77
16.18
13.66
11.28
8.91
6.31
3.31
-0.08
-3.70
-7.28
-10.58
-13.48
-16.04
-18.44
-20.94
-23.78
-27.17
-31.16
-35.61
-40.05
-43.72
-45.70
-45.12
-41.55
-35.09
-26.45
-16.68
-6.94
1.83
9.09
14.69
18.77
21.57
23.39
24.46
24.95
24.99
24.68
24.11
23.38
22.59
21.86
21.30
20.96
20.86
20.93
21.05
21.06
20.80
20.16
19.02
17.31
14.99
12.14
8.96
5.77
2.89
0.52
-1.35
-2.99
-4.77
-7.00
-9.78
-13.01
-16.41
-19.66
-22.55
-24.97
-27.02
-28.89
-30.88
-33.30
-36.46
-40.53
-45.40
-50.62
-55.33
-58.52
-59.13
-56.47
-50.41
-41.40
-30.44
-18.74
-7.44
2.62
11.02
17.68
22.74
26.44
29.02
30.72
31.74
32.27
32.49
32.51
32.35
32.08
31.72
31.38
31.20
31.29
31.66
32.18
32.58
32.61
32.09
30.98
29.42
27.60
25.73
23.92
22.13
20.26
18.19
15.86
13.29
10.60
7.94
5.44
3.13
0.90
-1.44
-4.08
-7.15
-10.62
-14.41
-18.32
-22.20
-25.92
-29.41
-32.72
-36.00
-39.48
-43.45
-47.99
-52.89
-57.43
-60.50
-60.87
-57.61
-50.48
-40.13
-27.86
-15.25
-3.66
6.13
13.90
19.85
24.30
27.54
29.74
31.05
31.60
31.59
31.20
30.55
29.69
28.64
27.44
26.26
25.30
24.74
24.68
25.04
25.55
25.88
25.69
24.77
23.09
20.81
18.17
15.46
12.89
10.58
8.53
6.69
4.95
3.26
1.56
-0.11
-1.71
-3.17
-4.46
-5.69
-7.02
-8.68
-10.81
-13.42
-16.34
-19.31
-22.09
-24.60
-26.99
-29.51
-32.48
-36.13
-40.51
-45.43
-50.43
-54.73
-57.32
-57.16
-53.48
-46.08
-35.52
-23.00
-10.07
1.87
11.83
19.43
24.75
28.10
29.85
30.30
29.74
28.50
26.98
25.56
24.52
23.91
23.64
23.53
23.45
23.40
23.45
23.69
24.10
24.51
24.64
24.18
22.96
21.00
18.49
15.75
13.06
10.55
8.16
5.71
3.01
-0.01
-3.28
-6.56
-9.61
-12.32
-14.75
-17.23
-20.16
-23.91
-28.62
-34.10
-39.77
-44.74
-47.91
-48.30
-45.27
-38.75
-29.31
-18.04
-6.28
4.75
14.18
21.60
27.05
30.82
33.33
34.92
35.87
36.29
36.22
35.63
34.50
32.84
30.71
28.28
25.77
23.38
21.32
19.68
18.45
17.48
16.49
15.18
13.29
10.74
7.71
4.63
2.00
0.20
-0.59
-0.59
-0.26
-0.21
-0.96
-2.81
-5.68
-9.20
-12.84
-16.14
-18.88
-21.17
-23.33
-25.84
-29.10
-33.38
-38.62
-44.40
-49.88
-53.92
-55.32
-53.23
-47.44
-38.52
-27.66
-16.27
-5.58
3.67
11.23
17.13
21.52
24.49
26.20
26.87
26.86
26.54
26.23
26.01
25.80
25.43
24.79
23.94
23.05
22.35
22.03
22.15
22.62
23.26
23.75
23.77
23.02
21.30
18.57
14.98
10.83
6.44
2.08
-2.18
-6.37
-10.67
-15.24
-20.23
-25.66
-31.44
-37.40
-43.26
-48.78
-53.75
-58.12
-61.97
-65.51
-69.01
-72.78
-77.09
-82.07
-87.69
-93.65
-99.45
-104.40
-107.80
-109.11
-108.09
-104.83
-99.59
-92.75
-84.58
-75.36
-65.46
-55.36
-45.70
-37.13
-30.13
-24.75
-20.64
-17.14
-13.50
-9.07
-3.49
3.41
11.67
21.31
32.39
44.90
58.70
73.38
88.24
102.34
114.76
124.72
131.67
135.28
135.33
131.65
124.25
113.60
100.84
87.81
76.55
68.63
64.45
62.87
61.46
57.32
48.07
32.73
12.13
-11.43
-34.89
-55.49
-71.53
-82.83
-90.54
-96.59
-102.97
-111.25
-122.34
-136.51
-153.30
-171.44
-188.68
-201.86
-207.62
-203.34
-188.11
-163.17
-131.35
-95.95
-59.46
-22.91
13.75
50.54
86.34
118.67
144.34
160.93
167.90
166.95
161.23
154.04
147.63
142.66
138.55
134.34
129.37
123.55
117.16
110.47
103.45
95.87
87.47
78.24
68.42
58.46
48.71
39.35
30.28
21.24
11.93
2.23
-7.71
-17.41
-26.19
-33.29
-38.08
-40.21
-39.73
-37.06
-32.82
-27.66
-21.99
-15.95
-9.53
-2.80
3.94
10.16
15.25
18.85
20.99
22.11
22.78
23.50
24.41
25.39
26.10
26.29
25.86
24.89
23.57
22.09
20.59
19.14
17.75
16.41
15.06
13.60
11.94
10.00
7.73
5.19
2.48
-0.27
-2.94
-5.51
-8.03
-10.58
-13.21
-15.81
-18.09
-19.63
-19.99
-18.85
-16.13
-12.05
-7.04
-1.66
3.55
8.18
11.99
14.90
16.92
18.10
18.50
18.22
17.48
16.52
15.61
14.92
14.48
14.16
13.75
13.11
12.18
11.03
9.74
8.42
7.10
5.78
4.41
2.98
1.45
-0.25
-2.18
-4.40
-6.93
-9.66
-12.43
-14.98
-17.07
-18.44
-18.92
-18.39
-16.82
-14.23
-10.74
-6.50
-1.72
3.35
8.46
13.30
17.59
21.10
23.66
25.26
25.94
25.85
25.14
23.95
22.38
20.51
18.43
16.29
14.20
12.27
10.49
8.81
7.17
5.53
3.92
2.43
1.11
-0.02
-1.04
-2.15
-3.49
-5.20
-7.27
-9.67
-12.34
-15.24
-18.32
-21.41
-24.20
-26.19
-26.87
-25.85
-23.07
-18.78
-13.56
-8.04
-2.81
1.74
5.39
8.07
9.81
10.69
10.81
10.32
9.40
8.21
6.91
5.60
4.37
3.26
2.27
1.42
0.69
0.01
-0.67
-1.41
-2.29
-3.36
-4.64
-6.10
-7.71
-9.41
-11.23
-13.26
-15.62
-18.47
-21.90
-25.92
-30.35
-34.89
-39.07
-42.38
-44.38
-44.78
-43.57
-41.02
-37.48
-33.31
-28.63
-23.38
-17.42
-10.73
-3.60
3.46
9.82
15.08
19.14
22.22
24.64
26.60
28.05
28.75
28.41
26.94
24.47
21.37
18.05
14.86
11.95
9.33
6.91
4.61
2.43
0.44
-1.24
-2.54
-3.51
-4.27
-5.04
-6.05
-7.44
-9.25
-11.40
-13.69
-15.88
-17.72
-19.08
-19.89
-20.12
-19.67
-18.37
-15.99
-12.40
-7.71
-2.29
3.22
8.18
12.02
14.44
15.40
15.10
13.97
12.60
11.63
11.56
12.54
14.30
16.21
17.64
18.23
18.10
17.72
17.61
18.06
18.98
19.96
20.43
19.88
17.88
14.26
9.14
3.04
-3.09
-8.21
-11.51
-12.79
-12.60
-11.99
-12.01
-13.20
-15.37
-17.74
-19.32
-19.35
-17.58
-14.20
-9.60
-4.28
1.38
7.00
12.14
16.30
18.99
19.87
18.97
16.66
13.63
10.65
8.40
7.31
7.52
8.97
11.38
14.34
17.29
19.57
20.50
19.45
16.09
10.41
2.80
-6.02
-15.10
-23.44
-30.06
-34.19
-35.41
-33.78
-29.91
-24.82
-19.65
-15.38
-12.52
-11.17
-11.09
-11.90
-13.21
-14.64
-15.67
-15.68
-14.00
-10.19
-4.21
3.40
11.70
19.59
26.09
30.62
33.08
33.70
32.96
31.34
29.23
26.86
24.34
21.72
19.04
16.36
13.79
11.42
9.32
7.48
5.79
4.09
2.29
0.39
-1.41
-2.87
-3.80
-4.29
-4.65
-5.41
-6.97
-9.46
-12.66
-16.04
-19.05
-21.28
-22.62
-23.18
-23.24
-23.15
-23.23
-23.71
-24.66
-25.94
-27.21
-27.98
-27.70
-26.07
-23.09
-19.20
-15.08
-11.39
-8.50
-6.40
-4.81
-3.45
-2.20
-1.22
-0.79
-1.15
-2.32
-4.15
-6.42
-8.91
-11.47
-13.87
-15.75
-16.54
-15.61
-12.48
-7.03
0.30
8.59
16.70
23.53
28.38
31.01
31.58
30.53
28.35
25.55
22.58
19.83
17.51
15.64
14.01
12.33
10.45
8.52
7.05
6.63
7.71
10.32
14.02
18.02
21.40
23.43
23.73
22.39
19.96
17.28
15.23
14.40
14.96
16.54
18.40
19.65
19.59
17.89
14.70
10.51
5.98
1.68
-2.12
-5.48
-8.70
-12.13
-15.98
-20.17
-24.47
-28.50
-31.97
-34.72
-36.86
-38.65
-40.53
-42.98
-46.39
-50.97
-56.62
-62.93
-69.25
-74.80
-78.77
-80.48
-79.52
-75.83
-69.73
-61.86
-52.99
-43.77
-34.54
-25.29
-15.81
-5.94
4.15
13.88
22.48
29.23
33.80
36.39
37.62
38.21
38.67
39.12
39.36
39.11
38.28
37.02
35.62
34.32
33.15
31.96
30.54
28.81
26.88
24.93
23.10
21.34
19.45
17.18
14.38
11.04
7.27
3.27
-0.74
-4.44
-7.45
-9.42
-10.18
-9.89
-9.00
-8.14
-7.78
-8.08
-8.84
-9.66
-10.14
-10.06
-9.36
-8.06
-6.18
-3.69
-0.59
3.01
6.84
10.51
13.62
15.91
17.38
18.25
18.92
19.72
20.79
22.02
23.14
23.86
24.08
23.83
23.29
22.59
21.76
20.72
19.31
17.42
15.09
12.43
9.69
7.08
4.81
2.94
1.38
-0.06
-1.64
-3.49
-5.61
-7.87
-10.10
-12.19
-14.10
-15.83
-17.41
-18.82
-20.14
-21.45
-22.85
-24.38
-25.91
-27.12
-27.62
-27.03
-25.22
-22.28
-18.53
-14.38
-10.19
-6.21
-2.64
0.41
2.86
4.63
5.70
6.14
6.08
5.71
5.20
4.67
4.14
3.63
3.14
2.72
2.43
2.32
2.31
2.26
1.95
1.22
0.03
-1.48
-3.04
-4.34
-5.11
-5.25
-4.88
-4.28
-3.77
-3.67
-4.11
-5.09
-6.45
-7.93
-9.34
-10.52
-11.42
-12.13
-12.82
-13.65
-14.73
-16.04
-17.39
-18.49
-18.99
-18.65
-17.31
-15.00
-11.87
-8.16
-4.20
-0.27
3.37
6.48
8.96
10.75
11.92
12.54
12.75
12.64
12.28
11.69
10.94
10.06
9.13
8.16
7.16
6.12
5.07
4.06
3.21
2.60
2.25
2.09
1.95
1.64
1.04
0.15
-0.93
-2.10
-3.31
-4.60
-6.01
-7.58
-9.23
-10.86
-12.34
-13.61
-14.73
-15.86
-17.22
-19.02
-21.37
-24.19
-27.21
-30.00
-32.08
-33.05
-32.73
-31.18
-28.69
-25.54
-21.92
-17.83
-13.17
-7.97
-2.44
2.95
7.67
11.32
13.75
15.13
15.76
15.93
15.81
15.46
14.92
14.31
13.82
13.67
13.90
14.41
14.92
15.18
15.02
14.45
13.61
12.69
11.85
11.12
10.42
9.59
8.47
6.91
4.90
2.57
0.16
-2.08
-4.02
-5.65
-7.14
-8.70
-10.44
-12.42
-14.64
-17.09
-19.74
-22.51
-25.06
-26.94
-27.59
-26.62
-23.94
-19.79
-14.65
-9.01
-3.32
2.05
6.78
10.57
13.24
14.77
15.38
15.45
15.33
15.25
15.21
15.09
14.73
14.08
13.22
12.35
11.65
11.27
11.21
11.36
11.52
11.47
11.07
10.21
8.95
7.44
5.87
4.42
3.16
2.09
1.12
0.14
-0.93
-2.13
-3.49
-4.99
-6.61
-8.28
-9.93
-11.54
-13.12
-14.76
-16.54
-18.51
-20.60
-22.64
-24.31
-25.21
-24.92
-23.16
-19.90
-15.43
-10.29
-5.09
-0.32
3.81
7.34
10.40
13.06
15.21
16.58
16.96
16.33
14.97
13.41
12.23
11.90
12.62
14.29
16.52
18.83
20.80
22.23
23.23
24.20
25.58
27.67
30.39
33.23
35.45
36.42
35.94
34.43
32.85
32.33
33.83
37.74
43.72
50.63
56.53
58.85
54.86
42.46
21.17
-7.24
-38.85
-68.61
-92.00
-106.38
-111.62
-109.52
-102.61
-92.96
-81.59
-68.77
-54.57
-39.47
-24.33
-10.16
2.39
13.09
22.03
29.21
34.34
36.92
36.46
32.96
27.02
19.76
12.48
6.24
1.49
-1.98
-4.83
-7.87
-11.63
-16.23
-21.35
-26.44
-30.91
-34.23
-35.97
-35.82
-33.63
-29.46
-23.62
-16.61
-9.02
-1.32
6.20
13.49
20.67
27.96
35.60
43.76
52.33
60.75
67.96
72.70
73.95
71.47
65.95
58.83
51.70
45.72
41.28
38.11
35.71
33.85
32.67
32.56
33.60
35.22
36.24
35.18
30.94
23.20
12.60
0.38
-12.09
-23.78
-34.23
-43.48
-51.83
-59.59
-66.94
-73.84
-80.14
-85.51
-89.66
-92.43
-93.98
-94.73
-95.32
-96.31
-97.98
-100.16
-102.40
-104.05
-104.54
-103.39
-100.26
-94.92
-87.26
-77.29
-65.19
-51.39
-36.54
-21.50
-7.22
5.47
16.01
24.35
30.86
36.20
40.96
45.40
49.37
52.46
54.30
54.78
54.13
52.79
51.18
49.53
47.86
46.08
44.15
42.16
40.30
38.82
37.76
37.01
36.21
34.94
32.80
29.60
25.39
20.45
15.19
10.04
5.34
1.29
-2.07
-4.87
-7.27
-9.42
-11.30
-12.67
-13.22
-12.65
-10.89
-8.15
-4.86
-1.42
1.87
4.93
7.81
10.61
13.32
15.86
18.08
19.87
21.15
21.88
22.09
21.80
21.07
19.98
18.67
17.27
15.94
14.83
14.02
13.53
13.25
12.98
12.48
11.53
10.07
8.12
5.77
3.10
0.12
-3.11
-6.39
-9.41
-11.82
-13.43
-14.39
-15.14
-16.26
-18.13
-20.69
-23.34
-25.16
-25.19
-22.80
-17.85
-10.76
-2.29
6.64
15.19
22.77
29.04
33.81
36.98
38.39
37.94
35.66
31.80
26.92
21.71
16.80
12.56
9.04
6.02
3.19
0.39
-2.34
-4.73
-6.41
-7.10
-6.67
-5.30
-3.33
-1.19
0.73
2.20
3.15
3.54
3.33
2.44
0.83
-1.42
-4.03
-6.70
-9.23
-11.79
-14.89
-19.29
-25.60
-34.02
-44.13
-54.93
-65.09
-73.39
-78.92
-81.23
-80.21
-75.99
-68.84
-59.22
-47.78
-35.40
-22.99
-11.23
-0.32
10.03
20.38
31.15
42.32
53.30
63.11
70.80
75.75
77.91
77.68
75.82
73.13
70.26
67.64
65.38
63.38
61.40
59.16
56.44
53.19
49.44
45.31
40.94
36.45
32.00
27.76
23.89
20.53
17.70
15.25
12.96
10.60
8.02
5.23
2.38
-0.29
-2.58
-4.45
-6.05
-7.64
-9.50
-11.72
-14.15
-16.39
-17.93
-18.42
-17.67
-15.77
-12.98
-9.53
-5.66
-1.60
2.35
5.79
8.29
9.51
9.33
7.93
5.71
3.12
0.55
-1.82
-3.94
-5.88
-7.71
-9.38
-10.81
-11.84
-12.35
-12.28
-11.67
-10.63
-9.36
-8.02
-6.70
-5.38
-3.95
-2.27
-0.33
1.71
3.53
4.69
4.87
3.97
2.15
-0.29
-3.00
-5.79
-8.57
-11.32
-14.00
-16.45
-18.51
-20.15
-21.47
-22.70
-24.07
-25.58
-26.98
-27.77
-27.44
-25.59
-22.16
-17.38
-11.79
-6.01
-0.67
3.73
6.90
8.74
9.38
9.05
8.02
6.50
4.58
2.30
-0.31
-3.11
-5.88
-8.31
-10.17
-11.34
-11.82
-11.72
-11.14
-10.12
-8.68
-6.87
-4.82
-2.71
-0.79
0.78
1.94
2.74
3.25
3.55
3.59
3.32
2.70
1.73
0.49
-0.86
-2.19
-3.37
-4.35
-5.14
-5.79
-6.38
-6.93
-7.48
-8.05
-8.70
-9.51
-10.56
-11.82
-13.19
-14.41
-15.22
-15.37
-14.73
-13.38
-11.49
-9.36
-7.25
-5.37
-3.81
-2.56
-1.49
-0.42
0.80
2.24
3.82
5.36
6.65
7.57
8.10
8.33
8.41
8.48
8.53
8.51
8.35
8.04
7.64
7.28
7.06
6.97
6.92
6.79
6.54
6.22
5.99
5.97
6.19
6.54
6.81
6.90
6.80
6.64
6.58
6.64
6.65
6.33
5.44
3.87
1.76
-0.63
-3.01
-5.17
-7.02
-8.48
-9.48
-9.90
-9.77
-9.24
-8.65
-8.37
-8.70
-9.68
-11.09
-12.63
-14.00
-15.04
-15.69
-15.88
-15.48
-14.35
-12.36
-9.53
-6.02
-2.11
1.86
5.56
8.65
10.84
12.01
12.15
11.48
10.32
8.97
7.61
6.27
4.87
3.34
1.75
0.20
-1.17
-2.30
-3.19
-3.88
-4.38
-4.64
-4.59
-4.19
-3.54
-2.80
-2.22
-1.94
-2.00
-2.27
-2.53
-2.57
-2.32
-1.93
-1.64
-1.70
-2.20
-3.05
-3.96
-4.67
-5.02
-5.02
-4.77
-4.41
-3.98
-3.51
-3.01
-2.52
-2.17
-2.05
-2.19
-2.52
-2.99
-3.57
-4.24
-5.02
-5.89
-6.81
-7.77
-8.86
-10.20
-11.88
-13.79
-15.62
-16.92
-17.30
-16.60
-14.94
-12.66
-10.15
-7.70
-5.49
-3.57
-1.90
-0.43
0.86
1.95
2.82
3.40
3.66
3.62
3.37
2.99
2.62
2.32
2.12
2.03
2.05
2.22
2.58
3.15
3.89
4.67
5.35
5.82
6.05
6.10
6.05
5.96
5.80
5.49
4.93
4.12
3.15
2.20
1.43
0.93
0.68
0.56
0.37
-0.03
-0.65
-1.44
-2.18
-2.70
-2.83
-2.52
-1.81
-0.86
0.18
1.11
1.75
1.94
1.49
0.24
-1.86
-4.66
-7.92
-11.26
-14.30
-16.73
-18.34
-19.05
-18.87
-17.93
-16.37
-14.41
-12.18
-9.83
-7.43
-5.03
-2.70
-0.51
1.43
3.10
4.51
5.73
6.83
7.80
8.59
9.12
9.41
9.50
9.51
9.56
9.67
9.78
9.77
9.54
9.09
8.48
7.88
7.45
7.24
7.23
7.29
7.30
7.12
6.67
5.96
4.98
3.76
2.33
0.72
-1.00
-2.71
-4.32
-5.72
-6.90
-7.86
-8.64
-9.33
-9.98
-10.69
-11.53
-12.52
-13.69
-14.97
-16.25
-17.41
-18.28
-18.67
-18.41
-17.38
-15.56
-13.09
-10.24
-7.34
-4.67
-2.37
-0.39
1.40
3.15
4.88
6.48
7.70
8.29
8.06
6.98
5.28
3.32
1.58
0.46
0.22
0.91
2.44
4.64
7.36
10.43
13.65
16.71
19.23
20.82
21.25
20.52
18.85
16.56
14.03
11.52
9.23
7.25
5.63
4.38
3.45
2.77
2.29
1.96
1.71
1.51
1.20
0.67
-0.23
-1.50
-3.05
-4.78
-6.61
-8.59
-10.86
-13.54
-16.63
-19.95
-23.15
-25.84
-27.63
-28.27
-27.62
-25.74
-22.77
-18.95
-14.53
-9.75
-4.85
-0.05
4.42
8.29
11.34
13.36
14.27
14.15
13.19
11.69
9.90
8.03
6.25
4.66
3.37
2.50
2.16
2.40
3.23
4.56
6.22
8.01
9.70
11.11
12.10
12.56
12.44
11.71
10.43
8.74
6.82
4.89
3.17
1.76
0.67
-0.17
-0.87
-1.51
-2.09
-2.53
-2.77
-2.77
-2.57
-2.32
-2.17
-2.25
-2.62
-3.30
-4.32
-5.72
-7.58
-9.86
-12.37
-14.74
-16.52
-17.30
-16.93
-15.52
-13.45
-11.13
-8.85
-6.70
-4.59
-2.40
-0.10
2.13
4.05
5.47
6.33
6.78
7.03
7.24
7.43
7.49
7.30
6.87
6.37
6.07
6.19
6.75
7.56
8.28
8.61
8.46
7.95
7.35
6.90
6.73
6.73
6.68
6.34
5.59
4.50
3.27
2.17
1.36
0.86
0.53
0.18
-0.35
-1.13
-2.23
-3.70
-5.60
-7.99
-10.78
-13.77
-16.58
-18.79
-20.09
-20.32
-19.53
-17.92
-15.69
-13.03
-10.08
-6.99
-3.94
-1.09
1.42
3.50
5.17
6.51
7.61
8.51
9.17
9.52
9.50
9.16
8.63
8.12
7.80
7.77
8.01
8.44
8.91
9.34
9.63
9.75
9.62
9.16
8.32
7.11
5.60
3.90
2.10
0.29
-1.43
-2.92
-4.08
-4.79
-5.11
-5.21
-5.38
-5.83
-6.68
-7.86
-9.17
-10.43
-11.52
-12.44
-13.22
-13.89
-14.44
-14.90
-15.34
-15.87
-16.59
-17.46
-18.32
-18.91
-18.99
-18.43
-17.18
-15.27
-12.73
-9.60
-5.96
-2.04
1.81
5.20
7.83
9.66
10.81
11.58
12.19
12.76
13.23
13.52
13.55
13.30
12.88
12.40
11.99
11.73
11.66
11.80
12.15
12.70
13.39
14.14
14.81
15.24
15.31
14.91
14.07
12.87
11.50
10.18
9.09
8.29
7.75
7.29
6.81
6.26
5.71
5.28
5.07
5.04
4.99
4.72
4.04
2.92
1.45
-0.21
-1.93
-3.63
-5.31
-7.00
-8.79
-10.73
-12.91
-15.30
-17.82
-20.24
-22.23
-23.41
-23.52
-22.45
-20.32
-17.44
-14.16
-10.78
-7.46
-4.24
-1.15
1.74
4.21
6.06
7.15
7.54
7.48
7.28
7.19
7.29
7.53
7.77
7.96
8.09
8.23
8.44
8.76
9.21
9.82
10.61
11.58
12.64
13.63
14.34
14.66
14.53
14.02
13.29
12.45
11.61
10.80
10.00
9.16
8.27
7.38
6.54
5.83
5.27
4.82
4.36
3.76
2.95
1.90
0.71
-0.53
-1.71
-2.82
-3.85
-4.85
-5.91
-7.09
-8.53
-10.33
-12.53
-15.09
-17.83
-20.49
-22.83
-24.64
-25.79
-26.16
-25.63
-24.12
-21.62
-18.30
-14.57
-10.90
-7.77
-5.43
-3.86
-2.86
-2.18
-1.65
-1.24
-0.96
-0.76
-0.45
0.23
1.48
3.30
5.49
7.71
9.69
11.36
12.90
14.57
16.58
18.93
21.40
23.73
25.67
27.23
28.51
29.66
30.68
31.39
31.48
30.65
28.78
25.97
22.56
18.99
15.72
13.09
11.31
10.44
10.40
11.04
12.13
13.44
14.89
16.59
18.86
22.19
27.08
33.74
41.91
50.69
58.50
63.43
63.77
58.66
48.50
34.91
20.15
6.38
-5.05
-13.77
-20.21
-25.06
-28.89
-32.02
-34.57
-36.72
-38.73
-40.84
-43.15
-45.48
-47.51
-48.94
-49.63
-49.64
-49.14
-48.28
-47.14
-45.63
-43.57
-40.76
-37.06
-32.52
-27.37
-22.00
-16.90
-12.48
-8.95
-6.34
-4.53
-3.30
-2.47
-1.89
-1.52
-1.38
-1.50
-1.99
-2.95
-4.52
-6.79
-9.79
-13.41
-17.40
-21.41
-25.04
-27.97
-30.01
-31.09
-31.20
-30.31
-28.27
-24.98
-20.40
-14.72
-8.33
-1.79
4.31
9.56
13.71
16.74
18.77
19.99
20.63
20.91
21.02
21.08
21.18
21.35
21.60
21.88
22.17
22.39
22.51
22.53
22.47
22.34
22.07
21.50
20.42
18.68
16.28
13.39
10.31
7.29
4.50
1.93
-0.48
-2.85
-5.17
-7.42
-9.55
-11.59
-13.65
-15.87
-18.39
-21.26
-24.45
-27.83
-31.15
-34.12
-36.34
-37.41
-36.93
-34.66
-30.55
-24.76
-17.68
-9.83
-1.80
5.85
12.66
18.34
22.77
26.03
28.26
29.67
30.39
30.49
29.98
28.88
27.24
25.21
23.00
20.83
18.88
17.28
16.10
15.38
15.07
15.04
15.09
14.93
14.35
13.27
11.76
10.01
8.18
6.33
4.43
2.40
0.15
-2.30
-4.92
-7.65
-10.44
-13.25
-16.02
-18.72
-21.36
-24.03
-26.85
-29.90
-33.04
-35.94
-38.06
-38.82
-37.79
-34.77
-29.91
-23.59
-16.35
-8.80
-1.45
5.28
11.15
16.00
19.78
22.44
23.99
24.49
24.10
23.08
21.76
20.43
19.31
18.48
17.94
17.64
17.52
17.56
17.72
17.87
17.81
17.29
16.14
14.33
12.00
9.34
6.54
3.74
0.94
-1.89
-4.73
-7.57
-10.39
-13.26
-16.35
-19.88
-24.02
-28.84
-34.19
-39.78
-45.16
-49.76
-52.97
-54.18
-52.91
-48.96
-42.51
-34.08
-24.52
-14.71
-5.45
2.73
9.51
14.83
18.73
21.42
23.20
24.42
25.41
26.41
27.47
28.55
29.50
30.24
30.75
31.09
31.33
31.52
31.65
31.72
31.71
31.60
31.29
30.68
29.63
28.05
25.96
23.47
20.75
17.94
15.14
12.37
9.59
6.70
3.55
0.03
-3.93
-8.25
-12.73
-17.06
-20.97
-24.39
-27.41
-30.36
-33.60
-37.40
-41.79
-46.47
-50.92
-54.42
-56.25
-55.81
-52.82
-47.38
-39.94
-31.24
-22.12
-13.32
-5.36
1.55
7.47
12.61
17.19
21.36
25.17
28.58
31.52
33.98
35.98
37.60
38.93
40.06
41.06
41.96
42.71
43.22
43.30
42.76
41.41
39.15
36.04
32.25
28.09
23.90
19.96
16.48
13.56
11.22
9.42
8.11
7.16
6.48
5.93
5.47
5.12
4.95
5.03
5.27
5.47
5.35
4.62
3.18
1.11
-1.38
-4.03
-6.71
-9.47
-12.50
-16.01
-20.07
-24.58
-29.24
-33.62
-37.28
-39.78
-40.80
-40.17
-37.86
-33.98
-28.80
-22.75
-16.28
-9.85
-3.85
1.44
5.88
9.42
12.15
14.16
15.60
16.61
17.29
17.75
18.08
18.36
18.63
18.88
19.13
19.37
19.64
19.98
20.39
20.83
21.22
21.43
21.37
21.02
20.39
19.55
18.51
17.31
15.97
14.47
12.85
11.12
9.30
7.48
5.74
4.19
2.97
2.12
1.57
1.18
0.74
0.07
-0.92
-2.26
-3.83
-5.57
-7.46
-9.57
-12.00
-14.84
-18.06
-21.41
-24.46
-26.69
-27.63
-26.99
-24.81
-21.38
-17.16
-12.68
-8.34
-4.46
-1.17
1.50
3.60
5.23
6.53
7.59
8.47
9.18
9.68
9.92
9.89
9.64
9.27
8.93
8.78
8.92
9.36
9.97
10.57
10.98
11.11
10.98
10.66
10.17
9.52
8.63
7.53
6.36
5.31
4.53
4.00
3.49
2.69
1.34
-0.61
-3.00
-5.58
-8.06
-10.28
-12.14
-13.61
-14.74
-15.65
-16.50
-17.52
-18.86
-20.56
-22.45
-24.22
-25.42
-25.63
-24.58
-22.25
-18.87
-14.86
-10.69
-6.79
-3.39
-0.55
1.82
3.81
5.46
6.73
7.60
8.12
8.43
8.74
9.18
9.78
10.43
10.95
11.22
11.21
11.07
10.93
10.93
11.09
11.30
11.42
11.35
11.06
10.61
10.08
9.51
8.93
8.29
7.52
6.63
5.66
4.69
3.79
3.06
2.52
2.18
1.97
1.78
1.46
0.87
-0.04
-1.30
-2.85
-4.57
-6.37
-8.14
-9.78
-11.23
-12.51
-13.74
-15.14
-16.92
-19.23
-21.96
-24.79
-27.24
-28.80
-29.09
-27.98
-25.56
-22.09
-17.92
-13.39
-8.80
-4.38
-0.31
3.22
6.09
8.22
9.62
10.35
10.55
10.34
9.82
9.07
8.19
7.28
6.50
5.99
5.85
6.14
6.86
7.95
9.31
10.78
12.17
13.24
13.85
13.96
13.66
13.11
12.48
11.81
11.05
10.10
8.87
7.42
5.88
4.46
3.28
2.37
1.65
1.00
0.38
-0.22
-0.70
-1.02
-1.22
-1.42
-1.82
-2.60
-3.83
-5.43
-7.21
-8.98
-10.66
-12.26
-13.96
-15.95
-18.34
-21.05
-23.86
-26.43
-28.41
-29.50
-29.48
-28.24
-25.72
-21.97
-17.21
-11.83
-6.33
-1.25
2.98
6.22
8.51
10.03
10.96
11.40
11.34
10.77
9.77
8.50
7.21
6.14
5.44
5.14
5.23
5.62
6.24
7.00
7.81
8.59
9.25
9.76
10.08
10.18
10.00
9.46
8.51
7.16
5.53
3.81
2.19
0.84
-0.19
-0.98
-1.59
-2.10
-2.51
-2.80
-2.99
-3.14
-3.38
-3.83
-4.54
-5.46
-6.42
-7.28
-8.01
-8.73
-9.67
-11.09
-13.08
-15.53
-18.09
-20.32
-21.74
-22.04
-21.05
-18.79
-15.46
-11.33
-6.74
-2.03
2.44
6.35
9.50
11.75
13.11
13.67
13.60
13.05
12.13
10.98
9.69
8.40
7.29
6.56
6.32
6.60
7.31
8.27
9.25
10.07
10.57
10.69
10.42
9.78
8.81
7.56
6.12
4.58
3.07
1.70
0.51
-0.55
-1.59
-2.74
-4.08
-5.62
-7.20
-8.65
-9.75
-10.46
-10.85
-11.12
-11.48
-12.09
-12.99
-14.16
-15.54
-17.08
-18.80
-20.68
-22.66
-24.55
-26.02
-26.71
-26.29
-24.63
-21.79
-18.08
-13.90
-9.67
-5.68
-2.05
1.22
4.15
6.71
8.80
10.29
11.15
11.46
11.45
11.37
11.41
11.63
11.97
12.34
12.69
13.00
13.35
13.76
14.20
14.58
14.83
14.90
14.86
14.77
14.66
14.47
14.04
13.23
12.00
10.45
8.80
7.25
5.89
4.71
3.54
2.27
0.83
-0.73
-2.34
-3.94
-5.51
-7.00
-8.36
-9.53
-10.54
-11.55
-12.88
-14.89
-17.82
-21.55
-25.61
-29.23
-31.63
-32.20
-30.71
-27.35
-22.61
-17.13
-11.54
-6.32
-1.77
1.97
4.88
7.03
8.51
9.49
10.12
10.54
10.84
10.98
10.90
10.52
9.87
9.06
8.30
7.73
7.42
7.33
7.39
7.52
7.68
7.90
8.19
8.52
8.87
9.22
9.55
9.84
10.03
10.01
9.66
8.88
7.73
6.37
4.97
3.70
2.61
1.70
0.90
0.17
-0.54
-1.30
-2.21
-3.39
-4.89
-6.69
-8.65
-10.63
-12.59
-14.57
-16.68
-18.94
-21.21
-23.16
-24.35
-24.40
-23.11
-20.49
-16.83
-12.49
-7.86
-3.27
1.00
4.70
7.65
9.67
10.78
11.09
10.90
10.62
10.57
10.93
11.64
12.43
12.98
13.06
12.62
11.84
11.02
10.53
10.68
11.73
13.75
16.57
19.80
22.79
24.88
25.55
24.64
22.35
19.05
15.15
10.84
6.07
0.66
-5.48
-12.26
-19.33
-26.03
-31.69
-35.76
-38.11
-39.16
-39.74
-40.76
-42.95
-46.53
-51.28
-56.78
-62.64
-68.45
-73.56
-77.03
-77.96
-75.93
-71.32
-65.17
-58.77
-53.07
-48.28
-44.10
-39.97
-35.70
-31.42
-27.22
-22.79
-17.52
-10.97
-3.23
5.08
13.63
22.16
30.66
39.39
48.82
59.29
70.76
82.70
94.15
104.51
112.49
116.14
113.96
105.79
93.03
77.81
62.06
46.71
32.83
19.91
6.53
-8.01
-22.10
-32.05
-33.48
-23.00
0.25
35.53
78.01
119.85
153.07
172.62
177.31
169.04
151.46
118.25
71.81
22.34
-19.05
-47.16
-61.99
-66.03
-62.96
-57.00
-52.20
-49.51
-48.72
-48.93
-49.22
-48.50
-46.81
-45.66
-46.79
-51.47
-58.38
-66.50
-75.03
-83.70
-91.47
-97.05
-99.47
-98.23
-94.02
-87.26
-78.53
-68.03
-55.32
-38.77
-17.49
7.51
33.44
55.91
71.48
78.80
79.36
73.40
64.68
57.72
53.13
52.31
54.64
57.89
59.34
56.88
49.13
36.03
18.08
-3.28
-24.96
-45.22
-61.78
-72.73
-77.35
-76.24
-70.40
-61.31
-50.65
-39.77
-29.44
-20.92
-14.94
-11.39
-9.40
-7.60
-5.11
-2.02
0.94
2.54
1.99
-0.49
-3.91
-7.02
-8.84
-9.18
-8.52
-7.55
-6.92
-6.81
-6.93
-6.74
-5.90
-4.39
-2.52
-0.83
0.23
0.40
-0.33
-1.68
-3.28
-4.81
-6.16
-7.37
-8.60
-10.00
-11.60
-13.35
-15.12
-16.86
-18.74
-21.16
-24.59
-29.33
-35.23
-41.56
-47.12
-50.55
-50.76
-47.31
-40.53
-31.37
-21.09
-10.79
-1.25
7.23
14.61
20.93
26.16
30.19
32.90
34.33
34.71
34.51
34.18
34.12
34.41
34.94
35.38
35.43
34.95
34.00
32.84
31.76
30.90
30.18
29.29
27.86
25.62
22.56
18.94
15.16
11.58
8.38
5.53
2.80
-0.04
-3.17
-6.61
-10.27
-13.97
-17.57
-20.97
-24.12
-27.11
-30.11
-33.40
-37.22
-41.74
-46.86
-52.15
-56.83
-59.94
-60.58
-58.13
-52.43
-43.85
-33.08
-21.04
-8.62
3.46
14.67
24.71
33.39
40.66
46.56
51.21
54.78
57.41
59.22
60.24
60.44
59.78
58.25
56.00
53.32
50.64
48.41
46.96
46.34
46.27
46.23
45.69
44.29
42.02
39.13
36.00
32.94
30.04
27.24
24.45
21.62
18.87
16.34
14.12
12.11
10.07
7.67
4.59
0.67
-4.06
-9.40
-15.00
-20.48
-25.50
-29.92
-33.88
-37.70
-41.85
-46.65
-51.98
-57.24
-61.33
-63.04
-61.38
-56.04
-47.43
-36.59
-24.89
-13.56
-3.48
4.94
11.66
16.89
20.92
24.02
26.40
28.22
29.55
30.44
30.92
31.04
30.89
30.54
30.09
29.60
29.13
28.71
28.33
27.90
27.24
26.13
24.33
21.72
18.32
14.37
10.23
6.33
3.03
0.53
-1.15
-2.20
-2.91
-3.61
-4.55
-5.87
-7.54
-9.46
-11.46
-13.40
-15.30
-17.29
-19.62
-22.57
-26.30
-30.72
-35.41
-39.65
-42.55
-43.25
-41.14
-36.15
-28.73
-19.89
-10.85
-2.77
3.64
8.18
11.06
12.70
13.40
13.35
12.61
11.30
9.74
8.36
7.58
7.61
8.37
9.53
10.72
11.55
11.78
11.33
10.33
9.22
8.76
9.88
13.31
19.29
27.26
35.94
43.64
48.88
50.79
49.35
45.18
39.31
32.70
26.06
19.79
14.03
8.79
4.01
-0.40
-4.59
-8.65
-12.64
-16.52
-20.19
-23.51
-26.48
-29.18
-31.86
-34.82
-38.27
-42.22
-46.36
-49.97
-52.10
-51.79
-48.40
-41.89
-32.92
-22.64
-12.36
-3.08
4.69
10.93
15.88
19.78
22.74
24.78
25.94
26.39
26.42
26.29
26.22
26.28
26.54
27.06
27.96
29.31
31.09
33.06
34.86
36.04
36.23
35.24
33.08
29.96
26.17
22.02
17.76
13.51
9.28
5.01
0.61
-3.91
-8.42
-12.66
-16.29
-19.04
-20.75
-21.48
-21.43
-20.86
-19.95
-18.76
-17.16
-15.05
-12.40
-9.49
-6.78
-4.83
-4.01
-4.36
-5.50
-6.84
-7.75
-7.80
-6.87
-5.05
-2.57
0.35
3.52
6.73
9.73
12.23
13.95
14.78
14.82
14.32
13.59
12.92
12.47
12.27
12.24
12.27
12.25
12.08
11.72
11.17
10.48
9.67
8.81
7.91
6.96
5.93
4.78
3.50
2.14
0.75
-0.60
-1.86
-3.03
-4.17
-5.34
-6.56
-7.79
-8.92
-9.85
-10.59
-11.27
-12.11
-13.35
-15.13
-17.40
-19.99
-22.60
-24.94
-26.71
-27.65
-27.55
-26.25
-23.75
-20.19
-15.88
-11.23
-6.72
-2.74
0.51
3.01
4.98
6.66
8.23
9.70
10.95
11.79
12.14
12.08
11.77
11.46
11.26
11.17
11.07
10.86
10.52
10.09
9.64
9.21
8.77
8.27
7.67
6.96
6.22
5.49
4.84
4.21
3.56
2.81
1.89
0.82
-0.39
-1.72
-3.17
-4.76
-6.54
-8.46
-10.44
-12.37
-14.21
-16.06
-18.10
-20.56
-23.54
-26.96
-30.59
-34.04
-36.88
-38.70
-39.15
-37.93
-34.91
-30.21
-24.18
-17.40
-10.51
-4.03
1.72
6.70
10.95
14.53
17.40
19.46
20.59
20.80
20.24
19.15
17.81
16.40
15.05
13.80
12.73
11.90
11.36
11.07
10.89
10.66
10.20
9.42
8.38
7.17
5.90
4.64
3.40
2.21
1.11
0.15
-0.68
-1.47
-2.39
-3.60
-5.18
-7.04
-8.96
-10.72
-12.21
-13.56
-15.11
-17.24
-20.23
-24.00
-28.16
-32.06
-34.99
-36.37
-35.89
-33.46
-29.24
-23.52
-16.75
-9.56
-2.58
3.57
8.48
12.05
14.40
15.81
16.53
16.77
16.66
16.35
16.04
16.00
16.38
17.19
18.21
19.10
19.52
19.33
18.63
17.70
16.88
16.31
15.94
15.47
14.56
13.07
11.04
8.77
6.61
4.78
3.32
2.10
0.94
-0.30
-1.68
-3.22
-4.94
-6.92
-9.25
-12.00
-15.11
-18.47
-21.93
-25.36
-28.68
-31.82
-34.60
-36.74
-37.78
-37.27
-34.86
-30.48
-24.40
-17.24
-9.77
-2.74
3.22
7.80
10.92
12.75
13.54
13.63
13.31
12.83
12.36
11.96
11.65
11.37
11.05
10.67
10.24
9.82
9.50
9.37
9.43
9.58
9.65
9.47
8.90
7.90
6.55
4.97
3.31
1.66
0.13
-1.20
-2.26
-3.01
-3.51
-3.95
-4.56
-5.57
-7.14
-9.29
-11.89
-14.70
-17.39
-19.52
-20.66
-20.35
-18.33
-14.61
-9.52
-3.69
2.12
7.30
11.53
14.80
17.31
19.25
20.66
21.44
21.49
20.83
19.69
18.46
17.49
16.94
16.73
16.61
16.32
15.75
14.96
14.08
13.19
12.26
11.13
9.62
7.65
5.25
2.55
-0.29
-3.12
-5.83
-8.35
-10.66
-12.92
-15.45
-18.65
-22.89
-28.24
-34.39
-40.63
-46.09
-49.93
-51.56
-50.71
-47.41
-41.97
-34.96
-27.08
-19.13
-11.79
-5.48
-0.29
4.00
7.72
11.16
14.45
17.62
20.61
23.37
25.80
27.67
28.63
28.33
26.54
23.45
19.58
15.70
12.55
10.59
9.89
10.19
11.02
11.93
12.59
12.83
12.64
12.06
11.12
9.81
8.11
6.03
3.63
1.04
-1.59
-4.22
-6.94
-9.85
-12.95
-16.02
-18.59
-20.13
-20.30
-19.10
-16.80
-13.82
-10.47
-6.86
-2.94
1.31
5.77
10.09
13.85
16.72
18.58
19.51
19.74
19.56
19.22
18.90
18.68
18.49
18.13
17.35
15.89
13.68
10.96
8.21
6.08
5.16
5.75
7.76
10.73
13.92
16.55
17.98
17.87
16.29
13.63
10.49
7.45
4.90
3.01
1.70
0.88
0.45
0.37
0.62
1.02
1.26
0.98
-0.16
-2.22
-5.05
-8.26
-11.38
-14.05
-16.03
-17.25
-17.73
-17.50
-16.60
-15.07
-13.01
-10.63
-8.15
-5.82
-3.82
-2.25
-1.15
-0.47
-0.09
0.22
0.70
1.63
3.16
5.27
7.74
10.18
12.18
13.43
13.83
13.49
12.60
11.35
9.78
7.91
5.71
3.26
0.74
-1.65
-3.75
-5.55
-7.11
-8.47
-9.60
-10.38
-10.68
-10.51
-10.03
-9.52
-9.29
-9.58
-10.49
-11.97
-13.86
-15.94
-17.90
-19.45
-20.36
-20.54
-20.05
-19.03
-17.62
-15.87
-13.72
-11.08
-7.95
-4.43
-0.73
2.86
6.10
8.72
10.56
11.44
11.33
10.31
8.63
6.63
4.58
2.59
0.62
-1.47
-3.75
-6.16
-8.45
-10.36
-11.73
-12.63
-13.29
-14.04
-15.11
-16.60
-18.39
-20.28
-22.02
-23.52
-24.90
-26.43
-28.47
-31.32
-34.99
-39.22
-43.39
-46.74
-48.51
-48.16
-45.52
-40.81
-34.63
-27.68
-20.68
-14.11
-8.22
-2.99
1.74
6.19
10.52
14.82
19.09
23.29
27.33
31.04
34.24
36.68
38.10
38.27
37.07
34.56
31.04
26.92
22.62
18.47
14.59
10.97
7.60
4.55
1.99
0.09
-1.10
-1.72
-2.06
-2.43
-3.03
-3.89
-4.91
-6.00
-7.18
-8.57
-10.40
-12.97
-16.47
-20.99
-26.44
-32.52
-38.70
-44.35
-48.72
-51.15
-51.10
-48.34
-43.02
-35.59
-26.78
-17.34
-7.94
0.96
9.12
16.41
22.76
28.02
32.13
35.20
37.61
39.90
42.59
45.86
49.44
52.63
54.65
55.02
53.73
51.34
48.62
46.27
44.63
43.66
43.05
42.44
41.52
40.12
38.19
35.72
32.80
29.54
26.11
22.67
19.36
16.24
13.24
10.30
7.33
4.28
1.20
-1.86
-4.80
-7.50
-9.85
-11.69
-12.88
-13.36
-13.20
-12.60
-11.91
-11.44
-11.36
-11.68
-12.37
-13.37
-14.78
-16.69
-19.09
-21.76
-24.21
-25.87
-26.24
-25.14
-22.69
-19.27
-15.39
-11.48
-7.82
-4.54
-1.62
0.98
3.31
5.37
7.16
8.64
9.85
10.76
11.37
11.62
11.42
10.77
9.75
8.56
7.43
6.53
5.90
5.48
5.19
4.95
4.79
4.78
5.02
5.51
6.18
6.89
7.49
7.83
7.87
7.64
7.21
6.70
6.17
5.67
5.17
4.60
3.85
2.86
1.64
0.27
-1.04
-2.13
-2.86
-3.24
-3.39
-3.52
-3.83
-4.42
-5.35
-6.56
-7.96
-9.44
-10.94
-12.39
-13.75
-15.01
-16.17
-17.17
-17.90
-18.19
-17.83
-16.72
-14.86
-12.46
-9.78
-7.12
-4.66
-2.43
-0.38
1.57
3.39
4.96
6.07
6.57
6.49
5.97
5.29
4.72
4.42
4.39
4.51
4.61
4.58
4.35
3.96
3.48
3.00
2.57
2.17
1.80
1.46
1.16
0.94
0.86
0.94
1.18
1.56
2.01
2.39
2.50
2.17
1.24
-0.36
-2.49
-4.85
-7.01
-8.54
-9.18
-8.88
-7.88
-6.54
-5.27
-4.36
-3.91
-3.86
-4.07
-4.36
-4.63
-4.81
-4.88
-4.89
-4.97
-5.30
-6.10
-7.44
-9.22
-11.10
-12.63
-13.38
-13.09
-11.80
-9.75
-7.36
-5.02
-3.02
-1.48
-0.38
0.39
0.94
1.40
1.84
2.32
2.85
3.35
3.70
3.77
3.42
2.65
1.56
0.36
-0.75
-1.57
-2.00
-2.04
-1.74
-1.16
-0.41
0.42
1.24
1.95
2.52
2.87
3.02
2.98
2.80
2.50
2.12
1.67
1.15
0.59
0.06
-0.34
-0.51
-0.40
-0.02
0.49
0.96
1.25
1.26
0.98
0.48
-0.13
-0.75
-1.31
-1.76
-2.09
-2.32
-2.54
-2.84
-3.33
-4.02
-4.81
-5.49
-5.77
-5.46
-4.52
-3.07
-1.42
0.15
1.45
2.41
3.04
3.42
3.55
3.44
3.13
2.65
2.09
1.52
0.99
0.49
0.04
-0.36
-0.67
-0.86
-0.93
-0.91
-0.82
-0.66
-0.40
-0.04
0.38
0.77
1.03
1.06
0.81
0.32
-0.29
-0.89
-1.41
-1.83
-2.19
-2.59
-3.09
-3.73
-4.44
-5.16
-5.79
-6.30
-6.71
-7.06
-7.38
-7.70
-8.02
-8.31
-8.59
-8.90
-9.26
-9.69
-10.13
-10.50
-10.73
-10.75
-10.56
-10.17
-9.58
-8.78
-7.74
-6.45
-4.90
-3.17
-1.34
0.49
2.21
3.69
4.80
5.44
5.59
5.32
4.87
4.49
4.45
4.92
5.85
7.09
8.37
9.50
10.44
11.29
12.28
13.63
15.38
17.39
19.34
20.94
22.07
22.86
23.63
24.75
26.44
28.76
31.59
34.76
38.02
40.91
42.68
42.35
39.07
32.48
23.06
12.06
1.07
-8.59
-16.29
-22.10
-26.51
-29.96
-32.62
-34.36
-35.05
-34.79
-33.88
-32.73
-31.64
-30.66
-29.65
-28.39
-26.74
-24.77
-22.66
-20.67
-19.05
-17.90
-17.20
-16.76
-16.30
-15.58
-14.48
-13.05
-11.50
-10.04
-8.85
-7.95
-7.30
-6.78
-6.33
-5.91
-5.53
-5.18
-4.82
-4.42
-3.98
-3.54
-3.18
-2.94
-2.89
-3.01
-3.32
-3.83
-4.48
-5.19
-5.85
-6.39
-6.82
-7.24
-7.81
-8.65
-9.72
-10.77
-11.49
-11.55
-10.82
-9.34
-7.35
-5.19
-3.19
-1.56
-0.38
0.46
1.12
1.78
2.50
3.25
3.90
4.35
4.59
4.74
4.90
5.18
5.59
6.05
6.51
6.94
7.36
7.79
8.22
8.56
8.73
8.66
8.35
7.86
7.27
6.66
6.12
5.71
5.49
5.50
5.68
5.90
6.01
5.91
5.58
5.04
4.38
3.64
2.89
2.16
1.47
0.86
0.36
-0.08
-0.54
-1.12
-1.88
-2.84
-3.94
-5.13
-6.38
-7.66
-8.99
-10.36
-11.75
-13.11
-14.32
-15.29
-15.80
-15.66
-14.74
-13.02
-10.64
-7.85
-4.96
-2.20
0.27
2.39
4.08
5.30
5.99
6.19
6.03
5.76
5.65
5.85
6.32
6.90
7.38
7.63
7.69
7.79
8.11
8.76
9.64
10.49
11.05
11.12
10.72
9.98
9.12
8.30
7.55
6.82
6.01
5.08
4.09
3.19
2.53
2.18
2.06
1.98
1.77
1.33
0.68
-0.04
-0.71
-1.25
-1.67
-2.02
-2.35
-2.67
-2.99
-3.29
-3.56
-3.81
-4.07
-4.36
-4.66
-5.01
-5.47
-6.14
-7.15
-8.51
-10.06
-11.47
-12.29
-12.18
-10.98
-8.80
-5.99
-2.99
-0.17
2.21
4.02
5.28
6.05
6.44
6.55
6.47
6.29
6.12
6.10
6.29
6.68
7.15
7.51
7.59
7.35
6.93
6.61
6.63
7.09
7.87
8.72
9.39
9.73
9.71
9.33
8.59
7.48
5.97
4.17
2.27
0.49
-1.04
-2.28
-3.33
-4.30
-5.22
-6.05
-6.69
-7.08
-7.25
-7.31
-7.41
-7.61
-7.96
-8.41
-8.89
-9.37
-9.79
-10.10
-10.27
-10.26
-10.10
-9.91
-9.89
-10.34
-11.49
-13.38
-15.83
-18.37
-20.37
-21.22
-20.46
-17.96
-13.86
-8.53
-2.51
3.67
9.47
14.45
18.31
21.00
22.70
23.80
24.73
25.80
27.07
28.32
29.19
29.40
28.85
27.74
26.46
25.40
24.79
24.58
24.50
24.21
23.44
22.18
20.62
19.03
17.61
16.43
15.40
14.42
13.45
12.59
11.91
11.45
11.14
10.80
10.30
9.58
8.65
7.54
6.23
4.61
2.60
0.27
-2.20
-4.51
-6.43
-7.87
-8.97
-10.00
-11.30
-13.11
-15.50
-18.33
-21.25
-23.80
-25.56
-26.26
-25.82
-24.36
-22.05
-19.10
-15.68
-11.93
-7.99
-4.02
-0.11
3.76
7.69
11.78
16.02
20.21
24.00
27.03
29.12
30.37
31.00
31.26
31.16
30.46
28.77
25.82
21.60
16.45
10.87
5.45
0.60
-3.41
-6.46
-8.52
-9.63
-9.93
-9.69
-9.23
-8.93
-9.09
-9.84
-11.19
-12.98
-14.92
-16.73
-18.17
-19.10
-19.57
-19.75
-19.89
-20.30
-21.22
-22.81
-25.07
-27.80
-30.56
-32.78
-33.94
-33.72
-32.17
-29.62
-26.58
-23.49
-20.64
-18.08
-15.75
-13.52
-11.26
-8.92
-6.49
-4.06
-1.81
0.07
1.41
2.17
2.43
2.37
2.19
2.04
2.01
2.16
2.54
3.20
4.13
5.22
6.25
6.98
7.19
6.79
5.83
4.48
2.90
1.21
-0.53
-2.32
-4.14
-6.02
-7.96
-9.98
-12.12
-14.38
-16.75
-19.15
-21.57
-24.05
-26.79
-30.00
-33.85
-38.23
-42.72
-46.58
-48.93
-49.00
-46.37
-41.09
-33.64
-24.81
-15.50
-6.48
1.68
8.64
14.25
18.53
21.58
23.61
24.80
25.32
25.27
24.68
23.60
22.15
20.55
19.10
18.08
17.68
17.87
18.47
19.12
19.49
19.36
18.66
17.50
16.04
14.42
12.68
10.79
8.68
6.32
3.74
1.03
-1.72
-4.49
-7.27
-10.12
-13.16
-16.51
-20.31
-24.65
-29.47
-34.40
-38.76
-41.66
-42.24
-39.89
-34.62
-26.97
-17.93
-8.58
0.20
7.85
14.16
19.16
22.88
25.36
26.68
26.94
26.40
25.36
24.13
22.92
21.84
20.93
20.18
19.61
19.20
18.92
18.68
18.35
17.82
16.97
15.74
14.13
12.15
9.87
7.38
4.81
2.34
0.23
-1.26
-1.92
-1.71
-0.80
0.43
1.53
2.10
1.96
1.11
-0.32
-2.25
-4.72
-7.88
-11.94
-17.02
-23.10
-29.99
-37.31
-44.50
-50.87
-55.52
-57.65
-56.67
-52.43
-45.37
-36.41
-26.70
-17.32
-9.00
-1.98
3.91
8.97
13.40
17.18
20.02
21.70
22.24
22.12
22.26
23.55
26.26
29.84
33.18
35.12
34.98
32.85
29.51
26.32
24.58
24.99
27.34
30.77
34.02
35.83
35.30
32.20
27.35
22.06
17.56
14.86
14.99
18.87
26.81
37.86
49.67
59.90
66.40
67.52
62.91
54.09
43.36
32.17
20.32
6.58
-7.93
-20.93
-31.01
-38.30
-43.43
-46.83
-48.32
-46.87
-40.79
-25.84
-0.49
30.10
55.77
67.08
59.91
36.47
4.21
-26.52
-41.21
-28.15
15.30
83.06
164.47
247.62
320.80
374.47
379.39
322.11
222.11
118.13
37.48
-14.97
-47.50
-70.27
-89.29
-105.53
-114.52
-111.82
-100.87
-90.37
-88.20
-97.47
-116.88
-142.69
-170.58
-194.22
-202.84
-193.02
-166.51
-128.03
-84.19
-43.37
-14.19
-2.59
-7.47
-22.24
-39.86
-54.45
-62.28
-61.98
-54.42
-41.97
-27.33
-11.88
3.49
16.56
24.89
26.89
22.67
13.77
2.70
-7.61
-14.23
-15.30
-11.29
-4.35
2.67
7.40
8.68
6.86
3.39
0.03
-1.94
-2.40
-2.04
-1.86
-2.64
-4.51
-6.91
-8.92
-9.65
-8.70
-6.31
-3.16
-0.14
2.07
3.14
3.19
2.59
1.78
0.96
0.16
-0.79
-2.04
-3.72
-5.92
-8.71
-12.16
-16.31
-21.04
-26.07
-31.05
-35.65
-39.61
-42.63
-44.38
-44.38
-42.21
-37.73
-31.27
-23.62
-15.78
-8.60
-2.49
2.54
6.75
10.34
13.33
15.64
17.16
17.98
18.33
18.52
18.74
18.99
19.17
19.19
19.10
19.13
19.57
20.69
22.51
24.81
27.20
29.21
30.52
31.03
30.88
30.36
29.82
29.50
29.51
29.77
30.10
30.32
30.28
29.92
29.23
28.26
27.06
25.70
24.24
22.65
20.86
18.67
15.86
12.25
7.77
2.47
-3.48
-9.75
-15.95
-21.54
-25.99
-28.81
-29.66
-28.53
-25.61
-21.36
-16.26
-10.85
-5.56
-0.76
3.27
6.36
8.51
9.81
10.42
10.52
10.23
9.65
8.91
8.16
7.52
7.05
6.71
6.41
6.08
5.74
5.51
5.49
5.73
6.12
6.50
6.67
6.48
5.86
4.77
3.25
1.39
-0.60
-2.45
-3.96
-5.03
-5.81
-6.55
-7.55
-8.93
-10.61
-12.39
-14.08
-15.62
-17.11
-18.75
-20.72
-23.14
-26.00
-29.16
-32.35
-35.16
-37.06
-37.49
-36.00
-32.37
-26.74
-19.58
-11.65
-3.77
3.30
9.03
13.20
15.83
17.16
17.49
17.11
16.26
15.16
14.01
13.02
12.35
12.02
11.95
11.95
11.85
11.57
11.13
10.64
10.21
9.88
9.63
9.38
9.04
8.56
7.88
7.01
5.96
4.81
3.66
2.58
1.63
0.74
-0.23
-1.46
-3.11
-5.27
-7.89
-10.81
-13.75
-16.46
-18.77
-20.65
-22.22
-23.78
-25.69
-28.24
-31.54
-35.35
-39.14
-42.03
-43.11
-41.63
-37.26
-30.23
-21.33
-11.69
-2.46
5.47
11.66
16.08
19.02
20.90
22.06
22.74
23.09
23.22
23.24
23.26
23.34
23.51
23.71
23.88
23.98
24.00
24.01
24.10
24.31
24.53
24.54
24.09
22.98
21.20
18.95
16.51
14.18
12.14
10.41
8.90
7.48
6.05
4.55
2.97
1.29
-0.49
-2.37
-4.37
-6.51
-8.87
-11.59
-14.80
-18.50
-22.59
-26.80
-30.83
-34.44
-37.57
-40.39
-43.26
-46.60
-50.77
-55.91
-61.73
-67.55
-72.33
-74.98
-74.59
-70.82
-64.01
-55.10
-45.32
-35.85
-27.43
-20.34
-14.44
-9.41
-5.01
-1.11
2.30
5.19
7.62
9.74
11.82
14.16
17.00
20.46
24.45
28.66
32.62
35.82
37.90
38.77
38.64
37.87
36.84
35.82
34.86
33.92
32.92
31.84
30.70
29.50
28.25
26.88
25.38
23.84
22.43
21.36
20.76
20.59
20.67
20.72
20.47
19.81
18.73
17.34
15.81
14.27
12.82
11.49
10.26
9.06
7.72
6.04
3.79
0.81
-2.91
-7.17
-11.58
-15.60
-18.68
-20.38
-20.38
-18.62
-15.19
-10.42
-4.80
1.10
6.74
11.74
15.87
19.13
21.53
23.09
23.77
23.52
22.37
20.54
18.38
16.32
14.67
13.60
13.06
12.91
12.96
13.06
13.13
13.09
12.89
12.46
11.73
10.70
9.38
7.84
6.12
4.24
2.21
0.11
-1.97
-3.88
-5.50
-6.74
-7.66
-8.37
-9.01
-9.73
-10.64
-11.82
-13.31
-15.09
-17.02
-18.93
-20.59
-21.89
-22.88
-23.79
-24.91
-26.51
-28.62
-30.97
-32.99
-33.91
-33.06
-30.04
-24.92
-18.25
-10.83
-3.54
2.93
8.18
12.13
14.91
16.74
17.88
18.57
18.98
19.24
19.44
19.61
19.75
19.85
19.88
19.82
19.65
19.44
19.31
19.39
19.74
20.28
20.75
20.85
20.36
19.30
17.86
16.41
15.19
14.29
13.56
12.75
11.61
9.99
7.93
5.55
3.06
0.62
-1.63
-3.64
-5.41
-7.03
-8.57
-10.15
-11.81
-13.57
-15.42
-17.32
-19.28
-21.34
-23.57
-26.07
-28.89
-32.00
-35.23
-38.22
-40.43
-41.24
-40.11
-36.74
-31.24
-24.16
-16.28
-8.48
-1.45
4.41
9.03
12.51
15.03
16.72
17.70
18.06
17.96
17.58
17.11
16.71
16.40
16.15
15.90
15.62
15.31
15.04
14.85
14.77
14.78
14.82
14.78
14.57
14.13
13.44
12.51
11.42
10.27
9.12
7.99
6.90
5.80
4.65
3.41
2.10
0.74
-0.62
-1.94
-3.20
-4.49
-5.92
-7.56
-9.40
-11.34
-13.18
-14.82
-16.25
-17.65
-19.27
-21.29
-23.83
-26.80
-30.01
-33.14
-35.71
-37.16
-36.88
-34.40
-29.61
-22.85
-14.92
-6.83
0.54
6.62
11.29
14.71
17.19
18.97
20.22
20.99
21.36
21.41
21.28
21.14
21.07
21.12
21.25
21.34
21.26
20.94
20.34
19.57
18.75
18.01
17.35
16.67
15.81
14.61
12.98
10.93
8.56
5.98
3.32
0.67
-1.89
-4.34
-6.70
-9.01
-11.35
-13.75
-16.18
-18.52
-20.64
-22.44
-23.96
-25.32
-26.78
-28.64
-31.10
-34.18
-37.70
-41.14
-43.80
-44.85
-43.63
-39.76
-33.36
-25.06
-15.85
-6.82
1.12
7.43
12.05
15.27
17.50
19.07
20.17
20.83
20.98
20.65
20.00
19.28
18.74
18.55
18.69
19.05
19.45
19.77
19.96
20.05
20.10
20.07
19.88
19.43
18.64
17.53
16.17
14.66
13.04
11.29
9.36
7.21
4.93
2.64
0.51
-1.32
-2.82
-4.14
-5.48
-7.06
-9.03
-11.37
-13.90
-16.34
-18.50
-20.31
-21.95
-23.78
-26.19
-29.37
-33.15
-37.01
-40.13
-41.67
-40.97
-37.77
-32.18
-24.75
-16.26
-7.61
0.32
6.92
11.85
15.17
17.19
18.36
19.05
19.47
19.69
19.72
19.60
19.43
19.29
19.22
19.13
18.94
18.59
18.14
17.73
17.48
17.40
17.39
17.25
16.85
16.14
15.21
14.18
13.16
12.17
11.13
9.95
8.51
6.82
4.92
2.93
0.95
-0.90
-2.58
-4.10
-5.56
-7.10
-8.86
-10.92
-13.24
-15.71
-18.09
-20.20
-21.96
-23.45
-24.95
-26.82
-29.33
-32.50
-36.01
-39.12
-40.94
-40.63
-37.72
-32.26
-24.83
-16.35
-7.77
0.08
6.73
11.97
15.79
18.33
19.76
20.31
20.23
19.81
19.31
18.91
18.75
18.82
19.09
19.46
19.84
20.15
20.35
20.51
20.67
20.89
21.15
21.34
21.27
20.76
19.71
18.12
16.21
14.20
12.36
10.77
9.42
8.13
6.71
4.98
2.81
0.20
-2.79
-6.01
-9.23
-12.24
-14.90
-17.23
-19.34
-21.54
-24.08
-27.17
-30.85
-34.95
-39.01
-42.37
-44.21
-43.77
-40.62
-34.85
-27.01
-18.12
-9.26
-1.29
5.27
10.34
14.11
16.86
18.87
20.35
21.41
22.17
22.69
23.00
23.10
23.02
22.81
22.52
22.23
22.01
21.92
22.00
22.25
22.60
22.93
23.08
22.90
22.26
21.16
19.70
18.05
16.37
14.77
13.22
11.64
9.91
7.96
5.83
3.66
1.61
-0.19
-1.73
-3.15
-4.67
-6.48
-8.69
-11.24
-13.93
-16.52
-18.86
-20.92
-22.80
-24.75
-26.99
-29.73
-33.04
-36.84
-40.81
-44.41
-46.86
-47.34
-45.19
-40.14
-32.51
-23.12
-13.11
-3.57
4.70
11.31
16.23
19.63
21.71
22.69
22.83
22.47
21.95
21.59
21.52
21.66
21.80
21.74
21.38
20.83
20.26
19.89
19.79
19.89
20.01
19.94
19.59
18.90
17.85
16.47
14.81
12.99
11.22
9.71
8.58
7.78
7.09
6.25
5.05
3.49
1.75
0.03
-1.52
-2.91
-4.29
-5.81
-7.58
-9.59
-11.74
-13.93
-16.04
-18.01
-19.82
-21.50
-23.13
-24.85
-26.88
-29.40
-32.47
-35.91
-39.21
-41.65
-42.39
-40.77
-36.56
-30.07
-22.03
-13.45
-5.28
1.79
7.43
11.63
14.58
16.52
17.70
18.33
18.60
18.70
18.83
19.11
19.64
20.44
21.46
22.57
23.68
24.69
25.58
26.30
26.84
27.15
27.16
26.79
25.97
24.70
23.04
21.06
18.88
16.57
14.21
11.83
9.47
7.13
4.78
2.42
0.07
-2.20
-4.28
-6.11
-7.72
-9.27
-10.95
-12.98
-15.38
-18.03
-20.69
-23.09
-25.11
-26.84
-28.54
-30.58
-33.25
-36.58
-40.26
-43.62
-45.75
-45.79
-43.15
-37.75
-30.09
-21.15
-12.05
-3.82
2.87
7.81
11.17
13.37
14.86
16.01
17.06
18.08
19.06
19.91
20.52
20.83
20.81
20.54
20.18
19.93
19.92
20.21
20.69
21.21
21.60
21.77
21.65
21.22
20.44
19.32
17.94
16.40
14.89
13.50
12.25
11.02
9.63
7.98
6.07
4.03
2.08
0.42
-0.87
-1.84
-2.59
-3.31
-4.14
-5.19
-6.51
-8.07
-9.89
-11.93
-14.14
-16.49
-18.87
-21.25
-23.60
-26.01
-28.66
-31.75
-35.39
-39.42
-43.40
-46.54
-47.95
-46.85
-42.81
-36.00
-27.17
-17.48
-8.14
-0.12
6.06
10.41
13.26
15.06
16.18
16.85
17.20
17.32
17.31
17.29
17.35
17.51
17.76
18.09
18.48
18.95
19.48
20.04
20.57
21.00
21.24
21.21
20.82
20.03
18.82
17.26
15.52
13.77
12.16
10.69
9.28
7.81
6.20
4.45
2.63
0.87
-0.77
-2.26
-3.62
-4.92
-6.23
-7.57
-9.00
-10.56
-12.22
-13.91
-15.54
-17.04
-18.39
-19.71
-21.22
-23.20
-25.83
-29.12
-32.77
-36.14
-38.43
-38.80
-36.76
-32.21
-25.61
-17.81
-9.78
-2.35
3.94
8.91
12.62
15.24
16.98
17.97
18.36
18.33
18.08
17.88
17.88
18.17
18.68
19.26
19.75
20.02
20.04
19.89
19.69
19.51
19.39
19.29
19.13
18.77
18.09
16.99
15.37
13.21
10.58
7.68
4.78
2.16
0.01
-1.66
-3.02
-4.36
-5.93
-7.88
-10.12
-12.49
-14.78
-16.84
-18.67
-20.41
-22.28
-24.61
-27.64
-31.55
-36.20
-41.08
-45.30
-47.83
-47.76
-44.65
-38.73
-30.81
-22.03
-13.45
-5.79
0.70
6.07
10.47
14.01
16.67
18.44
19.37
19.69
19.68
19.64
19.71
19.90
20.12
20.27
20.32
20.27
20.20
20.16
20.15
20.15
20.11
19.97
19.65
19.14
18.39
17.44
16.26
14.89
13.31
11.55
9.66
7.72
5.88
4.26
2.89
1.67
0.44
-1.04
-2.89
-5.16
-7.72
-10.40
-13.03
-15.48
-17.74
-19.90
-22.13
-24.65
-27.64
-31.22
-35.29
-39.49
-43.19
-45.52
-45.64
-42.99
-37.51
-29.77
-20.81
-11.85
-3.89
2.50
7.29
10.80
13.49
15.67
17.42
18.70
19.46
19.73
19.67
19.49
19.36
19.37
19.50
19.68
19.85
20.03
20.28
20.72
21.42
22.34
23.29
24.00
24.26
24.00
23.34
22.52
21.77
21.17
20.60
19.84
18.68
17.10
15.27
13.47
11.98
10.90
10.09
9.32
8.33
7.01
5.45
3.90
2.69
2.01
1.83
1.96
2.04
1.72
0.77
-0.91
-3.16
-5.61
-7.58
-8.21
-6.69
-2.55
3.98
11.98
19.95
26.37
30.17
31.03
29.37
26.05
21.96
17.72
13.63
9.78
6.19
2.88
-0.09
-2.78
-5.30
-7.81
-10.40
-12.96
-15.28
-17.05
-18.04
-18.14
-17.49
-16.37
-15.20
-14.34
-14.09
-14.54
-15.59
-16.96
-18.32
-19.33
-19.79
-19.71
-19.32
-18.97
-19.02
-19.70
-20.98
-22.65
-24.40
-25.92
-27.10
-27.97
-28.74
-29.66
-30.98
-32.87
-35.40
-38.41
-41.43
-43.75
-44.48
-42.82
-38.41
-31.46
-22.73
-13.34
-4.34
3.51
9.85
14.70
18.26
20.79
22.51
23.66
24.40
24.94
25.40
25.83
26.24
26.51
26.56
26.33
25.84
25.22
24.61
24.18
23.97
23.93
23.89
23.67
23.11
22.16
20.85
19.32
17.67
15.98
14.26
12.46
10.54
8.51
6.37
4.19
2.07
0.08
-1.78
-3.51
-5.24
-7.14
-9.33
-11.86
-14.63
-17.42
-19.98
-22.17
-24.07
-25.97
-28.34
-31.56
-35.76
-40.64
-45.41
-49.00
-50.29
-48.50
-43.46
-35.70
-26.31
-16.55
-7.55
0.04
6.02
10.57
13.99
16.52
18.29
19.42
20.04
20.37
20.69
21.20
21.94
22.81
23.60
24.14
24.36
24.34
24.25
24.25
24.38
24.59
24.68
24.48
23.83
22.69
21.11
19.24
17.28
15.45
13.91
12.73
11.79
10.89
9.75
8.24
6.37
4.34
2.38
0.68
-0.68
-1.79
-2.82
-3.95
-5.33
-7.05
-9.13
-11.49
-13.96
-16.34
-18.46
-20.26
-21.92
-23.77
-26.20
-29.48
-33.47
-37.67
-41.19
-43.10
-42.61
-39.37
-33.51
-25.63
-16.63
-7.50
0.89
7.95
13.40
17.27
19.83
21.47
22.53
23.28
23.84
24.23
24.41
24.32
23.98
23.48
22.93
22.48
22.17
22.01
21.90
21.77
21.49
20.97
20.14
18.98
17.53
15.88
14.17
12.61
11.32
10.30
9.41
8.43
7.14
5.43
3.37
1.15
-0.93
-2.63
-3.86
-4.71
-5.43
-6.39
-7.83
-9.84
-12.28
-14.88
-17.36
-19.54
-21.43
-23.14
-24.86
-26.79
-29.12
-32.00
-35.44
-39.20
-42.67
-44.92
-44.98
-42.17
-36.38
-28.23
-18.84
-9.45
-1.08
5.65
10.58
13.92
16.02
17.29
18.16
18.92
19.74
20.59
21.34
21.86
22.07
22.06
21.97
21.92
21.91
21.82
21.55
21.09
20.52
19.98
19.48
18.91
18.06
16.75
14.97
12.89
10.81
9.02
7.69
6.80
6.20
5.66
4.97
4.03
2.87
1.61
0.44
-0.50
-1.21
-1.86
-2.74
-4.14
-6.23
-8.97
-12.16
-15.46
-18.61
-21.41
-23.86
-26.06
-28.22
-30.63
-33.51
-36.97
-40.83
-44.57
-47.36
-48.25
-46.51
-41.84
-34.61
-25.72
-16.40
-7.77
-0.59
4.90
8.83
11.53
13.33
14.44
15.04
15.31
15.43
15.60
15.91
16.33
16.73
16.95
16.93
16.74
16.54
16.49
16.72
17.18
17.73
18.21
18.43
18.30
17.79
16.99
16.01
14.97
13.96
12.95
11.89
10.66
9.19
7.44
5.51
3.53
1.65
-0.01
-1.48
-2.85
-4.31
-6.00
-7.95
-10.06
-12.15
-14.04
-15.66
-17.11
-18.63
-20.57
-23.16
-26.46
-30.14
-33.57
-35.90
-36.33
-34.37
-29.96
-23.58
-16.04
-8.30
-1.22
4.62
9.00
11.97
13.79
14.76
15.15
15.16
14.91
14.52
14.08
13.70
13.49
13.49
13.70
14.03
14.36
14.59
14.63
14.42
13.93
13.18
12.20
11.07
9.89
8.69
7.50
6.23
4.80
3.13
1.24
-0.77
-2.69
-4.33
-5.55
-6.36
-6.92
-7.46
-8.20
-9.27
-10.66
-12.25
-13.91
-15.55
-17.18
-18.91
-20.89
-23.30
-26.23
-29.65
-33.35
-36.84
-39.42
-40.35
-39.00
-35.14
-29.02
-21.33
-13.00
-4.98
1.98
7.48
11.45
14.12
15.87
17.13
18.22
19.29
20.28
21.01
21.32
21.13
20.56
19.80
19.06
18.49
18.15
18.01
18.03
18.16
18.31
18.34
18.09
17.39
16.23
14.73
13.14
11.73
10.62
9.75
8.90
7.79
6.27
4.41
2.45
0.66
-0.78
-1.87
-2.80
-3.85
-5.23
-7.06
-9.27
-11.70
-14.12
-16.36
-18.36
-20.21
-22.14
-24.47
-27.48
-31.21
-35.44
-39.58
-42.81
-44.26
-43.27
-39.57
-33.45
-25.63
-17.07
-8.75
-1.40
4.60
9.18
12.46
14.66
15.97
16.58
16.67
16.50
16.25
16.07
15.96
15.83
15.57
15.16
14.72
14.46
14.60
15.19
16.15
17.18
17.99
18.30
18.02
17.24
16.15
14.99
13.89
12.85
11.77
10.53
9.03
7.27
5.36
3.43
1.64
0.08
-1.20
-2.28
-3.28
-4.35
-5.61
-7.10
-8.74
-10.39
-11.90
-13.22
-14.45
-15.79
-17.53
-19.87
-22.84
-26.17
-29.35
-31.67
-32.43
-31.09
-27.45
-21.76
-14.59
-6.78
0.81
7.48
12.79
16.58
18.91
20.00
20.13
19.61
18.76
17.86
17.13
16.72
16.62
16.76
16.97
17.13
17.19
17.16
17.08
17.03
16.99
16.91
16.69
16.20
15.29
13.88
11.98
9.69
7.18
4.68
2.35
0.26
-1.66
-3.59
-5.70
-8.14
-10.86
-13.67
-16.29
-18.48
-20.12
-21.34
-22.45
-23.86
-25.97
-29.06
-33.13
-37.83
-42.50
-46.18
-47.91
-46.92
-42.92
-36.26
-27.79
-18.62
-9.78
-2.06
4.18
8.90
12.28
14.56
16.05
17.04
17.78
18.42
19.02
19.54
19.92
20.12
20.16
20.17
20.28
20.61
21.20
21.97
22.75
23.31
23.46
23.11
22.28
21.09
19.65
17.99
16.11
13.98
11.64
9.26
7.04
5.13
3.52
2.08
0.59
-1.14
-3.19
-5.51
-7.97
-10.44
-12.84
-15.14
-17.43
-19.81
-22.45
-25.53
-29.17
-33.39
-38.03
-42.61
-46.45
-48.68
-48.49
-45.42
-39.54
-31.51
-22.42
-13.39
-5.33
1.34
6.58
10.63
13.78
16.20
17.96
19.11
19.72
19.93
19.93
19.92
20.02
20.25
20.56
20.90
21.19
21.43
21.62
21.78
21.89
21.83
21.52
20.87
19.90
18.68
17.34
15.96
14.53
13.03
11.45
9.77
8.08
6.42
4.81
3.18
1.46
-0.39
-2.32
-4.23
-6.06
-7.78
-9.51
-11.35
-13.44
-15.83
-18.58
-21.71
-25.24
-29.12
-33.05
-36.49
-38.62
-38.63
-35.97
-30.58
-23.00
-14.14
-5.09
3.22
10.19
15.55
19.32
21.72
23.05
23.61
23.69
23.51
23.24
23.02
22.94
23.03
23.28
23.56
23.76
23.81
23.73
23.61
23.54
23.50
23.35
22.86
21.88
20.36
18.41
16.18
13.80
11.33
8.72
6.01
3.29
0.74
-1.50
-3.38
-5.02
-6.64
-8.48
-10.70
-13.33
-16.23
-19.20
-22.03
-24.53
-26.67
-28.60
-30.67
-33.31
-36.80
-41.03
-45.38
-48.79
-50.07
-48.34
-43.31
-35.45
-25.79
-15.58
-5.95
2.34
8.96
13.94
17.53
20.03
21.78
23.03
23.96
24.69
25.29
25.77
26.18
26.48
26.70
26.82
26.88
26.94
27.05
27.26
27.53
27.81
27.98
27.95
27.61
26.85
25.59
23.80
21.54
19.01
16.48
14.17
12.17
10.40
8.64
6.72
4.60
2.43
0.43
-1.17
-2.27
-2.90
-3.27
-3.66
-4.38
-5.65
-7.58
-10.08
-12.93
-15.85
-18.61
-21.13
-23.49
-25.90
-28.66
-32.01
-36.07
-40.75
-45.65
-50.00
-52.82
-53.13
-50.36
-44.50
-36.22
-26.63
-16.94
-8.10
-0.62
5.40
10.11
13.73
16.40
18.25
19.37
19.97
20.28
20.58
21.00
21.60
22.29
22.90
23.30
23.44
23.35
23.18
23.05
23.08
23.25
23.42
23.42
23.06
22.24
21.01
19.54
18.04
16.65
15.40
14.18
12.87
11.40
9.80
8.19
6.71
5.46
4.45
3.63
2.90
2.17
1.34
0.32
-1.01
-2.68
-4.71
-6.97
-9.30
-11.51
-13.48
-15.20
-16.81
-18.58
-20.82
-23.76
-27.39
-31.40
-35.15
-37.80
-38.55
-36.85
-32.58
-26.11
-18.21
-9.88
-2.01
4.72
10.03
13.93
16.60
18.27
19.10
19.24
18.83
18.08
17.21
16.43
15.87
15.55
15.43
15.47
15.62
15.90
16.26
16.64
16.93
17.05
16.95
16.66
16.17
15.47
14.48
13.18
11.61
9.93
8.34
6.98
5.88
4.91
3.88
2.66
1.23
-0.33
-1.90
-3.40
-4.83
-6.27
-7.83
-9.56
-11.44
-13.43
-15.45
-17.41
-19.30
-21.12
-22.93
-24.86
-27.02
-29.54
-32.53
-35.93
-39.50
-42.68
-44.73
-44.85
-42.48
-37.45
-30.20
-21.58
-12.68
-4.51
2.25
7.34
10.90
13.33
15.09
16.55
17.92
19.23
20.35
21.19
21.73
22.03
22.17
22.20
22.11
21.85
21.44
20.93
20.49
20.22
20.14
20.18
20.20
20.04
19.63
18.93
17.96
16.75
15.36
13.85
12.30
10.77
9.27
7.75
6.09
4.20
2.05
-0.28
-2.62
-4.80
-6.72
-8.43
-10.09
-11.91
-14.02
-16.39
-18.86
-21.21
-23.28
-25.03
-26.58
-28.09
-29.78
-31.83
-34.37
-37.35
-40.48
-43.17
-44.62
-44.01
-40.79
-34.98
-27.18
-18.43
-9.82
-2.21
4.00
8.80
12.40
14.99
16.70
17.59
17.78
17.52
17.13
16.93
17.06
17.47
17.98
18.37
18.55
18.62
18.77
19.18
19.93
20.89
21.79
22.33
22.30
21.62
20.36
18.66
16.69
14.55
12.34
10.14
8.03
6.09
4.36
2.80
1.39
0.06
-1.20
-2.43
-3.68
-5.07
-6.73
-8.73
-11.07
-13.60
-16.14
-18.56
-20.87
-23.20
-25.78
-28.81
-32.28
-35.89
-39.00
-40.76
-40.35
-37.28
-31.60
-23.91
-15.26
-6.73
0.78
6.83
11.38
14.62
16.85
18.25
18.95
19.06
18.73
18.14
17.51
17.04
16.84
16.93
17.24
17.64
18.01
18.28
18.48
18.71
19.04
19.46
19.82
19.91
19.49
18.44
16.78
14.70
12.50
10.44
8.73
7.43
6.44
5.62
4.79
3.83
2.74
1.59
0.46
-0.58
-1.51
-2.41
-3.37
-4.51
-5.88
-7.44
-9.06
-10.55
-11.69
-12.36
-12.64
-12.79
-13.14
-14.00
-15.50
-17.55
-19.86
-22.18
-24.30
-26.19
-27.98
-29.89
-32.19
-35.11
-38.73
-42.89
-47.11
-50.60
-52.40
-51.64
-47.87
-41.27
-32.62
-23.12
-13.97
-6.05
0.26
5.04
8.60
11.22
13.11
14.35
15.06
15.44
15.78
16.26
16.92
17.58
18.03
18.12
17.87
17.52
17.35
17.53
17.98
18.52
18.86
18.83
18.39
17.67
16.82
15.99
15.25
14.61
14.05
13.52
12.94
12.20
11.18
9.80
8.09
6.20
4.33
2.75
1.56
0.74
0.08
-0.70
-1.89
-3.63
-5.88
-8.39
-10.85
-12.98
-14.68
-16.11
-17.65
-19.74
-22.74
-26.70
-31.25
-35.60
-38.73
-39.69
-37.90
-33.27
-26.29
-17.81
-8.83
-0.26
7.29
13.49
18.27
21.78
24.22
25.86
26.89
27.47
27.68
27.60
27.35
27.01
26.68
26.35
25.96
25.46
24.83
24.11
23.37
22.64
21.87
20.94
19.70
18.04
15.96
13.55
10.97
8.40
6.02
3.91
2.07
0.41
-1.28
-3.18
-5.41
-7.95
-10.62
-13.20
-15.47
-17.34
-18.85
-20.22
-21.74
-23.72
-26.40
-29.84
-33.83
-37.88
-41.24
-43.06
-42.61
-39.55
-34.00
-26.60
-18.26
-9.91
-2.33
4.08
9.22
13.23
16.35
18.79
20.67
22.03
22.94
23.50
23.89
24.27
24.73
25.22
25.61
25.76
25.63
25.34
25.08
25.02
25.20
25.49
25.63
25.34
24.42
22.84
20.70
18.22
15.64
13.12
10.76
8.54
6.37
4.12
1.64
-1.18
-4.39
-7.87
-11.40
-14.65
-17.32
-19.32
-20.72
-21.83
-22.97
-24.44
-26.48
-29.20
-32.57
-36.38
-40.13
-43.03
-44.16
-42.75
-38.48
-31.66
-23.15
-14.10
-5.59
1.65
7.35
11.60
14.69
16.94
18.54
19.59
20.12
20.22
19.99
19.61
19.20
18.84
18.51
18.16
17.76
17.36
17.06
16.96
17.07
17.39
17.80
18.14
18.24
17.88
16.95
15.44
13.51
11.48
9.68
8.28
7.23
6.27
5.08
3.44
1.35
-1.04
-3.49
-5.81
-7.93
-9.85
-11.60
-13.25
-14.86
-16.58
-18.61
-21.17
-24.35
-28.02
-31.69
-34.56
-35.72
-34.47
-30.52
-24.20
-16.34
-8.06
-0.39
5.95
10.67
13.89
15.92
17.13
17.78
18.05
18.05
17.88
17.65
17.46
17.35
17.27
17.18
17.03
16.87
16.77
16.83
17.09
17.48
17.84
17.98
17.75
17.08
15.96
14.48
12.75
10.89
9.01
7.20
5.51
3.90
2.33
0.67
-1.18
-3.30
-5.67
-8.25
-10.96
-13.68
-16.33
-18.84
-21.19
-23.39
-25.56
-27.94
-30.80
-34.34
-38.45
-42.64
-46.04
-47.67
-46.68
-42.74
-36.11
-27.58
-18.23
-9.11
-0.99
5.72
10.98
14.96
17.91
20.07
21.62
22.65
23.27
23.59
23.72
23.80
23.90
24.00
24.07
24.02
23.88
23.73
23.66
23.79
24.08
24.38
24.47
24.11
23.21
21.77
19.93
17.91
15.89
14.00
12.28
10.69
9.13
7.49
5.70
3.76
1.76
-0.19
-2.03
-3.75
-5.44
-7.18
-9.09
-11.26
-13.70
-16.34
-19.03
-21.60
-23.93
-25.96
-27.79
-29.67
-31.96
-34.99
-38.82
-43.22
-47.59
-51.08
-52.84
-52.24
-49.15
-44.02
-37.56
-30.46
-23.33
-16.70
-10.94
-6.51
-3.58
-2.27
-2.70
-4.43
-6.61
-8.44
-9.55
-10.01
-10.50
-11.38
-13.04
-15.81
-19.26
-22.16
-23.44
-22.72
-20.36
-17.71
-15.63
-14.94
-16.35
-19.47
-22.58
-23.80
-21.58
-14.74
-3.18
13.53
34.97
54.83
65.76
64.41
53.38
38.57
30.14
29.41
36.63
51.57
73.64
98.30
121.98
140.77
151.21
151.76
142.87
128.03
111.18
94.88
80.16
67.30
55.69
44.75
34.49
24.97
16.91
10.49
5.01
-0.20
-4.93
-8.56
-10.20
-8.93
-4.52
3.20
13.77
26.13
39.04
51.40
61.77
68.38
69.53
63.99
52.05
35.40
16.71
-1.14
-15.90
-26.59
-33.48
-37.51
-39.65
-40.33
-39.64
-37.61
-34.42
-30.44
-26.06
-21.50
-16.65
-11.19
-4.83
2.44
10.23
17.79
24.26
28.94
31.46
31.80
30.24
27.17
23.10
18.70
14.89
12.66
12.63
14.56
16.99
17.66
14.32
5.89
-6.87
-21.51
-34.84
-44.16
-48.29
-47.76
-44.23
-39.59
-35.17
-31.40
-28.10
-24.75
-20.76
-15.61
-9.10
-1.53
6.05
11.83
13.50
8.93
-2.76
-20.58
-41.75
-62.68
-80.29
-92.81
-99.98
-102.53
-101.83
-98.95
-94.28
-87.24
-76.39
-59.89
-36.31
-5.89
28.39
60.11
82.17
89.58
81.79
62.62
38.46
15.57
-2.15
-14.37
-25.14
-39.09
-59.13
-85.51
-117.03
-152.20
-189.27
-225.63
-258.08
-284.59
-301.60
-304.38
-289.30
-257.08
-214.09
-169.51
-130.54
-100.11
-78.71
-62.71
-47.07
-28.85
-9.90
3.68
6.21
-3.62
-2.85
24.09
76.40
137.60
190.79
228.53
251.39
260.87
265.40
268.83
267.80
257.63
235.79
202.97
165.43
127.71
92.79
62.25
34.77
5.08
-32.06
-79.79
-137.91
-203.33
-270.91
-332.62
-378.24
-399.25
-392.81
-361.72
-313.31
-256.47
-198.80
-145.10
-96.35
-51.09
-8.61
29.41
60.13
81.61
94.36
101.28
105.79
110.54
116.38
122.08
125.20
123.91
118.05
109.14
99.53
91.19
85.13
81.18
78.22
74.86
70.08
63.57
55.76
47.54
39.78
33.06
27.47
22.67
18.26
14.02
10.14
7.09
5.36
5.08
6.00
7.55
9.20
10.64
11.93
13.32
15.04
17.07
19.18
20.96
22.14
22.58
22.43
21.96
21.44
21.01
20.67
20.31
19.84
19.22
18.58
18.12
18.10
18.66
19.84
21.48
23.29
24.88
25.95
26.35
26.23
25.92
25.89
26.39
27.43
28.62
29.46
29.48
28.56
27.01
25.49
24.79
25.41
27.38
30.14
32.75
34.28
34.26
32.94
31.20
30.18
30.69
32.78
35.64
38.02
38.89
38.11
36.71
36.52
39.48
46.77
58.34
72.79
87.66
99.76
105.58
101.86
86.62
60.40
27.12
-6.23
-31.60
-42.80
-38.15
-21.27
0.60
19.75
31.12
33.66
29.55
21.98
13.19
3.67
-7.08
-19.36
-32.36
-44.29
-53.43
-58.99
-61.52
-62.53
-63.61
-65.69
-68.72
-71.85
-74.05
-74.65
-73.70
-71.92
-70.30
-69.60
-70.04
-71.23
-72.48
-73.17
-73.14
-72.68
-72.43
-72.98
-74.55
-76.72
-78.45
-78.29
-74.81
-66.97
-54.42
-37.64
-17.78
3.70
25.24
45.57
63.80
79.51
92.70
103.74
113.19
121.77
130.28
139.53
150.10
161.81
173.25
181.59
183.23
175.11
156.14
128.10
95.20
62.69
34.91
13.93
-0.59
-10.55
-18.01
-24.32
-29.84
-34.52
-38.46
-42.13
-46.21
-51.07
-56.56
-61.97
-66.43
-69.28
-70.45
-70.46
-70.16
-70.49
-72.07
-75.06
-79.08
-83.36
-86.84
-88.43
-87.25
-82.82
-75.26
-65.17
-53.54
-41.41
-29.60
-18.63
-8.68
0.21
8.09
14.88
20.42
24.55
27.19
28.50
28.83
28.71
28.63
28.90
29.54
30.34
31.03
31.49
31.82
32.23
32.89
33.74
34.53
34.89
34.63
33.74
32.45
31.02
29.57
28.06
26.29
24.08
21.43
18.53
15.70
13.18
11.12
9.46
8.13
7.02
6.11
5.34
4.54
3.41
1.51
-1.44
-5.55
-10.56
-15.98
-21.31
-26.25
-30.79
-35.18
-39.82
-45.02
-50.91
-57.30
-63.68
-69.12
-72.50
-72.72
-69.08
-61.57
-50.87
-38.23
-25.02
-12.40
-1.10
8.54
16.43
22.60
27.04
29.82
31.10
31.15
30.37
29.12
27.73
26.37
25.11
23.93
22.79
21.67
20.65
19.80
19.14
18.53
17.68
16.26
13.94
10.53
5.88
-0.19
-8.05
-18.22
-31.23
-47.24
-65.83
-85.89
-105.75
-123.52
-137.44
-146.02
-148.06
-142.68
-129.42
-108.61
-81.68
-51.23
-20.53
7.24
29.97
47.14
59.61
68.95
76.47
82.72
87.51
90.56
92.07
93.01
94.79
98.52
104.29
111.13
117.39
121.63
123.24
122.71
121.11
119.38
117.68
115.20
110.55
102.57
90.97
76.66
61.42
47.25
35.52
26.66
20.09
14.74
9.58
3.95
-2.33
-9.25
-16.75
-24.91
-33.77
-43.16
-52.56
-61.19
-68.23
-73.08
-75.54
-75.81
-74.37
-71.72
-68.24
-64.10
-59.38
-54.21
-48.92
-44.01
-39.92
-36.76
-34.23
-31.70
-28.62
-24.93
-21.30
-18.92
-19.03
-22.37
-28.86
-37.59
-47.21
-56.32
-63.89
-69.44
-73.05
-75.34
-77.06
-78.92
-81.13
-83.31
-84.54
-83.63
-79.64
-72.19
-61.66
-49.02
-35.58
-22.60
-11.06
-1.50
5.98
11.53
15.47
18.16
19.90
21.03
21.93
23.07
24.84
27.49
30.90
34.66
38.17
40.91
42.61
43.33
43.39
43.17
42.96
42.77
42.46
41.72
40.23
37.85
34.62
30.83
26.99
23.69
21.42
20.46
20.78
22.12
24.09
26.32
28.49
30.36
31.73
32.43
32.31
31.35
29.58
27.03
23.52
18.64
11.85
2.81
-8.34
-20.71
-32.75
-42.66
-48.86
-50.52
-47.67
-41.21
-32.52
-23.07
-14.11
-6.47
-0.60
3.45
5.88
7.15
7.76
8.20
8.82
9.66
10.59
11.32
11.65
11.54
11.14
10.71
10.47
10.58
11.07
11.98
13.26
14.81
16.42
17.82
18.72
18.97
18.55
17.58
16.27
14.75
13.07
11.17
8.99
6.59
4.12
1.80
-0.22
-1.91
-3.42
-4.98
-6.78
-8.90
-11.26
-13.72
-16.17
-18.73
-21.65
-25.20
-29.41
-33.97
-38.12
-40.90
-41.48
-39.37
-34.67
-27.95
-20.01
-11.63
-3.41
4.15
10.57
15.31
17.86
17.94
15.81
12.28
8.57
5.94
5.23
6.65
9.78
13.81
17.94
21.62
24.73
27.46
30.14
33.05
36.34
40.01
43.97
47.92
51.34
53.39
53.04
49.40
42.11
31.65
19.33
6.88
-4.06
-12.46
-18.10
-21.51
-23.60
-25.32
-27.40
-30.22
-33.80
-37.84
-41.74
-44.77
-46.15
-45.29
-41.93
-36.27
-28.99
-21.07
-13.58
-7.39
-2.95
-0.26
1.03
1.39
1.15
0.52
-0.41
-1.54
-2.64
-3.39
-3.50
-2.76
-1.13
1.35
4.56
8.29
12.23
16.00
19.22
21.59
23.02
23.63
23.73
23.62
23.57
23.70
24.02
24.44
24.81
24.91
24.44
23.06
20.40
16.17
10.34
3.19
-4.57
-11.98
-17.95
-21.58
-22.39
-20.42
-16.18
-10.49
-4.28
1.68
6.84
10.98
14.06
16.21
17.61
18.46
18.90
19.03
18.92
18.64
18.21
17.70
17.13
16.56
16.09
15.78
15.71
15.88
16.19
16.45
16.39
15.78
14.44
12.36
9.70
6.72
3.71
0.81
-1.90
-4.53
-7.19
-9.95
-12.79
-15.60
-18.31
-20.87
-23.33
-25.84
-28.62
-31.91
-35.88
-40.56
-45.69
-50.63
-54.42
-56.07
-54.81
-50.47
-43.48
-34.78
-25.47
-16.52
-8.57
-1.84
3.76
8.50
12.70
16.57
20.17
23.35
25.90
27.61
28.44
28.53
28.15
27.58
27.06
26.72
26.67
27.00
27.74
28.83
30.02
30.96
31.30
30.85
29.59
27.74
25.55
23.28
21.07
18.98
17.03
15.17
13.33
11.42
9.38
7.19
4.96
2.87
1.07
-0.38
-1.58
-2.73
-4.09
-5.83
-8.06
-10.76
-13.79
-16.99
-20.13
-23.02
-25.57
-27.84
-30.10
-32.73
-36.09
-40.29
-45.02
-49.58
-53.02
-54.37
-52.94
-48.50
-41.37
-32.31
-22.34
-12.50
-3.64
3.71
9.33
13.33
16.03
17.75
18.81
19.42
19.68
19.65
19.38
18.93
18.40
17.91
17.55
17.39
17.48
17.82
18.38
19.09
19.79
20.32
20.52
20.35
19.84
19.09
18.18
17.15
15.94
14.47
12.70
10.64
8.38
6.08
3.89
1.93
0.23
-1.27
-2.70
-4.20
-5.83
-7.60
-9.41
-11.17
-12.83
-14.45
-16.17
-18.22
-20.82
-24.12
-28.13
-32.64
-37.17
-40.95
-43.09
-42.79
-39.63
-33.74
-25.82
-16.92
-8.16
-0.40
5.93
10.75
14.24
16.66
18.18
18.85
18.76
18.06
17.03
16.02
15.33
15.06
15.12
15.29
15.41
15.41
15.39
15.46
15.69
16.00
16.22
16.17
15.80
15.11
14.20
13.13
11.94
10.60
9.14
7.55
5.90
4.27
2.72
1.33
0.12
-0.91
-1.86
-2.94
-4.38
-6.30
-8.70
-11.37
-14.00
-16.33
-18.30
-20.04
-21.85
-24.05
-26.86
-30.36
-34.44
-38.74
-42.75
-45.77
-47.03
-45.91
-42.11
-35.85
-27.82
-19.02
-10.46
-2.92
3.22
7.95
11.50
14.12
16.05
17.39
18.24
18.71
18.94
19.12
19.37
19.73
20.13
20.47
20.69
20.81
20.93
21.11
21.37
21.65
21.82
21.77
21.41
20.73
19.73
18.47
17.06
15.67
14.41
13.28
12.15
10.80
9.04
6.84
4.37
1.91
-0.33
-2.32
-4.19
-6.17
-8.39
-10.83
-13.35
-15.79
-18.09
-20.26
-22.45
-24.79
-27.38
-30.29
-33.48
-36.77
-39.80
-42.06
-42.92
-41.91
-38.78
-33.67
-27.09
-19.71
-12.23
-5.16
1.14
6.55
11.02
14.66
17.57
19.95
21.99
23.83
25.45
26.72
27.44
27.45
26.74
25.50
23.99
22.57
21.48
20.86
20.70
20.89
21.18
21.31
20.99
20.00
18.26
15.89
13.17
10.47
8.12
6.25
4.77
3.39
1.80
-0.22
-2.73
-5.60
-8.61
-11.52
-14.16
-16.47
-18.51
-20.47
-22.65
-25.30
-28.56
-32.27
-35.94
-38.79
-40.04
-39.08
-35.75
-30.33
-23.47
-15.96
-8.55
-1.77
4.08
8.85
12.51
15.11
16.74
17.55
17.78
17.73
17.63
17.66
17.81
17.97
18.00
17.89
17.70
17.58
17.65
17.87
18.10
18.13
17.86
17.28
16.49
15.51
14.33
12.91
11.25
9.49
7.86
6.58
5.70
5.06
4.38
3.44
2.13
0.52
-1.27
-3.14
-5.12
-7.25
-9.55
-11.95
-14.34
-16.61
-18.77
-20.91
-23.16
-25.65
-28.41
-31.43
-34.62
-37.77
-40.48
-42.16
-42.12
-39.81
-35.07
-28.25
-20.17
-11.84
-4.15
2.34
7.46
11.33
14.18
16.23
17.65
18.59
19.21
19.64
19.97
20.21
20.32
20.24
19.94
19.49
19.02
18.67
18.53
18.60
18.76
18.81
18.59
17.97
16.96
15.63
14.10
12.46
10.84
9.31
7.94
6.78
5.78
4.90
4.09
3.33
2.66
2.11
1.63
1.08
0.28
-0.94
-2.58
-4.53
-6.58
-8.51
-10.23
-11.73
-13.15
-14.68
-16.52
-18.84
-21.74
-25.16
-28.80
-32.16
-34.59
-35.46
-34.36
-31.22
-26.31
-20.21
-13.64
-7.26
-1.57
3.16
6.91
9.75
11.81
13.22
14.04
14.38
14.34
14.10
13.79
13.49
13.21
12.89
12.48
12.03
11.65
11.51
11.67
12.10
12.61
12.99
13.06
12.69
11.88
10.69
9.29
7.84
6.54
5.48
4.65
3.92
3.06
1.89
0.32
-1.61
-3.74
-5.92
-8.06
-10.12
-12.11
-14.02
-15.87
-17.73
-19.78
-22.20
-25.07
-28.20
-31.07
-32.94
-33.13
-31.24
-27.37
-22.03
-15.95
-9.84
-4.21
0.72
4.88
8.32
11.07
13.14
14.56
15.40
15.76
15.79
15.63
15.44
15.37
15.53
15.98
16.69
17.57
18.48
19.30
19.95
20.33
20.38
20.04
19.30
18.23
16.98
15.68
14.48
13.39
12.35
11.22
9.89
8.31
6.58
4.85
3.25
1.86
0.63
-0.57
-1.91
-3.54
-5.52
-7.81
-10.27
-12.73
-15.06
-17.19
-19.18
-21.12
-23.21
-25.63
-28.51
-31.78
-35.13
-37.97
-39.57
-39.26
-36.68
-31.92
-25.56
-18.44
-11.40
-5.02
0.43
5.00
8.79
11.85
14.20
15.84
16.89
17.60
18.23
18.94
19.74
20.45
20.87
20.90
20.66
20.37
20.31
20.57
21.05
21.51
21.66
21.35
20.56
19.41
18.09
16.80
15.66
14.73
13.98
13.32
12.66
11.86
10.82
9.51
7.97
6.30
4.65
3.11
1.70
0.40
-0.92
-2.40
-4.11
-6.05
-8.10
-10.04
-11.68
-12.94
-13.92
-14.90
-16.25
-18.26
-21.08
-24.60
-28.45
-32.02
-34.58
-35.45
-34.18
-30.68
-25.32
-18.82
-12.01
-5.66
-0.20
4.21
7.64
10.25
12.15
13.37
13.98
14.08
13.88
13.63
13.49
13.55
13.74
13.93
13.99
13.86
13.61
13.37
13.25
13.33
13.56
13.78
13.81
13.56
13.02
12.30
11.51
10.71
9.86
8.80
7.40
5.63
3.63
1.62
-0.23
-1.82
-3.23
-4.61
-6.10
-7.76
-9.61
-11.58
-13.62
-15.72
-17.83
-19.96
-22.14
-24.46
-27.05
-30.00
-33.21
-36.29
-38.62
-39.49
-38.39
-35.17
-30.17
-24.04
-17.50
-11.15
-5.35
-0.23
4.15
7.78
10.69
12.92
14.59
15.81
16.72
17.38
17.81
18.02
18.03
17.91
17.75
17.64
17.61
17.66
17.77
17.90
18.04
18.20
18.38
18.56
18.72
18.77
18.62
18.19
17.46
16.47
15.30
14.08
12.86
11.62
10.24
8.54
6.44
3.97
1.39
-0.96
-2.84
-4.16
-5.16
-6.14
-7.43
-9.13
-11.10
-13.05
-14.78
-16.25
-17.70
-19.47
-21.85
-24.93
-28.51
-32.25
-35.63
-38.14
-39.26
-38.60
-35.96
-31.39
-25.29
-18.33
-11.26
-4.76
0.78
5.29
8.89
11.75
13.93
15.41
16.15
16.17
15.66
14.93
14.25
13.80
13.65
13.78
14.15
14.73
15.50
16.38
17.24
17.89
18.18
17.99
17.35
16.32
15.05
13.62
12.13
10.68
9.31
8.06
6.90
5.75
4.48
3.05
1.46
-0.13
-1.52
-2.54
-3.13
-3.39
-3.57
-3.96
-4.77
-6.03
-7.61
-9.21
-10.60
-11.57
-12.16
-12.56
-13.03
-13.89
-15.36
-17.56
-20.39
-23.58
-26.65
-29.03
-30.19
-29.75
-27.64
-24.04
-19.33
-13.94
-8.29
-2.75
2.30
6.60
9.94
12.29
13.76
14.53
14.81
14.70
14.28
13.62
12.85
12.19
11.82
11.84
12.22
12.83
13.54
14.24
14.87
15.34
15.53
15.27
14.49
13.24
11.73
10.24
9.00
8.03
7.23
6.43
5.46
4.32
3.07
1.80
0.62
-0.46
-1.43
-2.34
-3.25
-4.25
-5.39
-6.72
-8.20
-9.75
-11.23
-12.55
-13.68
-14.65
-15.59
-16.65
-18.00
-19.82
-22.22
-25.17
-28.40
-31.37
-33.36
-33.68
-31.81
-27.73
-21.86
-15.03
-8.15
-1.96
3.13
7.10
10.17
12.64
14.70
16.42
17.77
18.76
19.48
20.09
20.73
21.46
22.21
22.86
23.31
23.57
23.80
24.23
25.07
26.43
28.20
30.13
31.91
33.25
34.00
34.22
34.16
34.29
35.19
37.40
41.19
46.31
51.97
56.87
59.67
59.31
55.33
47.95
37.79
25.72
12.64
-0.48
-12.54
-22.42
-29.14
-32.22
-31.77
-28.45
-23.16
-16.80
-10.14
-3.86
1.30
4.60
5.47
3.80
0.01
-4.90
-9.79
-13.62
-15.82
-16.27
-15.25
-13.28
-10.93
-8.71
-7.00
-6.03
-5.92
-6.69
-8.28
-10.56
-13.22
-15.76
-17.56
-17.94
-16.40
-12.68
-6.95
0.11
7.36
13.46
17.19
17.87
15.55
11.01
5.44
0.03
-4.35
-7.26
-8.71
-8.90
-8.15
-6.82
-5.39
-4.36
-4.23
-5.27
-7.48
-10.48
-13.73
-16.63
-18.68
-19.64
-19.55
-18.72
-17.58
-16.58
-16.06
-16.19
-16.93
-18.09
-19.46
-20.91
-22.42
-24.07
-26.02
-28.34
-30.99
-33.78
-36.37
-38.39
-39.42
-39.06
-37.03
-33.29
-28.09
-21.96
-15.67
-9.97
-5.44
-2.30
-0.52
0.17
0.11
-0.43
-1.26
-2.19
-3.01
-3.51
-3.54
-3.05
-2.19
-1.15
-0.16
0.69
1.44
2.22
3.11
4.08
5.02
5.72
6.05
5.97
5.56
4.98
4.37
3.80
3.22
2.52
1.58
0.34
-1.10
-2.58
-3.89
-4.88
-5.55
-6.06
-6.61
-7.45
-8.68
-10.28
-12.15
-14.08
-15.91
-17.51
-18.82
-19.90
-20.89
-22.04
-23.63
-25.87
-28.73
-31.88
-34.63
-36.20
-35.83
-33.12
-28.17
-21.56
-14.18
-6.91
-0.44
4.87
8.98
12.04
14.23
15.72
16.59
16.93
16.82
16.39
15.77
15.06
14.34
13.69
13.15
12.82
12.77
13.04
13.60
14.32
15.03
15.57
15.83
15.83
15.65
15.44
15.27
15.11
14.83
14.20
13.04
11.27
9.00
6.47
3.97
1.70
-0.24
-1.89
-3.36
-4.83
-6.45
-8.31
-10.41
-12.66
-14.90
-16.91
-18.60
-20.03
-21.46
-23.28
-25.79
-29.07
-32.84
-36.40
-38.91
-39.52
-37.69
-33.35
-26.92
-19.18
-11.06
-3.44
3.04
8.05
11.57
13.79
14.98
15.47
15.61
15.69
15.94
16.44
17.14
17.86
18.41
18.68
18.67
18.49
18.28
18.13
17.97
17.69
17.14
16.21
14.90
13.29
11.48
9.60
7.82
6.27
5.05
4.15
3.38
2.45
1.03
-1.08
-3.89
-7.16
-10.56
-13.76
-16.54
-18.85
-20.81
-22.66
-24.71
-27.25
-30.43
-34.12
-37.86
-40.84
-42.14
-40.99
-37.09
-30.72
-22.70
-14.11
-5.95
1.11
6.80
11.16
14.34
16.48
17.67
18.06
17.87
17.41
17.01
16.92
17.15
17.55
17.87
17.95
17.76
17.47
17.32
17.49
17.98
18.63
19.14
19.26
18.83
17.83
16.36
14.61
12.85
11.33
10.27
9.75
9.62
9.57
9.15
8.02
6.04
3.34
0.32
-2.61
-5.13
-7.23
-9.09
-11.09
-13.60
-16.91
-21.08
-25.89
-30.85
-35.21
-38.10
-38.76
-36.72
-31.99
-25.09
-16.91
-8.49
-0.76
5.63
10.49
13.95
16.37
18.15
19.57
20.75
21.67
22.28
22.59
22.70
22.77
22.94
23.25
23.64
23.99
24.22
24.33
24.34
24.27
24.02
23.43
22.35
20.70
18.57
16.18
13.75
11.48
9.44
7.65
6.06
4.68
3.52
2.64
1.98
1.41
0.77
-0.06
-1.09
-2.20
-3.23
-4.07
-4.78
-5.55
-6.53
-7.80
-9.26
-10.72
-12.04
-13.26
-14.54
-16.06
-17.87
-19.75
-21.32
-22.09
-21.69
-19.98
-16.99
-12.95
-8.17
-3.02
2.14
6.91
10.98
14.11
16.21
17.35
17.71
17.57
17.22
16.84
16.51
16.23
15.94
15.64
15.39
15.26
15.28
15.39
15.44
15.31
14.96
14.51
14.11
13.86
13.69
13.44
12.92
12.06
10.93
9.71
8.53
7.38
6.15
4.69
2.95
1.00
-0.97
-2.79
-4.40
-5.80
-7.09
-8.35
-9.66
-11.07
-12.60
-14.20
-15.78
-17.23
-18.46
-19.50
-20.53
-21.79
-23.51
-25.75
-28.41
-31.17
-33.60
-35.17
-35.36
-33.70
-29.98
-24.36
-17.41
-10.02
-3.15
2.53
6.74
9.69
11.82
13.56
15.13
16.49
17.44
17.84
17.67
17.10
16.42
15.88
15.63
15.68
15.94
16.27
16.58
16.81
16.92
16.89
16.68
16.30
15.74
15.07
14.33
13.49
12.52
11.39
10.12
8.81
7.56
6.45
5.50
4.66
3.86
3.04
2.20
1.35
0.46
-0.51
-1.67
-3.07
-4.74
-6.67
-8.73
-10.85
-12.90
-14.79
-16.46
-17.96
-19.43
-21.08
-23.14
-25.75
-28.94
-32.57
-36.27
-39.53
-41.70
-42.12
-40.25
-35.91
-29.37
-21.36
-12.95
-5.19
1.16
5.81
8.96
11.07
12.61
13.82
14.66
14.99
14.70
13.94
13.06
12.44
12.33
12.71
13.35
13.95
14.36
14.59
14.81
15.17
15.69
16.20
16.48
16.32
15.65
14.56
13.24
11.87
10.62
9.51
8.48
7.42
6.26
5.01
3.74
2.54
1.45
0.49
-0.40
-1.26
-2.16
-3.18
-4.45
-6.07
-8.10
-10.44
-12.86
-15.10
-16.92
-18.31
-19.40
-20.47
-21.84
-23.77
-26.38
-29.59
-33.04
-36.07
-37.85
-37.58
-34.74
-29.36
-22.02
-13.67
-5.38
1.98
7.93
12.39
15.52
17.58
18.82
19.40
19.44
19.09
18.53
17.96
17.53
17.33
17.29
17.32
17.31
17.23
17.16
17.23
17.49
17.89
18.22
18.16
17.50
16.17
14.35
12.31
10.42
8.85
7.65
6.67
5.72
4.67
3.43
2.02
0.50
-1.07
-2.64
-4.20
-5.80
-7.51
-9.41
-11.53
-13.78
-16.00
-18.00
-19.67
-21.03
-22.26
-23.64
-25.38
-27.66
-30.50
-33.85
-37.49
-41.02
-43.78
-44.97
-43.84
-40.03
-33.77
-25.84
-17.38
-9.49
-2.85
2.36
6.33
9.43
11.93
13.95
15.54
16.74
17.67
18.47
19.19
19.84
20.28
20.37
20.01
19.19
18.09
16.93
16.03
15.55
15.48
15.59
15.54
15.05
13.99
12.53
11.02
9.83
9.16
9.03
9.22
9.43
9.37
8.86
7.78
6.09
3.76
0.81
-2.63
-6.36
-10.04
-13.33
-15.89
-17.48
-18.00
-17.46
-15.97
-13.70
-10.85
-7.69
-4.50
-1.58
0.77
2.35
3.14
3.28
3.08
2.92
3.18
4.12
5.84
8.25
11.11
14.11
16.91
19.24
20.88
21.71
21.67
20.81
19.28
17.34
15.26
13.33
11.70
10.45
9.48
8.74
8.18
7.88
7.99
8.61
9.73
11.19
12.74
14.13
15.23
16.01
16.55
16.90
17.07
17.00
16.54
15.60
14.14
12.21
9.97
7.60
5.24
2.91
0.53
-2.05
-4.96
-8.22
-11.69
-15.12
-18.23
-20.79
-22.73
-24.13
-25.26
-26.39
-27.80
-29.61
-31.76
-33.94
-35.70
-36.45
-35.74
-33.31
-29.20
-23.78
-17.60
-11.25
-5.28
-0.10
4.02
6.94
8.63
9.20
8.91
8.11
7.19
6.53
6.34
6.69
7.52
8.69
10.05
11.46
12.85
14.15
15.25
16.05
16.45
16.41
15.99
15.24
14.25
13.01
11.45
9.52
7.29
4.91
2.62
0.62
-1.03
-2.41
-3.73
-5.13
-6.66
-8.24
-9.80
-11.29
-12.73
-14.19
-15.72
-17.40
-19.32
-21.65
-24.59
-28.31
-32.71
-37.31
-41.25
-43.51
-43.17
-39.81
-33.64
-25.48
-16.51
-7.88
-0.42
5.49
9.91
13.17
15.64
17.55
19.04
20.15
20.90
21.33
21.51
21.50
21.35
21.08
20.74
20.40
20.13
20.03
20.14
20.38
20.60
20.56
20.07
19.07
17.69
16.20
14.93
14.07
13.60
13.28
12.77
11.78
10.21
8.14
5.80
3.46
1.34
-0.49
-2.07
-3.53
-5.06
-6.82
-8.85
-11.04
-13.16
-14.99
-16.39
-17.39
-18.17
-19.01
-20.16
-21.85
-24.15
-27.01
-30.22
-33.31
-35.64
-36.51
-35.31
-31.80
-26.15
-18.97
-11.11
-3.45
3.33
8.85
12.98
15.82
17.56
18.43
18.65
18.41
17.86
17.17
16.46
15.87
15.53
15.51
15.87
16.56
17.45
18.38
19.21
19.82
20.17
20.23
20.01
19.48
18.65
17.56
16.31
14.98
13.63
12.29
10.90
9.40
7.80
6.14
4.51
2.96
1.50
0.02
-1.64
-3.63
-6.01
-8.76
-11.75
-14.83
-17.79
-20.49
-22.82
-24.80
-26.62
-28.56
-30.95
-34.05
-37.77
-41.65
-44.85
-46.42
-45.58
-41.99
-35.86
-27.88
-18.94
-9.96
-1.64
5.51
11.20
15.34
18.06
19.66
20.54
21.10
21.56
21.93
22.09
21.89
21.37
20.70
20.15
19.91
20.06
20.46
20.88
21.08
20.96
20.54
19.92
19.25
18.61
18.01
17.32
16.42
15.28
13.96
12.62
11.47
10.59
9.88
9.13
8.12
6.77
5.18
3.64
2.39
1.52
0.89
0.20
-0.87
-2.50
-4.67
-7.18
-9.78
-12.29
-14.59
-16.67
-18.56
-20.38
-22.28
-24.46
-27.16
-30.49
-34.34
-38.22
-41.36
-42.80
-41.77
-37.94
-31.55
-23.36
-14.43
-5.79
1.79
7.89
12.42
15.52
17.41
18.38
18.72
18.71
18.60
18.53
18.56
18.65
18.75
18.80
18.85
18.96
19.25
19.78
20.50
21.28
21.87
22.03
21.60
20.57
19.08
17.35
15.63
14.08
12.79
11.70
10.69
9.58
8.24
6.63
4.86
3.11
1.53
0.19
-0.94
-2.02
-3.21
-4.63
-6.33
-8.31
-10.47
-12.72
-14.87
-16.75
-18.21
-19.26
-20.11
-21.11
-22.66
-25.02
-28.14
-31.58
-34.58
-36.26
-35.89
-33.06
-27.93
-21.07
-13.33
-5.60
1.40
7.24
11.76
15.01
17.12
18.28
18.68
18.47
17.83
16.94
16.03
15.32
14.94
14.87
15.00
15.15
15.18
15.06
14.87
14.74
14.74
14.82
14.81
14.55
13.88
12.76
11.25
9.44
7.48
5.52
3.72
2.20
0.97
-0.07
-1.12
-2.42
-4.09
-6.16
-8.51
-10.96
-13.33
-15.43
-17.20
-18.65
-19.91
-21.18
-22.77
-24.91
-27.71
-31.02
-34.38
-37.08
-38.29
-37.37
-34.05
-28.50
-21.36
-13.51
-5.81
1.03
6.62
10.84
13.81
15.78
17.07
17.94
18.63
19.17
19.56
19.70
19.54
19.13
18.62
18.22
18.11
18.37
18.97
19.76
20.51
20.96
20.90
20.25
19.04
17.45
15.67
13.90
12.17
10.43
8.62
6.70
4.74
2.86
1.18
-0.28
-1.61
-2.98
-4.49
-6.20
-8.01
-9.80
-11.42
-12.75
-13.84
-14.78
-15.78
-17.06
-18.84
-21.23
-24.17
-27.33
-30.10
-31.74
-31.52
-29.01
-24.27
-17.85
-10.58
-3.25
3.58
9.73
15.23
20.13
24.28
27.42
29.26
29.72
29.07
27.88
26.77
26.25
26.53
27.48
28.60
29.09
27.95
24.18
17.12
6.86
-5.53
-18.10
-28.47
-34.72
-36.00
-32.87
-26.97
-20.21
-14.15
-9.53
-6.38
-4.41
-3.36
-3.20
-3.94
-5.43
-7.20
-8.49
-8.60
-7.19
-4.48
-1.28
1.31
2.31
1.22
-1.73
-5.64
-9.19
-11.10
-10.37
-6.48
0.50
9.79
19.87
28.66
33.96
34.28
29.43
20.77
10.80
2.12
-3.35
-5.00
-3.26
0.89
6.50
12.90
19.52
25.62
30.21
32.26
31.17
27.10
21.03
14.49
9.00
5.56
4.42
5.05
6.52
7.92
8.68
8.67
8.17
7.55
7.08
6.82
6.70
6.60
6.41
6.09
5.63
4.99
4.13
3.01
1.66
0.19
-1.27
-2.61
-3.79
-4.95
-6.34
-8.21
-10.71
-13.75
-17.00
-20.00
-22.38
-24.01
-25.09
-26.06
-27.44
-29.57
-32.53
-36.07
-39.62
-42.43
-43.72
-42.85
-39.52
-33.89
-26.59
-18.53
-10.64
-3.66
2.07
6.56
10.03
12.71
14.75
16.18
16.96
17.14
16.86
16.37
15.90
15.62
15.55
15.60
15.68
15.69
15.61
15.46
15.26
14.92
14.37
13.49
12.26
10.76
9.14
7.53
6.03
4.61
3.17
1.66
0.06
-1.55
-3.09
-4.45
-5.63
-6.64
-7.53
-8.38
-9.25
-10.19
-11.24
-12.44
-13.76
-15.15
-16.57
-17.97
-19.31
-20.64
-22.01
-23.58
-25.55
-28.10
-31.23
-34.56
-37.39
-38.80
-37.97
-34.54
-28.72
-21.27
-13.21
-5.48
1.29
6.82
11.12
14.32
16.56
17.91
18.45
18.33
17.75
17.00
16.30
15.80
15.52
15.37
15.21
14.97
14.67
14.46
14.46
14.74
15.23
15.73
15.98
15.75
14.94
13.58
11.82
9.86
7.89
6.01
4.28
2.70
1.24
-0.16
-1.54
-3.01
-4.59
-6.30
-8.07
-9.87
-11.64
-13.42
-15.26
-17.18
-19.15
-21.04
-22.70
-24.00
-24.89
-25.51
-26.13
-27.08
-28.67
-30.98
-33.77
-36.44
-38.16
-38.08
-35.67
-30.87
-24.16
-16.39
-8.49
-1.26
4.84
9.67
13.34
16.06
18.06
19.47
20.38
20.85
20.93
20.73
20.36
19.94
19.57
19.29
19.12
19.07
19.13
19.33
19.62
19.97
20.26
20.36
20.12
19.41
18.20
16.56
14.69
12.82
11.17
9.83
8.76
7.85
6.96
6.01
5.04
4.14
3.43
3.00
2.84
2.83
2.77
2.44
1.72
0.63
-0.66
-1.89
-2.90
-3.70
-4.48
-5.51
-6.99
-8.95
-11.23
-13.58
-15.79
-17.75
-19.53
-21.28
-23.19
-25.43
-28.10
-31.24
-34.72
-38.20
-41.09
-42.63
-42.09
-39.00
-33.42
-25.91
-17.43
-9.04
-1.63
4.30
8.59
11.44
13.21
14.29
15.01
15.62
16.25
16.91
17.57
18.17
18.65
19.02
19.30
19.55
19.87
20.32
20.94
21.66
22.37
22.81
22.79
22.17
21.01
19.51
17.94
16.52
15.28
14.05
12.47
10.24
7.19
3.40
-0.75
-4.74
-7.97
-10.05
-10.86
-10.62
-9.85
-9.16
-9.04
-9.77
-11.33
-13.49
-16.03
-18.85
-21.98
-25.53
-29.49
-33.58
-37.23
-39.65
-40.07
-37.98
-33.30
-26.43
-18.17
-9.45
-1.13
6.15
12.03
16.43
19.48
21.43
22.55
23.13
23.41
23.57
23.72
23.94
24.30
24.82
25.43
26.03
26.50
26.76
26.90
27.04
27.38
27.95
28.63
29.18
29.29
28.79
27.67
26.07
24.26
22.50
20.95
19.69
18.66
17.75
16.84
15.75
14.43
12.86
11.07
9.16
7.18
5.14
2.93
0.41
-2.63
-6.34
-10.85
-16.17
-22.08
-28.16
-33.72
-37.96
-40.18
-39.97
-37.42
-33.05
-27.67
-22.08
-16.94
-12.64
-9.37
-7.18
-5.96
-5.50
-5.41
-5.23
-4.55
-3.10
-0.91
1.79
4.69
7.49
10.02
12.22
14.09
15.68
17.03
18.22
19.30
20.33
21.26
22.02
22.51
22.68
22.56
22.28
22.00
21.85
21.86
21.94
21.93
21.58
20.71
19.18
16.99
14.26
11.23
8.19
5.40
2.99
0.96
-0.87
-2.73
-4.85
-7.37
-10.28
-13.37
-16.30
-18.62
-19.94
-20.01
-18.80
-16.54
-13.58
-10.33
-7.11
-4.12
-1.41
1.00
3.09
4.81
6.10
6.94
7.43
7.71
7.94
8.24
8.64
9.12
9.63
10.16
10.75
11.41
12.16
12.92
13.60
14.08
14.28
14.15
13.68
12.86
11.73
10.34
8.78
7.14
5.54
4.03
2.67
1.48
0.41
-0.57
-1.54
-2.59
-3.77
-5.09
-6.55
-8.05
-9.47
-10.73
-11.72
-12.42
-12.86
-13.17
-13.54
-14.22
-15.41
-17.12
-19.15
-21.02
-22.21
-22.21
-20.82
-18.17
-14.71
-11.03
-7.66
-4.90
-2.79
-1.20
0.07
1.10
1.91
2.45
2.65
2.56
2.28
1.93
1.65
1.47
1.42
1.51
1.71
2.03
2.45
2.96
3.49
3.99
4.40
4.67
4.80
4.82
4.73
4.50
4.13
3.59
2.88
2.03
1.07
0.03
-1.06
-2.17
-3.24
-4.20
-5.00
-5.60
-6.06
-6.48
-7.04
-7.81
-8.83
-10.01
-11.22
-12.41
-13.63
-15.01
-16.67
-18.59
-20.47
-21.84
-22.16
-21.10
-18.63
-15.12
-11.14
-7.32
-4.06
-1.48
0.55
2.18
3.53
4.60
5.28
5.50
5.31
4.81
4.18
3.54
2.98
2.55
2.26
2.16
2.29
2.62
3.01
3.26
3.14
2.54
1.49
0.18
-1.10
-2.10
-2.69
-2.90
-2.93
-3.00
-3.33
-4.02
-5.05
-6.31
-7.63
-8.86
-9.96
-10.94
-11.90
-13.00
-14.42
-16.30
-18.63
-21.23
-23.70
-25.58
-26.51
-26.38
-25.45
-24.24
-23.40
-23.37
-24.26
-25.73
-27.08
-27.45
-26.06
-22.43
-16.53
-8.74
0.24
9.65
18.89
27.60
35.66
42.95
49.24
54.10
57.03
57.66
56.02
52.57
48.12
43.51
39.37
35.90
32.95
30.17
27.30
24.28
21.27
18.52
16.16
14.14
12.24
10.29
8.29
6.38
4.79
3.59
2.60
1.43
-0.28
-2.67
-5.52
-8.39
-10.83
-12.56
-13.56
-13.94
-13.77
-12.98
-11.46
-9.20
-6.48
-3.84
-1.94
-1.31
-2.01
-3.68
-5.63
-7.06
-7.36
-6.26
-3.82
-0.37
3.59
7.47
10.74
12.84
13.42
12.34
9.81
6.34
2.63
-0.63
-2.93
-4.03
-4.02
-3.25
-2.17
-1.23
-0.70
-0.61
-0.82
-1.06
-1.12
-1.02
-0.95
-1.20
-1.97
-3.23
-4.71
-6.12
-7.24
-8.09
-8.88
-9.86
-11.09
-12.48
-13.73
-14.60
-14.96
-14.88
-14.57
-14.26
-14.13
-14.29
-14.77
-15.56
-16.65
-17.94
-19.30
-20.52
-21.33
-21.43
-20.64
-18.87
-16.26
-13.10
-9.80
-6.70
-4.03
-1.82
0.07
1.84
3.57
5.27
6.78
7.97
8.80
9.35
9.83
10.41
11.19
12.07
12.88
13.41
13.54
13.24
12.63
11.87
11.13
10.55
10.15
9.90
9.62
9.17
8.40
7.31
6.03
4.75
3.67
2.82
2.11
1.33
0.23
-1.30
-3.22
-5.22
-6.91
-7.78
-7.37
-5.45
-2.27
1.30
3.72
3.15
-1.94
-12.11
-26.54
-43.12
-59.09
-71.89
-79.89
-82.62
-80.64
-74.96
-66.76
-57.04
-46.74
-36.80
-28.11
-21.32
-16.69
-13.88
-12.13
-10.46
-8.07
-4.59
-0.17
4.62
9.02
12.43
14.57
15.67
16.25
16.97
18.31
20.41
23.08
25.89
28.41
30.31
31.46
31.90
31.71
31.00
29.77
28.05
25.85
23.21
20.23
17.04
13.82
10.71
7.82
5.14
2.58
-0.06
-3.01
-6.37
-10.11
-14.05
-17.92
-21.50
-24.70
-27.62
-30.48
-33.58
-37.15
-41.32
-46.03
-50.99
-55.61
-59.04
-60.31
-58.59
-53.55
-45.46
-35.27
-24.22
-13.54
-4.12
3.64
9.74
14.35
17.64
19.80
20.98
21.44
21.50
21.49
21.66
22.09
22.75
23.52
24.31
25.07
25.80
26.51
27.18
27.73
28.02
27.89
27.17
25.79
23.76
21.21
18.35
15.40
12.53
9.84
7.38
5.15
3.11
1.23
-0.62
-2.60
-4.86
-7.50
-10.49
-13.62
-16.68
-19.48
-22.04
-24.60
-27.61
-31.51
-36.51
-42.38
-48.33
-53.16
-55.54
-54.43
-49.44
-40.95
-30.01
-17.99
-6.22
4.32
13.04
19.82
24.78
28.19
30.40
31.74
32.49
32.88
33.03
32.98
32.69
32.12
31.21
30.04
28.72
27.50
26.61
26.22
26.31
26.70
27.06
27.04
26.35
24.86
22.62
19.82
16.77
13.81
11.21
9.17
7.64
6.46
5.31
3.93
2.13
-0.11
-2.66
-5.34
-7.96
-10.39
-12.58
-14.58
-16.55
-18.73
-21.41
-24.74
-28.62
-32.48
-35.43
-36.39
-34.51
-29.49
-21.74
-12.27
-2.34
6.90
14.71
20.82
25.33
28.49
30.52
31.62
31.97
31.80
31.41
31.06
30.83
30.61
30.16
29.24
27.90
26.47
25.41
25.09
25.53
26.36
27.01
26.96
26.01
24.35
22.37
20.50
18.95
17.76
16.74
15.73
14.56
13.17
11.55
9.71
7.70
5.61
3.52
1.60
0.00
-1.16
-1.90
-2.41
-3.03
-4.12
-5.95
-8.53
-11.63
-14.79
-17.52
-19.44
-20.29
-20.02
-18.70
-16.47
-13.58
-10.31
-6.95
-3.75
-0.85
1.74
4.08
6.19
7.95
9.17
9.62
9.24
8.19
6.83
5.58
4.77
4.55
4.86
5.53
6.38
7.25
8.04
8.69
9.14
9.37
9.38
9.17
8.76
8.15
7.39
6.55
5.71
4.98
4.37
3.84
3.24
2.38
1.18
-0.37
-2.11
-3.83
-5.33
-6.57
-7.64
-8.76
-10.14
-11.90
-13.94
-16.03
-17.83
-18.98
-19.23
-18.47
-16.75
-14.24
-11.17
-7.78
-4.27
-0.81
2.43
5.30
7.63
9.36
10.48
11.14
11.49
11.68
11.80
11.87
11.91
11.92
11.96
12.03
12.14
12.28
12.37
12.40
12.27
11.93
11.36
10.59
9.71
8.83
8.08
7.48
6.99
6.53
6.00
5.32
4.47
3.44
2.29
1.09
-0.03
-0.95
-1.59
-2.01
-2.36
-2.84
-3.62
-4.73
-5.99
-7.12
-7.86
-8.11
-8.11
-8.31
-9.25
-11.25
-14.14
-17.31
-19.83
-20.88
-20.05
-17.62
-14.37
-11.31
-9.21
-8.31
-8.26
-8.38
-8.01
-6.87
-5.16
-3.43
-2.38
-2.61
-4.57
-8.44
-13.91
-19.83
-24.11
-24.14
-17.73
-4.24
14.70
35.53
53.95
66.58
72.08
71.28
66.36
59.57
52.40
45.39
38.59
32.07
26.21
21.42
17.89
15.33
13.10
10.54
7.29
3.43
-0.53
-3.99
-6.52
-8.05
-8.89
-9.57
-10.61
-12.27
-14.45
-16.80
-18.88
-20.35
-21.22
-21.78
-22.50
-23.82
-25.86
-28.32
-30.60
-31.98
-31.86
-30.07
-26.84
-22.77
-18.54
-14.72
-11.60
-9.18
-7.25
-5.62
-4.16
-2.86
-1.75
-0.82
0.01
0.84
1.73
2.67
3.53
4.16
4.49
4.55
4.46
4.35
4.28
4.25
4.12
3.78
3.12
2.21
1.18
0.21
-0.53
-1.05
-1.48
-2.03
-2.82
-3.84
-4.97
-5.98
-6.70
-7.06
-7.09
-6.86
-6.43
-5.94
-5.53
-5.43
-5.80
-6.71
-7.99
-9.38
-10.58
-11.46
-12.09
-12.72
-13.61
-14.90
-16.51
-18.13
-19.38
-19.88
-19.41
-17.93
-15.56
-12.56
-9.23
-5.90
-2.88
-0.40
1.39
2.49
3.00
3.07
2.87
2.50
2.00
1.42
0.81
0.29
-0.00
0.03
0.43
1.13
2.02
2.96
3.83
4.54
5.08
5.50
5.85
6.18
6.46
6.60
6.53
6.17
5.54
4.70
3.71
2.58
1.30
-0.18
-1.83
-3.60
-5.35
-7.01
-8.54
-9.92
-11.20
-12.38
-13.44
-14.40
-15.27
-16.14
-17.12
-18.29
-19.68
-21.16
-22.48
-23.28
-23.18
-21.94
-19.49
-15.99
-11.80
-7.34
-2.99
0.99
4.48
7.41
9.75
11.49
12.67
13.38
13.78
14.01
14.21
14.38
14.46
14.37
14.05
13.57
13.01
12.49
12.05
11.65
11.21
10.65
9.94
9.10
8.20
7.32
6.52
5.79
5.11
4.42
3.64
2.70
1.54
0.13
-1.49
-3.26
-5.04
-6.76
-8.36
-9.88
-11.40
-13.00
-14.71
-16.50
-18.33
-20.20
-22.22
-24.57
-27.38
-30.58
-33.84
-36.59
-38.21
-38.22
-36.44
-33.00
-28.20
-22.43
-16.12
-9.65
-3.47
2.03
6.50
9.77
11.87
13.02
13.54
13.63
13.47
13.15
12.78
12.49
12.38
12.50
12.78
13.11
13.38
13.59
13.75
13.89
13.93
13.73
13.10
11.95
10.30
8.28
6.11
3.96
1.91
-0.08
-2.10
-4.29
-6.72
-9.38
-12.15
-14.76
-16.99
-18.73
-20.09
-21.36
-22.98
-25.31
-28.56
-32.57
-36.86
-40.65
-43.04
-43.17
-40.48
-34.86
-26.68
-16.82
-6.40
3.42
11.74
18.08
22.42
25.08
26.51
27.16
27.31
27.12
26.69
26.12
25.55
25.09
24.78
24.50
24.12
23.50
22.68
21.82
21.18
20.87
20.80
20.62
19.87
18.20
15.53
12.16
8.63
5.58
3.46
2.41
2.19
2.33
2.30
1.72
0.43
-1.55
-4.02
-6.82
-9.89
-13.31
-17.22
-21.73
-26.83
-32.30
-37.74
-42.59
-46.19
-47.88
-47.11
-43.59
-37.41
-29.09
-19.52
-9.83
-1.00
6.30
11.88
16.01
19.14
21.65
23.72
25.27
26.19
26.44
26.18
25.76
25.55
25.79
26.55
27.65
28.85
29.93
30.79
31.45
31.96
32.28
32.25
31.62
30.19
27.92
25.04
21.94
19.00
16.43
14.12
11.73
8.89
5.34
1.14
-3.40
-7.86
-11.89
-15.40
-18.54
-21.67
-25.16
-29.25
-33.99
-39.22
-44.55
-49.46
-53.21
-55.01
-54.07
-49.93
-42.65
-32.94
-21.98
-11.15
-1.51
6.42
12.66
17.53
21.37
24.40
26.67
28.22
29.17
29.73
30.08
30.35
30.58
30.76
30.94
31.20
31.60
32.08
32.53
32.82
32.86
32.62
32.08
31.14
29.72
27.73
25.25
22.52
19.85
17.43
15.28
13.23
11.07
8.65
6.01
3.32
0.74
-1.69
-4.04
-6.53
-9.33
-12.50
-15.94
-19.40
-22.64
-25.56
-28.23
-30.92
-33.99
-37.69
-42.03
-46.71
-51.11
-54.40
-55.71
-54.38
-50.17
-43.31
-34.54
-24.84
-15.21
-6.41
1.16
7.41
12.41
16.27
19.01
20.63
21.24
21.08
20.59
20.26
20.47
21.41
23.02
25.01
27.00
28.65
29.76
30.28
30.25
29.80
29.02
27.94
26.59
24.99
23.13
20.99
18.54
15.75
12.66
9.39
6.16
3.11
0.35
-2.21
-4.69
-7.20
-9.73
-12.17
-14.41
-16.48
-18.54
-20.85
-23.60
-26.90
-30.70
-34.85
-39.13
-43.19
-46.43
-48.06
-47.24
-43.41
-36.52
-27.21
-16.67
-6.29
2.80
9.94
15.07
18.57
20.92
22.55
23.74
24.59
25.15
25.50
25.75
25.99
26.31
26.76
27.31
27.88
28.41
28.81
29.04
29.01
28.71
28.08
27.11
25.79
24.16
22.31
20.36
18.44
16.61
14.88
13.17
11.40
9.53
7.55
5.47
3.31
1.07
-1.27
-3.66
-6.05
-8.40
-10.73
-13.06
-15.47
-17.97
-20.54
-23.10
-25.63
-28.27
-31.27
-34.88
-39.23
-44.10
-48.81
-52.43
-53.86
-52.30
-47.45
-39.69
-29.97
-19.55
-9.66
-1.17
5.57
10.66
14.44
17.26
19.36
20.84
21.80
22.38
22.78
23.26
23.93
24.78
25.65
26.38
26.87
27.16
27.39
27.69
28.10
28.53
28.83
28.79
28.29
27.29
25.84
24.10
22.26
20.47
18.81
17.22
15.60
13.82
11.83
9.65
7.41
5.23
3.14
1.10
-0.99
-3.26
-5.76
-8.47
-11.29
-14.11
-16.84
-19.47
-22.08
-24.80
-27.80
-31.22
-35.10
-39.36
-43.77
-47.92
-51.21
-52.93
-52.40
-49.20
-43.28
-35.14
-25.66
-15.94
-6.94
0.67
6.70
11.26
14.64
17.03
18.57
19.32
19.42
19.17
18.94
19.11
19.81
20.98
22.35
23.57
24.45
24.94
25.11
25.07
24.88
24.49
23.83
22.85
21.57
20.02
18.27
16.34
14.22
11.94
9.56
7.17
4.84
2.59
0.37
-1.91
-4.35
-7.02
-9.87
-12.73
-15.41
-17.68
-19.49
-20.96
-22.40
-24.18
-26.67
-30.07
-34.33
-39.10
-43.73
-47.35
-49.01
-47.95
-43.82
-36.85
-27.84
-17.91
-8.19
0.44
7.57
13.17
17.49
20.87
23.59
25.85
27.71
29.14
30.06
30.40
30.20
29.65
28.98
28.44
28.17
28.18
28.35
28.50
28.49
28.20
27.57
26.54
25.07
23.19
20.97
18.60
16.31
14.33
12.76
11.52
10.38
9.06
7.34
5.22
2.86
0.51
-1.63
-3.54
-5.41
-7.49
-10.04
-13.09
-16.48
-19.92
-23.08
-25.78
-28.06
-30.19
-32.57
-35.57
-39.42
-44.07
-49.17
-54.05
-57.78
-59.39
-58.05
-53.34
-45.46
-35.20
-23.79
-12.54
-2.51
5.74
12.09
16.77
20.14
22.48
24.01
24.90
25.34
25.50
25.54
25.54
25.51
25.41
25.25
25.11
25.11
25.33
25.79
26.34
26.76
26.83
26.38
25.38
23.89
22.05
20.01
17.93
15.93
14.06
12.39
10.91
9.57
8.29
6.93
5.36
3.52
1.45
-0.65
-2.60
-4.21
-5.49
-6.61
-7.85
-9.48
-11.63
-14.25
-17.13
-20.02
-22.71
-25.12
-27.32
-29.54
-32.06
-35.21
-39.12
-43.65
-48.19
-51.77
-53.27
-51.76
-46.87
-38.95
-28.98
-18.25
-7.98
0.95
8.11
13.49
17.30
19.84
21.36
22.07
22.20
21.97
21.58
21.24
21.03
20.97
21.03
21.16
21.35
21.66
22.12
22.73
23.42
24.04
24.40
24.34
23.78
22.72
21.27
19.60
17.86
16.12
14.35
12.38
10.09
7.45
4.63
1.90
-0.48
-2.41
-4.02
-5.59
-7.41
-9.66
-12.33
-15.26
-18.22
-21.01
-23.55
-25.90
-28.24
-30.87
-34.10
-38.07
-42.54
-46.85
-49.92
-50.61
-48.07
-42.09
-33.25
-22.72
-11.95
-2.15
5.90
12.03
16.43
19.51
21.66
23.11
24.00
24.40
24.38
24.01
23.42
22.75
22.16
21.74
21.60
21.71
22.08
22.62
23.27
23.93
24.50
24.81
24.68
24.02
22.81
21.26
19.69
18.46
17.76
17.49
17.35
16.87
15.73
13.80
11.27
8.46
5.69
3.17
0.88
-1.29
-3.44
-5.62
-7.78
-9.85
-11.79
-13.67
-15.63
-17.83
-20.35
-23.20
-26.32
-29.65
-33.12
-36.57
-39.74
-42.13
-43.14
-42.19
-38.93
-33.42
-26.15
-17.94
-9.72
-2.29
3.88
8.66
12.21
14.81
16.71
18.07
18.95
19.41
19.52
19.41
19.21
19.03
18.94
18.95
19.12
19.49
20.13
21.04
22.13
23.23
24.08
24.41
24.00
22.73
20.63
17.88
14.81
11.79
9.11
6.94
5.22
3.72
2.19
0.43
-1.59
-3.75
-5.86
-7.79
-9.51
-11.11
-12.77
-14.61
-16.65
-18.79
-20.94
-23.06
-25.31
-27.97
-31.39
-35.68
-40.58
-45.35
-48.87
-49.99
-47.95
-42.62
-34.60
-25.05
-15.30
-6.46
0.80
6.28
10.18
12.83
14.57
15.64
16.22
16.44
16.49
16.56
16.83
17.41
18.24
19.16
19.99
20.57
20.88
21.01
21.07
21.09
21.00
20.58
19.64
18.03
15.83
13.23
10.57
8.16
6.13
4.47
2.96
1.36
-0.54
-2.82
-5.43
-8.24
-11.12
-13.91
-16.51
-18.91
-21.15
-23.39
-25.89
-28.87
-32.50
-36.74
-41.29
-45.57
-48.77
-49.95
-48.36
-43.63
-35.99
-26.32
-15.89
-6.01
2.31
8.60
12.97
15.89
17.92
19.52
20.90
22.05
22.86
23.26
23.28
23.05
22.77
22.56
22.52
22.62
22.86
23.23
23.77
24.52
25.40
26.22
26.65
26.41
25.32
23.42
21.03
18.54
16.40
14.81
13.74
12.90
11.88
10.38
8.29
5.75
3.04
0.45
-1.86
-3.91
-5.86
-7.95
-10.32
-12.94
-15.65
-18.24
-20.57
-22.63
-24.59
-26.70
-29.23
-32.38
-36.22
-40.64
-45.32
-49.66
-52.84
-53.95
-52.23
-47.34
-39.52
-29.58
-18.76
-8.33
0.63
7.52
12.27
15.27
17.09
18.33
19.41
20.47
21.47
22.29
22.87
23.25
23.53
23.80
24.06
24.27
24.40
24.50
24.76
25.32
26.19
27.18
27.92
28.00
27.19
25.52
23.24
20.73
18.37
16.40
14.86
13.65
12.60
11.47
10.13
8.52
6.75
4.98
3.43
2.17
1.16
0.19
-0.96
-2.47
-4.42
-6.76
-9.37
-12.14
-14.94
-17.71
-20.44
-23.23
-26.18
-29.49
-33.30
-37.68
-42.44
-47.12
-50.95
-52.97
-52.24
-48.25
-41.09
-31.52
-20.80
-10.29
-1.09
6.18
11.49
15.13
17.51
18.96
19.73
19.96
19.82
19.55
19.31
19.21
19.24
19.32
19.38
19.42
19.54
19.85
20.43
21.22
22.05
22.69
22.94
22.69
21.93
20.74
19.25
17.52
15.63
13.64
11.57
9.49
7.45
5.51
3.72
2.04
0.37
-1.46
-3.61
-6.11
-8.88
-11.70
-14.35
-16.65
-18.60
-20.32
-22.04
-24.10
-26.84
-30.45
-34.85
-39.52
-43.55
-45.80
-45.24
-41.41
-34.55
-25.55
-15.70
-6.22
2.04
8.67
13.65
17.15
19.42
20.70
21.24
21.32
21.22
21.16
21.25
21.49
21.77
21.98
22.06
22.02
21.97
22.03
22.31
22.83
23.48
24.07
24.36
24.15
23.35
21.98
20.20
18.17
16.06
13.95
11.88
9.84
7.81
5.81
3.90
2.17
0.64
-0.72
-2.01
-3.38
-4.98
-6.88
-9.06
-11.41
-13.77
-16.03
-18.15
-20.23
-22.47
-25.13
-28.41
-32.46
-37.09
-41.84
-45.87
-48.18
-47.84
-44.36
-37.87
-29.11
-19.24
-9.51
-0.93
5.97
11.07
14.55
16.72
17.88
18.26
18.06
17.52
16.92
16.53
16.56
17.02
17.75
18.52
19.13
19.58
20.02
20.67
21.60
22.68
23.60
23.99
23.67
22.69
21.28
19.73
18.26
16.86
15.47
13.94
12.21
10.28
8.24
6.21
4.31
2.59
1.03
-0.46
-2.03
-3.83
-5.92
-8.27
-10.74
-13.20
-15.51
-17.62
-19.49
-21.22
-22.96
-24.94
-27.43
-30.56
-34.20
-37.78
-40.47
-41.32
-39.64
-35.25
-28.58
-20.50
-12.06
-4.20
2.48
7.73
11.63
14.37
16.18
17.25
17.70
17.67
17.30
16.83
16.44
16.32
16.53
16.98
17.51
17.97
18.27
18.46
18.64
18.87
19.09
19.15
18.84
18.03
16.75
15.15
13.42
11.69
9.96
8.15
6.20
4.16
2.13
0.25
-1.45
-3.04
-4.66
-6.42
-8.34
-10.33
-12.21
-13.84
-15.20
-16.41
-17.74
-19.53
-22.12
-25.69
-30.17
-35.11
-39.67
-42.82
-43.57
-41.36
-36.24
-28.94
-20.57
-12.29
-4.92
1.19
6.08
9.97
13.04
15.27
16.57
16.91
16.47
15.62
14.78
14.23
14.06
14.18
14.45
14.75
15.10
15.57
16.19
16.91
17.59
18.02
18.04
17.58
16.69
15.49
14.18
12.92
11.80
10.86
10.03
9.16
8.12
6.78
5.12
3.20
1.17
-0.78
-2.44
-3.75
-4.79
-5.79
-7.01
-8.60
-10.56
-12.68
-14.72
-16.52
-18.08
-19.61
-21.41
-23.76
-26.82
-30.51
-34.45
-38.04
-40.45
-40.88
-38.84
-34.25
-27.57
-19.66
-11.50
-3.91
2.56
7.69
11.45
13.96
15.40
16.00
16.03
15.79
15.48
15.24
15.12
15.13
15.26
15.50
15.84
16.23
16.60
16.90
17.10
17.21
17.26
17.19
16.97
16.51
15.80
14.90
13.90
12.89
11.83
10.63
9.12
7.23
4.98
2.56
0.26
-1.66
-3.05
-3.93
-4.46
-4.90
-5.51
-6.48
-7.92
-9.78
-11.88
-14.03
-16.02
-17.81
-19.49
-21.26
-23.39
-26.08
-29.41
-33.20
-36.99
-40.08
-41.64
-40.94
-37.64
-31.85
-24.26
-15.84
-7.58
-0.23
5.84
10.49
13.75
15.66
16.32
15.94
14.88
13.62
12.54
11.87
11.57
11.49
11.46
11.42
11.43
11.63
12.13
12.87
13.72
14.45
14.83
14.71
14.01
12.77
11.06
9.05
6.91
4.81
2.86
1.08
-0.62
-2.35
-4.18
-6.13
-8.09
-9.98
-11.74
-13.40
-15.03
-16.64
-18.12
-19.35
-20.21
-20.74
-21.17
-21.89
-23.29
-25.60
-28.78
-32.44
-35.90
-38.30
-38.83
-36.94
-32.52
-25.95
-18.01
-9.65
-1.80
4.88
10.06
13.76
16.27
17.96
19.19
20.22
21.12
21.86
22.41
22.76
23.00
23.25
23.63
24.19
24.93
25.82
26.79
27.75
28.53
28.93
28.74
27.84
26.30
24.36
22.32
20.45
18.84
17.44
16.05
14.46
12.54
10.30
7.87
5.47
3.28
1.37
-0.33
-1.95
-3.67
-5.58
-7.69
-9.91
-12.11
-14.19
-16.16
-18.10
-20.19
-22.69
-25.83
-29.80
-34.51
-39.51
-43.98
-46.87
-47.21
-44.47
-38.74
-30.76
-21.62
-12.48
-4.26
2.52
7.68
11.34
13.71
15.07
15.73
16.01
16.19
16.45
16.87
17.39
17.91
18.32
18.60
18.77
18.89
19.03
19.21
19.40
19.54
19.51
19.21
18.54
17.46
15.97
14.13
12.05
9.90
7.83
6.01
4.60
3.64
3.07
2.71
2.30
1.58
0.37
-1.33
-3.40
-5.61
-7.71
-9.59
-11.24
-12.85
-14.69
-17.08
-20.26
-24.25
-28.74
-33.14
-36.58
-38.16
-37.20
-33.49
-27.33
-19.50
-11.00
-2.81
4.33
10.02
14.20
16.99
18.57
19.21
19.18
18.79
18.38
18.20
18.35
18.77
19.28
19.68
19.84
19.79
19.67
19.65
19.87
20.30
20.79
21.05
20.77
19.71
17.78
15.09
11.92
8.66
5.62
3.00
0.80
-1.14
-3.05
-5.19
-7.64
-10.39
-13.28
-16.05
-18.50
-20.56
-22.35
-24.14
-26.30
-29.17
-32.87
-37.23
-41.69
-45.39
-47.36
-46.79
-43.34
-37.23
-29.22
-20.34
-11.61
-3.75
2.85
8.13
12.17
15.14
17.24
18.69
19.73
20.54
21.28
21.96
22.57
23.08
23.52
23.91
24.34
24.81
25.32
25.81
26.21
26.43
26.39
25.99
25.13
23.82
22.17
20.36
18.59
16.97
15.43
13.83
11.99
9.84
7.45
5.02
2.76
0.80
-0.87
-2.37
-3.87
-5.52
-7.43
-9.60
-11.97
-14.39
-16.68
-18.73
-20.56
-22.36
-24.47
-27.26
-30.87
-35.11
-39.35
-42.62
-43.92
-42.54
-38.33
-31.74
-23.67
-15.18
-7.15
-0.14
5.63
10.12
13.42
15.67
17.03
17.76
18.15
18.50
18.98
19.65
20.45
21.29
22.10
22.83
23.53
24.23
25.00
25.84
26.72
27.53
28.12
28.32
28.03
27.21
25.92
24.32
22.57
20.85
19.31
17.97
16.81
15.70
14.49
13.02
11.26
9.20
6.95
4.62
2.27
-0.06
-2.35
-4.62
-6.88
-9.16
-11.52
-14.02
-16.66
-19.40
-22.13
-24.71
-27.06
-29.23
-31.43
-33.95
-37.03
-40.66
-44.43
-47.61
-49.30
-48.74
-45.60
-40.12
-33.03
-25.29
-17.81
-11.21
-5.72
-1.29
2.28
5.17
7.45
9.07
10.00
10.25
10.02
9.62
9.41
9.60
10.19
10.97
11.66
12.06
12.19
12.23
12.38
12.72
13.14
13.40
13.32
12.82
12.05
11.22
10.50
9.89
9.22
8.25
6.82
4.96
2.93
1.04
-0.45
-1.43
-2.02
-2.51
-3.20
-4.31
-5.87
-7.74
-9.64
-11.31
-12.61
-13.58
-14.47
-15.65
-17.52
-20.34
-24.11
-28.43
-32.57
-35.62
-36.69
-35.24
-31.21
-25.06
-17.61
-9.78
-2.36
4.16
9.59
13.93
17.28
19.75
21.43
22.47
23.05
23.33
23.47
23.46
23.31
22.95
22.37
21.63
20.83
20.07
19.43
18.91
18.48
18.14
17.86
17.60
17.31
16.91
16.33
15.60
14.77
13.95
13.22
12.62
12.10
11.55
10.85
9.92
8.74
7.35
5.86
4.38
3.01
1.77
0.59
-0.63
-2.03
-3.72
-5.68
-7.83
-10.03
-12.14
-14.12
-16.03
-18.04
-20.31
-22.99
-26.16
-29.81
-33.85
-38.04
-41.94
-44.91
-46.19
-45.14
-41.45
-35.37
-27.66
-19.35
-11.48
-4.73
0.63
4.70
7.78
10.14
11.99
13.42
14.51
15.36
16.04
16.62
17.15
17.65
18.14
18.63
19.12
19.60
20.05
20.45
20.81
21.13
21.44
21.69
21.80
21.59
20.97
19.88
18.42
16.81
15.28
14.01
13.04
12.26
11.46
10.41
9.00
7.26
5.36
3.52
1.93
0.64
-0.42
-1.40
-2.46
-3.71
-5.18
-6.84
-8.66
-10.60
-12.62
-14.65
-16.65
-18.63
-20.67
-22.97
-25.71
-28.95
-32.52
-35.98
-38.59
-39.62
-38.46
-34.89
-29.13
-21.88
-14.02
-6.48
0.08
5.27
9.05
11.57
13.04
13.73
13.88
13.72
13.50
13.41
13.55
13.87
14.24
14.51
14.58
14.47
14.30
14.24
14.42
14.82
15.32
15.70
15.70
15.16
14.03
12.45
10.65
8.90
7.39
6.21
5.27
4.43
3.54
2.50
1.29
-0.04
-1.41
-2.75
-4.05
-5.32
-6.64
-8.10
-9.75
-11.56
-13.45
-15.25
-16.85
-18.27
-19.63
-21.17
-23.10
-25.58
-28.60
-32.02
-35.54
-38.71
-40.93
-41.56
-40.05
-36.17
-30.17
-22.70
-14.73
-7.19
-0.72
4.48
8.54
11.80
14.49
16.67
18.25
19.15
19.42
19.35
19.29
19.51
20.08
20.83
21.44
21.64
21.32
20.57
19.58
18.58
17.77
17.18
16.79
16.47
16.11
15.60
14.93
14.12
13.23
12.29
11.26
10.05
8.60
6.91
5.07
3.24
1.57
0.10
-1.16
-2.28
-3.35
-4.43
-5.56
-6.82
-8.29
-10.05
-12.08
-14.31
-16.51
-18.52
-20.21
-21.65
-23.07
-24.77
-27.02
-29.88
-33.07
-35.99
-37.84
-37.91
-35.70
-31.24
-24.95
-17.57
-9.87
-2.52
4.00
9.42
13.57
16.39
17.93
18.40
18.14
17.58
17.09
16.89
17.02
17.36
17.77
18.12
18.37
18.51
18.58
18.62
18.63
18.63
18.58
18.42
18.07
17.48
16.66
15.70
14.73
13.83
13.01
12.20
11.27
10.14
8.82
7.43
6.11
5.00
4.11
3.34
2.46
1.24
-0.46
-2.64
-5.09
-7.58
-9.90
-12.00
-13.96
-15.98
-18.25
-20.89
-23.88
-27.10
-30.24
-32.84
-34.30
-34.01
-31.58
-26.99
-20.71
-13.53
-6.41
-0.16
4.76
8.24
10.45
11.69
12.28
12.43
12.31
12.02
11.67
11.37
11.21
11.26
11.49
11.87
12.33
12.82
13.34
13.86
14.36
14.72
14.86
14.70
14.21
13.43
12.42
11.21
9.80
8.24
6.60
5.02
3.61
2.43
1.42
0.46
-0.62
-1.91
-3.41
-5.04
-6.72
-8.39
-10.06
-11.78
-13.60
-15.55
-17.68
-20.01
-22.61
-25.59
-28.96
-32.61
-36.11
-38.80
-39.84
-38.52
-34.52
-28.11
-20.07
-11.54
-3.58
3.09
8.19
11.87
14.45
16.26
17.51
18.35
18.87
19.21
19.47
19.73
19.95
20.04
19.92
19.57
19.09
18.64
18.36
18.36
18.58
18.85
18.94
18.65
17.88
16.62
14.99
13.13
11.15
9.08
6.95
4.81
2.74
0.85
-0.81
-2.24
-3.60
-5.08
-6.79
-8.77
-10.86
-12.89
-14.68
-16.18
-17.43
-18.59
-19.81
-21.27
-23.12
-25.49
-28.41
-31.75
-35.11
-37.82
-39.15
-38.50
-35.60
-30.64
-24.16
-16.94
-9.75
-3.18
2.39
6.82
10.15
12.52
14.16
15.22
15.82
15.98
15.72
15.16
14.48
13.94
13.73
13.92
14.42
15.11
15.83
16.51
17.12
17.57
17.77
17.53
16.74
15.36
13.46
11.25
8.93
6.67
4.49
2.31
0.01
-2.54
-5.33
-8.24
-11.02
-13.44
-15.38
-16.89
-18.22
-19.70
-21.67
-24.29
-27.49
-30.91
-33.94
-35.89
-36.12
-34.25
-30.31
-24.70
-18.07
-11.16
-4.60
1.17
5.93
9.67
12.49
14.59
16.18
17.43
18.41
19.11
19.52
19.64
19.61
19.61
19.80
20.17
20.61
20.92
20.92
20.59
20.03
19.36
18.72
18.09
17.36
16.39
15.05
13.33
11.33
9.22
7.17
5.29
3.59
2.01
0.42
-1.30
-3.19
-5.28
-7.52
-9.84
-12.16
-14.34
-16.31
-18.07
-19.78
-21.71
-24.21
-27.42
-31.16
-34.88
-37.76
-38.95
-37.87
-34.38
-28.80
-21.80
-14.19
-6.78
-0.19
5.18
9.20
11.96
13.72
14.84
15.61
16.27
16.93
17.62
18.35
19.12
19.92
20.76
21.57
22.25
22.73
22.97
22.95
22.77
22.44
21.98
21.31
20.37
19.12
17.59
15.88
14.10
12.37
10.77
9.34
8.02
6.77
5.49
4.07
2.42
0.53
-1.61
-3.87
-6.10
-8.14
-9.89
-11.38
-12.78
-14.34
-16.37
-19.12
-22.64
-26.76
-31.01
-34.74
-37.22
-37.86
-36.33
-32.72
-27.44
-21.16
-14.58
-8.31
-2.70
2.07
5.99
9.12
11.52
13.21
14.25
14.67
14.62
14.28
13.87
13.55
13.38
13.33
13.33
13.30
13.27
13.30
13.49
13.83
14.21
14.44
14.29
13.63
12.45
10.89
9.10
7.21
5.33
3.48
1.63
-0.26
-2.18
-4.11
-6.00
-7.84
-9.63
-11.40
-13.23
-15.19
-17.32
-19.66
-22.26
-25.12
-28.24
-31.43
-34.29
-36.18
-36.38
-34.32
-29.84
-23.30
-15.54
-7.50
-0.05
6.36
11.59
15.70
18.77
20.80
21.78
21.80
21.14
20.18
19.29
18.68
18.36
18.26
18.28
18.38
18.56
18.75
18.81
18.60
18.03
17.12
16.04
15.00
14.12
13.45
12.89
12.29
11.49
10.40
9.02
7.36
5.49
3.49
1.38
-0.80
-3.02
-5.24
-7.43
-9.49
-11.36
-12.95
-14.29
-15.45
-16.66
-18.16
-20.26
-23.15
-26.84
-31.02
-35.06
-38.18
-39.60
-38.83
-35.82
-30.96
-24.97
-18.69
-12.84
-7.87
-3.95
-0.98
1.27
3.03
4.47
5.75
6.94
8.13
9.35
10.65
11.98
13.24
14.29
15.02
15.42
15.58
15.66
15.79
16.01
16.25
16.38
16.25
15.80
15.04
14.05
12.95
11.82
10.67
9.46
8.13
6.57
4.70
2.52
0.09
-2.45
-4.93
-7.17
-9.11
-10.78
-12.34
-14.07
-16.27
-19.08
-22.39
-25.77
-28.55
-29.98
-29.49
-26.85
-22.28
-16.36
-9.86
-3.51
2.13
6.76
10.39
13.15
15.27
16.94
18.21
19.07
19.50
19.49
19.18
18.83
18.73
19.10
19.99
21.34
22.92
24.47
25.77
26.63
26.93
26.63
25.74
24.29
22.35
19.98
17.24
14.25
11.18
8.24
5.61
3.40
1.55
-0.10
-1.76
-3.60
-5.71
-8.05
-10.50
-12.90
-15.13
-17.11
-18.91
-20.67
-22.63
-25.01
-27.93
-31.25
-34.52
-37.04
-38.03
-36.90
-33.48
-28.11
-21.53
-14.63
-8.16
-2.56
2.06
5.82
8.95
11.61
13.87
15.80
17.36
18.56
19.36
19.79
19.89
19.78
19.57
19.35
19.10
18.73
18.20
17.57
16.97
16.59
16.48
16.50
16.36
15.82
14.77
13.33
11.75
10.25
8.90
7.58
6.11
4.37
2.39
0.26
-1.85
-3.87
-5.79
-7.67
-9.55
-11.42
-13.27
-15.09
-16.99
-19.12
-21.67
-24.71
-28.05
-31.22
-33.49
-34.08
-32.48
-28.62
-22.95
-16.25
-9.36
-2.98
2.50
6.96
10.42
12.96
14.71
15.78
16.31
16.48
16.40
16.18
15.86
15.49
15.14
14.86
14.70
14.66
14.73
14.85
14.99
15.08
15.03
14.70
13.95
12.66
10.77
8.42
5.81
3.28
1.04
-0.79
-2.30
-3.70
-5.25
-7.09
-9.24
-11.53
-13.71
-15.58
-17.06
-18.28
-19.48
-21.01
-23.15
-25.97
-29.22
-32.33
-34.48
-34.89
-33.09
-29.06
-23.27
-16.51
-9.64
-3.33
1.99
6.13
9.12
11.04
12.07
12.42
12.35
12.15
12.03
12.12
12.39
12.73
12.99
13.08
13.00
12.82
12.68
12.66
12.80
13.08
13.42
13.73
13.92
13.95
13.77
13.37
12.72
11.76
10.49
8.93
7.21
5.50
3.95
2.62
1.50
0.45
-0.66
-1.88
-3.19
-4.54
-5.89
-7.24
-8.63
-10.10
-11.67
-13.34
-15.19
-17.43
-20.23
-23.62
-27.36
-30.80
-33.08
-33.40
-31.33
-26.99
-21.02
-14.34
-7.84
-2.12
2.59
6.32
9.18
11.26
12.62
13.31
13.44
13.22
12.87
12.55
12.35
12.29
12.36
12.53
12.77
13.03
13.27
13.45
13.52
13.51
13.40
13.21
12.88
12.37
11.68
10.83
9.92
9.05
8.34
7.82
7.48
7.18
6.73
5.93
4.66
2.91
0.76
-1.63
-4.08
-6.39
-8.41
-10.06
-11.34
-12.43
-13.57
-15.09
-17.15
-19.73
-22.50
-24.91
-26.34
-26.27
-24.37
-20.66
-15.49
-9.42
-3.17
2.59
7.38
10.97
13.40
14.86
15.58
15.77
15.57
15.07
14.43
13.77
13.24
12.91
12.76
12.67
12.49
12.10
11.51
10.80
10.19
9.82
9.76
9.90
10.03
9.90
9.38
8.43
7.20
5.86
4.56
3.37
2.25
1.08
-0.19
-1.63
-3.23
-4.97
-6.82
-8.73
-10.62
-12.41
-14.09
-15.73
-17.50
-19.62
-22.23
-25.32
-28.65
-31.73
-33.95
-34.68
-33.44
-30.07
-24.79
-18.17
-11.00
-4.07
2.01
6.92
10.61
13.22
14.96
16.01
16.52
16.59
16.36
15.99
15.66
15.53
15.65
15.93
16.18
16.17
15.81
15.16
14.46
13.94
13.70
13.63
13.50
13.07
12.24
11.11
9.84
8.56
7.27
5.88
4.31
2.58
0.82
-0.83
-2.36
-3.90
-5.65
-7.77
-10.26
-12.94
-15.54
-17.79
-19.57
-20.91
-22.01
-23.20
-24.77
-26.91
-29.62
-32.58
-35.21
-36.79
-36.68
-34.49
-30.28
-24.50
-17.87
-11.16
-5.00
0.23
4.41
7.61
10.01
11.74
12.90
13.57
13.80
13.73
13.54
13.44
13.56
13.89
14.34
14.72
14.93
14.95
14.84
14.74
14.71
14.76
14.78
14.62
14.11
13.18
11.83
10.19
8.42
6.72
5.19
3.79
2.37
0.69
-1.37
-3.81
-6.46
-9.03
-11.22
-12.88
-14.03
-14.86
-15.68
-16.81
-18.44
-20.70
-23.52
-26.68
-29.75
-32.11
-33.08
-32.07
-28.80
-23.47
-16.71
-9.42
-2.51
3.34
7.89
11.22
13.59
15.25
16.33
16.79
16.66
16.04
15.17
14.38
13.89
13.76
13.87
14.07
14.26
14.48
14.87
15.50
16.32
17.10
17.56
17.55
17.04
16.19
15.13
13.98
12.72
11.26
9.55
7.59
5.43
3.15
0.87
-1.30
-3.27
-4.95
-6.35
-7.53
-8.62
-9.74
-10.97
-12.34
-13.83
-15.45
-17.30
-19.53
-22.30
-25.61
-29.22
-32.58
-34.93
-35.50
-33.76
-29.64
-23.56
-16.29
-8.78
-1.81
4.11
8.79
12.27
14.74
16.38
17.38
17.93
18.19
18.34
18.46
18.58
18.69
18.76
18.78
18.79
18.84
18.92
19.02
19.10
19.11
19.02
18.77
18.26
17.34
15.85
13.74
11.13
8.29
5.57
3.23
1.33
-0.23
-1.68
-3.26
-5.10
-7.23
-9.52
-11.81
-13.92
-15.73
-17.16
-18.28
-19.29
-20.50
-22.21
-24.59
-27.49
-30.43
-32.70
-33.47
-32.19
-28.69
-23.32
-16.77
-9.86
-3.31
2.43
7.14
10.75
13.27
14.75
15.31
15.14
14.52
13.70
12.87
12.13
11.51
11.06
10.84
10.90
11.17
11.49
11.61
11.33
10.62
9.63
8.56
7.59
6.72
5.79
4.56
2.85
0.61
-2.04
-4.82
-7.46
-9.73
-11.56
-13.07
-14.52
-16.26
-18.55
-21.55
-25.16
-29.05
-32.69
-35.41
-36.57
-35.69
-32.60
-27.52
-21.05
-13.98
-7.14
-1.12
3.77
7.55
10.42
12.66
14.45
15.90
17.07
17.97
18.63
19.06
19.27
19.30
19.21
19.07
18.98
19.00
19.14
19.35
19.46
19.31
18.73
17.64
16.06
14.08
11.83
9.42
6.91
4.31
1.65
-1.01
-3.57
-5.88
-7.84
-9.48
-10.97
-12.61
-14.74
-17.57
-21.10
-25.00
-28.65
-31.28
-32.20
-31.00
-27.65
-22.49
-16.17
-9.44
-2.95
2.83
7.65
11.51
14.53
16.88
18.70
20.02
20.83
21.08
20.77
19.99
18.96
17.96
17.21
16.83
16.77
16.88
16.97
16.89
16.56
15.96
15.10
13.97
12.56
10.94
9.20
7.50
5.96
4.54
3.15
1.58
-0.28
-2.43
-4.75
-7.07
-9.24
-11.22
-13.04
-14.85
-16.84
-19.24
-22.25
-25.90
-29.97
-33.87
-36.75
-37.74
-36.24
-32.20
-26.10
-18.85
-11.44
-4.64
1.14
5.78
9.38
12.10
14.08
15.47
16.46
17.23
17.95
18.64
19.20
19.45
19.25
18.63
17.74
16.91
16.35
16.19
16.35
16.62
16.74
16.53
15.90
14.89
13.59
12.09
10.47
8.77
7.00
5.17
3.26
1.24
-0.92
-3.21
-5.58
-7.91
-10.09
-12.11
-14.01
-15.99
-18.29
-21.09
-24.42
-28.04
-31.40
-33.76
-34.37
-32.72
-28.78
-22.98
-16.18
-9.29
-3.08
2.07
6.09
9.13
11.39
13.00
14.08
14.78
15.27
15.72
16.28
16.99
17.78
18.54
19.22
19.81
20.35
20.90
21.46
21.95
22.32
22.50
22.44
22.12
21.51
20.64
19.59
18.52
17.54
16.66
15.75
14.63
13.15
11.33
9.37
7.57
6.08
4.86
3.67
2.19
0.28
-2.01
-4.45
-6.78
-8.77
-10.38
-11.64
-12.64
-13.56
-14.63
-16.15
-18.40
-21.43
-24.93
-28.19
-30.28
-30.30
-27.79
-22.90
-16.30
-9.01
-2.01
4.00
8.74
12.27
14.87
16.81
18.28
19.35
20.07
20.44
20.50
20.29
19.86
19.27
18.60
17.94
17.38
16.95
16.60
16.22
15.73
15.06
14.23
13.34
12.43
11.51
10.49
9.32
7.97
6.49
4.98
3.48
1.97
0.39
-1.33
-3.20
-5.07
-6.73
-8.02
-8.88
-9.46
-10.03
-10.84
-12.00
-13.44
-14.95
-16.31
-17.40
-18.28
-19.14
-20.23
-21.78
-23.93
-26.71
-29.97
-33.37
-36.38
-38.30
-38.49
-36.58
-32.60
-27.03
-20.68
-14.38
-8.78
-4.21
-0.68
2.00
4.07
5.71
7.00
8.03
8.90
9.67
10.44
11.22
11.99
12.69
13.36
14.06
14.91
15.93
16.99
17.85
18.25
18.03
17.23
16.06
14.78
13.58
12.50
11.46
10.36
9.14
7.86
6.61
5.49
4.49
3.54
2.52
1.34
-0.01
-1.51
-3.06
-4.61
-6.14
-7.64
-9.14
-10.61
-12.06
-13.50
-15.01
-16.75
-18.91
-21.59
-24.61
-27.53
-29.61
-30.17
-28.74
-25.30
-20.32
-14.54
-8.76
-3.55
0.80
4.26
6.90
8.87
10.31
11.38
12.28
13.20
14.22
15.32
16.34
17.06
17.35
17.20
16.75
16.23
15.87
15.78
15.93
16.17
16.30
16.16
15.71
14.99
14.09
13.09
12.03
10.96
9.88
8.77
7.56
6.16
4.51
2.64
0.69
-1.09
-2.53
-3.61
-4.49
-5.40
-6.57
-8.05
-9.74
-11.47
-13.13
