1650274333.00
64.000000
-0.00
-0.00
-0.00
-0.00
-0.00
-0.00
-0.00
-0.00
-0.00
-0.00
0.00
0.01
0.01
-0.00
-0.03
-0.05
-0.05
0.00
0.13
0.36
0.66
1.01
1.37
1.72
2.06
2.40
2.79
3.24
3.80
4.42
5.06
5.66
6.20
6.68
7.15
7.68
8.31
9.14
10.09
11.04
11.88
12.56
13.14
13.76
14.65
15.96
17.92
20.32
22.90
25.37
27.57
29.57
31.69
34.36
37.87
42.59
48.14
53.99
59.56
64.53
68.98
73.43
78.57
84.91
92.94
102.12
111.63
120.58
128.44
135.28
141.76
149.21
156.29
165.17
176.37
189.97
204.78
217.96
225.32
222.27
205.47
173.90
129.79
76.78
19.11
-39.92
-98.54
-156.21
-212.83
-268.09
-321.35
-371.55
-418.15
-460.66
-498.35
-529.92
-553.41
-566.61
-567.70
-555.95
-531.81
-497.17
-454.50
-406.27
-354.43
-300.39
-245.20
-189.94
-136.01
-85.02
-38.79
1.08
33.47
58.00
75.48
88.02
98.91
111.77
129.35
152.31
178.82
205.19
227.37
242.56
250.10
251.27
248.24
242.82
235.81
227.15
216.46
203.74
189.58
174.95
160.77
147.53
135.22
123.39
111.58
99.55
87.43
75.59
64.41
54.08
44.44
35.30
26.26
17.21
8.42
0.48
-5.96
-10.37
-12.60
-12.91
-11.89
-10.29
-8.70
-7.36
-6.10
-4.48
-2.11
1.06
4.55
7.51
8.99
8.48
6.04
2.31
-1.72
-5.19
-7.63
-9.04
-9.71
-10.06
-10.36
-10.67
-10.91
-10.98
-10.84
-10.61
-10.50
-10.67
-11.15
-11.72
-12.01
-11.63
-10.41
-8.52
-6.36
-4.44
-3.12
-2.45
-2.21
-2.02
-1.62
-0.97
-0.23
0.35
0.62
0.54
0.27
-0.02
-0.16
-0.15
-0.06
-0.01
-0.07
-0.23
-0.34
-0.30
-0.03
0.36
0.68
0.76
0.58
0.36
0.45
1.16
2.52
4.22
5.72
6.49
6.31
5.33
4.02
2.91
2.36
2.41
2.86
3.38
3.79
4.07
4.34
4.74
5.31
5.90
6.25
6.21
5.60
4.47
2.94
1.16
-0.75
-2.73
-4.73
-6.64
-8.24
-9.34
-9.79
-9.56
-8.83
-7.85
-6.90
-6.21
-5.85
-5.75
-5.77
-5.75
-5.57
-5.22
-4.75
-4.25
-3.80
-3.45
-3.22
-3.09
-3.03
-2.97
-2.87
-2.72
-2.50
-2.28
-2.08
-1.94
-1.87
-1.82
-1.69
-1.44
-1.02
-0.48
0.08
0.58
0.97
1.22
1.39
1.49
1.55
1.58
1.55
1.52
1.51
1.57
1.70
1.86
1.94
1.87
1.61
1.21
0.78
0.47
0.34
0.42
0.64
0.89
1.03
0.95
0.59
-0.04
-0.85
-1.70
-2.41
-2.84
-2.96
-2.88
-2.81
-2.99
-3.56
-4.48
-5.52
-6.40
-6.86
-6.81
-6.33
-5.58
-4.67
-3.67
-2.54
-1.28
0.06
1.33
2.34
2.91
3.03
2.79
2.42
2.13
2.07
2.23
2.50
2.73
2.80
2.66
2.38
2.04
1.73
1.47
1.22
0.92
0.55
0.13
-0.28
-0.63
-0.97
-1.37
-1.92
-2.62
-3.40
-4.11
-4.59
-4.82
-4.87
-4.90
-5.08
-5.51
-6.16
-6.90
-7.56
-7.93
-7.86
-7.27
-6.18
-4.69
-3.04
-1.44
-0.08
0.99
1.83
2.56
3.28
4.03
4.78
5.49
6.18
6.87
7.67
8.66
9.84
11.16
12.47
13.63
14.45
14.79
14.55
13.70
12.30
10.50
8.48
6.41
4.43
2.60
0.97
-0.48
-1.76
-2.89
-3.90
-4.82
-5.67
-6.52
-7.41
-8.34
-9.23
-9.93
-10.24
-10.07
-9.42
-8.49
-7.52
-6.71
-6.11
-5.65
-5.11
-4.34
-3.28
-1.99
-0.64
0.58
1.54
2.17
2.45
2.42
2.16
1.77
1.33
0.95
0.70
0.62
0.69
0.81
0.81
0.54
-0.06
-0.96
-1.99
-2.97
-3.79
-4.43
-5.01
-5.62
-6.34
-7.14
-7.94
-8.66
-9.25
-9.73
-10.09
-10.30
-10.31
-10.04
-9.48
-8.65
-7.67
-6.59
-5.46
-4.23
-2.84
-1.23
0.61
2.62
4.69
6.70
8.54
10.14
11.48
12.54
13.25
13.55
13.36
12.73
11.79
10.80
9.99
9.47
9.15
8.82
8.23
7.26
5.98
4.56
3.19
1.94
0.76
-0.50
-1.91
-3.43
-4.90
-6.16
-7.12
-7.84
-8.42
-8.91
-9.29
-9.43
-9.20
-8.57
-7.64
-6.63
-5.76
-5.17
-4.88
-4.76
-4.65
-4.41
-3.95
-3.29
-2.52
-1.74
-1.02
-0.40
0.15
0.67
1.19
1.66
2.00
2.14
2.08
1.89
1.65
1.48
1.40
1.42
1.51
1.69
1.99
2.40
2.89
3.36
3.71
3.86
3.87
3.90
4.13
4.67
5.49
6.44
7.30
7.91
8.17
8.14
7.93
7.67
7.45
7.32
7.24
7.16
7.05
6.90
6.70
6.46
6.18
5.83
5.42
4.95
4.51
4.18
4.00
4.01
4.17
4.43
4.72
4.97
5.10
5.00
4.63
3.96
3.12
2.29
1.67
1.41
1.52
1.87
2.30
2.65
2.83
2.79
2.52
1.97
1.15
0.14
-0.93
-1.85
-2.46
-2.70
-2.66
-2.53
-2.50
-2.69
-3.12
-3.75
-4.49
-5.27
-5.99
-6.52
-6.71
-6.46
-5.75
-4.69
-3.45
-2.21
-1.12
-0.24
0.44
0.96
1.35
1.63
1.82
1.91
1.91
1.80
1.59
1.28
0.94
0.66
0.58
0.78
1.28
2.02
2.83
3.50
3.86
3.85
3.53
3.02
2.47
1.97
1.52
1.09
0.64
0.15
-0.37
-0.97
-1.71
-2.68
-3.93
-5.39
-6.89
-8.20
-9.07
-9.35
-9.03
-8.22
-7.15
-6.03
-5.01
-4.14
-3.38
-2.65
-1.93
-1.28
-0.78
-0.53
-0.50
-0.61
-0.69
-0.62
-0.34
0.08
0.52
0.81
0.89
0.75
0.50
0.27
0.19
0.33
0.63
0.96
1.14
1.04
0.61
-0.09
-0.92
-1.74
-2.40
-2.90
-3.29
-3.70
-4.24
-4.98
-5.87
-6.77
-7.48
-7.78
-7.50
-6.58
-5.05
-3.08
-0.93
1.10
2.70
3.70
4.06
3.88
3.35
2.65
1.88
1.03
0.09
-0.95
-2.03
-3.01
-3.72
-4.02
-3.85
-3.26
-2.37
-1.35
-0.29
0.72
1.71
2.69
3.62
4.36
4.76
4.70
4.20
3.41
2.56
1.86
1.42
1.23
1.19
1.18
1.06
0.75
0.19
-0.59
-1.43
-2.11
-2.40
-2.18
-1.52
-0.66
0.10
0.55
0.64
0.48
0.29
0.25
0.50
1.07
1.89
2.82
3.64
4.15
4.21
3.79
3.06
2.27
1.67
1.42
1.44
1.55
1.48
1.09
0.39
-0.49
-1.38
-2.20
-3.02
-4.00
-5.29
-6.91
-8.74
-10.46
-11.72
-12.24
-11.91
-10.84
-9.31
-7.60
-5.98
-4.60
-3.51
-2.68
-2.07
-1.57
-1.00
-0.15
1.15
2.86
4.76
6.45
7.60
8.08
8.05
7.85
7.83
8.10
8.52
8.77
8.58
7.83
6.64
5.25
3.83
2.46
1.08
-0.37
-1.84
-3.17
-4.19
-4.84
-5.17
-5.39
-5.70
-6.21
-6.87
-7.55
-8.14
-8.60
-8.88
-8.99
-8.83
-8.30
-7.36
-6.09
-4.69
-3.38
-2.33
-1.52
-0.79
0.10
1.30
2.83
4.56
6.29
7.85
9.15
10.18
10.98
11.57
12.00
12.29
12.52
12.75
13.02
13.26
13.29
12.91
11.97
10.48
8.63
6.71
4.96
3.54
2.44
1.59
0.91
0.39
0.04
-0.13
-0.15
-0.11
-0.09
-0.15
-0.27
-0.37
-0.38
-0.23
0.05
0.39
0.65
0.70
0.45
-0.12
-0.93
-1.81
-2.62
-3.23
-3.60
-3.74
-3.62
-3.25
-2.59
-1.72
-0.75
0.08
0.58
0.69
0.45
0.01
-0.51
-1.06
-1.68
-2.41
-3.28
-4.22
-5.12
-5.90
-6.53
-6.98
-7.22
-7.14
-6.61
-5.60
-4.21
-2.68
-1.31
-0.33
0.23
0.51
0.77
1.25
2.06
3.14
4.30
5.35
6.13
6.63
6.92
7.13
7.35
7.58
7.69
7.55
7.03
6.11
4.89
3.53
2.21
1.03
0.03
-0.78
-1.40
-1.86
-2.13
-2.26
-2.27
-2.23
-2.18
-2.13
-2.11
-2.12
-2.19
-2.35
-2.61
-2.94
-3.26
-3.45
-3.38
-2.96
-2.18
-1.09
0.18
1.46
2.54
3.26
3.51
3.27
2.62
1.69
0.63
-0.40
-1.33
-2.10
-2.70
-3.10
-3.28
-3.17
-2.76
-2.06
-1.17
-0.28
0.45
0.90
1.04
0.96
0.78
0.61
0.48
0.33
0.04
-0.51
-1.36
-2.48
-3.75
-4.98
-5.96
-6.50
-6.48
-5.90
-4.85
-3.49
-1.99
-0.45
1.01
2.30
3.31
3.97
4.27
4.31
4.30
4.43
4.83
5.48
6.24
6.92
7.34
7.40
7.06
6.35
5.33
4.08
2.70
1.33
0.05
-1.05
-1.94
-2.64
-3.19
-3.69
-4.23
-4.91
-5.75
-6.70
-7.61
-8.31
-8.65
-8.55
-8.03
-7.18
-6.14
-5.12
-4.27
-3.68
-3.28
-2.87
-2.15
-0.86
1.10
3.54
6.10
8.33
9.92
10.75
10.95
10.75
10.38
9.99
9.57
9.06
8.36
7.39
6.15
4.70
3.11
1.49
-0.07
-1.47
-2.65
-3.60
-4.38
-5.10
-5.90
-6.90
-8.14
-9.57
-11.05
-12.41
-13.47
-14.08
-14.15
-13.65
-12.60
-11.11
-9.33
-7.49
-5.88
-4.78
-4.37
-4.72
-5.70
-7.02
-8.36
-9.37
-9.88
-9.80
-9.16
-8.03
-6.46
-4.50
-2.18
0.41
3.08
5.58
7.71
9.40
10.84
12.37
14.39
17.13
20.45
23.90
26.80
28.53
28.72
27.37
24.73
21.20
17.21
13.16
9.45
6.41
4.19
2.78
1.90
1.14
0.19
-1.05
-2.41
-3.61
-4.43
-4.83
-4.95
-4.99
-5.03
-4.99
-4.64
-3.84
-2.57
-1.06
0.36
1.37
1.81
1.76
1.39
0.93
0.54
0.24
-0.01
-0.28
-0.60
-0.93
-1.19
-1.33
-1.35
-1.27
-1.20
-1.19
-1.30
-1.56
-1.96
-2.45
-2.98
-3.48
-3.90
-4.22
-4.46
-4.65
-4.86
-5.15
-5.56
-6.14
-6.89
-7.78
-8.67
-9.39
-9.78
-9.72
-9.22
-8.35
-7.25
-5.96
-4.52
-2.86
-1.01
0.97
2.86
4.46
5.58
6.20
6.46
6.57
6.72
6.98
7.24
7.31
6.95
6.04
4.57
2.73
0.78
-0.99
-2.40
-3.36
-3.93
-4.15
-4.09
-3.82
-3.35
-2.77
-2.18
-1.69
-1.40
-1.35
-1.53
-1.85
-2.23
-2.57
-2.86
-3.17
-3.59
-4.19
-4.94
-5.67
-6.12
-6.08
-5.50
-4.51
-3.35
-2.27
-1.38
-0.60
0.20
1.13
2.16
3.15
3.92
4.37
4.53
4.51
4.40
4.24
3.99
3.57
2.96
2.20
1.43
0.78
0.39
0.28
0.38
0.56
0.68
0.68
0.60
0.55
0.63
0.88
1.27
1.67
1.97
2.07
1.93
1.55
0.93
0.04
-1.10
-2.43
-3.79
-4.96
-5.74
-6.02
-5.81
-5.24
-4.47
-3.64
-2.83
-2.07
-1.35
-0.61
0.14
0.93
1.69
2.34
2.75
2.82
2.52
1.94
1.25
0.64
0.28
0.24
0.49
0.92
1.38
1.70
1.72
1.37
0.66
-0.28
-1.24
-1.99
-2.37
-2.35
-2.02
-1.58
-1.25
-1.21
-1.53
-2.22
-3.19
-4.27
-5.31
-6.14
-6.66
-6.79
-6.49
-5.79
-4.77
-3.60
-2.44
-1.43
-0.60
0.13
0.88
1.72
2.63
3.45
4.03
4.29
4.26
4.09
3.92
3.85
3.89
3.98
4.05
4.03
3.92
3.76
3.60
3.45
3.28
3.04
2.69
2.27
1.88
1.63
1.57
1.64
1.64
1.38
0.73
-0.30
-1.63
-3.13
-4.70
-6.27
-7.71
-8.84
-9.48
-9.45
-8.73
-7.43
-5.76
-3.92
-2.09
-0.37
1.18
2.47
3.42
3.92
3.95
3.56
2.88
2.08
1.28
0.55
-0.12
-0.81
-1.59
-2.49
-3.53
-4.71
-5.98
-7.23
-8.27
-8.84
-8.65
-7.49
-5.33
-2.31
1.28
5.09
8.77
12.01
14.54
16.10
16.57
15.94
14.41
12.33
10.13
8.16
6.60
5.48
4.68
4.06
3.48
2.88
2.23
1.57
0.94
0.41
0.05
-0.10
-0.06
0.12
0.35
0.54
0.68
0.83
1.09
1.56
2.23
2.98
3.54
3.66
3.18
2.16
0.86
-0.37
-1.23
-1.54
-1.32
-0.67
0.28
1.42
2.59
3.58
4.10
3.84
2.68
0.76
-1.56
-3.75
-5.35
-6.08
-5.93
-5.13
-4.02
-3.01
-2.43
-2.49
-3.25
-4.55
-6.05
-7.34
-7.98
-7.72
-6.51
-4.57
-2.32
-0.23
1.27
2.01
1.99
1.43
0.59
-0.27
-0.98
-1.44
-1.61
-1.54
-1.30
-1.04
-0.96
-1.18
-1.76
-2.64
-3.67
-4.70
-5.61
-6.36
-7.01
-7.60
-8.18
-8.72
-9.14
-9.31
-9.11
-8.49
-7.50
-6.30
-5.07
-3.93
-2.90
-1.97
-1.09
-0.29
0.33
0.67
0.67
0.40
0.07
-0.10
0.05
0.52
1.14
1.67
1.88
1.64
0.97
0.04
-0.90
-1.50
-1.46
-0.51
1.40
4.11
7.22
10.19
12.51
13.83
14.09
13.47
12.29
10.83
9.27
7.60
5.75
3.64
1.28
-1.16
-3.46
-5.33
-6.54
-6.92
-6.40
-5.04
-3.03
-0.74
1.34
2.70
2.97
2.12
0.48
-1.33
-2.60
-2.82
-1.85
0.03
2.29
4.32
5.72
6.34
6.30
5.82
5.12
4.32
3.43
2.45
1.39
0.35
-0.53
-1.17
-1.52
-1.67
-1.76
-1.91
-2.23
-2.74
-3.42
-4.16
-4.83
-5.29
-5.42
-5.18
-4.57
-3.69
-2.64
-1.55
-0.50
0.49
1.43
2.39
3.45
4.72
6.23
7.97
9.81
11.59
13.10
14.12
14.51
14.21
13.20
11.61
9.61
7.49
5.52
3.95
2.94
2.59
2.89
3.82
5.26
7.04
8.89
10.46
11.45
11.66
11.09
9.90
8.28
6.40
4.25
1.79
-1.01
-4.07
-7.16
-9.98
-12.29
-13.93
-14.79
-14.86
-14.14
-12.73
-10.92
-9.22
-8.26
-8.61
-10.53
-13.81
-17.89
-22.00
-25.42
-27.67
-28.51
-27.90
-25.96
-22.95
-19.30
-15.61
-12.48
-10.34
-9.24
-8.86
-8.58
-7.80
-6.16
-3.63
-0.45
3.04
6.53
9.80
12.64
14.80
16.05
16.28
15.53
14.12
12.49
11.11
10.34
10.41
11.37
13.16
15.60
18.36
20.92
22.64
22.99
21.71
18.96
15.33
11.57
8.37
6.09
4.69
3.89
3.33
2.79
2.26
1.85
1.63
1.52
1.24
0.48
-1.01
-3.22
-5.90
-8.64
-11.02
-12.73
-13.68
-13.95
-13.79
-13.47
-13.25
-13.26
-13.47
-13.73
-13.79
-13.40
-12.47
-11.07
-9.50
-8.13
-7.23
-6.86
-6.83
-6.76
-6.29
-5.20
-3.53
-1.46
0.77
2.96
4.98
6.70
8.01
8.75
8.83
8.28
7.28
6.08
4.94
4.01
3.35
2.88
2.51
2.11
1.63
1.05
0.44
-0.09
-0.41
-0.46
-0.25
0.12
0.52
0.83
1.07
1.35
1.83
2.63
3.74
5.01
6.14
6.81
6.80
6.03
4.64
2.88
1.03
-0.65
-2.00
-2.92
-3.36
-3.33
-2.88
-2.12
-1.25
-0.47
0.09
0.42
0.67
1.00
1.54
2.24
2.95
3.45
3.62
3.47
3.16
2.89
2.80
2.93
3.22
3.56
3.83
3.95
3.87
3.57
3.09
2.50
1.91
1.40
1.02
0.70
0.33
-0.24
-1.13
-2.34
-3.79
-5.30
-6.71
-7.91
-8.87
-9.67
-10.40
-11.11
-11.80
-12.35
-12.63
-12.54
-12.04
-11.16
-9.93
-8.37
-6.48
-4.22
-1.63
1.17
3.94
6.38
8.19
9.18
9.34
8.89
8.16
7.51
7.17
7.18
7.36
7.45
7.21
6.56
5.54
4.29
3.01
1.85
0.93
0.37
0.22
0.44
0.87
1.24
1.24
0.67
-0.50
-2.09
-3.80
-5.35
-6.56
-7.47
-8.24
-9.08
-10.10
-11.30
-12.49
-13.41
-13.76
-13.29
-11.87
-9.49
-6.29
-2.52
1.45
5.29
8.68
11.43
13.44
14.72
15.33
15.39
14.99
14.30
13.43
12.51
11.60
10.69
9.74
8.72
7.61
6.47
5.38
4.45
3.74
3.29
3.09
3.04
3.04
2.97
2.74
2.31
1.70
0.98
0.22
-0.51
-1.19
-1.80
-2.37
-2.92
-3.54
-4.34
-5.43
-6.85
-8.50
-10.15
-11.51
-12.34
-12.53
-12.15
-11.37
-10.38
-9.34
-8.33
-7.36
-6.42
-5.49
-4.58
-3.67
-2.76
-1.81
-0.82
0.20
1.17
1.97
2.52
2.78
2.81
2.77
2.80
3.02
3.41
3.82
4.02
3.86
3.27
2.35
1.29
0.32
-0.44
-0.95
-1.28
-1.58
-2.02
-2.73
-3.81
-5.25
-6.87
-8.35
-9.29
-9.34
-8.34
-6.44
-4.05
-1.72
0.03
0.87
0.76
-0.11
-1.36
-2.62
-3.55
-3.97
-3.83
-3.21
-2.24
-1.07
0.18
1.42
2.58
3.59
4.40
4.98
5.37
5.60
5.70
5.65
5.39
4.83
3.92
2.68
1.24
-0.23
-1.52
-2.46
-2.98
-3.09
-2.91
-2.59
-2.26
-2.00
-1.83
-1.73
-1.69
-1.70
-1.79
-1.94
-2.16
-2.44
-2.82
-3.37
-4.16
-5.21
-6.37
-7.40
-8.01
-8.01
-7.41
-6.37
-5.07
-3.59
-1.85
0.31
2.95
5.93
8.89
11.41
13.20
14.21
14.64
14.81
14.96
15.20
15.44
15.53
15.35
14.86
14.09
13.08
11.81
10.28
8.48
6.49
4.43
2.48
0.78
-0.58
-1.60
-2.32
-2.83
-3.27
-3.80
-4.50
-5.41
-6.40
-7.26
-7.76
-7.78
-7.34
-6.67
-6.01
-5.60
-5.52
-5.70
-6.00
-6.29
-6.47
-6.54
-6.48
-6.25
-5.73
-4.82
-3.52
-1.99
-0.53
0.56
1.10
1.13
0.83
0.46
0.17
-0.00
-0.07
-0.03
0.20
0.67
1.36
2.06
2.47
2.36
1.66
0.56
-0.65
-1.65
-2.29
-2.56
-2.51
-2.28
-1.94
-1.58
-1.28
-1.16
-1.31
-1.75
-2.44
-3.25
-4.07
-4.78
-5.35
-5.80
-6.20
-6.57
-6.90
-7.07
-6.94
-6.40
-5.43
-4.14
-2.68
-1.23
0.14
1.43
2.67
3.89
5.03
6.05
6.85
7.40
7.68
7.67
7.34
6.69
5.79
4.78
3.81
3.04
2.50
2.15
1.84
1.47
0.97
0.35
-0.34
-1.07
-1.83
-2.62
-3.37
-3.91
-4.03
-3.60
-2.63
-1.36
-0.14
0.75
1.18
1.24
1.18
1.18
1.34
1.59
1.79
1.85
1.79
1.72
1.75
1.93
2.21
2.51
2.71
2.80
2.83
2.89
3.05
3.32
3.61
3.75
3.63
3.19
2.50
1.70
0.95
0.40
0.18
0.36
0.94
1.87
2.97
3.99
4.64
4.66
3.99
2.79
1.37
0.13
-0.65
-0.90
-0.76
-0.49
-0.33
-0.42
-0.76
-1.25
-1.81
-2.35
-2.83
-3.19
-3.36
-3.24
-2.75
-1.83
-0.52
1.04
2.66
4.12
5.30
6.19
6.87
7.49
8.12
8.76
9.26
9.52
9.48
9.18
8.69
8.02
7.13
5.99
4.60
3.01
1.33
-0.42
-2.29
-4.40
-6.76
-9.23
-11.47
-13.08
-13.75
-13.35
-12.05
-10.21
-8.29
-6.67
-5.61
-5.19
-5.30
-5.74
-6.25
-6.58
-6.58
-6.19
-5.40
-4.33
-3.10
-1.90
-0.94
-0.36
-0.19
-0.35
-0.58
-0.59
-0.12
0.96
2.65
4.80
7.21
9.60
11.62
12.91
13.12
12.10
10.00
7.28
4.60
2.61
1.68
1.75
2.43
3.19
3.59
3.44
2.79
1.82
0.69
-0.56
-1.86
-3.17
-4.32
-5.13
-5.51
-5.49
-5.27
-5.08
-5.05
-5.17
-5.24
-5.08
-4.53
-3.57
-2.31
-0.89
0.55
1.83
2.80
3.35
3.41
3.03
2.34
1.56
0.91
0.52
0.44
0.63
1.02
1.53
2.07
2.55
2.84
2.84
2.48
1.80
0.94
0.13
-0.42
-0.62
-0.53
-0.35
-0.34
-0.73
-1.59
-2.84
-4.27
-5.63
-6.73
-7.45
-7.78
-7.78
-7.50
-6.99
-6.24
-5.25
-4.04
-2.69
-1.31
-0.00
1.11
1.97
2.55
2.85
2.90
2.72
2.33
1.78
1.09
0.35
-0.37
-0.96
-1.38
-1.58
-1.61
-1.53
-1.44
-1.45
-1.60
-1.92
-2.39
-2.94
-3.53
-4.12
-4.64
-5.01
-5.15
-5.02
-4.68
-4.31
-4.13
-4.27
-4.72
-5.27
-5.69
-5.81
-5.62
-5.21
-4.67
-3.99
-3.09
-1.87
-0.35
1.27
2.73
3.80
4.41
4.66
4.81
5.05
5.46
6.03
6.64
7.18
7.59
7.84
7.91
7.78
7.51
7.20
7.03
7.16
7.63
8.31
8.94
9.24
9.02
8.28
7.17
5.95
4.81
3.83
3.01
2.23
1.39
0.40
-0.75
-2.02
-3.32
-4.58
-5.70
-6.60
-7.21
-7.41
-7.13
-6.35
-5.19
-3.87
-2.71
-1.93
-1.63
-1.69
-1.89
-1.93
-1.56
-0.66
0.80
2.71
4.86
6.98
8.74
9.90
10.34
10.11
9.38
8.38
7.30
6.25
5.34
4.62
4.11
3.80
3.58
3.31
2.86
2.21
1.44
0.69
0.04
-0.51
-1.01
-1.58
-2.25
-2.96
-3.59
-3.96
-3.92
-3.41
-2.43
-1.10
0.36
1.71
2.73
3.29
3.37
3.08
2.56
1.94
1.33
0.74
0.20
-0.28
-0.69
-1.00
-1.23
-1.40
-1.53
-1.64
-1.68
-1.63
-1.49
-1.30
-1.16
-1.16
-1.28
-1.47
-1.59
-1.59
-1.49
-1.37
-1.32
-1.39
-1.55
-1.77
-2.07
-2.54
-3.27
-4.30
-5.53
-6.76
-7.80
-8.54
-8.95
-9.07
-8.89
-8.36
-7.45
-6.22
-4.89
-3.74
-2.95
-2.48
-2.08
-1.38
-0.17
1.52
3.42
5.20
6.63
7.70
8.58
9.40
10.19
10.80
11.00
10.62
9.70
8.40
6.98
5.63
4.43
3.31
2.11
0.76
-0.73
-2.24
-3.58
-4.58
-5.24
-5.72
-6.21
-6.92
-7.89
-8.99
-10.01
-10.72
-10.97
-10.78
-10.24
-9.49
-8.66
-7.82
-7.00
-6.17
-5.31
-4.39
-3.46
-2.60
-1.94
-1.60
-1.57
-1.77
-1.98
-2.03
-1.83
-1.46
-1.07
-0.81
-0.78
-1.03
-1.59
-2.49
-3.71
-5.07
-6.20
-6.59
-5.86
-3.92
-1.10
2.01
4.84
7.06
8.67
9.86
10.79
11.37
11.36
10.50
8.73
6.25
3.51
0.95
-1.10
-2.46
-3.17
-3.29
-2.96
-2.28
-1.38
-0.36
0.71
1.80
2.87
3.86
4.67
5.19
5.34
5.13
4.70
4.21
3.86
3.82
4.18
4.92
5.89
6.81
7.35
7.21
6.25
4.52
2.28
-0.13
-2.47
-4.57
-6.44
-8.09
-9.47
-10.44
-10.79
-10.33
-9.05
-7.06
-4.63
-2.08
0.28
2.15
3.28
3.48
2.71
1.11
-0.91
-2.81
-4.07
-4.40
-3.83
-2.70
-1.44
-0.41
0.26
0.67
0.97
1.24
1.43
1.40
1.09
0.60
0.19
0.14
0.59
1.50
2.67
3.90
5.07
6.17
7.23
8.19
8.81
8.83
8.03
6.44
4.31
2.11
0.33
-0.65
-0.68
0.14
1.43
2.70
3.38
3.06
1.57
-0.91
-3.93
-6.87
-9.22
-10.70
-11.32
-11.34
-11.05
-10.68
-10.25
-9.68
-8.86
-7.72
-6.34
-4.88
-3.55
-2.45
-1.60
-0.92
-0.33
0.19
0.57
0.72
0.59
0.27
-0.05
-0.17
-0.04
0.21
0.34
0.12
-0.47
-1.19
-1.66
-1.51
-0.53
1.25
3.64
6.39
9.27
12.06
14.58
16.63
18.04
18.70
18.61
17.89
16.72
15.24
13.49
11.46
9.08
6.41
3.62
0.99
-1.15
-2.60
-3.40
-3.83
-4.30
-5.12
-6.39
-7.89
-9.28
-10.27
-10.82
-11.12
-11.40
-11.77
-12.04
-11.85
-10.89
-9.15
-6.98
-4.97
-3.64
-3.27
-3.77
-4.82
-6.07
-7.24
-8.18
-8.81
-9.00
-8.62
-7.55
-5.85
-3.74
-1.59
0.31
1.78
2.89
3.81
4.69
5.49
6.00
5.96
5.20
3.69
1.56
-1.06
-4.05
-7.33
-10.74
-13.94
-16.42
-17.65
-17.22
-15.04
-11.41
-6.94
-2.42
1.39
3.95
5.01
4.70
3.44
1.77
0.25
-0.77
-1.08
-0.65
0.49
2.31
4.73
7.54
10.40
12.87
14.54
15.23
15.01
14.19
13.16
12.26
11.62
11.18
10.76
10.18
9.33
8.21
6.85
5.29
3.56
1.67
-0.32
-2.28
-4.03
-5.36
-6.12
-6.27
-5.94
-5.30
-4.57
-3.86
-3.23
-2.58
-1.84
-0.94
0.10
1.16
2.08
2.72
2.98
2.82
2.23
1.22
-0.13
-1.65
-3.09
-4.22
-4.84
-4.95
-4.67
-4.21
-3.76
-3.41
-3.16
-2.96
-2.77
-2.65
-2.67
-2.86
-3.18
-3.52
-3.69
-3.57
-3.09
-2.32
-1.40
-0.51
0.16
0.46
0.33
-0.20
-0.98
-1.75
-2.25
-2.25
-1.64
-0.45
1.23
3.25
5.49
7.80
10.04
12.06
13.76
15.01
15.77
15.99
15.69
14.91
13.81
12.58
11.41
10.42
9.60
8.85
8.05
7.17
6.28
5.50
4.94
4.61
4.39
4.11
3.58
2.66
1.32
-0.33
-2.08
-3.70
-4.99
-5.93
-6.66
-7.44
-8.50
-9.93
-11.58
-13.15
-14.29
-14.76
-14.50
-13.62
-12.34
-10.82
-9.15
-7.32
-5.30
-3.11
-0.87
1.20
2.79
3.64
3.60
2.74
1.34
-0.14
-1.30
-1.86
-1.79
-1.26
-0.52
0.22
0.88
1.43
1.86
2.13
2.17
1.92
1.42
0.79
0.21
-0.22
-0.49
-0.74
-1.13
-1.80
-2.79
-4.01
-5.30
-6.48
-7.39
-7.94
-8.11
-7.91
-7.39
-6.61
-5.67
-4.63
-3.57
-2.52
-1.44
-0.29
0.96
2.28
3.56
4.61
5.27
5.48
5.31
4.93
4.54
4.27
4.13
3.97
3.60
2.86
1.76
0.47
-0.72
-1.48
-1.55
-0.81
0.69
2.74
5.01
7.13
8.73
9.55
9.46
8.42
6.52
3.95
1.02
-1.89
-4.38
-6.13
-7.00
-7.06
-6.55
-5.76
-4.89
-4.02
-3.07
-1.97
-0.67
0.72
2.00
2.93
3.38
3.32
2.90
2.31
1.81
1.55
1.58
1.84
2.15
2.31
2.16
1.65
0.82
-0.21
-1.35
-2.56
-3.91
-5.47
-7.27
-9.22
-11.16
-12.90
-14.34
-15.47
-16.41
-17.30
-18.35
-19.81
-21.94
-24.95
-28.83
-33.21
-37.35
-40.26
-41.06
-39.20
-34.74
-28.16
-20.23
-11.60
-2.76
5.99
14.35
21.92
28.14
32.52
34.89
35.53
35.08
34.35
33.96
34.15
34.69
35.15
35.06
34.19
32.63
30.72
28.91
27.52
26.64
26.06
25.39
24.16
21.97
18.63
14.20
9.00
3.55
-1.50
-5.53
-8.01
-8.68
-7.59
-5.11
-1.81
1.69
4.93
7.67
9.85
11.47
12.48
12.79
12.27
10.88
8.71
5.95
2.87
-0.27
-3.25
-5.90
-8.01
-9.38
-9.89
-9.52
-8.42
-6.81
-5.00
-3.26
-1.84
-0.92
-0.67
-1.13
-2.24
-3.77
-5.43
-6.95
-8.26
-9.56
-11.25
-13.71
-17.01
-20.73
-24.00
-25.84
-25.49
-22.79
-18.30
-13.03
-8.09
-4.31
-2.02
-1.14
-1.30
-2.08
-3.06
-3.87
-4.17
-3.71
-2.41
-0.39
2.01
4.34
6.21
7.42
7.97
8.03
7.82
7.52
7.27
7.11
7.03
6.94
6.65
5.92
4.58
2.62
0.28
-2.01
-3.76
-4.64
-4.62
-3.91
-2.90
-1.90
-1.07
-0.35
0.40
1.29
2.26
3.09
3.51
3.35
2.63
1.56
0.46
-0.38
-0.80
-0.80
-0.43
0.21
1.08
2.22
3.58
5.11
6.63
7.98
9.04
9.84
10.47
11.05
11.64
12.19
12.56
12.62
12.28
11.55
10.52
9.27
7.84
6.17
4.24
2.12
0.08
-1.45
-2.05
-1.49
0.11
2.32
4.59
6.44
7.68
8.40
8.81
9.01
8.87
8.14
6.62
4.40
1.91
-0.16
-1.15
-0.66
1.30
4.40
8.14
12.09
15.99
19.78
23.45
26.98
30.21
32.87
34.72
35.69
36.00
36.16
36.80
38.42
41.16
44.73
48.52
51.88
54.35
55.76
56.13
55.59
54.20
52.02
49.12
45.66
41.74
37.16
31.31
23.27
12.28
-1.71
-17.69
-33.75
-47.73
-58.11
-64.57
-67.98
-69.75
-71.09
-72.39
-73.30
-73.12
-71.44
-68.40
-64.56
-60.48
-56.27
-51.52
-45.64
-38.27
-29.62
-20.48
-11.86
-4.58
1.04
5.24
8.55
11.53
14.46
17.32
19.83
21.65
22.54
22.41
21.30
19.40
16.96
14.33
11.90
10.02
8.92
8.59
8.83
9.18
9.14
8.14
5.68
1.32
-5.20
-13.70
-23.47
-33.18
-41.19
-46.11
-47.27
-45.00
-40.40
-34.92
-29.78
-25.68
-22.80
-21.06
-20.31
-20.35
-20.90
-21.55
-21.83
-21.42
-20.30
-18.79
-17.41
-16.67
-16.86
-18.07
-20.11
-22.68
-25.48
-28.22
-30.71
-32.85
-34.53
-35.58
-35.72
-34.70
-32.45
-29.15
-25.23
-21.13
-17.16
-13.42
-9.93
-6.83
-4.42
-3.08
-2.84
-3.26
-3.44
-2.44
0.20
4.24
8.81
12.88
15.80
17.57
18.72
19.91
21.54
23.61
25.72
27.39
28.29
28.36
27.72
26.52
24.89
22.86
20.53
18.13
16.03
14.67
14.32
14.88
15.92
16.83
17.10
16.57
15.39
13.84
12.08
9.98
7.22
3.53
-1.13
-6.61
-12.79
-19.77
-27.89
-37.43
-48.14
-59.04
-68.47
-74.62
-76.26
-73.17
-66.32
-57.49
-48.78
-41.95
-38.02
-37.06
-38.21
-40.06
-41.04
-39.93
-36.46
-31.48
-27.00
-25.77
-30.45
-42.75
-62.33
-86.20
-108.69
-122.64
-121.58
-102.33
-66.68
-21.32
24.36
61.60
85.26
95.09
94.74
89.45
83.62
79.61
77.89
78.09
79.97
83.56
88.72
94.59
99.55
101.75
99.89
93.82
84.59
74.03
64.03
55.85
49.83
45.37
41.37
36.77
30.98
24.21
17.23
11.14
6.78
4.42
3.59
3.30
2.42
0.22
-3.40
-7.86
-12.30
-15.87
-18.11
-19.04
-19.10
-18.90
-19.05
-20.00
-21.90
-24.59
-27.53
-29.85
-30.61
-29.04
-24.79
-18.07
-9.61
-0.40
8.52
16.26
22.19
26.01
27.74
27.70
26.46
24.63
22.81
21.35
20.42
19.93
19.68
19.39
18.80
17.80
16.39
14.79
13.27
12.08
11.28
10.67
9.88
8.56
6.48
3.69
0.43
-2.99
-6.33
-9.50
-12.55
-15.60
-18.75
-22.04
-25.44
-28.77
-31.65
-33.53
-33.80
-31.98
-28.00
-22.22
-15.41
-8.48
-2.18
3.05
7.13
10.18
12.44
14.12
15.38
16.34
17.04
17.39
17.19
16.18
14.17
11.18
7.46
3.48
-0.29
-3.48
-6.04
-8.19
-10.36
-12.95
-16.16
-19.85
-23.62
-26.93
-29.39
-30.94
-31.93
-32.95
-34.55
-37.02
-40.30
-44.03
-47.78
-51.16
-53.90
-55.86
-57.04
-57.64
-58.00
-58.50
-59.47
-60.87
-62.35
-63.49
-64.18
-65.00
-67.30
-72.73
-82.41
-95.86
-110.55
-122.16
-125.85
-117.96
-97.48
-66.62
-30.09
6.39
37.92
61.58
76.64
83.98
85.29
82.41
77.15
71.37
66.93
65.41
67.62
73.20
80.67
87.96
93.03
94.55
92.32
87.05
80.03
72.62
65.81
60.00
55.05
50.42
45.52
39.90
33.33
25.83
17.59
8.98
0.53
-7.15
-13.42
-17.83
-20.22
-20.80
-20.06
-18.61
-17.01
-15.60
-14.53
-13.80
-13.38
-13.21
-13.27
-13.51
-13.88
-14.35
-14.92
-15.57
-16.24
-16.78
-16.98
-16.58
-15.33
-13.03
-9.57
-4.95
0.75
7.31
14.41
21.53
28.01
33.16
36.45
37.63
36.91
34.80
31.95
28.86
25.83
22.98
20.44
18.49
17.56
18.06
20.10
23.30
26.87
29.86
31.45
31.25
29.34
26.16
22.29
18.30
14.66
11.78
9.97
9.48
10.41
12.59
15.59
18.77
21.39
22.85
22.85
21.48
19.10
16.15
12.98
9.74
6.35
2.68
-1.29
-5.42
-9.31
-12.49
-14.48
-15.07
-14.34
-12.74
-10.92
-9.48
-8.73
-8.56
-8.55
-8.21
-7.21
-5.66
-3.96
-2.71
-2.36
-3.09
-4.82
-7.22
-9.90
-12.41
-14.35
-15.33
-15.11
-13.66
-11.17
-8.07
-4.85
-1.95
0.39
2.10
3.28
4.03
4.46
4.63
4.56
4.33
3.99
3.58
3.11
2.58
1.98
1.36
0.79
0.32
-0.03
-0.32
-0.66
-1.13
-1.74
-2.42
-3.03
-3.46
-3.68
-3.72
-3.66
-3.57
-3.51
-3.50
-3.54
-3.64
-3.75
-3.80
-3.71
-3.41
-2.89
-2.27
-1.71
-1.41
-1.49
-1.91
-2.51
-2.99
-3.02
-2.43
-1.22
0.41
2.12
3.56
4.52
4.96
5.02
4.88
4.69
4.48
4.19
3.68
2.83
1.57
-0.08
-1.98
-3.93
-5.69
-7.05
-7.94
-8.43
-8.77
-9.23
-9.99
-11.08
-12.30
-13.41
-14.13
-14.30
-13.90
-13.01
-11.77
-10.35
-8.88
-7.47
-6.21
-5.12
-4.19
-3.38
-2.64
-1.90
-1.11
-0.21
0.83
2.02
3.29
4.53
5.59
6.35
6.82
7.12
7.48
8.14
9.25
10.82
12.67
14.53
16.08
17.01
17.10
16.26
14.54
12.16
9.41
6.60
3.92
1.41
-1.03
-3.55
-6.23
-9.04
-11.86
-14.49
-16.72
-18.38
-19.32
-19.47
-18.84
-17.53
-15.71
-13.59
-11.38
-9.24
-7.21
-5.28
-3.35
-1.25
1.19
4.06
7.26
10.45
13.12
14.76
15.05
13.99
11.94
9.47
7.15
5.34
4.13
3.35
2.75
2.09
1.25
0.22
-0.93
-2.10
-3.16
-3.96
-4.28
-3.95
-2.87
-1.13
0.86
2.52
3.22
2.51
0.36
-2.86
-6.46
-9.69
-11.99
-13.11
-13.16
-12.49
-11.50
-10.55
-9.83
-9.37
-9.04
-8.60
-7.82
-6.51
-4.66
-2.41
-0.06
2.07
3.75
4.82
5.26
5.10
4.45
3.48
2.43
1.62
1.32
1.65
2.56
3.86
5.40
7.05
8.86
10.84
12.90
14.69
15.68
15.39
13.59
10.49
6.63
2.71
-0.72
-3.44
-5.57
-7.35
-8.99
-10.47
-11.59
-12.09
-11.78
-10.64
-8.79
-6.39
-3.64
-0.73
2.08
4.50
6.22
7.03
6.84
5.73
3.90
1.63
-0.75
-2.91
-4.52
-5.33
-5.18
-4.06
-2.16
0.17
2.52
4.43
5.54
5.58
4.45
2.28
-0.56
-3.49
-5.75
-6.66
-5.74
-2.95
1.32
6.27
10.98
14.65
16.84
17.44
16.63
14.69
11.88
8.48
4.81
1.31
-1.54
-3.30
-3.75
-2.95
-1.19
1.08
3.44
5.51
7.04
7.89
8.04
7.55
6.57
5.25
3.76
2.23
0.75
-0.56
-1.58
-2.20
-2.36
-2.04
-1.31
-0.22
1.12
2.58
3.99
5.14
5.84
6.00
5.68
5.01
4.14
3.14
1.92
0.36
-1.61
-3.92
-6.36
-8.59
-10.32
-11.34
-11.59
-11.17
-10.24
-8.94
-7.41
-5.71
-3.87
-1.96
-0.09
1.57
2.85
3.63
3.89
3.73
3.34
2.92
2.63
2.50
2.47
2.39
2.14
1.70
1.16
0.74
0.64
0.94
1.51
2.06
2.29
1.99
1.20
0.16
-0.85
-1.62
-2.14
-2.59
-3.16
-4.01
-5.12
-6.39
-7.67
-8.83
-9.78
-10.41
-10.59
-10.17
-9.11
-7.47
-5.48
-3.39
-1.42
0.30
1.75
2.94
3.88
4.51
4.80
4.76
4.44
4.00
3.61
3.42
3.50
3.83
4.33
4.83
5.21
5.38
5.34
5.15
4.92
4.68
4.39
3.93
3.18
2.11
0.81
-0.54
-1.68
-2.47
-2.91
-3.13
-3.37
-3.86
-4.72
-5.94
-7.41
-8.93
-10.26
-11.16
-11.42
-10.93
-9.71
-7.92
-5.78
-3.54
-1.33
0.79
2.81
4.69
6.30
7.49
8.12
8.20
7.86
7.31
6.71
6.15
5.63
5.15
4.69
4.27
3.90
3.53
3.10
2.54
1.85
1.07
0.26
-0.54
-1.36
-2.25
-3.25
-4.32
-5.41
-6.41
-7.30
-8.09
-8.91
-9.88
-11.12
-12.66
-14.48
-16.46
-18.42
-20.17
-21.48
-22.20
-22.31
-21.94
-21.35
-20.85
-20.66
-20.90
-21.55
-22.57
-23.94
-25.70
-27.88
-30.50
-33.49
-36.77
-40.27
-44.01
-48.10
-52.62
-57.47
-62.36
-66.75
-69.99
-71.39
-70.38
-66.55
-59.76
-50.17
-38.38
-25.34
-12.24
-0.25
9.78
17.47
23.00
26.96
30.25
33.82
38.49
44.71
52.42
61.00
69.47
76.88
82.59
86.57
89.17
90.91
92.11
92.81
92.88
92.16
90.65
88.42
85.62
82.24
78.26
73.66
68.54
63.09
57.46
51.66
45.43
38.34
29.92
19.85
8.18
-4.71
-18.06
-30.92
-42.31
-51.43
-57.74
-61.07
-61.60
-59.78
-56.27
-51.74
-46.75
-41.67
-36.57
-31.40
-26.01
-20.35
-14.53
-8.79
-3.48
1.10
4.79
7.60
9.67
11.13
12.06
12.40
12.03
10.89
9.05
6.78
4.45
2.46
1.10
0.50
0.68
1.59
3.19
5.44
8.30
11.64
15.23
18.73
21.78
24.05
25.38
25.76
25.31
24.23
22.63
20.58
18.11
15.25
12.10
8.80
5.44
2.04
-1.56
-5.56
-10.16
-15.36
-20.95
-26.45
-31.25
-34.74
-36.51
-36.45
-34.76
-31.82
-28.11
-24.01
-19.81
-15.65
-11.59
-7.69
-3.96
-0.44
2.90
6.04
8.93
11.44
13.30
14.22
14.00
12.64
10.43
7.94
5.88
4.91
5.36
7.16
9.85
12.78
15.34
17.14
18.13
18.49
18.51
18.44
18.36
18.18
17.67
16.57
14.67
11.88
8.24
3.95
-0.70
-5.39
-9.85
-13.95
-17.74
-21.42
-25.18
-29.10
-32.93
-36.14
-38.03
-38.03
-35.89
-31.81
-26.42
-20.54
-15.02
-10.47
-7.24
-5.34
-4.53
-4.43
-4.63
-4.77
-4.67
-4.28
-3.61
-2.74
-1.72
-0.63
0.41
1.23
1.63
1.54
1.01
0.30
-0.28
-0.49
-0.26
0.27
0.83
1.17
1.17
0.88
0.46
0.04
-0.31
-0.64
-1.06
-1.62
-2.31
-3.10
-3.95
-4.90
-6.04
-7.37
-8.77
-9.96
-10.58
-10.40
-9.39
-7.73
-5.77
-3.82
-2.08
-0.66
0.43
1.16
1.51
1.45
1.02
0.34
-0.38
-0.90
-0.99
-0.55
0.44
1.82
3.37
4.86
6.11
7.06
7.74
8.19
8.40
8.32
7.87
7.04
5.94
4.80
3.81
3.15
2.88
2.98
3.40
4.01
4.64
5.03
4.91
4.02
2.31
-0.02
-2.51
-4.57
-5.71
-5.69
-4.63
-2.94
-1.13
0.38
1.41
2.05
2.53
3.10
3.89
4.82
5.70
6.30
6.45
6.16
5.61
5.13
5.14
6.00
7.86
10.53
13.54
16.24
18.07
18.73
18.25
16.92
15.12
13.09
10.93
8.58
6.02
3.34
0.76
-1.49
-3.28
-4.67
-5.87
-7.16
-8.70
-10.50
-12.46
-14.39
-16.12
-17.53
-18.50
-18.91
-18.67
-17.75
-16.21
-14.20
-11.89
-9.42
-6.86
-4.28
-1.77
0.54
2.46
3.89
4.82
5.34
5.59
5.67
5.64
5.50
5.24
4.94
4.69
4.57
4.62
4.78
4.89
4.83
4.47
3.79
2.82
1.64
0.36
-0.90
-2.04
-2.98
-3.72
-4.33
-4.97
-5.78
-6.86
-8.21
-9.74
-11.32
-12.81
-14.10
-15.10
-15.66
-15.62
-14.87
-13.38
-11.25
-8.78
-6.32
-4.15
-2.45
-1.19
-0.25
0.50
1.08
1.41
1.34
0.73
-0.44
-2.09
-4.07
-6.23
-8.45
-10.65
-12.80
-14.93
-17.09
-19.42
-22.05
-25.10
-28.57
-32.36
-36.18
-39.58
-41.99
-42.75
-41.30
-37.29
-30.75
-22.11
-12.00
-1.16
9.69
19.88
28.73
35.56
39.80
41.29
40.52
38.60
37.01
37.09
39.55
44.26
50.45
57.06
63.19
68.25
72.01
74.35
75.08
73.98
70.92
65.95
59.38
51.60
42.88
33.21
22.43
10.54
-2.08
-14.52
-25.58
-34.13
-39.53
-41.78
-41.45
-39.40
-36.47
-33.31
-30.37
-27.95
-26.24
-25.29
-25.01
-25.13
-25.25
-25.01
-24.11
-22.43
-19.99
-17.03
-13.93
-11.13
-9.01
-7.72
-7.05
-6.48
-5.38
-3.26
-0.03
3.96
8.00
11.39
13.62
14.53
14.28
13.15
11.38
9.12
6.38
3.17
-0.45
-4.33
-8.20
-11.74
-14.56
-16.20
-16.17
-14.06
-9.71
-3.36
4.23
11.92
18.51
23.03
25.09
24.88
23.03
20.31
17.29
14.22
11.09
7.81
4.33
0.77
-2.62
-5.62
-8.13
-10.23
-12.10
-13.90
-15.69
-17.32
-18.53
-19.01
-18.63
-17.43
-15.61
-13.44
-11.14
-8.81
-6.51
-4.29
-2.29
-0.70
0.37
0.93
1.19
1.42
1.85
2.53
3.40
4.25
4.91
5.28
5.30
5.01
4.48
3.83
3.20
2.72
2.44
2.32
2.22
1.97
1.48
0.76
-0.05
-0.78
-1.31
-1.59
-1.72
-1.85
-2.17
-2.78
-3.66
-4.67
-5.63
-6.37
-6.86
-7.20
-7.59
-8.20
-9.08
-10.14
-11.11
-11.66
-11.49
-10.50
-8.79
-6.64
-4.39
-2.29
-0.43
1.28
2.99
4.75
6.45
7.88
8.79
9.09
8.87
8.38
7.90
7.61
7.54
7.60
7.66
7.63
7.44
7.06
6.45
5.55
4.33
2.81
1.12
-0.58
-2.09
-3.31
-4.22
-4.94
-5.62
-6.41
-7.36
-8.40
-9.36
-10.03
-10.26
-10.06
-9.58
-9.06
-8.75
-8.76
-9.09
-9.59
-10.08
-10.35
-10.29
-9.80
-8.84
-7.37
-5.38
-2.91
-0.07
2.93
5.80
8.28
10.17
11.38
12.01
12.22
12.19
12.03
11.73
11.19
10.36
9.27
8.08
7.02
6.30
5.98
5.94
5.96
5.81
5.38
4.71
3.95
3.24
2.62
2.06
1.50
0.91
0.31
-0.23
-0.68
-1.07
-1.52
-2.16
-3.11
-4.37
-5.85
-7.43
-8.95
-10.31
-11.40
-12.17
-12.59
-12.65
-12.39
-11.86
-11.08
-10.04
-8.66
-6.81
-4.41
-1.46
1.92
5.52
9.08
12.36
15.20
17.50
19.25
20.45
21.10
21.23
20.87
20.03
18.75
17.07
15.09
12.89
10.57
8.19
5.80
3.48
1.33
-0.48
-1.77
-2.44
-2.49
-2.10
-1.49
-0.95
-0.70
-0.93
-1.75
-3.21
-5.24
-7.65
-10.16
-12.46
-14.35
-15.72
-16.64
-17.16
-17.34
-17.10
-16.24
-14.55
-11.86
-8.21
-3.88
0.64
4.79
8.06
10.19
11.20
11.37
11.11
10.78
10.55
10.34
9.86
8.75
6.74
3.79
0.19
-3.59
-6.95
-9.36
-10.46
-10.11
-8.37
-5.58
-2.23
1.02
3.58
5.08
5.49
5.13
4.42
3.71
3.10
2.46
1.58
0.36
-1.11
-2.63
-4.07
-5.42
-6.80
-8.31
-9.95
-11.52
-12.77
-13.42
-13.36
-12.67
-11.51
-10.11
-8.61
-7.10
-5.55
-3.95
-2.31
-0.74
0.58
1.46
1.74
1.49
0.93
0.43
0.35
0.88
1.99
3.48
5.15
6.88
8.66
10.52
12.38
14.04
15.21
15.66
15.30
14.24
12.73
11.00
9.23
7.50
5.84
4.23
2.63
0.98
-0.78
-2.64
-4.52
-6.20
-7.48
-8.24
-8.50
-8.39
-8.10
-7.77
-7.43
-7.07
-6.68
-6.27
-5.88
-5.49
-5.01
-4.35
-3.41
-2.22
-0.91
0.34
1.36
2.03
2.30
2.16
1.63
0.77
-0.32
-1.48
-2.54
-3.39
-3.96
-4.27
-4.35
-4.26
-4.04
-3.74
-3.38
-3.01
-2.59
-2.07
-1.36
-0.46
0.58
1.57
2.28
2.57
2.43
1.99
1.49
1.13
0.94
0.86
0.73
0.43
-0.06
-0.65
-1.15
-1.46
-1.58
-1.66
-1.96
-2.70
-3.97
-5.67
-7.55
-9.21
-10.32
-10.64
-10.13
-8.91
-7.20
-5.26
-3.33
-1.59
-0.15
0.96
1.80
2.47
3.10
3.77
4.47
5.07
5.37
5.25
4.67
3.80
2.93
2.37
2.38
2.98
4.05
5.32
6.52
7.44
8.01
8.26
8.29
8.23
8.17
8.19
8.26
8.31
8.21
7.80
6.97
5.75
4.23
2.64
1.15
-0.12
-1.09
-1.77
-2.19
-2.35
-2.32
-2.21
-2.17
-2.38
-2.93
-3.79
-4.82
-5.84
-6.70
-7.30
-7.66
-7.78
-7.65
-7.22
-6.43
-5.27
-3.87
-2.41
-1.12
-0.15
0.47
0.81
0.98
1.06
1.05
0.95
0.74
0.44
0.09
-0.29
-0.73
-1.25
-1.84
-2.43
-2.87
-3.00
-2.81
-2.39
-1.95
-1.69
-1.70
-1.93
-2.26
-2.56
-2.76
-2.89
-2.98
-3.05
-3.07
-2.95
-2.64
-2.19
-1.80
-1.71
-2.17
-3.26
-4.89
-6.78
-8.61
-10.08
-11.00
-11.27
-10.84
-9.73
-8.00
-5.86
-3.61
-1.58
-0.05
0.89
1.32
1.46
1.48
1.50
1.53
1.60
1.77
2.16
2.85
3.96
5.56
7.72
10.48
13.82
17.64
21.70
25.63
29.03
31.48
32.67
32.37
30.53
27.24
22.79
17.61
12.30
7.45
3.55
0.89
-0.53
-0.94
-0.75
-0.39
-0.26
-0.60
-1.47
-2.80
-4.39
-5.94
-7.09
-7.50
-6.92
-5.31
-2.90
-0.14
2.47
4.55
6.00
7.01
7.86
8.78
9.79
10.72
11.32
11.46
11.10
10.32
9.23
7.90
6.46
5.12
4.25
4.21
5.17
6.88
8.69
9.73
9.29
7.15
3.68
-0.30
-3.88
-6.44
-7.83
-8.35
-8.54
-8.89
-9.71
-11.05
-12.80
-14.77
-16.81
-18.74
-20.39
-21.60
-22.21
-22.15
-21.46
-20.31
-18.95
-17.64
-16.58
-15.82
-15.29
-14.80
-14.22
-13.49
-12.73
-12.12
-11.76
-11.54
-11.16
-10.23
-8.42
-5.70
-2.35
1.12
4.18
6.41
7.67
8.00
7.50
6.29
4.44
2.09
-0.51
-2.95
-4.80
-5.72
-5.67
-4.97
-4.13
-3.71
-3.99
-4.92
-6.14
-7.23
-7.88
-8.06
-7.98
-7.86
-7.81
-7.68
-7.15
-5.88
-3.69
-0.70
2.75
6.18
9.15
11.35
12.66
13.09
12.73
11.74
10.26
8.45
6.46
4.43
2.50
0.80
-0.58
-1.60
-2.24
-2.53
-2.44
-2.00
-1.28
-0.44
0.30
0.71
0.65
0.10
-0.81
-1.87
-2.93
-3.86
-4.61
-5.14
-5.37
-5.21
-4.58
-3.51
-2.12
-0.61
0.86
2.18
3.33
4.38
5.45
6.62
7.97
9.46
10.95
12.20
12.95
13.00
12.33
11.12
9.70
8.42
7.52
7.02
6.77
6.55
6.16
5.53
4.69
3.73
2.76
1.83
0.96
0.17
-0.57
-1.26
-1.92
-2.54
-3.12
-3.64
-4.12
-4.64
-5.23
-5.92
-6.68
-7.37
-7.85
-7.98
-7.71
-7.09
-6.24
-5.32
-4.47
-3.75
-3.19
-2.77
-2.44
-2.19
-2.01
-1.88
-1.80
-1.71
-1.57
-1.35
-1.03
-0.66
-0.31
-0.04
0.13
0.20
0.16
0.04
-0.20
-0.55
-1.00
-1.55
-2.14
-2.75
-3.37
-4.00
-4.59
-5.08
-5.36
-5.39
-5.13
-4.68
-4.17
-3.79
-3.61
-3.66
-3.82
-3.97
-3.99
-3.82
-3.51
-3.10
-2.58
-1.92
-1.05
0.03
1.24
2.36
3.16
3.52
3.43
3.04
2.59
2.27
2.18
2.23
2.29
2.28
2.22
2.30
2.81
3.93
5.67
7.78
9.84
11.42
12.23
12.23
11.59
10.60
9.47
8.29
6.98
5.46
3.71
1.89
0.24
-0.95
-1.52
-1.47
-0.97
-0.25
0.46
1.02
1.38
1.52
1.44
1.11
0.49
-0.49
-1.86
-3.62
-5.71
-7.98
-10.28
-12.45
-14.34
-15.85
-16.91
-17.44
-17.36
-16.59
-15.13
-13.06
-10.64
-8.25
-6.36
-5.43
-5.78
-7.44
-10.17
-13.48
-16.76
-19.49
-21.37
-22.37
-22.64
-22.33
-21.47
-19.97
-17.68
-14.56
-10.77
-6.63
-2.50
1.34
4.77
7.77
10.39
12.65
14.50
15.87
16.71
17.04
16.96
16.64
16.25
15.92
15.64
15.27
14.55
13.26
11.29
8.72
5.78
2.72
-0.26
-3.14
-5.90
-8.53
-10.87
-12.58
-13.17
-12.14
-9.16
-4.24
2.21
9.48
16.86
23.84
30.36
36.69
43.20
50.08
57.13
63.78
69.35
73.32
75.58
76.35
76.11
75.35
74.38
73.17
71.32
68.15
62.81
54.57
43.00
28.15
10.55
-8.78
-28.50
-47.04
-62.85
-74.59
-81.48
-83.45
-81.17
-75.89
-69.05
-61.90
-55.26
-49.47
-44.52
-40.27
-36.57
-33.31
-30.42
-27.78
-25.32
-22.96
-20.71
-18.58
-16.56
-14.54
-12.38
-9.98
-7.30
-4.46
-1.68
0.80
2.81
4.30
5.33
6.03
6.48
6.71
6.70
6.43
5.90
5.11
4.06
2.75
1.15
-0.69
-2.64
-4.47
-5.90
-6.77
-7.04
-6.88
-6.53
-6.22
-6.02
-5.88
-5.68
-5.35
-4.88
-4.31
-3.69
-3.08
-2.52
-2.10
-1.99
-2.31
-3.09
-4.18
-5.20
-5.74
-5.47
-4.27
-2.25
0.31
3.10
5.89
8.51
10.87
12.84
14.25
15.00
15.11
14.77
14.34
14.19
14.56
15.47
16.66
17.75
18.39
18.35
17.64
16.40
14.82
13.04
11.08
8.91
6.46
3.77
0.92
-1.90
-4.48
-6.61
-8.15
-9.03
-9.32
-9.18
-8.88
-8.66
-8.71
-9.07
-9.63
-10.15
-10.41
-10.25
-9.62
-8.52
-7.01
-5.12
-2.91
-0.53
1.79
3.73
5.03
5.54
5.37
4.75
4.04
3.50
3.28
3.34
3.49
3.51
3.18
2.41
1.23
-0.16
-1.52
-2.60
-3.28
-3.59
-3.67
-3.76
-4.06
-4.75
-5.85
-7.29
-8.87
-10.31
-11.30
-11.58
-11.06
-9.80
-8.07
-6.15
-4.31
-2.66
-1.19
0.15
1.44
2.66
3.79
4.81
5.77
6.86
8.28
10.20
12.61
15.25
17.69
19.33
19.67
18.38
15.46
11.29
6.47
1.75
-2.20
-4.89
-5.96
-5.29
-2.88
1.01
5.84
10.79
14.92
17.43
17.94
16.59
13.96
10.81
7.77
5.18
3.06
1.26
-0.38
-1.96
-3.55
-5.20
-6.94
-8.80
-10.70
-12.49
-13.89
-14.67
-14.68
-13.92
-12.52
-10.74
-8.84
-7.09
-5.66
-4.64
-4.02
-3.77
-3.81
-4.05
-4.25
-4.16
-3.47
-2.00
0.21
2.86
5.43
7.43
8.53
8.72
8.25
7.45
6.61
5.83
5.03
4.04
2.76
1.17
-0.63
-2.45
-4.14
-5.62
-6.90
-8.00
-8.98
-9.78
-10.27
-10.29
-9.69
-8.46
-6.77
-4.97
-3.44
-2.44
-1.91
-1.47
-0.51
1.48
4.65
8.68
12.90
16.53
19.01
20.16
20.12
19.18
17.55
15.34
12.61
9.47
6.14
2.95
0.14
-2.17
-4.00
-5.43
-6.52
-7.25
-7.57
-7.47
-7.03
-6.41
-5.78
-5.20
-4.65
-3.97
-3.00
-1.67
-0.04
1.69
3.23
4.32
4.80
4.67
4.09
3.29
2.50
1.84
1.29
0.76
0.16
-0.54
-1.24
-1.83
-2.19
-2.33
-2.30
-2.21
-2.10
-1.92
-1.61
-1.18
-0.69
-0.33
-0.31
-0.75
-1.66
-2.90
-4.22
-5.35
-6.09
-6.41
-6.40
-6.26
-6.22
-6.38
-6.70
-7.06
-7.26
-7.14
-6.59
-5.54
-4.00
-2.08
-0.00
1.86
3.07
3.31
2.50
0.84
-1.22
-3.15
-4.58
-5.35
-5.55
-5.37
-4.98
-4.46
-3.78
-2.93
-1.93
-0.92
-0.03
0.59
0.89
0.91
0.71
0.28
-0.40
-1.35
-2.54
-3.86
-5.14
-6.21
-6.96
-7.34
-7.34
-6.95
-6.15
-4.92
-3.27
-1.27
0.94
3.22
5.43
7.45
9.18
10.48
11.21
11.26
10.56
9.19
7.32
5.21
3.19
1.56
0.54
0.26
0.69
1.69
3.03
4.48
5.79
6.81
7.44
7.65
7.44
6.86
6.04
5.14
4.38
3.94
3.90
4.18
4.54
4.70
4.41
3.56
2.20
0.56
-1.12
-2.57
-3.65
-4.31
-4.58
-4.60
-4.49
-4.38
-4.36
-4.44
-4.60
-4.82
-5.14
-5.62
-6.32
-7.18
-8.02
-8.55
-8.54
-7.93
-6.87
-5.64
-4.51
-3.61
-2.90
-2.19
-1.35
-0.36
0.69
1.64
2.37
2.79
2.92
2.79
2.45
1.98
1.49
1.12
0.95
0.99
1.17
1.32
1.33
1.13
0.76
0.34
-0.00
-0.22
-0.39
-0.61
-0.98
-1.53
-2.16
-2.74
-3.22
-3.64
-4.16
-4.94
-5.99
-7.18
-8.18
-8.66
-8.43
-7.52
-6.14
-4.62
-3.22
-2.03
-1.02
-0.08
0.89
1.94
3.03
4.09
5.03
5.76
6.23
6.43
6.40
6.28
6.20
6.30
6.66
7.18
7.69
7.91
7.64
6.81
5.50
3.94
2.38
0.96
-0.23
-1.23
-2.10
-2.89
-3.61
-4.27
-4.91
-5.60
-6.38
-7.23
-8.02
-8.56
-8.68
-8.26
-7.29
-5.84
-4.05
-2.10
-0.17
1.56
2.92
3.84
4.32
4.45
4.32
4.05
3.70
3.37
3.15
3.13
3.34
3.72
4.12
4.38
4.39
4.15
3.79
3.43
3.18
3.06
2.99
2.84
2.49
1.89
1.08
0.16
-0.75
-1.58
-2.31
-2.98
-3.64
-4.35
-5.13
-5.96
-6.79
-7.52
-8.01
-8.11
-7.71
-6.76
-5.32
-3.50
-1.49
0.55
2.40
3.84
4.66
4.73
4.08
2.88
1.43
0.01
-1.21
-2.24
-3.20
-4.20
-5.26
-6.20
-6.78
-6.73
-5.93
-4.39
-2.27
0.19
2.74
5.15
7.22
8.81
9.87
10.46
10.73
10.85
10.93
10.96
10.90
10.67
10.28
9.80
9.29
8.78
8.24
7.64
7.06
6.66
6.61
7.03
7.81
8.65
9.20
9.20
8.56
7.41
5.96
4.36
2.63
0.66
-1.64
-4.28
-7.08
-9.75
-11.97
-13.47
-14.12
-13.87
-12.79
-11.00
-8.78
-6.49
-4.53
-3.21
-2.57
-2.44
-2.47
-2.35
-1.98
-1.48
-1.08
-1.03
-1.41
-2.18
-3.24
-4.48
-5.83
-7.21
-8.51
-9.60
-10.28
-10.41
-9.88
-8.66
-6.79
-4.32
-1.38
1.85
5.14
8.22
10.88
13.02
14.64
15.83
16.66
17.19
17.40
17.29
16.89
16.31
15.70
15.19
14.81
14.57
14.39
14.28
14.21
14.21
14.20
14.08
13.72
13.07
12.20
11.24
10.31
9.41
8.37
6.96
4.90
2.08
-1.42
-5.30
-9.12
-12.38
-14.65
-15.68
-15.42
-14.05
-11.88
-9.30
-6.65
-4.20
-2.15
-0.59
0.45
1.00
1.22
1.28
1.35
1.46
1.48
1.22
0.55
-0.49
-1.66
-2.59
-2.97
-2.64
-1.69
-0.37
1.03
2.28
3.22
3.83
4.10
4.08
3.84
3.46
3.07
2.80
2.72
2.81
2.99
3.06
2.80
2.02
0.56
-1.57
-4.21
-7.02
-9.60
-11.59
-12.75
-13.06
-12.66
-11.74
-10.50
-9.06
-7.50
-5.89
-4.27
-2.70
-1.23
0.11
1.25
2.10
2.60
2.73
2.61
2.47
2.54
2.96
3.70
4.55
5.32
5.82
5.97
5.73
5.02
3.72
1.73
-0.96
-4.16
-7.55
-10.73
-13.38
-15.35
-16.68
-17.52
-18.06
-18.42
-18.68
-18.91
-19.17
-19.61
-20.36
-21.47
-22.85
-24.19
-25.11
-25.23
-24.33
-22.47
-19.91
-17.02
-14.12
-11.37
-8.73
-6.12
-3.48
-0.93
1.27
2.86
3.67
3.74
3.31
2.71
2.23
2.03
2.12
2.37
2.62
2.62
2.17
1.16
-0.42
-2.35
-4.32
-6.04
-7.42
-8.70
-10.38
-13.04
-17.04
-22.30
-28.26
-33.94
-38.22
-40.05
-38.78
-34.28
-27.13
-18.50
-9.86
-2.51
2.83
6.26
8.48
10.43
12.82
15.84
19.25
22.56
25.30
27.16
28.00
27.74
26.44
24.30
21.75
19.38
17.76
17.20
17.63
18.62
19.57
20.03
19.78
18.95
17.88
16.96
16.48
16.54
16.97
17.48
17.66
17.16
15.76
13.45
10.44
7.07
3.73
0.79
-1.53
-3.15
-4.17
-4.87
-5.60
-6.73
-8.48
-10.80
-13.33
-15.50
-16.68
-16.40
-14.54
-11.29
-7.13
-2.60
1.78
5.69
8.94
11.53
13.52
15.01
16.07
16.71
16.86
16.43
15.33
13.56
11.22
8.56
5.90
3.54
1.66
0.31
-0.64
-1.40
-2.15
-3.02
-4.01
-5.10
-6.26
-7.61
-9.30
-11.51
-14.27
-17.50
-20.96
-24.46
-27.83
-30.87
-33.33
-34.82
-34.87
-33.20
-29.79
-25.01
-19.40
-13.45
-7.47
-1.53
4.38
10.14
15.44
19.86
23.10
25.08
26.04
26.41
26.66
27.13
27.94
29.03
30.19
31.16
31.64
31.44
30.46
28.73
26.38
23.61
20.67
17.78
15.14
12.82
10.72
8.64
6.31
3.57
0.42
-2.88
-5.96
-8.46
-10.15
-11.02
-11.25
-11.17
-11.12
-11.39
-12.14
-13.27
-14.52
-15.47
-15.76
-15.18
-13.79
-11.83
-9.60
-7.38
-5.32
-3.53
-2.10
-1.12
-0.64
-0.58
-0.79
-1.02
-1.11
-0.96
-0.65
-0.27
0.06
0.30
0.43
0.43
0.30
0.05
-0.27
-0.57
-0.70
-0.59
-0.21
0.37
1.00
1.50
1.69
1.48
0.92
0.14
-0.61
-1.16
-1.42
-1.45
-1.38
-1.35
-1.39
-1.45
-1.50
-1.55
-1.70
-2.03
-2.54
-3.07
-3.34
-3.08
-2.19
-0.71
1.12
3.02
4.75
6.17
7.22
7.86
8.09
7.87
7.20
6.13
4.76
3.28
1.87
0.74
-0.01
-0.31
-0.22
0.18
0.76
1.40
1.96
2.32
2.31
1.82
0.82
-0.59
-2.22
-3.82
-5.21
-6.30
-7.14
-7.87
-8.64
-9.52
-10.49
-11.42
-12.08
-12.24
-11.70
-10.37
-8.33
-5.79
-3.08
-0.51
1.71
3.50
4.94
6.19
7.35
8.42
9.26
9.67
9.53
8.89
7.96
7.02
6.24
5.62
4.97
4.08
2.88
1.47
0.11
-0.99
-1.74
-2.27
-2.84
-3.68
-4.87
-6.30
-7.69
-8.78
-9.37
-9.40
-8.96
-8.25
-7.51
-7.01
-6.94
-7.37
-8.25
-9.32
-10.22
-10.59
-10.12
-8.76
-6.70
-4.29
-1.95
0.01
1.42
2.26
2.59
2.52
2.18
1.78
1.62
2.04
3.32
5.63
8.90
12.87
17.15
21.35
25.12
28.20
30.44
31.76
32.18
31.78
30.68
29.02
26.86
24.19
20.98
17.21
12.90
8.19
3.22
-1.82
-6.73
-11.31
-15.30
-18.46
-20.63
-21.88
-22.46
-22.75
-23.11
-23.66
-24.29
-24.70
-24.62
-23.87
-22.47
-20.59
-18.40
-16.05
-13.68
-11.41
-9.37
-7.65
-6.27
-5.15
-4.17
-3.25
-2.42
-1.82
-1.58
-1.72
-2.13
-2.60
-2.90
-2.94
-2.78
-2.59
-2.52
-2.66
-2.96
-3.33
-3.62
-3.75
-3.63
-3.13
-2.13
-0.53
1.61
4.09
6.57
8.66
10.04
10.54
10.14
8.99
7.33
5.39
3.40
1.48
-0.28
-1.80
-3.01
-3.78
-3.95
-3.33
-1.81
0.58
3.63
7.00
10.25
13.05
15.16
16.51
17.15
17.22
16.84
16.16
15.34
14.62
14.25
14.35
14.90
15.64
16.20
16.23
15.58
14.26
12.47
10.47
8.47
6.64
5.01
3.49
1.89
-0.06
-2.59
-5.73
-9.31
-12.92
-16.19
-18.88
-20.94
-22.47
-23.55
-24.15
-24.21
-23.70
-22.76
-21.72
-20.92
-20.54
-20.52
-20.58
-20.39
-19.75
-18.67
-17.35
-16.05
-15.03
-14.42
-14.29
-14.58
-15.18
-15.86
-16.36
-16.43
-15.86
-14.62
-12.78
-10.51
-7.93
-5.04
-1.71
2.26
6.98
12.29
17.74
22.59
26.01
27.36
26.30
22.96
17.82
11.58
4.89
-1.72
-7.98
-13.77
-18.91
-22.99
-25.36
-25.18
-21.68
-14.57
-4.23
8.15
20.90
32.21
40.69
45.71
47.41
46.55
44.13
41.07
37.97
35.16
32.70
30.53
28.52
26.51
24.34
21.87
19.11
16.10
13.00
9.96
7.16
4.71
2.66
1.00
-0.43
-1.81
-3.27
-4.82
-6.25
-7.32
-7.93
-8.27
-8.84
-10.20
-12.64
-15.90
-19.18
-21.44
-21.84
-20.16
-16.89
-12.97
-9.46
-7.09
-6.07
-6.19
-7.02
-8.04
-8.82
-8.97
-8.17
-6.24
-3.21
0.54
4.33
7.35
8.89
8.52
6.29
2.72
-1.35
-4.93
-7.20
-7.74
-6.65
-4.50
-2.15
-0.41
0.13
-0.75
-2.88
-5.75
-8.62
-10.62
-10.93
-9.09
-5.20
-0.01
5.16
8.83
9.83
7.74
3.01
-3.07
-8.80
-12.50
-13.03
-10.04
-4.02
3.82
11.85
18.46
22.39
23.07
20.84
16.90
13.07
11.21
12.60
17.53
25.12
33.69
41.34
46.52
48.51
47.40
43.96
39.26
34.34
30.07
27.05
25.61
25.80
27.33
29.54
31.47
31.97
30.08
25.22
17.50
7.63
-3.26
-13.97
-23.57
-31.52
-37.74
-42.34
-45.53
-47.43
-48.05
-47.38
-45.47
-42.56
-39.03
-35.31
-31.77
-28.57
-25.65
-22.85
-20.03
-17.17
-14.43
-12.01
-10.08
-8.67
-7.65
-6.84
-6.07
-5.22
-4.29
-3.26
-2.13
-0.91
0.34
1.49
2.41
2.99
3.21
3.16
2.95
2.67
2.37
2.05
1.69
1.30
0.86
0.30
-0.51
-1.73
-3.47
-5.65
-8.08
-10.40
-12.22
-13.18
-13.06
-11.79
-9.54
-6.59
-3.33
-0.08
2.95
5.71
8.26
10.68
12.98
15.13
17.01
18.47
19.34
19.44
18.54
16.43
13.09
8.77
4.02
-0.49
-4.12
-6.57
-7.87
-8.33
-8.31
-8.10
-7.81
-7.46
-7.04
-6.61
-6.27
-6.16
-6.38
-7.01
-8.10
-9.65
-11.57
-13.67
-15.64
-17.11
-17.83
-17.70
-16.85
-15.53
-14.05
-12.65
-11.48
-10.54
-9.82
-9.30
-8.97
-8.85
-8.87
-8.90
-8.77
-8.35
-7.61
-6.64
-5.61
-4.59
-3.54
-2.37
-0.98
0.59
2.19
3.56
4.51
4.99
5.06
4.86
4.47
3.96
3.33
2.65
2.01
1.50
1.14
0.77
0.15
-0.93
-2.55
-4.54
-6.53
-8.07
-8.81
-8.60
-7.50
-5.72
-3.49
-1.00
1.62
4.24
6.73
8.93
10.70
11.92
12.57
12.69
12.32
11.59
10.59
9.43
8.24
7.12
6.18
5.45
4.93
4.58
4.30
4.01
3.65
3.22
2.72
2.21
1.72
1.28
0.92
0.63
0.38
0.11
-0.30
-0.96
-1.90
-3.03
-4.15
-4.99
-5.35
-5.09
-4.23
-2.87
-1.14
0.86
3.06
5.37
7.69
9.89
11.80
13.28
14.19
14.46
14.13
13.31
12.20
10.98
9.79
8.69
7.67
6.72
5.86
5.11
4.46
3.86
3.22
2.43
1.48
0.44
-0.52
-1.27
-1.79
-2.18
-2.69
-3.52
-4.79
-6.43
-8.21
-9.83
-11.00
-11.53
-11.31
-10.38
-8.84
-6.86
-4.66
-2.44
-0.38
1.44
2.97
4.22
5.21
5.93
6.39
6.60
6.59
6.41
6.07
5.60
5.02
4.38
3.75
3.21
2.81
2.57
2.43
2.30
2.08
1.66
1.00
0.12
-0.88
-1.87
-2.70
-3.28
-3.67
-3.98
-4.39
-5.01
-5.82
-6.72
-7.53
-8.07
-8.19
-7.78
-6.76
-5.11
-2.90
-0.33
2.31
4.68
6.49
7.61
8.07
8.04
7.76
7.39
7.03
6.69
6.33
5.93
5.49
4.98
4.35
3.57
2.67
1.79
1.06
0.63
0.50
0.53
0.57
0.47
0.16
-0.31
-0.92
-1.66
-2.56
-3.64
-4.83
-5.98
-6.93
-7.57
-7.92
-8.05
-8.11
-8.19
-8.28
-8.25
-7.95
-7.23
-6.03
-4.45
-2.68
-0.96
0.51
1.65
2.50
3.17
3.78
4.35
4.86
5.25
5.47
5.56
5.58
5.58
5.61
5.66
5.68
5.63
5.46
5.18
4.85
4.53
4.28
4.11
3.97
3.77
3.44
2.96
2.39
1.79
1.27
0.86
0.52
0.16
-0.33
-0.96
-1.65
-2.19
-2.29
-1.73
-0.40
1.62
4.10
6.70
9.10
11.07
12.53
13.55
14.39
15.41
17.06
19.69
23.42
28.00
32.72
36.60
38.65
38.27
35.51
31.08
26.09
21.61
18.25
16.02
14.48
13.08
11.49
9.74
8.06
6.61
5.26
3.62
1.22
-2.18
-6.44
-11.14
-15.79
-20.10
-24.04
-27.78
-31.43
-35.00
-38.30
-41.08
-43.12
-44.25
-44.35
-43.31
-41.02
-37.48
-32.86
-27.49
-21.74
-15.84
-9.90
-3.94
1.89
7.22
11.58
14.59
16.16
16.58
16.34
15.81
14.92
13.19
9.99
4.96
-1.68
-9.21
-16.57
-22.78
-27.30
-30.26
-32.24
-33.98
-36.02
-38.47
-41.35
-44.39
-47.19
-49.42
-50.91
-51.68
-51.75
-51.17
-49.98
-48.70
-47.70
-47.17
-47.10
-47.32
-47.56
-47.42
-46.38
-43.99
-40.57
-36.49
-32.19
-28.08
-24.51
-21.57
-18.90
-15.48
-7.87
5.45
23.76
44.25
63.67
79.70
91.15
97.64
99.23
98.10
94.03
86.95
77.49
66.96
56.83
48.28
41.92
37.90
35.07
32.09
28.17
23.16
17.39
11.33
5.39
-0.04
-4.52
-7.68
-9.53
-10.07
-9.18
-7.00
-4.11
-1.40
0.30
0.66
-0.11
-1.48
-2.62
-2.44
-0.12
4.51
10.96
18.23
25.19
30.71
34.03
33.56
29.39
23.54
18.86
17.03
17.80
19.73
21.28
21.72
21.09
20.00
18.79
17.15
14.78
11.18
6.50
1.25
-3.90
-8.65
-12.86
-16.69
-20.54
-24.79
-29.47
-34.43
-39.84
-44.71
-48.62
-51.30
-52.80
-53.64
-54.59
-56.24
-56.74
-54.90
-50.23
-43.29
-35.11
-26.75
-19.13
-13.68
-10.08
-7.88
-7.06
-7.53
-9.27
-12.06
-15.25
-18.22
-20.37
-21.18
-20.57
-19.00
-16.96
-14.85
-12.78
-10.63
-8.25
-5.52
-2.30
1.29
4.95
8.37
11.27
13.51
15.04
15.98
16.58
17.30
18.52
20.35
22.76
25.50
28.22
30.62
32.53
33.92
34.94
35.73
36.40
36.99
37.51
37.93
38.18
38.14
37.71
36.75
35.18
32.94
30.05
26.59
22.70
18.54
14.30
10.17
6.34
3.00
0.36
-1.42
-2.20
-1.98
-0.85
0.93
3.06
5.22
7.21
8.92
10.37
11.54
12.38
12.82
12.78
12.27
11.44
10.50
9.73
9.42
9.81
11.09
13.29
16.23
19.50
22.55
24.73
25.55
24.74
22.28
18.36
13.24
7.08
-0.04
-8.05
-16.75
-25.66
-34.00
-40.87
-45.47
-47.37
-46.57
-43.48
-38.77
-33.14
-27.21
-21.50
-16.43
-12.31
-9.31
-7.42
-6.45
-6.14
-6.24
-6.64
-7.38
-8.67
-10.74
-13.73
-17.55
-21.83
-25.94
-29.22
-31.19
-31.69
-30.90
-29.20
-26.93
-24.29
-21.35
-18.15
-14.90
-11.92
-9.58
-8.07
-7.35
-7.12
-7.01
-6.68
-5.89
-4.50
-2.44
0.26
3.44
6.77
9.85
12.34
14.15
15.41
16.45
17.55
18.81
20.14
21.38
22.40
23.21
23.87
24.43
24.85
25.07
25.00
24.68
24.18
23.60
23.02
22.45
21.99
21.79
22.08
22.96
24.33
25.77
26.69
26.43
24.51
20.67
14.94
7.60
-0.84
-9.62
-17.85
-24.65
-29.38
-31.92
-32.67
-32.42
-32.05
-32.20
-33.00
-34.09
-34.81
-34.52
-32.89
-30.14
-26.91
-24.06
-22.26
-21.67
-21.90
-22.13
-21.57
-19.81
-16.98
-13.60
-10.30
-7.55
-5.53
-4.23
-3.66
-3.93
-5.19
-7.46
-10.38
-13.23
-15.13
-15.36
-13.77
-10.89
-7.82
-5.79
-5.61
-7.25
-9.78
-11.70
-11.59
-8.72
-3.41
3.18
9.55
14.52
17.66
19.26
20.04
20.71
21.73
23.32
25.61
28.73
32.70
37.33
42.13
46.47
49.81
51.91
52.93
53.24
53.30
53.42
53.70
54.03
54.05
53.14
50.57
45.81
38.87
30.53
22.18
15.32
10.93
9.07
8.93
9.22
8.76
6.72
2.81
-2.85
-9.75
-17.09
-23.83
-29.00
-31.94
-32.63
-31.72
-30.33
-29.51
-29.83
-31.14
-32.88
-34.42
-35.45
-36.04
-36.50
-37.19
-38.27
-39.54
-40.58
-40.98
-40.68
-39.99
-39.39
-39.34
-40.13
-41.56
-43.01
-43.60
-42.62
-39.96
-36.16
-32.03
-28.35
-25.67
-23.95
-22.52
-20.40
-16.60
-10.61
-2.46
7.62
19.26
31.87
43.95
52.92
56.50
54.47
48.42
40.23
31.42
24.07
17.97
13.00
9.43
7.37
6.98
8.08
9.53
10.59
10.82
9.90
8.01
5.82
3.74
2.43
2.20
2.99
4.55
6.41
7.84
8.39
8.19
7.20
6.01
5.27
5.46
6.99
9.82
13.42
15.51
17.70
19.39
20.68
21.96
23.67
26.18
29.32
32.33
34.28
34.76
33.34
30.65
27.84
26.06
26.09
27.60
29.21
29.13
26.17
19.70
10.60
0.61
-9.13
-17.16
-22.95
-27.32
-31.83
-37.50
-44.67
-53.08
-62.59
-73.27
-84.44
-93.93
-97.91
-92.17
-74.58
-47.24
-16.25
10.80
28.39
35.72
36.17
34.78
34.76
35.81
34.84
28.81
17.28
3.18
-8.73
-15.09
-15.28
-11.57
-7.58
-6.16
-7.89
-11.00
-12.62
-10.43
-3.91
5.48
15.06
22.24
25.69
25.66
23.59
21.18
19.51
18.67
18.02
16.75
14.51
11.60
8.85
7.10
6.83
7.93
9.82
11.75
13.08
13.57
13.47
13.33
13.77
15.12
17.22
19.43
20.89
20.86
19.00
15.39
10.51
4.90
-0.99
-6.90
-12.69
-18.23
-23.33
-27.72
-31.21
-33.68
-35.12
-35.54
-34.96
-33.44
-31.15
-28.44
-25.82
-23.71
-22.37
-21.71
-21.42
-21.15
-20.68
-19.93
-18.94
-17.68
-16.01
-13.80
-11.12
-8.35
-6.15
-5.24
-6.06
-8.52
-12.00
-15.57
-18.24
-19.35
-18.64
-16.26
-12.73
-8.74
-5.10
-2.60
-1.82
-3.01
-6.04
-10.40
-15.40
-20.31
-24.62
-28.00
-30.37
-31.80
-32.50
-32.78
-32.91
-33.07
-33.16
-32.86
-31.73
-29.44
-25.94
-21.48
-16.46
-11.20
-5.80
-0.13
5.98
12.57
19.36
25.87
31.58
36.15
39.61
42.29
44.67
47.03
49.36
51.36
52.58
52.69
51.58
49.42
46.47
42.94
38.93
34.45
29.49
24.16
18.67
13.25
8.11
3.42
-0.63
-3.78
-5.67
-5.97
-4.54
-1.54
2.53
6.99
11.19
14.71
17.40
19.29
20.50
21.12
21.24
20.97
20.53
20.16
19.99
19.95
19.82
19.33
18.40
17.15
15.94
15.13
14.99
15.57
16.70
18.11
19.45
20.33
20.40
19.34
16.96
13.27
8.54
3.22
-2.15
-7.06
-11.24
-14.64
-17.41
-19.72
-21.75
-23.46
-24.66
-25.07
-24.44
-22.70
-19.96
-16.55
-12.85
-9.19
-5.79
-2.74
-0.07
2.20
3.97
5.17
5.72
5.67
5.22
4.67
4.29
4.28
4.69
5.42
6.29
7.15
7.85
8.30
8.45
8.29
7.90
7.48
7.36
7.85
9.23
11.59
14.86
18.86
23.33
27.98
32.37
35.90
37.82
37.41
34.16
27.88
18.82
7.50
-5.24
-18.37
-30.64
-40.77
-47.62
-50.55
-49.64
-45.63
-39.68
-32.88
-25.87
-18.89
-11.93
-5.07
1.33
6.76
10.83
13.45
14.90
15.52
15.54
14.89
13.34
10.78
7.40
3.73
0.43
-1.97
-3.25
-3.51
-3.03
-2.18
-1.33
-0.89
-1.26
-2.75
-5.43
-9.07
-13.21
-17.27
-20.83
-23.71
-25.97
-27.78
-29.27
-30.46
-31.32
-31.85
-32.12
-32.24
-32.31
-32.28
-31.96
-31.04
-29.26
-26.43
-22.60
-18.01
-13.08
-8.33
-4.25
-1.17
0.80
1.78
2.11
2.23
2.58
3.42
4.78
6.37
7.72
8.35
7.95
6.54
4.41
2.02
-0.15
-1.73
-2.50
-2.39
-1.54
-0.31
0.72
0.88
-0.37
-3.20
-7.23
-11.63
-15.40
-17.72
-18.19
-16.85
-14.05
-10.27
-5.93
-1.42
2.85
6.41
8.83
9.78
9.26
7.60
5.42
3.41
2.16
1.98
2.87
4.60
6.83
9.22
11.46
13.29
14.52
15.04
14.84
14.09
13.10
12.28
11.95
12.26
13.11
14.17
15.02
15.25
14.60
13.03
10.63
7.68
4.49
1.37
-1.50
-4.06
-6.34
-8.34
-9.96
-10.98
-11.20
-10.48
-8.94
-6.84
-4.58
-2.47
-0.68
0.82
2.18
3.54
4.90
6.10
6.79
6.63
5.43
3.27
0.51
-2.36
-4.91
-7.00
-8.85
-10.89
-13.49
-16.76
-20.38
-23.71
-26.05
-26.89
-26.17
-24.20
-21.54
-18.75
-16.16
-13.86
-11.79
-9.97
-8.62
-8.14
-8.88
-10.93
-13.85
-16.80
-18.80
-19.01
-17.06
-13.04
-7.37
-0.57
6.89
14.55
21.83
28.05
32.60
35.16
36.05
36.12
36.39
37.56
39.59
41.70
42.84
42.26
39.90
36.36
32.53
28.98
25.63
21.85
16.86
10.28
2.46
-5.57
-12.50
-17.26
-19.49
-19.65
-18.79
-18.15
-18.65
-20.61
-23.76
-27.51
-31.30
-34.77
-37.60
-39.34
-39.26
-36.59
-31.01
-23.12
-14.44
-7.06
-2.65
-1.81
-3.72
-6.60
-8.39
-7.58
-3.57
3.28
12.02
21.36
29.97
36.62
40.43
40.99
38.57
33.98
28.37
22.81
17.94
13.87
10.27
6.64
2.59
-2.05
-7.18
-12.57
-18.02
-23.44
-28.78
-33.93
-38.68
-42.76
-46.03
-48.65
-50.95
-53.14
-54.90
-55.12
-52.17
-44.61
-31.92
-15.05
3.90
22.48
38.89
52.59
64.03
73.93
82.38
88.60
91.33
89.80
84.38
76.66
68.81
62.51
58.19
54.96
51.19
45.52
37.50
27.78
17.73
8.67
1.44
-3.84
-7.49
-9.96
-11.44
-11.83
-10.95
-8.75
-5.56
-2.06
0.90
2.65
2.86
1.69
-0.35
-2.60
-4.53
-5.92
-6.89
-7.79
-9.00
-10.73
-12.95
-15.37
-17.60
-19.31
-20.33
-20.69
-20.58
-20.17
-19.60
-18.86
-17.91
-16.70
-15.26
-13.73
-12.27
-11.04
-10.07
-9.32
-8.69
-8.11
-7.60
-7.27
-7.20
-7.37
-7.60
-7.55
-6.86
-5.35
-3.16
-0.75
1.22
2.18
1.92
0.67
-0.95
-2.21
-2.66
-2.26
-1.42
-0.82
-1.09
-2.66
-5.62
-9.72
-14.39
-18.87
-22.30
-23.93
-23.32
-20.55
-16.27
-11.43
-7.09
-3.98
-2.34
-1.88
-2.02
-2.06
-1.47
0.05
2.53
5.80
9.53
13.32
16.75
19.46
21.20
21.87
21.54
20.42
18.76
16.73
14.44
11.91
9.18
6.35
3.55
0.94
-1.38
-3.42
-5.24
-6.92
-8.52
-10.08
-11.66
-13.34
-15.18
-17.18
-19.18
-20.84
-21.77
-21.60
-20.17
-17.59
-14.22
-10.55
-7.11
-4.28
-2.31
-1.20
-0.73
-0.53
-0.15
0.82
2.59
5.12
8.16
11.30
14.14
16.39
17.87
18.56
18.50
17.73
16.34
14.39
11.97
9.22
6.25
3.21
0.23
-2.52
-4.90
-6.78
-8.05
-8.65
-8.51
-7.58
-5.78
-3.09
0.45
4.65
9.20
13.71
17.79
21.12
23.54
24.99
25.50
25.13
23.89
21.71
18.57
14.49
9.66
4.48
-0.55
-4.92
-8.28
-10.51
-11.72
-12.14
-12.02
-11.51
-10.72
-9.77
-8.79
-7.95
-7.43
-7.30
-7.54
-8.03
-8.61
-9.14
-9.51
-9.70
-9.68
-9.48
-9.14
-8.73
-8.33
-8.01
-7.77
-7.60
-7.42
-7.21
-7.05
-7.06
-7.38
-8.08
-9.06
-10.09
-10.83
-10.92
-10.18
-8.66
-6.69
-4.79
-3.47
-2.99
-3.27
-3.93
-4.45
-4.43
-3.76
-2.64
-1.43
-0.46
0.11
0.34
0.44
0.64
1.04
1.43
1.28
-0.11
-3.36
-8.69
-15.70
-23.44
-30.73
-36.58
-40.56
-42.86
-44.15
-45.22
-46.69
-48.91
-51.94
-55.60
-59.34
-62.22
-62.94
-60.23
-53.35
-42.47
-28.69
-13.67
0.96
14.04
25.08
34.15
41.70
48.50
55.66
64.37
75.50
89.01
103.69
117.31
127.46
132.44
131.85
126.55
118.04
107.80
96.79
85.36
73.45
60.79
47.04
31.79
14.68
-4.37
-24.86
-45.53
-64.45
-79.36
-88.27
-89.94
-84.28
-72.47
-56.73
-39.86
-24.60
-12.97
-5.80
-2.60
-1.89
-1.83
-0.98
1.17
4.16
6.90
8.33
7.95
5.97
3.13
0.21
-2.38
-4.79
-7.50
-11.06
-15.70
-21.31
-27.47
-33.69
-39.62
-45.08
-49.99
-54.20
-57.43
-59.23
-59.08
-56.60
-51.78
-45.13
-37.63
-30.46
-24.66
-20.73
-18.55
-17.47
-16.66
-15.40
-13.35
-10.49
-7.07
-3.40
0.22
3.51
6.20
8.04
8.92
8.96
8.50
7.95
7.59
7.49
7.43
7.12
6.36
5.19
3.81
2.47
1.30
0.22
-0.88
-1.92
-2.55
-2.12
-0.10
3.67
8.76
14.18
18.78
21.64
22.31
20.94
18.02
14.18
10.07
6.30
3.42
1.85
1.63
2.18
2.40
1.00
-2.76
-8.47
-14.41
-17.94
-16.51
-8.75
4.82
21.91
39.14
53.24
62.13
65.39
64.07
60.04
55.10
50.45
46.47
43.12
40.30
38.20
37.19
37.52
39.00
40.94
42.42
42.71
41.65
39.59
37.23
35.18
33.73
32.81
32.08
31.13
29.68
27.66
25.31
23.09
21.60
21.32
22.34
24.27
26.33
27.72
27.88
26.76
24.72
22.37
20.24
18.47
16.73
14.25
10.05
3.30
-6.31
-18.30
-31.40
-43.84
-53.89
-60.41
-63.24
-63.03
-61.19
-59.45
-59.42
-62.07
-67.45
-74.50
-81.42
-86.14
-86.87
-82.96
-75.26
-65.76
-56.85
-50.58
-48.09
-49.38
-53.29
-57.24
-58.55
-55.37
-47.23
-34.94
-20.01
-4.00
12.11
28.03
44.70
62.45
80.14
95.23
104.91
107.52
103.41
94.91
85.52
79.68
79.95
85.93
94.77
102.96
108.18
110.10
109.89
102.36
85.43
60.79
32.95
5.80
-18.66
-39.31
-54.94
-64.56
-67.98
-65.31
-58.44
-50.76
-45.89
-45.68
-49.36
-54.14
-56.92
-55.87
-50.38
-41.94
-32.60
-24.30
-18.09
-13.99
-11.74
-11.36
-13.12
-16.59
-20.59
-23.77
-25.28
-24.91
-22.97
-20.04
-16.64
-13.04
-9.10
-4.74
-0.22
4.28
8.40
11.96
14.86
16.92
17.77
16.94
14.23
10.01
5.41
1.93
0.98
3.17
8.04
14.16
19.55
22.80
23.56
22.64
21.41
21.11
22.18
24.39
26.37
25.77
20.58
10.20
-4.12
-19.77
-33.77
-44.12
-50.64
-54.45
-57.51
-60.87
-64.05
-65.63
-64.71
-61.76
-58.95
-59.12
-59.81
-57.88
-50.99
-39.66
-26.80
-16.08
-9.92
-9.10
-12.99
-19.82
-28.55
-38.88
-50.50
-61.53
-67.88
-65.44
-49.07
-17.70
24.93
70.71
110.30
136.48
146.27
137.61
116.23
90.37
66.45
47.91
35.26
27.65
24.03
23.61
25.74
30.37
36.69
42.96
47.68
49.93
49.74
47.95
45.76
44.35
44.87
47.40
51.14
55.18
58.98
62.43
65.94
69.63
73.30
76.69
79.13
79.98
79.33
78.24
78.52
81.95
89.30
99.66
110.42
117.62
117.28
106.83
85.81
55.83
19.66
-19.91
-60.87
-102.35
-144.67
-188.90
-235.93
-285.45
-334.92
-379.46
-412.93
-430.02
-428.46
-410.14
-380.31
-345.35
-310.11
-276.47
-243.73
-210.32
-175.54
-140.16
-105.66
-72.81
-40.81
-7.75
27.85
65.44
101.95
132.76
153.74
163.31
163.36
158.61
154.66
155.83
163.67
176.85
192.17
206.03
215.88
220.70
220.85
217.44
211.76
204.90
197.72
190.87
184.70
178.99
172.56
163.01
147.03
121.26
83.70
34.92
-21.30
-78.52
-129.44
-167.87
-190.59
-197.84
-192.61
-179.06
-161.01
-140.99
-120.28
-99.34
-78.39
-57.67
-37.40
-17.77
1.07
18.76
34.66
47.86
57.42
62.78
63.92
61.43
56.32
49.86
43.21
37.11
31.61
26.10
19.56
10.98
-0.17
-13.58
-28.14
-41.98
-52.86
-58.57
-57.52
-49.20
-34.47
-15.51
4.69
22.93
36.48
43.59
43.57
36.69
24.06
7.37
-11.33
-30.01
-47.11
-61.77
-73.87
-83.69
-91.66
-98.06
-103.10
-106.98
-110.08
-112.97
-116.25
-120.45
-125.87
-132.66
-140.89
-150.65
-161.91
-174.29
-186.86
-198.22
-206.86
-211.51
-211.24
-205.44
-193.63
-175.34
-150.26
-118.62
-81.20
-39.29
5.68
52.38
99.37
144.83
186.35
221.12
246.59
261.27
265.19
259.86
247.71
231.47
213.84
197.34
184.21
176.21
174.13
177.52
184.70
193.36
201.40
207.66
212.11
215.43
218.28
220.64
221.64
220.03
214.95
206.63
196.60
187.22
180.84
178.87
181.21
186.17
190.81
191.66
185.58
170.54
146.17
113.71
75.43
33.83
-9.18
-52.83
-97.38
-143.83
-193.22
-245.90
-300.84
-355.10
-403.97
-441.72
-463.00
-464.49
-445.97
-410.56
-363.70
-311.58
-259.68
-212.01
-171.19
-138.82
-115.91
-102.74
-98.66
-101.85
-109.61
-118.97
-127.33
-133.03
-135.23
-133.38
-126.70
-113.72
-92.39
-60.94
-18.97
31.63
86.48
139.57
184.97
218.57
239.36
249.31
252.18
251.61
249.63
246.22
240.05
230.09
216.98
203.59
194.12
192.41
200.01
215.11
232.88
247.13
252.51
246.40
229.62
205.50
178.02
149.92
121.55
91.15
56.19
15.00
-31.97
-82.03
-131.09
-174.73
-209.28
-232.60
-244.45
-246.89
-244.62
-244.69
-254.88
-280.95
-323.55
-376.63
-428.64
-466.39
-480.05
-466.50
-429.79
-378.27
-320.50
-261.99
-204.43
-147.00
-88.48
-28.75
30.81
87.93
140.09
184.94
220.51
245.43
259.34
263.25
259.19
249.77
237.39
223.94
210.81
199.09
189.59
182.48
176.88
170.79
161.78
148.06
129.50
107.84
85.97
66.74
51.55
39.87
29.58
18.23
4.34
-11.63
-27.41
-39.81
-46.04
-44.97
-37.66
-27.08
-17.10
-11.34
-12.00
-19.05
-30.08
-40.71
-45.93
-41.72
-26.87
-3.99
20.82
39.82
46.45
37.72
15.45
-14.34
-43.41
-63.92
-70.61
-62.12
-40.98
-12.64
16.07
38.90
51.67
53.16
44.97
30.48
13.54
-2.62
-15.80
-24.85
-29.23
-29.15
-25.69
-21.00
-18.08
-19.92
-28.66
-44.90
-67.55
-94.05
-120.99
-144.43
-160.22
-164.40
-153.71
-126.48
-83.41
-27.98
33.88
94.94
148.28
188.94
214.91
227.15
228.81
223.87
215.59
205.58
193.46
177.08
153.31
119.06
72.52
14.34
-51.42
-117.39
-174.19
-212.97
-228.08
-218.86
-189.70
-148.27
-102.84
-59.99
-23.64
4.68
24.77
37.00
42.13
41.61
37.78
33.39
30.75
30.77
32.64
34.37
33.92
30.33
24.07
16.55
9.10
2.10
-5.19
-13.98
-25.13
-38.57
-53.49
-68.86
-83.73
-97.14
-107.66
-113.18
-111.46
-101.24
-83.26
-60.58
-37.71
-19.05
-7.51
-3.77
-6.58
-13.53
-21.87
-28.98
-32.61
-31.00
-23.22
-9.52
8.47
28.11
46.42
60.91
70.21
74.27
73.94
70.54
65.32
59.30
53.29
47.96
43.82
41.07
39.39
38.05
36.27
33.77
30.98
28.90
28.55
30.32
33.67
37.32
39.80
40.05
37.77
33.46
28.10
22.79
18.44
15.50
13.94
13.33
12.92
11.94
9.74
6.04
1.03
-4.65
-9.97
-13.69
-14.61
-11.97
-5.81
2.84
11.98
19.25
22.65
21.32
15.88
8.25
1.00
-3.58
-4.16
-0.71
5.71
13.46
20.90
26.86
30.69
32.25
31.61
28.95
24.39
18.18
10.72
2.66
-5.18
-12.02
-17.32
-20.89
-22.83
-23.34
-22.56
-20.53
-17.27
-12.96
-8.04
-3.15
1.02
3.89
5.18
4.95
3.56
1.60
-0.22
-1.17
-0.75
1.09
3.87
6.72
8.75
9.45
8.91
7.81
6.98
7.06
8.21
10.12
12.28
14.18
15.51
16.10
15.84
14.61
12.31
9.00
4.93
0.56
-3.61
-7.15
-9.81
-11.58
-12.63
-13.20
-13.56
-13.88
-14.25
-14.67
-15.14
-15.69
-16.37
-17.25
-18.36
-19.61
-20.87
-22.02
-22.99
-23.77
-24.32
-24.55
-24.25
-23.22
-21.41
-19.00
-16.40
-14.07
-12.28
-10.98
-9.87
-8.54
-6.75
-4.58
-2.41
-0.78
-0.16
-0.79
-2.59
-5.27
-8.40
-11.52
-14.20
-16.13
-17.10
-17.12
-16.42
-15.37
-14.34
-13.54
-12.91
-12.16
-10.95
-9.13
-6.91
-4.85
-3.69
-3.99
-5.80
-8.44
-10.63
-10.79
-7.67
-0.81
9.20
20.86
32.23
41.49
47.48
49.89
49.21
46.36
42.35
38.03
33.90
30.22
27.02
24.24
21.79
19.57
17.46
15.33
13.04
10.52
7.84
5.21
2.94
1.26
0.22
-0.36
-0.83
-1.49
-2.43
-3.52
-4.44
-4.99
-5.19
-5.39
-6.08
-7.64
-10.10
-13.11
-16.06
-18.29
-19.38
-19.27
-18.22
-16.65
-14.96
-13.31
-11.69
-9.91
-7.86
-5.61
-3.40
-1.52
-0.23
0.38
0.36
-0.19
-1.25
-2.82
-4.92
-7.43
-10.03
-12.32
-13.95
-14.82
-15.09
-15.13
-15.32
-15.90
-16.84
-17.86
-18.55
-18.51
-17.50
-15.52
-12.91
-10.19
-7.99
-6.76
-6.65
-7.41
-8.47
-9.12
-8.84
-7.37
-4.83
-1.59
1.90
5.23
8.08
10.24
11.60
12.19
12.14
11.68
11.11
10.66
10.42
10.32
10.20
9.84
9.07
7.86
6.27
4.52
2.91
1.76
1.26
1.49
2.26
3.26
4.09
4.42
4.13
3.27
2.05
0.70
-0.52
-1.40
-1.73
-1.36
-0.27
1.36
3.14
4.61
5.41
5.49
5.11
4.73
4.72
5.11
5.54
5.42
4.23
1.86
-1.34
-4.65
-7.33
-8.84
-9.05
-8.16
-6.52
-4.46
-2.23
0.02
2.18
4.10
5.62
6.62
7.05
6.94
6.38
5.48
4.34
3.04
1.63
0.08
-1.63
-3.53
-5.58
-7.65
-9.47
-10.75
-11.20
-10.68
-9.32
-7.53
-5.89
-4.98
-5.08
-6.07
-7.42
-8.44
-8.55
-7.55
-5.67
-3.37
-1.11
0.86
2.53
4.04
5.48
6.75
7.65
8.03
7.90
7.52
7.32
7.66
8.73
10.36
12.15
13.60
14.36
14.34
13.74
12.85
11.87
10.85
9.62
8.00
5.92
3.50
0.95
-1.49
-3.75
-5.84
-7.86
-9.86
-11.77
-13.48
-14.85
-15.82
-16.39
-16.57
-16.35
-15.71
-14.65
-13.25
-11.63
-9.89
-8.04
-6.00
-3.70
-1.17
1.43
3.81
5.72
7.05
7.88
8.39
8.80
9.25
9.78
10.40
11.08
11.82
12.56
13.18
13.48
13.30
12.61
11.55
10.35
9.28
8.53
8.15
8.08
8.20
8.31
8.24
7.75
6.67
4.91
2.52
-0.26
-3.10
-5.72
-7.97
-9.94
-11.78
-13.62
-15.41
-16.94
-17.92
-18.17
-17.64
-16.45
-14.76
-12.71
-10.38
-7.88
-5.38
-3.14
-1.37
-0.16
0.58
1.06
1.49
1.98
2.52
3.02
3.41
3.71
4.02
4.43
4.97
5.56
5.97
5.92
5.15
3.50
1.00
-2.16
-5.65
-9.07
-12.09
-14.49
-16.26
-17.55
-18.56
-19.49
-20.35
-21.09
-21.53
-21.61
-21.40
-21.05
-20.71
-20.36
-19.81
-18.75
-16.98
-14.47
-11.45
-8.28
-5.27
-2.58
-0.22
1.86
3.70
5.18
6.13
6.42
6.08
5.38
4.68
4.28
4.25
4.37
4.29
3.70
2.58
1.10
-0.45
-1.86
-3.08
-4.17
-5.15
-5.94
-6.39
-6.45
-6.23
-5.92
-5.74
-5.77
-5.96
-6.18
-6.30
-6.25
-6.01
-5.62
-5.20
-4.92
-4.94
-5.31
-5.90
-6.37
-6.38
-5.80
-4.85
-4.03
-3.87
-4.64
-6.18
-7.99
-9.51
-10.35
-10.45
-10.02
-9.34
-8.55
-7.62
-6.40
-4.69
-2.40
0.50
3.94
7.80
11.86
15.79
19.21
21.78
23.31
23.75
23.24
21.97
20.20
18.19
16.27
14.75
13.83
13.56
13.72
13.91
13.73
12.85
11.18
8.81
5.95
3.01
0.46
-1.16
-1.48
-0.38
1.83
4.59
7.33
9.76
11.93
14.21
16.96
20.29
23.95
27.44
30.27
32.19
33.25
33.75
34.04
34.24
34.31
34.05
33.25
31.90
30.10
28.00
25.62
22.80
19.20
14.48
8.47
1.37
-6.30
-13.77
-20.14
-24.58
-26.45
-25.54
-22.13
-17.01
-11.39
-6.56
-3.53
-2.75
-3.93
-6.22
-8.54
-10.04
-10.36
-9.74
-8.80
-8.22
-8.45
-9.55
-11.38
-13.71
-16.43
-19.60
-23.33
-27.63
-32.26
-36.79
-40.72
-43.58
-45.13
-45.31
-44.20
-41.99
-38.88
-35.11
-30.93
-26.65
-22.60
-19.11
-16.39
-14.49
-13.30
-12.57
-12.16
-12.07
-12.47
-13.59
-15.56
-18.30
-21.68
-25.64
-30.30
-35.82
-42.18
-48.89
-54.96
-59.28
-61.13
-60.59
-58.66
-56.76
-56.20
-57.58
-60.74
-64.91
-69.02
-71.89
-72.23
-68.75
-60.45
-47.10
-29.70
-10.34
8.30
23.98
35.56
43.32
48.53
52.75
57.18
62.32
68.13
74.24
80.28
85.99
91.24
95.96
100.06
103.38
105.61
106.41
105.50
102.87
98.85
94.04
89.15
84.80
81.41
79.14
78.01
77.80
78.07
78.15
77.19
74.33
68.92
60.71
49.91
37.06
22.85
7.86
-7.51
-22.94
-37.98
-51.97
-63.98
-73.06
-78.47
-79.96
-77.83
-72.82
-65.87
-57.94
-49.84
-42.20
-35.51
-30.11
-26.15
-23.51
-21.86
-20.78
-19.99
-19.47
-19.50
-20.42
-22.40
-25.20
-28.30
-31.08
-33.16
-34.52
-35.36
-35.86
-35.96
-35.32
-33.56
-30.50
-26.35
-21.65
-17.04
-12.99
-9.70
-7.14
-5.13
-3.43
-1.65
0.81
4.65
10.43
18.10
26.76
34.81
40.45
42.37
40.33
35.16
28.31
21.17
14.53
8.41
2.34
-4.14
-11.12
-18.19
-24.61
-29.63
-32.85
-34.36
-34.93
-35.85
-38.64
-44.65
-54.63
-68.46
-85.04
-102.31
-117.44
-127.20
-128.54
-119.40
-99.41
-70.26
-35.43
0.66
33.86
61.19
81.30
94.22
100.82
102.21
99.52
93.96
87.02
80.42
75.80
74.24
75.87
79.81
84.37
87.64
88.06
84.93
78.51
69.85
60.43
51.65
44.66
40.18
38.55
39.79
43.63
49.53
56.69
63.94
69.80
72.58
70.80
63.65
51.51
36.03
19.81
5.64
-4.31
-9.06
-8.87
-4.78
1.93
10.12
18.84
27.23
34.46
39.82
42.90
43.73
42.58
39.77
35.44
29.46
21.74
12.45
2.22
-7.97
-17.11
-24.52
-30.03
-33.98
-36.89
-39.25
-41.32
-43.19
-44.92
-46.71
-48.90
-51.81
-55.67
-60.45
-65.92
-71.69
-77.20
-81.84
-84.91
-85.83
-84.31
-80.50
-74.95
-68.45
-61.72
-55.23
-49.14
-43.52
-38.48
-34.23
-30.99
-28.78
-27.41
-26.45
-25.49
-24.27
-22.79
-21.24
-19.79
-18.49
-17.15
-15.44
-13.05
-9.85
-5.97
-1.78
2.33
6.03
9.20
11.86
14.05
15.72
16.73
16.96
16.40
15.25
13.81
12.37
11.13
10.27
9.98
10.58
12.37
15.41
19.37
23.51
26.98
29.15
29.92
29.73
29.30
29.27
29.83
30.74
31.43
31.34
30.12
27.66
24.11
19.69
14.73
9.58
4.65
0.31
-3.15
-5.67
-7.42
-8.80
-10.25
-12.10
-14.40
-16.92
-19.27
-21.05
-22.00
-22.06
-21.38
-20.15
-18.58
-16.89
-15.25
-13.81
-12.59
-11.45
-10.08
-8.10
-5.25
-1.50
2.88
7.47
11.83
15.71
19.00
21.70
23.80
25.30
26.26
26.87
27.53
28.59
30.26
32.39
34.50
36.03
36.66
36.59
36.47
37.17
39.26
42.60
46.35
49.30
50.44
49.55
47.32
45.08
44.22
45.68
49.71
55.85
62.90
68.75
70.31
64.00
47.09
19.24
-16.41
-53.79
-85.86
-107.29
-116.33
-114.95
-107.22
-97.04
-86.41
-75.37
-63.09
-49.41
-35.46
-23.28
-14.68
-10.21
-8.95
-9.07
-8.83
-7.35
-4.86
-2.37
-0.99
-1.28
-2.98
-5.17
-6.83
-7.36
-6.91
-6.22
-6.10
-7.05
-8.91
-11.00
-12.54
-13.17
-13.15
-13.43
-15.24
-19.56
-26.55
-35.27
-43.76
-49.76
-51.49
-48.39
-41.38
-32.42
-23.62
-16.39
-11.02
-6.94
-3.38
0.05
3.10
5.16
5.78
4.96
3.18
1.09
-0.83
-2.50
-4.06
-5.65
-7.19
-8.33
-8.73
-8.37
-7.87
-8.40
-11.38
-17.80
-27.80
-40.47
-54.04
-66.63
-76.83
-84.24
-89.53
-94.37
-100.95
-111.45
-127.07
-147.14
-168.56
-186.04
-193.32
-185.06
-158.76
-115.78
-61.11
-1.95
54.36
102.07
137.98
161.42
173.48
176.20
171.82
162.41
149.73
135.26
120.20
105.49
91.85
79.68
69.18
60.30
52.87
46.56
40.93
35.56
30.17
24.76
19.53
14.73
10.51
6.83
3.52
0.56
-1.81
-3.24
-3.53
-2.97
-2.20
-1.93
-2.36
-3.02
-2.90
-1.04
2.87
8.34
14.30
19.71
24.10
27.63
30.86
34.23
37.73
41.01
43.55
45.08
45.65
45.56
45.13
44.48
43.57
42.26
40.53
38.58
36.75
35.33
34.37
33.51
32.08
29.24
24.27
16.87
7.24
-3.92
-15.48
-26.23
-35.16
-41.70
-45.90
-48.31
-49.74
-50.85
-51.91
-52.74
-52.89
-51.98
-49.91
-46.88
-43.27
-39.41
-35.53
-31.73
-28.16
-25.03
-22.69
-21.52
-21.86
-23.94
-27.77
-33.09
-39.31
-45.47
-50.32
-52.43
-50.51
-43.59
-31.35
-14.15
6.85
29.79
52.44
72.56
88.35
98.92
104.37
105.71
104.39
101.79
98.72
95.29
91.01
85.15
77.22
67.37
56.40
45.63
36.33
29.39
24.96
22.53
21.11
19.64
17.33
13.67
8.49
1.85
-6.00
-14.65
-23.69
-32.85
-42.00
-51.17
-60.23
-68.71
-75.79
-80.46
-82.00
-80.39
-76.33
-71.00
-65.60
-60.95
-57.29
-54.43
-51.84
-48.80
-44.42
-37.83
-28.42
-16.32
-2.64
10.60
20.84
25.75
24.05
16.02
3.53
-10.43
-22.67
-30.69
-33.26
-30.60
-24.12
-15.81
-7.65
-1.11
3.10
5.01
5.25
4.80
4.77
6.16
9.71
15.71
23.94
33.61
43.52
52.39
59.13
63.14
64.43
63.61
61.71
59.89
58.98
59.06
59.37
58.55
55.20
48.58
39.06
27.96
17.02
7.50
-0.29
-7.01
-13.82
-21.77
-31.41
-42.65
-54.84
-66.93
-77.61
-85.56
-89.85
-90.35
-87.76
-83.38
-78.51
-74.05
-70.32
-67.32
-65.01
-63.50
-62.78
-62.45
-61.46
-58.38
-51.90
-41.36
-27.12
-10.49
6.74
22.76
36.24
46.57
53.77
58.17
60.14
59.84
57.34
52.78
46.63
39.70
32.95
27.08
22.32
18.43
14.94
11.48
7.94
4.42
0.98
-2.48
-6.12
-9.88
-13.25
-15.29
-14.96
-11.60
-5.37
2.70
11.07
18.24
23.25
26.00
27.06
27.29
27.38
27.50
27.40
26.66
25.01
22.55
19.72
17.04
14.93
13.54
12.79
12.55
12.76
13.45
14.59
15.98
17.15
17.46
16.38
13.71
9.72
5.07
0.59
-3.02
-5.36
-6.50
-6.88
-7.14
-7.94
-9.70
-12.41
-15.54
-18.09
-18.87
-16.93
-11.93
-4.32
4.77
13.99
22.18
28.71
33.48
36.76
38.86
40.12
40.78
41.06
41.05
40.66
39.58
37.31
33.53
28.29
22.19
16.24
11.51
8.80
8.31
9.64
11.92
14.18
15.59
15.69
14.46
12.17
9.24
6.01
2.62
-0.97
-4.96
-9.59
-15.17
-21.97
-30.05
-38.93
-47.45
-53.88
-56.53
-54.42
-47.81
-38.20
-27.73
-18.27
-10.76
-5.12
-0.63
3.37
7.03
10.00
11.79
12.24
11.65
10.71
10.12
10.23
10.98
11.97
12.71
12.85
12.29
11.05
9.12
6.33
2.35
-3.19
-10.49
-19.41
-29.33
-39.27
-48.09
-54.76
-58.73
-60.11
-59.72
-58.95
-59.32
-61.73
-65.89
-70.07
-71.57
-67.82
-57.58
-41.73
-23.10
-5.43
8.21
16.63
20.72
22.80
25.35
29.87
36.51
44.66
53.62
62.82
71.45
77.89
79.94
75.94
66.45
55.11
47.84
50.17
64.44
88.30
115.71
139.83
156.05
163.33
163.41
158.56
149.70
136.29
117.69
94.63
69.65
45.76
24.12
2.81
-22.87
-57.74
-103.49
-156.81
-209.96
-253.53
-280.11
-286.86
-275.94
-252.79
-223.46
-192.51
-162.37
-133.92
-107.46
-83.42
-62.17
-43.47
-26.13
-8.24
12.11
35.83
62.44
90.19
116.60
139.46
157.56
170.88
180.23
186.67
190.73
192.11
189.96
183.22
171.28
154.12
132.20
106.07
76.11
42.68
6.42
-31.59
-69.85
-106.66
-140.46
-169.86
-193.50
-210.05
-218.38
-218.09
-210.03
-196.42
-180.32
-164.68
-151.41
-140.88
-132.21
-123.93
-114.66
-103.53
-90.21
-74.75
-57.52
-39.23
-20.82
-3.38
12.05
24.77
34.48
41.35
45.81
48.39
49.67
50.19
50.45
50.95
52.16
54.42
57.85
62.31
67.39
72.55
77.36
81.55
85.04
87.76
89.47
89.78
88.18
84.20
77.62
68.55
57.41
44.94
32.06
19.78
9.00
0.33
-6.13
-10.81
-14.55
-18.18
-22.28
-26.98
-32.09
-37.24
-42.14
-46.58
-50.31
-53.06
-54.56
-54.71
-53.74
-52.41
-51.78
-52.89
-56.36
-62.09
-69.30
-76.86
-83.68
-89.19
-93.36
-96.64
-99.63
-102.94
-106.96
-111.61
-115.96
-118.08
-115.31
-105.11
-86.12
-59.01
-26.43
7.85
40.34
69.05
93.82
115.75
136.18
155.75
174.05
189.98
202.46
211.03
216.07
218.60
219.91
221.12
222.97
225.80
229.47
233.25
235.67
234.31
226.30
209.11
181.79
145.79
104.98
64.73
30.40
5.65
-8.68
-14.74
-17.06
-21.13
-31.72
-51.32
-79.47
-113.12
-147.87
-179.59
-205.63
-225.06
-238.12
-245.44
-247.45
-244.39
-236.67
-225.07
-210.70
-194.55
-177.32
-159.46
-141.36
-123.64
-106.95
-91.67
-77.55
-63.75
-49.32
-33.80
-17.48
-1.38
13.24
25.55
35.46
43.59
50.84
57.81
64.50
70.35
74.58
76.71
76.80
75.39
73.13
70.39
67.13
63.03
57.89
51.90
45.70
40.13
35.73
32.50
29.80
26.61
22.07
16.04
9.39
3.85
1.42
3.50
10.19
20.08
30.86
40.17
46.72
50.66
53.34
56.42
60.91
66.73
72.75
77.41
79.35
77.74
72.24
62.76
49.37
32.59
13.65
-5.39
-22.06
-34.39
-41.69
-44.90
-45.96
-46.77
-48.25
-50.16
-51.71
-52.39
-52.52
-52.98
-54.45
-56.68
-58.33
-57.57
-53.00
-44.26
-31.95
-17.02
-0.28
17.74
36.37
54.31
69.57
80.03
84.35
82.57
76.16
67.41
58.59
51.21
45.79
42.04
39.37
37.19
35.12
33.11
31.26
29.64
28.09
25.74
20.91
11.50
-4.00
-25.55
-51.03
-76.81
-99.16
-115.77
-126.60
-133.55
-139.12
-144.94
-150.99
-155.82
-157.68
-155.56
-149.75
-141.60
-132.66
-123.95
-115.80
-108.07
-100.51
-92.78
-84.16
-73.37
-58.83
-39.23
-14.37
14.46
44.89
74.33
100.90
123.81
142.96
158.22
168.72
172.69
167.94
152.59
125.75
88.08
42.00
-8.36
-57.85
-101.38
-135.38
-158.76
-172.98
-181.20
-186.79
-191.98
-197.40
-202.31
-205.30
-205.06
-200.69
-191.74
-178.11
-159.81
-136.91
-109.32
-76.61
-38.02
7.03
58.17
113.23
168.20
217.79
256.86
281.83
291.67
287.86
273.66
252.85
228.73
203.72
179.43
157.00
137.30
120.76
107.03
94.86
82.40
68.02
51.02
32.06
12.88
-4.37
-17.97
-27.20
-32.36
-34.41
-34.58
-33.99
-33.46
-33.52
-34.43
-36.19
-38.64
-41.66
-45.23
-49.51
-54.77
-61.20
-68.68
-76.86
-85.28
-93.72
-102.40
-111.71
-121.76
-131.56
-138.53
-138.73
-127.93
-103.30
-64.89
-16.15
36.95
87.68
130.52
162.31
182.14
190.57
188.60
177.26
157.78
132.04
102.86
73.72
48.21
29.31
19.16
18.85
28.31
46.18
69.65
94.67
116.81
132.23
138.80
136.50
127.01
112.76
95.81
77.23
57.10
34.84
9.86
-17.96
-47.77
-77.50
-103.98
-123.42
-132.51
-129.59
-115.35
-92.59
-65.10
-36.15
-7.59
20.27
47.77
74.71
99.76
120.85
135.96
144.06
145.25
140.21
129.44
112.87
90.32
62.32
30.75
-1.24
-30.07
-52.92
-68.66
-77.95
-82.64
-84.98
-86.78
-89.07
-92.07
-95.35
-98.05
-99.10
-97.42
-92.40
-84.11
-73.40
-61.69
-50.57
-41.36
-34.82
-31.16
-29.96
-30.43
-31.52
-32.21
-31.68
-29.47
-25.51
-20.11
-13.87
-7.58
-2.10
1.77
3.43
2.46
-1.38
-8.30
-18.58
-32.39
-49.36
-68.25
-86.72
-101.85
-110.91
-112.28
-105.92
-93.15
-76.19
-57.32
-38.61
-21.71
-7.93
1.98
8.09
11.41
13.68
16.44
20.11
23.45
24.04
19.37
8.10
-9.28
-30.81
-53.89
-76.41
-97.23
-116.03
-132.72
-146.97
-158.06
-165.16
-167.54
-164.50
-155.26
-138.88
-114.75
-83.43
-47.04
-9.21
25.90
54.97
76.57
91.32
101.39
109.30
116.67
123.72
129.38
132.05
130.58
125.07
116.93
108.34
101.26
96.53
93.69
91.44
88.61
84.97
81.30
78.70
77.71
77.68
77.01
74.07
68.11
59.79
51.06
44.35
41.69
44.10
51.30
61.88
73.78
84.76
92.93
97.07
96.86
92.88
86.40
78.87
71.49
64.84
58.88
53.25
47.63
41.93
36.24
30.51
24.44
17.55
9.58
0.78
-8.02
-15.73
-21.48
-24.91
-26.18
-25.82
-24.60
-23.59
-24.32
-28.44
-37.40
-51.70
-70.45
-91.22
-110.43
-124.04
-128.43
-121.29
-102.28
-73.35
-38.49
-2.80
28.82
52.67
66.80
70.80
65.23
51.25
30.51
5.35
-21.17
-45.78
-65.81
-79.94
-88.37
-92.42
-93.68
-93.26
-91.52
-88.11
-82.46
-74.32
-64.07
-52.77
-41.89
-32.60
-25.06
-18.05
-9.25
3.70
22.12
45.44
71.22
96.01
116.52
130.51
137.24
137.22
131.73
122.27
110.25
96.92
83.46
71.00
60.57
52.81
47.73
44.54
41.86
38.23
32.76
25.54
17.68
10.69
5.71
2.85
0.94
-2.16
-8.94
-21.37
-40.16
-64.38
-91.44
-117.75
-139.68
-154.59
-161.44
-160.87
-154.63
-144.91
-133.72
-122.66
-113.01
-105.77
-101.60
-100.56
-101.94
-104.34
-106.06
-105.58
-101.95
-94.91
-84.72
-71.91
-57.09
-40.75
-23.44
-5.80
11.32
26.94
39.98
49.57
55.14
56.56
54.15
48.67
41.36
33.86
28.00
25.37
26.80
32.04
39.84
48.48
56.46
63.04
68.29
72.62
76.20
78.67
79.27
77.38
73.02
66.93
60.25
53.94
48.31
43.05
37.59
31.60
25.30
19.46
15.01
12.65
12.45
13.86
16.00
17.96
19.18
19.54
19.24
18.60
17.88
17.17
16.41
15.52
14.41
13.05
11.52
9.91
8.34
6.91
5.60
4.34
3.02
1.57
-0.00
-1.61
-3.15
-4.55
-5.80
-6.92
-7.90
-8.68
-9.17
-9.30
-9.04
-8.48
-7.82
-7.32
-7.29
-7.91
-9.11
-10.54
-11.57
-11.51
-9.87
-6.47
-1.52
4.56
11.23
17.98
24.22
29.34
32.66
33.71
32.34
29.00
24.64
20.57
18.25
18.95
23.60
32.56
45.40
60.83
76.89
91.32
102.19
108.36
109.65
106.59
99.81
89.51
75.16
55.85
30.95
0.97
-32.15
-65.30
-95.07
-118.76
-135.15
-144.62
-148.58
-148.65
-145.75
-139.94
-130.75
-118.00
-102.55
-86.35
-71.78
-60.64
-53.16
-47.90
-42.42
-34.51
-23.27
-9.58
4.46
16.60
25.48
31.03
34.27
36.58
39.07
42.21
45.82
49.43
52.63
55.17
57.03
58.25
58.89
58.97
58.59
58.10
58.07
59.10
61.46
64.72
67.60
68.25
64.85
56.35
42.99
26.40
9.29
-5.26
-14.58
-17.11
-12.76
-2.93
9.84
22.44
31.79
35.39
31.73
20.36
1.82
-22.51
-50.57
-79.88
-107.73
-131.69
-149.90
-161.35
-165.94
-164.20
-156.88
-144.58
-127.67
-106.40
-81.33
-53.72
-25.58
0.63
22.64
39.15
50.19
57.03
61.53
65.38
69.47
73.84
77.82
80.37
80.25
76.29
67.77
54.92
39.24
23.23
9.54
-0.27
-6.30
-10.07
-13.36
-16.93
-19.88
-20.16
-15.74
-5.87
8.46
25.01
41.33
55.63
67.13
75.97
82.74
88.20
92.94
97.23
100.74
102.40
100.41
92.58
77.07
53.37
22.94
-10.71
-42.82
-68.84
-85.98
-94.00
-95.06
-92.62
-90.04
-89.43
-91.38
-95.23
-99.73
-103.60
-105.66
-105.00
-101.01
-93.66
-83.63
-72.21
-60.91
-50.85
-42.38
-35.17
-28.54
-21.92
-15.17
-8.64
-2.91
1.46
4.22
5.75
7.12
9.92
15.94
26.47
41.75
60.62
80.57
98.25
110.34
114.47
109.69
96.66
77.13
53.38
27.73
2.33
-20.82
-39.85
-53.24
-60.19
-60.96
-56.99
-50.51
-43.92
-39.01
-36.49
-35.97
-36.39
-36.53
-35.57
-33.34
-30.30
-27.23
-24.86
-23.38
-22.31
-20.74
-17.96
-13.94
-9.54
-6.07
-4.55
-5.14
-6.96
-8.66
-9.00
-7.53
-4.63
-1.17
2.00
4.45
6.16
7.34
8.22
8.89
9.39
9.73
9.97
10.14
10.26
10.37
10.56
11.00
11.93
13.45
15.49
17.73
19.76
21.24
21.92
21.73
20.62
18.59
15.76
12.51
9.46
7.28
6.42
6.87
8.11
9.43
10.24
10.38
10.12
9.95
10.22
10.92
11.74
12.31
12.45
12.33
12.28
12.59
13.24
13.96
14.37
14.23
13.46
12.21
10.62
8.75
6.55
4.04
1.38
-1.06
-2.91
-3.96
-4.36
-4.52
-4.91
-5.91
-7.62
-9.91
-12.49
-15.10
-17.48
-19.50
-21.10
-22.35
-23.38
-24.33
-25.31
-26.20
-26.74
-26.54
-25.33
-23.04
-19.93
-16.44
-12.99
-9.86
-7.07
-4.39
-1.43
2.27
7.05
13.04
20.03
27.49
34.74
41.21
46.62
51.09
54.95
58.43
61.33
63.01
62.68
59.84
54.74
48.45
42.42
37.96
35.63
35.04
35.09
34.52
32.48
28.83
24.05
18.90
14.02
9.70
5.90
2.40
-1.03
-4.59
-8.43
-12.77
-17.77
-23.48
-29.63
-35.55
-40.26
-42.75
-42.39
-39.13
-33.59
-26.85
-20.07
-14.23
-9.88
-7.18
-6.06
-6.28
-7.47
-9.12
-10.63
-11.41
-11.11
-9.75
-7.72
-5.61
-3.95
-3.04
-2.86
-3.16
-3.62
-3.98
-4.11
-3.98
-3.63
-3.11
-2.54
-2.07
-1.90
-2.25
-3.24
-4.83
-6.78
-8.77
-10.49
-11.79
-12.71
-13.49
-14.49
-16.01
-18.12
-20.53
-22.58
-23.42
-22.34
-19.12
-14.13
-8.26
-2.55
2.17
5.59
7.87
9.43
10.61
11.50
11.99
11.88
11.14
9.97
8.78
8.02
7.97
8.65
9.77
10.92
11.71
12.02
11.95
11.68
11.33
10.82
9.92
8.39
6.20
3.51
0.70
-1.88
-4.06
-5.97
-7.91
-10.25
-13.20
-16.72
-20.60
-24.52
-28.12
-30.93
-32.37
-31.80
-28.81
-23.45
-16.48
-9.16
-2.87
1.41
3.51
3.93
3.57
3.18
3.07
3.16
3.18
3.00
2.70
2.53
2.71
3.31
4.20
5.19
6.13
7.01
7.95
9.08
10.44
11.90
13.14
13.77
13.43
11.95
9.41
6.18
2.76
-0.34
-2.75
-4.35
-5.32
-6.03
-6.97
-8.56
-11.07
-14.44
-18.19
-21.53
-23.52
-23.42
-20.98
-16.62
-11.19
-5.65
-0.69
3.46
6.98
10.17
13.18
15.92
18.12
19.55
20.19
20.24
20.06
19.92
19.94
20.06
20.05
19.73
18.98
17.87
16.57
15.24
13.98
12.77
11.50
9.99
8.15
5.92
3.35
0.55
-2.33
-5.17
-7.90
-10.58
-13.33
-16.30
-19.57
-23.16
-27.01
-30.97
-34.71
-37.65
-39.06
-38.28
-35.02
-29.60
-22.93
-16.19
-10.37
-5.97
-2.89
-0.72
0.92
2.19
2.99
3.16
2.69
1.79
0.83
0.18
0.10
0.64
1.65
2.81
3.79
4.33
4.35
3.98
3.47
3.04
2.77
2.57
2.22
1.54
0.49
-0.79
-2.07
-3.14
-3.88
-4.33
-4.66
-5.09
-5.83
-7.00
-8.55
-10.18
-11.39
-11.62
-10.49
-8.03
-4.72
-1.34
1.45
3.36
4.57
5.54
6.64
7.88
8.88
9.15
8.42
6.85
4.97
3.42
2.59
2.46
2.69
2.74
2.13
0.62
-1.64
-4.13
-5.99
-6.26
-4.22
0.24
6.41
12.89
18.08
20.71
20.35
17.43
12.98
8.13
3.68
-0.06
-3.23
-6.17
-9.19
-12.39
-15.53
-18.13
-19.58
-19.48
-17.87
-15.33
-12.79
-11.13
-10.76
-11.38
-12.05
-11.55
-8.80
-3.23
4.97
14.93
25.22
34.15
40.11
41.99
39.41
32.78
23.15
11.89
0.36
-10.38
-19.71
-27.42
-33.61
-38.35
-41.44
-42.29
-40.10
-34.23
-24.55
-11.76
2.73
17.13
29.76
39.55
46.36
50.89
54.25
57.43
60.89
64.53
67.82
70.31
71.85
72.57
72.58
71.56
68.70
63.10
54.39
43.24
31.32
20.76
13.18
9.07
7.77
7.97
8.55
9.06
9.79
11.29
13.88
17.27
20.80
23.87
26.29
28.30
30.26
32.14
33.32
32.69
29.10
21.85
10.94
-2.94
-18.71
-35.26
-51.61
-67.13
-81.50
-94.77
-107.19
-119.21
-131.26
-143.53
-155.84
-167.57
-177.75
-185.40
-189.68
-190.05
-186.13
-177.66
-164.50
-146.86
-125.34
-100.92
-74.48
-46.45
-16.61
15.54
50.04
85.76
120.35
150.69
174.04
188.79
194.91
193.59
186.67
176.07
163.50
150.40
137.89
126.71
117.05
108.60
100.78
93.01
85.08
77.19
69.82
63.42
58.16
53.78
49.75
45.42
40.22
33.75
25.73
16.01
4.77
-7.23
-18.57
-27.50
-32.62
-33.54
-31.16
-27.27
-23.65
-21.21
-19.62
-17.78
-14.62
-9.85
-4.15
1.26
5.29
7.49
8.14
7.90
7.50
7.43
8.00
9.36
11.62
14.75
18.56
22.65
26.43
29.29
30.78
30.66
28.96
25.92
21.88
17.22
12.22
6.96
1.16
-5.91
-15.32
-28.19
-45.24
-66.44
-90.74
-116.23
-140.36
-160.34
-173.62
-178.40
-174.17
-161.97
-144.31
-124.58
-105.99
-90.58
-78.51
-68.36
-58.04
-46.09
-32.58
-19.17
-8.32
-2.01
-0.69
-2.97
-6.20
-7.49
-4.93
1.87
11.65
21.86
29.14
30.05
22.09
4.83
-19.06
-43.85
-62.09
-66.93
-54.52
-25.36
15.83
61.81
105.04
139.70
162.73
173.88
175.00
168.80
157.50
141.91
121.33
94.54
61.29
23.38
-15.51
-51.22
-80.87
-103.80
-121.06
-133.94
-142.57
-145.60
-141.23
-128.83
-109.96
-88.37
-69.06
-56.91
-55.68
-67.09
-90.15
-120.60
-151.21
-173.29
-179.49
-166.51
-136.45
-95.85
-52.58
-12.39
23.04
55.51
87.73
120.39
150.96
174.69
187.34
187.66
178.22
164.08
150.28
139.61
131.82
124.55
115.23
102.61
87.24
70.94
55.71
42.85
32.68
24.87
18.79
13.97
10.07
6.97
4.61
2.98
2.05
1.61
1.07
-0.43
-3.79
-9.52
-17.38
-26.36
-35.09
-42.34
-47.48
-50.52
-51.93
-52.19
-51.55
-49.91
-47.05
-42.84
-37.44
-31.31
-25.06
-19.30
-14.50
-11.02
-9.08
-8.81
-10.22
-13.12
-17.12
-21.66
-26.17
-30.15
-33.30
-35.52
-36.92
-37.77
-38.53
-39.70
-41.56
-43.79
-45.35
-44.73
-40.62
-32.68
-21.96
-10.67
-1.21
4.86
7.40
7.64
7.31
7.71
9.15
10.94
11.93
11.11
8.06
3.00
-3.34
-10.07
-16.30
-21.50
-25.58
-28.94
-32.20
-36.00
-40.74
-46.50
-53.17
-60.68
-69.06
-78.33
-88.41
-99.07
-110.13
-121.81
-134.64
-149.04
-164.52
-178.93
-188.52
-188.87
-176.24
-148.87
-107.54
-55.32
3.14
62.46
117.28
162.85
195.73
214.35
219.43
213.76
201.43
186.59
172.44
160.68
151.68
145.03
140.04
136.04
132.42
128.64
124.25
119.03
113.00
106.35
99.32
92.01
84.34
76.18
67.59
58.99
51.02
44.35
39.29
35.61
32.60
29.31
24.96
19.14
11.92
3.79
-4.49
-12.12
-18.41
-22.99
-25.96
-27.84
-29.44
-31.55
-34.59
-38.30
-41.70
-43.38
-42.00
-36.93
-28.50
-17.97
-7.00
2.95
11.10
17.42
22.28
26.05
28.77
30.17
29.92
28.00
24.80
21.02
17.42
14.48
12.29
10.57
8.84
6.67
3.79
0.27
-3.56
-7.29
-10.60
-13.45
-16.09
-18.94
-22.25
-26.02
-29.94
-33.58
-36.59
-38.85
-40.53
-41.96
-43.56
-45.71
-48.61
-52.09
-55.43
-57.40
-56.58
-51.97
-43.57
-32.52
-20.71
-10.00
-1.45
4.93
9.90
14.23
18.18
21.32
22.89
22.39
20.00
16.54
13.14
10.71
9.58
9.49
9.80
9.87
9.43
8.71
8.22
8.42
9.37
10.53
11.00
9.91
6.90
2.36
-2.78
-7.43
-10.84
-12.87
-14.01
-15.08
-16.86
-19.98
-24.75
-31.03
-38.05
-44.26
-47.59
-46.21
-39.36
-27.92
-14.23
-1.15
9.15
16.02
20.31
23.57
26.96
30.58
33.59
34.80
33.60
30.27
25.81
21.41
17.85
15.34
13.61
12.25
11.05
10.14
9.87
10.50
11.84
13.21
13.54
11.84
7.66
1.33
-6.04
-13.04
-18.44
-21.61
-22.78
-22.82
-22.91
-24.16
-27.29
-32.43
-38.93
-45.30
-49.49
-49.53
-44.28
-34.13
-20.98
-7.57
3.61
11.31
15.80
18.44
20.69
23.32
26.13
28.29
29.01
28.07
25.89
23.25
20.83
18.90
17.35
15.86
14.19
12.41
10.95
10.33
10.83
12.17
13.50
13.68
11.75
7.46
1.38
-5.30
-11.34
-15.93
-18.98
-21.04
-22.95
-25.49
-29.12
-33.96
-39.68
-45.40
-49.65
-50.69
-47.12
-38.64
-26.41
-12.77
-0.24
9.50
16.28
21.12
25.36
29.69
33.74
36.42
36.80
34.82
31.42
28.08
26.01
25.60
26.30
27.02
26.75
25.11
22.64
20.49
19.92
21.57
25.08
29.15
32.07
32.59
30.56
26.91
23.25
21.09
21.20
23.48
27.07
30.43
31.26
26.65
13.80
-8.72
-39.55
-74.10
-105.53
-127.09
-134.68
-128.25
-111.50
-89.79
-67.93
-48.64
-32.57
-19.32
-8.55
-0.47
4.44
6.14
5.36
3.59
2.39
2.83
5.03
8.00
10.21
10.34
7.86
3.47
-1.18
-4.22
-4.45
-2.02
1.62
4.32
4.27
0.73
-5.59
-13.01
-19.62
-24.17
-26.51
-27.61
-29.04
-32.23
-37.80
-45.12
-52.53
-57.88
-59.44
-56.68
-50.46
-42.72
-35.64
-30.92
-29.21
-30.15
-32.68
-35.59
-37.94
-39.38
-40.13
-40.73
-41.60
-42.52
-42.30
-38.70
-29.09
-11.34
15.17
49.04
87.00
124.46
156.23
177.21
183.34
172.62
146.11
108.49
67.23
30.67
5.31
-6.17
-5.21
4.12
17.54
32.20
47.04
61.62
74.83
84.46
88.30
85.77
79.05
72.50
70.50
75.19
85.10
95.80
101.91
99.35
86.76
65.40
38.10
7.99
-22.44
-51.60
-78.51
-102.22
-121.55
-135.03
-141.27
-139.56
-130.44
-115.88
-98.93
-82.71
-69.24
-58.79
-50.00
-40.99
-30.55
-18.94
-7.76
0.92
5.65
6.23
3.68
-0.39
-4.50
-7.86
-10.43
-12.71
-15.36
-18.93
-23.69
-29.60
-36.42
-43.72
-50.83
-56.78
-60.58
-61.51
-59.50
-55.32
-50.21
-45.19
-40.22
-33.89
-23.79
-7.65
15.37
43.91
74.61
103.24
126.05
140.85
147.19
145.96
138.59
126.54
111.11
93.49
74.97
56.83
40.01
24.77
10.51
-3.88
-19.56
-37.13
-56.39
-76.42
-96.06
-114.34
-130.73
-145.25
-158.06
-169.06
-177.59
-182.24
-181.15
-172.56
-155.55
-130.62
-99.92
-66.79
-34.99
-7.73
13.05
26.82
34.16
36.25
34.43
30.02
24.36
18.88
15.02
14.05
16.81
23.60
34.14
47.68
63.12
79.12
94.22
106.94
116.10
120.92
121.21
117.34
110.07
100.28
88.76
76.18
63.09
50.10
37.90
27.37
19.47
15.03
14.46
17.46
22.85
28.80
33.25
34.66
32.43
27.15
20.19
13.20
7.52
3.98
2.93
4.53
8.83
15.72
24.67
34.62
43.99
51.05
54.42
53.51
48.67
41.06
32.25
23.75
16.57
11.07
7.05
4.01
1.51
-0.63
-2.32
-3.39
-3.74
-3.46
-2.86
-2.22
-1.75
-1.46
-1.27
-1.08
-0.83
-0.48
0.10
1.15
2.95
5.71
9.36
13.50
17.46
20.55
22.28
22.51
21.51
19.75
17.69
15.62
13.55
11.30
8.68
5.61
2.19
-1.27
-4.36
-6.80
-8.61
-10.15
-12.11
-15.24
-20.01
-26.18
-32.75
-38.20
-40.96
-39.99
-35.11
-26.98
-16.76
-5.71
5.11
14.92
23.26
30.02
35.49
40.46
46.04
53.21
62.37
72.97
83.60
92.34
97.47
97.83
92.89
82.64
67.31
47.31
23.23
-4.01
-33.07
-62.39
-90.42
-115.94
-138.09
-156.29
-170.01
-178.66
-181.60
-178.29
-168.50
-152.44
-130.93
-105.39
-77.79
-50.41
-25.47
-4.70
10.99
21.63
28.03
31.38
32.82
33.16
32.77
31.75
30.09
27.74
24.57
20.25
14.31
6.32
-3.76
-15.29
-26.88
-36.70
-43.01
-44.75
-41.89
-35.45
-27.13
-18.75
-11.67
-6.46
-2.82
0.22
3.80
8.80
15.36
22.85
30.11
35.90
39.37
40.16
38.33
34.00
27.34
18.60
8.47
-1.82
-10.63
-16.43
-18.36
-16.57
-12.16
-6.67
-1.51
2.50
5.19
6.90
8.16
9.33
10.48
11.45
11.96
11.88
11.22
10.26
9.30
8.58
8.16
7.87
7.49
6.82
5.79
4.45
2.92
1.30
-0.39
-2.17
-4.13
-6.32
-8.72
-11.20
-13.54
-15.44
-16.77
-17.59
-18.24
-19.17
-20.74
-22.98
-25.56
-27.89
-29.49
-30.20
-30.20
-29.92
-29.78
-29.96
-30.35
-30.62
-30.24
-28.58
-24.95
-18.76
-9.75
1.67
14.15
25.57
33.49
36.14
33.18
26.14
17.97
12.02
10.81
15.17
24.14
35.62
47.26
57.24
64.50
68.54
69.13
66.21
60.04
51.40
41.61
32.28
24.71
19.50
16.48
14.83
13.55
11.89
9.54
6.68
3.84
1.57
0.27
0.01
0.49
1.19
1.51
1.01
-0.46
-2.61
-4.84
-6.32
-6.38
-4.60
-1.01
3.97
9.54
14.69
18.31
19.44
17.52
12.52
5.05
-3.73
-12.42
-19.59
-24.10
-25.32
-23.24
-18.51
-12.38
-6.41
-2.09
-0.39
-1.51
-4.91
-9.58
-14.49
-18.85
-22.27
-24.66
-26.10
-26.81
-27.03
-26.99
-26.91
-26.86
-26.80
-26.66
-26.39
-26.09
-25.93
-26.05
-26.51
-27.15
-27.75
-28.00
-27.59
-26.23
-23.69
-19.90
-14.98
-9.34
-3.57
1.77
6.24
9.66
12.09
13.73
14.75
15.28
15.38
15.10
14.62
14.19
14.10
14.49
15.24
16.01
16.31
15.79
14.37
12.39
10.45
9.16
8.88
9.64
11.20
13.17
15.28
17.44
19.73
22.25
25.04
27.99
30.95
33.74
36.17
37.94
38.48
36.95
32.42
24.31
12.82
-1.01
-15.65
-29.77
-42.71
-54.45
-65.08
-74.03
-79.90
-80.82
-75.47
-63.90
-47.74
-29.66
-12.27
2.62
14.36
23.09
29.30
33.42
35.86
37.09
37.80
38.66
40.02
41.65
42.79
42.34
39.33
33.28
24.53
14.15
3.70
-5.24
-11.50
-14.66
-15.14
-13.94
-12.20
-10.86
-10.39
-10.75
-11.59
-12.45
-12.95
-12.89
-12.17
-10.78
-8.69
-5.98
-2.88
0.01
1.74
1.15
-2.83
-10.69
-22.05
-35.52
-48.93
-59.90
-66.42
-67.42
-62.98
-54.18
-42.72
-30.39
-18.70
-8.61
-0.66
4.87
7.83
8.11
5.81
1.38
-4.44
-10.75
-16.71
-21.83
-25.94
-29.12
-31.49
-33.05
-33.66
-33.17
-31.48
-28.66
-24.84
-20.16
-14.83
-9.07
-3.21
2.39
7.41
11.68
15.16
17.90
20.05
21.94
24.07
27.13
31.79
38.44
46.90
56.39
65.64
73.23
77.93
79.01
76.30
70.18
61.42
50.98
39.69
28.16
16.74
5.78
-4.19
-12.31
-17.59
-19.33
-17.48
-12.63
-5.75
2.33
11.18
20.75
31.01
41.53
51.36
59.26
64.05
65.07
62.30
56.39
48.33
39.29
30.25
21.85
14.27
7.31
0.50
-6.71
-14.73
-23.79
-33.91
-44.79
-55.77
-65.82
-73.75
-78.54
-79.71
-77.46
-72.47
-65.54
-57.22
-47.77
-37.45
-26.78
-16.72
-8.39
-2.63
0.37
1.19
0.75
-0.18
-1.44
-3.51
-7.16
-12.93
-20.73
-29.71
-38.45
-45.32
-48.90
-48.28
-43.28
-34.42
-22.92
-10.37
1.62
11.89
19.98
26.19
31.34
36.25
41.37
46.54
51.15
54.47
55.99
55.60
53.54
50.19
45.93
41.01
35.57
29.83
24.10
18.82
14.49
11.52
10.15
10.30
11.62
13.58
15.57
17.00
17.45
16.74
14.82
11.84
8.08
3.97
0.06
-3.05
-4.85
-5.10
-3.88
-1.62
1.04
3.44
5.07
5.71
5.38
4.31
2.82
1.22
-0.25
-1.41
-2.21
-2.68
-3.01
-3.50
-4.52
-6.41
-9.40
-13.44
-18.20
-23.11
-27.49
-30.70
-32.37
-32.42
-31.08
-28.80
-26.07
-23.30
-20.74
-18.44
-16.41
-14.60
-13.03
-11.77
-10.87
-10.29
-9.86
-9.35
-8.53
-7.36
-5.97
-4.58
-3.45
-2.71
-2.33
-2.13
-1.88
-1.35
-0.44
0.86
2.37
3.85
5.03
5.70
5.79
5.32
4.39
3.11
1.54
-0.27
-2.21
-4.14
-5.91
-7.47
-8.85
-10.11
-11.20
-11.93
-11.95
-11.01
-9.09
-6.46
-3.63
-1.10
0.81
2.09
2.94
3.72
4.71
6.05
7.71
9.43
10.83
11.50
11.14
9.63
7.10
3.86
0.25
-3.41
-6.85
-9.75
-11.80
-12.74
-12.49
-11.23
-9.35
-7.27
-5.25
-3.32
-1.39
0.48
1.89
2.14
0.44
-3.67
-10.06
-17.90
-25.88
-32.63
-37.14
-39.01
-38.48
-36.14
-32.68
-28.54
-23.82
-18.24
-11.42
-3.02
6.97
18.16
29.76
40.65
49.58
55.44
57.52
55.71
50.69
43.70
36.26
29.73
24.93
21.97
20.25
18.90
17.11
14.49
11.13
7.54
4.27
1.71
-0.04
-1.13
-1.81
-2.32
-2.81
-3.33
-3.91
-4.59
-5.41
-6.35
-7.32
-8.18
-8.80
-9.13
-9.28
-9.50
-10.10
-11.33
-13.26
-15.71
-18.29
-20.48
-21.83
-22.14
-21.50
-20.26
-18.90
-17.83
-17.24
-17.07
-17.12
-17.15
-16.99
-16.67
-16.31
-16.10
-16.21
-16.72
-17.54
-18.38
-18.72
-17.83
-15.01
-9.79
-2.22
7.05
16.79
25.56
32.05
35.48
35.77
33.49
29.71
25.62
22.24
20.18
19.59
20.15
21.27
22.32
22.81
22.50
21.40
19.65
17.45
15.02
12.56
10.28
8.39
7.09
6.49
6.62
7.36
8.51
9.83
11.10
12.21
13.18
14.11
15.17
16.47
18.02
19.76
21.61
23.45
25.17
26.50
27.06
26.35
24.01
20.06
14.97
9.48
4.26
-0.48
-5.15
-10.58
-17.54
-26.17
-35.68
-44.57
-51.15
-54.13
-53.08
-48.43
-41.24
-32.79
-24.27
-16.60
-10.37
-5.83
-2.85
-0.92
0.71
2.85
6.07
10.43
15.43
20.19
23.70
25.18
24.25
21.02
16.02
10.04
3.95
-1.45
-5.59
-8.17
-9.28
-9.30
-8.86
-8.54
-8.73
-9.52
-10.75
-12.19
-13.70
-15.28
-17.04
-18.95
-20.73
-21.82
-21.63
-19.82
-16.58
-12.66
-9.14
-7.06
-7.03
-9.04
-12.50
-16.49
-19.97
-21.99
-21.77
-18.91
-13.55
-6.62
0.35
5.62
8.03
7.58
5.55
3.95
4.66
8.58
15.40
23.98
33.05
41.71
49.44
55.83
60.17
61.63
59.68
54.64
47.82
41.02
35.67
32.04
29.21
25.55
19.55
10.59
-0.93
-13.82
-26.61
-37.95
-46.74
-52.23
-54.01
-52.21
-47.64
-41.73
-36.20
-32.59
-31.75
-33.61
-37.31
-41.59
-45.19
-47.16
-47.03
-44.74
-40.64
-35.43
-29.97
-25.17
-21.65
-19.52
-18.21
-16.66
-13.61
-8.11
0.15
10.71
22.43
33.81
43.39
50.10
53.49
53.75
51.57
47.87
43.49
39.04
34.78
30.74
26.92
23.33
20.05
17.15
14.61
12.34
10.18
8.04
5.91
3.90
2.16
0.80
-0.22
-1.05
-1.92
-2.99
-4.32
-5.77
-7.04
-7.81
-7.85
-7.20
-6.13
-5.10
-4.59
-4.88
-5.98
-7.59
-9.26
-10.47
-10.86
-10.26
-8.79
-6.78
-4.75
-3.22
-2.54
-2.69
-3.29
-3.67
-3.21
-1.64
0.79
3.44
5.47
6.17
5.28
3.08
0.33
-2.03
-3.15
-2.64
-0.64
2.22
5.11
7.33
8.52
8.74
8.35
7.84
7.60
7.88
8.67
9.77
10.85
11.48
11.31
10.16
8.14
5.54
2.76
0.10
-2.26
-4.34
-6.24
-8.12
-10.08
-12.14
-14.19
-15.97
-17.21
-17.71
-17.45
-16.61
-15.45
-14.21
-13.01
-11.82
-10.55
-9.14
-7.68
-6.38
-5.52
-5.29
-5.72
-6.61
-7.63
-8.42
-8.66
-8.13
-6.63
-4.02
-0.25
4.54
9.86
14.95
18.98
21.37
22.13
21.88
21.58
22.13
23.99
27.00
30.60
34.03
36.71
38.28
38.55
37.41
34.69
30.29
24.28
17.05
9.30
1.88
-4.49
-9.41
-12.87
-15.14
-16.58
-17.47
-17.99
-18.28
-18.52
-18.91
-19.53
-20.26
-20.79
-20.85
-20.35
-19.46
-18.49
-17.63
-16.78
-15.59
-13.72
-11.09
-8.01
-5.06
-2.80
-1.57
-1.33
-1.78
-2.49
-3.10
-3.37
-3.24
-2.87
-2.59
-2.80
-3.85
-5.92
-8.91
-12.50
-16.17
-19.33
-21.42
-22.03
-20.95
-18.25
-14.26
-9.51
-4.63
-0.15
3.67
6.89
9.81
12.78
15.95
19.08
21.67
23.12
23.09
21.65
19.24
16.50
13.93
11.75
9.91
8.26
6.70
5.28
4.14
3.36
2.91
2.61
2.27
1.72
0.95
0.07
-0.71
-1.22
-1.36
-1.21
-0.96
-0.87
-1.16
-1.87
-2.89
-3.99
-4.92
-5.61
-6.12
-6.67
-7.44
-8.52
-9.81
-11.07
-12.07
-12.68
-12.87
-12.69
-12.20
-11.37
-10.07
-8.17
-5.63
-2.54
0.85
4.20
7.18
9.52
11.09
11.89
12.02
11.68
11.10
10.52
10.12
9.94
9.90
9.86
9.64
9.17
8.50
7.81
7.26
6.95
6.81
6.67
6.29
5.57
4.49
3.17
1.79
0.51
-0.59
-1.48
-2.24
-3.03
-4.15
-5.92
-8.54
-11.88
-15.43
-18.36
-19.85
-19.45
-17.22
-13.83
-10.17
-7.09
-5.06
-4.09
-3.81
-3.71
-3.41
-2.70
-1.61
-0.32
1.02
2.32
3.62
5.05
6.72
8.62
10.65
12.60
14.23
15.34
15.81
15.64
14.89
13.73
12.28
10.56
8.49
5.85
2.55
-1.27
-5.24
-8.85
-11.69
-13.70
-15.20
-16.65
-18.44
-20.64
-22.96
-24.95
-26.21
-26.65
-26.47
-26.08
-25.88
-26.06
-26.54
-26.96
-26.75
-25.39
-22.53
-18.22
-12.95
-7.60
-3.19
-0.52
0.20
-0.44
-1.17
-0.46
2.90
9.34
18.26
28.23
37.56
44.83
49.32
51.09
50.73
48.95
46.20
42.57
37.84
31.75
24.27
15.79
7.02
-1.20
-8.18
-13.59
-17.51
-20.24
-22.11
-23.31
-23.90
-23.85
-23.22
-22.22
-21.20
-20.45
-20.14
-20.13
-20.10
-19.64
-18.44
-16.46
-13.85
-10.91
-7.91
-4.95
-2.03
0.86
3.63
6.08
8.04
9.49
10.65
11.91
13.65
16.00
18.75
21.46
23.62
24.89
25.24
24.92
24.32
23.70
23.11
22.40
21.32
19.71
17.62
15.31
13.10
11.17
9.52
7.88
5.93
3.42
0.35
-2.96
-6.00
-8.23
-9.22
-8.86
-7.40
-5.33
-3.27
-1.75
-1.01
-0.99
-1.40
-1.83
-1.93
-1.54
-0.71
0.35
1.28
1.71
1.32
-0.00
-2.12
-4.58
-6.75
-7.92
-7.60
-5.64
-2.34
1.67
5.58
8.64
10.43
10.88
10.31
9.24
8.19
7.49
7.18
7.10
6.96
6.55
5.78
4.75
3.62
2.55
1.63
0.88
0.23
-0.36
-0.93
-1.48
-1.99
-2.42
-2.74
-2.90
-2.84
-2.40
-1.39
0.32
2.73
5.52
8.20
10.20
11.20
11.26
10.82
10.47
10.70
11.62
13.02
14.50
15.72
16.57
17.14
17.47
17.55
17.21
16.40
15.46
15.26
17.00
21.78
30.05
41.32
54.22
67.16
78.90
89.03
97.91
106.24
114.51
122.71
130.42
137.14
142.67
147.18
150.98
154.16
156.38
157.00
155.25
150.45
141.95
128.85
109.90
83.78
49.97
9.54
-34.53
-77.89
-116.14
-146.33
-167.74
-181.66
-190.31
-195.54
-198.15
-198.04
-194.97
-189.21
-181.70
-173.51
-165.25
-156.79
-147.70
-137.97
-128.60
-121.55
-118.87
-121.70
-129.38
-139.17
-147.10
-149.24
-143.12
-128.58
-107.78
-84.26
-61.62
-42.31
-27.04
-15.11
-5.15
3.91
12.39
19.93
25.96
30.21
32.86
34.17
34.20
32.56
28.75
22.66
15.04
7.51
2.06
0.29
2.68
8.39
15.62
22.32
27.00
29.10
28.95
27.33
24.98
22.28
19.23
15.68
11.62
7.24
2.92
-1.01
-4.38
-7.25
-9.70
-11.78
-13.37
-14.34
-14.75
-14.99
-15.69
-17.38
-20.22
-23.71
-26.92
-28.84
-28.90
-27.22
-24.54
-21.80
-19.65
-18.22
-17.13
-15.89
-14.22
-12.21
-10.19
-8.41
-6.85
-5.23
-3.27
-0.85
1.79
4.16
5.79
6.39
6.01
4.83
3.09
0.77
-2.36
-6.63
-12.22
-18.85
-25.59
-31.00
-33.50
-31.98
-26.28
-17.33
-6.89
3.12
11.26
16.91
20.28
22.01
22.76
22.92
22.59
21.75
20.38
18.55
16.36
13.87
11.13
8.25
5.57
3.62
2.97
4.08
7.05
11.70
17.61
24.46
32.08
40.47
49.57
58.99
67.97
75.45
80.49
82.48
81.41
77.70
71.95
64.71
56.36
47.25
37.93
29.18
21.89
16.80
14.16
13.64
14.47
15.78
16.88
17.48
17.63
17.53
17.31
16.84
15.74
13.59
10.05
5.13
-0.78
-6.95
-12.50
-16.75
-19.32
-20.24
-19.79
-18.32
-16.06
-13.13
-9.59
-5.60
-1.43
2.59
6.16
9.15
11.59
13.62
15.35
16.77
17.71
17.96
17.37
16.05
14.34
12.78
11.85
11.76
12.33
13.08
13.45
13.09
12.03
10.62
9.34
8.57
8.43
8.80
9.39
9.86
9.86
9.04
7.05
3.73
-0.77
-5.89
-10.65
-14.01
-15.15
-13.75
-10.19
-5.29
-0.03
4.70
8.39
10.86
12.14
12.35
11.61
10.08
8.04
5.91
4.16
3.20
3.26
4.39
6.52
9.57
13.54
18.41
24.11
30.41
37.05
43.76
50.38
56.78
62.66
67.26
69.28
67.09
59.35
45.55
26.37
3.55
-20.56
-43.61
-63.62
-79.17
-89.41
-94.07
-93.55
-88.93
-81.77
-73.74
-66.17
-59.72
-54.47
-50.16
-46.57
-43.61
-41.32
-39.65
-38.40
-37.31
-36.20
-35.06
-34.01
-33.00
-31.75
-29.73
-26.51
-22.03
-16.79
-11.67
-7.52
-4.76
-3.15
-1.92
-0.20
2.61
6.52
11.08
15.62
19.56
22.55
24.43
25.14
24.63
22.92
20.17
16.83
13.52
10.91
9.47
9.26
9.90
10.72
11.04
10.34
8.50
5.72
2.42
-0.97
-4.16
-7.02
-9.58
-12.05
-14.62
-17.42
-20.39
-23.17
-25.22
-25.99
-25.15
-22.81
-19.46
-15.78
-12.28
-9.18
-6.37
-3.67
-1.02
1.39
3.27
4.40
4.84
4.93
5.09
5.65
6.66
7.93
9.12
9.94
10.28
10.24
10.08
10.19
10.91
12.44
14.65
17.01
18.66
18.64
16.18
11.02
3.53
-5.41
-14.80
-23.85
-32.22
-40.05
-47.69
-55.42
-63.24
-70.74
-77.23
-81.95
-84.27
-84.02
-81.54
-77.80
-74.12
-71.84
-71.73
-73.57
-75.96
-76.57
-72.91
-63.11
-46.60
-24.33
1.50
28.11
52.80
73.48
88.90
98.57
102.59
101.56
96.51
88.83
80.11
71.89
65.25
60.64
57.84
56.13
54.69
52.81
50.19
46.90
43.25
39.62
36.29
33.35
30.78
28.48
26.32
24.22
21.99
19.34
15.84
10.99
4.54
-3.29
-11.69
-19.42
-25.21
-28.24
-28.44
-26.47
-23.43
-20.32
-17.69
-15.52
-13.41
-10.88
-7.72
-4.07
-0.34
3.06
5.89
8.21
10.25
12.27
14.33
16.23
17.65
18.25
17.79
16.00
12.39
6.29
-2.92
-15.27
-29.75
-44.28
-56.28
-63.61
-65.34
-62.03
-55.40
-47.50
-40.02
-33.99
-29.85
-27.81
-27.99
-30.24
-33.93
-37.75
-39.91
-38.69
-33.12
-23.31
-10.51
3.28
15.95
25.87
32.21
35.03
35.10
33.71
32.35
32.39
34.80
39.84
46.99
55.04
62.41
67.65
69.82
68.61
64.40
58.00
50.37
42.40
34.70
27.57
21.05
15.06
9.53
4.47
0.04
-3.66
-6.61
-8.91
-10.77
-12.36
-13.73
-14.83
-15.63
-16.18
-16.75
-17.61
-18.97
-20.85
-22.99
-25.01
-26.55
-27.36
-27.36
-26.60
-25.11
-22.89
-19.90
-16.15
-11.71
-6.78
-1.66
3.34
7.95
12.08
15.75
19.16
22.51
25.94
29.41
32.72
35.51
37.48
38.41
38.28
37.19
35.32
32.81
29.80
26.40
22.75
19.07
15.54
12.31
9.40
6.73
4.12
1.48
-1.17
-3.67
-5.72
-7.11
-7.75
-7.78
-7.47
-7.18
-7.17
-7.55
-8.25
-9.08
-9.79
-10.17
-10.08
-9.47
-8.41
-7.07
-5.68
-4.49
-3.70
-3.39
-3.57
-4.15
-4.97
-5.82
-6.48
-6.69
-6.26
-5.13
-3.39
-1.28
0.90
2.86
4.48
5.71
6.56
7.07
7.21
7.04
6.62
6.07
5.52
4.99
4.39
3.61
2.53
1.21
-0.17
-1.38
-2.23
-2.70
-2.93
-3.17
-3.63
-4.46
-5.60
-6.87
-8.03
-8.84
-9.15
-8.97
-8.43
-7.72
-6.98
-6.27
-5.54
-4.67
-3.62
-2.42
-1.16
0.06
1.14
2.11
2.99
3.79
4.47
4.88
4.86
4.35
3.47
2.45
1.62
1.18
1.12
1.24
1.22
0.78
-0.18
-1.61
-3.34
-5.17
-6.96
-8.56
-9.85
-10.70
-11.07
-11.01
-10.69
-10.34
-10.16
-10.19
-10.41
-10.68
-10.83
-10.70
-10.19
-9.23
-7.85
-6.10
-4.13
-2.05
0.05
2.15
4.21
6.17
7.91
9.27
10.10
10.37
10.16
9.60
8.87
8.09
7.37
6.77
6.34
6.12
6.07
6.09
6.01
5.63
4.80
3.47
1.76
-0.12
-1.97
-3.63
-5.11
-6.47
-7.82
-9.21
-10.63
-12.03
-13.37
-14.59
-15.63
-16.36
-16.58
-16.06
-14.65
-12.31
-9.20
-5.58
-1.72
2.12
5.77
9.07
11.89
14.11
15.65
16.47
16.56
15.93
14.64
12.80
10.60
8.31
6.23
4.56
3.39
2.64
2.16
1.85
1.74
1.92
2.46
3.29
4.22
4.99
5.40
5.44
5.23
4.97
4.79
4.70
4.60
4.39
3.96
3.23
2.13
0.57
-1.53
-4.14
-7.05
-9.87
-12.15
-13.51
-13.77
-13.04
-11.60
-9.84
-8.07
-6.48
-5.08
-3.81
-2.63
-1.52
-0.54
0.20
0.61
0.64
0.32
-0.25
-0.93
-1.55
-1.92
-1.93
-1.55
-0.86
-0.04
0.68
1.07
1.00
0.43
-0.55
-1.75
-2.96
-4.00
-4.79
-5.38
-5.94
-6.65
-7.72
-9.21
-11.07
-13.11
-15.01
-16.47
-17.24
-17.20
-16.42
-15.04
-13.29
-11.34
-9.25
-6.91
-4.11
-0.55
3.95
9.32
15.26
21.18
26.51
30.73
33.63
35.25
35.85
35.79
35.39
34.93
34.60
34.45
34.37
33.97
32.68
29.90
25.26
18.81
11.06
2.86
-4.90
-11.52
-16.71
-20.51
-23.16
-24.98
-26.29
-27.32
-28.22
-29.03
-29.62
-29.78
-29.28
-28.01
-25.98
-23.35
-20.30
-16.94
-13.34
-9.60
-5.85
-2.31
0.78
3.30
5.24
6.74
7.91
8.83
9.48
9.83
9.90
9.79
9.59
9.38
9.17
8.85
8.32
7.48
6.26
4.64
2.71
0.58
-1.54
-3.48
-5.13
-6.51
-7.80
-9.20
-10.84
-12.70
-14.59
-16.22
-17.36
-17.89
-17.85
-17.36
-16.61
-15.77
-14.93
-14.07
-13.04
-11.53
-9.14
-5.56
-0.69
5.24
11.69
17.99
23.55
28.02
31.30
33.45
34.56
34.73
34.02
32.57
30.63
28.54
26.57
24.86
23.34
21.83
20.10
18.00
15.55
12.81
9.96
7.13
4.42
1.83
-0.74
-3.44
-6.43
-9.76
-13.27
-16.59
-19.30
-21.06
-21.82
-21.89
-21.75
-21.86
-22.43
-23.35
-24.29
-24.89
-24.87
-24.09
-22.49
-20.02
-16.69
-12.62
-8.16
-3.83
-0.12
2.69
4.66
6.11
7.43
8.82
10.23
11.41
12.14
12.31
12.02
11.43
10.72
9.97
9.24
8.59
8.07
7.74
7.61
7.57
7.45
7.05
6.19
4.69
2.48
-0.46
-3.95
-7.62
-10.96
-13.45
-14.74
-14.78
-13.84
-12.30
-10.54
-8.70
-6.64
-4.11
-0.81
3.33
8.17
13.31
18.24
22.52
25.86
28.15
29.41
29.67
28.87
26.97
24.04
20.40
16.55
13.07
10.42
8.75
7.87
7.45
7.09
6.54
5.66
4.35
2.53
0.14
-2.78
-6.03
-9.24
-11.98
-13.90
-14.87
-15.05
-14.77
-14.44
-14.35
-14.57
-14.97
-15.28
-15.21
-14.57
-13.33
-11.57
-9.50
-7.40
-5.53
-4.10
-3.21
-2.76
-2.50
-2.11
-1.32
0.02
1.88
4.16
6.66
9.20
11.60
13.61
15.06
15.85
16.00
15.67
15.07
14.24
13.03
11.18
8.53
5.21
1.60
-1.82
-4.81
-7.42
-9.96
-12.68
-15.59
-18.37
-20.57
-21.92
-22.43
-22.28
-21.61
-20.23
-17.73
-13.66
-7.90
-0.83
6.79
14.17
20.81
26.55
31.57
36.08
40.02
43.06
44.68
44.33
41.78
37.11
30.76
23.39
15.70
8.25
1.46
-4.50
-9.62
-14.05
-17.98
-21.58
-24.91
-27.88
-30.29
-31.94
-32.78
-33.00
-32.93
-32.87
-32.89
-32.82
-32.30
-31.06
-29.09
-26.68
-24.25
-22.19
-20.69
-19.75
-19.30
-19.18
-19.21
-19.06
-18.41
-17.00
-14.86
-12.38
-10.14
-8.61
-7.74
-6.93
-5.28
-2.04
2.95
9.02
14.96
19.40
21.44
21.00
18.95
16.88
16.66
19.74
26.56
36.27
46.84
55.71
60.62
60.31
54.94
45.88
35.24
25.10
17.08
12.06
10.23
11.25
14.38
18.61
22.84
25.98
27.06
25.41
20.71
13.16
3.47
-7.20
-17.53
-26.34
-32.86
-36.84
-38.54
-38.48
-37.22
-35.28
-33.03
-30.78
-28.73
-27.01
-25.57
-24.28
-22.98
-21.63
-20.27
-19.08
-18.18
-17.64
-17.35
-17.15
-16.89
-16.50
-16.06
-15.68
-15.48
-15.48
-15.61
-15.71
-15.68
-15.50
-15.30
-15.27
-15.59
-16.33
-17.41
-18.64
-19.73
-20.40
-20.40
-19.62
-18.16
-16.33
-14.61
-13.44
-12.99
-13.07
-13.16
-12.64
-11.14
-8.72
-5.78
-2.87
-0.43
1.46
2.91
4.12
5.16
5.90
6.18
6.00
5.61
5.49
6.06
7.42
9.28
11.00
11.92
11.66
10.21
7.97
5.43
3.04
1.01
-0.56
-1.64
-2.15
-1.96
-0.99
0.69
2.83
5.05
6.85
7.74
7.28
5.16
1.32
-3.95
-9.91
-15.49
-19.50
-21.02
-19.77
-16.15
-11.10
-5.62
-0.32
4.76
9.96
15.51
21.17
26.17
29.51
30.50
29.14
26.07
22.21
18.30
14.65
11.28
8.11
5.22
2.81
0.99
-0.33
-1.39
-2.39
-3.35
-4.11
-4.50
-4.55
-4.43
-4.29
-4.05
-3.34
-1.75
0.81
3.86
6.37
7.07
4.91
-0.65
-9.41
-20.32
-31.43
-40.08
-43.41
-39.24
-26.95
-7.99
14.41
36.29
54.17
66.11
71.93
72.71
69.96
65.00
58.67
51.53
44.15
37.20
31.36
26.99
23.87
21.20
17.86
12.86
5.91
-2.38
-10.67
-17.47
-21.78
-23.57
-23.66
-23.29
-23.40
-24.26
-25.49
-26.45
-26.77
-26.50
-26.07
-25.93
-26.25
-26.89
-27.52
-27.91
-28.01
-28.02
-28.20
-28.74
-29.61
-30.59
-31.27
-31.19
-29.97
-27.38
-23.41
-18.30
-12.46
-6.39
-0.54
4.73
9.16
12.62
15.10
16.68
17.56
17.99
18.21
18.36
18.56
18.82
19.16
19.56
20.00
20.44
20.81
21.09
21.24
21.27
21.21
21.05
20.80
20.47
20.03
19.46
18.68
17.60
16.17
14.46
12.68
11.12
10.04
9.60
9.78
10.45
11.44
12.55
13.59
14.34
14.58
14.19
13.17
11.66
9.87
7.94
5.91
3.74
1.39
-1.01
-3.21
-4.91
-5.92
-6.25
-6.15
-5.97
-6.00
-6.38
-7.10
-7.99
-8.86
-9.54
-9.92
-9.92
-9.53
-8.78
-7.79
-6.69
-5.66
-4.82
-4.22
-3.85
-3.64
-3.52
-3.41
-3.27
-3.05
-2.67
-2.02
-0.94
0.75
3.14
6.19
9.68
13.20
16.26
18.42
19.45
19.37
18.40
16.87
15.02
12.96
10.72
8.30
5.83
3.49
1.49
-0.10
-1.37
-2.51
-3.72
-5.10
-6.56
-7.97
-9.18
-10.12
-10.82
-11.36
-11.85
-12.42
-13.16
-14.12
-15.24
-16.40
-17.35
-17.88
-17.82
-17.13
-15.90
-14.26
-12.37
-10.41
-8.55
-6.99
-5.87
-5.23
-5.02
-5.03
-5.02
-4.76
-4.11
-3.06
-1.70
-0.22
1.18
2.35
3.22
3.84
4.31
4.72
5.12
5.42
5.50
5.21
4.50
3.38
2.00
0.55
-0.79
-1.85
-2.57
-2.97
-3.21
-3.47
-3.95
-4.70
-5.66
-6.64
-7.40
-7.78
-7.72
-7.26
-6.54
-5.68
-4.77
-3.88
-2.99
-2.10
-1.21
-0.38
0.28
0.60
0.46
-0.07
-0.77
-1.25
-1.12
-0.13
1.71
4.15
6.86
9.46
11.69
13.35
14.31
14.54
14.03
12.91
11.34
9.54
7.68
5.86
4.12
2.46
0.93
-0.44
-1.62
-2.58
-3.35
-3.98
-4.53
-5.04
-5.54
-5.99
-6.29
-6.33
-6.00
-5.23
-4.09
-2.70
-1.24
0.16
1.47
2.80
4.28
6.04
8.06
10.20
12.15
13.58
14.20
13.87
12.69
11.01
9.33
8.16
7.81
8.27
9.21
10.10
10.46
10.03
8.82
7.00
4.73
2.11
-0.77
-3.68
-6.20
-7.85
-8.32
-7.76
-6.75
-6.12
-6.56
-8.24
-10.85
-13.80
-16.58
-18.95
-20.97
-22.76
-24.30
-25.31
-25.38
-24.18
-21.67
-18.11
-14.00
-9.79
-5.80
-2.12
1.28
4.41
7.17
9.33
10.59
10.71
9.72
7.93
5.82
3.93
2.63
2.00
1.86
1.92
1.91
1.68
1.18
0.39
-0.67
-1.99
-3.48
-4.96
-6.20
-7.03
-7.43
-7.51
-7.40
-7.12
-6.53
-5.44
-3.74
-1.59
0.67
2.60
3.95
4.77
5.46
6.49
8.23
10.75
13.78
16.82
19.31
20.75
20.83
19.51
16.97
13.66
10.18
7.15
5.06
4.14
4.29
5.16
6.26
7.05
7.10
6.17
4.26
1.61
-1.36
-4.16
-6.42
-7.93
-8.66
-8.71
-8.21
-7.29
-6.15
-5.03
-4.25
-4.05
-4.44
-5.17
-5.77
-5.76
-4.89
-3.23
-1.15
0.92
2.69
4.14
5.45
6.87
8.48
10.16
11.60
12.51
12.75
12.43
11.83
11.31
11.10
11.25
11.67
12.13
12.41
12.39
11.98
11.21
10.06
8.51
6.53
4.18
1.56
-1.08
-3.43
-5.23
-6.38
-6.99
-7.36
-7.85
-8.75
-10.16
-11.98
-13.88
-15.52
-16.56
-16.76
-16.05
-14.48
-12.26
-9.69
-7.11
-4.82
-3.02
-1.76
-0.92
-0.29
0.36
1.21
2.29
3.53
4.74
5.71
6.28
6.39
6.08
5.49
4.74
3.93
3.07
2.09
0.89
-0.62
-2.52
-4.80
-7.40
-10.15
-12.72
-14.69
-15.66
-15.31
-13.66
-11.08
-8.24
-5.98
-4.97
-5.46
-7.19
-9.45
-11.36
-12.18
-11.54
-9.52
-6.54
-3.13
0.18
3.03
5.18
6.49
6.93
6.55
5.51
4.10
2.62
1.37
0.54
0.18
0.18
0.36
0.44
0.16
-0.61
-1.86
-3.39
-4.96
-6.36
-7.48
-8.36
-9.10
-9.77
-10.32
-10.63
-10.51
-9.80
-8.34
-6.09
-3.10
0.40
3.98
7.06
9.10
9.71
8.90
6.99
4.59
2.29
0.54
-0.50
-0.90
-0.91
-0.81
-0.79
-0.93
-1.12
-1.22
-1.02
-0.43
0.58
1.92
3.42
4.82
5.77
5.86
4.78
2.53
-0.44
-3.20
-4.59
-3.69
-0.23
5.17
11.17
16.17
18.92
18.92
16.58
12.86
8.89
5.53
3.14
1.65
0.73
-0.00
-0.82
-1.86
-3.14
-4.60
-6.18
-7.81
-9.44
-10.99
-12.36
-13.38
-13.92
-13.82
-13.07
-11.77
-10.16
-8.48
-6.88
-5.35
-3.79
-2.11
-0.29
1.50
3.05
4.18
4.81
5.02
4.96
4.82
4.73
4.76
4.92
5.18
5.45
5.66
5.69
5.49
5.05
4.43
3.72
2.99
2.27
1.49
0.55
-0.64
-2.08
-3.67
-5.24
-6.62
-7.68
-8.43
-8.99
-9.58
-10.38
-11.54
-13.04
-14.70
-16.25
-17.37
-17.85
-17.60
-16.73
-15.44
-13.96
-12.42
-10.89
-9.39
-7.91
-6.49
-5.17
-3.95
-2.80
-1.66
-0.56
0.41
1.11
1.47
1.68
2.15
3.43
5.91
9.63
14.17
18.79
22.82
25.91
28.14
29.87
31.43
32.83
33.71
33.63
32.29
29.81
26.69
23.55
20.86
18.72
16.89
15.03
12.87
10.40
7.83
5.47
3.56
2.12
1.01
-0.07
-1.32
-2.76
-4.25
-5.56
-6.55
-7.27
-7.88
-8.53
-9.28
-9.98
-10.40
-10.36
-9.81
-8.83
-7.57
-6.16
-4.68
-3.20
-1.85
-0.81
-0.20
-0.05
-0.24
-0.54
-0.75
-0.78
-0.66
-0.55
-0.60
-0.90
-1.45
-2.21
-3.16
-4.29
-5.65
-7.23
-8.95
-10.63
-12.09
-13.28
-14.25
-15.17
-16.14
-17.09
-17.80
-17.93
-17.22
-15.66
-13.43
-10.84
-8.16
-5.53
-2.94
-0.37
2.11
4.32
6.01
7.00
7.27
7.02
6.54
6.11
5.93
6.01
6.26
6.53
6.71
6.71
6.53
6.21
5.80
5.40
5.05
4.72
4.35
3.86
3.22
2.47
1.69
0.98
0.38
-0.15
-0.68
-1.26
-1.89
-2.54
-3.14
-3.71
-4.33
-5.10
-6.08
-7.26
-8.51
-9.63
-10.42
-10.76
-10.62
-10.06
-9.20
-8.10
-6.82
-5.36
-3.75
-2.12
-0.67
0.39
0.97
1.16
1.22
1.48
2.11
3.12
4.28
5.34
6.12
6.61
6.96
7.33
7.80
8.31
8.76
9.04
9.11
9.00
8.71
8.19
7.36
6.21
4.83
3.48
2.39
1.74
1.46
1.35
1.13
0.63
-0.17
-1.12
-2.02
-2.73
-3.22
-3.53
-3.70
-3.73
-3.57
-3.15
-2.46
-1.56
-0.54
0.50
1.47
2.36
3.17
3.92
4.61
5.21
5.68
6.00
6.18
6.22
6.13
5.90
5.50
4.90
4.14
3.34
2.66
2.22
2.04
2.07
2.18
2.26
2.29
2.30
2.33
2.37
2.37
2.24
1.95
1.56
1.14
0.79
0.53
0.32
0.10
-0.21
-0.66
-1.30
-2.17
-3.27
-4.55
-5.90
-7.16
-8.14
-8.70
-8.73
-8.20
-7.16
-5.75
-4.17
-2.62
-1.22
0.04
1.23
2.42
3.60
4.66
5.43
5.81
5.80
5.54
5.21
4.94
4.77
4.66
4.56
4.43
4.32
4.27
4.32
4.43
4.51
4.45
4.16
3.63
2.91
2.09
1.31
0.63
0.07
-0.40
-0.82
-1.23
-1.66
-2.10
-2.56
-3.05
-3.60
-4.26
-5.06
-5.96
-6.87
-7.62
-8.03
-7.95
-7.35
-6.31
-4.99
-3.53
-2.07
-0.66
0.66
1.82
2.73
3.31
3.51
3.38
3.03
2.62
2.25
1.97
1.75
1.57
1.40
1.27
1.26
1.45
1.84
2.39
2.93
3.31
3.41
3.20
2.74
2.16
1.55
1.00
0.52
0.12
-0.20
-0.43
-0.60
-0.77
-1.06
-1.58
-2.41
-3.51
-4.76
-5.95
-6.86
-7.30
-7.16
-6.47
-5.33
-3.93
-2.46
-1.08
0.10
1.06
1.82
2.44
2.97
3.42
3.78
3.99
4.02
3.88
3.62
3.29
2.94
2.59
2.22
1.82
1.38
0.91
0.43
-0.04
-0.52
-1.05
-1.67
-2.42
-3.28
-4.16
-4.93
-5.48
-5.76
-5.81
-5.81
-5.95
-6.34
-6.99
-7.74
-8.41
-8.81
-8.88
-8.62
-8.09
-7.33
-6.37
-5.16
-3.66
-1.87
0.15
2.29
4.40
6.28
7.80
8.88
9.56
9.98
10.29
10.58
10.86
11.06
11.08
10.84
10.34
9.58
8.59
7.39
5.97
4.36
2.64
0.94
-0.58
-1.77
-2.58
-3.06
-3.40
-3.82
-4.57
-5.70
-7.13
-8.56
-9.67
-10.23
-10.19
-9.64
-8.78
-7.79
-6.76
-5.74
-4.73
-3.73
-2.70
-1.48
0.10
2.18
4.67
7.26
9.50
11.00
11.60
11.47
10.99
10.51
10.22
10.09
9.96
9.65
9.04
8.05
6.55
4.42
1.56
-1.93
-5.70
-9.21
-11.91
-13.41
-13.64
-12.83
-11.37
-9.65
-7.95
-6.38
-5.00
-3.82
-2.89
-2.24
-1.90
-1.84
-2.04
-2.48
-3.19
-4.24
-5.60
-7.16
-8.67
-9.83
-10.40
-10.27
-9.50
-8.28
-6.82
-5.34
-3.98
-2.89
-2.19
-1.91
-1.98
-2.21
-2.37
-2.24
-1.76
-1.03
-0.27
0.35
0.76
1.02
1.31
1.73
2.34
3.06
3.78
4.43
4.97
5.39
5.63
5.60
5.20
4.47
3.59
2.87
2.61
3.03
4.10
5.63
7.29
8.77
9.80
10.21
9.91
8.89
7.13
4.69
1.68
-1.69
-5.10
-8.18
-10.56
-12.09
-12.82
-13.00
-12.96
-12.89
-12.76
-12.33
-11.37
-9.81
-7.84
-5.86
-4.22
-3.07
-2.27
-1.53
-0.58
0.69
2.17
3.64
4.86
5.70
6.13
6.20
5.98
5.50
4.85
4.07
3.25
2.42
1.60
0.72
-0.32
-1.62
-3.29
-5.35
-7.73
-10.20
-12.47
-14.17
-15.03
-14.90
-13.83
-12.00
-9.64
-6.95
-4.06
-1.02
2.11
5.27
8.34
11.18
13.69
15.77
17.36
18.43
18.97
19.04
18.75
18.28
17.79
17.39
17.08
16.72
16.12
15.17
13.86
12.32
10.73
9.27
8.03
7.00
6.09
5.19
4.17
2.99
1.59
-0.02
-1.77
-3.58
-5.33
-6.96
-8.45
-9.87
-11.28
-12.70
-13.99
-14.93
-15.27
-14.88
-13.80
-12.23
-10.45
-8.73
-7.20
-5.93
-4.93
-4.22
-3.85
-3.81
-4.05
-4.39
-4.62
-4.59
-4.21
-3.51
-2.57
-1.50
-0.42
0.58
1.37
1.85
1.95
1.70
1.27
0.95
1.01
1.58
2.59
3.67
4.34
4.15
2.93
0.88
-1.50
-3.57
-4.80
-4.99
-4.31
-3.22
-2.26
-1.88
-2.26
-3.27
-4.58
-5.81
-6.62
-6.83
-6.47
-5.69
-4.70
-3.66
-2.65
-1.66
-0.55
0.84
2.64
4.86
7.31
9.66
11.46
12.42
12.46
11.79
10.83
9.95
9.38
9.09
8.94
8.74
8.39
7.83
7.05
6.05
4.81
3.44
2.15
1.20
0.80
0.94
1.36
1.66
1.50
0.79
-0.33
-1.56
-2.63
-3.48
-4.23
-5.10
-6.29
-7.77
-9.38
-10.78
-11.69
-11.92
-11.49
-10.59
-9.44
-8.22
-6.97
-5.59
-4.01
-2.24
-0.50
0.90
1.65
1.66
1.09
0.24
-0.53
-0.96
-0.93
-0.34
0.91
2.95
5.85
9.52
13.62
17.63
20.94
23.06
23.72
22.96
21.07
18.52
15.81
13.35
11.39
9.98
8.94
8.06
7.08
5.85
4.33
2.56
0.62
-1.40
-3.39
-5.24
-6.87
-8.20
-9.20
-9.89
-10.33
-10.55
-10.54
-10.27
-9.71
-8.86
-7.76
-6.50
-5.16
-3.83
-2.61
-1.57
-0.79
-0.32
-0.13
-0.12
-0.13
-0.01
0.31
0.79
1.30
1.70
1.87
1.84
1.68
1.51
1.40
1.33
1.24
1.07
0.80
0.46
0.08
-0.30
-0.67
-1.03
-1.37
-1.69
-2.00
-2.36
-2.79
-3.35
-4.07
-4.96
-6.00
-7.14
-8.29
-9.31
-10.02
-10.27
-9.97
-9.14
-7.89
-6.34
-4.64
-2.89
-1.22
0.19
1.18
1.59
1.46
1.01
0.60
0.54
0.94
1.64
2.29
2.57
2.34
1.74
1.08
0.65
0.60
0.85
1.18
1.33
1.07
0.24
-1.22
-3.21
-5.37
-7.09
-7.62
-6.32
-2.96
2.09
7.97
13.57
17.89
20.33
20.78
19.46
16.77
13.14
8.92
4.46
0.15
-3.65
-6.62
-8.61
-9.64
-9.88
-9.56
-8.88
-7.95
-6.83
-5.54
-4.15
-2.78
-1.57
-0.66
-0.14
0.02
-0.06
-0.21
-0.25
-0.05
0.41
1.03
1.63
2.01
2.01
1.59
0.81
-0.10
-0.88
-1.23
-0.96
0.02
1.60
3.54
5.51
7.15
8.19
8.46
7.99
6.92
5.49
3.91
2.36
0.93
-0.42
-1.75
-3.16
-4.66
-6.20
-7.63
-8.78
-9.54
-9.83
-9.65
-9.06
-8.15
-7.02
-5.77
-4.50
-3.27
-2.14
-1.11
-0.15
0.76
1.61
2.33
2.85
3.13
3.18
3.10
3.02
3.01
3.12
3.27
3.38
3.40
3.29
3.11
2.91
2.71
2.47
2.13
1.64
1.00
0.26
-0.48
-1.16
-1.72
-2.14
-2.47
-2.71
-2.91
-3.07
-3.22
-3.41
-3.72
-4.23
-5.02
-6.10
-7.36
-8.62
-9.62
-10.15
-10.01
-9.18
-7.72
-5.82
-3.71
-1.62
0.23
1.69
2.71
3.31
3.56
3.63
3.65
3.71
3.85
4.01
4.11
4.05
3.76
3.25
2.60
1.93
1.39
1.07
0.96
0.99
0.99
0.80
0.33
-0.42
-1.38
-2.43
-3.46
-4.40
-5.25
-6.01
-6.69
-7.29
-7.76
-8.00
-7.89
-7.31
-6.15
-4.41
-2.22
0.18
2.45
4.26
5.44
6.00
6.10
6.00
5.90
5.97
6.24
6.67
7.19
7.68
7.96
7.89
7.35
6.32
4.92
3.40
2.02
0.97
0.33
0.03
-0.06
-0.08
-0.13
-0.24
-0.32
-0.20
0.32
1.43
3.18
5.40
7.77
9.83
11.16
11.53
10.97
9.72
8.09
6.38
4.71
3.08
1.36
-0.56
-2.70
-5.02
-7.34
-9.44
-11.07
-11.97
-11.96
-10.97
-9.10
-6.60
-3.85
-1.21
1.06
2.85
4.18
5.14
5.79
6.16
6.24
6.07
5.76
5.46
5.27
5.23
5.24
5.14
4.81
4.25
3.54
2.88
2.40
2.15
2.01
1.77
1.20
0.09
-1.67
-4.08
-7.02
-10.32
-13.76
-17.13
-20.29
-23.20
-25.83
-28.15
-30.06
-31.36
-31.82
-31.28
-29.75
-27.40
-24.51
-21.33
-18.01
-14.49
-10.65
-6.37
-1.71
3.12
7.82
12.08
15.73
18.71
21.05
22.78
23.91
24.54
24.90
25.33
26.16
27.48
29.01
30.17
30.26
28.81
25.83
21.78
17.39
13.30
9.87
7.10
4.78
2.73
0.97
-0.33
-0.91
-0.66
0.34
1.76
3.16
4.16
4.57
4.40
3.81
2.98
1.94
0.52
-1.54
-4.53
-8.51
-13.16
-17.85
-21.74
-24.04
-24.21
-22.19
-18.31
-13.27
-7.93
-3.19
0.29
2.20
2.69
2.29
1.74
1.72
2.61
4.38
6.67
8.99
10.94
12.30
13.01
13.12
12.67
11.73
10.40
8.77
6.98
5.17
3.47
2.03
1.00
0.46
0.43
0.81
1.37
1.88
2.12
1.97
1.43
0.55
-0.58
-1.83
-3.12
-4.31
-5.33
-6.12
-6.72
-7.16
-7.49
-7.69
-7.74
-7.59
-7.25
-6.73
-6.07
-5.27
-4.33
-3.25
-2.10
-1.02
-0.21
0.20
0.22
-0.00
-0.25
-0.33
-0.18
0.10
0.37
0.52
0.55
0.53
0.53
0.58
0.58
0.39
-0.08
-0.86
-1.88
-3.03
-4.19
-5.21
-5.99
-6.44
-6.55
-6.34
-5.90
-5.30
-4.58
-3.71
-2.70
-1.60
-0.56
0.23
0.64
0.68
0.48
0.21
0.06
0.10
0.29
0.55
0.75
0.79
0.60
0.15
-0.55
-1.43
-2.35
-3.17
-3.80
-4.21
-4.45
-4.57
-4.59
-4.47
-4.11
-3.40
-2.30
-0.85
0.79
2.40
3.72
4.52
4.68
4.23
3.38
2.44
1.74
1.44
1.50
1.64
1.55
1.01
0.08
-1.00
-1.89
-2.40
-2.55
-2.50
-2.41
-2.28
-1.94
-1.15
0.19
1.98
3.88
5.51
6.61
7.11
7.18
7.05
6.92
6.86
6.79
6.62
6.26
5.72
5.08
4.44
3.89
3.49
3.20
2.99
2.79
2.55
2.26
1.91
1.51
1.05
0.55
0.04
-0.47
-0.98
-1.52
-2.17
-3.01
-4.08
-5.35
-6.72
-8.06
-9.27
-10.30
-11.15
-11.79
-12.15
-12.12
-11.56
-10.43
-8.79
-6.84
-4.83
-2.94
-1.27
0.25
1.66
3.03
4.27
5.27
5.92
6.18
6.13
5.88
5.57
5.28
5.03
4.83
4.68
4.60
4.58
4.61
4.64
4.62
4.47
4.15
3.61
2.86
1.95
0.97
0.06
-0.67
-1.17
-1.47
-1.69
-1.96
-2.43
-3.16
-4.16
-5.28
-6.33
-7.07
-7.32
-6.96
-6.00
-4.51
-2.63
-0.52
1.61
3.51
4.98
5.87
6.20
6.12
5.86
5.61
5.45
5.34
5.18
4.95
4.72
4.63
4.80
5.25
5.90
6.62
7.29
7.84
8.20
8.22
7.68
6.32
3.98
0.76
-2.99
-6.67
-9.64
-11.34
-11.51
-10.23
-7.86
-5.03
-2.40
-0.54
0.23
-0.05
-1.10
-2.45
-3.68
-4.54
-5.05
-5.38
-5.76
-6.33
-7.07
-7.82
-8.35
-8.45
-7.98
-6.82
-4.96
-2.46
0.50
3.59
6.47
8.86
10.63
11.86
12.73
13.35
13.73
13.72
13.16
11.96
10.19
8.08
5.90
3.87
2.12
0.67
-0.53
-1.56
-2.49
-3.39
-4.29
-5.19
-6.04
-6.81
-7.47
-8.06
-8.58
-9.03
-9.29
-9.23
-8.71
-7.70
-6.30
-4.69
-3.06
-1.56
-0.22
0.97
2.05
3.00
3.77
4.32
4.62
4.74
4.75
4.70
4.62
4.50
4.37
4.31
4.41
4.71
5.12
5.45
5.46
5.02
4.14
3.02
1.91
1.02
0.38
-0.10
-0.60
-1.26
-2.08
-2.96
-3.76
-4.42
-4.98
-5.56
-6.27
-7.09
-7.84
-8.30
-8.28
-7.81
-7.04
-6.19
-5.40
-4.62
-3.70
-2.51
-1.03
0.60
2.16
3.52
4.65
5.62
6.47
7.19
7.64
7.72
7.41
6.85
6.27
5.85
5.65
5.60
5.54
5.37
5.05
4.65
4.22
3.81
3.35
2.78
2.02
1.07
0.05
-0.86
-1.48
-1.69
-1.57
-1.32
-1.25
-1.63
-2.62
-4.19
-6.13
-8.12
-9.85
-11.05
-11.53
-11.27
-10.35
-8.98
-7.46
-6.07
-4.99
-4.28
-3.80
-3.37
-2.79
-1.92
-0.74
0.73
2.36
4.01
5.51
6.69
7.45
7.77
7.74
7.53
7.32
7.21
7.22
7.26
7.23
7.03
6.65
6.08
5.34
4.44
3.35
2.10
0.74
-0.62
-1.87
-2.96
-3.93
-4.83
-5.70
-6.55
-7.33
-7.99
-8.54
-9.01
-9.39
-9.60
-9.47
-8.85
-7.66
-5.96
-3.96
-1.90
0.00
1.60
2.88
3.87
4.64
5.27
5.82
6.29
6.60
6.67
6.41
5.80
4.95
3.99
3.08
2.32
1.73
1.28
0.94
0.70
0.59
0.60
0.68
0.76
0.71
0.47
0.01
-0.62
-1.32
-2.04
-2.72
-3.38
-3.98
-4.47
-4.76
-4.75
-4.42
-3.89
-3.38
-3.18
-3.48
-4.38
-5.75
-7.32
-8.77
-9.78
-10.13
-9.76
-8.74
-7.24
-5.46
-3.56
-1.67
0.12
1.72
3.07
4.12
4.91
5.51
5.99
6.38
6.59
6.49
5.92
4.91
3.63
2.40
1.56
1.32
1.70
2.52
3.54
4.52
5.35
5.98
6.42
6.63
6.47
5.83
4.64
2.99
1.14
-0.59
-1.92
-2.71
-3.01
-2.98
-2.88
-2.90
-3.17
-3.70
-4.40
-5.15
-5.79
-6.19
-6.27
-6.00
-5.44
-4.65
-3.73
-2.71
-1.65
-0.54
0.53
1.48
2.19
2.61
2.73
2.60
2.31
1.95
1.58
1.30
1.20
1.42
2.05
3.12
4.53
6.07
7.50
8.60
9.26
9.45
9.21
8.60
7.66
6.46
5.09
3.64
2.20
0.86
-0.37
-1.50
-2.58
-3.66
-4.81
-6.07
-7.46
-8.91
-10.28
-11.36
-11.93
-11.82
-11.04
-9.74
-8.16
-6.53
-4.98
-3.54
-2.14
-0.74
0.63
1.83
2.73
3.24
3.41
3.39
3.35
3.40
3.53
3.59
3.47
3.11
2.62
2.16
1.92
1.98
2.29
2.68
2.96
2.97
2.64
2.00
1.14
0.21
-0.65
-1.36
-1.87
-2.24
-2.57
-2.96
-3.47
-4.11
-4.84
-5.62
-6.40
-7.10
-7.65
-7.92
-7.81
-7.27
-6.35
-5.16
-3.83
-2.45
-1.07
0.33
1.75
3.10
4.25
5.09
5.55
5.66
5.53
5.26
4.97
4.68
4.44
4.28
4.24
4.33
4.52
4.72
4.81
4.68
4.29
3.66
2.86
1.97
1.07
0.17
-0.71
-1.53
-2.24
-2.79
-3.16
-3.40
-3.64
-4.04
-4.67
-5.54
-6.52
-7.49
-8.31
-8.92
-9.27
-9.33
-9.02
-8.25
-6.97
-5.23
-3.19
-1.08
0.83
2.34
3.38
4.00
4.36
4.61
4.85
5.10
5.27
5.27
5.07
4.71
4.28
3.88
3.54
3.27
3.02
2.79
2.57
2.39
2.24
2.06
1.77
1.32
0.71
0.03
-0.61
-1.09
-1.39
-1.58
-1.78
-2.13
-2.70
-3.47
-4.35
-5.21
-5.96
-6.55
-6.90
-6.95
-6.59
-5.74
-4.40
-2.71
-0.90
0.82
2.31
3.60
4.79
5.97
7.11
8.05
8.60
8.63
8.22
7.61
7.08
6.84
6.87
7.00
6.96
6.55
5.73
4.65
3.50
2.50
1.76
1.30
1.07
0.97
0.92
0.86
0.76
0.61
0.41
0.15
-0.13
-0.37
-0.49
-0.40
-0.01
0.74
1.84
3.17
4.52
5.60
6.16
6.01
5.12
3.58
1.62
-0.49
-2.50
-4.27
-5.72
-6.83
-7.59
-7.94
-7.84
-7.27
-6.27
-5.01
-3.70
-2.59
-1.79
-1.30
-0.96
-0.58
-0.08
0.51
1.00
1.18
0.99
0.51
-0.01
-0.34
-0.32
0.00
0.50
1.00
1.39
1.62
1.66
1.49
1.09
0.47
-0.29
-1.03
-1.64
-2.09
-2.43
-2.80
-3.32
-4.06
-4.98
-6.02
-7.06
-8.02
-8.84
-9.43
-9.70
-9.57
-8.97
-7.92
-6.48
-4.81
-3.05
-1.37
0.16
1.48
2.62
3.64
4.58
5.44
6.16
6.70
7.02
7.16
7.21
7.26
7.37
7.51
7.59
7.54
7.37
7.12
6.85
6.55
6.16
5.55
4.59
3.28
1.72
0.10
-1.40
-2.64
-3.59
-4.31
-4.94
-5.59
-6.35
-7.24
-8.25
-9.31
-10.33
-11.20
-11.82
-12.02
-11.69
-10.77
-9.33
-7.58
-5.76
-4.07
-2.53
-1.03
0.64
2.58
4.71
6.76
8.45
9.56
10.11
10.26
10.24
10.16
10.03
9.74
9.17
8.30
7.20
5.97
4.73
3.53
2.43
1.46
0.71
0.24
0.09
0.22
0.52
0.86
1.14
1.32
1.42
1.46
1.40
1.16
0.59
-0.46
-2.05
-4.14
-6.59
-9.17
-11.61
-13.66
-15.06
-15.63
-15.28
-14.02
-12.00
-9.50
-6.83
-4.27
-1.99
-0.04
1.66
3.21
4.67
6.04
7.22
8.10
8.64
8.84
8.76
8.48
8.06
7.52
6.88
6.14
5.35
4.53
3.70
2.83
1.92
0.98
0.04
-0.81
-1.50
-1.98
-2.22
-2.24
-2.10
-1.93
-1.82
-1.85
-2.00
-2.22
-2.39
-2.45
-2.34
-2.04
-1.51
-0.68
0.44
1.83
3.30
4.67
5.73
6.43
6.82
7.00
7.01
6.81
6.32
5.53
4.52
3.51
2.71
2.21
1.94
1.69
1.25
0.58
-0.26
-1.06
-1.66
-2.01
-2.17
-2.24
-2.30
-2.35
-2.36
-2.26
-2.04
-1.79
-1.66
-1.84
-2.47
-3.57
-5.03
-6.63
-8.08
-9.09
-9.49
-9.19
-8.19
-6.56
-4.37
-1.76
1.12
4.05
6.75
9.01
10.66
11.70
12.29
12.66
13.01
13.42
13.72
13.64
12.88
11.33
9.12
6.60
4.18
2.17
0.70
-0.25
-0.71
-0.71
-0.19
0.83
2.17
3.53
4.54
4.95
4.74
4.09
3.22
2.30
1.27
-0.00
-1.64
-3.63
-5.79
-7.89
-9.76
-11.35
-12.66
-13.71
-14.42
-14.65
-14.30
-13.44
-12.26
-11.04
-10.01
-9.22
-8.56
-7.82
-6.86
-5.67
-4.33
-2.93
-1.49
0.04
1.72
3.46
5.04
6.14
6.52
6.16
5.33
4.41
3.74
3.47
3.49
3.56
3.46
3.13
2.66
2.20
1.83
1.52
1.12
0.51
-0.34
-1.34
-2.33
-3.18
-3.86
-4.44
-5.00
-5.55
-5.99
-6.17
-5.91
-5.18
-4.05
-2.71
-1.30
0.06
1.36
2.57
3.70
4.64
5.30
5.56
5.40
4.88
4.16
3.46
2.92
2.65
2.62
2.75
2.94
3.15
3.35
3.49
3.55
3.43
3.08
2.50
1.77
1.02
0.37
-0.13
-0.51
-0.88
-1.37
-2.03
-2.85
-3.76
-4.67
-5.49
-6.19
-6.76
-7.19
-7.42
-7.35
-6.90
-6.02
-4.76
-3.24
-1.58
0.12
1.77
3.35
4.78
5.98
6.85
7.33
7.46
7.31
6.98
6.47
5.76
4.80
3.59
2.26
0.96
-0.16
-1.06
-1.72
-2.22
-2.59
-2.81
-2.87
-2.77
-2.55
-2.28
-2.05
-1.92
-1.92
-2.04
-2.28
-2.62
-3.02
-3.51
-4.11
-4.90
-5.94
-7.24
-8.67
-9.96
-10.80
-10.90
-10.18
-8.70
-6.71
-4.49
-2.28
-0.24
1.59
3.18
4.57
5.81
6.93
8.01
9.08
10.12
11.05
11.69
11.89
11.59
10.82
9.76
8.61
7.54
6.63
5.87
5.21
4.59
3.94
3.25
2.48
1.62
0.69
-0.25
-1.11
-1.84
-2.41
-2.85
-3.22
-3.57
-3.89
-4.18
-4.44
-4.70
-5.05
-5.51
-6.06
-6.57
-6.90
-6.94
-6.63
-5.98
-5.06
-3.91
-2.58
-1.14
0.29
1.61
2.71
3.58
4.28
4.87
5.39
5.82
6.03
5.98
5.65
5.16
4.65
4.16
3.65
2.99
2.07
0.91
-0.35
-1.53
-2.55
-3.46
-4.42
-5.57
-6.91
-8.29
-9.44
-10.16
-10.38
-10.18
-9.71
-9.15
-8.58
-7.98
-7.30
-6.47
-5.54
-4.64
-3.96
-3.73
-4.05
-4.81
-5.73
-6.41
-6.56
-6.04
-4.92
-3.40
-1.69
0.07
1.80
3.45
4.91
6.06
6.77
7.03
6.94
6.71
6.56
6.63
6.94
7.37
7.74
7.89
7.78
7.54
7.34
7.36
7.61
7.93
8.00
7.55
6.43
4.77
2.90
1.21
0.01
-0.57
-0.56
-0.12
0.59
1.37
2.05
2.46
2.46
1.99
1.08
-0.07
-1.23
-2.15
-2.67
-2.75
-2.45
-1.89
-1.15
-0.34
0.47
1.24
1.88
2.35
2.59
2.56
2.29
1.83
1.29
0.78
0.39
0.17
0.09
0.04
-0.08
-0.35
-0.77
-1.24
-1.63
-1.80
-1.73
-1.45
-1.11
-0.82
-0.67
-0.66
-0.71
-0.74
-0.71
-0.63
-0.55
-0.53
-0.59
-0.73
-0.92
-1.13
-1.38
-1.71
-2.16
-2.76
-3.53
-4.40
-5.29
-6.07
-6.59
-6.67
-6.20
-5.12
-3.50
-1.53
0.59
2.64
4.43
5.86
6.85
7.30
7.09
6.09
4.34
2.02
-0.46
-2.64
-4.10
-4.62
-4.17
-2.86
-0.86
1.66
4.43
7.11
9.26
10.51
10.67
9.83
8.34
6.65
5.09
3.78
2.66
1.56
0.36
-0.98
-2.41
-3.83
-5.18
-6.48
-7.79
-9.15
-10.62
-12.14
-13.65
-15.01
-16.10
-16.81
-17.05
-16.76
-15.96
-14.75
-13.29
-11.82
-10.58
-9.71
-9.20
-8.90
-8.57
-7.94
-6.83
-5.20
-3.18
-1.09
0.69
1.87
2.39
2.51
2.74
3.63
5.51
8.32
11.66
14.93
17.59
19.29
19.98
19.80
18.96
17.62
15.90
13.84
11.51
9.02
6.55
4.28
2.39
0.96
-0.03
-0.71
-1.25
-1.79
-2.38
-3.01
-3.65
-4.29
-4.97
-5.71
-6.51
-7.31
-7.98
-8.35
-8.29
-7.78
-6.83
-5.57
-4.11
-2.61
-1.15
0.18
1.40
2.54
3.63
4.65
5.52
6.10
6.30
6.08
5.58
4.96
4.40
3.95
3.62
3.31
2.96
2.58
2.23
2.01
1.91
1.85
1.70
1.31
0.58
-0.52
-1.94
-3.59
-5.30
-6.91
-8.21
-9.02
-9.22
-8.79
-7.88
-6.73
-5.66
-4.92
-4.65
-4.85
-5.41
-6.17
-6.95
-7.60
-8.00
-8.06
-7.79
-7.26
-6.60
-5.95
-5.37
-4.78
-4.01
-2.81
-0.95
1.70
5.15
9.28
13.81
18.30
22.24
25.14
26.64
26.62
25.24
22.84
19.85
16.65
13.50
10.56
7.89
5.56
3.56
1.93
0.61
-0.47
-1.44
-2.43
-3.56
-4.87
-6.32
-7.80
-9.11
-10.13
-10.80
-11.21
-11.59
-12.19
-13.22
-14.69
-16.46
-18.19
-19.47
-19.89
-19.18
-17.19
-13.97
-9.76
-4.96
-0.04
4.53
8.40
11.42
13.59
15.04
15.93
16.31
16.14
15.39
14.03
12.18
10.09
8.06
6.33
5.04
4.16
3.61
3.25
3.03
2.90
2.85
2.84
2.76
2.54
2.14
1.62
1.11
0.77
0.75
1.15
1.97
3.12
4.36
5.37
5.79
5.38
4.11
2.21
0.07
-1.94
-3.62
-5.01
-6.30
-7.64
-9.07
-10.43
-11.48
-12.01
-11.91
-11.20
-9.96
-8.29
-6.29
-4.09
-1.89
0.06
1.55
2.43
2.70
2.49
2.00
1.42
0.92
0.61
0.54
0.73
1.14
1.70
2.30
2.81
3.13
3.18
2.95
2.47
1.78
1.00
0.25
-0.33
-0.65
-0.69
-0.54
-0.38
-0.39
-0.64
-1.14
-1.78
-2.46
-3.07
-3.60
-4.04
-4.38
-4.62
-4.79
-4.96
-5.23
-5.70
-6.35
-7.10
-7.78
-8.20
-8.20
-7.69
-6.68
-5.26
-3.61
-1.92
-0.38
0.90
1.87
2.59
3.09
3.45
3.72
3.95
4.21
4.54
4.92
5.27
5.47
5.42
5.11
4.61
4.06
3.62
3.37
3.36
3.57
3.99
4.60
5.43
6.43
7.55
8.66
9.63
10.33
10.70
10.74
10.48
9.95
9.11
7.91
6.28
4.21
1.78
-0.82
-3.37
-5.70
-7.68
-9.30
-10.57
-11.54
-12.21
-12.56
-12.57
-12.25
-11.60
-10.66
-9.47
-8.05
-6.43
-4.67
-2.86
-1.12
0.44
1.73
2.75
3.50
4.02
4.34
4.48
4.47
4.35
4.17
3.96
3.76
3.57
3.40
3.29
3.26
3.33
3.49
3.68
3.82
3.85
3.69
3.34
2.82
2.15
1.36
0.49
-0.41
-1.27
-2.03
-2.66
-3.17
-3.62
-4.06
-4.54
-5.09
-5.72
-6.47
-7.36
-8.39
-9.47
-10.44
-11.09
-11.29
-11.02
-10.40
-9.62
-8.81
-7.99
-7.02
-5.77
-4.15
-2.20
-0.17
1.68
3.09
3.91
4.11
3.80
3.20
2.62
2.39
2.79
3.92
5.63
7.54
9.17
10.10
10.16
9.43
8.16
6.67
5.16
3.72
2.33
0.96
-0.40
-1.72
-2.97
-4.18
-5.39
-6.58
-7.61
-8.16
-7.85
-6.37
-3.64
0.06
4.21
8.14
11.31
13.39
14.33
14.25
13.35
11.85
9.98
7.95
5.99
4.28
2.93
1.87
0.92
-0.15
-1.50
-3.10
-4.72
-5.99
-6.61
-6.48
-5.75
-4.74
-3.80
-3.13
-2.75
-2.50
-2.15
-1.48
-0.36
1.22
3.20
5.37
7.49
9.26
10.44
10.87
10.59
9.76
8.64
7.48
6.37
5.32
4.22
2.96
1.53
0.02
-1.44
-2.75
-3.87
-4.84
-5.67
-6.30
-6.63
-6.57
-6.15
-5.53
-4.97
-4.67
-4.71
-5.01
-5.41
-5.78
-6.08
-6.38
-6.72
-7.09
-7.33
-7.25
-6.70
-5.66
-4.33
-2.97
-1.89
-1.24
-1.06
-1.27
-1.74
-2.31
-2.86
-3.28
-3.50
-3.49
-3.35
-3.25
-3.42
-3.98
-4.94
-6.14
-7.34
-8.31
-8.93
-9.19
-9.17
-8.96
-8.63
-8.19
-7.59
-6.79
-5.74
-4.45
-2.90
-1.15
0.73
2.67
4.58
6.38
7.95
9.18
9.94
10.17
9.88
9.13
8.07
6.85
5.58
4.30
3.04
1.82
0.68
-0.28
-0.98
-1.35
-1.36
-1.03
-0.38
0.55
1.73
3.12
4.62
6.16
7.65
8.99
10.12
10.97
11.45
11.50
11.11
10.32
9.25
8.08
6.99
6.10
5.50
5.16
5.03
5.02
5.02
4.97
4.85
4.67
4.42
4.11
3.71
3.22
2.66
2.11
1.68
1.44
1.39
1.48
1.58
1.56
1.31
0.84
0.27
-0.22
-0.38
-0.05
0.82
2.05
3.30
4.18
4.37
3.78
2.53
0.89
-0.80
-2.30
-3.46
-4.27
-4.76
-4.99
-5.05
-5.02
-4.97
-4.96
-5.02
-5.12
-5.21
-5.26
-5.26
-5.23
-5.19
-5.14
-4.99
-4.59
-3.77
-2.41
-0.53
1.65
3.77
5.44
6.37
6.45
5.81
4.66
3.27
1.85
0.52
-0.63
-1.53
-2.17
-2.56
-2.86
-3.32
-4.22
-5.74
-7.82
-10.16
-12.24
-13.56
-13.78
-12.83
-10.94
-8.47
-5.84
-3.37
-1.24
0.49
1.81
2.78
3.49
4.04
4.54
5.01
5.41
5.64
5.58
5.21
4.58
3.83
3.16
2.78
2.83
3.38
4.37
5.58
6.70
7.37
7.33
6.54
5.17
3.52
1.92
0.57
-0.47
-1.29
-2.03
-2.80
-3.64
-4.51
-5.38
-6.24
-7.14
-8.10
-9.13
-10.14
-10.96
-11.42
-11.40
-10.87
-9.91
-8.65
-7.25
-5.84
-4.51
-3.35
-2.46
-2.00
-2.07
-2.70
-3.86
-5.38
-7.07
-8.70
-10.03
-10.88
-11.11
-10.74
-9.89
-8.82
-7.81
-7.11
-6.87
-7.02
-7.38
-7.60
-7.28
-6.03
-3.61
-0.08
4.21
8.58
12.23
14.46
14.89
13.59
11.04
7.94
5.06
3.09
2.47
3.38
5.67
8.91
12.50
15.79
18.33
20.00
20.93
21.42
21.71
21.89
21.88
21.54
20.78
19.62
18.12
16.38
14.43
12.28
10.00
7.68
5.46
3.43
1.61
-0.08
-1.77
-3.57
-5.55
-7.71
-9.95
-12.11
-13.96
-15.32
-16.09
-16.33
-16.29
-16.31
-16.73
-17.75
-19.37
-21.36
-23.39
-25.07
-26.10
-26.33
-25.75
-24.46
-22.64
-20.44
-17.98
-15.38
-12.70
-9.94
-7.13
-4.28
-1.52
0.96
2.91
4.14
4.64
4.58
4.28
4.06
4.17
4.75
5.87
7.56
9.90
12.87
16.38
20.18
23.87
27.04
29.26
30.22
29.75
27.82
