1650964534.00
64.000000
-0.00
-0.00
-0.00
-0.00
-0.00
-0.00
-0.00
-0.00
-0.00
-0.00
0.00
0.01
0.01
-0.00
-0.03
-0.05
-0.05
0.00
0.13
0.36
0.66
1.01
1.37
1.72
2.06
2.40
2.79
3.24
3.80
4.42
5.06
5.66
6.20
6.68
7.15
7.68
8.31
9.14
10.09
11.04
11.88
12.56
13.14
13.76
14.65
15.96
17.91
20.32
22.90
25.38
27.58
29.57
31.68
34.32
37.81
42.54
48.15
54.10
59.83
64.97
69.58
74.14
79.34
85.71
93.76
103.00
112.62
121.73
129.77
136.75
143.30
150.75
157.77
166.64
177.95
191.79
206.97
220.57
228.25
225.36
208.53
176.87
132.76
80.05
23.07
-34.94
-92.44
-149.16
-205.23
-260.37
-313.74
-363.87
-409.83
-450.91
-486.50
-515.74
-537.23
-549.22
-549.96
-538.37
-514.21
-478.67
-433.88
-382.45
-327.02
-269.84
-212.63
-156.66
-102.95
-52.37
-5.90
35.58
71.43
101.35
125.50
144.38
158.69
169.15
176.37
180.75
182.57
182.07
179.51
175.23
169.65
163.18
156.15
148.81
141.30
133.69
126.02
118.33
110.69
103.16
95.80
88.68
81.83
75.25
68.95
62.95
57.25
51.86
46.78
42.03
37.59
33.45
29.61
26.07
22.81
19.83
17.11
14.67
12.48
10.54
8.83
7.35
6.07
4.98
4.05
3.26
2.61
2.08
1.65
1.32
1.05
0.83
0.63
0.43
0.22
0.03
-0.13
-0.23
-0.28
-0.28
-0.26
-0.26
-0.30
-0.38
-0.47
-0.54
-0.56
-0.52
-0.44
-0.37
-0.36
-0.47
-0.67
-0.91
-1.10
-1.16
-1.08
-0.90
-0.76
-0.81
-1.13
-1.70
-2.38
-2.93
-3.18
-3.06
-2.70
-2.38
-2.42
-3.01
-4.12
-5.44
-6.53
-7.02
-6.80
-6.08
-5.36
-5.20
-5.91
-7.47
-9.39
-11.03
-11.85
-11.66
-10.70
-9.50
-8.68
-8.68
-9.86
-12.33
-15.88
-19.67
-22.06
-20.96
-14.59
-2.50
13.84
31.34
46.44
56.42
60.44
59.42
55.27
49.77
43.91
37.95
31.65
25.07
18.63
12.87
8.07
4.13
0.68
-2.66
-6.13
-9.60
-12.76
-15.25
-16.79
-17.36
-17.16
-16.64
-16.30
-16.44
-16.93
-17.24
-16.61
-14.41
-10.53
-5.50
-0.29
3.98
6.55
7.19
6.27
4.43
2.30
0.27
-1.59
-3.32
-4.96
-6.45
-7.63
-8.30
-8.37
-8.03
-7.55
-7.26
-7.32
-7.66
-8.09
-8.44
-8.62
-8.75
-9.09
-9.88
-11.24
-13.10
-15.26
-17.33
-18.89
-19.37
-18.25
-15.28
-10.56
-4.58
1.94
8.34
14.28
19.27
23.10
25.76
27.22
27.41
26.27
23.88
20.57
16.83
13.19
10.04
7.53
5.50
3.72
1.98
0.22
-1.52
-3.20
-4.87
-6.60
-8.55
-10.85
-13.62
-16.94
-20.87
-25.39
-30.33
-35.24
-39.31
-41.52
-41.00
-37.33
-30.75
-22.06
-12.38
-2.71
6.25
14.16
20.85
26.13
29.72
31.39
31.13
29.32
26.65
23.89
21.68
20.28
19.59
19.23
18.72
17.71
16.02
13.72
10.98
8.10
5.26
2.53
-0.16
-3.03
-6.30
-10.17
-14.76
-20.03
-25.71
-31.28
-35.92
-38.70
-38.80
-35.79
-29.80
-21.52
-12.01
-2.37
6.55
14.25
20.57
25.48
29.00
31.07
31.68
30.93
29.15
26.83
24.47
22.48
20.91
19.60
18.21
16.48
14.35
11.97
9.60
7.40
5.37
3.34
1.04
-1.71
-5.01
-8.84
-13.18
-18.00
-23.13
-28.20
-32.58
-35.41
-35.91
-33.57
-28.42
-21.02
-12.26
-3.15
5.50
13.11
19.39
24.19
27.45
29.19
29.51
28.65
26.98
24.99
23.12
21.67
20.72
20.05
19.32
18.19
16.46
14.16
11.53
8.84
6.31
3.98
1.74
-0.64
-3.39
-6.67
-10.56
-15.04
-19.96
-24.93
-29.34
-32.32
-33.04
-30.93
-25.98
-18.73
-10.16
-1.36
6.81
13.84
19.51
23.76
26.51
27.69
27.31
25.67
23.28
20.77
18.69
17.30
16.54
16.12
15.67
14.88
13.56
11.68
9.35
6.75
4.11
1.61
-0.65
-2.74
-4.85
-7.28
-10.32
-14.12
-18.57
-23.27
-27.50
-30.39
-31.14
-29.28
-24.82
-18.28
-10.53
-2.55
4.86
11.21
16.25
19.89
22.05
22.68
21.84
19.81
17.12
14.42
12.23
10.79
9.95
9.28
8.36
6.96
5.11
3.09
1.18
-0.40
-1.69
-2.89
-4.31
-6.26
-8.97
-12.50
-16.71
-21.19
-25.31
-28.31
-29.50
-28.40
-24.97
-19.55
-12.80
-5.51
1.61
7.98
13.19
16.96
19.10
19.58
18.54
16.37
13.62
10.84
8.48
6.68
5.35
4.17
2.89
1.38
-0.28
-1.93
-3.42
-4.76
-6.11
-7.74
-9.91
-12.78
-16.34
-20.40
-24.57
-28.26
-30.78
-31.48
-29.90
-25.98
-20.06
-12.87
-5.24
2.05
8.38
13.40
16.90
18.83
19.27
18.42
16.64
14.33
11.91
9.63
7.62
5.81
4.12
2.44
0.80
-0.76
-2.19
-3.50
-4.80
-6.32
-8.32
-11.00
-14.44
-18.46
-22.63
-26.28
-28.61
-28.93
-26.83
-22.37
-16.06
-8.70
-1.18
5.73
11.52
15.92
18.83
20.24
20.24
19.04
17.01
14.57
12.15
9.99
8.16
6.51
4.87
3.11
1.23
-0.64
-2.34
-3.76
-4.95
-6.13
-7.62
-9.77
-12.78
-16.66
-21.10
-25.52
-29.17
-31.28
-31.22
-28.77
-24.05
-17.59
-10.09
-2.30
5.18
11.89
17.55
21.94
24.84
26.13
25.78
24.03
21.33
18.26
15.40
13.09
11.42
10.19
9.07
7.79
6.17
4.23
2.11
-0.06
-2.15
-4.16
-6.13
-8.16
-10.45
-13.22
-16.69
-20.95
-25.74
-30.45
-34.17
-35.93
-35.04
-31.35
-25.28
-17.70
-9.54
-1.62
5.57
11.77
16.80
20.47
22.53
22.89
21.67
19.30
16.38
13.55
11.26
9.66
8.63
7.89
7.16
6.25
5.15
3.93
2.66
1.37
-0.09
-1.92
-4.31
-7.33
-10.97
-15.09
-19.50
-23.93
-27.99
-31.13
-32.69
-32.08
-28.99
-23.56
-16.34
-8.19
0.05
7.71
14.38
19.82
23.87
26.33
27.10
26.24
24.08
21.20
18.25
15.81
14.14
13.20
12.60
11.93
10.84
9.19
7.10
4.78
2.45
0.24
-1.84
-3.90
-6.11
-8.68
-11.78
-15.50
-19.80
-24.41
-28.82
-32.29
-34.07
-33.51
-30.35
-24.78
-17.41
-9.07
-0.64
7.23
14.06
19.61
23.70
26.25
27.22
26.76
25.16
22.89
20.44
18.21
16.46
15.26
14.51
13.98
13.35
12.34
10.74
8.57
6.03
3.42
0.97
-1.24
-3.31
-5.49
-7.96
-10.88
-14.29
-18.18
-22.44
-26.71
-30.38
-32.55
-32.38
-29.33
-23.53
-15.71
-7.00
1.46
8.92
15.04
19.82
23.36
25.66
26.67
26.39
25.01
22.96
20.72
18.73
17.17
16.00
15.08
14.26
13.45
12.63
11.71
10.56
8.99
6.89
4.32
1.46
-1.38
-3.99
-6.35
-8.63
-11.15
-14.27
-18.19
-22.80
-27.63
-31.82
-34.37
-34.44
-31.62
-26.09
-18.62
-10.26
-2.04
5.31
11.40
16.10
19.36
21.11
21.37
20.26
18.17
15.69
13.38
11.65
10.56
9.91
9.34
8.54
7.34
5.79
4.07
2.39
0.92
-0.30
-1.40
-2.59
-4.18
-6.47
-9.72
-13.95
-18.88
-23.89
-28.08
-30.51
-30.50
-27.82
-22.75
-16.01
-8.46
-0.89
6.09
12.08
16.77
19.93
21.43
21.31
19.81
17.42
14.70
12.15
10.13
8.70
7.73
6.97
6.14
5.02
3.55
1.78
-0.14
-2.07
-3.97
-5.95
-8.24
-11.15
-14.90
-19.50
-24.63
-29.66
-33.74
-36.05
-35.97
-33.31
-28.29
-21.49
-13.63
-5.41
2.57
9.84
16.02
20.76
23.80
25.01
24.47
22.54
19.74
16.66
13.81
11.45
9.59
8.04
6.55
4.94
3.20
1.42
-0.24
-1.73
-3.15
-4.79
-6.99
-10.09
-14.23
-19.32
-24.94
-30.38
-34.68
-36.90
-36.33
-32.77
-26.61
-18.69
-10.06
-1.66
5.93
12.47
17.94
22.31
25.46
27.19
27.42
26.28
24.18
21.72
19.42
17.57
16.17
14.96
13.61
11.86
9.66
7.16
4.59
2.15
-0.05
-2.10
-4.19
-6.61
-9.65
-13.56
-18.39
-24.04
-30.16
-36.19
-41.33
-44.71
-45.53
-43.30
-38.02
-30.21
-20.84
-11.05
-1.85
6.16
12.76
18.04
22.19
25.24
27.11
27.68
26.98
25.26
22.96
20.60
18.54
16.91
15.59
14.36
12.98
11.34
9.47
7.46
5.41
3.34
1.23
-1.03
-3.55
-6.44
-9.82
-13.80
-18.51
-23.97
-29.97
-35.90
-40.82
-43.58
-43.22
-39.31
-32.13
-22.61
-12.06
-1.70
7.56
15.32
21.46
26.04
29.12
30.73
30.95
30.00
28.24
26.13
24.13
22.54
21.48
20.86
20.45
19.91
18.94
17.36
15.12
12.36
9.28
6.10
2.96
-0.11
-3.20
-6.42
-9.94
-13.92
-18.51
-23.67
-29.12
-34.22
-38.05
-39.62
-38.20
-33.57
-26.15
-16.85
-6.84
2.83
11.43
18.55
24.08
28.04
30.49
31.50
31.23
29.92
28.00
25.94
24.16
22.89
22.13
21.59
20.93
19.82
18.14
15.98
13.57
11.14
8.80
6.49
4.06
1.39
-1.62
-4.97
-8.72
-12.98
-17.87
-23.34
-28.99
-33.99
-37.21
-37.59
-34.52
-28.18
-19.42
-9.53
0.23
8.97
16.27
22.05
26.33
29.17
30.53
30.51
29.32
27.36
25.10
22.92
21.05
19.53
18.29
17.19
16.07
14.83
13.39
11.73
9.87
7.86
5.70
3.38
0.87
-1.88
-4.92
-8.33
-12.24
-16.76
-21.86
-27.20
-32.07
-35.53
-36.58
-34.56
-29.43
-21.81
-12.73
-3.36
5.35
12.80
18.73
23.00
25.56
26.37
25.55
23.48
20.77
18.15
16.17
15.06
14.59
14.29
13.64
12.28
10.21
7.71
5.20
3.06
1.38
0.02
-1.40
-3.31
-6.01
-9.63
-14.12
-19.20
-24.43
-29.15
-32.56
-33.85
-32.40
-28.11
-21.40
-13.20
-4.62
3.38
10.18
15.53
19.40
21.81
22.75
22.25
20.46
17.75
14.71
11.88
9.64
8.05
6.85
5.67
4.23
2.43
0.41
-1.60
-3.46
-5.19
-7.00
-9.18
-12.02
-15.71
-20.21
-25.27
-30.33
-34.60
-37.20
-37.35
-34.63
-29.12
-21.38
-12.36
-3.13
5.41
12.58
18.04
21.64
23.46
23.63
22.41
20.18
17.37
14.46
11.83
9.62
7.77
6.03
4.21
2.21
0.14
-1.83
-3.61
-5.30
-7.18
-9.61
-12.94
-17.34
-22.72
-28.65
-34.37
-38.83
-40.95
-39.94
-35.58
-28.34
-19.25
-9.53
-0.24
7.92
14.66
19.86
23.44
25.29
25.38
23.92
21.40
18.50
15.82
13.71
12.13
10.75
9.19
7.20
4.79
2.16
-0.41
-2.82
-5.16
-7.70
-10.80
-14.75
-19.68
-25.38
-31.34
-36.65
-40.28
-41.25
-39.00
-33.59
-25.70
-16.39
-6.70
2.56
10.92
18.18
24.15
28.54
31.09
31.67
30.48
28.08
25.17
22.40
20.17
18.50
17.20
15.93
14.39
12.39
9.95
7.18
4.31
1.54
-1.05
-3.54
-6.13
-9.13
-12.84
-17.46
-22.99
-29.15
-35.30
-40.48
-43.61
-43.75
-40.42
-33.82
-24.77
-14.44
-3.98
5.75
14.32
21.51
27.24
31.40
33.90
34.76
34.22
32.66
30.57
28.38
26.38
24.71
23.34
22.14
20.89
19.40
17.50
15.19
12.53
9.64
6.63
3.54
0.34
-3.02
-6.57
-10.36
-14.52
-19.22
-24.59
-30.51
-36.45
-41.47
-44.39
-44.18
-40.36
-33.21
-23.66
-12.97
-2.37
7.27
15.48
22.14
27.23
30.70
32.49
32.60
31.25
28.91
26.22
23.75
21.88
20.65
19.83
19.08
18.05
16.59
14.67
12.41
9.95
7.41
4.83
2.20
-0.56
-3.54
-6.88
-10.69
-15.06
-20.03
-25.48
-30.99
-35.83
-39.02
-39.59
-36.92
-31.01
-22.54
-12.62
-2.49
6.90
15.00
21.54
26.43
29.59
30.93
30.50
28.60
25.78
22.71
19.96
17.89
16.52
15.59
14.75
13.67
12.13
10.08
7.61
4.88
2.06
-0.78
-3.62
-6.51
-9.60
-13.05
-17.04
-21.71
-27.06
-32.76
-38.16
-42.25
-44.00
-42.61
-37.85
-30.16
-20.51
-10.09
0.03
9.14
16.87
23.09
27.74
30.77
32.13
31.95
30.51
28.33
25.94
23.84
22.26
21.20
20.43
19.59
18.41
16.66
14.29
11.40
8.17
4.80
1.45
-1.80
-5.00
-8.26
-11.77
-15.70
-20.23
-25.44
-31.27
-37.35
-42.98
-47.17
-48.80
-47.07
-41.70
-33.18
-22.60
-11.33
-0.58
8.84
16.61
22.73
27.30
30.37
31.97
32.17
31.22
29.54
27.59
25.74
24.18
22.92
21.86
20.82
19.65
18.23
16.45
14.24
11.61
8.64
5.42
2.13
-1.17
-4.43
-7.72
-11.20
-15.09
-19.64
-24.97
-30.95
-37.02
-42.24
-45.43
-45.53
-42.04
-35.10
-25.59
-14.78
-3.94
5.93
14.28
20.91
25.86
29.17
30.92
31.19
30.17
28.23
25.83
23.49
21.59
20.30
19.52
18.94
18.22
17.05
15.32
13.08
10.49
7.74
4.98
2.23
-0.50
-3.30
-6.28
-9.60
-13.49
-18.14
-23.64
-29.75
-35.84
-40.84
-43.58
-43.08
-38.92
-31.47
-21.78
-11.23
-1.08
7.83
15.21
21.10
25.65
28.90
30.74
31.05
29.88
27.56
24.66
21.76
19.34
17.53
16.21
15.06
13.74
12.06
9.94
7.48
4.82
2.13
-0.51
-3.08
-5.62
-8.28
-11.24
-14.76
-19.07
-24.22
-29.97
-35.65
-40.24
-42.63
-41.95
-37.91
-30.92
-21.93
-12.17
-2.71
5.70
12.73
18.27
22.25
24.58
25.17
24.06
21.60
18.39
15.15
12.47
10.63
9.57
8.92
8.26
7.26
5.80
3.94
1.85
-0.35
-2.62
-5.04
-7.76
-10.93
-14.69
-19.13
-24.20
-29.60
-34.68
-38.52
-40.15
-38.88
-34.54
-27.62
-19.01
-9.79
-0.83
7.32
14.32
19.96
23.97
26.11
26.28
24.72
21.99
18.88
16.12
14.17
13.03
12.37
11.66
10.46
8.55
6.09
3.42
0.87
-1.39
-3.48
-5.77
-8.67
-12.49
-17.39
-23.22
-29.59
-35.83
-40.97
-44.00
-44.10
-40.90
-34.67
-26.27
-16.79
-7.28
1.62
9.63
16.69
22.71
27.43
30.49
31.58
30.76
28.47
25.45
22.48
20.09
18.44
17.28
16.19
14.76
12.82
10.50
8.05
5.74
3.63
1.54
-0.86
-3.88
-7.70
-12.36
-17.75
-23.59
-29.38
-34.36
-37.59
-38.15
-35.50
-29.72
-21.53
-12.05
-2.41
6.60
14.56
21.34
26.85
30.90
33.21
33.65
32.37
29.90
26.97
24.31
22.35
21.11
20.27
19.34
17.92
15.87
13.35
10.69
8.20
6.00
3.94
1.73
-0.97
-4.37
-8.59
-13.55
-19.08
-24.88
-30.38
-34.81
-37.29
-37.05
-33.76
-27.69
-19.63
-10.64
-1.68
6.62
13.94
20.14
25.05
28.40
29.95
29.61
27.72
24.89
21.89
19.29
17.38
16.09
15.09
14.04
12.69
11.01
9.10
7.11
5.15
3.19
1.10
-1.36
-4.36
-8.03
-12.39
-17.28
-22.36
-27.12
-30.88
-32.90
-32.58
-29.64
-24.26
-17.04
-8.83
-0.51
7.22
13.90
19.26
23.11
25.29
25.76
24.63
22.32
19.45
16.63
14.34
12.68
11.45
10.27
8.79
6.91
4.73
2.46
0.30
-1.70
-3.64
-5.73
-8.20
-11.33
-15.29
-20.14
-25.60
-31.06
-35.56
-38.05
-37.73
-34.37
-28.33
-20.45
-11.68
-2.84
5.51
12.99
19.29
24.06
26.99
27.92
27.03
24.80
21.91
19.04
16.66
14.90
13.61
12.42
11.02
9.24
7.13
4.90
2.73
0.71
-1.26
-3.40
-5.96
-9.14
-13.11
-17.88
-23.29
-28.86
-33.79
-37.14
-38.00
-35.92
-30.99
-23.88
-15.51
-6.81
1.59
9.30
16.06
21.63
25.68
27.96
28.43
27.35
25.24
22.75
20.44
18.59
17.20
16.01
14.70
13.03
10.95
8.59
6.19
3.97
2.00
0.19
-1.76
-4.16
-7.25
-11.16
-15.86
-21.15
-26.65
-31.77
-35.76
-37.79
-37.22
-33.79
-27.80
-19.98
-11.32
-2.74
5.13
11.98
17.70
22.22
25.40
27.07
27.21
26.04
24.03
21.73
19.68
18.09
16.91
15.88
14.69
13.13
11.22
9.08
6.92
4.90
3.03
1.18
-0.91
-3.51
-6.85
-11.04
-16.00
-21.46
-26.87
-31.47
-34.38
-34.86
-32.46
-27.30
-19.99
-11.52
-2.89
5.13
12.10
17.87
22.36
25.43
26.91
26.70
25.00
22.34
19.43
16.92
15.09
13.85
12.81
11.57
9.96
8.11
6.29
4.77
3.56
2.43
1.01
-1.08
-4.00
-7.79
-12.31
-17.31
-22.35
-26.83
-30.00
-31.11
-29.67
-25.64
-19.48
-11.97
-4.02
3.61
10.37
15.88
19.86
22.16
22.71
21.70
19.53
16.76
13.95
11.52
9.63
8.22
7.09
5.99
4.77
3.37
1.82
0.21
-1.39
-2.98
-4.70
-6.80
-9.56
-13.21
-17.77
-22.89
-27.89
-31.85
-33.88
-33.39
-30.28
-24.96
-18.16
-10.66
-3.14
4.01
10.50
16.07
20.38
23.07
23.92
23.05
20.90
18.17
15.58
13.57
12.17
11.08
9.84
8.11
5.85
3.30
0.89
-1.06
-2.49
-3.65
-4.99
-6.99
-9.95
-13.95
-18.81
-24.13
-29.29
-33.51
-35.93
-35.85
-32.94
-27.42
-20.00
-11.68
-3.41
4.13
10.59
15.84
19.83
22.44
23.58
23.27
21.76
19.53
17.14
15.06
13.48
12.33
11.28
9.99
8.33
6.33
4.23
2.27
0.56
-1.03
-2.78
-5.04
-8.08
-11.99
-16.65
-21.75
-26.72
-30.82
-33.20
-33.18
-30.41
-25.06
-17.79
-9.56
-1.30
6.29
12.80
18.03
21.83
24.03
24.55
23.50
21.26
18.44
15.66
13.36
11.66
10.38
9.21
7.84
6.20
4.39
2.64
1.12
-0.15
-1.37
-2.90
-5.10
-8.27
-12.46
-17.43
-22.62
-27.19
-30.24
-31.00
-29.08
-24.60
-18.15
-10.60
-2.82
4.50
10.96
16.26
20.19
22.50
23.04
21.88
19.43
16.32
13.20
10.52
8.42
6.78
5.37
4.02
2.68
1.38
0.14
-1.13
-2.55
-4.31
-6.56
-9.46
-13.07
-17.37
-22.07
-26.62
-30.18
-31.85
-30.97
-27.34
-21.31
-13.67
-5.40
2.62
9.72
15.49
19.69
22.23
23.07
22.31
20.23
17.25
13.88
10.61
7.77
5.51
3.74
2.23
0.72
-0.96
-2.88
-4.98
-7.14
-9.34
-11.69
-14.45
-17.92
-22.22
-27.08
-31.77
-35.22
-36.39
-34.64
-29.94
-22.88
-14.43
-5.64
2.67
9.97
15.95
20.42
23.22
24.31
23.80
22.03
19.51
16.75
14.12
11.80
9.74
7.84
5.97
4.07
2.13
0.15
-1.89
-4.08
-6.57
-9.55
-13.26
-17.82
-23.15
-28.85
-34.14
-37.99
-39.46
-37.94
-33.39
-26.33
-17.63
-8.23
1.04
9.58
16.99
22.92
27.09
29.31
29.59
28.19
25.62
22.50
19.42
16.73
14.47
12.48
10.51
8.42
6.26
4.22
2.45
0.95
-0.52
-2.35
-4.94
-8.54
-13.18
-18.63
-24.41
-29.82
-33.99
-36.07
-35.36
-31.60
-25.08
-16.56
-7.09
2.30
10.82
17.97
23.54
27.42
29.62
30.25
29.50
27.73
25.40
22.95
20.68
18.74
17.07
15.50
13.84
12.00
9.98
7.87
5.75
3.67
1.51
-0.95
-4.04
-8.03
-13.02
-18.75
-24.62
-29.68
-32.90
-33.44
-30.90
-25.45
-17.81
-8.95
0.10
8.53
15.81
21.62
25.77
28.11
28.58
27.35
24.81
21.57
18.30
15.49
13.34
11.70
10.31
8.88
7.30
5.59
3.89
2.26
0.67
-1.09
-3.30
-6.25
-10.18
-15.11
-20.73
-26.38
-31.14
-34.01
-34.23
-31.48
-25.94
-18.26
-9.31
0.01
8.89
16.68
22.85
27.02
29.03
28.95
27.15
24.19
20.76
17.46
14.66
12.46
10.69
9.10
7.44
5.61
3.69
1.78
0.02
-1.65
-3.41
-5.63
-8.67
-12.83
-18.12
-24.17
-30.23
-35.26
-38.19
-38.22
-35.10
-29.11
-21.02
-11.78
-2.30
6.69
14.68
21.30
26.24
29.29
30.39
29.72
27.72
24.96
22.06
19.45
17.33
15.66
14.21
12.71
10.95
8.87
6.53
4.13
1.81
-0.38
-2.54
-4.87
-7.66
-11.13
-15.45
-20.52
-26.00
-31.20
-35.20
-37.04
-35.98
-31.79
-24.90
-16.20
-6.84
2.24
10.44
17.46
23.19
27.48
30.15
31.05
30.32
28.38
25.84
23.36
21.35
19.92
18.92
18.05
17.07
15.80
14.19
12.25
10.03
7.59
5.00
2.31
-0.49
-3.49
-6.87
-10.85
-15.58
-21.02
-26.80
-32.19
-36.23
-38.00
-36.90
-32.87
-26.34
-18.11
-9.07
-0.01
8.49
15.93
21.94
26.19
28.52
29.03
28.05
26.09
23.71
21.34
19.26
17.55
16.20
15.07
13.99
12.78
11.34
9.64
7.78
5.89
4.04
2.16
0.05
-2.58
-5.99
-10.30
-15.39
-20.87
-26.09
-30.17
-32.26
-31.74
-28.41
-22.58
-14.98
-6.57
1.74
9.27
15.54
20.30
23.37
24.66
24.20
22.27
19.39
16.18
13.27
11.03
9.55
8.57
7.72
6.65
5.19
3.42
1.55
-0.19
-1.68
-3.05
-4.62
-6.76
-9.80
-13.85
-18.69
-23.77
-28.29
-31.35
-32.14
-30.21
-25.55
-18.68
-10.46
-1.85
6.23
13.10
18.32
21.66
23.11
22.81
21.10
18.46
15.44
12.53
10.03
8.03
6.44
5.07
3.74
2.34
0.83
-0.71
-2.27
-3.84
-5.58
-7.72
-10.55
-14.23
-18.75
-23.71
-28.46
-32.15
-33.94
-33.23
-29.84
-24.03
-16.47
-8.05
0.36
8.05
14.50
19.40
22.58
23.98
23.74
22.16
19.73
17.00
14.47
12.42
10.87
9.61
8.38
6.96
5.28
3.42
1.51
-0.34
-2.11
-3.94
-6.05
-8.79
-12.45
-17.12
-22.53
-27.98
-32.42
-34.73
-34.07
-30.22
-23.65
-15.34
-6.45
2.06
9.60
15.92
20.97
24.65
26.80
27.27
26.13
23.70
20.56
17.42
14.77
12.81
11.34
9.95
8.24
6.09
3.69
1.44
-0.31
-1.51
-2.44
-3.64
-5.63
-8.75
-13.00
-18.13
-23.64
-28.90
-33.17
-35.65
-35.70
-32.94
-27.49
-19.95
-11.23
-2.30
6.04
13.20
18.86
22.85
25.06
25.54
24.50
22.34
19.62
16.85
14.42
12.46
10.88
9.44
7.93
6.24
4.41
2.57
0.85
-0.74
-2.36
-4.28
-6.79
-10.14
-14.36
-19.20
-24.12
-28.33
-30.94
-31.23
-28.86
-24.02
-17.36
-9.77
-2.10
5.00
11.16
16.13
19.75
21.80
22.20
21.04
18.70
15.72
12.65
9.90
7.59
5.64
3.88
2.18
0.52
-1.07
-2.55
-4.01
-5.59
-7.55
-10.09
-13.39
-17.46
-22.13
-26.91
-31.10
-33.83
-34.32
-32.10
-27.21
-20.21
-11.97
-3.48
4.46
11.34
16.90
20.97
23.43
24.22
23.39
21.24
18.29
15.17
12.44
10.34
8.84
7.65
6.40
4.85
2.97
0.94
-1.02
-2.77
-4.42
-6.27
-8.75
-12.24
-16.86
-22.35
-28.05
-32.98
-36.09
-36.53
-33.93
-28.51
-20.99
-12.34
-3.51
4.81
12.19
18.37
23.13
26.25
27.59
27.20
25.39
22.70
19.74
17.02
14.75
12.91
11.31
9.70
7.95
6.06
4.12
2.26
0.57
-1.00
-2.65
-4.63
-7.25
-10.73
-15.16
-20.37
-25.86
-30.86
-34.39
-35.59
-33.96
-29.54
-22.85
-14.76
-6.16
2.21
9.86
16.47
21.79
25.61
27.75
28.16
27.04
24.77
21.89
18.96
16.41
14.44
13.02
11.96
10.97
9.84
8.47
6.90
5.18
3.36
1.35
-0.99
-3.85
-7.41
-11.73
-16.72
-22.05
-27.11
-31.05
-33.03
-32.40
-28.98
-23.11
-15.52
-7.09
1.36
9.21
15.99
21.30
24.83
26.38
26.03
24.19
21.50
18.67
16.20
14.29
12.81
11.48
10.02
8.31
6.40
4.42
2.53
0.75
-1.03
-3.02
-5.47
-8.59
-12.47
-17.05
-22.04
-26.86
-30.74
-32.84
-32.46
-29.32
-23.66
-16.19
-7.82
0.51
8.11
14.53
19.49
22.83
24.40
24.22
22.50
19.69
16.44
13.32
10.73
8.79
7.33
6.09
4.83
3.45
1.97
0.44
-1.14
-2.89
-5.09
-8.01
-11.90
-16.74
-22.21
-27.59
-31.90
-34.14
-33.59
-30.09
-24.03
-16.28
-7.78
0.62
8.35
15.03
20.37
24.06
25.82
25.59
23.57
20.35
16.69
13.29
10.58
8.66
7.35
6.30
5.22
3.95
2.44
0.71
-1.23
-3.46
-6.17
-9.56
-13.78
-18.77
-24.18
-29.35
-33.39
-35.43
-34.79
-31.25
-25.12
-17.13
-8.26
0.54
8.55
15.30
20.58
24.25
26.27
26.65
25.58
23.47
20.89
18.39
16.32
14.74
13.38
11.91
10.07
7.88
5.53
3.32
1.39
-0.38
-2.31
-4.86
-8.39
-13.05
-18.61
-24.52
-29.91
-33.82
-35.41
-34.14
-29.98
-23.36
-15.07
-6.01
2.99
11.26
18.38
24.03
28.00
30.20
30.67
29.64
27.57
24.98
22.42
20.21
18.47
17.04
15.65
14.08
12.19
10.07
7.89
5.78
3.76
1.67
-0.77
-3.84
-7.76
-12.55
-18.05
-23.90
-29.52
-34.16
-37.00
-37.36
-34.87
-29.60
-22.08
-13.13
-3.70
5.42
13.60
20.43
25.57
28.79
30.00
29.34
27.22
24.33
21.36
18.84
16.98
15.62
14.46
13.16
11.58
9.74
7.79
5.87
4.04
2.20
0.18
-2.25
-5.34
-9.29
-14.18
-19.84
-25.74
-31.02
-34.57
-35.43
-33.04
-27.52
-19.61
-10.43
-1.15
7.34
14.48
20.02
23.88
26.05
26.59
25.66
23.62
20.95
18.17
15.73
13.82
12.41
11.26
10.04
8.47
6.46
4.09
1.59
-0.84
-3.16
-5.50
-8.21
-11.66
-16.08
-21.37
-27.02
-32.18
-35.79
-36.92
-35.05
-30.22
-22.99
-14.27
-5.03
3.95
12.08
18.98
24.30
27.76
29.19
28.68
26.58
23.51
20.17
17.08
14.60
12.78
11.50
10.50
9.48
8.22
6.55
4.45
2.05
-0.52
-3.15
-5.90
-8.97
-12.66
-17.17
-22.51
-28.34
-33.95
-38.40
-40.71
-40.17
-36.57
-30.22
-21.94
-12.71
-3.44
5.25
13.02
19.69
25.07
28.91
30.97
31.21
29.86
27.41
24.49
21.69
19.36
17.58
16.18
14.91
13.48
11.79
9.85
7.80
5.74
3.66
1.38
-1.36
-4.78
-8.97
-13.83
-19.13
-24.59
-29.88
-34.52
-37.85
-39.16
-37.81
-33.59
-26.80
-18.19
-8.78
0.54
9.09
16.52
22.64
27.29
30.32
31.63
31.29
29.61
27.11
24.39
21.98
20.20
19.15
18.65
18.39
17.97
17.10
15.59
13.41
10.66
7.53
4.18
0.74
-2.73
-6.20
-9.72
-13.43
-17.51
-22.11
-27.22
-32.53
-37.32
-40.61
-41.43
-39.13
-33.71
-25.80
-16.48
-6.89
2.08
9.95
16.57
21.88
25.82
28.23
29.03
28.32
26.47
24.04
21.61
19.61
18.19
17.26
16.54
15.73
14.58
13.02
11.08
8.92
6.70
4.55
2.43
0.19
-2.39
-5.51
-9.29
-13.73
-18.77
-24.19
-29.59
-34.29
-37.43
-38.12
-35.77
-30.37
-22.50
-13.26
-3.85
4.78
12.09
17.89
22.19
25.00
26.24
25.91
24.19
21.53
18.58
15.95
14.03
12.85
12.10
11.36
10.32
8.86
7.09
5.20
3.30
1.40
-0.66
-3.04
-5.91
-9.34
-13.38
-18.03
-23.18
-28.62
-33.82
-37.99
-40.20
-39.65
-35.97
-29.36
-20.63
-10.90
-1.30
7.32
14.53
20.17
24.30
26.99
28.22
27.99
26.39
23.69
20.42
17.24
14.73
13.19
12.50
12.16
11.53
10.13
7.85
4.98
2.01
-0.67
-2.97
-5.12
-7.52
-10.50
-14.23
-18.72
-23.85
-29.39
-34.90
-39.67
-42.80
-43.37
-40.79
-35.01
-26.64
-16.66
-6.19
3.77
12.54
19.71
25.07
28.54
30.17
30.11
28.68
26.34
23.63
21.03
18.95
17.51
16.59
15.85
14.86
13.30
11.09
8.36
5.45
2.61
-0.03
-2.57
-5.26
-8.41
-12.29
-17.07
-22.69
-28.83
-34.85
-39.83
-42.70
-42.62
-39.19
-32.64
-23.81
-13.81
-3.72
5.66
13.89
20.78
26.19
29.95
31.92
32.09
30.74
28.38
25.62
23.02
20.85
19.13
17.68
16.23
14.58
12.64
10.45
8.11
5.72
3.35
0.99
-1.43
-4.06
-7.04
-10.55
-14.70
-19.59
-25.15
-31.01
-36.50
-40.58
-42.17
-40.50
-35.38
-27.38
-17.67
-7.53
1.97
10.23
17.11
22.62
26.74
29.35
30.31
29.66
27.77
25.28
22.83
20.90
19.58
18.64
17.64
16.22
14.21
11.71
9.00
6.38
4.06
2.02
0.09
-2.05
-4.68
-8.00
-12.11
-17.00
-22.57
-28.51
-34.20
-38.78
-41.22
-40.68
-36.80
-29.89
-20.84
-10.85
-1.06
7.77
15.20
21.05
25.16
27.42
27.82
26.55
24.11
21.12
18.21
15.72
13.74
12.11
10.58
8.97
7.24
5.41
3.59
1.86
0.22
-1.42
-3.22
-5.45
-8.39
-12.22
-17.05
-22.68
-28.65
-34.19
-38.31
-40.03
-38.69
-34.09
-26.67
-17.36
-7.34
2.32
10.88
17.92
23.33
27.03
28.97
29.12
27.63
24.93
21.61
18.35
15.64
13.68
12.31
11.16
9.82
8.03
5.76
3.16
0.50
-2.01
-4.30
-6.49
-8.82
-11.62
-15.21
-19.76
-25.24
-31.28
-37.17
-41.91
-44.42
-43.84
-39.81
-32.62
-23.13
-12.52
-1.91
7.81
16.10
22.66
27.36
30.10
30.98
30.23
28.30
25.74
23.07
20.62
18.50
16.61
14.72
12.61
10.14
7.34
4.42
1.63
-0.81
-2.84
-4.69
-6.74
-9.46
-13.24
-18.25
-24.32
-30.89
-37.08
-41.75
-43.75
-42.32
-37.30
-29.26
-19.39
-9.03
0.71
9.21
16.33
22.10
26.49
29.28
30.22
29.29
26.89
23.76
20.72
18.34
16.72
15.54
14.31
12.64
10.42
7.84
5.21
2.75
0.48
-1.79
-4.39
-7.62
-11.75
-16.85
-22.82
-29.27
-35.48
-40.48
-43.22
-42.94
-39.36
-32.86
-24.33
-14.84
-5.38
3.34
10.91
17.05
21.56
24.25
25.07
24.22
22.16
19.53
16.91
14.70
12.95
11.51
10.09
8.50
6.71
4.83
3.00
1.27
-0.50
-2.60
-5.39
-9.12
-13.86
-19.48
-25.58
-31.50
-36.36
-39.19
-39.20
-35.97
-29.65
-20.94
-10.92
-0.76
8.51
16.16
21.81
25.35
26.90
26.74
25.27
22.95
20.21
17.45
14.90
12.71
10.86
9.27
7.79
6.28
4.58
2.60
0.27
-2.49
-5.76
-9.71
-14.44
-19.88
-25.70
-31.13
-35.14
-36.70
-35.11
-30.29
-22.82
-13.73
-4.14
5.01
13.14
19.92
25.18
28.74
30.50
30.49
29.01
26.62
23.97
21.58
19.66
18.11
16.60
14.81
12.56
9.95
7.23
4.63
2.23
-0.14
-2.82
-6.22
-10.64
-16.12
-22.37
-28.67
-34.03
-37.36
-37.74
-34.74
-28.56
-19.99
-10.14
-0.14
9.17
17.31
24.11
29.52
33.47
35.85
36.63
35.94
34.19
31.95
29.76
27.99
26.67
25.61
24.47
22.99
21.07
18.75
16.17
13.42
10.55
7.55
4.40
1.10
-2.35
-5.96
-9.83
-14.14
-19.08
-24.79
-31.10
-37.43
-42.79
-45.97
-45.93
-42.19
-34.99
-25.27
-14.33
-3.41
6.57
15.17
22.28
27.91
32.04
34.59
35.58
35.17
33.71
31.69
29.57
27.68
26.16
24.96
23.97
23.03
21.99
20.74
19.13
17.08
14.54
11.55
8.25
4.80
1.37
-1.98
-5.25
-8.63
-12.38
-16.80
-22.03
-27.90
-33.76
-38.57
-41.15
-40.60
-36.62
-29.65
-20.65
-10.82
-1.18
7.59
15.14
21.30
25.94
28.95
30.26
30.04
28.61
26.44
24.01
21.69
19.69
18.09
16.91
16.12
15.62
15.27
14.80
13.97
12.53
10.40
7.65
4.46
1.07
-2.36
-5.75
-9.16
-12.74
-16.70
-21.14
-26.02
-30.98
-35.38
-38.33
-38.90
-36.47
-30.95
-22.91
-13.42
-3.77
4.97
12.16
17.62
21.46
23.85
24.89
24.63
23.20
20.93
18.36
16.05
14.43
13.57
13.18
12.78
11.92
10.40
8.29
5.83
3.31
0.87
-1.48
-3.86
-6.35
-9.01
-11.88
-15.08
-18.79
-23.15
-28.09
-33.08
-37.20
-39.38
-38.75
-35.05
-28.69
-20.63
-11.95
-3.58
3.94
10.40
15.77
19.96
22.89
24.40
24.53
23.46
21.56
19.34
17.21
15.47
14.20
13.28
12.51
11.65
10.53
9.07
7.30
5.22
2.89
0.36
-2.31
-5.05
-7.81
-10.66
-13.74
-17.29
-21.54
-26.46
-31.69
-36.46
-39.77
-40.64
-38.50
-33.32
-25.74
-16.76
-7.50
1.14
8.65
14.86
19.79
23.44
25.77
26.74
26.40
24.99
22.94
20.72
18.70
17.03
15.69
14.54
13.44
12.30
11.07
9.70
8.10
6.18
3.88
1.22
-1.70
-4.73
-7.76
-10.79
-13.98
-17.57
-21.71
-26.36
-31.14
-35.27
-37.83
-37.98
-35.27
-29.85
-22.42
-13.95
-5.43
2.45
9.35
15.15
19.82
23.28
25.38
26.00
25.24
23.37
20.89
18.36
16.20
14.62
13.55
12.78
11.99
10.92
9.42
7.50
5.29
3.00
0.77
-1.38
-3.58
-6.05
-9.01
-12.64
-16.97
-21.89
-27.08
-31.99
-35.86
-37.85
-37.26
-33.77
-27.68
-19.77
-11.15
-2.84
4.45
10.44
15.15
18.62
20.85
21.71
21.17
19.44
16.99
14.45
12.40
11.09
10.41
9.96
9.31
8.17
6.50
4.53
2.49
0.55
-1.30
-3.26
-5.58
-8.46
-11.98
-16.14
-20.82
-25.83
-30.77
-35.01
-37.77
-38.21
-35.80
-30.51
-22.88
-13.92
-4.76
3.64
10.73
16.29
20.31
22.84
23.96
23.75
22.42
20.30
17.82
15.39
13.25
11.47
9.93
8.43
6.76
4.85
2.76
0.65
-1.31
-3.08
-4.80
-6.72
-9.16
-12.37
-16.44
-21.30
-26.65
-31.96
-36.49
-39.40
-39.91
-37.57
-32.46
-25.16
-16.58
-7.68
0.79
8.39
14.92
20.24
24.14
26.42
26.94
25.83
23.52
20.60
17.76
15.45
13.82
12.72
11.81
10.74
9.28
7.41
5.25
2.98
0.74
-1.45
-3.69
-6.20
-9.21
-12.95
-17.56
-22.89
-28.48
-33.49
-36.95
-37.92
-35.92
-31.02
-23.83
-15.33
-6.54
1.77
9.18
15.52
20.75
24.76
27.30
28.16
27.30
25.03
22.05
19.10
16.85
15.53
14.90
14.42
13.57
12.03
9.87
7.42
5.09
3.09
1.36
-0.47
-2.82
-6.04
-10.31
-15.55
-21.52
-27.75
-33.54
-38.00
-40.21
-39.43
-35.38
-28.41
-19.42
-9.62
-0.11
8.31
15.25
20.55
24.17
26.06
26.25
24.95
22.62
19.89
17.37
15.42
14.07
13.05
11.95
10.49
8.59
6.41
4.20
2.19
0.41
-1.34
-3.37
-6.03
-9.59
-14.14
-19.48
-25.17
-30.45
-34.43
-36.20
-35.16
-31.24
-24.86
-16.90
-8.33
0.03
7.66
14.27
19.60
23.38
25.33
25.33
23.61
20.80
17.69
14.95
12.87
11.36
9.99
8.40
6.45
4.28
2.20
0.46
-0.93
-2.22
-3.84
-6.24
-9.72
-14.36
-19.97
-26.05
-31.85
-36.44
-38.86
-38.38
-34.76
-28.30
-19.84
-10.48
-1.19
7.33
14.75
20.95
25.78
29.04
30.53
30.19
28.36
25.70
22.98
20.80
19.31
18.22
17.01
15.29
12.97
10.28
7.61
5.26
3.22
1.21
-1.20
-4.41
-8.63
-13.85
-19.78
-25.87
-31.34
-35.22
-36.64
-35.04
-30.42
-23.33
-14.75
-5.73
2.89
10.65
17.40
23.07
27.55
30.59
31.97
31.62
29.79
27.05
24.10
21.55
19.67
18.39
17.34
16.12
14.47
12.39
10.11
7.89
5.90
4.04
2.06
-0.39
-3.59
-7.72
-12.73
-18.39
-24.26
-29.64
-33.67
-35.47
-34.43
-30.37
-23.72
-15.34
-6.29
2.47
10.29
16.80
21.83
25.32
27.25
27.70
26.89
25.23
23.15
21.01
19.03
17.19
15.41
13.57
11.65
9.72
7.90
6.27
4.81
3.35
1.64
-0.63
-3.72
-7.79
-12.79
-18.44
-24.20
-29.26
-32.68
-33.63
-31.61
-26.69
-19.49
-11.05
-2.51
5.23
11.65
16.59
20.08
22.14
22.78
22.08
20.24
17.69
14.91
12.34
10.16
8.33
6.64
4.93
3.12
1.31
-0.43
-2.05
-3.68
-5.55
-8.00
-11.28
-15.53
-20.59
-25.95
-30.75
-34.01
-34.79
-32.57
-27.39
-19.88
-11.05
-2.01
6.29
13.18
18.34
21.70
23.38
23.64
22.83
21.30
19.36
17.20
14.89
12.44
9.85
7.23
4.75
2.58
0.80
-0.68
-2.12
-3.87
-6.26
-9.56
-13.82
-18.86
-24.20
-29.11
-32.71
-34.13
-32.78
-28.52
-21.74
-13.27
-4.14
4.67
12.43
18.67
23.16
25.82
26.73
26.12
24.38
22.00
19.46
17.10
15.03
13.16
11.34
9.45
7.45
5.42
3.48
1.66
-0.12
-2.06
-4.47
-7.70
-12.00
-17.38
-23.43
-29.30
-33.85
-35.90
-34.69
-30.09
-22.73
-13.74
-4.36
4.40
11.97
18.20
23.08
26.63
28.77
29.45
28.75
27.00
24.64
22.13
19.79
17.68
15.70
13.67
11.49
9.17
6.81
4.54
2.45
0.55
-1.27
-3.21
-5.55
-8.61
-12.64
-17.69
-23.45
-29.20
-33.92
-36.50
-36.09
-32.39
-25.77
-17.13
-7.65
1.58
9.80
16.63
21.91
25.58
27.58
27.95
26.87
24.76
22.17
19.61
17.41
15.59
13.97
12.28
10.40
8.33
6.24
4.27
2.49
0.82
-0.97
-3.12
-5.90
-9.45
-13.78
-18.64
-23.52
-27.65
-30.17
-30.34
-27.77
-22.54
-15.26
-6.79
1.83
9.72
16.16
20.66
23.04
23.36
21.98
19.47
16.48
13.58
11.13
9.26
7.85
6.68
5.50
4.12
2.46
0.53
-1.55
-3.66
-5.75
-7.88
-10.27
-13.19
-16.86
-21.18
-25.68
-29.49
-31.57
-31.03
-27.46
-21.13
-12.91
-3.99
4.47
11.62
17.03
20.61
22.47
22.78
21.73
19.63
16.83
13.79
10.92
8.47
6.44
4.68
2.94
1.04
-1.03
-3.15
-5.16
-7.02
-8.88
-11.06
-13.93
-17.70
-22.22
-26.88
-30.71
-32.66
-31.92
-28.22
-21.92
-13.91
-5.28
3.00
10.22
16.02
20.23
22.78
23.65
22.95
20.96
18.18
15.16
12.34
9.95
7.97
6.25
4.66
3.07
1.47
-0.19
-1.96
-3.94
-6.21
-8.87
-12.06
-15.90
-20.39
-25.20
-29.60
-32.52
-32.93
-30.20
-24.42
-16.41
-7.39
1.43
9.19
15.48
20.20
23.38
25.00
25.12
23.88
21.65
18.92
16.14
13.60
11.40
9.45
7.63
5.87
4.13
2.43
0.77
-0.93
-2.81
-5.02
-7.79
-11.30
-15.56
-20.33
-24.97
-28.55
-30.09
-28.85
-24.63
-17.89
-9.58
-0.87
7.19
13.85
18.76
21.86
23.28
23.25
22.10
20.17
17.84
15.37
12.96
10.67
8.51
6.47
4.54
2.75
1.11
-0.42
-1.89
-3.44
-5.26
-7.59
-10.66
-14.57
-19.13
-23.76
-27.56
-29.48
-28.73
-24.99
-18.60
-10.44
-1.64
6.70
13.78
19.10
22.51
24.05
23.93
22.49
20.11
17.24
14.27
11.49
9.04
6.95
5.18
3.59
2.11
0.65
-0.83
-2.37
-4.04
-5.99
-8.42
-11.56
-15.49
-20.00
-24.49
-28.08
-29.79
-28.87
-25.08
-18.80
-10.89
-2.45
5.53
12.33
17.55
21.11
23.04
23.42
22.40
20.20
17.17
13.76
10.42
7.54
5.31
3.71
2.55
1.56
0.46
-1.00
-2.93
-5.40
-8.40
-11.94
-15.94
-20.21
-24.30
-27.51
-29.00
-28.09
-24.47
-18.39
-10.64
-2.35
5.36
11.69
16.23
18.94
19.99
19.63
18.09
15.63
12.59
9.33
6.23
3.57
1.45
-0.24
-1.69
-3.13
-4.73
-6.57
-8.73
-11.35
-14.60
-18.59
-23.18
-27.85
-31.68
-33.67
-32.96
-29.24
-22.85
-14.65
-5.78
2.66
9.88
15.39
19.06
20.94
21.27
20.34
18.48
16.02
13.24
10.39
7.66
5.20
3.10
1.34
-0.21
-1.70
-3.29
-5.13
-7.35
-10.14
-13.66
-17.92
-22.67
-27.18
-30.47
-31.50
-29.58
-24.60
-17.14
-8.23
0.95
9.36
16.27
21.30
24.40
25.68
25.47
24.15
22.14
19.80
17.34
14.87
12.42
10.02
7.74
5.64
3.76
2.04
0.31
-1.64
-4.02
-7.08
-10.99
-15.77
-21.22
-26.74
-31.41
-34.16
-34.11
-30.89
-24.81
-16.70
-7.61
1.47
9.90
17.28
23.33
27.80
30.44
31.14
30.09
27.80
24.92
22.08
19.66
17.68
15.93
14.15
12.17
10.02
7.84
5.79
3.95
2.26
0.57
-1.37
-3.86
-7.19
-11.61
-17.07
-23.19
-29.09
-33.60
-35.57
-34.24
-29.53
-22.08
-12.95
-3.36
5.79
13.94
20.87
26.48
30.64
33.13
33.78
32.61
30.00
26.60
23.18
20.36
18.37
17.07
16.07
14.96
13.51
11.71
9.72
7.71
5.74
3.70
1.37
-1.52
-5.19
-9.70
-14.90
-20.34
-25.37
-29.24
-31.21
-30.77
-27.74
-22.31
-15.00
-6.56
2.12
10.16
16.86
21.71
24.52
25.38
24.62
22.68
20.07
17.27
14.67
12.52
10.90
9.73
8.78
7.85
6.75
5.44
3.94
2.26
0.38
-1.87
-4.73
-8.41
-13.01
-18.35
-23.89
-28.77
-31.93
-32.45
-29.87
-24.38
-16.80
-8.27
0.10
7.55
13.73
18.56
21.98
23.87
24.10
22.72
20.08
16.80
13.50
10.66
8.40
6.59
5.00
3.45
1.85
0.23
-1.40
-3.10
-5.02
-7.35
-10.30
-14.00
-18.41
-23.20
-27.73
-31.14
-32.50
-31.16
-26.93
-20.22
-11.83
-2.78
6.00
13.79
20.13
24.71
27.37
28.09
27.00
24.49
21.15
17.65
14.54
12.13
10.39
9.05
7.76
6.24
4.39
2.28
0.10
-2.01
-4.02
-6.08
-8.45
-11.48
-15.41
-20.26
-25.68
-30.92
-34.94
-36.68
-35.38
-30.84
-23.53
-14.41
-4.67
4.64
12.83
19.56
24.77
28.49
30.73
31.52
30.93
29.20
26.72
23.96
21.36
19.22
17.65
16.52
15.61
14.61
13.29
11.50
9.25
6.65
3.88
1.06
-1.76
-4.66
-7.78
-11.31
-15.38
-20.02
-25.07
-30.15
-34.59
-37.53
-38.11
-35.77
-30.46
-22.73
-13.55
-3.97
5.12
13.19
19.95
25.22
28.85
30.67
30.68
29.10
26.42
23.31
20.41
18.12
16.60
15.72
15.22
14.75
14.07
13.00
11.53
9.72
7.70
5.57
3.37
1.03
-1.52
-4.42
-7.76
-11.62
-16.02
-20.87
-25.87
-30.47
-33.88
-35.26
-33.99
-29.86
-23.25
-14.99
-6.15
2.33
9.78
15.91
20.64
23.97
25.84
26.19
25.10
22.85
19.95
16.99
14.50
12.69
11.52
10.70
9.90
8.89
7.57
5.96
4.13
2.12
-0.04
-2.33
-4.73
-7.27
-10.01
-13.07
-16.57
-20.55
-24.84
-28.96
-32.22
-33.79
-32.99
-29.52
-23.57
-15.80
-7.14
1.48
9.34
15.95
21.04
24.39
25.88
25.47
23.40
20.16
16.51
13.16
10.61
8.98
8.04
7.33
6.42
5.10
3.38
1.50
-0.28
-1.76
-2.95
-4.07
-5.44
-7.39
-10.14
-13.81
-18.31
-23.35
-28.42
-32.79
-35.59
-36.02
-33.60
-28.34
-20.83
-11.99
-2.88
5.64
13.00
18.89
23.13
25.57
26.15
24.95
22.35
18.97
15.55
12.68
10.66
9.41
8.58
7.74
6.54
4.86
2.82
0.63
-1.45
-3.33
-5.08
-6.95
-9.18
-12.04
-15.65
-20.04
-25.06
-30.30
-35.09
-38.50
-39.57
-37.60
-32.48
-24.72
-15.40
-5.70
3.40
11.29
17.71
22.56
25.72
27.08
26.66
24.77
21.99
19.01
16.42
14.53
13.30
12.45
11.62
10.55
9.11
7.34
5.34
3.24
1.11
-1.02
-3.22
-5.59
-8.29
-11.51
-15.41
-20.06
-25.31
-30.64
-35.21
-37.98
-38.03
-34.90
-28.75
-20.35
-10.84
-1.36
7.24
14.45
20.05
24.01
26.34
27.13
26.55
24.96
22.76
20.35
18.01
15.92
14.10
12.50
11.03
9.60
8.15
6.67
5.14
3.56
1.89
0.08
-1.95
-4.26
-6.94
-10.07
-13.72
-17.93
-22.62
-27.46
-31.86
-35.00
-36.05
-34.44
-30.04
-23.23
-14.82
-5.77
2.96
10.65
16.81
21.21
23.79
24.62
23.91
21.99
19.34
16.47
13.87
11.83
10.41
9.43
8.54
7.44
5.97
4.14
2.11
0.07
-1.91
-3.86
-5.99
-8.59
-11.96
-16.25
-21.30
-26.56
-31.10
-33.88
-34.04
-31.23
-25.72
-18.29
-9.94
-1.58
6.12
12.71
17.83
21.17
22.56
22.03
19.97
17.02
13.87
11.08
8.86
7.10
5.56
3.99
2.24
0.35
-1.57
-3.45
-5.27
-7.14
-9.26
-11.92
-15.36
-19.73
-24.89
-30.31
-35.08
-38.09
-38.37
-35.37
-29.23
-20.73
-11.01
-1.27
7.57
14.93
20.52
24.25
26.09
26.14
24.65
22.09
19.04
16.04
13.40
11.17
9.19
7.25
5.22
3.12
1.00
-1.08
-3.12
-5.24
-7.59
-10.34
-13.73
-17.93
-22.98
-28.56
-33.94
-38.01
-39.61
-37.89
-32.66
-24.47
-14.43
-3.89
6.00
14.42
20.97
25.52
28.13
28.95
28.22
26.30
23.62
20.64
17.72
15.12
12.86
10.87
9.04
7.24
5.43
3.56
1.61
-0.49
-2.84
-5.62
-9.03
-13.25
-18.33
-23.98
-29.52
-33.93
-36.08
-35.13
-30.83
-23.64
-14.58
-4.85
4.47
12.69
19.45
24.61
28.06
29.72
29.63
28.01
25.34
22.23
19.20
16.59
14.43
12.56
10.78
8.98
7.17
5.41
3.67
1.83
-0.34
-3.14
-6.79
-11.41
-16.89
-22.84
-28.54
-33.01
-35.19
-34.24
-29.88
-22.49
-13.06
-2.89
6.77
14.97
21.13
25.04
26.74
26.44
24.57
21.66
18.31
15.04
12.18
9.80
7.82
6.07
4.43
2.89
1.42
-0.04
-1.69
-3.80
-6.66
-10.45
-15.15
-20.47
-25.82
-30.44
-33.44
-34.03
-31.72
-26.48
-18.76
-9.50
0.14
9.00
16.20
21.24
24.09
25.04
24.46
22.78
20.33
17.40
14.25
11.19
8.44
6.14
4.26
2.61
0.93
-0.99
-3.29
-6.03
-9.26
-13.07
-17.58
-22.78
-28.39
-33.71
-37.75
-39.44
-38.03
-33.27
-25.61
-16.01
-5.65
4.35
13.18
20.36
25.62
28.86
30.08
29.45
27.32
24.22
20.74
17.37
14.44
12.03
10.08
8.42
6.90
5.33
3.57
1.48
-1.08
-4.27
-8.25
-13.10
-18.80
-25.03
-31.11
-36.01
-38.61
-38.02
-33.91
-26.63
-17.12
-6.54
4.04
13.87
22.49
29.55
34.71
37.65
38.22
36.65
33.58
29.96
26.66
24.22
22.69
21.71
20.75
19.39
17.51
15.22
12.81
10.45
8.17
5.78
2.93
-0.78
-5.61
-11.64
-18.62
-25.89
-32.48
-37.24
-39.11
-37.46
-32.28
-24.22
-14.36
-3.91
6.18
15.32
23.22
29.74
34.63
37.61
38.51
37.42
34.89
31.71
28.71
26.43
24.97
24.08
23.32
22.30
20.79
18.76
16.30
13.56
10.69
7.80
4.88
1.85
-1.51
-5.51
-10.40
-16.21
-22.67
-29.11
-34.55
-37.96
-38.48
-35.70
-29.80
-21.51
-11.87
-1.97
7.32
15.42
22.00
26.87
29.91
31.08
30.47
28.46
25.66
22.81
20.48
18.96
18.13
17.55
16.71
15.24
13.07
10.43
7.72
5.32
3.38
1.72
-0.08
-2.53
-6.07
-10.85
-16.71
-23.12
-29.27
-34.19
-36.99
-37.02
-34.03
-28.27
-20.38
-11.24
-1.75
7.33
15.36
21.87
26.45
28.87
29.10
27.44
24.48
21.01
17.77
15.29
13.73
12.94
12.53
12.06
11.13
9.59
7.48
5.04
2.56
0.24
-1.90
-4.08
-6.61
-9.85
-13.98
-19.04
-24.76
-30.65
-35.94
-39.70
-41.06
-39.35
-34.45
-26.86
-17.54
-7.67
1.73
10.04
17.02
22.58
26.67
29.12
29.81
28.84
26.67
23.99
21.52
19.72
18.66
18.07
17.48
16.48
14.88
12.68
10.06
7.28
4.53
1.91
-0.61
-3.14
-5.79
-8.71
-11.99
-15.77
-20.16
-25.13
-30.42
-35.38
-39.05
-40.42
-38.75
-33.90
-26.40
-17.25
-7.62
1.54
9.67
16.50
21.94
25.97
28.50
29.55
29.26
27.91
25.94
23.78
21.81
20.23
19.11
18.34
17.72
16.99
15.94
14.42
12.38
9.92
7.19
4.35
1.50
-1.34
-4.24
-7.30
-10.64
-14.40
-18.69
-23.60
-28.98
-34.37
-38.96
-41.74
-41.77
-38.56
-32.25
-23.65
-13.92
-4.29
4.35
11.55
17.23
21.48
24.44
26.12
26.58
25.93
24.48
22.67
20.92
19.52
18.53
17.79
17.03
16.05
14.75
13.15
11.31
9.27
7.02
4.53
1.78
-1.15
-4.15
-7.07
-9.84
-12.51
-15.34
-18.63
-22.59
-27.11
-31.61
-35.14
-36.65
-35.35
-31.06
-24.22
-15.82
-6.99
1.25
8.26
13.73
17.64
20.06
21.10
20.90
19.62
17.57
15.15
12.82
10.99
9.90
9.52
9.60
9.76
9.59
8.86
7.49
5.60
3.37
1.02
-1.32
-3.58
-5.79
-8.07
-10.62
-13.67
-17.42
-21.91
-26.89
-31.79
-35.70
-37.64
-36.84
-32.99
-26.44
-18.09
-9.10
-0.59
6.73
12.57
16.99
20.13
22.07
22.75
22.17
20.51
18.19
15.80
13.86
12.64
12.07
11.82
11.46
10.63
9.20
7.18
4.74
2.10
-0.58
-3.17
-5.66
-8.11
-10.62
-13.32
-16.33
-19.75
-23.69
-28.11
-32.79
-37.17
-40.33
-41.30
-39.28
-34.09
-26.22
-16.77
-7.03
1.87
9.28
14.99
19.13
21.92
23.56
24.15
23.83
22.76
21.17
19.34
17.50
15.87
14.51
13.42
12.47
11.51
10.39
9.01
7.37
5.47
3.34
1.02
-1.46
-4.05
-6.72
-9.46
-12.37
-15.61
-19.39
-23.81
-28.68
-33.48
-37.40
-39.47
-38.92
-35.41
-29.18
-20.96
-11.79
-2.70
5.52
12.44
17.91
21.94
24.58
25.86
25.85
24.74
22.85
20.62
18.49
16.80
15.67
14.98
14.44
13.74
12.66
11.14
9.26
7.15
4.94
2.68
0.35
-2.11
-4.72
-7.47
-10.36
-13.48
-16.97
-21.02
-25.64
-30.52
-34.93
-37.83
-38.18
-35.38
-29.49
-21.29
-11.98
-2.78
5.43
12.23
17.54
21.44
23.96
25.09
24.86
23.43
21.17
18.57
16.11
14.11
12.71
11.80
11.14
10.40
9.33
7.79
5.88
3.79
1.77
-0.03
-1.66
-3.33
-5.31
-7.87
-11.14
-15.10
-19.65
-24.48
-29.14
-32.93
-35.01
-34.62
-31.33
-25.27
-17.15
-8.04
0.94
8.92
15.36
20.07
23.02
24.24
23.80
21.88
18.88
15.41
12.17
9.76
8.45
8.09
8.19
8.11
7.36
5.75
3.47
0.92
-1.49
-3.52
-5.23
-6.93
-9.02
-11.83
-15.52
-20.05
-25.09
-30.12
-34.40
-37.14
-37.62
-35.39
-30.44
-23.21
-14.54
-5.43
3.20
10.66
16.59
20.86
23.47
24.51
24.09
22.41
19.83
16.86
14.04
11.78
10.25
9.26
8.44
7.36
5.80
3.78
1.56
-0.57
-2.44
-4.06
-5.67
-7.56
-10.05
-13.37
-17.64
-22.77
-28.41
-33.88
-38.26
-40.54
-39.98
-36.26
-29.72
-21.15
-11.61
-2.11
6.56
13.91
19.70
23.75
25.99
26.40
25.17
22.71
19.66
16.69
14.35
12.85
12.02
11.48
10.77
9.60
7.96
6.02
4.03
2.14
0.33
-1.56
-3.74
-6.39
-9.66
-13.62
-18.28
-23.51
-28.90
-33.76
-37.13
-38.04
-35.88
-30.60
-22.82
-13.57
-4.01
4.98
12.85
19.36
24.39
27.77
29.36
29.12
27.31
24.49
21.39
18.69
16.76
15.60
14.91
14.28
13.34
11.91
10.03
7.85
5.58
3.31
1.05
-1.35
-4.12
-7.48
-11.58
-16.42
-21.83
-27.38
-32.42
-36.15
-37.78
-36.78
-32.95
-26.58
-18.34
-9.18
-0.00
8.43
15.59
21.16
24.97
26.93
27.11
25.77
23.37
20.47
17.65
15.26
13.45
12.11
10.97
9.81
8.45
6.90
5.23
3.55
1.94
0.36
-1.34
-3.42
-6.18
-9.88
-14.61
-20.12
-25.78
-30.64
-33.64
-33.90
-31.07
-25.42
-17.75
-9.13
-0.54
7.36
14.16
19.58
23.35
25.16
24.87
22.70
19.35
15.79
12.90
11.16
10.47
10.29
9.98
9.06
7.45
5.38
3.17
1.06
-0.97
-3.10
-5.59
-8.69
-12.56
-17.26
-22.70
-28.56
-34.22
-38.79
-41.22
-40.69
-36.84
-29.98
-20.99
-11.06
-1.29
7.50
14.86
20.58
24.55
26.68
26.94
25.53
22.91
19.77
16.84
14.60
13.14
12.18
11.22
9.87
7.98
5.72
3.39
1.20
-0.88
-3.08
-5.81
-9.36
-13.88
-19.29
-25.25
-31.18
-36.28
-39.65
-40.46
-38.21
-32.96
-25.30
-16.15
-6.55
2.70
11.02
18.01
23.36
26.77
28.10
27.48
25.36
22.48
19.62
17.35
15.91
15.15
14.70
14.12
13.09
11.53
9.56
7.39
5.19
2.94
0.43
-2.71
-6.81
-12.07
-18.35
-25.12
-31.51
-36.44
-38.91
-38.27
-34.42
-27.83
-19.40
-10.12
-0.85
7.83
15.51
21.91
26.65
29.43
30.13
28.92
26.39
23.30
20.35
18.01
16.32
15.06
13.88
12.49
10.79
8.82
6.75
4.68
2.66
0.57
-1.84
-4.90
-8.90
-13.95
-19.78
-25.77
-30.98
-34.35
-35.09
-32.82
-27.72
-20.42
-11.82
-2.79
5.95
13.84
20.46
25.40
28.30
29.01
27.69
24.89
21.42
18.11
15.51
13.80
12.74
11.88
10.85
9.45
7.70
5.78
3.80
1.78
-0.46
-3.18
-6.64
-11.06
-16.45
-22.59
-28.93
-34.63
-38.65
-40.06
-38.25
-33.24
-25.59
-16.30
-6.39
3.26
12.11
19.80
26.06
30.52
32.88
33.02
31.24
28.24
24.93
22.14
20.26
19.17
18.39
17.38
15.80
13.64
11.13
8.56
6.12
3.73
1.16
-1.88
-5.66
-10.33
-15.88
-22.11
-28.56
-34.46
-38.88
-40.88
-39.76
-35.32
-27.91
-18.34
-7.68
2.99
12.80
21.18
27.81
32.59
35.54
36.76
36.46
34.98
32.75
30.30
28.09
26.42
25.33
24.65
24.07
23.28
22.14
20.62
18.78
16.64
14.16
11.26
7.90
4.14
0.13
-3.96
-8.04
-12.20
-16.66
-21.63
-27.20
-33.10
-38.67
-42.91
-44.72
-43.27
-38.27
-30.20
-20.11
-9.32
0.98
10.05
17.60
23.67
28.31
31.56
33.37
33.78
33.05
31.63
30.02
28.59
27.46
26.51
25.55
24.46
23.24
21.98
20.72
19.36
17.71
15.55
12.77
9.44
5.83
2.24
-1.12
-4.20
-7.14
-10.25
-13.87
-18.29
-23.59
-29.56
-35.63
-40.86
-44.21
-44.75
-42.02
-36.17
-27.97
-18.56
-9.05
-0.26
7.41
13.86
19.10
23.03
25.49
26.34
25.68
23.91
21.63
19.49
17.90
16.98
16.54
16.20
15.57
14.42
12.68
10.49
8.06
5.58
3.17
0.79
-1.73
-4.53
-7.82
-11.69
-16.19
-21.24
-26.57
-31.62
-35.60
-37.59
-36.85
-33.10
-26.68
-18.48
-9.59
-0.99
6.69
13.21
18.48
22.48
25.09
26.22
25.87
24.30
21.97
19.44
17.21
15.63
14.72
14.34
14.12
13.69
12.71
11.07
8.78
6.06
3.12
0.12
-2.92
-6.05
-9.38
-13.03
-17.09
-21.67
-26.71
-31.91
-36.57
-39.73
-40.37
-37.89
-32.28
-24.24
-14.86
-5.27
3.67
11.47
17.92
22.91
26.30
28.04
28.22
27.15
25.31
23.22
21.29
19.74
18.62
17.81
17.13
16.36
15.31
13.86
11.94
9.64
7.06
4.33
1.55
-1.24
-4.06
-6.97
-10.07
-13.53
-17.56
-22.24
-27.43
-32.57
-36.77
-38.97
-38.29
-34.38
-27.57
-18.79
-9.26
-0.12
7.87
14.36
19.33
22.88
25.10
26.04
25.77
24.50
22.55
20.38
18.42
16.93
15.93
15.18
14.37
13.25
11.72
9.88
7.93
6.00
4.10
2.10
-0.15
-2.74
-5.70
-9.01
-12.67
-16.77
-21.34
-26.25
-31.05
-34.95
-37.02
-36.48
-33.02
-26.90
-18.96
-10.29
-1.89
5.58
11.82
16.74
20.32
22.46
23.09
22.28
20.38
17.93
15.56
13.70
12.49
11.76
11.14
10.32
9.12
7.57
5.80
3.91
1.97
-0.08
-2.36
-4.93
-7.81
-10.99
-14.48
-18.36
-22.69
-27.38
-32.00
-35.76
-37.68
-36.93
-33.17
-26.71
-18.46
-9.53
-0.94
6.66
12.96
17.89
21.40
23.42
23.91
22.97
20.93
18.30
15.65
13.45
11.93
11.06
10.53
10.00
9.10
7.64
5.64
3.29
0.83
-1.52
-3.68
-5.72
-7.83
-10.27
-13.31
-17.18
-21.96
-27.50
-33.26
-38.36
-41.72
-42.38
-39.81
-34.18
-26.21
-16.97
-7.52
1.35
9.13
15.57
20.56
23.99
25.82
26.09
25.03
23.02
20.60
18.27
16.42
15.17
14.39
13.76
12.96
11.76
10.09
8.06
5.85
3.59
1.30
-1.09
-3.70
-6.62
-9.91
-13.59
-17.67
-22.17
-27.03
-32.01
-36.56
-39.86
-40.95
-39.09
-34.06
-26.30
-16.83
-6.87
2.51
10.68
17.42
22.76
26.73
29.25
30.24
29.68
27.78
25.00
21.94
19.15
17.02
15.70
15.06
14.79
14.49
13.80
12.47
10.46
7.88
4.97
1.92
-1.10
-4.03
-6.87
-9.62
-12.38
-15.40
-19.00
-23.45
-28.72
-34.27
-39.04
-41.73
-41.27
-37.22
-30.05
-20.86
-11.05
-1.78
6.26
12.92
18.24
22.26
24.89
25.95
25.41
23.52
20.85
18.06
15.72
14.08
13.06
12.34
11.54
10.40
8.89
7.12
5.30
3.62
2.11
0.67
-0.97
-3.15
-6.13
-10.09
-15.00
-20.60
-26.39
-31.60
-35.36
-36.83
-35.45
-31.10
-24.24
-15.76
-6.73
1.86
9.33
15.37
19.92
22.97
24.52
24.50
23.00
20.33
17.06
13.92
11.48
10.00
9.29
8.82
8.02
6.47
4.16
1.37
-1.45
-3.94
-6.04
-7.91
-9.91
-12.37
-15.56
-19.57
-24.31
-29.44
-34.34
-38.16
-39.93
-38.93
-34.87
-28.09
-19.42
-9.94
-0.66
7.71
14.74
20.23
24.02
26.01
26.18
24.75
22.18
19.19
16.47
14.52
13.47
13.03
12.62
11.70
9.91
7.27
4.13
0.95
-1.90
-4.31
-6.44
-8.65
-11.37
-14.96
-19.60
-25.20
-31.34
-37.21
-41.76
-43.95
-42.99
-38.67
-31.43
-22.17
-12.03
-2.02
7.10
14.88
21.06
25.47
28.01
28.68
27.70
25.52
22.78
20.10
17.99
16.61
15.83
15.28
14.50
13.20
11.27
8.90
6.33
3.84
1.50
-0.80
-3.30
-6.24
-9.85
-14.26
-19.49
-25.40
-31.56
-37.20
-41.29
-42.73
-40.78
-35.31
-26.94
-16.85
-6.39
3.38
11.83
18.76
24.20
28.14
30.51
31.22
30.33
28.17
25.29
22.33
19.83
18.03
16.89
16.13
15.38
14.30
12.73
10.69
8.32
5.85
3.36
0.85
-1.87
-5.01
-8.76
-13.21
-18.33
-23.93
-29.61
-34.71
-38.37
-39.72
-38.10
-33.37
-25.94
-16.72
-6.80
2.81
11.38
18.48
23.84
27.33
28.89
28.63
26.89
24.21
21.22
18.48
16.34
14.87
13.90
13.08
12.05
10.55
8.50
6.09
3.61
1.35
-0.56
-2.30
-4.25
-6.90
-10.64
-15.61
-21.57
-27.84
-33.45
-37.25
-38.30
-36.06
-30.61
-22.65
-13.26
-3.56
5.51
13.39
19.79
24.56
27.61
28.86
28.37
26.43
23.63
20.64
18.08
16.29
15.22
14.49
13.61
12.20
10.11
7.49
4.65
1.88
-0.68
-3.12
-5.74
-8.87
-12.81
-17.73
-23.50
-29.80
-35.95
-41.08
-44.22
-44.54
-41.62
-35.63
-27.27
-17.55
-7.55
1.93
10.41
17.64
23.47
27.65
29.98
30.37
29.05
26.59
23.73
21.14
19.27
18.12
17.42
16.71
15.60
13.90
11.68
9.19
6.69
4.36
2.15
-0.18
-2.93
-6.38
-10.71
-15.94
-21.91
-28.21
-34.16
-38.79
-41.11
-40.32
-36.20
-29.17
-20.17
-10.36
-0.74
8.03
15.69
22.09
27.10
30.50
32.14
32.00
30.40
27.93
25.28
23.03
21.44
20.44
19.66
18.65
17.09
14.90
12.30
9.63
7.20
5.07
3.06
0.76
-2.26
-6.29
-11.45
-17.59
-24.33
-31.02
-36.77
-40.57
-41.50
-39.04
-33.30
-24.98
-15.20
-5.09
4.46
12.91
19.95
25.35
28.82
30.16
29.42
27.08
23.94
20.91
18.67
17.41
16.85
16.39
15.49
13.88
11.67
9.25
7.00
5.08
3.34
1.42
-1.07
-4.39
-8.59
-13.58
-19.18
-25.04
-30.62
-35.07
-37.40
-36.74
-32.76
-25.81
-16.91
-7.33
1.84
9.91
16.59
21.81
25.45
27.34
27.39
25.76
22.99
19.84
17.05
15.04
13.78
12.88
11.85
10.30
8.18
5.65
3.07
0.67
-1.53
-3.78
-6.48
-10.05
-14.72
-20.47
-26.89
-33.25
-38.56
-41.74
-41.93
-38.72
-32.37
-23.74
-14.00
-4.27
4.64
12.36
18.78
23.81
27.27
28.95
28.76
26.98
24.17
21.08
18.29
16.08
14.36
12.83
11.20
9.29
7.11
4.78
2.38
-0.10
-2.83
-6.06
-10.07
-15.04
-20.89
-27.15
-32.97
-37.23
-38.85
-37.15
-32.05
-24.16
-14.53
-4.39
5.24
13.63
20.38
25.30
28.35
29.55
29.09
27.30
24.70
21.83
19.18
17.02
15.38
14.02
12.56
10.69
8.34
5.68
3.03
0.64
-1.50
-3.78
-6.85
-11.28
-17.24
-24.23
-31.11
-36.33
-38.48
-36.72
-31.08
-22.45
-12.19
-1.74
7.79
15.77
21.92
26.19
28.56
29.00
27.72
25.17
22.06
19.14
16.93
15.50
14.49
13.25
11.27
8.34
4.61
0.52
-3.50
-7.11
-10.29
-13.23
-16.32
-20.04
-24.85
-31.08
-38.74
-47.41
-56.12
-63.57
-68.35
-69.45
-66.63
-60.50
-52.39
-43.80
-36.02
-29.76
-25.19
-22.13
-20.38
-19.88
-20.63
-22.42
-24.72
-26.61
-27.06
-25.25
-20.81
-13.87
-4.98
5.14
15.73
26.17
35.94
44.63
51.91
57.52
61.29
63.08
62.87
60.68
56.63
50.85
43.53
35.00
25.81
16.83
9.20
4.10
2.40
4.36
9.44
16.51
24.21
31.40
37.38
41.91
44.98
46.60
46.67
45.13
42.10
38.02
33.62
29.62
26.49
24.24
22.49
20.66
18.32
15.35
12.01
8.70
5.74
3.21
0.90
-1.51
-4.35
-7.80
-11.90
-16.66
-21.97
-27.61
-33.05
-37.45
-39.81
-39.27
-35.44
-28.61
-19.67
-9.86
-0.32
8.11
14.96
20.04
23.21
24.42
23.73
21.45
18.20
14.75
11.80
9.69
8.37
7.48
6.56
5.31
3.66
1.80
-0.06
-1.76
-3.36
-5.12
-7.41
-10.58
-14.88
-20.28
-26.40
-32.48
-37.48
-40.29
-40.05
-36.43
-29.75
-20.87
-10.95
-1.13
7.75
15.12
20.66
24.22
25.72
25.29
23.31
20.37
17.17
14.24
11.84
9.92
8.22
6.47
4.54
2.50
0.47
-1.40
-3.09
-4.76
-6.68
-9.15
-12.44
-16.70
-21.91
-27.82
-33.85
-39.14
-42.61
-43.29
-40.56
-34.44
-25.66
-15.37
-4.87
4.79
12.96
19.42
24.19
27.33
28.90
28.90
27.43
24.79
21.48
18.17
15.40
13.49
12.33
11.51
10.44
8.71
6.22
3.25
0.22
-2.48
-4.79
-6.96
-9.46
-12.71
-16.92
-22.02
-27.72
-33.55
-38.97
-43.31
-45.83
-45.81
-42.74
-36.53
-27.67
-17.17
-6.29
3.80
12.31
18.87
23.47
26.26
27.34
26.86
25.05
22.35
19.39
16.75
14.85
13.66
12.86
11.98
10.64
8.77
6.51
4.13
1.82
-0.41
-2.73
-5.33
-8.40
-12.01
-16.21
-20.97
-26.23
-31.68
-36.73
-40.48
-41.90
-40.16
-34.98
-26.81
-16.71
-6.04
4.01
12.66
19.63
24.96
28.75
31.02
31.71
30.89
28.84
26.15
23.49
21.40
20.13
19.54
19.24
18.76
17.75
16.10
13.91
11.40
8.74
6.02
3.15
-0.04
-3.67
-7.81
-12.41
-17.47
-22.97
-28.87
-34.92
-40.50
-44.64
-46.28
-44.63
-39.51
-31.50
-21.69
-11.34
-1.52
7.07
14.05
19.19
22.35
23.39
22.39
19.73
16.20
12.83
10.60
10.18
11.67
14.57
18.01
21.03
22.97
23.59
23.08
21.86
20.33
18.79
17.36
16.13
15.15
14.48
14.09
13.83
13.39
12.46
10.80
8.39
5.43
2.21
-0.97
-3.97
-6.83
-9.78
-13.18
-17.36
-22.43
-28.15
-33.73
-38.04
-39.82
-38.20
-32.96
-24.75
-14.77
-4.43
5.09
13.15
19.60
24.54
28.12
30.36
31.15
30.46
28.50
25.74
22.86
20.45
18.89
18.14
17.86
17.53
16.74
15.31
13.34
11.09
8.79
6.56
4.38
2.15
-0.28
-2.99
-6.09
-9.70
-13.96
-18.93
-24.44
-29.92
-34.46
-36.99
-36.59
-32.91
-26.27
-17.60
-8.10
1.09
9.21
15.89
21.06
24.71
26.88
27.57
26.86
25.02
22.51
19.86
17.54
15.84
14.79
14.14
13.54
12.60
11.11
9.05
6.63
4.12
1.75
-0.43
-2.50
-4.62
-6.97
-9.66
-12.83
-16.60
-21.06
-26.04
-31.04
-35.11
-37.15
-36.22
-32.00
-24.94
-16.11
-6.85
1.74
8.98
14.64
18.78
21.48
22.77
22.65
21.23
18.87
16.05
13.35
11.18
9.71
8.76
8.01
7.09
5.76
4.02
1.99
-0.10
-2.11
-4.00
-5.88
-7.92
-10.39
-13.50
-17.44
-22.18
-27.47
-32.66
-36.80
-38.87
-38.09
-34.20
-27.58
-19.11
-9.88
-0.84
7.38
14.42
20.06
24.06
26.11
26.07
24.08
20.72
16.84
13.32
10.76
9.30
8.63
8.23
7.57
6.37
4.62
2.49
0.26
-1.91
-3.97
-6.03
-8.28
-10.92
-14.13
-18.06
-22.75
-28.05
-33.45
-38.05
-40.69
-40.36
-36.54
-29.53
-20.34
-10.36
-0.90
7.24
13.76
18.70
22.16
24.13
24.57
23.53
21.30
18.46
15.62
13.30
11.70
10.65
9.73
8.49
6.65
4.23
1.54
-0.98
-3.02
-4.57
-5.97
-7.75
-10.41
-14.19
-19.05
-24.71
-30.71
-36.41
-41.07
-43.85
-43.98
-41.03
-35.09
-26.82
-17.25
-7.44
1.73
9.74
16.36
21.49
25.06
26.99
27.31
26.20
24.07
21.49
19.03
17.16
16.08
15.66
15.48
15.03
13.94
12.08
9.65
7.01
4.49
2.24
0.15
-2.04
-4.65
-7.96
-12.14
-17.25
-23.08
-29.09
-34.38
-37.81
-38.38
-35.59
-29.67
-21.50
-12.28
-3.18
5.05
12.07
17.84
22.39
25.68
27.59
28.02
27.08
25.06
22.45
19.75
17.36
15.44
13.85
12.34
10.59
8.47
6.00
3.39
0.82
-1.64
-4.07
-6.66
-9.60
-13.00
-16.88
-21.22
-25.98
-31.07
-36.14
-40.54
-43.32
-43.53
-40.58
-34.48
-25.96
-16.14
-6.20
3.02
11.11
18.00
23.71
28.14
31.12
32.48
32.28
30.87
28.81
26.70
24.96
23.77
23.00
22.33
21.41
20.03
18.13
15.80
13.26
10.68
8.15
5.65
3.12
0.41
-2.57
-5.93
-9.85
-14.47
-19.85
-25.75
-31.55
-36.25
-38.70
-38.02
-33.91
-26.81
-17.75
-8.00
1.34
9.60
16.50
21.99
26.09
28.77
30.01
29.90
28.69
26.79
24.63
22.56
20.80
19.39
18.24
17.19
16.05
14.64
12.87
10.76
8.41
5.94
3.41
0.85
-1.82
-4.67
-7.82
-11.40
-15.64
-20.68
-26.47
-32.56
-37.98
-41.49
-41.90
-38.59
-31.79
-22.52
-12.18
-2.12
6.73
13.95
19.48
23.37
25.69
26.48
25.89
24.21
21.89
19.41
17.19
15.49
14.32
13.50
12.72
11.67
10.17
8.19
5.92
3.60
1.37
-0.80
-3.09
-5.75
-8.96
-12.74
-17.01
-21.66
-26.49
-31.18
-35.12
-37.50
-37.48
-34.51
-28.63
-20.52
-11.22
-1.87
6.61
13.69
19.11
22.76
24.57
24.58
23.02
20.35
17.22
14.32
12.11
10.75
9.99
9.34
8.30
6.51
3.99
1.02
-1.95
-4.53
-6.59
-8.34
-10.20
-12.69
-16.22
-20.97
-26.81
-33.18
-39.13
-43.42
-44.87
-42.76
-37.04
-28.47
-18.31
-7.88
1.80
10.14
16.92
22.04
25.40
26.89
26.61
24.91
22.43
19.87
17.81
16.48
15.76
15.29
14.60
13.39
11.54
9.23
6.73
4.31
2.10
-0.03
-2.38
-5.32
-9.13
-13.93
-19.62
-25.88
-32.14
-37.57
-41.21
-42.09
-39.63
-33.80
-25.29
-15.25
-4.98
4.48
12.54
19.07
24.12
27.72
29.79
30.23
29.08
26.69
23.68
20.77
18.50
17.00
16.02
15.04
13.62
11.58
9.09
6.57
4.36
2.58
0.96
-0.92
-3.54
-7.21
-11.99
-17.69
-23.91
-30.01
-35.09
-38.19
-38.44
-35.40
-29.27
-20.85
-11.34
-1.85
6.78
14.15
20.13
24.66
27.62
28.90
28.53
26.82
24.32
21.69
19.44
17.83
16.80
16.05
15.19
13.92
12.09
9.78
7.22
4.67
2.27
0.00
-2.33
-5.05
-8.43
-12.68
-17.82
-23.64
-29.64
-35.02
-38.77
-39.91
-37.82
-32.43
-24.42
-14.88
-5.05
4.06
11.86
18.10
22.72
25.66
26.85
26.34
24.43
21.70
18.84
16.53
15.04
14.26
13.72
12.88
11.37
9.16
6.55
3.94
1.62
-0.37
-2.24
-4.37
-7.14
-10.86
-15.61
-21.27
-27.36
-33.11
-37.48
-39.44
-38.27
-33.82
-26.62
-17.68
-8.18
0.89
8.95
15.72
21.05
24.77
26.68
26.71
25.06
22.27
19.14
16.36
14.34
13.03
12.05
10.88
9.16
6.81
4.06
1.27
-1.29
-3.56
-5.72
-8.13
-11.20
-15.26
-20.42
-26.53
-33.08
-39.19
-43.73
-45.63
-44.14
-39.17
-31.35
-21.81
-11.81
-2.33
6.09
13.27
19.12
23.45
26.03
26.65
25.47
23.06
20.21
17.72
16.01
15.05
14.43
13.62
12.24
10.18
7.64
4.93
2.35
0.02
-2.17
-4.53
-7.47
-11.39
-16.51
-22.73
-29.58
-36.22
-41.57
-44.61
-44.55
-41.15
-34.76
-26.22
-16.58
-6.82
2.37
10.62
17.76
23.62
27.98
30.54
31.19
30.11
27.86
25.18
22.73
20.87
19.58
18.56
17.44
15.97
14.13
12.05
9.89
7.77
5.69
3.52
1.10
-1.81
-5.45
-9.98
-15.43
-21.51
-27.58
-32.71
-35.85
-36.14
-33.18
-27.15
-18.79
-9.22
0.47
9.40
17.12
23.44
28.37
31.84
33.78
34.11
32.99
30.82
28.19
25.69
23.70
22.32
21.34
20.41
19.25
17.66
15.64
13.29
10.78
8.27
5.86
3.52
1.11
-1.64
-5.01
-9.21
-14.30
-20.09
-26.17
-31.85
-36.24
-38.45
-37.78
-33.94
-27.29
-18.69
-9.29
-0.19
7.91
14.72
20.28
24.70
28.02
30.12
30.86
30.27
28.65
26.52
24.45
22.86
21.89
21.33
20.78
19.82
18.19
15.90
13.18
10.36
7.67
5.21
2.85
0.33
-2.58
-6.07
-10.23
-15.01
-20.24
-25.53
-30.23
-33.51
-34.52
-32.70
-27.98
-20.89
-12.34
-3.36
5.17
12.65
18.79
23.44
26.53
28.02
27.99
26.68
24.49
21.91
19.39
17.23
15.49
14.05
12.66
11.13
9.36
7.41
5.43
3.56
1.84
0.21
-1.50
-3.52
-6.11
-9.48
-13.75
-18.83
-24.35
-29.61
-33.70
-35.70
-34.95
-31.29
-25.07
-17.09
-8.29
0.43
8.37
15.03
20.07
23.25
24.46
23.82
21.74
18.87
15.95
13.57
11.97
11.00
10.27
9.38
8.09
6.42
4.56
2.70
0.94
-0.78
-2.60
-4.73
-7.34
-10.55
-14.48
-19.13
-24.30
-29.48
-33.82
-36.37
-36.34
-33.36
-27.68
-20.02
-11.34
-2.58
5.54
12.55
18.12
22.01
24.05
24.22
22.73
20.13
17.11
14.38
12.40
11.23
10.57
9.86
8.62
6.64
4.06
1.30
-1.22
-3.26
-4.98
-6.79
-9.17
-12.56
-17.07
-22.50
-28.32
-33.70
-37.66
-39.28
-37.94
-33.54
-26.54
-17.88
-8.63
0.27
8.18
14.81
20.01
23.68
25.74
26.18
25.15
23.07
20.51
18.00
15.92
14.36
13.13
11.93
10.46
8.60
6.47
4.28
2.30
0.59
-0.97
-2.75
-5.16
-8.55
-13.05
-18.53
-24.57
-30.48
-35.33
-38.11
-38.01
-34.67
-28.37
-19.99
-10.69
-1.56
6.67
13.72
19.52
24.07
27.27
28.94
29.01
27.66
25.37
22.71
20.22
18.18
16.58
15.19
13.70
11.92
9.81
7.48
5.16
3.01
1.08
-0.75
-2.76
-5.26
-8.55
-12.76
-17.83
-23.39
-28.79
-33.16
-35.58
-35.37
-32.23
-26.43
-18.62
-9.75
-0.76
7.62
14.87
20.76
25.16
28.05
29.41
29.31
27.95
25.70
23.06
20.51
18.42
16.88
15.70
14.52
13.02
11.05
8.66
6.11
3.66
1.46
-0.54
-2.53
-4.79
-7.55
-10.98
-15.15
-20.03
-25.41
-30.83
-35.58
-38.72
-39.41
-37.12
-31.90
-24.38
-15.54
-6.42
2.13
9.63
15.82
20.60
23.82
25.35
25.19
23.59
21.06
18.29
15.94
14.38
13.57
13.15
12.60
11.52
9.80
7.63
5.33
3.18
1.24
-0.63
-2.66
-5.11
-8.14
-11.80
-16.13
-21.02
-26.19
-31.06
-34.78
-36.44
-35.33
-31.32
-24.81
-16.72
-8.08
0.18
7.51
13.63
18.42
21.79
23.63
23.92
22.82
20.73
18.22
15.83
13.96
12.69
11.88
11.21
10.36
9.14
7.52
5.57
3.40
1.07
-1.38
-3.95
-6.61
-9.39
-12.43
-15.92
-20.14
-25.15
-30.67
-35.96
-39.94
-41.53
-40.05
-35.43
-28.29
-19.68
-10.70
-2.15
5.51
12.12
17.63
21.88
24.68
25.88
25.53
23.97
21.72
19.37
17.36
15.94
15.04
14.40
13.70
12.61
10.98
8.83
6.34
3.76
1.33
-0.90
-3.05
-5.37
-8.13
-11.60
-15.88
-20.88
-26.29
-31.52
-35.76
-38.12
-37.82
-34.46
-28.23
-19.84
-10.34
-0.85
7.79
15.12
20.95
25.27
28.05
29.28
29.02
27.49
25.15
22.58
20.30
18.62
17.58
16.94
16.37
15.52
14.19
12.31
9.97
7.32
4.51
1.65
-1.27
-4.30
-7.54
-11.09
-15.02
-19.38
-24.15
-29.09
-33.64
-36.97
-38.16
-36.50
-31.81
-24.60
-15.86
-6.75
1.75
9.08
15.06
19.70
23.04
25.04
25.67
24.98
23.25
20.92
18.51
16.45
15.01
14.20
13.77
13.38
12.72
11.60
10.01
8.05
5.92
3.72
1.46
-0.97
-3.70
-6.89
-10.65
-15.09
-20.16
-25.67
-31.03
-35.38
-37.69
-37.13
-33.38
-26.84
-18.44
-9.39
-0.70
6.99
13.41
18.46
22.02
23.88
23.98
22.50
20.02
17.28
14.94
13.34
12.36
11.65
10.79
9.53
7.86
5.94
3.96
2.02
0.15
-1.75
-3.79
-6.13
-8.93
-12.37
-16.59
-21.54
-26.93
-32.11
-36.16
-38.18
-37.47
-33.86
-27.71
-19.80
-11.08
-2.40
5.59
12.48
18.01
21.95
24.16
24.66
23.66
21.61
19.05
16.46
14.16
12.22
10.57
9.03
7.50
5.93
4.34
2.76
1.21
-0.37
-2.10
-4.16
-6.73
-10.02
-14.18
-19.26
-25.05
-31.06
-36.51
-40.42
-41.89
-40.35
-35.80
-28.76
-20.14
-10.95
-1.97
6.28
13.55
19.67
24.45
27.68
29.25
29.27
28.12
26.40
24.70
23.46
22.80
22.56
22.40
21.96
20.97
19.31
17.00
14.23
11.33
8.72
6.93
6.42
7.44
9.91
13.37
17.15
20.49
22.81
23.86
23.62
22.31
20.21
17.58
14.70
11.78
9.05
6.66
4.70
3.14
1.89
0.80
-0.28
-1.55
-3.21
-5.44
-8.29
-11.68
-15.35
-19.02
-22.41
-25.43
-28.20
-31.02
-34.26
-38.27
-43.30
-49.30
-55.86
-62.08
-66.72
-68.47
-66.35
-60.12
-50.38
-38.39
-25.69
-13.58
-2.87
6.11
13.41
19.10
23.18
25.57
26.26
25.52
23.84
21.89
20.28
19.29
18.84
18.55
17.94
16.72
14.88
12.67
10.42
8.35
6.43
4.40
1.95
-1.18
-5.12
-9.83
-15.15
-20.80
-26.32
-31.05
-34.19
-34.96
-32.88
-27.91
-20.56
-11.71
-2.43
6.30
13.77
19.52
23.34
25.20
25.23
23.76
21.29
18.43
15.69
13.41
11.60
10.06
8.49
6.68
4.58
2.30
0.03
-2.12
-4.24
-6.55
-9.43
-13.23
-18.12
-23.92
-29.99
-35.34
-38.78
-39.32
-36.52
-30.59
-22.36
-12.97
-3.54
5.06
12.31
17.90
21.70
23.64
23.82
22.51
20.16
17.29
14.35
11.64
9.22
7.05
5.00
2.96
0.90
-1.23
-3.44
-5.79
-8.42
-11.54
-15.36
-20.04
-25.57
-31.55
-37.22
-41.54
-43.43
-42.19
-37.68
-30.47
-21.56
-12.10
-3.02
5.13
12.07
17.66
21.76
24.15
24.74
23.70
21.48
18.74
16.06
13.81
12.00
10.40
8.72
6.78
4.57
2.21
-0.19
-2.66
-5.38
-8.71
-12.96
-18.25
-24.36
-30.68
-36.24
-39.98
-41.03
-38.95
-33.90
-26.48
-17.56
-7.99
1.53
10.52
18.54
25.19
30.08
32.93
33.76
32.94
31.11
28.97
27.05
25.55
24.36
23.18
21.74
19.89
17.69
15.32
12.98
10.73
8.44
5.88
2.73
-1.25
-6.17
-11.97
-18.37
-24.89
-30.81
-35.25
-37.37
-36.55
-32.69
-26.24
-18.09
-9.21
-0.40
7.97
15.81
23.09
29.57
34.79
38.22
39.61
39.12
37.37
35.14
33.08
31.48
30.29
29.25
28.06
26.53
24.65
22.49
20.16
17.77
15.31
12.71
9.84
6.57
2.88
-1.19
-5.55
-10.19
-15.19
-20.66
-26.47
-32.13
-36.68
-38.96
-38.06
-33.71
-26.43
-17.31
-7.58
1.80
10.38
18.04
24.76
30.29
34.20
36.09
35.89
34.04
31.36
28.74
26.82
25.76
25.35
25.18
24.88
24.21
23.09
21.52
19.49
17.03
14.20
11.11
7.91
4.72
1.59
-1.53
-4.80
-8.44
-12.73
-17.85
-23.76
-30.05
-35.88
-40.16
-41.86
-40.37
-35.76
-28.69
-20.19
-11.26
-2.61
5.38
12.58
18.83
23.90
27.47
29.35
29.59
28.59
26.91
25.18
23.82
22.95
22.46
22.08
21.56
20.72
19.52
17.95
16.05
13.84
11.33
8.51
5.38
1.94
-1.79
-5.76
-9.94
-14.31
-18.91
-23.79
-28.92
-34.07
-38.73
-42.19
-43.68
-42.59
-38.76
-32.43
-24.25
-15.03
-5.56
3.55
11.84
19.02
24.79
28.96
31.42
32.24
31.74
30.44
28.91
27.57
26.62
25.96
25.36
24.61
23.61
22.42
21.12
19.71
18.05
15.89
13.06
9.57
5.66
1.71
-1.89
-4.96
-7.57
-10.04
-12.81
-16.24
-20.55
-25.69
-31.38
-37.04
-41.96
-45.31
-46.39
-44.79
-40.51
-33.97
-25.91
-17.14
-8.33
0.08
7.82
14.74
20.62
25.19
28.18
29.54
29.49
28.55
27.34
26.33
25.69
25.30
24.88
24.20
23.20
22.00
20.75
19.50
18.17
16.57
14.52
11.92
8.83
5.42
1.94
-1.39
-4.45
-7.27
-10.05
-13.10
-16.70
-21.02
-25.98
-31.27
-36.38
-40.74
-43.74
-44.86
-43.81
-40.50
-35.15
-28.17
-20.14
-11.62
-3.12
4.93
12.12
18.05
22.40
24.97
25.87
25.48
24.35
23.02
21.85
20.98
20.32
19.70
18.98
18.10
17.08
15.93
14.67
13.28
11.68
9.81
7.61
5.06
2.21
-0.88
-4.06
-7.22
-10.30
-13.37
-16.62
-20.28
-24.48
-29.10
-33.71
-37.59
-39.90
-39.98
-37.49
-32.59
-25.78
-17.83
-9.50
-1.43
5.93
12.25
17.33
21.00
23.22
24.07
23.87
23.04
22.05
21.19
20.58
20.06
19.41
18.45
17.16
15.66
14.16
12.75
11.38
9.87
8.01
5.63
2.73
-0.55
-4.00
-7.38
-10.50
-13.35
-16.07
-18.93
-22.31
-26.44
-31.36
-36.71
-41.78
-45.69
-47.57
-46.89
-43.52
-37.78
-30.32
-21.85
-13.03
-4.38
3.73
10.97
17.07
21.74
24.83
26.38
26.62
25.98
24.91
23.81
22.85
22.07
21.34
20.53
19.60
18.60
17.59
16.59
15.48
14.07
12.14
9.57
6.44
2.92
-0.69
-4.15
-7.38
-10.40
-13.38
-16.55
-20.15
-24.37
-29.20
-34.38
-39.35
-43.32
-45.44
-45.03
-41.84
-36.09
-28.44
-19.73
-10.76
-2.12
5.83
12.88
18.80
23.35
26.37
27.89
28.18
27.75
27.05
26.38
25.78
25.06
24.05
22.68
21.07
19.41
17.87
16.44
15.01
13.39
11.41
8.96
6.09
2.92
-0.37
-3.60
-6.67
-9.61
-12.56
-15.74
-19.39
-23.71
-28.70
-34.13
-39.43
-43.72
-46.01
-45.53
-41.97
-35.67
-27.50
-18.58
-9.85
-1.87
5.17
11.30
16.49
20.60
23.39
24.73
24.77
23.87
22.54
21.19
20.06
19.21
18.54
17.97
17.38
16.66
15.63
14.10
11.95
9.22
6.11
2.91
-0.14
-2.93
-5.58
-8.28
-11.26
-14.70
-18.72
-23.35
-28.47
-33.65
-38.16
-41.09
-41.59
-39.20
-34.05
-26.81
-18.38
-9.67
-1.31
6.31
12.99
18.55
22.78
25.53
26.75
26.58
25.35
23.48
21.44
19.63
18.30
17.52
17.15
16.95
16.63
15.96
14.81
13.08
10.74
7.78
4.27
0.39
-3.57
-7.32
-10.69
-13.72
-16.69
-20.04
-24.14
-29.18
-34.94
-40.79
-45.80
-48.91
-49.28
-46.52
-40.80
-32.81
-23.47
-13.71
-4.22
4.58
12.42
19.10
24.39
28.06
30.08
30.60
30.06
28.98
27.82
26.83
25.97
25.06
23.89
22.39
20.66
18.91
17.29
15.79
14.20
12.25
9.69
6.45
2.70
-1.28
-5.20
-8.88
-12.34
-15.76
-19.39
-23.49
-28.20
-33.47
-38.90
-43.79
-47.21
-48.31
-46.54
-41.86
-34.78
-26.09
-16.67
-7.19
1.93
10.44
18.06
24.43
29.17
32.05
33.14
32.84
31.72
30.35
29.06
27.93
26.81
25.55
24.07
22.42
20.72
19.09
17.48
15.75
13.66
11.05
7.87
4.26
0.46
-3.23
-6.64
-9.72
-12.67
-15.83
-19.62
-24.32
-29.95
-36.11
-41.99
-46.51
-48.61
-47.59
-43.29
-36.22
-27.28
-17.54
-7.92
0.98
8.86
15.60
21.12
25.32
28.08
29.38
29.35
28.32
26.70
24.94
23.29
21.86
20.59
19.40
18.22
17.04
15.85
14.58
13.05
11.04
8.38
5.11
1.43
-2.41
-6.17
-9.80
-13.43
-17.26
-21.51
-26.28
-31.47
-36.72
-41.35
-44.45
-45.10
-42.61
-36.85
-28.35
-18.18
-7.62
2.22
10.68
17.50
22.71
26.41
28.66
29.53
29.16
27.85
25.97
23.91
21.94
20.21
18.76
17.56
16.50
15.44
14.21
12.65
10.65
8.21
5.41
2.33
-0.99
-4.57
-8.43
-12.51
-16.71
-21.00
-25.44
-30.20
-35.39
-40.79
-45.75
-49.22
-50.06
-47.49
-41.41
-32.50
-21.95
-11.08
-0.94
7.84
15.05
20.74
24.98
27.83
29.36
29.68
29.02
27.72
26.09
24.43
22.91
21.66
20.70
19.98
19.36
18.60
17.43
15.61
13.03
9.76
6.02
2.11
-1.75
-5.43
-9.00
-12.62
-16.58
-21.14
-26.51
-32.62
-39.06
-45.02
-49.37
-50.98
-49.04
-43.40
-34.65
-23.91
-12.52
-1.62
8.03
16.14
22.68
27.74
31.33
33.45
34.14
33.61
32.27
30.58
28.97
27.63
26.55
25.56
24.44
23.09
21.50
19.72
17.72
15.43
12.73
9.55
5.93
2.02
-1.98
-5.90
-9.72
-13.61
-17.83
-22.72
-28.42
-34.75
-41.07
-46.33
-49.38
-49.23
-45.45
-38.32
-28.73
-17.90
-6.99
3.11
11.97
19.40
25.35
29.78
32.60
33.83
33.64
32.43
30.73
28.99
27.49
26.27
25.19
24.04
22.69
21.07
19.21
17.13
14.86
12.37
9.64
6.65
3.40
-0.07
-3.69
-7.40
-11.17
-15.14
-19.53
-24.59
-30.36
-36.51
-42.19
-46.23
-47.46
-45.15
-39.34
-30.79
-20.76
-10.52
-1.04
7.22
14.18
19.90
24.36
27.37
28.75
28.49
26.90
24.60
22.26
20.42
19.23
18.49
17.77
16.68
15.03
12.89
10.50
8.11
5.83
3.61
1.28
-1.39
-4.54
-8.26
-12.61
-17.60
-23.21
-29.23
-35.16
-40.16
-43.23
-43.47
-40.42
-34.25
-25.73
-15.97
-6.06
3.22
11.42
18.35
23.85
27.72
29.70
29.75
28.10
25.39
22.41
19.90
18.24
17.36
16.84
16.18
15.00
13.15
10.73
7.94
4.99
1.99
-1.01
-4.03
-7.15
-10.49
-14.26
-18.69
-23.96
-30.05
-36.58
-42.77
-47.50
-49.64
-48.39
-43.58
-35.77
-26.05
-15.67
-5.64
3.50
11.63
18.78
24.87
29.66
32.83
34.18
33.81
32.14
29.78
27.31
25.14
23.38
21.93
20.53
18.94
17.00
14.69
12.08
9.29
6.40
3.35
0.00
-3.76
-8.02
-12.79
-18.03
-23.70
-29.70
-35.71
-41.12
-45.01
-46.38
-44.54
-39.35
-31.32
-21.50
-11.03
-0.86
8.39
16.48
23.29
28.70
32.52
34.60
34.97
33.92
31.96
29.72
27.72
26.23
25.21
24.37
23.32
21.77
19.62
16.99
14.10
11.15
8.23
5.28
2.22
-1.02
-4.48
-8.21
-12.29
-16.91
-22.21
-28.11
-34.18
-39.61
-43.36
-44.44
-42.27
-36.80
-28.61
-18.68
-8.19
1.87
10.79
18.30
24.37
29.05
32.34
34.15
34.41
33.25
31.03
28.32
25.74
23.67
22.23
21.21
20.30
19.22
17.82
16.06
13.97
11.59
8.98
6.20
3.31
0.33
-2.79
-6.16
-9.92
-14.20
-19.04
-24.45
-30.25
-36.04
-41.08
-44.42
-45.09
-42.45
-36.53
-28.04
-18.21
-8.32
0.69
8.36
14.69
19.84
23.86
26.64
27.99
27.83
26.38
24.15
21.73
19.65
18.13
17.08
16.22
15.20
13.82
12.08
10.10
8.08
6.10
4.12
1.99
-0.48
-3.39
-6.74
-10.47
-14.55
-19.03
-23.97
-29.21
-34.25
-38.19
-39.99
-38.83
-34.45
-27.28
-18.32
-8.72
0.52
8.76
15.75
21.38
25.60
28.30
29.40
28.98
27.30
24.85
22.23
19.92
18.23
17.13
16.36
15.52
14.25
12.38
9.95
7.20
4.43
1.84
-0.54
-2.84
-5.28
-8.14
-11.59
-15.77
-20.71
-26.31
-32.31
-38.23
-43.34
-46.75
-47.60
-45.34
-39.89
-31.80
-22.08
-11.94
-2.45
5.74
12.39
17.55
21.36
23.87
25.06
24.93
23.67
21.68
19.45
17.43
15.79
14.49
13.29
11.99
10.46
8.66
6.54
4.01
0.91
-2.73
-6.63
-10.12
-12.32
-12.43
-10.02
-5.19
1.45
9.00
16.54
23.36
28.97
33.06
35.51
36.34
35.69
33.94
31.56
29.03
26.77
24.98
23.70
22.85
22.27
21.79
21.23
20.40
19.14
17.38
15.16
12.65
10.05
7.51
5.06
2.63
0.04
-2.86
-6.12
-9.64
-13.20
-16.58
-19.69
-22.58
-25.41
-28.36
-31.56
-35.04
-38.82
-43.02
-47.77
-53.06
-58.50
-63.17
-65.77
-65.06
-60.36
-51.92
-40.79
-28.49
-16.42
-5.46
4.05
12.13
18.86
24.17
27.92
30.05
30.74
30.40
29.52
28.57
27.76
27.07
26.35
25.42
24.18
22.68
21.05
19.43
17.86
16.28
14.53
12.41
9.86
6.93
3.75
0.53
-2.62
-5.71
-8.91
-12.50
-16.73
-21.65
-26.95
-31.89
-35.47
-36.66
-34.83
-30.03
-22.92
-14.61
-6.21
1.50
8.20
13.86
18.52
22.08
24.33
25.02
24.14
22.02
19.23
16.45
14.20
12.70
11.85
11.36
10.85
10.06
8.84
7.19
5.18
2.95
0.57
-1.93
-4.56
-7.40
-10.57
-14.16
-18.28
-22.96
-28.03
-33.05
-37.26
-39.68
-39.43
-36.06
-29.78
-21.44
-12.24
-3.34
4.49
10.92
16.01
19.80
22.29
23.30
22.76
20.84
18.09
15.25
12.98
11.63
11.08
10.88
10.45
9.37
7.54
5.14
2.51
-0.08
-2.48
-4.78
-7.14
-9.79
-12.87
-16.48
-20.69
-25.47
-30.66
-35.87
-40.35
-43.15
-43.38
-40.49
-34.56
-26.26
-16.73
-7.11
1.73
9.30
15.46
20.23
23.56
25.39
25.66
24.50
22.25
19.46
16.77
14.65
13.30
12.56
12.02
11.21
9.82
7.86
5.60
3.34
1.28
-0.70
-2.88
-5.63
-9.15
-13.48
-18.50
-24.04
-29.85
-35.44
-40.09
-42.85
-42.87
-39.69
-33.50
-25.07
-15.50
-5.88
3.06
10.92
17.51
22.68
26.22
27.97
27.95
26.49
24.17
21.68
19.59
18.16
17.30
16.61
15.68
14.19
12.08
9.52
6.79
4.19
1.84
-0.33
-2.56
-5.17
-8.46
-12.57
-17.54
-23.12
-28.81
-33.88
-37.43
-38.68
-37.12
-32.73
-25.99
-17.75
-8.91
-0.19
7.86
14.93
20.74
25.00
27.46
28.04
26.99
24.86
22.32
19.91
17.94
16.34
14.86
13.20
11.21
8.93
6.55
4.34
2.45
0.86
-0.65
-2.41
-4.82
-8.19
-12.66
-18.10
-24.03
-29.73
-34.26
-36.75
-36.60
-33.61
-28.11
-20.75
-12.35
-3.69
4.61
12.03
18.17
22.66
25.24
25.84
24.68
22.27
19.28
16.36
13.98
12.25
11.04
10.03
8.96
7.67
6.19
4.60
2.98
1.30
-0.61
-3.03
-6.21
-10.34
-15.47
-21.36
-27.53
-33.15
-37.24
-38.91
-37.62
-33.38
-26.77
-18.67
-9.99
-1.42
6.57
13.66
19.50
23.70
25.95
26.24
24.92
22.65
20.12
17.86
15.99
14.33
12.61
10.63
8.38
6.05
3.84
1.92
0.25
-1.36
-3.23
-5.75
-9.28
-13.95
-19.68
-25.99
-32.10
-37.04
-39.84
-39.80
-36.68
-30.77
-22.80
-13.69
-4.33
4.63
12.77
19.84
25.59
29.75
32.02
32.33
30.89
28.29
25.30
22.64
20.69
19.44
18.52
17.47
15.97
13.94
11.55
9.06
6.65
4.37
2.05
-0.56
-3.75
-7.77
-12.71
-18.43
-24.50
-30.19
-34.55
-36.67
-35.90
-32.05
-25.44
-16.80
-7.10
2.74
11.96
20.03
26.63
31.58
34.79
36.22
35.99
34.36
31.81
28.91
26.19
23.99
22.39
21.15
19.95
18.48
16.63
14.46
12.14
9.79
7.46
5.05
2.43
-0.53
-3.93
-7.91
-12.56
-17.96
-24.00
-30.17
-35.62
-39.22
-39.95
-37.24
-31.25
-22.80
-13.11
-3.41
5.49
13.18
19.63
24.88
28.85
31.34
32.16
31.32
29.16
26.31
23.47
21.19
19.69
18.79
18.09
17.16
15.73
13.79
11.56
9.25
7.02
4.82
2.45
-0.32
-3.70
-7.77
-12.52
-17.79
-23.32
-28.63
-33.07
-35.82
-36.17
-33.69
-28.48
-21.12
-12.52
-3.62
4.83
12.34
18.61
23.43
26.65
28.15
27.98
26.41
23.92
21.08
18.39
16.20
14.60
13.44
12.38
11.07
9.26
6.94
4.35
1.82
-0.40
-2.33
-4.23
-6.56
-9.70
-13.85
-18.92
-24.54
-30.16
-35.09
-38.59
-39.93
-38.60
-34.45
-27.81
-19.43
-10.28
-1.26
6.94
13.96
19.60
23.77
26.41
27.45
27.00
25.34
22.92
20.30
17.98
16.30
15.26
14.64
14.04
13.10
11.57
9.48
7.01
4.41
1.88
-0.58
-3.07
-5.80
-8.99
-12.84
-17.43
-22.72
-28.37
-33.78
-38.04
-40.22
-39.63
-36.04
-29.81
-21.73
-12.73
-3.67
4.89
12.57
19.16
24.44
28.16
30.15
30.42
29.24
27.11
24.59
22.21
20.27
18.82
17.73
16.76
15.70
14.40
12.79
10.88
8.67
6.21
3.53
0.64
-2.41
-5.59
-8.87
-12.25
-15.78
-19.57
-23.72
-28.16
-32.58
-36.35
-38.62
-38.56
-35.69
-30.07
-22.35
-13.54
-4.70
3.41
10.37
16.10
20.65
24.03
26.20
27.08
26.76
25.48
23.62
21.56
19.62
17.94
16.55
15.42
14.50
13.73
12.97
12.02
10.70
8.85
6.45
3.62
0.57
-2.44
-5.26
-7.92
-10.60
-13.58
-17.14
-21.42
-26.28
-31.30
-35.72
-38.66
-39.34
-37.27
-32.47
-25.44
-17.03
-8.14
0.43
8.09
14.53
19.55
23.04
24.95
25.33
24.39
22.53
20.26
18.09
16.35
15.17
14.49
14.12
13.83
13.42
12.74
11.65
10.09
8.03
5.56
2.79
-0.11
-3.02
-5.94
-8.91
-12.02
-15.36
-18.99
-22.91
-27.02
-31.04
-34.45
-36.49
-36.41
-33.71
-28.36
-20.94
-12.39
-3.81
3.97
10.40
15.35
18.83
20.94
21.78
21.46
20.23
18.41
16.38
14.46
12.86
11.61
10.61
9.71
8.73
7.52
6.04
4.30
2.38
0.38
-1.61
-3.62
-5.69
-7.95
-10.54
-13.59
-17.18
-21.31
-25.83
-30.30
-34.02
-36.15
-35.89
-32.83
-27.09
-19.36
-10.63
-1.93
5.98
12.65
17.89
21.65
23.88
24.57
23.79
21.82
19.13
16.30
13.87
12.16
11.19
10.69
10.27
9.55
8.32
6.58
4.45
2.11
-0.31
-2.81
-5.44
-8.23
-11.17
-14.25
-17.53
-21.16
-25.31
-29.94
-34.64
-38.61
-40.81
-40.34
-36.76
-30.32
-21.86
-12.52
-3.39
4.78
11.58
16.91
20.76
23.15
24.13
23.87
22.66
20.89
18.96
17.18
15.69
14.49
13.49
12.57
11.58
10.42
9.04
7.40
5.55
3.55
1.41
-0.90
-3.48
-6.43
-9.78
-13.53
-17.67
-22.19
-27.08
-32.15
-36.85
-40.35
-41.64
-39.95
-35.07
-27.44
-18.07
-8.16
1.23
9.46
16.21
21.42
25.13
27.36
28.18
27.77
26.45
24.57
22.53
20.58
18.87
17.45
16.26
15.24
14.32
13.44
12.47
11.27
9.71
7.66
5.14
2.22
-0.94
-4.21
-7.52
-10.87
-14.33
-18.04
-22.13
-26.69
-31.67
-36.72
-41.19
-44.14
-44.63
-42.00
-36.16
-27.73
-17.75
-7.48
2.04
10.14
16.56
21.30
24.50
26.33
27.00
26.78
25.97
24.85
23.63
22.42
21.22
20.03
18.82
17.58
16.32
14.99
13.55
11.94
10.11
8.06
5.80
3.30
0.57
-2.36
-5.47
-8.70
-12.12
-15.83
-20.03
-24.79
-29.95
-34.99
-39.06
-41.20
-40.60
-36.92
-30.42
-21.88
-12.36
-2.87
5.82
13.26
19.21
23.58
26.26
27.26
26.73
25.05
22.77
20.43
18.42
16.91
15.85
15.08
14.43
13.76
12.93
11.81
10.33
8.44
6.25
3.88
1.43
-1.08
-3.76
-6.75
-10.16
-14.09
-18.54
-23.45
-28.60
-33.51
-37.45
-39.55
-39.03
-35.51
-29.16
-20.74
-11.32
-2.02
6.29
13.14
18.40
22.11
24.35
25.20
24.73
23.14
20.78
18.11
15.62
13.69
12.44
11.76
11.30
10.72
9.74
8.24
6.28
4.00
1.56
-0.93
-3.45
-5.99
-8.65
-11.54
-14.86
-18.84
-23.61
-29.10
-34.87
-40.08
-43.70
-44.78
-42.73
-37.53
-29.71
-20.18
-10.00
-0.11
8.74
16.12
21.79
25.72
27.96
28.65
28.05
26.46
24.28
21.93
19.79
18.07
16.82
15.91
15.10
14.15
12.89
11.24
9.19
6.77
4.04
1.05
-2.18
-5.57
-9.13
-12.84
-16.78
-21.07
-25.83
-31.09
-36.57
-41.65
-45.37
-46.71
-44.87
-39.66
-31.55
-21.62
-11.13
-1.18
7.59
14.97
21.02
25.81
29.32
31.41
31.97
31.13
29.23
26.84
24.51
22.62
21.31
20.43
19.70
18.85
17.69
16.18
14.31
12.10
9.51
6.49
3.03
-0.76
-4.68
-8.55
-12.33
-16.21
-20.55
-25.65
-31.53
-37.70
-43.14
-46.63
-47.06
-43.86
-37.18
-27.88
-17.17
-6.26
3.90
12.79
20.19
26.02
30.25
32.85
33.89
33.57
32.31
30.58
28.79
27.23
25.93
24.78
23.64
22.39
21.03
19.55
17.93
16.09
13.88
11.20
8.02
4.47
0.74
-2.96
-6.52
-10.00
-13.61
-17.68
-22.48
-28.11
-34.32
-40.40
-45.25
-47.66
-46.70
-42.05
-34.16
-24.14
-13.34
-2.95
6.27
14.02
20.33
25.26
28.78
30.80
31.28
30.39
28.48
26.06
23.65
21.62
20.14
19.18
18.59
18.14
17.64
16.89
15.77
14.15
11.98
9.28
6.17
2.81
-0.67
-4.25
-8.01
-12.13
-16.85
-22.26
-28.27
-34.42
-39.92
-43.74
-44.87
-42.66
-37.04
-28.62
-18.55
-8.09
1.65
9.95
16.48
21.14
23.89
24.72
23.72
21.22
17.85
14.46
11.98
11.07
11.93
14.20
17.11
19.74
21.40
21.73
20.84
19.08
16.87
14.59
12.48
10.67
9.20
8.04
7.12
6.27
5.31
4.08
2.46
0.43
-1.93
-4.51
-7.24
-10.12
-13.23
-16.76
-20.94
-25.91
-31.60
-37.57
-42.99
-46.78
-47.89
-45.59
-39.82
-31.17
-20.75
-9.80
0.62
9.86
17.58
23.67
28.06
30.67
31.50
30.75
28.78
26.13
23.37
20.93
19.05
17.76
16.88
16.11
15.12
13.67
11.67
9.19
6.39
3.42
0.34
-2.91
-6.44
-10.33
-14.67
-19.50
-24.91
-30.87
-37.17
-43.22
-48.04
-50.48
-49.58
-44.95
-36.92
-26.52
-15.08
-3.87
6.18
14.63
21.34
26.34
29.69
31.44
31.69
30.68
28.78
26.41
23.99
21.87
20.21
19.02
18.16
17.33
16.24
14.62
12.36
9.51
6.31
2.99
-0.29
-3.52
-6.83
-10.46
-14.63
-19.50
-25.12
-31.32
-37.62
-43.25
-47.18
-48.43
-46.34
-40.84
-32.48
-22.27
-11.39
-0.86
8.60
16.62
23.05
27.84
30.96
32.45
32.44
31.23
29.26
27.01
24.97
23.42
22.44
21.89
21.49
20.94
19.96
18.42
16.26
13.53
10.34
6.84
3.18
-0.52
-4.21
-7.99
-12.03
-16.58
-21.86
-27.88
-34.36
-40.59
-45.50
-47.90
-46.80
-41.83
-33.38
-22.59
-10.98
-0.00
9.40
16.89
22.64
26.94
30.00
31.79
32.21
31.27
29.27
26.72
24.22
22.24
20.97
20.32
20.02
19.72
19.11
17.95
16.10
13.56
10.45
7.00
3.42
-0.09
-3.47
-6.81
-10.27
-14.15
-18.73
-24.17
-30.28
-36.41
-41.46
-44.18
-43.54
-39.19
-31.57
-21.77
-11.14
-0.89
8.20
15.79
21.82
26.27
29.13
30.35
30.03
28.43
26.01
23.34
20.98
19.26
18.25
17.73
17.29
16.50
15.06
12.93
10.28
7.40
4.53
1.76
-0.99
-3.91
-7.21
-11.08
-15.63
-20.91
-26.85
-33.13
-39.10
-43.76
-45.97
-44.81
-39.93
-31.73
-21.29
-10.05
0.69
9.99
17.47
23.13
27.11
29.56
30.53
30.15
28.65
26.42
23.96
21.72
19.98
18.79
18.01
17.34
16.49
15.22
13.43
11.14
8.46
5.55
2.51
-0.63
-3.96
-7.58
-11.62
-16.20
-21.37
-27.16
-33.46
-39.89
-45.69
-49.81
-51.12
-48.83
-42.82
-33.76
-22.90
-11.66
-1.17
8.01
15.72
22.08
27.09
30.65
32.55
32.78
31.56
29.41
26.93
24.66
22.90
21.72
20.96
20.39
19.73
18.73
17.22
15.11
12.48
9.49
6.37
3.27
0.23
-2.83
-6.07
-9.75
-14.12
-19.38
-25.60
-32.55
-39.59
-45.69
-49.62
-50.30
-47.11
-40.18
-30.35
-18.94
-7.31
3.42
12.62
20.08
25.87
30.14
32.97
34.42
34.62
33.82
32.40
30.78
29.29
28.04
26.98
25.95
24.82
23.54
22.16
20.70
19.09
17.16
14.65
11.43
7.57
3.35
-0.87
-4.75
-8.18
-11.27
-14.31
-17.72
-21.86
-26.95
-32.99
-39.56
-45.80
-50.47
-52.29
-50.34
-44.45
-35.29
-24.16
-12.53
-1.59
8.01
16.05
22.53
27.48
30.82
32.56
32.85
32.07
30.75
29.36
28.15
27.15
26.25
25.29
24.18
22.95
21.66
20.33
18.87
17.12
14.90
12.12
8.82
5.20
1.52
-1.99
-5.26
-8.38
-11.62
-15.29
-19.63
-24.76
-30.48
-36.26
-41.23
-44.29
-44.44
-41.07
-34.28
-24.85
-14.11
-3.46
5.98
13.62
19.37
23.41
25.96
27.13
26.95
25.52
23.13
20.24
17.46
15.24
13.86
13.26
13.15
13.13
12.82
11.97
10.52
8.51
6.08
3.40
0.62
-2.17
-5.00
-7.96
-11.26
-15.15
-19.83
-25.34
-31.36
-37.14
-41.62
-43.65
-42.43
-37.71
-29.97
-20.27
-9.84
0.20
9.09
16.41
22.02
25.87
27.98
28.43
27.42
25.34
22.68
19.96
17.60
15.83
14.67
13.89
13.18
12.24
10.86
8.99
6.72
4.19
1.52
-1.25
-4.14
-7.20
-10.51
-14.19
-18.37
-23.20
-28.76
-34.89
-41.05
-46.32
-49.52
-49.61
-45.98
-38.79
-28.88
-17.59
-6.29
3.98
12.64
19.59
24.90
28.70
30.98
31.72
30.96
28.98
26.23
23.33
20.81
18.98
17.87
17.20
16.53
15.48
13.83
11.56
8.81
5.77
2.57
-0.72
-4.12
-7.66
-11.40
-15.38
-19.71
-24.55
-29.98
-35.88
-41.75
-46.69
-49.54
-49.20
-45.09
-37.34
-26.86
-15.11
-3.58
6.62
14.94
21.34
26.07
29.32
31.20
31.72
30.96
29.18
26.81
24.31
22.03
20.13
18.57
17.19
15.82
14.34
12.66
10.73
8.51
5.98
3.13
-0.01
-3.36
-6.83
-10.36
-14.01
-17.97
-22.54
-27.87
-33.82
-39.72
-44.43
-46.65
-45.36
-40.23
-31.81
-21.29
-10.13
0.43
9.63
17.18
23.08
27.39
30.08
31.13
30.64
28.92
26.51
24.02
21.95
20.53
19.72
19.19
18.59
17.60
16.05
13.94
11.42
8.65
5.74
2.78
-0.21
-3.22
-6.30
-9.53
-13.12
-17.36
-22.48
-28.45
-34.73
-40.29
-43.80
-44.07
-40.47
-33.25
-23.44
-12.47
-1.75
7.78
15.65
21.78
26.20
28.91
29.84
29.03
26.76
23.58
20.24
17.40
15.48
14.51
14.19
14.02
13.50
12.33
10.39
7.85
5.01
2.17
-0.51
-3.04
-5.63
-8.57
-12.15
-16.58
-21.92
-27.96
-34.22
-39.88
-43.89
-45.23
-43.20
-37.66
-29.22
-18.98
-8.28
1.73
10.30
17.19
22.42
26.18
28.55
29.59
29.35
27.99
25.89
23.51
21.35
19.68
18.52
17.64
16.66
15.27
13.31
10.82
8.01
5.11
2.24
-0.58
-3.52
-6.76
-10.45
-14.68
-19.49
-24.89
-30.84
-37.13
-43.19
-48.07
-50.60
-49.75
-45.06
-36.84
-26.17
-14.49
-3.13
7.00
15.52
22.39
27.65
31.30
33.30
33.69
32.70
30.72
28.25
25.74
23.46
21.51
19.87
18.43
17.10
15.79
14.40
12.81
10.93
8.65
5.88
2.63
-1.05
-5.04
-9.21
-13.48
-17.92
-22.72
-28.07
-33.98
-40.03
-45.30
-48.58
-48.75
-45.14
-37.89
-27.88
-16.46
-5.04
5.34
14.10
21.06
26.29
29.87
31.86
32.31
31.41
29.50
27.10
24.75
22.88
21.71
21.19
21.06
20.93
20.44
19.32
17.47
14.95
11.96
8.69
5.32
1.91
-1.53
-5.03
-8.63
-12.44
-16.61
-21.39
-26.98
-33.30
-39.84
-45.57
-49.17
-49.46
-45.84
-38.56
-28.66
-17.58
-6.69
3.11
11.42
18.26
23.74
27.86
30.51
31.58
31.15
29.54
27.27
24.92
22.91
21.40
20.33
19.48
18.64
17.62
16.36
14.79
12.89
10.63
8.01
5.07
1.90
-1.38
-4.76
-8.31
-12.25
-16.84
-22.20
-28.17
-34.18
-39.31
-42.47
-42.72
-39.53
-33.04
-24.06
-13.76
-3.42
5.96
13.79
19.88
24.26
27.02
28.16
27.73
25.93
23.25
20.33
17.88
16.34
15.72
15.65
15.54
14.91
13.53
11.48
9.01
6.35
3.62
0.80
-2.19
-5.38
-8.79
-12.41
-16.35
-20.76
-25.73
-31.09
-36.28
-40.39
-42.32
-41.21
-36.76
-29.33
-19.93
-9.81
-0.10
8.43
15.47
20.98
24.96
27.39
28.20
27.47
25.55
23.02
20.52
18.57
17.35
16.72
16.29
15.64
14.41
12.48
9.91
6.90
3.75
0.71
-2.11
-4.77
-7.50
-10.60
-14.32
-18.86
-24.23
-30.29
-36.62
-42.51
-46.96
-48.89
-47.48
-42.46
-34.31
-24.11
-13.19
-2.77
6.42
14.09
20.29
25.10
28.53
30.49
30.91
29.93
27.91
25.41
23.03
21.20
20.09
19.54
19.18
18.60
17.46
15.62
13.13
10.16
6.93
3.60
0.28
-3.00
-6.26
-9.64
-13.38
-17.79
-23.11
-29.30
-35.88
-41.88
-46.01
-47.09
-44.45
-38.17
-29.11
-18.58
-7.93
1.85
10.26
17.19
22.73
26.96
29.89
31.51
31.90
31.27
29.97
28.35
26.73
25.27
24.02
22.93
21.94
20.95
19.86
18.51
16.76
14.49
11.68
8.43
4.91
1.29
-2.28
-5.77
-9.23
-12.83
-16.80
-21.43
-26.89
-33.08
-39.40
-44.80
-47.99
-47.84
-43.83
-36.29
-26.28
-15.18
-4.31
5.47
13.79
20.59
25.93
29.86
32.32
33.34
33.02
31.68
29.73
27.61
25.67
24.11
22.92
21.95
20.99
19.80
18.24
16.25
13.93
11.39
8.77
6.14
3.50
0.78
-2.10
-5.19
-8.58
-12.37
-16.80
-22.05
-28.11
-34.52
-40.29
-44.10
-44.76
-41.65
-35.07
-26.12
-16.22
-6.66
1.86
9.18
15.44
20.71
24.78
27.32
28.06
27.06
24.79
21.97
19.34
17.43
16.37
15.96
15.75
15.27
14.17
12.36
9.99
7.29
4.54
1.85
-0.82
-3.65
-6.81
-10.42
-14.57
-19.30
-24.59
-30.28
-35.91
-40.69
-43.59
-43.63
-40.26
-33.59
-24.42
-14.00
-3.65
5.65
13.34
19.29
23.58
26.34
27.66
27.63
26.48
24.58
22.42
20.49
19.07
18.18
17.54
16.73
15.41
13.41
10.86
8.06
5.31
2.75
0.32
-2.18
-5.01
-8.34
-12.26
-16.80
-21.91
-27.39
-32.78
-37.32
-40.05
-40.11
-37.09
-31.18
-23.18
-14.15
-5.07
3.41
11.01
17.64
23.20
27.43
29.98
30.64
29.53
27.14
24.23
21.56
19.61
18.46
17.80
17.17
16.13
14.53
12.45
10.15
7.89
5.78
3.76
1.66
-0.80
-3.77
-7.41
-11.77
-16.78
-22.21
-27.56
-32.05
-34.82
-35.12
-32.57
-27.31
-19.93
-11.29
-2.31
6.26
13.86
20.09
24.69
27.43
28.27
27.39
25.24
22.44
19.67
17.43
15.96
15.13
14.67
14.16
13.37
12.21
10.76
9.18
7.56
5.88
4.00
1.70
-1.26
-5.03
-9.68
-15.03
-20.70
-26.00
-30.05
-31.95
-31.08
-27.32
-21.11
-13.36
-5.15
2.58
9.17
14.31
17.88
19.85
20.25
19.18
16.94
14.01
10.92
8.16
6.00
4.44
3.32
2.40
1.49
0.50
-0.61
-1.91
-3.54
-5.69
-8.59
-12.34
-16.85
-21.75
-26.36
-29.81
-31.26
-30.10
-26.17
-19.81
-11.82
-3.19
5.03
11.98
17.08
20.09
21.02
20.20
18.12
15.36
12.44
9.67
7.17
4.87
2.73
0.73
-1.05
-2.54
-3.80
-5.01
-6.45
-8.39
-11.01
-14.39
-18.53
-23.30
-28.32
-32.92
-36.16
-37.07
-34.93
-29.63
-21.70
-12.21
-2.46
6.43
13.67
18.89
22.04
23.27
22.83
21.09
18.50
15.54
12.65
10.12
8.04
6.29
4.63
2.87
0.91
-1.16
-3.23
-5.23
-7.22
-9.50
-12.44
-16.43
-21.61
-27.76
-34.15
-39.70
-43.15
-43.51
-40.30
-33.76
-24.74
-14.38
-3.78
6.29
15.34
23.12
29.42
33.94
36.44
36.85
35.45
32.87
29.89
27.24
25.29
23.99
22.91
21.53
19.50
16.82
13.82
11.00
8.70
6.95
5.38
3.40
0.39
-4.06
-10.10
-17.57
-26.04
-34.79
-42.84
-49.03
-52.24
-51.70
-47.24
-39.44
-29.40
-18.42
-7.62
2.27
10.90
18.18
23.99
28.15
30.51
31.04
29.98
27.86
25.29
22.85
20.89
19.49
18.45
17.43
16.09
14.27
12.01
9.50
7.02
4.71
2.49
0.10
-2.84
-6.61
-11.34
-16.92
-22.99
-28.90
-33.82
-36.78
-36.96
-33.86
-27.59
-18.84
-8.72
1.55
10.98
19.01
25.46
30.35
33.79
35.81
36.46
35.85
34.19
31.87
29.31
26.93
24.96
23.42
22.11
20.77
19.16
17.16
14.83
12.31
9.75
7.20
4.60
1.82
-1.28
-4.75
-8.62
-12.88
-17.50
-22.43
-27.42
-31.99
-35.37
-36.74
-35.40
-31.11
-24.17
-15.37
-5.76
3.61
11.96
18.80
23.98
27.51
29.51
30.17
29.68
28.31
26.37
24.17
22.03
20.18
18.72
17.64
16.77
15.90
14.83
13.44
11.67
9.58
7.24
4.78
2.27
-0.23
-2.73
-5.31
-8.09
-11.21
-14.81
-18.94
-23.43
-27.91
-31.74
-34.16
-34.47
-32.28
-27.61
-20.96
-13.14
-5.07
2.45
8.87
13.91
17.55
19.88
21.04
21.20
20.57
19.40
17.99
16.63
15.56
14.89
14.55
14.38
14.12
13.52
12.40
10.71
8.51
5.92
3.16
0.42
-2.11
-4.32
-6.19
-7.82
-9.40
-11.21
-13.55
-16.62
-20.46
-24.84
-29.19
-32.76
-34.71
-34.38
-31.46
-26.15
-19.07
-11.15
-3.31
3.70
9.43
13.77
16.81
18.69
19.52
19.38
18.41
16.83
14.98
13.22
11.81
10.84
10.19
9.67
9.11
8.42
7.55
6.52
5.33
3.97
2.47
0.82
-0.94
-2.83
-4.86
-7.10
-9.57
-12.32
-15.36
-18.69
-22.22
-25.66
-28.50
-30.04
-29.69
-27.11
-22.47
-16.36
-9.60
-2.97
2.99
7.96
11.85
14.61
16.21
16.65
16.01
14.47
12.37
10.12
8.09
6.59
5.74
5.45
5.53
5.63
5.50
4.96
4.03
2.82
1.44
-0.03
-1.61
-3.33
-5.19
-7.13
-9.15
-11.31
-13.74
-16.54
-19.71
-22.96
-25.73
-27.31
-27.05
-24.63
-20.15
-14.19
-7.56
-1.11
4.52
8.95
12.10
14.02
14.79
14.50
13.28
11.31
8.94
6.53
4.47
2.96
2.04
1.58
1.38
1.26
1.08
0.74
0.15
-0.74
-1.92
-3.35
-4.89
-6.36
-7.63
-8.70
-9.74
-11.06
-13.01
-15.80
-19.33
-23.11
-26.30
-28.01
-27.55
-24.68
-19.73
-13.42
-6.67
-0.30
5.13
9.35
12.23
13.79
14.04
13.11
11.26
8.85
6.38
4.31
2.93
2.32
2.33
2.61
2.80
2.63
2.04
1.16
0.20
-0.69
-1.50
-2.36
-3.51
-5.08
-7.07
-9.36
-11.80
-14.35
-17.05
-19.85
-22.51
-24.50
-25.16
-23.92
-20.64
-15.65
-9.65
-3.46
2.31
7.26
11.21
14.04
15.62
15.84
14.79
12.76
10.29
7.96
6.17
5.07
4.44
3.95
3.24
2.16
0.74
-0.78
-2.15
-3.20
-3.95
-4.59
-5.41
-6.64
-8.42
-10.78
-13.63
-16.86
-20.24
-23.43
-25.91
-27.06
-26.32
-23.40
-18.48
-12.15
-5.28
1.29
6.92
11.21
14.02
15.31
15.15
13.71
11.31
8.44
5.61
3.31
1.78
1.02
0.77
0.67
0.35
-0.37
-1.50
-2.86
-4.24
-5.53
-6.74
-8.00
-9.52
-11.48
-13.99
-17.02
-20.38
-23.66
-26.29
-27.60
-27.02
-24.31
-19.65
-13.64
-7.09
-0.77
4.68
8.90
11.64
12.84
12.54
10.93
8.40
5.47
2.66
0.36
-1.28
-2.32
-2.98
-3.48
-3.99
-4.59
-5.25
-5.96
-6.73
-7.66
-8.95
-10.82
-13.43
-16.82
-20.74
-24.66
-27.84
-29.46
-28.92
-25.98
-20.92
-14.38
-7.23
-0.28
5.85
10.77
14.27
16.28
16.81
16.00
14.14
11.68
9.11
6.83
5.04
3.73
2.72
1.77
0.72
-0.46
-1.73
-3.03
-4.36
-5.81
-7.61
-9.99
-13.17
-17.20
-21.83
-26.51
-30.42
-32.67
-32.54
-29.77
-24.62
-17.75
-10.05
-2.30
4.87
11.06
16.01
19.48
21.29
21.42
20.10
17.81
15.18
12.77
10.91
9.62
8.69
7.85
6.93
5.85
4.70
3.55
2.40
1.13
-0.49
-2.78
-6.00
-10.25
-15.37
-20.81
-25.75
-29.22
-30.36
-28.71
-24.33
-17.75
-9.79
-1.33
6.88
14.33
20.69
25.70
29.15
30.87
30.86
29.34
26.80
23.89
21.24
19.24
17.97
17.17
16.41
15.35
13.80
11.86
9.75
7.68
5.75
3.87
1.73
-1.01
-4.72
-9.54
-15.36
-21.70
-27.76
-32.53
-35.06
-34.67
-31.16
-24.87
-16.54
-7.13
2.39
11.27
19.00
25.24
29.81
32.59
33.57
32.91
30.99
28.37
25.66
23.39
21.85
21.03
20.70
20.51
20.10
19.23
17.82
15.95
13.75
11.39
8.89
6.24
3.30
-0.08
-4.08
-8.81
-14.27
-20.22
-26.11
-31.04
-33.98
-34.09
-30.96
-24.91
-16.83
-7.90
0.84
8.77
15.67
21.54
26.34
29.82
31.62
31.55
29.79
26.95
23.93
21.53
20.19
19.84
19.99
20.05
19.54
18.31
16.47
14.26
11.92
9.50
6.97
4.23
1.20
-2.17
-5.96
-10.28
-15.20
-20.60
-26.03
-30.65
-33.39
-33.33
-30.01
-23.67
-15.16
-5.65
3.74
12.23
19.37
24.96
28.89
31.04
31.37
30.03
27.46
24.36
21.44
19.27
18.10
17.79
17.97
18.15
17.90
16.99
15.37
13.19
10.66
7.99
5.23
2.38
-0.72
-4.24
-8.31
-12.98
-18.16
-23.56
-28.67
-32.81
-35.14
-34.95
-31.85
-25.95
-17.91
-8.76
0.37
8.56
15.24
20.18
23.43
25.13
25.49
24.73
23.15
21.10
19.02
17.26
16.06
15.40
15.02
14.53
13.55
11.90
9.65
7.09
4.57
2.29
0.21
-1.93
-4.50
-7.85
-12.10
-17.24
-22.96
-28.78
-33.99
-37.76
-39.27
-37.94
-33.63
-26.68
-17.89
-8.26
1.25
9.87
17.11
22.73
26.62
28.79
29.26
28.23
26.03
23.19
20.34
18.03
16.52
15.74
15.29
14.61
13.26
11.15
8.50
5.73
3.24
1.12
-0.79
-2.91
-5.60
-9.08
-13.35
-18.26
-23.53
-28.76
-33.39
-36.71
-37.93
-36.44
-32.08
-25.20
-16.65
-7.50
1.32
9.18
15.83
21.19
25.22
27.80
28.80
28.23
26.34
23.70
20.98
18.78
17.46
16.99
17.06
17.18
16.92
16.02
14.42
12.24
9.69
6.93
4.06
1.12
-1.94
-5.18
-8.72
-12.74
-17.40
-22.73
-28.48
-33.99
-38.29
-40.28
-39.19
-34.78
-27.57
-18.57
-9.05
-0.11
7.61
13.86
18.74
22.38
24.88
26.22
26.38
25.44
23.66
21.47
19.33
17.57
16.34
15.57
15.03
14.48
13.67
12.47
10.83
8.81
6.55
4.17
1.75
-0.73
-3.40
-6.38
-9.79
-13.67
-17.98
-22.62
-27.35
-31.69
-34.99
-36.43
-35.31
-31.34
-24.75
-16.38
-7.30
1.41
9.04
15.25
19.99
23.33
25.36
26.14
25.80
24.58
22.87
21.02
19.33
17.95
16.86
16.01
15.34
14.77
14.25
13.62
12.71
11.31
9.30
6.73
3.76
0.62
-2.43
-5.27
-7.90
-10.49
-13.35
-16.79
-20.98
-25.77
-30.65
-34.70
-36.90
-36.38
-32.78
-26.41
-18.14
-9.17
-0.62
6.72
12.53
16.84
19.86
21.72
22.43
21.94
20.32
17.93
15.34
13.17
11.80
11.20
10.99
10.61
9.69
8.14
6.20
4.20
2.36
0.71
-0.95
-2.83
-5.12
-7.86
-11.04
-14.63
-18.59
-22.80
-26.96
-30.50
-32.67
-32.80
-30.46
-25.73
-19.12
-11.47
-3.64
3.69
10.06
15.20
18.89
20.94
21.27
19.99
17.53
14.53
11.65
9.35
7.76
6.65
5.66
4.44
2.84
0.95
-1.02
-2.84
-4.38
-5.77
-7.27
-9.26
-12.13
-16.06
-21.01
-26.56
-32.01
-36.42
-38.87
-38.69
-35.63
-29.97
-22.36
-13.73
-4.98
3.11
10.03
15.46
19.25
21.33
21.76
20.69
18.44
15.50
12.40
9.62
7.44
5.85
4.61
3.37
1.86
0.00
-2.11
-4.32
-6.51
-8.78
-11.38
-14.66
-18.87
-24.10
-30.14
-36.44
-42.17
-46.25
-47.63
-45.54
-39.84
-31.02
-20.17
-8.61
2.45
12.16
20.08
26.03
29.92
31.75
31.58
29.72
26.77
23.52
20.75
18.94
18.11
17.85
17.57
16.75
15.19
13.03
10.67
8.49
6.66
4.99
3.06
0.35
-3.50
-8.50
-14.30
-20.24
-25.44
-28.98
-30.06
-28.23
-23.49
-16.39
-7.90
0.85
8.89
15.62
20.83
24.57
26.95
27.99
27.75
26.37
24.21
21.76
19.48
17.60
16.09
14.73
13.26
11.60
9.85
8.19
6.75
5.52
4.24
2.55
0.11
-3.32
-7.80
-13.21
-19.22
-25.27
-30.58
-34.28
-35.53
-33.82
-29.11
-21.91
-13.15
-3.88
4.96
12.73
19.08
23.85
26.90
28.14
27.62
25.59
22.61
19.40
16.60
14.58
13.34
12.54
11.72
10.53
8.88
6.91
4.90
3.02
1.23
-0.66
-3.00
-6.17
-10.38
-15.63
-21.55
-27.34
-31.93
-34.19
-33.35
-29.26
-22.43
-13.87
-4.73
4.05
11.90
18.51
23.66
27.13
28.68
28.27
26.19
23.09
19.73
16.73
14.36
12.49
10.77
8.91
6.80
4.58
2.50
0.73
-0.81
-2.40
-4.38
-7.11
-10.77
-15.36
-20.73
-26.42
-31.73
-35.65
-37.12
-35.34
-30.11
-21.98
-12.11
-1.91
7.38
15.01
20.67
24.41
26.37
26.74
25.71
23.62
20.89
17.97
15.21
12.76
10.57
8.50
6.42
4.32
2.25
0.33
-1.43
-3.10
-4.99
-7.50
-11.00
-15.66
-21.24
-27.05
-32.00
-34.92
-34.85
-31.42
-24.89
-16.18
-6.51
2.88
11.05
17.46
21.91
24.47
25.32
24.69
22.86
20.14
16.94
13.71
10.83
8.56
6.88
5.58
4.35
2.91
1.13
-0.98
-3.32
-5.83
-8.59
-11.83
-15.76
-20.40
-25.35
-29.80
-32.70
-33.02
-30.21
-24.33
-16.07
-6.60
2.90
11.41
18.26
23.16
26.03
26.93
26.07
23.75
20.46
16.78
13.28
10.35
8.11
6.46
5.13
3.87
2.55
1.13
-0.36
-1.94
-3.74
-6.02
-9.02
-12.90
-17.56
-22.60
-27.28
-30.65
-31.77
-29.93
-24.97
-17.34
-8.04
1.68
10.65
17.99
23.29
26.42
27.53
26.85
24.74
21.68
18.25
15.02
12.42
10.59
9.38
8.48
7.53
6.32
4.77
2.97
1.01
-1.10
-3.42
-6.13
-9.45
-13.53
-18.34
-23.47
-28.18
-31.42
-32.17
-29.77
-24.17
-16.03
-6.53
3.00
11.41
18.00
22.45
24.75
25.08
23.71
21.06
17.64
14.05
10.81
8.27
6.55
5.47
4.75
4.06
3.16
1.90
0.30
-1.58
-3.65
-5.93
-8.52
-11.62
-15.37
-19.69
-24.17
-28.05
-30.33
-30.11
-26.90
-20.80
-12.57
-3.41
5.41
12.84
18.27
21.51
22.73
22.22
20.36
17.57
14.29
10.96
7.94
5.46
3.60
2.27
1.30
0.46
-0.46
-1.65
-3.26
-5.35
-7.94
-11.03
-14.66
-18.84
-23.44
-28.00
-31.69
-33.48
-32.41
-28.08
-20.82
-11.65
-1.97
6.90
14.04
19.02
21.81
22.63
21.76
19.60
16.61
13.29
10.11
7.37
5.16
3.41
1.95
0.65
-0.59
-1.84
-3.15
-4.63
-6.42
-8.72
-11.74
-15.66
-20.47
-25.80
-30.88
-34.61
-35.91
-34.00
-28.82
-20.99
-11.64
-2.07
6.62
13.71
18.82
21.86
22.90
22.21
20.20
17.37
14.26
11.29
8.67
6.48
4.64
3.07
1.75
0.62
-0.35
-1.28
-2.36
-3.84
-6.01
-9.12
-13.34
-18.60
-24.53
-30.39
-35.13
-37.67
-37.13
-33.21
-26.26
-17.21
-7.31
2.25
10.57
17.14
21.77
24.45
25.29
24.47
22.39
19.57
16.60
14.00
12.03
10.62
9.51
8.35
6.93
5.21
3.28
1.29
-0.71
-2.77
-5.09
-7.98
-11.74
-16.58
-22.41
-28.72
-34.54
-38.62
-39.80
-37.41
-31.58
-23.15
-13.41
-3.60
5.39
13.08
19.28
23.85
26.61
27.43
26.39
23.93
20.77
17.70
15.31
13.78
12.93
12.28
11.39
9.99
8.11
5.97
3.85
1.89
-0.03
-2.17
-4.92
-8.53
-13.12
-18.52
-24.33
-29.85
-34.17
-36.33
-35.58
-31.64
-24.81
-15.92
-6.10
3.57
12.22
19.32
24.55
27.72
28.81
27.98
25.65
22.52
19.33
16.73
15.03
14.16
13.78
13.41
12.62
11.23
9.28
7.00
4.64
2.34
0.09
-2.31
-5.13
-8.67
-13.13
-18.51
-24.50
-30.44
-35.34
-38.07
-37.74
-33.95
-27.04
-17.94
-7.91
1.89
10.66
18.02
23.81
27.90
30.10
30.27
28.55
25.46
21.90
18.77
16.73
15.90
15.87
15.96
15.53
14.27
12.28
9.90
7.50
5.26
3.12
0.84
-1.90
-5.35
-9.65
-14.77
-20.50
-26.42
-31.83
-35.77
-37.29
-35.65
-30.64
-22.74
-13.00
-2.73
6.84
14.85
20.88
24.87
26.94
27.27
26.10
23.79
20.88
18.00
15.68
14.23
13.53
13.20
12.69
11.60
9.81
7.50
5.03
2.70
0.61
-1.45
-3.90
-7.21
-11.71
-17.42
-23.87
-30.22
-35.33
-38.07
-37.66
-33.87
-27.13
-18.36
-8.68
0.85
9.47
16.69
22.26
25.98
27.74
27.53
25.64
22.67
19.47
16.84
15.25
14.69
14.70
14.59
13.77
12.02
9.53
6.73
4.02
1.62
-0.60
-2.96
-5.82
-9.47
-14.05
-19.48
-25.49
-31.54
-36.81
-40.31
-41.11
-38.62
-32.83
-24.35
-14.28
-3.82
6.02
14.59
21.57
26.81
30.24
31.81
31.58
29.82
27.07
24.04
21.40
19.59
18.70
18.40
18.19
17.55
16.18
14.06
11.38
8.43
5.45
2.53
-0.45
-3.71
-7.51
-12.06
-17.40
-23.30
-29.21
-34.27
-37.49
-38.04
-35.50
-30.00
-22.20
-13.01
-3.35
6.00
14.50
21.72
27.31
30.98
32.61
32.32
30.55
27.90
25.06
22.55
20.65
19.38
18.51
17.71
16.62
15.06
12.99
10.58
8.09
5.72
3.48
1.21
-1.37
-4.51
-8.38
-13.02
-18.30
-23.94
-29.44
-34.06
-36.94
-37.28
-34.61
-29.00
-21.04
-11.71
-2.06
7.04
15.05
21.66
26.77
30.27
32.06
32.12
30.60
27.91
24.69
21.63
19.32
18.01
17.57
17.56
17.46
16.89
15.69
13.96
11.91
9.71
7.41
4.91
2.07
-1.22
-5.04
-9.39
-14.27
-19.67
-25.38
-30.92
-35.46
-38.00
-37.64
-33.97
-27.26
-18.44
-8.81
0.43
8.44
14.83
19.61
22.87
24.71
25.17
24.37
22.55
20.19
17.80
15.86
14.59
13.93
13.61
13.26
12.54
11.27
9.44
7.19
4.73
2.25
-0.14
-2.51
-5.05
-7.99
-11.61
-16.03
-21.16
-26.59
-31.58
-35.17
-36.41
-34.63
-29.75
-22.28
-13.26
-3.89
4.80
12.15
17.92
22.10
24.73
25.82
25.41
23.69
21.08
18.20
15.70
13.99
13.19
13.03
13.01
12.64
11.57
9.74
7.34
4.71
2.14
-0.20
-2.37
-4.57
-7.08
-10.13
-13.93
-18.55
-23.93
-29.76
-35.43
-40.01
-42.43
-41.80
-37.76
-30.63
-21.41
-11.37
-1.75
6.63
13.42
18.59
22.25
24.45
25.22
24.68
23.10
20.98
18.88
17.24
16.28
15.90
15.80
15.58
14.92
13.60
11.61
9.08
6.25
3.38
0.64
-1.89
-4.32
-6.84
-9.69
-13.12
-17.25
-22.09
-27.36
-32.48
-36.60
-38.77
-38.18
-34.51
-28.04
-19.61
-10.35
-1.37
6.56
13.08
18.13
21.81
24.17
25.23
25.04
23.82
21.94
19.90
18.15
16.89
16.10
15.56
14.99
14.20
13.11
11.70
9.97
7.89
5.43
2.62
-0.36
-3.34
-6.16
-8.84
-11.49
-14.34
-17.65
-21.56
-26.08
-30.95
-35.53
-38.94
-40.15
-38.34
-33.24
-25.31
-15.60
-5.47
3.89
11.76
17.87
22.30
25.17
26.57
26.57
25.37
23.38
21.16
19.24
17.93
17.24
16.95
16.74
16.35
15.64
14.60
13.22
11.52
9.50
7.15
4.52
1.72
-1.09
-3.81
-6.40
-8.99
-11.84
-15.25
-19.47
-24.52
-30.11
-35.55
-39.91
-42.13
-41.41
-37.44
-30.59
-21.76
-12.18
-2.97
5.07
11.62
16.62
20.15
22.22
22.83
22.04
20.11
17.56
15.01
12.99
11.78
11.36
11.48
11.75
11.78
11.26
10.09
8.30
6.03
3.53
0.99
-1.54
-4.07
-6.76
-9.78
-13.26
-17.26
-21.73
-26.44
-30.91
-34.42
-36.11
-35.23
-31.48
-25.12
-17.01
-8.30
-0.01
7.18
13.01
17.42
20.43
21.96
21.94
20.52
18.10
15.29
12.70
10.73
9.47
8.73
8.19
7.57
6.67
5.43
3.85
2.01
0.00
-2.09
-4.21
-6.38
-8.73
-11.45
-14.75
-18.78
-23.56
-28.86
-34.13
-38.53
-41.05
-40.84
-37.48
-31.24
-22.98
-13.87
-4.99
2.92
9.58
15.00
19.24
22.23
23.80
23.84
22.46
20.09
17.35
14.92
13.22
12.36
12.09
11.96
11.51
10.40
8.53
6.06
3.28
0.50
-2.13
-4.61
-7.10
-9.82
-13.00
-16.78
-21.22
-26.21
-31.43
-36.22
-39.63
-40.68
-38.63
-33.34
-25.38
-15.86
-6.06
2.94
10.52
16.52
20.99
24.02
25.61
25.73
24.51
22.31
19.72
17.36
15.69
14.81
14.48
14.27
13.74
12.65
11.04
9.11
7.10
5.17
3.26
1.21
-1.22
-4.22
-7.91
-12.33
-17.41
-22.98
-28.68
-33.92
-37.89
-39.69
-38.59
-34.31
-27.15
-17.98
-7.97
1.69
10.10
16.81
21.72
24.98
26.77
27.28
26.64
25.05
22.82
20.35
18.08
16.30
15.08
14.24
13.45
12.36
10.76
8.73
6.50
4.35
2.45
0.75
-1.01
-3.16
-6.01
-9.66
-14.14
-19.31
-24.93
-30.54
-35.47
-38.78
-39.52
-37.05
-31.29
-22.92
-13.16
-3.36
5.41
12.60
18.18
22.37
25.31
26.93
27.08
25.72
23.19
20.15
17.36
15.39
14.35
13.92
13.53
12.68
11.13
8.99
6.57
4.21
2.09
0.20
-1.69
-3.90
-6.76
-10.51
-15.21
-20.74
-26.69
-32.34
-36.78
-39.03
-38.30
-34.31
-27.41
-18.51
-8.77
0.67
8.99
15.78
20.86
24.21
25.82
25.75
24.25
21.82
19.09
16.66
14.96
14.04
13.70
13.54
13.16
12.24
10.64
8.42
5.78
2.99
0.25
-2.38
-4.99
-7.89
-11.38
-15.71
-20.94
-26.87
-32.95
-38.37
-42.10
-43.18
-40.97
-35.45
-27.20
-17.30
-6.95
2.82
11.35
18.33
23.57
26.95
28.39
27.95
25.97
23.11
20.16
17.81
16.44
16.00
16.06
16.05
15.45
14.02
11.80
9.12
6.32
3.71
1.30
-1.11
-3.84
-7.24
-11.50
-16.64
-22.46
-28.55
-34.28
-38.83
-41.26
-40.76
-36.94
-29.97
-20.67
-10.26
-0.02
9.07
16.50
22.16
26.18
28.68
29.71
29.34
27.76
25.40
22.85
20.66
19.18
18.38
17.92
17.32
16.21
14.44
12.15
9.63
7.15
4.79
2.46
-0.13
-3.29
-7.23
-12.05
-17.70
-23.90
-30.12
-35.57
-39.25
-40.23
-37.90
-32.27
-23.97
-14.10
-3.83
5.85
14.33
21.23
26.35
29.51
30.59
29.69
27.20
23.82
20.34
17.45
15.51
14.52
14.15
13.96
13.60
12.81
11.54
9.83
7.83
5.61
3.24
0.70
-2.12
-5.43
-9.45
-14.33
-19.98
-25.92
-31.32
-35.09
-36.26
-34.28
-29.21
-21.68
-12.71
-3.40
5.37
12.99
19.05
23.27
25.45
25.52
23.73
20.65
17.13
14.02
11.94
11.01
10.91
10.99
10.64
9.48
7.54
5.11
2.62
0.31
-1.81
-4.02
-6.73
-10.30
-14.88
-20.35
-26.27
-31.92
-36.37
-38.74
-38.32
-34.83
-28.54
-20.16
-10.66
-1.04
7.87
15.49
21.44
25.45
27.33
27.10
25.02
21.70
17.93
14.51
12.02
10.60
10.01
9.72
9.17
7.98
6.07
3.64
0.98
-1.64
-4.17
-6.71
-9.52
-12.92
-17.17
-22.34
-28.22
-34.19
-39.22
-42.14
-41.97
-38.24
-31.25
-21.94
-11.67
-1.63
7.32
14.85
20.93
25.61
28.81
30.40
30.35
28.85
26.43
23.76
21.49
19.95
19.13
18.73
18.32
17.56
16.26
14.42
12.15
9.63
6.97
4.20
1.25
-2.01
-5.71
-9.99
-14.90
-20.47
-26.58
-32.88
-38.76
-43.30
-45.49
-44.48
-39.90
-32.10
-22.09
-11.25
-0.86
8.15
15.45
21.05
25.21
28.10
29.78
30.29
29.70
28.28
26.41
24.57
23.09
22.13
21.58
21.15
20.46
19.23
17.32
14.82
11.96
9.01
6.13
3.32
0.42
-2.79
-6.46
-10.64
-15.32
-20.46
-25.96
-31.55
-36.65
-40.36
-41.62
-39.63
-34.16
-25.79
-15.67
-5.19
4.48
12.70
19.32
24.45
28.21
30.65
31.72
31.52
30.30
28.50
26.61
24.97
23.70
22.71
21.81
20.84
19.74
18.52
17.14
15.54
13.53
11.01
7.98
4.60
1.11
-2.28
-5.50
-8.68
-12.05
-15.86
-20.33
-25.53
-31.25
-36.93
-41.65
-44.30
-43.86
-39.86
-32.56
-23.01
-12.59
-2.64
5.96
12.93
18.39
22.55
25.51
27.25
27.66
26.82
25.07
22.93
20.99
19.68
19.13
19.15
19.34
19.23
18.45
16.88
14.61
11.91
9.09
6.34
3.71
1.11
-1.63
-4.64
-7.99
-11.78
-16.07
-20.89
-26.10
-31.21
-35.41
-37.67
-37.07
-33.19
-26.32
-17.38
-7.67
1.59
9.52
15.75
20.24
23.13
24.52
24.47
23.12
20.76
17.89
15.15
13.07
11.94
11.67
11.84
11.91
11.42
10.15
8.21
5.87
3.44
1.10
-1.18
-3.58
-6.33
-9.62
-13.51
-17.99
-22.94
-28.16
-33.24
-37.49
-40.02
-39.97
-36.79
-30.53
-21.88
-12.02
-2.20
6.55
13.62
18.86
22.31
24.06
24.19
22.82
20.28
17.11
14.04
11.70
10.42
10.09
10.22
10.20
9.53
8.04
5.89
3.41
0.95
-1.28
-3.33
-5.40
-7.83
-10.90
-14.85
-19.72
-25.34
-31.27
-36.80
-40.98
-42.90
-41.89
-37.78
-30.93
-22.18
-12.59
-3.10
5.59
13.05
19.08
23.51
26.23
27.20
26.53
24.59
21.92
19.14
16.78
15.14
14.21
13.72
13.24
12.39
10.93
8.86
6.34
3.64
0.99
-1.54
-4.01
-6.61
-9.64
-13.35
-17.95
-23.43
-29.50
-35.48
-40.36
-42.98
-42.41
-38.26
-30.91
-21.40
-11.06
-1.21
7.33
14.21
19.49
23.33
25.76
26.72
26.12
24.17
21.38
18.53
16.35
15.26
15.13
15.40
15.35
14.42
12.48
9.85
7.02
4.40
2.09
-0.12
-2.59
-5.63
-9.40
-13.91
-19.12
-24.90
-30.93
-36.58
-40.90
-42.80
-41.42
-36.50
-28.56
-18.78
-8.53
1.03
9.23
15.90
21.12
24.93
27.27
28.03
27.26
25.33
22.88
20.61
19.00
18.17
17.85
17.58
16.90
15.59
13.67
11.34
8.86
6.39
3.99
1.61
-0.92
-3.79
-7.13
-11.10
-15.74
-21.00
-26.66
-32.20
-36.86
-39.68
-39.80
-36.68
-30.41
-21.72
-11.81
-1.97
6.81
14.02
19.60
23.69
26.48
27.98
28.19
27.22
25.42
23.30
21.41
20.09
19.36
18.99
18.59
17.86
16.64
14.93
12.86
10.60
8.31
6.01
3.70
1.19
-1.71
-5.21
-9.38
-14.16
-19.34
-24.48
-29.05
-32.35
-33.70
-32.54
-28.65
-22.31
-14.26
-5.50
2.96
10.39
16.34
20.60
23.04
23.62
22.41
19.78
16.37
13.05
10.60
9.49
9.66
10.61
11.58
11.84
11.01
9.11
6.46
3.56
0.79
-1.69
-3.97
-6.36
-9.19
-12.72
-17.03
-21.93
-26.92
-31.25
-34.00
-34.40
-31.99
-26.84
-19.55
-11.04
-2.26
5.93
12.94
18.36
21.96
23.60
23.37
21.54
18.66
15.36
12.30
9.95
8.50
7.86
7.68
7.50
6.89
5.60
3.66
1.31
-1.15
-3.56
-5.94
-8.58
-11.80
-15.85
-20.77
-26.33
-31.98
-36.94
-40.27
-41.14
-39.02
-33.91
-26.37
-17.40
-8.06
0.75
8.48
14.90
19.95
23.54
25.55
25.88
24.65
22.27
19.41
16.77
14.82
13.65
12.92
12.17
10.97
9.25
7.20
5.18
3.46
2.03
0.60
-1.28
-4.06
-8.00
-13.13
-19.23
-25.79
-32.04
-37.06
-39.87
-39.73
-36.33
-29.95
-21.37
-11.69
-2.02
6.79
14.23
20.08
24.27
26.78
27.63
26.95
25.09
22.58
20.09
18.15
16.97
16.40
15.97
15.22
13.85
11.88
9.58
7.29
5.20
3.29
1.30
-1.11
-4.31
-8.52
-13.78
-19.91
-26.39
-32.41
-36.92
-38.90
-37.62
-32.97
-25.46
-16.14
-6.23
3.21
11.48
18.31
23.68
27.62
30.14
31.18
30.78
29.17
26.79
24.21
21.95
20.33
19.34
18.72
18.06
17.02
15.45
13.38
11.02
8.56
6.13
3.70
1.11
-1.83
-5.29
-9.42
-14.28
-19.82
-25.77
-31.57
-36.32
-38.99
-38.67
-34.95
-28.16
-19.27
-9.58
-0.29
7.81
14.43
19.62
23.47
26.00
27.06
26.57
24.73
22.05
19.26
17.02
15.67
15.10
14.86
14.37
13.26
11.44
9.16
6.80
4.67
2.85
1.19
-0.64
-2.98
-6.10
-10.17
-15.14
-20.74
-26.40
-31.30
-34.47
-35.07
-32.64
-27.30
-19.73
-10.96
-2.07
6.05
12.86
18.06
21.50
23.13
22.98
21.29
18.57
15.50
12.79
10.87
9.81
9.26
8.73
7.77
6.22
4.24
2.14
0.25
-1.35
-2.83
-4.60
-7.10
-10.69
-15.46
-21.20
-27.31
-32.92
-36.99
-38.53
-36.93
-32.07
-24.50
-15.27
-5.62
3.36
11.00
17.01
21.40
24.22
25.49
25.23
23.62
21.10
18.30
15.88
14.23
13.35
12.88
12.26
11.07
9.19
6.84
4.42
2.25
0.36
-1.47
-3.71
-6.80
-11.05
-16.51
-22.92
-29.69
-35.89
-40.39
-42.13
-40.39
-35.16
-27.10
-17.43
-7.41
1.96
10.15
16.99
22.47
26.50
28.89
29.52
28.48
26.23
23.44
20.86
19.01
18.03
17.68
17.46
16.85
15.53
13.53
11.09
8.55
6.11
3.75
1.27
-1.56
-4.87
-8.68
-12.98
-17.77
-23.06
-28.74
-34.31
-38.92
-41.47
-41.01
-37.12
-30.06
-20.74
-10.43
-0.33
8.68
16.12
21.87
25.99
28.58
29.72
29.53
28.19
26.04
23.59
21.34
19.67
18.69
18.16
17.69
16.81
15.27
13.06
10.39
7.54
4.74
2.06
-0.56
-3.22
-6.04
-9.09
-12.47
-16.30
-20.70
-25.64
-30.79
-35.47
-38.66
-39.32
-36.76
-30.93
-22.51
-12.70
-2.84
6.00
13.26
18.84
22.90
25.62
27.06
27.25
26.27
24.43
22.18
20.04
18.37
17.28
16.65
16.20
15.66
14.82
13.60
11.98
9.99
7.71
5.25
2.71
0.14
-2.48
-5.23
-8.27
-11.73
-15.72
-20.35
-25.55
-31.04
-36.13
-39.80
-40.92
-38.69
-32.99
-24.50
-14.52
-4.49
4.41
11.62
17.07
20.95
23.45
24.59
24.34
22.78
20.25
17.38
14.87
13.20
12.50
12.48
12.63
12.45
11.65
10.25
8.44
6.49
4.54
2.59
0.54
-1.75
-4.37
-7.42
-10.97
-15.11
-19.86
-25.07
-30.24
-34.54
-36.98
-36.68
-33.21
-26.78
-18.22
-8.68
0.67
8.90
15.50
20.28
23.29
24.66
24.56
23.20
20.90
18.09
15.28
12.94
11.37
10.55
10.19
9.82
9.00
7.49
5.34
2.80
0.19
-2.31
-4.68
-7.04
-9.60
-12.54
-16.06
-20.30
-25.29
-30.84
-36.41
-41.08
-43.77
-43.57
-40.04
-33.43
-24.59
-14.73
-4.99
3.80
11.19
17.04
21.31
23.95
24.93
24.34
22.54
20.08
17.64
15.76
14.65
14.18
13.95
13.54
12.63
11.12
9.13
6.83
4.39
1.92
-0.53
-3.00
-5.55
-8.29
-11.43
-15.24
-19.99
-25.75
-32.20
-38.51
-43.45
-45.70
-44.31
-39.06
-30.61
-20.26
-9.47
0.56
9.18
16.20
21.69
25.65
27.96
28.49
27.33
24.87
21.80
18.89
16.68
15.36
14.74
14.37
13.77
12.60
10.78
8.47
5.97
3.54
1.28
-0.95
-3.37
-6.27
-9.78
-13.91
-18.60
-23.74
-29.16
-34.49
-39.01
-41.75
-41.72
-38.35
-31.77
-22.84
-12.85
-3.06
5.68
13.00
18.86
23.31
26.33
27.90
28.04
26.97
25.06
22.76
20.47
18.49
16.97
15.91
15.19
14.54
13.68
12.37
10.56
8.37
5.98
3.55
1.08
-1.54
-4.47
-7.80
-11.60
-15.90
-20.76
-26.17
-31.85
-37.18
-41.16
-42.67
-40.88
-35.57
-27.33
-17.32
-6.98
2.55
10.59
16.98
21.84
25.31
27.37
27.90
26.92
24.66
21.70
18.78
16.55
15.28
14.84
14.74
14.43
13.57
12.06
10.10
7.94
5.78
3.66
1.47
-0.98
-3.84
-7.22
-11.17
-15.71
-20.82
-26.29
-31.64
-36.09
-38.63
-38.37
-34.80
-28.12
-19.18
-9.28
0.27
8.54
15.09
19.93
23.22
25.06
25.42
24.27
21.83
18.62
15.44
13.03
11.80
11.61
11.88
11.87
11.03
9.24
6.82
4.26
1.93
-0.11
-2.11
-4.46
-7.47
-11.28
-15.83
-20.95
-26.36
-31.61
-36.06
-38.83
-39.08
-36.20
-30.17
-21.64
-11.75
-1.81
7.09
14.33
19.71
23.33
25.34
25.81
24.84
22.63
19.64
16.46
13.74
11.88
10.93
10.57
10.28
9.54
8.10
5.96
3.40
0.74
-1.77
-4.10
-6.48
-9.26
-12.83
-17.40
-22.98
-29.20
-35.34
-40.43
-43.40
-43.43
-40.09
-33.66
-24.94
-15.08
-5.20
3.89
11.73
18.13
23.02
26.31
27.92
27.92
26.59
24.44
22.06
19.95
18.39
17.34
16.60
15.84
14.79
13.29
11.31
8.97
6.46
3.96
1.51
-0.95
-3.67
-6.96
-11.07
-16.13
-22.03
-28.38
-34.49
-39.47
-42.32
-42.24
-38.88
-32.48
-23.89
-14.23
-4.58
4.33
12.17
18.85
24.35
28.45
30.86
31.39
30.15
27.71
24.84
22.35
20.70
19.95
19.76
19.62
19.05
17.80
15.83
13.30
10.44
7.49
4.56
1.66
-1.34
-4.58
-8.19
-12.25
-16.76
-21.72
-27.09
-32.59
-37.63
-41.29
-42.53
-40.56
-35.16
-26.88
-16.88
-6.51
3.09
11.30
17.99
23.27
27.23
29.85
31.03
30.80
29.43
27.44
25.41
23.79
22.77
22.21
21.83
21.31
20.43
19.11
17.35
15.18
12.65
9.84
6.83
3.76
0.68
-2.42
-5.69
-9.38
-13.73
-18.86
-24.66
-30.70
-36.15
-40.00
-41.21
-39.10
-33.61
-25.35
-15.46
-5.28
4.08
11.97
18.20
22.89
26.25
28.41
29.44
29.44
28.61
27.23
25.67
24.20
22.95
21.90
20.94
19.95
18.84
17.54
16.03
14.26
12.22
9.91
7.37
4.62
1.68
-1.51
-5.05
-9.05
-13.60
-18.68
-24.18
-29.71
-34.67
-38.23
-39.50
-37.84
-33.06
-25.60
-16.43
-6.75
2.39
10.32
16.74
21.65
25.09
27.05
27.48
26.43
24.19
21.29
18.39
16.06
14.60
13.96
13.78
13.61
13.05
11.94
10.39
8.64
6.90
5.22
3.44
1.27
-1.56
-5.13
-9.42
-14.27
-19.53
-24.95
-30.13
-34.37
-36.78
-36.50
-33.10
-26.81
-18.52
-9.47
-0.82
6.74
13.00
18.07
22.07
24.91
26.34
26.17
24.47
21.68
18.52
15.69
13.65
12.50
12.01
11.77
11.33
10.40
8.85
6.75
4.27
1.63
-1.04
-3.68
-6.35
-9.17
-12.30
-15.90
-20.07
-24.79
-29.82
-34.59
-38.29
-39.95
-38.81
-34.56
-27.53
-18.65
-9.11
-0.04
7.83
14.21
19.13
22.70
25.00
25.97
25.63
24.14
21.92
19.51
17.42
15.95
15.12
14.67
14.23
13.47
12.22
10.48
8.39
6.10
3.73
1.34
-1.11
-3.70
-6.54
-9.72
-13.35
-17.52
-22.24
-27.35
-32.39
-36.58
-38.96
-38.65
-35.22
-28.82
-20.24
-10.61
-1.09
7.43
14.46
19.85
23.64
25.91
26.77
26.34
24.89
22.77
20.44
18.33
16.74
15.78
15.34
15.13
14.78
13.99
12.55
10.45
7.85
4.96
2.02
-0.84
-3.57
-6.21
-8.90
-11.81
-15.17
-19.17
-23.87
-29.03
-34.07
-38.00
-39.72
-38.40
-33.76
-26.31
-17.13
-7.57
1.25
8.69
14.59
19.08
22.33
24.40
25.27
24.98
23.73
21.94
20.09
18.53
17.42
16.64
15.98
15.28
14.41
13.33
12.00
10.36
8.36
5.96
3.21
0.27
-2.73
-5.74
-8.76
-11.97
-15.53
-19.61
-24.20
-28.98
-33.34
-36.38
-37.16
-35.02
-29.85
-22.18
-13.08
-3.81
4.60
11.51
16.75
20.39
22.56
23.32
22.71
20.94
18.43
15.82
13.70
12.46
12.04
12.06
11.98
11.38
10.12
8.31
6.27
4.23
2.25
0.26
-1.93
-4.43
-7.32
-10.56
-14.16
-18.11
-22.42
-26.91
-31.17
-34.44
-35.87
-34.71
-30.66
-24.05
-15.73
-6.83
1.61
8.85
14.59
18.75
21.36
22.41
21.93
20.13
17.42
14.46
11.87
10.09
9.17
8.80
8.49
7.80
6.52
4.70
2.52
0.23
-1.99
-4.13
-6.25
-8.51
-11.11
-14.22
-18.04
-22.61
-27.78
-33.08
-37.65
-40.45
-40.55
-37.44
-31.32
-23.05
-13.80
-4.72
3.38
10.19
15.64
19.72
22.34
23.34
22.68
20.67
17.90
15.12
12.95
11.66
11.12
10.88
10.46
9.52
7.94
5.90
3.65
1.43
-0.67
-2.77
-5.11
-7.96
-11.55
-15.95
-21.09
-26.72
-32.41
-37.52
-41.22
-42.68
-41.25
-36.75
-29.56
-20.57
-10.93
-1.67
6.48
13.21
18.41
22.06
24.08
24.43
23.22
20.91
18.18
15.76
14.21
13.61
13.62
13.66
13.18
11.87
9.77
7.21
4.62
2.30
0.34
-1.47
-3.55
-6.26
-9.89
-14.48
-19.91
-25.80
-31.64
-36.70
-40.11
-41.04
-38.89
-33.62
-25.77
-16.36
-6.58
2.53
10.35
16.64
21.39
24.63
26.39
26.71
25.79
24.04
21.97
20.06
18.59
17.61
16.96
16.36
15.56
14.35
12.67
10.61
8.31
5.99
3.74
1.53
-0.80
-3.50
-6.76
-10.67
-15.21
-20.28
-25.72
-31.18
-35.99
-39.25
-39.96
-37.44
-31.66
-23.34
-13.72
-4.10
4.63
12.12
18.42
23.62
27.61
30.06
30.67
29.45
26.90
23.87
21.25
19.60
19.01
19.08
19.25
19.02
18.13
16.62
14.65
12.43
10.07
7.57
4.86
1.86
-1.47
-5.16
-9.28
-13.93
-19.16
-24.86
-30.53
-35.32
-38.14
-38.04
-34.57
-28.00
-19.26
-9.61
-0.25
8.01
14.83
20.17
24.03
26.38
27.14
26.38
24.38
21.73
19.09
17.02
15.73
15.07
14.64
14.01
12.90
11.31
9.43
7.52
5.71
3.95
2.00
-0.44
-3.59
-7.57
-12.33
-17.72
-23.48
-29.17
-34.15
-37.63
-38.82
-37.21
-32.73
-25.85
-17.41
-8.35
0.53
8.67
15.75
21.57
25.95
28.74
29.86
29.39
27.68
25.27
22.74
20.59
19.09
18.18
17.60
16.95
15.93
14.34
12.20
9.60
6.70
3.65
0.55
-2.56
-5.73
-9.11
-12.90
-17.35
-22.54
-28.28
-34.04
-38.97
-42.08
-42.54
-39.88
-34.19
-26.09
-16.53
-6.56
2.93
11.33
18.32
23.79
27.71
30.07
30.94
30.49
29.03
26.99
24.79
22.78
21.13
19.85
18.82
17.89
16.88
15.63
14.02
11.94
9.38
6.42
3.23
-0.01
-3.19
-6.32
-9.55
-13.11
-17.22
-22.03
-27.46
-33.11
-38.28
-42.00
-43.30
-41.52
-36.54
-28.88
-19.52
-9.62
-0.15
8.27
15.37
21.09
25.45
28.44
30.07
30.44
29.77
28.43
26.79
25.19
23.83
22.77
21.97
21.30
20.60
19.73
18.57
17.02
15.01
12.51
9.53
6.20
2.67
-0.85
-4.22
-7.41
-10.53
-13.85
-17.72
-22.37
-27.79
-33.55
-38.81
-42.46
-43.51
-41.36
-36.04
-28.21
-18.95
-9.39
-0.39
7.53
14.19
19.56
23.63
26.34
27.71
27.89
27.22
26.11
24.97
23.98
23.17
22.43
21.65
20.81
19.97
19.15
18.27
17.13
15.48
13.15
10.14
6.67
3.05
-0.39
-3.46
-6.15
-8.65
-11.26
-14.33
-18.16
-22.85
-28.22
-33.68
-38.31
-41.00
-40.80
-37.25
-30.60
-21.76
-12.00
-2.55
5.73
12.47
17.66
21.45
23.95
25.18
25.22
24.27
22.70
20.98
19.54
18.64
18.30
18.35
18.45
18.27
17.49
15.95
13.69
10.91
7.92
4.96
2.17
-0.49
-3.13
-5.88
-8.80
-12.00
-15.58
-19.77
-24.65
-30.04
-35.25
-39.19
-40.64
-38.76
-33.43
-25.36
-15.87
-6.33
2.23
9.35
15.02
19.43
22.64
24.56
25.01
23.99
21.78
18.98
16.27
14.21
13.04
12.62
12.52
12.22
11.33
9.76
7.61
5.18
2.72
0.32
-2.06
-4.58
-7.39
-10.51
-13.90
-17.53
-21.47
-25.86
-30.75
-35.77
-40.14
-42.72
-42.44
-38.73
-31.81
-22.66
-12.65
-3.07
5.23
11.97
17.23
21.21
23.97
25.46
25.63
24.60
22.67
20.35
18.11
16.31
15.01
14.08
13.23
12.19
10.79
9.01
6.94
4.72
2.45
0.15
-2.23
-4.79
-7.63
-10.86
-14.56
-18.83
-23.70
-29.12
-34.74
-39.92
-43.66
-44.95
-43.05
-37.82
-29.83
-20.22
-10.27
-1.03
6.91
13.42
18.56
22.39
24.80
25.69
25.12
23.39
21.10
18.91
17.27
16.38
16.03
15.84
15.37
14.34
12.72
10.66
8.42
6.15
3.90
1.57
-0.99
-3.87
-7.09
-10.64
-14.55
-18.96
-24.00
-29.56
-35.14
-39.77
-42.30
-41.78
-37.87
-30.99
-22.19
-12.75
-3.70
4.34
11.24
17.03
21.72
25.13
27.04
27.27
25.97
23.58
20.76
18.20
16.38
15.42
15.12
15.05
14.70
13.74
12.06
9.80
7.20
4.54
1.92
-0.66
-3.35
-6.31
-9.71
-13.67
-18.26
-23.44
-29.02
-34.50
-39.08
-41.80
-41.79
-38.60
-32.43
-24.08
-14.68
-5.39
2.99
10.04
15.67
19.89
22.68
24.00
23.86
22.49
20.30
17.89
15.80
14.37
13.67
13.45
13.27
12.67
11.37
9.33
6.77
4.04
1.37
-1.16
-3.71
-6.59
-10.04
-14.20
-19.03
-24.29
-29.62
-34.46
-38.09
-39.74
-38.80
-35.03
-28.70
-20.55
-11.52
-2.52
5.78
12.98
18.83
23.06
25.46
25.92
24.66
22.23
19.43
16.99
15.38
14.61
14.35
14.05
13.27
11.73
9.43
6.58
3.45
0.34
-2.59
-5.31
-7.98
-10.88
-14.37
-18.71
-23.97
-29.88
-35.80
-40.85
-44.04
-44.59
-42.10
-36.67
-28.89
-19.71
-10.12
-0.96
7.23
14.19
19.82
24.04
26.69
27.65
26.97
25.03
22.48
20.06
18.35
17.51
17.23
16.95
16.15
14.58
12.40
9.96
7.58
5.39
3.19
0.62
-2.68
-6.88
-11.96
-17.76
-23.99
-30.27
-36.03
-40.51
-42.86
-42.37
-38.75
-32.27
-23.77
-14.28
-4.78
4.09
12.02
18.88
24.50
28.68
31.14
31.85
31.06
29.33
27.36
25.71
24.63
24.02
23.50
22.63
21.11
18.89
16.18
13.27
10.43
7.75
5.14
2.37
-0.81
-4.58
-9.05
-14.20
-19.93
-25.98
-31.78
-36.52
-39.20
-38.99
-35.50
-29.00
-20.32
-10.57
-0.85
8.08
15.81
22.17
27.14
30.67
32.74
33.41
32.91
31.55
29.73
27.82
26.09
24.74
23.79
23.13
22.54
21.69
20.31
18.29
15.66
12.64
9.46
6.31
3.22
0.10
-3.28
-7.18
-11.80
-17.29
-23.54
-30.15
-36.37
-41.13
-43.34
-42.19
-37.52
-29.87
-20.35
-10.26
-0.67
7.72
14.68
20.23
24.41
27.14
28.32
27.97
26.40
24.20
22.08
20.61
19.98
20.03
20.28
20.21
19.44
17.87
15.65
13.02
10.26
7.57
5.02
2.54
-0.05
-2.98
-6.54
-10.96
-16.30
-22.30
-28.40
-33.71
-37.25
-38.17
-36.00
-30.82
-23.23
-14.24
-4.93
3.78
11.31
17.39
22.03
25.29
27.22
27.85
27.28
25.76
23.68
21.53
19.69
18.37
17.46
16.74
15.88
14.64
12.87
10.56
7.80
4.74
1.55
-1.60
-4.58
-7.41
-10.26
-13.44
-17.27
-21.97
-27.46
-33.32
-38.73
-42.67
-44.11
-42.37
-37.37
-29.68
-20.33
-10.52
-1.21
7.01
13.93
19.52
23.71
26.44
27.67
27.57
26.54
25.08
23.67
22.55
21.69
20.91
20.00
18.84
17.42
15.77
13.97
12.04
9.98
7.80
5.42
2.81
-0.13
-3.47
-7.24
-11.48
-16.23
-21.50
-27.16
-32.74
-37.48
-40.36
-40.43
-37.24
-30.99
-22.56
-13.14
-3.85
4.59
11.90
18.11
23.25
27.26
29.91
31.05
30.72
29.26
27.25
25.27
23.72
22.72
22.08
21.50
20.66
19.38
17.63
15.48
12.99
10.22
7.17
3.90
0.48
-2.94
-6.30
-9.61
-13.12
-17.13
-21.88
-27.27
-32.72
-37.26
-39.71
-39.20
-35.47
-28.99
-20.77
-11.97
-3.51
4.08
10.62
16.06
20.30
23.13
24.37
24.08
22.56
20.33
17.99
15.97
14.50
13.55
12.91
12.28
11.40
10.08
8.30
6.14
3.79
1.42
-0.90
-3.24
-5.77
-8.71
-12.21
-16.36
-21.06
-26.06
-30.83
-34.63
-36.61
-36.09
-32.80
-27.00
-19.42
-11.04
-2.76
4.76
11.15
16.21
19.80
21.82
22.21
21.13
18.98
16.31
13.73
11.68
10.36
9.63
9.14
8.45
7.22
5.40
3.19
0.96
-1.03
-2.74
-4.50
-6.77
-9.99
-14.31
-19.53
-25.13
-30.41
-34.58
-36.91
-36.87
-34.23
-29.11
-22.08
-13.94
-5.55
2.38
9.41
15.27
19.79
22.80
24.16
23.90
22.31
19.96
17.51
15.55
14.34
13.80
13.53
13.06
12.00
10.24
7.95
5.43
2.96
0.68
-1.48
-3.74
-6.37
-9.54
-13.37
-17.79
-22.67
-27.63
-32.08
-35.23
-36.21
-34.45
-29.85
-22.96
-14.73
-6.26
1.64
8.55
14.43
19.28
23.04
25.51
26.49
26.00
24.37
22.17
19.95
18.05
16.52
15.14
13.63
11.77
9.58
7.20
4.89
2.81
0.97
-0.79
-2.78
-5.34
-8.73
-13.04
-18.12
-23.48
-28.43
-32.10
-33.68
-32.67
-28.96
-22.91
-15.27
-6.89
1.42
9.06
15.60
20.75
24.23
25.87
25.73
24.11
21.60
18.88
16.49
14.69
13.42
12.40
11.33
10.00
8.34
6.41
4.32
2.19
0.15
-1.79
-3.73
-5.92
-8.73
-12.46
-17.11
-22.21
-26.87
-29.97
-30.59
-28.30
-23.33
-16.46
-8.72
-1.05
5.94
11.95
16.91
20.77
23.39
24.61
24.37
22.87
20.56
18.01
15.75
14.05
12.97
12.30
11.77
11.12
10.17
8.82
7.08
5.03
2.80
0.51
-1.79
-4.12
-6.58
-9.33
-12.49
-16.14
-20.32
-24.87
-29.42
-33.25
-35.48
-35.25
-32.09
-26.15
-18.23
-9.46
-1.01
6.31
12.15
16.52
19.53
21.25
21.70
20.92
19.15
16.80
14.40
12.40
11.01
10.14
9.53
8.84
7.83
6.47
4.89
3.29
1.85
0.59
-0.67
-2.21
-4.36
-7.37
-11.30
-15.95
-20.88
-25.45
-28.94
-30.68
-30.19
-27.33
-22.34
-15.76
-8.32
-0.79
6.18
12.05
16.44
19.11
19.96
19.08
16.80
13.69
10.37
7.44
5.27
3.90
3.14
2.63
2.02
1.13
-0.09
-1.57
-3.25
-5.06
-7.03
-9.25
-11.86
-15.05
-18.96
-23.55
-28.45
-32.90
-35.89
-36.44
-33.98
-28.60
-21.06
-12.51
-4.09
3.37
9.49
14.17
17.44
19.24
19.52
18.35
16.05
13.21
10.49
8.42
7.16
6.51
5.97
5.11
3.67
1.73
-0.45
-2.57
-4.47
-6.21
-8.04
-10.31
-13.34
-17.30
-22.07
-27.16
-31.72
-34.73
-35.29
-32.87
-27.61
-20.23
-11.78
-3.32
4.36
10.89
16.18
20.25
23.10
24.62
24.76
23.58
21.41
18.76
16.21
14.16
12.75
11.75
10.76
9.40
7.49
5.14
2.64
0.26
-1.85
-3.78
-5.75
-8.10
-11.09
-14.96
-19.78
-25.36
-31.19
-36.41
-39.95
-40.87
-38.64
-33.34
-25.68
-16.68
-7.41
1.30
8.98
15.39
20.42
23.99
26.05
26.64
25.94
24.30
22.17
20.00
18.13
16.69
15.63
14.71
13.65
12.24
10.39
8.21
5.94
3.78
1.80
-0.09
-2.16
-4.66
-7.74
-11.46
-15.77
-20.57
-25.68
-30.71
-35.01
-37.72
-37.99
-35.27
-29.61
-21.67
-12.51
-3.23
5.34
12.78
18.92
23.72
27.03
28.67
28.60
27.03
24.52
21.80
19.52
18.00
17.16
16.65
16.02
14.95
13.37
11.39
9.19
6.91
4.61
2.26
-0.22
-2.91
-5.92
-9.36
-13.38
-18.02
-23.18
-28.44
-33.10
-36.29
-37.17
-35.19
-30.34
-23.13
-14.51
-5.53
2.88
10.08
15.71
19.62
21.77
22.19
21.04
18.71
15.78
12.93
10.74
9.45
8.92
8.72
8.35
7.47
6.03
4.24
2.39
0.66
-0.98
-2.76
-4.99
-7.96
-11.82
-16.58
-22.05
-27.83
-33.22
-37.34
-39.26
-38.31
-34.29
-27.64
-19.22
-10.07
-1.09
7.09
14.09
19.64
23.48
25.43
25.49
23.98
21.51
18.83
16.49
14.75
13.49
12.35
10.98
9.20
7.06
4.77
2.55
0.48
-1.56
-3.80
-6.56
-10.10
-14.63
-20.12
-26.36
-32.74
-38.34
-42.09
-43.04
-40.69
-35.17
-27.23
-17.92
-8.27
0.93
9.20
16.22
21.71
25.41
27.17
27.10
25.61
23.30
20.82
18.66
17.03
15.84
14.86
13.75
12.28
10.36
8.07
5.59
3.09
0.64
-1.93
-4.94
-8.80
-13.77
-19.84
-26.57
-33.11
-38.34
-41.16
-40.82
-37.13
-30.57
-22.09
-12.79
-3.63
4.81
12.26
18.62
23.71
27.31
29.15
29.24
27.91
25.78
23.59
21.85
20.76
20.15
19.60
18.70
17.19
15.05
12.47
9.74
7.04
4.41
1.72
-1.31
-4.96
-9.40
-14.62
-20.46
-26.51
-32.16
-36.68
-39.22
-39.10
-35.96
-29.95
-21.76
-12.35
-2.74
6.33
14.39
21.27
26.86
30.96
33.35
33.94
32.88
30.69
28.07
25.68
23.94
22.91
22.34
21.80
20.89
19.36
17.17
14.45
11.42
8.31
5.28
2.39
-0.46
-3.46
-6.93
-11.14
-16.20
-21.95
-27.84
-32.98
-36.29
-36.91
-34.36
-28.82
-20.96
-11.79
-2.31
6.67
14.62
21.21
26.19
29.39
30.74
30.36
28.65
26.22
23.73
21.73
20.49
19.98
19.92
19.89
19.47
18.40
16.60
14.22
11.52
8.80
6.23
3.83
1.46
-1.15
-4.25
-8.07
-12.68
-17.98
-23.63
-28.99
-33.18
-35.29
-34.61
-30.86
-24.33
-15.81
-6.33
3.11
11.70
18.94
24.58
28.51
30.72
31.28
30.41
28.52
26.15
23.88
22.19
21.26
20.95
20.84
20.44
19.34
17.41
14.77
11.75
8.68
5.80
3.16
0.64
-1.98
-4.89
-8.27
-12.26
-16.92
-22.13
-27.50
-32.29
-35.54
-36.28
-33.90
-28.41
-20.47
-11.19
-1.76
6.87
14.15
19.89
24.10
26.82
28.06
27.91
26.57
24.44
22.07
19.95
18.44
17.58
17.15
16.79
16.13
14.96
13.29
11.28
9.13
6.95
4.74
2.38
-0.28
-3.30
-6.70
-10.47
-14.60
-19.09
-23.77
-28.21
-31.66
-33.21
-32.11
-28.11
-21.55
-13.35
-4.65
3.63
10.89
16.95
21.81
25.42
27.63
28.27
27.34
25.19
22.49
19.98
18.26
17.46
17.28
17.17
16.57
15.18
13.07
10.56
8.04
5.72
3.63
1.65
-0.48
-2.92
-5.78
-9.15
-13.08
-17.58
-22.50
-27.42
-31.64
-34.30
-34.59
-32.05
-26.80
-19.46
-11.03
-2.56
5.06
11.29
15.89
18.81
20.08
19.85
18.37
16.09
13.54
11.30
9.74
8.95
8.73
8.68
8.36
7.51
6.08
4.23
2.22
0.25
-1.62
-3.52
-5.65
-8.26
-11.45
-15.25
-19.49
-23.91
-28.05
-31.34
-33.15
-32.93
-30.36
-25.51
-18.86
-11.17
-3.30
3.98
10.10
14.70
17.56
18.64
18.05
16.09
13.31
10.33
7.70
5.74
4.46
3.63
2.90
2.03
0.93
-0.35
-1.66
-2.91
-4.18
-5.64
-7.55
-10.14
-13.56
-17.81
-22.66
-27.65
-32.04
-34.97
-35.67
-33.66
-29.00
-22.19
-14.13
-5.75
2.13
8.96
14.39
18.24
20.39
20.90
20.00
18.09
15.69
13.27
11.12
9.32
7.77
6.27
4.64
2.83
0.90
-1.02
-2.80
-4.46
-6.16
-8.19
-10.89
-14.51
-19.05
-24.17
-29.19
-33.16
-35.12
-34.35
-30.69
-24.51
-16.70
-8.28
-0.18
7.02
13.01
17.72
21.03
22.88
23.19
22.15
20.15
17.80
15.63
13.98
12.84
11.91
10.80
9.21
7.02
4.37
1.54
-1.19
-3.61
-5.71
-7.66
-9.78
-12.43
-15.93
-20.38
-25.54
-30.78
-35.15
-37.62
-37.42
-34.27
-28.48
-20.85
-12.37
-3.91
3.89
10.69
16.34
20.71
23.65
25.07
24.96
23.57
21.33
18.79
16.47
14.68
13.48
12.66
11.90
10.89
9.49
7.76
5.88
4.02
2.22
0.34
-1.85
-4.57
-8.01
-12.23
-17.20
-22.75
-28.46
-33.68
-37.49
-38.98
-37.49
-32.90
-25.74
-16.98
-7.74
1.07
8.88
15.46
20.70
24.49
26.68
27.18
26.12
23.91
21.20
18.66
16.82
15.86
15.57
15.47
15.05
13.95
12.09
9.68
7.06
4.53
2.20
-0.00
-2.32
-4.97
-8.12
-11.85
-16.15
-20.95
-26.03
-31.00
-35.17
-37.70
-37.83
-35.08
-29.54
-21.79
-12.79
-3.56
5.07
12.54
18.62
23.22
26.33
27.97
28.22
27.26
25.46
23.30
21.28
19.81
18.98
18.66
18.47
17.98
16.90
15.11
12.73
9.98
7.08
4.17
1.31
-1.51
-4.31
-7.14
-10.06
-13.24
-16.90
-21.21
-26.05
-30.94
-34.99
-37.13
-36.46
-32.64
-26.02
-17.57
-8.46
0.22
7.85
14.19
19.24
22.97
25.32
26.22
25.77
24.30
22.34
20.40
18.82
17.71
16.97
16.42
15.93
15.38
14.66
13.64
12.20
10.22
7.73
4.84
1.72
-1.46
-4.61
-7.75
-10.98
-14.47
-18.42
-22.85
-27.54
-31.91
-35.06
-36.02
-34.11
-29.20
-21.85
-13.09
-4.11
4.16
11.19
16.79
20.91
23.50
24.50
23.92
22.08
19.53
16.99
15.06
14.00
13.71
13.76
13.65
13.00
11.68
9.78
7.58
5.31
3.14
1.04
-1.15
-3.62
-6.53
-9.96
-13.92
-18.36
-23.14
-27.93
-32.14
-34.90
-35.34
-32.86
-27.46
-19.81
-11.02
-2.29
5.49
11.86
16.71
20.07
21.94
22.26
21.09
18.74
15.82
13.02
10.93
9.79
9.40
9.24
8.74
7.51
5.50
2.97
0.35
-1.99
-3.92
-5.57
-7.31
-9.57
-12.69
-16.80
-21.74
-27.11
-32.20
-36.21
-38.28
-37.79
-34.50
-28.68
-21.01
-12.39
-3.70
4.39
11.45
17.16
21.33
23.75
24.35
23.28
20.95
17.99
15.09
12.76
11.24
10.37
9.76
8.96
7.66
5.77
3.46
1.03
-1.22
-3.20
-5.03
-7.00
-9.49
-12.82
-17.15
-22.36
-28.06
-33.51
-37.74
-39.77
-38.88
-34.89
-28.28
-20.02
-11.25
-2.89
4.53
10.91
16.24
20.50
23.48
24.92
24.75
23.25
20.99
18.68
16.85
15.71
15.06
14.50
13.60
12.09
10.00
7.59
5.18
3.05
1.21
-0.56
-2.61
-5.30
-8.82
-13.17
-18.20
-23.64
-29.09
-33.98
-37.56
-39.00
-37.68
-33.40
-26.53
-17.95
-8.74
0.13
8.01
14.60
19.88
23.83
26.41
27.58
27.40
26.10
24.17
22.13
20.50
19.51
19.13
19.02
18.76
17.96
16.41
14.15
11.43
8.57
5.84
3.31
0.88
-1.65
-4.52
-7.90
-11.88
-16.52
-21.75
-27.31
-32.64
-36.84
-38.83
-37.81
-33.48
-26.32
-17.36
-7.85
1.20
9.22
16.08
21.76
26.23
29.34
30.91
30.94
29.71
27.72
25.54
23.64
22.26
21.38
20.80
20.22
19.37
18.08
16.32
14.12
11.65
9.02
6.36
3.69
0.96
-1.89
-4.99
-8.41
-12.27
-16.63
-21.52
-26.75
-31.88
-36.12
-38.52
-38.17
-34.62
-28.04
-19.27
-9.56
-0.10
8.22
15.02
20.29
24.19
26.78
28.10
28.20
27.23
25.59
23.73
22.10
21.01
20.53
20.57
20.88
21.20
21.26
20.87
19.93
18.47
16.54
14.23
11.64
8.86
6.03
3.28
0.76
-1.47
-3.42
-5.18
-6.86
-8.53
-10.25
-12.06
-14.04
-16.34
-19.14
-22.63
-26.90
-31.84
-37.03
-41.69
-44.85
-45.54
-43.21
-37.87
-30.22
-21.33
-12.33
-4.00
3.31
9.59
14.91
19.20
22.23
23.74
23.67
22.28
20.08
17.74
15.79
14.47
13.67
13.06
12.24
10.97
9.22
7.16
5.04
3.00
1.03
-1.06
-3.46
-6.32
-9.66
-13.44
-17.65
-22.34
-27.42
-32.59
-37.15
-40.16
-40.69
-38.18
-32.71
-24.98
-16.05
-6.95
1.55
9.08
15.51
20.77
24.73
27.19
28.07
27.47
25.78
23.55
21.34
19.54
18.27
17.39
16.62
15.74
14.58
13.12
11.40
9.49
7.39
5.11
2.63
-0.04
-2.90
-6.01
-9.47
-13.44
-18.06
-23.30
-28.86
-34.05
-37.97
-39.67
-38.47
-34.17
-27.21
-18.46
-9.00
0.19
8.43
15.38
20.94
25.04
27.67
28.81
28.59
27.31
25.42
23.39
21.64
20.37
19.53
18.94
18.29
17.37
16.02
14.25
12.15
9.85
7.44
4.96
2.37
-0.37
-3.34
-6.53
-10.00
-13.82
-18.12
-22.99
-28.30
-33.58
-37.95
-40.34
-39.81
-35.92
-28.97
-19.92
-10.10
-0.72
7.38
13.93
19.00
22.80
25.45
26.95
27.29
26.59
25.15
23.37
21.62
20.12
18.88
17.78
16.70
15.54
14.28
12.93
11.43
9.74
7.78
5.55
3.09
0.50
-2.18
-4.97
-8.01
-11.55
-15.78
-20.80
-26.45
-32.17
-37.09
-40.14
-40.39
-37.37
-31.30
-22.98
-13.60
-4.33
3.97
10.89
16.34
20.38
23.04
24.31
24.19
22.86
20.70
18.27
16.10
14.56
13.74
13.44
13.29
12.88
11.94
10.35
8.21
5.74
3.17
0.66
-1.73
-4.10
-6.63
-9.52
-12.98
-17.10
-21.87
-27.10
-32.25
-36.59
-39.20
-39.24
-36.25
-30.34
-22.19
-12.88
-3.54
4.92
11.98
17.52
21.56
24.19
25.44
25.36
24.18
22.27
20.17
18.31
16.97
16.13
15.56
14.95
14.03
12.67
10.83
8.61
6.10
3.43
0.70
-2.06
-4.85
-7.80
-11.06
-14.84
-19.30
-24.43
-29.98
-35.41
-39.88
-42.46
-42.36
-39.18
-33.08
-24.77
-15.28
-5.68
3.19
10.88
17.20
22.15
25.71
27.84
28.48
27.68
25.71
23.02
20.19
17.73
15.94
14.83
14.15
13.55
12.66
11.29
9.43
7.21
4.80
2.30
-0.31
-3.14
-6.31
-9.84
-13.74
-17.97
-22.60
-27.64
-32.93
-37.95
-41.78
-43.32
-41.71
-36.69
-28.77
-19.08
-8.94
0.55
8.81
15.65
21.09
25.11
27.62
28.57
28.07
26.52
24.49
22.53
21.00
19.97
19.24
18.49
17.41
15.86
13.84
11.47
8.90
6.24
3.54
0.79
-2.05
-5.02
-8.17
-11.60
-15.45
-19.87
-24.95
-30.53
-36.13
-40.91
-43.87
-44.11
-41.19
-35.28
-27.12
-17.75
-8.24
0.69
8.63
15.48
21.18
25.59
28.50
29.79
29.55
28.13
26.08
23.93
22.10
20.76
19.85
19.15
18.37
17.26
15.65
13.51
10.97
8.20
5.38
2.62
-0.10
-2.89
-5.92
-9.34
-13.33
-18.00
-23.38
-29.23
-34.96
-39.61
-42.11
-41.57
-37.70
-30.91
-22.17
-12.70
-3.56
4.62
11.62
17.44
22.07
25.39
27.23
27.53
26.44
24.41
21.96
19.64
17.80
16.54
15.71
14.98
14.05
12.66
10.76
8.47
6.00
3.57
1.28
-1.00
-3.47
-6.43
-10.11
-14.61
-19.85
-25.53
-31.11
-35.81
-38.72
-39.07
-36.37
-30.76
-22.90
-13.81
-4.57
3.95
11.25
17.16
21.65
24.71
26.26
26.28
24.90
22.51
19.69
17.06
15.07
13.84
13.14
12.54
11.60
10.11
8.09
5.81
3.50
1.32
-0.82
-3.14
-5.92
-9.35
-13.52
-18.36
-23.67
-29.10
-34.05
-37.77
-39.47
-38.54
-34.79
-28.53
-20.46
-11.52
-2.58
5.73
12.96
18.83
23.15
25.73
26.55
25.77
23.82
21.34
18.94
17.07
15.84
15.03
14.23
13.06
11.32
9.12
6.75
4.48
2.46
0.56
-1.50
-4.00
-7.15
-11.01
-15.56
-20.74
-26.40
-32.19
-37.45
-41.27
-42.69
-41.04
-36.26
-28.88
-19.91
-10.47
-1.42
6.72
13.72
19.53
24.02
27.04
28.47
28.35
26.94
24.76
22.40
20.39
19.03
18.30
17.86
17.28
16.14
14.27
11.77
8.93
6.08
3.40
0.84
-1.81
-4.85
-8.52
-12.90
-17.98
-23.62
-29.54
-35.25
-40.04
-43.03
-43.36
-40.51
-34.52
-26.04
-16.13
-5.94
3.61
12.01
19.07
24.78
29.09
31.87
33.06
32.69
31.10
28.80
26.38
24.30
22.76
21.72
20.93
20.12
19.04
17.54
15.57
13.18
10.43
7.45
4.33
1.11
-2.23
-5.76
-9.60
-13.88
-18.69
-24.04
-29.77
-35.46
-40.39
-43.61
-44.22
-41.64
-35.90
-27.66
-17.99
-8.08
1.17
9.30
16.18
21.86
26.31
29.43
31.11
31.38
30.53
29.04
27.41
26.02
25.02
24.32
23.69
22.92
21.88
20.53
18.85
16.82
14.40
11.54
8.26
4.69
1.01
-2.54
-5.84
-8.98
-12.24
-16.03
-20.70
-26.33
-32.55
-38.55
-43.17
-45.28
-44.08
-39.44
-31.89
-22.54
-12.62
-3.13
5.35
12.62
18.71
23.56
27.01
28.85
29.03
27.80
25.71
23.42
21.52
20.26
19.62
19.30
18.95
18.26
17.08
15.35
13.12
10.51
7.65
4.72
1.85
-0.85
-3.43
-6.01
-8.85
-12.27
-16.53
-21.70
-27.49
-33.18
-37.70
-39.93
-39.05
-34.86
-27.90
-19.20
-9.99
-1.23
6.51
13.09
18.49
22.68
25.52
26.80
26.52
24.94
22.60
20.14
18.08
16.62
15.70
15.01
14.23
13.11
11.59
9.70
7.55
5.23
2.80
0.25
-2.44
-5.34
-8.49
-11.97
-15.91
-20.42
-25.54
-31.13
-36.72
-41.48
-44.42
-44.64
-41.64
-35.58
-27.22
-17.66
-8.01
0.89
8.64
15.08
20.23
24.06
26.53
27.63
27.45
26.23
24.37
22.26
20.27
18.61
17.32
16.31
15.39
14.38
13.11
11.45
9.39
6.95
4.20
1.20
-2.03
-5.48
-9.21
-13.25
-17.68
-22.55
-27.87
-33.50
-39.01
-43.64
-46.38
-46.32
-42.95
-36.44
-27.57
-17.55
-7.50
1.78
9.95
16.89
22.55
26.76
29.31
30.12
29.38
27.58
25.33
23.18
21.48
20.32
19.60
19.08
18.52
17.69
16.41
14.58
12.21
9.43
6.41
3.30
0.14
-3.12
-6.60
-10.38
-14.55
-19.17
-24.26
-29.79
-35.55
-40.99
-45.21
-47.18
-46.02
-41.43
-33.79
-24.16
-13.83
-3.94
4.82
12.19
18.20
22.90
26.28
28.26
28.89
28.38
27.17
25.73
24.42
23.43
22.72
22.09
21.37
20.38
19.07
17.45
15.57
13.44
11.06
8.39
5.42
2.22
-1.10
-4.38
-7.57
-10.76
-14.24
-18.35
-23.29
-28.93
-34.64
-39.44
-42.20
-42.05
-38.64
-32.29
-23.88
-14.48
-5.08
3.65
11.40
18.05
23.49
27.61
30.23
31.28
30.91
29.47
27.47
25.39
23.58
22.17
21.08
20.11
19.07
17.80
16.23
14.37
12.26
9.94
7.45
4.84
2.17
-0.56
-3.39
-6.41
-9.78
-13.67
-18.22
-23.48
-29.25
-35.02
-39.87
-42.71
-42.54
-38.92
-32.10
-23.05
-13.13
-3.58
4.74
11.54
16.84
20.83
23.56
25.02
25.23
24.32
22.61
20.51
18.43
16.72
15.55
14.91
14.66
14.52
14.13
13.17
11.48
9.07
6.18
3.13
0.17
-2.63
-5.37
-8.34
-11.78
-15.92
-20.83
-26.40
-32.23
-37.69
-41.82
-43.62
-42.31
-37.68
-30.16
-20.79
-10.79
-1.25
7.19
14.26
19.92
24.11
26.76
27.82
27.43
25.95
23.94
21.90
20.17
18.81
17.77
16.86
15.95
14.92
13.70
12.22
10.42
8.28
5.80
3.03
0.02
-3.17
-6.48
-9.92
-13.52
-17.39
-21.71
-26.60
-32.00
-37.51
-42.42
-45.74
-46.51
-44.10
