1650356673.00
64.000000
-0.00
-0.00
-0.00
-0.00
-0.00
-0.00
-0.00
-0.00
-0.00
-0.00
0.00
0.01
0.01
-0.00
-0.03
-0.05
-0.05
0.00
0.13
0.36
0.66
1.01
1.37
1.72
2.06
2.40
2.79
3.24
3.80
4.42
5.06
5.66
6.20
6.68
7.15
7.68
8.31
9.14
10.09
11.04
11.88
12.56
13.14
13.76
14.65
15.96
17.91
20.32
22.91
25.38
27.58
29.57
31.67
34.31
37.81
42.55
48.18
54.16
59.89
64.98
69.49
73.91
78.94
85.15
93.09
102.28
111.89
121.00
129.00
135.91
142.32
149.61
156.51
165.31
176.62
190.51
205.71
219.24
226.71
223.49
206.28
174.29
130.02
77.33
20.45
-37.53
-95.25
-152.58
-209.59
-265.81
-320.12
-370.80
-416.87
-457.78
-493.31
-522.99
-545.67
-559.52
-562.43
-552.74
-529.77
-494.57
-449.54
-397.93
-343.07
-287.61
-233.20
-180.51
-129.80
-81.24
-35.57
6.07
42.38
72.34
95.41
111.53
121.16
125.36
126.13
126.32
129.23
137.56
152.20
171.64
192.33
210.09
221.69
225.97
223.77
217.06
207.76
196.97
185.01
171.97
158.22
144.54
131.78
120.41
110.32
100.90
91.39
81.33
70.80
60.35
50.77
42.85
36.76
32.19
28.48
24.88
20.90
16.44
11.76
7.41
3.86
1.38
-0.04
-0.70
-1.02
-1.40
-2.11
-3.25
-4.74
-6.36
-7.83
-8.86
-9.23
-8.98
-8.30
-7.54
-6.95
-6.59
-6.33
-5.97
-5.43
-4.73
-3.93
-2.98
-1.77
-0.20
1.59
3.16
3.96
3.63
2.22
0.22
-1.68
-2.96
-3.50
-3.55
-3.50
-3.56
-3.67
-3.61
-3.19
-2.41
-1.47
-0.69
-0.28
-0.35
-0.81
-1.48
-2.14
-2.64
-2.95
-3.11
-3.26
-3.49
-3.87
-4.33
-4.71
-4.82
-4.50
-3.71
-2.55
-1.21
0.11
1.26
2.19
2.89
3.36
3.62
3.70
3.64
3.56
3.54
3.67
3.99
4.45
4.99
5.57
6.16
6.70
7.10
7.22
6.91
6.08
4.79
3.09
1.16
-0.81
-2.68
-4.36
-5.81
-7.03
-7.99
-8.71
-9.22
-9.55
-9.75
-9.84
-9.81
-9.53
-8.94
-7.99
-6.73
-5.33
-3.97
-2.81
-1.94
-1.37
-1.04
-0.87
-0.80
-0.81
-0.90
-1.08
-1.34
-1.65
-1.93
-2.11
-2.16
-2.08
-1.91
-1.74
-1.64
-1.60
-1.58
-1.50
-1.29
-0.93
-0.50
-0.13
0.06
-0.00
-0.26
-0.61
-0.94
-1.18
-1.39
-1.66
-2.10
-2.70
-3.35
-3.83
-3.92
-3.52
-2.64
-1.43
-0.06
1.29
2.56
3.66
4.52
5.10
5.36
5.27
4.87
4.22
3.42
2.53
1.59
0.68
-0.11
-0.70
-1.00
-1.00
-0.78
-0.47
-0.23
-0.16
-0.26
-0.51
-0.83
-1.21
-1.66
-2.16
-2.65
-3.02
-3.17
-3.08
-2.88
-2.77
-2.99
-3.70
-4.90
-6.45
-8.11
-9.65
-10.84
-11.51
-11.51
-10.74
-9.20
-6.95
-4.17
-1.13
1.87
4.59
6.87
8.66
10.02
11.04
11.87
12.58
13.20
13.64
13.83
13.69
13.25
12.60
11.92
11.36
11.06
11.02
11.16
11.34
11.36
11.05
10.32
9.20
7.81
6.31
4.84
3.43
2.01
0.46
-1.27
-3.16
-5.04
-6.70
-7.93
-8.59
-8.64
-8.13
-7.16
-5.84
-4.31
-2.73
-1.30
-0.22
0.33
0.30
-0.21
-0.94
-1.62
-2.03
-2.14
-2.09
-2.13
-2.51
-3.34
-4.53
-5.89
-7.21
-8.32
-9.20
-9.86
-10.34
-10.61
-10.58
-10.20
-9.49
-8.63
-7.89
-7.55
-7.75
-8.44
-9.37
-10.20
-10.56
-10.19
-8.96
-6.86
-3.94
-0.32
3.80
8.13
12.30
15.93
18.69
20.42
21.12
20.99
20.29
19.30
18.23
17.23
16.30
15.42
14.48
13.39
12.08
10.58
8.97
7.37
5.90
4.62
3.52
2.54
1.58
0.51
-0.79
-2.38
-4.27
-6.37
-8.52
-10.51
-12.08
-13.02
-13.15
-12.43
-10.94
-8.90
-6.62
-4.40
-2.50
-1.05
-0.04
0.64
1.10
1.42
1.60
1.59
1.38
1.02
0.65
0.41
0.36
0.47
0.57
0.45
-0.07
-1.05
-2.43
-4.04
-5.68
-7.18
-8.43
-9.37
-10.00
-10.35
-10.50
-10.57
-10.71
-11.01
-11.51
-12.08
-12.48
-12.41
-11.65
-10.07
-7.76
-4.90
-1.75
1.48
4.62
7.57
10.20
12.35
13.82
14.46
14.24
13.28
11.88
10.39
9.13
8.32
7.98
8.01
8.28
8.63
8.97
9.20
9.27
9.10
8.62
7.76
6.51
4.89
3.02
1.04
-0.84
-2.51
-3.88
-5.01
-5.98
-6.81
-7.47
-7.80
-7.65
-6.97
-5.87
-4.61
-3.48
-2.72
-2.38
-2.40
-2.59
-2.75
-2.75
-2.51
-2.02
-1.37
-0.68
-0.16
0.04
-0.21
-0.88
-1.85
-2.89
-3.76
-4.28
-4.37
-4.09
-3.62
-3.16
-2.90
-2.92
-3.18
-3.60
-4.04
-4.46
-4.89
-5.42
-6.12
-6.97
-7.85
-8.58
-8.96
-8.88
-8.30
-7.26
-5.81
-4.07
-2.17
-0.32
1.27
2.36
2.85
2.80
2.45
2.06
1.86
1.89
2.04
2.18
2.25
2.29
2.42
2.71
3.11
3.46
3.51
3.10
2.19
0.88
-0.63
-2.11
-3.43
-4.50
-5.38
-6.16
-6.99
-7.97
-9.09
-10.25
-11.22
-11.77
-11.75
-11.17
-10.15
-8.93
-7.69
-6.52
-5.49
-4.60
-3.92
-3.55
-3.56
-3.91
-4.45
-4.94
-5.14
-4.94
-4.34
-3.48
-2.50
-1.53
-0.63
0.16
0.83
1.32
1.57
1.53
1.21
0.67
0.03
-0.54
-0.84
-0.71
-0.02
1.26
3.06
5.19
7.37
9.31
10.79
11.68
12.06
12.16
12.27
12.67
13.47
14.62
15.91
17.07
17.85
18.09
17.74
16.85
15.46
13.65
11.52
9.19
6.82
4.52
2.36
0.33
-1.63
-3.54
-5.41
-7.18
-8.82
-10.28
-11.57
-12.71
-13.72
-14.66
-15.60
-16.63
-17.86
-19.31
-20.90
-22.48
-23.80
-24.67
-24.96
-24.64
-23.77
-22.44
-20.75
-18.74
-16.43
-13.79
-10.82
-7.60
-4.29
-1.11
1.72
4.02
5.70
6.74
7.13
6.90
6.15
5.11
4.10
3.47
3.45
4.11
5.27
6.64
7.86
8.65
8.83
8.30
7.07
5.22
2.95
0.57
-1.55
-3.08
-3.74
-3.43
-2.19
-0.20
2.35
5.24
8.31
11.44
14.52
17.37
19.81
21.59
22.55
22.64
22.03
21.06
20.17
19.71
19.85
20.51
21.36
21.98
21.92
20.89
18.77
15.66
11.91
8.06
4.73
2.46
1.52
1.77
2.74
3.86
4.67
5.05
5.12
5.13
5.18
5.15
4.75
3.74
2.06
-0.09
-2.32
-4.18
-5.36
-5.69
-5.18
-3.99
-2.38
-0.66
0.85
1.87
2.30
2.20
1.83
1.56
1.71
2.44
3.69
5.17
6.46
7.21
7.17
6.31
4.79
2.89
0.92
-0.84
-2.20
-3.09
-3.51
-3.51
-3.23
-2.91
-2.82
-3.26
-4.40
-6.18
-8.30
-10.31
-11.79
-12.53
-12.60
-12.26
-11.83
-11.48
-11.23
-10.99
-10.68
-10.31
-9.96
-9.71
-9.53
-9.30
-8.83
-8.02
-6.92
-5.68
-4.51
-3.54
-2.79
-2.18
-1.64
-1.16
-0.84
-0.76
-0.93
-1.20
-1.33
-1.06
-0.30
0.84
2.03
2.88
3.08
2.51
1.31
-0.20
-1.59
-2.52
-2.79
-2.41
-1.50
-0.29
1.03
2.30
3.43
4.41
5.21
5.87
6.43
6.99
7.59
8.28
9.04
9.77
10.34
10.57
10.34
9.62
8.50
7.20
6.01
5.15
4.68
4.46
4.18
3.53
2.31
0.48
-1.76
-4.16
-6.46
-8.45
-10.00
-11.01
-11.43
-11.21
-10.36
-8.98
-7.20
-5.20
-3.14
-1.11
0.87
2.79
4.69
6.57
8.39
10.07
11.44
12.39
12.86
12.93
12.77
12.52
12.23
11.80
11.08
9.92
8.33
6.54
4.83
3.45
2.46
1.72
1.01
0.21
-0.71
-1.63
-2.49
-3.27
-4.13
-5.22
-6.64
-8.29
-9.90
-11.09
-11.57
-11.20
-10.08
-8.49
-6.77
-5.23
-4.07
-3.37
-3.09
-3.17
-3.47
-3.87
-4.28
-4.62
-4.84
-4.99
-5.11
-5.27
-5.46
-5.64
-5.73
-5.65
-5.34
-4.76
-3.93
-2.91
-1.84
-0.91
-0.30
-0.14
-0.41
-0.94
-1.55
-2.12
-2.64
-3.20
-3.90
-4.79
-5.79
-6.76
-7.51
-7.87
-7.71
-7.02
-5.87
-4.51
-3.24
-2.37
-2.08
-2.32
-2.88
-3.45
-3.82
-3.95
-3.97
-4.06
-4.35
-4.83
-5.34
-5.63
-5.48
-4.79
-3.57
-2.00
-0.33
1.16
2.20
2.64
2.42
1.61
0.40
-0.94
-2.14
-2.98
-3.43
-3.62
-3.79
-4.20
-4.97
-6.06
-7.29
-8.39
-9.17
-9.50
-9.38
-8.83
-7.89
-6.56
-4.88
-2.95
-1.01
0.62
1.58
1.63
0.77
-0.75
-2.44
-3.78
-4.34
-3.97
-2.80
-1.17
0.52
1.94
2.99
3.72
4.36
5.14
6.25
7.75
9.55
11.45
13.16
14.40
14.99
14.86
14.12
12.94
11.54
10.17
9.04
8.34
8.23
8.75
9.83
11.25
12.69
13.87
14.58
14.80
14.65
14.32
13.98
13.75
13.60
13.39
12.97
12.22
11.10
9.69
8.17
6.66
5.22
3.82
2.35
0.75
-0.92
-2.48
-3.75
-4.62
-5.13
-5.44
-5.70
-5.97
-6.19
-6.24
-5.98
-5.40
-4.58
-3.66
-2.76
-1.95
-1.27
-0.77
-0.50
-0.60
-1.13
-2.05
-3.24
-4.48
-5.59
-6.54
-7.37
-8.17
-8.98
-9.72
-10.20
-10.29
-9.97
-9.40
-8.84
-8.53
-8.60
-8.98
-9.50
-9.96
-10.25
-10.32
-10.17
-9.78
-9.09
-8.03
-6.60
-4.92
-3.23
-1.80
-0.78
-0.18
0.15
0.47
0.93
1.56
2.22
2.68
2.74
2.34
1.56
0.59
-0.35
-1.08
-1.50
-1.58
-1.35
-0.87
-0.23
0.41
0.94
1.25
1.32
1.24
1.13
1.10
1.20
1.37
1.51
1.53
1.44
1.35
1.43
1.80
2.50
3.41
4.38
5.21
5.80
6.08
6.05
5.73
5.11
4.24
3.21
2.19
1.41
1.06
1.18
1.73
2.55
3.43
4.22
4.83
5.18
5.24
4.99
4.45
3.71
2.85
1.96
1.09
0.28
-0.47
-1.14
-1.65
-1.95
-2.00
-1.83
-1.48
-1.02
-0.49
0.10
0.76
1.51
2.32
3.10
3.69
3.90
3.62
2.80
1.57
0.16
-1.19
-2.29
-3.10
-3.70
-4.25
-4.88
-5.61
-6.35
-6.95
-7.26
-7.23
-6.90
-6.41
-5.94
-5.65
-5.59
-5.76
-6.04
-6.35
-6.57
-6.66
-6.56
-6.20
-5.52
-4.45
-3.01
-1.35
0.33
1.80
2.88
3.55
3.89
4.00
3.96
3.78
3.44
2.96
2.39
1.80
1.26
0.80
0.45
0.23
0.20
0.35
0.64
0.98
1.23
1.37
1.41
1.43
1.47
1.50
1.38
1.01
0.33
-0.59
-1.59
-2.51
-3.17
-3.46
-3.29
-2.69
-1.70
-0.47
0.81
2.00
2.94
3.57
3.90
3.98
3.90
3.77
3.72
3.82
4.06
4.35
4.52
4.42
3.97
3.25
2.39
1.56
0.84
0.24
-0.31
-0.87
-1.48
-2.14
-2.84
-3.61
-4.47
-5.46
-6.54
-7.62
-8.59
-9.36
-9.91
-10.24
-10.36
-10.23
-9.77
-8.90
-7.60
-5.95
-4.14
-2.35
-0.76
0.51
1.41
1.94
2.10
1.95
1.56
1.07
0.57
0.15
-0.22
-0.60
-1.06
-1.59
-2.04
-2.21
-1.94
-1.21
-0.18
0.85
1.57
1.81
1.55
0.88
-0.05
-1.15
-2.40
-3.79
-5.27
-6.70
-7.83
-8.39
-8.20
-7.21
-5.54
-3.48
-1.39
0.43
1.79
2.66
3.20
3.60
4.04
4.59
5.22
5.80
6.26
6.56
6.76
6.88
6.92
6.84
6.56
6.10
5.50
4.85
4.21
3.56
2.85
2.01
1.07
0.11
-0.79
-1.60
-2.37
-3.17
-4.07
-5.01
-5.90
-6.57
-6.94
-6.96
-6.68
-6.14
-5.39
-4.45
-3.32
-2.04
-0.72
0.52
1.53
2.25
2.65
2.80
2.77
2.69
2.62
2.59
2.59
2.53
2.31
1.83
1.04
0.00
-1.13
-2.15
-2.88
-3.22
-3.19
-2.90
-2.55
-2.35
-2.51
-3.17
-4.35
-5.88
-7.39
-8.37
-8.32
-6.92
-4.16
-0.29
4.26
9.00
13.43
17.14
19.73
20.98
20.86
19.67
18.01
16.58
15.96
16.37
17.66
19.35
20.92
21.89
22.01
21.24
19.71
17.72
15.58
13.58
11.91
10.58
9.49
8.39
7.09
5.45
3.48
1.28
-0.94
-2.97
-4.57
-5.61
-6.03
-5.90
-5.39
-4.67
-3.91
-3.22
-2.64
-2.18
-1.85
-1.67
-1.63
-1.78
-2.15
-2.79
-3.73
-4.91
-6.24
-7.54
-8.65
-9.46
-9.96
-10.20
-10.30
-10.43
-10.72
-11.26
-12.06
-13.03
-14.00
-14.82
-15.40
-15.76
-16.01
-16.29
-16.61
-16.87
-16.88
-16.41
-15.35
-13.69
-11.54
-9.06
-6.42
-3.77
-1.30
0.81
2.40
3.39
3.85
3.94
3.86
3.75
3.66
3.59
3.49
3.37
3.23
3.04
2.73
2.21
1.45
0.45
-0.71
-1.97
-3.26
-4.54
-5.73
-6.72
-7.36
-7.60
-7.46
-7.11
-6.71
-6.32
-5.85
-5.10
-3.93
-2.32
-0.46
1.37
2.95
4.13
4.94
5.50
5.90
6.19
6.33
6.28
6.08
5.83
5.67
5.70
5.95
6.33
6.75
7.09
7.34
7.52
7.68
7.80
7.83
7.69
7.38
6.98
6.69
6.73
7.22
8.18
9.45
10.80
12.04
13.04
13.78
14.33
14.72
14.97
15.02
14.81
14.29
13.45
12.35
11.03
9.56
7.96
6.29
4.61
3.04
1.65
0.51
-0.41
-1.16
-1.86
-2.56
-3.26
-3.87
-4.31
-4.59
-4.88
-5.43
-6.49
-8.15
-10.29
-12.54
-14.47
-15.68
-15.92
-15.18
-13.63
-11.57
-9.40
-7.44
-5.95
-4.99
-4.47
-4.13
-3.73
-3.09
-2.21
-1.24
-0.45
-0.07
-0.27
-1.03
-2.17
-3.43
-4.56
-5.38
-5.88
-6.11
-6.16
-6.08
-5.89
-5.60
-5.28
-5.02
-4.87
-4.83
-4.79
-4.61
-4.19
-3.55
-2.77
-1.93
-1.10
-0.23
0.76
1.96
3.34
4.79
6.12
7.12
7.65
7.66
7.24
6.54
5.74
4.99
4.37
3.90
3.54
3.25
3.04
2.94
2.96
3.09
3.23
3.28
3.18
2.96
2.69
2.44
2.22
1.90
1.30
0.31
-1.10
-2.81
-4.60
-6.22
-7.47
-8.18
-8.27
-7.71
-6.56
-4.93
-2.94
-0.69
1.73
4.20
6.53
8.46
9.70
10.06
9.52
8.27
6.61
4.84
3.19
1.73
0.52
-0.44
-1.16
-1.65
-2.00
-2.34
-2.77
-3.29
-3.81
-4.15
-4.17
-3.89
-3.47
-3.18
-3.27
-3.84
-4.84
-6.08
-7.31
-8.32
-8.90
-8.91
-8.22
-6.79
-4.72
-2.31
0.02
1.79
2.68
2.60
1.74
0.50
-0.64
-1.27
-1.17
-0.36
0.95
2.38
3.47
3.83
3.18
1.40
-1.44
-5.06
-9.06
-12.96
-16.26
-18.68
-20.10
-20.68
-20.76
-20.71
-20.77
-20.98
-21.19
-21.13
-20.53
-19.27
-17.39
-15.10
-12.71
-10.54
-8.78
-7.55
-6.83
-6.56
-6.70
-7.16
-7.79
-8.28
-8.24
-7.30
-5.36
-2.62
0.37
3.02
4.94
6.16
7.06
8.18
9.89
12.21
14.87
17.45
19.66
21.43
22.84
24.00
24.83
25.08
24.42
22.66
19.91
16.58
13.27
10.49
8.46
7.03
5.77
4.19
1.97
-0.92
-4.21
-7.45
-10.18
-12.06
-12.95
-12.88
-12.04
-10.72
-9.24
-7.92
-7.02
-6.62
-6.69
-7.02
-7.29
-7.15
-6.25
-4.38
-1.48
2.29
6.66
11.26
15.80
20.12
24.15
27.83
31.04
33.61
35.35
36.17
36.19
35.72
35.16
34.84
34.90
35.17
35.30
34.90
33.68
31.57
28.74
25.45
21.96
18.43
14.89
11.34
7.80
4.35
1.16
-1.58
-3.75
-5.30
-6.29
-6.82
-6.99
-6.87
-6.50
-5.94
-5.27
-4.66
-4.27
-4.23
-4.56
-5.15
-5.82
-6.37
-6.69
-6.80
-6.83
-6.92
-7.21
-7.75
-8.48
-9.29
-10.02
-10.55
-10.80
-10.77
-10.53
-10.21
-9.99
-10.08
-10.62
-11.64
-13.02
-14.48
-15.69
-16.36
-16.31
-15.59
-14.38
-13.00
-11.78
-10.97
-10.65
-10.69
-10.82
-10.72
-10.17
-9.17
-7.93
-6.81
-6.13
-5.96
-6.14
-6.29
-6.03
-5.16
-3.75
-2.05
-0.40
0.92
1.79
2.19
2.20
1.85
1.11
-0.08
-1.73
-3.69
-5.59
-6.92
-7.19
-6.17
-3.91
-0.79
2.71
6.19
9.48
12.55
15.39
17.87
19.71
20.65
20.61
19.83
18.73
17.82
17.38
17.46
17.80
18.07
18.02
17.62
17.09
16.70
16.66
16.94
17.34
17.52
17.18
16.16
14.43
12.06
9.13
5.77
2.10
-1.63
-5.13
-8.07
-10.21
-11.47
-12.04
-12.26
-12.58
-13.28
-14.37
-15.52
-16.22
-15.93
-14.34
-11.47
-7.65
-3.42
0.63
3.94
6.07
6.81
6.20
4.58
2.49
0.52
-0.86
-1.43
-1.23
-0.37
1.00
2.79
4.88
7.04
8.87
9.91
9.74
8.13
5.12
0.94
-4.03
-9.34
-14.58
-19.33
-23.22
-25.96
-27.36
-27.45
-26.46
-24.79
-22.86
-21.02
-19.38
-17.81
-16.02
-13.74
-10.78
-7.14
-2.92
1.72
6.65
11.70
16.60
21.00
24.52
26.94
28.26
28.70
28.64
28.38
28.14
27.96
27.82
27.59
27.13
26.27
24.86
22.87
20.46
17.93
15.63
13.74
12.19
10.71
8.91
6.53
3.50
-0.02
-3.72
-7.20
-10.12
-12.19
-13.29
-13.50
-13.10
-12.47
-11.96
-11.81
-12.00
-12.41
-12.88
-13.40
-14.12
-15.28
-17.03
-19.28
-21.61
-23.46
-24.36
-24.11
-22.96
-21.45
-20.21
-19.65
-19.81
-20.43
-21.10
-21.53
-21.63
-21.55
-21.48
-21.50
-21.49
-21.17
-20.25
-18.57
-16.19
-13.35
-10.31
-7.28
-4.29
-1.28
1.86
5.10
8.31
11.18
13.41
14.79
15.23
14.83
13.72
12.09
10.11
7.96
5.79
3.79
2.10
0.80
-0.12
-0.76
-1.27
-1.83
-2.63
-3.73
-5.04
-6.31
-7.19
-7.32
-6.55
-5.01
-3.03
-1.05
0.61
1.88
2.88
3.81
4.83
5.99
7.29
8.83
10.79
13.38
16.67
20.44
24.15
27.13
28.75
28.68
26.94
23.92
20.19
16.38
13.03
10.46
8.76
7.76
7.12
6.51
5.64
4.40
2.82
1.02
-0.83
-2.58
-4.08
-5.20
-5.85
-6.08
-6.01
-5.84
-5.76
-5.84
-5.98
-5.98
-5.59
-4.64
-3.15
-1.31
0.58
2.21
3.37
3.98
4.05
3.64
2.83
1.69
0.36
-1.02
-2.24
-3.17
-3.75
-4.06
-4.25
-4.45
-4.71
-4.99
-5.22
-5.31
-5.29
-5.29
-5.48
-6.06
-7.08
-8.43
-9.83
-10.87
-11.20
-10.68
-9.43
-7.77
-6.10
-4.67
-3.53
-2.59
-1.72
-0.82
0.05
0.79
1.27
1.42
1.21
0.61
-0.44
-1.95
-3.92
-6.21
-8.54
-10.60
-12.10
-12.95
-13.23
-13.19
-13.15
-13.36
-13.95
-14.93
-16.21
-17.63
-19.00
-20.04
-20.45
-19.95
-18.38
-15.81
-12.56
-9.06
-5.71
-2.72
-0.05
2.52
5.21
8.06
10.88
13.35
15.14
16.14
16.45
16.29
15.85
15.14
14.03
12.36
10.07
7.33
4.47
1.87
-0.24
-1.81
-2.92
-3.72
-4.30
-4.66
-4.79
-4.69
-4.43
-4.09
-3.72
-3.31
-2.76
-1.97
-0.89
0.42
1.83
3.20
4.46
5.69
7.05
8.75
10.90
13.46
16.24
18.87
20.97
22.20
22.40
21.63
20.19
18.56
17.24
16.59
16.70
17.28
17.86
17.92
17.15
15.58
13.45
11.09
8.66
6.14
3.35
0.14
-3.43
-7.09
-10.46
-13.26
-15.38
-16.93
-18.06
-18.87
-19.37
-19.45
-19.06
-18.21
-16.99
-15.52
-13.87
-12.03
-9.95
-7.56
-4.83
-1.76
1.48
4.68
7.53
9.73
11.12
11.73
11.83
11.79
11.98
12.65
13.79
15.22
16.64
17.79
18.49
18.70
18.48
17.97
17.25
16.37
15.26
13.85
12.05
9.85
7.30
4.53
1.66
-1.19
-3.98
-6.63
-9.06
-11.14
-12.70
-13.58
-13.63
-12.82
-11.23
-9.09
-6.71
-4.47
-2.66
-1.46
-0.89
-0.84
-1.12
-1.55
-1.93
-2.11
-2.00
-1.57
-0.84
0.07
1.05
1.90
2.47
2.59
2.18
1.26
-0.02
-1.40
-2.56
-3.23
-3.28
-2.81
-2.09
-1.47
-1.24
-1.53
-2.21
-3.04
-3.73
-4.09
-4.03
-3.60
-2.86
-1.91
-0.81
0.35
1.46
2.37
2.99
3.32
3.47
3.59
3.81
4.16
4.56
4.84
4.84
4.47
3.79
2.93
2.06
1.33
0.78
0.41
0.16
-0.02
-0.15
-0.24
-0.34
-0.47
-0.72
-1.10
-1.62
-2.23
-2.90
-3.62
-4.44
-5.35
-6.30
-7.19
-7.84
-8.16
-8.07
-7.61
-6.89
-6.00
-5.02
-3.98
-2.91
-1.88
-1.03
-0.46
-0.24
-0.35
-0.66
-1.01
-1.30
-1.50
-1.65
-1.80
-1.92
-1.90
-1.61
-0.95
0.01
1.07
1.95
2.45
2.52
2.29
1.95
1.64
1.39
1.11
0.66
-0.02
-0.89
-1.81
-2.63
-3.21
-3.51
-3.52
-3.26
-2.73
-1.98
-1.10
-0.21
0.52
0.96
1.07
0.89
0.51
0.08
-0.30
-0.58
-0.78
-0.95
-1.19
-1.52
-1.92
-2.33
-2.66
-2.87
-3.03
-3.25
-3.60
-4.11
-4.65
-5.06
-5.23
-5.19
-5.14
-5.35
-5.99
-7.01
-8.15
-9.05
-9.45
-9.28
-8.64
-7.71
-6.66
-5.54
-4.36
-3.14
-1.96
-0.94
-0.21
0.19
0.31
0.30
0.28
0.32
0.39
0.41
0.31
0.09
-0.17
-0.34
-0.29
0.05
0.61
1.29
1.96
2.53
2.98
3.24
3.29
3.05
2.53
1.81
1.03
0.37
-0.09
-0.34
-0.43
-0.39
-0.22
0.08
0.51
1.00
1.45
1.76
1.96
2.15
2.49
3.11
4.02
5.16
6.39
7.53
8.42
8.89
8.82
8.11
6.78
5.01
3.04
1.14
-0.52
-1.91
-3.18
-4.50
-5.96
-7.57
-9.18
-10.63
-11.80
-12.64
-13.22
-13.60
-13.87
-14.03
-14.05
-13.82
-13.24
-12.15
-10.45
-8.08
-5.10
-1.69
1.82
5.12
7.87
9.88
11.03
11.35
10.99
10.16
9.13
8.18
7.50
7.17
7.16
7.33
7.51
7.59
7.45
7.01
6.20
4.99
3.41
1.62
-0.14
-1.62
-2.66
-3.27
-3.63
-3.90
-4.24
-4.63
-4.98
-5.16
-5.12
-4.93
-4.73
-4.64
-4.72
-4.94
-5.22
-5.47
-5.70
-5.94
-6.23
-6.54
-6.70
-6.48
-5.63
-4.06
-1.85
0.72
3.27
5.42
6.88
7.45
7.08
5.83
3.87
1.50
-0.92
-3.05
-4.64
-5.63
-6.15
-6.48
-6.92
-7.73
-8.99
-10.61
-12.34
-13.86
-14.89
-15.23
-14.85
-13.87
-12.47
-10.84
-9.07
-7.25
-5.41
-3.61
-1.98
-0.59
0.50
1.36
2.06
2.70
3.31
3.85
4.25
4.49
4.61
4.70
4.81
4.96
5.10
5.15
5.09
4.94
4.79
4.70
4.67
4.68
4.65
4.54
4.35
4.12
3.91
3.76
3.71
3.73
3.82
3.98
4.26
4.72
5.35
6.13
6.95
7.69
8.27
8.69
8.98
9.17
9.21
8.98
8.38
7.41
6.24
5.14
4.33
3.87
3.65
3.46
3.15
2.71
2.25
1.92
1.74
1.63
1.38
0.84
-0.03
-1.11
-2.18
-3.06
-3.63
-3.93
-4.10
-4.25
-4.44
-4.58
-4.49
-3.97
-2.96
-1.59
-0.12
1.13
1.93
2.22
2.13
1.89
1.72
1.74
1.95
2.22
2.38
2.28
1.83
1.02
-0.08
-1.38
-2.74
-3.97
-4.92
-5.42
-5.40
-4.89
-4.02
-2.97
-1.88
-0.83
0.14
0.98
1.56
1.74
1.43
0.66
-0.37
-1.35
-2.03
-2.31
-2.30
-2.28
-2.55
-3.30
-4.58
-6.25
-8.07
-9.75
-11.03
-11.66
-11.48
-10.42
-8.51
-5.89
-2.77
0.53
3.70
6.43
8.52
9.95
10.83
11.40
11.85
12.30
12.72
12.94
12.80
12.14
10.86
8.95
6.44
3.42
0.15
-3.06
-5.83
-7.87
-9.08
-9.59
-9.65
-9.47
-9.17
-8.67
-7.78
-6.29
-3.98
-0.76
3.34
8.10
13.05
17.52
20.71
21.97
21.00
18.04
13.80
9.30
5.45
2.81
1.44
0.95
0.73
0.24
-0.83
-2.49
-4.56
-6.79
-8.97
-10.96
-12.70
-14.16
-15.32
-16.20
-16.90
-17.58
-18.37
-19.29
-20.20
-20.85
-20.96
-20.36
-19.11
-17.47
-15.76
-14.24
-13.01
-11.97
-10.93
-9.63
-7.90
-5.65
-2.93
0.11
3.27
6.28
8.91
11.00
12.46
13.33
13.75
13.91
14.04
14.30
14.71
15.17
15.44
15.27
14.48
13.06
11.13
8.93
6.69
4.57
2.68
1.08
-0.15
-0.89
-1.07
-0.64
0.29
1.54
2.79
3.71
4.04
3.71
2.87
1.90
1.24
1.29
2.15
3.63
5.30
6.75
7.70
8.18
8.39
8.59
8.90
9.28
9.55
9.50
9.02
8.08
6.77
5.25
3.71
2.33
1.28
0.65
0.44
0.54
0.82
1.10
1.28
1.25
0.98
0.48
-0.19
-0.91
-1.58
-2.12
-2.55
-2.93
-3.29
-3.64
-3.95
-4.19
-4.34
-4.48
-4.65
-4.86
-5.05
-5.08
-4.89
-4.48
-3.97
-3.49
-3.15
-2.91
-2.69
-2.40
-2.01
-1.57
-1.20
-1.02
-1.10
-1.43
-1.94
-2.53
-3.13
-3.70
-4.27
-4.89
-5.59
-6.41
-7.34
-8.32
-9.28
-10.14
-10.81
-11.24
-11.44
-11.51
-11.64
-12.05
-12.96
-14.49
-16.60
-19.10
-21.67
-23.99
-25.76
-26.79
-27.01
-26.43
-25.22
-23.59
-21.84
-20.26
-19.06
-18.34
-18.03
-17.92
-17.76
-17.31
-16.41
-15.00
-13.14
-10.96
-8.66
-6.39
-4.19
-1.98
0.42
3.19
6.38
9.86
13.37
16.60
19.30
21.36
22.77
23.56
23.81
23.62
23.13
22.50
21.83
21.11
20.22
18.98
17.33
15.35
13.27
11.46
10.23
9.78
10.17
11.25
12.75
14.30
15.56
16.25
16.28
15.73
14.80
13.75
12.84
12.24
12.07
12.34
13.00
13.89
14.78
15.40
15.54
15.15
14.35
13.39
12.57
12.09
11.99
12.18
12.45
12.62
12.56
12.25
11.73
11.04
10.19
9.17
8.04
6.91
5.97
5.41
5.32
5.64
6.22
6.86
7.37
7.62
7.55
7.06
6.09
4.61
2.67
0.44
-1.81
-3.81
-5.38
-6.48
-7.16
-7.55
-7.76
-7.82
-7.73
-7.43
-6.93
-6.27
-5.59
-5.05
-4.74
-4.69
-4.77
-4.78
-4.46
-3.55
-1.82
0.87
4.53
9.05
14.12
19.31
24.09
28.01
30.82
32.54
33.48
34.04
34.55
35.14
35.70
35.93
35.57
34.41
32.38
29.50
25.82
21.49
16.70
11.78
7.18
3.34
0.62
-0.87
-1.25
-0.86
-0.14
0.51
0.77
0.49
-0.35
-1.65
-3.31
-5.15
-7.02
-8.69
-9.97
-10.64
-10.57
-9.68
-7.94
-5.41
-2.22
1.37
5.00
8.21
10.59
11.87
12.00
11.17
9.67
7.73
5.47
2.85
-0.25
-3.91
-8.07
-12.52
-16.94
-21.00
-24.49
-27.30
-29.51
-31.26
-32.71
-34.01
-35.27
-36.57
-37.94
-39.32
-40.55
-41.27
-41.07
-39.53
-36.44
-31.93
-26.41
-20.51
-14.85
-9.88
-5.77
-2.45
0.32
2.76
5.00
7.02
8.74
9.99
10.68
10.76
10.23
9.14
7.53
5.49
3.10
0.50
-2.17
-4.75
-7.16
-9.31
-11.20
-12.82
-14.19
-15.35
-16.31
-17.09
-17.67
-18.02
-18.10
-17.90
-17.44
-16.74
-15.78
-14.46
-12.66
-10.27
-7.28
-3.79
-0.01
3.88
7.75
11.60
15.47
19.41
23.30
26.82
29.51
30.89
30.70
29.03
26.34
23.31
20.57
18.56
17.38
16.91
16.86
16.89
16.60
15.58
13.42
9.89
5.01
-0.82
-6.98
-12.76
-17.63
-21.24
-23.52
-24.48
-24.24
-23.00
-21.07
-18.92
-17.05
-15.77
-15.14
-14.87
-14.55
-13.83
-12.63
-11.17
-9.85
-9.04
-8.90
-9.42
-10.38
-11.55
-12.67
-13.49
-13.82
-13.54
-12.70
-11.50
-10.29
-9.37
-8.94
-8.98
-9.28
-9.58
-9.65
-9.41
-8.89
-8.19
-7.44
-6.76
-6.22
-5.90
-5.80
-5.88
-6.05
-6.14
-6.05
-5.71
-5.20
-4.68
-4.36
-4.35
-4.61
-4.90
-4.85
-4.01
-2.06
1.09
5.17
9.66
13.89
17.25
19.45
20.52
20.78
20.63
20.32
19.88
19.08
17.67
15.50
12.68
9.53
6.39
3.48
0.80
-1.85
-4.64
-7.64
-10.69
-13.40
-15.32
-16.05
-15.38
-13.36
-10.23
-6.46
-2.64
0.62
2.80
3.63
3.09
1.45
-0.83
-3.22
-5.27
-6.66
-7.26
-7.15
-6.51
-5.62
-4.76
-4.13
-3.83
-3.83
-3.98
-4.01
-3.65
-2.66
-0.98
1.24
3.73
6.14
8.23
9.90
11.15
12.06
12.71
13.15
13.49
13.85
14.33
14.99
15.77
16.48
16.94
16.99
16.57
15.71
14.47
12.96
11.31
9.61
7.98
6.43
4.90
3.27
1.49
-0.35
-1.99
-3.03
-3.09
-1.94
0.44
3.90
8.09
12.61
17.05
21.05
24.36
26.95
28.95
30.57
31.95
33.09
33.74
33.58
32.29
29.75
26.08
21.61
16.76
11.98
7.63
3.97
1.14
-0.86
-2.13
-2.90
-3.46
-4.11
-5.13
-6.75
-9.05
-11.98
-15.30
-18.67
-21.71
-24.10
-25.68
-26.44
-26.56
-26.30
-25.98
-25.90
-26.25
-27.09
-28.36
-29.84
-31.31
-32.56
-33.50
-34.17
-34.79
-35.65
-37.06
-39.20
-42.02
-45.09
-47.73
-49.17
-48.84
-46.57
-42.69
-37.81
-32.57
-27.43
-22.52
-17.77
-13.03
-8.24
-3.43
1.29
5.80
10.06
14.03
17.71
21.06
24.06
26.72
29.05
31.07
32.75
34.02
34.76
34.86
34.27
33.00
31.16
28.96
26.66
24.52
22.75
21.50
20.77
20.49
20.47
20.50
20.34
19.80
18.82
17.48
16.02
14.67
13.62
12.83
12.12
11.19
9.83
7.98
5.78
3.44
1.13
-1.12
-3.39
-5.76
-8.23
-10.69
-12.94
-14.86
-16.43
-17.75
-18.94
-20.07
-21.08
-21.78
-22.01
-21.66
-20.79
-19.58
-18.27
-17.09
-16.24
-15.82
-15.85
-16.25
-16.88
-17.55
-18.04
-18.13
-17.65
-16.51
-14.70
-12.35
-9.59
-6.60
-3.56
-0.62
2.13
4.64
6.93
9.04
11.01
12.83
14.44
15.75
16.66
17.15
17.26
17.03
16.50
15.65
14.51
13.14
11.66
10.22
8.91
7.70
6.45
5.05
3.47
1.85
0.41
-0.68
-1.35
-1.64
-1.68
-1.58
-1.36
-1.01
-0.50
0.10
0.66
1.04
1.10
0.87
0.44
-0.02
-0.34
-0.44
-0.29
0.03
0.42
0.74
0.91
0.85
0.60
0.20
-0.29
-0.81
-1.37
-1.96
-2.59
-3.20
-3.74
-4.16
-4.45
-4.65
-4.80
-4.88
-4.82
-4.46
-3.61
-2.15
-0.07
2.55
5.47
8.44
11.21
13.63
15.70
17.54
19.31
21.18
23.23
25.50
27.99
30.67
33.50
36.44
39.46
42.51
45.49
48.27
50.62
52.27
52.97
52.61
51.22
48.97
46.04
42.57
38.66
34.45
30.17
26.11
22.46
19.21
16.09
12.67
8.60
3.83
-1.39
-6.57
-11.22
-15.02
-17.88
-19.92
-21.38
-22.56
-23.76
-25.22
-27.08
-29.34
-31.87
-34.41
-36.68
-38.42
-39.45
-39.68
-39.13
-37.86
-35.93
-33.38
-30.17
-26.26
-21.62
-16.35
-10.73
-5.17
-0.16
3.95
7.04
9.26
10.91
12.32
13.68
15.04
16.27
17.19
17.60
17.29
16.10
13.86
10.48
5.99
0.65
-5.06
-10.48
-14.99
-18.07
-19.54
-19.52
-18.36
-16.57
-14.61
-12.79
-11.33
-10.34
-9.90
-10.02
-10.62
-11.47
-12.24
-12.55
-12.16
-11.06
-9.44
-7.63
-5.88
-4.28
-2.74
-1.09
0.80
2.90
4.97
6.70
7.77
8.03
7.53
6.54
5.39
4.37
3.64
3.18
2.89
2.72
2.62
2.60
2.63
2.59
2.31
1.63
0.52
-0.91
-2.44
-3.84
-4.99
-5.90
-6.66
-7.36
-8.03
-8.53
-8.70
-8.32
-7.34
-5.81
-3.93
-1.96
-0.09
1.59
3.08
4.41
5.59
6.55
7.20
7.47
7.38
7.05
6.69
6.46
6.39
6.40
6.29
5.89
5.17
4.21
3.26
2.54
2.19
2.20
2.42
2.67
2.80
2.74
2.51
2.18
1.76
1.25
0.59
-0.30
-1.46
-2.83
-4.27
-5.57
-6.55
-7.09
-7.18
-6.93
-6.51
-6.06
-5.71
-5.49
-5.34
-5.14
-4.73
-3.99
-2.84
-1.34
0.36
2.05
3.50
4.54
5.10
5.19
4.93
4.44
3.84
3.22
2.66
2.19
1.83
1.63
1.61
1.75
1.99
2.16
2.05
1.45
0.27
-1.48
-3.67
-6.09
-8.54
-10.89
-13.06
-15.02
-16.75
-18.13
-19.00
-19.21
-18.68
-17.52
-15.98
-14.42
-13.13
-12.24
-11.69
-11.22
-10.55
-9.52
-8.15
-6.57
-5.00
-3.55
-2.30
-1.27
-0.50
-0.02
0.09
-0.15
-0.62
-1.13
-1.47
-1.50
-1.18
-0.58
0.19
1.02
1.76
2.29
2.49
2.30
1.74
0.91
0.01
-0.76
-1.30
-1.58
-1.74
-1.90
-2.13
-2.36
-2.38
-1.94
-0.87
0.82
2.94
5.19
7.27
8.99
10.29
11.18
11.70
11.89
11.77
11.37
10.79
10.14
9.50
8.91
8.35
7.73
6.98
6.03
4.88
3.56
2.15
0.72
-0.71
-2.16
-3.71
-5.39
-7.21
-9.04
-10.68
-11.95
-12.75
-13.17
-13.41
-13.69
-14.17
-14.82
-15.47
-15.90
-15.88
-15.30
-14.22
-12.74
-11.03
-9.22
-7.43
-5.72
-4.13
-2.64
-1.23
0.17
1.60
3.05
4.44
5.65
6.59
7.17
7.43
7.43
7.30
7.13
7.01
6.94
6.89
6.77
6.51
6.06
5.40
4.55
3.59
2.58
1.61
0.77
0.07
-0.50
-1.08
-1.79
-2.72
-3.81
-4.84
-5.52
-5.57
-4.91
-3.63
-1.99
-0.24
1.45
3.04
4.53
5.93
7.21
8.29
9.17
9.87
10.47
11.00
11.46
11.80
11.94
11.80
11.34
10.54
9.38
7.91
6.21
4.41
2.62
0.86
-0.93
-2.88
-5.12
-7.68
-10.46
-13.27
-15.94
-18.39
-20.64
-22.80
-24.97
-27.10
-29.02
-30.39
-30.92
-30.45
-29.00
-26.79
-24.04
-20.93
-17.46
-13.61
-9.41
-5.05
-0.90
2.65
5.31
7.03
7.92
8.23
8.20
8.04
7.88
7.77
7.74
7.73
7.69
7.59
7.41
7.15
6.77
6.21
5.43
4.43
3.28
2.12
1.04
0.08
-0.84
-1.81
-2.95
-4.31
-5.85
-7.49
-9.14
-10.70
-12.09
-13.23
-14.07
-14.58
-14.74
-14.55
-14.00
-13.12
-12.00
-10.82
-9.76
-8.95
-8.42
-8.05
-7.63
-6.94
-5.83
-4.27
-2.37
-0.28
1.84
3.88
5.78
7.52
9.10
10.47
11.59
12.38
12.83
12.98
12.94
12.78
12.53
12.15
11.54
10.66
9.55
8.36
7.24
6.33
5.75
5.57
5.79
6.41
7.33
8.39
9.39
10.18
10.70
11.00
11.16
11.25
11.24
11.03
10.56
9.89
9.19
8.73
8.71
9.16
10.00
11.03
12.08
13.11
14.12
15.18
16.32
17.50
18.62
19.60
20.42
21.13
21.83
22.60
23.46
24.34
25.15
25.79
26.23
26.50
26.69
26.88
27.16
27.59
28.18
28.95
29.86
30.77
31.51
31.79
31.36
30.04
27.81
24.82
21.34
17.66
14.02
10.54
7.25
4.14
1.24
-1.39
-3.68
-5.64
-7.32
-8.82
-10.25
-11.66
-13.06
-14.38
-15.57
-16.59
-17.40
-17.99
-18.30
-18.33
-18.10
-17.64
-17.05
-16.35
-15.56
-14.68
-13.73
-12.80
-11.95
-11.25
-10.66
-10.07
-9.38
-8.54
-7.66
-6.96
-6.68
-7.01
-7.99
-9.54
-11.45
-13.47
-15.38
-16.98
-18.16
-18.89
-19.24
-19.28
-19.13
-18.88
-18.57
-18.28
-18.05
-17.95
-18.00
-18.15
-18.29
-18.21
-17.72
-16.62
-14.85
-12.47
-9.67
-6.69
-3.80
-1.19
1.07
3.01
4.67
6.05
7.10
7.75
7.95
7.77
7.36
6.89
6.49
6.20
5.95
5.64
5.20
4.58
3.78
2.83
1.76
0.61
-0.52
-1.53
-2.33
-2.91
-3.32
-3.69
-4.14
-4.74
-5.42
-6.02
-6.38
-6.31
-5.72
-4.59
-2.98
-1.05
1.03
3.05
4.88
6.43
7.71
8.75
9.57
10.10
10.23
9.85
8.94
7.60
6.06
4.57
3.28
2.22
1.30
0.37
-0.65
-1.74
-2.79
-3.66
-4.31
-4.75
-5.07
-5.38
-5.74
-6.18
-6.67
-7.22
-7.82
-8.43
-8.96
-9.28
-9.24
-8.73
-7.75
-6.40
-4.81
-3.14
-1.53
-0.09
1.09
1.96
2.48
2.70
2.67
2.48
2.19
1.87
1.53
1.19
0.82
0.43
0.01
-0.43
-0.85
-1.21
-1.47
-1.62
-1.70
-1.75
-1.82
-1.95
-2.18
-2.56
-3.09
-3.75
-4.46
-5.08
-5.45
-5.48
-5.12
-4.43
-3.46
-2.30
-1.03
0.22
1.30
2.06
2.42
2.43
2.26
2.10
2.09
2.22
2.37
2.37
2.13
1.68
1.16
0.73
0.51
0.49
0.56
0.61
0.53
0.32
0.04
-0.25
-0.48
-0.62
-0.71
-0.81
-0.97
-1.21
-1.49
-1.69
-1.64
-1.22
-0.39
0.82
2.24
3.70
5.05
6.19
7.07
7.67
7.95
7.92
7.65
7.28
6.98
6.89
7.07
7.43
7.78
7.93
7.76
7.22
6.42
5.48
4.51
3.58
2.72
1.88
1.03
0.13
-0.83
-1.84
-2.87
-3.87
-4.78
-5.51
-5.99
-6.14
-5.92
-5.36
-4.52
-3.55
-2.62
-1.88
-1.42
-1.23
-1.25
-1.35
-1.42
-1.43
-1.36
-1.27
-1.23
-1.29
-1.46
-1.74
-2.09
-2.46
-2.79
-3.03
-3.16
-3.22
-3.25
-3.33
-3.52
-3.81
-4.19
-4.60
-4.99
-5.31
-5.53
-5.62
-5.57
-5.40
-5.16
-4.90
-4.62
-4.31
-3.88
-3.23
-2.29
-1.09
0.29
1.68
2.92
3.92
4.63
5.10
5.42
5.64
5.79
5.83
5.71
5.42
4.99
4.52
4.06
3.62
3.17
2.64
2.02
1.34
0.67
0.04
-0.58
-1.28
-2.15
-3.22
-4.38
-5.48
-6.34
-6.85
-6.99
-6.84
-6.50
-6.06
-5.53
-4.88
-4.05
-3.05
-1.96
-0.90
-0.07
0.40
0.52
0.37
0.17
0.11
0.32
0.79
1.42
2.03
2.40
2.41
1.99
1.19
0.14
-0.99
-2.03
-2.86
-3.42
-3.69
-3.70
-3.47
-3.04
-2.47
-1.83
-1.21
-0.63
-0.10
0.43
1.00
1.59
2.16
2.61
2.88
2.98
2.95
2.88
2.84
2.83
2.83
2.79
2.65
2.38
1.98
1.47
0.92
0.36
-0.20
-0.76
-1.35
-1.94
-2.50
-3.00
-3.46
-3.97
-4.63
-5.55
-6.67
-7.85
-8.83
-9.35
-9.28
-8.61
-7.47
-6.08
-4.69
-3.48
-2.53
-1.82
-1.21
-0.54
0.32
1.40
2.56
3.60
4.31
4.54
4.30
3.69
2.87
1.99
1.19
0.55
0.18
0.13
0.42
0.97
1.61
2.16
2.45
2.43
2.12
1.63
1.08
0.62
0.41
0.57
1.17
2.18
3.49
4.89
6.16
7.16
7.81
8.16
8.30
8.37
8.48
8.68
8.96
9.27
9.53
9.66
9.60
9.28
8.72
7.94
7.07
6.27
5.67
5.38
5.37
5.49
5.54
5.36
4.83
3.96
2.83
1.56
0.29
-0.86
-1.84
-2.63
-3.28
-3.85
-4.34
-4.68
-4.73
-4.38
-3.60
-2.51
-1.33
-0.31
0.32
0.45
0.04
-0.86
-2.10
-3.48
-4.81
-5.92
-6.76
-7.38
-7.87
-8.30
-8.69
-8.99
-9.13
-9.06
-8.79
-8.38
-7.93
-7.52
-7.18
-6.87
-6.48
-5.85
-4.84
-3.36
-1.46
0.76
3.17
5.60
7.94
10.06
11.83
13.11
13.83
13.99
13.72
13.26
12.90
12.85
13.20
13.89
14.68
15.23
15.24
14.53
13.10
11.18
9.09
7.15
5.59
4.46
3.70
3.18
2.77
2.34
1.83
1.14
0.21
-1.01
-2.43
-3.87
-5.04
-5.68
-5.63
-4.98
-3.97
-2.95
-2.21
-1.88
-1.92
-2.16
-2.45
-2.67
-2.84
-3.00
-3.19
-3.40
-3.57
-3.64
-3.62
-3.58
-3.66
-3.97
-4.56
-5.36
-6.26
-7.19
-8.14
-9.11
-10.12
-11.09
-11.87
-12.30
-12.26
-11.73
-10.76
-9.41
-7.75
-5.82
-3.72
-1.58
0.43
2.14
3.48
4.49
5.26
5.87
6.37
6.74
6.94
6.95
6.76
6.39
5.87
5.21
4.45
3.65
2.90
2.33
2.02
1.98
2.13
2.35
2.55
2.64
2.62
2.46
2.09
1.44
0.47
-0.73
-1.94
-2.85
-3.19
-2.86
-1.96
-0.73
0.60
1.89
3.08
4.15
5.05
5.70
6.06
6.16
6.12
6.11
6.24
6.47
6.64
6.55
6.07
5.19
4.06
2.84
1.70
0.70
-0.17
-0.97
-1.74
-2.48
-3.15
-3.74
-4.26
-4.76
-5.31
-5.92
-6.52
-6.96
-7.07
-6.75
-6.01
-4.95
-3.72
-2.47
-1.25
-0.08
1.12
2.38
3.67
4.93
6.01
6.72
6.90
6.49
5.51
4.10
2.43
0.70
-1.00
-2.60
-4.05
-5.30
-6.30
-7.03
-7.53
-7.93
-8.35
-8.89
-9.55
-10.27
-10.99
-11.74
-12.58
-13.57
-14.67
-15.73
-16.55
-16.93
-16.75
-16.01
-14.81
-13.29
-11.60
-9.86
-8.18
-6.67
-5.39
-4.41
-3.73
-3.28
-2.94
-2.62
-2.24
-1.80
-1.39
-1.09
-1.00
-1.08
-1.22
-1.25
-1.06
-0.65
-0.14
0.32
0.65
0.88
1.13
1.53
2.11
2.80
3.46
3.98
4.39
4.84
5.49
6.45
7.66
8.95
10.14
11.10
11.83
12.43
13.00
13.57
14.08
14.40
14.43
14.11
13.51
12.73
11.88
10.99
10.03
8.93
7.68
6.34
5.09
4.11
3.51
3.28
3.23
3.15
2.86
2.33
1.64
0.93
0.38
0.04
-0.06
-0.01
0.14
0.33
0.54
0.78
1.08
1.43
1.88
2.44
3.14
3.93
4.74
5.42
5.84
5.92
5.68
5.21
4.67
4.16
3.70
3.21
2.61
1.84
0.90
-0.13
-1.18
-2.16
-3.02
-3.73
-4.28
-4.64
-4.84
-4.95
-5.09
-5.38
-5.88
-6.56
-7.30
-7.91
-8.22
-8.15
-7.68
-6.90
-5.95
-4.98
-4.11
-3.43
-2.95
-2.66
-2.52
-2.49
-2.52
-2.55
-2.56
-2.55
-2.55
-2.57
-2.63
-2.74
-2.86
-2.94
-2.94
-2.83
-2.60
-2.32
-2.04
-1.87
-1.83
-1.92
-2.11
-2.33
-2.54
-2.67
-2.70
-2.61
-2.35
-1.88
-1.16
-0.18
1.01
2.33
3.68
4.98
6.15
7.12
7.86
8.32
8.47
8.34
8.02
7.61
7.22
6.90
6.67
6.45
6.11
5.56
4.74
3.70
2.52
1.32
0.22
-0.76
-1.62
-2.37
-3.02
-3.57
-4.04
-4.49
-5.02
-5.69
-6.45
-7.11
-7.45
-7.31
-6.71
-5.84
-4.97
-4.29
-3.84
-3.51
-3.16
-2.72
-2.28
-1.95
-1.82
-1.88
-1.97
-1.97
-1.81
-1.54
-1.28
-1.12
-1.09
-1.11
-1.11
-1.04
-0.94
-0.91
-1.06
-1.46
-2.08
-2.84
-3.64
-4.44
-5.20
-5.95
-6.67
-7.29
-7.71
-7.80
-7.49
-6.81
-5.87
-4.86
-3.92
-3.11
-2.43
-1.84
-1.24
-0.58
0.15
0.96
1.81
2.66
3.47
4.21
4.82
5.23
5.41
5.32
4.99
4.47
3.88
3.33
2.88
2.58
2.41
2.32
2.25
2.10
1.78
1.21
0.37
-0.65
-1.67
-2.45
-2.80
-2.65
-2.06
-1.21
-0.31
0.45
1.01
1.40
1.68
1.92
2.16
2.36
2.45
2.35
2.02
1.48
0.83
0.20
-0.24
-0.40
-0.27
0.04
0.32
0.37
0.06
-0.59
-1.42
-2.22
-2.80
-3.10
-3.19
-3.21
-3.34
-3.68
-4.24
-4.90
-5.48
-5.76
-5.56
-4.80
-3.56
-2.00
-0.34
1.27
2.77
4.18
5.54
6.82
7.90
8.64
8.96
8.90
8.65
8.41
8.32
8.35
8.38
8.25
7.93
7.53
7.29
7.40
7.87
8.57
9.24
9.66
9.75
9.58
9.24
8.80
8.21
7.42
6.43
5.42
4.68
4.46
4.87
5.73
6.71
7.47
7.82
7.76
7.41
6.88
6.19
5.25
4.00
2.45
0.73
-0.97
-2.53
-3.92
-5.21
-6.46
-7.67
-8.77
-9.67
-10.33
-10.84
-11.41
-12.22
-13.42
-15.00
-16.84
-18.76
-20.57
-22.18
-23.53
-24.60
-25.36
-25.72
-25.61
-24.97
-23.84
-22.34
-20.65
-18.93
-17.33
-15.93
-14.72
-13.66
-12.68
-11.68
-10.57
-9.31
-7.88
-6.32
-4.67
-3.00
-1.32
0.36
2.00
3.53
4.87
5.91
6.61
7.00
7.18
7.25
7.27
7.26
7.15
6.86
6.33
5.57
4.65
3.71
2.88
2.32
2.07
2.15
2.48
2.95
3.47
3.97
4.46
4.90
5.24
5.37
5.16
4.58
3.69
2.68
1.79
1.21
1.01
1.11
1.34
1.58
1.80
2.05
2.39
2.80
3.19
3.45
3.53
3.47
3.43
3.57
3.93
4.47
5.02
5.46
5.73
5.91
6.15
6.63
7.50
8.80
10.45
12.29
14.05
15.52
16.58
17.29
17.83
18.42
19.19
20.08
20.91
21.50
21.74
21.67
21.44
21.14
20.81
20.41
19.91
19.33
18.72
18.04
17.10
15.68
13.60
10.87
7.79
4.80
2.24
0.26
-1.22
-2.35
-3.23
-3.86
-4.15
-4.14
-3.96
-3.84
-3.96
-4.38
-4.99
-5.65
-6.25
-6.77
-7.21
-7.58
-7.86
-8.03
-8.15
-8.31
-8.59
-9.00
-9.48
-9.89
-10.16
-10.31
-10.47
-10.78
-11.31
-12.02
-12.77
-13.36
-13.66
-13.61
-13.23
-12.59
-11.75
-10.71
-9.43
-7.84
-5.96
-3.85
-1.67
0.42
2.29
3.91
5.32
6.55
7.63
8.48
8.93
8.82
8.06
6.64
4.72
2.54
0.37
-1.54
-3.02
-3.98
-4.41
-4.35
-3.85
-2.93
-1.65
-0.07
1.68
3.40
4.83
5.78
6.11
5.86
5.18
4.25
3.27
2.33
1.47
0.67
-0.15
-1.06
-2.11
-3.29
-4.50
-5.54
-6.13
-6.02
-5.04
-3.19
-0.61
2.47
5.74
8.90
11.67
13.86
15.33
16.11
16.31
16.08
15.54
14.74
13.58
11.94
9.72
6.95
3.79
0.54
-2.49
-5.04
-6.97
-8.32
-9.22
-9.83
-10.28
-10.62
-10.82
-10.80
-10.52
-10.00
-9.29
-8.53
-7.82
-7.28
-7.03
-7.14
-7.67
-8.67
-10.11
-11.90
-13.92
-15.94
-17.75
-19.11
-19.84
-19.87
-19.22
-17.99
-16.32
-14.34
-12.13
-9.75
-7.30
-4.92
-2.78
-1.01
0.35
1.40
2.40
3.63
5.34
7.61
10.35
13.35
16.35
19.16
21.66
23.87
25.84
27.64
29.28
30.78
32.09
33.21
34.16
34.97
35.67
36.30
36.90
37.55
38.35
39.37
40.68
42.28
44.11
46.05
48.01
49.85
51.47
52.78
53.67
54.04
53.79
52.81
50.97
48.17
44.33
39.50
33.82
27.56
21.03
14.51
8.23
2.33
-3.16
-8.26
-13.11
-17.88
-22.81
-27.99
-33.37
-38.66
-43.44
-47.36
-50.31
-52.51
-54.44
-56.59
-59.21
-62.30
-65.60
-68.81
-71.74
-74.34
-76.57
-78.21
-78.82
-77.77
-74.56
-69.06
-61.68
-53.22
-44.67
-36.83
-30.13
-24.62
-20.12
-16.39
-13.28
-10.67
-8.48
-6.52
-4.61
-2.55
-0.28
2.12
4.43
6.40
7.77
8.41
8.29
7.52
6.30
4.93
3.69
2.75
2.10
1.59
1.03
0.29
-0.59
-1.45
-2.08
-2.33
-2.11
-1.43
-0.24
1.51
3.92
6.95
10.37
13.71
16.44
18.08
18.48
17.88
16.96
16.60
17.69
20.78
25.87
32.30
38.85
44.02
46.41
45.14
40.11
31.96
21.83
11.00
0.51
-9.04
-17.47
-24.82
-31.15
-36.50
-40.82
-44.15
-46.68
-48.66
-50.36
-51.87
-53.06
-53.57
-53.02
-51.11
-47.81
-43.33
-38.07
-32.58
-27.32
-22.66
-18.78
-15.67
-13.18
-11.13
-9.35
-7.77
-6.41
-5.38
-4.80
-4.69
-5.01
-5.61
-6.29
-6.87
-7.21
-7.25
-6.99
-6.41
-5.53
-4.30
-2.76
-0.99
0.84
2.56
4.01
5.17
6.10
6.89
7.62
8.25
8.69
8.88
8.80
8.54
8.21
7.90
7.63
7.35
7.02
6.62
6.19
5.80
5.53
5.38
5.29
5.10
4.70
4.04
3.24
2.50
2.07
2.14
2.78
3.88
5.28
6.77
8.20
9.48
10.57
11.44
12.06
12.41
12.47
12.24
11.71
10.94
10.00
8.96
7.90
6.83
5.76
4.66
3.59
2.62
1.83
1.26
0.82
0.36
-0.28
-1.20
-2.34
-3.54
-4.56
-5.19
-5.29
-4.85
-3.95
-2.74
-1.36
0.09
1.55
3.01
4.47
5.89
7.20
8.29
9.04
9.40
9.37
9.06
8.60
8.15
7.80
7.60
7.51
7.46
7.38
7.25
7.07
6.89
6.73
6.56
6.31
5.88
5.18
4.23
3.11
1.99
1.04
0.40
0.14
0.24
0.62
1.18
1.87
2.62
3.37
4.05
4.58
4.88
4.95
4.83
4.58
4.30
4.06
3.90
3.85
3.92
4.10
4.34
4.61
4.86
5.05
5.19
5.33
5.48
5.64
5.75
5.74
5.53
5.07
4.40
3.58
2.73
1.98
1.47
1.29
1.47
1.94
2.59
3.26
3.84
4.29
4.64
4.95
5.26
5.51
5.61
5.49
5.16
4.70
4.25
3.86
3.54
3.22
2.82
2.38
1.99
1.76
1.76
1.91
2.03
1.93
1.48
0.69
-0.32
-1.34
-2.20
-2.82
-3.21
-3.42
-3.51
-3.45
-3.19
-2.68
-1.89
-0.88
0.25
1.33
2.25
2.92
3.31
3.42
3.29
2.96
2.51
2.04
1.64
1.39
1.35
1.48
1.73
1.98
2.12
2.06
1.80
1.36
0.83
0.28
-0.27
-0.80
-1.32
-1.82
-2.26
-2.59
-2.79
-2.87
-2.81
-2.60
-2.16
-1.47
-0.52
0.66
1.94
3.22
4.42
5.52
6.51
7.36
7.99
8.32
8.34
8.11
7.77
7.49
7.34
7.29
7.25
7.12
6.84
6.48
6.10
5.77
5.50
5.24
4.93
4.48
3.82
2.93
1.82
0.61
-0.53
-1.39
-1.83
-1.80
-1.40
-0.80
-0.17
0.42
0.98
1.55
2.16
2.79
3.39
3.90
4.28
4.51
4.57
4.43
4.09
3.60
3.00
2.36
1.72
1.08
0.46
-0.16
-0.74
-1.25
-1.65
-1.97
-2.26
-2.56
-2.92
-3.32
-3.78
-4.31
-4.98
-5.83
-6.83
-7.83
-8.64
-9.07
-9.02
-8.54
-7.79
-6.96
-6.19
-5.49
-4.80
-4.04
-3.22
-2.42
-1.79
-1.47
-1.47
-1.74
-2.15
-2.56
-2.89
-3.14
-3.33
-3.47
-3.51
-3.39
-3.08
-2.62
-2.13
-1.78
-1.70
-1.91
-2.35
-2.93
-3.55
-4.18
-4.82
-5.45
-5.99
-6.32
-6.32
-5.98
-5.39
-4.72
-4.15
-3.74
-3.39
-2.93
-2.18
-1.09
0.24
1.58
2.68
3.40
3.77
3.96
4.19
4.60
5.24
6.06
7.01
8.03
9.13
10.29
11.47
12.53
13.32
13.67
13.56
13.04
12.26
11.38
10.49
9.58
8.54
7.24
5.62
3.74
1.80
0.05
-1.31
-2.15
-2.46
-2.35
-1.93
-1.34
-0.65
0.03
0.60
0.95
0.97
0.63
-0.11
-1.21
-2.57
-4.03
-5.38
-6.40
-6.99
-7.20
-7.27
-7.51
-8.12
-9.11
-10.27
-11.31
-11.99
-12.24
-12.14
-11.84
-11.48
-11.12
-10.85
-10.72
-10.77
-10.96
-11.13
-10.98
-10.24
-8.69
-6.31
-3.20
0.43
4.36
8.44
12.54
16.59
20.51
24.25
27.70
30.69
32.93
34.13
34.06
32.67
30.16
26.92
23.41
20.06
17.13
14.75
12.95
11.73
11.04
10.78
10.74
10.60
10.06
8.90
7.09
4.79
2.30
-0.14
-2.41
-4.58
-6.84
-9.37
-12.13
-14.79
-16.76
-17.41
-16.35
-13.60
-9.69
-5.50
-1.99
0.13
0.61
-0.33
-2.16
-4.31
-6.38
-8.22
-9.89
-11.50
-13.02
-14.29
-15.06
-15.16
-14.65
-13.78
-12.91
-12.32
-12.09
-12.09
-12.11
-12.00
-11.79
-11.58
-11.49
-11.51
-11.43
-11.03
-10.11
-8.73
-7.12
-5.68
-4.73
-4.37
-4.52
-4.87
-5.13
-5.10
-4.77
-4.28
-3.80
-3.46
-3.25
-3.13
-3.00
-2.83
-2.63
-2.47
-2.39
-2.43
-2.56
-2.73
-2.84
-2.81
-2.57
-2.12
-1.50
-0.84
-0.27
0.15
0.40
0.58
0.79
1.06
1.30
1.35
1.07
0.43
-0.43
-1.26
-1.83
-2.04
-1.95
-1.75
-1.64
-1.68
-1.80
-1.80
-1.49
-0.80
0.17
1.23
2.17
2.89
3.40
3.80
4.17
4.54
4.81
4.85
4.58
4.04
3.40
2.80
2.38
2.12
1.96
1.83
1.70
1.59
1.54
1.52
1.42
1.12
0.54
-0.27
-1.17
-2.01
-2.70
-3.24
-3.75
-4.33
-5.00
-5.71
-6.31
-6.65
-6.67
-6.37
-5.83
-5.13
-4.35
-3.50
-2.63
-1.78
-1.02
-0.42
-0.02
0.21
0.36
0.54
0.83
1.29
1.90
2.63
3.41
4.16
4.83
5.38
5.78
5.99
5.96
5.64
4.99
4.03
2.86
1.60
0.39
-0.72
-1.74
-2.75
-3.81
-4.88
-5.83
-6.50
-6.74
-6.56
-6.05
-5.38
-4.72
-4.14
-3.63
-3.11
-2.55
-1.95
-1.38
-0.94
-0.66
-0.56
-0.61
-0.75
-0.94
-1.16
-1.41
-1.70
-2.05
-2.43
-2.82
-3.15
-3.37
-3.41
-3.28
-3.03
-2.75
-2.53
-2.44
-2.53
-2.84
-3.33
-3.92
-4.47
-4.82
-4.77
-4.23
-3.22
-1.88
-0.44
0.85
1.85
2.48
2.77
2.83
2.78
2.76
2.84
3.02
3.23
3.37
3.35
3.16
2.89
2.64
2.49
2.43
2.36
2.19
1.86
1.40
0.89
0.38
-0.12
-0.69
-1.40
-2.29
-3.30
-4.34
-5.32
-6.17
-6.86
-7.37
-7.67
-7.66
-7.26
-6.45
-5.31
-4.01
-2.75
-1.67
-0.79
-0.10
0.48
0.98
1.40
1.74
2.03
2.29
2.51
2.67
2.71
2.63
2.44
2.21
2.02
1.87
1.72
1.52
1.26
0.99
0.78
0.72
0.80
0.98
1.13
1.15
0.90
0.33
-0.58
-1.70
-2.85
-3.72
-4.10
-3.84
-2.96
-1.60
0.04
1.75
3.34
4.65
5.57
6.06
6.16
6.03
5.84
5.74
5.76
5.80
5.73
5.46
5.02
4.52
4.13
3.89
3.77
3.63
3.32
2.82
2.23
1.69
1.37
1.33
1.48
1.59
1.41
0.73
-0.52
-2.22
-4.10
-5.76
-6.87
-7.19
-6.68
-5.51
-3.93
-2.24
-0.68
0.64
1.71
2.55
3.21
3.70
4.02
4.12
4.00
3.70
3.32
2.98
2.82
2.90
3.19
3.56
3.84
3.88
3.63
3.15
2.58
2.07
1.70
1.47
1.29
1.09
0.82
0.49
0.09
-0.35
-0.85
-1.43
-2.06
-2.65
-3.04
-3.05
-2.58
-1.62
-0.33
1.06
2.31
3.26
3.87
4.19
4.31
4.26
4.03
3.58
2.94
2.19
1.49
0.98
0.74
0.77
0.95
1.17
1.29
1.25
1.01
0.59
0.06
-0.49
-0.98
-1.35
-1.61
-1.80
-1.99
-2.21
-2.50
-2.86
-3.35
-4.04
-4.96
-6.04
-7.09
-7.79
-7.88
-7.21
-5.81
-3.93
-1.84
0.19
2.01
3.57
4.82
5.72
6.21
6.28
5.98
5.44
4.83
4.31
3.94
3.74
3.65
3.64
3.71
3.87
4.08
4.28
4.34
4.13
3.60
2.80
1.86
0.93
0.11
-0.60
-1.28
-2.01
-2.83
-3.68
-4.44
-5.00
-5.27
-5.23
-4.88
-4.24
-3.31
-2.13
-0.76
0.71
2.15
3.42
4.43
5.11
5.45
5.52
5.44
5.29
5.14
4.98
4.81
4.64
4.51
4.50
4.64
4.90
5.14
5.20
5.00
4.55
3.97
3.35
2.72
2.03
1.25
0.44
-0.29
-0.78
-1.01
-1.13
-1.38
-1.94
-2.84
-3.88
-4.73
-5.09
-4.84
-4.03
-2.83
-1.44
0.02
1.48
2.88
4.17
5.24
6.01
6.44
6.56
6.46
6.27
6.10
5.97
5.86
5.66
5.31
4.78
4.10
3.37
2.71
2.17
1.77
1.43
1.09
0.67
0.15
-0.46
-1.13
-1.81
-2.47
-3.08
-3.66
-4.26
-4.93
-5.71
-6.59
-7.48
-8.28
-8.82
-8.94
-8.54
-7.58
-6.13
-4.36
-2.47
-0.64
0.97
2.29
3.28
3.90
4.15
4.05
3.69
3.25
2.93
2.87
3.09
3.43
3.69
3.67
3.32
2.72
2.06
1.51
1.17
1.03
1.02
1.05
0.99
0.77
0.30
-0.46
-1.48
-2.69
-3.95
-5.14
-6.10
-6.75
-7.00
-6.83
-6.25
-5.34
-4.20
-2.97
-1.79
-0.75
0.07
0.66
1.03
1.23
1.35
1.44
1.58
1.77
1.98
2.15
2.23
2.19
2.09
1.99
1.99
2.12
2.35
2.59
2.75
2.75
2.61
2.40
2.18
2.00
1.79
1.43
0.81
-0.08
-1.19
-2.38
-3.50
-4.43
-5.09
-5.41
-5.33
-4.86
-4.03
-3.02
-2.03
-1.22
-0.69
-0.40
-0.20
0.05
0.44
0.93
1.41
1.74
1.80
1.59
1.18
0.71
0.30
0.07
0.07
0.27
0.61
0.99
1.31
1.52
1.57
1.44
1.16
0.82
0.50
0.30
0.26
0.31
0.33
0.15
-0.35
-1.19
-2.23
-3.20
-3.85
-4.01
-3.67
-2.96
-2.06
-1.09
-0.10
0.90
1.93
2.90
3.69
4.18
4.34
4.29
4.18
4.14
4.18
4.18
3.95
3.42
2.64
1.76
0.97
0.36
-0.06
-0.40
-0.73
-1.07
-1.40
-1.68
-1.92
-2.18
-2.56
-3.08
-3.68
-4.23
-4.57
-4.63
-4.40
-4.00
-3.58
-3.27
-3.12
-3.09
-3.08
-2.97
-2.66
-2.14
-1.46
-0.72
-0.06
0.47
0.83
1.00
1.01
0.84
0.53
0.14
-0.23
-0.48
-0.53
-0.37
-0.05
0.35
0.77
1.16
1.47
1.63
1.53
1.13
0.47
-0.32
-0.99
-1.36
-1.35
-1.00
-0.46
0.09
0.51
0.70
0.61
0.23
-0.41
-1.21
-2.03
-2.69
-3.05
-3.03
-2.62
-1.86
-0.82
0.43
1.81
3.19
4.42
5.34
5.82
5.87
5.57
5.07
4.51
3.96
3.42
2.87
2.28
1.68
1.10
0.60
0.18
-0.17
-0.50
-0.85
-1.25
-1.72
-2.24
-2.77
-3.26
-3.68
-4.00
-4.29
-4.61
-5.01
-5.49
-5.97
-6.32
-6.41
-6.16
-5.58
-4.71
-3.64
-2.47
-1.29
-0.22
0.64
1.24
1.58
1.74
1.83
1.95
2.13
2.33
2.42
2.27
1.86
1.27
0.70
0.38
0.43
0.87
1.53
2.16
2.55
2.56
2.17
1.49
0.64
-0.27
-1.14
-1.94
-2.67
-3.35
-4.01
-4.67
-5.28
-5.76
-5.97
-5.83
-5.30
-4.41
-3.23
-1.85
-0.38
1.08
2.39
3.46
4.20
4.60
4.67
4.47
4.07
3.52
2.86
2.14
1.40
0.66
-0.07
-0.75
-1.39
-1.92
-2.33
-2.58
-2.69
-2.72
-2.75
-2.91
-3.29
-3.95
-4.82
-5.79
-6.67
-7.29
-7.57
-7.49
-7.12
-6.55
-5.82
-4.92
-3.85
-2.60
-1.23
0.17
1.49
2.62
3.51
4.10
4.40
4.44
4.34
4.20
4.13
4.14
4.17
4.14
3.94
3.57
3.09
2.62
2.30
2.20
2.28
2.39
2.37
2.11
1.55
0.73
-0.29
-1.40
-2.49
-3.45
-4.21
-4.73
-4.99
-4.99
-4.71
-4.11
-3.14
-1.81
-0.22
1.43
2.92
4.04
4.75
5.13
5.31
5.40
5.45
5.45
5.38
5.25
5.11
4.98
4.88
4.76
4.59
4.35
4.07
3.78
3.47
3.11
2.64
2.07
1.46
0.89
0.45
0.10
-0.23
-0.70
-1.37
-2.21
-3.10
-3.82
-4.20
-4.17
-3.73
-3.00
-2.11
-1.19
-0.35
0.31
0.71
0.82
0.67
0.38
0.14
0.09
0.33
0.81
1.42
1.96
2.31
2.35
2.08
1.56
0.91
0.32
-0.07
-0.15
0.06
0.43
0.80
1.03
1.07
0.95
0.75
0.53
0.28
-0.01
-0.36
-0.75
-1.10
-1.34
-1.42
-1.32
-1.05
-0.60
0.04
0.91
2.01
3.27
4.56
5.67
6.40
6.63
6.33
5.62
4.71
3.83
3.13
2.72
2.59
2.64
2.76
2.85
2.83
2.68
2.42
2.07
1.66
1.18
0.65
0.12
-0.36
-0.75
-1.02
-1.26
-1.54
-1.96
-2.55
-3.26
-3.99
-4.62
-5.05
-5.22
-5.08
-4.64
-3.93
-3.00
-1.96
-0.90
0.07
0.88
1.50
1.92
2.10
2.05
1.81
1.41
0.96
0.51
0.08
-0.33
-0.70
-0.99
-1.14
-1.08
-0.83
-0.46
-0.09
0.17
0.26
0.23
0.08
-0.14
-0.46
-0.93
-1.57
-2.39
-3.34
-4.33
-5.25
-5.97
-6.34
-6.24
-5.60
-4.43
-2.89
-1.17
0.48
1.89
2.98
3.74
4.19
4.34
4.24
3.93
3.50
3.07
2.74
2.54
2.43
2.32
2.17
1.97
1.74
1.52
1.29
1.03
0.73
0.42
0.18
0.06
0.03
-0.01
-0.15
-0.47
-0.96
-1.53
-2.14
-2.77
-3.43
-4.14
-4.83
-5.35
-5.57
-5.42
-4.90
-4.10
-3.11
-2.00
-0.80
0.39
1.49
2.36
2.87
3.01
2.84
2.53
2.23
2.06
2.06
2.22
2.48
2.77
3.05
3.30
3.50
3.63
3.67
3.58
3.35
2.95
2.43
1.85
1.30
0.83
0.46
0.13
-0.24
-0.69
-1.26
-1.94
-2.72
-3.61
-4.61
-5.67
-6.63
-7.28
-7.38
-6.82
-5.68
-4.19
-2.63
-1.22
-0.03
1.01
2.01
3.02
3.95
4.63
4.92
4.72
4.11
3.26
2.39
1.66
1.15
0.82
0.56
0.29
-0.06
-0.48
-0.91
-1.29
-1.57
-1.72
-1.77
-1.75
-1.69
-1.64
-1.62
-1.67
-1.81
-2.12
-2.61
-3.31
-4.20
-5.21
-6.23
-7.10
-7.67
-7.82
-7.49
-6.69
-5.49
-4.04
-2.50
-1.02
0.23
1.12
1.60
1.65
1.36
0.91
0.52
0.38
0.61
1.17
1.96
2.78
3.49
4.01
4.34
4.51
4.56
4.48
4.25
3.90
3.50
3.14
2.89
2.76
2.68
2.57
2.32
1.88
1.25
0.47
-0.37
-1.22
-2.04
-2.81
-3.53
-4.16
-4.63
-4.83
-4.65
-4.05
-3.06
-1.84
-0.62
0.42
1.14
1.59
1.89
2.24
2.78
3.53
4.36
5.03
5.32
5.10
4.41
3.41
2.33
1.35
0.54
-0.11
-0.61
-0.95
-1.09
-1.02
-0.83
-0.65
-0.64
-0.90
-1.36
-1.89
-2.31
-2.53
-2.55
-2.52
-2.60
-2.91
-3.44
-4.09
-4.71
-5.13
-5.29
-5.14
-4.72
-4.08
-3.26
-2.28
-1.17
0.05
1.30
2.48
3.49
4.27
4.82
5.20
5.48
5.66
5.74
5.62
5.25
4.62
3.79
2.94
2.23
1.76
1.55
1.50
1.53
1.56
1.58
1.54
1.41
1.12
0.63
-0.07
-0.87
-1.68
-2.41
-3.05
-3.66
-4.25
-4.81
-5.23
-5.38
-5.17
-4.60
-3.74
-2.69
-1.54
-0.37
0.73
1.69
2.44
2.93
3.20
3.32
3.39
3.46
3.57
3.66
3.67
3.58
3.41
3.23
3.15
3.21
3.35
3.45
3.34
2.96
2.34
1.62
0.93
0.32
-0.25
-0.89
-1.67
-2.60
-3.56
-4.46
-5.23
-5.87
-6.40
-6.79
-6.98
-6.88
-6.43
-5.67
-4.69
-3.64
-2.62
-1.69
-0.86
-0.15
0.46
0.96
1.31
1.52
1.57
1.48
1.30
1.06
0.82
0.60
0.41
0.22
0.00
-0.24
-0.48
-0.68
-0.82
-0.92
-1.03
-1.20
-1.50
-1.97
-2.63
-3.49
-4.48
-5.48
-6.34
-6.88
-7.03
-6.74
-6.10
-5.20
-4.12
-2.93
-1.69
-0.47
0.63
1.51
2.09
2.38
2.41
2.26
2.01
1.72
1.41
1.11
0.81
0.55
0.38
0.38
0.62
1.09
1.72
2.35
2.82
3.04
3.02
2.82
2.58
2.40
2.30
2.29
2.34
2.42
2.54
2.68
2.79
2.78
2.54
2.03
1.26
0.33
-0.65
-1.59
-2.44
-3.19
-3.82
-4.28
-4.47
-4.30
-3.75
-2.87
-1.76
-0.51
0.85
2.32
3.89
5.43
6.76
7.63
7.91
7.60
6.86
5.89
4.88
3.92
3.03
2.20
1.48
0.91
0.51
0.26
0.07
-0.12
-0.37
-0.67
-0.98
-1.30
-1.64
-2.03
-2.50
-3.09
-3.80
-4.62
-5.48
-6.27
-6.81
-6.98
-6.67
-5.89
-4.75
-3.39
-1.97
-0.59
0.69
1.83
2.80
3.56
4.08
4.40
4.54
4.58
4.53
4.40
4.13
3.68
3.01
2.16
1.22
0.32
-0.40
-0.89
-1.14
-1.23
-1.24
-1.25
-1.32
-1.49
-1.80
-2.26
-2.88
-3.63
-4.47
-5.32
-6.10
-6.74
-7.16
-7.26
-6.96
-6.21
-5.00
-3.37
-1.46
0.57
2.57
4.39
5.92
7.07
7.74
7.85
7.34
6.22
4.65
2.87
1.18
-0.19
-1.16
-1.74
-2.02
-2.06
-1.86
-1.41
-0.73
0.02
0.61
0.81
0.51
-0.21
-1.14
-2.03
-2.71
-3.15
-3.37
-3.42
-3.31
-2.99
-2.37
-1.43
-0.19
1.24
2.72
4.10
5.25
6.07
6.52
6.59
6.31
5.75
5.01
4.23
3.50
2.90
2.45
2.11
1.85
1.61
1.39
1.14
0.86
0.50
0.05
-0.51
-1.17
-1.85
-2.48
-2.95
-3.20
-3.20
-2.99
-2.64
-2.26
-1.88
-1.49
-1.02
-0.40
0.37
1.23
2.06
2.71
3.11
3.26
3.21
3.01
2.73
2.42
2.12
1.90
1.78
1.80
1.93
2.14
2.42
2.73
3.08
3.42
3.67
3.73
3.50
2.95
2.12
1.13
0.14
-0.71
-1.38
-1.86
-2.28
-2.74
-3.35
-4.12
-4.93
-5.63
-6.05
-6.13
-5.89
-5.40
-4.74
-3.96
-3.04
-2.03
-0.97
0.00
0.76
1.24
1.46
1.50
1.50
1.52
1.54
1.53
1.41
1.17
0.86
0.54
0.27
0.04
-0.17
-0.42
-0.76
-1.19
-1.69
-2.24
-2.81
-3.38
-3.97
-4.60
-5.29
-6.04
-6.79
-7.49
-8.03
-8.31
-8.23
-7.73
-6.80
-5.53
-4.03
-2.46
-0.95
0.37
1.42
2.16
2.58
2.71
2.58
2.29
1.95
1.70
1.66
1.85
2.22
2.63
2.94
3.06
2.98
2.79
2.63
2.63
2.87
3.36
4.01
4.70
5.32
5.76
6.01
6.06
5.94
5.69
5.33
4.95
4.65
4.61
4.97
5.78
6.89
8.07
9.06
9.70
10.03
10.20
10.37
10.54
10.60
10.36
9.72
8.74
7.60
6.54
5.67
5.01
4.46
3.90
3.28
2.57
1.82
1.01
0.10
-0.98
-2.26
-3.75
-5.38
-7.01
-8.55
-9.88
-10.94
-11.72
-12.27
-12.67
-13.03
-13.45
-14.03
-14.76
-15.55
-16.19
-16.44
-16.08
-15.04
-13.40
-11.33
-9.06
-6.79
-4.63
-2.67
-0.90
0.63
1.87
2.78
3.31
3.45
3.26
2.82
2.22
1.51
0.72
-0.13
-1.01
-1.83
-2.46
-2.78
-2.71
-2.30
-1.67
-0.99
-0.42
-0.02
0.21
0.32
0.30
0.11
-0.31
-0.99
-1.85
-2.75
-3.45
-3.76
-3.54
-2.79
-1.60
-0.08
1.66
3.55
5.52
7.49
9.35
10.95
12.17
12.99
13.48
13.84
14.24
14.77
15.47
16.27
16.99
17.45
17.55
17.30
16.89
16.42
16.00
15.72
15.60
15.47
15.06
14.11
12.55
10.61
8.46
6.30
4.36
2.72
1.17
-0.64
-2.94
-5.65
-8.20
-10.20
-11.41
-11.73
-11.29
-10.69
-10.59
-11.56
-13.79
-16.88
-20.71
-25.14
-29.95
-33.14
-32.86
-28.38
-20.78
-13.77
-7.98
-3.21
0.75
4.65
8.57
12.20
15.20
17.43
18.99
20.42
21.74
22.78
23.38
23.40
22.61
20.84
17.97
14.14
9.87
5.49
1.26
-2.50
-5.60
-7.98
-9.68
-10.76
-11.28
-11.18
-10.66
-10.01
-9.45
-9.09
-8.99
-9.16
-9.68
-10.64
-12.06
-13.98
-16.33
-18.88
-21.37
-23.61
-25.55
-27.26
-28.85
-30.33
-31.60
-32.42
-32.49
-31.61
-29.78
-27.14
-23.96
-20.46
-16.76
-12.86
-8.76
-4.57
-0.58
2.74
4.93
5.71
5.09
3.50
1.60
0.08
-0.48
0.20
2.10
4.96
8.45
12.21
15.86
19.00
21.22
22.15
21.59
19.63
16.70
13.44
10.49
8.28
6.89
6.07
5.39
4.40
2.80
0.51
-2.37
-5.61
-8.87
-11.80
-14.07
-15.44
-15.88
-15.48
-14.51
-13.21
-11.76
-10.14
-8.22
-5.83
-2.83
0.79
4.89
9.21
13.41
17.18
20.26
22.53
24.08
25.09
25.81
26.37
26.80
26.99
26.79
26.15
25.09
23.70
22.10
20.32
18.38
16.34
14.32
12.52
11.11
10.17
9.62
9.23
8.68
7.69
6.02
3.60
0.47
-3.17
-7.07
-10.92
-14.44
-17.46
-19.84
-21.51
-22.42
-22.53
-21.83
-20.37
-18.25
-15.59
-12.55
-9.24
-5.80
-2.42
0.75
3.53
5.80
7.50
8.61
9.15
9.13
8.66
7.92
7.15
6.59
6.32
6.25
6.06
5.41
4.05
1.98
-0.57
-3.21
-5.61
-7.55
-9.03
-10.19
-11.26
-12.42
-13.79
-15.31
-16.80
-17.91
-18.21
-17.28
-14.88
-11.04
-6.18
-1.01
3.69
7.34
9.76
11.28
12.54
14.17
16.56
19.68
23.17
26.51
29.24
31.09
31.95
31.87
30.97
29.50
27.76
26.08
24.66
23.50
22.36
20.95
19.07
16.77
14.30
11.94
9.79
7.72
5.43
2.72
-0.37
-3.50
-6.26
-8.35
-9.76
-10.65
-11.26
-11.65
-11.68
-11.15
-9.97
-8.29
-6.52
-5.13
-4.50
-4.75
-5.77
-7.23
-8.80
-10.16
-11.12
-11.58
-11.47
-10.77
-9.49
-7.69
-5.55
-3.38
-1.56
-0.41
-0.17
-0.88
-2.48
-4.78
-7.52
-10.37
-12.90
-14.64
-15.18
-14.35
-12.29
-9.50
-6.60
-4.16
-2.41
-1.25
-0.39
0.46
1.40
2.32
3.02
3.39
3.48
3.46
3.50
3.58
3.53
3.09
2.05
0.42
-1.61
-3.71
-5.54
-6.89
-7.68
-8.01
-8.09
-8.19
-8.64
-9.70
-11.50
-13.95
-16.73
-19.34
-21.27
-22.12
-21.79
-20.41
-18.29
-15.77
-13.11
-10.50
-8.07
-5.96
-4.36
-3.42
-3.16
-3.46
-4.04
-4.57
-4.77
-4.53
-3.90
-3.08
-2.28
-1.61
-1.04
-0.42
0.44
1.64
3.13
4.67
5.96
6.77
7.02
6.83
6.38
5.86
5.34
4.86
4.41
4.08
4.03
4.39
5.16
6.21
7.33
8.28
8.97
9.39
9.61
9.65
9.46
8.91
7.88
6.35
4.37
2.09
-0.31
-2.71
-5.05
-7.35
-9.69
-12.16
-14.76
-17.48
-20.22
-22.91
-25.54
-28.14
-30.68
-32.99
-34.74
-35.58
-35.27
-33.84
-31.56
-28.83
-26.00
-23.21
-20.39
-17.39
-14.10
-10.56
-6.97
-3.57
-0.60
1.81
3.63
4.95
5.84
6.39
6.66
6.68
6.50
6.21
5.94
5.80
5.85
6.07
6.37
6.59
6.61
6.36
5.86
5.17
4.36
3.50
2.58
1.63
0.62
-0.41
-1.40
-2.23
-2.78
-2.90
-2.50
-1.57
-0.17
1.53
3.33
5.02
6.47
7.63
8.56
9.38
10.20
11.13
12.22
13.48
14.82
16.08
17.05
17.47
17.15
16.05
14.33
12.29
10.27
8.54
7.18
6.07
4.96
3.66
2.15
0.60
-0.66
-1.29
-1.11
-0.18
1.27
2.93
4.55
6.04
7.42
8.76
10.08
11.35
12.55
13.63
14.64
15.62
16.56
17.39
18.01
18.33
18.33
18.04
17.54
16.88
16.14
15.37
14.68
14.13
13.72
13.39
13.01
12.45
11.63
10.57
9.31
7.89
6.32
4.55
2.57
0.34
-2.05
-4.46
-6.62
-8.21
-8.91
-8.54
-7.16
-5.06
-2.74
-0.72
0.67
1.33
1.46
1.35
1.31
1.51
1.98
2.67
3.47
4.28
5.00
5.53
5.80
5.79
5.57
5.28
5.14
5.35
6.02
7.10
8.48
9.98
11.52
13.12
14.91
17.01
19.44
22.04
24.45
26.23
26.96
26.38
24.41
21.18
17.02
12.40
7.86
3.91
0.89
-1.08
-2.18
-2.74
-3.22
-4.01
-5.39
-7.50
-10.31
-13.59
-16.92
-19.78
-21.63
-22.11
-21.18
-19.14
-16.50
-13.84
-11.57
-9.91
-8.82
-8.12
-7.59
-7.08
-6.56
-6.06
-5.69
-5.51
-5.52
-5.69
-5.93
-6.16
-6.34
-6.44
-6.39
-6.16
-5.70
-5.04
-4.32
-3.73
-3.51
-3.78
-4.53
-5.60
-6.73
-7.65
-8.14
-8.15
-7.74
-7.06
-6.28
-5.51
-4.77
-3.99
-3.08
-1.95
-0.56
1.03
2.73
4.38
5.84
7.01
7.84
8.36
8.63
8.73
8.70
8.57
8.33
7.94
7.40
6.72
5.89
4.93
3.87
2.74
1.59
0.47
-0.62
-1.71
-2.88
-4.17
-5.55
-6.89
-7.99
-8.63
-8.73
-8.32
-7.56
-6.66
-5.83
-5.20
-4.79
-4.54
-4.33
-4.08
-3.77
-3.46
-3.28
-3.36
-3.70
-4.25
-4.85
-5.37
-5.79
-6.24
-6.88
-7.83
-9.09
-10.51
-11.86
-12.98
-13.74
-14.10
-14.06
-13.67
-13.07
-12.58
-12.56
-13.34
-14.97
-17.19
-19.39
-20.89
-21.13
-19.81
-17.00
-12.99
-8.13
-2.86
2.30
6.78
10.06
11.84
12.21
11.57
10.58
9.85
9.76
10.34
11.39
12.61
13.73
14.54
14.69
13.90
12.06
9.25
5.80
2.21
-1.01
-3.50
-5.19
-6.51
-7.96
-9.86
-12.35
-15.35
-18.69
-22.05
-25.09
-27.44
-29.07
-29.82
-29.44
-27.73
-24.72
-20.71
-16.18
-11.63
-5.90
1.01
8.34
15.15
20.92
25.55
29.01
31.17
31.97
31.59
30.06
27.78
25.33
23.22
21.67
20.63
19.93
19.43
19.21
18.91
18.35
17.54
16.58
15.51
14.31
12.91
11.29
9.53
7.32
4.53
1.17
-2.59
-6.59
-10.73
-15.05
-19.73
-23.07
-24.32
-23.48
-21.25
-18.55
-16.11
-14.26
-13.04
-12.29
-11.75
-11.42
-11.29
-11.21
-10.99
-10.40
-9.31
-7.68
-5.53
-3.17
-0.74
1.52
3.38
4.71
5.54
5.92
5.93
5.65
5.17
4.48
3.61
2.66
1.79
1.09
0.50
-0.10
-0.88
-1.80
-2.83
-3.87
-4.81
-5.57
-6.16
-6.66
-7.18
-7.70
-8.13
-8.32
-8.14
-7.50
-6.41
-4.97
-3.34
-1.69
-0.18
1.08
2.04
2.64
2.87
2.72
2.23
1.51
0.70
-0.07
-0.72
-1.27
-1.78
-2.34
-2.93
-3.50
-3.93
-4.15
-4.21
-4.22
-4.34
-4.62
-5.06
-5.49
-5.74
-5.63
-5.05
-3.96
-2.41
-0.55
1.47
3.45
5.24
6.74
7.91
8.79
9.41
9.82
10.06
10.11
9.97
9.67
9.24
8.74
8.19
7.57
6.85
5.99
4.97
3.82
2.58
1.29
-0.02
-1.35
-2.64
-3.78
-4.65
-5.13
-5.12
-4.61
-3.60
-2.13
-0.27
1.86
4.08
6.17
7.98
9.37
10.34
10.91
11.10
10.94
10.44
9.63
8.55
7.29
5.91
4.49
3.07
1.70
0.41
-0.82
-1.99
-3.11
-4.16
-5.09
-5.82
-6.28
-6.51
-6.54
-6.46
-6.26
-5.90
-5.27
-4.32
-3.06
-1.60
-0.11
1.31
2.58
3.65
4.50
5.08
5.34
5.29
4.98
4.50
3.95
3.40
2.89
2.41
1.93
1.45
0.95
0.40
-0.19
-0.85
-1.54
-2.22
-2.86
-3.46
-4.02
-4.53
-4.94
-5.15
-5.03
-4.50
-3.57
-2.32
-0.92
0.48
1.81
3.03
4.19
5.27
6.19
6.82
7.04
6.84
6.34
5.79
5.42
5.37
5.58
5.86
5.99
5.84
5.40
4.78
4.10
3.45
2.80
2.07
1.18
0.13
-0.99
-1.99
-2.70
-2.96
-2.76
-2.17
-1.32
-0.30
0.81
2.01
3.27
4.49
5.54
6.30
6.66
6.65
6.36
5.94
5.53
5.23
5.10
5.11
5.21
5.32
5.32
5.16
4.79
4.25
3.58
2.82
1.98
1.07
0.12
-0.83
-1.66
-2.32
-2.75
-2.93
-2.84
-2.44
-1.70
-0.62
0.69
2.09
3.40
4.49
5.34
5.98
6.44
6.69
6.68
6.35
5.73
4.95
4.13
3.41
2.78
2.18
1.51
0.72
-0.14
-0.96
-1.62
-2.02
-2.19
-2.24
-2.36
-2.71
-3.44
-4.51
-5.80
-7.07
-8.06
-8.56
-8.50
-7.87
-6.81
-5.47
-4.07
-2.80
-1.83
-1.28
-1.15
-1.36
-1.72
-2.05
-2.23
-2.22
-2.13
-2.08
-2.18
-2.49
-2.96
-3.50
-4.04
-4.51
-4.90
-5.18
-5.38
-5.50
-5.57
-5.65
-5.79
-6.04
-6.36
-6.66
-6.81
-6.68
-6.20
-5.38
-4.24
-2.88
-1.37
0.18
1.70
3.08
4.29
5.33
6.20
6.93
7.45
7.70
7.60
7.16
6.49
5.74
5.09
4.60
4.22
3.84
3.35
2.69
1.92
1.16
0.48
-0.12
-0.71
-1.35
-2.06
-2.77
-3.35
-3.66
-3.60
-3.18
-2.44
-1.46
-0.37
0.75
1.80
2.72
3.45
4.01
4.41
4.61
4.58
4.23
3.55
2.60
1.56
0.62
-0.10
-0.58
-0.89
-1.17
-1.49
-1.87
-2.26
-2.63
-2.95
-3.25
-3.56
-3.90
-4.26
-4.67
-5.22
-6.03
-7.16
-8.57
-10.04
-11.24
-11.87
-11.76
-10.98
-9.81
-8.58
-7.61
-7.03
-6.80
-6.74
-6.60
-6.13
-5.15
-3.56
-1.40
1.17
3.99
6.92
9.90
12.91
15.95
18.98
21.88
24.52
26.79
28.60
29.90
30.56
30.42
29.25
26.89
23.32
18.74
13.58
8.36
3.54
-0.56
-3.85
-6.35
-8.16
-9.31
-9.81
-9.63
-8.85
-7.65
-6.34
-5.29
-4.87
-5.30
-6.66
-8.79
-11.30
-13.65
-15.27
-15.76
-15.04
-13.30
-10.95
-8.44
-6.10
-4.12
-2.62
-1.66
-1.31
-1.62
-2.51
-3.77
-5.06
-6.07
-6.61
-6.66
-6.44
-6.19
-6.10
-6.19
-6.28
-6.13
-5.54
-4.46
-3.03
-1.44
0.15
1.71
3.26
4.85
6.41
7.74
8.59
8.75
8.19
7.05
5.55
3.99
2.57
1.43
0.63
0.20
0.15
0.47
1.07
1.79
2.44
2.85
2.97
2.83
2.58
2.34
2.19
2.09
1.94
1.63
1.20
0.75
0.51
0.69
1.41
2.61
4.13
5.71
7.16
8.36
9.26
9.82
10.01
9.76
9.03
7.87
6.40
4.82
3.32
2.02
0.94
0.01
-0.88
-1.82
-2.79
-3.73
-4.51
-5.03
-5.26
-5.25
-5.16
-5.15
-5.37
-5.85
-6.55
-7.38
-8.21
-8.96
-9.57
-10.01
-10.25
-10.18
-9.71
-8.70
-7.10
-4.96
-2.48
0.04
2.28
3.98
5.02
5.43
5.39
5.15
4.94
4.97
5.32
6.01
6.98
8.09
9.14
9.94
10.32
10.17
9.48
8.35
6.97
5.60
4.47
3.70
3.25
2.91
2.41
1.51
0.15
-1.50
-3.16
-4.53
-5.41
-5.79
-5.80
-5.53
-5.07
-4.40
-3.49
-2.37
-1.18
-0.11
0.65
0.99
0.94
0.58
0.03
-0.66
-1.48
-2.44
-3.47
-4.47
-5.30
-5.86
-6.14
-6.24
-6.27
-6.35
-6.55
-6.87
-7.31
-7.84
-8.41
-8.96
-9.40
-9.71
-9.92
-10.12
-10.36
-10.61
-10.71
-10.40
-9.49
-7.88
-5.59
-2.74
0.45
3.77
6.93
9.59
11.48
12.46
12.61
12.25
11.79
11.59
11.79
12.32
12.93
13.36
13.43
13.11
12.46
11.55
10.37
8.84
6.85
4.34
1.38
-1.83
-5.01
-7.86
-10.21
-12.02
-13.33
-14.30
-15.06
-15.71
-16.31
-16.87
-17.33
-17.59
-17.56
-17.19
-16.50
-15.53
-14.34
-12.96
-11.39
-9.60
-7.65
-5.66
-3.82
-2.27
-1.09
-0.23
0.41
0.95
1.42
1.80
2.05
2.17
2.23
2.30
2.47
2.74
3.03
3.22
3.16
2.78
2.08
1.11
-0.04
-1.30
-2.64
-4.09
-5.66
-7.32
-8.95
-10.32
-11.19
-11.38
-10.85
-9.75
-8.31
-6.82
-5.47
-4.39
-3.57
-2.94
-2.39
-1.79
-1.06
-0.22
0.65
1.36
1.75
1.74
1.35
0.75
0.18
-0.17
-0.14
0.30
1.06
2.02
2.99
3.89
4.73
5.73
7.17
9.34
12.37
16.15
20.30
24.38
28.02
31.11
33.83
36.54
39.53
42.92
46.47
49.64
51.76
52.22
50.66
47.03
41.59
34.87
27.51
20.15
13.31
7.23
1.87
-3.12
-8.25
-13.97
-20.48
-27.60
-34.80
-41.37
-46.67
-50.32
-52.35
-53.04
-52.86
-52.20
-51.34
-50.35
-49.20
-47.79
-46.07
-44.02
-41.63
-38.97
-36.07
-32.97
-29.71
-26.29
-22.72
-18.98
-15.10
-11.10
-7.03
-2.96
1.01
4.80
8.26
11.24
13.59
15.23
16.10
16.25
15.77
14.79
13.46
11.87
10.08
8.12
5.97
3.67
1.30
-1.03
-3.21
-5.19
-7.07
-9.00
-11.15
-13.62
-16.31
-18.98
-21.34
-23.10
-24.09
-24.28
-23.77
-22.73
-21.33
-19.67
-17.80
-15.71
-13.38
-10.85
-8.16
-5.33
-2.32
0.97
4.66
8.73
13.00
17.08
20.51
22.94
24.25
24.60
24.31
23.77
23.25
22.92
22.85
23.02
23.41
23.96
24.54
25.01
25.19
25.03
24.55
23.89
23.17
22.47
21.77
20.98
20.07
19.04
18.01
17.10
16.39
15.90
15.57
15.33
15.16
15.09
15.16
15.40
15.73
15.99
15.99
15.55
14.61
13.22
11.57
9.90
8.44
7.38
6.81
6.71
6.97
7.40
7.80
7.99
7.83
7.23
6.18
4.74
3.04
1.23
-0.48
-1.96
-3.14
-4.03
-4.72
-5.28
-5.74
-6.02
-6.02
-5.66
-4.93
-3.92
-2.76
-1.57
-0.40
0.76
1.92
3.07
4.09
4.85
5.24
5.22
4.86
4.31
3.69
3.02
2.27
1.36
0.27
-0.90
-1.99
-2.84
-3.34
-3.54
-3.53
-3.44
-3.36
-3.30
-3.31
-3.42
-3.74
-4.33
-5.19
-6.26
-7.42
-8.62
-9.84
-11.11
-12.38
-13.49
-14.17
-14.15
-13.31
-11.74
-9.75
-7.72
-6.03
-4.88
-4.32
-4.25
-4.48
-4.77
-4.97
-5.00
-4.90
-4.79
-4.83
-5.14
-5.75
-6.60
-7.60
-8.66
-9.76
-10.90
-12.08
-13.25
-14.33
-15.19
-15.70
-15.77
-15.37
-14.48
-13.08
-11.11
-8.46
-5.05
-0.93
3.77
8.77
13.79
18.58
23.01
27.03
30.60
33.61
35.85
37.13
37.35
36.62
35.23
33.48
31.59
29.61
27.49
25.09
22.39
19.45
16.38
13.26
10.10
6.87
3.52
0.11
-3.26
-6.37
-8.99
-10.93
-12.05
-12.35
-11.95
-11.06
-9.93
-8.80
-7.81
-7.04
-6.52
-6.24
-6.20
-6.39
-6.77
-7.31
-7.93
-8.55
-9.05
-9.27
-9.03
-8.23
-6.88
-5.17
-3.46
-2.07
-1.17
-0.74
-0.56
-0.40
-0.13
0.12
0.11
-0.47
-1.73
-3.64
-5.94
-8.32
-10.47
-12.13
-13.15
-13.50
-13.30
-12.76
-12.16
-11.73
-11.55
-11.54
-11.54
-11.39
-11.14
-10.98
-11.18
-11.92
-13.10
-14.40
-15.40
-15.83
-15.72
-15.38
-15.19
-15.39
-15.91
-16.43
-16.51
-15.78
-14.04
-11.33
-7.87
-4.06
-0.50
2.10
3.05
1.88
-1.33
-5.88
-10.59
-14.20
-15.78
-15.08
-12.46
-8.63
-4.30
0.16
4.65
9.21
13.74
17.93
21.30
23.42
24.11
23.49
21.95
19.99
18.11
16.68
15.91
15.81
16.17
16.60
16.71
16.17
14.89
13.00
10.69
8.06
5.05
1.52
-2.60
-7.05
-11.30
-14.72
-16.81
-17.42
-16.71
-14.96
-12.39
-9.04
-4.89
-0.03
5.23
10.34
14.70
17.84
19.57
19.96
19.26
17.82
15.91
13.71
11.30
8.66
5.80
2.85
0.03
-2.34
-4.04
-5.07
-5.64
-6.10
-6.75
-7.66
-8.67
-9.50
-9.92
-9.87
-9.45
-8.82
-8.00
-6.91
-5.35
-3.15
-0.35
2.78
5.82
8.35
10.11
11.08
11.44
11.46
11.34
11.15
10.77
10.08
9.00
7.57
5.91
4.10
2.18
0.10
-2.14
-4.44
-6.62
-8.42
-9.69
-10.46
-11.00
-11.65
-12.64
-14.04
-15.78
-17.73
-19.75
-21.69
-23.45
-24.93
-26.07
-26.69
-26.68
-26.10
-25.12
-23.94
-22.72
-21.44
-19.99
-18.15
-15.53
-11.81
-6.87
-0.84
5.94
12.96
19.64
24.97
27.37
25.92
21.28
15.27
9.66
5.57
3.36
2.80
3.48
5.12
7.60
10.73
14.08
17.07
19.20
19.85
18.98
17.06
14.84
13.20
12.73
13.52
15.21
17.15
18.69
19.38
19.01
17.64
15.56
13.18
10.86
8.83
7.19
5.89
4.85
3.95
3.09
2.24
1.49
0.95
0.71
0.79
1.13
1.54
1.77
1.57
0.82
-0.42
-1.94
-3.40
-4.48
-4.91
-4.57
-3.51
-1.92
-0.03
1.91
3.73
5.32
6.62
7.58
8.17
8.36
8.17
7.72
7.12
6.49
5.85
5.15
4.23
2.92
1.11
-1.17
-3.76
-6.39
-8.72
-10.49
-11.51
-11.81
-11.60
-11.21
-11.01
-11.29
-12.11
-13.35
-14.68
-15.74
-16.18
-15.81
-14.56
-12.54
-9.94
-7.01
-3.98
-1.10
1.38
3.26
4.43
4.88
4.68
3.94
2.78
1.27
-0.55
-2.61
-4.83
-7.11
-9.35
-11.54
-13.72
-15.92
-18.15
-20.25
-21.98
-23.02
-23.15
-22.33
-20.74
-18.75
-16.76
-15.06
-13.69
-12.47
-11.18
-9.64
-7.88
-6.08
-4.41
-2.88
-1.32
0.53
2.83
5.47
8.13
10.41
12.03
12.94
13.32
13.45
13.51
13.60
13.73
13.91
14.18
14.57
15.05
15.45
15.57
15.23
14.42
13.27
11.98
10.72
9.52
8.25
6.73
4.81
2.47
-0.10
-2.57
-4.53
-5.62
-5.69
-4.82
-3.31
-1.60
-0.09
0.96
1.49
1.62
1.49
1.26
1.00
0.76
0.54
0.35
0.18
-0.03
-0.34
-0.82
-1.46
-2.20
-2.98
-3.72
-4.42
-5.11
-5.85
-6.66
-7.56
-8.53
-9.54
-10.57
-11.57
-12.47
-13.13
-13.44
-13.29
-12.67
-11.66
-10.37
-8.91
-7.38
-5.89
-4.50
-3.31
-2.43
-1.91
-1.77
-1.94
-2.30
-2.76
-3.26
-3.79
-4.39
-5.05
-5.75
-6.42
-6.95
-7.24
-7.18
-6.71
-5.88
-4.86
-3.93
-3.38
-3.42
-3.99
-4.86
-5.66
-6.09
-6.05
-5.59
-4.85
-3.94
-2.89
-1.67
-0.28
1.20
2.61
3.79
4.64
5.21
5.64
6.10
6.68
7.42
8.23
9.01
9.63
10.06
10.27
10.25
9.95
9.29
8.22
6.71
4.84
2.77
0.65
-1.40
-3.35
-5.23
-7.09
-8.95
-10.73
-12.27
-13.43
-14.09
-14.31
-14.20
-13.96
-13.70
-13.40
-12.93
-12.07
-10.75
-9.07
-7.31
-5.79
-4.73
-4.08
-3.59
-2.89
-1.79
-0.33
1.16
2.25
2.62
2.22
1.24
0.03
-1.07
-1.91
-2.48
-2.84
-3.11
-3.30
-3.42
-3.49
-3.54
-3.59
-3.63
-3.61
-3.45
-3.13
-2.70
-2.30
-2.08
-2.13
-2.44
-2.86
-3.18
-3.15
-2.62
-1.49
0.21
2.35
4.78
7.35
9.98
12.73
15.70
19.06
22.90
27.24
32.01
37.07
42.18
47.02
51.16
54.14
55.52
55.04
52.75
49.07
44.68
40.39
36.89
34.56
33.42
33.12
33.08
32.72
31.54
29.26
25.78
21.12
15.40
8.81
1.69
-5.48
-12.07
-17.50
-21.39
-23.70
-24.79
-25.20
-25.45
-25.86
-26.43
-26.94
-27.17
-26.99
-26.47
-25.78
-25.05
-24.32
-23.45
-22.25
-20.57
-18.39
-15.80
-12.96
-10.04
-7.14
-4.34
-1.77
0.45
2.14
3.18
3.54
3.30
2.61
1.66
0.61
-0.44
-1.43
-2.33
-3.05
-3.48
-3.43
-2.70
-1.10
1.44
4.83
8.84
13.04
16.97
20.18
22.42
23.63
23.97
23.72
23.13
22.37
21.53
20.65
19.83
19.24
19.07
19.37
20.04
20.83
21.46
21.82
22.01
22.31
23.02
24.33
26.16
28.25
30.27
31.90
32.97
33.30
32.73
31.09
28.31
24.48
19.90
14.92
9.70
4.16
-1.96
-8.81
-16.20
-23.49
-29.80
-34.38
-36.90
-37.62
-37.15
-36.21
-35.33
-34.68
-34.11
-33.28
-31.74
-29.07
-24.97
-19.34
-12.41
-4.67
3.18
10.43
16.48
20.96
23.74
24.89
24.56
23.01
20.53
17.48
14.27
11.31
8.94
7.33
6.45
6.15
6.13
6.12
5.94
5.51
4.94
4.39
4.01
3.81
3.63
3.22
2.32
0.84
-1.15
-3.42
-5.71
-7.81
-9.63
-11.12
-12.23
-12.90
-13.07
-12.80
-12.24
-11.67
-11.32
-11.34
-11.70
-12.31
-13.02
-13.74
-14.48
-15.26
-16.12
-17.08
-18.10
-19.07
-19.85
-20.24
-20.12
-19.39
-18.10
-16.41
-14.56
-12.83
-11.44
-10.53
-10.11
-10.03
-10.12
-10.16
-10.02
-9.63
-9.04
-8.30
-7.45
-6.54
-5.61
-4.75
-4.09
-3.73
-3.68
-3.82
-3.98
-4.02
-3.94
-3.91
-4.15
-4.83
-5.96
-7.34
-8.68
-9.74
-10.42
-10.81
-11.15
-11.64
-12.34
-13.10
-13.62
-13.58
-12.76
-11.18
-9.04
-6.63
-4.21
-1.96
0.04
1.71
2.99
3.80
4.05
3.77
3.03
1.99
0.81
-0.36
-1.44
-2.35
-3.06
-3.60
-4.01
-4.37
-4.70
-5.06
-5.41
-5.73
-5.99
-6.18
-6.32
-6.42
-6.54
-6.75
-7.11
-7.65
-8.31
-8.89
-9.11
-8.66
-7.37
-5.25
-2.51
0.53
3.54
6.31
8.73
10.79
12.52
13.92
14.96
15.60
15.82
15.61
15.02
14.12
13.06
11.97
10.94
10.03
9.20
8.41
7.61
6.76
5.84
4.84
3.74
2.54
1.28
0.01
-1.20
-2.31
-3.37
-4.45
-5.64
-6.92
-8.21
-9.32
-10.10
-10.45
-10.41
-10.05
-9.44
-8.63
-7.59
-6.35
-4.97
-3.60
-2.44
-1.67
-1.35
-1.42
-1.76
-2.19
-2.60
-2.93
-3.23
-3.56
-3.99
-4.58
-5.29
-6.00
-6.51
-6.62
-6.21
-5.30
-4.07
-2.80
-1.76
-1.14
-1.02
-1.36
-2.03
-2.86
-3.67
-4.27
-4.49
-4.21
-3.35
-1.95
-0.12
1.98
4.11
6.06
7.64
8.76
9.39
9.64
9.66
9.62
9.62
9.64
9.58
9.27
8.61
7.58
6.25
4.76
3.25
1.86
0.63
-0.41
-1.25
-1.94
-2.52
-3.08
-3.66
-4.27
-4.81
-5.14
-5.07
-4.51
-3.47
-2.05
-0.45
1.12
2.48
3.55
4.30
4.78
5.07
5.21
5.24
5.16
4.96
4.60
4.03
3.20
2.14
0.92
-0.28
-1.23
-1.77
-1.86
-1.60
-1.20
-0.86
-0.67
-0.64
-0.73
-0.98
-1.50
-2.41
-3.72
-5.27
-6.72
-7.73
-8.10
-7.85
-7.17
-6.31
-5.43
-4.55
-3.59
-2.43
-1.10
0.28
1.54
2.48
3.02
3.13
2.93
2.53
2.05
1.56
1.06
0.51
-0.15
-0.96
-1.88
-2.82
-3.69
-4.40
-4.89
-5.17
-5.29
-5.38
-5.59
-6.04
-6.77
-7.67
-8.50
-8.99
-8.93
-8.28
-7.19
-5.88
-4.49
-3.08
-1.57
0.14
2.04
4.01
5.86
7.39
8.44
8.96
9.00
8.63
7.95
7.08
6.12
5.15
4.27
3.48
2.80
2.19
1.60
1.00
0.36
-0.36
-1.16
-2.04
-2.97
-3.86
-4.59
-5.03
-5.05
-4.58
-3.62
-2.26
-0.61
1.19
3.00
4.71
6.23
7.46
8.34
8.81
8.90
8.67
8.26
7.83
7.48
7.26
7.09
6.87
6.43
5.72
4.78
3.74
2.75
1.92
1.24
0.63
-0.06
-0.98
-2.19
-3.69
-5.37
-7.05
-8.50
-9.47
-9.74
-9.21
-7.89
-5.99
-3.78
-1.60
0.30
1.78
2.85
3.65
4.35
5.06
5.78
6.37
6.62
6.36
5.53
4.24
2.72
1.19
-0.10
-1.06
-1.65
-1.91
-1.97
-1.99
-2.19
-2.75
-3.82
-5.37
-7.26
-9.22
-10.93
-12.11
-12.58
-12.31
-11.41
-10.12
-8.72
-7.42
-6.36
-5.48
-4.66
-3.77
-2.75
-1.63
-0.52
0.42
1.08
1.40
1.39
1.15
0.86
0.71
0.89
1.41
2.16
2.92
3.42
3.48
3.07
2.28
1.27
0.16
-0.96
-2.09
-3.20
-4.21
-5.00
-5.38
-5.21
-4.43
-3.07
-1.29
0.66
2.51
4.03
5.08
5.66
5.88
5.92
5.95
6.06
6.22
6.34
6.27
5.92
5.29
4.47
3.63
2.91
2.40
2.05
1.73
1.27
0.58
-0.32
-1.27
-2.08
-2.55
-2.59
-2.18
-1.34
-0.13
1.39
3.11
4.89
6.56
8.00
9.13
9.95
10.48
10.74
10.72
10.43
9.92
9.30
8.69
8.20
7.84
7.56
7.30
6.97
6.52
5.94
5.22
4.38
3.43
2.43
1.46
0.60
-0.11
-0.72
-1.35
-2.15
-3.21
-4.48
-5.80
-6.95
-7.72
-8.00
-7.81
-7.22
-6.35
-5.27
-4.07
-2.79
-1.53
-0.41
0.47
0.98
1.10
0.86
0.40
-0.10
-0.42
-0.43
-0.12
0.38
0.88
1.18
1.18
0.91
0.51
0.18
0.06
0.18
0.45
0.70
0.77
0.56
0.07
-0.66
-1.54
-2.50
-3.43
-4.21
-4.66
-4.59
-3.87
-2.51
-0.60
1.63
4.00
6.36
8.61
10.66
12.39
13.63
14.23
14.12
13.40
12.28
11.06
9.96
9.05
8.31
7.63
6.93
6.22
5.59
5.16
5.00
5.11
5.34
5.53
5.55
5.31
4.84
4.19
3.47
2.74
2.05
1.36
0.60
-0.34
-1.54
-3.05
-4.80
-6.63
-8.35
-9.72
-10.55
-10.71
-10.15
-8.91
-7.14
-5.04
-2.87
-0.83
0.90
2.28
3.34
4.16
4.82
5.33
5.67
5.78
5.63
5.26
4.72
4.12
3.58
3.16
2.91
2.78
2.67
2.47
2.07
1.45
0.66
-0.21
-1.08
-1.90
-2.67
-3.43
-4.18
-4.90
-5.52
-5.97
-6.27
-6.52
-6.87
-7.43
-8.24
-9.20
-10.12
-10.74
-10.83
-10.26
-9.00
-7.13
-4.83
-2.33
0.15
2.40
4.29
5.76
6.81
7.46
7.75
7.74
7.51
7.20
6.93
6.79
6.78
6.83
6.81
6.61
6.22
5.72
5.23
4.89
4.76
4.79
4.88
4.89
4.72
4.33
3.74
2.97
2.03
0.94
-0.32
-1.71
-3.20
-4.71
-6.16
-7.50
-8.68
-9.64
-10.28
-10.47
-10.07
-9.04
-7.42
-5.37
-3.13
-0.91
1.13
2.88
4.35
5.55
6.50
7.22
7.72
8.00
8.13
8.17
8.19
8.19
8.10
7.80
7.16
6.16
4.91
3.62
2.52
1.74
1.28
0.99
0.70
0.26
-0.36
-1.10
-1.88
-2.60
-3.24
-3.80
-4.33
-4.90
-5.56
-6.34
-7.20
-8.09
-8.93
-9.65
-10.21
-10.56
-10.69
-10.53
-9.99
-9.01
-7.60
-5.85
-3.97
-2.21
-0.74
0.36
1.13
1.69
2.16
2.62
3.09
3.55
3.97
4.32
4.56
4.61
4.41
3.93
3.21
2.37
1.60
1.04
0.72
0.57
0.46
0.22
-0.23
-0.89
-1.68
-2.49
-3.19
-3.75
-4.19
-4.62
-5.14
-5.84
-6.72
-7.66
-8.49
-8.98
-8.99
-8.42
-7.30
-5.72
-3.80
-1.66
0.55
2.69
4.59
6.11
7.15
7.74
7.99
8.08
8.14
8.25
8.44
8.66
8.88
9.06
9.14
9.07
8.77
8.23
7.52
6.79
6.17
5.75
5.51
5.31
4.99
4.47
3.70
2.70
1.53
0.17
-1.39
-3.17
-5.11
-7.12
-9.02
-10.62
-11.75
-12.29
-12.19
-11.45
-10.12
-8.32
-6.22
-4.06
-2.07
-0.40
0.88
1.84
2.55
3.09
3.47
3.66
3.61
3.33
2.87
2.32
1.74
1.11
0.39
-0.47
-1.47
-2.54
-3.58
-4.51
-5.27
-5.88
-6.37
-6.78
-7.11
-7.37
-7.56
-7.77
-8.10
-8.70
-9.73
-11.21
-13.06
-15.09
-16.98
-18.43
-19.15
-18.97
-17.86
-15.95
-13.49
-10.84
-8.33
-6.24
-4.73
-3.81
-3.30
-2.91
-2.34
-1.31
0.27
2.32
4.63
6.91
8.98
10.76
12.26
13.49
14.42
14.95
15.04
14.72
14.15
13.50
12.90
12.32
11.68
10.85
9.84
8.74
7.69
6.77
5.96
5.13
4.18
3.08
1.88
0.72
-0.32
-1.20
-1.97
-2.73
-3.57
-4.49
-5.39
-6.09
-6.40
-6.16
-5.34
-4.01
-2.37
-0.63
1.03
2.48
3.65
4.53
5.08
5.29
5.17
4.84
4.43
4.08
3.88
3.78
3.73
3.64
3.47
3.28
3.09
2.96
2.82
2.66
2.40
2.08
1.74
1.45
1.21
0.95
0.53
-0.17
-1.21
-2.56
-4.10
-5.69
-7.18
-8.41
-9.28
-9.66
-9.50
-8.81
-7.69
-6.29
-4.78
-3.29
-1.90
-0.61
0.57
1.61
2.44
2.99
3.24
3.25
3.09
2.87
2.66
2.48
2.29
2.05
1.72
1.27
0.75
0.19
-0.37
-0.95
-1.60
-2.39
-3.30
-4.26
-5.09
-5.69
-6.02
-6.21
-6.48
-6.99
-7.76
-8.61
-9.22
-9.28
-8.61
-7.23
-5.30
-3.03
-0.65
1.66
3.77
5.55
6.88
7.66
7.88
7.63
7.07
6.39
5.78
5.33
5.07
4.94
4.86
4.75
4.54
4.17
3.60
2.83
1.92
1.02
0.31
-0.05
-0.02
0.25
0.47
0.30
-0.50
-1.91
-3.69
-5.41
-6.67
-7.25
-7.15
-6.51
-5.49
-4.19
-2.61
-0.77
1.23
3.19
4.89
6.17
6.97
7.37
7.50
7.45
7.25
6.89
6.36
5.67
4.86
3.98
3.09
2.27
1.60
1.13
0.85
0.65
0.40
-0.05
-0.78
-1.80
-3.02
-4.32
-5.59
-6.73
-7.71
-8.47
-8.97
-9.16
-8.98
-8.40
-7.42
-6.08
-4.46
-2.70
-0.99
0.51
1.70
2.56
3.16
3.56
3.82
3.94
3.89
3.63
3.16
2.51
1.71
0.80
-0.15
-1.07
-1.84
-2.36
-2.59
-2.60
-2.52
-2.50
-2.63
-2.90
-3.26
-3.71
-4.28
-5.02
-5.94
-6.86
-7.50
-7.57
-6.89
-5.49
-3.60
-1.49
0.58
2.45
4.09
5.50
6.69
7.63
8.33
8.77
8.96
8.95
8.75
8.34
7.72
6.89
5.88
4.77
3.67
2.68
1.87
1.23
0.68
0.10
-0.63
-1.56
-2.61
-3.67
-4.59
-5.32
-5.89
-6.43
-6.99
-7.54
-7.88
-7.77
-7.01
-5.59
-3.64
-1.40
0.86
2.94
4.67
5.97
6.80
7.15
7.12
6.80
6.37
5.93
5.53
5.15
4.73
4.22
3.60
2.89
2.18
1.57
1.16
0.98
0.95
0.92
0.69
0.10
-0.91
-2.29
-3.91
-5.58
-7.15
-8.47
-9.43
-9.98
-10.09
-9.76
-9.03
-7.91
-6.47
-4.78
-2.95
-1.17
0.41
1.65
2.52
3.06
3.37
3.55
3.64
3.62
3.42
3.03
2.47
1.85
1.28
0.88
0.70
0.71
0.80
0.88
0.85
0.65
0.28
-0.26
-0.96
-1.78
-2.69
-3.63
-4.54
-5.32
-5.91
-6.21
-6.14
-5.63
-4.66
-3.22
-1.36
0.82
3.17
5.53
7.69
9.49
10.76
11.42
11.45
10.91
9.94
8.71
7.39
6.14
5.07
4.22
3.60
3.18
2.89
2.71
2.60
2.50
2.34
2.02
1.47
0.63
-0.47
-1.79
-3.21
-4.64
-6.01
-7.26
-8.31
-9.01
-9.24
-8.87
-7.83
-6.18
-4.09
-1.72
0.73
3.11
5.26
7.01
8.25
8.90
9.02
8.73
8.23
7.71
7.26
6.92
6.66
6.40
6.07
5.60
4.97
4.20
3.34
2.50
1.80
1.28
0.95
0.70
0.41
-0.04
-0.69
-1.53
-2.47
-3.47
-4.47
-5.40
-6.19
-6.70
-6.79
-6.33
-5.31
-3.85
-2.13
-0.41
1.17
2.52
3.64
4.55
5.27
5.77
6.05
6.07
5.85
5.42
4.84
4.15
3.44
2.78
2.25
1.91
1.73
1.66
1.59
1.39
1.00
0.41
-0.33
-1.15
-1.97
-2.72
-3.38
-4.00
-4.60
-5.25
-6.01
-6.88
-7.88
-8.94
-9.91
-10.61
-10.79
-10.30
-9.05
-7.18
-4.90
-2.52
-0.31
1.54
2.90
3.69
3.92
3.65
3.06
2.39
1.87
1.68
1.81
2.15
2.49
2.69
2.68
2.50
2.20
1.84
1.47
1.10
0.76
0.50
0.35
0.31
0.34
0.34
0.20
-0.19
-0.92
-2.02
-3.51
-5.34
-7.33
-9.22
-10.69
-11.40
-11.18
-10.03
-8.12
-5.78
-3.28
-0.85
1.41
3.46
5.25
6.71
7.72
8.23
8.31
8.10
7.83
7.65
7.59
7.59
7.54
7.40
7.24
7.15
7.21
7.38
7.52
7.43
6.98
6.15
5.07
3.88
2.71
1.61
0.51
-0.67
-1.97
-3.38
-4.85
-6.34
-7.82
-9.27
-10.63
-11.78
-12.53
-12.68
-12.10
-10.78
-8.80
-6.36
-3.69
-1.02
1.46
3.57
5.18
6.19
6.52
6.15
5.08
3.43
1.37
-0.81
-2.80
-4.36
-5.34
-5.77
-5.75
-5.45
-5.00
-4.47
-3.88
-3.22
-2.56
-1.96
-1.55
-1.46
-1.75
-2.47
-3.56
-4.94
-6.50
-8.13
-9.71
-11.13
-12.28
-13.08
-13.44
-13.32
-12.69
-11.57
-9.99
-7.99
-5.66
-3.07
-0.33
2.43
5.06
7.39
9.26
10.61
11.43
11.84
11.95
11.82
11.41
10.61
9.32
7.57
5.51
3.40
1.48
-0.10
-1.32
-2.30
-3.23
-4.30
-5.62
-7.23
-9.06
-10.97
-12.77
-14.33
-15.56
-16.47
-17.13
-17.56
-17.78
-17.72
-17.37
-16.76
-15.97
-15.10
-14.18
-13.15
-11.87
-10.24
-8.22
-5.89
-3.36
-0.77
1.74
4.06
6.10
7.78
9.05
9.91
10.39
10.53
10.35
9.84
8.95
7.73
6.29
4.89
3.82
3.30
3.39
4.01
4.94
5.90
6.67
7.05
6.90
6.17
4.87
3.14
1.21
-0.64
-2.16
-3.20
-3.72
-3.77
-3.42
-2.77
-1.94
-1.07
-0.32
0.22
0.59
0.91
1.40
2.24
3.54
5.23
7.19
9.19
11.06
12.62
13.79
14.50
14.73
14.51
13.93
13.13
12.29
11.51
10.85
10.30
9.79
9.26
8.71
8.12
7.52
6.90
6.23
5.48
4.67
3.81
2.93
2.07
1.18
0.26
-0.72
-1.74
-2.77
-3.76
-4.67
-5.45
-6.01
-6.27
-6.16
-5.65
-4.69
-3.24
-1.27
1.19
4.04
7.07
10.03
12.70
14.94
16.75
18.20
19.39
20.41
21.36
22.31
23.30
24.35
25.44
26.50
27.48
28.38
29.23
30.05
30.81
31.38
31.66
31.52
30.92
29.83
28.20
25.97
23.09
19.58
15.61
11.47
7.49
3.95
0.97
-1.47
-3.46
-5.12
-6.50
-7.56
-8.27
-8.57
-8.45
-7.97
-7.21
-6.27
-5.20
-4.04
-2.78
-1.37
0.23
1.96
3.66
5.10
6.01
6.14
5.35
3.61
1.06
-2.03
-5.37
-8.65
-11.66
-14.26
-16.48
-18.39
-20.13
-21.78
-23.30
-24.57
-25.37
-25.51
-24.89
-23.57
-21.71
-19.57
-17.38
-15.30
-13.39
-11.66
-10.09
-8.70
-7.58
-6.79
-6.44
-6.54
-7.09
-7.97
-9.08
-10.24
-11.32
-12.17
-12.69
-12.85
-12.64
-12.13
-11.41
-10.62
-9.88
-9.27
-8.82
-8.48
-8.20
-7.95
-7.73
-7.61
-7.60
-7.62
-7.51
-7.00
-5.93
-4.24
-2.06
0.36
2.73
4.80
6.41
7.54
8.24
8.63
8.81
8.81
8.57
8.00
7.02
5.70
4.20
2.72
1.42
0.37
-0.50
-1.27
-2.02
-2.76
-3.48
-4.22
-5.09
-6.21
-7.62
-9.18
-10.65
-11.70
-12.13
-11.93
-11.28
-10.44
-9.60
-8.84
-8.09
-7.24
-6.23
-5.09
-3.90
-2.73
-1.62
-0.58
0.38
1.18
1.69
1.82
1.55
1.02
0.43
-0.04
-0.33
-0.56
-0.92
-1.56
-2.50
-3.58
-4.58
-5.28
-5.58
-5.52
-5.23
-4.88
-4.62
-4.56
-4.76
-5.28
-6.10
-7.21
-8.52
-9.96
-11.39
-12.69
-13.67
-14.16
-13.98
-13.05
-11.41
-9.24
-6.80
-4.36
-2.12
-0.17
1.44
2.71
3.59
3.99
3.90
3.38
2.63
1.92
1.49
1.42
1.66
2.03
2.34
2.49
2.44
2.22
1.84
1.26
0.46
-0.55
-1.70
-2.85
-3.90
-4.80
-5.60
-6.36
-7.14
-7.89
-8.56
-9.02
-9.21
-9.10
-8.69
-8.02
-7.06
-5.85
-4.42
-2.85
-1.26
0.26
1.62
2.82
3.89
4.83
5.63
6.24
6.63
6.80
6.86
6.96
7.28
7.95
9.01
10.42
12.05
13.77
15.37
16.67
17.48
17.72
17.43
16.77
16.00
15.40
15.16
15.35
15.92
16.73
17.57
18.27
18.65
18.60
18.11
17.20
15.97
14.50
12.86
11.08
9.21
7.30
5.46
3.81
2.45
1.45
0.78
0.39
0.18
0.05
-0.09
-0.34
-0.76
-1.38
-2.09
-2.76
-3.19
-3.22
-2.83
-2.09
-1.23
-0.48
-0.10
-0.26
-0.99
-2.18
-3.57
-4.77
-5.48
-5.50
-4.86
-3.76
-2.48
-1.23
-0.09
0.97
2.00
2.96
3.64
3.81
3.28
2.03
0.28
-1.64
-3.38
-4.71
-5.58
-6.09
-6.39
-6.63
-6.88
-7.19
-7.63
-8.23
-9.06
-10.08
-11.21
-12.30
-13.24
-13.97
-14.52
-14.95
-15.27
-15.43
-15.39
-15.13
-14.65
-13.99
-13.14
-12.01
-10.50
-8.55
-6.27
-3.87
-1.61
0.29
1.75
2.79
3.45
3.73
3.61
3.05
2.12
1.03
0.02
-0.71
-1.09
-1.21
-1.26
-1.40
-1.70
-2.11
-2.54
-2.87
-3.11
-3.32
-3.61
-4.08
-4.74
-5.48
-6.13
-6.48
-6.38
-5.77
-4.71
-3.31
-1.72
0.01
1.85
3.81
5.85
7.86
9.64
11.02
11.89
12.27
12.27
11.99
11.55
10.95
10.23
9.41
8.57
7.79
7.13
6.54
5.94
5.27
4.48
3.62
2.77
1.96
1.21
0.47
-0.28
-1.07
-1.89
-2.71
-3.51
-4.22
-4.75
-5.01
-4.89
-4.36
-3.45
-2.28
-1.01
0.30
1.58
2.83
3.96
4.87
5.41
5.50
5.19
4.66
4.13
3.80
3.75
3.94
4.22
4.46
4.58
4.55
4.40
4.11
3.66
3.06
2.30
1.48
0.67
-0.04
-0.67
-1.28
-2.01
-2.97
-4.14
-5.43
-6.61
-7.47
-7.82
-7.61
-6.88
-5.77
-4.42
-2.96
-1.47
-0.01
1.34
2.48
3.27
3.63
3.56
3.17
2.64
2.13
1.70
1.29
0.80
0.16
-0.63
-1.41
-2.04
-2.44
-2.61
-2.64
-2.64
-2.65
-2.68
-2.70
-2.73
-2.85
-3.15
-3.64
-4.30
-5.00
-5.59
-5.90
-5.83
-5.34
-4.43
-3.19
-1.72
-0.13
1.51
3.17
4.84
6.47
7.97
9.19
9.99
10.27
10.05
9.40
8.50
7.50
6.59
5.84
5.26
4.75
4.21
3.53
2.67
1.69
0.69
-0.22
-0.96
-1.54
-2.01
-2.47
-3.02
-3.75
-4.71
-5.84
-7.01
-7.98
-8.50
-8.39
-7.58
-6.18
-4.39
-2.47
-0.61
1.07
2.52
3.73
4.69
5.37
5.74
5.81
5.66
5.37
5.01
4.62
4.22
3.81
3.42
3.07
2.75
2.40
1.95
1.35
0.64
-0.07
-0.69
-1.15
-1.53
-1.98
-2.64
-3.56
-4.72
-5.98
-7.19
-8.22
-8.93
-9.19
-8.87
-7.89
-6.30
-4.23
-1.95
0.25
2.13
3.57
4.58
5.22
5.57
5.64
5.37
4.76
3.87
2.86
1.98
1.38
1.11
1.07
1.05
0.89
0.56
0.11
-0.34
-0.70
-0.97
-1.23
-1.58
-2.05
-2.62
-3.26
-3.90
-4.52
-5.09
-5.56
-5.87
-5.94
-5.71
-5.10
-4.07
-2.61
-0.81
1.19
3.15
4.81
6.01
6.71
6.99
7.00
6.89
6.69
6.41
6.01
5.53
5.04
4.64
4.36
4.15
3.94
3.63
3.21
2.74
2.29
1.92
1.59
1.22
0.68
-0.09
-1.10
-2.30
-3.59
-4.81
-5.81
-6.41
-6.49
-6.00
-4.96
-3.52
-1.82
-0.03
1.72
3.31
4.65
5.64
6.21
6.38
6.22
5.84
5.35
4.83
4.28
3.70
3.09
2.45
1.85
1.34
0.99
0.82
0.84
0.97
1.07
0.97
0.55
-0.22
-1.21
-2.23
-3.09
-3.74
-4.19
-4.49
-4.65
-4.54
-4.01
-2.99
-1.53
0.12
1.68
2.93
3.83
4.48
4.99
5.41
5.65
5.54
5.00
4.10
3.08
2.19
1.62
1.40
1.38
1.40
1.31
1.06
0.66
0.16
-0.37
-0.85
-1.21
-1.37
-1.32
-1.14
-1.03
-1.18
-1.72
-2.65
-3.80
-4.92
-5.76
-6.14
-5.99
-5.32
-4.18
-2.69
-0.97
0.85
2.59
4.07
5.16
5.77
5.95
5.85
5.60
5.35
5.11
4.83
4.48
4.00
3.43
2.83
2.26
1.74
1.24
0.74
0.23
-0.27
-0.75
-1.21
-1.70
-2.26
-2.94
-3.71
-4.56
-5.45
-6.40
-7.37
-8.31
-9.10
-9.59
-9.60
-9.06
-7.98
-6.49
-4.76
-2.97
-1.23
0.43
1.99
3.44
4.70
5.68
6.27
6.46
6.32
5.96
5.53
5.11
4.74
4.37
3.96
3.50
3.03
2.60
2.24
1.97
1.72
1.46
1.17
0.86
0.57
0.32
0.07
-0.27
-0.80
-1.58
-2.55
-3.56
-4.40
-4.85
-4.77
-4.16
-3.09
-1.69
-0.13
1.42
2.85
4.02
4.84
5.27
5.33
5.09
4.63
4.05
3.44
2.87
2.40
2.08
1.94
1.93
1.96
1.91
1.68
1.29
0.80
0.36
0.06
-0.09
-0.18
-0.28
-0.47
-0.72
-0.99
-1.32
-1.81
-2.57
-3.64
-4.92
-6.14
-6.99
-7.21
-6.71
-5.51
-3.77
-1.68
0.54
2.65
4.41
5.64
6.26
6.33
5.97
5.38
4.69
4.03
3.44
2.93
2.49
2.08
1.63
1.11
0.52
-0.08
-0.61
-1.02
-1.31
-1.53
-1.77
-2.06
-2.42
-2.81
-3.20
-3.58
-3.98
-4.45
-5.02
-5.71
-6.47
-7.21
-7.78
-8.04
-7.85
-7.18
-6.09
-4.71
-3.22
-1.80
-0.53
0.54
1.43
2.16
2.75
3.18
3.46
3.59
3.63
3.60
3.57
3.53
3.46
3.33
3.06
2.66
2.16
1.64
1.22
0.95
0.86
0.90
0.99
1.03
0.94
0.65
0.14
-0.57
-1.37
-2.14
-2.76
-3.16
-3.31
-3.26
-3.04
-2.66
-2.09
-1.32
-0.35
0.73
1.82
2.80
3.61
4.25
4.75
5.09
5.22
5.07
4.59
3.82
2.89
2.00
1.31
0.91
0.72
0.65
0.53
0.26
-0.19
-0.80
-1.51
-2.24
-2.87
-3.29
-3.45
-3.37
-3.17
-3.03
-3.16
-3.63
-4.38
-5.23
-5.91
-6.22
-6.01
-5.25
-4.04
-2.51
-0.85
0.76
2.14
3.19
3.84
4.14
4.13
3.93
3.67
3.44
3.31
3.29
3.31
3.29
3.16
2.84
2.31
1.62
0.81
0.01
-0.68
-1.16
-1.41
-1.48
-1.49
-1.59
-1.92
-2.56
-3.48
-4.56
-5.64
-6.55
-7.13
-7.35
-7.21
-6.77
-6.11
-5.25
-4.19
-2.93
-1.54
-0.14
1.13
2.11
2.74
3.00
2.98
2.77
2.46
2.13
1.83
1.62
1.53
1.56
1.69
1.89
2.12
2.35
2.51
2.55
2.38
1.97
1.35
0.64
-0.00
-0.50
-0.87
-1.22
-1.69
-2.31
-3.02
-3.62
-3.94
-3.84
-3.36
-2.60
-1.67
-0.67
0.39
1.53
2.74
3.91
4.90
5.53
5.73
5.52
5.03
4.42
3.82
3.29
2.80
2.33
1.89
1.49
1.20
1.00
0.85
0.66
0.36
-0.06
-0.56
-1.08
-1.56
-2.02
-2.56
-3.22
-4.03
-4.90
-5.64
-6.06
-6.02
-5.48
-4.53
-3.36
-2.12
-0.92
0.20
1.25
2.17
2.88
3.29
3.36
3.13
2.78
2.48
2.32
2.28
2.22
1.99
1.51
0.81
0.04
-0.66
-1.16
-1.42
-1.51
-1.50
-1.51
-1.66
-2.03
-2.64
-3.45
-4.38
-5.30
-6.13
-6.79
-7.28
-7.55
-7.60
-7.37
-6.82
-5.95
-4.85
-3.64
-2.45
-1.34
-0.31
0.68
1.66
2.56
3.26
3.62
3.59
3.24
2.74
2.31
2.09
2.13
2.33
2.51
2.54
2.38
2.09
1.78
1.53
1.36
1.15
0.81
0.25
-0.51
-1.37
-2.19
-2.89
-3.41
-3.77
-3.93
-3.85
-3.43
-2.61
-1.42
0.03
1.51
2.82
3.81
4.48
4.94
5.32
5.69
6.03
6.24
6.20
5.90
5.41
4.85
4.33
3.89
3.51
3.15
2.79
2.47
2.16
1.83
1.40
0.79
-0.01
-0.96
-2.01
-3.10
-4.22
-5.33
-6.37
-7.23
-7.75
-7.82
-7.40
-6.51
-5.28
-3.85
-2.40
-1.08
-0.03
0.69
1.09
1.26
1.31
1.31
1.29
1.24
1.12
0.89
0.57
0.17
-0.27
-0.69
-1.01
-1.20
-1.20
-1.04
-0.78
-0.50
-0.28
-0.16
-0.16
-0.32
-0.64
-1.12
-1.70
-2.29
-2.77
-3.01
-2.92
-2.50
-1.76
-0.78
0.35
1.51
2.54
3.26
3.57
3.43
2.89
2.09
1.13
0.13
-0.87
-1.85
-2.78
-3.64
-4.39
-4.98
-5.44
-5.76
-5.94
-5.96
-5.79
-5.43
-4.94
-4.43
-4.05
-3.87
-3.95
-4.29
-4.83
-5.54
-6.28
-6.88
-7.08
-6.66
-5.48
-3.61
-1.32
1.04
3.17
4.88
6.16
7.11
7.86
8.47
8.91
9.14
9.13
8.93
8.61
8.24
7.87
7.48
7.04
6.52
5.94
5.32
4.70
4.09
3.49
2.87
2.20
1.43
0.50
-0.62
-1.89
-3.23
-4.46
-5.34
-5.69
-5.43
-4.63
-3.48
-2.21
-1.00
0.04
0.92
1.71
2.43
3.11
3.69
4.12
4.35
4.37
4.21
3.94
3.58
3.22
2.88
2.61
2.42
2.27
2.14
1.97
1.75
1.46
1.09
0.63
0.03
-0.73
-1.66
-2.70
-3.74
-4.68
-5.45
-5.99
-6.29
-6.36
-6.16
-5.68
-4.90
-3.85
-2.62
-1.32
-0.10
0.96
1.81
2.46
2.90
3.14
3.13
2.84
2.29
1.57
0.85
0.28
-0.04
-0.12
-0.09
-0.11
-0.28
-0.60
-1.02
-1.46
-1.89
-2.35
-2.89
-3.57
-4.37
-5.21
-5.99
-6.64
-7.09
-7.30
-7.24
-6.85
-6.08
-4.88
-3.28
-1.37
0.69
2.73
4.56
6.03
7.07
7.70
7.98
8.01
7.86
7.59
7.22
6.79
6.36
5.97
5.64
5.34
4.99
4.53
3.94
3.25
2.58
1.99
1.55
1.22
0.91
0.53
-0.04
-0.82
-1.82
-2.94
-4.06
-5.02
-5.61
-5.66
-5.08
-3.87
-2.18
-0.24
1.67
3.34
4.66
5.60
6.21
6.52
6.55
6.29
5.80
5.17
4.52
3.96
3.55
3.27
3.08
2.92
2.74
2.51
2.20
1.81
1.31
0.74
0.13
-0.43
-0.91
-1.29
-1.61
-1.97
-2.48
-3.20
-4.11
-5.07
-5.88
-6.32
-6.24
-5.63
-4.54
-3.13
-1.51
0.21
1.93
3.58
5.02
6.16
6.94
7.34
7.42
7.23
6.82
6.25
5.56
4.84
4.18
3.66
3.31
3.07
2.82
2.44
1.90
1.26
0.64
0.17
-0.13
-0.35
-0.66
-1.23
-2.13
-3.30
-4.58
-5.82
-6.94
-7.90
-8.70
-9.29
-9.56
-9.42
-8.82
-7.79
-6.43
-4.88
-3.23
-1.59
-0.07
1.20
2.09
2.55
2.63
2.48
2.27
2.13
2.09
2.09
2.09
2.08
2.09
2.15
2.29
2.45
2.58
2.62
2.57
2.42
2.23
2.00
1.74
1.46
1.17
0.84
0.44
-0.10
-0.86
-1.81
-2.83
-3.69
-4.15
-4.02
-3.27
-2.01
-0.44
1.22
2.80
4.20
5.34
6.18
6.67
6.83
6.70
6.40
6.04
5.69
5.36
4.99
4.50
3.88
3.17
2.47
1.88
1.45
1.15
0.89
0.57
0.15
-0.39
-1.02
-1.71
-2.47
-3.34
-4.34
-5.44
-6.54
-7.53
-8.28
-8.71
-8.77
-8.47
-7.83
-6.89
-5.73
-4.47
-3.22
-2.07
-1.03
-0.09
0.83
1.70
2.46
2.95
3.07
2.78
2.17
1.45
0.86
0.53
0.50
0.67
0.88
0.95
0.79
0.42
-0.05
-0.49
-0.78
-0.88
-0.86
-0.84
-0.98
-1.42
-2.20
-3.25
-4.45
-5.59
-6.53
-7.12
-7.30
-7.08
-6.49
-5.60
-4.53
-3.39
-2.32
-1.44
-0.82
-0.44
-0.20
0.04
0.38
0.83
1.32
1.76
2.04
2.12
2.03
1.81
1.51
1.18
0.87
0.64
0.53
0.55
0.63
0.70
0.65
0.41
-0.01
-0.59
-1.23
-1.86
-2.39
-2.71
-2.73
-2.40
-1.72
-0.77
0.36
1.57
2.80
4.02
5.21
6.32
7.23
7.86
8.16
8.14
7.93
7.61
7.26
6.86
6.35
5.69
4.88
4.03
3.24
2.59
2.07
1.59
1.09
0.52
-0.09
-0.70
-1.32
-2.01
-2.88
-3.96
-5.17
-6.34
-7.28
-7.85
-8.00
-7.76
-7.18
-6.32
-5.20
-3.85
-2.37
-0.94
0.21
0.86
0.96
0.60
0.04
-0.41
-0.54
-0.31
0.13
0.55
0.77
0.73
0.50
0.18
-0.17
-0.60
-1.17
-1.95
-2.87
-3.78
-4.54
-5.09
-5.49
-5.89
-6.42
-7.15
-7.99
-8.81
-9.42
-9.69
-9.58
-9.07
-8.20
-7.03
-5.64
-4.13
-2.67
-1.41
-0.45
0.14
0.41
0.46
0.43
0.40
0.42
0.47
0.51
0.49
0.40
0.24
0.03
-0.21
-0.44
-0.63
-0.75
-0.79
-0.76
-0.74
-0.77
-0.94
-1.27
-1.75
-2.34
-2.95
-3.45
-3.70
-3.56
-2.96
-1.93
-0.61
0.83
2.18
3.34
4.32
5.16
5.89
6.49
6.88
6.99
6.83
6.48
6.07
5.72
5.45
5.22
4.96
4.62
4.22
3.79
3.38
3.05
2.78
2.53
2.23
1.77
1.07
0.12
-1.01
-2.19
-3.25
-4.02
-4.41
-4.39
-3.99
-3.23
-2.16
-0.86
0.60
2.06
3.35
4.32
4.89
5.06
4.94
4.68
4.42
4.22
4.03
3.77
3.36
2.79
2.16
1.60
1.18
0.88
0.59
0.20
-0.31
-0.86
-1.32
-1.61
-1.79
-2.08
-2.68
-3.67
-4.90
-6.04
-6.72
-6.73
-6.06
-4.88
-3.40
-1.80
-0.16
1.46
2.94
4.10
4.79
4.90
4.51
3.82
3.08
2.50
2.14
1.97
1.86
1.74
1.53
1.23
0.82
0.31
-0.32
-1.07
-1.90
-2.77
-3.64
-4.48
-5.32
-6.19
-7.12
-8.12
-9.11
-9.99
-10.60
-10.81
-10.53
-9.73
-8.48
-6.85
-4.99
-2.99
-0.98
0.95
2.66
4.02
4.92
5.31
5.21
4.77
4.18
3.64
3.28
3.13
3.17
3.33
3.54
3.72
3.84
3.86
3.76
3.54
3.26
2.94
2.59
2.18
1.64
0.92
0.04
-0.90
-1.73
-2.27
-2.40
-2.03
-1.20
0.03
1.56
3.27
5.04
6.75
8.23
9.33
9.92
9.95
9.50
8.76
7.94
7.21
6.64
6.17
5.72
5.21
4.63
4.01
3.43
2.90
2.43
1.97
1.50
1.00
0.46
-0.17
-0.94
-1.90
-3.09
-4.49
-6.00
-7.44
-8.58
-9.18
-9.05
-8.16
-6.59
-4.58
-2.42
-0.38
1.37
2.73
3.70
4.34
4.71
4.85
4.78
4.53
4.16
3.76
3.44
3.22
3.08
2.91
2.62
2.16
1.61
1.14
0.85
0.78
0.78
0.67
0.30
-0.32
-1.05
-1.76
-2.36
-2.92
-3.57
-4.44
-5.49
-6.53
-7.29
-7.55
-7.18
-6.24
-4.86
-3.19
-1.37
0.49
2.29
3.88
5.17
6.06
6.50
6.53
6.20
5.60
4.84
4.09
3.47
3.11
3.00
3.06
3.12
3.02
2.65
2.03
1.26
0.47
-0.22
-0.78
-1.25
-1.70
-2.25
-2.91
-3.66
-4.43
-5.17
-5.89
-6.66
-7.54
-8.51
-9.43
-10.07
-10.20
-9.68
-8.54
-6.91
-4.96
-2.84
-0.68
1.40
3.25
4.72
5.71
6.19
6.27
6.14
5.94
5.79
5.68
5.55
5.35
5.13
4.99
5.06
5.42
6.05
6.82
7.53
7.94
7.90
7.30
6.22
4.83
3.40
2.22
1.50
1.26
1.36
1.53
1.54
1.23
0.65
-0.08
-0.74
-1.16
-1.24
-0.97
-0.39
0.41
1.33
2.28
3.15
3.87
4.34
4.48
4.23
3.58
2.58
1.39
0.19
-0.84
-1.61
-2.13
-2.47
-2.77
-3.10
-3.46
-3.76
-3.92
-3.94
-3.92
-4.03
-4.39
-5.05
-5.92
-6.82
-7.52
-7.91
-8.03
-8.02
-8.12
-8.53
-9.32
-10.34
-11.15
-11.17
-9.89
-7.19
-3.43
0.65
4.19
6.52
7.28
6.36
3.99
0.61
-3.37
-7.45
-10.98
-13.17
-13.52
-12.11
-9.67
-7.18
-5.34
-4.24
-3.34
-1.87
0.61
3.98
7.64
10.87
13.19
14.45
14.74
14.31
13.32
11.97
10.45
9.07
8.12
7.80
8.10
8.70
9.23
9.33
8.87
7.92
6.78
5.76
5.10
4.90
5.11
5.65
6.46
7.40
8.34
9.10
9.47
9.28
8.55
7.40
6.16
5.15
4.59
4.58
5.09
6.01
7.18
8.45
9.59
10.34
10.83
10.87
10.31
9.16
7.63
6.03
4.62
3.43
2.27
0.79
-1.37
-4.24
-7.59
-10.92
-13.71
-15.55
-16.22
-15.65
-13.94
-11.36
-8.34
-5.40
-3.12
-1.93
-1.97
-3.13
-5.01
-7.18
-9.29
-11.12
-12.59
-13.71
-14.52
-15.09
-15.52
-15.93
-16.47
-17.24
-18.30
-19.60
-20.98
-22.24
-23.17
-23.65
-23.65
-23.27
-22.69
-22.08
-21.52
-20.98
-20.29
-19.18
-17.40
-14.80
-11.38
-7.33
-2.92
1.52
5.74
9.58
12.94
15.76
17.96
19.44
20.18
20.23
19.77
19.00
18.09
17.14
16.14
15.07
13.91
12.65
11.31
9.82
8.12
6.13
3.84
1.31
-1.32
-3.92
-6.35
-8.55
-10.44
-11.99
-13.13
-13.79
-13.89
-13.39
-12.27
-10.55
-8.30
-5.56
-2.43
0.97
4.48
7.90
11.00
13.55
15.35
16.32
16.48
15.97
15.02
13.84
12.60
11.36
10.09
8.74
7.23
5.53
3.63
1.55
-0.72
-3.21
-5.96
-9.02
-12.42
-16.08
-19.71
-22.88
-25.04
-25.80
-25.07
-23.18
-20.82
-18.74
-17.49
-17.15
-17.36
-17.42
-16.71
-14.88
-12.11
-8.93
-6.00
-3.81
-2.43
-1.60
-0.83
0.29
1.84
3.68
5.58
7.48
9.49
11.66
13.76
15.21
15.32
13.65
10.38
6.30
2.47
-0.25
-1.56
-1.68
-1.07
0.01
1.58
3.85
6.85
10.26
13.45
15.74
16.83
16.86
16.37
15.95
16.02
16.56
17.29
17.89
18.22
18.42
18.75
19.46
20.54
21.68
22.38
22.07
20.37
17.20
12.75
7.49
1.97
-3.29
-7.86
-11.50
-14.06
-15.52
-15.92
-15.34
-13.97
-12.03
-9.83
-7.70
-5.90
-4.59
-3.81
-3.45
-3.34
-3.30
-3.19
-2.99
-2.76
-2.59
-2.60
-2.85
-3.30
-3.90
-4.55
-5.18
-5.74
-6.20
-6.54
-6.75
-6.88
-6.98
-7.10
-7.20
-7.20
-6.98
-6.46
-5.66
-4.70
-3.70
-2.69
-1.55
-0.01
2.20
5.20
8.74
12.29
15.14
16.72
16.83
15.72
13.97
12.24
10.99
10.35
10.14
10.09
9.99
9.79
9.58
9.47
9.52
9.68
9.81
9.74
9.27
8.22
6.51
4.15
1.33
-1.65
-4.42
-6.63
-8.06
-8.65
-8.45
-7.64
-6.39
-4.88
-3.27
-1.75
-0.49
0.36
0.74
0.76
0.67
0.74
1.14
1.80
2.49
2.92
2.92
2.54
2.00
1.54
1.28
1.16
1.00
0.64
0.04
-0.71
-1.46
-2.08
-2.51
-2.70
-2.62
-2.17
-1.30
0.02
1.73
3.73
5.91
8.16
10.44
12.65
14.69
16.33
17.36
17.60
16.98
15.56
13.49
10.91
7.98
4.89
1.87
-0.80
-2.90
-4.37
-5.43
-6.49
-8.01
-10.28
-13.33
-16.88
-20.50
-23.74
-26.23
-27.66
-27.87
-26.78
-24.48
-21.26
-17.56
-13.86
-10.55
-7.78
-5.47
-3.40
-1.37
0.73
2.79
4.64
6.08
7.02
7.48
7.55
7.34
6.93
6.41
5.86
5.39
5.04
4.77
4.47
3.97
3.13
1.92
0.37
-1.41
-3.24
-4.91
-6.19
-6.88
-6.84
-6.08
-4.74
-3.05
-1.27
0.38
1.77
2.80
3.41
3.61
3.42
2.95
2.26
1.35
0.11
-1.60
-3.85
-6.49
-9.16
-11.38
-12.76
-13.15
-12.70
-11.74
-10.59
-9.43
-8.31
-7.23
-6.25
-5.52
-5.16
-5.16
-5.36
-5.40
-4.94
-3.81
-2.04
0.10
2.24
4.07
5.40
6.24
6.69
6.93
7.05
7.12
7.12
7.00
6.73
6.28
5.64
4.81
3.86
2.87
1.96
1.24
0.72
0.33
-0.10
-0.75
-1.77
-3.24
-5.16
-7.41
-9.82
-12.09
-13.88
-14.89
-14.93
-14.03
-12.45
-10.55
-8.71
-7.18
-6.02
-5.16
-4.47
-3.85
-3.21
-2.54
-1.87
-1.22
-0.61
-0.07
0.35
0.63
0.70
0.54
0.15
-0.42
-1.07
-1.67
-2.17
-2.60
-3.07
-3.74
-4.69
-5.90
-7.22
-8.42
-9.22
-9.43
-8.92
-7.65
-5.69
-3.23
-0.51
2.13
4.39
6.09
7.16
7.71
7.89
7.84
7.59
7.09
6.20
4.82
2.90
0.53
-2.09
-4.71
-7.03
-8.77
-9.68
-9.56
-8.33
-6.04
-2.94
0.52
3.82
6.53
8.40
9.48
9.99
10.20
10.27
10.23
10.03
9.65
9.19
8.84
8.80
9.18
9.96
10.96
11.89
12.44
12.32
11.41
9.72
7.44
4.87
2.28
-0.14
-2.34
-4.36
-6.24
-7.96
-9.48
-10.76
-11.81
-12.73
-13.68
-14.73
-15.90
-17.06
-18.00
-18.45
-18.19
-17.08
-15.12
-12.44
-9.25
-5.79
-2.35
0.84
3.57
5.69
7.18
8.06
8.41
8.37
8.05
7.51
6.81
6.01
5.18
4.35
3.48
2.45
1.22
-0.19
-1.71
-3.20
-4.47
-5.41
-5.95
-6.17
-6.23
-6.07
-5.59
-4.73
-3.57
-2.30
-1.07
0.02
0.93
1.62
2.39
3.48
4.88
6.34
7.56
8.50
9.25
10.09
11.13
12.92
15.80
19.77
24.42
29.21
33.75
37.89
41.70
42.98
40.42
34.30
26.44
18.72
12.02
6.54
2.17
-0.60
-2.23
-2.75
-2.39
-1.65
-1.33
-2.10
-4.12
-7.39
-11.40
-15.63
-19.29
-21.81
-22.82
-22.42
-21.29
-20.24
-19.82
-19.88
-20.20
-19.96
-18.48
-15.59
-11.65
-7.30
-2.98
0.92
4.30
7.18
9.37
10.90
12.04
13.06
13.93
14.54
14.79
14.77
14.63
14.58
14.74
14.96
15.25
15.05
14.10
12.54
10.73
9.04
7.64
6.57
5.74
5.01
4.29
3.68
3.23
3.00
2.86
2.61
2.06
1.15
0.01
-1.13
-1.98
-2.37
-2.30
-1.99
-1.75
-1.83
-2.35
-3.26
-4.36
-5.32
-5.83
-5.59
-4.52
-2.69
-0.34
2.18
4.50
6.25
7.26
7.46
6.97
5.96
4.59
2.92
0.94
-1.45
-4.34
-7.70
-11.39
-15.18
-18.81
-22.11
-24.96
-27.31
-29.09
-30.22
-30.63
-30.34
-29.47
-28.31
-27.14
-26.11
-25.17
-24.05
-22.39
-19.93
-16.63
-12.69
-8.46
-4.29
-0.45
2.99
6.00
8.61
10.76
12.33
13.18
13.23
12.54
11.27
9.70
8.08
6.66
5.57
4.91
4.65
4.72
4.96
5.13
5.00
4.41
3.31
1.77
-0.02
-1.83
-3.49
-4.85
-5.82
-6.34
-6.35
-5.80
-4.72
-3.17
-1.30
0.72
2.69
4.46
5.89
6.91
7.48
7.62
7.36
6.80
6.04
5.22
4.47
3.88
3.47
3.22
3.06
2.85
2.43
1.68
0.56
-0.84
-2.29
-3.54
-4.40
-4.88
-5.15
-5.48
-6.03
-6.81
-7.61
-8.15
-8.22
-7.77
-6.88
-5.68
-4.25
-2.60
-0.70
1.42
3.59
5.54
6.94
7.57
7.38
6.55
5.37
4.18
3.20
2.53
2.11
1.87
1.76
1.77
1.92
2.19
2.49
2.67
2.64
2.37
1.94
1.45
0.98
0.50
-0.11
-0.95
-2.02
-3.13
-3.92
-4.06
-3.29
-1.63
0.72
3.42
6.16
8.74
11.04
12.97
14.38
15.14
15.19
14.63
13.72
12.78
12.05
11.59
11.28
10.92
10.38
9.65
8.83
8.05
7.36
6.75
6.13
5.47
4.82
4.29
3.96
3.80
3.66
3.33
2.62
1.47
-0.03
-1.76
-3.56
-5.32
-6.94
-8.30
-9.26
-9.64
-9.37
-8.44
-7.05
-5.42
-3.82
-2.45
-1.40
-0.70
-0.35
-0.30
-0.50
-0.88
-1.30
-1.63
-1.75
-1.64
-1.31
-0.85
-0.34
0.14
0.59
1.00
1.39
1.74
2.01
2.12
1.97
1.49
0.69
-0.40
-1.65
-2.92
-4.09
-5.10
-5.97
-6.72
-7.39
-7.99
-8.42
-8.56
-8.26
-7.42
-6.02
-4.12
-1.82
0.71
3.33
5.89
8.28
10.39
12.12
13.40
14.20
14.53
14.46
14.12
13.64
13.14
12.67
12.27
11.94
11.67
11.46
11.24
10.90
10.31
9.35
8.08
6.66
5.35
4.39
3.81
3.50
3.20
2.67
1.83
0.71
-0.56
-1.84
-3.07
-4.20
-5.14
-5.75
-5.88
-5.43
-4.41
-2.98
-1.36
0.20
1.56
2.69
3.62
4.41
5.04
5.45
5.53
5.17
4.36
3.21
1.91
0.66
-0.37
-1.11
-1.54
-1.70
-1.63
-1.38
-1.07
-0.81
-0.73
-0.89
-1.24
-1.67
-2.05
-2.31
-2.49
-2.73
-3.16
-3.81
-4.61
-5.38
-5.98
-6.33
-6.46
-6.45
-6.39
-6.26
-5.97
-5.45
-4.65
-3.63
-2.51
-1.38
-0.32
0.68
1.60
2.36
2.86
2.96
2.61
1.86
0.86
-0.24
-1.30
-2.30
-3.27
-4.28
-5.34
-6.39
-7.34
-8.10
-8.65
-9.05
-9.37
-9.67
-9.98
-10.25
-10.49
-10.71
-10.99
-11.40
-11.91
-12.43
-12.76
-12.72
-12.18
-11.14
-9.68
-7.92
-5.97
-3.94
-1.88
0.09
1.85
3.28
4.27
4.77
4.83
4.56
4.11
3.66
3.34
3.23
3.30
3.45
3.57
3.57
3.44
3.26
3.11
3.08
3.18
3.34
3.45
3.39
3.05
2.39
1.44
0.25
-1.08
-2.43
-3.72
-4.86
-5.79
-6.48
-6.90
-7.07
-7.01
-6.79
-6.46
-6.07
-5.61
-5.06
-4.43
-3.74
-3.06
-2.45
-1.98
-1.64
-1.42
-1.36
-1.49
-1.88
-2.55
-3.43
-4.33
-5.05
-5.44
-5.50
-5.36
-5.23
-5.26
-5.51
-5.94
-6.49
-7.06
-7.60
-8.04
-8.32
-8.37
-8.14
-7.68
-7.07
-6.37
-5.58
-4.61
-3.30
-1.53
0.68
3.19
5.77
8.19
10.28
11.97
13.24
14.12
14.62
14.77
14.59
14.12
13.45
12.69
11.91
11.15
10.39
9.59
8.69
7.69
6.63
5.60
4.70
3.93
3.21
2.36
1.23
-0.24
-1.96
-3.75
-5.38
-6.64
-7.47
-7.83
-7.76
-7.28
-6.41
-5.21
-3.84
-2.47
-1.28
-0.39
0.21
0.58
0.80
0.94
1.06
1.21
1.43
1.75
2.10
2.37
2.43
2.23
1.80
1.25
0.72
0.26
-0.14
-0.54
-1.03
-1.66
-2.49
-3.55
-4.84
-6.33
-7.86
-9.27
-10.40
-11.09
-11.31
-11.05
-10.36
-9.29
-7.90
-6.23
-4.35
-2.33
-0.28
1.67
3.37
4.69
5.57
6.06
6.32
6.53
6.77
7.01
7.14
6.97
6.45
5.63
4.63
3.59
2.59
1.63
0.67
-0.28
-1.15
-1.88
-2.46
-2.96
-3.50
-4.19
-4.99
-5.76
-6.32
-6.50
-6.25
-5.56
-4.49
-3.10
-1.46
0.33
2.13
3.84
5.35
6.61
7.60
8.25
8.56
8.50
8.12
7.56
6.95
6.38
5.88
5.42
4.95
4.46
3.94
3.43
2.95
2.49
2.06
1.60
1.05
0.31
-0.67
-1.93
-3.42
-5.00
-6.50
-7.74
-8.61
-9.05
-9.01
-8.45
-7.32
-5.66
-3.64
-1.51
0.43
1.96
3.04
3.79
4.44
5.15
5.97
6.84
7.58
8.06
8.22
8.06
7.61
6.84
5.66
4.01
1.92
-0.46
-2.82
-4.88
-6.43
-7.41
-7.92
-8.17
-8.36
-8.61
-8.97
-9.36
-9.63
-9.65
-9.29
-8.49
-7.22
-5.54
-3.56
-1.42
0.72
2.69
4.36
5.66
6.56
7.08
7.23
7.00
6.43
5.54
4.50
3.49
2.73
2.37
2.43
2.78
3.22
3.56
3.63
3.37
2.77
1.87
0.76
-0.48
-1.75
-2.96
-4.03
-4.90
-5.55
-5.99
-6.28
-6.48
-6.62
-6.71
-6.67
-6.36
-5.68
-4.56
-3.10
-1.50
0.04
1.31
2.22
2.79
3.12
3.28
3.40
3.57
3.88
4.39
5.12
6.00
6.91
7.72
8.33
8.76
9.09
9.39
9.68
9.89
9.91
9.62
9.03
8.24
7.39
6.64
6.02
5.53
5.13
4.83
4.64
4.61
4.73
4.92
5.05
5.05
4.90
4.72
4.64
4.80
5.21
5.70
6.04
5.98
5.36
4.22
2.77
1.32
0.14
-0.59
-0.92
-1.02
-1.17
-1.56
-2.28
-3.25
-4.33
-5.39
-6.40
-7.41
-8.49
-9.64
-10.74
-11.58
-11.99
-11.91
-11.47
-10.91
-10.41
-10.04
-9.69
-9.16
-8.27
-6.99
-5.43
-3.77
-2.22
-0.88
0.22
1.10
1.83
2.44
2.94
3.37
3.74
4.06
4.29
4.40
4.36
4.18
3.95
3.73
3.56
3.41
3.21
2.89
2.44
1.93
1.43
0.99
0.57
0.06
-0.69
-1.74
-3.06
-4.50
-5.85
-6.93
-7.60
-7.80
-7.54
-6.85
-5.79
-4.45
-2.92
-1.34
0.15
1.46
2.49
3.24
3.70
3.90
3.90
3.78
3.59
3.42
3.31
3.25
3.23
3.20
3.13
2.98
2.75
2.43
2.00
1.41
0.62
-0.38
-1.55
-2.81
-4.04
-5.15
-6.09
-6.89
-7.63
-8.37
-9.14
-9.87
-10.44
-10.69
-10.49
-9.81
-8.74
-7.45
-6.16
-5.00
-4.02
-3.17
-2.40
-1.67
-1.05
-0.62
-0.50
-0.67
-1.08
-1.55
-1.93
-2.09
-2.00
-1.71
-1.32
-0.96
-0.75
-0.75
-1.03
-1.60
-2.42
-3.37
-4.22
-4.68
-4.49
-3.52
-1.86
0.23
2.33
4.09
5.28
5.90
6.11
6.20
6.46
7.09
8.19
9.68
11.42
13.21
14.86
16.23
17.24
17.84
18.00
17.72
16.96
15.71
14.00
11.89
9.54
7.13
4.82
2.73
0.89
-0.71
-2.11
-3.31
-4.34
-5.26
-6.18
-7.23
-8.47
-9.87
-11.26
-12.42
-13.20
-13.59
-13.73
-13.89
-14.26
-14.90
-15.70
-16.37
-16.59
-16.11
-14.87
-13.01
-10.78
-8.46
-6.24
-4.19
-2.31
-0.59
0.90
2.01
2.57
2.46
1.67
0.27
-1.60
-3.82
-6.29
-8.87
-11.37
-13.53
-15.08
-15.81
-15.69
-14.89
-13.75
-12.65
-11.88
-11.56
-11.62
-11.88
-12.13
-12.24
-12.20
-12.07
-11.93
-11.82
-11.72
-11.58
-11.34
-11.00
-10.56
-9.97
-9.09
-7.79
-5.94
-3.56
-0.86
1.86
4.27
6.21
7.65
8.73
9.60
10.34
10.95
11.38
11.62
11.73
11.84
12.07
12.49
13.09
13.76
14.41
14.92
15.22
15.27
15.05
14.56
13.83
12.92
11.93
10.94
10.04
9.24
8.54
7.84
7.03
5.99
4.63
3.00
1.26
-0.34
-1.54
-2.16
-2.15
-1.58
-0.61
0.60
1.96
3.36
4.69
5.77
6.40
6.43
5.85
4.81
3.57
2.44
1.58
1.06
0.77
0.56
0.26
-0.23
-0.92
-1.76
-2.66
-3.51
-4.24
-4.80
-5.20
-5.45
-5.62
-5.80
-6.09
-6.58
-7.30
-8.22
-9.26
-10.31
-11.27
-12.06
-12.57
-12.68
-12.28
-11.29
-9.75
-7.81
-5.70
-3.65
-1.81
-0.25
1.09
2.27
3.37
4.43
5.43
6.30
6.96
7.35
7.49
7.51
7.53
7.69
7.97
8.24
8.32
8.05
7.42
6.54
5.59
4.69
3.89
3.13
2.35
1.53
0.67
-0.17
-0.99
-1.79
-2.54
-3.19
-3.59
-3.54
-2.89
-1.62
0.15
2.19
4.24
6.12
7.77
9.20
10.49
11.69
12.81
13.83
14.73
15.51
16.17
16.71
17.09
17.23
17.07
16.60
15.84
14.86
13.77
12.63
11.52
10.54
9.75
9.22
8.95
8.91
9.01
9.17
9.31
9.38
9.35
9.21
8.93
8.55
8.08
7.57
7.07
6.63
6.30
6.10
6.09
6.28
6.66
7.12
7.54
7.76
7.65
7.18
6.38
5.37
4.28
3.28
2.50
2.04
1.95
2.20
2.66
3.11
3.34
3.19
2.64
1.77
0.79
-0.12
-0.78
-1.12
-1.11
-0.82
-0.34
0.20
0.69
1.07
1.39
1.75
2.29
3.11
4.20
5.48
6.79
7.98
8.97
9.72
10.24
10.58
10.72
10.62
10.15
9.11
7.32
4.70
1.31
-2.63
-6.78
-10.84
-14.57
-17.86
-20.68
-23.03
-24.89
-26.22
-27.02
-27.31
-27.19
-26.77
-26.20
-25.60
-25.09
-24.71
-24.42
-24.11
-23.58
-22.66
-21.14
-18.90
-15.88
-12.03
-7.39
-2.11
3.56
9.24
14.52
19.06
22.58
24.96
26.15
26.18
25.25
23.65
21.83
20.24
19.22
18.84
18.97
19.27
19.45
19.29
18.70
17.65
16.10
13.97
11.20
7.85
4.11
0.33
-3.15
-6.12
-8.57
-10.73
-12.88
-15.23
-17.75
-20.19
-22.14
-23.26
-23.36
-22.52
-21.01
-19.15
-17.22
-15.45
-13.97
-12.92
-12.41
-12.53
-13.19
-14.16
-15.14
-15.79
-15.95
-15.66
-15.14
-14.65
-14.36
-14.27
-14.23
-14.04
-13.55
-12.75
-11.73
-10.67
-9.70
-8.93
-8.37
-8.00
-7.73
-7.47
-7.05
-6.33
-5.17
-3.52
-1.46
0.81
3.03
4.98
6.54
7.69
8.51
9.10
9.51
9.73
9.75
9.56
9.25
8.99
8.95
9.27
9.95
10.89
11.91
12.87
13.76
14.63
15.61
16.77
18.04
19.30
20.38
21.18
21.72
22.16
22.68
23.41
24.37
25.45
26.41
26.96
26.86
25.96
24.28
22.03
19.59
17.43
16.00
15.64
16.44
18.21
20.49
22.66
24.13
24.50
23.64
21.71
19.00
15.81
12.33
8.60
4.60
0.33
-4.13
-8.54
-12.64
-16.15
-18.87
-20.77
-22.02
-22.93
-23.89
-25.23
-27.13
-29.48
-31.98
-34.21
-35.76
-36.42
-36.10
-34.92
-33.11
-30.94
-28.70
-26.62
-24.80
-23.23
-21.77
-20.16
-18.18
-15.71
-12.77
-9.59
-6.43
-3.50
-0.91
1.42
3.62
5.86
8.17
10.46
12.50
14.10
15.10
15.35
14.65
12.79
9.64
5.23
-0.10
-5.78
-10.98
-14.94
-17.20
-17.61
-16.28
-13.41
-9.21
-4.01
1.68
7.25
12.01
15.24
16.58
16.14
14.43
12.48
11.38
11.09
11.19
11.54
11.88
12.06
12.00
11.69
11.04
9.87
7.92
5.13
1.57
-2.56
-6.98
-11.35
-15.36
-18.74
-21.37
-23.23
-24.34
-24.74
-24.65
-24.27
-23.85
-23.58
-23.61
-24.01
-24.73
-25.49
-25.87
-25.47
-24.01
-21.45
-18.03
-14.23
-10.60
-7.60
-5.47
-4.15
-3.44
-3.04
-2.66
-2.13
-1.37
-0.46
0.46
1.23
1.72
1.90
1.83
1.63
1.39
1.17
0.96
0.67
0.23
-0.38
-1.09
-1.73
-2.15
-2.23
-1.91
-1.25
-0.36
0.62
1.54
2.34
3.03
3.71
4.50
5.52
6.81
8.32
9.90
11.39
12.67
13.68
14.42
14.92
15.19
15.24
15.06
14.68
14.15
13.57
13.04
12.68
12.62
12.91
13.56
14.46
15.46
16.39
17.16
17.77
18.35
19.05
19.94
21.02
22.19
23.33
24.38
25.35
26.29
27.30
28.40
29.61
30.83
31.85
32.39
32.10
30.71
28.13
24.56
20.36
16.02
11.89
8.09
4.43
0.52
-3.97
-9.23
-15.06
-21.02
-26.46
-30.80
-33.65
-34.94
-34.89
-33.95
-32.57
-31.12
-29.76
-28.48
-27.14
-25.61
-23.83
-21.84
-19.78
-17.75
-15.85
-14.14
-12.70
-11.71
-11.46
-12.22
-14.12
-16.96
-20.27
-23.36
-25.65
-26.82
-26.90
-26.23
-25.19
-24.07
-22.96
-21.82
-20.55
-19.05
-17.30
-15.29
-13.05
-10.57
-7.92
-5.20
-2.55
-0.11
2.01
3.74
5.05
5.92
6.37
6.44
6.24
5.92
5.58
5.26
4.94
4.54
4.05
3.54
3.24
3.38
4.15
5.50
7.21
8.88
10.16
10.87
11.07
11.01
10.95
11.03
11.21
11.34
11.32
11.17
11.03
11.14
11.65
12.60
13.91
15.42
16.99
18.53
19.95
21.15
22.01
22.39
22.17
21.29
19.78
17.75
15.39
12.87
10.34
7.83
5.33
2.78
0.11
-2.64
-5.41
-8.12
-10.68
-13.05
-15.20
-17.12
-18.82
-20.30
-21.58
-22.66
-23.55
-24.16
-24.40
-24.13
-23.27
-21.86
-20.02
-17.95
-15.79
-13.59
-11.23
-8.56
-5.38
-1.65
2.53
6.90
11.11
14.82
17.78
19.85
21.02
21.37
21.05
20.21
18.97
17.43
15.61
13.48
11.08
8.52
6.01
3.84
2.20
1.13
0.47
-0.10
-0.88
-2.03
-3.50
-5.10
-6.62
-7.93
-9.02
-9.95
-10.77
-11.46
-12.01
-12.34
-12.46
-12.41
-12.27
-12.14
-12.06
-12.02
-11.87
-11.39
-10.29
-8.35
-5.51
-1.89
2.23
6.48
10.52
14.06
16.88
18.83
19.80
19.83
19.05
17.78
16.35
15.02
13.89
12.86
11.73
10.30
8.52
6.49
4.45
2.62
1.15
0.02
-0.91
-1.83
-2.88
-4.08
-5.37
-6.63
-7.76
-8.75
-9.63
-10.45
-11.21
-11.90
-12.41
-12.68
-12.65
-12.29
-11.64
-10.71
-9.51
-8.06
-6.34
-4.34
-2.10
0.30
2.69
4.87
6.66
7.96
8.77
9.17
9.26
9.15
8.92
8.65
8.38
8.12
7.84
7.48
6.98
6.34
5.59
4.78
3.92
2.98
1.94
0.80
-0.37
-1.46
-2.39
-3.21
-4.02
-5.00
-6.28
-7.87
-9.69
-11.52
-13.14
-14.31
-14.87
-14.71
-13.88
-12.49
-10.74
-8.82
-6.84
-4.85
-2.82
-0.68
1.59
3.97
6.35
8.62
10.62
12.27
13.52
14.44
15.08
15.50
15.65
15.46
14.84
13.78
12.38
10.82
9.29
7.91
6.75
5.78
4.96
4.26
3.66
3.14
2.67
2.18
1.60
0.92
0.18
-0.48
-0.90
-0.90
-0.37
0.71
2.21
3.96
5.71
7.24
8.39
9.03
9.13
8.72
7.94
7.00
6.12
5.40
4.84
4.30
3.61
2.64
1.35
-0.16
-1.76
-3.35
-4.85
-6.28
-7.66
-8.96
-10.17
-11.21
-12.06
-12.71
-13.22
-13.63
-13.96
-14.22
-14.33
-14.29
-14.05
-13.62
-12.99
-12.12
-10.95
-9.42
-7.55
-5.42
-3.17
-0.96
1.11
2.96
4.57
5.89
6.87
7.48
7.74
7.70
7.46
7.15
6.88
6.75
6.81
7.07
7.45
7.81
8.00
7.86
7.38
6.62
5.82
5.21
5.01
5.31
6.02
6.93
7.80
8.47
8.92
9.27
9.70
10.43
11.54
13.02
14.79
16.68
18.54
20.22
21.63
22.68
23.31
23.54
23.37
22.87
22.13
21.29
20.51
19.95
19.76
19.97
20.42
20.80
20.69
19.70
17.62
14.45
10.45
6.01
1.49
-2.83
-6.85
-10.55
-14.01
-17.26
-20.32
-23.13
-25.59
-27.60
-29.04
-29.80
-29.79
-28.96
-27.37
-25.16
-22.61
-20.03
-17.73
-15.93
-14.73
-14.05
-13.72
-13.49
-13.19
-12.71
-12.08
-11.41
-10.89
-10.74
-11.13
-12.11
-13.59
-15.32
-16.95
-18.17
-18.79
-18.80
-18.36
-17.74
-17.19
-16.82
-16.62
-16.45
-16.15
-15.60
-14.81
-13.83
-12.74
-11.56
-10.25
-8.76
-7.12
-5.43
-3.91
-2.76
-2.04
-1.72
-1.65
-1.68
-1.78
-2.00
-2.43
-3.11
-3.93
-4.71
-5.25
-5.43
-5.26
-4.85
-4.34
-3.83
-3.36
-2.90
-2.47
-2.08
-1.83
-1.73
-1.76
-1.82
-1.73
-1.40
-0.85
-0.20
0.35
0.63
0.55
0.12
-0.57
-1.39
-2.16
-2.72
-2.90
-2.60
-1.77
-0.40
1.43
3.65
6.10
8.57
10.85
12.68
13.92
14.54
14.68
14.59
14.56
14.78
15.35
16.22
17.22
18.20
18.94
19.27
18.97
17.89
15.95
13.21
9.86
6.20
2.50
-1.08
-4.52
-7.90
-11.23
-14.39
-17.17
-19.25
-20.41
-20.53
-19.69
-18.03
-15.72
-12.87
-9.51
-5.69
-1.50
2.85
7.03
10.69
13.49
15.22
15.88
15.62
14.76
13.63
12.56
11.76
11.34
11.27
11.44
11.67
11.77
11.63
11.23
10.64
9.96
9.24
8.46
7.50
6.25
4.64
2.71
0.54
-1.80
-4.28
-6.87
-9.51
-12.03
-14.20
-15.80
-16.70
-16.99
-16.89
-16.61
-16.25
-15.74
-14.95
-13.77
-12.25
-10.55
-8.89
-7.44
-6.27
-5.34
-4.55
-3.82
-3.06
-2.16
-1.05
0.27
1.73
3.14
4.27
4.96
5.12
4.78
4.04
3.04
1.96
0.97
0.25
-0.06
0.08
0.62
1.44
2.35
3.20
3.89
4.39
4.72
4.92
5.05
5.13
5.19
5.25
5.36
5.58
6.04
6.85
8.09
9.76
11.75
13.84
15.73
17.14
17.89
17.94
17.42
16.49
15.33
14.02
12.59
11.08
9.62
8.45
7.77
7.65
7.96
8.43
8.71
8.60
8.03
7.14
6.09
5.04
4.06
3.14
2.24
1.34
0.42
-0.47
-1.28
-1.98
-2.57
-3.09
-3.58
-4.07
-4.51
-4.83
-4.94
-4.76
-4.31
-3.64
-2.86
-2.09
-1.40
-0.81
-0.33
0.12
0.55
0.97
1.32
1.59
1.75
1.88
2.08
2.44
3.00
3.67
4.33
4.83
5.10
5.16
5.06
4.84
4.48
3.94
3.13
2.07
0.82
-0.48
-1.69
-2.73
-3.59
-4.34
-5.04
-5.75
-6.44
-7.02
-7.43
-7.62
-7.64
-7.60
-7.60
-7.69
-7.83
-7.93
-7.86
-7.54
-6.94
-6.08
-4.99
-3.76
-2.47
-1.27
-0.29
0.36
0.64
0.64
0.51
0.45
0.57
0.84
1.11
1.19
0.91
0.21
-0.85
-2.12
-3.43
-4.69
-5.83
-6.86
-7.74
-8.41
-8.83
-8.94
-8.78
-8.45
-8.08
-7.78
-7.66
-7.79
-8.22
-8.92
-9.81
-10.77
-11.65
-12.36
-12.81
-12.99
-12.85
-12.32
-11.35
-9.87
-7.95
-5.79
-3.67
-1.90
-0.64
0.09
0.44
0.61
0.73
0.86
0.92
0.83
0.57
0.22
-0.04
-0.06
0.19
0.62
1.01
1.17
1.04
0.69
0.32
0.12
0.19
0.52
1.00
1.50
1.95
2.34
2.68
2.94
3.07
2.98
2.67
2.20
1.75
1.52
1.63
2.12
2.89
3.85
4.90
5.99
7.09
8.11
8.98
9.60
9.92
9.97
9.80
9.50
9.11
8.62
8.04
7.37
6.61
5.78
4.93
4.09
3.33
2.69
2.19
1.78
1.39
0.93
0.34
-0.35
-1.06
-1.74
-2.36
-2.98
-3.69
-4.52
-5.44
-6.31
-6.99
-7.38
-7.48
-7.38
-7.18
-6.95
-6.70
-6.33
-5.75
-4.92
-3.92
-2.87
-1.96
-1.25
-0.75
-0.36
0.02
0.41
0.75
0.92
0.85
0.56
0.22
0.02
0.07
0.32
0.60
0.70
0.55
0.24
-0.05
-0.15
-0.07
0.06
-0.02
-0.43
-1.16
-1.99
-2.72
-3.22
-3.53
-3.85
-4.31
-4.96
-5.66
-6.18
-6.31
-5.97
-5.19
-4.09
-2.78
-1.34
0.15
1.66
3.12
4.45
5.58
6.47
7.07
7.37
7.34
6.98
6.38
5.66
4.97
4.40
3.92
3.45
2.85
2.02
0.96
-0.23
-1.41
-2.44
-3.19
-3.59
-3.64
-3.40
-3.02
-2.64
-2.43
-2.48
-2.83
-3.46
-4.26
-5.10
-5.82
-6.29
-6.42
-6.17
-5.57
-4.68
-3.55
-2.21
-0.72
0.83
2.28
3.49
4.34
4.83
5.04
5.12
5.20
5.34
5.57
5.84
6.13
6.42
6.70
6.95
7.10
7.10
6.88
6.46
5.88
5.21
4.51
3.77
2.98
2.10
1.16
0.24
-0.58
-1.22
-1.68
-2.00
-2.19
-2.20
-1.93
-1.29
-0.25
1.13
2.65
4.10
5.28
6.10
6.52
6.55
6.25
5.68
4.94
4.16
3.44
2.84
2.35
1.89
1.41
0.86
0.27
-0.30
-0.79
-1.19
-1.52
-1.80
-2.00
-2.05
-1.85
-1.35
-0.62
0.16
0.74
0.86
0.36
-0.80
-2.49
-4.47
-6.43
-8.06
-9.10
-9.40
-8.95
-7.90
-6.53
-5.18
-4.11
-3.45
-3.11
-2.86
-2.46
-1.80
-0.94
-0.13
0.41
0.55
0.36
0.03
-0.24
-0.38
-0.47
-0.68
-1.14
-1.85
-2.69
-3.48
-4.09
-4.49
-4.75
-4.95
-5.18
-5.49
-5.90
-6.47
-7.24
-8.21
-9.28
-10.24
-10.89
-11.06
-10.72
-9.97
-8.94
-7.77
-6.49
-5.06
-3.48
-1.81
-0.22
1.07
1.94
2.38
2.55
2.63
2.76
2.99
3.26
3.50
3.68
3.81
3.93
4.00
3.92
3.48
2.58
1.22
-0.38
-1.87
-2.91
-3.31
-3.08
-2.39
-1.48
-0.57
0.25
0.97
1.61
2.19
2.75
3.28
3.87
4.60
5.58
6.86
8.43
10.19
11.95
13.50
14.64
15.21
15.21
14.73
13.99
13.28
12.85
12.87
13.32
14.05
14.81
15.35
15.54
15.37
14.99
14.59
14.30
14.09
13.81
13.29
12.45
11.39
10.32
9.44
8.79
8.14
7.11
5.27
2.38
-1.54
-6.15
-10.93
-15.33
-18.90
-21.36
-22.61
-22.70
-21.78
-20.16
-18.23
-16.37
-14.88
-13.89
-13.38
-13.13
-12.84
-12.25
-11.26
-9.88
-8.14
-6.02
-3.45
-0.44
2.93
6.45
9.80
12.62
14.62
15.72
15.98
15.55
14.66
13.62
12.92
13.30
15.20
18.43
22.31
26.01
29.04
31.09
31.88
31.12
28.59
24.13
17.75
9.93
1.40
-7.06
-14.88
-21.59
-26.89
-30.56
-32.57
-33.07
-32.35
-30.74
-28.58
-26.14
-23.60
-21.13
-18.88
-17.00
-15.55
-14.37
-13.14
-11.49
-9.21
-6.34
-3.17
-0.08
2.60
4.78
6.64
8.50
10.65
13.21
16.06
18.90
21.29
22.79
23.10
22.13
20.04
17.19
14.04
10.97
8.24
5.87
3.71
1.53
-0.85
-3.47
-6.20
-8.82
-11.08
-12.78
-13.85
-14.38
-14.56
-14.66
-14.95
-15.58
-16.55
-17.66
-18.56
-18.90
-18.48
-17.31
-15.67
-13.96
-12.59
-11.77
-11.51
-11.64
-11.91
-12.15
-12.33
-12.54
-12.92
-13.60
-14.57
-15.76
-16.99
-18.10
-18.95
-19.48
-19.72
-19.75
-19.62
-19.37
-18.99
-18.46
-17.81
-17.05
-16.25
-15.42
-14.58
-13.73
-12.89
-12.10
-11.36
-10.67
-9.96
-9.16
-8.19
-6.99
-5.54
-3.82
-1.79
0.57
3.24
6.09
8.90
11.44
13.54
15.21
16.57
17.81
19.05
20.32
21.54
22.63
23.58
24.43
25.24
25.97
26.54
26.79
26.70
26.39
26.10
26.10
26.53
27.36
28.42
29.53
30.55
31.50
32.48
33.63
35.11
37.08
39.68
43.02
47.01
51.37
55.58
59.02
61.13
61.52
60.03
56.64
51.43
44.56
36.23
26.74
16.53
6.07
-4.11
-13.47
-21.49
-27.67
-31.66
-33.35
-32.98
-31.09
-28.40
-25.57
-23.04
-20.94
-19.20
-17.61
-16.05
-14.47
-12.93
-11.52
-10.27
-9.14
-7.99
-6.66
-5.08
-3.29
-1.49
0.06
1.07
1.35
0.81
-0.52
-2.50
-4.93
-7.53
-10.01
-12.16
-13.85
-15.10
-16.01
-16.72
-17.36
-18.02
-18.78
-19.65
-20.57
-21.42
-21.97
-22.05
-21.62
-20.90
-20.27
-20.17
-20.86
-22.33
-24.28
-26.26
-27.86
-28.87
-29.26
-29.15
-28.62
-27.72
-26.43
-24.80
-22.92
-20.91
-18.82
-16.55
-13.90
-10.67
-6.86
-2.69
1.45
5.22
8.46
11.25
13.74
16.02
18.02
19.56
20.54
21.04
21.32
21.65
22.12
22.60
22.78
22.36
21.19
19.32
16.90
14.06
10.77
6.85
2.13
-3.42
-9.63
-16.03
-22.08
-27.18
-30.91
-33.13
-33.95
-33.65
-32.54
-30.89
-28.92
-26.91
-25.05
-23.50
-22.42
-21.82
-21.46
-20.79
-19.30
-16.68
-13.09
-9.03
-5.25
-2.71
-2.13
-3.76
-7.19
-11.61
-15.98
-19.30
-20.44
-18.52
-13.29
-5.33
3.95
12.73
19.04
22.82
23.94
23.40
22.99
23.97
26.22
27.87
28.10
26.79
24.60
22.35
20.90
20.93
22.26
24.05
25.27
25.25
23.65
20.59
16.49
12.10
8.21
5.31
3.43
2.35
1.99
2.33
3.37
5.00
7.00
9.00
10.29
9.83
6.78
0.98
-7.05
-16.25
-25.49
-33.80
-40.56
-43.99
-42.97
-37.81
-30.34
-22.66
-16.12
-11.26
-8.17
-6.14
-4.65
-3.52
-2.71
-1.95
-0.79
1.22
4.38
8.77
14.31
20.66
27.17
33.08
37.78
40.96
42.62
43.02
42.67
42.28
42.49
43.63
45.70
48.38
51.15
53.36
54.33
53.53
50.75
46.08
39.90
32.80
25.43
18.30
11.67
5.45
-0.62
-6.78
-13.12
-19.46
-25.45
-30.68
-34.80
-37.63
-39.15
-39.39
-38.46
-36.50
-33.74
-30.53
-27.28
-24.40
-22.15
-20.53
-19.35
-18.27
-16.98
-15.35
-13.42
-11.33
-9.20
-7.06
-4.86
-2.58
-0.29
1.85
3.66
4.99
5.82
6.21
6.23
5.97
5.48
4.82
4.07
3.29
2.45
1.34
-0.33
-2.85
-6.32
-10.51
-14.88
-18.72
-21.35
-22.34
-21.62
-19.42
-16.19
-12.44
-8.66
-5.18
-2.18
0.31
2.39
4.23
5.93
7.51
8.83
9.73
10.09
9.95
9.49
9.00
8.69
8.70
8.97
9.31
9.48
9.24
8.38
6.84
4.76
2.43
0.25
-1.48
-2.67
-3.49
-4.31
-5.50
-7.23
-9.45
-11.92
-14.39
-16.66
-18.59
-20.08
-20.94
-20.95
-19.94
-17.91
-15.09
-11.86
-8.66
-5.83
-3.63
-2.16
-1.45
-1.49
-2.17
-3.31
-4.56
-5.55
-5.95
-5.60
-4.60
-3.25
-2.02
-1.37
-1.59
-2.76
-4.69
-7.02
-9.35
-11.34
-12.80
-13.71
-14.17
-14.30
-14.25
-14.14
-14.07
-14.15
-14.40
-14.68
-14.71
-14.06
-12.31
-9.19
-4.68
1.04
7.64
14.76
22.03
29.09
35.48
40.67
44.18
45.74
45.38
43.41
40.28
36.39
31.96
27.10
21.89
16.51
11.26
6.41
2.11
-1.70
-5.18
-8.45
-11.46
-14.02
-15.90
-17.00
-17.39
-17.30
-16.99
-16.70
-16.57
-16.74
-17.30
-18.31
-19.68
-21.12
-22.19
-22.43
-21.53
-19.49
-16.57
-13.17
-9.70
-6.44
-3.53
-1.01
1.07
2.70
3.85
4.58
5.03
5.38
5.76
6.20
6.67
7.13
7.60
8.15
8.84
9.63
10.34
10.71
10.53
9.71
8.36
6.72
5.00
3.36
1.83
0.36
-1.09
-2.57
-4.05
-5.52
-6.93
-8.23
-9.34
-10.14
-10.52
-10.37
-9.66
-8.39
-6.61
-4.43
-1.95
0.67
3.21
5.49
7.35
8.70
9.60
10.19
10.65
11.14
11.71
12.32
12.88
13.31
13.61
13.82
14.01
14.23
14.46
14.63
14.65
14.42
13.91
13.16
12.21
11.13
9.93
8.59
7.11
5.49
3.81
2.19
0.81
-0.19
-0.69
-0.66
-0.13
0.80
1.98
3.26
4.49
5.56
6.43
7.10
7.62
8.04
8.40
8.70
8.95
9.14
9.27
9.33
9.29
9.16
8.94
8.67
8.38
8.07
7.69
7.14
6.35
5.27
3.93
2.42
0.80
-0.85
-2.49
-4.08
-5.54
-6.75
-7.57
-7.94
-7.88
-7.52
-7.06
-6.67
-6.46
-6.43
-6.53
-6.62
-6.63
-6.53
-6.41
-6.43
-6.74
-7.42
-8.41
-9.51
-10.43
-10.90
-10.77
-9.99
-8.68
-6.97
-5.03
-2.97
-0.88
1.14
3.00
4.59
5.83
6.75
7.38
7.83
8.19
8.52
8.86
9.23
9.64
10.11
10.65
11.30
12.07
13.05
14.27
15.72
17.27
18.70
19.74
20.18
19.95
19.06
17.66
15.87
13.84
11.67
9.43
7.17
4.92
2.69
0.42
-1.99
-4.62
-7.51
-10.58
-13.65
-16.48
-18.88
-20.70
-22.00
-22.97
-23.86
-24.86
-25.97
-27.05
-27.81
-28.00
-27.45
-26.11
-24.04
-21.33
-18.14
-14.68
-11.23
-8.08
-5.45
-3.43
-1.99
-0.92
0.00
1.00
2.17
3.46
4.71
5.72
6.33
6.47
6.24
5.87
5.59
5.57
5.81
6.13
6.27
5.98
5.14
3.78
2.09
0.36
-1.14
-2.17
-2.58
-2.36
-1.58
-0.37
1.10
2.63
4.09
5.35
6.35
7.07
7.52
7.74
7.77
7.67
7.45
7.17
6.87
6.59
6.35
6.14
5.90
5.57
5.14
4.61
4.08
3.57
3.03
2.38
1.49
0.35
-0.94
-2.19
-3.21
-3.93
-4.37
-4.68
-4.96
-5.26
-5.52
-5.61
-5.44
-4.94
-4.11
-2.99
-1.70
-0.42
0.67
1.40
1.69
1.60
1.28
0.90
0.63
0.54
0.62
0.83
1.12
1.44
1.75
2.00
2.17
2.27
2.35
2.48
2.68
2.93
3.11
3.08
2.79
2.24
1.52
0.69
-0.21
-1.20
-2.28
-3.37
-4.29
-4.85
-4.88
-4.36
-3.38
-2.14
-0.85
0.35
1.39
2.30
3.13
3.92
4.65
5.22
5.54
5.57
5.33
4.94
4.58
4.37
4.35
4.46
4.58
4.57
4.32
3.78
2.94
1.86
0.61
-0.69
-1.98
-3.17
-4.24
-5.18
-6.04
-6.88
-7.76
-8.70
-9.61
-10.38
-10.83
-10.87
-10.46
-9.63
-8.49
-7.11
-5.58
-3.95
-2.31
-0.72
0.72
1.96
3.03
3.97
4.84
5.65
6.37
6.97
7.45
7.82
8.17
8.60
9.18
9.91
10.74
11.55
12.24
12.77
13.16
13.42
13.54
13.42
12.98
12.17
11.05
9.76
8.49
7.39
6.44
5.55
4.54
3.34
2.00
0.69
-0.36
-1.02
-1.29
-1.31
-1.28
-1.35
-1.62
-2.03
-2.49
-2.91
-3.22
-3.44
-3.60
-3.72
-3.80
-3.82
-3.79
-3.72
-3.63
-3.54
-3.40
-3.18
-2.85
-2.47
-2.17
-2.11
-2.42
-3.14
-4.19
-5.45
-6.75
-7.96
-9.01
-9.83
-10.43
-10.85
-11.16
-11.43
-11.69
-11.91
-11.97
-11.71
-10.98
-9.69
-7.86
-5.59
-3.08
-0.53
1.85
3.89
5.49
6.61
7.29
7.64
7.74
7.71
7.60
7.47
7.34
7.20
7.06
6.94
6.89
6.99
7.26
7.63
7.89
7.80
7.13
5.82
3.98
1.81
-0.47
-2.67
-4.75
-6.68
-8.50
-10.22
-11.86
-13.42
-14.91
-16.36
-17.73
-18.94
-19.88
-20.40
-20.35
-19.66
-18.35
-16.56
-14.49
-12.40
-10.44
-8.70
-7.14
-5.67
-4.20
-2.74
-1.32
-0.04
1.02
1.83
2.43
2.89
3.35
3.90
4.59
5.36
6.10
6.64
6.86
6.70
6.23
5.57
4.89
4.31
3.89
3.57
3.25
2.82
2.15
1.23
0.15
-0.88
-1.62
-1.84
-1.50
-0.69
0.34
1.34
2.14
2.75
3.27
3.86
4.60
5.41
6.16
6.69
6.94
6.94
6.77
6.51
6.17
5.72
5.13
4.40
3.59
2.79
2.10
1.61
1.34
1.25
1.26
1.24
1.05
0.61
-0.11
-1.02
-1.97
-2.76
-3.29
-3.58
-3.79
-4.14
-4.81
-5.81
-6.96
-7.98
-8.55
-8.49
-7.79
-6.58
-5.09
-3.50
-1.93
-0.44
0.94
2.18
3.22
3.98
4.41
4.52
4.34
3.98
3.55
3.10
2.67
2.28
1.90
1.54
1.20
0.88
0.55
0.17
-0.31
-0.89
-1.56
-2.27
-2.95
-3.57
-4.07
-4.41
-4.59
-4.68
-4.81
-5.14
-5.79
-6.71
-7.75
-8.64
-9.12
-9.05
-8.44
-7.43
-6.18
-4.89
-3.71
-2.79
-2.21
-2.01
-2.11
-2.33
-2.45
-2.29
-1.77
-0.97
-0.09
0.64
1.03
1.03
0.68
0.16
-0.34
-0.64
-0.67
-0.41
0.05
0.59
1.06
1.37
1.47
1.40
1.26
1.15
1.13
1.20
1.26
1.19
0.95
0.55
0.12
-0.21
-0.33
-0.27
-0.17
-0.17
-0.39
-0.88
-1.58
-2.38
-3.15
-3.80
-4.19
-4.24
-3.86
-3.01
-1.75
-0.21
1.40
2.89
4.10
5.00
5.60
5.96
6.12
6.12
5.94
5.59
5.11
4.55
3.95
3.37
2.83
2.32
1.85
1.40
0.99
0.65
0.39
0.21
0.07
-0.06
-0.22
-0.41
-0.59
-0.73
-0.81
-0.85
-0.85
-0.78
-0.52
0.06
1.13
2.73
4.80
7.14
9.45
11.45
12.84
13.48
13.33
12.50
11.23
9.88
8.74
8.06
7.91
8.21
8.76
9.29
9.53
9.26
8.40
7.06
5.49
4.03
2.96
2.41
2.31
2.52
2.90
3.35
3.83
4.29
4.58
4.48
3.84
2.67
1.14
-0.43
-1.80
-2.84
-3.56
-3.99
-4.11
-3.82
-3.03
-1.79
-0.34
0.95
1.76
1.98
1.77
1.47
1.40
1.66
2.06
2.32
2.22
1.77
1.21
0.84
0.82
1.10
1.45
1.56
1.24
0.48
-0.56
-1.67
-2.67
-3.45
-4.03
-4.45
-4.85
-5.35
-6.05
-6.99
-8.09
-9.15
-10.01
-10.51
-10.63
-10.44
-10.02
-9.46
-8.77
-7.97
-7.11
-6.25
-5.48
-4.85
-4.35
-3.92
-3.52
-3.14
-2.84
-2.71
-2.78
-3.03
-3.38
-3.72
-3.96
-4.07
-4.05
-3.98
-3.94
-3.98
-4.15
-4.42
-4.75
-5.08
-5.41
-5.74
-6.10
-6.54
-7.07
-7.69
-8.34
-8.94
-9.35
-9.43
-9.02
-8.06
-6.61
-4.85
-3.03
-1.40
-0.06
1.04
2.01
2.95
3.87
4.61
4.97
4.81
4.13
3.09
1.98
1.09
0.61
0.54
0.73
0.91
0.87
0.47
-0.26
-1.23
-2.23
-3.12
-3.79
-4.22
-4.50
-4.82
-5.36
-6.27
-7.57
-9.13
-10.70
-11.94
-12.53
-12.23
-10.91
-8.59
-5.43
-1.67
2.37
6.46
10.44
14.24
17.77
20.82
23.08
24.16
23.87
22.29
19.85
17.12
14.62
12.63
11.15
10.02
9.05
8.14
7.28
6.49
5.75
4.98
4.11
3.10
2.00
0.86
-0.27
-1.42
-2.65
-4.02
-5.59
-7.36
-9.28
-11.26
-13.18
-14.90
-16.28
-17.19
-17.60
-17.55
-17.13
-16.49
-15.71
-14.87
-13.95
-12.92
-11.73
-10.34
-8.77
-7.07
-5.35
-3.77
-2.45
-1.39
-0.54
0.21
0.97
1.74
2.40
2.83
2.95
2.82
2.62
2.52
2.58
2.71
2.71
2.42
1.80
1.01
0.24
-0.38
-0.82
-1.21
-1.66
-2.21
-2.75
-3.12
-3.16
-2.80
-2.15
-1.35
-0.60
-0.00
0.42
0.75
1.17
1.85
2.93
4.43
6.27
8.21
10.00
11.43
12.38
12.88
13.03
12.97
12.79
12.58
12.37
12.21
12.21
12.41
12.80
13.29
13.63
13.60
13.07
12.08
10.80
9.43
8.09
6.82
5.56
4.32
3.23
2.53
2.46
3.19
4.69
6.78
9.21
11.72
14.11
16.21
17.85
18.84
19.02
18.32
16.82
14.72
12.29
9.83
7.52
5.43
3.58
1.94
0.50
-0.68
-1.59
-2.22
-2.67
-3.06
-3.53
-4.11
-4.78
-5.43
-5.96
-6.32
-6.57
-6.79
-7.01
-7.20
-7.18
-6.76
-5.82
-4.39
-2.68
-1.05
0.19
0.77
0.60
-0.25
-1.63
-3.30
-5.06
-6.86
-8.76
-10.95
-13.59
-16.70
-20.07
-23.29
-25.88
-27.45
-27.80
-26.87
-24.72
-21.44
-17.18
-12.22
-7.02
-2.04
2.36
6.10
9.35
12.38
15.27
17.83
19.65
20.24
19.40
17.27
14.37
11.35
8.78
6.99
6.01
5.65
5.58
5.51
5.23
4.68
3.97
3.26
2.72
2.50
2.64
3.13
3.88
4.71
5.44
5.85
5.75
5.08
3.90
2.46
1.05
-0.05
-0.65
-0.74
-0.46
-0.03
0.31
0.40
0.20
-0.25
-0.85
-1.50
-2.15
-2.77
-3.35
-3.88
-4.34
-4.74
-5.07
-5.35
-5.57
-5.72
-5.77
-5.68
-5.42
-4.96
-4.27
-3.31
-2.09
-0.65
0.86
2.28
3.46
4.31
4.79
4.93
4.74
4.19
3.27
1.94
0.29
-1.53
-3.29
-4.74
-5.71
-6.16
-6.22
-6.08
-5.97
-6.05
-6.37
-6.86
-7.37
-7.74
-7.88
-7.75
-7.45
-7.13
-6.97
-7.11
-7.59
-8.36
-9.23
-9.96
-10.31
-10.13
-9.38
-8.19
-6.78
-5.43
-4.37
-3.70
-3.40
-3.33
-3.33
-3.27
-3.13
-2.98
-2.92
-3.03
-3.28
-3.59
-3.82
-3.89
-3.85
-3.77
-3.77
-3.91
-4.16
-4.41
-4.52
-4.44
-4.23
-4.04
-4.04
-4.36
-5.01
-5.89
-6.77
-7.43
-7.64
-7.23
-6.11
-4.27
-1.85
0.86
3.51
5.73
7.31
8.25
8.71
8.97
9.24
9.52
9.65
9.42
8.69
7.50
6.05
4.59
3.24
1.99
0.67
-0.86
-2.62
-4.46
-6.13
-7.34
-7.94
-7.94
-7.53
-7.01
-6.68
-6.79
-7.41
-8.48
-9.83
-11.23
-12.47
-13.35
-13.71
-13.38
-12.27
-10.38
-7.86
-5.04
-2.29
0.11
2.06
3.70
5.28
7.09
9.31
11.88
14.59
17.09
19.01
20.06
20.12
19.29
17.85
16.21
14.73
13.68
13.11
12.86
12.69
12.30
11.54
10.35
8.82
7.09
5.32
3.62
2.01
0.50
-0.91
-2.21
-3.33
-4.23
-4.92
-5.47
-5.97
-6.45
-6.87
-7.13
-7.10
-6.72
-6.04
-5.19
-4.33
-3.58
-2.98
-2.52
-2.15
-1.79
-1.41
-0.96
-0.49
-0.03
0.35
0.61
0.76
0.84
0.91
0.95
0.91
0.67
0.18
-0.54
-1.36
-2.13
-2.74
-3.18
-3.54
-3.96
-4.56
-5.37
-6.30
-7.23
-8.00
-8.45
-8.45
-7.90
-6.79
-5.16
-3.18
-1.10
0.80
2.31
3.28
3.74
3.80
3.62
3.34
3.02
2.66
2.20
1.61
0.94
0.26
-0.33
-0.78
-1.12
-1.44
-1.85
-2.41
-3.08
-3.77
-4.39
-4.91
-5.38
-5.92
-6.69
-7.79
-9.23
-10.93
-12.67
-14.15
-15.06
-15.19
-14.46
-12.95
-10.85
-8.43
-5.95
-3.71
-1.94
-0.83
-0.41
-0.60
-1.15
-1.80
-2.29
-2.53
-2.53
-2.39
-2.24
-2.16
-2.20
-2.29
-2.36
-2.25
-1.83
-1.01
0.15
1.51
2.88
4.11
5.10
5.84
6.31
6.41
6.00
4.99
3.40
1.49
-0.40
-1.89
-2.73
-2.91
-2.57
-1.93
-1.14
-0.17
1.13
2.94
5.37
8.32
11.55
14.65
17.26
19.15
20.29
20.82
20.96
20.86
20.54
19.97
19.08
17.90
16.55
15.13
13.72
12.25
10.58
8.56
6.17
3.51
0.83
-1.61
-3.58
-5.03
-6.02
-6.73
-7.35
-8.00
-8.68
-9.27
-9.54
-9.24
-8.25
-6.54
-4.22
-1.49
1.43
4.28
6.78
8.68
9.77
9.95
9.34
8.21
6.93
5.82
5.04
4.56
4.19
3.74
3.09
2.26
1.36
0.53
-0.18
-0.82
-1.47
-2.28
-3.33
-4.62
-6.12
-7.74
-9.35
-10.84
-12.07
-13.00
-13.64
-14.03
-14.18
-14.03
-13.43
-12.25
-10.43
-8.11
-5.54
-3.01
-0.72
1.24
2.87
4.20
5.21
5.94
6.49
7.10
8.02
9.38
10.99
12.42
13.05
12.34
10.06
6.36
1.81
-2.84
-6.78
-9.41
-10.47
-10.10
-8.78
-7.16
-5.83
-5.20
-5.34
-5.99
-6.69
-6.95
-6.37
-4.80
-2.29
0.91
4.47
8.06
11.44
14.39
16.76
18.43
19.34
19.48
18.99
18.08
16.96
15.80
14.67
13.55
12.37
11.05
9.54
7.83
5.91
3.81
1.61
-0.57
-2.56
-4.21
-5.45
-6.28
-6.81
-7.23
-7.74
-8.51
-9.61
-11.02
-12.55
-13.94
-14.85
-15.00
-14.26
-12.64
-10.33
-7.62
-4.79
-2.09
0.38
2.59
4.63
6.55
8.40
10.06
11.37
12.09
12.04
11.21
9.76
7.97
6.18
4.67
3.56
2.88
2.57
2.58
2.80
3.11
3.37
3.40
3.13
2.56
1.83
1.09
0.43
-0.21
-0.94
-1.90
-3.13
-4.47
-5.68
-6.47
-6.67
-6.28
-5.44
-4.36
-3.28
-2.31
-1.53
-0.95
-0.56
-0.35
-0.39
-0.71
-1.34
-2.26
-3.37
-4.56
-5.69
-6.63
-7.32
-7.69
-7.70
-7.27
-6.34
-4.83
-2.75
-0.17
2.72
5.64
8.31
10.47
11.89
12.45
12.14
11.06
9.41
7.46
5.49
3.68
2.13
0.85
-0.13
-0.74
-0.91
-0.56
0.30
1.56
3.04
4.51
5.81
6.78
7.35
7.51
7.33
6.97
6.62
6.43
6.46
6.64
6.78
6.73
6.41
5.87
5.19
4.44
3.61
2.66
1.58
0.48
-0.48
-1.16
-1.50
-1.55
-1.48
-1.48
-1.72
-2.32
-3.32
-4.72
-6.38
-8.05
-9.39
-10.04
-9.80
-8.67
-6.95
-5.02
-3.21
-1.70
-0.45
0.67
1.80
2.94
4.00
4.78
5.17
5.17
4.91
4.56
4.24
3.96
3.63
3.13
2.46
1.75
1.18
0.88
0.89
1.05
1.13
0.95
0.43
-0.36
-1.30
-2.25
-3.16
-4.04
-4.94
-5.91
-6.96
-8.04
-9.05
-9.90
-10.47
-10.66
-10.40
-9.65
-8.44
-6.85
-5.07
-3.27
-1.61
-0.19
0.98
1.91
2.60
3.04
3.18
3.01
2.59
2.05
1.57
1.32
1.40
1.79
2.37
2.96
3.35
3.44
3.20
2.70
2.09
1.47
0.94
0.48
0.02
-0.53
-1.27
-2.23
-3.41
-4.69
-5.91
-6.91
-7.57
-7.84
-7.71
-7.18
-6.23
-4.82
-2.96
-0.79
1.45
3.43
4.89
5.70
5.94
5.79
5.47
5.13
4.82
4.52
4.17
3.72
3.16
2.46
1.61
0.62
-0.44
-1.46
-2.26
-2.71
-2.78
-2.56
-2.24
-2.06
-2.25
-2.95
-4.21
-5.98
-8.20
-10.73
-13.39
-15.95
-18.12
-19.64
-20.28
-19.95
-18.67
-16.62
-14.09
-11.46
-9.08
-7.26
-6.16
-5.81
-6.08
-6.78
-7.66
-8.46
-8.88
-8.69
-7.71
-5.97
-3.66
-1.15
1.20
3.17
4.72
5.95
6.98
7.89
8.66
9.24
9.59
9.75
9.74
9.59
9.25
8.67
7.86
6.89
5.90
5.03
4.39
4.03
3.94
4.09
4.49
5.13
6.05
7.29
8.84
10.66
12.56
14.28
15.54
16.13
15.97
15.13
13.78
12.16
10.45
8.81
7.34
6.14
5.27
4.73
4.41
4.12
3.65
2.81
1.57
-0.03
-1.83
-3.68
-5.46
-7.12
-8.71
-10.33
-12.16
-14.33
-16.90
-19.81
-22.77
-25.36
-27.07
-27.44
-26.18
-23.30
-19.01
-13.71
-7.89
-2.08
3.23
7.60
10.71
12.46
12.98
12.62
11.90
11.26
11.03
11.27
11.86
12.55
13.13
13.44
13.44
13.14
12.57
11.76
10.72
9.46
8.04
6.49
4.85
3.08
1.06
-1.34
-4.16
-7.25
-10.30
-12.91
-14.72
-15.59
-15.57
-14.92
-13.91
-12.78
-11.67
-10.65
-9.75
-9.04
-8.57
-8.34
-8.27
-8.19
-7.96
-7.48
-6.82
-6.15
-5.64
-5.40
-5.37
-5.41
-5.33
-5.05
-4.59
-4.04
-3.48
-2.93
-2.32
-1.61
-0.86
-0.26
-0.08
-0.54
-1.60
-3.01
-4.29
-5.00
-4.86
-3.91
-2.41
-0.73
0.83
2.14
3.21
4.11
4.85
5.40
5.63
5.51
5.07
4.50
3.99
3.68
3.58
3.57
3.51
3.30
2.94
2.54
2.21
2.03
1.98
1.98
1.89
1.65
1.27
0.80
0.31
-0.18
-0.72
-1.35
-2.09
-2.81
-3.33
-3.42
-2.95
-1.90
-0.39
1.45
3.46
5.51
7.51
9.35
10.89
12.00
12.55
12.50
11.89
10.83
9.48
8.03
6.62
5.36
4.33
3.56
3.07
2.88
2.96
3.22
3.50
3.62
3.42
2.85
1.93
0.70
-0.81
-2.63
-4.75
-7.02
-9.06
-10.35
-10.41
-9.02
-6.33
-2.82
0.89
4.23
6.87
8.75
9.96
10.66
10.99
11.04
10.83
10.41
9.81
9.09
8.32
7.55
6.81
6.09
5.34
4.48
3.47
2.37
1.26
0.24
-0.60
-1.25
-1.75
-2.14
-2.49
-2.83
-3.22
-3.72
-4.43
-5.41
-6.69
-8.21
-9.81
-11.22
-12.14
-12.27
-11.44
-9.65
-7.11
-4.14
-1.12
1.68
4.08
6.04
7.54
8.57
9.13
9.28
9.13
8.86
8.61
8.48
8.45
8.44
8.37
8.20
7.96
7.70
7.47
7.30
7.14
6.99
6.81
6.64
6.49
6.40
6.32
6.18
5.81
5.09
3.93
2.40
0.73
-0.73
-1.65
-1.78
-1.05
0.48
2.63
5.15
7.80
10.28
12.26
13.45
13.69
13.01
11.63
9.88
8.06
6.31
4.64
3.00
1.44
0.12
-0.66
-0.69
0.07
1.38
2.79
3.84
4.20
3.80
2.82
1.54
0.27
-0.83
-1.72
-2.55
-3.54
-4.94
-6.95
-9.57
-12.62
-15.69
-18.25
-19.77
-19.92
-18.65
-16.24
-13.22
-10.22
-7.76
-6.07
-5.05
-4.37
-3.60
-2.41
-0.71
1.31
3.33
4.97
5.97
6.21
5.82
5.01
4.06
3.26
2.78
2.72
3.03
3.62
4.28
4.82
5.04
4.79
4.03
2.81
1.27
-0.38
-1.93
-3.24
-4.32
-5.31
-6.38
-7.64
-8.99
-10.18
-10.85
-10.72
-9.69
-7.94
-5.78
-3.56
-1.50
0.29
1.85
3.19
4.31
5.14
5.66
5.88
5.92
5.89
5.90
5.97
6.01
5.89
5.55
4.99
4.34
3.81
3.55
3.61
3.90
4.25
4.49
4.49
4.22
3.70
2.98
2.14
1.27
0.46
-0.22
-0.76
-1.23
-1.77
-2.51
-3.50
-4.66
-5.79
-6.63
-6.99
-6.78
-6.09
-5.07
-3.89
-2.69
-1.51
-0.34
0.79
1.82
2.62
3.04
3.04
2.66
2.08
1.53
1.16
0.99
0.94
0.82
0.49
-0.08
-0.77
-1.43
-1.91
-2.19
-2.34
-2.51
-2.82
-3.26
-3.74
-4.11
-4.30
-4.30
-4.21
-4.18
-4.36
-4.83
-5.61
-6.64
-7.77
-8.82
-9.58
-9.85
-9.50
-8.51
-6.97
-5.01
-2.82
-0.57
1.55
3.34
4.66
5.42
5.63
5.40
4.90
4.29
3.65
3.01
2.35
1.69
1.09
0.62
0.34
0.20
0.02
-0.43
-1.32
-2.70
-4.43
-6.22
-7.79
-8.94
-9.66
-10.09
-10.41
-10.80
-11.31
-11.90
-12.44
-12.74
-12.61
-11.92
-10.63
-8.81
-6.65
-4.40
-2.31
-0.54
0.87
1.98
2.92
3.81
4.70
5.58
6.36
6.96
7.34
7.50
7.50
7.35
7.00
6.31
5.21
3.71
2.03
0.47
-0.65
-1.10
-0.91
-0.24
0.65
1.55
2.32
2.91
3.27
3.30
2.94
2.12
0.94
-0.40
-1.57
-2.33
-2.55
-2.33
-1.91
-1.52
-1.29
-1.14
-0.90
-0.36
0.54
1.68
2.80
3.64
4.01
3.89
3.42
2.75
2.05
1.37
0.74
0.10
-0.57
-1.24
-1.85
-2.30
-2.55
-2.58
-2.48
-2.34
-2.26
-2.26
-2.31
-2.28
-2.07
-1.64
-1.08
-0.63
-0.56
-1.06
-2.16
-3.66
-5.23
-6.51
-7.28
-7.55
-7.50
-7.39
-7.39
-7.50
-7.56
-7.38
-6.81
-5.80
-4.42
-2.80
-1.07
0.63
2.16
3.34
3.98
3.98
3.34
2.22
0.83
-0.55
-1.74
-2.64
-3.24
-3.61
-3.86
-4.11
-4.47
-4.99
-5.63
-6.31
-6.89
-7.26
-7.37
-7.24
-6.99
-6.77
-6.69
-6.83
-7.23
-7.86
-8.64
-9.38
-9.82
-9.66
-8.66
-6.77
-4.20
-1.29
1.51
3.89
5.70
6.97
7.89
8.66
9.41
10.21
11.02
11.71
12.11
12.05
11.43
10.27
8.74
7.08
5.56
4.41
3.72
3.49
3.58
3.78
3.85
3.57
2.86
1.73
0.28
-1.32
-2.95
-4.54
-6.02
-7.35
-8.48
-9.29
-9.65
-9.44
-8.57
-7.01
-4.85
-2.30
0.35
2.80
4.85
6.39
7.42
8.02
8.24
8.16
7.81
7.24
6.45
5.44
4.14
2.50
0.55
-1.56
-3.60
-5.33
-6.56
-7.24
-7.41
-7.18
-6.69
-6.02
-5.30
-4.62
-4.08
-3.75
-3.73
-4.11
-4.98
-6.37
-8.20
-10.16
-11.76
-12.49
-11.93
-9.97
-6.86
-3.06
0.90
4.58
7.72
10.22
12.02
13.03
13.21
12.56
11.22
9.45
7.56
5.87
4.54
3.65
3.09
2.70
2.30
1.69
0.79
-0.44
-1.93
-3.48
-4.84
-5.78
-6.12
-5.86
-5.13
-4.23
-3.46
-3.08
-3.22
-3.83
-4.79
-5.83
-6.72
-7.21
-7.14
-6.44
-5.12
-3.27
-1.04
1.41
3.88
6.17
8.10
9.54
10.47
11.02
11.35
11.61
11.85
11.96
11.74
11.07
9.96
8.56
7.08
5.67
4.31
2.86
1.15
-0.86
-3.02
-5.08
-6.78
-8.02
-8.84
-9.42
-10.00
-10.73
-11.74
-13.05
-14.60
-16.20
-17.51
-18.12
-17.68
-16.00
-13.20
-9.69
-5.98
-2.57
0.23
2.32
3.79
4.78
5.47
6.03
6.56
7.16
7.85
8.65
9.47
10.24
10.83
11.17
11.23
11.03
10.62
10.02
9.28
8.46
7.65
6.93
6.35
5.92
5.56
5.20
4.79
4.35
3.98
3.73
3.66
3.77
4.08
4.61
5.44
6.61
8.06
9.61
11.00
12.00
12.42
12.24
11.52
10.40
9.07
7.66
6.28
4.98
3.78
2.75
1.93
1.42
1.26
1.42
1.77
2.18
2.54
2.88
3.29
3.88
4.60
5.15
5.05
3.81
1.22
-2.51
-6.70
-10.46
-13.01
-13.96
-13.39
-11.75
-9.56
-7.21
-4.82
-2.33
0.32
3.13
5.98
8.73
11.30
13.68
15.94
18.07
20.06
21.79
23.22
24.31
25.12
25.71
26.04
26.00
25.37
23.99
21.83
19.03
15.85
12.59
9.45
6.51
3.76
1.18
-1.24
-3.50
-5.62
-7.68
-9.78
-12.00
-14.34
-16.68
-18.76
-20.25
-20.81
-20.20
-18.38
-15.55
-12.16
-8.77
-5.87
-3.77
-2.54
-2.07
-2.20
-2.84
-4.02
-5.76
-7.98
-10.48
-12.94
-15.02
-16.50
-17.34
-17.60
-17.42
-16.90
-16.10
-15.03
-13.76
-12.45
-11.24
-10.26
-9.53
-8.91
-8.25
-7.45
-6.57
-5.76
-5.20
-4.94
-4.88
-4.79
-4.41
-3.51
-1.99
0.14
2.75
5.50
7.90
9.33
9.21
7.21
3.47
-1.40
-6.43
-10.66
-13.41
-14.58
-14.58
-14.10
-13.82
-14.07
-14.79
-15.58
-15.96
-15.50
-13.96
-11.32
-7.74
-3.54
0.94
5.28
9.09
12.08
14.11
15.22
15.61
15.59
15.52
15.73
16.45
17.84
19.91
22.54
25.53
28.57
31.30
33.36
34.51
34.70
34.13
33.17
32.27
31.68
31.40
31.15
30.54
29.33
27.56
25.49
23.49
21.79
20.43
19.19
17.80
16.06
13.86
11.23
8.24
4.96
1.46
-2.21
-5.99
-9.83
-13.73
-17.67
-21.62
-25.46
-29.12
-32.51
-35.67
-38.66
-41.50
-44.03
-45.92
-46.76
-46.24
-44.27
-41.04
-36.94
-32.40
-27.76
-23.25
-18.99
-15.10
-11.70
-8.89
-6.73
-5.14
-3.94
-2.88
-1.76
-0.48
0.88
2.11
2.97
3.26
2.93
2.12
1.13
0.29
-0.09
0.13
0.89
1.95
2.95
3.52
3.38
2.46
0.85
-1.20
-3.39
-5.45
-7.17
-8.38
-8.92
-8.70
-7.65
-5.85
-3.49
-0.88
1.68
3.93
5.75
7.07
7.88
8.14
7.85
7.08
6.01
4.91
4.04
3.57
3.44
3.46
3.42
3.20
2.88
2.66
2.74
3.19
3.90
4.64
5.25
5.65
5.93
6.23
6.60
6.98
7.16
6.90
6.08
4.73
3.02
1.14
-0.75
-2.58
-4.27
-5.68
-6.64
-6.95
-6.51
-5.38
-3.80
-2.04
-0.35
1.16
2.44
3.56
4.56
5.45
6.23
6.85
7.31
7.62
7.81
7.95
8.11
8.33
8.59
8.81
8.85
8.60
7.98
7.04
5.90
4.73
3.69
2.85
2.14
1.43
0.55
-0.62
-2.07
-3.68
-5.25
-6.55
-7.41
-7.67
-7.29
-6.26
-4.63
-2.54
-0.15
2.36
4.82
7.07
8.99
10.45
11.38
11.77
11.68
11.20
10.47
