1653300741.00
64.000000
-0.00
-0.00
-0.00
-0.00
-0.00
-0.00
-0.00
-0.00
-0.00
-0.00
0.00
0.01
0.01
-0.00
-0.03
-0.05
-0.05
0.00
0.13
0.36
0.66
1.01
1.37
1.72
2.06
2.40
2.79
3.24
3.80
4.42
5.06
5.66
6.20
6.68
7.15
7.68
8.31
9.14
10.09
11.04
11.88
12.56
13.14
13.76
14.65
15.96
17.91
20.32
22.90
25.38
27.58
29.57
31.68
34.32
37.81
42.54
48.15
54.10
59.83
64.97
69.58
74.14
79.34
85.71
93.76
103.00
112.62
121.73
129.77
136.75
143.30
150.75
157.77
166.64
177.95
191.79
206.97
220.57
228.25
225.36
208.53
176.87
132.76
80.05
23.07
-34.94
-92.44
-149.16
-205.23
-260.37
-313.74
-363.87
-409.83
-450.91
-486.50
-515.74
-537.23
-549.22
-549.96
-538.37
-514.21
-478.67
-433.88
-382.45
-327.02
-269.84
-212.63
-156.66
-102.95
-52.37
-5.90
35.58
71.43
101.35
125.50
144.38
158.69
169.15
176.37
180.75
182.57
182.07
179.51
175.23
169.65
163.18
156.15
148.81
141.30
133.69
126.02
118.33
110.69
103.16
95.80
88.68
81.83
75.25
68.95
62.95
57.25
51.86
46.78
42.03
37.59
33.45
29.61
26.07
22.81
19.83
17.11
14.67
12.48
10.54
8.83
7.35
6.07
4.97
4.05
3.27
2.62
2.09
1.65
1.30
1.01
0.79
0.61
0.48
0.37
0.29
0.24
0.20
0.17
0.16
0.16
0.17
0.19
0.22
0.25
0.28
0.31
0.35
0.39
0.44
0.50
0.57
0.63
0.67
0.67
0.64
0.57
0.52
0.51
0.56
0.66
0.80
0.93
1.03
1.09
1.13
1.19
1.31
1.52
1.81
2.13
2.42
2.64
2.76
2.84
2.95
3.22
3.69
4.34
5.05
5.64
5.99
6.05
5.95
5.91
6.18
6.91
8.02
9.27
10.28
10.75
10.61
10.08
9.58
9.56
10.23
11.39
12.49
12.76
11.60
8.74
4.52
-0.41
-5.32
-9.73
-13.65
-17.41
-21.50
-26.32
-32.14
-39.06
-46.91
-55.02
-61.84
-65.14
-62.62
-53.05
-37.19
-17.92
0.70
14.95
22.90
24.91
22.90
19.24
15.53
12.30
9.42
6.74
4.54
3.34
3.49
4.79
6.55
7.94
8.35
7.73
6.51
5.32
4.69
4.82
5.44
6.00
5.90
4.68
2.38
-0.44
-2.86
-3.88
-2.84
0.32
4.99
10.10
14.54
17.55
18.93
19.03
18.47
17.84
17.42
17.16
16.83
16.14
14.95
13.32
11.46
9.63
8.11
7.13
6.75
7.03
7.79
8.67
9.19
8.87
7.45
5.01
1.88
-1.36
-4.06
-5.65
-5.84
-4.77
-3.11
-2.03
-2.90
-6.77
-13.90
-23.49
-33.89
-43.07
-49.32
-51.74
-50.35
-45.95
-39.73
-32.79
-25.95
-19.62
-13.97
-8.99
-4.72
-1.32
0.91
1.68
0.81
-1.67
-5.55
-10.55
-16.39
-22.82
-29.54
-36.13
-41.91
-46.14
-48.19
-47.65
-44.49
-38.90
-31.19
-21.70
-10.79
0.94
12.63
23.11
31.14
35.66
36.15
32.79
26.42
18.38
10.18
3.20
-1.53
-3.42
-2.35
1.34
7.06
14.00
21.38
28.49
34.90
40.37
44.86
48.31
50.61
51.50
50.74
48.25
44.23
39.20
33.72
28.26
22.99
17.78
12.35
6.46
0.05
-6.77
-13.76
-20.66
-27.18
-33.02
-37.88
-41.57
-44.07
-45.68
-46.99
-48.68
-51.29
-54.94
-59.18
-63.10
-65.55
-65.53
-62.43
-56.26
-47.58
-37.35
-26.63
-16.30
-6.90
1.44
8.85
15.55
21.65
27.09
31.64
35.14
37.57
39.13
40.11
40.75
41.13
41.23
40.94
40.27
39.33
38.21
36.96
35.43
33.48
30.97
28.03
24.93
21.92
19.15
16.53
13.84
10.87
7.64
4.36
1.44
-0.65
-1.46
-0.66
1.99
6.45
12.50
19.60
27.05
34.18
40.63
46.37
51.54
56.06
59.36
60.51
58.69
53.80
46.74
39.18
32.84
28.72
26.69
25.75
24.63
22.45
19.06
14.89
10.47
6.11
1.81
-2.56
-7.02
-11.40
-15.46
-19.06
-22.31
-25.64
-29.64
-34.79
-41.29
-48.83
-56.64
-63.55
-68.29
-69.79
-67.49
-61.52
-52.71
-42.36
-31.82
-22.16
-13.85
-6.85
-0.82
4.54
9.27
13.21
16.18
18.21
19.64
20.89
22.26
23.67
24.78
25.20
24.82
23.92
22.99
22.44
22.30
22.14
21.29
19.19
15.70
11.11
5.98
0.86
-3.96
-8.50
-12.88
-17.13
-20.93
-23.67
-24.55
-22.94
-18.67
-12.09
-4.05
4.41
12.40
19.34
25.01
29.44
32.73
34.94
36.08
36.15
35.34
33.93
32.31
30.81
29.58
28.59
27.62
26.41
24.70
22.33
19.26
15.55
11.36
6.86
2.20
-2.52
-7.30
-12.16
-17.08
-22.01
-26.89
-31.69
-36.57
-41.76
-47.53
-53.97
-60.87
-67.68
-73.54
-77.41
-78.23
-75.15
-67.72
-56.08
-41.03
-23.90
-6.32
10.17
24.41
35.77
44.22
50.22
54.44
57.63
60.35
62.89
65.19
67.01
67.97
67.77
66.23
63.31
59.08
53.73
47.60
41.21
35.25
30.36
26.88
24.65
23.00
21.01
17.98
13.78
9.08
5.06
2.88
3.02
5.04
7.68
9.60
10.10
9.56
9.38
11.36
16.83
26.09
38.34
52.11
65.96
78.89
90.48
100.62
109.16
115.68
119.66
120.76
119.20
115.85
112.07
109.16
107.92
108.37
109.84
111.34
112.09
111.84
111.02
110.45
110.94
112.86
115.84
118.85
120.38
118.87
113.05
102.26
86.57
66.71
43.78
18.92
-7.04
-33.76
-61.44
-90.72
-122.47
-157.18
-194.41
-232.32
-267.79
-297.02
-316.68
-324.89
-321.82
-309.39
-290.34
-267.18
-241.52
-214.09
-185.34
-156.07
-127.72
-102.00
-80.20
-62.63
-48.46
-36.26
-24.83
-13.87
-4.18
2.88
6.24
5.88
3.00
-0.44
-2.62
-2.55
-0.52
2.19
3.94
3.41
0.07
-5.84
-13.60
-22.41
-31.62
-40.64
-48.72
-54.78
-57.59
-56.24
-50.55
-41.39
-30.33
-19.20
-9.33
-1.24
5.34
11.10
16.68
22.31
27.65
31.96
34.34
34.09
30.92
24.96
16.52
5.72
-7.69
-24.31
-44.52
-68.05
-93.56
-118.80
-141.19
-158.58
-169.94
-175.57
-176.79
-175.40
-173.01
-170.73
-169.10
-168.47
-169.27
-172.15
-177.85
-186.90
-199.12
-213.34
-227.31
-238.08
-242.68
-238.79
-225.29
-202.42
-171.46
-134.30
-93.19
-50.62
-9.16
28.69
61.04
87.01
106.90
121.84
133.20
141.94
148.38
152.53
154.50
154.79
154.10
152.91
151.08
147.86
142.39
134.15
123.33
110.63
96.78
82.09
66.41
49.40
31.09
12.22
-5.92
-22.02
-35.40
-46.29
-55.71
-64.82
-74.24
-83.73
-92.42
-99.31
-103.87
-106.26
-107.10
-107.11
-106.89
-106.95
-107.64
-108.98
-110.27
-110.01
-106.40
-98.24
-85.76
-70.76
-55.82
-43.02
-32.93
-24.48
-15.90
-5.91
5.48
17.20
28.00
37.30
45.36
52.88
60.25
67.37
73.97
80.12
86.55
94.33
104.24
115.95
127.81
137.38
142.33
141.62
136.02
127.80
119.70
113.67
110.10
107.86
105.06
100.27
93.27
85.18
77.86
72.99
71.42
72.91
76.57
81.46
87.02
93.16
99.87
106.77
112.94
117.07
118.00
115.25
109.30
101.44
93.38
86.55
81.72
78.76
76.76
74.33
70.11
63.20
53.48
41.57
28.56
15.56
3.33
-7.74
-17.37
-25.06
-29.96
-31.21
-28.38
-21.99
-13.50
-4.86
2.17
6.64
8.65
9.16
9.52
10.99
14.41
20.08
27.78
36.94
46.79
56.53
65.44
72.89
78.37
81.42
81.66
78.90
73.23
65.09
55.27
44.78
34.68
25.84
18.84
13.79
10.40
8.11
6.24
4.24
1.75
-1.42
-5.32
-9.89
-14.99
-20.24
-25.20
-29.43
-32.79
-35.55
-38.23
-41.32
-44.97
-48.77
-51.88
-53.34
-52.41
-48.75
-42.43
-33.75
-23.19
-11.22
1.65
14.94
28.21
41.11
53.35
64.62
74.46
82.28
87.40
89.29
87.82
83.38
76.92
69.64
62.69
56.76
51.95
47.71
43.09
37.11
29.14
19.10
7.52
-4.67
-16.50
-27.29
-36.81
-45.25
-53.03
-60.55
-67.98
-75.17
-81.67
-86.83
-89.97
-90.53
-88.16
-82.81
-74.70
-64.30
-52.25
-39.27
-26.16
-13.68
-2.53
6.81
14.10
19.44
23.09
25.41
26.70
27.15
26.87
25.94
24.50
22.72
20.80
18.92
17.20
15.63
14.15
12.62
10.83
8.61
5.86
2.59
-1.14
-5.29
-9.95
-15.33
-21.61
-28.71
-36.04
-42.59
-47.07
-48.45
-46.27
-40.86
-33.16
-24.36
-15.48
-7.19
0.21
6.61
11.95
16.20
19.41
21.74
23.35
24.30
24.46
23.60
21.59
18.59
15.09
11.78
9.29
8.01
7.89
8.51
9.13
8.90
7.04
3.12
-2.82
-10.14
-17.90
-25.04
-30.87
-35.15
-38.12
-40.29
-42.12
-43.77
-45.05
-45.35
-44.00
-40.38
-34.30
-26.11
-16.72
-7.47
0.27
5.45
7.84
8.19
8.17
9.87
15.05
24.45
37.40
51.99
65.73
76.39
82.57
84.01
81.31
75.44
67.46
58.28
48.68
39.30
30.66
23.05
16.53
10.90
5.81
0.82
-4.40
-9.99
-15.83
-21.55
-26.68
-30.88
-34.16
-36.97
-40.04
-44.03
-49.12
-54.80
-59.98
-63.32
-63.79
-60.91
-54.89
-46.36
-36.10
-24.76
-12.81
-0.60
11.43
22.77
32.93
41.61
48.85
54.87
59.95
64.19
67.38
69.21
69.45
68.18
65.78
62.75
59.48
56.05
52.29
47.93
42.76
36.80
30.26
23.46
16.70
10.15
3.74
-2.87
-10.27
-19.02
-29.43
-41.30
-53.91
-66.27
-77.43
-86.77
-94.08
-99.37
-102.60
-103.48
-101.60
-96.66
-88.76
-78.54
-66.99
-55.13
-43.70
-33.02
-23.13
-13.96
-5.56
1.86
7.99
12.70
16.10
18.55
20.49
22.31
24.09
25.65
26.64
26.70
25.66
23.67
21.15
18.62
16.49
14.91
13.68
12.44
10.84
8.73
6.26
3.67
1.22
-1.06
-3.36
-5.96
-9.09
-12.81
-17.01
-21.45
-25.82
-29.75
-32.77
-34.39
-34.18
-31.94
-27.74
-21.98
-15.20
-7.98
-0.73
6.33
13.12
19.54
25.42
30.45
34.29
36.65
37.39
36.66
34.85
32.52
30.25
28.45
27.31
26.78
26.65
26.67
26.61
26.28
25.47
24.01
21.74
18.61
14.77
10.51
6.23
2.24
-1.37
-4.72
-8.05
-11.64
-15.64
-20.07
-24.85
-29.95
-35.38
-41.09
-46.84
-52.09
-56.05
-57.83
-56.80
-52.77
-46.02
-37.25
-27.26
-16.79
-6.38
3.60
12.86
21.19
28.34
34.09
38.31
40.96
42.12
42.03
41.01
39.41
37.56
35.64
33.67
31.60
29.33
26.85
24.23
21.64
19.19
16.92
14.75
12.59
10.31
7.86
5.18
2.24
-1.04
-4.65
-8.55
-12.54
-16.43
-20.11
-23.62
-27.13
-30.92
-35.18
-39.89
-44.78
-49.29
-52.78
-54.56
-54.19
-51.50
-46.62
-39.92
-31.87
-22.96
-13.65
-4.40
4.32
12.03
18.34
23.05
26.24
28.17
29.21
29.66
29.71
29.38
28.66
27.49
25.90
23.92
21.71
19.39
17.12
15.00
13.01
11.03
8.83
6.23
3.15
-0.36
-4.13
-8.01
-11.92
-15.96
-20.26
-24.91
-29.92
-35.17
-40.43
-45.40
-49.67
-52.75
-54.11
-53.33
-50.24
-44.95
-37.86
-29.49
-20.40
-11.06
-1.86
6.84
14.69
21.36
26.67
30.59
33.24
34.90
35.85
36.32
36.46
36.27
35.72
34.75
33.33
31.52
29.41
27.12
24.69
22.06
19.09
15.61
11.54
7.00
2.25
-2.36
-6.51
-10.04
-13.01
-15.64
-18.30
-21.41
-25.30
-30.12
-35.69
-41.47
-46.65
-50.32
-51.74
-50.52
-46.65
-40.45
-32.39
-22.97
-12.71
-2.16
8.08
17.38
25.20
31.19
35.32
37.79
38.94
39.15
38.63
37.52
35.83
33.57
30.78
27.60
24.22
20.93
18.03
15.80
14.41
13.80
13.63
13.32
12.16
9.58
5.35
-0.28
-6.66
-12.94
-18.39
-22.61
-25.69
-28.12
-30.51
-33.34
-36.74
-40.42
-43.74
-45.96
-46.42
-44.72
-40.86
-35.13
-28.05
-20.20
-12.10
-4.20
3.17
9.68
15.13
19.38
22.44
24.39
25.31
25.20
24.03
21.96
19.41
17.24
16.36
17.48
20.64
25.18
29.84
33.33
34.68
33.56
30.25
25.37
19.63
13.60
7.66
2.00
-3.35
-8.44
-13.48
-18.72
-24.47
-30.87
-37.78
-44.69
-50.72
-54.86
-56.24
-54.40
-49.46
-42.02
-33.01
-23.37
-13.86
-4.93
3.21
10.48
16.80
22.01
25.94
28.52
29.87
30.34
30.33
30.16
29.92
29.48
28.64
27.28
25.47
23.40
21.21
18.92
16.36
13.28
9.55
5.23
0.58
-4.07
-8.45
-12.46
-16.11
-19.53
-22.83
-26.15
-29.60
-33.34
-37.50
-42.07
-46.82
-51.25
-54.60
-56.08
-55.06
-51.28
-44.93
-36.55
-26.89
-16.65
-6.39
3.52
12.84
21.38
28.91
35.14
39.88
43.05
44.69
45.03
44.30
42.75
40.57
37.91
34.88
31.68
28.49
25.50
22.87
20.65
18.76
16.97
14.99
12.51
9.38
5.63
1.50
-2.69
-6.69
-10.39
-13.84
-17.23
-20.72
-24.47
-28.56
-33.04
-37.91
-43.03
-48.06
-52.42
-55.38
-56.28
-54.68
-50.52
-44.08
-35.92
-26.70
-17.07
-7.59
1.34
9.44
16.56
22.58
27.40
30.93
33.16
34.17
34.18
33.46
32.28
30.76
28.97
26.92
24.68
22.44
20.41
18.72
17.29
15.86
14.09
11.69
8.60
4.90
0.83
-3.33
-7.40
-11.26
-14.90
-18.41
-21.97
-25.79
-30.08
-34.87
-39.93
-44.66
-48.26
-49.94
-49.10
-45.58
-39.59
-31.68
-22.46
-12.53
-2.39
7.54
16.90
25.34
32.52
38.18
42.17
44.53
45.45
45.23
44.24
42.73
40.95
39.02
37.04
35.09
33.11
30.97
28.50
25.58
22.28
18.84
15.57
12.66
10.06
7.50
4.67
1.45
-2.11
-5.81
-9.49
-13.18
-17.09
-21.40
-26.19
-31.38
-36.81
-42.26
-47.52
-52.22
-55.85
-57.76
-57.38
-54.36
-48.76
-41.02
-31.81
-21.82
-11.63
-1.66
7.75
16.33
23.81
29.96
34.66
37.93
39.92
40.90
41.11
40.76
39.98
38.82
37.32
35.52
33.53
31.45
29.40
27.43
25.49
23.52
21.41
19.05
16.42
13.53
10.46
7.28
4.07
0.84
-2.37
-5.58
-8.83
-12.16
-15.62
-19.34
-23.45
-28.09
-33.35
-39.19
-45.33
-51.24
-56.14
-59.17
-59.60
-56.99
-51.35
-43.15
-33.10
-22.05
-10.81
-0.02
9.84
18.38
25.38
30.69
34.41
36.74
38.02
38.61
38.79
38.69
38.26
37.38
35.89
33.73
30.99
27.93
24.79
21.83
19.15
16.68
14.31
11.87
9.27
6.49
3.56
0.49
-2.70
-6.05
-9.59
-13.35
-17.37
-21.72
-26.48
-31.73
-37.31
-42.82
-47.51
-50.53
-51.08
-48.71
-43.47
-35.83
-26.57
-16.50
-6.32
3.50
12.60
20.77
27.77
33.42
37.58
40.23
41.48
41.58
40.81
39.46
37.74
35.78
33.62
31.30
28.86
26.38
23.96
21.65
19.46
17.32
15.07
12.57
9.68
6.36
2.62
-1.40
-5.54
-9.60
-13.44
-16.98
-20.25
-23.39
-26.62
-30.20
-34.39
-39.29
-44.85
-50.69
-56.16
-60.42
-62.62
-62.08
-58.50
-52.01
-43.16
-32.70
-21.45
-10.08
0.92
11.23
20.65
28.98
36.01
41.54
45.48
47.90
49.05
49.33
49.11
48.65
47.97
46.92
45.28
42.94
39.93
36.40
32.59
28.63
24.61
20.55
16.50
12.56
8.82
5.31
1.96
-1.41
-4.96
-8.77
-12.81
-16.91
-20.95
-24.80
-28.46
-31.96
-35.45
-39.09
-43.05
-47.40
-52.00
-56.44
-60.05
-62.03
-61.69
-58.67
-53.02
-45.14
-35.66
-25.20
-14.30
-3.42
6.96
16.37
24.38
30.69
35.25
38.19
39.80
40.39
40.22
39.44
38.14
36.36
34.14
31.56
28.74
25.82
22.94
20.22
17.69
15.28
12.85
10.18
7.13
3.66
-0.13
-4.05
-7.85
-11.34
-14.50
-17.46
-20.48
-23.90
-27.97
-32.73
-38.00
-43.32
-48.10
-51.64
-53.31
-52.64
-49.39
-43.64
-35.75
-26.31
-16.01
-5.49
4.70
14.16
22.58
29.71
35.36
39.42
41.90
42.98
43.04
42.51
41.77
41.07
40.49
39.91
39.15
38.06
36.63
34.95
33.11
31.18
29.13
26.87
24.34
21.52
18.46
15.19
11.71
8.04
4.25
0.55
-2.79
-5.56
-7.85
-10.00
-12.66
-16.47
-21.83
-28.70
-36.54
-44.41
-51.14
-55.66
-57.16
-55.32
-50.26
-42.54
-32.99
-22.50
-11.90
-1.75
7.59
16.03
23.56
30.15
35.63
39.63
41.70
41.46
38.84
34.20
28.31
22.11
16.53
12.16
9.18
7.41
6.45
5.90
5.49
5.11
4.74
4.33
3.75
2.74
1.01
-1.65
-5.22
-9.46
-13.97
-18.31
-22.20
-25.53
-28.41
-31.05
-33.72
-36.67
-40.12
-44.12
-48.54
-52.94
-56.66
-58.98
-59.31
-57.45
-53.58
-48.15
-41.71
-34.75
-27.64
-20.64
-13.93
-7.68
-2.02
2.91
7.02
10.20
12.42
13.76
14.45
14.92
15.67
17.12
19.48
22.66
26.35
30.09
33.34
35.68
36.78
36.47
34.78
31.90
28.09
23.62
18.79
13.84
9.06
4.71
0.92
-2.32
-5.30
-8.44
-12.15
-16.66
-21.79
-27.07
-31.82
-35.45
-37.53
-37.81
-36.13
-32.40
-26.64
-19.08
-10.36
-1.38
6.91
13.80
19.01
22.75
25.46
27.69
29.87
32.23
34.81
37.42
39.74
41.34
41.86
41.21
39.57
37.41
35.15
33.05
31.06
28.90
26.27
23.01
19.15
14.81
10.09
5.11
-0.01
-5.10
-9.95
-14.33
-18.13
-21.28
-23.70
-25.24
-25.67
-24.86
-22.97
-20.54
-18.40
-17.28
-17.59
-19.08
-20.91
-21.91
-20.96
-17.39
-11.11
-2.61
7.25
17.52
27.44
36.48
44.34
50.75
55.47
58.28
59.15
58.34
56.45
54.10
51.67
49.12
46.05
42.02
36.91
31.06
25.16
19.87
15.56
12.23
9.64
7.51
5.66
3.94
2.22
0.28
-2.08
-4.95
-8.24
-11.67
-14.95
-17.88
-20.46
-22.85
-25.28
-27.93
-30.86
-34.02
-37.29
-40.56
-43.70
-46.47
-48.56
-49.53
-49.01
-46.80
-43.04
-38.18
-32.85
-27.60
-22.69
-18.08
-13.55
-8.90
-4.13
0.55
4.81
8.25
10.55
11.55
11.22
9.65
7.04
3.65
-0.22
-4.19
-7.92
-11.12
-13.58
-15.28
-16.37
-17.08
-17.68
-18.35
-19.18
-20.16
-21.25
-22.38
-23.57
-24.82
-26.16
-27.58
-29.05
-30.54
-32.03
-33.53
-35.08
-36.71
-38.53
-40.70
-43.41
-46.75
-50.62
-54.59
-57.91
-59.65
-58.97
-55.45
-49.18
-40.71
-30.85
-20.33
-9.71
0.68
10.61
19.89
28.28
35.58
41.62
46.34
49.69
51.67
52.31
51.67
49.98
47.55
44.72
41.84
39.09
36.54
34.20
32.01
29.89
27.74
25.43
22.84
19.93
16.76
13.54
10.47
7.75
5.40
3.33
1.31
-0.83
-3.21
-5.76
-8.37
-10.98
-13.65
-16.63
-20.24
-24.69
-29.91
-35.47
-40.57
-44.30
-45.84
-44.70
-40.77
-34.35
-25.96
-16.31
-6.15
3.83
13.10
21.31
28.31
34.13
38.89
42.64
45.43
47.27
48.21
48.37
47.92
47.01
45.75
44.17
42.34
40.37
38.41
36.55
34.77
32.95
30.83
28.22
25.09
21.58
17.97
14.52
11.34
8.36
5.38
2.21
-1.25
-4.92
-8.63
-12.21
-15.59
-18.88
-22.28
-25.99
-30.10
-34.50
-38.93
-42.97
-46.19
-48.12
-48.36
-46.61
-42.79
-37.00
-29.63
-21.24
-12.45
-3.86
4.13
11.26
17.44
22.62
26.76
29.81
31.77
32.64
32.49
31.42
29.55
27.03
24.05
20.87
17.79
15.05
12.83
11.10
9.65
8.19
6.41
4.14
1.38
-1.73
-5.01
-8.28
-11.43
-14.42
-17.29
-20.16
-23.19
-26.53
-30.33
-34.61
-39.22
-43.89
-48.16
-51.52
-53.44
-53.48
-51.37
-47.11
-40.92
-33.20
-24.49
-15.30
-6.12
2.63
10.64
17.59
23.27
27.57
30.50
32.22
32.97
33.02
32.58
31.80
30.74
29.46
27.95
26.28
24.51
22.71
20.94
19.22
17.48
15.58
13.37
10.71
7.61
4.18
0.67
-2.68
-5.74
-8.54
-11.34
-14.50
-18.38
-23.21
-28.95
-35.18
-41.16
-45.97
-48.77
-49.03
-46.73
-42.30
-36.41
-29.66
-22.46
-14.97
-7.26
0.52
8.03
14.85
20.58
25.05
28.27
30.43
31.70
32.23
32.05
31.23
29.85
28.04
25.92
23.59
21.09
18.51
15.95
13.59
11.62
10.11
9.03
8.16
7.25
6.03
4.35
2.17
-0.48
-3.58
-7.09
-11.04
-15.46
-20.37
-25.76
-31.52
-37.42
-43.10
-48.05
-51.70
-53.56
-53.29
-50.83
-46.35
-40.18
-32.76
-24.53
-15.89
-7.21
1.14
8.80
15.40
20.63
24.32
26.49
27.41
27.49
27.19
26.82
26.46
26.00
25.27
24.17
22.77
21.23
19.69
18.19
16.58
14.68
12.32
9.47
6.24
2.79
-0.67
-4.07
-7.37
-10.65
-14.07
-17.82
-22.07
-26.88
-32.07
-37.22
-41.69
-44.72
-45.70
-44.23
-40.28
-34.11
-26.26
-17.37
-8.15
0.80
9.00
16.16
22.21
27.20
31.29
34.67
37.40
39.49
40.84
41.34
40.90
39.51
37.31
34.56
31.56
28.62
25.91
23.49
21.29
19.22
17.15
14.96
12.56
9.84
6.78
3.42
-0.09
-3.60
-7.01
-10.41
-14.04
-18.25
-23.31
-29.27
-35.89
-42.61
-48.68
-53.22
-55.50
-55.02
-51.71
-45.88
-38.13
-29.18
-19.65
-9.99
-0.48
8.64
17.06
24.41
30.32
34.60
37.25
38.49
38.66
38.07
36.92
35.36
33.48
31.43
29.34
27.39
25.62
24.01
22.48
20.92
19.30
17.64
15.91
14.07
11.99
9.53
6.62
3.31
-0.26
-3.93
-7.59
-11.26
-15.05
-19.19
-23.82
-28.97
-34.40
-39.67
-44.16
-47.25
-48.44
-47.47
-44.28
-39.03
-31.96
-23.36
-13.58
-3.05
7.65
17.83
26.76
33.75
38.36
40.52
40.56
39.21
37.30
35.59
34.41
33.68
33.02
31.95
30.16
27.66
24.68
21.52
18.39
15.33
12.30
9.21
6.09
3.00
-0.01
-2.93
-5.85
-8.90
-12.21
-15.87
-19.96
-24.50
-29.49
-34.80
-40.09
-44.81
-48.29
-49.88
-49.13
-45.91
-40.40
-33.03
-24.33
-14.83
-5.04
4.58
13.61
21.66
28.43
33.74
37.56
40.01
41.33
41.74
41.47
40.68
39.46
37.88
36.06
34.13
32.19
30.32
28.47
26.54
24.44
22.12
19.53
16.64
13.44
9.90
6.10
2.16
-1.77
-5.58
-9.31
-13.11
-17.19
-21.66
-26.56
-31.83
-37.38
-43.11
-48.80
-54.03
-58.17
-60.46
-60.27
-57.34
-51.86
-44.39
-35.66
-26.30
-16.77
-7.31
1.90
10.68
18.68
25.51
30.77
34.24
35.89
35.99
34.99
33.41
31.65
29.91
28.13
26.16
23.86
21.27
18.55
15.94
13.58
11.35
9.03
6.37
3.25
-0.22
-3.75
-7.05
-9.93
-12.41
-14.64
-16.85
-19.28
-22.16
-25.73
-30.13
-35.33
-41.01
-46.51
-50.95
-53.37
-53.06
-49.68
-43.43
-34.91
-24.99
-14.57
-4.43
4.85
12.94
19.70
25.14
29.38
32.56
34.84
36.39
37.37
37.88
38.00
37.71
36.93
35.59
33.71
31.44
29.02
26.73
24.70
22.84
20.94
18.65
15.74
12.17
8.16
4.04
0.13
-3.36
-6.43
-9.26
-12.15
-15.38
-19.22
-23.77
-29.05
-34.83
-40.67
-45.89
-49.63
-51.10
-49.74
-45.45
-38.63
-30.05
-20.64
-11.13
-1.99
6.65
14.80
22.46
29.46
35.48
40.17
43.27
44.76
44.84
43.91
42.40
40.64
38.78
36.83
34.72
32.45
30.08
27.76
25.61
23.61
21.62
19.41
16.80
13.76
10.40
6.94
3.52
0.16
-3.24
-6.78
-10.50
-14.29
-18.02
-21.66
-25.38
-29.48
-34.21
-39.58
-45.19
-50.27
-53.94
-55.53
-54.75
-51.74
-46.92
-40.79
-33.74
-26.04
-17.88
-9.43
-0.97
7.18
14.67
21.17
26.47
30.50
33.33
35.13
36.09
36.33
35.93
34.90
33.27
31.15
28.71
26.15
23.63
21.27
19.16
17.24
15.40
13.41
11.00
7.96
4.23
-0.08
-4.71
-9.38
-13.91
-18.27
-22.63
-27.21
-32.21
-37.70
-43.63
-49.81
-55.91
-61.52
-66.16
-69.30
-70.49
-69.36
-65.68
-59.34
-50.37
-38.93
-25.36
-10.23
5.68
21.44
36.09
48.86
59.32
67.45
73.59
78.26
81.96
84.96
87.21
88.42
88.25
86.60
83.68
80.03
76.34
73.11
70.41
67.86
64.78
60.54
54.87
48.02
40.61
33.40
26.88
21.22
16.17
11.27
6.01
-0.01
-7.04
-15.12
-24.01
-33.11
-41.49
-48.05
-51.89
-52.59
-50.39
-46.08
-40.61
-34.76
-28.86
-22.79
-16.23
-9.02
-1.43
5.76
11.40
14.39
14.05
10.42
4.26
-3.22
-10.79
-17.53
-23.01
-27.20
-30.24
-32.25
-33.25
-33.20
-32.19
-30.43
-28.29
-26.15
-24.29
-22.85
-21.76
-20.79
-19.56
-17.73
-15.10
-11.77
-8.18
-5.01
-3.05
-2.96
-5.05
-9.20
-14.78
-20.75
-25.89
-29.02
-29.22
-26.04
-19.58
-10.43
0.42
11.86
22.87
32.75
41.10
47.86
53.07
56.80
59.00
59.61
58.68
56.43
53.33
49.88
46.48
43.30
40.34
37.40
34.34
31.08
27.55
23.78
19.81
15.75
11.77
8.06
4.72
1.69
-1.27
-4.53
-8.47
-13.29
-19.02
-25.36
-31.83
-37.88
-43.09
-47.37
-51.04
-54.72
-59.04
-64.29
-70.11
-75.57
-79.45
-80.75
-79.01
-74.46
-67.80
-59.83
-51.17
-42.12
-32.86
-23.58
-14.61
-6.40
0.63
6.28
10.58
13.72
15.97
17.51
18.40
18.66
18.35
17.62
16.70
15.86
15.28
15.00
14.89
14.70
14.12
12.87
10.83
8.10
4.95
1.82
-0.96
-3.26
-5.26
-7.44
-10.33
-14.32
-19.46
-25.48
-31.86
-37.97
-43.19
-46.88
-48.49
-47.57
-43.98
-37.97
-30.19
-21.58
-12.99
-5.03
2.06
8.32
13.80
18.35
21.40
22.12
19.77
14.11
5.73
-3.86
-12.57
-18.28
-19.51
-15.91
-8.36
1.34
11.08
19.05
24.11
25.96
25.09
22.55
19.58
17.23
15.97
15.60
15.37
14.41
12.09
8.15
2.65
-4.24
-12.38
-21.65
-31.61
-41.40
-49.72
-55.30
-57.31
-55.60
-50.57
-42.84
-33.07
-22.01
-10.59
0.12
9.18
16.09
21.06
24.74
27.78
30.39
32.29
33.04
32.55
31.33
30.19
29.85
30.44
31.42
32.03
31.64
30.09
27.62
24.63
21.38
17.93
14.17
9.95
5.21
-0.01
-5.50
-10.95
-15.96
-20.28
-23.94
-27.34
-31.07
-35.59
-40.77
-45.77
-49.31
-50.13
-47.56
-41.75
-33.54
-24.02
-14.12
-4.42
4.81
13.38
21.04
27.50
32.56
36.22
38.71
40.46
41.83
43.08
44.18
44.89
44.89
43.89
41.80
38.82
35.36
31.93
28.97
26.71
25.09
23.84
22.58
20.96
18.73
15.79
12.15
7.90
3.26
-1.51
-6.13
-10.36
-14.16
-17.68
-21.31
-25.45
-30.40
-36.09
-41.98
-47.16
-50.60
-51.44
-49.27
-44.26
-37.04
-28.46
-19.37
-10.40
-1.89
5.96
13.10
19.42
24.80
29.13
32.36
34.53
35.75
36.15
35.86
34.93
33.44
31.44
29.03
26.35
23.53
20.71
17.91
15.14
12.33
9.39
6.22
2.72
-1.11
-5.19
-9.36
-13.45
-17.38
-21.22
-25.22
-29.69
-34.78
-40.40
-46.05
-50.92
-54.11
-54.84
-52.69
-47.71
-40.35
-31.33
-21.44
-11.41
-1.75
7.18
15.17
22.05
27.68
31.91
34.68
36.09
36.40
35.97
35.18
34.26
33.30
32.25
31.02
29.57
27.98
26.40
24.89
23.39
21.74
19.71
17.14
13.97
10.20
5.96
1.39
-3.29
-7.85
-12.07
-15.87
-19.32
-22.70
-26.40
-30.84
-36.21
-42.36
-48.71
-54.33
-58.21
-59.47
-57.70
-52.97
-45.82
-36.98
-27.16
-16.91
-6.61
3.37
12.62
20.67
27.11
31.82
34.91
36.69
37.54
37.67
37.19
36.16
34.63
32.78
30.79
28.83
26.92
25.02
23.01
20.83
18.49
16.02
13.46
10.81
7.99
4.93
1.58
-2.08
-5.96
-9.95
-13.91
-17.81
-21.79
-26.08
-30.97
-36.55
-42.60
-48.51
-53.41
-56.42
-56.88
-54.55
-49.63
-42.63
-34.18
-24.91
-15.32
-5.77
3.42
12.02
19.78
26.44
31.76
35.54
37.75
38.52
38.17
37.10
35.69
34.18
32.72
31.33
29.98
28.64
27.21
25.59
23.69
21.46
18.95
16.26
13.44
10.46
7.24
3.67
-0.27
-4.44
-8.64
-12.69
-16.49
-20.09
-23.69
-27.56
-31.96
-37.06
-42.77
-48.77
-54.34
-58.58
-60.57
-59.62
-55.50
-48.54
-39.44
-29.11
-18.44
-8.15
1.29
9.63
16.77
22.68
27.37
30.82
33.08
34.21
34.39
33.86
32.91
31.77
30.54
29.20
27.65
25.84
23.78
21.63
19.52
17.51
15.49
13.18
10.36
6.91
2.96
-1.15
-5.08
-8.61
-11.78
-14.83
-18.08
-21.85
-26.31
-31.53
-37.42
-43.72
-49.90
-55.15
-58.48
-59.01
-56.22
-50.20
-41.60
-31.38
-20.58
-9.96
-0.00
9.09
17.22
24.27
30.09
34.53
37.49
39.06
39.52
39.26
38.72
38.15
37.58
36.81
35.57
33.70
31.31
28.73
26.33
24.36
22.78
21.31
19.50
16.97
13.53
9.26
4.49
-0.39
-5.05
-9.29
-13.15
-16.83
-20.63
-24.84
-29.70
-35.30
-41.51
-47.91
-53.79
-58.18
-60.09
-58.82
-54.17
-46.58
-36.92
-26.23
-15.35
-4.83
5.09
14.33
22.72
30.00
35.85
40.03
42.51
43.51
43.39
42.62
41.56
40.38
39.05
37.40
35.31
32.83
30.19
27.73
25.72
24.16
22.74
21.04
18.69
15.54
11.76
7.66
3.56
-0.42
-4.30
-8.19
-12.18
-16.32
-20.69
-25.40
-30.61
-36.36
-42.40
-48.04
-52.34
-54.27
-53.16
-48.82
-41.63
-32.34
-21.84
-10.93
-0.21
9.88
18.99
26.82
33.14
37.82
40.90
42.55
43.07
42.80
41.97
40.73
39.08
36.97
34.40
31.49
28.45
25.53
22.96
20.81
19.00
17.27
15.27
12.65
9.22
5.01
0.32
-4.41
-8.80
-12.62
-16.00
-19.30
-22.98
-27.41
-32.72
-38.79
-45.26
-51.57
-56.97
-60.67
-61.92
-60.19
-55.33
-47.62
-37.71
-26.46
-14.78
-3.47
6.91
16.00
23.63
29.76
34.45
37.85
40.16
41.57
42.21
42.16
41.41
40.01
38.05
35.71
33.19
30.70
28.34
26.16
24.13
22.19
20.28
18.24
15.89
13.04
9.52
5.36
0.75
-3.94
-8.38
-12.38
-16.01
-19.55
-23.40
-27.89
-33.17
-39.13
-45.39
-51.32
-56.14
-59.03
-59.34
-56.71
-51.19
-43.32
-33.90
-23.85
-13.95
-4.65
3.83
11.50
18.38
24.41
29.46
33.38
36.13
37.84
38.77
39.21
39.33
39.11
38.42
37.17
35.38
33.28
31.16
29.24
27.52
25.76
23.60
20.71
16.94
12.40
7.39
2.25
-2.67
-7.18
-11.23
-14.95
-18.57
-22.40
-26.78
-31.91
-37.75
-43.93
-49.73
-54.21
-56.43
-55.76
-52.04
-45.59
-37.09
-27.34
-17.07
-6.87
2.83
11.66
19.34
25.69
30.63
34.22
36.62
37.99
38.52
38.36
37.66
36.57
35.25
33.78
32.17
30.41
28.46
26.38
24.26
22.19
20.23
18.31
16.29
13.95
11.07
7.53
3.38
-1.22
-5.94
-10.46
-14.54
-18.13
-21.40
-24.70
-28.46
-32.96
-38.26
-44.07
-49.76
-54.47
-57.33
-57.61
-54.94
-49.37
-41.39
-31.78
-21.41
-11.10
-1.40
7.36
15.09
21.73
27.20
31.43
34.29
35.81
36.17
35.68
34.67
33.41
32.04
30.55
28.91
27.09
25.16
23.19
21.28
19.45
17.59
15.58
13.26
10.49
7.26
3.65
-0.19
-4.09
-7.91
-11.60
-15.20
-18.80
-22.61
-26.91
-31.95
-37.85
-44.40
-50.99
-56.65
-60.36
-61.27
-59.07
-53.98
-46.65
-37.96
-28.70
-19.48
-10.65
-2.44
5.00
11.55
17.10
21.55
24.90
27.16
28.47
29.05
29.12
28.88
28.43
27.75
26.77
25.44
23.78
21.94
20.03
18.15
16.26
14.26
11.97
9.34
6.40
3.26
0.05
-3.15
-6.32
-9.47
-12.65
-15.92
-19.43
-23.43
-28.14
-33.62
-39.54
-45.12
-49.31
-51.03
-49.63
-45.08
-37.94
-29.23
-19.97
-10.99
-2.70
4.85
11.80
18.36
24.65
30.59
35.97
40.44
43.70
45.58
46.11
45.47
43.96
41.91
39.58
37.20
34.93
32.88
31.09
29.52
28.01
26.34
24.35
21.97
19.28
16.44
13.64
10.98
8.44
5.90
3.14
-0.00
-3.65
-7.86
-12.58
-17.79
-23.42
-29.47
-35.95
-42.90
-50.21
-57.51
-64.08
-68.94
-71.07
-69.77
-64.91
-57.04
-47.21
-36.67
-26.51
-17.43
-9.79
-3.67
1.00
4.28
6.26
7.02
6.76
5.71
4.15
2.33
0.43
-1.39
-3.03
-4.30
-4.96
-4.74
-3.42
-0.94
2.62
7.00
11.91
17.08
22.31
27.49
32.52
37.29
41.72
45.80
49.72
53.82
58.55
64.28
71.17
78.96
87.11
94.93
101.78
107.21
110.83
112.31
111.23
107.35
100.86
92.59
83.93
76.43
71.21
68.49
67.57
67.21
66.14
63.51
59.04
52.76
44.75
34.96
23.19
9.20
-7.05
-25.32
-45.10
-65.71
-86.39
-106.49
-125.47
-142.94
-158.59
-172.14
-183.33
-191.99
-198.11
-201.89
-203.69
-203.91
-202.83
-200.51
-196.87
-191.84
-185.54
-178.33
-170.72
-163.22
-156.19
-149.69
-143.49
-137.19
-130.34
-122.56
-113.54
-103.07
-90.94
-77.08
-61.48
-44.43
-26.40
-8.02
10.18
27.86
44.84
60.96
75.90
89.14
100.08
108.35
113.98
117.43
119.36
120.44
121.12
121.69
122.26
122.89
123.54
124.05
124.26
124.04
123.46
122.68
121.76
120.51
118.47
115.15
110.41
104.69
98.82
93.67
89.72
86.84
84.41
81.80
78.62
74.89
70.83
66.57
62.09
57.29
52.20
47.15
42.65
39.13
36.72
35.11
33.73
32.04
29.69
26.70
23.27
19.62
15.85
11.85
7.36
2.11
-4.01
-10.81
-17.80
-24.31
-29.77
-33.97
-37.12
-39.74
-42.35
-45.16
-47.97
-50.27
-51.61
-51.79
-50.98
-49.56
-47.89
-46.11
-44.20
-42.06
-39.81
-37.77
-36.46
-36.37
-37.71
-40.32
-43.56
-46.58
-48.41
-48.28
-45.76
-40.87
-34.01
-25.86
-17.24
-8.87
-1.33
5.08
10.25
14.20
17.01
18.79
19.62
19.68
19.17
18.38
17.56
16.82
16.12
15.28
14.08
12.42
10.33
7.98
5.54
3.04
0.36
-2.70
-6.27
-10.26
-14.36
-18.15
-21.29
-23.74
-25.76
-27.87
-30.60
-34.24
-38.72
-43.50
-47.77
-50.64
-51.42
-49.72
-45.60
-39.41
-31.69
-23.00
-13.80
-4.50
4.54
12.91
20.23
26.12
30.39
33.10
34.51
35.04
35.05
34.77
34.23
33.39
32.32
31.20
30.35
30.06
30.39
31.20
32.19
33.00
33.45
33.47
33.09
32.27
30.82
28.50
25.14
20.72
15.39
9.43
3.13
-3.25
-9.40
-14.94
-19.34
-22.02
-22.61
-21.07
-17.80
-13.43
-8.63
-3.87
0.70
5.13
9.50
13.72
17.49
20.51
22.50
23.36
23.19
22.28
20.98
19.64
18.60
18.01
17.84
17.86
17.79
17.36
16.49
15.24
13.78
12.20
10.47
8.52
6.29
3.88
1.49
-0.65
-2.52
-4.32
-6.44
-9.31
-13.30
-18.60
-25.11
-32.44
-39.87
-46.41
-51.06
-53.08
-52.28
-49.00
-43.97
-38.04
-31.83
-25.62
-19.46
-13.32
-7.28
-1.51
3.80
8.54
12.72
16.46
19.82
22.86
25.57
27.92
29.85
31.31
32.23
32.59
32.44
31.89
31.06
29.93
28.36
26.07
22.83
18.59
13.53
8.05
2.56
-2.69
-7.64
-12.48
-17.46
-22.87
-28.89
-35.56
-42.69
-49.78
-56.01
-60.41
-62.09
-60.53
-55.77
-48.35
-39.16
-29.13
-19.02
-9.32
-0.26
8.03
15.43
21.80
27.03
31.11
34.15
36.45
38.35
40.12
41.83
43.31
44.29
44.57
44.16
43.27
42.16
40.90
39.20
36.55
32.40
26.46
18.91
10.29
1.36
-7.22
-15.09
-22.16
-28.62
-34.77
-40.90
-47.25
-53.91
-60.75
-67.35
-73.00
-76.85
-78.11
-76.33
-71.51
-64.16
-55.06
-45.07
-34.83
-24.71
-14.81
-5.20
4.00
12.45
19.71
25.37
29.26
31.48
32.43
32.67
32.65
32.56
32.37
31.86
30.90
29.50
27.87
26.24
24.72
23.22
21.46
19.15
16.19
12.66
8.83
4.92
1.07
-2.77
-6.74
-10.99
-15.64
-20.71
-26.26
-32.28
-38.69
-45.22
-51.38
-56.50
-59.82
-60.71
-58.85
-54.28
-47.38
-38.77
-29.16
-19.19
-9.37
-0.05
8.54
16.25
22.93
28.44
32.70
35.70
37.51
38.33
38.42
38.03
37.37
36.57
35.69
34.71
33.60
32.32
30.88
29.28
27.56
25.72
23.75
21.62
19.28
16.77
14.12
11.45
8.80
6.17
3.45
0.36
-3.43
-8.24
-14.33
-21.70
-30.04
-38.71
-46.72
-52.99
-56.54
-56.76
-53.60
-47.53
-39.44
-30.32
-21.02
-12.12
-3.92
3.50
10.11
15.92
20.90
24.99
28.11
30.16
31.11
30.99
29.95
28.21
26.01
23.56
20.94
18.18
15.29
12.32
9.43
6.71
4.21
1.80
-0.75
-3.62
-6.84
-10.25
-13.53
-16.40
-18.77
-20.79
-22.90
-25.66
-29.55
-34.74
-40.99
-47.58
-53.46
-57.45
-58.58
-56.31
-50.69
-42.30
-32.04
-20.93
-9.86
0.53
9.85
17.98
24.93
30.77
35.59
39.39
42.16
43.88
44.58
44.41
43.59
42.38
41.01
39.61
38.22
36.77
35.15
33.27
31.13
28.80
26.40
24.03
21.70
19.23
16.43
13.11
9.31
5.28
1.37
-2.14
-5.18
-7.93
-10.75
-14.05
-18.13
-23.15
-29.02
-35.40
-41.71
-47.13
-50.79
-51.90
-50.05
-45.24
-37.94
-28.88
-18.87
-8.63
1.23
10.29
18.24
24.87
30.08
33.89
36.39
37.75
38.15
37.75
36.68
35.07
33.05
30.74
28.27
25.78
23.35
21.08
18.99
17.06
15.18
13.24
11.11
8.75
6.14
3.30
0.24
-2.99
-6.36
-9.83
-13.38
-17.03
-20.83
-24.89
-29.37
-34.33
-39.75
-45.36
-50.73
-55.17
-57.93
-58.30
-55.86
-50.59
-42.93
-33.63
-23.57
-13.50
-3.93
4.88
12.83
19.87
25.96
31.00
34.97
37.84
39.66
40.49
40.40
39.52
38.03
36.19
34.25
32.42
30.77
29.22
27.61
25.77
23.59
21.10
18.36
15.51
12.60
9.69
6.88
4.27
2.00
0.12
-1.44
-2.92
-4.63
-6.91
-10.01
-14.05
-19.05
-24.90
-31.32
-37.82
-43.73
-48.22
-50.51
-50.03
-46.60
-40.55
-32.67
-24.07
-15.96
-9.29
-4.51
-1.41
0.74
2.82
5.53
9.07
13.14
17.20
20.75
23.60
25.85
27.70
29.23
30.27
30.57
29.89
28.24
25.96
23.53
21.37
19.68
18.33
16.95
15.17
12.73
9.66
6.22
2.76
-0.47
-3.39
-6.16
-9.09
-12.50
-16.62
-21.53
-27.10
-32.88
-38.22
-42.31
-44.44
-44.16
-41.37
-36.38
-29.68
-21.88
-13.48
-4.98
3.24
10.79
17.32
22.57
26.34
28.51
29.08
28.23
26.28
23.73
21.10
18.78
16.86
15.14
13.32
11.20
8.84
6.47
4.40
2.74
1.33
-0.16
-2.02
-4.27
-6.58
-8.38
-9.17
-8.73
-7.36
-5.72
-4.75
-5.37
-8.31
-13.84
-21.57
-30.30
-38.15
-42.84
-42.42
-35.96
-23.99
-8.41
8.05
22.76
33.88
40.76
43.76
43.81
41.90
38.90
35.40
31.81
28.43
25.45
22.94
20.71
18.51
16.10
13.49
11.09
9.75
10.48
14.05
20.55
29.23
38.58
46.73
51.98
53.34
50.73
44.86
36.98
28.47
20.66
14.59
10.90
9.58
9.95
10.68
10.17
7.17
1.33
-6.55
-14.78
-21.44
-25.06
-25.16
-22.23
-17.32
-11.60
-5.91
-0.76
3.59
6.97
9.28
10.53
10.95
10.93
10.85
10.89
10.97
10.77
9.96
8.41
6.26
3.89
1.77
0.25
-0.48
-0.44
0.20
1.18
2.24
3.14
3.69
3.72
3.08
1.71
-0.42
-3.21
-6.46
-9.89
-13.25
-16.47
-19.71
-23.34
-27.88
-33.80
-41.29
-50.17
-59.81
-69.18
-77.02
-82.11
-83.49
-80.83
-74.50
-65.51
-55.23
-44.95
-35.54
-27.31
-20.15
-13.87
-8.50
-4.41
-2.12
-2.00
-3.90
-7.05
-10.20
-11.99
-11.37
-7.93
-1.98
5.55
13.41
20.33
25.32
27.83
27.75
25.34
21.06
15.45
9.07
2.49
-3.78
-9.30
-13.90
-17.70
-21.11
-24.64
-28.65
-33.24
-38.21
-43.23
-48.08
-52.72
-57.23
-61.59
-65.47
-68.25
-69.20
-67.70
-63.54
-56.86
-48.12
-37.88
-26.69
-15.06
-3.46
7.65
17.78
26.52
33.59
38.87
42.42
44.46
45.23
44.99
43.95
42.36
40.52
38.84
37.69
37.35
37.87
38.99
40.30
41.30
41.57
40.79
38.75
35.28
30.36
24.16
17.07
9.69
2.58
-3.90
-9.67
-14.90
-19.85
-24.72
-29.68
-34.87
-40.40
-46.29
-52.30
-57.80
-61.84
-63.41
-61.84
-57.00
-49.39
-39.83
-29.23
-18.32
-7.58
2.65
12.06
20.30
27.09
32.29
35.92
38.19
39.36
39.62
39.11
37.83
35.81
33.08
29.76
26.01
22.09
18.21
14.55
11.22
8.25
5.59
3.17
0.91
-1.21
-3.21
-5.11
-6.99
-9.01
-11.42
-14.49
-18.42
-23.35
-29.24
-36.03
-43.60
-51.78
-60.23
-68.36
-75.41
-80.51
-83.02
-82.67
-79.62
-74.35
-67.46
-59.42
-50.56
-41.18
-31.57
-22.13
-13.11
-4.50
4.09
13.28
23.58
35.12
47.42
59.50
70.19
78.52
84.00
86.56
86.47
84.19
80.28
75.40
70.24
65.41
61.25
57.69
54.27
50.46
45.92
40.72
35.35
30.42
26.38
23.29
20.89
18.68
16.23
13.25
9.68
5.65
1.43
-2.53
-5.67
-7.32
-6.89
-4.07
1.00
7.73
15.29
22.77
29.40
34.67
38.23
39.91
39.59
37.35
33.42
28.34
22.81
17.57
13.26
10.27
8.68
8.28
8.75
9.66
10.66
11.49
12.00
12.06
11.53
10.26
8.12
5.14
1.52
-2.44
-6.42
-10.22
-13.83
-17.33
-20.82
-24.37
-28.06
-32.00
-36.41
-41.44
-46.98
-52.54
-57.23
-60.01
-60.04
-56.94
-50.93
-42.62
-32.77
-22.10
-11.12
-0.26
10.07
19.46
27.50
33.91
38.55
41.45
42.70
42.41
40.77
38.05
34.66
31.08
27.75
24.88
22.48
20.30
18.12
15.79
13.35
10.95
8.67
6.44
4.01
1.09
-2.48
-6.66
-11.12
-15.50
-19.46
-22.93
-26.01
-29.01
-32.27
-36.11
-40.73
-46.07
-51.86
-57.51
-62.22
-65.13
-65.56
-63.15
-57.97
-50.46
-41.29
-31.15
-20.63
-10.10
0.25
10.34
20.16
29.62
38.57
46.80
54.10
60.32
65.39
69.32
72.01
73.34
73.24
71.75
69.17
65.99
62.76
59.84
57.30
54.88
52.17
48.84
44.77
40.05
34.89
29.48
23.80
17.75
11.10
3.71
-4.48
-13.41
-22.84
-32.38
-41.41
-49.18
-54.82
-57.63
-57.22
-53.67
-47.55
-39.77
-31.37
-23.26
-16.06
-10.00
-5.04
-0.99
2.34
5.11
7.45
9.50
11.39
13.18
14.77
15.87
16.18
15.58
14.32
13.00
12.34
12.86
14.55
16.91
19.13
20.43
20.39
18.96
16.35
12.80
8.49
3.47
-2.16
-8.21
-14.45
-20.68
-26.84
-32.91
-38.75
-43.94
-47.77
-49.45
-48.45
-44.83
-39.23
-32.67
-26.06
-19.97
-14.53
-9.56
-4.86
-0.32
3.96
7.77
10.86
13.00
14.02
13.83
12.51
10.15
6.96
3.18
-0.94
-5.05
-8.87
-12.18
-15.14
-18.24
-22.31
-28.14
-36.13
-45.98
-56.73
-67.00
-75.51
-81.40
-84.43
-84.88
-83.36
-80.60
-77.38
-74.49
-72.61
-72.28
-73.68
-76.48
-79.90
-82.87
-84.31
-83.45
-79.88
-73.65
-65.07
-54.58
-42.65
-29.74
-16.32
-2.92
9.98
21.91
32.54
41.72
49.47
55.92
61.19
65.38
68.45
70.32
70.91
70.30
68.74
66.72
64.83
63.56
63.20
63.63
64.29
64.19
62.20
57.32
49.03
37.45
23.35
7.91
-7.58
-21.95
-34.43
-44.61
-52.49
-58.30
-62.39
-64.97
-66.04
-65.41
-62.75
-57.87
-50.84
-42.07
-32.16
-21.70
-11.06
-0.36
10.33
20.87
30.83
39.54
46.33
50.77
52.91
53.20
52.31
50.85
49.16
47.29
45.15
42.65
39.90
37.14
34.58
32.30
30.11
27.66
24.58
20.64
15.87
10.53
4.96
-0.53
-5.79
-10.92
-16.16
-21.84
-28.26
-35.55
-43.61
-52.06
-60.31
-67.68
-73.49
-77.20
-78.50
-77.30
-73.69
-67.95
-60.51
-51.88
-42.59
-33.06
-23.64
-14.57
-6.08
1.65
8.45
14.32
19.37
23.94
28.30
32.50
36.28
39.01
40.01
38.79
35.35
30.15
24.03
17.87
12.29
7.47
3.18
-1.06
-5.65
-10.73
-15.98
-20.80
-24.43
-26.31
-26.27
-24.72
-22.47
-20.52
-19.57
-19.74
-20.42
-20.48
-18.70
-14.20
-6.75
3.24
14.96
27.51
40.16
52.42
63.99
74.64
84.12
92.12
98.31
102.43
104.37
104.27
102.56
99.82
96.62
93.29
89.85
86.11
81.82
76.95
71.72
66.50
61.65
57.26
53.15
48.93
44.17
38.58
32.12
25.05
17.79
10.81
4.48
-1.12
-6.20
-11.27
-16.98
-23.85
-32.19
-41.84
-52.16
-62.14
-70.53
-76.11
-77.90
-75.39
-68.61
-58.13
-44.95
-30.30
-15.46
-1.57
10.49
20.23
27.51
32.48
35.56
37.20
37.79
37.57
36.59
34.81
32.24
28.99
25.37
21.84
18.80
16.50
14.95
13.88
12.88
11.51
9.40
6.40
2.60
-1.67
-5.91
-9.61
-12.47
-14.53
-16.26
-18.36
-21.47
-25.88
-31.26
-36.83
-41.55
-44.48
-45.09
-43.27
-39.26
-33.42
-26.07
-17.52
-8.07
1.83
11.58
20.52
28.07
33.84
37.76
40.03
41.03
41.14
40.65
39.70
38.30
36.48
34.40
32.30
30.46
28.99
27.76
26.41
24.45
21.59
17.76
13.21
8.31
3.39
-1.43
-6.23
-11.21
-16.57
-22.48
-29.01
-36.20
-43.93
-51.83
-59.17
-64.98
-68.23
-68.21
-64.76
-58.34
-49.86
-40.34
-30.60
-21.09
-12.02
-3.51
4.30
11.18
16.89
21.32
24.55
26.77
28.21
28.99
29.14
28.61
27.39
25.56
23.31
20.90
18.53
16.32
14.22
12.08
9.75
7.20
4.47
1.68
-1.07
-3.80
-6.64
-9.73
-13.23
-17.19
-21.58
-26.35
-31.45
-36.84
-42.39
-47.72
-52.21
-55.02
-55.41
-52.93
-47.67
-40.22
-31.40
-22.03
-12.71
-3.75
4.68
12.44
19.29
24.93
29.16
31.92
33.40
33.92
33.83
33.38
32.66
31.65
30.26
28.48
26.32
23.93
21.44
18.95
16.52
14.08
11.53
8.74
5.57
1.96
-2.01
-6.16
-10.24
-14.09
-17.67
-21.20
-25.00
-29.38
-34.48
-40.11
-45.76
-50.70
-54.11
-55.35
-53.99
-49.98
-43.56
-35.23
-25.62
-15.31
-4.83
5.38
14.95
23.55
30.90
36.77
41.12
44.03
45.70
46.32
46.02
44.87
42.90
40.29
37.32
34.38
31.79
29.62
27.63
25.38
22.44
18.56
13.81
8.45
2.85
-2.69
-7.97
-12.86
-17.19
-20.91
-24.05
-26.89
-29.87
-33.51
-38.12
-43.62
-49.52
-54.97
-59.03
-60.94
-60.27
-56.97
-51.27
-43.58
-34.37
-24.09
-13.20
-2.16
8.52
18.34
26.82
33.62
38.61
41.91
43.84
44.75
44.91
44.33
42.84
40.21
36.32
31.30
25.48
19.28
13.13
7.37
2.21
-2.21
-5.86
-8.71
-10.84
-12.37
-13.43
-14.11
-14.48
-14.68
-14.92
-15.56
-17.02
-19.68
-23.72
-29.03
-35.19
-41.50
-47.10
-51.14
-52.98
-52.31
-49.21
-44.12
-37.65
-30.39
-22.76
-14.97
-7.12
0.66
8.10
14.79
20.28
24.21
26.58
27.67
27.95
27.90
27.80
27.68
27.44
26.93
26.17
25.32
24.55
23.92
23.32
22.51
21.28
19.64
17.81
16.14
14.92
14.25
13.97
13.74
13.16
11.87
9.58
6.09
1.35
-4.52
-11.09
-17.63
-23.20
-26.89
-27.96
-26.05
-21.24
-13.93
-4.77
5.38
15.62
25.08
33.07
39.16
43.25
45.50
46.19
45.65
44.15
41.91
39.15
36.07
32.75
29.18
25.24
20.83
16.01
11.00
6.19
1.91
-1.70
-4.76
-7.61
-10.63
-14.10
-18.07
-22.38
-26.76
-30.99
-34.98
-38.91
-43.06
-47.73
-53.07
-59.03
-65.32
-71.53
-77.15
-81.60
-84.32
-84.76
-82.58
-77.73
-70.50
-61.42
-51.11
-40.15
-28.97
-17.94
-7.43
2.14
10.40
17.09
22.15
25.66
27.77
28.61
28.31
27.08
25.26
23.28
21.60
20.50
19.97
19.78
19.54
18.86
17.51
15.45
12.82
9.85
6.74
3.61
0.44
-2.92
-6.67
-11.00
-16.02
-21.77
-28.08
-34.59
-40.64
-45.44
-48.15
-48.22
-45.50
-40.35
-33.42
-25.43
-16.96
-8.33
0.32
8.87
17.07
24.59
30.99
35.91
39.11
40.55
40.46
39.25
37.44
35.60
34.18
33.39
33.16
33.20
33.15
32.60
31.26
28.96
25.68
21.50
16.60
11.28
5.84
0.60
-4.23
-8.60
-12.73
-16.95
-21.62
-26.97
-32.99
-39.40
-45.73
-51.41
-55.91
-58.80
-59.74
-58.54
-55.18
-49.79
-42.69
-34.29
-25.04
-15.35
-5.63
3.77
12.49
20.25
26.79
31.94
35.66
38.00
39.13
39.31
38.91
38.30
37.78
37.59
37.79
38.30
38.93
39.50
39.82
39.78
39.30
38.28
36.62
34.23
31.14
27.47
23.46
19.36
15.25
11.02
6.27
0.54
-6.48
-14.70
-23.51
-31.89
-38.75
-43.23
-44.96
-44.10
-41.15
-36.74
-31.39
-25.43
-19.08
-12.52
-6.04
-0.03
5.08
9.04
11.81
13.56
14.61
15.15
15.28
14.88
13.85
12.20
10.09
7.76
5.31
2.61
-0.70
-4.98
-10.25
-16.12
-21.80
-26.36
-29.04
-29.42
-27.32
-22.77
-15.94
-7.28
2.39
11.73
19.12
23.08
22.79
18.48
11.40
3.48
-3.28
-7.52
-8.80
-7.61
-4.90
-1.56
2.01
5.99
10.84
16.88
23.95
31.33
38.09
43.42
46.94
48.79
49.34
48.99
47.99
46.38
44.16
41.38
38.25
35.09
32.23
29.78
27.60
25.32
22.48
18.80
14.31
9.40
4.62
0.38
-3.30
-6.75
-10.58
-15.29
-21.01
-27.48
-34.17
-40.41
-45.65
-49.44
-51.36
-51.11
-48.53
-43.74
-37.17
-29.49
-21.36
-13.27
-5.42
2.20
9.60
16.68
23.15
28.59
32.62
35.04
35.91
35.50
34.19
32.38
30.30
28.03
25.58
22.96
20.31
17.86
15.84
14.31
13.09
11.82
10.09
7.70
4.67
1.28
-2.16
-5.39
-8.35
-11.19
-14.22
-17.77
-22.11
-27.30
-33.16
-39.15
-44.56
-48.63
-50.68
-50.36
-47.60
-42.67
-36.05
-28.37
-20.36
-12.73
-5.97
-0.32
4.41
8.64
12.81
17.13
21.46
25.31
28.19
29.82
30.31
30.11
29.71
29.50
29.53
29.62
29.54
29.09
28.24
27.04
25.51
23.67
21.53
19.16
16.76
14.54
12.64
10.90
8.90
5.98
1.56
-4.63
-12.37
-20.87
-28.99
-35.53
-39.61
-40.87
-39.60
-36.56
-32.64
-28.59
-24.86
-21.64
-19.02
-17.07
-15.81
-15.03
-14.20
-12.58
-9.57
-5.11
0.15
5.02
8.28
9.12
7.42
3.58
-1.83
-8.36
-15.67
-23.47
-31.24
-38.29
-43.96
-47.80
-49.88
-50.64
-50.77
-50.91
-51.51
-52.74
-54.53
-56.56
-58.37
-59.40
-59.11
-57.10
-53.21
-47.49
-40.12
-31.34
-21.43
-10.81
-0.06
10.03
18.70
25.39
29.96
32.70
34.26
35.25
36.05
36.66
36.80
36.20
34.75
32.64
30.27
27.98
25.90
23.89
21.69
19.11
16.21
13.28
10.71
8.73
7.25
5.89
4.17
1.65
-1.92
-6.56
-12.13
-18.39
-24.94
-31.26
-36.71
-40.57
-42.22
-41.29
-37.71
-31.81
-24.20
-15.67
-7.01
1.14
8.32
14.32
19.07
22.67
25.27
27.13
28.54
29.81
31.14
32.55
33.84
34.73
34.94
34.43
33.35
31.91
30.26
28.38
26.13
23.40
20.24
16.94
13.87
11.35
9.52
8.25
7.15
5.45
2.15
-3.89
-13.41
-26.17
-40.68
-54.31
-64.13
-67.90
-64.83
-55.66
-42.11
-26.05
-8.91
8.38
25.03
40.07
52.20
60.18
63.26
61.53
55.90
47.79
38.71
29.93
22.28
16.25
12.00
9.58
8.87
9.71
11.76
14.51
17.41
19.98
22.04
23.81
25.84
28.72
32.82
37.97
43.49
48.41
51.74
52.78
51.33
47.66
42.32
35.98
29.20
22.37
15.60
8.87
2.02
-5.03
-12.19
-19.10
-25.15
-29.56
-31.70
-31.13
-27.90
-22.41
-15.38
-7.65
-0.02
6.88
12.61
16.91
19.73
21.26
21.86
22.02
22.25
22.86
23.92
25.17
26.15
26.44
25.79
24.29
22.22
19.94
17.63
15.14
12.05
7.95
2.63
-3.64
-10.16
-16.05
-20.59
-23.52
-25.16
-26.27
-27.73
-30.20
-33.94
-38.81
-44.31
-49.84
-54.79
-58.70
-61.26
-62.33
-61.89
-59.90
-56.30
-51.00
-44.02
-35.61
-26.34
-17.07
-8.68
-1.89
3.04
6.21
8.00
8.84
8.95
8.39
7.11
5.17
2.75
0.18
-2.21
-4.23
-5.89
-7.35
-8.86
-10.59
-12.63
-15.01
-17.65
-20.45
-23.28
-25.99
-28.49
-30.80
-33.05
-35.43
-38.05
-40.79
-43.34
-45.24
-45.99
-45.17
-42.55
-38.03
-31.72
-23.89
-14.99
-5.58
3.76
12.53
20.39
27.15
32.74
37.18
40.54
42.98
44.74
46.04
47.00
47.58
47.55
46.66
44.75
41.91
38.38
34.54
30.73
27.13
23.80
20.63
17.47
14.15
10.59
6.76
2.74
-1.35
-5.39
-9.33
-13.24
-17.23
-21.46
-26.05
-30.98
-36.11
-41.07
-45.34
-48.31
-49.39
-48.17
-44.52
-38.66
-31.06
-22.40
-13.37
-4.58
3.53
10.70
16.81
21.86
25.81
28.62
30.26
30.77
30.30
29.17
27.68
26.09
24.52
22.98
21.44
19.85
18.25
16.64
14.95
13.08
10.91
8.48
5.93
3.53
1.48
-0.18
-1.67
-3.34
-5.54
-8.49
-12.14
-16.33
-20.82
-25.32
-29.48
-32.86
-34.96
-35.32
-33.63
-29.88
-24.32
-17.43
-9.70
-1.67
6.20
13.49
19.77
24.71
28.12
30.00
30.52
30.03
28.92
27.54
26.11
24.73
23.35
21.83
20.13
18.26
16.35
14.51
12.76
11.03
9.16
7.02
4.64
2.12
-0.35
-2.63
-4.72
-6.76
-8.92
-11.38
-14.20
-17.43
-21.03
-24.91
-28.92
-32.71
-35.80
-37.60
-37.58
-35.42
-31.10
-24.95
-17.53
-9.52
-1.54
5.92
12.54
18.20
22.85
26.49
29.14
30.79
31.45
31.25
30.41
29.25
28.08
27.09
26.30
25.56
24.72
23.65
22.34
20.87
19.24
17.40
15.22
12.58
9.49
6.10
2.69
-0.49
-3.33
-5.91
-8.49
-11.36
-14.77
-18.85
-23.48
-28.31
-32.79
-36.20
-37.89
-37.40
-34.67
-29.99
-23.96
-17.24
-10.40
-3.84
2.21
7.60
12.21
15.86
18.44
19.88
20.30
19.90
18.96
17.73
16.40
15.03
13.65
12.26
10.88
9.49
8.04
6.42
4.50
2.21
-0.44
-3.31
-6.26
-9.15
-11.98
-14.83
-17.81
-20.99
-24.43
-28.19
-32.26
-36.53
-40.63
-43.95
-45.78
-45.51
-42.94
-38.32
-32.24
-25.42
-18.41
-11.48
-4.72
1.84
8.03
13.56
18.11
21.48
23.67
24.87
25.34
25.29
24.85
24.06
22.98
21.63
20.06
18.26
16.17
13.72
10.87
7.66
4.22
0.68
-2.90
-6.55
-10.34
-14.32
-18.48
-22.77
-27.19
-31.75
-36.46
-41.12
-45.24
-48.10
-48.98
-47.40
-43.38
-37.40
-30.18
-22.42
-14.56
-6.82
0.73
8.03
14.89
21.05
26.27
30.44
33.52
35.57
36.66
36.88
36.40
35.41
34.17
32.86
31.55
30.16
28.55
26.51
23.96
20.89
17.40
13.68
9.88
6.12
2.51
-0.88
-4.06
-7.14
-10.34
-14.02
-18.47
-23.74
-29.50
-35.07
-39.52
-41.97
-41.87
-39.11
-34.05
-27.30
-19.52
-11.23
-2.84
5.34
12.99
19.74
25.29
29.51
32.43
34.32
35.48
36.13
36.36
36.09
35.20
33.71
31.76
29.61
27.59
25.90
24.59
23.51
22.39
20.94
18.92
16.26
13.08
9.63
6.22
3.05
0.21
-2.43
-5.09
-8.05
-11.53
-15.68
-20.44
-25.63
-30.87
-35.61
-39.18
-40.89
-40.22
-37.00
-31.47
-24.27
-16.23
-8.09
-0.35
6.79
13.35
19.38
24.86
29.68
33.64
36.59
38.45
39.24
39.01
37.88
35.93
33.34
30.30
27.06
23.89
21.01
18.58
16.58
14.86
13.16
11.21
8.81
5.97
2.83
-0.43
-3.65
-6.80
-9.92
-13.13
-16.47
-20.06
-23.98
-28.32
-33.05
-37.91
-42.31
-45.55
-46.95
-46.13
-43.18
-38.51
-32.67
-26.19
-19.38
-12.40
-5.34
1.69
8.50
14.86
20.54
25.34
29.07
31.63
33.00
33.27
32.64
31.37
29.72
27.81
25.74
23.55
21.34
19.23
17.31
15.57
13.88
11.95
9.55
6.58
3.13
-0.49
-3.95
-7.03
-9.70
-12.19
-14.87
-18.11
-22.15
-27.02
-32.39
-37.69
-42.13
-44.95
-45.56
-43.75
-39.71
-33.88
-26.85
-19.18
-11.28
-3.46
4.04
10.96
17.06
22.15
26.14
29.11
31.21
32.66
33.58
34.04
33.99
33.37
32.19
30.50
28.45
26.15
23.73
21.25
18.73
16.20
13.71
11.24
8.73
6.05
3.11
-0.12
-3.53
-6.92
-10.15
-13.20
-16.19
-19.38
-23.03
-27.30
-32.14
-37.30
-42.29
-46.48
-49.21
-49.96
-48.49
-44.94
-39.72
-33.38
-26.44
-19.24
-11.93
-4.57
2.74
9.80
16.30
21.96
26.60
30.16
32.65
34.09
34.50
33.93
32.51
30.50
28.22
25.97
23.96
22.23
20.66
19.10
17.37
15.37
13.06
10.45
7.61
4.62
1.59
-1.41
-4.34
-7.18
-10.01
-12.87
-15.85
-19.07
-22.64
-26.70
-31.28
-36.21
-41.03
-45.10
-47.70
-48.25
-46.58
-42.90
-37.71
-31.58
-24.94
-17.97
-10.70
-3.19
4.38
11.60
18.01
23.23
27.12
29.80
31.56
32.66
33.21
33.17
32.42
30.96
28.96
26.69
24.44
22.33
20.33
18.33
16.25
14.15
12.14
10.28
8.52
6.69
4.59
2.12
-0.66
-3.62
-6.61
-9.61
-12.71
-16.05
-19.78
-24.00
-28.60
-33.28
-37.48
-40.49
-41.61
-40.43
-37.02
-31.89
-25.80
-19.44
-13.22
-7.14
-1.05
5.16
11.36
17.14
22.06
25.77
28.22
29.60
30.29
30.59
30.68
30.55
30.07
29.16
27.77
25.99
23.94
21.77
19.58
17.40
15.17
12.78
10.14
7.18
3.89
0.34
-3.32
-6.97
-10.51
-13.91
-17.23
-20.55
-23.99
-27.64
-31.58
-35.90
-40.51
-45.16
-49.31
-52.25
-53.28
-51.92
-48.08
-42.15
-34.81
-26.83
-18.81
-11.05
-3.59
3.64
10.64
17.22
23.08
27.99
31.80
34.57
36.47
37.67
38.24
38.21
37.53
36.21
34.34
32.08
29.63
27.18
24.80
22.50
20.16
17.63
14.75
11.39
7.56
3.36
-0.98
-5.21
-9.09
-12.52
-15.56
-18.42
-21.42
-24.89
-29.05
-33.91
-39.24
-44.50
-48.96
-51.81
-52.39
-50.35
-45.81
-39.29
-31.57
-23.41
-15.41
-7.88
-0.93
5.42
11.12
16.07
20.13
23.25
25.48
26.95
27.85
28.34
28.47
28.22
27.51
26.29
24.58
22.56
20.47
18.57
16.93
15.41
13.70
11.45
8.48
4.88
0.98
-2.87
-6.46
-9.82
-13.13
-16.67
-20.61
-25.00
-29.82
-34.94
-40.06
-44.69
-48.11
-49.56
-48.52
-44.93
-39.25
-32.22
-24.62
-16.97
-9.49
-2.20
4.89
11.63
17.72
22.87
26.86
29.68
31.45
32.42
32.75
32.50
31.70
30.29
28.37
26.13
23.85
21.79
20.06
18.54
16.91
14.81
12.05
8.64
4.86
0.99
-2.75
-6.31
-9.80
-13.40
-17.27
-21.57
-26.40
-31.80
-37.68
-43.64
-48.99
-52.83
-54.33
-53.00
-48.91
-42.62
-35.05
-27.07
-19.30
-12.01
-5.17
1.30
7.43
13.06
18.00
22.03
25.11
27.37
29.03
30.23
30.99
31.22
30.80
29.75
28.26
26.68
25.38
24.48
23.88
23.19
22.04
20.16
17.55
14.49
11.33
8.32
5.60
3.08
0.55
-2.30
-5.83
-10.35
-16.00
-22.60
-29.52
-35.79
-40.29
-42.19
-41.17
-37.55
-32.05
-25.52
-18.61
-11.71
-4.91
1.72
8.11
14.08
19.42
23.99
27.74
30.68
32.87
34.32
35.02
34.95
34.14
32.69
30.78
28.68
26.62
24.75
23.01
21.18
18.91
15.92
12.08
7.54
2.60
-2.38
-7.11
-11.47
-15.51
-19.38
-23.25
-27.35
-31.82
-36.73
-41.86
-46.68
-50.37
-52.03
-51.06
-47.34
-41.32
-33.85
-25.79
-17.83
-10.24
-3.11
3.62
9.88
15.48
20.18
23.80
26.30
27.84
28.68
29.06
29.14
28.95
28.44
27.53
26.18
24.45
22.35
19.92
17.09
13.83
10.16
6.23
2.30
-1.39
-4.73
-7.81
-10.93
-14.45
-18.69
-23.76
-29.54
-35.60
-41.32
-45.91
-48.58
-48.72
-46.09
-40.90
-33.80
-25.63
-17.22
-9.14
-1.65
5.27
11.73
17.80
23.42
28.46
32.71
36.02
38.32
39.59
39.85
39.18
37.66
35.46
32.77
29.87
26.99
24.35
21.98
19.76
17.45
14.79
11.57
7.79
3.63
-0.63
-4.73
-8.57
-12.22
-15.96
-20.11
-24.94
-30.40
-36.08
-41.25
-44.97
-46.40
-45.05
-40.99
-34.73
-27.09
-18.83
-10.46
-2.21
5.86
13.69
21.03
27.53
32.83
36.75
39.33
40.79
41.37
41.27
40.53
39.15
37.14
34.58
31.66
28.59
25.52
22.45
19.19
15.46
10.98
5.68
-0.26
-6.43
-12.29
-17.40
-21.58
-24.99
-28.01
-31.09
-34.60
-38.71
-43.30
-47.99
-52.10
-54.83
-55.35
-53.08
-47.88
-40.10
-30.51
-20.02
-9.48
0.56
9.77
18.03
25.22
31.22
35.91
39.27
41.43
42.64
43.21
43.39
43.32
43.00
42.36
41.30
39.73
37.63
35.01
31.92
28.41
24.50
20.25
15.73
11.07
6.47
2.07
-2.14
-6.28
-10.58
-15.24
-20.26
-25.43
-30.36
-34.64
-37.85
-39.72
-40.02
-38.57
-35.29
-30.25
-23.81
-16.48
-8.86
-1.43
5.61
12.23
18.45
24.17
29.07
32.75
34.93
35.59
34.97
33.51
31.52
29.17
26.43
23.25
19.67
15.91
12.22
8.71
5.28
1.59
-2.76
-7.99
-14.01
-20.44
-26.79
-32.70
-38.13
-43.37
-48.83
-54.83
-61.43
-68.35
-75.04
-80.83
-85.03
-87.01
-86.30
-82.66
-76.22
-67.50
-57.24
-46.22
-34.93
-23.43
-11.46
1.20
14.44
27.59
39.53
49.13
55.67
59.10
60.10
59.71
58.93
58.41
58.27
58.33
58.20
57.61
56.46
54.82
52.85
50.74
48.62
46.57
44.62
42.70
40.69
38.43
35.77
32.61
28.96
24.89
20.58
16.20
11.86
7.55
3.11
-1.74
-7.38
-14.10
-21.93
-30.50
-38.94
-46.05
-50.57
-51.58
-48.80
-42.63
-34.03
-24.10
-13.82
-3.81
5.64
14.40
22.35
29.32
35.14
39.70
43.04
45.28
46.55
46.98
46.68
45.74
44.35
42.71
41.05
39.46
37.94
36.34
34.49
32.22
29.46
26.19
22.49
18.41
14.07
9.59
5.08
0.66
-3.62
-7.80
-11.91
-15.99
-20.01
-23.91
-27.67
-31.42
-35.45
-40.15
-45.79
-52.27
-59.00
-64.97
-69.02
-70.28
-68.42
-63.77
-57.16
-49.57
-41.79
-34.28
-27.21
-20.70
-14.93
-10.19
-6.69
-4.36
-2.73
-1.04
1.44
5.16
10.10
15.81
21.64
26.96
31.35
34.61
36.77
37.93
38.27
37.94
37.07
35.78
34.08
31.98
29.48
26.59
23.36
19.82
16.03
12.06
8.03
4.06
0.21
-3.54
-7.28
-11.12
-15.07
-18.99
-22.66
-25.87
-28.60
-31.07
-33.75
-37.16
-41.66
-47.20
-53.24
-58.80
-62.66
-63.72
-61.41
-55.80
-47.67
-38.18
-28.48
-19.37
-11.15
-3.71
3.18
9.61
15.44
20.36
24.13
26.73
28.39
29.47
30.27
30.89
31.17
30.86
29.74
27.79
25.19
22.27
19.41
16.80
14.47
12.23
9.82
7.08
3.98
0.72
-2.46
-5.32
-7.81
-10.05
-12.30
-14.84
-17.94
-21.84
-26.67
-32.38
-38.62
-44.60
-49.25
-51.49
-50.55
-46.30
-39.28
-30.55
-21.26
-12.35
-4.32
2.74
8.95
14.51
19.54
24.07
28.08
31.50
34.26
36.34
37.78
38.63
39.00
38.92
38.37
37.29
35.64
33.47
30.91
28.15
25.33
22.47
19.51
16.34
12.89
9.14
5.15
1.00
-3.18
-7.22
-10.97
-14.35
-17.46
-20.62
-24.31
-28.95
-34.75
-41.53
-48.69
-55.35
-60.54
-63.45
-63.52
-60.60
-54.92
-47.07
-37.84
-28.02
-18.29
-9.02
-0.34
7.76
15.31
22.18
28.09
32.74
35.92
37.66
38.20
37.91
37.18
36.25
35.21
34.01
32.53
30.66
28.37
25.70
22.80
19.83
16.91
14.04
11.12
8.03
4.68
1.15
-2.38
-5.70
-8.70
-11.36
-13.86
-16.29
-18.75
-21.23
-23.72
-26.23
-28.85
-31.63
-34.43
-36.84
-38.22
-37.81
-35.02
-29.66
-21.98
-12.72
-2.82
6.78
15.41
22.78
28.94
34.16
38.68
42.60
45.78
47.93
48.84
48.44
46.94
44.69
42.04
39.19
36.16
32.89
29.36
25.73
22.24
19.16
16.61
14.49
12.59
10.70
8.70
6.68
4.75
3.00
1.34
-0.47
-2.70
-5.57
-9.16
-13.34
-17.96
-22.89
-28.20
-34.04
-40.55
-47.54
-54.36
-60.01
-63.35
-63.60
-60.58
-54.76
-47.00
-38.25
-29.22
-20.28
-11.60
-3.32
4.34
11.10
16.74
21.18
24.58
27.23
29.49
31.61
33.68
35.55
36.93
37.58
37.38
36.49
35.25
34.06
33.12
32.33
31.35
29.74
27.19
23.67
19.41
14.78
10.12
5.61
1.26
-3.11
-7.69
-12.71
-18.41
-24.99
-32.58
-41.14
-50.26
-59.11
-66.49
-71.19
-72.36
-69.82
-64.16
-56.41
-47.70
-38.85
-30.28
-22.11
-14.43
-7.46
-1.53
3.11
6.47
8.81
10.58
12.11
13.51
14.65
15.31
15.40
15.02
14.40
13.83
13.40
13.00
12.34
11.11
9.13
6.40
3.09
-0.56
-4.35
-8.13
-11.85
-15.57
-19.45
-23.72
-28.74
-34.72
-41.53
-48.52
-54.45
-57.82
-57.29
-52.18
-42.72
-29.92
-15.19
0.08
14.70
27.81
38.61
46.53
51.22
52.92
52.42
50.89
49.47
48.79
48.81
48.93
48.35
46.50
43.27
39.02
34.41
30.21
27.03
25.34
25.30
26.78
29.33
32.18
34.41
35.12
33.68
29.90
24.11
17.03
9.53
2.29
-4.31
-10.31
-15.96
-21.58
-27.42
-33.59
-40.01
-46.43
-52.34
-57.02
-59.69
-59.66
-56.65
-50.92
-43.16
-34.29
-25.19
-16.45
-8.30
-0.77
6.12
12.31
17.57
21.73
24.72
26.63
27.69
28.17
28.33
28.34
28.26
28.06
27.63
26.78
25.37
23.34
20.84
18.15
15.59
13.40
11.52
9.70
7.57
4.91
1.75
-1.62
-4.85
-7.68
-10.14
-12.51
-15.16
-18.49
-22.73
-27.88
-33.72
-39.80
-45.45
-49.91
-52.50
-52.73
-50.46
-45.92
-39.63
-32.23
-24.35
-16.43
-8.78
-1.56
5.12
11.09
16.17
20.20
23.11
25.00
26.06
26.54
26.65
26.48
26.08
25.48
24.76
23.99
23.15
22.12
20.69
18.68
16.07
12.99
9.67
6.28
2.95
-0.26
-3.27
-6.00
-8.43
-10.70
-13.16
-16.28
-20.49
-25.85
-31.89
-37.66
-41.99
-43.82
-42.64
-38.56
-32.26
-24.67
-16.68
-8.93
-1.74
4.79
10.57
15.53
19.53
22.53
24.61
26.00
26.96
27.60
27.91
27.71
26.83
25.23
23.09
20.71
18.41
16.35
14.47
12.57
10.40
7.81
4.79
1.48
-1.95
-5.34
-8.63
-11.85
-15.12
-18.60
-22.48
-26.89
-31.91
-37.50
-43.39
-49.06
-53.71
-56.45
-56.48
-53.39
-47.34
-39.04
-29.54
-19.89
-10.83
-2.68
4.57
11.11
17.01
22.20
26.47
29.64
31.63
32.55
32.58
31.94
30.79
29.27
27.54
25.75
24.02
22.39
20.74
18.85
16.51
13.56
10.05
6.14
2.07
-1.95
-5.80
-9.51
-13.20
-17.07
-21.30
-25.99
-31.08
-36.28
-41.03
-44.55
-46.05
-44.91
-40.94
-34.43
-26.10
-16.87
-7.59
1.17
9.20
16.53
23.27
29.35
34.64
38.85
41.85
43.62
44.32
44.12
43.15
41.42
38.95
35.84
32.27
28.55
24.92
21.50
18.22
14.92
11.42
7.64
3.66
-0.34
-4.13
-7.54
-10.53
-13.27
-16.13
-19.52
-23.84
-29.16
-35.20
-41.24
-46.29
-49.37
-49.77
-47.26
-42.08
-34.85
-26.36
-17.38
-8.50
-0.14
7.47
14.19
19.97
24.73
28.39
30.94
32.44
33.07
33.08
32.69
32.03
31.12
29.91
28.40
26.69
24.93
23.22
21.49
19.54
17.14
14.20
10.77
7.05
3.21
-0.67
-4.64
-8.82
-13.36
-18.39
-23.93
-29.86
-35.78
-40.99
-44.58
-45.63
-43.57
-38.40
-30.74
-21.61
-12.12
-3.11
5.01
12.14
18.40
23.82
28.32
31.74
33.95
34.96
34.94
34.16
32.84
31.11
29.00
26.54
23.84
21.07
18.46
16.10
13.94
11.73
9.16
6.01
2.22
-2.02
-6.39
-10.60
-14.51
-18.21
-21.99
-26.18
-31.01
-36.40
-41.96
-46.96
-50.56
-51.96
-50.63
-46.47
-39.81
-31.37
-22.01
-12.49
-3.32
5.27
13.28
20.69
27.37
33.09
37.53
40.56
42.32
43.11
43.33
43.25
42.93
42.20
40.86
38.75
35.93
32.60
28.99
25.28
21.51
17.58
13.33
8.68
3.66
-1.53
-6.60
-11.21
-15.08
-18.14
-20.56
-22.81
-25.48
-29.14
-34.12
-40.30
-47.05
-53.33
-57.91
-59.66
-57.89
-52.52
-44.07
-33.53
-22.01
-10.53
0.25
10.02
18.75
26.57
33.55
39.72
44.99
49.27
52.44
54.51
55.47
55.40
54.36
52.44
49.74
46.46
42.94
39.56
36.70
34.51
32.80
31.05
28.61
24.96
19.94
13.76
6.93
-0.02
-6.77
-13.25
-19.64
-26.19
-33.09
-40.45
-48.18
-55.96
-63.16
-68.91
-72.19
-72.22
-68.68
-61.84
-52.45
-41.47
-29.70
-17.67
-5.71
5.91
16.82
26.52
34.53
40.55
44.56
46.85
47.85
47.98
47.56
46.77
45.62
44.05
41.93
39.16
35.66
31.43
26.51
21.11
15.51
10.13
5.38
1.53
-1.35
-3.40
-4.86
-5.93
-6.68
-7.08
-7.25
-7.49
-8.35
-10.49
-14.40
-20.05
-26.72
-33.03
-37.30
-38.03
-34.39
-26.43
-15.10
-1.91
11.48
23.62
33.56
40.84
45.44
47.69
48.14
47.45
46.24
44.99
43.90
42.86
41.60
39.81
37.30
34.14
30.57
26.92
23.44
20.27
17.34
14.55
11.75
8.85
5.79
2.53
-1.01
-4.91
-9.18
-13.76
-18.46
-23.11
-27.60
-31.92
-36.19
-40.59
-45.26
-50.28
-55.61
-61.15
-66.65
-71.74
-75.91
-78.59
-79.23
-77.47
-73.26
-66.83
-58.65
-49.27
-39.31
-29.29
-19.68
-10.88
-3.18
3.25
8.40
12.42
15.51
17.87
19.63
20.84
21.51
21.67
21.41
20.84
20.09
19.26
18.41
17.58
16.74
15.79
14.60
12.98
10.84
8.15
5.02
1.67
-1.67
-4.87
-7.91
-10.93
-14.17
-17.87
-22.24
-27.32
-32.93
-38.56
-43.47
-46.84
-48.00
-46.65
-42.90
-37.27
-30.46
-23.14
-15.79
-8.67
-1.87
4.58
10.56
15.88
20.27
23.54
25.68
26.90
27.54
27.97
28.39
28.75
28.84
28.40
27.34
25.72
23.81
21.88
20.13
18.56
17.03
15.29
13.16
10.51
7.39
3.92
0.24
-3.55
-7.47
-11.57
-15.94
-20.56
-25.35
-30.24
-35.14
-39.95
-44.47
-48.25
-50.59
-50.74
-48.25
-43.19
-36.17
-28.11
-19.84
-11.85
-4.22
3.15
10.22
16.72
22.20
26.33
29.06
30.66
31.58
32.14
32.41
32.19
31.24
29.44
26.97
24.23
21.73
19.78
18.42
17.33
16.03
14.05
11.15
7.44
3.27
-0.89
-4.65
-7.89
-10.72
-13.41
-16.29
-19.65
-23.67
-28.47
-34.00
-39.99
-45.81
-50.55
-53.24
-53.18
-50.17
-44.64
-37.43
-29.45
-21.37
-13.46
-5.78
1.61
8.49
14.51
19.32
22.85
25.34
27.19
28.78
30.26
31.49
32.20
32.15
31.28
29.74
27.79
25.70
23.59
21.44
19.10
16.39
13.17
9.38
5.09
0.48
-4.26
-8.91
-13.34
-17.47
-21.32
-25.01
-28.71
-32.67
-37.17
-42.33
-48.03
-53.69
-58.44
-61.22
-61.17
-57.97
-51.87
-43.68
-34.38
-24.85
-15.61
-6.79
1.64
9.76
17.44
24.43
30.39
35.11
38.56
40.92
42.46
43.42
43.92
43.95
43.43
42.37
40.87
39.16
37.48
35.94
34.51
33.02
31.23
28.98
26.24
23.08
19.70
16.28
12.95
9.80
6.82
3.90
0.83
-2.64
-6.73
-11.62
-17.28
-23.48
-29.69
-35.19
-39.16
-40.93
-40.18
-37.07
-32.16
-26.20
-19.87
-13.61
-7.56
-1.71
3.91
9.13
13.65
17.18
19.61
21.05
21.80
22.19
22.44
22.63
22.67
22.46
21.89
20.97
19.82
18.59
17.36
16.10
14.62
12.65
9.98
6.59
2.69
-1.31
-5.02
-8.25
-11.16
-14.13
-17.64
-22.03
-27.32
-33.15
-38.88
-43.75
-46.98
-47.97
-46.39
-42.28
-36.04
-28.34
-19.92
-11.44
-3.36
4.07
10.78
16.72
21.84
26.03
29.24
31.48
32.87
33.61
33.88
33.81
33.40
32.56
31.17
29.17
26.64
23.81
20.98
18.37
15.99
13.66
11.04
7.86
4.07
-0.13
-4.37
-8.27
-11.65
-14.59
-17.38
-20.44
-24.10
-28.56
-33.81
-39.61
-45.52
-50.89
-54.95
-56.93
-56.27
-52.74
-46.63
-38.63
-29.68
-20.64
-12.10
-4.24
2.93
9.47
15.27
20.07
23.58
25.74
26.80
27.23
27.52
27.96
28.51
28.89
28.75
27.94
26.51
24.72
22.87
21.08
19.26
17.17
14.58
11.42
7.84
4.10
0.50
-2.85
-6.05
-9.29
-12.77
-16.64
-20.99
-25.90
-31.46
-37.56
-43.73
-49.05
-52.35
-52.62
-49.42
-43.07
-34.55
-25.05
-15.54
-6.52
1.91
9.79
17.06
23.45
28.60
32.28
34.53
35.66
36.14
36.35
36.53
36.64
36.51
35.97
34.95
33.60
32.20
31.04
30.23
29.70
29.12
28.07
26.22
23.43
19.75
15.45
10.87
6.25
1.68
-2.91
-7.74
-13.05
-18.96
-25.42
-32.10
-38.45
-43.73
-47.20
-48.25
-46.60
-42.32
-35.84
-27.80
-18.89
-9.75
-0.80
7.66
15.43
22.28
28.04
32.52
35.68
37.55
38.32
38.22
37.49
36.35
34.95
33.35
31.52
29.41
27.01
24.38
21.66
19.01
16.48
13.99
11.29
8.14
4.37
0.06
-4.53
-8.98
-13.02
-16.59
-19.91
-23.41
-27.56
-32.64
-38.64
-45.15
-51.41
-56.52
-59.59
-59.99
-57.53
-52.42
-45.23
-36.66
-27.39
-17.94
-8.70
0.04
8.02
15.03
20.90
25.58
29.14
31.70
33.38
34.22
34.25
33.50
32.05
30.09
27.84
25.53
23.30
21.20
19.15
16.95
14.46
11.57
8.34
4.91
1.48
-1.78
-4.84
-7.79
-10.82
-14.21
-18.21
-23.02
-28.67
-34.89
-41.17
-46.71
-50.61
-52.10
-50.77
-46.67
-40.29
-32.36
-23.59
-14.56
-5.53
3.32
11.88
19.96
27.26
33.54
38.64
42.58
45.46
47.43
48.60
49.04
48.81
48.03
46.90
45.56
44.06
42.35
40.24
37.60
34.40
30.76
26.90
23.01
19.17
15.41
11.66
7.88
4.02
0.02
-4.21
-8.83
-13.96
-19.62
-25.67
-31.77
-37.32
-41.61
-43.91
-43.67
-40.77
-35.51
-28.60
-20.91
-13.16
-5.82
1.00
7.31
13.10
18.18
22.25
25.02
26.38
26.46
25.53
23.96
22.05
19.99
17.91
15.86
13.84
11.83
9.76
7.58
5.26
2.83
0.35
-2.05
-4.34
-6.50
-8.57
-10.60
-12.71
-15.04
-17.74
-21.02
-24.98
-29.62
-34.64
-39.46
-43.31
-45.34
-44.91
-41.83
-36.39
-29.26
-21.30
-13.19
-5.37
1.99
8.89
15.29
21.02
25.79
29.38
31.69
32.84
33.11
32.77
32.03
30.98
29.70
28.20
26.61
25.00
23.42
21.74
19.76
17.21
13.90
9.87
5.31
0.61
-3.93
-8.10
-11.96
-15.78
-19.94
-24.75
-30.34
-36.49
-42.56
-47.67
-50.81
-51.17
-48.45
-42.88
-35.20
-26.39
-17.36
-8.69
-0.70
6.57
13.11
18.89
23.77
27.67
30.52
32.34
33.22
33.26
32.61
31.41
29.85
28.15
26.44
24.82
23.23
21.51
19.43
16.80
13.49
9.55
5.15
0.53
-4.08
-8.55
-12.89
-17.15
-21.46
-25.95
-30.71
-35.69
-40.58
-44.78
-47.40
-47.53
-44.60
-38.60
-30.23
-20.61
-10.93
-1.99
5.87
12.70
18.69
23.92
28.26
31.54
33.64
34.58
34.57
33.86
32.67
31.12
29.30
27.26
25.10
22.88
20.59
18.17
15.47
12.39
8.89
5.10
1.27
-2.35
-5.61
-8.54
-11.40
-14.59
-18.48
-23.23
-28.62
-34.05
-38.60
-41.28
-41.34
-38.45
-32.87
-25.28
-16.64
-7.88
0.29
7.46
13.53
18.62
22.87
26.34
28.95
30.47
30.76
29.86
28.09
25.97
23.96
22.33
20.97
19.56
17.71
15.25
12.21
8.84
5.32
1.76
-1.91
-5.77
-9.83
-13.98
-18.04
-21.96
-25.83
-29.89
-34.42
-39.41
-44.47
-48.82
-51.50
-51.72
-49.12
-43.88
-36.61
-28.14
-19.28
-10.65
-2.68
4.39
10.43
15.35
19.11
21.70
23.20
23.75
23.57
22.93
22.01
20.90
19.52
17.74
15.43
12.64
9.56
6.43
3.46
0.72
-1.94
-4.75
-7.93
-11.55
-15.46
-19.45
-23.33
-27.08
-30.91
-35.13
-39.83
-44.64
-48.69
-50.81
-50.02
-45.94
-38.97
-30.13
-20.57
-11.14
-2.10
6.68
15.39
23.95
31.89
38.52
43.25
45.88
46.69
46.29
45.29
44.09
42.77
41.20
39.17
36.68
33.92
31.15
28.62
26.31
23.99
21.31
18.03
14.13
9.88
5.62
1.61
-2.14
-5.88
-9.95
-14.65
-20.09
-26.19
-32.74
-39.41
-45.74
-51.03
-54.50
-55.35
-53.09
-47.79
-40.13
-31.14
-21.85
-13.00
-4.79
2.85
10.09
16.92
23.09
28.18
31.88
34.10
35.01
34.97
34.31
33.26
31.89
30.19
28.21
26.07
24.02
22.24
20.83
19.68
18.48
16.88
14.56
11.41
7.50
3.08
-1.49
-5.90
-9.99
-13.82
-17.63
-21.78
-26.61
-32.26
-38.58
-45.13
-51.23
-56.05
-58.79
-58.88
-56.05
-50.47
-42.67
-33.39
-23.40
-13.34
-3.62
5.47
13.70
20.83
26.65
31.05
34.08
35.98
37.04
37.49
37.42
36.81
35.69
34.16
32.46
30.81
29.35
27.99
26.46
24.48
21.84
18.53
14.75
10.74
6.77
2.95
-0.77
-4.58
-8.76
-13.64
-19.40
-26.05
-33.22
-40.17
-45.89
-49.32
-49.64
-46.59
-40.50
-32.18
-22.64
-12.79
-3.25
5.65
13.75
20.97
27.16
32.17
35.89
38.36
39.76
40.35
40.33
39.87
38.98
37.61
35.75
33.44
30.80
27.96
24.96
21.72
18.03
13.70
8.69
3.18
-2.47
-7.83
-12.61
-16.77
-20.48
-24.11
-28.06
-32.63
-37.95
-43.86
-49.86
-55.20
-58.95
-60.24
-58.55
-53.82
-46.50
-37.39
-27.34
-17.09
-7.11
2.32
11.03
18.81
25.41
30.59
34.29
36.67
38.07
38.86
39.22
39.10
38.28
36.59
34.05
31.02
28.02
25.48
23.55
21.96
20.24
17.92
14.77
10.90
6.61
2.31
-1.73
-5.41
-8.87
-12.38
-16.32
-21.01
-26.66
-33.26
-40.39
-47.36
-53.18
-56.83
-57.57
-55.12
-49.77
-42.16
-33.19
-23.64
-14.09
-4.88
3.74
11.48
18.02
23.06
26.46
28.32
28.96
28.74
27.96
26.73
25.09
23.05
20.73
18.33
16.07
14.07
12.31
10.60
8.70
6.41
3.63
0.42
-3.07
-6.61
-9.99
-13.16
-16.29
-19.71
-23.86
-28.97
-34.98
-41.35
-47.23
-51.56
-53.43
-52.30
-48.11
-41.30
-32.68
-23.17
-13.54
-4.32
4.27
12.17
19.35
25.63
30.77
34.52
36.80
37.71
37.49
36.43
34.77
32.65
30.17
27.41
24.50
21.55
18.63
15.65
12.44
8.76
4.44
-0.47
-5.75
-11.00
-15.86
-20.17
-24.09
-28.08
-32.74
-38.53
-45.53
-53.32
-60.96
-67.25
-71.00
-71.36
-68.08
-61.49
-52.38
-41.69
-30.31
-18.83
-7.61
3.15
13.25
22.47
30.58
37.47
43.24
48.15
52.50
56.47
60.01
62.86
64.65
65.09
64.09
61.81
58.62
54.97
51.28
47.75
44.42
41.11
37.55
33.47
28.77
23.51
17.93
12.41
7.25
2.58
-1.77
-6.15
-11.01
-16.69
-23.23
-30.29
-37.17
-42.97
-46.80
-47.95
-46.09
-41.37
-34.32
-25.71
-16.39
-7.02
1.99
10.48
18.34
25.46
31.61
36.48
39.91
41.88
42.61
42.38
41.43
39.86
37.65
34.82
31.50
27.96
24.49
21.33
18.51
15.90
13.22
10.22
6.70
2.66
-1.78
-6.32
-10.71
-14.76
-18.46
-22.02
-25.74
-29.92
-34.71
-40.00
-45.36
-50.08
-53.33
-54.33
-52.62
-48.14
-41.29
-32.76
-23.31
-13.60
-4.10
4.90
13.15
20.38
26.30
30.68
33.44
34.67
34.69
33.88
32.58
30.99
29.17
27.06
24.62
21.88
18.98
16.10
13.32
10.60
7.76
4.66
1.23
-2.44
-6.18
-9.85
-13.42
-17.03
-20.92
-25.38
-30.62
-36.66
-43.19
-49.55
-54.79
-57.85
-57.90
-54.57
-48.13
-39.35
-29.24
-18.76
-8.55
1.04
9.86
17.80
24.69
30.26
34.27
36.58
37.27
36.62
35.10
33.22
31.36
29.71
28.17
26.51
24.47
21.88
18.72
15.10
11.17
7.00
2.66
-1.81
-6.32
-10.76
-15.07
-19.33
-23.81
-28.86
-34.75
-41.40
-48.24
-54.23
-58.16
-59.03
-56.40
-50.54
-42.25
-32.53
-22.26
-12.00
-2.05
7.41
16.17
24.00
30.68
36.11
40.29
43.24
44.96
45.42
44.68
42.92
40.47
37.74
35.06
32.58
30.26
28.00
25.64
23.09
20.28
17.13
13.57
9.57
5.21
0.65
-3.91
-8.40
-12.91
-17.68
-23.02
-29.09
-35.72
-42.37
-48.15
-52.06
-53.22
-51.16
-46.01
-38.38
-29.22
-19.45
-9.74
-0.43
8.40
16.70
24.26
30.76
35.85
39.33
41.31
42.13
42.16
41.71
40.88
39.64
37.92
35.71
33.12
30.31
27.42
24.58
21.83
19.12
16.33
13.27
9.78
5.74
1.19
-3.68
-8.58
-13.25
-17.61
-21.76
-26.01
-30.73
-36.18
-42.36
-48.95
-55.30
-60.54
-63.78
-64.35
-61.93
-56.65
-49.03
-39.76
-29.56
-18.98
-8.43
1.74
11.16
19.38
26.00
30.78
33.76
35.27
35.81
35.88
35.80
35.65
35.28
34.51
33.21
31.37
29.16
26.79
24.43
22.17
19.96
17.68
15.19
12.36
9.16
5.60
1.75
-2.32
-6.51
-10.73
-14.97
-19.30
-23.82
-28.72
-34.13
-40.08
-46.43
-52.79
-58.62
-63.25
-65.99
-66.23
-63.66
-58.29
-50.53
-41.16
-31.11
-21.35
-12.66
-5.54
-0.11
3.87
7.02
10.16
14.11
19.43
26.15
33.72
41.13
47.18
50.90
51.83
50.15
46.64
42.38
38.44
35.51
33.76
32.75
31.76
30.03
27.11
23.00
18.13
13.04
8.09
3.32
-1.50
-6.71
-12.46
-18.57
-24.50
-29.51
-32.88
-34.09
-32.99
-29.76
-24.80
-18.59
-11.64
-4.37
2.77
9.32
14.90
19.22
22.15
23.82
24.48
24.48
24.14
23.63
22.97
22.01
20.56
18.44
15.63
12.25
8.57
4.91
1.49
-1.57
-4.29
-6.72
-8.94
-11.00
-13.00
-15.12
-17.55
-20.47
-23.88
-27.62
-31.47
-35.21
-38.73
-41.97
-44.84
-47.14
-48.54
-48.67
-47.23
-43.96
-38.68
-31.21
-21.50
-9.71
3.59
17.42
30.54
41.75
50.30
56.05
59.54
61.72
63.60
65.92
68.89
72.23
75.27
77.36
77.97
76.92
74.23
70.11
64.76
58.50
51.67
44.70
38.00
31.78
25.93
20.01
13.40
5.54
-3.79
-14.40
-25.64
-36.57
-46.12
-53.35
-57.60
-58.68
-56.87
-52.82
-47.34
-41.13
-34.63
-28.06
-21.47
-15.07
-9.20
-4.36
-0.96
0.90
1.47
1.25
0.66
-0.07
-1.04
-2.43
-4.36
-6.74
-9.30
-11.78
-14.05
-16.21
-18.40
-20.75
-23.24
-25.76
-28.23
-30.77
-33.70
-37.48
-42.62
-49.37
-57.60
-66.63
-75.22
-81.87
-85.21
-84.38
-79.32
-70.74
-59.84
-47.84
-35.68
-23.89
-12.66
-2.05
7.83
16.82
24.70
31.34
36.67
40.72
43.54
45.17
45.65
45.08
43.64
41.66
39.52
37.58
36.01
34.72
33.32
31.28
28.12
23.62
17.93
11.51
4.95
-1.26
-6.90
-12.00
-16.85
-21.83
-27.29
-33.48
-40.42
-47.79
-54.93
-60.97
-64.98
-66.33
-64.82
-60.71
-54.54
-46.87
-38.17
-28.71
-18.70
-8.46
1.56
10.82
18.83
25.30
30.16
33.55
35.73
36.99
37.54
37.55
37.04
36.02
34.46
32.45
30.15
27.86
25.85
24.31
23.20
22.31
21.25
19.62
17.20
13.97
10.14
6.04
1.89
-2.25
-6.62
-11.64
-17.69
-24.85
-32.77
-40.66
-47.44
-52.12
-54.08
-53.24
-49.97
-44.88
-38.53
-31.26
-23.23
-14.60
-5.61
3.29
11.67
19.15
25.54
30.85
35.11
38.35
40.56
41.76
42.05
41.62
40.70
39.48
38.06
36.54
34.94
33.33
31.72
30.04
28.17
25.94
23.23
20.01
16.42
12.66
8.99
5.58
2.40
-0.77
-4.34
-8.72
-14.17
-20.59
-27.53
-34.22
-39.85
-43.72
-45.41
-44.79
-41.98
-37.31
-31.13
-23.84
-15.77
-7.16
1.86
11.13
20.49
29.63
38.15
45.56
51.43
55.45
57.54
57.96
57.19
55.88
54.62
53.69
53.04
52.21
50.56
47.61
43.25
37.85
32.11
26.74
22.17
18.33
14.70
10.59
5.42
-0.98
-8.31
-15.89
-22.90
-28.68
-32.89
-35.46
-36.53
-36.28
-34.79
-32.27
-29.18
-26.05
-23.07
-19.53
-13.90
-4.58
8.98
25.39
41.55
53.86
59.95
59.87
55.95
51.51
49.14
49.59
51.85
54.15
55.26
55.01
54.06
53.16
52.49
51.56
49.64
46.16
41.22
35.61
30.46
26.73
24.82
24.47
24.79
24.73
23.39
20.43
16.05
10.80
5.20
-0.61
-7.00
-14.79
-24.62
-36.49
-49.61
-62.64
-74.25
-83.53
-90.20
-94.47
-96.83
-97.60
-96.76
-94.07
-89.40
-83.03
-75.59
-67.94
-60.81
-54.71
-49.35
-43.66
-36.39
-26.80
-15.20
-2.79
8.84
18.35
24.23
26.02
24.31
19.97
13.61
5.56
-3.48
-11.93
-17.67
-20.48
-20.50
-18.33
-15.21
-13.09
-13.95
-18.41
-25.17
-32.23
-40.58
-51.32
-64.82
-80.64
-98.35
-117.87
-138.63
-159.23
-178.69
-199.88
-224.53
-251.57
-277.25
-297.29
-308.70
-310.13
-301.77
-265.18
-197.73
-113.80
-35.94
21.08
55.60
73.39
78.37
77.40
73.76
65.45
51.55
34.08
16.78
4.47
-1.96
-4.01
-3.75
-3.86
-8.70
-20.14
-36.65
-54.40
-70.01
-82.17
-90.75
-95.09
-94.17
-87.69
-74.76
-54.65
-28.19
1.38
28.93
49.81
61.89
65.49
62.18
54.82
46.86
41.72
42.22
50.11
65.98
89.20
117.42
146.95
173.93
195.49
210.37
218.79
222.00
221.60
219.20
215.94
212.59
209.58
207.02
204.66
201.92
198.01
192.32
184.68
175.54
165.79
156.43
148.04
140.51
133.06
124.59
114.21
101.66
87.40
72.33
57.36
43.00
29.34
16.24
3.70
-8.06
-18.75
-28.35
-37.26
-46.01
-54.94
-63.68
-71.14
-76.02
-77.40
-75.22
-70.25
-63.63
-56.24
-48.48
-40.30
-31.66
-22.87
-14.70
-8.10
-3.70
-1.57
-1.11
-1.40
-1.53
-0.84
1.28
5.41
12.16
21.81
33.86
46.72
57.89
64.57
64.62
57.27
43.27
24.52
3.24
-18.67
-39.90
-59.62
-77.00
-91.00
-100.43
-104.42
-102.97
-97.29
-89.59
-82.37
-77.53
-75.44
-74.82
-73.17
-67.68
-56.23
-37.89
-13.01
17.33
51.74
88.72
126.43
162.26
192.68
213.75
222.12
216.19
196.60
165.93
127.66
84.70
38.66
-10.15
-61.83
-115.42
-167.89
-214.25
-249.00
-268.25
-271.42
-261.38
-242.92
-220.38
-195.83
-169.06
-139.20
-106.83
-75.08
-48.74
-31.94
-25.99
-28.62
-35.23
-41.24
-44.05
-43.52
-41.00
-37.92
-34.59
-30.22
-23.59
-13.92
-1.62
11.91
24.82
35.54
43.31
48.40
51.72
54.29
56.71
58.83
59.96
59.31
56.44
51.64
45.85
40.28
35.88
32.90
30.89
28.85
25.83
21.23
15.08
7.84
0.23
-7.01
-13.29
-18.24
-21.82
-24.29
-26.22
-28.29
-31.02
-34.56
-38.54
-42.16
-44.43
-44.38
-41.26
-34.67
-24.71
-12.00
2.28
16.63
29.65
40.42
48.68
54.77
59.27
62.69
65.29
67.16
68.29
68.62
68.10
66.65
64.34
61.51
58.82
56.93
56.09
55.79
54.81
51.68
45.31
35.57
23.48
10.85
-0.19
-7.76
-10.64
-8.60
-2.60
5.13
11.48
13.35
8.74
-2.23
-17.32
-32.81
-45.04
-51.62
-52.12
-47.80
-40.71
-32.74
-24.96
-17.62
-10.45
-3.16
4.19
11.15
16.98
21.00
22.85
22.66
20.92
18.24
15.05
11.58
8.14
5.39
4.42
6.29
11.31
18.57
25.97
31.09
32.24
29.30
23.64
17.42
12.49
9.62
8.43
7.77
6.46
3.74
-0.56
-6.18
-12.69
-19.59
-26.25
-31.99
-36.03
-37.76
-36.95
-33.82
-29.03
-23.31
-17.20
-10.94
-4.46
2.32
9.26
15.87
21.41
25.21
26.97
26.80
25.19
22.84
20.35
18.18
16.57
15.63
15.35
15.56
16.03
16.38
16.28
15.50
14.04
12.10
9.93
7.72
5.48
3.04
0.12
-3.50
-7.92
-13.04
-18.54
-23.88
-28.40
-31.36
-32.07
-30.12
-25.45
-18.44
-9.82
-0.53
8.57
16.79
23.78
29.47
33.89
37.14
39.20
39.93
39.21
37.08
33.81
29.86
25.76
21.90
18.45
15.39
12.61
10.09
7.90
6.10
4.60
3.20
1.54
-0.64
-3.38
-6.53
-9.78
-12.99
-16.24
-19.93
-24.61
-30.78
-38.68
-48.11
-58.39
-68.44
-76.94
-82.72
-85.06
-84.01
-80.36
-75.44
-70.55
-66.41
-62.67
-57.95
-50.19
-37.40
-18.42
6.59
36.02
67.25
97.29
123.50
144.19
158.76
167.49
171.18
170.69
166.63
159.36
149.05
135.93
120.42
103.14
84.84
66.34
48.46
31.99
17.69
6.14
-2.52
-8.73
-13.55
-18.45
-24.83
-33.56
-44.75
-57.74
-71.48
-84.86
-96.97
-107.11
-114.66
-119.01
-119.65
-116.32
-109.29
-99.30
-87.47
-74.86
-62.20
-49.80
-37.66
-25.75
-14.29
-3.70
5.40
12.54
17.50
20.43
21.75
22.03
21.78
21.36
20.91
20.42
19.83
19.12
18.40
17.85
17.54
17.40
17.14
16.35
14.70
12.12
8.86
5.36
2.02
-0.96
-3.67
-6.43
-9.53
-13.17
-17.37
-22.04
-27.10
-32.46
-37.95
-43.19
-47.57
-50.31
-50.70
-48.28
-42.99
-35.15
-25.33
-14.23
-2.55
9.02
19.82
29.27
36.94
42.63
46.37
48.33
48.80
48.12
46.66
44.78
42.74
40.67
38.51
36.05
33.14
29.78
26.16
22.59
19.33
16.44
13.77
11.01
7.91
4.37
0.48
-3.60
-7.72
-11.89
-16.20
-20.80
-25.72
-30.91
-36.20
-41.47
-46.61
-51.57
-56.18
-60.09
-62.72
-63.42
-61.68
-57.29
-50.41
-41.53
-31.24
-20.18
-8.94
1.98
12.06
20.86
28.02
33.33
36.79
38.53
38.78
37.85
36.08
33.80
31.35
28.94
26.63
24.40
22.16
19.87
17.56
15.25
12.89
10.32
7.30
3.65
-0.61
-5.23
-9.85
-14.14
-18.00
-21.67
-25.60
-30.25
-35.88
-42.49
-49.74
-57.06
-63.72
-68.89
-71.77
-71.70
-68.36
-61.91
-52.90
-42.22
-30.78
-19.36
-8.42
1.69
10.73
18.36
24.28
28.31
30.49
31.19
30.88
30.04
28.99
27.85
26.60
25.24
23.78
22.29
20.83
19.40
17.95
16.41
14.74
12.90
10.86
8.60
6.10
3.38
0.56
-2.23
-4.89
-7.38
-9.82
-12.45
-15.54
-19.32
-23.87
-28.97
-34.14
-38.64
-41.60
-42.23
-40.06
-35.02
-27.47
-18.02
-7.42
3.67
14.69
25.17
34.67
42.77
49.12
53.55
56.07
56.90
56.40
54.96
52.97
50.65
48.11
45.29
42.10
38.46
34.47
30.36
26.43
22.89
19.75
16.85
13.88
10.59
6.88
2.86
-1.26
-5.28
-9.12
-12.83
-16.56
-20.50
-24.84
-29.77
-35.38
-41.60
-48.03
-54.00
-58.63
-61.02
-60.47
-56.63
-49.61
-39.88
-28.22
-15.58
-2.95
8.86
19.27
27.95
34.79
39.78
42.97
44.45
44.45
43.33
41.54
39.51
37.42
35.21
32.73
29.83
26.59
23.28
20.19
17.48
15.07
12.67
9.93
6.65
2.81
-1.41
-5.74
-10.00
-14.06
-18.00
-21.99
-26.29
-31.16
-36.77
-43.12
-49.95
-56.70
-62.59
-66.69
-68.16
-66.38
-61.13
-52.65
-41.60
-28.89
-15.55
-2.53
9.45
19.90
28.56
35.30
40.07
42.94
44.02
43.59
42.04
39.79
37.21
34.50
31.76
28.96
26.10
23.24
20.46
17.87
15.44
13.04
10.48
7.60
4.34
0.76
-2.98
-6.69
-10.23
-13.50
-16.57
-19.61
-22.96
-26.98
-31.98
-37.96
-44.49
-50.78
-55.73
-58.34
-57.87
-54.05
-47.11
-37.63
-26.41
-14.32
-2.15
9.44
19.91
28.98
36.44
42.21
46.30
48.75
49.72
49.43
48.18
46.27
43.93
41.30
38.44
35.42
32.39
29.53
27.01
24.85
22.89
20.84
18.45
15.57
12.20
8.45
4.43
0.22
-4.14
-8.64
-13.27
-18.08
-23.24
-28.93
-35.28
-42.13
-48.95
-54.81
-58.66
-59.59
-57.14
-51.38
-42.89
-32.57
-21.36
-10.10
0.66
10.53
19.31
26.77
32.69
36.84
39.17
39.91
39.48
38.41
37.05
35.52
33.67
31.29
28.31
24.91
21.49
18.39
15.79
13.57
11.40
8.92
5.87
2.20
-1.97
-6.36
-10.69
-14.75
-18.44
-21.86
-25.28
-29.04
-33.46
-38.72
-44.80
-51.36
-57.76
-63.11
-66.45
-66.92
-63.98
-57.55
-48.09
-36.46
-23.69
-10.78
1.45
12.47
21.97
29.79
35.89
40.34
43.27
44.88
45.38
44.99
43.88
42.19
40.05
37.58
34.85
31.99
29.09
26.24
23.55
21.10
18.87
16.74
14.48
11.82
8.60
4.82
0.66
-3.64
-7.87
-11.96
-15.93
-19.87
-23.93
-28.30
-33.18
-38.79
-45.13
-51.86
-58.23
-63.13
-65.44
-64.35
-59.65
-51.70
-41.35
-29.53
-17.10
-4.75
7.06
17.87
27.29
35.00
40.76
44.56
46.57
47.12
46.57
45.27
43.50
41.47
39.37
37.32
35.35
33.42
31.39
29.15
26.64
23.96
21.22
18.48
15.68
12.61
9.09
5.08
0.75
-3.61
-7.69
-11.38
-14.83
-18.35
-22.32
-26.98
-32.34
-38.28
-44.48
-50.53
-55.85
-59.75
-61.44
-60.29
-55.93
-48.53
-38.67
-27.26
-15.24
-3.40
7.66
17.53
25.82
32.22
36.55
38.89
39.56
39.07
37.88
36.27
34.35
32.07
29.43
26.50
23.44
20.39
17.45
14.60
11.79
8.93
5.93
2.72
-0.79
-4.61
-8.72
-12.96
-17.18
-21.22
-25.03
-28.75
-32.61
-36.96
-42.00
-47.80
-54.07
-60.15
-65.14
-68.04
-68.04
-64.74
-58.24
-49.11
-38.17
-26.30
-14.25
-2.60
8.19
17.75
25.72
31.85
36.06
38.45
39.35
39.17
38.34
37.23
36.06
34.93
33.80
32.59
31.22
29.60
27.76
25.77
23.72
21.67
19.61
17.47
15.12
12.44
9.39
5.98
2.28
-1.57
-5.45
-9.30
-13.13
-17.12
-21.50
-26.57
-32.50
-39.23
-46.32
-53.04
-58.39
-61.35
-61.14
-57.45
-50.48
-40.95
-29.80
-17.94
-6.09
5.27
15.83
25.28
33.25
39.41
43.55
45.76
46.36
45.82
44.58
42.93
41.00
38.85
36.55
34.20
31.91
29.72
27.51
25.05
22.16
18.76
14.97
11.07
7.33
3.95
0.94
-1.87
-4.68
-7.64
-10.80
-14.05
-17.21
-20.13
-22.74
-25.10
-27.48
-30.21
-33.67
-38.09
-43.36
-49.00
-54.14
-57.73
-58.80
-56.67
-51.13
-42.51
-31.52
-19.17
-6.48
5.67
16.69
26.35
34.60
41.53
47.19
51.53
54.52
56.15
56.60
56.14
55.05
53.51
51.56
49.15
46.30
43.15
39.99
37.12
34.74
32.82
31.20
29.63
27.88
25.85
23.58
21.18
18.78
16.45
14.17
11.76
9.03
5.80
2.03
-2.18
-6.56
-10.87
-14.88
-18.58
-22.09
-25.67
-29.63
-34.23
-39.52
-45.31
-51.07
-56.03
-59.34
-60.20
-58.16
-53.19
-45.69
-36.35
-26.03
-15.54
-5.49
3.71
11.85
18.87
24.75
29.42
32.77
34.74
35.38
34.94
33.77
32.27
30.76
29.41
28.21
27.05
25.80
24.36
22.69
20.82
18.88
16.98
15.21
13.48
11.57
9.18
6.08
2.30
-1.92
-6.21
-10.26
-14.03
-17.68
-21.52
-25.83
-30.72
-36.15
-41.96
-47.85
-53.37
-57.91
-60.73
-61.07
-58.43
-52.75
-44.45
-34.40
-23.64
-13.13
-3.53
4.85
11.99
17.96
22.83
26.53
28.90
29.82
29.34
27.74
25.49
23.09
20.92
19.14
17.71
16.46
15.22
13.83
12.22
10.42
8.44
6.37
4.28
2.18
-0.02
-2.44
-5.25
-8.47
-12.01
-15.61
-19.09
-22.33
-25.46
-28.71
-32.26
-36.24
-40.60
-45.15
-49.61
-53.58
-56.50
-57.72
-56.61
-52.75
-46.13
-37.17
-26.62
-15.38
-4.22
6.34
15.99
24.54
31.88
37.87
42.38
45.37
46.96
47.36
46.88
45.81
44.36
42.67
40.82
38.85
36.83
34.85
32.99
31.34
29.91
28.61
27.23
25.47
23.04
19.77
15.70
11.09
6.31
1.69
-2.63
-6.73
-10.83
-15.19
-19.97
-25.19
-30.79
-36.62
-42.51
-48.19
-53.26
-57.14
-59.16
-58.71
-55.44
-49.42
-41.16
-31.52
-21.41
-11.59
-2.56
5.41
12.21
17.71
21.81
24.46
25.80
26.13
25.83
25.24
24.52
23.65
22.57
21.19
19.56
17.74
15.86
13.94
11.99
9.91
7.61
5.02
2.13
-0.95
-4.09
-7.12
-9.99
-12.72
-15.50
-18.52
-22.01
-26.12
-30.90
-36.35
-42.25
-48.20
-53.55
-57.40
-58.91
-57.44
-52.88
-45.56
-36.26
-25.87
-15.14
-4.59
5.49
14.88
23.35
30.54
36.16
40.03
42.22
43.07
42.98
42.32
41.27
39.85
38.03
35.81
33.27
30.58
27.94
25.45
23.16
20.99
18.86
16.63
14.22
11.52
8.46
5.00
1.11
-3.18
-7.81
-12.68
-17.67
-22.69
-27.71
-32.78
-38.00
-43.43
-48.87
-53.84
-57.59
-59.33
-58.48
-54.84
-48.64
-40.39
-30.73
-20.30
-9.66
0.66
10.15
18.37
25.00
29.91
33.19
35.07
35.82
35.75
35.09
33.99
32.52
30.71
28.56
26.18
23.74
21.52
19.72
18.37
17.28
16.04
14.22
11.50
7.84
3.45
-1.27
-5.90
-10.18
-14.05
-17.70
-21.48
-25.78
-30.85
-36.70
-42.95
-48.85
-53.42
-55.67
-54.86
-50.71
-43.56
-34.17
-23.55
-12.66
-2.18
7.53
16.40
24.41
31.48
37.41
41.89
44.72
45.88
45.64
44.39
42.58
40.48
38.21
35.72
32.98
30.01
26.94
23.96
21.22
18.73
16.30
13.63
10.43
6.53
2.03
-2.73
-7.31
-11.38
-14.88
-18.11
-21.52
-25.54
-30.40
-36.00
-41.99
-47.79
-52.74
-56.14
-57.29
-55.68
-51.07
-43.64
-34.01
-23.10
-11.89
-1.19
8.54
17.17
24.79
31.49
37.25
41.92
45.30
47.29
47.97
47.61
46.59
45.26
43.85
42.40
40.91
39.34
37.71
36.07
34.46
32.86
31.20
29.36
27.22
24.72
21.79
18.37
14.43
10.00
5.16
0.11
-4.95
-9.80
-14.41
-18.89
-23.50
-28.55
-34.26
-40.59
-47.10
-52.99
-57.24
-58.84
-57.10
-51.82
-43.42
-32.74
-20.89
-8.98
2.14
11.92
20.16
26.81
31.91
35.49
37.60
38.38
38.10
37.15
35.92
34.66
33.40
32.00
30.25
28.00
25.25
22.09
18.72
15.35
12.13
9.17
6.43
3.77
0.96
-2.17
-5.67
-9.41
-13.21
-16.89
-20.38
-23.80
-27.29
-31.00
-35.00
-39.31
-43.86
-48.51
-53.01
-56.86
-59.38
-59.84
-57.63
-52.48
-44.61
-34.65
-23.53
-12.22
-1.53
8.01
16.21
23.05
28.63
33.02
36.22
38.15
38.80
38.28
36.82
34.78
32.50
30.27
28.23
26.44
24.89
23.55
22.37
21.26
20.06
18.63
16.88
14.79
12.46
9.98
7.45
4.91
2.35
-0.27
-3.02
-6.01
-9.39
-13.34
-17.99
-23.27
-28.81
-33.98
-38.03
-40.26
-40.18
-37.60
-32.63
-25.57
-16.88
-7.11
3.06
12.93
21.82
29.24
34.91
38.85
41.25
42.38
42.52
41.84
40.53
38.74
36.64
34.44
32.28
30.23
28.25
26.23
24.02
21.50
18.63
15.38
11.80
7.92
3.84
-0.42
-4.76
-9.08
-13.28
-17.33
-21.33
-25.52
-30.20
-35.54
-41.48
-47.55
-52.94
-56.71
-57.97
-56.21
-51.34
-43.82
-34.38
-23.94
-13.34
-3.29
5.76
13.52
19.80
24.50
27.55
28.96
28.87
27.58
25.57
23.32
21.24
19.56
18.31
17.31
16.35
15.27
14.00
12.60
11.12
9.54
7.73
5.48
2.63
-0.85
-4.82
-8.97
-13.01
-16.78
-20.33
-23.95
-28.03
-32.86
-38.47
-44.50
-50.19
-54.60
-56.82
-56.21
-52.53
-45.98
-37.10
-26.65
-15.44
-4.28
6.23
15.67
23.79
30.49
35.70
39.41
41.65
42.54
42.31
41.22
39.48
37.19
34.37
31.10
27.65
24.41
21.78
19.93
18.66
17.49
15.82
13.26
9.75
5.59
1.16
-3.21
-7.37
-11.35
-15.27
-19.25
-23.38
-27.79
-32.56
-37.66
-42.86
-47.58
-50.97
-52.16
-50.48
-45.75
-38.28
-28.74
-17.94
-6.67
4.41
14.74
23.85
31.35
37.02
40.85
43.07
44.04
44.13
43.61
42.56
40.94
38.66
35.74
32.33
28.70
25.15
21.89
18.95
16.18
13.32
10.12
6.45
2.32
-2.10
-6.64
-11.13
-15.52
-19.89
-24.47
-29.51
-35.24
-41.70
-48.66
-55.58
-61.71
-66.17
-68.18
-67.20
-63.08
-56.11
-46.91
-36.33
-25.21
-14.28
-4.05
5.15
13.11
19.65
24.63
27.98
29.81
30.35
29.98
29.08
27.94
26.69
25.35
23.87
22.22
20.42
18.55
16.68
14.81
12.84
10.62
7.99
4.85
1.23
-2.67
-6.60
-10.30
-13.65
-16.69
-19.67
-22.95
-26.90
-31.68
-37.17
-42.85
-47.90
-51.42
-52.56
-50.83
-46.14
-38.83
-29.55
-19.11
-8.35
2.01
11.40
19.46
25.95
30.79
33.96
35.55
35.70
34.65
32.66
30.07
27.18
24.24
21.44
18.90
16.72
14.90
13.40
12.07
10.71
9.08
7.04
4.59
1.90
-0.80
-3.31
-5.59
-7.79
-10.22
-13.24
-17.15
-22.03
-27.72
-33.72
-39.34
-43.77
-46.27
-46.37
-43.91
-39.06
-32.20
-23.77
-14.18
-3.89
6.56
16.43
24.84
30.93
34.14
34.51
32.63
29.56
26.33
23.55
21.09
18.14
13.67
7.03
-1.54
-10.91
-19.48
-25.82
-29.25
-29.89
-28.49
-26.14
-24.05
-23.28
-24.36
-26.79
-28.53
-26.23
-16.25
3.60
32.47
65.89
96.98
118.83
127.17
121.90
106.73
87.41
69.31
55.79
47.74
44.27
43.79
44.95
46.86
48.81
49.95
49.20
45.59
38.81
29.46
18.97
9.07
1.07
-4.62
-8.72
-12.64
-17.86
-25.29
-34.75
-45.00
-54.12
-60.23
-62.15
-59.87
-54.47
-47.82
-41.91
-38.29
-37.72
-40.14
-44.86
-50.91
-57.36
-63.55
-69.21
-74.29
-78.82
-82.60
-85.19
-85.94
-84.24
-79.72
-72.36
-62.43
-50.30
-36.32
-20.83
-4.27
12.73
29.29
44.44
57.31
67.25
73.93
77.39
78.01
76.44
73.54
70.12
66.81
63.93
61.48
59.25
56.98
54.46
51.54
48.23
44.59
40.78
37.06
33.74
31.13
29.61
29.56
31.27
34.68
39.17
43.39
45.52
43.92
37.85
27.88
15.65
3.18
-7.89
-16.78
-23.35
-27.63
-29.48
-28.62
-25.08
-19.63
-13.78
-9.23
-7.24
-8.08
-11.07
-15.00
-18.74
-21.61
-23.49
-24.56
-25.10
-25.22
-24.89
-23.96
-22.27
-19.82
-16.77
-13.45
-10.25
-7.48
-5.31
-3.74
-2.69
-2.13
-2.15
-2.91
-4.60
-7.29
-10.91
-15.28
-20.17
-25.37
-30.61
-35.45
-39.19
-40.97
-40.02
-36.01
-29.26
-20.67
-11.40
-2.50
5.44
12.23
17.94
22.62
26.17
28.39
29.10
28.35
26.42
23.71
20.70
17.79
15.21
13.04
11.27
9.80
8.56
7.48
6.53
5.65
4.76
3.65
2.13
0.05
-2.57
-5.53
-8.56
-11.39
-13.97
-16.39
-18.90
-21.77
-25.15
-29.10
-33.55
-38.36
-43.20
-47.59
-50.84
-52.20
-51.06
-47.18
-40.78
-32.42
-22.85
-12.73
-2.61
7.08
15.95
23.58
29.61
33.78
36.07
36.67
35.93
34.28
32.09
29.66
27.22
24.90
22.78
20.87
19.09
17.32
15.41
13.28
10.94
8.49
6.13
3.99
2.09
0.28
-1.69
-4.12
-7.17
-10.87
-15.10
-19.71
-24.49
-29.10
-33.01
-35.50
-35.81
-33.53
-28.69
-21.81
-13.65
-4.92
3.94
12.65
20.87
28.06
33.51
36.59
37.08
35.31
32.03
28.05
23.94
19.89
15.80
11.44
6.63
1.29
-4.52
-10.67
-16.90
-23.02
-28.89
-34.60
-40.44
-46.68
-53.34
-60.00
-65.84
-69.99
-71.96
-71.84
-70.27
-68.11
-66.01
-64.10
-61.96
-58.84
-54.02
-47.04
-37.85
-26.65
-13.82
0.28
15.31
30.88
46.40
61.10
74.07
84.54
92.16
97.12
100.07
101.82
102.90
103.38
102.84
100.61
96.23
89.64
81.31
71.96
62.32
52.82
43.66
34.81
26.26
18.06
10.26
2.81
-4.54
-12.07
-19.91
-27.88
-35.47
-42.09
-47.35
-51.23
-54.09
-56.43
-58.60
-60.67
-62.36
-63.20
-62.74
-60.63
-56.72
-50.99
-43.57
-34.68
-24.68
-14.02
-3.27
7.01
16.29
24.16
30.40
35.04
38.27
40.41
41.70
42.29
42.13
41.08
39.07
36.15
32.60
28.81
25.19
21.98
19.18
16.58
13.81
10.50
6.44
1.67
-3.51
-8.60
-13.12
-16.84
-19.86
-22.65
-25.79
-29.76
-34.63
-40.08
-45.38
-49.63
-52.01
-51.97
-49.37
-44.50
-37.92
-30.32
-22.26
-14.12
-6.14
1.46
8.37
14.14
18.39
20.99
22.23
22.71
23.11
23.92
25.21
26.75
28.14
29.08
29.46
29.32
28.67
27.51
25.72
23.26
20.23
16.83
13.28
9.65
5.77
1.24
-4.32
-11.11
-19.05
-27.76
-36.74
-45.49
-53.50
-60.30
-65.34
-68.02
-67.85
-64.63
-58.61
-50.47
-41.11
-31.36
-21.66
-12.12
-2.58
7.06
16.57
25.42
32.87
38.38
41.80
43.41
43.81
43.61
43.14
42.48
41.43
39.81
37.54
34.75
31.64
28.39
25.09
21.71
18.14
14.34
10.28
6.08
1.86
-2.20
-6.01
-9.61
-13.18
-16.99
-21.28
-26.25
-31.91
-38.10
-44.48
-50.56
-55.72
-59.30
-60.69
-59.52
-55.74
-49.62
-41.64
-32.39
-22.43
-12.23
-2.25
7.05
15.23
21.93
27.01
30.60
33.06
34.77
35.98
36.73
36.89
36.33
35.07
33.28
31.24
29.14
26.95
24.49
21.56
18.08
14.16
10.08
6.10
2.42
-0.96
-4.12
-7.26
-10.63
-14.49
-19.10
-24.58
-30.77
-37.18
-42.99
-47.27
-49.17
-48.24
-44.49
-38.38
-30.67
-22.09
-13.25
-4.55
3.82
11.68
18.80
24.90
29.73
33.16
35.25
36.22
36.30
35.67
34.38
32.43
29.88
26.95
23.93
21.11
18.56
16.12
13.46
10.30
6.52
2.30
-2.02
-6.14
-9.91
-13.47
-17.07
-20.99
-25.42
-30.44
-35.99
-41.88
-47.72
-52.88
-56.57
-57.95
-56.46
-52.00
-44.96
-36.09
-26.22
-16.03
-5.92
3.90
13.28
21.94
29.56
35.76
40.34
43.28
44.83
45.32
45.05
44.19
42.79
40.87
38.48
35.79
33.02
30.34
27.72
24.97
21.86
18.23
14.16
9.91
5.77
1.90
-1.76
-5.47
-9.55
-14.18
-19.43
-25.19
-31.33
-37.59
-43.65
-48.93
-52.72
-54.24
-52.96
-48.76
-42.03
-33.48
-23.91
-13.99
-4.14
5.36
14.29
22.37
29.29
34.76
38.68
41.13
42.35
42.65
42.27
41.36
40.01
38.21
35.98
33.41
30.62
27.77
24.95
22.20
19.37
16.29
12.76
8.77
4.45
0.14
-3.83
-7.31
-10.42
-13.55
-17.23
-21.89
-27.66
-34.33
-41.28
-47.68
-52.66
-55.45
-55.59
-52.96
-47.81
-40.64
-32.07
-22.71
-13.01
-3.35
5.95
14.55
22.12
28.34
33.02
36.13
37.83
38.35
37.92
36.75
35.00
32.82
30.38
27.83
25.32
22.92
20.56
18.13
15.50
12.58
9.31
5.75
1.99
-1.86
-5.65
-9.29
-12.72
-16.00
-19.33
-23.08
-27.58
-33.07
-39.38
-45.89
-51.61
-55.45
-56.56
-54.63
-49.90
-42.98
-34.60
-25.30
-15.41
-5.17
5.11
14.93
23.70
30.87
36.17
39.65
41.66
42.65
43.02
42.98
42.53
41.55
39.94
37.70
35.00
32.11
29.33
26.78
24.46
22.14
19.55
16.45
12.78
8.63
4.24
-0.14
-4.36
-8.39
-12.38
-16.59
-21.28
-26.56
-32.35
-38.34
-43.99
-48.71
-51.89
-53.11
-52.12
-48.86
-43.49
-36.27
-27.62
-18.02
-8.04
1.79
11.00
19.20
26.14
31.63
35.58
37.95
38.87
38.54
37.27
35.39
33.15
30.74
28.28
25.87
23.64
21.67
19.91
18.18
16.21
13.68
10.43
6.55
2.32
-1.86
-5.66
-8.97
-11.95
-14.93
-18.37
-22.62
-27.83
-33.83
-40.07
-45.75
-49.91
-51.76
-50.84
-47.16
-41.11
-33.32
-24.41
-14.93
-5.24
4.31
13.41
21.68
28.77
34.48
38.74
41.61
43.22
43.73
43.30
42.11
40.36
38.26
36.00
33.74
31.51
29.28
26.99
24.56
21.96
19.20
16.30
13.19
9.78
6.00
1.84
-2.55
-6.92
-11.04
-14.81
-18.42
-22.25
-26.74
-32.13
-38.29
-44.73
-50.63
-55.17
-57.63
-57.59
-54.90
-49.71
-42.41
-33.54
-23.76
-13.68
-3.84
5.43
13.92
21.53
28.13
33.56
37.65
40.31
41.63
41.79
41.08
39.75
37.99
35.92
33.64
31.28
28.98
26.84
24.90
23.05
21.12
18.83
16.00
12.50
8.40
3.92
-0.64
-5.02
-9.07
-12.83
-16.50
-20.37
-24.67
-29.52
-34.87
-40.46
-45.85
-50.42
-53.49
-54.47
-52.98
-49.02
-42.91
-35.21
-26.53
-17.41
-8.31
0.42
8.47
15.53
21.38
25.92
29.19
31.33
32.47
32.76
32.28
31.14
29.46
27.46
25.39
23.48
21.83
20.42
19.08
17.54
15.54
12.92
9.68
6.00
2.10
-1.79
-5.54
-9.17
-12.80
-16.65
-20.92
-25.77
-31.22
-37.05
-42.77
-47.64
-50.84
-51.68
-49.86
-45.46
-38.98
-31.01
-22.17
-12.89
-3.53
5.58
14.07
21.52
27.59
32.10
35.13
36.93
37.81
38.00
37.56
36.50
34.83
32.69
30.35
28.13
26.22
24.56
22.91
20.90
18.34
15.19
11.65
7.95
4.26
0.65
-2.93
-6.50
-10.06
-13.63
-17.34
-21.44
-26.26
-31.97
-38.37
-44.77
-50.16
-53.50
-54.06
-51.67
-46.70
-39.84
-31.80
-23.06
-13.91
-4.52
4.82
13.68
21.52
27.84
32.42
35.27
36.69
37.05
36.71
35.88
34.70
33.19
31.40
29.35
27.11
24.74
22.28
19.71
17.01
14.14
11.08
7.81
4.38
0.80
-2.87
-6.59
-10.29
-13.87
-17.31
-20.70
-24.30
-28.44
-33.33
-38.92
-44.75
-50.05
-53.94
-55.69
-54.95
-51.73
-46.37
-39.31
-31.04
-21.97
-12.55
-3.16
5.79
13.95
21.01
26.78
31.18
34.22
36.04
36.83
36.79
36.05
34.70
32.79
30.45
27.89
25.38
23.11
21.09
19.14
16.92
14.19
10.87
7.14
3.25
-0.53
-4.11
-7.62
-11.26
-15.28
-19.80
-24.87
-30.36
-36.03
-41.49
-46.19
-49.54
-50.95
-50.02
-46.63
-40.96
-33.44
-24.56
-14.87
-4.85
5.00
14.20
22.30
28.93
33.88
37.15
38.94
39.57
39.38
38.60
37.37
35.73
33.71
31.39
28.89
26.35
23.87
21.46
19.00
16.34
13.35
9.97
6.26
2.34
-1.64
-5.60
-9.53
-13.50
-17.60
-22.00
-26.83
-32.19
-38.02
-44.02
-49.61
-54.00
-56.39
-56.17
-53.12
-47.43
-39.63
-30.39
-20.38
-10.17
-0.18
9.24
17.81
25.28
31.42
36.08
39.21
40.86
41.21
40.47
38.92
36.80
34.33
31.66
28.91
26.16
23.50
20.96
18.56
16.25
13.90
11.34
8.40
4.97
1.09
-3.07
-7.26
-11.33
-15.28
-19.32
-23.75
-28.86
-34.76
-41.21
-47.60
-53.12
-56.83
-57.97
-56.13
-51.31
-43.97
-34.82
-24.65
-14.16
-3.90
5.78
14.60
22.34
28.83
33.91
37.54
39.74
40.66
40.45
39.29
37.38
34.90
32.08
29.18
26.48
24.13
22.11
20.19
18.05
15.39
12.07
8.20
3.99
-0.26
-4.38
-8.36
-12.30
-16.44
-21.02
-26.22
-32.06
-38.32
-44.51
-49.89
-53.64
-55.06
-53.80
-49.88
-43.67
-35.71
-26.54
-16.62
-6.32
3.98
13.90
23.00
30.85
37.13
41.68
44.52
45.85
45.93
45.05
43.49
41.46
39.11
36.58
33.95
31.33
28.74
26.20
23.62
20.89
17.92
14.66
11.15
7.47
3.73
-0.06
-3.93
-8.00
-12.45
-17.43
-23.01
-29.19
-35.75
-42.30
-48.17
-52.56
-54.68
-53.93
-50.20
-43.83
-35.51
-26.05
-16.07
-5.99
3.99
13.63
22.59
30.37
36.52
40.82
43.38
44.56
44.81
44.47
43.65
42.33
40.46
38.06
35.24
32.22
29.20
26.32
23.58
20.92
18.16
15.13
11.70
7.89
3.85
-0.22
-4.12
-7.85
-11.54
-15.47
-19.86
-24.84
-30.36
-36.25
-42.24
-47.93
-52.76
-56.08
-57.23
-55.70
-51.35
-44.46
-35.60
-25.56
-15.07
-4.70
5.15
14.13
21.96
28.39
33.28
36.63
38.58
39.38
39.25
38.42
37.04
35.20
32.99
30.47
27.79
25.06
22.41
19.89
17.44
14.86
11.92
8.45
4.45
0.09
-4.37
-8.71
-12.91
-17.11
-21.60
-26.65
-32.40
-38.76
-45.36
-51.60
-56.69
-59.78
-60.22
-57.69
-52.35
-44.73
-35.56
-25.52
-15.15
-4.75
5.43
15.09
23.89
31.40
37.29
41.40
43.77
44.57
44.07
42.57
40.39
37.82
35.12
32.48
30.02
27.74
25.58
23.37
20.95
18.12
14.83
11.11
7.13
3.11
-0.78
-4.49
-8.13
-11.92
-16.11
-20.89
-26.34
-32.33
-38.54
-44.37
-49.05
-51.71
-51.69
-48.68
-42.89
-34.95
-25.67
-15.78
-5.75
4.18
13.88
23.08
31.36
38.20
43.15
46.09
47.25
47.13
46.25
45.01
43.54
41.78
39.66
37.16
34.44
31.71
29.09
26.61
24.14
21.54
18.68
15.56
12.20
8.67
4.98
1.12
-2.92
-7.13
-11.44
-15.79
-20.15
-24.57
-29.20
-34.22
-39.78
-45.82
-52.06
-57.92
-62.62
-65.38
-65.57
-62.97
-57.72
-50.31
-41.42
-31.73
-21.80
-12.05
-2.78
5.74
13.28
19.60
24.56
28.14
30.45
31.69
32.10
31.84
31.02
29.65
27.80
25.59
23.26
21.05
19.08
17.25
15.25
12.76
9.54
5.67
1.43
-2.75
-6.58
-10.02
-13.30
-16.84
-21.03
-26.15
-32.20
-38.94
-45.84
-52.18
-57.10
-59.80
-59.68
-56.54
-50.56
-42.28
-32.37
-21.52
-10.29
0.82
11.33
20.83
28.91
35.28
39.86
42.74
44.23
44.68
44.39
43.59
42.32
40.57
38.34
35.70
32.84
30.02
27.42
25.06
22.81
20.36
17.45
13.92
9.82
5.35
0.80
-3.58
-7.67
-11.48
-15.12
-18.84
-22.93
-27.68
-33.30
-39.78
-46.78
-53.58
-59.18
-62.56
-62.91
-59.88
-53.64
-44.78
-34.09
-22.42
-10.51
1.05
11.81
21.52
30.00
37.14
42.85
47.01
49.55
50.60
50.48
49.64
48.51
47.30
45.96
44.29
42.17
39.64
36.95
34.39
32.04
29.75
27.25
24.24
20.61
16.51
12.19
7.89
3.77
-0.17
-4.01
-7.84
-11.71
-15.65
-19.72
-23.98
-28.59
-33.62
-39.05
-44.60
-49.69
-53.58
-55.50
-54.86
-51.46
-45.53
-37.59
-28.31
-18.29
-7.99
2.17
11.84
20.63
28.19
34.22
38.61
41.41
42.82
43.11
42.53
41.32
39.68
37.75
35.65
33.46
31.17
28.82
26.40
23.96
21.56
19.22
16.91
14.52
11.93
8.98
5.57
1.73
-2.40
-6.60
-10.68
-14.54
-18.22
-21.94
-25.96
-30.54
-35.78
-41.61
-47.70
-53.44
-58.03
-60.61
-60.52
-57.53
-51.88
-44.25
-35.46
-26.13
-16.63
-7.08
2.45
11.65
19.99
26.83
31.74
34.66
35.96
36.22
35.98
35.47
34.63
33.22
31.11
28.40
25.41
22.50
19.92
17.60
15.32
12.74
9.70
6.25
2.64
-0.81
-3.93
-6.77
-9.57
-12.64
-16.28
-20.66
-25.83
-31.68
-37.96
-44.23
-49.78
-53.82
-55.57
-54.55
-50.71
-44.50
-36.62
-27.87
-18.86
-9.97
-1.37
6.84
14.48
21.29
26.98
31.32
34.21
35.73
36.08
35.55
34.42
32.92
31.17
29.20
27.04
24.71
22.28
19.84
17.39
14.86
12.06
8.83
5.14
1.18
-2.73
-6.26
-9.30
-12.00
-14.78
-18.13
-22.40
-27.72
-33.87
-40.38
-46.52
-51.46
-54.41
-54.81
-52.48
-47.65
-40.87
-32.84
-24.25
-15.58
-7.18
0.69
7.78
13.84
18.63
22.06
24.18
25.18
25.32
24.82
23.81
22.35
20.43
18.12
15.54
12.92
10.41
8.04
5.71
3.20
0.33
-2.97
-6.54
-10.11
-13.34
-16.06
-18.28
-20.21
-22.19
-24.60
-27.77
-31.85
-36.83
-42.41
-48.08
-53.09
-56.65
-58.04
-56.81
-52.90
-46.61
-38.52
-29.35
-19.75
-10.26
-1.29
6.86
13.92
19.64
23.90
26.68
28.15
28.55
28.19
27.35
26.21
24.95
23.67
22.47
21.42
20.53
19.69
18.67
17.22
15.08
12.14
8.51
4.51
0.61
-2.75
-5.38
-7.40
-9.30
-11.69
-15.07
-19.60
-25.03
-30.77
-36.07
-40.17
-42.42
-42.37
-39.77
-34.64
-27.29
-18.23
-8.12
2.45
13.01
23.25
32.94
41.85
49.71
56.22
61.20
64.61
66.65
67.62
67.80
67.32
66.13
64.10
61.10
57.20
52.70
48.00
43.47
39.27
35.30
31.27
26.88
21.95
16.55
10.91
5.34
-0.01
-5.12
-10.10
-15.08
-20.22
-25.63
-31.36
-37.47
-43.82
-50.09
-55.69
-59.82
-61.73
-60.91
-57.26
-51.07
-42.91
-33.46
-23.31
-12.99
-2.92
6.47
14.85
21.93
27.53
31.61
34.27
35.72
36.19
35.92
35.04
33.62
31.66
29.24
26.54
23.78
21.18
18.77
16.37
13.71
10.57
6.96
3.10
-0.69
-4.19
-7.38
-10.46
-13.74
-17.51
-21.97
-27.21
-33.17
-39.57
-45.87
-51.24
-54.75
-55.57
-53.32
-48.13
-40.61
-31.58
-21.83
-11.90
-2.11
7.33
16.13
23.95
30.40
35.26
38.48
40.27
40.97
40.89
40.22
39.05
37.40
35.33
33.01
30.62
28.24
25.75
22.87
19.32
14.98
10.08
5.12
0.62
-3.12
-6.14
-8.84
-11.71
-15.12
-19.24
-24.06
-29.45
-35.28
-41.33
-47.16
-52.08
-55.22
-55.78
-53.31
-47.92
-40.10
-30.69
-20.50
-10.13
0.00
9.65
18.56
26.44
32.97
37.90
41.13
42.79
43.18
42.64
41.47
39.85
37.86
35.53
32.95
30.26
27.66
25.29
23.08
20.83
18.26
15.16
11.52
7.54
3.51
-0.35
-3.97
-7.48
-11.10
-15.07
-19.61
-24.83
-30.74
-37.16
-43.65
-49.57
-54.12
-56.58
-56.48
-53.72
-48.50
-41.18
-32.21
-22.09
-11.37
-0.64
9.49
18.51
26.08
32.08
36.54
39.55
41.22
41.65
40.99
39.44
37.31
34.88
32.44
30.12
27.99
25.97
23.94
21.71
19.09
15.94
12.25
8.15
3.84
-0.48
-4.65
-8.64
-12.49
-16.35
-20.41
-24.88
-29.95
-35.72
-42.01
-48.31
-53.81
-57.52
-58.60
-56.60
-51.58
-44.07
-34.85
-24.67
-14.11
-3.58
6.58
16.05
24.39
31.17
36.11
39.17
40.63
40.94
40.54
39.70
38.50
36.83
34.62
31.94
29.04
26.22
23.72
21.54
19.44
17.06
14.08
10.41
6.21
1.81
-2.45
-6.38
-9.97
-13.41
-16.95
-20.85
-25.29
-30.40
-36.17
-42.39
-48.60
-54.07
-57.88
-59.22
-57.63
-53.10
-46.09
-37.30
-27.43
-17.10
-6.74
3.33
12.76
21.15
28.12
33.42
36.98
39.02
39.87
39.94
39.47
38.58
37.25
35.45
33.20
30.62
27.89
25.22
22.69
20.24
17.68
14.82
11.51
7.73
3.60
-0.65
-4.82
-8.75
-12.45
-16.10
-19.98
-24.43
-29.69
-35.80
-42.48
-49.09
-54.73
-58.46
-59.53
-57.58
-52.76
-45.54
-36.59
-26.58
-16.04
-5.37
5.06
14.87
23.63
30.96
36.56
40.36
42.47
43.16
42.74
41.52
39.69
37.43
34.89
32.25
29.70
27.36
25.22
23.11
20.75
17.85
14.27
10.07
5.53
0.96
-3.39
-7.43
-11.23
-14.97
-18.88
-23.16
-28.00
-33.49
-39.56
-45.85
-51.66
-56.11
-58.33
-57.72
-54.13
-47.83
-39.42
-29.58
-18.94
-8.06
2.62
12.67
21.73
29.49
35.70
40.23
43.06
44.31
44.21
43.10
41.33
39.20
36.90
34.50
32.05
29.55
27.07
24.65
22.31
19.96
17.38
14.35
10.67
6.40
1.75
-2.93
-7.31
-11.32
-15.12
-19.09
-23.67
-29.12
-35.41
-42.19
-48.87
-54.71
-58.98
-61.03
-60.41
-56.87
-50.51
-41.70
-31.06
-19.38
-7.47
3.98
14.44
23.58
31.22
37.23
41.57
44.22
45.29
45.02
43.77
41.91
39.73
37.43
35.03
32.53
29.95
27.33
24.74
22.18
19.60
16.86
13.83
10.41
6.60
2.50
-1.77
-6.02
-10.16
-14.14
-18.08
-22.19
-26.73
-31.89
-37.64
-43.68
-49.39
-53.98
-56.59
-56.57
-53.57
-47.70
-39.41
-29.40
-18.46
-7.27
3.58
13.66
22.62
30.18
36.16
40.47
43.19
44.49
44.66
43.98
42.69
40.93
38.79
36.31
33.53
30.62
27.74
25.08
22.69
20.44
18.05
15.22
11.71
7.54
2.91
-1.82
-6.35
-10.52
-14.42
-18.28
-22.39
-27.05
-32.41
-38.48
-45.01
-51.46
-57.07
-60.92
-62.18
-60.34
-55.32
-47.52
-37.66
-26.60
-15.14
-3.90
6.73
16.52
25.29
32.83
38.89
43.23
45.77
46.68
46.34
45.28
43.92
42.47
40.91
39.10
36.98
34.60
32.10
29.60
27.10
24.44
21.41
17.88
13.86
9.54
5.17
0.93
-3.17
-7.22
-11.39
-15.82
-20.66
-25.99
-31.88
-38.32
-45.07
-51.63
-57.22
-61.03
-62.40
-61.02
-56.97
-50.54
-42.14
-32.15
-21.03
-9.33
2.25
12.93
22.07
29.25
34.39
37.65
39.35
39.81
39.29
38.05
36.29
34.20
31.97
29.74
27.55
25.46
23.43
21.38
19.22
16.81
14.08
10.98
7.54
3.88
0.14
-3.59
-7.32
-11.18
-15.37
-20.11
-25.50
-31.50
-37.89
-44.18
-49.69
-53.66
-55.35
-54.27
-50.30
-43.68
-35.00
-24.95
-14.25
-3.48
6.86
16.34
24.57
31.20
36.01
38.99
40.35
40.49
39.80
38.62
37.10
35.24
33.00
30.41
27.60
24.80
22.19
19.84
17.62
15.29
12.58
9.34
5.61
1.57
-2.53
-6.45
-10.10
-13.56
-17.04
-20.83
-25.19
-30.28
-36.06
-42.31
-48.56
-54.16
-58.41
-60.62
-60.23
-57.01
-51.02
-42.68
-32.62
-21.55
-10.14
1.04
11.56
21.03
29.07
35.35
39.64
41.95
42.51
41.78
40.25
38.34
36.29
34.20
32.12
30.03
27.97
25.94
23.91
21.77
19.38
16.60
13.31
9.47
5.15
0.54
-4.10
-8.50
-12.55
-16.27
-19.92
-23.85
-28.38
-33.66
-39.56
-45.60
-51.07
-55.13
-57.05
-56.31
-52.76
-46.57
-38.16
-28.15
-17.19
-5.96
4.89
14.76
23.15
29.78
34.57
37.69
39.43
40.10
39.94
39.08
37.63
35.70
33.45
31.06
28.70
26.44
24.23
21.95
19.44
16.64
13.54
10.23
6.78
3.28
-0.22
-3.72
-7.20
-10.73
-14.39
-18.39
-22.98
-28.29
-34.26
-40.47
-46.15
-50.35
-52.22
-51.24
-47.40
-41.11
-33.04
-23.86
-14.11
-4.21
5.57
14.88
23.36
30.62
36.38
40.53
43.12
44.33
44.39
43.54
41.92
39.72
37.11
34.29
31.47
28.81
26.35
24.02
21.65
19.05
16.10
12.76
9.08
5.15
1.09
-3.00
-7.02
-10.93
-14.72
-18.49
-22.40
-26.65
-31.44
-36.79
-42.54
-48.26
-53.24
-56.70
-57.86
-56.25
-51.76
-44.76
-35.91
-26.03
-15.83
-5.80
3.71
12.46
20.16
26.50
31.26
34.43
36.21
36.93
36.90
36.26
34.99
33.11
30.72
28.07
25.49
23.22
21.27
19.44
17.43
14.98
12.03
8.72
5.26
1.86
-1.38
-4.49
-7.61
-10.89
-14.52
-18.61
-23.25
-28.40
-33.89
-39.29
-43.96
-47.13
-48.06
-46.31
-41.83
-35.04
-26.62
-17.31
-7.71
1.76
10.83
19.17
26.45
32.27
36.34
38.61
39.30
38.80
37.54
35.83
33.80
31.46
28.85
26.08
23.41
21.03
19.06
17.38
15.68
13.63
10.99
7.74
4.06
0.22
-3.56
-7.16
-10.61
-14.08
-17.80
-21.98
-26.78
-32.22
-38.10
-43.96
-49.16
-52.98
-54.77
-54.13
-50.98
-45.47
-38.01
-29.07
-19.17
-8.86
1.33
10.88
19.38
26.54
32.21
36.37
39.12
40.62
41.10
40.80
39.95
38.70
37.10
35.12
32.73
29.98
27.04
24.16
21.55
19.30
17.31
15.33
13.05
10.24
6.81
2.86
-1.42
-5.82
-10.17
-14.44
-18.69
-23.01
-27.48
-32.18
-37.23
-42.77
-48.92
-55.57
-62.27
-68.17
-72.18
-73.29
-70.93
-65.16
-56.61
-46.19
-34.77
-22.93
-11.05
0.62
11.71
21.65
29.83
35.83
39.58
41.43
41.98
41.85
41.48
41.01
40.37
39.42
38.10
36.49
34.76
33.04
31.40
29.78
27.99
25.86
23.20
19.99
16.29
12.32
8.34
4.57
1.04
-2.39
-6.00
-10.07
-14.79
-20.13
-25.94
-31.98
-37.91
-43.33
-47.72
-50.48
-51.04
-49.02
-44.45
-37.71
-29.46
-20.40
-11.09
-1.92
6.89
15.10
22.44
28.57
33.23
36.32
37.94
38.40
37.96
36.86
35.20
33.10
30.71
28.30
26.18
24.57
23.49
22.75
22.01
20.88
19.13
16.73
13.86
10.84
8.05
5.81
4.24
3.27
2.64
2.01
1.08
-0.32
-2.17
-4.41
-6.92
-9.67
-12.62
-15.72
-18.88
-21.99
-25.05
-28.17
-31.59
-35.55
-40.18
-45.33
-50.51
-55.02
-58.01
-58.77
-56.87
-52.31
-45.45
-36.93
-27.44
-17.60
-7.84
1.51
10.17
17.87
24.36
29.49
33.23
35.71
37.08
37.49
36.98
35.58
33.40
30.66
27.74
25.02
22.80
21.11
19.81
18.54
16.95
14.72
11.73
8.03
3.84
-0.56
-4.93
-9.15
-13.25
-17.42
-21.88
-26.81
-32.23
-37.95
-43.54
-48.41
-51.87
-53.24
-52.07
-48.18
-41.78
-33.46
-24.00
-14.20
-4.73
4.02
11.86
18.69
24.43
28.96
32.14
33.92
34.39
33.79
32.42
30.60
28.53
26.36
24.14
21.91
19.63
17.24
14.61
11.67
8.36
4.73
0.93
-2.94
-6.76
-10.53
-14.33
-18.29
-22.64
-27.54
-33.07
-39.05
-45.05
-50.36
-54.16
-55.72
-54.54
-50.51
-43.93
-35.38
-25.60
-15.37
-5.36
3.95
12.21
19.21
24.83
28.99
31.68
32.98
33.06
32.17
30.56
28.44
25.93
23.07
19.90
16.49
12.98
9.53
6.28
3.28
0.48
-2.20
-4.85
-7.50
-10.21
-13.03
-16.14
-19.79
-24.26
-29.72
-36.09
-42.97
-49.63
-55.16
-58.64
-59.33
-56.89
-51.42
-43.43
-33.68
-22.97
-11.97
-1.17
9.15
18.72
27.32
34.67
40.53
44.75
47.29
48.27
47.92
46.53
44.37
41.79
39.07
36.41
33.90
31.50
29.11
26.63
23.97
21.06
17.81
14.11
9.89
5.17
0.11
-5.01
-9.99
-14.79
-19.65
-25.00
-31.18
-38.11
-45.17
-51.25
-55.08
-55.68
-52.60
-46.09
-36.89
-25.93
-14.16
-2.29
9.18
19.85
29.47
37.81
44.72
50.08
53.81
55.84
56.19
55.08
52.83
49.87
46.60
43.30
40.11
37.07
34.19
31.47
28.92
26.44
23.90
21.13
17.99
14.47
10.69
6.84
3.09
-0.53
-4.14
-8.05
-12.66
-18.29
-25.01
-32.48
-39.91
-46.25
-50.38
-51.52
-49.36
-44.12
-36.41
-26.97
-16.51
-5.62
5.24
15.66
25.21
33.51
40.27
45.35
48.81
50.84
51.68
51.54
50.60
48.95
46.75
44.18
41.45
38.75
36.14
33.57
30.87
27.83
24.32
20.36
16.09
11.72
7.48
3.44
-0.47
-4.47
-8.78
-13.61
-19.04
-25.08
-31.65
-38.61
-45.67
-52.33
-57.85
-61.38
-62.22
-60.05
-55.07
-47.93
-39.45
-30.36
-21.17
-12.15
-3.55
4.37
11.24
16.75
20.71
23.11
24.08
23.79
22.42
20.18
17.27
13.98
10.47
6.79
2.76
-1.97
-7.72
-14.61
-22.44
-30.60
-38.20
-44.15
-47.45
-47.45
-44.10
-38.08
-30.63
-23.19
-17.05
-12.92
-10.90
-10.58
-11.23
-11.99
-12.03
-10.49
-6.68
-0.05
9.51
21.59
35.20
48.92
61.13
70.30
75.31
75.61
71.43
63.72
53.96
43.84
34.82
27.83
23.16
20.49
19.09
18.07
16.65
14.32
10.96
6.95
3.08
0.34
-0.33
1.55
5.81
11.64
17.77
22.90
25.96
26.33
23.86
18.84
11.96
4.29
-2.90
-8.35
-11.15
-11.08
-8.72
-5.21
-1.82
0.51
1.52
1.60
1.40
1.51
2.13
2.97
3.47
2.99
1.03
-2.62
-7.86
-14.39
-21.71
-29.20
-36.21
-42.15
-46.62
-49.47
-50.86
-51.16
-50.76
-49.91
-48.63
-46.75
-44.11
-40.67
-36.70
-32.73
-29.34
-26.99
-25.85
-25.73
-26.18
-26.59
-26.30
-24.76
-21.59
-16.68
-10.17
-2.50
5.76
13.94
21.47
27.86
32.79
36.08
37.71
37.73
36.35
33.86
30.62
27.06
23.56
20.38
17.65
15.31
13.20
11.10
8.88
6.46
3.87
1.17
-1.56
-4.30
-7.02
-9.74
-12.52
-15.48
-18.77
-22.50
-26.69
-31.22
-35.77
-39.83
-42.71
-43.72
-42.26
-37.99
-31.01
-21.85
-11.40
-0.64
9.57
18.74
26.65
33.28
38.70
42.88
45.81
47.44
47.83
47.09
45.43
43.08
40.28
37.22
34.01
30.66
27.02
22.88
18.04
12.43
6.17
-0.51
-7.33
-14.14
-20.90
-27.74
-34.81
-42.25
-50.07
-58.12
-66.03
-73.16
-78.69
-81.75
-81.65
-78.13
-71.43
-62.23
-51.48
-40.09
-28.74
-17.77
-7.28
2.78
12.40
21.39
29.35
35.80
40.39
43.14
44.55
45.47
46.74
48.88
51.82
54.95
57.46
58.69
58.43
56.90
54.53
51.67
48.48
44.92
41.04
37.05
33.38
30.39
28.13
26.17
23.71
19.95
14.49
7.65
0.55
-5.24
-8.18
-7.25
-2.32
5.88
16.08
26.80
36.86
45.47
52.34
57.36
60.52
61.68
60.65
57.28
51.55
43.77
34.55
24.75
15.33
7.12
0.59
-4.26
-7.93
-11.22
-15.01
-20.04
-26.74
-35.00
-44.22
-53.32
-61.01
-66.24
-68.60
-68.58
-67.38
-66.53
-67.25
-69.94
-74.09
-78.43
-81.47
-81.96
-79.25
-73.42
-65.09
-55.11
-44.32
-33.28
-22.23
-11.29
-0.60
9.49
18.46
25.77
31.06
34.31
35.76
35.83
34.91
33.32
31.31
29.01
26.50
23.79
20.87
17.70
14.31
10.75
7.16
3.65
0.33
-2.77
-5.64
-8.33
-10.88
-13.44
-16.24
-19.55
-23.50
-27.98
-32.43
-35.98
-37.68
-36.79
-33.10
-26.97
-19.17
-10.61
-2.05
6.09
13.64
20.57
26.81
32.14
36.25
38.80
39.52
38.33
35.35
30.99
25.92
20.97
16.94
14.35
13.27
13.27
13.59
13.45
12.32
10.11
7.08
3.69
0.27
-3.15
-6.80
-11.01
-15.99
-21.72
-27.93
-34.17
-39.96
-44.76
-48.07
-49.36
-48.16
-44.21
-37.57
-28.74
-18.62
-8.33
1.05
8.75
14.42
18.20
20.49
21.82
22.64
23.25
23.76
24.21
24.59
24.88
24.96
24.68
23.85
22.31
19.98
16.89
13.11
8.68
3.70
-1.75
-7.51
-13.38
-19.28
-25.35
-31.85
-39.15
-47.39
-56.37
-65.52
-74.05
-81.10
-85.97
-88.09
-87.08
-82.69
-74.82
-63.62
-49.53
-33.33
-16.07
0.98
16.54
29.41
38.66
43.82
45.06
43.08
39.07
34.36
30.11
27.09
25.57
25.38
26.08
27.10
27.91
28.11
27.41
25.68
22.95
19.49
15.69
12.05
8.98
6.57
4.53
2.14
-1.42
-6.74
-13.87
-22.16
-30.35
-37.08
-41.27
-42.46
-40.89
-37.21
-32.19
-26.41
-20.21
-13.69
-6.94
-0.18
6.16
11.49
15.31
17.35
17.73
16.95
15.67
14.47
13.61
13.05
12.48
11.57
10.12
8.13
5.73
3.07
0.22
-2.83
-6.15
-9.80
-13.84
-18.27
-23.09
-28.24
-33.57
-38.80
-43.46
-46.98
-48.67
-47.94
-44.45
-38.31
-29.99
-20.33
-10.24
-0.48
8.47
16.38
23.20
28.86
33.29
36.42
38.29
39.05
38.97
38.32
37.26
35.83
34.00
31.67
28.87
25.69
22.25
18.71
15.10
11.44
7.68
3.80
-0.22
-4.38
-8.74
-13.44
-18.61
-24.30
-30.27
-35.93
-40.39
-42.68
-42.09
-38.38
-31.92
-23.46
-13.88
-3.90
6.06
15.74
24.93
33.32
40.54
46.27
50.37
52.97
54.36
54.90
54.86
54.42
53.59
52.35
50.59
48.20
45.08
41.17
36.59
31.52
26.22
20.87
15.60
10.36
5.08
-0.34
-6.01
-12.10
-18.73
-25.94
-33.51
-40.83
-47.01
-51.10
-52.39
-50.65
-46.14
-39.57
-31.70
-23.23
-14.59
-6.05
2.19
9.89
16.71
22.29
26.35
28.87
30.03
30.15
29.59
28.54
27.03
24.95
22.24
18.91
15.17
11.30
7.56
4.08
0.86
-2.18
-5.13
-8.03
-10.87
-13.69
-16.57
-19.70
-23.36
-27.78
-33.07
-39.05
-45.21
-50.73
-54.67
-56.15
-54.65
-50.11
-42.95
-33.90
-23.76
-13.25
-2.89
6.95
16.01
24.05
30.90
36.45
40.70
43.69
45.50
46.14
45.70
44.26
42.07
39.45
36.64
33.82
30.93
27.80
24.25
20.20
15.76
11.18
6.68
2.39
-1.73
-5.82
-10.09
-14.69
-19.71
-25.11
-30.76
-36.31
-41.22
-44.81
-46.29
-45.09
-40.96
-34.13
-25.26
-15.23
-4.93
4.99
14.11
22.24
29.24
35.00
39.37
42.27
43.74
43.98
43.28
41.92
40.09
37.89
35.34
32.45
29.30
25.96
22.45
18.71
14.71
10.45
6.10
1.88
-1.98
-5.40
-8.51
-11.60
-15.02
-19.09
-24.00
-29.75
-36.08
-42.42
-47.97
-51.76
-52.93
-50.99
-45.97
-38.40
-29.15
-19.09
-8.93
0.91
10.19
18.74
26.35
32.78
37.76
41.17
43.08
43.74
43.46
42.54
41.16
39.35
37.09
34.39
31.37
28.26
25.30
22.63
20.16
17.67
14.81
11.40
7.43
3.10
-1.29
-5.47
-9.32
-12.95
-16.57
-20.48
-24.92
-30.01
-35.68
-41.61
-47.25
-51.84
-54.60
-54.90
-52.42
-47.28
-39.92
-30.96
-21.01
-10.64
-0.31
9.55
18.47
26.04
31.94
36.06
38.52
39.66
39.86
39.48
38.74
37.70
36.28
34.42
32.09
29.41
26.54
23.67
20.88
18.11
15.21
12.03
8.50
4.71
0.85
-2.91
-6.44
-9.77
-12.99
-16.24
-19.62
-23.23
-27.15
-31.48
-36.23
-41.26
-46.12
-50.12
-52.42
-52.30
-49.41
-43.86
-36.20
-27.17
-17.47
-7.67
1.87
10.85
18.91
25.66
30.78
34.15
35.90
36.44
36.29
35.83
35.23
34.41
33.14
31.26
28.75
25.79
22.66
19.64
16.87
14.30
11.75
9.00
5.86
2.29
-1.59
-5.53
-9.29
-12.70
-15.73
-18.52
-21.38
-24.61
-28.52
-33.30
-38.90
-44.98
-50.89
-55.67
-58.31
-58.07
-54.66
-48.42
-40.15
-30.82
-21.24
-11.92
-3.03
5.39
13.25
20.38
26.52
31.46
35.03
37.25
38.22
38.11
37.17
35.68
33.86
31.85
29.69
27.34
24.78
22.08
19.37
16.77
14.25
11.69
8.88
5.68
2.12
-1.65
-5.44
-9.09
-12.60
-16.07
-19.66
-23.56
-27.90
-32.76
-38.14
-43.87
-49.56
-54.58
-58.14
-59.48
-58.07
-53.82
-47.11
-38.61
-29.13
-19.33
-9.70
-0.54
7.88
15.25
21.23
25.54
28.16
29.29
29.35
28.75
27.79
26.55
24.98
23.00
20.63
18.01
15.31
12.73
10.30
7.96
5.54
2.88
-0.11
-3.42
-6.90
-10.36
-13.56
-16.27
-18.36
-19.92
-21.29
-22.95
-25.46
-29.15
-33.90
-39.09
-43.73
-46.78
-47.46
-45.44
-40.90
-34.28
-26.19
-17.17
-7.72
1.68
10.55
18.39
24.77
29.45
32.44
34.08
34.80
35.07
35.13
35.01
34.47
33.24
31.13
28.17
24.64
20.96
17.49
14.44
11.73
9.14
6.31
2.98
-0.93
-5.30
-9.88
-14.41
-18.73
-22.86
-26.99
-31.39
-36.38
-42.17
-48.79
-55.95
-62.99
-68.93
-72.65
-73.26
-70.37
-64.24
-55.75
-45.98
-35.91
-26.17
-16.99
-8.45
-0.65
6.08
11.30
14.60
15.86
15.28
13.50
11.36
9.80
9.73
11.76
16.19
22.79
30.91
39.57
47.69
54.37
59.05
61.53
61.95
60.58
57.88
54.39
50.74
47.65
45.63
44.85
44.85
44.58
42.65
37.74
29.09
16.79
1.85
-14.11
-29.28
-42.07
-51.46
-57.12
-59.26
-58.40
-55.15
-50.04
-43.52
-35.99
-27.87
-19.65
-11.71
-4.21
3.08
10.71
19.34
29.42
40.87
53.07
64.94
75.31
83.24
88.17
89.94
88.64
84.44
77.58
68.43
57.47
45.33
32.72
20.25
8.41
-2.47
-12.17
-20.49
-27.38
-32.96
-37.59
-41.79
-46.00
-50.39
-54.72
-58.41
-60.80
-61.40
-60.01
-56.74
-51.76
-45.15
-36.87
-26.77
-14.89
-1.57
12.43
26.10
38.32
48.22
55.32
59.69
61.86
62.69
63.09
63.80
65.18
67.19
69.44
71.38
72.46
72.22
70.30
66.46
60.57
52.76
43.46
33.34
23.20
13.79
5.55
-1.45
-7.40
-12.68
-17.73
-22.92
-28.61
-34.99
-42.07
-49.56
-56.82
-63.02
-67.33
-69.19
-68.44
-65.31
-60.28
-53.90
-46.68
-39.01
-31.21
-23.61
-16.50
-10.13
-4.70
-0.28
3.04
5.23
6.28
6.24
5.29
3.75
2.02
0.54
-0.35
-0.50
-0.04
0.73
1.34
1.38
0.66
-0.74
-2.45
-4.01
-5.04
-5.48
-5.63
-6.05
-7.35
-10.00
-14.22
-19.85
-26.38
-32.98
-38.62
-42.26
-43.14
-41.00
-36.11
-29.24
-21.30
-13.19
-5.52
1.31
7.06
11.52
14.43
15.53
14.74
12.19
8.32
3.78
-0.78
-4.84
-8.14
-10.71
-12.67
-14.10
-14.91
-14.93
-14.01
-12.20
-9.85
-7.50
-5.66
-4.75
-5.00
-6.57
-9.57
-14.10
-20.11
-27.32
-35.11
-42.57
-48.65
-52.35
-52.95
-50.12
-44.04
-35.35
-25.07
-14.34
-4.20
4.67
12.07
18.21
23.50
28.28
32.69
36.58
39.68
41.75
42.70
42.60
41.66
40.11
38.11
35.77
33.11
30.14
26.89
23.41
19.81
16.20
12.70
9.32
5.97
2.46
-1.45
-5.93
-11.05
-16.74
-22.82
-29.03
-35.00
-40.23
-44.08
-45.84
-44.99
-41.37
-35.36
-27.76
-19.55
-11.58
-4.32
2.12
7.87
13.01
17.47
21.04
23.45
24.56
24.40
23.19
21.20
18.68
15.88
12.96
10.09
7.42
5.11
3.28
1.98
1.13
0.57
-0.02
-0.96
-2.56
-4.96
-8.13
-11.93
-16.22
-20.86
-25.73
-30.53
-34.74
-37.67
-38.60
-37.13
-33.25
-27.37
-20.10
-11.99
-3.46
5.23
13.84
22.04
29.39
35.51
40.13
43.24
44.98
45.55
45.12
43.87
41.94
39.54
36.89
34.14
31.36
28.46
25.27
21.55
17.15
11.99
6.11
-0.24
-6.75
-13.02
-18.75
-23.82
-28.28
-32.32
-36.10
-39.54
-42.26
-43.71
-43.30
-40.66
-35.70
-28.72
-20.25
-10.94
-1.46
7.57
15.70
22.62
28.22
32.56
35.85
38.28
40.00
41.11
41.62
41.51
40.75
39.35
37.37
35.03
32.61
30.41
28.61
27.20
25.91
24.36
22.24
19.37
15.88
12.00
8.04
4.13
0.22
-3.90
-8.50
-13.82
-19.96
-26.78
-33.88
-40.50
-45.64
-48.33
-47.91
-44.32
-38.08
-30.14
-21.50
-12.93
-4.79
2.82
9.89
16.30
21.83
26.28
29.61
31.99
33.80
35.43
37.13
38.89
40.52
41.56
41.60
40.37
37.95
34.90
32.05
30.31
30.21
31.75
34.32
36.95
38.65
38.70
36.75
32.73
26.68
18.67
8.78
-2.78
-15.57
-28.93
-42.07
-54.13
-64.28
-71.70
-75.74
-76.03
-72.69
-66.38
-58.19
-49.35
-40.86
-33.22
-26.40
-20.10
-13.98
-7.88
-1.86
3.86
9.12
13.79
17.80
21.04
23.33
24.48
24.35
22.94
20.49
17.50
14.54
12.13
10.58
9.85
9.60
9.32
8.55
6.99
4.67
1.86
-1.13
-4.02
-6.76
-9.41
-12.16
-15.23
-18.75
-22.78
-27.21
-31.77
-35.96
-39.15
-40.68
-40.04
-37.07
-31.99
-25.35
-17.87
-10.13
-2.54
4.73
11.61
17.96
23.48
27.80
30.63
31.88
31.77
30.75
29.28
27.72
26.19
24.64
22.96
21.11
19.19
17.32
15.61
14.02
12.34
10.33
7.80
4.77
1.46
-1.80
-4.73
-7.25
-9.55
-12.00
-15.00
-18.85
-23.55
-28.84
-34.16
-38.77
-41.85
-42.75
-41.11
-37.01
-30.91
-23.52
-15.55
-7.56
0.11
7.26
13.77
19.47
24.22
27.85
30.39
31.92
32.61
32.63
32.15
31.36
30.48
29.74
29.36
29.40
29.78
30.22
30.30
29.54
27.54
24.06
19.20
13.34
7.11
1.19
-3.91
-8.06
-11.50
-14.73
-18.29
-22.57
-27.75
-33.71
-40.13
-46.50
-52.10
-56.12
-57.86
-56.89
-53.20
-47.21
-39.61
-31.08
-22.19
-13.36
-4.90
2.84
9.49
14.70
18.35
20.57
21.77
22.39
22.78
23.06
23.13
22.73
21.66
19.85
17.49
14.93
12.54
10.57
8.98
7.54
5.82
3.50
0.47
-3.05
-6.66
-9.95
-12.67
-14.86
-16.77
-18.72
-20.97
-23.71
-27.06
-31.07
-35.67
-40.49
-44.92
-48.09
-49.21
-47.81
-43.89
-37.94
-30.67
-22.77
-14.64
-6.48
1.66
9.66
17.24
23.98
29.53
33.68
36.50
38.26
39.29
39.85
40.04
39.85
39.19
38.06
36.52
34.68
32.68
30.55
28.28
25.78
22.99
19.88
16.47
12.82
9.03
5.16
1.24
-2.76
-6.87
-11.11
-15.47
-19.94
-24.53
-29.27
-34.24
-39.57
-45.34
-51.45
-57.51
-62.79
-66.38
-67.42
-65.39
-60.37
-52.97
-44.12
-34.76
-25.57
-16.88
-8.75
-1.22
5.66
11.80
17.15
21.77
25.81
29.41
32.58
35.24
37.18
38.22
38.29
37.46
35.91
33.90
31.65
29.32
26.95
24.43
21.59
18.25
14.32
9.85
5.02
0.10
-4.75
-9.49
-14.21
-19.18
-24.65
-30.80
-37.56
-44.60
-51.29
-56.77
-60.18
-60.80
-58.34
-52.94
-45.18
-35.86
-25.73
-15.37
-5.17
4.67
13.92
22.30
29.46
35.13
39.17
41.70
43.05
43.60
43.69
43.47
42.92
41.88
40.24
37.98
35.27
32.41
29.69
27.28
25.16
23.14
20.96
18.33
15.12
11.33
7.07
2.50
-2.20
-6.94
-11.71
-16.56
-21.65
-27.12
-33.07
-39.48
-46.06
-52.23
-57.08
-59.65
-59.14
-55.21
-48.12
-38.67
-27.85
-16.61
-5.58
4.91
14.70
23.68
31.63
38.32
43.59
47.42
49.98
51.48
52.10
52.02
51.35
50.15
48.47
46.31
43.71
40.76
37.65
34.58
31.70
28.97
26.13
22.86
18.89
14.25
9.21
4.18
-0.49
-4.72
-8.63
-12.53
-16.74
-21.49
-26.92
-33.03
-39.61
-46.24
-52.20
-56.61
-58.64
-57.72
-53.77
-47.16
-38.59
-28.81
-18.49
-8.16
1.75
10.85
18.77
25.26
30.23
33.84
36.35
38.04
39.12
39.63
39.53
38.77
37.38
35.46
33.16
30.62
27.90
24.98
21.83
18.46
14.93
11.38
7.93
4.59
1.23
-2.35
-6.31
-10.64
-15.14
-19.56
-23.69
-27.60
-31.62
-36.20
-41.69
-48.08
-54.90
-61.25
-66.04
-68.27
-67.31
-63.06
-55.93
-46.65
-36.03
-24.77
-13.36
-2.15
8.57
18.45
27.10
34.23
39.74
43.80
46.70
48.72
49.99
50.47
50.11
48.91
47.08
44.89
42.58
40.30
38.01
35.61
32.95
29.97
26.62
22.96
19.02
14.84
10.50
6.05
1.54
-2.98
-7.44
-11.82
-16.05
-20.23
-24.55
-29.33
-34.87
-41.28
-48.29
-55.19
-61.01
-64.70
-65.54
-63.30
-58.25
-51.05
-42.40
-32.97
-23.14
-13.19
-3.38
5.97
14.48
21.77
27.61
31.98
35.01
36.97
38.06
38.41
38.12
37.24
35.91
34.27
32.48
30.65
28.82
26.93
24.90
22.64
20.07
17.11
13.74
10.00
5.97
1.80
-2.31
-6.22
-9.84
-13.22
-16.54
-20.09
-24.17
-29.02
-34.65
-40.76
-46.73
-51.72
-54.82
-55.35
-53.02
-48.00
-40.84
-32.30
-23.11
-13.79
-4.62
4.26
12.73
20.56
27.42
32.95
36.98
39.56
40.92
41.38
41.17
40.38
39.06
37.30
35.26
33.18
31.22
29.38
27.55
25.57
23.35
20.87
18.16
15.23
11.98
8.35
4.35
0.11
-4.14
-8.22
-12.06
-15.76
-19.52
-23.57
-28.07
-33.14
-38.78
-44.93
-51.30
-57.35
-62.26
-65.12
-65.19
-62.16
-56.27
-48.21
-38.83
-28.86
-18.75
-8.69
1.20
10.69
19.41
26.92
32.93
37.34
40.31
42.11
42.98
43.10
42.57
41.47
39.89
37.96
35.80
33.56
31.36
29.25
27.25
25.31
23.34
21.24
18.94
16.37
13.57
10.55
7.34
3.94
0.27
-3.75
-8.22
-13.18
-18.59
-24.37
-30.43
-36.67
-42.98
-49.11
-54.58
-58.70
-60.71
-60.03
-56.42
-50.13
-41.78
-32.14
-21.97
-11.82
-2.07
7.02
15.21
22.33
28.22
32.76
35.96
37.87
38.64
38.51
37.74
36.60
35.27
33.83
32.23
30.42
28.42
26.34
24.31
22.38
20.41
18.09
15.10
11.29
6.71
1.69
-3.37
-8.09
-12.30
-16.10
-19.79
-23.73
-28.30
-33.70
-39.97
-46.91
-54.02
-60.58
-65.72
-68.61
-68.68
-65.81
-60.34
-52.91
-44.23
-34.87
-25.16
-15.26
-5.34
4.30
13.19
20.80
26.77
30.91
33.36
34.44
34.57
34.14
33.44
32.63
31.71
30.65
29.38
27.85
26.03
23.88
21.32
18.26
14.63
10.48
6.04
1.66
-2.24
-5.33
-7.45
-8.60
-8.94
-8.67
-8.00
-7.14
-6.31
-5.76
-5.75
-6.42
-7.77
-9.53
-11.18
-12.07
-11.58
-9.36
-5.39
-0.06
5.97
11.97
17.40
22.01
25.85
29.11
32.00
34.58
36.74
38.29
39.08
39.10
38.51
37.48
36.16
34.58
32.65
30.29
27.51
24.42
21.23
18.15
15.26
12.56
9.93
7.23
4.32
1.14
-2.30
-5.92
-9.59
-13.23
-16.85
-20.59
-24.73
-29.56
-35.27
-41.87
-49.11
-56.38
-62.86
-67.60
-69.77
-68.89
-64.95
-58.43
-50.09
-40.71
-30.85
-20.81
-10.76
-0.94
8.28
16.37
22.83
27.48
30.44
32.12
33.03
33.51
33.71
33.54
32.88
31.66
29.96
27.93
25.74
23.46
21.06
18.47
15.64
12.58
9.31
5.88
2.28
-1.54
-5.60
-9.86
-14.23
-18.66
-23.18
-27.99
-33.36
-39.52
-46.40
-53.61
-60.37
-65.68
-68.64
-68.67
-65.68
-60.02
-52.34
-43.33
-33.56
-23.38
-13.05
-2.77
7.18
16.46
24.72
31.66
37.12
41.05
43.51
44.68
44.77
43.98
42.52
40.51
38.08
35.40
32.65
30.05
27.79
25.91
24.33
22.80
21.04
18.75
15.79
12.18
8.10
3.85
-0.33
-4.33
-8.20
-12.17
-16.48
-21.37
-26.96
-33.15
-39.63
-45.76
-50.74
-53.68
-53.92
-51.24
-45.93
-38.64
-30.12
-20.97
-11.56
-2.03
7.39
16.36
24.43
31.13
36.21
39.65
41.68
42.60
42.68
42.09
40.95
39.34
37.36
35.14
32.79
30.41
28.05
25.72
23.39
20.99
18.42
15.61
12.49
9.10
5.54
1.94
-1.58
-5.03
-8.55
-12.37
-16.71
-21.72
-27.37
-33.41
-39.39
-44.66
-48.52
-50.28
-49.55
-46.23
-40.60
-33.23
-24.74
-15.70
-6.47
2.65
11.42
19.55
26.67
32.45
36.70
39.37
40.59
40.61
39.68
38.11
36.12
33.92
31.60
29.18
26.63
23.94
21.19
18.49
15.97
13.63
11.34
8.89
6.14
3.03
-0.32
-3.76
-7.20
-10.67
-14.31
-18.28
-22.70
-27.62
-32.99
-38.68
-44.41
-49.64
-53.65
-55.65
-55.04
-51.66
-45.79
-38.05
-29.13
-19.54
-9.59
0.53
10.57
20.11
28.62
35.68
41.07
44.91
47.43
48.96
49.69
49.68
48.91
47.40
45.22
42.55
39.65
36.70
33.82
30.93
27.88
24.44
20.47
15.89
10.75
5.17
-0.71
-6.79
-12.98
-19.19
-25.37
-31.53
-37.80
-44.37
-51.43
-59.01
-66.82
-74.24
-80.35
-84.25
-85.26
-83.12
-78.07
-70.68
-61.65
-51.60
-40.95
-30.01
-19.03
-8.33
1.71
10.71
18.37
24.52
29.12
32.24
33.98
34.52
34.06
32.83
31.08
29.07
26.99
25.01
23.08
21.01
18.50
15.26
11.18
6.41
1.34
-3.62
-8.13
-12.14
-15.80
-19.42
-23.29
-27.59
-32.30
-37.15
-41.65
-45.06
-46.63
-45.83
-42.53
-37.09
-30.16
-22.43
-14.34
-6.01
2.63
11.59
20.58
29.08
36.41
42.07
45.84
47.82
48.28
47.57
45.98
43.80
41.29
38.69
36.18
33.82
31.56
29.21
26.61
23.67
20.36
16.72
12.81
8.67
4.41
0.12
-4.09
-8.21
-12.35
-16.73
-21.54
-26.83
-32.28
-37.29
-41.08
-42.94
-42.44
-39.51
-34.46
-27.78
-20.02
-11.61
-2.87
5.99
14.78
23.22
30.97
37.57
42.67
46.06
47.74
47.96
47.07
45.42
43.29
40.87
38.26
35.58
32.92
30.34
27.85
25.34
22.72
19.89
16.80
13.48
9.97
6.34
2.66
-1.02
-4.69
-8.41
-12.33
-16.65
-21.58
-27.16
-33.20
-39.23
-44.59
-48.54
-50.51
-50.17
-47.49
-42.71
-36.23
-28.53
-20.01
-11.06
-2.04
6.66
14.67
21.59
27.13
31.14
33.60
34.69
34.64
33.69
32.11
30.11
27.94
25.83
24.00
22.48
21.18
19.85
18.17
15.90
12.95
9.43
5.51
1.45
-2.58
-6.47
-10.21
-13.90
-17.68
-21.78
-26.43
-31.76
-37.65
-43.68
-49.09
-52.98
-54.56
-53.40
-49.53
-43.43
-35.80
-27.37
-18.71
-10.19
-2.03
5.62
12.58
18.71
23.90
28.08
31.28
33.60
35.09
35.82
35.75
34.84
33.08
30.56
27.55
24.48
21.77
19.65
18.05
16.60
14.80
12.29
9.01
5.24
1.40
-2.17
-5.42
-8.62
-12.15
-16.41
-21.54
-27.45
-33.79
-40.08
-45.75
-50.15
-52.67
-52.82
-50.37
-45.44
-38.49
-30.19
-21.20
-12.03
-3.01
5.73
14.01
21.64
28.31
33.73
37.74
40.33
41.69
42.03
41.53
40.30
38.40
35.94
33.15
30.33
27.78
25.64
23.83
22.08
20.00
17.29
13.83
9.73
5.25
0.76
-3.47
-7.30
-10.80
-14.24
-17.95
-22.27
-27.39
-33.26
-39.58
-45.82
-51.28
-55.20
-56.89
-55.93
-52.29
-46.35
-38.71
-30.07
-20.95
-11.67
-2.42
6.54
14.83
21.93
27.38
30.99
32.87
33.45
33.20
32.48
31.42
30.04
28.33
26.39
24.36
22.44
20.65
18.91
17.01
14.73
11.98
8.83
5.47
2.08
-1.20
-4.39
-7.56
-10.81
-14.27
-18.07
-22.38
-27.32
-32.92
-38.89
-44.63
-49.27
-51.95
-52.06
-49.42
-44.34
-37.38
-29.15
-20.15
-10.76
-1.33
7.76
15.99
22.91
28.17
31.71
33.70
34.48
34.40
33.74
32.65
31.18
29.37
27.28
25.06
22.86
20.80
18.92
17.11
15.18
12.88
10.05
6.69
2.93
-0.97
-4.76
-8.32
-11.72
-15.22
-19.22
-24.07
-29.95
-36.70
-43.82
-50.51
-55.79
-58.76
-58.80
-55.71
-49.77
-41.63
-32.07
-21.83
-11.48
-1.40
8.17
17.00
24.91
31.72
37.33
41.78
45.15
47.54
48.97
49.44
48.93
47.60
45.73
43.72
41.97
40.68
39.79
38.89
37.42
34.81
30.73
25.20
18.62
11.59
4.73
-1.55
-7.18
-12.39
-17.63
-23.32
-29.74
-36.91
-44.51
-51.86
-58.05
-62.16
-63.41
-61.49
-56.56
-49.20
-40.19
-30.29
-20.13
-10.19
-0.83
7.68
15.15
21.53
26.86
31.23
34.69
37.18
38.60
38.86
37.99
36.14
33.61
30.72
27.75
24.88
22.13
19.42
16.58
13.44
9.87
5.88
1.63
-2.66
-6.82
-10.78
-14.66
-18.76
-23.41
-28.84
-35.00
-41.45
-47.47
-52.10
-54.48
-54.03
-50.65
-44.66
-36.71
-27.56
-17.83
-7.98
1.71
10.99
19.59
27.22
33.59
38.54
42.02
44.15
45.07
44.95
43.92
42.10
39.59
36.57
33.20
29.63
25.94
22.13
18.14
13.90
9.42
4.71
-0.12
-4.94
-9.70
-14.39
-19.10
-24.00
-29.27
-35.06
-41.34
-47.80
-53.86
-58.70
-61.47
-61.56
-58.75
-53.31
-45.83
-37.05
-27.58
-17.80
-7.95
1.80
11.19
19.82
27.23
33.06
37.12
39.42
40.15
39.52
37.79
35.20
32.04
28.62
25.25
22.12
19.25
16.51
13.69
10.60
7.28
3.91
0.77
-1.96
-4.28
-6.45
-8.87
-11.96
-15.95
-20.80
-26.14
-31.25
-35.30
-37.47
-37.18
-34.22
-28.74
-21.22
-12.27
-2.53
7.46
17.27
26.56
34.99
42.25
48.04
52.12
54.41
54.98
54.07
52.04
49.24
45.98
42.44
38.74
34.99
31.32
27.88
24.70
21.65
18.41
14.59
9.95
4.52
-1.40
-7.35
-12.92
-17.91
-22.38
-26.55
-30.74
-35.22
-40.24
-45.97
-52.36
-59.00
-65.10
-69.56
-71.36
-69.90
-65.19
-57.86
-48.75
-38.54
-27.47
-15.52
-2.59
11.02
24.53
36.86
46.97
54.20
58.45
60.15
59.89
58.31
55.86
52.79
49.24
45.29
41.04
36.65
32.34
28.31
24.68
21.36
18.10
14.55
10.44
5.74
0.62
-4.55
-9.45
-13.95
-18.13
-22.35
-26.95
-32.23
-38.27
-44.91
-51.80
-58.44
-64.26
-68.69
-71.20
-71.37
-68.98
-64.00
-56.63
-47.27
-36.49
-24.91
-13.12
-1.60
9.27
19.19
27.91
35.15
40.70
44.48
46.54
47.15
46.64
45.43
43.80
41.95
39.93
37.75
35.40
32.89
30.29
27.67
25.03
22.30
19.30
15.81
11.73
7.12
2.24
-2.51
-6.85
-10.69
-14.25
-17.88
-21.91
-26.50
-31.62
-37.12
-42.78
-48.35
-53.44
-57.48
-59.77
-59.66
-56.78
-51.17
-43.32
-33.92
-23.68
-13.10
-2.50
7.92
17.93
27.19
35.25
41.70
46.26
48.90
49.86
49.53
48.36
46.72
44.79
42.58
39.99
36.94
33.46
29.73
26.06
22.69
19.75
17.13
14.56
11.72
8.39
4.48
0.10
-4.55
-9.24
-13.78
-18.08
-22.20
-26.30
-30.58
-35.26
-40.48
-46.30
-52.52
-58.75
-64.31
-68.38
-70.13
-68.96
-64.68
-57.55
-48.20
-37.41
-25.86
-14.10
-2.56
8.31
18.00
26.00
31.99
35.93
38.11
38.99
39.03
38.54
37.63
36.29
34.52
32.36
29.92
27.31
24.66
22.01
19.37
16.76
14.13
11.38
8.40
5.04
1.24
-2.92
-7.26
-11.56
-15.64
-19.47
-23.19
-27.02
-31.25
-36.04
-41.44
-47.20
-52.83
-57.52
-60.41
-60.72
-58.02
-52.37
-44.27
-34.44
-23.64
-12.48
-1.39
9.28
19.18
27.90
35.06
40.38
43.80
45.42
45.47
44.33
42.38
40.01
37.52
35.08
32.73
30.40
27.96
25.31
22.43
19.37
16.22
12.99
9.67
6.13
2.30
-1.81
-6.14
-10.51
-14.82
-19.00
-23.12
-27.33
-31.84
-36.84
-42.45
-48.63
-55.12
-61.39
-66.68
-70.12
-70.97
-68.83
-63.70
-55.98
-46.27
-35.22
-23.40
-11.27
0.69
11.99
22.14
30.74
37.51
42.36
45.41
46.89
47.11
46.39
45.02
43.18
41.01
38.62
36.11
33.59
31.18
28.90
26.69
24.40
21.86
18.95
15.62
11.89
7.84
3.54
-0.90
-5.35
-9.69
-13.86
-17.97
-22.29
-27.12
-32.72
-39.12
-46.06
-52.96
-59.03
-63.41
-65.32
-64.23
-59.94
-52.67
-42.90
-31.33
-18.73
-5.81
6.76
18.40
28.65
37.14
43.68
48.30
51.21
52.68
53.03
52.48
51.24
49.47
47.35
45.08
42.79
40.48
38.07
35.45
32.58
29.50
26.33
23.21
20.20
17.25
14.25
11.04
7.54
3.72
-0.38
-4.65
-8.96
-13.26
-17.61
-22.20
-27.32
-33.20
-39.90
-47.20
-54.60
-61.32
-66.54
-69.45
-69.41
-66.09
-59.49
-49.98
-38.25
-25.13
-11.55
1.72
14.04
24.96
34.17
41.44
46.65
49.83
51.15
50.95
49.67
47.70
45.29
42.53
39.43
36.01
32.41
28.88
25.67
22.94
20.60
18.38
15.93
12.97
9.40
5.32
0.94
-3.55
-8.03
-12.49
-16.97
-21.51
-26.23
-31.27
-36.82
-43.09
-50.08
-57.52
-64.78
-70.96
-75.14
-76.58
-74.93
-70.26
-63.01
-53.79
-43.37
-32.46
-21.79
-11.98
-3.44
3.65
9.39
14.02
17.79
20.73
22.66
23.30
22.41
20.03
16.47
12.11
7.34
2.38
-2.63
-7.42
-11.47
-14.09
-14.58
-12.54
-8.08
-1.77
5.54
12.98
19.82
25.61
30.12
33.30
35.30
36.39
36.95
37.25
37.30
36.74
34.91
31.17
25.33
17.92
10.20
3.76
-0.00
-0.43
2.23
7.07
12.99
19.11
25.05
30.78
36.46
42.08
47.45
52.23
56.04
58.70
60.24
60.95
61.21
61.32
61.31
60.86
59.27
55.81
50.02
42.00
32.54
22.71
13.64
6.07
0.27
-3.87
-6.63
-8.32
-9.35
-10.21
-11.43
-13.43
-16.25
-19.62
-23.07
-26.38
-29.67
-33.29
-37.46
-41.79
-45.29
-46.69
-45.03
-40.12
-32.57
-23.47
-13.86
-4.40
4.66
13.21
21.04
27.72
32.78
35.75
36.56
35.54
33.46
31.29
29.98
30.14
31.83
34.52
37.27
39.06
39.16
37.34
33.85
29.22
24.00
18.52
12.92
7.16
1.27
-4.62
-10.23
-15.28
-19.63
-23.32
-26.64
-30.01
-33.89
-38.60
-44.24
-50.64
-57.28
-63.38
-68.01
-70.29
-69.66
-66.02
-59.74
-51.55
-42.16
-32.10
-21.63
-10.89
-0.10
10.25
19.46
26.90
32.25
35.62
37.54
38.60
39.22
39.48
39.20
38.15
36.30
33.85
31.17
28.59
26.21
23.89
21.29
18.14
14.35
10.03
5.46
0.91
-3.42
-7.46
-11.29
-15.05
-18.90
-23.03
-27.64
-32.91
-38.94
-45.62
-52.51
-58.86
-63.66
-65.98
-65.17
-61.13
-54.33
-45.53
-35.62
-25.26
-14.91
-4.81
4.82
13.69
21.47
27.84
32.60
35.72
37.34
37.71
37.19
36.10
34.68
33.07
31.30
29.36
27.28
25.17
23.15
21.28
19.38
17.13
14.19
10.40
5.91
1.12
-3.50
-7.66
-11.41
-15.08
-19.08
-23.74
-29.18
-35.28
-41.73
-48.05
-53.62
-57.70
-59.59
-58.75
-55.02
-48.61
-40.07
-30.08
-19.32
-8.37
2.26
12.12
20.79
27.95
33.48
37.41
39.88
41.07
41.17
40.35
38.85
36.87
34.58
32.06
29.32
26.38
23.28
20.16
17.16
14.34
11.59
8.71
5.49
1.81
-2.26
-6.56
-10.88
-15.08
-19.09
-22.93
-26.71
-30.57
-34.72
-39.36
-44.66
-50.59
-56.87
-62.85
-67.69
-70.44
-70.35
-67.09
-60.76
-51.86
-41.13
-29.38
-17.30
-5.43
5.80
16.08
25.11
32.66
38.54
42.70
45.18
46.21
46.18
45.49
44.51
43.46
42.40
41.25
39.91
38.30
36.41
34.24
31.83
29.18
26.30
23.23
19.99
16.59
13.01
9.24
5.29
1.22
-2.89
-7.00
-11.12
-15.39
-20.01
-25.16
-30.99
-37.51
-44.60
-51.94
-58.93
-64.77
-68.59
-69.63
-67.53
-62.39
-54.73
-45.27
-34.71
-23.61
-12.42
-1.54
8.58
17.52
24.91
30.59
34.62
37.21
38.66
39.29
39.37
39.07
38.48
37.60
36.34
34.65
32.53
30.05
27.34
24.53
21.65
18.70
15.62
12.43
9.11
5.70
2.20
-1.44
-5.25
-9.29
-13.61
-18.25
-23.27
-28.73
-34.61
-40.73
-46.70
-51.87
-55.50
-56.91
-55.70
-51.84
-45.65
-37.69
-28.59
-18.92
-9.10
0.56
9.83
18.44
26.10
32.43
37.18
40.24
41.75
42.03
41.47
40.42
39.09
37.54
35.77
33.81
31.73
29.60
27.44
25.23
22.88
20.34
17.57
14.58
11.33
7.82
4.06
0.13
-3.86
-7.82
-11.73
-15.68
-19.80
-24.22
-29.01
-34.22
-39.85
-45.82
-51.91
-57.62
-62.16
-64.59
-64.17
-60.60
-54.12
-45.43
-35.38
-24.70
-13.91
-3.27
6.99
16.60
25.25
32.61
38.46
42.75
45.56
47.05
47.45
46.99
45.93
44.50
42.86
41.10
39.25
37.33
35.41
33.55
31.85
30.32
28.88
27.33
25.41
22.87
19.57
15.49
10.78
5.73
0.61
-4.34
-9.02
-13.51
-17.98
-22.69
-27.86
-33.61
-39.97
-46.72
-53.40
-59.28
-63.52
-65.29
-64.11
-59.90
-53.07
-44.29
-34.32
-23.83
-13.31
-3.12
6.43
15.05
22.45
28.43
32.93
35.99
37.72
38.26
37.75
36.36
34.30
31.83
29.22
26.71
24.46
22.47
20.63
18.74
16.59
14.01
11.00
7.67
4.23
0.89
-2.21
-5.11
-8.01
-11.21
-14.99
-19.54
-24.84
-30.78
-37.06
-43.24
-48.75
-52.94
-55.16
-54.91
-52.02
-46.61
-39.15
-30.28
-20.68
-10.98
-1.72
6.70
14.00
20.03
24.79
28.39
30.95
32.57
33.23
32.90
31.48
29.00
25.62
21.64
17.48
13.51
9.94
6.73
3.55
-0.08
-4.53
-9.93
-16.03
-22.21
-27.68
-31.72
-33.94
-34.34
-33.33
-31.54
-29.72
-28.47
-28.15
-28.87
-30.37
-32.16
-33.55
-33.81
-32.34
-28.87
-23.52
-16.68
-8.93
-0.75
7.55
15.83
24.02
31.99
39.45
46.03
51.28
54.80
56.41
56.09
54.08
50.85
46.96
42.94
39.21
35.96
33.28
31.20
