1651138859.00
64.000000
-0.00
-0.00
-0.00
-0.00
-0.00
-0.00
-0.00
-0.00
-0.00
-0.00
0.00
0.01
0.01
-0.00
-0.03
-0.05
-0.05
0.00
0.13
0.36
0.66
1.01
1.37
1.72
2.06
2.40
2.79
3.24
3.80
4.42
5.06
5.66
6.20
6.68
7.15
7.68
8.31
9.14
10.09
11.04
11.88
12.56
13.14
13.76
14.65
15.96
17.91
20.32
22.90
25.38
27.58
29.57
31.68
34.32
37.81
42.54
48.15
54.10
59.83
64.97
69.58
74.14
79.34
85.71
93.76
103.00
112.62
121.73
129.77
136.75
143.30
150.75
157.77
166.64
177.95
191.79
206.97
220.57
228.25
225.36
208.53
176.87
132.76
80.05
23.07
-34.94
-92.44
-149.16
-205.23
-260.37
-313.74
-363.87
-409.83
-450.91
-486.50
-515.74
-537.23
-549.22
-549.96
-538.37
-514.21
-478.67
-433.88
-382.45
-327.02
-269.84
-212.63
-156.66
-102.95
-52.37
-5.90
35.58
71.43
101.35
125.50
144.38
158.69
169.15
176.37
180.75
182.57
182.07
179.51
175.23
169.65
163.18
156.15
148.81
141.30
133.69
126.02
118.33
110.69
103.16
95.80
88.68
81.83
75.25
68.95
62.95
57.25
51.86
46.78
42.03
37.59
33.45
29.61
26.07
22.81
19.83
17.11
14.67
12.48
10.54
8.83
7.35
6.07
4.97
4.05
3.27
2.62
2.09
1.65
1.30
1.01
0.79
0.61
0.47
0.37
0.28
0.22
0.18
0.15
0.13
0.13
0.13
0.14
0.15
0.18
0.21
0.24
0.28
0.32
0.36
0.41
0.45
0.50
0.55
0.62
0.69
0.75
0.78
0.79
0.77
0.74
0.73
0.76
0.84
0.97
1.12
1.26
1.39
1.50
1.60
1.72
1.89
2.13
2.43
2.75
3.05
3.31
3.54
3.78
4.08
4.51
5.08
5.76
6.45
7.02
7.42
7.64
7.80
8.06
8.59
9.45
10.54
11.67
12.56
13.05
13.13
12.96
12.79
12.82
13.06
13.23
12.87
11.48
8.73
4.57
-0.67
-6.53
-12.49
-18.19
-23.51
-28.51
-33.31
-38.06
-43.00
-48.39
-54.30
-60.19
-64.68
-65.76
-61.56
-51.36
-36.22
-18.87
-2.74
9.33
16.04
17.77
15.96
12.37
8.44
5.26
3.75
4.72
8.64
15.24
23.22
30.59
35.35
36.36
33.62
28.36
22.29
17.00
13.29
11.17
10.03
9.07
7.75
5.85
3.55
1.21
-0.76
-2.04
-2.49
-2.17
-1.34
-0.43
0.10
-0.04
-0.95
-2.40
-4.06
-5.66
-7.15
-8.63
-10.28
-12.12
-13.96
-15.54
-16.73
-17.42
-17.96
-18.98
-21.13
-24.61
-28.93
-32.84
-34.70
-33.07
-27.27
-17.70
-5.70
6.98
18.73
28.53
36.05
41.48
45.21
47.61
48.83
48.89
47.78
45.52
42.30
38.41
34.22
30.11
26.44
23.46
21.26
19.81
18.86
18.06
16.97
15.26
12.82
9.76
6.43
3.20
0.29
-2.36
-4.98
-7.83
-11.00
-14.36
-17.60
-20.44
-22.75
-24.61
-26.34
-28.33
-30.97
-34.50
-38.93
-43.91
-48.68
-52.08
-52.80
-49.77
-42.57
-31.75
-18.67
-5.11
7.30
17.51
25.22
30.69
34.33
36.55
37.55
37.44
36.41
34.78
32.89
31.03
29.30
27.61
25.89
24.12
22.44
21.01
19.91
19.03
18.06
16.67
14.66
12.08
9.23
6.43
3.93
1.77
-0.17
-2.12
-4.24
-6.63
-9.29
-12.23
-15.46
-18.95
-22.59
-26.17
-29.37
-31.96
-33.93
-35.62
-37.64
-40.70
-45.20
-50.84
-56.53
-60.59
-61.25
-57.37
-48.85
-36.75
-22.87
-9.14
3.01
12.88
20.45
26.04
29.97
32.40
33.36
32.93
31.35
29.03
26.44
24.01
21.93
20.21
18.72
17.31
15.95
14.77
13.91
13.42
13.16
12.76
11.79
9.99
7.38
4.32
1.25
-1.46
-3.76
-5.94
-8.42
-11.57
-15.46
-19.81
-24.11
-27.89
-31.01
-33.73
-36.75
-40.84
-46.51
-53.63
-61.30
-67.96
-71.88
-71.68
-66.80
-57.73
-45.86
-33.02
-20.96
-10.94
-3.52
1.29
3.83
4.52
3.61
1.23
-2.65
-8.10
-15.13
-23.63
-33.27
-43.41
-53.01
-60.64
-64.60
-63.26
-55.36
-40.25
-18.07
10.26
43.09
78.10
112.50
143.30
167.67
183.45
189.49
185.95
174.17
156.28
134.69
111.65
88.92
67.73
48.79
32.40
18.48
6.65
-3.59
-12.67
-20.74
-27.60
-32.85
-36.10
-37.24
-36.51
-34.25
-30.84
-26.44
-21.17
-15.25
-9.10
-3.35
1.40
4.86
7.18
8.86
10.51
12.41
14.35
15.76
15.99
14.79
12.51
10.02
8.25
7.72
8.26
9.16
9.56
9.06
7.93
6.92
6.73
7.47
8.46
8.41
5.96
0.15
-9.34
-22.22
-37.65
-54.08
-69.13
-79.78
-82.97
-76.78
-61.54
-40.23
-17.75
0.67
11.37
13.51
8.99
1.35
-5.89
-10.56
-12.21
-11.69
-10.10
-8.01
-5.29
-1.53
3.20
7.96
10.89
10.12
4.59
-5.25
-17.54
-29.72
-39.55
-45.96
-49.28
-51.00
-52.96
-56.60
-62.51
-70.34
-79.06
-87.55
-95.10
-101.76
-108.34
-116.11
-126.20
-139.12
-154.46
-170.85
-186.32
-198.82
-206.61
-208.69
-204.82
-195.50
-181.65
-164.30
-144.32
-122.30
-98.30
-71.87
-42.28
-9.08
27.21
64.60
99.74
128.75
148.51
157.81
157.74
151.18
141.58
131.72
123.11
116.02
110.15
105.17
100.95
97.28
93.64
89.19
83.12
75.14
65.79
56.21
47.70
41.06
36.21
32.29
28.15
22.95
16.49
9.24
2.00
-4.60
-10.45
-15.99
-22.00
-29.06
-37.15
-45.44
-52.47
-56.54
-56.34
-51.38
-42.09
-29.63
-15.51
-1.17
12.23
23.90
33.37
40.45
45.23
47.99
49.22
49.42
49.00
48.20
47.08
45.63
43.79
41.58
39.19
36.87
34.95
33.67
33.07
32.86
32.55
31.54
29.39
26.00
21.66
16.90
12.28
8.18
4.68
1.57
-1.59
-5.26
-9.86
-15.66
-22.59
-30.05
-36.93
-41.74
-43.02
-39.75
-31.81
-20.07
-6.15
8.11
21.15
32.02
40.52
46.93
51.75
55.42
58.14
59.97
60.77
60.45
59.04
56.72
53.84
50.77
47.84
45.23
42.98
41.11
39.61
38.52
37.92
37.81
38.03
38.41
38.71
38.70
38.07
36.36
32.97
27.14
18.22
5.84
-9.90
-28.38
-48.47
-68.57
-86.82
-101.34
-110.68
-114.13
-112.02
-105.57
-96.44
-86.22
-76.00
-66.22
-56.93
-48.05
-39.67
-32.02
-25.40
-20.07
-16.24
-14.06
-13.61
-14.77
-17.04
-19.52
-21.13
-20.95
-18.60
-14.34
-8.88
-2.95
3.02
9.00
15.08
21.18
26.72
30.83
32.76
32.52
31.13
30.43
32.51
38.86
49.94
65.00
82.54
100.84
118.35
133.72
145.92
154.58
160.57
166.26
175.04
189.79
211.26
237.06
262.24
281.26
290.23
288.36
277.63
261.33
242.19
221.32
198.49
173.11
145.43
116.88
89.81
66.60
49.02
37.86
32.90
33.23
37.72
45.46
55.96
68.97
83.91
99.37
112.96
121.86
123.95
118.89
108.54
96.42
86.29
80.70
80.14
83.25
87.85
92.18
95.65
98.64
101.89
105.62
109.16
111.20
110.33
105.56
96.64
84.01
68.76
52.53
37.26
24.82
16.37
11.71
9.21
6.26
0.23
-10.52
-26.20
-45.70
-67.36
-89.73
-111.99
-133.89
-155.42
-176.45
-196.58
-215.27
-231.94
-246.20
-257.83
-266.91
-273.63
-278.16
-280.39
-279.84
-275.76
-267.54
-255.23
-239.79
-222.96
-206.65
-192.22
-180.01
-169.39
-159.35
-149.28
-139.39
-130.72
-124.55
-121.67
-121.90
-124.02
-126.29
-127.19
-125.87
-122.42
-117.48
-111.76
-105.57
-98.71
-90.68
-81.05
-69.83
-57.46
-44.69
-32.21
-20.35
-9.10
1.73
12.33
22.62
32.25
40.78
47.80
53.12
56.83
59.19
60.47
60.93
60.65
59.64
57.93
55.51
52.44
48.75
44.46
39.52
33.92
27.76
21.41
15.48
10.87
8.39
8.52
11.17
15.56
20.53
24.86
27.77
29.02
28.85
27.68
25.85
23.47
20.45
16.68
12.16
7.01
1.44
-4.30
-9.94
-15.26
-20.06
-24.23
-27.73
-30.59
-32.85
-34.54
-35.74
-36.56
-37.17
-37.85
-38.78
-40.09
-41.75
-43.67
-45.76
-48.04
-50.60
-53.64
-57.32
-61.72
-66.87
-72.68
-79.08
-85.91
-93.01
-100.17
-107.14
-113.70
-119.72
-125.27
-130.67
-136.45
-143.18
-151.35
-161.19
-172.73
-185.77
-199.96
-214.67
-228.97
-241.58
-251.11
-256.39
-256.73
-252.12
-243.03
-230.09
-213.83
-194.59
-172.80
-149.20
-125.00
-101.63
-80.25
-61.31
-44.37
-28.30
-11.57
7.41
29.93
56.81
87.94
121.89
155.79
185.68
207.58
218.80
218.90
209.72
194.42
176.22
157.32
138.83
121.23
105.09
91.35
81.03
74.60
71.68
71.12
71.69
72.78
74.70
78.52
85.22
94.80
105.79
115.45
120.52
118.53
108.82
92.95
74.19
56.33
42.38
33.74
30.13
30.24
32.55
35.93
39.71
43.50
46.90
49.44
50.67
50.36
48.67
46.08
43.23
40.65
38.62
37.12
35.89
34.62
33.09
31.23
29.13
26.98
24.86
22.72
20.35
17.53
14.17
10.53
7.19
4.89
4.25
5.49
8.32
12.05
15.87
19.19
21.77
23.68
25.15
26.35
27.33
27.97
28.22
28.07
27.68
27.20
26.78
26.42
26.08
25.66
25.15
24.57
23.88
23.02
21.90
20.44
18.69
16.78
14.91
13.29
11.97
10.85
9.76
8.50
7.03
5.44
3.91
2.62
1.58
0.64
-0.50
-2.15
-4.49
-7.47
-10.84
-14.16
-16.94
-18.66
-18.94
-17.59
-14.64
-10.46
-5.59
-0.73
3.49
6.68
8.72
9.78
10.25
10.49
10.75
11.10
11.47
11.77
11.93
12.02
12.14
12.32
12.51
12.54
12.27
11.68
10.93
10.23
9.76
9.54
9.47
9.36
9.06
8.51
7.70
6.63
5.31
3.68
1.75
-0.43
-2.73
-4.96
-6.94
-8.59
-9.97
-11.33
-12.96
-15.08
-17.69
-20.47
-22.86
-24.19
-23.99
-22.09
-18.69
-14.24
-9.35
-4.53
-0.17
3.53
6.49
8.78
10.50
11.79
12.79
13.58
14.29
14.96
15.65
16.28
16.73
16.87
16.66
16.17
15.59
15.09
14.75
14.49
14.08
13.31
12.09
10.49
8.75
7.15
5.90
5.04
4.42
3.81
3.02
1.93
0.57
-0.92
-2.43
-3.93
-5.47
-7.17
-9.14
-11.40
-13.87
-16.32
-18.39
-19.69
-19.84
-18.63
-16.12
-12.61
-8.58
-4.52
-0.83
2.31
4.93
7.14
9.03
10.64
11.90
12.74
13.08
12.94
12.39
11.50
10.38
9.09
7.75
6.51
5.58
5.14
5.28
5.94
6.92
7.92
8.68
9.06
9.01
8.57
7.76
6.56
4.98
3.08
1.02
-0.96
-2.72
-4.26
-5.81
-7.69
-10.11
-13.03
-16.02
-18.38
-19.40
-18.64
-16.06
-12.05
-7.29
-2.50
1.68
4.93
7.18
8.60
9.48
10.06
10.47
10.69
10.59
10.08
9.15
7.95
6.71
5.64
4.83
4.26
3.86
3.59
3.53
3.81
4.51
5.58
6.76
7.72
8.16
7.93
7.04
5.57
3.61
1.24
-1.39
-4.07
-6.51
-8.42
-9.69
-10.47
-11.16
-12.19
-13.89
-16.27
-19.01
-21.56
-23.28
-23.70
-22.57
-19.97
-16.25
-11.90
-7.46
-3.33
0.22
3.09
5.26
6.79
7.79
8.38
8.68
8.81
8.84
8.74
8.50
8.08
7.54
6.98
6.51
6.18
5.96
5.77
5.51
5.16
4.77
4.41
4.11
3.84
3.50
3.02
2.36
1.61
0.83
0.07
-0.68
-1.52
-2.56
-3.83
-5.40
-7.24
-9.33
-11.66
-14.19
-16.80
-19.28
-21.26
-22.35
-22.16
-20.53
-17.58
-13.70
-9.43
-5.33
-1.76
1.12
3.35
5.07
6.42
7.45
8.11
8.32
8.01
7.20
6.10
4.97
4.09
3.60
3.39
3.19
2.69
1.72
0.40
-0.95
-1.97
-2.43
-2.39
-2.14
-2.01
-2.24
-2.89
-3.89
-5.13
-6.54
-8.12
-9.80
-11.41
-12.64
-13.23
-13.05
-12.26
-11.23
-10.31
-9.63
-9.03
-8.08
-6.40
-3.85
-0.68
2.65
5.61
7.85
9.30
10.13
10.63
11.08
11.67
12.42
13.20
13.77
13.89
13.48
12.65
11.63
10.75
10.12
9.71
9.37
8.98
8.53
8.14
7.90
7.84
7.83
7.73
7.43
7.01
6.64
6.59
7.02
7.96
9.22
10.38
10.83
9.86
6.92
1.78
-5.28
-13.46
-21.55
-28.24
-32.38
-33.23
-30.64
-25.03
-17.31
-8.67
-0.35
6.66
11.74
14.70
15.73
15.19
13.55
11.22
8.57
5.98
3.74
2.05
0.95
0.31
-0.12
-0.56
-1.13
-1.71
-2.08
-2.00
-1.43
-0.50
0.41
0.94
0.81
-0.05
-1.53
-3.44
-5.55
-7.70
-9.70
-11.40
-12.68
-13.48
-13.92
-14.26
-14.86
-16.03
-17.76
-19.72
-21.27
-21.70
-20.55
-17.83
-14.02
-9.80
-5.83
-2.44
0.30
2.51
4.31
5.69
6.60
7.05
7.16
7.16
7.23
7.47
7.80
8.08
8.17
7.98
7.56
6.96
6.28
5.59
4.96
4.43
4.05
3.84
3.77
3.75
3.63
3.28
2.63
1.69
0.61
-0.43
-1.29
-1.94
-2.56
-3.43
-4.85
-6.98
-9.80
-13.02
-16.22
-18.89
-20.63
-21.15
-20.40
-18.49
-15.67
-12.27
-8.61
-5.01
-1.71
1.08
3.31
4.94
6.08
6.82
7.28
7.57
7.77
7.94
8.10
8.20
8.18
7.95
7.45
6.73
5.94
5.29
4.97
5.02
5.35
5.74
5.99
5.99
5.76
5.38
4.96
4.51
4.01
3.39
2.59
1.60
0.37
-1.19
-3.25
-5.93
-9.23
-12.85
-16.21
-18.58
-19.33
-18.11
-15.06
-10.69
-5.77
-1.00
3.10
6.35
8.79
10.58
11.85
12.69
13.10
13.10
12.73
12.11
11.39
10.69
10.06
9.45
8.77
7.89
6.73
5.33
3.78
2.26
0.92
-0.12
-0.84
-1.32
-1.71
-2.18
-2.85
-3.74
-4.82
-5.91
-6.87
-7.60
-8.13
-8.60
-9.20
-10.14
-11.62
-13.67
-16.17
-18.82
-21.13
-22.55
-22.61
-21.06
-17.99
-13.82
-9.16
-4.66
-0.76
2.33
4.65
6.36
7.61
8.50
9.05
9.27
9.20
8.94
8.65
8.46
8.44
8.58
8.77
8.89
8.87
8.67
8.33
7.98
7.72
7.64
7.73
7.94
8.11
8.09
7.75
7.06
6.03
4.72
3.16
1.39
-0.55
-2.63
-4.75
-6.85
-8.88
-10.88
-12.86
-14.72
-16.26
-17.04
-16.63
-14.75
-11.42
-7.02
-2.15
2.59
6.80
10.42
13.65
16.83
20.22
23.84
27.47
30.71
33.19
34.72
35.33
35.29
34.93
34.54
34.17
33.71
32.91
31.53
29.47
26.80
23.68
20.27
16.72
13.11
9.55
6.15
3.04
0.31
-2.07
-4.15
-6.04
-7.74
-9.20
-10.37
-11.32
-12.27
-13.60
-15.69
-18.80
-22.90
-27.62
-32.32
-36.20
-38.50
-38.71
-36.68
-32.65
-27.16
-20.94
-14.70
-9.03
-4.26
-0.56
2.08
3.78
4.63
4.79
4.39
3.67
2.87
2.24
1.92
1.93
2.16
2.45
2.73
2.93
3.04
2.98
2.68
2.07
1.17
0.10
-1.00
-2.01
-2.92
-3.79
-4.71
-5.75
-6.94
-8.33
-10.03
-12.13
-14.68
-17.55
-20.43
-22.88
-24.43
-24.70
-23.50
-20.85
-17.03
-12.53
-7.91
-3.70
-0.27
2.28
4.07
5.35
6.34
7.14
7.74
8.06
8.03
7.69
7.12
6.39
5.50
4.40
3.06
1.54
0.07
-1.08
-1.70
-1.73
-1.37
-0.93
-0.71
-0.86
-1.39
-2.18
-3.13
-4.18
-5.28
-6.42
-7.52
-8.52
-9.43
-10.37
-11.61
-13.45
-16.00
-19.09
-22.22
-24.67
-25.71
-24.92
-22.27
-18.15
-13.27
-8.38
-4.04
-0.49
2.34
4.71
6.83
8.86
10.72
12.26
13.29
13.75
13.70
13.30
12.74
12.11
11.43
10.64
9.75
8.84
8.08
7.59
7.37
7.33
7.22
6.87
6.22
5.36
4.43
3.57
2.78
1.98
1.08
0.00
-1.23
-2.53
-3.82
-5.10
-6.44
-8.01
-9.98
-12.39
-15.06
-17.61
-19.52
-20.31
-19.72
-17.77
-14.77
-11.13
-7.28
-3.55
-0.15
2.79
5.20
7.08
8.50
9.55
10.38
11.05
11.54
11.83
11.86
11.68
11.36
11.01
10.63
10.20
9.68
9.11
8.54
8.07
7.71
7.34
6.83
6.12
5.26
4.42
3.74
3.25
2.80
2.21
1.32
0.15
-1.18
-2.50
-3.71
-4.84
-6.02
-7.37
-9.02
-11.01
-13.27
-15.56
-17.46
-18.46
-18.14
-16.30
-13.13
-9.12
-4.89
-0.95
2.43
5.22
7.51
9.38
10.83
11.79
12.23
12.18
11.77
11.12
10.39
9.69
9.08
8.61
8.29
8.07
7.87
7.58
7.10
6.41
5.52
4.51
3.49
2.59
1.88
1.38
1.03
0.72
0.26
-0.45
-1.50
-2.84
-4.36
-5.93
-7.38
-8.68
-9.86
-11.09
-12.54
-14.29
-16.29
-18.24
-19.70
-20.20
-19.41
-17.30
-14.15
-10.44
-6.70
-3.35
-0.58
1.59
3.31
4.77
6.18
7.69
9.34
11.04
12.59
13.70
14.15
13.81
12.78
11.32
9.78
8.53
7.76
7.50
7.62
7.89
8.09
8.11
7.89
7.55
7.14
6.69
6.14
5.36
4.30
3.02
1.67
0.51
-0.25
-0.52
-0.26
0.39
1.27
2.12
2.61
2.43
1.32
-0.70
-3.30
-5.84
-7.55
-7.83
-6.52
-3.95
-0.80
2.18
4.49
6.06
7.16
8.18
9.33
10.57
11.58
12.02
11.70
10.66
9.14
7.38
5.59
3.87
2.31
1.07
0.31
0.09
0.34
0.81
1.18
1.16
0.70
-0.10
-0.99
-1.74
-2.30
-2.72
-3.18
-3.82
-4.67
-5.64
-6.60
-7.42
-8.10
-8.71
-9.40
-10.33
-11.61
-13.27
-15.25
-17.35
-19.19
-20.29
-20.16
-18.50
-15.35
-11.16
-6.70
-2.78
-0.02
1.33
1.44
0.71
-0.33
-1.16
-1.38
-0.72
0.88
3.24
5.97
8.51
10.31
11.00
10.47
8.92
6.75
4.45
2.41
0.93
0.17
0.11
0.60
1.35
2.01
2.26
1.89
0.88
-0.61
-2.37
-4.12
-5.65
-6.90
-7.94
-9.01
-10.38
-12.25
-14.61
-17.15
-19.31
-20.49
-20.18
-18.25
-14.89
-10.63
-6.12
-1.93
1.52
4.08
5.80
6.82
7.36
7.54
7.43
7.08
6.55
5.98
5.52
5.30
5.34
5.56
5.74
5.76
5.52
5.13
4.76
4.56
4.58
4.69
4.65
4.17
3.12
1.51
-0.42
-2.37
-4.04
-5.29
-6.11
-6.62
-6.96
-7.29
-7.76
-8.57
-9.88
-11.71
-13.86
-15.89
-17.22
-17.32
-15.92
-13.13
-9.39
-5.30
-1.44
1.79
4.22
5.87
6.83
7.24
7.22
6.85
6.26
5.62
5.13
4.96
5.17
5.63
6.12
6.41
6.35
6.01
5.60
5.40
5.60
6.18
6.97
7.64
7.90
7.51
6.48
4.93
3.10
1.22
-0.57
-2.21
-3.72
-5.18
-6.63
-8.15
-9.88
-11.92
-14.31
-16.85
-19.11
-20.48
-20.39
-18.60
-15.27
-10.94
-6.29
-1.95
1.75
4.71
7.04
8.90
10.42
11.64
12.51
13.02
13.18
13.12
12.97
12.84
12.79
12.77
12.67
12.43
12.02
11.47
10.84
10.07
9.13
7.96
6.58
5.15
3.87
2.90
2.24
1.81
1.42
0.92
0.27
-0.51
-1.32
-2.14
-2.94
-3.72
-4.49
-5.28
-6.20
-7.44
-9.19
-11.48
-14.04
-16.31
-17.61
-17.42
-15.57
-12.34
-8.32
-4.17
-0.42
2.64
4.95
6.58
7.66
8.29
8.56
8.58
8.44
8.23
8.08
8.08
8.32
8.81
9.49
10.21
10.85
11.35
11.77
12.27
13.02
14.12
15.50
16.97
18.30
19.33
20.04
20.50
20.86
21.24
21.76
22.53
23.67
25.26
27.12
28.86
29.82
29.31
26.88
22.61
17.12
11.43
6.63
3.51
2.40
3.07
4.92
7.17
9.07
10.08
9.97
8.80
6.82
4.38
1.79
-0.66
-2.81
-4.51
-5.66
-6.29
-6.48
-6.36
-6.12
-5.89
-5.73
-5.62
-5.58
-5.69
-6.19
-7.30
-9.10
-11.44
-13.97
-16.26
-18.06
-19.35
-20.37
-21.44
-22.74
-24.20
-25.55
-26.53
-27.06
-27.30
-27.56
-28.12
-29.15
-30.60
-32.37
-34.25
-36.01
-37.24
-37.47
-36.18
-33.03
-28.05
-21.71
-14.82
-8.27
-2.69
1.67
4.92
7.33
9.10
10.30
10.88
10.85
10.37
9.77
9.36
9.30
9.52
9.83
9.99
9.90
9.54
8.96
8.23
7.36
6.41
5.46
4.61
3.93
3.36
2.79
2.08
1.21
0.22
-0.78
-1.72
-2.62
-3.47
-4.30
-5.07
-5.81
-6.68
-7.95
-9.88
-12.53
-15.59
-18.44
-20.32
-20.64
-19.21
-16.24
-12.28
-7.94
-3.71
0.14
3.49
6.33
8.67
10.52
11.86
12.68
12.96
12.71
12.00
10.94
9.78
8.80
8.22
8.12
8.35
8.60
8.52
7.88
6.70
5.14
3.45
1.79
0.23
-1.29
-2.68
-3.77
-4.26
-3.93
-2.80
-1.24
0.12
0.64
-0.15
-2.27
-5.36
-8.75
-11.64
-13.37
-13.55
-12.11
-9.30
-5.59
-1.54
2.31
5.54
7.87
9.13
9.30
8.46
6.82
4.69
2.40
0.27
-1.47
-2.70
-3.38
-3.53
-3.22
-2.55
-1.68
-0.75
0.07
0.61
0.72
0.27
-0.76
-2.31
-4.15
-5.88
-7.17
-7.76
-7.75
-7.50
-7.59
-8.56
-10.73
-13.97
-17.80
-21.43
-24.06
-25.04
-24.03
-21.05
-16.43
-10.70
-4.55
1.30
6.20
9.69
11.67
12.31
12.04
11.38
10.72
10.26
10.04
9.93
9.85
9.72
9.53
9.29
8.98
8.59
8.09
7.48
6.74
5.88
4.85
3.69
2.40
1.04
-0.33
-1.69
-3.03
-4.35
-5.64
-6.91
-8.20
-9.59
-11.10
-12.73
-14.30
-15.53
-16.02
-15.44
-13.61
-10.60
-6.75
-2.55
1.48
4.98
7.79
9.85
11.17
11.75
11.52
10.52
8.90
6.98
5.18
3.88
3.25
3.21
3.50
3.80
3.93
3.88
3.83
4.03
4.62
5.59
6.74
7.77
8.45
8.65
8.41
7.85
7.06
6.06
4.70
2.85
0.39
-2.69
-6.15
-9.61
-12.54
-14.41
-14.84
-13.71
-11.19
-7.72
-3.83
-0.10
3.07
5.46
7.05
7.98
8.48
8.82
9.20
9.74
10.43
11.23
12.03
12.78
13.44
13.96
14.31
14.47
14.45
14.29
14.03
13.63
13.03
12.15
10.96
9.54
8.06
6.66
5.36
4.03
2.43
0.36
-2.29
-5.47
-8.92
-12.32
-15.23
-17.24
-17.97
-17.16
-14.80
-11.15
-6.69
-2.07
2.14
5.53
7.93
9.42
10.22
10.62
10.83
11.00
11.22
11.49
11.82
12.19
12.58
12.91
13.04
12.81
12.07
10.76
8.94
6.81
4.57
2.46
0.60
-0.99
-2.38
-3.69
-5.06
-6.58
-8.23
-9.92
-11.46
-12.73
-13.75
-14.70
-15.89
-17.57
-19.74
-22.01
-23.77
-24.31
-23.18
-20.30
-16.02
-10.98
-5.85
-1.20
2.66
5.70
8.00
9.69
10.85
11.53
11.75
11.65
11.40
11.19
11.16
11.26
11.37
11.30
11.00
10.49
9.90
9.35
8.92
8.62
8.44
8.42
8.56
8.81
8.97
8.73
7.78
6.01
3.54
0.73
-2.00
-4.35
-6.18
-7.55
-8.59
-9.45
-10.20
-10.92
-11.67
-12.49
-13.30
-13.89
-13.87
-12.82
-10.47
-6.83
-2.26
2.63
7.19
10.91
13.53
15.06
15.71
15.75
15.43
14.94
14.46
14.14
14.02
14.12
14.37
14.59
14.58
14.22
13.46
12.39
11.13
9.85
8.67
7.71
6.99
6.52
6.25
6.06
5.84
5.46
4.83
3.98
2.98
2.00
1.13
0.43
-0.10
-0.52
-0.93
-1.45
-2.22
-3.45
-5.25
-7.64
-10.40
-13.13
-15.29
-16.41
-16.20
-14.66
-11.99
-8.53
-4.68
-0.79
2.81
5.88
8.23
9.80
10.65
10.92
10.80
10.45
10.02
9.58
9.16
8.78
8.39
7.96
7.48
6.99
6.53
6.17
5.88
5.59
5.24
4.74
4.08
3.27
2.35
1.36
0.38
-0.56
-1.40
-2.15
-2.86
-3.61
-4.46
-5.37
-6.27
-7.02
-7.58
-8.04
-8.63
-9.58
-11.06
-13.06
-15.32
-17.39
-18.80
-19.11
-18.12
-15.88
-12.73
-9.17
-5.73
-2.76
-0.40
1.45
2.95
4.22
5.27
5.99
6.29
6.18
5.79
5.34
5.03
4.91
4.94
4.99
4.95
4.82
4.65
4.53
4.54
4.68
4.88
5.01
4.98
4.78
4.48
4.20
4.07
4.07
4.13
4.01
3.51
2.47
0.94
-0.86
-2.58
-3.91
-4.70
-5.08
-5.44
-6.29
-8.05
-10.81
-14.27
-17.75
-20.44
-21.67
-21.08
-18.78
-15.17
-10.85
-6.41
-2.33
1.12
3.80
5.72
6.95
7.60
7.82
7.75
7.51
7.19
6.88
6.62
6.43
6.30
6.22
6.18
6.17
6.19
6.22
6.24
6.19
6.04
5.80
5.50
5.23
5.02
4.90
4.80
4.61
4.23
3.61
2.79
1.88
0.99
0.16
-0.66
-1.58
-2.76
-4.28
-6.18
-8.37
-10.68
-12.83
-14.48
-15.27
-14.92
-13.35
-10.72
-7.41
-3.94
-0.75
1.87
3.84
5.24
6.17
6.72
6.91
6.75
6.31
5.76
5.34
5.29
5.68
6.39
7.17
7.69
7.80
7.51
6.98
6.43
5.97
5.57
5.09
4.34
3.24
1.82
0.25
-1.28
-2.61
-3.69
-4.50
-5.14
-5.64
-6.03
-6.30
-6.53
-6.86
-7.55
-8.83
-10.78
-13.16
-15.47
-17.02
-17.25
-15.92
-13.23
-9.72
-6.02
-2.67
0.05
2.11
3.61
4.72
5.53
6.10
6.44
6.57
6.55
6.47
6.42
6.45
6.57
6.77
7.00
7.21
7.37
7.47
7.47
7.30
6.83
6.02
4.88
3.51
2.13
0.96
0.11
-0.43
-0.81
-1.23
-1.87
-2.79
-3.93
-5.10
-6.15
-6.96
-7.58
-8.18
-9.02
-10.27
-11.91
-13.71
-15.26
-16.11
-15.95
-14.69
-12.47
-9.61
-6.47
-3.38
-0.60
1.71
3.44
4.58
5.17
5.35
5.29
5.18
5.10
5.09
5.08
4.99
4.75
4.34
3.79
3.23
2.77
2.53
2.56
2.85
3.27
3.68
3.97
4.05
3.94
3.70
3.44
3.21
2.97
2.63
2.07
1.26
0.29
-0.68
-1.47
-2.06
-2.59
-3.29
-4.41
-6.05
-8.06
-10.17
-12.01
-13.31
-13.89
-13.64
-12.53
-10.53
-7.76
-4.41
-0.86
2.48
5.21
7.15
8.35
9.04
9.52
9.97
10.41
10.69
10.59
10.01
9.00
7.85
6.87
6.33
6.32
6.69
7.17
7.48
7.49
7.22
6.81
6.40
6.06
5.74
5.34
4.77
4.00
3.09
2.15
1.26
0.42
-0.41
-1.30
-2.28
-3.31
-4.41
-5.62
-7.12
-9.09
-11.60
-14.44
-17.10
-18.97
-19.45
-18.35
-15.83
-12.40
-8.66
-5.07
-1.86
0.97
3.49
5.74
7.68
9.19
10.18
10.64
10.61
10.24
9.64
8.95
8.28
7.69
7.23
6.89
6.62
6.39
6.21
6.03
5.87
5.70
5.48
5.17
4.73
4.18
3.54
2.84
2.07
1.19
0.14
-1.11
-2.53
-4.01
-5.36
-6.45
-7.16
-7.57
-7.83
-8.25
-9.17
-10.79
-13.16
-16.03
-18.84
-20.95
-21.76
-20.99
-18.73
-15.40
-11.57
-7.79
-4.44
-1.68
0.49
2.17
3.56
4.84
6.15
7.53
8.91
10.10
10.90
11.14
10.77
9.88
8.61
7.21
5.92
4.99
4.57
4.67
5.10
5.58
5.85
5.70
5.11
4.18
3.08
1.97
0.98
0.14
-0.54
-1.10
-1.58
-2.08
-2.70
-3.49
-4.51
-5.70
-7.01
-8.36
-9.71
-11.14
-12.74
-14.58
-16.55
-18.32
-19.40
-19.29
-17.74
-14.83
-11.01
-6.86
-2.87
0.72
3.94
6.93
9.73
12.19
14.02
14.91
14.78
13.84
12.51
11.25
10.38
10.01
10.00
10.17
10.33
10.38
10.35
10.22
9.99
9.56
8.83
7.77
6.40
4.88
3.37
2.05
0.99
0.16
-0.57
-1.33
-2.25
-3.37
-4.64
-6.00
-7.43
-9.00
-10.83
-13.02
-15.44
-17.69
-19.24
-19.54
-18.31
-15.62
-11.87
-7.57
-3.25
0.77
4.27
7.16
9.30
10.58
10.95
10.45
9.32
7.88
6.50
5.40
4.67
4.18
3.70
3.07
2.27
1.45
0.83
0.56
0.66
1.04
1.60
2.35
3.33
4.58
5.99
7.28
8.14
8.35
7.89
6.93
5.68
4.28
2.82
1.35
0.07
-0.70
-0.67
0.21
1.65
3.08
3.92
3.87
3.04
1.89
0.97
0.61
0.82
1.34
1.82
1.98
1.77
1.26
0.56
-0.28
-1.25
-2.36
-3.56
-4.74
-5.80
-6.68
-7.38
-7.94
-8.37
-8.56
-8.38
-7.78
-6.87
-5.97
-5.46
-5.61
-6.47
-7.80
-9.26
-10.56
-11.62
-12.52
-13.38
-14.25
-15.00
-15.42
-15.32
-14.69
-13.71
-12.69
-11.96
-11.73
-12.09
-13.03
-14.53
-16.58
-19.23
-22.44
-26.03
-29.58
-32.46
-34.07
-33.97
-32.02
-28.46
-23.83
-18.75
-13.79
-9.34
-5.57
-2.43
0.33
2.95
5.62
8.33
10.90
13.05
14.58
15.56
16.28
17.18
18.60
20.58
22.87
24.97
26.44
27.11
27.13
26.82
26.50
26.28
26.08
25.70
25.01
24.04
22.89
21.69
20.42
18.95
17.07
14.60
11.48
7.76
3.57
-0.93
-5.57
-10.10
-14.21
-17.46
-19.43
-19.74
-18.25
-15.06
-10.59
-5.41
-0.11
4.75
8.83
11.94
13.99
14.98
14.91
13.81
11.79
9.09
6.13
3.39
1.34
0.27
0.21
0.97
2.18
3.50
4.69
5.64
6.39
7.01
7.53
7.88
7.90
7.41
6.41
5.02
3.62
2.60
2.19
2.30
2.57
2.48
1.59
-0.32
-3.22
-6.90
-11.06
-15.27
-19.03
-21.72
-22.78
-21.90
-19.17
-15.12
-10.50
-6.06
-2.31
0.53
2.51
3.82
4.66
5.24
5.72
6.18
6.63
7.01
7.22
7.22
7.09
6.91
6.80
6.74
6.63
6.35
5.88
5.31
4.84
4.64
4.70
4.85
4.80
4.30
3.24
1.68
-0.13
-1.93
-3.47
-4.61
-5.39
-5.94
-6.57
-7.57
-9.19
-11.50
-14.32
-17.19
-19.52
-20.66
-20.19
-18.01
-14.36
-9.77
-4.83
-0.13
3.93
7.08
9.26
10.54
11.09
11.21
11.14
11.12
11.25
11.55
11.98
12.48
12.94
13.26
13.30
12.95
12.17
11.07
9.78
8.45
7.13
5.77
4.35
2.88
1.50
0.33
-0.58
-1.34
-2.15
-3.19
-4.45
-5.80
-7.01
-7.90
-8.44
-8.74
-9.03
-9.57
-10.62
-12.32
-14.62
-17.29
-19.80
-21.56
-22.07
-21.03
-18.55
-15.00
-10.91
-6.79
-3.03
0.18
2.76
4.74
6.18
7.16
7.81
8.17
8.35
8.39
8.35
8.30
8.28
8.29
8.34
8.43
8.60
8.86
9.22
9.63
9.99
10.14
9.96
9.38
8.43
7.19
5.79
4.35
2.97
1.74
0.74
0.07
-0.26
-0.30
-0.26
-0.42
-1.06
-2.33
-4.20
-6.46
-8.79
-10.84
-12.27
-12.84
-12.39
-10.86
-8.40
-5.29
-1.97
1.11
3.65
5.54
6.85
7.77
8.44
8.96
9.30
9.40
9.24
8.82
8.21
7.51
6.84
6.34
6.10
6.19
6.55
7.03
7.42
7.55
7.33
6.79
6.06
5.28
4.50
3.73
2.91
1.99
0.98
-0.08
-1.13
-2.12
-3.00
-3.71
-4.27
-4.73
-5.24
-6.06
-7.46
-9.64
-12.55
-15.86
-18.88
-20.85
-21.13
-19.43
-15.97
-11.36
-6.40
-1.85
1.79
4.38
6.02
6.97
7.56
8.00
8.43
8.86
9.27
9.56
9.64
9.46
8.98
8.23
7.30
6.32
5.44
4.78
4.40
4.21
4.10
3.92
3.57
3.01
2.31
1.56
0.82
0.16
-0.44
-1.01
-1.60
-2.23
-2.94
-3.73
-4.60
-5.60
-6.75
-8.11
-9.71
-11.64
-13.91
-16.52
-19.32
-21.95
-23.91
-24.62
-23.65
-20.91
-16.73
-11.75
-6.78
-2.48
0.77
2.89
4.08
4.61
4.77
4.77
4.75
4.78
4.85
4.96
5.11
5.30
5.52
5.80
6.09
6.35
6.57
6.73
6.90
7.15
7.53
8.03
8.54
8.97
9.19
9.15
8.85
8.29
7.48
6.46
5.26
3.92
2.52
1.16
-0.07
-1.07
-1.83
-2.43
-3.12
-4.17
-5.79
-7.96
-10.39
-12.59
-14.00
-14.24
-13.20
-11.07
-8.23
-5.11
-2.09
0.56
2.70
4.31
5.43
6.20
6.69
6.96
7.02
6.91
6.68
6.44
6.29
6.22
6.12
5.87
5.33
4.53
3.62
2.83
2.42
2.46
2.87
3.39
3.68
3.43
2.48
0.79
-1.42
-3.74
-5.60
-6.34
-5.41
-2.51
2.22
8.19
14.41
19.78
23.22
24.04
21.91
17.02
10.05
2.01
-5.80
-12.11
-15.98
-17.01
-15.38
-11.76
-7.03
-2.05
2.52
6.29
9.03
10.66
11.13
10.50
8.97
6.93
4.88
3.30
2.54
2.68
3.51
4.70
5.81
6.50
6.56
5.95
4.76
3.22
1.56
0.01
-1.31
-2.38
-3.26
-4.04
-4.75
-5.37
-5.87
-6.30
-6.77
-7.42
-8.36
-9.63
-11.27
-13.35
-15.94
-18.95
-22.09
-24.80
-26.34
-26.16
-24.04
-20.24
-15.45
-10.46
-5.93
-2.24
0.51
2.44
3.70
4.47
4.88
5.11
5.33
5.68
6.20
6.80
7.27
7.36
6.94
6.07
4.96
3.94
3.24
2.96
3.02
3.21
3.31
3.23
2.93
2.50
2.02
1.52
1.02
0.45
-0.27
-1.29
-2.84
-5.07
-8.02
-11.46
-14.86
-17.50
-18.69
-18.03
-15.62
-11.91
-7.62
-3.43
0.20
3.08
5.27
6.86
7.99
8.75
9.23
9.55
9.85
10.26
10.81
11.41
11.87
11.93
11.39
10.22
8.52
6.63
4.92
3.71
3.16
3.14
3.30
3.28
2.82
1.92
0.88
0.01
-0.47
-0.61
-0.77
-1.40
-2.88
-5.37
-8.72
-12.48
-16.07
-18.87
-20.38
-20.37
-18.86
-16.13
-12.60
-8.74
-4.94
-1.52
1.35
3.61
5.27
6.43
7.23
7.82
8.31
8.75
9.14
9.51
9.87
10.23
10.51
10.62
10.41
9.80
8.83
7.64
6.42
5.34
4.45
3.73
3.08
2.40
1.60
0.63
-0.55
-1.93
-3.47
-5.04
-6.47
-7.60
-8.42
-9.13
-10.01
-11.34
-13.23
-15.48
-17.64
-19.18
-19.63
-18.76
-16.64
-13.55
-9.89
-6.03
-2.31
1.07
3.98
6.35
8.15
9.34
9.90
9.89
9.48
8.89
8.35
7.98
7.76
7.54
7.17
6.56
5.73
4.82
3.98
3.28
2.70
2.16
1.62
1.09
0.62
0.19
-0.33
-1.10
-2.29
-3.88
-5.61
-7.14
-8.15
-8.57
-8.55
-8.44
-8.56
-9.15
-10.30
-11.97
-14.05
-16.30
-18.35
-19.66
-19.73
-18.23
-15.18
-11.04
-6.45
-2.09
1.56
4.32
6.22
7.41
8.08
8.43
8.66
9.02
9.69
10.70
11.94
13.15
14.07
14.56
14.71
14.70
14.70
14.78
14.84
14.68
14.18
13.34
12.27
11.10
9.87
8.55
7.06
5.37
3.56
1.80
0.24
-1.06
-2.16
-3.19
-4.30
-5.61
-7.18
-9.05
-11.19
-13.39
-15.36
-16.65
-16.87
-15.79
-13.42
-10.10
-6.25
-2.37
1.19
4.20
6.62
8.45
9.77
10.63
11.12
11.34
11.39
11.35
11.26
11.11
10.84
10.42
9.89
9.32
8.86
8.65
8.72
8.94
9.06
8.78
7.88
6.40
4.60
2.89
1.59
0.84
0.50
0.23
-0.31
-1.30
-2.70
-4.31
-5.86
-7.16
-8.14
-8.84
-9.39
-9.93
-10.64
-11.70
-13.28
-15.34
-17.61
-19.57
-20.55
-20.07
-17.98
-14.63
-10.69
-6.90
-3.76
-1.38
0.41
1.92
3.33
4.65
5.75
6.53
7.00
7.28
7.55
7.88
8.28
8.67
8.98
9.20
9.39
9.67
10.10
10.64
11.17
11.55
11.67
11.51
11.15
10.65
10.03
9.29
8.39
7.35
6.25
5.19
4.26
3.46
2.71
1.90
0.93
-0.18
-1.36
-2.57
-3.76
-4.98
-6.27
-7.63
-9.00
-10.33
-11.63
-12.99
-14.61
-16.70
-19.33
-22.31
-25.17
-27.24
-27.86
-26.68
-23.73
-19.49
-14.64
-9.92
-5.85
-2.66
-0.34
1.32
2.53
3.47
4.26
4.96
5.58
6.17
6.74
7.29
7.83
8.34
8.82
9.22
9.51
9.67
9.71
9.70
9.72
9.85
10.12
10.47
10.78
10.91
10.78
10.45
10.05
9.76
9.70
9.83
10.02
10.06
9.78
9.16
8.25
7.15
5.93
4.57
3.05
1.33
-0.54
-2.44
-4.26
-5.94
-7.57
-9.33
-11.43
-13.92
-16.56
-18.84
-20.14
-19.92
-18.04
-14.76
-10.68
-6.48
-2.68
0.54
3.21
5.44
7.26
8.57
9.25
9.27
8.81
8.21
7.83
7.85
8.25
8.82
9.28
9.45
9.31
8.97
8.63
8.45
8.48
8.69
8.97
9.18
9.21
9.01
8.61
8.09
7.51
6.93
6.32
5.60
4.72
3.66
2.50
1.32
0.19
-0.90
-2.07
-3.44
-5.03
-6.76
-8.43
-9.85
-10.90
-11.69
-12.45
-13.52
-15.12
-17.26
-19.66
-21.82
-23.12
-23.07
-21.46
-18.48
-14.59
-10.45
-6.64
-3.53
-1.18
0.55
1.93
3.18
4.42
5.61
6.65
7.47
8.01
8.31
8.45
8.44
8.28
7.98
7.55
7.07
6.69
6.57
6.78
7.27
7.91
8.46
8.74
8.66
8.27
7.72
7.20
6.85
6.65
6.47
6.14
5.50
4.52
3.27
1.87
0.38
-1.15
-2.73
-4.32
-5.83
-7.10
-8.01
-8.60
-9.07
-9.79
-11.06
-13.06
-15.63
-18.37
-20.74
-22.24
-22.58
-21.74
-19.86
-17.20
-14.03
-10.64
-7.29
-4.24
-1.65
0.39
1.95
3.20
4.33
5.41
6.41
7.25
7.83
8.12
8.23
8.25
8.28
8.31
8.31
8.25
8.16
8.17
8.40
8.89
9.57
10.24
10.61
10.44
9.61
8.26
6.68
5.18
4.04
3.28
2.78
2.31
1.73
1.02
0.33
-0.22
-0.54
-0.71
-0.90
-1.29
-1.99
-3.01
-4.36
-6.01
-7.90
-9.89
-11.69
-12.92
-13.24
-12.43
-10.57
-7.94
-4.98
-2.09
0.45
2.55
4.25
5.62
6.73
7.53
7.95
7.95
7.61
7.11
6.68
6.47
6.48
6.56
6.58
6.47
6.31
6.32
6.65
7.33
8.19
8.94
9.36
9.38
9.08
8.60
8.05
7.46
6.73
5.73
4.40
2.76
0.91
-0.97
-2.75
-4.32
-5.67
-6.82
-7.83
-8.83
-9.97
-11.46
-13.42
-15.82
-18.35
-20.49
-21.60
-21.19
-19.14
-15.73
-11.63
-7.50
-3.85
-0.88
1.49
3.41
4.96
6.10
6.71
6.79
6.48
6.06
5.78
5.78
5.98
6.16
6.15
5.87
5.44
5.04
4.81
4.77
4.86
4.96
5.01
5.02
5.00
4.99
4.98
4.90
4.70
4.32
3.75
3.03
2.26
1.53
0.91
0.43
-0.01
-0.53
-1.25
-2.19
-3.35
-4.69
-6.27
-8.22
-10.59
-13.28
-15.89
-17.87
-18.65
-17.99
-16.04
-13.31
-10.43
-7.88
-5.84
-4.21
-2.79
-1.39
-0.01
1.28
2.40
3.34
4.16
4.94
5.68
6.27
6.60
6.62
6.43
6.24
6.24
6.56
7.14
7.83
8.44
8.85
9.07
9.16
9.16
9.06
8.81
8.32
7.58
6.58
5.43
4.19
2.94
1.70
0.47
-0.79
-2.09
-3.41
-4.68
-5.79
-6.66
-7.25
-7.64
-8.00
-8.56
-9.54
-11.08
-13.24
-15.87
-18.61
-20.95
-22.30
-22.20
-20.48
-17.35
-13.33
-9.10
-5.17
-1.83
0.91
3.20
5.17
6.84
8.10
8.86
9.07
8.83
8.33
7.79
7.39
7.25
7.39
7.78
8.34
8.98
9.63
10.22
10.68
10.93
10.88
10.51
9.85
9.03
8.19
7.42
6.71
5.95
5.03
3.88
2.55
1.13
-0.23
-1.48
-2.61
-3.67
-4.75
-5.97
-7.45
-9.29
-11.45
-13.71
-15.62
-16.69
-16.48
-14.87
-12.05
-8.45
-4.63
-1.02
2.12
4.66
6.59
7.93
8.72
9.08
9.18
9.19
9.23
9.28
9.27
9.08
8.71
8.17
7.56
6.95
6.42
5.99
5.72
5.62
5.66
5.73
5.61
5.18
4.40
3.41
2.40
1.53
0.86
0.27
-0.39
-1.26
-2.32
-3.46
-4.53
-5.42
-6.11
-6.64
-7.12
-7.63
-8.34
-9.43
-11.08
-13.33
-15.92
-18.30
-19.75
-19.69
-17.93
-14.77
-10.86
-6.93
-3.49
-0.76
1.31
2.86
4.00
4.77
5.22
5.42
5.53
5.72
6.09
6.64
7.24
7.72
7.93
7.81
7.44
7.03
6.75
6.73
6.92
7.10
7.05
6.62
5.81
4.80
3.80
2.97
2.36
1.93
1.59
1.21
0.73
0.03
-0.95
-2.24
-3.79
-5.39
-6.73
-7.56
-7.77
-7.53
-7.19
-7.28
-8.23
-10.23
-13.19
-16.62
-19.83
-22.03
-22.60
-21.23
-18.05
-13.60
-8.62
-3.81
0.39
3.85
6.66
9.00
10.97
12.56
13.66
14.26
14.40
14.23
13.97
13.77
13.68
13.71
13.81
13.92
14.02
14.03
13.90
13.64
13.30
12.99
12.82
12.83
12.96
13.11
13.14
13.05
12.90
12.78
12.72
12.57
12.04
10.92
9.14
6.85
4.35
1.95
-0.20
-2.15
-4.07
-6.11
-8.35
-10.78
-13.37
-16.09
-18.89
-21.58
-23.73
-24.86
-24.54
-22.68
-19.59
-15.88
-12.16
-8.84
-6.01
-3.56
-1.38
0.55
2.12
3.15
3.57
3.41
2.84
2.12
1.51
1.22
1.35
1.84
2.50
3.04
3.23
3.01
2.53
2.09
1.96
2.27
2.93
3.73
4.40
4.78
4.85
4.64
4.21
3.55
2.58
1.18
-0.67
-2.85
-5.13
-7.18
-8.77
-9.77
-10.24
-10.36
-10.37
-10.53
-11.02
-12.02
-13.55
-15.53
-17.73
-19.71
-20.93
-20.93
-19.50
-16.72
-13.01
-8.93
-5.03
-1.61
1.23
3.57
5.49
7.03
8.15
8.80
8.98
8.81
8.41
7.88
7.31
6.72
6.16
5.71
5.45
5.41
5.51
5.59
5.48
5.03
4.23
3.17
2.00
0.88
-0.01
-0.59
-0.82
-0.75
-0.49
-0.16
0.11
0.25
0.19
-0.07
-0.53
-1.15
-1.84
-2.48
-3.03
-3.59
-4.40
-5.77
-7.89
-10.68
-13.70
-16.29
-17.78
-17.71
-16.01
-12.94
-8.99
-4.72
-0.59
3.05
5.97
8.09
9.42
10.10
10.28
10.14
9.79
9.28
8.67
8.07
7.65
7.57
7.88
8.45
9.06
9.42
9.39
9.03
8.52
8.07
7.77
7.55
7.26
6.75
5.95
4.90
3.73
2.56
1.52
0.65
-0.05
-0.64
-1.24
-2.03
-3.22
-4.99
-7.40
-10.29
-13.24
-15.63
-16.86
-16.53
-14.63
-11.56
-7.96
-4.49
-1.59
0.57
2.12
3.31
4.38
5.40
6.36
7.15
7.71
8.00
8.07
8.05
8.01
8.02
8.08
8.12
8.11
8.04
7.97
7.95
7.96
7.91
7.64
7.00
5.90
4.46
2.92
1.58
0.69
0.27
0.10
-0.16
-0.89
-2.20
-3.96
-5.77
-7.23
-8.08
-8.36
-8.33
-8.40
-8.94
-10.22
-12.25
-14.82
-17.47
-19.55
-20.45
-19.76
-17.46
-13.98
-10.02
-6.28
-3.22
-0.90
0.88
2.40
3.82
5.11
6.16
6.85
7.18
7.27
7.31
7.43
7.66
7.93
8.08
8.04
7.80
7.46
7.16
7.02
7.09
7.29
7.48
7.48
7.23
6.75
6.18
5.68
5.38
5.24
5.14
4.86
4.25
3.21
1.79
0.10
-1.68
-3.42
-5.04
-6.47
-7.69
-8.75
-9.72
-10.78
-12.15
-14.01
-16.36
-18.95
-21.27
-22.71
-22.80
-21.39
-18.72
-15.32
-11.76
-8.44
-5.49
-2.83
-0.37
1.91
3.93
5.56
6.70
7.38
7.71
7.84
7.92
8.08
8.36
8.75
9.20
9.69
10.20
10.79
11.46
12.20
12.88
13.32
13.37
12.99
12.26
11.36
10.50
9.72
9.00
8.24
7.34
6.27
5.04
3.69
2.30
0.94
-0.29
-1.33
-2.16
-2.91
-3.78
-5.00
-6.76
-9.07
-11.71
-14.27
-16.26
-17.25
-16.98
-15.43
-12.87
-9.72
-6.48
-3.57
-1.25
0.45
1.68
2.67
3.64
4.68
5.72
6.57
7.09
7.20
7.02
6.83
6.87
7.26
7.89
8.53
8.90
8.89
8.55
8.07
7.67
7.43
7.29
7.10
6.70
6.06
5.26
4.51
4.00
3.82
3.90
4.09
4.18
4.03
3.55
2.73
1.63
0.29
-1.15
-2.58
-3.87
-4.96
-5.82
-6.55
-7.34
-8.43
-10.11
-12.54
-15.67
-19.15
-22.34
-24.51
-25.04
-23.69
-20.66
-16.54
-12.10
-7.96
-4.48
-1.71
0.55
2.48
4.24
5.80
7.12
8.11
8.77
9.14
9.30
9.30
9.18
8.95
8.68
8.41
8.24
8.23
8.38
8.59
8.73
8.68
8.36
7.76
6.98
6.11
5.29
4.62
4.14
3.80
3.50
3.18
2.78
2.29
1.76
1.21
0.65
0.03
-0.69
-1.56
-2.58
-3.77
-5.10
-6.56
-8.09
-9.65
-11.20
-12.77
-14.43
-16.28
-18.28
-20.21
-21.64
-22.11
-21.23
-18.96
-15.57
-11.59
-7.57
-3.92
-0.82
1.76
3.93
5.79
7.38
8.74
9.85
10.75
11.46
12.05
12.53
12.92
13.22
13.38
13.37
13.16
12.72
12.11
11.38
10.68
10.18
9.96
10.06
10.36
10.67
10.81
10.65
10.22
9.63
9.04
8.57
8.23
7.87
7.34
6.51
5.36
3.96
2.47
0.99
-0.39
-1.70
-2.98
-4.29
-5.63
-7.01
-8.43
-10.02
-11.95
-14.38
-17.28
-20.39
-23.15
-24.84
-24.90
-23.11
-19.77
-15.59
-11.44
-7.95
-5.32
-3.33
-1.51
0.48
2.69
4.91
6.77
8.06
8.77
9.07
9.16
9.13
9.00
8.74
8.43
8.22
8.30
8.75
9.56
10.52
11.39
11.97
12.15
11.96
11.48
10.89
10.31
9.83
9.41
8.94
8.28
7.34
6.13
4.74
3.35
2.09
1.02
0.14
-0.63
-1.41
-2.28
-3.35
-4.68
-6.26
-8.05
-9.92
-11.72
-13.37
-14.87
-16.39
-18.13
-20.21
-22.48
-24.55
-25.85
-25.86
-24.31
-21.29
-17.22
-12.68
-8.27
-4.39
-1.26
1.12
2.91
4.29
5.47
6.53
7.48
8.28
8.87
9.25
9.44
9.48
9.36
9.03
8.47
7.70
6.86
6.17
5.78
5.73
5.91
6.12
6.18
6.01
5.66
5.19
4.70
4.21
3.73
3.28
2.86
2.44
1.98
1.43
0.78
0.10
-0.48
-0.84
-0.94
-0.86
-0.77
-0.85
-1.20
-1.87
-2.78
-3.88
-5.12
-6.53
-8.16
-10.03
-12.09
-14.15
-15.89
-16.97
-17.04
-15.93
-13.69
-10.57
-6.98
-3.37
-0.07
2.74
5.03
6.85
8.24
9.18
9.68
9.77
9.66
9.63
9.91
10.53
11.25
11.70
11.57
10.81
9.63
8.45
7.64
7.37
7.55
7.93
8.19
8.08
7.60
6.83
5.96
5.16
4.48
3.89
3.31
2.69
2.02
1.33
0.65
-0.12
-1.07
-2.28
-3.70
-5.14
-6.44
-7.56
-8.71
-10.23
-12.40
-15.17
-18.17
-20.68
-22.02
-21.78
-19.99
-17.02
-13.51
-10.00
-6.84
-4.14
-1.84
0.14
1.82
3.14
4.09
4.74
5.28
5.93
6.79
7.77
8.62
9.06
8.96
8.44
7.78
7.37
7.40
7.90
8.66
9.42
9.97
10.15
9.92
9.30
8.35
7.21
6.04
4.98
4.15
3.51
2.95
2.30
1.40
0.22
-1.19
-2.70
-4.12
-5.30
-6.11
-6.52
-6.70
-6.98
-7.82
-9.56
-12.26
-15.55
-18.70
-20.87
-21.43
-20.24
-17.63
-14.24
-10.72
-7.53
-4.87
-2.64
-0.75
0.86
2.18
3.16
3.82
4.26
4.66
5.14
5.79
6.58
7.41
8.16
8.70
8.96
8.78
8.11
6.88
5.18
3.23
1.33
-0.25
-1.41
-2.15
-2.59
-2.75
-2.62
-2.13
-1.28
-0.27
0.58
0.93
0.63
-0.24
-1.42
-2.58
-3.57
-4.40
-5.22
-6.16
-7.35
-8.77
-10.46
-12.40
-14.59
-16.87
-18.88
-20.14
-20.20
-18.80
-15.99
-12.17
-7.90
-3.74
-0.01
3.16
5.83
8.13
10.08
11.66
12.76
13.34
13.44
13.24
12.98
12.83
12.85
12.96
13.00
12.85
12.45
11.87
11.21
10.57
9.99
9.48
9.01
8.55
8.04
7.43
6.69
5.81
4.85
3.86
2.89
1.96
1.03
0.05
-1.03
-2.23
-3.58
-5.15
-7.07
-9.40
-12.05
-14.72
-16.95
-18.20
-18.14
-16.71
-14.16
-10.95
-7.50
-4.14
-1.03
1.77
4.23
6.27
7.84
8.92
9.61
10.10
10.59
11.18
11.81
12.34
12.56
12.37
11.77
10.90
9.96
9.09
8.39
7.84
7.40
6.97
6.49
5.96
5.41
4.89
4.46
4.11
3.78
3.31
2.56
1.46
0.05
-1.53
-3.09
-4.53
-5.82
-7.05
-8.32
-9.78
-11.53
-13.61
-15.99
-18.44
-20.60
-21.99
-22.21
-21.08
-18.71
-15.53
-12.03
-8.64
-5.58
-2.86
-0.43
1.73
3.55
4.97
5.94
6.54
6.91
7.16
7.25
7.11
6.63
5.89
5.09
4.53
4.46
4.93
5.83
6.86
7.77
8.36
8.53
8.31
7.74
6.95
6.06
5.21
4.57
4.19
4.02
3.85
3.40
2.41
0.83
-1.21
-3.42
-5.44
-7.06
-8.21
-9.02
-9.73
-10.67
-12.13
-14.29
-17.07
-20.11
-22.77
-24.36
-24.35
-22.59
-19.37
-15.25
-10.85
-6.65
-2.92
0.22
2.74
4.59
5.79
6.38
6.54
6.48
6.43
6.54
6.84
7.29
7.76
8.19
8.61
9.11
9.84
10.86
12.08
13.29
14.22
14.68
14.62
14.16
13.52
12.85
12.25
11.65
10.91
9.91
8.63
7.11
5.47
3.84
2.33
0.98
-0.20
-1.20
-2.03
-2.80
-3.68
-4.93
-6.73
-9.06
-11.60
-13.77
-14.99
-14.84
-13.27
-10.60
-7.34
-3.98
-0.86
1.85
4.09
5.81
6.99
7.63
7.81
7.72
7.56
7.48
7.55
7.72
7.94
8.13
8.29
8.38
8.48
8.65
9.00
9.62
10.54
11.59
12.50
12.93
12.62
11.49
9.71
7.62
5.58
3.92
2.76
2.00
1.43
0.76
-0.18
-1.38
-2.65
-3.75
-4.56
-5.16
-5.82
-6.87
-8.50
-10.75
-13.54
-16.73
-20.13
-23.52
-26.51
-28.56
-29.09
-27.78
-24.65
-20.21
-15.18
-10.32
-6.11
-2.71
-0.07
1.91
3.36
4.34
4.97
5.39
5.82
6.45
7.31
8.35
9.37
10.20
10.72
10.96
10.97
10.86
10.72
10.65
10.72
10.97
11.37
11.77
11.97
11.73
10.95
9.66
8.08
6.50
5.17
4.18
3.47
2.86
2.16
1.22
0.04
-1.32
-2.82
-4.42
-6.11
-7.89
-9.73
-11.55
-13.31
-15.01
-16.79
-18.78
-20.99
-23.20
-24.94
-25.63
-24.81
-22.35
-18.52
-13.92
-9.21
-4.91
-1.26
1.69
4.02
5.79
7.03
7.78
8.07
8.02
7.78
7.48
7.15
6.82
6.42
5.98
5.57
5.30
5.34
5.80
6.66
7.76
8.87
9.74
10.25
10.34
10.08
9.57
8.88
8.07
7.24
6.53
6.02
5.73
5.58
5.36
4.88
4.04
2.91
1.62
0.33
-0.88
-2.02
-3.09
-4.11
-5.02
-5.83
-6.66
-7.72
-9.26
-11.36
-13.83
-16.17
-17.74
-18.01
-16.70
-13.97
-10.28
-6.19
-2.20
1.38
4.44
6.97
9.00
10.52
11.54
12.11
12.32
12.25
11.97
11.48
10.78
9.94
9.10
8.47
8.25
8.48
9.03
9.69
10.23
10.49
10.42
10.01
9.25
8.17
6.86
5.47
4.22
3.27
2.60
2.06
1.46
0.62
-0.44
-1.63
-2.81
-3.97
-5.18
-6.56
-8.20
-10.16
-12.41
-14.91
-17.57
-20.13
-22.20
-23.30
-23.02
-21.20
-18.07
-14.11
-9.99
-6.25
-3.20
-0.90
0.80
2.07
3.09
3.93
4.62
5.17
5.64
6.11
6.68
7.39
8.19
8.98
9.64
10.08
10.30
10.39
10.43
10.44
10.42
10.31
10.03
9.54
8.84
7.94
6.93
5.91
4.97
4.16
3.38
2.52
1.42
-0.01
-1.72
-3.51
-5.16
-6.51
-7.57
-8.46
-9.43
-10.72
-12.49
-14.80
-17.46
-20.17
-22.46
-23.79
-23.74
-22.11
-19.08
-15.13
-10.88
-6.89
-3.50
-0.75
1.48
3.34
4.89
6.07
6.84
7.20
7.29
7.33
7.48
7.80
8.20
8.49
8.50
8.15
7.52
6.80
6.23
6.01
6.21
6.77
7.41
7.83
7.79
7.27
6.39
5.40
4.51
3.80
3.22
2.63
1.92
1.04
-0.01
-1.16
-2.33
-3.45
-4.45
-5.28
-5.94
-6.48
-7.03
-7.74
-8.81
-10.38
-12.51
-15.05
-17.61
-19.64
-20.52
-19.90
-17.73
-14.40
-10.48
-6.59
-3.10
-0.11
2.50
4.84
6.94
8.69
9.95
10.65
10.84
10.70
10.42
10.14
9.89
9.65
9.44
9.33
9.37
9.62
10.00
10.36
10.51
10.33
9.81
9.04
8.15
7.26
6.41
5.63
4.89
4.15
3.40
2.62
1.80
1.02
0.33
-0.19
-0.57
-0.97
-1.68
-3.01
-5.11
-7.92
-11.04
-13.90
-15.87
-16.48
-15.54
-13.18
-9.83
-6.03
-2.30
0.95
3.53
5.38
6.57
7.21
7.43
7.41
7.31
7.29
7.38
7.57
7.73
7.74
7.56
7.21
6.79
6.37
6.02
5.75
5.56
5.43
5.31
5.10
4.73
4.15
3.37
2.51
1.64
0.83
0.05
-0.78
-1.71
-2.78
-3.91
-5.06
-6.20
-7.35
-8.57
-9.88
-11.38
-13.15
-15.33
-17.95
-20.87
-23.57
-25.40
-25.65
-23.93
-20.37
-15.55
-10.32
-5.47
-1.51
1.43
3.52
5.03
6.24
7.27
8.17
8.87
9.31
9.41
9.17
8.66
7.95
7.20
6.53
6.01
5.68
5.52
5.46
5.45
5.45
5.45
5.46
5.46
5.46
5.37
5.14
4.72
4.10
3.27
2.24
1.09
-0.17
-1.45
-2.74
-4.05
-5.44
-7.01
-8.84
-10.93
-13.16
-15.24
-16.83
-17.57
-17.31
-16.00
-13.80
-10.93
-7.64
-4.14
-0.60
2.80
5.88
8.52
10.66
12.38
13.85
15.30
16.91
18.74
20.71
22.62
24.21
25.24
25.58
25.29
24.67
24.24
24.67
26.47
29.78
34.23
38.95
42.84
44.92
44.65
42.02
37.42
31.43
24.62
17.47
10.44
3.97
-1.49
-5.62
-8.40
-10.16
-11.50
-13.08
-15.37
-18.42
-21.83
-24.87
-26.68
-26.64
-24.56
-20.77
-16.01
-11.14
-6.89
-3.62
-1.32
0.27
1.39
2.18
2.59
2.48
1.73
0.39
-1.34
-3.16
-4.77
-5.98
-6.76
-7.19
-7.43
-7.55
-7.56
-7.31
-6.74
-5.80
-4.62
-3.45
-2.50
-1.92
-1.70
-1.73
-1.92
-2.22
-2.66
-3.21
-3.79
-4.25
-4.48
-4.55
-4.72
-5.41
-6.94
-9.36
-12.34
-15.29
-17.55
-18.66
-18.49
-17.27
-15.37
-13.17
-10.97
-8.88
-7.01
-5.40
-4.17
-3.35
-2.89
-2.64
-2.34
-1.82
-0.96
0.18
1.47
2.73
3.77
4.47
4.80
4.84
4.76
4.76
5.02
5.60
6.44
7.37
8.13
8.55
8.46
7.81
6.59
4.84
2.66
0.19
-2.40
-4.92
-7.27
-9.45
-11.63
-14.09
-17.09
-20.70
-24.69
-28.46
-31.23
-32.27
-31.23
-28.29
-24.04
-19.31
-14.84
-11.06
-8.07
-5.75
-3.91
-2.45
-1.28
-0.34
0.43
1.17
1.94
2.77
3.60
4.32
4.87
5.22
5.46
5.67
5.89
6.09
6.17
6.03
5.63
5.04
4.35
3.64
2.88
2.01
0.96
-0.26
-1.49
-2.49
-3.05
-3.11
-2.78
-2.29
-1.95
-2.06
-2.88
-4.55
-7.02
-10.02
-13.02
-15.37
-16.53
-16.20
-14.43
-11.55
-7.97
-4.10
-0.20
3.52
6.87
9.67
11.77
13.14
13.89
14.23
14.34
14.36
14.28
14.02
13.54
12.84
12.06
11.33
10.81
10.57
10.61
10.83
11.02
10.99
10.57
9.70
8.43
6.92
5.37
3.99
2.85
1.93
1.10
0.14
-1.19
-3.15
-5.92
-9.52
-13.70
-17.92
-21.44
-23.51
-23.70
-21.99
-18.78
-14.71
-10.40
-6.29
-2.62
0.57
3.26
5.42
7.04
8.14
8.88
9.43
9.97
10.56
11.16
11.61
11.73
11.42
10.68
9.67
8.59
7.63
6.94
6.48
6.17
5.90
5.52
4.97
4.18
3.14
1.88
0.47
-0.97
-2.33
-3.53
-4.57
-5.56
-6.62
-7.90
-9.54
-11.64
-14.28
-17.39
-20.73
-23.76
-25.79
-26.12
-24.36
-20.59
-15.38
-9.59
-4.03
0.74
4.57
7.56
9.93
11.86
13.40
14.50
15.12
15.25
15.00
14.53
13.97
13.43
12.92
12.41
11.88
11.32
10.73
10.14
9.53
8.87
8.14
7.31
6.39
5.41
4.35
3.22
1.98
0.68
-0.64
-1.91
-3.12
-4.28
-5.48
-6.76
-8.12
-9.54
-11.03
-12.71
-14.81
-17.50
-20.67
-23.87
-26.35
-27.24
-26.00
-22.58
-17.49
-11.53
-5.55
-0.14
4.40
8.05
10.87
12.92
14.22
14.84
14.85
14.41
13.69
12.88
12.10
11.43
10.86
10.31
9.73
9.12
8.58
8.22
8.13
8.24
8.34
8.15
7.48
6.30
4.75
3.12
1.66
0.50
-0.36
-1.07
-1.81
-2.73
-3.92
-5.38
-7.01
-8.68
-10.29
-11.84
-13.41
-15.18
-17.29
-19.77
-22.42
-24.83
-26.45
-26.70
-25.23
-22.00
-17.32
-11.79
-6.13
-0.93
3.44
6.92
9.64
11.83
13.62
15.04
16.03
16.48
16.41
15.92
15.25
14.58
14.04
13.61
13.20
12.73
12.17
11.62
11.21
11.08
11.23
11.61
12.00
12.23
12.11
11.54
10.53
9.12
7.40
5.49
3.47
1.44
-0.51
-2.32
-4.04
-5.81
-7.83
-10.25
-13.10
-16.13
-18.91
-20.90
-21.59
-20.75
-18.44
-15.00
-10.95
-6.78
-2.83
0.80
4.13
7.23
10.08
12.56
14.48
15.68
16.13
15.93
15.28
14.41
13.51
12.68
11.94
11.27
10.62
10.01
9.44
8.98
8.63
8.36
8.04
7.54
6.81
5.86
4.84
3.86
2.98
2.11
1.13
-0.09
-1.55
-3.12
-4.63
-5.90
-6.93
-7.81
-8.76
-10.04
-11.88
-14.39
-17.54
-21.07
-24.50
-27.25
-28.74
-28.55
-26.61
-23.13
-18.62
-13.62
-8.68
-4.12
-0.12
3.31
6.18
8.49
10.24
11.42
12.09
12.31
12.17
11.71
10.96
9.96
8.78
7.61
6.64
6.09
6.03
6.47
7.25
8.15
8.91
9.35
9.33
8.83
7.93
6.79
5.61
4.52
3.56
2.66
1.70
0.57
-0.78
-2.30
-3.82
-5.18
-6.29
-7.13
-7.83
-8.67
-10.00
-12.09
-15.03
-18.65
-22.43
-25.59
-27.39
-27.25
-25.07
-21.17
-16.20
-10.89
-5.88
-1.56
1.91
4.54
6.42
7.66
8.37
8.67
8.72
8.69
8.74
8.94
9.34
9.83
10.31
10.66
10.82
10.78
10.62
10.45
10.34
10.33
10.40
10.50
10.53
10.43
10.16
9.73
9.17
8.46
7.55
6.32
4.73
2.81
0.74
-1.20
-2.80
-3.92
-4.61
-5.09
-5.63
-6.50
-7.91
-9.96
-12.54
-15.34
-17.91
-19.71
-20.27
-19.35
-17.02
-13.59
-9.53
-5.30
-1.25
2.39
5.55
8.22
10.38
12.03
13.19
13.87
14.11
13.99
13.60
13.04
12.40
11.78
11.23
10.77
10.38
10.04
9.76
9.56
9.49
9.52
9.57
9.46
9.00
8.15
6.99
5.73
4.57
3.59
2.72
1.76
0.56
-0.91
-2.57
-4.25
-5.80
-7.17
-8.39
-9.60
-10.97
-12.71
-14.97
-17.78
-20.94
-24.00
-26.31
-27.23
-26.40
-23.84
-19.92
-15.26
-10.48
-6.06
-2.31
0.65
2.80
4.24
5.17
5.85
6.54
7.43
8.51
9.61
10.47
10.85
10.71
10.19
9.61
9.26
9.34
9.82
10.51
11.08
11.24
10.80
9.79
8.36
6.76
5.22
3.83
2.58
1.36
0.02
-1.50
-3.21
-5.03
-6.85
-8.53
-9.98
-11.14
-12.11
-13.07
-14.34
-16.18
-18.67
-21.56
-24.30
-26.15
-26.49
-24.99
-21.77
-17.38
-12.55
-8.01
-4.23
-1.32
0.87
2.64
4.24
5.76
7.12
8.18
8.81
9.06
9.03
8.86
8.65
8.39
8.04
7.58
7.06
6.57
6.23
6.09
6.13
6.27
6.46
6.63
6.75
6.79
6.64
6.23
5.48
4.43
3.20
1.95
0.80
-0.17
-1.05
-1.94
-3.04
-4.50
-6.42
-8.70
-11.07
-13.13
-14.35
-14.36
-12.92
-10.12
-6.25
-1.75
2.87
7.10
10.53
12.88
14.12
14.42
14.12
13.63
13.24
13.06
13.02
13.00
12.85
12.52
12.00
11.37
10.68
10.02
9.43
8.97
8.60
8.23
7.66
6.72
5.40
3.78
2.10
0.57
-0.72
-1.84
-2.97
-4.27
-5.84
-7.69
-9.82
-12.24
-14.91
-17.60
-19.85
-21.01
-20.52
-18.15
-14.24
-9.50
-4.78
-0.72
2.44
4.81
6.61
7.98
8.88
9.22
8.97
8.29
7.51
6.92
6.73
6.87
7.11
7.19
6.99
6.57
6.11
5.83
5.79
5.89
5.83
5.34
4.19
2.42
0.23
-2.02
-4.03
-5.61
-6.78
-7.75
-8.78
-10.20
-12.20
-14.91
-18.20
-21.67
-24.74
-26.65
-26.81
-24.95
-21.24
-16.29
-10.87
-5.68
-1.19
2.40
5.05
6.80
7.73
8.04
8.01
7.99
8.21
8.75
9.48
10.13
10.49
10.46
10.11
9.62
9.18
8.96
9.01
9.26
9.55
9.63
9.24
8.25
6.64
4.60
2.45
0.46
-1.21
-2.59
-3.87
-5.33
-7.18
-9.57
-12.50
-15.74
-18.94
-21.55
-23.00
-22.86
-20.95
-17.44
-12.80
-7.66
-2.63
1.81
5.40
8.07
9.89
10.98
11.47
11.53
11.27
10.80
10.25
9.73
9.31
8.98
8.66
8.25
7.66
6.89
6.04
5.22
4.49
3.84
3.15
2.34
1.35
0.25
-0.86
-1.87
-2.76
-3.60
-4.55
-5.84
-7.63
-9.97
-12.70
-15.42
-17.58
-18.63
-18.20
-16.21
-12.92
-8.83
-4.53
-0.54
2.79
5.33
7.13
8.36
9.19
9.78
10.15
10.30
10.16
9.74
9.12
8.43
7.82
7.40
7.21
7.25
7.47
7.76
7.99
7.97
7.50
6.50
4.99
3.17
1.35
-0.21
-1.34
-2.18
-3.07
-4.41
-6.54
-9.39
-12.51
-15.12
-16.43
-15.91
-13.55
-9.84
-5.55
-1.40
2.13
4.87
6.92
8.41
9.47
10.20
10.67
10.98
11.19
11.32
11.27
10.87
9.98
8.61
6.93
5.23
3.82
2.89
2.43
2.31
2.23
1.87
1.00
-0.44
-2.27
-4.17
-5.79
-6.92
-7.61
-8.10
-8.76
-9.91
-11.72
-14.09
-16.72
-19.12
-20.71
-21.00
-19.66
-16.63
-12.19
-6.85
-1.15
4.45
9.65
14.32
18.36
21.62
23.95
25.22
25.40
24.66
23.28
21.62
20.01
18.62
17.45
16.39
15.25
13.96
12.57
11.28
10.31
9.77
9.60
9.49
9.09
8.10
6.44
4.21
1.64
-1.01
-3.61
-6.09
-8.47
-10.79
-13.11
-15.45
-17.83
-20.14
-22.15
-23.45
-23.61
-22.34
-19.62
-15.76
-11.30
-6.80
-2.66
0.93
3.92
6.30
8.00
8.96
9.19
8.83
8.13
7.32
6.55
5.81
5.08
4.33
3.66
3.22
3.14
3.45
4.05
4.77
5.39
5.81
6.03
6.09
6.07
6.02
5.88
5.60
5.04
4.13
2.78
0.98
-1.22
-3.65
-6.10
-8.35
-10.29
-11.91
-13.32
-14.69
-16.19
-17.91
-19.93
-22.23
-24.61
-26.71
-27.92
-27.65
-25.54
-21.65
-16.50
-10.90
-5.65
-1.20
2.35
5.25
7.86
10.45
13.06
15.59
17.83
19.60
20.77
21.26
21.09
20.32
19.09
17.68
16.44
15.67
15.62
16.23
17.20
17.99
18.06
17.02
14.83
11.80
8.51
5.57
3.50
2.54
2.61
3.35
4.28
4.89
4.81
3.91
2.28
0.18
-2.01
-3.97
-5.45
-6.37
-6.74
-6.68
-6.34
-5.87
-5.45
-5.25
-5.42
-6.07
-7.25
-8.92
-11.01
-13.37
-15.91
-18.55
-21.20
-23.73
-25.88
-27.30
-27.63
-26.66
-24.41
-21.18
-17.43
-13.70
-10.39
-7.64
-5.34
-3.22
-1.00
1.44
3.99
6.42
8.47
10.03
11.16
12.03
12.78
13.40
13.77
13.75
13.40
13.00
12.97
13.70
15.27
17.44
19.73
21.67
22.92
23.47
23.48
23.11
22.47
21.50
20.11
18.24
15.97
13.46
10.94
8.60
6.53
4.85
3.62
2.85
2.49
2.26
1.74
0.48
-1.84
-5.20
-9.26
-13.42
-17.08
-19.76
-21.19
-21.31
-20.24
-18.21
-15.60
-12.87
-10.44
-8.63
-7.48
-6.84
-6.45
-6.05
-5.50
-4.78
-3.90
-2.84
-1.55
0.04
1.87
3.79
5.63
7.19
8.37
9.15
9.55
9.60
9.30
8.67
7.76
6.66
5.56
4.58
3.84
3.34
3.02
2.81
2.65
2.52
2.44
2.42
2.50
2.63
2.72
2.56
1.83
0.18
-2.69
-6.87
-12.14
-17.97
-23.54
-27.96
-30.45
-30.55
-28.21
-23.82
-18.06
-11.78
-5.78
-0.65
3.30
6.03
7.67
8.47
8.68
8.46
7.94
7.17
6.21
5.11
3.99
2.92
2.01
1.33
0.89
0.70
0.72
0.92
1.22
1.52
1.73
1.78
1.66
1.46
1.33
1.37
1.62
2.00
2.35
2.47
2.26
1.65
0.70
-0.45
-1.66
-2.82
-3.96
-5.30
-7.17
-9.96
-13.79
-18.42
-23.16
-27.05
-29.22
-29.11
-26.69
-22.38
-16.83
-10.72
-4.60
1.15
6.25
10.50
13.82
16.20
17.73
18.48
18.57
18.02
16.90
15.27
13.26
11.07
8.93
7.09
5.73
4.97
4.73
4.89
5.15
5.21
4.86
4.00
2.70
1.19
-0.23
-1.32
-2.01
-2.42
-2.85
-3.64
-4.96
-6.76
-8.72
-10.41
-11.51
-11.92
-11.87
-11.75
-12.04
-13.09
-14.94
-17.31
-19.61
-21.09
-21.14
-19.41
-16.00
-11.35
-6.06
-0.72
4.21
8.41
11.68
13.80
14.68
14.42
13.34
11.96
10.79
10.18
10.20
10.64
11.16
11.43
11.24
10.58
9.55
8.35
7.15
6.06
5.13
4.33
3.61
2.89
2.13
1.29
0.34
-0.71
-1.85
-3.00
-4.08
-4.98
-5.66
-6.20
-6.79
-7.73
-9.23
-11.29
-13.66
-15.81
-17.18
-17.36
-16.25
-14.08
-11.28
-8.25
-5.29
-2.52
0.03
2.29
4.15
5.47
6.20
6.39
6.23
5.93
5.73
5.71
5.90
6.22
6.57
6.85
6.92
6.71
6.18
5.32
4.22
3.05
1.98
1.15
0.62
0.32
0.09
-0.28
-0.94
-1.90
-3.07
-4.19
-5.08
-5.65
-5.98
-6.32
-7.03
-8.40
-10.59
-13.45
-16.51
-19.06
-20.32
-19.77
-17.32
-13.43
-8.93
-4.63
-1.12
1.45
3.29
4.71
5.98
7.17
8.24
9.10
9.67
9.96
9.97
9.71
9.18
8.35
7.23
5.85
4.31
2.78
1.44
0.43
-0.23
-0.58
-0.80
-1.05
-1.47
-2.13
-3.12
-4.49
-6.24
-8.31
-10.49
-12.50
-14.12
-15.26
-16.05
-16.79
-17.80
-19.36
-21.54
-24.25
-27.23
-30.08
-32.35
-33.60
-33.45
-31.73
-28.47
-24.05
-19.06
-14.17
-9.94
-6.69
-4.44
-2.90
-1.69
-0.40
1.26
3.44
6.18
9.44
13.11
17.04
21.00
24.74
28.02
30.63
32.43
33.38
33.53
33.03
32.08
30.90
29.61
28.28
26.91
25.45
23.83
22.00
19.90
17.46
14.65
11.49
8.09
4.60
1.19
-2.02
-5.05
-8.04
-11.24
-14.87
-19.00
-23.41
-27.49
-30.43
-31.45
-30.09
-26.45
-21.18
-15.24
-9.58
-4.79
-1.08
1.74
4.00
5.98
7.83
9.49
10.84
11.73
12.07
11.84
11.16
10.19
9.18
8.41
8.14
8.59
9.82
11.79
14.25
16.92
19.49
21.76
23.57
24.80
25.36
25.11
23.97
21.95
19.20
15.88
12.17
8.19
4.01
-0.31
-4.62
-8.72
-12.39
-15.47
-17.81
-19.27
-19.71
-18.99
-17.10
-14.25
-10.85
-7.41
-4.33
-1.81
0.15
1.70
2.96
3.95
4.63
5.00
5.18
5.43
6.06
7.29
9.15
11.43
13.81
15.91
17.40
18.06
17.86
16.87
15.28
13.31
11.17
9.03
7.05
5.29
3.84
2.74
2.02
1.74
1.86
2.28
2.80
3.17
3.19
2.69
1.67
0.18
-1.63
-3.64
-5.78
-8.11
-10.75
-13.77
-17.04
-20.18
-22.65
-23.89
-23.53
-21.59
-18.43
-14.64
-10.81
-7.35
-4.43
-2.03
-0.04
1.63
3.04
4.25
5.30
6.28
7.20
8.04
8.72
9.17
9.35
9.29
9.09
8.88
8.82
8.98
9.40
9.98
10.59
11.01
11.06
10.63
9.73
8.49
7.04
5.51
3.96
2.38
0.76
-0.90
-2.55
-4.12
-5.52
-6.68
-7.54
-8.12
-8.48
-8.74
-9.06
-9.68
-10.79
-12.49
-14.69
-17.10
-19.22
-20.59
-20.77
-19.60
-17.14
-13.71
-9.75
-5.74
-2.09
0.95
3.30
5.03
6.30
7.26
8.01
8.52
8.77
8.74
8.55
8.39
8.48
8.93
9.72
10.71
11.75
12.65
13.32
13.64
13.47
12.64
11.07
8.84
6.20
3.44
0.85
-1.48
-3.60
-5.60
-7.46
-9.02
-10.08
-10.56
-10.62
-10.61
-10.98
-12.12
-14.22
-17.29
-21.12
-25.35
-29.40
-32.64
-34.41
-34.28
-32.21
-28.50
-23.80
-18.79
-14.03
-9.83
-6.28
-3.31
-0.86
1.09
2.53
3.46
3.95
4.09
4.05
3.95
3.91
3.94
4.03
4.19
4.43
4.74
5.06
5.26
5.17
4.71
3.88
2.82
1.69
0.62
-0.37
-1.35
-2.42
-3.66
-5.05
-6.47
-7.76
-8.76
-9.36
-9.50
-9.20
-8.54
-7.72
-7.04
-6.79
-7.16
-8.11
-9.29
-10.12
-10.03
-8.64
-5.93
-2.26
1.79
5.67
9.00
11.67
13.73
15.33
16.53
17.32
17.61
17.31
16.38
14.94
13.17
11.32
9.60
8.17
7.12
6.48
6.25
6.38
6.79
7.35
7.90
8.34
8.58
8.64
8.54
8.33
8.02
7.63
7.16
6.62
5.99
5.23
4.29
3.10
1.68
0.10
-1.59
-3.32
-5.16
-7.21
-9.60
-12.36
-15.27
-17.90
-19.70
-20.19
-19.17
-16.83
-13.70
-10.42
-7.50
-5.18
-3.40
-1.91
-0.48
1.04
2.61
4.16
5.54
6.73
7.76
8.68
9.55
10.39
11.22
12.01
12.76
13.50
14.28
15.17
16.16
17.16
17.93
18.16
17.62
16.20
14.00
11.27
8.33
5.49
2.97
0.86
-0.83
-2.24
-3.59
-5.23
-7.51
-10.68
-14.72
-19.22
-23.45
-26.58
-27.93
-27.21
-24.60
-20.61
-15.89
-11.02
-6.43
-2.34
1.07
3.69
5.48
6.45
6.80
6.81
6.85
7.25
8.23
9.86
12.05
14.53
17.03
19.21
20.84
21.74
21.90
21.41
20.46
19.31
18.21
17.33
16.74
16.43
16.30
16.21
16.01
15.56
14.75
13.53
11.92
9.99
7.84
5.56
3.24
0.95
-1.23
-3.22
-5.00
-6.69
-8.51
-10.74
-13.56
-16.97
-20.68
-24.18
-26.88
-28.24
-27.98
-26.10
-22.89
-18.82
-14.43
-10.14
-6.22
-2.77
0.24
2.85
5.10
7.00
8.55
9.74
10.58
11.10
11.36
11.41
11.36
11.29
11.25
11.26
11.30
11.36
11.40
11.46
11.51
11.52
11.42
11.07
10.38
9.34
8.05
6.64
5.26
3.98
2.82
1.79
0.89
0.15
-0.46
-1.03
-1.70
-2.58
-3.70
-4.99
-6.31
-7.58
-8.75
-9.89
-11.14
-12.61
-14.38
-16.49
-18.82
-21.11
-22.94
-23.85
-23.49
-21.77
-18.93
-15.41
-11.69
-8.17
-5.07
-2.50
-0.49
1.00
2.06
2.82
3.46
4.05
4.60
5.05
5.37
5.55
5.70
5.94
6.30
6.77
7.23
7.63
7.90
8.08
8.21
8.34
8.47
8.60
8.68
8.63
8.44
8.11
7.74
7.42
7.24
7.21
7.26
7.23
6.98
6.42
5.54
4.38
3.03
1.56
0.01
-1.64
-3.41
-5.37
-7.63
-10.24
-13.15
-16.05
-18.47
-19.82
-19.72
-18.15
-15.47
-12.30
-9.17
-6.40
-3.94
-1.64
0.62
2.76
4.61
6.01
6.96
7.59
8.05
8.46
8.80
9.06
9.26
9.51
9.87
10.34
10.80
11.08
11.13
11.02
10.91
10.87
10.84
10.58
9.84
8.46
6.54
4.37
2.38
0.92
0.15
0.04
0.33
0.67
0.75
0.37
-0.49
-1.66
-2.91
-4.05
-5.00
-5.81
-6.63
-7.65
-9.02
-10.86
-13.22
-16.02
-18.94
-21.49
-23.10
-23.27
-21.78
-18.81
-14.87
-10.64
-6.69
-3.38
-0.81
1.14
2.65
3.88
4.91
5.81
6.59
7.26
7.84
8.26
8.44
8.28
7.71
6.81
5.76
4.86
4.36
4.42
4.99
5.88
6.80
7.43
7.61
7.29
6.63
5.83
5.12
4.58
4.15
3.64
2.84
1.61
-0.01
-1.78
-3.45
-4.78
-5.74
-6.46
-7.14
-7.91
-8.79
-9.70
-10.62
-11.62
-12.87
-14.48
-16.36
-18.16
-19.34
-19.44
-18.28
-16.05
-13.22
-10.31
-7.66
-5.32
-3.13
-0.84
1.68
4.38
7.03
9.37
11.14
12.23
12.68
12.62
12.30
11.92
11.63
11.53
11.64
11.90
12.25
12.59
12.79
12.76
12.43
11.78
10.89
9.88
8.89
7.95
6.99
5.90
4.52
2.80
0.84
-1.14
-2.95
-4.43
-5.58
-6.54
-7.52
-8.71
-10.17
-11.85
-13.52
-14.84
-15.44
-15.03
-13.49
-10.97
-7.80
-4.40
-1.16
1.67
3.98
5.73
6.92
7.53
7.66
7.50
7.28
7.25
7.48
7.85
8.16
8.23
8.00
7.55
7.02
6.49
5.98
5.43
4.80
4.13
3.45
2.79
2.12
1.43
0.75
0.20
-0.08
-0.03
0.28
0.67
0.90
0.77
0.21
-0.80
-2.17
-3.83
-5.72
-7.79
-9.97
-12.22
-14.52
-16.84
-19.06
-20.89
-22.01
-22.07
-20.95
-18.75
-15.91
-12.98
-10.42
-8.43
-6.92
-5.63
-4.29
-2.79
-1.21
0.30
1.63
2.77
3.79
4.73
5.55
6.09
6.20
5.86
5.22
4.59
4.24
4.30
4.63
4.96
4.98
4.49
3.51
2.16
0.67
-0.83
-2.23
-3.55
-4.84
-6.17
-7.69
-9.52
-11.80
-14.60
-17.80
-21.14
-24.09
-26.08
-26.58
-25.33
-22.42
-18.25
-13.44
-8.59
-4.15
-0.36
2.78
5.33
7.41
9.11
10.52
11.73
12.84
13.97
15.16
16.47
17.89
19.41
21.02
22.70
24.41
26.10
27.69
29.10
30.26
31.11
31.67
31.94
31.98
31.83
31.50
31.05
30.45
29.72
28.88
27.91
26.76
25.36
23.65
21.58
19.19
16.60
13.95
11.38
8.98
6.77
4.71
2.73
0.74
-1.38
-3.86
-6.89
-10.54
-14.60
-18.54
-21.66
-23.32
-23.21
-21.47
-18.65
-15.44
-12.43
-9.99
-8.16
-6.84
-5.90
-5.28
-5.02
-5.15
-5.64
-6.34
-7.13
-7.81
-8.33
-8.63
-8.79
-8.89
-9.05
-9.45
-10.27
-11.63
-13.51
-15.76
-18.09
-20.24
-22.05
-23.51
-24.76
-25.92
-27.07
-28.20
-29.22
-30.07
-30.62
-30.66
-29.93
-28.14
-25.19
-21.23
-16.75
-12.43
-8.91
-6.54
-5.36
-5.02
-4.94
-4.47
-3.06
-0.36
3.66
8.64
14.01
19.10
23.39
26.69
29.13
31.02
32.62
33.99
34.94
35.18
34.49
32.85
30.46
27.71
25.01
22.73
21.15
20.36
20.36
20.97
21.91
22.84
23.40
23.39
22.75
21.62
20.23
18.84
17.56
16.33
14.94
13.10
10.60
7.43
3.79
-0.06
-3.92
-7.74
-11.61
-15.71
-20.17
-25.06
-30.34
-35.93
-41.65
-47.21
-52.21
-56.10
-58.43
-58.95
-57.75
-55.23
-51.89
-48.08
-43.97
-39.47
-34.41
-28.75
-22.58
-16.19
-9.91
-4.07
1.11
5.52
9.15
12.04
14.21
15.71
16.62
17.04
17.10
16.91
16.50
15.82
14.79
13.38
11.64
9.79
8.06
6.61
5.42
4.31
3.01
1.34
-0.77
-3.24
-5.95
-8.80
-11.73
-14.64
-17.35
-19.54
-20.77
-20.60
-18.71
-15.04
-9.80
-3.41
3.56
10.51
16.99
22.65
27.31
30.86
33.13
33.90
32.99
30.37
26.33
21.43
16.44
12.10
8.92
7.05
6.40
6.65
7.42
8.31
9.00
9.25
8.90
7.98
6.62
5.03
3.45
2.00
0.75
-0.31
-1.21
-1.93
-2.50
-2.91
-3.17
-3.32
-3.41
-3.57
-4.00
-4.92
-6.51
-8.78
-11.50
-14.21
-16.29
-17.17
-16.49
-14.26
-10.85
-6.85
-2.99
0.19
2.36
3.50
3.86
3.80
3.72
3.90
4.48
5.40
6.52
7.60
8.43
8.95
9.20
9.42
9.86
10.68
11.84
13.13
14.21
14.84
14.87
14.34
13.43
12.26
10.96
9.51
7.89
6.08
4.09
1.98
-0.17
-2.24
-4.21
-6.06
-7.90
-9.92
-12.29
-15.15
-18.45
-21.94
-25.13
-27.42
-28.25
-27.29
-24.59
-20.61
-16.00
-11.46
-7.46
-4.15
-1.39
1.04
3.31
5.40
7.15
8.39
9.06
9.24
9.15
8.96
8.77
8.56
8.30
7.98
7.70
7.58
7.71
8.10
8.70
9.39
10.04
10.50
10.60
10.20
9.14
7.40
5.11
2.55
0.03
-2.15
-3.87
-5.24
-6.53
-8.08
-10.18
-12.92
-16.11
-19.31
-21.89
-23.26
-23.08
-21.31
-18.27
-14.43
-10.28
-6.24
-2.58
0.56
3.14
5.16
6.66
7.72
8.40
8.72
8.71
8.41
7.86
7.22
6.64
6.23
6.02
5.98
6.06
6.17
6.28
6.38
6.39
6.28
5.98
5.45
4.70
3.72
2.57
1.27
-0.13
-1.54
-2.89
-4.07
-5.01
-5.63
-5.96
-6.11
-6.28
-6.76
-7.86
-9.80
-12.61
-16.06
-19.63
-22.62
-24.30
-24.22
-22.36
-19.07
-15.05
-11.00
-7.43
-4.50
-2.11
-0.04
1.91
3.77
5.46
6.87
7.96
8.80
9.50
10.15
10.75
11.22
11.46
11.46
11.29
11.06
10.88
10.78
10.68
10.45
10.00
9.31
8.48
7.60
6.79
6.06
5.32
4.49
3.47
2.24
0.88
-0.48
-1.75
-2.88
-3.86
-4.72
-5.56
-6.48
-7.63
-9.14
-11.11
-13.52
-16.13
-18.48
-20.00
-20.24
-18.98
-16.38
-12.86
-9.05
-5.50
-2.58
-0.38
1.26
2.65
4.10
5.79
7.69
9.60
11.23
12.38
12.96
13.02
12.77
12.42
12.15
12.04
12.11
12.36
12.71
13.07
13.29
13.22
12.79
12.08
11.30
10.74
10.61
10.91
11.42
11.76
11.55
10.54
8.66
6.03
2.91
-0.45
-3.76
-6.82
-9.48
-11.71
-13.61
-15.30
-16.84
-18.19
-19.19
-19.59
-19.23
-18.13
-16.43
-14.38
-12.17
-9.91
-7.51
-4.91
-2.00
1.15
4.34
7.28
9.70
11.42
12.38
12.67
12.37
11.64
10.63
9.50
8.42
7.57
7.07
6.95
7.16
7.54
7.86
7.90
7.47
6.51
5.10
3.52
2.07
0.97
0.20
-0.51
-1.53
-3.14
-5.33
-7.75
-9.91
-11.43
-12.17
-12.29
-12.09
-11.80
-11.60
-11.54
-11.74
-12.35
-13.45
-14.86
-16.12
-16.58
-15.73
-13.42
-10.02
-6.14
-2.43
0.77
3.49
5.91
8.25
10.50
12.49
14.01
14.97
15.42
15.57
15.64
15.73
15.83
15.85
15.67
15.28
14.73
14.10
13.46
12.78
11.97
10.89
9.44
7.61
5.52
3.34
1.27
-0.54
-2.07
-3.43
-4.68
-5.90
-6.99
-7.77
-8.02
-7.61
-6.57
-5.10
-3.54
-2.26
-1.60
-1.82
-3.09
-5.42
-8.66
-12.48
-16.31
-19.52
-21.51
-21.94
-20.82
-18.46
-15.32
-11.86
-8.30
-4.69
-0.99
2.76
6.36
9.50
11.79
12.95
12.87
11.64
9.52
6.86
4.06
1.47
-0.64
-2.10
-2.94
-3.29
-3.33
-3.19
-2.92
-2.48
-1.78
-0.79
0.44
1.77
2.97
3.82
4.13
3.78
2.76
1.22
-0.57
-2.25
-3.52
-4.24
-4.58
-4.93
-5.74
-7.30
-9.58
-12.18
-14.49
-15.96
-16.28
-15.41
-13.58
-11.12
-8.29
-5.33
-2.38
0.36
2.71
4.51
5.64
6.14
6.13
5.84
5.46
5.20
5.14
5.34
5.75
6.29
6.85
7.28
7.43
7.18
6.47
5.31
3.82
2.19
0.64
-0.69
-1.69
-2.29
-2.41
-1.98
-0.97
0.47
1.99
3.14
3.47
2.76
1.05
-1.47
-4.53
-7.90
-11.43
-14.86
-17.82
-19.77
-20.27
-19.08
-16.32
-12.46
-8.16
-4.03
-0.53
2.18
4.13
5.48
6.45
7.22
7.86
8.37
8.66
8.66
8.36
7.90
7.45
7.23
7.32
7.64
8.04
8.34
8.45
8.45
8.48
8.71
9.21
9.95
10.85
11.84
12.88
13.94
14.91
15.54
15.48
14.44
12.30
9.20
5.58
1.94
-1.28
-3.92
-6.11
-8.17
-10.36
-12.73
-15.00
-16.63
-17.04
-15.88
-13.21
-9.47
-5.35
-1.49
1.63
3.85
5.22
5.85
5.85
5.28
4.22
2.86
1.50
0.46
-0.00
0.17
0.80
1.63
2.40
2.95
3.26
3.36
3.30
3.14
2.92
2.76
2.76
3.03
3.56
4.22
4.83
5.23
5.42
5.56
5.80
6.30
7.06
7.94
8.74
9.21
9.10
8.13
6.11
2.96
-1.18
-5.83
-10.33
-13.87
-15.83
-15.93
-14.38
-11.79
-8.89
-6.31
-4.34
-2.94
-1.80
-0.54
1.07
3.17
5.64
8.33
11.01
13.44
15.36
16.57
16.90
16.30
14.92
13.02
10.98
9.12
7.59
6.37
5.32
4.26
3.16
2.07
1.13
0.44
-0.04
-0.41
-0.83
-1.41
-2.18
-3.08
-4.10
-5.21
-6.41
-7.69
-8.97
-10.21
-11.48
-12.91
-14.66
-16.82
-19.23
-21.58
-23.40
-24.26
-23.90
-22.32
-19.75
-16.59
-13.32
-10.38
-8.00
-6.22
-4.86
-3.65
-2.36
-0.93
0.54
1.87
3.00
3.95
4.86
5.85
6.93
8.05
9.12
10.10
11.02
11.89
12.61
13.06
13.07
12.62
11.87
11.04
10.37
9.91
9.58
9.17
8.43
7.23
5.55
3.49
1.18
-1.23
-3.63
-5.92
-8.11
-10.31
-12.78
-15.80
-19.55
-23.81
-27.92
-30.91
-31.75
-29.81
-25.18
-18.57
-11.12
-3.87
2.42
7.46
11.28
14.02
15.88
17.02
17.59
17.70
17.39
16.65
15.48
13.99
12.45
11.19
10.49
10.42
10.79
11.35
11.88
12.28
12.55
12.69
12.51
11.73
10.01
7.14
3.17
-1.65
-6.92
-12.21
-17.18
-21.59
-25.30
-28.22
-30.24
-31.34
-31.54
-31.05
-30.19
-29.34
-28.75
-28.46
-28.20
-27.57
-26.14
-23.66
-20.24
-16.17
-11.86
-7.61
-3.55
0.34
4.14
7.81
11.20
14.12
16.40
17.99
18.98
19.50
19.67
19.61
19.43
19.25
19.17
19.20
19.18
18.88
18.04
16.53
14.41
11.91
9.32
6.88
4.69
2.78
1.08
-0.46
-1.86
-3.09
-4.11
-4.94
-5.61
-6.19
-6.81
-7.64
-8.93
-10.94
-13.87
-17.72
-22.16
-26.55
-30.05
-31.85
-31.49
-28.93
-24.61
-19.25
-13.64
-8.40
-3.95
-0.48
1.97
3.47
4.18
4.38
4.42
4.62
5.19
6.09
7.10
7.94
8.43
8.62
8.71
8.91
9.33
9.88
10.44
10.89
11.28
11.68
12.18
12.69
13.00
12.89
12.23
11.11
9.75
8.40
7.19
6.08
4.93
3.60
2.00
0.12
-2.01
-4.40
-7.07
-9.99
-12.97
-15.62
-17.41
-17.85
-16.69
-14.02
-10.27
-6.08
-2.06
1.33
3.90
5.67
6.78
7.43
7.79
8.00
8.15
8.27
8.39
8.50
8.59
8.73
8.98
9.40
10.03
10.78
11.45
11.84
11.74
11.16
10.25
9.28
8.53
8.17
8.12
8.18
8.04
7.49
6.53
5.29
4.01
2.88
2.01
1.39
0.95
0.53
-0.10
-1.18
-2.94
-5.38
-8.23
-10.92
-12.85
-13.52
-12.76
-10.76
-7.92
-4.66
-1.38
1.69
4.37
6.57
8.22
9.34
10.01
10.30
10.29
10.00
9.48
8.82
8.17
7.69
7.42
7.27
7.05
6.58
5.83
4.96
4.19
3.75
3.69
3.92
4.22
4.38
4.25
3.76
2.95
1.94
0.96
0.24
-0.04
0.08
0.31
0.18
-0.78
-2.84
-5.94
-9.76
-13.82
-17.68
-20.92
-23.20
-24.23
-23.78
-21.79
-18.44
-14.19
-9.66
-5.41
-1.85
0.94
3.07
4.75
6.12
7.22
8.02
8.48
8.64
8.56
8.34
8.02
7.60
7.05
6.39
5.71
5.19
4.90
4.86
4.89
4.76
4.31
3.56
2.69
1.97
1.66
1.80
2.24
2.70
2.86
2.55
1.76
0.67
-0.50
-1.58
-2.54
-3.53
-4.79
-6.65
-9.35
-12.97
-17.30
-21.79
-25.65
-28.05
-28.39
-26.50
-22.73
-17.78
-12.46
-7.42
-3.03
0.64
3.70
6.31
8.54
10.39
11.77
12.60
12.90
12.78
12.43
12.01
11.62
11.25
10.85
10.40
10.01
9.82
9.98
10.46
11.10
11.65
11.86
11.67
11.11
10.31
9.33
8.15
6.72
5.03
3.19
1.40
-0.12
-1.22
-1.90
-2.28
-2.58
-3.02
-3.82
-5.15
-7.13
-9.75
-12.77
-15.70
-17.92
-18.83
-18.09
-15.78
-12.36
-8.51
-4.83
-1.67
0.90
3.02
4.86
6.46
7.74
8.55
8.85
8.72
8.42
8.26
8.43
8.99
9.78
10.54
11.06
11.22
11.07
10.74
10.35
9.92
9.43
8.82
8.11
7.38
6.71
6.20
5.83
5.48
5.04
4.38
3.48
2.32
0.95
-0.64
-2.42
-4.28
-6.06
-7.55
-8.58
-9.16
-9.49
-9.92
-10.89
-12.67
-15.27
-18.32
-21.17
-23.11
-23.55
-22.27
-19.43
-15.52
-11.14
-6.84
-2.98
0.28
2.85
4.74
6.01
6.75
7.15
7.40
7.64
7.87
8.01
7.94
7.60
7.08
6.52
6.11
5.93
5.99
6.21
6.56
7.00
7.47
7.94
8.32
8.48
8.31
7.74
6.78
5.55
4.28
3.21
2.49
2.10
1.84
1.41
0.60
-0.62
-2.08
-3.52
-4.74
-5.73
-6.59
-7.50
-8.65
-10.16
-12.19
-14.85
-18.06
-21.52
-24.58
-26.46
-26.53
-24.56
-20.82
-15.97
-10.75
-5.75
-1.31
2.44
5.46
7.74
9.26
10.11
10.48
10.56
10.60
10.68
10.82
10.92
10.88
10.65
10.26
9.85
9.58
9.60
9.93
10.52
11.16
11.61
11.65
11.18
10.23
9.01
7.76
6.70
5.94
5.41
4.86
4.05
2.81
1.18
-0.55
-2.08
-3.18
-3.81
-4.23
-4.75
-5.73
-7.37
-9.73
-12.71
-16.07
-19.40
-22.19
-23.90
-24.10
-22.66
-19.80
-16.02
-11.91
-7.93
-4.31
-1.11
1.71
4.16
6.16
7.60
8.44
8.78
8.76
8.57
8.32
8.00
7.56
6.95
6.21
5.49
4.97
4.84
5.18
5.94
6.92
7.86
8.49
8.63
8.27
7.55
6.65
5.73
4.82
3.87
2.74
1.37
-0.18
-1.76
-3.21
-4.41
-5.41
-6.28
-7.25
-8.46
-10.09
-12.23
-14.87
-17.86
-20.85
-23.33
-24.77
-24.70
-22.98
-19.82
-15.69
-11.18
-6.81
-2.84
0.64
3.65
6.17
8.15
9.51
10.25
10.48
10.38
10.17
9.96
9.74
9.46
9.05
8.50
7.89
7.34
6.92
6.67
6.51
6.38
6.13
5.69
5.02
4.15
3.17
2.23
1.45
0.86
0.39
-0.10
-0.74
-1.62
-2.71
-3.92
-5.15
-6.33
-7.47
-8.68
-10.06
-11.72
-13.72
-15.99
-18.29
-20.20
-21.24
-20.96
-19.14
-15.90
-11.68
-7.08
-2.71
1.07
4.09
6.44
8.28
9.70
10.75
11.37
11.56
11.42
11.11
10.86
10.81
10.99
11.27
11.49
11.55
11.38
11.00
10.45
9.79
9.06
8.34
7.71
7.19
6.70
6.09
5.23
4.04
2.59
1.04
-0.41
-1.65
-2.67
-3.55
-4.49
-5.71
-7.41
-9.67
-12.40
-15.27
-17.72
-19.19
-19.24
-17.75
-14.97
-11.38
-7.55
-3.98
-0.99
1.28
2.88
3.99
4.86
5.70
6.69
7.84
8.99
9.92
10.46
10.53
10.26
9.86
9.53
9.37
9.33
9.29
9.15
8.90
8.56
8.19
7.80
7.34
6.74
5.97
5.05
4.05
3.04
2.03
0.99
-0.16
-1.42
-2.73
-4.02
-5.21
-6.32
-7.52
-9.07
-11.24
-14.12
-17.53
-20.94
-23.60
-24.79
-24.15
-21.76
-18.21
-14.26
-10.59
-7.55
-5.12
-3.05
-1.06
1.02
3.19
5.31
7.17
8.62
9.54
9.94
9.90
9.59
9.22
8.98
8.96
9.16
9.51
9.92
10.31
10.58
10.64
10.40
9.80
8.92
7.90
6.86
5.89
4.89
3.74
2.33
0.68
-1.04
-2.64
-4.00
-5.12
-6.18
-7.39
-8.92
-10.85
-13.21
-15.94
-18.91
-21.82
-24.24
-25.63
-25.50
-23.60
-20.06
-15.36
-10.18
-5.19
-0.88
2.53
5.11
7.09
8.73
10.25
11.76
13.22
14.53
15.59
16.32
16.67
16.67
16.38
15.88
15.25
14.56
13.87
13.22
12.61
12.05
11.56
11.15
10.80
10.42
9.90
9.06
7.81
6.13
4.15
2.13
0.35
-0.96
-1.77
-2.26
-2.79
-3.78
-5.58
-8.31
-11.77
-15.50
-18.82
-21.08
-21.81
-20.87
-18.42
-14.85
-10.64
-6.24
-2.04
1.67
4.68
6.85
8.22
9.01
9.51
9.98
10.56
11.16
11.59
11.68
11.41
10.90
10.37
9.98
9.79
9.75
9.75
9.74
9.64
9.43
9.04
8.44
7.63
6.70
5.79
5.00
4.33
3.60
2.58
1.06
-0.97
-3.26
-5.40
-6.99
-7.82
-7.99
-7.94
-8.27
-9.50
-11.90
-15.36
-19.35
-23.10
-25.80
-26.82
-25.85
-22.99
-18.73
-13.80
-8.95
-4.77
-1.52
0.89
2.77
4.48
6.25
8.06
9.72
10.99
11.73
12.01
12.03
12.01
12.03
12.08
12.08
12.00
11.91
11.90
12.05
12.26
12.34
12.08
11.33
10.13
8.64
7.07
5.64
4.47
3.58
2.87
2.15
1.25
0.02
-1.50
-3.16
-4.72
-5.97
-6.92
-7.68
-8.50
-9.61
-11.12
-13.13
-15.60
-18.43
-21.38
-24.05
-25.91
-26.45
-25.40
-22.80
-19.07
-14.78
-10.45
-6.46
-2.92
0.17
2.86
5.13
6.90
8.14
8.90
9.30
9.53
9.72
9.93
10.12
10.25
10.31
10.34
10.37
10.41
10.36
10.15
9.73
9.15
8.56
8.10
7.87
7.86
8.00
8.17
8.30
8.27
8.04
7.50
6.57
5.22
3.54
1.74
0.09
-1.21
-2.10
-2.71
-3.31
-4.23
-5.76
-8.01
-10.85
-13.93
-16.67
-18.51
-18.97
-17.87
-15.36
-11.87
-7.91
-3.96
-0.33
2.86
5.56
7.75
9.42
10.55
11.18
11.42
11.39
11.20
10.92
10.60
10.28
10.01
9.87
9.91
10.15
10.52
10.90
11.15
11.18
10.93
10.39
9.57
8.45
7.06
5.48
3.84
2.37
1.20
0.34
-0.38
-1.21
-2.36
-3.80
-5.36
-6.74
-7.73
-8.35
-8.80
-9.43
-10.54
-12.32
-14.80
-17.78
-20.85
-23.45
-25.00
-25.06
-23.52
-20.56
-16.68
-12.36
-8.05
-3.99
-0.26
3.01
5.71
7.69
8.88
9.39
9.47
9.45
9.59
9.98
10.50
10.92
11.01
10.72
10.13
9.48
8.97
8.70
8.60
8.46
8.07
7.31
6.19
4.83
3.45
2.29
1.53
1.28
1.41
1.67
1.64
0.97
-0.49
-2.60
-5.01
-7.27
-9.10
-10.43
-11.42
-12.38
-13.59
-15.24
-17.37
-19.85
-22.39
-24.53
-25.71
-25.51
-23.71
-20.48
-16.26
-11.68
-7.29
-3.46
-0.34
2.12
4.07
5.68
7.10
8.41
9.64
10.72
11.54
11.93
11.83
11.28
10.40
9.42
8.55
7.94
7.66
7.77
8.21
8.87
9.52
9.97
10.01
9.63
8.97
8.31
7.86
7.69
7.66
7.47
6.84
5.66
4.01
2.13
0.29
-1.30
-2.60
-3.66
-4.69
-5.92
-7.56
-9.74
-12.36
-15.09
-17.37
-18.60
-18.32
-16.40
-13.11
-8.99
-4.69
-0.71
2.65
5.30
7.29
8.65
9.35
9.41
8.90
8.05
7.14
6.44
6.06
5.93
5.89
5.82
5.69
5.61
5.73
6.12
6.70
7.30
7.68
7.72
7.39
6.79
6.03
5.22
4.39
3.49
2.47
1.30
-0.02
-1.40
-2.69
-3.76
-4.57
-5.23
-5.97
-7.12
-8.92
-11.51
-14.76
-18.35
-21.68
-24.11
-25.01
-24.02
-21.15
-16.86
-11.86
-6.95
-2.69
0.63
3.09
4.93
6.41
7.69
8.80
9.71
10.38
10.74
10.79
10.53
10.04
9.44
8.93
8.66
8.74
9.16
9.77
10.29
10.47
10.16
9.36
8.22
6.94
5.71
4.61
3.61
2.65
1.66
0.59
-0.54
-1.71
-2.83
-3.86
-4.77
-5.54
-6.26
-7.11
-8.36
-10.29
-13.01
-16.31
-19.70
-22.38
-23.62
-22.97
-20.45
-16.61
-12.18
-7.87
-4.08
-0.94
1.64
3.71
5.21
6.04
6.16
5.73
5.08
4.57
4.40
4.55
4.84
5.05
5.12
5.10
5.16
5.38
5.74
6.07
6.19
5.95
5.38
4.62
3.80
2.99
2.14
1.15
-0.06
-1.50
-3.08
-4.67
-6.15
-7.45
-8.60
-9.63
-10.63
-11.71
-12.97
-14.50
-16.28
-18.12
-19.65
-20.37
-19.78
-17.59
-13.83
-8.88
-3.37
2.05
6.88
10.84
13.87
16.04
17.42
18.10
18.10
17.45
16.24
14.66
13.01
11.58
10.65
10.34
10.57
11.14
11.78
12.26
12.47
12.47
12.30
11.96
11.35
10.30
8.73
6.66
4.30
1.93
-0.24
-2.12
-3.76
-5.32
-6.93
-8.74
-10.85
-13.32
-16.19
-19.33
-22.40
-24.88
-26.17
-25.84
-23.78
-20.26
-15.83
-11.14
-6.70
-2.82
0.44
3.15
5.42
7.29
8.81
9.97
10.81
11.37
11.70
11.84
11.82
11.61
11.24
10.73
10.16
9.65
9.24
8.99
8.79
8.56
8.25
7.85
7.46
7.18
7.01
6.87
6.57
5.95
5.01
3.91
2.89
2.15
1.67
1.22
0.45
-0.90
-3.00
-5.87
-9.40
-13.41
-17.61
-21.55
-24.59
-26.10
-25.68
-23.31
-19.40
-14.67
-9.87
-5.56
-1.96
0.91
3.21
5.08
6.61
7.83
8.76
9.44
9.90
10.18
10.32
10.31
10.16
9.88
9.51
9.10
8.68
8.29
7.92
7.54
7.14
6.73
6.40
6.20
6.20
6.39
6.67
6.79
6.54
5.72
4.29
2.42
0.39
-1.50
-3.10
-4.45
-5.72
-7.11
-8.75
-10.74
-13.09
-15.88
-19.14
-22.67
-26.08
-28.65
-29.69
-28.79
-26.02
-21.88
-17.11
-12.34
-7.90
-3.90
-0.30
2.86
5.52
7.63
9.21
10.41
11.38
12.18
12.80
13.17
13.26
13.16
12.99
12.84
12.75
12.63
12.43
12.09
11.68
11.31
11.08
11.08
11.19
11.19
10.80
9.83
8.27
6.37
4.50
3.04
2.15
1.76
1.55
1.15
0.27
-1.22
-3.29
-5.80
-8.56
-11.30
-13.67
-15.21
-15.52
-14.36
-11.82
-8.27
-4.22
-0.22
3.46
6.66
9.36
11.58
13.29
14.49
15.23
15.63
15.80
15.74
15.32
14.38
12.90
11.03
9.10
7.50
6.44
5.89
5.67
5.54
5.35
5.10
4.80
4.49
4.07
3.43
2.53
1.41
0.27
-0.74
-1.50
-2.09
-2.69
-3.51
-4.70
-6.27
-8.17
-10.36
-12.86
-15.73
-18.94
-22.22
-25.08
-26.88
-27.06
-25.39
-22.03
-17.53
-12.56
-7.80
-3.70
-0.45
1.96
3.73
5.15
6.55
8.10
9.81
11.40
12.48
12.75
12.14
10.90
9.43
8.13
7.20
6.64
6.25
5.80
5.06
3.91
2.33
0.42
-1.64
-3.58
-5.17
-6.28
-6.93
-7.31
-7.69
-8.29
-9.25
-10.59
-12.20
-13.84
-15.16
-15.73
-15.26
-13.67
-11.26
-8.61
-6.39
-5.08
-4.80
-5.31
-6.16
-6.98
-7.59
-8.09
-8.78
-9.97
-11.81
-14.12
-16.43
-18.03
-18.20
-16.50
-12.94
-7.96
-2.27
3.40
8.52
12.84
16.42
19.36
21.77
23.69
25.18
26.36
27.38
28.40
29.40
30.17
30.44
29.94
28.64
26.75
24.70
22.94
21.80
21.30
21.22
21.18
20.82
19.90
18.36
16.28
13.88
11.44
9.24
7.50
6.29
5.50
4.90
4.22
3.25
1.94
0.32
-1.47
-3.36
-5.29
-7.25
-9.32
-11.63
-14.38
-17.69
-21.48
-25.26
-28.24
-29.49
-28.38
-24.85
-19.50
-13.35
-7.45
-2.50
1.26
3.91
5.61
6.50
6.59
5.90
4.56
2.87
1.20
-0.10
-0.80
-0.87
-0.42
0.29
0.98
1.37
1.28
0.69
-0.27
-1.36
-2.40
-3.32
-4.15
-5.00
-5.83
-6.42
-6.43
-5.56
-3.69
-1.07
1.79
4.26
5.77
5.95
4.60
1.72
-2.52
-7.69
-13.04
-17.68
-20.71
-21.50
-19.97
-16.52
-11.96
-7.12
-2.71
0.94
3.75
5.79
7.13
7.78
7.68
6.85
5.41
3.68
2.07
0.96
0.51
0.65
1.09
1.50
1.65
1.52
1.30
1.18
1.36
1.80
2.36
2.80
2.98
2.82
2.39
1.75
0.91
-0.17
-1.58
-3.35
-5.42
-7.64
-9.89
-12.21
-14.77
-17.78
-21.29
-24.97
-28.17
-30.03
-29.88
-27.49
-23.19
-17.72
-11.92
-6.46
-1.72
2.18
5.21
7.38
8.67
9.20
9.20
9.04
9.06
9.45
10.20
11.12
11.96
12.49
12.61
12.28
11.61
10.75
9.88
9.15
8.68
8.44
8.38
8.37
8.28
7.99
7.40
6.45
5.15
3.61
2.03
0.63
-0.44
-1.22
-1.97
-3.07
-4.87
-7.56
-10.96
-14.64
-17.97
-20.33
-21.25
-20.57
-18.46
-15.31
-11.61
-7.82
-4.21
-0.90
2.12
4.90
7.41
9.59
11.30
12.48
13.14
13.41
13.45
13.42
13.36
13.18
12.77
12.01
10.90
9.52
8.07
6.77
5.80
5.28
5.17
5.32
5.50
5.51
5.16
4.43
3.42
2.30
1.23
0.30
-0.52
-1.36
-2.41
-3.89
-5.99
-8.77
-12.13
-15.72
-18.98
-21.32
-22.23
-21.46
-19.06
-15.38
-10.92
-6.21
-1.73
2.17
5.25
7.41
8.72
9.38
9.61
9.68
9.72
9.80
9.93
10.07
10.24
10.45
10.72
11.06
11.42
11.75
11.99
12.11
12.10
12.02
11.91
11.82
11.64
11.22
10.37
8.94
6.97
4.64
2.23
-0.02
-2.03
-3.83
-5.56
-7.29
-9.07
-10.90
-12.83
-15.02
-17.61
-20.66
-23.95
-26.96
-28.99
-29.42
-27.95
-24.76
-20.42
-15.64
-11.03
-6.92
-3.35
-0.25
2.44
4.71
6.51
7.85
8.82
9.63
10.42
11.28
12.14
12.87
13.39
13.66
13.77
13.85
14.02
14.32
14.71
15.01
15.01
14.55
13.57
12.19
10.67
9.27
8.17
7.40
6.78
6.04
4.98
3.50
1.66
-0.36
-2.36
-4.23
-5.91
-7.37
-8.63
-9.66
-10.52
-11.41
-12.68
-14.71
-17.66
-21.31
-24.94
-27.57
-28.27
-26.59
-22.72
-17.41
-11.67
-6.38
-2.01
1.38
4.02
6.18
7.99
9.42
10.36
10.71
10.52
9.93
9.13
8.29
7.49
6.72
5.99
5.34
4.89
4.82
5.18
5.92
6.81
7.56
7.92
7.79
7.25
6.48
5.70
5.09
4.78
4.78
5.03
5.37
5.60
5.47
4.83
3.69
2.23
0.72
-0.62
-1.73
-2.77
-4.00
-5.71
-8.02
-10.85
-13.87
-16.61
-18.57
-19.32
-18.60
-16.37
-12.86
-8.58
-4.13
-0.08
3.17
5.57
7.30
8.62
9.73
10.67
11.31
11.46
11.05
10.14
8.97
7.83
6.96
6.47
6.33
6.43
6.65
6.91
7.16
7.41
7.67
7.94
8.17
8.33
8.35
8.18
7.78
7.08
6.08
4.79
3.27
1.64
0.05
-1.42
-2.66
-3.67
-4.57
-5.55
-6.92
-8.93
-11.63
-14.73
-17.62
-19.54
-19.89
-18.45
-15.49
-11.66
-7.69
-4.13
-1.25
0.91
2.45
3.45
3.94
3.99
3.73
3.41
3.27
3.47
4.03
4.82
5.69
6.49
7.18
7.82
8.49
9.23
9.99
10.60
10.88
10.67
9.93
8.77
7.37
5.93
4.52
3.10
1.52
-0.30
-2.32
-4.32
-6.01
-7.15
-7.72
-7.91
-8.02
-8.39
-9.29
-10.89
-13.29
-16.41
-19.99
-23.45
-26.04
-26.98
-25.83
-22.62
-17.94
-12.68
-7.71
-3.55
-0.32
2.17
4.17
5.85
7.19
8.17
8.78
9.15
9.44
9.77
10.10
10.31
10.29
10.04
9.68
9.42
9.34
9.38
9.35
9.05
8.39
7.45
6.41
5.43
4.55
3.71
2.73
1.51
-0.00
-1.73
-3.57
-5.36
-7.02
-8.44
-9.54
-10.30
-10.85
-11.51
-12.73
-14.85
-17.94
-21.60
-24.97
-27.06
-27.09
-24.79
-20.50
-14.95
-8.97
-3.24
1.86
6.17
9.65
12.24
13.94
14.80
14.93
14.55
13.89
13.13
12.39
11.67
10.91
10.04
9.06
7.99
6.96
6.13
5.63
5.53
5.80
6.23
6.54
6.42
5.66
4.26
2.47
0.67
-0.75
-1.60
-1.96
-2.17
-2.66
-3.85
-5.92
-8.87
-12.41
-16.08
-19.28
-21.40
-21.97
-20.80
-18.08
-14.32
-10.16
-6.21
-2.81
-0.03
2.24
4.17
5.86
7.34
8.65
9.86
11.05
12.29
13.53
14.64
15.45
15.89
15.96
15.80
15.54
15.23
14.75
13.93
12.61
10.81
8.78
6.87
5.47
4.69
4.46
4.47
4.33
3.79
2.72
1.20
-0.59
-2.46
-4.27
-5.93
-7.52
-9.16
-11.05
-13.34
-16.08
-19.07
-21.86
-23.82
-24.37
-23.14
-20.17
-15.95
-11.22
-6.80
-3.24
-0.76
0.82
1.87
2.75
3.64
4.60
5.48
6.21
6.76
7.15
7.41
7.51
7.39
7.06
6.58
6.09
5.78
5.72
5.80
5.81
5.48
4.66
3.31
1.57
-0.32
-2.11
-3.60
-4.65
-5.21
-5.34
-5.15
-4.82
-4.50
-4.33
-4.37
-4.59
-4.98
-5.63
-6.74
-8.55
-11.16
-14.35
-17.57
-20.00
-20.95
-20.03
-17.41
-13.70
-9.65
-5.86
-2.59
0.26
2.93
5.56
8.07
10.16
11.48
11.84
11.33
10.31
9.23
8.51
8.33
8.63
9.24
9.97
10.65
11.22
11.62
11.82
11.79
11.55
11.17
10.78
10.45
10.22
10.01
9.72
9.20
8.36
7.19
5.77
4.22
2.71
1.26
-0.16
-1.83
-4.07
-7.10
-10.88
-15.03
-18.87
-21.68
-22.92
-22.39
-20.29
-17.07
-13.28
-9.41
-5.77
-2.55
0.23
2.62
4.72
6.58
8.23
9.61
10.62
11.18
11.30
11.06
10.62
10.16
9.77
9.49
9.30
9.18
9.08
8.95
8.73
8.34
7.77
7.06
6.38
5.86
5.59
5.50
5.41
5.05
4.20
2.83
1.12
-0.66
-2.22
-3.45
-4.53
-5.84
-7.82
-10.81
-14.80
-19.41
-23.92
-27.54
-29.52
-29.46
-27.38
-23.71
-19.16
-14.50
-10.31
-6.85
-4.07
-1.74
0.39
2.40
4.24
5.77
6.89
7.63
8.11
8.49
8.89
9.25
9.44
9.27
8.67
7.73
6.64
5.67
5.01
4.71
4.74
5.01
5.45
6.09
6.93
7.93
8.96
9.79
10.21
10.06
9.35
8.19
6.74
5.04
2.98
0.34
-3.09
-7.37
-12.23
-17.11
-21.27
-24.01
-24.94
-24.05
-21.69
-18.46
-14.90
-11.45
-8.28
-5.41
-2.75
-0.29
1.94
3.84
5.29
6.32
7.04
7.62
8.23
8.92
9.62
10.18
10.47
10.46
10.23
9.94
9.76
9.76
9.93
10.13
10.24
10.17
9.87
9.36
8.69
7.88
6.98
6.01
4.96
3.90
2.82
1.72
0.49
-1.07
-3.12
-5.79
-8.98
-12.38
-15.45
-17.60
-18.34
-17.47
-15.10
-11.65
-7.67
-3.68
-0.06
3.09
5.74
7.96
9.75
11.01
11.63
11.58
10.95
10.02
9.14
8.59
8.48
8.75
9.23
9.74
10.17
10.48
10.63
10.56
10.17
9.43
8.41
7.30
6.32
5.62
5.21
4.93
4.57
3.99
3.09
1.90
0.47
-1.10
-2.73
-4.36
-5.99
-7.72
-9.77
-12.34
-15.49
-18.93
-22.08
-24.21
-24.73
-23.43
-20.60
-16.85
-12.90
-9.27
-6.15
-3.47
-1.07
1.15
3.18
4.94
6.38
7.57
8.64
9.67
10.62
11.34
11.62
11.35
10.58
9.53
8.53
7.83
7.52
7.55
7.69
7.73
7.54
7.11
6.51
5.85
5.16
4.42
3.56
2.52
1.30
0.01
-1.20
-2.21
-2.94
-3.44
-3.85
-4.34
-5.14
-6.45
-8.39
-10.97
-14.00
-17.09
-19.72
-21.34
-21.58
-20.32
-17.69
-14.07
-9.93
-5.69
-1.69
1.86
4.84
7.21
9.02
10.38
11.48
12.42
13.24
13.94
14.40
14.60
14.54
14.25
13.78
13.12
12.24
11.16
9.98
8.92
8.19
8.00
8.36
9.13
10.05
10.82
11.22
11.15
10.59
9.62
8.32
6.71
4.86
2.85
0.82
-1.06
-2.69
-4.09
-5.45
-7.02
-9.01
-11.41
-13.96
-16.17
-17.55
-17.74
-16.69
-14.68
-12.17
-9.65
-7.36
-5.32
-3.35
-1.24
1.07
3.39
5.37
6.69
7.22
7.11
6.65
6.15
5.77
5.47
5.19
4.92
4.80
5.05
5.84
7.13
8.63
9.89
10.49
10.19
8.96
6.96
4.48
1.84
-0.70
-2.92
-4.68
-5.96
-6.79
-7.31
-7.63
-7.83
-7.96
-8.06
-8.25
-8.76
-9.89
-11.80
-14.41
-17.30
-19.83
-21.40
-21.66
-20.60
-18.53
-15.91
-13.13
-10.43
-7.95
-5.72
-3.76
-2.09
-0.65
0.67
2.04
3.56
5.25
6.97
8.53
9.72
10.51
11.00
11.43
12.04
12.92
14.06
15.27
16.36
17.21
17.78
18.09
18.13
17.80
17.03
15.76
14.10
12.25
10.48
8.99
7.78
6.69
5.45
3.75
1.38
-1.81
-5.83
-10.47
-15.32
-19.73
-22.97
-24.43
-23.92
-21.71
-18.49
-15.05
-12.04
-9.73
-8.07
-6.80
-5.67
-4.54
-3.42
-2.37
-1.46
-0.73
-0.19
0.16
0.41
0.62
0.86
1.14
1.39
1.52
1.42
1.07
0.53
-0.03
-0.53
-0.92
-1.31
-1.87
-2.74
-3.92
-5.25
-6.46
-7.34
-7.77
-7.84
-7.70
-7.55
-7.44
-7.46
-7.68
-8.24
-9.27
-10.75
-12.40
-13.65
-13.90
-12.72
-10.06
-6.27
-1.95
2.35
6.24
9.61
12.43
14.71
16.34
17.20
17.24
16.54
15.36
14.00
12.70
11.53
10.44
9.28
7.99
6.62
5.37
4.48
4.11
4.23
4.63
5.03
5.16
4.87
4.12
2.96
1.51
-0.14
-1.84
-3.46
-4.91
-6.13
-7.16
-8.14
-9.30
-10.90
-13.15
-16.04
-19.27
-22.26
-24.29
-24.71
-23.26
-20.11
-15.81
-11.09
-6.56
-2.53
0.91
3.87
6.42
8.58
10.28
11.45
12.08
12.27
12.16
11.86
11.46
11.00
10.46
9.88
9.34
8.92
8.69
8.66
8.71
8.73
8.58
8.18
7.52
6.66
5.66
4.51
3.24
1.81
0.24
-1.38
-2.95
-4.30
-5.41
-6.32
-7.28
-8.56
-10.40
-12.83
-15.63
-18.39
-20.57
-21.76
-21.73
-20.48
-18.20
-15.16
-11.65
-7.93
-4.24
-0.80
2.21
4.68
6.59
8.02
9.10
9.96
10.65
11.17
11.47
11.53
11.43
11.26
11.07
10.84
10.51
9.98
9.32
8.67
8.22
8.08
8.19
8.32
8.14
7.43
6.11
4.31
2.26
0.19
-1.70
-3.32
-4.71
-5.95
-7.20
-8.64
-10.44
-12.71
-15.47
-18.51
-21.41
-23.62
-24.59
-23.95
-21.72
-18.31
-14.31
-10.36
-6.90
-4.12
-1.99
-0.35
0.95
2.05
3.04
3.99
4.87
5.61
6.14
6.47
6.66
6.83
7.11
7.50
7.96
8.42
8.88
9.41
10.02
10.65
11.08
11.05
10.36
9.04
7.29
5.44
3.76
2.40
1.36
0.50
-0.32
-1.23
-2.28
-3.56
-5.13
-7.05
-9.31
-11.73
-13.98
-15.60
-16.15
-15.37
-13.28
-10.19
-6.59
-2.97
0.32
3.16
5.54
7.56
9.21
10.49
11.33
11.71
11.72
11.54
11.39
11.42
11.65
11.98
12.19
12.13
11.71
10.99
10.08
9.12
8.18
7.30
6.46
5.62
4.77
3.84
2.81
1.69
0.52
-0.56
-1.43
-2.00
-2.34
-2.68
-3.37
-4.75
-7.00
-10.05
-13.57
-16.97
-19.65
-21.12
-21.11
-19.65
-17.00
-13.57
-9.78
-6.03
-2.62
0.28
2.64
4.56
6.18
7.64
9.01
10.20
11.07
11.52
11.54
11.23
10.77
10.28
9.83
9.42
9.06
8.77
8.57
8.37
8.07
7.47
6.51
5.28
3.99
2.89
2.14
1.72
1.44
1.06
0.34
-0.73
-2.03
-3.31
-4.38
-5.16
-5.74
-6.35
-7.28
-8.72
-10.81
-13.44
-16.33
-19.04
-21.01
-21.72
-20.84
-18.38
-14.71
-10.47
-6.34
-2.82
-0.09
1.96
3.60
5.05
6.40
7.63
8.64
9.40
9.91
10.20
10.29
10.15
9.79
9.26
8.69
8.23
7.95
7.79
7.61
7.27
6.71
6.03
5.37
4.86
4.53
4.31
4.12
3.92
3.75
3.59
3.41
3.02
2.22
0.88
-0.95
-3.01
-4.99
-6.61
-7.79
-8.64
-9.44
-10.46
-11.96
-13.96
-16.28
-18.57
-20.32
-21.06
-20.52
-18.67
-15.77
-12.28
-8.68
-5.33
-2.41
0.02
2.02
3.58
4.68
5.29
5.46
5.32
5.10
5.01
5.20
5.62
6.14
6.55
6.77
6.87
7.00
7.38
8.07
9.03
10.08
11.02
11.71
12.13
12.33
12.42
12.46
12.43
12.29
11.90
11.19
10.09
8.67
7.03
5.33
3.71
2.26
0.99
-0.16
-1.37
-2.88
-4.94
-7.67
-10.95
-14.31
-17.05
-18.45
-18.04
-15.82
-12.28
-8.12
-4.04
-0.48
2.41
4.68
6.41
7.64
8.35
8.58
8.40
7.99
7.55
7.20
6.94
6.68
6.29
5.69
4.96
4.25
3.73
3.49
3.53
3.71
3.85
3.84
3.66
3.35
2.96
2.55
2.10
1.58
0.95
0.21
-0.58
-1.37
-2.08
-2.67
-3.12
-3.44
-3.71
-4.09
-4.81
-6.14
-8.26
-11.10
-14.32
-17.31
-19.35
-19.91
-18.78
-16.16
-12.62
-8.80
-5.31
-2.49
-0.49
0.77
1.48
1.92
2.35
2.99
3.86
4.86
5.74
6.22
6.16
5.60
4.76
3.98
3.50
3.44
3.73
4.23
4.74
5.16
5.44
5.61
5.68
5.66
5.53
5.31
5.05
4.76
4.34
3.71
2.72
1.38
-0.22
-1.87
-3.39
-4.69
-5.83
-6.99
-8.43
-10.33
-12.72
-15.42
-18.01
-19.98
-20.83
-20.26
-18.28
-15.23
-11.66
-8.10
-4.93
-2.32
-0.27
1.29
2.41
3.17
3.66
4.03
4.44
4.97
5.62
6.26
6.75
6.99
7.02
6.93
6.86
6.88
6.96
7.00
6.92
6.69
6.35
5.96
5.54
5.02
4.36
3.52
2.56
1.61
0.78
0.13
-0.37
-0.85
-1.44
-2.22
-3.26
-4.59
-6.30
-8.48
-11.08
-13.90
-16.48
-18.31
-18.91
-18.10
-16.04
-13.17
-10.00
-6.97
-4.29
-1.99
-0.02
1.62
2.86
3.62
3.88
3.77
3.52
3.35
3.39
3.69
4.18
4.82
5.56
6.42
7.34
8.24
8.97
9.34
9.29
8.90
8.32
7.79
7.46
7.38
7.50
7.65
7.68
7.46
6.94
6.16
5.23
4.31
3.50
2.82
2.15
1.28
-0.03
-1.89
-4.22
-6.69
-8.81
-10.03
-9.94
-8.42
-5.67
-2.15
1.48
4.63
6.85
7.98
8.14
7.73
7.22
6.96
7.11
7.55
8.02
8.28
8.22
7.95
7.69
7.65
7.92
8.39
8.79
8.85
8.43
7.57
6.46
5.40
4.58
4.04
3.68
3.27
2.63
1.67
0.42
-1.02
-2.55
-4.04
-5.40
-6.53
-7.35
-7.90
-8.40
-9.21
-10.72
-13.12
-16.24
-19.57
-22.41
-24.04
-24.03
-22.30
-19.11
-14.96
-10.43
-6.11
-2.44
0.27
1.93
2.66
2.72
2.43
2.09
1.90
1.97
2.36
3.07
4.08
5.28
6.45
7.33
7.68
7.37
6.49
5.27
4.06
3.15
2.74
2.84
3.36
4.08
4.85
5.55
6.21
6.90
7.75
8.84
10.09
11.34
12.30
12.67
12.19
10.64
7.93
4.07
-0.69
-5.87
-10.78
-14.63
-16.83
-17.13
-15.76
-13.25
-10.19
-7.03
-3.99
-1.05
1.78
4.39
6.56
8.06
8.74
8.68
8.05
7.13
6.12
5.12
4.14
3.12
2.09
1.08
0.22
-0.39
-0.61
-0.44
0.03
0.55
0.90
0.84
0.27
-0.69
-1.80
-2.78
-3.44
-3.79
-4.08
-4.64
-5.81
-7.86
-10.92
-14.96
-19.75
-24.83
-29.53
-33.10
-34.92
-34.66
-32.41
-28.63
-23.99
-19.11
-14.44
-10.19
-6.38
-2.93
0.22
3.06
5.54
7.58
9.11
10.15
10.83
11.31
11.72
12.15
12.51
12.67
12.50
11.95
11.13
10.29
9.65
9.40
9.53
9.88
10.22
10.32
10.09
9.57
8.90
8.27
7.83
7.61
7.52
7.40
7.04
6.13
4.38
1.52
-2.55
-7.68
-13.39
-18.95
-23.51
-26.35
-27.09
-25.79
-22.87
-18.97
-14.70
-10.56
-6.75
-3.25
0.16
3.73
7.59
11.77
16.01
19.99
23.38
25.95
27.65
28.56
28.77
28.34
27.24
25.41
22.88
19.82
16.57
13.52
11.03
9.31
8.36
8.04
8.05
8.11
8.00
7.57
6.77
5.58
3.99
2.00
-0.41
-3.15
-6.10
-9.13
-12.15
-15.11
-18.03
-20.86
-23.35
-25.11
-25.64
-24.61
-22.04
-18.38
-14.45
-11.08
-8.90
-8.11
-8.46
-9.45
-10.53
-11.27
-11.44
-10.98
-9.90
-8.28
-6.21
-3.83
-1.34
1.03
3.14
4.91
6.38
7.69
8.99
10.40
11.92
13.47
14.92
16.11
17.00
17.61
18.05
18.43
18.75
18.80
18.30
16.98
14.81
12.03
9.01
6.06
3.25
0.38
-2.84
-6.48
-10.22
-13.42
-15.33
-15.49
-13.88
-10.98
-7.55
-4.30
-1.66
0.30
1.79
3.10
4.43
5.74
6.85
7.51
7.59
7.15
6.41
5.64
5.01
4.50
3.94
3.15
2.08
0.86
-0.21
-0.82
-0.82
-0.26
0.64
1.59
2.31
2.69
2.68
2.31
1.60
0.56
-0.81
-2.51
-4.46
-6.57
-8.76
-11.01
-13.44
-16.16
-19.24
-22.50
-25.50
-27.61
-28.20
-26.93
-23.90
-19.60
-14.80
-10.25
-6.48
-3.70
-1.84
-0.67
0.06
0.53
0.84
0.98
0.91
0.59
0.01
-0.74
-1.55
-2.23
-2.63
-2.61
-2.06
-0.96
0.64
2.64
4.84
7.07
9.17
11.10
12.88
14.51
15.95
17.04
17.57
17.38
16.37
14.58
12.12
9.13
5.79
2.29
-1.23
-4.66
-8.05
-11.54
-15.25
-19.09
-22.66
-25.32
-26.30
-25.13
-21.78
-16.78
-11.01
-5.43
-0.79
2.50
4.39
5.03
4.74
3.86
2.77
1.78
1.13
0.91
1.06
1.34
1.48
1.24
0.52
-0.64
-2.11
-3.69
-5.18
-6.41
-7.24
-7.58
-7.43
-6.86
-6.02
-5.08
-4.17
-3.40
-2.80
-2.41
-2.27
-2.42
-2.88
-3.60
-4.43
-5.17
-5.65
-5.85
-5.89
-6.05
-6.60
-7.63
-8.94
-10.02
-10.25
-9.09
-6.35
-2.21
2.78
7.94
12.70
16.72
19.94
22.42
24.29
25.67
26.58
27.08
27.21
27.07
26.74
26.35
25.99
25.75
25.65
25.70
25.78
25.77
25.59
25.18
24.54
23.63
22.37
20.61
18.24
15.22
11.64
7.69
3.64
-0.29
-3.94
-7.17
-9.84
-11.85
-13.15
-13.85
-14.23
-14.66
-15.56
-17.18
-19.52
-22.26
-24.89
-26.82
-27.68
-27.36
-26.11
-24.34
-22.45
-20.63
-18.84
-16.90
-14.64
-11.98
-9.02
-5.91
-2.85
0.02
2.62
4.87
6.74
8.21
9.29
10.06
10.64
11.12
11.54
11.84
11.90
11.63
10.90
9.71
8.14
6.35
4.56
3.01
1.87
1.18
0.81
0.55
0.21
-0.29
-0.91
-1.50
-1.97
-2.35
-2.90
-4.02
-6.06
-9.15
-13.03
-16.99
-20.06
-21.30
-20.10
-16.37
-10.60
-3.60
3.71
10.60
16.67
21.75
25.78
28.71
30.43
30.86
30.07
28.23
25.67
22.75
19.79
17.00
14.52
12.38
10.57
9.06
7.77
6.63
5.50
4.31
3.01
1.64
0.24
-1.13
-2.48
-3.85
-5.32
-6.94
-8.68
-10.39
-11.89
-13.02
-13.77
-14.24
-14.65
-15.26
-16.33
-17.97
-20.16
-22.65
-24.96
-26.50
-26.68
-25.15
-21.93
-17.41
-12.27
-7.21
-2.75
0.89
3.77
6.02
7.80
9.18
10.17
10.78
11.07
11.14
11.13
11.15
11.25
11.44
11.65
11.78
11.71
11.40
10.87
10.25
9.71
9.41
9.38
9.51
9.55
9.27
8.56
7.47
6.23
5.10
4.22
3.64
3.21
2.71
1.90
0.55
-1.49
-4.28
-7.71
-11.46
-15.02
-17.80
-19.25
-19.08
-17.34
-14.40
-10.79
-7.05
-3.62
-0.70
1.59
3.30
4.52
5.43
6.21
6.97
7.74
8.40
8.80
8.82
8.45
7.82
7.13
6.59
6.30
6.22
6.17
5.92
5.33
4.34
3.13
1.95
1.07
0.72
0.93
1.55
2.31
2.94
3.27
3.26
2.99
2.57
2.11
1.70
1.39
1.13
0.73
-0.15
-1.95
-4.98
-9.19
-14.11
-18.81
-22.28
-23.78
-23.08
-20.56
-16.97
-13.15
-9.72
-7.00
-5.00
-3.55
-2.44
-1.53
-0.72
0.03
0.81
1.68
2.72
3.93
5.25
6.51
7.56
8.27
8.62
8.70
8.66
8.65
8.76
8.98
9.32
9.75
10.30
11.03
11.90
12.81
13.56
13.89
13.61
12.61
10.93
8.73
6.28
3.76
1.30
-1.05
-3.30
-5.46
-7.53
-9.53
-11.55
-13.72
-16.16
-18.86
-21.57
-23.81
-25.09
-25.01
-23.52
-20.92
-17.71
-14.43
-11.44
-8.84
-6.59
-4.56
-2.70
-1.02
0.43
1.67
2.78
3.90
5.14
6.53
7.99
9.38
10.52
11.28
11.63
11.57
11.16
10.48
9.62
8.70
7.87
7.26
6.94
6.81
6.71
6.44
5.87
5.03
4.03
3.04
2.17
1.47
0.86
0.21
-0.62
-1.77
-3.38
-5.55
-8.27
-11.31
-14.22
-16.43
-17.43
-16.96
-15.13
-12.35
-9.18
-6.10
-3.42
-1.18
0.69
2.33
3.76
4.96
5.89
6.53
6.94
7.23
7.52
7.91
8.38
8.92
9.51
10.15
10.87
11.66
12.51
13.33
13.99
14.39
14.44
14.11
13.36
12.17
10.56
8.60
6.50
4.46
2.67
1.22
0.07
-0.82
-1.51
-2.06
-2.53
-3.12
-4.16
-6.04
-9.11
-13.42
-18.70
-24.33
-29.47
-33.32
-35.23
-34.89
-32.38
-28.12
-22.71
-16.83
-11.05
-5.79
-1.31
2.22
4.73
6.25
6.88
6.83
6.37
5.74
5.11
4.53
4.01
3.55
3.20
2.98
2.85
2.71
2.47
2.05
1.47
0.80
0.14
-0.48
-1.02
-1.43
-1.65
-1.59
-1.27
-0.82
-0.44
-0.32
-0.50
-0.85
-1.19
-1.37
-1.45
-1.67
-2.38
-3.93
-6.51
-10.08
-14.24
-18.36
-21.64
-23.34
-22.99
-20.56
-16.45
-11.40
-6.18
-1.41
2.55
5.68
8.12
10.07
11.74
13.22
14.49
15.44
15.92
15.82
15.15
14.02
12.63
11.16
9.72
8.40
7.20
6.18
5.38
4.90
4.68
4.59
4.43
3.96
3.08
1.87
0.55
-0.59
-1.38
-1.81
-2.05
-2.33
-2.88
-3.87
-5.39
-7.49
-10.20
-13.40
-16.79
-19.82
-21.88
-22.47
-21.38
-18.77
-15.11
-10.88
-6.50
-2.27
1.59
4.84
7.19
8.44
8.57
7.82
6.60
5.35
4.34
3.62
3.09
2.63
2.24
2.03
2.24
3.01
4.42
6.35
8.64
11.05
13.34
15.23
16.48
16.90
16.42
15.09
13.14
10.80
8.32
5.85
3.50
1.32
-0.62
-2.32
-3.91
-5.61
-7.76
-10.65
-14.28
-18.35
-22.18
-25.01
-26.26
-25.70
-23.61
-20.54
-17.10
-13.71
-10.50
-7.43
-4.40
-1.45
1.26
3.50
5.06
5.90
6.08
5.82
5.37
4.94
4.66
4.53
4.53
4.60
4.71
4.88
5.10
5.40
5.75
6.14
6.56
6.95
7.20
7.12
6.45
5.01
2.80
0.03
-2.92
-5.65
-7.93
-9.70
-11.13
-12.49
-14.05
-15.99
-18.35
-20.93
-23.34
-25.05
-25.52
-24.43
-21.76
-17.80
-13.09
-8.21
-3.66
0.29
3.51
6.04
7.95
9.40
10.57
11.60
12.55
13.41
14.08
14.53
14.76
14.87
14.99
15.10
15.13
14.92
14.39
13.62
12.85
12.31
12.11
12.13
12.10
11.72
10.84
9.49
7.85
6.14
4.52
3.05
1.66
0.19
-1.56
-3.81
-6.69
-10.16
-13.91
-17.38
-19.93
-21.04
-20.48
-18.41
-15.26
-11.59
-7.86
-4.32
-1.02
2.08
5.00
7.67
9.95
11.64
12.65
12.97
12.80
12.38
11.96
11.67
11.49
11.28
10.89
10.31
9.64
9.08
8.79
8.83
9.14
9.59
10.03
10.37
10.56
10.49
10.04
9.04
7.42
5.28
2.84
0.44
-1.70
-3.49
-5.05
-6.66
-8.61
-11.16
-14.37
-18.04
-21.72
-24.76
-26.46
-26.34
-24.26
-20.51
-15.73
-10.62
-5.73
-1.36
2.46
5.78
8.63
10.98
12.72
13.80
14.25
14.19
13.76
13.05
12.15
11.13
10.10
9.21
8.64
8.47
8.67
9.11
9.56
9.85
9.83
9.47
8.84
8.03
7.17
6.33
5.59
4.94
4.33
3.67
2.83
1.74
0.36
-1.22
-2.83
-4.29
-5.50
-6.55
-7.72
-9.36
-11.74
-14.81
-18.10
-20.87
-22.31
-21.96
-19.83
-16.43
-12.48
-8.63
-5.23
-2.27
0.39
2.90
5.26
7.36
9.07
10.33
11.23
11.91
12.55
13.23
13.95
14.63
15.20
15.58
15.82
15.97
16.15
16.47
16.96
17.52
17.94
17.98
17.49
16.40
14.80
12.86
10.76
8.64
6.60
4.64
2.73
0.84
-1.06
-2.97
-4.80
-6.40
-7.60
-8.33
-8.67
-8.95
-9.62
-11.15
-13.85
-17.64
-22.08
-26.43
-29.82
-31.54
-31.19
-28.90
-25.16
-20.71
-16.29
-12.42
-9.33
-7.02
-5.40
-4.33
-3.70
-3.37
-3.15
-2.85
-2.31
-1.49
-0.41
0.82
2.18
3.67
5.30
7.02
8.74
10.25
11.39
12.10
12.44
12.52
12.45
12.28
12.02
11.70
11.33
10.95
10.51
9.91
9.01
7.67
5.84
3.52
0.75
-2.44
-6.03
-10.01
-14.19
-18.24
-21.63
-23.79
-24.30
-23.06
-20.29
-16.52
-12.35
-8.29
-4.65
-1.53
1.05
3.11
4.64
5.63
6.14
6.31
6.34
6.38
6.50
6.72
7.00
7.32
7.67
8.02
8.28
8.35
8.17
7.81
7.45
7.27
7.41
7.77
8.12
8.18
7.78
6.92
5.77
4.49
3.20
1.87
0.39
-1.27
-3.11
-5.05
-7.07
-9.24
-11.69
-14.46
-17.43
-20.17
-22.11
-22.76
-21.82
-19.42
-15.93
-11.88
-7.81
-4.08
-0.96
1.44
3.06
3.96
4.31
4.37
4.40
4.58
5.01
5.65
6.37
7.02
7.49
7.73
7.78
7.69
7.59
7.56
7.64
7.83
8.02
8.08
7.85
7.23
6.24
4.95
3.56
2.22
1.01
-0.06
-1.06
-2.08
-3.20
-4.48
-6.04
-8.03
-10.62
-13.82
-17.36
-20.69
-23.06
-23.82
-22.68
-19.85
-15.95
-11.78
-8.02
-5.00
-2.64
-0.66
1.22
3.15
5.00
6.59
7.75
8.45
8.84
9.14
9.52
10.03
10.55
10.88
10.90
10.55
9.96
9.33
8.82
8.52
8.31
8.03
7.50
6.66
5.56
4.39
3.32
2.49
1.93
1.59
1.42
1.29
1.05
0.46
-0.76
-2.80
-5.63
-8.88
-11.90
-13.93
-14.38
-13.04
-10.18
-6.45
-2.59
0.80
3.47
5.47
7.02
8.32
9.41
10.18
10.49
10.28
9.64
8.80
8.01
7.42
7.06
6.83
6.68
6.61
6.67
6.91
7.28
7.59
7.62
7.23
6.45
5.44
4.42
3.53
2.77
2.06
1.28
0.37
-0.64
-1.69
-2.75
-3.89
-5.26
-7.05
-9.40
-12.34
-15.69
-19.07
-21.95
-23.72
-23.93
-22.46
-19.56
-15.76
-11.67
-7.79
-4.29
-1.15
1.75
4.45
6.80
8.59
9.64
9.91
9.52
8.74
7.82
6.99
6.35
5.96
5.81
5.91
6.24
6.74
7.35
7.95
8.42
8.67
8.68
8.51
8.23
7.91
7.50
6.88
5.93
4.59
2.90
1.01
-0.93
-2.85
-4.70
-6.48
-8.19
-9.88
-11.66
-13.72
-16.21
-19.07
-21.96
-24.29
-25.36
-24.71
-22.28
-18.47
-13.94
-9.40
-5.37
-2.08
0.52
2.57
4.29
5.78
7.09
8.23
9.22
10.05
10.76
11.32
11.73
11.93
11.90
11.68
11.33
10.96
10.70
10.64
10.78
11.01
11.18
11.11
10.69
9.93
8.96
7.95
7.03
6.21
5.36
4.32
3.02
1.52
-0.01
-1.44
-2.71
-3.91
-5.23
-6.89
-8.99
-11.55
-14.32
-16.95
-18.96
-19.88
-19.42
-17.52
-14.40
-10.53
-6.44
-2.53
0.95
3.91
6.33
8.25
9.62
10.46
10.85
10.93
10.84
10.69
10.48
10.18
9.79
9.36
9.02
8.90
9.05
9.39
9.76
9.91
9.69
9.06
8.07
6.90
5.72
4.66
3.74
2.89
1.97
0.86
-0.48
-1.93
-3.29
-4.36
-5.05
-5.46
-5.85
-6.60
-8.07
-10.41
-13.51
-16.94
-20.05
-22.14
-22.65
-21.38
-18.56
-14.74
-10.64
-6.86
-3.73
-1.29
0.61
2.15
3.44
4.56
5.52
6.44
7.40
8.42
9.44
10.24
10.64
10.58
10.19
9.79
9.66
9.95
10.56
11.24
11.67
11.65
11.14
10.23
9.07
7.82
6.56
5.35
4.21
3.18
2.24
1.32
0.30
-0.96
-2.49
-4.24
-6.04
-7.66
-8.98
-10.09
-11.29
-12.96
-15.36
-18.41
-21.65
-24.29
-25.55
-24.97
-22.55
-18.76
-14.28
-9.76
-5.61
-2.00
1.04
3.49
5.27
6.34
6.80
6.90
6.99
7.34
8.04
8.87
9.48
9.60
9.20
8.55
8.09
8.17
8.88
10.00
11.12
11.89
12.11
11.81
11.16
10.37
9.55
8.69
7.69
6.51
5.11
3.62
2.18
0.95
-0.00
-0.70
-1.25
-1.84
-2.61
-3.70
-5.24
-7.32
-9.92
-12.90
-15.92
-18.45
-19.91
-19.87
-18.22
-15.19
-11.30
-7.14
-3.22
0.16
2.92
5.08
6.74
8.01
8.99
9.75
10.33
10.68
10.75
10.48
9.91
9.20
8.61
8.35
8.47
8.87
9.31
9.54
9.44
8.99
8.26
7.37
6.43
5.52
4.70
4.02
3.44
2.86
2.14
1.15
-0.17
-1.76
-3.46
-5.07
-6.46
-7.56
-8.50
-9.48
-10.80
-12.71
-15.29
-18.31
-21.23
-23.30
-23.89
-22.66
-19.79
-15.83
-11.48
-7.30
-3.62
-0.46
2.24
4.53
6.43
7.95
9.15
10.11
10.88
11.44
11.64
11.36
10.54
9.29
7.85
6.46
5.33
4.56
4.14
4.00
4.02
4.09
4.12
4.04
3.85
3.56
3.23
2.92
2.62
2.28
1.79
1.10
0.24
-0.72
-1.70
-2.63
-3.49
-4.32
-5.25
-6.45
-8.13
-10.42
-13.28
-16.45
-19.38
-21.43
-22.03
-20.92
-18.24
-14.52
-10.37
-6.38
-2.86
0.07
2.45
4.39
5.95
7.14
7.99
8.52
8.79
8.84
8.74
8.54
8.28
8.03
7.84
7.77
7.83
8.00
8.24
8.47
8.60
8.52
8.20
7.64
6.94
6.19
5.49
4.85
4.19
3.41
2.45
1.33
0.17
-0.89
-1.71
-2.27
-2.69
-3.19
-4.04
-5.52
-7.69
-10.45
-13.39
-15.98
-17.60
-17.84
-16.52
-13.81
-10.13
-6.03
-2.00
1.57
4.54
6.86
8.61
9.87
10.66
10.98
10.86
10.33
9.51
8.55
7.65
6.97
6.62
6.62
6.93
7.41
7.92
8.29
8.42
8.24
7.74
6.96
5.93
4.69
3.33
1.92
0.58
-0.63
-1.65
-2.50
-3.26
-4.02
-4.79
-5.57
-6.34
-7.13
-8.15
-9.69
-11.95
-14.87
-18.00
-20.58
-21.86
-21.37
-19.19
-15.82
-11.94
-8.11
-4.63
-1.54
1.22
3.64
5.63
7.07
7.96
8.42
8.63
8.70
8.66
8.45
8.03
7.41
6.71
6.09
5.64
5.44
5.45
5.61
5.81
5.96
5.99
5.86
5.57
5.08
4.41
3.51
2.40
1.14
-0.15
-1.35
-2.33
-3.08
-3.61
-4.00
-4.41
-5.04
-6.20
-8.16
-10.99
-14.44
-17.93
-20.70
-22.09
-21.82
-20.05
-17.25
-13.97
-10.59
-7.30
-4.15
-1.23
1.30
3.22
4.36
4.77
4.66
4.35
4.09
4.01
4.10
4.24
4.39
4.57
4.86
5.35
6.02
6.75
7.39
7.81
8.01
8.05
8.08
8.19
8.30
8.24
7.84
7.01
5.83
4.48
3.18
2.04
1.11
0.30
-0.52
-1.52
-2.87
-4.74
-7.17
-9.97
-12.75
-14.94
-15.96
-15.53
-13.69
-10.79
-7.32
-3.73
-0.30
2.83
5.54
7.71
9.20
9.97
10.14
9.97
9.77
9.74
9.92
10.22
10.49
10.64
10.64
10.51
10.25
9.88
9.43
8.96
8.61
8.45
8.41
8.32
7.90
6.94
5.41
3.45
1.33
-0.65
-2.30
-3.53
-4.37
-4.94
-5.38
-5.94
-6.89
-8.47
-10.81
-13.82
-17.11
-20.13
-22.21
-22.81
-21.64
-18.80
-14.73
-10.08
-5.58
-1.76
1.15
3.16
4.54
5.54
6.36
7.06
7.62
8.00
8.20
8.24
8.19
8.07
7.89
7.68
7.47
7.33
7.31
7.43
7.64
7.82
7.85
7.63
7.13
6.44
5.71
5.12
4.75
4.57
4.42
4.10
3.48
2.53
1.33
0.00
-1.37
-2.73
-4.11
-5.54
-7.13
-9.00
-11.29
-14.07
-17.16
-20.15
-22.43
-23.42
-22.78
-20.63
-17.46
-13.89
-10.47
-7.46
-4.87
-2.57
-0.46
1.45
3.10
4.41
5.41
6.22
6.96
7.72
8.44
8.99
9.22
9.07
8.63
8.09
7.67
7.51
7.59
7.79
7.92
7.89
7.71
7.47
7.31
7.24
7.19
6.98
6.44
5.51
4.26
2.87
1.50
0.22
-1.04
-2.37
-3.91
-5.68
-7.75
-10.15
-12.93
-16.02
-19.16
-21.83
-23.43
-23.44
-21.72
-18.54
-14.54
-10.37
-6.53
-3.22
-0.36
2.17
4.52
6.74
8.77
10.49
11.75
12.38
12.30
11.58
10.47
9.34
8.51
8.14
8.15
8.32
8.44
8.45
8.42
8.53
8.83
9.24
9.56
9.55
9.08
8.13
6.82
5.34
3.89
2.62
1.58
0.72
-0.08
-1.02
-2.33
-4.17
-6.62
-9.57
-12.69
-15.50
-17.44
-18.09
-17.25
-15.03
-11.85
-8.24
-4.69
-1.56
0.95
2.81
4.09
4.95
5.54
5.99
6.34
6.57
6.64
6.60
6.59
6.74
7.16
7.81
8.47
8.92
9.03
8.80
8.41
7.99
7.61
7.21
6.67
5.91
4.93
3.82
2.68
1.54
0.42
-0.72
-1.91
-3.12
-4.27
-5.26
-6.03
-6.58
-7.09
-7.84
-9.16
-11.26
-14.07
-17.16
-19.86
-21.47
-21.52
-19.94
-17.07
-13.45
-9.66
-6.07
-2.87
-0.07
2.41
4.60
6.50
8.08
9.28
10.06
10.39
10.31
9.87
9.22
8.52
7.94
7.60
7.50
7.57
7.71
7.84
7.89
7.86
7.75
7.59
7.38
7.11
6.76
6.27
5.59
4.67
3.52
2.18
0.75
-0.74
-2.27
-3.82
-5.38
-6.89
-8.35
-9.86
-11.65
-13.98
-16.91
-20.19
-23.14
-24.97
-25.05
-23.22
-19.88
-15.78
-11.65
-7.98
-4.85
-2.13
0.35
2.62
4.56
6.05
7.10
7.83
8.43
9.02
9.56
9.92
9.96
9.64
9.11
8.57
8.18
8.00
7.98
8.01
7.98
7.85
7.64
7.30
6.80
6.09
5.16
4.10
3.05
2.13
1.44
0.99
0.76
0.64
0.48
0.06
-0.93
-2.69
-5.27
-8.40
-11.52
-13.96
-15.17
-14.89
-13.26
-10.67
-7.60
-4.43
-1.34
1.55
4.20
6.53
8.45
9.87
10.73
11.03
10.79
10.12
9.17
8.16
7.33
6.84
6.77
7.02
7.45
7.86
8.12
8.14
7.95
7.62
7.23
6.84
6.41
5.83
4.97
3.75
2.17
0.37
-1.46
-3.16
-4.62
-5.81
-6.74
-7.47
-8.15
-9.02
-10.41
-12.60
-15.64
-19.18
-22.52
-24.82
-25.40
-24.07
-21.12
-17.24
-13.13
-9.32
-6.01
-3.14
-0.55
1.82
3.94
5.72
7.07
8.01
8.66
9.09
9.34
9.36
9.13
8.65
8.07
7.56
7.33
7.44
7.81
8.26
8.60
8.72
8.65
8.48
8.29
8.05
7.63
6.89
5.74
4.18
2.33
0.35
-1.65
-3.56
-5.29
-6.79
-8.06
-9.28
-10.73
-12.81
-15.71
-19.30
-22.96
-25.80
-26.95
-25.95
-22.93
-18.50
-13.48
-8.63
-4.32
-0.65
2.47
5.14
7.35
9.05
10.22
10.89
11.25
11.53
11.92
12.46
13.08
13.57
13.73
13.47
12.84
12.02
11.27
10.77
10.61
10.74
10.94
10.99
10.63
9.75
8.36
6.63
4.79
3.10
1.75
0.77
0.11
-0.37
-0.86
-1.62
-2.92
-4.95
-7.72
-10.97
-14.13
-16.54
-17.60
-17.00
-14.81
-11.45
-7.53
-3.61
-0.11
2.79
5.04
6.68
7.77
8.34
8.39
8.00
7.27
6.43
5.65
5.09
4.79
4.69
4.70
4.73
4.72
4.70
4.73
4.90
5.21
5.62
5.97
6.07
5.76
4.98
3.86
2.61
1.48
0.61
-0.02
-0.61
-1.34
-2.35
-3.55
-4.82
-6.07
-7.43
-9.21
-11.76
-15.12
-18.91
-22.35
-24.56
-24.91
-23.25
-19.97
-15.77
-11.36
-7.23
-3.61
-0.50
2.15
4.37
6.18
7.58
8.61
9.32
9.84
10.22
10.50
10.67
10.67
10.48
10.16
9.83
9.65
9.69
9.92
10.15
10.19
9.89
9.20
8.27
7.23
6.24
5.34
4.47
3.52
2.38
1.01
-0.58
-2.22
-3.73
-4.94
-5.77
-6.36
-6.94
-7.90
-9.55
-12.02
-15.22
-18.75
-21.99
-24.27
-25.03
-23.98
-21.26
-17.38
-13.05
-8.92
-5.42
-2.66
-0.52
1.21
2.69
3.97
5.02
5.84
6.44
6.88
7.25
7.60
7.95
8.31
8.65
8.99
9.33
9.68
10.06
10.43
10.74
10.89
10.81
10.42
9.67
8.62
7.38
6.07
4.84
3.74
2.72
1.68
0.48
-0.90
-2.31
-3.56
-4.43
-4.90
-5.24
-5.84
-7.10
-9.11
-11.57
-13.85
-15.27
-15.34
-14.00
-11.54
-8.48
-5.25
-2.09
0.93
3.85
6.58
8.94
10.67
11.63
11.82
11.41
10.68
9.86
9.10
8.45
7.92
7.48
7.17
6.99
6.92
6.90
6.86
6.76
6.60
6.38
6.11
5.69
5.02
3.97
2.58
0.98
-0.54
-1.75
-2.54
-2.96
-3.21
-3.57
-4.27
-5.48
-7.32
-9.78
-12.71
-15.76
-18.39
-20.05
-20.24
-18.81
-15.98
-12.25
-8.31
-4.74
-1.87
0.24
1.77
2.96
4.03
5.01
5.84
6.42
6.73
6.83
6.83
6.81
6.78
6.68
6.44
6.09
5.74
5.53
5.56
5.77
6.03
6.19
6.15
5.90
5.49
4.92
4.14
3.09
1.74
0.18
-1.41
-2.87
-4.11
-5.26
-6.53
-8.27
-10.65
-13.65
-16.93
-19.92
-22.02
-22.74
-21.90
-19.67
-16.40
-12.61
-8.71
-5.04
-1.78
1.00
3.29
5.17
6.76
8.16
9.38
10.36
10.98
11.13
10.87
10.34
9.72
9.15
8.66
8.16
7.57
6.87
6.11
5.37
4.69
4.03
3.31
2.46
1.46
0.37
-0.73
-1.69
-2.45
-2.95
-3.26
-3.44
-3.59
-3.82
-4.22
-4.91
-6.08
-7.87
-10.30
-13.17
-16.01
-18.20
-19.21
-18.73
-16.89
-14.03
-10.57
-6.84
-3.07
0.60
4.00
6.87
9.02
10.40
11.13
11.44
11.59
11.74
11.95
12.23
12.50
12.74
12.92
13.00
13.02
13.02
13.03
13.05
13.00
12.71
12.00
10.78
9.12
7.22
5.31
3.61
2.21
1.06
0.05
-0.96
-2.15
-3.66
-5.61
-8.05
-10.85
-13.69
-16.07
-17.47
-17.50
-16.07
-13.37
-9.88
-6.12
-2.56
0.49
2.94
4.81
6.22
7.28
8.02
8.47
8.64
8.56
8.31
8.00
7.70
7.49
7.36
7.31
7.33
7.40
7.50
7.59
7.62
7.60
7.52
7.39
7.19
6.81
6.14
5.06
3.59
1.89
0.18
-1.31
-2.50
-3.41
-4.17
-4.90
-5.75
-6.88
-8.52
-10.88
-14.04
-17.79
-21.52
-24.41
-25.74
-25.14
-22.74
-19.10
-14.97
-10.94
-7.36
-4.27
-1.56
0.85
2.99
4.84
6.35
7.49
8.34
8.93
9.35
9.60
9.68
9.62
9.40
9.09
8.72
8.33
7.96
7.64
7.38
7.21
7.14
7.09
7.03
6.85
6.52
6.00
5.30
4.42
3.37
2.15
0.78
-0.69
-2.15
-3.51
-4.70
-5.81
-7.04
-8.68
-10.99
-14.00
-17.45
-20.78
-23.30
-24.41
-23.77
-21.47
-17.91
-13.68
-9.35
-5.33
-1.87
0.95
3.20
4.97
6.36
7.45
8.26
8.79
9.04
9.07
8.97
8.82
8.68
8.53
8.29
7.96
7.57
7.24
7.10
7.19
7.44
7.71
7.91
8.03
8.17
8.36
8.56
8.60
8.25
7.40
6.11
4.63
3.26
2.21
1.53
1.04
0.51
-0.37
-1.85
-4.09
-7.12
-10.74
-14.50
-17.71
-19.71
-19.98
-18.42
-15.33
-11.37
-7.26
-3.53
-0.43
2.05
4.07
5.77
7.22
8.41
9.31
9.96
10.41
10.71
10.88
10.86
10.60
10.14
9.58
9.11
8.88
8.91
9.04
9.04
8.70
8.00
7.12
6.34
5.85
5.68
5.65
5.43
4.76
3.56
1.96
0.25
-1.35
-2.70
-3.88
-5.04
-6.41
-8.10
-10.18
-12.65
-15.48
-18.50
-21.40
-23.75
-25.05
-24.93
-23.27
-20.30
-16.53
-12.53
-8.79
-5.52
-2.76
-0.40
1.65
3.46
5.07
6.47
7.71
8.74
9.50
9.88
9.83
9.39
8.72
8.05
7.57
7.38
7.47
7.71
7.97
8.14
8.17
8.04
7.81
7.53
7.24
6.94
6.57
5.99
5.08
3.71
1.89
-0.28
-2.56
-4.68
-6.42
-7.68
-8.58
-9.43
-10.66
-12.68
-15.56
-18.99
-22.26
-24.50
-25.00
-23.49
-20.22
-15.84
-11.13
-6.72
-3.00
-0.03
2.29
4.14
5.69
7.06
8.30
9.37
10.16
10.53
10.42
9.89
9.12
8.32
7.66
7.20
6.89
6.64
6.43
6.33
6.44
6.86
7.52
8.25
8.82
9.03
8.83
8.27
7.45
6.47
5.36
4.14
2.78
1.29
-0.33
-2.11
-4.11
-6.38
-8.90
-11.48
-13.78
-15.39
-15.94
-15.22
-13.28
-10.37
-6.88
-3.24
0.23
3.32
5.91
7.99
9.55
10.61
11.21
11.37
11.18
10.74
10.16
9.54
8.95
8.42
8.01
7.74
7.62
7.61
7.63
7.54
7.27
6.81
6.23
5.66
5.17
4.75
4.31
3.71
2.89
1.84
0.64
-0.61
-1.87
-3.16
-4.56
-6.18
-8.11
-10.42
-13.12
-16.10
-19.12
-21.83
-23.77
-24.58
-24.07
-22.33
-19.63
-16.37
-12.92
-9.52
-6.29
-3.28
-0.53
1.91
3.97
5.55
6.64
7.26
7.53
7.63
7.70
7.84
8.03
8.20
8.29
8.29
8.25
8.21
8.23
8.29
8.33
8.33
8.25
8.09
7.81
7.32
6.50
5.24
3.53
1.51
-0.60
-2.52
-4.11
-5.33
-6.30
-7.32
-8.65
-10.53
-13.01
-15.92
-18.84
-21.19
-22.42
-22.19
-20.48
-17.63
-14.18
-10.70
-7.58
-4.98
-2.84
-1.01
0.64
2.18
3.59
4.80
5.74
6.37
6.71
6.85
6.94
7.13
7.51
8.06
8.63
9.06
9.25
9.18
8.89
8.49
8.05
7.63
7.26
6.94
6.70
6.47
6.16
5.63
4.75
3.49
1.95
0.30
-1.23
-2.50
-3.50
-4.38
-5.39
-6.83
-8.87
-11.43
-14.16
-16.49
-17.79
-17.60
-15.80
-12.66
-8.74
-4.68
-0.95
2.17
4.69
6.74
8.48
9.96
11.14
11.90
12.16
11.91
11.25
10.34
9.38
8.49
7.75
7.17
6.76
6.54
6.54
6.85
7.44
8.18
8.83
9.12
8.85
8.04
6.84
5.52
4.32
3.31
2.41
1.43
0.20
-1.33
-3.15
-5.17
-7.35
-9.75
-12.42
-15.32
-18.24
-20.71
-22.23
-22.36
-20.93
-18.13
-14.43
-10.39
-6.50
-3.03
-0.03
2.57
4.84
6.79
8.35
9.42
9.98
10.09
9.91
9.64
9.47
9.53
9.85
10.35
10.88
11.25
11.30
10.96
10.29
9.38
8.35
7.24
6.02
4.64
3.09
1.46
-0.08
-1.40
-2.43
-3.19
-3.79
-4.32
-4.83
-5.31
-5.79
-6.34
-7.21
-8.68
-10.93
-13.92
-17.23
-20.20
-22.08
-22.31
-20.78
-17.78
-13.92
-9.84
-5.99
-2.57
0.39
2.90
4.91
6.36
7.25
7.69
7.90
8.10
8.41
8.78
9.03
8.96
8.53
7.85
7.21
6.86
6.92
7.31
7.78
8.02
7.80
7.09
6.04
4.91
3.90
3.15
2.60
2.20
1.84
1.51
1.17
0.79
0.30
-0.30
-1.02
-1.80
-2.61
-3.51
-4.65
-6.28
-8.52
-11.34
-14.44
-17.34
-19.50
-20.49
-20.06
-18.17
-15.01
-10.93
-6.44
-2.08
1.65
4.47
6.35
7.49
8.20
8.75
9.22
9.60
9.81
9.81
9.66
9.49
9.40
9.42
9.47
9.43
9.24
8.94
8.62
8.43
8.43
8.60
8.78
8.80
8.51
7.88
6.99
6.06
5.22
4.54
3.92
3.17
2.18
0.91
-0.58
-2.20
-3.96
-5.97
-8.36
-11.13
-14.02
-16.51
-18.04
-18.21
-16.93
-14.50
-11.40
-8.12
-5.01
-2.22
0.22
2.36
4.22
5.83
7.21
8.37
9.34
10.09
10.56
10.71
10.57
10.25
9.88
9.59
9.46
9.48
9.57
9.60
9.46
9.03
8.31
7.38
6.40
5.55
4.91
4.43
3.94
3.20
2.05
0.45
-1.49
-3.53
-5.43
-7.00
-8.16
-8.93
-9.47
-10.07
-11.12
-12.91
-15.60
-18.96
-22.45
-25.25
-26.65
-26.17
-23.85
-20.15
-15.83
-11.61
-8.01
-5.17
-2.96
-1.11
0.61
2.29
3.94
5.44
6.72
7.77
8.59
9.18
9.51
9.52
9.22
8.68
8.09
7.66
7.51
7.61
7.77
7.75
7.40
6.67
5.70
4.70
3.86
3.27
2.89
2.58
2.18
1.55
0.70
-0.29
-1.29
-2.19
-2.97
-3.71
-4.56
-5.72
-7.36
-9.53
-12.17
-15.01
-17.58
-19.31
-19.69
-18.45
-15.65
-11.76
-7.41
-3.22
0.39
3.30
5.63
7.53
9.14
10.48
11.50
12.13
12.32
12.09
11.52
10.75
9.93
9.18
8.60
8.22
8.07
8.12
8.33
8.63
8.92
9.05
8.94
8.54
7.86
6.98
5.93
4.75
3.52
2.34
1.36
0.66
0.24
-0.03
-0.39
-1.15
-2.56
-4.74
-7.63
-10.98
-14.29
-16.98
-18.44
-18.31
-16.61
-13.69
-10.19
-6.74
-3.72
-1.25
0.76
2.49
4.04
5.44
6.69
7.82
8.88
9.90
10.94
11.98
13.01
14.07
15.22
16.51
17.99
19.59
21.22
22.73
23.99
24.92
25.54
25.90
26.11
26.24
26.26
26.04
25.36
24.01
21.84
18.90
15.41
11.65
7.91
4.37
1.05
-2.14
-5.39
-8.89
-12.72
-16.83
-20.91
-24.46
-26.88
-27.65
-26.57
-23.80
-19.87
-15.44
-11.16
-7.38
-4.23
-1.62
0.56
2.40
3.93
5.15
6.10
6.86
7.52
8.10
8.57
8.87
8.95
8.88
8.76
8.71
8.82
9.06
9.35
9.61
9.86
10.20
10.79
11.77
13.18
14.88
16.62
18.10
19.00
19.08
18.17
16.23
13.38
9.86
5.95
1.86
-2.35
-6.75
-11.37
-16.06
-20.39
-23.75
-25.60
-25.67
-24.16
-21.59
-18.59
-15.68
-13.14
-11.04
-9.38
-8.17
-7.41
-7.06
-7.02
-7.17
-7.46
-7.96
-8.78
-10.01
-11.58
-13.28
-14.85
-16.09
-16.89
-17.24
-17.13
-16.50
-15.28
-13.43
-11.05
-8.37
-5.64
-3.11
-0.93
0.84
2.13
2.83
2.77
1.73
-0.47
-3.83
-8.09
-12.72
-17.01
-20.18
-21.67
-21.28
-19.25
-16.17
-12.69
-9.31
-6.24
-3.44
-0.81
1.67
3.86
5.58
6.70
7.28
7.55
7.73
7.92
8.01
7.80
7.07
5.77
4.03
2.06
0.12
-1.62
-3.09
-4.25
-5.10
-5.63
-5.80
-5.56
-4.93
-3.97
-2.81
-1.62
-0.61
0.05
0.23
-0.15
-1.19
-2.97
-5.55
-8.92
-12.84
-16.82
-20.23
-22.44
-23.07
-22.12
-19.92
-17.01
-13.89
-10.87
-8.05
-5.43
-3.06
-1.03
0.47
1.31
1.45
0.98
0.12
-0.85
-1.65
-2.03
-1.84
-1.11
0.02
1.29
2.41
3.20
3.58
3.63
3.47
3.25
3.09
3.02
3.05
3.05
2.92
2.56
1.98
1.27
0.60
0.07
-0.32
-0.75
-1.55
-3.07
-5.53
-8.87
-12.70
-16.39
-19.27
-20.85
-20.92
-19.62
-17.29
-14.29
-10.91
-7.31
-3.68
-0.22
2.83
5.25
6.99
8.17
9.02
9.70
10.21
10.45
10.22
9.47
8.29
6.96
5.76
4.96
4.66
4.84
5.42
6.27
7.22
8.05
8.52
8.44
7.70
6.40
4.77
3.10
1.63
0.44
-0.56
-1.63
-3.08
-5.15
-7.95
-11.35
-15.00
-18.37
-20.89
-22.02
-21.46
-19.21
-15.57
-11.13
-6.56
-2.44
0.87
3.35
5.19
6.71
8.10
9.41
10.48
11.11
11.20
10.83
10.22
9.65
9.32
9.30
9.52
9.86
10.20
10.41
10.40
10.02
9.10
7.52
5.28
2.61
-0.08
-2.30
-3.73
-4.35
-4.46
-4.60
-5.26
-6.74
-9.13
-12.32
-16.08
-20.08
-23.83
-26.76
-28.27
-27.95
-25.77
-22.11
-17.62
-13.00
-8.69
-4.84
-1.33
2.05
5.40
8.68
11.62
13.95
15.44
16.04
15.88
15.22
14.31
13.35
12.39
11.45
10.62
10.03
9.81
9.99
10.46
10.95
11.20
11.03
10.49
9.71
8.87
8.07
7.28
6.40
5.33
4.04
2.57
1.01
-0.54
-2.11
-3.80
-5.80
-8.26
-11.15
-14.17
-16.77
-18.29
-18.19
-16.27
-12.77
-8.29
-3.55
0.82
4.44
7.22
9.27
10.79
11.96
12.94
13.85
14.75
15.67
16.58
17.34
17.84
18.01
17.88
17.62
17.41
17.35
17.48
17.76
18.10
18.49
18.86
19.20
19.40
19.36
18.97
18.13
16.76
14.78
12.13
8.81
4.88
0.61
-3.63
-7.42
-10.32
-12.05
-12.64
-12.43
-12.04
-12.12
-13.14
-15.14
-17.66
-19.92
-21.17
-20.97
-19.34
-16.68
-13.49
-10.14
-6.84
-3.63
-0.55
2.34
4.89
6.98
8.54
9.56
10.11
10.27
10.13
9.84
9.53
9.30
9.25
9.37
9.64
9.99
10.36
10.64
10.73
10.52
9.96
9.09
8.01
6.81
5.56
4.23
2.81
1.36
-0.03
-1.25
-2.27
-3.25
-4.46
-6.17
-8.52
-11.41
-14.45
-17.15
-18.99
-19.58
-18.76
-16.65
-13.56
-9.94
-6.19
-2.59
0.76
3.91
6.95
9.90
12.64
14.94
16.54
17.26
17.09
16.17
14.79
13.21
11.66
10.28
9.12
8.15
7.25
6.33
5.30
4.17
3.00
1.84
0.75
-0.30
-1.37
-2.50
-3.69
-4.90
-6.05
-7.14
-8.23
-9.37
-10.56
-11.65
-12.44
-12.84
-12.99
-13.25
-13.95
-15.16
-16.48
-17.17
-16.52
-14.21
-10.54
-6.23
-2.08
1.45
4.34
6.85
9.23
11.46
13.22
14.22
14.31
13.67
12.66
11.61
10.68
9.78
8.75
7.49
6.08
4.77
3.79
3.28
3.21
3.42
3.69
3.83
3.74
3.40
2.81
2.01
1.06
0.03
-1.01
-2.03
-3.06
-4.16
-5.48
-7.11
-9.11
-11.45
-14.04
-16.79
-19.58
-22.29
-24.73
-26.59
-27.47
-27.00
-25.01
-21.63
-17.29
-12.61
-8.15
-4.29
-1.12
1.50
3.74
5.68
7.24
8.23
8.49
8.05
7.11
6.02
5.04
4.35
3.89
3.59
3.38
3.29
3.42
3.85
4.51
5.26
5.91
6.35
6.54
6.49
6.20
5.62
4.67
3.34
1.72
0.02
-1.56
-2.88
-4.05
-5.33
-7.08
-9.53
-12.63
-15.96
-18.81
-20.50
-20.57
-18.96
-16.03
-12.30
-8.30
-4.40
-0.76
2.54
5.46
7.91
9.77
10.94
11.40
11.28
10.79
10.20
9.74
9.52
9.47
9.41
9.16
8.62
7.86
7.06
6.38
5.89
5.54
5.21
4.84
4.42
4.02
3.66
3.28
2.75
1.93
0.84
-0.34
-1.35
-2.00
-2.32
-2.62
-3.37
-4.97
-7.52
-10.72
-13.91
-16.33
-17.38
-16.79
-14.67
-11.43
-7.54
-3.43
0.58
4.34
7.76
10.80
13.46
15.70
17.47
18.69
19.27
19.22
18.56
17.47
16.15
14.78
13.46
12.20
10.96
9.71
8.48
7.36
6.43
5.68
5.04
4.37
3.58
2.60
1.47
0.25
-1.04
-2.42
-3.90
-5.50
-7.10
-8.58
-9.81
-10.73
-11.44
-12.11
-12.98
-14.19
-15.77
-17.51
-19.00
-19.79
-19.51
-18.06
-15.62
-12.62
-9.54
-6.76
-4.41
-2.44
-0.67
1.08
2.92
4.84
6.80
8.64
10.18
11.25
11.71
11.49
10.68
9.44
7.98
6.51
5.16
4.07
3.35
3.08
3.28
3.77
4.29
4.55
4.37
3.81
3.11
2.53
2.25
2.19
2.16
1.83
0.97
-0.54
-2.75
-5.61
-8.97
-12.58
-15.99
-18.69
-20.17
-20.16
-18.66
-15.94
-12.42
-8.48
-4.38
-0.28
3.71
7.34
10.25
12.11
12.70
12.11
10.71
8.99
7.41
6.27
5.68
5.64
6.03
6.73
7.53
8.20
8.52
8.33
7.63
6.57
5.35
4.17
3.12
2.15
1.20
0.23
-0.75
-1.63
-2.35
-2.91
-3.39
-3.93
-4.65
-5.62
-6.86
-8.42
-10.32
-12.55
-14.93
-17.11
-18.56
-18.78
-17.51
-14.83
-11.12
-6.96
-2.90
0.73
3.82
6.42
8.65
10.53
12.01
13.00
13.39
13.19
12.61
11.92
11.46
11.42
11.77
12.25
12.54
12.42
11.86
11.13
10.52
10.24
10.33
10.61
10.85
10.91
10.77
10.48
10.07
9.45
8.50
7.15
5.44
3.57
1.75
0.06
-1.59
-3.52
-6.06
-9.38
-13.36
-17.52
-21.19
-23.64
-24.36
-23.20
-20.45
-16.73
-12.80
-9.27
-6.52
-4.56
-3.21
-2.14
-1.11
-0.02
1.12
2.23
3.20
3.97
4.50
4.76
4.74
4.46
3.99
3.44
2.99
2.81
3.01
3.60
4.45
5.36
6.06
6.36
6.13
5.35
4.09
2.51
0.84
-0.67
-1.77
-2.38
-2.60
-2.77
-3.37
-4.82
-7.35
-10.79
-14.65
-18.22
-20.82
-21.96
-21.42
-19.31
-15.91
-11.62
-6.90
-2.23
1.98
5.44
8.04
9.87
11.13
12.05
12.78
13.38
13.77
13.86
13.59
12.97
12.09
11.08
10.11
9.29
8.68
8.28
8.03
7.85
7.64
7.34
6.84
6.10
5.07
3.83
2.50
1.30
0.37
-0.27
-0.76
-1.32
-2.19
-3.52
-5.32
-7.55
-10.15
-13.07
-16.27
-19.58
-22.62
-24.87
-25.75
-24.87
-22.25
-18.32
-13.76
-9.30
-5.46
-2.40
-0.01
1.94
3.68
5.27
6.65
7.70
8.31
8.47
8.23
7.72
7.07
6.40
5.76
5.15
4.55
3.88
3.11
2.16
1.05
-0.24
-1.64
-3.05
-4.37
-5.41
-6.03
-6.08
-5.52
-4.35
-2.77
-1.07
0.39
1.29
1.41
0.73
-0.60
-2.26
-3.82
-4.79
-4.75
-3.44
-0.96
2.32
5.79
8.85
11.06
12.31
12.74
12.61
12.26
11.87
11.64
11.63
11.85
12.21
12.51
12.50
11.96
10.82
9.14
7.05
4.75
2.40
0.08
-2.14
-4.16
-5.89
-7.19
-7.93
-8.05
-7.58
-6.70
-5.69
-4.89
-4.58
-4.92
-5.87
-7.30
-9.02
-10.93
-13.02
-15.38
-18.11
-21.16
-24.30
-27.11
-29.11
-29.86
-29.15
-27.01
-23.68
-19.57
-15.08
-10.59
-6.39
-2.68
0.40
2.83
4.70
6.17
7.45
8.70
9.93
11.03
11.82
12.21
12.21
11.95
11.59
11.17
10.60
9.74
8.50
6.99
5.50
4.35
3.73
3.58
3.65
3.57
3.11
2.27
1.24
0.30
-0.39
-0.86
-1.33
-2.10
-3.33
-5.05
-7.12
-9.39
-11.77
-14.23
-16.63
-18.70
-19.97
-19.99
-18.56
-15.88
-12.53
-9.26
-6.68
-5.03
-4.13
-3.60
-3.02
-2.13
-0.87
0.69
2.48
4.43
6.52
8.65
10.63
12.21
13.18
13.46
13.15
12.45
11.62
10.89
10.32
9.96
9.77
9.72
9.79
9.89
9.90
9.67
9.13
8.30
7.36
6.53
5.95
5.56
5.18
4.47
3.14
0.99
-1.96
-5.48
-9.13
-12.31
-14.43
-15.01
-13.88
-11.22
-7.54
-3.53
0.19
3.21
5.47
7.15
8.54
9.87
11.19
12.37
13.22
13.58
13.39
12.76
11.86
10.92
10.10
9.50
9.13
8.91
8.77
8.62
8.48
8.37
8.33
8.32
8.23
7.91
7.25
6.28
5.10
3.91
2.81
1.84
0.90
-0.12
-1.28
-2.59
-4.07
-5.82
-8.00
-10.76
-14.05
-17.56
-20.70
-22.75
-23.15
-21.73
-18.71
-14.64
-10.21
-5.95
-2.20
0.95
3.54
5.64
7.33
8.68
9.68
10.34
10.63
10.57
10.19
9.60
8.97
8.46
8.18
8.14
8.30
8.56
8.88
9.20
9.50
9.75
9.91
9.88
9.59
9.01
8.19
7.19
6.14
5.13
4.19
3.27
2.27
1.08
-0.33
-1.88
-3.42
-4.82
-6.07
-7.39
-9.12
-11.53
-14.58
-17.81
-20.46
-21.83
-21.55
-19.74
-16.97
-13.85
-10.84
-8.09
-5.54
-3.15
-0.95
0.94
2.44
3.65
4.76
5.98
7.30
8.51
9.26
9.31
8.64
7.48
6.22
5.23
4.73
4.71
5.02
5.36
5.47
5.22
4.61
3.79
2.98
2.39
2.11
2.11
2.22
2.26
2.06
1.52
0.68
-0.37
-1.47
-2.50
-3.37
-4.09
-4.77
-5.56
-6.70
-8.37
-10.66
-13.43
-16.28
-18.63
-19.90
-19.69
-17.95
-14.96
-11.21
-7.27
-3.55
-0.32
2.36
4.50
6.19
7.51
8.59
9.50
10.28
10.93
11.36
11.49
11.24
10.60
9.67
8.55
7.43
6.40
5.54
4.81
4.12
3.36
2.52
1.66
0.90
0.34
-0.03
-0.27
-0.51
-0.84
-1.26
-1.72
-2.16
-2.55
-2.94
-3.51
-4.48
-6.02
-8.19
-10.81
-13.47
-15.59
-16.62
-16.20
-14.31
-11.26
-7.62
-3.94
-0.64
2.15
4.45
6.41
8.12
9.59
10.73
11.45
11.64
11.30
10.57
9.62
8.69
7.95
7.44
7.07
6.71
6.28
5.86
5.67
5.87
6.48
7.23
7.74
7.63
6.84
5.58
4.27
3.27
2.68
2.32
1.88
1.09
-0.08
-1.49
-2.96
-4.46
-6.13
-8.22
-10.84
-13.88
-16.86
-19.17
-20.24
-19.82
-18.06
-15.42
-12.45
-9.63
-7.13
-4.94
-2.94
-1.05
0.66
2.07
3.07
3.65
3.98
4.25
4.59
5.00
5.35
5.49
5.41
5.23
5.17
5.40
5.90
6.49
6.86
6.80
6.24
5.35
4.33
3.36
2.47
1.61
0.67
-0.37
-1.43
-2.39
-3.13
-3.57
-3.77
-3.83
-3.92
-4.29
-5.16
-6.67
-8.75
-11.07
-13.09
-14.25
-14.12
-12.55
-9.75
-6.14
-2.24
1.45
4.62
7.11
8.95
10.24
11.10
11.62
11.79
11.58
10.97
9.98
8.70
7.33
6.06
5.07
4.45
4.18
4.21
4.45
4.80
5.23
5.64
5.88
5.80
5.28
4.33
3.12
1.91
0.96
0.40
0.16
0.03
-0.28
-1.02
-2.40
-4.47
-7.14
-10.15
-13.07
-15.36
-16.49
-16.12
-14.27
-11.32
-7.86
-4.50
-1.67
0.46
1.98
3.11
4.04
4.82
5.39
5.64
5.53
5.14
4.64
4.25
4.09
4.19
4.49
4.89
5.29
5.69
6.09
6.53
7.02
7.50
7.89
8.11
8.08
7.78
7.16
6.20
4.95
3.49
1.91
0.36
-1.05
-2.31
-3.47
-4.68
-6.12
-7.97
-10.27
-12.95
-15.72
-18.14
-19.71
-20.03
-18.96
-16.64
-13.49
-10.01
-6.65
-3.69
-1.22
0.84
2.60
4.13
5.41
6.38
6.98
7.20
7.16
7.01
6.92
6.95
7.07
7.20
7.25
7.19
7.07
7.01
7.06
7.22
7.42
7.55
7.48
7.14
6.50
5.54
4.25
2.67
0.89
-0.93
-2.59
-3.86
-4.67
-5.12
-5.59
-6.61
-8.64
-11.83
-15.84
-19.94
-23.18
-24.78
-24.33
-21.98
-18.22
-13.71
-9.01
-4.54
-0.52
2.86
5.49
7.31
8.38
8.94
9.31
9.80
10.56
11.58
12.66
13.54
14.04
14.04
13.52
12.55
11.27
9.88
8.59
7.60
7.05
6.90
6.98
7.11
7.08
6.83
6.32
5.56
4.57
3.32
1.80
0.10
-1.69
-3.46
-5.26
-7.23
-9.59
-12.41
-15.47
-18.25
-20.10
-20.48
-19.20
-16.51
-12.96
-9.13
-5.46
-2.15
0.77
3.32
5.46
7.10
8.21
8.83
9.10
9.15
9.09
8.91
8.57
8.08
7.49
6.89
6.36
5.88
5.40
4.93
4.50
4.21
4.12
4.16
4.13
3.78
2.93
1.57
-0.09
-1.78
-3.22
-4.27
-4.96
-5.36
-5.60
-5.79
-5.98
-6.27
-6.77
-7.63
-8.90
-10.48
-12.08
-13.31
-13.76
-13.17
-11.48
-8.88
-5.68
-2.25
1.11
4.23
7.00
9.39
11.36
12.89
14.02
14.78
15.23
15.39
15.19
14.58
13.56
12.25
10.90
9.82
9.20
9.07
9.31
9.65
9.92
9.99
9.86
9.60
9.33
9.10
8.92
8.70
8.31
7.61
6.52
5.11
3.55
2.08
0.87
-0.10
-1.02
-2.26
-4.19
-7.02
-10.74
-15.03
-19.32
-22.96
-25.37
-26.20
-25.41
-23.25
-20.13
-16.49
-12.66
-8.90
-5.37
-2.23
0.39
2.36
3.62
4.19
4.18
3.72
2.99
2.15
1.36
0.78
0.51
0.59
0.98
1.48
1.82
1.75
1.14
-0.01
-1.47
-2.90
-3.99
-4.53
-4.48
-3.95
-3.10
-2.10
-1.10
-0.15
0.74
1.62
2.54
3.51
4.48
5.33
5.84
5.77
4.90
3.11
0.43
-2.89
-6.38
-9.49
-11.62
-12.41
-11.75
-9.88
-7.20
-4.21
-1.31
1.29
3.55
5.51
7.19
8.57
9.57
10.15
10.30
10.13
9.78
9.41
9.08
8.75
8.29
7.52
6.38
4.91
3.31
1.85
0.75
0.15
0.01
0.19
0.51
0.82
0.96
0.86
0.48
-0.20
-1.12
-2.23
-3.40
-4.55
-5.60
-6.65
-7.91
-9.67
-12.18
-15.48
-19.34
-23.27
-26.64
-28.88
-29.66
-28.91
-26.80
-23.68
-19.91
-15.85
-11.77
-7.97
-4.65
-1.96
0.02
1.34
2.12
2.56
2.79
2.94
3.00
2.90
2.57
2.00
1.29
0.59
0.16
0.18
0.81
2.05
3.79
5.80
7.80
9.50
10.80
11.67
12.21
12.61
12.97
13.38
13.79
14.14
14.37
14.39
14.14
13.61
12.77
11.65
10.30
8.79
7.18
5.53
3.91
2.39
1.05
-0.03
-0.89
-1.66
-2.54
-3.84
-5.81
-8.48
-11.64
-14.80
-17.40
-18.92
-19.12
-18.04
-15.99
-13.36
-10.52
-7.75
-5.21
-3.00
-1.12
0.47
1.88
3.29
4.82
6.50
8.21
9.71
10.77
11.28
11.28
10.90
10.35
9.75
9.13
8.47
7.73
6.95
6.23
5.67
5.29
5.01
4.66
4.09
3.23
2.13
1.02
0.13
-0.37
-0.51
-0.52
-0.77
-1.61
-3.25
-5.66
-8.55
-11.46
-13.85
-15.30
-15.56
-14.61
-12.66
-10.05
-7.13
-4.18
-1.36
1.27
3.71
5.96
7.93
9.52
10.65
11.31
11.58
11.62
11.56
11.44
11.19
10.73
9.97
8.98
7.91
6.93
6.16
5.63
5.29
5.02
4.73
4.33
3.76
3.00
2.06
1.03
0.04
-0.78
-1.35
-1.71
-1.97
-2.34
-3.07
-4.39
-6.48
-9.39
-12.92
-16.60
-19.76
-21.71
-22.02
-20.64
-17.96
-14.53
-10.88
-7.32
-3.92
-0.65
2.42
5.06
7.02
8.09
8.31
7.94
7.36
6.94
6.90
7.26
7.87
8.52
9.03
9.30
9.28
9.01
8.55
7.93
7.23
6.50
5.76
5.00
4.15
3.13
1.89
0.52
-0.84
-2.02
-2.90
-3.49
-3.96
-4.60
-5.71
-7.58
-10.30
-13.73
-17.51
-21.00
-23.52
-24.49
-23.65
-21.14
-17.47
-13.26
-9.11
-5.35
-2.06
0.82
3.40
5.74
7.78
9.44
10.68
11.47
11.83
11.78
11.37
10.70
9.93
9.25
8.84
8.72
8.82
8.95
8.92
8.64
8.08
7.31
6.39
5.37
4.24
2.99
1.59
0.09
-1.46
-2.92
-4.15
-5.08
-5.69
-6.08
-6.49
-7.25
-8.67
-10.89
-13.80
-16.99
-19.86
-21.77
-22.27
-21.22
-18.81
-15.46
-11.62
-7.70
-3.98
-0.65
2.19
4.48
6.25
7.56
8.47
9.09
9.47
9.69
9.86
10.08
10.39
10.78
11.15
11.42
11.55
11.59
11.62
11.69
11.77
11.75
11.48
10.86
9.87
8.56
7.08
5.55
4.13
2.94
2.06
1.47
1.06
0.62
-0.16
-1.57
-3.79
-6.80
-10.38
-14.03
-17.12
-19.02
-19.28
-17.82
-14.89
-11.04
-6.90
-3.01
0.33
3.03
5.15
6.79
8.00
8.83
9.30
9.45
9.35
9.09
8.68
8.14
7.52
6.85
6.23
5.73
5.40
5.20
5.12
5.12
5.16
5.23
5.23
5.07
4.63
3.89
2.93
1.92
1.03
0.34
-0.19
-0.68
-1.30
-2.23
-3.63
-5.61
-8.27
-11.60
-15.32
-18.93
-21.74
-23.08
-22.54
-20.16
-16.43
-12.04
-7.71
-3.88
-0.70
1.89
4.03
5.79
7.16
8.07
8.48
8.47
8.17
7.75
7.32
6.94
6.60
6.32
6.07
5.86
5.69
5.59
5.56
5.62
5.79
6.07
6.34
6.48
6.32
5.75
4.72
3.32
1.68
-0.03
-1.65
-3.05
-4.24
-5.31
-6.50
-8.07
-10.25
-13.07
-16.25
-19.24
-21.34
-21.97
-20.85
-18.10
-14.19
-9.77
-5.42
-1.53
1.71
4.28
6.21
7.55
8.38
8.77
8.86
8.78
8.63
8.51
8.42
8.30
8.11
7.82
7.45
7.05
6.66
6.30
5.98
5.68
5.42
5.21
5.06
4.94
4.77
4.48
3.98
3.29
2.45
1.54
0.59
-0.43
-1.54
-2.75
-4.06
-5.48
-7.08
-9.00
-11.31
-13.93
-16.56
-18.70
-19.80
-19.44
-17.54
-14.33
-10.29
-5.94
-1.73
2.06
5.25
7.76
9.58
10.72
11.31
11.53
11.54
11.52
11.52
11.56
11.60
11.55
11.35
10.94
10.35
9.63
8.92
8.32
7.89
7.61
7.33
6.88
6.17
5.19
4.04
2.88
1.81
0.82
-0.12
-1.10
-2.15
-3.30
-4.63
-6.34
-8.63
-11.58
-14.97
-18.21
-20.50
-21.12
-19.80
-16.76
-12.69
-8.37
-4.43
-1.12
1.57
3.77
5.54
6.84
7.65
8.00
8.05
8.00
8.00
8.11
8.25
8.31
8.28
8.23
8.30
8.55
8.97
9.44
9.72
9.65
9.13
8.21
7.03
5.74
4.47
3.24
2.01
0.71
-0.64
-1.94
-3.05
-3.83
-4.28
-4.50
-4.72
-5.24
-6.37
-8.34
-11.18
-14.69
-18.42
-21.73
-23.95
-24.64
-23.59
-21.03
-17.41
-13.32
-9.22
-5.43
-2.07
0.81
3.21
5.07
6.39
7.19
7.54
7.61
7.56
7.50
7.47
7.46
7.43
7.35
7.27
7.23
7.31
7.53
7.84
8.11
8.21
8.07
7.71
7.21
6.66
6.10
5.50
4.77
3.87
2.80
1.64
0.43
-0.77
-2.01
-3.39
-5.02
-7.05
-9.56
-12.56
-15.83
-18.96
-21.43
-22.70
-22.46
-20.68
-17.65
-13.86
-9.81
-5.96
-2.55
0.32
2.67
4.59
6.16
7.41
8.38
9.04
9.41
9.59
9.70
9.88
10.16
10.50
10.78
10.93
10.93
10.90
10.98
11.27
11.72
12.16
12.35
12.10
11.34
10.19
8.91
7.76
6.93
6.41
6.01
5.38
4.23
2.35
-0.27
-3.51
-7.16
-10.91
-14.46
-17.42
-19.39
-20.11
-19.44
-17.54
-14.69
-11.29
-7.68
-4.09
-0.65
2.53
5.33
7.64
9.33
10.37
10.78
10.64
10.11
9.34
8.52
7.78
7.23
6.89
6.74
6.72
6.74
6.74
6.70
6.62
6.50
6.36
6.13
5.75
5.12
4.20
3.02
1.65
0.22
-1.14
-2.36
-3.42
-4.39
-5.40
-6.68
-8.48
-10.99
-14.22
-17.93
-21.60
-24.57
-26.23
-26.20
-24.48
-21.35
-17.33
-12.96
-8.66
-4.72
-1.27
1.64
4.01
5.91
7.43
8.66
9.60
10.24
10.51
10.40
10.01
9.54
9.18
9.07
9.17
9.32
9.35
9.17
8.84
8.51
8.29
8.16
7.99
7.57
6.82
5.76
4.58
3.49
2.56
1.77
0.95
-0.07
-1.40
-3.04
-4.99
-7.27
-9.93
-12.96
-16.24
-19.36
-21.75
-22.82
-22.18
-19.80
-16.09
-11.66
-7.19
-3.21
0.06
2.56
4.40
5.68
6.51
6.96
7.08
6.96
6.70
6.38
6.10
5.89
5.76
5.70
5.65
5.59
5.53
5.51
5.61
5.83
6.17
6.49
6.69
6.64
6.36
5.91
5.42
4.95
4.56
4.17
3.71
3.09
2.20
0.99
-0.57
-2.54
-4.94
-7.70
-10.59
-13.22
-15.13
-15.91
-15.36
-13.56
-10.83
-7.62
-4.39
-1.42
1.19
3.48
5.49
7.22
8.59
9.43
9.66
9.32
8.60
7.82
7.32
7.25
7.57
8.01
8.27
8.14
7.60
6.86
6.16
5.71
5.54
5.51
5.42
5.07
4.40
3.46
2.36
1.22
0.13
-0.92
-2.00
-3.19
-4.63
-6.49
-8.91
-11.94
-15.44
-18.99
-21.99
-23.78
-23.89
-22.23
-19.13
-15.19
-11.06
-7.25
-3.98
-1.26
0.99
2.87
4.42
5.61
6.45
7.00
7.38
7.73
8.13
8.64
9.20
9.72
10.12
10.34
10.39
10.27
10.02
9.67
9.19
8.58
7.77
6.74
5.46
3.98
2.43
0.90
-0.44
-1.53
-2.38
-3.09
-3.85
-4.88
-6.42
-8.60
-11.44
-14.74
-18.10
-21.03
-23.00
-23.65
-22.80
-20.55
-17.15
-13.02
-8.60
-4.31
-0.48
2.65
5.04
6.75
7.93
8.74
9.29
9.66
9.85
9.92
9.90
9.81
9.64
9.28
8.60
7.49
5.93
4.01
1.93
-0.15
-2.11
-3.92
-5.53
-6.85
-7.71
-7.93
-7.40
-6.21
-4.59
-2.87
-1.31
-0.12
0.59
0.66
-0.10
-1.87
-4.69
-8.40
-12.46
-16.18
-18.80
-19.77
-18.89
-16.32
-12.58
-8.32
-4.18
-0.64
2.09
4.01
5.28
6.15
6.80
7.39
7.97
8.58
9.18
9.67
10.00
10.11
10.00
9.75
9.48
9.32
9.35
9.56
9.85
10.08
10.09
9.77
9.04
7.91
6.51
5.08
3.84
2.92
2.32
1.85
1.18
0.00
-1.84
-4.27
-6.96
-9.40
-11.07
-11.58
-10.75
-8.71
-5.79
-2.53
0.56
3.11
4.98
6.26
7.22
8.09
9.03
10.01
10.84
11.27
11.13
10.34
9.02
7.35
5.60
4.00
2.71
1.83
1.32
1.05
0.81
0.37
-0.43
-1.56
-2.85
-4.03
-4.82
-5.04
-4.72
-4.01
-3.19
-2.60
-2.52
-3.15
-4.61
-6.86
-9.71
-12.80
-15.64
-17.74
-18.71
-18.41
-16.95
-14.62
-11.76
-8.66
-5.53
-2.48
0.38
2.97
5.20
7.03
8.47
9.54
10.29
10.74
10.87
10.70
10.27
9.73
9.23
8.94
8.95
9.26
9.76
10.30
10.68
10.76
10.47
9.86
9.06
8.18
7.32
6.48
5.62
4.68
3.64
2.51
1.35
0.12
-1.23
-2.85
-4.90
-7.43
-10.36
-13.45
-16.33
-18.54
-19.66
-19.42
-17.76
-14.90
-11.27
-7.36
-3.64
-0.41
2.12
3.87
4.89
5.30
5.36
5.33
5.45
5.83
6.41
7.01
7.47
7.69
7.66
7.47
7.21
6.96
6.75
6.62
6.57
6.57
6.58
6.57
6.54
6.54
6.54
6.52
6.32
5.77
4.76
3.33
1.64
-0.05
-1.52
-2.63
-3.43
-4.07
-4.79
-5.90
-7.62
-10.01
-12.85
-15.67
-17.89
-19.00
-18.73
-17.18
-14.69
-11.65
-8.43
-5.21
-2.10
0.84
3.50
5.69
7.23
8.03
8.12
7.73
7.14
6.68
6.59
6.89
7.52
8.27
9.01
9.67
10.27
10.86
11.44
11.93
12.18
12.07
11.57
10.74
9.68
8.44
7.07
5.56
3.94
2.32
0.83
-0.39
-1.36
-2.22
-3.20
-4.57
-6.53
-9.13
-12.24
-15.55
-18.62
-20.94
-22.06
-21.72
-19.88
-16.82
-12.97
-8.86
-4.90
-1.35
1.66
4.11
5.97
7.26
8.02
8.39
8.53
8.59
8.62
8.58
8.38
8.01
7.62
7.39
7.48
7.90
8.50
9.03
9.31
9.22
8.81
8.16
7.37
6.51
5.66
4.87
4.17
3.53
2.83
1.97
0.87
-0.43
-1.78
-3.00
-3.95
-4.57
-4.91
-5.14
-5.49
-6.23
-7.62
-9.72
-12.43
-15.36
-17.94
-19.54
-19.74
-18.36
-15.63
-12.02
-8.09
-4.36
-1.10
1.60
3.86
5.84
7.67
9.35
10.79
11.83
12.36
12.38
12.02
11.51
11.05
10.78
10.75
10.94
11.32
11.91
12.80
14.07
15.76
17.76
19.88
21.80
23.24
23.97
23.93
23.16
21.73
19.65
16.88
13.33
9.11
4.45
-0.17
-4.29
-7.68
-10.41
-12.78
-15.12
-17.56
-19.90
-21.79
-22.95
-23.28
-22.92
-22.07
-20.84
-19.18
-16.99
-14.23
-11.11
-7.99
-5.33
-3.40
-2.27
-1.73
-1.49
-1.30
-0.99
-0.54
0.02
0.65
1.29
1.89
2.36
2.59
2.52
2.14
1.51
0.76
-0.03
-0.80
-1.55
-2.26
-2.87
-3.25
-3.33
-3.12
-2.80
-2.67
-2.99
-3.86
-5.18
-6.63
-7.90
-8.77
-9.28
-9.65
-10.18
-11.16
-12.74
-14.94
-17.58
-20.32
-22.70
-24.23
-24.48
-23.25
-20.63
-16.99
-12.83
-8.64
-4.79
-1.50
1.18
3.30
4.92
6.14
7.07
7.78
8.33
8.74
9.03
9.18
9.20
9.09
8.88
8.66
8.51
8.52
8.74
9.14
9.64
10.07
10.25
10.05
9.32
8.03
6.16
3.81
1.14
-1.66
-4.33
-6.67
-8.53
-9.85
-10.75
-11.45
-12.27
-13.49
-15.23
-17.33
-19.43
-21.00
-21.57
-20.89
-19.01
-16.21
-12.88
-9.37
-5.90
-2.59
0.44
3.08
5.17
6.61
7.38
7.58
7.38
6.97
6.48
6.00
5.57
5.25
5.10
5.20
5.60
6.29
7.23
8.37
9.63
10.97
12.25
13.25
13.67
13.23
11.78
9.43
6.57
3.74
1.43
-0.12
-0.99
-1.59
-2.40
-3.80
-5.92
-8.50
-11.09
-13.08
-14.02
-13.68
-12.16
-9.75
-6.86
-3.88
-1.11
1.26
3.15
4.55
5.53
6.18
6.57
6.75
6.64
6.10
4.99
3.31
1.24
-0.83
-2.45
-3.24
-3.12
-2.22
-0.96
0.16
0.71
0.46
-0.58
-2.15
-3.85
-5.32
-6.28
-6.65
-6.55
-6.20
-5.94
-6.09
-6.95
-8.60
-10.85
-13.16
-14.79
-15.05
-13.59
-10.59
-6.64
-2.51
1.20
4.18
6.44
8.10
9.28
9.96
10.16
9.96
9.53
9.11
8.82
8.62
8.35
7.83
7.04
6.13
5.35
4.97
5.09
5.65
6.36
6.93
7.11
6.80
6.07
5.11
4.11
3.22
2.50
1.89
1.22
0.27
-1.15
-3.20
-5.87
-8.95
-12.04
-14.60
-16.10
-16.17
-14.74
-12.09
-8.72
-5.24
-2.15
0.31
2.17
3.67
5.05
6.47
7.89
9.17
10.16
10.79
11.09
11.17
11.10
10.85
10.37
9.61
8.63
7.58
6.62
5.79
5.03
4.19
3.17
2.01
0.89
-0.02
-0.60
-0.92
-1.18
-1.65
-2.57
-4.05
-6.04
-8.37
-10.74
-12.80
-14.19
-14.63
-13.93
-12.13
-9.42
-6.18
-2.83
0.18
2.57
4.18
5.05
5.30
5.15
4.85
4.56
4.40
4.41
4.50
4.54
4.40
4.02
3.44
2.83
2.42
2.44
2.94
3.82
4.81
5.61
5.99
5.89
5.42
4.77
4.10
3.45
2.78
1.99
0.97
-0.40
-2.20
-4.45
-6.99
-9.45
-11.30
-11.94
-11.04
-8.62
-5.14
-1.31
2.22
5.06
7.18
8.85
10.45
12.22
14.20
16.23
18.01
19.21
19.55
18.92
17.33
14.94
12.04
8.95
6.03
3.57
1.79
0.75
0.35
0.41
0.66
0.80
0.64
0.15
-0.62
-1.46
-2.22
-2.81
-3.30
-3.94
-4.97
-6.57
-8.65
-10.86
-12.68
-13.59
-13.29
-11.78
-9.35
-6.43
-3.47
-0.77
1.49
3.26
4.52
5.24
5.40
4.97
4.07
2.85
1.57
0.46
-0.29
-0.63
-0.57
-0.22
0.26
0.75
1.12
1.31
1.26
0.96
0.47
-0.15
-0.79
-1.37
-1.80
-2.06
-2.16
-2.16
-2.18
-2.43
-3.09
-4.32
-6.07
-8.15
-10.14
-11.57
-12.02
-11.27
-9.34
-6.49
-3.07
0.55
4.05
7.15
9.62
11.33
12.29
12.63
12.63
12.57
12.57
12.62
12.57
12.23
11.54
10.60
9.64
8.97
8.80
9.18
9.99
10.98
11.83
12.21
11.94
10.99
9.52
7.85
6.34
5.30
4.84
4.77
4.66
3.87
1.84
-1.69
-6.55
-12.11
-17.52
-21.92
-24.63
-25.32
-23.98
-20.92
-16.68
-11.96
-7.47
-3.85
-1.54
-0.71
-1.21
-2.65
-4.44
-5.96
-6.70
-6.44
-5.25
-3.50
-1.60
0.08
1.42
2.47
3.31
4.00
4.42
4.42
3.90
2.82
1.29
-0.54
-2.48
-4.30
-5.70
-6.39
-6.15
-4.97
-3.16
-1.32
-0.12
-0.07
-1.25
-3.31
-5.56
-7.31
-8.07
-7.72
-6.36
-4.17
-1.41
1.66
4.62
7.02
8.44
8.78
8.31
7.62
7.28
7.52
8.14
8.55
8.15
6.58
3.94
0.65
-2.76
-5.81
-8.22
-9.91
-10.86
-11.11
-10.70
-9.71
-8.31
-6.77
-5.34
-4.21
-3.40
-2.89
-2.62
-2.63
-3.07
-4.07
-5.66
-7.74
-10.06
-12.32
-14.26
-15.68
-16.44
-16.52
-15.96
-14.94
-13.75
-12.62
-11.69
-10.90
-10.05
-8.88
-7.20
-5.03
-2.49
0.14
2.66
4.89
6.80
8.43
9.85
11.12
12.17
12.87
13.03
12.49
11.24
9.48
7.49
5.60
4.00
2.74
1.77
0.98
0.29
-0.37
-1.05
-1.83
-2.82
-4.01
-5.23
-6.16
-6.43
-5.81
-4.30
-2.21
0.02
2.03
3.65
4.95
6.12
7.28
8.43
9.44
10.17
10.60
10.82
10.95
11.09
11.20
11.18
10.90
10.29
9.39
8.30
7.19
6.22
5.48
5.02
4.86
4.97
5.30
5.82
6.43
7.00
7.32
7.13
6.15
4.24
1.46
-1.90
-5.35
-8.35
-10.42
-11.26
-10.82
-9.27
-6.88
-4.02
-1.00
1.98
4.79
7.43
9.92
12.30
14.53
16.48
17.96
18.77
18.83
18.23
17.16
15.88
14.57
13.33
12.17
11.12
10.24
9.59
9.20
9.03
8.95
8.75
8.31
7.54
6.47
5.17
3.74
2.23
0.65
-0.99
-2.69
-4.50
-6.42
-8.52
-10.79
-13.17
-15.51
-17.64
-19.45
-20.90
-22.04
-22.92
-23.46
-23.42
-22.52
-20.57
-17.68
-14.22
-10.75
-7.77
-5.56
-4.21
-3.58
-3.43
-3.46
-3.35
-2.72
-1.32
0.94
3.90
7.23
10.51
13.32
15.38
16.52
16.74
16.15
15.01
13.61
12.22
10.97
9.82
8.63
7.30
5.84
4.44
3.34
2.72
2.64
2.95
3.39
3.71
3.72
3.30
2.44
1.23
-0.22
-1.74
-3.21
-4.59
-5.99
-7.60
-9.64
-12.22
-15.23
-18.31
-20.91
-22.49
-22.67
-21.40
-18.93
-15.69
-12.15
-8.69
-5.57
-2.93
-0.86
0.65
1.66
2.29
2.71
3.00
3.17
3.15
2.91
2.51
2.16
2.08
2.40
3.08
3.97
4.89
5.71
6.36
6.79
6.83
6.25
4.86
2.59
-0.39
-3.66
-6.76
-9.30
-11.05
-11.98
-12.08
-11.37
-9.81
-7.47
-4.58
-1.59
0.91
2.36
2.45
1.24
-0.90
-3.41
-5.83
-7.85
-9.38
-10.38
-10.83
-10.65
-9.83
-8.45
-6.75
-4.99
-3.36
-1.95
-0.74
0.27
0.99
1.28
1.01
0.24
-0.82
-1.84
-2.53
-2.73
-2.50
-1.94
-1.16
-0.23
0.85
2.05
3.35
4.71
6.18
7.85
9.83
12.13
14.60
16.94
18.80
19.90
20.11
19.49
18.16
16.22
13.76
10.82
7.50
3.98
0.51
-2.61
-5.08
-6.73
-7.43
-7.27
-6.42
-5.19
-3.92
-2.88
-2.23
-2.03
-2.22
-2.76
-3.60
-4.70
-6.00
-7.41
-8.86
-10.29
-11.71
-13.11
-14.43
-15.54
-16.21
-16.25
-15.55
-14.13
-12.10
-9.61
-6.81
-3.82
-0.84
1.91
4.14
5.60
6.21
6.02
5.33
4.48
3.83
3.59
3.81
4.33
4.89
5.12
4.70
3.43
1.29
-1.50
-4.54
-7.32
-9.36
-10.34
-10.16
-8.96
-7.05
-4.79
-2.50
-0.38
1.44
2.87
3.83
4.29
4.26
3.86
3.25
2.66
2.30
2.34
2.83
3.71
4.79
5.77
6.44
6.65
6.44
5.97
5.41
4.82
4.18
3.41
2.44
1.37
0.36
-0.40
-0.77
-0.71
-0.26
0.46
1.21
1.70
1.66
0.89
-0.56
-2.42
-4.29
-5.74
-6.56
-6.71
-6.29
-5.43
-4.24
-2.76
-1.08
0.59
1.95
2.71
2.74
2.12
1.14
0.13
-0.68
-1.24
-1.65
-2.06
-2.56
-3.10
-3.61
-4.01
-4.32
-4.61
-4.91
-5.21
-5.40
