1653561027.00
64.000000
-0.00
-0.00
-0.00
-0.00
-0.00
-0.00
-0.00
-0.00
-0.00
-0.00
0.00
0.01
0.01
-0.00
-0.03
-0.05
-0.05
0.00
0.13
0.36
0.66
1.01
1.37
1.72
2.06
2.40
2.79
3.24
3.80
4.42
5.06
5.66
6.20
6.68
7.15
7.68
8.31
9.14
10.09
11.04
11.88
12.56
13.14
13.76
14.65
15.96
17.91
20.32
22.90
25.38
27.58
29.57
31.68
34.32
37.81
42.54
48.15
54.10
59.83
64.97
69.58
74.14
79.34
85.71
93.76
103.00
112.62
121.73
129.77
136.75
143.30
150.75
157.77
166.64
177.95
191.79
206.97
220.57
228.25
225.36
208.53
176.87
132.76
80.05
23.07
-34.94
-92.44
-149.16
-205.23
-260.37
-313.74
-363.87
-409.83
-450.91
-486.50
-515.74
-537.23
-549.22
-549.96
-538.37
-514.21
-478.67
-433.88
-382.45
-327.02
-269.84
-212.63
-156.66
-102.95
-52.37
-5.90
35.58
71.43
101.35
125.50
144.38
158.69
169.15
176.37
180.75
182.57
182.07
179.51
175.23
169.65
163.18
156.15
148.81
141.30
133.69
126.02
118.33
110.69
103.16
95.80
88.68
81.83
75.25
68.95
62.95
57.25
51.86
46.78
42.03
37.59
33.45
29.61
26.07
22.81
19.83
17.11
14.67
12.48
10.54
8.83
7.35
6.07
4.97
4.05
3.27
2.62
2.09
1.65
1.30
1.01
0.79
0.61
0.48
0.37
0.29
0.24
0.20
0.17
0.16
0.17
0.18
0.20
0.23
0.26
0.29
0.33
0.37
0.42
0.47
0.54
0.60
0.64
0.66
0.65
0.61
0.56
0.53
0.54
0.60
0.69
0.79
0.89
0.96
1.02
1.09
1.20
1.37
1.60
1.87
2.15
2.38
2.55
2.68
2.83
3.06
3.43
3.95
4.55
5.11
5.53
5.75
5.80
5.84
6.03
6.53
7.34
8.33
9.26
9.90
10.11
9.97
9.74
9.71
10.13
10.96
11.89
12.39
11.94
10.19
7.14
3.14
-1.40
-6.02
-10.60
-15.17
-19.93
-25.12
-30.94
-37.57
-45.04
-52.94
-60.18
-64.99
-65.30
-59.59
-47.72
-31.25
-13.08
3.62
16.50
24.65
28.56
29.42
28.31
25.93
22.63
18.75
14.94
11.96
10.37
10.21
10.96
11.82
12.08
11.46
10.15
8.60
7.31
6.57
6.41
6.66
7.04
7.33
7.35
7.09
6.61
6.01
5.39
4.79
4.26
3.73
3.21
2.64
2.05
1.48
0.99
0.65
0.55
0.70
1.03
1.31
1.24
0.58
-0.82
-2.91
-5.48
-8.30
-10.83
-12.80
-14.13
-14.92
-15.38
-15.90
-16.88
-18.72
-21.65
-25.48
-29.55
-32.76
-33.87
-31.90
-26.57
-18.39
-8.63
1.25
9.88
16.46
20.79
23.19
24.25
24.51
24.37
24.06
23.70
23.32
22.96
22.62
22.27
21.84
21.25
20.50
19.66
18.92
18.46
18.39
18.66
19.05
19.24
18.94
17.98
16.42
14.50
12.52
10.74
9.23
7.90
6.54
4.95
3.10
1.04
-1.06
-3.07
-4.94
-6.76
-8.63
-10.68
-12.94
-15.43
-18.14
-21.06
-24.16
-27.35
-30.53
-33.56
-36.38
-39.11
-42.01
-45.37
-49.25
-53.28
-56.57
-57.92
-56.28
-51.19
-43.08
-33.13
-22.86
-13.58
-5.97
-0.13
4.28
7.68
10.29
12.18
13.33
13.83
13.91
13.88
13.96
14.21
14.56
14.86
15.07
15.25
15.58
16.26
17.35
18.69
19.97
20.80
20.89
20.21
18.93
17.45
16.05
14.89
13.88
12.79
11.43
9.76
7.87
5.98
4.25
2.75
1.45
0.20
-1.19
-2.89
-5.04
-7.71
-10.89
-14.42
-18.12
-21.76
-25.17
-28.31
-31.30
-34.40
-37.97
-42.30
-47.40
-52.84
-57.60
-60.39
-60.07
-56.05
-48.71
-39.23
-29.18
-20.03
-12.69
-7.35
-3.70
-1.20
0.64
2.14
3.47
4.73
6.08
7.67
9.69
12.26
15.36
18.91
22.71
26.57
30.39
34.16
37.94
41.75
45.47
48.85
51.57
53.36
54.12
53.88
52.80
51.04
48.76
46.02
42.90
39.42
35.62
31.50
27.04
22.21
17.04
11.65
6.25
1.07
-3.71
-8.05
-12.06
-16.00
-20.21
-24.90
-30.09
-35.39
-40.03
-42.97
-43.25
-40.35
-34.41
-26.26
-17.17
-8.41
-0.89
5.00
9.42
12.75
15.45
17.81
19.99
22.04
23.93
25.65
27.20
28.59
29.86
31.03
32.07
32.88
33.38
33.52
33.38
33.16
33.04
33.16
33.41
33.54
33.25
32.34
30.78
28.74
26.45
24.10
21.72
19.23
16.53
13.54
10.24
6.70
2.97
-0.88
-4.79
-8.71
-12.51
-16.11
-19.43
-22.51
-25.47
-28.48
-31.75
-35.46
-39.70
-44.30
-48.88
-52.74
-55.04
-54.98
-52.05
-46.30
-38.33
-29.17
-19.96
-11.63
-4.72
0.74
4.99
8.41
11.27
13.69
15.65
17.15
18.29
19.29
20.36
21.62
23.03
24.48
25.83
27.07
28.20
29.24
30.12
30.61
30.49
29.64
28.15
26.22
24.12
22.06
20.11
18.26
16.46
14.68
12.91
11.15
9.41
7.72
6.09
4.48
2.85
1.10
-0.84
-3.00
-5.36
-7.88
-10.45
-12.95
-15.30
-17.40
-19.31
-21.20
-23.39
-26.20
-29.75
-33.75
-37.43
-39.70
-39.55
-36.45
-30.68
-23.18
-15.26
-8.10
-2.38
1.89
5.09
7.74
10.16
12.38
14.27
15.67
16.59
17.14
17.45
17.51
17.25
16.52
15.28
13.69
12.06
10.74
9.97
9.76
9.92
10.11
10.01
9.51
8.63
7.63
6.76
6.20
5.92
5.70
5.31
4.59
3.55
2.37
1.21
0.10
-1.06
-2.43
-4.08
-5.92
-7.71
-9.28
-10.60
-11.84
-13.22
-14.89
-16.88
-19.11
-21.55
-24.18
-26.99
-29.73
-31.81
-32.44
-30.88
-26.83
-20.72
-13.54
-6.55
-0.74
3.46
6.24
8.17
9.79
11.35
12.75
13.77
14.19
14.04
13.52
12.86
12.19
11.52
10.82
10.11
9.51
9.19
9.26
9.71
10.44
11.24
11.97
12.49
12.69
12.47
11.79
10.66
9.26
7.79
6.44
5.28
4.24
3.24
2.25
1.29
0.46
-0.25
-0.96
-1.86
-3.14
-4.83
-6.78
-8.73
-10.39
-11.56
-12.23
-12.57
-12.88
-13.47
-14.55
-16.14
-18.04
-19.91
-21.49
-22.63
-23.38
-23.94
-24.58
-25.54
-27.01
-29.03
-31.41
-33.70
-35.18
-35.01
-32.59
-27.81
-21.13
-13.55
-6.13
0.25
5.20
8.77
11.31
13.18
14.61
15.77
16.71
17.54
18.32
19.12
19.94
20.64
21.04
20.96
20.30
19.04
17.29
15.25
13.13
11.16
9.48
8.16
7.12
6.24
5.39
4.44
3.42
2.41
1.59
1.05
0.78
0.59
0.26
-0.42
-1.48
-2.81
-4.26
-5.68
-7.01
-8.26
-9.37
-10.32
-11.03
-11.51
-11.84
-12.11
-12.36
-12.57
-12.70
-12.73
-12.76
-12.98
-13.62
-14.81
-16.63
-19.03
-21.86
-24.80
-27.30
-28.65
-28.10
-25.22
-20.10
-13.46
-6.39
0.01
5.02
8.44
10.47
11.53
12.02
12.17
12.12
12.01
12.04
12.38
13.12
14.13
15.10
15.65
15.52
14.70
13.42
12.04
10.87
10.05
9.48
8.95
8.24
7.27
6.12
4.99
4.07
3.48
3.17
2.99
2.75
2.31
1.65
0.85
0.05
-0.66
-1.26
-1.85
-2.54
-3.46
-4.73
-6.35
-8.30
-10.53
-12.89
-15.19
-17.22
-18.86
-20.13
-21.28
-22.65
-24.58
-27.16
-30.08
-32.72
-34.23
-33.87
-31.21
-26.31
-19.70
-12.25
-4.92
1.48
6.46
9.94
12.18
13.55
14.45
15.09
15.58
15.90
16.06
16.06
15.96
15.79
15.56
15.20
14.70
14.05
13.33
12.69
12.27
12.19
12.42
12.81
13.13
13.10
12.53
11.40
9.88
8.30
6.99
6.19
5.95
6.05
6.16
5.92
5.11
3.74
2.04
0.35
-1.05
-2.07
-2.89
-3.83
-5.22
-7.16
-9.50
-11.92
-14.08
-15.75
-16.92
-17.76
-18.57
-19.70
-21.54
-24.37
-28.23
-32.74
-37.07
-40.10
-40.77
-38.49
-33.40
-26.36
-18.62
-11.43
-5.64
-1.49
1.24
2.99
4.23
5.25
6.21
7.17
8.17
9.24
10.38
11.54
12.57
13.32
13.69
13.64
13.25
12.69
12.16
11.84
11.83
12.13
12.62
13.10
13.33
13.10
12.31
10.97
9.26
7.38
5.51
3.73
1.97
0.06
-2.16
-4.78
-7.73
-10.80
-13.68
-16.12
-18.02
-19.44
-20.66
-22.05
-23.94
-26.57
-29.91
-33.62
-37.11
-39.57
-40.19
-38.42
-34.12
-27.71
-20.04
-12.17
-5.07
0.68
5.00
8.23
10.86
13.31
15.78
18.25
20.60
22.70
24.57
26.30
28.02
29.75
31.39
32.84
33.95
34.69
35.10
35.20
34.97
34.34
33.21
31.56
29.47
27.03
24.30
21.27
17.89
14.17
10.26
6.38
2.81
-0.31
-3.03
-5.49
-7.92
-10.51
-13.38
-16.62
-20.22
-23.90
-27.12
-29.11
-29.13
-26.81
-22.42
-16.80
-11.05
-6.16
-2.60
-0.30
1.25
2.70
4.67
7.55
11.54
16.52
22.06
27.45
31.85
34.54
35.13
33.64
30.44
26.10
21.17
16.10
11.21
6.63
2.44
-1.41
-5.02
-8.50
-11.96
-15.44
-18.87
-22.12
-25.00
-27.32
-29.00
-30.05
-30.60
-30.87
-31.02
-31.21
-31.57
-32.25
-33.52
-35.65
-38.71
-42.39
-45.88
-48.09
-47.96
-44.86
-38.89
-30.83
-21.83
-13.04
-5.19
1.47
7.13
12.09
16.59
20.63
24.09
26.82
28.80
30.18
31.14
31.86
32.42
32.79
32.96
32.96
32.85
32.78
32.84
33.07
33.38
33.57
33.40
32.65
31.22
29.19
26.82
24.44
22.37
20.77
19.60
18.66
17.70
16.49
14.94
13.10
11.11
9.12
7.24
5.49
3.76
1.87
-0.36
-3.08
-6.26
-9.77
-13.36
-16.77
-19.83
-22.52
-24.98
-27.52
-30.56
-34.46
-39.42
-45.26
-51.27
-56.29
-58.94
-58.01
-52.99
-44.23
-32.97
-20.87
-9.57
-0.13
7.08
12.35
16.25
19.33
21.90
24.06
25.80
27.16
28.21
29.10
29.90
30.55
30.92
30.85
30.29
29.32
28.13
26.94
25.89
25.04
24.32
23.62
22.78
21.61
20.01
17.96
15.60
13.17
10.94
9.10
7.63
6.33
4.85
2.89
0.29
-2.91
-6.46
-10.06
-13.45
-16.47
-19.12
-21.50
-23.79
-26.31
-29.40
-33.39
-38.38
-43.96
-49.16
-52.59
-52.92
-49.33
-41.97
-31.87
-20.64
-9.86
-0.62
6.74
12.43
16.91
20.61
23.75
26.43
28.64
30.40
31.75
32.73
33.35
33.62
33.54
33.11
32.39
31.50
30.60
29.90
29.52
29.46
29.56
29.48
28.92
27.65
25.70
23.31
20.79
18.41
16.25
14.18
12.00
9.53
6.81
4.00
1.36
-0.88
-2.70
-4.17
-5.55
-7.05
-8.88
-11.12
-13.73
-16.58
-19.46
-22.18
-24.60
-26.74
-28.83
-31.26
-34.50
-38.83
-44.17
-49.87
-54.75
-57.42
-56.65
-51.91
-43.57
-32.86
-21.46
-10.95
-2.38
3.99
8.55
11.97
14.86
17.54
20.00
22.09
23.66
24.75
25.53
26.22
26.93
27.61
28.11
28.34
28.29
28.19
28.28
28.73
29.46
30.17
30.43
29.92
28.49
26.30
23.68
21.04
18.70
16.75
15.11
13.59
11.95
10.05
7.86
5.48
3.11
0.96
-0.84
-2.33
-3.71
-5.28
-7.34
-10.00
-13.14
-16.45
-19.51
-22.06
-24.03
-25.60
-27.11
-28.94
-31.43
-34.81
-39.03
-43.64
-47.77
-50.19
-49.70
-45.57
-37.95
-27.84
-16.86
-6.61
1.80
8.06
12.47
15.66
18.18
20.31
22.10
23.46
24.40
25.00
25.45
25.86
26.24
26.50
26.51
26.21
25.67
25.08
24.63
24.47
24.55
24.69
24.61
24.09
23.04
21.52
19.70
17.70
15.66
13.61
11.55
9.47
7.39
5.33
3.35
1.45
-0.43
-2.39
-4.56
-7.08
-9.93
-12.98
-15.99
-18.68
-20.86
-22.56
-24.02
-25.65
-27.84
-30.87
-34.73
-39.05
-43.06
-45.67
-45.79
-42.66
-36.22
-27.17
-16.88
-6.87
1.58
7.80
11.79
13.98
14.98
15.32
15.36
15.30
15.21
15.15
15.15
15.19
15.22
15.13
14.78
14.05
12.95
11.63
10.32
9.24
8.41
7.68
6.74
5.32
3.33
0.90
-1.65
-4.07
-6.20
-8.07
-9.86
-11.74
-13.82
-16.14
-18.65
-21.26
-23.89
-26.43
-28.85
-31.13
-33.30
-35.39
-37.43
-39.40
-41.23
-42.80
-44.07
-45.01
-45.78
-46.62
-47.90
-49.83
-52.31
-54.75
-56.08
-55.03
-50.56
-42.36
-31.03
-17.91
-4.70
7.15
16.83
24.22
29.76
34.06
37.63
40.71
43.39
45.71
47.73
49.57
51.28
52.82
54.08
55.08
56.07
57.49
59.74
62.87
66.43
69.59
71.54
71.96
71.15
69.84
68.75
68.17
67.80
66.99
65.11
61.88
57.37
51.90
45.75
39.03
31.75
23.87
15.40
6.27
-3.58
-14.14
-25.14
-35.89
-45.34
-52.32
-56.01
-56.32
-53.98
-50.33
-46.85
-44.57
-43.77
-43.93
-44.04
-43.02
-40.01
-34.68
-27.23
-18.38
-9.25
-1.21
4.49
7.03
6.35
3.30
-0.61
-3.70
-4.86
-3.84
-1.28
1.76
4.39
6.20
7.28
7.93
8.34
8.49
8.25
7.58
6.60
5.59
4.66
3.62
2.02
-0.72
-4.97
-10.72
-17.58
-24.92
-32.06
-38.58
-44.33
-49.49
-54.44
-59.54
-64.96
-70.61
-76.13
-81.05
-84.99
-87.76
-89.41
-90.21
-90.46
-90.36
-89.93
-88.99
-87.27
-84.63
-81.16
-77.15
-73.07
-69.32
-66.06
-63.23
-60.57
-57.81
-54.81
-51.58
-48.23
-44.82
-41.37
-37.81
-34.09
-30.10
-25.75
-20.90
-15.40
-9.31
-2.90
3.27
8.48
12.10
13.86
13.92
12.88
11.50
10.47
10.10
10.35
10.88
11.27
11.32
11.06
10.88
11.42
13.33
17.15
23.11
31.10
40.57
50.70
60.53
69.14
76.02
81.16
85.13
88.87
93.29
98.88
105.59
112.80
119.61
125.15
128.85
130.52
130.45
129.21
127.62
126.54
126.68
128.37
131.49
135.47
139.41
142.36
143.52
142.35
138.72
132.85
125.29
116.88
108.52
100.94
94.40
88.47
82.04
73.60
61.72
45.66
25.61
2.75
-21.09
-44.00
-64.20
-80.18
-90.59
-94.42
-91.27
-81.80
-68.01
-53.03
-40.39
-32.86
-31.55
-35.53
-42.45
-49.48
-54.39
-56.06
-54.55
-50.79
-46.04
-41.37
-37.48
-34.77
-33.42
-33.40
-34.44
-36.05
-38.01
-40.06
-41.78
-42.51
-41.60
-38.66
-33.62
-26.71
-18.34
-9.88
-2.79
2.06
4.77
6.05
6.58
6.77
6.60
5.76
2.51
-4.75
-16.29
-30.52
-44.69
-56.13
-62.88
-64.16
-60.19
-53.92
-49.16
-49.21
-55.77
-69.28
-89.31
-114.35
-141.76
-157.68
-149.82
-115.01
-62.60
-7.29
39.18
70.66
86.25
88.21
81.10
66.95
46.91
22.52
-3.33
-27.22
-46.54
-56.89
-56.83
-47.27
-32.41
-17.48
-6.71
-1.64
-1.27
-3.15
-4.43
-3.34
0.78
6.48
11.65
14.67
15.44
14.99
14.72
15.68
17.87
20.70
22.90
23.45
22.16
19.78
17.46
16.09
16.04
16.93
18.12
18.93
18.97
18.26
17.15
16.04
15.23
14.79
14.52
14.21
13.71
13.00
12.12
11.17
10.27
9.49
8.94
8.69
8.82
9.32
10.15
11.16
12.16
12.99
13.49
13.57
13.10
12.07
10.58
9.00
7.82
7.56
8.52
10.58
13.30
16.04
18.16
19.31
19.39
18.60
17.25
15.70
14.27
13.17
12.41
11.80
11.00
9.58
7.19
3.71
-0.69
-5.61
-10.49
-14.87
-18.40
-20.99
-22.73
-23.79
-24.33
-24.46
-24.26
-23.82
-23.25
-22.71
-22.30
-21.97
-21.56
-20.86
-19.73
-18.21
-16.57
-15.16
-14.30
-14.15
-14.62
-15.44
-16.29
-17.00
-17.53
-18.08
-18.95
-20.46
-22.77
-25.94
-29.77
-33.85
-37.54
-40.06
-40.66
-38.83
-34.50
-28.21
-20.91
-13.73
-7.52
-2.65
1.07
4.12
7.09
10.29
13.70
17.14
20.27
22.87
24.83
26.15
26.88
27.09
26.91
26.42
25.75
25.07
24.55
24.40
24.71
25.43
26.24
26.65
26.23
24.74
22.30
19.32
16.28
13.54
11.18
9.04
6.86
4.42
1.69
-1.24
-4.18
-6.91
-9.26
-11.11
-12.48
-13.56
-14.70
-16.36
-18.90
-22.50
-26.90
-31.47
-35.25
-37.13
-36.22
-32.11
-25.16
-16.41
-7.34
0.68
6.80
10.90
13.44
15.04
16.16
16.92
17.25
17.14
16.80
16.57
16.75
17.39
18.22
18.88
19.12
18.93
18.52
18.14
17.94
17.83
17.63
17.07
16.03
14.50
12.56
10.31
7.81
5.14
2.38
-0.33
-2.86
-5.14
-7.22
-9.29
-11.57
-14.24
-17.37
-20.88
-24.56
-28.02
-30.73
-32.07
-31.49
-28.67
-23.69
-17.12
-9.86
-2.83
3.27
8.17
11.96
14.92
17.34
19.33
20.84
21.77
22.04
21.72
20.93
19.90
18.82
17.83
16.97
16.17
15.37
14.45
13.37
12.15
10.89
9.66
8.45
7.11
5.42
3.14
0.23
-3.14
-6.58
-9.68
-12.11
-13.76
-14.80
-15.56
-16.42
-17.83
-20.14
-23.49
-27.77
-32.43
-36.57
-39.12
-39.15
-36.23
-30.63
-23.22
-15.18
-7.58
-1.10
4.09
8.21
11.57
14.36
16.58
18.09
18.78
18.72
18.19
17.53
17.02
16.74
16.62
16.53
16.41
16.29
16.25
16.33
16.47
16.45
16.07
15.14
13.62
11.59
9.11
6.27
3.16
-0.11
-3.32
-6.19
-8.50
-10.15
-11.25
-12.09
-13.00
-14.30
-16.20
-18.80
-22.01
-25.48
-28.67
-30.82
-31.19
-29.31
-25.19
-19.35
-12.72
-6.26
-0.74
3.53
6.61
8.83
10.52
11.93
13.18
14.30
15.35
16.35
17.35
18.31
19.16
19.80
20.15
20.26
20.25
20.26
20.41
20.69
21.05
21.37
21.51
21.33
20.63
19.26
17.14
14.39
11.34
8.40
5.98
4.26
3.06
1.98
0.50
-1.70
-4.65
-8.09
-11.59
-14.78
-17.48
-19.76
-21.89
-24.15
-26.82
-30.09
-34.00
-38.34
-42.58
-45.91
-47.34
-46.05
-41.77
-34.85
-26.26
-17.24
-8.90
-1.95
3.43
7.46
10.58
13.19
15.54
17.70
19.58
21.04
21.97
22.42
22.49
22.37
22.18
21.95
21.70
21.45
21.30
21.37
21.70
22.25
22.82
23.16
23.09
22.51
21.47
20.09
18.52
16.88
15.20
13.48
11.64
9.64
7.50
5.32
3.24
1.37
-0.33
-2.04
-3.99
-6.32
-8.96
-11.67
-14.15
-16.23
-18.00
-19.84
-22.21
-25.52
-29.95
-35.25
-40.75
-45.42
-48.12
-47.91
-44.41
-37.98
-29.60
-20.58
-12.11
-4.94
0.70
4.99
8.29
10.86
12.92
14.53
15.81
16.84
17.71
18.50
19.23
19.89
20.44
20.86
21.12
21.23
21.26
21.33
21.52
21.81
22.08
22.09
21.61
20.52
18.84
16.72
14.34
11.88
9.49
7.29
5.40
3.86
2.60
1.42
0.00
-1.89
-4.33
-7.16
-10.05
-12.70
-14.93
-16.83
-18.66
-20.78
-23.51
-27.09
-31.51
-36.46
-41.26
-44.94
-46.46
-45.02
-40.40
-33.08
-24.09
-14.74
-6.15
0.96
6.43
10.48
13.50
15.88
17.89
19.69
21.30
22.71
23.89
24.82
25.56
26.21
26.86
27.56
28.22
28.76
29.06
29.05
28.74
28.14
27.25
26.02
24.39
22.38
20.13
17.87
15.82
14.12
12.72
11.45
10.13
8.62
6.99
5.38
3.98
2.87
2.00
1.14
-0.02
-1.68
-3.98
-6.85
-10.06
-13.30
-16.27
-18.78
-20.82
-22.59
-24.48
-26.92
-30.23
-34.35
-38.77
-42.56
-44.59
-43.93
-40.14
-33.47
-24.83
-15.50
-6.74
0.53
5.90
9.51
11.76
13.14
14.06
14.79
15.49
16.28
17.25
18.44
19.76
21.02
22.00
22.51
22.55
22.30
22.02
21.92
22.06
22.30
22.36
22.00
21.11
19.77
18.17
16.56
15.10
13.79
12.57
11.31
9.95
8.45
6.84
5.16
3.45
1.69
-0.12
-2.04
-4.11
-6.43
-8.95
-11.57
-14.13
-16.42
-18.34
-19.89
-21.24
-22.64
-24.38
-26.69
-29.60
-32.89
-35.99
-38.04
-38.13
-35.59
-30.35
-22.95
-14.52
-6.30
0.72
6.07
9.79
12.23
13.76
14.62
14.96
14.87
14.52
14.19
14.20
14.74
15.83
17.30
18.84
20.16
21.13
21.74
22.08
22.28
22.38
22.24
21.70
20.59
18.87
16.70
14.36
12.14
10.23
8.66
7.34
6.12
4.95
3.84
2.89
2.17
1.65
1.13
0.35
-1.00
-3.05
-5.76
-8.85
-11.97
-14.77
-17.06
-18.92
-20.58
-22.41
-24.72
-27.72
-31.37
-35.32
-38.88
-41.14
-41.17
-38.35
-32.70
-24.89
-16.14
-7.74
-0.76
4.36
7.71
9.79
11.16
12.23
13.21
14.13
14.96
15.69
16.36
17.05
17.80
18.56
19.18
19.47
19.32
18.78
18.07
17.46
17.20
17.26
17.44
17.35
16.67
15.25
13.20
10.83
8.48
6.42
4.71
3.24
1.80
0.18
-1.68
-3.67
-5.50
-6.87
-7.57
-7.61
-7.27
-6.98
-7.17
-8.08
-9.70
-11.81
-14.06
-16.13
-17.84
-19.19
-20.38
-21.75
-23.64
-26.29
-29.65
-33.31
-36.51
-38.31
-37.92
-34.96
-29.64
-22.72
-15.27
-8.30
-2.54
1.72
4.61
6.50
7.85
9.00
10.14
11.29
12.39
13.36
14.16
14.77
15.17
15.31
15.13
14.61
13.85
13.01
12.30
11.86
11.70
11.72
11.75
11.61
11.18
10.39
9.27
7.89
6.40
4.98
3.74
2.71
1.84
0.99
0.02
-1.20
-2.71
-4.44
-6.28
-8.02
-9.54
-10.81
-11.93
-13.09
-14.49
-16.33
-18.68
-21.59
-25.01
-28.77
-32.44
-35.31
-36.51
-35.26
-31.23
-24.78
-16.90
-8.88
-1.88
3.41
6.95
9.17
10.63
11.78
12.78
13.57
14.05
14.22
14.21
14.29
14.64
15.29
16.12
16.86
17.29
17.32
17.05
16.70
16.50
16.56
16.81
16.99
16.83
16.08
14.70
12.79
10.61
8.37
6.18
4.02
1.71
-0.88
-3.84
-7.01
-10.10
-12.79
-14.83
-16.17
-17.02
-17.78
-18.90
-20.83
-23.85
-28.04
-33.12
-38.45
-43.10
-46.03
-46.38
-43.77
-38.47
-31.32
-23.44
-15.89
-9.38
-4.18
-0.22
2.83
5.29
7.42
9.39
11.27
13.03
14.63
16.06
17.31
18.37
19.29
20.05
20.69
21.24
21.78
22.35
22.93
23.43
23.71
23.65
23.17
22.28
21.04
19.54
17.89
16.22
14.63
13.12
11.65
10.06
8.31
6.44
4.58
2.89
1.38
-0.16
-2.00
-4.37
-7.26
-10.39
-13.31
-15.61
-17.11
-17.92
-18.40
-19.13
-20.71
-23.57
-27.78
-32.95
-38.14
-42.13
-43.77
-42.35
-37.81
-30.84
-22.56
-14.20
-6.76
-0.82
3.56
6.64
8.88
10.73
12.50
14.35
16.25
18.05
19.53
20.55
21.02
21.02
20.72
20.35
20.10
20.05
20.18
20.44
20.80
21.27
21.84
22.38
22.65
22.32
21.19
19.23
16.67
13.92
11.35
9.22
7.60
6.34
5.14
3.70
1.78
-0.71
-3.65
-6.74
-9.62
-12.02
-13.91
-15.46
-17.02
-18.90
-21.34
-24.41
-27.99
-31.78
-35.26
-37.70
-38.38
-36.72
-32.58
-26.37
-18.94
-11.33
-4.42
1.33
5.90
9.56
12.63
15.32
17.66
19.61
21.16
22.43
23.62
24.96
26.57
28.41
30.30
32.03
33.46
34.57
35.46
36.26
37.03
37.74
38.26
38.34
37.70
36.11
33.41
29.62
24.90
19.55
13.91
8.16
2.39
-3.50
-9.55
-15.71
-21.76
-27.39
-32.31
-36.38
-39.62
-42.24
-44.50
-46.69
-48.99
-51.49
-54.08
-56.44
-57.95
-57.91
-55.66
-50.90
-43.79
-35.02
-25.61
-16.58
-8.70
-2.33
2.55
6.21
8.99
11.17
12.91
14.29
15.33
16.09
16.68
17.22
17.87
18.64
19.46
20.14
20.54
20.63
20.58
20.64
21.01
21.69
22.44
22.93
22.91
22.39
21.63
20.98
20.68
20.72
20.91
20.94
20.61
19.86
18.82
17.66
16.45
15.19
13.73
11.90
9.64
6.96
4.08
1.24
-1.32
-3.53
-5.50
-7.54
-10.01
-13.24
-17.33
-22.05
-26.79
-30.65
-32.69
-32.22
-29.04
-23.61
-16.88
-9.95
-3.79
1.09
4.66
7.23
9.24
10.96
12.48
13.77
14.80
15.60
16.32
17.08
17.90
18.67
19.21
19.42
19.33
19.11
18.95
19.00
19.20
19.43
19.55
19.48
19.21
18.73
18.01
16.95
15.55
13.85
12.00
10.20
8.59
7.25
6.15
5.23
4.44
3.72
3.00
2.22
1.35
0.37
-0.66
-1.69
-2.76
-3.94
-5.42
-7.32
-9.61
-12.13
-14.60
-16.80
-18.67
-20.35
-22.06
-24.07
-26.54
-29.49
-32.68
-35.67
-37.80
-38.32
-36.63
-32.48
-26.17
-18.52
-10.63
-3.57
1.97
5.80
8.18
9.63
10.66
11.62
12.65
13.74
14.79
15.69
16.33
16.66
16.68
16.41
15.94
15.30
14.52
13.57
12.45
11.22
10.00
8.91
8.04
7.34
6.66
5.82
4.72
3.40
2.01
0.73
-0.32
-1.17
-1.88
-2.54
-3.18
-3.74
-4.19
-4.55
-4.93
-5.45
-6.19
-7.12
-8.15
-9.18
-10.19
-11.22
-12.40
-13.86
-15.73
-18.08
-20.81
-23.55
-25.71
-26.50
-25.28
-21.83
-16.52
-10.26
-4.18
0.77
4.15
6.02
6.85
7.15
7.33
7.60
7.97
8.42
8.90
9.37
9.81
10.14
10.28
10.16
9.77
9.22
8.67
8.31
8.27
8.59
9.19
9.87
10.40
10.58
10.30
9.55
8.43
7.07
5.59
4.07
2.50
0.80
-1.05
-3.00
-4.90
-6.59
-7.96
-9.01
-9.88
-10.68
-11.47
-12.20
-12.74
-12.99
-12.96
-12.75
-12.57
-12.63
-13.14
-14.27
-16.13
-18.66
-21.52
-24.10
-25.57
-25.22
-22.64
-18.04
-12.12
-5.90
-0.37
3.79
6.39
7.63
7.95
7.83
7.65
7.58
7.70
7.96
8.29
8.64
8.97
9.20
9.27
9.12
8.74
8.24
7.80
7.62
7.79
8.26
8.81
9.14
9.08
8.56
7.73
6.79
5.91
5.15
4.48
3.79
2.99
2.02
0.85
-0.50
-1.99
-3.53
-5.01
-6.36
-7.54
-8.62
-9.71
-10.87
-12.11
-13.32
-14.34
-15.06
-15.42
-15.53
-15.59
-15.88
-16.66
-18.09
-20.10
-22.34
-24.22
-25.02
-24.12
-21.28
-16.68
-10.94
-4.91
0.61
5.05
8.19
10.08
11.01
11.35
11.41
11.44
11.56
11.79
12.07
12.32
12.46
12.43
12.19
11.78
11.23
10.67
10.18
9.85
9.68
9.53
9.20
8.47
7.26
5.61
3.72
1.87
0.31
-0.85
-1.60
-2.05
-2.36
-2.65
-2.98
-3.35
-3.69
-3.94
-4.09
-4.22
-4.48
-5.05
-6.11
-7.66
-9.54
-11.47
-13.16
-14.44
-15.37
-16.14
-17.11
-18.61
-20.84
-23.72
-26.86
-29.57
-30.96
-30.29
-27.19
-21.91
-15.27
-8.36
-2.19
2.60
5.91
7.96
9.11
9.60
9.62
9.31
8.84
8.48
8.43
8.76
9.34
9.89
10.11
9.83
9.05
7.99
6.94
6.17
5.83
5.89
6.27
6.79
7.31
7.72
7.93
7.92
7.69
7.31
6.84
6.34
5.77
5.02
3.93
2.46
0.69
-1.09
-2.59
-3.58
-4.09
-4.38
-4.81
-5.65
-6.95
-8.49
-9.93
-11.03
-11.73
-12.22
-12.83
-13.88
-15.58
-17.99
-20.95
-24.14
-27.06
-29.09
-29.56
-28.01
-24.32
-18.86
-12.42
-6.00
-0.49
3.60
6.20
7.62
8.29
8.64
8.94
9.31
9.76
10.28
10.82
11.32
11.70
11.91
11.90
11.71
11.42
11.15
10.96
10.90
10.90
10.88
10.75
10.42
9.83
8.96
7.85
6.54
5.09
3.53
1.83
-0.04
-2.09
-4.30
-6.59
-8.90
-11.27
-13.83
-16.78
-20.26
-24.21
-28.35
-32.28
-35.63
-38.27
-40.38
-42.40
-44.84
-48.17
-52.57
-57.90
-63.74
-69.39
-74.08
-77.16
-78.25
-77.34
-74.79
-71.18
-67.14
-63.15
-59.46
-56.05
-52.61
-48.69
-43.76
-37.37
-29.21
-19.28
-7.83
4.64
17.55
30.27
42.25
53.06
62.34
69.89
75.63
79.60
81.92
82.71
82.13
80.30
77.36
73.53
69.08
64.30
59.48
54.87
50.59
46.72
43.18
39.88
36.68
33.45
30.10
26.54
22.70
18.56
14.12
9.51
4.92
0.60
-3.25
-6.55
-9.41
-12.17
-15.25
-19.08
-23.86
-29.51
-35.55
-41.13
-45.20
-46.78
-45.24
-40.51
-33.23
-24.49
-15.51
-7.33
-0.56
4.67
8.57
11.52
13.87
15.90
17.73
19.36
20.70
21.66
22.17
22.26
22.01
21.58
21.13
20.81
20.74
20.98
21.50
22.15
22.71
22.95
22.71
21.98
20.87
19.53
18.09
16.57
14.96
13.22
11.33
9.34
7.36
5.47
3.70
2.00
0.21
-1.87
-4.37
-7.27
-10.39
-13.39
-15.99
-18.03
-19.62
-21.04
-22.71
-25.03
-28.26
-32.48
-37.42
-42.44
-46.54
-48.53
-47.45
-42.89
-35.22
-25.59
-15.49
-6.30
1.09
6.45
10.06
12.51
14.40
16.14
17.93
19.79
21.64
23.35
24.90
26.27
27.45
28.46
29.29
29.96
30.48
30.97
31.50
32.08
32.60
32.84
32.58
31.69
30.18
28.20
25.97
23.66
21.42
19.36
17.52
15.96
14.65
13.51
12.40
11.13
9.59
7.68
5.42
2.95
0.42
-2.00
-4.26
-6.42
-8.57
-10.90
-13.45
-16.16
-18.87
-21.33
-23.44
-25.24
-26.94
-28.86
-31.33
-34.60
-38.80
-43.79
-49.11
-53.91
-57.09
-57.57
-54.68
-48.51
-39.86
-30.06
-20.50
-12.17
-5.45
-0.13
4.29
8.35
12.34
16.28
20.00
23.27
25.94
27.93
29.31
30.13
30.45
30.32
29.87
29.30
28.86
28.76
29.08
29.64
30.13
30.18
29.60
28.40
26.83
25.22
23.81
22.59
21.39
19.90
17.93
15.43
12.64
9.88
7.42
5.33
3.45
1.52
-0.77
-3.52
-6.71
-10.16
-13.65
-16.97
-20.01
-22.78
-25.46
-28.32
-31.78
-36.17
-41.64
-47.87
-54.04
-58.90
-61.04
-59.46
-53.82
-44.68
-33.38
-21.54
-10.66
-1.66
5.23
10.36
14.33
17.72
20.87
23.85
26.59
29.01
31.09
32.89
34.43
35.72
36.67
37.15
37.10
36.58
35.76
34.86
34.09
33.51
33.01
32.36
31.28
29.56
27.22
24.47
21.71
19.33
17.57
16.44
15.64
14.80
13.59
11.94
9.97
7.98
6.22
4.81
3.58
2.26
0.49
-1.97
-5.19
-9.09
-13.38
-17.79
-22.02
-25.89
-29.41
-32.72
-36.12
-39.94
-44.46
-49.75
-55.42
-60.63
-64.13
-64.61
-61.18
-53.80
-43.31
-31.25
-19.28
-8.70
-0.12
6.52
11.68
15.87
19.45
22.59
25.35
27.77
29.94
31.95
33.82
35.46
36.70
37.36
37.39
36.88
36.07
35.30
34.84
34.83
35.19
35.66
35.88
35.54
34.44
32.65
30.41
28.11
26.12
24.58
23.39
22.28
20.92
19.12
16.89
14.42
11.94
9.59
7.38
5.21
2.87
0.21
-2.92
-6.55
-10.61
-14.89
-19.12
-23.00
-26.39
-29.39
-32.38
-35.89
-40.40
-46.08
-52.52
-58.73
-63.27
-64.59
-61.68
-54.36
-43.49
-30.76
-18.05
-6.89
1.98
8.62
13.60
17.52
20.72
23.26
25.11
26.38
27.36
28.47
29.97
31.84
33.78
35.38
36.37
36.73
36.66
36.46
36.31
36.19
35.91
35.16
33.75
31.65
29.05
26.28
23.64
21.27
19.15
17.07
14.78
12.20
9.39
6.58
3.97
1.69
-0.34
-2.32
-4.47
-6.91
-9.67
-12.61
-15.58
-18.38
-20.95
-23.30
-25.56
-28.03
-31.07
-35.07
-40.29
-46.58
-53.27
-59.11
-62.60
-62.36
-57.75
-49.17
-37.92
-25.85
-14.64
-5.34
1.76
7.05
11.06
14.32
17.10
19.56
21.82
24.08
26.50
29.14
31.90
34.47
36.49
37.64
37.81
37.10
35.84
34.43
33.21
32.33
31.69
31.01
29.94
28.30
26.07
23.48
20.82
18.36
16.22
14.44
12.89
11.46
9.97
8.36
6.60
4.79
3.06
1.55
0.24
-1.00
-2.44
-4.36
-6.90
-10.00
-13.40
-16.75
-19.73
-22.15
-23.99
-25.40
-26.66
-28.23
-30.55
-34.01
-38.65
-44.05
-49.22
-52.84
-53.57
-50.54
-43.75
-34.07
-23.06
-12.47
-3.64
2.79
6.98
9.58
11.42
13.11
15.04
17.25
19.61
21.92
23.94
25.40
26.13
26.08
25.38
24.34
23.33
22.63
22.35
22.41
22.62
22.76
22.67
22.24
21.44
20.33
19.00
17.56
16.10
14.64
13.17
11.61
9.94
8.19
6.50
5.00
3.73
2.46
0.79
-1.80
-5.73
-11.09
-17.61
-24.69
-31.62
-37.76
-42.69
-46.32
-48.85
-50.65
-52.08
-53.31
-54.13
-53.94
-51.90
-47.30
-39.87
-30.03
-18.82
-7.62
2.32
10.22
15.92
19.72
22.06
23.37
23.87
23.69
23.02
22.11
21.29
20.82
20.77
21.02
21.29
21.35
21.10
20.65
20.18
19.91
19.92
20.12
20.23
19.93
18.95
17.27
15.17
13.16
11.71
11.04
11.01
11.18
11.04
10.27
8.87
7.06
5.21
3.62
2.43
1.60
0.96
0.17
-1.11
-3.18
-6.21
-9.98
-14.09
-17.95
-21.10
-23.36
-24.91
-26.25
-28.02
-30.74
-34.65
-39.56
-44.74
-49.09
-51.34
-50.53
-46.28
-39.02
-29.87
-20.22
-11.32
-3.95
1.67
5.78
8.78
11.09
13.00
14.67
16.19
17.59
18.86
19.96
20.86
21.51
21.93
22.12
22.14
22.05
21.89
21.69
21.40
21.00
20.42
19.62
18.58
17.29
15.69
13.75
11.46
8.96
6.45
4.16
2.23
0.66
-0.71
-2.08
-3.67
-5.55
-7.71
-10.04
-12.39
-14.59
-16.55
-18.28
-19.94
-21.83
-24.32
-27.77
-32.31
-37.78
-43.59
-48.76
-52.14
-52.65
-49.66
-43.26
-34.31
-24.21
-14.52
-6.36
-0.20
4.20
7.52
10.45
13.40
16.41
19.32
21.93
24.14
25.99
27.52
28.72
29.46
29.61
29.12
28.09
26.79
25.52
24.58
24.04
23.75
23.38
22.57
21.08
18.96
16.50
14.10
12.07
10.44
8.99
7.39
5.40
3.01
0.44
-1.96
-3.96
-5.47
-6.64
-7.76
-9.14
-11.00
-13.36
-16.01
-18.60
-20.74
-22.21
-23.08
-23.63
-24.33
-25.63
-27.85
-31.13
-35.32
-39.94
-44.11
-46.71
-46.64
-43.20
-36.45
-27.25
-17.05
-7.40
0.54
6.22
9.84
11.98
13.39
14.66
16.11
17.78
19.50
21.04
22.25
23.04
23.43
23.50
23.26
22.77
22.12
21.41
20.80
20.38
20.15
20.01
19.74
19.21
18.37
17.25
15.96
14.58
13.15
11.67
10.09
8.39
6.59
4.76
2.98
1.35
-0.11
-1.47
-2.91
-4.64
-6.82
-9.45
-12.36
-15.28
-17.94
-20.24
-22.29
-24.45
-27.08
-30.50
-34.66
-39.17
-43.18
-45.65
-45.56
-42.33
-36.05
-27.50
-17.98
-8.81
-1.03
4.96
9.25
12.28
14.45
16.06
17.24
18.03
18.56
18.96
19.36
19.79
20.18
20.42
20.40
20.08
19.50
18.79
18.12
17.66
17.46
17.50
17.60
17.50
17.01
16.07
14.76
13.27
11.77
10.30
8.80
7.16
5.34
3.37
1.35
-0.57
-2.32
-3.94
-5.53
-7.28
-9.34
-11.76
-14.45
-17.18
-19.69
-21.77
-23.38
-24.64
-25.84
-27.35
-29.56
-32.66
-36.48
-40.38
-43.30
-44.05
-41.75
-36.20
-28.06
-18.66
-9.51
-1.84
3.72
7.24
9.28
10.50
11.51
12.66
14.02
15.49
16.94
18.25
19.42
20.49
21.46
22.28
22.83
22.99
22.77
22.32
21.89
21.63
21.57
21.54
21.28
20.58
19.43
17.96
16.44
15.10
14.06
13.25
12.48
11.53
10.23
8.55
6.62
4.62
2.75
1.12
-0.28
-1.57
-2.84
-4.12
-5.36
-6.48
-7.44
-8.28
-9.09
-9.98
-11.01
-12.18
-13.50
-15.00
-16.74
-18.85
-21.45
-24.66
-28.58
-33.16
-38.05
-42.57
-45.77
-46.60
-44.38
-39.08
-31.38
-22.54
-13.92
-6.62
-1.14
2.64
5.18
7.09
8.78
10.41
11.98
13.40
14.67
15.86
17.09
18.39
19.70
20.81
21.51
21.65
21.27
20.51
19.56
18.59
17.65
16.72
15.72
14.56
13.19
11.65
10.09
8.63
7.41
6.46
5.69
4.97
4.15
3.22
2.21
1.19
0.28
-0.51
-1.14
-1.67
-2.16
-2.73
-3.50
-4.63
-6.20
-8.16
-10.34
-12.50
-14.43
-16.05
-17.50
-19.01
-20.88
-23.35
-26.60
-30.65
-35.23
-39.75
-43.25
-44.64
-43.00
-38.04
-30.23
-20.76
-11.14
-2.72
3.77
8.22
11.07
12.91
14.25
15.33
16.16
16.71
17.01
17.18
17.39
17.77
18.31
18.82
19.07
18.88
18.27
17.47
16.80
16.54
16.74
17.20
17.58
17.55
16.96
15.90
14.66
13.51
12.65
12.05
11.53
10.86
9.81
8.30
6.33
4.09
1.78
-0.38
-2.26
-3.92
-5.56
-7.43
-9.67
-12.23
-14.88
-17.30
-19.22
-20.60
-21.62
-22.60
-23.89
-25.77
-28.40
-31.79
-35.69
-39.53
-42.39
-43.23
-41.20
-36.06
-28.31
-19.17
-10.11
-2.41
3.27
6.97
9.20
10.65
11.86
13.08
14.33
15.49
16.49
17.30
17.96
18.56
19.16
19.78
20.42
21.03
21.59
22.09
22.55
22.99
23.39
23.66
23.65
23.16
22.05
20.29
17.95
15.23
12.36
9.56
6.97
4.66
2.66
0.93
-0.55
-1.87
-3.06
-4.16
-5.13
-5.89
-6.38
-6.66
-6.87
-7.26
-8.06
-9.34
-11.02
-12.83
-14.48
-15.73
-16.55
-17.11
-17.76
-18.94
-21.04
-24.28
-28.56
-33.45
-38.13
-41.60
-42.89
-41.34
-36.88
-30.09
-22.08
-14.09
-7.19
-1.90
1.76
4.19
5.87
7.29
8.72
10.32
12.16
14.25
16.51
18.83
21.01
22.86
24.22
25.04
25.40
25.41
25.22
24.94
24.54
23.93
22.97
21.55
19.64
17.33
14.84
12.47
10.54
9.31
8.84
8.97
9.31
9.37
8.77
7.38
5.32
3.01
0.86
-0.89
-2.21
-3.34
-4.56
-6.11
-8.07
-10.37
-12.82
-15.26
-17.60
-19.84
-22.05
-24.37
-26.97
-30.04
-33.74
-38.05
-42.69
-47.05
-50.18
-51.10
-49.00
-43.62
-35.36
-25.23
-14.64
-4.89
3.12
9.13
13.46
16.73
19.54
22.20
24.67
26.76
28.27
29.20
29.64
29.78
29.64
29.17
28.27
26.92
25.31
23.74
22.51
21.73
21.30
20.90
20.22
19.06
17.41
15.45
13.43
11.54
9.84
8.21
6.55
4.73
2.82
0.91
-0.85
-2.43
-3.90
-5.39
-7.06
-8.97
-11.14
-13.46
-15.80
-17.97
-19.79
-21.15
-22.02
-22.58
-23.12
-24.05
-25.73
-28.37
-31.82
-35.54
-38.62
-39.99
-38.76
-34.58
-27.84
-19.62
-11.25
-3.92
1.76
5.79
8.60
10.72
12.45
13.90
15.00
15.71
16.09
16.26
16.40
16.60
16.89
17.24
17.62
18.03
18.47
18.99
19.70
20.64
21.86
23.23
24.53
25.48
25.83
25.47
24.45
22.92
21.09
19.14
17.19
15.27
13.38
11.41
9.25
6.80
4.10
1.29
-1.34
-3.51
-5.12
-6.30
-7.37
-8.70
-10.58
-13.05
-15.94
-18.95
-21.79
-24.24
-26.21
-27.75
-29.04
-30.34
-31.96
-34.16
-36.99
-40.15
-42.91
-44.24
-43.15
-39.07
-32.13
-23.18
-13.53
-4.48
3.03
8.65
12.55
15.16
17.00
18.43
19.67
20.84
21.98
23.12
24.24
25.31
26.25
26.97
27.32
27.26
26.79
26.06
25.28
24.69
24.38
24.25
24.05
23.51
22.49
21.02
19.36
17.78
16.50
15.58
14.86
14.11
13.11
11.69
9.84
7.64
5.27
2.90
0.61
-1.57
-3.72
-5.96
-8.39
-11.05
-13.93
-16.92
-19.82
-22.35
-24.30
-25.60
-26.41
-27.17
-28.48
-30.80
-34.24
-38.27
-41.90
-43.86
-43.12
-39.27
-32.70
-24.44
-15.83
-8.03
-1.78
2.74
5.78
7.72
9.01
9.96
10.81
11.72
12.81
14.13
15.63
17.14
18.48
19.46
20.03
20.29
20.47
20.77
21.34
22.20
23.24
24.29
25.16
25.66
25.64
24.98
23.65
21.74
19.44
16.98
14.54
12.25
10.16
8.32
6.77
5.50
4.47
3.48
2.30
0.65
-1.59
-4.34
-7.38
-10.38
-13.10
-15.43
-17.49
-19.57
-22.02
-25.22
-29.41
-34.53
-40.15
-45.38
-49.00
-49.87
-47.25
-41.22
-32.67
-23.06
-13.94
-6.40
-0.89
2.83
5.38
7.46
9.53
11.73
13.94
16.00
17.77
19.25
20.51
21.66
22.74
23.69
24.40
24.75
24.77
24.58
24.39
24.33
24.37
24.34
23.90
22.83
21.10
18.90
16.61
14.61
13.10
12.05
11.19
10.19
8.80
6.98
4.91
2.84
1.01
-0.50
-1.81
-3.14
-4.82
-7.04
-9.83
-13.01
-16.25
-19.22
-21.64
-23.47
-24.84
-26.05
-27.43
-29.34
-32.04
-35.63
-39.92
-44.22
-47.51
-48.59
-46.56
-41.14
-32.92
-23.18
-13.41
-4.88
1.77
6.53
9.85
12.31
14.34
16.18
17.83
19.25
20.39
21.23
21.77
22.02
21.96
21.50
20.58
19.26
17.75
16.37
15.48
15.27
15.68
16.35
16.85
16.78
16.02
14.67
13.03
11.40
9.97
8.77
7.74
6.77
5.87
5.06
4.41
3.90
3.41
2.71
1.56
-0.25
-2.77
-5.88
-9.31
-12.72
-15.84
-18.53
-20.88
-23.16
-25.76
-29.03
-33.06
-37.59
-41.90
-44.95
-45.70
-43.45
-38.15
-30.48
-21.65
-13.02
-5.71
-0.24
3.42
5.73
7.29
8.57
9.85
11.19
12.65
14.22
15.88
17.59
19.21
20.55
21.41
21.69
21.48
21.00
20.50
20.13
19.89
19.62
19.12
18.23
16.89
15.20
13.41
11.77
10.53
9.78
9.47
9.30
8.94
8.10
6.66
4.73
2.50
0.15
-2.31
-5.02
-8.18
-11.91
-16.07
-20.33
-24.24
-27.33
-29.34
-30.23
-30.29
-30.02
-30.06
-30.99
-33.13
-36.31
-39.81
-42.57
-43.36
-41.34
-36.22
-28.47
-19.15
-9.64
-1.17
5.46
10.09
13.10
15.19
17.03
19.05
21.31
23.69
25.93
27.86
29.38
30.40
30.82
30.50
29.43
27.78
25.97
24.48
23.75
23.88
24.67
25.66
26.35
26.32
25.37
23.55
21.08
18.29
15.52
13.11
11.24
9.99
9.30
8.98
8.82
8.65
8.36
7.91
7.37
6.81
6.30
5.87
5.38
4.65
3.40
1.45
-1.30
-4.77
-8.70
-12.89
-17.16
-21.45
-25.77
-30.18
-34.67
-39.28
-44.07
-49.05
-54.06
-58.55
-61.63
-62.25
-59.58
-53.41
-44.36
-33.74
-23.07
-13.58
-5.92
-0.00
4.65
8.64
12.38
15.98
19.34
22.32
24.80
26.80
28.38
29.62
30.54
31.15
31.46
31.51
31.41
31.30
31.28
31.34
31.38
31.13
30.33
28.82
26.66
24.12
21.54
19.23
17.29
15.61
13.98
12.23
10.32
8.40
6.63
5.15
3.91
2.76
1.41
-0.40
-2.88
-6.00
-9.61
-13.35
-16.88
-19.91
-22.38
-24.43
-26.33
-28.45
-31.13
-34.65
-39.02
-43.93
-48.62
-51.99
-52.91
-50.62
-45.08
-37.08
-27.92
-19.01
-11.42
-5.56
-1.30
1.88
4.56
7.21
10.07
13.21
16.54
19.91
23.13
26.04
28.53
30.47
31.81
32.50
32.59
32.20
31.54
30.82
30.22
29.77
29.33
28.67
27.54
25.86
23.72
21.38
19.18
17.34
15.90
14.78
13.77
12.74
11.61
10.43
9.29
8.22
7.19
6.05
4.53
2.40
-0.53
-4.30
-8.76
-13.61
-18.50
-23.10
-27.21
-30.85
-34.24
-37.68
-41.50
-45.90
-50.72
-55.40
-58.96
-60.24
-58.26
-52.65
-43.90
-33.24
-22.28
-12.48
-4.69
0.95
4.89
7.83
10.35
12.79
15.22
17.59
19.86
22.03
24.11
26.02
27.65
28.84
29.57
29.91
30.08
30.31
30.73
31.29
31.82
32.04
31.74
30.81
29.33
27.51
25.63
23.93
22.54
21.32
20.04
18.42
16.29
13.75
11.02
8.37
5.97
3.82
1.78
-0.33
-2.67
-5.25
-8.02
-10.87
-13.71
-16.45
-19.08
-21.70
-24.45
-27.62
-31.40
-35.83
-40.62
-45.02
-47.99
-48.43
-45.58
-39.30
-30.23
-19.66
-9.13
0.04
7.10
11.99
15.14
17.22
18.76
20.05
21.12
21.93
22.52
23.04
23.67
24.52
25.52
26.38
26.84
26.78
26.32
25.74
25.39
25.46
25.87
26.30
26.35
25.72
24.31
22.31
20.06
17.85
15.85
14.02
12.21
10.29
8.23
6.12
4.14
2.35
0.73
-0.90
-2.72
-4.89
-7.36
-9.98
-12.52
-14.78
-16.64
-18.15
-19.45
-20.78
-22.43
-24.71
-27.82
-31.71
-35.93
-39.66
-41.79
-41.28
-37.57
-30.85
-22.10
-12.75
-4.26
2.41
7.03
9.99
12.05
13.86
15.77
17.83
19.85
21.68
23.27
24.65
25.86
26.84
27.41
27.40
26.71
25.43
23.82
22.22
20.92
20.07
19.64
19.42
19.15
18.58
17.54
16.08
14.41
12.83
11.61
10.92
10.72
10.76
10.71
10.25
9.24
7.74
6.02
4.38
3.06
2.11
1.33
0.39
-1.05
-3.19
-5.98
-9.15
-12.32
-15.10
-17.27
-18.81
-19.89
-20.84
-22.10
-24.10
-27.06
-30.84
-34.85
-38.10
-39.48
-38.16
-33.96
-27.48
-19.90
-12.57
-6.58
-2.38
0.15
1.62
2.73
4.04
5.80
8.00
10.44
12.89
15.11
16.95
18.26
19.02
19.21
18.90
18.23
17.37
16.44
15.54
14.70
13.89
13.13
12.40
11.71
11.04
10.34
9.52
8.52
7.32
5.92
4.42
2.90
1.50
0.30
-0.70
-1.62
-2.64
-3.94
-5.62
-7.68
-10.01
-12.44
-14.81
-17.03
-19.05
-20.92
-22.80
-24.87
-27.33
-30.20
-33.19
-35.65
-36.73
-35.66
-32.11
-26.37
-19.28
-11.96
-5.45
-0.41
3.02
5.07
6.18
6.82
7.35
8.02
8.94
10.12
11.46
12.78
13.89
14.59
14.78
14.41
13.54
12.27
10.79
9.28
7.93
6.90
6.27
6.03
6.03
6.05
5.86
5.31
4.44
3.41
2.52
1.96
1.76
1.71
1.48
0.73
-0.74
-2.90
-5.51
-8.23
-10.75
-12.87
-14.58
-15.98
-17.22
-18.51
-20.07
-22.09
-24.60
-27.39
-29.94
-31.45
-31.10
-28.39
-23.40
-16.84
-9.86
-3.62
1.10
4.13
5.79
6.63
7.23
7.91
8.82
9.94
11.20
12.47
13.58
14.38
14.74
14.58
13.93
12.88
11.61
10.27
9.02
7.94
7.07
6.33
5.61
4.78
3.70
2.33
0.70
-1.04
-2.72
-4.18
-5.25
-5.91
-6.18
-6.18
-5.99
-5.71
-5.36
-4.92
-4.35
-3.65
-2.87
-2.17
-1.73
-1.77
-2.44
-3.79
-5.72
-8.03
-10.41
-12.58
-14.40
-15.88
-17.16
-18.50
-20.15
-22.33
-25.12
-28.48
-32.10
-35.35
-37.33
-37.16
-34.32
-28.91
-21.78
-14.21
-7.47
-2.34
1.08
3.29
4.96
6.65
8.53
10.49
12.22
13.52
14.35
14.75
14.85
14.70
14.26
13.50
12.45
11.24
10.09
9.22
8.71
8.48
8.26
7.87
7.24
6.45
5.77
5.40
5.43
5.85
6.54
7.43
8.48
9.66
10.84
11.80
12.28
12.11
11.32
10.15
8.91
7.88
7.11
6.48
5.72
4.58
2.95
0.87
-1.47
-3.84
-6.04
-7.95
-9.61
-11.14
-12.82
-15.00
-17.93
-21.70
-26.09
-30.51
-34.08
-35.87
-35.22
-32.00
-26.68
-20.19
-13.63
-7.91
-3.46
-0.27
2.03
3.83
5.44
6.97
8.44
9.88
11.35
12.90
14.52
16.07
17.31
18.04
18.16
17.69
16.76
15.55
14.20
12.81
11.42
10.09
8.85
7.76
6.85
6.13
5.62
5.24
4.89
4.49
4.00
3.45
2.93
2.51
2.17
1.74
0.95
-0.50
-2.71
-5.60
-8.88
-12.23
-15.37
-18.26
-20.95
-23.61
-26.37
-29.35
-32.55
-35.85
-38.94
-41.25
-42.08
-40.81
-37.18
-31.50
-24.63
-17.68
-11.69
-7.18
-4.14
-2.08
-0.38
1.47
3.64
6.08
8.61
11.04
13.32
15.40
17.24
18.73
19.74
20.21
20.21
19.93
19.63
19.51
19.63
19.88
20.05
19.86
19.05
17.51
15.26
12.54
9.78
7.42
5.77
4.88
4.47
4.15
3.58
2.61
1.36
0.06
-1.15
-2.27
-3.51
-5.13
-7.27
-9.87
-12.66
-15.31
-17.59
-19.47
-21.14
-22.88
-24.88
-27.28
-30.12
-33.36
-36.84
-40.26
-43.02
-44.31
-43.30
-39.55
-33.20
-25.13
-16.68
-9.17
-3.44
0.33
2.59
4.05
5.40
7.05
9.10
11.44
13.90
16.37
18.77
21.09
23.28
25.21
26.75
27.76
28.23
28.25
28.00
27.62
27.12
26.34
25.05
23.14
20.73
18.23
16.13
14.77
14.19
14.13
14.26
14.31
14.25
14.21
14.35
14.69
15.11
15.34
15.11
14.18
12.46
9.97
6.90
3.53
0.21
-2.79
-5.33
-7.52
-9.59
-11.77
-14.21
-16.82
-19.44
-21.87
-24.05
-26.05
-28.12
-30.52
-33.55
-37.30
-41.67
-46.19
-50.09
-52.41
-52.27
-49.14
-43.10
-34.86
-25.61
-16.62
-8.91
-2.96
1.31
4.40
6.91
9.39
12.12
15.15
18.35
21.49
24.38
26.79
28.57
29.61
29.89
29.50
28.64
27.56
26.56
25.87
25.62
25.82
26.30
26.77
26.93
26.56
25.65
24.39
23.11
22.09
21.39
20.81
20.04
18.80
16.99
14.82
12.61
10.66
9.02
7.51
5.78
3.51
0.62
-2.68
-5.99
-8.92
-11.29
-13.22
-15.05
-17.22
-20.09
-23.91
-28.72
-34.38
-40.44
-46.12
-50.33
-51.91
-50.03
-44.60
-36.40
-26.81
-17.36
-9.18
-2.69
2.35
6.47
10.08
13.35
16.12
18.22
19.60
20.50
21.27
22.17
23.27
24.37
25.15
25.41
25.13
24.59
24.13
24.05
24.41
25.06
25.66
25.95
25.70
24.89
23.54
21.71
19.48
16.96
14.34
11.84
9.69
8.02
6.86
6.15
5.77
5.57
5.39
5.00
4.14
2.55
0.12
-3.02
-6.50
-9.83
-12.51
-14.33
-15.43
-16.22
-17.31
-19.26
-22.40
-26.75
-31.98
-37.38
-41.99
-44.75
-44.76
-41.58
-35.44
-27.28
-18.44
-10.30
-3.83
0.65
3.46
5.33
7.03
9.07
11.64
14.57
17.56
20.32
22.70
24.66
26.24
27.43
28.17
28.43
28.22
27.70
27.11
26.69
26.50
26.42
26.16
25.44
24.08
22.15
19.91
17.70
15.78
14.26
13.09
12.11
11.19
10.19
9.04
7.70
6.19
4.57
3.01
1.61
0.41
-0.80
-2.37
-4.61
-7.65
-11.27
-14.96
-18.18
-20.57
-22.15
-23.33
-24.72
-26.92
-30.31
-34.84
-39.98
-44.75
-47.90
-48.29
-45.23
-38.84
-29.99
-20.14
-10.75
-2.92
2.89
6.84
9.45
11.32
12.90
14.43
15.98
17.57
19.24
21.01
22.95
24.98
26.97
28.70
29.99
30.71
30.83
30.33
29.19
27.36
24.84
21.76
18.40
15.10
12.18
9.77
7.83
6.18
4.64
3.11
1.55
-0.00
-1.52
-3.01
-4.51
-6.04
-7.66
-9.32
-10.94
-12.35
-13.38
-13.97
-14.29
-14.69
-15.65
-17.62
-20.81
-25.15
-30.20
-35.22
-39.28
-41.44
-41.03
-37.80
-32.14
-24.92
-17.30
-10.30
-4.52
0.01
3.65
6.94
10.26
13.74
17.21
20.38
23.00
25.04
26.60
27.93
29.15
30.24
30.99
31.16
30.68
29.68
28.48
27.42
26.66
26.14
25.56
24.59
23.02
20.85
18.32
15.78
13.58
11.91
10.76
9.92
9.14
8.20
7.06
5.86
4.79
4.03
3.54
3.13
2.50
1.42
-0.26
-2.45
-4.96
-7.50
-9.82
-11.76
-13.22
-14.34
-15.39
-16.84
-19.13
-22.55
-26.94
-31.67
-35.70
-37.86
-37.21
-33.44
-26.95
-18.79
-10.32
-2.86
2.71
6.13
7.74
8.29
8.60
9.29
10.60
12.41
14.41
16.25
17.68
18.67
19.28
19.60
19.68
19.56
19.28
18.95
18.77
18.93
19.46
20.26
21.01
21.33
20.93
19.75
17.98
16.05
14.35
13.13
12.38
11.88
11.28
10.33
8.98
7.31
5.53
3.83
2.29
0.91
-0.39
-1.75
-3.28
-5.13
-7.31
-9.81
-12.46
-15.02
-17.24
-18.98
-20.31
-21.49
-22.96
-25.17
-28.45
-32.86
-38.05
-43.27
-47.48
-49.51
-48.47
-44.05
-36.65
-27.34
-17.48
-8.36
-0.81
4.87
8.89
11.71
13.77
15.36
16.57
17.37
17.76
17.81
17.65
17.40
17.08
16.67
16.09
15.26
14.21
13.05
11.88
10.79
9.76
8.72
7.58
6.30
4.84
3.23
1.48
-0.32
-2.15
-3.99
-5.90
-7.96
-10.21
-12.64
-15.13
-17.58
-19.90
-22.14
-24.42
-26.93
-29.76
-32.90
-36.15
-39.23
-41.88
-43.92
-45.35
-46.38
-47.32
-48.52
-50.22
-52.40
-54.64
-56.23
-56.27
-54.00
-49.00
-41.41
-31.90
-21.46
-11.12
-1.66
6.55
13.52
19.57
25.08
30.39
35.63
40.74
45.52
49.70
53.14
55.80
57.80
59.27
60.25
60.69
60.43
59.39
57.60
55.22
52.41
49.23
45.62
41.52
36.94
32.13
27.48
23.35
19.91
16.98
14.22
11.24
7.87
4.20
0.56
-2.68
-5.25
-7.06
-8.17
-8.75
-9.07
-9.46
-10.26
-11.74
-14.02
-16.96
-20.25
-23.44
-26.14
-28.12
-29.39
-30.15
-30.76
-31.64
-33.12
-35.25
-37.67
-39.60
-40.05
-38.24
-33.93
-27.64
-20.51
-13.83
-8.67
-5.53
-4.28
-4.40
-5.19
-6.03
-6.46
-6.17
-5.02
-2.97
-0.14
3.19
6.66
9.90
12.62
14.72
16.32
17.64
18.95
20.38
21.85
23.11
23.87
23.95
23.30
22.04
20.37
18.48
16.55
14.67
12.88
11.17
9.50
7.81
6.13
4.57
3.28
2.37
1.80
1.37
0.75
-0.33
-1.98
-4.08
-6.31
-8.36
-10.03
-11.39
-12.64
-14.14
-16.15
-18.80
-21.95
-25.20
-27.95
-29.50
-29.22
-26.78
-22.31
-16.41
-10.02
-4.15
0.47
3.55
5.29
6.12
6.53
6.83
7.17
7.61
8.19
8.97
9.94
11.02
12.03
12.78
13.20
13.33
13.34
13.31
13.30
13.22
12.97
12.47
11.71
10.66
9.23
7.32
4.90
2.07
-0.88
-3.56
-5.70
-7.22
-8.34
-9.37
-10.63
-12.23
-14.08
-15.93
-17.47
-18.52
-19.10
-19.37
-19.68
-20.37
-21.75
-23.93
-26.82
-30.02
-32.92
-34.76
-34.83
-32.66
-28.24
-22.06
-15.02
-8.08
-2.03
2.79
6.54
9.65
12.60
15.66
18.85
21.98
24.77
26.98
28.39
28.94
28.63
27.62
26.13
24.45
22.76
21.19
19.76
18.46
17.30
16.31
15.43
14.56
13.50
12.08
10.26
8.20
6.19
4.51
3.28
2.41
1.69
0.82
-0.40
-1.97
-3.78
-5.61
-7.29
-8.75
-10.03
-11.29
-12.73
-14.60
-17.08
-20.30
-24.17
-28.36
-32.22
-34.87
-35.46
-33.49
-29.05
-22.90
-16.19
-10.12
-5.40
-2.17
0.02
1.83
3.79
6.05
8.45
10.61
12.28
13.41
14.13
14.64
15.05
15.28
15.20
14.63
13.56
12.16
10.73
9.57
8.86
8.53
8.36
8.04
7.31
6.03
4.23
2.04
-0.32
-2.65
-4.75
-6.52
-7.95
-9.12
-10.24
-11.61
-13.58
-16.41
-20.18
-24.66
-29.21
-32.92
-34.84
-34.28
-31.08
-25.75
-19.23
-12.64
-6.85
-2.25
1.23
3.99
6.40
8.73
11.06
13.35
15.51
17.45
19.07
20.25
20.86
20.83
20.22
19.21
18.08
17.11
16.46
16.14
15.95
15.67
15.06
13.99
12.52
10.77
8.96
7.24
5.66
4.18
2.68
1.03
-0.82
-2.87
-5.04
-7.22
-9.33
-11.39
-13.48
-15.78
-18.46
-21.71
-25.63
-30.17
-35.02
-39.50
-42.70
-43.68
-41.79
-36.99
-29.99
-22.00
-14.38
-8.18
-3.78
-0.94
1.06
2.94
5.19
7.93
10.96
13.97
16.69
19.00
20.93
22.56
24.00
25.30
26.46
27.49
28.39
29.10
29.54
29.62
29.23
28.38
27.13
25.67
24.13
22.63
21.20
19.80
18.32
16.66
14.79
12.78
10.75
8.87
7.23
5.77
4.28
2.49
0.15
-2.80
-6.23
-9.88
-13.42
-16.64
-19.48
-22.07
-24.72
-27.86
-31.90
-37.02
-43.01
-49.11
-54.11
-56.72
-56.03
-51.83
-44.69
-35.77
-26.37
-17.48
-9.63
-2.92
2.78
7.57
11.52
14.62
16.97
18.75
20.27
21.79
23.48
25.37
27.35
29.28
31.04
32.53
33.70
34.46
34.67
34.21
32.98
30.99
28.37
25.38
22.25
19.11
16.00
12.88
9.71
6.57
3.62
1.06
-0.93
-2.30
-3.18
-3.81
-4.49
-5.46
-6.87
-8.72
-10.84
-13.03
-15.14
-17.15
-19.17
-21.42
-24.14
-27.48
-31.46
-35.83
-40.10
-43.54
-45.32
-44.71
-41.32
-35.28
-27.24
-18.21
-9.32
-1.50
4.77
9.44
12.83
15.42
17.55
19.41
21.00
22.24
23.11
23.76
24.38
25.12
26.00
26.83
27.40
27.53
27.19
26.46
25.48
24.29
22.88
21.16
19.09
16.73
14.23
11.76
9.43
7.24
5.08
2.80
0.26
-2.62
-5.76
-8.99
-12.08
-14.77
-16.92
-18.61
-20.12
-21.93
-24.53
-28.23
-32.96
-38.10
-42.55
-45.05
-44.56
-40.72
-34.00
-25.53
-16.71
-8.69
-2.04
3.18
7.32
10.77
13.77
16.42
18.71
20.68
22.37
23.86
25.14
26.16
26.83
27.07
26.88
26.36
25.63
24.88
24.20
23.54
22.81
21.78
20.30
18.31
15.91
13.31
10.72
8.31
6.07
3.90
1.61
-1.01
-4.01
-7.30
-10.61
-13.60
-16.01
-17.77
-19.17
-20.72
-22.98
-26.34
-30.84
-35.99
-40.90
-44.38
-45.33
-43.03
-37.45
-29.23
-19.59
-9.92
-1.36
5.49
10.64
14.55
17.83
20.94
24.01
26.92
29.48
31.51
32.95
33.86
34.31
34.31
33.82
32.88
31.53
29.98
28.47
27.23
26.31
25.59
24.74
23.38
21.21
18.18
14.47
10.57
7.00
4.15
2.15
0.80
-0.31
-1.64
-3.46
-5.79
-8.43
-11.05
-13.37
-15.28
-16.88
-18.44
-20.31
-22.83
-26.22
-30.50
-35.31
-39.91
-43.30
-44.42
-42.55
-37.65
-30.37
-21.97
-13.82
-6.98
-1.90
1.62
4.18
6.41
8.79
11.43
14.21
16.89
19.26
21.25
22.88
24.18
25.25
26.09
26.69
27.07
27.30
27.49
27.73
28.04
28.31
28.29
27.74
26.50
24.54
22.01
19.20
16.36
13.66
11.09
8.54
5.81
2.80
-0.48
-3.92
-7.30
-10.44
-13.21
-15.58
-17.59
-19.37
-21.08
-22.90
-25.03
-27.67
-31.00
-35.06
-39.76
-44.65
-48.95
-51.63
-51.64
-48.35
-41.80
-32.87
-22.95
-13.45
-5.31
1.20
6.43
10.94
15.10
18.89
22.07
24.38
25.78
26.51
26.87
27.12
27.31
27.38
27.23
26.82
26.25
25.65
25.10
24.57
23.91
22.85
21.18
18.80
15.81
12.47
9.15
6.10
3.44
1.01
-1.49
-4.33
-7.59
-11.12
-14.61
-17.73
-20.32
-22.50
-24.55
-26.87
-29.82
-33.60
-38.15
-43.11
-47.80
-51.26
-52.48
-50.76
-45.93
-38.53
-29.70
-20.73
-12.68
-6.06
-0.77
3.63
7.60
11.40
15.01
18.30
21.13
23.55
25.70
27.73
29.70
31.49
32.92
33.79
34.07
33.87
33.48
33.19
33.17
33.41
33.63
33.42
32.38
30.30
27.23
23.48
19.50
15.69
12.26
9.14
6.10
2.87
-0.71
-4.59
-8.60
-12.42
-15.81
-18.71
-21.20
-23.57
-26.15
-29.28
-33.19
-37.86
-42.91
-47.59
-50.85
-51.60
-49.10
-43.29
-34.83
-24.99
-15.21
-6.63
0.14
5.06
8.48
10.85
12.57
13.92
15.10
16.31
17.71
19.38
21.29
23.31
25.26
26.94
28.25
29.17
29.74
30.05
30.16
30.11
29.82
29.21
28.16
26.61
24.62
22.30
19.86
17.54
15.46
13.70
12.22
10.88
9.53
8.01
6.28
4.35
2.34
0.40
-1.39
-2.99
-4.42
-5.80
-7.26
-8.94
-10.95
-13.29
-15.89
-18.60
-21.29
-23.91
-26.41
-28.66
-30.28
-30.62
-28.83
-24.12
-16.12
-5.01
8.34
22.73
36.85
49.61
60.28
68.65
74.97
80.02
85.18
92.17
102.54
116.83
133.77
150.15
161.47
163.42
153.56
132.51
103.89
73.11
45.48
24.33
10.09
0.47
-8.49
-21.09
-40.60
-68.33
-103.12
-141.13
-176.42
-202.18
-212.81
-205.85
-183.17
-150.65
-116.24
-87.27
-68.19
-59.78
-59.87
-65.01
-72.12
-79.25
-85.40
-90.03
-92.63
-92.84
-90.87
-87.70
-84.81
-83.44
-83.73
-84.46
-83.53
-78.83
-69.31
-55.50
-39.38
-23.53
-10.18
-0.46
5.78
9.64
12.50
15.41
18.80
22.55
26.19
29.31
31.69
33.42
34.70
35.84
37.06
38.47
40.07
41.72
43.22
44.35
44.88
44.69
43.78
42.27
40.34
38.18
35.89
33.46
30.88
28.19
25.55
23.16
21.17
19.58
18.17
16.57
14.42
11.52
7.96
4.01
0.01
-3.86
-7.60
-11.38
-15.41
-19.85
-24.82
-30.39
-36.58
-43.14
-49.45
-54.46
-56.86
-55.53
-50.00
-40.75
-29.16
-16.98
-5.83
3.32
10.25
15.36
19.22
22.29
24.79
26.73
28.14
29.16
30.01
30.93
31.99
33.08
33.95
34.35
34.14
33.41
32.33
31.16
30.07
29.10
28.20
27.22
25.98
24.34
22.21
19.65
16.83
14.00
11.44
9.31
7.61
6.14
4.61
2.72
0.25
-2.80
-6.33
-10.07
-13.78
-17.31
-20.71
-24.16
-27.94
-32.32
-37.52
-43.59
-50.34
-57.18
-63.05
-66.62
-66.59
-62.20
-53.57
-41.85
-28.78
-16.23
-5.53
2.75
8.80
13.18
16.49
19.12
21.25
22.97
24.42
25.78
27.20
28.74
30.24
31.47
32.28
32.74
33.14
33.85
35.07
36.67
38.10
38.68
37.84
35.41
31.63
27.10
22.42
18.01
13.99
10.23
6.45
2.40
-2.03
-6.76
-11.60
-16.29
-20.57
-24.34
-27.63
-30.71
-33.98
-37.86
-42.63
-48.20
-53.93
-58.67
-61.01
-59.68
-54.10
-44.61
-32.49
-19.54
-7.47
2.53
10.15
15.74
19.99
23.55
26.79
29.81
32.52
34.88
36.95
38.84
40.64
42.31
43.72
44.66
45.02
44.82
44.20
43.35
42.45
41.54
40.59
39.45
37.97
36.03
33.54
30.53
27.12
23.54
20.05
16.90
14.17
11.70
9.15
6.08
2.16
-2.68
-8.25
-14.12
-19.88
-25.23
-30.12
-34.75
-39.50
-44.86
-51.28
-59.08
-68.13
-77.69
-86.38
-92.45
-94.30
-91.13
-83.29
-72.21
-59.95
-48.47
-39.08
-32.28
-27.80
-25.06
-23.39
-22.27
-21.28
-20.06
-18.33
-15.81
-12.28
-7.59
-1.66
5.51
13.81
23.06
33.02
43.45
54.11
64.66
74.64
83.40
90.22
94.50
95.98
94.89
91.91
87.96
83.84
80.05
76.61
73.23
69.51
65.19
60.30
55.11
49.97
45.03
40.15
35.01
29.26
22.84
15.96
9.12
2.78
-2.74
-7.49
-11.79
-16.16
-21.17
-27.30
-34.75
-43.23
-51.81
-59.02
-63.13
-62.77
-57.40
-47.60
-34.91
-21.31
-8.60
2.07
10.32
16.37
20.74
23.98
26.46
28.44
30.09
31.47
32.64
33.60
34.33
34.82
35.04
34.99
34.67
34.14
33.45
32.69
31.93
31.20
30.43
29.54
28.37
26.83
24.86
22.51
19.86
17.00
14.03
11.07
8.25
5.72
3.55
1.71
0.01
-1.83
-4.05
-6.75
-9.79
-12.90
-15.83
-18.46
-20.93
-23.52
-26.58
-30.43
-35.33
-41.33
-48.15
-55.04
-60.73
-63.75
-62.86
-57.57
-48.40
-36.74
-24.36
-12.83
-3.09
4.65
10.64
15.30
18.97
21.78
23.76
24.99
25.63
25.91
26.13
26.44
26.90
27.43
27.87
28.10
28.09
27.91
27.68
27.51
27.40
27.23
26.82
26.02
24.74
23.07
21.16
19.20
17.32
15.56
13.90
12.27
10.65
9.02
7.36
5.56
3.46
0.85
-2.34
-6.04
-10.03
-13.93
-17.44
-20.41
-22.92
-25.28
-27.92
-31.28
-35.62
-40.88
-46.56
-51.72
-55.09
-55.43
-51.92
-44.58
-34.31
-22.66
-11.39
-1.82
5.45
10.56
14.12
16.80
19.05
21.02
22.64
23.88
24.78
25.45
26.02
26.48
26.77
26.78
26.49
25.97
25.40
24.95
24.72
24.66
24.57
24.20
23.39
22.08
20.41
18.56
16.71
14.93
13.22
11.47
9.58
7.50
5.30
3.11
1.08
-0.70
-2.27
-3.80
-5.55
-7.78
-10.62
-13.98
-17.63
-21.22
-24.48
-27.30
-29.74
-32.06
-34.59
-37.66
-41.48
-45.94
-50.52
-54.26
-55.95
-54.50
-49.42
-41.07
-30.62
-19.64
-9.67
-1.70
4.00
7.71
9.99
11.40
12.33
13.02
13.61
14.22
14.92
15.71
16.50
17.11
17.37
17.21
16.71
16.09
15.62
15.50
15.77
16.26
16.69
16.71
16.12
14.88
13.20
11.37
9.69
8.29
7.10
5.93
4.54
2.84
0.92
-0.99
-2.62
-3.86
-4.79
-5.73
-7.01
-8.86
-11.26
-14.01
-16.78
-19.30
-21.45
-23.33
-25.18
-27.32
-30.06
-33.60
-37.93
-42.70
-47.12
-50.09
-50.42
-47.32
-40.72
-31.44
-20.94
-10.87
-2.50
3.55
7.37
9.47
10.49
10.98
11.23
11.39
11.54
11.75
12.11
12.66
13.41
14.28
15.17
15.96
16.51
16.75
16.66
16.30
15.77
15.15
14.46
13.62
12.50
10.98
9.06
6.84
4.58
2.53
0.88
-0.40
-1.46
-2.55
-3.90
-5.61
-7.66
-9.96
-12.38
-14.85
-17.28
-19.65
-21.95
-24.20
-26.52
-29.07
-32.07
-35.66
-39.79
-44.04
-47.63
-49.54
-48.76
-44.65
-37.23
-27.30
-16.19
-5.43
3.74
10.65
15.29
18.17
20.00
21.35
22.59
23.76
24.76
25.50
25.97
26.23
26.37
26.34
26.01
25.25
24.05
22.64
21.33
20.51
20.30
20.56
20.86
20.74
19.89
18.22
15.94
13.37
10.80
8.37
6.07
3.79
1.41
-1.07
-3.58
-5.95
-8.02
-9.77
-11.25
-12.66
-14.19
-15.96
-17.95
-20.05
-22.08
-23.86
-25.32
-26.47
-27.46
-28.50
-29.93
-32.12
-35.28
-39.27
-43.47
-46.80
-48.03
-46.29
-41.39
-33.95
-25.15
-16.33
-8.55
-2.35
2.24
5.52
7.87
9.62
10.99
12.10
13.08
14.05
15.11
16.30
17.56
18.70
19.53
19.92
19.87
19.55
19.20
19.00
18.96
18.96
18.76
18.19
17.17
15.74
14.08
12.40
10.86
9.55
8.45
7.43
6.36
5.19
3.93
2.69
1.55
0.49
-0.61
-1.90
-3.54
-5.55
-7.84
-10.29
-12.78
-15.27
-17.75
-20.28
-22.95
-25.94
-29.48
-33.73
-38.64
-43.71
-48.01
-50.39
-49.85
-45.93
-38.99
-30.05
-20.53
-11.74
-4.51
0.91
4.72
7.38
9.31
10.81
12.00
12.97
13.79
14.50
15.21
15.92
16.65
17.36
18.05
18.74
19.41
20.00
20.40
20.44
20.03
19.17
17.93
16.46
14.83
13.05
11.09
8.98
6.85
4.86
3.20
1.92
0.97
0.18
-0.67
-1.79
-3.35
-5.41
-7.96
-10.79
-13.66
-16.25
-18.35
-20.02
-21.49
-23.23
-25.69
-29.16
-33.64
-38.72
-43.60
-47.17
-48.28
-46.10
-40.42
-31.85
-21.65
-11.40
-2.53
4.13
8.39
10.67
11.72
12.27
12.91
13.96
15.52
17.50
19.71
21.89
23.82
25.33
26.29
26.70
26.60
26.11
25.42
24.75
24.29
24.12
24.18
24.19
23.81
22.81
21.14
18.98
16.70
14.59
12.80
11.27
9.88
8.56
7.37
6.35
5.47
4.51
3.15
1.12
-1.58
-4.71
-7.88
-10.77
-13.29
-15.61
-17.99
-20.68
-23.85
-27.57
-31.83
-36.47
-40.96
-44.43
-45.79
-44.15
-39.21
-31.56
-22.50
-13.61
-6.14
-0.64
3.10
5.71
7.86
9.93
11.97
13.86
15.46
16.72
17.70
18.43
18.89
19.00
18.68
17.89
16.78
15.57
14.52
13.80
13.37
13.04
12.48
11.42
9.76
7.57
5.09
2.58
0.15
-2.18
-4.55
-7.08
-9.82
-12.67
-15.39
-17.70
-19.33
-20.22
-20.50
-20.53
-20.82
-21.86
-24.01
-27.34
-31.54
-35.93
-39.53
-41.31
-40.45
-36.64
-30.23
-22.12
-13.53
-5.59
0.94
5.83
9.27
11.69
13.54
15.15
16.68
18.17
19.62
20.98
22.25
23.38
24.37
25.13
25.59
25.65
25.34
24.70
23.88
23.04
22.28
21.59
20.88
20.08
19.09
17.91
16.57
15.13
13.61
12.00
10.33
8.65
7.02
5.54
4.20
2.90
1.47
-0.29
-2.50
-5.07
-7.78
-10.29
-12.31
-13.78
-14.93
-16.17
-18.04
-20.95
-25.05
-30.21
-35.92
-41.36
-45.50
-47.33
-46.08
-41.58
-34.36
-25.49
-16.35
-8.07
-1.32
3.86
7.84
11.07
13.83
16.15
17.88
18.89
19.20
19.02
18.63
18.28
18.07
17.95
17.79
17.49
17.09
16.73
16.55
16.56
16.56
16.15
14.94
12.64
9.32
5.30
1.08
-2.86
-6.26
-9.06
-11.36
-13.26
-14.77
-15.70
-15.91
-15.31
-14.12
-12.76
-11.74
-11.41
-11.75
-12.42
-12.90
-12.73
-11.71
-9.94
-7.82
-5.91
-4.88
-5.42
-8.11
-13.06
-19.69
-26.60
-31.89
-33.76
-31.20
-24.44
-14.83
-4.32
5.30
12.91
18.29
21.84
24.23
26.01
27.49
28.76
29.80
30.63
31.31
31.92
32.52
33.15
33.78
34.36
34.82
35.09
35.14
34.98
34.61
34.04
33.23
32.14
30.66
28.70
26.23
23.26
19.92
16.37
12.81
9.33
5.95
2.59
-0.84
-4.44
-8.22
-12.12
-16.05
-19.91
-23.60
-27.03
-30.13
-32.87
-35.38
-37.93
-40.90
-44.64
-49.26
-54.49
-59.58
-63.35
-64.50
-62.04
-55.60
-45.69
-33.58
-20.92
-9.29
0.30
7.60
12.96
17.09
20.65
24.05
27.39
30.58
33.49
36.01
38.11
39.70
40.74
41.12
40.87
40.10
39.06
38.03
37.18
36.50
35.84
34.90
33.44
31.35
28.72
25.79
22.79
19.95
17.34
14.93
12.67
10.60
8.75
7.19
5.85
4.48
2.79
0.49
-2.49
-5.99
-9.65
-13.10
-16.06
-18.49
-20.53
-22.45
-24.63
-27.44
-31.19
-35.91
-41.23
-46.33
-50.00
-51.02
-48.58
-42.59
-33.77
-23.47
-13.21
-4.27
2.68
7.60
10.89
13.10
14.67
15.79
16.49
16.77
16.70
16.46
16.27
16.25
16.38
16.52
16.51
16.24
15.77
15.24
14.82
14.61
14.64
14.79
14.87
14.69
14.10
13.08
11.73
10.21
8.76
7.50
6.46
5.51
4.46
3.06
1.12
-1.40
-4.36
-7.50
-10.50
-13.10
-15.28
-17.20
-19.18
-21.55
-24.57
-28.31
-32.62
-37.06
-40.93
-43.30
-43.22
-40.02
-33.66
-24.89
-15.03
-5.57
2.34
8.19
12.22
15.04
17.26
19.23
20.97
22.29
23.07
23.34
23.29
23.12
22.98
22.83
22.52
21.90
20.92
19.72
18.52
17.57
17.03
16.86
16.85
16.69
16.03
14.62
12.44
9.67
6.63
3.74
1.31
-0.51
-1.79
-2.79
-3.82
-5.17
-6.95
-9.12
-11.50
-13.85
-15.95
-17.71
-19.18
-20.59
-22.30
-24.65
-27.93
-32.15
-36.91
-41.41
-44.53
-45.20
-42.70
-36.99
-28.73
-19.13
-9.55
-1.18
5.28
9.72
12.45
14.04
15.04
15.87
16.72
17.62
18.55
19.52
20.60
21.86
23.25
24.62
25.74
26.46
26.74
26.72
26.59
26.43
26.21
25.78
24.99
23.76
22.14
20.24
18.21
16.17
14.16
12.14
10.02
7.70
5.12
2.31
-0.55
-3.29
-5.80
-8.09
-10.35
-12.76
-15.36
-18.03
-20.54
-22.67
-24.38
-25.91
-27.66
-30.12
-33.67
-38.31
-43.60
-48.62
-52.13
-52.89
-50.11
-43.71
-34.47
-23.77
-13.16
-3.91
3.36
8.63
12.38
15.14
17.34
19.15
20.59
21.61
22.27
22.71
23.12
23.57
24.00
24.27
24.28
24.08
23.85
23.76
23.90
24.10
24.08
23.52
22.27
20.40
18.14
15.79
13.59
11.68
10.06
8.67
7.34
5.93
4.32
2.51
0.60
-1.32
-3.24
-5.27
-7.63
-10.48
-13.77
-17.25
-20.54
-23.35
-25.63
-27.63
-29.81
-32.66
-36.54
-41.57
-47.45
-53.46
-58.44
-61.10
-60.29
-55.57
-47.32
-36.75
-25.47
-14.97
-6.17
0.69
5.91
10.01
13.42
16.38
18.92
21.02
22.72
24.10
25.27
26.33
27.32
28.15
28.69
28.83
28.56
28.05
27.56
27.38
27.62
28.10
28.35
27.83
26.16
23.30
19.66
15.93
12.77
10.50
8.99
7.72
6.06
3.65
0.50
-3.04
-6.51
-9.59
-12.23
-14.61
-17.00
-19.67
-22.87
-26.87
-31.83
-37.68
-43.84
-49.20
-52.34
-52.06
-47.80
-40.02
-29.95
-19.24
-9.36
-1.25
4.82
9.05
11.96
14.08
15.84
17.49
19.11
20.68
22.07
23.21
24.07
24.70
25.12
25.34
25.40
25.36
25.39
25.65
26.18
26.84
27.23
26.92
25.62
23.33
20.43
17.53
15.19
13.69
12.96
12.61
12.15
11.23
9.76
7.97
6.23
4.90
4.11
3.72
3.35
2.52
0.90
-1.64
-4.97
-8.77
-12.67
-16.41
-19.93
-23.39
-27.13
-31.55
-36.90
-43.13
-49.70
-55.58
-59.41
-59.96
-56.47
-49.00
-38.48
-26.39
-14.32
-3.52
5.35
12.24
17.45
21.40
24.44
26.82
28.72
30.29
31.61
32.69
33.41
33.54
32.94
31.57
29.64
27.56
25.75
24.50
23.92
23.84
23.94
23.86
23.30
22.12
20.33
18.08
15.57
13.03
10.59
8.29
6.06
3.78
1.41
-1.02
-3.37
-5.46
-7.17
-8.58
-9.89
-11.34
-13.14
-15.28
-17.60
-19.81
-21.71
-23.25
-24.65
-26.34
-28.83
-32.58
-37.73
-43.94
-50.30
-55.43
-57.86
-56.52
-51.16
-42.50
-31.94
-21.07
-11.13
-2.73
4.09
9.61
14.11
17.72
20.52
22.61
24.24
25.73
27.32
29.04
30.77
32.25
33.29
33.87
34.12
34.26
34.52
34.96
35.49
35.82
35.63
34.64
32.75
30.07
26.91
23.63
20.56
17.86
15.47
13.26
11.07
8.88
6.80
5.03
3.71
2.78
1.93
0.70
-1.36
-4.46
-8.49
-13.06
-17.68
-21.94
-25.73
-29.18
-32.59
-36.33
-40.69
-45.92
-52.08
-58.93
-65.72
-71.19
-73.87
-72.46
-66.44
-56.34
-43.66
-30.36
-18.20
-8.26
-0.75
4.76
9.01
12.59
15.84
18.87
21.64
24.12
26.34
28.40
30.34
32.16
33.73
34.90
35.53
35.66
35.50
35.33
35.32
35.44
35.42
34.90
33.59
31.46
28.73
25.77
22.92
20.33
17.97
15.62
13.09
10.30
7.34
4.42
1.82
-0.38
-2.29
-4.23
-6.65
-9.83
-13.76
-18.10
-22.33
-25.96
-28.81
-31.05
-33.15
-35.67
-39.17
-43.97
-50.02
-56.77
-63.15
-67.74
-69.07
-66.17
-58.94
-48.30
-35.87
-23.53
-12.73
-4.14
2.32
7.23
11.28
14.90
18.23
21.22
23.76
25.86
27.66
29.35
30.97
32.45
33.53
34.03
33.89
33.33
32.69
32.32
32.36
32.66
32.85
32.56
31.58
29.92
27.85
25.68
23.68
21.98
20.54
19.15
17.58
15.61
13.19
10.43
7.61
5.02
2.85
1.05
-0.60
-2.46
-4.80
-7.72
-11.09
-14.60
-17.93
-20.89
-23.47
-25.88
-28.45
-31.56
-35.54
-40.54
-46.40
-52.50
-57.82
-61.08
-61.08
-57.18
-49.52
-39.07
-27.30
-15.73
-5.50
2.85
9.24
13.88
17.02
18.81
19.35
18.74
17.22
15.16
13.10
11.69
11.54
13.00
16.07
20.30
24.98
29.30
32.69
34.94
36.14
36.55
36.35
35.65
34.45
32.74
30.65
28.38
26.21
24.36
22.93
21.83
20.82
19.56
17.76
15.18
11.67
7.11
1.42
-5.36
-12.95
-20.79
-28.08
-34.05
-38.25
-40.76
-42.18
-43.45
-45.38
-48.32
-51.89
-55.12
-56.71
-55.52
-51.00
-43.37
-33.58
-22.99
-12.97
-4.41
2.38
7.66
11.95
15.74
19.23
22.36
24.90
26.62
27.47
27.62
27.39
27.10
26.98
27.10
27.38
27.71
28.02
28.29
28.52
28.64
28.48
27.80
26.46
24.51
22.17
19.79
17.62
15.73
13.97
12.08
9.87
7.26
4.38
1.37
-1.61
-4.49
-7.29
-10.01
-12.63
-15.03
-17.08
-18.67
-19.82
-20.73
-21.74
-23.34
-25.97
-29.96
-35.24
-41.30
-47.10
-51.33
-52.68
-50.34
-44.25
-35.20
-24.60
-13.98
-4.57
3.04
8.85
13.27
16.82
19.85
22.50
24.78
26.58
27.90
28.79
29.30
29.49
29.40
29.05
28.53
27.93
27.38
26.98
26.70
26.45
26.05
25.31
24.12
22.47
20.47
18.27
16.01
13.76
11.59
9.48
7.43
5.45
3.57
1.81
0.12
-1.64
-3.63
-6.00
-8.72
-11.65
-14.52
-17.08
-19.24
-21.08
-22.83
-24.81
-27.36
-30.77
-35.17
-40.42
-45.96
-50.75
-53.53
-53.15
-49.02
-41.42
-31.47
-20.76
-10.83
-2.73
3.21
7.26
10.07
12.32
14.53
16.96
19.62
22.35
24.94
27.17
28.94
30.19
30.95
31.26
31.15
30.67
29.90
28.95
27.94
26.97
26.06
25.15
24.13
22.90
21.43
19.78
18.08
16.42
14.84
13.25
11.55
9.68
7.73
5.87
4.22
2.78
1.35
-0.39
-2.72
-5.74
-9.28
-13.02
-16.54
-19.61
-22.19
-24.50
-26.96
-30.00
-34.00
-39.02
-44.71
-50.21
-54.33
-55.86
-53.94
-48.51
-40.32
-30.72
-21.18
-12.84
-6.14
-0.99
3.06
6.48
9.52
12.28
14.80
17.16
19.51
21.94
24.36
26.49
27.94
28.45
28.01
26.91
25.59
24.51
23.89
23.69
23.67
23.47
22.84
21.70
20.22
18.67
17.32
16.23
15.28
14.13
12.44
9.99
6.85
3.34
-0.17
-3.37
-6.19
-8.78
-11.47
-14.64
-18.61
-23.58
-29.49
-35.98
-42.24
-47.08
-49.23
-47.75
-42.41
-33.88
-23.58
-13.14
-3.88
3.57
9.25
13.65
17.29
20.49
23.25
25.36
26.64
27.02
26.69
25.93
25.11
24.44
23.95
23.49
22.82
21.77
20.38
18.84
17.46
16.44
15.76
15.18
14.33
12.86
10.61
7.65
4.27
0.86
-2.21
-4.72
-6.62
-8.04
-9.23
-10.57
-12.46
-15.29
-19.32
-24.52
-30.38
-35.90
-39.83
-40.99
-38.75
-33.30
-25.62
-17.12
-9.13
-2.47
2.70
6.69
9.98
12.93
15.65
18.02
19.89
21.21
22.06
22.58
22.88
22.97
22.76
22.21
21.36
20.41
19.54
18.88
18.34
17.66
16.55
14.84
12.54
9.85
6.97
4.04
1.06
-2.05
-5.36
-8.83
-12.36
-15.81
-19.06
-22.08
-24.87
-27.52
-30.19
-33.16
-36.74
-41.16
-46.30
-51.55
-55.82
-57.81
-56.49
-51.51
-43.42
-33.45
-23.09
-13.54
-5.39
1.43
7.28
12.59
17.50
21.90
25.57
28.33
30.26
31.54
32.42
33.10
33.60
33.92
33.99
33.87
33.64
33.45
33.42
33.53
33.70
33.70
33.26
32.19
30.38
27.88
24.92
21.81
18.89
16.42
14.42
12.75
11.08
9.16
6.80
4.03
1.00
-2.02
-4.81
-7.24
-9.35
-11.33
-13.47
-16.13
-19.63
-24.21
-29.88
-36.31
-42.71
-47.97
-50.82
-50.30
-46.11
-38.73
-29.40
-19.65
-10.77
-3.52
2.08
6.53
10.48
14.42
18.51
22.60
26.36
29.43
31.55
32.66
32.82
32.23
31.09
29.60
27.91
26.16
24.47
22.97
21.78
20.86
20.09
19.22
18.05
16.47
14.55
12.48
10.45
8.56
6.78
4.98
3.03
0.89
-1.39
-3.64
-5.71
-7.50
-9.03
-10.43
-11.90
-13.57
-15.50
-17.58
-19.61
-21.41
-22.91
-24.15
-25.31
-26.67
-28.50
-31.03
-34.33
-38.19
-42.01
-44.80
-45.44
-43.09
-37.55
-29.45
-20.06
-10.85
-3.02
2.88
6.96
9.76
11.87
13.69
15.37
16.83
17.99
18.82
19.35
19.67
19.81
19.77
19.50
18.95
18.12
17.14
16.19
15.44
14.99
14.78
14.63
14.25
13.44
12.17
10.59
9.01
7.72
6.86
6.32
5.83
5.07
3.85
2.19
0.34
-1.37
-2.76
-3.90
-5.04
-6.53
-8.57
-11.10
-13.79
-16.27
-18.28
-19.80
-21.07
-22.38
-24.06
-26.26
-29.03
-32.26
-35.63
-38.57
-40.34
-40.15
-37.45
-32.24
-25.13
-17.26
-9.84
-3.81
0.52
3.38
5.36
7.08
8.89
10.85
12.80
14.53
15.91
16.94
17.68
18.21
18.54
18.67
18.61
18.44
18.34
18.44
18.83
19.46
20.15
20.62
20.62
20.02
18.87
17.36
15.74
14.24
12.92
11.73
10.53
9.21
7.76
6.28
4.95
3.80
2.76
1.60
0.07
-1.93
-4.34
-6.93
-9.42
-11.62
-13.51
-15.17
-16.79
-18.56
-20.68
-23.26
-26.23
-29.26
-31.77
-33.02
-32.38
-29.55
-24.75
-18.64
-12.15
-6.20
-1.45
1.79
3.58
4.26
4.29
4.08
3.90
3.80
3.74
3.61
3.38
3.12
2.97
2.95
3.07
3.17
3.11
2.80
2.22
1.47
0.71
0.11
-0.21
-0.21
0.01
0.30
0.50
0.51
0.36
0.16
0.02
-0.01
0.02
-0.03
-0.34
-1.03
-2.16
-3.72
-5.58
-7.55
-9.41
-10.95
-12.08
-12.81
-13.31
-13.91
-14.93
-16.68
-19.32
-22.74
-26.47
-29.70
-31.52
-31.15
-28.30
-23.27
-16.87
-10.11
-3.86
1.35
5.41
8.43
10.67
12.30
13.51
14.38
15.03
15.53
15.94
16.32
16.74
17.28
17.99
18.83
19.68
20.36
20.72
20.69
20.37
19.87
19.27
18.53
17.54
16.16
14.34
12.15
9.77
7.43
5.30
3.48
1.89
0.34
-1.42
-3.59
-6.25
-9.26
-12.30
-15.06
-17.28
-18.94
-20.19
-21.37
-22.79
-24.79
-27.53
-31.03
-35.01
-38.81
-41.51
-42.15
-40.07
-35.25
-28.35
-20.56
-13.12
-6.90
-2.27
0.91
3.07
4.64
5.96
7.16
8.27
9.27
10.14
10.90
11.60
12.30
13.05
13.83
14.53
15.08
15.46
15.77
16.14
16.63
17.11
17.30
16.94
15.81
13.94
11.57
9.07
6.80
4.98
3.59
2.41
1.09
-0.70
-3.12
-6.08
-9.27
-12.30
-14.89
-16.96
-18.65
-20.18
-21.82
-23.77
-26.19
-29.20
-32.78
-36.63
-40.11
-42.28
-42.22
-39.40
-33.92
-26.56
-18.53
-10.99
-4.73
0.01
3.42
5.90
7.80
9.24
10.23
10.74
10.83
10.72
10.72
11.05
11.76
12.66
13.42
13.79
13.68
13.23
12.75
12.41
12.23
11.95
11.24
9.91
7.98
5.74
3.58
1.79
0.42
-0.72
-1.95
-3.55
-5.62
-8.04
-10.52
-12.80
-14.69
-16.26
-17.73
-19.43
-21.69
-24.70
-28.42
-32.56
-36.54
-39.53
-40.66
-39.24
-35.00
-28.36
-20.26
-11.99
-4.68
0.95
4.82
7.28
8.88
10.03
10.90
11.51
11.78
11.77
11.66
11.62
11.80
12.08
12.19
11.73
10.39
8.11
5.11
1.81
-1.33
-4.01
-6.21
-8.06
-9.75
-11.33
-12.69
-13.61
-13.94
-13.74
-13.30
-13.04
-13.39
-14.67
-17.07
-20.65
-25.19
-30.17
-34.76
-37.88
-38.56
-36.29
-31.23
-24.17
-16.18
-8.20
-0.75
6.11
12.51
18.54
24.06
28.74
32.29
34.64
35.99
36.72
37.24
37.78
38.36
38.85
39.04
38.79
38.15
37.25
36.31
35.40
34.41
33.03
30.89
27.75
23.66
18.96
14.14
9.67
5.77
2.32
-1.08
-4.93
-9.67
-15.47
-22.10
-28.89
-34.77
-38.55
-39.20
-36.26
-30.03
-21.54
-12.29
-3.76
2.98
7.66
10.68
12.90
15.23
18.21
21.90
25.82
29.34
31.90
33.25
33.52
33.06
32.24
31.30
30.37
29.49
28.71
28.06
27.54
27.04
26.32
25.12
23.21
20.52
17.10
13.13
8.86
4.58
0.51
-3.16
-6.38
-9.20
-11.71
-14.07
-16.51
-19.25
-22.61
-26.81
-31.85
-37.32
-42.36
-45.80
-46.56
-44.04
-38.36
-30.33
-21.14
-11.98
-3.67
3.42
9.32
14.24
18.42
21.98
24.97
27.39
29.32
30.87
32.16
33.31
34.33
35.12
35.47
35.19
34.18
32.52
30.46
28.31
26.36
24.69
23.17
21.47
19.24
16.25
12.52
8.33
4.12
0.39
-2.60
-4.82
-6.51
-8.08
-9.94
-12.41
-15.67
-19.67
-24.20
-28.71
-32.49
-34.67
-34.54
-31.80
-26.70
-19.97
-12.59
-5.46
0.87
6.23
10.76
14.68
18.16
21.22
23.75
25.68
27.00
27.81
28.26
28.50
28.62
28.61
28.44
28.13
27.77
27.51
27.46
27.57
27.62
27.26
26.13
24.08
21.17
17.76
14.29
11.14
8.49
6.31
4.30
2.12
-0.44
-3.42
-6.59
-9.62
-12.24
-14.33
-16.03
-17.66
-19.64
-22.30
-25.81
-30.08
-34.69
-38.93
-41.89
-42.65
-40.61
-35.78
-28.77
-20.69
-12.73
-5.76
-0.07
4.59
8.71
12.69
16.64
20.32
23.36
25.51
26.73
27.25
27.37
27.37
27.38
27.42
27.47
27.54
27.70
27.97
28.31
28.57
28.51
27.88
26.59
24.68
22.40
19.99
17.69
15.54
13.48
11.42
9.30
7.18
5.15
3.31
1.61
-0.12
-2.10
-4.48
-7.24
-10.22
-13.13
-15.73
-17.92
-19.71
-21.20
-22.56
-23.96
-25.60
-27.65
-30.15
-32.88
-35.29
-36.57
-35.97
-33.08
-28.12
-21.88
-15.44
-9.76
-5.32
-2.05
0.47
2.72
4.98
7.28
9.46
11.39
13.03
14.48
15.83
17.11
18.21
18.95
19.22
19.00
18.47
17.81
17.21
16.70
16.19
15.53
14.61
13.42
12.01
10.45
8.83
7.14
5.43
3.75
2.24
1.05
0.26
-0.15
-0.32
-0.49
-0.86
-1.61
-2.79
-4.39
-6.28
-8.29
-10.22
-11.89
-13.22
-14.28
-15.30
-16.59
-18.46
-21.04
-24.19
-27.40
-29.97
-31.13
-30.40
-27.71
-23.51
-18.56
-13.72
-9.62
-6.55
-4.39
-2.83
-1.47
-0.07
1.46
2.99
4.36
5.39
5.95
6.06
5.77
5.21
4.53
3.84
3.28
2.94
2.89
3.07
3.37
3.62
3.63
3.26
2.53
1.55
0.50
-0.45
-1.20
-1.78
-2.27
-2.74
-3.23
-3.71
-4.17
-4.58
-4.98
-5.39
-5.82
-6.24
-6.60
-6.90
-7.19
-7.62
-8.35
-9.53
-11.24
-13.51
-16.28
-19.37
-22.39
-24.82
-26.05
-25.60
-23.29
-19.34
-14.32
-8.97
-3.98
0.15
3.22
5.27
6.52
7.27
7.82
8.40
9.09
9.92
10.75
11.45
11.91
12.07
11.96
11.63
11.13
10.47
9.64
8.66
7.59
6.51
5.52
4.63
3.77
2.79
1.58
0.18
-1.23
-2.43
-3.25
-3.71
-4.01
-4.41
-5.07
-5.93
-6.79
-7.42
-7.74
-7.82
-7.92
-8.26
-8.96
-10.00
-11.20
-12.35
-13.30
-14.04
-14.66
-15.42
-16.57
-18.35
-20.79
-23.66
-26.45
-28.48
-29.07
-27.77
-24.61
-20.02
-14.73
-9.54
-5.08
-1.64
0.79
2.40
3.45
4.17
4.71
5.19
5.66
6.16
6.67
7.13
7.45
7.64
7.72
7.82
8.05
8.47
9.04
9.67
10.27
10.74
11.04
11.11
10.91
10.35
9.37
7.97
6.24
4.36
2.54
1.00
-0.14
-0.88
-1.37
-1.87
-2.66
-3.91
-5.68
-7.83
-10.08
-12.16
-13.87
-15.17
-16.14
-16.94
-17.82
-19.04
-20.79
-23.07
-25.58
-27.66
-28.53
-27.50
-24.30
-19.29
-13.26
-7.18
-1.89
2.20
5.05
6.92
8.10
8.86
9.36
9.70
9.93
10.08
10.20
10.28
10.28
10.13
9.79
9.23
8.52
7.77
7.10
6.60
6.22
5.79
5.12
4.09
2.72
1.15
-0.41
-1.81
-3.01
-4.07
-5.16
-6.38
-7.82
-9.47
-11.21
-12.91
-14.44
-15.75
-16.88
-17.95
-19.20
-20.87
-23.12
-25.95
-29.07
-31.93
-33.77
-33.89
-31.87
-27.74
-22.08
-15.76
-9.67
-4.48
-0.42
2.57
4.83
6.67
8.31
9.78
10.99
11.78
12.05
11.83
11.35
10.83
10.51
10.44
10.57
10.77
10.99
11.25
11.64
12.17
12.73
13.05
12.89
12.12
10.82
9.22
7.59
6.09
4.81
3.69
2.60
1.41
0.01
-1.65
-3.57
-5.66
-7.76
-9.74
-11.57
-13.30
-15.15
-17.41
-20.38
-24.28
-29.11
-34.55
-39.94
-44.30
-46.66
-46.27
-42.92
-37.05
-29.54
-21.51
-13.93
-7.41
-2.12
2.13
5.66
8.82
11.85
14.82
17.73
20.45
22.92
25.03
26.73
27.98
28.79
29.19
29.29
29.18
28.99
28.78
28.59
28.39
28.16
27.86
27.45
26.83
25.86
24.35
22.18
19.34
15.98
12.35
8.76
5.43
2.48
-0.15
-2.63
-5.20
-8.04
-11.14
-14.35
-17.41
-20.07
-22.22
-23.98
-25.61
-27.44
-29.81
-32.93
-36.90
-41.58
-46.53
-50.90
-53.65
-53.74
-50.62
-44.48
-36.24
-27.31
-19.04
-12.33
-7.42
-3.98
-1.39
0.93
3.32
5.86
8.44
10.94
13.26
15.41
17.41
19.29
21.00
22.46
23.60
24.42
25.04
25.61
26.23
26.90
27.45
27.60
27.12
25.91
24.05
21.82
19.52
17.41
15.60
13.95
12.26
10.28
7.90
5.20
2.43
-0.13
-2.36
-4.39
-6.57
-9.41
-13.31
-18.40
-24.42
-30.69
-36.14
-39.62
-40.16
-37.31
-31.37
-23.28
-14.30
-5.65
1.94
8.28
13.60
18.25
22.44
26.15
29.26
31.63
33.32
34.46
35.21
35.64
35.68
35.19
34.10
32.45
30.47
28.47
26.84
25.83
25.48
25.54
25.60
25.18
23.95
21.92
19.38
16.82
14.69
13.14
11.97
10.76
9.02
6.49
3.14
-0.78
-4.87
-8.79
-12.33
-15.50
-18.46
-21.53
-25.06
-29.35
-34.47
-40.14
-45.67
-50.00
-51.98
-50.71
-45.94
-38.18
-28.57
-18.59
-9.47
-1.94
3.92
8.54
12.49
16.20
19.83
23.28
26.37
28.95
30.95
32.47
33.59
34.42
34.97
35.25
35.27
35.07
34.73
34.34
33.91
33.39
32.64
31.51
29.88
27.72
25.10
22.11
18.85
15.45
12.05
8.82
5.93
3.44
1.27
-0.84
-3.19
-6.02
-9.37
-13.04
-16.70
-20.02
-22.79
-25.02
-26.89
-28.72
-30.91
-33.76
-37.43
-41.79
-46.27
-49.98
-51.82
-50.91
-46.86
-39.94
-31.07
-21.50
-12.40
-4.52
1.94
7.22
11.80
16.12
20.39
24.57
28.49
31.94
34.75
36.89
38.43
39.44
39.99
40.15
40.00
39.63
39.16
38.68
38.25
37.83
37.34
36.65
35.59
34.04
31.92
29.24
26.12
22.73
19.29
15.95
12.80
9.91
7.31
5.02
2.96
1.03
-0.99
-3.28
-5.97
-9.03
-12.34
-15.70
-18.95
-22.04
-25.00
-28.09
-31.57
-35.70
-40.49
-45.55
-50.05
-52.86
-52.85
-49.39
-42.56
-33.21
-22.74
-12.59
-3.87
2.93
7.94
11.68
14.77
17.68
20.65
23.68
26.58
29.15
31.17
32.54
33.24
33.39
33.19
32.83
32.49
32.19
31.89
31.43
30.66
29.41
27.61
25.30
22.63
19.83
17.11
14.63
12.41
10.37
8.40
6.40
4.40
2.45
0.60
-1.20
-3.11
-5.33
-7.95
-10.95
-14.14
-17.30
-20.20
-22.74
-24.94
-26.90
-28.83
-31.00
-33.69
-37.13
-41.29
-45.79
-49.76
-52.09
-51.68
-47.93
-40.99
-31.78
-21.72
-12.17
-4.09
2.22
7.01
10.80
14.09
17.10
19.85
22.22
24.11
25.51
26.52
27.20
27.56
27.53
27.06
26.22
25.18
24.20
23.41
22.83
22.30
21.57
20.52
19.13
17.51
15.78
13.99
12.14
10.22
8.27
6.36
4.57
2.94
1.44
0.03
-1.36
-2.83
-4.50
-6.49
-8.88
-11.61
-14.47
-17.23
-19.74
-22.05
-24.44
-27.27
-30.86
-35.29
-40.32
-45.32
-49.41
-51.61
-51.08
-47.40
-40.79
-32.10
-22.61
-13.65
-6.18
-0.58
3.33
6.10
8.29
10.31
12.31
14.26
16.06
17.68
19.14
20.51
21.84
23.05
23.92
24.22
23.75
22.57
20.99
19.43
18.30
17.78
17.77
17.98
18.05
17.76
17.07
16.09
14.98
13.87
12.76
11.58
10.17
8.39
6.16
3.49
0.55
-2.46
-5.28
-7.74
-9.73
-11.31
-12.63
-13.90
-15.39
-17.33
-19.88
-23.07
-26.75
-30.50
-33.60
-35.18
-34.42
-30.88
-24.72
-16.75
-8.23
-0.44
5.69
9.83
12.26
13.58
14.38
15.04
15.67
16.19
16.53
16.70
16.80
16.96
17.27
17.76
18.36
18.99
19.58
20.08
20.45
20.62
20.44
19.77
18.49
16.59
14.21
11.56
8.90
6.40
4.17
2.25
0.64
-0.63
-1.59
-2.31
-3.06
-4.13
-5.78
-8.07
-10.83
-13.74
-16.48
-18.82
-20.73
-22.26
-23.55
-24.78
-26.14
-27.85
-30.07
-32.63
-35.02
-36.40
-35.87
-32.92
-27.62
-20.71
-13.33
-6.57
-1.21
2.47
4.64
5.67
6.02
6.10
6.20
6.53
7.17
8.07
9.07
10.00
10.68
11.03
11.04
10.76
10.29
9.74
9.22
8.80
8.50
8.30
8.09
7.73
7.08
6.06
4.66
2.96
1.06
-0.91
-2.80
-4.48
-5.86
-6.90
-7.66
-8.32
-9.13
-10.34
-12.21
-14.87
-18.28
-22.20
-26.04
-28.99
-30.15
-28.84
-24.92
-18.88
-11.73
-4.64
1.43
6.08
9.42
11.92
14.01
15.94
17.66
18.94
19.55
19.43
18.72
17.70
16.65
15.82
15.27
14.96
14.74
14.49
14.12
13.59
12.89
12.02
10.99
9.76
8.31
6.60
4.59
2.27
-0.33
-3.09
-5.83
-8.38
-10.62
-12.52
-14.20
-15.81
-17.54
-19.55
-21.98
-24.93
-28.38
-32.06
-35.37
-37.47
-37.47
-34.81
-29.47
-22.08
-13.78
-5.75
1.08
6.33
10.11
12.83
14.92
16.63
18.03
19.08
19.72
20.02
20.08
20.01
19.88
19.67
19.31
18.78
18.11
17.40
16.74
16.25
15.88
15.48
14.82
13.71
12.06
9.94
7.61
5.41
3.59
2.24
1.17
0.04
-1.53
-3.72
-6.50
-9.53
-12.44
-14.88
-16.75
-18.23
-19.66
-21.44
-23.87
-27.03
-30.72
-34.37
-37.16
-38.17
-36.68
-32.49
-26.11
-18.57
-11.14
-4.82
-0.09
3.22
5.63
7.73
9.83
11.94
13.86
15.32
16.19
16.55
16.63
16.70
16.97
17.49
18.13
18.69
19.01
19.02
18.79
18.47
18.19
17.95
17.66
17.19
16.46
15.50
14.41
13.29
12.18
11.00
9.61
7.88
5.76
3.24
0.38
-2.71
-5.85
-8.80
-11.26
-12.97
-13.87
-14.16
-14.30
-14.86
-16.36
-19.02
-22.69
-26.85
-30.73
-33.45
-34.27
-32.73
-28.76
-22.77
-15.51
-7.93
-0.93
4.85
9.20
12.22
14.28
15.79
17.05
18.24
19.41
20.51
21.46
22.17
22.57
22.64
22.41
21.97
21.42
20.83
20.24
19.65
19.08
18.54
18.04
17.48
16.72
15.54
13.79
11.45
8.72
5.91
3.39
1.44
0.19
-0.43
-0.59
-0.59
-0.69
-1.08
-1.84
-2.96
-4.36
-5.98
-7.83
-9.97
-12.52
-15.55
-19.12
-23.24
-27.83
-32.69
-37.34
-41.04
-42.92
-42.24
-38.72
-32.68
-25.05
-17.00
-9.62
-3.53
1.19
4.86
7.94
10.73
13.26
15.38
16.90
17.79
18.21
18.39
18.52
18.62
18.58
18.23
17.52
16.60
15.74
15.22
15.14
15.36
15.57
15.40
14.62
13.22
11.38
9.38
7.50
5.89
4.58
3.50
2.55
1.74
1.14
0.82
0.85
1.10
1.32
1.21
0.57
-0.65
-2.20
-3.76
-5.06
-5.98
-6.69
-7.50
-8.79
-10.86
-13.91
-17.98
-22.88
-28.15
-32.99
-36.44
-37.61
-36.00
-31.75
-25.60
-18.66
-12.01
-6.36
-1.92
1.53
4.36
6.89
9.19
11.19
12.79
13.99
14.90
15.73
16.61
17.50
18.21
18.48
18.16
17.34
16.29
15.31
14.59
14.11
13.66
13.01
12.01
10.73
9.29
7.91
6.71
5.72
4.81
3.83
2.65
1.21
-0.42
-2.13
-3.79
-5.34
-6.80
-8.23
-9.77
-11.50
-13.45
-15.56
-17.71
-19.76
-21.52
-22.89
-23.84
-24.55
-25.34
-26.62
-28.65
-31.35
-34.16
-36.13
-36.24
-33.79
-28.76
-21.81
-14.05
-6.69
-0.58
3.98
7.15
9.37
11.08
12.55
13.85
14.98
15.92
16.76
17.64
18.63
19.68
20.65
21.32
21.58
21.52
21.31
21.17
21.19
21.21
21.01
20.27
18.85
16.77
14.26
11.65
9.32
7.49
6.26
5.49
4.83
3.94
2.52
0.55
-1.73
-3.98
-5.87
-7.28
-8.34
-9.33
-10.63
-12.48
-15.01
-18.03
-21.07
-23.35
-24.01
-22.36
-18.22
-12.04
-4.75
2.48
8.74
13.57
17.08
19.64
21.68
23.46
24.97
26.04
26.53
26.40
25.78
24.92
24.08
23.44
23.01
22.68
22.21
21.38
20.06
18.25
16.03
13.57
11.03
8.54
6.19
3.97
1.78
-0.50
-3.05
-5.91
-9.04
-12.29
-15.46
-18.36
-20.89
-23.06
-24.97
-26.83
-28.88
-31.37
-34.39
-37.70
-40.76
-42.69
-42.63
-40.06
-35.08
-28.41
-21.16
-14.39
-8.81
-4.60
-1.51
0.91
3.05
5.08
7.00
8.69
10.07
11.16
12.00
12.69
13.27
13.64
13.68
13.28
12.46
11.41
10.44
9.78
9.53
9.48
9.29
8.54
7.04
4.87
2.38
-0.03
-2.06
-3.71
-5.25
-7.06
-9.41
-12.36
-15.64
-18.81
-21.41
-23.16
-24.12
-24.64
-25.29
-26.63
-29.04
-32.50
-36.52
-40.23
-42.54
-42.51
-39.67
-34.17
-26.82
-18.82
-11.33
-5.14
-0.50
2.87
5.47
7.76
9.93
11.92
13.53
14.68
15.43
15.97
16.48
17.05
17.62
18.05
18.28
18.35
18.40
18.61
19.02
19.48
19.68
19.32
18.23
16.50
14.39
12.25
10.29
8.60
7.07
5.56
3.89
1.98
-0.21
-2.62
-5.11
-7.49
-9.57
-11.29
-12.73
-14.21
-16.12
-18.72
-21.94
-25.26
-27.86
-28.81
-27.47
-23.66
-17.78
-10.70
-3.47
3.05
8.40
12.60
16.03
19.12
22.14
25.12
27.85
30.11
31.75
32.84
33.55
34.05
34.42
34.54
34.19
33.16
31.34
28.83
25.87
22.82
20.06
17.85
16.26
15.16
14.25
13.11
11.41
8.96
5.86
2.45
-0.85
-3.64
-5.80
-7.43
-8.86
-10.42
-12.29
-14.41
-16.57
-18.55
-20.23
-21.70
-23.14
-24.81
-26.91
-29.53
-32.58
-35.72
-38.35
-39.68
-38.94
-35.69
-30.07
-22.79
-14.95
-7.62
-1.45
3.37
7.07
10.00
12.39
14.29
15.64
16.40
16.71
16.77
16.80
16.92
17.13
17.36
17.54
17.67
17.82
18.06
18.40
18.78
19.10
19.24
19.15
18.82
18.27
17.56
16.72
15.80
14.81
13.74
12.54
11.21
9.75
8.26
6.88
5.71
4.73
3.78
2.60
0.89
-1.49
-4.45
-7.72
-10.91
-13.71
-15.92
-17.55
-18.80
-20.00
-21.54
-23.72
-26.62
-29.94
-33.03
-34.96
-34.87
-32.27
-27.27
-20.56
-13.21
-6.31
-0.63
3.52
6.26
8.02
9.20
10.12
10.87
11.38
11.56
11.41
11.01
10.54
10.18
10.02
10.00
9.98
9.89
9.75
9.72
9.97
10.55
11.31
11.92
12.01
11.35
9.95
8.02
5.92
3.97
2.37
1.19
0.27
-0.62
-1.73
-3.25
-5.15
-7.24
-9.25
-10.93
-12.21
-13.20
-14.18
-15.45
-17.25
-19.76
-23.02
-26.89
-30.98
-34.58
-36.76
-36.60
-33.58
-27.81
-20.12
-11.78
-4.07
2.10
6.41
9.07
10.59
11.49
12.15
12.70
13.17
13.51
13.73
13.88
14.08
14.39
14.76
15.10
15.27
15.19
14.87
14.44
14.00
13.60
13.20
12.66
11.81
10.56
8.90
6.89
4.66
2.36
0.16
-1.78
-3.44
-4.93
-6.49
-8.39
-10.77
-13.53
-16.37
-18.85
-20.66
-21.77
-22.44
-23.16
-24.43
-26.61
-29.78
-33.71
-37.89
-41.58
-43.93
-44.17
-41.81
-36.90
-29.98
-22.07
-14.31
-7.62
-2.50
1.05
3.41
5.03
6.26
7.24
7.96
8.35
8.39
8.20
7.98
7.90
8.10
8.55
9.19
9.89
10.54
11.15
11.70
12.20
12.55
12.62
12.26
11.40
10.13
8.68
7.29
6.15
5.29
4.53
3.57
2.18
0.25
-2.07
-4.51
-6.74
-8.58
-10.01
-11.24
-12.60
-14.39
-16.90
-20.19
-24.11
-28.16
-31.58
-33.38
-32.74
-29.24
-23.13
-15.26
-6.88
0.80
6.91
11.10
13.42
14.20
13.86
12.82
11.46
10.17
9.30
9.08
9.56
10.57
11.81
12.91
13.63
13.91
13.85
13.69
13.62
13.67
13.75
13.66
13.21
12.35
11.16
9.79
8.41
7.06
5.78
4.53
3.27
1.95
0.49
-1.22
-3.27
-5.66
-8.27
-10.80
-13.01
-14.81
-16.36
-18.07
-20.42
-23.77
-28.19
-33.33
-38.48
-42.66
-44.84
-44.25
-40.58
-34.15
-25.85
-16.87
-8.36
-1.12
4.53
8.70
11.70
13.86
15.46
16.71
17.82
18.91
20.06
21.22
22.30
23.17
23.82
24.30
24.73
25.19
25.64
25.99
26.10
25.93
25.49
24.89
24.12
23.13
21.76
19.86
17.42
14.58
11.58
8.69
6.11
3.84
1.74
-0.34
-2.51
-4.75
-6.94
-8.96
-10.74
-12.33
-13.82
-15.35
-17.04
-19.07
-21.68
-25.16
-29.68
-35.08
-40.70
-45.40
-47.89
-47.18
-42.99
-35.88
-27.06
-17.92
-9.61
-2.72
2.71
6.94
10.32
13.06
15.24
16.87
18.04
18.89
19.65
20.51
21.60
22.90
24.28
25.53
26.48
26.99
27.10
26.92
26.60
26.23
25.75
25.00
23.78
21.99
19.73
17.30
15.03
13.19
11.79
10.58
9.18
7.18
4.40
0.88
-3.12
-7.24
-11.19
-14.85
-18.27
-21.69
-25.47
-29.97
-35.49
-42.09
-49.54
-57.16
-63.96
-68.78
-70.61
-68.88
-63.67
-55.71
-46.10
-36.01
-26.28
-17.29
-8.98
-1.10
6.53
13.94
21.03
27.69
34.00
40.15
46.41
52.93
59.67
66.38
72.77
78.56
83.60
87.80
91.08
93.35
94.41
94.02
91.95
88.03
82.25
74.87
66.41
57.64
49.34
42.14
36.31
31.69
27.71
23.68
18.93
13.11
6.26
-1.27
-8.93
-16.24
-22.94
-28.99
-34.56
-39.90
-45.19
-50.57
-56.02
-61.33
-65.97
-69.18
-70.09
-68.00
-62.72
-54.70
-44.97
-34.87
-25.63
-18.04
-12.35
-8.32
-5.40
-3.04
-0.82
1.43
3.61
5.50
6.86
7.57
7.70
7.44
7.05
6.67
6.37
6.11
5.91
5.81
5.88
6.16
6.56
6.86
6.78
6.04
4.53
2.33
-0.34
-3.17
-5.91
-8.42
-10.66
-12.71
-14.71
-16.82
-19.26
-22.27
-25.97
-30.28
-34.74
-38.52
-40.63
-40.23
-36.94
-31.02
-23.29
-14.82
-6.59
0.69
6.73
11.52
15.26
18.11
20.28
21.87
22.99
23.72
24.18
24.49
24.76
25.01
25.18
25.09
24.65
23.86
22.85
21.85
21.05
20.42
19.70
18.50
16.45
13.42
9.59
5.40
1.39
-1.97
-4.49
-6.33
-7.91
-9.83
-12.61
-16.45
-21.07
-25.69
-29.23
-30.60
-29.10
-24.67
-17.91
-9.86
-1.57
6.22
13.21
19.47
25.21
30.53
35.35
39.40
42.48
44.57
45.93
47.09
48.60
50.83
53.69
56.71
59.08
60.19
60.02
59.50
60.35
64.60
73.77
88.06
105.84
123.77
137.46
142.79
137.08
119.98
93.57
61.63
28.38
-2.73
-29.93
-53.40
-74.84
-96.57
-120.44
-146.94
-174.68
-200.58
-220.66
-231.39
-230.87
-219.53
-200.02
-176.09
-151.37
-128.45
-108.54
-91.88
-78.22
-67.28
-58.64
-51.58
-44.91
-37.28
-27.69
-16.05
-3.29
8.96
19.16
26.48
31.04
33.79
35.99
38.58
41.92
45.71
49.31
51.98
53.32
53.30
52.32
50.91
49.55
48.46
47.59
46.60
45.17
43.01
40.07
36.48
32.55
28.64
25.04
21.86
19.00
16.14
12.89
9.01
4.52
-0.28
-4.95
-9.13
-12.72
-15.88
-19.02
-22.57
-26.90
-32.19
-38.36
-44.97
-51.19
-55.86
-57.71
-55.84
-50.03
-40.97
-30.02
-18.76
-8.49
0.13
7.05
12.61
17.22
21.22
24.74
27.81
30.43
32.60
34.34
35.68
36.69
37.41
37.89
38.17
38.25
38.18
38.07
38.02
38.08
38.16
38.00
37.26
35.71
33.36
30.52
27.60
25.02
22.93
21.20
19.53
17.59
15.23
12.50
9.66
7.01
4.73
2.75
0.78
-1.55
-4.51
-8.14
-12.20
-16.27
-19.93
-22.96
-25.36
-27.43
-29.57
-32.23
-35.78
-40.38
-45.84
-51.55
-56.44
-59.23
-58.77
-54.49
-46.63
-36.29
-25.05
-14.44
-5.54
1.31
6.37
10.21
13.37
16.14
18.57
20.53
21.91
22.74
23.18
23.50
23.88
24.37
24.90
25.28
25.40
25.29
25.11
24.99
25.00
24.92
24.42
23.12
20.88
17.87
14.52
11.33
8.65
6.54
4.73
2.79
0.35
-2.77
-6.47
-10.49
-14.47
-18.15
-21.36
-24.15
-26.69
-29.28
-32.31
-36.10
-40.75
-45.94
-50.85
-54.28
-54.98
-52.11
-45.58
-36.15
-25.18
-14.19
-4.37
3.66
9.92
14.80
18.76
22.15
25.15
27.80
30.12
32.19
34.10
35.92
37.62
39.05
40.07
40.55
40.50
40.05
39.41
38.78
38.25
37.83
37.34
36.60
35.39
33.58
31.15
28.22
24.97
21.65
18.40
15.31
12.35
9.42
6.39
3.21
-0.16
-3.70
-7.29
-10.79
-14.05
-16.99
-19.59
-21.93
-24.20
-26.61
-29.44
-32.87
-36.89
-41.14
-44.78
-46.72
-45.90
-41.76
-34.52
-25.19
-15.24
-6.01
1.63
7.51
11.95
15.49
18.53
21.29
23.84
26.19
28.38
30.43
32.32
33.94
35.18
35.96
36.31
36.30
36.07
35.72
35.30
34.83
34.29
33.64
32.79
31.61
30.01
27.95
25.53
22.89
20.19
17.55
15.00
12.49
9.97
7.38
4.71
1.97
-0.85
-3.82
-6.98
-10.38
-13.99
-17.62
-21.00
-23.90
-26.22
-28.10
-29.93
-32.24
-35.47
-39.72
-44.62
-49.29
-52.61
-53.47
-51.19
-45.79
-37.96
-28.90
-19.91
-11.99
-5.67
-0.97
2.39
4.76
6.45
7.68
8.63
9.43
10.21
11.01
11.79
12.46
12.90
13.00
12.82
12.53
12.37
12.63
13.47
14.90
16.69
18.49
19.88
20.54
20.34
19.36
17.85
16.13
14.45
12.95
11.60
10.22
8.55
6.38
3.59
0.29
-3.31
-6.93
-10.35
-13.53
-16.58
-19.71
-23.15
-26.97
-30.98
-34.73
-37.49
-38.48
-37.09
-33.10
-26.84
-19.13
-11.03
-3.52
2.76
7.61
11.19
13.77
15.62
16.90
17.68
18.06
18.23
18.38
18.67
19.13
19.64
20.00
19.98
19.48
18.54
17.34
16.08
14.95
13.95
12.93
11.64
9.90
7.71
5.28
3.03
1.34
0.43
0.20
0.27
0.17
-0.50
-1.88
-3.85
-6.09
-8.21
-9.91
-11.09
-11.85
-12.54
-13.55
-15.33
-18.14
-21.99
-26.50
-30.89
-34.16
-35.34
-33.81
-29.55
-23.23
-15.97
-8.98
-3.21
0.93
3.55
5.16
6.28
7.25
8.13
8.77
9.01
8.81
8.31
7.74
7.24
6.83
6.39
5.80
5.03
4.25
3.67
3.48
3.70
4.21
4.75
5.09
5.08
4.61
3.71
2.43
0.90
-0.75
-2.48
-4.31
-6.39
-8.81
-11.56
-14.37
-16.88
-18.72
-19.76
-20.15
-20.26
-20.50
-21.15
-22.34
-24.05
-26.10
-28.17
-29.75
-30.20
-28.88
-25.41
-19.87
-12.87
-5.39
1.49
6.97
10.67
12.68
13.42
13.41
13.09
12.76
12.52
12.34
12.18
11.96
11.62
11.10
10.31
9.22
7.92
6.65
5.69
5.29
5.45
5.89
6.10
5.53
3.79
0.78
-3.30
-8.00
-12.74
-16.98
-20.21
-22.13
-22.69
-22.05
-20.59
-18.76
-16.96
-15.49
-14.60
-14.50
-15.46
-17.68
-21.14
-25.45
-29.75
-32.86
-33.66
-31.50
-26.48
-19.44
-11.65
-4.31
1.78
6.42
9.90
12.61
14.88
16.78
18.22
19.12
19.53
19.68
19.87
20.31
21.06
21.94
22.64
22.90
22.65
22.05
21.49
21.36
21.93
23.19
24.87
26.47
27.39
27.02
24.83
20.48
13.97
5.74
-3.33
-12.10
-19.46
-24.70
-27.66
-28.72
-28.61
-28.10
-27.84
-28.29
-29.77
-32.42
-36.16
-40.51
-44.62
-47.42
-47.90
-45.55
-40.58
-33.82
-26.44
-19.56
-13.88
-9.61
-6.51
-4.17
-2.20
-0.35
1.45
3.21
4.92
6.58
8.24
9.91
11.54
13.04
14.30
15.24
15.81
16.07
16.06
15.91
15.69
15.49
15.34
15.22
15.03
14.62
13.91
12.89
11.70
10.52
9.50
8.67
7.95
7.20
6.31
5.33
4.37
3.59
3.04
2.66
2.24
1.50
0.22
-1.74
-4.37
-7.53
-10.93
-14.16
-16.62
-17.71
-16.88
-13.88
-8.91
-2.59
4.21
10.66
16.21
20.76
24.55
27.92
31.04
33.86
36.12
37.55
38.03
37.61
36.49
34.90
33.03
30.98
28.72
26.22
23.46
20.46
17.34
14.25
11.37
8.79
6.54
4.49
2.46
0.27
-2.12
-4.63
-7.06
-9.25
-11.10
-12.65
-14.09
-15.65
-17.51
-19.68
-21.98
-24.14
-25.87
-27.01
-27.61
-27.85
-28.01
-28.38
-29.17
-30.51
-32.45
-34.89
-37.41
-39.28
-39.58
-37.41
-32.36
-24.76
-15.62
-6.37
1.71
7.81
11.80
14.07
15.26
15.93
16.37
16.63
16.60
16.16
15.30
14.14
12.84
11.62
10.57
9.70
8.96
8.29
7.66
7.11
6.65
6.20
5.60
4.72
3.48
2.00
0.44
-1.02
-2.35
-3.68
-5.19
-6.97
-8.98
-10.98
-12.71
-13.95
-14.70
-15.11
-15.51
-16.26
-17.71
-20.06
-23.20
-26.63
-29.47
-30.69
-29.48
-25.56
-19.39
-12.00
-4.67
1.57
6.18
9.17
10.87
11.77
12.28
12.68
13.16
13.84
14.81
16.01
17.26
18.22
18.54
18.00
16.60
14.61
12.47
10.59
9.22
8.32
7.70
7.06
6.25
5.28
4.30
3.43
2.75
2.22
1.74
1.22
0.52
-0.49
-1.97
-4.03
-6.64
-9.60
-12.57
-15.17
-17.22
-18.83
-20.40
-22.45
-25.44
-29.42
-33.95
-38.14
-40.88
-41.19
-38.56
-33.07
-25.44
-16.67
-7.80
0.39
7.50
13.39
18.11
21.75
24.36
26.01
26.82
26.99
26.79
26.54
26.44
26.64
27.10
27.67
28.14
28.27
27.89
26.90
25.31
23.27
20.95
18.56
16.22
13.99
11.85
9.75
7.67
5.66
3.81
2.17
0.70
-0.76
-2.42
-4.44
-6.85
-9.56
-12.40
-15.22
-17.93
-20.61
-23.43
-26.62
-30.34
-34.57
-39.00
-42.99
-45.66
-46.18
-44.04
-39.30
-32.59
-24.90
-17.30
-10.56
-5.05
-0.75
2.57
5.22
7.47
9.45
11.22
12.76
14.07
15.17
16.08
16.83
17.46
17.95
18.30
18.45
18.35
18.01
17.46
16.75
15.97
15.13
14.18
13.07
11.69
10.02
8.06
5.89
3.57
1.12
-1.43
-4.07
-6.68
-9.14
-11.33
-13.26
-15.08
-17.11
-19.68
-22.96
-26.84
-30.80
-34.03
-35.60
-34.78
-31.31
-25.55
-18.39
-10.97
-4.30
1.07
5.07
8.05
10.43
12.52
14.43
16.18
17.76
19.25
20.74
22.25
23.69
24.83
25.47
25.58
25.30
24.87
24.54
24.40
24.39
24.24
23.73
22.67
21.05
19.03
16.86
14.83
13.09
11.60
10.10
8.27
5.86
2.84
-0.53
-3.85
-6.73
-8.95
-10.61
-12.01
-13.56
-15.63
-18.48
-22.17
-26.55
-31.19
-35.29
-37.87
-37.95
-34.98
-29.08
-21.11
-12.43
-4.35
2.26
7.25
11.00
14.14
17.12
20.09
22.87
25.19
26.87
27.92
28.53
28.93
29.24
29.51
29.62
29.45
28.90
27.99
26.83
25.58
24.37
23.26
22.16
20.89
19.22
17.05
14.43
11.60
8.89
6.56
4.71
3.19
1.71
-0.05
-2.27
-4.88
-7.61
-10.13
-12.19
-13.76
-15.02
-16.24
-17.72
-19.70
-22.36
-25.75
-29.71
-33.72
-36.91
-38.25
-36.85
-32.44
-25.49
-17.12
-8.71
-1.38
4.30
8.42
11.44
13.85
15.98
17.88
19.43
20.52
21.14
21.41
21.48
21.46
21.38
21.19
20.82
20.27
19.57
18.83
18.12
17.40
16.62
15.64
14.36
12.80
11.04
9.22
7.46
5.81
4.25
2.65
0.87
-1.21
-3.62
-6.27
-8.95
-11.42
-13.53
-15.21
-16.59
-17.86
-19.28
-21.12
-23.51
-26.34
-29.14
-31.12
-31.38
-29.26
-24.63
-18.06
-10.64
-3.57
2.24
6.49
9.36
11.35
12.91
14.33
15.65
16.80
17.68
18.20
18.31
18.02
17.45
16.76
16.10
15.57
15.14
14.66
14.01
13.08
11.84
10.30
8.52
6.57
4.56
2.63
0.88
-0.65
-1.99
-3.30
-4.69
-6.25
-7.97
-9.78
-11.61
-13.43
-15.23
-17.09
-19.15
-21.57
-24.42
-27.50
-30.28
-31.94
-31.73
-29.25
-24.73
-18.97
-13.05
-7.90
-4.01
-1.33
0.57
2.19
3.88
5.69
7.44
8.88
9.77
10.06
9.86
9.41
8.97
8.74
8.81
9.15
9.70
10.33
10.92
11.34
11.48
11.35
11.08
11.00
11.51
12.97
15.52
19.03
23.01
26.76
29.54
30.82
30.35
28.37
25.34
21.92
18.58
15.53
12.68
9.78
6.42
2.23
-2.94
-9.01
-15.42
-21.30
-25.55
-27.36
-26.42
-23.25
-18.86
-14.44
-10.78
-8.15
-6.33
-4.95
-3.76
-2.75
-1.95
-1.37
-0.84
-0.19
0.71
1.83
3.10
4.43
5.83
7.33
8.93
10.57
12.12
13.51
14.69
15.61
16.14
16.07
15.14
13.25
10.52
7.33
4.24
1.70
-0.12
-1.53
-3.20
-6.03
-10.72
-17.45
-25.66
-34.12
-41.32
-45.99
-47.54
-46.27
-43.15
-39.42
-36.13
-33.90
-32.79
-32.41
-32.08
-31.03
-28.56
-24.20
-17.92
-10.13
-1.63
6.66
13.97
19.88
24.42
27.88
30.63
32.91
34.82
36.34
37.45
38.20
38.62
38.74
38.42
37.43
35.50
32.42
28.16
22.95
17.16
11.29
5.84
1.21
-2.36
-4.83
-6.34
-7.17
-7.61
-7.92
-8.31
-8.88
-9.78
-11.14
-13.07
-15.57
-18.55
-21.75
-24.91
-27.88
-30.55
-32.97
-35.19
-37.23
-39.16
-41.08
-43.14
-45.53
-48.27
-51.11
-53.47
-54.60
-53.73
-50.41
-44.71
-37.16
-28.62
-20.02
-12.05
-5.09
0.80
5.75
9.88
13.25
15.87
17.72
18.86
19.42
19.63
19.69
19.81
20.12
20.67
21.44
22.32
23.16
23.86
24.35
24.61
24.68
24.53
24.06
23.08
21.48
19.27
16.66
14.05
11.78
10.05
8.79
7.70
6.45
4.76
2.59
0.08
-2.44
-4.67
-6.42
-7.72
-8.83
-10.10
-11.89
-14.43
-17.82
-21.97
-26.62
-31.25
-35.13
-37.39
-37.21
-34.22
-28.64
-21.34
-13.53
-6.38
-0.61
3.67
6.81
9.37
11.76
14.21
16.68
19.02
21.07
22.73
23.94
24.71
25.07
25.04
24.59
23.73
22.46
20.90
19.23
17.69
16.45
15.57
14.95
14.40
13.69
12.66
11.27
9.59
7.76
5.90
4.06
2.21
0.24
-1.98
-4.50
-7.22
-9.92
-12.29
-14.12
-15.37
-16.26
-17.13
-18.31
-20.03
-22.33
-25.18
-28.53
-32.33
-36.36
-40.11
-42.75
-43.30
-41.00
-35.69
-27.90
-18.76
-9.57
-1.39
5.21
10.17
13.73
16.18
17.70
18.36
18.22
17.45
16.36
15.35
14.70
14.47
14.49
14.48
14.21
13.66
13.03
12.60
12.58
13.00
13.67
14.30
14.64
14.56
14.14
13.56
13.04
12.67
12.40
11.97
11.06
9.43
7.08
4.28
1.44
-1.08
-3.15
-4.96
-6.89
-9.41
-12.86
-17.36
-22.78
-28.68
-34.32
-38.74
-40.94
-40.22
-36.37
-29.88
-21.76
-13.27
-5.48
0.95
5.85
9.38
11.85
13.56
14.73
15.52
16.03
16.37
16.57
16.62
16.54
16.37
16.20
16.14
16.26
16.58
17.09
17.72
18.42
19.05
19.41
19.22
18.24
16.40
13.91
11.23
8.87
7.18
6.14
5.41
4.47
2.91
0.62
-2.21
-5.23
-8.08
-10.58
-12.74
-14.67
-16.58
-18.66
-21.12
-24.16
-27.87
-32.05
-36.16
-39.27
-40.34
-38.62
-33.92
-26.79
-18.29
-9.71
-2.09
3.98
8.40
11.44
13.50
14.97
16.10
17.07
18.01
19.00
20.07
21.10
21.83
21.90
20.99
18.95
15.97
12.57
9.41
7.12
5.95
5.84
6.34
6.95
7.29
7.20
6.74
6.09
5.37
4.54
3.43
1.77
-0.63
-3.76
-7.32
-10.88
-14.01
-16.50
-18.42
-20.13
-22.19
-25.10
-29.10
-33.99
-39.05
-43.19
-45.22
-44.18
-39.74
-32.31
-22.92
-12.95
-3.67
4.09
10.06
14.41
17.52
19.81
21.51
22.74
23.57
24.02
24.19
24.18
24.15
24.19
24.36
24.64
24.97
25.25
25.36
25.19
24.65
23.70
22.37
20.72
18.80
16.63
14.17
11.40
8.27
4.87
1.31
-2.28
-5.70
-8.86
-11.68
-14.19
-16.53
-18.98
-21.91
-25.69
-30.48
-36.08
-41.79
-46.48
-48.93
-48.17
-43.87
-36.45
-27.00
-16.89
-7.35
0.84
7.41
12.53
16.52
19.72
22.37
24.61
26.55
28.27
29.77
31.02
31.88
32.25
32.07
31.42
30.49
29.55
28.81
28.40
28.27
28.29
28.25
27.99
27.35
26.26
24.71
22.73
20.35
17.66
14.80
11.97
9.39
7.19
5.38
3.77
2.02
-0.23
-3.21
-6.92
-11.13
-15.46
-19.57
-23.26
-26.56
-29.68
-32.95
-36.76
-41.37
-46.75
-52.43
-57.44
-60.47
-60.28
-56.18
-48.29
-37.65
-25.82
-14.36
-4.44
3.43
9.29
13.52
16.59
18.89
20.67
22.18
23.58
25.02
26.55
28.10
29.48
30.47
30.90
30.77
30.28
29.74
29.46
29.56
29.90
30.11
29.73
28.46
26.25
23.31
20.02
16.83
14.06
11.85
10.14
8.65
6.98
4.75
1.76
-1.93
-5.92
-9.75
-13.06
-15.84
-18.38
-21.22
-24.86
-29.62
-35.43
-41.79
-47.81
-52.32
-54.14
-52.48
-47.21
-39.00
-29.13
-19.10
-10.11
-2.76
2.95
7.45
11.18
14.49
17.48
20.17
22.54
24.66
26.59
28.34
29.86
31.05
31.80
32.08
31.96
31.64
31.31
31.15
31.16
31.21
31.03
30.34
28.97
26.91
24.35
21.56
18.82
16.31
14.06
12.05
10.20
8.39
6.53
4.48
2.09
-0.73
-4.02
-7.66
-11.48
-15.24
-18.83
-22.20
-25.50
-28.94
-32.76
-37.16
-42.23
-47.80
-53.44
-58.33
-61.48
-61.90
-59.02
-52.91
-44.32
-34.38
-24.23
-14.68
-6.04
1.68
8.56
14.58
19.56
23.32
25.88
27.50
28.54
29.37
30.19
31.01
31.76
32.32
32.62
32.64
32.40
31.94
31.33
30.67
29.98
29.20
28.20
26.84
24.98
22.59
19.78
16.71
13.61
10.62
7.79
5.07
2.32
-0.60
-3.76
-7.14
-10.58
-13.89
-16.88
-19.50
-21.82
-24.07
-26.57
-29.63
-33.55
-38.42
-43.97
-49.55
-54.10
-56.43
-55.56
-51.14
-43.57
-33.92
-23.61
-13.94
-5.74
0.78
5.88
10.06
13.79
17.30
20.59
23.46
25.74
27.34
28.34
28.96
29.43
29.87
30.22
30.36
30.14
29.48
28.47
27.27
26.00
24.68
23.19
21.37
19.13
16.53
13.72
10.95
8.39
6.12
4.12
2.30
0.59
-1.08
-2.73
-4.43
-6.25
-8.30
-10.66
-13.31
-16.11
-18.87
-21.44
-23.83
-26.24
-29.03
-32.62
-37.33
-43.21
-49.87
-56.45
-61.72
-64.29
-63.09
-57.70
-48.61
-37.09
-24.80
-13.26
-3.41
4.55
10.98
16.44
21.37
25.86
29.77
32.88
35.01
36.17
36.54
36.34
35.82
35.16
34.52
34.01
33.69
33.59
33.61
33.55
33.12
32.04
30.17
27.58
24.52
21.33
18.22
15.29
12.38
9.25
5.76
1.90
-2.17
-6.20
-10.01
-13.57
-16.93
-20.32
-23.98
-28.25
-33.39
-39.47
-46.15
-52.53
-57.30
-59.05
-56.83
-50.55
-41.11
-30.11
-19.26
-9.80
-2.25
3.64
8.52
13.01
17.46
21.84
25.89
29.29
31.84
33.53
34.51
34.96
35.03
34.82
34.33
33.53
32.46
31.22
29.95
28.82
27.86
26.98
25.97
24.60
22.74
20.43
17.87
15.31
12.98
10.97
9.23
7.62
5.98
4.18
2.14
-0.25
-3.03
-6.23
-9.72
-13.33
-16.81
-20.01
-22.96
-25.89
-29.18
-33.23
-38.33
-44.44
-51.05
-57.11
-61.27
-62.14
-58.84
-51.40
-40.82
-28.83
-17.21
-7.31
0.41
6.21
10.80
14.85
18.72
22.44
25.85
28.77
31.15
33.03
34.49
35.58
36.25
36.44
36.15
35.50
34.71
34.07
33.77
33.81
33.90
33.66
32.74
31.01
28.60
25.90
23.32
21.16
19.44
17.92
16.22
14.02
11.21
7.94
4.57
1.53
-0.86
-2.57
-3.87
-5.26
-7.27
-10.21
-14.05
-18.41
-22.75
-26.56
-29.63
-32.01
-34.05
-36.23
-39.08
-42.97
-48.02
-53.95
-59.89
-64.53
-66.31
-64.07
-57.39
-46.91
-34.13
-20.91
-8.89
1.02
8.63
14.39
18.88
22.60
25.78
28.45
30.57
32.16
33.34
34.28
35.11
35.86
36.42
36.65
36.45
35.89
35.15
34.46
33.94
33.56
33.03
32.05
30.45
28.21
25.63
23.07
20.85
19.09
17.65
16.22
14.46
12.15
9.31
6.19
3.14
0.46
-1.77
-3.67
-5.59
-7.87
-10.74
-14.20
-18.01
-21.84
-25.36
-28.37
-30.91
-33.18
-35.55
-38.47
-42.35
-47.34
-53.12
-58.79
-62.93
-64.03
-61.02
-53.72
-43.01
-30.56
-18.21
-7.42
1.11
7.43
12.06
15.58
18.39
20.67
22.45
23.78
24.78
25.61
26.40
27.18
27.85
28.30
28.39
28.17
27.74
27.32
27.07
27.01
26.94
26.54
25.43
23.37
20.42
16.86
13.19
9.89
7.23
5.16
3.38
1.42
-1.10
-4.30
-8.01
-11.84
-15.39
-18.42
-20.94
-23.24
-25.70
-28.71
-32.54
-37.30
-42.85
-48.73
-54.15
-57.96
-58.97
-56.27
-49.66
-39.83
-28.19
-16.44
-5.99
2.39
8.67
13.32
16.89
19.83
22.27
24.23
25.73
26.87
27.84
28.79
29.74
30.56
31.07
31.16
30.83
30.21
29.50
28.84
28.28
27.75
27.09
26.09
24.50
22.14
18.99
15.26
11.36
7.74
4.79
2.51
0.59
-1.48
-4.16
-7.64
-11.78
-16.18
-20.43
-24.19
-27.41
-30.18
-32.77
-35.53
-38.85
-43.06
-48.34
-54.41
-60.44
-65.05
-66.67
-64.05
-56.81
-45.69
-32.36
-18.87
-6.98
2.36
9.08
13.76
17.22
20.07
22.64
24.93
26.88
28.40
29.55
30.40
31.04
31.48
31.62
31.38
30.70
29.62
28.31
26.95
25.73
24.72
23.83
22.88
21.63
19.89
17.56
14.68
11.45
8.13
5.05
2.45
0.39
-1.21
-2.66
-4.31
-6.46
-9.20
-12.39
-15.72
-18.85
-21.58
-23.91
-26.04
-28.28
-30.93
-34.25
-38.40
-43.37
-48.87
-54.16
-58.11
-59.39
-56.93
-50.35
-40.26
-28.06
-15.54
-4.28
4.80
11.56
16.45
20.17
23.36
26.38
29.32
32.09
34.58
36.72
38.45
39.78
40.63
40.93
40.62
39.69
38.27
36.55
34.77
33.05
31.41
29.73
27.84
25.65
23.21
20.68
18.35
16.41
14.95
13.81
12.65
11.15
9.09
6.54
3.72
0.96
-1.61
-4.04
-6.62
-9.60
-13.05
-16.74
-20.26
-23.22
-25.44
-27.05
-28.45
-30.16
-32.68
-36.32
-41.13
-46.78
-52.51
-57.17
-59.48
-58.30
-53.13
-44.27
-32.89
-20.67
-9.27
0.10
7.05
11.86
15.25
17.97
20.48
22.93
25.22
27.22
28.93
30.49
32.05
33.64
35.10
36.15
36.56
36.30
35.53
34.59
33.76
33.14
32.58
31.74
30.31
28.10
25.19
21.85
18.52
15.60
13.30
11.58
10.19
8.72
6.80
4.24
1.05
-2.51
-6.09
-9.33
-12.01
-14.14
-15.91
-17.71
-19.99
-23.19
-27.51
-32.82
-38.47
-43.37
-46.25
-46.05
-42.37
-35.64
-27.03
-18.03
-9.92
-3.42
1.43
5.02
7.86
10.34
12.56
14.50
16.08
17.28
18.13
18.65
18.86
18.77
18.41
17.94
17.53
17.38
17.58
18.08
18.64
18.97
18.80
17.98
16.55
14.63
12.40
9.97
7.39
4.64
1.75
-1.15
-3.87
-6.16
-7.87
-9.03
-9.87
-10.75
-12.00
-13.78
-16.07
-18.60
-21.03
-23.15
-24.93
-26.57
-28.43
-30.92
-34.34
-38.77
-43.96
-49.25
-53.61
-55.86
-54.99
-50.57
-42.98
-33.35
-23.19
-13.91
-6.36
-0.68
3.53
6.91
10.00
13.02
15.95
18.59
20.76
22.37
23.44
24.08
24.42
24.53
24.39
23.95
23.16
22.09
20.96
20.03
19.50
19.34
19.30
18.96
17.95
16.11
13.55
10.67
7.91
5.67
4.08
3.05
2.26
1.27
-0.23
-2.41
-5.14
-8.14
-11.03
-13.54
-15.59
-17.30
-18.90
-20.71
-23.02
-26.06
-29.96
-34.54
-39.23
-42.98
-44.56
-42.90
-37.56
-29.05
-18.70
-8.21
0.89
7.75
12.28
14.99
16.61
17.76
18.77
19.72
20.59
21.29
21.80
22.13
22.26
22.18
21.83
21.20
20.33
19.37
18.49
17.83
17.41
17.05
16.39
15.10
12.96
10.04
6.65
3.26
0.26
-2.13
-4.00
-5.58
-7.18
-9.00
-11.11
-13.40
-15.66
-17.67
-19.32
-20.64
-21.89
-23.44
-25.68
-28.87
-32.97
-37.55
-41.79
-44.65
-45.16
-42.73
-37.37
-29.76
-21.04
-12.45
-4.94
1.04
5.54
8.92
11.61
13.91
16.00
17.99
19.95
21.89
23.74
25.31
26.41
26.90
26.80
26.34
25.81
25.48
25.47
25.75
26.12
26.39
26.32
25.78
24.67
23.06
21.06
18.87
16.69
14.63
12.66
10.69
8.59
6.32
3.94
1.63
-0.46
-2.22
-3.72
-5.13
-6.74
-8.76
-11.27
-14.14
-17.14
-20.00
-22.53
-24.76
-26.92
-29.43
-32.72
-37.01
-42.12
-47.35
-51.57
-53.50
-52.15
-47.23
-39.28
-29.52
-19.42
-10.28
-2.83
2.80
6.90
9.93
12.24
14.02
15.34
16.22
16.73
17.00
17.13
17.18
17.10
16.75
16.07
15.05
13.85
12.77
12.05
11.77
11.74
11.54
10.77
9.16
6.82
4.11
1.55
-0.46
-1.77
-2.52
-3.10
-3.94
-5.37
-7.51
-10.21
-13.17
-16.03
-18.52
-20.55
-22.28
-24.10
-26.45
-29.68
-33.80
-38.38
-42.52
-45.06
-44.98
-41.80
-35.80
-28.00
-19.74
-12.22
-6.13
-1.49
2.13
5.32
8.49
11.79
15.09
18.21
21.02
23.47
25.58
27.33
28.68
29.53
29.80
29.47
28.63
27.53
26.44
25.57
24.98
24.59
24.17
23.51
22.42
20.86
18.82
16.38
13.63
10.71
7.78
5.07
2.72
0.78
-0.85
-2.41
-4.12
-6.12
-8.39
-10.78
-13.10
-15.21
-17.11
-18.93
-20.90
-23.38
-26.65
-30.91
-35.98
-41.27
-45.79
-48.31
-47.87
-44.03
-37.17
-28.33
-18.94
-10.29
-3.21
2.04
5.74
8.41
10.57
12.59
14.61
16.67
18.71
20.70
22.59
24.29
25.71
26.70
27.15
27.07
26.61
26.05
25.69
25.67
25.92
26.15
25.97
25.08
23.48
21.38
19.15
17.15
15.50
14.16
12.90
11.48
9.79
7.86
5.89
4.10
2.63
1.47
0.44
-0.75
-2.39
-4.64
-7.50
-10.76
-14.16
-17.42
-20.36
-22.99
-25.42
-27.91
-30.77
-34.31
-38.71
-43.83
-49.06
-53.35
-55.46
-54.37
-49.70
-41.94
-32.27
-22.20
-12.99
-5.33
0.75
5.66
9.85
13.62
16.97
19.73
21.80
23.23
24.29
25.29
26.44
27.79
29.16
30.31
31.11
31.58
31.84
32.04
32.22
32.29
32.08
31.41
30.29
28.82
27.22
25.70
24.39
23.23
22.05
20.61
18.77
16.59
14.31
12.27
10.72
9.68
8.85
7.75
5.94
3.23
-0.23
-4.09
-7.93
-11.46
-14.59
-17.45
-20.22
-23.12
-26.39
-30.26
-34.83
-39.90
-44.88
-48.77
-50.37
-48.75
-43.67
-35.71
-26.15
-16.53
-8.07
-1.40
3.54
7.27
10.37
13.28
16.12
18.80
21.14
23.01
24.36
25.25
25.81
26.17
26.40
26.53
26.56
26.49
26.42
26.43
26.60
26.90
27.07
26.78
25.73
23.79
21.13
18.16
15.31
12.87
10.92
9.30
7.81
6.32
4.81
3.41
2.16
1.02
-0.20
-1.78
-3.94
-6.73
-9.96
-13.33
-16.45
-19.05
-21.10
-22.81
-24.57
-26.81
-29.89
-33.95
-38.80
-43.77
-47.84
-49.82
-48.75
-44.23
-36.70
-27.32
-17.60
-8.84
-1.83
3.32
6.98
9.66
11.78
13.54
14.98
16.16
17.16
18.15
19.21
20.36
21.43
22.22
22.52
22.25
21.52
20.57
19.74
19.29
19.33
19.71
20.08
20.06
19.29
17.64
15.21
12.35
9.47
6.98
5.12
3.89
3.08
2.33
1.30
-0.26
-2.38
-4.96
-7.76
-10.58
-13.31
-16.00
-18.87
-22.17
-26.19
-31.03
-36.44
-41.76
-45.99
-47.99
-46.91
-42.54
-35.36
-26.49
-17.27
-8.86
-1.98
3.22
6.97
9.72
11.77
13.33
14.45
15.16
15.61
16.00
16.54
17.32
18.26
19.12
19.69
19.93
20.01
20.22
20.73
21.51
22.26
22.55
22.09
20.79
18.84
16.56
14.28
12.18
10.28
8.47
6.55
4.34
1.74
-1.21
-4.38
-7.50
-10.30
-12.61
-14.48
-16.16
-18.06
-20.62
-24.15
-28.71
-33.93
-39.05
-43.01
-44.72
-43.41
-38.92
-31.80
-23.15
-14.29
-6.35
0.03
4.78
8.24
10.89
13.14
15.18
17.00
18.52
19.71
20.62
21.37
22.07
22.75
23.32
23.61
23.49
22.99
22.27
21.60
21.25
21.24
21.45
21.56
21.24
20.28
18.64
16.43
13.89
11.27
8.75
6.43
4.33
2.40
0.54
-1.40
-3.50
-5.85
-8.38
-10.93
-13.31
-15.38
-17.13
-18.72
-20.46
-22.71
-25.75
-29.63
-34.06
-38.31
-41.39
-42.24
-40.14
-35.02
-27.57
-19.03
-10.74
-3.68
1.78
5.90
9.17
12.04
14.65
16.92
18.68
19.91
20.75
21.40
22.01
22.52
22.80
22.70
22.18
21.42
20.65
20.13
19.95
20.03
20.15
20.05
19.58
18.68
17.34
15.56
13.33
10.60
7.40
3.92
0.48
-2.57
-4.99
-6.80
-8.26
-9.79
-11.69
-14.07
-16.74
-19.37
-21.65
-23.46
-24.92
-26.33
-28.00
-30.22
-33.17
-36.84
-40.95
-44.93
-47.84
-48.70
-46.68
-41.54
-33.74
-24.36
-14.74
-6.05
1.02
6.31
10.10
12.79
14.78
16.31
17.58
18.70
19.83
21.02
22.30
23.62
24.90
26.05
27.03
27.80
28.28
28.36
27.91
26.92
25.42
23.57
21.54
19.39
17.16
14.84
12.45
10.16
8.15
6.57
5.44
4.61
3.82
2.80
1.36
-0.55
-2.86
-5.40
-7.96
-10.37
-12.49
-14.34
-16.03
-17.80
-19.95
-22.73
-26.28
-30.53
-35.08
-39.25
-42.15
-42.88
-40.87
-36.07
-29.05
-20.86
-12.67
-5.42
0.40
4.79
8.08
10.69
12.98
15.15
17.23
19.15
20.76
22.00
22.82
23.26
23.40
23.28
22.89
22.20
21.16
19.86
18.47
17.24
16.34
15.77
15.32
14.69
13.66
12.14
10.28
8.27
6.34
4.59
3.01
1.53
0.08
-1.42
-3.04
-4.83
-6.78
-8.80
-10.76
-12.46
-13.80
-14.85
-15.85
-17.14
-19.07
-21.84
-25.43
-29.57
-33.73
-37.18
-39.07
-38.70
-35.72
-30.32
-23.26
-15.59
-8.40
-2.41
2.15
5.44
7.86
9.73
11.26
12.47
13.37
14.04
14.61
15.25
16.06
17.08
18.19
19.23
19.99
20.33
20.19
19.62
18.75
17.77
16.72
15.57
14.17
12.39
10.19
7.76
5.41
3.40
1.81
0.48
-0.89
-2.56
-4.61
-6.94
-9.25
-11.30
-12.98
-14.38
-15.73
-17.41
-19.75
-22.98
-27.13
-31.95
-36.83
-40.90
-43.19
-42.90
-39.73
-33.98
-26.55
-18.61
-11.29
-5.28
-0.74
2.63
5.34
7.87
10.42
12.94
15.24
17.13
18.53
19.47
20.08
20.47
20.75
20.95
21.08
21.11
21.01
20.75
20.34
19.79
19.14
18.38
17.41
16.09
14.31
12.09
9.58
7.07
4.83
3.02
1.55
0.17
-1.44
-3.47
-5.94
-8.66
-11.34
-13.73
-15.74
-17.50
-19.23
-21.27
-23.85
-27.14
-31.06
-35.34
-39.39
-42.43
-43.60
-42.27
-38.30
-32.13
-24.70
-17.11
-10.24
-4.52
0.11
3.94
7.33
10.50
13.45
16.08
18.31
20.06
21.37
22.31
22.99
23.50
23.87
24.07
24.02
23.66
23.10
22.52
22.18
22.22
22.59
22.96
22.89
22.01
20.16
17.50
14.42
11.33
8.54
6.10
3.85
1.55
-1.03
-3.92
-6.97
-9.86
-12.26
-14.02
-15.18
-16.05
-17.10
-18.82
-21.54
-25.34
-29.94
-34.73
-38.86
-41.39
-41.55
-38.97
-33.79
-26.72
-18.76
-10.93
-3.98
1.80
6.48
10.35
13.67
16.61
19.17
21.30
22.96
24.15
24.90
25.28
25.36
25.20
24.86
24.43
24.00
23.67
23.49
23.45
23.44
23.22
22.48
21.04
18.89
16.27
13.57
11.20
9.36
7.99
6.79
5.37
3.45
0.95
-1.96
-4.97
-7.80
-10.31
-12.54
-14.76
-17.33
-20.59
-24.73
-29.69
-35.12
-40.36
-44.57
-46.86
-46.56
-43.42
-37.71
-30.23
-22.00
-14.07
-7.13
-1.40
3.34
7.55
11.63
15.74
19.74
23.29
26.01
27.75
28.60
28.86
28.89
28.91
28.98
28.99
28.83
28.51
28.14
27.88
27.80
27.82
27.71
27.26
26.35
25.03
23.51
21.96
20.45
18.96
17.31
15.44
13.39
11.35
9.52
7.98
6.63
5.16
3.30
0.84
-2.14
-5.40
-8.58
-11.46
-14.00
-16.40
-18.96
-22.02
-25.86
-30.58
-36.02
-41.68
-46.70
-50.01
-50.66
-48.16
-42.66
-35.03
-26.52
-18.33
-11.30
-5.64
-1.07
2.93
6.84
10.89
15.07
19.19
23.02
26.39
29.20
31.40
32.92
33.65
33.59
32.82
31.60
30.32
29.26
28.62
28.29
28.03
27.53
26.56
25.02
23.02
20.75
18.44
16.29
14.36
12.67
11.13
9.63
8.11
6.53
4.93
3.26
1.51
-0.45
-2.67
-5.13
-7.66
-10.04
-12.03
-13.57
-14.78
-15.92
-17.36
-19.41
-22.28
-25.94
-30.10
-34.14
-37.23
-38.45
-37.11
-32.98
-26.47
-18.48
-10.17
-2.56
3.75
8.63
12.28
15.05
17.20
18.85
19.99
20.64
20.88
20.84
20.68
20.58
20.58
20.69
20.81
20.87
20.77
20.55
20.25
19.97
19.71
19.42
18.98
18.22
17.05
15.42
13.34
10.91
8.30
5.74
3.44
1.55
-0.01
-1.45
-3.10
-5.19
-7.75
-10.58
-13.33
-15.71
-17.61
-19.15
-20.60
-22.25
-24.34
-26.98
-30.12
-33.53
-36.73
-39.02
-39.67
-38.10
-34.16
-28.24
-21.17
-13.99
-7.60
-2.50
1.27
4.03
6.26
8.40
10.66
13.08
15.46
17.58
19.19
20.17
20.51
20.34
19.85
19.27
18.78
18.50
18.45
18.59
18.87
19.14
19.25
19.04
18.38
17.20
15.58
13.73
11.87
10.22
8.84
7.65
6.49
5.21
3.75
2.17
0.59
-0.95
-2.45
-4.03
-5.80
-7.87
-10.18
-12.60
-14.95
-17.08
-18.92
-20.57
-22.22
-24.17
-26.67
-29.81
-33.41
-36.95
-39.68
-40.78
-39.63
-36.12
-30.66
-24.12
-17.51
-11.66
-7.00
-3.44
-0.62
1.91
4.35
6.68
8.67
10.09
10.85
11.04
10.89
10.63
10.46
10.47
10.66
10.94
11.14
11.10
10.77
10.20
9.62
9.24
9.12
9.13
9.01
8.50
7.53
6.27
4.98
3.86
2.94
2.04
0.95
-0.49
-2.28
-4.29
-6.37
-8.38
-10.23
-11.91
-13.42
-14.84
-16.22
-17.70
-19.45
-21.61
-24.25
-27.16
-29.85
-31.58
-31.60
-29.42
-25.09
-19.20
-12.67
-6.51
-1.36
2.57
5.45
7.69
9.66
11.64
13.69
15.78
17.77
19.50
20.82
21.61
21.83
21.53
20.80
19.75
18.48
17.11
15.75
14.50
13.42
12.46
11.49
10.36
8.94
7.24
5.40
3.65
2.21
1.19
0.56
0.10
-0.49
-1.52
-3.21
-5.57
-8.40
-11.38
-14.16
-16.48
-18.27
-19.64
-20.80
-22.04
-23.63
-25.77
-28.53
-31.76
-34.97
-37.40
-38.15
-36.56
-32.46
-26.32
-19.12
-12.03
-5.99
-1.47
1.61
3.67
5.21
6.65
8.17
9.80
11.46
13.06
14.52
15.75
16.68
17.27
17.50
17.45
17.24
17.01
16.87
16.85
16.88
16.83
16.53
15.87
14.83
13.42
11.69
9.76
7.74
5.76
3.98
2.47
1.26
0.29
-0.60
-1.59
-2.81
-4.35
-6.23
-8.37
-10.67
-13.00
-15.24
-17.27
-18.98
-20.36
-21.46
-22.49
-23.78
-25.70
-28.47
-32.02
-35.87
-39.18
-40.94
-40.37
-37.14
-31.55
-24.44
-16.97
-10.18
-4.74
-0.79
1.96
4.05
5.94
7.93
9.99
11.99
13.79
15.34
16.68
17.86
18.86
19.58
19.94
19.91
19.61
19.22
18.87
18.60
18.32
17.93
17.33
16.50
15.44
14.20
12.74
11.09
9.28
7.43
5.64
4.00
2.47
0.98
-0.59
-2.30
-4.19
-6.28
-8.54
-10.93
-13.36
-15.66
-17.66
-19.27
-20.52
-21.59
-22.74
-24.27
-26.45
-29.40
-33.03
-36.91
-40.31
-42.25
-41.90
-38.82
-33.23
-25.99
-18.29
-11.26
-5.61
-1.44
1.62
4.15
6.61
9.20
11.87
14.43
16.69
18.56
20.01
21.03
21.63
21.81
21.65
21.31
21.04
21.05
21.42
22.05
22.64
22.91
22.67
21.92
20.82
19.60
18.43
17.36
16.35
15.26
13.97
12.44
10.67
8.72
6.67
4.59
2.49
0.37
-1.79
-4.04
-6.38
-8.77
-11.15
-13.45
-15.59
-17.55
-19.43
-21.45
-23.88
-26.99
-30.87
-35.27
-39.63
-43.10
-44.76
-43.91
-40.31
-34.29
-26.68
-18.58
-11.02
-4.71
0.13
3.68
6.37
8.62
10.63
12.43
13.87
14.85
15.41
15.74
16.12
16.77
17.76
18.91
20.01
20.78
21.12
21.03
20.61
19.97
19.18
18.19
16.87
15.09
12.78
9.99
6.88
3.69
0.64
-2.16
-4.67
-6.95
-9.11
-11.30
-13.67
-16.37
-19.55
-23.28
-27.44
-31.62
-35.19
-37.26
-37.09
-34.28
-29.04
-22.19
-14.91
-8.31
-3.10
0.69
3.50
5.98
8.58
11.40
14.22
16.71
18.71
20.24
21.50
22.66
23.78
24.77
25.42
25.59
25.20
24.31
23.05
21.58
19.99
18.25
16.24
13.80
10.81
7.31
3.53
-0.25
-3.71
-6.66
-9.07
-11.05
-12.88
-14.84
-17.27
-20.43
-24.40
-28.95
-33.53
-37.23
-39.14
-38.52
-35.19
-29.50
-22.26
-14.41
-6.73
0.36
6.75
12.56
17.92
22.88
27.38
31.30
34.54
37.05
38.84
39.96
40.48
40.46
39.97
39.08
37.87
36.48
35.04
33.65
32.28
30.81
29.02
26.76
23.96
20.69
17.16
13.52
9.87
6.19
2.41
-1.52
-5.53
-9.46
-13.13
-16.41
-19.27
-21.85
-24.32
-26.93
-29.90
-33.42
-37.60
-42.36
-47.28
-51.60
-54.39
-54.85
-52.59
-47.87
-41.42
-34.13
-26.68
-19.33
-12.01
-4.51
3.17
10.79
17.88
23.95
28.67
31.88
33.62
34.04
33.41
32.09
30.57
29.32
28.77
29.15
30.43
32.26
34.09
35.39
35.73
35.03
33.42
31.17
28.51
25.53
22.27
18.78
15.26
12.07
9.54
7.85
6.88
6.28
5.60
4.45
2.65
0.22
-2.70
-5.87
-9.07
-12.10
-14.89
-17.47
-20.00
-22.77
-26.06
-30.10
-34.89
-40.07
-44.89
-48.31
-49.30
-47.18
-41.90
-34.10
-24.91
-15.61
-7.17
-0.08
5.75
10.69
15.16
19.41
23.42
26.97
29.80
31.70
32.63
32.74
32.26
31.44
30.45
29.45
28.55
27.84
27.43
27.26
27.20
26.96
26.23
24.84
22.77
20.18
17.33
14.49
11.88
9.68
7.93
6.62
5.62
4.68
3.52
1.89
-0.30
-2.98
-5.98
-9.04
-12.00
-14.73
-17.26
-19.64
-22.08
-24.84
-28.25
-32.53
-37.60
-42.98
-47.69
-50.58
-50.60
-47.23
-40.74
-32.07
-22.51
-13.33
-5.39
1.01
5.95
9.79
12.90
15.52
17.81
19.82
21.58
23.10
24.37
25.39
26.11
26.43
26.31
25.74
24.81
23.73
22.75
22.05
21.64
21.35
20.88
19.95
18.44
16.41
14.09
11.73
9.51
7.48
5.52
3.47
1.25
-1.14
-3.60
-6.00
-8.20
-10.16
-11.93
-13.64
-15.51
-17.84
-20.94
-24.97
-29.77
-34.78
-39.06
-41.52
-41.31
-38.09
-32.24
-24.67
-16.54
-8.86
-2.22
3.26
7.82
11.79
15.44
18.83
21.83
24.33
26.22
27.48
28.17
28.38
28.13
27.49
26.54
25.42
24.34
23.47
22.93
22.68
22.57
22.40
21.96
21.08
19.73
17.93
15.84
13.64
11.55
9.75
8.34
7.27
6.44
5.61
4.57
3.15
1.27
-0.98
-3.47
-6.03
-8.53
-10.96
-13.31
-15.58
-17.83
-20.19
-22.92
-26.30
-30.54
-35.50
-40.55
-44.67
-46.70
-45.76
-41.65
-34.94
-26.81
-18.60
-11.40
-5.72
-1.47
1.83
4.71
7.52
10.40
13.22
15.84
18.16
20.12
21.72
22.90
23.61
23.79
23.51
22.91
22.23
21.71
21.48
21.59
21.94
22.30
22.39
21.92
20.66
18.61
15.96
13.01
10.13
7.53
5.26
3.24
1.33
-0.49
-2.14
-3.49
-4.46
-5.13
-5.72
-6.60
-8.06
-10.31
-13.27
-16.66
-20.04
-22.94
-25.05
-26.34
-27.03
-27.54
-28.39
-30.00
-32.62
-36.17
-40.21
-43.99
-46.51
-46.82
-44.33
-39.08
-31.76
-23.50
-15.50
-8.67
-3.35
0.58
3.53
5.97
8.21
10.39
12.54
14.59
16.47
18.09
19.36
20.19
20.50
20.28
19.61
18.66
17.69
16.95
16.61
16.67
16.86
16.84
16.28
15.04
13.25
11.20
9.15
7.22
5.33
3.27
0.86
-1.92
-4.93
-7.92
-10.63
-12.94
-14.91
-16.76
-18.81
-21.35
-24.61
-28.55
-32.83
-36.77
-39.47
-40.11
-38.17
-33.72
-27.38
-20.14
-13.01
-6.77
-1.70
2.29
5.52
8.31
10.85
13.17
15.19
16.85
18.10
18.96
19.48
19.72
19.77
19.63
19.34
18.85
18.20
17.46
16.78
16.30
16.05
15.88
15.50
14.56
12.81
10.26
7.14
3.79
0.56
-2.38
-5.06
-7.63
-10.26
-13.05
-15.95
-18.74
-21.18
-23.09
-24.46
-25.49
-26.53
-27.96
-30.08
-33.03
-36.72
-40.81
-44.69
-47.49
-48.31
-46.45
-41.65
-34.33
-25.44
-16.19
-7.70
-0.66
4.80
8.98
12.36
15.37
18.23
20.95
23.38
25.36
26.82
27.80
28.46
28.97
29.46
29.92
30.30
30.55
30.66
30.69
30.70
30.65
30.41
29.76
28.49
26.45
23.67
20.32
16.71
13.23
10.16
7.69
5.75
4.16
2.62
0.84
-1.35
-4.02
-7.07
-10.36
-13.72
-16.98
-20.00
-22.71
-25.09
-27.29
-29.61
-32.42
-36.03
-40.50
-45.37
-49.76
-52.48
-52.51
-49.30
-43.12
-34.90
-25.91
-17.35
-9.96
-3.94
0.89
4.88
8.28
11.21
13.66
15.65
17.23
18.51
19.59
20.49
21.13
21.41
21.27
20.79
20.14
19.58
19.26
19.19
19.19
18.93
18.10
16.49
14.07
11.02
7.64
4.29
1.26
-1.35
-3.62
-5.81
-8.18
-10.93
-14.02
-17.24
-20.32
-23.06
-25.46
-27.79
-30.48
-33.99
-38.61
-44.24
-50.21
-55.48
-58.70
-58.75
-55.07
-47.88
-38.18
-27.30
-16.54
-6.78
1.68
8.91
15.20
20.75
25.64
29.83
33.32
36.13
38.36
40.08
41.33
42.11
42.38
42.17
41.54
40.66
39.74
39.01
38.56
38.28
37.91
37.05
35.38
32.75
29.35
25.55
21.79
18.38
15.35
12.54
9.66
6.49
3.00
-0.68
-4.29
-7.59
-10.51
-13.13
-15.71
-18.63
-22.28
-26.88
-32.40
-38.42
-44.12
-48.41
-50.20
-48.81
-44.17
-36.91
-28.21
-19.39
-11.48
-4.99
0.20
4.53
8.51
12.43
16.29
19.86
22.90
25.31
27.16
28.66
29.98
31.22
32.28
33.07
33.49
33.63
33.70
33.96
34.56
35.43
36.36
37.05
37.28
37.00
36.30
35.32
34.14
32.69
30.84
28.41
25.31
21.62
17.53
13.29
9.16
5.36
2.06
-0.68
-2.83
-4.53
-6.05
-7.76
-10.14
-13.58
-18.28
-24.01
-30.06
-35.34
-38.62
-38.98
-36.09
-30.38
-22.90
-14.95
-7.63
-1.56
3.20
6.91
10.00
12.74
15.19
17.32
19.04
20.34
21.27
21.94
22.43
22.70
22.65
22.15
21.12
19.63
17.86
16.03
14.36
12.87
11.42
9.76
7.72
5.24
2.53
-0.12
-2.41
-4.28
-5.81
-7.28
-8.94
-10.95
-13.29
-15.79
-18.20
-20.36
-22.22
-23.96
-25.85
-28.25
-31.43
-35.39
-39.73
-43.68
-46.19
-46.24
-43.22
-37.19
-28.88
-19.53
-10.46
-2.66
3.45
8.02
11.58
14.63
17.42
19.88
21.71
22.69
22.81
22.38
21.86
21.62
21.78
22.17
22.46
22.36
21.78
20.90
20.00
19.30
18.82
18.32
17.48
15.98
13.76
11.01
8.07
5.31
2.93
0.85
-1.22
-3.59
-6.44
-9.66
-12.90
-15.68
-17.66
-18.79
-19.35
-19.88
-20.90
-22.82
-25.73
-29.46
-33.55
-37.32
-39.94
-40.61
-38.75
-34.23
-27.52
-19.56
-11.53
-4.43
1.24
5.47
8.68
11.37
13.86
16.21
18.28
19.85
20.82
21.20
21.05
20.51
19.67
18.61
17.40
16.12
14.85
13.73
12.85
12.29
12.00
11.84
11.57
10.95
9.82
8.17
6.17
4.10
2.21
0.61
-0.71
-1.88
-2.99
-4.14
-5.34
-6.61
-7.99
-9.53
-11.28
-13.22
-15.23
-17.17
-18.93
-20.50
-21.98
-23.62
-25.65
-28.29
-31.52
-35.05
-38.18
-40.03
-39.70
-36.72
-31.17
-23.85
-15.91
-8.54
-2.56
1.77
4.69
6.72
8.36
9.95
11.57
13.18
14.72
16.13
17.39
18.48
19.31
19.76
19.74
19.27
18.50
17.72
17.17
16.98
17.06
17.14
16.96
16.33
15.29
14.07
12.91
11.98
11.29
10.68
9.95
8.97
7.76
6.52
5.50
4.89
4.67
4.61
4.36
3.64
2.40
0.84
-0.68
-1.88
-2.64
-3.13
-3.64
-4.49
-5.91
-7.98
-10.69
-13.92
-17.35
-20.43
-22.45
-22.70
-20.81
-16.92
-11.68
-6.00
-0.80
3.41
6.47
8.60
10.05
11.03
11.60
11.74
11.46
10.79
9.83
8.74
7.69
6.86
6.47
6.66
7.49
8.80
10.31
11.59
12.18
11.76
10.15
7.33
3.49
-1.03
-5.78
-10.19
-13.80
-16.29
-17.68
-18.25
-18.46
-18.72
-19.21
-19.91
-20.58
-21.05
-21.31
-21.54
-22.12
-23.42
-25.70
-28.96
-32.89
-36.83
-39.84
-40.97
-39.51
-35.32
-28.95
-21.44
-13.98
-7.47
-2.28
1.71
4.91
7.66
10.14
12.28
14.00
15.28
16.24
16.99
17.59
17.97
18.03
17.68
16.98
16.07
15.11
14.21
13.39
12.65
11.96
11.36
10.84
10.33
9.66
8.65
7.22
5.44
3.55
1.84
0.44
-0.71
-1.86
-3.25
-5.00
-7.05
-9.17
-11.11
-12.74
-14.05
-15.15
-16.29
-17.70
-19.66
-22.33
-25.60
-29.05
-31.85
-33.04
-31.86
-28.09
-22.20
-15.19
-8.21
-2.14
2.65
6.24
8.99
11.22
13.12
14.73
16.01
16.98
17.68
18.19
18.57
18.92
19.28
19.70
20.16
20.56
20.80
20.76
20.41
19.78
18.91
17.80
16.47
14.87
13.01
10.93
8.69
6.40
4.14
2.04
0.17
-1.43
-2.79
-4.04
-5.34
-6.80
-8.46
-10.25
-12.03
-13.66
-15.05
-16.22
-17.27
-18.39
-19.80
-21.72
-24.28
-27.50
-31.20
-34.97
-38.14
-39.96
-39.75
-37.14
-32.26
-25.72
-18.45
-11.37
-5.22
-0.36
3.15
5.49
6.93
7.76
8.27
8.68
9.11
9.55
9.92
10.15
10.27
10.39
10.70
11.33
12.26
13.32
14.30
15.00
15.27
15.05
14.30
13.03
11.30
9.26
7.12
5.07
3.23
1.54
-0.19
-2.16
-4.44
-6.95
-9.45
-11.64
-13.36
-14.65
-15.76
-17.10
-19.11
-22.08
-26.05
-30.63
-35.03
-38.20
-39.12
-37.11
-32.18
-24.96
-16.62
-8.42
-1.33
4.16
8.09
10.84
12.84
14.40
15.62
16.48
16.94
17.03
16.91
16.76
16.74
16.90
17.14
17.33
17.36
17.26
17.14
17.14
17.34
17.60
17.66
17.13
15.70
13.31
10.23
6.96
4.04
1.80
0.24
-1.00
-2.37
-4.23
-6.59
-9.26
-11.88
-14.22
-16.25
-18.15
-20.18
-22.59
-25.52
-29.04
-33.06
-37.31
-41.22
-44.03
-44.87
-43.10
-38.50
-31.47
-22.84
-13.73
-5.11
2.34
8.33
12.92
16.35
18.89
20.74
22.01
22.76
23.05
22.97
22.69
22.38
22.24
22.34
22.70
23.20
23.68
24.00
24.10
23.95
23.58
22.98
22.11
20.87
19.19
17.02
14.39
11.40
8.17
4.80
1.35
-2.11
-5.46
-8.62
-11.54
-14.31
-17.18
-20.50
-24.57
-29.44
-34.73
-39.69
-43.34
-44.76
-43.34
-39.04
-32.33
-24.12
-15.48
-7.35
-0.37
5.25
9.62
13.05
15.83
18.14
20.01
21.41
22.35
22.91
23.26
23.53
23.77
23.92
23.88
23.60
23.16
22.73
22.49
22.48
22.55
22.39
21.68
20.23
18.10
15.59
13.05
10.74
8.69
6.69
4.45
1.75
-1.43
-4.87
-8.23
-11.22
-13.72
-15.92
-18.18
-21.00
-24.80
-29.74
-35.60
-41.71
-47.02
-50.38
-50.84
-48.02
-42.17
-34.16
-25.17
-16.27
-8.24
-1.41
4.25
8.97
13.02
16.57
19.72
22.53
25.03
27.24
29.17
30.75
31.87
32.38
32.25
31.59
30.63
29.67
28.92
28.43
28.07
27.64
26.93
25.85
24.37
22.54
20.39
17.97
15.31
12.44
9.37
6.08
2.59
-1.01
-4.54
-7.82
-10.71
-13.23
-15.53
-17.87
-20.54
-23.81
-27.82
-32.50
-37.42
-41.75
-44.39
-44.32
-40.96
-34.49
-25.83
-16.32
-7.25
0.53
6.72
11.47
15.10
17.92
20.08
21.70
22.86
23.69
24.27
24.65
24.77
24.53
23.82
22.65
21.17
19.62
18.21
17.05
16.05
14.95
13.45
11.31
8.47
5.09
1.47
-2.09
-5.41
-8.45
-11.37
-14.39
-17.67
-21.23
-24.85
-28.16
-30.71
-32.12
-32.25
-31.25
-29.56
-27.82
-26.72
-26.79
-28.14
-30.33
-32.30
-32.71
-30.31
-24.49
-15.51
-4.45
7.19
18.04
27.34
34.97
41.33
46.85
51.80
56.10
59.49
61.77
62.90
63.04
62.42
61.23
59.55
57.39
54.78
51.87
48.93
46.21
43.86
41.85
39.93
37.73
34.93
31.30
26.87
21.87
16.63
11.57
7.00
3.10
-0.21
-3.20
-6.22
-9.57
-13.37
-17.49
-21.57
-25.25
-28.30
-30.75
-32.88
-35.12
-37.90
-41.49
-45.90
-50.84
-55.70
-59.58
-61.46
-60.44
-56.05
-48.51
-38.68
-27.88
-17.44
-8.36
-1.08
4.50
8.83
12.41
15.59
18.51
21.06
22.99
24.06
24.09
23.07
21.19
18.79
16.30
14.19
12.83
12.45
13.08
14.53
16.43
18.32
19.75
20.33
19.84
18.19
15.49
12.00
8.11
4.28
0.93
-1.66
-3.50
-4.88
-6.37
-8.69
-12.45
-18.02
-25.28
-33.58
-41.75
-48.33
-51.93
-51.63
-47.29
-39.62
-29.93
-19.76
-10.41
-2.63
3.37
7.84
11.18
13.77
15.88
17.68
19.28
20.75
22.14
23.44
24.60
25.55
26.26
26.80
27.25
27.66
28.03
28.25
28.15
27.58
26.45
24.77
22.67
20.33
17.86
15.36
12.82
10.19
7.43
4.54
1.58
-1.36
-4.18
-6.82
-9.30
-11.71
-14.25
-17.17
-20.76
-25.17
-30.24
-35.44
-39.80
-42.20
-41.70
-37.94
-31.31
-22.85
-13.89
-5.63
1.21
6.51
10.56
13.79
16.58
19.09
21.30
23.07
24.33
25.09
25.43
25.49
25.36
25.01
24.38
23.41
22.15
20.82
19.71
19.01
18.72
18.59
18.26
17.38
15.79
13.58
11.05
8.58
6.40
4.59
2.96
1.24
-0.85
-3.40
-6.29
-9.20
-11.77
-13.74
-15.14
-16.28
-17.63
-19.66
-22.66
-26.72
-31.61
-36.79
-41.41
-44.41
-44.79
-41.93
-35.90
-27.49
-18.06
-9.03
-1.47
4.25
8.37
11.52
14.30
17.03
19.71
22.09
23.92
25.05
25.52
25.48
25.09
24.45
23.61
22.63
21.55
20.52
19.63
18.98
18.56
18.29
18.00
17.48
16.52
14.98
12.92
10.52
8.06
5.82
3.91
2.25
0.61
-1.31
-3.68
-6.53
-9.70
-12.92
-15.90
-18.43
-20.45
-22.07
-23.52
-25.13
-27.26
-30.19
-34.00
-38.43
-42.84
-46.24
-47.54
-45.92
-41.10
-33.58
-24.49
-15.20
-6.92
-0.34
4.46
7.85
10.39
12.55
14.59
16.55
18.34
19.84
20.95
21.68
22.06
22.19
22.17
22.10
22.07
22.07
22.08
22.04
21.81
21.31
20.47
19.29
17.87
16.31
14.72
13.14
11.53
9.81
7.90
5.80
3.59
1.43
-0.52
-2.16
-3.54
-4.77
-6.07
-7.57
-9.35
-11.34
-13.45
-15.54
-17.50
-19.31
-20.98
-22.65
-24.47
-26.68
-29.46
-32.79
-36.30
-39.28
-40.72
-39.72
-35.86
-29.38
-21.24
-12.74
-5.12
0.90
5.21
8.20
10.37
12.07
13.39
14.25
14.57
14.43
14.11
13.89
13.92
14.14
14.37
14.40
14.14
13.67
13.19
12.84
12.67
12.60
12.49
12.14
11.42
10.29
8.75
6.88
4.83
2.78
0.93
-0.63
-1.93
-3.19
-4.67
-6.58
-8.95
-11.62
-14.29
-16.71
-18.76
-20.51
-22.23
-24.20
-26.66
-29.75
-33.40
-37.31
-40.85
-43.16
-43.35
-40.80
-35.45
-27.94
-19.40
-11.13
-4.12
1.17
4.86
7.46
9.52
11.43
13.36
15.27
17.07
18.70
20.15
21.44
22.53
23.37
23.87
23.99
23.73
23.24
22.68
22.21
21.84
21.47
20.87
19.82
18.16
15.88
13.13
10.13
7.14
4.41
2.08
0.23
-1.21
-2.43
-3.67
-5.16
-7.00
-9.10
-11.27
-13.25
-14.93
-16.34
-17.68
-19.22
-21.18
-23.73
-26.87
-30.39
-33.83
-36.47
-37.48
-36.14
-32.13
-25.77
-17.91
-9.72
-2.30
3.65
7.92
10.78
12.71
14.16
15.39
16.45
17.27
17.77
17.97
17.99
17.97
18.03
18.19
18.45
18.74
19.06
19.40
19.74
20.00
20.05
19.77
19.10
18.05
16.74
15.27
13.72
12.06
10.28
8.32
6.25
4.20
2.29
0.61
-0.87
-2.32
-3.96
-5.92
-8.21
-10.66
-13.03
-15.18
-17.05
-18.77
-20.55
-22.64
-25.22
-28.51
-32.58
-37.31
-42.25
-46.59
-49.27
-49.33
-46.27
-40.30
-32.30
-23.52
-15.22
-8.26
-2.97
0.74
3.21
4.83
5.95
6.82
7.65
8.53
9.50
10.47
11.37
12.08
12.57
12.84
12.94
12.94
12.89
12.91
13.03
13.27
13.55
13.70
13.57
13.07
12.22
11.19
10.16
9.32
8.72
8.30
7.85
7.16
6.10
4.67
3.01
1.33
-0.24
-1.67
-3.07
-4.58
-6.27
-8.10
-9.93
-11.57
-12.89
-13.89
-14.71
-15.62
-16.98
-19.17
-22.40
-26.56
-31.13
-35.18
-37.61
-37.53
-34.52
-28.85
-21.34
-13.10
-5.23
1.55
6.90
10.88
13.75
15.80
17.24
18.15
18.56
18.53
18.19
17.75
17.39
17.23
17.29
17.44
17.53
17.42
17.06
16.44
15.60
14.64
13.60
12.47
11.24
9.82
8.10
6.02
3.63
1.06
-1.45
-3.69
-5.56
-7.11
-8.53
-10.07
-11.86
-13.91
-16.04
-17.99
-19.55
-20.68
-21.54
-22.45
-23.78
-25.83
-28.76
-32.49
-36.63
-40.54
-43.32
-44.07
-42.13
-37.35
-30.22
-21.76
-13.18
-5.53
0.63
5.26
8.72
11.45
13.77
15.75
17.31
18.34
18.89
19.13
19.37
19.86
20.68
21.71
22.67
23.26
23.29
22.78
21.97
21.18
20.65
20.43
20.28
19.83
18.78
17.02
14.72
12.19
9.75
7.57
5.61
3.71
1.71
-0.47
-2.82
-5.25
-7.68
-10.07
-12.41
-14.67
-16.88
-19.10
-21.49
-24.28
-27.70
-31.81
-36.34
-40.60
-43.59
-44.32
-42.17
-37.16
-30.01
-21.88
-13.95
-7.06
-1.48
2.95
6.60
9.86
12.94
15.91
18.74
21.37
23.70
25.59
26.99
27.90
28.45
28.83
29.18
29.55
29.88
30.05
29.97
29.61
28.96
28.01
26.67
24.87
22.62
20.01
17.26
14.56
12.04
9.74
7.62
5.63
3.70
1.81
-0.09
-2.10
-4.31
-6.75
-9.40
-12.12
-14.74
-17.13
-19.26
-21.19
-23.08
-25.11
-27.51
-30.49
-34.24
-38.76
-43.76
-48.54
-52.02
-53.07
-50.90
-45.35
-37.10
-27.40
-17.72
-9.16
-2.26
3.01
7.11
10.45
13.31
15.70
17.53
18.75
19.42
19.72
19.90
20.15
20.53
21.04
21.60
22.16
22.73
23.35
24.09
24.90
25.68
26.25
26.41
26.00
24.99
23.43
21.52
19.53
17.69
16.19
15.08
14.18
13.21
11.82
9.78
7.07
3.89
0.56
-2.65
-5.60
-8.34
-11.07
-14.03
-17.47
-21.62
-26.61
-32.36
-38.38
-43.78
-47.36
-48.06
-45.28
-39.25
-30.96
-21.78
-13.02
-5.45
0.75
5.90
10.47
14.80
19.00
22.97
26.56
29.69
32.37
34.66
36.51
37.80
38.37
38.11
37.11
35.64
34.04
32.56
31.30
30.19
29.07
27.84
26.46
24.97
23.40
21.72
19.88
17.79
15.44
12.89
10.24
7.63
5.21
3.07
1.24
-0.40
-2.09
-4.08
-6.58
-9.63
-13.06
-16.60
-19.95
-22.94
-25.61
-28.20
-31.04
-34.46
-38.64
-43.48
-48.52
-52.90
-55.57
-55.52
-52.14
-45.53
-36.44
-26.11
-15.83
-6.61
1.05
7.15
11.97
15.88
19.11
21.79
23.95
25.60
26.82
27.72
28.46
29.17
29.87
30.56
31.16
31.66
32.05
32.38
32.68
32.92
33.00
32.76
32.08
30.91
29.26
27.25
25.02
22.73
20.48
18.27
16.06
13.76
11.34
8.86
6.45
4.28
2.42
0.76
-0.96
-3.07
-5.79
-9.15
-12.93
-16.73
-20.14
-22.92
-25.06
-26.84
-28.78
-31.41
-35.12
-39.88
-45.10
-49.75
-52.56
-52.47
-49.02
-42.52
-33.93
-24.54
-15.56
-7.80
-1.56
3.22
6.88
9.78
12.22
14.41
16.41
18.24
19.83
21.10
22.00
22.50
22.61
22.40
21.96
21.42
20.92
20.58
20.41
20.30
20.02
19.22
17.65
15.23
12.11
8.62
5.07
1.71
-1.42
-4.44
-7.54
-10.84
-14.36
-18.03
-21.70
-25.25
-28.61
-31.75
-34.80
-38.01
-41.70
-46.19
-51.54
-57.36
-62.77
-66.61
-67.79
-65.75
-60.67
-53.36
-45.03
-36.80
-29.47
-23.38
-18.45
-14.40
-10.76
-7.06
-2.83
2.22
8.16
14.78
21.66
28.30
34.32
39.53
43.88
47.44
50.29
52.45
53.90
54.64
54.69
54.13
53.09
51.70
50.10
48.40
46.68
44.96
43.20
41.29
39.08
36.44
33.33
29.86
26.26
22.78
19.56
16.57
13.63
10.50
7.02
3.28
-0.54
-4.16
-7.37
-10.08
-12.41
-14.57
-16.85
-19.58
-23.06
-27.45
-32.67
-38.21
-43.13
-46.26
-46.52
-43.36
-37.01
-28.42
-18.91
-9.80
-1.92
4.45
9.52
13.66
17.19
20.25
22.79
24.72
26.03
26.82
27.26
27.52
27.69
27.71
27.50
26.95
26.05
24.92
23.74
22.73
21.97
21.42
20.88
20.09
18.84
17.08
14.89
12.50
10.16
8.07
6.27
4.62
2.89
0.78
-1.84
-4.98
-8.42
-11.87
-15.08
-17.92
-20.43
-22.74
-25.07
-27.63
-30.69
-34.52
-39.24
-44.65
-50.09
-54.44
-56.39
-54.96
-49.89
-41.81
-32.06
-22.19
-13.43
-6.32
-0.79
3.66
7.55
11.15
14.53
17.54
20.06
22.05
23.57
24.73
25.60
26.21
26.53
26.50
26.13
25.46
24.66
23.93
23.45
23.31
23.46
23.63
23.51
22.79
21.37
19.37
17.11
14.98
13.27
12.02
11.05
10.02
8.63
6.74
4.43
1.95
-0.41
-2.45
-4.16
-5.75
-7.48
-9.57
-12.08
-14.83
-17.54
-19.92
-21.92
-23.66
-25.49
-27.78
-30.80
-34.65
-39.18
-44.00
-48.45
-51.63
-52.63
-50.75
-45.82
-38.31
-29.25
-19.90
-11.33
-4.14
1.60
6.17
9.97
13.28
16.24
18.90
21.28
23.42
25.34
27.00
28.32
29.21
29.63
29.63
29.34
28.97
28.68
28.58
28.62
28.65
28.49
27.89
26.69
24.84
22.40
19.58
16.72
14.14
12.11
10.69
9.68
8.77
7.54
5.79
3.55
1.12
-1.09
-2.76
-3.86
-4.59
-5.38
-6.64
-8.57
-11.17
-14.19
-17.30
-20.24
-22.87
-25.19
-27.27
-29.27
-31.39
-33.88
-37.05
-40.99
-45.48
-49.80
-52.83
-53.39
-50.70
-44.74
-36.33
-26.83
-17.65
-9.80
-3.64
1.02
4.68
7.80
10.66
13.31
15.71
17.82
19.66
21.26
22.69
23.93
24.95
25.68
26.14
26.37
26.47
26.59
26.79
27.06
27.28
27.29
26.91
26.01
24.60
22.77
20.74
18.75
17.00
15.60
14.47
13.41
12.17
10.53
8.47
6.18
3.95
2.07
0.63
-0.50
-1.68
-3.30
-5.61
-8.60
-12.04
-15.60
-18.98
-22.06
-24.83
-27.39
-29.92
-32.65
-35.86
-39.78
-44.40
-49.24
-53.37
-55.55
-54.70
-50.30
-42.70
-32.99
-22.66
-13.06
-4.99
1.32
6.15
9.94
13.08
15.77
18.07
19.98
21.53
22.75
23.73
24.51
25.08
25.42
25.45
25.12
24.50
23.77
23.21
23.03
23.26
23.67
23.87
23.46
22.25
20.33
18.09
15.98
14.30
13.10
12.20
11.27
10.04
8.39
6.41
4.27
2.21
0.39
-1.15
-2.49
-3.81
-5.33
-7.17
-9.40
-11.94
-14.63
-17.36
-20.06
-22.78
-25.70
-29.03
-32.97
-37.57
-42.64
-47.60
-51.55
-53.40
-52.24
-47.66
-40.02
-30.37
-20.17
-10.76
-2.98
2.98
7.43
10.91
13.81
16.25
18.15
19.46
20.21
20.55
20.70
20.79
20.87
20.87
20.76
20.51
20.16
19.74
19.27
18.75
18.19
17.59
16.92
16.12
15.10
13.80
12.23
10.47
8.67
6.94
5.37
3.91
2.46
0.89
-0.94
-3.09
-5.60
-8.38
-11.28
-14.09
-16.59
-18.66
-20.35
-21.84
-23.42
-25.41
-28.05
-31.43
-35.39
-39.47
-42.91
-44.73
-44.02
-40.28
-33.70
-25.12
-15.90
-7.37
-0.45
4.52
7.83
10.02
11.62
12.98
14.17
15.19
16.00
16.67
17.28
17.90
18.52
19.03
19.29
19.21
18.81
18.26
17.78
17.51
17.41
17.28
16.79
15.63
13.65
10.97
7.88
4.81
2.14
0.05
-1.49
-2.76
-4.16
-6.06
-8.61
-11.72
-15.14
-18.52
-21.58
-24.14
-26.19
-27.88
-29.46
-31.31
-33.83
-37.23
-41.29
-45.24
-47.88
-47.96
-44.65
-37.98
-28.84
-18.65
-8.90
-0.54
6.09
11.26
15.46
19.14
22.47
25.42
27.85
29.68
30.94
31.74
32.21
32.50
32.67
32.76
32.80
32.81
32.79
32.74
32.64
32.45
32.11
31.51
30.55
29.16
27.27
24.91
22.13
19.02
15.72
12.35
9.07
6.03
3.34
0.97
-1.21
-3.47
-6.04
-8.98
-12.14
-15.21
-17.94
-20.20
-22.14
-24.12
-26.55
-29.79
-34.02
-39.20
-44.93
-50.43
-54.60
-56.32
-54.77
-49.83
-42.15
-32.97
-23.65
-15.24
-8.20
-2.44
2.47
6.92
11.09
14.93
18.22
20.77
22.51
23.56
24.14
24.48
24.77
25.03
25.23
25.30
25.24
25.14
25.09
25.09
25.00
24.62
23.72
22.22
20.20
17.84
15.35
12.93
10.69
8.64
6.81
5.18
3.69
2.23
0.64
-1.21
-3.45
-6.11
-9.12
-12.32
-15.51
-18.55
-21.35
-24.01
-26.78
-30.01
-34.01
-38.87
-44.22
-49.24
-52.82
-53.85
-51.64
-46.16
-38.09
-28.60
-18.92
-10.07
-2.53
3.66
8.81
13.26
17.26
20.90
24.13
26.88
29.11
30.85
32.14
33.04
33.61
33.87
33.88
33.62
33.12
32.37
31.40
30.27
29.09
27.95
26.86
25.75
24.44
22.76
20.65
18.16
15.50
12.90
10.52
8.43
6.50
4.54
2.34
-0.24
-3.18
-6.36
-9.57
-12.59
-15.33
-17.82
-20.24
-22.91
-26.16
-30.22
-35.11
-40.59
-46.02
-50.53
-53.15
-53.05
-49.87
-43.82
-35.68
-26.59
-17.66
-9.72
-3.11
2.29
6.84
10.93
14.78
18.39
21.64
24.39
26.62
28.42
29.88
30.99
31.66
31.74
31.16
30.05
28.65
27.27
26.04
24.91
23.63
21.95
19.76
17.12
14.25
11.38
8.64
6.00
3.33
0.46
-2.72
-6.15
-9.65
-12.95
-15.81
-18.17
-20.19
-22.24
-24.83
-28.33
-32.87
-38.12
-43.30
-47.33
-49.14
-48.00
-43.79
-37.06
-28.89
-20.45
-12.67
-6.01
-0.44
4.32
8.61
12.56
16.15
19.19
21.52
23.05
23.77
23.80
23.36
22.70
22.07
21.64
21.39
21.24
21.08
20.84
20.54
20.19
19.76
19.13
18.13
16.71
14.94
13.03
11.22
9.58
7.98
6.14
3.78
0.76
-2.80
-6.61
-10.29
-13.59
-16.39
-18.91
-21.59
-24.91
-29.25
-34.50
-40.06
-44.86
-47.69
-47.63
-44.37
-38.27
-30.14
-20.95
-11.53
-2.44
6.02
13.69
20.50
26.36
31.24
35.15
38.11
40.13
41.25
41.53
41.12
40.23
39.10
37.95
36.90
35.98
35.14
34.28
33.29
32.09
30.68
29.09
27.37
25.60
23.76
21.86
19.86
17.77
15.68
13.67
11.81
10.07
8.35
6.45
4.14
1.30
-2.11
-5.94
-9.96
-13.88
-17.49
-20.71
-23.60
-26.39
-29.43
-33.11
-37.73
-43.25
-49.14
-54.38
-57.67
-57.85
-54.35
-47.44
-38.17
-27.98
-18.17
-9.61
-2.56
3.18
8.00
12.25
16.14
19.75
23.07
26.08
28.71
30.89
32.52
33.55
33.95
33.81
33.32
32.69
32.16
31.87
31.82
31.85
31.73
31.23
30.20
28.67
26.83
24.98
23.35
22.05
20.95
19.81
18.32
16.30
13.74
10.78
7.71
4.70
1.85
-0.90
-3.69
-6.64
-9.82
-13.22
-16.75
-20.32
-23.83
-27.16
-30.24
-33.12
-36.02
-39.27
-43.14
-47.65
-52.35
-56.32
-58.40
-57.58
-53.38
-46.12
-36.81
-26.75
-17.22
-9.02
-2.39
2.86
7.16
10.87
14.21
17.22
19.85
22.06
23.84
25.20
26.13
26.67
26.84
26.75
26.53
26.29
26.14
26.06
26.04
25.99
25.85
25.51
24.84
23.75
22.22
20.32
18.26
16.28
14.54
13.02
11.55
9.90
7.90
5.59
3.19
0.96
-0.89
-2.41
-3.82
-5.50
-7.79
-10.81
-14.39
-18.19
-21.77
