1653561967.00
64.000000
-0.00
-0.00
-0.00
-0.00
-0.00
-0.00
-0.00
-0.00
-0.00
-0.00
0.00
0.01
0.01
-0.00
-0.03
-0.05
-0.05
0.00
0.13
0.36
0.66
1.01
1.37
1.72
2.06
2.40
2.79
3.24
3.80
4.42
5.06
5.66
6.20
6.68
7.15
7.68
8.31
9.14
10.09
11.04
11.88
12.56
13.14
13.76
14.65
15.96
17.91
20.32
22.90
25.38
27.58
29.57
31.68
34.32
37.81
42.54
48.15
54.10
59.83
64.97
69.58
74.14
79.34
85.71
93.76
103.00
112.62
121.73
129.77
136.75
143.30
150.75
157.77
166.64
177.95
191.79
206.97
220.57
228.25
225.36
208.53
176.87
132.76
80.05
23.07
-34.94
-92.44
-149.16
-205.23
-260.37
-313.74
-363.87
-409.83
-450.91
-486.50
-515.74
-537.23
-549.22
-549.96
-538.37
-514.21
-478.67
-433.88
-382.45
-327.02
-269.84
-212.63
-156.66
-102.95
-52.37
-5.90
35.58
71.43
101.35
125.50
144.38
158.69
169.15
176.37
180.75
182.57
182.07
179.51
175.23
169.65
163.18
156.15
148.81
141.30
133.69
126.02
118.33
110.69
103.16
95.80
88.68
81.83
75.25
68.95
62.95
57.25
51.86
46.78
42.03
37.59
33.45
29.61
26.07
22.81
19.83
17.11
14.67
12.48
10.54
8.83
7.35
6.07
4.97
4.05
3.27
2.62
2.09
1.65
1.30
1.01
0.79
0.61
0.48
0.37
0.30
0.24
0.21
0.19
0.18
0.19
0.21
0.23
0.26
0.30
0.34
0.38
0.42
0.47
0.51
0.56
0.61
0.67
0.72
0.79
0.85
0.92
1.00
1.09
1.19
1.29
1.41
1.55
1.71
1.90
2.11
2.33
2.54
2.74
2.93
3.12
3.36
3.67
4.05
4.51
5.01
5.52
6.03
6.53
7.05
7.64
8.31
9.08
9.93
10.81
11.65
12.42
13.15
13.91
14.78
15.84
17.11
18.49
19.80
20.83
21.39
21.38
20.83
19.83
18.47
16.73
14.46
11.36
7.19
1.86
-4.37
-10.97
-17.27
-22.67
-26.85
-29.92
-32.31
-34.57
-37.06
-39.80
-42.39
-44.27
-45.04
-44.66
-43.50
-42.23
-41.53
-41.84
-43.41
-46.28
-50.18
-54.35
-57.27
-56.99
-51.71
-40.78
-25.27
-7.84
8.17
20.09
26.87
29.20
28.72
27.04
24.97
22.49
19.39
15.86
12.77
11.31
12.34
15.86
20.84
25.73
28.92
29.56
27.74
24.38
20.73
17.84
16.16
15.47
15.10
14.39
13.06
11.26
9.44
8.06
7.42
7.50
8.11
9.00
9.87
10.65
11.39
12.13
12.83
13.29
13.28
12.54
11.05
8.96
6.65
4.53
2.87
1.75
1.01
0.39
-0.31
-1.18
-2.16
-3.14
-4.09
-5.05
-6.16
-7.58
-9.39
-11.54
-13.86
-16.12
-18.08
-19.63
-20.79
-21.76
-22.84
-24.44
-26.83
-30.07
-33.83
-37.34
-39.57
-39.53
-36.64
-31.00
-23.35
-14.86
-6.72
0.21
5.59
9.51
12.34
14.48
16.25
17.82
19.25
20.52
21.61
22.53
23.30
23.98
24.61
25.17
25.61
25.91
26.09
26.26
26.49
26.74
26.85
26.56
25.70
24.23
22.35
20.34
18.44
16.79
15.34
13.95
12.43
10.68
8.66
6.46
4.25
2.19
0.42
-1.08
-2.42
-3.85
-5.56
-7.69
-10.15
-12.74
-15.19
-17.35
-19.28
-21.23
-23.58
-26.72
-30.77
-35.54
-40.42
-44.48
-46.72
-46.34
-43.01
-37.05
-29.29
-20.85
-12.84
-6.10
-1.05
2.36
4.44
5.71
6.66
7.67
8.91
10.44
12.19
14.05
15.90
17.62
19.06
20.14
20.83
21.21
21.44
21.66
21.94
22.16
22.08
21.38
19.81
17.30
13.99
10.25
6.47
2.96
-0.18
-3.08
-5.98
-9.11
-12.53
-16.14
-19.72
-23.03
-26.05
-28.93
-32.01
-35.62
-39.96
-45.00
-50.49
-56.06
-61.38
-66.23
-70.51
-74.20
-77.28
-79.72
-81.39
-81.99
-80.99
-77.65
-71.17
-60.95
-46.90
-29.67
-10.53
8.90
27.01
42.65
55.21
64.57
70.99
74.92
76.83
77.22
76.51
75.10
73.33
71.42
69.48
67.51
65.43
63.15
60.66
58.06
55.47
53.02
50.77
48.66
46.54
44.28
41.79
39.05
36.14
33.12
30.10
27.16
24.37
21.74
19.18
16.56
13.77
10.84
7.93
5.30
3.12
1.36
-0.17
-1.81
-3.79
-6.16
-8.75
-11.32
-13.67
-15.78
-17.78
-19.91
-22.42
-25.50
-29.25
-33.54
-37.95
-41.74
-43.98
-43.82
-40.78
-35.05
-27.44
-19.17
-11.42
-5.04
-0.25
3.16
5.67
7.73
9.58
11.31
12.88
14.28
15.52
16.66
17.67
18.49
19.09
19.38
19.41
19.24
19.00
18.81
18.75
18.84
19.04
19.25
19.34
19.18
18.66
17.76
16.53
15.09
13.57
12.10
10.75
9.56
8.48
7.45
6.37
5.16
3.77
2.23
0.65
-0.83
-2.06
-3.02
-3.84
-4.78
-6.13
-8.03
-10.37
-12.87
-15.16
-17.00
-18.42
-19.65
-21.06
-22.95
-25.50
-28.67
-32.28
-35.95
-39.12
-41.10
-41.18
-38.93
-34.33
-27.90
-20.60
-13.46
-7.35
-2.67
0.59
2.77
4.32
5.59
6.81
8.09
9.45
10.88
12.35
13.82
15.23
16.51
17.58
18.34
18.78
18.92
18.88
18.82
18.85
19.04
19.30
19.46
19.28
18.62
17.48
15.96
14.30
12.68
11.27
10.09
9.08
8.13
7.10
5.88
4.49
2.98
1.53
0.28
-0.71
-1.47
-2.16
-2.99
-4.16
-5.78
-7.83
-10.20
-12.66
-15.05
-17.22
-19.13
-20.84
-22.46
-24.18
-26.23
-28.81
-31.98
-35.48
-38.70
-40.79
-40.87
-38.48
-33.70
-27.20
-19.97
-12.98
-6.88
-1.95
1.86
4.73
6.87
8.49
9.79
11.02
12.33
13.75
15.19
16.43
17.33
17.78
17.84
17.66
17.46
17.42
17.63
18.06
18.54
18.84
18.77
18.21
17.18
15.77
14.09
12.23
10.21
8.06
5.87
3.78
1.98
0.59
-0.39
-1.10
-1.76
-2.55
-3.56
-4.79
-6.16
-7.60
-9.12
-10.72
-12.44
-14.24
-16.12
-18.06
-20.15
-22.55
-25.41
-28.73
-32.19
-35.14
-36.78
-36.37
-33.56
-28.55
-22.09
-15.16
-8.74
-3.44
0.54
3.37
5.37
6.81
7.84
8.54
9.00
9.36
9.79
10.43
11.31
12.30
13.19
13.78
13.96
13.79
13.42
13.05
12.81
12.74
12.75
12.69
12.40
11.78
10.76
9.34
7.55
5.50
3.36
1.38
-0.20
-1.26
-1.86
-2.28
-2.89
-3.97
-5.63
-7.78
-10.10
-12.32
-14.26
-15.90
-17.39
-18.92
-20.73
-22.96
-25.67
-28.67
-31.54
-33.59
-34.09
-32.50
-28.71
-23.13
-16.58
-10.07
-4.40
-0.06
2.90
4.72
5.80
6.50
7.08
7.69
8.41
9.26
10.27
11.40
12.57
13.67
14.60
15.29
15.76
16.08
16.30
16.44
16.48
16.45
16.35
16.28
16.25
16.23
16.07
15.64
14.85
13.77
12.59
11.50
10.62
9.87
9.05
7.89
6.24
4.16
1.94
-0.07
-1.59
-2.60
-3.35
-4.26
-5.71
-7.83
-10.47
-13.24
-15.76
-17.81
-19.41
-20.78
-22.20
-23.93
-26.19
-29.05
-32.52
-36.35
-40.06
-42.87
-43.90
-42.45
-38.34
-32.04
-24.53
-17.03
-10.50
-5.39
-1.61
1.29
3.81
6.24
8.58
10.70
12.46
13.86
15.00
16.01
16.95
17.76
18.30
18.45
18.24
17.81
17.45
17.36
17.68
18.30
18.92
19.16
18.70
17.42
15.45
13.12
10.80
8.76
7.03
5.49
3.90
2.08
-0.06
-2.49
-5.11
-7.79
-10.39
-12.79
-14.91
-16.75
-18.36
-19.86
-21.40
-23.02
-24.71
-26.28
-27.55
-28.31
-28.50
-28.25
-27.92
-27.99
-28.96
-31.08
-34.16
-37.50
-40.00
-40.50
-38.15
-32.72
-24.75
-15.37
-5.98
2.18
8.33
12.35
14.68
16.13
17.48
19.29
21.72
24.58
27.59
30.43
32.95
35.08
36.78
37.95
38.45
38.21
37.32
36.09
34.89
34.03
33.61
33.47
33.31
32.83
31.88
30.48
28.76
26.91
25.07
23.25
21.44
19.51
17.38
15.01
12.40
9.66
6.89
4.26
1.85
-0.29
-2.17
-3.83
-5.35
-6.83
-8.39
-10.15
-12.18
-14.46
-16.84
-19.09
-20.96
-22.29
-23.05
-23.35
-23.49
-23.88
-24.96
-27.08
-30.28
-34.17
-37.93
-40.47
-40.81
-38.41
-33.40
-26.50
-18.78
-11.29
-4.76
0.41
4.19
6.75
8.36
9.31
9.89
10.33
10.75
11.19
11.57
11.73
11.53
10.88
9.78
8.36
6.81
5.32
4.05
3.07
2.30
1.59
0.67
-0.71
-2.70
-5.35
-8.48
-11.82
-15.05
-17.91
-20.33
-22.39
-24.25
-26.00
-27.50
-28.37
-28.08
-26.15
-22.39
-17.05
-10.88
-4.95
-0.40
1.82
1.30
-1.74
-6.55
-12.07
-17.28
-21.52
-24.64
-26.98
-29.20
-31.89
-35.27
-38.99
-42.22
-44.06
-43.96
-42.07
-39.01
-35.48
-31.70
-27.34
-21.67
-14.10
-4.66
5.86
16.21
25.13
31.64
35.11
35.09
31.19
23.25
11.65
-2.35
-16.71
-29.00
-37.15
-40.15
-38.29
-33.01
-26.30
-19.91
-14.80
-11.09
-8.26
-5.65
-2.79
0.65
5.02
10.90
19.10
30.38
44.96
62.25
80.82
98.83
114.52
126.72
134.98
139.46
140.60
138.85
134.62
128.31
120.50
111.90
103.23
94.95
87.18
79.60
71.74
63.21
53.90
44.04
34.06
24.37
15.21
6.52
-1.99
-10.71
-19.91
-29.54
-39.08
-47.67
-54.27
-58.02
-58.49
-55.89
-50.94
-44.71
-38.30
-32.55
-27.86
-24.25
-21.41
-19.00
-16.74
-14.55
-12.44
-10.44
-8.54
-6.67
-4.79
-2.98
-1.41
-0.30
0.29
0.44
0.42
0.55
1.05
1.93
2.93
3.69
3.90
3.44
2.46
1.34
0.42
-0.15
-0.50
-0.92
-1.69
-2.86
-4.24
-5.55
-6.64
-7.57
-8.63
-10.07
-12.00
-14.25
-16.49
-18.38
-19.78
-20.72
-21.45
-22.23
-23.25
-24.61
-26.33
-28.41
-30.80
-33.29
-35.46
-36.66
-36.19
-33.52
-28.58
-21.87
-14.36
-7.10
-0.91
3.87
7.38
9.96
11.93
13.45
14.51
15.11
15.33
15.32
15.28
15.32
15.44
15.58
15.69
15.81
15.99
16.34
16.90
17.62
18.32
18.76
18.68
17.92
16.46
14.45
12.21
10.12
8.51
7.45
6.83
6.31
5.51
4.16
2.22
-0.13
-2.55
-4.70
-6.41
-7.71
-8.87
-10.22
-12.01
-14.29
-16.90
-19.50
-21.71
-23.23
-23.98
-24.14
-24.06
-24.19
-24.91
-26.43
-28.65
-31.21
-33.46
-34.64
-34.03
-31.19
-26.06
-19.08
-11.04
-2.91
4.48
10.65
15.50
19.25
22.21
24.58
26.42
27.66
28.26
28.28
27.94
27.48
27.10
26.84
26.62
26.26
25.67
24.92
24.18
23.69
23.54
23.70
24.00
24.21
24.20
23.96
23.54
23.02
22.49
21.90
21.25
20.53
19.78
19.03
18.30
17.59
16.80
15.88
14.74
13.40
11.88
10.22
8.48
6.62
4.60
2.38
0.01
-2.35
-4.48
-6.19
-7.43
-8.39
-9.42
-10.88
-13.02
-15.86
-19.17
-22.50
-25.26
-26.86
-26.79
-24.81
-21.01
-15.88
-10.17
-4.69
-0.06
3.44
5.80
7.29
8.17
8.69
9.00
9.23
9.46
9.75
10.09
10.40
10.57
10.53
10.30
10.07
10.08
10.55
11.61
13.15
14.96
16.74
18.22
19.16
19.44
19.02
17.95
16.40
14.61
12.87
11.44
10.43
9.78
9.31
8.83
8.21
7.43
6.53
5.51
4.34
2.92
1.18
-0.95
-3.44
-6.22
-9.20
-12.26
-15.24
-18.00
-20.41
-22.45
-24.18
-25.79
-27.47
-29.42
-31.71
-34.18
-36.46
-37.97
-38.13
-36.55
-33.20
-28.42
-22.80
-17.05
-11.72
-7.20
-3.62
-0.93
1.02
2.43
3.51
4.40
5.25
6.13
7.10
8.22
9.47
10.79
12.01
12.99
13.66
14.09
14.46
14.90
15.46
15.97
16.19
15.92
15.10
13.89
12.53
11.27
10.19
9.21
8.14
6.78
5.14
3.35
1.74
0.62
0.09
0.04
0.12
-0.05
-0.73
-2.00
-3.70
-5.63
-7.59
-9.50
-11.34
-13.16
-14.99
-16.89
-18.96
-21.30
-23.87
-26.44
-28.56
-29.58
-28.97
-26.41
-22.06
-16.37
-10.05
-3.72
2.16
7.34
11.73
15.32
18.10
20.08
21.37
22.11
22.49
22.71
22.88
23.07
23.26
23.39
23.42
23.33
23.18
23.06
23.17
23.60
24.38
25.33
26.17
26.54
26.21
25.13
23.53
21.75
20.16
18.98
18.25
17.87
17.61
17.24
16.54
15.31
13.43
10.91
7.93
4.80
1.83
-0.73
-2.88
-4.79
-6.71
-8.83
-11.09
-13.22
-14.85
-15.73
-15.92
-15.83
-16.08
-17.25
-19.61
-22.93
-26.61
-29.80
-31.75
-32.01
-30.51
-27.52
-23.50
-18.95
-14.32
-9.97
-6.14
-2.94
-0.33
1.81
3.65
5.33
6.90
8.37
9.75
11.05
12.34
13.66
14.97
16.19
17.18
17.88
18.37
18.84
19.59
20.82
22.63
24.89
27.33
29.61
31.36
32.30
32.30
31.39
29.71
27.53
25.14
22.84
20.79
19.04
17.54
16.15
14.79
13.41
11.96
10.43
8.76
6.86
4.66
2.10
-0.85
-4.11
-7.62
-11.26
-14.92
-18.56
-22.18
-25.91
-29.90
-34.29
-39.13
-44.26
-49.36
-53.95
-57.56
-59.75
-60.28
-59.15
-56.58
-52.96
-48.76
-44.48
-40.42
-36.81
-33.66
-30.88
-28.34
-25.88
-23.37
-20.71
-17.94
-15.09
-12.30
-9.77
-7.70
-6.23
-5.40
-5.13
-5.23
-5.52
-5.82
-6.15
-6.55
-7.14
-7.96
-8.92
-9.80
-10.38
-10.48
-10.08
-9.36
-8.57
-8.01
-7.84
-8.12
-8.73
-9.51
-10.34
-11.14
-11.98
-13.00
-14.39
-16.27
-18.65
-21.41
-24.34
-27.21
-29.74
-31.77
-33.25
-34.28
-35.13
-36.21
-37.87
-40.33
-43.47
-46.86
-49.82
-51.63
-51.74
-49.90
-46.27
-41.27
-35.53
-29.68
-24.22
-19.47
-15.48
-12.18
-9.40
-7.06
-5.16
-3.83
-3.10
-2.88
-2.93
-2.91
-2.57
-1.88
-0.98
-0.06
0.72
1.41
2.08
2.81
3.50
4.01
4.19
4.11
3.98
4.01
4.21
4.37
4.21
3.57
2.64
1.86
1.64
2.13
3.04
3.86
4.10
3.56
2.39
0.91
-0.59
-2.07
-3.73
-5.83
-8.56
-11.90
-15.67
-19.63
-23.64
-27.58
-31.40
-35.00
-38.29
-41.25
-44.03
-46.96
-50.38
-54.41
-58.77
-62.78
-65.56
-66.39
-65.05
-61.90
-57.71
-53.40
-49.66
-46.82
-44.86
-43.62
-42.93
-42.75
-43.13
-44.15
-45.78
-47.89
-50.26
-52.65
-54.87
-56.83
-58.51
-59.90
-61.00
-61.71
-61.88
-61.43
-60.20
-58.02
-54.56
-49.36
-42.02
-32.52
-21.50
-10.21
-0.16
7.39
11.91
13.72
13.68
12.67
11.24
9.56
7.79
6.40
6.36
8.88
14.98
25.11
39.05
56.08
75.20
95.27
115.05
133.20
148.39
159.63
166.54
169.62
170.10
169.63
169.74
171.48
175.21
180.70
187.39
194.70
202.21
209.65
216.70
222.92
227.66
230.21
229.96
226.53
219.76
209.47
195.45
177.39
155.20
129.26
100.58
70.59
40.51
10.83
-19.04
-50.41
-84.62
-122.08
-161.61
-200.26
-233.87
-258.07
-269.67
-267.68
-253.73
-231.59
-205.97
-181.26
-160.34
-144.33
-132.94
-125.13
-119.74
-115.77
-112.32
-108.59
-103.89
-98.00
-91.26
-84.52
-78.76
-74.63
-72.22
-71.03
-70.21
-68.77
-65.88
-61.03
-54.07
-45.26
-35.12
-24.31
-13.36
-2.65
7.76
17.86
27.63
36.95
45.57
53.21
59.55
64.38
67.55
69.09
69.25
68.52
67.56
66.93
66.98
67.71
68.88
70.12
71.15
71.80
72.06
71.91
71.32
70.26
68.70
66.64
64.20
61.52
58.73
55.87
52.90
49.72
46.24
42.48
38.54
34.67
31.11
28.04
25.47
23.27
21.20
19.02
16.63
14.06
11.47
9.05
6.99
5.36
4.07
2.89
1.40
-0.89
-4.34
-8.94
-14.11
-18.74
-21.42
-20.92
-16.58
-8.65
1.89
13.58
25.06
35.33
43.96
50.90
56.35
60.43
63.16
64.44
64.15
62.26
58.85
54.13
48.37
42.03
35.67
29.96
25.48
22.56
21.09
20.50
19.91
18.37
15.10
9.66
1.95
-7.81
-19.18
-31.47
-43.77
-55.23
-65.12
-73.18
-79.59
-84.81
-89.25
-93.08
-96.08
-97.80
-97.83
-95.97
-92.38
-87.52
-82.01
-76.45
-71.29
-66.63
-62.35
-58.13
-53.63
-48.68
-43.36
-37.90
-32.60
-27.69
-23.31
-19.58
-16.75
-15.14
-14.94
-15.96
-17.31
-17.63
-15.44
-9.77
-0.57
11.23
24.02
36.14
46.39
54.39
60.40
65.10
69.09
72.73
75.99
78.62
80.35
81.11
81.01
80.28
79.04
77.23
74.59
70.84
65.95
60.13
53.81
47.35
40.83
34.02
26.54
18.15
8.95
-0.53
-9.48
-17.01
-22.39
-25.13
-25.05
-22.23
-17.00
-9.88
-1.59
7.05
15.23
22.30
27.89
31.93
34.56
35.96
36.26
35.42
33.39
30.22
26.12
21.45
16.60
11.83
7.29
3.06
-0.87
-4.54
-8.19
-12.12
-16.67
-21.86
-27.23
-31.88
-34.73
-34.99
-32.42
-27.48
-21.02
-14.00
-7.07
-0.57
5.47
11.17
16.65
22.08
27.63
33.47
39.68
46.13
52.49
58.23
62.86
65.99
67.44
67.17
65.21
61.60
56.44
49.85
42.09
33.55
24.68
15.96
7.88
0.93
-4.37
-7.54
-8.36
-6.90
-3.69
0.47
4.67
8.17
10.69
12.34
13.64
15.23
17.70
21.33
26.03
31.30
36.44
40.68
43.39
44.23
43.12
40.21
35.78
30.08
23.37
15.81
7.52
-1.35
-10.65
-20.05
-29.09
-37.15
-43.53
-47.65
-49.18
-48.15
-44.96
-40.28
-34.89
-29.54
-24.75
-20.79
-17.64
-15.06
-12.71
-10.26
-7.53
-4.49
-1.28
1.91
4.90
7.58
9.94
11.96
13.65
15.02
16.09
16.93
17.59
18.12
18.44
18.45
17.99
16.95
15.31
13.17
10.68
8.01
5.26
2.49
-0.31
-3.12
-5.85
-8.42
-10.71
-12.60
-14.11
-15.25
-16.14
-16.90
-17.72
-18.74
-20.06
-21.73
-23.65
-25.70
-27.69
-29.49
-31.04
-32.41
-33.69
-35.00
-36.39
-37.78
-38.96
-39.58
-39.20
-37.47
-34.18
-29.42
-23.62
-17.45
-11.64
-6.77
-3.07
-0.38
1.71
3.67
5.76
7.96
10.01
11.58
12.50
12.84
12.88
12.95
13.29
13.91
14.70
15.51
16.22
16.80
17.25
17.60
17.74
17.57
16.98
15.89
14.39
12.67
10.96
9.42
8.06
6.71
5.07
2.86
-0.02
-3.51
-7.35
-11.26
-15.00
-18.44
-21.53
-24.30
-26.74
-28.90
-30.94
-33.02
-35.32
-37.90
-40.72
-43.59
-46.37
-49.03
-51.78
-54.96
-59.01
-64.19
-70.44
-77.26
-83.83
-89.26
-92.85
-94.29
-93.70
-91.53
-88.34
-84.66
-80.87
-77.20
-73.75
-70.44
-67.01
-63.08
-58.23
-52.18
-44.90
-36.61
-27.64
-18.46
-9.56
-1.51
5.05
9.59
11.82
11.89
10.33
7.91
5.42
3.38
2.07
1.53
1.78
2.82
4.69
7.35
10.64
14.28
17.85
20.93
23.19
24.51
25.04
25.13
25.18
25.48
26.00
26.44
26.38
25.51
23.83
21.67
19.64
18.28
17.92
18.54
19.85
21.40
22.80
23.82
24.37
24.47
24.09
23.14
21.57
19.37
16.72
13.89
11.14
8.67
6.59
4.92
3.69
2.96
2.79
3.16
3.90
4.71
5.23
5.18
4.41
3.01
1.17
-0.81
-2.66
-4.20
-5.40
-6.32
-7.13
-7.92
-8.77
-9.69
-10.65
-11.64
-12.60
-13.47
-14.08
-14.30
-14.04
-13.41
-12.68
-12.24
-12.43
-13.36
-14.71
-15.88
-16.14
-14.93
-12.08
-7.91
-3.03
1.83
6.09
9.51
12.08
13.91
15.12
15.75
15.77
15.21
14.16
12.80
11.34
9.97
8.80
7.90
7.24
6.81
6.52
6.33
6.18
6.02
5.80
5.47
4.99
4.31
3.43
2.38
1.22
0.03
-1.18
-2.44
-3.85
-5.49
-7.39
-9.42
-11.40
-13.15
-14.60
-15.83
-16.99
-18.19
-19.49
-20.76
-21.88
-22.70
-23.14
-23.20
-22.97
-22.65
-22.52
-22.92
-24.14
-26.23
-28.88
-31.49
-33.24
-33.50
-31.94
-28.68
-24.23
-19.19
-14.16
-9.51
-5.47
-2.09
0.64
2.81
4.56
6.01
7.26
8.35
9.23
9.88
10.37
10.82
11.43
12.32
13.51
14.90
16.32
17.63
18.78
19.74
20.51
20.98
21.07
20.72
20.01
19.16
18.43
18.07
18.13
18.52
19.04
19.53
19.82
19.86
19.60
19.05
18.23
17.27
16.36
15.65
15.16
14.70
13.99
12.78
11.02
8.91
6.75
4.82
3.25
1.95
0.77
-0.51
-2.04
-3.95
-6.26
-8.85
-11.35
-13.14
-13.50
-11.80
-7.86
-2.03
4.88
11.83
17.96
22.78
26.29
28.82
30.78
32.42
33.73
34.54
34.67
34.07
32.89
31.37
29.72
28.00
26.15
24.07
21.69
19.05
16.23
13.30
10.22
6.84
2.99
-1.52
-6.72
-12.53
-18.70
-24.89
-30.73
-35.94
-40.34
-43.90
-46.60
-48.49
-49.64
-50.17
-50.23
-50.02
-49.69
-49.29
-48.79
-48.15
-47.33
-46.39
-45.40
-44.37
-43.28
-42.15
-41.11
-40.49
-40.68
-41.98
-44.37
-47.45
-50.49
-52.61
-53.13
-51.64
-48.10
-42.73
-35.91
-28.09
-19.79
-11.63
-4.18
2.10
7.03
10.77
13.67
16.12
18.33
20.30
21.92
23.16
24.18
25.30
26.85
29.07
31.99
35.50
39.45
43.64
47.91
51.99
55.55
58.24
59.75
59.95
58.86
56.68
53.73
50.39
47.07
44.13
41.76
39.91
38.33
36.67
34.59
31.99
28.99
25.78
22.57
19.35
15.97
12.16
7.68
2.34
-3.85
-10.73
-17.92
-24.81
-30.67
-34.76
-36.67
-36.50
-34.97
-33.27
-32.65
-33.99
-37.41
-42.15
-46.85
-49.95
-50.30
-47.46
-41.86
-34.57
-26.91
-20.03
-14.55
-10.54
-7.46
-4.50
-0.82
4.23
10.85
18.73
26.97
34.13
38.43
38.16
32.27
20.98
6.12
-9.11
-20.90
-26.07
-23.00
-12.18
4.07
22.56
40.19
54.86
65.71
72.89
77.18
79.65
81.52
83.94
87.67
92.74
98.17
102.17
102.81
99.01
91.30
81.86
73.72
69.49
70.18
74.99
81.85
88.44
93.18
95.64
96.43
96.72
97.51
99.43
102.86
107.95
114.38
121.21
126.83
129.27
126.93
119.01
105.92
89.38
71.37
52.74
32.86
10.03
-16.96
-47.18
-77.77
-104.75
-123.67
-131.21
-126.02
-108.85
-82.24
-50.30
-18.29
7.23
19.58
15.46
-3.72
-32.41
-63.01
-88.68
-106.61
-113.69
-110.07
-100.74
-90.88
-82.84
-76.42
-70.67
-65.00
-59.59
-54.95
-52.82
-56.19
-66.73
-84.77
-109.58
-139.41
-171.23
-200.66
-222.69
-222.92
-198.10
-154.64
-105.12
-61.78
-31.80
-15.71
-9.13
-5.95
-1.87
2.88
6.76
8.44
7.82
5.64
2.52
-1.55
-6.78
-13.09
-21.14
-30.02
-37.76
-41.69
-39.75
-31.15
-16.40
2.88
24.28
44.49
61.41
72.21
76.29
74.69
69.52
63.31
58.10
54.78
52.50
49.82
45.47
39.48
32.83
27.13
23.75
23.22
24.95
27.23
28.19
26.49
22.04
15.71
8.87
2.75
-2.02
-5.51
-8.19
-10.45
-12.31
-13.20
-12.52
-10.14
-6.60
-2.97
-0.38
0.52
-0.16
-1.67
-2.92
-3.07
-1.84
0.38
2.73
4.25
4.18
2.28
-1.26
-5.79
-10.50
-14.71
-18.06
-20.55
-22.54
-24.45
-26.70
-29.62
-33.43
-38.26
-44.01
-50.13
-55.52
-58.67
-58.15
-53.30
-44.61
-33.65
-22.48
-12.83
-5.48
-0.24
3.75
7.38
11.10
14.92
18.58
21.88
24.77
27.35
29.72
31.82
33.50
34.60
35.08
35.11
34.91
34.79
34.93
35.34
35.85
36.17
36.01
35.16
33.51
31.13
28.22
25.06
21.95
19.12
16.68
14.63
12.90
11.40
10.03
8.73
7.36
5.82
3.98
1.86
-0.41
-2.64
-4.66
-6.48
-8.28
-10.36
-12.96
-16.13
-19.66
-23.20
-26.38
-28.98
-31.11
-33.20
-35.82
-39.42
-44.08
-49.28
-53.97
-56.84
-56.76
-53.12
-46.08
-36.49
-25.60
-14.68
-4.67
3.87
10.77
16.12
20.06
22.78
24.52
25.55
26.24
26.93
27.90
29.20
30.69
32.10
33.19
33.79
33.91
33.73
33.45
33.29
33.34
33.51
33.58
33.23
32.23
30.47
28.11
25.45
22.86
20.61
18.72
17.05
15.33
13.37
11.16
8.87
6.76
5.08
3.92
3.13
2.41
1.36
-0.31
-2.70
-5.70
-9.07
-12.52
-15.86
-19.02
-22.06
-25.13
-28.44
-32.20
-36.47
-41.14
-45.70
-49.33
-51.04
-50.01
-45.92
-39.04
-30.23
-20.58
-11.11
-2.59
4.62
10.34
14.60
17.51
19.33
20.47
21.44
22.69
24.50
26.82
29.38
31.79
33.66
34.80
35.27
35.30
35.22
35.32
35.73
36.44
37.27
38.04
38.49
38.43
37.70
36.26
34.11
31.43
28.44
25.46
22.73
20.44
18.64
17.24
16.05
14.84
13.44
11.74
9.80
7.73
5.68
3.68
1.64
-0.62
-3.28
-6.42
-9.91
-13.53
-17.00
-20.12
-22.83
-25.18
-27.34
-29.53
-31.98
-34.91
-38.42
-42.40
-46.41
-49.74
-51.50
-50.86
-47.39
-41.16
-32.85
-23.54
-14.35
-6.20
0.45
5.55
9.36
12.25
14.56
16.52
18.21
19.68
20.96
22.13
23.26
24.40
25.55
26.57
27.30
27.60
27.45
26.94
26.33
25.80
25.43
25.10
24.53
23.46
21.74
19.44
16.76
14.00
11.39
8.99
6.74
4.45
1.99
-0.70
-3.56
-6.39
-9.01
-11.37
-13.52
-15.67
-18.09
-21.00
-24.52
-28.62
-33.15
-37.77
-42.01
-45.23
-46.75
-46.04
-42.84
-37.37
-30.28
-22.45
-14.80
-8.03
-2.50
1.77
5.05
7.72
10.11
12.38
14.56
16.53
18.14
19.31
20.06
20.44
20.57
20.52
20.38
20.18
19.98
19.84
19.78
19.75
19.67
19.43
18.97
18.24
17.27
16.10
14.80
13.41
11.94
10.36
8.60
6.62
4.43
2.09
-0.27
-2.56
-4.72
-6.80
-8.92
-11.15
-13.52
-15.98
-18.38
-20.59
-22.53
-24.26
-25.98
-27.97
-30.52
-33.68
-37.11
-40.15
-41.88
-41.50
-38.57
-33.22
-26.10
-18.11
-10.20
-3.10
2.75
7.22
10.37
12.44
13.67
14.35
14.74
15.04
15.42
15.91
16.52
17.20
17.87
18.42
18.80
19.00
19.09
19.14
19.20
19.25
19.21
18.90
18.16
16.90
15.09
12.87
10.49
8.24
6.36
4.96
3.99
3.27
2.55
1.65
0.51
-0.77
-2.05
-3.19
-4.17
-5.08
-6.08
-7.31
-8.84
-10.66
-12.62
-14.54
-16.23
-17.59
-18.57
-19.27
-19.90
-20.77
-22.25
-24.57
-27.68
-31.14
-34.12
-35.60
-34.76
-31.27
-25.49
-18.30
-10.83
-4.09
1.34
5.26
7.80
9.22
9.80
9.80
9.51
9.23
9.21
9.64
10.53
11.74
13.02
14.08
14.71
14.86
14.63
14.25
13.93
13.84
13.98
14.25
14.51
14.58
14.36
13.80
12.97
11.99
11.02
10.17
9.45
8.78
8.00
7.05
5.93
4.79
3.79
3.04
2.47
1.92
1.14
-0.08
-1.85
-4.18
-6.95
-9.96
-12.99
-15.80
-18.24
-20.29
-22.04
-23.73
-25.72
-28.36
-31.80
-35.85
-39.86
-42.81
-43.65
-41.63
-36.62
-29.22
-20.49
-11.66
-3.70
2.86
7.94
11.72
14.48
16.47
17.84
18.69
19.12
19.20
19.00
18.58
17.98
17.25
16.45
15.69
15.09
14.78
14.84
15.22
15.78
16.27
16.46
16.19
15.40
14.19
12.72
11.16
9.66
8.23
6.83
5.31
3.55
1.51
-0.69
-2.84
-4.69
-6.08
-7.03
-7.66
-8.19
-8.79
-9.59
-10.65
-12.04
-13.79
-15.88
-18.23
-20.71
-23.21
-25.74
-28.50
-31.73
-35.57
-39.80
-43.76
-46.44
-46.86
-44.36
-39.00
-31.45
-22.86
-14.41
-7.01
-1.11
3.29
6.44
8.70
10.38
11.72
12.89
13.98
15.05
16.07
16.98
17.69
18.07
18.08
17.74
17.14
16.45
15.83
15.43
15.34
15.52
15.85
16.15
16.25
16.00
15.35
14.32
12.99
11.51
10.02
8.69
7.64
6.90
6.41
5.99
5.45
4.63
3.50
2.15
0.73
-0.63
-1.87
-3.06
-4.35
-5.86
-7.67
-9.74
-11.97
-14.14
-16.12
-17.78
-19.19
-20.50
-21.97
-23.87
-26.40
-29.67
-33.55
-37.63
-41.20
-43.39
-43.36
-40.62
-35.25
-27.89
-19.59
-11.45
-4.36
1.22
5.24
7.89
9.53
10.49
11.03
11.30
11.37
11.24
10.91
10.51
10.19
10.19
10.66
11.64
13.02
14.61
16.21
17.64
18.78
19.49
19.69
19.32
18.39
17.01
15.33
13.52
11.72
10.02
8.49
7.21
6.23
5.55
5.11
4.76
4.26
3.41
2.08
0.27
-1.93
-4.34
-6.82
-9.26
-11.63
-13.94
-16.29
-18.84
-21.81
-25.41
-29.59
-33.95
-37.64
-39.58
-38.82
-34.97
-28.37
-20.03
-11.30
-3.36
3.07
7.79
11.05
13.25
14.73
15.77
16.54
17.18
17.80
18.45
19.10
19.65
20.00
20.06
19.87
19.55
19.25
19.11
19.15
19.28
19.30
19.03
18.36
17.31
16.00
14.53
13.00
11.42
9.77
8.08
6.39
4.76
3.23
1.77
0.26
-1.41
-3.34
-5.56
-8.00
-10.53
-12.97
-15.18
-17.06
-18.63
-20.04
-21.59
-23.65
-26.50
-30.20
-34.38
-38.29
-40.89
-41.22
-38.74
-33.49
-26.21
-17.95
-9.80
-2.58
3.29
7.73
10.89
12.98
14.24
14.94
15.38
15.85
16.57
17.61
18.89
20.20
21.30
21.96
22.12
21.87
21.49
21.26
21.39
21.83
22.39
22.75
22.67
22.01
20.81
19.18
17.28
15.33
13.52
12.03
10.90
10.04
9.25
8.26
6.93
5.31
3.59
2.03
0.83
-0.01
-0.67
-1.45
-2.71
-4.73
-7.61
-11.15
-14.98
-18.58
-21.56
-23.79
-25.40
-26.72
-28.14
-30.00
-32.51
-35.67
-39.12
-42.19
-43.89
-43.22
-39.56
-32.95
-24.19
-14.60
-5.56
1.90
7.38
11.02
13.35
14.94
16.23
17.45
18.61
19.65
20.45
21.03
21.44
21.80
22.15
22.46
22.68
22.79
22.88
23.11
23.58
24.24
24.87
25.21
25.05
24.40
23.37
22.15
20.84
19.45
17.92
16.22
14.37
12.45
10.57
8.84
7.37
6.18
5.27
4.50
3.75
2.87
1.77
0.49
-0.92
-2.41
-3.97
-5.66
-7.55
-9.71
-12.10
-14.61
-17.08
-19.35
-21.31
-22.93
-24.29
-25.63
-27.24
-29.44
-32.48
-36.29
-40.41
-44.00
-45.99
-45.40
-41.77
-35.33
-26.97
-18.01
-9.70
-2.88
2.16
5.67
8.15
10.09
11.83
13.52
15.18
16.75
18.23
19.63
20.97
22.22
23.31
24.11
24.51
24.48
24.14
23.72
23.48
23.55
23.87
24.19
24.21
23.69
22.59
21.05
19.29
17.53
15.87
14.31
12.81
11.36
9.99
8.74
7.61
6.51
5.38
4.13
2.81
1.44
0.07
-1.34
-2.88
-4.65
-6.70
-8.96
-11.31
-13.54
-15.52
-17.24
-18.76
-20.21
-21.66
-23.14
-24.71
-26.48
-28.65
-31.39
-34.64
-37.97
-40.52
-41.25
-39.33
-34.53
-27.34
-18.81
-10.23
-2.67
3.28
7.58
10.48
12.41
13.73
14.73
15.61
16.48
17.46
18.54
19.69
20.82
21.80
22.55
22.99
23.10
22.90
22.47
21.91
21.35
20.90
20.55
20.16
19.53
18.45
16.88
14.96
12.99
11.31
10.05
9.16
8.36
7.39
6.14
4.68
3.19
1.84
0.68
-0.38
-1.52
-2.90
-4.58
-6.51
-8.58
-10.65
-12.59
-14.37
-16.02
-17.64
-19.44
-21.63
-24.37
-27.66
-31.33
-35.00
-38.04
-39.72
-39.33
-36.46
-31.16
-24.02
-16.04
-8.31
-1.70
3.37
6.97
9.40
11.06
12.22
13.03
13.59
14.01
14.39
14.86
15.48
16.16
16.75
17.05
16.95
16.46
15.77
15.12
14.72
14.64
14.81
14.97
14.85
14.23
13.07
11.54
9.95
8.64
7.86
7.61
7.69
7.77
7.53
6.84
5.74
4.42
3.13
2.04
1.18
0.52
-0.02
-0.52
-1.07
-1.82
-2.92
-4.47
-6.40
-8.53
-10.55
-12.24
-13.51
-14.56
-15.71
-17.42
-20.03
-23.65
-28.00
-32.33
-35.62
-36.80
-35.17
-30.65
-23.85
-15.92
-8.07
-1.30
3.89
7.44
9.62
10.84
11.53
12.03
12.60
13.35
14.26
15.23
16.09
16.67
16.83
16.52
15.74
14.60
13.37
12.32
11.70
11.61
11.92
12.29
12.37
11.90
10.88
9.51
8.03
6.73
5.73
5.09
4.75
4.60
4.51
4.35
4.02
3.49
2.78
1.97
1.17
0.42
-0.24
-0.78
-1.20
-1.52
-1.84
-2.30
-3.11
-4.42
-6.24
-8.40
-10.65
-12.71
-14.41
-15.74
-16.91
-18.19
-19.89
-22.25
-25.31
-28.91
-32.55
-35.49
-36.82
-35.82
-32.15
-26.12
-18.57
-10.70
-3.67
1.79
5.48
7.75
9.16
10.25
11.27
12.22
12.91
13.21
13.15
12.87
12.61
12.51
12.63
12.85
13.02
13.04
12.91
12.76
12.76
13.06
13.59
14.15
14.39
14.09
13.21
12.01
10.91
10.23
10.10
10.31
10.51
10.31
9.55
8.22
6.49
4.55
2.57
0.69
-1.03
-2.51
-3.80
-5.04
-6.43
-8.13
-10.16
-12.38
-14.46
-16.15
-17.28
-17.96
-18.51
-19.44
-21.23
-24.15
-28.14
-32.67
-36.82
-39.55
-39.94
-37.55
-32.58
-25.79
-18.24
-11.03
-4.92
-0.21
3.19
5.68
7.71
9.56
11.34
13.00
14.42
15.60
16.62
17.56
18.46
19.25
19.77
19.92
19.74
19.45
19.27
19.33
19.62
19.93
20.05
19.86
19.34
18.56
17.64
16.64
15.57
14.41
13.16
11.83
10.44
9.07
7.81
6.77
6.00
5.44
4.96
4.38
3.51
2.32
0.93
-0.46
-1.65
-2.60
-3.46
-4.51
-6.01
-8.03
-10.42
-12.89
-15.15
-17.08
-18.78
-20.47
-22.36
-24.64
-27.39
-30.61
-34.12
-37.52
-40.14
-41.20
-40.01
-36.32
-30.48
-23.37
-16.15
-9.84
-5.02
-1.71
0.53
2.25
3.91
5.69
7.50
9.14
10.43
11.31
11.88
12.30
12.72
13.22
13.80
14.44
15.07
15.67
16.21
16.63
16.89
16.93
16.71
16.21
15.49
14.61
13.67
12.78
12.02
11.42
11.02
10.81
10.83
11.06
11.48
11.95
12.30
12.36
11.99
11.21
10.13
8.89
7.62
6.37
5.13
3.84
2.45
0.87
-0.95
-3.01
-5.25
-7.47
-9.48
-11.14
-12.47
-13.67
-15.10
-17.09
-19.90
-23.50
-27.56
-31.44
-34.30
-35.28
-33.81
-29.78
-23.68
-16.44
-9.14
-2.71
2.37
6.02
8.50
10.19
11.41
12.38
13.24
14.03
14.77
15.46
16.08
16.57
16.87
16.94
16.77
16.42
15.97
15.58
15.36
15.33
15.44
15.56
15.56
15.34
14.92
14.38
13.80
13.26
12.78
12.33
11.86
11.33
10.68
9.84
8.76
7.48
6.03
4.51
3.01
1.60
0.31
-0.90
-2.02
-3.08
-4.05
-4.96
-5.87
-6.88
-8.08
-9.50
-11.11
-12.78
-14.36
-15.75
-16.97
-18.16
-19.57
-21.48
-24.09
-27.45
-31.27
-34.90
-37.43
-37.94
-35.78
-30.90
-23.93
-15.99
-8.33
-1.95
2.73
5.85
7.90
9.42
10.76
12.04
13.20
14.16
14.91
15.48
15.94
16.30
16.55
16.64
16.57
16.40
16.18
15.97
15.77
15.54
15.23
14.82
14.31
13.72
13.08
12.36
11.58
10.77
10.00
9.32
8.68
7.95
6.88
5.37
3.43
1.31
-0.64
-2.08
-2.88
-3.13
-3.17
-3.40
-4.15
-5.54
-7.45
-9.60
-11.67
-13.42
-14.82
-15.99
-17.24
-18.87
-21.11
-24.01
-27.36
-30.71
-33.41
-34.75
-34.16
-31.40
-26.71
-20.75
-14.45
-8.66
-3.99
-0.60
1.72
3.34
4.60
5.77
6.97
8.23
9.51
10.73
11.79
12.62
13.24
13.74
14.28
14.98
15.90
17.05
18.33
19.62
20.79
21.74
22.35
22.57
22.39
21.88
21.21
20.51
19.86
19.26
18.62
17.86
16.95
15.91
14.80
13.65
12.45
11.18
9.86
8.49
7.12
5.80
4.53
3.32
2.15
0.97
-0.27
-1.66
-3.27
-5.10
-7.06
-9.05
-10.93
-12.69
-14.44
-16.37
-18.77
-21.85
-25.72
-30.23
-34.88
-38.91
-41.41
-41.64
-39.32
-34.74
-28.71
-22.26
-16.33
-11.53
-8.05
-5.74
-4.29
-3.30
-2.44
-1.47
-0.29
1.06
2.45
3.70
4.72
5.48
6.08
6.65
7.29
8.05
8.88
9.72
10.48
11.08
11.44
11.50
11.21
10.62
9.80
8.90
8.05
7.32
6.74
6.20
5.56
4.72
3.65
2.42
1.19
0.16
-0.58
-1.01
-1.30
-1.67
-2.41
-3.69
-5.58
-7.91
-10.41
-12.80
-14.88
-16.58
-18.01
-19.35
-20.84
-22.67
-24.91
-27.43
-29.84
-31.49
-31.64
-29.68
-25.44
-19.27
-11.98
-4.60
1.96
7.16
10.90
13.39
14.99
16.00
16.65
17.07
17.33
17.50
17.65
17.81
17.99
18.12
18.12
17.89
17.43
16.80
16.21
15.86
15.92
16.37
17.09
17.81
18.28
18.30
17.82
16.85
15.47
13.79
11.96
10.11
8.40
6.93
5.73
4.75
3.84
2.84
1.69
0.41
-0.86
-2.03
-3.05
-4.09
-5.37
-7.10
-9.30
-11.77
-14.19
-16.29
-18.04
-19.61
-21.28
-23.33
-25.88
-28.86
-32.10
-35.30
-37.99
-39.58
-39.43
-37.07
-32.42
-25.93
-18.49
-11.16
-4.77
0.26
3.98
6.76
9.00
10.99
12.83
14.44
15.72
16.57
17.03
17.19
17.21
17.22
17.29
17.43
17.61
17.85
18.17
18.58
18.99
19.26
19.22
18.72
17.82
16.69
15.56
14.63
13.93
13.34
12.66
11.74
10.53
9.16
7.80
6.63
5.67
4.80
3.80
2.46
0.72
-1.32
-3.42
-5.30
-6.78
-7.82
-8.56
-9.24
-10.06
-11.18
-12.61
-14.25
-15.89
-17.35
-18.52
-19.46
-20.43
-21.77
-23.80
-26.73
-30.44
-34.50
-38.20
-40.63
-40.99
-38.77
-34.01
-27.25
-19.46
-11.70
-4.84
0.62
4.63
7.36
9.10
10.11
10.64
10.96
11.34
11.97
12.89
13.96
14.92
15.50
15.57
15.21
14.57
13.98
13.67
13.86
14.63
15.89
17.39
18.75
19.62
19.74
19.11
17.93
16.53
15.16
13.93
12.75
11.44
9.83
7.91
5.85
3.94
2.40
1.31
0.44
-0.59
-2.08
-4.15
-6.60
-9.04
-11.12
-12.65
-13.70
-14.51
-15.36
-16.52
-18.19
-20.52
-23.61
-27.30
-31.15
-34.40
-36.17
-35.75
-32.87
-27.81
-21.37
-14.51
-8.14
-2.86
1.10
3.80
5.49
6.49
7.11
7.55
7.96
8.41
8.90
9.51
10.26
11.21
12.33
13.56
14.78
15.85
16.71
17.30
17.69
17.97
18.20
18.40
18.50
18.38
17.94
17.15
16.11
14.91
13.66
12.41
11.14
9.79
8.36
6.87
5.40
3.99
2.63
1.27
-0.11
-1.48
-2.79
-4.03
-5.26
-6.63
-8.32
-10.39
-12.78
-15.30
-17.72
-19.85
-21.62
-23.14
-24.65
-26.47
-28.88
-31.96
-35.50
-38.86
-41.13
-41.32
-38.75
-33.30
-25.59
-16.84
-8.42
-1.45
3.57
6.79
8.83
10.41
12.01
13.77
15.57
17.22
18.58
19.66
20.51
21.17
21.63
21.86
21.86
21.74
21.65
21.71
21.98
22.40
22.85
23.17
23.23
22.97
22.42
21.65
20.79
19.97
19.25
18.66
18.11
17.55
16.94
16.32
15.78
15.46
15.42
15.61
15.88
16.03
15.91
15.43
14.62
13.49
12.02
10.05
7.31
3.63
-0.99
-6.29
-11.79
-17.01
-21.65
-25.69
-29.35
-32.97
-36.78
-40.76
-44.60
-47.68
-49.33
-48.95
-46.26
-41.36
-34.77
-27.25
-19.65
-12.69
-6.87
-2.41
0.81
3.07
4.80
6.41
8.21
10.33
12.68
15.03
17.08
18.59
19.42
19.64
19.41
18.93
18.40
17.97
17.74
17.77
18.03
18.40
18.69
18.67
18.18
17.22
15.95
14.65
13.55
12.80
12.36
12.09
11.78
11.24
10.41
9.25
7.79
6.07
4.16
2.19
0.27
-1.47
-2.95
-4.24
-5.51
-7.00
-8.93
-11.35
-14.12
-16.95
-19.50
-21.54
-23.04
-24.19
-25.29
-26.70
-28.70
-31.46
-34.96
-38.94
-42.88
-45.97
-47.35
-46.29
-42.46
-36.11
-28.02
-19.34
-11.16
-4.34
0.78
4.30
6.61
8.19
9.47
10.69
11.94
13.23
14.51
15.74
16.82
17.61
18.02
18.01
17.70
17.30
17.05
17.08
17.40
17.86
18.27
18.47
18.36
17.87
16.99
15.71
14.14
12.55
11.29
10.78
11.32
12.96
15.47
18.41
21.25
23.51
24.89
25.30
24.79
23.50
21.58
19.18
16.44
13.39
10.09
6.55
2.86
-0.86
-4.40
-7.62
-10.43
-12.88
-15.14
-17.48
-20.27
-23.92
-28.81
-35.06
-42.39
-49.95
-56.45
-60.51
-61.06
-57.78
-51.13
-42.22
-32.33
-22.56
-13.67
-5.99
0.40
5.56
9.59
12.70
15.18
17.32
19.41
21.61
23.95
26.31
28.52
30.35
31.67
32.41
32.62
32.43
31.96
31.31
30.46
29.41
28.10
26.60
25.03
23.54
22.31
21.32
20.48
19.57
18.36
16.66
14.39
11.62
8.55
5.48
2.66
0.22
-1.91
-4.00
-6.35
-9.13
-12.32
-15.75
-19.16
-22.41
-25.50
-28.57
-31.82
-35.46
-39.53
-43.83
-47.83
-50.71
-51.55
-49.67
-44.89
-37.73
-29.23
-20.64
-13.00
-6.85
-2.26
1.10
3.63
5.70
7.54
9.29
11.03
12.82
14.74
16.86
19.12
21.38
23.39
24.85
25.55
25.51
24.95
24.22
23.63
23.38
23.44
23.67
23.87
23.92
23.75
23.29
22.52
21.43
20.05
18.50
16.95
15.58
14.41
13.45
12.54
11.59
10.56
9.51
8.53
7.67
6.80
5.70
4.05
1.64
-1.52
-5.11
-8.70
-11.87
-14.41
-16.46
-18.33
-20.44
-23.10
-26.50
-30.62
-35.22
-39.77
-43.43
-45.21
-44.19
-39.93
-32.70
-23.50
-13.75
-4.92
2.06
6.87
9.81
11.55
12.77
13.91
15.15
16.40
17.51
18.38
19.02
19.52
19.93
20.23
20.36
20.23
19.86
19.34
18.81
18.39
18.02
17.52
16.70
15.42
13.76
11.93
10.22
8.89
8.05
7.67
7.57
7.47
7.10
6.25
4.89
3.19
1.46
0.01
-0.94
-1.41
-1.57
-1.70
-2.05
-2.76
-3.90
-5.46
-7.40
-9.57
-11.78
-13.83
-15.55
-16.94
-18.13
-19.46
-21.30
-23.95
-27.46
-31.48
-35.22
-37.63
-37.71
-34.86
-29.18
-21.45
-12.88
-4.69
2.17
7.28
10.69
12.74
13.87
14.50
14.96
15.44
16.02
16.68
17.37
18.05
18.67
19.25
19.77
20.19
20.54
20.83
21.11
21.40
21.64
21.74
21.57
21.07
20.31
19.40
18.46
17.58
16.76
15.94
15.02
13.88
12.44
10.60
8.37
5.79
2.93
-0.03
-2.95
-5.71
-8.24
-10.54
-12.69
-14.79
-17.05
-19.71
-22.96
-26.83
-30.94
-34.59
-36.83
-36.80
-34.03
-28.71
-21.59
-13.80
-6.42
-0.24
4.45
7.74
9.93
11.37
12.30
12.90
13.28
13.58
13.89
14.27
14.66
14.93
14.97
14.71
14.23
13.66
13.14
12.73
12.41
12.09
11.63
10.94
9.98
8.77
7.42
5.99
4.56
3.18
1.87
0.63
-0.52
-1.55
-2.44
-3.17
-3.76
-4.29
-4.90
-5.74
-6.89
-8.35
-10.05
-11.84
-13.59
-15.22
-16.80
-18.48
-20.52
-23.12
-26.36
-30.07
-33.76
-36.69
-38.01
-37.02
-33.38
-27.29
-19.48
-11.01
-2.97
3.82
8.95
12.42
14.54
15.70
16.27
16.51
16.59
16.61
16.62
16.62
16.60
16.47
16.14
15.54
14.69
13.69
12.73
12.01
11.68
11.77
12.18
12.67
12.99
12.91
12.31
11.21
9.74
8.12
6.60
5.35
4.43
3.76
3.18
2.46
1.48
0.21
-1.15
-2.37
-3.23
-3.70
-3.95
-4.24
-4.86
-5.90
-7.31
-8.91
-10.57
-12.23
-13.92
-15.74
-17.82
-20.28
-23.23
-26.75
-30.72
-34.73
-38.00
-39.58
-38.69
-35.05
-29.06
-21.71
-14.19
-7.52
-2.25
1.59
4.31
6.30
7.87
9.14
10.18
11.03
11.78
12.53
13.35
14.21
14.99
15.58
15.89
15.93
15.78
15.57
15.43
15.46
15.65
15.90
16.01
15.72
14.83
13.29
11.24
8.97
6.86
5.18
4.05
3.40
3.05
2.79
2.48
2.09
1.62
1.09
0.51
-0.14
-0.89
-1.81
-2.96
-4.40
-6.18
-8.33
-10.76
-13.33
-15.82
-17.98
-19.64
-20.79
-21.61
-22.47
-23.71
-25.55
-27.85
-30.11
-31.54
-31.35
-28.99
-24.43
-18.16
-11.04
-4.05
2.04
6.79
10.16
12.35
13.63
14.28
14.46
14.35
14.13
14.03
14.20
14.67
15.32
15.95
16.35
16.43
16.24
15.93
15.68
15.57
15.63
15.77
15.79
15.49
14.69
13.41
11.79
10.13
8.74
7.77
7.15
6.60
5.80
4.55
2.95
1.26
-0.16
-1.09
-1.57
-1.87
-2.36
-3.33
-4.88
-6.90
-9.14
-11.37
-13.44
-15.31
-17.04
-18.70
-20.40
-22.25
-24.39
-26.91
-29.72
-32.45
-34.48
-34.98
-33.29
-29.13
-22.80
-15.16
-7.31
-0.33
5.05
8.58
10.49
11.24
11.40
11.42
11.55
11.84
12.25
12.71
13.20
13.74
14.34
14.96
15.49
15.77
15.73
15.37
14.81
14.16
13.49
12.80
12.01
11.08
9.97
8.71
7.32
5.83
4.31
2.84
1.55
0.50
-0.31
-1.03
-1.85
-2.95
-4.43
-6.23
-8.28
-10.47
-12.72
-14.97
-17.12
-19.07
-20.76
-22.25
-23.73
-25.55
-27.99
-31.13
-34.65
-37.87
-39.84
-39.68
-36.92
-31.66
-24.64
-16.90
-9.47
-3.09
1.98
5.81
8.65
10.68
12.04
12.82
13.16
13.28
13.45
13.84
14.48
15.25
15.97
16.46
16.67
16.66
16.55
16.45
16.41
16.41
16.39
16.27
16.02
15.57
14.88
13.94
12.77
11.46
10.12
8.85
7.67
6.52
5.30
3.94
2.50
1.11
-0.06
-0.94
-1.57
-2.18
-3.04
-4.38
-6.30
-8.69
-11.36
-14.04
-16.51
-18.65
-20.54
-22.36
-24.39
-26.91
-30.06
-33.77
-37.59
-40.79
-42.42
-41.67
-38.10
-31.86
-23.73
-14.87
-6.49
0.51
5.70
9.14
11.21
12.38
13.08
13.59
14.05
14.49
14.93
15.33
15.71
16.08
16.49
16.94
17.41
17.87
18.31
18.75
19.18
19.54
19.70
19.47
18.71
17.41
15.68
13.79
11.99
10.46
9.20
8.10
6.94
5.55
3.81
1.68
-0.71
-3.17
-5.42
-7.23
-8.58
-9.56
-10.48
-11.61
-13.15
-15.10
-17.29
-19.44
-21.34
-22.89
-24.10
-25.14
-26.25
-27.75
-29.99
-33.20
-37.38
-42.15
-46.68
-49.91
-50.79
-48.65
-43.51
-36.01
-27.29
-18.53
-10.70
-4.37
0.35
3.64
5.88
7.44
8.68
9.88
11.15
12.51
13.87
15.10
16.18
17.16
18.15
19.22
20.38
21.53
22.52
23.24
23.61
23.63
23.26
22.47
21.18
19.37
17.16
14.79
12.57
10.74
9.38
8.38
7.51
6.51
5.28
3.84
2.31
0.81
-0.65
-2.21
-4.03
-6.17
-8.55
-10.94
-13.11
-14.96
-16.59
-18.32
-20.54
-23.60
-27.64
-32.53
-37.71
-42.30
-45.26
-45.67
-43.08
-37.68
-30.34
-22.28
-14.72
-8.46
-3.72
-0.22
2.58
5.21
7.95
10.84
13.73
16.45
18.87
20.93
22.65
24.06
25.19
26.05
26.70
27.23
27.79
28.49
29.35
30.18
30.74
30.74
30.04
28.68
26.91
25.03
23.29
21.76
20.36
18.89
17.23
15.29
13.11
10.76
8.33
5.91
3.55
1.35
-0.68
-2.52
-4.24
-5.97
-7.86
-9.98
-12.34
-14.84
-17.38
-19.85
-22.26
-24.71
-27.38
-30.54
-34.44
-39.20
-44.61
-50.01
-54.36
-56.45
-55.34
-50.69
-42.95
-33.27
-23.07
-13.63
-5.71
0.48
5.21
8.91
11.98
14.69
17.17
19.54
21.84
24.13
26.41
28.60
30.61
32.35
33.79
34.96
35.94
36.77
37.47
37.99
38.25
38.20
37.82
37.14
36.14
34.84
33.26
31.43
29.43
27.41
25.51
23.80
22.23
20.66
18.88
16.77
14.36
11.84
9.45
7.37
5.63
4.10
2.52
0.67
-1.62
-4.38
-7.56
-11.04
-14.61
-18.06
-21.14
-23.75
-25.95
-28.05
-30.59
-34.01
-38.54
-43.86
-49.11
-53.01
-54.27
-52.05
-46.26
-37.69
-27.69
-17.72
-8.89
-1.69
3.99
8.62
12.77
16.89
21.19
25.65
30.04
34.00
37.15
39.20
40.13
40.15
39.68
39.08
38.60
38.29
38.07
37.86
37.64
37.38
37.04
36.48
35.52
34.05
32.10
29.79
27.32
24.89
22.63
20.68
19.10
17.88
16.90
15.94
14.75
13.18
11.25
9.14
7.11
5.34
3.88
2.60
1.26
-0.42
-2.66
-5.53
-8.98
-12.81
-16.72
-20.44
-23.78
-26.70
-29.33
-31.96
-34.96
-38.60
-42.92
-47.53
-51.61
-54.08
-53.84
-50.24
-43.32
-33.87
-23.20
-12.72
-3.58
3.60
8.76
12.24
14.59
16.37
17.97
19.61
21.29
22.91
24.34
25.47
26.33
27.00
27.57
28.11
28.67
29.27
29.91
30.55
31.06
31.24
30.88
29.83
28.14
26.00
23.67
21.36
19.16
17.03
14.86
12.58
10.22
7.85
5.60
3.53
1.61
-0.34
-2.50
-5.02
-7.97
-11.25
-14.62
-17.83
-20.69
-23.13
-25.31
-27.56
-30.25
-33.74
-38.12
-43.06
-47.84
-51.36
-52.53
-50.59
-45.43
-37.64
-28.35
-18.82
-10.10
-2.81
2.87
7.08
10.11
12.27
13.89
15.23
16.51
17.82
19.15
20.41
21.50
22.34
22.93
23.29
23.47
23.55
23.61
23.71
23.84
23.90
23.70
23.05
21.87
20.19
18.20
16.10
14.03
12.06
10.19
8.34
6.48
4.58
2.67
0.85
-0.75
-1.97
-2.80
-3.32
-3.75
-4.36
-5.33
-6.69
-8.31
-9.98
-11.53
-12.97
-14.48
-16.38
-19.04
-22.72
-27.34
-32.38
-36.90
-39.76
-39.90
-36.80
-30.68
-22.40
-13.27
-4.59
2.71
8.17
11.83
14.03
15.27
16.04
16.74
17.61
18.72
19.97
21.14
22.06
22.62
22.85
22.88
22.87
22.91
23.04
23.28
23.62
24.10
24.72
25.42
26.07
26.47
26.43
25.85
24.79
23.39
21.82
20.19
18.52
16.74
14.75
12.50
10.05
7.52
5.06
2.81
0.86
-0.78
-2.15
-3.32
-4.44
-5.67
-7.17
-9.02
-11.21
-13.60
-15.98
-18.18
-20.10
-21.78
-23.43
-25.34
-27.79
-30.94
-34.71
-38.65
-41.98
-43.79
-43.23
-39.91
-33.96
-26.17
-17.63
-9.50
-2.63
2.62
6.34
8.93
10.86
12.53
14.20
15.95
17.74
19.50
21.12
22.48
23.49
24.05
24.13
23.78
23.14
22.37
21.66
21.09
20.63
20.17
19.49
18.44
16.98
15.22
13.37
11.67
10.24
9.03
7.87
6.58
5.05
3.34
1.58
-0.05
-1.47
-2.68
-3.77
-4.79
-5.76
-6.66
-7.49
-8.35
-9.38
-10.76
-12.57
-14.72
-17.02
-19.21
-21.12
-22.70
-24.00
-25.18
-26.45
-28.05
-30.18
-32.94
-36.17
-39.35
-41.65
-42.17
-40.23
-35.67
-29.01
-21.23
-13.49
-6.76
-1.49
2.29
4.86
6.57
7.69
8.41
8.90
9.36
10.04
11.07
12.44
13.87
15.03
15.59
15.45
14.80
13.99
13.45
13.43
13.99
14.88
15.75
16.24
16.16
15.51
14.42
13.11
11.78
10.60
9.66
8.96
8.41
7.86
7.13
6.09
4.71
3.08
1.40
-0.18
-1.54
-2.71
-3.76
-4.82
-5.96
-7.21
-8.61
-10.11
-11.65
-13.15
-14.52
-15.81
-17.17
-18.94
-21.46
-24.96
-29.32
-33.94
-37.88
-40.04
-39.59
-36.27
-30.48
-23.19
-15.56
-8.60
-2.89
1.46
4.71
7.23
9.31
11.09
12.50
13.43
13.76
13.46
12.59
11.34
10.00
8.89
8.31
8.47
9.37
10.91
12.85
14.91
16.81
18.29
19.12
19.09
18.11
16.26
13.81
11.19
8.83
7.03
5.87
5.21
4.80
4.42
3.96
3.44
2.89
2.38
1.86
1.24
0.40
-0.78
-2.37
-4.42
-6.89
-9.65
-12.48
-15.11
-17.23
-18.68
-19.43
-19.64
-19.61
-19.66
-20.07
-21.05
-22.73
-25.13
-28.01
-30.86
-32.90
-33.34
-31.63
-27.76
-22.27
-16.11
-10.30
-5.59
-2.27
-0.21
1.03
1.97
3.03
4.39
6.04
7.75
9.22
10.24
10.75
10.91
10.94
11.06
11.33
11.71
12.12
12.48
12.79
13.07
13.31
13.40
13.22
12.63
11.58
10.17
8.63
7.22
6.19
5.56
5.13
4.60
3.69
2.27
0.51
-1.25
-2.68
-3.58
-4.00
-4.19
-4.45
-5.01
-5.95
-7.21
-8.65
-10.12
-11.56
-12.96
-14.46
-16.27
-18.66
-21.81
-25.67
-29.90
-33.84
-36.66
-37.56
-36.05
-32.07
-26.13
-19.07
-11.89
-5.41
-0.17
3.70
6.29
7.89
8.80
9.31
9.71
10.22
10.97
11.94
12.96
13.86
14.50
14.90
15.14
15.32
15.51
15.65
15.70
15.65
15.58
15.55
15.56
15.53
15.31
14.80
14.00
13.03
12.08
11.34
10.81
10.39
9.90
9.18
8.15
6.89
5.55
4.26
3.07
1.95
0.85
-0.25
-1.28
-2.15
-2.90
-3.63
-4.59
-5.96
-7.76
-9.86
-11.97
-13.88
-15.44
-16.75
-17.98
-19.37
-21.15
-23.48
-26.42
-29.80
-33.16
-35.80
-36.89
-35.82
-32.41
-27.06
-20.62
-14.10
-8.35
-3.81
-0.50
1.87
3.61
4.99
6.08
6.88
7.43
7.85
8.31
8.96
9.81
10.70
11.38
11.62
11.37
10.78
10.15
9.73
9.65
9.80
9.95
9.84
9.29
8.24
6.75
5.01
3.21
1.56
0.14
-1.05
-2.12
-3.21
-4.42
-5.84
-7.45
-9.15
-10.80
-12.26
-13.47
-14.51
-15.65
-17.24
-19.62
-22.89
-26.77
-30.54
-33.22
-33.90
-32.00
-27.58
-21.25
-14.02
-6.96
-0.93
3.64
6.73
8.66
9.86
10.73
11.54
12.37
13.23
14.03
14.69
15.13
15.27
15.17
14.96
14.86
15.06
15.73
16.83
18.17
19.44
20.32
20.55
20.05
18.88
17.23
15.32
13.33
11.42
9.69
8.22
7.03
6.09
5.29
4.47
3.51
2.35
1.02
-0.44
-2.03
-3.83
-5.98
-8.57
-11.54
-14.64
-17.52
-19.89
-21.70
-23.12
-24.57
-26.51
-29.27
-32.94
-37.19
-41.27
-44.19
-44.99
-43.05
-38.37
-31.60
-23.84
-16.31
-9.92
-5.11
-1.79
0.43
2.12
3.74
5.63
7.93
10.58
13.37
16.02
18.23
19.88
20.92
21.47
21.62
21.47
21.12
20.66
20.31
20.25
20.64
21.44
22.38
23.12
23.32
22.84
21.81
20.49
19.22
18.17
17.36
16.61
15.74
14.62
13.27
11.83
10.44
9.15
7.89
6.53
4.96
3.21
1.44
-0.11
-1.26
-2.01
-2.61
-3.37
-4.65
-6.58
-9.09
-11.87
-14.53
-16.76
-18.46
-19.80
-21.07
-22.65
-24.86
-27.92
-31.87
-36.51
-41.32
-45.44
-47.86
-47.70
-44.53
-38.67
-31.04
-22.91
-15.45
-9.40
-4.94
-1.76
0.67
2.84
5.08
7.52
10.05
12.49
14.67
16.50
17.99
19.21
20.19
20.96
21.57
22.05
22.52
23.02
23.54
23.97
24.14
23.94
23.36
22.56
21.65
20.82
20.13
19.62
19.26
18.99
18.69
18.21
17.43
16.33
15.03
13.73
12.63
11.76
10.98
10.03
8.72
6.95
4.85
2.64
0.56
-1.28
-2.93
-4.55
-6.34
-8.42
-10.80
-13.35
-15.88
-18.20
-20.21
-21.96
-23.61
-25.42
-27.66
-30.55
-34.11
-38.09
-41.91
-44.75
-45.76
-44.32
-40.27
-34.05
-26.53
-18.74
-11.59
-5.59
-0.80
3.09
6.57
10.09
13.85
17.80
21.66
25.06
27.69
29.44
30.38
30.70
30.62
30.33
29.96
29.58
29.30
29.16
29.20
29.37
29.52
29.45
28.97
27.98
26.48
24.56
22.44
20.31
18.39
16.80
15.57
14.69
14.08
13.65
13.29
12.88
12.30
11.47
10.37
9.03
7.56
6.05
4.57
3.10
1.55
-0.19
-2.18
-4.45
-6.92
-9.46
-11.90
-14.14
-16.13
-17.98
-19.87
-22.09
-24.86
-28.27
-32.15
-35.96
-38.89
-40.02
-38.67
-34.59
-28.20
-20.40
-12.31
-4.90
1.26
6.10
9.85
12.87
15.41
17.62
19.56
21.26
22.77
24.14
25.32
26.20
26.68
26.70
26.30
25.58
24.68
23.73
22.80
21.96
21.20
20.48
19.70
18.78
17.68
16.43
15.15
14.00
13.10
12.49
12.12
11.89
11.66
11.31
10.77
10.01
9.06
8.00
6.91
5.90
5.01
4.22
3.38
2.31
0.83
-1.14
-3.50
-6.02
-8.39
-10.40
-12.02
-13.43
-14.99
-17.10
-20.04
-23.80
-28.02
-31.98
-34.79
-35.60
-33.91
-29.77
-23.76
-16.84
-10.04
-4.11
0.58
4.04
6.50
8.18
9.26
9.82
9.99
9.98
10.05
10.43
11.19
12.18
13.10
13.64
13.68
13.30
12.85
12.66
12.95
13.67
14.56
15.25
15.50
15.22
14.53
13.59
12.58
11.55
10.50
9.42
8.33
7.29
6.37
5.59
4.89
4.21
3.49
2.65
1.66
0.40
-1.24
-3.34
-5.86
-8.69
-11.59
-14.33
-16.73
-18.76
-20.55
-22.37
-24.54
-27.28
-30.54
-33.91
-36.61
-37.73
-36.50
-32.68
-26.60
-19.15
-11.42
-4.39
1.34
5.57
8.50
10.47
11.82
12.84
13.66
14.32
14.81
15.09
15.12
14.87
14.28
13.33
12.05
10.54
8.97
7.58
6.54
5.96
5.75
5.70
5.45
4.71
3.37
1.52
-0.51
-2.33
-3.62
-4.28
-4.45
-4.41
-4.41
-4.56
-4.86
-5.20
-5.56
-5.97
-6.52
-7.27
-8.22
-9.31
-10.46
-11.60
-12.71
-13.79
-14.89
-16.03
-17.23
-18.57
-20.15
-22.11
-24.57
-27.44
-30.37
-32.74
-33.78
-32.80
-29.43
-23.89
-16.88
-9.45
-2.62
2.84
6.64
8.94
10.16
10.84
11.43
12.20
13.23
14.52
15.96
17.43
18.76
19.68
19.93
19.30
17.85
15.91
14.04
12.79
12.50
13.19
14.46
15.80
16.71
16.89
16.32
15.23
13.93
12.76
11.90
11.34
10.89
10.27
9.24
7.75
5.97
4.17
2.65
1.50
0.66
-0.08
-0.90
-1.91
-3.16
-4.65
-6.39
-8.39
-10.53
-12.61
-14.42
-15.78
-16.75
-17.58
-18.66
-20.34
-22.78
-25.80
-28.86
-31.20
-31.99
-30.66
-27.02
-21.48
-14.88
-8.24
-2.50
1.80
4.59
6.16
6.93
7.26
7.42
7.56
7.81
8.29
9.09
10.23
11.60
12.94
14.03
14.68
14.90
14.81
14.63
14.56
14.70
14.98
15.23
15.24
14.83
13.92
12.59
10.96
9.25
7.63
6.22
5.05
4.04
3.08
2.05
0.89
-0.36
-1.62
-2.72
-3.55
-4.08
-4.35
-4.53
-4.85
-5.51
-6.66
-8.28
-10.16
-12.02
-13.61
-14.81
-15.73
-16.60
-17.75
-19.40
-21.67
-24.41
-27.29
-29.73
-31.03
-30.55
-27.93
-23.22
-16.99
-10.14
-3.65
1.73
5.64
8.14
9.54
10.22
10.50
10.57
10.54
10.48
10.43
10.44
10.49
10.56
10.60
10.62
10.71
11.02
11.63
12.50
13.41
14.03
14.11
13.55
12.45
11.05
9.59
8.21
7.00
5.93
5.03
4.26
3.57
2.87
2.07
1.10
-0.02
-1.14
-2.15
-2.99
-3.69
-4.38
-5.16
-6.10
-7.17
-8.26
-9.29
-10.25
-11.22
-12.44
-14.15
-16.57
-19.73
-23.37
-26.94
-29.69
-30.86
-29.93
-26.83
-21.95
-16.07
-10.12
-4.93
-0.98
1.64
3.18
4.07
4.70
5.35
6.15
7.08
8.08
9.10
10.10
11.07
11.99
12.77
13.34
13.64
13.69
13.55
13.33
13.10
12.91
12.71
12.40
11.83
10.89
9.50
7.71
5.69
3.69
1.97
0.74
0.02
-0.29
-0.45
-0.80
-1.60
-3.00
-4.95
-7.22
-9.47
-11.38
-12.80
-13.84
-14.81
-16.12
-18.13
-20.99
-24.51
-28.20
-31.31
-33.01
-32.68
-30.08
-25.46
-19.49
-13.06
-6.99
-1.87
2.09
4.93
6.89
8.30
9.46
10.62
11.89
13.26
14.53
15.52
16.06
16.12
15.82
15.32
14.78
14.32
14.03
13.97
14.18
14.61
15.09
15.39
15.26
14.57
13.33
11.74
10.07
8.58
7.42
6.59
5.93
5.23
4.33
3.15
1.79
0.45
-0.69
-1.47
-1.94
-2.31
-2.81
-3.70
-5.09
-6.95
-9.12
-11.37
-13.49
-15.34
-16.88
-18.23
-19.63
-21.34
-23.57
-26.31
-29.25
-31.77
-33.17
-32.80
-30.38
-26.12
-20.63
-14.74
-9.24
-4.62
-1.08
1.47
3.28
4.64
5.81
7.01
8.33
9.75
11.13
12.20
12.83
12.96
12.79
12.56
12.54
12.81
13.35
14.08
14.90
15.75
16.59
17.34
17.87
18.02
17.74
17.11
16.34
15.68
15.28
15.10
14.95
14.52
13.59
12.16
10.43
8.75
7.49
6.78
6.50
6.33
5.90
4.93
3.39
1.44
-0.67
-2.67
-4.44
-5.97
-7.37
-8.77
-10.25
-11.86
-13.51
-15.11
-16.54
-17.78
-18.93
-20.16
-21.72
-23.83
-26.57
-29.86
-33.35
-36.50
-38.58
-38.92
-37.06
-32.94
-26.96
-19.90
-12.64
-5.98
-0.45
3.75
6.68
8.56
9.67
10.28
10.56
10.58
10.39
10.01
9.57
9.30
9.47
10.25
11.63
13.40
15.20
16.68
17.63
17.98
17.83
17.28
16.45
15.38
14.11
12.72
11.33
10.08
9.14
8.60
8.39
8.36
8.27
7.97
7.49
7.02
6.83
7.08
7.70
8.39
8.75
8.49
7.53
5.99
4.08
2.00
-0.17
-2.48
-4.96
-7.59
-10.17
-12.49
-14.29
-15.48
-16.12
-16.48
-16.93
-17.81
-19.36
-21.66
-24.53
-27.63
-30.40
-32.22
-32.47
-30.74
-26.99
-21.60
-15.28
-8.87
-3.11
1.55
5.03
7.49
9.22
10.54
11.63
12.65
13.67
14.72
15.82
16.95
18.01
18.88
19.44
19.59
19.34
18.83
18.26
17.80
17.59
17.63
17.79
17.89
17.75
17.28
16.48
15.46
14.38
13.36
12.45
11.59
10.67
9.58
8.27
6.78
5.17
3.52
1.85
0.26
-1.19
-2.38
-3.28
-3.95
-4.60
-5.53
-7.00
-9.05
-11.52
-14.10
-16.44
-18.37
-19.87
-21.09
-22.20
-23.43
-24.98
-27.07
-29.83
-33.10
-36.39
-38.83
-39.43
-37.47
-32.81
-26.03
-18.25
-10.71
-4.37
0.36
3.60
5.82
7.52
9.04
10.51
11.92
13.27
14.58
15.90
17.19
18.34
19.13
19.38
19.08
18.43
17.74
17.34
17.34
17.68
18.12
18.42
18.45
18.20
17.74
17.20
16.65
16.13
15.67
15.22
14.73
14.15
13.45
12.68
11.98
11.50
11.27
11.19
10.99
10.40
9.20
7.43
5.28
3.03
0.92
-0.96
-2.70
-4.50
-6.50
-8.76
-11.15
-13.45
-15.45
-17.04
-18.25
-19.27
-20.39
-21.90
-24.09
-27.12
-30.86
-34.84
-38.24
-40.09
-39.58
-36.43
-31.01
-24.21
-17.18
-10.89
-5.87
-2.20
0.39
2.24
3.68
4.96
6.24
7.65
9.21
10.84
12.42
13.77
14.81
15.57
16.14
16.67
17.27
17.99
18.79
19.62
20.41
21.09
21.61
21.86
21.72
21.13
20.11
18.78
17.35
15.98
14.72
13.52
12.21
10.67
8.91
7.04
5.20
3.49
1.95
0.57
-0.64
-1.65
-2.43
-3.06
-3.73
-4.70
-6.12
-7.94
-9.96
-11.92
-13.66
-15.26
-16.92
-18.91
-21.38
-24.41
-27.99
-32.01
-36.24
-40.24
-43.23
-44.42
-43.09
-39.08
-32.84
-25.35
-17.82
-11.27
-6.24
-2.80
-0.62
0.65
1.34
1.65
1.76
1.92
2.44
3.59
5.41
7.76
10.27
12.53
14.32
15.64
16.67
17.63
18.67
19.77
20.82
21.71
22.42
23.04
23.69
24.46
25.43
26.55
27.71
28.78
29.56
29.94
29.87
29.41
28.66
27.74
26.70
25.53
24.17
22.58
20.75
18.75
16.69
14.73
13.01
11.56
10.38
9.37
8.40
7.40
6.33
5.20
4.04
2.83
1.51
-0.02
-1.89
-4.17
-6.84
-9.78
-12.83
-15.82
-18.58
-21.06
-23.24
-25.20
-27.07
-29.07
-31.48
-34.50
-38.15
-42.08
-45.53
-47.54
-47.20
-44.07
-38.30
-30.66
-22.22
-14.08
-6.99
-1.33
2.97
6.15
8.62
10.71
12.69
14.67
16.65
18.59
20.41
22.01
23.29
24.15
24.52
24.43
24.02
23.55
23.26
23.30
23.63
24.05
24.28
24.07
23.35
22.15
20.67
19.08
17.56
16.16
14.84
13.53
12.17
10.78
9.42
8.19
7.10
6.10
5.10
4.03
2.90
1.83
0.90
0.18
-0.44
-1.13
-2.07
-3.39
-5.16
-7.33
-9.84
-12.56
-15.38
-18.20
-20.94
-23.58
-26.23
-29.11
-32.49
-36.59
-41.35
-46.33
-50.67
-53.27
-53.15
-49.83
-43.57
-35.25
-26.14
-17.43
-9.95
-4.11
0.10
2.84
4.34
4.84
4.63
4.04
3.45
3.17
3.40
4.21
5.54
7.24
9.19
11.24
13.29
15.23
16.97
18.42
19.51
20.22
20.56
20.59
20.38
20.00
19.54
19.07
18.63
18.22
17.77
17.12
16.07
14.52
12.48
10.13
7.76
5.63
3.95
2.74
1.86
1.03
-0.05
-1.65
-3.88
-6.66
-9.69
-12.62
-15.09
-16.95
-18.21
-19.12
-19.97
-21.05
-22.57
-24.64
-27.22
-30.07
-32.77
-34.66
-35.13
-33.73
-30.47
-25.85
-20.66
-15.68
-11.35
-7.71
-4.42
-1.08
2.60
6.66
10.89
15.04
18.86
22.17
24.89
26.97
28.38
29.08
29.10
28.51
27.44
26.16
24.95
24.07
23.67
23.71
24.03
24.36
24.54
24.49
24.29
24.06
23.88
23.71
23.42
22.87
21.95
20.67
19.19
17.76
16.63
15.94
15.68
15.65
15.53
15.00
13.84
11.98
9.56
6.81
3.97
1.22
-1.44
-4.06
-6.80
-9.72
-12.76
-15.73
-18.37
-20.45
-21.96
-23.10
-24.30
-26.05
-28.79
-32.72
-37.70
-43.17
-48.22
-51.83
-53.08
-51.49
-47.15
-40.69
-33.05
-25.23
-18.02
-11.87
-6.88
-2.96
0.11
2.57
4.64
6.50
8.28
10.01
11.67
13.23
14.67
15.98
17.13
18.09
18.77
19.19
19.40
19.47
19.48
19.44
19.32
19.07
18.71
18.23
17.66
16.98
16.06
14.82
13.22
11.38
9.53
7.98
6.97
6.62
6.90
7.66
8.73
9.92
11.02
11.78
12.00
11.50
10.24
8.34
6.07
3.71
1.46
-0.68
-2.83
-5.17
-7.83
-10.76
-13.76
-16.53
-18.82
-20.51
-21.60
-22.21
-22.53
-22.85
-23.51
-24.86
-27.17
-30.40
-34.10
-37.42
-39.25
-38.71
-35.34
-29.36
-21.63
-13.29
-5.46
1.12
6.17
9.84
12.49
14.56
16.35
18.02
19.59
20.99
22.14
23.02
23.64
24.04
24.27
24.35
24.30
24.17
24.03
23.98
24.03
24.09
23.94
23.29
22.00
20.12
18.00
16.07
14.68
13.99
13.82
13.82
13.68
13.18
12.31
11.15
9.81
8.39
6.91
5.35
3.63
1.62
-0.80
-3.70
-6.94
-10.20
-13.07
-15.15
-16.28
-16.56
-16.35
-16.10
-16.28
-17.28
-19.33
-22.49
-26.51
-30.86
-34.74
-37.18
-37.43
-35.09
-30.38
-24.06
-17.16
-10.68
-5.32
-1.31
1.53
3.60
5.35
7.12
9.09
11.29
13.63
15.91
17.93
19.55
20.70
21.41
21.79
21.99
22.11
22.23
22.39
22.57
22.71
22.65
22.28
21.45
20.14
18.45
16.62
14.90
13.48
12.33
11.32
10.25
9.06
7.81
6.69
5.84
5.30
4.93
4.57
4.07
3.41
2.64
1.84
1.07
0.32
-0.49
-1.44
-2.64
-4.18
-6.06
-8.24
-10.60
-12.99
-15.28
-17.43
-19.54
-21.75
-24.24
-27.20
-30.72
-34.74
-38.97
-42.79
-45.35
-45.77
-43.46
-38.44
-31.36
-23.34
-15.61
-9.10
-4.19
-0.73
1.77
3.80
5.72
7.66
9.60
11.54
13.45
15.27
16.92
18.24
19.07
19.36
19.25
19.06
19.12
19.62
20.49
21.41
21.95
21.79
20.83
19.26
17.38
15.50
13.82
12.39
11.19
10.13
9.18
8.31
7.50
6.70
5.88
5.02
4.11
3.14
2.09
0.94
-0.34
-1.71
-3.13
-4.50
-5.77
-6.96
-8.12
-9.34
-10.68
-12.21
-13.91
-15.73
-17.61
-19.44
-21.17
-22.77
-24.39
-26.22
-28.56
-31.53
-34.99
-38.37
-40.83
-41.46
-39.63
-35.26
-28.90
-21.57
-14.39
-8.25
-3.57
-0.28
1.99
3.71
5.22
6.67
8.06
9.35
10.55
11.70
12.89
14.11
15.31
16.36
17.20
17.81
18.30
18.79
19.37
20.03
20.64
20.98
20.84
20.11
18.82
17.16
15.42
13.87
12.67
11.81
11.10
10.34
9.35
8.06
6.61
5.19
4.01
3.14
2.51
1.96
1.31
0.49
-0.47
-1.46
-2.41
-3.33
-4.26
-5.33
-6.55
-7.88
-9.16
-10.31
-11.32
-12.34
-13.58
-15.29
-17.65
-20.74
-24.55
-28.86
-33.21
-36.90
-39.10
-39.08
-36.50
-31.60
-25.14
-18.15
-11.61
-6.17
-2.02
0.93
2.99
4.51
5.76
6.98
8.30
9.77
11.34
12.85
14.15
15.13
15.81
16.30
16.78
17.39
18.20
19.19
20.24
21.20
21.87
22.05
21.61
20.46
18.70
16.52
14.19
11.98
10.08
8.51
7.18
5.93
4.68
3.45
2.37
1.59
1.21
1.18
1.33
1.41
1.20
0.59
-0.42
-1.70
-3.08
-4.41
-5.57
-6.56
-7.44
-8.36
-9.44
-10.76
-12.30
-13.95
-15.58
-17.11
-18.56
-20.04
-21.74
-23.91
-26.68
-30.03
-33.64
-36.89
-39.01
-39.22
-37.09
-32.62
-26.34
-19.10
-11.85
-5.34
0.00
4.08
7.04
9.10
10.50
11.44
12.08
12.54
12.96
13.44
14.03
14.74
15.46
16.03
16.32
16.29
16.05
15.76
15.60
15.68
16.01
16.50
17.04
17.47
17.62
17.33
16.51
15.13
13.36
11.53
9.98
9.00
8.59
8.50
8.33
7.71
6.45
4.65
2.57
0.51
-1.35
-2.95
-4.40
-5.81
-7.30
-8.93
-10.72
-12.69
-14.81
-17.02
-19.20
-21.27
-23.22
-25.20
-27.52
-30.52
-34.36
-38.85
-43.33
-46.83
-48.33
-47.08
-42.93
-36.31
-28.20
-19.72
-11.92
-5.47
-0.59
2.87
5.26
6.97
8.31
9.47
10.54
11.56
12.52
13.43
14.30
15.10
15.80
16.39
16.86
17.26
17.67
18.17
18.85
19.68
20.57
21.35
21.77
21.65
20.91
19.63
18.04
16.45
15.08
14.03
13.20
12.39
11.39
10.06
8.43
6.63
4.89
3.40
2.29
1.58
1.18
0.89
0.48
-0.29
-1.62
-3.54
-5.99
-8.76
-11.61
-14.28
-16.61
-18.68
-20.78
-23.33
-26.68
-30.87
-35.46
-39.60
-42.23
-42.44
-39.81
-34.55
-27.43
-19.53
-11.89
-5.30
-0.10
3.72
6.45
8.44
10.04
11.51
12.95
14.40
15.82
17.19
18.46
19.57
20.47
21.15
21.59
21.86
22.00
22.05
21.97
21.66
21.01
20.00
18.71
17.33
16.06
15.02
14.23
13.56
12.88
12.08
11.18
10.24
9.35
8.50
7.62
6.59
5.36
4.00
2.63
1.33
0.08
-1.29
-2.98
-5.11
-7.64
-10.40
-13.13
-15.62
-17.73
-19.46
-20.88
-22.10
-23.26
-24.51
-26.04
-28.07
-30.77
-34.10
-37.71
-40.89
-42.72
-42.31
-39.19
-33.49
-26.00
-17.88
-10.32
-4.15
0.34
3.35
5.40
7.06
8.69
10.43
12.20
13.79
15.06
16.04
16.85
17.70
18.65
19.62
20.39
20.77
20.71
20.39
20.09
20.04
20.28
20.67
21.00
21.10
20.95
20.64
20.30
20.00
19.71
19.36
18.90
18.35
17.77
17.26
16.85
16.49
15.97
15.12
13.79
12.01
9.95
7.85
5.89
4.12
2.42
0.64
-1.33
-3.50
-5.76
-7.99
-10.12
-12.12
-14.06
-16.08
-18.35
-21.11
-24.58
-28.84
-33.68
-38.46
-42.25
-44.02
-43.00
-38.99
-32.42
-24.23
-15.62
-7.65
-1.10
3.72
6.89
8.77
9.82
10.51
11.18
12.03
13.10
14.28
15.42
16.39
17.11
17.56
17.78
17.80
17.69
17.45
17.12
16.70
16.21
15.64
14.98
14.21
13.33
12.43
11.66
11.20
11.19
11.63
12.36
13.15
13.79
14.17
14.32
14.32
14.20
13.92
13.36
12.44
11.12
9.49
7.63
5.63
3.54
1.42
-0.72
-2.87
-5.04
-7.29
-9.65
-12.10
-14.50
-16.67
-18.48
-19.92
-21.21
-22.74
-24.94
-28.12
-32.30
-37.01
-41.38
-44.26
-44.62
-41.96
-36.38
-28.72
-20.15
-11.83
-4.60
1.17
5.48
8.52
10.57
11.90
12.78
13.49
14.27
15.25
16.46
17.80
19.10
20.20
20.99
21.46
21.66
21.72
21.83
22.09
22.53
23.01
23.36
23.39
23.04
22.34
21.42
20.38
19.24
17.99
16.58
15.04
13.50
12.05
10.81
9.74
8.73
7.68
6.51
5.20
3.76
2.18
0.48
-1.29
-3.03
-4.64
-6.03
-7.26
-8.49
-9.94
-11.75
-13.94
-16.36
-18.74
-20.84
-22.54
-23.87
-25.01
-26.30
-28.06
-30.57
-33.86
-37.56
-40.90
-42.84
-42.41
-39.09
-33.03
-25.06
-16.43
-8.32
-1.59
3.43
6.90
9.25
10.95
12.37
13.65
14.81
15.78
16.48
16.89
17.10
17.23
17.40
17.70
18.12
18.60
19.07
19.47
19.73
19.82
19.70
19.33
18.74
17.95
16.99
15.93
14.80
13.66
12.57
11.55
10.62
9.76
8.93
8.12
7.34
6.60
5.86
5.05
4.03
2.73
1.18
-0.47
-2.03
-3.41
-4.67
-6.02
-7.65
-9.65
-11.91
-14.14
-16.06
-17.54
-18.65
-19.70
-21.07
-23.14
-26.17
-30.18
-34.89
-39.65
-43.51
-45.49
-44.77
-41.07
-34.74
-26.70
-18.14
-10.22
-3.68
1.16
4.45
6.58
7.98
8.98
9.79
10.55
11.32
12.17
13.18
14.38
15.78
17.29
18.79
20.16
21.31
22.20
22.85
23.28
23.51
23.52
23.27
22.64
21.58
20.11
18.31
16.38
14.51
12.82
11.35
10.00
8.67
7.27
5.75
4.11
2.38
0.61
-1.14
-2.74
-4.12
-5.22
-6.11
-6.95
-8.00
-9.43
-11.34
-13.61
-16.04
-18.40
-20.56
-22.57
-24.64
-27.09
-30.20
-34.03
-38.29
-42.31
-45.15
-45.90
-43.95
-39.26
-32.39
-24.31
-16.17
-8.91
-3.11
1.12
4.00
5.99
7.53
8.94
10.45
12.14
14.02
16.04
18.04
19.84
21.15
21.81
21.78
21.22
20.46
19.85
19.61
19.73
20.05
20.30
20.22
19.69
18.66
17.17
15.33
13.32
11.41
9.84
8.84
8.44
8.55
8.90
9.22
9.30
9.05
8.54
7.87
7.15
6.43
5.74
5.07
4.41
3.68
2.68
1.10
-1.38
-4.94
-9.45
-14.48
-19.36
-23.43
-26.27
-27.81
-28.36
-28.45
-28.67
-29.53
-31.38
-34.35
-38.23
-42.40
-45.93
-47.69
-46.74
-42.67
-35.78
-27.10
-17.99
-9.75
-3.19
1.47
4.53
6.54
8.07
9.50
11.05
12.77
14.63
16.53
18.30
19.83
21.00
21.80
22.23
22.38
22.38
22.40
22.63
23.21
24.16
25.26
26.18
26.53
26.07
24.77
22.84
20.58
18.32
16.27
14.55
13.18
12.07
11.14
10.26
9.31
8.19
6.89
5.46
3.97
2.55
1.28
0.15
-0.96
-2.21
-3.81
-5.83
-8.27
-10.95
-13.69
-16.32
-18.85
-21.35
-24.04
-27.08
-30.58
-34.49
-38.52
-42.13
-44.57
-45.05
-43.04
-38.44
-31.73
-23.79
-15.70
-8.34
-2.27
2.40
5.86
8.50
10.63
12.49
14.21
15.80
17.22
18.46
19.48
20.27
20.79
20.99
20.86
20.48
20.02
19.73
19.80
20.29
21.11
22.03
22.79
23.23
23.24
22.84
22.04
20.87
19.35
17.53
15.51
13.46
11.55
9.91
8.64
7.64
6.78
5.81
4.55
2.96
1.15
-0.65
-2.27
-3.67
-4.96
-6.38
-8.12
-10.24
-12.63
-15.11
-17.48
-19.60
-21.49
-23.20
-24.87
-26.69
-28.88
-31.66
-35.09
-38.98
-42.80
-45.70
-46.77
-45.33
-41.20
-34.81
-27.11
-19.26
-12.24
-6.62
-2.43
0.63
3.01
5.05
6.90
8.60
10.17
11.67
13.20
14.80
16.45
17.98
19.20
20.01
20.43
20.65
20.86
21.18
21.58
21.91
21.98
21.64
20.88
19.81
18.65
17.62
16.82
16.25
15.70
14.93
13.72
12.00
9.87
7.56
5.30
3.23
1.37
-0.42
-2.33
-4.45
-6.77
-9.16
-11.47
-13.61
-15.59
-17.49
-19.46
-21.69
-24.36
-27.62
-31.56
-36.09
-40.78
-44.89
-47.46
-47.64
-44.92
-39.43
-31.90
-23.45
-15.25
-8.14
-2.54
1.65
4.77
7.27
9.52
11.74
13.99
16.23
18.38
20.35
22.08
23.48
24.50
25.10
25.34
25.35
25.29
25.31
25.44
25.60
25.65
25.50
25.10
24.49
23.72
22.87
21.97
21.08
20.25
19.54
18.91
18.29
17.52
16.47
15.03
13.21
11.04
8.58
5.90
3.13
0.46
-1.93
-3.91
-5.51
-6.92
-8.42
-10.22
-12.37
-14.79
-17.29
-19.71
-21.97
-24.17
-26.46
-29.08
-32.31
-36.37
-41.31
-46.84
-52.22
-56.30
-57.79
-55.72
-49.86
-40.91
-30.29
-19.67
-10.43
-3.23
2.00
5.79
8.78
11.43
13.89
16.17
18.22
20.09
21.84
23.53
25.09
26.34
27.09
27.24
26.86
26.14
25.39
24.90
24.85
25.20
25.73
26.15
26.21
25.83
25.09
24.19
23.32
22.58
21.93
21.25
20.44
19.47
18.44
17.49
16.77
16.30
15.95
15.51
14.76
13.57
11.94
9.99
7.90
5.84
3.88
1.99
0.05
-2.09
-4.53
-7.29
-10.24
-13.18
-15.89
-18.22
-20.20
-21.99
-23.97
-26.53
-30.05
-34.64
-40.08
-45.74
-50.60
-53.53
-53.62
-50.48
-44.46
-36.46
-27.71
-19.30
-11.90
-5.65
-0.35
4.30
8.52
12.34
15.68
18.50
20.84
22.81
24.52
25.98
27.15
27.97
28.47
28.76
28.99
29.33
29.77
30.23
30.55
30.60
30.35
29.88
29.32
28.72
28.09
27.32
26.33
25.07
23.57
21.94
20.26
18.65
17.18
15.92
14.91
14.19
13.66
13.13
12.40
11.28
9.77
7.97
6.05
4.06
1.92
-0.57
-3.55
-7.04
-10.90
-14.84
-18.66
-22.29
-25.86
-29.62
-33.80
-38.55
-43.80
-49.25
-54.26
-57.98
-59.48
-58.07
-53.53
-46.32
-37.40
-27.99
-19.21
-11.77
-5.82
-1.13
2.71
6.08
9.16
11.93
14.28
16.17
17.65
18.91
20.14
21.47
22.85
24.18
25.34
26.27
27.07
27.86
28.72
29.64
30.49
31.09
31.25
30.89
30.01
28.68
27.00
25.13
23.21
21.36
19.67
18.17
16.85
15.62
14.38
12.98
11.30
9.28
6.94
4.39
1.78
-0.78
-3.24
-5.65
-8.13
-10.82
-13.77
-16.97
-20.28
-23.52
-26.52
-29.24
-31.83
-34.54
-37.69
-41.39
-45.43
-49.16
-51.62
-51.83
-49.13
-43.41
-35.24
-25.65
-15.84
-6.85
0.69
6.62
11.11
14.40
16.73
18.18
18.86
18.93
18.71
18.58
18.87
19.70
20.93
22.29
23.49
24.38
24.95
25.32
25.56
25.71
25.75
25.57
25.15
24.44
23.49
22.31
20.95
19.41
17.64
15.64
13.38
10.95
8.48
6.15
4.14
2.53
1.28
0.23
-0.88
-2.27
-4.06
-6.28
-8.81
-11.47
-14.10
-16.62
-19.08
-21.70
-24.79
-28.64
-33.41
-38.94
-44.69
-49.71
-52.85
-53.04
-49.73
-43.15
-34.27
-24.55
-15.46
-8.05
-2.61
1.10
3.70
5.77
7.68
9.46
11.06
12.37
13.38
14.20
14.97
15.79
16.66
17.56
18.42
19.25
20.07
20.98
22.03
23.19
24.37
25.30
25.78
25.65
24.93
23.79
22.47
21.18
20.06
19.11
18.23
17.25
16.00
14.32
12.15
9.52
6.62
3.65
0.81
-1.82
-4.35
-6.91
-9.65
-12.55
-15.49
-18.29
-20.79
-22.94
-24.77
-26.36
-27.81
-29.24
-30.89
-33.09
-36.16
-40.23
-44.99
-49.61
-52.85
-53.43
-50.52
-44.09
-34.95
-24.52
-14.32
-5.52
1.37
6.41
10.02
12.72
14.83
16.54
17.92
19.06
20.10
21.24
22.56
23.99
25.31
26.23
26.54
26.19
25.36
24.42
23.69
23.38
23.44
23.62
23.57
23.11
22.24
21.16
20.12
19.28
18.60
17.88
16.82
15.23
13.07
10.48
7.72
5.10
2.85
1.03
-0.51
-2.13
-4.20
-6.98
-10.48
-14.40
-18.31
-21.82
-24.79
-27.32
-29.73
-32.39
-35.63
-39.55
-43.98
-48.39
-51.94
-53.58
-52.39
-47.90
-40.36
-30.73
-20.46
-10.99
-3.36
2.06
5.52
7.67
9.23
10.70
12.30
14.00
15.63
17.10
18.36
19.49
20.50
21.36
21.95
22.19
22.07
21.77
21.53
21.60
22.03
22.70
23.31
23.55
23.29
22.59
21.72
21.00
20.64
20.66
20.82
20.79
20.25
19.11
17.45
15.54
13.64
11.89
10.21
8.39
6.16
3.34
-0.08
-3.92
-7.88
-11.65
-14.97
-17.77
-20.13
-22.33
-24.76
-27.81
-31.80
-36.77
-42.34
-47.66
-51.59
-52.97
-51.06
-45.85
-38.12
-29.16
-20.34
-12.68
-6.59
-1.95
1.68
4.74
7.53
10.20
12.74
15.17
17.46
19.64
21.69
23.56
25.15
26.37
27.12
27.39
27.22
26.73
26.06
25.33
24.60
23.82
22.91
21.80
20.52
19.16
17.86
16.73
15.79
14.98
14.21
13.37
12.39
11.22
9.85
8.27
6.54
4.77
3.09
1.57
0.22
-1.08
-2.49
-4.15
-6.11
-8.24
-10.38
-12.35
-14.04
-15.52
-16.93
-18.50
-20.49
-23.18
-26.75
-31.21
-36.22
-41.01
-44.49
-45.50
-43.33
-37.97
-30.22
-21.43
-13.02
-6.00
-0.72
3.01
5.73
7.92
9.91
11.84
13.71
15.45
17.01
18.34
19.41
20.25
20.90
21.43
21.91
22.33
22.67
22.92
23.05
23.09
23.04
22.86
22.52
21.93
21.08
19.96
18.62
17.18
15.72
14.33
13.03
11.82
10.66
9.51
8.38
7.31
6.30
5.29
4.23
3.01
1.61
0.09
-1.46
-2.99
-4.56
-6.33
-8.48
-11.05
-13.96
-16.98
-19.88
-22.49
-24.76
-26.78
-28.73
-30.88
-33.57
-37.11
-41.63
-46.95
-52.42
-56.96
-59.34
-58.55
-54.16
-46.57
-36.90
-26.62
-17.13
-9.36
-3.60
0.46
3.43
5.95
8.48
11.16
13.93
16.58
18.85
20.60
21.76
22.40
22.69
22.76
22.75
22.71
22.67
22.62
22.61
22.67
22.78
22.87
22.73
22.17
21.04
19.39
17.42
15.46
13.80
12.57
11.77
11.21
10.73
10.21
9.64
9.07
8.57
8.16
7.80
7.34
6.61
5.45
3.71
1.35
-1.57
-4.85
-8.21
-11.32
-13.96
-16.04
-17.67
-19.17
-20.93
-23.36
-26.61
-30.53
-34.58
-37.90
-39.53
-38.69
-35.04
-28.83
-20.86
-12.24
-4.11
2.70
7.85
11.48
14.00
15.89
17.47
18.84
19.94
20.71
21.13
21.23
21.11
20.82
20.38
19.83
19.22
18.68
18.37
18.42
18.84
19.54
20.25
20.68
20.58
19.79
18.39
16.64
14.90
13.50
12.59
12.11
11.75
11.20
10.20
8.67
6.72
4.54
2.35
0.28
-1.68
-3.61
-5.61
-7.79
-10.13
-12.54
-14.85
-16.93
-18.73
-20.30
-21.80
-23.43
-25.41
-27.90
-31.00
-34.58
-38.28
-41.41
-43.12
-42.62
-39.47
-33.86
-26.54
-18.62
-11.21
-5.01
-0.25
3.33
6.17
8.68
10.99
13.02
14.56
15.47
15.81
15.79
15.72
15.78
15.95
16.06
15.90
15.40
14.70
14.04
13.68
13.66
13.80
13.84
13.49
12.69
11.54
10.30
9.19
8.32
7.61
6.88
6.00
4.89
3.56
2.09
0.52
-1.12
-2.83
-4.50
-6.02
-7.26
-8.20
-9.01
-9.92
-11.17
-12.85
-14.86
-16.95
-18.89
-20.52
-21.82
-22.90
-23.96
-25.25
-27.01
-29.38
-32.30
-35.38
-37.87
-38.88
-37.67
-33.97
-28.14
-21.05
-13.83
-7.53
-2.79
0.21
1.74
2.30
2.50
2.80
3.50
4.68
6.26
8.11
10.11
12.16
14.18
16.03
17.53
18.53
18.94
18.87
18.54
18.27
18.30
18.69
19.35
20.01
20.44
20.49
20.10
19.40
18.54
17.69
16.95
16.34
15.74
14.97
13.84
12.22
10.11
7.67
5.20
3.01
1.35
0.29
-0.34
-0.85
-1.59
-2.82
-4.62
-6.85
-9.29
-11.69
-13.89
-15.88
-17.73
-19.67
-21.95
-24.79
-28.27
-32.18
-35.99
-38.91
-40.09
-38.92
-35.24
-29.43
-22.30
-14.77
-7.68
-1.57
3.33
7.02
9.73
11.72
13.29
14.74
16.28
18.02
19.91
21.74
23.23
24.13
24.29
23.80
22.86
21.79
20.84
20.14
19.65
19.22
18.70
17.99
17.01
15.80
14.38
12.81
11.18
9.58
8.05
6.59
5.10
3.53
1.88
0.22
-1.31
-2.64
-3.76
-4.79
-5.88
-7.16
-8.68
-10.38
-12.12
-13.74
-15.09
-16.09
-16.81
-17.39
-18.14
-19.36
-21.21
-23.59
-26.08
-27.99
-28.56
-27.24
-23.90
-18.94
-13.10
-7.30
-2.33
1.38
3.77
5.08
5.65
5.83
5.82
5.76
5.72
5.80
6.10
6.68
7.51
8.49
9.43
10.20
10.71
10.97
11.04
10.94
10.72
10.35
9.78
9.01
8.01
6.79
5.43
4.01
2.64
1.43
0.45
-0.28
-0.82
-1.24
-1.66
-2.10
-2.63
-3.23
-3.90
-4.67
-5.55
-6.59
-7.83
-9.32
-11.14
-13.40
-16.16
-19.50
-23.41
-27.70
-32.01
-35.78
-38.30
-38.90
-37.19
-33.16
-27.31
-20.48
-13.66
-7.69
-3.05
0.19
2.25
3.48
4.21
4.64
4.91
5.14
5.45
5.99
6.85
8.10
9.73
11.69
13.89
16.23
18.60
20.81
22.62
23.75
23.93
22.94
20.76
17.52
13.54
9.28
5.27
2.03
-0.06
-0.77
-0.20
1.30
3.15
4.73
5.59
5.57
4.82
3.69
2.53
1.50
0.55
-0.48
-1.79
-3.44
-5.35
-7.34
-9.20
-10.79
-12.02
-12.91
-13.53
-13.99
-14.46
-15.18
-16.39
-18.24
-20.66
-23.26
-25.30
-25.93
-24.50
-20.84
-15.39
-9.07
-2.94
2.23
6.07
8.68
10.40
11.61
12.59
13.42
14.13
14.71
15.15
15.50
15.80
16.08
16.31
16.41
16.31
15.93
15.29
14.52
13.77
13.18
12.77
12.45
12.07
11.56
10.90
10.18
9.45
8.69
7.83
6.79
5.54
4.20
2.93
1.91
1.19
0.70
0.24
-0.48
-1.70
-3.59
-6.07
-8.86
-11.54
-13.77
-15.42
-16.64
-17.84
-19.47
-21.86
-25.01
-28.55
-31.84
-34.08
-34.56
-32.88
-29.08
-23.62
-17.28
-10.96
-5.39
-0.97
2.25
4.49
6.12
7.51
8.97
10.63
12.45
14.28
15.88
17.04
17.68
17.86
17.74
17.52
17.31
17.18
17.10
17.04
16.93
16.72
16.34
15.76
14.96
13.98
12.84
11.63
10.40
9.24
8.21
7.37
6.71
6.16
5.62
4.91
3.94
2.68
1.25
-0.19
-1.53
-2.78
-4.08
-5.63
-7.57
-9.91
-12.48
-14.96
-17.06
-18.59
-19.54
-20.13
-20.65
-21.48
-22.93
-25.14
-28.12
-31.53
-34.76
-36.96
-37.30
-35.21
-30.67
-24.18
-16.70
-9.25
-2.64
2.69
6.74
9.75
12.12
14.20
16.24
18.32
20.38
22.27
23.78
24.80
25.32
25.43
25.31
25.10
24.93
24.82
24.77
24.70
24.53
24.17
23.50
22.46
21.01
19.12
16.84
14.28
11.65
9.18
7.10
5.48
4.24
3.24
2.32
1.41
0.54
-0.25
-0.98
-1.73
-2.64
-3.77
-5.12
-6.61
-8.16
-9.73
-11.39
-13.13
-14.94
-16.68
-18.20
-19.39
-20.20
-20.69
-21.01
-21.36
-22.01
-23.26
-25.40
-28.49
-32.23
-35.89
-38.45
-38.99
-36.96
-32.48
-26.30
-19.50
-13.12
-7.83
-3.81
-0.88
1.32
3.15
4.82
6.45
8.11
9.82
11.56
13.25
14.76
15.96
16.79
17.27
17.54
17.73
17.95
18.22
18.49
18.67
18.63
18.27
17.49
16.32
14.84
13.27
11.83
10.69
9.88
9.30
8.75
8.05
7.11
5.95
4.66
3.40
2.25
1.27
0.35
-0.63
-1.86
-3.47
-5.42
-7.55
-9.58
-11.31
-12.66
-13.76
-14.94
-16.55
-18.85
-21.84
-25.21
-28.35
-30.52
-30.99
-29.35
-25.63
-20.36
-14.40
-8.63
-3.72
0.11
2.98
5.25
7.25
9.17
11.00
12.70
14.19
15.50
16.71
17.89
19.03
20.07
20.83
21.21
21.16
20.79
20.29
19.86
19.65
19.65
19.73
19.65
19.20
18.29
16.97
15.44
13.92
12.62
11.61
10.89
10.38
9.94
9.48
8.92
8.23
7.43
6.56
5.66
4.77
3.86
2.86
1.66
0.15
-1.72
-3.90
-6.24
-8.59
-10.79
-12.75
-14.48
-16.06
-17.61
-19.38
-21.58
-24.41
-27.84
-31.47
-34.57
-36.18
-35.53
-32.38
-27.10
-20.63
-14.09
-8.42
-4.13
-1.28
0.45
1.49
2.29
3.18
4.38
5.92
7.69
9.50
11.15
12.51
13.55
14.32
14.89
15.34
15.71
16.04
16.38
16.73
17.09
17.36
17.39
16.98
16.04
14.57
12.77
10.97
9.52
8.73
8.66
9.13
9.76
10.11
9.85
8.87
7.32
5.52
3.79
2.29
0.97
-0.45
-2.28
-4.71
-7.68
-10.91
-14.02
-16.67
-18.74
-20.27
-21.48
-22.60
-23.86
-25.49
-27.61
-30.17
-32.84
-34.96
-35.72
-34.45
-30.94
-25.55
-19.11
-12.63
-6.97
-2.56
0.60
2.85
4.63
6.32
8.05
9.80
11.40
12.70
13.64
14.26
14.72
15.17
15.76
16.49
17.35
18.30
19.29
20.27
21.17
21.88
22.27
22.24
21.77
20.92
19.78
18.37
16.69
14.77
12.68
10.59
8.68
7.06
5.66
4.30
2.74
0.86
-1.30
-3.57
-5.69
-7.55
-9.13
-10.58
-12.08
-13.79
-15.87
-18.42
-21.50
-25.03
-28.68
-31.86
-33.83
-33.87
-31.57
-27.06
-20.98
-14.30
-8.02
-2.82
1.07
3.80
5.80
7.49
9.13
10.78
12.31
13.59
14.57
15.31
15.97
16.69
17.52
18.36
19.11
19.68
20.06
20.37
20.72
21.15
21.56
21.78
21.57
20.82
19.51
17.74
15.72
13.67
11.82
10.32
9.19
8.32
7.54
6.66
5.52
4.13
2.60
1.19
0.09
-0.58
-0.97
-1.37
-2.14
-3.55
-5.56
-7.87
-10.00
-11.56
-12.43
-12.81
-13.18
-14.05
-15.81
-18.63
-22.40
-26.74
-31.02
-34.47
-36.28
-35.85
-32.98
-28.03
-21.74
-15.12
-8.99
-3.87
0.13
3.25
5.80
8.02
9.96
11.56
12.70
13.35
13.67
13.87
14.23
14.86
15.71
16.59
17.28
17.72
17.98
18.23
18.64
19.22
19.85
20.37
20.61
20.52
20.18
19.72
19.25
18.77
18.19
17.33
16.07
14.39
12.46
10.52
8.80
7.42
6.33
5.40
4.47
3.41
2.20
0.83
-0.70
-2.38
-4.21
-6.11
-7.97
-9.72
-11.29
-12.71
-14.06
-15.41
-16.86
-18.52
-20.51
-22.89
-25.57
-28.20
-30.22
-30.93
-29.84
-26.78
-22.06
-16.37
-10.59
-5.49
-1.59
1.02
2.54
3.41
4.07
4.82
5.77
6.85
7.90
8.83
9.64
10.38
11.12
11.84
12.46
12.91
13.19
13.38
13.54
13.67
13.65
13.36
12.71
11.77
10.71
9.72
8.95
8.41
8.01
7.61
7.13
6.55
5.88
5.20
4.55
3.95
3.40
2.81
2.07
1.07
-0.28
-2.00
-4.03
-6.25
-8.49
-10.56
-12.32
-13.76
-15.04
-16.43
-18.25
-20.63
-23.43
-26.14
-28.03
-28.32
-26.57
-22.77
-17.46
-11.52
-5.86
-1.17
2.28
4.64
6.31
7.71
9.10
10.52
11.85
12.90
13.56
13.81
13.74
13.45
13.07
12.67
12.26
11.91
11.70
11.73
12.07
12.70
13.45
14.00
14.08
13.49
12.31
10.81
9.39
8.35
7.77
7.55
7.45
7.28
6.90
6.36
5.70
4.91
3.95
2.71
1.13
-0.82
-3.06
-5.50
-8.00
-10.47
-12.78
-14.83
-16.54
-17.90
-18.97
-19.92
-20.99
-22.42
-24.36
-26.75
-29.25
-31.27
-32.14
-31.27
-28.44
-23.90
-18.28
-12.47
-7.33
-3.34
-0.63
1.11
2.33
3.43
4.63
5.90
7.07
8.00
8.65
9.11
9.51
9.95
10.39
10.69
10.69
10.37
9.79
9.20
8.84
8.90
9.38
10.09
10.70
10.90
10.51
9.60
8.39
7.18
6.23
5.61
5.26
5.02
4.74
4.32
3.76
3.11
2.44
1.79
1.13
0.35
-0.66
-2.00
-3.72
-5.69
-7.74
-9.63
-11.16
-12.27
-13.04
-13.69
-14.56
-15.97
-18.12
-21.04
-24.40
-27.59
-29.80
-30.26
-28.46
-24.44
-18.72
-12.23
-5.98
-0.78
3.03
5.53
7.11
8.17
9.00
9.72
10.28
10.60
10.69
10.58
10.34
10.03
9.62
9.06
8.33
7.47
6.62
5.96
5.67
5.84
6.39
7.07
7.55
7.51
6.85
5.68
4.26
2.91
1.80
0.94
0.18
-0.57
-1.30
-1.86
-2.08
-1.92
-1.56
-1.26
-1.31
-1.89
-2.93
-4.23
-5.52
-6.62
-7.50
-8.32
-9.43
-11.19
-13.86
-17.41
-21.45
-25.22
-27.83
-28.55
-27.00
-23.32
-18.11
-12.24
-6.56
-1.71
2.02
4.69
6.55
7.90
8.96
9.78
10.33
10.54
10.37
9.90
9.24
8.52
7.87
7.37
7.08
7.08
7.43
8.15
9.16
10.31
11.36
12.08
12.31
12.01
11.29
10.33
9.37
8.55
7.94
7.47
7.04
6.52
5.82
4.88
3.72
2.43
1.17
0.12
-0.61
-0.99
-1.20
-1.46
-2.03
-3.05
-4.47
-6.13
-7.83
-9.40
-10.77
-11.96
-13.12
-14.43
-16.21
-18.63
-21.67
-24.96
-27.73
-29.11
-28.39
-25.35
-20.35
-14.20
-7.92
-2.37
1.91
4.77
6.38
7.10
7.35
7.50
7.82
8.43
9.34
10.46
11.64
12.68
13.37
13.54
13.14
12.35
11.44
10.77
10.53
10.61
10.71
10.43
9.53
8.04
6.26
4.53
3.15
2.17
1.54
1.11
0.81
0.55
0.25
-0.19
-0.89
-1.83
-2.92
-3.97
-4.82
-5.45
-5.99
-6.63
-7.50
-8.58
-9.73
-10.77
-11.59
-12.25
-12.92
-13.82
-15.15
-16.96
-19.17
-21.50
-23.53
-24.75
-24.66
-22.91
-19.45
-14.64
-9.17
-3.89
0.44
3.45
5.20
6.09
6.67
7.32
8.14
9.00
9.71
10.21
10.57
10.97
11.55
12.26
12.99
13.56
13.94
14.21
14.51
14.93
15.40
15.73
15.69
15.13
14.03
12.52
10.81
9.01
7.17
5.23
3.16
0.99
-1.13
-2.95
-4.31
-5.11
-5.47
-5.58
-5.69
-6.02
-6.71
-7.78
-9.17
-10.72
-12.24
-13.56
-14.63
-15.51
-16.46
-17.74
-19.63
-22.23
-25.37
-28.57
-31.18
-32.44
-31.80
-29.06
-24.49
-18.73
-12.64
-6.96
-2.16
1.68
4.78
7.50
10.16
12.93
15.74
18.33
20.37
21.60
21.91
21.39
20.33
19.04
17.84
16.93
16.44
16.40
16.78
17.48
18.29
18.94
19.18
18.80
17.78
16.25
14.46
12.70
11.15
9.88
8.81
7.86
6.90
5.91
4.95
4.14
3.54
3.17
2.90
2.58
2.09
1.38
0.49
-0.52
-1.62
-2.87
-4.35
-6.17
-8.34
-10.78
-13.39
-15.98
-18.35
-20.14
-20.93
-20.38
-18.43
-15.50
-12.44
-10.27
-9.73
-11.09
-14.01
-17.75
-21.46
-24.40
-26.07
-26.21
-24.74
-21.78
-17.68
-12.89
-8.01
-3.55
0.17
3.06
5.24
6.96
8.50
10.07
11.76
13.54
15.23
16.58
17.33
17.40
16.83
15.84
14.74
13.81
13.24
13.00
13.01
13.06
13.01
12.74
12.25
11.58
10.82
10.07
9.45
9.03
8.79
8.71
8.73
8.83
9.02
9.38
9.89
10.46
10.86
10.78
9.92
8.09
5.31
1.84
-1.92
-5.55
-8.76
-11.45
-13.72
-15.84
-18.12
-20.88
-24.23
-28.00
-31.67
-34.47
-35.47
-34.05
-30.03
-23.85
-16.43
-8.86
-2.08
3.34
7.28
9.96
11.73
12.97
13.96
14.89
15.83
16.81
17.81
18.85
19.92
21.03
22.11
23.09
23.90
24.50
24.93
25.25
25.45
25.46
25.15
24.37
23.06
21.25
19.11
16.84
14.64
12.67
11.03
9.74
8.76
8.00
7.35
6.69
5.96
5.16
4.32
3.46
2.58
1.62
0.44
-1.14
-3.20
-5.72
-8.50
-11.24
-13.67
-15.65
-17.25
-18.74
-20.40
-22.45
-24.97
-27.86
-30.92
-33.82
-36.12
-37.27
-36.73
-34.18
-29.65
-23.67
-17.09
-10.83
-5.59
-1.64
1.17
3.24
5.03
6.82
8.73
10.69
12.60
14.33
15.84
17.10
18.08
18.72
18.91
18.63
17.93
17.02
16.17
15.63
15.53
15.79
16.23
16.59
16.70
16.53
16.14
15.65
15.10
14.51
13.80
12.94
11.92
10.80
9.66
8.61
7.75
7.14
6.77
6.54
6.23
5.61
4.52
2.96
1.08
-0.85
-2.57
-4.04
-5.34
-6.76
-8.58
-10.95
-13.71
-16.36
-18.23
-18.69
-17.35
-14.34
-10.17
-5.70
-1.68
1.37
3.34
4.47
5.13
5.63
6.13
6.64
7.08
7.40
7.59
7.72
7.80
7.86
7.90
7.94
8.01
8.15
8.43
8.83
9.34
9.92
10.56
11.23
11.87
12.36
12.54
12.27
11.48
10.22
8.73
7.29
6.30
6.12
6.98
8.92
11.69
14.73
17.34
18.89
19.01
17.73
15.40
12.50
9.45
6.52
3.78
1.20
-1.39
-4.15
-7.35
-11.15
-15.54
-20.20
-24.49
-27.64
-29.05
-28.50
-26.29
-23.14
-19.94
-17.49
-16.29
-16.47
-17.73
-19.50
-21.06
-21.82
-21.41
-19.85
-17.49
-14.83
-12.31
-10.16
-8.36
-6.73
-5.12
-3.45
-1.73
0.01
1.74
3.46
5.19
6.86
8.32
9.42
10.00
10.04
9.58
8.75
7.63
6.29
4.72
2.92
0.95
-1.04
-2.85
-4.24
-5.03
-5.24
-5.04
-4.75
-4.70
-5.07
-5.84
-6.87
-7.93
-8.92
-9.95
-11.34
-13.46
-16.57
-20.58
-25.09
-29.32
-32.40
-33.53
-32.21
-28.43
-22.63
-15.62
-8.34
-1.66
3.85
7.94
10.70
12.43
13.51
14.28
14.93
15.56
16.11
16.51
16.70
16.63
16.34
15.89
15.38
14.89
14.49
14.24
14.19
14.30
14.58
14.94
15.31
15.56
15.58
15.25
14.54
13.43
12.05
10.54
9.05
7.63
6.27
4.88
3.39
1.85
0.36
-1.01
-2.28
-3.59
-5.15
-7.08
-9.32
-11.65
-13.75
-15.36
-16.34
-16.73
-16.71
-16.54
-16.52
-16.97
-18.20
-20.39
-23.44
-26.95
-30.18
-32.27
-32.49
-30.47
-26.38
-20.86
-14.81
-9.10
-4.27
-0.48
2.46
4.90
7.14
9.26
11.11
12.47
13.11
13.07
12.61
12.19
12.28
13.19
14.96
17.30
19.75
21.76
22.84
22.67
21.15
18.41
14.84
10.99
7.46
4.77
3.19
2.66
2.90
3.50
4.06
4.23
3.78
2.50
0.33
-2.64
-6.09
-9.45
-12.12
-13.63
-13.80
-12.81
-11.14
-9.46
-8.52
-9.00
-11.36
-15.67
-21.49
-27.79
-33.22
-36.46
-36.67
-33.74
-28.33
-21.63
-14.94
-9.27
-5.14
-2.59
-1.23
-0.55
-0.03
0.71
1.87
3.46
5.41
7.56
9.78
11.94
13.91
15.56
16.79
17.56
17.88
17.79
17.40
16.78
15.97
14.95
13.68
12.14
10.34
8.37
6.37
4.49
2.82
1.45
0.34
-0.58
-1.37
-2.08
-2.76
-3.36
-3.84
-4.12
-4.18
-4.04
-3.74
-3.37
-3.02
-2.86
-3.12
-4.13
-6.32
-9.99
-15.11
-21.17
-27.16
-31.76
-33.75
-32.47
-27.99
-21.19
-13.34
-5.79
0.52
5.11
8.00
9.52
10.08
10.04
9.69
9.27
8.99
9.00
9.33
9.91
10.51
10.91
10.93
10.58
10.06
9.66
9.64
10.12
11.02
12.05
12.86
13.22
13.06
12.52
11.86
11.30
10.93
10.66
10.31
9.70
8.74
7.47
5.98
4.38
2.74
1.06
-0.65
-2.38
-4.07
-5.68
-7.13
-8.39
-9.49
-10.50
-11.60
-12.99
-14.87
-17.37
-20.39
-23.58
-26.37
-28.02
-27.90
-25.70
-21.51
-15.91
-9.79
-4.01
0.72
4.14
6.32
7.58
8.34
8.91
9.45
9.95
10.31
10.48
10.46
10.38
10.42
10.73
11.33
12.09
12.80
13.19
13.10
12.50
11.54
10.42
9.35
8.48
7.82
7.29
6.80
6.23
5.55
4.77
3.99
3.26
2.59
1.90
1.04
-0.09
-1.52
-3.11
-4.66
-5.97
-6.99
-7.78
-8.55
-9.55
-11.00
-13.07
-15.81
-19.10
-22.64
-25.85
-27.96
-28.25
-26.24
-21.94
-15.91
-9.11
-2.57
2.89
6.86
9.33
10.59
11.04
11.11
11.09
11.22
11.52
11.96
12.44
12.83
13.06
13.08
12.90
12.54
12.07
11.59
11.21
11.00
10.99
11.09
11.17
11.06
10.74
10.24
9.70
9.22
8.82
8.37
7.74
6.76
5.40
3.67
1.66
-0.49
-2.67
-4.74
-6.65
-8.34
-9.78
-10.99
-12.02
-12.94
-13.89
-15.03
-16.56
-18.67
-21.49
-25.06
-29.20
-33.40
-36.87
-38.67
-38.03
-34.65
-28.90
-21.76
-14.46
-8.08
-3.20
0.12
2.22
3.56
4.51
5.30
6.07
6.97
8.10
9.53
11.18
12.87
14.39
15.59
16.43
16.99
17.43
17.86
18.38
18.96
19.53
19.95
20.11
19.96
19.52
18.92
18.31
17.78
17.39
17.08
16.71
16.15
15.32
14.24
13.07
12.03
11.26
10.71
10.08
8.90
6.72
3.37
-1.00
-5.91
-10.80
-15.22
-18.94
-22.01
-24.62
-27.06
-29.72
-32.97
-37.08
-41.97
-47.13
-51.60
-54.26
-54.19
-51.12
-45.53
-38.49
-31.24
-24.88
-20.00
-16.72
-14.80
-13.76
-13.10
-12.44
-11.51
-10.31
-8.93
-7.56
-6.21
-4.61
-2.20
1.64
7.33
14.75
23.19
31.58
38.93
44.75
49.31
53.57
58.77
65.92
75.46
87.01
99.63
112.05
123.13
131.91
137.72
140.13
138.84
133.75
124.89
112.27
95.58
74.12
46.88
13.32
-25.55
-66.34
-103.47
-130.72
-143.58
-141.31
-127.61
-109.21
-93.21
-84.31
-83.47
-88.33
-95.09
-100.48
-102.86
-102.13
-98.87
-93.46
-85.88
-76.11
-64.61
-52.60
-41.72
-33.37
-28.13
-25.47
-24.00
-22.09
-18.60
-13.26
-6.79
-0.38
4.81
8.21
9.99
10.92
11.93
13.72
16.46
19.85
23.27
26.08
27.86
28.51
28.20
27.28
26.06
24.82
23.69
22.72
21.81
20.75
19.27
17.12
14.24
10.86
7.46
4.60
2.68
1.71
1.31
0.93
0.04
-1.62
-3.96
-6.67
-9.35
-11.73
-13.80
-15.76
-18.01
-21.10
-25.38
-30.95
-37.41
-43.95
-49.34
-52.28
-51.71
-47.16
-39.02
-28.43
-17.08
-6.65
1.67
7.45
11.03
13.14
14.58
15.91
17.40
19.05
20.78
22.52
24.17
25.64
26.81
27.61
28.05
28.27
28.44
28.76
29.39
30.39
31.63
32.86
33.72
33.89
33.17
31.56
29.21
26.42
23.47
20.64
18.13
16.05
14.33
12.81
11.22
9.27
6.86
4.00
0.84
-2.41
-5.65
-8.87
-12.12
-15.49
-19.01
-22.75
-26.82
-31.33
-36.33
-41.58
-46.47
-50.04
-51.25
-49.28
-43.93
-35.70
-25.70
-15.28
-5.68
2.32
8.45
12.90
16.10
18.49
20.40
22.02
23.42
24.64
25.72
26.70
27.65
28.55
29.37
30.09
30.69
31.23
31.79
32.41
33.05
33.56
33.72
33.35
32.42
31.00
29.33
27.62
26.03
24.54
23.05
21.37
19.34
16.94
14.26
11.52
8.95
6.72
4.84
3.12
1.27
-1.00
-3.87
-7.30
-11.02
-14.77
-18.30
-21.55
-24.55
-27.45
-30.36
-33.50
-37.10
-41.39
-46.40
-51.68
-56.21
-58.64
-57.69
-52.73
-44.11
-33.02
-21.10
-9.87
-0.31
7.21
12.82
16.82
19.58
21.50
22.97
24.41
26.09
28.08
30.20
32.14
33.60
34.49
34.85
34.89
34.80
34.69
34.59
34.46
34.28
34.06
33.79
33.42
32.85
31.97
30.70
29.12
27.37
25.67
24.17
22.86
21.54
19.92
17.76
15.07
12.06
9.13
6.66
4.78
3.35
1.97
0.21
-2.24
-5.36
-8.88
-12.40
-15.53
-18.13
-20.26
-22.19
-24.29
-26.98
-30.63
-35.43
-41.30
-47.63
-53.34
-57.01
-57.32
-53.60
-46.08
-35.93
-24.85
-14.47
-5.91
0.49
5.02
8.33
11.01
13.45
15.79
18.02
20.09
22.00
23.80
25.48
27.00
28.25
29.16
29.74
30.09
30.38
30.76
31.30
31.95
32.56
32.90
32.80
32.18
31.08
29.62
27.95
26.21
24.46
22.73
20.99
19.20
17.36
15.49
13.57
11.57
9.52
7.42
5.32
3.24
1.10
-1.26
-4.05
-7.34
-11.05
-14.89
-18.52
-21.69
-24.37
-26.74
-29.08
-31.73
-34.96
-38.95
-43.71
-48.94
-53.92
-57.57
-58.66
-56.29
-50.19
-40.98
-29.94
-18.62
-8.34
0.08
6.42
10.86
13.83
15.78
17.11
18.13
19.08
20.12
21.29
22.58
23.90
25.13
26.16
26.92
27.41
27.67
27.83
28.00
28.21
28.43
28.48
28.17
27.33
25.89
23.92
21.62
19.28
17.11
15.24
13.58
11.97
10.24
8.32
6.27
4.24
2.30
0.39
-1.67
-4.11
-7.01
-10.28
-13.67
-16.93
-19.92
-22.67
-25.36
-28.19
-31.34
-35.01
-39.33
-44.32
-49.66
-54.59
-57.97
-58.59
-55.57
-48.82
-39.12
-27.90
-16.78
-7.05
0.62
6.21
10.05
12.64
14.37
15.55
16.40
17.10
17.83
18.68
19.62
20.57
21.36
21.89
22.14
22.21
22.27
22.46
22.86
23.42
23.99
24.36
24.37
23.91
23.00
21.68
20.07
18.27
16.40
14.57
12.80
11.09
9.39
7.62
5.81
4.04
2.47
1.19
0.22
-0.58
-1.46
-2.68
-4.41
-6.63
-9.19
-11.86
-14.43
-16.72
-18.70
-20.44
-22.15
-24.17
-26.86
-30.44
-34.82
-39.44
-43.34
-45.34
-44.47
-40.24
-32.89
-23.29
-12.62
-2.07
7.41
15.26
21.23
25.37
27.95
29.33
29.95
30.20
30.35
30.49
30.54
30.39
29.94
29.19
28.27
27.31
26.41
25.62
24.98
24.47
24.09
23.87
23.75
23.60
23.22
22.38
20.95
18.98
16.71
14.45
12.46
10.84
9.45
8.01
6.24
4.05
1.56
-0.87
-2.89
-4.35
-5.36
-6.28
-7.56
-9.47
-11.96
-14.71
-17.30
-19.41
-21.03
-22.36
-23.75
-25.50
-27.86
-31.02
-35.09
-39.95
-45.05
-49.36
-51.55
-50.47
-45.58
-37.34
-27.02
-16.29
-6.64
1.09
6.79
10.83
13.74
15.98
17.77
19.19
20.24
21.00
21.54
21.94
22.28
22.54
22.74
22.90
23.10
23.48
24.18
25.19
26.38
27.48
28.11
28.04
27.16
25.61
23.66
21.63
19.76
18.03
16.25
14.17
11.61
8.62
5.52
2.73
0.55
-0.97
-2.15
-3.45
-5.26
-7.74
-10.71
-13.84
-16.80
-19.43
-21.77
-24.08
-26.66
-29.84
-33.83
-38.56
-43.62
-48.15
-51.07
-51.30
-48.17
-41.73
-32.76
-22.57
-12.57
-3.91
2.84
7.62
10.76
12.72
13.99
14.96
15.93
17.09
18.48
19.98
21.37
22.41
22.98
23.11
22.98
22.81
22.71
22.72
22.78
22.83
22.86
22.83
22.67
22.29
21.61
20.59
19.30
17.85
16.37
14.89
13.37
11.74
9.92
7.86
5.61
3.22
0.84
-1.35
-3.18
-4.51
-5.39
-6.06
-6.92
-8.35
-10.51
-13.26
-16.21
-18.92
-21.06
-22.58
-23.71
-24.83
-26.35
-28.59
-31.66
-35.45
-39.54
-43.23
-45.60
-45.76
-43.08
-37.53
-29.70
-20.72
-11.87
-4.27
1.48
5.30
7.61
9.00
10.00
10.91
11.76
12.45
12.85
12.96
12.94
13.00
13.30
13.89
14.66
15.43
16.06
16.53
16.89
17.22
17.56
17.85
17.97
17.83
17.39
16.69
15.83
14.92
14.01
13.08
12.07
10.90
9.56
8.07
6.48
4.83
3.14
1.40
-0.35
-2.08
-3.74
-5.29
-6.77
-8.24
-9.81
-11.51
-13.35
-15.27
-17.21
-19.12
-21.02
-22.96
-25.07
-27.52
-30.50
-34.15
-38.40
-42.88
-46.84
-49.34
-49.46
-46.69
-41.10
-33.37
-24.55
-15.76
-7.82
-1.22
3.97
7.84
10.55
12.25
13.09
13.32
13.23
13.16
13.33
13.80
14.44
15.08
15.56
15.87
16.12
16.53
17.27
18.36
19.63
20.79
21.55
21.68
21.19
20.18
18.86
17.40
15.90
14.40
12.86
11.26
9.60
7.90
6.20
4.58
3.08
1.72
0.43
-0.92
-2.53
-4.60
-7.22
-10.33
-13.72
-17.11
-20.22
-22.92
-25.32
-27.70
-30.46
-33.90
-38.00
-42.37
-46.23
-48.62
-48.67
-45.99
-40.69
-33.43
-25.17
-16.96
-9.58
-3.54
1.01
4.23
6.43
8.00
9.28
10.50
11.81
13.20
14.62
15.93
17.01
17.73
18.05
18.03
17.85
17.77
18.01
18.66
19.64
20.66
21.39
21.55
21.02
19.85
18.24
16.43
14.68
13.19
12.08
11.29
10.68
10.01
9.06
7.75
6.13
4.39
2.73
1.26
-0.04
-1.35
-2.88
-4.81
-7.18
-9.88
-12.71
-15.45
-17.97
-20.24
-22.39
-24.64
-27.30
-30.61
-34.75
-39.72
-45.24
-50.76
-55.40
-58.16
-58.15
-54.87
-48.49
-39.77
-29.91
-20.16
-11.49
-4.40
1.11
5.34
8.68
11.49
13.96
16.16
18.08
19.66
20.89
21.82
22.50
22.97
23.23
23.25
22.99
22.53
21.98
21.51
21.18
20.93
20.52
19.75
18.52
16.93
15.23
13.71
12.46
11.44
10.42
9.20
7.71
6.06
4.49
3.18
2.15
1.22
0.06
-1.62
-3.89
-6.57
-9.32
-11.83
-13.99
-15.90
-17.85
-20.10
-22.83
-26.14
-30.06
-34.55
-39.39
-43.99
-47.43
-48.63
-46.77
-41.69
-34.03
-25.01
-16.01
-8.01
-1.44
3.75
7.89
11.25
13.97
16.06
17.53
18.53
19.25
19.91
20.64
21.41
22.08
22.50
22.59
22.47
22.36
22.55
23.19
24.24
25.43
26.41
26.85
26.58
25.65
24.26
22.67
21.04
19.48
17.94
16.34
14.59
12.64
10.49
8.22
5.99
3.91
2.04
0.36
-1.27
-3.00
-4.96
-7.18
-9.58
-12.03
-14.42
-16.69
-18.87
-21.06
-23.39
-26.07
-29.33
-33.30
-37.89
-42.58
-46.45
-48.38
-47.41
-43.09
-35.73
-26.32
-16.27
-6.93
0.74
6.39
10.22
12.76
14.61
16.26
17.91
19.61
21.22
22.66
23.88
24.93
25.84
26.62
27.15
27.33
27.08
26.47
25.70
25.01
24.49
24.08
23.55
22.61
21.11
19.12
16.86
14.64
12.67
11.01
9.57
8.23
6.95
5.77
4.76
3.96
3.26
2.44
1.28
-0.38
-2.46
-4.72
-6.83
-8.54
-9.77
-10.64
-11.39
-12.25
-13.31
-14.53
-15.78
-16.91
-17.82
-18.52
-19.09
-19.73
-20.72
-22.39
-25.03
-28.65
-32.87
-36.77
-39.18
-39.01
-35.70
-29.52
-21.48
-12.96
-5.23
0.92
5.31
8.17
9.92
10.95
11.61
12.19
12.93
14.02
15.47
17.12
18.73
20.10
21.13
21.92
22.56
23.15
23.73
24.27
24.74
25.19
25.65
26.16
26.62
26.87
26.74
26.16
25.20
24.06
22.94
21.95
21.05
20.12
19.04
17.79
16.51
15.38
14.47
13.76
12.98
11.86
10.22
8.06
5.54
2.90
0.29
-2.31
-5.04
-8.08
-11.52
-15.25
-19.00
-22.45
-25.31
-27.52
-29.21
-30.64
-32.20
-34.20
-36.82
-39.98
-43.27
-45.93
-47.04
-45.76
-41.67
-34.96
-26.43
-17.24
-8.59
-1.37
4.03
7.65
9.84
11.05
11.65
11.94
12.22
12.71
13.69
15.29
17.51
20.06
22.50
24.32
25.21
25.11
24.32
23.28
22.40
21.90
21.77
21.79
21.66
21.14
20.11
18.59
16.69
14.66
12.69
10.98
9.60
8.51
7.59
6.64
5.50
4.09
2.44
0.65
-1.10
-2.65
-3.87
-4.82
-5.58
-6.36
-7.28
-8.45
-9.79
-11.22
-12.61
-13.94
-15.30
-16.91
-19.09
-22.07
-25.89
-30.31
-34.64
-37.95
-39.23
-37.70
-33.16
-26.07
-17.47
-8.71
-1.01
4.87
8.70
10.80
11.70
11.99
12.08
12.17
12.33
12.51
12.71
12.92
13.14
13.40
13.71
14.08
14.53
15.05
15.60
16.17
16.70
17.16
17.48
17.60
17.43
16.87
15.91
14.59
13.01
11.33
9.65
8.08
6.71
5.64
4.91
4.46
4.12
3.62
2.76
1.54
0.17
-1.07
-1.94
-2.43
-2.74
-3.14
-3.89
-5.11
-6.85
-9.12
-11.89
-15.13
-18.67
-22.29
-25.71
-28.78
-31.54
-34.26
-37.23
-40.56
-43.92
-46.54
-47.39
-45.60
-40.79
-33.34
-24.29
-15.03
-6.82
-0.42
3.98
6.65
8.09
8.80
9.15
9.40
9.74
10.24
10.95
11.78
12.62
13.33
13.86
14.21
14.47
14.70
14.92
15.07
15.03
14.72
14.13
13.32
12.39
11.44
10.51
9.63
8.77
7.93
7.19
6.58
6.13
5.77
5.36
4.74
3.81
2.63
1.30
0.02
-1.06
-1.89
-2.49
-2.96
-3.39
-3.91
-4.66
-5.76
-7.25
-9.09
-11.10
-13.08
-14.88
-16.47
-17.97
-19.58
-21.57
-24.13
-27.29
-30.85
-34.29
-36.83
-37.58
-35.83
-31.35
-24.55
-16.35
-8.00
-0.65
4.94
8.53
10.34
10.95
11.02
11.11
11.57
12.48
13.70
14.97
16.04
16.73
17.00
16.85
16.42
15.84
15.27
14.88
14.73
14.79
14.92
14.90
14.56
13.85
12.86
11.75
10.72
9.82
9.00
8.12
7.03
5.65
4.02
2.29
0.64
-0.78
-1.88
-2.73
-3.45
-4.22
-5.18
-6.39
-7.85
-9.50
-11.32
-13.27
-15.35
-17.57
-20.00
-22.75
-25.96
-29.69
-33.65
-37.21
-39.46
-39.47
-36.76
-31.46
-24.36
-16.61
-9.36
-3.38
1.09
4.17
6.22
7.60
8.56
9.30
9.96
10.74
11.73
12.99
14.40
15.77
16.84
17.41
17.46
17.09
16.53
16.03
15.77
15.83
16.13
16.53
16.79
16.66
15.97
14.70
13.03
11.27
9.75
8.63
7.93
7.46
6.99
6.37
5.51
4.46
3.21
1.84
0.36
-1.16
-2.64
-4.02
-5.32
-6.64
-8.13
-9.89
-11.92
-14.09
-16.23
-18.19
-19.92
-21.48
-23.01
-24.76
-26.97
-29.82
-33.29
-37.05
-40.40
-42.43
-42.30
-39.55
-34.31
-27.32
-19.67
-12.45
-6.40
-1.78
1.58
4.03
5.98
7.68
9.26
10.73
12.09
13.34
14.50
15.59
16.58
17.47
18.19
18.71
19.04
19.20
19.27
19.31
19.38
19.49
19.60
19.56
19.23
18.50
17.36
15.87
14.23
12.62
11.17
9.94
8.89
7.93
6.95
5.89
4.70
3.44
2.24
1.25
0.53
0.00
-0.57
-1.49
-2.95
-4.96
-7.26
-9.51
-11.43
-12.88
-13.99
-15.04
-16.36
-18.24
-20.87
-24.34
-28.55
-33.21
-37.74
-41.34
-43.19
-42.65
-39.56
-34.28
-27.64
-20.67
-14.26
-8.97
-4.89
-1.81
0.57
2.54
4.15
5.39
6.18
6.53
6.61
6.65
6.90
7.52
8.56
9.96
11.59
13.33
15.09
16.76
18.29
19.59
20.54
21.06
21.06
20.49
19.41
17.96
16.35
14.83
13.56
12.61
11.90
11.23
10.43
9.39
8.15
6.88
5.78
5.00
4.53
4.14
3.50
2.28
0.35
-2.23
-5.20
-8.22
-11.00
-13.42
-15.56
-17.68
-20.14
-23.29
-27.27
-31.81
-36.18
-39.37
-40.31
-38.34
-33.42
-26.24
-17.99
-9.95
-3.14
1.95
5.35
7.54
9.12
10.61
12.30
14.21
16.13
17.82
19.11
19.99
20.59
21.05
21.45
21.77
21.94
21.92
21.77
21.66
21.80
22.30
23.05
23.75
24.03
23.61
22.48
20.85
19.09
17.51
16.28
15.33
14.47
13.48
12.23
10.71
9.02
7.34
5.79
4.42
3.16
1.89
0.39
-1.50
-3.80
-6.43
-9.19
-11.88
-14.36
-16.59
-18.61
-20.54
-22.46
-24.49
-26.78
-29.51
-32.80
-36.55
-40.33
-43.36
-44.71
-43.62
-39.86
-33.82
-26.43
-18.80
-11.82
-6.00
-1.39
2.25
5.23
7.81
10.13
12.23
14.13
15.80
17.21
18.35
19.24
19.91
20.42
20.79
21.00
21.04
20.94
20.76
20.64
20.63
20.69
20.60
20.08
18.93
17.13
14.91
12.64
10.70
9.31
8.40
7.66
6.69
5.13
2.85
-0.01
-3.10
-6.02
-8.48
-10.45
-12.09
-13.78
-15.87
-18.62
-22.15
-26.30
-30.73
-34.80
-37.73
-38.67
-37.06
-32.77
-26.28
-18.54
-10.71
-3.79
1.66
5.64
8.53
10.89
13.18
15.62
18.16
20.61
22.73
24.35
25.42
25.97
26.05
25.70
24.93
23.78
22.39
21.06
20.10
19.77
20.07
20.74
21.28
21.23
20.37
18.78
16.82
14.96
13.44
12.26
11.14
9.78
7.99
5.81
3.49
1.31
-0.56
-2.12
-3.56
-5.09
-6.84
-8.84
-11.00
-13.14
-15.14
-16.88
-18.33
-19.52
-20.47
-21.28
-22.11
-23.22
-24.90
-27.34
-30.47
-33.79
-36.37
-37.14
-35.30
-30.67
-23.84
-15.97
-8.39
-2.07
2.64
5.96
8.49
10.80
13.20
15.77
18.36
20.81
23.01
24.91
26.46
27.58
28.18
28.20
27.73
26.91
26.02
25.30
24.93
24.89
25.05
25.16
25.01
24.45
23.47
22.19
20.78
19.41
18.25
17.33
16.59
15.85
14.92
13.65
12.03
10.23
8.45
6.89
5.57
4.34
2.98
1.28
-0.79
-3.08
-5.38
-7.45
-9.18
-10.65
-12.03
-13.56
-15.50
-18.02
-21.10
-24.46
-27.54
-29.58
-29.83
-27.86
-23.70
-17.93
-11.47
-5.28
-0.10
3.74
6.37
8.17
9.59
10.95
12.37
13.76
14.94
15.81
16.34
16.66
16.87
17.01
17.05
16.86
16.37
15.61
14.74
13.99
13.54
13.45
13.62
13.83
13.79
13.31
12.32
10.93
9.36
7.83
6.54
5.55
4.87
4.38
4.00
3.57
2.91
1.85
0.22
-1.98
-4.58
-7.28
-9.70
-11.56
-12.76
-13.48
-14.04
-14.91
-16.51
-19.15
-22.85
-27.23
-31.52
-34.70
-35.77
-34.10
-29.67
-23.08
-15.38
-7.68
-0.88
4.58
8.70
11.78
14.24
16.34
18.21
19.79
20.94
21.56
21.60
21.08
20.05
18.52
16.57
14.28
11.90
9.67
7.90
6.72
6.10
5.85
5.67
5.33
4.68
3.76
2.70
1.68
0.85
0.22
-0.31
-0.86
-1.51
-2.22
-2.82
-3.16
-3.20
-3.02
-2.80
-2.66
-2.64
-2.63
-2.53
-2.36
-2.29
-2.60
-3.55
-5.19
-7.39
-9.81
-12.09
-14.00
-15.52
-16.80
-18.16
-19.90
-22.19
-25.03
-28.16
-31.09
-33.17
-33.74
-32.31
-28.73
-23.32
-16.82
-10.17
-4.29
0.25
3.34
5.29
6.63
7.89
9.39
11.20
13.19
15.12
16.74
17.89
18.50
18.60
18.29
17.72
17.02
16.26
15.55
14.92
14.44
14.07
13.75
13.27
12.42
11.02
9.12
6.92
4.74
2.87
1.44
0.38
-0.49
-1.40
-2.47
-3.74
-5.15
-6.66
-8.28
-10.05
-12.01
-14.16
-16.43
-18.71
-20.85
-22.75
-24.36
-25.73
-26.98
-28.25
-29.65
-31.23
-32.86
-34.19
-34.67
-33.71
-30.87
-26.11
-19.83
-12.87
-6.16
-0.51
3.73
6.61
8.53
10.02
11.44
12.98
14.61
16.16
17.49
18.45
19.02
19.24
19.19
18.94
18.54
18.03
17.42
16.80
16.23
15.79
15.52
15.36
15.21
14.95
14.54
13.98
13.37
12.78
12.25
11.79
11.32
10.78
10.06
9.06
7.73
6.10
4.27
2.43
0.75
-0.69
-1.90
-3.01
-4.18
-5.56
-7.24
-9.22
-11.42
-13.70
-15.86
-17.73
-19.24
-20.45
-21.58
-22.96
-24.85
-27.32
-30.17
-32.89
-34.76
-35.10
-33.47
-29.79
-24.48
-18.27
-11.98
-6.36
-1.85
1.40
3.53
4.79
5.55
6.07
6.59
7.18
7.82
8.41
8.90
9.26
9.53
9.79
10.10
10.40
10.59
10.57
10.29
9.82
9.31
8.94
8.81
8.89
9.04
9.04
8.69
7.93
6.82
5.53
4.25
3.10
2.13
1.32
0.59
-0.10
-0.80
-1.52
-2.31
-3.17
-4.06
-4.93
-5.70
-6.33
-6.89
-7.53
-8.43
-9.66
-11.18
-12.79
-14.25
-15.36
-16.08
-16.55
-17.11
-18.13
-19.87
-22.42
-25.51
-28.58
-30.84
-31.44
-29.82
-25.91
-20.25
-13.82
-7.72
-2.81
0.59
2.64
3.85
4.71
5.59
6.56
7.55
8.49
9.37
10.26
11.20
12.16
13.01
13.57
13.70
13.41
12.86
12.35
12.17
12.48
13.28
14.29
15.21
15.74
15.77
15.33
14.60
13.77
12.99
12.26
11.50
10.56
9.28
7.64
5.72
3.71
1.84
0.22
-1.21
-2.66
-4.35
-6.40
-8.77
-11.21
-13.40
-15.14
-16.36
-17.18
-17.82
-18.56
-19.66
-21.37
-23.80
-26.81
-29.99
-32.53
-33.62
-32.60
-29.32
-24.27
-18.37
-12.63
-7.83
-4.23
-1.67
0.27
1.98
3.68
5.42
7.10
8.68
10.19
11.63
13.00
14.21
15.11
15.60
15.64
15.29
14.66
13.88
13.05
12.26
11.57
11.01
10.56
10.18
9.77
9.28
8.72
8.17
7.76
7.57
7.54
7.55
7.42
7.02
6.32
5.35
4.18
2.86
1.43
-0.01
-1.36
-2.51
-3.40
-4.14
-4.91
-5.93
-7.38
-9.29
-11.49
-13.76
-15.82
-17.59
-19.17
-20.88
-23.09
-25.97
-29.31
-32.44
-34.41
-34.34
-31.81
-27.07
-20.93
-14.49
-8.74
-4.22
-0.99
1.27
2.93
4.37
5.75
7.14
8.55
9.99
11.43
12.80
13.98
14.80
15.15
15.05
14.66
14.24
14.07
14.36
15.10
16.14
17.16
17.81
17.86
17.24
16.11
14.76
13.47
12.44
11.64
10.87
9.89
8.52
6.76
4.76
2.73
0.86
-0.74
-2.09
-3.26
-4.37
-5.56
-6.93
-8.55
-10.35
-12.22
-13.99
-15.54
-16.91
-18.31
-20.03
-22.34
-25.43
-29.21
-33.30
-37.00
-39.47
-39.93
-37.96
-33.67
-27.67
-20.95
-14.50
-9.04
-4.85
-1.84
0.32
1.98
3.44
4.88
6.38
7.97
9.59
11.14
12.50
13.59
14.41
15.07
15.70
16.41
17.22
18.08
18.86
19.44
19.77
19.83
19.64
19.23
18.64
17.89
17.02
16.05
15.00
13.86
12.61
11.23
9.75
8.22
6.69
5.17
3.62
1.95
0.06
-2.06
-4.33
-6.65
-8.88
-11.02
-13.19
-15.64
-18.69
-22.57
-27.22
-32.25
-36.92
-40.31
-41.62
-40.40
-36.72
-31.11
-24.42
-17.54
-11.21
-5.86
-1.60
1.74
4.48
7.00
9.55
12.16
14.71
16.95
18.74
20.09
21.19
22.24
23.29
24.23
24.86
25.10
25.02
24.88
24.92
25.17
25.44
25.39
24.76
23.52
21.89
20.18
18.69
17.54
16.70
16.07
15.52
14.99
14.43
13.81
13.06
12.13
10.97
9.59
8.08
6.56
5.08
3.60
1.97
-0.05
-2.63
-5.72
-9.11
-12.41
-15.31
-17.65
-19.54
-21.21
-22.96
-25.06
-27.69
-30.94
-34.70
-38.52
-41.66
-43.15
-42.13
-38.23
-31.83
-23.96
-15.96
-9.04
-3.85
-0.38
1.89
3.65
5.48
7.66
10.17
12.84
15.44
17.80
19.82
21.46
22.73
23.61
24.14
24.40
24.56
24.81
25.30
26.08
27.01
27.83
28.22
27.93
26.89
25.21
23.18
21.19
19.51
18.28
17.45
16.76
15.92
14.74
13.20
11.48
9.85
8.55
7.67
7.03
6.34
5.27
3.59
1.33
-1.30
-3.93
-6.24
-8.07
-9.48
-10.81
-12.43
-14.72
-17.91
-21.98
-26.67
-31.47
-35.67
-38.47
-39.19
-37.42
-33.25
-27.29
-20.49
-13.85
-8.14
-3.66
-0.27
2.44
4.92
7.45
10.09
12.72
15.13
17.18
18.84
20.16
21.21
22.01
22.57
22.85
22.88
22.75
22.61
22.59
22.70
22.84
22.80
22.42
21.65
20.59
19.44
18.40
17.59
17.04
16.66
16.27
15.65
14.63
13.18
11.37
9.42
7.53
5.80
4.19
2.60
0.94
-0.72
-2.23
-3.41
-4.24
-4.83
-5.46
-6.38
-7.66
-9.19
-10.74
-12.14
-13.31
-14.35
-15.47
-16.88
-18.75
-21.19
-24.15
-27.35
-30.20
-31.94
-31.77
-29.26
-24.50
-18.19
-11.38
-5.13
-0.15
3.44
5.95
7.94
9.92
12.14
14.58
17.04
19.32
21.28
22.88
24.15
25.09
25.68
25.89
25.79
25.50
25.22
25.09
25.13
25.19
25.09
24.65
23.80
22.62
21.21
19.70
18.22
16.88
15.72
14.77
13.97
13.18
12.25
11.05
9.59
7.98
6.43
5.12
4.18
3.60
3.26
2.95
2.40
1.45
0.06
-1.69
-3.62
-5.51
-7.21
-8.64
-9.83
-10.86
-11.88
-13.08
-14.63
-16.60
-18.82
-20.87
-22.09
-21.82
-19.63
-15.52
-10.01
-3.91
1.82
6.45
9.60
11.37
12.13
12.40
12.59
12.91
13.39
13.92
14.38
14.66
14.68
14.37
13.64
12.45
10.90
9.22
7.74
6.71
6.20
6.08
6.05
5.84
5.24
4.21
2.83
1.26
-0.32
-1.77
-3.03
-4.13
-5.11
-6.02
-6.87
-7.60
-8.15
-8.52
-8.80
-9.19
-9.87
-10.92
-12.27
-13.77
-15.23
-16.54
-17.72
-18.93
-20.40
-22.32
-24.81
-27.79
-30.92
-33.64
-35.26
-35.26
-33.37
-29.79
-25.08
-20.03
-15.39
-11.67
-9.05
-7.40
-6.42
-5.70
-4.82
-3.54
-1.72
0.51
2.89
5.06
6.72
7.74
8.22
8.43
8.70
9.34
10.49
12.05
13.70
14.91
15.07
13.68
10.54
5.91
0.49
-4.68
-8.58
-10.54
-10.47
-8.88
-6.62
-4.58
-3.35
-3.14
-3.82
-5.14
-6.89
-8.98
-11.39
-14.02
-16.64
-18.91
-20.46
-21.06
-20.73
-19.66
-18.20
-16.73
-15.58
-15.01
-15.14
-15.94
-17.19
-18.44
-19.10
-18.66
-16.80
-13.51
-9.14
-4.26
0.53
4.77
8.24
10.95
13.11
14.93
16.58
18.08
19.32
20.16
20.47
20.20
19.41
18.22
16.79
15.24
13.71
12.30
11.17
10.44
10.20
10.46
11.08
11.81
12.37
12.53
12.21
11.48
10.50
9.42
8.36
7.34
6.38
5.47
4.67
3.97
3.36
2.71
1.88
0.78
-0.59
-2.14
-3.70
-5.12
-6.28
-7.22
-8.00
-8.74
-9.53
-10.39
-11.32
-12.32
-13.45
-14.83
-16.54
-18.54
-20.60
-22.33
-23.36
-23.46
-22.66
-21.23
-19.47
-17.65
-15.81
-13.89
-11.71
-9.14
-6.13
-2.79
0.65
3.91
6.71
8.92
10.58
11.87
13.05
14.33
15.81
17.47
19.23
20.97
22.55
23.77
24.39
24.10
22.70
20.20
16.83
13.06
9.40
6.31
3.98
2.43
1.48
0.88
0.41
-0.07
-0.61
-1.22
-1.87
-2.58
-3.35
-4.19
-5.08
-6.00
-6.88
-7.73
-8.69
-9.90
-11.55
-13.57
-15.63
-17.16
-17.50
-16.27
-13.48
-9.65
-5.64
-2.28
-0.11
0.78
0.70
0.16
-0.37
-0.56
-0.25
0.58
1.88
3.52
5.29
6.93
8.14
8.74
8.74
8.31
7.74
7.28
7.01
6.91
6.84
6.69
6.39
5.97
5.51
5.09
4.82
4.73
4.89
5.27
5.81
6.37
6.84
7.09
7.08
6.82
6.40
5.91
5.41
4.87
4.23
3.30
1.94
0.10
-2.12
-4.47
-6.64
-8.38
-9.59
-10.32
-10.78
-11.19
-11.68
-12.28
-12.92
-13.51
-14.07
-14.76
-15.81
-17.44
-19.72
-22.51
-25.42
-27.88
-29.31
-29.19
-27.25
-23.59
-18.65
-13.16
-7.94
-3.68
-0.74
0.96
1.80
2.33
3.03
4.15
5.73
7.59
9.48
11.16
12.42
13.16
13.38
13.17
12.68
12.13
11.70
11.49
11.46
11.44
11.17
10.40
9.01
7.09
4.94
2.99
1.59
0.94
0.94
1.23
1.32
0.79
-0.59
-2.74
-5.38
-8.04
-10.36
-12.10
-13.32
-14.26
-15.31
-16.73
-18.64
-20.90
-23.16
-25.06
-26.36
-27.03
-27.26
-27.34
-27.44
-27.43
-26.94
-25.39
-22.29
-17.50
-11.28
-4.34
2.42
8.23
12.62
15.52
17.18
17.98
18.27
18.24
17.99
17.57
17.08
16.68
16.48
16.50
16.62
16.63
16.33
15.67
14.72
13.68
12.75
12.07
11.68
11.46
11.25
10.86
10.17
9.20
8.08
6.97
5.99
5.13
4.24
3.12
1.69
0.03
-1.65
-3.12
-4.30
-5.27
-6.24
-7.33
-8.61
-10.02
-11.45
-12.83
-14.15
-15.44
-16.70
-17.95
-19.23
-20.66
-22.43
-24.66
-27.26
-29.79
-31.55
-31.73
-29.83
-25.81
-20.20
-13.91
-7.91
-3.00
0.40
2.25
2.80
2.47
1.77
1.17
1.06
1.64
2.88
4.50
6.18
7.63
8.71
9.47
10.04
10.51
10.93
11.25
11.41
11.39
11.18
10.80
10.20
9.33
8.17
6.82
5.55
4.73
4.66
5.41
6.80
8.35
9.56
10.00
9.56
8.39
6.87
5.45
4.37
3.68
3.16
2.51
1.49
0.04
-1.68
-3.39
-4.83
-5.82
-6.40
-6.77
-7.27
-8.29
-10.10
-12.76
-15.98
-19.15
-21.51
-22.33
-21.18
-18.07
-13.48
-8.16
-2.96
1.43
4.63
6.58
7.54
7.92
8.24
8.87
10.04
11.73
13.70
15.63
17.20
18.24
18.79
19.03
19.21
19.51
19.94
20.33
20.46
20.15
19.39
18.30
17.06
15.82
14.57
13.25
11.78
10.18
8.52
6.98
5.65
4.57
3.62
2.65
1.51
0.13
-1.44
-3.05
-4.53
-5.78
-6.77
-7.55
-8.22
-8.86
-9.58
-10.53
-11.94
-14.00
-16.78
-20.03
-23.16
-25.34
-25.85
-24.33
-20.93
-16.27
-11.21
-6.50
-2.60
0.44
2.83
4.91
6.96
9.07
11.15
13.00
14.42
15.23
15.41
15.06
14.32
13.39
12.40
11.49
10.78
10.37
10.31
10.57
11.00
11.39
11.50
11.22
10.55
9.69
8.82
8.02
7.28
6.43
5.32
3.85
2.10
0.23
-1.57
-3.21
-4.71
-6.22
-7.91
-9.92
-12.21
-14.65
-16.98
-18.99
-20.62
-22.00
-23.46
-25.39
-28.09
-31.75
-36.31
-41.49
-46.73
-51.29
-54.35
-55.21
-53.58
-49.67
-44.18
-38.02
-32.02
-26.63
-21.95
-17.72
-13.63
-9.46
-5.14
-0.71
3.71
7.99
12.00
15.58
18.56
20.77
22.15
22.73
22.71
22.30
21.65
20.88
19.97
18.93
17.76
16.57
15.45
14.46
13.60
12.77
11.88
10.92
9.93
9.03
8.31
7.79
7.44
7.24
7.21
7.38
7.72
8.10
8.35
8.32
8.10
8.01
8.64
10.63
14.45
20.21
27.57
35.78
43.75
50.33
54.61
56.17
55.20
52.49
49.18
46.45
45.23
46.09
49.15
54.04
60.05
66.12
71.05
73.66
73.11
69.10
62.05
53.14
44.02
36.52
32.03
31.10
33.29
37.39
41.89
45.67
48.26
49.79
50.55
50.51
49.19
45.85
40.05
32.07
22.89
13.95
6.58
1.70
-0.35
0.31
3.26
7.89
13.37
18.61
22.35
23.27
20.48
13.71
3.54
-8.89
-22.29
-35.65
-48.49
-60.68
-71.97
-81.65
-88.45
-90.87
-87.84
-79.21
-65.93
-49.78
-33.06
-18.32
-8.12
-4.73
-9.53
-22.36
-41.23
-62.50
-81.95
-95.99
-102.71
-102.26
-96.30
-87.14
-76.66
-65.85
-54.71
-42.70
-29.36
-14.83
-0.02
13.48
23.95
30.05
31.13
27.34
19.38
8.29
-4.63
-17.87
-29.91
-39.59
-46.52
-51.24
-54.96
-58.88
-63.55
-68.62
-73.19
-76.49
-78.39
-79.51
-80.70
-82.37
-84.09
-84.69
-82.86
-77.83
-69.79
-59.78
-49.20
-39.22
-30.42
-22.79
-16.04
-9.90
-4.42
0.11
3.42
5.49
6.70
7.62
8.77
10.37
12.22
13.91
15.08
15.63
15.77
15.94
16.62
18.04
20.11
22.46
24.59
26.04
26.63
26.47
25.88
25.25
24.89
24.86
25.01
25.02
24.61
23.58
21.96
19.86
17.53
15.14
12.83
10.59
8.32
5.84
2.95
-0.40
-4.17
-8.09
-11.85
-15.12
-17.78
-19.97
-22.05
-24.59
-28.03
-32.59
-38.00
-43.50
-47.89
-49.82
-48.18
-42.59
-33.66
-22.88
-12.16
-3.16
3.32
7.50
10.34
12.98
16.17
19.99
24.04
27.73
30.70
32.90
34.48
35.58
36.20
36.27
35.80
35.00
34.24
33.85
34.06
34.81
35.87
36.93
37.66
37.88
37.48
36.46
34.92
33.03
31.00
29.00
27.12
25.35
23.64
21.96
20.34
18.79
17.29
15.76
14.07
12.14
9.96
7.63
5.25
2.86
0.39
-2.29
-5.32
-8.70
-12.34
-16.03
-19.55
-22.79
-25.79
-28.79
-32.10
-36.04
-40.74
-46.00
-51.29
-55.71
-58.25
-58.02
-54.53
-47.91
-38.91
-28.70
-18.55
-9.48
-2.01
3.78
8.25
11.83
14.86
17.50
19.70
21.40
22.59
23.39
24.02
24.68
25.46
26.33
27.18
27.87
28.37
28.77
29.16
29.62
30.10
30.38
30.19
29.33
27.71
25.49
22.96
20.47
18.25
16.36
14.66
12.82
10.53
7.54
3.86
-0.28
-4.47
-8.27
-11.45
-14.00
-16.31
-18.86
-22.18
-26.62
-32.19
-38.48
-44.73
-49.84
-52.57
-51.85
-47.14
-38.69
-27.60
-15.53
-4.19
5.20
12.22
17.18
20.84
23.94
26.90
29.74
32.24
34.15
35.35
35.92
36.02
35.84
35.50
35.06
34.52
33.91
33.31
32.83
32.53
32.36
32.12
31.50
30.22
28.10
25.21
21.86
18.54
15.69
13.60
12.22
11.19
9.92
7.83
4.55
0.13
-5.01
-10.22
-14.85
-18.52
-21.25
-23.43
-25.66
-28.49
-32.24
-36.78
-41.48
-45.37
-47.34
-46.54
-42.70
-36.24
-28.27
-20.20
-13.32
-8.33
-5.25
-3.33
-1.54
1.09
5.06
10.29
16.22
22.09
27.23
31.34
34.43
36.73
38.50
39.83
40.76
41.28
41.50
41.64
41.91
42.40
42.98
43.32
43.07
42.04
40.28
38.09
35.86
33.86
32.14
30.53
28.66
26.22
23.01
19.13
14.92
10.89
7.54
5.17
3.74
2.89
1.99
0.46
-2.01
-5.34
-9.14
-12.82
-15.96
-18.41
-20.39
-22.36
-24.87
-28.33
-32.91
-38.35
-44.02
-48.90
-51.87
-51.94
-48.59
-41.97
-32.91
-22.66
-12.54
-3.59
3.66
9.20
13.34
16.55
19.20
21.53
23.60
25.41
26.95
28.24
29.33
30.27
31.06
31.66
32.01
32.16
32.20
32.26
32.43
32.70
32.91
32.87
32.37
31.31
29.71
27.71
25.52
23.34
21.30
19.41
17.57
15.63
13.48
11.10
8.63
6.27
4.30
2.87
1.94
1.30
0.59
-0.55
-2.36
-4.86
-7.89
-11.21
-14.55
-17.71
-20.59
-23.19
-25.66
-28.24
-31.25
-34.91
-39.21
-43.72
-47.60
-49.79
-49.36
-45.91
-39.74
-31.76
-23.19
-15.17
-8.35
-2.88
1.48
5.19
8.63
11.93
15.07
17.87
20.21
22.01
23.32
24.22
24.81
25.16
25.31
25.32
25.22
25.06
24.88
24.69
24.52
24.37
24.24
24.03
23.65
22.92
21.73
20.09
18.14
16.10
14.17
12.43
10.84
9.27
7.57
5.66
3.53
1.26
-1.12
-3.54
-5.96
-8.38
-10.76
-13.04
-15.17
-17.14
-19.02
-21.08
-23.66
-27.00
-31.07
-35.34
-38.86
-40.51
-39.42
-35.35
-28.79
-20.81
-12.66
-5.33
0.67
5.31
8.82
11.47
13.45
14.86
15.78
16.37
16.76
17.08
17.35
17.51
17.50
17.31
16.99
16.63
16.35
16.18
16.09
15.98
15.73
15.23
14.38
13.16
11.57
9.62
7.40
5.02
2.62
0.34
-1.68
-3.41
-4.87
-6.21
-7.58
-9.13
-10.93
-12.94
-15.02
-17.03
-18.83
-20.40
-21.87
-23.46
-25.46
-28.11
-31.51
-35.53
-39.75
-43.47
-45.86
-46.11
-43.74
-38.75
-31.75
-23.75
-15.89
-9.05
-3.64
0.43
3.51
6.00
8.12
9.88
11.19
11.98
12.30
12.27
12.06
11.74
11.36
10.93
10.48
10.11
9.89
9.87
10.02
10.20
10.23
9.94
9.25
8.19
6.87
5.42
3.94
2.45
0.92
-0.72
-2.45
-4.23
-5.95
-7.53
-8.96
-10.37
-11.96
-13.95
-16.43
-19.35
-22.51
-25.63
-28.43
-30.72
-32.39
-33.34
-33.45
-32.63
-30.91
-28.49
-25.64
-22.58
-19.20
-15.18
-10.17
-4.18
2.18
7.87
11.72
13.05
11.83
8.67
4.38
-0.42
-5.48
-10.86
-16.62
-22.60
-28.32
-33.09
-36.30
-37.65
-37.37
-36.21
-35.27
-35.58
-37.77
-41.71
-46.43
-50.41
-51.95
-49.70
-43.03
-32.22
-18.43
-3.47
10.53
21.57
28.19
29.77
26.53
19.44
9.92
-0.54
-10.62
-19.34
-25.99
-30.16
-31.68
-30.65
-27.52
-23.04
-18.12
-13.53
-9.63
-6.17
-2.46
2.28
8.49
15.95
23.87
31.25
37.29
41.68
44.58
46.36
47.34
47.65
47.29
46.33
44.99
43.62
42.57
41.96
41.70
41.51
41.13
40.42
39.43
38.30
37.21
36.27
35.45
34.70
33.86
32.86
31.67
30.40
29.22
28.25
27.52
26.89
26.13
25.05
23.65
22.11
20.78
19.95
19.75
20.12
20.79
21.46
21.88
22.00
21.90
21.80
21.89
22.37
23.36
24.86
26.72
28.56
29.87
30.11
29.03
26.84
24.20
21.95
20.69
20.33
20.08
18.75
15.46
10.18
3.88
-1.84
-5.52
-6.55
-5.43
-3.54
-2.53
-3.68
-7.57
-14.00
-22.25
-31.41
-40.63
-49.30
-56.94
-63.22
-67.93
-70.89
-72.09
-71.67
-69.97
-67.49
-64.78
-62.28
-60.17
-58.32
-56.27
-53.36
-48.82
-42.04
-32.82
-21.49
-8.96
3.50
14.65
23.58
29.90
33.64
35.09
34.57
32.40
28.80
24.08
18.49
12.32
5.74
-1.08
-7.92
-14.43
-20.06
-24.23
-26.47
-26.60
-24.73
-21.27
-16.75
-11.72
-6.65
-1.83
2.54
6.36
9.51
11.88
13.37
13.98
13.84
13.21
12.43
11.80
11.49
11.48
11.65
11.88
12.10
12.40
12.86
13.58
14.48
15.36
15.93
15.96
15.34
14.15
12.60
10.92
9.26
7.68
6.13
4.50
2.72
0.71
-1.50
-3.84
-6.16
-8.27
-10.05
-11.50
-12.78
-14.18
-16.04
-18.58
-21.79
-25.47
-29.18
-32.38
-34.44
-34.88
-33.42
-30.09
-25.32
-19.79
-14.31
-9.57
-6.04
-3.88
-3.04
-3.34
-4.52
-6.32
-8.40
-10.45
-12.18
-13.41
-14.13
-14.49
-14.88
-15.74
-17.37
-19.77
-22.45
-24.53
-25.02
-23.21
-19.01
-12.92
-5.90
1.06
7.23
12.29
16.14
18.82
20.45
21.18
21.33
21.27
21.32
21.54
21.63
21.05
19.16
15.48
9.81
2.27
-6.67
-16.26
-25.42
-32.93
-37.65
-38.85
-36.46
-31.14
-24.06
-16.54
-9.66
-4.01
0.29
3.48
5.90
7.83
9.38
10.55
11.23
11.44
11.27
10.95
10.71
10.73
10.99
11.36
11.65
11.73
11.59
11.34
11.06
10.72
10.15
9.11
7.42
5.09
2.33
-0.56
-3.29
-5.71
-7.83
-9.82
-11.88
-14.21
-16.95
-20.10
-23.51
-26.76
-29.22
-30.21
-29.19
-26.03
-21.04
-14.99
-8.75
-3.10
1.53
5.05
7.63
9.50
10.82
11.67
12.10
12.20
12.10
11.95
11.87
11.92
12.07
12.22
12.29
12.20
11.91
11.40
10.74
9.99
9.21
8.44
7.69
6.89
5.94
4.73
3.19
1.31
-0.86
-3.16
-5.46
-7.61
-9.60
-11.52
-13.57
-15.98
-18.95
-22.45
-26.21
-29.67
-32.10
-32.76
-31.18
-27.28
-21.47
-14.52
-7.36
-0.81
4.62
8.70
11.51
13.26
14.21
14.67
14.92
15.21
15.72
16.47
17.36
18.14
18.60
18.61
18.20
17.56
16.97
16.66
16.72
17.03
17.30
17.17
16.38
14.86
12.77
10.41
8.07
5.88
3.84
1.79
-0.43
-2.90
-5.53
-8.18
-10.71
-13.02
-15.15
-17.22
-19.40
-21.85
-24.74
-28.13
-31.87
-35.55
-38.51
-39.94
-39.12
-35.70
-29.88
-22.44
-14.43
-6.94
-0.68
4.13
7.71
10.45
12.76
14.82
16.66
18.20
19.40
20.29
20.92
21.35
21.57
21.54
21.27
20.84
20.42
20.16
20.12
20.26
20.45
20.51
20.28
19.68
18.67
17.28
15.58
13.67
11.65
9.52
7.25
4.79
2.15
-0.53
-3.02
-5.07
-6.60
-7.77
-8.93
-10.55
-13.07
-16.71
-21.44
-26.89
-32.37
-36.94
-39.57
-39.50
-36.43
-30.70
-23.16
-14.95
-7.15
-0.51
4.62
8.26
10.69
12.25
13.32
14.16
14.94
15.67
16.30
16.78
17.09
17.27
17.37
17.44
17.46
17.42
17.35
17.31
17.38
17.57
17.79
17.90
17.72
17.19
16.27
14.97
13.26
11.11
8.49
5.47
2.18
-1.17
-4.36
-7.25
-9.81
-12.13
-14.42
-16.93
-19.90
-23.46
-27.47
-31.48
-34.75
-36.46
-35.95
-32.93
-27.65
-20.79
-13.30
-6.14
0.02
4.86
8.49
11.23
13.45
15.39
17.08
18.44
19.32
19.66
19.55
19.17
18.72
18.35
18.14
18.08
18.10
18.08
17.91
17.50
16.81
15.85
14.61
13.04
11.03
8.46
5.27
1.54
-2.51
-6.55
-10.30
-13.55
-16.29
-18.65
-20.91
-23.37
-26.33
-29.95
-34.15
-38.60
-42.69
-45.63
-46.66
-45.32
-41.52
-35.66
-28.45
-20.71
-13.13
-6.12
0.18
5.79
10.76
15.06
18.63
21.47
23.65
25.39
26.90
28.35
29.75
30.95
31.74
31.97
31.58
30.64
29.36
27.97
26.73
25.75
25.02
24.33
23.33
21.72
19.34
16.27
12.79
9.27
6.01
3.10
0.50
-1.94
-4.43
-7.17
-10.40
-14.36
-19.13
-24.48
-29.77
-33.95
-35.94
-34.96
-30.88
-24.28
-16.24
-8.02
-0.65
5.30
9.78
13.07
15.58
17.66
19.44
20.86
21.82
22.22
22.19
21.94
21.75
21.71
21.73
21.52
20.83
19.59
18.00
16.39
15.09
14.17
13.42
12.39
10.64
8.00
4.66
1.17
-1.85
-4.03
-5.39
-6.41
-7.74
-9.97
-13.35
-17.77
-22.80
-27.84
-32.16
-35.01
-35.72
-33.84
-29.31
-22.60
-14.61
-6.46
0.90
6.90
11.42
14.70
17.09
18.84
20.08
20.80
21.00
20.76
20.21
19.50
18.71
17.83
16.78
15.55
14.23
12.99
12.04
11.44
11.10
10.72
9.96
8.53
6.30
3.43
0.22
-2.93
-5.67
-7.82
-9.44
-10.84
-12.53
-15.03
-18.71
-23.52
-28.89
-33.80
-36.99
-37.41
-34.56
-28.69
-20.75
-12.04
-3.80
3.20
8.75
13.09
16.66
19.76
22.46
24.64
26.13
26.92
27.17
27.14
27.06
26.97
26.78
26.36
25.66
24.75
23.82
23.04
22.51
22.16
21.82
21.20
20.06
18.20
15.53
12.14
8.22
4.09
0.06
-3.60
-6.80
-9.51
-11.90
-14.23
-16.79
-19.90
-23.69
-27.97
-32.21
-35.49
-36.85
-35.55
-31.40
-24.87
-16.89
-8.58
-0.89
5.65
10.96
15.24
18.76
21.71
24.12
25.90
26.98
27.35
27.14
26.57
25.86
25.13
24.44
23.80
23.18
22.63
22.23
22.03
22.07
22.24
22.36
22.18
21.43
19.97
17.83
15.26
12.59
10.17
8.18
6.61
5.27
3.89
2.19
0.09
-2.44
-5.23
-8.07
-10.74
-13.04
-14.92
-16.45
-17.88
-19.50
-21.66
-24.68
-28.71
-33.64
-38.95
-43.70
-46.67
-46.78
-43.50
-37.13
-28.74
-19.78
-11.58
-4.88
0.24
4.14
7.31
10.08
12.56
14.68
16.37
17.58
18.34
18.67
18.63
18.26
17.61
16.80
15.98
15.38
15.18
15.49
16.22
17.12
17.83
18.03
17.57
16.53
15.14
13.67
12.28
11.03
9.86
8.70
7.45
6.06
4.51
2.85
1.16
-0.41
-1.76
-2.84
-3.72
-4.61
-5.71
-7.19
-9.08
-11.28
-13.58
-15.75
-17.60
-19.09
-20.34
-21.66
-23.38
-25.74
-28.73
-31.92
-34.60
-35.87
-34.97
-31.55
-25.83
-18.56
-10.79
-3.53
2.55
7.19
10.57
13.06
15.00
16.65
18.07
19.28
20.27
21.03
21.55
21.79
21.69
21.25
20.52
19.62
18.76
18.11
17.76
17.72
17.93
18.25
18.48
18.46
18.01
17.01
15.43
13.40
11.11
8.83
6.77
5.03
3.59
2.31
1.10
-0.09
-1.21
-2.17
-2.94
-3.56
-4.18
-4.98
-6.11
-7.61
-9.37
-11.21
-12.92
-14.34
-15.47
-16.38
-17.24
-18.31
-19.81
-21.92
-24.66
-27.80
-30.81
-32.94
-33.36
-31.49
-27.21
-21.00
-13.84
-6.86
-1.00
3.28
6.07
7.80
8.98
9.92
10.71
11.23
11.38
11.16
10.75
10.40
10.27
10.37
10.53
10.58
10.38
10.03
9.71
9.67
10.02
10.65
11.28
11.59
11.39
10.67
9.63
8.52
7.55
6.74
6.01
5.18
4.16
2.97
1.69
0.44
-0.72
-1.79
-2.80
-3.75
-4.66
-5.53
-6.45
-7.54
-8.94
-10.70
-12.69
-14.69
-16.39
-17.67
-18.62
-19.58
-20.98
-23.18
-26.22
-29.78
-33.15
-35.51
-36.11
-34.62
-31.19
-26.41
-21.08
-15.95
-11.53
-8.02
-5.37
-3.36
-1.76
-0.35
1.00
2.37
3.73
5.04
6.27
7.44
8.58
9.74
10.83
11.72
12.27
12.38
12.15
11.75
11.35
11.03
10.74
10.28
9.44
8.05
6.08
3.65
1.05
-1.33
-3.03
-3.69
-3.19
-1.70
0.37
2.38
3.75
4.03
3.06
0.98
-1.88
-5.06
-8.15
-10.84
-13.02
-14.73
-16.18
-17.67
-19.48
-21.74
-24.31
-26.71
-28.17
-27.96
-25.61
-21.18
-15.26
-8.79
-2.72
2.29
5.95
8.33
9.65
10.20
10.26
10.06
9.87
9.88
10.16
10.66
11.20
11.57
11.64
11.37
10.80
10.04
9.17
8.28
7.40
6.58
5.83
5.06
4.24
3.32
2.29
1.24
0.22
-0.71
-1.56
-2.37
-3.24
-4.22
-5.34
-6.58
-7.88
-9.18
-10.40
-11.51
-12.50
-13.44
-14.45
-15.64
-17.13
-18.93
-20.90
-22.73
-23.91
-23.88
-22.26
-19.01
-14.55
-9.58
-4.94
-1.20
1.43
3.13
4.23
5.05
5.71
6.17
6.36
6.25
5.96
5.66
5.51
5.51
5.60
5.64
5.59
5.47
5.40
5.49
5.73
6.00
6.10
5.86
5.21
4.22
2.99
1.57
-0.02
-1.84
-3.89
-6.06
-8.17
-10.02
-11.50
-12.57
-13.36
-14.06
-14.98
-16.37
-18.38
-20.91
-23.55
-25.68
-26.61
-25.89
-23.47
-19.75
-15.39
-11.06
-7.22
-3.99
-1.26
1.17
3.43
5.48
7.20
8.46
9.22
9.60
9.78
9.98
10.28
10.60
10.77
10.64
10.17
9.52
8.89
8.46
8.21
7.89
7.16
5.75
3.56
0.70
-2.49
-5.65
-8.41
-10.53
-11.96
-12.79
-13.25
-13.68
-14.44
-15.81
-17.96
-20.81
-24.02
-27.03
-29.14
-29.71
-28.38
-25.20
-20.67
-15.51
-10.51
-6.19
-2.77
-0.14
1.98
3.86
5.66
7.42
9.06
10.48
11.69
12.73
13.69
14.62
15.45
16.03
16.21
15.98
15.49
15.01
14.74
14.70
14.73
14.50
13.79
12.52
10.81
8.92
7.12
5.56
4.31
3.34
2.57
1.88
1.11
0.08
-1.34
-3.12
-5.12
-7.07
-8.76
-10.13
-11.30
-12.63
-14.49
-17.22
-20.84
-24.99
-28.88
-31.47
-31.85
-29.54
-24.72
-18.24
-11.20
-4.66
0.78
5.00
8.24
10.84
13.02
14.86
16.37
17.57
18.51
19.18
19.58
19.65
19.36
18.80
18.16
17.66
17.44
17.52
17.78
18.05
18.19
18.11
17.82
17.33
16.64
15.77
14.70
13.47
12.15
10.82
9.63
8.66
7.93
7.34
6.71
5.85
4.66
3.18
1.56
0.02
-1.29
-2.38
-3.37
-4.49
-5.93
-7.77
-9.97
-12.34
-14.65
-16.72
-18.44
-19.83
-21.07
-22.44
-24.31
-26.95
-30.40
-34.30
-37.93
-40.30
-40.52
-38.08
-33.10
-26.31
-18.78
-11.57
-5.40
-0.54
3.18
6.10
8.57
10.80
12.88
14.80
16.49
17.93
19.09
19.96
20.53
20.88
21.09
21.30
21.62
22.13
22.83
23.65
24.41
24.94
25.05
24.63
23.66
22.25
20.58
18.85
17.23
15.83
14.63
13.55
12.44
11.17
9.66
7.90
5.97
3.98
2.03
0.22
-1.47
-3.10
-4.74
-6.45
-8.19
-9.88
-11.42
-12.78
-14.02
-15.37
-17.10
-19.48
-22.63
-26.40
-30.35
-33.78
-35.88
-36.00
-33.81
-29.44
-23.49
-16.81
-10.24
-4.43
0.35
4.16
7.27
10.01
12.58
15.03
17.26
19.14
20.52
21.37
21.73
21.71
21.46
21.09
20.70
20.35
20.14
20.13
20.31
20.60
20.83
20.83
20.45
19.68
18.64
17.52
16.50
15.70
15.14
14.73
14.35
13.87
13.25
12.46
11.56
10.60
9.63
8.72
7.89
7.16
6.47
5.68
4.65
3.24
1.39
-0.77
-2.99
-5.02
-6.68
-8.02
-9.28
-10.75
-12.68
-15.07
-17.73
-20.31
-22.46
-24.04
-25.15
-26.08
-27.25
-28.98
-31.41
-34.36
-37.32
-39.57
-40.33
-38.99
-35.36
-29.71
-22.72
-15.31
-8.40
-2.68
1.58
4.47
6.37
7.73
8.92
10.16
11.47
12.80
14.07
15.22
16.21
17.04
17.69
18.18
18.57
18.97
19.49
20.23
21.18
22.21
23.15
23.78
24.00
23.76
23.12
22.20
21.15
20.06
18.96
17.82
16.58
15.15
13.51
11.66
9.68
7.72
5.96
4.52
3.42
2.57
1.77
0.84
-0.33
-1.73
-3.27
-4.85
-6.45
-8.10
-9.88
-11.79
-13.75
-15.64
-17.38
-19.01
-20.70
-22.73
-25.27
-28.27
-31.30
-33.66
-34.47
-33.10
-29.35
-23.63
-16.79
-9.85
-3.69
1.21
4.81
7.40
9.33
10.92
12.34
13.62
14.69
15.50
16.01
16.27
16.39
16.44
16.45
16.37
16.14
15.74
15.20
14.60
13.98
13.33
12.53
11.46
10.06
8.42
6.70
5.08
3.70
2.59
1.71
1.00
0.43
-0.01
-0.31
-0.46
-0.48
-0.36
-0.19
-0.09
-0.22
-0.70
-1.52
-2.57
-3.62
-4.50
-5.17
-5.75
-6.46
-7.50
-8.90
-10.55
-12.26
-13.86
-15.25
-16.47
-17.58
-18.70
-19.97
-21.56
-23.67
-26.37
-29.54
-32.69
-35.03
-35.63
-33.79
-29.31
-22.60
-14.65
-6.61
0.49
6.08
10.08
12.77
14.57
15.87
16.93
17.87
18.74
19.52
20.21
20.78
21.21
21.49
21.63
21.59
21.39
21.03
20.58
20.17
19.88
19.76
19.74
19.62
19.22
18.47
17.44
16.34
15.43
14.87
14.68
14.79
15.01
15.22
15.32
15.23
14.92
14.32
13.34
11.97
10.22
8.20
6.11
4.10
2.28
0.61
-1.10
-3.07
-5.41
-8.10
-10.91
-13.60
-15.96
-17.95
-19.68
-21.36
-23.20
-25.37
-27.90
-30.73
-33.55
-35.92
-37.26
-36.98
-34.71
-30.46
-24.67
-18.09
-11.58
-5.84
-1.31
1.94
4.08
5.41
6.24
6.79
7.22
7.54
7.80
7.97
8.10
8.20
8.32
8.46
8.63
8.80
8.97
9.16
9.37
9.58
9.73
9.70
9.39
8.75
7.80
6.62
5.34
4.05
2.80
1.63
0.55
-0.39
-1.25
-2.09
-3.03
-4.21
-5.66
-7.36
-9.18
-10.97
-12.61
-14.07
-15.41
-16.74
-18.18
-19.83
-21.81
-24.18
-26.89
-29.74
-32.25
-33.72
-33.47
-31.04
-26.42
-20.15
-13.20
-6.60
-1.17
2.77
5.38
7.14
8.55
9.93
11.33
12.60
13.60
14.25
14.67
15.03
15.49
16.09
16.71
17.22
17.49
17.54
17.47
17.42
17.47
17.56
17.52
17.16
16.36
15.13
13.62
12.06
10.67
9.53
8.59
7.70
6.65
5.36
3.84
2.24
0.74
-0.57
-1.72
-2.91
-4.34
-6.16
-8.40
-10.95
-13.67
-16.37
-18.97
-21.37
-23.58
-25.61
-27.51
-29.41
-31.47
-33.91
-36.86
-40.22
-43.51
-45.94
-46.64
-44.92
-40.65
-34.37
-27.07
-19.86
-13.59
-8.59
-4.74
-1.67
0.95
3.32
5.47
7.38
9.04
10.46
11.66
12.66
13.48
14.14
14.70
15.28
15.94
16.74
17.69
18.82
20.13
21.58
23.03
24.26
25.03
25.14
24.57
23.45
22.07
20.68
19.44
18.35
17.30
16.12
14.75
13.18
11.55
9.97
8.51
7.11
5.68
4.16
2.54
0.91
-0.69
-2.29
-4.03
-6.06
-8.42
-11.03
-13.68
-16.13
-18.31
-20.29
-22.28
-24.57
-27.39
-30.74
-34.36
-37.63
-39.71
-39.75
-37.20
-32.06
-24.94
-16.93
-9.20
-2.63
2.37
5.86
8.23
9.91
11.28
12.58
13.90
15.28
16.67
18.06
19.40
20.68
21.88
22.89
23.62
23.94
23.86
23.47
22.92
22.33
21.72
20.97
19.96
18.62
16.98
15.16
13.23
11.24
9.16
7.00
4.83
2.78
0.95
-0.72
-2.44
-4.49
-7.03
-9.98
-13.00
-15.64
-17.52
-18.58
-19.10
-19.64
-20.84
-23.12
-26.54
-30.74
-35.00
-38.38
-39.97
-39.10
-35.56
-29.62
-22.02
-13.73
-5.73
1.25
6.82
10.96
13.90
15.99
17.58
18.98
20.34
21.77
23.22
24.54
25.51
25.94
25.75
25.00
23.93
22.83
21.96
21.46
21.27
21.24
21.14
20.74
19.89
18.53
16.71
14.60
12.39
10.21
8.08
5.88
3.41
0.57
-2.59
-5.85
-8.88
-11.42
-13.44
-15.14
-16.90
-19.17
-22.29
-26.32
-31.00
-35.67
-39.43
-41.37
-40.86
-37.74
-32.41
-25.69
-18.55
-11.84
-6.07
-1.38
2.39
5.53
8.34
11.02
13.62
16.10
18.35
20.26
21.77
22.85
23.51
23.73
23.53
22.97
22.14
21.21
20.36
19.65
19.08
18.52
17.79
16.72
15.20
13.22
10.90
8.40
5.93
3.69
1.81
0.27
-1.06
-2.41
-4.01
-5.99
-8.31
-10.77
-13.09
-15.04
-16.53
-17.67
-18.75
-20.11
-22.07
-24.86
-28.49
-32.73
-37.03
-40.53
-42.25
-41.38
-37.59
-31.21
-23.16
-14.66
-6.74
-0.02
5.35
9.64
13.19
16.28
19.06
21.57
23.82
25.79
27.41
28.58
29.23
29.36
29.06
28.54
27.97
27.51
27.25
27.16
27.19
27.23
27.13
26.76
25.99
24.77
23.16
21.28
19.30
17.38
15.64
14.09
12.67
11.27
9.75
8.01
6.00
3.77
1.44
-0.80
-2.77
-4.36
-5.52
-6.29
-6.81
-7.21
-7.64
-8.18
-8.87
-9.72
-10.72
-11.86
-13.12
-14.51
-16.13
-18.16
-20.86
-24.38
-28.62
-33.01
-36.60
-38.28
-37.17
-33.01
-26.24
-17.95
-9.43
-1.79
4.33
8.84
11.98
14.14
15.66
16.80
17.72
18.55
19.41
20.32
21.25
22.08
22.71
23.06
23.15
23.01
22.75
22.43
22.06
21.64
21.10
20.36
19.32
17.94
16.22
14.23
12.06
9.82
7.61
5.50
3.59
1.89
0.36
-1.15
-2.79
-4.69
-6.82
-9.05
-11.17
-12.96
-14.35
-15.44
-16.46
-17.71
-19.49
-21.97
-25.20
-29.08
-33.24
-37.05
-39.71
-40.40
-38.50
-33.90
-27.03
-18.80
-10.29
-2.49
3.96
8.86
12.36
14.77
16.48
17.77
18.85
19.84
20.76
21.54
22.06
22.24
22.03
21.47
20.67
19.71
18.70
17.70
16.80
16.08
15.54
15.09
14.52
13.61
12.23
10.39
8.30
6.24
4.50
3.19
2.28
1.65
1.11
0.50
-0.28
-1.26
-2.39
-3.58
-4.76
-5.89
-7.05
-8.34
-9.84
-11.52
-13.26
-14.92
-16.37
-17.63
-18.80
-20.04
-21.50
-23.33
-25.64
-28.38
-31.35
-34.03
-35.69
-35.54
-33.02
-28.06
-21.15
-13.23
-5.38
1.51
6.97
10.99
13.88
16.04
17.80
19.30
20.55
21.57
22.39
23.12
23.89
24.71
25.49
26.01
26.13
25.80
25.18
24.48
23.92
23.55
23.26
22.86
22.20
21.22
19.95
18.50
16.95
15.44
14.06
12.92
12.05
11.40
10.79
10.01
8.89
7.38
5.58
3.66
1.78
0.04
-1.60
-3.24
-5.00
-7.00
-9.25
-11.65
-14.05
-16.29
-18.25
-19.92
-21.39
-22.86
-24.56
-26.69
-29.30
-32.13
-34.57
-35.79
-34.96
-31.58
-25.80
-18.40
-10.58
-3.52
2.01
5.79
8.16
9.66
10.80
11.85
12.87
13.82
14.61
15.21
15.61
15.82
15.84
15.64
15.21
14.56
13.73
12.88
12.17
11.74
11.66
11.88
12.27
12.67
12.96
13.10
13.13
13.09
13.02
12.89
12.67
12.31
11.80
11.10
10.17
8.98
7.50
5.77
3.91
2.08
0.43
-0.99
-2.26
-3.57
-5.14
-7.14
-9.54
-12.20
-14.87
-17.30
-19.41
-21.21
-22.88
-24.67
-26.86
-29.68
-33.23
-37.28
-41.23
-44.10
-44.90
-42.90
-38.06
-31.04
-23.05
-15.34
-8.86
-3.95
-0.48
2.02
3.98
5.69
7.28
8.73
10.01
11.06
11.87
12.42
12.68
12.64
12.29
11.71
11.04
10.48
10.21
10.27
10.55
10.81
10.78
10.31
9.35
8.03
6.49
4.88
3.33
1.94
0.80
-0.05
-0.65
-1.16
-1.80
-2.74
-4.03
-5.55
-7.10
-8.45
-9.51
-10.34
-11.12
-12.08
-13.36
-14.91
-16.52
-17.91
-18.87
-19.38
-19.64
-19.99
-20.76
-22.17
-24.26
-26.87
-29.62
-31.93
-33.08
-32.42
-29.56
-24.63
-18.26
-11.45
-5.22
-0.28
3.14
5.26
6.54
7.41
8.11
8.69
9.10
9.34
9.52
9.82
10.42
11.36
12.52
13.64
14.50
15.00
15.24
15.46
15.91
16.71
17.80
18.89
19.64
19.77
19.18
17.93
16.31
14.65
13.25
12.24
11.57
11.06
10.51
9.82
9.02
8.19
7.38
6.54
5.53
4.22
2.53
0.47
-1.96
-4.81
-8.11
-11.75
-15.33
-18.15
-19.44
-18.65
-15.74
-11.21
-5.94
-0.81
3.58
7.05
9.70
11.74
13.32
14.47
15.16
15.37
15.20
14.82
14.41
14.06
13.77
13.45
12.97
12.27
11.35
10.25
9.03
7.74
6.43
5.14
3.88
2.63
1.31
-0.18
-1.93
-3.92
-6.08
-8.24
-10.25
-12.06
-13.71
-15.27
-16.88
-18.68
-20.86
-23.62
-27.09
-31.15
-35.37
-38.98
-41.05
-40.90
-38.27
-33.55
-27.55
-21.30
-15.68
-11.19
-7.89
-5.50
-3.68
-2.19
-0.91
0.11
0.85
1.43
2.02
2.83
3.87
5.00
5.94
6.43
6.41
6.02
5.56
5.23
5.11
5.03
4.72
3.96
2.64
0.83
-1.28
-3.48
-5.56
-7.40
-8.98
-10.34
-11.62
-13.07
-14.93
-17.43
-20.58
-24.04
-27.13
-29.00
-28.90
-26.49
-22.02
-16.23
-10.09
-4.41
0.32
4.04
6.93
9.26
11.18
12.76
13.96
14.72
15.03
14.96
14.66
14.28
13.94
13.69
13.47
13.24
12.98
12.77
12.71
12.78
12.85
12.60
11.66
9.83
7.15
3.92
0.62
-2.34
-4.74
-6.59
-8.20
-9.98
-12.34
-15.47
-19.32
-23.44
-27.12
-29.53
-30.00
-28.26
-24.53
-19.48
-14.01
-8.87
-4.46
-0.79
2.42
5.52
8.69
11.89
14.85
17.31
19.13
20.33
21.07
21.54
21.83
21.92
21.79
21.46
21.03
20.62
20.28
19.96
19.52
18.79
17.69
16.24
14.54
12.71
10.86
8.97
7.00
4.88
2.56
0.03
-2.61
-5.18
-7.43
-9.16
-10.29
-10.98
-11.56
-12.49
-14.24
-17.06
-20.90
-25.30
-29.45
-32.36
-33.13
-31.28
-26.92
-20.79
-13.94
-7.43
-1.96
2.26
5.48
8.14
10.64
13.13
15.56
17.72
19.38
20.41
20.80
20.68
20.26
19.77
19.39
19.26
19.36
19.60
19.88
20.08
20.20
20.25
20.24
20.08
19.57
18.49
16.78
14.60
12.29
10.29
8.81
7.83
7.01
5.96
4.34
2.04
-0.81
-3.97
-7.17
-10.19
-12.89
-15.25
-17.32
-19.33
-21.60
-24.49
-28.22
-32.67
-37.33
-41.31
-43.55
-43.23
-40.00
-34.23
-26.81
-18.93
-11.62
-5.51
-0.70
3.11
6.37
9.52
12.79
16.19
19.55
22.55
24.90
26.38
27.01
27.00
26.68
26.33
26.10
25.98
25.90
25.83
25.78
25.79
25.78
25.58
24.96
23.79
22.12
20.17
18.25
16.59
15.26
14.19
13.19
12.09
10.79
9.27
7.59
5.86
4.20
2.72
1.45
0.33
-0.78
-2.09
-3.71
-5.66
-7.76
-9.79
-11.52
-12.85
-13.88
-14.90
-16.26
-18.30
-21.25
-25.11
-29.58
-34.05
-37.65
-39.44
-38.72
-35.32
-29.73
-22.96
-16.21
-10.43
-6.00
-2.75
-0.14
2.39
5.19
8.26
11.43
14.35
16.83
18.71
20.01
20.81
21.24
21.47
21.62
21.77
21.94
22.07
22.07
21.88
21.43
20.70
19.66
18.30
16.72
15.10
13.69
12.74
12.34
12.41
12.67
12.77
12.50
11.84
10.98
10.20
9.67
9.40
9.19
8.80
8.02
6.77
5.13
3.24
1.28
-0.63
-2.46
-4.25
-6.10
-8.12
-10.37
-12.79
-15.23
-17.48
-19.35
-20.81
-22.00
-23.19
-24.69
-26.74
-29.37
-32.34
-35.19
-37.25
-37.85
-36.43
-32.84
-27.36
-20.70
-13.76
-7.38
-2.08
2.04
5.18
7.70
9.90
11.93
13.75
15.21
16.14
16.47
16.32
15.97
15.75
15.90
16.47
17.29
18.05
18.55
18.73
18.74
18.78
18.96
19.24
19.41
19.28
18.79
18.05
17.28
16.64
16.16
15.77
15.26
14.49
13.44
12.17
10.87
9.69
8.79
8.19
7.83
7.56
7.17
6.51
5.51
4.24
2.78
1.28
-0.20
-1.66
-3.12
-4.64
-6.24
-7.95
-9.79
-11.79
-13.91
-16.08
-18.12
-19.79
-20.92
-21.46
-21.59
-21.66
-22.13
-23.42
-25.65
-28.54
-31.38
-33.25
-33.30
-31.04
-26.61
-20.65
-14.16
-8.06
-3.03
0.70
3.25
4.93
6.10
7.03
7.89
8.75
9.64
10.55
11.45
12.25
12.86
13.21
13.28
13.10
12.82
12.59
12.53
12.67
12.93
13.12
13.04
12.54
11.61
10.34
8.93
7.59
6.48
5.69
5.17
4.84
4.56
4.20
3.66
2.93
2.04
1.05
0.06
-0.91
-1.90
-2.99
-4.25
-5.71
-7.34
-9.01
-10.60
-12.00
-13.17
-14.16
-15.14
-16.32
-17.91
-19.99
-22.38
-24.67
-26.25
-26.51
-25.07
-21.94
-17.49
-12.38
-7.30
-2.83
0.75
3.40
5.31
6.77
8.04
9.30
10.60
11.87
12.97
13.73
14.06
13.97
13.56
13.02
12.51
12.10
11.77
11.42
10.96
10.35
9.62
8.83
8.05
7.27
6.46
5.60
4.67
3.64
2.51
1.25
-0.17
-1.72
-3.36
-4.99
-6.49
-7.76
-8.71
-9.30
-9.58
-9.71
-9.91
-10.43
-11.36
-12.66
-14.08
-15.36
-16.31
-16.93
-17.43
-18.12
-19.30
-21.08
-23.26
-25.36
-26.70
-26.59
-24.60
-20.73
-15.43
-9.52
-3.86
0.87
4.40
6.80
8.42
9.64
10.70
11.78
12.90
13.97
14.94
15.67
16.06
16.08
15.72
15.11
14.40
13.73
13.18
12.78
12.52
12.40
12.42
12.55
12.69
12.71
12.44
11.79
10.78
9.57
8.39
7.42
6.69
6.08
5.33
4.26
2.84
1.22
-0.36
-1.66
-2.66
-3.43
-4.11
-4.76
-5.35
-5.85
-6.26
-6.80
-7.73
-9.28
-11.48
-14.09
-16.73
-19.05
-20.88
-22.32
-23.64
-25.19
-27.21
-29.83
-32.90
-36.05
-38.73
-40.28
-40.13
-37.96
-33.85
-28.30
-22.03
-15.82
-10.31
-5.84
-2.48
-0.06
1.69
3.02
4.17
5.23
6.24
7.08
7.71
8.10
8.34
8.60
9.02
9.66
10.49
11.35
12.12
12.73
13.16
13.45
13.62
13.64
13.47
13.10
12.61
12.14
11.82
11.68
11.62
11.47
11.05
10.28
9.17
7.84
6.45
5.14
4.00
3.04
2.22
1.50
0.80
0.11
-0.56
-1.21
-1.85
-2.55
-3.38
-4.40
-5.58
-6.83
-8.04
-9.17
-10.26
-11.44
-12.87
-14.67
-16.89
-19.42
-21.96
-24.02
-24.96
-24.25
-21.58
-17.14
-11.58
-5.80
-0.72
3.06
5.39
6.53
7.00
7.30
7.78
8.55
9.55
10.66
11.83
13.09
14.50
16.07
17.64
18.93
19.66
19.74
19.27
18.55
17.89
17.45
17.17
16.89
16.36
15.42
13.98
12.09
9.86
7.51
5.28
3.41
2.05
1.16
0.58
0.08
-0.50
-1.22
-2.01
-2.79
-3.47
-4.06
-4.63
-5.27
-6.11
-7.23
-8.68
-10.46
-12.49
-14.66
-16.80
-18.83
-20.70
-22.46
-24.27
-26.33
-28.82
-31.74
-34.85
-37.53
-38.96
-38.36
-35.31
-30.00
-23.16
-15.94
-9.35
-4.10
-0.33
2.25
4.07
5.54
6.87
8.09
9.16
10.04
10.75
11.35
11.90
12.42
12.84
13.10
13.17
13.15
13.19
13.47
14.06
14.90
15.76
16.39
16.56
16.17
15.30
14.14
12.88
11.72
10.78
10.09
9.58
9.15
8.65
7.97
7.04
5.88
4.57
3.22
1.94
0.82
-0.16
-1.13
-2.26
-3.74
-5.56
-7.58
-9.50
-11.04
-12.10
-12.79
-13.39
-14.24
-15.61
-17.61
-20.18
-23.16
-26.18
-28.72
-30.14
-29.86
-27.55
-23.32
-17.78
-11.78
-6.23
-1.70
1.61
3.91
5.64
7.21
8.89
10.73
12.57
14.18
15.31
15.84
15.79
15.28
14.46
13.48
12.44
11.41
10.50
9.82
9.45
9.39
9.51
9.65
9.60
9.28
8.69
7.93
7.14
6.41
5.85
5.47
5.23
5.04
4.74
4.22
3.36
2.18
0.69
-1.07
-3.09
-5.43
-8.15
-11.21
-14.41
-17.39
-19.77
-21.29
-21.92
-21.95
-21.90
-22.31
-23.59
-25.88
-29.00
-32.51
-35.76
-37.99
-38.50
-36.81
-32.84
-27.00
-20.09
-13.15
-7.08
-2.40
0.83
2.94
4.43
5.76
7.20
8.78
10.40
11.85
12.97
13.66
13.92
13.80
13.40
12.85
12.30
11.91
11.82
12.11
12.77
13.70
14.71
15.59
16.20
16.45
16.33
15.86
15.05
13.91
12.49
10.92
9.37
8.01
6.94
6.12
5.39
4.54
3.39
1.87
0.01
-2.04
-4.10
-6.05
-7.81
-9.41
-11.02
-12.87
-15.25
-18.35
-22.22
-26.60
-30.92
-34.33
-35.97
-35.15
-31.73
-26.15
-19.38
-12.55
-6.54
-1.73
2.02
5.13
8.05
10.99
13.90
16.65
19.11
21.29
23.25
25.00
26.50
27.67
28.42
28.75
28.70
28.35
27.76
27.03
26.30
25.67
25.14
24.60
23.83
22.64
21.00
19.05
17.01
15.08
13.33
11.67
9.99
8.20
6.33
4.45
2.61
0.84
-0.89
-2.59
-4.25
-5.82
-7.31
-8.86
-10.68
-13.06
-16.25
-20.21
-24.55
-28.56
-31.35
-32.18
-30.69
-27.08
-22.02
-16.36
-10.89
-6.14
-2.24
0.93
3.61
6.06
8.39
10.59
12.51
13.98
14.89
15.32
15.47
15.60
15.88
16.30
16.72
17.00
17.07
17.05
17.11
17.33
17.63
17.75
17.43
16.44
14.77
12.60
10.19
7.84
5.76
4.01
2.56
1.25
-0.04
-1.45
-3.03
-4.81
-6.74
-8.76
-10.69
-12.31
-13.45
-14.03
-14.22
-14.39
-15.00
-16.52
-19.13
-22.69
-26.68
-30.25
-32.40
-32.24
-29.22
-23.33
-15.15
-5.76
3.63
11.94
18.48
23.12
26.14
28.03
29.35
30.43
31.39
32.17
32.60
32.62
32.26
31.71
31.17
30.76
30.48
30.25
29.95
29.52
28.97
28.34
27.66
26.87
25.88
24.58
22.90
20.79
18.27
15.40
12.33
9.29
6.51
4.14
2.14
0.30
-1.70
-4.14
-7.06
-10.30
-13.57
-16.60
-19.29
-21.71
-24.06
-26.55
-29.38
-32.67
-36.44
-40.57
-44.64
-47.98
-49.74
-49.23
-46.12
-40.63
-33.50
-25.71
-18.15
-11.34
-5.38
0.01
5.18
10.40
15.72
20.91
25.64
29.54
32.37
34.10
34.89
34.99
34.69
34.21
33.68
33.15
32.69
32.36
32.19
32.14
32.03
31.60
30.60
28.88
26.53
23.79
21.01
18.46
16.32
14.52
12.90
11.23
9.34
7.15
4.72
2.21
-0.16
-2.19
-3.81
-5.10
-6.27
-7.59
-9.28
-11.42
-13.85
-16.30
-18.41
-19.90
-20.62
-20.64
-20.16
