1651153499.00
64.000000
-0.00
-0.00
-0.00
-0.00
-0.00
-0.00
-0.00
-0.00
-0.00
-0.00
0.00
0.01
0.01
-0.00
-0.03
-0.05
-0.05
0.00
0.13
0.36
0.66
1.01
1.37
1.72
2.06
2.40
2.79
3.24
3.80
4.42
5.06
5.66
6.20
6.68
7.15
7.68
8.31
9.14
10.09
11.04
11.88
12.56
13.14
13.76
14.65
15.96
17.91
20.32
22.90
25.38
27.58
29.57
31.68
34.32
37.81
42.54
48.15
54.10
59.83
64.97
69.58
74.14
79.34
85.71
93.76
103.00
112.62
121.73
129.77
136.75
143.30
150.75
157.77
166.64
177.95
191.79
206.97
220.57
228.25
225.36
208.53
176.87
132.76
80.05
23.07
-34.94
-92.44
-149.16
-205.23
-260.37
-313.74
-363.87
-409.83
-450.91
-486.50
-515.74
-537.23
-549.22
-549.96
-538.37
-514.21
-478.67
-433.88
-382.45
-327.02
-269.84
-212.63
-156.66
-102.95
-52.37
-5.90
35.58
71.43
101.35
125.50
144.38
158.69
169.15
176.37
180.75
182.57
182.07
179.51
175.23
169.65
163.18
156.15
148.81
141.30
133.69
126.02
118.33
110.69
103.16
95.80
88.68
81.83
75.25
68.95
62.95
57.25
51.86
46.78
42.03
37.59
33.45
29.61
26.07
22.81
19.83
17.11
14.67
12.48
10.54
8.83
7.35
6.07
4.97
4.05
3.27
2.62
2.09
1.65
1.30
1.01
0.78
0.61
0.48
0.40
0.33
0.28
0.22
0.14
0.05
-0.04
-0.10
-0.13
-0.12
-0.09
-0.04
-0.02
-0.04
-0.08
-0.14
-0.18
-0.18
-0.13
-0.06
0.01
0.02
-0.06
-0.22
-0.40
-0.52
-0.54
-0.43
-0.24
-0.09
-0.08
-0.29
-0.68
-1.13
-1.45
-1.50
-1.24
-0.79
-0.39
-0.28
-0.63
-1.38
-2.26
-2.95
-3.13
-2.72
-1.94
-1.18
-0.90
-1.36
-2.49
-3.90
-5.06
-5.53
-5.14
-4.10
-2.86
-1.94
-1.83
-2.89
-5.30
-8.88
-12.86
-15.86
-16.15
-12.50
-4.78
5.61
16.18
24.31
28.25
27.75
23.91
18.49
12.98
8.16
4.05
0.40
-2.93
-5.74
-7.68
-8.45
-8.09
-6.87
-5.18
-3.34
-1.46
0.50
2.66
5.05
7.50
9.68
11.13
11.48
10.59
8.53
5.66
2.43
-0.76
-3.62
-6.05
-8.05
-9.67
-11.03
-12.22
-13.38
-14.55
-15.73
-16.76
-17.31
-17.01
-15.62
-13.25
-10.29
-7.35
-4.80
-2.78
-1.04
0.84
3.26
6.34
9.94
13.79
17.64
21.42
24.94
27.80
29.44
29.36
27.42
24.02
20.06
15.79
12.04
9.32
7.74
7.03
6.77
6.59
6.34
6.04
5.93
6.37
7.54
9.23
10.93
11.91
11.48
9.31
5.46
0.41
-5.11
-10.54
-15.55
-20.04
-24.03
-27.62
-30.94
-34.15
-37.47
-41.06
-44.99
-49.26
-53.76
-58.36
-62.92
-67.33
-71.38
-74.73
-76.88
-77.21
-75.12
-70.29
-62.75
-53.03
-42.07
-30.97
-20.75
-12.05
-5.01
0.74
6.01
11.73
18.74
27.45
37.71
48.73
59.38
68.54
75.55
80.36
83.39
85.14
85.78
85.02
82.40
77.68
71.34
64.54
58.71
54.90
53.25
52.95
52.52
50.51
46.15
39.80
33.08
28.56
29.02
36.38
50.59
69.13
87.43
100.32
103.82
96.59
80.25
58.46
35.50
14.81
-1.63
-13.23
-20.45
-24.22
-25.54
-24.93
-22.03
-15.38
-3.07
16.15
41.38
68.94
93.08
108.06
110.43
100.47
82.06
60.86
42.08
28.71
20.83
16.30
11.95
5.16
-5.29
-18.94
-34.40
-50.41
-66.58
-83.59
-102.29
-122.57
-142.38
-157.77
-163.98
-157.64
-138.61
-110.85
-81.33
-57.62
-44.90
-44.13
-51.80
-61.76
-68.00
-67.19
-59.68
-48.80
-38.88
-33.29
-33.48
-39.11
-48.89
-61.22
-74.41
-86.48
-95.32
-99.21
-97.55
-91.31
-82.57
-73.49
-65.09
-56.64
-45.94
-30.56
-9.16
17.45
46.10
71.79
89.06
93.58
83.36
59.44
25.56
-12.55
-48.21
-74.68
-86.03
-78.34
-51.10
-8.16
42.53
90.89
127.67
147.12
147.95
132.54
104.89
68.95
28.28
-13.31
-51.02
-79.41
-93.92
-92.87
-78.50
-56.35
-33.18
-14.46
-2.76
2.27
2.82
1.38
-0.54
-2.57
-5.04
-8.10
-11.25
-13.42
-13.71
-12.08
-9.52
-7.65
-7.87
-10.55
-14.90
-19.39
-22.47
-23.24
-21.66
-18.30
-13.92
-9.14
-4.25
0.69
5.59
10.31
14.65
18.38
21.39
23.67
25.22
25.99
25.94
25.13
23.77
22.18
20.69
19.39
18.11
16.48
14.07
10.71
6.57
2.19
-1.69
-4.20
-4.49
-1.79
4.41
14.25
27.37
42.89
59.35
74.70
86.29
91.13
86.43
70.37
43.13
7.33
-32.08
-69.12
-98.57
-117.79
-127.42
-130.63
-131.32
-132.21
-133.74
-134.18
-130.56
-119.85
-99.99
-70.43
-32.39
11.09
55.44
95.29
125.69
143.53
148.32
142.04
128.04
109.59
89.09
68.00
47.42
28.57
12.91
1.48
-5.63
-9.70
-13.00
-18.01
-26.44
-38.52
-52.86
-66.89
-77.68
-82.77
-80.68
-71.20
-55.29
-34.77
-11.98
10.56
30.58
46.38
57.06
62.50
63.26
60.26
54.67
47.83
41.22
36.33
34.35
35.73
39.92
45.46
50.45
53.24
53.10
50.39
46.34
42.42
39.71
38.56
38.57
38.89
38.69
37.45
35.09
31.83
27.96
23.63
18.75
13.11
6.54
-0.88
-8.79
-16.56
-23.32
-28.22
-30.53
-29.84
-26.17
-19.97
-12.02
-3.33
5.08
12.33
17.83
21.34
22.95
23.07
22.21
20.86
19.26
17.42
15.23
12.67
9.96
7.59
6.02
5.49
5.81
6.46
6.86
6.65
5.79
4.42
2.72
0.69
-1.77
-4.78
-8.24
-11.82
-15.11
-17.81
-19.90
-21.59
-23.22
-25.00
-26.95
-28.97
-30.96
-33.02
-35.41
-38.44
-42.27
-46.69
-51.11
-54.61
-56.11
-54.66
-49.67
-41.10
-29.60
-16.40
-3.09
8.83
18.29
24.85
28.63
30.11
29.91
28.55
26.51
24.17
21.90
19.97
18.56
17.72
17.40
17.49
17.87
18.37
18.78
18.85
18.40
17.35
15.79
13.95
12.07
10.32
8.73
7.18
5.45
3.27
0.48
-2.99
-6.95
-11.10
-15.07
-18.57
-21.56
-24.25
-27.04
-30.40
-34.69
-40.00
-46.06
-52.14
-57.12
-59.57
-58.20
-52.23
-41.78
-27.97
-12.69
1.99
14.41
23.66
29.72
33.16
34.75
35.14
34.77
33.78
32.28
30.35
28.14
25.85
23.70
21.84
20.29
18.97
17.70
16.36
14.97
13.70
12.76
12.23
11.88
11.21
9.64
6.78
2.67
-2.21
-7.10
-11.31
-14.53
-17.00
-19.36
-22.39
-26.58
-31.87
-37.66
-43.02
-47.25
-50.25
-52.58
-55.16
-58.64
-62.83
-66.53
-67.80
-64.51
-54.87
-37.69
-12.48
20.58
60.28
104.15
148.37
188.34
219.75
239.85
248.20
246.44
237.28
223.19
205.74
185.60
163.25
139.67
116.42
95.01
75.95
58.31
39.97
18.58
-7.14
-36.56
-67.01
-94.54
-115.25
-126.56
-128.10
-121.66
-110.43
-97.80
-86.17
-76.39
-67.86
-59.28
-49.58
-38.51
-26.76
-15.56
-6.23
0.18
2.92
1.44
-4.48
-14.62
-28.08
-43.16
-57.61
-69.07
-75.66
-76.48
-71.80
-62.97
-52.03
-41.24
-32.57
-27.18
-25.11
-25.21
-25.50
-23.82
-18.65
-9.69
2.06
14.71
26.29
35.42
41.66
45.40
47.33
48.14
48.26
48.13
48.37
49.84
53.40
59.30
66.84
74.17
78.68
77.81
69.81
54.37
32.72
7.23
-19.40
-45.00
-68.49
-89.90
-109.72
-128.04
-144.00
-155.63
-160.59
-157.26
-145.55
-127.26
-105.57
-84.13
-66.07
-53.29
-46.33
-44.62
-46.94
-51.66
-56.98
-61.04
-62.10
-58.78
-50.46
-37.63
-21.79
-5.06
10.70
24.52
36.44
47.03
56.58
64.48
69.38
69.93
65.80
58.03
48.62
39.70
32.48
27.03
22.68
18.79
15.33
12.84
11.96
12.84
14.92
17.26
18.87
19.26
18.52
17.18
15.77
14.62
13.76
13.05
12.37
11.75
11.39
11.55
12.43
14.16
16.87
20.74
26.00
32.91
41.54
51.70
62.92
74.62
86.28
97.49
107.95
117.31
125.12
130.89
134.16
134.49
131.43
124.52
113.35
97.89
78.78
57.61
36.64
18.19
3.74
-6.67
-14.49
-21.87
-30.55
-40.96
-51.99
-61.75
-68.81
-73.27
-77.08
-83.44
-95.39
-114.53
-140.24
-169.62
-198.05
-220.20
-231.20
-227.96
-210.33
-181.54
-147.54
-115.31
-90.50
-75.58
-69.28
-67.74
-66.48
-62.39
-54.46
-43.30
-30.12
-15.67
-0.19
16.10
32.35
46.95
57.99
64.13
65.29
62.78
58.78
55.42
54.04
54.75
56.72
58.67
59.67
59.47
58.59
57.94
58.34
60.00
62.46
64.72
65.49
63.47
57.48
46.74
31.29
12.26
-8.10
-26.84
-41.26
-49.81
-52.59
-51.08
-47.31
-42.85
-38.29
-33.29
-27.14
-19.52
-10.75
-1.61
7.09
14.88
21.79
28.15
34.28
40.24
45.75
50.26
53.25
54.49
54.20
53.02
51.72
50.92
50.67
50.40
49.04
45.53
39.21
30.19
19.23
7.47
-3.98
-14.27
-22.93
-29.75
-34.73
-37.98
-39.80
-40.66
-41.23
-42.30
-44.63
-48.91
-55.64
-64.97
-76.58
-89.42
-101.80
-111.60
-116.90
-116.61
-110.84
-100.90
-88.80
-76.51
-65.27
-55.45
-46.69
-38.43
-30.27
-22.06
-13.80
-5.44
3.10
11.83
20.43
28.23
34.40
38.27
39.70
39.12
37.34
35.22
33.40
32.15
31.47
31.22
31.26
31.48
31.77
31.97
31.92
31.50
30.71
29.63
28.45
27.24
25.95
24.43
22.49
20.11
17.39
14.55
11.79
9.17
6.66
4.16
1.59
-1.04
-3.64
-6.08
-8.18
-9.67
-10.20
-9.37
-6.90
-2.79
2.62
8.66
14.51
19.45
23.02
25.11
25.90
25.69
24.80
23.39
21.58
19.42
16.97
14.41
11.97
9.89
8.34
7.31
6.67
6.14
5.52
4.66
3.58
2.39
1.18
0.06
-1.01
-2.12
-3.33
-4.68
-6.13
-7.57
-8.90
-10.07
-11.12
-12.19
-13.51
-15.28
-17.61
-20.44
-23.53
-26.44
-28.65
-29.61
-28.87
-26.17
-21.51
-15.22
-7.86
-0.16
7.16
13.53
18.61
22.30
24.66
25.87
26.13
25.64
24.64
23.29
21.79
20.21
18.65
17.14
15.73
14.52
13.58
12.98
12.79
12.98
13.44
14.02
14.48
14.62
14.33
13.62
12.66
11.59
10.52
9.37
7.95
6.12
3.81
1.20
-1.52
-4.15
-6.70
-9.34
-12.33
-15.86
-19.91
-24.21
-28.19
-31.12
-32.27
-31.09
-27.46
-21.77
-14.82
-7.63
-1.11
4.19
8.08
10.72
12.34
13.13
13.17
12.55
11.38
9.85
8.22
6.66
5.28
4.08
3.01
2.02
1.08
0.21
-0.54
-1.10
-1.40
-1.36
-0.99
-0.44
0.06
0.22
-0.21
-1.32
-3.03
-5.07
-7.13
-8.97
-10.48
-11.71
-12.85
-14.10
-15.67
-17.70
-20.19
-22.92
-25.51
-27.41
-28.06
-27.02
-24.07
-19.31
-13.14
-6.18
0.81
7.18
12.37
16.17
18.58
19.81
20.13
19.71
18.71
17.25
15.50
13.70
12.07
10.76
9.75
8.93
8.17
7.39
6.65
5.98
5.40
4.83
4.14
3.17
1.83
0.12
-1.85
-3.88
-5.76
-7.31
-8.43
-9.20
-9.81
-10.53
-11.64
-13.32
-15.61
-18.42
-21.47
-24.33
-26.52
-27.50
-26.84
-24.37
-20.20
-14.70
-8.41
-1.87
4.51
10.45
15.84
20.55
24.39
27.02
28.08
27.37
25.07
21.83
18.57
16.20
15.18
15.31
15.89
16.12
15.46
13.94
11.92
9.87
7.99
6.15
4.11
1.67
-1.08
-3.88
-6.46
-8.67
-10.61
-12.48
-14.48
-16.83
-19.65
-23.04
-27.00
-31.35
-35.75
-39.75
-42.98
-45.37
-47.16
-48.84
-50.86
-53.43
-56.33
-58.97
-60.48
-59.95
-56.62
-50.06
-40.29
-27.87
-13.84
0.49
13.82
25.05
33.53
39.10
42.00
42.74
41.95
40.30
38.45
36.85
35.80
35.31
35.16
35.04
34.59
33.63
32.14
30.31
28.43
26.78
25.53
24.65
23.88
22.81
21.08
18.53
15.28
11.66
8.11
4.87
1.90
-1.14
-4.70
-9.14
-14.45
-20.32
-26.16
-31.37
-35.64
-39.08
-42.21
-45.83
-50.72
-57.34
-65.61
-74.66
-83.01
-88.76
-90.08
-85.74
-75.51
-60.28
-41.80
-22.26
-3.72
12.28
24.90
33.91
39.52
42.20
42.59
41.39
39.31
37.01
34.93
33.34
32.31
31.78
31.61
31.65
31.71
31.66
31.41
30.94
30.25
29.36
28.20
26.65
24.55
21.81
18.41
14.42
9.96
5.17
0.20
-4.79
-9.64
-14.19
-18.39
-22.34
-26.30
-30.68
-35.91
-42.28
-49.82
-58.10
-66.12
-72.43
-75.38
-73.58
-66.42
-54.34
-38.75
-21.62
-5.00
9.57
21.20
29.65
35.13
38.07
38.96
38.31
36.61
34.29
31.71
29.09
26.51
23.97
21.51
19.24
17.39
16.22
15.93
16.53
17.82
19.39
20.77
21.60
21.77
21.44
21.00
20.82
21.11
21.66
21.97
21.39
19.45
16.12
11.92
7.69
4.23
1.91
0.52
-0.69
-2.70
-6.38
-12.35
-20.78
-31.36
-43.23
-54.99
-64.80
-70.81
-71.65
-66.89
-57.30
-44.51
-30.55
-17.20
-5.66
3.51
10.19
14.30
15.75
14.46
10.58
4.66
-2.34
-9.39
-15.70
-21.11
-26.25
-32.31
-40.53
-51.51
-64.64
-78.12
-89.31
-95.39
-93.99
-83.75
-64.73
-38.86
-9.94
16.83
36.10
44.05
39.79
25.88
7.47
-9.56
-20.64
-23.69
-19.03
-8.39
6.44
24.24
44.30
65.71
86.91
105.67
119.67
127.31
128.36
123.94
116.04
106.71
97.33
88.50
80.38
73.44
69.03
69.21
76.16
91.01
112.99
139.15
164.90
185.30
196.48
196.68
186.57
168.78
146.78
123.79
102.02
82.50
65.48
50.88
38.75
29.21
22.21
17.19
13.05
8.49
2.54
-4.86
-12.88
-20.11
-25.25
-27.71
-27.88
-26.94
-26.30
-27.02
-29.39
-32.95
-36.87
-40.49
-43.78
-47.45
-52.66
-60.54
-71.74
-86.02
-102.06
-117.31
-128.10
-130.02
-118.94
-92.52
-51.47
-0.21
53.83
102.05
137.06
154.70
154.83
140.84
118.20
92.68
69.03
50.23
37.35
29.83
26.02
23.90
21.67
18.25
13.31
7.12
0.20
-6.83
-13.39
-18.87
-22.75
-24.73
-24.87
-23.67
-21.99
-20.71
-20.43
-21.36
-23.18
-25.36
-27.24
-28.45
-28.92
-29.02
-29.40
-30.88
-34.17
-39.73
-47.62
-57.51
-68.69
-80.18
-90.88
-99.69
-105.65
-108.07
-106.56
-100.97
-91.33
-77.84
-60.91
-41.23
-19.89
1.76
22.27
40.28
54.82
65.38
72.00
75.28
76.17
75.76
74.95
74.24
73.67
72.98
71.85
70.15
68.01
65.76
63.73
62.04
60.54
58.79
56.15
51.91
45.53
36.77
25.88
13.62
1.05
-10.71
-20.87
-29.15
-35.79
-41.36
-46.41
-51.25
-55.86
-60.02
-63.61
-66.80
-70.10
-74.25
-79.83
-87.06
-95.54
-104.28
-111.84
-116.57
-116.93
-111.80
-100.83
-84.61
-64.67
-43.18
-22.47
-4.46
9.67
19.60
25.68
28.71
29.58
29.15
28.14
27.14
26.52
26.41
26.77
27.42
28.18
29.01
29.97
31.26
33.05
35.34
37.89
40.28
42.02
42.74
42.31
40.91
38.90
36.56
34.03
31.15
27.53
22.68
16.25
8.09
-1.61
-12.30
-23.10
-32.95
-40.85
-46.09
-48.53
-48.61
-47.21
-45.37
-43.83
-42.82
-41.92
-40.30
-37.05
-31.69
-24.45
-16.30
-8.56
-2.39
1.64
3.70
4.50
4.81
5.02
5.11
4.71
3.58
1.75
-0.44
-2.55
-4.26
-5.48
-6.31
-6.79
-6.86
-6.37
-5.22
-3.55
-1.68
-0.10
0.75
0.68
-0.27
-1.82
-3.62
-5.36
-6.92
-8.33
-9.71
-11.18
-12.73
-14.22
-15.42
-16.17
-16.44
-16.39
-16.29
-16.42
-16.92
-17.85
-19.21
-21.03
-23.41
-26.44
-30.03
-33.76
-36.89
-38.41
-37.44
-33.53
-26.83
-18.20
-8.83
0.02
7.39
12.75
15.98
17.25
16.90
15.33
13.00
10.45
8.18
6.55
5.70
5.49
5.58
5.58
5.15
4.12
2.49
0.49
-1.50
-3.09
-3.99
-4.14
-3.78
-3.26
-2.95
-3.05
-3.57
-4.39
-5.32
-6.28
-7.22
-8.10
-8.90
-9.56
-10.11
-10.68
-11.48
-12.68
-14.32
-16.23
-18.11
-19.62
-20.60
-21.08
-21.35
-21.86
-23.05
-25.21
-28.36
-32.15
-35.92
-38.79
-39.89
-38.46
-34.11
-26.86
-17.21
-6.06
5.39
15.87
24.27
29.86
32.48
32.53
30.76
28.06
25.12
22.27
19.51
16.57
13.12
8.96
3.99
-1.66
-7.67
-13.50
-18.34
-21.27
-21.54
-18.92
-13.92
-7.79
-2.06
1.98
3.74
3.37
1.51
-1.19
-4.37
-7.99
-12.14
-16.71
-21.29
-25.27
-28.05
-29.35
-29.30
-28.50
-27.86
-28.45
-31.11
-36.22
-43.31
-50.93
-56.86
-58.63
-54.29
-43.15
-26.19
-5.89
14.54
31.99
44.43
51.23
52.98
50.94
46.38
40.16
32.82
24.77
16.55
8.88
2.33
-2.86
-6.81
-9.77
-11.60
-11.70
-9.16
-3.43
5.03
14.62
22.99
28.00
28.53
24.82
18.15
10.06
1.76
-6.22
-13.76
-20.78
-27.02
-32.10
-35.85
-38.52
-40.85
-43.77
-48.13
-54.45
-62.80
-72.80
-83.57
-93.71
-101.40
-104.73
-102.19
-93.10
-77.91
-58.11
-35.83
-13.35
7.33
24.82
38.38
47.85
53.56
56.20
56.65
55.77
54.23
52.45
50.61
48.72
46.82
44.99
43.42
42.37
42.06
42.53
43.59
44.82
45.67
45.70
44.75
42.91
40.46
37.60
34.36
30.54
25.85
20.15
13.57
6.52
-0.47
-6.95
-12.65
-17.62
-22.18
-26.84
-32.25
-38.98
-47.29
-56.85
-66.53
-74.52
-78.68
-77.24
-69.37
-55.50
-37.21
-16.81
3.34
21.34
35.95
46.70
53.64
57.25
58.18
57.11
54.61
51.09
46.79
41.97
37.03
32.55
29.14
27.10
26.23
25.86
25.10
23.31
20.35
16.59
12.60
8.77
5.06
1.04
-3.84
-9.89
-16.99
-24.63
-32.08
-38.71
-44.14
-48.41
-51.84
-55.00
-58.55
-63.11
-69.07
-76.49
-84.82
-92.88
-98.93
-101.03
-97.60
-87.98
-72.71
-53.44
-32.45
-11.98
6.18
20.98
31.87
38.71
41.60
40.90
37.28
31.59
24.71
17.22
9.36
1.14
-7.36
-15.77
-23.33
-29.00
-31.58
-29.97
-23.44
-11.99
3.39
20.69
37.30
50.75
59.67
64.26
66.07
67.19
69.19
72.44
76.23
79.43
81.43
82.55
83.90
86.58
90.95
96.23
100.77
102.61
100.27
93.18
81.84
67.74
53.10
40.46
32.17
29.82
33.78
43.04
55.45
68.25
78.84
85.34
86.86
83.63
76.71
67.67
58.17
49.53
42.44
36.90
32.37
28.12
23.52
18.29
12.45
6.32
0.35
-4.92
-8.98
-11.44
-12.22
-11.65
-10.38
-9.25
-8.95
-9.86
-12.01
-15.08
-18.64
-22.39
-26.19
-30.17
-34.49
-39.27
-44.42
-49.67
-54.66
-59.02
-62.58
-65.29
-67.30
-68.97
-70.85
-73.57
-77.58
-82.74
-88.04
-91.57
-91.04
-84.55
-71.44
-52.64
-30.48
-7.90
12.48
29.00
41.20
49.51
54.82
57.99
59.71
60.51
60.76
60.74
60.66
60.54
60.29
59.73
58.65
56.91
54.49
51.44
47.88
43.97
39.83
35.49
30.89
25.88
20.28
13.98
7.10
-0.12
-7.26
-13.96
-19.94
-25.07
-29.31
-32.61
-34.96
-36.49
-37.59
-39.05
-41.85
-46.91
-54.58
-64.27
-74.37
-82.57
-86.50
-84.43
-75.86
-61.59
-43.48
-23.86
-4.97
11.52
24.69
34.29
40.54
43.96
45.15
44.74
43.27
41.20
38.85
36.48
34.25
32.24
30.46
28.85
27.34
25.86
24.42
23.12
22.02
21.12
20.20
18.93
17.03
14.40
11.22
7.84
4.59
1.60
-1.36
-4.70
-8.78
-13.68
-19.05
-24.32
-28.87
-32.38
-34.98
-37.23
-39.97
-44.08
-50.05
-57.72
-66.05
-73.23
-77.10
-75.76
-68.19
-54.66
-36.64
-16.43
3.55
21.23
35.25
45.04
50.73
52.90
52.44
50.38
47.69
45.09
42.99
41.43
40.21
39.08
37.81
36.32
34.68
33.09
31.78
30.94
30.58
30.50
30.27
29.38
27.35
23.99
19.38
13.95
8.25
2.75
-2.25
-6.73
-10.92
-15.14
-19.72
-24.84
-30.46
-36.30
-41.92
-46.90
-51.01
-54.35
-57.36
-60.75
-65.14
-70.80
-77.27
-83.32
-87.17
-86.93
-81.29
-69.90
-53.61
-34.22
-13.96
5.01
21.08
33.35
41.54
45.94
47.16
46.04
43.50
40.33
37.08
34.00
31.09
28.27
25.50
22.86
20.60
18.92
17.96
17.64
17.70
17.75
17.39
16.36
14.55
12.06
9.13
6.04
3.02
0.12
-2.76
-5.82
-9.28
-13.17
-17.36
-21.48
-25.18
-28.19
-30.51
-32.46
-34.58
-37.47
-41.46
-46.36
-51.19
-54.34
-53.97
-48.66
-37.98
-22.83
-5.18
12.52
28.05
40.04
48.02
52.31
53.53
52.35
49.30
44.94
39.83
34.55
29.64
25.41
21.90
19.04
16.68
14.85
13.69
13.34
13.77
14.71
15.69
16.17
15.76
14.34
12.03
9.12
5.85
2.35
-1.31
-5.17
-9.25
-13.47
-17.80
-22.12
-26.34
-30.38
-34.15
-37.59
-40.83
-44.19
-48.12
-52.99
-58.67
-64.35
-68.48
-69.25
-65.15
-55.59
-41.15
-23.42
-4.53
13.42
28.85
40.86
49.15
53.92
55.62
54.88
52.44
49.06
45.50
42.35
39.92
38.19
36.86
35.52
33.88
31.91
29.88
28.19
27.14
26.75
26.71
26.48
25.54
23.62
20.80
17.44
13.97
10.68
7.55
4.33
0.65
-3.72
-8.75
-14.14
-19.41
-24.09
-27.91
-30.86
-33.28
-35.78
-39.13
-44.09
-50.93
-59.23
-67.66
-74.19
-76.64
-73.40
-63.94
-49.10
-30.77
-11.38
6.80
22.14
33.77
41.56
45.85
47.27
46.54
44.37
41.44
38.27
35.25
32.55
30.20
28.12
26.21
24.39
22.69
21.24
20.23
19.82
20.05
20.73
21.47
21.76
21.16
19.45
16.77
13.46
9.98
6.61
3.41
0.16
-3.41
-7.52
-12.11
-16.90
-21.48
-25.49
-28.80
-31.58
-34.27
-37.47
-41.68
-47.08
-53.25
-59.23
-63.53
-64.61
-61.26
-53.02
-40.38
-24.72
-7.90
8.14
21.89
32.43
39.51
43.33
44.39
43.27
40.58
36.91
32.80
28.74
25.08
22.06
19.78
18.27
17.46
17.21
17.34
17.59
17.68
17.38
16.55
15.19
13.38
11.22
8.78
6.04
2.90
-0.68
-4.68
-8.93
-13.16
-17.06
-20.41
-23.18
-25.56
-28.03
-31.13
-35.38
-40.92
-47.29
-53.32
-57.35
-57.63
-52.98
-43.17
-29.12
-12.66
4.03
18.99
30.92
39.32
44.34
46.48
46.40
44.69
41.86
38.33
34.48
30.64
27.11
24.10
21.71
19.93
18.68
17.89
17.49
17.39
17.40
17.24
16.58
15.17
13.01
10.29
7.32
4.32
1.25
-2.13
-6.12
-10.84
-16.12
-21.48
-26.42
-30.60
-33.99
-36.93
-40.06
-44.04
-49.35
-55.99
-63.29
-69.84
-73.82
-73.45
-67.60
-56.30
-40.72
-22.91
-5.15
10.65
23.34
32.60
38.67
42.11
43.48
43.31
42.02
39.97
37.43
34.65
31.74
28.83
26.01
23.41
21.20
19.47
18.29
17.62
17.30
17.08
16.68
15.77
14.14
11.71
8.58
4.93
0.99
-3.10
-7.28
-11.55
-15.85
-20.10
-24.18
-28.01
-31.66
-35.37
-39.55
-44.62
-50.75
-57.61
-64.18
-68.90
-69.97
-66.02
-56.64
-42.62
-25.82
-8.55
7.11
19.80
29.05
35.02
38.22
39.17
38.29
36.05
32.95
29.59
26.50
24.06
22.34
21.19
20.29
19.42
18.46
17.49
16.64
15.99
15.47
14.93
14.12
12.83
10.92
8.34
5.12
1.37
-2.72
-6.83
-10.66
-13.95
-16.63
-18.91
-21.30
-24.45
-28.94
-34.93
-41.97
-48.89
-54.02
-55.60
-52.34
-43.86
-30.79
-14.71
2.33
18.30
31.60
41.36
47.44
50.29
50.68
49.39
47.07
44.12
40.82
37.37
34.02
31.04
28.68
27.05
26.16
25.86
25.95
26.13
26.10
25.55
24.24
22.08
19.16
15.70
11.97
8.14
4.30
0.38
-3.67
-7.86
-12.07
-16.11
-19.77
-22.95
-25.70
-28.30
-31.19
-34.96
-40.05
-46.61
-54.14
-61.48
-66.96
-68.81
-65.69
-57.20
-43.98
-27.63
-10.27
6.01
19.63
29.76
36.37
40.02
41.59
41.94
41.74
41.33
40.76
39.90
38.64
36.93
34.96
32.99
31.34
30.26
29.76
29.68
29.75
29.67
29.32
28.65
27.70
26.41
24.64
22.23
19.18
15.70
12.16
8.89
5.94
3.10
-0.05
-3.86
-8.41
-13.51
-18.77
-23.80
-28.28
-31.99
-34.85
-36.92
-38.49
-40.12
-42.50
-46.26
-51.56
-57.87
-63.88
-67.78
-67.75
-62.54
-51.93
-36.89
-19.31
-1.46
14.58
27.44
36.64
42.40
45.40
46.36
45.87
44.40
42.31
39.93
37.58
35.49
33.74
32.28
30.99
29.79
28.67
27.68
26.91
26.37
25.97
25.56
24.91
23.87
22.34
20.30
17.79
14.89
11.75
8.57
5.54
2.84
0.54
-1.48
-3.47
-5.73
-8.50
-11.79
-15.41
-19.06
-22.42
-25.28
-27.63
-29.57
-31.33
-33.22
-35.62
-38.92
-43.35
-48.74
-54.32
-58.72
-60.29
-57.62
-50.15
-38.40
-23.91
-8.68
5.39
17.00
25.61
31.25
34.29
35.16
34.30
32.12
29.13
25.84
22.76
20.28
18.58
17.62
17.25
17.24
17.43
17.75
18.17
18.67
19.17
19.51
19.50
18.94
17.71
15.81
13.32
10.39
7.23
4.07
1.06
-1.72
-4.39
-7.17
-10.31
-13.96
-18.03
-22.25
-26.22
-29.61
-32.31
-34.45
-36.47
-38.89
-42.20
-46.56
-51.63
-56.50
-59.81
-60.14
-56.41
-48.34
-36.58
-22.54
-8.05
5.23
16.18
24.32
29.79
33.05
34.62
34.96
34.40
33.21
31.60
29.74
27.78
25.86
24.07
22.48
21.23
20.36
19.90
19.77
19.88
20.13
20.42
20.65
20.67
20.27
19.23
17.40
14.85
11.84
8.74
5.90
3.45
1.24
-1.06
-3.81
-7.21
-11.20
-15.47
-19.61
-23.30
-26.39
-28.98
-31.30
-33.66
-36.28
-39.33
-42.91
-47.13
-51.96
-57.13
-61.87
-64.93
-64.86
-60.47
-51.37
-38.25
-22.73
-6.86
7.48
19.02
27.25
32.33
34.77
35.28
34.56
33.20
31.65
30.12
28.63
27.10
25.47
23.77
22.15
20.77
19.78
19.20
19.02
19.15
19.45
19.74
19.77
19.31
18.20
16.44
14.13
11.49
8.71
5.99
3.45
1.16
-0.92
-2.91
-5.02
-7.44
-10.31
-13.59
-17.07
-20.47
-23.50
-26.03
-28.10
-29.95
-31.92
-34.40
-37.74
-42.12
-47.38
-52.85
-57.36
-59.45
-57.74
-51.46
-40.78
-26.83
-11.38
3.66
16.73
26.92
33.99
38.16
39.92
39.80
38.30
35.90
33.02
30.02
27.20
24.78
22.89
21.55
20.68
20.18
19.98
20.05
20.40
20.95
21.48
21.63
21.01
19.43
16.91
13.77
10.40
7.14
4.10
1.15
-1.96
-5.45
-9.39
-13.67
-18.05
-22.25
-26.04
-29.26
-31.97
-34.45
-37.18
-40.68
-45.20
-50.47
-55.55
-58.95
-59.14
-54.98
-46.25
-33.68
-18.79
-3.42
10.77
22.64
31.63
37.69
41.11
42.33
41.85
40.11
37.56
34.57
31.50
28.64
26.25
24.43
23.21
22.44
21.98
21.70
21.52
21.44
21.42
21.35
21.03
20.18
18.59
16.19
13.11
9.62
5.99
2.41
-1.08
-4.61
-8.30
-12.20
-16.22
-20.18
-23.86
-27.15
-30.09
-32.88
-35.89
-39.54
-44.24
-50.08
-56.69
-63.10
-67.73
-68.83
-64.98
-55.67
-41.62
-24.60
-6.93
9.19
22.27
31.75
37.82
41.16
42.50
42.48
41.55
40.00
38.07
35.96
33.83
31.79
29.90
28.15
26.55
25.15
24.02
23.26
22.92
22.91
22.96
22.68
21.70
19.78
16.96
13.53
9.90
6.46
3.37
0.52
-2.42
-5.81
-9.84
-14.42
-19.20
-23.68
-27.45
-30.31
-32.44
-34.33
-36.74
-40.41
-45.73
-52.39
-59.32
-64.75
-66.76
-63.84
-55.48
-42.38
-26.20
-9.06
7.03
20.67
31.11
38.24
42.29
43.73
43.11
41.00
38.02
34.69
31.47
28.65
26.45
24.92
24.05
23.72
23.72
23.76
23.55
22.93
21.85
20.41
18.79
17.15
15.54
13.85
11.81
9.16
5.65
1.29
-3.69
-8.91
-13.95
-18.53
-22.56
-26.21
-29.76
-33.63
-38.11
-43.34
-49.04
-54.45
-58.37
-59.38
-56.25
-48.39
-36.16
-20.84
-4.31
11.50
25.12
35.74
43.21
47.77
49.81
49.64
47.60
44.11
39.76
35.22
31.13
27.91
25.69
24.33
23.56
23.11
22.76
22.50
22.37
22.47
22.78
23.03
22.81
21.63
19.22
15.59
11.11
6.31
1.62
-2.82
-7.18
-11.70
-16.52
-21.50
-26.29
-30.43
-33.63
-35.87
-37.38
-38.64
-40.27
-42.86
-46.86
-52.40
-59.05
-65.72
-70.76
-72.29
-68.82
-59.73
-45.60
-28.12
-9.59
7.71
22.06
32.63
39.47
43.17
44.56
44.45
43.48
42.09
40.57
39.05
37.58
36.14
34.67
33.16
31.62
30.16
28.97
28.25
28.14
28.60
29.42
30.19
30.50
30.00
28.57
26.28
23.37
20.12
16.74
13.36
10.03
6.80
3.69
0.68
-2.34
-5.56
-9.21
-13.43
-18.22
-23.33
-28.36
-32.89
-36.59
-39.43
-41.66
-43.84
-46.64
-50.69
-56.29
-63.20
-70.41
-76.32
-79.03
-76.92
-69.20
-56.26
-39.59
-21.35
-3.76
11.42
23.26
31.55
36.65
39.15
39.66
38.75
36.93
34.67
32.41
30.48
29.11
28.34
28.15
28.44
29.09
29.97
30.90
31.60
31.79
31.19
29.58
26.93
23.39
19.22
14.80
10.48
6.53
3.01
-0.22
-3.50
-7.17
-11.45
-16.35
-21.54
-26.54
-30.82
-34.04
-36.13
-37.29
-37.96
-38.67
-39.96
-42.17
-45.35
-49.06
-52.34
-53.88
-52.33
-46.77
-37.04
-23.91
-8.82
6.51
20.53
32.19
40.97
46.77
49.77
50.28
48.72
45.64
41.61
37.22
32.95
29.13
25.94
23.46
21.66
20.45
19.64
18.99
18.26
17.30
16.00
14.32
12.27
9.87
7.14
4.15
0.97
-2.40
-6.00
-10.00
-14.52
-19.63
-25.18
-30.85
-36.24
-40.97
-44.92
-48.26
-51.57
-55.64
-61.26
-68.80
-77.84
-87.09
-94.55
-98.11
-96.18
-88.16
-74.75
-57.72
-39.42
-22.21
-7.87
2.76
9.80
14.15
17.05
19.51
22.01
24.37
26.08
26.61
25.90
24.36
22.66
21.39
20.68
20.32
19.86
18.88
17.26
15.27
13.35
11.69
10.07
7.82
4.48
0.02
-5.02
-9.94
-14.27
-18.13
-22.04
-26.50
-31.46
-35.98
-39.06
-40.48
-41.18
-42.66
-45.84
-50.07
-53.00
-51.50
-42.49
-25.30
-2.45
21.35
41.46
55.43
63.71
68.87
74.08
83.07
96.88
113.13
127.02
133.70
130.64
118.31
100.02
80.75
68.34
68.39
81.71
104.16
129.34
151.86
168.99
180.83
189.27
199.90
216.34
238.05
261.12
281.49
297.52
309.81
319.51
305.19
254.29
170.21
71.63
-20.91
-95.45
-148.69
-182.33
-200.14
-206.66
-202.94
-190.50
-173.13
-155.73
-142.22
-133.76
-129.17
-126.31
-123.50
-117.64
-107.76
-96.47
-87.64
-84.68
-87.77
-94.86
-103.08
-110.13
-113.57
-113.05
-111.35
-111.77
-116.98
-127.96
-143.85
-161.99
-178.21
-186.71
-176.88
-148.22
-105.67
-57.98
-14.65
17.40
35.99
43.64
45.72
47.25
49.60
51.92
51.78
46.74
35.90
20.62
4.31
-8.63
-14.42
-12.07
-3.41
8.53
19.97
28.01
31.78
32.33
31.50
30.56
28.96
25.65
19.83
11.73
2.81
-4.78
-9.24
-10.08
-8.34
-6.20
-5.68
-7.71
-11.96
-17.02
-21.19
-23.18
-22.76
-20.68
-18.32
-16.76
-16.45
-16.93
-17.30
-16.69
-14.84
-12.27
-10.10
-9.62
-11.81
-16.88
-24.18
-32.21
-38.79
-41.56
-38.54
-28.91
-13.44
5.55
24.76
41.07
52.46
58.52
60.20
59.04
56.33
52.70
48.15
42.45
35.57
27.79
19.74
12.17
5.86
1.43
-0.78
-0.77
1.10
4.32
8.37
12.89
17.61
22.17
25.92
28.04
27.70
24.56
18.96
11.94
4.97
-0.58
-3.85
-4.74
-3.96
-2.69
-2.15
-3.13
-5.79
-9.66
-13.99
-18.13
-21.81
-25.18
-28.59
-32.39
-36.79
-41.89
-47.55
-53.38
-58.52
-61.71
-61.52
-56.93
-47.76
-34.83
-19.76
-4.32
10.06
22.58
32.95
41.10
46.93
50.34
51.33
50.20
47.58
44.24
40.85
37.80
35.09
32.49
29.73
26.67
23.44
20.38
17.88
16.19
15.25
14.60
13.64
11.73
8.54
4.16
-0.99
-6.39
-11.61
-16.49
-21.14
-25.81
-30.81
-36.37
-42.54
-49.14
-55.59
-60.89
-63.73
-62.80
-57.21
-46.93
-32.87
-16.68
-0.29
14.63
27.02
36.47
43.05
47.14
49.17
49.53
48.58
46.63
43.89
40.54
36.72
32.61
28.44
24.61
21.45
19.21
17.93
17.39
17.26
17.17
16.86
16.15
14.98
13.28
10.99
8.06
4.49
0.40
-4.01
-8.46
-12.76
-16.79
-20.53
-24.03
-27.37
-30.71
-34.30
-38.47
-43.49
-49.22
-54.98
-59.50
-61.23
-58.86
-51.88
-40.72
-26.74
-11.71
2.72
15.33
25.51
33.13
38.37
41.51
42.92
42.95
42.01
40.52
38.84
37.24
35.84
34.60
33.39
32.11
30.77
29.48
28.48
27.95
27.94
28.26
28.58
28.47
27.56
25.62
22.68
18.90
14.63
10.30
6.28
2.81
-0.12
-2.69
-5.28
-8.22
-11.70
-15.61
-19.61
-23.27
-26.25
-28.50
-30.27
-32.03
-34.30
-37.48
-41.73
-46.87
-52.26
-56.85
-59.26
-58.13
-52.63
-42.81
-29.71
-15.04
-0.68
11.91
21.97
29.35
34.31
37.16
38.22
37.78
36.18
33.83
31.17
28.49
25.97
23.65
21.59
19.91
18.73
18.14
18.05
18.30
18.62
18.71
18.36
17.41
15.85
13.74
11.28
8.68
6.13
3.67
1.17
-1.57
-4.67
-8.03
-11.43
-14.55
-17.22
-19.52
-21.74
-24.24
-27.41
-31.46
-36.38
-41.83
-47.07
-50.95
-52.14
-49.51
-42.59
-31.80
-18.44
-4.28
8.94
19.95
28.17
33.59
36.52
37.37
36.53
34.36
31.24
27.65
24.06
20.90
18.44
16.76
15.76
15.25
15.06
15.06
15.20
15.38
15.46
15.19
14.38
12.94
10.92
8.53
6.01
3.45
0.76
-2.32
-6.01
-10.30
-14.94
-19.47
-23.49
-26.81
-29.57
-32.17
-35.11
-38.82
-43.52
-49.05
-54.77
-59.56
-62.02
-60.86
-55.31
-45.47
-32.34
-17.51
-2.68
10.71
21.80
30.19
35.86
39.02
40.02
39.36
37.62
35.36
32.96
30.61
28.35
26.15
24.00
21.99
20.25
18.89
17.94
17.37
17.01
16.68
16.17
15.33
14.09
12.49
10.58
8.45
6.09
3.40
0.26
-3.44
-7.68
-12.22
-16.73
-20.81
-24.21
-26.89
-29.15
-31.51
-34.65
-39.09
-44.92
-51.59
-57.88
-62.12
-62.67
-58.45
-49.33
-36.23
-20.86
-5.23
8.88
20.29
28.53
33.72
36.36
37.08
36.48
35.08
33.27
31.30
29.31
27.34
25.37
23.38
21.43
19.65
18.24
17.35
17.01
17.11
17.41
17.62
17.49
16.84
15.61
13.80
11.42
8.50
5.11
1.31
-2.76
-6.90
-10.93
-14.64
-17.92
-20.78
-23.37
-25.98
-29.02
-32.91
-37.83
-43.52
-49.15
-53.40
-54.81
-52.20
-45.14
-34.12
-20.43
-5.79
8.09
19.93
29.00
35.12
38.49
39.50
38.63
36.36
33.19
29.64
26.18
23.20
20.95
19.43
18.49
17.89
17.42
16.97
16.52
16.10
15.76
15.45
15.03
14.28
12.94
10.75
7.61
3.60
-1.00
-5.80
-10.43
-14.67
-18.47
-21.95
-25.28
-28.72
-32.58
-37.14
-42.54
-48.44
-53.92
-57.55
-57.77
-53.55
-44.71
-32.14
-17.45
-2.42
11.45
23.23
32.51
39.24
43.51
45.47
45.40
43.69
40.90
37.65
34.51
31.88
29.86
28.38
27.20
26.14
25.16
24.35
23.84
23.60
23.43
22.96
21.83
19.87
17.18
14.05
10.82
7.61
4.34
0.77
-3.27
-7.71
-12.23
-16.38
-19.78
-22.36
-24.36
-26.25
-28.55
-31.72
-36.05
-41.60
-48.00
-54.36
-59.24
-60.96
-58.15
-50.30
-38.05
-23.06
-7.47
6.80
18.46
27.05
32.71
35.94
37.30
37.32
36.49
35.18
33.64
32.02
30.37
28.73
27.11
25.54
24.07
22.74
21.65
20.89
20.55
20.60
20.84
20.93
20.46
19.18
17.03
14.16
10.84
7.33
3.77
0.17
-3.54
-7.38
-11.32
-15.21
-18.88
-22.17
-25.03
-27.52
-29.83
-32.22
-35.00
-38.50
-42.88
-48.05
-53.43
-57.91
-60.04
-58.40
-52.13
-41.34
-27.15
-11.44
3.73
16.69
26.50
33.00
36.62
37.99
37.76
36.38
34.14
31.27
28.03
24.75
21.77
19.38
17.74
16.82
16.45
16.39
16.42
16.41
16.35
16.22
16.01
15.59
14.71
13.13
10.62
7.19
3.03
-1.54
-6.18
-10.64
-14.77
-18.53
-21.92
-25.01
-27.93
-30.99
-34.64
-39.29
-45.03
-51.36
-57.14
-60.86
-61.10
-57.02
-48.71
-37.13
-23.87
-10.57
1.37
11.08
18.14
22.51
24.32
23.81
21.34
17.38
12.51
7.27
2.10
-2.74
-7.18
-11.27
-15.06
-18.55
-21.61
-24.11
-25.92
-26.98
-27.32
-26.96
-25.90
-24.08
-21.44
-17.96
-13.73
-8.94
-3.91
1.05
5.57
9.37
12.20
13.89
14.37
13.61
11.67
8.56
4.26
-1.36
-8.32
-16.37
-24.75
-32.16
-36.96
-37.69
-33.58
-24.91
-13.00
0.24
12.87
23.44
31.24
36.20
38.63
38.96
37.63
35.03
31.59
27.69
23.80
20.35
17.66
15.98
15.37
15.74
16.92
18.67
20.74
22.84
24.57
25.38
24.77
22.47
18.79
14.68
11.52
10.57
12.47
16.90
22.83
29.04
34.70
39.73
44.47
49.33
54.14
58.16
60.22
59.32
54.98
47.36
37.06
24.96
12.09
-0.32
-10.80
-17.88
-20.42
-18.14
-11.83
-3.16
5.82
13.32
18.31
20.61
20.65
19.04
16.26
12.56
8.08
3.04
-2.09
-6.69
-10.16
-12.11
-12.56
-11.88
-10.66
-9.43
-8.52
-8.02
-7.77
-7.53
-7.13
-6.65
-6.41
-6.91
-8.57
-11.53
-15.53
-19.95
-24.15
-27.68
-30.54
-33.08
-35.78
-39.09
-43.20
-48.03
-53.24
-58.18
-61.89
-63.23
-61.10
-54.84
-44.64
-31.57
-17.37
-3.86
7.55
16.14
21.93
25.29
26.66
26.36
24.61
21.72
18.23
14.89
12.40
11.21
11.29
12.16
13.13
13.67
13.57
13.08
12.60
12.48
12.67
12.74
12.08
10.18
6.90
2.52
-2.44
-7.41
-12.00
-16.04
-19.57
-22.75
-25.86
-29.24
-33.29
-38.33
-44.36
-50.90
-56.88
-60.83
-61.30
-57.29
-48.73
-36.47
-22.11
-7.47
5.85
16.82
25.02
30.55
33.73
35.00
34.80
33.58
31.80
29.85
28.01
26.43
25.14
24.06
23.09
22.13
21.11
19.97
18.71
17.38
16.04
14.76
13.53
12.21
10.60
8.40
5.36
1.34
-3.56
-9.02
-14.53
-19.54
-23.61
-26.62
-28.77
-30.58
-32.73
-35.82
-40.16
-45.51
-51.02
-55.30
-56.76
-54.04
-46.54
-34.65
-19.80
-3.99
10.75
22.94
31.94
37.87
41.36
43.12
43.72
43.48
42.53
40.92
38.76
36.25
33.71
31.44
29.62
28.24
27.08
25.82
24.24
22.32
20.25
18.35
16.76
15.35
13.69
11.29
7.90
3.65
-0.95
-5.28
-8.90
-11.73
-14.11
-16.53
-19.48
-23.25
-27.90
-33.24
-38.94
-44.35
-48.54
-50.29
-48.45
-42.26
-31.81
-18.09
-2.85
11.93
24.58
34.11
40.30
43.55
44.49
43.77
41.85
39.04
35.58
31.76
28.02
24.95
23.21
23.27
25.22
28.59
32.42
35.52
36.93
36.21
33.60
29.74
25.39
21.09
17.03
13.12
9.35
5.81
2.78
0.55
-0.79
-1.38
-1.47
-1.25
-0.73
0.17
1.43
2.83
3.96
4.45
4.27
3.80
3.75
4.81
7.40
11.42
16.35
21.47
26.15
30.05
33.14
35.56
37.42
38.68
39.06
38.11
35.45
30.92
24.79
17.63
10.21
3.15
-3.20
-8.81
-13.79
-18.33
-22.57
-26.55
-30.22
-33.30
-35.27
-35.31
-32.45
-25.88
-15.29
-1.19
15.07
31.55
46.15
57.16
63.63
65.33
62.68
56.45
47.51
36.78
25.22
13.85
3.75
-4.08
-8.90
-10.41
-8.79
-4.56
1.51
8.57
15.84
22.61
28.39
32.88
36.00
37.93
38.96
39.42
39.62
39.70
39.70
39.52
39.00
37.84
35.66
31.87
25.77
16.64
3.99
-12.12
-30.97
-51.20
-71.12
-89.14
-104.13
-115.51
-123.25
-127.62
-129.25
-129.06
-128.33
-128.57
-131.07
-136.34
-143.79
-151.67
-157.69
-159.74
-156.62
-148.30
-135.72
-120.24
-103.12
-85.29
-67.36
-49.89
-33.50
-18.85
-6.43
3.60
11.47
17.64
22.50
26.18
28.55
29.47
29.06
27.90
26.86
26.79
28.03
30.29
32.68
34.18
34.12
32.39
29.55
26.46
23.88
22.15
21.01
19.69
17.17
12.55
5.43
-3.94
-14.67
-25.45
-35.00
-42.47
-47.73
-51.56
-55.46
-61.38
-71.11
-85.57
-103.99
-123.48
-139.27
-145.90
-139.05
-117.36
-83.25
-42.38
-1.73
32.65
57.31
71.71
77.38
76.62
71.43
63.36
53.78
44.26
36.47
31.75
30.61
32.42
35.78
39.06
41.09
41.50
40.65
39.32
38.28
37.86
37.83
37.46
35.82
32.30
26.97
20.65
14.64
10.15
7.80
7.31
7.73
7.75
6.25
2.57
-3.29
-10.70
-18.43
-24.86
-28.34
-27.58
-22.14
-12.67
-0.73
11.67
22.73
31.28
36.98
40.11
41.22
40.82
39.27
36.85
33.76
30.21
26.33
22.11
17.42
12.16
6.41
0.56
-4.69
-8.57
-10.37
-9.70
-6.61
-1.65
4.26
9.90
14.16
16.27
15.91
13.32
9.05
3.73
-2.17
-8.39
-14.81
-21.35
-27.92
-34.44
-40.96
-47.67
-54.88
-62.68
-70.62
-77.51
-81.37
-79.89
-71.20
-54.61
-31.14
-3.41
25.07
50.88
71.64
86.43
95.64
100.40
101.91
100.98
97.97
92.98
86.22
78.18
69.74
61.86
55.43
50.94
48.40
47.39
47.31
47.49
47.44
46.81
45.41
43.12
39.90
35.77
30.87
25.47
20.05
15.15
11.21
8.34
6.31
4.56
2.51
-0.25
-3.83
-8.22
-13.43
-19.64
-27.05
-35.55
-44.55
-52.89
-59.21
-62.43
-62.21
-59.08
-54.20
-48.88
-44.05
-40.01
-36.55
-33.26
-29.86
-26.39
-23.18
-20.65
-19.05
-18.31
-18.01
-17.54
-16.29
-13.84
-9.99
-4.74
1.82
9.57
18.30
27.68
37.09
45.62
52.27
56.25
57.34
55.87
52.60
48.33
43.53
38.29
32.50
26.12
19.33
12.46
5.84
-0.34
-5.96
-10.74
-14.10
-15.29
-13.69
-9.28
-2.82
4.32
10.67
15.13
17.35
17.61
16.51
14.63
12.33
9.71
6.80
3.67
0.48
-2.51
-5.12
-7.26
-8.91
-10.10
-10.76
-10.81
-10.24
-9.20
-8.05
-7.23
-7.13
-7.93
-9.52
-11.64
-13.98
-16.35
-18.66
-20.87
-22.96
-24.93
-26.87
-29.02
-31.54
-34.30
-36.65
-37.52
-35.72
-30.50
-21.95
-11.13
0.29
10.59
18.54
23.74
26.47
27.38
27.14
26.12
24.47
22.23
19.55
16.75
14.16
11.92
9.84
7.51
4.51
0.73
-3.51
-7.54
-10.71
-12.65
-13.50
-13.75
-14.04
-14.83
-16.24
-18.10
-20.09
-21.94
-23.59
-25.21
-27.05
-29.36
-32.17
-35.14
-37.53
-38.33
-36.51
-31.40
-22.92
-11.69
1.07
13.92
25.56
35.16
42.38
47.28
50.12
51.16
50.61
48.63
45.50
41.52
37.12
32.66
28.42
24.54
21.03
17.88
15.05
12.47
10.05
7.66
5.18
2.44
-0.69
-4.29
-8.33
-12.68
-17.09
-21.35
-25.37
-29.30
-33.53
-38.47
-44.25
-50.45
-56.01
-59.49
-59.51
-55.26
-46.90
-35.49
-22.72
-10.39
0.10
8.00
13.26
16.26
17.55
17.65
16.88
15.44
13.45
11.07
8.49
5.95
3.63
1.69
0.17
-0.89
-1.44
-1.47
-1.01
-0.24
0.53
0.92
0.62
-0.43
-2.08
-4.03
-6.00
-7.95
-10.13
-13.01
-17.00
-22.18
-28.09
-33.70
-37.63
-38.60
-35.81
-29.29
-19.88
-9.01
1.74
11.03
18.06
22.61
24.92
25.51
24.95
23.78
22.42
21.16
20.22
19.71
19.71
20.24
21.27
22.66
24.23
25.70
26.83
27.41
27.31
26.45
24.86
22.59
19.83
16.79
13.66
10.50
7.12
3.07
-2.15
-8.91
-17.07
-25.82
-33.79
-39.36
-41.14
-38.40
-31.30
-20.80
-8.36
4.48
16.38
26.40
34.03
39.14
41.95
42.88
42.48
41.26
39.54
37.42
34.84
31.73
28.14
24.34
20.73
17.72
15.54
14.17
13.32
12.59
11.61
10.08
7.91
5.10
1.78
-1.90
-5.79
-9.78
-13.89
-18.28
-23.31
-29.29
-36.23
-43.57
-50.06
-54.05
-53.99
-49.04
-39.40
-26.33
-11.64
2.79
15.54
25.84
33.45
38.44
41.01
41.47
40.26
37.98
35.34
32.94
31.12
29.85
28.83
27.71
26.25
24.48
22.56
20.70
18.98
17.32
15.50
13.26
10.42
6.97
3.03
-1.15
-5.28
-9.16
-12.70
-16.06
-19.60
-23.81
-29.09
-35.49
-42.49
-48.96
-53.35
-54.16
-50.50
-42.45
-31.19
-18.59
-6.68
2.98
9.65
13.33
14.44
13.44
10.64
6.24
0.43
-6.37
-13.53
-20.41
-26.47
-31.48
-35.51
-38.81
-41.69
-44.44
-47.27
-50.35
-53.87
-57.94
-62.55
-67.48
-72.26
-76.28
-78.96
-79.94
-79.19
-77.05
-74.17
-71.30
-69.11
-67.95
-67.70
-67.73
-66.92
-63.82
-56.89
-44.85
-27.04
-3.75
23.55
52.42
79.76
102.53
118.42
126.31
126.39
120.00
109.14
96.08
82.93
71.35
62.34
56.13
52.14
49.23
46.07
41.63
35.57
28.41
21.30
15.61
12.30
11.50
12.43
13.64
13.65
11.51
7.13
1.20
-5.17
-11.01
-15.87
-19.96
-24.01
-29.02
-35.91
-45.01
-55.63
-65.70
-72.03
-71.12
-60.48
-39.80
-11.41
20.45
51.02
76.59
95.35
107.30
113.44
114.81
112.08
105.61
95.95
84.14
71.50
59.38
48.55
39.19
30.93
23.23
15.70
8.30
1.31
-4.84
-9.79
-13.44
-16.04
-18.13
-20.35
-23.16
-26.62
-30.33
-33.60
-35.84
-36.75
-36.56
-35.74
-34.76
-33.83
-32.88
-31.77
-30.49
-29.22
-28.12
-26.98
-25.08
-21.41
-15.15
-6.22
4.62
16.00
26.53
35.34
42.22
47.47
51.44
54.35
56.21
57.07
57.16
56.96
56.91
57.19
57.59
57.68
57.10
55.73
53.79
51.60
49.34
46.83
43.63
39.15
32.92
24.81
15.12
4.45
-6.35
-16.43
-25.03
-31.68
-36.25
-39.02
-40.57
-41.66
-42.95
-44.85
-47.40
-50.33
-53.13
-55.22
-56.06
-55.30
-52.78
-48.58
-42.99
-36.46
-29.49
-22.58
-16.12
-10.34
-5.36
-1.22
2.07
4.46
5.90
6.33
5.85
4.71
3.35
2.21
1.64
1.73
2.30
2.97
3.35
3.17
2.39
1.16
-0.24
-1.62
-2.90
-4.23
-5.86
-8.11
-11.21
-15.30
-20.34
-26.23
-32.63
-38.96
-44.33
-47.67
-48.17
-45.68
-40.87
-35.15
-30.02
-26.39
-24.23
-22.59
-20.16
-15.97
-9.84
-2.37
5.42
12.60
18.59
23.28
26.82
29.45
31.32
32.52
33.14
33.37
33.48
33.73
34.25
35.00
35.81
36.49
36.94
37.21
37.44
37.66
37.73
37.35
36.15
33.97
30.86
27.09
23.02
18.87
14.70
10.49
6.23
2.01
-2.04
-5.87
-9.55
-13.30
-17.28
-21.64
-26.42
-31.77
-37.89
-44.87
-52.52
-60.22
-67.02
-71.92
-74.28
-74.12
-72.15
-69.30
-66.23
-63.03
-59.27
-54.52
-48.69
-42.44
-37.23
-34.94
-37.01
-43.70
-53.77
-64.79
-74.04
-79.32
-79.98
-77.44
-74.91
-76.16
-84.06
-99.71
-122.05
-148.14
-173.01
-190.98
-197.70
-192.48
-179.12
-164.94
-158.55
-166.26
-189.15
-220.88
-249.82
-264.34
-258.11
-231.93
-191.71
-145.10
-97.47
-50.57
-1.93
52.26
113.52
179.40
245.40
308.36
367.30
423.64
469.93
492.86
483.01
443.01
384.00
317.62
252.57
193.72
144.58
106.56
80.39
66.06
61.62
62.56
62.65
58.04
45.89
26.42
1.15
-26.07
-49.94
-65.69
-71.54
-69.25
-57.44
-43.57
-35.44
-37.84
-49.41
-64.23
-75.70
-80.25
-77.97
-71.11
-65.85
-61.65
-57.05
-50.37
-40.75
-28.85
-16.62
-6.01
1.90
6.66
10.06
13.75
18.99
25.92
34.50
42.92
49.15
51.92
50.57
46.30
40.51
34.59
29.49
25.60
22.75
20.72
19.40
18.53
18.33
18.57
18.84
18.56
17.20
14.41
10.46
6.12
2.26
-0.23
-0.99
-0.21
1.58
3.67
5.32
6.03
5.53
3.82
1.19
-1.93
-5.00
-7.59
-9.56
-11.21
-13.07
-15.68
-19.19
-23.23
-26.91
-29.11
-28.86
-25.73
-19.94
-12.36
-4.16
3.51
9.76
14.23
16.95
18.27
18.55
18.08
17.01
15.43
13.49
11.48
9.79
8.74
8.51
8.95
9.73
10.44
10.81
10.77
10.46
10.06
9.65
9.13
8.29
6.97
5.12
2.94
0.66
-1.48
-3.37
-5.07
-6.74
-8.62
-10.95
-13.96
-17.67
-21.88
-25.97
-29.11
-30.46
-29.50
-26.24
-21.22
-15.28
-9.23
-3.63
1.24
5.24
8.22
9.96
10.26
9.06
6.56
3.26
-0.26
-3.47
-6.10
-8.08
-9.50
-10.44
-10.93
-10.98
-10.66
-10.06
-9.30
-8.44
-7.48
-6.38
-5.27
-4.46
-4.36
-5.26
-7.07
-9.29
-11.17
-12.17
-12.26
-12.01
-12.29
-13.71
-16.21
-18.99
-20.78
-20.42
-17.36
-11.86
-4.74
2.91
10.15
16.38
21.34
24.94
27.19
28.09
27.72
26.20
23.79
20.88
17.88
15.23
13.23
11.95
11.24
10.72
9.96
8.66
6.81
4.68
2.65
1.00
-0.24
-1.38
-2.78
-4.68
-7.03
-9.49
-11.62
-13.07
-13.77
-13.90
-13.82
-13.94
-14.61
-16.11
-18.54
-21.84
-25.62
-29.21
-31.73
-32.33
-30.46
-26.07
-19.68
-12.16
-4.55
2.28
7.79
11.79
14.40
15.87
16.49
16.49
16.04
15.27
14.32
13.29
12.29
11.35
10.48
9.71
9.08
8.69
8.60
8.79
9.12
9.42
9.56
9.51
9.30
8.94
8.38
7.41
5.86
3.66
0.96
-1.97
-4.83
-7.37
-9.52
-11.28
-12.72
-13.97
-15.21
-16.74
-18.86
-21.70
-25.10
-28.49
-31.00
-31.71
-29.97
-25.58
-18.94
-10.87
-2.46
5.24
11.41
15.68
18.05
18.90
18.73
18.07
17.28
16.49
15.68
14.76
13.66
12.39
11.07
9.87
8.96
8.44
8.35
8.63
9.18
9.90
10.66
11.34
11.78
11.81
11.28
10.14
8.50
6.63
4.89
3.55
2.70
2.20
1.76
1.05
-0.10
-1.68
-3.50
-5.33
-7.05
-8.69
-10.43
-12.46
-14.94
-17.84
-20.92
-23.81
-25.97
-26.85
-25.91
-22.86
-17.69
-10.78
-2.86
5.10
12.20
17.77
21.54
23.52
24.02
23.42
22.08
20.29
18.35
16.46
14.81
13.50
12.50
11.69
10.97
10.25
9.55
8.97
8.64
8.64
8.99
9.56
10.14
10.48
10.39
9.74
8.56
6.95
5.07
3.05
0.96
-1.18
-3.38
-5.61
-7.78
-9.76
-11.42
-12.75
-13.87
-15.06
-16.68
-19.03
-22.18
-25.89
-29.55
-32.32
-33.36
-32.03
-28.15
-21.99
-14.23
-5.78
2.48
9.79
15.70
19.99
22.65
23.80
23.67
22.57
20.90
19.07
17.43
16.17
15.30
14.66
14.05
13.34
12.55
11.81
11.27
11.01
10.97
10.98
10.84
10.40
9.60
8.42
6.91
5.09
3.11
1.16
-0.49
-1.64
-2.26
-2.60
-3.09
-4.16
-6.05
-8.59
-11.33
-13.70
-15.34
-16.17
-16.50
-16.79
-17.51
-18.98
-21.30
-24.33
-27.68
-30.70
-32.51
-32.25
-29.31
-23.65
-15.86
-7.04
1.57
8.94
14.52
18.23
20.28
21.00
20.71
19.68
18.16
16.42
14.69
13.18
12.01
11.16
10.58
10.14
9.73
9.33
9.01
8.95
9.31
10.13
11.26
12.37
13.05
13.03
12.22
10.80
9.06
7.35
5.89
4.75
3.86
3.02
1.98
0.56
-1.30
-3.49
-5.72
-7.69
-9.16
-10.12
-10.80
-11.57
-12.83
-14.86
-17.67
-20.95
-24.12
-26.45
-27.18
-25.74
-21.91
-15.91
-8.45
-0.50
6.88
12.83
16.88
18.99
19.46
18.72
17.21
15.25
13.07
10.83
8.69
6.74
5.08
3.73
2.69
2.01
1.79
2.12
2.96
4.15
5.32
6.13
6.34
5.97
5.19
4.27
3.36
2.41
1.22
-0.47
-2.76
-5.52
-8.40
-10.97
-12.91
-14.12
-14.79
-15.29
-16.04
-17.44
-19.62
-22.45
-25.51
-28.12
-29.49
-28.89
-25.81
-20.22
-12.57
-3.74
5.11
12.84
18.61
22.03
23.24
22.81
21.51
20.03
18.73
17.62
16.47
15.04
13.30
11.43
9.72
8.45
7.69
7.39
7.40
7.61
7.92
8.27
8.52
8.46
7.87
6.64
4.81
2.61
0.32
-1.87
-3.89
-5.82
-7.74
-9.72
-11.69
-13.50
-15.03
-16.30
-17.47
-18.85
-20.75
-23.38
-26.72
-30.44
-33.90
-36.28
-36.73
-34.67
-29.99
-23.13
-14.97
-6.55
1.24
7.84
13.01
16.68
18.83
19.47
18.70
16.80
14.27
11.66
9.40
7.61
6.13
4.68
3.06
1.28
-0.41
-1.73
-2.53
-2.91
-3.25
-4.07
-5.78
-8.47
-11.88
-15.50
-18.82
-21.60
-24.02
-26.60
-29.94
-34.43
-39.99
-46.12
-52.05
-57.06
-60.75
-63.22
-64.90
-66.33
-68.08
-70.41
-73.23
-75.88
-77.07
-74.92
-67.27
-52.37
-29.75
-0.82
31.38
63.00
90.89
113.51
131.09
144.65
154.79
160.87
161.22
154.27
139.78
119.36
96.15
73.58
54.30
39.50
29.08
22.32
18.45
16.91
17.26
19.03
21.52
23.89
25.35
25.46
24.14
21.73
18.81
15.98
13.69
12.04
10.82
9.62
7.97
5.60
2.59
-0.60
-3.33
-5.04
-5.59
-5.40
-5.35
-6.39
-9.13
-13.51
-18.77
-23.76
-27.33
-28.66
-27.52
-24.19
-19.34
-13.81
-8.42
-3.81
-0.40
1.67
2.46
2.16
1.05
-0.60
-2.51
-4.37
-5.92
-6.91
-7.27
-7.07
-6.51
-5.82
-5.15
-4.47
-3.72
-2.83
-1.85
-0.90
-0.15
0.23
0.17
-0.37
-1.35
-2.67
-4.19
-5.69
-6.96
-7.98
-8.85
-9.89
-11.38
-13.41
-15.81
-18.20
-20.17
-21.58
-22.61
-23.71
-25.45
-28.16
-31.84
-36.05
-40.01
-42.79
-43.55
-41.76
-37.31
-30.62
-22.46
-13.80
-5.54
1.60
7.22
11.17
13.50
14.42
14.27
13.40
12.21
10.98
9.88
8.99
8.32
7.85
7.63
7.69
8.07
8.70
9.55
10.56
11.71
12.93
14.07
14.88
15.06
14.36
12.70
10.20
7.16
3.93
0.78
-2.10
-4.64
-6.82
-8.64
-10.17
-11.52
-12.96
-14.73
-17.01
-19.79
-22.87
-26.00
-28.95
-31.71
-34.45
-37.44
-40.82
-44.46
-47.92
-50.50
-51.47
-50.22
-46.39
-39.87
-30.84
-19.79
-7.51
4.95
16.43
25.90
32.66
36.59
38.03
37.71
36.43
34.85
33.35
32.05
30.90
29.75
28.53
27.20
25.84
24.58
23.57
22.89
22.54
22.37
22.14
21.54
20.32
18.34
15.63
12.37
8.82
5.28
1.95
-1.07
-3.78
-6.32
-8.83
-11.43
-14.16
-16.96
-19.69
-22.23
-24.65
-27.17
-30.17
-33.95
-38.53
-43.54
-48.23
-51.60
-52.64
-50.56
-44.95
-35.90
-24.01
-10.38
3.60
16.46
27.03
34.65
39.25
41.27
41.37
40.24
38.45
36.44
34.53
33.00
31.99
31.53
31.47
31.53
31.42
30.92
29.98
28.69
27.17
25.49
23.57
21.24
18.28
14.60
10.27
5.51
0.63
-4.15
-8.74
-13.21
-17.65
-22.07
-26.37
-30.35
-33.85
-36.86
-39.57
-42.41
-45.86
-50.34
-56.05
-62.81
-70.06
-76.74
-81.43
-82.51
-78.53
-68.71
-53.36
-33.98
-12.96
7.04
23.86
36.37
44.56
49.21
51.36
51.86
51.24
49.80
47.81
45.62
43.63
42.12
41.15
40.52
39.93
39.18
38.23
37.21
36.32
35.60
34.87
33.80
32.00
29.26
25.67
21.57
17.39
13.41
9.67
5.91
1.76
-3.08
-8.67
-14.79
-20.99
-26.78
-31.77
-35.86
-39.33
-42.78
-46.97
-52.55
-59.75
-68.15
-76.51
-82.98
-85.43
-82.13
-72.32
-56.66
-37.06
-16.25
3.09
19.01
30.72
38.40
42.88
45.03
45.58
44.98
43.61
41.88
40.18
38.81
37.83
37.07
36.30
35.38
34.36
33.40
32.73
32.41
32.32
32.18
31.62
30.34
28.15
25.07
21.33
17.27
13.26
9.53
6.08
2.64
-1.13
-5.53
-10.54
-15.83
-20.85
-25.09
-28.31
-30.75
-32.98
-35.85
-40.07
-45.99
-53.26
-60.82
-66.97
-69.72
-67.40
-59.20
-45.53
-28.04
-9.12
8.74
23.66
34.72
41.90
45.78
47.11
46.54
44.54
41.60
38.23
35.01
32.36
30.49
29.29
28.49
27.83
27.21
26.72
26.51
26.65
26.94
26.96
26.22
24.41
21.47
17.68
13.52
9.46
5.77
2.48
-0.64
-3.87
-7.51
-11.69
-16.35
-21.25
-25.98
-30.21
-33.77
-36.82
-39.93
-43.84
-49.18
-56.04
-63.71
-70.63
-74.81
-74.38
-68.28
-56.59
-40.53
-22.09
-3.44
13.56
27.67
38.30
45.41
49.39
50.87
50.61
49.32
47.55
45.60
43.57
41.52
39.51
37.74
36.42
35.65
35.41
35.51
35.73
35.93
36.03
36.04
35.91
35.50
34.61
32.96
30.40
26.92
22.71
18.15
13.63
9.45
5.72
2.34
-0.90
-4.28
-7.99
-12.10
-16.53
-21.10
-25.55
-29.61
-33.10
-36.03
-38.68
-41.55
-45.27
-50.37
-56.96
-64.57
-71.97
-77.46
-79.10
-75.36
-65.62
-50.46
-31.65
-11.63
7.09
22.61
34.02
41.35
45.25
46.61
46.20
44.59
42.23
39.52
36.85
34.57
32.88
31.81
31.24
30.99
30.96
31.12
31.48
32.06
32.76
33.37
33.60
33.20
32.03
30.14
27.73
25.05
22.34
19.69
17.11
14.50
11.81
9.01
6.14
3.27
0.48
-2.17
-4.65
-7.01
-9.41
-12.03
-15.04
-18.52
-22.33
-26.21
-29.79
-32.81
-35.24
-37.39
-39.79
-43.05
-47.58
-53.28
-59.34
-64.32
-66.43
-64.06
-56.35
-43.62
-27.37
-9.88
6.48
19.92
29.55
35.45
38.25
38.79
37.76
35.68
32.90
29.80
26.81
24.34
22.68
21.91
21.86
22.21
22.66
23.03
23.29
23.57
23.95
24.41
24.75
24.60
23.62
21.58
18.53
14.77
10.76
6.95
3.63
0.85
-1.61
-4.13
-7.12
-10.80
-15.15
-19.81
-24.28
-28.09
-31.00
-33.19
-35.19
-37.79
-41.76
-47.43
-54.43
-61.61
-67.17
-69.19
-66.19
-57.71
-44.46
-28.18
-11.08
4.71
17.73
27.31
33.51
36.82
37.86
37.18
35.25
32.57
29.61
26.86
24.72
23.37
22.74
22.57
22.55
22.46
22.25
22.04
21.99
22.21
22.64
23.05
23.11
22.46
20.83
18.18
14.68
10.76
6.90
3.52
0.79
-1.50
-3.80
-6.66
-10.43
-15.13
-20.34
-25.41
-29.72
-32.92
-35.09
-36.75
-38.67
-41.59
-46.04
-52.01
-58.90
-65.44
-69.89
-70.45
-65.80
-55.60
-40.74
-23.21
-5.51
10.11
22.20
30.38
35.10
37.17
37.36
36.22
34.10
31.32
28.31
25.58
23.54
22.35
21.84
21.71
21.60
21.36
21.06
20.92
21.17
21.84
22.71
23.33
23.16
21.82
19.22
15.62
11.56
7.63
4.28
1.65
-0.46
-2.45
-4.80
-7.86
-11.66
-15.96
-20.30
-24.15
-27.17
-29.28
-30.77
-32.20
-34.23
-37.42
-41.98
-47.59
-53.30
-57.67
-59.01
-55.97
-47.94
-35.41
-19.89
-3.51
11.61
23.92
32.62
37.75
39.78
39.38
37.23
33.94
30.12
26.33
22.98
20.35
18.48
17.34
16.84
16.93
17.56
18.62
19.88
21.03
21.78
21.93
21.42
20.29
18.58
16.26
13.24
9.41
4.83
-0.29
-5.56
-10.53
-14.85
-18.39
-21.28
-23.86
-26.60
-29.99
-34.39
-39.95
-46.38
-52.88
-58.09
-60.38
-58.29
-51.02
-38.89
-23.28
-6.28
9.87
23.41
33.43
39.78
42.86
43.33
41.85
39.03
35.48
31.78
28.46
25.90
24.24
23.36
22.96
22.72
22.41
21.96
21.47
21.09
20.97
21.07
21.21
21.03
20.16
18.31
15.45
11.84
7.94
4.24
1.08
-1.49
-3.75
-6.08
-8.87
-12.29
-16.26
-20.48
-24.58
-28.24
-31.31
-33.85
-36.16
-38.71
-42.08
-46.70
-52.57
-58.96
-64.43
-67.02
-64.96
-57.28
-44.35
-27.81
-10.06
6.48
20.09
30.04
36.47
40.01
41.40
41.24
40.01
38.10
35.89
33.68
31.68
29.99
28.61
27.51
26.67
26.09
25.74
25.62
25.66
25.78
25.87
25.82
25.49
24.79
23.64
22.02
19.86
17.17
13.95
10.28
6.38
2.57
-0.84
-3.70
-6.11
-8.45
-11.17
-14.52
-18.41
-22.42
-26.00
-28.76
-30.65
-31.97
-33.25
-35.04
-37.72
-41.52
-46.41
-52.09
-57.83
-62.45
-64.44
-62.32
-55.25
-43.40
-28.11
-11.50
4.14
17.04
26.33
32.05
34.78
35.27
34.11
31.69
28.32
24.42
20.51
17.14
14.72
13.32
12.69
12.49
12.45
12.56
13.01
13.99
15.50
17.16
18.39
18.63
17.60
15.44
12.62
9.68
7.01
4.69
2.51
0.13
-2.72
-6.09
-9.79
-13.43
-16.61
-19.07
-20.79
-22.11
-23.60
-25.92
-29.61
-34.82
-41.08
-47.35
-52.08
-53.62
-50.78
-43.12
-31.30
-16.84
-1.75
12.07
23.26
31.19
35.92
37.97
37.98
36.60
34.34
31.66
28.98
26.67
24.96
23.89
23.31
22.91
22.44
21.74
20.92
20.21
19.83
19.83
20.04
20.17
19.92
19.12
17.70
15.66
13.02
9.83
6.28
2.66
-0.67
-3.47
-5.77
-7.90
-10.29
-13.28
-16.87
-20.77
-24.53
-27.80
-30.47
-32.68
-34.72
-36.91
-39.64
-43.28
-48.05
-53.79
-59.68
-64.24
-65.58
-62.12
-53.19
-39.44
-22.70
-5.41
10.18
22.59
31.35
36.75
39.52
40.34
39.76
38.17
35.91
33.32
30.75
28.48
26.61
25.11
23.87
22.77
21.80
21.03
20.57
20.51
20.85
21.43
22.01
22.30
22.02
21.02
19.25
16.81
13.90
10.76
7.68
4.89
2.56
0.68
-0.89
-2.46
-4.37
-6.85
-9.94
-13.46
-17.07
-20.44
-23.36
-25.77
-27.85
-29.90
-32.35
-35.62
-39.98
-45.34
-51.08
-56.01
-58.55
-57.24
-51.21
-40.62
-26.67
-11.26
3.50
15.97
25.25
31.18
34.12
34.66
33.41
30.92
27.72
24.35
21.36
19.11
17.80
17.35
17.52
18.04
18.65
19.27
19.93
20.65
21.42
22.07
22.31
21.82
20.38
17.98
14.89
11.53
8.33
5.47
2.86
0.16
-3.05
-6.99
-11.56
-16.34
-20.78
-24.44
-27.19
-29.24
-31.12
-33.47
-36.85
-41.43
-46.84
-52.07
-55.63
-55.95
-51.90
-43.17
-30.51
-15.49
-0.11
13.79
24.93
32.70
37.15
38.76
38.23
36.30
33.67
30.89
28.33
26.24
24.66
23.61
23.02
22.86
23.07
23.60
24.32
25.09
25.72
26.06
25.98
25.44
24.43
22.98
21.07
18.68
15.78
12.42
8.74
5.02
1.56
-1.43
-3.93
-6.15
-8.41
-11.02
-14.14
-17.69
-21.38
-24.88
-27.94
-30.50
-32.77
-35.11
-37.88
-41.42
-45.89
-51.27
-57.26
-63.18
-67.94
-70.14
-68.41
-61.88
-50.58
-35.62
-18.96
-2.83
10.87
21.04
27.46
30.61
31.27
30.18
27.95
25.13
22.31
20.14
19.16
19.65
21.38
23.71
25.84
27.07
27.15
26.26
24.88
23.43
22.15
21.00
19.81
18.45
16.97
15.61
14.66
14.33
14.67
15.52
16.60
17.59
18.19
18.20
17.51
16.06
13.94
11.29
8.34
5.37
2.59
0.09
-2.23
-4.55
-7.07
-9.88
-12.90
-15.93
-18.75
-21.21
-23.31
-25.14
-26.85
-28.67
-30.87
-33.78
-37.63
-42.40
-47.52
-51.84
-53.83
-52.00
-45.49
-34.53
-20.40
-5.16
9.08
20.68
28.90
33.77
35.86
35.85
34.30
31.63
28.20
24.43
20.79
17.71
15.50
14.22
13.75
13.85
14.24
14.69
15.00
15.04
14.75
14.12
13.28
12.29
11.20
9.86
7.97
5.28
1.67
-2.69
-7.36
-11.85
-15.78
-19.02
-21.74
-24.27
-27.01
-30.34
-34.55
-39.79
-45.85
-52.03
-57.04
-59.24
-57.17
-50.12
-38.51
-23.86
-8.28
6.18
18.06
26.73
32.18
34.82
35.20
33.91
31.58
28.87
26.31
24.18
22.50
21.10
19.81
18.57
17.51
16.84
16.69
17.07
17.86
18.82
19.66
20.09
19.85
18.75
16.75
14.02
10.84
7.49
4.12
0.65
-3.07
-7.17
-11.58
-15.99
-19.96
-23.13
-25.42
-27.12
-28.83
-31.34
-35.29
-40.95
-47.95
-55.17
-60.96
-63.49
-61.32
-53.90
-41.82
-26.67
-10.55
4.49
16.98
26.24
32.26
35.46
36.44
35.78
34.03
31.74
29.39
27.43
26.09
25.39
25.12
25.00
24.80
24.46
24.13
24.07
24.47
25.32
26.33
27.01
26.84
25.55
23.15
20.03
16.71
13.64
10.99
8.63
6.19
3.35
-0.06
-3.95
-8.02
-12.00
-15.61
-18.77
-21.50
-23.94
-26.34
-29.07
-32.56
-37.05
-42.37
-47.68
-51.56
-52.37
-48.81
-40.50
-28.16
-13.50
1.38
14.59
24.93
32.03
36.16
37.97
38.10
37.07
35.27
33.02
30.60
28.30
26.33
24.86
23.94
23.51
23.48
23.76
24.30
25.06
25.93
26.64
26.82
26.05
24.08
20.97
17.13
13.15
9.56
6.58
3.98
1.36
-1.68
-5.25
-9.14
-12.91
-16.18
-18.81
-20.90
-22.84
-25.07
-28.03
-31.96
-36.81
-42.06
-46.72
-49.42
-48.85
-44.19
-35.45
-23.57
-10.17
2.97
14.39
23.27
29.40
33.04
34.63
34.66
33.57
31.80
29.77
27.83
26.23
25.03
24.15
23.43
22.73
22.01
21.30
20.68
20.24
20.01
19.95
19.92
19.73
19.18
18.12
16.53
14.51
12.20
9.75
7.20
4.58
1.94
-0.62
-2.92
-4.88
-6.55
-8.16
-10.01
-12.30
-14.99
-17.83
-20.50
-22.77
-24.62
-26.20
-27.78
-29.65
-32.09
-35.30
-39.33
-43.86
-48.07
-50.74
-50.54
-46.50
-38.48
-27.30
-14.50
-1.90
8.97
17.20
22.59
25.43
26.31
25.83
24.54
22.89
21.21
19.73
18.53
17.60
16.87
16.26
15.71
15.25
14.90
14.71
14.69
14.80
14.92
14.93
14.67
14.05
13.01
11.55
9.75
7.69
5.46
3.16
0.90
-1.18
-3.02
-4.58
-5.97
-7.35
-8.97
-10.96
-13.32
-15.87
-18.34
-20.47
-22.10
-23.30
-24.32
-25.51
-27.23
-29.79
-33.27
-37.44
-41.62
-44.77
-45.69
-43.40
-37.47
-28.29
-16.96
-5.05
5.93
14.87
21.24
25.07
26.72
26.69
25.45
23.44
21.05
18.68
16.65
15.19
14.35
13.98
13.84
13.69
13.42
13.13
13.01
13.23
13.75
14.33
14.54
13.92
12.23
9.52
6.16
2.64
-0.59
-3.27
-5.42
-7.32
-9.30
-11.65
-14.45
-17.51
-20.50
-23.05
-24.95
-26.21
-27.09
-28.01
-29.47
-31.86
-35.32
-39.61
-44.02
-47.40
-48.41
-45.96
-39.59
-29.76
-17.80
-5.48
5.52
14.13
20.05
23.57
25.28
25.73
25.30
24.25
22.75
21.02
19.29
17.80
16.73
16.21
16.28
16.91
17.95
19.17
20.32
21.23
21.86
22.26
22.52
22.62
22.37
21.49
19.78
17.19
13.97
10.60
7.50
5.00
3.07
1.49
-0.11
-2.02
-4.39
-7.19
-10.26
-13.45
-16.61
-19.64
-22.47
-25.06
-27.49
-29.91
-32.66
-36.04
-40.26
-45.17
-50.15
-54.14
-55.86
-54.20
-48.60
-39.33
-27.45
-14.51
-2.18
8.29
16.21
21.51
24.53
25.74
25.59
24.46
22.68
20.63
18.70
17.20
16.25
15.78
15.58
15.43
15.30
15.27
15.52
16.20
17.28
18.59
19.81
20.62
20.75
20.05
18.47
16.19
13.49
10.72
8.22
6.10
4.28
2.48
0.40
-2.15
-5.12
-8.26
-11.25
-13.78
-15.72
-17.16
-18.37
-19.73
-21.67
-24.52
-28.38
-33.01
-37.71
-41.43
-42.94
-41.17
-35.59
-26.41
-14.58
-1.66
10.63
20.84
28.08
32.19
33.59
32.96
31.05
28.42
25.48
22.56
19.97
17.97
16.71
16.17
16.14
16.37
16.72
17.20
17.97
19.11
20.49
21.74
22.34
21.78
19.85
16.68
12.71
8.57
4.76
1.57
-1.04
-3.36
-5.76
-8.49
-11.66
-15.17
-18.82
-22.35
-25.51
-28.13
-30.26
-32.11
-34.16
-36.93
-40.81
-45.66
-50.71
-54.59
-55.67
-52.66
-45.09
-33.53
-19.49
-4.92
8.39
19.20
27.01
31.95
34.47
35.10
34.31
32.56
30.30
28.00
26.04
24.63
23.79
23.33
23.00
22.59
22.05
21.47
21.05
20.94
21.17
21.57
21.78
21.37
19.96
17.44
13.98
9.98
5.95
2.32
-0.78
-3.44
-5.96
-8.67
-11.74
-15.16
-18.71
-22.08
-25.06
-27.58
-29.80
-31.98
-34.48
-37.60
-41.56
-46.33
-51.50
-56.19
-59.12
-58.89
-54.49
-45.72
-33.37
-19.08
-4.80
7.76
17.53
24.20
28.01
29.50
29.28
27.88
25.81
23.55
21.47
19.83
18.68
17.91
17.35
16.87
16.40
16.03
15.88
16.09
16.66
17.49
18.34
18.93
19.02
18.42
17.12
15.17
12.75
10.03
7.17
4.32
1.60
-0.90
-3.14
-5.13
-7.00
-8.92
-11.13
-13.92
-17.52
-22.06
-27.40
-33.00
-37.93
-40.96
-40.91
-36.98
-29.12
-18.14
-5.49
7.08
18.01
26.29
31.54
33.92
33.96
32.30
29.57
26.33
23.05
20.10
17.71
15.96
14.81
14.14
13.82
13.70
13.68
13.66
13.56
13.33
12.96
12.50
11.95
11.22
10.15
8.59
6.42
3.69
0.49
-3.03
-6.69
-10.37
-13.92
-17.15
-19.94
-22.27
-24.35
-26.59
-29.53
-33.55
-38.60
-44.01
-48.56
-50.68
-49.02
-42.94
-32.77
-19.82
-5.92
7.14
18.05
26.23
31.64
34.63
35.61
35.01
33.28
30.93
28.49
26.40
24.87
23.81
22.98
22.06
20.93
19.70
18.68
18.16
18.24
18.75
19.29
19.40
18.76
17.33
15.26
12.86
10.41
8.07
5.85
3.61
1.20
-1.54
-4.65
-8.05
-11.54
-14.87
-17.78
-20.17
-22.15
-24.06
-26.39
-29.66
-34.16
-39.74
-45.61
-50.47
-52.71
-51.02
-44.78
-34.39
-21.20
-7.07
6.12
16.95
24.74
29.42
31.41
31.28
29.67
27.20
24.41
21.77
19.61
18.05
17.00
16.22
15.48
14.65
13.80
13.11
12.78
12.84
13.14
13.40
13.32
12.71
11.51
9.80
7.75
5.53
3.25
0.98
-1.34
-3.77
-6.42
-9.34
-12.41
-15.41
-18.04
-20.09
-21.54
-22.63
-23.85
-25.77
-28.86
-33.14
-38.09
-42.62
-45.27
-44.68
-40.04
-31.44
-19.89
-7.03
5.32
15.71
23.36
28.16
30.49
30.93
30.06
28.25
25.85
23.05
20.10
17.26
14.80
12.95
11.84
11.48
11.73
12.35
13.04
13.53
13.64
13.33
12.64
11.64
10.35
8.71
6.67
4.21
1.40
-1.59
-4.56
-7.35
-9.93
-12.41
-14.95
-17.78
-21.14
-25.20
-30.07
-35.68
-41.67
-47.21
-51.14
-52.12
-49.12
-41.83
-30.87
-17.70
-4.21
7.85
17.35
23.87
27.64
29.29
29.44
28.66
27.31
25.67
23.95
22.30
20.83
19.54
18.42
17.43
16.59
15.96
15.57
15.45
15.53
15.64
15.59
15.14
14.15
12.48
10.11
7.02
3.26
-1.08
-5.85
-10.81
-15.67
-20.15
-24.06
-27.35
-30.19
-32.90
-35.90
-39.59
-44.19
-49.55
-55.03
-59.46
-61.40
-59.55
-53.18
-42.49
-28.66
-13.51
1.02
13.40
22.81
29.12
32.69
34.08
33.83
32.42
30.29
27.91
25.68
23.88
22.56
21.55
20.57
19.43
18.10
16.76
15.68
15.09
15.04
15.38
15.82
15.99
15.55
14.27
12.08
9.08
5.57
1.91
-1.52
-4.56
-7.29
-10.06
-13.36
-17.67
-23.18
-29.70
-36.47
-42.27
-45.64
-45.28
-40.46
-31.42
-19.28
-5.87
6.90
17.54
25.32
30.25
32.80
33.53
32.85
30.98
28.09
24.47
20.61
17.11
14.44
12.81
12.06
11.77
11.48
10.94
10.13
9.30
8.73
8.59
8.77
8.94
8.61
7.35
4.99
1.66
-2.17
-5.92
-9.13
-11.59
-13.47
-15.21
-17.39
-20.53
-24.94
-30.60
-37.11
-43.54
-48.64
-50.93
-49.19
-42.86
-32.34
-19.01
-4.74
8.55
19.54
27.65
33.00
36.12
37.62
37.98
37.54
36.51
35.10
33.53
31.97
30.59
29.48
28.68
28.16
27.81
27.48
26.98
26.20
25.05
23.57
21.83
19.84
17.50
14.63
11.08
6.85
2.12
-2.70
-7.17
-10.93
-13.87
-16.12
-18.02
-19.99
-22.48
-25.87
-30.39
-36.00
-42.14
-47.78
-51.42
-51.59
-47.31
-38.56
-26.37
-12.56
0.88
12.32
20.96
26.76
30.18
31.84
32.25
31.75
30.64
29.20
27.69
26.27
24.93
23.57
22.13
20.65
19.37
18.55
18.33
18.61
19.03
19.18
18.71
17.47
15.56
13.19
10.67
8.19
5.92
3.87
1.97
0.11
-1.88
-4.11
-6.62
-9.26
-11.77
-13.89
-15.54
-16.85
-18.32
-20.56
-24.07
-28.90
-34.42
-39.39
-42.23
-41.58
-36.79
-28.15
-16.82
-4.48
7.22
17.01
24.20
28.64
30.56
30.42
28.77
26.20
23.28
20.50
18.17
16.42
15.23
14.48
14.07
13.89
13.85
13.87
13.89
13.86
13.75
13.50
13.03
12.19
10.88
9.02
6.69
4.09
1.51
-0.81
-2.76
-4.47
-6.20
-8.25
-10.77
-13.70
-16.79
-19.72
-22.23
-24.30
-26.20
-28.37
-31.34
-35.46
-40.65
-46.31
-51.32
-54.27
-53.93
-49.60
-41.45
-30.51
-18.32
-6.55
3.51
11.15
16.22
18.96
19.81
19.19
17.59
15.45
13.26
11.40
10.02
8.99
7.96
6.60
4.80
2.82
1.20
0.45
0.85
2.21
4.07
5.83
7.10
7.71
7.78
7.59
7.56
8.22
10.04
13.27
17.55
21.88
24.77
24.85
21.57
15.62
8.82
3.32
0.77
1.50
4.47
7.83
9.69
9.02
5.92
1.50
-2.69
-5.33
-5.75
-4.06
-0.90
2.89
6.65
10.02
12.83
14.90
16.01
15.88
14.39
11.83
8.84
6.24
4.69
4.40
5.05
6.00
6.65
6.68
6.15
5.46
5.00
5.06
5.60
6.40
7.10
7.43
7.20
6.39
5.11
3.55
1.96
0.53
-0.59
-1.37
-1.89
-2.33
-2.89
-3.77
-5.07
-6.72
-8.57
-10.39
-12.06
-13.59
-15.14
-16.95
-19.15
-21.75
-24.53
-27.10
-29.01
-29.76
-28.91
-26.22
-21.73
-15.91
-9.53
-3.54
1.19
4.22
5.58
5.68
5.07
4.17
3.13
1.92
0.49
-1.08
-2.50
-3.47
-3.81
-3.61
-3.20
-2.96
-3.11
-3.59
-4.11
-4.27
-3.81
-2.80
-1.54
-0.52
-0.15
-0.59
-1.70
-3.16
-4.58
-5.68
-6.43
-6.96
-7.49
-8.22
-9.24
-10.51
-11.93
-13.40
-14.85
-16.28
-17.75
-19.44
-21.60
-24.50
-28.34
-32.98
-37.87
-42.02
-44.24
-43.49
-39.32
-32.06
-22.83
-13.12
-4.35
2.52
7.14
9.72
10.72
10.67
9.99
9.06
8.16
7.53
7.28
7.36
7.59
7.76
7.71
7.43
7.07
6.81
6.85
7.27
8.05
9.04
9.99
10.67
10.89
10.59
9.90
9.04
8.23
7.60
7.07
6.46
5.55
4.22
2.53
0.62
-1.30
-3.14
-4.97
-6.95
-9.29
-12.22
-15.84
-20.12
-24.73
-28.98
-31.83
-32.17
-29.17
-22.67
-13.39
-2.76
7.53
16.08
22.14
25.71
27.26
27.40
26.61
25.19
23.29
21.10
18.85
16.81
15.20
14.09
13.43
13.02
12.62
12.01
11.09
9.87
8.52
7.24
6.18
5.32
4.51
3.45
1.86
-0.43
-3.36
-6.74
-10.22
-13.50
-16.34
-18.67
-20.57
-22.24
-24.05
-26.43
-29.82
-34.44
-40.09
-46.00
-50.89
-53.28
-51.96
-46.46
-37.20
-25.40
-12.70
-0.66
9.60
17.56
23.19
26.81
28.81
29.58
29.44
28.66
27.49
26.12
24.68
23.25
21.88
20.62
19.55
18.75
18.30
18.20
18.37
18.58
18.55
17.99
16.75
14.92
12.78
10.71
9.00
7.67
6.42
4.78
2.28
-1.28
-5.71
-10.54
-15.18
-19.19
-22.38
-24.85
-26.97
-29.20
-32.04
-35.85
-40.67
-46.00
-50.81
-53.63
-53.01
-48.07
-38.86
-26.45
-12.60
0.75
12.15
20.81
26.69
30.19
31.84
32.12
31.42
30.12
28.62
27.30
26.44
26.09
26.10
26.17
26.04
25.54
24.73
23.76
22.93
22.44
22.38
22.61
22.81
22.57
21.55
19.61
16.90
13.80
10.71
7.96
5.62
3.51
1.33
-1.17
-4.09
-7.31
-10.58
-13.66
-16.38
-18.76
-21.00
-23.41
-26.40
-30.26
-35.15
-40.85
-46.70
-51.53
-53.89
-52.46
-46.49
-36.21
-22.90
-8.57
4.71
15.33
22.59
26.63
28.17
28.10
27.16
25.83
24.35
22.90
21.61
20.66
20.16
20.12
20.44
20.93
21.37
21.65
21.77
21.80
21.80
21.71
21.35
20.46
18.83
16.44
13.43
9.96
6.23
2.36
-1.57
-5.41
-9.00
-12.20
-14.97
-17.46
-19.96
-22.88
-26.59
-31.33
-37.09
-43.41
-49.36
-53.56
-54.53
-51.10
-42.98
-30.95
-16.67
-2.27
10.41
20.20
26.86
30.79
32.73
33.36
33.14
32.34
31.18
29.86
28.61
27.61
26.91
26.45
26.09
25.64
25.06
24.33
23.55
22.79
22.02
21.11
19.88
18.15
15.87
13.12
10.07
6.89
3.68
0.41
-3.00
-6.65
-10.51
-14.45
-18.25
-21.72
-24.78
-27.53
-30.25
-33.33
-37.20
-42.08
-47.81
-53.60
-58.10
-59.69
-57.00
-49.49
-37.67
-23.07
-7.73
6.42
18.04
26.60
32.21
35.39
36.72
36.78
36.02
34.81
33.42
32.02
30.68
29.40
28.16
27.01
25.94
24.99
24.12
23.27
22.39
21.40
20.18
18.64
16.69
14.32
11.62
8.77
5.91
3.07
0.15
-3.03
-6.64
-10.73
-15.18
-19.79
-24.25
-28.34
-31.95
-35.14
-38.16
-41.46
-45.51
-50.58
-56.47
-62.29
-66.56
-67.60
-64.14
-55.74
-43.14
-27.98
-12.31
1.98
13.66
22.26
27.96
31.25
32.67
32.62
31.44
29.43
26.95
24.51
22.57
21.56
21.60
22.56
24.02
25.46
26.41
26.62
26.07
24.93
23.43
21.77
19.98
18.02
15.71
12.93
9.56
5.64
1.30
-3.23
-7.72
-11.96
-15.86
-19.48
-23.09
-27.18
-32.33
-39.01
-47.21
-56.21
-64.47
-70.06
-71.16
-66.82
-57.44
-44.75
-31.30
-19.66
-11.51
-7.29
-6.19
-6.80
-7.80
-8.55
-9.21
-10.56
-13.37
-18.03
-24.18
-30.87
-36.86
-41.11
-43.19
-43.44
-43.11
-44.02
-48.09
-56.52
-68.82
-82.27
-92.02
-92.10
-77.04
-43.81
6.77
69.59
136.23
197.11
243.97
272.01
280.62
272.74
253.22
226.98
197.72
167.45
136.91
106.01
74.46
42.12
9.37
-22.57
-51.47
-74.41
-88.72
-93.04
-88.15
-76.80
-62.89
-50.18
-41.22
-36.96
-37.00
-40.18
-45.12
-50.59
-55.61
-59.53
-62.04
-63.16
-63.12
-62.07
-59.91
-56.26
-50.64
-42.77
-32.87
-21.72
-10.33
0.31
9.53
16.98
22.53
26.08
27.60
27.19
25.21
22.33
19.36
17.17
16.63
18.52
23.49
31.84
43.17
56.22
68.90
78.77
83.84
83.27
77.74
69.28
60.65
54.33
51.78
52.83
55.70
57.57
55.54
47.74
34.16
16.74
-1.26
-16.34
-26.00
-29.36
-27.18
-21.20
-13.40
-5.30
2.04
8.01
12.22
14.65
15.78
16.71
18.84
23.31
30.40
39.13
47.49
52.97
53.34
47.31
34.95
17.94
-0.82
-17.82
-29.90
-35.32
-34.36
-29.23
-23.27
-19.70
-20.55
-26.20
-35.65
-47.15
-58.81
-68.90
-75.85
-78.33
-75.45
-67.10
-54.33
-39.26
-24.57
-12.69
-5.08
-1.80
-1.77
-3.29
-4.76
-5.20
-4.43
-2.86
-1.14
0.18
0.84
0.82
0.25
-0.73
-1.99
-3.44
-4.97
-6.54
-8.21
-10.17
-12.61
-15.54
-18.68
-21.48
-23.42
-24.23
-24.15
-23.83
-23.97
-25.01
-26.93
-29.31
-31.64
-33.58
-35.07
-36.36
-37.88
-40.04
-43.26
-47.74
-53.38
-59.53
-65.01
-68.22
-67.65
-62.48
-52.84
-39.95
-25.64
-11.79
0.13
9.42
16.06
20.44
23.09
24.49
24.93
24.65
23.86
22.78
21.71
20.91
20.55
20.66
21.12
21.67
22.08
22.21
22.06
21.72
21.24
20.57
19.52
17.86
15.45
12.35
8.81
5.16
1.70
-1.46
-4.31
-7.00
-9.60
-12.18
-14.74
-17.34
-20.12
-23.29
-27.02
-31.19
-35.39
-38.70
-39.96
-38.03
-32.19
-22.51
-9.94
3.85
17.02
28.01
35.98
40.94
43.44
44.26
44.09
43.38
42.40
41.36
40.52
40.08
40.23
40.98
42.30
44.15
46.55
49.60
53.47
58.34
64.50
72.18
81.46
92.00
102.89
112.83
120.62
125.92
129.57
133.25
138.62
146.12
154.49
161.15
163.33
159.15
148.00
130.10
105.72
74.95
38.16
-2.99
-45.18
-83.85
-114.76
-135.54
-146.40
-149.57
-147.89
-143.38
-136.75
-127.91
-116.86
-104.46
-92.32
-82.18
-75.00
-70.64
-67.96
-65.49
-62.08
-57.36
-51.68
-45.75
-40.19
-35.21
-30.57
-25.90
-20.96
-15.86
-11.08
-7.17
-4.50
-2.99
-2.17
-1.40
-0.17
1.63
3.65
5.33
6.14
5.93
4.97
3.81
3.01
2.83
3.11
3.38
3.16
2.12
0.22
-2.30
-5.12
-7.88
-10.24
-11.89
-12.51
-11.90
-10.09
-7.46
-4.64
-2.33
-1.03
-0.91
-1.73
-3.11
-4.65
-6.21
-7.87
-9.76
-12.00
-14.50
-17.05
-19.43
-21.58
-23.55
-25.51
-27.54
-29.57
-31.40
-32.85
-33.88
-34.80
-36.13
-38.40
-41.83
-46.00
-49.84
-51.77
-50.15
-43.71
-31.91
-15.13
5.40
27.69
49.34
67.87
81.24
88.31
89.10
84.69
76.77
67.00
56.51
45.76
34.83
23.83
13.21
3.66
-4.17
-9.98
-13.79
-15.78
-16.02
-14.35
-10.64
-5.05
1.66
8.29
13.56
16.57
17.08
15.49
12.51
8.87
5.09
1.51
-1.68
-4.28
-6.11
-7.13
-7.42
-7.20
-6.75
-6.30
-5.97
-5.77
-5.66
-5.58
-5.55
-5.63
-5.93
-6.54
-7.50
-8.80
-10.34
-12.04
-13.82
-15.71
-17.74
-19.99
-22.44
-24.97
-27.42
-29.59
-31.36
-32.76
-33.92
-35.08
-36.56
-38.70
-41.67
-45.45
-49.57
-53.18
-55.11
-54.24
-49.82
-41.83
-31.09
-18.98
-7.07
3.31
11.41
17.12
20.72
22.71
23.49
23.29
22.30
20.74
19.00
17.57
16.87
17.06
17.93
19.04
19.90
20.21
19.94
19.24
18.35
17.41
16.44
15.38
14.19
12.82
11.28
9.58
7.76
5.90
4.13
2.64
1.54
0.82
0.35
-0.10
-0.76
-1.76
-3.09
-4.60
-6.09
-7.39
-8.45
-9.44
-10.62
-12.36
-14.83
-17.95
-21.32
-24.31
-26.18
-26.30
-24.29
-20.13
-14.16
-7.04
0.36
7.19
12.72
16.59
18.80
19.68
19.73
19.39
18.97
18.55
18.12
17.66
17.19
16.77
16.45
16.22
16.00
15.69
15.26
14.77
14.33
13.97
13.62
13.08
12.13
10.69
8.90
7.06
5.51
4.38
3.59
2.80
1.69
0.10
-1.89
-3.95
-5.74
-7.04
-7.90
-8.57
-9.45
-10.87
-12.94
-15.47
-18.00
-19.89
-20.45
-19.20
-15.97
-11.03
-5.00
1.27
6.93
11.36
14.21
15.51
15.53
14.68
13.39
12.02
10.81
9.84
9.12
8.57
8.14
7.80
7.55
7.41
7.37
7.38
7.41
7.43
7.42
7.37
7.21
6.87
6.24
5.25
3.92
2.29
0.49
-1.37
-3.16
-4.77
-6.11
-7.15
-7.98
-8.84
-10.00
-11.64
-13.77
-16.13
-18.22
-19.47
-19.36
-17.54
-13.93
-8.82
-2.76
3.45
9.03
13.39
16.27
17.75
18.13
17.81
17.10
16.20
15.22
14.24
13.30
12.49
11.84
11.37
11.04
10.75
10.39
9.89
9.20
8.36
7.44
6.50
5.58
4.60
3.49
2.16
0.62
-1.07
-2.83
-4.63
-6.49
-8.47
-10.59
-12.82
-15.08
-17.34
-19.60
-21.94
-24.49
-27.31
-30.27
-33.06
-35.25
-36.32
-35.82
-33.48
-29.31
-23.61
-16.99
-10.24
-4.14
0.68
3.94
5.69
6.25
6.01
5.31
4.41
3.47
2.58
1.88
1.42
1.20
1.14
1.13
1.13
1.12
1.15
1.23
1.33
1.35
1.15
0.63
-0.31
-1.70
-3.55
-5.78
-8.27
-10.84
-13.29
-15.51
-17.45
-19.18
-20.85
-22.63
-24.62
-26.95
-29.65
-32.67
-35.85
-38.76
-40.81
-41.30
-39.59
-35.30
-28.51
-19.80
-10.15
-0.71
7.51
13.86
18.20
20.83
22.24
22.90
23.07
22.77
21.97
20.73
19.29
18.01
17.19
16.96
17.17
17.52
17.67
17.38
16.53
15.13
13.31
11.26
9.18
7.28
5.63
4.19
2.77
1.11
-0.94
-3.36
-5.94
-8.46
-10.71
-12.77
-14.91
-17.53
-21.01
-25.47
-30.71
-36.14
-40.84
-43.71
-43.74
-40.33
-33.50
-23.98
-13.04
-2.08
7.71
15.61
21.44
25.36
27.69
28.71
28.67
27.89
26.71
25.60
24.91
24.78
25.08
25.51
25.69
25.40
24.64
23.61
22.57
21.70
20.94
20.04
18.68
16.62
13.85
10.58
7.19
4.05
1.33
-1.00
-3.16
-5.43
-8.03
-10.97
-14.11
-17.20
-19.94
-22.21
-24.08
-25.85
-28.01
-31.08
-35.38
-40.85
-46.90
-52.45
-56.15
-56.78
-53.60
-46.67
-36.82
-25.35
-13.69
-2.96
6.21
13.61
19.34
23.60
26.53
28.32
29.21
29.50
29.55
29.61
29.76
29.94
29.95
29.65
28.94
27.84
26.44
24.85
23.14
21.31
19.32
17.06
14.48
11.53
8.23
4.66
1.08
-2.17
-4.68
-6.11
-6.32
-5.49
-4.07
-2.63
-1.62
-1.22
-1.33
-1.64
-1.94
-2.23
-2.81
-4.15
-6.66
-10.61
-15.99
-22.54
-29.77
-36.90
-42.86
-46.41
-46.41
-42.17
-33.79
-22.24
-9.20
3.51
14.37
22.57
28.06
31.30
32.88
33.28
32.77
31.58
29.97
28.32
27.06
26.45
26.55
27.12
27.83
28.39
28.68
28.82
28.96
29.14
29.10
28.37
26.42
23.00
18.32
13.03
7.98
3.83
0.79
-1.39
-3.25
-5.30
-7.74
-10.54
-13.50
-16.47
-19.43
-22.40
-25.41
-28.46
-31.58
-34.98
-39.03
-44.06
-49.93
-55.81
-60.11
-60.94
-56.83
-47.40
-33.68
-17.83
-2.38
10.55
19.87
25.52
28.22
28.85
28.15
26.60
24.52
22.27
20.33
19.17
19.11
20.17
22.00
24.07
25.86
27.07
27.70
27.99
28.31
28.91
29.79
30.69
31.16
30.83
29.53
27.37
24.73
22.08
19.78
18.00
16.61
15.31
13.75
11.64
8.85
5.40
1.51
-2.56
-6.53
-10.26
-13.78
-17.34
-21.34
-26.24
-32.36
-39.66
-47.56
-54.87
-59.97
-61.29
-57.80
-49.49
-37.34
-23.09
-8.64
4.43
15.16
23.20
28.65
31.77
32.93
32.57
31.22
29.50
28.00
27.14
27.03
27.53
28.28
28.91
29.09
28.70
27.80
26.60
25.35
24.16
23.01
21.68
19.91
17.51
14.52
11.17
7.79
4.69
2.03
-0.26
-2.38
-4.62
-7.14
-9.93
-12.83
-15.66
-18.20
-20.39
-22.29
-24.12
-26.21
-29.00
-32.85
-37.83
-43.50
-48.82
-52.35
-52.61
-48.65
-40.39
-28.73
-15.30
-1.92
9.90
19.20
25.74
29.79
31.91
32.66
32.48
31.60
30.10
28.04
25.57
23.00
20.80
19.33
18.77
18.99
19.62
20.29
20.73
20.90
20.86
20.66
20.19
19.28
17.73
15.53
12.83
9.95
7.18
4.75
2.70
0.92
-0.84
-2.89
-5.54
-8.90
-12.81
-16.88
-20.52
-23.26
-24.96
-25.88
-26.59
-27.74
-29.85
-33.18
-37.70
-43.13
-48.92
-54.10
-57.43
-57.53
-53.41
-44.86
-32.66
-18.49
-4.37
7.92
17.27
23.40
26.66
27.68
27.11
25.53
23.48
21.46
19.93
19.20
19.30
19.94
20.70
21.24
21.51
21.75
22.29
23.34
24.81
26.33
27.43
27.72
27.03
25.40
23.00
20.09
16.90
13.73
10.87
8.54
6.77
5.37
3.90
1.93
-0.84
-4.41
-8.48
-12.63
-16.50
-19.96
-23.15
-26.34
-29.82
-33.78
-38.28
-43.25
-48.38
-53.09
-56.45
-57.31
-54.60
-47.74
-36.96
-23.36
-8.71
5.06
16.46
24.70
29.79
32.33
33.14
32.92
32.12
30.96
29.47
27.75
25.92
24.18
22.69
21.57
20.77
20.23
19.83
19.52
19.25
18.98
18.61
18.00
17.03
15.61
13.72
11.42
8.83
6.00
2.95
-0.40
-4.10
-8.12
-12.30
-16.36
-20.03
-23.14
-25.73
-28.07
-30.63
-33.92
-38.28
-43.64
-49.32
-54.12
-56.56
-55.33
-49.78
-40.22
-27.83
-14.29
-1.31
9.87
18.58
24.71
28.50
30.34
30.71
30.09
28.97
27.76
26.77
26.09
25.67
25.34
24.94
24.40
23.75
23.15
22.68
22.38
22.10
21.62
20.63
18.88
16.27
12.90
9.02
4.96
1.01
-2.69
-6.22
-9.77
-13.57
-17.65
-21.81
-25.61
-28.62
-30.65
-31.92
-33.10
-35.08
-38.57
-43.81
-50.31
-56.81
-61.66
-63.17
-60.18
-52.43
-40.61
-26.21
-11.11
2.89
14.45
22.91
28.25
30.92
31.62
31.08
29.92
28.56
27.25
26.11
25.15
24.36
23.68
23.01
22.25
21.29
20.14
18.94
17.93
17.33
17.19
17.28
17.09
16.03
13.65
9.89
5.08
-0.17
-5.16
-9.38
-12.58
-14.87
-16.60
-18.25
-20.36
-23.41
-27.62
-32.89
-38.51
-43.30
-45.77
-44.60
-39.03
-29.26
-16.41
-2.22
11.37
22.79
31.15
36.28
38.60
38.77
37.49
35.27
32.50
29.50
26.57
23.99
21.91
20.23
18.68
16.93
14.81
12.52
10.54
9.41
9.41
10.29
11.36
11.69
10.57
7.74
3.52
-1.45
-6.48
-11.07
-15.06
-18.59
-22.01
-25.82
-30.54
-36.53
-43.75
-51.51
-58.45
-62.76
-62.71
-57.28
-46.63
-32.09
-15.81
-0.03
13.51
23.92
31.12
35.59
37.97
38.84
38.64
37.64
36.10
34.21
32.16
30.15
28.37
27.01
26.27
26.24
26.87
27.92
28.95
29.49
29.15
27.78
25.52
22.66
19.55
16.37
13.06
9.41
5.17
0.31
-4.99
-10.31
-15.22
-19.47
-23.03
-26.16
-29.31
-33.03
-37.84
-44.12
-51.87
-60.46
-68.58
-74.36
-75.86
-71.74
-61.77
-47.02
-29.59
-11.92
3.89
16.55
25.65
31.45
34.51
35.48
35.01
33.69
32.17
31.01
30.54
30.79
31.45
32.02
32.10
31.53
30.52
29.49
28.85
28.80
29.20
29.62
29.56
28.57
26.46
23.24
19.19
14.68
10.12
5.84
2.01
-1.45
-4.80
-8.37
-12.40
-16.92
-21.74
-26.47
-30.76
-34.40
-37.38
-39.96
-42.65
-46.10
-50.91
-57.24
-64.44
-70.97
-74.65
-73.37
-65.96
-52.69
-35.32
-16.46
1.28
16.07
27.13
34.67
39.39
42.02
43.09
42.89
41.68
39.79
37.68
35.89
34.84
34.70
35.38
36.55
37.84
39.05
40.16
41.30
42.59
43.94
45.01
45.27
44.24
41.71
37.84
33.16
28.36
23.95
20.14
16.70
13.18
9.13
4.36
-0.98
-6.54
-11.85
-16.58
-20.57
-23.87
-26.64
-29.13
-31.64
-34.57
-38.36
-43.26
-49.14
-55.23
-60.13
-62.15
-59.86
-52.64
-41.02
-26.55
-11.30
2.79
14.42
23.12
29.04
32.64
34.38
34.65
33.81
32.27
30.50
28.97
27.98
27.55
27.53
27.66
27.74
27.70
27.60
27.60
27.75
28.07
28.52
29.00
29.35
29.34
28.70
27.13
24.55
21.05
16.97
12.73
8.65
4.81
1.03
-2.99
-7.48
-12.42
-17.56
-22.43
-26.58
-29.68
-31.74
-32.99
-33.94
-35.21
-37.41
-41.04
-46.30
-52.85
-59.75
-65.40
-67.92
-65.74
-58.20
-45.96
-30.82
-15.24
-1.48
9.00
15.81
19.43
20.67
20.31
18.85
16.57
13.70
10.54
7.50
4.93
3.06
1.93
1.36
1.14
1.07
1.13
1.42
2.04
2.97
4.00
4.74
4.81
4.04
2.53
0.61
-1.40
-3.32
-5.25
-7.44
-10.11
-13.28
-16.71
-20.03
-22.91
-25.25
-27.22
-29.23
-31.76
-35.30
-40.14
-46.31
-53.32
-60.11
-65.08
-66.49
-63.01
-54.27
-41.07
-25.23
-8.98
5.72
17.57
26.12
31.51
34.13
34.45
32.92
30.06
26.52
23.00
20.20
18.52
18.05
18.53
19.44
20.22
20.46
20.01
19.02
17.80
16.62
15.57
14.49
13.04
10.85
7.66
3.43
-1.66
-7.29
-13.01
-18.36
-23.04
-26.95
-30.32
-33.68
-37.73
-43.00
-49.55
-56.71
-63.11
-67.02
-66.79
-61.48
-51.12
-36.79
-20.32
-3.71
11.30
23.63
32.92
39.34
43.35
45.44
46.02
45.43
43.96
41.93
39.68
37.53
35.70
34.29
33.25
32.42
31.59
30.53
29.05
27.06
24.57
21.67
18.44
14.98
11.30
7.35
3.07
-1.58
-6.57
-11.77
-17.02
-22.13
-26.96
-31.44
-35.63
-39.75
-44.19
-49.40
-55.69
-62.93
-70.36
-76.56
-79.77
-78.38
-71.47
-59.24
-43.01
-24.87
-7.08
8.44
20.60
29.07
34.22
36.70
37.23
36.49
35.12
33.74
32.93
33.10
34.34
36.38
38.68
40.72
42.18
43.07
43.60
43.99
44.25
44.17
43.39
41.60
38.77
35.10
30.95
26.65
22.31
17.75
12.73
7.08
0.92
-5.38
-11.30
-16.51
-20.94
-24.91
-28.92
-33.53
-39.15
-45.86
-53.33
-60.69
-66.57
-69.32
-67.45
-60.19
-47.86
-31.91
-14.50
2.15
16.35
27.25
34.74
39.17
41.06
40.99
39.51
37.26
34.88
32.92
31.72
31.34
31.56
32.07
32.55
32.82
32.79
32.44
31.78
30.80
29.53
28.00
26.16
23.86
20.87
16.93
11.92
5.94
-0.64
-7.25
-13.33
-18.50
-22.71
-26.18
-29.41
-33.01
-37.54
-43.32
-50.29
-57.84
-64.75
-69.41
-70.14
-65.73
-55.90
-41.44
-24.09
-6.09
10.43
23.92
33.72
39.91
43.17
44.35
44.22
43.30
41.91
40.22
38.39
36.62
35.15
34.13
33.58
33.37
33.28
33.16
32.99
32.90
32.98
33.13
32.99
32.02
29.79
26.20
21.59
16.68
12.21
8.62
5.85
3.35
0.35
-3.75
-9.11
-15.37
-21.82
-27.66
-32.38
-35.90
-38.59
-41.18
-44.57
-49.52
-56.41
-64.97
-74.07
-81.89
-86.21
-85.10
-77.50
-63.67
-45.22
-24.67
-4.73
12.38
25.42
34.21
39.36
41.86
42.64
42.37
41.49
40.24
38.82
37.40
36.11
34.97
33.98
33.09
32.33
31.77
31.52
31.60
31.94
32.29
32.34
31.77
30.33
27.95
24.69
20.79
16.48
12.02
7.54
3.14
-1.17
-5.33
-9.25
-12.86
-16.13
-19.12
-22.05
-25.16
-28.72
-32.82
-37.38
-42.11
-46.63
-50.64
-54.08
-57.27
-60.84
-65.56
-71.88
-79.57
-87.42
-93.39
-95.18
-91.01
-80.39
-64.43
-45.60
-26.95
-11.30
-0.45
5.01
5.72
3.30
0.02
-1.67
0.27
6.85
17.72
31.22
44.95
56.60
64.68
68.82
69.58
67.93
64.85
61.03
56.96
53.02
49.54
46.73
44.62
43.07
41.82
40.62
39.37
38.10
36.93
35.97
35.16
34.27
32.93
30.77
27.58
23.44
18.65
13.70
9.02
4.88
1.25
-2.14
-5.70
-9.75
-14.41
-19.51
-24.65
-29.39
-33.45
-36.83
-39.94
-43.44
-48.03
-54.07
-61.30
-68.62
-74.25
-76.21
-72.91
-63.83
-49.75
-32.55
-14.65
1.71
15.02
24.69
30.90
34.23
35.41
35.09
33.79
31.95
29.93
28.05
26.54
25.46
24.72
24.15
23.52
22.73
21.85
21.11
20.78
21.03
21.76
22.57
22.87
22.13
20.07
16.82
12.87
8.86
5.37
2.62
0.44
-1.65
-4.21
-7.56
-11.66
-16.12
-20.37
-23.95
-26.73
-28.96
-31.22
-34.19
-38.46
-44.29
-51.37
-58.76
-64.93
-68.08
-66.62
-59.67
-47.50
-31.46
-13.65
3.72
18.83
30.66
38.92
43.89
46.06
46.04
44.42
41.84
38.93
36.20
33.97
32.35
31.19
30.31
29.57
28.93
28.43
28.11
27.90
27.62
27.04
25.94
24.19
21.80
18.87
15.55
12.02
8.39
4.70
0.90
-3.10
-7.34
-11.81
-16.36
-20.75
-24.80
-28.38
-31.62
-34.86
-38.61
-43.34
-49.12
-55.42
-61.01
-64.18
-63.31
-57.44
-46.68
-32.31
-16.33
-0.84
12.53
22.95
30.31
34.91
37.24
37.66
36.45
33.93
30.51
26.76
23.35
20.89
19.75
19.94
21.09
22.63
23.96
24.64
24.49
23.65
22.38
20.98
19.57
18.06
16.09
13.27
9.28
4.09
-1.98
-8.35
-14.40
-19.72
-24.23
-28.22
-32.20
-36.75
-42.28
-48.94
-56.42
-63.86
-69.89
-72.81
-71.08
-63.84
-51.34
-34.99
-16.96
0.42
15.31
26.68
34.39
38.89
40.89
41.10
40.13
38.48
36.53
34.62
32.93
31.57
30.50
29.67
29.01
28.52
28.22
28.17
28.34
28.58
28.62
28.15
26.91
24.81
21.99
18.69
15.15
11.42
7.42
2.91
-2.22
-7.89
-13.78
-19.46
-24.56
-28.92
-32.69
-36.25
-40.21
-45.14
-51.44
-59.00
-67.04
-74.04
-78.03
-77.17
-70.35
-57.78
-40.95
-22.28
-4.34
10.83
22.17
29.62
33.77
35.50
35.60
34.70
33.21
31.43
29.55
27.71
26.01
24.52
23.28
22.34
21.68
21.22
20.85
20.40
19.78
18.92
17.77
16.31
14.50
12.36
9.92
7.30
4.56
1.72
-1.24
-4.34
-7.55
-10.69
-13.61
-16.17
-18.45
-20.68
-23.27
-26.68
-31.28
-37.11
-43.73
-50.06
-54.60
-55.73
-52.27
-44.01
-31.82
-17.50
-3.12
9.50
19.32
26.16
30.38
32.60
33.36
32.99
31.71
29.72
27.36
25.02
23.10
21.84
21.26
21.17
21.29
21.43
21.47
21.44
21.35
21.15
20.70
19.81
18.33
16.20
13.40
10.07
6.37
2.53
-1.20
-4.66
-7.78
-10.67
-13.58
-16.80
-20.63
-25.29
-30.80
-36.90
-42.98
-48.02
-50.71
-49.81
-44.54
-34.92
-21.87
-6.96
8.05
21.62
32.82
41.27
47.05
50.47
51.88
51.68
50.31
48.33
46.33
44.85
44.14
44.06
44.14
43.75
42.44
40.20
37.60
35.60
35.19
36.97
40.72
45.43
49.55
51.58
50.62
46.83
41.41
36.19
32.89
32.39
34.33
37.22
39.05
38.19
34.20
28.18
22.48
19.98
22.94
31.50
43.00
52.16
52.24
36.98
2.78
-49.47
-113.57
-178.55
-231.51
-261.41
-262.58
-236.32
-190.23
-135.39
-82.86
-40.71
-12.34
2.63
6.78
3.21
-5.25
-16.19
-27.51
-37.44
-44.61
-47.34
-45.22
-39.87
-34.80
-33.84
-39.48
-52.08
-69.91
-89.98
-106.99
-116.94
-118.69
-113.70
-104.31
-92.34
-79.39
-67.24
-58.05
-49.93
-40.44
-28.05
-12.54
6.22
29.06
56.89
90.24
128.86
176.74
236.14
304.61
375.00
439.19
491.74
530.82
557.42
544.86
479.14
368.24
239.39
119.68
23.61
-45.57
-90.85
-118.15
-135.20
-143.89
-144.81
-139.59
-131.65
-124.51
-120.09
-119.80
-123.70
-132.64
-143.11
-152.21
-159.96
-169.30
-182.74
-199.62
-215.72
-218.70
-203.83
-170.07
-122.23
-69.65
-22.66
11.62
30.99
36.75
31.36
16.00
-6.37
-31.29
-53.32
-67.40
-70.41
-62.21
-45.71
-26.06
-7.15
9.00
22.16
32.71
40.86
46.60
50.29
53.01
56.31
60.96
66.80
72.41
75.68
74.90
69.82
61.94
53.81
47.68
44.33
42.76
40.88
36.36
27.48
13.60
-4.51
-24.85
-44.52
-60.42
-70.10
-72.49
-68.24
-59.53
-49.17
-39.61
-32.23
-27.37
-24.73
-24.07
-25.38
-28.72
-33.82
-39.85
-45.51
-49.59
-51.52
-51.67
-51.20
-51.51
-53.59
-57.67
-63.18
-69.06
-74.14
-77.39
-78.03
-75.49
-69.49
-60.08
-47.77
-33.52
-18.54
-3.99
9.27
20.77
30.27
37.64
42.71
45.42
45.99
44.98
43.26
41.78
41.21
41.82
43.37
45.25
46.75
47.19
46.11
43.32
38.97
33.50
27.59
21.96
17.10
13.15
9.94
7.11
4.40
1.77
-0.69
-2.97
-5.33
-8.22
-11.99
-16.45
-20.77
-23.55
-23.40
-19.46
-11.84
-1.55
9.84
20.66
29.54
35.58
38.43
38.25
35.64
31.52
26.90
22.69
19.37
16.98
15.13
13.23
10.73
7.38
3.45
-0.28
-2.61
-2.15
2.16
10.64
22.52
35.96
48.53
57.86
62.45
61.96
57.22
49.70
40.88
31.76
22.69
13.52
3.99
-5.89
-15.65
-24.39
-31.02
-34.63
-34.74
-31.55
-25.80
-18.59
-11.08
-4.22
1.41
5.55
8.17
9.36
9.25
8.06
6.11
3.89
1.91
0.57
0.03
0.14
0.51
0.72
0.52
-0.09
-0.83
-1.33
-1.35
-0.84
-0.07
0.52
0.42
-0.79
-3.30
-7.00
-11.55
-16.43
-21.15
-25.34
-28.81
-31.63
-34.07
-36.58
-39.71
-43.92
-49.24
-55.14
-60.35
-63.22
-62.17
-56.37
-46.02
-32.40
-17.46
-3.17
9.02
18.37
24.84
28.85
30.89
31.48
31.01
29.86
28.37
26.92
25.80
25.21
25.20
25.65
26.40
27.25
28.16
29.13
30.22
31.42
32.58
33.44
33.67
33.03
31.43
29.01
26.08
23.06
20.30
18.02
16.17
14.50
12.66
10.33
7.38
3.97
0.45
-2.78
-5.46
-7.59
-9.49
-11.54
-14.10
-17.26
-20.85
-24.51
-27.92
-30.91
-33.54
-36.00
-38.56
-41.46
-44.93
-49.12
-54.06
-59.41
-64.38
-67.71
-67.95
-63.97
-55.39
-42.85
-27.86
-12.37
1.81
13.46
22.09
27.81
31.02
32.19
31.70
29.95
27.42
24.67
22.32
20.79
20.25
20.47
21.04
21.52
21.69
21.65
21.68
22.09
22.95
24.06
24.95
25.13
24.34
22.69
20.58
18.51
16.87
15.74
14.92
14.11
13.09
11.78
10.25
8.62
6.94
5.18
3.25
1.05
-1.51
-4.42
-7.61
-10.95
-14.25
-17.36
-20.10
-22.42
-24.32
-25.96
-27.59
-29.56
-32.21
-35.68
-39.65
-43.25
-45.19
-44.07
-39.03
-30.09
-18.28
-5.34
6.84
16.83
23.96
28.27
30.25
30.45
29.35
27.28
24.56
21.54
18.62
16.16
14.38
13.32
12.88
12.89
13.22
13.79
14.57
15.52
16.56
17.57
18.37
18.72
18.39
17.21
15.23
12.67
9.89
7.23
4.83
2.58
0.17
-2.73
-6.25
-10.28
-14.47
-18.37
-21.68
-24.31
-26.46
-28.60
-31.34
-35.16
-40.18
-45.92
-51.29
-54.82
-55.10
-51.31
-43.52
-32.72
-20.53
-8.68
1.39
8.90
13.69
16.13
16.80
16.26
14.84
12.67
9.75
6.16
2.25
-1.43
-4.19
-5.55
-5.45
-4.24
-2.53
-0.90
0.29
0.96
1.27
1.60
2.62
5.27
10.57
19.18
30.91
44.36
57.24
67.15
72.52
73.17
70.28
65.67
60.85
56.51
52.48
48.11
42.80
36.24
28.32
18.96
8.00
-4.67
-18.95
-34.34
-50.00
-64.83
-77.65
-87.27
-92.62
-92.86
-87.75
-77.76
-64.14
-48.62
-32.90
-18.23
-5.29
5.76
15.02
22.67
29.06
34.74
40.44
46.89
54.41
62.69
70.88
77.81
82.47
84.21
82.88
78.72
72.24
64.09
55.01
45.69
36.66
28.15
20.09
12.24
4.43
-3.30
-10.63
-17.09
-22.24
-25.85
-27.97
-28.90
-29.09
-28.95
-28.77
-28.65
-28.61
-28.68
-29.05
-30.03
-31.96
-35.04
-39.21
-44.09
-49.06
-53.29
-55.84
-55.86
-52.69
-46.09
-36.36
-24.34
-11.35
1.16
11.87
19.84
24.71
26.61
26.07
23.85
20.69
17.23
13.93
11.04
8.70
6.92
5.65
4.78
4.14
3.60
3.07
2.57
2.15
1.91
1.93
2.18
2.51
2.65
2.28
1.09
-1.06
-4.08
-7.68
-11.38
-14.80
-17.73
-20.24
-22.71
-25.64
-29.48
-34.39
-40.03
-45.59
-49.82
-51.44
-49.41
-43.39
-33.87
-22.02
-9.41
2.47
12.53
20.23
25.51
28.63
29.93
29.72
28.29
25.90
22.88
19.61
16.51
13.93
12.09
11.04
10.66
10.70
10.86
10.95
10.85
10.60
10.29
9.92
9.37
8.34
6.47
3.52
-0.46
-5.16
-10.00
-14.44
-18.14
-21.09
-23.62
-26.26
-29.54
-33.81
-39.06
-44.84
-50.25
-54.16
-55.38
-53.03
-46.80
-37.05
-24.83
-11.52
1.44
12.89
22.11
28.81
33.05
35.07
35.23
33.95
31.76
29.19
26.68
24.56
22.95
21.82
21.09
20.69
20.61
20.87
21.39
22.05
22.61
22.80
22.36
21.15
19.20
16.61
13.59
10.29
6.77
3.00
-1.13
-5.69
-10.67
-15.85
-20.90
-25.49
-29.36
-32.50
-35.16
-37.89
-41.28
-45.74
-51.19
-56.85
-61.33
-63.03
-60.65
-53.72
-42.74
-29.09
-14.57
-0.92
10.58
19.30
25.20
28.63
30.16
30.40
29.91
29.12
28.26
27.43
26.65
25.94
25.34
24.88
24.55
24.25
23.86
23.33
22.77
22.38
22.33
22.63
23.01
23.04
22.30
20.64
18.26
15.62
13.29
11.66
10.76
10.25
9.60
8.32
6.23
3.53
0.76
-1.49
-2.83
-3.26
-3.08
-2.76
-2.74
-3.30
-4.52
-6.41
-8.81
-11.37
-13.52
-14.55
-13.96
-11.75
-8.65
-5.81
-4.32
-4.56
-6.01
-7.48
-7.82
-6.64
-4.57
-3.02
-3.38
-6.20
-10.86
-15.78
-19.24
-20.26
-19.04
-16.78
-15.07
-15.11
-17.21
-20.93
-25.36
-29.25
-30.76
-27.18
-15.50
6.33
37.78
74.87
111.03
139.40
155.56
158.95
152.40
140.04
124.99
108.35
89.70
68.67
46.09
24.01
4.68
-10.80
-22.97
-33.69
-45.14
-58.71
-74.12
-89.11
-99.82
-101.99
-92.45
-70.66
-39.36
-3.90
29.49
55.84
72.79
80.69
81.51
77.39
69.72
59.07
45.91
31.30
17.09
5.37
-2.32
-5.71
-5.86
-4.62
-3.85
-4.61
-6.87
-9.70
-11.88
-12.48
-11.41
-9.32
-7.31
-6.42
-7.12
-9.29
-12.28
-15.30
-17.75
-19.42
-20.47
-21.30
-22.26
-23.54
-25.09
-26.70
-28.15
-29.34
-30.36
-31.49
-33.09
-35.37
-38.31
-41.59
-44.64
-46.93
-48.13
-48.38
-48.32
-48.86
-50.93
-55.07
-61.21
-68.55
-75.70
-81.01
-82.95
-80.50
-73.37
-62.14
-48.05
-32.71
-17.71
-4.26
6.84
15.29
20.97
23.95
24.42
22.83
19.96
16.92
14.90
14.89
17.31
21.85
27.56
33.06
36.94
38.15
36.36
32.34
27.91
25.59
27.73
35.48
48.09
62.88
76.04
83.94
84.41
77.22
63.98
47.27
29.76
13.57
0.05
-10.19
-17.09
-21.08
-23.02
-24.04
-25.26
-27.56
-31.39
-36.66
-42.80
-49.05
-54.62
-58.97
-61.87
-63.40
-63.77
-63.04
-61.06
-57.46
-51.90
-44.34
-35.20
-25.34
-15.84
-7.67
-1.34
3.19
6.42
9.00
11.48
14.05
16.58
18.80
20.47
21.59
22.36
22.98
23.60
24.20
24.64
24.82
24.73
24.43
23.97
23.35
22.48
21.25
19.60
17.50
15.05
12.37
9.54
6.67
3.80
1.00
-1.70
-4.27
-6.78
-9.36
-12.16
-15.39
-19.12
-23.35
-27.81
-32.02
-35.30
-36.83
-35.90
-32.10
-25.52
-16.81
-7.08
2.40
10.49
16.47
20.22
22.08
22.64
22.51
22.09
21.57
20.99
20.31
19.53
18.71
17.94
17.25
16.63
16.03
15.40
14.78
14.20
13.69
13.13
12.35
11.11
9.30
6.99
4.40
1.79
-0.67
-2.98
-5.32
-7.92
-10.90
-14.18
-17.57
-20.81
-23.80
-26.54
-29.28
-32.30
-35.88
-40.13
-44.86
-49.58
-53.49
-55.59
-54.93
-50.85
-43.25
-32.73
-20.54
-8.22
2.78
11.52
17.71
21.69
24.08
25.53
26.39
26.79
26.68
26.11
25.23
24.31
23.59
23.21
23.13
23.23
23.32
23.33
23.26
23.23
23.32
23.49
23.51
23.06
21.80
19.61
16.67
13.38
10.24
7.52
5.14
2.66
-0.40
-4.36
-9.09
-14.10
-18.72
-22.50
-25.36
-27.66
-30.01
-33.03
-37.14
-42.41
-48.49
-54.62
-59.66
-62.32
-61.42
-56.28
-47.04
-34.68
-20.81
-7.21
4.67
14.01
20.61
24.76
26.90
27.51
27.03
25.89
24.51
23.22
22.23
21.60
21.28
21.22
21.44
21.98
22.87
24.06
25.33
26.38
26.93
26.81
26.03
24.71
22.99
20.90
18.37
15.29
11.54
7.15
2.31
-2.69
-7.56
-12.05
-16.04
-19.55
-22.75
-25.98
-29.68
-34.31
-40.08
-46.69
-53.18
-58.02
-59.49
-56.23
-47.82
-34.98
-19.45
-3.50
10.79
22.02
29.79
34.52
37.02
38.15
38.47
38.20
37.37
36.05
34.44
32.88
31.69
31.10
31.16
31.81
32.91
34.36
36.04
37.77
39.25
40.15
40.14
39.09
37.08
34.40
31.44
28.50
25.72
23.05
20.32
17.32
13.93
10.16
6.18
2.19
-1.64
-5.25
-8.77
-12.44
-16.47
-20.98
-25.83
-30.72
-35.29
-39.28
-42.70
-45.90
-49.55
-54.40
-61.01
-69.37
-78.67
-87.22
-92.88
-93.57
-88.12
-76.78
-61.21
-44.14
-28.36
-15.96
-7.76
-3.38
-1.71
-1.61
-2.41
-3.96
-6.50
-10.16
-14.77
-19.79
-24.55
-28.51
-31.46
-33.56
-35.20
-37.04
-39.92
-44.71
-51.96
-61.18
-70.16
-74.97
-70.92
-54.17
-23.52
18.80
67.55
116.05
158.15
189.65
208.75
215.53
211.39
198.52
179.77
158.67
138.95
123.70
114.52
110.96
110.78
110.83
108.12
100.65
87.68
69.62
47.66
23.35
-1.55
-25.32
-46.37
-63.47
-75.89
-83.35
-85.97
-84.10
-78.28
-69.20
-57.86
-45.52
-33.63
-23.56
-16.25
-12.00
-10.40
-10.55
-11.39
-12.07
-12.22
-11.88
-11.39
-11.00
-10.76
-10.47
-9.82
-8.56
-6.67
-4.25
-1.54
1.20
3.74
5.82
7.17
7.57
6.95
5.43
3.35
1.14
-0.85
-2.47
-3.88
-5.39
-7.38
-10.10
-13.61
-17.76
-22.26
-26.73
-30.89
-34.53
-37.64
-40.45
-43.42
-47.12
-51.98
-57.96
-64.39
-69.94
-72.91
-71.77
-65.69
-54.84
-40.39
-24.20
-8.26
5.74
16.80
24.63
29.46
31.87
32.52
32.06
31.02
29.80
28.68
27.80
27.14
26.62
26.11
25.53
24.90
24.34
24.04
24.14
24.67
25.48
26.31
26.83
26.81
26.14
24.90
23.20
21.17
18.90
16.41
13.72
10.87
7.94
4.96
1.94
-1.19
-4.45
-7.84
-11.25
-14.52
-17.53
-20.16
-22.44
-24.47
-26.50
-28.92
-32.12
-36.42
-41.84
-47.84
-53.37
-56.99
-57.31
-53.40
-45.15
-33.32
-19.37
-4.99
8.24
19.20
27.29
32.40
34.83
35.12
33.97
32.03
29.84
27.73
25.80
24.06
22.51
21.21
20.24
19.69
19.57
19.89
20.71
22.23
24.70
28.27
32.72
37.40
41.35
43.57
43.45
40.89
36.33
30.54
24.26
17.98
11.90
6.01
0.29
-5.24
-10.49
-15.35
-19.80
-23.85
-27.58
-31.05
-34.39
-37.75
-41.43
-45.71
-50.67
-55.98
-60.76
-63.73
-63.51
-59.16
-50.50
-38.24
-23.82
-8.97
4.67
15.95
24.26
29.55
32.13
32.54
31.36
29.12
26.27
23.14
19.96
16.98
14.46
12.61
11.62
11.52
12.15
13.21
14.34
15.26
15.81
15.96
15.68
14.95
13.64
11.60
8.73
5.05
0.74
-3.90
-8.54
-12.92
-16.88
-20.46
-23.74
-26.93
-30.26
-33.99
-38.43
-43.76
-49.88
-56.20
-61.59
-64.54
-63.61
-57.91
-47.54
-33.56
-17.77
-2.14
11.68
22.68
30.51
35.38
37.78
38.35
37.69
36.28
34.46
32.39
30.14
27.79
25.48
23.43
21.87
20.93
20.55
20.55
20.64
20.60
20.28
19.61
18.52
16.97
14.93
12.44
9.62
6.61
3.46
0.14
-3.46
-7.40
-11.59
-15.82
-19.80
-23.34
-26.44
-29.34
-32.48
-36.35
-41.26
-47.11
-53.20
-58.29
-60.75
-59.11
-52.58
-41.40
-26.92
-11.18
3.71
16.16
25.38
31.39
34.71
35.99
35.82
34.67
32.89
30.86
28.90
27.25
25.99
25.07
24.35
23.70
23.13
22.72
22.53
22.53
22.60
22.52
22.11
21.26
19.96
18.30
16.40
14.33
12.10
9.61
6.79
3.54
-0.16
-4.18
-8.32
-12.30
-15.93
-19.11
-21.96
-24.80
-28.05
-32.10
-37.02
-42.43
-47.41
-50.64
-50.76
-46.87
-38.84
-27.43
-14.16
-0.81
11.02
20.29
26.60
30.13
31.38
30.90
29.19
26.63
23.56
20.32
17.27
14.74
12.95
11.96
11.67
11.88
12.38
12.96
13.41
13.55
13.22
12.41
11.28
10.10
9.12
8.52
8.22
8.01
7.63
6.88
5.64
3.88
1.49
-1.58
-5.36
-9.76
-14.63
-19.91
-25.67
-32.10
-39.21
-46.51
-52.91
-56.89
-56.98
-52.37
-43.26
-30.86
-17.04
-3.68
7.76
16.56
22.65
26.39
28.32
28.97
28.75
28.04
27.23
26.69
26.81
27.82
29.67
32.00
34.16
35.51
35.62
34.49
32.53
30.34
28.45
27.09
26.13
25.23
23.96
22.04
19.37
16.09
12.53
9.11
6.21
3.97
2.25
0.57
-1.61
-4.65
-8.56
-12.94
-17.20
-20.83
-23.67
-25.87
-27.82
-29.96
-32.64
-36.15
-40.62
-45.97
-51.71
-56.85
-60.02
-59.81
-55.26
-46.36
-34.08
-20.11
-6.36
5.69
15.20
22.04
26.52
29.15
30.39
30.60
30.10
29.15
28.00
26.88
25.89
25.08
24.37
23.66
22.88
21.96
20.98
20.04
19.31
18.89
18.74
18.62
18.16
17.02
15.01
12.25
9.13
6.09
3.52
1.47
-0.24
-1.97
-4.00
-6.46
-9.20
-11.96
-14.52
-16.70
-18.50
-20.01
-21.37
-22.79
-24.54
-26.94
-30.22
-34.44
-39.21
-43.69
-46.68
-46.94
-43.58
-36.43
-26.14
-14.02
-1.70
9.31
18.00
23.93
27.24
28.42
28.09
26.82
25.04
23.05
21.06
19.30
18.00
17.41
17.64
18.61
19.99
21.36
22.35
22.82
22.85
22.63
22.33
21.93
21.20
19.88
17.81
15.09
11.99
8.95
6.27
4.11
2.42
0.95
-0.59
-2.46
-4.78
-7.56
-10.65
-13.81
-16.77
-19.33
-21.42
-23.15
-24.84
-26.90
-29.75
-33.56
-38.19
-42.98
-46.81
-48.40
-46.60
-40.87
-31.54
-19.74
-7.10
4.77
14.72
22.24
27.42
30.66
32.39
32.95
32.53
31.28
29.37
27.02
24.47
21.99
19.80
18.02
16.68
15.67
14.81
13.92
12.88
11.67
10.33
8.91
7.38
5.62
3.45
0.71
-2.64
-6.46
-10.45
-14.19
-17.26
-19.46
-20.81
-21.56
-22.01
-22.38
-22.68
-22.77
-22.55
-22.01
-21.39
-21.01
-21.20
-22.24
-24.32
-27.58
-31.95
-37.02
-41.90
-45.28
-45.73
-42.28
-34.78
-24.09
-11.79
0.30
10.67
18.49
23.63
26.42
27.41
27.06
25.72
23.62
21.01
18.21
15.62
13.59
12.39
12.03
12.31
12.93
13.59
14.12
14.57
15.06
15.71
16.46
17.09
17.20
16.42
14.55
11.71
8.28
4.80
1.77
-0.58
-2.34
-3.89
-5.63
-7.85
-10.52
-13.35
-15.98
-18.14
-19.81
-21.23
-22.80
-24.90
-27.83
-31.65
-36.17
-40.83
-44.74
-46.78
-45.88
-41.36
-33.30
-22.53
-10.49
1.21
11.31
19.09
24.45
27.67
29.10
29.04
27.67
25.24
22.13
18.91
16.15
14.30
13.47
13.49
14.02
14.70
15.33
15.84
16.22
16.45
16.46
16.15
15.48
14.47
13.13
11.51
9.61
7.45
5.14
2.87
0.91
-0.57
-1.58
-2.39
-3.37
-4.91
-7.20
-10.10
-13.22
-16.06
-18.27
-19.80
-20.95
-22.31
-24.53
-28.06
-32.88
-38.41
-43.55
-46.89
-47.10
-43.31
-35.47
-24.37
-11.42
1.69
13.50
23.03
29.91
34.27
36.49
37.05
36.38
34.82
32.68
30.24
27.78
25.50
23.51
21.73
20.05
18.34
16.62
15.04
13.81
13.08
12.85
12.91
12.98
12.82
12.21
11.03
9.29
7.09
4.69
2.48
0.81
-0.18
-0.68
-1.19
-2.30
-4.39
-7.44
-11.05
-14.60
-17.58
-19.86
-21.68
-23.57
-26.12
-29.70
-34.37
-39.78
-45.13
-49.32
-51.10
-49.45
-43.90
-34.70
-22.88
-9.97
2.38
12.83
20.56
25.40
27.65
27.90
26.81
24.93
22.67
20.27
17.86
15.58
13.51
11.78
10.48
9.61
9.19
9.20
9.64
10.51
11.67
12.80
13.45
13.15
11.67
9.10
5.89
2.58
-0.40
-2.92
-5.14
-7.31
-9.56
-11.80
-13.74
-15.12
-15.96
-16.60
-17.60
-19.55
-22.88
-27.60
-33.38
-39.47
-44.85
-48.36
-48.95
-45.98
-39.46
-30.13
-19.31
-8.55
0.82
8.04
13.03
16.29
18.57
20.51
22.48
24.49
26.28
27.59
28.31
28.55
28.56
28.54
28.59
28.59
28.37
27.82
27.02
26.16
25.46
24.95
24.48
23.76
22.48
20.49
17.87
14.87
11.85
9.08
6.65
4.40
2.01
-0.86
-4.41
-8.57
-13.03
-17.30
-20.96
-23.80
-25.97
-27.89
-30.17
-33.36
-37.70
-42.94
-48.30
-52.54
-54.31
-52.50
-46.68
-37.22
-25.19
-12.09
0.61
11.77
20.71
27.14
31.07
32.74
32.59
31.24
29.38
27.63
26.37
25.72
25.58
25.74
25.99
26.18
26.29
26.37
26.54
26.92
27.54
28.27
28.83
28.88
28.16
26.58
24.27
21.42
18.17
14.59
10.59
6.12
1.20
-4.05
-9.41
-14.64
-19.54
-23.96
-27.88
-31.39
-34.68
-38.00
-41.57
-45.54
-49.88
-54.24
-57.93
-60.00
-59.41
-55.43
-47.90
-37.43
-25.30
-13.09
-2.21
6.43
12.57
16.44
18.53
19.31
19.14
18.22
16.76
14.99
13.17
11.58
10.44
9.89
9.98
10.67
11.88
13.46
15.12
16.51
17.24
16.99
15.70
13.58
11.05
8.58
6.50
4.87
3.46
1.96
0.10
-2.20
-4.84
-7.65
-10.49
-13.34
-16.20
-19.12
-22.11
-25.23
-28.59
-32.31
-36.31
-40.18
-43.04
-43.71
-41.08
-34.63
-24.69
-12.49
0.20
11.61
20.51
26.41
29.57
30.68
30.53
29.74
28.70
27.58
26.46
25.39
24.40
23.50
22.73
22.08
21.58
21.24
21.09
21.13
21.38
21.86
22.54
23.31
23.90
23.94
23.04
20.97
17.79
13.85
9.72
5.90
2.70
0.10
-2.24
-4.72
-7.69
-11.24
-15.15
-19.01
-22.37
-24.96
-26.84
-28.37
-30.12
-32.64
-36.23
-40.79
-45.71
-49.96
-52.31
-51.60
-47.10
-38.80
-27.46
-14.47
-1.51
9.95
18.88
24.90
28.18
29.22
28.68
27.11
25.01
22.77
20.72
19.14
18.22
17.97
18.21
18.61
18.84
18.69
18.22
17.67
17.39
17.58
18.21
18.92
19.22
18.58
16.69
13.57
9.57
5.26
1.25
-2.04
-4.49
-6.28
-7.82
-9.57
-11.81
-14.59
-17.69
-20.72
-23.27
-25.12
-26.26
-26.97
-27.74
-29.11
-31.56
-35.30
-40.03
-44.98
-48.89
-50.36
-48.26
-42.11
-32.31
-20.07
-7.06
5.01
14.84
21.81
25.85
27.43
27.19
25.83
23.91
21.83
19.86
18.12
16.70
15.63
14.95
14.66
14.76
15.27
16.20
17.51
19.12
20.81
22.29
23.19
23.23
22.29
20.42
17.94
15.18
12.50
10.03
7.69
5.20
2.25
-1.28
-5.26
-9.33
-13.06
-16.25
-19.00
-21.73
-24.98
-29.21
-34.55
-40.66
-46.73
-51.64
-54.16
-53.32
-48.63
-40.30
-29.18
-16.60
-3.99
7.37
16.64
23.44
27.85
30.25
31.20
31.21
30.68
29.83
28.72
27.38
25.82
24.12
22.36
20.65
19.13
17.94
17.21
16.98
17.13
17.36
17.19
16.23
14.28
11.43
8.03
4.53
1.24
-1.76
-4.65
-7.71
-11.23
-15.30
-19.82
-24.44
-28.75
-32.36
-35.05
-36.86
-38.17
-39.53
-41.61
-44.86
-49.31
-54.32
-58.60
-60.54
-58.63
-52.07
-41.07
-26.87
-11.38
3.42
15.95
25.38
31.61
35.10
36.52
36.61
35.97
35.04
34.05
33.04
31.92
30.60
29.08
27.50
26.16
25.38
25.36
26.06
27.19
28.22
28.65
28.11
26.56
24.17
21.28
18.17
14.94
11.54
7.81
3.65
-0.94
-5.90
-11.10
-16.37
-21.50
-26.27
-30.46
-33.99
-37.02
-39.94
-43.20
-47.01
-51.00
-54.22
-55.33
-53.02
-46.61
-36.27
-23.06
-8.60
5.43
17.59
27.01
33.28
36.46
36.88
35.06
31.66
27.37
22.88
18.74
15.40
13.12
12.00
11.97
12.78
14.06
15.36
16.29
16.68
16.57
16.21
15.85
15.54
15.11
14.13
12.19
9.06
4.89
0.11
-4.66
-8.91
-12.37
-15.10
-17.39
-19.68
-22.39
-25.88
-30.32
-35.61
-41.20
-46.11
-49.01
-48.60
-44.03
-35.20
-22.91
-8.67
5.75
18.71
29.04
36.22
40.23
41.42
40.33
37.58
33.77
29.47
25.23
21.46
18.48
16.42
15.25
14.85
15.03
15.61
16.43
17.33
18.12
18.58
18.49
17.68
16.17
14.10
11.73
9.33
7.03
4.80
2.43
-0.31
-3.57
-7.34
-11.40
-15.46
-19.25
-22.63
-25.65
-28.55
-31.71
-35.59
-40.47
-46.21
-52.07
-56.65
-58.21
-55.26
-47.16
-34.43
-18.71
-2.27
12.72
24.78
33.34
38.65
41.37
42.27
41.93
40.78
39.11
37.23
35.43
33.98
33.02
32.47
32.11
31.70
31.16
30.59
30.29
30.52
31.30
32.39
33.29
33.54
32.83
31.22
28.92
26.25
23.38
20.37
17.19
13.86
10.49
7.26
4.28
1.51
-1.23
-4.19
-7.53
-11.17
-14.90
-18.46
-21.63
-24.39
-26.91
-29.39
-32.17
-35.55
-39.86
-45.32
-51.86
-58.93
-65.33
-69.48
-69.74
-65.04
-55.28
-41.43
-25.30
-8.97
5.74
17.66
26.31
31.77
34.48
35.02
33.96
31.90
29.36
26.81
24.63
23.03
22.07
21.67
21.65
21.88
22.23
22.66
23.15
23.72
24.33
24.91
25.37
25.54
25.29
24.48
23.03
20.98
18.49
15.76
13.03
10.45
8.02
5.65
3.19
0.50
-2.41
-5.46
-8.49
-11.34
-13.89
-16.10
-17.99
-19.66
-21.33
-23.35
-26.14
-30.07
-35.23
-41.19
-46.95
-51.05
-51.97
-48.66
-40.85
-29.32
-15.58
-1.48
11.26
21.48
28.65
32.82
34.44
34.11
32.45
30.05
27.39
24.86
22.71
21.10
20.06
19.55
19.44
19.58
19.81
20.05
20.26
20.51
20.80
21.05
21.07
20.55
19.19
16.86
13.70
10.06
6.41
3.15
0.41
-1.90
-4.10
-6.53
-9.38
-12.64
-16.07
-19.32
-22.11
-24.33
-26.10
-27.77
-29.74
-32.43
-36.10
-40.73
-45.97
-51.04
-54.82
-55.99
-53.44
-46.65
-35.93
-22.47
-8.02
5.61
17.01
25.47
30.98
34.01
35.19
35.10
34.13
32.52
30.49
28.28
26.16
24.42
23.27
22.74
22.71
22.93
23.14
23.17
23.01
22.78
22.57
22.41
22.09
21.31
19.69
17.04
13.45
9.34
5.25
1.70
-1.04
-3.05
-4.67
-6.38
-8.50
-11.14
-14.18
-17.32
-20.28
-22.84
-24.96
-26.79
-28.66
-31.01
-34.31
-38.82
-44.33
-50.02
-54.56
-56.47
-54.59
-48.56
-38.91
-26.92
-14.23
-2.37
7.56
14.96
19.68
21.96
22.24
21.09
19.14
16.95
14.99
13.54
12.73
12.50
12.71
13.14
13.58
13.94
14.31
14.84
15.69
16.83
18.01
18.85
18.93
18.03
16.15
13.49
10.43
7.31
4.32
1.53
-1.19
-4.04
-7.17
-10.63
-14.29
-17.92
-21.21
-23.95
-26.09
-27.81
-29.53
-31.78
-35.02
-39.44
-44.67
-49.76
-53.32
-53.89
-50.46
-42.85
-31.77
-18.68
-5.25
7.02
17.16
24.78
29.90
32.75
33.64
32.87
30.83
27.97
24.83
21.88
19.44
17.64
16.46
15.82
15.67
15.90
16.43
17.03
17.41
17.31
16.56
15.14
13.14
10.68
7.86
4.78
1.50
-1.90
-5.32
-8.77
-12.26
-15.90
-19.71
-23.58
-27.26
-30.54
-33.39
-36.08
-39.13
-43.02
-47.81
-52.86
-56.89
-58.26
-55.65
-48.54
-37.47
-23.92
-9.77
3.26
14.01
22.04
27.47
30.73
32.28
32.54
31.83
30.46
28.68
26.80
25.05
23.63
22.61
21.98
21.69
21.65
21.77
22.02
22.38
22.79
23.17
23.34
23.03
22.00
20.11
17.39
14.08
10.60
7.33
4.52
2.18
0.03
-2.35
-5.31
-8.96
-13.16
-17.53
-21.65
-25.19
-28.07
-30.42
-32.64
-35.24
-38.75
-43.49
-49.35
-55.60
-60.95
-63.76
-62.54
-56.50
-45.85
-31.84
-16.34
-1.27
11.86
22.22
29.64
34.38
36.91
37.76
37.45
36.45
35.14
33.77
32.43
31.17
29.98
28.95
28.16
27.66
27.44
27.37
27.31
27.18
26.96
26.70
26.37
25.84
24.86
23.18
20.64
17.33
13.52
9.67
6.18
3.29
1.01
-0.92
-2.85
-5.14
-7.98
-11.35
-15.06
-18.86
-22.53
-25.94
-29.08
-32.04
-35.04
-38.37
-42.40
-47.35
-53.08
-58.87
-63.45
-65.24
-62.85
-55.64
-44.04
-29.46
-13.92
0.62
12.71
21.70
27.60
30.85
31.96
31.40
29.58
26.89
23.81
20.88
18.51
16.97
16.21
15.96
15.88
15.70
15.36
15.00
14.84
15.06
15.62
16.17
16.14
14.89
12.01
7.47
1.69
-4.54
-10.41
-15.39
-19.38
-22.78
-26.26
-30.51
-35.96
-42.66
-50.26
-58.16
-65.53
-71.50
-75.20
-76.02
-73.87
-69.29
-63.31
-57.01
-50.99
-44.95
-37.77
-28.09
-14.97
1.49
20.10
38.95
56.12
70.20
80.55
87.16
90.40
90.73
88.63
84.58
79.14
72.96
66.75
61.10
56.44
52.88
50.28
48.33
46.63
44.90
43.05
41.21
39.66
38.73
38.48
38.63
38.55
37.50
35.05
31.27
26.83
22.60
19.26
16.91
15.03
12.87
9.90
6.14
2.08
-1.65
-4.71
-7.26
-9.84
-13.00
-16.96
-21.56
-26.43
-31.29
-36.15
-41.20
-46.50
-51.64
-55.67
-57.30
-55.44
-49.63
-40.36
-28.87
-16.77
-5.60
3.60
10.36
14.70
16.89
17.23
15.97
13.35
9.62
5.17
0.50
-3.92
-7.77
-11.03
-13.93
-16.82
-19.94
-23.33
-26.71
-29.74
-32.19
-34.12
-35.91
-38.11
-41.20
-45.35
-50.27
-55.22
-59.08
-60.61
-58.77
-53.04
-43.71
-32.03
-19.85
-9.23
-1.80
1.72
1.63
-0.98
-4.73
-8.39
-11.20
-12.96
-13.97
-14.68
-15.53
-16.59
-17.46
-17.29
-15.07
-10.11
-2.29
7.74
18.78
29.48
38.77
46.06
51.25
54.51
56.10
56.21
54.95
52.45
48.89
44.59
40.00
35.62
31.92
29.19
27.50
26.73
26.58
26.73
26.98
27.21
27.38
27.48
27.43
27.08
26.20
24.59
22.14
18.91
15.18
11.36
7.88
5.01
2.71
0.67
-1.58
-4.51
-8.38
-13.20
-18.74
-24.59
-30.18
-34.81
-37.86
-38.96
-38.23
-36.37
-34.43
-33.45
-34.05
-36.27
-39.74
-44.01
-48.76
-53.76
-58.59
-62.37
-63.84
-61.83
-55.81
-46.49
-35.75
-26.15
-20.10
-19.26
-24.12
-33.95
-46.80
-59.45
-67.55
-66.24
-51.55
-22.15
19.44
66.96
112.13
147.36
168.30
174.84
170.42
159.94
147.63
135.88
125.33
115.73
106.85
98.71
91.29
84.15
76.37
66.94
55.44
42.34
28.93
16.82
7.15
0.17
-4.79
-8.90
-13.31
-18.62
-24.83
-31.42
-37.66
-43.02
-47.33
-50.88
-54.24
-57.92
-62.00
-65.85
-68.19
-67.49
-62.55
-53.13
-40.12
-25.35
-10.99
1.13
9.99
15.45
18.07
18.68
18.03
16.66
14.90
12.99
11.18
9.69
8.75
8.47
8.76
9.43
10.23
11.05
11.86
12.73
13.72
14.75
15.62
16.06
15.85
14.93
13.39
11.42
9.23
6.94
4.64
2.35
0.11
-2.05
-4.09
-5.97
-7.76
-9.65
-11.83
-14.50
-17.69
-21.19
-24.59
-27.46
-29.48
-30.67
-31.35
-32.12
-33.59
-36.23
-40.10
-44.74
-49.23
-52.35
-52.87
-49.92
-43.29
-33.49
-21.65
-9.20
2.48
12.33
19.72
24.46
26.64
26.64
25.02
22.48
19.77
17.53
16.15
15.68
15.91
16.47
16.98
17.24
17.27
17.27
17.51
18.14
19.12
20.22
21.06
21.25
20.51
18.78
16.23
13.24
10.23
7.53
5.21
3.12
0.95
-1.59
-4.57
-7.80
-10.91
-13.51
-15.43
-16.80
-18.11
-19.98
-23.02
-27.62
-33.67
-40.52
-46.97
-51.52
-52.82
-50.03
-43.22
-33.36
-22.02
-10.87
-1.22
6.24
11.37
14.37
15.58
15.28
13.80
11.50
8.86
6.37
4.38
3.10
2.46
2.30
2.41
2.73
3.28
4.19
5.53
7.24
9.09
10.65
11.49
11.28
9.93
7.65
4.83
1.95
-0.65
-2.81
-4.61
-6.29
-8.19
-10.57
-13.56
-17.02
-20.66
-24.03
-26.76
-28.71
-30.07
-31.40
-33.42
-36.75
-41.53
-47.28
-52.84
-56.64
-57.19
-53.53
-45.56
-34.14
-20.81
-7.36
4.65
14.21
21.02
25.33
27.75
28.90
29.28
29.18
28.70
27.88
26.78
25.53
24.32
23.33
22.72
22.55
22.76
23.23
23.79
24.29
24.62
24.75
24.67
24.39
23.83
22.86
21.34
19.22
16.66
13.95
11.40
9.15
7.14
5.05
2.53
-0.68
-4.58
-8.91
-13.31
-17.42
-21.04
-24.19
-27.01
-29.78
-32.77
-36.25
-40.35
-44.95
-49.63
-53.58
-55.76
-55.13
-50.96
-43.13
-32.20
-19.29
-5.84
6.80
17.59
25.94
31.73
35.10
36.44
36.22
34.94
33.12
31.16
29.34
27.81
26.53
25.45
24.49
23.64
22.96
22.54
22.47
22.80
23.43
24.15
24.64
24.53
23.54
21.57
18.76
15.45
11.99
8.71
5.73
3.02
0.45
-2.15
-4.87
-7.73
-10.64
-13.51
-16.21
-18.69
-21.01
-23.40
-26.19
-29.74
-34.15
-39.09
-43.73
-46.86
-47.25
-44.06
-37.14
-27.09
-15.14
-2.70
8.91
18.76
26.38
31.63
34.62
35.62
34.99
33.15
30.59
27.75
25.04
22.74
21.01
19.89
19.31
19.13
19.14
19.20
19.23
19.26
19.37
19.57
19.73
19.58
18.77
17.07
14.50
11.37
8.10
5.10
2.49
0.13
-2.32
-5.20
-8.67
-12.57
-16.52
-20.05
-22.78
-24.67
-25.99
-27.26
-29.05
-31.75
-35.52
-40.21
-45.37
-50.26
-53.92
-55.21
-53.15
-47.22
-37.63
-25.36
-11.95
0.93
11.93
20.31
25.97
29.28
30.80
31.10
30.63
29.72
28.61
27.55
26.70
26.17
25.97
25.97
25.98
25.83
25.46
24.98
24.56
24.32
24.24
24.14
23.71
22.68
20.92
18.46
15.56
12.53
9.73
7.31
5.26
3.32
1.21
-1.28
-4.18
-7.31
-10.44
-13.36
-15.97
-18.28
-20.34
-22.20
-23.94
-25.69
-27.72
-30.34
-33.83
-38.20
-43.11
-47.76
-51.05
-51.85
-49.33
-43.21
-33.92
-22.49
-10.23
1.50
11.64
19.54
24.93
27.89
28.71
27.87
25.93
23.46
20.96
18.82
17.22
16.14
15.44
14.91
14.41
13.93
13.63
13.67
14.18
15.13
16.27
17.24
17.66
17.28
16.06
14.13
11.76
9.27
6.92
4.84
2.98
1.15
-0.89
-3.32
-6.14
-9.21
-12.25
-15.00
-17.37
-19.46
-21.55
-24.08
-27.42
-31.80
-37.07
-42.58
-47.25
-49.75
-48.89
-44.06
-35.47
-24.14
-11.61
0.50
10.93
18.96
24.45
27.63
28.91
28.70
27.37
25.23
22.59
19.79
17.21
15.16
13.84
13.25
13.22
13.52
13.93
14.37
14.89
15.56
16.37
17.18
17.68
17.54
16.54
14.67
12.16
9.31
6.42
3.57
0.76
-2.14
-5.20
-8.39
-11.61
-14.74
-17.65
-20.29
-22.65
-24.79
-26.89
-29.26
-32.28
-36.22
-41.07
-46.30
-50.91
-53.58
-53.11
-48.78
-40.68
-29.67
-17.11
-4.51
6.90
16.35
23.54
28.53
31.53
32.80
32.62
31.33
29.35
27.14
25.06
23.28
21.81
20.55
19.39
18.33
17.52
17.12
17.25
17.87
18.69
19.33
19.40
18.70
17.25
15.29
13.09
10.87
8.75
6.69
4.55
2.16
-0.61
-3.83
-7.46
-11.33
-15.19
-18.71
-21.69
-24.03
-25.91
-27.69
-29.94
-33.15
-37.51
-42.69
-47.77
-51.38
-52.08
-48.87
-41.53
-30.75
-17.95
-4.81
7.15
16.91
23.97
28.35
30.39
30.61
29.59
27.88
25.93
24.05
22.40
21.02
19.89
18.99
18.30
17.85
17.64
17.68
17.89
18.17
18.35
18.24
17.72
16.70
15.17
13.19
10.85
8.22
5.37
2.34
-0.77
-3.92
-7.05
-10.09
-13.05
-15.97
-18.87
-21.85
-25.02
-28.51
-32.42
-36.62
-40.67
-43.76
-44.81
-42.88
-37.43
-28.68
-17.59
-5.62
5.72
15.34
22.71
27.86
31.12
32.80
33.12
32.22
30.25
27.53
24.53
21.72
19.49
18.01
17.24
17.03
17.17
17.52
17.97
18.39
18.67
18.64
18.12
16.96
15.11
12.64
9.72
6.64
3.66
0.93
-1.56
-3.97
-6.51
-9.36
-12.50
-15.72
-18.69
-21.09
-22.79
-23.86
-24.61
-25.49
-26.98
-29.46
-33.10
-37.71
-42.65
-46.89
-49.11
-48.13
-43.31
-34.76
-23.42
-10.76
1.66
12.56
21.20
27.39
31.35
33.50
34.31
34.18
33.41
32.22
30.78
29.28
27.91
26.84
26.14
25.79
25.64
25.53
25.31
24.99
24.62
24.30
24.00
23.64
23.02
21.96
20.33
18.15
15.55
12.74
9.93
7.25
4.76
2.43
0.17
-2.10
-4.44
-6.90
-9.53
-12.30
-15.15
-17.94
-20.52
-22.80
-24.81
-26.77
-28.99
-31.85
-35.59
-40.12
-44.95
-49.15
-51.49
-50.82
-46.38
-38.15
-26.93
-14.20
-1.67
9.15
17.33
22.60
25.27
25.91
25.14
23.48
21.34
19.05
16.89
15.17
14.11
13.78
14.10
14.84
15.73
16.54
17.19
17.69
18.12
18.54
18.90
19.06
18.79
17.87
16.21
13.86
11.09
8.21
5.49
3.03
0.72
-1.65
-4.28
-7.19
-10.23
-13.10
-15.56
-17.52
-19.12
-20.74
-22.83
-25.80
-29.76
-34.45
-39.13
-42.79
-44.34
-42.97
-38.39
-30.89
-21.31
-10.80
-0.61
8.20
14.89
19.16
21.14
21.28
20.28
18.84
17.61
17.04
17.35
18.55
20.42
22.63
24.76
26.42
27.33
27.43
26.87
25.97
25.05
24.36
23.93
23.59
23.04
21.95
20.14
17.61
14.59
11.39
8.31
5.56
3.20
1.22
-0.48
-2.04
-3.61
-5.33
-7.31
-9.57
-12.03
-14.56
-16.96
-19.14
-21.08
-22.95
-25.05
-27.76
-31.36
-35.83
-40.69
-44.93
-47.28
-46.56
-42.14
-34.23
-23.85
-12.52
-1.80
7.15
13.74
17.98
20.24
20.99
20.72
19.80
18.57
17.28
16.15
15.27
14.65
14.26
14.05
13.97
14.04
14.25
14.58
14.93
15.21
15.32
15.25
15.02
14.69
14.27
13.72
13.00
12.10
11.04
9.85
8.54
7.06
5.38
3.50
1.43
-0.78
-3.09
-5.53
-8.11
-10.79
-13.44
-15.91
-18.06
-19.86
-21.40
-22.89
-24.57
-26.65
-29.36
-32.78
-36.75
-40.76
-43.91
-45.13
-43.47
-38.57
-30.76
-21.05
-10.77
-1.15
6.95
13.15
17.46
20.08
21.27
21.29
20.44
19.00
17.28
15.58
14.12
13.07
12.55
12.55
12.99
13.69
14.47
15.19
15.79
16.30
16.71
16.98
16.94
16.35
15.03
12.93
10.22
7.21
4.31
1.77
-0.32
-2.14
-3.98
-6.16
-8.76
-11.65
-14.50
-16.92
-18.70
-19.86
-20.74
-21.85
-23.63
-26.33
-29.86
-33.75
-37.22
-39.36
-39.29
-36.42
-30.63
-22.37
-12.54
-2.30
7.20
15.06
20.76
24.19
25.59
25.34
23.94
21.85
19.48
17.19
15.29
14.00
13.40
13.40
13.78
14.20
14.44
14.38
14.12
13.87
13.76
13.85
13.95
13.80
13.12
11.71
9.58
6.89
4.00
1.30
-0.83
-2.26
-3.10
-3.70
-4.57
-6.08
-8.40
-11.40
-14.69
-17.86
-20.56
-22.67
-24.30
-25.80
-27.63
-30.22
-33.83
-38.31
-43.03
-46.92
-48.71
-47.32
-42.27
-33.84
-23.05
-11.37
-0.27
9.11
16.20
20.93
23.62
24.74
24.75
24.07
22.99
21.77
20.63
19.75
19.23
19.06
19.11
19.18
19.10
18.83
18.46
18.13
17.93
17.78
17.46
16.71
15.37
13.45
11.17
8.78
6.49
4.34
2.28
0.17
-2.11
-4.61
-7.29
-10.06
-12.76
-15.23
-17.34
-19.05
-20.48
-21.93
-23.80
-26.46
-30.02
-34.18
-38.19
-40.94
-41.32
-38.55
-32.50
-23.77
-13.55
-3.23
5.94
13.15
18.11
21.02
22.32
22.53
22.08
21.28
20.30
19.25
18.24
17.40
16.86
16.67
16.84
17.27
17.83
18.40
18.82
19.01
18.85
18.27
17.24
15.75
13.83
11.50
8.77
5.66
2.23
-1.37
-4.97
-8.31
-11.23
-13.64
-15.61
-17.35
-19.22
-21.59
-24.81
-28.99
-33.82
-38.58
-42.18
-43.47
-41.59
-36.30
-28.06
-17.91
-7.17
2.92
11.46
17.98
22.42
24.98
25.99
25.84
24.95
23.64
22.20
20.82
19.61
18.65
17.93
17.42
17.03
16.72
16.50
16.41
16.48
16.66
16.74
16.44
15.52
13.91
11.79
9.48
7.29
5.32
3.48
1.49
-0.90
-3.76
-6.98
-10.28
-13.35
-15.97
-18.06
-19.73
-21.26
-23.12
-25.75
-29.40
-33.96
-38.77
-42.69
-44.41
-42.85
-37.51
-28.81
-17.87
-6.29
4.38
13.00
19.10
22.83
24.70
25.36
25.31
24.90
24.27
23.53
22.77
22.10
21.58
21.21
20.91
20.60
20.24
19.87
19.58
19.48
19.57
19.76
19.81
19.44
18.39
16.54
13.97
10.94
7.81
4.89
2.37
0.26
-1.59
-3.36
-5.24
-7.33
-9.60
-11.93
-14.15
-16.11
-17.72
-19.06
-20.39
-22.12
-24.62
-28.12
-32.40
-36.79
-40.24
-41.59
-39.93
-34.94
-27.04
-17.24
-6.87
2.82
10.94
17.10
21.26
23.63
24.51
24.15
22.90
21.15
19.30
17.75
16.70
16.17
16.03
16.07
16.12
16.18
16.29
16.56
16.97
17.38
17.49
17.00
15.76
13.78
11.32
8.74
6.34
4.20
2.23
0.18
-2.17
-4.86
-7.76
-10.61
-13.18
-15.35
-17.14
-18.70
-20.23
-21.97
-24.20
-27.14
-30.79
-34.74
-38.13
-39.78
-38.62
-34.09
-26.44
-16.68
-6.24
3.53
11.65
17.72
21.75
23.96
24.65
24.17
22.84
21.05
19.21
17.64
16.53
15.91
15.66
15.58
15.45
15.16
14.69
14.16
13.77
13.63
13.68
13.66
13.21
12.04
10.13
7.74
5.32
3.26
1.65
0.28
-1.27
-3.40
-6.23
-9.53
-12.88
-15.84
-18.12
-19.70
-20.79
-21.74
-22.90
-24.66
-27.26
-30.75
-34.78
-38.59
-41.11
-41.24
-38.30
-32.23
-23.67
-13.77
-3.83
5.04
12.09
17.01
19.82
20.82
20.48
19.34
17.88
16.45
15.21
14.15
13.22
12.45
11.90
11.68
11.84
12.28
12.83
13.24
13.38
13.20
12.74
12.07
11.23
10.23
9.00
7.49
5.63
3.38
0.77
-2.07
-4.92
-7.55
-9.73
-11.40
-12.68
-13.83
-15.24
-17.24
-20.07
-23.70
-27.81
-31.66
-34.31
-34.73
-32.21
-26.64
-18.53
-9.02
0.55
8.96
15.43
19.75
22.13
23.04
22.91
22.01
20.52
18.55
16.31
14.15
12.42
11.41
11.21
11.66
12.46
13.27
13.86
14.10
14.00
13.61
12.94
11.97
10.64
8.84
6.53
3.68
0.44
-2.99
-6.33
-9.34
-11.92
-14.16
-16.26
-18.47
-21.03
-24.07
-27.60
-31.40
-35.01
-37.71
-38.66
-37.12
-32.70
-25.62
-16.64
-6.95
2.22
9.90
15.57
19.20
21.08
21.64
21.31
20.40
19.12
17.69
16.28
15.09
14.29
13.94
13.97
14.23
14.54
14.75
14.80
14.65
14.33
13.86
13.19
12.28
11.03
9.39
7.33
4.91
2.24
-0.56
-3.38
-6.16
-8.90
-11.63
-14.33
-16.93
-19.33
-21.45
-23.35
-25.26
-27.58
-30.64
-34.47
-38.59
-42.02
-43.49
-41.89
-36.69
-28.25
-17.71
-6.63
3.49
11.67
17.55
21.30
23.38
24.21
24.12
23.33
22.05
20.59
19.25
18.31
17.83
17.68
17.63
17.46
17.16
16.85
16.71
16.84
17.14
17.38
17.31
16.77
15.75
14.33
12.59
10.57
8.21
5.53
2.55
-0.61
-3.76
-6.73
-9.40
-11.73
-13.72
-15.45
-17.01
-18.60
-20.48
-22.95
-26.16
-29.95
-33.75
-36.57
-37.30
-35.05
-29.55
-21.26
-11.24
-0.87
8.56
16.19
21.60
24.85
26.27
26.29
25.39
23.95
22.27
20.57
19.02
17.74
16.80
16.23
15.96
15.88
15.80
15.64
15.34
14.91
14.39
13.76
13.00
11.99
10.66
8.88
6.59
3.80
0.63
-2.72
-5.97
-8.87
-11.33
-13.43
-15.42
-17.63
-20.37
-23.80
-27.81
-32.03
-35.78
-38.19
-38.35
-35.62
-29.83
-21.44
-11.46
-1.17
8.21
15.84
21.38
24.87
26.63
27.04
26.45
25.21
23.61
21.91
20.37
19.11
18.21
17.63
17.28
17.01
16.69
16.21
15.50
14.62
13.65
12.69
11.72
10.64
9.17
7.05
4.10
0.36
-3.90
-8.26
-12.28
-15.67
-18.35
-20.50
-22.46
-24.63
-27.38
-30.93
-35.31
-40.16
-44.73
-47.92
-48.52
-45.61
-38.96
-29.22
-17.80
-6.44
3.35
10.74
15.65
18.53
20.00
20.45
20.05
18.84
16.93
14.66
12.48
10.80
9.81
9.43
9.36
9.29
8.98
8.39
7.59
6.72
5.90
5.15
4.39
3.48
2.23
0.52
-1.62
-4.02
-6.40
-8.50
-10.11
-11.18
-11.80
-12.18
-12.67
-13.73
-15.78
-19.08
-23.46
-28.27
-32.38
-34.56
-33.84
-29.86
-22.91
-13.93
-4.08
5.50
13.96
20.74
25.59
28.48
29.53
29.06
27.53
25.50
23.49
21.87
20.79
20.15
19.77
19.43
19.04
18.61
18.24
18.01
17.93
17.89
17.69
17.08
15.86
13.82
10.92
7.22
2.98
-1.45
-5.67
-9.40
-12.56
-15.26
-17.82
-20.63
-24.05
-28.19
-32.81
-37.25
-40.46
-41.27
-38.77
-32.65
-23.40
-12.23
-0.70
9.77
18.22
24.32
28.22
30.29
30.92
30.40
28.98
26.93
24.62
22.46
20.77
19.70
19.18
18.99
18.84
18.53
17.99
17.26
16.51
15.87
15.40
15.08
14.72
14.05
12.80
10.77
7.96
4.54
0.83
-2.86
-6.29
-9.38
-12.16
-14.79
-17.47
-20.41
-23.83
-27.89
-32.50
-37.27
-41.40
-43.89
-43.74
-40.36
-33.78
-24.68
-14.25
-3.81
5.50
12.95
18.25
21.48
22.95
23.03
22.12
20.57
18.74
16.89
15.22
13.82
12.70
11.81
11.05
10.36
9.69
8.99
8.27
7.53
6.77
5.98
5.14
4.20
3.10
1.76
0.14
-1.81
-4.05
-6.42
-8.68
-10.54
-11.80
-12.48
-12.82
-13.24
-14.21
-16.05
-18.87
-22.45
-26.29
-29.60
-31.45
-30.92
-27.43
-20.97
-12.16
-2.15
7.75
16.41
23.19
27.94
30.86
32.25
32.35
31.34
29.38
26.76
23.90
21.22
19.10
17.70
16.97
16.72
16.74
16.85
16.97
17.10
17.23
17.29
17.17
16.70
15.73
14.16
11.95
9.15
5.88
2.28
-1.42
-5.03
-8.36
-11.35
-14.06
-16.72
-19.62
-23.07
-27.11
-31.42
-35.25
-37.52
-37.23
-33.78
-27.28
-18.60
-9.08
-0.09
7.34
12.81
16.45
18.68
19.96
20.57
20.57
19.93
18.70
17.07
15.35
13.84
12.72
12.00
11.55
11.23
10.99
10.79
10.61
10.37
9.87
8.97
7.60
5.85
3.90
1.90
-0.15
-2.38
-4.94
-7.87
-11.07
-14.24
-17.07
-19.35
-21.07
-22.42
-23.76
-25.52
-28.02
-31.39
-35.41
-39.47
-42.67
-44.02
-42.71
-38.41
-31.43
-22.59
-13.05
-3.91
3.97
10.12
14.41
16.98
18.06
17.96
17.01
15.52
13.78
12.04
10.42
9.01
7.79
6.74
5.86
5.17
4.72
4.55
4.63
4.85
5.02
5.00
4.75
4.32
3.84
3.41
2.96
2.31
1.19
-0.56
-2.95
-5.75
-8.66
-11.39
-13.75
-15.72
-17.44
-19.09
-20.91
-23.15
-25.95
-29.27
-32.69
-35.52
-36.81
-35.68
-31.66
-24.89
-16.17
-6.69
2.30
9.87
15.52
19.23
21.20
21.72
21.06
19.49
17.33
14.97
12.82
11.25
10.43
10.36
10.87
11.71
12.63
13.43
13.97
14.21
14.16
13.84
13.27
12.44
11.38
10.06
8.55
6.90
5.15
3.34
1.51
-0.34
-2.17
-3.96
-5.74
-7.62
-9.79
-12.45
-15.76
-19.75
-24.19
-28.58
-32.12
-33.82
-32.84
-28.74
-21.75
-12.74
-3.02
6.06
13.51
18.90
22.28
24.06
24.65
24.43
23.60
22.33
20.78
19.13
17.66
16.53
15.86
15.60
15.58
15.59
15.45
15.08
14.57
14.03
13.52
13.00
12.28
11.14
9.49
7.44
5.26
3.27
1.61
0.23
-1.16
-2.85
-5.07
-7.80
-10.83
-13.84
-16.51
-18.66
-20.27
-21.54
-22.79
-24.39
-26.67
-29.67
-33.12
-36.33
-38.35
-38.28
-35.50
-29.97
-22.23
-13.24
-4.12
4.11
10.76
15.49
18.28
19.32
18.92
17.54
15.63
13.69
12.11
11.10
10.66
10.59
10.59
10.43
10.04
9.55
9.21
9.25
9.73
10.51
11.32
11.80
11.74
11.05
9.85
8.33
6.67
4.96
3.15
1.10
-1.31
-4.07
-7.04
-9.93
-12.48
-14.50
-16.02
-17.23
-18.49
-20.19
-22.67
-26.03
-29.96
-33.75
-36.34
-36.66
-33.95
-28.09
-19.73
-10.05
-0.44
7.91
14.27
18.43
20.63
21.28
20.87
19.76
18.24
16.50
14.72
13.10
11.83
11.00
10.59
10.41
10.23
9.90
9.40
8.89
8.56
8.47
8.47
8.23
7.40
5.75
3.33
0.40
-2.65
-5.47
-7.87
-9.90
-11.73
-13.64
-15.91
-18.78
-22.30
-26.28
-30.22
-33.29
-34.60
-33.36
-29.26
-22.54
-14.01
-4.79
4.00
11.46
17.12
20.85
22.82
23.27
22.47
20.69
18.28
15.58
13.02
10.91
9.39
8.40
7.76
7.24
6.72
6.24
5.91
5.82
5.97
6.17
6.12
5.46
3.95
1.50
-1.72
-5.34
-8.91
-12.04
-14.57
-16.63
-18.64
-21.13
-24.56
-28.97
-33.93
-38.49
-41.46
-41.73
-38.69
-32.42
-23.70
-13.74
-3.78
5.18
12.56
18.15
22.00
24.24
25.07
24.71
23.47
21.75
19.94
18.37
17.18
16.39
15.86
15.43
14.95
14.40
13.79
13.17
12.60
12.05
11.44
10.60
9.33
7.47
4.93
1.71
-2.02
-5.99
-9.91
-13.50
-16.67
-19.52
-22.37
-25.65
-29.72
-34.60
-39.82
-44.39
-47.05
-46.61
-42.44
-34.69
-24.32
-12.80
-1.64
8.02
15.56
20.89
24.20
25.84
26.10
25.30
23.78
22.00
20.36
19.18
18.53
18.22
17.97
17.47
16.64
15.60
14.68
14.20
14.36
15.00
15.72
15.97
15.26
13.37
10.38
6.62
2.53
-1.51
-5.27
-8.67
-11.82
-14.98
-18.47
-22.55
-27.21
-31.94
-35.76
-37.44
-35.89
-30.63
-22.04
-11.27
0.13
10.70
19.42
25.86
30.02
32.18
32.66
31.72
29.61
26.64
23.23
19.88
17.12
15.31
14.49
14.46
14.76
14.94
14.73
14.09
13.24
12.43
11.79
11.20
10.34
8.77
6.23
2.70
-1.49
-5.84
-9.85
-13.22
-15.94
-18.29
-20.66
-23.48
-27.09
-31.57
-36.77
-42.10
-46.62
-49.13
-48.45
-43.88
-35.43
-24.02
-11.17
1.39
12.24
20.58
26.25
29.59
31.13
31.36
30.66
29.31
27.58
25.76
24.12
22.80
21.83
21.03
20.20
19.21
18.06
16.87
15.82
15.01
14.41
13.84
13.03
11.71
9.70
6.92
3.43
-0.54
-4.70
-8.68
-12.18
-15.06
-17.42
-19.57
-22.00
-25.22
-29.52
-34.82
-40.49
-45.38
-48.13
-47.49
-42.85
-34.43
-23.27
-10.93
0.99
11.27
19.29
24.93
28.43
30.13
30.35
29.38
27.57
25.31
23.01
21.04
19.58
18.64
18.05
17.63
17.24
16.85
16.56
16.46
16.62
16.93
17.15
16.93
15.95
14.01
11.16
7.66
3.94
0.42
-2.61
-5.06
-7.13
-9.21
-11.81
-15.40
-20.19
-25.96
-31.94
-36.87
-39.34
-38.19
-32.95
-24.10
-12.87
-0.91
10.25
19.53
26.51
31.25
34.09
35.42
35.53
34.66
32.99
30.75
28.17
25.54
23.09
21.01
19.42
18.30
17.58
17.12
16.79
16.49
16.18
15.84
15.35
14.55
13.23
11.21
8.41
4.90
0.88
-3.34
-7.44
-11.12
-14.21
-16.68
-18.74
-20.70
-23.00
-26.05
-30.07
-35.02
-40.42
-45.38
-48.68
-49.08
-45.71
-38.39
-27.86
-15.56
-3.24
7.57
15.97
21.77
25.34
27.21
27.89
27.68
26.79
25.43
23.83
22.28
20.96
19.93
19.07
18.21
17.26
16.26
15.37
14.75
14.42
14.18
13.71
12.69
11.00
8.75
6.21
3.63
1.07
-1.56
-4.42
-7.60
-10.97
-14.25
-17.17
-19.61
-21.62
-23.40
-25.24
-27.42
-30.17
-33.59
-37.51
-41.38
-44.27
-45.02
-42.65
-36.72
-27.64
-16.48
-4.74
6.19
15.28
22.06
26.47
28.76
29.27
28.38
26.52
24.08
21.44
18.87
16.60
14.79
13.54
12.90
12.85
13.24
13.82
14.34
14.56
14.38
13.81
12.92
11.77
10.34
8.56
6.37
3.72
0.71
-2.45
-5.54
-8.34
-10.74
-12.75
-14.52
-16.31
-18.42
-21.16
-24.68
-28.90
-33.33
-37.09
-39.07
-38.22
-33.93
-26.31
-16.18
-4.89
6.05
15.43
22.54
27.26
29.86
30.79
30.46
29.21
27.24
24.78
22.05
19.37
17.04
15.31
14.28
13.92
14.11
14.63
15.24
15.67
15.63
14.93
13.49
11.46
9.07
6.61
4.25
1.98
-0.36
-3.01
-6.09
-9.56
-13.18
-16.61
-19.53
-21.79
-23.42
-24.72
-26.13
-28.14
-31.07
-34.91
-39.13
-42.78
-44.65
-43.66
-39.25
-31.63
-21.71
-10.85
-0.48
8.34
15.00
19.42
21.79
22.47
21.83
20.20
17.92
15.32
12.69
10.28
8.21
6.51
5.16
4.09
3.27
2.68
2.32
2.21
2.38
2.82
3.47
4.12
4.43
4.02
2.65
0.34
-2.61
-5.67
-8.40
-10.57
-12.29
-13.86
-15.67
-18.00
-20.97
-24.55
-28.54
-32.56
-35.95
-37.86
-37.36
-33.86
-27.28
-18.27
-7.98
2.22
11.17
18.14
22.92
25.65
26.68
26.33
24.91
22.72
20.12
17.55
15.43
14.02
13.39
13.31
13.42
13.36
12.98
12.37
11.81
11.56
11.70
12.02
12.05
11.31
9.48
6.59
3.03
-0.66
-3.94
-6.54
-8.49
-10.12
-11.92
-14.32
-17.63
-21.83
-26.54
-30.99
-34.20
-35.15
-33.12
-27.93
-20.09
-10.61
-0.79
8.19
15.52
20.85
24.21
25.89
26.18
25.34
23.59
21.17
18.43
15.74
13.48
11.85
10.82
10.19
9.64
8.99
8.20
7.42
6.84
6.55
6.47
6.36
5.88
4.77
2.90
0.33
-2.67
-5.78
-8.66
-11.10
-13.05
-14.61
-15.99
-17.42
-19.14
-21.35
-24.25
-27.83
-31.78
-35.36
-37.50
-37.10
-33.43
-26.49
-17.07
-6.51
3.75
12.61
19.51
24.37
27.42
28.88
28.97
27.83
25.75
23.10
20.37
17.98
16.17
14.92
14.03
13.22
12.29
11.20
9.97
8.72
7.45
6.13
4.66
2.98
1.06
-1.02
-3.20
-5.43
-7.71
-10.05
-12.47
-14.88
-17.17
-19.21
-20.92
-22.35
-23.64
-25.04
-26.81
-29.22
-32.30
-35.83
-39.21
-41.46
-41.55
-38.64
-32.50
-23.61
-13.10
-2.38
7.24
14.94
20.45
23.98
25.98
26.90
27.11
26.85
26.29
25.56
24.75
23.98
23.31
22.81
22.51
22.39
22.37
22.36
22.25
21.97
21.47
20.71
19.69
18.37
16.67
14.55
11.98
9.00
5.71
2.30
-1.05
-4.16
-6.94
-9.39
-11.62
-13.74
-15.92
-18.29
-20.96
-24.01
-27.44
-31.06
-34.45
-36.91
-37.63
-35.87
-31.27
-24.06
-15.01
-5.27
3.96
11.74
17.61
21.57
23.93
25.15
25.62
25.53
24.97
24.02
22.81
21.59
20.62
20.06
19.92
20.04
20.16
20.10
19.82
19.42
19.01
18.70
18.43
18.10
17.54
16.60
15.22
13.42
11.31
9.05
6.82
4.76
2.90
1.15
-0.62
-2.52
-4.57
-6.73
-8.92
-11.12
-13.33
-15.58
-17.81
-19.87
-21.61
-22.94
-23.98
-25.05
-26.55
-28.87
-32.11
-35.95
-39.61
-42.04
-42.17
-39.32
-33.43
-25.18
-15.76
-6.49
1.51
7.69
11.97
14.68
16.20
16.86
16.84
16.21
15.10
13.75
12.47
11.57
11.22
11.39
11.88
12.48
13.04
13.55
14.09
14.72
15.39
15.93
16.15
15.90
15.20
14.14
12.82
11.33
9.65
7.75
5.67
3.48
1.38
-0.48
-2.01
-3.27
-4.42
-5.69
-7.20
-8.94
-10.78
-12.53
-14.04
-15.27
-16.33
-17.40
-18.65
-20.27
-22.37
-25.01
-28.11
-31.34
-34.06
-35.36
-34.35
-30.45
-23.72
-14.87
-5.12
4.23
12.16
18.14
22.09
24.25
24.95
24.53
23.29
21.53
19.57
17.71
16.21
15.21
14.75
14.73
15.01
15.46
15.94
16.36
16.66
16.81
16.80
16.56
16.04
15.18
13.93
12.35
10.50
8.49
6.42
4.36
2.36
0.50
-1.23
-2.86
-4.49
-6.26
-8.25
-10.49
-12.85
-15.12
-17.10
-18.69
-19.98
-21.18
-22.61
-24.58
-27.28
-30.72
-34.70
-38.68
-41.91
-43.47
-42.53
-38.62
-31.84
-22.89
-12.91
-3.13
5.45
12.27
17.21
20.47
22.37
23.18
23.14
22.51
21.57
20.60
19.81
19.26
18.88
18.52
18.12
17.69
17.40
17.37
17.68
18.25
18.90
19.36
19.37
18.78
17.55
15.80
13.75
11.66
9.75
8.09
6.64
5.21
3.65
1.86
-0.14
-2.27
-4.36
-6.32
-8.12
-9.83
-11.60
-13.57
-15.80
-18.24
-20.71
-22.97
-24.85
-26.31
-27.52
-28.85
-30.72
-33.46
-37.07
-41.09
-44.57
-46.33
-45.31
-40.97
-33.51
-23.84
-13.26
-3.09
5.74
12.72
17.75
20.97
22.57
22.77
21.88
20.25
18.33
16.50
15.10
14.28
14.05
14.31
14.93
15.77
16.71
17.66
18.52
19.20
19.65
19.84
19.79
19.47
18.83
17.76
16.12
13.85
11.02
7.91
4.85
2.16
-0.00
-1.74
-3.39
-5.27
-7.61
-10.36
-13.29
-16.04
-18.31
-19.98
-21.16
-22.12
-23.18
-24.65
-26.75
-29.53
-32.80
-36.06
-38.54
-39.36
-37.72
-33.23
-26.02
-16.78
-6.59
3.34
11.97
18.61
22.99
25.23
25.66
24.74
22.94
20.69
18.38
16.30
14.66
13.54
12.93
12.75
12.89
13.24
13.75
14.39
15.07
15.65
15.93
15.70
14.79
13.19
10.99
8.43
5.81
3.35
1.18
-0.81
-2.83
-5.18
-8.05
-11.43
-15.07
-18.58
-21.59
-23.89
-25.57
-26.97
-28.65
-31.11
-34.60
-38.90
-43.32
-46.72
-47.85
-45.75
-40.11
-31.35
-20.56
-9.19
1.42
10.31
17.05
21.69
24.59
26.14
26.71
26.54
25.83
24.75
23.55
22.47
21.74
21.46
21.58
21.94
22.34
22.64
22.80
22.90
23.04
23.26
23.44
23.37
22.77
21.42
19.30
16.57
13.50
10.43
7.57
5.00
2.67
0.41
-1.94
-4.47
-7.21
-10.10
-13.02
-15.83
-18.45
-20.81
-22.95
-24.97
-27.13
-29.75
-33.17
-37.58
-42.72
-47.87
-51.84
-53.34
-51.35
-45.52
-36.30
-24.78
-12.39
-0.49
9.89
18.18
24.20
28.07
30.12
30.73
30.33
29.29
27.89
26.32
24.73
23.24
21.98
21.05
20.51
20.38
20.59
21.07
21.73
22.50
23.25
23.79
23.87
23.26
21.85
19.66
16.89
13.79
10.65
7.67
4.96
2.54
0.35
-1.75
-3.93
-6.35
-9.12
-12.20
-15.45
-18.66
-21.60
-24.11
-26.19
-28.00
-29.85
-32.13
-35.21
-39.22
-43.85
-48.30
-51.40
-51.91
-48.86
-41.97
-31.77
-19.45
-6.60
5.26
14.96
21.94
26.20
28.15
28.34
27.33
25.53
23.28
20.85
18.53
16.59
15.29
14.76
14.97
15.73
16.75
17.72
18.44
18.84
18.95
18.85
18.59
18.09
17.16
15.57
13.15
9.88
5.96
1.71
-2.49
-6.36
-9.76
-12.75
-15.48
-18.17
-21.07
-24.41
-28.39
-33.05
-38.11
-42.90
-46.33
-47.12
-44.27
-37.44
-27.19
-14.86
-2.19
9.27
18.54
25.31
29.80
32.42
33.50
33.23
31.75
29.29
26.27
23.20
20.53
18.54
17.23
16.50
16.18
16.22
16.55
17.11
17.69
17.99
17.75
16.80
15.19
13.11
10.75
8.22
5.51
2.58
-0.61
-3.96
-7.36
-10.66
-13.77
-16.67
-19.38
-21.96
-24.59
-27.59
-31.32
-35.99
-41.42
-46.85
-51.03
-52.49
-50.10
-43.44
-33.04
-20.21
-6.63
6.12
16.86
25.02
30.50
33.63
34.86
34.72
33.74
32.35
30.88
29.57
28.52
27.73
27.11
26.55
26.00
25.46
25.04
24.82
24.82
24.93
24.92
24.50
23.46
21.72
19.38
16.62
13.68
10.66
7.61
4.42
0.89
-3.09
-7.57
-12.35
-17.12
-21.46
-25.09
-27.96
-30.33
-32.65
-35.46
-39.16
-43.81
-48.95
-53.59
-56.41
-56.11
-51.84
-43.55
-32.09
-18.94
-5.86
5.69
14.78
21.12
24.93
26.74
27.08
26.49
25.35
23.96
22.52
21.11
19.84
18.74
17.88
17.31
17.08
17.19
17.59
18.17
18.78
19.21
19.28
18.85
17.84
16.29
14.28
11.97
9.45
6.81
4.11
1.36
-1.40
-4.13
-6.80
-9.39
-11.90
-14.36
-16.93
-19.82
-23.29
-27.49
-32.30
-37.13
-40.96
-42.53
-40.79
-35.28
-26.39
-15.25
-3.46
7.47
16.46
23.02
27.21
29.40
30.07
29.65
28.53
27.02
25.39
23.88
22.63
21.69
21.02
20.50
20.03
19.56
19.14
18.84
18.78
18.98
19.33
19.54
19.25
18.13
16.02
13.03
9.51
5.96
2.86
0.46
-1.27
-2.64
-4.09
-6.01
-8.56
-11.61
-14.81
-17.75
-20.14
-21.94
-23.38
-24.86
-26.84
-29.70
-33.59
-38.27
-43.00
-46.68
-48.01
-45.95
-40.07
-30.82
-19.42
-7.55
3.23
11.88
18.06
22.06
24.43
25.71
26.22
26.12
25.50
24.52
23.44
22.52
21.92
21.60
21.39
21.10
20.67
20.15
19.66
19.30
19.06
18.80
18.41
17.80
16.93
15.81
14.40
12.61
10.38
7.74
4.84
1.98
-0.55
-2.61
-4.25
-5.75
-7.46
-9.61
-12.22
-15.06
-17.80
-20.17
-22.07
-23.57
-24.88
-26.25
-27.92
-30.10
-32.96
-36.50
-40.44
-44.10
-46.45
-46.43
-43.27
-36.82
-27.66
-16.96
-6.12
3.63
11.47
17.07
20.57
22.33
22.79
22.36
21.36
20.03
18.59
17.22
16.16
15.55
15.44
15.78
16.40
17.07
17.61
17.94
18.13
18.28
18.49
18.73
18.89
18.74
18.06
16.74
14.75
12.26
9.50
6.76
4.24
1.99
-0.11
-2.25
-4.62
-7.29
-10.12
-12.87
-15.30
-17.35
-19.11
-20.86
-22.89
-25.45
-28.67
-32.48
-36.59
-40.43
-43.17
-43.86
-41.71
-36.40
-28.25
-18.24
-7.65
2.19
10.39
16.53
20.66
23.14
24.33
24.60
24.19
23.29
22.06
20.68
19.26
17.95
16.87
16.16
15.91
16.19
16.92
17.92
18.96
19.74
20.10
19.96
19.33
18.31
16.94
15.29
13.38
11.22
8.83
6.28
3.62
0.94
-1.67
-4.11
-6.35
-8.42
-10.43
-12.49
-14.64
-16.83
-18.90
-20.67
-22.10
-23.34
-24.72
-26.66
-29.55
-33.52
-38.38
-43.52
-47.93
-50.46
-50.03
-46.02
-38.47
-28.13
-16.30
-4.51
5.93
14.13
19.79
23.08
24.44
24.47
23.67
22.46
21.14
19.88
18.81
17.97
17.40
17.05
16.86
16.73
16.60
16.47
16.40
16.41
16.51
16.60
16.50
16.02
14.96
13.29
11.11
8.64
6.19
3.92
1.86
-0.19
-2.48
-5.23
-8.43
-11.86
-15.13
-17.84
-19.81
-21.15
-22.25
-23.68
-25.97
-29.38
-33.74
-38.33
-42.03
-43.61
-42.09
-37.13
-29.10
-19.01
-8.16
2.14
10.90
17.54
21.89
24.07
24.45
23.49
21.72
19.58
17.41
15.42
13.71
12.33
11.31
10.75
10.69
11.12
11.92
12.90
13.80
14.41
14.56
14.11
13.00
11.08
8.27
4.60
0.29
-4.25
-8.49
-12.01
-14.67
-16.64
-18.45
-20.71
-23.97
-28.40
-33.70
-38.97
-42.95
-44.38
-42.34
-36.66
-27.96
-17.43
-6.48
3.65
12.20
18.84
23.57
26.55
27.97
28.04
27.05
25.34
23.31
21.37
19.79
18.71
18.02
17.50
16.89
16.06
15.08
14.19
13.62
13.46
13.49
13.27
12.30
10.25
7.10
3.13
-1.15
-5.26
-8.86
-11.86
-14.41
-16.86
-19.63
-23.10
-27.42
-32.39
-37.35
-41.30
-43.10
-41.78
-36.96
-28.96
-18.75
-7.73
2.72
11.59
18.32
22.91
25.65
26.92
27.11
26.52
25.35
23.84
22.20
20.59
19.17
17.94
16.90
15.98
15.17
14.44
13.79
13.11
12.24
10.96
9.10
6.59
3.53
0.12
-3.40
-6.84
-10.21
-13.64
-17.39
-21.69
-26.53
-31.58
-36.13
-39.14
-39.60
-36.79
-30.58
-21.49
-10.63
0.63
10.99
19.46
25.57
29.30
30.99
31.13
30.26
28.84
27.20
25.57
24.01
22.51
20.98
19.33
17.55
15.72
14.01
12.66
11.78
11.30
10.94
10.29
8.97
6.77
3.75
0.15
-3.64
-7.24
-10.39
-13.03
-15.34
-17.73
-20.72
-24.72
-29.73
-35.15
-39.83
-42.33
-41.37
-36.39
-27.75
-16.67
-4.81
6.25
15.40
22.22
26.81
29.55
30.84
31.03
30.37
29.12
27.50
25.80
24.21
22.86
21.81
21.08
20.67
20.57
20.71
21.00
21.30
21.47
21.41
21.06
20.37
19.37
18.03
16.39
14.47
12.34
10.05
7.67
5.29
3.00
0.88
-1.01
-2.71
-4.35
-6.15
-8.29
-10.84
-13.67
-16.54
-19.12
-21.19
-22.70
-23.80
-24.80
-26.08
-27.98
-30.71
-34.29
-38.43
-42.40
-45.16
-45.46
-42.29
-35.27
-24.94
-12.68
-0.31
10.45
18.57
23.78
26.52
27.49
27.31
26.32
24.68
22.60
20.41
18.53
17.36
17.02
17.32
17.88
18.33
18.49
18.49
18.60
19.08
19.91
20.81
21.30
20.91
19.48
17.14
14.33
11.59
9.31
7.61
6.33
5.15
3.74
1.95
-0.23
-2.59
-4.85
-6.83
-8.43
-9.76
-11.02
-12.40
-14.02
-15.87
-17.84
-19.79
-21.64
-23.32
-24.84
-26.25
-27.67
-29.34
-31.62
-34.77
-38.84
-43.35
-47.31
-49.39
-48.34
-43.53
-35.15
-24.30
-12.55
-1.48
7.77
14.69
19.32
22.01
23.16
23.18
22.40
21.18
19.83
18.60
17.62
16.88
16.31
15.81
15.41
15.17
15.18
15.42
15.80
16.11
16.17
15.83
15.09
14.00
12.69
11.24
9.72
8.13
6.50
4.80
3.03
1.20
-0.70
-2.62
-4.48
-6.21
-7.80
-9.33
-10.96
-12.82
-14.93
-17.14
-19.20
-20.90
-22.19
-23.22
-24.24
-25.50
-27.20
-29.47
-32.32
-35.62
-38.94
-41.58
-42.53
-40.89
-36.12
-28.38
-18.55
-7.94
2.10
10.58
17.00
21.35
23.83
24.72
24.29
22.78
20.52
17.84
15.19
12.92
11.24
10.19
9.67
9.51
9.62
10.01
10.73
11.80
13.07
14.26
14.99
14.99
14.15
12.62
10.66
8.53
6.42
4.36
2.27
0.03
-2.44
-5.13
-7.93
