1653569960.00
64.000000
-0.00
-0.00
-0.00
-0.00
-0.00
-0.00
-0.00
-0.00
-0.00
-0.00
0.00
0.01
0.01
-0.00
-0.03
-0.05
-0.05
0.00
0.13
0.36
0.66
1.01
1.37
1.72
2.06
2.40
2.79
3.24
3.80
4.42
5.06
5.66
6.20
6.68
7.15
7.68
8.31
9.14
10.09
11.04
11.89
12.57
13.14
13.75
14.64
15.96
17.93
20.35
22.96
25.44
27.59
29.47
31.40
33.84
37.15
41.74
47.26
53.19
58.90
63.99
68.50
72.90
77.93
84.13
92.10
101.34
111.00
120.14
128.09
134.83
140.99
147.99
154.63
163.29
174.58
188.52
203.71
217.03
224.01
220.04
201.94
169.15
124.33
71.39
14.49
-43.53
-101.58
-159.67
-217.89
-275.55
-331.20
-382.85
-429.38
-470.38
-505.93
-535.91
-559.42
-574.63
-579.18
-571.12
-549.46
-515.08
-470.36
-418.59
-363.24
-307.34
-253.25
-202.58
-155.97
-112.77
-71.23
-28.79
16.82
66.27
117.93
168.15
212.51
247.51
271.71
285.77
291.64
291.37
286.29
277.11
264.39
249.11
232.73
216.78
202.21
189.12
176.83
164.31
150.87
136.46
121.67
107.46
94.71
83.85
74.82
67.12
60.09
53.16
46.04
38.80
31.80
25.60
20.47
16.39
13.07
10.05
6.99
3.77
0.56
-2.32
-4.58
-6.14
-7.10
-7.67
-8.06
-8.39
-8.67
-8.86
-8.93
-8.86
-8.68
-8.37
-7.94
-7.42
-6.84
-6.27
-5.79
-5.44
-5.24
-5.25
-5.49
-5.92
-6.38
-6.56
-6.17
-5.04
-3.35
-1.52
-0.13
0.44
0.12
-0.77
-1.82
-2.65
-3.14
-3.40
-3.56
-3.71
-3.78
-3.65
-3.29
-2.81
-2.43
-2.34
-2.61
-3.10
-3.54
-3.66
-3.32
-2.58
-1.67
-0.85
-0.29
-0.03
0.05
0.09
0.22
0.44
0.66
0.79
0.76
0.62
0.48
0.48
0.71
1.15
1.70
2.27
2.78
3.18
3.51
3.80
4.07
4.29
4.39
4.34
4.17
3.95
3.75
3.64
3.58
3.45
3.05
2.29
1.11
-0.37
-1.86
-3.09
-3.85
-4.10
-3.92
-3.48
-2.94
-2.44
-2.07
-1.91
-1.98
-2.26
-2.66
-3.07
-3.41
-3.66
-3.89
-4.19
-4.59
-5.06
-5.49
-5.75
-5.78
-5.59
-5.24
-4.82
-4.41
-4.01
-3.62
-3.24
-2.87
-2.53
-2.25
-2.02
-1.80
-1.55
-1.24
-0.90
-0.59
-0.42
-0.46
-0.70
-1.07
-1.44
-1.70
-1.80
-1.72
-1.51
-1.25
-0.99
-0.77
-0.62
-0.59
-0.69
-0.91
-1.23
-1.56
-1.85
-2.06
-2.18
-2.25
-2.24
-2.16
-2.01
-1.81
-1.59
-1.36
-1.18
-1.05
-0.96
-0.84
-0.66
-0.38
0.02
0.52
1.13
1.82
2.55
3.26
3.85
4.20
4.25
4.03
3.65
3.30
3.14
3.27
3.61
3.99
4.22
4.16
3.82
3.35
2.97
2.85
3.00
3.31
3.56
3.59
3.37
2.98
2.58
2.26
2.03
1.77
1.35
0.67
-0.25
-1.33
-2.40
-3.34
-4.07
-4.59
-4.95
-5.26
-5.62
-6.10
-6.76
-7.57
-8.45
-9.28
-9.99
-10.54
-11.02
-11.59
-12.41
-13.56
-14.99
-16.50
-17.79
-18.56
-18.62
-17.91
-16.49
-14.50
-12.09
-9.44
-6.75
-4.22
-2.00
-0.22
1.10
1.99
2.52
2.73
2.64
2.26
1.64
0.90
0.19
-0.31
-0.49
-0.31
0.20
1.01
2.10
3.42
4.89
6.40
7.82
9.03
10.05
10.93
11.82
12.84
14.07
15.51
17.09
18.72
20.25
21.56
22.49
22.95
22.91
22.44
21.68
20.76
19.74
18.61
17.30
15.74
13.92
11.88
9.68
7.40
5.12
2.93
0.95
-0.74
-2.08
-3.08
-3.79
-4.32
-4.73
-5.10
-5.44
-5.79
-6.14
-6.48
-6.78
-6.97
-6.97
-6.78
-6.40
-5.92
-5.48
-5.19
-5.16
-5.42
-5.96
-6.71
-7.60
-8.54
-9.45
-10.24
-10.87
-11.31
-11.59
-11.75
-11.85
-11.92
-11.97
-11.95
-11.84
-11.57
-11.06
-10.29
-9.26
-7.99
-6.61
-5.21
-3.94
-2.88
-2.10
-1.59
-1.33
-1.26
-1.33
-1.47
-1.59
-1.57
-1.29
-0.61
0.51
2.04
3.84
5.72
7.47
8.96
10.12
11.00
11.73
12.39
13.01
13.54
13.89
13.97
13.72
13.12
12.17
10.88
9.24
7.26
5.01
2.58
0.11
-2.30
-4.53
-6.52
-8.19
-9.45
-10.25
-10.53
-10.25
-9.39
-7.99
-6.15
-4.02
-1.81
0.29
2.13
3.61
4.70
5.40
5.69
5.59
5.14
4.48
3.80
3.28
3.03
3.05
3.21
3.35
3.31
3.02
2.49
1.77
0.86
-0.25
-1.61
-3.23
-5.03
-6.81
-8.33
-9.38
-9.86
-9.80
-9.36
-8.65
-7.77
-6.74
-5.53
-4.19
-2.79
-1.45
-0.27
0.74
1.66
2.59
3.63
4.79
6.02
7.26
8.50
9.77
11.14
12.67
14.34
16.06
17.67
18.98
19.79
19.96
19.42
18.18
16.36
14.14
11.75
9.42
7.34
5.57
4.13
2.94
1.89
0.92
-0.01
-0.87
-1.60
-2.16
-2.54
-2.75
-2.86
-2.90
-2.93
-2.97
-3.03
-3.11
-3.22
-3.40
-3.70
-4.18
-4.88
-5.78
-6.82
-7.84
-8.69
-9.24
-9.41
-9.16
-8.50
-7.48
-6.18
-4.73
-3.24
-1.84
-0.62
0.35
1.07
1.55
1.82
1.94
1.96
1.99
2.10
2.33
2.64
2.95
3.12
3.06
2.78
2.35
1.91
1.60
1.51
1.62
1.85
2.04
2.07
1.86
1.44
0.90
0.33
-0.21
-0.78
-1.48
-2.38
-3.53
-4.84
-6.22
-7.60
-9.01
-10.55
-12.29
-14.26
-16.40
-18.61
-20.79
-22.84
-24.59
-25.81
-26.21
-25.49
-23.50
-20.39
-16.52
-12.47
-8.78
-5.83
-3.73
-2.39
-1.59
-1.11
-0.76
-0.43
-0.11
0.19
0.48
0.76
1.08
1.55
2.24
3.16
4.22
5.25
6.13
6.79
7.36
8.01
8.93
10.13
11.47
12.68
13.54
13.97
14.05
13.95
13.82
13.65
13.37
12.80
11.81
10.36
8.50
6.36
4.09
1.91
0.01
-1.44
-2.35
-2.71
-2.62
-2.23
-1.69
-1.10
-0.48
0.14
0.75
1.28
1.65
1.78
1.63
1.20
0.55
-0.25
-1.13
-2.01
-2.84
-3.56
-4.13
-4.53
-4.79
-4.92
-5.02
-5.15
-5.34
-5.63
-5.96
-6.29
-6.54
-6.68
-6.72
-6.71
-6.71
-6.83
-7.15
-7.78
-8.80
-10.26
-12.10
-14.19
-16.30
-18.12
-19.40
-19.99
-19.85
-19.05
-17.70
-15.90
-13.72
-11.22
-8.44
-5.51
-2.53
0.40
3.21
5.87
8.38
10.71
12.86
14.79
16.50
18.01
19.36
20.54
21.53
22.26
22.65
22.71
22.48
22.08
21.61
21.13
20.61
20.01
19.34
18.62
17.93
17.31
16.76
16.22
15.57
14.73
13.68
12.45
11.16
9.92
8.83
7.99
7.42
7.12
7.05
7.16
7.43
7.83
8.31
8.77
9.07
9.04
8.62
7.82
6.80
5.79
4.99
4.49
4.23
4.03
3.64
2.91
1.82
0.50
-0.86
-2.08
-3.12
-4.06
-5.04
-6.19
-7.56
-9.07
-10.61
-12.03
-13.26
-14.29
-15.15
-15.85
-16.35
-16.58
-16.46
-15.94
-15.10
-14.05
-12.90
-11.66
-10.24
-8.49
-6.29
-3.67
-0.79
2.07
4.67
6.88
8.67
10.04
11.00
11.45
11.32
10.56
9.25
7.54
5.60
3.56
1.43
-0.83
-3.23
-5.72
-8.14
-10.30
-12.03
-13.26
-14.03
-14.44
-14.62
-14.67
-14.66
-14.65
-14.62
-14.55
-14.36
-13.98
-13.36
-12.52
-11.57
-10.58
-9.63
-8.68
-7.64
-6.49
-5.24
-4.02
-2.95
-2.09
-1.39
-0.71
0.09
1.12
2.36
3.76
5.20
6.56
7.73
8.64
9.23
9.49
9.42
9.06
8.43
7.56
6.50
5.30
4.11
3.08
2.33
1.88
1.66
1.50
1.23
0.80
0.22
-0.36
-0.79
-0.96
-0.89
-0.66
-0.40
-0.24
-0.24
-0.42
-0.78
-1.27
-1.83
-2.36
-2.78
-3.02
-3.09
-3.09
-3.15
-3.40
-3.88
-4.48
-5.03
-5.35
-5.34
-5.00
-4.41
-3.71
-2.97
-2.23
-1.48
-0.72
0.03
0.69
1.17
1.39
1.35
1.10
0.78
0.53
0.47
0.61
0.86
1.11
1.22
1.16
0.98
0.80
0.71
0.74
0.82
0.83
0.70
0.41
0.04
-0.34
-0.64
-0.86
-1.02
-1.14
-1.25
-1.32
-1.36
-1.39
-1.46
-1.65
-2.00
-2.52
-3.14
-3.77
-4.25
-4.49
-4.39
-3.96
-3.29
-2.51
-1.79
-1.23
-0.84
-0.57
-0.35
-0.14
0.07
0.25
0.37
0.42
0.43
0.43
0.45
0.51
0.63
0.86
1.20
1.66
2.19
2.73
3.17
3.48
3.63
3.65
3.59
3.48
3.31
3.05
2.67
2.18
1.64
1.15
0.79
0.60
0.54
0.49
0.30
-0.08
-0.67
-1.38
-2.13
-2.84
-3.46
-3.96
-4.28
-4.37
-4.16
-3.64
-2.87
-1.97
-1.08
-0.32
0.29
0.76
1.13
1.42
1.64
1.78
1.85
1.87
1.87
1.90
1.94
1.99
2.02
1.99
1.94
1.90
1.92
2.04
2.24
2.50
2.75
2.92
3.00
2.98
2.90
2.81
2.71
2.58
2.33
1.95
1.48
1.02
0.71
0.59
0.62
0.65
0.57
0.29
-0.14
-0.65
-1.15
-1.60
-1.99
-2.30
-2.46
-2.36
-1.94
-1.20
-0.29
0.64
1.44
2.08
2.61
3.13
3.68
4.24
4.75
5.14
5.39
5.57
5.74
5.95
6.17
6.33
6.33
6.13
5.74
5.28
4.85
4.51
4.21
3.82
3.14
2.06
0.55
-1.29
-3.26
-5.19
-6.91
-8.35
-9.46
-10.24
-10.68
-10.79
-10.63
-10.29
-9.88
-9.50
-9.21
-9.01
-8.82
-8.49
-7.91
-7.00
-5.77
-4.32
-2.77
-1.22
0.30
1.84
3.41
4.99
6.46
7.68
8.56
9.03
9.09
8.74
7.95
6.74
5.15
3.29
1.30
-0.68
-2.58
-4.36
-6.00
-7.42
-8.52
-9.18
-9.36
-9.13
-8.63
-7.98
-7.24
-6.43
-5.47
-4.34
-3.06
-1.70
-0.35
0.93
2.06
2.96
3.52
3.62
3.15
2.12
0.58
-1.29
-3.29
-5.24
-6.98
-8.46
-9.66
-10.61
-11.36
-11.86
-12.00
-11.59
-10.42
-8.38
-5.54
-2.10
1.63
5.39
9.04
12.57
16.08
19.66
23.26
26.68
29.53
31.38
31.90
31.00
28.86
25.91
22.67
19.54
16.77
14.41
12.35
10.51
8.83
7.33
6.04
4.92
3.86
2.71
1.33
-0.32
-2.15
-3.98
-5.65
-7.04
-8.14
-9.01
-9.69
-10.17
-10.39
-10.26
-9.70
-8.70
-7.34
-5.76
-4.10
-2.50
-1.09
0.06
0.93
1.54
1.92
2.09
2.06
1.82
1.39
0.79
0.05
-0.81
-1.80
-2.94
-4.28
-5.81
-7.49
-9.17
-10.69
-11.87
-12.59
-12.87
-12.80
-12.59
-12.40
-12.37
-12.54
-12.84
-13.25
-13.76
-14.41
-15.28
-16.40
-17.70
-19.06
-20.29
-21.24
-21.78
-21.86
-21.42
-20.40
-18.74
-16.43
-13.52
-10.14
-6.50
-2.79
0.83
4.30
7.58
10.70
13.68
16.53
19.23
21.79
24.19
26.41
28.42
30.19
31.65
32.77
33.60
34.22
34.71
35.16
35.54
35.76
35.70
35.24
34.33
32.96
31.18
29.02
26.50
23.67
20.58
17.31
13.97
10.63
7.34
4.11
0.90
-2.29
-5.48
-8.62
-11.61
-14.33
-16.67
-18.56
-19.96
-20.92
-21.54
-21.95
-22.30
-22.70
-23.18
-23.65
-23.96
-23.90
-23.31
-22.13
-20.44
-18.44
-16.30
-14.17
-12.11
-10.17
-8.36
-6.74
-5.43
-4.52
-4.08
-4.09
-4.44
-4.93
-5.37
-5.64
-5.77
-5.85
-6.01
-6.33
-6.74
-7.11
-7.30
-7.28
-7.10
-6.92
-6.85
-6.94
-7.11
-7.22
-7.17
-6.85
-6.24
-5.40
-4.41
-3.42
-2.56
-1.96
-1.63
-1.48
-1.34
-1.08
-0.61
0.08
0.92
1.84
2.76
3.60
4.29
4.71
4.78
4.44
3.72
2.69
1.46
0.10
-1.33
-2.79
-4.18
-5.40
-6.33
-6.91
-7.17
-7.19
-7.04
-6.75
-6.26
-5.51
-4.48
-3.24
-1.90
-0.60
0.58
1.62
2.57
3.45
4.32
5.20
6.14
7.16
8.26
9.43
10.60
11.71
12.67
13.40
13.82
13.89
13.63
13.15
12.68
12.41
12.45
12.74
13.01
12.92
12.15
10.48
7.89
4.55
0.79
-2.93
-6.14
-8.45
-9.66
-9.87
-9.37
-8.59
-7.91
-7.55
-7.54
-7.83
-8.33
-9.06
-10.06
-11.36
-12.93
-14.59
-16.13
-17.30
-17.96
-18.06
-17.60
-16.60
-15.05
-12.93
-10.29
-7.31
-4.29
-1.53
0.75
2.54
4.00
5.34
6.76
8.28
9.86
11.43
12.95
14.45
15.99
17.60
19.22
20.78
22.13
23.19
23.88
24.21
24.25
24.10
23.87
23.61
23.31
22.94
22.49
21.98
21.52
21.20
21.04
20.90
20.60
19.95
18.87
17.48
16.00
14.60
13.37
12.20
10.95
9.48
7.72
5.74
3.60
1.43
-0.69
-2.64
-4.32
-5.62
-6.47
-6.90
-7.04
-7.04
-7.05
-7.15
-7.36
-7.62
-7.95
-8.35
-8.86
-9.49
-10.15
-10.71
-11.01
-10.96
-10.56
-9.90
-9.14
-8.36
-7.59
-6.78
-5.86
-4.84
-3.79
-2.82
-2.08
-1.61
-1.34
-1.18
-0.99
-0.72
-0.39
-0.05
0.21
0.42
0.65
1.01
1.59
2.37
3.24
3.98
4.42
4.44
4.06
3.38
2.54
1.64
0.73
-0.25
-1.39
-2.80
-4.59
-6.72
-8.99
-11.02
-12.30
-12.40
-11.12
-8.60
-5.31
-1.86
1.19
3.46
4.83
5.32
5.02
3.97
2.23
-0.12
-2.89
-5.88
-8.87
-11.72
-14.42
-16.93
-19.19
-21.06
-22.33
-22.83
-22.51
-21.53
-20.16
-18.71
-17.45
-16.45
-15.65
-14.89
-14.01
-12.88
-11.49
-9.87
-8.14
-6.39
-4.70
-3.12
-1.64
-0.22
1.24
2.81
4.56
6.44
8.36
10.16
11.64
12.67
13.19
13.24
12.93
12.44
11.91
11.42
10.99
10.62
10.31
10.08
9.94
9.86
9.70
9.28
8.48
7.29
5.81
4.24
2.74
1.38
0.15
-0.99
-2.06
-3.05
-3.94
-4.73
-5.50
-6.29
-7.12
-7.93
-8.60
-9.02
-9.13
-8.95
-8.53
-7.96
-7.36
-6.83
-6.47
-6.33
-6.42
-6.70
-7.09
-7.43
-7.57
-7.32
-6.59
-5.35
-3.75
-2.02
-0.44
0.77
1.50
1.79
1.78
1.63
1.45
1.32
1.29
1.41
1.78
2.47
3.50
4.81
6.27
7.72
9.05
10.17
10.99
11.45
11.49
11.05
10.16
8.90
7.41
5.85
4.35
2.98
1.78
0.77
-0.05
-0.70
-1.15
-1.37
-1.34
-1.11
-0.81
-0.61
-0.67
-1.05
-1.63
-2.20
-2.53
-2.51
-2.16
-1.63
-1.05
-0.46
0.20
0.97
1.81
2.58
3.08
3.16
2.86
2.37
1.94
1.77
1.86
2.05
2.10
1.83
1.16
0.19
-0.92
-2.03
-3.06
-4.01
-4.95
-5.92
-6.96
-8.06
-9.16
-10.20
-11.06
-11.68
-11.96
-11.85
-11.33
-10.42
-9.19
-7.77
-6.31
-4.95
-3.80
-2.91
-2.29
-1.86
-1.56
-1.33
-1.12
-0.92
-0.69
-0.38
0.08
0.70
1.48
2.38
3.31
4.21
5.03
5.75
6.35
6.80
7.06
7.12
6.98
6.69
6.31
5.88
5.41
4.91
4.37
3.81
3.30
2.86
2.50
2.18
1.78
1.24
0.51
-0.39
-1.35
-2.29
-3.09
-3.68
-3.96
-3.88
-3.39
-2.52
-1.38
-0.11
1.15
2.26
3.19
3.92
4.42
4.66
4.63
4.35
3.95
3.58
3.40
3.49
3.81
4.21
4.52
4.63
4.51
4.25
4.00
3.86
3.85
3.94
4.03
4.04
3.91
3.60
3.08
2.36
1.45
0.38
-0.78
-1.94
-3.00
-3.86
-4.48
-4.84
-5.00
-5.06
-5.14
-5.34
-5.70
-6.19
-6.70
-7.10
-7.28
-7.17
-6.79
-6.14
-5.26
-4.17
-2.96
-1.74
-0.65
0.14
0.61
0.79
0.84
0.91
1.09
1.35
1.61
1.81
1.92
1.96
1.96
1.92
1.87
1.82
1.89
2.15
2.67
3.37
4.07
4.56
4.75
4.67
4.46
4.27
4.17
4.15
4.13
4.06
3.91
3.68
3.37
2.94
2.41
1.87
1.44
1.26
1.35
1.57
1.72
1.55
0.97
0.00
-1.20
-2.48
-3.68
-4.69
-5.40
-5.63
-5.28
-4.33
-2.93
-1.40
-0.05
0.90
1.41
1.62
1.70
1.75
1.80
1.83
1.81
1.82
1.94
2.20
2.58
2.95
3.18
3.22
3.05
2.75
2.35
1.87
1.32
0.67
-0.04
-0.75
-1.38
-1.87
-2.24
-2.52
-2.76
-3.00
-3.26
-3.52
-3.77
-3.97
-4.11
-4.21
-4.33
-4.57
-5.02
-5.71
-6.57
-7.40
-7.98
-8.11
-7.72
-6.86
-5.75
-4.58
-3.51
-2.60
-1.83
-1.17
-0.60
-0.14
0.18
0.36
0.39
0.29
0.03
-0.39
-0.92
-1.43
-1.77
-1.76
-1.35
-0.59
0.38
1.40
2.34
3.17
3.91
4.60
5.22
5.77
6.26
6.71
7.21
7.84
8.62
9.55
10.54
11.48
12.30
12.95
13.46
13.80
13.96
13.86
13.42
12.62
11.54
10.28
8.96
7.64
6.32
4.97
3.61
2.29
1.14
0.25
-0.34
-0.69
-0.92
-1.16
-1.48
-1.87
-2.29
-2.70
-3.15
-3.73
-4.56
-5.67
-7.00
-8.34
-9.43
-10.08
-10.20
-9.92
-9.40
-8.85
-8.38
-8.01
-7.66
-7.25
-6.75
-6.16
-5.57
-5.02
-4.56
-4.15
-3.76
-3.37
-3.00
-2.70
-2.55
-2.56
-2.69
-2.91
-3.18
-3.48
-3.82
-4.18
-4.48
-4.62
-4.52
-4.17
-3.63
-3.03
-2.47
-2.00
-1.59
-1.16
-0.69
-0.18
0.28
0.60
0.67
0.44
-0.06
-0.72
-1.38
-1.90
-2.19
-2.23
-2.06
-1.76
-1.39
-0.94
-0.39
0.30
1.13
2.01
2.82
3.40
3.66
3.56
3.14
2.52
1.78
1.05
0.38
-0.18
-0.64
-1.04
-1.43
-1.86
-2.30
-2.70
-2.98
-3.07
-2.97
-2.72
-2.38
-1.96
-1.41
-0.72
0.09
0.96
1.81
2.59
3.32
4.03
4.75
5.38
5.83
6.01
6.00
5.94
6.05
6.44
7.06
7.78
8.41
8.85
9.10
9.22
9.30
9.37
9.42
9.44
9.39
9.20
8.78
8.04
6.93
5.50
3.90
2.29
0.83
-0.42
-1.50
-2.42
-3.21
-3.85
-4.31
-4.63
-4.91
-5.27
-5.77
-6.42
-7.21
-8.04
-8.87
-9.60
-10.11
-10.27
-9.98
-9.22
-8.11
-6.84
-5.66
-4.75
-4.18
-3.94
-3.93
-4.03
-4.13
-4.12
-3.89
-3.41
-2.71
-1.86
-1.03
-0.32
0.20
0.52
0.72
0.87
1.05
1.29
1.53
1.70
1.72
1.57
1.30
1.02
0.86
0.89
1.10
1.35
1.51
1.50
1.33
1.08
0.82
0.58
0.31
-0.02
-0.45
-0.96
-1.49
-2.00
-2.48
-2.87
-3.10
-3.08
-2.72
-2.04
-1.17
-0.33
0.30
0.66
0.78
0.81
0.82
0.85
0.85
0.80
0.68
0.56
0.47
0.46
0.49
0.56
0.64
0.77
0.98
1.28
1.64
1.98
2.22
2.32
2.27
2.11
1.91
1.73
1.62
1.60
1.63
1.65
1.59
1.40
1.08
0.66
0.18
-0.33
-0.81
-1.20
-1.43
-1.49
-1.42
-1.33
-1.31
-1.42
-1.58
-1.67
-1.55
-1.14
-0.48
0.32
1.11
1.82
2.40
2.88
3.28
3.57
3.71
3.66
3.42
3.04
2.61
2.20
1.90
1.72
1.65
1.66
1.69
1.67
1.55
1.33
1.07
0.85
0.71
0.68
0.73
0.78
0.78
0.71
0.57
0.37
0.15
-0.12
-0.45
-0.83
-1.28
-1.73
-2.13
-2.39
-2.46
-2.33
-2.08
-1.85
-1.79
-2.02
-2.55
-3.26
-3.96
-4.44
-4.57
-4.30
-3.69
-2.85
-1.89
-0.96
-0.19
0.32
0.51
0.42
0.16
-0.10
-0.23
-0.19
-0.03
0.11
0.14
0.03
-0.12
-0.22
-0.17
0.02
0.29
0.58
0.83
1.01
1.09
1.04
0.81
0.44
0.00
-0.40
-0.66
-0.78
-0.80
-0.81
-0.84
-0.89
-0.90
-0.81
-0.63
-0.40
-0.19
-0.05
0.01
-0.02
-0.19
-0.51
-1.01
-1.65
-2.29
-2.76
-2.89
-2.59
-1.90
-0.97
0.03
0.93
1.65
2.19
2.61
3.00
3.42
3.88
4.35
4.80
5.19
5.48
5.67
5.74
5.68
5.50
5.26
5.05
4.98
5.09
5.38
5.74
6.04
6.15
5.97
5.52
4.87
4.15
3.47
2.91
2.50
2.20
1.94
1.63
1.18
0.52
-0.41
-1.61
-3.06
-4.68
-6.36
-8.03
-9.64
-11.17
-12.57
-13.75
-14.55
-14.83
-14.52
-13.76
-12.79
-11.87
-11.16
-10.63
-10.12
-9.43
-8.49
-7.40
-6.34
-5.53
-5.06
-4.88
-4.83
-4.74
-4.51
-4.08
-3.46
-2.67
-1.67
-0.47
0.94
2.46
3.92
5.15
6.02
6.51
6.77
6.95
7.18
7.44
7.58
7.43
6.87
5.95
4.89
3.94
3.30
3.01
3.01
3.21
3.52
3.92
4.34
4.64
4.64
4.22
3.40
2.37
1.44
0.91
0.90
1.33
1.98
2.61
3.04
3.25
3.27
3.16
2.95
2.61
2.10
1.45
0.74
0.08
-0.40
-0.65
-0.70
-0.68
-0.72
-0.90
-1.21
-1.52
-1.67
-1.56
-1.16
-0.60
-0.08
0.19
0.13
-0.24
-0.77
-1.29
-1.69
-1.95
-2.15
-2.38
-2.70
-3.10
-3.53
-3.95
-4.31
-4.61
-4.81
-4.90
-4.83
-4.59
-4.23
-3.84
-3.49
-3.18
-2.81
-2.24
-1.34
-0.10
1.35
2.79
4.00
4.90
5.53
6.05
6.61
7.26
7.94
8.56
9.01
9.36
9.73
10.31
11.18
12.31
13.55
14.69
15.59
16.19
16.58
16.83
17.05
17.21
17.23
17.02
16.49
15.63
14.48
13.10
11.51
9.74
7.78
5.69
3.52
1.37
-0.73
-2.76
-4.70
-6.51
-8.13
-9.48
-10.48
-11.11
-11.39
-11.33
-10.91
-10.11
-8.95
-7.49
-5.88
-4.28
-2.84
-1.65
-0.72
-0.04
0.38
0.59
0.65
0.66
0.77
1.07
1.56
2.14
2.66
3.00
3.08
2.93
2.61
2.17
1.60
0.88
0.03
-0.91
-1.83
-2.66
-3.41
-4.16
-5.05
-6.14
-7.40
-8.68
-9.76
-10.53
-10.96
-11.18
-11.32
-11.43
-11.49
-11.35
-10.92
-10.17
-9.24
-8.27
-7.41
-6.69
-6.03
-5.33
-4.54
-3.72
-3.01
-2.50
-2.25
-2.18
-2.14
-2.01
-1.72
-1.28
-0.78
-0.30
0.11
0.43
0.67
0.86
1.00
1.07
1.03
0.87
0.57
0.21
-0.16
-0.44
-0.60
-0.63
-0.63
-0.68
-0.89
-1.30
-1.84
-2.39
-2.81
-3.02
-3.02
-2.95
-2.96
-3.18
-3.59
-4.02
-4.29
-4.23
-3.82
-3.17
-2.45
-1.79
-1.26
-0.82
-0.41
-0.03
0.28
0.44
0.38
0.11
-0.30
-0.71
-0.98
-1.04
-0.89
-0.59
-0.22
0.14
0.47
0.77
1.05
1.32
1.57
1.78
1.94
2.07
2.19
2.32
2.48
2.66
2.85
3.00
3.07
3.01
2.78
2.35
1.73
0.98
0.22
-0.38
-0.75
-0.87
-0.84
-0.81
-0.94
-1.23
-1.59
-1.86
-1.89
-1.68
-1.27
-0.78
-0.28
0.25
0.82
1.46
2.13
2.77
3.29
3.65
3.83
3.84
3.72
3.54
3.37
3.27
3.29
3.40
3.54
3.62
3.58
3.44
3.25
3.08
2.97
2.96
3.00
3.04
2.99
2.77
2.38
1.83
1.23
0.64
0.10
-0.43
-1.01
-1.71
-2.53
-3.39
-4.20
-4.92
-5.59
-6.30
-7.14
-8.14
-9.23
-10.32
-11.30
-12.07
-12.56
-12.71
-12.46
-11.77
-10.68
-9.25
-7.61
-5.88
-4.16
-2.45
-0.80
0.77
2.19
3.35
4.21
4.75
5.06
5.28
5.52
5.84
6.19
6.50
6.67
6.65
6.48
6.21
5.87
5.49
5.05
4.54
3.99
3.47
3.06
2.81
2.71
2.68
2.62
2.48
2.20
1.81
1.33
0.82
0.31
-0.15
-0.53
-0.80
-0.96
-1.09
-1.29
-1.72
-2.42
-3.38
-4.40
-5.27
-5.78
-5.84
-5.52
-4.98
-4.37
-3.78
-3.20
-2.61
-2.00
-1.46
-1.08
-0.97
-1.14
-1.56
-2.14
-2.81
-3.49
-4.15
-4.77
-5.30
-5.71
-5.98
-6.13
-6.24
-6.36
-6.53
-6.72
-6.81
-6.67
-6.19
-5.32
-4.12
-2.70
-1.22
0.22
1.57
2.81
3.93
4.88
5.58
6.06
6.37
6.66
7.02
7.49
7.97
8.28
8.25
7.78
6.87
5.55
3.90
1.99
-0.06
-2.10
-3.91
-5.29
-6.17
-6.62
-6.81
-6.98
-7.26
-7.65
-8.02
-8.24
-8.25
-8.10
-7.92
-7.84
-7.91
-8.06
-8.16
-8.10
-7.79
-7.22
-6.41
-5.43
-4.32
-3.16
-1.98
-0.77
0.50
1.90
3.46
5.12
6.81
8.39
9.82
11.12
12.37
13.60
14.77
15.70
16.15
15.92
14.95
13.32
11.23
8.91
6.55
4.34
2.47
1.11
0.42
0.44
1.11
2.30
3.85
5.65
7.69
9.99
12.58
15.43
18.47
21.60
24.70
27.64
30.32
32.59
34.36
35.54
36.12
36.08
35.48
34.35
32.75
30.75
28.39
25.76
22.90
19.82
16.54
13.08
9.50
5.87
2.28
-1.19
-4.45
-7.41
-9.95
-11.98
-13.45
-14.41
-14.99
-15.43
-15.92
-16.62
-17.56
-18.65
-19.70
-20.54
-21.04
-21.14
-20.88
-20.36
-19.66
-18.91
-18.18
-17.56
-17.10
-16.77
-16.52
-16.25
-15.87
-15.36
-14.79
-14.25
-13.80
-13.42
-13.04
-12.60
-12.11
-11.64
-11.27
-11.01
-10.83
-10.63
-10.35
-9.99
-9.61
-9.24
-8.88
-8.48
-7.99
-7.40
-6.73
-6.01
-5.23
-4.37
-3.39
-2.33
-1.26
-0.31
0.44
0.98
1.38
1.76
2.19
2.68
3.17
3.60
3.89
4.04
4.11
4.13
4.17
4.22
4.27
4.27
4.21
4.09
3.91
3.71
3.49
3.32
3.25
3.35
3.66
4.19
4.84
5.49
5.99
6.21
6.13
5.79
5.29
4.74
4.19
3.66
3.14
2.66
2.29
2.08
2.06
2.17
2.32
2.40
2.36
2.20
2.02
1.92
1.98
2.17
2.39
2.52
2.46
2.19
1.77
1.28
0.76
0.23
-0.33
-0.90
-1.41
-1.80
-2.03
-2.16
-2.30
-2.59
-3.07
-3.66
-4.23
-4.60
-4.69
-4.45
-3.92
-3.14
-2.15
-1.01
0.18
1.27
2.09
2.50
2.46
2.07
1.50
0.92
0.47
0.15
-0.07
-0.26
-0.45
-0.62
-0.70
-0.65
-0.46
-0.19
0.08
0.26
0.33
0.30
0.21
0.11
-0.00
-0.17
-0.43
-0.83
-1.34
-1.89
-2.40
-2.78
-2.99
-3.07
-3.08
-3.12
-3.27
-3.54
-3.86
-4.13
-4.22
-4.02
-3.51
-2.75
-1.86
-0.98
-0.18
0.57
1.29
1.99
2.61
3.03
3.15
2.95
2.51
1.98
1.49
1.13
0.90
0.78
0.76
0.84
1.04
1.37
1.78
2.19
2.50
2.63
2.53
2.21
1.74
1.19
0.69
0.30
0.03
-0.16
-0.36
-0.67
-1.14
-1.76
-2.46
-3.14
-3.76
-4.28
-4.69
-4.93
-4.88
-4.45
-3.64
-2.57
-1.48
-0.57
0.06
0.43
0.69
0.99
1.38
1.78
2.07
2.14
1.97
1.65
1.30
1.02
0.85
0.80
0.82
0.92
1.09
1.34
1.64
1.92
2.10
2.09
1.87
1.48
0.99
0.48
-0.03
-0.51
-0.96
-1.34
-1.65
-1.91
-2.16
-2.51
-3.00
-3.62
-4.24
-4.72
-4.92
-4.77
-4.30
-3.55
-2.58
-1.49
-0.37
0.64
1.42
1.93
2.18
2.28
2.30
2.31
2.28
2.17
1.94
1.66
1.42
1.33
1.43
1.67
1.98
2.29
2.58
2.86
3.13
3.34
3.40
3.24
2.87
2.42
2.02
1.81
1.75
1.69
1.46
0.97
0.30
-0.40
-0.92
-1.19
-1.27
-1.33
-1.50
-1.86
-2.33
-2.74
-2.94
-2.82
-2.38
-1.69
-0.86
-0.03
0.68
1.16
1.33
1.16
0.72
0.11
-0.53
-1.07
-1.46
-1.69
-1.82
-1.87
-1.85
-1.72
-1.47
-1.09
-0.61
-0.08
0.45
0.97
1.42
1.76
1.91
1.81
1.45
0.89
0.25
-0.35
-0.84
-1.18
-1.41
-1.56
-1.71
-1.93
-2.27
-2.79
-3.48
-4.23
-4.89
-5.26
-5.18
-4.60
-3.60
-2.36
-1.12
-0.07
0.68
1.12
1.33
1.40
1.42
1.42
1.41
1.39
1.37
1.39
1.49
1.72
2.06
2.46
2.87
3.19
3.41
3.50
3.47
3.32
3.10
2.84
2.57
2.33
2.10
1.85
1.55
1.19
0.80
0.40
0.02
-0.34
-0.73
-1.17
-1.67
-2.19
-2.73
-3.29
-3.87
-4.49
-5.10
-5.62
-5.95
-5.97
-5.63
-4.90
-3.86
-2.62
-1.35
-0.22
0.64
1.22
1.59
1.86
2.13
2.41
2.63
2.72
2.66
2.51
2.41
2.45
2.67
3.02
3.42
3.80
4.17
4.54
4.88
5.09
5.08
4.77
4.20
3.49
2.82
2.27
1.86
1.54
1.26
0.99
0.75
0.55
0.32
-0.02
-0.52
-1.16
-1.84
-2.44
-2.89
-3.23
-3.53
-3.90
-4.36
-4.86
-5.33
-5.65
-5.73
-5.51
-4.95
-4.04
-2.87
-1.58
-0.38
0.59
1.24
1.61
1.81
1.93
2.00
2.03
1.99
1.93
1.95
2.14
2.52
3.05
3.57
3.96
4.16
4.17
4.05
3.89
3.71
3.50
3.26
2.97
2.66
2.34
2.02
1.72
1.43
1.16
0.90
0.70
0.57
0.51
0.50
0.48
0.39
0.19
-0.12
-0.48
-0.81
-1.07
-1.29
-1.60
-2.14
-2.94
-3.91
-4.81
-5.36
-5.32
-4.65
-3.46
-2.03
-0.63
0.53
1.36
1.92
2.30
2.60
2.82
2.91
2.82
2.51
2.08
1.71
1.56
1.70
2.07
2.50
2.83
2.99
3.01
3.01
3.07
3.18
3.22
3.09
2.75
2.26
1.74
1.32
1.05
0.88
0.74
0.54
0.24
-0.15
-0.59
-1.03
-1.43
-1.79
-2.12
-2.42
-2.70
-2.95
-3.15
-3.33
-3.54
-3.87
-4.33
-4.91
-5.45
-5.80
-5.79
-5.33
-4.47
-3.33
-2.07
-0.85
0.23
1.11
1.76
2.16
2.34
2.34
2.22
2.07
1.96
1.94
2.03
2.21
2.46
2.74
3.00
3.20
3.34
3.46
3.57
3.63
3.60
3.41
3.07
2.67
2.31
2.11
2.07
2.09
2.03
1.79
1.38
0.87
0.37
-0.05
-0.39
-0.70
-1.03
-1.40
-1.79
-2.19
-2.61
-3.07
-3.58
-4.16
-4.79
-5.43
-6.01
-6.41
-6.55
-6.32
-5.72
-4.81
-3.75
-2.69
-1.75
-0.96
-0.29
0.33
0.89
1.39
1.74
1.89
1.83
1.63
1.41
1.30
1.36
1.60
1.95
2.32
2.63
2.87
3.04
3.14
3.17
3.11
2.99
2.83
2.71
2.65
2.64
2.59
2.42
2.11
1.70
1.33
1.11
1.06
1.07
1.00
0.68
0.06
-0.78
-1.73
-2.65
-3.47
-4.15
-4.71
-5.17
-5.55
-5.84
-6.03
-6.09
-5.98
-5.63
-5.03
-4.17
-3.09
-1.92
-0.78
0.19
0.89
1.31
1.48
1.52
1.55
1.64
1.79
1.94
2.00
1.92
1.75
1.56
1.44
1.45
1.58
1.78
1.99
2.17
2.30
2.36
2.33
2.21
1.98
1.69
1.42
1.25
1.24
1.37
1.54
1.58
1.36
0.82
0.01
-0.90
-1.75
-2.40
-2.80
-2.98
-3.04
-3.07
-3.12
-3.23
-3.41
-3.67
-4.03
-4.46
-4.89
-5.17
-5.18
-4.82
-4.11
-3.16
-2.12
-1.13
-0.27
0.45
1.05
1.54
1.91
2.10
2.07
1.84
1.50
1.17
1.01
1.09
1.39
1.81
2.23
2.53
2.68
2.71
2.68
2.62
2.55
2.45
2.32
2.18
2.06
1.98
1.89
1.75
1.48
1.06
0.56
0.08
-0.29
-0.50
-0.58
-0.67
-0.89
-1.38
-2.13
-3.05
-3.95
-4.63
-4.94
-4.84
-4.36
-3.63
-2.74
-1.80
-0.87
-0.01
0.75
1.37
1.84
2.14
2.28
2.26
2.12
1.92
1.74
1.69
1.83
2.17
2.61
3.01
3.27
3.35
3.29
3.18
3.08
2.97
2.85
2.66
2.45
2.23
2.02
1.81
1.56
1.22
0.76
0.21
-0.37
-0.91
-1.38
-1.75
-2.04
-2.31
-2.61
-2.99
-3.48
-4.07
-4.69
-5.25
-5.68
-5.90
-5.87
-5.55
-4.88
-3.84
-2.46
-0.89
0.60
1.74
2.33
2.36
2.00
1.54
1.22
1.18
1.35
1.59
1.77
1.84
1.83
1.81
1.81
1.84
1.84
1.82
1.77
1.75
1.78
1.86
1.93
1.91
1.75
1.44
1.04
0.59
0.16
-0.20
-0.47
-0.67
-0.84
-1.01
-1.26
-1.63
-2.18
-2.87
-3.62
-4.28
-4.70
-4.72
-4.31
-3.53
-2.52
-1.42
-0.34
0.69
1.65
2.55
3.34
3.94
4.27
4.30
4.06
3.67
3.24
2.90
2.71
2.70
2.87
3.19
3.61
4.05
4.42
4.65
4.72
4.66
4.55
4.48
4.43
4.33
4.05
3.48
2.59
1.49
0.32
-0.76
-1.70
-2.53
-3.35
-4.24
-5.22
-6.25
-7.23
-8.08
-8.74
-9.22
-9.52
-9.62
-9.48
-9.03
-8.26
-7.21
-5.99
-4.77
-3.70
-2.84
-2.19
-1.66
-1.17
-0.64
-0.09
0.43
0.86
1.18
1.43
1.70
2.05
2.50
2.99
3.42
3.70
3.81
3.83
3.85
3.96
4.17
4.41
4.59
4.65
4.59
4.41
4.14
3.76
3.24
2.59
1.85
1.09
0.44
-0.04
-0.30
-0.40
-0.46
-0.64
-1.12
-1.96
-3.05
-4.15
-4.93
-5.09
-4.59
-3.56
-2.32
-1.19
-0.36
0.13
0.36
0.42
0.36
0.21
0.01
-0.17
-0.25
-0.15
0.09
0.39
0.66
0.83
0.93
1.02
1.17
1.40
1.67
1.93
2.12
2.20
2.22
2.18
2.09
1.94
1.64
1.16
0.52
-0.17
-0.76
-1.13
-1.26
-1.21
-1.13
-1.18
-1.40
-1.80
-2.32
-2.89
-3.49
-4.05
-4.52
-4.77
-4.71
-4.33
-3.68
-2.91
-2.13
-1.42
-0.78
-0.22
0.24
0.58
0.76
0.81
0.79
0.79
0.89
1.07
1.28
1.46
1.58
1.68
1.82
2.07
2.42
2.82
3.18
3.42
3.52
3.49
3.43
3.41
3.46
3.55
3.59
3.47
3.11
2.50
1.70
0.82
-0.03
-0.79
-1.43
-1.99
-2.51
-2.99
-3.43
-3.85
-4.25
-4.64
-5.02
-5.31
-5.40
-5.19
-4.64
-3.78
-2.77
-1.78
-0.92
-0.24
0.30
0.74
1.11
1.38
1.54
1.57
1.51
1.45
1.46
1.56
1.72
1.88
1.95
1.95
1.89
1.86
1.88
1.97
2.06
2.11
2.09
2.01
1.91
1.81
1.68
1.50
1.27
1.01
0.82
0.75
0.84
1.05
1.28
1.45
1.50
1.42
1.21
0.89
0.50
0.12
-0.14
-0.17
0.09
0.64
1.38
2.17
2.91
3.53
4.06
4.58
5.13
5.75
6.41
7.01
7.45
7.66
7.60
7.28
6.73
6.03
5.29
4.63
4.21
4.13
4.47
5.17
6.11
7.09
7.95
8.55
8.84
8.85
8.65
8.33
7.98
7.70
7.55
7.53
7.59
7.62
7.49
7.08
6.32
5.22
3.88
2.40
0.92
-0.48
-1.79
-3.08
-4.46
-6.02
-7.81
-9.78
-11.78
-13.61
-15.05
-15.96
-16.32
-16.22
-15.83
-15.37
-15.03
-14.97
-15.24
-15.81
-16.56
-17.32
-17.92
-18.24
-18.23
-17.91
-17.38
-16.75
-16.07
-15.31
-14.36
-13.09
-11.42
-9.38
-7.12
-4.87
-2.86
-1.27
-0.23
0.22
0.08
-0.61
-1.78
-3.27
-4.87
-6.24
-7.08
-7.13
-6.29
-4.64
-2.39
0.11
2.54
4.69
6.42
7.72
8.65
9.25
9.55
9.59
9.37
8.98
8.52
8.10
7.80
7.60
7.39
7.01
6.29
5.14
3.60
1.78
-0.21
-2.34
-4.64
-7.18
-9.91
-12.64
-15.04
-16.81
-17.82
-18.14
-18.00
-17.62
-17.07
-16.28
-15.08
-13.36
-11.21
-8.83
-6.44
-4.15
-1.87
0.58
3.39
6.57
9.96
13.29
16.28
18.74
20.63
22.00
22.91
23.42
23.52
23.18
22.41
21.26
19.85
18.33
16.82
15.38
14.01
12.66
11.30
9.98
8.79
7.83
7.15
6.71
6.35
5.86
5.09
4.01
2.70
1.33
0.10
-0.86
-1.53
-2.00
-2.38
-2.78
-3.26
-3.83
-4.48
-5.22
-6.05
-6.93
-7.72
-8.18
-8.06
-7.21
-5.70
-3.79
-1.84
-0.18
0.99
1.67
1.94
1.93
1.79
1.61
1.46
1.37
1.35
1.35
1.30
1.14
0.79
0.22
-0.58
-1.57
-2.65
-3.64
-4.38
-4.76
-4.79
-4.64
-4.54
-4.67
-5.12
-5.82
-6.58
-7.21
-7.54
-7.52
-7.15
-6.52
-5.66
-4.63
-3.48
-2.27
-1.09
-0.05
0.83
1.55
2.21
2.93
3.73
4.53
5.17
5.44
5.21
4.50
3.44
2.27
1.19
0.34
-0.26
-0.72
-1.16
-1.70
-2.40
-3.27
-4.26
-5.34
-6.49
-7.67
-8.77
-9.60
-9.99
-9.84
-9.21
-8.34
-7.52
-6.94
-6.68
-6.65
-6.70
-6.69
-6.53
-6.18
-5.60
-4.73
-3.54
-2.06
-0.39
1.31
2.90
4.34
5.66
6.99
8.41
9.95
11.52
13.03
14.38
15.55
16.59
17.53
18.33
18.86
18.96
18.55
17.65
16.44
15.12
13.85
12.63
11.32
9.79
7.96
5.90
3.81
1.89
0.33
-0.84
-1.65
-2.21
-2.62
-2.96
-3.32
-3.76
-4.35
-5.15
-6.15
-7.30
-8.51
-9.68
-10.74
-11.67
-12.49
-13.22
-13.78
-14.09
-14.02
-13.49
-12.54
-11.27
-9.89
-8.53
-7.26
-6.04
-4.79
-3.43
-1.99
-0.58
0.69
1.70
2.45
2.98
3.35
3.59
3.72
3.73
3.62
3.40
3.10
2.68
2.11
1.34
0.39
-0.67
-1.70
-2.57
-3.14
-3.37
-3.28
-2.97
-2.54
-2.14
-1.83
-1.65
-1.54
-1.49
-1.46
-1.48
-1.57
-1.71
-1.79
-1.70
-1.36
-0.80
-0.14
0.43
0.81
0.96
0.96
0.88
0.72
0.48
0.09
-0.44
-1.06
-1.70
-2.33
-2.97
-3.68
-4.54
-5.58
-6.77
-8.05
-9.32
-10.51
-11.55
-12.42
-13.15
-13.82
-14.47
-15.10
-15.65
-15.97
-15.94
-15.49
-14.64
-13.46
-12.01
-10.34
-8.49
-6.54
-4.61
-2.84
-1.32
-0.02
1.22
2.67
4.60
7.20
10.53
14.47
18.80
23.18
27.28
30.76
33.34
34.86
35.23
34.55
33.03
30.99
28.76
26.58
24.56
22.65
20.73
18.70
16.56
14.46
12.55
10.97
9.78
8.92
8.27
7.73
7.23
6.77
6.37
6.08
5.92
5.89
5.90
5.81
5.43
4.66
3.43
1.84
-0.01
-2.03
-4.22
-6.61
-9.21
-11.91
-14.45
-16.55
-17.98
-18.69
-18.78
-18.46
-17.91
-17.24
-16.42
-15.42
-14.18
-12.74
-11.17
-9.61
-8.21
-7.04
-6.15
-5.47
-4.90
-4.36
-3.80
-3.26
-2.83
-2.57
-2.50
-2.57
-2.69
-2.82
-2.96
-3.11
-3.23
-3.23
-3.01
-2.50
-1.78
-0.98
-0.26
0.28
0.64
0.86
0.97
0.93
0.65
0.05
-0.82
-1.85
-2.85
-3.66
-4.20
-4.47
-4.51
-4.35
-4.01
-3.47
-2.72
-1.78
-0.68
0.53
1.80
3.05
4.23
5.29
6.21
6.96
7.58
8.13
8.67
9.29
10.02
10.85
11.68
12.35
12.69
12.57
11.99
11.02
9.81
8.49
7.13
5.76
4.38
3.01
1.71
0.53
-0.49
-1.38
-2.20
-3.03
-3.92
-4.80
-5.54
-5.97
-5.98
-5.55
-4.77
-3.85
-2.97
-2.28
-1.79
-1.44
-1.11
-0.73
-0.29
0.15
0.51
0.73
0.80
0.73
0.52
0.13
-0.51
-1.42
-2.55
-3.78
-4.93
-5.88
-6.57
-7.02
-7.35
-7.69
-8.15
-8.78
-9.55
-10.35
-11.02
-11.42
-11.47
-11.15
-10.48
-9.53
-8.35
-7.01
-5.54
-4.01
-2.44
-0.91
0.54
1.87
3.01
3.91
4.57
5.03
5.41
5.80
6.23
6.63
6.90
6.92
6.70
6.35
6.04
5.89
5.91
6.02
6.09
6.05
5.90
5.68
5.45
5.14
4.66
3.92
2.87
1.59
0.23
-1.11
-2.35
-3.49
-4.56
-5.53
-6.35
-6.97
-7.41
-7.73
-8.03
-8.34
-8.61
-8.70
-8.46
-7.82
-6.81
-5.55
-4.18
-2.76
-1.36
0.02
1.32
2.48
3.46
4.22
4.80
5.24
5.61
5.92
6.17
6.34
6.40
6.36
6.24
6.06
5.85
5.66
5.48
5.32
5.13
4.84
4.43
3.91
3.33
2.79
2.30
1.87
1.40
0.85
0.19
-0.56
-1.33
-2.07
-2.78
-3.44
-4.08
-4.69
-5.23
-5.73
-6.19
-6.66
-7.19
-7.77
-8.37
-8.87
-9.16
-9.11
-8.70
-7.97
-7.05
-6.10
-5.22
-4.48
-3.88
-3.38
-2.97
-2.63
-2.34
-2.05
-1.69
-1.22
-0.67
-0.11
0.35
0.67
0.85
0.97
1.10
1.29
1.50
1.64
1.61
1.37
0.93
0.37
-0.26
-0.85
-1.38
-1.82
-2.18
-2.47
-2.65
-2.71
-2.60
-2.29
-1.83
-1.26
-0.61
0.13
1.01
2.08
3.32
4.69
6.08
7.38
8.53
9.55
10.53
11.53
12.57
13.59
14.44
14.98
15.04
14.50
13.35
11.67
9.61
7.37
5.11
2.93
0.87
-1.04
-2.79
-4.32
-5.59
-6.62
-7.50
-8.35
-9.31
-10.42
-11.66
-12.93
-14.16
-15.34
-16.48
-17.62
-18.78
-19.96
-21.12
-22.24
-23.31
-24.32
-25.27
-26.09
-26.73
-27.11
-27.18
-26.94
-26.46
-25.77
-24.87
-23.71
-22.16
-20.12
-17.52
-14.36
-10.68
-6.58
-2.20
2.24
6.51
10.39
13.71
16.46
18.73
20.66
22.31
23.68
24.71
25.36
25.71
25.95
26.25
26.69
27.26
27.80
28.19
28.30
28.12
27.68
27.05
26.29
25.44
24.51
23.47
22.31
21.01
19.60
18.16
16.80
15.56
14.48
13.50
12.59
11.71
10.88
10.12
9.39
8.59
7.59
6.28
4.64
2.76
0.78
-1.14
-2.91
-4.51
-6.00
-7.46
-8.93
-10.41
-11.84
-13.14
-14.18
-14.91
-15.27
-15.31
-15.12
-14.81
-14.48
-14.14
-13.71
-13.06
-12.03
-10.53
-8.57
-6.23
-3.64
-0.92
1.81
4.45
6.91
9.09
10.96
12.55
13.93
15.16
16.25
17.14
17.76
18.07
18.12
18.01
17.87
17.79
17.77
17.75
17.63
17.31
16.72
15.83
14.65
13.23
11.66
10.03
8.38
6.72
5.00
3.12
1.05
-1.18
-3.48
-5.74
-7.85
-9.82
-11.66
-13.35
-14.85
-16.04
-16.82
-17.19
-17.27
-17.25
-17.31
-17.48
-17.67
-17.69
-17.47
-17.02
-16.51
-16.10
-15.86
-15.76
-15.63
-15.37
-14.94
-14.39
-13.78
-13.09
-12.17
-10.86
-9.04
-6.75
-4.11
-1.35
1.34
3.82
6.00
7.86
9.39
10.59
11.49
12.18
12.74
13.26
13.81
14.41
15.09
15.77
16.38
16.80
16.91
16.64
15.98
15.03
13.87
12.60
11.23
9.69
7.93
5.91
3.72
1.52
-0.51
-2.25
-3.66
-4.83
-5.85
-6.78
-7.61
-8.27
-8.65
-8.74
-8.60
-8.37
-8.22
-8.26
-8.46
-8.71
-8.87
-8.88
-8.77
-8.68
-8.72
-8.91
-9.16
-9.29
-9.20
-8.88
-8.45
-8.11
-8.00
-8.15
-8.47
-8.83
-9.06
-9.07
-8.79
-8.22
-7.36
-6.21
-4.87
-3.48
-2.21
-1.23
-0.62
-0.30
-0.18
-0.08
0.06
0.26
0.46
0.62
0.72
0.82
0.93
1.07
1.20
1.31
1.38
1.46
1.63
1.91
2.27
2.66
2.97
3.13
3.15
3.04
2.81
2.46
2.00
1.45
0.86
0.30
-0.19
-0.62
-1.00
-1.38
-1.74
-2.06
-2.29
-2.48
-2.69
-3.04
-3.56
-4.21
-4.81
-5.17
-5.13
-4.67
-3.87
-2.88
-1.86
-0.88
0.02
0.82
1.52
2.08
2.49
2.76
2.93
3.02
3.06
3.03
2.95
2.84
2.73
2.64
2.59
2.56
2.54
2.49
2.42
2.33
2.25
2.18
2.15
2.16
2.17
2.11
1.93
1.60
1.15
0.69
0.33
0.12
0.04
-0.03
-0.23
-0.63
-1.21
-1.87
-2.49
-2.97
-3.32
-3.57
-3.77
-3.94
-4.03
-3.97
-3.73
-3.28
-2.69
-2.01
-1.28
-0.52
0.31
1.19
2.09
2.87
3.41
3.60
3.44
3.00
2.44
1.92
1.53
1.34
1.36
1.56
1.89
2.29
2.67
2.94
3.01
2.86
2.54
2.15
1.77
1.45
1.20
0.98
0.74
0.44
0.08
-0.36
-0.87
-1.45
-2.10
-2.80
-3.51
-4.19
-4.85
-5.51
-6.20
-6.90
-7.57
-8.10
-8.39
-8.37
-8.01
-7.39
-6.63
-5.86
-5.14
-4.51
-3.94
-3.36
-2.74
-2.06
-1.38
-0.73
-0.11
0.54
1.35
2.40
3.66
5.02
6.28
7.28
7.97
8.38
8.66
8.93
9.29
9.72
10.15
10.49
10.64
10.57
10.25
9.69
8.91
7.93
6.80
5.58
4.36
3.22
2.23
1.40
0.70
0.05
-0.63
-1.35
-2.08
-2.73
-3.25
-3.63
-3.89
-4.09
-4.25
-4.35
-4.34
-4.16
-3.84
-3.44
-3.08
-2.82
-2.67
-2.56
-2.49
-2.48
-2.63
-3.06
-3.76
-4.58
-5.31
-5.71
-5.64
-5.15
-4.41
-3.63
-2.97
-2.50
-2.18
-1.92
-1.61
-1.19
-0.61
0.13
0.96
1.79
2.54
3.11
3.43
3.46
3.17
2.61
1.86
1.05
0.29
-0.34
-0.85
-1.30
-1.77
-2.28
-2.81
-3.28
-3.61
-3.77
-3.71
-3.42
-2.86
-2.00
-0.87
0.41
1.65
2.63
3.19
3.27
2.93
2.35
1.71
1.19
0.92
0.94
1.21
1.63
2.04
2.33
2.44
2.42
2.36
2.33
2.35
2.39
2.36
2.22
1.97
1.69
1.45
1.24
1.03
0.74
0.35
-0.10
-0.49
-0.73
-0.75
-0.62
-0.47
-0.43
-0.60
-0.95
-1.40
-1.87
-2.28
-2.59
-2.76
-2.77
-2.59
-2.20
-1.64
-0.96
-0.22
0.54
1.27
1.94
2.47
2.79
2.88
2.81
2.67
2.59
2.59
2.65
2.67
2.62
2.50
2.41
2.41
2.51
2.62
2.62
2.41
2.01
1.52
1.11
0.94
1.05
1.36
1.72
1.94
1.87
1.46
0.76
-0.07
-0.87
-1.49
-1.84
-1.95
-1.91
-1.85
-1.92
-2.19
-2.64
-3.16
-3.61
-3.83
-3.72
-3.28
-2.54
-1.61
-0.62
0.34
1.17
1.84
2.35
2.71
2.95
3.08
3.09
3.03
2.92
2.80
2.71
2.64
2.54
2.41
2.25
2.13
2.11
2.23
2.48
2.77
2.99
3.05
2.91
2.58
2.10
1.55
1.02
0.60
0.37
0.33
0.40
0.47
0.42
0.18
-0.21
-0.67
-1.10
-1.42
-1.65
-1.84
-2.07
-2.37
-2.72
-3.02
-3.18
-3.11
-2.77
-2.21
-1.50
-0.74
-0.00
0.64
1.13
1.42
1.49
1.32
1.00
0.64
0.39
0.35
0.53
0.84
1.16
1.39
1.51
1.55
1.57
1.61
1.64
1.63
1.53
1.34
1.12
0.91
0.76
0.67
0.60
0.52
0.37
0.15
-0.15
-0.48
-0.79
-1.06
-1.26
-1.41
-1.52
-1.55
-1.49
-1.34
-1.16
-1.05
-1.12
-1.43
-1.88
-2.33
-2.58
-2.55
-2.25
-1.79
-1.30
-0.84
-0.40
0.03
0.45
0.81
1.05
1.11
1.01
0.81
0.60
0.46
0.42
0.50
0.65
0.81
0.93
0.98
1.00
1.02
1.09
1.20
1.31
1.34
1.24
1.03
0.77
0.50
0.27
0.06
-0.16
-0.42
-0.71
-1.01
-1.30
-1.55
-1.78
-1.98
-2.15
-2.30
-2.43
-2.57
-2.73
-2.90
-3.08
-3.22
-3.26
-3.14
-2.84
-2.42
-1.93
-1.48
-1.14
-0.94
-0.89
-0.94
-1.05
-1.15
-1.19
-1.13
-1.00
-0.81
-0.62
-0.44
-0.26
-0.04
0.23
0.52
0.74
0.84
0.76
0.55
0.28
0.02
-0.23
-0.47
-0.69
-0.85
-0.92
-0.90
-0.89
-1.01
-1.32
-1.78
-2.22
-2.50
-2.58
-2.56
-2.67
-3.06
-3.77
-4.66
-5.50
-6.12
-6.45
-6.55
-6.55
-6.51
-6.48
-6.44
-6.40
-6.36
-6.32
-6.27
-6.22
-6.16
-6.16
-6.31
-6.68
-7.30
-8.12
-9.06
-10.01
-10.91
-11.72
-12.48
-13.23
-14.06
-15.04
-16.24
-17.62
-19.05
-20.29
-21.08
-21.15
-20.36
-18.73
-16.35
-13.38
-9.99
-6.41
-2.84
0.45
3.25
5.47
7.14
8.49
9.82
11.37
13.24
15.33
17.35
18.97
19.91
20.10
19.62
18.73
17.72
16.81
16.16
15.82
15.75
15.87
16.02
16.05
15.84
15.30
14.48
13.53
12.65
12.00
11.64
11.48
11.31
10.97
10.37
9.58
8.71
7.93
7.28
6.73
6.23
5.68
5.07
4.40
3.74
3.13
2.64
2.27
1.98
1.70
1.35
0.88
0.29
-0.36
-0.96
-1.41
-1.69
-1.81
-1.86
-1.93
-2.08
-2.34
-2.67
-2.98
-3.22
-3.31
-3.28
-3.20
-3.14
-3.18
-3.32
-3.47
-3.51
-3.30
-2.83
-2.14
-1.42
-0.85
-0.56
-0.57
-0.78
-1.01
-1.08
-0.92
-0.57
-0.15
0.19
0.39
0.44
0.47
0.59
0.87
1.29
1.77
2.16
2.37
2.40
2.27
2.07
1.83
1.61
1.44
1.33
1.31
1.36
1.41
1.35
1.08
0.59
-0.07
-0.72
-1.22
-1.47
-1.48
-1.35
-1.18
-1.05
-1.00
-0.99
-0.98
-0.93
-0.79
-0.53
-0.11
0.52
1.36
2.40
3.56
4.75
5.87
6.86
7.70
8.37
8.89
9.22
9.35
9.34
9.28
9.33
9.61
10.16
10.85
11.45
11.64
11.17
9.94
8.04
5.69
3.15
0.64
-1.80
-4.24
-6.82
-9.68
-12.84
-16.22
-19.63
-22.82
-25.54
-27.57
-28.77
-29.06
-28.45
-27.05
-25.04
-22.64
-20.07
-17.56
-15.25
-13.24
-11.50
-9.94
-8.37
-6.58
-4.45
-1.94
0.83
3.62
6.14
8.11
9.41
10.06
10.30
10.40
10.63
11.11
11.80
12.49
12.96
13.10
12.91
12.53
12.09
11.68
11.29
10.84
10.25
9.51
8.65
7.71
6.72
5.70
4.68
3.72
2.85
2.06
1.30
0.52
-0.32
-1.20
-2.04
-2.78
-3.37
-3.84
-4.21
-4.51
-4.75
-4.92
-5.07
-5.24
-5.50
-5.83
-6.20
-6.50
-6.61
-6.49
-6.13
-5.62
-5.03
-4.42
-3.79
-3.14
-2.46
-1.80
-1.24
-0.89
-0.82
-1.01
-1.33
-1.63
-1.76
-1.65
-1.32
-0.86
-0.37
0.06
0.39
0.59
0.69
0.72
0.74
0.80
0.89
0.99
1.06
1.04
0.90
0.64
0.27
-0.17
-0.67
-1.19
-1.68
-2.11
-2.44
-2.65
-2.77
-2.84
-2.92
-2.97
-2.96
-2.79
-2.38
-1.69
-0.75
0.35
1.48
2.52
3.32
3.80
3.89
3.63
3.10
2.48
1.95
1.61
1.50
1.54
1.65
1.74
1.80
1.85
1.94
2.08
2.21
2.27
2.21
2.00
1.68
1.26
0.80
0.33
-0.12
-0.53
-0.89
-1.20
-1.49
-1.81
-2.18
-2.61
-3.09
-3.58
-4.03
-4.39
-4.61
-4.63
-4.39
-3.90
-3.18
-2.34
-1.48
-0.68
-0.01
0.54
0.95
1.21
1.27
1.13
0.81
0.43
0.13
0.05
0.25
0.66
1.17
1.59
1.80
1.80
1.63
1.41
1.28
1.28
1.41
1.55
1.62
1.54
1.30
0.94
0.50
-0.00
-0.58
-1.22
-1.85
-2.42
-2.88
-3.20
-3.43
-3.58
-3.65
-3.58
-3.33
-2.86
-2.22
-1.50
-0.77
-0.06
0.65
1.38
2.06
2.60
2.86
2.80
2.45
1.94
1.45
1.10
0.95
1.01
1.24
1.61
2.10
2.65
3.19
3.60
3.72
3.49
2.92
2.14
1.34
0.68
0.25
-0.00
-0.18
-0.44
-0.85
-1.41
-2.05
-2.67
-3.21
-3.66
-4.02
-4.26
-4.35
-4.18
-3.73
-2.98
-2.02
-0.95
0.11
1.09
1.95
2.67
3.22
3.56
3.65
3.52
3.24
2.93
2.74
2.73
2.90
3.15
3.35
3.43
3.40
3.32
3.30
3.38
3.53
3.66
3.67
3.53
3.24
2.87
2.49
2.14
1.81
1.43
0.93
0.28
-0.55
-1.50
-2.51
-3.45
-4.22
-4.71
-4.84
-4.60
-4.00
-3.13
-2.07
-0.96
0.05
0.85
1.36
1.59
1.66
1.72
1.89
2.21
2.59
2.87
2.93
2.76
2.46
2.21
2.16
2.31
2.55
2.74
2.77
2.65
2.49
2.43
2.51
2.69
2.80
2.71
2.34
1.74
1.08
0.47
-0.04
-0.49
-0.99
-1.64
-2.39
-3.15
-3.72
-3.96
-3.82
-3.38
-2.79
-2.19
-1.67
-1.24
-0.84
-0.41
0.10
0.67
1.25
1.76
2.18
2.47
2.64
2.69
2.62
2.45
2.22
2.05
2.04
2.27
2.70
3.20
3.59
3.71
3.49
3.03
2.48
2.02
1.71
1.54
1.39
1.15
0.78
0.34
-0.08
-0.40
-0.60
-0.74
-0.89
-1.14
-1.50
-1.98
-2.56
-3.17
-3.73
-4.13
-4.27
-4.10
-3.64
-2.96
-2.17
-1.34
-0.51
0.29
1.02
1.61
1.96
2.03
1.83
1.43
1.00
0.68
0.55
0.60
0.75
0.92
1.03
1.12
1.23
1.42
1.66
1.87
1.96
1.85
1.54
1.11
0.64
0.21
-0.16
-0.44
-0.65
-0.77
-0.81
-0.79
-0.78
-0.81
-0.91
-1.06
-1.23
-1.41
-1.60
-1.82
-2.06
-2.23
-2.22
-1.90
-1.26
-0.34
0.70
1.69
2.51
3.12
3.51
3.71
3.76
3.70
3.56
3.39
3.23
3.12
3.07
3.07
3.08
3.09
3.09
3.09
3.09
3.10
3.09
3.03
2.92
2.76
2.57
2.38
2.21
2.07
1.95
1.83
1.68
1.52
1.35
1.19
1.05
0.90
0.70
0.38
-0.06
-0.59
-1.14
-1.61
-1.91
-1.99
-1.85
-1.55
-1.18
-0.83
-0.57
-0.42
-0.35
-0.33
-0.31
-0.28
-0.26
-0.24
-0.17
-0.00
0.34
0.88
1.58
2.34
3.05
3.63
4.05
4.31
4.41
4.36
4.17
3.83
3.33
2.64
1.77
0.74
-0.39
-1.50
-2.46
-3.19
-3.70
-4.08
-4.46
-4.96
-5.60
-6.35
-7.14
-7.94
-8.70
-9.38
-9.88
-10.08
-9.86
-9.21
-8.27
-7.26
-6.39
-5.77
-5.33
-4.96
-4.54
-4.07
-3.68
-3.50
-3.55
-3.71
-3.76
-3.54
-3.00
-2.27
-1.56
-1.02
-0.68
-0.45
-0.22
0.08
0.41
0.68
0.81
0.79
0.70
0.64
0.68
0.83
1.01
1.13
1.12
0.96
0.69
0.36
0.02
-0.30
-0.59
-0.86
-1.15
-1.45
-1.80
-2.20
-2.62
-3.00
-3.24
-3.22
-2.91
-2.30
-1.47
-0.51
0.49
1.49
2.43
3.27
3.92
4.28
4.34
4.15
3.84
3.55
3.37
3.29
3.22
3.11
2.95
2.81
2.80
2.96
3.25
3.53
3.68
3.62
3.39
3.13
2.95
2.94
3.09
3.29
3.46
3.50
3.40
3.16
2.83
2.41
1.92
1.37
0.77
0.17
-0.44
-1.04
-1.68
-2.38
-3.21
-4.17
-5.29
-6.56
-7.91
-9.20
-10.26
-10.91
-11.05
-10.70
-10.00
-9.13
-8.21
-7.32
-6.41
-5.46
-4.46
-3.49
-2.65
-1.98
-1.51
-1.20
-1.00
-0.90
-0.83
-0.71
-0.43
0.08
0.80
1.59
2.22
2.53
2.47
2.15
1.76
1.49
1.38
1.39
1.41
1.35
1.22
1.04
0.83
0.62
0.36
0.07
-0.22
-0.44
-0.52
-0.42
-0.22
-0.01
0.09
-0.01
-0.34
-0.86
-1.45
-2.02
-2.44
-2.67
-2.66
-2.45
-2.02
-1.39
-0.56
0.41
1.36
2.16
2.67
2.86
2.84
2.77
2.79
2.93
3.14
3.28
3.29
3.16
2.95
2.77
2.69
2.72
2.83
2.95
3.08
3.20
3.27
3.23
3.03
2.63
2.11
1.58
1.18
1.00
1.01
1.08
1.08
0.89
0.52
0.07
-0.39
-0.80
-1.19
-1.60
-2.04
-2.48
-2.84
-3.10
-3.26
-3.40
-3.58
-3.81
-4.03
-4.08
-3.82
-3.17
-2.15
-0.86
0.51
1.80
2.86
3.62
4.09
4.33
4.42
4.40
4.28
4.08
3.82
3.54
3.34
3.25
3.28
3.36
3.40
3.34
3.12
2.78
2.37
1.93
1.50
1.08
0.65
0.22
-0.20
-0.64
-1.11
-1.64
-2.22
-2.82
-3.37
-3.79
-4.04
-4.13
-4.12
-4.08
-4.06
-4.04
-4.01
-3.97
-3.96
-4.04
-4.23
-4.46
-4.56
-4.32
-3.58
-2.30
-0.59
1.27
2.97
4.22
4.84
4.74
3.99
2.71
1.09
-0.66
-2.34
-3.80
-4.94
-5.78
-6.40
-6.91
-7.42
-7.96
-8.51
-9.04
-9.50
-9.93
-10.34
-10.75
-11.17
-11.58
-11.94
-12.17
-12.19
-11.89
-11.11
-9.72
-7.61
-4.78
-1.30
2.69
7.05
11.66
16.39
21.11
25.66
29.91
33.73
37.07
39.93
42.33
44.25
45.58
46.11
45.64
43.99
41.13
37.20
32.49
27.37
22.18
17.16
12.43
7.97
3.74
-0.25
-3.92
-7.14
-9.75
-11.69
-13.01
-13.87
-14.42
-14.81
-15.06
-15.18
-15.15
-15.02
-14.85
-14.74
-14.70
-14.70
-14.61
-14.33
-13.77
-12.92
-11.81
-10.46
-8.90
-7.14
-5.23
-3.28
-1.44
0.11
1.19
1.69
1.57
0.92
-0.07
-1.17
-2.14
-2.87
-3.34
-3.67
-3.98
-4.35
-4.78
-5.19
-5.49
-5.64
-5.66
-5.61
-5.51
-5.39
-5.22
-4.97
-4.62
-4.14
-3.49
-2.70
-1.81
-0.91
-0.11
0.50
0.90
1.05
0.94
0.51
-0.28
-1.47
-2.98
-4.64
-6.22
-7.48
-8.22
-8.37
-8.02
-7.35
-6.62
-6.06
-5.78
-5.75
-5.81
-5.79
-5.58
-5.14
-4.54
-3.85
-3.10
-2.30
-1.45
-0.59
0.19
0.81
1.21
1.41
1.47
1.45
1.35
1.14
0.78
0.27
-0.34
-0.94
-1.38
-1.57
-1.50
-1.26
-0.99
-0.87
-1.02
-1.47
-2.17
-2.95
-3.68
-4.24
-4.60
-4.81
-4.92
-4.99
-5.04
-5.02
-4.93
-4.76
-4.55
-4.39
-4.34
-4.41
-4.53
-4.58
-4.44
-3.98
-3.19
-2.09
-0.82
0.50
1.74
2.83
3.75
4.52
5.13
5.56
5.73
5.60
5.19
4.62
4.07
3.67
3.52
3.55
3.66
3.75
3.76
3.71
3.66
3.59
3.45
3.15
2.63
1.89
1.03
0.17
-0.57
-1.12
-1.50
-1.80
-2.12
-2.55
-3.16
-3.94
-4.88
-5.88
-6.83
-7.60
-8.08
-8.19
-7.96
-7.46
-6.82
-6.15
-5.56
-5.11
-4.82
-4.76
-4.97
-5.45
-6.19
-7.09
-8.03
-8.86
-9.49
-9.85
-9.93
-9.74
-9.32
-8.71
-7.96
-7.15
-6.35
-5.59
-4.87
-4.13
-3.27
-2.19
-0.85
0.73
2.44
4.15
5.75
7.20
8.51
9.72
10.85
11.82
12.53
12.90
12.95
12.79
12.57
12.36
12.14
11.80
11.19
10.28
9.14
7.93
6.77
5.66
4.50
3.10
1.40
-0.54
-2.50
-4.24
-5.57
-6.45
-6.94
-7.19
-7.31
-7.30
-7.11
-6.64
-5.89
-4.94
-4.01
-3.28
-2.85
-2.67
-2.53
-2.25
-1.73
-1.05
-0.45
-0.16
-0.29
-0.77
-1.39
-1.90
-2.20
-2.34
-2.50
-2.86
-3.45
-4.10
-4.53
-4.48
-3.82
-2.62
-1.13
0.43
1.90
3.32
4.79
6.43
8.27
10.26
12.33
14.40
16.42
18.35
20.11
21.57
22.62
23.18
23.25
22.92
22.26
21.33
20.11
18.57
16.68
14.51
12.17
9.83
7.61
5.60
3.81
2.23
0.84
-0.36
-1.40
-2.31
-3.16
-3.99
-4.86
-5.79
-6.74
-7.68
-8.55
-9.28
-9.80
-10.05
-9.98
-9.59
-8.93
-8.06
-7.13
-6.24
-5.54
-5.08
-4.88
-4.87
-4.97
-5.03
-4.99
-4.76
-4.33
-3.73
-2.99
-2.20
-1.43
-0.72
-0.08
0.48
0.96
1.32
1.52
1.57
1.51
1.42
1.38
1.39
1.38
1.26
1.00
0.63
0.25
-0.04
-0.22
-0.33
-0.49
-0.75
-1.14
-1.63
-2.17
-2.75
-3.37
-4.05
-4.73
-5.33
-5.71
-5.71
-5.27
-4.40
-3.20
-1.83
-0.46
0.73
1.60
2.07
2.13
1.84
1.35
0.84
0.46
0.29
0.32
0.45
0.58
0.65
0.66
0.69
0.81
1.08
1.47
1.88
2.20
2.35
2.29
2.07
1.78
1.51
1.26
1.01
0.71
0.31
-0.18
-0.68
-1.13
-1.45
-1.64
-1.75
-1.87
-2.08
-2.42
-2.88
-3.40
-3.92
-4.36
-4.67
-4.79
-4.64
-4.14
-3.27
-2.09
-0.75
0.53
1.55
2.24
2.57
2.61
2.43
2.07
1.58
1.04
0.57
0.29
0.32
0.64
1.18
1.78
2.27
2.53
2.56
2.40
2.18
1.99
1.86
1.78
1.66
1.43
1.10
0.74
0.46
0.34
0.37
0.46
0.48
0.32
-0.06
-0.61
-1.24
-1.86
-2.40
-2.81
-3.12
-3.38
-3.64
-3.91
-4.13
-4.19
-3.98
-3.43
-2.60
-1.63
-0.69
0.09
0.68
1.14
1.55
1.96
2.36
2.70
2.94
3.03
2.96
2.74
2.42
2.09
1.85
1.77
1.86
2.07
2.30
2.49
2.60
2.66
2.70
2.72
2.68
2.54
2.28
1.98
1.69
1.48
1.33
1.16
0.89
0.49
-0.01
-0.54
-1.02
-1.40
-1.67
-1.87
-2.05
-2.26
-2.56
-3.00
-3.54
-4.09
-4.49
-4.59
-4.29
-3.60
-2.64
-1.61
-0.68
0.03
0.47
0.70
0.79
0.84
0.93
1.12
1.44
1.85
2.27
2.62
2.80
2.80
2.70
2.65
2.76
3.03
3.39
3.65
3.67
3.39
2.86
2.21
1.62
1.18
0.93
0.82
0.77
0.67
0.48
0.17
-0.23
-0.68
-1.12
-1.54
-1.92
-2.25
-2.52
-2.72
-2.85
-2.96
-3.07
-3.24
-3.49
-3.82
-4.15
-4.40
-4.46
-4.23
-3.66
-2.77
-1.65
-0.45
0.65
1.52
2.10
2.41
2.51
2.52
2.54
2.61
2.74
2.90
3.06
3.18
3.27
3.36
3.44
3.52
3.55
3.51
3.39
3.19
2.93
2.64
2.30
1.91
1.50
1.10
0.79
0.64
0.69
0.89
1.13
1.28
1.22
0.91
0.37
-0.29
-0.98
-1.61
-2.13
-2.59
-3.06
-3.61
-4.25
-4.93
-5.47
-5.71
-5.57
-5.09
-4.40
-3.67
-2.99
-2.34
-1.68
-0.98
-0.33
0.14
0.34
0.26
0.06
-0.06
0.07
0.50
1.11
1.74
2.21
2.46
2.53
2.53
2.58
2.73
2.97
3.21
3.36
3.35
3.20
2.97
2.73
2.49
2.27
2.02
1.76
1.48
1.22
0.97
0.70
0.38
-0.03
-0.52
-1.08
-1.66
-2.27
-2.88
-3.48
-4.02
-4.47
-4.80
-4.99
-5.04
-4.95
-4.68
-4.21
-3.50
-2.61
-1.64
-0.70
0.08
0.65
1.00
1.16
1.17
1.11
1.05
1.05
1.15
1.35
1.62
1.89
2.11
2.27
2.38
2.47
2.59
2.74
2.92
3.09
3.21
3.18
2.97
2.53
1.95
1.30
0.67
0.16
-0.21
-0.46
-0.62
-0.78
-1.00
-1.33
-1.79
-2.36
-2.99
-3.60
-4.14
-4.57
-4.86
-4.94
-4.75
-4.23
-3.39
-2.34
-1.27
-0.37
0.26
0.61
0.80
0.93
1.07
1.21
1.29
1.24
1.06
0.80
0.54
0.40
0.44
0.67
1.07
1.52
1.93
2.23
2.38
2.41
2.38
2.32
2.25
2.16
2.04
1.84
1.52
1.06
0.48
-0.18
-0.79
-1.27
-1.55
-1.65
-1.68
-1.75
-1.98
-2.36
-2.86
-3.41
-3.94
-4.39
-4.73
-4.90
-4.85
-4.48
-3.78
-2.78
-1.59
-0.38
0.68
1.47
1.94
2.14
2.15
2.05
1.88
1.66
1.40
1.18
1.09
1.26
1.73
2.44
3.24
3.95
4.42
4.65
4.70
4.70
4.73
4.81
4.83
4.69
4.31
3.74
3.08
2.51
2.15
2.04
2.12
2.22
2.17
1.83
1.15
0.22
-0.83
-1.81
-2.59
-3.10
-3.36
-3.45
-3.50
-3.58
-3.75
-3.98
-4.24
-4.49
-4.72
-4.98
-5.32
-5.74
-6.16
-6.42
-6.41
-6.07
-5.46
-4.70
-3.89
-3.07
-2.23
-1.32
-0.33
0.65
1.49
2.07
2.34
2.37
2.26
2.12
2.03
2.01
2.06
2.17
2.33
2.54
2.77
3.01
3.19
3.27
3.25
3.13
2.92
2.65
2.36
2.06
1.78
1.48
1.15
0.73
0.24
-0.29
-0.77
-1.11
-1.30
-1.40
-1.50
-1.71
-2.09
-2.65
-3.33
-3.99
-4.49
-4.69
-4.52
-4.00
-3.24
-2.41
-1.66
-1.06
-0.61
-0.23
0.17
0.62
1.08
1.48
1.71
1.77
1.67
1.51
1.37
1.30
1.33
1.41
1.53
1.66
1.82
2.01
2.23
2.44
2.59
2.65
2.59
2.43
2.21
1.92
1.58
1.19
0.77
0.37
0.03
-0.24
-0.47
-0.71
-1.03
-1.46
-2.00
-2.58
-3.13
-3.57
-3.86
-4.01
-4.04
-3.93
-3.65
-3.15
-2.43
-1.53
-0.58
0.28
0.93
1.34
1.55
1.67
1.78
1.91
2.04
2.12
2.14
2.09
2.04
2.05
2.13
2.30
2.50
2.70
2.87
3.00
3.09
3.12
3.08
2.94
2.67
2.25
1.69
1.05
0.43
-0.07
-0.41
-0.58
-0.67
-0.77
-0.98
-1.31
-1.73
-2.19
-2.66
-3.18
-3.77
-4.46
-5.17
-5.78
-6.13
-6.07
-5.57
-4.69
-3.59
-2.45
-1.41
-0.55
0.17
0.80
1.38
1.90
2.28
2.43
2.31
2.00
1.61
1.30
1.18
1.30
1.62
2.06
2.53
2.96
3.30
3.51
3.57
3.44
3.11
2.64
2.11
1.64
1.34
1.25
1.34
1.47
1.50
1.30
0.83
0.15
-0.61
-1.31
-1.86
-2.22
-2.46
-2.67
-2.95
-3.35
-3.83
-4.29
-4.60
-4.65
-4.39
-3.83
-3.04
-2.11
-1.16
-0.29
0.45
1.04
1.49
1.81
2.00
2.09
2.07
1.98
1.84
1.70
1.59
1.55
1.59
1.77
2.09
2.49
2.87
3.14
3.20
3.07
2.83
2.58
2.38
2.21
2.01
1.71
1.29
0.82
0.36
0.01
-0.20
-0.32
-0.43
-0.59
-0.87
-1.25
-1.67
-2.09
-2.46
-2.80
-3.14
-3.53
-3.91
-4.19
-4.28
-4.07
-3.57
-2.83
-1.97
-1.09
-0.29
0.40
0.96
1.39
1.68
1.85
1.93
1.97
2.06
2.24
2.52
2.86
3.15
3.32
3.33
3.24
3.12
3.06
3.11
3.24
3.37
3.41
3.28
2.97
2.48
1.84
1.10
0.32
-0.42
-1.07
-1.61
-2.02
-2.31
-2.53
-2.74
-3.00
-3.39
-3.89
-4.47
-5.03
-5.45
-5.69
-5.76
-5.70
-5.57
-5.36
-5.02
-4.46
-3.70
-2.78
-1.89
-1.19
-0.75
-0.54
-0.40
-0.15
0.31
0.95
1.63
2.18
2.49
2.57
2.52
2.44
2.42
2.49
2.64
2.84
3.07
3.29
3.47
3.59
3.63
3.58
3.43
3.18
2.81
2.33
1.81
1.33
1.00
0.89
0.97
1.13
1.24
1.18
0.92
0.51
-0.01
-0.59
-1.21
-1.83
-2.37
-2.71
-2.72
-2.32
-1.54
-0.50
0.61
1.63
2.45
3.07
3.50
3.73
3.72
3.41
2.78
1.86
0.74
-0.48
-1.70
-2.86
-3.90
-4.77
-5.37
-5.65
-5.57
-5.21
-4.70
-4.23
-3.95
-3.94
-4.21
-4.70
-5.32
-5.99
-6.57
-6.92
-6.89
-6.39
-5.38
-3.92
-2.19
-0.39
1.27
2.62
3.58
4.13
4.28
4.08
3.60
2.91
2.11
1.28
0.55
-0.02
-0.38
-0.57
-0.64
-0.68
-0.73
-0.77
-0.77
-0.69
-0.56
-0.47
-0.46
-0.54
-0.57
-0.39
0.16
1.16
2.53
4.11
5.67
7.03
8.09
8.81
9.25
9.45
9.49
9.36
9.04
8.50
7.78
6.94
6.12
5.41
4.83
4.30
3.72
2.99
2.12
1.22
0.42
-0.15
-0.50
-0.69
-0.85
-1.09
-1.44
-1.90
-2.37
-2.79
-3.09
-3.22
-3.18
-3.00
-2.70
-2.36
-2.06
-1.91
-1.97
-2.29
-2.82
-3.45
-4.07
-4.54
-4.80
-4.83
-4.67
-4.38
-4.05
-3.75
-3.49
-3.30
-3.18
-3.13
-3.12
-3.17
-3.23
-3.26
-3.19
-2.95
-2.49
-1.84
-1.07
-0.32
0.28
0.59
0.58
0.29
-0.17
-0.68
-1.10
-1.38
-1.50
-1.54
-1.58
-1.75
-2.10
-2.60
-3.14
-3.55
-3.71
-3.55
-3.13
-2.52
-1.83
-1.12
-0.45
0.17
0.69
1.07
1.32
1.51
1.71
2.03
2.45
2.92
3.34
3.62
3.77
3.87
4.03
4.32
4.74
5.22
5.62
5.83
5.77
5.47
5.00
4.49
4.02
3.61
3.20
2.74
2.18
1.58
1.04
0.63
0.37
0.18
-0.07
-0.47
-1.03
-1.66
-2.25
-2.67
-2.89
-2.90
-2.71
-2.34
-1.79
-1.08
-0.24
0.70
1.70
2.67
3.52
4.14
4.44
4.38
4.00
3.43
2.86
2.41
2.16
2.08
2.08
2.05
1.93
1.71
1.44
1.19
1.00
0.90
0.86
0.85
0.86
0.86
0.81
0.61
0.13
-0.72
-1.94
-3.36
-4.68
-5.61
-5.98
-5.88
-5.55
-5.31
-5.34
-5.65
-6.11
-6.53
-6.82
-6.97
-7.02
-6.96
-6.73
-6.20
-5.33
-4.18
-2.94
-1.81
-0.93
-0.33
0.06
0.34
0.58
0.81
1.03
1.21
1.37
1.50
1.62
1.75
1.87
1.99
2.09
2.18
2.28
2.43
2.63
2.87
3.07
3.13
2.97
2.60
2.08
1.56
1.15
0.90
0.76
0.67
0.54
0.32
-0.00
-0.43
-0.94
-1.50
-2.07
-2.56
-2.91
-3.09
-3.10
-2.98
-2.75
-2.40
-1.95
-1.41
-0.84
-0.27
0.25
0.76
1.27
1.74
2.09
2.25
2.16
1.87
1.54
1.31
1.27
1.41
1.59
1.71
1.73
1.69
1.67
1.74
1.86
1.97
1.96
1.77
1.43
1.01
0.64
0.39
0.29
0.27
0.24
0.10
-0.21
-0.63
-1.09
-1.51
-1.85
-2.16
-2.53
-3.00
-3.53
-3.99
-4.20
-4.06
-3.57
-2.85
-2.05
-1.34
-0.79
-0.40
-0.12
0.12
0.36
0.63
0.89
1.10
1.23
1.28
1.30
1.37
1.52
1.71
1.91
2.05
2.13
2.19
2.25
2.28
2.24
2.07
1.76
1.36
0.95
0.58
0.25
-0.06
-0.37
-0.71
-1.02
-1.30
-1.50
-1.65
-1.81
-2.02
-2.31
-2.67
-3.04
-3.36
-3.56
-3.62
-3.57
-3.43
-3.23
-2.96
-2.57
-2.05
-1.40
-0.70
-0.02
0.57
1.04
1.41
1.70
1.92
2.06
2.12
2.07
1.93
1.73
1.52
1.36
1.29
1.28
1.31
1.34
1.37
1.45
1.65
2.02
2.48
2.92
3.16
3.05
2.53
1.65
0.59
-0.45
-1.25
-1.66
-1.66
-1.39
-1.06
-0.90
-1.06
-1.51
-2.14
-2.77
-3.34
-3.83
-4.27
-4.62
-4.74
-4.45
-3.67
-2.51
-1.22
-0.11
0.60
0.91
0.98
0.98
1.01
1.08
1.11
1.06
1.00
1.04
1.28
1.72
2.23
2.63
2.78
2.66
2.40
2.16
2.08
2.19
2.38
2.52
2.48
2.23
1.85
1.45
1.10
0.87
0.74
0.68
0.62
0.51
0.26
-0.21
-0.91
-1.81
-2.81
-3.76
-4.53
-5.03
-5.23
-5.14
-4.84
-4.35
-3.73
-3.00
-2.20
-1.36
-0.52
0.23
0.86
1.33
1.66
1.88
2.06
2.24
2.42
2.57
2.70
2.80
2.91
3.06
3.23
3.35
3.35
3.19
2.87
2.47
2.12
1.89
1.82
1.86
1.92
1.90
1.77
1.54
1.23
0.88
0.54
0.25
0.01
-0.16
-0.27
-0.39
-0.58
-0.95
-1.57
-2.44
-3.45
-4.42
-5.10
-5.29
-4.91
-4.05
-2.93
-1.79
-0.85
-0.15
0.34
0.74
1.14
1.50
1.77
1.87
1.82
1.68
1.57
1.55
1.61
1.71
1.79
1.85
1.89
1.98
2.09
2.19
2.21
2.10
1.84
1.46
1.01
0.56
0.13
-0.21
-0.45
-0.58
-0.62
-0.61
-0.62
-0.68
-0.82
-1.05
-1.36
-1.75
-2.20
-2.68
-3.16
-3.63
-4.06
-4.43
-4.63
-4.55
-4.09
-3.23
-2.09
-0.83
0.34
1.28
1.95
2.41
2.72
2.92
2.97
2.84
2.52
2.07
1.63
1.32
1.23
1.35
1.58
1.84
2.06
2.22
2.36
2.50
2.64
2.71
2.64
2.38
1.95
1.42
0.90
0.47
0.18
0.00
-0.15
-0.34
-0.66
-1.08
-1.55
-2.00
-2.37
-2.69
-3.02
-3.41
-3.81
-4.09
-4.08
-3.69
-2.97
-2.05
-1.16
-0.44
0.07
0.44
0.77
1.11
1.45
1.71
1.80
1.72
1.51
1.25
1.08
1.05
1.15
1.31
1.40
1.37
1.25
1.14
1.13
1.27
1.47
1.63
1.66
1.55
1.36
1.20
1.07
0.94
0.73
0.40
-0.04
-0.52
-0.96
-1.33
-1.61
-1.85
-2.08
-2.37
-2.73
-3.15
-3.57
-3.84
-3.81
-3.43
-2.75
-1.92
-1.15
-0.54
-0.10
0.28
0.70
1.20
1.71
2.09
2.23
2.09
1.77
1.46
1.34
1.51
1.93
2.46
2.87
3.01
2.83
2.44
2.01
1.68
1.51
1.46
1.42
1.33
1.15
0.91
0.63
0.33
0.00
-0.36
-0.78
-1.23
-1.69
-2.12
-2.49
-2.77
-2.98
-3.13
-3.27
-3.41
-3.55
-3.59
-3.45
-3.05
-2.39
-1.60
-0.83
-0.21
0.17
0.34
0.36
0.34
0.33
0.41
0.58
0.85
1.18
1.51
1.77
1.90
1.89
1.78
1.63
1.49
1.40
1.38
1.40
1.47
1.53
1.56
1.50
1.33
1.06
0.70
0.32
-0.06
-0.46
-0.91
-1.43
-2.00
-2.58
-3.09
-3.46
-3.71
-3.91
-4.17
-4.55
-5.03
-5.51
-5.84
-5.90
-5.66
-5.21
-4.66
-4.13
-3.66
-3.25
-2.89
-2.57
-2.31
-2.15
-2.06
-1.99
-1.84
-1.57
-1.14
-0.60
0.00
0.63
1.29
1.99
2.76
3.56
4.33
4.99
5.53
5.95
6.29
6.56
6.73
6.72
6.47
5.97
5.26
4.46
3.72
3.17
2.94
3.03
3.38
3.80
4.07
3.99
3.47
2.52
1.24
-0.21
-1.63
-2.88
-3.80
-4.28
-4.30
-3.92
-3.32
-2.69
-2.18
-1.83
-1.57
-1.35
-1.12
-0.92
-0.83
-0.84
-0.91
-0.93
-0.79
-0.49
-0.10
0.26
0.51
0.65
0.74
0.87
1.07
1.35
1.65
1.94
2.19
2.41
2.57
2.62
2.53
2.29
1.96
1.60
1.27
1.01
0.81
0.63
0.44
0.20
-0.11
-0.50
-0.99
-1.57
-2.18
-2.75
-3.20
-3.55
-3.83
-4.09
-4.28
-4.28
-3.99
-3.36
-2.49
-1.58
-0.79
-0.24
0.12
0.38
0.62
0.82
0.94
0.92
0.80
0.62
0.48
0.39
0.32
0.20
0.03
-0.16
-0.28
-0.28
-0.13
0.14
0.47
0.78
1.02
1.12
1.05
0.82
0.48
0.11
-0.21
-0.42
-0.53
-0.56
-0.54
-0.48
-0.38
-0.21
-0.06
-0.01
-0.19
-0.64
-1.34
-2.19
-3.06
-3.87
-4.55
-5.04
-5.28
-5.19
-4.74
-3.92
-2.84
-1.70
-0.68
0.04
0.44
0.60
0.68
0.81
1.02
1.24
1.34
1.21
0.84
0.36
-0.02
-0.12
0.12
0.61
1.19
1.67
1.95
2.05
2.03
1.99
1.99
2.03
2.05
2.01
1.86
1.61
1.32
1.04
0.85
0.78
0.78
0.76
0.63
0.33
-0.17
-0.81
-1.51
-2.21
-2.87
-3.47
-3.99
-4.37
-4.53
-4.38
-3.88
-3.06
-2.03
-0.94
0.07
0.90
1.49
1.82
1.89
1.72
1.38
0.98
0.63
0.43
0.46
0.74
1.25
1.92
2.63
3.28
3.75
3.97
3.91
3.62
3.17
2.69
2.25
1.92
1.70
1.53
1.36
1.10
0.71
0.22
-0.30
-0.75
-1.05
-1.23
-1.35
-1.48
-1.67
-1.91
-2.14
-2.37
-2.61
-2.90
-3.25
-3.59
-3.82
-3.79
-3.43
-2.75
-1.87
-0.96
-0.15
0.50
1.00
1.39
1.70
1.93
2.04
2.03
1.92
1.78
1.73
1.83
2.08
2.44
2.77
2.99
3.02
2.84
2.53
2.21
2.01
2.05
2.32
2.69
2.93
2.82
2.29
1.44
0.51
-0.24
-0.68
-0.83
-0.84
-0.88
-1.03
-1.27
-1.51
-1.77
-2.10
-2.58
-3.24
-3.92
-4.40
-4.47
-4.04
-3.22
-2.21
-1.22
-0.37
0.34
0.97
1.52
1.96
2.23
2.29
2.20
2.05
1.95
1.94
1.99
2.06
2.13
2.21
2.35
2.55
2.78
2.96
2.99
2.86
2.60
2.28
1.96
1.69
1.43
1.14
0.82
0.48
0.16
-0.08
-0.28
-0.48
-0.74
-1.10
-1.56
-2.10
-2.71
-3.39
-4.10
-4.76
-5.23
-5.35
-5.03
-4.31
-3.35
-2.32
-1.36
-0.52
0.20
0.80
1.25
1.51
1.57
1.54
1.53
1.65
1.88
2.08
2.12
1.97
1.73
1.58
1.68
2.02
2.48
2.84
2.98
2.86
2.57
2.21
1.85
1.48
1.09
0.67
0.26
-0.08
-0.30
-0.42
-0.45
-0.44
-0.43
-0.45
-0.57
-0.85
-1.34
-1.97
-2.66
-3.23
-3.55
-3.54
-3.23
-2.76
-2.23
-1.72
-1.23
-0.70
-0.10
0.56
1.21
1.74
2.05
2.11
1.95
1.65
1.30
1.01
0.83
0.81
0.94
1.20
1.53
1.82
2.01
2.05
1.96
1.78
1.58
1.41
1.29
1.23
1.21
1.19
1.15
1.06
0.90
0.70
0.47
0.25
0.06
-0.13
-0.36
-0.73
-1.28
-1.98
-2.70
-3.25
-3.44
-3.15
-2.43
-1.48
-0.54
0.16
0.54
0.63
0.56
0.49
0.50
0.61
0.78
0.91
0.93
0.81
0.57
0.30
0.11
0.11
0.33
0.72
1.16
1.51
1.68
1.65
1.48
1.24
1.01
0.79
0.58
0.31
-0.01
-0.38
-0.71
-0.93
-1.01
-0.96
-0.87
-0.83
-0.93
-1.20
-1.60
-2.08
-2.52
-2.86
-3.02
-2.99
-2.77
-2.38
-1.89
-1.36
-0.85
-0.41
-0.07
0.20
0.45
0.72
1.06
1.45
1.81
2.05
2.11
1.97
1.69
1.36
1.05
0.86
0.81
0.92
1.21
1.67
2.20
2.70
2.99
2.97
2.62
2.02
1.35
0.76
0.34
0.09
-0.06
-0.20
-0.39
-0.64
-0.92
-1.18
-1.41
-1.62
-1.83
-2.09
-2.41
-2.79
-3.19
-3.55
-3.77
-3.80
-3.56
-3.06
-2.32
-1.44
-0.56
0.20
0.76
1.08
1.23
1.26
1.24
1.20
1.17
1.15
1.18
1.26
1.41
1.60
1.77
1.85
1.80
1.61
1.34
1.05
0.83
0.75
0.83
1.01
1.20
1.26
1.11
0.76
0.30
-0.15
-0.55
-0.89
-1.25
-1.67
-2.13
-2.55
-2.85
-3.02
-3.09
-3.15
-3.20
-3.24
-3.19
-3.02
-2.75
-2.40
-2.01
-1.61
-1.18
-0.71
-0.20
0.35
0.95
1.54
2.07
2.42
2.48
2.20
1.63
0.90
0.25
-0.18
-0.35
-0.31
-0.21
-0.11
-0.05
0.01
0.10
0.19
0.22
0.09
-0.24
-0.75
-1.34
-1.90
-2.34
-2.65
-2.85
-2.99
-3.07
-3.10
-3.08
-3.06
-3.10
-3.28
-3.55
-3.81
-3.86
-3.57
-2.88
-1.87
-0.69
0.50
1.60
2.58
3.44
4.19
4.76
5.11
5.20
5.05
4.72
4.30
3.87
3.51
3.21
2.99
2.83
2.73
2.69
2.74
2.91
3.15
3.43
3.61
3.59
3.27
2.62
1.70
0.64
-0.46
-1.45
-2.28
-2.90
-3.30
-3.52
-3.65
-3.77
-3.93
-4.13
-4.31
-4.38
-4.25
-3.88
-3.28
-2.53
-1.68
-0.78
0.10
0.93
1.65
2.22
2.62
2.88
3.04
3.13
3.15
3.05
2.79
2.31
1.64
0.82
-0.05
-0.91
-1.73
-2.55
-3.41
-4.35
-5.36
-6.35
-7.24
-7.96
-8.55
-9.13
-9.84
-10.81
-12.04
-13.47
-15.00
-16.50
-17.94
-19.38
-20.88
-22.51
-24.30
-26.21
-28.16
-30.09
-31.91
-33.51
-34.63
-34.87
-33.74
-30.80
-25.85
-19.02
-10.69
-1.34
8.68
19.17
30.03
41.07
51.84
61.67
69.85
75.85
79.41
80.59
79.57
76.60
71.89
65.69
58.34
50.30
42.07
34.16
26.96
20.69
15.40
11.01
7.31
4.07
1.10
-1.70
-4.33
-6.78
-9.05
-11.22
-13.39
-15.66
-18.02
-20.34
-22.41
-23.98
-24.88
-25.11
-24.80
-24.22
-23.61
-23.16
-22.95
-22.89
-22.83
-22.60
-22.05
-21.13
-19.85
-18.27
-16.47
-14.58
-12.71
-10.97
-9.48
-8.30
-7.44
-6.82
-6.33
-5.83
-5.19
-4.35
-3.31
-2.16
-1.02
0.03
0.94
1.69
2.30
2.82
3.25
3.62
3.96
4.30
4.67
5.09
5.55
5.99
6.34
6.53
6.50
6.27
5.91
5.47
5.03
4.55
3.97
3.15
2.01
0.54
-1.16
-2.90
-4.53
-5.92
-7.05
-7.93
-8.53
-8.78
-8.56
-7.77
-6.45
-4.80
-3.11
-1.72
-0.82
-0.45
-0.50
-0.78
-1.11
-1.37
-1.51
-1.51
-1.40
-1.17
-0.88
-0.60
-0.37
-0.22
-0.12
-0.03
0.10
0.32
0.63
1.01
1.44
1.84
2.11
2.12
1.80
1.16
0.26
-0.77
-1.82
-2.85
-3.80
-4.66
-5.40
-5.99
-6.46
-6.84
-7.23
-7.68
-8.20
-8.68
-8.97
-8.94
-8.50
-7.66
-6.48
-5.07
-3.55
-2.02
-0.55
0.79
1.92
2.80
3.36
3.54
3.33
2.74
1.88
0.95
0.16
-0.28
-0.24
0.28
1.21
2.41
3.76
5.17
6.57
7.93
9.22
10.42
11.46
12.30
12.91
13.25
13.33
13.19
12.89
12.48
11.98
11.40
10.70
9.90
9.03
8.14
7.26
6.39
5.49
4.51
3.44
2.31
1.18
0.08
-0.96
-1.97
-2.96
-3.93
-4.81
-5.53
-5.99
-6.13
-5.94
-5.45
-4.70
-3.72
-2.54
-1.21
0.16
1.43
2.48
3.22
3.70
4.02
4.38
4.92
5.71
6.74
7.90
9.10
10.22
11.18
11.90
12.35
12.50
12.42
12.21
11.99
11.79
11.57
11.22
10.62
9.74
8.69
7.63
6.73
6.03
5.45
4.89
4.22
3.40
2.45
1.36
0.11
-1.35
-3.08
-5.09
-7.28
-9.55
-11.76
-13.80
-15.63
-17.23
-18.57
-19.63
-20.37
-20.79
-20.93
-20.88
-20.75
-20.67
-20.75
-20.97
-21.27
-21.47
-21.42
-21.04
-20.31
-19.35
-18.23
-16.97
-15.49
-13.66
-11.39
-8.70
-5.77
-2.84
-0.17
2.07
3.81
5.09
5.98
6.59
7.04
7.44
7.84
8.29
8.77
9.21
9.53
9.60
9.31
8.56
7.34
5.78
4.08
2.53
1.35
0.66
0.48
0.72
1.25
1.97
2.76
3.50
4.03
4.23
4.04
3.52
2.87
2.30
1.99
1.95
2.07
2.15
2.06
1.81
1.54
1.46
1.73
2.36
3.22
4.05
4.66
4.95
4.96
4.80
4.60
4.38
4.16
3.89
3.60
3.33
3.16
3.13
3.19
3.22
3.08
2.65
1.89
0.86
-0.33
-1.54
-2.62
-3.46
-3.99
-4.15
-3.99
-3.56
-2.97
-2.32
-1.69
-1.11
-0.63
-0.27
-0.08
-0.10
-0.35
-0.81
-1.44
-2.17
-2.93
-3.64
-4.25
-4.68
-4.90
-4.91
-4.78
-4.59
-4.48
-4.53
-4.82
-5.33
-6.02
-6.79
-7.51
-8.10
-8.51
-8.72
-8.74
-8.52
-7.97
-6.98
-5.45
-3.42
-1.01
1.55
4.05
6.37
8.46
10.33
12.00
13.43
14.62
15.60
16.39
17.03
17.45
17.49
16.95
15.75
13.94
11.72
9.38
7.18
5.31
3.83
2.74
1.96
1.41
0.96
0.49
-0.10
-0.83
-1.67
-2.57
-3.46
-4.30
-5.08
-5.75
-6.30
-6.70
-7.01
-7.32
-7.75
-8.36
-9.09
-9.80
-10.27
-10.38
-10.10
-9.51
-8.77
-7.92
-6.97
-5.77
-4.22
-2.27
-0.02
2.27
4.29
5.73
6.44
6.43
5.89
5.13
4.47
4.12
4.15
4.47
4.92
5.36
5.72
6.05
6.39
6.76
7.07
7.18
6.93
6.29
5.30
4.07
2.70
1.23
-0.35
-2.02
-3.68
-5.17
-6.31
-6.98
-7.21
-7.11
-6.90
-6.75
-6.76
-6.93
-7.16
-7.37
-7.48
-7.51
-7.47
-7.44
-7.43
-7.48
-7.62
-7.91
-8.43
-9.20
-10.14
-11.08
-11.75
-11.94
-11.51
-10.41
-8.72
-6.52
-3.90
-1.00
2.01
4.93
7.55
9.70
11.29
12.30
12.76
12.76
12.38
11.78
11.11
10.49
10.00
9.65
9.44
9.29
9.16
9.01
8.77
8.39
7.78
6.92
5.86
4.70
3.58
2.62
1.87
1.35
0.98
0.69
0.37
-0.02
-0.49
-1.01
-1.49
-1.92
-2.29
-2.65
-3.05
-3.47
-3.80
-3.90
-3.65
-3.00
-2.04
-0.93
0.15
1.05
1.72
2.17
2.46
2.66
2.80
2.91
2.96
2.91
2.71
2.31
1.75
1.08
0.40
-0.18
-0.60
-0.83
-0.86
-0.75
-0.56
-0.36
-0.25
-0.32
-0.57
-0.93
-1.28
-1.48
-1.47
-1.27
-0.96
-0.66
-0.44
-0.31
-0.23
-0.18
-0.16
-0.21
-0.37
-0.67
-1.07
-1.49
-1.79
-1.88
-1.68
-1.24
-0.67
-0.10
0.34
0.58
0.66
0.64
0.61
0.57
0.52
0.38
0.12
-0.29
-0.81
-1.37
-1.90
-2.33
-2.61
-2.74
-2.73
-2.61
-2.40
-2.13
-1.84
-1.59
-1.45
-1.46
-1.60
-1.84
-2.11
-2.38
-2.64
-2.92
-3.23
-3.58
-3.89
-4.03
-3.91
-3.50
-2.89
-2.23
-1.69
-1.34
-1.13
-0.97
-0.72
-0.35
0.10
0.54
0.91
1.27
1.74
2.49
3.58
5.02
6.70
8.49
10.22
11.78
13.05
13.96
14.50
14.71
14.63
14.33
13.82
13.11
12.23
11.27
10.32
9.50
8.81
8.19
7.52
6.69
5.63
4.40
3.10
1.86
0.77
-0.15
-0.95
-1.69
-2.46
-3.33
-4.33
-5.49
-6.77
-8.08
-9.31
-10.33
-11.03
-11.37
-11.40
-11.18
-10.79
-10.29
-9.70
-9.06
-8.39
-7.79
-7.32
-7.02
-6.87
-6.80
-6.69
-6.41
-5.89
-5.08
-4.06
-2.95
-1.92
-1.10
-0.52
-0.11
0.23
0.62
1.05
1.46
1.69
1.64
1.30
0.77
0.18
-0.31
-0.62
-0.78
-0.86
-0.97
-1.20
-1.63
-2.25
-3.02
-3.80
-4.43
-4.75
-4.67
-4.20
-3.46
-2.65
-1.91
-1.31
-0.82
-0.40
-0.01
0.30
0.46
0.40
0.12
-0.28
-0.68
-0.94
-1.01
-0.91
-0.72
-0.54
-0.43
-0.42
-0.51
-0.64
-0.79
-0.88
-0.90
-0.87
-0.82
-0.83
-0.93
-1.14
-1.41
-1.66
-1.82
-1.84
-1.78
-1.75
-1.85
-2.14
-2.56
-2.97
-3.20
-3.14
-2.75
-2.13
-1.38
-0.59
0.19
0.93
1.58
2.04
2.22
2.10
1.77
1.37
1.05
0.90
0.91
0.98
0.98
0.85
0.58
0.17
-0.31
-0.83
-1.33
-1.74
-2.00
-2.10
-2.08
-2.05
-2.12
-2.34
-2.72
-3.17
-3.59
-3.91
-4.08
-4.06
-3.81
-3.33
-2.60
-1.72
-0.80
0.06
0.78
1.38
1.95
2.58
3.33
4.20
5.07
5.81
6.27
6.37
6.11
5.59
4.93
4.23
3.55
2.87
2.15
1.40
0.66
0.06
-0.33
-0.48
-0.45
-0.34
-0.21
-0.11
-0.04
-0.00
-0.01
-0.09
-0.22
-0.33
-0.34
-0.19
0.08
0.35
0.44
0.19
-0.45
-1.47
-2.74
-4.09
-5.31
-6.22
-6.68
-6.61
-6.07
-5.16
-4.05
-2.89
-1.78
-0.77
0.16
1.02
1.83
2.55
3.17
3.64
3.97
4.14
4.20
4.19
4.16
4.16
4.20
4.24
4.23
4.14
3.94
3.70
3.47
3.29
3.17
3.01
2.72
2.22
1.51
0.68
-0.13
-0.77
-1.13
-1.20
-1.05
-0.78
-0.48
-0.27
-0.22
-0.37
-0.71
-1.17
-1.66
-2.08
-2.42
-2.69
-2.93
-3.09
-3.10
-2.81
-2.15
-1.17
-0.04
1.02
1.84
2.40
2.76
3.08
3.41
3.74
4.00
4.13
4.13
4.08
4.04
4.08
4.16
4.27
4.36
4.45
4.56
4.69
4.82
4.86
4.70
4.28
3.61
2.76
1.88
1.10
0.53
0.20
0.08
0.09
0.12
0.09
-0.03
-0.21
-0.40
-0.48
-0.41
-0.18
0.13
0.37
0.41
0.19
-0.26
-0.82
-1.36
-1.80
-2.08
-2.24
-2.29
-2.20
-1.91
-1.38
-0.66
0.13
0.79
1.19
1.27
1.11
0.86
0.64
0.47
0.32
0.12
-0.15
-0.44
-0.67
-0.77
-0.68
-0.43
0.00
0.61
1.40
2.32
3.30
4.22
4.98
5.49
5.75
5.77
5.58
5.22
4.72
4.14
3.52
2.90
2.27
1.61
0.89
0.10
-0.71
-1.46
-2.10
-2.65
-3.16
-3.75
-4.49
-5.34
-6.21
-6.96
-7.44
-7.61
-7.47
-7.08
-6.47
-5.69
-4.76
-3.76
-2.77
-1.91
-1.23
-0.73
-0.35
-0.04
0.23
0.45
0.57
0.56
0.44
0.27
0.14
0.16
0.36
0.73
1.19
1.64
1.95
2.04
1.88
1.50
1.00
0.55
0.29
0.31
0.60
1.03
1.40
1.56
1.42
1.09
0.74
0.53
0.54
0.72
0.92
1.02
0.98
0.80
0.56
0.26
-0.11
-0.57
-1.10
-1.59
-1.86
-1.81
-1.40
-0.71
0.09
0.85
1.49
1.98
2.34
2.60
2.74
2.79
2.73
2.59
2.39
2.15
1.85
1.49
1.10
0.77
0.58
0.59
0.79
1.10
1.42
1.65
1.74
1.69
1.54
1.33
1.12
0.93
0.79
0.71
0.71
0.75
0.80
0.80
0.69
0.44
0.06
-0.40
-0.87
-1.32
-1.72
-2.08
-2.44
-2.85
-3.33
-3.85
-4.28
-4.49
-4.31
-3.69
-2.68
-1.46
-0.22
0.85
1.65
2.13
2.34
2.34
2.22
2.06
1.92
1.86
1.91
2.07
2.30
2.55
2.79
2.97
3.04
2.98
2.76
2.41
1.96
1.51
1.13
0.86
0.72
0.69
0.72
0.79
0.83
0.80
0.61
0.21
-0.39
-1.16
-1.97
-2.72
-3.35
-3.89
-4.43
-5.05
-5.75
-6.44
-6.95
-7.13
-6.94
-6.41
-5.66
-4.80
-3.89
-2.93
-1.88
-0.80
0.24
1.09
1.66
1.94
2.02
2.04
2.12
2.28
2.49
2.65
2.70
2.60
2.39
2.17
2.01
1.94
1.95
1.98
1.93
1.72
1.30
0.70
-0.02
-0.73
-1.31
-1.71
-1.92
-2.02
-2.10
-2.25
-2.50
-2.83
-3.22
-3.64
-4.09
-4.57
-5.05
-5.46
-5.72
-5.76
-5.57
-5.19
-4.73
-4.29
-3.95
-3.68
-3.44
-3.18
-2.88
-2.61
-2.41
-2.32
-2.30
-2.26
-2.12
-1.86
-1.54
-1.25
-1.08
-1.00
-0.94
-0.80
-0.52
-0.10
0.35
0.73
0.93
0.92
0.70
0.32
-0.14
-0.61
-0.97
-1.16
-1.14
-0.94
-0.59
-0.12
0.43
1.10
1.87
2.75
3.67
4.57
5.44
6.26
7.08
7.89
8.65
9.25
9.60
9.64
9.37
8.83
8.11
7.26
6.27
5.17
3.97
2.71
1.48
0.37
-0.54
-1.24
-1.75
-2.14
-2.46
-2.73
-2.95
-3.08
-3.13
-3.18
-3.37
-3.86
-4.76
-6.04
-7.62
-9.36
-11.12
-12.81
-14.38
-15.75
-16.83
-17.53
-17.74
-17.41
-16.58
-15.30
-13.69
-11.87
-9.92
-7.93
-5.93
-3.96
-2.00
-0.09
1.73
3.37
4.73
5.77
6.53
7.10
7.60
8.11
8.65
9.15
9.53
9.72
9.67
9.36
8.82
8.13
7.37
6.62
5.95
5.37
4.86
4.36
3.86
3.32
2.73
2.08
1.36
0.61
-0.11
-0.72
-1.18
-1.49
-1.70
-1.82
-1.83
-1.61
-1.03
-0.07
1.20
2.57
3.81
4.71
5.21
5.33
5.20
4.93
4.64
4.38
4.15
3.92
3.63
3.23
2.68
2.03
1.35
0.72
0.19
-0.24
-0.61
-0.96
-1.35
-1.77
-2.16
-2.46
-2.61
-2.59
-2.44
-2.19
-1.91
-1.63
-1.39
-1.21
-1.13
-1.18
-1.34
-1.59
-1.86
-2.06
-2.14
-2.05
-1.80
-1.42
-0.98
-0.52
-0.09
0.30
0.63
0.90
1.11
1.25
1.30
1.23
1.00
0.63
0.19
-0.22
-0.51
-0.61
-0.53
-0.35
-0.12
0.11
0.35
0.62
0.92
1.22
1.45
1.58
1.60
1.55
1.49
1.46
1.46
1.47
1.47
1.43
1.35
1.19
0.91
0.42
-0.31
-1.24
-2.25
-3.16
-3.78
-3.98
-3.68
-2.93
-1.82
-0.50
0.91
2.27
3.51
4.53
5.27
5.67
5.71
5.45
5.01
4.57
4.29
4.26
4.46
4.79
5.07
5.19
5.08
4.71
4.14
3.40
2.55
1.67
0.81
0.05
-0.58
-1.05
-1.40
-1.64
-1.80
-1.90
-1.94
-1.98
-2.06
-2.25
-2.58
-3.07
-3.70
-4.44
-5.21
-5.90
-6.39
-6.57
-6.40
-5.95
-5.35
-4.75
-4.18
-3.63
-2.98
-2.18
-1.25
-0.31
0.48
1.03
1.33
1.47
1.59
1.79
2.07
2.34
2.49
2.42
2.13
1.72
1.36
1.19
1.26
1.49
1.77
1.97
2.07
2.11
2.16
2.26
2.36
2.35
2.16
1.76
1.20
0.54
-0.16
-0.88
-1.63
-2.35
-3.00
-3.52
-3.91
-4.25
-4.65
-5.20
-5.90
-6.66
-7.33
-7.76
-7.83
-7.52
-6.84
-5.87
-4.69
-3.44
-2.25
-1.24
-0.49
0.03
0.37
0.61
0.82
0.97
1.04
0.98
0.81
0.59
0.43
0.42
0.61
1.02
1.64
2.48
3.51
4.69
5.96
7.16
8.18
8.90
9.28
9.36
9.16
8.71
8.05
7.22
6.32
5.45
4.72
4.15
3.69
3.24
2.71
2.10
1.49
0.96
0.56
0.27
-0.00
-0.37
-0.92
-1.65
-2.49
-3.34
-4.08
-4.60
-4.82
-4.68
-4.18
-3.38
-2.40
-1.38
-0.48
0.21
0.67
0.91
1.01
1.07
1.21
1.54
2.11
2.88
3.71
4.41
4.79
4.77
4.42
3.91
3.45
3.17
3.07
3.06
3.02
2.89
2.67
2.37
1.96
1.41
0.66
-0.25
-1.22
-2.11
-2.81
-3.28
-3.59
-3.87
-4.20
-4.61
-5.11
-5.66
-6.23
-6.80
-7.30
-7.66
-7.83
-7.79
-7.58
-7.25
-6.83
-6.33
-5.71
-4.97
-4.15
-3.32
-2.51
-1.73
-0.96
-0.13
0.75
1.66
2.59
3.55
4.56
5.67
6.88
8.14
9.42
10.70
11.95
13.12
14.06
14.57
14.45
13.60
12.09
10.17
8.18
6.43
5.08
4.16
3.53
3.03
2.51
1.89
1.15
0.29
-0.67
-1.69
-2.73
-3.77
-4.80
-5.82
-6.79
-7.65
-8.22
-8.37
-8.02
-7.25
-6.25
-5.27
-4.46
-3.87
-3.44
-3.10
-2.84
-2.74
-2.86
-3.24
-3.78
-4.35
-4.84
-5.18
-5.36
-5.41
-5.35
-5.21
-4.98
-4.72
-4.43
-4.14
-3.82
-3.45
-2.99
-2.48
-1.95
-1.46
-1.02
-0.62
-0.18
0.31
0.86
1.39
1.82
2.07
2.09
1.83
1.29
0.49
-0.53
-1.66
-2.77
-3.71
-4.37
-4.69
-4.74
-4.60
-4.38
-4.11
-3.79
-3.38
-2.86
-2.23
-1.56
-0.93
-0.39
0.02
0.31
0.52
0.73
1.00
1.41
2.01
2.85
3.94
5.20
6.53
7.77
8.79
9.54
10.06
10.45
10.82
11.21
11.60
11.88
11.96
11.73
11.18
10.33
9.25
8.07
6.97
6.08
5.49
5.20
5.04
4.80
4.22
3.12
1.45
-0.69
-3.03
-5.24
-6.99
-8.13
-8.68
-8.88
-9.03
-9.44
-10.23
-11.35
-12.59
-13.72
-14.57
-15.07
-15.24
-15.14
-14.77
-14.14
-13.18
-11.87
-10.23
-8.32
-6.30
-4.34
-2.58
-1.10
0.10
1.12
2.04
2.90
3.65
4.20
4.49
4.52
4.39
4.25
4.20
4.28
4.45
4.61
4.68
4.62
4.43
4.12
3.76
3.37
3.02
2.74
2.53
2.33
2.03
1.54
0.81
-0.11
-1.10
-2.00
-2.70
-3.14
-3.32
-3.29
-3.12
-2.82
-2.42
-1.94
-1.40
-0.87
-0.40
-0.00
0.30
0.55
0.77
0.96
1.11
1.22
1.24
1.17
1.01
0.77
0.54
0.39
0.42
0.68
1.14
1.74
2.38
2.94
3.36
3.60
3.68
3.61
3.45
3.23
3.00
2.75
2.48
2.16
1.76
1.31
0.86
0.48
0.19
-0.09
-0.44
-0.92
-1.46
-1.92
-2.10
-1.85
-1.18
-0.25
0.75
1.66
2.36
2.83
3.09
3.14
2.95
2.57
2.07
1.55
1.09
0.71
0.34
-0.08
-0.57
-1.07
-1.49
-1.74
-1.79
-1.64
-1.35
-0.98
-0.62
-0.37
-0.37
-0.72
-1.40
-2.31
-3.24
-4.00
-4.48
-4.72
-4.83
-4.93
-5.14
-5.45
-5.86
-6.34
-6.86
-7.35
-7.72
-7.82
-7.51
-6.74
-5.59
-4.19
-2.72
-1.29
0.05
1.34
2.59
3.74
4.71
5.35
5.60
5.43
4.96
4.34
3.74
3.29
3.03
2.97
3.02
3.12
3.20
3.24
3.24
3.19
3.05
2.75
2.23
1.49
0.63
-0.19
-0.76
-0.99
-0.91
-0.69
-0.58
-0.76
-1.28
-2.04
-2.83
-3.52
-4.03
-4.40
-4.68
-4.86
-4.87
-4.56
-3.88
-2.87
-1.70
-0.58
0.29
0.82
1.06
1.12
1.13
1.18
1.31
1.49
1.66
1.77
1.79
1.77
1.80
1.93
2.17
2.45
2.63
2.64
2.48
2.25
2.06
1.99
2.04
2.14
2.24
2.27
2.21
2.06
1.82
1.47
1.04
0.53
0.01
-0.49
-0.95
-1.38
-1.79
-2.23
-2.67
-3.10
-3.48
-3.74
-3.81
-3.67
-3.28
-2.72
-2.07
-1.45
-0.91
-0.45
0.02
0.59
1.31
2.15
2.97
3.59
3.85
3.72
3.30
2.76
2.34
2.16
2.21
2.40
2.60
2.75
2.88
3.02
3.20
3.33
3.28
2.97
2.40
1.73
1.16
0.82
0.75
0.84
0.93
0.90
0.71
0.38
-0.05
-0.54
-1.08
-1.64
-2.13
-2.47
-2.63
-2.65
-2.68
-2.85
-3.26
-3.83
-4.41
-4.82
-4.93
-4.69
-4.19
-3.49
-2.68
-1.83
-0.99
-0.19
0.51
1.10
1.59
2.01
2.43
2.85
3.24
3.53
3.67
3.63
3.49
3.33
3.23
3.22
3.28
3.35
3.42
3.51
3.66
3.84
3.95
3.81
3.27
2.34
1.14
-0.10
-1.15
-1.90
-2.36
-2.65
-2.85
-3.01
-3.08
-3.02
-2.79
-2.45
-2.07
-1.71
-1.39
-1.11
-0.83
-0.58
-0.40
-0.31
-0.31
-0.35
-0.33
-0.24
-0.09
0.08
0.25
0.46
0.79
1.24
1.74
2.11
2.16
1.81
1.13
0.33
-0.33
-0.66
-0.62
-0.27
0.27
0.86
1.42
1.91
2.30
2.60
2.80
2.92
2.95
2.92
2.82
2.62
2.30
1.83
1.24
0.56
-0.15
-0.84
-1.46
-2.00
-2.46
-2.79
-2.92
-2.80
-2.38
-1.69
-0.85
-0.01
0.64
0.98
0.95
0.58
0.00
-0.65
-1.26
-1.76
-2.16
-2.48
-2.70
-2.80
-2.70
-2.38
-1.83
-1.14
-0.43
0.19
0.63
0.87
0.93
0.89
0.83
0.80
0.84
0.94
1.06
1.15
1.22
1.29
1.37
1.50
1.67
1.85
2.03
2.19
2.34
2.45
2.51
2.45
2.26
1.94
1.54
1.11
0.70
0.31
-0.07
-0.45
-0.83
-1.18
-1.49
-1.73
-1.96
-2.24
-2.59
-3.03
-3.51
-3.98
-4.39
-4.72
-4.97
-5.13
-5.16
-5.01
-4.64
-4.05
-3.25
-2.29
-1.27
-0.27
0.66
1.46
2.12
2.61
2.96
3.17
3.23
3.14
2.94
2.69
2.49
2.39
2.39
2.38
2.27
2.00
1.63
1.31
1.20
1.35
1.67
2.00
2.15
2.02
1.65
1.15
0.66
0.23
-0.12
-0.45
-0.78
-1.08
-1.28
-1.31
-1.19
-0.99
-0.88
-1.00
-1.47
-2.27
-3.30
-4.36
-5.23
-5.76
-5.86
-5.52
-4.86
-3.99
-3.05
-2.19
-1.49
-0.97
-0.64
-0.43
-0.31
-0.24
-0.18
-0.12
-0.06
0.01
0.08
0.13
0.15
0.17
0.22
0.38
0.71
1.20
1.81
2.42
2.93
3.26
3.41
3.45
3.45
3.44
3.45
3.44
3.39
3.25
3.03
2.72
2.31
1.81
1.25
0.65
0.07
-0.48
-0.96
-1.40
-1.81
-2.22
-2.62
-2.99
-3.29
-3.45
-3.43
-3.21
-2.81
-2.26
-1.63
-0.96
-0.28
0.38
0.97
1.39
1.57
1.45
1.07
0.53
0.01
-0.34
-0.43
-0.28
0.02
0.37
0.71
1.05
1.41
1.80
2.17
2.43
2.50
2.38
2.16
1.93
1.78
1.71
1.63
1.46
1.17
0.79
0.39
0.01
-0.33
-0.67
-1.05
-1.46
-1.86
-2.21
-2.50
-2.79
-3.12
-3.52
-3.99
-4.46
-4.87
-5.17
-5.34
-5.38
-5.27
-4.98
-4.50
-3.81
-2.95
-1.97
-0.93
0.07
0.99
1.77
2.39
2.83
3.11
3.26
3.36
3.48
3.70
4.07
4.60
5.28
6.04
6.80
7.51
8.12
8.64
9.11
9.58
10.07
10.61
11.18
11.78
12.36
12.90
13.32
13.54
13.48
13.12
12.47
11.55
10.32
8.72
6.70
4.31
1.66
-1.02
-3.57
-5.91
-8.07
-10.12
-12.05
-13.79
-15.19
-16.12
-16.56
-16.60
-16.39
-16.08
-15.78
-15.49
-15.21
-14.91
-14.59
-14.28
-14.02
-13.83
-13.69
-13.52
-13.25
-12.82
-12.22
-11.52
-10.78
-10.04
-9.24
-8.31
-7.19
-5.89
-4.55
-3.35
-2.45
-1.90
-1.68
-1.69
-1.87
-2.14
-2.49
-2.88
-3.31
-3.78
-4.29
-4.88
-5.54
-6.22
-6.77
-7.03
-6.83
-6.11
-4.88
-3.26
-1.40
0.54
2.42
4.14
5.64
6.92
7.99
8.89
9.58
10.02
10.15
9.93
9.43
8.74
7.99
7.28
6.67
6.12
5.58
5.01
4.33
3.50
2.50
1.32
0.03
-1.25
-2.34
-3.10
-3.41
-3.26
-2.69
-1.78
-0.63
0.70
2.12
3.60
5.06
6.42
7.57
8.43
9.01
9.35
9.54
9.67
9.76
9.81
9.78
9.65
9.44
9.18
8.90
8.61
8.28
7.89
7.44
6.99
6.62
6.41
6.36
6.43
6.56
6.73
6.94
7.25
7.71
8.33
9.02
9.64
9.99
9.98
9.55
8.79
7.82
6.77
5.70
4.58
3.38
2.03
0.51
-1.14
-2.87
-4.63
-6.39
-8.14
-9.85
-11.52
-13.14
-14.67
-16.03
-17.09
-17.72
-17.85
-17.49
-16.76
-15.86
-14.93
-14.05
-13.20
-12.37
-11.55
-10.81
-10.23
-9.89
-9.79
-9.95
-10.32
-10.91
-11.68
-12.53
-13.31
-13.82
-13.91
-13.57
-12.93
-12.25
-11.76
-11.62
-11.81
-12.19
-12.58
-12.82
-12.85
-12.66
-12.25
-11.61
-10.70
-9.44
-7.84
-5.96
-3.96
-2.04
-0.36
0.99
1.99
2.75
3.37
3.98
4.64
5.41
6.30
7.30
8.42
9.60
10.82
12.04
13.26
14.55
16.03
17.78
19.80
22.00
24.23
26.33
28.18
29.73
31.00
31.98
32.66
32.99
32.91
32.42
31.54
30.33
28.88
27.28
25.60
23.90
22.19
20.45
18.66
16.79
14.89
13.03
11.29
9.74
8.35
7.05
5.72
4.27
2.69
1.06
-0.51
-1.90
-3.05
-3.96
-4.66
-5.20
-5.62
-5.96
-6.27
-6.58
-6.88
-7.10
-7.15
-6.95
-6.52
-5.95
-5.38
-4.92
-4.60
-4.33
-3.99
-3.51
-2.89
-2.25
-1.73
-1.46
-1.46
-1.59
-1.54
-1.05
0.02
1.53
3.20
4.65
5.55
5.74
5.29
4.50
3.71
3.17
2.92
2.89
2.92
2.78
2.34
1.67
1.06
0.88
1.41
2.71
4.63
6.87
8.64
9.16
8.12
6.06
4.12
3.61
5.44
9.91
16.60
23.86
29.84
33.45
34.92
35.32
35.64
36.23
37.07
37.86
37.32
34.34
28.89
22.43
16.93
13.83
13.41
15.08
17.31
16.42
8.08
-10.89
-41.13
-81.03
-127.79
-178.58
-230.69
-272.33
-291.75
-284.17
-255.78
-217.99
-179.89
-145.53
-116.15
-91.90
-73.45
-63.22
-63.25
-72.71
-86.21
-95.26
-91.15
-71.00
-34.87
11.46
57.88
94.54
116.02
123.03
120.59
115.44
112.30
113.59
119.56
129.04
140.80
154.13
169.19
180.14
183.53
177.37
162.21
140.88
117.28
94.98
76.21
61.51
49.91
40.60
32.50
25.04
17.93
11.10
4.58
-1.42
-6.53
-10.49
-12.53
-12.47
-10.62
-7.90
-5.41
-4.09
-4.40
-6.19
-8.91
-11.50
-13.30
-14.12
-14.17
-13.79
-13.19
-12.40
-11.35
-10.14
-8.83
-7.73
-7.17
-7.35
-8.23
-9.56
-11.04
-12.42
-13.60
-14.50
-15.17
-15.69
-16.22
-16.93
-18.09
-19.90
-22.35
-25.16
-27.79
-29.65
-30.38
-30.02
-29.03
-28.03
-27.50
-27.54
-27.91
-28.24
-28.18
-27.59
-26.39
-24.53
-21.91
-18.49
-14.38
-10.00
-5.90
-2.64
-0.50
0.55
0.84
0.79
0.70
0.71
0.77
0.81
0.78
0.67
0.49
0.25
-0.13
-0.68
-1.43
-2.32
-3.21
-3.94
-4.36
-4.39
-4.02
-3.34
-2.45
-1.45
-0.38
0.74
1.92
3.14
4.34
5.41
6.28
6.91
7.38
7.85
8.51
9.46
10.68
12.07
13.44
14.62
15.52
16.14
16.59
16.95
17.27
17.46
17.30
16.47
14.69
11.81
7.87
3.12
-2.10
-7.39
-12.35
-16.59
-19.69
-21.31
-21.34
-19.96
-17.71
-15.31
-13.43
-12.43
-12.31
-12.69
-13.09
-13.10
-12.51
-11.38
-9.91
-8.32
-6.75
-5.19
-3.54
-1.72
0.25
2.20
3.89
5.12
5.83
6.12
6.17
6.14
6.09
6.02
5.93
5.86
5.92
6.18
6.63
7.16
7.64
7.94
8.07
8.08
8.05
7.97
7.79
7.44
6.91
6.27
5.63
5.06
4.58
4.12
3.59
2.96
2.24
1.46
0.66
-0.18
-1.12
-2.15
-3.20
-4.10
-4.65
-4.69
-4.18
-3.19
-1.86
-0.33
1.26
2.82
4.25
5.40
6.19
6.55
6.51
6.22
5.84
5.50
5.26
5.11
5.01
5.01
5.17
5.59
6.25
7.04
7.72
8.05
7.85
7.09
5.87
4.35
2.68
1.01
-0.58
-2.02
-3.25
-4.25
-4.98
-5.45
-5.70
-5.79
-5.84
-5.98
-6.34
-6.97
-7.83
-8.72
-9.39
-9.57
-9.10
-7.98
-6.37
-4.46
-2.43
-0.43
1.44
3.10
4.43
5.33
5.77
5.79
5.55
5.24
5.01
4.98
5.15
5.47
5.86
6.21
6.41
6.37
6.04
5.45
4.77
4.21
3.97
4.13
4.63
5.26
5.74
5.88
5.61
5.04
4.34
3.66
3.02
2.31
1.37
0.09
-1.47
-3.13
-4.65
-5.85
-6.68
-7.22
-7.62
-7.99
-8.38
-8.74
-9.01
-9.13
-9.12
-9.09
-9.23
-9.74
-10.80
-12.42
-14.50
-16.74
-18.71
-19.93
-19.95
-18.43
-15.21
-10.44
-4.51
2.00
8.47
14.40
19.53
23.83
27.41
30.39
32.80
34.52
35.34
35.03
33.53
30.98
27.71
24.10
20.52
17.18
14.14
11.37
8.82
6.43
4.19
2.02
-0.12
-2.28
-4.39
-6.32
-7.85
-8.84
-9.24
-9.13
-8.66
-8.00
-7.28
-6.57
-5.91
-5.37
-5.00
-4.83
-4.85
-5.04
-5.30
-5.58
-5.81
-5.97
-6.04
-5.99
-5.78
-5.40
-4.84
-4.15
-3.43
-2.75
-2.19
-1.77
-1.49
-1.35
-1.32
-1.42
-1.63
-1.94
-2.29
-2.63
-2.89
-3.04
-3.07
-3.06
-3.07
-3.18
-3.43
-3.82
-4.28
-4.77
-5.20
-5.50
-5.61
-5.47
-5.02
-4.23
-3.12
-1.79
-0.41
0.84
1.79
2.39
2.66
2.68
2.52
2.24
1.91
1.58
1.34
1.27
1.39
1.65
1.96
2.18
2.27
2.22
2.14
2.11
2.15
2.22
2.23
2.12
1.86
1.51
1.14
0.83
0.60
0.43
0.24
-0.01
-0.31
-0.61
-0.86
-1.05
-1.26
-1.63
-2.24
-3.10
-4.08
-4.98
-5.62
-5.84
-5.62
-4.98
-4.01
-2.84
-1.63
-0.55
0.25
0.70
0.81
0.67
0.38
-0.01
-0.47
-0.97
-1.44
-1.75
-1.77
-1.46
-0.85
-0.08
0.66
1.26
1.66
1.89
2.01
2.07
2.06
1.96
1.76
1.45
1.09
0.72
0.38
0.06
-0.24
-0.58
-0.97
-1.41
-1.92
-2.47
-3.05
-3.63
-4.20
-4.70
-5.10
-5.38
-5.50
-5.41
-5.06
-4.43
-3.56
-2.55
-1.55
-0.69
-0.06
0.34
0.55
0.64
0.64
0.58
0.48
0.37
0.31
0.30
0.36
0.48
0.67
0.95
1.35
1.82
2.29
2.63
2.78
2.71
2.47
2.14
1.82
1.53
1.28
1.07
0.87
0.65
0.35
-0.08
-0.67
-1.40
-2.17
-2.86
-3.38
-3.74
-3.99
-4.22
-4.48
-4.76
-4.96
-5.01
-4.84
-4.46
-3.90
-3.19
-2.34
-1.36
-0.26
0.86
1.86
2.55
2.81
2.58
1.96
1.12
0.29
-0.31
-0.53
-0.34
0.21
0.97
1.76
2.45
2.95
3.24
3.36
3.39
3.37
3.31
3.17
2.97
2.72
2.50
2.34
2.26
2.17
1.95
1.49
0.78
-0.10
-0.99
-1.76
-2.33
-2.74
-3.08
-3.42
-3.82
-4.26
-4.66
-4.92
-4.95
-4.66
-4.00
-3.02
-1.83
-0.60
0.51
1.40
2.06
2.55
2.90
3.16
3.32
3.38
3.34
3.25
3.16
3.10
3.09
3.13
3.20
3.26
3.28
3.19
2.91
2.44
1.80
1.09
0.46
-0.01
-0.27
-0.32
-0.24
-0.11
-0.00
-0.04
-0.28
-0.78
-1.51
-2.38
-3.29
-4.10
-4.78
-5.31
-5.76
-6.18
-6.63
-7.11
-7.58
-7.99
-8.29
-8.42
-8.31
-7.91
-7.21
-6.24
-5.09
-3.87
-2.69
-1.61
-0.69
0.04
0.55
0.82
0.85
0.73
0.56
0.47
0.53
0.77
1.16
1.62
2.08
2.49
2.78
2.93
2.93
2.80
2.63
2.50
2.47
2.54
2.62
2.57
2.31
1.80
1.14
0.45
-0.13
-0.56
-0.83
-1.05
-1.28
-1.53
-1.76
-1.88
-1.90
-1.90
-2.05
-2.44
-3.07
-3.78
-4.26
-4.28
-3.72
-2.68
-1.39
-0.11
0.99
1.86
2.57
3.18
3.73
4.17
4.43
4.46
4.26
3.90
3.50
3.16
2.98
2.96
3.11
3.36
3.66
3.95
4.16
4.26
4.20
4.00
3.70
3.40
3.17
3.04
2.98
2.90
2.69
2.31
1.75
1.07
0.33
-0.37
-0.96
-1.38
-1.62
-1.74
-1.87
-2.16
-2.73
-3.58
-4.57
-5.47
-5.99
-5.93
-5.20
-3.90
-2.22
-0.45
1.10
2.22
2.84
3.05
3.07
3.13
3.38
3.79
4.20
4.46
4.48
4.29
4.01
3.74
3.52
3.34
3.17
3.02
2.96
3.01
3.15
3.29
3.31
3.16
2.84
2.42
1.97
1.51
1.00
0.44
-0.16
-0.73
-1.18
-1.49
-1.72
-1.95
-2.26
-2.69
-3.22
-3.82
-4.47
-5.13
-5.75
-6.23
-6.43
-6.26
-5.67
-4.71
-3.47
-2.08
-0.63
0.78
2.06
3.15
3.98
4.50
4.71
4.62
4.28
3.73
3.05
2.35
1.79
1.51
1.57
1.95
2.53
3.14
3.60
3.84
3.83
3.64
3.36
3.07
2.79
2.50
2.15
1.74
1.29
0.85
0.51
0.28
0.16
0.09
0.01
-0.11
-0.30
-0.56
-0.89
-1.31
-1.83
-2.41
-3.03
-3.64
-4.21
-4.70
-5.04
-5.19
-5.09
-4.74
-4.16
-3.43
-2.60
-1.73
-0.88
-0.07
0.62
1.13
1.42
1.49
1.42
1.28
1.16
1.05
0.95
0.83
0.72
0.68
0.78
1.02
1.34
1.65
1.88
2.03
2.15
2.32
2.56
2.83
3.03
3.04
2.80
2.33
1.70
1.00
0.35
-0.16
-0.53
-0.79
-1.01
-1.31
-1.72
-2.22
-2.71
-3.08
-3.32
-3.47
-3.66
-3.99
-4.47
-4.98
-5.37
-5.50
-5.30
-4.77
-3.99
-3.07
-2.15
-1.30
-0.60
-0.02
0.45
0.81
1.02
1.03
0.79
0.39
-0.02
-0.28
-0.27
-0.01
0.38
0.75
1.02
1.17
1.26
1.30
1.29
1.20
1.06
0.92
0.85
0.90
1.01
1.08
1.01
0.79
0.47
0.13
-0.14
-0.33
-0.43
-0.43
-0.34
-0.17
0.01
0.13
0.07
-0.19
-0.62
-1.11
-1.58
-2.00
-2.42
-2.92
-3.53
-4.16
-4.64
-4.76
-4.39
-3.56
-2.45
-1.33
-0.43
0.15
0.46
0.60
0.70
0.76
0.76
0.65
0.43
0.16
-0.02
-0.05
0.10
0.39
0.75
1.11
1.48
1.88
2.36
2.91
3.45
3.88
4.07
3.97
3.61
3.11
2.63
2.28
2.07
1.90
1.66
1.27
0.73
0.15
-0.31
-0.59
-0.69
-0.70
-0.78
-1.04
-1.50
-2.10
-2.67
-2.99
-2.94
-2.53
-1.85
-1.09
-0.36
0.32
0.99
1.70
2.42
3.04
3.41
3.49
3.29
2.96
2.64
2.43
2.35
2.40
2.55
2.80
3.17
3.64
4.18
4.71
5.14
5.42
5.56
5.64
5.76
6.02
6.45
6.99
7.51
7.89
8.06
7.95
7.55
6.80
5.67
4.19
2.50
0.81
-0.64
-1.71
-2.41
-2.85
-3.22
-3.59
-3.95
-4.24
-4.38
-4.38
-4.34
-4.37
-4.57
-4.91
-5.32
-5.70
-5.96
-6.13
-6.23
-6.33
-6.39
-6.38
-6.26
-6.06
-5.89
-5.87
-6.07
-6.47
-6.95
-7.41
-7.80
-8.17
-8.61
-9.15
-9.72
-10.19
-10.41
-10.34
-10.01
-9.50
-8.87
-8.13
-7.23
-6.14
-4.88
-3.50
-2.13
-0.86
0.21
1.05
1.65
2.03
2.20
2.19
1.97
1.59
1.10
0.64
0.39
0.51
1.04
1.91
2.89
3.74
4.25
4.34
4.04
3.51
2.90
2.36
1.94
1.63
1.37
1.11
0.82
0.56
0.39
0.34
0.38
0.43
0.45
0.41
0.36
0.34
0.37
0.39
0.33
0.18
-0.02
-0.18
-0.24
-0.18
-0.08
-0.04
-0.16
-0.45
-0.86
-1.32
-1.77
-2.15
-2.45
-2.67
-2.81
-2.87
-2.84
-2.69
-2.39
-1.88
-1.12
-0.11
1.10
2.40
3.66
4.79
5.73
6.53
7.24
7.85
8.30
8.48
8.30
7.81
7.14
6.52
6.11
5.94
5.92
5.87
5.65
5.22
4.65
4.02
3.37
2.69
1.91
1.01
-0.00
-1.00
-1.85
-2.48
-2.87
-3.12
-3.35
-3.69
-4.18
-4.78
-5.42
-5.97
-6.37
-6.61
-6.74
-6.85
-7.06
-7.41
-7.86
-8.30
-8.57
-8.52
-8.03
-7.06
-5.66
-3.95
-2.08
-0.20
1.57
3.13
4.42
5.36
5.86
5.90
5.52
4.88
4.20
3.70
3.51
3.63
3.95
4.31
4.61
4.81
4.89
4.89
4.81
4.64
4.41
4.13
3.81
3.46
3.08
2.69
2.29
1.90
1.54
1.20
0.90
0.63
0.42
0.26
0.11
-0.10
-0.45
-0.97
-1.61
-2.27
-2.86
-3.34
-3.72
-4.04
-4.30
-4.43
-4.31
-3.85
-3.08
-2.14
-1.21
-0.44
0.13
0.58
1.00
1.41
1.77
1.94
1.88
1.63
1.32
1.08
1.00
1.05
1.14
1.22
1.29
1.40
1.59
1.88
2.21
2.49
2.64
2.65
2.53
2.30
2.02
1.72
1.41
1.13
0.86
0.59
0.28
-0.13
-0.66
-1.31
-2.03
-2.68
-3.11
-3.23
-3.09
-2.88
-2.86
-3.21
-3.94
-4.85
-5.60
-5.90
-5.61
-4.82
-3.76
-2.67
-1.68
-0.77
0.17
1.19
2.25
3.21
3.85
4.04
3.76
3.12
2.32
1.57
1.01
0.72
0.69
0.88
1.22
1.67
2.16
2.62
2.96
3.12
3.04
2.77
2.39
1.98
1.61
1.32
1.07
0.86
0.64
0.42
0.18
-0.10
-0.45
-0.86
-1.28
-1.68
-2.00
-2.24
-2.41
-2.56
-2.76
-3.09
-3.57
-4.16
-4.76
-5.21
-5.31
-4.94
-4.09
-2.88
-1.50
-0.18
0.92
1.74
2.29
2.62
2.73
2.64
2.37
2.00
1.64
1.39
1.34
1.48
1.72
1.98
2.19
2.35
2.52
2.74
3.00
3.24
3.37
3.35
3.16
2.86
2.49
2.06
1.56
1.02
0.44
-0.10
-0.56
-0.91
-1.15
-1.29
-1.39
-1.48
-1.63
-1.92
-2.43
-3.15
-4.02
-4.90
-5.58
-5.91
-5.82
-5.35
-4.58
-3.66
-2.68
-1.69
-0.73
0.20
1.06
1.81
2.40
2.77
2.94
2.95
2.87
2.78
2.71
2.65
2.59
2.49
2.35
2.22
2.15
2.16
2.29
2.49
2.72
2.95
3.12
3.21
3.19
3.03
2.73
2.30
1.77
1.16
0.51
-0.13
-0.72
-1.21
-1.57
-1.82
-2.02
-2.22
-2.49
-2.85
-3.27
-3.71
-4.13
-4.53
-4.87
-5.12
-5.18
-4.99
-4.52
-3.81
-2.92
-1.92
-0.86
0.24
1.33
2.28
2.95
3.22
3.05
2.56
1.96
1.44
1.14
1.07
1.18
1.40
1.69
2.02
2.38
2.78
3.18
3.55
3.85
4.05
4.09
3.96
3.64
3.18
2.66
2.15
1.68
1.23
0.76
0.24
-0.30
-0.82
-1.28
-1.65
-1.99
-2.35
-2.78
-3.30
-3.91
-4.58
-5.28
-5.98
-6.59
-7.02
-7.11
-6.76
-5.93
-4.73
-3.32
-1.91
-0.66
0.34
1.10
1.69
2.21
2.71
3.21
3.67
4.04
4.23
4.23
4.04
3.75
3.49
3.34
3.33
3.38
3.39
3.28
3.04
2.75
2.51
2.40
2.35
2.28
2.06
1.62
1.02
0.37
-0.23
-0.71
-1.05
-1.25
-1.32
-1.25
-1.08
-0.92
-0.94
-1.29
-2.03
-3.10
-4.35
-5.54
-6.41
-6.79
-6.58
-5.81
-4.62
-3.25
-1.94
-0.83
0.04
0.74
1.39
2.00
2.49
2.74
2.68
2.34
1.91
1.60
1.58
1.89
2.42
3.00
3.45
3.72
3.83
3.85
3.87
3.93
3.99
3.99
3.84
3.53
3.08
2.56
2.01
1.44
0.86
0.25
-0.37
-0.98
-1.54
-2.03
-2.48
-2.92
-3.39
-3.91
-4.46
-4.99
-5.43
-5.67
-5.60
-5.14
-4.28
-3.10
-1.79
-0.52
0.53
1.30
1.81
2.12
2.25
2.24
2.08
1.82
1.53
1.30
1.21
1.24
1.34
1.45
1.56
1.70
1.87
2.07
2.21
2.22
2.07
1.80
1.50
1.23
1.00
0.76
0.41
-0.06
-0.64
-1.22
-1.71
-2.06
-2.29
-2.47
-2.64
-2.81
-2.98
-3.12
-3.28
-3.50
-3.84
-4.30
-4.78
-5.12
-5.14
-4.69
-3.77
-2.49
-1.02
0.46
1.78
2.83
3.55
3.92
3.98
3.81
3.56
3.32
3.16
3.05
2.96
2.85
2.74
2.68
2.76
2.98
3.28
3.57
3.75
3.74
3.59
3.35
3.12
2.92
2.75
2.54
2.23
1.81
1.30
0.75
0.24
-0.18
-0.57
-0.98
-1.51
-2.19
-2.99
-3.81
-4.53
-5.02
-5.22
-5.08
-4.59
-3.73
-2.52
-0.99
0.76
2.59
4.35
5.90
7.13
7.99
8.46
8.58
8.42
8.11
7.75
7.43
7.17
6.96
6.79
6.67
6.65
6.76
7.02
7.41
7.85
8.24
8.46
8.39
7.89
6.85
5.19
2.91
0.12
-2.97
-6.12
-9.12
-11.82
-14.24
-16.42
-18.46
-20.39
-22.24
-23.98
-25.54
-26.86
-27.79
-28.14
-27.66
-26.13
-23.46
-19.76
-15.32
-10.52
-5.74
-1.22
2.93
6.67
9.94
12.62
14.59
15.81
16.44
16.76
17.12
17.69
18.40
18.90
18.77
17.69
15.60
12.73
9.47
6.25
3.37
0.94
-1.07
-2.74
-4.12
-5.24
-6.05
-6.53
-6.72
-6.67
-6.46
-6.15
-5.75
-5.21
-4.52
-3.66
-2.70
-1.77
-0.98
-0.44
-0.20
-0.26
-0.58
-1.11
-1.76
-2.42
-2.94
-3.16
-3.00
-2.45
-1.63
-0.72
0.12
0.81
1.37
1.86
2.32
2.72
2.94
2.87
2.47
1.76
0.89
-0.03
-0.90
-1.64
-2.21
-2.57
-2.68
-2.56
-2.28
-1.94
-1.64
-1.44
-1.28
-1.07
-0.73
-0.23
0.39
1.09
1.85
2.73
3.83
5.23
6.94
8.87
10.79
12.44
13.54
13.86
13.29
11.85
9.73
7.22
4.69
2.49
0.87
-0.08
-0.44
-0.37
-0.07
0.27
0.51
0.58
0.41
-0.02
-0.71
-1.58
-2.57
-3.59
-4.59
-5.50
-6.23
-6.60
-6.40
-5.48
-3.84
-1.65
0.76
3.09
5.11
6.73
7.92
8.67
8.90
8.56
7.67
6.38
4.92
3.47
2.04
0.51
-1.31
-3.54
-6.11
-8.79
-11.26
-13.27
-14.65
-15.40
-15.56
-15.22
-14.47
-13.37
-11.97
-10.34
-8.47
-6.38
-4.11
-1.76
0.50
2.49
4.10
5.29
6.08
6.52
6.62
6.38
5.78
4.91
3.92
3.01
2.33
1.97
1.93
2.12
2.47
2.89
3.32
3.71
4.02
4.22
4.32
4.34
4.31
4.23
4.07
3.81
3.45
3.00
2.57
2.25
2.11
2.16
2.33
2.50
2.54
2.37
1.96
1.38
0.69
-0.05
-0.79
-1.52
-2.21
-2.77
-3.12
-3.20
-2.96
-2.45
-1.79
-1.13
-0.60
-0.27
-0.15
-0.15
-0.21
-0.24
-0.21
-0.14
-0.08
-0.07
-0.13
-0.22
-0.28
-0.29
-0.25
-0.22
-0.27
-0.42
-0.64
-0.79
-0.78
-0.57
-0.25
-0.00
0.03
-0.23
-0.69
-1.18
-1.53
-1.66
-1.59
-1.43
-1.32
-1.33
-1.49
-1.73
-1.97
-2.11
-2.11
-1.97
-1.78
-1.66
-1.72
-1.96
-2.33
-2.71
-2.96
-2.98
-2.75
-2.24
-1.52
-0.62
0.36
1.28
2.00
2.44
2.61
2.59
2.53
2.55
2.71
2.97
3.28
3.57
3.82
4.05
4.26
4.45
4.62
4.82
5.07
5.40
5.76
6.07
6.23
6.23
6.16
6.17
6.37
6.81
7.34
7.73
7.70
7.05
5.70
3.68
1.13
-1.75
-4.72
-7.52
-9.93
-11.79
-13.06
-13.79
-14.12
-14.15
-13.99
-13.72
-13.40
-13.05
-12.70
-12.32
-11.85
-11.22
-10.43
-9.50
-8.57
-7.73
-7.04
-6.49
-5.98
-5.45
-4.86
-4.23
-3.61
-3.01
-2.42
-1.82
-1.20
-0.55
0.11
0.85
1.73
2.85
4.28
6.02
7.98
10.04
12.03
13.83
15.32
16.37
16.83
16.60
15.61
13.92
11.71
9.18
6.49
3.73
0.93
-1.89
-4.63
-7.18
-9.37
-11.11
-12.39
-13.33
-14.04
-14.57
-14.86
-14.82
-14.32
-13.34
-11.94
-10.27
-8.48
-6.70
-4.99
-3.38
-1.87
-0.46
0.82
1.93
2.86
3.55
4.00
4.20
4.14
3.88
3.45
2.95
2.49
2.17
2.07
2.17
2.35
2.48
2.44
2.23
1.93
1.69
1.58
1.58
1.57
1.41
1.04
0.49
-0.10
-0.63
-1.03
-1.31
-1.54
-1.75
-1.94
-2.10
-2.21
-2.30
-2.49
-2.87
-3.51
-4.38
-5.30
-6.06
-6.42
-6.26
-5.61
-4.61
-3.48
-2.36
-1.35
-0.42
0.45
1.34
2.24
3.12
3.94
4.64
5.23
5.72
6.19
6.68
7.28
8.06
9.04
10.19
11.43
12.67
13.84
14.93
15.92
16.80
17.49
17.89
17.91
17.54
16.79
15.72
14.35
12.62
10.48
7.88
4.88
1.64
-1.67
-4.90
-7.95
-10.80
-13.41
-15.69
-17.53
-18.80
-19.46
-19.57
-19.23
-18.60
-17.81
-16.90
-15.88
-14.73
-13.46
-12.11
-10.71
-9.30
-7.90
-6.45
-4.91
-3.24
-1.44
0.37
2.02
3.31
4.11
4.40
4.34
4.15
4.06
4.19
4.51
4.84
4.95
4.66
3.92
2.78
1.40
-0.08
-1.52
-2.82
-3.89
-4.68
-5.16
-5.37
-5.38
-5.33
-5.32
-5.41
-5.58
-5.73
-5.77
-5.63
-5.30
-4.80
-4.20
-3.51
-2.77
-2.00
-1.24
-0.54
0.10
0.77
1.60
2.74
4.27
6.16
8.25
10.35
12.32
14.06
15.58
16.85
17.81
18.26
18.06
17.10
15.47
13.38
11.09
8.79
6.53
4.24
1.82
-0.73
-3.25
-5.44
-6.94
-7.49
-7.04
-5.79
-4.14
-2.56
-1.46
-1.06
-1.34
-2.07
-2.90
-3.54
-3.79
-3.68
-3.33
-2.88
-2.41
-1.92
-1.38
-0.81
-0.30
-0.03
-0.18
-0.84
-1.96
-3.40
-4.94
-6.32
-7.34
-7.85
-7.83
-7.37
-6.66
-5.86
-5.08
-4.32
-3.52
-2.63
-1.70
-0.88
-0.33
-0.15
-0.27
-0.52
-0.68
-0.58
-0.20
0.37
0.97
1.46
1.79
1.97
2.06
2.13
2.21
2.29
2.39
2.48
2.55
2.59
2.58
2.52
2.42
2.26
2.00
1.59
1.00
0.25
-0.59
-1.38
-2.00
-2.39
-2.60
-2.76
-3.03
-3.51
-4.17
-4.89
-5.51
-5.88
-5.91
-5.57
-4.85
-3.81
-2.55
-1.23
-0.06
0.74
1.04
0.83
0.28
-0.33
-0.72
-0.76
-0.45
0.08
0.64
1.07
1.27
1.26
1.12
0.94
0.84
0.89
1.09
1.44
1.86
2.28
2.58
2.69
2.56
2.23
1.76
1.23
0.72
0.20
-0.35
-0.93
-1.49
-1.94
-2.21
-2.32
-2.38
-2.53
-2.89
-3.44
-4.07
-4.63
-5.04
-5.23
-5.22
-5.00
-4.59
-3.99
-3.30
-2.66
-2.20
-2.01
-2.00
-2.04
-1.97
-1.71
-1.26
-0.68
-0.01
0.74
1.60
2.55
3.55
4.53
5.47
6.38
7.32
8.28
9.21
9.92
10.27
10.14
9.55
8.59
7.38
5.95
4.28
2.31
0.03
-2.49
-5.09
-7.58
-9.74
-11.44
-12.59
-13.24
-13.48
-13.42
-13.16
-12.73
-12.04
-10.95
-9.31
-7.02
-4.16
-0.92
2.38
5.38
7.81
9.53
10.57
11.07
11.19
11.04
10.64
10.01
9.16
8.19
7.24
6.45
5.88
5.50
5.23
4.99
4.78
4.65
4.61
4.63
4.61
4.42
4.03
3.49
2.92
2.41
1.99
1.62
1.28
0.99
0.80
0.79
0.94
1.15
1.25
1.12
0.74
0.16
-0.50
-1.16
-1.80
-2.44
-3.06
-3.58
-3.91
-3.94
-3.64
-3.04
-2.25
-1.37
-0.48
0.34
1.06
1.65
2.07
2.32
2.41
2.38
2.26
2.09
1.95
1.89
1.95
2.14
2.41
2.69
2.93
3.10
3.18
3.17
3.07
2.88
2.61
2.36
2.22
2.25
2.46
2.71
2.83
2.72
2.35
1.82
1.31
0.91
0.64
0.41
0.09
-0.40
-1.05
-1.84
-2.72
-3.67
-4.70
-5.81
-6.92
-7.93
-8.68
-9.15
-9.38
-9.56
-9.91
-10.58
-11.56
-12.68
-13.62
-14.06
-13.76
-12.66
-10.89
-8.72
-6.47
-4.42
-2.72
-1.35
-0.19
0.92
2.13
3.51
5.02
6.57
8.02
9.25
10.14
10.59
10.54
10.02
9.18
8.25
7.43
6.89
6.63
6.52
6.37
6.09
5.67
5.23
4.88
4.70
4.67
4.73
4.83
4.96
5.16
5.46
5.87
6.33
6.81
7.22
7.54
7.77
7.93
8.02
8.01
7.89
7.65
7.32
6.98
6.72
6.62
6.71
6.97
7.32
7.72
8.11
8.51
8.92
9.36
9.74
9.95
9.83
9.22
8.02
6.25
4.00
1.46
-1.13
-3.50
-5.47
-6.88
-7.71
-8.01
-7.94
-7.67
-7.38
-7.23
-7.30
-7.61
-8.13
-8.77
-9.46
-10.12
-10.69
-11.16
-11.50
-11.68
-11.64
-11.35
-10.79
-10.04
-9.19
-8.33
-7.49
-6.65
-5.76
-4.84
-3.97
-3.27
-2.84
-2.64
-2.59
-2.54
-2.42
-2.22
-2.01
-1.83
-1.65
-1.41
-1.01
-0.44
0.22
0.85
1.31
1.51
1.46
1.22
0.89
0.54
0.22
-0.07
-0.35
-0.63
-0.87
-0.99
-0.92
-0.67
-0.32
0.00
0.14
0.01
-0.35
-0.84
-1.33
-1.69
-1.84
-1.77
-1.45
-0.91
-0.18
0.63
1.38
1.93
2.17
2.05
1.64
1.04
0.39
-0.15
-0.50
-0.63
-0.60
-0.55
-0.60
-0.85
-1.27
-1.76
-2.15
-2.34
-2.32
-2.16
-2.02
-2.03
-2.23
-2.58
-2.97
-3.28
-3.45
-3.49
-3.46
-3.45
-3.46
-3.46
-3.40
-3.24
-3.01
-2.76
-2.53
-2.38
-2.29
-2.23
-2.20
-2.21
-2.25
-2.26
-2.13
-1.75
-1.04
-0.05
1.10
2.28
3.41
4.51
5.63
6.78
7.86
8.69
9.07
8.94
8.32
7.37
6.26
5.09
3.92
2.74
1.57
0.48
-0.44
-1.12
-1.51
-1.61
-1.45
-1.10
-0.66
-0.23
0.05
0.07
-0.20
-0.71
-1.28
-1.69
-1.80
-1.59
-1.19
-0.83
-0.70
-0.87
-1.23
-1.58
-1.75
-1.66
-1.36
-1.00
-0.70
-0.49
-0.25
0.15
0.85
1.84
2.99
4.10
5.01
5.66
6.14
6.58
7.01
7.36
7.43
7.09
6.32
5.33
4.40
3.75
3.42
3.29
3.20
3.07
2.99
3.05
3.32
3.64
3.75
3.37
2.36
0.85
-0.85
-2.43
-3.66
-4.52
-5.09
-5.51
-5.87
-6.18
-6.43
-6.59
-6.70
-6.80
-6.89
-6.94
-6.89
-6.69
-6.38
-6.04
-5.82
-5.78
-5.90
-6.07
-6.12
-5.93
-5.39
-4.53
-3.43
-2.20
-0.95
0.25
1.37
2.39
3.28
3.99
4.45
4.58
4.37
3.85
3.11
2.26
1.40
0.61
-0.01
-0.36
-0.33
0.14
1.00
2.09
3.22
4.18
4.87
5.26
5.39
5.36
5.25
5.20
5.31
5.65
6.10
6.44
6.33
5.48
3.79
1.37
-1.41
-4.12
-6.38
-7.94
-8.77
-8.96
-8.67
-8.02
-7.05
-5.82
-4.37
-2.80
-1.29
0.03
1.07
1.83
2.37
2.76
2.99
2.96
2.54
1.60
0.14
-1.74
-3.83
-5.88
-7.63
-8.81
-9.19
-8.60
-7.00
-4.58
-1.75
0.93
2.99
4.14
4.43
4.12
3.55
2.91
2.22
1.34
0.15
-1.34
-2.89
-4.18
-4.92
-4.96
-4.39
-3.35
-2.04
-0.53
1.20
3.25
5.64
8.27
10.95
13.42
15.42
16.79
17.45
17.33
16.42
14.74
12.37
9.48
6.28
3.01
-0.12
-2.96
-5.39
-7.33
-8.70
-9.50
-9.74
-9.52
-8.94
-8.09
-7.03
-5.84
-4.65
-3.60
-2.83
-2.48
-2.54
-2.95
-3.58
-4.26
-4.88
-5.37
-5.75
-6.06
-6.36
-6.67
-6.99
-7.27
-7.40
-7.26
-6.78
-5.93
-4.77
-3.45
-2.15
-1.04
-0.20
0.30
0.47
0.33
-0.07
-0.64
-1.26
-1.73
-1.89
-1.56
-0.71
0.58
2.09
3.57
4.75
5.47
5.71
5.52
5.01
4.31
3.50
2.65
1.84
1.20
0.84
0.86
1.26
1.93
2.68
3.35
3.81
3.98
3.86
3.48
2.90
2.19
1.42
0.61
-0.27
-1.23
-2.30
-3.43
-4.52
-5.47
-6.18
-6.60
-6.72
-6.56
-6.19
-5.68
-5.13
-4.63
-4.29
-4.13
-4.18
-4.40
-4.76
-5.16
-5.50
-5.62
-5.38
-4.70
-3.64
-2.35
-1.03
0.15
1.08
1.79
2.37
2.90
3.39
3.78
4.00
4.04
3.93
3.78
3.73
3.83
4.08
4.40
4.70
4.94
5.13
5.32
5.53
5.71
5.77
5.64
5.30
4.82
4.33
3.93
3.64
3.41
3.14
2.71
2.11
1.39
0.69
0.13
-0.25
-0.49
-0.71
-1.02
-1.48
-2.07
-2.71
-3.36
-3.95
-4.44
-4.78
-4.85
-4.52
-3.73
-2.54
-1.14
0.21
1.27
1.92
2.16
2.10
1.87
1.57
1.24
0.93
0.65
0.41
0.23
0.08
-0.08
-0.29
-0.62
-1.08
-1.63
-2.20
-2.66
-2.91
-2.89
-2.59
-2.09
-1.51
-1.00
-0.69
-0.66
-0.93
-1.41
-1.98
-2.45
-2.69
-2.64
-2.39
-2.11
-2.00
-2.18
-2.65
-3.31
-3.97
-4.49
-4.79
-4.84
-4.63
-4.14
-3.35
-2.22
-0.76
0.94
2.73
4.41
5.80
6.74
7.20
7.19
6.80
6.16
5.41
4.70
4.17
3.90
3.90
4.14
4.52
4.89
5.14
5.21
5.11
4.89
4.61
4.34
4.09
3.88
3.70
3.53
3.34
3.10
2.78
2.32
1.70
0.93
0.05
-0.85
-1.69
-2.40
-2.99
-3.53
-4.12
-4.85
-5.71
-6.58
-7.21
-7.36
-6.93
-5.97
-4.73
-3.48
-2.46
-1.75
-1.32
-1.08
-0.95
-0.94
-1.05
-1.25
-1.44
-1.46
-1.19
-0.59
0.25
1.23
2.26
3.33
4.46
5.67
6.86
7.90
8.62
8.95
8.96
8.79
8.64
8.65
8.84
9.14
9.43
9.57
9.47
9.03
8.18
6.84
4.99
2.62
-0.15
-3.11
-5.97
-8.45
-10.33
-11.56
-12.21
-12.46
-12.49
-12.37
-12.09
-11.55
-10.66
-9.40
-7.85
-6.14
-4.44
-2.84
-1.42
-0.23
0.62
0.97
0.66
-0.42
-2.17
-4.28
-6.24
-7.55
-7.83
-6.97
-5.14
-2.66
0.08
2.75
5.18
7.31
9.16
10.74
12.08
13.16
14.01
14.69
15.34
16.05
16.82
17.42
17.48
16.57
14.44
11.14
7.05
2.75
-1.20
-4.45
-6.90
-8.66
-9.89
-10.73
-11.17
-11.20
-10.78
-9.96
-8.82
-7.51
-6.14
-4.78
-3.47
-2.18
-0.94
0.18
1.08
1.65
1.86
1.81
1.66
1.60
1.74
2.11
2.62
3.19
3.75
4.28
4.77
5.19
5.48
5.56
5.43
5.11
4.65
4.14
3.63
3.20
2.87
2.66
2.55
2.46
2.32
2.03
1.55
0.91
0.13
-0.80
-1.93
-3.33
-5.01
-6.86
-8.71
-10.34
-11.56
-12.33
-12.65
-12.54
-12.01
-11.00
-9.47
-7.48
-5.18
-2.82
-0.66
1.10
2.38
3.23
3.76
4.12
4.44
4.82
5.31
5.98
6.84
7.88
9.03
10.19
11.28
12.22
13.02
13.71
14.27
14.68
14.84
14.66
14.03
12.90
11.26
9.19
6.79
4.23
1.69
-0.64
-2.57
-4.01
-4.99
-5.67
-6.33
-7.28
-8.74
-10.70
-12.96
-15.17
-17.00
-18.26
-18.97
-19.28
-19.31
-19.12
-18.64
-17.78
-16.47
-14.78
-12.84
-10.84
-8.92
-7.20
-5.74
-4.54
-3.54
-2.62
-1.58
-0.25
1.49
3.65
6.13
8.78
11.48
14.19
17.00
20.01
23.27
26.63
29.68
31.83
32.45
31.12
27.80
22.83
16.82
10.49
4.40
-1.07
-5.74
-9.58
-12.58
-14.77
-16.16
-16.86
-17.02
-16.83
-16.49
-16.14
-15.82
-15.50
-15.11
-14.61
-14.02
-13.43
-12.92
-12.41
-11.72
-10.49
-8.40
-5.29
-1.26
3.25
7.65
11.30
13.79
15.01
15.15
14.60
13.76
12.89
12.08
11.27
10.38
9.35
8.23
7.05
5.84
4.53
3.06
1.39
-0.43
-2.31
-4.13
-5.83
-7.37
-8.72
-9.84
-10.66
-11.15
-11.32
-11.17
-10.74
-10.03
-9.04
-7.83
-6.51
-5.33
-4.49
-4.12
-4.16
-4.41
-4.64
-4.66
-4.43
-4.00
-3.38
-2.57
-1.52
-0.20
1.27
2.64
3.64
4.04
3.84
3.22
2.44
1.75
1.29
1.08
1.07
1.18
1.34
1.49
1.53
1.36
0.95
0.36
-0.23
-0.57
-0.51
-0.05
0.65
1.33
1.74
1.77
1.45
0.95
0.49
0.29
0.49
1.11
2.06
3.15
4.14
4.77
4.89
4.48
3.65
2.60
1.53
0.61
-0.06
-0.42
-0.46
-0.18
0.38
1.12
1.89
2.51
2.81
2.72
2.26
1.55
0.77
-0.00
-0.77
-1.62
-2.58
-3.58
-4.43
-4.79
-4.41
-3.18
-1.17
1.38
4.16
6.88
9.36
11.50
13.22
14.48
15.21
15.29
14.59
13.06
10.70
7.66
4.25
0.82
-2.27
-4.76
-6.51
-7.53
-7.91
-7.84
-7.50
-7.11
-6.84
-6.77
-6.84
-6.93
-6.83
-6.40
-5.64
-4.64
-3.57
-2.56
-1.68
-0.95
-0.36
0.08
0.35
0.45
0.40
0.25
0.09
-0.05
-0.15
-0.23
-0.31
-0.39
-0.42
-0.38
-0.27
-0.11
0.05
0.16
0.20
0.18
0.10
-0.04
-0.28
-0.66
-1.18
-1.83
-2.51
-3.16
-3.72
-4.20
-4.60
-4.97
-5.34
-5.72
-6.11
-6.50
-6.90
-7.29
-7.65
-7.91
-7.97
-7.73
-7.14
-6.21
-5.01
-3.65
-2.21
-0.72
0.84
2.48
4.12
5.61
6.73
7.32
7.35
6.98
6.43
5.92
5.58
5.41
5.37
5.43
5.57
5.82
6.16
6.53
6.84
6.99
6.90
6.60
6.12
5.56
5.02
4.55
4.20
3.92
3.62
3.20
2.59
1.80
0.90
-0.02
-0.90
-1.71
-2.46
-3.14
-3.75
-4.26
-4.67
-5.03
-5.39
-5.76
-6.09
-6.22
-5.95
-5.20
-4.00
-2.53
-1.06
0.16
1.00
1.45
1.62
1.65
1.62
1.59
1.58
1.61
1.72
1.92
2.22
2.56
2.89
3.13
3.27
3.31
3.28
3.22
3.17
3.14
3.16
3.22
3.27
3.22
2.97
2.46
1.73
0.88
0.08
-0.60
-1.11
-1.52
-1.87
-2.23
-2.58
-2.89
-3.10
-3.21
-3.26
-3.31
-3.47
-3.84
-4.48
-5.36
-6.36
-7.26
-7.83
-7.88
-7.39
-6.47
-5.37
-4.34
-3.58
-3.16
-3.00
-2.89
-2.61
-1.98
-0.97
0.29
1.55
2.54
3.09
3.19
2.96
2.62
2.35
2.26
2.39
2.73
3.29
4.09
5.11
6.29
7.48
8.46
9.00
8.96
8.37
7.42
6.41
5.60
5.15
5.03
5.04
4.91
4.38
3.34
1.82
-0.00
-1.90
-3.66
-5.16
-6.36
-7.27
-7.91
-8.25
-8.24
-7.84
-7.04
-5.86
-4.36
-2.60
-0.69
1.19
2.84
4.00
4.53
4.38
3.71
2.71
1.59
0.47
-0.60
-1.57
-2.33
-2.73
-2.66
-2.13
-1.33
-0.55
-0.09
-0.09
-0.51
-1.17
-1.86
-2.42
-2.76
-2.92
-2.95
-2.94
-2.98
-3.13
-3.46
-3.99
-4.64
-5.29
-5.74
-5.82
-5.44
-4.63
-3.52
-2.29
-1.08
0.06
1.23
2.60
4.33
6.48
8.99
11.68
14.34
16.76
18.76
20.13
20.71
20.36
19.05
16.93
14.23
11.23
8.16
5.15
2.26
-0.48
-2.95
-4.99
-6.46
-7.33
-7.65
-7.59
-7.34
-7.00
-6.59
-6.12
-5.61
-5.12
-4.78
-4.69
-4.87
-5.25
-5.64
-5.85
-5.78
-5.47
-5.05
-4.68
-4.49
-4.50
-4.66
-4.90
-5.22
-5.64
-6.18
-6.82
-7.39
-7.68
-7.50
-6.78
-5.63
-4.31
-3.10
-2.18
-1.59
-1.21
-0.89
-0.52
-0.08
0.36
0.71
0.92
0.97
0.89
0.74
0.55
0.41
0.39
0.60
1.07
1.78
2.58
3.27
3.66
3.67
3.37
2.94
2.60
2.53
2.80
3.32
3.92
4.35
4.37
3.84
2.77
1.34
-0.19
-1.55
-2.63
-3.43
-4.09
-4.72
-5.35
-5.91
-6.25
-6.32
-6.11
-5.77
-5.44
-5.23
-5.21
-5.33
-5.54
-5.76
-5.92
-5.91
-5.67
-5.16
-4.44
-3.62
-2.83
-2.17
-1.63
-1.17
-0.71
-0.24
0.14
0.34
0.27
0.00
-0.32
-0.48
-0.34
0.13
0.88
1.76
2.66
3.49
4.21
4.75
5.01
4.93
4.46
3.68
2.75
1.83
1.07
0.50
0.07
-0.32
-0.79
-1.41
-2.25
-3.31
-4.58
-5.98
-7.39
-8.67
-9.70
-10.48
-11.09
-11.66
-12.29
-12.96
-13.54
-13.78
-13.47
-12.45
-10.68
-8.23
-5.21
-1.79
1.84
5.43
8.77
11.68
14.07
15.96
17.41
18.47
19.20
19.56
19.57
19.22
18.59
17.77
16.83
15.83
14.80
13.79
12.80
11.85
10.94
10.06
9.21
8.45
7.84
7.49
7.40
7.55
7.84
8.16
8.50
8.89
9.37
9.96
10.59
11.15
11.57
11.79
11.86
11.88
11.93
12.01
12.03
11.83
11.30
10.43
9.31
8.10
6.89
5.67
4.29
2.57
0.37
-2.27
-5.16
-8.04
-10.67
-12.89
-14.71
-16.17
-17.31
-18.13
-18.57
-18.62
-18.28
-17.62
-16.73
-15.65
-14.36
-12.84
-11.02
-8.96
-6.75
-4.61
-2.77
-1.45
-0.75
-0.62
-0.91
-1.41
-1.92
-2.30
-2.54
-2.71
-2.92
-3.24
-3.68
-4.17
-4.58
-4.76
-4.64
-4.28
-3.80
-3.39
-3.19
-3.26
-3.58
-4.03
-4.50
-4.86
-5.02
-4.90
-4.44
-3.65
-2.57
-1.34
-0.15
0.86
1.56
1.92
1.97
1.78
1.43
1.02
0.63
0.32
0.12
-0.02
-0.12
-0.23
-0.33
-0.38
-0.33
-0.14
0.16
0.53
0.94
1.38
1.89
2.50
3.22
4.01
4.75
5.33
5.64
5.60
5.20
4.48
3.51
2.41
1.26
0.14
-0.89
-1.81
-2.60
-3.24
-3.75
-4.22
-4.71
-5.31
-6.00
-6.64
-7.03
-6.96
-6.30
-5.06
-3.42
-1.61
0.10
1.49
2.44
2.92
2.97
2.71
2.25
1.65
0.90
-0.04
-1.18
-2.46
-3.68
-4.60
-5.01
-4.79
-4.03
-2.92
-1.70
-0.54
0.49
1.43
2.38
3.41
4.55
5.74
6.93
8.05
9.07
9.97
10.69
11.14
11.26
11.03
10.48
9.69
8.74
7.67
6.52
5.34
4.20
3.15
2.19
1.22
0.04
-1.52
-3.49
-5.73
-7.95
-9.83
-11.17
-11.92
-12.15
-11.98
-11.49
-10.74
-9.80
-8.79
-7.89
-7.20
-6.77
-6.48
-6.16
-5.65
-4.94
-4.11
-3.30
-2.62
-2.08
-1.59
-1.03
-0.35
0.39
1.05
1.50
1.64
1.51
1.21
0.85
0.50
0.19
-0.09
-0.33
-0.51
-0.60
-0.63
-0.65
-0.77
-1.05
-1.47
-1.98
-2.46
-2.87
-3.22
-3.57
-3.97
-4.44
-4.95
-5.42
-5.74
-5.84
-5.69
-5.27
-4.63
-3.86
-3.06
-2.33
-1.73
-1.27
-0.90
-0.63
-0.47
-0.49
-0.75
-1.27
-1.95
-2.61
-2.96
-2.74
-1.81
-0.14
2.10
4.68
7.31
9.79
11.94
13.64
14.80
15.32
15.13
14.25
12.78
10.98
9.11
7.43
6.05
4.96
4.06
3.25
2.47
1.73
1.11
0.67
0.43
0.26
-0.04
-0.74
-1.99
-3.80
-5.97
-8.11
-9.84
-10.85
-11.02
-10.45
-9.35
-7.94
-6.38
-4.77
-3.21
-1.79
-0.59
0.30
0.85
1.11
1.12
0.97
0.71
0.42
0.14
-0.07
-0.19
-0.20
-0.11
0.05
0.28
0.54
0.82
1.05
1.15
1.05
0.75
0.28
-0.24
-0.73
-1.14
-1.52
-1.94
-2.48
-3.15
-3.88
-4.58
-5.16
-5.58
-5.86
-6.08
-6.33
-6.66
-7.09
-7.57
-7.98
-8.15
-7.92
-7.18
-5.93
-4.31
-2.55
-0.89
0.47
1.40
1.90
2.01
1.83
1.46
1.02
0.65
0.49
0.64
1.16
1.97
2.94
3.91
4.73
5.31
5.65
5.79
5.76
5.67
5.59
5.58
5.70
5.96
6.34
6.77
7.12
7.28
7.13
6.63
5.88
5.05
4.38
4.09
4.24
4.71
5.20
5.39
5.04
4.06
2.56
0.77
-1.09
-2.82
-4.31
-5.52
-6.49
-7.26
-7.93
-8.54
-9.09
-9.47
-9.52
-9.08
-8.06
-6.52
-4.62
-2.54
-0.46
1.48
3.20
4.63
5.72
6.46
6.96
7.34
7.77
8.29
8.83
9.19
9.18
8.71
7.89
6.95
6.11
5.53
5.14
4.81
4.35
3.69
2.89
2.11
1.44
0.92
0.51
0.15
-0.19
-0.47
-0.66
-0.73
-0.74
-0.77
-0.87
-1.02
-1.13
-1.09
-0.79
-0.18
0.71
1.79
2.93
3.93
4.65
5.01
5.05
4.91
4.76
4.72
4.82
5.06
5.42
5.87
6.42
7.04
7.67
8.23
8.66
8.95
9.14
9.34
9.61
9.91
10.13
10.02
9.34
7.91
5.70
2.84
-0.39
-3.65
-6.64
-9.16
-11.17
-12.69
-13.83
-14.66
-15.25
-15.63
-15.84
-15.91
-15.80
-15.44
-14.73
-13.60
-12.07
-10.24
-8.29
-6.41
-4.75
-3.37
-2.27
-1.44
-0.89
-0.63
-0.64
-0.84
-1.09
-1.25
-1.21
-0.97
-0.61
-0.21
0.13
0.41
0.67
0.98
1.43
2.10
3.07
4.32
5.75
7.18
8.40
9.25
9.67
9.71
9.41
8.82
7.86
6.48
4.67
2.54
0.32
-1.74
-3.49
-4.95
-6.22
-7.44
-8.70
-9.94
-11.03
-11.80
-12.10
-11.88
-11.22
-10.24
-9.13
-8.04
-7.10
-6.37
-5.88
-5.62
-5.54
-5.55
-5.50
-5.23
-4.61
-3.61
-2.33
-0.92
0.44
1.66
2.77
3.83
4.90
6.02
7.15
8.18
9.04
9.63
9.86
9.68
9.09
8.18
7.13
6.17
5.51
5.27
5.45
5.91
6.46
6.91
7.13
7.05
6.69
6.03
5.08
3.81
2.24
0.45
-1.42
-3.21
-4.83
-6.28
-7.60
-8.80
-9.82
-10.47
-10.57
-10.01
-8.88
-7.38
-5.78
-4.28
-2.93
-1.70
-0.51
0.61
1.56
2.20
2.44
2.33
2.04
1.77
1.73
1.98
2.48
3.09
3.66
4.06
4.22
4.15
3.89
3.47
2.98
2.43
1.87
1.28
0.66
0.01
-0.63
-1.22
-1.69
-2.01
-2.21
-2.33
-2.44
-2.59
-2.75
-2.89
-2.93
-2.86
-2.70
-2.52
-2.43
-2.54
-2.88
-3.45
-4.17
-4.93
-5.58
-6.02
-6.14
-5.92
-5.36
-4.55
-3.60
-2.62
-1.68
-0.79
0.07
0.93
1.76
2.49
3.01
3.23
3.16
2.92
2.64
2.49
2.55
2.79
3.13
3.46
3.72
3.89
3.99
4.07
4.14
4.20
4.22
4.18
4.07
3.88
3.62
3.29
2.87
2.34
1.71
1.06
0.48
0.08
-0.09
-0.05
0.07
0.12
-0.03
-0.42
-0.99
-1.64
-2.26
-2.82
-3.32
-3.81
-4.31
-4.80
-5.20
-5.42
-5.40
-5.11
-4.56
-3.81
-2.90
-1.88
-0.82
0.21
1.16
1.96
2.52
2.82
2.82
2.60
2.26
1.99
1.92
2.13
2.58
3.13
3.62
3.94
4.12
4.21
4.30
4.40
4.47
4.42
4.21
3.84
3.37
2.89
2.45
2.08
1.77
1.49
1.23
0.98
0.72
0.42
0.10
-0.30
-0.79
-1.34
-1.92
-2.42
-2.74
-2.87
-2.89
-2.98
-3.27
-3.80
-4.43
-4.92
-5.06
-4.72
-3.98
-3.00
-1.99
-1.07
-0.30
0.35
0.89
1.36
1.76
2.11
2.39
2.61
2.70
2.64
2.37
1.91
1.33
0.73
0.23
-0.10
-0.18
-0.04
0.27
0.63
0.88
0.91
0.66
0.16
-0.47
-1.10
-1.57
-1.82
-1.82
-1.62
-1.29
-0.95
-0.67
-0.52
-0.50
-0.57
-0.65
-0.71
-0.75
-0.84
-1.06
-1.42
-1.89
-2.41
-2.91
-3.34
-3.63
-3.73
-3.52
-2.93
-1.98
-0.78
0.48
1.61
2.50
3.17
3.69
4.13
4.52
4.83
5.02
5.11
5.18
5.30
5.53
5.84
6.11
6.21
6.07
5.69
5.19
4.68
4.24
3.89
3.58
3.24
2.82
2.32
1.76
1.15
0.45
-0.33
-1.19
-2.05
-2.80
-3.39
-3.84
-4.31
-4.97
-5.98
-7.29
-8.76
-10.08
-10.99
-11.33
-11.06
-10.31
-9.21
-7.91
-6.48
-4.96
-3.40
-1.91
-0.62
0.35
0.95
1.21
1.23
1.12
0.96
0.82
0.73
0.68
0.71
0.82
1.03
1.35
1.78
2.29
2.85
3.38
3.80
4.05
4.09
3.91
3.56
3.05
2.41
1.65
0.84
0.03
-0.74
-1.42
-2.03
-2.59
-3.12
-3.60
-4.01
-4.35
-4.63
-4.95
-5.37
-5.91
-6.49
-6.91
-6.96
-6.48
-5.47
-4.06
-2.47
-0.95
0.30
1.19
1.72
1.93
1.93
1.83
1.72
1.70
1.81
2.00
2.21
2.38
2.48
2.57
2.72
2.98
3.33
3.70
3.95
3.99
3.82
3.50
3.15
2.87
2.68
2.53
2.31
1.96
1.46
0.85
0.22
-0.35
-0.85
-1.26
-1.65
-2.04
-2.49
-3.03
-3.67
-4.41
-5.16
-5.80
-6.16
-6.10
-5.53
-4.51
-3.19
-1.78
-0.49
0.57
1.38
1.98
2.44
2.77
2.96
2.97
2.80
2.52
2.24
2.06
2.05
2.19
2.42
2.66
2.89
3.07
3.21
3.31
3.34
3.25
3.02
2.63
2.13
1.59
1.11
0.78
0.63
0.60
0.60
0.45
0.06
-0.58
-1.37
-2.15
-2.78
-3.23
-3.55
-3.88
-4.32
-4.97
-5.81
-6.75
-7.61
-8.18
-8.22
-7.58
-6.25
-4.44
-2.47
-0.71
0.56
1.27
1.55
1.62
1.72
1.94
2.28
2.62
2.86
2.96
2.97
2.97
3.05
3.23
3.51
3.82
4.13
4.40
4.64
4.85
5.01
5.09
5.05
4.87
4.59
4.21
3.78
3.28
2.70
2.04
1.30
0.55
-0.16
-0.76
-1.22
-1.59
-1.97
-2.46
-3.15
-4.01
-4.96
-5.85
-6.53
-6.88
-6.87
-6.45
-5.66
-4.52
-3.11
-1.54
0.03
1.40
2.43
3.07
3.36
3.43
3.44
3.47
3.54
3.62
3.65
3.62
3.58
3.60
3.75
4.01
4.34
4.67
4.97
5.23
5.45
5.62
5.71
5.68
5.50
5.22
4.87
4.49
4.04
3.45
2.66
1.66
0.55
-0.53
-1.43
-2.07
-2.49
-2.79
-3.14
-3.63
-4.31
-5.13
-5.95
-6.63
-7.02
-7.02
-6.62
-5.84
-4.75
-3.48
-2.17
-0.93
0.17
1.08
1.82
2.40
2.83
3.10
3.21
3.20
3.12
3.08
3.14
3.35
3.65
3.99
4.30
4.53
4.67
4.71
4.66
4.54
4.42
4.37
4.40
4.45
4.43
4.23
3.85
3.33
2.76
2.19
1.59
0.90
0.07
-0.85
-1.74
-2.49
-3.01
-3.35
-3.65
-4.09
-4.78
-5.72
-6.80
-7.77
-8.37
-8.38
-7.75
-6.64
-5.28
-3.92
-2.69
-1.58
-0.50
0.60
1.66
2.57
3.20
3.51
3.60
3.57
3.54
3.54
3.52
3.42
3.23
2.98
2.76
2.65
2.67
2.82
3.04
3.25
3.39
3.39
3.20
2.79
2.20
1.51
0.84
0.26
-0.20
-0.58
-0.98
-1.50
-2.14
-2.86
-3.55
-4.11
-4.50
-4.77
-5.03
-5.41
-5.98
-6.70
-7.46
-8.04
-8.21
-7.84
-6.91
-5.57
-3.99
-2.38
-0.85
0.52
1.72
2.69
3.39
3.75
3.76
3.45
2.96
2.43
2.02
1.84
1.94
2.29
2.80
3.34
3.80
4.13
4.33
4.47
4.58
4.66
4.62
4.35
3.80
2.98
2.01
1.05
0.26
-0.28
-0.63
-0.88
-1.18
-1.64
-2.28
-3.07
-3.94
-4.84
-5.75
-6.62
-7.36
-7.83
-7.83
-7.26
-6.09
-4.48
-2.66
-0.93
0.52
1.60
2.31
2.79
3.12
3.40
3.64
3.80
3.78
3.56
3.13
2.59
2.06
1.71
1.62
1.79
2.13
2.53
2.89
3.18
3.38
3.46
3.38
3.06
2.46
1.65
0.73
-0.15
-0.88
-1.45
-1.89
-2.27
-2.62
-2.98
-3.35
-3.76
-4.25
-4.85
-5.53
-6.18
-6.70
-6.94
-6.85
-6.39
-5.60
-4.52
-3.21
-1.77
-0.30
1.08
2.25
3.15
3.74
4.04
4.08
3.92
3.66
3.37
3.14
3.03
3.04
3.15
3.29
3.39
3.40
3.29
3.06
2.75
2.42
2.11
1.86
1.65
1.44
1.23
1.04
0.91
0.83
0.77
0.68
0.46
0.05
-0.53
-1.23
-1.94
-2.59
-3.12
-3.56
-3.97
-4.43
-4.98
-5.60
-6.19
-6.58
-6.59
-6.11
-5.13
-3.74
-2.15
-0.56
0.85
1.95
2.70
3.08
3.15
2.97
2.60
2.15
1.70
1.39
1.29
1.43
1.75
2.12
2.39
2.47
2.36
2.13
1.88
1.68
1.53
1.39
1.17
0.84
0.40
-0.11
-0.66
-1.24
-1.88
-2.59
-3.41
-4.29
-5.20
-6.09
-6.93
-7.73
-8.51
-9.28
-10.07
-10.86
-11.61
-12.25
-12.66
-12.70
-12.20
-11.05
-9.25
-6.89
-4.17
-1.29
1.57
4.27
6.70
8.74
10.30
11.31
11.80
11.84
11.59
11.19
10.73
10.27
9.78
9.25
8.67
8.02
7.32
6.59
5.82
5.02
4.18
3.28
2.35
1.41
0.59
0.00
-0.29
-0.34
-0.32
-0.46
-0.96
-1.86
-3.04
-4.29
-5.41
-6.35
-7.14
-7.91
-8.74
-9.66
-10.66
-11.73
-12.90
-14.18
-15.55
-16.88
-17.96
-18.54
-18.45
-17.70
-16.44
-14.90
-13.28
-11.64
-9.90
-7.90
-5.51
-2.74
0.29
3.35
6.26
8.97
11.53
14.08
16.69
19.36
21.94
24.26
26.18
27.66
28.76
29.58
30.24
30.78
31.18
31.38
31.33
30.96
30.26
29.28
28.05
26.62
25.01
23.22
21.20
18.94
16.45
13.76
10.95
8.05
5.05
1.95
-1.28
-4.56
-7.74
-10.58
-12.87
-14.50
-15.48
-15.98
-16.17
-16.22
-16.22
-16.18
-16.06
-15.85
-15.54
-15.16
-14.70
-14.15
-13.47
-12.69
-11.88
-11.14
-10.52
-10.02
-9.51
-8.89
-8.10
-7.19
-6.28
-5.47
-4.85
-4.38
-4.03
-3.74
-3.53
-3.45
-3.55
-3.83
-4.19
-4.53
-4.74
-4.84
-4.89
-5.01
-5.32
-5.86
-6.63
-7.52
-8.39
-9.05
-9.30
-9.00
-8.09
-6.63
-4.83
-2.93
-1.21
0.16
1.15
1.82
2.29
2.65
2.92
3.10
3.13
3.02
2.82
2.65
2.61
2.79
3.20
3.77
4.39
4.94
5.31
5.45
5.38
5.14
4.81
4.46
4.13
3.80
3.46
3.06
2.59
2.06
1.50
0.92
0.32
-0.33
-1.05
-1.83
-2.63
-3.40
-4.11
-4.78
-5.46
-6.18
-6.93
-7.60
-8.00
-7.92
-7.23
-5.92
-4.14
-2.17
-0.30
1.21
2.26
2.89
3.20
3.32
3.34
3.26
3.11
2.95
2.86
2.96
3.30
3.81
4.34
4.73
4.86
4.78
4.62
4.53
4.58
4.74
4.88
4.87
4.63
4.16
3.52
2.79
2.02
1.24
0.48
-0.23
-0.85
-1.40
-1.89
-2.40
-2.98
-3.66
-4.41
-5.17
-5.90
-6.53
-7.04
-7.34
-7.36
-7.03
-6.32
-5.31
-4.11
-2.87
-1.70
-0.65
0.29
1.13
1.90
2.60
3.21
3.65
3.86
3.77
3.39
2.80
2.19
1.75
1.63
1.86
2.37
2.99
3.59
4.08
4.41
4.59
4.63
4.53
4.35
4.14
3.91
3.65
3.26
2.66
1.85
0.87
-0.11
-0.95
-1.56
-1.95
-2.24
-2.56
-3.05
-3.74
-4.57
-5.43
-6.20
-6.78
-7.09
-7.07
-6.65
-5.79
-4.53
-3.00
-1.44
-0.10
0.84
1.35
1.54
1.62
1.76
2.01
2.31
2.53
2.60
2.52
2.38
2.31
2.40
2.64
2.96
3.28
3.53
3.72
3.86
4.00
4.13
4.20
4.12
3.84
3.37
2.76
2.12
1.54
1.11
0.82
0.62
0.40
0.08
-0.40
-0.99
-1.59
-2.11
-2.51
-2.82
-3.13
-3.53
-4.06
-4.68
-5.29
-5.78
-6.02
-5.93
-5.43
-4.51
-3.23
-1.75
-0.26
1.07
2.08
2.74
3.06
3.09
2.91
2.62
2.28
1.96
1.67
1.46
1.33
1.32
1.46
1.75
2.16
2.60
2.96
3.19
3.26
3.22
3.10
2.93
2.70
2.37
1.94
1.47
1.04
0.71
0.46
0.21
-0.14
-0.63
-1.25
-1.93
-2.63
-3.33
-4.03
-4.76
-5.48
-6.14
-6.66
-6.99
-7.11
-7.04
-6.76
-6.25
-5.49
-4.47
-3.25
-1.93
-0.65
0.50
1.46
2.23
2.83
3.28
3.61
3.79
3.80
3.61
3.24
2.76
2.32
2.07
2.12
2.43
2.86
3.18
3.25
3.02
2.61
2.15
1.77
1.46
1.14
0.73
0.21
-0.39
-0.97
-1.49
-1.99
-2.56
-3.24
-4.02
-4.77
-5.36
-5.73
-5.87
-5.88
-5.85
-5.83
-5.76
-5.56
-5.07
-4.22
-3.02
-1.55
0.03
1.56
2.90
3.98
4.79
5.36
5.71
5.86
5.79
5.48
4.99
4.41
3.85
3.40
3.07
2.81
2.60
2.40
2.25
2.17
2.16
2.16
2.12
1.98
1.76
1.52
1.33
1.20
1.08
0.89
0.58
0.10
-0.48
-1.11
-1.71
-2.25
-2.74
-3.21
-3.72
-4.33
-5.06
-5.88
-6.68
-7.32
-7.63
-7.44
-6.65
-5.28
-3.47
-1.46
0.45
2.01
3.09
3.70
3.98
4.07
4.10
4.10
4.09
4.06
4.01
3.99
3.99
3.99
3.98
3.95
3.93
3.99
4.13
4.33
4.49
4.53
4.44
4.27
4.12
4.04
3.95
3.74
3.30
2.66
1.95
1.35
1.01
0.93
0.97
0.95
0.71
0.16
-0.74
-1.99
-3.51
-5.18
-6.77
-8.01
-8.71
-8.83
-8.52
-8.06
-7.71
-7.62
-7.77
-8.11
-8.53
-9.01
-9.52
-10.05
-10.52
-10.83
-10.84
-10.42
-9.42
-7.73
-5.33
-2.32
1.01
4.26
7.03
9.01
10.10
10.35
9.96
9.12
7.98
6.62
5.10
3.50
1.91
0.47
-0.76
-1.78
-2.67
-3.59
-4.63
-5.80
-6.98
-8.00
-8.66
-8.88
-8.71
-8.32
-7.93
-7.68
-7.55
-7.42
-7.06
-6.30
-5.07
-3.48
-1.72
0.01
1.56
2.88
3.97
4.84
5.47
5.82
5.95
5.93
5.94
6.11
6.52
7.17
8.00
8.92
9.84
10.70
11.48
12.20
12.95
13.87
15.04
16.50
18.17
19.82
21.21
22.06
22.20
21.53
20.04
17.83
15.07
12.00
8.85
5.79
2.89
0.12
-2.59
-5.29
-8.03
-10.78
-13.47
-15.98
-18.16
-19.83
-20.85
-21.23
-21.05
-20.56
-20.00
-19.58
-19.37
-19.37
-19.45
-19.45
-19.18
-18.46
-17.18
-15.34
-13.05
-10.53
-8.03
-5.69
-3.56
-1.61
0.22
1.97
3.63
5.15
6.50
7.66
8.61
9.35
9.84
10.03
9.90
9.49
8.83
7.94
6.87
5.65
4.37
3.10
1.90
0.73
-0.46
-1.77
-3.22
-4.70
-6.00
-6.89
-7.20
-6.92
-6.16
-5.14
-4.04
-2.97
-1.97
-1.01
-0.07
0.82
1.56
2.06
2.27
2.25
2.11
2.02
2.09
2.34
2.74
3.24
3.78
4.30
4.77
5.15
5.40
5.52
5.57
5.59
5.61
5.62
5.60
5.51
5.37
5.21
5.04
4.84
4.55
4.13
3.59
3.05
2.60
2.29
2.07
1.80
1.37
0.79
0.23
-0.06
0.15
0.89
1.98
3.12
4.01
4.48
4.54
4.28
3.82
3.14
2.18
0.88
-0.75
-2.55
-4.25
-5.52
-6.16
-6.09
-5.40
-4.34
-3.17
-2.11
-1.28
-0.70
-0.26
0.14
0.60
1.20
1.99
2.99
4.19
5.53
6.91
8.20
9.25
10.00
10.40
10.51
10.41
10.17
9.82
9.32
8.56
7.45
5.95
4.15
2.25
0.54
-0.76
-1.57
-2.02
-2.37
-2.88
-3.71
-4.87
-6.27
-7.78
-9.36
-11.03
-12.83
-14.70
-16.50
-17.98
-18.95
-19.26
-18.90
-17.97
-16.58
-14.88
-13.08
-11.35
-9.90
-8.82
-8.10
-7.57
-7.01
-6.25
-5.22
-3.98
-2.67
-1.35
-0.04
1.35
2.94
4.77
6.82
8.93
10.93
12.62
13.88
14.66
15.02
15.08
14.94
14.72
14.45
14.13
13.71
13.13
12.34
11.31
10.04
8.57
6.97
5.30
3.61
1.91
0.20
-1.49
-3.11
-4.53
-5.62
-6.33
-6.69
-6.86
-7.01
-7.30
-7.78
-8.37
-8.93
-9.31
-9.42
-9.24
-8.81
-8.18
-7.40
-6.53
-5.64
-4.78
-4.03
-3.41
-2.91
-2.51
-2.19
-1.96
-1.83
-1.79
-1.80
-1.76
-1.56
-1.17
-0.63
-0.03
0.54
1.03
1.46
1.84
2.17
2.40
2.44
2.26
1.89
1.40
0.87
0.34
-0.15
-0.61
-1.01
-1.29
-1.36
-1.17
-0.71
-0.02
0.84
1.79
2.81
3.87
4.97
6.10
7.22
8.26
9.12
9.73
10.02
9.99
9.64
9.02
8.17
7.12
5.89
4.51
3.03
1.54
0.15
-1.03
-1.95
-2.63
-3.11
-3.46
-3.70
-3.85
-3.95
-4.06
-4.26
-4.63
-5.21
-5.99
-6.87
-7.74
-8.51
-9.09
-9.45
-9.57
-9.44
-9.05
-8.35
-7.30
-5.89
-4.17
-2.22
-0.22
1.71
3.43
4.93
6.22
7.33
8.26
8.96
9.36
9.44
9.24
8.85
8.39
7.95
7.52
7.07
6.55
5.92
5.22
4.53
3.94
3.50
3.18
2.91
2.55
2.02
1.27
0.35
-0.63
-1.53
-2.28
-2.84
-3.24
-3.54
-3.79
-3.98
-4.11
-4.13
-4.04
-3.86
-3.62
-3.36
-3.10
-2.81
-2.48
-2.11
-1.72
-1.35
-1.03
-0.73
-0.41
0.02
0.63
1.42
2.32
3.24
4.03
4.60
4.86
4.78
4.33
3.51
2.37
1.03
-0.34
-1.51
-2.34
-2.77
-2.86
-2.74
-2.60
-2.56
-2.70
-3.01
-3.42
-3.80
-4.06
-4.16
-4.11
-3.99
-3.83
-3.64
-3.39
-3.04
-2.58
-2.09
-1.69
-1.46
-1.41
-1.46
-1.47
-1.34
-1.07
-0.71
-0.35
-0.06
0.18
0.40
0.60
0.79
0.90
0.91
0.83
0.74
0.79
1.07
1.64
2.46
3.46
4.48
5.43
6.19
6.69
6.84
6.57
5.88
4.84
3.61
2.37
1.26
0.33
-0.46
-1.17
-1.88
-2.57
-3.19
-3.66
-3.99
-4.22
-4.43
-4.68
-4.95
-5.12
-5.09
-4.78
-4.24
-3.63
-3.13
-2.90
-2.96
-3.20
-3.42
-3.43
-3.14
-2.57
-1.85
-1.13
-0.54
-0.16
0.02
0.02
-0.13
-0.40
-0.78
-1.31
-1.99
-2.77
-3.56
-4.21
-4.56
-4.52
-4.07
-3.36
-2.59
-1.99
-1.71
-1.79
-2.17
-2.82
-3.70
-4.76
-5.90
-6.84
-7.25
-6.79
-5.31
-2.93
0.03
3.12
6.02
8.58
10.80
12.81
14.70
16.49
18.12
19.50
20.55
21.25
21.62
21.69
21.51
21.12
20.52
19.75
18.82
17.83
16.87
16.01
15.23
14.39
13.23
11.42
8.71
5.07
0.65
-4.17
-8.95
-13.32
-17.03
-20.02
-22.31
-23.94
-24.98
-25.45
-25.43
-24.99
-24.27
-23.32
-22.16
-20.72
-18.88
-16.59
-13.90
-11.00
-8.14
-5.56
-3.41
-1.74
-0.47
0.53
1.35
2.03
2.55
2.88
3.01
2.96
2.78
2.51
2.21
1.90
1.60
1.29
0.98
0.59
0.10
-0.54
-1.29
-2.12
-3.00
-3.92
-4.90
-5.96
-7.10
-8.20
-9.13
-9.74
-9.96
-9.81
-9.42
-8.94
-8.48
-8.09
-7.72
-7.25
-6.55
-5.54
-4.20
-2.63
-0.98
0.56
1.85
2.83
3.57
4.17
4.78
5.47
6.23
6.97
7.52
7.75
7.55
6.91
5.88
4.55
3.09
1.67
0.42
-0.54
-1.21
-1.65
-1.95
-2.17
-2.27
-2.11
-1.51
-0.32
1.42
3.57
5.81
7.82
9.36
10.27
10.50
10.07
9.03
7.48
5.60
3.65
1.92
0.67
0.05
0.05
0.50
1.16
1.77
2.17
2.32
2.25
2.06
1.82
1.56
1.30
1.02
0.75
0.50
0.27
0.05
-0.17
-0.41
-0.67
-0.92
-1.15
-1.34
-1.51
-1.65
-1.75
-1.78
-1.73
-1.58
-1.34
-1.05
-0.72
-0.38
-0.06
0.20
0.34
0.28
0.02
-0.37
-0.77
-1.04
-1.09
-0.93
-0.65
-0.41
-0.32
-0.40
-0.60
-0.83
-1.02
-1.16
-1.30
-1.51
-1.77
-1.97
-1.96
-1.66
-1.09
-0.41
0.14
0.36
0.17
-0.33
-0.97
-1.58
-2.08
-2.51
-2.97
-3.53
-4.20
-4.88
-5.45
-5.84
-6.01
-5.92
-5.56
-4.89
-3.92
-2.71
-1.41
-0.15
0.95
1.88
2.69
3.44
4.13
4.66
4.93
4.93
4.76
4.63
4.71
5.06
5.55
5.95
6.10
5.99
5.74
5.53
5.43
5.41
5.36
5.17
4.85
4.48
4.17
3.90
3.60
3.13
2.43
1.56
0.69
0.04
-0.25
-0.17
0.20
0.68
1.12
1.37
1.39
1.17
0.80
0.37
-0.03
-0.34
-0.56
-0.73
-0.93
-1.27
-1.81
-2.56
-3.42
-4.21
-4.76
-4.95
-4.74
-4.19
-3.41
-2.50
-1.55
-0.64
0.13
0.68
1.00
1.14
1.21
1.31
1.50
1.71
1.83
1.74
1.44
1.01
0.60
0.38
0.42
0.76
1.32
1.96
2.51
2.82
2.80
2.47
1.98
1.51
1.24
1.20
1.29
1.32
1.10
0.55
-0.28
-1.17
-1.86
-2.13
-1.83
-0.99
0.30
1.85
3.44
4.87
5.98
6.70
7.12
7.35
7.55
7.80
8.07
8.23
8.10
7.56
6.56
5.13
3.35
1.35
-0.70
-2.62
-4.18
-5.24
-5.72
-5.71
-5.40
-5.01
-4.72
-4.59
-4.59
-4.67
-4.73
-4.74
-4.66
-4.50
-4.29
-4.07
-3.88
-3.70
-3.48
-3.13
-2.57
-1.82
-0.91
0.05
0.98
1.79
2.47
2.99
3.33
3.50
3.49
3.33
3.03
2.65
2.22
1.79
1.42
1.14
0.97
0.86
0.75
0.58
0.33
0.07
-0.16
-0.33
-0.50
-0.76
-1.16
-1.65
-2.12
-2.45
-2.59
-2.63
-2.71
-2.93
-3.28
-3.61
-3.75
-3.57
-3.09
-2.44
-1.75
-1.15
-0.66
-0.25
0.10
0.43
0.75
1.04
1.31
1.58
1.83
2.03
2.15
2.12
1.95
1.71
1.46
1.27
1.16
1.11
1.05
0.97
0.87
0.82
0.85
0.96
1.07
1.07
0.88
0.49
-0.02
-0.51
-0.86
-1.04
-1.11
-1.20
-1.44
-1.90
-2.55
-3.23
-3.75
-3.95
-3.80
-3.34
-2.73
-2.10
-1.50
-0.94
-0.41
0.07
0.43
0.63
0.61
0.41
0.11
-0.24
-0.57
-0.91
-1.26
-1.63
-1.97
-2.19
-2.20
-1.97
-1.55
-1.08
-0.75
-0.67
-0.85
-1.16
-1.43
-1.50
-1.38
-1.21
-1.21
-1.52
-2.14
-2.94
-3.75
-4.41
-4.92
-5.33
-5.72
-6.13
-6.57
-7.04
-7.53
-8.03
-8.48
-8.75
-8.68
-8.12
-6.99
-5.31
-3.19
-0.78
1.73
4.18
6.46
8.48
10.27
11.91
13.47
14.97
16.30
17.30
17.83
17.87
17.53
17.02
16.56
16.28
16.18
16.18
16.16
16.02
15.70
15.14
14.33
13.28
12.08
10.90
9.92
9.27
8.96
8.85
8.67
8.19
7.28
5.93
4.29
2.51
0.69
-1.12
-2.94
-4.74
-6.47
-8.00
-9.21
-10.02
-10.42
-10.47
-10.29
-9.98
-9.63
-9.27
-8.98
-8.82
-8.84
-9.10
-9.54
-10.05
-10.49
-10.75
-10.79
-10.68
-10.49
-10.30
-10.10
-9.85
-9.48
-9.00
-8.46
-7.94
-7.53
-7.28
-7.18
-7.17
-7.17
-7.09
-6.87
-6.49
-5.97
-5.37
-4.74
-4.14
-3.57
-3.03
-2.51
-2.00
-1.45
-0.79
0.09
1.25
2.68
4.19
5.43
6.06
5.84
4.76
3.05
1.13
-0.53
-1.59
-1.88
-1.51
-0.77
-0.00
0.48
0.54
0.24
-0.23
-0.65
-0.92
-1.03
-1.09
-1.14
-1.17
-1.06
-0.74
-0.20
0.40
0.85
1.01
0.86
0.58
0.35
0.35
0.56
0.84
1.01
0.91
0.51
-0.10
-0.74
-1.26
-1.57
-1.70
-1.72
-1.70
-1.67
-1.61
-1.52
-1.40
-1.34
-1.42
-1.71
-2.20
-2.79
-3.34
-3.69
-3.79
-3.64
-3.34
-2.96
-2.54
-2.06
-1.47
-0.73
0.13
1.00
1.77
2.31
2.59
2.62
2.46
2.19
1.88
1.61
1.46
1.51
1.77
2.23
2.84
3.51
4.13
4.62
4.86
4.79
4.41
3.82
3.17
2.65
2.34
2.18
2.02
1.66
1.00
0.08
-0.94
-1.88
-2.60
-3.07
-3.32
-3.43
-3.50
-3.61
-3.84
-4.29
-4.97
-5.88
-6.90
-7.84
-8.50
-8.73
-8.49
-7.86
-6.99
-6.07
-5.22
-4.50
-3.89
-3.40
-3.02
-2.78
-2.67
-2.62
-2.47
-2.02
-1.13
0.25
2.00
3.89
5.67
7.14
8.20
8.86
9.18
9.23
9.06
8.72
8.27
7.80
7.38
7.04
6.72
6.30
5.70
4.85
3.80
2.63
1.46
0.36
-0.60
-1.37
-1.93
-2.28
-2.47
-2.56
-2.64
-2.74
-2.78
-2.67
-2.22
-1.27
0.27
2.41
5.06
8.00
10.94
13.56
15.57
16.79
17.15
16.73
15.72
14.36
12.92
11.61
10.50
9.53
8.51
7.24
5.58
3.58
1.42
-0.66
-2.46
-3.96
-5.28
-6.55
-7.85
-9.12
-10.17
-10.82
-10.96
-10.68
-10.17
-9.64
-9.24
-9.03
-8.93
-8.87
-8.78
-8.62
-8.38
-8.09
-7.77
-7.45
-7.18
-7.00
-6.91
-6.88
-6.85
-6.74
-6.49
-6.09
-5.52
-4.82
-4.00
-3.10
-2.17
-1.29
-0.58
-0.12
0.02
-0.17
-0.59
-1.13
-1.62
-1.97
-2.13
-2.15
-2.12
-2.16
-2.34
-2.65
-3.05
-3.46
-3.82
-4.08
-4.21
-4.11
-3.66
-2.73
-1.21
0.85
3.31
5.90
8.35
10.41
11.90
12.65
12.53
11.48
9.57
7.04
4.30
1.75
-0.31
-1.78
-2.68
-3.12
-3.14
-2.77
-1.98
-0.88
0.35
1.48
2.30
2.74
2.92
3.01
3.18
3.50
3.84
4.04
3.95
3.54
2.95
2.38
1.97
1.76
1.66
1.50
1.23
0.86
0.51
0.26
0.11
-0.01
-0.22
-0.57
-1.03
-1.54
-2.01
-2.41
-2.71
-2.90
-2.95
-2.87
-2.69
-2.47
-2.29
-2.15
-1.96
-1.56
-0.83
0.27
1.67
3.17
4.58
5.72
6.53
7.00
7.16
7.06
6.74
6.21
5.51
4.68
3.79
2.92
2.17
1.68
1.57
1.91
2.73
4.00
5.60
7.40
9.25
11.00
12.50
13.54
13.94
13.51
12.18
9.95
6.96
3.42
-0.37
-4.12
-7.53
-10.38
-12.51
-13.88
-14.57
-14.79
-14.77
-14.77
-14.95
-15.37
-15.90
-16.33
-16.38
-15.84
-14.67
-13.01
-11.15
-9.40
-7.95
-6.86
-6.01
-5.24
-4.45
-3.63
-2.86
-2.27
-1.95
-1.88
-1.96
-2.04
-2.00
-1.79
-1.43
-1.06
-0.80
-0.76
-0.98
-1.39
-1.90
-2.42
-2.93
-3.47
-4.10
-4.83
-5.64
-6.38
-6.91
-7.05
-6.68
-5.76
-4.29
-2.39
-0.22
1.97
3.93
5.49
6.63
7.49
8.34
9.48
11.10
13.18
15.56
17.94
20.02
21.57
22.53
22.93
22.94
22.71
22.42
22.17
21.98
21.79
21.47
20.86
19.85
18.33
16.33
13.91
11.21
8.40
5.61
2.93
0.41
-1.93
-4.05
-5.85
-7.25
-8.21
-8.78
-9.11
-9.33
-9.52
-9.67
-9.71
-9.57
-9.29
-8.96
-8.70
-8.58
-8.58
-8.65
-8.76
-8.96
-9.28
-9.72
-10.15
-10.34
-10.07
-9.21
-7.85
-6.19
-4.52
-3.07
-1.94
-1.10
-0.45
0.08
0.56
0.99
1.37
1.70
1.97
2.19
2.33
2.33
2.13
1.71
1.15
0.56
0.07
-0.22
-0.36
-0.44
-0.58
-0.84
-1.13
-1.33
-1.36
-1.24
-1.11
-1.17
-1.58
-2.33
-3.29
-4.26
-5.07
-5.65
-6.09
-6.51
-7.07
-7.82
-8.79
-9.91
-11.09
-12.18
-13.06
-13.56
-13.53
-12.88
-11.55
-9.59
-7.14
-4.41
-1.62
1.03
3.45
5.62
7.56
9.29
10.80
12.05
12.97
13.57
13.88
13.97
13.88
13.63
13.17
12.46
11.52
10.44
9.36
8.42
7.69
7.13
6.62
6.05
5.35
4.53
3.67
2.86
2.20
1.75
1.56
1.62
1.88
2.18
2.36
2.31
2.02
1.57
1.12
0.83
0.80
1.01
1.43
1.97
2.54
3.06
3.43
3.59
3.48
3.13
2.59
1.95
1.31
0.74
0.30
0.01
-0.12
-0.09
0.06
0.29
0.55
0.78
0.94
1.03
1.05
1.05
1.06
1.08
1.10
1.10
1.05
0.92
0.70
0.36
-0.12
-0.74
-1.45
-2.16
-2.77
-3.20
-3.46
-3.64
-3.84
-4.16
-4.64
-5.27
-5.96
-6.61
-7.09
-7.28
-7.09
-6.51
-5.59
-4.47
-3.35
-2.41
-1.76
-1.42
-1.34
-1.43
-1.56
-1.68
-1.72
-1.69
-1.58
-1.43
-1.26
-1.07
-0.92
-0.83
-0.81
-0.86
-0.97
-1.08
-1.13
-1.10
-1.00
-0.87
-0.76
-0.74
-0.82
-0.96
-1.09
-1.12
-1.05
-0.92
-0.83
-0.86
-1.03
-1.30
-1.53
-1.64
-1.59
-1.45
-1.33
-1.35
-1.54
-1.88
-2.27
-2.58
-2.73
-2.69
-2.44
-2.01
-1.45
-0.83
-0.22
0.31
0.73
1.02
1.25
1.44
1.62
1.77
1.86
1.86
1.79
1.74
1.78
1.99
2.36
2.86
3.43
3.99
4.53
4.98
5.35
5.60
5.75
5.81
5.82
5.83
5.84
5.85
5.81
5.68
5.41
4.95
4.34
3.59
2.77
1.91
1.01
0.06
-0.92
-1.90
-2.77
-3.46
-3.93
-4.21
-4.38
-4.50
-4.59
-4.62
-4.56
-4.44
-4.33
-4.34
-4.51
-4.83
-5.20
-5.46
-5.46
-5.11
-4.40
-3.41
-2.28
-1.21
-0.37
0.13
0.28
0.20
0.04
-0.02
0.15
0.53
1.06
1.58
1.97
2.19
2.26
2.27
2.33
2.48
2.68
2.87
2.98
3.00
3.01
3.10
3.33
3.68
4.06
4.35
4.46
4.36
4.08
3.70
3.29
2.91
2.60
2.35
2.15
1.97
1.79
1.58
1.32
0.97
0.52
-0.01
-0.58
-1.12
-1.53
-1.75
-1.75
-1.56
-1.21
-0.78
-0.31
0.22
0.80
1.45
2.11
2.70
3.12
3.21
2.86
1.96
0.47
-1.61
-4.22
-7.21
-10.41
-13.59
-16.58
-19.27
-21.64
-23.66
-25.29
-26.40
-26.86
-26.50
-25.26
-23.21
-20.47
-17.22
-13.63
-9.90
-6.19
-2.71
0.37
2.95
5.05
6.81
8.41
9.96
11.47
12.83
13.91
14.63
15.02
15.16
15.16
15.02
14.70
14.09
13.13
11.87
10.44
9.02
7.75
6.72
5.90
5.25
4.77
4.47
4.39
4.54
4.88
5.30
5.67
5.89
5.95
5.91
5.90
6.03
6.33
6.77
7.23
7.61
7.80
7.76
7.44
6.79
5.78
4.44
2.87
1.26
-0.19
-1.28
-1.93
-2.13
-1.92
-1.40
-0.67
0.11
0.74
0.98
0.69
-0.17
-1.47
-2.96
-4.40
-5.60
-6.47
-6.97
-7.14
-7.01
-6.68
-6.27
-5.93
-5.79
-5.86
-6.08
-6.32
-6.49
-6.59
-6.72
-7.01
-7.51
-8.10
-8.53
-8.53
-7.92
-6.72
-5.14
-3.51
-2.16
-1.23
-0.73
-0.49
-0.32
-0.06
0.31
0.74
1.10
1.33
1.41
1.38
1.33
1.28
1.21
1.08
0.91
0.75
0.66
0.65
0.63
0.45
0.00
-0.73
-1.57
-2.25
-2.51
-2.24
-1.55
-0.72
-0.08
0.14
-0.13
-0.79
-1.68
-2.66
-3.63
-4.57
-5.46
-6.34
-7.20
-8.10
-9.08
-10.21
-11.47
-12.76
-13.89
-14.55
-14.46
-13.46
-11.54
-8.90
-5.85
-2.74
0.19
2.82
5.20
7.41
9.55
11.61
13.49
15.02
16.05
16.51
16.40
15.84
14.99
14.02
13.07
12.17
11.33
10.47
9.56
8.59
7.63
6.75
6.01
5.43
4.95
4.52
4.07
3.56
3.03
2.60
2.42
2.64
3.36
4.53
5.99
7.45
8.66
9.41
9.64
9.38
8.68
7.59
6.05
3.98
1.36
-1.70
-4.95
-8.04
-10.62
-12.45
-13.37
-13.35
-12.43
-10.72
-8.42
-5.83
-3.34
-1.36
-0.18
0.07
-0.46
-1.49
-2.67
-3.76
-4.62
-5.22
-5.59
-5.75
-5.71
-5.49
-5.14
-4.76
-4.44
-4.24
-4.17
-4.16
-4.14
-4.03
-3.80
-3.47
-3.05
-2.55
-1.94
-1.24
-0.48
0.23
0.77
1.05
1.04
0.81
0.50
0.21
0.04
0.01
0.13
0.38
0.77
1.31
2.02
2.86
3.78
4.70
5.50
6.10
6.42
6.42
6.11
5.54
4.81
3.98
3.16
2.38
1.71
1.18
0.82
0.66
0.61
0.55
0.29
-0.33
-1.35
-2.65
-4.03
-5.24
-6.13
-6.70
-7.09
-7.51
-8.09
-8.82
-9.55
-10.04
-10.08
-9.58
-8.58
-7.26
-5.82
-4.49
-3.41
-2.66
-2.29
-2.25
-2.48
-2.83
-3.09
-3.06
-2.59
-1.69
-0.50
0.70
1.63
2.12
2.11
1.68
1.02
0.32
-0.27
-0.64
-0.77
-0.70
-0.53
-0.33
-0.17
-0.08
-0.03
-0.01
-0.01
-0.10
-0.39
-0.98
-1.85
-2.88
-3.82
-4.38
-4.32
-3.50
-1.89
0.39
3.20
6.36
9.70
13.00
16.05
18.66
20.71
22.20
23.21
23.94
24.57
25.22
25.87
26.40
26.62
26.28
25.20
23.26
20.41
16.75
12.48
7.89
3.33
-0.86
-4.43
-7.27
-9.39
-10.88
-11.94
-12.78
-13.64
-14.66
-15.97
-17.59
-19.46
-21.47
-23.38
-24.92
-25.77
-25.66
-24.40
-21.99
-18.54
-14.35
-9.74
-4.96
-0.17
4.56
9.17
13.53
17.34
20.20
21.69
21.52
19.67
16.39
12.22
7.77
3.66
0.33
-1.97
-3.23
-3.58
-3.30
-2.71
-2.09
-1.65
-1.47
-1.56
-1.84
-2.27
-2.79
-3.36
-3.96
-4.49
-4.88
-5.07
-5.03
-4.80
-4.40
-3.80
-2.98
-1.88
-0.55
0.87
2.12
2.97
3.23
2.88
2.04
0.90
-0.34
-1.52
-2.50
-3.22
-3.59
-3.59
-3.22
-2.60
-1.91
-1.43
-1.33
-1.67
-2.23
-2.65
-2.54
-1.67
-0.16
1.60
3.10
3.93
4.00
3.48
2.66
1.75
0.72
-0.58
-2.30
-4.37
-6.42
-7.89
-8.25
-7.26
-5.04
-2.07
0.99
3.57
5.30
6.12
6.17
5.72
5.03
4.24
3.40
2.46
1.39
0.17
-1.12
-2.39
-3.54
-4.52
-5.34
-6.06
-6.72
-7.35
-7.91
-8.38
-8.77
-9.17
-9.67
-10.35
-11.16
-11.87
-12.13
-11.54
-9.82
-6.88
-2.85
1.97
7.28
12.84
18.45
23.84
28.60
32.20
34.08
33.93
31.81
28.16
23.66
18.98
14.56
10.56
6.95
3.62
0.51
-2.36
-4.97
-7.31
-9.47
-11.52
-13.50
-15.36
-16.98
-18.19
-18.90
-19.03
-18.55
-17.39
-15.44
-12.64
-8.97
-4.60
0.20
5.10
9.82
14.20
18.17
21.70
24.68
26.93
28.13
28.04
26.49
23.56
19.54
14.89
10.14
5.78
2.14
-0.63
-2.59
-3.93
-4.90
-5.71
-6.51
-7.34
-8.17
-8.92
-9.54
-10.04
-10.42
-10.73
-10.98
-11.15
-11.23
-11.23
-11.20
-11.18
-11.17
-11.10
-10.86
-10.30
-9.41
-8.25
-7.03
-5.94
-5.15
-4.69
-4.49
-4.44
-4.40
-4.31
-4.13
-3.88
-3.57
-3.23
-2.89
-2.57
-2.30
-2.12
-2.04
-2.08
-2.22
-2.45
-2.72
-2.95
-3.10
-3.12
-3.07
-3.01
-3.01
-3.05
-3.07
-2.94
-2.56
-1.92
-1.07
-0.13
0.79
1.61
2.28
2.78
3.08
3.21
3.21
3.17
3.17
3.21
3.25
3.20
3.04
2.81
2.59
2.47
2.45
2.48
2.49
2.44
2.37
2.33
2.31
2.27
2.09
1.72
1.16
0.48
-0.21
-0.87
-1.49
-2.08
-2.67
-3.24
-3.74
-4.12
-4.37
-4.51
-4.57
-4.61
-4.68
-4.86
-5.19
-5.70
-6.33
-6.99
-7.55
-7.91
-8.01
-7.84
-7.43
-6.84
-6.10
-5.29
-4.47
-3.78
-3.28
-3.03
-2.98
-3.04
-3.12
-3.16
-3.16
-3.15
-3.17
-3.21
-3.27
-3.30
-3.29
-3.25
-3.23
-3.26
-3.28
-3.19
-2.87
-2.26
-1.34
-0.16
1.20
2.71
4.33
6.10
8.00
10.06
12.26
14.55
16.88
19.15
21.20
22.80
23.68
23.60
22.39
20.00
16.51
12.17
7.28
2.24
-2.59
-6.91
-10.52
-13.32
-15.29
-16.49
-17.00
-16.89
-16.29
-15.27
-13.95
-12.39
-10.65
-8.72
-6.60
-4.32
-1.96
0.34
2.41
4.15
5.57
6.78
7.91
9.06
10.18
11.10
11.64
11.65
11.12
10.15
8.91
7.58
6.28
5.07
4.04
3.24
2.73
2.48
2.35
2.17
1.74
0.98
-0.07
-1.25
-2.36
-3.23
-3.81
-4.12
-4.26
-4.30
-4.32
-4.39
-4.57
-4.91
-5.40
-5.96
-6.45
-6.69
-6.58
-6.10
-5.34
-4.43
-3.47
-2.52
-1.56
-0.58
0.41
1.33
2.06
2.49
2.56
2.29
1.80
1.25
0.79
0.51
0.40
0.44
0.58
0.82
1.17
1.63
2.14
2.59
2.89
2.99
2.95
2.91
2.96
3.11
3.25
3.20
2.83
2.13
1.18
0.19
-0.69
-1.36
-1.81
-2.09
-2.31
-2.56
-2.93
-3.48
-4.21
-5.09
-5.95
-6.64
-6.97
-6.83
-6.20
-5.15
-3.88
-2.55
-1.33
-0.32
0.43
0.97
1.34
1.59
1.71
1.62
1.28
0.69
-0.05
-0.73
-1.14
-1.16
-0.80
-0.23
0.33
0.67
0.73
0.53
0.20
-0.20
-0.68
-1.30
-2.13
-3.18
-4.33
-5.44
-6.35
-7.04
-7.58
-8.08
-8.61
-9.11
-9.43
-9.36
-8.75
-7.58
-5.95
-4.05
-2.07
-0.14
1.65
3.25
4.70
6.03
7.31
8.60
9.91
11.21
12.39
13.34
13.96
14.21
14.10
13.62
12.78
11.59
10.08
8.35
6.55
4.82
3.27
1.93
0.77
-0.25
-1.14
-1.85
-2.36
-2.65
-2.76
-2.78
-2.80
-2.91
-3.14
-3.47
-3.80
-4.01
-3.97
-3.59
-2.87
-1.91
-0.86
0.14
1.01
1.72
2.27
2.69
2.97
3.14
3.19
3.15
3.00
2.74
2.35
1.82
1.21
0.66
0.36
0.45
1.04
2.07
3.42
4.89
6.31
7.54
8.50
9.19
9.66
9.97
10.25
10.58
11.02
11.60
12.27
12.99
13.72
14.43
15.04
15.44
15.48
15.00
13.92
12.30
10.24
7.89
5.34
2.66
-0.11
-2.81
-5.24
-7.22
-8.68
-9.74
-10.61
-11.52
-12.55
-13.63
-14.61
-15.36
-15.82
-16.08
-16.21
-16.27
-16.26
-16.14
-15.90
-15.55
-15.13
-14.69
-14.19
-13.56
-12.70
-11.49
-9.89
-7.91
-5.70
-3.46
-1.42
0.26
1.56
2.57
3.41
4.16
4.80
5.27
5.53
5.67
5.85
6.25
6.96
7.87
8.74
9.29
9.34
8.84
7.91
6.73
5.47
4.27
3.20
2.26
1.44
0.70
-0.00
-0.71
-1.45
-2.26
-3.12
-3.98
-4.66
-4.99
-4.77
-3.91
-2.46
-0.65
1.21
2.80
3.87
4.31
4.11
3.38
2.29
1.05
-0.16
-1.17
-1.92
-2.38
-2.59
-2.62
-2.53
-2.34
-2.09
-1.77
-1.42
-1.06
-0.75
-0.58
-0.62
-0.93
-1.50
-2.25
-3.04
-3.72
-4.19
-4.46
-4.61
-4.78
-5.10
-5.64
-6.39
-7.31
-8.31
-9.37
-10.49
-11.70
-13.01
-14.35
-15.62
-16.70
-17.50
-17.98
-18.14
-17.98
-17.43
-16.39
-14.77
-12.59
-9.98
-7.20
-4.58
-2.35
-0.66
0.57
1.46
2.20
2.91
3.62
4.31
4.95
5.53
6.09
6.65
7.25
7.89
8.58
9.33
10.17
11.10
12.08
13.00
13.70
14.05
13.99
13.61
13.06
12.54
12.21
12.12
12.24
12.46
12.67
12.74
12.59
12.20
11.62
10.97
10.41
10.07
10.04
10.33
10.85
11.50
12.16
12.78
13.32
13.79
14.23
14.66
15.05
15.34
15.48
15.45
15.29
15.13
15.10
15.28
15.63
16.04
16.34
16.34
15.94
15.05
13.62
11.66
9.23
6.48
3.56
0.57
-2.44
-5.50
-8.62
-11.73
-14.64
-17.09
-18.86
-19.83
-20.07
-19.73
-19.03
-18.16
-17.24
-16.35
-15.53
-14.78
-14.07
-13.33
-12.48
-11.50
-10.43
-9.36
-8.36
-7.52
-6.86
-6.32
-5.80
-5.19
-4.37
-3.31
-2.13
-1.06
-0.39
-0.38
-1.11
-2.43
-3.99
-5.35
-6.11
-6.07
-5.25
-3.86
-2.23
-0.71
0.46
1.15
1.38
1.26
0.92
0.47
0.01
-0.41
-0.74
-0.95
-1.01
-0.94
-0.76
-0.52
-0.26
0.01
0.28
0.53
0.74
0.88
0.98
1.08
1.21
1.38
1.51
1.53
1.35
0.94
0.28
-0.65
-1.91
-3.51
-5.33
-7.09
-8.41
-8.90
-8.35
-6.84
-4.66
-2.17
0.34
2.67
4.71
6.36
7.56
8.30
8.75
9.17
9.82
10.82
12.04
13.12
13.65
13.35
12.18
10.30
7.97
5.43
2.80
0.13
-2.55
-5.19
-7.62
-9.67
-11.19
-12.14
-12.60
