1650348004.00
64.000000
-0.00
-0.00
-0.00
-0.00
-0.00
-0.00
-0.00
-0.00
-0.00
-0.00
0.00
0.01
0.01
-0.00
-0.03
-0.05
-0.05
0.00
0.13
0.36
0.66
1.01
1.37
1.72
2.06
2.40
2.79
3.24
3.80
4.42
5.06
5.66
6.20
6.68
7.15
7.68
8.31
9.14
10.09
11.04
11.88
12.56
13.14
13.76
14.65
15.96
17.91
20.32
22.90
25.38
27.58
29.57
31.68
34.32
37.81
42.54
48.15
54.10
59.83
64.97
69.58
74.14
79.34
85.71
93.76
103.00
112.62
121.73
129.77
136.75
143.30
150.75
157.77
166.64
177.95
191.79
206.97
220.57
228.25
225.36
208.53
176.87
132.76
80.05
23.07
-34.94
-92.44
-149.16
-205.23
-260.37
-313.74
-363.87
-409.83
-450.91
-486.50
-515.74
-537.23
-549.22
-549.96
-538.37
-514.21
-478.67
-433.88
-382.45
-327.02
-269.84
-212.63
-156.66
-102.95
-52.37
-5.90
35.58
71.43
101.35
125.50
144.38
158.69
169.15
176.37
180.75
182.57
182.07
179.51
175.23
169.65
163.18
156.15
148.81
141.30
133.69
126.02
118.33
110.69
103.16
95.80
88.68
81.83
75.25
68.95
62.95
57.25
51.86
46.78
42.03
37.59
33.45
29.61
26.07
22.81
19.83
17.11
14.67
12.48
10.54
8.83
7.35
6.07
4.97
4.05
3.27
2.62
2.09
1.65
1.30
1.01
0.79
0.61
0.47
0.37
0.29
0.23
0.19
0.16
0.15
0.14
0.15
0.17
0.19
0.21
0.25
0.29
0.33
0.37
0.41
0.46
0.51
0.55
0.60
0.66
0.71
0.77
0.84
0.91
0.99
1.07
1.17
1.28
1.40
1.53
1.69
1.85
2.04
2.25
2.49
2.74
3.03
3.34
3.69
4.06
4.47
4.92
5.40
5.92
6.48
7.08
7.72
8.41
9.14
9.91
10.73
11.60
12.50
13.45
14.47
15.54
16.68
17.88
19.12
20.39
21.64
22.80
23.79
24.48
24.76
24.50
23.61
22.02
19.70
16.68
13.02
8.88
4.44
-0.11
-4.54
-8.63
-12.21
-15.13
-17.30
-18.68
-19.28
-19.18
-18.49
-17.37
-15.94
-14.37
-12.74
-11.10
-9.47
-7.79
-6.07
-4.34
-2.60
-0.86
0.86
2.58
4.33
6.19
8.26
10.48
12.75
15.02
17.20
19.24
21.15
23.05
25.12
27.65
30.54
33.70
36.95
40.11
43.02
45.65
48.18
50.98
54.52
58.65
63.14
67.62
71.60
74.69
76.78
78.14
79.31
81.05
83.19
85.34
86.76
86.45
83.38
76.77
65.97
50.08
32.62
14.78
-3.06
-21.08
-39.80
-59.97
-82.31
-107.45
-135.39
-164.91
-193.92
-218.83
-235.64
-241.41
-235.56
-220.03
-198.54
-174.94
-151.82
-130.58
-111.18
-93.18
-76.57
-61.80
-49.40
-39.34
-30.88
-22.90
-14.81
-6.55
1.38
8.20
13.27
16.50
18.26
19.21
20.08
21.15
22.49
23.87
24.94
25.36
24.90
23.56
21.54
19.16
16.70
14.36
12.16
10.01
7.74
5.27
2.58
-0.24
-3.12
-5.99
-8.80
-11.51
-14.05
-16.30
-18.17
-19.55
-20.33
-20.43
-19.80
-18.46
-16.55
-14.26
-11.81
-9.24
-6.46
-3.23
0.57
4.84
9.15
12.88
15.57
17.03
17.47
17.41
17.36
17.62
18.22
19.02
19.88
20.74
21.68
22.75
23.91
24.95
25.54
25.47
24.67
23.37
21.97
20.88
20.30
20.14
20.09
19.70
18.69
17.01
14.96
12.97
11.42
10.50
10.08
9.85
9.46
8.70
7.57
6.20
4.77
3.42
2.20
1.21
0.63
0.68
1.58
3.32
5.68
8.23
10.54
12.31
13.56
14.46
15.21
15.90
16.43
16.67
16.56
16.23
15.92
15.89
16.21
16.77
17.33
17.71
17.88
17.98
18.23
18.74
19.50
20.33
21.00
21.34
21.20
20.57
19.52
18.21
16.90
15.79
14.97
14.30
13.53
12.29
10.38
7.81
4.86
1.90
-0.72
-2.70
-3.96
-4.45
-4.22
-3.45
-2.44
-1.66
-1.62
-2.79
-5.48
-9.77
-15.49
-22.25
-29.39
-36.02
-41.24
-44.29
-44.90
-43.35
-40.43
-37.03
-33.77
-30.84
-28.05
-25.18
-22.21
-19.43
-17.17
-15.60
-14.52
-13.54
-12.33
-10.82
-9.28
-8.08
-7.52
-7.67
-8.51
-10.00
-12.14
-14.87
-17.93
-20.68
-22.31
-22.06
-19.55
-14.99
-9.16
-3.21
1.72
4.84
5.93
5.37
3.89
2.36
1.43
1.41
2.24
3.61
5.23
6.85
8.33
9.55
10.33
10.46
9.79
8.30
6.14
3.56
0.84
-1.88
-4.56
-7.21
-9.85
-12.40
-14.70
-16.51
-17.68
-18.23
-18.40
-18.66
-19.57
-21.61
-24.85
-28.77
-32.25
-33.78
-31.96
-26.08
-16.48
-4.59
7.48
17.43
23.51
24.93
22.20
17.14
12.49
11.25
15.78
26.97
43.87
63.83
83.30
98.78
107.68
108.76
102.13
88.99
71.26
51.15
30.88
12.27
-3.49
-15.92
-25.12
-31.49
-35.54
-37.80
-38.93
-39.65
-40.76
-42.77
-45.77
-49.24
-52.28
-53.97
-53.56
-50.87
-46.15
-40.00
-33.24
-26.81
-21.53
-17.90
-15.61
-13.36
-9.23
-1.55
9.94
23.39
35.27
41.63
39.87
29.87
14.14
-3.26
-18.24
-27.92
-31.14
-28.20
-20.21
-8.56
5.37
20.19
34.60
47.46
58.04
65.97
71.24
73.96
74.26
72.22
67.90
61.34
52.72
42.31
30.54
17.89
4.86
-8.09
-20.73
-33.02
-45.08
-57.01
-68.62
-79.19
-87.54
-92.26
-92.31
-87.45
-78.36
-66.48
-53.48
-40.80
-29.50
-20.24
-13.48
-9.57
-8.61
-10.27
-13.62
-17.31
-19.85
-20.05
-17.30
-11.63
-3.56
6.15
16.72
27.42
37.56
46.44
53.35
57.67
59.00
57.35
53.18
47.31
40.70
34.12
27.99
22.28
16.73
11.02
4.98
-1.32
-7.68
-13.90
-19.89
-25.65
-31.23
-36.64
-41.90
-46.99
-51.83
-56.16
-59.37
-60.48
-58.36
-52.21
-41.93
-28.41
-13.20
1.90
15.48
26.84
35.89
42.88
48.02
51.38
52.91
52.69
51.00
48.26
44.93
41.39
37.93
34.80
32.30
30.67
30.06
30.39
31.35
32.53
33.50
33.93
33.64
32.58
30.82
28.58
26.14
23.76
21.56
19.48
17.23
14.54
11.36
7.95
4.79
2.34
0.83
0.04
-0.53
-1.54
-3.62
-7.16
-12.11
-17.87
-23.15
-26.25
-25.50
-20.00
-10.09
2.58
15.59
26.59
34.19
38.18
39.40
39.02
38.02
36.81
35.32
33.32
30.74
27.72
24.58
21.59
18.86
16.34
13.91
11.50
9.15
6.94
4.92
3.01
0.98
-1.50
-4.66
-8.57
-13.13
-18.19
-23.55
-29.08
-34.68
-40.15
-45.25
-49.78
-53.59
-56.76
-59.47
-62.00
-64.56
-67.33
-70.43
-73.93
-77.63
-80.96
-82.84
-81.89
-76.95
-67.59
-54.47
-39.25
-24.06
-10.80
-0.50
6.72
11.46
14.55
16.65
18.17
19.28
20.15
21.00
22.07
23.46
25.06
26.58
27.67
28.17
28.19
28.07
28.18
28.69
29.44
29.94
29.57
27.91
24.90
20.90
16.60
12.76
9.89
8.14
7.21
6.51
5.45
3.63
1.04
-2.03
-5.06
-7.57
-9.31
-10.38
-11.20
-12.41
-14.62
-18.22
-23.06
-28.30
-32.48
-33.90
-31.21
-23.97
-12.96
-0.01
12.63
23.03
30.20
34.16
35.65
35.58
34.57
32.88
30.49
27.39
23.79
20.07
16.63
13.80
11.69
10.19
9.05
7.98
6.76
5.31
3.70
2.13
0.79
-0.22
-1.02
-1.84
-2.92
-4.42
-6.27
-8.27
-10.16
-11.72
-12.89
-13.75
-14.45
-15.20
-16.17
-17.51
-19.36
-21.76
-24.60
-27.48
-29.60
-29.93
-27.45
-21.64
-12.81
-2.16
8.58
17.66
23.99
27.37
28.38
27.87
26.53
24.60
21.99
18.65
14.78
10.92
7.66
5.29
3.63
2.18
0.36
-2.07
-4.82
-7.29
-8.87
-9.32
-8.96
-8.51
-8.73
-10.09
-12.53
-15.58
-18.48
-20.63
-21.67
-21.64
-20.88
-19.95
-19.43
-19.80
-21.29
-23.66
-26.17
-27.65
-26.77
-22.59
-14.89
-4.46
7.07
17.77
25.95
30.69
31.98
30.50
27.34
23.55
19.89
16.85
14.64
13.27
12.68
12.71
13.07
13.38
13.15
12.00
9.78
6.82
3.79
1.59
0.92
1.96
4.33
7.17
9.64
11.24
12.04
12.50
13.13
14.14
15.28
16.05
16.06
15.31
14.26
13.70
14.31
16.35
19.46
22.80
25.38
26.40
25.60
23.32
20.34
17.54
15.59
14.62
14.24
13.72
12.36
9.78
6.13
2.03
-1.69
-4.32
-5.50
-5.38
-4.46
-3.39
-2.72
-2.78
-3.53
-4.75
-6.10
-7.34
-8.45
-9.57
-11.01
-13.06
-15.83
-19.19
-22.76
-26.02
-28.33
-29.18
-28.26
-25.54
-21.30
-16.10
-10.55
-5.17
-0.31
3.93
7.47
10.20
11.84
12.13
10.95
8.57
5.66
3.07
1.48
1.16
1.84
2.86
3.53
3.38
2.40
0.99
-0.26
-0.86
-0.62
0.21
1.04
1.15
-0.03
-2.71
-6.67
-11.28
-15.68
-18.93
-20.18
-18.94
-15.16
-9.34
-2.39
4.54
10.44
14.70
17.17
18.07
17.77
16.55
14.53
11.74
8.24
4.29
0.27
-3.35
-6.29
-8.43
-9.95
-11.15
-12.32
-13.59
-14.88
-16.01
-16.85
-17.39
-17.80
-18.32
-19.11
-20.14
-21.23
-22.19
-22.97
-23.76
-24.90
-26.62
-28.82
-30.81
-31.49
-29.66
-24.56
-16.27
-5.82
5.14
14.90
22.26
26.82
28.96
29.47
29.08
28.20
26.84
24.80
21.96
18.44
14.62
11.03
8.05
5.82
4.18
2.78
1.29
-0.39
-2.13
-3.68
-4.86
-5.72
-6.57
-7.79
-9.64
-12.08
-14.72
-16.94
-18.15
-17.99
-16.57
-14.46
-12.48
-11.40
-11.69
-13.25
-15.53
-17.72
-19.10
-19.28
-18.33
-16.68
-14.90
-13.58
-13.06
-13.45
-14.43
-15.29
-14.96
-12.36
-6.77
1.78
12.36
23.38
33.14
40.38
44.59
46.11
45.67
44.04
41.67
38.58
34.61
29.71
24.05
18.11
12.39
7.22
2.59
-1.86
-6.65
-12.13
-18.18
-24.14
-29.00
-31.70
-31.62
-28.92
-24.51
-19.84
-16.35
-14.99
-16.01
-18.98
-23.15
-27.82
-32.68
-37.71
-43.08
-48.85
-54.88
-60.69
-65.49
-68.32
-68.18
-64.42
-57.10
-47.21
-36.47
-26.72
-19.04
-13.17
-7.62
-0.43
9.66
22.37
35.73
46.92
53.49
54.41
50.48
43.98
37.66
33.75
33.28
35.96
40.47
45.07
48.20
48.88
46.93
42.84
37.50
31.84
26.43
21.30
16.05
10.21
3.63
-3.24
-9.39
-13.70
-15.45
-14.83
-12.88
-11.12
-10.85
-12.58
-15.89
-19.74
-23.01
-25.08
-26.00
-26.28
-26.49
-26.98
-27.75
-28.70
-29.74
-30.90
-32.12
-33.01
-32.78
-30.48
-25.47
-17.81
-8.38
1.38
10.06
16.77
21.29
23.92
25.03
24.91
23.61
21.22
18.00
14.44
11.12
8.41
6.35
4.70
3.15
1.56
0.15
-0.65
-0.48
0.71
2.52
4.31
5.48
5.70
5.07
4.00
2.93
2.15
1.60
1.03
0.13
-1.27
-3.11
-5.14
-7.04
-8.53
-9.46
-9.89
-10.01
-10.11
-10.51
-11.48
-13.20
-15.62
-18.37
-20.71
-21.57
-19.92
-15.13
-7.36
2.39
12.52
21.34
27.61
30.91
31.49
30.14
27.70
24.85
22.00
19.32
16.89
14.73
12.85
11.18
9.64
8.14
6.73
5.52
4.67
4.31
4.39
4.77
5.13
5.21
4.84
3.98
2.81
1.58
0.60
0.05
-0.11
-0.09
-0.25
-0.93
-2.29
-4.22
-6.37
-8.22
-9.30
-9.38
-8.55
-7.24
-6.10
-5.79
-6.74
-8.99
-12.09
-15.15
-17.08
-16.86
-13.86
-8.06
-0.08
8.94
17.63
24.78
29.58
31.78
31.66
29.74
26.66
23.02
19.24
15.69
12.63
10.26
8.60
7.57
6.96
6.51
6.04
5.49
5.00
4.76
4.94
5.47
6.10
6.44
6.21
5.37
4.18
3.03
2.25
1.93
1.84
1.63
0.96
-0.27
-1.91
-3.65
-5.16
-6.22
-6.80
-7.04
-7.21
-7.68
-8.78
-10.74
-13.47
-16.45
-18.71
-19.14
-16.83
-11.53
-3.90
4.70
12.72
18.88
22.62
24.12
23.95
22.75
20.96
18.74
16.19
13.43
10.70
8.28
6.40
5.17
4.61
4.59
4.94
5.39
5.70
5.73
5.46
5.03
4.62
4.31
4.04
3.64
2.97
1.99
0.77
-0.60
-2.14
-3.93
-5.99
-8.07
-9.72
-10.41
-9.85
-8.22
-6.21
-4.75
-4.70
-6.45
-9.80
-13.97
-17.76
-19.91
-19.38
-15.75
-9.33
-1.21
7.09
14.13
18.89
21.11
21.05
19.29
16.39
12.79
8.79
4.73
0.98
-2.08
-4.18
-5.31
-5.61
-5.35
-4.80
-4.14
-3.54
-3.19
-3.34
-4.19
-5.87
-8.20
-10.75
-12.91
-14.08
-14.03
-12.96
-11.64
-11.02
-11.87
-14.34
-17.90
-21.34
-23.34
-22.83
-19.43
-13.49
-6.05
1.40
7.16
9.74
8.36
3.42
-3.39
-9.52
-12.48
-10.86
-5.03
3.10
10.91
16.28
18.42
17.90
16.14
14.45
13.43
12.93
12.38
11.41
10.09
8.85
8.23
8.46
9.27
10.05
10.16
9.27
7.53
5.54
3.93
3.13
3.13
3.47
3.53
2.78
1.05
-1.42
-4.08
-6.28
-7.56
-7.83
-7.35
-6.67
-6.36
-6.80
-8.08
-9.91
-11.84
-13.40
-14.19
-13.92
-12.46
-9.79
-6.02
-1.50
3.25
7.55
10.78
12.56
12.82
11.81
9.87
7.40
4.68
2.03
-0.26
-1.85
-2.45
-1.98
-0.63
1.15
2.84
4.05
4.58
4.43
3.72
2.59
1.24
-0.09
-1.17
-1.83
-2.10
-2.19
-2.35
-2.79
-3.44
-4.08
-4.46
-4.50
-4.41
-4.51
-5.17
-6.49
-8.24
-9.91
-10.88
-10.60
-8.75
-5.42
-1.04
3.69
8.02
11.37
13.44
14.27
14.06
13.07
11.51
9.58
7.48
5.50
3.97
3.09
2.80
2.77
2.57
1.83
0.52
-1.05
-2.41
-3.18
-3.29
-3.01
-2.82
-3.19
-4.32
-6.14
-8.34
-10.46
-12.02
-12.56
-11.75
-9.55
-6.40
-3.20
-1.08
-0.89
-2.81
-6.17
-9.67
-11.93
-12.03
-9.86
-6.01
-1.48
2.84
6.38
8.94
10.57
11.44
11.68
11.38
10.60
9.34
7.64
5.52
3.05
0.31
-2.60
-5.54
-8.34
-10.72
-12.31
-12.72
-11.69
-9.17
-5.50
-1.28
2.78
6.02
8.06
8.82
8.48
7.41
6.03
4.75
3.83
3.41
3.37
3.43
3.23
2.65
1.82
1.24
1.59
3.34
6.57
10.78
15.01
18.29
19.91
19.69
17.91
15.16
11.95
8.67
5.50
2.52
-0.19
-2.53
-4.39
-5.74
-6.62
-7.19
-7.63
-8.14
-8.87
-9.86
-11.03
-12.17
-13.01
-13.29
-12.95
-12.07
-10.92
-9.82
-9.00
-8.55
-8.36
-8.22
-7.93
-7.32
-6.38
-5.22
-4.04
-3.08
-2.58
-2.75
-3.74
-5.44
-7.40
-8.81
-8.68
-6.33
-1.69
4.43
10.64
15.44
17.92
18.01
16.44
14.25
12.15
10.34
8.51
6.27
3.61
0.92
-1.12
-1.93
-1.40
-0.01
1.44
2.18
1.87
0.70
-0.72
-1.76
-2.07
-1.74
-1.21
-1.02
-1.52
-2.75
-4.43
-6.19
-7.62
-8.55
-8.98
-9.06
-8.98
-8.91
-8.98
-9.32
-10.02
-11.06
-12.20
-12.91
-12.47
-10.23
-5.92
0.07
6.75
12.84
17.18
19.17
18.94
17.16
14.71
12.30
10.21
8.39
6.63
4.79
2.96
1.43
0.53
0.40
0.92
1.71
2.31
2.42
1.93
0.99
-0.13
-1.20
-2.11
-2.88
-3.54
-4.09
-4.53
-4.86
-5.15
-5.46
-5.84
-6.23
-6.54
-6.72
-6.91
-7.37
-8.39
-10.07
-12.32
-14.82
-17.23
-19.18
-20.27
-20.05
-18.12
-14.36
-9.25
-3.93
0.04
1.29
-0.78
-5.65
-11.93
-17.92
-22.32
-24.58
-24.79
-23.33
-20.48
-16.38
-11.26
-5.65
-0.42
3.50
5.60
6.08
5.87
6.21
8.11
11.83
16.92
22.38
27.24
30.89
33.15
34.31
34.77
34.91
34.93
34.86
34.64
34.16
33.42
32.50
31.49
30.47
29.30
27.67
25.17
21.46
16.44
10.38
3.85
-2.37
-7.46
-10.74
-11.69
-10.09
-6.07
-0.17
6.73
13.47
18.98
22.51
23.83
23.32
21.72
19.82
18.16
16.88
15.74
14.41
12.65
10.48
8.17
6.08
4.43
3.19
2.17
1.19
0.27
-0.28
-0.03
1.18
3.04
4.76
5.43
4.44
1.90
-1.39
-4.33
-6.12
-6.70
-6.70
-7.01
-8.31
-10.63
-13.51
-16.34
-18.85
-21.18
-23.59
-26.15
-28.46
-29.84
-29.75
-28.22
-26.00
-24.19
-23.71
-24.77
-26.77
-28.57
-29.05
-27.53
-24.02
-19.06
-13.55
-8.36
-4.29
-1.85
-1.29
-2.57
-5.34
-8.96
-12.61
-15.41
-16.65
-15.90
-13.11
-8.66
-3.29
1.99
5.96
7.57
6.28
2.38
-2.93
-7.81
-10.58
-10.28
-7.21
-2.72
1.46
4.04
4.77
4.37
4.05
4.69
6.46
8.76
10.64
11.28
10.42
8.30
5.51
2.65
0.17
-1.69
-2.86
-3.39
-3.47
-3.40
-3.49
-3.94
-4.66
-5.27
-5.26
-4.17
-1.70
2.14
7.07
12.63
18.16
22.97
26.41
28.04
27.72
25.76
22.77
19.49
16.57
14.47
13.42
13.44
14.44
16.17
18.26
20.25
21.76
22.63
22.92
22.84
22.63
22.37
21.92
21.05
19.60
17.58
15.21
12.69
10.14
7.42
4.25
0.35
-4.35
-9.62
-15.01
-19.96
-24.02
-26.92
-28.58
-29.09
-28.68
-27.66
-26.46
-25.48
-25.09
-25.42
-26.32
-27.26
-27.47
-26.07
-22.46
-16.55
-8.90
-0.57
7.21
13.46
17.73
20.04
20.78
20.35
18.99
16.84
14.12
11.19
8.55
6.71
6.01
6.49
7.99
10.23
12.92
15.71
18.19
19.87
20.31
19.17
16.43
12.33
7.26
1.63
-4.25
-10.12
-15.82
-21.07
-25.62
-29.33
-32.26
-34.71
-37.05
-39.57
-42.21
-44.72
-46.73
-48.15
-49.25
-50.47
-51.97
-53.23
-53.01
-49.79
-42.58
-31.51
-17.98
-4.21
7.66
16.30
21.55
24.05
24.74
24.23
22.66
19.92
15.94
11.05
5.97
1.59
-1.39
-2.75
-2.84
-2.41
-2.27
-2.98
-4.53
-6.43
-7.90
-8.34
-7.63
-6.23
-4.98
-4.66
-5.57
-7.34
-9.04
-9.66
-8.59
-5.85
-1.91
2.70
7.97
14.46
23.09
34.50
48.74
65.28
83.48
103.07
124.03
146.12
168.17
187.81
202.00
208.02
204.48
191.71
171.36
145.62
116.61
86.25
56.42
29.11
6.09
-11.56
-23.91
-31.98
-37.22
-40.92
-43.96
-47.03
-51.01
-57.10
-66.39
-79.18
-94.43
-109.88
-122.81
-131.09
-133.95
-132.08
-127.16
-121.19
-115.97
-112.80
-112.29
-114.29
-117.90
-121.68
-124.30
-125.12
-124.66
-124.39
-126.14
-131.23
-139.89
-151.21
-163.35
-173.83
-179.73
-178.06
-166.43
-144.15
-113.03
-77.47
-43.32
-15.88
1.83
9.70
9.75
4.33
-5.51
-20.31
-41.28
-68.38
-99.02
-128.18
-149.95
-159.90
-156.74
-142.47
-121.03
-96.13
-69.57
-40.85
-8.43
28.45
68.33
107.16
139.57
160.83
168.60
163.66
149.39
130.46
111.33
95.24
83.69
76.53
72.51
69.93
67.30
63.84
59.64
55.46
52.27
50.71
50.89
52.38
54.54
56.81
58.77
60.04
60.12
58.46
54.76
49.37
43.37
38.25
35.21
34.56
35.50
36.43
35.84
33.02
28.38
23.10
18.43
15.01
12.62
10.65
8.58
6.39
4.41
2.86
1.46
-0.56
-4.08
-9.42
-16.24
-23.59
-30.55
-36.73
-42.24
-47.22
-51.16
-52.69
-50.06
-42.23
-29.69
-14.58
0.12
12.09
20.78
27.62
35.12
45.43
59.21
75.46
92.23
107.71
121.02
132.24
141.89
150.23
156.93
161.43
163.55
164.14
165.04
168.53
176.14
187.67
200.83
211.66
215.78
209.82
192.69
165.98
133.62
100.70
72.06
50.90
37.85
30.93
26.29
19.66
8.07
-9.03
-29.61
-50.04
-66.71
-77.50
-82.53
-83.92
-84.70
-87.56
-93.91
-103.60
-115.14
-126.21
-134.27
-137.13
-133.37
-122.78
-106.38
-86.27
-65.12
-45.47
-29.26
-17.49
-10.26
-6.89
-6.23
-6.96
-7.82
-7.95
-6.97
-5.06
-2.73
-0.61
0.85
1.56
1.73
1.84
2.30
3.34
4.84
6.38
7.34
7.20
5.73
3.07
-0.24
-3.61
-6.62
-9.22
-11.67
-14.28
-17.21
-20.27
-23.00
-24.99
-26.05
-26.43
-26.67
-27.46
-29.30
-32.32
-36.24
-40.26
-43.16
-43.49
-39.99
-32.03
-20.01
-5.33
10.04
24.20
35.94
45.01
51.82
56.95
60.71
62.93
63.15
60.97
56.50
50.62
44.91
41.34
41.70
47.10
57.47
71.22
85.31
95.66
98.27
90.59
72.45
46.17
15.62
-15.12
-42.76
-64.93
-79.79
-85.67
-81.43
-67.59
-47.33
-26.34
-11.17
-6.55
-13.22
-27.69
-44.10
-57.09
-64.06
-65.68
-64.71
-63.92
-64.50
-65.69
-65.53
-62.16
-54.89
-44.54
-32.96
-22.17
-13.57
-7.53
-3.52
-0.69
1.62
3.51
4.52
4.17
2.27
-0.78
-4.07
-6.60
-7.75
-7.52
-6.44
-5.29
-4.62
-4.59
-4.94
-5.22
-5.09
-4.48
-3.60
-2.82
-2.49
-2.84
-3.94
-5.68
-7.82
-10.03
-11.97
-13.38
-14.18
-14.44
-14.47
-14.65
-15.35
-16.79
-19.08
-22.11
-25.58
-28.97
-31.52
-32.36
-30.72
-26.21
-19.10
-10.31
-1.17
6.95
13.05
16.73
18.15
17.81
16.31
14.17
11.72
9.18
6.73
4.56
2.82
1.60
0.86
0.44
0.10
-0.40
-1.21
-2.25
-3.26
-3.90
-3.90
-3.34
-2.59
-2.22
-2.68
-4.04
-5.99
-7.92
-9.28
-9.83
-9.68
-9.26
-9.09
-9.55
-10.91
-13.20
-16.23
-19.53
-22.27
-23.39
-21.90
-17.28
-9.85
-0.73
8.44
16.07
21.18
23.59
23.80
22.60
20.70
18.52
16.24
13.99
11.90
10.16
8.90
8.13
7.68
7.35
6.96
6.48
5.97
5.54
5.24
5.07
4.98
4.92
4.88
4.80
4.62
4.24
3.51
2.36
0.81
-1.01
-2.86
-4.51
-5.82
-6.77
-7.52
-8.31
-9.43
-11.13
-13.53
-16.66
-20.29
-23.92
-26.73
-27.77
-26.14
-21.45
-13.99
-4.82
4.52
12.50
18.06
20.93
21.56
20.77
19.36
17.80
16.22
14.60
12.92
11.32
10.00
9.10
8.59
8.35
8.22
8.17
8.25
8.54
9.00
9.44
9.51
8.91
7.51
5.46
3.08
0.81
-1.03
-2.35
-3.28
-4.13
-5.17
-6.49
-7.96
-9.25
-10.07
-10.28
-10.02
-9.70
-9.89
-11.14
-13.76
-17.69
-22.36
-26.69
-29.36
-29.15
-25.45
-18.52
-9.57
-0.33
7.53
13.01
15.94
16.86
16.56
15.66
14.45
12.91
11.02
8.91
6.88
5.27
4.28
3.90
3.91
4.03
4.00
3.75
3.30
2.80
2.36
2.03
1.81
1.58
1.26
0.75
0.05
-0.81
-1.74
-2.66
-3.56
-4.40
-5.18
-5.88
-6.48
-7.05
-7.74
-8.75
-10.31
-12.57
-15.50
-18.79
-21.80
-23.66
-23.45
-20.53
-14.83
-7.04
1.59
9.60
15.73
19.39
20.67
20.21
18.82
17.15
15.51
13.98
12.48
10.99
9.58
8.39
7.52
6.99
6.74
6.64
6.51
6.22
5.73
5.03
4.23
3.47
2.86
2.44
2.13
1.78
1.17
0.17
-1.24
-2.94
-4.72
-6.39
-7.86
-9.20
-10.50
-11.90
-13.45
-15.18
-17.12
-19.27
-21.53
-23.56
-24.73
-24.26
-21.41
-16.00
-8.51
-0.07
7.94
14.38
18.66
20.88
21.51
21.13
20.12
18.67
16.89
14.94
13.10
11.68
10.88
10.70
10.90
11.15
11.12
10.65
9.77
8.70
7.72
7.07
6.72
6.43
5.88
4.81
3.25
1.47
-0.07
-1.03
-1.36
-1.31
-1.32
-1.76
-2.77
-4.20
-5.68
-6.87
-7.57
-7.82
-7.87
-8.07
-8.75
-10.20
-12.54
-15.68
-19.31
-22.78
-25.24
-25.82
-23.89
-19.35
-12.73
-5.02
2.55
8.91
13.40
15.89
16.69
16.30
15.26
13.97
12.64
11.41
10.34
9.56
9.15
9.09
9.25
9.35
9.12
8.45
7.48
6.57
6.04
6.05
6.36
6.58
6.28
5.32
3.88
2.38
1.16
0.38
-0.13
-0.68
-1.56
-2.85
-4.41
-6.01
-7.38
-8.41
-9.10
-9.48
-9.73
-10.00
-10.58
-11.78
-13.82
-16.59
-19.56
-21.79
-22.23
-20.11
-15.33
-8.59
-1.11
5.73
10.90
13.94
15.02
14.68
13.54
12.12
10.71
9.42
8.25
7.20
6.30
5.62
5.22
5.09
5.11
5.11
4.90
4.44
3.81
3.22
2.84
2.72
2.76
2.81
2.70
2.39
1.88
1.23
0.48
-0.37
-1.29
-2.21
-3.02
-3.68
-4.19
-4.64
-5.22
-6.11
-7.47
-9.40
-11.87
-14.69
-17.40
-19.33
-19.77
-18.16
-14.43
-9.05
-2.94
2.78
7.26
10.09
11.42
11.71
11.42
10.90
10.23
9.40
8.47
7.59
7.02
6.88
7.09
7.39
7.51
7.24
6.63
5.86
5.14
4.59
4.19
3.85
3.48
3.06
2.63
2.17
1.65
0.92
-0.18
-1.75
-3.73
-5.92
-8.03
-9.77
-10.95
-11.63
-12.03
-12.48
-13.32
-14.70
-16.52
-18.44
-19.91
-20.26
-18.93
-15.65
-10.56
-4.32
2.14
7.85
12.13
14.75
15.92
16.07
15.62
14.85
13.88
12.74
11.44
10.10
8.84
7.79
6.95
6.28
5.65
4.96
4.19
3.40
2.69
2.22
2.00
1.97
1.93
1.67
1.06
0.14
-0.93
-1.98
-2.90
-3.73
-4.61
-5.65
-6.83
-8.00
-8.87
-9.31
-9.43
-9.60
-10.27
-11.77
-13.95
-16.18
-17.56
-17.27
-14.98
-11.00
-6.13
-1.31
2.72
5.63
7.51
8.60
9.16
9.31
9.08
8.51
7.72
6.89
6.21
5.81
5.71
5.82
6.02
6.21
6.33
6.35
6.24
5.92
5.37
4.63
3.83
3.14
2.66
2.35
1.96
1.18
-0.21
-2.18
-4.46
-6.61
-8.29
-9.35
-9.89
-10.14
-10.31
-10.55
-10.94
-11.55
-12.49
-13.80
-15.34
-16.68
-17.15
-16.03
-12.88
-7.79
-1.42
5.13
10.74
14.58
16.40
16.50
15.48
13.94
12.26
10.58
8.85
7.08
5.36
3.93
2.98
2.57
2.61
2.83
2.91
2.64
1.99
1.12
0.34
-0.13
-0.18
0.06
0.31
0.33
-0.04
-0.82
-1.93
-3.27
-4.76
-6.27
-7.63
-8.69
-9.35
-9.73
-10.14
-10.99
-12.55
-14.78
-17.24
-19.14
-19.70
-18.23
-14.58
-9.09
-2.63
3.73
8.99
12.55
14.28
14.48
13.66
12.30
10.75
9.18
7.70
6.42
5.47
4.92
4.73
4.69
4.52
4.00
3.08
1.94
0.93
0.29
0.07
0.04
-0.25
-1.12
-2.63
-4.47
-6.20
-7.43
-8.07
-8.33
-8.61
-9.30
-10.67
-12.76
-15.50
-18.55
-21.36
-23.11
-22.92
-20.15
-14.73
-7.36
0.67
7.93
13.31
16.46
17.64
17.53
16.76
15.68
14.35
12.72
10.81
8.85
7.18
6.10
5.74
5.98
6.47
6.82
6.66
5.87
4.61
3.21
2.06
1.38
1.16
1.10
0.79
-0.07
-1.52
-3.32
-5.08
-6.48
-7.38
-7.89
-8.25
-8.76
-9.60
-10.92
-12.74
-15.08
-17.79
-20.52
-22.60
-23.17
-21.49
-17.25
-10.84
-3.25
4.16
10.27
14.44
16.71
17.56
17.61
17.31
16.82
16.15
15.26
14.17
12.99
11.83
10.77
9.81
9.00
8.40
8.13
8.32
8.96
9.94
10.99
11.76
11.93
11.30
9.87
7.87
5.68
3.69
2.19
1.22
0.59
-0.01
-0.89
-2.19
-3.84
-5.62
-7.23
-8.45
-9.22
-9.68
-10.15
-11.05
-12.75
-15.41
-18.82
-22.38
-25.22
-26.40
-25.30
-21.73
-16.07
-9.10
-1.79
4.96
10.43
14.25
16.30
16.72
15.79
13.98
11.70
9.44
7.50
6.07
5.19
4.77
4.68
4.76
4.85
4.85
4.71
4.36
3.83
3.14
2.33
1.45
0.51
-0.50
-1.65
-2.98
-4.54
-6.21
-7.82
-9.13
-9.90
-10.09
-9.89
-9.67
-9.90
-10.93
-12.87
-15.51
-18.42
-21.00
-22.63
-22.76
-21.00
-17.17
-11.44
-4.27
3.49
10.83
16.77
20.69
22.45
22.37
21.07
19.16
17.08
14.95
12.74
10.46
8.24
6.37
5.15
4.77
5.13
5.99
6.98
7.81
8.37
8.72
8.96
9.01
8.59
7.25
4.80
1.37
-2.40
-5.65
-7.68
-8.31
-7.93
-7.28
-7.07
-7.60
-8.68
-9.82
-10.64
-11.13
-11.72
-12.99
-15.31
-18.49
-21.75
-23.96
-24.10
-21.61
-16.73
-10.34
-3.61
2.41
7.16
10.60
12.99
14.68
15.86
16.52
16.62
16.16
15.25
14.12
13.03
12.20
11.67
11.36
11.08
10.68
10.08
9.40
8.83
8.62
8.83
9.38
9.90
9.99
9.30
7.76
5.62
3.29
1.27
-0.13
-0.85
-1.12
-1.36
-1.95
-3.14
-4.93
-7.06
-9.16
-10.91
-12.15
-13.06
-14.04
-15.54
-17.81
-20.73
-23.80
-26.28
-27.44
-26.79
-24.19
-19.85
-14.22
-7.86
-1.37
4.64
9.64
13.20
15.17
15.73
15.30
14.48
13.81
13.61
13.98
14.81
15.92
17.10
18.09
18.66
18.52
17.54
15.72
13.28
10.64
8.22
6.32
5.07
4.40
4.15
4.12
4.04
3.66
2.76
1.33
-0.53
-2.53
-4.36
-5.90
-7.21
-8.59
-10.34
-12.65
-15.51
-18.67
-21.74
-24.28
-25.92
-26.38
-25.59
-23.58
-20.57
-16.87
-12.86
-8.88
-5.23
-2.03
0.66
2.83
4.48
5.63
6.30
6.63
6.84
7.09
7.40
7.59
7.39
6.65
5.52
4.43
3.81
3.94
4.67
5.61
6.35
6.65
6.52
6.11
5.52
4.74
3.61
2.06
0.13
-1.95
-3.91
-5.55
-6.82
-7.93
-9.18
-10.87
-13.05
-15.43
-17.36
-18.14
-17.26
-14.73
-11.11
-7.19
-3.69
-0.94
1.22
3.16
5.25
7.59
10.05
12.32
14.20
15.61
16.59
17.26
17.68
17.79
17.48
16.69
15.48
14.09
12.82
11.89
11.32
10.88
10.29
9.29
7.77
5.75
3.32
0.64
-2.10
-4.68
-6.85
-8.34
-9.12
-9.38
-9.52
-10.09
-11.53
-14.02
-17.34
-20.95
-23.96
-25.56
-25.17
-22.71
-18.66
-13.78
-8.91
-4.48
-0.61
2.81
5.95
8.79
11.21
13.06
14.36
15.28
16.09
16.89
17.60
17.93
17.63
16.71
15.42
14.26
13.59
13.51
13.81
14.09
14.03
13.49
12.54
11.33
10.01
8.63
7.20
5.75
4.33
2.96
1.56
-0.04
-2.03
-4.51
-7.42
-10.54
-13.64
-16.51
-19.01
-20.98
-22.20
-22.40
-21.37
-19.12
-15.88
-12.14
-8.46
-5.23
-2.64
-0.63
0.98
2.32
3.47
4.43
5.28
6.23
7.47
9.14
11.12
13.12
14.64
15.19
14.44
12.49
9.86
7.43
6.10
6.40
8.19
10.64
12.59
13.07
11.77
9.16
6.19
3.74
2.18
1.29
0.49
-0.72
-2.53
-4.81
-7.34
-10.01
-12.84
-15.84
-18.81
-21.29
-22.63
-22.33
-20.22
-16.57
-11.94
-6.98
-2.26
1.84
5.11
7.56
9.27
10.43
11.24
11.85
12.26
12.48
12.46
12.23
11.93
11.64
11.40
11.14
10.73
10.08
9.20
8.17
7.10
6.01
4.80
3.33
1.54
-0.47
-2.39
-3.95
-5.00
-5.69
-6.40
-7.55
-9.50
-12.28
-15.67
-19.17
-22.18
-24.09
-24.42
-22.98
-19.92
-15.72
-11.03
-6.50
-2.52
0.74
3.42
5.67
7.63
9.29
10.60
11.52
12.06
12.30
12.35
12.32
12.26
12.19
12.05
11.75
11.27
10.67
10.13
9.91
10.15
10.72
11.23
11.17
10.15
8.13
5.45
2.67
0.30
-1.39
-2.49
-3.33
-4.33
-5.90
-8.28
-11.42
-15.05
-18.61
-21.45
-23.00
-22.95
-21.31
-18.42
-14.74
-10.73
-6.73
-2.96
0.45
3.40
5.83
7.71
9.08
10.01
10.58
10.92
11.16
11.44
11.89
12.57
13.35
14.01
14.24
13.88
12.94
11.67
10.46
9.58
9.09
8.87
8.63
8.09
7.13
5.74
4.00
2.01
-0.13
-2.32
-4.42
-6.32
-8.01
-9.64
-11.51
-13.92
-16.93
-20.38
-23.77
-26.46
-27.87
-27.66
-25.79
-22.54
-18.40
-13.88
-9.45
-5.45
-2.05
0.77
3.16
5.24
7.13
8.80
10.19
11.16
11.63
11.68
11.47
11.26
11.30
11.76
12.72
14.10
15.68
17.15
18.18
18.51
18.02
16.75
14.87
12.56
9.96
7.16
4.28
1.44
-1.15
-3.28
-4.72
-5.41
-5.44
-5.16
-5.13
-5.98
-8.23
-12.02
-16.96
-22.15
-26.41
-28.71
-28.47
-25.70
-20.93
-14.97
-8.70
-2.82
2.18
6.09
9.00
11.19
12.93
14.34
15.29
15.50
14.87
13.61
12.32
11.59
11.78
12.72
13.88
14.62
14.60
13.94
13.08
12.48
12.32
12.39
12.20
11.32
9.56
7.07
4.29
1.69
-0.32
-1.61
-2.29
-2.66
-3.08
-3.85
-5.21
-7.26
-9.98
-13.25
-16.78
-20.19
-23.07
-25.02
-25.76
-25.23
-23.52
-20.84
-17.46
-13.65
-9.60
-5.47
-1.40
2.42
5.74
8.29
9.90
10.51
10.27
9.49
8.50
7.57
6.81
6.20
5.69
5.32
5.20
5.51
6.29
7.39
8.42
8.90
8.47
7.10
5.15
3.19
1.77
1.08
0.82
0.41
-0.79
-3.13
-6.54
-10.52
-14.38
-17.53
-19.57
-20.40
-20.06
-18.72
-16.56
-13.77
-10.58
-7.21
-3.86
-0.63
2.41
5.21
7.74
9.85
11.36
12.18
12.35
12.16
12.00
12.30
13.20
14.50
15.74
16.37
16.05
14.87
13.27
11.81
10.91
10.61
10.69
10.71
10.29
9.24
7.52
5.29
2.81
0.36
-1.79
-3.49
-4.74
-5.69
-6.65
-7.92
-9.73
-12.13
-14.94
-17.76
-19.99
-20.97
-20.17
-17.41
-12.97
-7.62
-2.29
2.13
5.20
6.97
7.85
8.33
8.79
9.33
9.90
10.37
10.61
10.54
10.04
8.94
7.12
4.63
1.82
-0.76
-2.49
-2.89
-1.87
0.29
3.02
5.64
7.51
8.15
7.36
5.25
2.28
-0.95
-3.85
-6.08
-7.70
-9.10
-10.77
-12.95
-15.54
-18.03
-19.75
-20.17
-19.10
-16.73
-13.55
-10.11
-6.89
-4.15
-1.95
-0.16
1.39
2.83
4.12
5.13
5.64
5.53
4.84
3.82
2.82
2.18
2.06
2.42
3.10
3.91
4.74
5.56
6.32
6.86
6.92
6.20
4.63
2.41
0.05
-1.90
-3.13
-3.70
-4.11
-4.95
-6.69
-9.40
-12.77
-16.21
-19.07
-20.84
-21.20
-20.04
-17.47
-13.76
-9.38
-4.89
-0.78
2.58
5.10
6.82
7.90
8.44
8.56
8.36
8.01
7.67
7.48
7.47
7.51
7.45
7.22
6.88
6.60
6.47
6.53
6.60
6.45
5.90
4.81
3.24
1.32
-0.82
-3.01
-5.11
-7.04
-8.75
-10.26
-11.77
-13.49
-15.58
-18.03
-20.51
-22.41
-23.06
-21.97
-19.09
-14.81
-9.88
-5.02
-0.74
2.76
5.49
7.47
8.61
8.85
8.21
7.01
5.77
5.04
5.06
5.71
6.54
7.08
7.07
6.55
5.88
5.38
5.26
5.44
5.73
5.90
5.86
5.67
5.41
5.11
4.62
3.68
2.13
-0.00
-2.37
-4.53
-6.15
-7.18
-7.97
-9.01
-10.67
-12.97
-15.59
-18.00
-19.71
-20.39
-19.92
-18.31
-15.61
-11.92
-7.48
-2.76
1.66
5.17
7.46
8.58
8.87
8.85
8.86
9.03
9.18
9.11
8.71
8.10
7.55
7.29
7.45
7.93
8.64
9.54
10.71
12.19
13.88
15.47
16.55
16.76
15.99
14.43
12.40
10.24
8.18
6.31
4.59
2.93
1.18
-0.78
-3.01
-5.42
-7.80
-9.86
-11.40
-12.52
-13.54
-14.95
-17.08
-19.89
-22.82
-25.01
-25.57
-23.99
-20.37
-15.44
-10.21
-5.68
-2.43
-0.48
0.53
1.16
1.84
2.67
3.55
4.26
4.76
5.19
5.81
6.82
8.20
9.73
11.11
12.14
12.81
13.31
13.79
14.25
14.46
14.16
13.17
11.62
9.84
8.26
7.09
6.26
5.49
4.45
3.02
1.33
-0.36
-1.78
-2.89
-3.86
-4.91
-6.27
-7.99
-10.03
-12.32
-14.77
-17.31
-19.76
-21.73
-22.69
-22.13
-19.78
-15.86
-11.01
-6.05
-1.71
1.66
4.15
6.10
7.80
9.34
10.54
11.09
10.83
9.84
8.44
7.04
6.08
5.73
6.01
6.74
7.62
8.39
8.82
8.85
8.53
7.99
7.36
6.70
6.03
5.30
4.47
3.42
2.13
0.59
-1.17
-3.10
-5.11
-7.19
-9.34
-11.57
-13.90
-16.28
-18.57
-20.59
-22.09
-22.81
-22.57
-21.30
-19.02
-15.89
-12.13
-8.00
-3.72
0.53
4.60
8.28
11.31
13.46
14.54
14.57
13.74
12.41
11.02
9.95
9.43
9.50
10.00
10.68
11.28
11.63
11.67
11.45
11.04
10.51
9.83
9.00
7.99
6.78
5.43
4.03
2.68
1.44
0.33
-0.67
-1.64
-2.67
-3.88
-5.35
-7.20
-9.42
-12.00
-14.78
-17.46
-19.59
-20.65
-20.21
-18.14
-14.75
-10.73
-6.88
-3.71
-1.27
0.83
3.13
5.89
8.93
11.70
13.61
14.43
14.40
14.08
14.03
14.50
15.30
15.97
16.13
15.66
14.85
14.13
13.96
14.43
15.31
16.11
16.40
16.00
15.09
14.07
13.28
12.81
12.44
11.84
10.74
9.16
7.34
5.63
4.24
3.19
2.29
1.24
-0.25
-2.43
-5.32
-8.69
-12.03
-14.75
-16.41
-17.09
-17.36
-18.02
-19.68
-22.21
-24.79
-26.18
-25.37
-22.04
-16.63
-10.23
-3.98
1.17
4.71
6.54
6.83
6.08
4.97
4.26
4.54
5.96
8.16
10.38
11.82
12.12
11.53
10.83
11.01
12.74
16.01
20.14
24.07
26.80
27.88
27.40
25.94
24.22
22.79
21.88
21.41
21.06
20.36
18.83
16.14
12.15
7.09
1.47
-4.04
-8.90
-12.89
-16.24
-19.38
-22.65
-26.10
-29.44
-32.38
-34.85
-37.26
-40.23
-44.17
-48.97
-53.78
-57.44
-58.84
-57.41
-53.23
-46.89
-39.25
-31.21
-23.57
-16.96
-11.74
-7.89
-5.05
-2.65
-0.23
2.32
4.79
6.72
7.82
8.12
7.93
7.55
7.06
6.26
4.81
2.57
-0.29
-3.17
-5.36
-6.32
-5.84
-4.16
-1.73
0.95
3.56
5.98
8.24
10.38
12.36
14.02
15.15
15.55
15.24
14.34
13.15
11.97
11.02
10.35
9.86
9.41
8.82
8.07
7.21
6.34
5.56
4.86
4.17
3.46
2.74
2.05
1.38
0.66
-0.25
-1.42
-2.81
-4.26
-5.61
-6.82
-8.08
-9.68
-11.85
-14.51
-17.23
-19.38
-20.31
-19.59
-17.19
-13.51
-9.14
-4.90
-1.41
1.05
2.54
3.50
4.45
5.71
7.34
9.15
10.83
12.19
13.11
13.54
13.41
12.69
11.49
10.22
9.42
9.48
10.41
11.69
12.53
12.26
10.69
8.26
5.68
3.58
2.12
1.04
-0.07
-1.43
-2.93
-4.25
-5.13
-5.57
-5.78
-6.03
-6.48
-7.20
-8.30
-9.96
-12.37
-15.54
-18.99
-21.90
-23.36
-22.76
-20.14
-16.07
-11.37
-6.74
-2.51
1.28
4.76
7.90
10.58
12.53
13.56
13.68
13.08
12.12
11.15
10.37
9.82
9.46
9.22
9.16
9.46
10.27
11.54
12.96
14.00
14.18
13.30
11.60
9.59
7.85
6.78
6.44
6.65
7.05
7.29
7.11
6.44
5.31
3.84
2.16
0.41
-1.27
-2.84
-4.26
-5.57
-6.89
-8.49
-10.68
-13.66
-17.34
-21.26
-24.66
-26.75
-26.99
-25.32
-22.14
-18.08
-13.80
-9.74
-6.08
-2.84
0.03
2.52
4.57
6.11
7.15
7.77
8.08
8.19
8.21
8.18
8.14
8.16
8.31
8.62
9.17
9.92
10.81
11.71
12.43
12.81
12.71
12.06
10.93
9.48
7.92
6.45
5.18
4.10
3.14
2.19
1.14
-0.13
-1.61
-3.22
-4.85
-6.42
-8.00
-9.71
-11.77
-14.24
-17.03
-19.77
-22.03
-23.40
-23.65
-22.69
-20.61
-17.60
-13.90
-9.84
-5.75
-1.95
1.26
3.74
5.43
6.46
7.00
7.33
7.64
8.08
8.65
9.27
9.82
10.14
10.21
10.06
9.77
9.43
9.13
8.93
8.87
8.89
8.89
8.72
8.19
7.22
5.84
4.16
2.37
0.61
-1.03
-2.63
-4.35
-6.44
-9.05
-12.14
-15.43
-18.45
-20.61
-21.50
-20.84
-18.63
-15.13
-10.78
-6.09
-1.62
2.17
5.02
6.94
8.21
9.14
10.04
10.98
11.88
12.61
13.11
13.49
13.80
14.10
14.26
14.07
13.40
12.30
10.99
9.75
8.77
8.04
7.46
6.80
5.88
4.58
2.87
0.82
-1.44
-3.67
-5.61
-7.02
-7.86
-8.31
-8.75
-9.61
-11.18
-13.45
-16.11
-18.64
-20.52
-21.41
-21.20
-20.04
-18.13
-15.69
-12.81
-9.49
-5.70
-1.49
2.95
7.24
10.96
13.72
15.35
15.97
15.97
15.74
15.59
15.61
15.71
15.76
15.62
15.29
14.78
14.15
13.40
12.55
11.64
10.69
9.75
8.80
7.74
6.52
5.17
3.77
2.46
1.32
0.26
-0.90
-2.43
-4.58
-7.44
-10.92
-14.74
-18.44
-21.46
-23.31
-23.56
-22.06
-18.95
-14.67
-9.81
-5.04
-0.79
2.71
5.51
7.71
9.41
10.65
11.44
11.81
11.86
11.73
11.56
11.42
11.32
11.23
11.13
10.97
10.70
10.25
9.57
8.66
7.56
6.31
4.92
3.36
1.58
-0.43
-2.56
-4.59
-6.27
-7.48
-8.21
-8.63
-8.93
-9.29
-9.78
-10.46
-11.37
-12.56
-13.97
-15.40
-16.46
-16.71
-15.83
-13.77
-10.85
-7.50
-4.17
-1.10
1.67
4.14
6.29
8.01
9.18
9.79
9.94
9.87
9.78
9.72
9.68
9.58
9.48
9.50
9.77
10.32
11.04
11.73
12.22
12.45
12.47
12.31
11.97
11.39
10.47
9.19
7.60
5.81
3.97
2.18
0.49
-1.08
-2.56
-4.04
-5.70
-7.75
-10.37
-13.52
-16.95
-20.21
-22.77
-24.13
-23.96
-22.24
-19.15
-15.13
-10.73
-6.41
-2.49
1.01
4.19
7.21
10.00
12.27
13.64
13.85
13.01
11.64
10.47
10.06
10.57
11.68
12.79
13.43
13.42
12.89
12.12
11.27
10.27
8.89
6.97
4.55
1.91
-0.55
-2.53
-3.91
-4.79
-5.35
-5.72
-5.94
-6.07
-6.21
-6.56
-7.42
-9.01
-11.36
-14.15
-16.85
-18.81
-19.55
-18.86
-16.89
-14.01
-10.68
-7.30
-4.16
-1.37
1.01
2.93
4.34
5.20
5.51
5.40
5.07
4.81
4.81
5.18
5.87
6.68
7.48
8.14
8.68
9.16
9.56
9.79
9.65
9.01
7.87
6.41
4.87
3.45
2.15
0.82
-0.67
-2.37
-4.13
-5.67
-6.79
-7.47
-7.96
-8.67
-9.98
-12.09
-14.85
-17.82
-20.37
-21.85
-21.85
-20.28
-17.36
-13.54
-9.35
-5.21
-1.46
1.74
4.32
6.27
7.61
8.39
8.66
8.56
8.22
7.80
7.44
7.23
7.14
7.14
7.13
7.08
6.97
6.83
6.68
6.56
6.48
6.45
6.46
6.39
6.08
5.29
3.91
1.99
-0.28
-2.56
-4.60
-6.26
-7.60
-8.80
-10.04
-11.47
-13.14
-15.03
-16.96
-18.67
-19.82
-20.17
-19.65
-18.46
-16.92
-15.37
-13.91
-12.34
-10.25
-7.22
-3.06
2.02
7.43
12.36
16.03
17.86
17.68
15.71
12.47
8.67
5.05
2.28
0.92
1.31
3.47
7.00
11.06
14.59
16.59
16.52
14.42
10.89
6.72
2.67
-0.81
-3.48
-5.24
-5.97
-5.63
-4.38
-2.64
-1.09
-0.41
-1.06
-3.20
-6.67
-11.18
-16.34
-21.67
-26.55
-30.21
-31.91
-31.21
-28.15
-23.31
-17.56
-11.79
-6.58
-2.17
1.46
4.43
6.78
8.48
9.54
10.01
10.08
9.92
9.63
9.18
8.51
7.55
6.38
5.25
4.42
4.04
3.99
4.00
3.71
2.88
1.55
-0.06
-1.60
-2.89
-3.87
-4.71
-5.58
-6.60
-7.80
-9.15
-10.73
-12.68
-15.11
-17.99
-21.01
-23.60
-25.05
-24.72
-22.28
-17.87
-12.10
-5.88
-0.13
4.41
7.51
9.35
10.45
11.30
12.18
13.07
13.74
13.95
13.63
12.93
12.13
11.45
11.06
10.92
10.90
10.88
10.75
10.47
10.07
9.62
9.14
8.59
7.83
6.73
5.21
3.44
1.64
0.04
-1.44
-3.21
-5.78
-9.51
-14.24
-19.18
-23.18
-25.12
-24.46
-21.32
-16.50
-10.98
-5.65
-0.95
3.06
6.54
9.60
12.13
13.91
14.76
14.79
14.42
14.19
14.57
15.63
17.00
18.14
18.54
18.06
16.93
15.57
14.43
13.72
13.48
13.60
13.90
14.16
14.10
13.45
11.98
9.63
6.61
3.31
0.19
-2.32
-3.98
-4.85
-5.21
-5.49
-6.24
-7.86
-10.56
-14.18
-18.21
-21.90
-24.44
-25.18
-23.87
-20.58
-15.82
-10.19
-4.39
1.03
5.66
9.25
11.73
13.19
13.86
14.06
14.10
14.18
14.38
14.62
14.81
14.92
14.97
15.09
15.39
15.90
16.47
16.88
16.77
15.92
14.24
11.89
9.21
6.66
4.64
3.35
2.73
2.44
2.08
1.21
-0.35
-2.55
-5.09
-7.56
-9.64
-11.16
-12.17
-12.90
-13.66
-14.77
-16.38
-18.50
-20.87
-23.00
-24.31
-24.29
-22.70
-19.65
-15.56
-10.96
-6.28
-1.79
2.45
6.33
9.68
12.26
13.89
14.61
14.66
14.42
14.21
14.19
14.36
14.68
15.09
15.61
16.26
16.99
17.71
18.23
18.36
17.96
17.01
15.63
14.03
12.43
11.02
9.85
8.82
7.77
6.50
4.95
3.12
1.11
-1.01
-3.18
-5.36
-7.46
-9.38
-11.09
-12.73
-14.53
-16.79
-19.59
-22.63
-25.28
-26.73
-26.42
-24.23
-20.53
-16.09
-11.64
-7.69
-4.34
-1.45
1.21
3.71
6.02
8.02
9.61
10.79
11.60
12.10
12.28
12.14
11.72
11.12
10.46
9.91
9.47
9.13
8.82
8.47
8.09
7.66
7.12
6.35
5.24
3.77
2.08
0.39
-1.11
-2.34
-3.40
-4.45
-5.66
-6.95
-8.08
-8.78
-8.94
-8.74
-8.70
-9.41
-11.30
-14.36
-18.09
-21.65
-24.11
-24.76
-23.37
-20.17
-15.72
-10.66
-5.59
-0.95
2.96
6.00
8.12
9.33
9.78
9.66
9.17
8.55
7.98
7.57
7.36
7.38
7.60
7.99
8.54
9.23
10.03
10.89
11.78
12.61
13.30
13.75
13.82
13.37
12.26
10.44
7.97
5.08
2.03
-0.85
-3.34
-5.27
-6.63
-7.51
-8.18
-9.04
-10.46
-12.72
-15.75
-19.05
-21.84
-23.24
-22.69
-20.05
-15.69
-10.27
-4.50
0.98
5.72
9.38
11.82
13.07
13.39
13.19
12.97
13.10
13.72
14.72
15.76
16.52
16.71
16.28
15.31
14.02
12.70
11.59
10.82
10.34
9.96
9.38
8.35
6.72
4.52
1.93
-0.79
-3.31
-5.35
-6.74
-7.45
-7.69
-7.84
-8.39
-9.73
-12.05
-15.12
-18.32
-20.89
-22.13
-21.70
-19.71
-16.67
-13.20
-9.84
-6.81
-4.03
-1.34
1.36
3.92
6.08
7.52
8.15
8.08
7.66
7.27
7.19
7.50
8.11
8.81
9.44
9.83
9.94
9.73
9.26
8.55
7.74
6.95
6.26
5.56
4.62
3.16
1.03
-1.57
-4.19
-6.27
-7.46
-7.82
-7.83
-8.15
-9.33
-11.52
-14.44
-17.58
-20.32
-22.21
-23.03
-22.75
-21.43
-19.16
-16.06
-12.28
-8.04
-3.63
0.61
4.28
7.10
8.86
9.67
9.78
9.55
9.27
9.03
8.75
8.28
7.53
6.62
5.82
5.41
5.49
5.90
6.27
6.24
5.63
4.48
3.05
1.59
0.27
-0.92
-2.08
-3.30
-4.60
-5.94
-7.29
-8.74
-10.46
-12.67
-15.42
-18.49
-21.39
-23.50
-24.24
-23.33
-20.80
-17.01
-12.43
-7.64
-3.09
0.88
4.14
6.68
8.60
9.98
10.83
11.11
10.81
10.06
9.19
8.62
8.66
9.34
10.40
11.40
11.97
11.99
11.66
11.25
10.95
10.67
10.05
8.66
6.26
2.94
-0.80
-4.24
-6.74
-7.97
-8.05
-7.50
-7.03
-7.26
-8.56
-10.92
-14.06
-17.51
-20.72
-23.16
-24.46
-24.38
-22.85
-20.00
-16.11
-11.56
-6.80
-2.27
1.62
4.62
6.69
8.05
9.01
9.92
10.89
11.86
12.61
12.99
13.03
12.93
12.94
13.18
13.60
13.96
14.07
13.80
13.25
12.55
11.81
11.01
10.02
8.70
7.09
5.26
3.44
1.83
0.52
-0.58
-1.58
-2.60
-3.71
-4.93
-6.30
-7.94
-10.05
-12.81
-16.23
-20.06
-23.78
-26.72
-28.29
-28.06
-25.96
-22.21
-17.29
-11.82
-6.42
-1.62
2.30
5.32
7.66
9.63
11.42
13.05
14.36
15.16
15.43
15.35
15.26
15.41
15.87
16.47
16.97
17.19
17.15
16.97
16.82
16.72
16.60
16.26
15.57
14.51
13.18
11.78
10.45
9.25
8.11
6.87
5.40
3.57
1.43
-0.89
-3.18
-5.24
-6.97
-8.40
-9.62
-10.75
-11.89
-13.11
-14.52
-16.30
-18.58
-21.38
-24.47
-27.36
-29.40
-30.00
-28.82
-25.95
-21.81
-17.04
-12.32
-8.09
-4.60
-1.81
0.41
2.26
3.86
5.25
6.41
7.30
7.92
8.31
8.66
9.16
10.00
11.22
12.70
14.20
15.42
16.17
16.42
16.26
15.80
15.09
14.04
12.58
10.70
8.60
6.65
5.12
4.18
3.68
3.34
2.83
2.00
0.88
-0.40
-1.68
-2.99
-4.43
-6.19
-8.36
-10.91
-13.70
-16.65
-19.64
-22.63
-25.44
-27.68
-28.81
-28.27
-25.79
-21.51
-16.04
-10.23
-4.90
-0.58
2.63
4.97
6.79
8.37
9.75
10.81
11.42
11.60
11.56
11.64
12.07
12.85
13.79
14.64
15.22
15.64
16.13
16.91
17.98
19.02
19.56
19.26
18.03
16.13
14.02
12.10
10.52
9.15
7.74
6.01
3.89
1.54
-0.80
-2.84
-4.45
-5.69
-6.77
-7.98
-9.57
-11.71
-14.44
-17.61
-20.85
-23.67
-25.49
-25.88
-24.63
-21.85
-17.95
-13.47
-8.95
-4.79
-1.21
1.69
3.89
5.44
6.47
7.12
7.57
7.93
8.31
8.72
9.19
9.69
10.22
10.74
11.24
11.68
12.07
12.48
12.93
13.38
13.71
13.76
13.39
12.61
11.57
10.43
9.32
8.29
7.22
5.99
4.56
2.97
1.33
-0.25
-1.74
-3.19
-4.62
-6.11
-7.61
-9.18
-10.96
-13.17
-15.94
-19.19
-22.54
-25.29
-26.72
-26.33
-24.09
-20.39
-15.96
-11.47
-7.39
-3.83
-0.66
2.23
4.91
7.24
9.02
10.09
10.47
10.38
10.09
9.89
9.95
10.30
10.82
11.35
11.80
12.06
12.15
12.07
11.82
11.36
10.65
9.67
8.51
7.34
6.37
5.79
5.63
5.77
5.91
5.73
4.95
3.50
1.51
-0.70
-2.82
-4.61
-6.08
-7.36
-8.75
-10.57
-13.01
-16.10
-19.59
-23.04
-25.82
-27.39
-27.35
-25.64
-22.48
-18.32
-13.71
-9.13
-5.00
-1.59
1.01
2.82
3.96
4.61
4.94
5.10
5.17
5.22
5.43
5.94
6.88
8.22
9.74
11.15
12.18
12.71
12.83
12.72
12.59
12.52
12.43
12.15
11.53
10.53
9.23
7.83
6.57
5.55
4.73
3.93
2.92
1.56
-0.10
-1.86
-3.44
-4.66
-5.51
-6.24
-7.22
-8.86
-11.33
-14.54
-18.04
-21.17
-23.29
-23.93
-22.97
-20.65
-17.44
-13.84
-10.19
-6.71
-3.45
-0.49
2.09
4.14
5.63
6.57
7.12
7.46
7.73
8.00
8.24
8.41
8.48
8.40
8.22
7.99
7.80
7.74
7.85
8.07
8.32
8.45
8.34
7.97
7.42
6.77
6.10
5.43
4.73
3.91
2.91
1.72
0.39
-1.04
-2.45
-3.69
-4.65
-5.30
-5.71
-6.13
-6.93
-8.45
-10.86
-14.02
-17.51
-20.63
-22.73
-23.28
-22.12
-19.45
-15.76
-11.61
-7.46
-3.65
-0.30
2.53
4.81
6.47
7.49
7.89
7.79
7.40
6.92
6.48
6.16
5.94
5.78
5.64
5.51
5.43
5.45
5.61
5.90
6.19
6.28
5.94
5.03
3.60
1.88
0.24
-1.00
-1.69
-1.94
-1.98
-2.07
-2.31
-2.68
-3.07
-3.43
-3.90
-4.71
-6.11
-8.21
-10.90
-13.78
-16.33
-17.99
-18.41
-17.44
-15.26
-12.22
-8.77
-5.28
-1.97
1.08
3.81
6.12
7.85
8.82
9.03
8.71
8.26
8.02
8.21
8.68
9.13
9.28
9.07
8.70
8.43
8.45
8.66
8.84
8.66
7.99
6.90
5.67
4.58
3.77
3.22
2.72
2.08
1.13
-0.15
-1.68
-3.30
-4.84
-6.21
-7.35
-8.32
-9.25
-10.33
-11.72
-13.53
-15.68
-17.96
-19.97
-21.28
-21.48
-20.32
-17.83
-14.25
-10.04
-5.72
-1.75
1.56
4.14
6.02
7.38
8.36
9.09
9.62
10.01
10.29
10.51
10.75
11.00
11.22
11.35
11.37
11.31
11.24
11.25
11.32
11.38
11.32
11.02
10.47
9.72
8.86
7.98
7.13
6.23
5.22
3.98
2.49
0.77
-1.10
-2.98
-4.70
-6.12
-7.17
-7.91
-8.53
-9.33
-10.62
-12.59
-15.17
-18.04
-20.65
-22.40
-22.83
-21.76
-19.33
-15.96
-12.14
-8.30
-4.75
-1.57
1.20
3.63
5.75
7.56
9.05
10.22
11.04
11.55
11.80
11.87
11.79
11.55
11.18
10.68
10.18
9.87
9.94
10.41
11.14
11.76
11.87
11.25
9.95
8.28
6.61
5.27
4.37
3.81
3.44
3.09
2.63
1.97
1.08
0.00
-1.19
-2.38
-3.47
-4.46
-5.50
-6.77
-8.50
-10.80
-13.63
-16.72
-19.65
-21.87
-22.89
-22.39
-20.31
-16.92
-12.74
-8.42
-4.49
-1.28
1.16
2.97
4.39
5.56
6.58
7.44
8.13
8.66
9.03
9.27
9.35
9.26
8.98
8.60
8.26
8.10
8.17
8.41
8.67
8.80
8.74
8.45
8.00
7.44
6.81
6.13
5.44
4.74
4.00
3.17
2.14
0.88
-0.61
-2.16
-3.62
-4.78
-5.59
-6.18
-6.79
-7.70
-9.18
-11.28
-13.91
-16.76
-19.39
-21.29
-22.05
-21.39
-19.35
-16.18
-12.34
-8.32
-4.54
-1.27
1.39
3.43
4.93
6.04
6.86
7.45
7.74
7.52
6.59
4.97
3.02
1.40
0.74
1.34
3.03
5.19
7.04
8.13
8.42
8.25
8.06
8.10
8.21
8.09
7.43
6.24
4.78
3.46
2.52
1.96
1.42
0.47
-1.13
-3.23
-5.32
-6.82
-7.48
-7.61
-7.90
-9.11
-11.58
-14.98
-18.36
-20.66
-21.02
-19.17
-15.49
-10.75
-5.80
-1.31
2.36
5.16
7.18
8.55
9.38
9.71
9.60
9.14
8.53
7.98
7.62
7.50
7.54
7.59
7.58
7.49
7.38
7.30
7.20
7.06
6.81
6.44
5.94
5.26
4.34
3.10
1.61
0.08
-1.20
-2.04
-2.42
-2.63
-3.03
-3.93
-5.39
-7.24
-9.21
-11.15
-12.99
-14.77
-16.46
-17.83
-18.54
-18.29
-17.00
-14.83
-12.14
-9.23
-6.23
-3.16
-0.01
3.12
5.97
8.25
9.85
10.84
11.55
12.31
13.28
14.44
15.48
16.07
16.01
15.30
14.20
13.00
11.97
11.15
10.45
9.65
8.66
7.51
6.35
5.33
4.50
3.74
2.82
1.56
-0.12
-2.10
-4.17
-6.08
-7.65
-8.81
-9.61
-10.21
-10.84
-11.77
-13.19
-15.12
-17.36
-19.47
-20.87
-21.08
-19.85
-17.27
-13.69
-9.64
-5.58
-1.88
1.33
4.02
6.23
8.04
9.48
10.58
11.30
11.61
11.45
10.88
9.98
8.94
8.00
7.31
6.96
6.84
6.86
6.91
6.90
6.79
6.50
5.97
5.15
4.06
2.81
1.61
0.59
-0.24
-1.04
-2.05
-3.46
-5.27
-7.23
-8.94
-10.06
-10.52
-10.64
-11.03
-12.26
-14.64
-17.94
-21.37
-23.95
-24.82
-23.58
-20.40
-15.92
-10.93
-6.16
-2.03
1.34
4.04
6.24
8.07
9.53
10.56
11.07
11.07
10.69
10.18
9.79
9.64
9.67
9.74
9.69
9.50
9.29
9.22
9.37
9.62
9.74
9.52
8.92
8.08
7.24
6.56
6.00
5.34
4.34
2.87
1.04
-0.87
-2.59
-3.95
-4.94
-5.75
-6.61
-7.83
-9.67
-12.28
-15.61
-19.35
-22.85
-25.32
-26.12
-24.90
-21.85
-17.52
-12.69
-8.04
-4.04
-0.89
1.41
2.98
4.01
4.61
4.99
5.29
5.68
6.25
7.08
8.16
9.46
10.91
12.40
13.75
14.77
15.28
15.20
14.57
13.61
12.55
11.66
11.01
10.56
10.16
9.69
9.01
8.07
6.84
5.34
3.64
1.83
0.08
-1.47
-2.76
-3.83
-4.77
-5.74
-6.89
-8.35
-10.30
-12.81
-15.80
-18.92
-21.61
-23.26
-23.39
-21.87
-18.93
-14.99
-10.47
-5.75
-1.06
3.34
7.17
10.16
12.16
13.25
13.73
13.97
14.17
14.37
14.39
14.11
13.53
12.82
12.22
11.93
11.99
12.25
12.49
12.53
12.29
11.80
11.16
10.50
9.88
9.35
8.92
8.52
8.08
7.50
6.66
5.49
3.96
2.12
0.05
-2.11
-4.17
-6.01
-7.52
-8.75
-9.87
-11.19
-13.01
-15.51
-18.63
-22.01
-25.06
-27.12
-27.70
-26.56
-23.80
-19.72
-14.82
-9.63
-4.68
-0.35
3.16
5.82
7.78
9.25
10.38
11.22
11.74
11.92
11.78
11.40
10.86
10.25
9.64
9.13
8.85
8.93
9.40
10.12
10.91
11.53
11.92
12.12
12.31
12.57
12.88
13.12
13.11
12.77
12.11
11.17
9.93
8.21
5.89
2.96
-0.45
-4.12
-7.93
-11.95
-16.24
-20.66
-24.67
-27.37
-27.95
-26.11
-22.31
-17.59
-13.16
-9.76
-7.44
-5.64
-3.69
-1.22
1.60
4.24
6.10
6.87
6.66
5.90
5.17
4.84
5.04
5.60
6.24
6.70
6.91
6.99
7.22
7.81
8.81
10.03
11.05
11.42
10.83
9.28
7.04
4.54
2.26
0.44
-0.83
-1.75
-2.59
-3.67
-5.27
-7.49
-10.32
-13.52
-16.72
-19.49
-21.43
-22.19
-21.60
-19.66
-16.57
-12.69
-8.55
-4.67
-1.51
0.73
2.15
3.04
3.78
4.68
5.84
7.19
8.53
9.65
10.42
10.78
10.79
10.59
10.30
10.03
9.87
9.81
9.77
9.58
9.07
8.10
6.67
4.85
2.88
0.97
-0.71
-2.15
-3.48
-4.93
-6.77
-9.21
-12.29
-15.79
-19.28
-22.15
-23.75
-23.60
-21.61
-18.08
-13.63
-8.96
-4.62
-0.85
2.32
4.99
7.22
8.95
10.12
10.74
11.00
11.19
11.54
12.10
12.69
13.03
12.87
12.24
11.35
10.56
10.14
10.13
10.37
10.49
10.15
9.18
7.59
5.58
3.41
1.29
-0.61
-2.28
-3.80
-5.33
-7.10
-9.30
-12.09
-15.40
-18.98
-22.32
-24.82
-25.94
-25.37
-23.17
-19.72
-15.63
-11.46
-7.61
-4.14
-0.88
2.40
5.83
9.23
12.25
14.52
15.83
16.23
16.00
15.58
15.28
15.29
15.61
16.08
16.46
16.53
16.08
15.13
13.80
12.38
11.13
10.17
9.36
8.42
7.08
5.28
3.18
1.12
-0.61
-2.03
-3.38
-5.11
-7.57
-10.83
-14.69
-18.70
-22.37
-25.27
-27.01
-27.24
-25.60
-21.98
-16.59
-10.04
-3.27
2.77
7.41
10.39
11.84
12.10
11.54
10.53
9.45
8.74
8.81
9.83
11.64
13.67
15.21
15.70
14.95
13.27
11.21
9.33
7.99
7.24
6.95
6.91
6.94
6.88
6.62
6.05
5.12
3.88
2.44
0.98
-0.43
-1.83
-3.41
-5.38
-7.96
-11.28
-15.33
-19.92
-24.64
-28.87
-31.95
-33.25
-32.44
-29.55
-24.94
-19.19
-12.94
-6.77
-1.15
3.55
7.09
9.36
10.41
10.49
9.95
9.19
8.51
8.06
7.91
7.97
8.17
8.39
8.57
8.65
8.62
8.57
8.58
8.69
8.84
8.77
8.21
6.96
5.05
2.75
0.46
-1.48
-3.01
-4.27
-5.55
-7.06
-8.89
-11.04
-13.46
-16.07
-18.71
-21.02
-22.43
-22.34
-20.33
-16.44
-11.18
-5.38
0.15
4.80
8.39
10.95
12.68
13.78
14.35
14.44
14.19
13.74
13.29
13.02
13.03
13.30
13.76
14.24
14.55
14.54
14.17
13.47
12.51
11.38
10.09
8.62
6.92
5.04
3.11
1.31
-0.19
-1.33
-2.25
-3.18
-4.40
-6.15
-8.58
-11.75
-15.65
-20.21
-25.20
-30.14
-34.32
-36.88
-37.12
-34.73
-29.96
-23.55
-16.46
-9.63
-3.62
1.29
5.13
8.05
10.22
11.76
12.80
13.54
14.11
14.68
15.29
15.86
16.29
16.46
16.31
15.91
15.50
15.39
15.90
17.13
18.88
20.68
21.89
21.94
20.55
17.90
14.50
11.04
8.12
6.01
4.59
3.47
2.22
0.65
-1.16
-2.91
-4.35
-5.41
-6.35
-7.67
-9.88
-13.24
-17.66
-22.62
-27.42
-31.27
-33.53
-33.81
-32.00
-28.33
-23.27
-17.45
-11.53
-6.10
-1.48
2.22
5.12
7.44
9.42
11.24
12.97
14.61
16.11
17.41
18.33
18.74
18.54
17.73
16.53
15.22
14.12
13.41
13.11
13.07
13.15
13.25
13.32
13.34
13.23
12.89
12.13
10.77
8.78
6.22
3.33
0.37
-2.33
-4.61
-6.41
-7.84
-9.12
-10.59
-12.53
-15.12
-18.32
-21.74
-24.83
-26.87
-27.30
-25.85
-22.63
-18.10
-12.90
-7.66
-2.87
1.18
4.37
6.72
8.31
9.29
9.82
10.10
10.25
10.36
10.45
10.50
10.49
10.36
10.14
9.78
9.31
8.74
8.11
7.42
6.69
5.90
5.05
4.12
3.10
2.00
0.76
-0.58
-1.98
-3.35
-4.50
-5.32
-5.77
-6.02
-6.41
-7.35
-9.11
-11.74
-14.94
-18.13
-20.64
-21.86
-21.52
-19.65
-16.60
-12.88
-8.94
-5.10
-1.52
1.76
4.71
7.23
9.14
10.28
10.63
10.36
9.81
9.36
9.28
9.59
10.09
10.47
10.49
10.12
9.55
9.07
8.85
8.85
8.82
8.48
7.68
6.46
4.98
3.39
1.74
-0.02
-1.94
-3.99
-6.03
-7.92
-9.60
-11.11
-12.61
-14.20
-15.93
-17.68
-19.17
-20.06
-20.00
-18.76
-16.33
-12.95
-9.13
-5.48
-2.48
-0.34
1.07
2.06
2.99
3.99
4.99
5.78
6.25
6.45
6.66
7.15
8.10
9.45
10.97
12.38
13.50
14.31
14.81
15.06
14.99
14.54
13.64
12.32
10.75
9.14
7.65
6.32
5.12
3.97
2.78
1.55
0.24
-1.11
-2.50
-3.92
-5.43
-7.19
-9.44
-12.39
-16.10
-20.28
-24.30
-27.31
-28.61
-27.84
-25.17
-21.19
-16.62
-12.03
-7.77
-3.95
-0.58
2.35
4.78
6.71
8.17
9.26
10.07
10.66
10.99
11.07
10.87
10.43
9.83
9.13
8.34
7.49
6.59
5.73
4.96
4.37
3.97
3.69
3.42
3.06
2.52
1.76
0.78
-0.35
-1.56
-2.78
-3.96
-5.08
-6.23
-7.53
-9.14
-11.23
-13.82
-16.71
-19.46
-21.55
-22.38
-21.63
-19.26
-15.63
-11.27
-6.81
-2.77
0.61
3.27
5.35
7.02
8.42
9.64
10.71
11.59
12.26
12.68
12.87
12.81
12.54
12.13
11.62
11.12
10.75
10.59
10.69
10.94
11.20
11.24
10.83
9.85
8.31
6.37
4.23
2.15
0.28
-1.34
-2.78
-4.17
-5.56
-6.96
-8.35
-9.84
-11.63
-13.98
-16.95
-20.27
-23.26
-25.12
-25.22
-23.40
-20.04
-15.81
-11.46
-7.49
-4.11
-1.29
1.01
2.81
4.05
4.72
4.88
4.71
4.47
4.38
4.57
5.05
5.69
6.30
6.69
6.73
6.46
5.98
5.47
5.03
4.69
4.35
3.85
3.11
2.10
0.89
-0.40
-1.70
-2.93
-4.07
-5.08
-5.94
-6.73
-7.62
-8.93
-10.92
-13.59
-16.58
-19.13
-20.45
-19.94
-17.56
-13.79
-9.32
-4.84
-0.66
3.18
6.77
10.12
13.06
15.36
16.84
17.59
17.80
17.72
17.51
17.13
16.52
15.65
14.63
13.69
13.07
12.88
13.05
13.35
13.49
13.17
12.24
10.69
8.68
6.49
4.42
2.72
1.51
0.77
0.41
0.20
-0.02
-0.42
-1.13
-2.18
-3.54
-5.08
-6.62
-7.94
-8.93
-9.53
-9.83
-9.96
-10.13
-10.58
-11.56
-13.30
-15.88
-19.18
-22.77
-25.97
-28.01
-28.28
-26.51
-22.86
-17.86
-12.21
-6.60
-1.56
2.60
5.76
8.03
9.54
10.51
11.10
11.47
11.71
11.91
12.16
12.55
13.11
13.80
14.49
14.97
15.06
14.66
13.80
12.62
11.25
9.84
8.45
7.16
6.04
5.12
4.41
3.85
3.33
2.75
2.07
1.29
0.47
-0.32
-1.03
-1.69
-2.45
-3.58
-5.40
-8.14
-11.75
-15.76
-19.29
-21.33
-21.15
-18.55
-14.01
-8.49
-2.96
1.81
5.45
7.90
9.18
9.29
8.26
6.27
3.74
1.27
-0.67
-1.88
-2.48
-2.79
-3.03
-3.18
-3.04
-2.37
-1.14
0.40
1.83
2.72
2.84
2.26
1.27
0.22
-0.63
-1.19
-1.59
-2.02
-2.67
-3.61
-4.84
-6.20
-7.57
-8.86
-9.97
-10.85
-11.42
-11.73
-12.00
-12.66
-14.10
-16.46
-19.35
-21.87
-22.96
-21.80
-18.22
-12.76
-6.50
-0.50
4.49
8.28
11.09
13.25
14.98
16.29
17.10
17.37
17.25
17.04
17.02
17.28
17.65
17.74
17.23
16.02
14.36
12.67
11.40
10.80
10.81
11.17
11.51
11.58
11.21
10.38
9.13
7.58
5.84
3.98
2.05
0.01
-2.18
-4.53
-6.93
-9.12
-10.83
-11.85
-12.23
-12.32
-12.61
-13.58
-15.35
-17.65
-19.84
-21.17
-21.09
-19.42
-16.36
-12.39
-8.02
-3.65
0.43
4.07
7.16
9.67
11.54
12.82
13.58
13.90
13.89
13.65
13.30
12.97
12.77
12.79
12.98
13.23
13.40
13.36
13.06
12.55
11.91
11.25
10.64
10.06
9.45
8.77
7.96
7.05
6.07
5.04
3.96
2.82
1.56
0.23
-1.06
-2.21
-3.23
-4.30
-5.80
-8.18
-11.76
-16.41
-21.57
-26.29
-29.63
-31.04
-30.57
-28.78
-26.43
-24.15
-22.13
-20.26
-18.24
-15.91
-13.29
-10.56
-7.87
-5.18
-2.34
0.81
4.30
7.94
11.41
14.45
16.98
19.08
21.03
23.03
25.15
27.28
29.16
30.45
30.87
30.23
28.58
26.14
23.26
20.25
17.27
14.21
10.81
6.78
2.06
-3.12
-8.28
-12.93
-16.73
-19.64
-21.86
-23.71
-25.52
-27.57
-29.96
-32.55
-34.97
-36.67
-37.06
-35.75
-32.74
-28.42
-23.43
-18.40
-13.71
-9.57
-5.93
-2.77
-0.04
2.30
4.28
6.00
7.54
9.04
10.57
12.19
13.82
15.35
16.56
17.20
17.15
16.50
15.54
14.68
14.22
14.21
14.40
14.40
13.86
12.61
10.77
8.58
6.28
4.02
1.82
-0.34
-2.41
-4.20
-5.53
-6.31
-6.69
-7.03
-7.85
-9.61
-12.52
-16.40
-20.70
-24.59
-27.24
-28.13
-27.10
-24.46
-20.77
-16.57
-12.20
-7.73
-3.16
1.39
5.58
8.92
11.03
11.89
11.92
11.77
12.04
12.97
14.33
15.62
16.25
15.88
14.53
12.54
10.42
8.68
7.62
7.27
7.37
7.52
7.25
6.25
4.47
2.25
0.27
-0.60
0.41
3.60
8.58
14.15
18.69
20.59
18.92
13.77
6.28
-1.87
-9.05
-14.21
-17.13
-18.29
-18.42
-18.13
-17.70
-16.97
-15.62
-13.40
-10.24
-6.34
-2.09
2.12
5.96
9.22
11.76
13.50
14.32
14.20
13.24
11.74
10.15
8.90
8.29
8.33
8.81
9.36
9.66
9.48
8.83
7.90
6.98
6.31
6.06
6.17
6.45
6.63
6.57
6.27
5.95
5.82
6.07
6.63
7.25
7.57
7.25
6.14
4.20
1.53
-1.77
-5.60
-9.79
-14.02
-17.80
-20.56
-21.79
-21.24
-18.98
-15.40
-11.06
-6.52
-2.25
1.48
4.58
7.05
8.96
10.38
11.40
12.08
12.47
12.65
12.67
12.50
12.16
11.57
10.70
9.57
8.23
6.83
5.51
4.40
3.51
2.76
2.07
1.39
0.73
0.15
-0.34
-0.75
-1.26
-2.07
-3.35
-5.10
-7.15
-9.16
-10.76
-11.71
-12.00
-11.88
-11.81
-12.38
-14.11
-17.24
-21.66
-26.80
-31.78
-35.56
-37.30
-36.54
-33.40
-28.59
-23.17
-18.23
-14.60
-12.63
-12.13
-12.59
-13.41
-14.20
-14.86
-15.57
-16.58
-18.12
-20.16
-22.47
-24.68
-26.41
-27.41
-27.68
-27.46
-27.07
-26.78
-26.66
-26.47
-25.84
-24.39
-21.99
-18.76
-15.01
-11.11
-7.24
-3.46
0.36
4.36
8.53
12.76
16.81
20.48
23.68
26.41
28.67
30.36
31.31
31.34
30.44
28.84
27.00
25.47
24.64
24.65
25.37
26.42
27.41
28.00
27.97
27.25
25.87
23.99
21.83
19.72
17.91
16.58
15.77
15.35
15.13
14.87
14.41
13.64
12.55
11.19
9.60
7.94
6.35
4.99
3.98
3.33
2.93
2.63
2.27
1.82
1.34
0.94
0.77
0.87
1.18
1.52
1.63
1.17
-0.10
-2.16
-4.57
-6.51
-7.03
-5.38
-1.44
4.26
10.71
16.81
21.86
25.60
28.30
30.39
32.25
34.04
35.66
36.87
37.37
36.90
35.14
31.96
27.46
22.23
17.35
14.17
13.66
15.83
19.38
21.92
20.99
15.06
4.40
-9.08
-22.65
-34.04
-42.25
-47.68
-51.51
-54.93
-58.63
-62.78
-67.22
-71.81
-76.22
-79.93
-82.16
-82.18
-79.67
-74.93
-68.68
-61.59
-53.99
-45.80
-36.96
-27.77
-19.00
-11.50
-5.77
-1.63
1.71
5.14
9.19
13.78
18.52
22.95
26.89
30.40
33.59
36.47
38.81
40.27
40.56
39.58
37.45
34.50
31.15
27.82
24.86
22.43
20.51
18.96
17.52
15.99
14.15
11.87
8.89
4.91
-0.28
-6.64
-13.62
-20.25
-25.35
-27.98
-27.72
-24.87
-20.24
-14.79
-9.37
-4.48
-0.36
2.96
5.50
7.31
8.44
8.96
8.91
8.38
7.55
6.66
6.01
5.76
5.87
6.12
6.22
6.04
5.72
5.64
6.14
7.36
9.12
11.04
12.63
13.62
13.85
13.32
12.12
10.33
8.12
5.78
3.66
2.03
0.88
-0.13
-1.55
-3.85
-7.16
-11.04
-14.68
-17.18
-17.95
-16.89
-14.36
-11.01
-7.42
-3.89
-0.54
2.71
5.82
8.66
10.97
12.45
13.00
12.79
12.29
12.21
13.27
15.91
20.04
25.07
29.96
33.70
35.50
35.19
33.17
30.35
27.86
26.72
27.63
30.71
35.42
40.64
44.99
47.19
46.47
42.75
36.68
29.28
21.54
14.10
7.02
-0.07
-7.83
-16.92
-27.77
-40.40
-54.25
-68.10
-80.08
-88.08
-90.29
-85.86
-75.33
-60.51
-43.91
-27.79
-13.51
-1.48
8.49
16.38
21.82
24.11
23.00
19.08
13.90
9.37
6.91
6.87
8.53
10.64
12.19
12.89
13.15
13.62
14.71
16.21
17.45
17.62
16.18
13.02
8.52
3.26
-2.10
-7.04
-11.30
-14.79
-17.62
-19.98
-22.09
-24.17
-26.35
-28.71
-31.25
-33.83
-36.19
-37.85
-38.20
-36.62
-32.68
-26.42
-18.38
-9.54
-1.06
6.09
11.38
14.71
16.38
16.88
16.73
16.33
15.98
15.85
16.04
16.56
17.34
18.22
18.91
19.05
18.32
16.58
14.00
11.03
8.26
6.16
4.84
4.04
3.24
1.99
0.09
-2.25
-4.62
-6.67
-8.33
-9.91
-11.89
-14.75
-18.58
-23.09
-27.55
-31.06
-32.77
-32.14
-29.09
-23.96
-17.46
-10.44
-3.65
2.28
7.01
10.45
12.65
13.82
14.21
14.12
13.85
13.62
13.54
13.53
13.49
13.21
12.67
11.92
11.13
10.41
9.75
9.00
7.98
6.53
4.63
2.43
0.11
-2.11
-4.09
-5.79
-7.23
-8.67
-10.44
-12.92
-16.30
-20.48
-24.97
-28.94
-31.49
-31.89
-29.75
-25.15
-18.59
-10.90
-3.00
4.26
10.27
14.71
17.60
19.15
19.68
19.51
18.93
18.17
17.46
16.99
16.85
16.99
17.22
17.26
16.91
16.15
15.17
14.24
13.53
12.99
12.35
11.17
9.19
6.40
3.19
0.07
-2.47
-4.23
-5.38
-6.36
-7.70
-9.88
-13.21
-17.71
-23.04
-28.46
-32.97
-35.45
-35.10
-31.64
-25.47
-17.59
-9.24
-1.53
4.83
9.60
12.92
15.13
16.60
17.59
18.22
18.60
18.74
18.71
18.60
18.54
18.53
18.60
18.62
18.49
18.10
17.45
16.63
15.81
15.18
14.82
14.67
14.48
13.97
12.90
11.22
9.14
6.97
5.05
3.54
2.36
1.30
0.13
-1.28
-3.01
-5.07
-7.53
-10.49
-13.91
-17.53
-20.87
-23.35
-24.52
-24.21
-22.60
-20.10
-17.23
-14.44
-11.99
-9.94
-8.18
-6.49
-4.70
-2.77
-0.83
0.78
1.76
2.00
1.79
1.72
2.43
4.32
7.34
10.95
14.33
16.79
17.92
17.68
16.33
14.26
11.87
9.51
7.48
5.98
5.09
4.67
4.41
3.92
2.94
1.36
-0.65
-2.77
-4.64
-6.02
-6.94
-7.79
-9.18
-11.74
-15.71
-20.80
-26.10
-30.40
-32.62
-32.26
-29.53
-25.16
-20.06
-14.94
-10.22
-6.01
-2.31
0.87
3.50
5.59
7.26
8.66
9.92
11.11
12.20
13.13
13.83
14.32
14.63
14.84
15.08
15.42
15.89
16.44
16.87
16.89
16.16
14.36
11.44
7.63
3.41
-0.60
-3.85
-6.09
-7.37
-8.01
-8.46
-9.16
-10.44
-12.50
-15.31
-18.64
-21.98
-24.66
-25.93
-25.31
-22.63
-18.26
-12.90
-7.36
-2.28
2.03
5.54
8.38
10.64
12.28
13.23
13.44
13.04
12.21
11.26
10.35
9.56
8.86
8.16
7.44
6.72
6.11
5.71
5.62
5.81
6.11
6.30
6.05
5.15
3.54
1.40
-0.98
-3.19
-4.97
-6.24
-7.18
-8.09
-9.42
-11.49
-14.44
-18.05
-21.71
-24.65
-26.06
-25.42
-22.71
-18.38
-13.18
-7.91
-3.18
0.72
3.79
6.14
7.87
9.06
9.75
10.00
10.03
10.06
10.32
10.85
11.49
11.98
12.02
11.46
10.36
8.94
7.48
6.25
5.40
4.95
4.80
4.73
4.49
3.81
2.52
0.62
-1.68
-4.02
-6.04
-7.52
-8.51
-9.28
-10.23
-11.70
-13.86
-16.59
-19.59
-22.38
-24.44
-25.24
-24.41
-21.81
-17.60
-12.33
-6.71
-1.44
2.94
6.23
8.52
10.05
11.09
11.82
12.38
12.81
13.10
13.28
13.32
13.26
13.12
12.93
12.76
12.58
12.33
11.88
11.17
10.17
8.98
7.77
6.70
5.80
4.96
3.94
2.57
0.80
-1.22
-3.21
-4.92
-6.24
-7.22
-7.99
-8.73
-9.60
-10.76
-12.40
-14.70
-17.59
-20.71
-23.37
-24.74
-24.25
-21.80
-17.82
-13.10
-8.39
-4.23
-0.80
1.94
4.14
5.92
7.34
8.48
9.39
10.09
10.60
10.94
11.09
11.08
10.96
10.73
10.44
10.12
9.81
9.52
9.27
9.00
8.64
8.10
7.34
6.41
5.41
4.50
3.78
3.27
2.91
2.55
2.06
1.26
0.10
-1.37
-3.02
-4.72
-6.42
-8.26
-10.44
-13.12
-16.18
-19.14
-21.30
-21.99
-20.82
-17.87
-13.68
-8.95
-4.33
-0.22
3.21
5.96
8.01
9.30
9.83
9.73
9.33
9.01
9.08
9.58
10.32
10.96
11.17
10.82
9.95
8.78
7.57
6.53
5.79
5.37
5.16
5.00
4.63
3.85
2.59
0.88
-1.03
-2.84
-4.31
-5.33
-5.92
-6.26
-6.60
-7.17
-8.22
-9.84
-11.98
-14.31
-16.33
-17.46
-17.28
-15.69
-12.93
-9.49
-5.89
-2.47
0.61
3.41
5.92
8.05
9.59
10.34
10.20
9.28
7.84
6.18
4.58
3.24
2.27
1.72
1.59
1.80
2.24
2.70
3.01
3.08
2.93
2.65
2.32
1.98
1.54
0.90
0.03
-0.96
-1.86
-2.41
-2.47
-2.08
-1.54
-1.44
-2.37
-4.78
-8.66
-13.47
-18.17
-21.62
-22.92
-21.72
-18.38
-13.76
-8.82
-4.32
-0.57
2.46
4.96
7.07
8.78
10.00
10.74
11.12
11.32
11.45
11.48
11.17
10.22
8.50
6.10
3.40
0.87
-1.06
-2.21
-2.52
-2.10
-1.16
0.09
1.31
2.17
2.34
1.62
0.07
-1.99
-4.14
-5.91
-7.04
-7.53
-7.61
-7.76
-8.48
-10.16
-12.83
-16.07
-19.11
-21.03
-21.10
-19.05
-15.15
-10.05
-4.52
0.81
5.52
9.46
12.57
14.81
16.18
16.71
16.50
15.73
14.61
13.40
12.29
11.47
11.01
10.86
10.92
10.97
10.88
10.56
10.07
9.52
9.00
8.50
7.93
7.16
6.12
4.85
3.50
2.21
1.05
-0.01
-1.06
-2.12
-3.22
-4.37
-5.67
-7.38
-9.68
-12.62
-15.84
-18.68
-20.40
-20.49
-18.91
-16.05
-12.49
-8.75
-5.15
-1.76
1.38
4.19
6.48
8.06
8.88
9.03
8.78
8.39
8.08
7.96
7.99
8.15
8.32
8.38
8.22
7.79
7.09
6.21
5.31
4.46
3.68
2.84
1.82
0.51
-1.07
-2.75
-4.32
-5.55
-6.31
-6.63
-6.74
-7.00
-7.87
-9.63
-12.35
-15.72
-19.23
-22.23
-24.25
-25.06
-24.64
-23.11
-20.63
-17.33
-13.43
-9.26
-5.29
-1.97
0.40
1.81
2.45
2.69
2.88
3.31
4.22
5.84
8.29
11.54
15.34
19.14
22.31
24.34
24.98
24.41
23.06
21.45
19.90
18.51
17.09
15.41
13.29
10.72
7.87
4.93
2.06
-0.64
-3.18
-5.60
-7.94
-10.28
-12.71
-15.27
-17.97
-20.64
-22.97
-24.55
-24.96
-23.85
-21.11
-16.89
-11.62
-5.93
-0.49
4.13
7.63
10.01
11.53
12.49
13.15
13.64
13.97
14.12
14.13
14.08
14.10
14.21
14.37
14.47
14.43
14.19
13.78
13.24
12.60
11.88
11.11
10.31
9.51
8.66
7.66
6.37
4.64
2.51
0.16
-2.11
-4.03
-5.49
-6.56
-7.48
-8.54
-10.01
-12.08
-14.82
-18.09
-21.53
-24.47
-26.11
-25.81
-23.34
-19.02
-13.65
-8.18
-3.36
0.44
3.33
5.61
7.60
9.47
11.22
12.78
14.03
14.99
15.64
16.00
16.07
15.88
15.50
15.07
14.77
14.76
15.06
15.61
16.19
16.56
16.55
16.04
15.05
13.63
11.88
9.95
7.98
6.15
4.59
3.38
2.56
2.07
1.80
1.55
1.07
0.16
-1.33
-3.33
-5.56
-7.61
-8.92
-9.00
-7.57
-4.60
-0.35
4.74
10.24
15.90
21.67
27.61
33.62
39.28
43.90
46.76
47.59
46.84
45.60
45.15
46.24
48.67
51.36
52.92
52.56
50.49
47.57
44.56
41.23
36.20
27.39
12.70
-9.51
-40.57
-81.71
-133.62
-195.18
-262.00
-326.00
-376.98
-405.79
-407.78
-384.45
-342.51
-290.78
-236.70
-184.41
-134.92
-87.56
-41.40
4.51
51.50
101.35
155.29
212.14
266.86
311.03
335.41
333.25
302.63
246.79
172.71
89.14
5.44
-68.84
-124.36
-153.70
-153.81
-127.92
-85.30
-38.10
3.13
32.95
51.61
62.65
69.55
73.37
72.92
66.78
55.39
41.67
29.80
23.09
22.38
25.95
30.57
33.30
32.70
29.04
23.72
18.38
14.01
10.72
7.87
4.62
0.61
-3.87
-7.85
-10.10
-9.76
-6.73
-1.79
3.73
8.45
11.50
12.86
13.18
13.38
14.13
15.48
16.92
17.78
17.61
16.49
14.96
13.70
13.16
13.36
13.89
14.27
14.13
13.43
12.42
11.45
10.84
10.69
10.90
11.18
11.23
10.79
9.75
8.20
6.34
4.41
2.60
0.94
-0.64
-2.33
-4.23
-6.43
-8.94
-11.72
-14.65
-17.51
-19.97
-21.59
-21.96
-20.84
-18.27
-14.66
-10.61
-6.74
-3.44
-0.85
1.20
2.93
4.51
5.95
7.15
8.00
8.49
8.74
8.92
9.20
9.68
10.39
11.22
12.04
12.69
13.00
12.92
12.54
12.03
11.58
11.21
10.78
10.02
8.75
6.92
4.68
2.26
-0.24
-2.83
-5.59
-8.53
-11.47
-14.14
-16.33
-18.05
-19.58
-21.28
-23.30
-25.38
-26.92
-27.22
-25.85
-22.84
-18.63
-13.91
-9.29
-5.15
-1.59
1.41
3.95
6.06
7.68
8.79
9.43
9.71
9.81
9.94
10.21
10.67
11.22
11.67
11.83
11.61
11.09
10.49
10.09
10.08
10.41
10.80
10.83
10.15
8.69
6.61
4.37
2.40
1.01
0.21
-0.16
-0.39
-0.71
-1.36
-2.55
-4.51
-7.39
-11.13
-15.27
-19.07
-21.65
-22.36
-20.98
-17.85
-13.68
-9.25
-5.16
-1.71
1.13
3.45
5.36
6.89
8.01
8.65
8.86
8.75
8.52
8.42
8.60
9.06
9.60
9.90
9.70
8.90
7.65
6.34
5.38
5.11
5.60
6.69
8.02
9.11
9.64
9.38
8.34
6.78
5.01
3.35
1.98
0.84
-0.29
-1.66
-3.49
-5.86
-8.74
-11.98
-15.28
-18.29
-20.54
-21.51
-20.82
-18.40
-14.57
-9.99
-5.48
-1.70
1.06
2.91
4.17
5.16
6.03
6.76
7.27
7.53
7.68
7.92
8.42
9.27
10.37
11.48
12.37
12.91
12.98
12.61
11.85
10.77
9.44
7.92
6.22
4.34
2.27
0.02
-2.38
-4.82
-7.20
-9.38
-11.19
-12.50
-13.27
-13.59
-13.76
-14.21
-15.35
-17.33
-19.94
-22.55
-24.38
-24.82
-23.62
-21.01
-17.48
-13.57
-9.62
-5.72
-1.87
1.93
5.51
8.67
11.19
12.98
14.12
14.76
15.06
15.14
15.08
14.93
14.78
14.71
14.72
14.71
14.53
14.04
13.23
12.20
11.10
10.02
8.94
7.74
6.31
4.72
3.08
1.65
0.52
-0.36
-1.15
-2.16
-3.64
-5.72
-8.42
-11.60
-14.96
-18.08
-20.45
-21.63
-21.39
-19.72
-16.88
-13.23
-9.22
-5.18
-1.43
1.83
4.46
6.42
7.80
8.74
9.37
9.74
9.87
9.72
9.28
8.57
7.66
6.65
5.66
4.81
4.22
3.91
3.73
3.41
2.68
1.34
-0.49
-2.53
-4.34
-5.64
-6.31
-6.46
-6.33
-6.18
-6.26
-6.84
-8.16
-10.38
-13.43
-16.91
-20.12
-22.24
-22.66
-21.13
-17.85
-13.35
-8.21
-2.95
2.11
6.76
10.79
14.01
16.24
17.43
17.71
17.39
16.81
16.21
15.62
14.90
13.88
12.46
10.73
8.95
7.43
6.40
5.89
5.75
5.67
5.39
4.81
3.97
3.00
2.07
1.24
0.49
-0.30
-1.34
-2.77
-4.78
-7.48
-10.92
-14.95
-19.18
-23.02
-25.80
-26.99
-26.32
-23.90
-20.22
-15.86
-11.35
-7.03
-3.04
0.62
3.90
6.75
9.00
10.59
11.53
11.99
12.10
11.97
11.56
10.74
9.41
7.59
5.46
3.32
1.48
0.16
-0.58
-0.81
-0.80
-0.87
-1.37
-2.47
-4.16
-6.15
-8.02
-9.42
-10.21
-10.54
-10.75
-11.28
-12.41
-14.22
-16.52
-18.95
-21.04
-22.32
-22.39
-21.01
-18.23
-14.30
-9.71
-4.94
-0.40
3.70
7.26
10.23
12.58
14.25
15.30
15.86
16.16
16.42
16.75
17.14
17.50
17.75
17.89
17.94
17.90
17.70
17.22
16.42
15.39
14.31
13.43
12.80
12.28
11.55
10.33
8.48
6.12
3.50
0.88
-1.54
-3.74
-5.75
-7.70
-9.72
-12.05
-14.90
-18.35
-22.17
-25.80
-28.47
-29.44
-28.34
-25.27
-20.72
-15.38
-9.91
-4.78
-0.25
3.56
6.59
8.91
10.60
11.81
12.71
13.42
13.97
14.41
14.76
15.04
15.28
15.46
15.53
15.44
15.21
14.84
14.41
13.93
13.30
12.39
11.06
9.31
7.27
5.18
3.30
1.82
0.72
-0.13
-0.92
-1.79
-2.88
-4.33
-6.33
-9.12
-12.76
-17.08
-21.51
-25.23
-27.39
-27.41
-25.23
-21.29
-16.40
-11.38
-6.87
-3.13
-0.11
2.37
4.48
6.22
7.55
8.39
8.80
8.95
9.12
9.46
9.98
10.54
10.87
10.81
10.33
9.60
8.84
8.21
7.76
7.32
6.66
5.60
4.13
2.36
0.60
-0.92
-2.09
-3.01
-3.93
-5.16
-6.95
-9.42
-12.59
-16.31
-20.24
-23.92
-26.70
-27.97
-27.28
-24.54
-20.06
-14.48
-8.53
-2.83
2.19
6.40
9.72
12.20
13.91
14.92
15.31
15.25
14.92
14.49
14.16
14.04
14.14
14.34
14.49
14.41
14.05
13.49
12.87
12.29
11.70
10.80
9.28
6.97
3.99
0.77
-2.15
-4.33
-5.72
-6.56
-7.37
-8.63
-10.70
-13.66
-17.36
-21.45
-25.44
-28.75
-30.82
-31.18
-29.61
-26.20
-21.38
-15.80
-10.11
-4.86
-0.32
3.48
6.62
9.23
11.39
13.04
14.13
14.61
14.51
14.05
13.58
13.35
13.56
14.15
14.88
15.45
15.67
15.53
15.16
14.78
14.49
14.21
13.69
12.69
11.08
8.91
6.38
3.78
1.38
-0.69
-2.42
-3.95
-5.56
-7.55
-10.22
-13.71
-17.85
-22.18
-26.04
-28.71
-29.65
-28.57
-25.55
-20.94
-15.30
-9.26
-3.41
1.73
5.92
9.13
11.51
13.31
14.69
15.74
16.43
16.76
16.74
16.48
16.11
15.68
15.27
14.86
14.44
14.06
13.73
13.48
13.27
13.11
12.93
12.67
12.23
11.48
10.29
8.60
6.50
4.18
1.87
-0.31
-2.30
-4.21
-6.20
-8.40
-10.90
-13.77
-17.03
-20.59
-24.24
-27.46
-29.63
-30.16
-28.69
-25.32
-20.52
-14.97
-9.37
-4.15
0.46
4.44
7.79
10.53
12.62
14.02
14.75
14.90
14.64
14.23
13.89
13.87
14.21
14.79
15.33
15.56
15.29
14.51
13.43
12.31
11.30
10.35
9.29
7.92
6.16
4.14
2.07
0.16
-1.53
-3.04
-4.46
-5.86
-7.22
-8.55
-9.96
-11.67
-13.91
-16.78
-20.09
-23.34
-25.79
-26.82
-26.03
-23.46
-19.51
-14.82
-10.03
-5.62
-1.84
1.27
3.77
5.72
7.15
8.10
8.58
8.72
8.67
8.58
8.58
8.72
8.92
9.11
9.18
9.06
8.77
8.44
8.22
8.17
8.25
8.19
7.70
6.50
4.60
2.26
-0.09
-2.07
-3.50
-4.38
-4.99
-5.63
-6.57
-8.05
-10.24
-13.15
-16.62
-20.17
-23.11
-24.69
-24.33
-21.90
-17.77
-12.68
-7.54
-3.04
0.45
2.92
4.64
5.87
6.81
7.48
7.82
7.78
7.40
6.82
6.21
5.69
5.30
5.04
4.86
4.83
4.98
5.33
5.77
6.09
6.02
5.40
4.25
2.78
1.27
-0.04
-1.06
-1.84
-2.58
-3.48
-4.70
-6.43
-8.73
-11.62
-14.85
-17.99
-20.40
-21.47
-20.87
-18.64
-15.20
-11.19
-7.18
-3.51
-0.25
2.71
5.51
8.15
10.48
12.26
13.28
13.48
13.00
12.14
11.22
10.44
9.85
9.30
8.59
7.62
6.45
5.32
4.50
4.16
4.26
4.48
4.40
3.69
2.28
0.41
-1.49
-3.00
-3.98
-4.64
-5.34
-6.43
-7.99
-9.93
-12.07
-14.31
-16.67
-19.14
-21.49
-23.27
-23.89
-22.95
-20.39
-16.57
-12.13
-7.72
-3.70
-0.27
2.63
5.11
7.25
9.08
10.62
11.85
12.78
13.45
13.93
14.33
14.77
15.28
15.83
16.29
16.52
16.41
15.98
15.37
14.72
14.13
13.51
12.68
11.39
9.54
7.22
4.71
2.34
0.36
-1.14
-2.29
-3.28
-4.29
-5.42
-6.67
-8.10
-9.77
-11.78
-14.18
-16.82
-19.29
-21.01
-21.41
-20.13
-17.19
-13.08
-8.45
-4.06
-0.41
2.32
4.27
5.73
6.97
8.16
9.28
10.19
10.75
10.90
10.72
10.36
10.01
9.78
9.62
9.46
9.19
8.76
8.24
7.74
7.35
7.10
6.88
6.57
6.05
5.28
4.28
3.12
1.87
0.55
-0.85
-2.39
-4.07
-5.87
-7.75
-9.69
-11.76
-14.02
-16.52
-19.12
-21.41
-22.86
-22.94
-21.37
-18.23
-14.05
-9.46
-5.11
-1.39
1.56
3.80
5.39
6.33
6.62
6.33
5.72
5.12
4.86
5.04
5.49
5.90
6.01
5.76
5.31
4.95
4.88
5.15
5.64
6.14
6.42
6.33
5.78
4.73
3.26
1.49
-0.32
-1.95
-3.31
-4.49
-5.76
-7.44
-9.78
-12.77
-16.08
-19.23
-21.61
-22.68
-22.16
-20.02
-16.59
-12.33
-7.80
-3.45
0.38
3.56
6.05
7.86
9.03
9.69
9.99
10.15
10.33
10.58
10.83
10.88
10.58
9.86
8.81
7.65
6.57
5.70
5.04
4.50
3.94
3.22
2.24
0.96
-0.65
-2.45
-4.29
-5.94
-7.22
-8.11
-8.76
-9.57
-10.92
-13.09
-15.97
-19.05
-21.58
-22.78
-22.20
-19.81
-16.04
-11.56
-7.02
-2.89
0.57
3.37
5.55
7.24
8.53
9.49
10.16
10.52
10.55
10.22
9.60
8.85
8.14
7.63
7.35
7.19
6.94
6.45
5.63
4.52
3.26
1.96
0.70
-0.53
-1.76
-2.94
-4.00
-4.89
-5.66
-6.51
-7.74
-9.53
-11.87
-14.36
-16.37
-17.22
-16.48
-14.07
-10.36
-5.98
-1.59
2.29
5.44
7.81
9.46
10.45
10.85
10.72
10.20
9.54
9.00
8.74
8.80
9.02
9.22
9.21
8.97
8.58
8.10
7.58
6.94
6.06
4.95
3.66
2.39
1.31
0.45
-0.32
-1.27
-2.67
-4.72
-7.46
-10.74
-14.23
-17.51
-20.06
-21.36
-21.09
-19.16
-15.83
-11.62
-7.12
-2.85
0.93
4.18
6.98
9.40
11.41
12.90
13.79
14.07
13.85
13.33
12.74
12.26
11.94
11.76
11.59
11.31
10.87
10.32
9.78
9.34
9.03
8.70
8.14
7.18
5.77
4.06
2.26
0.60
-0.87
-2.19
-3.54
-5.07
-6.87
-8.99
-11.42
-14.14
-17.03
-19.83
-22.14
-23.49
-23.54
-22.15
-19.52
-16.06
-12.30
-8.73
-5.60
-2.93
-0.60
1.57
3.67
5.64
7.33
8.55
9.26
9.50
9.47
9.36
9.28
9.21
9.08
8.81
8.36
7.82
7.29
6.81
6.36
5.74
4.81
3.49
1.93
0.40
-0.81
-1.56
-2.08
-2.86
-4.49
-7.35
-11.37
-15.98
-20.19
-23.01
-23.76
-22.30
-18.96
-14.47
-9.58
-4.91
-0.80
2.62
5.36
7.44
8.85
9.59
9.67
9.25
8.54
7.77
7.09
6.51
5.99
5.44
4.85
4.31
3.94
3.82
3.87
3.87
3.53
2.63
1.16
-0.66
-2.48
-3.98
-5.08
-5.98
-7.13
-9.02
-11.93
-15.77
-20.03
-23.89
-26.51
-27.27
-25.90
-22.56
-17.74
-12.14
-6.47
-1.31
2.99
6.30
8.72
10.51
11.88
13.04
14.02
14.76
15.15
15.11
14.60
13.70
12.56
11.43
10.49
9.87
9.53
9.26
8.77
7.82
6.32
4.43
2.41
0.52
-1.12
-2.58
-4.07
-5.87
-8.23
-11.27
-14.94
-18.98
-22.88
-25.98
-27.61
-27.28
-24.87
-20.65
-15.23
-9.26
-3.36
2.11
6.96
11.11
14.47
16.97
18.56
19.35
19.57
19.49
19.33
19.18
18.97
18.63
18.09
17.46
16.85
16.37
16.00
15.66
15.21
14.59
13.79
12.85
11.71
10.31
8.54
6.37
3.88
1.24
-1.39
-3.88
-6.16
-8.24
-10.20
-12.22
-14.53
-17.47
-21.29
-26.17
-31.96
-38.24
-44.26
-49.10
-51.90
-51.96
-49.02
-43.21
-35.11
-25.59
-15.64
-6.13
2.35
9.60
15.76
21.02
25.54
29.22
31.92
33.53
34.18
34.19
33.99
33.85
33.87
33.98
34.10
34.24
34.53
34.98
35.49
35.71
35.30
33.99
31.79
28.94
25.86
22.95
20.48
18.53
16.94
15.40
13.53
11.06
7.92
4.32
0.65
-2.70
-5.60
-8.20
-10.93
-14.30
-18.72
-24.31
-30.84
-37.75
-44.13
-48.97
-51.34
-50.70
-46.99
-40.77
-33.02
-24.82
-17.03
-10.13
-4.14
1.07
5.68
9.72
13.13
15.89
18.04
19.76
21.24
22.61
23.83
24.74
25.19
25.12
24.69
24.19
23.91
24.03
24.45
24.92
25.04
24.50
23.18
21.27
19.13
17.18
15.63
14.38
13.03
11.15
8.53
5.22
1.66
-1.63
-4.29
-6.21
-7.68
-9.07
-10.86
-13.38
-16.88
-21.42
-26.81
-32.54
-37.73
-41.37
-42.55
-40.78
-36.18
-29.47
-21.67
-13.81
-6.63
-0.48
4.59
8.72
12.01
14.56
16.38
17.54
18.11
18.27
18.14
17.86
17.49
17.06
16.63
16.22
15.93
15.81
15.84
15.93
15.84
15.33
14.21
12.46
10.30
8.07
6.14
4.64
3.49
2.39
1.02
-0.77
-2.93
-5.27
-7.53
-9.55
-11.27
-12.77
-14.27
-16.08
-18.56
-21.90
-26.04
-30.45
-34.28
-36.56
-36.62
-34.30
-29.98
-24.36
-18.15
-11.87
-5.82
-0.16
4.93
9.22
12.52
14.72
15.87
16.14
15.70
14.74
13.48
12.20
11.19
10.70
10.81
11.31
11.84
12.01
11.65
10.81
9.77
8.82
8.06
7.38
6.48
5.11
3.14
0.72
-1.87
-4.28
-6.27
-7.74
-8.79
-9.58
-10.35
-11.41
-13.06
-15.52
-18.81
-22.66
-26.43
-29.35
-30.64
-29.83
-26.88
-22.20
-16.50
-10.55
-4.96
-0.08
4.03
7.47
10.37
12.80
14.68
15.89
16.32
16.04
15.30
14.46
13.85
13.60
13.61
13.66
13.50
13.04
12.31
11.45
10.59
9.78
8.99
8.15
7.15
5.98
4.64
3.13
1.53
-0.15
-1.87
-3.59
-5.25
-6.83
-8.34
-9.83
-11.47
-13.51
-16.17
-19.52
-23.33
-27.07
-29.99
-31.38
-30.76
-28.12
-23.81
-18.44
-12.67
-7.03
-1.79
2.90
6.99
10.37
12.92
14.53
15.18
15.04
14.39
13.62
13.02
12.79
12.89
13.18
13.43
13.45
13.13
12.47
11.51
10.40
9.23
8.11
7.10
6.19
5.37
4.54
3.67
2.68
1.48
0.07
-1.52
-3.20
-4.83
-6.34
-7.75
-9.24
-11.10
-13.57
-16.70
-20.21
-23.51
-25.84
-26.60
-25.48
-22.58
-18.30
-13.21
-7.89
-2.72
1.99
6.13
9.63
12.45
14.54
15.79
16.15
15.64
14.45
12.98
11.69
10.98
10.98
11.49
12.09
12.35
11.98
11.04
9.79
8.53
7.49
6.65
5.88
5.01
3.94
2.73
1.51
0.41
-0.55
-1.39
-2.23
-3.16
-4.19
-5.31
-6.52
-7.90
-9.60
-11.88
-14.84
-18.34
-21.87
-24.70
-26.07
-25.47
-22.89
-18.78
-13.91
-9.06
-4.77
-1.20
1.68
4.10
6.16
7.86
9.15
9.95
10.32
10.36
10.26
10.10
9.92
9.65
9.20
8.57
7.85
7.18
6.74
6.62
6.86
7.37
7.96
8.44
8.60
8.26
7.35
5.97
4.28
2.48
0.75
-0.83
-2.30
-3.75
-5.36
-7.41
-10.13
-13.67
-17.87
-22.23
-25.94
-28.18
-28.41
-26.51
-22.89
-18.22
-13.23
-8.41
-4.05
-0.21
3.01
5.57
7.37
8.42
8.81
8.76
8.50
8.23
8.06
8.00
7.99
7.93
7.79
7.60
7.48
7.58
8.02
8.71
9.41
9.76
9.42
8.27
6.39
4.12
1.86
-0.03
-1.42
-2.44
-3.38
-4.64
-6.59
-9.42
-13.07
-17.23
-21.25
-24.43
-26.09
-25.85
-23.69
-19.94
-15.14
-9.85
-4.52
0.54
5.06
8.81
11.55
13.15
13.66
13.33
12.53
11.64
10.90
10.43
10.21
10.18
10.26
10.32
10.25
9.93
9.28
8.35
7.29
6.22
5.28
4.42
3.49
2.33
0.89
-0.81
-2.55
-4.08
-5.28
-6.18
-7.02
-8.21
-10.14
-13.05
-16.91
-21.36
-25.74
-29.27
-31.23
-31.12
-28.87
-24.77
-19.42
-13.53
-7.79
-2.68
1.52
4.75
7.09
8.75
9.97
10.95
11.84
12.71
13.51
14.19
14.69
14.99
15.10
15.02
14.76
14.32
13.73
13.03
12.30
11.59
10.89
10.16
9.34
8.39
7.32
6.17
4.93
3.58
2.09
0.47
-1.20
-2.85
-4.52
-6.35
-8.64
-11.66
-15.44
-19.61
-23.47
-26.17
-27.05
-25.80
-22.62
-18.06
-12.77
-7.36
-2.21
2.49
6.68
10.32
13.41
15.95
17.96
19.52
20.65
21.41
21.75
21.67
21.21
20.52
19.85
19.44
19.46
19.88
20.48
20.87
20.68
19.66
17.81
15.33
12.62
10.08
7.98
6.51
5.60
5.10
4.73
4.22
3.38
2.03
0.24
-1.90
-4.12
-6.16
-7.76
-8.88
-9.62
-10.22
-10.88
-11.59
-12.17
-12.36
-12.08
-11.66
-11.85
-13.49
-17.07
-22.37
-28.37
-33.59
-36.73
-37.22
-35.28
-31.70
-27.33
-22.64
-17.61
-12.06
-6.01
0.11
5.53
9.50
11.68
12.29
11.97
11.40
11.04
10.93
10.82
10.39
9.52
8.34
7.20
6.53
6.58
7.33
8.45
9.38
9.55
8.60
6.52
3.67
0.59
-2.22
-4.48
-6.19
-7.56
-8.86
-10.31
-12.02
-14.09
-16.62
-19.61
-22.93
-26.20
-28.77
-29.94
-29.19
-26.38
-21.84
-16.23
-10.32
-4.74
0.16
4.32
7.79
10.64
12.83
14.33
15.10
15.18
14.72
13.89
12.83
11.63
10.38
9.14
8.03
7.16
6.59
6.29
6.10
5.82
5.27
4.34
3.03
1.43
-0.33
-2.14
-3.94
-5.82
-8.00
-10.72
-14.29
-18.81
-24.06
-29.50
-34.35
-37.74
-39.06
-38.03
-34.75
-29.64
-23.26
-16.22
-9.09
-2.31
3.91
9.51
14.56
19.10
23.00
25.96
27.65
27.96
27.11
25.69
24.35
23.51
23.22
23.13
22.84
22.11
21.01
19.84
18.92
18.24
17.52
16.33
14.28
11.31
7.65
3.80
0.17
-3.03
-5.97
-8.99
-12.48
-16.63
-21.47
-26.77
-32.25
-37.58
-42.33
-45.95
-47.69
-46.86
-42.94
-35.87
-26.21
-14.90
-2.90
9.16
20.94
32.11
41.84
48.76
51.44
49.11
42.43
33.40
24.67
18.45
15.52
15.23
16.03
16.57
16.30
15.49
14.76
14.49
14.55
14.50
13.92
12.73
11.15
9.51
8.05
6.77
5.41
3.74
1.61
-0.97
-3.83
-6.68
-9.35
-11.82
-14.40
-17.46
-21.33
-26.04
-31.12
-35.76
-38.96
-39.92
-38.28
-34.24
-28.41
-21.62
-14.61
-7.94
-1.88
3.52
8.33
12.56
16.18
19.14
21.35
22.84
23.65
23.94
23.87
23.56
23.09
22.52
21.90
21.28
20.71
20.19
19.64
19.01
18.23
17.28
16.15
14.83
13.30
11.49
9.31
6.73
3.76
0.55
-2.68
-5.69
-8.30
-10.48
-12.39
-14.43
-17.06
-20.61
-25.14
-30.27
-35.23
-39.02
-40.77
-39.93
-36.49
-30.85
-23.70
-15.85
-8.08
-1.03
4.85
9.32
12.42
14.41
15.65
16.47
17.06
17.48
17.74
17.87
17.94
17.95
17.85
17.54
16.95
16.18
15.43
14.89
14.60
14.35
13.71
12.26
9.79
6.43
2.61
-1.14
-4.40
-7.04
-9.21
-11.30
-13.79
-17.05
-21.27
-26.23
-31.39
-35.90
-38.85
-39.49
-37.47
-33.00
-26.69
-19.41
-11.96
-4.86
1.64
7.51
12.76
17.33
21.12
23.98
25.88
26.89
27.18
26.99
26.60
26.20
25.86
25.49
24.93
24.00
22.67
21.12
19.69
18.63
18.01
17.55
16.75
15.18
12.58
9.10
5.15
1.27
-2.13
-4.81
-6.83
-8.45
-10.13
-12.52
-16.17
-21.41
-27.98
-35.04
-41.20
-44.96
-45.22
-41.64
-34.75
-25.70
-15.86
-6.36
2.01
8.91
14.28
18.18
20.69
21.98
22.27
21.88
21.21
20.68
20.66
21.30
22.51
23.93
24.99
25.17
24.23
22.28
19.80
17.37
15.39
13.96
12.80
11.54
9.87
7.76
5.45
3.23
1.36
-0.18
-1.61
-3.27
-5.50
-8.51
-12.37
-17.00
-22.18
-27.49
-32.32
-35.95
-37.64
-36.94
-33.77
-28.51
-21.86
-14.69
-7.70
-1.36
4.12
8.67
12.28
14.92
16.56
17.23
17.13
16.63
16.17
16.09
16.50
17.23
17.90
18.17
17.88
17.11
16.12
15.14
14.21
13.15
11.73
9.72
7.19
4.38
1.70
-0.53
-2.17
-3.37
-4.47
-5.90
-8.05
-11.15
-15.27
-20.25
-25.70
-31.03
-35.49
-38.31
-38.86
-36.82
-32.30
-25.78
-17.99
-9.76
-1.79
5.39
11.46
16.27
19.76
22.02
23.18
23.47
23.22
22.73
22.30
22.06
21.99
21.86
21.41
20.43
18.93
17.14
15.39
14.00
13.09
12.48
11.81
10.65
8.74
6.05
2.79
-0.67
-3.95
-6.77
-9.02
-10.74
-12.18
-13.70
-15.77
-18.76
-22.77
-27.46
-32.10
-35.67
-37.28
-36.42
-33.13
-27.93
-21.54
-14.65
-7.83
-1.47
4.12
8.68
12.06
14.28
15.56
16.27
16.71
17.10
17.42
17.61
17.56
17.30
16.93
16.58
16.28
15.98
15.58
14.96
14.11
13.03
11.75
10.24
8.44
6.31
3.94
1.47
-0.85
-2.83
-4.41
-5.67
-6.82
-8.15
-9.94
-12.50
-15.97
-20.29
-25.08
-29.64
-33.07
-34.54
-33.54
-30.07
-24.62
-18.04
-11.22
-4.86
0.61
5.10
8.63
11.31
13.19
14.30
14.74
14.63
14.20
13.67
13.17
12.71
12.21
11.63
11.00
10.43
10.07
9.94
9.88
9.64
8.91
7.54
5.52
3.07
0.48
-1.96
-4.04
-5.71
-7.10
-8.46
-10.19
-12.65
-16.10
-20.52
-25.47
-30.19
-33.75
-35.31
-34.42
-31.09
-25.85
-19.49
-12.81
-6.47
-0.83
3.97
7.98
11.27
13.86
15.75
16.88
17.29
17.15
16.70
16.22
15.88
15.66
15.40
14.92
14.14
13.16
12.20
11.41
10.77
10.02
8.83
6.97
4.44
1.47
-1.56
-4.41
-6.98
-9.40
-11.90
-14.78
-18.27
-22.51
-27.40
-32.59
-37.42
-41.03
-42.60
-41.60
-38.01
-32.30
-25.28
-17.82
-10.59
-3.97
1.91
7.07
11.59
15.47
18.72
21.29
23.12
24.17
24.49
24.26
23.76
23.27
22.96
22.78
22.58
22.12
21.29
20.14
18.86
17.58
16.33
14.93
13.18
10.94
8.24
5.31
2.39
-0.33
-2.77
-4.95
-7.02
-9.13
-11.54
-14.51
-18.26
-22.78
-27.76
-32.56
-36.33
-38.26
-37.84
-34.96
-29.97
-23.51
-16.31
-9.08
-2.30
3.69
8.75
12.87
16.04
18.33
19.79
20.55
20.80
20.76
20.64
20.58
20.63
20.74
20.88
21.01
21.15
21.31
21.45
21.48
21.22
20.58
19.55
18.21
16.67
15.04
13.29
11.30
8.94
6.16
3.02
-0.31
-3.57
-6.55
-9.11
-11.24
-13.06
-14.84
-16.95
-19.78
-23.57
-28.20
-33.13
-37.40
-39.93
-39.84
-36.85
-31.27
-23.96
-15.99
-8.32
-1.59
3.90
8.12
11.21
13.35
14.77
15.72
16.38
16.84
17.11
17.15
16.96
16.64
16.35
16.24
16.32
16.52
16.67
16.65
16.41
15.97
15.37
14.55
13.41
11.85
9.83
7.41
4.73
1.95
-0.74
-3.20
-5.28
-6.99
-8.48
-10.08
-12.29
-15.50
-19.88
-25.13
-30.48
-34.89
-37.30
-37.01
-33.79
-28.02
-20.48
-12.17
-4.08
2.99
8.55
12.48
14.87
16.03
16.29
15.91
15.10
14.03
12.91
12.02
11.61
11.77
12.38
13.11
13.62
13.74
13.56
13.34
13.32
13.49
13.58
13.13
11.73
9.19
5.69
1.64
-2.40
-5.90
-8.50
-10.12
-10.92
-11.35
-11.97
-13.37
-15.98
-19.96
-25.08
-30.82
-36.34
-40.73
-43.14
-42.97
-40.11
-34.85
-27.92
-20.25
-12.74
-6.05
-0.46
4.08
7.78
10.85
13.41
15.45
16.93
17.82
18.12
17.78
16.70
14.76
11.96
8.58
5.18
2.49
1.13
1.28
2.63
4.39
5.62
5.58
3.97
0.96
-2.91
-6.98
-10.73
-13.91
-16.60
-19.10
-21.76
-24.79
-28.14
-31.44
-34.13
-35.59
-35.36
-33.19
-29.06
-23.14
-15.79
-7.57
0.76
8.42
14.77
19.53
22.81
25.03
26.60
27.72
28.33
28.22
27.36
25.97
24.54
23.51
23.11
23.23
23.47
23.44
22.92
21.97
20.83
19.72
18.73
17.69
16.32
14.33
11.66
8.50
5.26
2.35
0.01
-1.84
-3.49
-5.36
-7.82
-11.06
-15.14
-19.90
-25.00
-29.85
-33.66
-35.64
-35.18
-32.11
-26.79
-20.00
-12.71
-5.81
0.14
4.93
8.68
11.60
13.91
15.68
16.86
17.41
17.38
17.03
16.71
16.79
17.40
18.41
19.43
20.00
19.87
19.02
17.75
16.47
15.52
14.96
14.58
14.06
13.15
11.80
10.16
8.38
6.48
4.24
1.36
-2.31
-6.56
-10.86
-14.57
-17.31
-19.23
-20.95
-23.30
-26.78
-31.27
-35.88
-39.31
-40.30
-38.15
-33.05
-25.89
-17.95
-10.39
-3.88
1.40
5.66
9.14
11.93
13.95
15.10
15.42
15.15
14.69
14.42
14.52
15.01
15.74
16.53
17.24
17.79
18.13
18.24
18.08
17.65
16.94
15.97
14.69
13.09
11.09
8.72
6.03
3.15
0.18
-2.78
-5.65
-8.41
-11.06
-13.64
-16.27
-19.15
-22.49
-26.31
-30.37
-34.13
-36.84
-37.77
-36.49
-33.05
-27.88
-21.67
-15.12
-8.74
-2.82
2.50
7.13
10.94
13.81
15.66
16.57
16.76
16.51
16.05
15.54
15.02
14.50
14.02
13.68
13.59
13.80
14.23
14.62
14.68
14.13
12.91
11.19
9.26
7.44
5.85
4.40
2.86
0.96
-1.39
-4.08
-6.86
-9.44
-11.64
-13.38
-14.80
-16.14
-17.75
-19.97
-22.98
-26.75
-30.83
-34.45
-36.69
-36.75
-34.27
-29.44
-22.91
-15.57
-8.26
-1.62
4.03
8.51
11.72
13.57
14.11
13.56
12.41
11.33
10.93
11.56
13.12
15.17
17.13
18.54
19.19
19.14
18.59
17.78
16.88
16.00
15.21
14.48
13.67
12.52
10.70
8.02
4.55
0.61
-3.31
-6.72
-9.36
-11.24
-12.64
-13.94
-15.53
-17.75
-20.74
-24.39
-28.26
-31.60
-33.56
-33.41
-30.91
-26.37
-20.56
-14.34
-8.42
-3.08
1.72
6.06
9.89
12.93
14.86
15.57
15.32
14.65
14.21
14.41
15.27
16.50
17.74
18.72
19.41
19.96
20.44
20.81
20.93
20.60
19.77
18.42
16.65
14.52
12.07
9.38
6.55
3.78
1.24
-0.99
-2.94
-4.79
-6.82
-9.36
-12.69
-16.87
-21.70
-26.59
-30.69
-33.09
-33.14
-30.66
-25.99
-19.89
-13.24
-6.82
-1.11
3.61
7.33
10.06
11.87
12.85
13.16
13.00
12.62
12.23
11.97
11.84
11.75
11.59
11.30
10.94
10.66
10.62
10.91
11.45
12.00
12.21
11.79
10.59
8.68
6.29
3.71
1.15
-1.29
-3.62
-5.96
-8.46
-11.28
-14.62
-18.58
-23.06
-27.60
-31.48
-33.82
-33.94
-31.64
-27.19
-21.28
-14.72
-8.17
-2.07
3.29
7.68
10.88
12.77
13.38
13.04
12.23
11.46
11.07
11.17
11.59
12.05
12.29
12.16
11.67
10.95
10.15
9.39
8.71
8.03
7.24
6.23
4.90
3.25
1.37
-0.65
-2.68
-4.71
-6.85
-9.29
-12.26
-15.87
-19.95
-24.03
-27.41
-29.38
-29.48
-27.61
-24.06
-19.37
-14.08
-8.70
-3.55
1.13
5.17
8.36
10.55
11.69
11.89
11.46
10.77
10.20
10.01
10.26
10.84
11.58
12.26
12.75
13.07
13.26
13.40
13.44
13.25
12.58
11.23
9.12
6.35
3.19
0.01
-2.85
-5.20
-7.07
-8.66
-10.35
-12.55
-15.57
-19.43
-23.80
-27.93
-30.91
-31.94
-30.61
-27.04
-21.78
-15.60
-9.24
-3.21
2.19
6.79
10.47
13.14
14.75
15.41
15.38
14.96
14.50
14.25
14.38
14.92
15.74
16.58
17.10
17.08
16.47
15.50
14.47
13.64
13.00
12.31
11.26
9.66
7.56
5.18
2.78
0.45
-1.82
-4.14
-6.56
-9.10
-11.80
-14.81
-18.36
-22.55
-27.19
-31.65
-35.03
-36.42
-35.28
-31.54
-25.73
-18.62
-11.14
-4.03
2.17
7.22
11.15
14.11
16.34
18.05
19.38
20.36
20.97
21.24
21.29
21.26
21.33
21.53
21.80
21.98
21.90
21.47
20.71
19.70
18.56
17.38
16.22
15.04
13.78
12.35
10.69
8.79
6.68
4.39
1.95
-0.65
-3.47
-6.52
-9.74
-12.96
-16.05
-18.97
-21.92
-25.28
-29.36
-34.13
-39.00
-42.89
-44.60
-43.25
-38.65
-31.45
-22.83
-14.11
-6.25
0.23
5.34
9.29
12.35
14.63
16.19
17.06
17.35
17.25
17.00
16.78
16.71
16.82
17.12
17.58
18.20
18.93
19.67
20.30
20.69
20.69
20.19
19.15
17.59
15.63
13.42
11.08
8.65
6.06
3.23
0.14
-3.05
-6.02
-8.55
-10.60
-12.47
-14.73
-17.94
-22.29
-27.40
-32.39
-36.09
-37.51
-36.17
-32.22
-26.29
-19.25
-11.93
-4.94
1.29
6.53
10.64
13.61
15.52
16.55
16.97
16.99
16.83
16.64
16.57
16.66
16.86
17.01
16.92
16.44
15.64
14.71
13.91
13.37
12.97
12.40
11.27
9.33
6.59
3.33
-0.07
-3.27
-6.07
-8.46
-10.53
-12.49
-14.56
-17.04
-20.17
-24.05
-28.49
-32.96
-36.63
-38.67
-38.44
-35.74
-30.82
-24.27
-16.85
-9.21
-1.91
4.73
10.48
15.22
18.92
21.58
23.30
24.21
24.52
24.48
24.27
24.03
23.75
23.37
22.83
22.17
21.55
21.15
21.11
21.36
21.67
21.68
21.12
19.84
17.98
15.79
13.55
11.43
9.43
7.42
5.21
2.68
-0.15
-3.15
-6.09
-8.75
-11.00
-12.87
-14.57
-16.48
-19.02
-22.54
-27.11
-32.43
-37.79
-42.24
-44.81
-44.80
-42.00
-36.74
-29.77
-22.03
-14.37
-7.32
-1.11
4.23
8.75
12.49
15.46
17.70
19.33
20.49
21.29
21.78
21.97
21.84
21.48
21.05
20.71
20.54
20.46
20.24
19.67
18.61
17.13
15.40
13.70
12.17
10.79
9.38
7.72
5.64
3.13
0.33
-2.54
-5.29
-7.81
-10.13
-12.34
-14.57
-16.98
-19.81
-23.22
-27.26
-31.62
-35.65
-38.43
-39.08
-37.11
-32.62
-26.30
-19.17
-12.23
-6.17
-1.25
2.70
6.04
9.18
12.35
15.60
18.77
21.54
23.64
24.85
25.16
24.66
23.57
22.16
20.67
19.32
18.28
17.63
17.33
17.25
17.16
16.85
16.19
15.13
13.75
12.15
10.41
8.54
6.51
4.25
1.82
-0.66
-3.02
-5.08
-6.81
-8.38
-10.17
-12.65
-16.24
-21.04
-26.65
-32.20
-36.57
-38.71
-38.00
-34.44
-28.62
-21.52
-14.19
-7.51
-2.04
2.02
4.76
6.44
7.44
8.09
8.68
9.41
10.40
11.67
13.15
14.68
16.02
16.98
17.41
17.35
16.95
16.40
15.86
15.36
14.84
14.17
13.21
11.79
9.85
7.37
4.42
1.25
-1.82
-4.48
-6.56
-8.14
-9.54
-11.25
-13.71
-17.11
-21.22
-25.46
-29.03
-31.17
-31.36
-29.50
-25.86
-21.01
-15.57
-10.12
-5.04
-0.53
3.32
6.48
8.89
10.52
11.34
11.46
11.08
10.47
9.88
9.47
9.29
9.24
9.19
9.03
8.74
8.33
7.82
7.22
6.42
5.34
3.90
2.10
0.05
-2.11
-4.20
-6.10
-7.77
-9.35
-11.17
-13.59
-16.90
-21.05
-25.61
-29.75
-32.53
-33.13
-31.22
-26.96
-20.97
-14.11
-7.25
-1.06
4.12
8.21
11.32
13.64
15.33
16.48
17.17
17.46
17.48
17.35
17.19
17.00
16.69
16.18
15.42
14.44
13.38
12.40
11.53
10.67
9.63
8.22
6.39
4.22
1.95
-0.19
-2.07
-3.69
-5.21
-6.80
-8.65
-10.95
-13.90
-17.62
-22.10
-27.04
-31.75
-35.29
-36.74
-35.51
-31.57
-25.47
-18.14
-10.64
-3.76
2.06
6.77
10.57
13.72
16.39
18.56
20.06
20.71
20.46
19.50
18.21
17.01
16.15
15.69
15.50
15.41
15.34
15.30
15.32
15.34
15.21
14.71
13.73
12.28
10.47
8.50
6.46
4.38
2.18
-0.13
-2.56
-4.97
-7.30
-9.54
-11.85
-14.50
-17.78
-21.84
-26.55
-31.35
-35.45
-37.94
-38.11
-35.70
-30.97
-24.65
-17.70
-10.98
-5.06
-0.12
3.94
7.34
10.22
12.59
14.37
15.51
16.06
16.21
16.24
16.42
16.87
17.57
18.38
19.16
19.79
20.27
20.63
20.88
21.03
20.94
20.49
19.53
17.98
15.84
13.22
10.30
7.21
4.14
1.12
-1.77
-4.46
-6.84
-8.83
-10.45
-11.89
-13.52
-15.78
-19.00
-23.18
-27.95
-32.57
-36.13
-37.82
-37.15
-34.11
-29.08
-22.78
-16.00
-9.44
-3.53
1.58
5.94
9.61
12.66
15.00
16.54
17.23
17.19
16.69
16.07
15.61
15.44
15.51
15.68
15.81
15.83
15.79
15.75
15.76
15.79
15.74
15.46
14.79
13.64
11.97
9.84
7.42
4.97
2.75
0.97
-0.33
-1.27
-2.14
-3.29
-5.06
-7.72
-11.46
-16.26
-21.85
-27.67
-32.83
-36.45
-37.78
-36.55
-32.98
-27.72
-21.56
-15.17
-9.00
-3.23
2.05
6.73
10.66
13.62
15.47
16.15
15.79
14.57
12.81
10.86
9.10
7.78
7.10
7.05
7.55
8.48
9.69
11.06
12.41
13.43
13.74
13.00
11.07
8.12
4.65
1.25
-1.59
-3.74
-5.38
-6.92
-8.85
-11.49
-15.05
-19.45
-24.38
-29.31
-33.52
-36.24
-36.86
-35.10
-31.12
-25.51
-19.03
-12.47
-6.39
-1.11
3.30
6.90
9.82
12.18
14.03
15.45
16.50
17.30
17.93
18.50
19.03
19.43
19.61
19.44
18.86
17.91
16.76
15.64
14.76
14.16
13.64
12.85
11.38
8.96
5.64
1.76
-2.16
-5.64
-8.45
-10.61
-12.34
-13.98
-15.86
-18.35
-21.72
-26.04
-31.03
-35.99
-39.93
-41.80
-40.91
-37.23
-31.33
-24.22
-16.96
-10.31
-4.56
0.40
4.83
8.93
12.74
16.12
18.93
21.05
22.50
23.39
23.86
23.99
23.81
23.31
22.54
21.60
20.67
19.95
19.57
19.59
19.96
20.55
21.10
21.25
20.50
18.43
14.83
9.91
4.24
-1.33
-6.06
-9.50
-11.74
-13.22
-14.57
-16.30
-18.75
-22.00
-26.05
-30.70
-35.48
-39.63
-42.18
-42.23
-39.31
-33.63
-26.07
-17.84
-10.10
-3.60
1.45
5.22
8.04
10.20
11.88
13.17
14.14
14.90
15.55
16.17
16.79
17.46
18.23
19.12
20.11
21.13
22.03
22.66
22.96
22.88
22.35
21.17
19.13
16.07
12.07
7.50
2.95
-0.99
-3.99
-6.06
-7.50
-8.64
-9.72
-10.86
-12.17
-13.91
-16.48
-20.12
-24.70
-29.49
-33.38
-35.26
-34.49
-31.16
-26.04
-20.20
-14.50
-9.37
-4.77
-0.41
3.90
8.18
12.23
15.78
18.68
20.90
22.53
23.68
24.43
24.88
25.09
25.15
25.11
24.88
24.36
23.38
21.89
20.01
17.97
16.03
14.33
12.86
11.48
10.07
8.57
7.04
5.44
3.70
1.63
-0.96
-4.12
-7.71
-11.47
-15.15
-18.71
-22.27
-26.00
-29.92
-33.68
-36.63
-38.03
-37.28
-34.17
-28.99
-22.39
-15.19
-8.18
-1.96
3.07
6.74
9.07
10.23
10.55
10.38
10.04
9.79
9.72
9.91
10.36
11.06
12.00
13.12
14.32
15.44
16.30
16.77
16.74
16.17
15.12
13.67
11.96
10.14
8.34
6.58
4.85
3.03
1.06
-1.06
-3.20
-5.21
-6.99
-8.60
-10.29
-12.47
-15.49
-19.44
-24.05
-28.62
-32.26
-34.11
-33.67
-30.92
-26.38
-20.78
-14.91
-9.22
-3.95
0.89
5.23
8.90
11.63
13.23
13.70
13.35
12.66
12.04
11.75
11.79
12.00
12.19
12.20
11.98
11.53
10.90
10.15
9.38
8.62
7.86
6.95
5.70
3.98
1.84
-0.48
-2.64
-4.38
-5.73
-7.02
-8.71
-11.31
-14.95
-19.38
-23.92
-27.77
-30.11
-30.45
-28.67
-24.98
-19.84
-13.83
-7.54
-1.47
4.00
8.63
12.24
14.75
16.17
16.62
16.32
15.63
14.90
14.39
14.17
14.11
14.06
13.91
13.70
13.53
13.52
13.62
13.65
13.36
12.57
11.19
9.29
7.01
4.45
1.71
-1.12
-3.87
-6.35
-8.35
-9.86
-11.13
-12.68
-15.11
-18.73
-23.38
-28.36
-32.59
-35.01
-34.93
-32.25
-27.45
-21.32
-14.70
-8.27
-2.36
2.95
7.65
11.74
15.13
17.69
19.37
20.29
20.70
20.95
21.31
21.89
22.67
23.51
24.31
25.03
25.69
26.28
26.69
26.63
25.72
23.63
20.15
15.31
9.38
2.80
-3.88
-10.14
-15.53
-19.73
-22.61
-24.25
-24.98
-25.30
-25.79
-27.02
-29.39
-32.98
-37.61
-42.72
-47.43
-50.74
-51.70
-49.75
-44.95
-38.04
-30.18
-22.51
-15.67
-9.73
-4.31
0.96
6.11
10.69
14.08
15.89
16.26
15.85
15.46
15.69
16.60
17.81
18.88
19.58
20.01
20.48
21.28
22.46
23.85
25.13
26.03
26.39
26.25
25.73
24.99
24.20
23.53
23.13
23.13
23.55
24.38
25.51
26.79
27.90
28.49
28.00
25.91
21.90
16.14
9.43
2.99
-1.77
-3.80
-2.72
1.04
6.46
12.20
17.05
20.22
21.48
21.09
19.61
17.65
15.65
13.72
11.72
9.36
6.39
2.60
-2.06
-7.65
-14.19
-21.64
-29.70
-37.89
-45.57
-52.08
-57.04
-60.31
-62.04
-62.47
-61.79
-60.12
-57.43
-53.78
-49.29
-44.26
-39.01
-33.85
-28.94
-24.32
-20.01
-16.11
-12.87
-10.63
-9.65
-9.88
-10.90
-11.97
-12.29
-11.24
-8.66
-4.78
-0.14
4.62
9.03
12.76
15.74
17.94
19.35
19.94
19.67
18.68
17.29
16.05
15.45
15.79
16.91
18.33
19.43
19.86
19.69
19.39
19.56
20.57
22.36
24.47
26.28
27.34
27.50
26.93
25.92
24.75
23.49
22.11
20.46
18.35
15.56
11.79
6.83
0.64
-6.45
-13.71
-20.17
-24.88
-27.29
-27.34
-25.44
-22.29
-18.58
-14.81
-11.26
-8.03
-5.12
-2.49
-0.11
2.06
4.03
5.83
7.42
8.84
10.06
11.12
12.00
12.69
13.15
13.41
13.51
13.48
13.37
13.10
12.61
11.78
10.48
8.59
6.03
2.80
-0.94
-5.00
-9.17
-13.37
-17.67
-22.06
-26.37
-30.12
-32.56
-33.01
-31.19
-27.27
-21.86
-15.75
-9.55
-3.64
1.79
6.54
10.37
12.99
14.23
14.17
13.10
11.41
9.43
7.43
5.55
3.93
2.60
1.52
0.54
-0.54
-1.86
-3.36
-4.81
-5.90
-6.46
-6.55
-6.45
-6.56
-7.26
-8.77
-11.10
-14.13
-17.53
-20.80
-23.28
-24.25
-23.18
-19.91
-14.68
-8.16
-1.08
5.94
12.55
18.59
23.92
28.32
31.44
33.02
33.01
31.69
29.55
27.11
24.75
22.68
20.91
19.35
17.89
16.43
14.89
13.31
11.88
10.85
10.45
10.62
10.90
10.47
8.45
4.22
-2.31
-10.72
-20.21
-29.87
-38.92
-46.61
-52.31
-55.33
-55.13
-51.49
-44.75
-35.85
-26.07
-16.69
-8.54
-1.82
3.76
8.66
13.22
17.39
20.89
23.44
24.93
25.58
25.78
25.93
26.21
26.60
26.87
26.81
26.26
25.14
23.38
20.91
17.66
13.66
9.16
4.68
0.77
-2.14
-4.11
-5.72
-7.96
-11.83
-17.88
-25.95
-35.09
-43.84
-50.59
-54.06
-53.48
-48.85
-40.88
-30.80
-20.12
-10.23
-2.15
3.75
7.57
9.78
10.87
11.23
11.03
10.37
9.29
7.91
6.38
4.83
3.43
2.36
1.82
2.01
3.06
4.93
7.29
9.65
11.42
12.11
11.53
9.85
7.58
5.35
3.68
2.82
2.67
2.86
2.84
1.99
-0.26
-4.37
-10.42
-18.00
-26.16
-33.56
-38.81
-40.90
-39.49
-34.99
-28.30
-20.49
-12.49
-4.95
1.71
7.22
11.48
14.59
16.86
18.82
21.08
24.07
27.96
32.47
37.05
41.05
43.97
45.57
45.93
45.39
44.40
43.40
42.65
42.13
41.53
40.37
38.13
34.54
29.65
23.80
17.52
11.27
5.41
0.13
-4.44
-8.09
-10.65
-11.99
-12.24
-11.75
-11.09
-10.86
-11.59
-13.69
-17.40
-22.79
-29.70
-37.70
-46.03
-53.68
-59.54
-62.63
-62.27
-58.27
-50.93
-41.02
-29.67
-18.14
-7.60
1.14
7.83
12.84
17.11
21.81
28.00
36.32
46.72
58.40
69.79
78.95
84.06
84.10
79.32
71.28
62.42
55.12
50.97
50.19
51.83
54.34
56.27
56.77
55.71
53.45
50.44
46.95
43.04
38.59
33.54
28.01
22.29
16.90
12.24
8.55
5.72
3.41
1.20
-1.27
-4.21
-7.74
-11.96
-16.81
-22.01
-26.88
-30.49
-31.96
-30.77
-27.05
-21.48
-15.01
-8.46
-2.28
3.41
8.66
13.47
17.72
21.25
24.04
26.26
28.18
29.98
31.63
32.80
33.04
32.00
29.70
26.58
23.32
20.62
18.90
18.19
18.20
18.48
18.64
18.38
17.56
16.09
14.01
11.45
8.60
5.63
2.53
-0.92
-5.16
-10.52
-17.05
-24.29
-31.46
-37.74
-42.71
-46.47
-49.62
-53.02
-57.30
-62.63
-68.62
-74.42
-78.91
-81.13
-80.56
-77.31
-72.12
-66.05
-60.14
-55.00
-50.72
-46.97
-43.40
-39.88
-36.55
-33.71
-31.54
-29.95
-28.62
-27.17
-25.41
-23.37
-21.26
-19.35
-17.76
-16.52
-15.63
-15.18
-15.39
-16.52
-18.60
-21.48
-24.81
-28.24
-31.59
-35.01
-38.80
-43.32
-48.79
-55.09
-61.76
-68.04
-72.92
-75.46
-75.02
-71.58
-65.91
-59.42
-53.71
-50.00
-48.57
-48.72
-49.04
-47.95
-44.23
-37.43
-27.82
-16.20
-3.67
8.74
20.17
30.06
38.08
44.13
48.21
50.50
51.27
50.96
50.11
49.30
48.86
48.82
48.85
48.41
47.11
44.90
42.12
39.36
37.17
35.73
34.86
34.06
32.82
30.86
28.19
25.03
21.64
18.20
14.82
11.55
8.41
5.39
2.33
-1.01
-4.88
-9.28
-13.82
-17.75
-20.20
-20.52
-18.59
-14.86
-10.11
-5.11
-0.38
3.95
7.97
11.77
15.25
18.12
20.06
20.88
20.60
19.52
18.03
16.52
15.18
14.06
13.04
11.99
10.83
9.66
8.64
7.97
7.76
7.94
8.33
8.63
8.54
7.85
6.50
4.56
2.15
-0.67
-3.92
-7.66
-11.80
-16.04
-19.77
-22.22
-22.78
-21.20
-17.77
-13.14
-8.20
-3.64
0.14
3.16
5.66
7.93
10.05
11.92
13.25
13.78
13.40
12.30
10.83
9.40
8.30
7.61
7.24
7.01
6.74
6.27
5.47
4.29
2.73
0.96
-0.80
-2.32
-3.48
-4.37
-5.22
-6.34
-8.06
-10.56
-13.88
-17.85
-22.02
-25.65
-27.90
-28.08
-25.91
-21.64
-15.98
-9.79
-3.79
1.66
6.51
10.81
14.56
17.58
19.63
20.55
20.39
19.46
18.12
16.78
15.64
14.75
13.97
13.15
12.17
11.00
9.71
8.37
7.05
5.77
4.53
3.33
2.13
0.82
-0.82
-3.11
-6.38
-10.80
-16.14
-21.79
-26.77
-30.06
-30.86
-28.88
-24.30
-17.81
-10.34
-2.84
3.87
9.27
13.18
15.74
17.22
17.94
18.06
17.66
16.76
15.49
14.10
12.91
12.16
11.84
11.73
11.53
11.00
10.10
8.99
7.83
6.72
5.61
4.33
2.72
0.70
-1.74
-4.61
-7.89
-11.52
-15.29
-18.78
-21.42
-22.60
-21.99
-19.55
-15.58
-10.63
-5.31
-0.15
4.46
8.26
11.19
13.26
14.65
15.54
16.11
16.47
16.63
16.56
16.20
15.51
14.55
13.41
12.29
11.37
10.73
10.31
9.89
9.19
7.96
6.12
3.80
1.23
-1.38
-3.88
-6.24
-8.52
-10.86
-13.46
-16.56
-20.26
-24.36
-28.23
-30.93
-31.47
-29.24
-24.27
-17.25
-9.29
-1.47
5.45
11.14
15.57
18.82
20.87
21.66
21.23
19.83
17.90
15.99
14.50
13.64
13.31
13.30
13.31
13.16
12.79
12.21
11.58
11.01
10.59
10.25
9.74
8.73
6.96
4.42
1.39
-1.65
-4.25
-6.20
-7.64
-9.00
-10.81
-13.53
-17.29
-21.88
-26.69
-30.82
-33.30
-33.30
-30.45
-24.98
-17.68
-9.72
-2.22
4.03
8.67
11.76
13.56
14.37
14.50
14.20
13.73
13.33
13.16
13.29
13.64
14.08
14.45
14.70
14.82
14.82
14.74
14.61
14.46
14.26
13.93
13.30
12.14
10.23
7.58
4.34
0.90
-2.32
-5.01
-7.05
-8.56
-9.85
-11.35
-13.46
-16.51
-20.56
-25.27
-29.90
-33.44
-34.86
-33.47
-29.17
-22.48
-14.43
-6.17
1.30
7.36
11.83
14.84
16.63
17.46
17.58
17.24
16.67
16.14
15.86
15.92
16.30
16.83
17.32
17.58
17.46
16.92
15.94
14.60
13.08
11.59
10.33
9.40
8.69
7.99
6.98
5.48
3.47
1.09
-1.46
-3.97
-6.34
-8.56
-10.62
-12.55
-14.43
-16.42
-18.77
-21.65
-25.02
-28.50
-31.36
-32.75
-31.97
-28.74
-23.32
-16.43
-9.01
-2.01
3.89
8.34
11.35
13.19
14.24
14.85
15.24
15.54
15.77
15.94
16.13
16.42
16.83
17.33
17.83
18.23
18.43
18.40
18.15
17.67
16.91
15.79
14.27
12.40
10.36
8.38
6.66
5.25
3.99
2.59
0.78
-1.54
-4.22
-6.99
-9.53
-11.71
-13.62
-15.58
-17.95
-20.98
-24.63
-28.52
-31.96
-34.14
-34.35
-32.21
-27.85
-21.79
-14.85
-7.85
-1.40
4.15
8.67
12.12
14.45
15.65
15.83
15.26
14.38
13.68
13.50
13.92
14.79
15.80
16.67
17.22
17.37
17.10
16.41
15.32
13.89
12.27
10.71
9.40
8.46
7.84
7.37
6.84
6.04
4.82
3.11
0.89
-1.76
-4.69
-7.66
-10.42
-12.78
-14.68
-16.25
-17.79
-19.72
-22.35
-25.74
-29.57
-33.10
-35.38
-35.55
-33.13
-28.24
-21.58
-14.19
-7.07
-0.92
4.02
7.82
10.64
12.64
13.87
14.42
14.52
14.46
14.53
14.82
15.22
15.50
15.50
15.24
14.92
14.82
15.05
15.48
15.81
15.73
15.11
14.01
12.69
11.39
10.24
9.25
8.28
7.13
5.67
3.82
1.61
-0.83
-3.32
-5.65
-7.58
-9.03
-10.03
-10.82
-11.72
-13.14
-15.48
-18.97
-23.55
-28.75
-33.65
-37.10
-38.03
-35.84
-30.65
-23.34
-15.14
-7.25
-0.41
5.21
9.83
13.69
16.80
18.97
19.99
19.87
18.98
17.95
17.31
17.30
17.73
18.19
18.29
17.88
17.14
16.39
15.91
15.82
15.94
15.96
15.52
14.37
12.45
9.87
6.93
4.01
1.41
-0.72
-2.49
-4.17
-6.03
-8.11
-10.20
-11.98
-13.10
-13.52
-13.48
-13.47
-14.00
-15.49
-18.04
-21.53
-25.52
-29.35
-32.24
-33.38
-32.24
-28.73
-23.33
-16.91
-10.52
-5.05
-0.99
1.67
3.23
4.06
4.45
4.49
4.19
3.58
2.88
2.43
2.52
3.23
4.40
5.65
6.64
7.24
7.62
8.16
9.23
10.99
13.21
15.45
17.13
17.81
17.36
15.97
14.05
12.08
10.33
8.79
7.21
5.21
2.57
-0.64
-4.05
-7.18
-9.69
-11.52
-12.97
-14.52
-16.68
-19.73
-23.72
-28.37
-33.16
-37.38
-40.20
-40.82
-38.66
-33.67
-26.40
-17.90
-9.49
-2.29
3.11
6.73
9.04
10.63
11.90
12.94
13.62
13.80
13.51
12.99
12.61
12.65
13.17
14.01
14.94
15.77
16.45
17.09
17.80
18.58
19.30
19.71
19.55
18.64
17.00
14.78
12.28
9.79
7.50
5.44
3.52
1.57
-0.52
-2.74
-4.98
-7.09
-8.93
-10.50
-11.91
-13.31
-14.89
-16.90
-19.54
-22.95
-26.97
-31.11
-34.53
-36.34
-35.85
-32.89
-27.78
-21.24
-14.16
-7.25
-1.05
4.17
8.26
11.20
13.07
14.07
14.50
14.68
14.88
15.21
15.64
16.10
16.46
16.66
16.69
16.65
16.62
16.71
16.96
17.35
17.78
18.04
17.95
17.35
16.18
14.58
12.79
11.07
9.61
8.47
7.50
6.49
5.22
3.54
1.45
-0.99
-3.60
-6.17
-8.50
-10.52
-12.26
-13.99
-16.09
-18.94
-22.70
-27.12
-31.54
-35.02
-36.61
-35.73
-32.31
-26.82
-20.13
-13.18
-6.77
-1.40
2.73
5.72
7.76
9.09
9.90
10.35
10.58
10.77
11.10
11.70
12.56
13.55
14.39
14.83
14.81
14.45
14.09
14.02
14.35
14.88
15.16
14.79
13.58
11.72
9.65
7.85
6.60
5.88
5.39
4.76
3.73
2.19
0.28
-1.84
-3.98
-6.04
-7.98
-9.81
-11.57
-13.36
-15.35
-17.80
-20.92
-24.75
-29.05
-33.17
-36.23
-37.32
-35.87
-31.80
-25.68
-18.43
-11.12
-4.53
0.88
5.05
8.11
10.26
11.68
12.46
12.74
12.72
12.64
12.73
13.10
13.72
14.43
15.03
15.41
15.56
15.60
15.68
15.91
16.28
16.65
16.79
16.44
15.41
13.66
11.41
9.00
6.91
5.42
4.55
4.05
3.49
2.47
0.86
-1.25
-3.58
-5.87
-7.96
-9.88
-11.70
-13.47
-15.22
-17.01
-19.02
-21.53
-24.81
-28.85
-33.21
-37.01
-39.23
-39.02
-36.08
-30.79
-23.98
-16.67
-9.70
-3.59
1.50
5.58
8.76
11.14
12.82
13.93
14.72
15.34
15.96
16.60
17.22
17.72
18.03
18.17
18.14
18.06
18.00
18.02
18.13
18.24
18.20
17.83
16.98
15.68
14.07
12.41
10.93
9.80
8.97
8.30
7.55
6.52
5.09
3.16
0.76
-2.05
-5.13
-8.22
-11.05
-13.36
-15.01
-16.07
-16.87
-17.92
-19.76
-22.68
-26.54
-30.67
-34.07
-35.70
-34.85
-31.41
-25.91
-19.24
-12.37
-5.99
-0.45
4.19
7.98
10.95
13.10
14.41
14.98
15.04
14.89
14.80
14.93
15.32
15.90
16.53
17.13
17.61
17.92
18.08
18.08
17.99
17.85
17.67
17.40
16.89
16.00
14.68
13.00
11.17
9.42
7.93
6.72
5.71
4.72
3.59
2.23
0.66
-1.07
-2.89
-4.76
-6.67
-8.57
-10.43
-12.27
-14.24
-16.59
-19.64
-23.59
-28.28
-33.13
-37.20
-39.42
-39.02
-35.81
-30.25
-23.23
-15.79
-8.68
-2.29
3.33
8.17
12.13
14.98
16.49
16.70
15.95
14.89
14.13
14.08
14.71
15.64
16.39
16.57
16.14
15.37
14.69
14.43
14.69
15.30
15.91
16.18
15.94
15.14
13.94
12.47
10.93
9.50
8.39
7.76
7.63
7.79
7.76
7.01
5.11
1.97
-2.07
-6.41
-10.42
-13.66
-16.07
-18.00
-20.00
-22.58
-25.97
-29.99
-33.99
-37.13
-38.61
-37.92
-35.03
-30.28
-24.33
-17.87
-11.53
-5.80
-1.00
2.68
5.22
6.80
7.73
8.40
9.14
10.05
11.08
12.05
12.76
13.13
13.22
13.22
13.30
13.58
14.09
14.69
15.20
15.36
14.99
14.03
12.60
10.92
9.29
7.90
6.77
5.76
4.66
3.29
1.65
-0.19
-2.10
-3.96
-5.69
-7.25
-8.64
-9.95
-11.40
-13.37
-16.21
-20.06
-24.63
-29.18
-32.73
-34.34
-33.51
-30.27
-25.16
-18.96
-12.50
-6.43
-1.15
3.15
6.51
9.07
11.09
12.80
14.38
15.88
17.23
18.31
19.01
19.26
19.05
18.43
17.56
16.67
16.02
15.78
15.97
16.31
16.44
16.00
14.81
13.01
10.98
9.15
7.81
6.98
6.39
5.68
4.47
2.63
0.21
-2.56
-5.39
-8.04
-10.36
-12.36
-14.20
-16.19
-18.70
-22.00
-26.11
-30.68
-35.03
-38.30
-39.70
-38.72
-35.33
-29.91
-23.10
-15.64
-8.23
-1.41
4.45
9.14
12.59
14.90
16.24
16.86
17.09
17.22
17.57
18.32
19.52
20.97
22.35
23.31
23.67
23.48
22.96
22.39
21.92
21.58
21.24
20.75
20.05
19.07
17.75
16.04
13.88
11.36
8.67
6.03
3.57
1.27
-1.02
-3.42
-5.90
-8.24
-10.23
-11.72
-12.79
-13.76
-14.97
-16.78
-19.37
-22.82
-27.02
-31.69
-36.21
-39.74
-41.41
-40.55
-37.08
-31.49
-24.72
-17.76
-11.33
-5.65
-0.64
3.91
8.05
11.62
14.44
16.42
17.70
18.55
19.25
19.91
20.50
20.96
21.25
21.51
21.85
22.35
22.92
23.39
23.55
23.36
22.81
21.96
20.84
19.46
17.81
16.01
14.28
12.82
11.68
10.66
9.39
7.50
4.80
1.43
-2.15
-5.40
-7.91
-9.61
-10.78
-11.90
-13.53
-16.10
-19.74
-24.31
-29.27
-33.93
-37.45
-39.15
-38.62
-35.85
-31.22
-25.35
-18.95
-12.66
-6.96
-2.13
1.76
4.82
7.26
9.32
11.18
12.92
14.47
15.77
16.69
17.19
17.28
17.06
16.68
16.38
16.35
16.73
17.44
18.25
18.80
18.80
18.13
16.82
15.04
12.93
10.60
8.10
5.45
2.75
0.10
-2.37
-4.65
-6.78
-8.88
-10.98
-13.05
-14.93
-16.56
-18.02
-19.60
-21.75
-24.75
-28.49
-32.44
-35.72
-37.44
-37.05
-34.45
-29.94
-24.06
-17.39
-10.45
-3.73
2.33
7.37
11.13
13.60
14.99
15.66
15.91
16.02
16.06
16.08
16.07
16.05
16.09
16.22
16.53
17.01
17.66
18.40
19.05
19.46
19.42
18.87
17.80
16.31
14.48
12.33
9.83
6.89
3.58
0.07
-3.31
-6.25
-8.55
-10.29
-11.81
-13.62
-16.21
-19.87
-24.54
-29.74
-34.68
-38.39
-40.03
-39.06
-35.47
-29.70
-22.57
-15.01
-7.85
-1.62
3.43
7.26
10.02
11.92
13.22
14.19
15.10
16.12
17.27
18.39
19.15
19.27
18.63
17.36
15.83
14.41
13.34
12.68
12.23
11.79
11.24
10.57
9.89
9.28
8.68
7.91
6.73
5.00
2.75
0.21
-2.35
-4.71
-6.84
-8.87
-11.06
-13.68
-16.88
-20.62
-24.65
-28.54
-31.68
-33.48
-33.46
-31.37
-27.28
-21.63
-15.00
-8.10
-1.53
4.28
9.10
12.93
15.89
18.15
19.82
20.95
21.55
21.66
21.42
21.04
20.75
20.66
20.73
20.75
20.46
19.70
18.44
16.84
15.15
13.59
12.30
11.28
10.43
9.59
8.59
7.27
5.62
3.69
1.64
-0.39
-2.30
-4.12
-5.94
-7.85
-9.91
-12.18
-14.78
-17.90
-21.65
-25.82
-29.82
-32.79
-33.82
-32.43
-28.73
-23.42
-17.44
-11.58
-6.23
-1.48
2.79
6.60
9.81
12.24
13.77
14.51
14.72
14.72
14.75
14.87
14.98
14.93
14.56
13.89
12.99
12.08
11.32
10.84
10.56
10.31
9.85
8.96
7.50
5.49
3.11
0.60
-1.79
-3.89
-5.66
-7.21
-8.82
-10.86
-13.65
-17.32
-21.70
-26.29
-30.38
-33.22
-34.24
-33.21
-30.25
-25.79
-20.38
-14.56
-8.76
-3.32
1.52
5.55
8.63
10.74
11.97
12.58
12.82
12.93
13.02
13.05
12.94
12.66
12.28
11.93
11.77
11.83
12.00
12.12
11.99
11.45
10.45
8.98
7.10
4.96
2.75
0.59
-1.41
-3.29
-5.12
-7.04
-9.22
-11.85
-15.09
-19.00
-23.34
-27.56
-30.81
-32.22
-31.24
-27.92
-22.85
-16.94
-11.05
-5.64
-0.80
3.57
7.57
11.07
13.87
15.75
16.75
17.05
16.98
16.82
16.70
16.63
16.51
16.29
15.94
15.51
15.08
14.71
14.41
14.14
13.83
13.38
12.62
11.42
9.67
7.37
4.64
1.72
-1.11
-3.59
-5.62
-7.23
-8.66
-10.27
-12.42
-15.42
-19.36
-24.01
-28.82
-32.99
-35.68
-36.25
-34.39
-30.27
-24.44
-17.66
-10.72
-4.18
1.60
6.53
10.63
13.98
16.62
18.57
19.84
20.52
20.76
20.72
20.57
20.35
20.05
19.61
19.04
18.43
17.91
17.55
17.33
17.14
16.81
16.25
15.47
14.54
13.56
12.50
11.28
9.79
7.99
5.89
3.59
1.19
-1.32
-3.96
-6.79
-9.85
-13.20
-16.89
-20.99
-25.43
-29.94
-33.99
-36.83
-37.77
-36.35
-32.63
-27.07
-20.51
-13.80
-7.57
-2.15
2.42
6.21
9.31
11.76
13.57
14.82
15.74
16.59
17.55
18.60
19.49
19.90
19.66
18.84
17.79
16.94
16.56
16.64
16.96
17.24
17.29
17.08
16.68
16.10
15.21
13.81
11.77
9.17
6.31
3.61
1.35
-0.38
-1.82
-3.40
-5.63
-8.89
-13.27
-18.51
-23.99
-28.86
-32.30
-33.68
-32.73
-29.60
-24.75
-18.89
-12.76
-7.03
-2.15
1.69
4.56
6.71
8.42
9.92
11.27
12.47
13.48
14.31
15.04
15.75
16.44
17.05
17.44
17.50
17.25
16.79
16.33
15.99
15.78
15.49
14.75
13.18
10.58
7.05
3.05
-0.81
-3.96
-6.15
-7.58
-8.78
-10.41
-13.05
-16.91
-21.83
-27.32
-32.63
-36.97
-39.63
-40.18
-38.49
-34.79
-29.59
-23.54
-17.21
-11.09
-5.47
-0.49
3.78
7.29
9.96
11.77
12.73
13.00
12.79
12.35
11.86
11.42
11.04
10.68
10.34
10.08
9.94
10.02
10.27
10.57
10.67
10.33
9.39
7.85
5.87
3.66
1.39
-0.86
-3.17
-5.68
-8.56
-11.99
-16.06
-20.72
-25.72
-30.55
-34.48
-36.75
-36.80
-34.49
-30.13
-24.37
-18.03
-11.85
-6.38
-1.89
1.53
3.93
5.49
6.31
6.48
6.00
4.80
2.85
0.20
-3.03
-6.65
-10.43
-14.11
-17.41
-20.06
-21.85
-22.79
-23.19
-23.56
-24.41
-26.01
-28.14
-30.23
-31.51
-31.45
-29.95
-27.48
-24.83
-22.81
-21.92
-22.30
-23.70
-25.76
-28.03
-30.16
-31.79
-32.48
-31.87
-29.59
-25.43
-19.41
-11.61
-2.09
9.12
21.85
35.34
48.05
57.95
63.21
63.07
58.31
51.04
43.75
38.32
35.34
34.22
33.80
33.23
32.28
31.31
30.75
30.67
30.70
30.19
28.67
26.09
22.86
19.62
17.09
15.60
15.15
15.43
15.96
16.36
16.30
15.57
14.00
11.53
8.36
5.14
2.88
2.68
5.31
10.85
18.66
27.60
36.55
44.72
51.86
58.04
63.39
67.95
71.65
74.44
76.47
78.09
79.76
81.82
84.43
87.42
90.45
93.06
94.89
95.76
95.72
95.00
93.95
92.78
91.50
89.85
87.32
83.37
77.62
70.00
60.74
50.26
39.00
27.39
15.90
5.07
-4.46
-12.12
-17.72
-21.60
-24.58
-27.61
-31.44
-36.18
-41.46
-46.56
-50.88
-54.07
-56.11
-57.15
-57.36
-56.96
-56.35
-56.15
-57.13
-59.96
-64.83
-71.25
-78.14
-84.14
-88.06
-89.21
-87.60
-83.84
-79.01
-74.32
-70.79
-69.03
-69.15
-70.72
-73.04
-75.45
-77.49
-78.94
-79.75
-79.82
-78.95
-77.02
-74.10
-70.62
-67.27
-64.75
-63.45
-63.35
-64.14
-65.46
-67.07
-68.98
-71.21
-73.59
-75.51
-75.99
-73.91
-68.36
-59.11
-46.68
-32.31
-17.56
-4.04
7.11
15.29
20.50
23.23
24.15
23.91
22.96
21.54
19.68
17.45
15.02
12.73
11.02
10.21
10.40
11.39
12.81
14.23
15.27
15.64
15.17
13.81
11.71
9.18
6.70
4.63
3.17
2.27
1.71
1.22
0.58
-0.37
-1.85
-4.08
-7.15
-10.80
-14.37
-16.87
-17.34
-15.21
-10.51
-3.84
3.83
11.51
18.44
24.22
28.78
32.28
34.89
36.71
37.73
37.91
37.21
35.76
33.79
31.62
29.53
27.67
26.07
24.70
23.51
22.44
21.47
20.49
19.35
17.87
15.89
13.39
10.43
7.25
4.10
1.22
-1.36
-3.80
-6.46
-9.77
-14.02
-19.29
-25.26
-31.27
-36.40
-39.67
-40.26
-37.71
-32.14
-24.16
-14.78
-5.09
3.97
11.78
18.02
22.58
25.50
26.87
26.87
25.87
24.32
22.74
21.51
20.75
20.29
19.80
18.97
17.73
16.27
14.88
13.77
12.91
12.01
10.59
8.19
4.59
-0.06
-5.29
-10.48
-15.06
-18.83
-22.10
-25.62
-30.30
-36.70
-44.73
-53.49
-61.57
-67.54
-70.43
-69.94
-66.34
-60.08
-51.58
-41.10
-28.91
-15.58
-2.17
9.91
19.29
25.21
27.77
28.03
27.54
27.80
29.73
33.56
38.99
45.40
51.90
57.25
59.92
58.44
52.07
41.47
28.74
16.75
8.00
3.53
2.64
3.44
3.95
3.06
0.76
-2.23
-5.25
-8.26
-11.87
-16.89
-23.71
-31.99
-40.60
-48.00
-52.75
-53.90
-51.21
-45.03
-36.12
-25.38
-13.72
-1.94
9.21
19.12
27.26
33.31
37.12
38.83
38.77
37.50
35.74
34.15
33.25
33.17
33.68
34.29
34.47
33.89
32.53
30.64
28.61
26.72
25.03
23.39
21.52
19.16
16.19
12.62
8.66
4.61
0.76
-2.72
-5.77
-8.59
-11.55
-15.12
-19.75
-25.61
-32.45
-39.49
-45.55
-49.30
-49.65
-46.06
-38.75
-28.60
-16.90
-5.06
5.79
14.92
22.08
27.33
30.90
33.06
34.05
34.14
33.60
32.75
31.89
31.25
30.88
30.63
30.25
29.49
28.27
26.74
25.19
23.88
22.92
22.07
20.94
19.06
16.15
12.26
7.76
3.18
-1.06
-4.73
-7.96
-11.12
-14.72
-19.20
-24.82
-31.46
-38.59
-45.35
-50.66
-53.49
-53.08
-49.12
-41.88
-32.14
-21.02
-9.74
0.69
9.59
16.70
22.07
25.91
28.41
29.73
29.99
29.37
28.18
26.78
25.46
24.33
23.32
22.30
21.21
20.06
18.99
18.05
17.19
16.15
14.64
12.35
9.13
5.05
0.37
-4.53
-9.32
-13.78
-17.97
-22.26
-27.17
-33.16
-40.29
-48.04
-55.26
-60.46
-62.17
-59.46
-52.20
-41.17
-27.79
-13.76
-0.55
10.89
20.24
27.60
33.25
37.39
40.03
41.18
40.94
39.67
37.88
36.15
34.95
34.49
34.77
35.54
36.38
36.77
36.25
34.62
31.99
28.87
25.83
23.29
21.27
19.38
17.04
13.69
9.05
3.16
-3.63
-10.84
-17.95
-24.54
-30.48
-36.00
-41.77
-48.46
-56.51
-65.64
-74.74
-82.06
-85.64
-83.81
-75.45
-60.54
-40.23
-17.04
5.67
24.48
37.00
42.67
42.87
40.18
37.19
35.46
35.16
35.53
35.68
35.24
34.52
34.09
34.27
34.81
35.09
34.51
32.85
30.43
27.82
25.64
24.05
22.83
21.43
19.29
16.16
12.15
7.66
3.15
-1.00
-4.70
-8.02
-11.17
-14.37
-17.78
-21.49
-25.60
-30.25
-35.60
-41.71
-48.45
-55.26
-61.13
-64.77
-64.97
-61.02
-52.99
-41.78
-28.83
-15.63
-3.39
7.22
16.02
23.02
28.35
32.09
34.36
35.39
35.52
35.20
34.77
34.43
34.22
34.04
33.77
33.37
32.89
32.41
31.98
31.58
31.07
30.22
28.81
26.70
23.88
20.57
17.08
13.69
10.61
7.81
5.06
2.04
-1.48
-5.51
-9.84
-14.12
-18.01
-21.35
-24.29
-27.21
-30.66
-35.11
-40.77
-47.41
-54.32
-60.36
-64.25
-64.88
-61.61
-54.53
-44.40
-32.49
-20.13
-8.41
1.96
10.70
17.72
23.09
26.89
29.32
30.67
31.30
31.57
31.72
31.83
31.91
31.91
31.82
31.72
31.64
31.54
31.33
30.82
29.89
28.43
26.43
23.97
21.23
18.40
15.73
13.34
11.21
9.15
6.87
4.13
0.84
-2.86
-6.69
-10.36
-13.73
-16.80
-19.79
-23.04
-26.90
-31.69
-37.42
-43.74
-49.75
-54.26
-55.97
-54.00
-48.21
-39.29
-28.58
-17.55
-7.38
1.26
8.25
13.75
17.99
21.08
23.06
23.92
23.77
22.85
21.53
20.17
19.05
18.29
17.87
17.69
17.57
17.41
17.17
16.89
16.61
16.32
15.88
14.97
13.35
10.85
7.57
3.80
-0.00
-3.49
-6.50
-9.16
-11.79
-14.77
-18.40
-22.83
-28.05
-33.81
-39.60
-44.60
-47.84
-48.37
-45.61
-39.62
-31.03
-20.90
-10.36
-0.33
8.58
16.06
21.93
26.11
28.62
29.62
29.44
28.53
27.37
26.33
25.60
25.23
25.15
25.19
25.19
25.00
24.50
23.60
22.27
20.53
18.45
16.14
13.76
11.39
9.06
6.63
3.97
0.96
-2.40
-5.96
-9.51
-12.90
-16.06
-19.11
-22.28
-25.87
-30.16
-35.26
-40.99
-46.83
-51.93
-55.27
-55.95
-53.40
-47.60
-39.13
-28.93
-18.20
-8.02
0.83
7.95
13.37
17.31
20.11
22.09
23.48
24.47
25.20
25.76
26.26
26.73
27.15
27.51
27.75
27.86
27.81
27.54
26.96
26.01
24.63
22.85
20.74
18.40
15.95
13.46
10.99
8.55
6.10
3.56
0.81
-2.21
-5.57
-9.20
-12.94
-16.60
-20.07
-23.37
-26.79
-30.74
-35.56
-41.25
-47.28
-52.65
-56.11
-56.57
-53.43
-46.87
-37.68
-27.11
-16.40
-6.53
1.98
9.04
14.75
19.25
22.59
24.76
25.85
26.09
25.86
25.56
25.48
25.65
25.94
26.16
26.20
26.13
26.05
26.07
26.21
26.37
26.32
25.84
24.77
23.03
20.74
18.13
15.46
12.93
10.60
8.32
5.86
3.02
-0.30
-3.95
-7.66
-11.17
-14.34
-17.26
-20.21
-23.57
-27.66
-32.62
-38.31
-44.32
-50.02
-54.60
-57.27
-57.34
-54.43
-48.58
-40.29
-30.44
-20.11
-10.30
-1.69
5.40
11.00
15.32
18.61
21.06
22.83
24.04
24.88
25.53
26.13
26.71
27.19
27.51
27.57
27.40
27.06
26.61
26.11
25.53
24.78
23.77
22.37
20.56
18.43
16.16
13.91
11.75
9.62
7.29
4.58
1.39
-2.18
-5.87
-9.40
-12.61
-15.54
-18.44
-21.63
-25.48
-30.15
-35.54
-41.21
-46.36
-49.98
-51.11
-49.18
-44.21
-36.85
-28.13
-19.15
-10.71
-3.23
3.25
8.78
13.44
17.13
19.74
21.23
21.76
21.73
21.60
21.80
22.55
23.82
25.38
26.85
27.84
28.10
27.46
25.95
23.77
21.18
18.52
16.03
13.79
11.69
9.47
6.85
3.69
-0.00
-4.04
-8.14
-12.05
-15.59
-18.77
-21.75
-24.84
-28.39
-32.67
-37.68
-43.03
-47.98
-51.54
-52.83
-51.28
-46.83
-39.88
-31.13
-21.49
-11.86
-3.02
4.50
10.45
14.90
18.13
20.50
22.30
23.65
24.58
25.09
25.21
25.02
24.60
24.04
23.43
22.88
22.46
22.23
22.10
21.92
21.46
20.55
19.16
17.35
15.24
12.94
10.49
7.92
5.23
2.39
-0.58
-3.70
-6.93
-10.18
-13.31
-16.11
-18.46
-20.43
-22.37
-24.85
-28.38
-33.20
-38.95
-44.71
-49.20
-51.27
-50.25
-46.19
-39.73
-31.83
-23.34
-14.88
-6.82
0.64
7.34
13.12
17.84
21.48
24.08
25.73
26.58
26.81
26.66
26.42
26.31
26.44
26.79
27.24
27.65
27.91
28.00
27.90
27.48
26.58
25.00
22.73
19.94
16.97
14.21
11.89
9.97
8.17
6.11
3.51
0.30
-3.34
-7.10
-10.63
-13.73
-16.37
-18.68
-21.00
-23.78
-27.41
-32.18
-37.92
-44.04
-49.56
-53.32
-54.38
-52.19
-46.89
-39.10
-29.82
-20.11
-10.83
-2.53
4.57
10.47
15.24
18.97
21.76
23.73
25.10
26.10
26.98
27.80
28.52
28.99
29.14
29.02
28.77
28.56
28.43
28.34
28.10
27.52
26.46
24.78
22.52
19.81
16.92
14.20
11.93
10.18
8.73
7.16
5.02
2.06
-1.66
-5.75
-9.78
-13.40
-16.53
-19.31
-22.03
-25.01
-28.53
-32.78
-37.76
-43.17
-48.28
-52.04
-53.39
-51.60
-46.61
-39.11
-30.21
-21.09
-12.62
-5.22
1.06
6.27
10.50
13.81
16.25
17.94
19.10
19.93
20.62
21.33
22.13
23.06
24.08
25.05
25.80
26.18
26.14
25.75
25.19
24.58
23.96
23.19
22.08
20.46
18.30
15.72
12.98
10.28
7.69
5.14
2.47
-0.44
-3.53
-6.62
-9.44
-11.79
-13.68
-15.41
-17.46
-20.32
-24.38
-29.60
-35.49
-41.17
-45.57
-47.78
-47.28
-44.07
-38.66
-31.82
-24.35
-16.89
-9.84
-3.37
2.45
7.58
11.97
15.51
18.15
19.86
20.73
20.86
20.43
19.66
18.79
18.12
17.87
18.16
18.93
19.89
20.73
21.14
20.95
20.14
18.79
17.09
15.21
13.32
11.53
9.91
8.44
7.03
5.60
4.04
2.27
0.21
-2.24
-5.11
-8.30
-11.66
-15.01
-18.36
-21.89
-25.97
-30.83
-36.40
-42.05
-46.82
-49.64
-49.77
-47.00
-41.68
-34.54
-26.41
-17.98
-9.81
-2.28
4.30
9.73
13.92
16.91
18.91
20.21
21.09
21.75
22.32
22.83
23.26
23.55
23.66
23.57
23.30
22.91
22.45
21.93
21.31
20.47
19.35
17.91
16.23
14.32
12.21
9.85
7.21
4.34
1.37
-1.52
-4.22
-6.74
-9.20
-11.78
-14.67
-18.00
-21.90
-26.45
-31.55
-36.83
-41.61
-45.01
-46.23
-44.82
-40.92
-35.10
-28.22
-21.03
-14.03
-7.47
-1.47
3.82
8.19
11.41
13.40
14.33
14.57
14.58
14.69
15.05
15.62
16.27
16.90
17.48
17.98
18.34
18.44
18.13
17.34
16.07
14.42
12.45
10.17
7.59
4.77
1.83
-0.97
-3.45
-5.58
-7.58
-9.90
-13.03
-17.29
-22.67
-28.70
-34.49
-38.97
-41.20
-40.65
-37.34
-31.83
-24.97
-17.59
-10.35
-3.64
2.36
7.49
11.64
14.67
16.57
17.45
17.56
17.23
16.76
16.35
16.05
15.82
15.55
15.16
14.62
13.99
13.36
12.79
12.23
11.51
10.39
8.66
6.24
3.21
-0.16
-3.49
-6.43
-8.72
-10.36
-11.61
-12.96
-15.05
-18.38
-23.12
-28.93
-34.93
-39.99
-42.98
-43.17
-40.42
-35.14
-28.14
-20.36
-12.55
-5.23
1.35
7.09
11.96
15.90
18.86
20.87
22.04
22.61
22.78
22.74
22.55
22.29
21.99
21.73
21.59
21.60
21.71
21.81
21.75
21.43
20.81
19.86
18.54
16.79
14.59
11.97
9.04
5.95
2.87
-0.10
-2.94
-5.64
-8.24
-10.86
-13.64
-16.83
-20.68
-25.33
-30.64
-36.11
-40.95
-44.21
-45.14
-43.35
-38.98
-32.61
-25.09
-17.28
-9.85
-3.17
2.63
7.60
11.82
15.35
18.25
20.53
22.23
23.44
24.25
24.80
25.22
25.61
26.00
26.41
26.78
27.12
27.44
27.72
27.93
27.90
27.43
26.29
24.44
22.05
19.43
16.95
14.82
13.02
11.28
9.29
6.83
3.86
0.52
-2.92
-6.21
-9.24
-12.02
-14.78
-17.89
-21.78
-26.74
-32.81
-39.60
-46.33
-52.01
-55.69
-56.70
-54.83
-50.28
-43.54
-35.28
-26.16
-16.82
-7.83
0.41
7.61
13.66
18.61
22.61
25.85
28.53
30.77
32.62
34.15
35.33
36.22
36.87
37.38
37.88
38.44
39.12
39.83
40.39
40.54
39.99
38.52
36.12
32.96
29.40
25.84
22.57
19.69
17.06
14.37
11.25
7.28
2.22
-4.05
-11.43
-19.57
-27.97
-36.05
-43.43
-50.01
-56.00
-61.74
-67.37
-72.57
-76.54
-78.24
-76.80
-71.97
-64.17
-54.36
-43.61
-32.79
-22.35
-12.52
-3.45
4.60
11.27
16.29
19.61
21.51
22.39
22.73
22.85
22.93
23.01
23.03
22.93
22.66
22.26
21.86
21.73
22.08
22.98
24.22
25.27
25.53
24.48
21.94
18.14
13.60
8.91
4.57
0.75
-2.62
-5.83
-9.26
-13.31
-18.25
-24.24
-31.12
-38.32
-44.86
-49.54
-51.25
-49.38
-44.04
-36.06
-26.71
-17.22
-8.46
-0.77
5.91
11.76
16.90
21.26
24.72
27.27
29.04
30.27
31.25
32.15
33.01
33.78
34.40
34.85
35.13
35.18
34.87
34.03
32.55
30.47
28.04
25.61
23.53
21.96
20.86
19.97
18.99
17.72
16.10
14.25
12.29
10.23
7.93
5.18
1.81
-2.08
-6.07
-9.44
-11.40
-11.24
-8.60
-3.53
3.53
11.93
20.89
29.74
37.96
45.24
51.50
56.79
61.24
64.93
67.87
69.96
71.12
71.39
71.00
70.35
69.86
69.76
69.95
70.09
69.73
68.62
66.77
64.40
61.79
59.06
56.11
52.78
48.97
44.84
40.69
36.76
33.07
29.23
24.66
18.91
11.85
3.78
-4.81
-13.56
-22.39
-31.45
-40.89
-50.46
-59.42
-66.70
-71.37
-73.05
-72.03
-69.17
-65.45
-61.58
-57.84
-54.22
-50.71
-47.48
-44.98
-43.63
-43.60
-44.62
-46.01
-46.99
-47.02
-46.00
-44.20
-42.07
-40.00
-38.15
-36.50
-34.94
-33.42
-32.04
-30.96
-30.34
-30.31
-30.91
-32.03
-33.48
-34.98
-36.24
-37.06
-37.44
-37.64
-38.15
-39.47
-42.05
-46.06
-51.36
-57.40
-63.38
-68.22
-70.81
-70.29
-66.34
-59.33
-50.27
-40.57
-31.56
-24.25
-19.13
-16.21
-15.10
-15.25
-16.03
-16.86
-17.21
-16.76
-15.45
-13.50
-11.32
-9.34
-7.87
-6.98
-6.54
-6.34
-6.20
-6.08
-6.07
-6.33
-7.02
-8.15
-9.59
-11.11
-12.48
-13.64
-14.72
-16.02
-17.89
-20.52
-23.84
-27.59
-31.38
-35.00
-38.46
-41.93
-45.40
-48.51
-50.46
-50.26
-47.12
-40.82
-31.80
-20.95
-9.27
2.42
13.57
23.82
32.94
40.64
46.65
50.80
53.14
53.97
53.81
53.31
53.06
53.47
54.61
56.18
57.64
58.43
58.30
57.31
55.88
54.43
53.20
51.98
50.30
47.62
43.66
38.59
33.00
27.66
23.18
19.73
16.99
14.32
10.96
6.34
0.21
-7.27
-15.56
-23.80
-31.02
-36.30
-38.99
-38.83
-36.08
-31.31
-25.31
-18.79
-12.35
-6.39
-1.27
2.75
5.55
7.17
7.93
8.30
8.73
9.46
10.44
11.43
12.14
12.53
12.75
13.08
13.76
14.83
16.08
17.13
17.55
17.01
15.41
12.92
9.94
6.94
4.33
2.32
0.78
-0.72
-2.74
-5.74
-9.84
-14.61
-19.14
-22.23
-22.69
-19.74
-13.19
-3.52
8.25
20.88
33.18
44.27
53.63
61.10
66.76
70.77
73.38
74.76
75.14
74.76
73.92
72.95
72.19
71.80
71.76
71.93
72.03
71.71
70.68
68.61
65.19
60.21
53.57
45.41
36.14
26.35
16.77
7.99
0.30
-6.39
-12.60
-19.11
-26.66
-35.61
-45.70
-56.00
-65.13
-71.70
-74.73
-73.98
-69.95
-63.63
-56.12
-48.37
-41.04
-34.53
-29.11
-24.91
-21.99
-20.22
-19.31
-18.87
-18.48
-17.86
-16.94
-15.83
-14.78
-14.07
-13.88
-14.28
-15.13
-16.17
-17.12
-17.78
-18.12
-18.34
-18.75
-19.65
-21.16
-23.25
-25.70
-28.24
-30.65
-32.84
-34.91
-37.06
-39.57
-42.58
-46.02
-49.49
-52.31
-53.71
-52.99
-49.75
-44.00
-36.09
-26.69
-16.61
-6.71
2.28
9.69
15.10
18.27
19.23
18.26
15.82
12.56
9.16
6.23
4.18
3.11
2.74
2.51
1.75
-0.04
-2.90
-6.40
-9.76
-12.25
-13.54
-13.91
-14.05
-14.66
-16.07
-18.01
-19.78
-20.66
-20.17
-18.38
-15.78
-13.13
-11.17
-10.44
-11.23
-13.42
-16.54
-19.76
-22.04
-22.43
-20.30
-15.53
-8.47
0.27
9.98
19.91
29.23
36.88
41.73
42.80
39.70
32.87
23.47
13.08
3.06
-5.68
-12.73
-18.02
-21.53
-23.30
-23.48
-22.42
-20.63
-18.57
-16.59
-15.16
-15.09
-17.74
-24.75
-37.47
-56.34
-80.61
-108.54
-137.75
-165.64
-189.47
-206.48
-214.18
-211.12
-197.54
-175.78
-149.39
-121.50
-93.36
-64.05
-31.80
4.23
42.89
81.45
117.24
148.93
176.61
200.47
219.30
230.18
229.90
217.13
193.72
163.94
132.21
100.41
67.36
30.29
-12.39
-58.98
-104.64
-143.37
-170.72
-185.61
-190.50
-190.23
-190.40
-196.12
-211.05
-236.68
-271.64
-311.66
-350.19
-380.35
-397.11
-398.92
-387.95
-368.60
-345.49
-321.71
-298.40
-275.46
-252.70
-230.49
-209.50
-190.17
-172.03
-153.86
-134.28
-112.61
-89.33
-65.86
-44.03
-25.15
-9.51
3.80
16.42
30.10
45.91
63.87
83.00
101.78
118.97
134.02
147.36
160.02
173.15
187.45
203.12
220.10
238.33
257.75
277.83
297.01
312.41
320.42
317.73
302.51
274.89
236.71
190.69
139.84
87.48
37.57
-5.18
-36.00
-51.47
-50.91
-36.82
-13.98
12.37
38.47
62.90
86.35
110.69
137.84
168.86
203.51
240.02
275.22
305.16
326.04
335.49
333.35
321.69
303.86
283.17
261.86
240.86
220.28
200.10
180.59
162.12
144.76
127.95
110.79
92.53
73.11
53.16
33.61
15.06
-2.71
-20.59
-39.54
-59.75
-80.05
-97.75
-109.24
-110.99
-100.82
-78.79
-47.55
-11.64
23.74
54.22
77.21
92.27
100.43
103.30
102.19
97.82
90.50
80.57
68.56
55.21
41.19
26.88
12.46
-1.93
-16.11
-30.00
-43.85
-58.28
-74.00
-91.26
-109.38
-126.89
-142.24
-154.71
-164.64
-173.11
-181.18
-189.29
-197.11
-203.84
-208.49
-209.82
-206.27
-195.93
-177.20
-149.49
-114.01
-73.59
-31.74
8.71
46.62
82.92
119.93
160.21
205.20
254.11
303.69
348.83
384.15
405.93
413.17
407.70
392.87
372.18
348.32
323.23
298.73
276.75
259.05
246.23
237.28
229.92
221.84
211.83
200.21
188.11
176.36
164.93
152.96
139.54
124.49
108.45
92.54
77.68
64.26
52.14
41.06
30.81
21.36
12.65
4.51
-3.35
-11.27
-19.49
-28.22
-37.58
-47.84
-59.34
-72.40
-87.14
-103.25
-119.85
-135.48
-148.30
-156.64
-159.55
-157.32
-151.50
-144.24
-137.34
-131.49
-126.04
-119.72
-111.63
-102.08
-92.43
-84.27
-78.39
-74.34
-70.88
-66.97
-62.70
-59.25
-58.02
-59.39
-62.07
-63.55
-61.46
-54.97
-45.50
-36.17
-30.32
-30.00
-35.20
-44.02
-53.72
-61.90
-67.30
-69.83
-70.22
-69.59
-69.07
-69.75
-72.43
-77.54
-84.80
-93.31
-101.79
-109.03
-114.27
-117.36
-118.58
-118.24
-116.58
-113.72
-109.94
-105.85
-102.35
-100.42
-100.66
-103.11
-107.14
-111.71
-115.68
-118.13
-118.68
-117.61
-115.65
-113.51
-111.37
-108.43
-103.19
-93.98
-79.98
-61.81
-41.64
-22.48
-7.04
3.26
8.68
10.82
11.62
12.53
14.00
15.67
16.96
17.65
18.14
19.22
21.62
25.55
30.52
35.39
38.69
38.93
34.96
26.29
13.29
-2.82
-20.22
-37.02
-51.89
-64.29
-74.34
-82.10
-86.96
-87.41
-81.67
-68.68
-49.14
-25.64
-1.94
18.45
33.49
43.06
48.43
51.20
52.30
51.72
48.92
43.60
36.29
28.56
22.52
19.95
21.43
25.84
30.61
32.72
30.06
22.34
11.36
0.05
-8.94
-14.46
-17.21
-19.11
-22.12
-27.23
-34.25
-42.15
-49.83
-56.45
-61.38
-63.90
-63.01
-57.80
-47.87
-33.84
-17.39
-0.88
13.47
24.23
31.08
34.64
35.98
36.04
35.33
33.93
31.81
29.05
26.02
23.18
20.86
19.08
17.54
15.89
13.88
11.55
9.17
7.01
5.30
4.11
3.40
3.02
2.62
1.64
-0.77
-5.37
-12.49
-21.54
-30.97
-38.49
-41.87
-39.61
-31.46
-18.47
-2.60
13.80
28.50
39.87
47.07
50.17
50.08
48.20
45.95
44.28
43.43
42.99
42.32
41.03
39.13
36.86
34.46
31.81
28.60
24.50
19.51
14.02
8.65
3.83
-0.34
-4.20
-8.31
-13.26
-19.36
-26.55
-34.33
-41.80
-47.77
-50.99
-50.46
-45.80
-37.41
-26.30
-13.80
-1.09
11.05
22.20
32.12
40.42
46.58
50.12
50.91
49.35
46.30
42.73
39.28
36.08
32.79
29.02
24.56
19.56
14.46
9.70
5.63
2.31
-0.31
-2.44
-4.36
-6.42
-8.97
-12.32
-16.65
-22.01
-28.32
-35.34
-42.59
-49.34
-54.54
-57.02
-55.78
-50.41
-41.18
-29.17
-15.86
-2.79
8.83
18.28
25.33
30.08
32.80
33.84
33.57
32.41
30.82
29.19
27.74
26.44
25.06
23.31
21.11
18.72
16.72
15.76
16.13
17.49
18.78
18.53
15.51
9.30
0.55
-9.17
-18.02
-24.56
-28.30
-29.72
-30.09
-30.93
-33.55
-38.76
-46.59
-56.27
-66.26
-74.43
-78.51
-76.63
-67.97
-53.20
-34.45
-14.72
3.00
16.73
26.01
31.67
35.21
37.78
39.79
40.82
40.30
38.08
34.68
31.05
27.94
25.41
22.78
19.12
13.89
7.39
0.53
-5.61
-10.36
-13.77
-16.45
-19.08
-21.98
-24.91
-27.37
-28.98
-29.83
-30.55
-31.99
-34.83
-39.22
-44.75
-50.56
-55.53
-58.51
-58.42
-54.49
-46.47
-34.83
-20.85
-6.29
7.07
18.00
26.16
31.92
36.02
38.97
40.87
41.51
40.70
38.65
35.99
33.62
32.21
31.91
32.25
32.46
31.90
30.43
28.43
26.58
25.35
24.64
23.73
21.57
17.27
10.59
2.14
-6.87
-15.09
-21.63
-26.35
-29.81
-32.87
-36.06
-39.09
-40.76
-39.28
-33.03
-21.36
-5.09
13.56
31.45
45.32
52.45
51.36
42.24
27.20
9.98
-4.83
-13.10
-12.50
-3.30
11.73
28.16
41.40
48.01
46.50
37.45
23.08
6.42
-9.43
-22.00
-29.81
-32.58
-31.10
-26.85
-21.60
-16.97
-14.20
-13.91
-16.09
-20.13
-25.15
-30.38
-35.57
-41.17
-48.18
-57.76
-70.70
-87.05
-105.93
-125.74
-144.63
-161.30
-175.55
-188.51
-202.13
-217.93
-235.74
-252.94
-264.95
-266.76
-254.95
-229.20
-192.31
-149.08
-104.32
-61.29
-21.14
16.65
53.34
90.21
128.23
168.02
209.44
251.24
290.63
323.71
346.45
356.11
352.21
336.61
312.68
284.13
254.10
224.82
197.77
173.84
153.31
135.70
119.74
103.79
86.51
67.46
47.27
27.27
8.98
-6.30
-17.71
-24.69
-26.85
-24.15
-17.03
-6.61
5.46
17.34
27.52
35.10
39.82
41.82
41.40
38.84
34.46
28.82
22.60
16.55
11.14
6.47
2.31
-1.66
-5.62
-9.54
-13.24
-16.62
-19.73
-22.80
-26.03
-29.55
-33.37
-37.45
-41.75
-46.24
-50.79
-55.27
-59.52
-63.57
-67.58
-71.77
-76.10
-80.02
-82.48
-82.20
-78.23
-70.33
-59.13
-45.93
-32.12
-18.83
-6.63
4.42
14.54
23.97
32.86
41.20
48.89
55.80
61.79
66.76
70.66
73.46
75.13
75.61
74.77
72.50
68.73
63.55
57.25
50.14
42.46
34.23
25.31
15.52
4.89
-6.33
-17.71
-28.84
-39.54
-49.85
-59.88
-69.59
-78.61
-86.17
-91.24
-92.84
-90.27
-83.40
-72.72
-59.33
-44.61
-30.00
-16.59
-5.00
4.56
12.18
18.00
22.15
24.76
26.07
26.46
26.38
26.11
25.72
25.02
23.75
21.79
19.24
16.36
13.40
10.47
7.49
4.31
0.78
-3.12
-7.22
-11.26
-14.91
-17.93
-20.20
-21.80
-22.99
-24.24
-26.06
-28.91
-32.98
-38.08
-43.58
-48.50
-51.67
-52.05
-49.00
-42.50
-33.19
-22.20
-10.82
-0.20
8.87
16.07
21.43
25.17
27.58
28.92
29.40
29.22
28.60
27.73
26.77
25.86
25.00
24.15
23.22
22.13
20.86
19.45
17.98
16.52
15.06
13.50
11.69
9.47
6.81
3.80
0.69
-2.29
-4.97
-7.36
-9.64
-12.06
-14.83
-18.05
-21.68
-25.70
-30.02
-34.55
-38.98
-42.74
-45.03
-45.03
-42.21
-36.62
-28.92
-20.14
-11.35
-3.36
3.44
9.00
13.42
16.79
19.16
20.51
20.88
20.39
19.26
17.75
16.13
14.61
13.30
12.24
11.41
10.83
10.49
10.42
10.53
10.65
10.53
9.97
8.90
7.40
5.60
3.61
1.41
-1.15
-4.17
-7.59
-11.16
-14.50
-17.27
-19.43
-21.19
-23.04
-25.48
-28.84
-32.99
-37.31
-40.77
-42.27
-40.99
-36.69
-29.78
-21.16
-11.83
-2.65
5.85
13.39
19.81
24.91
28.56
30.74
31.69
31.89
31.86
32.00
32.38
32.79
32.84
32.21
30.72
28.47
25.77
23.01
20.60
18.76
17.47
16.54
15.61
14.33
12.45
9.89
6.72
3.14
-0.65
-4.42
-7.95
-11.04
-13.55
-15.42
-16.68
-17.50
-18.17
-19.04
-20.40
-22.30
-24.38
-25.92
-26.02
-24.03
-19.90
-14.28
-8.34
-3.25
0.26
2.24
3.37
4.64
6.92
10.55
15.29
20.44
25.08
28.43
30.15
30.48
30.17
30.26
31.67
34.79
39.31
44.21
48.13
49.90
48.97
45.65
40.95
36.26
32.93
31.89
33.52
37.68
43.87
51.43
59.74
68.39
77.18
86.03
94.77
102.94
109.72
114.04
115.01
112.31
106.47
98.81
90.93
84.13
78.81
74.43
69.82
63.80
55.82
46.13
35.46
24.46
13.22
1.23
-12.12
-27.00
-42.66
-57.55
-69.96
-78.61
-83.08
-83.68
-81.13
-76.31
-70.26
-64.29
-59.95
-58.53
-60.40
-64.56
-68.92
-71.26
-70.47
-67.20
-63.67
-62.42
-64.99
-71.19
-79.39
-87.60
-94.66
-100.59
-106.18
-111.92
-117.28
-120.66
-120.22
-114.85
-104.83
-91.68
-77.45
-63.83
-51.72
-41.33
-32.70
-26.11
-22.15
-21.38
-23.95
-29.36
-36.69
-44.96
-53.48
-61.91
-70.09
-77.75
-84.33
-89.15
-91.66
-91.83
-90.29
-88.29
-87.45
-89.39
-95.34
-105.60
-119.12
-133.24
-144.12
-147.78
-141.52
-125.11
-101.03
-73.52
-46.82
-23.33
-3.00
16.22
36.67
59.44
83.62
106.65
125.46
137.48
141.21
136.25
123.08
103.01
78.24
51.56
25.84
3.21
-15.47
-30.52
-42.86
-53.17
-61.47
-67.29
-70.22
-70.27
-67.87
-63.38
-56.67
-47.15
-34.37
-18.78
-2.11
12.99
23.84
28.85
28.16
23.67
18.46
15.76
17.83
25.18
36.22
47.78
56.11
58.23
52.97
41.28
25.85
10.08
-3.01
-11.45
-14.44
-12.01
-4.81
6.21
19.70
33.93
47.03
57.31
63.74
66.17
65.41
62.97
60.67
60.13
62.29
67.11
73.53
79.80
84.06
84.92
81.93
75.54
66.76
56.75
46.32
35.93
25.79
16.07
7.09
-0.69
-7.01
-11.95
-16.11
-20.47
-26.06
-33.51
-42.71
-52.62
-61.52
-67.44
-68.87
-65.26
-57.22
-46.24
-34.11
-22.24
-11.35
-1.46
7.72
16.34
24.27
31.22
36.94
41.50
45.06
47.70
49.11
48.72
46.01
40.96
34.26
27.09
20.70
15.77
12.23
9.41
6.44
2.80
-1.51
-6.02
-10.13
-13.47
-16.01
-18.04
-19.94
-22.03
-24.40
-26.98
-29.49
-31.55
-32.76
-32.80
-31.49
-28.81
-24.89
-19.82
-13.51
-5.78
3.47
13.98
24.88
34.88
42.55
46.96
47.99
46.40
43.49
40.59
38.66
37.97
38.28
39.13
40.04
40.80
41.36
41.76
41.96
41.82
41.17
39.91
38.14
36.10
34.08
32.24
30.60
28.98
27.14
24.80
21.81
18.17
14.11
10.05
6.60
4.37
3.81
5.01
7.76
11.66
16.38
21.86
28.29
35.87
44.46
53.37
61.30
66.88
69.10
67.84
63.90
58.74
53.86
50.23
48.02
46.61
45.12
42.81
39.45
35.21
30.36
24.88
18.25
9.59
-1.88
-16.43
-33.49
-51.76
-69.60
-85.57
-98.88
-109.44
-117.77
-124.59
-130.36
-135.17
-138.67
-140.39
-140.02
-137.45
-132.64
-125.42
-115.49
-102.72
-87.56
-71.18
-55.32
-41.47
-30.34
-21.49
-13.87
-6.55
0.51
6.46
10.23
11.40
10.76
10.02
10.94
14.28
19.47
24.85
28.74
30.38
30.49
30.88
33.57
39.61
48.41
57.98
65.66
69.54
69.12
65.46
60.40
55.44
51.19
47.33
43.50
39.98
37.61
36.96
37.38
36.77
32.67
24.02
12.13
0.24
-8.55
-13.49
-16.80
-22.39
-33.06
-48.50
-65.15
-78.25
-84.75
-84.81
-81.44
-78.29
-77.56
-79.02
-80.60
-79.69
-74.31
-63.39
-46.62
-24.58
1.13
27.69
51.59
69.84
81.23
86.67
88.55
89.33
90.41
91.94
93.35
94.15
94.12
92.87
89.27
81.65
68.60
50.08
27.90
5.10
-15.28
-31.51
-43.56
-52.59
-60.01
-66.70
-72.73
-77.55
-80.54
-81.31
-79.89
-76.74
-72.73
-69.05
-67.17
-68.55
-74.13
-83.86
-96.41
-109.40
-120.03
-126.02
-126.27
-121.10
-112.02
-101.35
-91.78
-86.07
-86.53
-94.31
-108.52
-125.87
-141.21
-149.01
-145.38
-129.64
-104.48
-75.09
-47.33
-26.04
-13.90
-10.96
-14.77
-21.05
-24.91
-22.42
-12.08
4.53
23.37
39.66
50.04
54.03
54.23
54.91
60.11
71.79
89.29
109.93
130.39
148.17
162.27
173.00
181.27
187.84
192.98
196.64
198.79
199.49
198.64
195.52
188.55
175.85
156.11
129.71
99.04
68.07
40.98
20.74
8.20
2.00
-0.69
-2.98
-7.29
-14.78
-25.18
-37.18
-48.95
-58.81
-65.69
-69.46
-70.80
-70.94
-71.16
-72.41
-75.02
-78.74
-82.81
-86.32
-88.61
-89.45
-89.24
-88.76
-88.83
-89.88
-91.76
-93.83
-95.28
-95.41
-93.74
-89.88
-83.62
-75.12
-65.09
-54.84
-45.74
-38.46
-32.23
-24.88
-13.76
2.87
24.59
48.53
70.20
85.18
90.68
86.33
73.87
56.17
36.13
16.10
-2.08
-16.73
-26.07
-28.53
-23.48
-12.31
1.37
12.56
16.83
12.39
1.20
-11.76
-20.79
-22.23
-16.16
-6.10
2.87
6.80
4.58
-2.04
-9.81
-15.93
-19.32
-20.67
-21.50
-23.02
-25.39
-27.85
-29.39
-29.46
-28.32
-26.87
-25.96
-25.92
-26.16
-25.46
-22.49
-16.53
-7.77
2.64
13.14
22.29
29.23
33.86
36.65
38.28
39.32
40.05
40.42
40.26
39.43
37.92
35.86
33.47
31.03
28.78
26.90
25.43
24.27
23.26
22.18
20.90
19.42
17.79
16.05
14.16
12.01
9.48
6.62
3.67
1.02
-0.93
-1.97
-2.18
-1.92
-1.69
-2.05
-3.37
-5.86
-9.40
-13.63
-17.96
-21.69
-24.17
-24.91
-23.66
-20.45
-15.60
-9.67
-3.35
2.65
7.83
11.92
14.97
17.18
18.80
19.90
20.44
20.36
19.69
18.61
17.36
16.17
15.14
14.30
13.69
13.45
13.72
14.57
15.84
17.15
18.09
18.31
17.81
16.82
15.68
14.70
14.01
13.53
13.03
12.09
10.20
6.95
2.23
-3.52
-9.38
-14.24
-17.26
-18.33
-18.04
-17.43
-17.39
-18.32
-19.93
-21.53
-22.43
-22.23
-20.85
-18.41
-15.08
-10.95
-6.21
-1.08
4.06
8.78
12.62
15.25
16.56
16.61
15.64
14.02
12.16
10.42
9.08
8.27
8.03
8.27
8.86
9.64
10.43
11.12
11.60
11.83
11.79
11.43
10.70
9.53
7.91
5.86
3.54
1.18
-0.95
-2.61
-3.75
-4.43
-4.90
-5.46
-6.42
-7.99
-10.22
-12.91
-15.61
-17.69
-18.53
-17.73
-15.19
-11.18
-6.21
-0.85
4.45
9.36
13.61
16.93
19.02
19.67
18.91
17.12
14.91
12.98
11.81
11.54
11.91
12.44
12.64
12.23
11.23
9.87
8.47
7.22
6.11
4.97
3.55
1.80
-0.19
-2.17
-3.91
-5.33
-6.55
-7.76
-9.12
-10.73
-12.57
-14.62
-16.93
-19.47
-22.10
-24.44
-25.92
