1653131931.00
64.000000
-0.00
-0.00
-0.00
-0.00
-0.00
-0.00
-0.00
-0.00
-0.00
-0.00
0.00
0.01
0.01
-0.00
-0.03
-0.05
-0.05
0.00
0.13
0.36
0.66
1.01
1.37
1.72
2.06
2.40
2.79
3.24
3.80
4.42
5.06
5.66
6.20
6.68
7.15
7.68
8.31
9.14
10.09
11.04
11.88
12.56
13.14
13.76
14.65
15.96
17.91
20.32
22.90
25.38
27.58
29.57
31.68
34.32
37.81
42.54
48.15
54.10
59.83
64.97
69.58
74.14
79.34
85.71
93.76
103.00
112.62
121.73
129.77
136.75
143.30
150.75
157.77
166.64
177.95
191.79
206.97
220.57
228.25
225.36
208.53
176.87
132.76
80.05
23.07
-34.94
-92.44
-149.16
-205.23
-260.37
-313.74
-363.87
-409.83
-450.91
-486.50
-515.74
-537.23
-549.22
-549.96
-538.37
-514.21
-478.67
-433.88
-382.45
-327.02
-269.84
-212.63
-156.66
-102.95
-52.37
-5.90
35.58
71.43
101.35
125.50
144.38
158.69
169.15
176.37
180.75
182.57
182.07
179.51
175.23
169.65
163.18
156.15
148.81
141.30
133.69
126.02
118.33
110.69
103.16
95.80
88.68
81.83
75.25
68.95
62.95
57.25
51.86
46.78
42.03
37.59
33.45
29.61
26.07
22.81
19.83
17.11
14.67
12.48
10.54
8.83
7.35
6.07
4.97
4.05
3.27
2.62
2.09
1.66
1.31
1.03
0.82
0.66
0.55
0.47
0.42
0.39
0.38
0.39
0.41
0.43
0.47
0.50
0.54
0.59
0.63
0.69
0.74
0.80
0.86
0.94
1.02
1.11
1.21
1.33
1.45
1.60
1.76
1.94
2.14
2.37
2.61
2.88
3.18
3.51
3.86
4.25
4.68
5.14
5.63
6.17
6.74
7.36
8.02
8.73
9.48
10.29
11.14
12.04
12.99
13.99
15.05
16.17
17.37
18.64
19.96
21.32
22.66
23.93
25.03
25.83
26.21
26.05
25.22
23.65
21.32
18.24
14.49
10.23
5.65
0.97
-3.55
-7.70
-11.25
-14.07
-16.07
-17.21
-17.53
-17.15
-16.20
-14.85
-13.27
-11.61
-10.00
-8.54
-7.25
-6.13
-5.20
-4.43
-3.74
-3.05
-2.26
-1.25
0.07
1.78
3.96
6.50
9.35
12.47
15.85
19.49
23.44
27.72
32.37
37.44
42.67
47.91
53.08
58.18
63.26
68.42
73.76
79.41
85.50
91.69
97.79
103.73
109.59
115.50
121.65
128.20
135.19
142.61
149.71
155.94
160.91
164.41
166.36
166.50
164.13
157.64
149.21
138.86
126.39
111.77
95.37
77.91
60.28
43.19
26.91
11.31
-4.70
-21.99
-40.90
-61.11
-81.75
-101.72
-120.13
-136.55
-151.13
-165.10
-179.99
-197.54
-219.17
-245.25
-274.17
-301.99
-322.86
-330.60
-321.20
-294.13
-252.85
-203.78
-154.18
-110.01
-74.74
-49.27
-32.75
-23.72
-20.48
-21.14
-23.59
-25.76
-25.94
-23.45
-18.70
-13.05
-8.25
-5.63
-5.69
-8.00
-11.50
-15.04
-17.87
-19.77
-21.06
-22.33
-24.07
-26.47
-29.33
-32.25
-34.79
-36.71
-38.01
-38.95
-39.89
-41.11
-42.80
-44.98
-47.60
-50.48
-53.23
-55.21
-55.42
-52.77
-46.48
-36.60
-24.22
-11.29
-0.01
7.92
11.78
12.03
9.84
6.55
3.12
0.02
-2.67
-4.93
-6.61
-7.41
-7.02
-5.36
-2.73
0.23
2.81
4.52
5.27
5.31
4.96
4.30
3.09
0.96
-2.32
-6.50
-10.94
-14.92
-18.07
-20.63
-23.37
-27.16
-32.52
-39.29
-46.64
-53.41
-58.36
-60.40
-58.80
-53.17
-43.62
-30.79
-15.83
-0.12
15.06
28.85
40.92
51.37
60.45
68.41
75.44
81.75
87.57
93.07
98.17
102.60
105.91
107.84
108.50
108.38
108.16
108.34
108.99
109.72
109.90
109.00
106.80
103.50
99.53
95.28
90.93
86.28
80.81
73.93
65.28
54.97
43.58
32.03
21.40
12.78
7.10
4.91
6.22
10.33
16.02
21.92
27.05
31.23
35.05
39.44
45.03
51.69
58.55
64.37
68.17
69.59
68.93
66.95
64.41
61.82
59.23
56.17
51.71
44.70
34.19
19.79
1.96
-18.02
-38.38
-57.43
-73.97
-87.57
-98.33
-106.49
-112.09
-114.91
-114.73
-111.86
-107.37
-102.97
-100.53
-101.35
-105.68
-112.72
-121.05
-129.36
-136.83
-143.32
-148.82
-153.07
-155.20
-154.10
-148.98
-140.20
-129.48
-119.55
-113.06
-111.48
-114.34
-119.24
-122.75
-121.66
-114.02
-99.64
-79.99
-57.43
-34.47
-13.10
5.45
20.64
32.40
40.95
46.64
50.02
51.83
52.86
53.77
54.83
55.88
56.42
55.87
53.94
50.69
46.53
41.97
37.31
32.56
27.37
21.23
13.77
5.08
-4.07
-12.25
-17.76
-19.11
-15.69
-7.95
2.65
14.08
24.36
32.03
36.28
36.99
34.58
29.78
23.62
17.20
11.56
7.57
5.73
6.01
8.08
11.31
15.09
18.88
22.32
25.13
27.09
27.97
27.57
25.79
22.71
18.62
14.00
9.44
5.43
2.22
-0.19
-2.12
-4.09
-6.70
-10.45
-15.55
-21.73
-28.14
-33.44
-36.16
-35.17
-30.02
-21.20
-9.89
2.38
14.21
24.60
32.94
38.92
42.31
43.06
41.37
37.86
33.54
29.57
26.94
26.12
27.01
28.97
31.18
32.90
33.70
33.44
32.19
30.12
27.36
24.00
20.11
15.83
11.32
6.87
2.75
-0.86
-3.99
-6.87
-9.85
-13.33
-17.62
-22.87
-28.87
-35.17
-40.99
-45.31
-47.12
-45.61
-40.43
-31.86
-20.76
-8.36
4.03
15.26
24.54
31.39
35.55
37.00
35.97
32.98
28.87
24.64
21.27
19.37
19.09
20.14
21.91
23.80
25.36
26.45
27.02
27.08
26.53
25.18
22.86
19.51
15.32
10.64
5.91
1.49
-2.41
-5.82
-8.95
-12.20
-15.99
-20.73
-26.53
-33.01
-39.25
-43.90
-45.49
-42.96
-36.03
-25.33
-12.22
1.58
14.44
25.21
33.22
38.28
40.48
40.08
37.52
33.50
28.82
24.50
21.36
19.90
20.09
21.29
22.61
23.15
22.48
20.72
18.47
16.40
14.89
13.85
12.72
10.84
7.78
3.61
-1.13
-5.70
-9.51
-12.41
-14.69
-16.93
-19.71
-23.36
-27.83
-32.67
-37.09
-40.10
-40.73
-38.27
-32.50
-23.86
-13.37
-2.38
7.82
16.29
22.53
26.47
28.23
28.12
26.54
24.01
21.11
18.41
16.28
14.85
14.04
13.69
13.70
14.08
14.88
16.12
17.61
18.98
19.70
19.29
17.44
14.18
9.89
5.17
0.63
-3.32
-6.61
-9.49
-12.38
-15.69
-19.73
-24.59
-30.09
-35.77
-40.90
-44.55
-45.81
-44.13
-39.49
-32.48
-24.09
-15.32
-6.87
0.91
7.92
14.07
19.10
22.62
24.40
24.53
23.58
22.34
21.55
21.58
22.27
23.12
23.57
23.23
22.05
20.24
18.13
16.01
14.03
12.17
10.32
8.37
6.27
4.04
1.78
-0.45
-2.61
-4.76
-6.99
-9.52
-12.60
-16.58
-21.58
-27.41
-33.35
-38.23
-40.65
-39.46
-34.13
-24.97
-13.06
0.12
13.03
24.40
33.27
39.06
41.49
40.68
37.20
31.97
26.25
21.27
18.04
17.07
18.31
21.11
24.45
27.16
28.25
27.18
24.02
19.29
13.71
8.01
2.58
-2.43
-7.06
-11.35
-15.26
-18.69
-21.66
-24.35
-27.04
-29.96
-33.10
-36.10
-38.23
-38.68
-36.73
-32.11
-25.04
-16.20
-6.53
3.13
12.19
20.46
27.96
34.85
41.07
46.42
50.57
53.27
54.63
55.09
55.28
55.80
56.93
58.50
59.92
60.30
58.73
54.50
47.37
37.67
26.28
14.39
3.21
-6.22
-13.25
-17.63
-19.52
-19.51
-18.61
-18.19
-19.65
-24.05
-31.70
-41.99
-53.65
-65.10
-74.91
-82.00
-85.68
-85.64
-81.98
-75.33
-66.90
-58.17
-50.49
-44.46
-39.71
-35.18
-29.70
-22.71
-14.69
-7.01
-1.29
1.28
0.53
-2.66
-6.68
-9.91
-11.31
-10.73
-8.77
-6.37
-4.23
-2.54
-0.96
0.98
3.50
6.30
8.71
10.06
10.01
8.72
6.67
4.18
1.18
-2.84
-8.52
-16.11
-25.12
-34.27
-41.85
-46.32
-46.78
-43.31
-36.71
-28.20
-18.96
-9.84
-1.37
6.09
12.13
16.26
17.99
17.08
13.77
8.78
3.19
-1.75
-4.97
-5.68
-3.67
0.62
6.23
11.84
16.34
19.17
20.52
21.20
22.14
23.83
26.00
27.72
27.77
25.18
19.55
11.15
0.81
-10.08
-19.73
-26.22
-27.95
-24.27
-15.89
-4.68
7.06
17.53
26.25
34.03
42.30
52.15
63.50
75.14
85.28
92.30
95.46
94.84
91.18
85.40
78.33
70.66
62.97
55.87
49.96
45.74
43.41
42.81
43.32
44.01
43.97
42.53
39.45
34.99
29.75
24.35
19.24
14.50
10.00
5.49
0.76
-4.23
-9.51
-15.11
-21.21
-27.97
-35.49
-43.67
-52.10
-60.06
-66.59
-70.58
-71.08
-67.63
-60.39
-50.29
-38.70
-27.10
-16.71
-8.24
-1.99
2.01
3.83
3.61
1.68
-1.30
-4.39
-6.54
-7.01
-5.60
-2.66
0.98
4.38
6.77
7.71
7.17
5.35
2.66
-0.50
-3.85
-7.25
-10.65
-14.05
-17.40
-20.51
-23.10
-24.94
-26.01
-26.55
-27.09
-28.26
-30.54
-34.01
-38.20
-42.19
-44.77
-44.83
-41.66
-35.19
-25.97
-15.00
-3.55
7.21
16.28
22.97
26.90
28.02
26.66
23.46
19.37
15.44
12.56
11.27
11.64
13.27
15.44
17.38
18.48
18.48
17.47
15.78
13.80
11.73
9.58
7.18
4.38
1.16
-2.31
-5.68
-8.56
-10.67
-11.92
-12.53
-12.98
-13.93
-16.10
-19.93
-25.38
-31.69
-37.48
-41.07
-41.05
-36.73
-28.45
-17.42
-5.34
6.11
15.63
22.54
26.73
28.41
28.01
26.08
23.19
20.03
17.29
15.51
14.99
15.67
17.13
18.74
19.87
20.12
19.45
18.15
16.65
15.31
14.15
12.90
11.15
8.57
5.11
1.05
-3.14
-7.05
-10.47
-13.43
-16.17
-19.04
-22.37
-26.46
-31.37
-36.85
-42.17
-46.17
-47.52
-45.17
-38.80
-29.00
-17.11
-4.74
6.77
16.60
24.42
30.16
33.71
34.92
33.72
30.50
26.12
21.89
19.14
18.69
20.62
24.19
28.14
31.21
32.50
31.76
29.29
25.74
21.90
18.51
16.08
14.75
14.15
13.28
10.81
5.53
-3.15
-14.75
-27.80
-40.31
-50.49
-57.36
-60.97
-62.21
-62.18
-61.66
-60.79
-59.09
-55.87
-50.70
-43.63
-35.31
-26.65
-18.44
-11.15
-4.86
0.43
4.60
7.28
8.19
7.39
5.55
3.81
3.33
4.73
7.90
12.04
16.13
19.42
21.54
22.47
22.35
21.23
19.21
16.45
13.30
10.15
7.15
4.12
0.64
-3.63
-8.57
-13.56
-17.68
-20.23
-21.25
-21.61
-22.69
-25.86
-31.73
-39.85
-48.70
-56.14
-60.07
-59.11
-52.91
-42.22
-28.51
-13.62
0.71
13.11
22.71
29.16
32.55
33.34
32.22
29.97
27.34
24.98
23.38
22.86
23.48
25.01
27.03
28.96
30.36
31.00
30.94
30.39
29.56
28.53
27.20
25.45
23.14
20.26
16.81
12.86
8.54
4.10
-0.14
-3.91
-7.13
-10.03
-13.16
-17.14
-22.40
-28.90
-36.03
-42.70
-47.50
-49.14
-46.73
-40.06
-29.75
-17.06
-3.60
9.07
19.76
27.79
33.02
35.59
35.89
34.46
31.95
29.13
26.73
25.33
25.16
26.09
27.67
29.30
30.41
30.58
29.63
27.66
24.93
21.80
18.62
15.58
12.70
9.79
6.62
3.03
-0.93
-4.97
-8.68
-11.72
-13.99
-15.77
-17.54
-19.89
-23.27
-27.89
-33.62
-40.01
-46.27
-51.26
-53.74
-52.66
-47.57
-38.79
-27.47
-15.19
-3.54
6.35
13.98
19.32
22.62
24.12
24.11
22.91
21.08
19.28
18.17
18.13
19.12
20.69
22.21
23.11
23.11
22.23
20.74
18.98
17.20
15.43
13.53
11.28
8.48
5.11
1.34
-2.49
-6.02
-9.00
-11.44
-13.52
-15.58
-17.90
-20.70
-24.10
-28.20
-32.99
-38.27
-43.49
-47.72
-49.85
-48.92
-44.43
-36.51
-25.90
-13.70
-1.08
10.82
21.07
28.90
33.81
35.65
34.75
31.87
28.05
24.37
21.65
20.34
20.41
21.45
22.90
24.15
24.84
24.80
24.10
22.80
20.95
18.54
15.57
12.11
8.26
4.21
0.09
-4.02
-8.05
-11.95
-15.63
-19.05
-22.26
-25.50
-29.12
-33.47
-38.61
-44.21
-49.45
-53.16
-54.11
-51.41
-44.85
-34.98
-23.02
-10.49
1.29
11.37
19.24
24.74
27.85
28.67
27.49
24.88
21.70
18.89
17.24
17.12
18.39
20.52
22.84
24.74
25.86
26.10
25.53
24.28
22.46
20.11
17.24
13.89
10.13
6.15
2.23
-1.34
-4.34
-6.71
-8.60
-10.33
-12.26
-14.72
-17.86
-21.63
-25.85
-30.15
-34.01
-36.74
-37.51
-35.47
-30.06
-21.27
-9.71
3.38
16.54
28.38
37.92
44.73
48.78
50.30
49.70
47.51
44.48
41.59
39.86
40.16
42.82
47.40
52.75
57.39
60.02
59.99
57.55
53.59
49.30
45.50
42.47
39.87
37.12
33.79
29.86
25.67
21.73
18.35
15.52
12.86
9.80
5.87
0.72
-5.67
-13.12
-21.22
-29.34
-36.67
-42.26
-45.20
-44.81
-40.87
-33.76
-24.36
-13.89
-3.65
5.28
12.15
16.61
18.73
18.83
17.54
15.63
13.93
13.13
13.55
15.14
17.51
20.11
22.51
24.44
25.85
26.81
27.37
27.56
27.42
27.06
26.60
26.17
25.74
25.17
24.25
22.86
21.07
19.08
17.07
15.07
12.89
10.17
6.58
2.03
-3.22
-8.64
-13.46
-16.86
-18.02
-16.28
-11.21
-2.80
8.44
21.47
34.82
46.88
56.24
61.93
63.69
61.90
57.53
51.87
46.25
41.74
38.97
38.05
38.59
39.96
41.41
42.36
42.51
41.86
40.55
38.65
36.01
32.13
26.49
18.68
8.75
-2.77
-14.98
-26.96
-37.98
-47.76
-56.39
-64.26
-71.85
-79.54
-87.51
-95.61
-103.21
-109.39
-113.04
-113.17
-109.25
-101.47
-90.66
-78.15
-65.34
-53.47
-43.27
-35.05
-28.80
-24.32
-21.39
-19.70
-18.78
-18.06
-16.93
-14.99
-12.25
-9.10
-6.18
-4.12
-3.21
-3.38
-4.32
-5.71
-7.40
-9.42
-11.90
-14.92
-18.33
-21.89
-25.29
-28.38
-31.10
-33.50
-35.65
-37.64
-39.60
-41.78
-44.50
-47.97
-52.00
-55.93
-58.69
-59.11
-56.36
-50.28
-41.42
-30.81
-19.66
-9.04
0.22
7.61
12.76
15.53
16.03
14.74
12.45
10.18
8.83
8.96
10.59
13.21
16.08
18.42
19.76
20.02
19.45
18.39
17.14
15.79
14.21
12.15
9.40
5.92
1.83
-2.60
-7.07
-11.32
-15.22
-18.69
-21.79
-24.63
-27.49
-30.73
-34.79
-39.80
-45.38
-50.52
-53.79
-53.82
-49.92
-42.37
-32.36
-21.59
-11.57
-3.22
3.11
7.54
10.22
11.20
10.56
8.58
5.95
3.57
2.30
2.56
4.21
6.54
8.60
9.65
9.36
7.89
5.80
3.79
2.38
1.82
1.98
2.45
2.73
2.41
1.34
-0.47
-2.82
-5.58
-8.68
-12.17
-16.13
-20.59
-25.55
-30.91
-36.37
-41.42
-45.26
-46.93
-45.59
-40.82
-32.80
-22.39
-10.87
0.38
10.17
17.63
22.33
24.20
23.50
20.89
17.28
13.71
11.16
10.31
11.33
13.90
17.29
20.60
23.06
24.19
23.94
22.54
20.41
17.87
15.09
12.00
8.50
4.56
0.33
-3.82
-7.47
-10.25
-12.06
-13.07
-13.79
-14.91
-17.17
-21.13
-26.96
-34.20
-41.80
-48.26
-52.02
-51.97
-47.73
-39.73
-29.02
-16.92
-4.68
6.65
16.30
23.70
28.53
30.71
30.57
28.70
26.00
23.32
21.32
20.35
20.42
21.21
22.28
23.14
23.42
22.96
21.78
20.04
17.85
15.20
12.03
8.26
3.97
-0.63
-5.16
-9.32
-12.98
-16.16
-19.08
-21.96
-25.01
-28.41
-32.40
-37.25
-43.08
-49.69
-56.36
-61.85
-64.72
-63.78
-58.54
-49.42
-37.55
-24.49
-11.70
-0.41
8.55
14.65
17.63
17.61
15.21
11.49
7.80
5.41
5.03
6.71
9.81
13.36
16.40
18.32
18.91
18.33
16.96
15.22
13.45
11.79
10.16
8.24
5.71
2.34
-1.83
-6.57
-11.42
-15.99
-20.06
-23.69
-27.16
-30.85
-35.14
-40.24
-46.05
-52.08
-57.41
-60.83
-61.11
-57.45
-49.72
-38.68
-25.68
-12.36
-0.12
10.05
17.73
22.93
25.97
27.37
27.86
28.22
29.15
31.10
34.12
37.92
42.01
45.98
49.65
53.12
56.67
60.64
65.30
70.70
76.59
82.25
86.63
88.57
87.18
82.30
74.55
65.14
55.32
45.90
37.01
28.37
19.76
11.33
3.72
-2.23
-5.90
-7.06
-5.87
-2.60
2.49
9.17
17.08
25.57
33.78
40.82
46.07
49.36
50.84
50.79
49.20
45.76
40.03
31.85
21.67
10.70
0.58
-7.13
-11.56
-12.87
-12.15
-10.96
-10.80
-12.60
-16.49
-21.98
-28.21
-34.35
-39.87
-44.57
-48.49
-51.85
-54.88
-57.78
-60.62
-63.23
-65.01
-64.86
-61.42
-53.37
-40.13
-22.13
-0.92
21.25
42.17
60.24
74.80
85.91
94.01
99.45
102.51
103.48
102.69
100.63
97.48
92.95
86.22
76.32
62.69
45.76
27.06
8.87
-6.46
-17.25
-22.95
-24.17
-22.24
-18.77
-15.05
-11.86
-9.38
-7.42
-5.68
-3.95
-2.25
-0.67
0.73
2.04
3.37
4.80
6.20
7.28
7.63
6.84
4.58
0.56
-5.30
-12.82
-21.30
-29.59
-36.21
-39.77
-39.36
-34.88
-27.03
-17.06
-6.47
3.31
11.09
16.02
17.61
15.84
11.15
4.46
-3.05
-10.15
-15.93
-19.93
-22.25
-23.36
-23.93
-24.51
-25.42
-26.64
-27.89
-28.94
-29.69
-30.32
-31.22
-32.80
-35.26
-38.46
-42.01
-45.36
-48.04
-49.81
-50.80
-51.52
-52.74
-55.20
-59.34
-64.92
-70.88
-75.54
-77.09
-74.22
-66.59
-54.95
-40.79
-25.86
-11.68
0.68
10.53
17.42
21.13
21.83
20.18
17.47
15.16
14.47
15.89
19.07
23.02
26.57
28.87
29.61
28.93
27.21
24.77
21.77
18.21
14.01
9.19
3.95
-1.38
-6.36
-10.66
-14.14
-17.01
-19.67
-22.62
-26.32
-30.95
-36.39
-42.10
-47.18
-50.52
-50.98
-47.80
-40.82
-30.66
-18.51
-5.81
6.11
16.30
24.23
29.67
32.68
33.52
32.72
31.00
29.23
28.15
28.17
29.27
31.07
33.00
34.50
35.19
34.94
33.84
32.07
29.77
27.02
23.80
20.00
15.58
10.63
5.36
0.17
-4.61
-8.77
-12.39
-15.85
-19.70
-24.46
-30.33
-37.00
-43.55
-48.64
-50.83
-49.08
-43.05
-33.24
-20.90
-7.65
4.95
15.74
24.05
29.63
32.56
33.04
31.45
28.33
24.45
20.71
17.91
16.52
16.57
17.63
19.04
20.17
20.68
20.52
19.83
18.74
17.17
14.88
11.63
7.36
2.34
-2.94
-8.01
-12.61
-16.84
-21.08
-25.83
-31.50
-38.33
-46.17
-54.53
-62.38
-68.36
-71.02
-69.21
-62.56
-51.61
-37.75
-22.80
-8.56
3.54
12.57
18.05
19.95
18.54
14.51
8.87
2.83
-2.47
-6.24
-8.17
-8.54
-8.07
-7.70
-8.24
-10.11
-13.11
-16.43
-18.81
-18.96
-15.99
-9.75
-1.08
8.46
16.94
22.63
24.48
22.20
16.14
6.98
-4.53
-17.61
-31.25
-44.05
-54.31
-60.34
-61.00
-56.08
-46.41
-33.52
-19.30
-5.57
6.23
15.10
20.67
23.18
23.58
23.37
24.30
27.94
35.35
46.73
61.46
77.95
93.95
106.94
114.64
115.73
110.35
100.03
87.28
74.58
63.69
55.18
48.48
42.49
36.08
28.49
19.32
8.48
-3.93
-17.64
-32.08
-46.35
-59.28
-69.59
-76.19
-78.40
-76.05
-69.45
-59.28
-46.59
-32.73
-19.21
-7.56
1.04
5.93
7.22
5.67
2.44
-1.20
-4.23
-5.96
-6.10
-4.71
-2.17
0.95
3.93
6.14
7.19
7.10
6.16
4.77
3.16
1.21
-1.49
-5.40
-10.69
-17.05
-23.77
-30.01
-35.26
-39.64
-43.87
-48.89
-55.35
-63.07
-70.94
-77.25
-80.18
-78.43
-71.51
-59.91
-44.83
-27.90
-10.90
4.59
17.25
26.23
31.25
32.61
31.13
28.00
24.51
21.76
20.50
21.07
23.34
26.78
30.58
33.81
35.64
35.61
33.71
30.28
25.78
20.60
14.98
9.09
3.26
-2.05
-6.45
-9.91
-12.99
-16.64
-21.73
-28.58
-36.62
-44.48
-50.34
-52.43
-49.47
-40.96
-27.44
-10.41
7.89
24.95
38.68
47.85
52.36
52.98
50.98
47.59
43.79
40.31
37.70
36.39
36.57
38.06
40.30
42.53
44.09
44.65
44.29
43.23
41.61
39.40
36.37
32.33
27.33
21.66
15.67
9.63
3.56
-2.69
-9.36
-16.66
-24.67
-33.19
-41.60
-48.80
-53.28
-53.47
-48.34
-37.83
-23.11
-6.24
10.46
25.07
36.45
44.22
48.55
49.81
48.50
45.28
41.10
37.14
34.43
33.60
34.63
36.84
39.26
41.01
41.60
41.01
39.49
37.37
34.79
31.65
27.73
22.86
17.00
10.38
3.47
-3.18
-9.09
-13.97
-17.93
-21.39
-25.09
-29.76
-35.84
-43.18
-50.85
-57.33
-60.76
-59.60
-53.03
-41.29
-25.62
-7.95
9.63
25.26
37.59
45.96
50.24
50.82
48.44
44.14
39.10
34.52
31.34
30.06
30.62
32.43
34.63
36.37
37.11
36.78
35.61
33.97
32.03
29.73
26.80
22.96
18.14
12.59
6.70
0.90
-4.51
-9.44
-13.96
-18.27
-22.62
-27.38
-32.91
-39.40
-46.55
-53.41
-58.35
-59.54
-55.54
-45.87
-31.22
-13.23
6.04
24.68
41.24
54.76
64.61
70.46
72.46
71.27
68.14
64.56
61.76
60.32
60.02
60.10
59.68
58.14
55.29
51.31
46.62
41.68
36.87
32.49
28.61
25.01
21.26
16.79
11.14
4.16
-3.92
-12.62
-21.43
-29.91
-37.80
-45.02
-51.60
-57.68
-63.48
-69.21
-74.87
-80.07
-83.90
-85.07
-82.26
-74.70
-62.55
-46.94
-29.75
-12.97
1.74
13.41
21.65
26.55
28.36
27.46
24.45
20.20
15.84
12.53
11.14
11.97
14.68
18.42
22.23
25.30
27.19
27.83
27.37
26.04
24.05
21.56
18.70
15.62
12.38
8.95
5.22
1.05
-3.62
-8.62
-13.61
-18.16
-21.98
-25.10
-27.95
-31.30
-35.93
-42.30
-50.16
-58.43
-65.32
-68.83
-67.33
-60.22
-48.09
-32.61
-15.94
-0.14
13.35
23.81
31.12
35.44
37.03
36.23
33.57
29.85
26.12
23.44
22.49
23.38
25.59
28.15
30.06
30.61
29.61
27.39
24.48
21.42
18.48
15.60
12.53
8.92
4.58
-0.50
-6.08
-11.71
-16.89
-21.17
-24.35
-26.60
-28.41
-30.56
-33.82
-38.68
-45.15
-52.56
-59.65
-64.78
-66.36
-63.30
-55.41
-43.40
-28.82
-13.53
0.80
12.93
22.27
28.66
32.21
33.08
31.57
28.19
23.77
19.38
16.07
14.54
14.91
16.69
18.98
20.87
21.73
21.38
20.04
18.10
15.88
13.41
10.54
6.98
2.56
-2.62
-8.16
-13.54
-18.27
-22.16
-25.30
-28.10
-31.10
-34.77
-39.47
-45.31
-52.09
-59.20
-65.52
-69.62
-70.04
-65.77
-56.70
-43.69
-28.40
-12.79
1.40
13.00
21.48
26.76
29.01
28.59
26.01
22.08
17.83
14.37
12.51
12.51
13.96
16.00
17.67
18.31
17.75
16.22
14.14
11.81
9.27
6.30
2.63
-1.94
-7.38
-13.44
-19.70
-25.66
-30.98
-35.53
-39.47
-43.25
-47.42
-52.50
-58.73
-65.90
-73.23
-79.47
-83.02
-82.45
-76.83
-66.12
-51.31
-34.16
-16.75
-1.05
11.59
20.50
25.65
27.51
26.78
24.31
21.03
17.89
15.75
15.26
16.64
19.60
23.36
26.96
29.49
30.50
30.06
28.67
26.86
24.92
22.76
20.05
16.49
12.12
7.35
2.84
-0.87
-3.56
-5.50
-7.28
-9.64
-13.21
-18.30
-24.78
-32.03
-38.91
-43.92
-45.56
-42.75
-35.22
-23.66
-9.65
4.80
17.77
27.82
34.28
37.14
36.94
34.48
30.66
26.41
22.55
19.76
18.43
18.56
19.81
21.53
23.07
23.97
24.08
23.49
22.36
20.76
18.58
15.61
11.68
6.79
1.16
-4.79
-10.55
-15.70
-19.99
-23.49
-26.59
-29.94
-34.26
-39.95
-46.83
-53.92
-59.55
-61.77
-59.00
-50.52
-36.77
-19.26
-0.07
18.68
35.30
48.81
58.84
65.57
69.40
70.96
70.98
70.20
69.34
68.83
68.76
68.85
68.60
67.54
65.42
62.24
58.21
53.65
48.77
43.71
38.43
32.81
26.70
19.98
12.64
4.85
-3.10
-10.84
-18.08
-24.81
-31.34
-38.18
-45.72
-53.85
-61.70
-67.76
-70.24
-67.78
-59.95
-47.45
-31.95
-15.50
-0.05
12.95
22.66
28.73
31.18
30.36
26.97
21.98
16.57
11.87
8.75
7.58
8.22
10.13
12.45
14.40
15.33
14.98
13.39
10.83
7.62
3.97
0.01
-4.22
-8.64
-13.11
-17.43
-21.44
-25.11
-28.64
-32.44
-36.99
-42.62
-49.16
-55.82
-61.15
-63.46
-61.31
-54.05
-42.14
-26.93
-10.34
5.70
19.63
30.44
37.63
41.13
41.25
38.62
34.17
29.04
24.33
20.89
19.15
19.10
20.31
22.16
23.94
25.09
25.21
24.17
21.99
18.81
14.82
10.23
5.30
0.28
-4.52
-8.90
-12.75
-16.20
-19.55
-23.30
-27.85
-33.42
-39.75
-46.01
-50.85
-52.74
-50.39
-43.31
-32.00
-17.88
-2.87
11.17
22.86
31.44
36.75
38.95
38.39
35.57
31.20
26.26
21.86
18.96
18.06
19.04
21.21
23.63
25.43
26.20
25.84
24.52
22.34
19.25
15.11
9.92
3.94
-2.31
-8.24
-13.43
-17.81
-21.65
-25.43
-29.77
-35.21
-42.10
-50.38
-59.39
-67.86
-74.03
-76.22
-73.37
-65.52
-53.83
-40.25
-26.96
-15.75
-7.82
-3.66
-3.27
-6.22
-11.70
-18.52
-25.21
-30.28
-32.61
-31.77
-28.08
-22.47
-16.11
-10.03
-4.84
-0.66
2.76
5.83
8.85
11.89
14.75
17.06
18.44
18.70
17.93
16.45
14.72
13.06
11.44
9.48
6.53
1.97
-4.40
-12.05
-19.72
-25.64
-28.11
-26.03
-19.28
-8.75
3.98
17.13
29.11
38.86
45.81
49.78
50.91
49.54
46.22
41.76
37.08
33.10
30.49
29.52
29.95
31.18
32.42
32.99
32.49
30.87
28.30
24.98
20.94
16.13
10.53
4.40
-1.54
-6.37
-9.20
-9.76
-8.58
-6.84
-6.01
-7.28
-11.29
-17.91
-26.45
-35.75
-44.39
-50.74
-53.25
-50.80
-42.99
-30.44
-14.65
2.40
18.76
32.89
43.86
51.24
54.95
55.19
52.42
47.40
41.21
34.96
29.55
25.43
22.55
20.46
18.67
16.84
14.88
12.88
10.87
8.69
5.98
2.33
-2.44
-8.25
-14.67
-21.13
-27.14
-32.42
-36.96
-40.87
-44.46
-48.14
-52.32
-57.36
-63.25
-69.38
-74.45
-76.69
-74.47
-66.92
-54.35
-38.28
-20.90
-4.44
9.49
20.06
27.16
31.06
32.15
30.91
27.99
24.26
20.73
18.32
17.58
18.46
20.40
22.60
24.27
24.96
24.59
23.36
21.57
19.42
16.91
13.89
10.11
5.49
0.09
-5.77
-11.58
-16.91
-21.54
-25.56
-29.35
-33.51
-38.57
-44.88
-52.42
-60.71
-68.71
-74.90
-77.49
-74.93
-66.40
-52.24
-33.94
-13.83
5.63
22.44
35.42
44.21
49.06
50.46
49.06
45.62
41.07
36.51
33.04
31.44
31.93
34.04
36.79
39.03
39.86
38.99
36.69
33.65
30.51
27.58
24.66
21.24
16.81
11.17
4.60
-2.27
-8.74
-14.29
-18.78
-22.48
-25.92
-29.80
-34.84
-41.48
-49.71
-58.78
-67.24
-73.11
-74.45
-69.95
-59.43
-43.92
-25.36
-6.02
12.11
27.62
39.70
48.00
52.49
53.35
51.14
46.81
41.64
37.01
34.01
33.19
34.37
36.87
39.71
41.99
43.10
42.88
41.51
39.36
36.78
33.92
30.69
26.83
22.10
16.42
10.04
3.38
-3.02
-8.76
-13.71
-18.04
-22.14
-26.58
-31.91
-38.57
-46.66
-55.66
-64.40
-71.07
-73.74
-70.88
-61.87
-47.40
-29.17
-9.47
9.47
25.92
38.87
47.90
53.04
54.61
53.20
49.68
45.15
40.78
37.54
36.03
36.33
37.99
40.26
42.31
43.47
43.40
42.13
39.93
37.16
34.06
30.67
26.87
22.45
17.33
11.56
5.43
-0.69
-6.49
-11.77
-16.51
-20.87
-25.16
-29.80
-35.24
-41.85
-49.70
-58.26
-66.32
-72.10
-73.74
-69.87
-60.15
-45.46
-27.63
-8.90
8.71
23.74
35.44
43.54
48.08
49.29
47.68
44.05
39.47
35.15
32.09
30.87
31.50
33.49
35.96
37.97
38.77
37.99
35.74
32.47
28.81
25.27
22.04
18.93
15.58
11.66
7.02
1.86
-3.46
-8.51
-13.05
-16.97
-20.40
-23.56
-26.83
-30.66
-35.52
-41.73
-49.11
-56.80
-63.24
-66.52
-64.94
-57.66
-45.09
-28.77
-10.93
6.16
20.75
31.86
39.27
43.19
44.12
42.62
39.38
35.22
31.07
27.77
25.90
25.60
26.52
27.98
29.22
29.66
29.07
27.56
25.45
23.14
20.85
18.62
16.24
13.37
9.71
5.20
0.04
-5.27
-10.22
-14.43
-17.83
-20.65
-23.34
-26.47
-30.53
-35.90
-42.64
-50.30
-57.77
-63.45
-65.54
-62.66
-54.36
-41.35
-25.34
-8.48
7.26
20.44
30.34
36.79
39.90
39.99
37.55
33.31
28.24
23.40
19.73
17.79
17.60
18.73
20.42
21.91
22.64
22.38
21.22
19.44
17.30
14.95
12.29
9.09
5.14
0.38
-4.98
-10.49
-15.61
-19.93
-23.36
-26.14
-28.84
-32.20
-36.87
-43.22
-51.13
-59.81
-67.89
-73.61
-75.27
-71.76
-62.93
-49.72
-33.87
-17.44
-2.30
10.16
19.14
24.32
25.73
23.73
19.09
12.89
6.45
1.01
-2.67
-4.41
-4.66
-4.24
-3.91
-4.21
-5.26
-6.91
-8.87
-10.98
-13.24
-15.77
-18.67
-21.85
-24.98
-27.53
-28.98
-29.06
-27.89
-25.99
-24.13
-23.09
-23.38
-25.11
-27.92
-31.11
-33.63
-34.24
-31.61
-24.58
-12.49
4.47
25.11
47.41
69.04
88.05
103.32
114.66
122.47
127.31
129.57
129.56
127.76
125.11
122.91
122.37
124.00
127.27
130.72
132.51
131.09
125.66
116.30
103.62
88.46
71.51
53.27
34.06
14.23
-5.72
-25.12
-43.20
-59.28
-72.93
-84.17
-93.50
-101.72
-109.76
-118.28
-127.43
-136.70
-144.94
-150.64
-152.27
-148.72
-139.63
-125.48
-107.44
-87.13
-66.14
-45.85
-27.30
-11.23
1.84
11.59
17.97
21.37
22.57
22.78
23.35
25.55
30.23
37.64
47.26
57.91
68.01
75.85
80.08
79.85
75.00
65.93
53.53
38.93
23.40
8.15
-5.81
-17.88
-27.91
-36.27
-43.66
-50.97
-59.03
-68.37
-78.97
-90.10
-100.23
-107.27
-109.15
-104.56
-93.56
-77.78
-59.98
-43.14
-29.57
-20.33
-15.31
-13.76
-14.87
-18.19
-23.60
-31.01
-40.01
-49.76
-59.15
-67.21
-73.49
-78.15
-81.88
-85.52
-89.72
-94.77
-100.61
-106.99
-113.50
-119.46
-123.75
-124.89
-121.47
-112.83
-99.68
-84.18
-69.41
-58.30
-52.70
-52.80
-57.22
-63.57
-69.18
-71.71
-69.54
-61.93
-49.08
-32.09
-12.67
7.16
25.34
40.10
50.29
55.64
57.04
56.47
56.56
59.58
66.54
76.61
87.38
95.91
99.91
98.65
92.97
84.67
75.47
66.35
57.42
48.25
38.46
28.11
17.66
7.85
-0.57
-6.89
-10.47
-10.77
-7.69
-1.87
5.17
11.26
14.33
13.31
8.71
2.52
-2.47
-3.78
-0.09
8.50
20.70
34.66
48.47
60.44
69.20
73.72
73.45
68.49
59.54
47.78
34.57
21.17
8.69
-1.74
-8.96
-11.85
-9.75
-2.89
7.38
18.78
28.83
35.51
37.81
35.77
30.13
21.97
12.35
2.27
-7.43
-16.15
-23.63
-30.05
-35.88
-41.43
-46.51
-50.32
-51.60
-49.23
-42.65
-32.11
-18.58
-3.41
12.12
26.94
40.32
51.77
60.94
67.65
71.90
73.95
74.35
73.82
73.10
72.77
73.06
73.76
74.28
73.91
72.00
68.27
62.86
56.29
49.21
42.26
35.87
30.31
25.63
21.84
18.86
16.47
14.22
11.32
6.70
-0.64
-11.10
-23.98
-37.26
-48.03
-53.27
-50.90
-40.53
-23.61
-2.90
18.30
36.94
50.73
58.36
59.60
55.36
47.63
39.09
32.44
29.51
30.60
34.46
38.78
41.25
40.39
36.07
29.34
21.80
14.90
9.46
5.58
2.89
0.89
-0.83
-2.51
-4.35
-6.53
-9.24
-12.53
-16.19
-19.78
-22.88
-25.30
-27.21
-28.90
-30.43
-31.34
-30.62
-27.11
-20.08
-9.73
2.69
15.16
25.42
31.62
32.82
29.26
22.41
14.58
8.38
5.91
8.07
14.25
22.60
30.73
36.55
38.88
37.58
33.28
26.91
19.30
11.02
2.40
-6.31
-14.88
-22.90
-29.81
-34.90
-37.54
-37.46
-35.01
-31.31
-27.94
-26.50
-27.92
-31.97
-37.26
-41.58
-42.67
-38.88
-29.80
-16.29
-0.13
16.52
31.70
44.02
52.72
57.58
58.78
56.84
52.66
47.42
42.38
38.60
36.65
36.48
37.53
39.00
40.15
40.48
39.72
37.81
34.72
30.45
25.05
18.68
11.66
4.47
-2.40
-8.58
-13.95
-18.67
-23.05
-27.49
-32.34
-37.79
-43.82
-50.07
-55.81
-59.85
-60.84
-57.63
-49.72
-37.55
-22.50
-6.53
8.44
20.91
30.13
35.94
38.64
38.69
36.66
33.21
29.19
25.50
23.02
22.31
23.45
25.95
28.95
31.49
32.86
32.82
31.56
29.53
27.13
24.53
21.67
18.37
14.59
10.54
6.59
3.17
0.50
-1.48
-3.15
-5.06
-7.80
-11.86
-17.42
-24.14
-31.18
-37.16
-40.52
-39.86
-34.50
-24.61
-11.28
3.81
18.81
32.09
42.53
49.53
53.00
53.24
50.86
46.71
41.82
37.17
33.64
31.76
31.64
32.92
34.89
36.72
37.67
37.36
35.86
33.55
30.96
28.42
25.91
23.04
19.33
14.49
8.63
2.32
-3.68
-8.75
-12.66
-15.72
-18.54
-21.86
-26.26
-31.96
-38.84
-46.30
-53.40
-58.95
-61.80
-61.11
-56.71
-49.15
-39.59
-29.49
-20.23
-12.87
-7.99
-5.74
-5.88
-7.90
-11.01
-14.32
-17.01
-18.46
-18.50
-17.32
-15.40
-13.31
-11.65
-10.91
-11.40
-13.26
-16.30
-20.03
-23.78
-26.93
-29.17
-30.63
-31.78
-33.16
-35.12
-37.64
-40.41
-43.15
-45.78
-48.58
-52.04
-56.55
-62.08
-67.89
-72.57
-74.38
-71.79
-64.01
-51.35
-35.12
-17.24
0.32
16.11
29.37
39.91
47.80
53.15
55.97
56.38
54.82
52.04
49.09
46.91
46.01
46.33
47.23
47.91
47.74
46.56
44.66
42.55
40.61
38.77
36.61
33.53
29.10
23.30
16.57
9.60
3.02
-2.74
-7.60
-11.72
-15.35
-18.78
-22.27
-26.12
-30.65
-36.01
-41.99
-47.78
-52.06
-53.34
-50.47
-43.19
-32.33
-19.50
-6.61
4.79
13.86
20.45
24.75
27.05
27.51
26.21
23.50
20.04
16.81
14.79
14.61
16.30
19.22
22.38
24.73
25.59
24.76
22.55
19.54
16.33
13.32
10.61
8.04
5.33
2.24
-1.35
-5.30
-9.35
-13.12
-16.36
-18.93
-20.99
-22.91
-25.19
-28.39
-32.90
-38.75
-45.41
-51.81
-56.38
-57.56
-54.21
-46.06
-33.90
-19.30
-4.23
9.60
20.99
29.40
34.78
37.34
37.41
35.47
32.16
28.33
24.87
22.48
21.45
21.52
22.07
22.27
21.46
19.23
15.50
10.45
4.46
-2.02
-8.51
-14.63
-20.19
-25.16
-29.75
-34.15
-38.51
-42.76
-46.69
-50.08
-52.87
-55.23
-57.49
-59.99
-62.95
-66.36
-70.05
-73.64
-76.61
-78.23
-77.68
-74.18
-67.13
-56.45
-42.62
-26.70
-10.07
5.80
19.72
30.87
38.88
43.69
45.48
44.61
41.66
37.39
32.73
28.55
25.48
23.75
23.10
22.96
22.68
21.70
19.76
16.80
12.96
8.48
3.64
-1.31
-6.15
-10.73
-14.95
-18.79
-22.17
-24.97
-27.06
-28.36
-28.98
-29.40
-30.30
-32.45
-36.30
-41.61
-47.31
-51.69
-52.94
-49.78
-41.96
-30.29
-16.33
-1.82
11.73
23.31
32.23
38.03
40.42
39.43
35.67
30.29
24.81
20.61
18.52
18.64
20.38
22.86
25.19
26.74
27.14
26.33
24.41
21.57
18.09
14.21
10.12
5.92
1.68
-2.55
-6.64
-10.32
-13.29
-15.22
-15.94
-15.46
-14.12
-12.55
-11.57
-11.94
-14.05
-17.61
-21.58
-24.46
-24.75
-21.56
-14.94
-5.82
4.26
13.74
21.43
26.71
29.45
29.76
27.91
24.23
19.21
13.53
8.06
3.51
0.39
-1.26
-1.84
-1.98
-2.27
-3.05
-4.32
-5.80
-7.20
-8.40
-9.50
-10.74
-12.33
-14.30
-16.47
-18.58
-20.41
-21.89
-23.15
-24.44
-26.09
-28.42
-31.71
-35.99
-40.95
-45.77
-49.18
-49.79
-46.53
-39.06
-27.99
-14.68
-0.90
11.74
22.05
29.42
33.72
35.13
34.10
31.23
27.33
23.30
19.98
17.86
17.03
17.17
17.71
18.13
18.07
17.42
16.22
14.55
12.42
9.79
6.62
2.94
-1.04
-5.05
-8.79
-12.01
-14.70
-17.09
-19.64
-22.99
-27.73
-34.15
-42.00
-50.36
-57.74
-62.45
-63.05
-58.79
-49.85
-37.30
-22.74
-8.00
5.37
16.25
24.09
28.89
31.04
31.26
30.36
29.16
28.29
28.16
28.85
30.18
31.77
33.21
34.12
34.31
33.73
32.50
30.71
28.38
25.46
21.81
17.39
12.27
6.72
1.10
-4.18
-8.83
-12.73
-16.03
-19.12
-22.53
-26.75
-31.88
-37.47
-42.41
-45.20
-44.44
-39.39
-30.23
-18.14
-4.89
7.78
18.55
26.77
32.30
35.33
36.10
34.98
32.42
29.10
25.82
23.34
22.09
22.09
22.94
24.03
24.85
25.11
24.78
24.01
22.96
21.65
20.04
17.97
15.37
12.32
8.97
5.60
2.34
-0.82
-4.05
-7.66
-11.98
-17.18
-23.21
-29.61
-35.58
-39.98
-41.62
-39.55
-33.37
-23.45
-10.87
2.84
16.07
27.44
35.99
41.26
43.18
42.06
38.55
33.55
28.08
23.09
19.26
16.87
15.84
15.78
16.21
16.66
16.77
16.31
15.17
13.33
10.77
7.50
3.57
-0.87
-5.55
-10.15
-14.32
-17.86
-20.73
-23.13
-25.42
-28.09
-31.57
-36.12
-41.55
-47.07
-51.40
-53.02
-50.69
-43.93
-33.21
-19.84
-5.56
7.96
19.44
28.17
33.86
36.59
36.66
34.63
31.24
27.41
24.00
21.69
20.79
21.16
22.34
23.62
24.40
24.23
22.98
20.77
17.80
14.27
10.28
5.95
1.39
-3.22
-7.72
-12.02
-16.24
-20.63
-25.47
-30.97
-37.04
-43.29
-48.91
-52.86
-53.96
-51.36
-44.75
-34.57
-22.05
-8.82
3.44
13.49
20.64
24.83
26.37
25.77
23.61
20.50
17.09
14.06
11.94
11.03
11.31
12.40
13.78
14.90
15.35
14.98
13.75
11.78
9.16
6.00
2.40
-1.52
-5.56
-9.54
-13.30
-16.77
-20.08
-23.45
-27.25
-31.70
-36.71
-41.65
-45.47
-46.85
-44.68
-38.45
-28.57
-16.24
-3.18
8.90
18.71
25.55
29.34
30.39
29.25
26.59
23.16
19.76
17.09
15.67
15.63
16.74
18.50
20.35
21.77
22.48
22.36
21.41
19.62
17.03
13.71
9.81
5.56
1.26
-2.81
-6.51
-9.85
-13.01
-16.30
-20.11
-24.68
-29.96
-35.39
-39.98
-42.43
-41.59
-36.81
-28.26
-16.93
-4.34
7.84
18.22
25.89
30.44
31.96
30.86
27.87
23.82
19.65
16.18
13.95
13.15
13.60
14.91
16.52
17.88
18.55
18.25
16.87
14.44
11.12
7.16
2.88
-1.36
-5.27
-8.64
-11.41
-13.76
-15.98
-18.50
-21.72
-25.92
-31.11
-36.86
-42.30
-46.14
-47.09
-44.20
-37.25
-26.91
-14.57
-1.95
9.38
18.34
24.41
27.50
27.86
25.94
22.37
17.99
13.76
10.54
8.91
8.99
10.46
12.67
14.96
16.74
17.69
17.67
16.71
14.87
12.25
8.99
5.30
1.43
-2.37
-5.91
-9.15
-12.22
-15.46
-19.26
-23.97
-29.60
-35.63
-40.98
-44.25
-44.09
-39.74
-31.25
-19.61
-6.41
6.54
17.71
26.08
31.25
33.35
32.85
30.42
26.84
22.90
19.27
16.41
14.59
13.82
13.95
14.74
15.87
16.94
17.54
17.30
15.99
13.59
10.37
6.71
2.98
-0.55
-3.78
-6.80
-9.78
-13.00
-16.80
-21.46
-26.97
-32.84
-37.99
-40.94
-40.26
-35.08
-25.52
-12.75
1.38
14.84
26.04
34.08
38.77
40.48
39.77
37.29
33.69
29.64
25.83
22.91
21.26
20.94
21.59
22.61
23.33
23.25
22.08
19.81
16.51
12.39
7.68
2.62
-2.53
-7.55
-12.23
-16.50
-20.39
-24.11
-27.99
-32.41
-37.56
-43.13
-48.26
-51.59
-51.70
-47.63
-39.26
-27.49
-13.88
-0.26
11.81
21.29
27.65
30.83
31.08
28.96
25.27
20.95
16.94
13.97
12.40
12.26
13.30
15.03
16.93
18.46
19.18
18.86
17.40
14.97
11.80
8.15
4.19
0.03
-4.29
-8.77
-13.45
-18.43
-23.94
-30.24
-37.45
-45.41
-53.47
-60.54
-65.28
-66.54
-63.68
-56.93
-47.27
-36.25
-25.45
-16.03
-8.48
-2.66
1.95
5.81
9.11
11.69
13.36
14.14
14.49
15.18
16.95
20.11
24.37
28.95
32.91
35.50
36.34
35.39
32.82
28.89
23.95
18.58
13.56
9.64
7.30
6.47
6.44
6.11
4.32
0.31
-6.06
-14.20
-22.89
-30.50
-35.29
-35.78
-31.08
-21.25
-7.37
8.62
24.36
37.69
47.07
51.93
52.51
49.68
44.61
38.48
32.33
26.98
22.98
20.57
19.59
19.66
20.22
20.72
20.74
20.05
18.58
16.38
13.51
10.05
6.08
1.72
-2.93
-7.70
-12.41
-16.88
-20.93
-24.50
-27.70
-30.85
-34.38
-38.58
-43.34
-47.93
-51.14
-51.52
-47.99
-40.26
-28.95
-15.46
-1.54
11.24
21.70
29.21
33.56
34.88
33.59
30.34
25.96
21.37
17.39
14.59
13.16
12.94
13.45
14.11
14.39
13.95
12.67
10.65
8.04
4.96
1.44
-2.52
-6.88
-11.43
-15.89
-19.96
-23.49
-26.52
-29.35
-32.41
-36.13
-40.76
-46.22
-51.97
-56.99
-60.07
-60.02
-56.15
-48.44
-37.63
-24.99
-12.01
-0.03
9.90
17.16
21.52
23.16
22.53
20.35
17.48
14.74
12.81
12.08
12.63
14.26
16.55
19.05
21.34
23.15
24.40
25.12
25.33
24.98
23.85
21.72
18.52
14.44
9.94
5.45
1.19
-3.04
-7.82
-13.82
-21.49
-30.84
-41.34
-52.03
-61.76
-69.34
-73.75
-74.28
-70.69
-63.29
-52.92
-40.82
-28.30
-16.46
-6.11
2.24
8.21
11.47
11.89
9.70
5.66
0.92
-3.25
-5.99
-7.09
-6.97
-6.28
-5.44
-4.26
-1.91
2.90
11.57
25.18
44.10
67.65
94.09
120.84
145.09
164.46
177.57
184.13
184.70
180.13
171.18
158.44
142.38
123.63
103.16
82.15
61.96
43.87
29.02
18.19
11.61
8.91
9.11
10.92
12.98
14.18
13.75
11.26
6.57
-0.15
-8.42
-17.39
-25.89
-32.69
-36.84
-37.90
-36.16
-32.50
-28.13
-24.18
-21.38
-19.91
-19.41
-19.25
-18.87
-18.05
-16.99
-16.23
-16.32
-17.58
-19.89
-22.81
-25.75
-28.24
-30.14
-31.64
-33.13
-35.06
-37.80
-41.60
-46.44
-52.02
-57.58
-62.00
-63.93
-62.16
-56.10
-46.03
-33.15
-19.25
-6.19
4.60
12.29
16.69
18.03
16.77
13.53
9.12
4.52
0.81
-1.16
-0.97
1.14
4.37
7.63
9.93
10.68
9.82
7.75
5.08
2.34
-0.18
-2.55
-5.07
-8.06
-11.66
-15.75
-19.97
-23.89
-27.21
-29.94
-32.51
-35.66
-40.16
-46.55
-54.76
-63.91
-72.48
-78.62
-80.69
-77.85
-70.28
-59.21
-46.62
-34.72
-25.46
-20.02
-18.55
-20.08
-22.87
-24.89
-24.50
-20.86
-14.11
-5.01
5.37
16.08
26.43
35.85
43.88
50.13
54.44
57.02
58.37
59.09
59.50
59.53
58.80
56.96
54.05
50.60
47.54
45.68
45.42
46.48
48.12
49.38
49.52
48.27
45.93
43.34
41.69
42.31
46.41
54.70
67.21
83.23
101.44
120.37
138.77
155.80
170.91
183.67
193.41
199.32
200.65
196.92
188.11
174.56
156.84
135.61
111.69
86.14
60.33
35.83
14.05
-4.02
-18.01
-28.26
-35.62
-41.26
-46.42
-52.04
-58.52
-65.48
-71.89
-76.44
-78.11
-76.72
-73.15
-69.10
-66.51
-67.01
-71.30
-79.03
-88.89
-98.95
-107.07
-111.40
-110.76
-104.90
-94.58
-81.35
-67.19
-54.06
-43.50
-36.44
-33.21
-33.62
-37.00
-42.39
-48.54
-54.07
-57.83
-59.18
-58.17
-55.59
-52.54
-50.09
-48.87
-48.90
-49.76
-50.90
-51.91
-52.75
-53.68
-55.03
-57.03
-59.68
-62.76
-65.93
-68.91
-71.50
-73.64
-75.37
-76.90
-78.55
-80.73
-83.76
-87.55
-91.39
-94.00
-93.84
-89.66
-81.01
-68.38
-52.94
-36.10
-19.04
-2.72
11.98
23.94
31.90
34.82
32.51
26.01
17.41
9.11
2.85
-0.80
-2.45
-3.21
-3.89
-4.53
-4.58
-3.52
-1.46
0.76
1.94
1.28
-1.12
-4.20
-6.54
-7.17
-6.08
-4.25
-3.08
-3.61
-6.07
-9.93
-14.40
-19.02
-23.90
-29.42
-35.59
-41.57
-45.71
-46.13
-41.63
-32.36
-19.85
-6.38
5.88
15.63
22.48
26.69
28.64
28.57
26.72
23.61
20.23
17.83
17.46
19.45
23.16
27.27
30.30
31.22
29.79
26.47
22.06
17.32
12.63
8.05
3.44
-1.27
-6.04
-10.67
-14.98
-18.89
-22.47
-25.93
-29.43
-33.16
-37.17
-41.52
-46.26
-51.27
-56.17
-60.18
-62.29
-61.52
-57.33
-49.88
-39.96
-28.75
-17.36
-6.67
2.76
10.48
16.07
19.16
19.70
18.14
15.42
12.78
11.28
11.45
13.14
15.65
18.07
19.69
20.21
19.82
19.02
18.27
17.77
17.33
16.48
14.65
11.58
7.34
2.38
-2.69
-7.34
-11.32
-14.73
-17.94
-21.51
-26.01
-31.82
-38.93
-46.69
-53.87
-58.87
-60.18
-56.91
-49.12
-37.83
-24.59
-11.07
1.45
12.21
20.83
27.13
30.86
31.91
30.45
27.11
22.99
19.34
17.06
16.46
17.20
18.53
19.67
20.19
20.03
19.36
18.38
17.15
15.54
13.33
10.31
6.42
1.83
-3.15
-8.00
-12.29
-15.74
-18.44
-20.76
-23.39
-27.02
-32.19
-38.97
-46.84
-54.60
-60.62
-63.18
-61.00
-53.71
-42.01
-27.49
-12.22
1.93
13.61
22.20
27.67
30.32
30.65
29.31
27.06
24.67
22.86
22.05
22.32
23.42
24.87
26.20
27.01
27.12
26.49
25.23
23.50
21.31
18.60
15.22
10.99
5.96
0.39
-5.25
-10.56
-15.32
-19.67
-23.97
-28.75
-34.43
-41.10
-48.43
-55.57
-61.28
-64.11
-62.87
-56.90
-46.43
-32.52
-16.88
-1.38
12.34
23.13
30.50
34.49
35.59
34.50
32.06
29.18
26.67
25.20
25.13
26.46
28.77
31.36
33.45
34.44
34.07
32.52
30.13
27.32
24.25
20.88
17.05
12.66
7.88
3.09
-1.26
-4.93
-8.05
-11.17
-14.99
-20.21
-27.14
-35.58
-44.72
-53.25
-59.52
-61.96
-59.48
-51.82
-39.68
-24.53
-8.17
7.68
21.76
33.33
42.03
47.66
50.16
49.70
46.85
42.59
38.26
35.03
33.58
33.90
35.25
36.62
37.13
36.36
34.41
31.77
28.94
26.09
23.04
19.35
14.65
8.85
2.28
-4.44
-10.63
-15.81
-19.82
-22.88
-25.46
-28.27
-31.98
-37.11
-43.75
-51.29
-58.34
-62.91
-62.90
-56.87
-44.57
-27.20
-7.01
13.50
32.33
48.48
61.90
73.04
82.26
89.60
94.77
97.53
97.94
96.38
93.36
89.17
83.78
76.90
68.46
58.78
48.69
39.15
30.92
24.14
18.34
12.70
6.40
-1.01
-9.44
-18.29
-26.67
-33.71
-38.82
-41.92
-43.50
-44.55
-46.29
-49.87
-55.90
-64.12
-73.24
-81.12
-85.23
-83.43
-74.68
-59.35
-39.17
-16.51
6.35
27.89
47.41
64.75
79.70
91.72
100.07
104.20
104.18
100.82
95.43
89.23
82.96
76.67
69.97
62.38
53.72
44.30
34.76
25.83
17.97
11.15
4.93
-1.35
-8.21
-15.79
-23.73
-31.34
-37.84
-42.68
-45.81
-47.70
-49.24
-51.46
-55.21
-60.75
-67.51
-74.12
-78.72
-79.59
-75.62
-66.77
-54.01
-39.01
-23.68
-9.65
1.94
10.41
15.53
17.33
16.14
12.57
7.59
2.35
-2.04
-4.78
-5.60
-4.88
-3.44
-2.26
-2.05
-3.02
-4.87
-6.99
-8.85
-10.26
-11.39
-12.40
-13.13
-12.81
-10.26
-4.38
5.18
17.72
31.48
44.20
53.84
59.00
59.20
54.79
46.80
36.80
26.81
18.90
14.86
15.66
21.21
30.32
41.15
51.73
60.35
65.77
67.26
64.66
58.41
49.57
39.71
30.56
23.55
19.39
18.00
18.64
20.25
21.76
22.30
21.36
18.79
14.79
9.87
4.62
-0.40
-4.93
-8.98
-12.78
-16.62
-20.64
-24.89
-29.23
-33.55
-37.71
-41.79
-45.98
-50.65
-56.20
-62.76
-69.96
-76.70
-81.36
-82.20
-77.99
-68.51
-54.64
-38.15
-21.11
-5.33
8.03
18.44
25.88
30.52
32.56
32.27
30.09
26.76
23.25
20.57
19.44
20.00
21.78
23.89
25.42
25.73
24.81
23.05
21.03
19.10
17.26
15.14
12.23
8.27
3.34
-2.05
-7.22
-11.58
-14.88
-17.30
-19.33
-21.63
-24.74
-29.05
-34.65
-41.29
-48.30
-54.52
-58.45
-58.61
-53.97
-44.37
-30.67
-14.48
2.29
17.97
31.43
42.04
49.51
53.66
54.45
52.22
47.73
42.23
37.04
33.21
31.11
30.41
30.29
29.89
28.68
26.54
23.70
20.47
17.00
13.21
8.91
3.89
-1.85
-8.05
-14.27
-19.99
-24.81
-28.60
-31.55
-34.15
-37.01
-40.74
-45.79
-52.24
-59.66
-67.07
-73.00
-75.74
-73.91
-66.78
-54.67
-38.88
-21.36
-4.20
10.85
22.62
30.59
34.74
35.46
33.41
29.51
24.94
20.91
18.51
18.35
20.38
23.87
27.66
30.53
31.68
30.95
28.72
25.71
22.50
19.37
16.21
12.77
8.84
4.47
-0.10
-4.53
-8.57
-12.12
-15.31
-18.48
-22.13
-26.83
-33.02
-40.74
-49.33
-57.39
-63.01
-64.28
-60.02
-50.20
-36.05
-19.57
-2.94
12.08
24.43
33.63
39.56
42.28
41.99
39.24
35.04
30.65
27.34
25.93
26.52
28.54
31.00
32.88
33.53
32.73
30.66
27.69
24.19
20.37
16.27
11.86
7.06
1.90
-3.45
-8.75
-13.71
-18.10
-21.84
-25.00
-27.82
-30.69
-34.08
-38.44
-44.05
-50.90
-58.45
-65.59
-70.80
-72.56
-69.79
-62.34
-51.16
-38.01
-25.02
-14.07
-6.44
-2.65
-2.69
-6.16
-12.48
-20.89
-30.46
-40.09
-48.63
-55.21
-59.41
-61.35
-61.67
-61.20
-60.59
-59.98
-58.86
-56.20
-50.81
-41.75
-28.75
-12.24
6.68
26.60
46.14
64.17
79.86
92.66
102.16
108.09
110.39
109.09
104.37
96.44
85.37
71.14
53.72
33.38
10.95
-11.95
-33.07
-49.95
-60.59
-64.07
-60.78
-52.30
-40.78
-28.33
-16.45
-5.91
3.20
11.10
18.12
24.51
30.59
36.92
44.39
54.19
67.29
83.90
102.92
121.84
137.31
146.12
146.38
138.21
123.66
105.86
87.90
71.79
58.10
46.28
35.31
24.47
13.60
3.11
-6.44
-14.71
-21.76
-28.06
-34.19
-40.58
-47.38
-54.59
-62.20
-70.28
-78.91
-87.81
-96.14
-102.46
-105.09
-102.73
-95.06
-83.05
-68.61
-53.98
-41.02
-30.71
-23.18
-18.02
-14.69
-12.72
-11.65
-10.82
-9.24
-5.69
0.90
11.08
24.54
40.18
56.33
71.23
83.41
92.05
96.95
98.45
97.18
93.73
88.53
81.83
73.85
64.86
55.31
45.82
36.96
29.10
22.27
16.16
10.29
4.17
-2.55
-10.09
-18.50
-27.64
-37.01
-45.63
-52.10
-54.90
-52.89
-45.78
-34.40
-20.40
-5.82
7.64
18.80
27.09
32.31
34.47
33.74
30.62
26.06
21.31
17.65
15.96
16.49
18.78
21.98
25.16
27.65
29.12
29.59
29.23
28.18
26.50
24.13
20.99
17.09
12.58
7.66
2.56
-2.54
-7.57
-12.44
-17.12
-21.58
-25.90
-30.32
-35.21
-40.91
-47.44
-54.19
-59.92
-63.01
-61.98
-56.06
-45.52
-31.63
-16.31
-1.56
10.99
20.32
26.03
28.11
26.93
23.13
17.67
11.74
6.54
2.91
1.16
1.04
1.87
2.92
3.66
3.85
3.51
2.75
1.57
-0.13
-2.59
-6.01
-10.48
-15.96
-22.24
-29.06
-36.13
-43.28
-50.42
-57.60
-65.01
-72.89
-81.35
-90.14
-98.53
-105.29
-108.90
-108.07
-102.18
-91.59
-77.65
-62.33
-47.66
-35.14
-25.41
-18.17
-12.40
-6.75
0.14
9.25
21.08
35.47
51.76
68.80
85.18
99.44
110.29
116.84
118.78
116.40
110.48
102.11
92.35
82.03
71.67
61.50
51.61
42.00
32.73
23.85
15.33
6.95
-1.70
-11.03
-21.17
-31.64
-41.24
-48.24
-50.93
-48.18
-39.95
-27.34
-12.27
3.02
16.55
26.85
33.07
34.88
32.44
26.32
17.57
7.65
-1.79
-9.30
-13.94
-15.59
-14.84
-12.74
-10.40
-8.66
-7.99
-8.49
-10.10
-12.66
-16.02
-19.98
-24.24
-28.49
-32.47
-36.08
-39.45
-42.98
-47.16
-52.48
-59.04
-66.33
-73.13
-77.67
-78.09
-73.10
-62.50
-47.31
-29.52
-11.42
4.91
18.01
27.15
32.17
33.31
31.22
26.85
21.38
16.08
12.07
10.11
10.55
13.28
17.78
23.26
28.79
33.50
36.76
38.43
38.70
38.01
36.65
34.58
31.51
27.12
21.28
14.25
6.46
-1.81
-10.59
-20.13
-30.49
-41.09
-50.46
-56.64
-57.77
-52.93
-42.56
-28.36
-12.74
1.87
13.66
21.64
25.63
25.99
23.45
18.95
13.52
8.23
3.95
1.28
0.41
1.09
2.80
4.92
6.90
8.28
8.72
8.01
6.03
2.85
-1.30
-6.02
-10.82
-15.30
-19.23
-22.68
-26.04
-29.91
-34.89
-41.23
-48.55
-55.62
-60.55
-61.32
-56.48
-45.81
-30.42
-12.50
5.40
21.08
33.12
41.04
44.97
45.42
43.09
38.78
33.43
28.06
23.62
20.80
19.85
20.51
22.21
24.15
25.57
25.89
24.82
22.35
18.70
14.26
9.44
4.61
-0.05
-4.53
-8.95
-13.48
-18.32
-23.66
-29.64
-36.27
-43.28
-49.98
-55.12
-57.12
-54.48
-46.38
-33.11
-16.18
2.02
18.95
32.55
41.69
46.21
46.62
43.83
38.89
32.93
27.11
22.56
20.04
19.79
21.35
23.74
25.85
26.85
26.42
24.74
22.28
19.47
16.43
13.05
9.08
4.39
-0.88
-6.39
-11.67
-16.39
-20.45
-24.03
-27.49
-31.33
-36.02
-41.86
-48.79
-56.17
-62.73
-66.74
-66.54
-61.05
-50.34
-35.59
-18.82
-2.17
12.62
24.50
33.04
38.19
40.06
39.00
35.65
31.10
26.69
23.75
23.12
24.95
28.63
33.10
37.20
40.06
41.26
40.89
39.36
37.16
34.65
31.94
28.90
25.26
20.84
15.66
9.99
4.23
-1.21
-6.09
-10.37
-14.19
-17.77
-21.33
-25.15
-29.55
-34.88
-41.36
-48.75
-56.14
-61.95
-64.30
-61.60
-53.21
-39.80
-23.13
-5.59
10.62
23.97
33.84
40.32
43.84
44.91
44.05
41.87
39.13
36.72
35.48
35.89
37.93
41.04
44.31
46.81
47.87
47.30
45.33
42.43
39.15
35.83
32.62
29.48
26.26
22.85
19.17
15.22
11.13
7.05
3.18
-0.40
-3.69
-6.87
-10.21
-14.01
-18.61
-24.31
-31.25
-39.21
-47.40
-54.38
-58.32
-57.52
-51.02
-39.14
-23.41
-6.17
10.21
23.96
34.18
40.75
43.99
44.37
42.44
38.87
34.53
30.43
27.50
26.37
27.12
29.34
32.26
35.01
36.88
37.44
36.58
34.42
31.24
27.42
23.30
19.16
15.13
11.19
7.28
3.28
-0.87
-5.15
-9.47
-13.69
-17.69
-21.35
-24.69
-27.86
-31.16
-35.02
-39.89
-45.88
-52.66
-59.20
-63.96
-65.26
-61.80
-53.21
-40.18
-24.35
-7.78
7.58
20.35
29.79
35.70
38.22
37.73
34.87
30.49
25.66
21.53
18.99
18.49
19.97
22.82
26.19
29.17
31.03
31.37
30.12
27.59
24.27
20.70
17.28
14.14
11.14
8.02
4.52
0.55
-3.78
-8.16
-12.31
-15.98
-19.15
-21.96
-24.72
-27.82
-31.67
-36.63
-42.75
-49.68
-56.47
-61.69
-63.75
-61.36
-54.09
-42.53
-28.24
-13.25
0.56
11.86
20.08
25.22
27.58
27.53
25.43
21.78
17.32
12.98
9.72
8.24
8.73
10.82
13.69
16.34
17.89
17.83
16.06
12.87
8.76
4.23
-0.36
-4.92
-9.55
-14.48
-19.92
-25.94
-32.39
-38.93
-45.08
-50.39
-54.52
-57.41
-59.26
-60.59
-62.14
-64.74
-69.10
-75.47
-83.35
-91.36
-97.44
-99.38
-95.53
-85.40
-69.97
-51.37
-32.16
-14.54
0.09
11.16
18.56
22.29
22.29
18.72
12.22
4.07
-4.08
-10.70
-14.94
-16.82
-17.11
-16.88
-16.98
-17.92
-19.86
-22.75
-26.47
-30.88
-35.75
-40.84
-45.99
-51.17
-56.55
-62.39
-68.85
-75.81
-82.92
-89.69
-95.67
-100.54
-104.17
-106.61
-108.05
-108.89
-109.75
-111.25
-113.64
-116.40
-118.02
-116.33
-109.30
-95.97
-77.09
-54.97
-32.59
-12.54
3.93
16.85
27.08
35.37
41.98
46.63
49.12
49.79
49.60
49.84
51.54
55.10
60.30
66.59
73.41
80.37
87.08
93.05
97.64
100.36
101.01
99.83
97.29
93.81
89.59
84.68
79.28
74.05
70.09
68.49
69.81
73.58
78.31
81.91
82.43
78.74
70.90
60.09
48.19
37.35
29.48
25.99
27.56
34.12
44.86
58.44
73.23
87.64
100.57
111.40
119.91
125.96
129.20
129.14
125.38
118.09
108.20
97.34
87.21
78.96
72.69
67.45
61.63
53.69
42.67
28.53
12.06
-5.58
-23.14
-39.66
-54.53
-67.45
-78.31
-87.04
-93.63
-98.22
-101.11
-102.89
-104.30
-106.09
-108.97
-113.44
-119.57
-126.89
-134.18
-139.61
-141.19
-137.41
-127.82
-113.25
-95.57
-77.12
-60.12
-46.30
-36.78
-31.95
-31.33
-33.33
-35.36
-34.43
-28.15
-15.69
1.76
21.53
40.53
56.47
68.51
76.96
82.60
85.94
87.03
85.69
82.07
76.85
71.02
65.36
59.93
54.14
47.17
38.68
29.27
20.28
13.15
8.59
6.20
4.68
2.79
0.23
-1.86
-1.41
3.65
14.16
29.29
46.78
63.69
77.28
85.36
86.51
80.17
66.77
48.01
26.76
6.50
-9.72
-20.13
-24.66
-24.60
-21.75
-17.66
-13.22
-8.76
-4.36
-0.12
3.82
7.29
10.10
12.08
13.10
13.24
12.90
12.83
13.77
16.21
20.01
24.56
29.05
32.86
35.67
37.43
38.19
38.02
37.22
36.49
36.92
39.69
45.53
54.24
64.61
74.74
82.76
87.33
87.98
84.96
78.93
70.65
60.81
50.08
39.14
28.73
19.44
11.65
5.35
0.27
-4.04
-7.95
-11.70
-15.35
-18.91
-22.33
-25.61
-28.74
-31.65
-34.19
-36.15
-37.33
-37.52
-36.67
-34.81
-32.14
-28.93
-25.48
-21.97
-18.44
-14.63
-10.05
-4.07
3.90
14.14
26.45
40.05
53.80
66.36
76.64
83.99
88.20
89.43
88.04
84.44
79.17
72.83
66.18
59.95
54.68
50.55
47.37
44.62
41.65
37.87
32.88
26.53
18.88
10.15
0.62
-9.39
-19.65
-29.91
-39.95
-49.48
-58.14
-65.59
-71.65
-76.45
-80.41
-84.10
-87.93
-91.75
-94.83
-96.04
-94.33
-89.21
-81.04
-70.82
-59.78
-48.91
-38.76
-29.50
-21.34
-14.64
-9.94
-7.64
-7.63
-9.18
-11.09
-12.18
-11.72
-9.66
-6.54
-3.20
-0.37
1.58
2.64
3.01
2.87
2.24
0.95
-1.17
-4.18
-7.81
-11.61
-15.07
-17.93
-20.30
-22.65
-25.54
-29.34
-33.85
-38.34
-41.63
-42.44
-39.80
-33.31
-23.23
-10.38
4.06
18.78
32.54
44.30
53.27
59.02
61.43
60.78
57.64
52.87
47.46
42.30
38.09
35.14
33.42
32.65
32.53
32.91
33.84
35.41
37.62
40.14
42.41
43.76
43.70
42.03
38.84
34.34
28.72
22.14
14.79
6.92
-1.16
-9.32
-17.60
-26.26
-35.44
-44.83
-53.54
-60.25
-63.68
-63.12
-58.69
-51.24
-42.03
-32.24
-22.73
-14.00
-6.38
-0.27
3.92
5.86
5.55
3.45
0.42
-2.59
-4.78
-5.75
-5.58
-4.71
-3.78
-3.34
-3.74
-5.00
-7.00
-9.51
-12.39
-15.68
-19.49
-23.83
-28.44
-32.69
-35.70
-36.67
-35.12
-31.14
-25.36
-18.84
-12.86
-8.71
-7.43
-9.59
-15.02
-22.72
-30.98
-37.73
-41.15
-40.34
-35.61
-28.44
-21.02
-15.45
-13.10
-14.26
-18.20
-23.64
-29.34
-34.46
-38.62
-41.66
-43.43
-43.65
-42.14
-39.01
-34.84
-30.51
-26.86
-24.28
-22.64
-21.39
-19.93
-17.96
-15.53
-12.98
-10.77
-9.22
-8.53
-8.72
-9.68
-11.17
-12.89
-14.66
-16.49
-18.72
-21.82
-26.20
-31.85
-38.32
-44.78
-50.21
-53.70
-54.53
-52.24
-46.72
-38.23
-27.59
-16.01
-4.96
4.26
10.87
14.85
16.86
17.90
19.00
20.89
23.90
27.98
32.83
37.99
43.02
47.55
51.30
54.08
55.69
55.81
54.16
50.55
45.23
38.97
32.89
28.21
25.68
25.30
26.30
27.43
27.51
25.85
22.32
17.15
10.60
2.80
-6.10
-15.61
-24.67
-31.65
-34.87
-33.18
-26.53
-16.05
-3.66
8.54
18.98
26.89
32.25
35.40
36.79
36.72
35.46
33.39
31.16
29.63
29.67
31.80
35.95
41.40
47.03
51.71
54.71
55.88
55.60
54.47
52.96
51.21
49.07
46.28
42.76
38.67
34.37
30.24
26.50
23.15
20.03
16.96
13.79
10.44
6.81
2.67
-2.24
-8.06
-14.52
-20.88
-26.04
-29.04
-29.43
-27.48
-23.97
-19.81
-15.64
-11.73
-8.22
-5.40
-3.89
-4.34
-7.11
-11.90
-17.74
-23.30
-27.39
-29.31
-28.95
-26.67
-23.11
-19.01
-15.20
-12.52
-11.61
-12.65
-15.14
-18.03
-20.06
-20.29
-18.54
-15.41
-12.01
-9.44
-8.30
-8.64
-10.10
-12.20
-14.58
-17.09
-19.64
-22.13
-24.55
-26.93
-29.30
-31.53
-33.16
-33.44
-31.62
-27.37
-20.96
-13.15
-4.80
3.51
11.65
19.67
27.35
33.95
38.43
39.95
38.42
34.72
30.39
26.88
25.01
24.68
25.20
25.74
25.84
25.57
25.36
25.60
26.37
27.27
27.51
26.15
22.33
15.55
5.87
-5.95
-18.52
-30.09
-39.01
-44.35
-46.18
-45.61
-44.43
-44.51
-47.20
-53.00
-61.54
-71.67
-81.79
-90.11
-94.91
-94.92
-89.62
-79.43
-65.62
-50.00
-34.43
-20.33
-8.41
1.28
9.12
15.60
21.13
25.99
30.45
34.73
39.04
43.44
47.71
51.45
54.18
55.56
55.56
54.39
52.33
49.55
46.07
41.79
36.75
31.28
26.00
21.57
18.33
16.10
14.28
12.08
8.92
4.69
-0.35
-5.73
-11.06
-16.16
-20.99
-25.61
-30.14
-34.81
-39.94
-45.73
-52.02
-57.98
-62.27
-63.48
-60.79
-54.45
-45.78
-36.68
-28.86
-23.32
-20.07
-18.40
-17.41
-16.35
-14.91
-13.18
-11.39
-9.78
-8.50
-7.62
-7.26
-7.69
-9.29
-12.51
-17.61
-24.58
-33.06
-42.50
-52.35
-62.17
-71.74
-80.85
-89.29
-96.70
-102.61
-106.54
-108.02
-106.55
-101.47
-92.06
-77.75
-58.55
-35.32
-9.85
15.68
39.28
59.75
76.75
90.54
101.44
109.53
114.63
116.60
115.68
112.60
108.34
103.80
99.48
95.35
90.96
85.75
79.25
71.34
62.45
53.41
45.26
38.94
34.81
32.57
31.35
30.07
27.82
24.18
19.28
13.76
8.45
4.15
1.29
-0.22
-1.08
-2.37
-5.15
-9.93
-16.34
-23.13
-28.63
-31.43
-30.85
-27.09
-20.87
-13.10
-4.61
3.82
11.32
16.93
19.91
20.06
17.90
14.57
11.33
9.08
8.25
8.74
10.27
12.42
14.70
16.46
17.06
16.08
13.60
10.27
6.89
4.10
1.91
-0.21
-3.11
-7.53
-13.90
-22.17
-31.85
-42.04
-51.46
-58.63
-62.30
-61.85
-57.76
-51.51
-45.11
-40.18
-37.37
-36.05
-34.68
-31.62
-25.87
-17.54
-7.73
2.04
10.35
16.39
19.92
21.19
20.61
18.74
16.26
14.06
13.13
14.36
18.07
23.89
30.66
36.82
40.92
42.18
40.79
37.88
35.10
34.01
35.54
39.78
46.09
53.55
61.29
68.75
75.55
81.30
85.38
87.03
85.64
81.11
74.07
65.70
57.36
50.10
44.31
39.76
35.84
31.91
27.62
22.96
18.12
13.35
8.88
4.90
1.77
0.03
0.38
3.41
9.33
17.80
27.97
38.64
48.60
56.79
62.38
64.63
62.77
55.96
43.53
25.54
3.14
-21.02
-43.23
-59.65
-67.65
-66.93
-59.65
-49.67
-40.98
-36.13
-35.52
-37.66
-40.24
-41.32
-40.00
-36.34
-30.87
-24.13
-16.60
-8.85
-1.80
3.31
5.43
4.21
0.26
-4.81
-8.83
-9.79
-6.54
0.66
9.87
18.05
21.99
19.61
10.86
-2.18
-16.32
-28.74
-38.26
-45.65
-52.83
-61.38
-71.43
-81.44
-89.14
-92.74
-91.93
-87.83
-82.35
-77.20
-73.32
-70.86
-69.54
-69.00
-68.97
-69.26
-69.49
-69.12
-67.58
-64.48
-59.93
-54.53
-49.30
-45.45
-43.93
-45.02
-48.05
-51.38
-52.82
-50.29
-42.49
-29.39
-12.20
6.92
25.49
41.27
52.87
59.91
62.98
63.32
62.35
61.14
60.08
58.63
55.44
48.89
37.67
21.54
1.73
-19.28
-38.44
-53.09
-61.86
-64.86
-63.40
-59.31
-54.25
-49.38
-45.53
-43.30
-43.14
-45.21
-49.00
-53.40
-56.96
-58.50
-57.51
-54.47
-50.47
-46.74
-44.25
-43.44
-44.33
-46.67
-50.05
-53.84
-57.14
-59.00
-58.73
-56.20
-51.75
-45.73
-37.99
-27.66
-13.69
4.26
25.09
46.25
64.61
77.70
84.73
86.72
85.69
83.68
81.78
80.15
78.35
75.92
72.60
68.16
62.16
53.91
42.76
28.61
12.21
-4.88
-20.74
-33.72
-42.86
-48.04
-49.84
-49.28
-47.63
-46.23
-46.26
-48.50
-53.05
-59.11
-65.16
-69.36
-70.12
-66.62
-59.01
-48.30
-35.95
-23.44
-11.85
-1.80
6.51
13.10
17.96
21.04
22.27
21.63
19.12
14.91
9.38
3.45
-1.35
-3.03
0.14
8.91
22.39
38.19
53.14
64.48
70.82
72.32
70.28
66.29
61.47
56.29
50.83
45.07
39.20
33.55
28.27
23.21
17.84
11.50
3.82
-4.89
-13.48
-20.17
-23.05
-20.80
-13.29
-1.66
12.05
25.60
37.19
45.90
51.51
54.32
54.76
53.28
50.38
46.73
43.19
40.63
39.67
40.48
42.68
45.57
48.37
50.54
51.86
52.46
52.58
52.42
51.98
51.02
49.27
46.55
42.89
38.67
34.37
30.44
27.14
24.42
21.93
19.17
15.66
11.18
5.94
0.66
-3.58
-5.58
-4.35
0.61
9.21
20.76
34.13
47.95
60.90
71.80
79.77
84.25
84.97
82.01
75.86
67.47
58.31
50.03
44.14
41.58
42.32
45.47
49.52
52.88
54.26
52.83
48.09
39.72
27.53
11.70
-6.93
-26.77
-45.66
-61.57
-73.24
-80.68
-85.09
-88.34
-92.26
-97.94
-105.52
-114.23
-122.80
-129.78
-133.87
-134.10
-129.92
-121.42
-109.33
-95.03
-80.24
-66.72
-55.81
-48.22
-43.91
-42.19
-41.99
-42.13
-41.71
-40.27
-37.86
-34.91
-31.94
-29.33
-27.20
-25.58
-24.50
-24.19
-25.07
-27.50
-31.60
-36.97
-42.82
-48.06
-51.78
-53.41
-52.89
-50.60
-47.10
-43.00
-38.88
-35.24
-32.48
-30.74
-29.68
-28.42
-25.58
-19.72
-9.93
3.81
20.44
38.20
55.10
69.46
80.17
86.70
89.01
87.47
82.84
76.23
68.97
62.35
57.29
54.13
52.65
52.26
52.22
52.02
51.31
49.93
47.80
44.83
40.86
35.82
29.77
23.01
16.06
9.47
3.63
-1.39
-5.93
-10.58
-16.02
-22.75
-30.90
-40.02
-49.11
-56.62
-60.82
-60.22
-54.06
-42.67
-27.48
-10.63
5.61
19.40
29.63
35.92
38.45
37.73
34.55
29.88
24.77
20.23
16.99
15.39
15.34
16.42
18.05
19.61
20.60
20.64
19.55
17.34
14.19
10.36
6.08
1.51
-3.23
-7.99
-12.64
-17.08
-21.45
-26.10
-31.50
-37.87
-44.85
-51.29
-55.52
-55.84
-51.12
-41.35
-27.67
-12.02
3.40
16.74
26.90
33.46
36.64
36.95
35.07
31.71
27.63
23.62
20.31
18.12
17.19
17.29
18.01
18.89
19.59
19.97
20.10
20.07
19.99
19.78
19.30
18.29
16.56
14.01
10.65
6.49
1.42
-4.75
-12.24
-21.03
-30.53
-39.54
-46.35
-49.27
-47.18
-39.96
-28.58
-14.72
-0.28
13.15
24.54
33.34
39.32
42.48
43.08
41.71
39.34
37.12
36.03
36.62
38.92
42.53
46.91
51.61
56.32
60.81
64.87
68.20
70.46
71.40
70.88
68.94
65.76
61.64
56.96
52.22
47.94
44.45
41.71
39.22
36.11
31.62
25.64
18.99
13.35
10.71
12.65
19.75
31.45
46.35
62.74
79.05
94.26
107.84
119.73
130.15
139.45
147.95
155.81
162.93
168.78
172.42
172.60
167.98
157.62
141.41
120.32
96.27
71.55
48.05
26.70
7.31
-10.94
-28.89
-46.89
-64.62
-81.44
-96.72
-110.17
-121.80
-131.86
-140.65
-148.47
-155.53
-161.86
-167.06
-170.28
-170.37
-166.27
-157.49
-144.42
-128.20
-110.34
-92.36
-75.44
-60.51
-48.33
-39.52
-34.40
-32.73
-33.56
-35.47
-36.99
-37.07
-35.48
-32.64
-29.42
-26.57
-24.50
-23.19
-22.37
-21.78
-21.36
-21.31
-21.93
-23.51
-26.16
-29.77
-34.01
-38.43
-42.66
-46.45
-49.79
-52.89
-56.16
-60.12
-65.20
-71.53
-78.74
-85.82
-91.24
-93.23
-90.33
-81.87
-68.31
-51.13
-32.45
-14.47
1.07
13.15
21.43
26.03
27.39
26.16
23.18
19.42
15.93
13.51
12.57
12.98
14.19
15.50
16.32
16.42
15.87
14.91
13.64
12.00
9.72
6.55
2.41
-2.51
-7.84
-13.13
-18.06
-22.43
-26.27
-29.77
-33.33
-37.43
-42.56
-48.99
-56.47
-64.05
-70.14
-72.89
-70.71
-62.90
-49.89
-33.18
-14.82
3.10
19.01
31.89
41.22
46.82
48.70
47.21
43.15
37.82
32.73
29.21
27.89
28.55
30.25
31.79
32.26
31.34
29.30
26.68
23.94
21.19
18.20
14.61
10.19
5.01
-0.63
-6.28
-11.64
-16.61
-21.32
-26.01
-30.97
-36.49
-42.81
-50.01
-57.91
-65.76
-72.32
-75.99
-75.24
-69.20
-57.99
-42.79
-25.46
-8.10
7.52
20.18
29.32
34.86
37.11
36.65
34.27
30.91
27.55
24.96
23.60
23.53
24.41
25.67
26.72
27.12
26.67
25.44
23.67
21.62
19.36
16.76
13.54
9.48
4.56
-0.94
-6.57
-11.91
-16.78
-21.29
-25.85
-30.94
-37.03
-44.35
-52.75
-61.56
-69.50
-74.88
-75.94
-71.49
-61.34
-46.47
-28.84
-10.70
5.93
19.69
29.90
36.38
39.27
38.98
36.26
32.21
28.12
25.16
23.99
24.54
26.21
28.12
29.56
30.23
30.23
29.81
29.12
28.08
26.34
23.56
19.57
14.49
8.67
2.55
-3.51
-9.28
-14.69
-19.80
-24.77
-29.94
-35.76
-42.62
-50.56
-58.93
-66.36
-71.02
-71.20
-65.93
-55.43
-41.03
-24.73
-8.57
5.86
17.56
26.10
31.30
33.18
31.95
28.17
22.77
16.96
11.87
8.29
6.38
5.74
5.63
5.32
4.29
2.35
-0.50
-4.22
-8.85
-14.50
-21.29
-29.12
-37.72
-46.63
-55.35
-63.52
-71.08
-78.19
-85.22
-92.53
-100.27
-108.24
-115.82
-122.03
-125.73
-125.85
-121.62
-112.60
-98.71
-80.22
-57.76
-32.34
-5.37
21.56
46.82
69.01
87.02
99.98
107.32
108.80
104.90
97.00
87.39
78.72
73.19
71.75
73.96
78.36
83.39
88.06
92.23
96.21
100.16
103.61
105.52
104.79
100.86
94.00
85.12
75.27
64.98
54.14
42.19
28.79
14.40
0.46
-10.90
-17.62
-18.61
-14.11
-5.72
4.27
13.61
20.63
24.46
24.85
21.88
15.90
7.46
-2.53
-12.90
-22.42
-30.07
-35.25
-37.74
-37.62
-35.15
-30.76
-25.15
-19.25
-14.11
-10.57
-9.02
-9.34
-11.02
-13.51
-16.47
-19.82
-23.61
-27.86
-32.45
-37.20
-41.94
-46.61
-51.14
-55.21
-58.14
-58.81
-56.05
-48.96
-37.30
-21.72
-3.61
15.18
32.85
47.97
59.80
68.15
73.26
75.58
75.64
74.08
71.77
69.78
69.24
71.00
75.37
82.05
90.28
99.14
107.75
115.28
120.91
123.73
122.91
117.91
108.75
95.97
80.39
62.76
43.50
22.75
0.58
-22.76
-46.69
-70.25
-92.20
-111.01
-124.99
-132.53
-132.44
-124.39
-109.21
-88.80
-65.74
-42.69
-21.89
-4.86
7.48
14.76
17.04
14.88
9.45
2.41
-4.47
-9.69
-12.45
-12.74
-11.20
-8.72
-6.16
-4.14
-3.07
-3.14
-4.40
-6.78
-10.02
-13.78
-17.70
-21.53
-25.11
-28.44
-31.57
-34.64
-37.92
-41.78
-46.60
-52.49
-59.03
-65.09
-69.04
-69.15
-64.29
-54.27
-39.93
-22.76
-4.39
13.77
30.58
45.06
56.21
63.09
65.15
62.49
56.05
47.41
38.33
30.28
24.07
19.85
17.24
15.58
14.17
12.37
9.72
6.00
1.26
-4.23
-10.00
-15.55
-20.48
-24.64
-28.13
-31.32
-34.72
-38.90
-44.29
-50.95
-58.44
-65.67
-71.01
-72.67
-69.22
-60.12
-45.96
-28.42
-9.83
7.48
21.62
31.47
36.72
37.74
35.41
30.90
25.49
20.40
16.65
14.90
15.39
17.94
21.94
26.43
30.31
32.69
33.17
32.00
30.01
28.18
27.22
27.23
27.72
27.96
27.30
25.41
22.18
17.49
11.08
2.62
-7.88
-19.59
-30.72
-38.89
-41.87
-38.44
-28.91
-15.07
0.47
15.17
27.19
35.68
40.53
41.94
40.18
35.49
28.37
19.74
10.95
3.42
-1.80
-4.34
-4.61
-3.48
-1.92
-0.66
-0.03
-0.15
-0.98
-2.55
-4.89
-8.02
-11.82
-16.04
-20.38
-24.51
-28.22
-31.47
-34.48
-37.74
-41.84
-47.21
-53.73
-60.46
-65.75
-67.63
-64.51
-55.82
-42.27
-25.64
-8.14
8.23
22.07
32.72
40.07
44.30
45.80
45.14
43.14
40.82
39.15
38.81
39.94
42.12
44.55
46.37
46.97
46.19
44.26
41.64
38.66
35.42
31.71
27.17
21.62
15.23
8.49
2.10
-3.46
-8.10
-12.23
-16.63
-22.08
-29.06
-37.33
-45.86
-52.98
-56.79
-55.77
-49.29
-37.82
-22.78
-6.12
10.22
24.68
36.15
44.00
47.94
48.07
45.02
39.92
34.24
29.40
26.36
25.38
26.04
27.52
28.93
29.60
29.27
27.98
25.98
23.53
20.71
17.51
13.75
9.35
4.33
-1.03
-6.34
-11.19
-15.38
-18.99
-22.41
-26.20
-30.98
-37.10
-44.44
-52.18
-58.86
-62.65
-61.90
-55.70
-44.23
-28.84
-11.59
5.26
19.82
30.85
37.81
40.73
40.11
36.80
31.90
26.64
22.14
19.15
17.91
18.20
19.47
21.15
22.78
24.05
24.78
24.83
23.96
21.98
18.76
14.37
9.14
3.58
-1.75
-6.40
-10.14
-13.09
-15.74
-18.81
-23.15
-29.44
-37.83
-47.65
-57.36
-64.82
-67.86
-65.04
-56.18
-42.51
-26.27
-10.05
3.89
14.12
20.10
22.03
20.62
16.83
11.75
6.43
1.73
-1.92
-4.55
-6.63
-8.79
-11.52
-14.94
-18.85
-22.86
-26.75
-30.59
-34.72
-39.56
-45.35
-52.04
-59.27
-66.61
-73.64
-79.97
-85.19
-88.85
-90.43
-89.61
-86.26
-80.33
-71.57
-59.25
-42.11
-18.89
10.88
46.17
84.29
121.43
153.63
177.98
193.12
199.14
197.05
188.09
173.53
154.66
133.07
110.62
89.17
70.07
53.90
40.34
28.63
17.91
7.63
-2.48
-12.46
-22.37
-32.32
-42.42
-52.69
-63.03
-73.22
-83.03
-92.19
-100.45
-107.55
-113.30
-117.83
-121.64
-125.57
-130.38
-136.25
-142.29
-146.69
-147.16
-141.93
-130.55
-114.24
-95.48
-77.12
-61.39
-49.28
-40.50
-34.09
-29.09
-25.00
-21.90
-20.07
-19.54
-19.73
-19.49
-17.43
-12.44
-4.21
6.60
18.66
30.41
40.73
49.19
55.95
61.31
65.23
67.18
66.44
62.61
55.96
47.33
37.54
26.79
14.42
-0.71
-19.36
-40.91
-63.05
-82.07
-93.89
-95.33
-85.01
-63.72
-34.03
0.53
36.49
71.08
102.54
129.93
152.76
170.68
183.49
191.35
194.97
195.62
194.61
192.80
190.23
186.24
180.06
171.36
160.68
149.15
138.02
128.00
119.00
110.32
101.11
90.92
79.92
68.77
58.30
48.98
40.75
33.09
25.21
16.40
6.24
-5.36
-18.03
-30.97
-42.85
-51.98
-56.77
-56.37
-51.27
-43.39
-35.58
-30.62
-30.24
-34.65
-42.88
-53.46
-65.07
-76.80
-87.92
-97.51
-104.43
-107.59
-106.51
-101.62
-94.20
-85.85
-77.86
-70.90
-64.95
-59.73
-54.98
-50.82
-47.60
-45.64
-45.00
-45.26
-45.69
-45.56
-44.53
-42.81
-41.13
-40.45
-41.55
-44.71
-49.53
-54.95
-59.41
-61.25
-59.11
-52.38
-41.42
-27.50
-12.50
1.66
13.47
22.11
27.34
29.44
28.88
26.32
22.57
18.58
15.30
13.43
13.18
14.21
15.75
16.95
17.20
16.41
14.92
13.26
11.81
10.55
9.02
6.56
2.65
-2.79
-9.32
-16.20
-22.80
-28.93
-34.92
-41.40
-48.85
-57.04
-64.94
-70.78
-72.76
-69.82
-62.39
-52.57
-43.72
-39.44
-42.46
-53.70
-71.90
-93.97
-115.60
-132.32
-140.43
-137.71
-123.76
-99.75
-67.81
-30.07
12.15
58.85
111.33
171.18
238.91
312.21
385.18
449.06
494.50
514.55
507.00
475.13
425.99
367.65
306.32
244.96
183.56
120.87
56.25
-9.03
-71.77
-127.68
-172.66
-204.05
-221.36
-226.27
-222.14
-212.84
-201.74
-191.17
-182.44
-176.27
-173.26
-173.85
-177.92
-184.45
-191.39
-196.30
-197.17
-193.21
-184.97
-173.97
-161.86
-149.63
-137.32
-124.16
-109.31
-92.51
-74.38
-56.31
-39.80
-25.87
-14.62
-5.31
3.19
11.96
21.56
32.05
43.28
55.34
68.79
84.54
103.28
124.80
147.62
169.17
186.70
198.28
203.55
203.67
200.61
196.07
190.76
184.23
175.25
162.41
144.52
120.75
90.70
54.55
13.33
-30.85
-74.91
-115.40
-149.34
-174.92
-191.67
-200.31
-202.12
-198.52
-190.95
-180.92
-170.22
-160.67
-153.72
-149.87
-148.23
-146.68
-142.47
-133.20
-117.60
-96.00
-70.04
-42.14
-14.79
10.01
30.91
47.11
58.26
64.42
66.05
64.06
59.71
54.36
49.23
45.12
42.38
40.87
40.08
39.25
37.55
34.31
29.24
22.55
14.83
6.81
-1.06
-8.69
-16.35
-24.38
-32.93
-41.89
-50.99
-59.81
-67.74
-73.88
-76.99
-75.59
-68.49
-55.11
-35.88
-12.10
14.30
41.18
66.44
88.19
104.94
115.73
120.36
119.43
114.22
106.27
97.05
87.64
78.82
71.05
64.61
59.60
55.78
52.62
49.34
45.19
39.76
33.00
25.30
17.14
8.88
0.56
-8.02
-17.07
-26.64
-36.50
-46.13
-54.89
-62.04
-66.71
-68.01
-65.14
-57.71
-46.03
-31.17
-14.79
1.31
15.67
27.30
35.80
41.14
43.54
43.45
41.52
38.66
35.85
33.86
33.13
33.66
35.10
36.91
38.55
39.43
39.04
37.00
33.13
27.60
20.79
13.26
5.49
-2.27
-10.02
-17.96
-26.38
-35.36
-44.69
-53.60
-60.77
-64.50
-63.18
-55.84
-42.54
-24.57
-4.08
16.45
34.82
49.50
59.71
65.25
66.41
63.87
58.69
52.30
46.30
42.14
40.70
42.09
45.61
49.98
53.73
55.67
55.14
52.13
47.16
40.98
34.24
27.36
20.41
13.25
5.62
-2.75
-12.12
-22.61
-34.06
-45.75
-56.39
-64.15
-67.15
-64.11
-54.85
-40.49
-23.13
-5.28
10.87
23.79
32.71
37.54
38.60
36.55
32.29
26.94
21.69
17.58
15.30
15.10
16.71
19.48
22.60
25.15
26.43
26.02
23.87
20.28
15.77
10.88
6.06
1.55
-2.63
-6.65
-10.87
-15.79
-21.83
-29.15
-37.33
-45.27
-51.29
-53.51
-50.45
-41.54
-27.42
-9.83
8.89
26.37
40.75
50.97
56.78
58.53
56.95
52.99
47.72
42.21
37.46
34.16
32.63
32.69
33.82
35.30
36.41
36.58
35.48
33.02
29.34
24.73
19.58
14.26
9.04
4.00
-0.89
-5.75
-10.68
-15.85
-21.44
-27.68
-34.65
-41.99
-48.74
-53.35
-54.06
-49.62
-39.76
-25.48
-8.75
8.00
22.63
33.71
40.62
43.43
42.69
39.29
34.30
28.90
24.19
20.96
19.52
19.67
20.74
21.93
22.59
22.53
21.98
21.47
21.41
21.85
22.40
22.40
21.26
18.76
15.10
10.73
6.06
1.23
-3.99
-10.03
-17.37
-26.30
-36.75
-48.04
-58.76
-66.99
-70.63
-68.12
-59.01
-44.21
-25.77
-6.30
11.70
26.38
36.73
42.49
44.03
42.22
38.36
34.02
30.72
29.55
30.77
33.73
37.18
39.77
40.59
39.49
36.97
33.87
30.86
28.15
25.42
22.10
17.71
12.09
5.52
-1.39
-8.01
-13.87
-18.82
-23.06
-27.08
-31.51
-36.83
-43.11
-49.83
-55.84
-59.69
-60.03
-56.16
-48.17
-36.94
-23.78
-10.07
2.91
14.08
22.44
27.18
27.87
24.62
18.20
9.83
0.82
-7.73
-15.18
-21.23
-25.84
-29.06
-30.97
-31.63
-31.05
-29.16
-25.79
-20.76
-14.02
-5.75
3.64
13.63
23.89
34.36
45.15
56.25
67.18
76.91
84.14
87.81
87.70
84.68
80.52
77.39
77.22
81.20
89.49
101.16
114.39
126.79
135.93
139.75
137.08
127.84
113.01
94.38
74.13
54.38
36.74
22.10
10.51
1.33
-6.37
-13.48
-20.49
-27.45
-34.14
-40.32
-45.97
-51.31
-56.77
-62.76
-69.54
-77.06
-84.87
-92.16
-97.99
-101.63
-102.86
-102.16
-100.56
-99.43
-99.98
-102.97
-108.47
-115.74
-123.41
-129.72
-133.00
-132.17
-127.08
-118.56
-108.16
-97.54
-87.91
-79.73
-72.79
-66.56
-60.59
-54.75
-49.13
-43.84
-38.75
-33.45
-27.46
-20.58
-13.17
-6.11
-0.58
2.58
3.26
2.14
0.34
-1.23
-2.33
-3.47
-5.41
-8.55
-12.55
-16.40
-19.03
-19.92
-19.45
-18.60
-18.46
-19.63
-22.00
-24.93
-27.57
-29.07
-28.66
-25.47
-18.60
-7.35
8.37
27.75
48.98
69.55
86.68
97.84
101.15
95.65
81.39
59.62
32.71
4.00
-22.69
-43.83
-56.96
-61.43
-58.52
-50.86
-41.52
-32.92
-26.33
-21.87
-19.07
-17.59
-17.50
-19.09
-22.40
-26.89
-31.49
-35.13
-37.30
-38.38
-39.49
-41.94
-46.59
-53.39
-61.24
-68.33
-72.67
-72.68
-67.61
-57.76
-44.31
-28.86
-12.96
2.28
16.24
28.62
39.13
47.26
52.43
54.31
53.11
49.71
45.39
41.36
38.30
36.16
34.38
32.32
29.61
26.26
22.50
18.40
13.72
7.96
0.69
-8.09
-17.84
-27.68
-36.72
-44.49
-50.99
-56.62
-61.94
-67.47
-73.65
-80.71
-88.53
-96.45
-103.13
-106.74
-105.44
-98.02
-84.39
-65.78
-44.39
-22.79
-3.33
12.28
23.05
28.78
29.94
27.60
23.20
18.27
14.03
11.23
10.07
10.39
11.93
14.35
17.35
20.49
23.18
24.83
24.92
23.21
19.79
15.00
9.32
3.22
-2.84
-8.55
-13.74
-18.57
-23.45
-28.97
-35.51
-42.89
-50.07
-55.35
-56.72
-52.65
-42.57
-27.16
-8.19
12.08
31.37
47.85
60.32
68.15
71.22
69.84
64.78
57.25
48.81
41.08
35.44
32.58
32.46
34.29
36.91
39.14
40.13
39.54
37.41
34.08
29.92
25.25
20.29
15.19
10.03
4.82
-0.60
-6.53
-13.34
-21.17
-29.62
-37.60
-43.39
-45.13
-41.45
-32.02
-17.70
-0.37
17.72
34.41
48.10
57.86
63.31
64.53
62.00
56.61
49.55
42.24
35.95
31.61
29.58
29.64
31.15
33.25
35.11
36.01
35.55
33.60
30.28
25.90
20.89
15.65
10.51
5.63
0.99
-3.59
-8.48
-14.12
-20.88
-28.79
-37.32
-45.25
-50.79
-52.06
-47.65
-37.27
-21.92
-3.69
14.86
31.38
44.23
52.71
56.83
57.12
54.30
49.21
42.89
36.46
31.04
27.53
26.26
27.01
29.02
31.29
32.94
33.45
32.67
30.80
28.08
24.73
20.82
16.39
11.50
6.27
0.88
-4.62
-10.35
-16.62
-23.76
-31.82
-40.30
-48.07
-53.53
-55.03
-51.39
-42.28
-28.39
-11.35
6.65
23.33
36.75
45.74
49.95
49.88
46.61
41.50
35.83
30.66
26.67
24.18
23.21
23.53
24.65
25.98
26.86
26.78
25.45
22.82
19.13
14.75
10.09
5.52
1.24
-2.70
-6.43
-10.13
-14.02
-18.32
-23.29
-29.11
-35.72
-42.59
-48.62
-52.25
-51.87
-46.45
-35.93
-21.41
-4.87
11.39
25.38
35.81
42.19
44.73
44.07
41.11
36.79
32.05
27.69
24.30
22.18
21.33
21.45
22.08
22.69
22.83
22.22
20.73
18.33
15.10
11.12
6.52
1.49
-3.70
-8.75
-13.40
-17.53
-21.21
-24.72
-28.53
-33.10
-38.66
-45.00
-51.27
-56.07
-57.78
-55.06
-47.34
-35.16
-19.98
-3.85
11.19
23.56
32.36
37.35
38.80
37.28
33.63
28.81
23.85
19.67
16.94
15.90
16.34
17.71
19.31
20.50
20.89
20.30
18.78
16.47
13.50
9.96
5.95
1.57
-3.02
-7.63
-12.09
-16.32
-20.38
-24.46
-28.93
-34.09
-40.05
-46.40
-52.19
-56.06
-56.51
-52.50
-43.81
-31.17
-16.11
-0.55
13.75
25.42
33.71
38.31
39.32
37.17
32.65
26.85
21.05
16.47
13.90
13.54
14.92
17.17
19.33
20.67
20.91
20.03
18.22
15.65
12.38
8.42
3.85
-1.14
-6.25
-11.11
-15.48
-19.25
-22.50
-25.49
-28.58
-32.18
-36.65
-42.10
-48.16
-53.93
-58.00
-58.86
-55.36
-47.22
-35.15
-20.71
-5.81
7.79
18.84
26.72
31.29
32.74
31.51
28.28
23.99
19.77
16.66
15.36
15.94
17.89
20.31
22.27
23.16
22.84
21.57
19.80
17.83
15.67
13.05
9.63
5.21
-0.10
-5.88
-11.55
-16.59
-20.76
-24.16
-27.12
-30.15
-33.77
-38.29
-43.78
-49.82
-55.43
-59.24
-59.77
-55.96
-47.56
-35.27
-20.59
-5.37
8.71
20.36
28.84
33.83
35.40
33.93
30.23
25.38
20.64
17.10
15.41
15.62
17.24
19.44
21.39
22.46
22.45
21.44
19.70
17.50
14.94
11.93
8.30
3.96
-0.98
-6.17
-11.12
-15.41
-18.82
-21.44
-23.70
-26.19
-29.50
-34.00
-39.62
-45.76
-51.32
-54.87
-55.09
-51.13
-42.89
-31.12
-17.16
-2.69
10.76
21.94
30.09
34.87
36.32
34.89
31.33
26.70
22.11
18.52
16.53
16.22
17.22
18.86
20.44
21.43
21.56
20.86
19.46
17.52
15.11
12.15
8.55
4.23
-0.70
-5.93
-11.05
-15.65
-19.47
-22.55
-25.16
-27.74
-30.76
-34.62
-39.47
-45.05
-50.59
-54.86
-56.37
-53.83
-46.64
-35.12
-20.55
-4.76
10.35
23.25
33.00
39.15
41.68
40.86
37.33
32.09
26.41
21.62
18.69
17.97
19.12
21.30
23.47
24.83
25.01
24.05
22.28
20.05
17.55
14.74
11.44
7.52
3.00
-1.90
-6.84
-11.52
-15.78
-19.64
-23.29
-27.04
-31.28
-36.30
-42.21
-48.66
-54.79
-59.22
-60.45
-57.31
-49.42
-37.40
-22.66
-7.02
7.81
20.51
30.29
36.74
39.78
39.60
36.79
32.31
27.42
23.33
20.90
20.35
21.29
22.95
24.56
25.54
25.65
24.93
23.51
21.51
18.96
15.85
12.14
7.84
3.01
-2.19
-7.50
-12.56
-17.04
-20.70
-23.53
-25.85
-28.20
-31.22
-35.35
-40.58
-46.21
-50.98
-53.28
-51.68
-45.38
-34.58
-20.44
-4.77
10.49
23.69
33.81
40.44
43.63
43.78
41.49
37.56
32.91
28.47
25.06
23.14
22.79
23.67
25.19
26.70
27.67
27.81
27.06
25.55
23.42
20.79
17.65
13.92
9.55
4.62
-0.63
-5.80
-10.51
-14.52
-17.85
-20.84
-24.03
-28.03
-33.28
-39.75
-46.85
-53.37
-57.72
-58.34
-54.20
-45.15
-32.02
-16.44
-0.38
14.35
26.39
34.99
39.89
41.22
39.47
35.46
30.32
25.34
21.68
20.02
20.41
22.28
24.69
26.72
27.75
27.61
26.48
24.69
22.52
20.06
17.26
13.99
10.16
5.76
0.93
-4.09
-9.04
-13.69
-17.96
-21.93
-25.89
-30.16
-35.08
-40.73
-46.83
-52.62
-56.90
-58.32
-55.76
-48.76
-37.67
-23.69
-8.49
6.23
19.06
29.06
35.73
38.94
38.89
36.16
31.69
26.75
22.57
20.07
19.53
20.59
22.41
24.10
25.00
24.91
23.99
22.52
20.70
18.54
15.86
12.46
8.25
3.34
-1.99
-7.39
-12.52
-17.14
-21.10
-24.43
-27.31
-30.15
-33.43
-37.55
-42.49
-47.69
-51.98
-53.96
-52.37
-46.61
-36.94
-24.44
-10.68
2.70
14.30
23.17
28.87
31.30
30.76
27.88
23.56
18.89
14.94
12.47
11.75
12.54
14.21
16.04
17.42
18.07
17.97
17.25
16.01
14.26
11.93
8.89
5.12
0.69
-4.21
-9.28
-14.15
-18.54
-22.27
-25.41
-28.25
-31.21
-34.74
-38.97
-43.62
-47.89
-50.61
-50.51
-46.60
-38.56
-26.88
-12.84
1.85
15.44
26.54
34.36
38.70
39.85
38.41
35.23
31.19
27.18
23.94
21.89
21.10
21.30
22.00
22.66
22.89
22.44
21.25
19.34
16.75
13.56
9.82
5.61
1.01
-3.81
-8.66
-13.32
-17.57
-21.33
-24.73
-28.15
-32.11
-37.03
-42.88
-49.10
-54.52
-57.71
-57.42
-52.96
-44.44
-32.71
-19.09
-5.04
8.11
19.27
27.69
32.91
34.83
33.78
30.51
26.10
21.83
18.73
17.41
17.83
19.39
21.27
22.70
23.25
22.87
21.80
20.28
18.34
15.82
12.49
8.25
3.28
-2.01
-7.11
-11.61
-15.36
-18.46
-21.27
-24.30
-28.05
-32.91
-38.92
-45.67
-52.14
-56.94
-58.56
-55.87
-48.54
-37.16
-23.12
-8.20
5.82
17.57
26.19
31.40
33.35
32.55
29.79
26.07
22.41
19.72
18.51
18.88
20.46
22.63
24.74
26.33
27.15
27.25
26.70
25.56
23.71
21.00
17.25
12.51
7.02
1.21
-4.48
-9.65
-14.13
-17.97
-21.46
-25.04
-29.21
-34.31
-40.30
-46.59
-51.98
-54.94
-54.10
-48.66
-38.82
-25.71
-11.06
3.29
15.83
25.60
32.18
35.54
35.89
33.72
29.73
24.94
20.42
17.16
15.71
16.03
17.58
19.57
21.26
22.23
22.40
21.91
20.93
19.45
17.35
14.43
10.62
6.10
1.27
-3.38
-7.49
-10.93
-13.86
-16.66
-19.82
-23.76
-28.68
-34.49
-40.73
-46.45
-50.43
-51.33
-48.12
-40.40
-28.68
-14.31
0.89
15.04
26.69
34.99
39.75
41.20
39.97
36.84
32.76
28.70
25.53
23.79
23.59
24.58
26.13
27.58
28.49
28.69
28.23
27.17
25.47
22.94
19.41
14.89
9.62
4.08
-1.20
-5.87
-9.81
-13.18
-16.37
-19.79
-23.87
-28.85
-34.62
-40.66
-45.91
-49.03
-48.70
-44.13
-35.35
-23.30
-9.56
4.09
16.14
25.62
32.10
35.59
36.40
34.97
31.96
28.13
24.35
21.35
19.60
19.13
19.65
20.58
21.35
21.53
20.93
19.61
17.76
15.57
13.15
10.47
7.45
4.03
0.24
-3.75
-7.62
-11.07
-13.92
-16.22
-18.29
-20.65
-23.81
-28.11
-33.45
-39.24
-44.34
-47.36
-47.01
-42.56
-34.12
-22.62
-9.57
3.40
14.92
24.11
30.58
34.29
35.42
34.38
31.77
28.37
25.04
22.53
21.29
21.37
22.44
23.95
25.25
25.84
25.43
23.99
21.74
18.95
15.86
12.55
8.93
4.86
0.28
-4.69
-9.73
-14.43
-18.48
-21.75
-24.36
-26.63
-29.07
-32.15
-36.16
-41.03
-46.17
-50.58
-52.99
-52.27
-47.80
-39.68
-28.73
-16.24
-3.65
7.71
16.87
23.23
26.55
26.97
25.04
21.64
17.86
14.77
13.16
13.28
14.90
17.37
19.93
22.02
23.34
23.89
23.78
23.09
21.76
19.63
16.62
12.75
8.27
3.57
-0.97
-5.06
-8.61
-11.69
-14.46
-17.11
-19.91
-23.13
-27.03
-31.65
-36.64
-41.09
-43.76
-43.36
-39.10
-31.01
-19.99
-7.59
4.55
15.12
23.29
28.72
31.40
31.50
29.40
25.77
21.54
17.77
15.30
14.53
15.25
16.82
18.39
19.34
19.40
18.69
17.49
16.03
14.32
12.20
9.43
5.93
1.79
-2.63
-6.90
-10.68
-13.79
-16.30
-18.50
-20.81
-23.70
-27.56
-32.53
-38.33
-44.18
-48.85
-50.99
-49.50
-43.97
-34.84
-23.29
-10.89
0.88
10.95
18.71
23.97
26.76
27.28
25.89
23.20
20.02
17.20
15.39
14.87
15.47
16.68
17.90
18.65
18.69
18.04
16.84
15.25
13.33
10.98
8.09
4.58
0.48
-3.95
-8.38
-12.45
-15.93
-18.80
-21.26
-23.69
-26.45
-29.89
-34.11
-38.89
-43.58
-47.20
-48.57
-46.73
-41.21
-32.29
-20.94
-8.53
3.56
14.25
22.80
28.84
32.21
32.97
31.38
28.07
23.95
20.08
17.36
16.26
16.65
17.96
19.44
20.40
20.54
19.88
18.66
17.18
15.54
13.64
11.24
8.13
4.25
-0.23
-4.97
-9.58
-13.78
-17.44
-20.59
-23.48
-26.52
-30.24
-35.05
-41.01
-47.56
-53.49
-57.20
-57.20
-52.68
-43.86
-31.92
-18.60
-5.66
5.58
14.33
20.30
23.46
24.00
22.29
18.98
15.00
11.36
8.96
8.25
9.16
11.15
13.43
15.31
16.42
16.77
16.57
16.06
15.27
14.02
11.97
8.86
4.68
-0.29
-5.55
-10.53
-14.88
-18.52
-21.66
-24.77
-28.39
-32.98
-38.74
-45.43
-52.31
-58.16
-61.57
-61.27
-56.51
-47.28
-34.35
-19.14
-3.35
11.38
23.70
32.75
38.21
40.25
39.50
36.92
33.60
30.62
28.74
28.35
29.31
31.08
32.92
34.13
34.29
33.33
31.44
28.90
25.93
22.59
18.78
14.49
9.76
4.82
-0.06
-4.61
-8.77
-12.62
-16.44
-20.61
-25.49
-31.25
-37.75
-44.35
-49.99
-53.32
-53.08
-48.46
-39.44
-26.85
-12.19
2.72
16.19
26.98
34.50
38.67
39.86
38.72
36.04
32.72
29.66
27.65
27.14
28.19
30.39
33.04
35.39
36.88
37.24
36.47
34.71
32.13
28.81
24.80
20.19
15.20
10.11
5.24
0.83
-3.05
-6.56
-10.04
-13.93
-18.60
-24.18
-30.42
-36.56
-41.48
-43.87
-42.65
-37.33
-28.13
-16.06
-2.59
10.66
22.29
31.32
37.22
39.89
39.58
36.85
32.51
27.55
22.97
19.54
17.62
17.14
17.62
18.46
19.11
19.23
18.70
17.49
15.61
13.02
9.74
5.88
1.71
-2.45
-6.30
-9.68
-12.60
-15.21
-17.76
-20.63
-24.24
-28.93
-34.78
-41.31
-47.44
-51.71
-52.64
-49.33
-41.76
-30.81
-18.00
-5.02
6.66
16.01
22.51
26.10
27.01
25.80
23.21
20.07
17.19
15.20
14.41
14.86
16.31
18.36
20.52
22.30
23.31
23.26
22.03
19.63
16.20
11.96
7.17
2.09
-3.01
-7.90
-12.37
-16.36
-19.98
-23.53
-27.37
-31.73
-36.43
-40.79
-43.69
-43.92
-40.57
-33.40
-22.97
-10.50
2.42
14.26
23.80
30.34
33.68
34.09
32.15
28.70
24.63
20.76
17.72
15.82
15.08
15.30
16.12
17.14
17.97
18.26
17.77
16.37
14.05
10.89
7.11
3.01
-1.14
-5.09
-8.74
-12.08
-15.20
-18.31
-21.70
-25.66
-30.37
-35.68
-40.97
-45.15
-46.83
-44.90
-38.83
-29.08
-16.93
-4.15
7.58
17.03
23.64
27.36
28.50
27.54
25.08
21.79
18.39
15.57
13.76
13.16
13.64
14.88
16.48
18.06
19.29
19.93
19.77
18.70
16.67
13.75
10.08
5.89
1.49
-2.80
-6.74
-10.23
-13.39
-16.56
-20.17
-24.57
-29.75
-35.18
-39.87
-42.51
-41.97
-37.62
-29.61
-18.89
-6.94
4.66
14.60
22.05
26.65
28.45
27.79
25.18
21.30
16.93
12.90
9.88
8.21
7.89
8.55
9.66
10.74
11.40
11.47
10.89
9.64
7.73
5.18
2.05
-1.52
-5.31
-9.08
-12.61
-15.77
-18.59
-21.26
-24.15
-27.59
-31.73
-36.29
-40.47
-43.15
-43.16
-39.72
-32.76
-22.93
-11.51
0.00
10.24
18.23
23.48
25.94
25.89
23.86
20.50
16.57
12.84
9.93
8.22
7.77
8.37
9.58
10.95
12.04
12.56
12.39
11.46
9.83
7.54
4.66
1.32
-2.31
-5.96
-9.39
-12.43
-15.06
-17.57
-20.36
-23.86
-28.23
-33.15
-37.79
-40.93
-41.37
-38.31
-31.65
-22.11
-10.97
0.25
10.23
18.07
23.35
26.05
26.36
24.71
21.68
18.00
14.52
11.92
10.60
10.52
11.26
12.27
13.09
13.48
13.42
12.99
12.22
10.99
9.16
6.66
3.57
0.11
-3.46
-7.00
-10.50
-14.09
-17.97
-22.35
-27.39
-33.09
-39.16
-44.93
-49.26
-50.87
-48.69
-42.36
-32.44
-20.33
-7.81
3.49
12.49
18.78
22.42
23.80
23.39
21.74
19.46
17.21
15.53
14.77
14.93
15.71
16.67
17.39
17.58
17.12
15.99
14.23
11.85
8.89
5.45
1.68
-2.21
-6.04
-9.62
-12.92
-16.01
-19.07
-22.43
-26.42
-31.32
-37.06
-43.13
-48.41
-51.50
-51.08
-46.43
-37.71
-25.99
-12.87
-0.01
11.31
20.31
26.66
30.31
31.40
30.25
27.43
23.76
20.14
17.35
15.80
15.50
16.13
17.19
18.18
18.77
18.79
18.19
16.98
15.19
12.83
9.90
6.48
2.69
-1.29
-5.25
-9.03
-12.56
-15.89
-19.20
-22.78
-26.93
-31.86
-37.41
-42.98
-47.47
-49.52
-47.95
-42.21
-32.67
-20.52
-7.41
5.00
15.51
23.46
28.68
31.30
31.62
30.12
27.45
24.37
21.68
19.98
19.54
20.20
21.50
22.83
23.70
23.85
23.27
22.09
20.43
18.28
15.57
12.17
8.11
3.60
-0.99
-5.31
-9.12
-12.46
-15.58
-18.88
-22.77
-27.53
-33.17
-39.30
-45.11
-49.41
-50.91
-48.58
-42.01
-31.61
-18.56
-4.52
8.84
20.16
28.62
33.94
36.26
36.05
33.97
30.87
27.63
25.04
23.65
23.55
24.46
25.80
26.91
27.33
26.90
25.68
23.87
21.60
18.87
15.63
11.84
7.61
3.14
-1.26
-5.35
-8.99
-12.20
-15.12
-17.98
-21.07
-24.72
-29.18
-34.45
-40.09
-45.13
-48.21
-47.98
-43.59
-35.01
-23.17
-9.60
3.94
15.96
25.49
32.11
35.79
36.83
35.73
33.13
29.84
26.69
24.40
23.42
23.81
25.28
27.25
29.09
30.22
30.31
29.24
27.05
23.93
20.05
15.57
10.69
5.62
0.59
-4.15
-8.40
-12.09
-15.29
-18.31
-21.58
-25.58
-30.54
-36.31
-42.11
-46.69
-48.61
-46.72
-40.54
-30.48
-17.71
-3.78
9.76
21.59
30.81
36.89
39.70
39.49
36.92
32.97
28.75
25.20
22.89
21.91
21.91
22.35
22.71
22.62
21.96
20.72
18.99
16.84
14.28
11.31
7.97
4.33
0.53
-3.27
-6.91
-10.31
-13.44
-16.40
-19.42
-22.83
-27.00
-32.08
-37.80
-43.36
-47.48
-48.75
-46.15
-39.38
-29.02
-16.40
-3.20
9.02
19.08
26.31
30.53
31.91
30.94
28.35
25.02
21.82
19.49
18.42
18.64
19.82
21.44
22.91
23.76
23.73
22.82
21.20
19.12
16.75
14.11
11.12
7.70
3.87
-0.14
-4.03
-7.56
-10.70
-13.66
-16.84
-20.70
-25.56
-31.48
-38.10
-44.58
-49.70
-52.07
-50.56
-44.72
-34.97
-22.54
-9.07
3.75
14.66
22.91
28.26
30.78
30.81
28.90
25.82
22.50
19.81
18.31
18.14
18.98
20.28
21.43
22.06
21.97
21.20
19.85
18.00
15.67
12.85
9.55
5.85
1.88
-2.11
-5.93
-9.41
-12.51
-15.38
-18.32
-21.72
-25.95
-31.08
-36.81
-42.37
-46.63
-48.36
-46.52
-40.68
-31.12
-18.83
-5.30
7.90
19.41
28.34
34.28
37.29
37.78
36.43
34.04
31.43
29.25
27.89
27.42
27.61
28.12
28.62
28.86
28.71
28.10
26.92
25.08
22.48
19.07
14.92
10.23
5.20
0.04
-5.12
-10.24
-15.35
-20.60
-26.15
-32.17
-38.76
-45.68
-52.26
-57.42
-59.83
-58.44
-52.81
-43.42
-31.53
-18.84
-6.94
3.04
10.56
15.53
18.16
18.80
17.88
15.94
13.63
11.56
10.21
9.79
10.21
11.17
12.27
13.14
13.49
13.18
12.13
10.37
7.95
5.00
1.64
-2.00
-5.74
-9.46
-13.02
-16.43
-19.78
-23.37
-27.56
-32.62
-38.45
-44.44
-49.45
-52.09
-51.14
-46.06
-37.16
-25.55
-12.79
-0.46
10.21
18.46
23.98
26.77
27.08
25.36
22.29
18.73
15.54
13.40
12.57
12.88
13.85
14.91
15.61
15.73
15.25
14.22
12.64
10.42
7.49
3.83
-0.45
-5.11
-9.92
-14.70
-19.38
-23.98
-28.65
-33.57
-38.87
-44.49
-49.97
-54.42
-56.68
-55.70
-50.91
-42.51
-31.49
-19.35
-7.64
2.36
9.85
14.51
16.37
15.70
12.94
8.72
3.81
-0.96
-4.90
-7.62
-9.16
-9.91
-10.47
-11.31
-12.53
-13.88
-14.92
-15.30
-15.05
-14.49
-14.10
-14.14
-14.49
-14.77
-14.55
-13.68
-12.43
-11.39
-11.10
-11.77
-13.04
-14.04
-13.60
-10.60
-4.32
5.40
18.01
32.44
47.22
60.87
72.13
80.23
84.85
86.14
84.54
80.69
75.28
68.98
62.45
56.18
50.59
45.94
42.28
39.42
36.97
34.35
30.96
26.35
20.41
13.40
5.82
-1.79
-9.02
-15.68
-21.83
-27.60
-33.18
-38.80
-44.72
-51.06
-57.63
-63.74
-68.22
-69.66
-66.95
-59.74
-48.70
-35.33
-21.48
-8.86
1.40
8.78
13.28
15.18
14.91
13.08
10.39
7.59
5.40
4.29
4.44
5.67
7.58
9.63
11.26
12.09
11.90
10.70
8.68
6.09
3.20
0.17
-2.89
-5.94
-8.92
-11.78
-14.55
-17.38
-20.57
-24.45
-29.09
-34.08
-38.41
-40.65
-39.45
-33.97
-24.33
-11.63
2.40
15.86
27.23
35.65
40.84
43.05
42.80
40.81
37.84
34.73
32.14
30.52
29.99
30.36
31.25
32.22
32.85
32.78
31.80
29.83
26.91
23.24
19.10
14.74
10.35
6.02
1.74
-2.48
-6.61
-10.65
-14.59
-18.57
-22.70
-26.99
-31.16
-34.56
-36.26
-35.32
-31.12
-23.65
-13.60
-2.20
9.16
19.20
27.03
32.25
34.83
35.05
33.37
30.44
26.96
23.68
21.22
19.93
19.85
20.67
21.87
22.89
23.30
22.89
21.66
19.70
17.15
14.13
10.75
7.15
3.51
-0.06
-3.44
-6.65
-9.76
-12.88
-16.18
-19.82
-24.01
-28.78
-33.88
-38.65
-42.00
-42.74
-39.99
-33.57
-24.15
-13.06
-1.87
8.08
15.94
21.33
24.20
24.70
23.14
20.02
16.09
12.24
9.28
7.67
7.44
8.23
9.45
10.58
11.23
11.27
10.69
9.55
7.90
5.76
3.15
0.13
-3.18
-6.57
-9.82
-12.77
-15.37
-17.75
-20.17
-22.93
-26.30
-30.36
-34.90
-39.36
-42.86
-44.40
-43.06
-38.35
-30.35
-19.83
-8.08
3.37
13.11
20.08
23.83
24.49
22.64
19.12
14.88
10.74
7.38
5.26
4.63
5.40
7.24
9.56
11.74
13.22
13.71
13.19
11.79
9.69
7.02
3.86
0.27
-3.65
-7.75
-11.85
-15.80
-19.56
-23.23
-27.02
-31.17
-35.79
-40.68
-45.22
-48.39
-49.08
-46.43
-40.13
-30.68
-19.16
-6.99
4.38
13.85
20.72
24.74
26.00
24.88
21.98
18.00
13.71
9.79
6.82
5.16
4.88
5.79
7.44
9.23
10.60
11.11
10.56
8.96
6.41
3.14
-0.63
-4.67
-8.72
-12.53
-15.92
-18.88
-21.59
-24.49
-28.08
-32.79
-38.70
-45.33
-51.61
-56.06
-57.21
-54.12
-46.65
-35.61
-22.45
-8.89
3.61
14.05
21.91
27.07
29.60
29.78
28.09
25.19
21.92
19.07
17.14
16.30
16.32
16.82
17.39
17.77
17.83
17.47
16.57
14.98
12.57
9.31
5.37
0.98
-3.58
-8.12
-12.54
-16.80
-20.96
-25.20
-29.77
-34.89
-40.56
-46.28
-51.08
-53.59
-52.58
-47.33
-38.03
-25.72
-11.99
1.39
13.02
21.91
27.65
30.25
30.06
27.72
24.05
19.94
16.16
13.26
11.43
10.59
10.50
10.86
11.43
11.95
12.17
11.80
10.60
8.44
5.41
1.80
-2.02
-5.69
-9.06
-12.13
-15.02
-17.97
-21.28
-25.23
-29.92
-35.16
-40.26
-44.11
-45.41
-43.10
-36.76
-26.84
-14.55
-1.47
10.85
21.28
29.15
34.25
36.60
36.40
34.11
30.40
26.16
22.34
19.69
18.57
18.93
20.31
22.14
23.75
24.63
24.33
22.58
19.34
14.85
9.63
4.29
-0.66
-4.98
-8.74
-12.26
-15.96
-20.22
-25.37
-31.49
-38.31
-45.00
-50.19
-52.27
-49.89
-42.54
-30.85
-16.43
-1.34
12.51
23.82
32.03
37.08
39.21
38.76
36.25
32.36
27.93
23.83
20.73
18.94
18.43
18.87
19.76
20.57
20.82
20.15
18.37
15.51
11.80
7.58
3.26
-0.89
-4.69
-8.17
-11.49
-14.91
-18.78
-23.42
-28.96
-35.08
-40.90
-45.08
-46.08
-42.76
-34.76
-22.75
-8.26
6.78
20.55
31.75
39.68
44.19
45.50
44.12
40.78
36.40
31.97
28.34
26.07
25.27
25.68
26.85
28.28
29.55
30.33
30.35
29.36
27.23
23.95
19.74
14.99
10.15
5.64
1.69
-1.72
-4.86
-8.16
-12.14
-17.12
-23.11
-29.56
-35.36
-39.02
-39.11
-34.73
-25.94
-13.78
-0.06
13.19
24.25
32.09
36.39
37.45
35.91
32.55
28.23
23.74
19.85
17.10
15.78
15.85
16.97
18.65
20.33
21.48
21.77
20.95
18.99
16.05
12.38
8.38
4.42
0.73
-2.63
-5.74
-8.81
-12.12
-15.92
-20.45
-25.73
-31.50
-37.02
-41.16
-42.65
-40.41
-34.03
-23.95
-11.40
1.89
14.22
24.23
31.13
34.67
35.11
33.04
29.33
24.91
20.70
17.37
15.27
14.45
14.67
15.53
16.65
17.63
18.13
17.89
16.73
14.57
11.44
7.51
3.07
-1.55
-5.99
-9.93
-13.21
-15.85
-18.15
-20.62
-23.84
-28.22
-33.73
-39.68
-44.82
-47.60
-46.68
-41.45
-32.21
-20.22
-7.18
5.23
15.69
23.50
28.44
30.63
30.43
28.39
25.19
21.61
18.40
16.11
15.00
14.97
15.71
16.77
17.68
18.06
17.62
16.25
13.99
10.99
7.48
3.72
-0.12
-3.92
-7.63
-11.22
-14.65
-17.94
-21.15
-24.47
-28.15
-32.31
-36.72
-40.67
-43.02
-42.52
-38.26
-30.08
-18.74
-5.71
7.26
18.70
27.70
33.97
37.70
39.31
39.26
38.08
36.33
34.66
33.68
33.87
35.37
38.02
41.31
44.64
47.40
49.23
49.97
49.74
48.84
47.65
46.51
45.63
45.10
44.86
44.77
44.67
44.36
43.65
42.37
40.53
38.42
36.66
36.14
37.62
41.45
47.19
53.71
59.42
62.79
62.74
58.87
51.40
41.03
28.70
15.44
2.34
-9.67
-19.87
-27.84
-33.56
-37.28
-39.38
-40.26
-40.35
-40.10
-39.96
-40.31
-41.39
-43.15
-45.40
-47.84
-50.30
-52.71
-55.11
-57.58
-60.16
-62.94
-66.11
-70.03
-75.02
-81.15
-87.93
-94.26
-98.61
-99.59
-96.36
-89.03
-78.57
-66.51
-54.45
-43.65
-34.93
-28.71
-25.06
-23.84
-24.66
-26.85
-29.58
-32.08
-33.77
-34.42
-34.12
-33.09
-31.57
-29.75
-27.78
-25.83
-24.14
-22.94
-22.38
-22.44
-22.95
-23.67
-24.38
-25.01
-25.51
-25.89
-26.15
-26.43
-27.00
-28.33
-30.79
-34.35
-38.30
-41.30
-41.83
-38.68
-31.55
-21.13
-8.86
3.54
14.58
23.25
29.10
32.10
32.56
31.09
28.51
25.78
23.77
23.03
23.74
25.66
28.32
31.19
33.79
35.76
36.81
36.70
35.23
32.35
28.17
23.02
17.35
11.62
6.19
1.20
-3.33
-7.56
-11.69
-16.02
-20.87
-26.41
-32.52
-38.57
-43.46
-45.83
-44.55
-39.16
-30.07
-18.47
-5.92
6.05
16.32
24.21
29.46
32.14
32.56
31.24
28.97
26.58
24.82
24.11
24.45
25.50
26.74
27.66
28.01
27.70
26.81
25.39
23.45
20.89
17.63
13.66
9.12
4.28
-0.55
-5.06
-9.07
-12.58
-15.81
-19.19
-23.19
-28.17
-34.08
-40.30
-45.69
-48.83
-48.50
-44.03
-35.63
-24.25
-11.36
1.51
13.08
22.51
29.39
33.64
35.45
35.21
33.49
30.99
28.47
26.53
25.55
25.57
26.31
27.36
28.27
28.71
28.51
27.67
26.18
24.05
21.24
17.65
13.30
8.31
3.01
-2.20
-6.92
-10.92
-14.20
-17.03
-19.82
-23.08
-27.22
-32.41
-38.38
-44.34
-49.04
-51.05
-49.22
-43.05
-32.99
-20.30
-6.72
6.04
16.64
24.37
29.03
30.87
30.36
28.15
25.02
21.81
19.31
18.18
18.68
20.61
23.37
26.13
28.11
28.84
28.29
26.81
24.87
22.82
20.74
18.42
15.55
11.92
7.57
2.77
-2.02
-6.44
-10.27
-13.53
-16.45
-19.41
-22.82
-27.10
-32.43
-38.62
-44.94
-50.16
-52.79
-51.58
-45.90
-36.05
-23.20
-9.02
4.80
16.89
26.42
33.01
36.65
37.58
36.22
33.22
29.39
25.58
22.56
20.84
20.51
21.33
22.75
24.15
25.01
25.02
24.20
22.76
20.94
18.87
16.44
13.42
9.56
4.84
-0.49
-5.93
-11.00
-15.35
-18.99
-22.14
-25.19
-28.48
-32.32
-36.92
-42.37
-48.47
-54.64
-59.77
-62.48
-61.45
-55.95
-46.10
-32.92
-18.04
-3.22
10.03
20.58
27.76
31.29
31.23
28.09
22.81
16.66
10.95
6.63
4.06
2.96
2.63
2.29
1.45
-0.01
-1.85
-3.74
-5.45
-7.06
-8.88
-11.36
-14.82
-19.33
-24.66
-30.34
-35.76
-40.37
-43.80
-46.04
-47.49
-48.93
-51.20
-54.86
-59.74
-64.72
-67.97
-67.45
-61.68
-50.29
-34.16
-15.14
4.55
22.88
38.39
50.31
58.40
62.85
64.12
62.84
59.79
55.79
51.70
48.28
46.23
46.10
48.15
52.34
58.24
65.12
72.13
78.46
83.52
86.98
88.74
88.73
87.00
83.60
78.81
73.10
67.05
61.07
55.21
49.06
42.01
33.61
23.98
13.99
4.96
-1.77
-5.40
-5.84
-3.59
0.64
6.21
12.72
19.91
27.45
34.93
41.99
48.44
54.42
60.20
65.91
71.18
75.14
76.59
74.58
68.87
60.15
49.80
39.35
29.96
22.03
15.30
9.17
3.13
-2.97
-8.97
-14.67
-20.01
-25.14
-30.37
-35.94
-41.92
-48.24
-54.81
-61.53
-68.26
-74.66
-80.17
-84.02
-85.42
-83.88
-79.27
-71.90
-62.31
-51.22
-39.47
-28.14
-18.47
-11.68
-8.58
-9.10
-12.14
-15.79
-17.90
-16.85
-12.11
-4.32
5.06
14.42
22.45
28.58
32.83
35.60
37.40
38.62
39.55
40.24
40.59
40.20
38.54
35.01
29.33
21.66
12.63
3.00
-6.68
-16.25
-25.75
-35.11
-43.73
-50.55
-54.40
-54.56
-51.19
-45.23
-38.08
-31.02
-24.95
-20.36
-17.66
-17.20
-19.32
-24.01
-30.66
-38.00
-44.44
-48.59
-49.71
-47.97
-44.27
-39.92
-36.21
-34.01
-33.69
-35.10
-37.75
-40.98
-44.15
-46.80
-48.72
-49.99
-50.95
-52.16
-54.20
-57.43
-61.72
-66.27
-69.68
-70.29
-66.61
-57.91
-44.45
-27.52
-9.00
9.10
25.07
37.82
46.81
52.04
53.88
53.03
50.48
47.38
44.89
43.90
44.81
47.52
51.54
56.24
61.03
65.44
69.18
72.03
73.87
74.66
74.54
73.77
72.65
71.47
70.37
69.48
68.95
69.15
70.66
74.23
80.59
90.23
103.19
118.83
135.78
151.98
164.88
171.89
170.81
160.37
140.54
112.63
79.06
43.00
7.80
-23.50
-48.62
-66.30
-76.38
-79.73
-77.95
-73.04
-66.98
-61.27
-56.86
-54.04
-52.68
-52.44
-53.00
-54.18
-55.96
-58.41
-61.64
-65.74
-70.68
-76.28
-82.10
-87.33
-90.81
-91.22
-87.53
-79.45
-67.73
-54.12
-40.79
-29.61
-21.45
-16.01
-12.22
-8.93
-5.62
-2.61
-0.74
-0.66
-2.34
-4.86
-6.76
-6.74
-4.17
0.59
6.34
11.51
14.64
14.83
11.97
6.76
0.52
-5.14
-8.84
-9.89
-8.54
-5.95
-3.75
-3.49
-5.99
-11.03
-17.39
-23.26
-26.84
-26.95
-23.31
-16.59
-8.09
0.64
8.23
13.75
16.77
17.31
15.64
12.26
7.81
3.09
-1.06
-3.85
-4.65
-3.11
0.81
6.78
14.15
21.98
29.19
34.71
37.79
38.09
35.71
31.06
24.58
16.64
7.38
-3.17
-14.88
-27.37
-39.95
-51.60
-61.13
-67.32
-69.15
-66.10
-58.30
-46.67
-32.66
-18.01
-4.28
7.41
16.38
22.36
25.22
25.06
22.15
17.19
11.21
5.41
0.79
-2.20
-3.74
-4.56
-5.44
-7.02
-9.52
-12.79
-16.43
-20.00
-23.07
-25.26
-26.37
-26.44
-25.82
-25.15
-25.25
-26.85
-30.41
-35.91
-42.84
-50.24
-56.85
-61.29
-62.46
-59.76
-53.30
-43.89
-32.78
-21.39
-10.97
-2.55
3.16
5.85
5.62
3.22
-0.18
-3.16
-4.61
-4.05
-1.62
2.16
6.90
12.58
19.46
27.72
37.05
46.50
54.68
60.21
62.15
60.21
54.67
46.19
35.59
23.67
11.19
-1.22
-13.15
-24.40
-34.91
-44.57
-52.95
-59.22
-62.26
-61.07
-55.19
-45.03
-31.89
-17.64
-4.33
6.36
13.29
16.12
15.21
11.50
6.30
0.97
-3.42
-6.23
-7.42
-7.38
-6.70
-5.96
-5.45
-5.18
-4.83
-3.97
-2.27
0.25
3.10
5.48
6.50
5.59
2.75
-1.46
-6.24
-10.93
-15.32
-19.61
-24.23
-29.47
-35.28
-41.19
-46.40
-50.02
-51.17
-49.29
-44.23
-36.37
-26.61
-16.16
-6.32
1.74
7.22
9.73
9.22
6.06
0.85
-5.49
-11.96
-17.62
-21.85
-24.46
-25.67
-25.93
-25.71
-25.33
-24.95
-24.62
-24.49
-24.78
-25.80
-27.81
-30.82
-34.62
-38.70
-42.48
-45.49
-47.52
-48.71
-49.48
-50.46
-52.35
-55.66
-60.48
-66.25
-71.76
-75.31
-75.18
-70.14
-59.94
-45.39
-28.22
-10.56
5.59
18.75
28.12
33.56
35.42
34.43
31.66
28.29
25.49
24.12
24.56
26.65
29.76
33.05
35.72
37.26
37.50
36.58
34.77
32.33
29.42
26.04
22.18
17.82
13.07
8.17
3.45
-0.82
-4.53
-7.87
-11.28
-15.36
-20.65
-27.35
-35.04
-42.64
-48.53
-50.99
-48.72
-41.26
-29.21
-14.05
2.25
17.74
30.90
40.77
46.98
49.65
49.28
46.71
43.09
39.66
37.46
37.09
38.56
41.25
44.29
46.80
48.19
48.32
47.37
45.64
43.38
40.69
37.53
33.84
29.72
25.35
21.04
17.04
13.42
10.11
6.88
3.40
-0.72
-5.84
-12.18
-19.62
-27.41
-34.17
-38.11
-37.54
-31.53
-20.31
-5.28
11.37
27.36
40.93
51.04
57.38
60.10
59.60
56.48
51.56
45.91
40.66
36.79
34.77
34.51
35.40
36.65
37.58
37.84
37.40
36.41
35.01
33.15
30.68
27.39
23.14
17.95
12.06
5.80
-0.43
-6.28
-11.52
-16.14
-20.33
-24.54
-29.30
-35.05
-41.83
-49.09
-55.63
-59.83
-60.09
-55.27
-45.19
-30.69
-13.50
4.16
20.15
32.86
41.40
45.70
46.32
44.20
40.45
36.09
31.99
28.72
26.56
25.47
25.19
25.33
25.45
25.20
24.36
22.80
20.50
17.46
13.70
9.33
4.49
-0.55
-5.54
-10.23
-14.50
-18.33
-21.82
-25.23
-28.94
-33.39
-38.86
-45.14
-51.39
-56.12
-57.57
-54.37
-46.06
-33.36
-18.01
-2.20
12.08
23.38
31.03
34.97
35.57
33.55
29.90
25.79
22.40
20.70
21.15
23.61
27.42
31.73
35.72
38.90
41.06
42.16
42.24
41.22
39.06
35.78
31.51
26.53
21.12
15.53
9.89
4.31
-1.10
-6.36
-11.60
-17.12
-23.18
-29.71
-36.00
-40.74
-42.38
-39.73
-32.49
-21.48
-8.36
4.92
16.68
25.90
32.16
35.53
36.33
35.02
32.20
28.62
25.13
22.53
21.32
21.64
23.14
25.20
27.08
28.13
27.99
26.61
24.21
21.07
17.45
13.49
9.26
4.82
0.34
-3.97
-7.93
-11.42
-14.58
-17.71
-21.23
-25.60
-31.04
-37.29
-43.47
-48.19
-49.85
-47.19
-39.76
-28.25
-14.21
0.31
13.43
23.82
30.83
34.45
35.00
33.05
29.34
24.74
20.21
16.57
14.34
13.57
13.97
14.98
16.06
16.87
17.23
17.13
16.57
15.49
13.77
11.32
8.12
4.25
-0.08
-4.61
-9.10
-13.35
-17.20
-20.73
-24.19
-28.04
-32.68
-38.17
-43.91
-48.64
-50.73
-48.77
-42.17
-31.41
-17.96
-3.78
9.28
19.90
27.39
31.61
32.77
31.34
28.00
23.65
19.30
15.81
13.77
13.26
13.98
15.39
16.90
18.07
18.59
18.29
17.06
14.87
11.68
7.56
2.69
-2.67
-8.14
-13.42
-18.30
-22.84
-27.28
-32.05
-37.50
-43.78
-50.54
-56.95
-61.75
-63.60
-61.40
-54.71
-43.89
-30.09
-14.99
-0.40
12.09
21.39
26.94
28.73
27.17
23.03
17.31
11.20
5.79
1.93
0.07
0.13
1.60
3.69
5.60
6.69
6.61
5.30
2.84
-0.56
-4.64
-9.10
-13.63
-17.96
-21.94
-25.64
-29.34
-33.50
-38.51
-44.50
-51.09
-57.28
-61.62
-62.57
-59.00
-50.58
-38.01
-22.82
-7.00
7.57
19.43
27.76
32.36
33.45
31.57
27.51
22.24
16.78
12.11
8.97
7.71
8.25
10.11
12.52
14.62
15.67
15.21
13.07
9.51
4.99
0.07
-4.77
-9.27
-13.45
-17.54
-21.91
-26.99
-33.10
-40.31
-48.26
-56.06
-62.29
-65.28
-63.63
-56.62
-44.65
-29.19
-12.42
3.39
16.44
25.71
30.97
32.54
31.11
27.44
22.48
17.21
12.64
9.66
8.77
9.99
12.77
16.16
19.10
20.71
20.52
18.50
14.99
10.53
5.70
0.92
-3.57
-7.77
-11.80
-15.92
-20.48
-25.78
-32.04
-39.16
-46.50
-52.79
-56.38
-55.61
-49.51
-38.18
-22.89
-5.79
10.84
25.16
36.11
43.41
47.28
48.17
46.66
43.43
39.32
35.27
32.14
30.52
30.56
31.93
33.97
35.95
37.27
37.50
36.49
34.27
30.98
26.87
22.23
17.35
12.46
7.67
2.96
-1.84
-7.03
-13.05
-20.20
-28.45
-37.14
-44.87
-49.75
-49.89
-44.16
-32.66
-16.82
1.04
18.41
33.28
44.42
51.47
54.66
54.51
51.78
47.42
42.53
38.15
35.08
33.67
33.74
34.74
35.99
36.91
37.09
36.37
34.68
32.03
28.44
24.04
19.04
13.74
8.48
3.49
-1.13
-5.52
-10.04
-15.14
-21.26
-28.47
-36.35
-43.74
-48.93
-50.09
-45.88
-36.07
-21.76
-5.11
11.36
25.47
35.98
42.53
45.51
45.53
43.27
39.46
34.91
30.52
27.13
25.28
24.99
25.85
27.14
28.13
28.27
27.28
25.10
21.83
17.66
12.88
7.78
2.65
-2.37
-7.22
-11.97
-16.73
-21.59
-26.64
-32.05
-37.93
-44.14
-50.14
-54.79
-56.64
-54.32
-47.15
-35.47
-20.66
-4.73
10.21
22.47
31.01
35.39
35.76
32.69
27.14
20.41
13.89
8.78
5.85
5.19
6.28
8.12
9.53
9.59
8.07
5.68
4.00
4.93
9.94
19.21
31.48
44.30
54.94
61.17
61.85
56.85
46.75
32.53
15.51
-2.49
-19.14
-31.80
-38.25
-37.41
-29.83
-17.57
-3.55
9.34
19.03
24.55
25.95
23.83
19.09
12.72
5.73
-0.77
-5.79
-8.69
-9.51
-8.89
-8.03
-8.22
-10.47
-15.37
-23.09
-33.42
-45.95
-60.07
-74.96
-89.71
-103.42
-115.42
-125.52
-134.04
-141.80
-149.85
-159.27
-170.75
-184.33
-199.10
-213.39
-225.06
-232.13
-233.37
-228.64
-218.86
-205.59
-190.41
-174.44
-158.08
-141.18
-123.51
-105.17
-86.97
-70.21
-56.15
-45.40
-37.41
-30.32
-21.48
-8.32
10.75
35.66
64.65
94.79
122.88
146.31
163.63
174.64
180.07
181.11
179.14
175.37
170.90
166.56
162.80
159.59
156.21
151.54
144.45
134.44
122.04
108.82
96.90
88.14
83.50
82.71
84.47
87.04
88.78
88.58
85.94
80.83
73.58
64.69
54.94
45.20
36.40
29.23
24.00
20.56
18.44
17.00
15.69
14.15
12.20
9.77
6.83
3.35
-0.65
-5.09
-9.72
-14.21
-18.30
-21.85
-24.95
-27.87
-30.99
-34.69
-39.13
-44.15
-49.10
-52.85
-53.98
-51.18
-43.66
-31.58
-16.06
1.04
17.63
31.96
43.02
50.56
55.04
57.29
58.28
59.02
60.36
62.93
66.97
72.36
78.60
85.16
91.64
97.99
104.40
111.11
118.10
124.95
130.87
135.07
136.99
136.60
134.53
132.05
130.81
132.38
137.61
145.92
155.03
161.39
161.33
152.47
134.72
110.34
82.91
55.93
31.61
10.51
-7.94
-24.56
-39.74
-53.28
-64.81
-74.22
-81.97
-88.85
-95.59
-102.42
-108.90
-114.14
-117.22
-117.65
-115.59
-111.88
-107.66
-104.07
-101.81
-101.04
-101.41
-102.29
-103.05
-103.16
-102.31
-100.34
-97.25
-93.15
-88.26
-82.95
-77.71
-73.15
-69.93
-68.56
-69.22
-71.57
-74.63
-76.91
-76.74
-72.79
-64.52
-52.35
-37.54
-21.82
-6.91
5.79
15.28
20.96
22.64
20.60
15.72
9.37
3.10
-1.83
-4.80
-5.96
-6.00
-5.79
-6.01
-7.01
-8.88
-11.63
-15.29
-19.84
-25.12
-30.72
-36.05
-40.44
-43.45
-44.99
-45.35
-45.06
-44.71
-44.82
-45.81
-48.02
-51.65
-56.53
-61.91
-66.39
-68.15
-65.53
-57.70
-45.02
-28.98
-11.79
4.34
17.71
27.35
33.08
35.35
35.06
33.43
31.78
31.13
31.92
33.93
36.29
37.98
38.22
36.81
34.23
31.52
29.94
30.55
33.83
39.36
45.75
50.92
52.72
49.72
41.75
30.08
16.93
4.64
-5.24
-12.30
-17.13
-20.72
-23.73
-26.10
-27.16
-26.06
-22.27
-15.83
-7.26
2.64
13.15
23.69
33.75
42.71
49.86
54.46
56.05
54.65
50.86
45.72
40.36
35.67
32.06
29.41
27.22
24.91
22.07
18.64
14.80
10.81
6.81
2.72
-1.71
-6.77
-12.57
-18.96
-25.63
-32.18
-38.32
-43.94
-49.19
-54.40
-60.03
-66.34
-73.19
-79.78
-84.72
-86.36
-83.26
-74.85
-61.62
-44.99
-26.96
-9.47
5.94
18.28
27.11
32.35
34.29
33.60
31.27
28.47
26.31
25.48
26.18
28.10
30.60
33.06
34.94
36.00
36.15
35.37
33.61
30.77
26.71
21.44
15.16
8.24
1.22
-5.44
-11.41
-16.67
-21.45
-26.16
-31.30
-37.33
-44.50
-52.64
-61.03
-68.35
-72.90
-73.08
-67.93
-57.54
-43.03
-26.32
-9.45
5.77
18.08
26.83
31.78
33.15
31.52
27.92
23.67
20.15
18.36
18.70
20.85
23.98
27.16
29.63
31.07
31.51
31.13
30.11
28.44
26.00
22.69
18.51
13.65
8.41
3.08
-2.08
-6.98
-11.61
-16.09
-20.76
-26.03
-32.33
-39.72
-47.63
-54.68
-58.93
-58.48
-52.21
-40.26
-24.09
-6.01
11.54
26.63
38.15
45.74
49.52
49.88
47.42
43.03
37.91
33.37
30.47
29.71
30.82
32.96
35.07
36.30
36.34
35.33
33.75
31.99
30.15
28.04
25.28
21.59
16.96
11.66
6.17
0.96
-3.69
-7.75
-11.40
-15.06
-19.21
-24.32
-30.66
-37.96
-45.23
-50.86
-52.94
-49.92
-41.26
-27.72
-11.15
6.07
21.76
34.38
43.28
48.41
50.12
48.96
45.73
41.45
37.26
34.17
32.76
33.01
34.35
35.92
36.94
37.00
36.13
34.71
33.22
31.92
30.80
29.52
27.68
24.99
21.50
17.61
13.87
10.73
8.32
6.33
4.10
0.90
-3.91
-10.57
-18.77
-27.52
-35.29
-40.38
-41.40
-37.78
-29.93
-19.13
-7.05
4.69
14.95
23.09
28.88
32.37
33.71
33.15
30.99
27.58
23.29
18.63
14.31
11.30
10.63
13.03
18.54
26.27
34.59
41.67
46.01
46.81
44.03
38.16
29.83
19.64
8.12
-4.15
-16.48
-28.09
-38.36
-47.00
-54.26
-60.74
-67.08
-73.51
-79.47
-83.67
-84.41
-80.32
-70.95
-57.14
-40.82
-24.41
-10.06
0.85
7.86
11.26
11.73
10.02
6.86
2.96
-0.94
-4.13
-6.03
-6.33
-5.12
-2.79
0.04
2.72
4.70
5.65
5.45
4.21
2.14
-0.51
-3.54
-6.79
-10.22
-13.81
-17.54
-21.40
-25.48
-29.94
-35.04
-40.94
-47.44
-53.78
-58.65
-60.50
-58.06
-50.81
-39.28
-24.92
-9.69
4.49
16.18
24.57
29.49
31.17
30.08
26.89
22.46
17.81
13.91
11.53
10.98
11.97
13.81
15.61
16.57
16.26
14.60
11.81
8.22
4.09
-0.29
-4.71
-8.94
-12.82
-16.33
-19.61
-22.99
-26.84
-31.54
-37.31
-44.16
-51.74
-59.25
-65.48
-68.94
-68.29
-62.76
-52.57
-38.87
-23.52
-8.54
4.39
14.22
20.50
23.33
23.14
20.67
16.88
12.91
9.74
8.09
8.18
9.72
12.12
14.73
17.01
18.62
19.35
19.05
17.64
15.13
11.65
7.51
3.09
-1.30
-5.52
-9.56
-13.57
-17.76
-22.40
-27.78
-34.09
-41.28
-48.79
-55.50
-59.84
-60.24
-55.66
-46.05
-32.42
-16.60
-0.71
13.38
24.41
31.76
35.37
35.60
33.10
28.87
24.10
19.94
17.22
16.26
16.76
18.08
19.46
20.31
20.34
19.44
17.60
14.84
11.21
6.82
1.88
-3.35
-8.67
-13.97
-19.26
-24.53
-29.75
-34.87
-39.93
-45.10
-50.69
-56.87
-63.29
-68.87
-71.88
-70.26
-62.32
-47.36
-25.96
0.09
28.18
55.44
79.19
97.33
108.58
112.63
110.38
103.78
95.53
88.45
84.81
85.65
90.57
97.91
105.25
110.11
110.49
105.21
94.03
77.58
57.18
34.72
12.35
-7.85
-24.17
-35.56
-41.80
-43.56
-42.37
-40.34
-39.74
-42.33
-48.68
-57.74
-67.04
-73.47
-74.44
-68.83
-57.44
-42.59
-27.22
-13.95
-4.44
0.70
1.66
-0.89
-5.98
-12.49
-19.07
-24.35
-27.21
-27.03
-23.91
-18.62
-12.34
-6.27
-1.35
2.02
3.80
4.25
3.54
1.63
-1.62
-6.19
-11.51
-16.24
-18.49
-16.45
-9.33
1.98
14.91
25.81
31.17
28.73
18.08
0.72
-20.57
-42.41
-61.49
-75.11
-81.56
-80.34
-72.29
-59.34
-44.06
-28.96
-15.98
-6.18
0.16
3.33
4.01
3.12
1.85
1.44
3.00
7.10
13.56
21.51
29.66
36.77
42.02
45.19
46.54
46.50
45.34
43.04
39.35
34.10
27.46
20.12
13.09
7.33
3.21
0.45
-1.81
-4.51
-8.29
-13.25
-19.12
-25.45
-31.73
-37.35
-41.40
-42.76
-40.34
-33.57
-22.77
-9.26
5.04
18.28
29.10
36.88
41.51
43.17
42.14
38.86
34.13
29.15
25.32
23.89
25.50
29.93
36.12
42.60
47.91
51.02
51.55
49.63
45.68
40.22
33.75
26.69
19.45
12.36
5.69
-0.45
-6.14
-11.52
-16.83
-22.27
-28.10
-34.48
-41.35
-48.18
-53.77
-56.42
-54.44
-46.95
-34.50
-19.23
-4.21
7.61
14.48
16.33
14.56
11.23
8.19
6.46
6.24
7.19
8.90
11.09
13.65
16.47
19.31
21.73
23.27
23.63
22.78
20.99
18.70
16.31
14.00
11.72
9.22
6.28
2.74
-1.38
-5.94
-10.75
-15.65
-20.53
-25.32
-29.94
-34.21
-37.77
-40.04
-40.29
-37.87
-32.47
-24.34
-14.44
-4.23
4.67
10.77
13.05
11.15
5.38
-3.33
-13.50
-23.42
-31.43
-36.32
-37.52
-35.19
-30.12
-23.50
-16.57
-10.27
-5.02
-0.58
3.86
9.31
16.64
26.08
37.14
48.82
59.95
69.58
77.05
81.91
83.69
81.86
76.15
66.98
55.73
44.68
36.30
32.55
34.13
40.37
49.58
59.79
69.45
77.66
84.04
88.38
90.30
89.23
84.73
76.80
66.12
54.02
42.09
31.76
23.91
18.73
15.73
13.99
12.46
10.19
6.55
1.24
-5.66
-13.70
-22.17
-30.20
-36.98
-41.98
-45.18
-47.09
-48.59
-50.69
-54.19
-59.41
-66.16
-73.73
-81.27
-87.90
-93.01
-96.48
-98.62
-100.13
-101.86
-104.61
-108.77
-114.15
-119.88
-124.49
-126.17
-123.18
-114.43
-99.84
-80.48
-58.38
-36.03
-15.77
0.71
12.55
19.74
22.86
22.80
20.60
17.33
14.01
11.59
10.75
11.73
14.31
17.87
21.57
24.66
26.63
27.20
26.28
23.92
20.25
15.50
10.04
4.30
-1.36
-6.72
-11.75
-16.65
-21.72
-27.25
-33.51
-40.50
-47.85
-54.69
-59.64
-61.11
-57.84
-49.29
-36.03
-19.63
-2.28
13.82
26.89
35.88
40.53
41.14
38.50
33.60
27.55
21.45
16.23
12.60
10.91
11.14
12.89
15.51
18.24
20.39
21.50
21.35
20.01
17.69
14.58
10.85
6.63
2.07
-2.63
-7.23
-11.65
-15.97
-20.59
-26.01
-32.53
-39.94
-47.30
-53.00
-55.26
-52.66
-44.74
-32.17
-16.62
-0.23
14.94
27.30
35.91
40.46
41.20
38.81
34.27
28.77
23.47
19.27
16.68
15.77
16.23
17.52
19.05
20.27
20.75
20.29
18.84
16.49
13.36
9.66
5.56
1.28
-2.92
-6.87
-10.54
-14.12
-18.07
-22.95
-29.16
-36.65
-44.63
-51.62
-55.75
-55.36
-49.61
-38.82
-24.46
-8.70
6.29
18.76
27.81
33.18
35.14
34.20
31.05
26.54
21.67
17.47
14.82
14.17
15.47
18.13
21.19
23.62
24.61
23.75
21.08
16.92
11.77
6.03
0.01
-6.16
-12.42
-18.79
-25.34
-32.23
-39.73
-47.94
-56.59
-64.81
-71.08
-73.64
-70.98
-62.52
-48.85
-31.70
-13.40
3.77
18.03
28.37
34.48
36.55
35.17
31.27
26.03
20.88
17.16
15.92
17.56
21.71
27.38
33.20
37.87
40.47
40.64
38.49
34.45
29.00
22.54
15.38
7.78
0.06
-7.52
-14.81
-21.91
-29.16
-36.92
-45.28
-53.70
-60.85
-64.85
-63.89
-56.83
-43.84
-26.44
-7.08
11.57
27.33
38.96
46.09
49.07
48.56
45.42
40.66
35.37
30.59
27.20
25.61
25.81
27.33
29.48
31.49
32.67
32.56
30.95
27.88
23.63
18.57
13.03
7.28
1.42
-4.50
-10.56
-16.92
-23.79
-31.41
-39.84
-48.67
-56.94
-63.19
-65.76
-63.42
-55.81
-43.68
-28.72
-13.04
1.36
13.03
21.20
25.67
26.71
24.89
21.04
16.25
11.66
8.31
6.88
7.50
9.80
13.02
16.26
18.69
19.75
19.26
17.39
14.57
11.29
7.95
4.75
1.64
-1.56
-5.10
-9.27
-14.31
-20.43
-27.54
-35.02
-41.63
-45.65
-45.38
-39.77
-28.86
-13.86
3.19
19.96
34.46
45.29
51.79
53.94
52.17
47.31
40.44
32.79
25.61
19.87
16.13
14.45
14.33
14.92
15.25
14.52
12.31
8.67
3.96
-1.33
-6.83
-12.38
-18.00
-23.86
-30.19
-37.23
-45.31
-54.75
-65.70
-77.79
-89.97
-100.53
-107.41
-108.85
-103.95
-92.96
-77.14
-58.41
-38.72
-19.69
-2.43
12.39
24.46
33.75
40.58
45.63
49.81
53.97
58.61
63.76
68.85
73.02
75.34
75.15
72.25
66.89
59.73
51.54
43.12
35.05
27.62
20.85
14.58
8.46
1.97
-5.41
-14.03
-23.80
-33.87
-42.62
-48.01
-48.16
-42.12
-30.30
-14.39
3.18
19.94
34.04
44.50
51.09
54.06
53.94
51.38
47.26
42.60
38.49
35.81
35.01
36.02
38.28
40.89
42.88
43.46
42.22
39.22
34.96
30.15
25.44
21.21
17.43
13.78
9.78
4.96
-1.01
-8.33
-16.95
-26.38
-35.53
-42.76
-46.18
-44.28
-36.57
-23.85
-8.09
8.24
22.90
34.43
42.28
46.64
48.02
46.99
44.12
40.05
35.54
31.45
28.58
27.36
27.74
29.17
30.79
31.73
31.33
29.35
25.96
21.59
16.74
11.81
6.99
2.26
-2.54
-7.66
-13.41
-20.07
-27.74
-36.16
-44.50
-51.35
-55.00
-53.95
-47.52
-36.10
-21.25
-5.14
10.04
22.64
31.77
37.20
39.11
37.89
34.12
28.56
22.24
16.30
11.76
9.23
8.75
9.73
11.22
12.18
11.79
9.63
5.78
0.68
-5.11
-11.07
-16.90
-22.56
-28.16
-33.92
-40.03
-46.75
-54.36
-63.02
-72.58
-82.18
-90.24
-94.74
-93.88
-86.80
-74.16
-57.93
-40.84
-25.46
-13.48
-5.48
-1.22
0.02
-0.98
-3.45
-6.52
-9.18
-10.32
-9.08
-5.13
1.21
9.02
17.14
24.48
30.34
34.44
36.88
37.99
38.21
37.94
37.59
37.37
37.35
37.38
37.09
35.98
33.62
29.78
24.75
19.43
15.27
13.99
16.99
24.89
37.15
52.17
67.70
81.48
91.75
97.51
98.52
95.05
87.73
77.47
65.39
52.80
40.97
30.91
23.09
17.49
13.55
10.49
7.48
3.88
-0.72
-6.34
-12.78
-19.64
-26.45
-32.86
-38.66
-43.87
-48.62
-53.17
-57.87
-63.10
-69.20
-76.23
-83.71
-90.44
-94.69
-94.56
-88.68
-76.69
-59.54
-39.10
-17.69
2.50
19.80
33.18
42.16
46.74
47.40
45.07
41.02
36.62
33.03
30.94
30.50
31.41
33.04
34.72
35.81
35.85
34.62
32.10
28.46
24.00
19.06
13.99
9.04
4.38
-0.02
-4.35
-8.98
-14.37
-21.00
-29.13
-38.56
-48.57
-57.83
-64.63
-67.30
-64.82
-57.13
-45.36
-31.46
-17.68
-5.96
2.49
7.25
8.54
7.01
3.50
-1.04
-5.65
-9.46
-11.86
-12.61
-11.90
-10.23
-8.22
-6.33
-4.81
-3.66
-2.81
-2.25
-2.16
-2.78
-4.31
-6.70
-9.59
-12.42
-14.66
-16.00
-16.49
-16.60
-17.02
-18.54
-21.67
-26.39
-31.87
-36.58
-38.62
-36.36
-29.02
-17.04
-1.99
13.98
28.75
40.80
49.28
53.98
55.03
52.78
47.83
41.10
33.73
26.94
21.67
18.36
16.88
16.65
16.93
17.07
16.64
15.47
13.53
10.86
7.56
3.74
-0.39
-4.60
-8.66
-12.37
-15.67
-18.58
-21.25
-23.94
-26.98
-30.75
-35.41
-40.75
-45.98
-49.71
-50.31
-46.38
-37.38
-23.90
-7.60
9.27
24.56
36.70
44.98
49.45
50.62
49.31
46.41
42.83
39.46
37.01
35.85
35.91
36.74
37.66
38.04
37.44
35.74
33.05
29.56
25.45
20.87
15.88
10.58
5.06
-0.50
-5.90
-11.01
-15.78
-20.37
-25.08
-30.36
-36.52
-43.50
-50.70
-56.92
-60.58
-60.22
-54.99
-44.94
-31.14
-15.35
0.43
14.39
25.21
32.19
35.14
34.36
30.52
24.66
18.01
11.81
7.03
4.18
3.28
3.90
5.37
7.06
8.47
9.33
9.52
8.98
7.67
5.54
2.59
-1.11
-5.37
-9.95
-14.58
-19.04
-23.25
-27.24
-31.25
-35.60
-40.54
-46.08
-51.75
-56.53
-59.07
-57.96
-52.27
-41.90
-27.67
-11.17
5.58
20.60
32.33
39.83
42.86
41.87
37.82
32.05
25.98
20.92
17.79
17.01
18.45
21.46
25.00
27.84
28.91
27.60
23.99
18.79
13.01
7.53
2.72
-1.59
-5.92
-10.66
-15.82
-21.04
-25.82
-29.96
-33.75
-37.78
-42.41
-47.25
-50.86
-51.13
-46.08
-34.70
-17.63
2.94
23.91
42.31
56.08
64.46
67.75
66.84
62.67
56.13
48.02
39.20
30.65
23.33
17.89
14.46
12.56
11.24
9.39
6.09
0.83
-6.26
-14.67
-23.60
-32.29
-40.12
-46.73
-51.92
-55.57
-57.67
-58.40
-58.23
-58.00
-58.75
-61.36
-66.15
-72.44
-78.63
-82.49
-81.87
-75.45
-63.25
-46.68
-28.08
-10.09
5.11
16.13
22.50
24.51
22.91
18.74
13.16
7.34
2.35
-1.04
-2.45
-1.93
0.04
2.77
5.56
7.84
9.26
9.68
9.05
7.35
4.67
1.32
-2.06
-4.47
-4.93
-2.86
1.61
7.45
13.09
16.94
17.88
15.72
11.24
6.01
1.96
0.88
3.89
11.21
21.99
34.55
46.84
56.95
63.48
65.82
63.97
58.49
50.23
40.27
29.75
19.79
11.28
4.69
0.08
-2.92
-4.89
-6.43
-8.04
-10.09
-12.77
-16.13
-20.06
-24.32
-28.55
-32.48
-35.93
-38.91
-41.62
-44.34
-47.51
-51.58
-56.92
-63.51
-70.73
-77.23
-81.11
-80.57
-74.50
-62.99
-47.41
-29.96
-12.94
1.79
13.17
20.85
24.99
26.02
24.56
21.43
17.64
14.28
12.29
12.19
13.97
17.09
20.72
24.01
26.27
27.17
26.66
24.94
22.31
19.08
15.51
11.77
7.99
4.21
0.40
-3.54
-7.80
-12.67
-18.31
-24.62
-30.98
-36.20
-38.74
-37.15
-30.64
-19.51
-5.13
10.44
25.06
37.09
45.64
50.53
52.05
50.68
47.10
42.13
36.81
32.23
29.30
28.43
29.49
31.80
34.47
36.68
37.85
37.76
36.39
33.82
30.14
25.48
19.98
13.86
7.43
0.96
-5.33
-11.35
-17.20
-23.18
-29.59
-36.58
-43.83
-50.51
-55.22
-56.52
-53.33
-45.42
-33.60
-19.47
-4.98
8.14
18.69
26.13
30.45
31.96
31.25
29.11
26.49
24.36
23.46
24.11
26.16
29.09
32.26
35.04
36.93
37.59
36.82
34.57
31.00
26.50
21.56
16.65
12.08
7.93
4.06
0.26
-3.70
-8.06
-13.05
-18.83
-25.31
-31.96
-37.67
-40.97
-40.40
-35.06
-25.08
-11.62
3.34
17.62
29.41
37.69
42.20
43.30
41.74
38.33
33.91
29.32
25.37
22.71
21.71
22.30
24.02
26.11
27.79
28.51
28.03
26.42
23.90
20.70
17.02
13.03
8.92
4.88
1.11
-2.24
-5.18
-7.84
-10.49
-13.45
-17.01
-21.16
-25.49
-29.06
-30.52
-28.51
-22.11
-11.26
3.14
19.35
35.33
49.18
59.56
65.81
67.92
66.35
61.88
55.49
48.23
41.14
34.99
30.24
26.91
24.69
23.05
21.47
19.61
17.34
14.68
11.65
8.21
4.26
-0.27
-5.32
-10.72
-16.19
-21.49
-26.57
-31.57
-36.72
-42.26
-48.26
-54.43
-60.07
-64.04
-65.02
-61.82
-53.82
-41.27
-25.33
-7.81
9.28
24.16
35.63
43.16
46.76
46.85
44.19
39.70
34.41
29.28
24.97
21.81
19.68
18.16
16.76
15.04
12.74
9.79
6.20
2.06
-2.49
-7.26
-11.99
-16.42
-20.41
-23.95
-27.24
-30.55
-34.17
-38.29
-43.02
-48.41
-54.32
-60.35
-65.68
-69.03
-69.09
-64.85
-56.17
-43.89
-29.66
-15.40
-2.81
7.06
13.77
17.39
18.24
16.79
13.73
9.93
6.35
3.86
2.94
3.59
5.30
7.33
9.01
9.94
10.03
9.42
8.27
6.61
4.37
1.44
-2.17
-6.25
-10.46
-14.35
-17.68
-20.42
-22.82
-25.31
-28.43
-32.63
-38.07
-44.48
-51.04
-56.40
-59.00
-57.49
-51.27
-40.70
-27.09
-12.33
1.68
13.37
21.83
26.71
28.15
26.62
22.86
17.84
12.66
8.33
5.53
4.40
4.63
5.60
6.66
7.31
7.30
6.51
4.86
2.25
-1.39
-5.97
-11.13
-16.35
-21.02
-24.75
-27.41
-29.19
-30.54
-31.99
-34.08
-37.29
-41.86
-47.66
-54.00
-59.62
-62.89
-62.33
-57.10
-47.37
-34.31
-19.78
-5.73
6.20
14.97
20.20
22.03
21.02
18.12
14.46
11.23
9.40
9.43
11.26
14.30
17.76
20.95
23.40
24.94
25.55
25.25
23.95
21.53
17.91
13.14
7.53
1.50
-4.44
-9.83
-14.43
-18.24
-21.51
-24.71
-28.38
-32.94
-38.43
-44.25
-49.28
-52.00
-51.05
-45.67
-36.03
-23.22
-8.94
4.99
17.07
26.35
32.42
35.32
35.43
33.35
29.96
26.26
23.22
21.59
21.67
23.27
25.78
28.44
30.57
31.78
31.93
31.09
29.41
26.96
23.76
19.79
15.14
9.98
4.62
-0.59
-5.41
-9.81
-14.02
-18.45
-23.61
-29.84
-37.09
-44.71
-51.46
-55.71
-55.90
-51.06
-41.19
-27.31
-11.22
5.02
19.63
31.42
39.75
44.47
45.69
43.84
39.61
34.04
28.39
23.80
21.00
20.16
20.88
22.42
23.99
24.99
25.08
24.12
22.09
19.04
15.05
10.29
5.03
-0.36
-5.55
-10.28
-14.49
-18.35
-22.22
-26.60
-31.87
-38.17
-45.11
-51.71
-56.57
-58.14
-55.31
-47.71
-36.00
-21.63
-6.48
7.67
19.47
28.09
33.21
34.88
33.45
29.59
24.22
18.47
13.37
9.67
7.65
7.11
7.52
8.25
8.64
8.20
6.57
3.64
-0.50
-5.50
-10.87
-16.04
-20.56
-24.12
-26.63
-28.25
-29.33
-30.39
-32.08
-35.00
-39.39
-44.91
-50.46
-54.38
-54.89
-50.71
-41.60
-28.44
-13.10
2.29
15.83
26.29
33.20
36.69
37.27
35.72
32.96
30.01
27.80
26.92
27.50
29.22
31.42
33.38
34.55
34.68
33.72
31.82
29.14
25.82
21.97
17.64
12.89
7.83
2.61
-2.61
-7.66
-12.55
-17.46
-22.73
-28.69
-35.45
-42.63
-49.29
-54.05
-55.44
-52.36
-44.51
-32.56
-17.96
-2.59
11.73
23.58
32.15
37.19
38.90
37.82
34.77
30.69
26.60
23.31
21.36
20.89
21.69
23.35
25.38
27.32
28.75
29.38
28.98
27.43
24.78
21.29
17.28
13.07
8.88
4.76
0.64
-3.67
-8.30
-13.38
-19.04
-25.33
-32.08
-38.73
-44.18
-47.01
-45.83
-39.88
-29.43
-15.78
-0.96
12.96
24.27
32.02
35.94
36.35
33.93
29.60
24.38
19.32
15.26
12.68
11.63
11.77
12.55
13.38
13.82
13.59
12.56
10.65
7.88
4.35
0.26
-4.14
-8.59
-12.89
-16.99
-20.93
-24.81
-28.85
-33.29
-38.39
-44.26
-50.60
-56.51
-60.52
-60.99
-56.67
-47.31
-33.81
-18.01
-2.11
11.95
22.95
30.38
34.34
35.27
33.87
31.03
27.82
25.29
24.24
24.98
27.24
30.28
33.23
35.31
36.07
35.41
33.47
30.50
26.81
22.67
18.28
13.81
9.37
5.01
0.75
-3.42
-7.57
-11.85
-16.50
-21.83
-28.08
-35.19
-42.53
-48.91
-52.69
-52.33
-46.90
-36.56
-22.52
-6.77
8.56
21.72
31.67
38.08
41.14
41.35
39.33
35.85
31.79
27.97
25.11
23.60
23.40
24.10
25.12
25.86
25.87
24.83
22.61
19.19
14.64
9.16
3.03
-3.37
-9.74
-15.83
-21.54
-26.88
-31.97
-37.00
-42.27
-48.13
-54.77
-61.99
-68.92
-74.07
-75.69
-72.35
-63.54
-49.97
-33.42
-16.23
-0.59
11.93
20.57
25.29
26.55
25.12
21.97
18.24
15.12
13.61
14.26
16.98
21.11
25.56
29.22
31.28
31.38
29.60
26.29
21.82
16.50
10.54
4.13
-2.41
-8.59
-13.82
-17.61
-19.85
-20.91
-21.63
-22.95
-25.41
-28.75
-31.76
-32.64
-29.62
-21.70
-9.07
6.81
23.61
38.85
50.50
57.42
59.42
57.04
51.26
43.11
33.66
23.99
15.22
8.39
4.25
2.97
3.97
6.14
8.27
9.48
9.53
8.69
7.41
5.98
4.33
2.31
-0.02
-2.16
-3.24
-2.48
0.22
4.04
7.27
8.02
4.99
-1.80
-10.78
-19.42
-25.10
-26.20
-22.60
-15.64
-7.41
0.10
5.59
8.62
9.34
8.15
5.39
1.44
-3.09
-7.30
-10.09
-10.48
-8.01
-2.96
3.79
11.08
17.97
23.97
29.07
33.50
37.36
40.45
42.30
42.51
40.93
37.78
33.53
28.47
22.53
15.17
5.70
-6.23
-20.21
-34.86
-48.14
-57.96
-62.91
-62.74
-58.36
-51.44
-43.74
-36.64
-30.95
-27.07
-25.27
-25.80
-28.72
-33.64
-39.60
-45.23
-49.19
-50.65
-49.49
-46.27
-41.88
-37.20
-32.87
-29.29
-26.66
-25.09
-24.62
-25.13
-26.35
-27.91
-29.37
-30.43
-30.98
-31.20
-31.58
-32.79
-35.46
-39.72
-45.01
-49.90
-52.41
-50.66
-43.52
-31.15
-14.95
2.82
19.68
33.63
43.39
48.44
48.86
45.19
38.31
29.49
20.18
11.85
5.55
1.74
0.23
0.35
1.31
2.47
3.42
3.98
4.07
3.60
2.46
0.61
-1.85
-4.73
-7.77
-10.80
-13.82
-16.98
-20.57
-24.90
-30.23
-36.47
-43.08
-48.92
-52.39
-51.81
-46.02
-34.82
-19.22
-1.20
16.89
32.93
45.51
54.08
58.71
59.88
58.24
54.58
49.91
45.34
41.94
40.41
40.93
43.08
46.04
48.90
50.91
51.71
51.24
49.66
47.19
44.01
40.33
36.44
32.82
30.01
28.46
28.25
28.92
29.48
28.75
25.83
20.64
14.08
8.02
4.76
6.56
15.00
30.61
52.64
79.07
106.89
132.51
152.51
164.20
166.19
158.54
142.63
120.78
95.79
70.46
47.27
28.12
14.07
5.24
0.74
-1.06
-2.12
-4.26
-8.63
-15.53
-24.38
-34.13
-43.69
-52.32
-59.85
-66.54
-72.85
-79.11
-85.47
-91.85
-98.03
-103.58
-107.76
-109.39
-106.94
-98.96
-84.66
-64.42
-39.96
-14.08
10.05
29.65
42.86
49.03
48.57
42.65
32.89
21.02
8.74
-2.47
-11.48
-17.69
-21.06
-22.11
-21.75
-21.02
-20.84
-21.81
-24.18
-27.88
-32.64
-38.10
-43.92
-49.84
-55.66
-61.31
-66.83
-72.38
-78.23
-84.72
-92.07
-100.04
-107.74
-113.57
-115.52
-111.71
-101.13
-83.99
-61.82
-37.01
-12.14
10.58
29.70
44.54
54.94
61.19
63.83
63.75
62.08
60.06
58.81
59.00
60.71
63.43
66.29
68.30
68.68
67.00
63.19
57.46
50.19
41.87
33.00
23.98
15.15
6.65
-1.54
-9.63
-17.94
-26.82
-36.55
-47.05
-57.73
-67.37
-74.32
-76.92
-74.09
-65.76
-53.05
-37.99
-22.95
-9.98
-0.41
5.33
7.48
6.71
3.87
-0.13
-4.37
-7.97
-10.21
-10.65
-9.27
-6.45
-2.81
0.92
4.14
6.44
7.66
7.82
7.07
5.58
3.52
1.06
-1.64
-4.42
-7.12
-9.71
-12.36
-15.43
-19.38
-24.54
-30.74
-37.19
-42.45
-44.88
-43.08
-36.47
-25.50
-11.56
3.41
17.43
28.92
36.92
41.15
41.94
40.01
36.33
31.99
27.98
25.14
23.91
24.30
25.89
28.04
30.16
31.86
33.05
33.80
34.12
33.81
32.50
29.83
25.61
19.98
13.26
5.86
-1.88
-9.70
-17.38
-24.70
-31.43
-37.27
-41.84
-44.55
-44.65
-41.40
-34.36
-23.78
-10.63
3.65
17.50
29.72
39.54
46.65
51.00
52.60
51.57
48.28
43.48
38.25
33.96
31.84
32.58
36.00
41.02
45.94
48.98
48.77
44.67
36.81
25.93
13.22
0.17
-11.50
-20.13
-24.51
-24.18
-19.63
-11.89
-2.07
9.15
21.72
36.16
53.05
72.69
94.66
117.79
140.13
159.28
172.92
179.32
177.87
169.13
154.61
136.10
115.02
92.05
67.19
40.20
11.21
-18.81
-47.95
-73.79
-94.08
-107.47
-113.91
-114.54
-111.09
-105.24
-98.17
-90.55
-82.94
-76.09
-70.97
-68.46
-68.95
-72.17
-77.35
-83.72
-90.86
-98.80
-107.49
-116.31
-123.65
-127.18
-124.57
-114.40
-96.89
-73.94
-48.56
-23.94
-2.59
14.12
25.93
33.25
36.78
37.24
35.34
31.80
27.41
22.88
18.76
15.32
12.59
10.45
8.77
7.35
5.96
4.24
1.74
-1.99
-7.19
-13.79
-21.44
-29.59
-37.69
-45.37
-52.41
-58.88
-65.04
-71.30
-78.08
-85.54
-93.26
-100.16
-104.56
-104.65
-99.12
-87.61
-71.00
-51.18
-30.54
-11.45
4.20
15.29
21.52
23.32
21.77
18.38
14.69
12.01
11.15
12.33
15.28
19.45
24.13
28.67
32.52
35.27
36.68
36.65
35.21
32.51
28.79
24.31
19.43
14.46
9.69
5.18
0.84
-3.64
-8.71
-14.80
-22.09
-30.29
-38.45
-45.08
-48.37
-46.69
-39.23
-26.30
-9.41
9.11
26.77
41.53
52.15
58.29
60.28
58.83
54.89
49.48
43.67
38.50
34.77
32.88
32.82
34.13
36.15
38.17
39.58
39.94
38.95
36.50
32.68
27.76
22.15
16.34
10.69
5.37
0.40
-4.39
-9.22
-14.40
-20.28
-27.23
-35.30
-44.04
-52.23
-58.01
-59.40
-54.97
-44.45
-28.95
-10.60
8.10
24.95
38.50
48.08
53.62
55.43
54.06
50.31
45.19
39.87
35.38
32.41
31.21
31.50
32.73
34.21
35.30
35.50
34.51
32.17
28.52
23.74
18.09
11.94
5.68
-0.31
-5.77
-10.60
-14.97
-19.30
-24.16
-29.99
-36.80
-43.89
-49.80
-52.67
-50.72
-42.98
-29.62
-12.08
7.35
26.12
41.96
53.34
59.63
60.97
58.11
52.24
44.70
36.87
29.91
24.63
21.41
20.18
20.53
21.80
23.29
24.36
24.61
23.79
21.89
19.00
15.27
10.89
6.08
1.15
-3.63
-8.03
-11.95
-15.50
-19.05
-23.06
-27.87
-33.40
-38.92
-43.02
-43.99
-40.36
-31.55
-18.17
-1.99
14.69
29.64
41.37
49.20
53.23
53.93
51.95
47.98
42.83
37.48
32.90
29.96
29.06
30.04
32.22
34.62
36.29
36.58
35.27
32.47
28.54
23.88
18.82
13.64
8.50
3.55
-1.17
-5.66
-10.11
-14.76
-19.90
-25.69
-32.01
-38.29
-43.46
-46.13
-44.98
-39.27
-29.17
-15.89
-1.29
12.64
24.36
33.05
38.55
41.07
40.98
38.65
34.58
29.52
24.39
20.15
17.52
16.71
17.47
19.17
21.05
22.42
22.78
21.87
19.65
16.24
11.90
6.95
1.70
-3.57
-8.71
-13.67
-18.55
-23.57
-29.04
-35.22
-42.02
-48.88
-54.66
-57.87
-57.16
-51.84
-42.17
-29.40
-15.39
-2.04
9.15
17.32
22.18
23.84
22.67
19.25
14.37
9.00
4.15
0.65
-1.06
-0.97
0.52
2.74
4.93
6.48
6.99
6.35
4.69
2.29
-0.55
-3.62
-6.83
-10.14
-13.56
-17.19
-21.17
-25.76
-31.19
-37.39
-43.80
-49.25
-52.25
-51.39
-45.94
-36.18
-23.32
-9.16
4.42
15.94
24.47
29.63
31.43
30.18
26.48
21.20
15.43
10.27
6.59
4.79
4.78
5.95
7.47
8.51
8.48
7.15
4.70
1.52
-1.91
-5.29
-8.59
-11.97
-15.76
-20.26
-25.71
-32.15
-39.35
-46.63
-52.85
-56.53
-56.24
-51.09
-41.22
-27.82
-12.80
1.71
14.00
23.05
28.53
30.52
29.37
25.64
20.13
13.86
8.01
3.60
1.22
0.91
2.18
4.24
6.30
7.76
8.28
7.78
6.30
3.95
0.91
-2.61
-6.47
-10.55
-14.91
-19.73
-25.30
-31.77
-38.99
-46.25
-52.33
-55.66
-54.90
-49.32
-39.17
-25.70
-10.80
3.59
15.92
25.27
31.32
34.20
34.24
31.98
28.18
23.82
20.04
17.77
17.53
19.18
21.94
24.71
26.41
26.32
24.31
20.64
15.88
10.55
5.05
-0.40
-5.69
-10.76
-15.69
-20.63
-25.96
-32.01
-38.87
-46.05
-52.37
-56.25
-56.17
-51.32
-41.96
-29.34
-15.41
-2.10
9.09
17.32
22.36
24.36
23.71
20.95
16.80
12.17
7.99
5.07
3.87
4.45
6.43
9.16
11.86
13.84
14.63
14.00
12.08
9.15
5.59
1.72
-2.27
-6.33
-10.58
-15.15
-20.26
-26.11
-32.75
-39.87
-46.68
-51.85
-53.77
-51.08
-43.22
-30.74
-15.25
1.03
15.95
27.86
35.94
40.13
40.89
38.96
35.25
30.76
26.46
23.24
21.66
21.82
23.40
25.70
27.88
29.16
28.98
27.11
23.65
18.96
13.57
7.99
2.64
-2.29
-6.82
-11.15
-15.57
-20.40
-25.87
-32.07
-38.79
-45.41
-50.90
-53.87
-52.98
-47.34
-36.87
-22.53
-6.08
10.31
24.64
35.48
42.19
44.89
44.23
41.12
36.56
31.53
26.96
23.63
22.09
22.46
24.37
27.02
29.44
30.77
30.51
28.67
25.54
21.58
17.16
12.51
7.76
3.04
-1.50
-5.73
-9.69
-13.60
-17.90
-23.09
-29.44
-36.75
-44.17
-50.23
-53.19
-51.53
-44.56
-32.69
-17.42
-0.85
14.85
28.00
37.65
43.52
45.79
45.00
41.93
37.61
33.22
29.89
28.35
28.71
30.48
32.75
34.57
35.30
34.69
32.85
30.09
26.71
22.87
18.66
14.10
9.24
4.23
-0.74
-5.47
-9.84
-13.85
-17.71
-21.78
-26.51
-32.21
-38.78
-45.49
-51.00
-53.68
-52.06
-45.47
-34.29
-19.92
-4.31
10.55
23.12
32.51
38.42
40.96
40.56
37.91
33.92
29.62
25.98
23.66
22.86
23.30
24.43
25.59
26.30
26.30
25.51
23.98
21.77
18.91
15.43
11.35
6.84
2.14
-2.44
-6.63
-10.23
-13.25
-15.86
-18.40
-21.28
-24.97
-29.73
-35.45
-41.49
-46.69
-49.56
-48.73
-43.39
-33.69
-20.75
-6.37
7.47
19.13
27.59
32.51
34.11
32.91
29.65
25.23
20.61
16.74
14.37
13.80
14.83
16.80
18.85
20.23
20.57
19.89
18.51
16.78
14.88
12.75
10.15
6.84
2.72
-2.06
-7.12
-11.97
-16.20
-19.60
-22.27
-24.62
-27.19
-30.54
-35.00
-40.45
-46.23
-51.21
-54.00
-53.37
-48.62
-39.82
-27.84
-14.15
-0.37
12.05
22.03
28.98
32.65
33.14
30.88
26.64
21.53
16.77
13.44
12.08
12.65
14.52
16.86
18.84
20.01
20.19
19.50
18.13
16.20
13.74
10.73
7.17
3.11
-1.32
-5.87
-10.28
-14.26
-17.62
-20.36
-22.64
-24.85
-27.48
-30.97
-35.53
-41.00
-46.71
-51.56
-54.22
-53.48
-48.64
-39.81
-27.89
-14.39
-0.98
10.84
20.08
26.24
29.33
29.61
27.64
24.15
20.10
16.46
14.06
13.32
14.12
15.88
17.73
18.90
18.90
17.71
15.65
13.20
10.72
8.28
5.67
2.57
-1.24
-5.72
-10.54
-15.30
-19.60
-23.23
-26.22
-28.77
-31.24
-34.09
-37.74
-42.40
-47.90
-53.47
-57.85
-59.57
-57.48
-51.10
-40.92
-28.16
-14.44
-1.28
10.18
19.24
25.53
28.94
29.52
27.65
24.04
19.76
15.97
13.60
13.05
14.07
15.91
17.69
18.78
18.90
18.15
16.73
14.75
12.13
8.65
4.19
-1.13
-6.89
-12.49
-17.38
-21.24
-24.09
-26.26
-28.24
-30.60
-33.82
-38.23
-43.82
-50.09
-56.04
-60.27
-61.31
-58.11
-50.40
-38.79
-24.69
-9.80
4.24
16.17
25.19
30.92
33.33
32.71
29.72
25.36
20.79
17.05
14.82
14.23
14.92
16.26
17.64
18.67
19.21
19.25
18.81
17.75
15.89
13.06
9.20
4.48
-0.74
-6.08
-11.15
-15.69
-19.63
-23.10
-26.41
-30.08
-34.60
-40.25
-46.81
-53.35
-58.37
-60.19
-57.43
-49.57
-37.21
-21.89
-5.67
9.47
22.00
31.04
36.36
38.17
37.01
33.70
29.24
24.69
20.99
18.79
18.27
19.18
20.97
22.96
24.56
25.31
24.96
23.45
20.87
17.47
13.50
9.24
4.88
0.51
-3.83
-8.13
-12.37
-16.55
-20.78
-25.33
-30.56
-36.72
-43.67
-50.61
-56.18
-58.77
-57.02
-50.31
-39.04
-24.49
-8.55
6.85
20.05
29.93
35.99
38.25
37.24
33.81
29.11
24.29
20.37
18.02
17.47
18.49
20.55
23.00
25.28
26.97
27.84
27.74
26.61
24.43
21.28
17.32
12.81
8.05
3.29
-1.31
-5.75
-10.16
-14.86
-20.22
-26.57
-33.86
-41.45
-48.07
-52.05
-51.85
-46.61
-36.51
-22.77
-7.26
8.01
21.40
31.79
38.60
41.70
41.31
38.11
33.13
27.70
23.11
20.32
19.65
20.83
23.14
25.76
28.01
29.41
29.77
28.98
27.06
24.10
20.29
15.92
11.31
6.73
2.34
-1.84
-5.97
-10.25
-15.02
-20.57
-27.07
-34.33
-41.69
-47.95
-51.60
-51.17
-45.78
-35.50
-21.43
-5.49
10.14
23.52
33.39
39.26
41.28
40.09
36.52
31.55
26.18
21.39
17.97
16.37
16.55
18.06
20.16
22.08
23.19
23.08
21.62
18.83
14.90
10.13
4.91
-0.36
-5.36
-9.95
-14.21
-18.36
-22.70
-27.53
-33.02
-39.04
-45.00
-49.84
-52.09
-50.32
-43.60
-31.98
-16.56
0.70
17.61
32.29
43.48
50.73
54.10
54.07
51.29
46.63
41.07
35.68
31.40
28.82
28.04
28.64
29.85
30.74
30.50
28.64
25.09
20.12
14.29
8.27
2.62
-2.29
-6.36
-9.77
-12.84
-16.07
-19.94
-24.80
-30.70
-37.24
-43.40
-47.74
-48.68
-45.08
-36.66
-24.22
-9.51
5.32
18.28
28.05
34.13
36.71
36.32
33.65
29.40
24.28
19.04
14.42
11.02
9.10
8.58
9.02
9.80
10.24
9.85
8.36
5.77
2.32
-1.59
-5.59
-9.33
-12.64
-15.53
-18.15
-20.71
-23.50
-26.81
-30.85
-35.67
-40.90
-45.65
-48.63
-48.45
-44.14
-35.58
-23.64
-9.91
3.79
15.96
25.68
32.61
36.80
38.43
37.85
35.57
32.38
29.24
26.97
26.00
26.21
27.08
27.89
28.11
27.51
26.12
24.04
21.37
18.05
14.01
9.24
3.92
-1.65
-7.10
-12.08
-16.47
-20.35
-24.10
-28.23
-33.23
-39.29
-45.97
-52.16
-56.30
-56.81
-52.73
-44.12
-32.10
-18.50
-5.30
5.90
14.19
19.35
21.66
21.63
19.88
17.07
13.87
10.90
8.65
7.40
7.24
8.20
10.33
13.78
18.62
24.62
31.05
36.74
40.38
40.95
38.03
31.93
23.39
13.30
2.34
-9.05
-20.60
-32.10
-43.32
-54.08
-64.30
-73.90
-82.59
-89.69
-94.09
-94.58
-90.17
-80.53
-66.18
-48.37
-28.75
-9.16
8.73
23.51
34.12
40.01
41.29
38.76
33.82
28.13
23.17
19.92
18.66
19.03
20.36
21.88
22.99
23.33
22.80
21.41
19.24
16.40
13.02
9.28
5.43
1.74
-1.54
-4.27
-6.52
-8.52
-10.69
-13.52
-17.41
-22.56
-28.81
-35.53
-41.61
-45.57
-45.99
-41.92
-33.32
-21.13
-7.07
6.92
19.23
28.83
35.39
39.02
40.01
38.73
35.74
31.82
27.89
24.87
23.35
23.40
24.56
26.08
27.22
27.55
27.00
25.79
24.19
22.36
20.27
17.73
14.55
10.67
6.21
1.52
-2.97
-6.87
-10.01
-12.43
-14.44
-16.52
-19.19
-22.87
-27.71
-33.36
-39.00
-43.39
-45.16
-43.23
-37.22
-27.56
-15.46
-2.54
9.64
19.96
27.78
32.92
35.53
35.87
34.40
31.75
28.72
26.19
24.84
24.97
26.38
28.47
30.43
31.54
31.39
29.92
27.38
24.18
20.66
17.00
13.15
8.96
4.29
-0.85
-6.24
-11.50
-16.24
-20.22
-23.41
-26.03
-28.47
-31.20
-34.62
-38.99
-44.27
-49.99
-55.25
-58.82
-59.40
-56.04
-48.47
-37.27
-23.71
-9.45
3.88
15.00
23.12
27.91
29.48
28.25
24.93
20.47
16.00
12.59
11.00
11.50
13.73
16.90
19.98
22.13
22.88
22.29
20.77
18.85
16.92
15.08
13.15
10.84
8.01
4.66
1.04
-2.52
-5.76
-8.55
-10.92
-13.07
-15.30
-17.97
-21.48
-26.06
-31.62
-37.56
-42.81
-46.00
-45.87
-41.75
-33.77
-22.80
-10.23
2.44
13.86
23.04
29.40
32.73
33.20
31.37
28.08
24.38
21.24
19.36
19.03
20.02
21.71
23.38
24.34
24.23
23.02
20.96
18.38
15.56
12.56
9.31
5.64
1.53
-2.93
-7.46
-11.77
-15.58
-18.83
-21.63
-24.26
-27.13
-30.69
-35.27
-40.93
-47.24
-53.29
-57.74
-59.22
-56.71
-49.89
-39.40
-26.51
-12.86
-0.01
10.90
19.15
24.48
26.90
26.75
24.59
21.27
17.74
14.87
13.23
12.91
13.62
14.80
15.90
16.54
16.61
16.20
15.47
14.48
13.13
11.20
8.44
4.76
0.34
-4.40
-8.97
-12.92
-16.09
-18.59
-20.77
-23.10
-26.09
-30.14
-35.38
-41.56
-47.89
-53.08
-55.63
-54.28
-48.43
-38.50
-25.72
-11.78
1.59
13.10
21.95
27.81
30.71
30.91
28.91
25.49
21.65
18.40
16.53
16.43
17.93
20.41
23.09
25.26
26.52
26.79
26.22
24.98
23.17
20.73
17.58
13.74
9.37
4.78
0.32
-3.78
-7.50
-10.95
-14.41
-18.21
-22.62
-27.79
-33.58
-39.52
-44.71
-47.98
-48.14
-44.38
-36.58
-25.40
-12.19
1.40
13.82
23.89
30.89
34.56
35.04
32.77
28.53
23.30
18.24
14.33
12.16
11.79
12.80
14.47
16.09
17.15
17.41
16.87
15.56
13.57
10.95
7.75
4.09
0.10
-4.04
-8.18
-12.19
-15.93
-19.28
-22.27
-25.08
-28.10
-31.76
-36.23
-41.11
-45.37
-47.59
-46.41
-41.00
-31.45
-18.76
-4.46
9.72
22.30
32.19
38.77
41.82
41.56
38.60
33.88
28.54
23.64
19.95
17.80
17.11
17.45
18.24
18.96
19.22
18.84
17.78
16.11
13.92
11.29
8.35
5.26
2.17
-0.78
-3.55
-6.25
-9.12
-12.52
-16.84
-22.26
-28.61
-35.19
-40.76
-43.87
-43.21
-38.17
-29.05
-17.00
-3.75
8.99
19.80
27.80
32.62
34.20
32.83
29.04
23.69
17.87
12.68
9.01
7.28
7.37
8.74
10.62
12.30
13.26
13.24
12.25
10.43
8.03
5.27
2.30
-0.73
-3.80
-6.88
-9.94
-13.03
-16.22
-19.76
-23.93
-28.83
-34.21
-39.25
-42.67
-43.06
-39.44
-31.60
-20.35
-7.17
6.17
18.16
27.84
34.76
38.86
40.29
39.36
36.52
32.50
28.23
24.64
22.44
21.92
22.93
24.97
27.41
29.67
31.30
31.94
31.37
29.43
26.13
21.66
16.41
10.86
5.46
0.46
-4.11
-8.47
-13.04
-18.23
-24.26
-30.89
-37.37
-42.49
-44.83
-43.29
-37.47
-27.83
-15.63
-2.56
9.72
19.87
27.08
31.02
31.80
29.90
26.08
21.26
16.43
12.44
9.84
8.86
9.37
10.90
12.80
14.39
15.06
14.43
12.44
9.31
5.45
1.35
-2.63
-6.25
-9.50
-12.49
-15.46
-18.72
-22.63
-27.39
-33.02
-39.08
-44.67
-48.52
-49.32
-46.18
-38.90
-28.18
-15.38
-2.15
9.99
19.90
26.93
30.86
31.83
30.29
26.92
22.63
18.44
15.21
13.53
13.52
14.89
17.02
19.18
20.63
20.87
19.68
17.16
13.67
9.71
5.80
2.23
-0.89
-3.74
-6.66
-10.07
-14.37
-19.72
-25.82
-31.85
-36.54
-38.48
-36.60
-30.57
-20.97
-9.21
2.95
13.87
22.41
28.02
30.67
30.68
28.50
24.72
20.05
15.26
11.14
8.27
6.95
7.04
8.09
9.42
10.36
10.40
9.33
7.20
4.22
0.74
-3.00
-6.78
-10.54
-14.31
-18.17
-22.34
-27.09
-32.65
-39.06
-45.87
-52.11
-56.38
-57.21
-53.61
-45.48
-33.72
-19.94
-6.02
6.44
16.42
23.49
27.64
29.10
28.24
25.53
21.63
17.38
13.62
11.08
10.10
10.54
11.84
13.19
13.80
13.17
11.19
8.07
4.23
0.08
-4.05
-8.02
-11.80
-15.51
-19.30
-23.42
-28.12
-33.63
-39.91
-46.52
-52.54
-56.60
-57.30
-53.63
-45.45
-33.58
-19.65
-5.61
6.85
16.64
23.37
27.19
28.53
27.94
25.99
23.27
20.50
18.32
17.21
17.35
18.53
20.25
21.86
22.77
22.54
20.97
18.10
14.13
9.38
4.23
-1.00
-6.09
-10.93
-15.55
-20.06
-24.62
-29.48
-34.89
-40.96
-47.47
-53.72
-58.53
-60.46
-58.31
-51.53
-40.49
-26.45
-11.17
3.54
16.22
25.93
32.25
35.22
35.28
33.23
30.08
26.85
24.36
22.98
22.66
23.05
23.65
24.09
24.14
23.71
22.75
21.23
19.08
16.23
12.64
8.34
3.47
-1.70
-6.87
-11.70
-15.95
-19.60
-22.85
-26.18
-30.19
-35.36
-41.77
-48.88
-55.43
-59.77
-60.26
-55.83
-46.41
-32.94
-17.16
-0.98
13.83
26.00
34.84
40.15
42.14
41.37
38.77
35.44
32.55
30.99
31.11
32.66
34.93
37.01
38.13
37.90
36.39
33.95
31.02
27.95
24.79
21.40
17.54
13.09
8.17
3.12
-1.64
-5.76
-9.14
-12.00
-14.76
-17.97
-22.10
-27.41
-33.73
-40.41
-46.24
-49.68
-49.28
