1650358077.00
64.000000
-0.00
-0.00
-0.00
-0.00
-0.00
-0.00
-0.00
-0.00
-0.00
-0.00
0.00
0.01
0.01
-0.00
-0.03
-0.05
-0.05
0.00
0.13
0.36
0.66
1.01
1.37
1.72
2.06
2.40
2.79
3.24
3.80
4.42
5.06
5.66
6.20
6.68
7.15
7.68
8.31
9.14
10.09
11.04
11.88
12.56
13.14
13.76
14.65
15.96
17.91
20.32
22.90
25.38
27.58
29.57
31.68
34.32
37.81
42.54
48.15
54.11
59.84
64.98
69.58
74.14
79.34
85.70
93.77
103.03
112.67
121.78
129.78
136.68
143.10
150.39
157.29
166.07
177.34
191.19
206.39
219.97
227.59
224.59
207.63
175.85
131.69
78.99
22.07
-35.91
-93.46
-150.37
-206.74
-262.23
-315.90
-366.17
-412.09
-453.03
-488.55
-517.96
-539.96
-552.77
-554.47
-543.70
-519.99
-484.48
-439.44
-387.84
-332.69
-276.48
-220.89
-166.82
-114.79
-65.20
-18.90
22.98
59.20
88.81
111.56
128.01
139.41
147.22
152.72
156.57
158.78
158.99
156.74
151.72
143.85
133.31
120.73
107.59
96.20
89.41
89.55
97.24
110.73
126.29
139.56
147.24
148.21
143.54
135.46
126.08
116.48
106.74
96.57
85.99
75.62
66.54
59.44
54.39
50.86
47.89
44.56
40.34
35.26
29.81
24.71
20.52
17.53
15.60
14.27
13.03
11.48
9.41
6.82
3.81
0.58
-2.58
-5.29
-7.23
-8.18
-8.28
-8.04
-8.15
-9.24
-11.53
-14.72
-18.05
-20.61
-21.67
-21.05
-19.29
-17.60
-17.48
-20.12
-25.67
-32.93
-39.47
-42.48
-39.84
-31.09
-17.62
-2.19
12.15
23.17
29.92
32.67
32.29
29.75
25.83
21.22
16.60
12.82
10.56
10.09
10.98
12.24
12.68
11.47
8.55
4.64
0.85
-1.83
-2.93
-2.73
-1.93
-1.29
-1.27
-1.89
-2.83
-3.72
-4.33
-4.64
-4.77
-4.79
-4.66
-4.17
-3.12
-1.40
0.91
3.55
6.17
8.43
10.06
10.97
11.14
10.70
9.84
8.76
7.65
6.59
5.54
4.43
3.06
1.32
-0.78
-3.08
-5.34
-7.29
-8.74
-9.66
-10.11
-10.26
-10.30
-10.38
-10.53
-10.69
-10.72
-10.53
-10.08
-9.48
-8.87
-8.32
-7.81
-7.20
-6.32
-5.06
-3.42
-1.54
0.37
2.10
3.46
4.30
4.59
4.38
3.79
3.03
2.32
1.85
1.75
2.05
2.73
3.67
4.69
5.57
6.07
6.07
5.63
5.00
4.48
4.32
4.61
5.25
5.95
6.39
6.32
5.64
4.48
3.01
1.50
0.14
-0.99
-2.04
-3.30
-5.15
-7.85
-11.12
-14.49
-17.30
-18.88
-18.84
-17.21
-14.37
-10.92
-7.42
-4.21
-1.51
0.58
1.95
2.46
2.02
0.71
-1.16
-3.10
-4.60
-5.34
-5.28
-4.63
-3.80
-3.18
-3.02
-3.33
-3.94
-4.61
-5.20
-5.74
-6.39
-7.34
-8.62
-10.06
-11.34
-12.14
-12.26
-11.80
-11.03
-10.34
-10.08
-10.46
-11.54
-13.19
-15.10
-16.78
-17.64
-17.11
-14.84
-10.85
-5.59
0.18
5.66
10.22
13.50
15.48
16.32
16.25
15.43
14.02
12.17
10.10
8.06
6.26
4.80
3.58
2.40
1.00
-0.76
-2.85
-5.11
-7.31
-9.29
-11.05
-12.73
-14.44
-16.23
-17.96
-19.36
-20.21
-20.43
-20.16
-19.71
-19.45
-19.71
-20.62
-22.13
-23.95
-25.61
-26.52
-26.15
-24.16
-20.58
-15.78
-10.42
-5.17
-0.55
3.25
6.29
8.77
10.80
12.36
13.34
13.63
13.31
12.61
11.88
11.41
11.33
11.59
11.99
12.37
12.64
12.89
13.20
13.62
14.01
14.12
13.66
12.44
10.48
7.97
5.20
2.47
-0.07
-2.34
-4.43
-6.47
-8.67
-11.22
-14.27
-17.87
-21.82
-25.67
-28.71
-30.19
-29.50
-26.42
-21.23
-14.56
-7.24
0.02
6.68
12.50
17.40
21.34
24.29
26.29
27.48
28.14
28.62
29.22
30.02
30.91
31.64
31.96
31.75
31.10
30.20
29.26
28.38
27.51
26.49
25.17
23.54
21.77
20.11
18.80
17.89
17.20
16.35
14.97
12.83
10.05
7.05
4.50
3.08
3.23
5.04
8.17
12.04
15.94
19.27
21.61
22.75
22.65
21.39
19.14
16.13
12.68
9.14
5.83
3.01
0.80
-0.77
-1.80
-2.40
-2.74
-2.92
-3.03
-3.08
-3.04
-2.86
-2.50
-2.00
-1.50
-1.24
-1.54
-2.66
-4.77
-7.85
-11.67
-15.82
-19.73
-22.80
-24.51
-24.47
-22.59
-19.10
-14.49
-9.43
-4.56
-0.32
3.06
5.55
7.25
8.26
8.65
8.51
7.93
7.08
6.16
5.35
4.80
4.54
4.52
4.59
4.59
4.37
3.87
3.17
2.39
1.71
1.21
0.87
0.59
0.18
-0.53
-1.69
-3.35
-5.47
-7.92
-10.48
-12.87
-14.73
-15.74
-15.64
-14.31
-11.78
-8.29
-4.20
0.01
3.90
7.12
9.51
11.08
11.98
12.35
12.33
11.93
11.18
10.15
9.07
8.24
7.95
8.24
8.86
9.36
9.23
8.22
6.43
4.23
2.11
0.38
-0.87
-1.75
-2.48
-3.23
-4.12
-5.23
-6.64
-8.40
-10.46
-12.57
-14.34
-15.28
-14.95
-13.13
-9.89
-5.64
-0.99
3.34
6.75
8.91
9.79
9.62
8.78
7.66
6.51
5.49
4.66
4.02
3.58
3.32
3.24
3.32
3.51
3.74
3.95
4.07
4.08
3.97
3.75
3.42
2.95
2.25
1.28
0.03
-1.45
-3.10
-4.91
-6.91
-9.11
-11.38
-13.38
-14.67
-14.83
-13.71
-11.54
-8.82
-6.21
-4.25
-3.20
-3.08
-3.67
-4.71
-5.96
-7.29
-8.60
-9.78
-10.70
-11.17
-11.08
-10.41
-9.28
-7.92
-6.59
-5.45
-4.53
-3.78
-3.05
-2.26
-1.41
-0.55
0.24
0.90
1.36
1.54
1.36
0.67
-0.63
-2.57
-4.99
-7.54
-9.70
-10.95
-10.90
-9.47
-6.84
-3.48
0.03
3.15
5.51
6.93
7.42
7.21
6.61
5.99
5.64
5.68
6.04
6.55
6.99
7.23
7.22
6.93
6.31
5.27
3.78
1.91
-0.08
-1.94
-3.51
-4.81
-6.11
-7.65
-9.54
-11.64
-13.63
-15.17
-16.03
-16.13
-15.50
-14.12
-11.92
-8.81
-4.86
-0.36
4.16
8.11
11.02
12.66
13.16
12.82
12.00
10.95
9.76
8.45
7.07
5.79
4.93
4.78
5.46
6.79
8.33
9.57
10.12
9.82
8.80
7.31
5.51
3.41
0.84
-2.39
-6.34
-10.86
-15.61
-20.19
-24.19
-27.33
-29.36
-30.10
-29.40
-27.24
-23.71
-19.17
-14.11
-9.12
-4.70
-1.22
1.17
2.51
2.93
2.64
1.86
0.86
-0.09
-0.70
-0.81
-0.44
0.21
0.77
0.93
0.55
-0.29
-1.31
-2.18
-2.71
-2.89
-2.90
-2.97
-3.30
-3.98
-5.03
-6.43
-8.13
-10.07
-12.04
-13.72
-14.70
-14.61
-13.26
-10.77
-7.53
-4.10
-0.97
1.57
3.44
4.75
5.61
6.10
6.23
5.99
5.42
4.54
3.48
2.35
1.32
0.50
-0.01
-0.26
-0.36
-0.50
-0.76
-1.08
-1.29
-1.23
-0.88
-0.44
-0.27
-0.70
-1.89
-3.71
-5.83
-7.78
-9.10
-9.42
-8.54
-6.43
-3.29
0.47
4.30
7.65
10.14
11.62
12.21
12.16
11.73
11.10
10.36
9.55
8.72
7.95
7.32
6.89
6.65
6.57
6.57
6.60
6.60
6.55
6.44
6.26
6.00
5.65
5.17
4.51
3.62
2.45
0.92
-1.01
-3.26
-5.64
-7.79
-9.27
-9.75
-9.05
-7.26
-4.65
-1.54
1.75
5.04
8.21
11.16
13.72
15.66
16.72
16.75
15.75
13.99
11.86
9.84
8.29
7.34
6.89
6.67
6.41
5.96
5.31
4.57
3.85
3.15
2.41
1.45
0.13
-1.58
-3.65
-5.97
-8.38
-10.76
-12.94
-14.74
-15.88
-16.04
-14.99
-12.65
-9.17
-4.97
-0.56
3.58
7.10
9.84
11.73
12.77
12.98
12.46
11.38
10.02
8.68
7.60
6.92
6.61
6.54
6.54
6.46
6.21
5.76
5.10
4.26
3.23
1.98
0.48
-1.27
-3.26
-5.43
-7.72
-10.08
-12.45
-14.71
-16.65
-17.90
-18.07
-16.89
-14.32
-10.66
-6.48
-2.42
0.95
3.34
4.71
5.27
5.34
5.31
5.51
6.18
7.43
9.21
11.31
13.40
15.17
16.41
17.03
17.10
16.78
16.25
15.64
14.98
14.24
13.33
12.15
10.67
8.92
6.97
4.91
2.78
0.56
-1.80
-4.29
-6.73
-8.82
-10.13
-10.29
-9.08
-6.54
-2.96
1.17
5.34
9.11
12.17
14.35
15.64
16.11
15.94
15.37
14.66
14.09
13.83
13.90
14.18
14.45
14.53
14.34
13.97
13.60
13.44
13.53
13.83
14.13
14.19
13.81
12.87
11.37
9.44
7.22
4.92
2.68
0.60
-1.35
-3.28
-5.32
-7.51
-9.75
-11.73
-13.12
-13.60
-13.02
-11.45
-9.19
-6.59
-4.02
-1.76
0.05
1.29
1.90
1.80
0.96
-0.55
-2.56
-4.74
-6.74
-8.22
-8.97
-9.00
-8.50
-7.80
-7.28
-7.23
-7.82
-9.07
-10.90
-13.17
-15.74
-18.45
-21.09
-23.44
-25.23
-26.28
-26.50
-26.06
-25.32
-24.82
-25.12
-26.64
-29.50
-33.40
-37.63
-41.25
-43.32
-43.28
-41.14
-37.52
-33.41
-29.80
-27.37
-26.30
-26.39
-27.28
-28.60
-30.04
-31.33
-32.14
-32.17
-31.25
-29.52
-27.39
-25.42
-24.15
-23.83
-24.45
-25.76
-27.46
-29.24
-30.85
-32.13
-32.94
-33.23
-33.04
-32.47
-31.59
-30.50
-29.25
-27.92
-26.61
-25.53
-24.91
-24.90
-25.50
-26.40
-26.98
-26.40
-23.87
-18.97
-11.87
-3.31
5.67
14.07
21.30
27.25
32.21
36.57
40.54
44.11
47.11
49.37
50.81
51.46
51.34
50.40
48.51
45.64
42.02
38.09
34.47
31.68
29.96
29.15
28.82
28.40
27.48
25.82
23.45
20.57
17.42
14.25
11.20
8.33
5.56
2.78
-0.14
-3.24
-6.52
-9.95
-13.52
-17.25
-21.08
-24.82
-28.12
-30.57
-31.83
-31.94
-31.41
-31.14
-32.28
-35.88
-42.68
-52.90
-66.33
-82.29
-99.64
-116.80
-131.74
-142.28
-146.52
-143.37
-132.92
-116.39
-95.82
-73.31
-50.64
-28.93
-8.85
9.25
25.09
38.45
49.28
57.80
64.48
69.88
74.40
78.11
80.79
81.99
81.28
78.48
73.77
67.70
61.01
54.49
48.77
44.25
41.12
39.39
38.98
39.73
41.37
43.56
45.87
47.91
49.31
49.79
49.27
47.78
45.50
42.73
39.81
37.02
34.54
32.39
30.49
28.73
27.04
25.42
23.97
22.76
21.87
21.26
20.80
20.29
19.50
18.29
16.57
14.37
11.84
9.16
6.56
4.17
2.04
0.10
-1.80
-3.80
-5.92
-8.04
-9.93
-11.29
-11.90
-11.64
-10.56
-8.84
-6.77
-4.66
-2.83
-1.55
-1.01
-1.22
-2.08
-3.31
-4.62
-5.77
-6.66
-7.36
-8.04
-8.82
-9.72
-10.63
-11.37
-11.80
-11.87
-11.57
-10.91
-9.86
-8.35
-6.33
-3.76
-0.69
2.81
6.61
10.58
14.57
18.38
21.84
24.83
27.33
29.46
31.46
33.58
35.98
38.66
41.40
43.81
45.47
46.09
45.55
43.94
41.53
38.60
35.44
32.30
29.36
26.82
24.80
23.40
22.62
22.38
22.53
22.88
23.26
23.52
23.61
23.59
23.62
23.91
24.60
25.70
26.97
28.07
28.63
28.40
27.32
25.47
23.01
20.08
16.79
13.24
9.60
6.12
3.08
0.70
-0.96
-2.01
-2.68
-3.20
-3.76
-4.42
-5.18
-6.05
-7.03
-8.16
-9.46
-10.88
-12.33
-13.65
-14.71
-15.40
-15.70
-15.64
-15.32
-14.84
-14.29
-13.74
-13.19
-12.69
-12.26
-11.93
-11.74
-11.65
-11.61
-11.53
-11.37
-11.17
-11.04
-11.04
-11.14
-11.15
-10.78
-9.77
-8.02
-5.61
-2.80
0.12
2.91
5.43
7.58
9.27
10.38
10.79
10.45
9.42
7.92
6.24
4.68
3.42
2.52
1.87
1.33
0.76
0.09
-0.70
-1.57
-2.49
-3.43
-4.40
-5.35
-6.24
-7.01
-7.66
-8.23
-8.81
-9.50
-10.32
-11.22
-12.04
-12.58
-12.63
-12.03
-10.79
-9.02
-7.01
-5.06
-3.42
-2.23
-1.48
-1.07
-0.89
-0.90
-1.10
-1.46
-1.90
-2.30
-2.50
-2.42
-2.09
-1.62
-1.15
-0.84
-0.78
-1.00
-1.45
-2.03
-2.62
-3.10
-3.43
-3.68
-4.00
-4.57
-5.48
-6.72
-8.16
-9.58
-10.78
-11.61
-11.96
-11.78
-11.06
-9.89
-8.43
-6.95
-5.71
-4.88
-4.47
-4.37
-4.41
-4.51
-4.68
-5.02
-5.61
-6.41
-7.24
-7.82
-7.85
-7.19
-5.91
-4.26
-2.58
-1.15
-0.06
0.81
1.73
2.94
4.51
6.26
7.79
8.60
8.35
6.94
4.67
2.10
-0.10
-1.35
-1.36
-0.13
2.17
5.26
8.85
12.63
16.17
18.95
20.40
20.12
18.09
14.69
10.64
6.76
3.64
1.55
0.35
-0.36
-1.04
-2.08
-3.64
-5.66
-7.95
-10.27
-12.41
-14.20
-15.47
-16.02
-15.68
-14.40
-12.38
-10.01
-7.70
-5.71
-4.00
-2.30
-0.38
1.76
3.82
5.40
6.24
6.41
6.28
6.30
6.74
7.51
8.22
8.47
7.99
6.84
5.31
3.81
2.64
1.90
1.52
1.26
0.94
0.43
-0.25
-1.03
-1.81
-2.54
-3.21
-3.88
-4.60
-5.42
-6.31
-7.18
-7.92
-8.43
-8.72
-8.84
-8.89
-8.86
-8.66
-8.06
-6.88
-5.02
-2.57
0.27
3.24
6.16
8.89
11.36
13.45
15.03
15.97
16.22
15.83
14.90
13.57
11.99
10.29
8.60
7.00
5.47
3.94
2.27
0.35
-1.77
-3.94
-5.96
-7.71
-9.20
-10.58
-12.02
-13.62
-15.31
-16.93
-18.25
-19.11
-19.40
-19.07
-18.09
-16.46
-14.26
-11.66
-8.93
-6.38
-4.28
-2.76
-1.79
-1.18
-0.70
-0.16
0.52
1.29
2.03
2.64
3.07
3.32
3.43
3.45
3.41
3.36
3.34
3.35
3.39
3.37
3.18
2.73
1.95
0.82
-0.65
-2.44
-4.46
-6.54
-8.44
-9.92
-10.81
-11.08
-10.85
-10.31
-9.65
-8.96
-8.26
-7.56
-6.86
-6.22
-5.74
-5.47
-5.43
-5.56
-5.72
-5.72
-5.35
-4.39
-2.63
-0.00
3.36
7.00
10.25
12.41
13.00
11.99
9.83
7.30
5.09
3.61
2.79
2.23
1.47
0.19
-1.63
-3.78
-5.98
-7.99
-9.68
-11.02
-11.98
-12.51
-12.53
-12.02
-11.02
-9.69
-8.28
-7.03
-6.16
-5.74
-5.71
-5.87
-6.03
-6.05
-5.90
-5.62
-5.28
-4.91
-4.50
-3.98
-3.35
-2.68
-2.06
-1.57
-1.12
-0.57
0.32
1.67
3.45
5.48
7.49
9.23
10.50
11.24
11.39
10.96
9.98
8.60
7.06
5.71
4.90
4.82
5.46
6.61
7.88
8.94
9.51
9.50
8.96
8.00
6.79
5.52
4.42
3.73
3.70
4.47
6.03
8.24
10.79
13.33
15.53
17.17
18.15
18.46
18.13
17.22
15.82
14.06
12.14
10.29
8.67
7.32
6.10
4.72
2.89
0.45
-2.47
-5.50
-8.11
-9.84
-10.47
-10.04
-8.88
-7.40
-5.92
-4.64
-3.63
-2.91
-2.57
-2.71
-3.41
-4.65
-6.20
-7.76
-8.99
-9.66
-9.75
-9.33
-8.64
-7.88
-7.26
-6.89
-6.78
-6.84
-6.95
-6.95
-6.76
-6.42
-6.02
-5.71
-5.60
-5.76
-6.17
-6.80
-7.60
-8.49
-9.37
-9.99
-10.05
-9.29
-7.56
-5.00
-1.97
1.03
3.54
5.28
6.24
6.59
6.57
6.37
6.03
5.52
4.78
3.85
2.82
1.87
1.10
0.53
0.10
-0.27
-0.64
-1.08
-1.62
-2.29
-3.13
-4.12
-5.17
-6.15
-6.91
-7.35
-7.44
-7.26
-6.98
-6.82
-6.98
-7.55
-8.42
-9.27
-9.65
-9.14
-7.51
-4.84
-1.50
2.02
5.30
8.07
10.25
11.85
12.86
13.25
13.01
12.21
11.03
9.77
8.72
8.06
7.87
8.05
8.42
8.76
8.91
8.74
8.23
7.43
6.40
5.24
4.03
2.84
1.70
0.64
-0.32
-1.16
-1.92
-2.67
-3.56
-4.71
-6.20
-7.93
-9.65
-10.99
-11.63
-11.42
-10.42
-8.87
-7.07
-5.31
-3.73
-2.41
-1.42
-0.79
-0.55
-0.64
-0.98
-1.40
-1.77
-1.99
-2.05
-1.98
-1.88
-1.80
-1.76
-1.77
-1.77
-1.75
-1.73
-1.78
-1.98
-2.39
-2.99
-3.72
-4.51
-5.28
-6.04
-6.80
-7.61
-8.46
-9.31
-10.10
-10.73
-11.05
-10.91
-10.16
-8.75
-6.77
-4.43
-2.03
0.17
2.01
3.44
4.46
5.10
5.34
5.21
4.78
4.23
3.75
3.50
3.52
3.80
4.22
4.69
5.14
5.47
5.59
5.41
4.91
4.12
3.17
2.17
1.19
0.23
-0.75
-1.82
-3.03
-4.36
-5.80
-7.26
-8.67
-9.87
-10.70
-10.99
-10.63
-9.58
-7.95
-5.91
-3.69
-1.51
0.45
2.04
3.18
3.83
3.97
3.62
2.88
1.87
0.80
-0.14
-0.79
-1.06
-0.91
-0.39
0.40
1.27
2.01
2.36
2.17
1.45
0.39
-0.64
-1.26
-1.19
-0.41
0.83
2.08
2.84
2.76
1.73
-0.07
-2.22
-4.22
-5.60
-6.06
-5.51
-4.13
-2.27
-0.38
1.17
2.20
2.78
3.11
3.45
3.88
4.31
4.51
4.28
3.61
2.71
1.95
1.62
1.80
2.33
2.87
3.15
3.08
2.73
2.29
1.90
1.54
1.11
0.48
-0.36
-1.29
-2.16
-2.86
-3.49
-4.27
-5.48
-7.16
-9.10
-10.83
-11.81
-11.67
-10.31
-7.98
-5.10
-2.11
0.61
2.82
4.39
5.22
5.34
4.85
4.01
3.12
2.46
2.15
2.14
2.28
2.43
2.50
2.53
2.55
2.56
2.48
2.23
1.75
1.09
0.37
-0.31
-0.89
-1.41
-1.92
-2.47
-3.06
-3.73
-4.54
-5.61
-6.95
-8.40
-9.62
-10.17
-9.72
-8.19
-5.78
-2.92
-0.06
2.48
4.55
6.11
7.17
7.69
7.66
7.11
6.19
5.15
4.27
3.69
3.44
3.39
3.37
3.27
3.02
2.68
2.30
1.91
1.52
1.08
0.59
0.06
-0.47
-0.99
-1.52
-2.15
-3.00
-4.19
-5.79
-7.73
-9.77
-11.53
-12.61
-12.68
-11.61
-9.51
-6.68
-3.55
-0.51
2.12
4.16
5.55
6.32
6.58
6.45
6.07
5.57
5.08
4.69
4.44
4.30
4.21
4.05
3.78
3.39
2.95
2.55
2.28
2.11
1.98
1.76
1.36
0.71
-0.14
-1.12
-2.12
-3.14
-4.21
-5.44
-6.89
-8.48
-9.98
-11.02
-11.20
-10.30
-8.34
-5.62
-2.61
0.22
2.53
4.19
5.24
5.77
5.90
5.67
5.12
4.28
3.27
2.31
1.63
1.43
1.76
2.51
3.42
4.22
4.68
4.74
4.46
3.98
3.42
2.82
2.17
1.42
0.54
-0.46
-1.54
-2.65
-3.78
-4.93
-6.08
-7.17
-8.03
-8.43
-8.14
-7.00
-5.06
-2.58
0.05
2.43
4.27
5.47
6.09
6.30
6.22
5.97
5.59
5.17
4.75
4.44
4.26
4.17
4.11
3.98
3.75
3.39
2.91
2.32
1.61
0.82
-0.03
-0.87
-1.61
-2.24
-2.76
-3.23
-3.73
-4.36
-5.23
-6.42
-7.94
-9.66
-11.28
-12.33
-12.37
-11.11
-8.63
-5.27
-1.62
1.76
4.47
6.33
7.36
7.66
7.36
6.60
5.56
4.44
3.51
2.92
2.76
2.97
3.41
3.88
4.21
4.26
3.95
3.28
2.34
1.25
0.17
-0.80
-1.61
-2.29
-2.88
-3.47
-4.13
-4.97
-6.02
-7.26
-8.50
-9.43
-9.69
-9.02
-7.39
-5.02
-2.29
0.35
2.59
4.27
5.39
6.02
6.26
6.19
5.90
5.51
5.13
4.82
4.58
4.38
4.15
3.89
3.62
3.42
3.30
3.24
3.17
3.03
2.80
2.51
2.20
1.84
1.32
0.52
-0.66
-2.21
-4.00
-5.85
-7.56
-8.93
-9.80
-10.02
-9.44
-8.01
-5.82
-3.09
-0.22
2.37
4.33
5.54
6.08
6.16
5.99
5.71
5.36
4.95
4.50
4.10
3.89
3.95
4.33
4.89
5.50
6.06
6.56
7.03
7.45
7.83
8.14
8.46
8.86
9.43
10.26
11.29
12.37
13.26
13.74
13.56
12.51
10.22
6.43
1.22
-4.81
-10.75
-15.63
-18.86
-20.53
-20.84
-20.47
-20.25
-20.71
-21.76
-22.95
-23.90
-24.48
-25.12
-25.82
-26.48
-26.95
-27.07
-26.79
-26.23
-25.58
-24.69
-23.55
-22.04
-20.14
-17.91
-15.40
-12.69
-9.88
-7.05
-4.32
-1.84
0.37
2.24
3.76
5.01
6.10
7.16
8.26
9.52
11.00
12.83
15.02
17.47
19.98
22.28
24.16
25.56
26.60
27.49
28.42
29.48
30.56
31.52
32.25
32.79
33.29
33.92
34.70
35.40
35.66
35.14
33.71
31.52
28.87
25.99
22.90
19.41
15.26
10.40
5.05
-0.38
-5.47
-10.01
-14.04
-17.71
-21.11
-24.15
-26.54
-28.02
-28.50
-28.15
-27.27
-26.21
-25.24
-24.47
-23.92
-23.58
-23.43
-23.49
-23.72
-24.04
-24.34
-24.50
-24.47
-24.28
-23.98
-23.60
-23.08
-22.27
-21.01
-19.17
-16.74
-13.78
-10.41
-6.69
-2.66
1.69
6.33
11.07
15.57
19.38
22.09
23.47
23.48
22.32
20.33
17.91
15.48
13.42
12.03
11.48
11.71
12.47
13.35
13.92
13.89
13.16
11.86
10.20
8.41
6.62
4.88
3.22
1.70
0.42
-0.51
-1.05
-1.27
-1.34
-1.40
-1.56
-1.82
-2.10
-2.32
-2.45
-2.56
-2.76
-3.10
-3.56
-4.10
-4.68
-5.32
-6.10
-7.05
-8.07
-8.90
-9.21
-8.70
-7.30
-5.14
-2.60
-0.08
2.10
3.74
4.77
5.21
5.13
4.65
3.89
3.02
2.18
1.48
0.97
0.65
0.48
0.38
0.25
-0.04
-0.57
-1.35
-2.30
-3.23
-3.99
-4.47
-4.69
-4.77
-4.84
-5.01
-5.34
-5.86
-6.59
-7.54
-8.63
-9.68
-10.44
-10.65
-10.13
-8.88
-7.11
-5.13
-3.26
-1.73
-0.64
0.05
0.41
0.45
0.18
-0.48
-1.51
-2.81
-4.15
-5.30
-6.08
-6.51
-6.76
-7.11
-7.77
-8.74
-9.84
-10.73
-11.14
-10.90
-10.07
-8.82
-7.40
-6.06
-4.97
-4.24
-3.87
-3.73
-3.53
-2.93
-1.54
0.87
4.31
8.47
12.82
16.71
19.62
21.29
21.83
21.58
20.93
20.19
19.43
18.56
17.47
16.14
14.69
13.30
12.10
11.14
10.34
9.56
8.71
7.69
6.49
5.08
3.54
2.01
0.74
-0.01
-0.08
0.48
1.39
2.22
2.58
2.22
1.18
-0.22
-1.45
-1.89
-1.01
1.44
5.25
9.67
13.61
15.99
16.11
14.02
10.48
6.63
3.50
1.63
0.98
1.04
1.27
1.32
1.12
0.75
0.28
-0.37
-1.33
-2.66
-4.20
-5.60
-6.52
-6.74
-6.36
-5.67
-4.98
-4.48
-4.13
-3.74
-3.14
-2.29
-1.31
-0.31
0.66
1.72
3.10
5.04
7.61
10.79
14.43
18.32
22.19
25.68
28.34
29.71
29.53
27.91
25.33
22.51
20.04
18.18
16.76
15.48
14.15
12.95
12.22
12.25
12.85
13.40
13.08
11.35
8.28
4.56
1.19
-1.05
-1.92
-1.83
-1.49
-1.55
-2.25
-3.34
-4.32
-4.68
-4.29
-3.40
-2.53
-2.22
-2.79
-4.29
-6.53
-9.28
-12.36
-15.65
-19.00
-22.08
-24.41
-25.53
-25.22
-23.73
-21.68
-19.93
-19.14
-19.52
-20.77
-22.20
-23.09
-23.00
-21.96
-20.39
-18.85
-17.82
-17.47
-17.74
-18.39
-19.18
-19.96
-20.72
-21.43
-22.01
-22.23
-21.86
-20.70
-18.79
-16.35
-13.72
-11.26
-9.20
-7.64
-6.56
-5.89
-5.57
-5.55
-5.73
-5.97
-6.07
-5.87
-5.29
-4.39
-3.32
-2.28
-1.43
-0.80
-0.38
-0.09
0.12
0.21
0.14
-0.17
-0.69
-1.35
-2.04
-2.69
-3.31
-3.98
-4.76
-5.58
-6.23
-6.40
-5.82
-4.43
-2.39
-0.06
2.16
3.95
5.18
5.87
6.11
6.00
5.58
4.91
4.08
3.22
2.48
1.96
1.67
1.56
1.56
1.62
1.70
1.75
1.70
1.48
1.04
0.35
-0.57
-1.65
-2.85
-4.12
-5.43
-6.73
-7.95
-9.01
-9.78
-10.13
-9.91
-9.02
-7.47
-5.40
-3.12
-0.99
0.69
1.77
2.21
2.15
1.71
1.07
0.37
-0.19
-0.43
-0.20
0.60
1.91
3.51
5.13
6.45
7.27
7.52
7.29
6.73
6.02
5.25
4.38
3.30
1.87
0.01
-2.25
-4.77
-7.37
-9.78
-11.71
-12.90
-13.16
-12.47
-10.99
-9.08
-7.12
-5.40
-4.02
-2.88
-1.82
-0.74
0.29
1.08
1.42
1.24
0.62
-0.20
-0.95
-1.42
-1.47
-1.09
-0.27
0.95
2.44
4.00
5.37
6.32
6.78
6.87
6.86
6.97
7.29
7.69
7.97
7.95
7.67
7.38
7.41
7.99
9.15
10.71
12.36
13.80
14.88
15.57
15.91
15.99
15.94
15.78
15.51
15.09
14.51
13.84
13.15
12.49
11.88
11.33
10.80
10.25
9.66
9.03
8.38
7.60
6.52
5.11
3.47
1.83
0.39
-0.78
-1.60
-2.18
-2.71
-3.47
-4.37
-5.11
-5.33
-4.86
-3.76
-1.91
0.64
3.66
6.39
8.48
9.80
10.38
10.28
9.62
9.13
9.48
10.92
12.74
14.69
16.74
19.07
21.67
24.47
27.98
32.47
37.74
42.51
46.32
49.22
51.47
53.07
49.79
39.33
22.63
7.44
-4.19
-12.13
-17.78
-21.52
-23.67
-24.47
-23.40
-20.01
-14.40
-8.17
-2.42
2.05
4.84
5.72
4.87
3.48
2.73
3.23
3.97
4.04
2.76
-0.03
-4.18
-9.20
-14.07
-18.16
-21.51
-25.40
-30.73
-37.57
-45.16
-52.45
-58.58
-62.95
-65.80
-64.96
-59.63
-50.48
-39.38
-28.13
-17.78
-9.82
-3.61
1.26
5.02
7.36
8.16
7.89
7.08
6.24
5.66
5.59
5.93
6.53
6.95
6.91
6.45
5.81
5.29
5.04
5.15
5.44
5.77
5.88
5.65
5.14
4.46
3.70
2.82
1.85
0.76
-0.39
-1.56
-2.72
-3.83
-4.95
-6.13
-7.41
-8.74
-10.00
-10.97
-11.44
-11.26
-10.35
-8.80
-6.82
-4.65
-2.49
-0.48
1.32
2.87
4.08
4.80
4.95
4.58
3.89
3.20
2.79
2.79
3.14
3.61
3.95
4.01
3.77
3.33
2.88
2.53
2.28
2.06
1.69
1.11
0.33
-0.53
-1.30
-1.90
-2.35
-2.80
-3.41
-4.27
-5.40
-6.78
-8.33
-9.96
-11.49
-12.67
-13.19
-12.84
-11.63
-9.80
-7.74
-5.83
-4.23
-2.89
-1.65
-0.39
0.88
1.99
2.79
3.20
3.35
3.45
3.73
4.27
5.03
5.88
6.70
7.41
8.00
8.47
8.80
8.95
8.92
8.72
8.43
8.06
7.55
6.77
5.54
3.81
1.68
-0.54
-2.49
-3.89
-4.63
-4.84
-4.75
-4.57
-4.39
-4.15
-3.74
-3.05
-2.05
-0.80
0.53
1.77
2.72
3.27
3.40
3.19
2.79
2.39
2.11
2.00
2.03
2.14
2.30
2.50
2.76
3.13
3.62
4.28
5.19
6.47
8.22
10.40
12.83
15.12
16.88
17.81
17.87
17.28
16.41
15.58
14.89
14.20
13.19
11.60
9.38
6.73
4.01
1.59
-0.28
-1.55
-2.31
-2.75
-3.08
-3.53
-4.24
-5.30
-6.68
-8.25
-9.87
-11.36
-12.56
-13.36
-13.66
-13.41
-12.62
-11.39
-9.84
-8.16
-6.49
-4.95
-3.59
-2.44
-1.54
-0.92
-0.57
-0.46
-0.48
-0.49
-0.34
0.05
0.71
1.54
2.37
2.97
3.14
2.80
2.05
1.15
0.53
0.60
1.63
3.65
6.39
9.39
12.18
14.39
15.86
16.58
16.67
16.16
15.07
13.35
11.00
8.15
5.06
2.08
-0.50
-2.51
-3.91
-4.85
-5.54
-6.22
-7.04
-8.07
-9.24
-10.36
-11.14
-11.20
-10.06
-7.25
-2.53
3.93
11.33
18.25
23.02
24.22
21.23
14.61
5.88
-2.96
-10.06
-14.26
-15.24
-13.40
-9.56
-4.72
0.08
3.90
6.01
6.03
4.07
0.67
-3.38
-7.34
-10.66
-13.15
-14.81
-15.77
-16.12
-15.91
-15.20
-14.08
-12.74
-11.37
-10.19
-9.36
-8.96
-8.94
-9.20
-9.54
-9.75
-9.72
-9.48
-9.22
-9.21
-9.70
-10.76
-12.28
-13.90
-15.15
-15.55
-14.73
-12.53
-9.09
-4.80
-0.15
4.31
8.19
11.27
13.56
15.24
16.50
17.49
18.22
18.57
18.38
17.57
16.28
14.80
13.46
12.47
11.80
11.23
10.45
9.31
7.90
6.40
5.00
3.69
2.30
0.65
-1.25
-3.14
-4.62
-5.44
-5.64
-5.61
-5.87
-6.66
-7.81
-8.70
-8.60
-7.08
-4.22
-0.64
2.85
5.58
7.30
8.15
8.43
8.36
7.96
7.11
5.76
4.06
2.35
1.05
0.43
0.52
1.02
1.53
1.68
1.28
0.40
-0.72
-1.80
-2.63
-3.19
-3.57
-3.92
-4.40
-5.08
-5.97
-7.06
-8.31
-9.66
-10.96
-11.98
-12.41
-11.93
-10.36
-7.80
-4.53
-1.07
2.07
4.50
6.07
6.84
7.03
6.87
6.53
6.07
5.47
4.72
3.90
3.18
2.77
2.79
3.19
3.75
4.20
4.30
4.01
3.44
2.78
2.18
1.61
0.99
0.17
-0.86
-2.06
-3.30
-4.55
-5.83
-7.18
-8.51
-9.56
-9.94
-9.29
-7.48
-4.75
-1.59
1.40
3.74
5.25
6.00
6.23
6.18
5.97
5.65
5.23
4.74
4.25
3.85
3.55
3.28
2.95
2.49
1.96
1.45
1.08
0.91
0.86
0.75
0.38
-0.39
-1.59
-3.11
-4.79
-6.45
-7.91
-9.04
-9.72
-9.82
-9.27
-8.02
-6.18
-3.94
-1.62
0.52
2.31
3.71
4.83
5.71
6.35
6.63
6.41
5.65
4.48
3.16
2.01
1.26
1.00
1.14
1.49
1.83
2.02
1.96
1.61
0.99
0.14
-0.89
-2.00
-3.09
-4.10
-4.99
-5.79
-6.56
-7.35
-8.13
-8.77
-9.02
-8.64
-7.44
-5.47
-2.99
-0.39
1.92
3.66
4.79
5.38
5.56
5.43
4.99
4.27
3.32
2.33
1.52
1.09
1.11
1.42
1.75
1.82
1.45
0.67
-0.32
-1.22
-1.83
-2.09
-2.14
-2.23
-2.60
-3.39
-4.61
-6.09
-7.59
-8.85
-9.62
-9.70
-8.97
-7.42
-5.12
-2.28
0.80
3.73
6.16
7.82
8.60
8.60
8.03
7.16
6.20
5.29
4.50
3.86
3.41
3.16
3.07
3.03
2.86
2.46
1.82
1.06
0.40
-0.02
-0.17
-0.20
-0.41
-1.08
-2.38
-4.29
-6.54
-8.72
-10.37
-11.13
-10.80
-9.40
-7.18
-4.46
-1.66
0.89
2.95
4.40
5.27
5.64
5.60
5.24
4.62
3.86
3.06
2.38
1.92
1.71
1.69
1.72
1.67
1.50
1.25
0.98
0.73
0.50
0.21
-0.21
-0.80
-1.58
-2.50
-3.59
-4.81
-6.10
-7.26
-7.96
-7.87
-6.78
-4.72
-1.96
1.08
3.95
6.41
8.37
9.88
11.01
11.74
11.98
11.67
10.86
9.80
8.80
8.17
8.06
8.45
9.16
9.98
10.76
11.41
11.93
12.34
12.64
12.82
12.84
12.63
12.16
11.36
10.23
8.82
7.22
5.62
4.19
3.10
2.47
2.34
2.69
3.41
4.24
4.77
4.56
3.22
0.55
-3.34
-8.07
-13.15
-18.09
-22.55
-26.33
-29.35
-31.59
-33.03
-33.71
-33.75
-33.32
-32.56
-31.55
-30.29
-28.70
-26.74
-24.49
-22.19
-20.12
-18.62
-17.85
-17.82
-18.36
-19.13
-19.70
-19.63
-18.59
-16.44
-13.31
-9.49
-5.47
-1.77
1.11
2.78
3.10
2.16
0.24
-2.27
-4.86
-7.12
-8.78
-9.72
-9.92
-9.45
-8.42
-7.00
-5.39
-3.53
-1.36
1.11
3.68
6.10
8.16
9.76
10.95
11.92
13.23
15.21
17.69
20.05
21.71
22.55
22.95
23.55
24.88
27.71
32.21
37.74
43.16
47.43
50.09
51.32
51.62
51.59
52.62
55.69
60.96
67.63
74.45
80.32
84.50
86.72
81.86
67.76
46.39
23.29
3.61
-10.65
-20.20
-26.78
-31.85
-36.19
-39.22
-40.52
-40.26
-39.19
-38.05
-36.96
-35.50
-33.10
-29.61
-24.57
-18.20
-11.24
-5.07
-1.26
-1.06
-5.05
-13.00
-24.15
-35.38
-44.09
-48.15
-46.75
-40.50
-31.08
-20.49
-10.38
-1.47
5.98
11.50
14.75
15.42
13.38
8.83
2.43
-4.62
-11.02
-15.79
-18.80
-20.42
-21.35
-22.07
-22.55
-22.44
-21.34
-19.21
-16.41
-13.83
-11.71
-10.15
-9.10
-8.33
-7.53
-6.50
-5.18
-3.69
-2.29
-1.07
-0.08
0.77
1.61
2.56
3.68
4.95
6.32
7.61
8.80
9.87
10.79
11.48
11.84
11.76
11.28
10.48
9.52
8.53
7.49
6.33
4.96
3.43
1.91
0.74
0.20
0.37
1.05
1.78
2.14
1.87
0.95
-0.50
-2.15
-3.74
-5.11
-6.27
-7.44
-8.62
-9.77
-10.79
-11.61
-12.01
-11.75
-10.72
-9.02
-7.06
-5.01
-2.85
-0.50
2.23
5.66
9.93
14.88
20.08
24.88
29.26
33.59
38.28
41.93
42.99
40.54
35.06
29.63
24.97
21.34
18.79
16.59
14.23
11.50
8.37
5.02
1.78
-1.26
-3.71
-5.29
-6.02
-6.08
-5.68
-5.04
-4.41
-4.07
-4.46
-5.62
-7.33
-9.27
-11.04
-12.26
-12.70
-12.35
-11.43
-10.41
-9.62
-9.27
-9.48
-10.18
-11.13
-11.99
-12.40
-12.16
-11.36
-10.17
-8.87
-7.70
-6.80
-6.21
-5.94
-5.99
-6.41
-7.22
-8.30
-9.43
-10.31
-10.73
-10.67
-10.27
-9.80
-9.54
-9.63
-10.03
-10.56
-10.99
-11.17
-11.11
-10.92
-10.77
-10.74
-10.81
-10.88
-10.88
-10.83
-10.81
-10.90
-11.12
-11.29
-11.14
-10.41
-8.92
-6.71
-4.03
-1.26
1.25
3.24
4.64
5.53
6.06
6.38
6.55
6.58
6.46
6.24
6.03
5.92
5.95
6.05
6.09
5.94
5.58
5.09
4.63
4.28
4.02
3.71
3.17
2.30
1.14
-0.17
-1.42
-2.51
-3.36
-3.97
-4.28
-4.17
-3.50
-2.23
-0.45
1.58
3.55
5.19
6.37
7.11
7.51
7.65
7.59
7.33
6.85
6.19
5.45
4.77
4.25
3.96
3.83
3.71
3.44
2.91
2.14
1.24
0.40
-0.25
-0.67
-0.95
-1.22
-1.68
-2.43
-3.47
-4.70
-5.92
-6.89
-7.38
-7.29
-6.58
-5.35
-3.72
-1.87
0.01
1.75
3.17
4.14
4.53
4.34
3.62
2.52
1.29
0.18
-0.59
-0.91
-0.85
-0.59
-0.35
-0.32
-0.54
-0.91
-1.26
-1.37
-1.08
-0.32
0.89
2.39
3.90
5.06
5.53
5.11
3.84
2.05
0.25
-1.06
-1.51
-1.04
0.17
1.79
3.52
5.15
6.57
7.70
8.45
8.69
8.31
7.37
6.09
4.80
3.84
3.39
3.40
3.66
3.85
3.77
3.34
2.68
1.98
1.37
0.93
0.56
0.11
-0.54
-1.48
-2.70
-4.12
-5.62
-7.09
-8.40
-9.38
-9.80
-9.50
-8.38
-6.56
-4.28
-1.85
0.45
2.50
4.28
5.83
7.10
7.98
8.30
8.01
7.23
6.23
5.37
4.89
4.84
5.10
5.42
5.63
5.61
5.35
4.93
4.44
3.94
3.43
2.85
2.12
1.12
-0.16
-1.68
-3.29
-4.76
-5.87
-6.44
-6.35
-5.58
-4.20
-2.35
-0.27
1.74
3.42
4.58
5.17
5.23
4.86
4.16
3.25
2.27
1.43
0.89
0.78
1.03
1.44
1.75
1.73
1.32
0.63
-0.12
-0.75
-1.15
-1.42
-1.74
-2.37
-3.48
-5.08
-7.05
-9.12
-10.95
-12.25
-12.80
-12.52
-11.46
-9.80
-7.72
-5.47
-3.23
-1.18
0.57
1.93
2.89
3.46
3.70
3.71
3.62
3.53
3.50
3.55
3.63
3.63
3.49
3.16
2.64
1.99
1.30
0.65
0.10
-0.37
-0.88
-1.57
-2.59
-4.06
-5.91
-7.99
-10.01
-11.64
-12.57
-12.57
-11.60
-9.73
-7.20
-4.32
-1.41
1.28
3.57
5.36
6.61
7.34
7.61
7.47
7.03
6.38
5.65
4.95
4.37
3.99
3.80
3.72
3.64
3.40
2.95
2.29
1.49
0.63
-0.28
-1.28
-2.46
-3.82
-5.27
-6.58
-7.46
-7.66
-7.03
-5.63
-3.64
-1.32
1.02
3.14
4.91
6.27
7.25
7.84
8.03
7.76
7.02
5.90
4.62
3.49
2.76
2.48
2.51
2.56
2.36
1.80
0.99
0.16
-0.48
-0.87
-1.13
-1.47
-2.10
-3.06
-4.27
-5.51
-6.57
-7.26
-7.47
-7.14
-6.23
-4.77
-2.85
-0.69
1.42
3.16
4.26
4.61
4.31
3.59
2.73
1.99
1.50
1.28
1.23
1.24
1.19
1.04
0.79
0.51
0.25
0.03
-0.18
-0.47
-0.88
-1.43
-2.11
-2.93
-3.90
-5.01
-6.17
-7.14
-7.62
-7.31
-6.12
-4.18
-1.85
0.45
2.40
3.86
4.84
5.41
5.60
5.46
5.01
4.38
3.72
3.21
2.91
2.81
2.75
2.57
2.16
1.46
0.56
-0.39
-1.24
-1.83
-2.14
-2.25
-2.36
-2.69
-3.39
-4.43
-5.63
-6.68
-7.24
-7.09
-6.17
-4.60
-2.65
-0.62
1.22
2.67
3.67
4.21
4.35
4.20
3.86
3.43
2.96
2.53
2.16
1.86
1.62
1.40
1.14
0.79
0.35
-0.20
-0.80
-1.44
-2.11
-2.84
-3.68
-4.64
-5.67
-6.65
-7.39
-7.73
-7.52
-6.75
-5.48
-3.88
-2.17
-0.52
0.91
2.09
3.01
3.70
4.19
4.44
4.40
4.08
3.54
2.93
2.43
2.15
2.09
2.14
2.14
1.98
1.64
1.17
0.69
0.28
-0.06
-0.39
-0.84
-1.51
-2.43
-3.58
-4.82
-5.95
-6.78
-7.12
-6.87
-6.03
-4.70
-3.05
-1.28
0.40
1.84
2.93
3.59
3.83
3.72
3.34
2.84
2.30
1.79
1.31
0.81
0.27
-0.33
-0.93
-1.48
-1.91
-2.19
-2.36
-2.50
-2.72
-3.11
-3.70
-4.45
-5.30
-6.14
-6.87
-7.38
-7.56
-7.32
-6.61
-5.44
-3.87
-2.05
-0.15
1.69
3.36
4.77
5.83
6.47
6.62
6.32
5.71
4.98
4.33
3.91
3.73
3.72
3.77
3.78
3.69
3.51
3.26
2.98
2.66
2.32
1.97
1.60
1.23
0.82
0.34
-0.22
-0.81
-1.25
-1.37
-0.99
-0.06
1.32
2.93
4.54
5.97
7.16
8.11
8.83
9.31
9.50
9.35
8.89
8.19
7.34
6.42
5.50
4.65
3.94
3.41
3.10
2.94
2.83
2.66
2.35
1.91
1.37
0.74
0.00
-0.88
-1.94
-3.10
-4.26
-5.26
-5.97
-6.34
-6.34
-5.96
-5.20
-4.07
-2.63
-1.03
0.50
1.73
2.48
2.73
2.53
2.04
1.41
0.77
0.23
-0.15
-0.37
-0.46
-0.50
-0.63
-0.95
-1.52
-2.27
-3.07
-3.75
-4.22
-4.49
-4.71
-5.04
-5.63
-6.56
-7.76
-9.09
-10.30
-11.17
-11.46
-11.08
-10.04
-8.53
-6.81
-5.15
-3.74
-2.63
-1.81
-1.21
-0.78
-0.44
-0.08
0.42
1.18
2.22
3.42
4.59
5.51
6.04
6.20
6.09
5.89
5.71
5.62
5.61
5.67
5.76
5.76
5.49
4.78
3.52
1.78
-0.18
-1.94
-3.10
-3.44
-2.98
-1.99
-0.85
0.13
0.80
1.20
1.46
1.70
1.93
2.08
2.09
1.95
1.75
1.63
1.67
1.89
2.18
2.43
2.56
2.55
2.43
2.22
1.95
1.63
1.28
0.96
0.74
0.68
0.78
0.97
1.12
1.06
0.65
-0.21
-1.52
-3.20
-4.99
-6.57
-7.59
-7.78
-7.03
-5.45
-3.31
-0.95
1.28
3.10
4.34
4.94
4.98
4.58
3.94
3.23
2.57
2.00
1.50
1.06
0.70
0.49
0.51
0.79
1.29
1.93
2.62
3.27
3.83
4.20
4.26
3.87
2.93
1.50
-0.26
-2.09
-3.75
-5.10
-6.14
-6.94
-7.51
-7.76
-7.55
-6.77
-5.48
-3.88
-2.29
-0.93
0.10
0.86
1.44
1.91
2.24
2.32
2.14
1.74
1.28
0.92
0.76
0.85
1.21
1.82
2.69
3.71
4.67
5.26
5.24
4.56
3.39
2.07
0.92
0.14
-0.31
-0.55
-0.73
-0.92
-1.07
-1.09
-0.88
-0.34
0.57
1.89
3.53
5.37
7.20
8.82
10.09
10.97
11.52
11.87
12.10
12.25
12.32
12.25
11.98
11.48
10.74
9.79
8.66
7.38
5.98
4.51
3.07
1.77
0.73
0.02
-0.38
-0.51
-0.43
-0.19
0.19
0.65
1.12
1.46
1.58
1.46
1.14
0.71
0.25
-0.17
-0.50
-0.63
-0.46
0.12
1.12
2.45
3.92
5.32
6.50
7.37
7.91
8.08
7.89
7.35
6.52
5.51
4.47
3.52
2.71
2.03
1.40
0.73
-0.08
-1.09
-2.33
-3.83
-5.52
-7.32
-9.16
-10.90
-12.50
-13.94
-15.27
-16.55
-17.85
-19.17
-20.43
-21.55
-22.42
-22.97
-23.20
-23.07
-22.53
-21.53
-20.03
-18.06
-15.81
-13.51
-11.42
-9.70
-8.37
-7.39
-6.66
-6.12
-5.80
-5.75
-5.97
-6.43
-6.98
-7.47
-7.76
-7.82
-7.69
-7.48
-7.37
-7.45
-7.75
-8.24
-8.82
-9.44
-10.12
-10.96
-12.08
-13.50
-15.14
-16.80
-18.20
-19.09
-19.37
-19.13
-18.59
-18.05
-17.68
-17.42
-16.98
-15.92
-13.85
-10.58
-6.26
-1.33
3.65
8.12
11.69
14.14
15.50
16.04
16.26
16.84
18.39
21.24
25.24
29.74
33.86
36.80
38.13
37.92
36.55
34.48
32.01
29.23
26.10
22.61
18.90
15.22
11.80
8.76
6.07
3.56
1.09
-1.40
-3.85
-6.17
-8.27
-10.13
-11.78
-13.25
-14.58
-15.77
-16.81
-17.67
-18.31
-18.71
-18.83
-18.71
-18.39
-17.97
-17.50
-16.96
-16.25
-15.23
-13.83
-12.08
-10.17
-8.40
-7.05
-6.32
-6.24
-6.66
-7.34
-7.98
-8.34
-8.25
-7.67
-6.62
-5.23
-3.75
-2.45
-1.60
-1.29
-1.41
-1.66
-1.74
-1.47
-0.96
-0.52
-0.52
-1.16
-2.36
-3.79
-5.04
-5.76
-5.78
-5.10
-3.84
-2.16
-0.27
1.62
3.31
4.66
5.71
6.64
7.70
9.12
10.90
12.84
14.60
15.84
16.34
16.06
15.11
13.65
11.86
9.91
7.98
6.22
4.84
3.94
3.55
3.51
3.56
3.43
2.90
1.93
0.66
-0.65
-1.77
-2.58
-3.09
-3.47
-3.87
-4.40
-5.05
-5.73
-6.34
-6.72
-6.73
-6.22
-5.08
-3.37
-1.35
0.62
2.24
3.37
4.13
4.77
5.45
6.14
6.59
6.59
6.09
5.35
4.77
4.70
5.24
6.20
7.26
8.14
8.73
9.06
9.20
9.16
8.91
8.38
7.56
6.54
5.47
4.52
3.84
3.46
3.39
3.52
3.72
3.86
3.88
3.78
3.62
3.43
3.17
2.74
2.05
1.07
-0.13
-1.38
-2.48
-3.31
-3.81
-3.95
-3.74
-3.16
-2.20
-0.88
0.68
2.34
3.91
5.22
6.15
6.66
6.78
6.57
6.12
5.53
4.90
4.33
3.94
3.80
3.92
4.25
4.63
4.94
5.10
5.14
5.11
5.06
5.00
4.84
4.47
3.80
2.82
1.63
0.36
-0.76
-1.54
-1.81
-1.46
-0.54
0.83
2.42
4.03
5.48
6.63
7.42
7.76
7.58
6.91
5.85
4.64
3.54
2.79
2.42
2.35
2.41
2.44
2.41
2.33
2.24
2.12
1.88
1.40
0.64
-0.34
-1.39
-2.35
-3.09
-3.55
-3.73
-3.63
-3.19
-2.37
-1.15
0.41
2.10
3.69
4.93
5.71
6.06
6.11
6.03
5.92
5.77
5.51
5.09
4.55
3.99
3.52
3.22
3.06
2.94
2.78
2.54
2.23
1.92
1.60
1.24
0.77
0.10
-0.80
-1.88
-3.02
-4.03
-4.73
-4.93
-4.55
-3.58
-2.15
-0.49
1.11
2.35
3.02
3.05
2.47
1.47
0.28
-0.86
-1.72
-2.16
-2.18
-1.94
-1.64
-1.52
-1.73
-2.25
-2.92
-3.47
-3.66
-3.37
-2.69
-1.84
-1.06
-0.56
-0.38
-0.43
-0.54
-0.51
-0.25
0.28
1.02
1.89
2.78
3.59
4.24
4.64
4.75
4.60
4.22
3.70
3.14
2.63
2.23
1.99
1.91
1.97
2.12
2.27
2.33
2.25
2.01
1.60
1.10
0.54
-0.00
-0.47
-0.80
-1.00
-1.10
-1.22
-1.47
-1.91
-2.51
-3.13
-3.60
-3.76
-3.57
-3.04
-2.29
-1.40
-0.49
0.35
1.02
1.41
1.44
1.14
0.61
-0.01
-0.56
-0.95
-1.18
-1.27
-1.32
-1.39
-1.50
-1.68
-1.89
-2.09
-2.23
-2.32
-2.38
-2.49
-2.71
-3.09
-3.61
-4.21
-4.81
-5.31
-5.62
-5.66
-5.40
-4.83
-3.99
-3.00
-2.00
-1.11
-0.40
0.10
0.41
0.52
0.41
0.09
-0.39
-0.88
-1.24
-1.34
-1.19
-0.87
-0.56
-0.41
-0.48
-0.76
-1.17
-1.65
-2.16
-2.67
-3.17
-3.62
-4.02
-4.38
-4.77
-5.26
-5.89
-6.59
-7.21
-7.55
-7.48
-6.95
-6.05
-4.95
-3.77
-2.62
-1.52
-0.52
0.30
0.83
0.95
0.68
0.08
-0.63
-1.27
-1.72
-1.92
-1.93
-1.80
-1.58
-1.34
-1.13
-1.00
-1.01
-1.20
-1.56
-2.01
-2.49
-2.91
-3.24
-3.51
-3.81
-4.22
-4.81
-5.54
-6.27
-6.82
-7.00
-6.73
-6.03
-5.02
-3.85
-2.63
-1.46
-0.39
0.51
1.15
1.41
1.23
0.60
-0.32
-1.28
-2.03
-2.36
-2.23
-1.75
-1.14
-0.61
-0.31
-0.31
-0.58
-1.07
-1.74
-2.57
-3.52
-4.54
-5.55
-6.49
-7.35
-8.20
-9.13
-10.14
-11.11
-11.80
-11.89
-11.17
-9.61
-7.44
-5.02
-2.76
-0.90
0.48
1.45
2.10
2.50
2.66
2.58
2.32
1.97
1.65
1.41
1.22
1.02
0.75
0.41
0.03
-0.35
-0.76
-1.25
-1.91
-2.74
-3.70
-4.69
-5.63
-6.52
-7.40
-8.37
-9.45
-10.56
-11.45
-11.85
-11.48
-10.21
-8.09
-5.35
-2.32
0.65
3.29
5.45
7.04
8.06
8.50
8.43
8.01
7.45
7.00
6.82
6.93
7.22
7.49
7.56
7.31
6.71
5.78
4.60
3.27
1.94
0.76
-0.11
-0.60
-0.81
-0.90
-1.11
-1.63
-2.53
-3.74
-5.07
-6.24
-6.97
-6.97
-6.07
-4.25
-1.68
1.29
4.24
6.78
8.66
9.81
10.31
10.36
10.15
9.82
9.54
9.39
9.47
9.76
10.18
10.54
10.68
10.46
9.89
9.05
8.13
7.26
6.51
5.86
5.18
4.35
3.26
1.88
0.23
-1.58
-3.41
-5.02
-6.14
-6.50
-5.90
-4.27
-1.78
1.22
4.22
6.78
8.58
9.53
9.77
9.52
9.00
8.36
7.67
6.98
6.35
5.89
5.71
5.82
6.14
6.48
6.64
6.45
5.90
5.08
4.12
3.16
2.25
1.37
0.50
-0.39
-1.29
-2.24
-3.29
-4.49
-5.79
-7.00
-7.77
-7.72
-6.64
-4.59
-1.90
0.91
3.40
5.33
6.67
7.54
8.06
8.28
8.20
7.84
7.29
6.70
6.18
5.83
5.62
5.47
5.33
5.13
4.87
4.59
4.29
3.95
3.57
3.11
2.57
1.93
1.16
0.24
-0.88
-2.22
-3.72
-5.28
-6.73
-7.82
-8.32
-8.07
-7.06
-5.42
-3.42
-1.36
0.54
2.17
3.52
4.64
5.56
6.26
6.65
6.66
6.32
5.73
5.04
4.43
3.97
3.65
3.39
3.09
2.71
2.26
1.79
1.32
0.83
0.26
-0.43
-1.20
-1.98
-2.69
-3.34
-4.04
-4.91
-6.05
-7.39
-8.68
-9.57
-9.78
-9.16
-7.81
-5.98
-3.96
-1.97
-0.14
1.48
2.85
3.90
4.56
4.80
4.71
4.44
4.19
4.09
4.18
4.39
4.58
4.65
4.54
4.27
3.87
3.38
2.81
2.16
1.46
0.72
-0.01
-0.70
-1.36
-2.02
-2.71
-3.48
-4.35
-5.31
-6.32
-7.29
-8.10
-8.62
-8.68
-8.15
-6.98
-5.26
-3.19
-1.06
0.83
2.28
3.18
3.55
3.46
3.01
2.29
1.43
0.59
-0.10
-0.51
-0.62
-0.52
-0.34
-0.22
-0.25
-0.45
-0.81
-1.30
-1.88
-2.53
-3.22
-3.88
-4.45
-4.90
-5.27
-5.66
-6.20
-6.97
-7.96
-9.08
-10.14
-10.94
-11.30
-11.13
-10.40
-9.16
-7.48
-5.47
-3.37
-1.51
-0.23
0.23
-0.22
-1.56
-3.57
-5.97
-8.45
-10.80
-12.88
-14.56
-15.65
-16.04
-15.77
-15.00
-13.96
-12.89
-12.01
-11.33
-10.56
-9.19
-6.66
-2.74
2.42
8.32
14.28
19.63
23.78
26.03
26.38
25.71
24.96
24.44
23.86
23.05
21.56
19.24
16.31
13.21
10.37
7.96
6.08
4.84
4.26
4.19
4.45
4.92
5.56
6.32
7.09
7.70
8.01
7.96
7.59
7.05
6.52
6.16
5.93
5.62
4.97
3.81
2.15
0.10
-2.15
-4.47
-6.83
-9.28
-11.90
-14.64
-17.34
-19.74
-21.65
-22.99
-23.88
-24.53
-25.16
-25.91
-26.80
-27.81
-28.89
-29.98
-30.91
-31.43
-31.18
-29.88
-27.51
-24.35
-21.00
-18.11
-16.16
-15.23
-15.05
-15.13
-15.00
-14.36
-13.16
-11.48
-9.45
-7.15
-4.61
-1.83
1.15
4.23
7.25
10.07
12.58
14.73
16.51
17.98
19.19
20.25
21.32
22.59
24.25
26.34
28.75
31.11
32.92
33.65
32.95
30.75
27.24
22.82
17.98
13.16
8.75
5.05
2.31
0.66
0.11
0.49
1.56
3.01
4.54
5.94
7.02
7.65
7.77
7.38
6.52
5.33
3.98
2.65
1.47
0.55
-0.05
-0.35
-0.38
-0.27
-0.17
-0.27
-0.69
-1.48
-2.57
-3.79
-4.96
-5.91
-6.61
-7.10
-7.49
-7.91
-8.37
-8.86
-9.32
-9.71
-10.06
-10.42
-10.86
-11.42
-12.12
-12.90
-13.63
-14.09
-13.96
-12.91
-10.71
-7.39
-3.28
1.07
5.11
8.44
10.95
12.75
14.03
14.95
15.51
15.69
15.47
14.96
14.40
14.03
13.98
14.22
14.57
14.82
14.81
14.58
14.29
14.14
14.23
14.51
14.76
14.75
14.37
13.75
13.15
12.86
13.00
13.49
14.10
14.62
15.03
15.48
16.21
17.44
19.37
22.17
25.99
30.81
36.24
41.47
45.41
47.21
46.71
44.57
41.98
40.12
39.71
40.86
43.37
46.92
51.27
56.05
60.62
64.15
65.98
65.92
64.38
62.10
59.59
56.82
53.20
48.00
40.82
31.86
21.87
11.75
2.21
-6.39
-14.03
-20.88
-27.12
-32.99
-38.75
-44.67
-51.06
-58.01
-65.26
-72.10
-77.53
-80.51
-80.48
-77.51
-72.41
-66.32
-60.36
-55.27
-51.22
-48.05
-45.41
-43.05
-40.88
-38.96
-37.40
-36.23
-35.35
-34.63
-33.91
-33.10
-32.16
-31.11
-29.98
-28.81
-27.62
-26.48
-25.56
-25.07
-25.23
-26.11
-27.62
-29.51
-31.43
-33.07
-34.30
-35.14
-35.79
-36.48
-37.38
-38.46
-39.48
-40.03
-39.67
-38.14
-35.42
-31.73
-27.43
-22.94
-18.55
-14.53
-11.04
-8.21
-6.09
-4.62
-3.60
-2.79
-2.00
-1.14
-0.27
0.49
1.06
1.43
1.66
1.83
1.98
2.09
2.15
2.16
2.19
2.28
2.47
2.68
2.77
2.55
1.88
0.77
-0.65
-2.02
-2.95
-3.06
-2.09
-0.01
3.00
6.54
10.10
13.20
15.52
16.93
17.56
17.62
17.31
16.77
16.01
14.99
13.73
12.32
10.95
9.77
8.84
8.11
7.46
6.75
5.96
5.09
4.23
3.39
2.56
1.69
0.78
-0.14
-1.03
-1.85
-2.64
-3.48
-4.46
-5.67
-7.06
-8.52
-9.79
-10.53
-10.44
-9.32
-7.20
-4.35
-1.19
1.76
4.06
5.41
5.70
4.97
3.38
1.25
-0.98
-2.83
-3.84
-3.76
-2.64
-0.79
1.37
3.45
5.22
6.56
7.43
7.74
7.39
6.35
4.82
3.22
2.03
1.49
1.41
1.14
-0.16
-3.03
-7.36
-12.33
-16.70
-19.35
-19.77
-18.30
-15.89
-13.65
-12.31
-11.93
-11.94
-11.49
-9.86
-6.76
-2.34
2.94
8.60
14.22
19.41
23.76
26.74
27.93
27.20
24.88
21.69
18.46
15.71
13.39
10.97
7.80
3.57
-1.35
-6.04
-9.44
-10.94
-10.74
-9.71
-9.03
-9.55
-11.42
-14.06
-16.58
-18.17
-18.52
-17.82
-16.51
-15.01
-13.42
-11.62
-9.40
-6.71
-3.75
-0.94
1.31
2.77
3.52
3.89
4.31
5.05
6.18
7.55
8.91
10.11
11.14
12.09
13.05
13.99
14.72
15.01
14.70
13.78
12.40
10.76
9.02
7.18
5.16
2.83
0.13
-2.88
-6.03
-9.01
-11.47
-13.01
-13.33
-12.29
-9.99
-6.74
-2.99
0.78
4.17
6.92
8.86
9.95
10.23
9.85
9.08
8.22
7.55
7.22
7.27
7.58
8.01
8.37
8.54
8.47
8.21
7.83
7.43
7.06
6.69
6.23
5.56
4.67
3.58
2.41
1.25
0.14
-1.00
-2.31
-3.90
-5.80
-7.88
-9.86
-11.39
-12.15
-11.89
-10.56
-8.26
-5.23
-1.79
1.72
5.00
7.83
10.10
11.78
12.91
13.59
13.94
14.04
13.95
13.73
13.48
13.30
13.29
13.49
13.85
14.25
14.54
14.64
14.53
14.26
13.91
13.43
12.72
11.65
10.18
8.42
6.60
5.00
3.72
2.72
1.78
0.70
-0.69
-2.39
-4.33
-6.35
-8.23
-9.69
-10.44
-10.22
-8.91
-6.60
-3.59
-0.30
2.87
5.64
7.89
9.61
10.83
11.60
11.94
11.91
11.61
11.22
10.91
10.83
10.99
11.31
11.61
11.75
11.65
11.35
10.93
10.50
10.07
9.57
8.87
7.88
6.59
5.10
3.57
2.11
0.78
-0.46
-1.76
-3.22
-4.94
-6.94
-9.15
-11.46
-13.70
-15.66
-17.10
-17.78
-17.52
-16.23
-13.99
-11.03
-7.68
-4.30
-1.21
1.36
3.32
4.64
5.40
5.75
5.86
5.92
6.06
6.32
6.65
6.94
7.12
7.15
7.11
7.13
7.31
7.70
8.24
8.79
9.23
9.44
9.45
9.32
9.17
9.03
8.90
8.67
8.27
7.67
6.94
6.19
5.50
4.87
4.28
3.74
3.33
3.24
3.58
4.32
5.27
6.11
6.67
6.99
7.41
8.41
10.26
12.84
15.50
17.30
17.36
15.22
11.05
5.53
-0.45
-6.12
-11.02
-15.00
-18.06
-20.19
-21.30
-21.27
-20.15
-18.18
-15.81
-13.55
-11.82
-10.83
-10.55
-10.77
-11.20
-11.60
-11.83
-11.90
-11.90
-12.00
-12.35
-13.05
-14.09
-15.36
-16.64
-17.66
-18.12
-17.82
-16.66
-14.68
-12.05
-8.98
-5.74
-2.57
0.31
2.70
4.46
5.53
5.95
5.87
5.48
5.00
4.56
4.22
3.97
3.76
3.59
3.49
3.53
3.74
4.10
4.46
4.63
4.43
3.82
2.85
1.67
0.49
-0.58
-1.52
-2.41
-3.40
-4.59
-6.07
-7.81
-9.69
-11.53
-13.09
-14.09
-14.32
-13.64
-12.10
-9.84
-7.13
-4.26
-1.47
1.04
3.15
4.78
5.89
6.49
6.62
6.38
5.90
5.37
4.97
4.82
4.97
5.37
5.89
6.37
6.67
6.66
6.31
5.62
4.68
3.62
2.57
1.64
0.84
0.07
-0.79
-1.82
-3.02
-4.29
-5.55
-6.76
-7.97
-9.26
-10.60
-11.80
-12.50
-12.35
-11.17
-9.00
-6.12
-2.95
0.14
2.88
5.11
6.79
7.89
8.44
8.50
8.23
7.77
7.31
6.99
6.86
6.91
7.12
7.40
7.65
7.75
7.59
7.17
6.52
5.72
4.83
3.83
2.72
1.50
0.21
-1.09
-2.28
-3.32
-4.33
-5.55
-7.22
-9.37
-11.85
-14.33
-16.36
-17.40
-17.09
-15.51
-13.13
-10.59
-8.49
-7.12
-6.53
-6.46
-6.30
-5.62
-4.56
-3.60
-3.43
-4.36
-6.20
-8.42
-10.28
-10.89
-9.92
-7.70
-4.92
-2.28
-0.28
0.51
-1.06
-6.40
-16.42
-28.88
-39.81
-45.28
-44.32
-38.67
-30.94
-23.59
-19.54
-17.39
-15.65
-13.41
-10.45
-7.07
-3.59
0.85
6.25
12.38
19.02
25.49
30.93
34.64
36.28
36.07
34.61
32.44
30.19
28.62
28.02
28.23
28.70
28.65
27.43
24.77
20.65
15.52
10.15
5.14
0.82
-2.76
-5.71
-8.18
-10.26
-12.06
-13.61
-14.83
-15.75
-16.47
-17.10
-17.81
-18.67
-19.65
-20.64
-21.31
-21.27
-20.17
-17.82
-14.32
-9.96
-5.23
-0.59
3.55
6.97
9.60
11.42
12.47
12.88
12.80
12.48
12.14
11.99
12.05
12.25
12.46
12.53
12.37
11.95
11.31
10.55
9.75
9.02
8.40
7.86
7.28
6.49
5.36
3.88
2.16
0.33
-1.51
-3.39
-5.46
-7.84
-10.44
-12.92
-14.73
-15.31
-14.38
-11.99
-8.56
-4.68
-0.87
2.53
5.38
7.65
9.32
10.38
10.80
10.68
10.19
9.60
9.15
8.95
8.98
9.08
9.07
8.84
8.40
7.80
7.15
6.50
5.81
5.02
4.08
2.96
1.70
0.41
-0.83
-1.97
-3.00
-4.02
-5.16
-6.55
-8.27
-10.26
-12.29
-14.01
-15.03
-15.00
-13.78
-11.45
-8.22
-4.47
-0.53
3.21
6.44
8.85
10.27
10.68
10.25
9.29
8.17
7.20
6.61
6.48
6.80
7.44
8.19
8.83
9.13
8.98
8.41
7.56
6.63
5.74
4.93
4.15
3.33
2.47
1.58
0.70
-0.22
-1.22
-2.37
-3.69
-5.11
-6.54
-7.90
-9.09
-9.97
-10.34
-9.94
-8.51
-5.97
-2.45
1.60
5.63
9.10
11.69
13.36
14.28
14.75
15.05
15.38
15.84
16.46
17.18
17.89
18.39
18.44
17.78
16.29
14.12
11.61
9.26
7.47
6.34
5.60
4.76
3.37
1.21
-1.60
-4.74
-7.96
-11.21
-14.68
-18.59
-23.03
-27.79
-32.41
-36.31
-38.96
-39.98
-39.28
-36.99
-33.42
-29.00
-24.17
-19.35
-14.86
-10.92
-7.70
-5.25
-3.54
-2.37
-1.43
-0.42
0.88
2.54
4.41
6.30
8.02
9.46
10.62
11.58
12.42
13.16
13.81
14.33
14.67
14.82
14.83
14.84
15.11
15.98
17.82
20.94
25.31
30.47
35.46
38.94
39.57
36.49
29.66
19.97
9.01
-1.40
-9.78
-15.29
-17.85
-18.02
-16.69
-14.80
-13.13
-12.22
-12.31
-13.43
-15.45
-18.09
-20.98
-23.70
-25.86
-27.14
-27.44
-26.90
-25.84
-24.61
-23.38
-22.06
-20.35
-17.88
-14.45
-10.19
-5.59
-1.31
1.99
3.84
4.11
2.99
0.89
-1.67
-4.17
-6.18
-7.37
-7.52
-6.54
-4.48
-1.56
1.85
5.29
8.31
10.66
12.29
13.37
14.14
14.86
15.63
16.43
17.15
17.71
18.07
18.21
18.07
17.51
16.37
14.55
12.09
9.18
6.06
2.91
-0.24
-3.45
-6.79
-10.22
-13.56
-16.52
-18.85
-20.44
-21.38
-21.91
-22.31
-22.77
-23.29
-23.71
-23.76
-23.18
-21.80
-19.66
-16.94
-13.88
-10.74
-7.70
-4.90
-2.49
-0.61
0.61
1.13
1.06
0.71
0.42
0.52
1.16
2.28
3.61
4.80
5.55
5.73
5.37
4.65
3.73
2.73
1.70
0.62
-0.50
-1.66
-2.82
-3.98
-5.18
-6.41
-7.64
-8.68
-9.27
-9.17
-8.22
-6.41
-3.92
-1.05
1.85
4.42
6.41
7.66
8.21
8.23
7.98
7.70
7.54
7.53
7.62
7.72
7.79
7.82
7.82
7.74
7.55
7.18
6.64
5.98
5.32
4.80
4.48
4.32
4.18
3.87
3.22
2.12
0.60
-1.25
-3.23
-5.15
-6.78
-7.91
-8.29
-7.72
-6.05
-3.35
0.11
3.86
7.35
10.15
12.03
13.02
13.31
13.15
12.76
12.27
11.74
11.24
10.86
10.68
10.69
10.83
10.93
10.83
10.44
9.75
8.86
7.92
7.04
6.29
5.66
5.10
4.57
4.01
3.31
2.37
1.07
-0.64
-2.65
-4.72
-6.48
-7.59
-7.82
-7.11
-5.57
-3.42
-0.88
1.82
4.48
6.88
8.83
10.12
10.67
10.52
9.86
8.92
7.94
7.11
6.50
6.18
6.15
6.40
6.83
7.27
7.50
7.35
6.76
5.84
4.78
3.81
3.10
2.70
2.53
2.39
2.04
1.22
-0.20
-2.17
-4.47
-6.72
-8.52
-9.53
-9.55
-8.57
-6.65
-3.99
-0.87
2.36
5.26
7.47
8.79
9.27
9.13
8.64
7.97
7.16
6.11
4.83
3.45
2.26
1.57
1.56
2.13
2.98
3.72
4.05
3.83
3.12
2.06
0.84
-0.35
-1.40
-2.23
-2.88
-3.47
-4.21
-5.30
-6.85
-8.79
-10.83
-12.53
-13.42
-13.15
-11.61
-8.98
-5.64
-2.09
1.22
3.95
5.92
7.08
7.46
7.17
6.36
5.21
3.94
2.78
1.93
1.54
1.61
2.06
2.65
3.12
3.26
2.96
2.31
1.48
0.70
0.06
-0.38
-0.65
-0.75
-0.62
-0.24
0.32
0.82
0.97
0.55
-0.45
-1.76
-2.98
-3.69
-3.68
-2.92
-1.55
0.22
2.19
4.14
5.88
7.20
7.97
8.18
7.96
7.56
7.22
7.13
7.32
7.67
8.04
8.27
8.24
7.97
7.51
6.96
6.37
5.77
5.07
4.17
2.99
1.51
-0.16
-1.82
-3.24
-4.20
-4.64
-4.65
-4.50
-4.44
-4.63
-4.98
-5.23
-5.02
-4.12
-2.52
-0.45
1.71
3.62
5.04
5.93
6.35
6.43
6.25
5.91
5.46
4.98
4.54
4.18
3.90
3.68
3.44
3.14
2.77
2.35
1.95
1.59
1.26
0.90
0.44
-0.14
-0.83
-1.59
-2.41
-3.29
-4.30
-5.45
-6.73
-8.07
-9.32
-10.34
-10.97
-11.06
-10.53
-9.36
-7.64
-5.56
-3.38
-1.38
0.26
1.49
2.34
2.88
3.13
3.06
2.65
1.93
1.02
0.14
-0.49
-0.75
-0.68
-0.41
-0.14
-0.03
-0.14
-0.45
-0.88
-1.32
-1.71
-2.03
-2.34
-2.73
-3.33
-4.20
-5.34
-6.64
-7.90
-8.90
-9.43
-9.31
-8.48
-6.97
-4.94
-2.61
-0.25
1.88
3.60
4.77
5.31
5.18
4.40
3.09
1.51
-0.02
-1.20
-1.84
-1.95
-1.67
-1.22
-0.78
-0.46
-0.29
-0.27
-0.41
-0.68
-1.05
-1.50
-2.00
-2.59
-3.32
-4.24
-5.36
-6.60
-7.84
-8.91
-9.64
-9.88
-9.49
-8.42
-6.71
-4.50
-2.04
0.34
2.32
3.62
4.09
3.76
2.77
1.34
-0.27
-1.83
-3.12
-3.99
-4.37
-4.29
-3.83
-3.16
-2.36
-1.48
-0.43
0.83
2.24
3.55
4.35
4.22
2.96
0.69
-2.17
-5.02
-7.31
-8.67
-8.99
-8.37
-7.00
-5.08
-2.77
-0.26
2.24
4.43
6.00
6.73
6.60
5.82
4.74
3.76
3.14
2.93
3.00
3.11
3.04
2.74
2.33
2.02
1.95
2.12
2.34
2.29
1.73
0.58
-0.97
-2.57
-3.89
-4.74
-5.18
-5.40
-5.57
-5.76
-5.92
-5.98
-5.87
-5.61
-5.17
-4.50
-3.47
-2.00
-0.17
1.74
3.29
4.12
4.02
3.07
1.58
-0.08
-1.57
-2.66
-3.27
-3.46
-3.35
-3.11
-2.87
-2.77
-2.85
-3.10
-3.42
-3.68
-3.80
-3.85
-4.02
-4.65
-6.11
-8.58
-11.94
-15.67
-19.05
-21.40
-22.32
-21.80
-20.16
-17.89
-15.40
-12.86
-10.28
-7.78
-5.68
-4.50
-4.70
-6.49
-9.65
-13.57
-17.40
-20.29
-21.86
-22.03
-21.00
-18.82
-15.42
-10.79
-5.29
0.13
4.04
4.68
2.20
-2.33
-6.14
-6.21
-1.24
7.62
16.79
24.27
28.88
30.46
29.68
27.80
25.68
23.99
23.06
23.09
24.43
27.31
31.62
36.56
40.94
43.48
43.20
39.86
34.17
26.78
19.56
14.45
12.18
11.99
12.92
14.34
15.71
16.81
17.30
16.92
15.60
13.47
10.92
8.35
5.89
3.35
0.67
-1.95
-3.86
-4.47
-3.50
-1.01
2.64
6.99
11.55
15.90
19.60
22.17
22.99
21.56
17.85
12.46
6.35
0.45
-4.67
-9.01
-12.96
-17.08
-21.79
-27.22
-33.19
-39.36
-45.44
-51.14
-56.18
-60.28
-63.19
-64.75
-64.90
-63.65
-61.03
-57.01
-51.61
-44.93
-37.33
-29.47
-22.14
-15.95
-11.23
-7.91
-5.62
-3.94
-2.56
-1.41
-0.65
-0.50
-0.98
-1.97
-3.34
-4.98
-6.86
-8.92
-11.00
-12.80
-14.00
-14.20
-13.29
-11.64
-9.89
-8.69
-8.27
-8.40
-8.42
-7.56
-5.09
-0.63
5.56
12.75
19.93
26.00
29.83
31.01
28.64
23.10
16.78
12.76
13.10
17.88
25.38
32.81
37.48
37.67
33.39
26.02
17.61
10.08
4.73
1.89
0.79
0.54
0.23
-0.53
-1.64
-2.79
-3.72
-4.39
-4.95
-5.59
-6.29
-6.93
-7.26
-7.20
-7.11
-7.61
-9.36
-12.57
-16.80
-21.06
-24.18
-25.13
-23.43
-19.28
-13.51
-7.28
-1.77
2.19
4.26
4.55
3.54
1.83
-0.01
-1.53
-2.34
-2.08
-0.44
2.71
7.12
12.18
16.96
20.56
22.33
22.07
20.12
17.16
13.99
11.31
9.51
8.58
8.22
7.98
7.51
6.80
6.08
5.77
6.19
7.40
9.18
11.09
12.64
13.50
13.47
12.55
10.87
8.64
6.11
3.50
0.93
-1.59
-4.10
-6.56
-8.67
-9.89
-9.61
-7.37
-3.27
2.01
7.28
11.28
13.12
12.60
10.23
6.93
3.57
0.64
-1.89
-4.36
-7.10
-10.21
-13.39
-16.10
-17.76
-17.86
-16.19
-12.83
-8.19
-2.88
2.38
7.00
10.62
13.11
14.55
15.06
14.72
13.61
11.86
9.84
8.03
6.95
6.83
7.48
8.35
8.78
8.33
7.02
5.35
4.07
3.75
4.53
5.92
7.07
7.09
5.46
2.25
-1.95
-6.27
-9.88
-12.31
-13.50
-13.70
-13.37
-12.96
-12.83
-13.21
-14.16
-15.51
-16.86
-17.63
-17.28
-15.42
-12.03
-7.43
-2.20
3.00
7.57
11.05
13.23
14.16
14.19
13.84
13.63
13.91
14.65
15.51
16.01
15.79
14.74
13.06
11.02
8.87
6.73
4.66
2.70
0.94
-0.50
-1.58
-2.38
-3.11
-4.00
-5.19
-6.62
-8.06
-9.22
-9.84
-9.88
-9.55
-9.23
-9.33
-10.12
-11.64
-13.62
-15.57
-17.01
-17.53
-16.98
-15.42
-13.08
-10.28
-7.32
-4.47
-1.90
0.30
2.08
3.43
4.40
5.05
5.51
5.92
6.41
7.04
7.80
8.60
9.33
9.93
10.40
10.76
11.07
11.33
11.51
11.56
11.43
11.12
10.63
10.01
9.30
8.52
7.68
6.76
5.73
4.57
3.28
1.88
0.43
-0.97
-2.24
-3.31
-4.17
-4.84
-5.43
-6.07
-6.92
-8.02
-9.27
-10.42
-11.12
-11.07
-10.11
-8.26
-5.70
-2.66
0.62
3.88
6.88
9.33
10.96
11.61
11.31
10.29
8.97
7.79
7.06
6.88
7.08
7.37
7.44
7.09
6.28
5.12
3.76
2.41
1.21
0.27
-0.33
-0.53
-0.35
0.16
0.85
1.55
2.05
2.21
1.96
1.35
0.50
-0.38
-1.16
-1.79
-2.37
-3.07
-4.07
-5.44
-7.07
-8.69
-9.97
-10.62
-10.53
-9.75
-8.45
-6.84
-5.05
-3.15
-1.20
0.73
2.54
4.13
5.48
6.66
7.77
8.92
10.05
10.98
11.42
11.15
10.12
8.50
6.68
5.05
3.92
3.36
3.19
3.11
2.85
2.30
1.54
0.78
0.24
0.03
0.15
0.46
0.73
0.74
0.30
-0.69
-2.19
-4.04
-5.95
-7.65
-8.94
-9.79
-10.32
-10.76
-11.31
-12.04
-12.88
-13.59
-13.90
-13.59
-12.55
-10.82
-8.59
-6.09
-3.57
-1.22
0.77
2.27
3.19
3.58
3.58
3.46
3.45
3.68
4.07
4.42
4.56
4.44
4.21
4.06
4.12
4.30
4.35
3.98
3.00
1.46
-0.39
-2.19
-3.58
-4.38
-4.61
-4.52
-4.51
-4.98
-6.16
-7.95
-9.94
-11.57
-12.38
-12.16
-11.05
-9.35
-7.47
-5.78
-4.60
-4.21
-4.69
-5.80
-6.95
-7.30
-6.08
-3.00
1.68
7.24
12.91
18.22
23.11
27.83
32.53
37.01
40.67
42.70
42.55
40.19
36.31
32.07
28.73
27.11
27.37
28.91
30.73
31.87
31.75
30.45
28.48
26.58
25.27
24.74
24.73
24.70
24.03
22.24
19.10
14.61
8.93
2.33
-4.92
-12.50
-20.02
-27.08
-33.38
-38.84
-43.68
-48.29
-53.00
-57.79
-62.22
-65.40
-66.30
-64.02
-58.06
-48.54
-36.24
-22.45
-8.77
3.20
12.21
17.61
19.43
18.23
14.93
10.57
6.12
2.48
0.40
0.39
2.51
6.30
10.77
14.68
16.88
16.77
14.36
10.32
5.63
1.29
-1.90
-3.49
-3.40
-1.99
-0.05
1.35
1.22
-0.99
-5.12
-10.30
-15.34
-19.18
-21.39
-22.22
-22.34
-22.40
-22.66
-22.89
-22.56
-21.24
-18.83
-15.65
-12.25
-9.18
-6.77
-5.17
-4.42
-4.53
-5.57
-7.54
-10.29
-13.39
-16.30
-18.49
-19.69
-20.00
-19.75
-19.36
-19.08
-18.97
-18.89
-18.70
-18.34
-17.93
-17.66
-17.72
-18.08
-18.47
-18.41
-17.45
-15.31
-12.09
-8.25
-4.45
-1.38
0.51
1.06
0.45
-0.85
-2.19
-2.82
-2.07
0.40
4.46
9.48
14.47
18.44
20.75
21.29
20.42
18.73
16.71
14.62
12.46
10.16
7.74
5.38
3.33
1.78
0.79
0.26
0.06
0.14
0.59
1.67
3.67
6.76
10.83
15.44
19.93
23.55
25.76
26.39
25.73
24.44
23.26
22.83
23.43
24.95
27.00
29.08
30.81
32.02
32.78
33.27
33.66
33.92
33.85
33.13
31.49
28.86
25.41
21.46
17.26
12.92
8.37
3.56
-1.46
-6.41
-10.87
-14.51
-17.21
-19.17
-20.75
-22.34
-24.16
-26.19
-28.23
-29.96
-31.12
-31.55
-31.20
-30.13
-28.47
-26.37
-24.04
-21.69
-19.54
-17.73
-16.26
-14.93
-13.37
-11.18
-8.15
-4.38
-0.27
3.57
6.60
8.52
9.37
9.45
9.11
8.61
8.02
7.31
6.45
5.45
4.46
3.62
3.00
2.59
2.28
1.97
1.60
1.24
0.99
0.91
0.97
1.04
0.93
0.45
-0.43
-1.65
-3.06
-4.48
-5.80
-6.98
-8.02
-8.94
-9.71
-10.26
-10.46
-10.18
-9.33
-7.90
-6.04
-4.03
-2.23
-0.97
-0.48
-0.81
-1.80
-3.18
-4.61
-5.75
-6.30
-5.96
-4.57
-2.13
1.08
4.53
7.61
9.82
11.05
11.51
11.66
11.89
12.36
12.97
13.46
13.63
13.45
13.00
12.37
11.51
10.19
8.20
5.47
2.25
-0.94
-3.47
-4.83
-4.83
-3.69
-1.94
-0.25
0.78
0.84
-0.06
-1.66
-3.52
-5.25
-6.53
-7.22
-7.34
-7.01
-6.40
-5.70
-5.05
-4.50
-4.04
-3.59
-3.08
-2.50
-1.91
-1.42
-1.13
-1.09
-1.26
-1.63
-2.17
-2.92
-3.90
-5.07
-6.23
-7.08
-7.30
-6.66
-5.12
-2.81
-0.01
3.02
6.07
9.08
12.02
14.81
17.25
18.99
19.67
19.08
17.26
14.55
11.50
8.62
6.31
4.68
3.69
3.16
2.87
2.58
2.06
1.12
-0.31
-2.19
-4.32
-6.44
-8.31
-9.81
-10.98
-11.93
-12.80
-13.60
-14.24
-14.49
-14.09
-12.89
-10.85
-8.18
-5.20
-2.30
0.18
2.01
3.14
3.61
3.55
3.11
2.44
1.69
0.99
0.45
0.11
-0.13
-0.42
-0.93
-1.77
-2.86
-3.98
-4.84
-5.24
-5.16
-4.78
-4.39
-4.29
-4.66
-5.53
-6.81
-8.34
-9.86
-11.06
-11.56
-11.04
-9.30
-6.42
-2.72
1.29
5.12
8.41
11.01
12.96
14.32
15.18
15.54
15.40
14.81
13.89
12.84
11.84
11.03
10.42
9.93
9.41
8.69
7.67
6.34
4.76
3.08
1.41
-0.16
-1.64
-3.09
-4.60
-6.24
-8.02
-9.87
-11.67
-13.23
-14.38
-14.95
-14.82
-13.93
-12.30
-10.09
-7.51
-4.81
-2.24
0.02
1.88
3.29
4.26
4.85
5.12
5.15
5.08
5.07
5.25
5.67
6.29
6.93
7.38
7.44
7.03
6.19
5.10
3.96
2.94
2.09
1.36
0.64
-0.19
-1.21
-2.44
-3.87
-5.43
-7.00
-8.36
-9.18
-9.12
-7.92
-5.57
-2.31
1.39
5.01
8.12
10.43
11.83
12.29
11.87
10.69
9.03
7.23
5.71
4.75
4.45
4.68
5.16
5.54
5.55
5.06
4.11
2.86
1.53
0.35
-0.56
-1.16
-1.55
-1.93
-2.51
-3.44
-4.76
-6.35
-7.96
-9.25
-9.90
-9.69
-8.56
-6.66
-4.27
-1.78
0.48
2.25
3.45
4.14
4.43
4.46
4.33
4.08
3.72
3.27
2.77
2.31
1.97
1.80
1.80
1.91
2.04
2.11
2.07
1.91
1.65
1.28
0.79
0.17
-0.61
-1.52
-2.56
-3.69
-4.89
-6.07
-7.11
-7.80
-7.96
-7.42
-6.16
-4.29
-2.07
0.19
2.24
3.93
5.21
6.09
6.56
6.60
6.18
5.32
4.19
3.02
2.11
1.69
1.84
2.45
3.27
3.98
4.31
4.16
3.60
2.80
1.94
1.14
0.41
-0.31
-1.09
-1.99
-2.99
-4.05
-5.13
-6.16
-7.05
-7.65
-7.75
-7.20
-5.96
-4.15
-2.01
0.20
2.23
3.90
5.12
5.79
5.89
5.42
4.51
3.39
2.32
1.54
1.18
1.24
1.61
2.14
2.64
2.96
2.96
2.59
1.88
0.99
0.11
-0.63
-1.17
-1.57
-1.97
-2.52
-3.35
-4.49
-5.91
-7.45
-8.86
-9.86
-10.14
-9.54
-8.06
-5.94
-3.50
-1.12
0.93
2.49
3.57
4.22
4.55
4.61
4.46
4.14
3.71
3.26
2.87
2.61
2.48
2.43
2.41
2.34
2.21
2.03
1.82
1.57
1.28
0.91
0.45
-0.10
-0.76
-1.53
-2.47
-3.60
-4.89
-6.24
-7.48
-8.34
-8.61
-8.11
-6.84
-4.93
-2.71
-0.52
1.29
2.54
3.23
3.51
3.58
3.59
3.58
3.47
3.21
2.80
2.33
1.96
1.77
1.78
1.88
1.97
1.95
1.80
1.56
1.25
0.89
0.41
-0.26
-1.13
-2.18
-3.32
-4.45
-5.51
-6.48
-7.41
-8.33
-9.20
-9.85
-10.01
-9.39
-7.88
-5.59
-2.86
-0.17
2.09
3.76
4.88
5.64
6.21
6.60
6.71
6.40
5.62
4.55
3.52
2.92
3.05
4.00
5.63
7.65
9.70
11.49
12.81
13.56
13.66
13.12
11.98
10.35
8.45
6.53
4.86
3.61
2.79
2.26
1.70
0.77
-0.79
-2.99
-5.54
-7.91
-9.53
-10.03
-9.37
-7.82
-5.88
-4.04
-2.60
-1.68
-1.23
-1.17
-1.42
-1.92
-2.55
-3.12
-3.44
-3.33
-2.73
-1.73
-0.49
0.82
2.06
3.22
4.31
5.37
6.39
7.31
7.99
8.31
8.26
7.89
7.40
6.95
6.59
6.16
5.32
3.74
1.27
-1.94
-5.40
-8.47
-10.58
-11.39
-10.88
-9.27
-6.91
-4.20
-1.50
0.85
2.55
3.44
3.52
2.97
2.11
1.29
0.70
0.39
0.24
0.03
-0.43
-1.26
-2.45
-3.89
-5.39
-6.76
-7.88
-8.73
-9.46
-10.28
-11.35
-12.77
-14.44
-16.20
-17.89
-19.43
-20.84
-22.18
-23.49
-24.64
-25.30
-25.08
-23.61
-20.73
-16.56
-11.44
-5.80
-0.06
5.40
10.27
14.19
16.83
18.05
17.97
17.10
16.09
15.50
15.49
15.78
15.85
15.22
13.77
11.71
9.39
7.06
4.73
2.23
-0.59
-3.69
-6.79
-9.52
-11.66
-13.23
-14.52
-15.96
-17.90
-20.52
-23.75
-27.37
-31.06
-34.47
-37.32
-39.42
-40.67
-40.97
-40.25
-38.34
-35.10
-30.47
-24.53
-17.58
-9.98
-2.20
5.37
12.43
18.82
24.52
29.60
34.16
38.19
41.54
43.94
45.14
45.05
43.83
41.82
39.37
36.74
34.04
31.31
28.53
25.73
22.83
19.63
15.83
11.18
5.78
0.04
-5.41
-9.99
-13.45
-15.87
-17.62
-19.16
-20.79
-22.42
-23.73
-24.43
-24.38
-23.58
-22.06
-19.88
-17.07
-13.74
-9.84
-5.58
-1.52
1.54
2.98
2.62
0.72
-2.11
-5.07
-6.90
-6.54
-3.61
1.49
7.82
14.34
20.13
24.60
27.60
29.95
32.70
36.44
41.16
46.57
52.44
58.67
65.19
67.97
63.90
52.60
36.59
19.24
3.17
-9.98
-19.24
-24.50
-26.44
-25.79
-23.32
-19.93
-16.31
-12.44
-8.22
-3.80
0.32
3.56
5.92
7.74
9.05
9.83
10.19
10.11
9.32
7.01
2.57
-4.13
-12.68
-22.60
-32.77
-41.66
-47.92
-50.96
-51.18
-49.53
-47.02
-41.69
-33.44
-23.79
-14.71
-7.54
-2.76
-0.34
0.18
-0.50
-1.59
-2.76
-3.72
-4.11
-3.72
-2.55
-1.12
0.45
1.87
2.86
2.93
1.97
0.35
-1.34
-2.57
-3.07
-2.73
-1.73
-0.35
0.97
1.94
2.57
2.81
2.63
2.02
1.11
0.04
-1.05
-2.14
-3.25
-4.41
-5.62
-6.88
-8.08
-8.99
-9.37
-9.00
-7.81
-5.96
-3.76
-1.62
0.11
1.24
1.83
1.99
1.87
1.53
0.96
0.19
-0.66
-1.36
-1.63
-1.31
-0.43
0.68
1.57
1.80
1.10
-0.51
-2.75
-5.22
-7.54
-9.42
-10.67
-11.16
-10.79
-9.45
-7.20
-4.27
-1.08
1.88
4.20
5.74
6.65
7.33
8.21
9.67
11.81
14.45
17.23
19.70
21.49
22.37
22.30
21.42
19.94
18.11
16.16
14.28
12.67
11.46
10.65
10.12
9.62
8.89
7.78
6.31
4.64
2.98
1.45
0.06
-1.33
-2.86
-4.55
-6.27
-7.79
-8.85
-9.27
-9.02
-8.11
-6.66
-4.79
-2.69
-0.55
1.39
2.92
3.91
4.38
4.39
4.07
3.43
2.41
0.89
-1.16
-3.63
-6.25
-8.74
-10.90
-12.68
-14.16
-15.47
-16.65
-17.63
-18.27
-18.42
-18.02
-17.07
-15.57
-13.55
-11.06
-8.23
-5.31
-2.60
-0.35
1.39
2.75
4.02
5.47
7.22
9.30
11.60
14.07
16.71
19.53
22.50
25.42
27.93
29.60
30.14
29.50
27.94
25.96
24.10
22.69
21.78
21.15
20.50
19.63
18.52
17.30
16.11
14.97
13.79
12.40
10.71
8.75
6.61
4.40
2.16
-0.10
-2.36
-4.43
-6.03
-6.81
-6.56
-5.25
-3.10
-0.51
2.12
4.41
6.14
7.19
7.49
7.06
5.97
4.39
2.56
0.80
-0.63
-1.58
-2.08
-2.29
-2.45
-2.75
-3.30
-4.13
-5.17
-6.28
-7.37
-8.39
-9.36
-10.33
-11.36
-12.47
-13.63
-14.79
-15.85
-16.80
-17.67
-18.48
-19.23
-19.78
-19.96
-19.58
-18.61
-17.11
-15.32
-13.58
-12.20
-11.34
-10.90
-10.66
-10.33
-9.69
-8.63
-7.20
-5.62
-4.12
-2.77
-1.47
-0.07
1.48
3.06
4.59
5.98
7.03
7.56
7.51
7.02
6.27
5.44
4.65
4.20
4.19
4.22
3.65
1.99
-0.67
-3.74
-6.28
-7.39
-6.02
-1.67
5.27
13.68
22.28
29.97
36.02
40.05
39.62
33.95
25.10
16.83
11.61
9.42
8.57
7.22
4.32
0.02
-4.27
-7.12
-8.09
-8.02
-8.31
-10.01
-13.20
-16.97
-19.83
-20.18
-17.40
-12.21
-6.32
-1.50
1.20
1.56
0.06
-2.38
-4.72
-6.47
-7.68
-8.75
-9.97
-11.28
-12.41
-13.07
-13.37
-13.20
-12.71
-12.12
-11.55
-10.94
-10.10
-8.90
-7.35
-5.60
-3.79
-2.07
-0.53
0.83
1.97
2.90
3.57
4.02
4.31
4.60
5.01
5.67
6.66
8.02
9.67
11.46
13.19
14.63
15.61
16.07
16.08
15.79
15.40
15.06
14.84
14.81
14.99
15.39
15.93
16.46
16.78
16.68
16.03
14.87
13.30
11.51
9.58
7.51
5.24
2.75
0.09
-2.65
-5.38
-8.07
-10.71
-13.27
-15.57
-17.36
-18.40
-18.62
-18.18
-17.43
-16.70
-16.14
-15.72
-15.25
-14.57
-13.66
-12.63
-11.65
-10.88
-10.44
-10.35
-10.59
-11.12
-11.82
-12.60
-13.36
-14.01
-14.48
-14.73
-14.73
-14.50
-14.13
-13.79
-13.59
-13.58
-13.64
-13.57
-13.19
-12.45
-11.48
-10.50
-9.70
-9.09
-8.57
-7.98
-7.22
-6.32
-5.42
-4.68
-4.22
-4.05
-4.09
-4.27
-4.53
-4.89
-5.39
-6.06
-6.87
-7.77
-8.70
-9.59
-10.39
-11.02
-11.37
-11.24
-10.40
-8.71
-6.14
-2.86
0.84
4.62
8.17
11.31
13.96
16.12
17.84
19.25
20.54
21.92
23.54
25.43
27.41
29.14
30.21
30.32
29.42
27.72
25.61
23.47
21.52
19.76
18.00
16.03
13.76
11.30
8.85
6.67
4.86
3.42
2.20
1.04
-0.17
-1.53
-3.05
-4.74
-6.49
-8.13
-9.41
-10.09
-10.04
-9.32
-8.13
-6.76
-5.42
-4.21
-3.13
-2.13
-1.16
-0.24
0.63
1.44
2.19
2.87
3.44
3.80
3.87
3.69
3.41
3.24
3.32
3.68
4.18
4.58
4.71
4.48
3.92
3.10
2.04
0.79
-0.62
-2.05
-3.33
-4.31
-5.00
-5.56
-6.24
-7.22
-8.47
-9.79
-10.87
-11.40
-11.19
-10.26
-8.75
-6.90
-4.95
-3.09
-1.44
-0.02
1.20
2.28
3.23
4.01
4.57
4.85
4.85
4.66
4.40
4.18
4.03
3.93
3.82
3.67
3.47
3.23
2.99
2.75
2.48
2.13
1.66
1.03
0.24
-0.69
-1.69
-2.70
-3.66
-4.58
-5.51
-6.51
-7.63
-8.82
-9.93
-10.73
-11.01
-10.65
-9.65
-8.10
-6.19
-4.03
-1.75
0.56
2.76
4.73
6.30
7.40
8.02
8.21
8.10
7.75
7.23
6.63
6.05
5.62
5.42
5.46
5.63
5.79
5.83
5.72
5.54
5.33
5.11
4.84
4.46
3.96
3.37
2.76
2.11
1.34
0.30
-1.11
-2.87
-4.86
-6.90
-8.83
-10.52
-11.89
-12.81
-13.15
-12.77
-11.62
-9.75
-7.31
-4.51
-1.58
1.25
3.75
5.74
7.11
7.90
8.26
8.42
8.57
8.81
9.12
9.40
9.61
9.76
9.98
10.43
11.20
12.26
13.41
14.34
14.71
14.26
12.96
10.94
8.46
5.80
3.16
0.71
-1.45
-3.19
-4.46
-5.29
-5.87
-6.49
-7.39
-8.63
-10.06
-11.35
-12.23
-12.58
-12.48
-12.12
-11.69
-11.32
-11.04
-10.91
-11.01
-11.41
-12.12
-13.04
-13.92
-14.50
-14.60
-14.22
-13.57
-12.99
-12.75
-12.97
-13.58
-14.29
-14.84
-15.01
-14.78
-14.28
-13.65
-12.97
-12.24
-11.35
-10.19
-8.69
-6.83
-4.63
-2.16
0.51
3.27
5.98
8.51
10.81
12.86
14.73
16.52
18.27
19.97
21.54
22.85
23.81
24.38
24.59
24.52
24.25
23.79
23.15
22.26
21.14
19.84
18.49
17.25
16.21
15.37
14.58
13.63
12.35
10.66
8.67
6.57
4.60
2.95
1.65
0.62
-0.29
-1.25
-2.39
-3.74
-5.27
-6.86
-8.34
-9.47
-10.06
-9.99
-9.29
-8.11
-6.74
-5.43
-4.37
-3.60
-3.06
-2.63
-2.24
-1.86
-1.52
-1.28
-1.22
-1.37
-1.71
-2.21
-2.77
-3.29
-3.68
-3.86
-3.85
-3.77
-3.75
-3.92
-4.30
-4.80
-5.28
-5.64
-5.87
-6.07
-6.35
-6.76
-7.25
-7.70
-8.00
-8.06
-7.86
-7.36
-6.43
-4.91
-2.64
0.37
3.92
7.63
11.11
14.11
16.55
18.54
20.21
21.62
22.65
23.10
22.77
21.59
19.74
17.50
15.22
13.10
11.16
9.29
7.32
5.17
2.90
0.65
-1.41
-3.23
-4.83
-6.32
-7.79
-9.27
-10.72
-12.10
-13.38
-14.58
-15.78
-17.04
-18.38
-19.67
-20.69
-21.16
-20.86
-19.72
-17.93
-15.81
-13.77
-12.08
-10.87
-10.06
-9.52
-9.13
-8.88
-8.80
-8.92
-9.16
-9.40
-9.50
-9.42
-9.25
-9.11
-9.10
-9.22
-9.35
-9.39
-9.28
-9.11
-9.00
-9.04
-9.23
-9.50
-9.74
-9.94
-10.17
-10.55
-11.14
-11.88
-12.59
-13.01
-12.93
-12.19
-10.74
-8.63
-5.96
-2.89
0.34
3.45
6.16
8.24
9.57
10.20
10.31
10.13
9.86
9.60
9.35
9.05
8.63
8.09
7.45
6.76
6.06
5.37
4.67
3.93
3.15
2.31
1.43
0.52
-0.42
-1.42
-2.54
-3.83
-5.33
-6.97
-8.57
-9.88
-10.60
-10.55
-9.62
-7.87
-5.48
-2.70
0.17
2.89
5.26
7.19
8.62
9.57
10.05
10.09
9.72
9.04
8.19
7.33
6.59
6.05
5.67
5.37
5.05
4.63
4.10
3.43
2.65
1.81
0.97
0.24
-0.32
-0.70
-1.03
-1.53
-2.46
-3.94
-5.86
-7.87
-9.43
-10.05
-9.48
-7.75
-5.20
-2.25
0.70
3.41
5.73
7.61
8.96
9.71
9.84
9.46
8.77
8.03
7.44
7.09
6.93
6.85
6.72
6.44
6.00
5.44
4.83
4.24
3.73
3.29
2.87
2.40
1.79
1.01
0.02
-1.20
-2.69
-4.43
-6.36
-8.26
-9.79
-10.64
-10.57
-9.57
-7.80
-5.57
-3.16
-0.79
1.44
3.48
5.30
6.82
7.93
8.52
8.55
8.08
7.24
6.20
5.10
4.02
3.01
2.14
1.51
1.23
1.38
1.96
2.85
3.84
4.74
5.42
5.86
6.11
6.24
6.33
6.41
6.43
6.36
6.11
5.63
4.95
4.18
3.46
2.96
2.78
2.92
3.36
3.96
4.59
5.05
5.16
4.78
3.84
2.42
0.69
-1.18
-3.03
-4.81
-6.53
-8.16
-9.66
-10.92
-11.90
-12.65
-13.27
-13.86
-14.42
-14.82
-14.87
-14.41
-13.43
-12.06
-10.51
-8.97
-7.58
-6.45
-5.60
-5.03
-4.64
-4.23
-3.55
-2.40
-0.74
1.31
3.48
5.51
7.17
8.31
8.86
8.79
8.16
7.11
5.93
4.93
4.32
4.12
4.12
3.95
3.31
2.12
0.54
-1.09
-2.42
-3.20
-3.35
-2.90
-1.92
-0.54
1.07
2.73
4.23
5.46
6.43
7.31
8.32
9.62
11.19
12.92
14.67
16.36
18.03
19.70
21.32
22.74
23.73
24.12
23.86
22.98
21.59
19.84
17.85
15.79
13.86
12.23
10.93
9.84
8.69
7.28
5.56
3.69
1.96
0.61
-0.31
-0.91
-1.43
-2.06
-2.85
-3.78
-4.75
-5.73
-6.76
-7.85
-8.94
-9.88
-10.43
-10.38
-9.63
-8.26
-6.52
-4.76
-3.31
-2.42
-2.17
-2.54
-3.43
-4.70
-6.22
-7.88
-9.52
-10.97
-12.05
-12.68
-12.92
-12.95
-12.95
-13.07
-13.33
-13.65
-13.90
-14.04
-14.10
-14.24
-14.65
-15.44
-16.65
-18.21
-20.06
-21.99
-23.74
-24.98
-25.35
-24.65
-22.71
-19.64
-15.77
-11.63
-7.73
-4.48
-2.08
-0.52
0.39
1.16
2.28
3.96
6.11
8.46
10.79
12.92
14.77
16.27
17.80
19.64
21.67
23.43
24.42
24.38
23.34
21.49
19.05
16.96
15.92
16.01
16.70
17.41
17.95
18.52
19.49
21.15
24.54
30.27
38.17
47.25
56.43
65.00
72.62
79.05
78.48
67.53
47.55
24.13
2.92
-13.30
-24.38
-31.41
-35.77
-38.59
-39.70
-38.75
-35.86
-31.85
-27.70
-24.15
-21.58
-20.21
-19.93
-20.05
-19.79
-18.84
-17.44
-16.02
-14.81
-13.85
-13.03
-12.23
-10.93
-8.78
-5.92
-2.91
-0.36
1.42
2.45
2.93
2.94
2.76
2.52
2.13
1.33
-0.00
-1.72
-3.48
-4.90
-5.75
-5.94
-5.59
-5.03
-4.59
-4.55
-5.00
-5.85
-6.96
-8.16
-9.36
-10.54
-11.78
-13.15
-14.67
-16.22
-17.55
-18.37
-18.39
-17.45
-15.65
-13.30
-10.87
-8.82
-7.42
-6.71
-6.52
-6.60
-6.72
-6.73
-6.57
-6.22
-5.63
-4.77
-3.65
-2.32
-0.93
0.37
1.47
2.36
3.12
3.85
4.63
5.47
6.31
7.00
7.39
7.34
6.80
5.78
4.44
3.00
1.75
0.98
0.86
1.45
2.58
4.03
5.48
6.73
7.67
8.32
8.73
8.95
8.98
8.78
8.39
7.89
7.42
7.08
6.93
6.91
6.97
7.04
7.09
7.09
7.05
6.91
6.59
6.00
5.06
3.73
2.03
0.04
-2.16
-4.44
-6.67
-8.71
-10.46
-11.81
-12.72
-13.14
-13.07
-12.54
-11.62
-10.44
-9.25
-8.33
-7.98
-8.36
-9.40
-10.78
-12.06
-12.85
-13.01
-12.65
-12.07
-11.51
-11.00
-10.37
-9.35
-7.74
-5.57
-3.04
-0.46
1.88
3.76
5.02
5.57
5.41
4.69
3.75
3.04
2.98
3.83
5.58
7.96
10.56
12.95
14.82
15.99
16.44
16.24
15.45
14.13
12.36
10.19
7.76
5.22
2.76
0.46
-1.69
-3.84
-6.12
-8.57
-11.04
-13.23
-14.78
-15.51
-15.52
-15.16
-14.91
-15.15
-16.05
-17.50
-19.22
-20.92
-22.34
-23.26
-23.47
-22.70
-20.77
-17.63
-13.47
-8.69
-3.66
1.42
6.58
11.97
17.59
23.18
28.20
32.05
34.28
34.84
33.97
32.12
29.71
27.01
24.12
21.08
17.89
14.66
11.53
8.64
6.07
3.79
1.65
-0.60
-3.26
-6.51
-10.40
-14.75
-19.23
-23.47
-27.11
-29.87
-31.59
-32.18
-31.67
-30.21
-28.05
-25.52
-22.93
-20.52
-18.35
-16.34
-14.27
-11.93
-9.19
-6.04
-2.68
0.62
3.55
5.88
7.54
8.66
9.51
10.33
11.31
12.41
13.49
14.29
14.57
14.21
13.17
11.48
9.23
6.56
3.63
0.60
-2.33
-5.05
-7.49
-9.61
-11.31
-12.44
-12.72
-11.96
-10.10
-7.33
-4.06
-0.73
2.37
5.13
7.69
10.15
12.51
14.57
16.04
16.70
16.59
15.97
15.28
14.92
15.09
15.84
17.06
18.59
20.28
21.98
23.50
24.64
25.22
25.11
24.37
23.13
21.60
19.92
18.12
16.05
13.48
10.22
6.26
1.81
-2.68
-6.64
-9.58
-11.21
-11.58
-11.03
-10.03
-9.05
-8.41
-8.23
-8.48
-9.08
-10.01
-11.25
-12.77
-14.42
-15.93
-16.93
-17.11
-16.28
-14.47
-11.87
-8.82
-5.69
-2.83
-0.53
1.04
1.87
2.08
1.86
1.46
1.06
0.80
0.76
0.95
1.32
1.74
1.97
1.75
0.87
-0.70
-2.80
-5.11
-7.23
-8.80
-9.54
-9.35
-8.24
-6.35
-3.95
-1.36
1.08
3.08
4.54
5.46
6.00
6.30
6.46
6.44
6.16
5.55
4.66
3.66
2.79
2.21
2.01
2.11
2.33
2.52
2.54
2.34
1.87
1.16
0.24
-0.84
-1.94
-2.94
-3.73
-4.29
-4.65
-4.91
-5.16
-5.45
-5.73
-5.95
-6.08
-6.15
-6.32
-6.72
-7.42
-8.31
-9.10
-9.40
-8.87
-7.34
-4.91
-1.90
1.24
4.07
6.22
7.49
7.81
7.29
6.11
4.63
3.20
2.12
1.53
1.42
1.61
1.88
2.09
2.19
2.26
2.35
2.50
2.64
2.65
2.46
2.05
1.46
0.79
0.11
-0.48
-0.92
-1.11
-1.00
-0.57
0.12
0.90
1.57
1.95
1.99
1.77
1.54
1.62
2.27
3.65
5.70
8.19
10.77
13.08
14.83
15.85
16.14
15.73
14.73
13.24
11.36
9.21
6.97
4.82
2.89
1.25
-0.16
-1.42
-2.61
-3.78
-4.90
-5.94
-6.91
-7.86
-8.86
-9.99
-11.22
-12.45
-13.56
-14.45
-15.08
-15.54
-15.96
-16.43
-16.89
-17.17
-17.01
-16.23
-14.87
-13.18
-11.52
-10.16
-9.15
-8.30
-7.30
-5.95
-4.26
-2.53
-1.13
-0.40
-0.44
-1.16
-2.28
-3.50
-4.55
-5.24
-5.49
-5.37
-5.05
-4.76
-4.68
-4.83
-4.98
-4.74
-3.70
-1.67
1.17
4.32
7.11
9.05
10.00
10.24
10.30
10.69
11.61
12.93
14.25
15.20
15.59
15.56
15.44
15.56
16.10
16.93
17.77
18.25
18.16
17.52
16.56
15.66
15.19
15.35
16.24
17.81
19.93
22.53
25.48
28.60
31.50
33.67
34.56
33.78
31.29
27.43
22.80
18.03
13.61
9.78
6.58
3.95
1.84
0.21
-1.08
-2.31
-3.90
-6.28
-9.62
-13.68
-17.80
-21.02
-22.49
-21.75
-18.92
-14.67
-9.88
-5.49
-2.11
-0.08
0.59
0.13
-1.14
-2.79
-4.49
-5.98
-7.16
-8.00
-8.52
-8.69
-8.52
-8.05
-7.41
-6.84
-6.54
-6.62
-7.01
-7.52
-7.95
-8.15
-8.11
-7.97
-7.93
-8.26
-9.18
-10.77
-12.91
-15.25
-17.28
-18.50
-18.61
-17.61
-15.77
-13.47
-11.05
-8.75
-6.67
-4.91
-3.60
-2.86
-2.76
-3.18
-3.85
-4.41
-4.60
-4.33
-3.72
-3.00
-2.37
-1.92
-1.58
-1.26
-0.85
-0.28
0.45
1.27
2.07
2.69
2.97
2.80
2.14
1.08
-0.25
-1.69
-3.14
-4.46
-5.50
-6.05
-5.88
-4.83
-2.95
-0.52
2.03
4.25
5.86
6.82
7.29
7.51
7.65
7.79
7.90
7.89
7.71
7.40
6.98
6.53
6.07
5.58
5.06
4.50
3.96
3.47
3.07
2.72
2.33
1.79
1.04
0.02
-1.25
-2.70
-4.26
-5.83
-7.26
-8.41
-9.12
-9.27
-8.81
-7.76
-6.23
-4.36
-2.34
-0.35
1.48
3.04
4.29
5.22
5.87
6.26
6.39
6.25
5.87
5.33
4.72
4.15
3.68
3.31
2.98
2.62
2.19
1.66
1.08
0.46
-0.17
-0.84
-1.60
-2.48
-3.50
-4.68
-6.00
-7.40
-8.78
-9.98
-10.81
-11.05
-10.58
-9.37
-7.57
-5.46
-3.38
-1.61
-0.29
0.60
1.15
1.47
1.61
1.56
1.28
0.79
0.17
-0.48
-1.06
-1.50
-1.82
-2.07
-2.29
-2.50
-2.71
-2.94
-3.19
-3.45
-3.66
-3.74
-3.62
-3.25
-2.66
-1.93
-1.21
-0.69
-0.52
-0.71
-1.08
-1.24
-0.74
0.75
3.26
6.46
9.74
12.45
14.14
14.69
14.29
13.25
11.88
10.30
8.54
6.59
4.57
2.70
1.28
0.48
0.27
0.37
0.36
-0.06
-0.97
-2.18
-3.35
-4.18
-4.54
-4.53
-4.39
-4.34
-4.47
-4.78
-5.19
-5.60
-5.97
-6.28
-6.52
-6.66
-6.67
-6.48
-6.01
-5.18
-3.92
-2.25
-0.31
1.71
3.50
4.82
5.52
5.60
5.20
4.47
3.58
2.61
1.62
0.66
-0.19
-0.86
-1.29
-1.51
-1.61
-1.71
-1.94
-2.38
-3.04
-3.85
-4.67
-5.39
-5.96
-6.35
-6.62
-6.89
-7.27
-7.89
-8.82
-10.02
-11.35
-12.54
-13.31
-13.38
-12.64
-11.12
-9.02
-6.60
-4.19
-2.03
-0.29
0.96
1.74
2.12
2.19
2.04
1.75
1.41
1.11
0.95
1.01
1.27
1.63
1.91
1.96
1.69
1.12
0.36
-0.43
-1.09
-1.56
-1.88
-2.17
-2.61
-3.39
-4.61
-6.25
-8.21
-10.30
-12.28
-13.92
-15.00
-15.34
-14.84
-13.53
-11.60
-9.35
-7.09
-5.10
-3.53
-2.41
-1.75
-1.53
-1.75
-2.37
-3.27
-4.30
-5.28
-6.09
-6.70
-7.20
-7.71
-8.32
-9.11
-10.06
-11.16
-12.41
-13.81
-15.32
-16.88
-18.40
-19.73
-20.72
-21.23
-21.18
-20.55
-19.44
-18.02
-16.47
-14.90
-13.32
-11.62
-9.64
-7.33
-4.80
-2.19
0.38
3.03
6.04
9.76
14.36
19.66
25.20
30.38
34.80
38.31
41.02
43.15
44.81
46.02
46.69
46.83
46.55
46.07
45.59
45.16
44.66
43.81
42.30
39.90
36.59
32.54
28.08
23.63
19.61
16.28
13.65
11.44
9.22
6.63
3.68
0.67
-1.86
-3.33
-3.43
-2.14
0.23
3.24
6.47
9.59
12.12
13.51
13.29
11.16
7.28
2.10
-3.68
-9.37
-14.37
-18.49
-21.84
-24.68
-27.23
-29.20
-30.24
-30.30
-30.10
-29.77
-29.37
-28.97
-28.22
-26.99
-25.18
-22.79
-19.87
-16.51
-12.80
-9.07
-5.79
-3.38
-2.07
-1.70
-1.85
-1.87
-1.10
0.97
4.39
8.79
13.63
18.35
22.58
26.05
28.56
30.07
30.67
30.46
29.56
28.05
25.88
22.96
19.03
13.88
7.64
0.81
-5.88
-11.64
-16.00
-18.93
-20.05
-19.38
-17.70
-15.92
-14.33
-12.86
-10.94
-8.59
-6.46
-5.39
-6.09
-8.92
-13.62
-19.33
-24.71
-28.43
-29.68
-28.31
-24.61
-19.26
-13.11
-6.93
-1.26
3.96
9.16
14.68
20.64
27.05
33.77
40.47
46.54
49.02
45.45
35.65
21.95
7.40
-5.63
-15.74
-22.33
-25.40
-25.47
-23.03
-18.72
-13.46
-8.31
-4.12
-1.28
0.27
0.89
0.99
1.11
1.51
2.14
2.68
2.98
3.11
3.33
3.74
4.28
4.90
5.47
5.82
5.86
5.56
4.98
4.22
3.30
2.28
1.30
0.57
0.30
0.59
1.40
2.39
3.20
3.57
3.48
3.17
2.99
3.32
4.30
5.74
6.82
7.03
6.01
3.83
0.82
-2.53
-5.64
-7.98
-9.16
-9.51
-9.35
-8.83
-8.03
-7.23
-6.87
-7.31
-8.68
-10.94
-14.59
-19.85
-26.32
-33.14
-39.45
-44.55
-47.80
-48.62
-42.74
-29.01
-10.48
7.94
22.73
32.37
36.61
36.13
32.26
26.70
20.39
14.07
8.44
4.03
1.01
-0.72
-1.23
-0.88
0.23
1.31
1.70
1.35
0.66
0.06
-0.13
0.27
1.23
2.56
3.52
3.51
2.33
0.18
-2.54
-5.45
-8.05
-10.07
-11.49
-12.69
-14.01
-15.45
-16.62
-16.97
-16.03
-13.65
-10.14
-6.12
-2.38
0.50
2.35
3.39
4.03
4.65
5.47
6.51
7.63
8.63
9.31
9.54
9.31
8.72
7.99
7.39
7.11
7.18
7.39
7.38
6.80
5.44
3.33
0.75
-1.97
-4.51
-6.73
-8.69
-10.53
-12.41
-14.36
-16.26
-17.84
-18.81
-18.95
-18.17
-16.53
-14.20
-11.39
-8.36
-5.36
-2.67
-0.56
0.78
1.26
1.00
0.21
-0.85
-1.97
-3.00
-3.90
-4.64
-5.19
-5.52
-5.63
-5.57
-5.40
-5.19
-4.96
-4.71
-4.32
-3.60
-2.35
-0.46
2.01
4.76
7.33
9.30
10.38
10.58
10.16
9.50
8.98
8.88
9.35
10.43
12.07
14.10
16.21
17.99
19.00
18.98
17.89
15.96
13.60
11.22
9.14
7.46
6.13
5.03
4.06
3.21
2.52
2.06
1.81
1.67
1.50
1.18
0.69
0.11
-0.43
-0.86
-1.20
-1.56
-2.11
-2.98
-4.17
-5.58
-6.99
-8.14
-8.81
-8.83
-8.09
-6.56
-4.40
-1.92
0.41
2.16
3.04
2.98
2.16
0.94
-0.35
-1.54
-2.70
-4.01
-5.52
-7.12
-8.62
-9.78
-10.41
-10.47
-10.09
-9.54
-9.00
-8.21
-6.96
-5.24
-3.30
-1.44
0.11
1.24
2.01
2.62
3.99
6.70
10.63
15.12
19.39
22.98
25.81
28.25
31.02
35.79
43.40
53.17
63.33
72.11
78.42
82.10
83.52
83.26
82.94
83.15
83.28
82.23
79.50
75.52
71.15
66.94
55.23
33.30
4.45
-24.61
-48.93
-66.85
-78.71
-85.64
-89.22
-91.17
-91.42
-90.13
-88.02
-86.04
-84.59
-83.39
-81.43
-78.13
-73.38
-66.56
-57.84
-48.24
-39.14
-31.49
-25.53
-21.01
-17.55
-14.76
-11.62
-7.64
-2.98
1.69
5.76
8.95
11.27
12.85
13.86
14.83
16.01
17.32
18.47
19.20
19.43
19.24
18.70
17.92
17.12
16.38
15.54
14.36
12.61
10.31
7.64
4.92
2.48
0.76
0.03
0.28
1.18
2.31
3.29
3.86
3.90
3.40
2.82
2.58
2.80
3.30
3.85
4.34
4.77
5.15
5.46
6.30
8.18
11.24
15.18
19.49
23.65
27.15
29.50
30.53
31.25
32.95
36.48
41.88
48.56
55.73
62.54
68.24
67.46
56.97
37.37
12.73
-12.43
-34.90
-52.55
-64.03
-69.02
-68.51
-63.80
-56.73
-49.18
-42.53
-37.22
-32.92
-29.14
-25.69
-22.77
-20.08
-17.30
-14.26
-11.05
-7.88
-4.93
-2.50
-0.98
-0.68
-1.16
-1.69
-1.54
-0.36
1.70
4.06
5.82
6.12
4.52
1.60
-1.59
-3.93
-4.69
-3.87
-2.07
-0.22
0.68
0.04
-1.98
-4.71
-7.22
-8.82
-9.26
-8.85
-8.19
-7.95
-8.62
-10.17
-12.28
-14.48
-16.28
-16.98
-15.57
-10.87
-1.82
10.53
23.67
34.18
39.15
37.44
30.11
19.77
9.15
-0.16
-7.98
-14.77
-20.72
-25.18
-26.99
-25.31
-20.61
-14.06
-7.52
-2.71
-0.30
0.02
-0.74
-1.54
-1.69
-1.12
-0.17
0.56
0.58
-0.24
-1.65
-3.18
-4.34
-4.82
-4.61
-3.96
-3.23
-2.74
-2.58
-2.65
-2.77
-2.81
-2.66
-2.24
-1.86
-1.65
-1.57
-1.44
-1.12
-0.67
-0.22
0.30
1.17
2.70
5.01
7.98
11.17
13.88
15.47
15.65
14.95
14.29
14.37
15.19
16.21
16.60
15.67
13.20
9.68
6.50
5.11
6.23
9.50
14.15
19.31
24.13
27.67
26.64
18.48
3.59
-14.23
-30.34
-41.08
-45.01
-43.02
-37.72
-32.18
-28.13
-25.75
-23.55
-20.20
-14.65
-6.92
1.97
10.47
17.29
22.01
24.99
27.02
27.05
25.05
21.41
16.73
11.82
7.86
6.01
6.93
10.38
15.11
19.62
22.35
22.23
19.18
14.49
9.91
7.02
6.64
8.61
12.20
16.15
19.09
18.67
13.85
5.15
-5.76
-17.33
-28.30
-37.30
-43.01
-44.44
-42.75
-37.85
-30.69
-22.91
-16.17
-11.54
-9.17
-8.63
-9.28
-10.04
-9.21
-6.31
-2.07
2.18
5.42
7.34
8.03
7.76
6.83
5.77
4.69
3.69
2.91
2.43
2.18
1.92
1.33
0.14
-1.50
-3.62
-6.11
-8.76
-11.27
-13.40
-15.03
-16.17
-16.95
-17.40
-17.56
-17.26
-16.12
-13.74
-9.98
-5.09
0.30
5.46
9.78
12.92
14.90
15.95
16.40
16.50
16.46
16.51
16.87
17.75
19.17
20.89
22.45
23.32
23.09
21.70
19.47
16.95
14.62
12.70
11.02
9.18
6.80
3.65
-0.25
-4.76
-9.74
-15.05
-20.45
-25.58
-29.92
-32.92
-34.22
-33.80
-32.00
-29.44
-26.70
-24.18
-22.04
-20.23
-18.61
-17.03
-15.43
-13.94
-12.79
-12.12
-11.95
-12.11
-12.35
-12.36
-11.76
-10.37
-8.38
-6.21
-4.29
-2.85
-1.92
-1.40
-1.15
-0.68
0.32
1.71
3.06
4.03
4.52
4.61
4.46
4.15
4.41
5.73
8.05
10.90
13.89
16.97
20.23
23.77
27.61
32.52
39.01
46.81
55.00
62.64
69.12
74.23
78.07
75.79
65.45
49.45
32.69
18.46
7.10
-2.35
-10.73
-18.10
-24.05
-27.30
-27.20
-24.27
-19.90
-15.45
-11.76
-9.21
-7.99
-8.12
-8.88
-9.57
-9.99
-10.21
-10.55
-10.88
-10.97
-10.60
-9.82
-8.45
-6.57
-4.61
-3.08
-2.26
-1.99
-2.02
-2.19
-2.51
-2.87
-3.18
-3.42
-3.51
-3.33
-2.75
-2.00
-1.14
-0.48
-0.18
-0.27
-0.67
-1.16
-1.51
-1.53
-1.46
-1.59
-2.17
-3.29
-4.97
-7.20
-9.91
-12.97
-16.05
-19.02
-21.56
-23.34
-24.16
-24.19
-23.95
-24.04
-24.85
-24.43
-21.70
-16.83
-10.93
-5.09
0.00
3.95
6.49
7.53
7.29
5.98
4.13
2.36
1.04
0.06
-1.00
-2.43
-4.09
-5.41
-6.16
-6.08
-5.29
-4.25
-3.48
-3.34
-3.82
-4.58
-5.20
-5.49
-5.39
-4.87
-3.90
-2.51
-0.78
1.16
3.16
5.07
6.75
7.80
8.05
7.52
6.37
4.84
3.19
1.72
0.64
0.05
-0.03
0.35
1.06
1.94
2.85
3.62
4.15
4.41
4.38
4.10
3.61
2.94
2.09
1.08
-0.09
-1.38
-2.81
-4.37
-6.06
-7.79
-9.33
-10.36
-10.58
-9.81
-8.12
-5.77
-3.16
-0.63
1.59
3.39
4.72
5.53
5.80
5.59
5.06
4.45
3.99
3.84
4.02
4.42
4.91
5.38
5.78
6.08
6.22
6.17
5.89
5.38
4.68
3.84
2.91
1.89
0.76
-0.51
-1.95
-3.48
-4.95
-6.15
-6.80
-6.71
-5.81
-4.23
-2.24
-0.12
1.94
3.86
5.71
7.52
9.20
10.53
11.30
11.33
10.70
9.62
8.41
7.32
6.49
5.93
5.57
5.35
5.20
5.08
4.86
4.43
3.67
2.57
1.24
-0.13
-1.38
-2.47
-3.54
-4.74
-6.17
-7.71
-9.02
-9.71
-9.47
-8.22
-6.19
-3.77
-1.38
0.64
2.10
2.93
3.17
2.91
2.33
1.70
1.37
1.64
2.61
4.10
5.63
6.68
6.84
6.11
4.86
3.71
3.21
3.63
4.81
6.33
7.71
8.63
8.99
8.86
8.31
7.32
5.84
3.87
1.64
-0.42
-1.78
-2.02
-1.00
1.08
3.79
6.56
8.90
10.43
10.96
10.48
9.21
7.51
5.83
4.62
4.16
4.50
5.45
6.66
7.78
8.58
8.98
9.07
9.04
9.02
9.02
8.93
8.50
7.52
5.89
3.65
0.95
-2.04
-5.13
-8.15
-10.91
-13.15
-14.61
-15.12
-14.69
-13.47
-11.77
-9.88
-8.04
-6.43
-5.20
-4.59
-4.84
-6.10
-8.29
-11.09
-13.96
-16.32
-17.76
-18.13
-17.53
-16.25
-14.60
-12.87
-11.18
-9.55
-7.87
-5.97
-3.71
-1.00
2.10
5.41
8.70
11.66
14.08
15.75
16.57
16.59
16.07
15.37
14.93
15.07
15.88
17.19
18.68
20.01
20.90
21.17
20.72
19.41
17.21
14.21
10.69
7.12
4.00
1.71
0.37
-0.19
-0.28
-0.21
-0.22
-0.41
-0.78
-1.31
-2.00
-2.83
-3.76
-4.72
-5.67
-6.59
-7.53
-8.54
-9.58
-10.53
-11.16
-11.26
-10.70
-9.52
-7.92
-6.16
-4.56
-3.37
-2.79
-2.91
-3.76
-5.27
-7.30
-9.64
-12.03
-14.20
-15.92
-17.06
-17.61
-17.64
-17.29
-16.71
-16.01
-15.29
-14.61
-13.97
-13.30
-12.46
-11.23
-9.50
-7.27
-4.74
-2.17
0.15
2.05
3.49
4.50
5.29
6.09
7.18
8.87
11.38
14.72
18.63
22.77
26.38
28.86
29.86
29.37
27.58
24.88
21.71
18.54
15.78
13.68
12.30
11.45
10.77
9.85
8.38
6.30
3.75
1.00
-1.70
-4.12
-6.12
-7.62
-8.59
-9.11
-9.35
-9.62
-10.26
-11.48
-13.29
-15.46
-17.61
-19.27
-20.07
-19.80
-18.44
-16.21
-13.47
-10.62
-8.00
-5.84
-4.23
-3.11
-2.40
-2.01
-1.89
-2.00
-2.33
-2.84
-3.47
-4.14
-4.71
-5.03
-5.02
-4.70
-4.22
-3.77
-3.55
-3.63
-3.98
-4.46
-4.95
-5.39
-5.81
-6.28
-6.85
-7.51
-8.26
-9.06
-9.91
-10.73
-11.30
-11.34
-10.54
-8.78
-6.17
-3.05
0.10
2.87
5.04
6.56
7.54
8.08
8.27
8.13
7.66
6.93
6.07
5.21
4.51
4.02
3.75
3.62
3.56
3.50
3.44
3.40
3.42
3.46
3.47
3.38
3.12
2.66
1.97
1.03
-0.20
-1.74
-3.49
-5.28
-6.81
-7.78
-7.92
-7.13
-5.42
-2.94
0.08
3.33
6.45
9.09
10.97
11.95
12.08
11.58
10.78
10.02
9.53
9.43
9.70
10.23
10.83
11.29
11.36
10.84
9.64
7.81
5.61
3.39
1.49
0.10
-0.82
-1.51
-2.27
-3.38
-4.98
-7.04
-9.47
-12.17
-15.07
-18.08
-21.05
-23.74
-25.80
-26.92
-26.88
-25.62
-23.28
-20.15
-16.63
-13.09
-9.86
-7.13
-4.93
-3.14
-1.61
-0.20
1.06
2.06
2.63
2.71
2.43
2.10
2.03
2.43
3.28
4.35
5.35
6.05
6.39
6.45
6.35
6.14
5.78
5.14
4.16
2.85
1.32
-0.29
-1.80
-3.11
-4.11
-4.73
-4.89
-4.55
-3.68
-2.31
-0.52
1.49
3.49
5.24
6.54
7.29
7.54
7.42
7.14
6.86
6.67
6.57
6.48
6.33
6.07
5.67
5.15
4.48
3.68
2.80
1.93
1.20
0.73
0.56
0.63
0.75
0.71
0.31
-0.57
-1.91
-3.58
-5.33
-6.87
-7.88
-8.12
-7.48
-5.99
-3.84
-1.30
1.32
3.74
5.76
7.23
8.15
8.60
8.72
8.65
8.49
8.24
7.85
7.32
6.71
6.14
5.76
5.64
5.71
5.76
5.55
4.90
3.79
2.39
0.99
-0.16
-0.91
-1.33
-1.64
-2.14
-3.06
-4.47
-6.25
-8.15
-9.82
-10.93
-11.23
-10.57
-8.93
-6.40
-3.23
0.21
3.54
6.41
8.57
9.92
10.50
10.47
10.02
9.34
8.61
7.89
7.24
6.64
6.09
5.60
5.17
4.80
4.45
4.08
3.64
3.09
2.43
1.66
0.78
-0.26
-1.47
-2.86
-4.38
-5.96
-7.55
-9.10
-10.57
-11.87
-12.80
-13.15
-12.71
-11.37
-9.20
-6.42
-3.33
-0.25
2.56
4.91
6.72
7.97
8.69
8.95
8.86
8.57
8.19
7.87
7.71
7.73
7.85
7.93
7.82
7.41
6.70
5.84
4.94
4.10
3.28
2.37
1.30
0.09
-1.13
-2.26
-3.28
-4.33
-5.60
-7.21
-9.05
-10.76
-11.91
-12.13
-11.32
-9.63
-7.40
-4.99
-2.62
-0.43
1.56
3.33
4.82
5.95
6.65
6.92
6.86
6.63
6.41
6.29
6.30
6.39
6.50
6.53
6.46
6.22
5.80
5.20
4.45
3.61
2.76
1.96
1.21
0.50
-0.29
-1.26
-2.49
-4.04
-5.84
-7.70
-9.32
-10.34
-10.48
-9.63
-7.87
-5.47
-2.81
-0.17
2.24
4.30
5.98
7.23
8.03
8.39
8.38
8.08
7.63
7.16
6.74
6.42
6.21
6.06
5.91
5.69
5.31
4.71
3.89
2.94
1.94
1.00
0.15
-0.64
-1.43
-2.30
-3.30
-4.43
-5.69
-7.05
-8.43
-9.65
-10.48
-10.65
-10.02
-8.59
-6.57
-4.29
-2.07
-0.15
1.38
2.50
3.23
3.62
3.68
3.45
3.00
2.42
1.83
1.32
0.93
0.69
0.56
0.50
0.45
0.37
0.23
-0.02
-0.39
-0.89
-1.49
-2.11
-2.68
-3.17
-3.65
-4.25
-5.10
-6.23
-7.53
-8.77
-9.67
-10.05
-9.83
-9.03
-7.69
-5.87
-3.68
-1.26
1.15
3.31
5.02
6.15
6.71
6.73
6.33
5.64
4.87
4.21
3.86
3.88
4.25
4.85
5.50
6.01
6.24
6.10
5.57
4.69
3.58
2.45
1.49
0.80
0.41
0.20
0.00
-0.36
-1.01
-2.01
-3.33
-4.89
-6.52
-8.00
-9.11
-9.68
-9.62
-8.98
-7.90
-6.53
-5.07
-3.66
-2.47
-1.61
-1.15
-1.07
-1.28
-1.60
-1.86
-1.98
-1.92
-1.75
-1.55
-1.36
-1.24
-1.22
-1.35
-1.65
-2.10
-2.61
-3.03
-3.22
-3.15
-2.90
-2.65
-2.56
-2.75
-3.20
-3.84
-4.52
-5.09
-5.40
-5.29
-4.71
-3.66
-2.27
-0.72
0.81
2.17
3.34
4.35
5.25
6.01
6.57
6.81
6.68
6.18
5.45
4.65
3.96
3.48
3.23
3.14
3.11
2.99
2.72
2.29
1.77
1.28
0.92
0.73
0.66
0.57
0.31
-0.24
-1.05
-2.05
-3.09
-4.07
-4.95
-5.68
-6.22
-6.40
-6.04
-4.99
-3.29
-1.18
0.92
2.60
3.61
3.93
3.76
3.37
2.96
2.59
2.17
1.60
0.84
-0.06
-0.98
-1.82
-2.57
-3.26
-3.93
-4.52
-4.92
-5.04
-4.86
-4.51
-4.19
-4.08
-4.24
-4.61
-5.07
-5.50
-5.88
-6.20
-6.44
-6.53
-6.31
-5.61
-4.33
-2.48
-0.16
2.43
5.06
7.50
9.58
11.20
12.33
12.99
13.21
13.05
12.52
11.65
10.51
9.20
7.87
6.62
5.48
4.42
3.38
2.30
1.19
0.10
-0.90
-1.85
-2.82
-3.93
-5.25
-6.80
-8.50
-10.23
-11.89
-13.40
-14.61
-15.34
-15.35
-14.46
-12.59
-9.91
-6.77
-3.59
-0.74
1.57
3.33
4.60
5.49
6.01
6.13
5.81
5.05
3.99
2.86
1.88
1.19
0.79
0.55
0.30
-0.08
-0.56
-1.04
-1.41
-1.67
-1.88
-2.19
-2.71
-3.49
-4.47
-5.58
-6.76
-7.99
-9.17
-10.16
-10.68
-10.46
-9.31
-7.31
-4.75
-2.07
0.29
2.05
3.15
3.72
3.94
3.96
3.86
3.67
3.37
2.99
2.56
2.09
1.53
0.84
-0.03
-1.05
-2.12
-3.08
-3.80
-4.27
-4.58
-4.96
-5.66
-6.86
-8.60
-10.74
-13.09
-15.39
-17.38
-18.76
-19.22
-18.48
-16.46
-13.33
-9.50
-5.49
-1.68
1.78
5.05
8.40
12.00
15.82
19.58
22.92
25.54
27.33
28.36
28.80
28.85
28.69
28.44
28.17
27.91
27.65
27.33
26.85
26.07
24.87
23.20
21.10
18.73
16.34
14.18
12.49
11.41
10.93
10.96
11.30
11.74
12.19
12.70
13.38
14.34
15.51
16.62
17.21
16.89
15.43
12.92
9.69
6.19
2.83
-0.15
-2.69
-4.88
-6.87
-8.80
-10.75
-12.75
-14.80
-16.82
-18.73
-20.45
-21.88
-22.94
-23.58
-23.78
-23.62
-23.24
-22.80
-22.42
-22.14
-21.89
-21.54
-20.95
-20.00
-18.61
-16.81
-14.66
-12.30
-9.89
-7.60
-5.58
-3.97
-2.88
-2.35
-2.37
-2.80
-3.40
-3.88
-3.99
-3.64
-2.91
-2.02
-1.18
-0.56
-0.17
0.08
0.29
0.57
0.93
1.33
1.67
1.84
1.76
1.39
0.76
-0.04
-0.85
-1.49
-1.78
-1.61
-0.93
0.20
1.65
3.25
4.80
6.14
7.17
7.85
8.17
8.14
7.76
7.08
6.19
5.27
4.49
3.99
3.77
3.69
3.55
3.18
2.54
1.70
0.83
0.07
-0.55
-1.16
-1.93
-2.99
-4.37
-5.96
-7.55
-8.95
-10.00
-10.62
-10.80
-10.55
-9.88
-8.83
-7.47
-5.92
-4.36
-2.97
-1.86
-1.14
-0.85
-0.98
-1.46
-2.11
-2.69
-2.99
-2.89
-2.45
-1.84
-1.25
-0.79
-0.48
-0.26
-0.11
-0.12
-0.47
-1.29
-2.60
-4.27
-6.10
-7.85
-9.39
-10.65
-11.58
-12.09
-12.10
-11.52
-10.33
-8.65
-6.66
-4.62
-2.75
-1.20
-0.06
0.65
0.99
1.03
0.87
0.61
0.33
0.10
-0.07
-0.18
-0.25
-0.29
-0.32
-0.36
-0.48
-0.75
-1.24
-1.97
-2.87
-3.87
-4.89
-5.88
-6.87
-7.90
-8.95
-9.90
-10.56
-10.68
-10.10
-8.76
-6.78
-4.41
-1.92
0.40
2.35
3.82
4.79
5.27
5.32
5.01
4.43
3.73
3.04
2.50
2.20
2.12
2.15
2.18
2.09
1.85
1.54
1.25
1.04
0.89
0.68
0.24
-0.60
-1.90
-3.57
-5.41
-7.08
-8.25
-8.63
-8.09
-6.64
-4.47
-1.86
0.93
3.61
6.00
7.94
9.31
10.04
10.11
9.60
8.70
7.68
6.80
6.24
6.02
6.04
6.13
6.15
5.99
5.63
5.11
4.43
3.61
2.61
1.43
0.05
-1.47
-3.08
-4.71
-6.29
-7.77
-9.01
-9.85
-10.05
-9.43
-7.90
-5.52
-2.57
0.60
3.58
6.05
7.79
8.70
8.82
8.26
7.23
5.99
4.80
3.91
3.49
3.53
3.95
4.50
4.94
5.04
4.71
4.00
3.11
2.28
1.66
1.26
0.90
0.33
-0.67
-2.12
-3.84
-5.46
-6.57
-6.86
-6.22
-4.73
-2.59
-0.09
2.51
4.95
7.08
8.77
9.96
10.66
10.93
10.89
10.63
10.27
9.88
9.51
9.14
8.75
8.32
7.83
7.32
6.81
6.31
5.84
5.35
4.82
4.22
3.51
2.65
1.55
0.11
-1.72
-3.90
-6.20
-8.25
-9.59
-9.87
-8.97
-7.03
-4.38
-1.41
1.57
4.36
6.84
8.93
10.55
11.58
11.98
11.78
11.15
10.36
9.65
9.19
9.03
9.12
9.31
9.45
9.38
9.02
8.37
7.48
6.49
5.48
4.55
3.70
2.89
2.06
1.12
-0.01
-1.40
-3.15
-5.24
-7.56
-9.84
-11.66
-12.60
-12.34
-10.81
-8.20
-4.90
-1.42
1.78
4.36
6.20
7.33
7.89
8.05
8.00
7.86
7.68
7.48
7.22
6.88
6.46
5.97
5.45
4.85
4.13
3.27
2.32
1.48
0.99
1.01
1.53
2.34
3.10
3.46
3.27
2.51
1.32
-0.14
-1.70
-3.21
-4.51
-5.35
-5.53
-4.91
-3.53
-1.58
0.66
2.86
4.73
6.07
6.75
6.71
6.02
4.82
3.40
2.09
1.14
0.60
0.36
0.26
0.13
-0.16
-0.64
-1.23
-1.81
-2.36
-3.00
-3.86
-4.99
-6.32
-7.69
-8.90
-9.65
-9.74
-9.26
-8.64
-8.43
-8.99
-10.29
-11.89
-13.10
-13.03
-11.09
-7.34
-2.44
2.76
7.70
12.28
16.69
19.85
20.58
18.54
14.62
9.98
5.27
0.47
-4.71
-10.48
-16.66
-22.28
-26.03
-26.82
-24.40
-19.45
-13.36
-7.70
-3.61
-1.46
-0.72
-0.43
0.18
1.26
2.41
3.06
2.88
2.02
1.10
0.86
1.70
3.27
4.75
5.29
4.50
2.79
1.10
0.47
1.49
4.01
7.11
9.64
10.53
9.15
5.51
0.37
-5.01
-9.37
-11.95
-12.84
-12.49
-11.65
-10.96
-10.58
-10.06
-8.68
-6.14
-3.00
-0.59
0.08
-1.57
-5.57
-11.25
-17.33
-22.20
-24.26
-22.09
-14.81
-1.71
16.60
37.90
57.37
69.35
70.68
62.03
48.91
34.03
20.00
8.42
-0.37
-6.68
-10.71
-12.96
-13.28
-12.20
-10.83
-9.97
-10.29
-12.23
-15.52
-19.18
-22.54
-25.24
-27.51
-30.02
-33.28
-37.81
-43.98
-51.17
-54.45
-50.15
-38.05
-21.35
-3.91
10.72
22.04
29.48
32.91
33.00
29.40
22.82
14.65
6.42
-0.01
-4.10
-6.81
-8.84
-9.78
-8.98
-5.85
-0.55
6.10
13.53
20.78
26.92
31.67
35.07
36.85
36.73
32.32
23.88
13.19
2.56
-6.16
-11.76
-14.04
-13.98
-13.08
-12.75
-13.37
-14.65
-16.03
-17.02
-17.34
-17.11
-16.81
-16.91
-17.65
-18.75
-20.16
-21.72
-23.42
-25.16
-26.61
-27.29
-26.72
-24.57
-20.67
-15.33
-9.30
-3.70
0.37
2.09
1.11
-2.29
-7.19
-12.27
-16.23
-18.15
-17.62
-14.92
-10.56
-5.38
-0.45
3.23
4.97
4.69
3.14
1.61
1.42
3.30
6.91
10.91
13.68
14.15
12.33
9.26
6.36
4.66
4.38
4.96
5.57
5.67
5.27
4.84
4.95
5.97
7.90
10.41
13.00
15.09
16.23
16.17
15.07
13.43
11.95
11.25
11.56
12.68
14.12
15.42
16.38
16.99
17.28
17.17
16.41
14.87
12.67
10.21
7.98
6.27
5.01
3.84
2.39
0.50
-1.71
-4.02
-6.19
-8.09
-9.55
-10.38
-10.31
-9.20
-7.13
-4.40
-1.45
1.33
3.76
5.84
7.59
9.02
10.00
10.38
10.10
9.23
8.00
6.72
5.61
4.76
4.15
3.69
3.36
3.25
3.56
4.45
5.86
7.47
8.74
9.14
8.40
6.61
4.21
1.74
-0.31
-1.62
-2.07
-1.57
-0.06
2.47
5.90
9.84
13.75
17.01
19.18
20.07
19.82
18.76
17.27
15.65
14.09
12.66
11.40
10.36
9.54
8.86
8.16
7.21
5.83
4.01
1.95
0.02
-1.40
-2.09
-2.13
-1.87
-1.85
-2.55
-4.27
-6.95
-10.18
-13.29
-15.50
-16.14
-14.93
-12.04
-8.09
-3.93
-0.36
2.13
3.41
3.69
3.33
2.64
1.80
0.93
0.13
-0.48
-0.78
-0.78
-0.62
-0.51
-0.62
-0.91
-1.13
-0.94
-0.14
1.16
2.54
3.47
3.54
2.67
1.09
-0.78
-2.64
-4.34
-5.85
-7.14
-8.06
-8.37
-7.89
-6.59
-4.72
-2.61
-0.58
1.27
2.98
4.59
5.97
6.82
6.79
5.74
3.86
1.62
-0.38
-1.70
-2.24
-2.16
-1.85
-1.63
-1.70
-2.08
-2.65
-3.25
-3.76
-4.18
-4.62
-5.29
-6.38
-8.03
-10.19
-12.61
-14.91
-16.58
-17.21
-16.53
-14.58
-11.69
-8.40
-5.32
-2.90
-1.33
-0.51
-0.15
0.04
0.26
0.56
0.94
1.35
1.75
2.07
2.18
1.94
1.28
0.32
-0.67
-1.29
-1.26
-0.52
0.61
1.59
1.86
1.09
-0.69
-3.12
-5.70
-8.02
-9.89
-11.35
-12.44
-13.11
-13.10
-12.14
-10.11
-7.17
-3.77
-0.47
2.26
4.19
5.31
5.76
5.64
5.03
3.97
2.56
1.00
-0.41
-1.40
-1.82
-1.69
-1.19
-0.60
-0.21
-0.24
-0.75
-1.61
-2.57
-3.33
-3.72
-3.82
-3.97
-4.69
-6.38
-9.09
-12.33
-15.24
-16.86
-16.56
-14.26
-10.50
-6.18
-2.22
0.73
2.47
3.15
3.08
2.53
1.68
0.58
-0.66
-1.82
-2.62
-2.80
-2.31
-1.35
-0.32
0.36
0.43
-0.13
-1.13
-2.32
-3.51
-4.58
-5.48
-6.18
-6.70
-7.15
-7.78
-8.91
-10.80
-13.43
-16.43
-19.08
-20.62
-20.43
-18.28
-14.40
-9.37
-3.95
1.09
5.09
7.62
8.59
8.22
7.05
5.77
5.02
5.20
6.35
8.17
10.14
11.77
12.72
12.89
12.39
11.42
10.17
8.76
7.21
5.53
3.72
1.85
0.00
-1.70
-3.20
-4.52
-5.79
-7.15
-8.67
-10.19
-11.37
-11.72
-10.89
-8.81
-5.76
-2.29
1.04
3.88
6.18
8.08
9.81
11.45
12.97
14.22
15.01
15.23
14.86
13.96
12.73
11.38
10.20
9.40
9.07
9.10
9.20
9.03
8.30
6.89
4.90
2.59
0.23
-1.95
-3.91
-5.73
-7.56
-9.50
-11.45
-13.11
-14.04
-13.82
-12.25
-9.47
-5.89
-2.13
1.31
4.13
6.33
8.06
9.43
10.42
10.84
10.52
9.46
7.92
6.39
5.42
5.32
6.11
7.47
8.97
10.21
10.97
11.24
11.12
10.78
10.41
10.19
10.28
10.71
11.26
11.42
10.51
7.95
3.64
-1.86
-7.34
-11.36
-12.79
-11.16
-6.83
-0.76
5.95
12.32
17.68
21.61
23.81
24.07
22.39
19.00
14.46
9.51
4.86
1.00
-1.84
-3.65
-4.50
-4.50
-3.80
-2.66
-1.51
-0.81
-0.91
-1.86
-3.39
-5.06
-6.46
-7.48
-8.29
-9.33
-11.01
-13.50
-16.57
-19.64
-22.00
-23.03
-22.48
-20.49
-17.55
-14.24
-11.05
-8.25
-5.92
-4.03
-2.60
-1.73
-1.59
-2.28
-3.80
-5.94
-8.33
-10.55
-12.26
-13.33
-13.85
-14.03
-14.02
-13.79
-13.09
-11.70
-9.62
-7.18
-4.96
-3.51
-3.10
-3.58
-4.57
-5.67
-6.63
-7.35
-7.74
-7.57
-6.47
-4.15
-0.61
3.78
8.36
12.48
15.73
18.12
19.90
21.39
22.72
23.85
24.62
25.03
25.34
25.93
27.03
28.46
29.61
29.75
28.39
25.52
21.57
17.13
12.64
8.30
4.14
0.16
-3.60
-7.11
-10.45
-13.85
-17.61
-21.86
-26.47
-30.94
-34.57
-36.61
-36.47
-33.86
-28.99
-22.54
-15.55
-9.11
-3.92
-0.14
2.60
4.91
7.24
9.69
12.00
13.72
14.54
14.39
13.42
11.90
10.04
7.94
5.65
3.26
0.95
-0.97
-2.17
-2.49
-1.94
-0.77
0.65
2.01
3.14
4.03
4.78
5.50
6.21
6.82
7.20
7.28
7.11
6.91
6.91
7.23
7.78
8.31
8.50
8.10
7.07
5.60
3.99
2.53
1.46
0.81
0.51
0.35
0.11
-0.33
-0.96
-1.64
-2.16
-2.42
-2.51
-2.71
-3.39
-4.84
-7.14
-10.12
-13.43
-16.59
-19.11
-20.56
-20.62
-19.12
-16.13
-11.97
-7.19
-2.36
2.10
6.07
9.73
13.45
17.54
22.04
26.66
30.85
34.04
35.86
36.17
35.10
32.81
29.46
25.11
19.91
14.12
8.19
2.60
-2.27
-6.29
-9.59
-12.43
-15.05
-17.53
-19.82
-21.80
-23.43
-24.74
-25.83
-26.71
-27.24
-27.15
-26.18
-24.19
-21.30
-17.85
-14.31
-11.11
-8.54
-6.71
-5.55
-4.93
-4.67
-4.62
-4.65
-4.63
-4.42
-3.95
-3.17
-2.18
-1.15
-0.27
0.27
0.44
0.31
0.06
-0.18
-0.35
-0.53
-0.87
-1.50
-2.40
-3.47
-4.48
-5.24
-5.61
-5.55
-5.10
-4.34
-3.33
-2.11
-0.72
0.77
2.26
3.55
4.49
4.97
4.96
4.57
3.97
3.35
2.80
2.37
1.99
1.64
1.30
1.00
0.80
0.67
0.58
0.41
0.10
-0.40
-1.09
-1.96
-2.99
-4.13
-5.29
-6.24
-6.78
-6.73
-6.05
-4.88
-3.45
-2.00
-0.62
0.67
1.91
3.11
4.15
4.82
4.90
4.31
3.17
1.75
0.40
-0.65
-1.36
-1.89
-2.46
-3.24
-4.22
-5.23
-6.04
-6.52
-6.73
-6.86
-7.19
-7.92
-9.09
-10.62
-12.31
-13.93
-15.30
-16.25
-16.64
-16.36
-15.36
-13.68
-11.49
-9.04
-6.65
-4.56
-2.89
-1.59
-0.50
0.54
1.64
2.77
3.84
4.79
5.64
6.55
7.72
9.31
11.28
13.39
15.32
16.81
17.80
18.44
18.96
19.53
20.11
20.43
20.20
19.27
17.74
15.99
14.50
13.65
13.57
14.10
14.88
15.52
15.69
15.28
14.34
13.06
11.64
10.24
8.93
7.69
6.42
4.96
3.12
0.73
-2.24
-5.66
-9.17
-12.27
-14.48
-15.47
-15.29
-14.29
-13.04
-12.17
-12.20
-13.41
-15.81
-19.12
-22.79
-26.15
-28.48
-29.24
-28.11
-25.14
-20.67
-15.27
-9.59
-4.17
0.69
4.86
8.37
11.27
13.58
15.24
16.21
16.47
16.05
15.00
13.43
11.50
9.51
7.88
7.00
7.00
7.74
8.74
9.43
9.40
8.54
7.05
5.33
3.71
2.39
1.34
0.42
-0.51
-1.49
-2.41
-3.02
-3.01
-2.20
-0.59
1.56
3.85
5.85
7.20
7.67
7.17
5.95
4.36
2.75
1.34
0.26
-0.41
-0.73
-0.82
-0.84
-0.66
-0.15
0.60
1.26
1.53
1.34
0.74
-0.12
-1.16
-1.92
-2.08
-1.77
-1.46
-1.51
-1.90
-2.22
-1.87
-0.30
3.45
9.93
18.79
28.94
39.09
48.28
55.94
61.83
62.07
54.55
40.60
24.38
9.77
-1.44
-9.19
-14.18
-17.18
-18.73
-18.90
-17.64
-15.34
-12.85
-10.94
-9.98
-9.94
-10.67
-12.11
-13.73
-15.14
-16.40
-17.91
-19.93
-22.35
-24.80
-26.89
-28.41
-29.09
-28.83
-27.76
-26.17
-24.29
-22.22
-20.09
-18.12
-16.61
-15.68
-15.30
-15.34
-15.62
-15.83
-15.62
-14.67
-12.84
-10.29
-7.38
-4.62
-2.57
-1.64
-1.96
-3.26
-4.92
-6.12
-6.06
-4.14
-0.23
5.20
11.08
15.98
18.54
17.98
14.33
8.54
2.13
-3.27
-6.46
-6.96
-4.98
-1.23
3.52
8.56
13.37
17.68
21.40
24.59
27.36
29.92
32.43
34.97
37.38
39.26
40.25
40.21
39.25
37.60
35.50
33.07
30.31
27.01
22.88
17.90
12.32
6.49
0.72
-4.78
-10.35
-15.30
-18.76
-20.53
-20.99
-20.76
-20.33
-20.02
-19.91
-19.89
-20.03
-19.92
-19.24
-17.68
-15.05
-11.37
-6.94
-2.25
2.10
5.64
8.14
9.26
8.94
7.38
4.98
2.16
-0.73
-3.44
-5.84
-7.99
-10.14
-12.53
-15.28
-18.37
-21.70
-25.06
-28.22
-30.97
-33.16
-34.83
-36.05
-36.92
-37.53
-37.91
-38.00
-37.72
-36.96
-35.69
-34.03
-32.12
-30.16
-28.24
-26.37
-24.40
-22.14
-19.31
-15.68
-11.08
-5.48
0.98
7.95
14.91
21.24
26.40
30.07
32.31
33.44
33.97
34.37
34.88
35.53
36.17
36.67
36.95
37.05
36.99
36.75
36.19
35.10
33.35
30.86
27.72
24.11
20.25
16.35
12.58
9.06
5.83
2.90
0.26
-2.11
-4.21
-6.02
-7.52
-8.67
-9.44
-9.77
-9.65
-9.05
-7.98
-6.50
-4.73
-2.87
-1.15
0.22
1.09
1.49
1.51
1.36
1.24
1.26
1.45
1.73
1.97
2.06
1.96
1.74
1.51
1.40
1.46
1.62
1.70
1.52
0.96
0.06
-1.00
-2.03
-2.91
-3.66
-4.41
-5.30
-6.38
-7.57
-8.69
-9.55
-10.01
-9.99
-9.46
-8.38
-6.78
-4.73
-2.40
-0.04
2.13
3.95
5.38
6.50
7.36
7.92
8.10
7.82
7.13
6.25
5.50
5.12
5.14
5.34
5.37
4.95
4.02
2.77
1.52
0.55
-0.04
-0.39
-0.79
-1.56
-2.92
-4.90
-7.29
-9.73
-11.80
-13.12
-13.45
-12.73
-11.03
-8.55
-5.57
-2.39
0.65
3.26
5.21
6.36
6.75
6.52
5.90
5.16
4.52
4.13
4.01
4.08
4.21
4.24
4.09
3.72
3.14
2.40
1.54
0.59
-0.41
-1.41
-2.41
-3.43
-4.55
-5.79
-7.15
-8.56
-9.92
-11.17
-12.23
-13.02
-13.40
-13.15
-12.09
-10.20
-7.65
-4.81
-2.09
0.15
1.74
2.68
3.04
2.93
2.49
1.88
1.29
0.90
0.83
1.03
1.34
1.59
1.64
1.49
1.22
0.95
0.73
0.56
0.34
-0.05
-0.67
-1.55
-2.69
-4.03
-5.52
-7.06
-8.50
-9.64
-10.23
-10.05
-8.99
-7.09
-4.60
-1.84
0.80
3.04
4.74
5.89
6.55
6.81
6.72
6.34
5.71
4.90
4.06
3.36
2.94
2.85
3.01
3.20
3.20
2.86
2.19
1.33
0.49
-0.20
-0.72
-1.17
-1.69
-2.37
-3.25
-4.31
-5.52
-6.78
-7.94
-8.75
-8.93
-8.24
-6.63
-4.25
-1.44
1.42
3.99
6.06
7.55
8.44
8.77
8.56
7.92
6.99
6.00
5.16
4.61
4.35
4.26
4.14
3.81
3.22
2.42
1.55
0.77
0.15
-0.32
-0.72
-1.17
-1.79
-2.69
-3.91
-5.47
-7.29
-9.13
-10.67
-11.52
-11.39
-10.19
-8.05
-5.34
-2.53
0.01
2.02
3.47
4.40
4.92
5.12
5.02
4.69
4.20
3.69
3.33
3.25
3.53
4.14
4.97
5.84
6.57
7.00
7.08
6.81
6.28
5.58
4.82
4.02
3.17
2.18
0.99
-0.43
-2.06
-3.78
-5.43
-6.76
-7.51
-7.48
-6.56
-4.82
-2.50
0.05
2.50
4.61
6.30
7.63
8.68
9.46
9.91
9.91
9.40
8.48
7.40
6.44
5.84
5.63
5.66
5.69
5.51
5.04
4.31
3.44
2.50
1.51
0.43
-0.76
-2.05
-3.33
-4.53
-5.61
-6.64
-7.71
-8.84
-9.94
-10.73
-10.92
-10.27
-8.76
-6.56
-3.95
-1.28
1.22
3.36
5.06
6.25
6.87
6.92
6.45
5.61
4.61
3.65
2.88
2.35
2.06
1.93
1.88
1.85
1.76
1.61
1.41
1.20
0.98
0.73
0.36
-0.21
-1.08
-2.28
-3.78
-5.46
-7.14
-8.59
-9.62
-10.04
-9.72
-8.65
-6.89
-4.63
-2.10
0.44
2.72
4.57
5.86
6.57
6.70
6.33
5.55
4.46
3.24
2.06
1.11
0.50
0.27
0.32
0.46
0.53
0.40
0.02
-0.56
-1.25
-2.00
-2.73
-3.43
-4.12
-4.85
-5.69
-6.74
-7.99
-9.37
-10.67
-11.60
-11.85
-11.20
-9.61
-7.22
-4.37
-1.45
1.16
3.22
4.58
5.23
5.21
4.61
3.56
2.24
0.86
-0.38
-1.34
-1.99
-2.39
-2.66
-2.90
-3.21
-3.62
-4.19
-4.93
-5.84
-6.90
-8.05
-9.24
-10.43
-11.62
-12.85
-14.16
-15.56
-16.91
-17.91
-18.13
-17.15
-14.67
-10.66
-5.35
0.82
7.34
13.73
19.59
24.56
28.34
30.67
31.48
30.94
29.52
27.77
26.20
25.02
24.17
23.34
22.22
20.61
18.45
15.83
12.84
9.60
6.19
2.74
-0.57
-3.55
-6.13
-8.36
-10.40
-12.49
-14.79
-17.37
-20.19
-23.00
-25.51
-27.36
-28.26
-28.02
-26.61
-24.14
-20.82
-16.96
-12.75
-8.44
-4.30
-0.64
2.28
4.38
5.78
6.76
7.65
8.83
10.42
12.24
13.84
14.84
15.02
14.37
13.04
11.19
9.26
7.51
5.94
4.33
2.49
0.46
-1.56
-3.38
-4.89
-5.64
-5.34
-4.05
-2.11
0.19
2.74
5.52
8.45
11.44
15.00
19.62
25.35
31.72
38.10
43.98
49.04
53.06
52.27
44.67
31.53
16.81
4.07
-5.22
-11.25
-14.96
-17.37
-19.32
-20.68
-21.19
-20.85
-20.11
-19.57
-19.58
-20.18
-21.16
-22.19
-22.43
-21.21
-18.41
-14.36
-9.62
-4.72
-0.12
3.68
6.19
7.31
6.75
4.83
1.92
-1.51
-4.99
-8.17
-10.88
-13.10
-14.72
-15.68
-15.96
-15.68
-15.07
-14.30
-13.52
-12.83
-12.42
-12.09
-11.69
-11.01
-9.99
-8.65
-7.12
-5.61
-4.35
-3.55
-3.29
-3.53
-4.02
-4.49
-4.70
-4.48
-3.79
-2.69
-1.33
0.13
1.50
2.69
3.54
3.96
3.87
3.34
2.57
1.90
1.70
1.99
2.80
3.97
5.24
6.31
7.02
7.32
7.26
6.97
6.54
6.13
5.83
5.69
5.70
5.81
5.96
6.09
6.21
6.33
6.44
6.41
6.07
5.26
4.01
2.57
1.39
0.96
1.57
3.26
5.71
8.40
10.76
12.37
13.03
12.73
11.62
9.87
7.66
5.17
2.58
0.11
-2.00
-3.56
-4.49
-4.82
-4.70
-4.34
-3.95
-3.66
-3.59
-3.75
-4.12
-4.61
-5.06
-5.31
-5.24
-4.92
-4.58
-4.57
-5.22
-6.63
-8.63
-10.79
-12.60
-13.61
-13.54
-12.33
-10.06
-6.90
-3.10
0.94
4.77
7.90
9.98
10.89
10.79
9.99
8.82
7.52
6.21
4.97
3.93
3.32
3.33
3.98
5.05
6.06
6.50
6.07
4.81
3.05
1.27
-0.20
-1.24
-1.99
-2.73
-3.66
-4.91
-6.46
-8.19
-9.92
-11.38
-12.28
-12.32
-11.31
-9.23
-6.26
-2.71
1.05
4.70
7.96
10.63
12.58
13.72
14.06
13.71
12.85
11.69
10.42
9.23
8.25
7.59
7.26
7.19
7.20
7.06
6.59
5.71
4.48
2.98
1.31
-0.49
-2.37
-4.30
-6.22
-8.09
-9.92
-11.76
-13.67
-15.62
-17.43
-18.79
-19.31
-18.72
-16.93
-14.11
-10.63
-6.95
-3.53
-0.70
1.38
2.66
3.23
3.21
2.74
2.05
1.34
0.81
0.59
0.65
0.89
1.12
1.21
1.14
0.95
0.77
0.67
0.61
0.52
0.28
-0.20
-1.01
-2.19
-3.77
-5.69
-7.79
-9.78
-11.27
-11.86
-11.28
-9.51
-6.75
-3.42
0.00
3.09
5.59
7.42
8.60
9.23
9.38
9.11
8.44
7.40
6.12
4.80
3.67
2.91
2.62
2.70
2.96
3.17
3.15
2.86
2.38
1.85
1.39
1.04
0.71
0.25
-0.56
-1.88
-3.76
-6.11
-8.62
-10.89
-12.48
-13.05
-12.43
-10.70
-8.11
-5.00
-1.72
1.42
4.17
6.27
7.52
7.79
7.09
5.61
3.70
1.78
0.25
-0.61
-0.72
-0.17
0.80
1.90
2.83
3.33
3.23
2.47
1.18
-0.41
-1.99
-3.28
-4.10
-4.50
-4.71
-5.06
-5.86
-7.25
-9.11
-11.09
-12.73
-13.55
-13.30
-11.91
-9.57
-6.62
-3.44
-0.38
2.30
4.44
5.94
6.73
6.81
6.28
5.40
4.53
4.00
3.99
4.40
4.93
5.23
5.07
4.45
3.54
2.60
1.77
1.07
0.42
-0.27
-1.00
-1.79
-2.65
-3.70
-5.07
-6.81
-8.77
-10.57
-11.74
-11.81
-10.55
-8.06
-4.71
-1.09
2.26
4.94
6.79
7.85
8.28
8.18
7.66
6.77
5.62
4.40
3.35
2.72
2.61
2.95
3.50
3.99
4.19
4.06
3.71
3.30
2.98
2.75
2.51
2.11
1.41
0.35
-1.05
-2.71
-4.46
-6.10
-7.37
-7.96
-7.64
-6.30
-4.08
-1.30
1.60
4.25
6.39
7.92
8.83
9.20
9.09
8.58
7.79
6.85
5.92
5.15
4.62
4.30
4.13
3.99
3.79
3.49
3.10
2.67
2.25
1.87
1.48
1.03
0.44
-0.36
-1.43
-2.80
-4.39
-6.06
-7.54
-8.46
-8.55
-7.64
-5.80
-3.28
-0.44
2.40
5.04
7.35
9.24
10.57
11.23
11.13
10.33
9.07
7.65
6.41
5.55
5.12
5.06
5.22
5.45
5.58
5.51
5.13
4.44
3.49
2.40
1.27
0.17
-0.93
-2.07
-3.31
-4.67
-6.13
-7.64
-9.14
-10.53
-11.57
-11.94
-11.34
-9.56
-6.67
-3.01
0.85
4.35
7.05
8.73
9.42
9.24
8.39
7.15
5.80
4.65
3.93
3.72
3.97
4.48
5.00
5.32
5.34
5.07
4.60
4.02
3.41
2.82
2.20
1.50
0.64
-0.47
-1.87
-3.54
-5.38
-7.17
-8.61
-9.37
-9.24
-8.16
-6.30
-3.98
-1.56
0.67
2.51
3.84
4.62
4.77
4.30
3.31
2.00
0.71
-0.27
-0.74
-0.70
-0.30
0.24
0.74
1.13
1.43
1.68
1.83
1.74
1.23
0.15
-1.47
-3.47
-5.55
-7.54
-9.36
-11.08
-12.72
-14.14
-14.98
-14.84
-13.43
-10.82
-7.43
-3.89
-0.79
1.49
2.90
3.57
3.72
3.50
2.95
2.07
0.86
-0.51
-1.78
-2.62
-2.85
-2.47
-1.72
-0.97
-0.52
-0.50
-0.82
-1.30
-1.75
-2.13
-2.54
-3.11
-3.92
-4.99
-6.24
-7.58
-8.90
-10.06
-10.91
-11.19
-10.72
-9.37
-7.18
-4.33
-1.14
2.00
4.74
6.80
8.06
8.50
8.25
7.53
6.56
5.54
4.60
3.84
3.28
2.95
2.85
2.93
3.13
3.33
3.41
3.27
2.83
2.10
1.11
-0.02
-1.23
-2.49
-3.85
-5.38
-7.11
-8.96
-10.64
-11.78
-12.03
-11.16
-9.20
-6.42
-3.20
0.05
2.99
5.40
7.17
8.25
8.61
8.29
7.41
6.14
4.78
3.65
3.00
2.94
3.40
4.15
4.91
5.43
5.55
5.23
4.56
3.67
2.68
1.69
0.70
-0.37
-1.65
-3.24
-5.13
-7.15
-8.99
-10.31
-10.81
-10.32
-8.85
-6.58
-3.77
-0.73
2.23
4.83
6.86
8.20
8.85
8.87
8.42
7.66
6.79
5.98
5.37
5.06
5.08
5.33
5.65
5.80
5.60
4.99
4.07
3.03
2.10
1.40
0.93
0.54
0.03
-0.80
-2.05
-3.72
-5.68
-7.69
-9.45
-10.63
-10.95
-10.25
-8.56
-6.09
-3.17
-0.17
2.60
4.91
6.66
7.78
8.32
8.37
8.03
7.46
6.79
6.12
5.53
5.07
4.77
4.62
4.58
4.54
4.39
4.00
3.35
2.47
1.48
0.50
-0.43
-1.33
-2.28
-3.36
-4.61
-6.03
-7.59
-9.24
-10.87
-12.29
-13.20
-13.25
-12.16
-9.83
-6.48
-2.62
1.17
4.36
6.70
8.18
8.97
9.27
9.18
8.81
8.21
7.52
6.90
6.52
6.43
6.57
6.81
7.04
7.17
7.16
7.00
6.66
6.12
5.38
4.49
3.54
2.61
1.72
0.82
-0.19
-1.38
-2.80
-4.39
-6.10
-7.81
-9.39
-10.66
-11.41
-11.41
-10.50
-8.64
-6.01
-2.90
0.24
3.02
5.15
6.50
7.10
7.08
6.57
5.74
4.69
3.57
2.51
1.67
1.18
1.06
1.28
1.70
2.18
2.54
2.68
2.51
2.01
1.21
0.22
-0.83
-1.78
-2.55
-3.13
-3.65
-4.27
-5.21
-6.56
-8.26
-10.07
-11.60
-12.42
-12.19
-10.78
-8.35
-5.26
-1.97
1.14
3.80
5.89
7.35
8.19
8.38
7.98
7.11
5.99
4.87
3.97
3.42
3.24
3.36
3.67
4.04
4.34
4.47
4.33
3.91
3.21
2.33
1.37
0.44
-0.41
-1.15
-1.85
-2.58
-3.43
-4.49
-5.78
-7.24
-8.71
-9.90
-10.50
-10.24
-9.00
-6.87
-4.17
-1.30
1.32
3.42
4.91
5.84
6.32
6.41
6.11
5.38
4.28
2.99
1.77
0.88
0.42
0.37
0.55
0.77
0.93
0.97
0.89
0.70
0.36
-0.15
-0.80
-1.53
-2.25
-2.93
-3.62
-4.46
-5.57
-6.97
-8.57
-10.14
-11.36
-11.88
-11.44
-9.92
-7.39
-4.18
-0.76
2.38
4.86
6.54
7.49
7.88
7.84
7.45
6.68
5.58
4.28
3.07
2.23
2.00
2.39
3.23
4.19
4.94
5.21
4.89
4.01
2.72
1.20
-0.41
-1.97
-3.40
-4.65
-5.63
-6.32
-6.75
-7.05
-7.47
-8.19
-9.27
-10.47
-11.38
-11.50
-10.47
-8.28
-5.25
-1.94
1.09
3.41
4.89
5.56
5.59
5.13
4.26
3.09
1.79
0.58
-0.28
-0.65
-0.51
-0.05
0.46
0.71
0.53
-0.09
-1.03
-2.07
-3.03
-3.82
-4.47
-5.08
-5.77
-6.63
-7.69
-8.92
-10.22
-11.43
-12.36
-12.75
-12.39
-11.17
-9.13
-6.48
-3.54
-0.65
1.93
4.03
5.60
6.63
7.14
7.13
6.62
5.66
4.42
3.08
1.90
1.06
0.64
0.58
0.75
0.98
1.14
1.18
1.07
0.83
0.45
-0.08
-0.82
-1.79
-2.99
-4.39
-5.95
-7.58
-9.14
-10.42
-11.20
-11.23
-10.38
-8.68
-6.33
-3.66
-1.02
1.32
3.24
4.73
5.82
6.53
6.84
6.71
6.20
5.43
4.59
3.88
3.45
3.38
3.62
4.06
4.55
4.92
5.09
5.03
4.81
4.52
4.24
3.99
3.66
3.11
2.20
0.82
-1.04
-3.26
-5.63
-7.81
-9.43
-10.10
-9.56
-7.75
-4.86
-1.32
2.33
5.57
8.03
9.59
10.29
10.28
9.69
8.64
7.27
5.73
4.25
3.11
2.47
2.37
2.64
3.01
3.23
3.17
2.88
2.52
2.27
2.16
2.08
1.82
1.21
0.19
-1.11
-2.49
-3.79
-4.96
-6.04
-7.05
-7.87
-8.21
-7.75
-6.26
-3.79
-0.65
2.65
5.64
7.95
9.44
10.11
10.08
9.49
8.49
7.22
5.87
4.58
3.50
2.71
2.20
1.90
1.70
1.50
1.22
0.84
0.38
-0.11
-0.58
-1.06
-1.60
-2.28
-3.21
-4.48
-6.08
-7.96
-9.90
-11.55
-12.49
-12.33
-10.88
-8.22
-4.73
-1.01
2.42
5.20
7.24
8.65
9.53
9.93
9.77
8.98
7.64
6.02
4.49
3.40
2.92
2.94
3.19
3.37
3.24
2.75
2.01
1.16
0.31
-0.54
-1.54
-2.86
-4.65
-6.89
-9.43
-11.94
-14.03
-15.33
-15.56
-14.60
-12.51
-9.53
-6.00
-2.33
1.13
4.11
6.46
8.10
8.98
9.09
8.49
7.35
5.98
4.77
4.03
3.86
4.13
4.47
4.56
4.20
3.41
2.43
1.51
0.79
0.29
-0.14
-0.68
-1.49
-2.67
-4.23
-6.10
-8.07
-9.81
-10.86
-10.84
-9.55
-7.09
-3.88
-0.48
2.62
5.10
6.86
7.96
8.47
8.45
7.93
7.02
5.91
4.89
4.25
4.08
4.31
4.70
4.95
4.85
4.31
3.45
2.43
1.45
0.63
-0.02
-0.59
-1.21
-2.03
-3.13
-4.51
-6.04
-7.55
-8.76
-9.40
-9.24
-8.12
-6.06
-3.27
-0.14
2.88
5.37
7.12
8.10
8.42
8.22
7.60
6.57
5.14
3.42
1.62
0.01
-1.19
-1.90
-2.23
-2.39
-2.62
-3.07
-3.75
-4.57
-5.44
-6.28
-7.10
-7.96
-8.98
-10.27
-11.89
-13.81
-15.88
-17.80
-19.21
-19.72
-18.98
-16.85
-13.38
-8.85
-3.74
1.37
5.96
9.67
12.43
14.40
15.93
17.32
18.77
20.27
21.73
23.06
24.26
25.43
26.62
27.77
28.71
29.17
28.95
28.00
26.41
24.36
21.98
19.27
16.15
12.55
8.48
4.09
-0.41
-4.76
-8.69
-11.93
-14.22
-15.32
-15.13
-13.76
-11.51
-8.80
-6.05
-3.52
-1.33
0.47
1.81
2.58
2.66
2.07
0.98
-0.31
-1.46
-2.27
-2.69
-2.83
-2.91
-3.13
-3.63
-4.44
-5.48
-6.56
-7.51
-8.21
-8.68
-9.02
-9.41
-10.05
-11.09
-12.57
-14.45
-16.51
-18.39
-19.64
-19.82
-18.68
-16.21
-12.72
-8.70
-4.69
-1.15
1.64
3.56
4.61
4.85
4.41
3.41
2.05
0.54
-0.91
-2.06
-2.71
-2.74
-2.19
-1.27
-0.30
0.39
0.65
0.59
0.51
0.78
1.55
2.68
3.72
4.19
3.76
2.44
0.58
-1.32
-2.77
-3.43
-3.08
-1.63
0.91
4.41
8.55
12.85
16.71
19.63
21.28
21.58
20.73
19.06
16.96
14.77
12.73
10.93
9.40
8.07
6.89
5.82
4.86
4.01
3.19
2.30
1.23
-0.04
-1.44
-2.80
-4.02
-5.09
-6.16
-7.44
-9.10
-11.15
-13.45
-15.70
-17.55
-18.66
-18.75
-17.66
-15.38
-12.08
-8.12
-3.97
-0.14
2.99
5.19
6.43
6.83
6.61
5.99
5.17
4.33
3.60
3.03
2.62
2.32
2.02
1.64
1.14
0.53
-0.16
-0.84
-1.48
-2.06
-2.55
-2.96
-3.33
-3.76
-4.40
-5.43
-6.98
-9.05
-11.39
-13.54
-14.92
-15.04
-13.67
-10.94
-7.28
-3.27
0.59
3.96
6.68
8.67
9.92
10.37
10.02
8.96
7.43
5.76
4.29
3.26
2.74
2.65
2.82
3.06
3.26
3.33
3.23
2.87
2.18
1.08
-0.39
-2.10
-3.85
-5.48
-6.93
-8.28
-9.62
-11.01
-12.30
-13.20
-13.37
-12.52
-10.55
-7.56
-3.90
-0.02
3.59
6.50
8.43
9.34
9.35
8.70
7.68
6.52
5.36
4.30
3.40
2.73
2.39
2.38
2.62
2.91
3.01
2.70
1.96
0.92
-0.14
-0.97
-1.48
-1.81
-2.24
-3.05
-4.39
-6.21
-8.30
-10.35
-11.98
-12.85
-12.66
-11.23
-8.59
-5.01
-0.97
2.99
6.38
8.93
10.54
11.24
11.12
10.25
8.74
6.80
4.76
2.99
1.80
1.36
1.60
2.27
3.01
3.43
3.22
2.30
0.78
-1.01
-2.66
-3.83
-4.39
-4.51
-4.56
-5.01
-6.18
-8.14
-10.59
-12.97
-14.61
-14.88
-13.49
-10.53
-6.48
-2.07
2.00
5.23
7.41
8.60
8.97
8.69
7.89
6.70
5.34
4.12
3.33
3.18
3.60
4.32
4.92
5.04
4.47
3.29
1.73
0.12
-1.22
-2.12
-2.54
-2.67
-2.79
-3.24
-4.27
-5.94
-8.08
-10.30
-12.11
-13.07
-12.93
-11.62
-9.26
-6.12
-2.55
1.08
4.41
7.12
8.98
9.92
9.98
9.32
8.18
6.84
5.53
4.48
3.82
3.60
3.77
4.13
4.42
4.41
3.95
3.07
1.95
0.80
-0.22
-1.13
-2.07
-3.26
-4.86
-6.95
-9.40
-11.95
-14.23
-15.85
-16.50
-16.06
-14.59
-12.33
-9.63
-6.81
-4.16
-1.86
-0.06
1.04
1.32
0.69
-0.73
-2.63
-4.58
-6.14
-6.99
-7.06
-6.50
-5.63
-4.80
-4.30
-4.24
-4.53
-4.92
-5.09
-4.75
-3.78
-2.22
-0.28
1.72
3.44
4.55
4.86
4.39
3.46
2.60
2.43
3.45
5.78
9.16
13.05
16.80
19.95
22.33
23.98
25.04
25.52
25.30
24.19
22.07
19.10
15.68
12.35
9.59
7.64
6.45
5.76
5.24
4.66
3.91
3.03
2.01
0.83
-0.64
-2.49
-4.76
-7.37
-10.13
-12.86
-15.41
-17.69
-19.60
-21.02
-21.70
-21.42
-19.97
-17.34
-13.69
-9.36
-4.73
-0.14
4.15
7.93
11.02
13.29
14.65
15.12
14.81
13.88
12.53
10.96
9.41
8.14
7.35
7.08
7.19
7.29
6.97
5.92
4.06
1.56
-1.30
-4.23
-7.06
-9.71
-12.13
-14.23
-15.83
-16.66
-16.48
-15.12
-12.66
-9.35
-5.64
-2.04
1.03
3.36
4.91
5.79
6.11
5.91
5.22
4.09
2.72
1.43
0.58
0.47
1.20
2.68
4.61
6.60
8.27
9.35
9.71
9.38
8.51
7.30
5.88
4.31
2.54
0.46
-2.01
-4.81
-7.73
-10.43
-12.49
-13.56
-13.39
-12.01
-9.60
-6.52
-3.13
0.22
3.27
5.75
7.45
8.18
7.96
6.98
5.65
4.41
3.58
3.19
3.07
2.93
2.59
2.03
1.36
0.72
0.17
-0.31
-0.80
-1.33
-1.87
-2.40
-2.98
-3.71
-4.79
-6.32
-8.25
-10.33
-12.17
-13.35
-13.53
-12.54
-10.45
-7.47
-3.94
-0.24
3.23
6.15
8.27
9.49
9.82
9.39
8.39
7.01
5.48
4.01
2.82
2.06
1.78
1.87
2.12
2.27
2.13
1.66
0.91
-0.02
-1.08
-2.28
-3.66
-5.24
-7.01
-8.91
-10.92
-13.00
-15.08
-16.99
-18.44
-19.05
-18.53
-16.76
-13.93
-10.44
-6.78
-3.32
-0.33
2.11
3.94
5.10
5.49
5.06
3.86
2.14
0.33
-1.11
-1.75
-1.40
-0.09
1.92
4.25
6.51
8.41
9.79
10.62
10.92
10.74
10.10
9.07
7.70
6.11
4.37
2.55
0.67
-1.19
-2.90
-4.25
-5.01
-5.01
-4.23
-2.77
-0.88
1.19
3.20
4.93
6.23
6.99
7.16
6.83
6.18
5.47
4.94
4.76
4.97
5.57
6.50
7.67
8.99
10.25
11.23
11.73
11.66
11.16
10.48
9.92
9.65
9.64
9.65
9.38
8.60
7.23
5.34
3.10
0.75
-1.43
-3.15
-4.08
-4.02
-2.92
-1.01
1.33
3.61
5.40
6.46
6.68
6.13
4.93
3.26
1.27
-0.84
-2.86
-4.55
-5.76
-6.42
-6.58
-6.38
-6.04
-5.74
-5.61
-5.67
-5.91
-6.26
-6.75
-7.40
-8.26
-9.31
-10.38
-11.22
-11.49
-10.93
-9.44
-7.12
-4.27
-1.28
1.50
3.95
6.12
8.27
10.62
13.28
16.18
19.08
21.70
23.80
25.19
25.80
25.54
24.40
22.41
19.75
16.72
13.67
10.92
8.63
6.79
5.26
3.87
2.44
0.88
-0.85
-2.74
-4.71
-6.65
-8.47
-10.11
-11.57
-12.90
-14.14
-15.34
-16.42
-17.28
-17.73
-17.61
-16.75
-15.09
-12.65
-9.62
-6.27
-2.93
0.08
2.51
4.22
5.15
5.30
4.77
3.72
2.43
1.19
0.29
-0.14
-0.13
0.08
0.24
0.12
-0.35
-1.08
-1.89
-2.60
-3.11
-3.45
-3.73
-4.11
-4.73
-5.68
-7.00
-8.68
-10.60
-12.52
-14.09
-14.89
-14.59
-13.03
-10.33
-6.85
-3.08
0.46
3.33
5.25
6.10
5.92
4.90
3.36
1.67
0.20
-0.77
-1.14
-0.97
-0.46
0.11
0.49
0.51
0.12
-0.59
-1.53
-2.56
-3.55
-4.45
-5.23
-5.98
-6.84
-7.97
-9.48
-11.31
-13.20
-14.73
-15.46
-15.09
-13.59
-11.18
-8.25
-5.18
-2.25
0.37
2.60
4.35
5.53
6.06
5.97
5.36
4.44
3.47
2.63
2.04
1.65
1.38
1.15
0.92
0.73
0.63
0.63
0.68
0.63
0.36
-0.22
-1.09
-2.20
-3.49
-4.90
-6.40
-7.87
-9.12
-9.82
-9.66
-8.43
-6.18
-3.17
0.17
3.38
6.09
8.05
9.21
9.56
9.18
8.22
6.88
5.40
4.07
3.05
2.40
2.03
1.79
1.52
1.18
0.77
0.38
0.04
-0.31
-0.77
-1.43
-2.37
-3.60
-5.09
-6.83
-8.74
-10.64
-12.23
-13.11
-12.92
-11.46
-8.87
-5.56
-2.09
1.04
3.52
5.30
6.48
7.19
7.52
7.49
7.10
6.43
5.64
4.96
4.53
4.38
4.43
4.50
4.41
4.08
3.51
2.81
2.11
1.50
1.00
0.53
-0.06
-0.93
-2.19
-3.88
-5.86
-7.89
-9.60
-10.58
-10.55
-9.36
-7.15
-4.26
-1.14
1.78
4.20
6.00
7.18
7.81
7.93
7.61
6.92
6.01
5.11
4.43
4.09
4.07
4.20
4.22
3.94
3.28
2.31
1.15
-0.07
-1.29
-2.52
-3.77
-5.08
-6.45
-7.93
-9.59
-11.48
-13.57
-15.61
-17.23
-17.99
-17.60
-16.06
-13.62
-10.72
-7.84
-5.35
-3.50
-2.42
-2.19
-2.80
-4.14
-5.93
-7.74
-9.05
-9.37
-8.45
-6.25
-2.95
1.12
5.65
10.33
14.92
19.16
22.85
25.77
27.79
28.89
29.17
28.84
28.13
27.20
26.14
24.91
23.41
21.53
19.24
16.65
13.97
11.53
9.61
8.35
7.70
7.47
7.35
7.08
6.49
5.52
4.16
2.49
0.54
-1.58
-3.76
-5.84
-7.66
-9.09
-10.09
-10.64
-10.77
-10.54
-10.01
-9.26
-8.46
-7.79
-7.44
-7.51
-8.01
-8.73
-9.39
-9.70
-9.50
-8.83
-7.92
-7.08
-6.55
-6.38
-6.40
-6.34
-5.88
-4.82
-3.03
-0.48
2.79
6.67
10.92
15.12
18.75
21.31
22.50
22.37
21.25
19.66
18.08
16.77
15.80
15.04
14.35
13.64
12.91
12.18
11.46
10.69
9.81
8.76
7.55
6.27
5.01
3.84
2.74
1.68
0.56
-0.66
-2.01
-3.48
-5.10
-6.88
-8.78
-10.70
-12.42
-13.71
-14.34
-14.22
-13.40
-12.03
-10.31
-8.42
-6.52
-4.74
-3.18
-1.96
-1.14
-0.70
-0.56
-0.61
-0.74
-0.90
-1.02
-1.08
-1.03
-0.87
-0.64
-0.40
-0.25
-0.26
-0.49
-0.96
-1.68
-2.61
-3.70
-4.82
-5.82
-6.57
-7.00
-7.17
-7.19
-7.24
-7.46
-7.91
-8.59
-9.39
-10.12
-10.53
-10.39
-9.53
-7.96
-5.85
-3.50
-1.28
0.55
1.86
2.67
3.08
3.22
3.14
2.89
2.47
1.95
1.47
1.15
1.06
1.14
1.23
1.13
0.73
0.06
-0.75
-1.51
-2.10
-2.50
-2.77
-3.02
-3.36
-3.83
-4.47
-5.28
-6.28
-7.48
-8.85
-10.33
-11.79
-12.99
-13.68
-13.59
-12.60
-10.73
-8.23
-5.46
-2.82
-0.61
1.06
2.17
2.84
3.19
3.29
3.22
3.00
2.71
2.38
2.05
1.71
1.34
0.92
0.50
0.13
-0.14
-0.36
-0.68
-1.27
-2.25
-3.54
-4.96
-6.26
-7.26
-7.91
-8.26
-8.35
-8.18
-7.68
-6.76
-5.44
-3.80
-1.93
0.17
2.61
5.59
9.17
13.19
17.27
20.89
23.61
25.20
25.66
25.20
24.09
22.57
20.82
18.98
17.12
15.29
13.45
11.56
9.56
7.42
5.22
3.04
0.97
-0.95
-2.74
-4.47
-6.17
-7.80
-9.32
-10.62
-11.67
-12.49
-13.21
-14.01
-15.05
-16.39
-17.93
-19.45
-20.63
-21.14
-20.79
-19.54
-17.55
-15.14
-12.63
-10.30
-8.29
-6.65
-5.35
-4.34
-3.63
-3.19
-3.02
-3.00
-3.03
-2.97
-2.73
-2.33
-1.83
-1.30
-0.85
-0.54
-0.44
-0.60
-0.99
-1.53
-2.08
-2.48
-2.63
-2.58
-2.52
-2.66
-3.22
-4.25
-5.61
-7.01
-8.07
-8.50
-8.17
-7.15
-5.65
-3.98
-2.39
-1.04
0.04
0.90
1.63
2.21
2.56
2.52
1.99
1.00
-0.26
-1.49
-2.38
-2.68
-2.40
-1.70
-0.80
0.06
0.74
1.20
1.51
1.81
2.41
3.52
5.38
8.15
11.82
16.15
20.65
24.72
27.39
28.65
28.47
27.20
25.39
23.66
22.50
22.15
22.59
23.55
24.67
25.37
25.15
23.61
20.57
16.14
10.69
4.76
-1.13
-6.49
-11.13
-14.98
-18.10
-20.58
-22.55
-24.05
-25.12
-25.73
-25.77
-25.15
-23.78
-21.60
-18.62
-14.98
-10.93
-6.84
-3.11
-0.06
2.18
3.71
4.84
5.88
7.08
8.51
10.09
11.71
13.27
14.73
16.03
17.04
17.53
17.27
16.11
14.04
11.26
8.10
4.92
2.07
-0.24
-1.95
-3.16
-4.05
-4.86
-5.69
-6.56
-7.38
-8.05
-8.52
-8.87
-9.25
-9.85
-10.78
-12.08
-13.69
-15.46
-17.19
-18.58
-19.32
-19.15
-17.90
-15.57
-12.34
-8.57
-4.65
-0.97
2.14
4.45
5.82
6.24
5.81
4.77
3.45
2.23
1.40
1.10
1.31
1.84
2.43
2.84
2.95
2.77
2.37
1.91
1.49
1.14
0.79
0.32
-0.44
-1.59
-3.12
-4.89
-6.61
-7.91
-8.45
-8.01
-6.57
-4.32
-1.54
1.41
4.22
6.67
8.63
10.00
10.73
10.80
10.23
9.16
7.80
6.39
5.16
4.27
3.73
3.47
3.35
3.21
2.95
2.49
1.81
0.93
-0.11
-1.27
-2.51
-3.80
-5.12
-6.48
-7.89
-9.34
-10.70
-11.79
-12.34
-12.10
-10.97
-9.00
-6.43
-3.59
-0.81
1.64
3.60
4.95
5.57
5.39
4.41
2.81
0.87
-1.02
-2.54
-3.50
-3.85
-3.64
-2.98
-1.95
-0.63
0.92
2.59
4.26
5.81
7.10
8.03
8.53
8.52
8.00
7.03
5.78
4.48
3.47
3.08
3.52
4.87
6.96
9.47
11.98
14.11
15.61
16.36
16.36
15.66
14.34
12.56
10.52
8.50
6.81
5.64
5.04
4.90
5.00
5.15
5.17
5.00
4.62
4.03
3.26
2.33
1.31
0.24
-0.84
-1.98
-3.19
-4.49
-5.79
-6.90
-7.55
-7.51
-6.64
-5.02
-2.86
-0.53
1.59
3.17
3.97
3.93
3.06
1.55
-0.38
-2.42
-4.27
-5.70
-6.60
-7.06
-7.32
-7.67
-8.33
-9.34
-10.56
-11.70
-12.50
-12.84
-12.83
-12.74
-12.94
-13.79
-15.44
-17.84
-20.63
-23.26
-25.08
-25.51
-24.19
-21.13
-16.65
-11.33
-5.82
-0.68
3.69
7.09
9.50
11.08
12.11
13.02
14.22
15.98
18.31
20.94
23.38
25.13
25.84
25.50
24.36
22.85
21.41
20.33
19.65
19.17
18.49
17.21
15.05
11.95
8.09
3.87
-0.18
-3.54
-5.80
-6.79
-6.60
-5.59
-4.23
-3.00
-2.20
-1.90
-1.98
-2.25
-2.56
-2.90
-3.35
-3.94
-4.59
-5.14
-5.44
-5.44
-5.26
-5.11
-5.17
-5.48
-5.96
-6.45
-6.86
-7.17
-7.50
-7.95
-8.59
-9.36
-10.20
-11.01
-11.75
-12.34
-12.63
-12.41
-11.47
-9.69
-7.15
-4.15
-1.09
1.59
3.59
4.79
5.22
5.02
4.36
3.39
2.28
1.21
0.34
-0.17
-0.27
-0.00
0.51
1.06
1.48
1.65
1.54
1.15
0.56
-0.15
-0.95
-1.87
-2.99
-4.40
-6.11
-7.96
-9.59
-10.57
-10.52
-9.32
-7.15
-4.42
-1.70
0.58
2.18
3.05
3.31
3.08
2.48
1.58
0.51
-0.61
-1.61
-2.39
-2.99
-3.51
-4.16
-5.04
-6.16
-7.44
-8.75
-10.02
-11.24
-12.44
-13.64
-14.85
-16.05
-17.27
-18.58
-19.98
-21.36
-22.37
-22.58
-21.52
-18.98
-14.99
-9.91
-4.20
1.64
7.22
12.22
16.42
19.69
21.97
23.37
24.12
24.45
24.57
24.54
24.26
23.54
22.19
20.10
17.28
13.81
9.89
5.74
1.62
-2.26
-5.71
-8.67
-11.17
-13.30
-15.16
-16.73
-17.81
-18.05
-17.02
-14.40
-10.15
-4.61
1.61
7.74
13.11
17.33
20.28
22.13
23.13
23.50
23.36
22.79
21.84
20.66
19.43
18.30
17.33
16.40
15.28
13.76
11.76
9.39
6.95
4.79
3.21
2.35
2.11
2.20
2.19
1.62
0.22
-1.99
-4.60
-6.87
-8.00
-7.42
-5.01
-1.14
3.47
8.01
11.74
14.11
14.87
14.07
12.06
9.52
7.25
5.92
5.83
6.69
7.87
8.67
8.63
7.70
6.15
4.43
2.92
1.75
0.78
-0.33
-1.96
-4.35
-7.61
-11.58
-15.87
-19.96
-23.41
-26.04
-27.85
-28.92
-29.24
-28.66
-26.94
-23.86
-19.40
-13.94
-8.18
-2.76
1.98
6.09
9.71
12.23
12.59
10.08
5.07
-1.21
-7.18
-11.42
-13.10
-12.20
-9.38
-5.47
-1.17
3.06
6.84
9.80
11.60
12.19
11.82
10.99
10.30
10.10
10.31
10.47
10.15
9.09
7.44
5.69
4.36
3.86
4.25
5.31
6.65
7.89
8.80
9.32
9.50
9.34
8.94
8.35
7.78
7.45
7.54
8.10
8.98
9.85
10.24
10.07
9.26
7.97
6.55
5.36
4.58
4.19
3.94
3.55
2.84
1.78
0.55
-0.60
-1.51
-2.15
-2.59
-2.95
-3.28
-3.60
-4.04
-4.84
-6.34
-8.85
-12.42
-16.60
-20.55
-23.25
-23.90
-22.23
-18.60
-13.84
-8.88
-4.49
-1.11
1.16
2.41
2.83
2.61
1.97
1.12
0.25
-0.46
-0.93
-1.17
-1.29
-1.41
-1.61
-1.92
-2.31
-2.74
-3.21
-3.75
-4.45
-5.38
-6.57
-7.99
-9.58
-11.23
-12.81
-14.20
-15.32
-16.19
-16.96
-17.90
-19.33
-21.45
-24.27
-27.47
-30.55
-32.87
-33.86
-33.20
-30.91
-27.31
-22.95
-18.50
-14.50
-11.27
-8.89
-7.17
-5.81
-4.50
-3.03
-1.35
0.49
2.35
4.13
5.79
7.29
8.60
9.64
10.28
10.48
10.28
9.93
9.72
9.88
10.43
11.15
11.68
11.72
11.20
10.23
9.08
7.94
6.87
5.71
4.20
2.08
-0.76
-4.21
-7.97
-11.54
-14.35
-15.85
-15.70
-13.84
-10.59
-6.52
-2.32
1.41
4.31
6.22
7.18
7.29
6.72
5.65
4.27
2.82
1.48
0.38
-0.48
-1.13
-1.69
-2.23
-2.84
-3.58
-4.42
-5.31
-6.10
-6.61
-6.75
-6.50
-5.99
-5.37
-4.80
-4.36
-4.01
-3.70
-3.47
-3.46
-3.84
-4.75
-6.21
-8.01
-9.74
-10.79
-10.55
-8.63
-5.01
-0.04
5.70
11.58
17.07
21.87
25.89
29.07
31.29
32.36
32.23
31.08
29.36
27.61
26.34
26.01
26.63
27.64
28.26
27.85
26.26
23.72
20.78
17.98
16.17
15.79
16.54
17.68
18.50
18.61
17.88
16.32
14.10
12.16
11.17
11.00
11.00
10.77
10.38
10.26
10.77
12.03
14.72
18.95
23.94
28.74
33.07
37.45
42.43
47.99
47.19
36.41
18.26
-0.73
-15.43
-23.89
-26.63
-25.65
-23.59
-22.76
-23.39
-24.84
-26.61
-28.69
-31.10
-33.69
-36.06
-37.63
-37.76
-35.35
-30.20
-23.54
-17.44
-13.61
-12.65
-14.08
-16.77
-19.51
-21.06
-20.88
-19.40
-17.50
-15.85
-14.67
-13.93
-13.26
-12.42
-11.01
-8.85
-6.09
-3.08
-0.13
2.57
4.89
6.71
7.91
8.58
9.02
9.50
10.21
11.08
11.69
11.47
10.00
7.31
4.01
1.11
-0.56
-0.64
0.57
2.36
3.91
4.69
4.48
3.34
1.65
-0.39
-2.73
-5.34
-8.11
-10.70
-12.65
-13.58
-13.67
-12.89
-11.51
-9.83
-8.06
-6.18
-4.04
-1.52
1.35
4.31
7.02
9.11
10.35
10.74
10.51
9.79
8.75
7.48
5.97
4.28
2.47
0.73
-0.75
-1.82
-2.46
-2.78
-2.90
-2.94
-2.89
-2.73
-2.47
-2.17
-1.92
-1.82
-1.89
-2.10
-2.37
-2.64
-2.94
-3.35
-3.91
-4.57
-5.16
-5.42
-5.14
-4.20
-2.61
-0.56
1.65
3.72
5.40
6.54
7.14
7.31
7.22
7.02
6.82
6.62
6.35
5.96
5.44
4.86
4.32
3.90
3.57
3.23
2.79
2.23
1.61
1.02
0.52
0.05
-0.52
-1.31
-2.39
-3.69
-5.06
-6.35
-7.43
-8.25
-8.74
-8.87
-8.57
-7.81
-6.56
-4.93
-3.13
-1.45
-0.13
0.68
0.96
0.82
0.43
0.01
-0.28
-0.45
-0.62
-0.87
-1.26
-1.77
-2.39
-3.02
-3.48
-3.66
-3.63
-3.64
-3.90
-4.56
-5.59
-6.78
-7.67
-7.61
-6.05
-2.75
2.09
8.03
14.31
19.80
22.81
21.28
14.40
3.55
-8.57
-19.38
-27.34
-32.02
-33.76
-33.13
-30.56
-26.15
-20.03
-12.70
-5.06
1.88
7.36
11.02
13.10
14.27
15.52
17.67
21.08
25.53
30.26
34.56
37.34
37.91
36.12
32.41
27.52
22.05
16.36
10.52
4.62
-1.03
-5.78
-8.75
-9.28
-7.29
-3.42
1.15
5.16
7.75
8.67
8.22
6.94
5.25
3.34
1.09
-1.33
-3.68
-5.59
-6.71
-6.83
-6.07
-4.84
-3.65
-2.92
-2.79
-3.18
-3.86
-4.64
-5.52
-6.62
-8.09
-9.96
-12.15
-14.47
-16.83
-19.22
-21.64
-23.99
-25.97
-27.13
-27.05
-25.55
-22.77
-19.16
-15.27
-11.53
-8.21
-5.43
-3.25
-1.74
-0.91
-0.72
-0.99
-1.42
-1.70
-1.64
-1.23
-0.66
-0.18
-0.01
-0.25
-0.83
-1.59
-2.36
-3.07
-3.77
-4.58
-5.60
-6.89
-8.40
-10.02
-11.62
-13.11
-14.45
-15.65
-16.70
-17.56
-18.03
-17.90
-16.93
-15.02
-12.28
-9.01
-5.57
-2.32
0.56
3.04
5.21
7.12
8.65
9.65
10.00
9.79
9.28
8.83
8.69
8.98
9.58
10.21
10.52
10.25
9.29
7.67
5.55
3.17
0.89
-1.00
-2.39
-3.40
-4.31
-5.38
-6.83
-8.76
-11.09
-13.33
-14.95
-15.63
-15.25
-13.87
-11.57
-8.55
-5.14
-1.70
1.99
6.11
10.48
14.53
17.74
19.83
20.89
21.20
21.18
22.21
25.24
30.18
35.99
41.48
45.95
49.35
52.02
54.48
58.34
64.56
72.77
81.60
89.69
96.41
101.78
106.03
101.61
84.54
57.17
26.94
0.77
-18.48
-31.36
-39.88
-46.10
-51.24
-54.29
-53.77
-49.62
-43.09
-36.07
-30.23
-26.57
-25.33
-25.98
-26.72
-26.05
-23.61
-20.43
-17.63
-15.87
-15.27
-15.49
-16.00
-15.85
-14.53
-12.42
-10.45
-9.47
-9.83
-11.32
-13.43
-15.68
-17.49
-18.64
-19.29
-19.74
-20.12
-20.33
-20.20
-19.72
-19.19
-18.96
-19.37
-20.55
-22.25
-23.83
-24.50
-23.63
-20.92
-16.54
-10.94
-4.73
1.53
7.36
12.35
16.18
18.60
19.54
19.21
18.05
16.68
15.63
15.22
15.42
15.94
16.32
16.20
15.42
14.08
12.39
10.63
9.00
7.57
6.25
4.85
3.18
1.18
-1.05
-3.19
-4.90
-5.91
-6.13
-5.80
-5.40
-5.47
-6.32
-7.94
-10.00
-11.98
-13.27
-13.39
-12.06
-9.49
-6.08
-2.25
1.65
5.34
8.65
11.63
14.59
17.98
21.85
26.14
30.66
34.99
38.34
39.85
39.00
35.92
31.35
25.71
19.53
13.37
7.69
2.55
-2.27
-6.91
-11.37
-15.69
-20.76
-27.25
-35.02
-43.17
-50.53
-56.28
-60.10
-62.42
-59.62
-51.05
-39.77
-30.19
-24.39
-21.58
-19.80
-17.38
-13.51
-8.24
-2.73
2.21
6.66
11.26
16.44
21.91
26.63
30.33
32.78
33.55
32.83
31.46
30.49
30.56
31.53
32.91
34.27
35.29
35.55
34.89
33.46
31.31
29.00
26.51
23.75
20.82
17.90
15.02
12.21
9.46
6.78
4.23
1.80
-0.42
-2.25
-3.63
-4.73
-5.84
-7.25
-9.22
-11.85
-15.04
-18.34
-20.95
-22.01
-20.90
-17.55
-12.50
-6.77
-1.42
2.71
5.22
6.16
5.73
4.15
1.61
-1.62
-5.18
-8.55
-11.28
-13.12
-14.09
-14.51
-14.75
-15.05
-15.40
-15.57
-15.28
-14.42
-13.11
-11.71
-10.62
-10.20
-10.57
-11.63
-13.11
-14.71
-16.16
-17.32
-18.15
-18.71
-19.19
-19.78
-20.60
-21.60
-22.48
-22.73
-21.85
-19.47
-15.64
-10.71
-5.30
-0.01
4.70
8.54
11.33
12.95
13.38
12.82
11.63
10.35
9.43
9.12
9.34
9.85
10.34
10.65
10.75
10.74
10.69
10.64
10.56
10.43
10.20
9.82
9.21
8.27
6.97
5.33
3.48
1.59
-0.23
-1.99
-3.87
-6.11
-8.91
-12.23
-15.71
-18.69
-20.46
-20.44
-18.50
-14.95
-10.47
-5.84
-1.66
1.73
4.23
5.87
6.70
6.74
6.09
4.90
3.46
2.08
1.04
0.46
0.32
0.46
0.67
0.75
0.46
-0.35
-1.72
-3.59
-5.84
-8.31
-10.86
-13.31
-15.61
-17.91
-20.41
-23.14
-25.94
-28.63
-31.04
-33.00
-34.36
-35.02
-35.33
-35.50
-35.45
-34.79
-33.16
-30.46
-26.79
-22.49
-18.07
-14.73
-13.47
-14.68
-17.97
-22.79
-28.58
-34.61
-39.96
-43.46
-44.88
-44.35
-42.15
-38.56
-34.57
-31.52
-30.18
-30.09
-24.59
-10.15
11.53
35.50
57.58
74.70
84.80
87.09
82.24
72.44
59.73
46.62
33.52
21.71
11.99
4.47
-1.14
-5.23
-7.54
-8.09
-7.45
-5.33
-0.50
7.60
18.27
29.66
36.60
34.64
27.86
18.95
7.62
-4.25
-14.79
-22.84
-28.00
-30.27
-29.40
-25.53
-20.18
-14.83
-10.11
-6.62
-4.70
-4.37
-5.09
-5.69
-5.10
-3.53
-1.42
1.00
3.33
5.10
5.91
5.90
5.98
7.24
10.02
14.25
19.57
25.35
30.62
34.13
35.42
35.02
33.76
32.09
30.19
28.12
26.39
25.42
24.70
24.24
24.59
25.82
27.52
29.07
30.00
31.08
33.03
34.90
36.41
38.06
39.99
42.02
43.74
44.65
45.56
46.95
47.17
45.76
43.71
41.97
41.26
41.95
36.42
21.23
7.85
-0.37
-6.69
-11.84
-16.07
-19.40
-21.92
-23.77
-23.94
-21.87
-19.49
-17.85
-16.85
-16.44
-16.49
-16.72
-16.77
-15.33
-11.75
-7.71
-4.59
-2.98
-3.16
-5.04
-8.17
-12.01
-15.52
-18.06
-20.43
-23.13
-25.99
-28.40
-29.60
-29.07
-26.78
-22.96
-18.17
-13.58
-9.91
-7.22
-4.78
-1.68
2.73
8.50
15.26
22.48
29.41
35.45
37.53
33.41
23.09
9.12
-4.97
-16.43
-23.66
-26.15
-24.51
-20.17
-14.55
-8.82
-3.84
0.23
3.12
4.63
4.66
3.11
0.08
-3.78
-7.59
-10.65
-12.23
-12.15
-10.64
-8.25
-5.77
-3.92
-3.03
-3.04
-3.73
-4.78
-5.94
-6.93
-7.50
-7.75
-7.59
-6.97
-5.88
-4.30
-2.20
0.34
3.15
5.97
8.40
10.15
11.10
11.46
11.61
11.86
12.21
12.32
11.67
9.77
6.70
2.83
-1.13
-4.40
-6.44
-7.14
-6.82
-6.02
-5.29
-4.89
-4.89
-5.13
-5.43
-5.69
-5.97
-6.40
-7.06
-7.88
-8.71
-9.41
-9.89
-10.21
-10.48
-10.78
-11.12
-11.37
-11.38
-11.02
-10.28
-9.28
-8.21
-7.28
-6.60
-6.18
-5.91
-5.66
-5.32
-4.87
-4.32
-3.62
-2.68
-1.30
0.65
3.18
6.10
9.10
11.88
14.24
16.09
17.41
18.17
18.34
17.91
16.98
15.78
14.55
13.46
12.51
11.59
10.58
9.44
8.25
7.15
6.20
5.38
4.58
3.71
2.79
1.91
1.22
0.81
0.65
0.64
0.66
0.57
0.29
-0.23
-0.99
-1.95
-2.98
-3.91
-4.58
-4.87
-4.80
-4.47
-4.00
-3.47
-2.84
-2.03
-0.95
0.41
1.95
3.59
5.22
6.84
8.44
10.02
11.49
12.68
13.41
13.55
13.09
12.12
10.78
9.22
7.51
5.65
3.60
1.38
-0.96
-3.32
-5.63
-7.93
-10.33
-12.97
-15.85
-18.80
-21.50
-23.56
-24.77
-25.14
-24.93
-24.45
-23.92
-23.39
-22.78
-22.00
-21.09
-20.11
-19.17
-18.29
-17.40
-16.43
-15.32
-14.11
-12.86
-11.58
-10.18
-8.57
-6.77
-4.95
-3.39
-2.40
-2.12
-2.43
-3.03
-3.56
-3.75
-3.52
-3.01
-2.51
-2.28
-2.49
-3.10
-3.92
-4.69
-5.19
-5.32
-5.13
-4.74
-4.28
-3.80
-3.31
-2.79
-2.27
-1.86
-1.70
-1.95
-2.69
-3.92
-5.49
-7.22
-8.87
-10.22
-11.11
-11.47
-11.29
-10.63
-9.60
-8.36
-7.07
-5.88
-4.84
-3.91
-2.94
-1.82
-0.44
1.17
2.91
4.62
6.14
7.36
8.25
8.80
9.08
9.17
9.15
9.07
8.96
8.80
8.58
8.32
8.05
7.77
7.46
7.07
6.54
5.91
5.27
4.77
4.53
4.58
4.84
5.13
5.29
5.21
4.93
4.57
4.24
3.98
3.68
3.19
2.41
1.38
0.32
-0.51
-0.94
-1.02
-1.02
-1.31
-2.18
-3.68
-5.65
-7.71
-9.47
-10.65
-11.09
-10.82
-9.95
-8.60
-6.92
-5.05
-3.13
-1.27
0.40
1.80
2.85
3.50
3.70
3.41
2.66
1.54
0.26
-0.92
-1.77
-2.20
-2.23
-2.01
-1.72
-1.53
-1.53
-1.76
-2.24
-2.96
-3.87
-4.87
-5.82
-6.58
-6.99
-6.98
-6.56
-5.84
-4.98
-4.10
-3.24
-2.31
-1.13
0.50
2.75
5.59
8.89
12.35
15.62
18.38
20.38
21.47
21.68
21.14
20.13
18.94
17.77
16.71
15.67
14.52
13.16
11.66
10.22
9.10
8.52
8.53
9.07
9.99
11.19
12.63
14.31
16.16
18.06
19.79
21.11
21.89
22.03
21.53
20.44
18.86
16.91
14.76
12.60
10.53
8.60
6.77
4.97
3.23
1.67
0.44
-0.38
-0.89
-1.35
-2.06
-3.20
-4.72
-6.42
-8.03
-9.41
-10.57
-11.62
-12.65
-13.60
-14.28
-14.44
-13.90
-12.60
-10.61
-8.06
-5.21
-2.37
0.06
1.73
2.41
2.15
1.24
0.06
-1.05
-1.96
-2.72
-3.48
-4.40
-5.56
-6.95
-8.49
-10.02
-11.36
-12.28
-12.53
-11.95
-10.52
-8.39
-5.84
-3.24
-0.86
1.09
2.56
3.57
4.20
4.52
4.64
4.65
4.63
4.65
4.77
4.98
5.21
5.42
5.56
5.59
5.56
5.46
5.30
5.08
4.79
4.41
3.97
3.44
2.81
2.07
1.27
0.47
-0.23
-0.78
-1.22
-1.68
-2.28
-3.09
-4.05
-4.92
-5.42
-5.31
-4.49
-3.09
-1.34
0.45
2.06
3.35
4.30
4.93
5.26
5.34
5.21
4.95
4.65
4.40
4.24
4.13
4.03
3.89
3.70
3.48
3.26
3.05
2.79
2.41
1.87
1.17
0.37
-0.52
-1.51
-2.64
-3.96
-5.47
-7.11
-8.76
-10.29
-11.59
-12.58
-13.22
-13.49
-13.33
-12.74
-11.73
-10.37
-8.78
-7.10
-5.53
-4.30
-3.60
-3.49
-3.92
-4.71
-5.60
-6.34
-6.75
-6.76
-6.47
-6.00
-5.50
-5.14
-5.10
-5.49
-6.36
-7.62
-9.01
-10.27
-11.01
-10.84
-9.56
-7.21
-4.11
-0.85
1.96
4.38
6.43
8.41
10.90
14.30
18.47
22.73
26.15
28.05
28.52
27.92
26.82
25.70
24.77
23.99
23.17
22.21
21.09
19.85
18.36
16.39
13.62
9.82
5.02
-0.38
-5.71
-10.25
-13.48
-15.34
-16.05
-16.06
-15.81
-15.61
-15.61
-15.80
-16.08
-16.31
-16.38
-16.21
-15.73
-15.01
-14.16
-13.37
-12.76
-12.35
-12.08
-11.87
-11.70
-11.63
-11.73
-12.01
-12.33
-12.46
-12.19
-11.43
-10.34
-9.20
-8.28
-7.77
-7.66
-7.81
-8.05
-8.27
-8.42
-8.50
-8.50
-8.36
-8.00
-7.37
-6.49
-5.46
-4.42
-3.47
-2.64
-1.88
-1.05
0.02
1.43
3.20
5.22
7.33
9.32
11.00
12.20
12.85
12.95
12.58
11.87
10.97
10.01
9.09
8.32
7.78
7.51
7.49
7.63
7.80
7.89
7.82
7.61
7.25
6.71
5.92
4.77
3.23
1.35
-0.75
-2.90
-4.94
-6.79
-8.37
-9.65
-10.62
-11.34
-11.88
-12.39
-12.98
-13.67
-14.36
-14.90
-15.20
-15.24
-15.13
-14.99
-14.90
-14.88
-14.88
-14.84
-14.73
-14.47
-13.95
-12.98
-11.33
-8.88
-5.65
-1.87
2.12
5.95
9.33
12.08
14.12
15.44
16.08
16.10
15.62
14.79
13.75
12.64
11.58
10.63
9.83
9.15
8.49
7.74
6.81
5.67
4.38
3.04
1.69
0.32
-1.13
-2.71
-4.42
-6.16
-7.83
-9.36
-10.76
-12.06
-13.20
-13.98
-14.09
-13.21
-11.19
-8.14
-4.42
-0.52
3.08
6.07
8.35
9.95
11.02
11.70
12.09
12.23
12.14
11.84
11.40
10.89
10.36
9.80
9.13
8.30
7.29
6.16
5.02
3.96
2.97
1.96
0.80
-0.56
-2.08
-3.63
-5.09
-6.37
-7.46
-8.34
-8.89
-8.94
-8.29
-6.84
-4.64
-1.92
1.04
3.96
6.64
8.95
10.78
12.01
12.54
12.34
11.51
10.26
8.87
7.60
6.58
5.84
5.27
4.76
4.15
3.35
2.33
1.09
-0.31
-1.79
-3.26
-4.62
-5.79
-6.75
-7.52
-8.14
-8.61
-8.93
-9.06
-8.92
-8.44
-7.53
-6.16
-4.32
-2.08
0.39
2.90
5.22
7.15
8.57
9.45
9.86
9.90
9.72
9.39
8.99
8.55
8.08
7.58
7.04
6.48
5.92
5.43
5.06
4.82
4.66
4.44
4.00
3.21
2.05
0.55
-1.17
-2.96
-4.68
-6.20
-7.38
-8.07
-8.18
-7.68
-6.65
-5.24
-3.65
-2.05
-0.51
0.93
2.32
3.66
4.93
6.09
7.08
7.89
8.52
9.05
9.55
10.09
10.63
11.03
11.12
10.74
9.88
8.64
7.26
5.97
4.90
4.08
3.38
2.66
1.77
0.68
-0.60
-1.95
-3.20
-4.10
-4.46
-4.13
-3.11
-1.56
0.27
2.12
3.80
5.18
6.21
6.84
7.03
6.78
6.19
5.43
4.74
4.30
4.18
4.29
4.47
4.52
4.36
4.00
3.53
3.06
2.65
2.27
1.87
1.36
0.69
-0.14
-1.12
-2.19
-3.28
-4.26
-4.99
-5.29
-5.08
-4.32
-3.11
-1.63
-0.12
1.22
2.26
2.96
3.37
3.56
3.58
3.46
3.20
2.83
2.42
2.05
1.78
1.58
1.35
0.95
0.38
-0.29
-0.83
-1.08
-0.98
-0.67
-0.39
-0.38
-0.75
-1.47
-2.38
-3.30
-4.08
-4.64
-4.89
-4.75
-4.19
-3.25
-2.05
-0.83
0.21
0.93
1.32
1.48
1.49
1.44
1.32
1.12
0.86
0.59
0.37
0.25
0.20
0.14
-0.00
-0.27
-0.63
-1.01
-1.33
-1.54
-1.68
-1.84
-2.11
-2.54
-3.15
-3.86
-4.60
-5.27
-5.78
-6.03
-5.93
-5.41
-4.51
-3.33
-2.08
-0.98
-0.21
0.18
0.24
0.11
-0.08
-0.26
-0.42
-0.60
-0.86
-1.16
-1.46
-1.66
-1.71
-1.66
-1.60
-1.65
-1.87
-2.27
-2.77
-3.26
-3.69
-4.08
-4.49
-4.97
-5.54
-6.10
-6.55
-6.81
-6.82
-6.62
-6.24
-5.75
-5.15
-4.50
-3.82
-3.19
-2.72
-2.48
-2.53
-2.87
-3.43
-4.13
-4.87
-5.59
-6.22
-6.70
-6.96
-6.90
-6.46
-5.60
-4.36
-2.87
-1.32
0.09
1.20
1.94
2.32
2.40
2.25
1.93
1.52
1.09
0.77
0.66
0.85
1.33
2.00
2.76
3.46
4.02
4.43
4.68
4.80
4.77
4.54
4.07
3.34
2.41
1.43
0.55
-0.09
-0.46
-0.65
-0.79
-1.00
-1.34
-1.77
-2.22
-2.65
-3.07
-3.56
-4.15
-4.86
-5.61
-6.30
-6.75
-6.86
-6.61
-6.08
-5.39
-4.69
-4.06
-3.48
-2.84
-2.06
-1.09
-0.01
1.01
1.79
2.21
2.26
2.05
1.72
1.41
1.19
1.03
0.91
0.75
0.52
0.19
-0.20
-0.62
-1.05
-1.45
-1.82
-2.17
-2.53
-2.97
-3.53
-4.25
-5.11
-6.04
-6.89
-7.51
-7.70
-7.35
-6.44
-5.06
-3.36
-1.59
0.07
1.42
2.40
3.02
3.34
3.45
3.41
3.27
3.06
2.85
2.68
2.62
2.67
2.71
2.64
2.32
1.77
1.10
0.51
0.18
0.12
0.22
0.24
-0.09
-0.89
-2.15
-3.68
-5.22
-6.51
-7.35
-7.62
-7.28
-6.36
-4.91
-3.08
-1.06
0.94
2.66
3.95
4.74
5.11
5.22
5.25
5.32
5.43
5.49
5.44
5.24
4.96
4.73
4.65
4.76
4.96
5.09
4.95
4.46
3.66
2.69
1.71
0.86
0.19
-0.36
-0.88
-1.47
-2.18
-3.00
-3.86
-4.68
-5.37
-5.84
-5.99
-5.68
-4.82
-3.37
-1.45
0.73
2.88
4.75
6.18
7.11
7.60
7.75
7.66
7.46
7.21
6.96
6.74
6.52
6.32
6.12
5.93
5.76
5.59
5.39
5.12
4.78
4.37
3.94
3.49
3.01
2.51
1.96
1.36
0.70
-0.03
-0.88
-1.90
-3.06
-4.30
-5.42
-6.19
-6.36
-5.78
-4.47
-2.59
-0.40
1.80
3.78
5.37
6.51
7.19
7.47
7.41
7.12
6.72
6.30
5.96
5.76
5.70
5.77
5.88
5.96
5.93
5.75
5.44
5.04
4.60
4.13
3.59
2.98
2.27
1.51
0.75
0.02
-0.66
-1.33
-2.03
-2.79
-3.65
-4.62
-5.64
-6.60
-7.30
-7.56
-7.22
-6.28
-4.82
-3.03
-1.09
0.82
2.57
4.05
5.11
5.68
5.73
5.36
