1653136844.00
64.000000
-0.00
-0.00
-0.00
-0.00
-0.00
-0.00
-0.00
-0.00
-0.00
-0.00
0.00
0.01
0.01
-0.00
-0.03
-0.05
-0.05
0.00
0.13
0.36
0.66
1.01
1.37
1.72
2.06
2.40
2.79
3.24
3.80
4.42
5.06
5.66
6.20
6.68
7.15
7.68
8.31
9.14
10.09
11.04
11.88
12.56
13.14
13.76
14.65
15.96
17.91
20.32
22.90
25.38
27.58
29.57
31.68
34.32
37.81
42.54
48.15
54.10
59.83
64.97
69.59
74.15
79.35
85.70
93.76
102.99
112.62
121.75
129.81
136.80
143.33
150.70
157.61
166.34
177.50
191.24
206.36
219.94
227.63
224.74
207.86
176.10
131.86
79.03
21.97
-36.05
-93.51
-150.19
-206.28
-261.56
-315.20
-365.66
-411.93
-453.20
-488.82
-517.96
-539.37
-551.45
-552.60
-541.74
-518.51
-483.87
-439.68
-388.46
-332.91
-275.57
-218.53
-163.35
-111.08
-62.34
-17.65
22.58
57.95
88.04
112.51
131.25
144.46
152.78
157.20
158.80
158.54
157.03
154.44
150.64
145.37
138.42
129.59
118.79
106.21
92.77
80.37
71.68
69.31
74.56
86.58
102.33
117.61
128.63
133.43
132.21
126.66
118.81
110.03
100.78
91.02
81.03
71.27
62.47
55.20
49.46
44.66
39.94
34.61
28.54
22.22
16.44
11.94
9.01
7.38
6.40
5.37
3.91
2.16
0.67
0.06
0.77
2.76
5.46
8.01
9.53
9.49
7.85
5.02
1.56
-1.95
-5.04
-7.28
-8.24
-7.61
-5.44
-2.28
0.83
2.77
2.88
1.27
-1.23
-3.56
-4.97
-5.37
-5.19
-5.03
-5.22
-5.65
-5.97
-5.92
-5.52
-5.06
-4.90
-5.24
-6.08
-7.14
-8.13
-8.74
-8.72
-7.84
-5.93
-3.00
0.68
4.56
7.96
10.29
11.26
10.96
9.76
8.05
6.14
4.17
2.23
0.44
-1.00
-1.87
-1.99
-1.34
-0.06
1.60
3.36
4.97
6.29
7.28
8.00
8.51
8.84
9.00
8.92
8.54
7.83
6.85
5.65
4.32
2.81
1.03
-1.09
-3.55
-6.20
-8.75
-10.79
-11.82
-11.48
-9.60
-6.35
-2.25
1.98
5.59
8.00
8.92
8.46
6.96
4.88
2.65
0.53
-1.38
-3.03
-4.39
-5.55
-6.74
-8.41
-11.14
-15.32
-20.85
-27.00
-32.50
-35.98
-36.48
-33.91
-29.04
-23.19
-17.66
-13.28
-10.22
-8.20
-6.88
-6.16
-6.31
-7.72
-10.48
-13.97
-16.97
-17.88
-15.54
-9.69
-1.14
8.43
17.23
23.94
28.13
30.05
30.34
29.57
27.99
25.56
22.20
18.09
13.35
8.67
4.80
2.14
0.60
-0.32
-1.27
-2.68
-4.56
-6.48
-7.82
-8.15
-7.38
-5.71
-3.49
-1.03
1.39
3.43
4.66
4.59
2.85
-0.63
-5.43
-10.72
-15.35
-18.19
-18.27
-15.09
-8.71
0.06
9.82
18.85
25.62
29.34
30.17
29.23
28.04
27.91
29.38
32.11
35.15
37.58
38.92
39.37
39.59
40.45
42.54
45.97
50.28
54.52
57.43
57.81
54.81
48.23
38.69
27.35
15.54
4.30
-5.94
-15.31
-24.23
-33.09
-41.98
-50.69
-58.74
-65.50
-70.22
-72.13
-70.71
-65.81
-57.93
-48.06
-37.59
-27.86
-19.89
-14.27
-11.17
-10.44
-11.76
-14.72
-18.80
-23.47
-28.23
-32.67
-36.54
-39.76
-42.39
-44.57
-46.53
-48.41
-50.29
-52.09
-53.62
-54.65
-54.99
-54.55
-53.36
-51.54
-49.17
-46.33
-43.00
-39.22
-35.14
-30.99
-27.04
-23.35
-19.63
-15.19
-9.21
-1.08
9.27
21.22
33.69
45.49
55.69
63.83
69.84
73.91
76.22
76.90
75.96
73.41
69.22
63.40
56.08
47.54
38.35
29.42
21.77
16.37
13.71
13.67
15.49
18.03
20.17
21.17
20.85
19.47
17.52
15.43
13.41
11.44
9.37
7.03
4.31
1.17
-2.23
-5.49
-7.94
-8.72
-7.11
-2.80
3.77
11.56
19.10
25.05
28.52
29.26
27.54
23.90
18.94
13.12
6.89
0.67
-5.09
-9.97
-13.70
-16.23
-17.73
-18.53
-18.96
-19.21
-19.34
-19.22
-18.78
-18.11
-17.47
-17.31
-17.97
-19.62
-22.08
-24.90
-27.60
-29.82
-31.51
-32.92
-34.42
-36.44
-39.24
-42.88
-47.10
-51.31
-54.62
-56.02
-54.66
-50.06
-42.35
-32.20
-20.65
-8.82
2.33
12.08
19.98
25.71
29.10
30.14
29.12
26.59
23.36
20.23
17.86
16.58
16.33
16.76
17.43
18.03
18.41
18.68
18.97
19.35
19.69
19.72
19.08
17.53
15.10
12.03
8.69
5.44
2.45
-0.32
-3.07
-6.07
-9.58
-13.74
-18.48
-23.44
-27.98
-31.15
-32.04
-30.00
-24.91
-17.27
-8.07
1.53
10.51
18.15
24.11
28.24
30.51
30.96
29.75
27.26
24.10
21.00
18.59
17.19
16.76
16.95
17.28
17.39
17.11
16.48
15.62
14.63
13.45
11.92
9.88
7.29
4.22
0.93
-2.29
-5.17
-7.62
-9.70
-11.63
-13.72
-16.27
-19.51
-23.46
-27.91
-32.30
-35.83
-37.56
-36.64
-32.67
-25.79
-16.74
-6.62
3.37
12.20
19.24
24.23
27.22
28.46
28.27
27.01
25.07
22.79
20.53
18.60
17.21
16.42
16.11
16.05
16.01
15.79
15.33
14.67
13.89
13.02
12.02
10.81
9.32
7.54
5.49
3.16
0.54
-2.43
-5.83
-9.73
-14.15
-18.98
-23.82
-28.01
-30.67
-30.93
-28.28
-22.75
-15.01
-6.10
2.86
10.98
17.71
22.77
26.00
27.27
26.56
24.03
20.18
15.72
11.45
7.98
5.58
4.19
3.52
3.21
2.98
2.69
2.31
1.82
1.15
0.13
-1.40
-3.52
-6.14
-8.99
-11.65
-13.79
-15.26
-16.21
-17.00
-18.12
-20.01
-22.90
-26.74
-31.13
-35.37
-38.50
-39.55
-37.74
-32.83
-25.21
-15.81
-5.80
3.74
12.07
18.87
24.06
27.65
29.64
30.05
29.05
27.05
24.65
22.52
21.12
20.63
20.87
21.44
21.93
22.08
21.89
21.53
21.20
21.00
20.78
20.24
19.00
16.89
13.97
10.57
7.17
4.20
1.89
0.17
-1.30
-3.04
-5.63
-9.48
-14.70
-21.01
-27.61
-33.39
-37.11
-37.80
-35.04
-29.11
-20.87
-11.50
-2.15
6.32
13.34
18.65
22.05
23.43
22.84
20.53
17.09
13.30
9.96
7.62
6.44
6.24
6.59
7.10
7.55
7.93
8.35
8.87
9.38
9.64
9.35
8.32
6.60
4.42
2.13
0.05
-1.69
-3.11
-4.38
-5.78
-7.57
-10.06
-13.48
-17.86
-22.95
-28.10
-32.39
-34.89
-35.02
-32.72
-28.48
-23.07
-17.26
-11.60
-6.37
-1.74
2.11
4.87
6.29
6.32
5.23
3.66
2.42
2.17
3.29
5.71
8.96
12.35
15.18
16.98
17.55
17.04
15.78
14.09
12.18
10.12
7.87
5.41
2.75
-0.05
-3.02
-6.35
-10.35
-15.26
-21.01
-26.97
-32.06
-34.96
-34.64
-30.75
-23.74
-14.80
-5.39
3.21
10.17
15.21
18.43
20.06
20.30
19.28
17.14
14.17
10.80
7.60
5.10
3.65
3.30
3.79
4.65
5.37
5.45
4.59
2.64
-0.28
-3.89
-7.73
-11.34
-14.33
-16.58
-18.23
-19.69
-21.51
-24.16
-27.86
-32.50
-37.46
-41.81
-44.43
-44.31
-40.88
-34.12
-24.68
-13.61
-2.18
8.55
17.82
25.25
30.71
34.19
35.73
35.40
33.46
30.28
26.42
22.41
18.68
15.51
13.01
11.21
10.05
9.44
9.21
9.13
8.87
8.13
6.66
4.38
1.40
-2.03
-5.59
-8.97
-11.94
-14.43
-16.58
-18.74
-21.37
-24.88
-29.32
-34.24
-38.67
-41.35
-41.18
-37.65
-31.04
-22.28
-12.68
-3.41
4.76
11.44
16.53
19.94
21.61
21.51
19.85
17.11
14.01
11.26
9.39
8.59
8.74
9.53
10.54
11.45
12.00
12.06
11.58
10.55
8.97
6.88
4.33
1.41
-1.74
-4.98
-8.19
-11.37
-14.66
-18.28
-22.48
-27.24
-32.17
-36.48
-39.11
-39.11
-35.92
-29.61
-20.86
-10.72
-0.28
9.48
17.87
24.39
28.70
30.62
30.27
28.07
24.78
21.28
18.32
16.33
15.33
15.05
15.11
15.21
15.22
15.14
14.98
14.66
14.01
12.82
10.94
8.35
5.23
1.90
-1.29
-4.12
-6.50
-8.59
-10.72
-13.26
-16.58
-20.73
-25.40
-29.81
-32.83
-33.38
-30.75
-24.95
-16.70
-7.24
2.15
10.47
17.16
22.05
25.17
26.54
26.17
24.23
21.14
17.58
14.33
12.06
11.02
11.07
11.75
12.50
12.95
12.94
12.54
11.94
11.26
10.51
9.58
8.27
6.38
3.81
0.62
-2.92
-6.36
-9.20
-11.00
-11.60
-11.20
-10.33
-9.77
-10.23
-12.11
-15.18
-18.51
-20.67
-20.09
-15.66
-7.10
4.83
18.67
32.63
45.21
55.50
63.22
68.59
72.05
74.13
75.40
76.46
77.84
79.79
82.16
84.29
85.26
84.25
81.00
75.94
70.14
64.91
61.27
59.63
59.67
60.61
61.54
61.74
60.89
59.01
56.36
53.25
49.93
46.58
43.30
40.15
37.18
34.36
31.68
29.24
27.27
26.18
26.35
27.95
30.68
33.75
35.96
35.96
32.56
24.92
12.74
-3.66
-23.40
-45.08
-66.96
-87.27
-104.54
-117.81
-126.77
-131.66
-133.05
-131.62
-127.97
-122.63
-116.08
-108.91
-101.80
-95.37
-90.06
-85.85
-82.35
-78.86
-74.80
-69.92
-64.46
-59.00
-54.23
-50.61
-48.32
-47.19
-46.82
-46.58
-45.69
-43.27
-38.47
-30.81
-20.41
-8.04
5.00
17.30
27.71
35.60
40.88
43.79
44.70
43.98
41.94
38.87
35.10
30.95
26.72
22.59
18.68
14.94
11.27
7.52
3.54
-0.73
-5.31
-10.12
-15.04
-20.00
-24.96
-29.93
-34.92
-39.84
-44.59
-49.14
-53.56
-57.96
-62.33
-66.31
-69.17
-69.89
-67.59
-61.91
-53.26
-42.73
-31.77
-21.69
-13.31
-6.90
-2.39
0.35
1.35
0.57
-1.84
-5.37
-9.10
-12.03
-13.33
-12.71
-10.40
-7.06
-3.45
-0.17
2.39
4.13
5.08
5.37
5.23
4.94
4.82
5.09
5.82
6.84
7.74
7.98
7.04
4.65
0.88
-3.70
-8.15
-11.37
-12.38
-10.63
-6.14
0.53
8.49
16.80
24.63
31.40
36.76
40.56
42.82
43.68
43.40
42.29
40.68
38.89
37.17
35.80
34.97
34.81
35.29
36.15
36.98
37.29
36.67
34.90
32.06
28.45
24.51
20.62
17.04
13.70
10.30
6.29
1.06
-5.86
-14.58
-24.73
-35.33
-44.97
-52.12
-55.61
-54.98
-50.71
-44.03
-36.54
-29.69
-24.37
-20.84
-18.93
-18.29
-18.64
-19.81
-21.67
-23.93
-26.15
-27.81
-28.45
-27.88
-26.24
-23.89
-21.30
-18.84
-16.70
-14.87
-13.25
-11.78
-10.45
-9.39
-8.72
-8.57
-8.93
-9.70
-10.74
-12.03
-13.70
-15.99
-19.11
-22.94
-26.87
-29.72
-30.11
-26.89
-19.56
-8.52
5.06
19.63
33.76
46.45
57.26
66.14
73.20
78.52
82.19
84.40
85.53
86.15
86.87
88.18
90.27
92.98
95.87
98.41
100.10
100.69
100.16
98.68
96.55
93.93
90.81
86.88
81.63
74.48
64.92
52.72
37.89
20.72
1.78
-18.04
-37.44
-54.81
-68.50
-77.20
-80.42
-78.62
-73.13
-65.69
-57.90
-50.82
-44.90
-40.17
-36.54
-34.06
-32.88
-33.14
-34.72
-37.19
-39.84
-41.89
-42.74
-42.18
-40.37
-37.77
-34.89
-32.14
-29.70
-27.59
-25.81
-24.45
-23.66
-23.61
-24.26
-25.35
-26.43
-27.09
-27.17
-26.83
-26.52
-26.79
-27.98
-30.04
-32.43
-34.23
-34.34
-31.81
-26.11
-17.33
-6.11
6.54
19.53
31.96
43.16
52.72
60.31
65.69
68.71
69.37
67.87
64.57
59.95
54.54
48.92
43.67
39.29
35.98
33.61
31.65
29.41
26.36
22.29
17.43
12.26
7.21
2.49
-1.97
-6.41
-11.07
-16.09
-21.51
-27.38
-33.71
-40.44
-47.27
-53.60
-58.61
-61.48
-61.70
-59.21
-54.49
-48.38
-41.83
-35.63
-30.30
-26.07
-22.94
-20.85
-19.70
-19.35
-19.56
-20.02
-20.35
-20.21
-19.35
-17.73
-15.47
-12.84
-10.14
-7.68
-5.68
-4.31
-3.61
-3.53
-3.96
-4.74
-5.73
-6.88
-8.18
-9.75
-11.76
-14.44
-17.92
-22.07
-26.38
-29.93
-31.61
-30.49
-26.09
-18.71
-9.24
1.05
10.99
19.78
27.03
32.73
36.96
39.77
41.15
41.15
39.95
37.97
35.77
33.91
32.80
32.58
33.09
33.96
34.80
35.26
35.25
34.84
34.25
33.73
33.40
33.18
32.84
31.98
30.21
27.21
22.77
16.90
9.91
2.45
-4.49
-9.76
-12.35
-11.75
-8.24
-2.81
3.12
8.18
11.46
12.63
11.83
9.41
5.60
0.54
-5.62
-12.57
-19.72
-26.31
-31.64
-35.27
-37.17
-37.67
-37.31
-36.67
-36.24
-36.28
-36.91
-38.04
-39.47
-40.94
-42.24
-43.24
-43.90
-44.31
-44.65
-45.23
-46.37
-48.31
-51.00
-53.89
-55.93
-55.77
-52.24
-44.76
-33.64
-20.01
-5.49
8.36
20.38
29.94
36.90
41.35
43.54
43.75
42.39
40.01
37.20
34.52
32.34
30.79
29.79
29.15
28.73
28.41
28.13
27.88
27.59
27.19
26.62
25.86
24.95
23.90
22.72
21.36
19.73
17.71
15.16
11.87
7.61
2.25
-4.09
-10.85
-17.07
-21.65
-23.68
-22.78
-19.15
-13.48
-6.59
0.75
7.96
14.56
20.04
23.83
25.47
24.83
22.22
18.42
14.33
10.75
8.20
6.90
6.92
8.29
11.03
15.01
19.86
24.91
29.29
32.20
33.11
31.90
28.88
24.67
20.01
15.59
11.89
9.07
7.03
5.42
3.86
2.03
-0.25
-2.96
-5.85
-8.48
-10.24
-10.49
-8.67
-4.52
1.75
9.43
17.41
24.46
29.51
31.93
31.60
28.91
24.49
19.10
13.39
7.90
2.99
-1.03
-3.97
-5.77
-6.60
-6.87
-7.13
-7.95
-9.69
-12.38
-15.72
-19.23
-22.48
-25.24
-27.58
-29.72
-31.89
-34.17
-36.39
-38.31
-39.73
-40.75
-41.75
-43.25
-45.65
-48.86
-52.19
-54.52
-54.68
-51.94
-46.30
-38.47
-29.53
-20.52
-12.05
-4.32
2.69
8.92
14.06
17.68
19.48
19.53
18.31
16.55
14.94
13.93
13.62
13.87
14.40
14.95
15.33
15.41
15.13
14.45
13.33
11.78
9.79
7.38
4.62
1.57
-1.66
-4.97
-8.34
-11.83
-15.56
-19.58
-23.70
-27.44
-30.05
-30.73
-28.91
-24.53
-18.04
-10.30
-2.25
5.32
11.88
17.14
20.93
23.10
23.61
22.56
20.26
17.22
14.02
11.13
8.81
7.07
5.75
4.59
3.42
2.17
0.86
-0.41
-1.59
-2.71
-3.87
-5.25
-6.94
-8.90
-10.97
-12.95
-14.74
-16.49
-18.52
-21.23
-24.89
-29.35
-33.99
-37.75
-39.54
-38.48
-34.28
-27.27
-18.29
-8.38
1.45
10.42
17.99
23.77
27.49
29.01
28.46
26.29
23.22
20.06
17.47
15.78
14.94
14.68
14.65
14.62
14.52
14.40
14.34
14.31
14.16
13.63
12.52
10.72
8.30
5.48
2.51
-0.35
-2.97
-5.34
-7.54
-9.81
-12.45
-15.74
-19.79
-24.37
-28.82
-32.11
-33.19
-31.32
-26.42
-19.08
-10.33
-1.26
7.22
14.58
20.51
24.88
27.53
28.42
27.68
25.67
22.98
20.18
17.74
15.83
14.44
13.45
12.80
12.48
12.50
12.76
13.04
13.03
12.47
11.29
9.59
7.64
5.65
3.73
1.88
-0.02
-2.11
-4.54
-7.45
-10.90
-14.82
-18.86
-22.29
-24.21
-23.73
-20.37
-14.30
-6.26
2.62
11.20
18.65
24.54
28.76
31.36
32.38
31.80
29.66
26.10
21.48
16.35
11.34
7.06
3.90
2.02
1.26
1.23
1.44
1.41
0.83
-0.40
-2.15
-4.19
-6.31
-8.39
-10.47
-12.66
-15.09
-17.85
-21.02
-24.67
-28.77
-33.09
-37.03
-39.67
-40.04
-37.45
-31.88
-23.99
-15.02
-6.34
0.97
6.32
9.61
11.07
11.01
9.76
7.65
5.02
2.32
-0.04
-1.73
-2.57
-2.57
-1.92
-0.90
0.16
1.03
1.54
1.66
1.40
0.83
-0.06
-1.27
-2.80
-4.62
-6.68
-8.96
-11.54
-14.63
-18.48
-23.11
-28.13
-32.67
-35.54
-35.65
-32.40
-25.97
-17.24
-7.49
2.01
10.35
17.00
21.82
24.79
26.00
25.65
24.06
21.67
19.01
16.51
14.45
12.96
12.02
11.52
11.30
11.13
10.82
10.16
9.06
7.52
5.65
3.58
1.46
-0.63
-2.66
-4.73
-7.02
-9.79
-13.35
-17.86
-23.18
-28.79
-33.76
-36.98
-37.47
-34.72
-28.85
-20.60
-11.10
-1.55
7.06
14.11
19.33
22.71
24.41
24.66
23.75
22.04
19.95
17.85
16.06
14.73
13.88
13.44
13.22
13.07
12.80
12.24
11.24
9.69
7.62
5.18
2.57
0.03
-2.32
-4.48
-6.60
-8.89
-11.61
-14.95
-19.01
-23.66
-28.46
-32.65
-35.29
-35.54
-32.92
-27.57
-20.24
-12.11
-4.36
2.07
6.69
9.45
10.53
10.25
8.90
6.75
4.05
1.10
-1.73
-4.14
-5.88
-6.88
-7.22
-7.09
-6.65
-5.96
-5.00
-3.68
-2.03
-0.16
1.63
3.02
3.73
3.63
2.74
1.07
-1.46
-5.04
-9.82
-15.66
-21.85
-27.23
-30.41
-30.25
-26.31
-18.93
-9.10
1.97
13.20
23.78
33.21
41.06
46.90
50.41
51.50
50.41
47.75
44.28
40.74
37.65
35.29
33.70
32.78
32.32
32.08
31.84
31.40
30.65
29.60
28.31
26.88
25.37
23.76
21.92
19.65
16.67
12.69
7.49
1.09
-6.11
-13.34
-19.50
-23.52
-24.61
-22.53
-17.70
-11.00
-3.56
3.48
9.27
13.22
15.08
14.90
12.97
9.81
6.03
2.29
-0.89
-3.16
-4.38
-4.62
-4.14
-3.31
-2.54
-2.10
-2.07
-2.25
-2.26
-1.71
-0.48
1.19
2.68
3.30
2.55
0.38
-2.88
-6.77
-10.89
-15.09
-19.31
-23.33
-26.66
-28.59
-28.58
-26.54
-23.02
-19.00
-15.50
-13.22
-12.40
-13.07
-15.21
-18.94
-24.30
-30.95
-38.06
-44.46
-49.04
-51.33
-51.59
-50.69
-49.48
-48.32
-46.92
-44.64
-41.04
-36.30
-31.24
-26.92
-24.06
-22.66
-22.11
-21.57
-20.66
-19.76
-19.93
-22.48
-28.28
-37.25
-48.24
-59.31
-68.31
-73.44
-73.71
-69.02
-60.08
-48.12
-34.59
-20.90
-8.15
3.05
12.63
20.82
27.98
34.23
39.42
43.36
46.14
48.33
50.91
54.81
60.36
67.09
73.81
79.20
82.37
83.18
82.19
80.29
78.32
76.79
75.91
75.69
76.01
76.60
76.97
76.48
74.58
71.14
66.57
61.78
57.70
54.87
53.20
51.99
50.40
47.84
44.16
39.62
34.58
29.28
23.83
18.38
13.25
9.00
6.19
5.09
5.44
6.48
7.19
6.59
4.06
-0.48
-6.61
-13.52
-20.24
-25.91
-29.95
-32.20
-32.87
-32.44
-31.44
-30.33
-29.45
-29.04
-29.37
-30.71
-33.26
-36.95
-41.27
-45.23
-47.59
-47.23
-43.50
-36.47
-26.84
-15.72
-4.28
6.54
16.13
24.08
30.15
34.16
36.05
35.99
34.39
31.90
29.25
27.03
25.58
24.91
24.75
24.72
24.46
23.70
22.31
20.26
17.58
14.30
10.57
6.55
2.52
-1.27
-4.68
-7.71
-10.55
-13.52
-16.95
-21.07
-25.78
-30.61
-34.77
-37.31
-37.46
-34.84
-29.68
-22.69
-14.80
-6.96
0.12
6.02
10.49
13.40
14.69
14.40
12.75
10.13
7.03
3.96
1.39
-0.35
-1.08
-0.80
0.31
1.89
3.46
4.56
4.90
4.41
3.31
1.90
0.47
-0.83
-2.06
-3.45
-5.29
-7.86
-11.30
-15.51
-20.06
-24.21
-26.99
-27.45
-24.93
-19.33
-11.16
-1.37
8.88
18.56
26.95
33.60
38.30
40.94
41.51
40.09
36.97
32.59
27.55
22.44
17.79
13.92
10.87
8.47
6.40
4.32
2.04
-0.51
-3.20
-5.86
-8.35
-10.63
-12.77
-14.88
-17.10
-19.57
-22.45
-25.89
-29.93
-34.37
-38.67
-41.99
-43.41
-42.16
-37.98
-31.26
-22.87
-13.96
-5.58
1.55
7.08
10.91
13.10
13.73
12.94
11.00
8.31
5.39
2.72
0.66
-0.63
-1.16
-1.11
-0.72
-0.26
0.00
-0.13
-0.74
-1.80
-3.22
-4.88
-6.74
-8.83
-11.19
-13.88
-16.93
-20.37
-24.24
-28.53
-33.02
-37.23
-40.38
-41.56
-40.02
-35.47
-28.27
-19.31
-9.72
-0.58
7.33
13.63
18.23
21.14
22.40
22.11
20.46
17.85
14.83
11.98
9.75
8.37
7.77
7.75
8.03
8.38
8.60
8.51
7.91
6.62
4.56
1.77
-1.55
-5.17
-8.83
-12.39
-15.83
-19.28
-22.91
-26.92
-31.27
-35.62
-39.31
-41.41
-41.05
-37.73
-31.51
-22.99
-13.13
-2.97
6.63
15.04
21.84
26.75
29.64
30.51
29.58
27.28
24.19
20.95
18.11
16.07
15.02
14.97
15.71
16.93
18.26
19.37
20.03
20.09
19.53
18.34
16.51
14.09
11.16
7.88
4.38
0.76
-2.95
-6.75
-10.52
-13.92
-16.42
-17.39
-16.41
-13.38
-8.62
-2.75
3.50
9.44
14.53
18.38
20.69
21.29
20.17
17.52
13.78
9.50
5.27
1.59
-1.29
-3.30
-4.55
-5.24
-5.57
-5.70
-5.78
-5.92
-6.23
-6.78
-7.67
-8.99
-10.85
-13.40
-16.75
-20.89
-25.58
-30.23
-34.03
-36.15
-35.99
-33.38
-28.61
-22.27
-15.03
-7.48
-0.11
6.63
12.27
16.32
18.40
18.44
16.75
13.96
10.82
7.97
5.72
4.08
2.87
1.83
0.84
-0.16
-1.11
-1.95
-2.69
-3.37
-4.06
-4.83
-5.80
-7.15
-9.18
-12.17
-16.18
-20.88
-25.46
-28.81
-29.90
-28.11
-23.45
-16.57
-8.41
0.01
7.90
14.68
19.91
23.28
24.57
23.85
21.43
17.95
14.10
10.50
7.50
5.23
3.59
2.42
1.54
0.84
0.22
-0.37
-1.02
-1.85
-3.03
-4.82
-7.45
-11.09
-15.73
-21.09
-26.59
-31.43
-34.74
-35.81
-34.23
-29.97
-23.39
-15.11
-5.88
3.45
12.12
19.38
24.68
27.70
28.43
27.21
24.60
21.35
18.13
15.45
13.58
12.57
12.32
12.60
13.12
13.58
13.72
13.36
12.38
10.76
8.51
5.60
1.96
-2.52
-7.86
-13.83
-19.92
-25.26
-28.88
-29.86
-27.64
-22.16
-13.89
-3.72
7.15
17.47
26.10
32.23
35.56
36.34
35.33
33.58
32.11
31.54
31.96
32.90
33.70
33.82
33.23
32.44
32.30
33.53
36.26
39.88
43.20
44.96
44.44
41.87
38.34
35.37
34.18
35.28
38.30
42.19
45.62
47.43
46.92
44.22
40.49
37.98
39.65
48.07
63.86
84.64
104.85
117.37
116.15
98.82
67.88
29.86
-7.41
-37.66
-58.06
-69.08
-73.03
-72.06
-67.12
-58.09
-44.70
-27.51
-8.08
11.27
28.21
40.90
48.34
50.41
47.76
41.64
33.59
24.95
16.54
8.60
1.12
-5.60
-10.74
-13.22
-12.35
-8.50
-3.17
1.48
3.64
2.62
-0.94
-5.53
-9.65
-12.57
-14.69
-17.24
-21.58
-28.54
-37.95
-48.77
-59.57
-69.20
-77.37
-84.70
-92.39
-101.59
-112.75
-125.36
-138.01
-148.83
-156.04
-158.38
-155.39
-147.35
-135.17
-120.15
-103.84
-87.89
-73.97
-63.58
-57.76
-56.69
-59.50
-64.27
-68.55
-70.17
-67.99
-62.39
-55.00
-48.07
-43.46
-41.94
-42.96
-44.93
-45.88
-44.13
-38.73
-29.65
-17.66
-3.97
10.07
23.28
34.77
43.93
50.34
53.78
54.28
52.25
48.53
44.29
40.72
38.66
38.34
39.31
40.58
40.95
39.42
35.54
29.81
23.73
19.66
20.18
27.19
41.13
60.51
82.18
102.29
117.49
125.93
127.64
124.08
117.27
108.83
99.47
89.10
77.44
64.62
51.59
39.81
30.69
24.81
21.62
19.64
17.14
12.91
6.62
-1.17
-9.50
-17.48
-24.60
-30.79
-36.28
-41.36
-46.15
-50.52
-53.99
-55.87
-55.47
-52.42
-46.84
-39.25
-30.27
-20.09
-8.31
5.85
22.99
42.85
64.02
84.32
101.44
113.81
121.01
123.74
123.34
121.07
117.71
113.40
107.83
100.67
91.88
81.84
71.21
60.71
50.83
41.66
32.99
24.44
15.68
6.64
-2.51
-11.42
-19.76
-27.34
-34.11
-40.12
-45.44
-50.09
-54.07
-57.39
-60.21
-62.75
-65.23
-67.64
-69.63
-70.57
-69.71
-66.60
-61.25
-54.21
-46.34
-38.57
-31.62
-25.87
-21.51
-18.52
-16.86
-16.38
-16.81
-17.73
-18.65
-19.14
-18.90
-17.90
-16.26
-14.28
-12.30
-10.65
-9.58
-9.19
-9.44
-10.17
-11.12
-12.09
-12.97
-13.80
-14.76
-16.09
-18.00
-20.57
-23.62
-26.66
-29.04
-30.08
-29.32
-26.70
-22.52
-17.35
-11.80
-6.40
-1.48
2.73
6.07
8.34
9.37
9.09
7.59
5.14
2.20
-0.72
-3.14
-4.73
-5.43
-5.40
-4.99
-4.59
-4.48
-4.73
-5.23
-5.77
-6.21
-6.66
-7.41
-8.85
-11.28
-14.73
-18.90
-23.30
-27.32
-30.37
-31.92
-31.57
-29.10
-24.62
-18.59
-11.82
-5.23
0.36
4.52
7.17
8.53
8.92
8.60
7.75
6.51
5.08
3.75
2.78
2.33
2.37
2.67
2.92
2.83
2.30
1.38
0.28
-0.74
-1.51
-1.99
-2.29
-2.59
-3.13
-4.09
-5.63
-7.85
-10.70
-13.96
-17.11
-19.49
-20.36
-19.26
-16.10
-11.32
-5.68
-0.09
4.75
8.39
10.76
11.96
12.19
11.62
10.40
8.66
6.58
4.38
2.31
0.58
-0.65
-1.41
-1.87
-2.29
-2.94
-4.01
-5.52
-7.36
-9.34
-11.30
-13.17
-15.01
-16.93
-19.10
-21.66
-24.74
-28.45
-32.78
-37.54
-42.30
-46.38
-49.09
-49.90
-48.70
-45.86
-42.15
-38.50
-35.70
-34.18
-33.93
-34.59
-35.49
-35.90
-35.08
-32.41
-27.45
-19.99
-10.14
1.72
14.90
28.45
41.27
52.28
60.61
65.70
67.43
66.00
61.88
55.72
48.19
39.97
31.63
23.62
16.21
9.45
3.31
-2.26
-7.13
-10.96
-13.26
-13.57
-11.64
-7.64
-2.11
4.16
10.33
15.71
19.87
22.59
23.85
23.71
22.31
19.89
16.79
13.43
10.27
7.66
5.82
4.75
4.27
4.12
4.04
3.83
3.44
2.86
2.15
1.34
0.43
-0.59
-1.77
-3.15
-4.85
-7.02
-9.84
-13.42
-17.63
-22.05
-25.93
-28.40
-28.73
-26.55
-22.00
-15.67
-8.39
-0.98
5.93
11.94
16.83
20.40
22.49
22.94
21.78
19.24
15.76
11.89
8.12
4.78
1.99
-0.30
-2.20
-3.87
-5.47
-7.13
-8.99
-11.10
-13.37
-15.58
-17.45
-18.75
-19.45
-19.75
-20.04
-20.61
-21.43
-22.00
-21.34
-18.32
-12.16
-2.81
8.92
21.51
33.22
42.50
48.30
50.19
48.26
43.13
35.92
28.17
21.58
17.56
16.70
18.57
21.93
25.25
27.35
27.74
26.53
24.16
21.04
17.37
13.30
8.98
4.69
0.74
-2.70
-5.69
-8.52
-11.58
-15.17
-19.33
-23.74
-27.76
-30.57
-31.45
-29.96
-26.21
-20.73
-14.39
-7.97
-2.01
3.20
7.55
10.92
13.11
13.94
13.41
11.75
9.44
7.02
4.95
3.46
2.56
2.13
1.91
1.65
1.12
0.17
-1.19
-2.83
-4.49
-5.92
-7.04
-8.01
-9.18
-11.01
-13.86
-17.75
-22.31
-26.73
-30.00
-31.14
-29.54
-25.15
-18.51
-10.60
-2.53
4.72
10.46
14.31
16.16
16.05
14.18
10.98
7.04
3.05
-0.35
-2.71
-3.96
-4.31
-4.18
-4.00
-4.06
-4.42
-4.99
-5.61
-6.23
-6.94
-7.99
-9.69
-12.31
-15.97
-20.52
-25.51
-30.19
-33.59
-34.72
-32.87
-27.91
-20.39
-11.45
-2.49
5.19
10.78
14.04
15.19
14.68
13.01
10.61
7.91
5.42
3.70
3.21
4.16
6.38
9.27
12.10
14.24
15.46
15.93
16.14
16.55
17.36
18.41
19.27
19.49
18.76
17.07
14.70
12.19
10.23
9.47
10.40
13.15
17.42
22.51
27.51
31.60
34.25
35.35
35.02
33.55
31.12
27.87
23.90
19.46
14.94
10.81
7.45
4.99
3.33
2.17
1.22
0.29
-0.63
-1.50
-2.26
-2.98
-3.81
-4.96
-6.67
-9.17
-12.72
-17.52
-23.63
-30.76
-38.15
-44.59
-48.70
-49.37
-46.12
-39.31
-29.93
-19.32
-8.68
1.08
9.38
15.82
20.11
22.08
21.83
19.84
16.89
13.83
11.34
9.67
8.72
8.07
7.27
6.02
4.20
1.93
-0.53
-2.91
-5.00
-6.77
-8.39
-10.18
-12.52
-15.68
-19.75
-24.46
-29.20
-33.05
-35.01
-34.28
-30.55
-24.17
-16.04
-7.41
0.60
7.22
12.19
15.54
17.41
17.83
16.77
14.30
10.73
6.70
3.01
0.33
-1.02
-1.18
-0.64
-0.01
0.21
-0.20
-1.18
-2.49
-3.89
-5.18
-6.35
-7.54
-9.00
-11.06
-13.98
-17.81
-22.32
-26.91
-30.71
-32.82
-32.57
-29.72
-24.60
-17.96
-10.78
-3.96
1.80
6.18
9.09
10.67
11.16
10.90
10.29
9.72
9.51
9.86
10.77
12.10
13.59
15.00
16.10
16.76
17.00
16.89
16.55
16.04
15.35
14.34
12.83
10.65
7.63
3.69
-1.08
-6.38
-11.60
-15.90
-18.42
-18.49
-15.89
-10.94
-4.33
3.05
10.38
17.04
22.53
26.40
28.26
27.82
25.08
20.42
14.58
8.46
2.85
-1.75
-5.18
-7.60
-9.25
-10.31
-10.86
-10.91
-10.51
-9.83
-9.17
-8.85
-9.10
-10.03
-11.66
-14.05
-17.24
-21.14
-25.36
-29.00
-30.88
-29.78
-25.00
-16.61
-5.47
7.09
19.77
31.65
42.27
51.45
59.10
65.08
69.29
71.81
73.02
73.53
73.98
74.77
75.94
77.17
77.99
78.04
77.21
75.65
73.66
71.52
69.38
67.23
64.97
62.41
59.39
55.67
50.99
45.11
38.04
30.20
22.44
15.88
11.45
9.53
9.78
11.32
13.10
14.36
14.72
14.20
12.95
11.11
8.71
5.87
2.83
0.04
-2.09
-3.37
-3.97
-4.45
-5.58
-8.01
-12.09
-17.66
-24.16
-30.77
-36.74
-41.62
-45.34
-48.18
-50.55
-52.83
-55.26
-57.96
-60.92
-64.01
-66.81
-68.62
-68.52
-65.68
-59.72
-51.01
-40.59
-29.90
-20.24
-12.47
-6.87
-3.30
-1.48
-1.19
-2.28
-4.56
-7.65
-10.97
-13.86
-15.73
-16.30
-15.64
-14.16
-12.38
-10.83
-9.83
-9.46
-9.60
-10.02
-10.53
-11.06
-11.65
-12.40
-13.38
-14.68
-16.40
-18.69
-21.74
-25.57
-29.87
-33.89
-36.53
-36.60
-33.36
-26.77
-17.56
-7.08
3.23
12.17
19.07
23.80
26.54
27.63
27.37
25.98
23.64
20.59
17.12
13.58
10.30
7.51
5.30
3.69
2.63
2.04
1.86
1.96
2.18
2.25
1.88
0.89
-0.77
-2.90
-5.17
-7.24
-8.87
-10.15
-11.37
-13.07
-15.68
-19.35
-23.69
-27.78
-30.36
-30.32
-27.04
-20.67
-12.08
-2.57
6.54
14.20
19.88
23.39
24.85
24.52
22.72
19.87
16.47
13.07
10.19
8.16
7.10
6.85
7.10
7.55
7.96
8.30
8.58
8.81
8.85
8.51
7.55
5.93
3.79
1.46
-0.79
-2.81
-4.64
-6.44
-8.36
-10.47
-12.83
-15.49
-18.50
-21.73
-24.81
-27.08
-27.73
-26.10
-22.02
-15.92
-8.68
-1.36
5.16
10.34
13.93
15.88
16.13
14.66
11.61
7.42
2.82
-1.31
-4.20
-5.51
-5.42
-4.50
-3.44
-2.77
-2.68
-3.06
-3.61
-4.11
-4.50
-4.92
-5.59
-6.70
-8.28
-10.16
-12.03
-13.61
-14.77
-15.60
-16.40
-17.53
-19.31
-21.85
-25.10
-28.82
-32.60
-35.88
-37.94
-38.03
-35.57
-30.32
-22.59
-13.19
-3.25
6.12
14.08
20.19
24.35
26.66
27.35
26.73
25.21
23.33
21.63
20.53
20.22
20.58
21.27
21.86
21.99
21.52
20.47
18.99
17.19
15.19
13.01
10.62
8.03
5.26
2.38
-0.48
-3.24
-5.86
-8.41
-10.98
-13.76
-16.91
-20.57
-24.77
-29.24
-33.42
-36.43
-37.33
-35.43
-30.48
-22.92
-13.70
-4.02
5.03
12.66
18.49
22.39
24.39
24.57
23.17
20.61
17.49
14.52
12.34
11.29
11.38
12.27
13.49
14.58
15.22
15.29
14.75
13.68
12.16
10.33
8.39
6.55
5.03
4.01
3.46
3.20
2.78
1.58
-1.06
-5.55
-11.81
-19.03
-25.85
-30.68
-32.22
-29.93
-24.11
-15.77
-6.19
3.46
12.32
19.85
25.68
29.54
31.30
31.07
29.26
26.52
23.58
21.06
19.27
18.22
17.73
17.54
17.46
17.47
17.58
17.80
18.04
18.11
17.75
16.81
15.23
13.09
10.56
7.76
4.73
1.33
-2.63
-7.40
-13.14
-19.78
-26.93
-33.80
-39.28
-42.18
-41.62
-37.33
-29.84
-20.33
-10.33
-1.22
6.11
11.33
14.57
16.07
16.06
14.69
12.14
8.77
5.13
1.79
-0.80
-2.50
-3.39
-3.69
-3.54
-2.97
-1.97
-0.63
0.83
2.01
2.53
2.22
1.17
-0.34
-1.98
-3.56
-5.10
-6.78
-8.86
-11.57
-15.07
-19.44
-24.53
-29.86
-34.56
-37.40
-37.14
-32.97
-24.91
-13.93
-1.64
10.21
20.25
27.79
32.72
35.33
35.96
34.91
32.49
29.11
25.35
21.81
18.94
16.90
15.47
14.27
12.87
11.08
8.95
6.76
4.83
3.31
2.14
1.07
-0.20
-1.89
-4.02
-6.44
-8.90
-11.19
-13.27
-15.31
-17.64
-20.65
-24.58
-29.34
-34.37
-38.69
-41.17
-40.79
-37.10
-30.36
-21.46
-11.70
-2.39
5.44
11.18
14.60
15.75
14.84
12.19
8.27
3.64
-1.10
-5.40
-8.86
-11.34
-12.95
-13.97
-14.75
-15.59
-16.65
-17.95
-19.39
-20.86
-22.30
-23.75
-25.33
-27.19
-29.40
-31.91
-34.52
-36.97
-39.11
-41.04
-43.14
-45.98
-49.96
-54.92
-59.97
-63.66
-64.47
-61.45
-54.60
-44.86
-33.81
-23.05
-13.73
-6.43
-1.12
2.58
5.28
7.63
10.24
13.55
17.72
22.54
27.54
32.13
35.91
38.70
40.63
41.97
42.99
43.79
44.32
44.40
43.84
42.53
40.47
37.74
34.50
30.90
27.13
23.38
19.73
16.19
12.55
8.51
3.91
-1.00
-5.44
-8.17
-7.93
-3.90
3.94
14.73
27.04
39.33
50.33
59.27
65.83
69.97
71.82
71.49
69.10
64.77
58.68
51.17
42.74
34.05
25.84
18.73
13.03
8.68
5.32
2.56
0.12
-2.03
-3.83
-5.26
-6.46
-7.78
-9.63
-12.26
-15.72
-19.90
-24.55
-29.39
-34.00
-37.76
-39.82
-39.38
-35.95
-29.63
-21.26
-12.14
-3.61
3.33
8.25
11.19
12.51
12.55
11.54
9.63
7.00
4.01
1.13
-1.08
-2.23
-2.14
-0.97
0.83
2.72
4.18
4.93
4.89
4.23
3.15
1.81
0.23
-1.63
-3.85
-6.45
-9.40
-12.73
-16.52
-20.89
-25.75
-30.63
-34.58
-36.39
-35.02
-29.99
-21.64
-11.10
0.15
10.65
19.42
25.99
30.34
32.62
33.03
31.78
29.12
25.51
21.54
17.92
15.23
13.81
13.61
14.28
15.27
16.05
16.31
15.92
15.00
13.71
12.23
10.63
8.90
6.96
4.73
2.11
-1.08
-5.10
-10.21
-16.51
-23.74
-31.09
-37.36
-41.24
-41.73
-38.48
-31.93
-23.22
-13.78
-5.00
2.02
6.74
8.98
8.96
7.02
3.62
-0.70
-5.29
-9.40
-12.31
-13.56
-13.19
-11.83
-10.55
-10.47
-12.39
-16.53
-22.56
-29.55
-36.56
-42.98
-48.57
-53.28
-56.97
-59.37
-60.30
-59.93
-58.72
-57.67
-58.24
-61.90
-69.51
-80.75
-94.03
-107.02
-117.47
-123.59
-125.21
-123.99
-122.84
-124.68
-131.41
-143.59
-160.88
-182.42
-205.39
-226.64
-243.38
-253.62
-256.02
-249.90
-235.63
-214.87
-190.03
-159.91
-122.90
-78.51
-28.37
24.98
79.69
134.74
189.21
241.54
294.55
349.50
403.86
451.27
485.31
503.32
507.42
503.00
496.64
501.25
526.72
575.60
641.96
715.41
786.09
846.52
891.30
873.49
764.76
570.82
333.92
105.40
-81.85
-218.92
-312.35
-374.12
-415.36
-436.73
-436.88
-417.80
-387.45
-356.48
-332.98
-320.14
-316.90
-319.70
-319.27
-308.46
-285.93
-256.84
-228.98
-208.13
-196.34
-192.81
-195.38
-198.10
-195.11
-182.60
-159.86
-128.74
-92.64
-56.30
-25.04
-3.26
8.97
14.78
18.30
22.23
26.79
30.26
30.57
26.84
20.65
15.06
13.33
16.70
23.60
30.56
34.12
32.32
25.46
15.72
5.88
-1.72
-6.09
-7.70
-7.79
-7.64
-7.83
-8.17
-7.96
-6.66
-4.22
-1.30
1.00
1.68
0.40
-2.31
-5.31
-7.48
-8.31
-8.02
-7.41
-7.23
-7.79
-8.78
-9.53
-9.40
-8.11
-5.93
-3.41
-1.21
0.26
0.87
0.82
0.39
-0.15
-0.69
-1.26
-1.99
-3.01
-4.34
-5.92
-7.67
-9.60
-11.77
-14.19
-16.67
-18.67
-19.49
-18.46
-15.29
-10.22
-3.98
2.54
8.55
13.58
17.45
20.12
21.52
21.56
20.24
17.76
14.59
11.31
8.48
6.43
5.22
4.70
4.59
4.63
4.63
4.50
4.20
3.73
3.07
2.18
1.06
-0.30
-1.83
-3.41
-4.87
-6.08
-7.02
-7.85
-8.84
-10.31
-12.50
-15.43
-18.88
-22.37
-25.28
-26.95
-26.87
-24.69
-20.36
-14.09
-6.35
2.18
10.65
18.20
24.10
27.88
29.49
29.18
27.53
25.15
22.61
20.31
18.36
16.65
14.94
12.96
10.59
7.90
5.14
2.55
0.28
-1.69
-3.53
-5.38
-7.28
-9.15
-10.87
-12.40
-13.88
-15.51
-17.45
-19.74
-22.22
-24.64
-26.74
-28.31
-29.11
-28.97
-27.82
-25.90
-23.78
-22.20
-21.66
-21.90
-21.75
-19.53
-13.80
-4.26
7.95
20.63
31.42
38.71
41.90
41.03
36.11
26.64
12.09
-7.32
-29.80
-52.05
-70.38
-82.22
-87.19
-86.94
-83.97
-80.16
-75.94
-70.63
-63.46
-54.60
-45.38
-37.59
-32.43
-29.90
-28.90
-28.15
-27.03
-25.93
-25.68
-26.67
-28.16
-28.26
-24.81
-16.48
-3.68
11.41
25.56
35.81
40.61
40.39
37.18
33.65
32.05
33.46
37.68
43.66
50.18
56.31
61.64
66.12
69.70
72.16
73.01
71.80
68.38
63.10
56.70
50.03
43.64
37.59
31.54
25.14
18.44
12.08
7.14
4.72
5.35
8.74
13.74
18.86
22.80
24.92
25.37
24.84
24.14
23.84
24.03
24.43
24.66
24.46
23.78
22.80
21.71
20.63
19.49
18.10
16.23
13.78
10.86
7.82
5.08
3.03
1.82
1.29
1.06
0.59
-0.57
-2.71
-5.87
-9.75
-13.82
-17.35
-19.59
-19.99
-18.38
-14.98
-10.41
-5.40
-0.64
3.45
6.62
8.78
9.88
9.94
9.05
7.49
5.66
3.96
2.70
1.94
1.55
1.30
0.98
0.51
-0.08
-0.76
-1.50
-2.32
-3.28
-4.38
-5.64
-7.05
-8.67
-10.58
-12.90
-15.70
-18.86
-22.05
-24.78
-26.49
-26.73
-25.28
-22.23
-17.91
-12.77
-7.30
-1.92
3.04
7.32
10.62
12.70
13.39
12.69
10.90
8.48
6.01
3.92
2.43
1.50
0.91
0.39
-0.26
-1.09
-2.04
-2.99
-3.80
-4.43
-4.92
-5.43
-6.15
-7.32
-9.11
-11.55
-14.43
-17.40
-19.88
-21.30
-21.20
-19.42
-16.17
-11.94
-7.36
-2.95
1.01
4.45
7.41
9.86
11.67
12.66
12.73
11.96
10.65
9.13
7.62
6.22
4.86
3.48
2.11
0.87
-0.14
-0.87
-1.40
-1.94
-2.71
-3.91
-5.64
-7.99
-10.99
-14.64
-18.75
-22.96
-26.66
-29.15
-29.83
-28.36
-24.81
-19.58
-13.34
-6.84
-0.81
4.17
7.65
9.32
9.08
7.04
3.59
-0.61
-4.77
-8.12
-10.12
-10.57
-9.58
-7.52
-4.90
-2.22
0.07
1.64
2.27
1.92
0.71
-1.08
-3.06
-4.98
-6.72
-8.38
-10.15
-12.12
-14.12
-15.72
-16.38
-15.62
-13.26
-9.45
-4.61
0.77
6.25
11.45
16.05
19.67
21.91
22.54
21.53
19.18
16.04
12.72
9.76
7.50
6.15
5.71
6.11
7.10
8.32
9.40
9.96
9.84
9.02
7.61
5.76
3.58
1.11
-1.64
-4.67
-7.94
-11.31
-14.52
-17.11
-18.54
-18.24
-15.87
-11.47
-5.45
1.45
8.44
14.84
20.20
24.25
26.84
27.92
27.53
25.89
23.39
20.53
17.79
15.49
13.73
12.43
11.39
10.39
9.27
7.99
6.53
5.00
3.48
2.08
0.83
-0.31
-1.46
-2.77
-4.35
-6.33
-8.81
-11.88
-15.51
-19.45
-23.17
-25.93
-26.98
-25.83
-22.40
-17.09
-10.64
-3.89
2.46
7.92
12.21
15.21
16.89
17.32
16.68
15.26
13.42
11.45
9.60
8.00
6.70
5.73
5.12
4.83
4.80
4.87
4.87
4.63
4.06
3.14
1.89
0.39
-1.30
-3.07
-4.82
-6.47
-8.05
-9.72
-11.71
-14.17
-16.98
-19.72
-21.74
-22.40
-21.26
-18.25
-13.66
-8.05
-2.04
3.74
8.78
12.69
15.21
16.23
15.84
14.29
11.98
9.42
7.08
5.31
4.27
3.87
3.88
4.05
4.15
4.11
3.92
3.59
3.05
2.24
1.15
-0.14
-1.42
-2.53
-3.41
-4.17
-5.01
-6.13
-7.63
-9.53
-11.75
-14.10
-16.33
-18.04
-18.79
-18.14
-15.87
-12.04
-7.04
-1.46
4.06
8.98
12.95
15.77
17.40
17.85
17.23
15.73
13.63
11.28
9.03
7.16
5.77
4.79
4.04
3.37
2.72
2.18
1.82
1.66
1.59
1.38
0.86
-0.05
-1.23
-2.52
-3.78
-4.99
-6.23
-7.69
-9.53
-11.86
-14.63
-17.62
-20.44
-22.56
-23.36
-22.37
-19.38
-14.57
-8.48
-1.91
4.34
9.61
13.47
15.72
16.34
15.51
13.53
10.88
8.11
5.74
4.10
3.28
3.13
3.38
3.73
3.99
4.03
3.79
3.26
2.46
1.47
0.39
-0.68
-1.68
-2.68
-3.76
-5.03
-6.57
-8.44
-10.68
-13.31
-16.24
-19.22
-21.76
-23.25
-23.13
-21.12
-17.32
-12.22
-6.51
-0.83
4.31
8.64
12.00
14.30
15.43
15.35
14.15
12.12
9.70
7.34
5.41
4.09
3.37
3.15
3.25
3.51
3.74
3.78
3.47
2.76
1.68
0.34
-1.15
-2.69
-4.27
-5.88
-7.56
-9.38
-11.40
-13.66
-16.08
-18.37
-20.07
-20.60
-19.47
-16.50
-11.88
-6.18
-0.16
5.46
10.12
13.53
15.56
16.25
15.66
13.95
11.38
8.32
5.27
2.72
1.04
0.34
0.46
1.04
1.65
2.01
1.98
1.62
1.03
0.28
-0.58
-1.58
-2.77
-4.16
-5.79
-7.68
-9.89
-12.42
-15.20
-17.96
-20.26
-21.56
-21.39
-19.49
-15.96
-11.19
-5.77
-0.33
4.60
8.63
11.53
13.16
13.49
12.63
10.82
8.43
5.90
3.62
1.88
0.81
0.33
0.24
0.29
0.23
-0.09
-0.73
-1.64
-2.72
-3.87
-5.04
-6.20
-7.44
-8.84
-10.59
-12.90
-15.86
-19.33
-22.86
-25.67
-26.94
-26.02
-22.76
-17.53
-11.07
-4.23
2.29
8.04
12.78
16.32
18.48
19.18
18.50
16.77
14.49
12.19
10.29
8.96
8.20
7.87
7.76
7.69
7.49
7.02
6.24
5.22
4.05
2.82
1.59
0.28
-1.22
-3.05
-5.35
-8.15
-11.38
-14.80
-17.92
-20.10
-20.68
-19.22
-15.68
-10.51
-4.45
1.66
7.19
11.79
15.33
17.72
18.89
18.72
17.24
14.75
11.77
8.89
6.57
5.02
4.14
3.75
3.62
3.60
3.57
3.39
2.90
1.99
0.67
-0.94
-2.71
-4.55
-6.52
-8.81
-11.55
-14.73
-18.10
-21.18
-23.37
-24.12
-23.01
-19.92
-15.06
-8.93
-2.24
4.29
10.02
14.56
17.69
19.39
19.75
18.92
17.18
14.94
12.64
10.71
9.41
8.74
8.53
8.45
8.22
7.62
6.58
5.14
3.41
1.55
-0.24
-1.80
-3.06
-4.14
-5.30
-6.94
-9.40
-12.76
-16.78
-20.84
-24.13
-25.81
-25.32
-22.49
-17.61
-11.32
-4.48
2.11
7.79
12.17
15.08
16.60
16.88
16.21
14.88
13.22
11.50
9.98
8.81
8.03
7.59
7.34
7.10
6.73
6.18
5.50
4.80
4.15
3.55
2.88
2.00
0.79
-0.84
-2.88
-5.33
-8.14
-11.21
-14.28
-16.93
-18.57
-18.63
-16.77
-13.01
-7.75
-1.67
4.47
10.06
14.70
18.20
20.48
21.53
21.41
20.28
18.48
16.45
14.62
13.33
12.68
12.52
12.61
12.71
12.65
12.40
11.96
11.28
10.28
8.83
6.87
4.42
1.62
-1.32
-4.20
-6.91
-9.49
-12.09
-14.87
-17.87
-20.86
-23.31
-24.49
-23.69
-20.54
-15.19
-8.37
-1.13
5.45
10.65
14.21
16.28
17.20
17.30
16.68
15.37
13.41
11.04
8.71
6.92
6.01
6.00
6.60
7.36
7.87
7.94
7.60
6.97
6.14
5.09
3.78
2.16
0.27
-1.79
-3.97
-6.32
-9.07
-12.46
-16.70
-21.71
-27.07
-32.04
-35.66
-37.07
-35.74
-31.71
-25.53
-18.13
-10.49
-3.42
2.60
7.40
10.95
13.27
14.33
14.21
13.12
11.46
9.75
8.43
7.77
7.77
8.24
8.90
9.49
9.83
9.81
9.39
8.56
7.35
5.85
4.17
2.40
0.60
-1.28
-3.34
-5.69
-8.46
-11.70
-15.35
-19.18
-22.73
-25.42
-26.60
-25.78
-22.76
-17.72
-11.23
-4.08
2.89
8.96
13.66
16.75
18.21
18.28
17.30
15.69
13.86
12.12
10.68
9.62
8.94
8.56
8.32
8.09
7.70
7.04
6.06
4.73
3.07
1.11
-1.09
-3.40
-5.68
-7.80
-9.74
-11.62
-13.76
-16.47
-19.94
-23.98
-28.02
-31.17
-32.50
-31.35
-27.59
-21.62
-14.32
-6.72
0.24
5.95
10.19
13.12
15.15
16.77
18.48
20.66
23.43
26.66
29.92
32.68
34.40
34.76
33.68
31.33
28.02
24.18
20.22
16.57
13.54
11.19
9.26
7.17
4.20
-0.15
-5.83
-12.22
-18.28
-23.03
-25.99
-27.41
-28.15
-29.23
-31.44
-34.93
-39.24
-43.44
-46.44
-47.30
-45.48
-40.88
-33.90
-25.30
-16.04
-7.05
0.92
7.40
12.11
14.95
15.87
15.02
12.76
9.73
6.74
4.54
3.58
3.85
4.98
6.45
7.84
8.98
9.95
10.91
11.97
13.15
14.31
15.31
16.00
16.28
16.08
15.36
14.10
12.33
10.15
7.76
5.39
3.30
1.65
0.46
-0.47
-1.55
-3.25
-5.88
-9.33
-13.03
-15.97
-17.08
-15.60
-11.39
-4.99
2.60
10.23
16.99
22.34
26.11
28.28
28.89
27.97
25.61
22.07
17.82
13.49
9.69
6.83
5.02
4.13
3.81
3.75
3.66
3.39
2.82
1.88
0.55
-1.17
-3.16
-5.27
-7.32
-9.22
-10.98
-12.70
-14.45
-16.27
-18.08
-19.78
-21.23
-22.28
-22.80
-22.62
-21.62
-19.82
-17.39
-14.67
-11.98
-9.42
-6.72
-3.25
1.69
8.41
16.59
25.16
32.74
38.09
40.60
40.43
38.26
34.95
31.14
27.27
23.69
20.86
19.32
19.42
21.05
23.48
25.62
26.50
25.73
23.68
21.23
19.39
18.73
19.23
20.34
21.30
21.45
20.43
18.13
14.68
10.32
5.43
0.41
-4.34
-8.52
-12.08
-15.22
-18.27
-21.50
-25.00
-28.52
-31.59
-33.59
-33.97
-32.42
-28.96
-23.95
-17.97
-11.76
-5.99
-1.16
2.47
4.82
6.00
6.24
5.76
4.85
3.75
2.63
1.60
0.75
0.12
-0.23
-0.28
-0.02
0.43
0.95
1.37
1.55
1.37
0.78
-0.21
-1.52
-3.05
-4.68
-6.35
-8.05
-9.90
-12.00
-14.39
-16.95
-19.35
-21.14
-21.82
-21.02
-18.60
-14.68
-9.61
-3.89
1.91
7.22
11.59
14.67
16.29
16.49
15.43
13.42
10.79
7.91
5.09
2.62
0.69
-0.60
-1.29
-1.52
-1.51
-1.51
-1.74
-2.36
-3.46
-5.02
-6.98
-9.22
-11.62
-14.06
-16.51
-19.03
-21.75
-24.75
-27.98
-31.17
-33.77
-35.10
-34.55
-31.78
-26.90
-20.46
-13.28
-6.27
-0.17
4.53
7.65
9.30
9.76
9.43
8.73
8.04
7.65
7.74
8.38
9.58
11.20
12.98
14.60
15.65
15.85
15.08
13.51
11.45
9.31
7.43
6.02
5.07
4.39
3.68
2.54
0.66
-2.15
-5.80
-9.92
-13.87
-16.93
-18.51
-18.26
-16.22
-12.76
-8.45
-3.92
0.28
3.77
6.36
8.07
9.05
9.57
9.92
10.39
11.18
12.40
14.12
16.36
19.09
22.16
25.18
27.59
28.77
28.21
25.74
21.57
16.20
10.23
4.22
-1.50
-6.76
-11.53
-15.85
-19.78
-23.37
-26.64
-29.55
-31.91
-33.39
-33.60
-32.14
-28.77
-23.50
-16.66
-8.85
-0.90
6.31
12.03
15.76
17.34
16.97
15.08
12.26
9.13
6.28
4.16
3.10
3.16
4.16
5.66
7.13
8.05
8.16
7.44
6.10
4.46
2.81
1.30
-0.06
-1.36
-2.75
-4.40
-6.46
-9.02
-12.02
-15.18
-17.98
-19.72
-19.75
-17.67
-13.54
-7.86
-1.49
4.63
9.78
13.53
15.83
16.84
16.79
15.89
14.34
12.31
10.04
7.81
5.90
4.50
3.70
3.45
3.63
4.07
4.59
4.97
5.05
4.69
3.90
2.75
1.38
-0.08
-1.59
-3.23
-5.10
-7.34
-10.01
-13.13
-16.60
-20.23
-23.63
-26.21
-27.29
-26.26
-22.87
-17.34
-10.38
-2.95
4.03
9.93
14.45
17.53
19.23
19.59
18.69
16.78
14.29
11.83
9.97
9.05
9.04
9.61
10.31
10.75
10.83
10.61
10.26
9.89
9.50
8.93
8.03
6.71
4.98
2.98
0.90
-1.12
-3.02
-4.81
-6.59
-8.48
-10.63
-13.17
-16.18
-19.61
-23.19
-26.38
-28.44
-28.62
-26.43
-21.82
-15.29
-7.72
-0.06
6.89
12.69
17.16
20.26
21.99
22.30
21.24
19.02
16.08
12.98
10.28
8.37
7.34
7.07
7.27
7.63
7.93
8.09
8.08
7.95
7.70
7.27
6.51
5.35
3.76
1.86
-0.18
-2.12
-3.85
-5.35
-6.69
-8.00
-9.41
-11.00
-12.83
-14.96
-17.37
-19.90
-22.20
-23.74
-23.94
-22.34
-18.82
-13.64
-7.41
-0.86
5.31
10.59
14.70
17.56
19.24
19.85
19.58
18.68
17.43
16.11
14.96
14.14
13.65
13.42
13.26
12.97
12.40
11.50
10.36
9.14
7.98
6.91
5.83
4.56
2.94
0.90
-1.44
-3.81
-5.91
-7.55
-8.73
-9.66
-10.70
-12.21
-14.36
-17.11
-20.10
-22.75
-24.32
-24.18
-21.98
-17.83
-12.23
-6.04
-0.09
4.96
8.80
11.43
12.97
13.57
13.28
12.20
10.47
8.37
6.23
4.31
2.76
1.64
1.01
0.99
1.74
3.30
5.43
7.64
9.28
9.76
8.77
6.36
2.87
-1.24
-5.48
-9.50
-13.03
-15.97
-18.29
-20.08
-21.54
-22.84
-24.01
-24.92
-25.21
-24.48
-22.39
-18.90
-14.27
-8.99
-3.66
1.22
5.32
8.45
10.57
11.64
11.66
10.73
9.02
6.88
4.73
2.98
1.94
1.73
2.28
3.31
4.46
5.34
5.68
5.37
4.50
3.23
1.72
0.12
-1.52
-3.20
-4.94
-6.77
-8.77
-11.05
-13.70
-16.67
-19.69
-22.24
-23.63
-23.23
-20.74
-16.28
-10.41
-3.97
2.24
7.65
12.01
15.31
17.61
18.85
18.92
17.68
15.23
11.94
8.45
5.36
3.12
1.83
1.28
1.15
1.17
1.18
1.13
1.00
0.70
0.13
-0.84
-2.25
-4.01
-5.94
-7.82
-9.55
-11.14
-12.77
-14.69
-17.03
-19.72
-22.32
-24.18
-24.59
-23.09
-19.58
-14.45
-8.36
-2.10
3.68
8.52
12.17
14.55
15.64
15.52
14.36
12.48
10.27
8.14
6.39
5.16
4.42
4.04
3.91
3.92
4.04
4.21
4.35
4.33
4.02
3.31
2.17
0.61
-1.26
-3.32
-5.43
-7.46
-9.34
-11.14
-13.02
-15.25
-18.02
-21.29
-24.70
-27.57
-29.07
-28.51
-25.55
-20.34
-13.48
-5.81
1.77
8.50
13.88
17.59
19.56
19.89
18.86
16.89
14.50
12.22
10.47
9.53
9.42
9.96
10.79
11.52
11.86
11.69
11.10
10.32
9.57
8.93
8.28
7.38
5.97
3.96
1.47
-1.19
-3.70
-5.83
-7.52
-8.94
-10.37
-12.09
-14.35
-17.21
-20.53
-23.86
-26.54
-27.75
-26.85
-23.55
-18.12
-11.25
-3.90
3.11
9.23
14.20
17.92
20.32
21.34
20.98
19.47
17.25
14.91
13.00
11.85
11.55
11.92
12.68
13.50
14.16
14.50
14.48
14.12
13.46
12.56
11.39
9.95
8.22
6.24
4.09
1.93
-0.11
-1.87
-3.29
-4.33
-5.07
-5.73
-6.68
-8.36
-11.06
-14.82
-19.28
-23.69
-27.13
-28.69
-27.84
-24.47
-18.98
-12.11
-4.76
2.22
8.19
12.74
15.71
17.13
17.21
16.24
14.56
12.50
10.36
8.38
6.80
5.83
5.63
6.28
7.72
9.78
12.19
14.67
17.00
19.00
20.55
21.50
21.69
21.04
19.52
17.28
14.44
11.11
7.22
2.57
-3.05
-9.69
-17.10
-24.72
-31.79
-37.56
-41.44
-43.08
-42.40
-39.53
-34.74
-28.43
-21.09
-13.32
-5.84
0.66
5.54
8.42
9.26
8.37
6.36
4.00
2.00
0.83
0.73
1.61
3.21
5.15
7.04
8.57
9.50
9.73
9.20
7.91
5.87
3.14
-0.11
-3.58
-6.93
-9.83
-12.13
-13.94
-15.54
-17.28
-19.45
-22.01
-24.65
-26.79
-27.78
-27.12
-24.67
-20.62
-15.46
-9.75
-3.98
1.52
6.52
10.79
14.05
16.06
16.70
16.15
14.81
13.17
11.66
10.51
9.74
9.28
9.04
8.97
9.03
9.11
9.08
8.76
8.01
6.77
5.10
3.12
0.94
-1.33
-3.64
-5.97
-8.37
-10.94
-13.78
-16.89
-20.12
-23.01
-24.90
-25.11
-23.15
-18.96
-13.00
-6.08
0.88
7.15
12.28
16.12
18.65
19.89
19.85
18.67
16.68
14.40
12.42
11.17
10.78
11.04
11.56
11.97
12.05
11.77
11.23
10.51
9.60
8.41
6.85
4.91
2.66
0.25
-2.19
-4.63
-7.13
-9.85
-12.90
-16.19
-19.28
-21.47
-21.95
-20.16
-16.01
-10.00
-3.04
3.88
9.97
14.79
18.23
20.39
21.36
21.23
20.12
18.22
15.86
13.39
11.15
9.36
8.13
7.43
7.20
7.26
7.37
7.31
6.89
6.03
4.79
3.31
1.73
0.13
-1.47
-3.07
-4.70
-6.44
-8.44
-10.89
-13.90
-17.30
-20.55
-22.80
-23.16
-21.06
-16.50
-10.06
-2.71
4.57
11.05
16.28
20.02
22.22
22.90
22.24
20.65
18.67
16.83
15.48
14.68
14.23
13.87
13.39
12.78
12.15
11.65
11.34
11.17
10.96
10.51
9.67
8.36
6.64
4.62
2.43
0.16
-2.17
-4.60
-7.24
-10.19
-13.47
-16.93
-20.16
-22.54
-23.32
-21.92
-18.16
-12.31
-5.12
2.44
9.43
15.15
19.22
21.51
22.13
21.29
19.30
16.61
13.69
11.04
9.04
7.83
7.37
7.40
7.64
7.84
7.87
7.70
7.33
6.76
5.96
4.89
3.54
2.01
0.41
-1.15
-2.64
-4.14
-5.82
-7.84
-10.36
-13.39
-16.81
-20.23
-23.06
-24.58
-24.14
-21.42
-16.57
-10.19
-3.17
3.60
9.45
14.04
17.25
19.11
19.69
19.10
17.52
15.27
12.76
10.38
8.46
7.15
6.44
6.18
6.16
6.18
6.06
5.67
4.97
3.99
2.80
1.52
0.26
-0.94
-2.09
-3.28
-4.61
-6.17
-8.08
-10.42
-13.25
-16.50
-19.84
-22.69
-24.23
-23.71
-20.70
-15.35
-8.40
-0.97
5.86
11.36
15.27
17.69
18.81
18.76
17.63
15.52
12.72
9.74
7.10
5.20
4.12
3.70
3.68
3.83
4.04
4.25
4.38
4.29
3.82
2.92
1.66
0.22
-1.21
-2.53
-3.76
-5.05
-6.61
-8.63
-11.18
-14.11
-17.03
-19.33
-20.32
-19.51
-16.72
-12.21
-6.60
-0.69
4.80
9.34
12.65
14.63
15.30
14.77
13.25
11.05
8.55
6.14
4.16
2.82
2.15
2.05
2.28
2.59
2.74
2.58
2.09
1.35
0.51
-0.34
-1.14
-1.98
-2.99
-4.33
-6.08
-8.27
-10.85
-13.67
-16.49
-18.91
-20.44
-20.60
-19.03
-15.71
-10.96
-5.37
0.37
5.62
9.94
13.11
15.03
15.71
15.17
13.53
11.02
8.08
5.20
2.87
1.39
0.76
0.73
0.89
0.87
0.45
-0.40
-1.54
-2.76
-3.89
-4.88
-5.75
-6.63
-7.69
-9.11
-10.96
-13.23
-15.68
-17.94
-19.52
-19.98
-19.03
-16.62
-12.91
-8.20
-2.88
2.51
7.41
11.19
13.39
13.82
12.69
10.61
8.28
6.34
5.08
4.43
4.12
3.84
3.40
2.78
2.04
1.24
0.36
-0.62
-1.74
-2.99
-4.30
-5.62
-6.98
-8.49
-10.33
-12.56
-15.06
-17.47
-19.25
-19.88
-19.02
-16.72
-13.34
-9.47
-5.73
-2.60
-0.34
1.01
1.59
1.66
1.51
1.41
1.53
1.94
2.51
3.02
3.21
2.88
1.99
0.59
-1.17
-3.11
-5.06
-6.90
-8.52
-9.92
-11.17
-12.43
-13.91
-15.70
-17.70
-19.54
-20.63
-20.39
-18.39
-14.62
-9.41
-3.35
2.89
8.72
13.72
17.57
20.01
20.90
20.18
18.07
15.04
11.77
8.95
7.05
6.22
6.27
6.81
7.44
7.97
8.42
8.92
9.57
10.27
10.66
10.25
8.55
5.17
-0.04
-6.85
-14.63
-22.26
-28.31
-31.37
-30.49
-25.54
-17.32
-7.31
2.87
11.92
19.11
24.13
26.92
27.34
25.26
20.62
13.74
5.43
-3.12
-10.46
-15.25
-16.62
-14.45
-9.55
-3.47
1.91
5.04
5.25
2.87
-1.06
-5.41
-9.52
-13.42
-17.66
-22.88
-29.48
-37.44
-46.35
-55.37
-63.26
-68.44
-69.35
-64.91
-55.10
-41.11
-25.05
-9.23
4.56
15.42
23.30
28.56
31.59
32.62
31.79
29.42
26.09
22.70
20.19
19.28
20.24
22.78
26.15
29.41
31.76
32.80
32.53
31.26
29.33
26.93
24.05
20.62
16.75
12.72
8.98
5.87
3.46
1.42
-0.81
-3.76
-7.63
-12.00
-15.90
-18.09
-17.50
-13.71
-7.14
1.08
9.56
17.13
23.14
27.52
30.53
32.45
33.42
33.45
32.56
30.96
29.06
27.33
26.13
25.50
25.16
24.64
23.51
21.61
19.10
16.40
13.99
12.22
11.16
10.61
10.17
9.42
8.05
5.93
3.15
-0.04
-3.29
-6.30
-8.91
-11.09
-12.96
-14.66
-16.32
-18.01
-19.68
-21.17
-22.21
-22.40
-21.42
-19.08
-15.52
-11.18
-6.64
-2.36
1.51
5.14
8.79
12.56
16.17
19.06
20.59
20.45
18.78
16.15
13.28
10.79
9.01
7.96
7.49
7.46
7.73
8.19
8.73
9.15
9.20
8.59
7.11
4.65
1.34
-2.43
-6.05
-8.86
-10.35
-10.39
-9.27
-7.66
-6.33
-5.98
-7.01
-9.53
-13.33
-17.95
-22.66
-26.52
-28.57
-28.02
-24.58
-18.56
-10.85
-2.63
5.00
11.26
15.77
18.52
19.72
19.68
18.85
17.79
17.10
17.26
18.47
20.50
22.79
24.67
25.60
25.38
24.13
22.23
20.10
18.05
16.22
14.66
13.35
12.22
11.19
10.13
8.91
7.36
5.33
2.71
-0.56
-4.44
-8.82
-13.50
-18.26
-22.83
-26.95
-30.34
-32.60
-33.29
-32.01
-28.56
-23.12
-16.35
-9.20
-2.65
2.55
6.03
7.77
7.94
6.77
4.54
1.63
-1.50
-4.35
-6.51
-7.87
-8.55
-8.90
-9.21
-9.59
-9.95
-10.11
-9.94
-9.56
-9.26
-9.42
-10.37
-12.27
-15.04
-18.44
-22.07
-25.51
-28.37
-30.44
-31.78
-32.80
-34.13
-36.41
-39.87
-44.18
-48.38
-51.17
-51.33
-48.17
-41.77
-32.93
-22.93
-13.10
-4.58
1.91
6.09
8.00
7.84
5.95
2.80
-0.85
-3.99
-5.52
-4.66
-1.31
3.77
9.15
13.26
14.96
13.90
10.62
6.15
1.57
-2.34
-5.25
-7.25
-8.67
-9.89
-11.29
-13.13
-15.53
-18.36
-21.20
-23.44
-24.35
-23.41
-20.52
-16.26
-11.69
-8.09
-6.46
-7.12
-9.66
-13.11
-16.47
-19.07
-20.85
-22.18
-23.64
-25.69
-28.47
-31.79
-35.17
-37.92
-39.37
-39.02
-36.84
-33.36
-29.55
-26.44
-24.51
-23.38
-21.92
-18.82
-13.33
-5.86
2.13
8.68
12.21
12.15
9.01
4.03
-1.33
-5.86
-8.77
-9.61
-8.26
-4.87
0.04
5.69
11.13
15.54
18.42
19.68
19.63
18.86
18.15
18.27
19.83
22.98
27.28
31.74
35.23
36.93
36.76
35.44
34.19
34.22
36.21
40.12
45.20
50.37
54.50
56.67
56.29
53.22
47.70
40.39
32.26
24.52
18.28
14.38
13.15
14.34
17.23
20.90
24.46
27.28
29.05
29.73
29.34
27.89
25.40
21.91
17.67
13.17
8.97
5.55
3.08
1.38
-0.03
-1.60
-3.55
-5.77
-7.94
-9.82
-11.52
-13.47
-16.28
-20.43
-25.98
-32.49
-39.16
-45.00
-49.02
-50.37
-48.47
-43.06
-34.39
-23.24
-10.92
0.97
10.90
17.73
20.94
20.70
17.71
13.01
7.69
2.66
-1.49
-4.51
-6.38
-7.24
-7.18
-6.22
-4.29
-1.36
2.50
7.05
11.89
16.54
20.50
23.25
24.36
23.50
20.60
16.00
10.42
4.97
0.85
-0.96
0.06
3.80
9.60
16.40
23.11
28.84
33.06
35.57
36.40
35.64
33.36
29.62
24.63
18.84
12.87
7.39
2.82
-0.76
-3.68
-6.39
-9.25
-12.29
-15.19
-17.51
-18.86
-19.13
-18.50
-17.41
-16.39
-15.95
-16.38
-17.68
-19.47
-21.02
-21.47
-20.04
-16.36
-10.53
-3.18
4.79
12.42
18.98
24.05
27.56
29.64
30.61
30.82
30.68
30.60
30.84
31.50
32.40
33.12
33.14
32.07
29.78
26.45
22.45
18.09
13.51
8.64
3.42
-2.09
-7.66
-12.97
-17.68
-21.57
-24.45
-26.08
-26.17
-24.48
-21.00
-16.12
-10.56
-5.17
-0.62
2.84
5.33
7.21
8.75
10.04
10.98
11.50
11.67
11.67
11.80
12.19
12.77
13.28
13.41
12.94
11.91
10.48
8.86
7.15
5.29
3.18
0.76
-1.82
-4.30
-6.34
-7.74
-8.57
-9.04
-9.50
-10.23
-11.40
-13.03
-15.06
-17.25
-19.21
-20.35
-20.06
-17.96
-14.10
-9.10
-3.95
0.34
3.12
4.31
4.35
3.85
3.32
2.93
2.60
2.20
1.72
1.33
1.26
1.70
2.70
4.19
6.12
8.46
11.19
14.18
17.00
19.06
19.73
18.73
16.27
12.95
9.49
6.33
3.46
0.43
-3.36
-8.37
-14.64
-21.84
-29.46
-36.93
-43.74
-49.46
-53.62
-55.73
-55.45
-52.68
-47.76
-41.39
-34.44
-27.76
-21.97
-17.39
-14.07
-11.84
-10.45
-9.58
-8.91
-8.19
-7.30
-6.22
-5.02
-3.77
-2.51
-1.27
-0.15
0.65
0.90
0.45
-0.63
-1.94
-2.86
-2.79
-1.36
1.36
4.89
8.50
11.41
12.99
12.84
10.81
6.94
1.54
-4.84
-11.35
-17.02
-20.94
-22.58
-22.01
-19.83
-16.95
-14.27
-12.32
-11.26
-10.95
-11.15
-11.70
-12.54
-13.60
-14.72
-15.59
-15.91
-15.46
-14.21
-12.35
-10.14
-7.84
-5.67
-3.85
-2.66
-2.43
-3.49
-6.01
-9.94
-14.88
-20.26
-25.51
-30.24
-34.39
-38.15
-41.86
-45.70
-49.57
-52.98
-55.17
-55.27
-52.59
-46.81
-38.14
-27.26
-15.22
-3.15
7.90
17.14
24.02
28.29
29.93
29.19
26.62
22.98
19.02
15.32
12.06
9.11
6.09
2.67
-1.30
-5.72
-10.31
-14.78
-18.91
-22.66
-26.16
-29.72
-33.76
-38.69
-44.81
-52.15
-60.48
-69.30
-77.87
-85.34
-90.82
-93.57
-93.22
-89.90
-84.23
-77.21
-69.89
-63.09
-57.19
-52.04
-46.98
-40.88
-32.33
-19.90
-2.64
19.46
45.10
71.67
95.88
114.62
125.86
129.21
125.82
117.83
107.60
97.09
87.50
79.44
73.09
68.41
65.25
63.30
62.04
60.95
59.56
57.64
55.21
52.44
49.50
46.45
43.16
39.52
35.53
31.37
27.45
24.15
21.71
20.13
19.11
18.16
16.74
14.46
11.22
7.26
3.26
0.15
-1.04
0.47
4.99
12.18
21.20
30.88
40.09
48.02
54.25
58.75
61.70
63.31
63.78
63.20
61.62
59.13
55.81
51.81
47.34
42.60
37.81
33.14
28.78
24.89
21.65
19.21
17.53
16.42
15.49
14.30
12.55
10.22
7.53
4.87
2.64
1.02
-0.03
-0.78
-1.62
-2.89
-4.78
-7.21
-9.84
-12.07
-13.27
-12.93
-10.89
-7.39
-3.06
1.30
4.92
7.29
8.31
8.27
7.77
7.54
8.21
10.17
13.44
17.70
22.34
26.70
30.15
32.25
32.81
31.85
29.60
26.35
22.44
18.17
13.78
9.48
5.44
1.79
-1.41
-4.23
-6.85
-9.52
-12.42
-15.60
-18.88
-21.91
-24.33
-25.97
-26.88
-27.32
-27.63
-28.05
-28.58
-29.07
-29.29
-29.20
-28.91
-28.68
-28.74
-29.06
-29.30
-28.87
-27.13
-23.60
-18.22
-11.28
-3.35
4.94
12.93
19.93
25.20
28.03
27.99
25.17
20.35
14.74
9.60
5.74
3.18
1.37
-0.49
-2.92
-5.91
-8.92
-11.30
-12.59
-12.80
-12.37
-11.88
-11.79
-12.25
-13.05
-13.85
-14.43
-14.82
-15.31
-16.32
-18.10
-20.66
-23.65
-26.56
-28.83
-30.00
-29.78
-28.04
-24.81
-20.25
-14.69
-8.57
-2.40
3.35
8.34
12.39
15.46
17.59
18.84
19.26
18.92
17.98
16.72
15.46
14.48
13.84
13.42
12.93
12.09
10.83
9.31
7.87
6.82
6.28
6.14
6.11
5.82
4.97
3.35
0.93
-2.14
-5.42
-8.22
-9.72
-9.23
-6.46
-1.72
4.26
10.57
16.44
21.46
25.50
28.61
30.75
31.79
31.55
29.93
27.03
23.15
18.68
13.97
9.26
4.64
0.12
-4.25
-8.34
-11.98
-14.97
-17.21
-18.77
-19.81
-20.52
-21.06
-21.50
-21.88
-22.27
-22.83
-23.75
-25.24
-27.31
-29.78
-32.29
-34.35
-35.47
-35.33
-33.80
-31.01
-27.29
-23.08
-18.80
-14.80
-11.31
-8.45
-6.33
-5.03
-4.60
-4.97
-5.89
-7.02
-8.00
-8.59
-8.77
-8.70
-8.61
-8.68
-8.96
-9.39
-9.84
-10.21
-10.43
-10.50
-10.48
-10.47
-10.63
-11.18
-12.29
-14.03
-16.26
-18.66
-20.76
-22.09
-22.26
-21.08
-18.55
-14.88
-10.44
-5.67
-1.02
3.13
6.50
8.95
10.43
10.97
10.69
9.73
8.31
6.69
5.13
3.81
2.81
2.05
1.41
0.76
0.04
-0.74
-1.54
-2.31
-3.05
-3.80
-4.60
-5.51
-6.54
-7.72
-9.10
-10.79
-12.89
-15.46
-18.44
-21.53
-24.22
-25.83
-25.76
-23.68
-19.66
-14.29
-8.43
-3.00
1.35
4.40
6.30
7.40
7.99
8.20
7.97
7.19
5.87
4.24
2.64
1.39
0.71
0.61
1.03
1.87
3.01
4.33
5.66
6.79
7.60
8.11
8.49
9.00
9.89
11.24
12.81
14.13
14.55
13.49
10.61
6.03
0.38
-5.35
-10.07
-12.92
-13.58
-12.37
-10.00
-7.30
-4.89
-3.04
-1.72
-0.76
0.00
0.70
1.46
2.44
3.83
5.75
8.13
10.72
13.11
14.93
15.93
16.10
15.59
14.65
13.51
12.35
11.22
10.08
8.84
7.40
5.82
4.25
2.92
1.91
1.09
0.09
-1.47
-3.71
-6.29
-8.45
-9.31
-8.28
-5.32
-0.98
3.87
8.37
11.94
14.37
15.66
15.90
15.09
13.24
10.43
6.89
3.04
-0.67
-3.89
-6.44
-8.35
-9.75
-10.80
-11.66
-12.45
-13.24
-14.08
-14.93
-15.70
-16.33
-16.82
-17.31
-18.04
-19.18
-20.81
-22.82
-25.05
-27.33
-29.59
-31.83
-33.98
-35.85
-37.15
-37.56
-36.89
-35.18
-32.62
-29.51
-26.10
-22.64
-19.37
-16.65
-14.94
-14.68
-16.10
-19.07
-23.05
-27.17
-30.48
-32.16
-31.77
-29.30
-25.18
-20.11
-14.86
-10.09
-6.26
-3.52
-1.86
-1.14
-1.19
-1.84
-2.90
-4.22
-5.68
-7.20
-8.74
-10.21
-11.41
-12.04
-11.83
-10.58
-8.33
-5.29
-1.77
1.91
5.46
8.62
11.06
12.49
12.68
11.64
9.66
7.28
5.07
3.49
2.77
2.99
4.06
5.86
8.22
10.92
13.69
16.23
18.34
19.96
21.13
21.93
22.36
22.27
21.50
20.02
17.99
15.78
13.73
12.02
10.52
8.99
7.23
5.32
3.59
2.47
2.26
2.93
4.13
5.31
5.95
5.64
4.19
1.65
-1.68
-5.21
-8.18
-9.87
-9.84
-8.16
-5.39
-2.35
0.22
1.94
2.85
3.29
3.62
4.00
4.33
4.38
3.97
3.02
1.58
-0.23
-2.30
-4.47
-6.54
-8.21
-9.12
-8.94
-7.52
-4.93
-1.47
2.44
6.32
9.72
12.28
13.79
14.22
13.73
12.67
11.47
10.50
10.01
10.00
10.32
10.76
11.10
11.22
11.08
10.77
10.41
10.16
10.17
10.46
10.97
11.40
11.39
10.62
8.92
6.43
3.49
0.58
-1.82
-3.37
-3.89
-3.34
-1.77
0.72
3.93
7.60
11.34
14.71
17.30
18.75
18.93
17.87
15.78
12.99
9.89
6.83
4.11
1.93
0.33
-0.77
-1.59
-2.43
-3.60
-5.30
-7.60
-10.45
-13.72
-17.30
-21.18
-25.35
-29.74
-34.08
-37.88
-40.52
-41.46
-40.44
-37.59
-33.37
-28.39
-23.27
-18.55
-14.65
-11.94
-10.71
-11.07
-12.80
-15.36
-17.95
-19.85
-20.62
-20.36
-19.55
-18.81
-18.59
-18.96
-19.67
-20.32
-20.57
-20.34
-19.74
-19.02
-18.51
-18.53
-19.32
-21.00
-23.38
-25.93
-27.80
-28.00
-25.74
-20.67
-12.99
-3.37
7.21
17.75
27.37
35.43
41.47
45.29
46.87
46.42
44.33
41.22
37.74
34.53
32.00
30.25
29.03
27.95
26.56
24.69
22.45
20.18
18.22
16.71
15.41
13.80
11.26
7.35
2.07
-4.07
-10.06
-14.65
-16.65
-15.26
-10.41
-2.73
6.56
16.05
24.51
31.20
35.84
38.53
39.48
38.90
37.00
34.06
30.50
26.85
23.57
20.88
18.68
16.65
14.44
11.87
8.99
6.08
3.47
1.39
-0.17
-1.39
-2.52
-3.82
-5.54
-7.93
-11.22
-15.57
-20.84
-26.49
-31.55
-34.84
-35.36
-32.65
-26.95
-19.09
-10.21
-1.37
6.58
13.14
17.99
20.94
21.93
21.12
18.88
15.87
12.78
10.24
8.58
7.82
7.73
8.02
8.45
8.92
9.48
10.19
11.04
11.96
12.79
13.41
13.80
13.99
14.08
14.10
14.00
13.62
12.67
10.87
8.06
4.32
0.14
-3.68
-6.12
-6.33
-3.88
1.09
7.88
15.49
22.90
29.32
34.22
37.35
38.61
38.05
35.91
32.62
28.82
25.15
22.19
20.18
19.11
18.72
18.68
18.74
18.78
18.79
18.77
18.62
18.18
17.22
15.58
13.23
10.32
7.06
3.71
0.47
-2.58
-5.43
-8.21
-11.11
-14.39
-18.18
-22.40
-26.61
-30.01
-31.69
-30.91
-27.39
-21.46
-13.92
-5.77
2.07
8.89
14.27
17.96
19.86
19.97
18.52
15.96
12.93
10.10
8.02
6.97
6.88
7.45
8.23
8.83
9.03
8.78
8.19
7.45
6.71
5.98
5.17
4.10
2.59
0.60
-1.77
-4.31
-6.74
-8.88
-10.71
-12.41
-14.28
-16.65
-19.65
-23.14
-26.64
-29.38
-30.54
-29.49
-26.02
-20.38
-13.25
-5.45
2.27
9.34
15.39
20.16
23.38
24.86
24.55
22.67
19.73
16.42
13.42
11.19
9.86
9.29
9.15
9.15
9.13
9.10
9.18
9.46
9.87
10.20
10.13
9.39
7.90
5.81
3.43
1.08
-1.09
-3.14
-5.27
-7.75
-10.75
-14.27
-18.21
-22.30
-26.18
-29.33
-31.17
-31.13
-28.81
-24.24
-17.85
-10.44
-2.95
3.81
9.31
13.29
15.73
16.74
16.47
15.17
13.21
11.04
9.07
7.59
6.69
6.26
6.11
6.13
6.27
6.50
6.78
6.96
6.84
6.24
5.07
3.41
1.41
-0.79
-3.08
-5.38
-7.65
-9.83
-11.91
-13.96
-16.19
-18.80
-21.88
-25.25
-28.41
-30.59
-31.04
-29.30
-25.33
-19.57
-12.75
-5.70
0.86
6.42
10.71
13.61
15.17
15.49
14.82
13.47
11.81
10.20
8.84
7.80
7.04
6.47
6.05
5.77
5.61
5.52
5.35
4.94
4.15
2.95
1.40
-0.38
-2.27
-4.21
-6.17
-8.12
-10.02
-11.88
-13.76
-15.83
-18.25
-21.07
-24.11
-26.93
-28.92
-29.47
-28.16
-24.94
-20.08
-14.14
-7.79
-1.64
3.88
8.50
12.11
14.62
16.01
16.26
15.50
13.99
12.12
10.33
8.92
8.04
7.68
7.70
7.95
8.29
8.62
8.78
8.64
8.05
6.94
5.32
3.34
1.18
-0.99
-3.08
-5.06
-6.99
-8.96
-11.07
-13.43
-16.14
-19.17
-22.31
-25.10
-26.90
-27.05
-25.14
-21.17
-15.63
-9.30
-3.02
2.56
7.08
10.45
12.75
14.04
14.41
13.95
12.85
11.34
9.72
8.28
7.20
6.60
6.44
6.63
6.98
7.30
7.41
7.25
6.79
6.04
5.01
3.65
1.91
-0.18
-2.49
-4.85
-7.04
-8.98
-10.75
-12.59
-14.81
-17.61
-20.90
-24.26
-26.96
-28.17
-27.27
-24.01
-18.66
-11.91
-4.67
2.21
8.07
12.53
15.49
17.00
17.23
16.42
14.88
12.96
11.02
9.39
8.26
7.73
7.69
7.93
8.20
8.27
8.03
7.47
6.66
5.65
4.48
3.15
1.63
-0.05
-1.82
-3.60
-5.38
-7.16
-9.03
-11.10
-13.47
-16.20
-19.26
-22.43
-25.33
-27.40
-28.06
-26.92
-23.87
-19.17
-13.33
-6.98
-0.71
4.99
9.80
13.47
15.88
17.01
17.04
16.25
15.02
13.69
12.54
11.75
11.37
11.35
11.55
11.80
11.91
11.75
11.28
10.51
9.45
8.11
6.46
4.51
2.38
0.19
-1.89
-3.81
-5.64
-7.55
-9.75
-12.39
-15.49
-18.96
-22.54
-25.80
-28.19
-29.09
-27.97
-24.61
-19.20
-12.36
-4.93
2.19
8.31
13.05
16.27
18.04
18.48
17.79
16.24
14.22
12.15
10.41
9.20
8.52
8.19
7.99
7.76
7.42
7.02
6.57
6.10
5.59
5.00
4.24
3.25
1.93
0.24
-1.78
-4.03
-6.38
-8.74
-11.15
-13.74
-16.68
-20.02
-23.59
-26.89
-29.22
-29.89
-28.39
-24.64
-18.99
-12.17
-5.03
1.62
7.20
11.45
14.29
15.84
16.23
15.67
14.39
12.73
11.02
9.57
8.56
8.01
7.79
7.70
7.57
7.34
6.99
6.53
5.94
5.12
3.92
2.26
0.16
-2.24
-4.73
-7.12
-9.31
-11.33
-13.38
-15.67
-18.38
-21.48
-24.69
-27.47
-29.08
-28.84
-26.29
-21.41
-14.67
-6.87
1.02
8.14
13.93
18.14
20.77
22.04
22.22
21.60
20.48
19.14
17.87
16.89
16.35
16.24
16.42
16.67
16.80
16.69
16.35
15.85
15.26
14.53
13.53
12.04
9.93
7.21
4.11
0.97
-1.87
-4.25
-6.31
-8.46
-11.20
-14.88
-19.49
-24.47
-28.93
-31.82
-32.40
-30.40
-26.13
-20.31
-13.79
-7.32
-1.47
3.40
7.03
9.26
10.08
9.62
8.20
6.26
4.24
2.46
1.17
0.48
0.45
1.06
2.21
3.66
5.12
6.28
6.96
7.13
6.90
6.45
5.95
5.48
5.05
4.58
3.99
3.13
1.88
0.16
-2.00
-4.45
-6.93
-9.15
-10.92
-12.07
-12.56
-12.38
-11.56
-10.05
-7.74
-4.29
0.68
7.54
16.29
26.31
36.33
44.67
49.69
50.41
46.71
39.40
29.74
18.99
8.06
-2.60
-12.77
-22.20
-30.37
-36.47
-39.73
-39.72
-36.69
-31.50
-25.43
-19.67
-15.00
-11.58
-9.18
-7.48
-6.37
-5.98
-6.51
-8.02
-10.25
-12.81
-15.35
-17.77
-20.21
-22.83
-25.54
-27.89
-29.16
-28.60
-25.80
-20.85
-14.38
-7.35
-0.79
4.52
8.12
10.00
10.42
9.84
8.76
7.64
6.88
6.79
7.55
9.21
11.63
14.52
17.54
20.40
22.88
24.87
26.29
27.00
26.88
25.79
23.69
20.62
16.76
12.33
7.56
2.74
-1.90
-6.16
-9.94
-13.33
-16.51
-19.64
-22.67
-25.25
-26.76
-26.59
-24.35
-20.09
-14.30
-7.73
-1.21
4.57
9.16
12.22
13.59
13.21
11.23
8.02
4.20
0.45
-2.64
-4.72
-5.83
-6.23
-6.34
-6.49
-6.83
-7.34
-7.90
-8.39
-8.76
-9.03
-9.23
-9.37
-9.50
-9.76
-10.31
-11.37
-13.08
-15.46
-18.41
-21.80
-25.47
-29.19
-32.54
-34.97
-35.79
-34.48
-30.83
-25.10
-17.95
-10.18
-2.55
4.39
10.32
15.05
18.39
20.20
20.40
19.13
16.75
13.82
10.98
8.77
7.53
7.31
7.93
9.03
10.26
11.31
12.00
12.30
12.22
11.81
11.12
10.16
8.97
7.55
5.89
3.84
1.17
-2.32
-6.59
-11.07
-14.63
-15.83
-13.33
-6.50
4.34
17.90
32.38
45.89
56.93
64.56
68.40
68.49
65.20
59.19
51.32
42.61
34.13
26.75
21.19
17.84
16.81
17.83
20.28
23.18
25.45
26.18
24.89
21.61
16.69
10.54
3.37
-4.83
-14.15
-24.50
-35.52
-46.67
-57.41
-67.34
-76.09
-83.19
-87.93
-89.44
-87.03
-80.58
-70.73
-58.75
-46.13
-34.08
-23.32
-14.08
-6.40
-0.32
4.05
6.62
7.52
7.17
6.19
5.20
4.62
4.59
5.04
5.81
6.76
7.82
8.91
9.89
10.55
10.67
10.13
8.93
7.18
5.01
2.46
-0.57
-4.25
-8.74
-14.05
-19.92
-25.81
-30.94
-34.43
-35.51
-33.74
-29.14
-22.29
-14.14
-5.77
1.87
8.28
13.38
17.42
20.71
23.46
25.62
27.01
27.43
26.83
25.40
23.51
21.63
20.18
19.40
19.37
19.97
20.92
21.92
22.67
22.93
22.58
21.60
19.97
17.69
14.68
10.80
5.93
0.01
-6.90
-14.55
-22.45
-29.92
-36.02
-39.80
-40.38
-37.32
-30.73
-21.36
-10.40
0.79
11.03
19.55
26.03
30.55
33.39
34.92
35.50
35.45
35.11
34.70
34.36
34.03
33.52
32.56
30.96
28.69
25.86
22.66
19.22
15.51
11.34
6.45
0.74
-5.67
-12.28
-18.31
-22.87
-25.18
-24.78
-21.73
-16.56
-10.12
-3.36
2.92
8.21
12.26
14.99
16.36
16.32
14.87
12.18
8.63
4.76
1.13
-1.88
-4.19
-5.98
-7.57
-9.24
-11.12
-13.11
-15.05
-16.76
-18.25
-19.68
-21.38
-23.71
-27.00
-31.48
-37.14
-43.67
-50.33
-56.00
-59.35
-59.26
-55.23
-47.62
-37.55
-26.49
-15.71
-6.00
2.37
9.40
15.02
18.96
20.97
21.06
19.72
17.82
16.27
15.62
15.84
16.46
16.81
16.49
15.43
13.94
12.40
11.04
9.81
8.43
6.50
3.69
-0.15
-4.91
-10.24
-15.53
-19.98
-22.75
-23.11
-20.66
-15.49
-8.16
0.46
9.37
17.74
24.95
30.67
34.68
36.91
37.33
36.07
33.44
29.96
26.25
22.86
20.11
18.02
16.32
14.68
12.89
10.99
9.16
7.57
6.22
4.89
3.13
0.53
-3.20
-8.09
-13.78
-19.59
-24.59
-27.74
-28.20
-25.57
-20.02
-12.27
-3.36
5.67
13.96
20.95
26.34
29.96
31.71
31.63
29.88
26.82
22.95
18.83
14.95
11.63
8.92
6.73
4.86
3.14
1.55
0.12
-1.08
-2.10
-3.12
-4.44
-6.34
-9.06
-12.67
-17.03
-21.78
-26.30
-29.78
-31.35
-30.35
-26.60
-20.48
-12.83
-4.68
3.09
9.95
15.66
20.15
23.29
24.90
24.78
23.00
19.90
16.09
12.32
9.15
6.89
5.47
4.60
3.89
3.04
1.85
0.32
-1.45
-3.29
-5.00
-6.39
-7.40
-8.14
-8.92
-10.28
-12.69
-16.37
-21.06
-25.92
-29.72
-31.26
-29.75
-25.10
-17.96
-9.38
-0.52
7.77
14.99
20.94
25.53
28.66
30.26
30.38
29.32
27.67
26.07
25.04
24.72
24.88
25.12
25.06
24.55
23.68
22.67
21.68
20.70
19.57
18.08
16.09
13.51
10.33
6.58
2.31
-2.35
-7.14
-11.65
-15.35
-17.78
-18.62
-17.81
-15.46
-11.80
-7.12
-1.76
3.88
9.24
13.68
16.61
17.64
16.78
14.40
11.20
7.92
5.21
3.41
2.52
2.32
2.44
2.46
2.08
1.19
-0.04
-1.24
-1.89
-1.52
0.06
2.67
5.71
8.27
9.42
8.44
5.05
-0.55
-7.73
-15.72
-23.78
-31.38
-38.16
-43.82
-48.00
-50.24
-50.18
-47.69
-43.09
-37.07
-30.45
-23.96
-17.97
-12.58
-7.67
-3.20
0.76
3.95
6.11
7.12
7.14
6.58
6.04
6.00
6.73
8.14
9.81
11.21
11.87
11.60
10.45
8.70
6.63
4.49
2.36
0.27
-1.77
-3.77
-5.75
-7.76
-9.95
-12.47
-15.38
-18.57
-21.68
-24.12
-25.21
-24.37
-21.32
-16.24
-9.75
-2.71
3.97
9.64
13.96
16.94
18.76
19.64
19.71
19.01
17.59
15.58
13.23
10.95
9.12
8.02
7.70
8.00
8.57
9.06
9.15
8.72
7.82
6.67
5.53
4.58
3.85
3.23
2.48
1.32
-0.40
-2.68
-5.23
-7.53
-8.82
-8.26
-5.15
0.78
9.12
18.69
27.73
34.33
37.07
35.39
29.75
21.34
11.61
1.74
-7.50
-15.72
-22.66
-28.02
-31.44
-32.69
-31.84
-29.38
-26.07
-22.73
-19.95
-17.99
-16.75
-15.93
-15.25
-14.57
-13.97
-13.71
-14.11
-15.39
-17.56
-20.40
-23.47
-26.22
-28.13
-28.78
-27.92
-25.49
-21.61
-16.58
-10.79
-4.66
1.40
7.05
11.97
15.89
18.58
19.92
19.93
18.81
16.91
14.60
12.24
10.06
8.22
6.74
5.62
4.80
4.17
3.57
2.84
1.86
0.57
-1.00
-2.75
-4.59
-6.53
-8.62
-11.02
-13.90
-17.33
-21.21
-25.14
-28.53
-30.60
-30.73
-28.53
-24.06
-17.80
-10.47
-2.89
4.25
10.48
15.49
19.13
21.34
22.16
21.73
20.34
18.40
16.31
14.42
12.90
11.77
10.89
10.10
9.25
8.27
7.13
5.84
4.38
2.78
1.02
-0.88
-2.89
-4.98
-7.13
-9.37
-11.76
-14.40
-17.29
-20.31
-23.11
-25.17
-25.90
-24.83
-21.77
-16.86
-10.60
-3.72
3.03
9.00
13.77
17.16
19.21
20.05
19.90
18.96
17.45
15.61
13.72
12.06
10.80
10.02
9.63
9.44
9.24
8.85
8.16
7.15
5.84
4.29
2.60
0.84
-0.96
-2.86
-4.97
-7.44
-10.35
-13.66
-17.16
-20.42
-22.89
-23.99
-23.25
-20.48
-15.79
-9.60
-2.56
4.61
11.26
16.93
21.32
24.31
25.88
26.10
25.14
23.27
20.85
18.26
15.83
13.76
12.10
10.75
9.57
8.43
7.32
6.25
5.29
4.46
3.70
2.89
1.87
0.55
-1.09
-2.99
-5.04
-7.18
-9.41
-11.79
-14.33
-16.85
-18.93
-19.95
-19.29
-16.58
-11.87
-5.66
1.25
8.04
14.03
18.89
22.49
24.89
26.16
26.41
25.79
24.54
22.95
21.34
19.94
18.88
18.17
17.74
17.47
17.24
16.86
16.12
14.79
12.72
9.93
6.62
3.16
0.02
-2.44
-4.08
-5.07
-5.82
-6.92
-8.82
-11.67
-15.13
-18.38
-20.39
-20.23
-17.41
-12.05
-4.86
3.16
11.02
17.96
23.62
27.95
31.13
33.40
34.88
35.61
35.53
34.61
32.91
30.58
27.84
24.80
21.49
17.77
13.51
8.65
3.33
-2.19
-7.56
-12.53
-16.99
-20.94
-24.50
-27.76
-30.80
-33.68
-36.39
-38.83
-40.82
-42.07
-42.25
-41.07
-38.36
-34.12
-28.56
-22.03
-14.99
-7.93
-1.33
4.40
8.94
12.11
13.86
14.28
13.53
11.87
9.61
7.10
4.75
2.91
1.72
1.05
0.52
-0.34
-1.84
-3.94
-6.18
-8.00
-8.98
-9.18
-9.17
-9.77
-11.67
-15.08
-19.61
-24.43
-28.66
-31.62
-33.02
-32.89
-31.43
-28.85
-25.33
-21.01
-16.15
-11.13
-6.40
-2.44
0.42
2.03
2.44
1.86
0.59
-1.09
-2.92
-4.73
-6.40
-7.83
-8.95
-9.79
-10.42
-10.96
-11.57
-12.33
-13.22
-14.15
-14.97
-15.60
-16.04
-16.47
-17.13
-18.26
-20.01
-22.27
-24.70
-26.77
-27.83
-27.30
-24.79
-20.23
-13.83
-6.11
2.24
10.47
17.83
23.75
27.88
30.09
30.52
29.49
27.44
24.88
22.33
20.19
18.75
18.05
17.94
18.07
18.06
17.63
16.69
15.38
14.03
12.99
12.56
12.86
13.75
14.88
15.77
16.03
15.46
14.16
12.50
10.94
9.85
9.36
9.27
9.13
8.49
6.97
4.52
1.42
-1.76
-4.25
-5.40
-4.85
-2.72
0.46
3.96
7.18
9.91
12.30
14.71
17.35
20.07
22.44
23.98
24.44
24.03
23.27
22.66
22.41
22.27
21.70
20.19
17.53
13.86
9.68
5.51
1.84
-0.94
-2.55
-2.76
-1.45
1.26
4.95
9.00
12.67
15.43
17.00
17.36
16.59
14.79
12.00
8.33
4.06
-0.35
-4.38
-7.67
-10.16
-12.14
-14.07
-16.32
-18.95
-21.68
-24.01
-25.47
-25.83
-25.20
-23.95
-22.59
-21.54
-21.08
-21.31
-22.18
-23.52
-25.03
-26.30
-26.76
-25.82
-22.96
-17.93
-10.87
-2.35
6.80
15.66
23.44
29.64
34.00
36.46
37.07
35.99
33.52
30.09
26.24
22.47
19.09
16.15
13.41
10.53
7.21
3.33
-1.02
-5.56
-10.02
-14.18
-17.98
-21.51
-24.94
-28.45
-32.17
-36.18
-40.44
-44.79
-48.86
-52.13
-53.92
-53.63
-50.94
-45.95
-39.29
-31.82
-24.52
-18.11
-13.07
-9.57
-7.60
-7.04
-7.72
-9.33
-11.51
-13.84
-15.92
-17.49
-18.42
-18.77
-18.74
-18.59
-18.58
-18.88
-19.49
-20.28
-21.07
-21.74
-22.30
-22.92
-23.87
-25.40
-27.69
-30.80
-34.58
-38.68
-42.51
-45.31
-46.32
-45.02
-41.31
-35.55
-28.47
-20.85
-13.39
-6.61
-0.85
3.57
6.39
7.49
6.96
5.20
2.84
0.59
-1.03
-1.75
-1.63
-0.93
-0.01
0.80
1.28
1.33
0.99
0.35
-0.49
-1.49
-2.68
-4.19
-6.21
-8.93
-12.53
-16.98
-22.03
-27.04
-31.01
-32.80
-31.39
-26.31
-17.87
-7.11
4.44
15.31
24.42
31.30
35.96
38.62
39.54
38.91
36.96
34.14
31.11
28.63
27.26
27.15
27.92
28.86
29.22
28.53
26.72
24.08
20.98
17.65
14.09
10.10
5.41
-0.15
-6.60
-13.82
-21.48
-29.06
-35.78
-40.68
-42.82
-41.47
-36.48
-28.25
-17.75
-6.24
5.03
14.99
22.88
28.34
31.35
32.21
31.45
29.74
27.72
25.95
24.80
24.41
24.77
25.69
26.89
28.09
29.13
29.94
30.57
31.10
31.53
31.81
31.84
31.53
30.85
29.84
28.47
26.67
24.24
20.95
16.57
10.98
4.31
-3.00
-10.17
-16.13
-19.74
-20.12
-16.91
-10.46
-1.76
7.86
17.15
25.17
31.41
35.68
37.93
38.13
36.38
32.95
28.46
23.74
19.65
16.80
15.32
14.84
14.74
14.39
13.44
11.85
9.88
7.86
6.04
4.49
3.06
1.47
-0.59
-3.35
-6.81
-10.81
-15.07
-19.31
-23.39
-27.37
-31.49
-36.07
-41.47
-47.93
-55.42
-63.46
-71.14
-77.10
-79.96
-78.72
-73.25
-64.39
-53.78
-43.34
-34.64
-28.56
-25.18
-24.16
-25.04
-27.58
-31.84
-37.95
-45.91
-55.41
-65.82
-76.34
-86.27
-95.12
-102.69
-108.91
-113.68
-116.78
-117.88
-116.59
-112.53
-105.16
-93.68
-77.13
-54.85
-27.20
4.00
35.55
63.78
85.82
100.63
109.45
115.21
121.35
130.67
144.54
162.92
184.83
208.93
233.82
258.00
279.74
296.99
307.74
310.52
304.88
291.62
272.48
249.49
224.38
198.30
171.86
145.59
120.19
96.52
75.33
56.87
40.84
26.48
12.96
-0.30
-13.49
-26.47
-38.99
-50.79
-61.70
-71.58
-80.33
-87.88
-94.19
-99.35
-103.52
-106.93
-109.80
-112.26
-114.40
-116.20
-117.60
-118.56
-119.02
-118.95
-118.35
-117.19
-115.40
-112.90
-109.64
-105.62
-100.98
-96.01
-91.08
-86.53
-82.56
-79.07
-75.65
-71.67
-66.45
-59.53
-50.87
-40.89
-30.38
-20.23
-11.19
-3.67
2.27
6.83
10.27
12.80
14.58
15.69
16.23
16.33
16.17
15.85
15.38
14.58
13.19
10.91
7.55
3.14
-2.03
-7.38
-12.18
-15.60
-16.94
-15.74
-11.92
-5.84
1.81
10.20
18.53
26.22
32.96
38.54
42.79
45.45
46.34
45.44
43.11
40.02
36.97
34.59
33.13
32.41
31.99
31.48
30.71
29.78
28.94
28.37
28.01
27.53
26.56
24.81
22.23
19.01
15.44
11.83
8.36
5.12
2.11
-0.68
-3.37
-6.11
-9.15
-12.71
-16.76
-20.92
-24.40
-26.15
-25.21
-21.08
-13.96
-4.73
5.33
14.94
23.09
29.24
33.25
35.16
35.08
33.20
29.84
25.47
20.76
16.34
12.67
9.90
7.84
6.08
4.17
1.79
-1.17
-4.62
-8.36
-12.21
-16.11
-20.13
-24.51
-29.50
-35.26
-41.79
-48.85
-55.98
-62.70
-68.64
-73.84
-78.79
-84.32
-91.35
-100.53
-111.88
-124.64
-137.36
-148.04
-154.61
-155.34
-149.33
-136.82
-119.16
-98.46
-76.88
-56.09
-36.87
-19.24
-2.78
12.93
28.15
43.04
57.91
73.25
89.63
107.34
126.02
144.51
161.14
174.18
182.40
185.37
183.46
177.55
168.58
157.18
143.65
128.05
110.54
91.55
71.88
52.44
34.03
17.17
2.10
-11.13
-22.49
-31.91
-39.29
-44.62
-47.97
-49.54
-49.50
-47.96
-44.85
-40.07
-33.62
-25.80
-17.21
-8.76
-1.37
4.25
7.77
9.30
9.33
8.51
7.48
6.74
6.60
7.17
8.44
10.31
12.56
14.94
17.16
18.93
20.03
20.40
20.09
19.31
18.29
17.18
16.03
14.74
13.19
11.27
9.00
6.50
3.91
1.25
-1.58
-4.72
-8.15
-11.60
-14.57
-16.41
-16.68
-15.26
-12.47
-8.89
-5.18
-1.89
0.70
2.50
3.55
3.89
3.57
2.59
0.98
-1.21
-3.87
-6.82
-9.79
-12.53
-14.80
-16.54
-17.90
-19.17
-20.66
-22.49
-24.57
-26.55
-28.08
-28.99
-29.37
-29.55
-29.91
-30.76
-32.24
-34.37
-37.07
-40.14
-43.13
-45.36
-46.00
-44.39
-40.28
-34.02
-26.39
-18.34
-10.67
-3.84
1.98
6.67
10.11
12.12
12.62
11.82
10.19
8.38
6.94
6.14
5.96
6.13
6.38
6.57
6.65
6.69
6.70
6.65
6.44
5.98
5.22
4.16
2.81
1.15
-0.85
-3.30
-6.29
-9.79
-13.54
-17.01
-19.43
-20.04
-18.29
-14.13
-8.00
-0.75
6.64
13.37
18.96
23.18
25.98
27.32
27.14
25.50
22.61
18.96
15.16
11.81
9.27
7.66
6.87
6.71
7.02
7.62
8.33
8.86
8.88
8.13
6.49
4.09
1.18
-1.97
-5.23
-8.61
-12.24
-16.19
-20.31
-24.22
-27.28
-28.83
-28.39
-25.82
-21.40
-15.68
-9.36
-3.07
2.74
7.74
11.68
14.32
15.52
15.29
13.89
11.75
9.39
7.25
5.57
4.41
3.64
3.09
2.56
1.95
1.22
0.38
-0.51
-1.48
-2.59
-3.96
-5.65
-7.70
-10.05
-12.71
-15.70
-19.13
-22.95
-26.88
-30.26
-32.24
-32.05
-29.37
-24.44
-18.02
-11.10
-4.53
1.16
5.74
9.21
11.55
12.65
12.41
10.89
8.42
5.60
3.14
1.63
1.28
1.91
3.02
4.04
4.58
4.49
3.87
2.94
1.88
0.73
-0.58
-2.19
-4.20
-6.70
-9.69
-13.20
-17.20
-21.57
-25.99
-29.85
-32.40
-32.86
-30.70
-25.89
-18.92
-10.71
-2.32
5.33
11.67
16.46
19.71
21.53
22.04
21.35
19.65
17.23
14.52
11.98
9.98
8.75
8.26
8.31
8.62
8.90
8.93
8.53
7.63
6.19
4.27
1.99
-0.47
-2.98
-5.50
-8.09
-10.88
-14.06
-17.73
-21.87
-26.23
-30.26
-33.20
-34.15
-32.40
-27.66
-20.28
-11.15
-1.48
7.59
15.25
21.13
25.17
27.48
28.25
27.68
26.09
23.89
21.57
19.55
18.08
17.20
16.82
16.77
16.89
17.01
16.94
16.50
15.51
13.92
11.74
9.12
6.24
3.25
0.25
-2.74
-5.73
-8.80
-12.11
-15.87
-20.24
-25.16
-30.17
-34.47
-37.04
-37.00
-33.91
-27.99
-20.01
-11.04
-2.14
5.88
12.52
17.51
20.70
22.01
21.49
19.41
16.29
12.80
9.61
7.19
5.71
5.03
4.87
4.88
4.78
4.39
3.60
2.38
0.79
-1.03
-2.86
-4.47
-5.71
-6.59
-7.22
-7.86
-8.77
-10.23
-12.52
-15.83
-20.17
-25.18
-30.11
-33.84
-35.20
-33.34
-28.09
-19.99
-10.18
0.02
9.42
17.25
23.16
27.09
29.17
29.60
28.65
26.69
24.23
21.84
20.04
19.16
19.24
20.11
21.37
22.63
23.51
23.76
23.21
21.79
19.51
16.46
12.80
8.81
4.79
1.06
-2.19
-4.92
-7.34
-9.79
-12.70
-16.39
-20.88
-25.78
-30.30
-33.39
-34.11
-31.82
-26.45
-18.50
-8.95
1.08
10.49
18.50
24.64
28.81
31.10
31.78
31.21
29.82
28.03
26.21
24.60
23.30
22.29
21.50
20.93
20.63
20.65
20.97
21.38
21.57
21.20
20.06
18.19
15.83
13.31
10.92
8.80
6.89
4.99
2.81
-0.02
-3.79
-8.71
-14.65
-21.08
-27.03
-31.35
-33.11
-31.95
-28.34
-23.38
-18.40
-14.48
-12.13
-11.23
-11.38
-12.07
-13.03
-14.10
-15.21
-16.20
-16.82
-16.85
-16.20
-14.99
-13.45
-11.79
-10.08
-8.23
-6.10
-3.69
-1.20
0.96
2.35
2.66
1.91
0.43
-1.23
-2.57
-3.31
-3.55
-3.69
-4.30
-5.89
-8.68
-12.51
-16.80
-20.64
-23.00
-22.99
-20.17
-14.66
-7.12
1.45
10.08
18.02
24.93
30.67
35.20
38.35
39.95
39.92
38.49
36.19
33.74
31.74
30.42
29.66
29.12
28.52
27.84
27.29
27.09
27.25
27.39
26.91
25.25
22.20
18.00
13.21
8.43
3.98
-0.13
-4.14
-8.35
-12.92
-17.89
-23.18
-28.78
-34.65
-40.63
-46.27
-50.77
-53.19
-52.76
-49.19
-42.90
-34.92
-26.56
-18.93
-12.68
-7.83
-3.99
-0.70
2.30
4.97
7.11
8.59
9.58
10.50
11.91
14.20
17.42
21.24
25.15
28.64
31.43
33.39
34.44
34.45
33.12
30.17
25.52
19.52
12.88
6.60
1.50
-1.97
-3.96
-5.03
-5.95
-7.35
-9.58
-12.77
-16.79
-21.41
-26.15
-30.28
-32.80
-32.70
-29.27
-22.47
-12.99
-2.09
8.81
18.46
26.05
31.19
33.81
34.06
32.19
28.60
23.81
18.42
12.99
8.03
3.90
0.84
-1.00
-1.62
-1.12
0.27
2.17
4.12
5.63
6.27
5.76
3.99
1.08
-2.70
-7.03
-11.58
-16.18
-20.83
-25.69
-30.99
-36.84
-43.05
-49.00
-53.72
-56.10
-55.22
-50.72
-42.94
-32.86
-21.78
-10.94
-1.31
6.56
12.43
16.25
18.04
17.94
16.28
13.57
10.50
7.71
5.66
4.53
4.19
4.36
4.70
4.96
4.96
4.62
3.86
2.64
0.94
-1.16
-3.46
-5.77
-7.93
-9.94
-11.98
-14.30
-17.20
-20.80
-25.01
-29.39
-33.23
-35.66
-35.90
-33.49
-28.51
-21.52
-13.48
-5.40
1.89
7.91
12.49
15.62
17.38
17.81
17.00
15.19
12.74
10.13
7.81
6.08
5.01
4.49
4.28
4.15
3.89
3.41
2.68
1.77
0.84
0.05
-0.46
-0.67
-0.66
-0.64
-0.84
-1.49
-2.76
-4.78
-7.56
-10.96
-14.55
-17.59
-19.13
-18.26
-14.38
-7.50
1.74
12.23
22.65
31.85
39.01
43.76
46.06
46.13
44.32
41.12
37.09
32.84
28.92
25.71
23.25
21.36
19.58
17.46
14.62
10.90
6.47
1.71
-2.83
-6.64
-9.38
-11.07
-12.04
-12.80
-13.94
-15.89
-18.86
-22.76
-27.21
-31.54
-34.90
-36.40
-35.37
-31.57
-25.26
-17.15
-8.18
0.70
8.73
15.36
20.26
23.25
24.38
23.98
22.64
21.07
19.89
19.38
19.43
19.62
19.41
18.44
16.57
13.88
10.54
6.72
2.51
-1.93
-6.38
-10.46
-13.84
-16.33
-18.08
-19.49
-21.16
-23.57
-26.86
-30.76
-34.54
-37.20
-37.79
-35.63
-30.55
-22.94
-13.61
-3.49
6.53
15.88
24.18
31.23
36.82
40.73
42.85
43.19
41.91
39.31
35.65
31.16
26.05
20.55
14.99
9.73
5.13
1.41
-1.29
-2.97
-3.69
-3.61
-2.96
-2.17
-1.74
-2.24
-4.14
-7.78
-13.35
-20.84
-30.01
-40.29
-50.70
-59.91
-66.54
-69.47
-68.28
-63.36
-55.77
-46.91
-38.08
-30.23
-23.99
-19.61
-17.05
-15.97
-15.64
-15.11
-13.40
-9.93
-4.64
1.93
8.88
15.29
20.46
24.01
25.85
26.12
25.11
23.28
21.16
19.30
18.07
17.59
17.66
17.94
18.01
17.59
16.60
15.11
13.31
11.40
9.48
7.59
5.59
3.28
0.40
-3.28
-7.80
-12.98
-18.25
-22.79
-25.66
-26.13
-23.90
-19.22
-12.71
-5.22
2.47
9.79
16.36
21.84
25.90
28.21
28.59
27.19
24.52
21.39
18.61
16.68
15.68
15.28
14.97
14.34
13.27
11.90
10.46
9.07
7.60
5.81
3.48
0.49
-3.14
-7.34
-12.09
-17.36
-22.92
-28.20
-32.33
-34.31
-33.42
-29.56
-23.24
-15.40
-7.06
0.97
8.24
14.44
19.34
22.62
24.05
23.55
21.42
18.27
14.88
11.91
9.72
8.30
7.36
6.47
5.32
3.78
1.97
0.09
-1.63
-3.12
-4.49
-6.02
-8.01
-10.73
-14.32
-18.74
-23.66
-28.50
-32.43
-34.53
-34.05
-30.63
-24.42
-16.12
-6.69
2.86
11.66
19.07
24.69
28.29
29.84
29.51
27.73
25.06
22.14
19.46
17.33
15.79
14.68
13.72
12.64
11.22
9.40
7.25
4.99
2.87
1.06
-0.43
-1.83
-3.51
-5.90
-9.30
-13.77
-19.02
-24.40
-28.98
-31.82
-32.11
-29.49
-24.08
-16.49
-7.64
1.49
10.06
17.42
23.20
27.20
29.37
29.80
28.72
26.53
23.74
20.90
18.48
16.74
15.70
15.12
14.63
13.88
12.70
11.08
9.22
7.34
5.60
3.98
2.35
0.51
-1.71
-4.40
-7.61
-11.35
-15.57
-20.07
-24.37
-27.72
-29.23
-28.18
-24.27
-17.80
-9.64
-0.89
7.37
14.36
19.69
23.29
25.29
25.86
25.22
23.57
21.17
18.35
15.48
12.92
10.95
9.67
9.01
8.71
8.44
7.91
6.94
5.56
3.89
2.09
0.30
-1.44
-3.15
-4.96
-7.01
-9.51
-12.64
-16.44
-20.69
-24.84
-28.07
-29.51
-28.55
-25.02
-19.28
-12.07
-4.23
3.48
10.52
16.47
20.99
23.83
24.89
24.32
22.63
20.55
18.83
18.02
18.34
19.65
21.64
23.92
26.19
28.27
30.04
31.48
32.60
33.46
34.10
34.53
34.64
34.22
32.99
30.67
27.08
22.25
16.43
10.15
4.16
-0.73
-3.75
-4.44
-2.67
1.23
6.61
12.64
18.47
23.34
26.68
28.08
27.37
24.66
20.37
15.14
9.77
4.94
1.13
-1.52
-3.18
-4.16
-4.89
-5.73
-6.95
-8.65
-10.86
-13.45
-16.29
-19.23
-22.16
-25.07
-27.97
-30.97
-34.18
-37.70
-41.49
-45.28
-48.53
-50.46
-50.31
-47.61
-42.36
-35.06
-26.53
-17.60
-8.95
-1.00
6.01
11.91
16.55
19.84
21.84
22.81
23.17
23.37
23.77
24.57
25.73
27.12
28.60
30.07
31.44
32.58
33.20
32.87
31.09
27.52
22.13
15.32
7.75
0.14
-6.96
-13.30
-18.90
-23.90
-28.42
-32.55
-36.32
-39.71
-42.65
-44.89
-46.00
-45.49
-42.93
-38.24
-31.74
-24.14
-16.37
-9.35
-3.79
-0.09
1.65
1.65
0.30
-1.99
-4.95
-8.58
-13.06
-18.58
-25.04
-31.98
-38.54
-43.85
-47.32
-48.89
-49.08
-48.69
-48.51
-48.94
-49.91
-50.94
-51.32
-50.43
-47.84
-43.43
-37.36
-29.90
-21.45
-12.45
-3.45
4.91
11.94
17.10
20.17
21.37
21.30
20.73
20.33
20.42
20.91
21.42
21.53
20.95
19.69
18.01
16.26
14.76
13.69
12.98
12.40
11.57
10.09
7.64
4.15
-0.25
-5.11
-9.82
-13.65
-15.91
-16.09
-14.01
-9.93
-4.48
1.46
7.10
11.92
15.83
19.11
22.09
24.93
27.36
28.79
28.59
26.53
22.94
18.74
15.09
12.99
12.92
14.80
18.14
22.18
26.15
29.26
30.79
30.16
27.07
21.60
14.15
5.27
-4.63
-15.39
-26.88
-38.75
-50.20
-59.95
-66.65
-69.19
-67.14
-60.72
-50.71
-38.19
-24.38
-10.57
1.93
11.86
18.18
20.30
18.36
13.22
6.45
-0.04
-4.36
-5.19
-2.06
4.41
12.75
21.07
27.57
31.06
31.12
28.00
22.41
15.25
7.49
0.13
-5.92
-9.94
-11.60
-11.01
-8.66
-5.11
-0.73
4.51
10.95
18.97
28.67
39.75
51.51
63.12
73.81
82.98
90.24
95.39
98.42
99.50
99.03
97.52
95.50
93.32
91.07
88.46
84.94
79.97
73.19
64.61
54.75
44.50
34.84
26.56
20.00
14.95
10.89
7.15
3.23
-1.16
-6.07
-11.58
-17.82
-24.98
-33.08
-41.75
-50.17
-57.27
-62.03
-63.91
-63.00
-59.96
-55.76
-51.33
-47.31
-44.03
-41.54
-39.73
-38.40
-37.26
-35.91
-33.90
-30.82
-26.45
-20.79
-14.07
-6.64
1.12
8.92
16.51
23.66
29.97
34.92
37.83
38.04
35.11
29.05
20.33
9.82
-1.51
-12.87
-23.90
-34.65
-45.32
-55.98
-66.34
-75.77
-83.60
-89.47
-93.49
-96.15
-98.01
-99.38
-100.19
-100.11
-98.87
-96.48
-93.34
-90.06
-87.20
-85.00
-83.36
-81.96
-80.42
-78.56
-76.41
-74.18
-72.08
-70.22
-68.49
-66.68
-64.57
-62.09
-59.35
-56.58
-54.04
-51.83
-49.89
-48.08
-46.19
-44.12
-41.91
-39.80
-38.17
-37.43
-37.90
-39.57
-42.00
-44.28
-45.25
-43.79
-39.15
-31.19
-20.43
-7.86
5.32
17.96
29.18
38.42
45.44
50.24
53.04
54.22
54.30
53.86
53.45
53.48
54.12
55.31
56.75
58.00
58.68
58.54
57.45
55.41
52.49
48.77
44.36
39.45
34.25
29.02
23.98
19.20
14.60
9.91
4.77
-1.10
-7.69
-14.64
-21.15
-26.17
-28.61
-27.69
-23.19
-15.58
-5.85
4.65
14.66
23.25
29.92
34.58
37.37
38.54
38.34
37.09
35.16
33.02
31.06
29.54
28.49
27.75
27.10
26.38
25.51
24.49
23.30
21.86
20.07
17.90
15.39
12.67
9.87
7.01
4.04
0.91
-2.43
-6.04
-10.01
-14.44
-19.31
-24.29
-28.64
-31.31
-31.24
-27.76
-20.84
-11.18
0.12
11.77
22.69
32.05
39.29
44.16
46.62
47.00
45.89
44.07
42.36
41.29
41.00
41.12
40.94
39.73
37.03
32.89
27.87
22.73
18.06
14.02
10.29
6.29
1.60
-3.85
-9.74
-15.51
-20.66
-24.93
-28.38
-31.31
-34.08
-37.08
-40.46
-44.08
-47.45
-49.75
-50.05
-47.58
-41.97
-33.46
-22.84
-11.24
0.17
10.37
18.69
24.83
28.72
30.53
30.57
29.28
27.21
24.91
22.87
21.37
20.51
20.22
20.33
20.66
21.01
21.18
20.90
19.95
18.21
15.73
12.75
9.58
6.48
3.55
0.75
-2.11
-5.28
-9.03
-13.56
-18.88
-24.69
-30.24
-34.41
-35.96
-33.97
-28.17
-19.11
-8.02
3.58
14.33
23.30
30.06
34.53
36.81
37.05
35.43
32.32
28.29
24.11
20.53
18.07
16.84
16.56
16.68
16.64
16.11
14.98
13.37
11.48
9.48
7.45
5.35
3.10
0.57
-2.40
-6.00
-10.44
-15.80
-21.98
-28.48
-34.41
-38.61
-39.93
-37.64
-31.66
-22.70
-11.99
-0.95
9.20
17.66
24.02
28.21
30.28
30.43
29.01
26.55
23.67
20.99
18.97
17.79
17.41
17.61
18.10
18.60
18.78
18.37
17.17
15.14
12.43
9.32
6.09
2.96
-0.04
-2.98
-5.99
-9.26
-12.98
-17.34
-22.44
-28.11
-33.73
-38.28
-40.53
-39.50
-34.82
-26.88
-16.78
-5.91
4.43
13.32
20.27
25.11
27.87
28.68
27.75
25.49
22.45
19.24
16.40
14.29
12.95
12.20
11.76
11.37
10.84
10.06
8.96
7.48
5.56
3.21
0.49
-2.47
-5.53
-8.61
-11.68
-14.83
-18.21
-22.04
-26.51
-31.66
-37.19
-42.42
-46.25
-47.48
-45.20
-39.08
-29.66
-18.13
-6.08
4.98
14.01
20.51
24.51
26.35
26.45
25.28
23.26
20.82
18.40
16.38
15.06
14.49
14.55
14.90
15.18
15.08
14.42
13.23
11.66
9.91
8.10
6.30
4.45
2.49
0.39
-1.85
-4.18
-6.68
-9.55
-13.04
-17.30
-22.04
-26.55
-29.66
-30.20
-27.39
-21.20
-12.35
-2.07
8.30
17.71
25.52
31.47
35.50
37.64
37.96
36.67
34.15
30.94
27.62
24.64
22.26
20.49
19.20
18.21
17.32
16.40
15.30
13.90
12.06
9.70
6.82
3.53
-0.02
-3.65
-7.21
-10.66
-14.08
-17.65
-21.59
-26.05
-30.99
-35.98
-40.25
-42.83
-42.89
-39.99
-34.29
-26.51
-17.67
-8.80
-0.71
6.11
11.41
15.07
17.03
17.33
16.12
13.79
10.84
7.86
5.32
3.49
2.42
1.90
1.65
1.37
0.87
0.08
-0.94
-2.09
-3.30
-4.56
-5.93
-7.52
-9.49
-11.99
-15.19
-19.14
-23.62
-28.13
-31.84
-33.79
-33.18
-29.66
-23.46
-15.31
-6.21
2.85
11.10
18.02
23.30
26.72
28.15
27.59
25.29
21.74
17.66
13.84
10.92
9.22
8.61
8.64
8.64
8.08
6.71
4.66
2.28
-0.05
-2.17
-4.16
-6.29
-8.86
-12.09
-16.10
-20.86
-26.17
-31.60
-36.39
-39.55
-40.11
-37.43
-31.55
-23.18
-13.54
-3.91
4.66
11.58
16.62
19.80
21.17
20.83
18.95
15.93
12.34
8.88
6.16
4.53
3.96
4.12
4.52
4.68
4.31
3.36
1.95
0.29
-1.45
-3.24
-5.20
-7.55
-10.58
-14.47
-19.23
-24.56
-29.85
-34.19
-36.66
-36.50
-33.36
-27.41
-19.28
-9.86
-0.06
9.27
17.46
23.94
28.31
30.31
29.99
27.72
24.18
20.22
16.59
13.86
12.22
11.55
11.43
11.34
10.80
9.55
7.59
5.17
2.63
0.22
-2.00
-4.20
-6.69
-9.73
-13.55
-18.16
-23.42
-28.86
-33.73
-37.04
-37.78
-35.26
-29.41
-20.81
-10.57
0.02
9.80
17.96
24.06
27.89
29.42
28.76
26.26
22.50
18.24
14.27
11.23
9.38
8.67
8.75
9.12
9.33
9.08
8.23
6.85
5.05
2.99
0.75
-1.65
-4.23
-7.10
-10.41
-14.37
-19.14
-24.71
-30.68
-36.21
-40.12
-41.21
-38.68
-32.48
-23.33
-12.53
-1.53
8.49
16.80
23.10
27.36
29.62
29.97
28.55
25.67
21.83
17.70
14.00
11.27
9.80
9.50
9.95
10.54
10.65
9.91
8.29
6.06
3.66
1.45
-0.47
-2.26
-4.31
-7.02
-10.71
-15.55
-21.46
-28.07
-34.62
-39.93
-42.62
-41.52
-36.07
-26.67
-14.57
-1.54
10.71
20.96
28.61
33.63
36.22
36.64
35.15
32.11
28.03
23.61
19.59
16.55
14.75
14.10
14.23
14.62
14.77
14.36
13.27
11.59
9.50
7.16
4.65
1.97
-0.96
-4.21
-7.89
-12.11
-16.95
-22.36
-28.00
-33.14
-36.70
-37.56
-34.90
-28.61
-19.33
-8.34
2.88
13.02
21.25
27.19
30.82
32.28
31.77
29.53
25.93
21.50
16.93
12.91
9.97
8.37
7.94
8.23
8.66
8.72
8.09
6.73
4.75
2.32
-0.44
-3.45
-6.69
-10.11
-13.71
-17.59
-21.94
-26.92
-32.48
-38.09
-42.72
-45.07
-43.99
-38.98
-30.41
-19.45
-7.68
3.41
12.79
19.96
24.83
27.48
28.05
26.71
23.79
19.84
15.59
11.85
9.24
8.06
8.14
8.98
9.87
10.21
9.60
8.03
5.74
3.11
0.51
-1.84
-3.88
-5.69
-7.45
-9.36
-11.64
-14.52
-18.06
-22.04
-25.82
-28.41
-28.74
-25.96
-19.89
-11.05
-0.62
10.04
19.72
27.61
33.34
36.80
37.97
36.94
33.94
29.46
24.29
19.29
15.21
12.39
10.75
9.85
9.15
8.21
6.86
5.12
3.16
1.10
-0.99
-3.17
-5.52
-8.17
-11.20
-14.71
-18.78
-23.47
-28.73
-34.20
-39.22
-42.82
-44.00
-42.00
-36.64
-28.37
-18.23
-7.49
2.56
10.97
17.15
20.85
22.11
21.17
18.47
14.66
10.56
6.95
4.48
3.38
3.50
4.30
5.15
5.53
5.20
4.26
3.00
1.67
0.35
-1.12
-3.04
-5.74
-9.47
-14.29
-20.02
-26.19
-31.97
-36.32
-38.15
-36.72
-31.88
-24.14
-14.50
-4.10
6.04
15.20
22.86
28.61
32.08
33.05
31.66
28.50
24.55
20.91
18.36
17.20
17.16
17.58
17.78
17.25
15.83
13.64
10.95
8.01
4.89
1.46
-2.52
-7.39
-13.36
-20.51
-28.54
-36.80
-44.26
-49.69
-51.99
-50.47
-45.13
-36.65
-26.18
-15.04
-4.39
4.88
12.17
17.13
19.60
19.64
17.61
14.18
10.24
6.71
4.23
3.01
2.76
2.87
2.65
1.69
-0.01
-2.10
-4.08
-5.58
-6.51
-7.14
-7.99
-9.61
-12.40
-16.49
-21.62
-27.13
-32.02
-35.10
-35.24
-31.72
-24.53
-14.42
-2.71
9.06
19.61
28.17
34.52
38.77
41.11
41.62
40.32
37.39
33.29
28.78
24.77
21.89
20.31
19.67
19.32
18.63
17.27
15.27
12.90
10.42
7.89
5.15
1.98
-1.76
-6.12
-11.02
-16.36
-21.92
-27.33
-31.94
-34.84
-35.14
-32.22
-26.07
-17.34
-7.11
3.33
12.86
20.63
26.12
29.03
29.31
27.19
23.22
18.30
13.45
9.58
7.25
6.46
6.77
7.44
7.80
7.40
6.21
4.46
2.56
0.79
-0.78
-2.45
-4.65
-7.90
-12.51
-18.43
-25.18
-31.81
-37.12
-39.85
-39.09
-34.55
-26.61
-16.29
-4.89
6.31
16.29
24.39
30.21
33.56
34.36
32.76
29.22
24.50
19.59
15.44
12.67
11.40
11.28
11.60
11.61
10.86
9.24
7.05
4.70
2.50
0.47
-1.65
-4.31
-7.93
-12.79
-18.84
-25.63
-32.31
-37.68
-40.45
-39.61
-34.80
-26.46
-15.75
-4.14
7.01
16.77
24.70
30.60
34.39
35.95
35.26
32.54
28.40
23.73
19.49
16.39
14.66
14.02
13.85
13.50
12.57
11.02
9.14
7.28
5.68
4.30
2.81
0.81
-2.03
-5.89
-10.79
-16.62
-23.18
-29.96
-36.09
-40.35
-41.43
-38.39
-31.08
-20.33
-7.70
5.00
16.24
25.08
31.25
34.90
36.32
35.81
33.71
30.44
26.57
22.76
19.55
17.26
15.91
15.28
15.05
14.90
14.58
13.90
12.76
11.06
8.82
6.07
2.96
-0.30
-3.52
-6.53
-9.28
-11.86
-14.52
-17.62
-21.51
-26.33
-31.74
-36.94
-40.72
-41.82
-39.34
-33.09
-23.67
-12.30
-0.49
10.44
19.55
26.37
30.83
33.03
33.18
31.63
28.82
25.40
22.07
19.48
18.00
17.70
18.26
19.22
20.11
20.64
20.73
20.43
19.80
18.81
17.33
15.23
12.53
9.35
5.95
2.59
-0.55
-3.45
-6.21
-9.04
-12.19
-15.94
-20.51
-25.84
-31.50
-36.52
-39.68
-39.81
-36.27
-29.21
-19.56
-8.74
1.81
11.00
18.22
23.28
26.27
27.34
26.65
24.51
21.32
17.70
14.29
11.60
9.90
9.14
9.05
9.22
9.36
9.33
9.12
8.79
8.34
7.68
6.61
4.99
2.76
0.04
-2.92
-5.86
-8.56
-10.96
-13.16
-15.41
-18.08
-21.47
-25.64
-30.31
-34.71
-37.84
-38.64
-36.38
-30.97
-22.93
-13.29
-3.27
6.00
13.69
19.28
22.56
23.55
22.59
20.21
17.11
13.97
11.29
9.30
7.99
7.19
6.73
6.46
6.28
6.08
5.75
5.19
4.32
3.13
1.71
0.12
-1.57
-3.36
-5.25
-7.25
-9.30
-11.39
-13.61
-16.14
-19.19
-22.80
-26.63
-29.92
-31.67
-31.01
-27.58
-21.67
-14.15
-6.12
1.44
7.87
12.85
16.27
18.10
18.41
17.36
15.30
12.70
10.05
7.68
5.76
4.32
3.34
2.78
2.60
2.71
2.92
3.01
2.76
2.06
0.92
-0.57
-2.26
-4.05
-5.85
-7.64
-9.41
-11.22
-13.23
-15.66
-18.70
-22.30
-26.09
-29.27
-30.91
-30.20
-26.83
-21.09
-13.80
-5.99
1.44
7.85
12.94
16.56
18.63
19.14
18.15
15.94
13.02
9.99
7.44
5.70
4.85
4.70
4.90
5.12
5.09
4.68
3.90
2.81
1.53
0.17
-1.22
-2.62
-4.05
-5.58
-7.28
-9.29
-11.78
-14.89
-18.64
-22.80
-26.74
-29.58
-30.39
-28.54
-23.97
-17.31
-9.61
-1.99
4.69
10.07
14.12
16.97
18.68
19.16
18.29
16.13
13.03
9.56
6.37
4.00
2.67
2.26
2.42
2.66
2.59
2.00
0.90
-0.53
-2.05
-3.51
-4.91
-6.37
-8.12
-10.34
-13.12
-16.53
-20.53
-24.98
-29.51
-33.52
-36.21
-36.81
-34.88
-30.52
-24.31
-17.17
-9.98
-3.39
2.23
6.69
9.83
11.50
11.57
10.13
7.55
4.39
1.32
-1.14
-2.73
-3.54
-3.90
-4.25
-4.95
-6.11
-7.62
-9.18
-10.52
-11.57
-12.52
-13.73
-15.65
-18.61
-22.69
-27.60
-32.71
-37.04
-39.51
-39.17
-35.56
-28.82
-19.71
-9.34
1.11
10.72
18.86
25.20
29.52
31.69
31.71
29.79
26.42
22.28
18.16
14.66
12.13
10.56
9.65
8.96
8.10
6.88
5.36
3.75
2.28
1.00
-0.22
-1.70
-3.82
-6.88
-11.02
-16.08
-21.59
-26.72
-30.45
-31.76
-29.97
-25.01
-17.40
-8.19
1.40
10.32
17.82
23.46
27.00
28.33
27.49
24.81
20.93
16.71
13.02
10.46
9.19
8.95
9.23
9.51
9.51
9.17
8.63
8.03
7.35
6.41
4.87
2.37
-1.34
-6.35
-12.53
-19.37
-25.99
-31.29
-34.08
-33.51
-29.35
-22.11
-12.89
-3.01
6.36
14.38
20.59
24.73
26.64
26.31
23.98
20.30
16.19
12.63
10.31
9.41
9.61
10.26
10.73
10.64
9.91
8.70
7.24
5.68
4.05
2.22
-0.07
-3.11
-7.12
-12.12
-17.74
-23.19
-27.36
-29.10
-27.61
-22.74
-15.03
-5.61
4.22
13.29
20.80
26.34
29.77
31.10
30.42
27.99
24.23
19.79
15.43
11.85
9.48
8.35
8.15
8.36
8.45
8.09
7.25
6.12
4.98
3.92
2.80
1.19
-1.39
-5.27
-10.42
-16.35
-22.15
-26.70
-28.97
-28.29
-24.51
-18.04
-9.69
-0.48
8.61
16.73
23.26
27.77
30.05
30.07
28.05
24.50
20.17
15.89
12.38
10.10
9.13
9.16
9.68
10.12
10.07
9.38
8.17
6.66
5.09
3.51
1.76
-0.44
-3.43
-7.42
-12.38
-18.01
-23.62
-28.27
-30.92
-30.70
-27.25
-20.79
-12.17
-2.58
6.76
14.85
21.05
24.99
26.57
25.89
23.28
19.31
14.78
10.53
7.24
5.19
4.24
3.98
3.90
3.58
2.84
1.71
0.38
-0.95
-2.11
-3.11
-4.08
-5.34
-7.22
-10.08
-14.09
-19.09
-24.48
-29.30
-32.38
-32.72
-29.77
-23.70
-15.29
-5.73
3.75
12.19
18.97
23.77
26.44
26.95
25.41
22.21
18.00
13.62
9.86
7.21
5.76
5.25
5.20
5.15
4.80
4.10
3.10
1.92
0.62
-0.87
-2.66
-4.90
-7.73
-11.25
-15.53
-20.52
-25.91
-31.07
-35.00
-36.62
-35.07
-30.05
-22.00
-11.96
-1.27
8.82
17.41
23.98
28.29
30.25
29.90
27.50
23.58
18.94
14.54
11.23
9.53
9.45
10.54
12.01
13.07
13.14
12.03
9.94
7.33
4.66
2.22
0.02
-2.16
-4.69
-7.95
-12.24
-17.60
-23.75
-29.93
-34.97
-37.55
-36.57
-31.59
-23.08
-12.28
-0.79
9.89
18.80
25.53
30.04
32.46
32.88
31.37
28.17
23.78
18.98
14.61
11.37
9.52
8.88
8.90
8.87
8.19
6.56
4.00
0.82
-2.58
-5.91
-9.03
-12.02
-15.09
-18.51
-22.56
-27.42
-33.13
-39.41
-45.59
-50.54
-52.94
-51.65
-46.16
-36.83
-24.88
-11.92
0.51
11.38
20.20
26.90
31.51
34.03
34.54
33.25
30.68
27.58
24.67
22.46
21.12
20.41
19.96
19.34
18.25
16.57
14.35
11.77
9.02
6.23
3.46
0.62
-2.53
-6.26
-10.88
-16.51
-22.96
-29.61
-35.37
-39.01
-39.42
-36.06
-29.15
-19.62
-8.83
1.84
11.32
18.94
24.42
27.74
28.98
28.32
26.08
22.68
18.71
14.85
11.73
9.76
9.03
9.23
9.76
9.93
9.26
7.59
5.12
2.25
-0.70
-3.62
-6.63
-9.98
-13.92
-18.61
-24.13
-30.42
-37.22
-43.92
-49.51
-52.70
-52.31
-47.67
-38.96
-27.23
-14.07
-1.15
10.24
19.34
25.92
30.01
31.81
31.58
29.72
26.81
23.54
20.61
18.53
17.55
17.56
18.25
19.18
19.96
20.28
19.94
18.84
16.99
14.49
11.53
8.35
5.18
2.16
-0.71
-3.59
-6.81
-10.75
-15.66
-21.47
-27.59
-32.92
-36.09
-35.85
-31.54
-23.28
-11.97
0.93
13.93
25.75
35.55
42.87
47.56
49.67
49.49
47.54
44.56
41.45
39.01
37.70
37.58
38.21
38.86
38.77
37.48
34.95
31.52
27.66
23.71
19.72
15.48
10.72
5.37
-0.42
-6.22
-11.58
-16.22
-20.12
-23.53
-26.92
-30.83
-35.75
-41.88
-48.99
-56.29
-62.48
-66.03
-65.67
-60.77
-51.59
-39.27
-25.45
-11.86
0.10
9.54
16.12
19.88
21.18
20.53
18.59
16.05
13.64
11.93
11.27
11.69
12.94
14.58
16.12
17.19
17.58
17.32
16.56
15.46
14.13
12.55
10.57
8.00
4.71
0.76
-3.58
-7.90
-11.81
-15.10
-17.81
-20.24
-22.82
-26.05
-30.29
-35.71
-42.11
-48.84
-54.76
-58.45
-58.58
-54.35
-45.81
-33.95
-20.30
-6.54
6.03
16.59
24.78
30.53
33.84
34.87
33.99
31.81
29.11
26.63
24.89
24.07
24.08
24.60
25.30
25.85
26.01
25.63
24.69
23.31
21.65
19.87
17.98
15.83
13.15
9.73
5.53
0.78
-4.11
-8.67
-12.58
-15.77
-18.47
-21.11
-24.14
-27.96
-32.78
-38.46
-44.51
-50.00
-53.74
-54.51
-51.47
-44.43
-33.97
-21.29
-7.91
4.72
15.49
23.75
29.26
32.12
32.68
31.50
29.25
26.64
24.27
22.50
21.47
21.07
21.01
20.97
20.66
19.93
18.75
17.24
15.55
13.79
11.95
9.87
7.32
4.18
0.50
-3.45
-7.30
-10.71
-13.53
-15.85
-18.05
-20.61
-24.03
-28.58
-34.13
-40.04
-45.26
-48.47
-48.56
-44.89
-37.54
-27.29
-15.42
-3.29
7.90
17.27
24.36
28.98
31.23
31.38
29.86
27.23
24.12
21.08
18.55
16.73
15.62
15.02
14.62
14.10
13.23
11.93
10.22
8.17
5.90
3.44
0.80
-1.97
-4.82
-7.67
-10.45
-13.19
-16.10
-19.51
-23.70
-28.66
-33.88
-38.34
-40.73
-39.90
-35.31
-27.26
-16.77
-5.31
5.68
15.15
22.53
27.61
30.44
31.14
29.94
27.22
23.49
19.39
15.54
12.39
10.16
8.83
8.18
7.87
7.61
7.11
6.26
5.04
3.50
1.71
-0.26
-2.42
-4.76
-7.27
-9.96
-12.88
-16.16
-20.02
-24.60
-29.77
-34.96
-39.16
-41.18
-39.98
-35.10
-26.86
-16.31
-4.84
6.15
15.68
23.22
28.64
32.03
33.49
33.14
31.15
27.88
23.87
19.78
16.25
13.67
12.13
11.40
11.03
10.59
9.73
8.33
6.40
4.10
1.55
-1.16
-3.99
-6.93
-9.96
-13.07
-16.31
-19.87
-23.97
-28.72
-33.87
-38.62
-41.75
-41.94
-38.30
-30.75
-20.12
-7.88
4.33
15.19
23.90
30.18
34.08
35.72
35.31
33.10
29.53
25.17
20.65
16.53
13.18
10.73
9.09
7.95
6.94
5.72
4.05
1.89
-0.66
-3.41
-6.18
-8.92
-11.67
-14.57
-17.78
-21.48
-25.83
-30.94
-36.81
-43.12
-49.18
-53.87
-55.94
-54.37
-48.80
-39.65
-28.07
-15.56
-3.58
6.79
14.91
20.52
23.65
24.48
23.36
20.77
17.34
13.75
10.59
8.26
6.94
6.58
6.89
7.49
7.99
8.02
7.37
6.01
4.02
1.56
-1.22
-4.23
-7.50
-11.08
-15.06
-19.48
-24.36
-29.65
-35.25
-40.87
-45.95
-49.62
-50.79
-48.53
-42.37
-32.58
-20.19
-6.69
6.38
17.85
27.04
33.72
37.87
39.55
38.91
36.27
32.26
27.76
23.70
20.84
19.52
19.62
20.64
21.99
23.13
23.73
23.65
22.91
21.50
19.42
16.64
13.16
9.07
4.52
-0.31
-5.38
-10.76
-16.52
-22.59
-28.49
-33.34
-36.06
-35.68
-31.74
-24.50
-14.87
-4.16
6.29
15.41
22.56
27.44
30.04
30.47
28.93
25.77
21.53
16.93
12.77
9.73
8.24
8.31
9.60
11.53
13.42
14.74
15.11
14.37
12.55
9.87
6.62
3.12
-0.39
-3.84
-7.30
-10.97
-15.10
-19.87
-25.24
-30.85
-35.96
-39.56
-40.59
-38.30
-32.52
-23.78
-13.16
-2.04
8.33
17.01
23.48
27.55
29.26
28.77
26.41
22.67
18.12
13.43
9.19
5.83
3.60
2.48
2.23
2.45
2.69
2.57
1.88
0.65
-0.95
-2.70
-4.47
-6.27
-8.26
-10.66
-13.70
-17.55
-22.25
-27.59
-33.02
-37.68
-40.51
-40.56
-37.31
-30.84
-21.90
-11.58
-1.10
8.57
16.73
22.98
27.04
28.76
28.12
25.37
21.11
16.20
11.65
8.27
6.48
6.20
6.89
7.83
8.33
8.00
6.78
4.93
2.75
0.48
-1.83
-4.32
-7.18
-10.60
-14.70
-19.62
-25.35
-31.72
-38.16
-43.61
-46.77
-46.35
-41.62
-32.71
-20.62
-6.98
6.48
18.32
27.62
33.99
37.43
38.14
36.46
32.90
28.13
22.97
18.24
14.63
12.48
11.69
11.77
12.00
11.71
10.49
8.33
5.57
2.67
-0.01
-2.39
-4.70
-7.41
-10.98
-15.78
-21.86
-28.92
-36.26
-42.77
-47.14
-48.09
-44.79
-37.16
-26.00
-12.78
0.77
13.09
23.11
30.32
34.64
36.21
35.33
32.42
28.02
22.85
17.63
12.99
9.38
6.98
5.70
5.22
5.09
4.78
3.90
2.26
-0.04
-2.72
-5.52
-8.34
-11.37
-15.01
-19.70
-25.79
-33.31
-41.92
-50.81
-58.71
-64.08
-65.45
-61.89
-53.41
-41.00
-26.39
-11.50
2.01
13.09
21.24
26.30
28.31
27.53
24.61
20.62
16.93
14.86
15.15
17.76
21.88
26.29
29.80
31.63
31.51
29.66
26.54
22.66
18.44
14.07
9.50
4.43
-1.57
-8.86
-17.44
-26.67
-35.26
-41.48
-43.65
-40.73
-32.70
-20.66
-6.46
7.83
20.50
30.50
37.46
41.42
42.62
41.32
37.84
32.71
26.74
20.94
16.35
13.66
13.03
14.05
15.81
17.34
17.87
17.12
15.24
12.64
9.70
6.54
3.02
-1.12
-6.06
-11.79
-18.17
-25.03
-32.20
-39.38
-45.95
-50.81
-52.59
-50.06
-42.72
-31.07
-16.63
-1.43
12.58
24.04
32.36
37.59
40.11
40.36
38.80
35.92
32.28
28.57
25.48
23.53
22.94
23.55
24.85
26.18
26.91
26.65
25.30
23.02
20.12
16.90
13.50
9.91
6.08
1.90
-2.64
-7.59
-13.02
-19.08
-25.80
-32.87
-39.42
-44.09
-45.40
-42.28
-34.55
-23.10
-9.57
4.13
16.41
26.35
33.62
38.31
40.62
40.80
39.15
36.09
32.23
28.25
24.75
22.14
20.50
19.70
19.42
19.28
18.94
18.13
16.65
14.39
11.32
7.53
3.18
-1.43
-6.02
-10.39
-14.52
-18.63
-23.12
-28.45
-34.89
-42.27
-49.84
-56.28
-60.01
-59.68
-54.59
-45.08
-32.34
-18.11
-4.16
8.20
18.20
25.54
30.14
32.02
31.34
28.48
24.15
19.33
15.01
11.95
10.45
10.32
11.00
11.76
11.99
11.36
9.87
7.75
5.31
2.76
0.09
-2.86
-6.38
-10.76
-16.22
-22.87
-30.54
-38.65
-46.12
-51.43
-53.07
-50.01
-42.17
-30.48
-16.64
-2.49
10.45
21.26
29.56
35.24
38.26
38.59
36.41
32.23
26.92
21.56
17.09
14.06
12.46
11.86
11.57
10.93
9.57
7.42
4.74
1.85
-0.95
-3.60
-6.26
-9.20
-12.75
-17.15
-22.53
-28.84
-35.71
-42.36
-47.57
-49.87
-48.05
-41.56
-30.89
-17.49
-3.32
9.79
20.62
28.72
34.17
37.24
38.14
37.04
34.24
30.28
26.07
22.53
20.37
19.79
20.42
21.50
22.18
21.86
20.33
17.79
14.73
11.60
8.73
6.17
3.72
1.04
-2.21
-6.32
-11.46
-17.66
-24.71
-32.03
-38.64
-43.21
-44.42
-41.32
-33.74
-22.42
-8.86
5.11
17.85
28.21
35.67
40.15
41.86
41.14
38.46
34.51
30.18
26.46
24.09
23.35
23.92
25.01
25.75
25.56
24.35
22.47
20.38
18.36
16.36
14.02
10.94
6.92
2.09
-3.17
-8.34
-12.99
-16.92
-20.20
-23.12
-26.14
-29.76
-34.36
-39.99
-46.16
-51.87
-55.69
-56.16
-52.28
-43.87
-31.72
-17.41
-2.82
10.38
21.08
28.84
33.71
35.97
35.95
34.01
30.60
26.39
22.19
18.82
16.86
16.46
17.36
18.95
20.54
21.57
21.78
21.19
20.03
18.56
16.96
15.22
13.23
10.78
7.77
4.25
0.42
-3.43
-7.04
-10.28
-13.21
-15.98
-18.80
-21.79
-25.04
-28.67
-32.83
-37.64
-42.93
-48.03
-51.74
-52.60
-49.43
-41.84
-30.49
-16.92
-3.03
9.49
19.61
26.95
31.60
33.80
33.78
31.76
28.17
23.68
19.22
15.72
13.84
13.74
15.02
16.96
18.74
19.84
20.12
19.80
19.23
18.62
17.92
16.86
15.13
12.54
9.20
5.40
1.55
-2.02
-5.13
-7.80
-10.19
-12.51
-14.99
-17.86
-21.37
-25.71
-30.92
-36.71
-42.34
-46.63
-48.22
-46.02
-39.63
-29.54
-17.02
-3.73
8.74
19.29
27.33
32.65
35.29
35.36
33.13
29.10
24.05
18.90
14.51
11.42
9.78
9.26
9.31
9.34
8.91
7.89
6.40
4.71
3.04
1.50
0.04
-1.48
-3.14
-4.88
-6.49
-7.72
-8.43
-8.67
-8.83
-9.50
-11.34
-14.82
-19.97
-26.21
-32.37
-37.00
-38.71
-36.64
-30.71
-21.61
-10.46
1.42
12.87
22.97
31.03
36.57
39.31
39.25
36.66
32.05
26.05
19.25
12.18
5.30
-0.97
-6.20
-10.08
-12.50
-13.62
-13.86
-13.71
-13.62
-13.81
-14.30
-14.93
-15.60
-16.24
-16.93
-17.86
-19.19
-21.12
-23.76
-27.13
-30.98
-34.75
-37.54
-38.33
-36.30
-31.15
-23.26
-13.62
-3.50
5.88
13.66
19.41
22.98
24.41
23.80
21.34
17.38
12.53
7.55
3.23
0.13
-1.59
-2.17
-2.14
-2.06
-2.34
-3.10
-4.26
-5.61
-7.02
-8.48
-10.12
-12.10
-14.57
-17.70
-21.61
-26.34
-31.74
-37.32
-42.23
-45.34
-45.60
-42.33
-35.49
-25.74
-14.22
-2.25
8.95
18.51
25.84
30.65
32.83
32.47
29.91
25.74
20.77
15.93
11.97
9.33
7.96
7.40
7.02
6.24
4.86
3.00
1.02
-0.78
-2.33
-3.88
-5.86
-8.70
-12.67
-17.83
-24.00
-30.71
-37.25
-42.59
-45.59
-45.23
-40.96
-32.93
-22.06
-9.72
2.57
13.53
22.34
28.56
32.06
32.91
31.33
27.76
22.88
17.57
12.75
9.12
6.92
5.90
5.43
4.82
3.62
1.75
-0.52
-2.80
-4.82
-6.59
-8.39
-10.67
-13.88
-18.29
-23.92
-30.45
-37.12
-42.79
-46.09
-45.77
-41.12
-32.27
-20.23
-6.58
6.95
18.96
28.56
35.39
39.40
40.71
39.54
36.31
31.71
26.69
22.26
19.18
17.70
17.50
17.84
17.93
17.22
15.62
13.38
10.91
8.50
6.13
3.53
0.28
-4.03
-9.51
-15.98
-22.79
-28.91
-33.13
-34.36
-31.99
-26.10
-17.46
-7.32
3.01
12.45
20.24
25.99
29.46
30.56
29.40
26.34
22.07
17.43
13.24
10.06
8.01
6.89
6.26
5.71
5.01
4.11
3.08
1.97
0.71
-0.94
-3.31
-6.75
-11.46
-17.37
-24.03
-30.60
-35.94
-38.86
-38.39
-34.13
-26.34
-15.91
-4.14
7.57
18.04
26.42
32.22
35.26
35.62
33.64
29.90
25.19
20.42
16.39
13.61
12.17
11.73
11.66
11.35
10.41
8.83
6.88
4.89
3.07
1.34
-0.64
-3.35
-7.23
-12.41
-18.59
-24.97
-30.34
-33.35
-32.96
-28.72
-21.00
-10.86
0.30
11.14
20.65
28.21
33.52
36.46
36.99
35.29
31.82
27.28
22.57
18.48
15.50
13.73
12.82
12.22
11.38
9.93
7.86
5.39
2.85
0.50
-1.63
-3.78
-6.31
-9.64
-13.98
-19.32
-25.30
-31.16
-35.88
-38.29
-37.37
-32.57
-24.03
-12.65
0.20
12.96
24.29
33.31
39.56
42.96
43.62
41.84
38.08
33.01
27.50
22.39
18.33
15.54
13.80
12.51
11.04
8.92
6.06
2.67
-0.89
-4.29
-7.41
-10.29
-13.10
-16.06
-19.43
-23.41
-28.06
-33.05
-37.64
-40.73
-41.15
-38.07
-31.37
-21.73
-10.39
1.16
11.61
19.99
25.81
28.99
29.80
28.83
26.90
24.90
23.54
23.11
23.42
23.83
23.56
21.98
18.90
14.62
9.72
4.83
0.33
-3.70
-7.50
-11.39
-15.70
-20.59
-26.01
-31.57
-36.62
-40.23
-41.45
-39.56
-34.34
-26.20
-16.04
-5.05
5.65
15.21
23.10
29.04
32.93
34.85
35.03
33.95
32.26
30.60
29.50
29.19
29.71
30.94
32.73
34.90
37.18
39.06
39.84
38.83
35.62
30.32
23.54
16.14
8.85
2.11
-3.91
-8.92
-12.33
-13.27
-10.87
-4.76
4.62
16.12
28.21
39.46
48.86
55.80
59.92
60.95
58.74
53.41
45.60
36.51
27.63
20.35
15.49
13.16
12.77
13.40
14.17
14.56
14.43
13.93
13.26
12.51
11.62
10.46
8.91
6.94
4.56
1.79
-1.40
-4.98
-8.77
-12.32
-15.04
-16.39
-16.13
-14.52
-12.28
-10.29
-9.29
-9.61
-11.13
-13.48
-16.28
-19.28
-22.40
-25.57
-28.64
-31.32
-33.30
-34.38
-34.60
-34.23
-33.72
-33.51
-33.86
-34.77
-35.98
-37.12
-37.83
-37.94
-37.53
-36.82
-36.19
-35.94
-36.30
-37.34
-38.97
-40.92
-42.67
-43.55
-42.84
-40.01
-34.95
-28.04
-20.13
-12.22
-5.22
0.26
4.00
6.05
6.63
6.08
4.79
3.18
1.66
0.50
-0.26
-0.82
-1.51
-2.63
-4.29
-6.35
-8.58
-10.72
-12.69
-14.60
-16.66
-19.06
-21.79
-24.70
-27.48
-29.83
-31.56
-32.61
-33.13
-33.40
-33.82
-34.85
-36.81
-39.69
-43.03
-45.93
-47.24
-46.03
-41.87
-35.08
-26.57
-17.53
-9.02
-1.75
3.97
8.12
10.78
12.09
12.20
11.40
10.08
8.71
7.77
7.55
8.16
9.42
10.95
12.28
13.03
13.03
12.37
11.33
10.19
9.10
7.97
6.61
4.87
2.77
0.51
-1.63
-3.41
-4.81
-5.97
-7.11
-8.50
-10.32
-12.75
-15.85
-19.55
-23.51
-27.07
-29.30
-29.34
-26.60
-21.08
-13.40
-4.57
4.28
12.17
18.49
22.96
25.52
26.33
25.65
23.84
21.39
18.83
16.60
15.02
14.14
13.80
13.74
13.65
13.36
12.82
12.02
10.95
9.53
7.69
5.44
2.96
0.53
-1.56
-3.22
-4.60
-6.03
-7.92
-10.52
-13.93
-17.96
-22.23
-26.15
-28.95
-29.92
-28.48
-24.47
-18.23
-10.55
-2.47
5.00
11.09
15.38
17.75
18.29
17.24
14.99
12.04
8.99
6.43
4.76
4.09
4.23
4.81
5.44
5.87
6.02
5.90
5.58
5.02
4.16
2.92
1.29
-0.64
-2.68
-4.62
-6.33
-7.82
-9.24
-10.86
-13.01
-15.95
-19.64
-23.66
-27.19
-29.21
-28.83
-25.58
-19.65
-11.80
-3.10
5.39
12.84
18.76
22.93
25.26
25.79
24.71
22.42
19.50
16.63
14.39
13.06
12.62
12.80
13.22
13.55
13.65
13.49
13.13
12.64
12.02
11.17
9.96
8.32
6.25
3.85
1.28
-1.23
-3.51
-5.47
-7.19
-8.90
-10.94
-13.69
-17.27
-21.38
-25.25
-27.77
-27.85
-24.85
-18.84
-10.64
-1.54
7.11
14.31
19.55
22.83
24.36
24.44
23.30
21.13
18.22
14.99
12.00
9.72
8.42
8.02
8.10
8.14
7.76
6.88
5.77
4.86
4.48
4.67
5.06
5.14
4.41
2.69
0.17
-2.67
-5.37
-7.57
-9.22
-10.49
-11.71
-13.19
-15.23
-18.02
-21.55
-25.61
-29.66
-32.87
-34.37
-33.42
-29.75
-23.64
-15.88
-7.51
0.43
7.13
12.13
15.30
16.70
16.56
15.23
13.16
10.88
8.97
7.90
7.87
8.70
9.92
10.91
11.16
10.49
9.10
7.42
5.89
4.74
3.92
3.19
2.31
1.18
-0.09
-1.28
-2.22
-2.87
-3.42
-4.19
-5.56
-7.83
-11.10
-15.15
-19.41
-22.99
-24.89
-24.26
-20.72
-14.52
-6.48
2.19
10.31
16.95
21.58
24.13
24.77
23.86
21.82
19.11
16.14
13.29
10.88
9.11
8.10
7.81
8.08
8.63
9.14
9.27
8.80
7.70
6.05
4.08
1.99
-0.05
-1.98
-3.82
-5.65
-7.58
-9.76
-12.34
-15.41
-18.90
-22.39
-25.21
-26.48
-25.47
-21.84
-15.81
-8.20
-0.08
7.44
13.60
18.03
20.74
21.88
21.65
20.22
17.79
14.71
11.44
8.55
6.52
5.59
5.65
6.33
7.15
7.67
7.65
7.05
5.95
4.48
2.72
0.70
-1.62
-4.23
-7.09
-10.12
-13.26
-16.53
-19.98
-23.55
-26.88
-29.30
-29.88
-27.81
-22.77
-15.14
-6.00
3.30
11.49
17.80
21.99
24.21
24.75
23.90
21.93
19.16
16.01
12.97
10.41
8.58
7.51
7.05
6.98
7.04
7.01
6.72
6.07
5.09
3.85
2.51
1.13
-0.27
-1.78
-3.51
-5.57
-8.06
-11.06
-14.62
-18.66
-22.84
-26.47
-28.60
-28.30
-24.98
-18.73
-10.37
-1.19
7.45
14.52
19.56
22.53
23.69
23.36
21.83
19.38
16.38
13.32
10.67
8.79
7.82
7.62
7.86
8.19
8.29
8.01
7.35
6.38
5.22
3.96
2.63
1.19
-0.38
-2.13
-4.08
-6.25
-8.69
-11.53
-14.90
-18.81
-22.98
-26.74
-29.14
-29.23
-26.40
-20.64
-12.63
-3.51
5.42
13.10
18.86
22.51
24.16
24.07
22.57
20.04
16.91
13.67
10.82
8.70
7.49
7.10
7.27
7.65
7.94
7.93
7.54
6.84
5.90
4.83
3.66
2.42
1.08
-0.40
-2.01
-3.77
-5.72
-7.96
-10.61
-13.77
-17.35
-20.93
-23.77
-24.97
-23.80
-19.95
-13.70
-5.86
2.49
10.23
16.53
20.92
23.30
23.83
22.83
20.74
18.02
15.10
12.35
10.06
8.38
7.33
6.81
6.67
6.72
6.80
6.82
6.72
6.45
5.93
5.06
3.75
2.02
-0.01
-2.10
-4.09
-5.90
-7.67
-9.68
-12.24
-15.55
-19.46
-23.39
-26.46
-27.64
-26.17
-21.82
-15.05
-6.92
1.28
8.41
13.78
17.27
19.10
19.61
19.09
17.70
15.60
13.01
10.31
7.89
6.09
5.04
4.63
4.66
4.84
4.93
4.76
4.20
3.20
1.80
0.11
-1.65
-3.30
-4.81
-6.26
-7.87
-9.87
-12.40
-15.47
-18.91
-22.34
-25.18
-26.71
-26.26
-23.39
-18.17
-11.18
-3.42
4.04
10.37
15.07
18.05
19.43
19.40
18.14
15.89
12.93
9.66
6.53
3.97
2.30
1.61
1.74
2.34
2.98
3.27
3.02
2.25
1.19
0.10
-0.88
-1.81
-2.89
-4.38
-6.54
-9.50
-13.14
-17.20
-21.22
-24.73
-27.17
-27.99
-26.71
-23.20
-17.70
-10.63
-2.57
5.77
13.55
19.93
24.18
25.94
25.05
21.84
17.36
13.24
10.85
10.66
12.09
13.94
14.99
14.26
11.46
7.49
3.98
2.35
3.04
5.69
9.45
13.42
16.09
15.67
11.29
3.37
-6.78
-17.95
-29.55
-42.08
-53.40
-62.05
-69.21
-77.08
-85.24
-89.79
-86.07
-71.77
-48.58
-23.82
-4.25
3.13
-5.74
-29.84
-63.18
-96.77
-121.68
-132.34
-124.10
-98.93
-64.45
-29.72
-1.44
17.86
29.34
35.91
40.13
43.06
44.03
42.06
37.70
33.00
30.23
30.36
32.49
34.46
33.99
29.42
20.55
8.97
-2.54
-11.21
-15.28
-14.32
-9.11
-1.05
8.16
17.15
25.26
32.50
39.10
45.05
49.94
53.07
53.81
51.94
47.85
42.57
37.39
33.45
31.26
30.71
31.15
31.81
32.01
31.40
29.97
27.88
25.32
22.43
19.25
15.82
12.21
8.53
4.82
1.07
-2.90
-7.30
-12.40
-18.33
-24.89
-31.50
-37.18
-40.75
-41.16
-37.88
-31.15
-21.93
-11.67
-1.80
6.52
12.73
16.74
18.78
19.22
18.39
16.60
14.13
11.27
8.33
5.56
3.08
0.86
-1.28
-3.60
-6.34
-9.63
-13.49
-17.78
-22.23
-26.49
-30.03
-32.24
-32.42
-30.01
-24.76
-16.91
-7.27
2.91
12.10
18.87
22.21
21.74
17.90
11.89
5.36
0.07
-2.52
-1.59
2.98
10.68
20.61
31.69
42.90
53.31
62.19
68.98
73.35
75.28
75.06
73.18
70.17
66.44
62.10
57.00
50.90
43.72
35.71
27.47
19.66
12.85
7.20
2.54
-1.53
-5.36
-9.12
-12.82
-16.43
-20.00
-23.76
-27.99
-32.87
-38.29
-43.71
-48.22
-50.78
-50.49
-46.90
-40.17
-31.05
-20.61
-10.00
-0.21
8.03
14.25
18.25
20.00
19.75
17.95
15.23
12.29
9.69
7.83
6.87
6.79
7.40
8.39
9.41
10.15
10.39
10.08
9.38
8.48
7.54
6.51
5.13
2.98
-0.32
-4.94
-10.82
-17.62
-24.88
-32.03
-38.45
-43.38
-45.95
-45.35
-41.03
-33.05
-22.13
-9.56
3.11
14.49
23.59
29.95
33.51
34.48
33.25
30.31
26.28
21.81
17.53
13.93
11.24
9.43
8.27
7.38
6.41
5.08
3.24
0.92
-1.76
-4.54
-7.14
-9.20
-10.44
-10.67
-9.85
-8.22
-6.28
-4.78
-4.62
-6.57
-10.95
-17.32
-24.41
-30.39
-33.33
-31.92
-25.92
-16.22
-4.57
7.09
17.17
24.77
29.64
31.99
32.20
30.70
27.93
24.44
20.84
17.78
15.78
15.17
16.04
18.27
21.65
25.90
30.68
35.50
39.70
42.46
43.04
40.93
36.11
28.97
20.22
10.53
0.42
-9.72
-19.53
-28.54
-36.19
-41.99
-45.74
-47.49
-47.42
-45.62
-42.06
-36.67
-29.61
-21.44
-13.07
-5.48
0.58
4.79
7.18
8.00
7.45
5.71
2.91
-0.76
-5.06
-9.72
-14.51
-19.23
-23.73
-27.90
-31.60
-34.81
-37.54
-39.92
-42.15
-44.50
-47.25
-50.60
-54.61
-59.10
-63.69
-67.91
-71.40
-74.09
-76.28
-78.60
-81.80
-86.52
-93.05
-101.18
-110.21
-119.08
-126.56
-131.57
-133.38
-131.82
-127.24
-120.46
-112.54
-104.69
-98.09
-93.79
-92.47
-94.30
-98.79
-104.86
-111.15
-116.48
-120.15
-122.12
-122.82
-122.76
-122.21
-120.94
-118.37
-113.81
-106.75
-96.95
-84.54
-70.03
-54.31
-38.79
-25.22
-15.21
-9.49
-7.30
-6.28
-3.06
5.46
20.84
42.41
67.57
93.00
116.06
135.94
153.65
171.29
190.83
213.05
237.01
260.46
280.61
295.02
302.00
300.58
290.09
269.98
239.98
200.62
153.62
101.96
49.36
-0.38
-44.00
-78.96
-103.44
-116.22
-117.06
-107.09
-89.16
-67.46
-46.58
-30.28
-20.59
-17.65
-20.36
-27.10
-36.33
-46.64
-56.49
-63.91
-66.73
-63.06
-52.06
-34.39
-12.11
11.84
34.60
54.05
69.22
80.16
87.51
92.02
94.21
94.39
92.78
89.70
85.68
81.38
77.41
74.15
71.58
69.38
67.03
64.11
60.38
55.92
51.02
46.09
41.52
37.59
34.46
32.16
30.58
29.54
28.77
28.05
27.26
26.59
26.66
28.49
33.30
42.14
55.41
72.57
92.15
112.00
129.82
143.66
152.29
155.37
153.39
147.42
138.82
129.01
119.11
109.83
101.32
93.28
85.19
76.59
67.30
57.45
47.40
37.42
27.62
17.83
7.83
-2.53
-13.09
-23.42
-32.97
-41.24
-47.98
-53.22
-57.13
-59.98
-62.03
-63.49
-64.51
-65.07
-64.97
-63.81
-61.07
-56.28
-49.30
-40.37
-30.20
-19.76
-10.09
-2.04
3.83
7.34
8.64
8.14
6.36
3.92
1.36
-0.82
-2.27
-2.82
-2.50
-1.55
-0.32
0.81
1.58
1.90
1.82
1.47
0.92
0.16
-0.92
-2.45
-4.52
-7.15
-10.30
-13.90
-17.91
-22.23
-26.63
-30.71
-33.84
-35.32
-34.59
-31.42
-26.07
-19.22
-11.85
-4.93
0.74
4.74
6.97
7.62
7.01
5.50
3.50
1.37
-0.50
-1.81
-2.34
-2.07
-1.20
-0.05
0.96
1.52
1.46
0.80
-0.34
-1.85
-3.62
-5.63
-7.88
-10.39
-13.12
-16.01
-18.98
-22.02
-25.19
-28.63
-32.46
-36.61
-40.68
-43.92
-45.39
-44.30
-40.29
-33.60
-25.06
-15.75
-6.70
1.32
7.92
12.96
16.40
18.28
18.67
17.78
15.97
13.79
11.82
10.58
10.34
11.02
12.24
13.49
14.33
14.60
14.37
13.87
13.25
12.47
11.29
9.49
7.00
4.02
0.90
-1.97
-4.42
-6.48
-8.36
-10.34
-12.69
-15.58
-19.07
-23.08
-27.27
-31.06
-33.72
-34.46
-32.74
-28.42
-21.85
-13.76
-5.09
3.23
10.47
16.16
20.14
22.43
23.20
22.69
21.19
19.00
16.54
14.22
12.45
11.48
11.34
11.80
12.47
12.97
13.01
12.49
11.49
10.13
8.52
6.70
4.65
2.32
-0.32
-3.24
-6.36
-9.54
-12.60
-15.40
-17.85
-20.00
-21.95
-23.97
-26.31
-29.22
-32.77
-36.81
-40.83
-44.10
-45.75
-45.05
-41.65
-35.70
-27.83
-18.96
-10.04
-1.88
4.99
10.28
13.87
15.82
16.29
15.60
14.18
12.49
10.98
9.95
9.54
9.71
10.28
11.01
11.65
12.06
12.15
11.96
11.56
11.04
10.47
9.84
9.13
8.20
6.97
5.38
3.49
1.45
-0.50
-2.16
-3.46
-4.53
-5.66
-7.19
-9.38
-12.29
-15.69
-19.09
-21.85
-23.23
-22.58
-19.56
-14.18
-6.89
1.52
10.15
18.24
25.31
31.16
35.75
39.12
41.24
42.15
41.98
40.99
39.57
38.05
36.63
35.28
33.89
32.35
30.65
28.94
27.43
26.26
25.39
24.57
23.38
21.35
18.13
13.63
8.04
1.79
-4.64
-10.86
-16.71
-22.22
-27.56
-32.87
-38.18
-43.38
-48.21
-52.31
-55.26
-56.59
-55.92
-53.05
-48.12
-41.61
-34.34
-27.19
-20.89
-15.90
-12.29
-9.92
-8.54
-7.94
-7.95
-8.41
-9.14
-9.91
-10.54
-10.94
-11.14
-11.31
-11.63
-12.25
-13.22
-14.46
-15.82
-17.16
-18.39
-19.47
-20.43
-21.30
-22.13
-22.99
-24.00
-25.30
-27.05
-29.34
-32.07
-34.91
-37.24
-38.32
-37.47
-34.31
-28.95
-21.95
-14.21
-6.64
0.03
5.44
9.54
12.44
14.22
14.91
14.50
13.11
11.13
9.06
7.50
6.79
7.05
8.06
9.48
10.96
12.22
13.10
13.47
13.30
12.64
11.68
10.73
10.14
10.12
10.59
11.13
11.10
9.90
7.19
3.15
-1.53
-5.70
-8.16
-8.06
-5.25
-0.45
4.89
9.04
10.51
8.43
2.74
-6.04
-17.08
-29.62
-43.02
-56.68
-69.93
-81.91
-91.71
-98.59
-102.26
-102.94
-101.26
-98.06
-94.08
-89.78
-85.35
-80.77
-75.96
-70.88
-65.56
-60.07
-54.52
-49.01
-43.77
-39.13
-35.50
-33.23
-32.35
-32.40
-32.39
-31.03
-27.12
-20.03
-9.85
2.57
15.91
28.86
40.38
49.89
57.20
62.35
65.49
66.80
66.57
65.23
63.38
61.65
60.52
60.11
60.11
59.96
59.04
56.94
53.63
49.45
44.87
40.37
36.21
32.45
28.98
25.65
22.34
19.00
15.59
12.06
8.39
4.65
1.12
-1.69
-3.04
-2.23
1.16
7.03
14.72
23.15
31.20
37.96
42.88
45.81
46.79
45.96
43.47
39.63
34.93
30.07
25.78
22.59
20.66
19.69
19.12
18.33
16.95
14.94
12.55
10.19
8.18
6.63
5.39
4.20
2.75
0.84
-1.59
-4.55
-8.03
-12.00
-16.33
-20.59
-24.04
-25.77
-25.05
-21.57
-15.75
-8.57
-1.32
4.82
9.07
11.22
11.48
10.26
8.03
5.11
1.73
-1.91
-5.55
-8.86
-11.52
-13.27
-14.07
-14.13
-13.82
-13.53
-13.51
-13.78
-14.17
-14.44
-14.45
-14.23
-13.95
-13.87
-14.21
-15.18
-16.89
-19.40
-22.61
-26.16
-29.36
-31.21
-30.57
-26.44
-18.31
-6.38
8.44
24.63
40.42
54.21
64.82
71.77
75.35
76.47
76.49
76.78
78.37
81.65
86.35
91.73
96.97
101.51
105.35
108.89
112.71
117.16
122.21
127.41
132.03
135.25
136.24
134.22
128.57
118.98
105.53
88.84
69.90
49.92
29.96
10.82
-7.07
-23.47
-38.21
-51.02
-61.59
-69.66
-75.12
-78.13
-79.04
-78.35
-76.52
-73.97
-71.03
-68.04
-65.22
-62.70
-60.28
-57.43
-53.45
-47.81
-40.47
-31.96
-23.17
-14.95
-7.69
-1.31
4.49
9.74
13.90
15.90
14.64
9.49
0.67
-10.75
-23.27
-35.42
-46.17
-55.03
-61.96
-67.06
-70.44
-72.13
-72.20
-70.82
-68.37
-65.49
-62.89
-61.29
-61.19
-62.74
-65.66
-69.39
-73.17
-76.26
-78.14
-78.61
-77.80
-76.13
-74.15
-72.39
-71.13
-70.35
-69.66
-68.46
-66.22
-62.72
-58.21
-53.37
-49.06
-45.88
-43.89
-42.49
-40.69
-37.47
-32.20
-24.85
-15.99
-6.49
2.66
10.66
16.93
21.09
22.93
22.43
19.77
15.61
11.00
7.32
5.87
7.41
11.82
18.02
24.28
28.82
30.39
28.65
24.19
18.16
11.79
5.94
0.89
-3.58
-7.96
-12.61
-17.66
-22.92
-28.09
-32.97
-37.52
-41.74
-45.44
-48.09
-48.85
-46.93
-42.00
-34.49
-25.49
-16.42
-8.48
-2.34
1.96
4.85
6.85
8.34
9.49
10.39
11.09
11.81
12.79
14.24
16.22
18.55
20.95
23.05
24.50
24.98
24.29
22.31
19.12
14.99
10.33
5.56
1.01
-3.27
-7.47
-11.92
-16.88
-22.33
-27.84
-32.56
-35.47
-35.66
-32.74
-26.99
-19.27
-10.77
-2.60
4.50
10.15
14.20
16.55
17.11
15.96
13.49
10.53
8.13
7.17
8.08
10.65
14.20
17.87
21.02
23.37
24.92
25.84
26.17
25.77
24.39
21.80
17.98
13.21
8.00
2.97
-1.37
-4.77
-7.28
-9.23
-11.11
-13.47
-16.74
-21.02
-25.95
-30.69
-34.08
-34.97
-32.63
-26.99
-18.69
-8.88
1.17
10.34
17.88
23.37
26.64
27.73
26.86
24.55
21.51
18.56
16.41
15.46
15.73
16.85
18.32
19.65
20.53
20.85
20.63
19.91
18.68
16.91
14.60
11.83
8.82
5.88
3.28
1.18
-0.47
-1.92
-3.59
-5.94
-9.36
-13.90
-19.19
-24.31
-28.00
-29.02
-26.60
-20.69
-12.09
-2.11
7.87
16.79
24.06
29.51
33.13
34.95
34.97
33.33
30.42
26.85
23.32
20.41
18.38
17.17
16.51
16.03
15.45
14.60
13.38
11.74
9.62
7.01
3.93
0.53
-2.97
-6.32
-9.33
-12.01
-14.60
-17.51
-21.19
-25.89
-31.39
-36.97
-41.45
-43.54
-42.24
-37.19
-28.79
-18.03
-6.23
5.32
15.60
23.95
29.98
33.56
34.75
33.80
31.22
27.71
24.08
21.06
19.17
18.62
19.23
20.58
22.07
23.12
23.29
22.37
20.41
17.65
14.35
10.77
7.07
3.32
-0.47
-4.31
-8.30
-12.61
-17.44
-22.85
-28.58
-33.88
-37.62
-38.62
-36.05
-29.82
-20.66
-9.89
1.00
10.70
18.41
23.79
26.92
28.04
27.49
25.69
23.09
20.21
17.53
15.41
14.05
13.45
13.46
13.84
14.34
14.78
15.00
14.84
14.12
12.73
10.64
7.95
4.90
1.75
-1.34
-4.35
-7.40
-10.70
-14.49
-18.90
-23.92
-29.23
-34.20
-37.88
-39.24
-37.43
-32.16
-23.79
-13.35
-2.18
8.37
17.33
24.15
28.76
31.34
32.14
31.50
29.75
27.32
24.76
22.64
21.42
21.26
21.96
23.05
23.99
24.40
24.23
23.63
22.79
21.71
20.13
17.72
14.23
9.77
4.76
-0.20
-4.60
-8.23
-11.27
-14.18
-17.53
-21.81
-27.17
-33.35
-39.56
-44.70
-47.54
-47.11
-43.03
-35.66
-26.03
-15.48
-5.32
3.49
10.41
15.33
18.35
19.66
19.50
18.19
16.11
13.74
11.53
9.77
8.57
7.87
7.50
7.33
7.31
7.38
7.43
7.24
6.49
4.88
2.32
-1.05
-4.88
-8.76
-12.38
-15.62
-18.55
-21.41
-24.52
-28.26
-32.94
-38.61
-44.87
-50.78
-55.02
-56.24
-53.54
-46.82
-36.87
-25.04
-12.89
-1.69
7.75
15.07
20.26
23.46
24.91
24.92
23.87
22.16
20.20
18.35
16.86
15.89
15.50
15.65
16.22
17.02
17.80
18.31
18.33
17.73
16.43
14.50
12.11
9.49
6.88
4.41
2.08
-0.29
-3.01
-6.44
-10.81
-16.17
-22.14
-28.00
-32.66
-34.99
-34.09
-29.65
-22.07
-12.38
-1.96
7.91
16.29
22.71
27.09
29.55
30.31
29.64
27.91
25.56
23.13
21.09
19.80
19.34
19.58
20.20
20.90
21.41
21.62
21.49
20.99
20.06
18.62
16.56
13.91
10.79
7.48
4.25
1.36
-1.09
-3.16
-5.04
-7.07
-9.66
-13.13
-17.59
-22.69
-27.62
-31.18
-32.17
-29.77
-23.85
-15.09
-4.70
5.90
15.51
23.33
28.99
32.40
33.66
33.02
30.90
27.87
24.65
21.89
19.99
19.04
18.81
18.94
19.06
19.00
18.71
18.28
17.73
16.98
15.82
14.03
11.52
8.39
4.95
1.55
-1.53
-4.20
-6.62
-9.04
-11.77
-15.03
-18.91
-23.37
-28.11
-32.60
-36.03
-37.49
-36.27
-32.08
-25.27
-16.72
-7.61
0.96
8.22
13.77
17.57
19.71
20.40
19.88
18.47
16.62
14.78
13.30
12.35
11.85
11.60
11.36
11.05
10.68
10.35
10.09
9.84
9.36
8.40
6.79
4.52
1.77
-1.17
-3.99
-6.51
-8.76
-10.93
-13.34
-16.30
-20.01
-24.42
-29.19
-33.70
-37.18
-38.83
-38.03
-34.58
-28.75
-21.29
-13.20
-5.51
0.99
5.89
9.07
10.67
10.91
10.05
8.38
6.23
3.93
1.84
0.18
-0.88
-1.31
-1.12
-0.41
0.67
1.92
3.13
4.11
4.74
5.01
4.98
4.71
4.24
3.52
2.43
0.84
-1.39
-4.38
-8.17
-12.70
-17.74
-22.75
-26.94
-29.37
-29.19
-25.95
-19.81
-11.55
-2.36
6.54
14.22
20.19
24.37
26.84
27.73
27.10
25.11
22.05
18.46
14.98
12.14
10.22
9.19
8.77
8.64
8.54
8.31
7.87
7.12
5.95
4.23
1.92
-0.89
-4.04
-7.30
-10.50
-13.55
-16.48
-19.45
-22.68
-26.31
-30.32
-34.37
-37.78
-39.70
-39.32
-36.17
-30.30
-22.27
-12.99
-3.52
5.19
12.42
17.68
20.80
21.81
21.00
18.87
16.00
12.99
10.29
8.14
6.59
5.54
4.85
4.38
3.98
3.44
2.52
0.97
-1.38
-4.58
-8.54
-13.07
-17.94
-22.94
-27.91
-32.73
-37.42
-42.11
-47.10
-52.71
-59.12
-66.16
-73.24
-79.51
-84.11
-86.58
-86.98
-85.83
-83.88
-81.78
-79.80
-77.81
-75.33
-71.66
-66.08
-58.06
-47.48
-34.69
-20.51
-6.03
7.76
20.24
31.26
41.05
49.93
58.10
65.50
71.94
77.18
81.08
83.66
85.01
85.30
84.78
83.72
82.42
81.07
79.70
78.06
75.76
72.41
67.79
62.02
55.64
49.45
44.43
41.41
40.88
42.81
46.67
51.47
56.10
59.55
61.22
60.97
59.11
56.21
52.81
49.28
45.72
42.07
38.30
34.54
31.17
28.63
27.25
27.02
27.55
28.21
28.28
27.19
24.62
20.49
14.87
8.03
0.35
-7.73
-15.76
-23.39
-30.37
-36.55
-41.73
-45.66
-48.05
-48.63
-47.39
-44.54
-40.50
-35.72
-30.54
-25.11
-19.49
-13.73
-8.05
-2.73
1.86
5.46
7.89
9.08
9.04
7.82
5.53
2.38
-1.34
-5.29
-9.12
-12.58
-15.49
-17.78
-19.49
-20.72
-21.65
-22.51
-23.51
-24.83
-26.49
-28.40
-30.40
-32.33
-34.11
-35.81
-37.65
-39.93
-42.89
-46.52
-50.39
-53.66
-55.26
-54.34
-50.54
-44.23
-36.35
-28.11
-20.56
-14.36
-9.72
-6.55
-4.70
-4.04
-4.47
-5.85
-7.88
-10.19
-12.36
-14.09
-15.19
-15.65
-15.56
-15.08
-14.44
-13.86
-13.57
-13.69
-14.24
-15.04
-15.88
-16.57
-17.05
-17.49
-18.16
-19.39
-21.49
-24.63
-28.84
-33.86
-39.09
-43.59
-46.22
-45.98
-42.30
-35.31
-25.74
-14.70
-3.24
7.83
18.04
27.08
34.64
40.36
43.93
45.33
44.97
43.75
42.81
43.23
45.66
50.08
55.79
61.63
66.43
69.38
70.34
69.70
68.16
66.33
64.53
62.74
60.76
58.43
55.67
52.47
48.76
44.33
38.98
32.80
26.35
20.65
16.97
16.34
19.17
24.99
32.62
40.46
47.05
51.44
53.34
53.05
51.19
48.42
45.21
41.87
38.54
35.32
32.22
29.18
25.99
22.31
17.86
12.48
6.30
-0.40
-7.33
-14.39
-21.73
-29.63
-38.23
-47.34
-56.40
-64.64
-71.45
-76.61
-80.39
-83.38
-86.17
-88.99
-91.54
-93.06
-92.63
-89.56
-83.66
-75.34
-65.47
-55.05
-44.98
-35.86
-28.07
-21.75
-17.00
-13.85
-12.29
-12.22
-13.39
-15.44
-17.90
-20.27
-22.09
-23.09
-23.27
-22.89
-22.41
-22.25
-22.62
-23.41
-24.23
-24.52
-23.83
-21.90
-18.78
-14.81
-10.50
-6.49
-3.45
-1.93
-2.26
-4.36
-7.63
-11.05
-13.36
-13.45
-10.69
-5.14
2.52
11.18
19.67
27.06
32.83
36.85
39.26
40.29
40.19
39.14
37.38
35.24
33.11
31.40
30.36
29.98
29.95
29.78
29.00
27.34
24.76
21.50
17.87
14.20
10.70
7.42
4.34
1.41
-1.41
-4.17
-6.96
-9.92
-13.24
-17.01
-21.00
-24.65
-27.08
-27.35
-24.86
-19.55
-12.04
-3.37
5.30
13.03
19.30
24.02
27.33
29.51
30.76
31.25
31.11
30.53
29.72
28.96
28.45
28.32
28.52
28.94
29.39
29.73
29.89
29.84
29.59
29.14
28.46
27.49
26.23
24.68
22.90
20.95
18.84
16.56
14.05
11.17
7.78
3.80
-0.72
-5.41
-9.65
-12.66
-13.71
-12.47
-9.12
-4.31
1.07
6.20
10.56
13.91
16.18
17.36
17.47
16.56
14.87
12.79
10.79
9.24
8.31
7.89
7.76
7.67
7.51
7.25
6.94
6.53
5.84
4.58
2.43
-0.82
-5.15
-10.27
-15.71
-20.92
-25.46
-29.03
-31.66
-33.55
-35.14
-36.92
-39.25
-42.28
-45.80
-49.24
-51.76
-52.48
-50.74
-46.29
-39.40
-30.75
-21.29
-11.98
-3.64
3.14
8.08
11.21
12.77
13.16
12.80
12.03
11.02
9.83
8.49
7.09
5.75
4.57
3.56
2.58
1.35
-0.40
-2.84
-5.98
-9.63
-13.46
-17.06
-20.05
-22.12
-23.14
-23.21
-22.66
-21.93
-21.52
-21.84
-23.17
-25.53
-28.58
-31.61
-33.62
-33.55
-30.67
-24.77
-16.33
-6.28
4.24
14.21
22.81
29.50
33.92
35.94
35.75
33.86
31.09
28.34
26.29
25.28
25.18
25.65
26.25
26.66
26.77
26.55
26.10
25.45
24.59
23.48
22.12
20.56
18.93
17.36
15.88
14.38
12.61
10.32
7.31
3.53
-1.00
-6.20
-12.04
-18.42
-24.99
-31.05
-35.59
-37.60
-36.45
-32.20
-25.56
-17.65
-9.58
-2.14
4.23
9.33
13.04
15.20
15.73
14.76
12.68
10.07
7.56
5.60
4.37
3.79
3.65
3.75
3.97
4.29
4.73
5.30
5.94
6.49
6.72
6.42
5.43
3.76
1.48
-1.22
-4.22
-7.50
-11.19
-15.47
-20.45
-25.96
-31.46
-36.11
-38.95
-39.26
-36.87
-32.16
-25.96
-19.22
-12.66
-6.71
-1.48
3.04
6.86
9.90
12.08
13.42
14.09
14.38
14.63
15.15
16.08
17.44
19.09
20.82
22.41
23.69
24.59
25.10
25.24
24.95
24.21
23.02
21.60
20.28
19.46
19.33
19.69
20.00
19.67
18.41
16.55
15.06
15.18
17.91
23.50
31.35
40.29
49.06
56.71
62.78
67.11
69.54
69.78
67.50
62.56
55.27
46.37
36.75
27.20
18.10
9.55
1.52
-5.94
-12.65
-18.47
-23.40
-27.69
-31.70
-35.64
-39.48
-42.96
-45.77
-47.82
-49.34
-50.83
-52.89
-55.96
-60.03
-64.61
-68.72
-71.20
-71.00
-67.54
-60.88
-51.74
-41.25
-30.64
-20.87
-12.58
-6.07
-1.46
1.14
1.63
0.01
-3.45
-8.14
-13.21
-17.82
-21.41
-23.89
-25.58
-27.00
-28.54
-30.29
-32.06
-33.51
-34.36
-34.49
-33.99
-33.07
-32.00
-31.10
-30.68
-31.09
-32.59
-35.23
-38.72
-42.39
-45.23
-46.16
-44.37
-39.59
-32.18
-23.00
-13.13
-3.54
5.12
12.50
18.47
22.93
25.69
26.64
25.82
23.57
20.56
17.57
15.30
14.10
13.87
14.18
14.48
14.32
13.53
12.23
10.65
9.01
7.39
5.78
4.09
2.24
0.19
-2.15
-4.92
-8.35
-12.61
-17.65
-23.03
-27.92
-31.31
-32.22
-30.11
-25.07
-17.79
-9.36
-0.89
6.68
12.79
17.23
20.00
21.22
21.12
20.04
18.42
16.74
15.40
14.61
14.31
14.31
14.39
14.43
14.45
14.52
14.66
14.73
14.52
13.80
12.42
10.45
8.06
5.49
2.96
0.57
-1.74
-4.17
-7.06
-10.67
-15.03
-19.71
-23.83
-26.24
-25.91
-22.33
-15.70
-6.90
2.84
12.34
20.72
27.51
32.46
35.51
36.62
35.96
33.89
31.08
28.28
26.09
24.75
24.10
23.74
23.28
22.59
21.77
21.05
20.56
20.15
19.43
18.00
15.63
12.41
8.74
5.13
1.99
-0.54
-2.61
-4.57
-6.84
-9.75
-13.50
-18.04
-23.07
-28.02
-32.10
-34.41
-34.20
-31.06
-25.11
-17.00
-7.76
1.44
9.63
16.15
20.75
23.44
24.44
24.00
22.43
20.11
17.51
15.11
13.34
12.45
12.46
13.15
14.19
15.19
15.85
15.97
15.43
14.20
12.27
9.74
6.76
3.51
0.21
-2.98
-5.96
-8.69
-11.24
-13.75
-16.45
-19.55
-23.18
-27.16
-30.95
-33.64
-34.24
-32.05
-26.88
-19.27
-10.27
-1.15
7.03
13.58
18.26
21.10
22.25
21.92
20.39
18.08
15.51
13.21
11.59
10.77
10.65
10.98
11.49
12.05
12.56
12.96
13.13
12.85
11.90
10.20
7.83
5.03
2.13
-0.63
-3.13
-5.43
-7.72
-10.25
-13.28
-16.90
-21.00
-25.15
-28.61
-30.52
-30.14
-27.13
-21.69
-14.54
-6.70
0.86
7.38
12.48
16.04
18.08
18.71
18.05
16.32
13.86
11.14
8.65
6.76
5.63
5.19
5.16
5.20
5.08
4.70
4.13
3.51
2.97
2.52
2.07
1.46
0.53
-0.82
-2.65
-4.98
-7.84
-11.17
-14.79
-18.34
-21.26
-22.93
-22.82
-20.66
-16.57
-10.98
-4.57
1.95
7.97
12.99
16.73
19.08
20.07
19.89
18.80
17.10
15.08
12.96
10.98
9.35
8.29
7.91
8.20
8.95
9.84
10.53
10.78
10.52
9.79
8.66
7.19
5.36
3.13
0.50
-2.45
-5.67
-9.13
-12.88
-16.91
-20.95
-24.43
-26.49
-26.26
-23.20
-17.33
-9.33
-0.27
8.68
16.56
22.75
27.03
29.42
30.10
29.39
27.66
25.32
22.76
20.28
18.05
16.13
14.47
12.96
11.44
9.71
7.60
4.94
1.65
-2.27
-6.67
-11.30
-15.82
-19.86
-23.12
-25.50
-27.20
-28.64
-30.31
-32.50
-35.01
-37.18
-37.98
-36.44
-32.03
-24.90
-15.92
-6.32
2.71
10.36
16.35
20.75
23.78
25.51
25.88
24.83
22.54
19.53
16.60
14.57
13.93
14.69
16.38
18.30
19.86
20.73
20.97
20.91
20.96
21.40
22.22
23.18
23.84
23.84
23.02
21.51
19.60
17.66
15.94
14.61
13.85
13.90
15.00
17.22
20.30
23.68
26.66
28.73
29.87
30.56
31.49
33.12
35.29
37.17
37.51
35.28
30.09
22.40
13.33
4.12
-4.30
-11.67
-18.22
-24.42
-30.66
-36.98
-43.20
-49.02
-54.18
-58.51
-61.95
-64.45
-66.02
-66.73
-66.76
-66.44
-66.24
-66.58
-67.72
-69.57
-71.55
-72.74
-72.15
-69.04
-63.19
-54.97
-45.13
-34.57
-24.17
-14.63
-6.53
-0.34
3.67
5.46
5.34
3.85
1.67
-0.56
-2.40
-3.58
-4.02
-3.78
-3.09
-2.28
-1.73
-1.76
-2.52
-3.95
-5.85
-8.00
-10.26
-12.62
-15.15
-18.00
-21.34
-25.33
-29.98
-35.03
-39.74
-43.05
-43.76
-41.02
-34.66
-25.22
-13.83
-1.77
9.92
20.52
29.59
36.78
41.75
44.27
44.35
42.34
38.86
34.66
30.36
26.43
23.12
20.56
18.72
17.39
16.05
14.04
10.68
5.65
-0.82
-8.08
-15.28
-21.82
-27.59
-32.98
-38.53
-44.52
-50.69
-56.24
-60.05
-61.13
-58.96
-53.67
-45.96
-36.86
-27.44
-18.59
-10.93
-4.82
-0.53
1.72
1.81
-0.11
-3.55
-7.59
-11.17
-13.35
-13.69
-12.32
-9.87
-7.12
-4.68
-2.81
-1.44
-0.32
0.75
1.83
2.83
3.59
3.90
3.56
2.36
0.05
-3.48
-8.12
-13.32
-18.13
-21.33
-21.80
-18.86
-12.54
-3.60
6.76
17.16
26.48
34.01
39.45
42.80
44.19
43.83
41.95
38.96
35.42
32.05
29.56
28.42
28.66
29.87
31.32
32.27
32.25
31.20
29.44
27.37
25.32
23.28
21.02
18.19
14.52
9.95
4.57
-1.40
-7.70
-13.87
-19.21
-22.78
-23.58
-20.89
-14.61
-5.41
5.39
16.25
25.84
33.35
38.53
41.54
42.66
42.19
40.40
37.63
34.38
31.24
28.80
27.47
27.34
28.14
29.36
30.36
30.61
29.76
27.76
24.77
21.07
16.96
12.64
8.25
3.80
-0.70
-5.29
-10.02
-14.98
-20.18
-25.49
-30.49
-34.44
-36.46
-35.77
-32.00
-25.37
-16.64
-6.92
2.63
11.04
17.69
22.25
24.68
25.05
23.63
20.84
17.27
13.59
10.45
8.31
7.33
7.34
7.93
8.59
8.93
8.74
8.03
7.00
5.86
4.76
3.75
2.77
1.74
0.61
-0.61
-1.91
-3.40
-5.31
-7.91
-11.32
-15.30
-19.18
-22.01
-22.83
-21.08
-16.81
-10.66
-3.60
3.40
9.63
14.70
18.51
21.04
22.31
22.31
21.12
18.94
16.11
13.11
10.41
8.43
7.38
7.20
7.63
8.23
8.55
8.25
7.25
5.64
3.71
1.75
-0.03
-1.57
-3.01
-4.54
-6.44
-8.90
-12.07
-15.90
-20.16
-24.32
-27.63
-29.21
-28.37
-24.77
-18.62
-10.62
-1.82
6.71
14.13
19.91
23.84
25.95
26.39
25.40
23.30
20.51
17.50
14.71
12.46
10.93
10.09
9.77
9.72
9.69
9.49
9.00
8.20
7.15
5.92
4.57
3.16
1.69
0.09
-1.70
-3.80
-6.29
-9.17
-12.20
-14.86
-16.45
-16.24
-13.77
-9.04
-2.57
4.80
12.17
18.84
24.43
28.84
32.11
34.29
35.43
35.66
35.15
34.14
32.74
30.89
28.31
24.65
19.62
13.19
5.65
-2.42
-10.35
-17.50
-23.46
-28.09
-31.51
-34.03
-36.04
-37.89
-39.94
-42.42
-45.45
-48.86
-52.15
-54.48
-54.85
-52.45
-46.99
-38.88
-29.13
-19.01
-9.66
-1.76
4.47
9.07
12.11
13.59
13.51
12.04
9.62
6.95
4.78
3.62
3.60
4.42
5.58
6.59
7.12
7.10
6.59
5.72
4.56
3.13
1.41
-0.65
-3.09
-5.98
-9.40
-13.34
-17.62
-21.79
-25.19
-27.02
-26.63
-23.73
-18.54
-11.69
-4.05
3.53
10.39
16.11
20.47
23.35
24.70
24.58
23.18
20.88
18.16
15.54
13.49
12.30
12.05
12.62
13.70
14.88
15.77
16.09
15.66
14.47
12.61
10.20
7.42
4.45
1.47
-1.43
-4.35
-7.53
-11.31
-15.84
-20.90
-25.82
-29.65
-31.46
-30.68
-27.28
-21.76
-14.90
-7.53
-0.31
6.28
11.94
16.52
19.93
22.15
23.15
22.86
21.08
17.62
12.35
5.46
-2.54
-10.89
-18.73
-25.32
-30.15
-32.99
-33.86
-32.99
-30.85
-28.10
-25.53
-23.85
-23.51
-24.60
-26.87
-29.89
-33.14
-36.13
-38.34
-39.20
-38.11
-34.63
-28.62
-20.41
-10.79
-0.73
8.81
17.13
23.84
28.82
32.12
33.83
34.08
33.10
31.21
28.84
26.44
24.38
22.94
22.23
22.22
22.70
23.34
23.75
23.55
22.55
20.74
18.32
15.56
12.70
9.78
6.70
3.27
-0.71
-5.33
-10.54
-16.08
-21.49
-26.11
-29.15
-29.89
-27.89
-23.17
-16.20
-7.85
0.89
9.09
16.05
21.33
24.69
26.09
25.64
23.64
20.58
17.01
13.49
10.46
8.21
6.86
6.37
6.55
7.13
7.75
8.11
7.97
7.29
6.16
4.75
3.15
1.38
-0.63
-2.95
-5.62
-8.65
-12.00
-15.57
-19.13
-22.24
-24.29
-24.62
-22.72
-18.50
-12.30
-4.84
2.99
10.42
16.87
21.99
25.60
27.59
27.96
26.90
24.84
22.44
20.40
19.27
19.21
20.03
21.23
22.24
22.68
22.50
21.98
21.64
21.97
23.23
25.15
26.91
27.20
24.70
18.45
8.27
-5.23
-20.80
-36.96
-52.19
-65.13
-74.55
-79.45
-79.22
-73.93
-64.47
-52.41
-39.65
-27.81
-17.96
-10.47
-5.21
-1.80
0.15
0.97
1.00
0.57
0.07
-0.14
0.15
1.00
2.25
3.63
4.89
5.83
6.37
6.56
6.47
6.14
5.56
4.63
3.18
1.06
-1.86
-5.58
-9.95
-14.62
-19.03
-22.53
-24.52
-24.58
-22.61
-18.83
-13.78
-8.11
-2.46
2.66
6.93
10.23
12.59
14.12
15.02
15.59
16.14
16.96
18.14
19.47
20.49
20.55
19.03
15.66
10.55
4.24
-2.47
-8.77
-13.97
-17.64
-19.64
-20.08
-19.37
-18.12
-17.11
-17.08
-18.49
-21.38
-25.35
-29.69
-33.66
-36.74
-38.67
-39.43
-39.08
-37.63
-35.02
-31.18
-26.18
-20.30
-14.00
-7.77
-2.04
3.01
7.38
11.24
14.71
17.75
20.16
21.68
22.18
21.75
20.74
19.60
18.69
18.12
17.80
17.49
16.93
15.94
14.39
12.25
9.63
6.91
4.75
3.96
5.28
9.06
15.11
22.74
31.04
39.09
46.18
51.88
55.92
58.14
58.51
57.16
54.45
50.97
47.45
44.49
42.45
41.34
40.80
40.33
39.35
37.44
34.39
30.27
25.36
20.11
14.96
10.28
6.20
2.56
-1.05
-5.14
-10.10
-16.00
-22.45
-28.62
-33.42
-35.83
-35.23
-31.61
-25.65
-18.51
-11.43
-5.45
-1.08
1.64
3.01
3.37
2.99
1.97
0.46
-1.29
-2.79
-3.52
-3.12
-1.58
0.71
3.08
4.88
5.74
5.60
4.71
3.33
1.54
-0.82
-4.01
-8.26
-13.53
-19.50
-25.66
-31.46
-36.46
-40.35
-42.92
-43.99
-43.42
-41.18
-37.39
-32.36
-26.51
-20.33
-14.30
-8.86
-4.35
-1.03
1.04
1.98
2.15
2.01
2.05
2.56
3.62
5.03
6.41
7.35
7.56
6.99
5.85
4.51
3.32
2.52
2.11
1.90
1.60
0.97
-0.15
-1.80
-3.95
-6.49
-9.16
-11.51
-12.98
-13.03
-11.34
-8.04
-3.68
0.90
4.88
7.65
8.92
8.75
7.34
5.02
2.12
-0.98
-3.88
-6.22
-7.75
-8.46
-8.53
-8.27
-8.00
-7.87
-7.82
-7.70
-7.39
-6.96
-6.66
-6.96
-8.25
-10.75
-14.36
-18.62
-22.84
-26.21
-28.04
-27.83
-25.45
-21.07
-15.11
-8.13
-0.69
6.64
13.30
18.75
22.43
23.98
23.29
20.65
16.66
12.08
7.63
3.86
1.07
-0.65
-1.40
-1.41
-0.97
-0.41
0.06
0.35
0.44
0.38
0.09
-0.63
-2.08
-4.51
-8.01
-12.37
-17.09
-21.41
-24.50
-25.67
-24.50
-20.94
-15.35
-8.39
-0.81
6.61
13.23
18.57
22.31
24.29
24.51
23.17
20.69
17.61
14.51
11.85
9.89
8.60
7.68
6.68
5.21
3.05
0.22
-3.02
-6.36
-9.60
-12.72
-15.82
-19.05
-22.50
-26.12
-29.85
-33.70
-37.67
-41.72
-45.59
-48.76
-50.52
-50.24
-47.60
-42.74
-36.28
-29.09
-22.01
-15.63
-10.16
-5.47
-1.22
2.97
7.33
11.85
16.26
20.24
23.51
26.05
28.02
29.65
31.10
32.22
32.70
32.19
30.52
27.83
24.55
21.21
18.25
15.86
14.03
12.60
11.38
10.16
8.69
6.63
3.63
-0.44
-5.37
-10.44
-14.56
-16.60
-15.76
-11.85
-5.35
2.82
11.60
20.07
27.61
33.84
38.49
41.37
42.41
41.74
39.78
37.17
34.58
32.55
31.34
30.91
31.05
