1653052676.00
64.000000
-0.00
-0.00
-0.00
-0.00
-0.00
-0.00
-0.00
-0.00
-0.00
-0.00
0.00
0.01
0.01
-0.00
-0.03
-0.05
-0.05
0.00
0.13
0.36
0.66
1.01
1.37
1.72
2.06
2.40
2.79
3.24
3.80
4.42
5.06
5.66
6.20
6.68
7.15
7.68
8.31
9.14
10.09
11.04
11.88
12.56
13.14
13.76
14.65
15.96
17.91
20.32
22.90
25.38
27.58
29.57
31.68
34.32
37.81
42.54
48.15
54.10
59.83
64.97
69.58
74.14
79.34
85.71
93.76
103.00
112.62
121.73
129.77
136.75
143.30
150.75
157.77
166.64
177.95
191.79
206.97
220.57
228.25
225.36
208.53
176.87
132.76
80.05
23.07
-34.94
-92.44
-149.16
-205.23
-260.36
-313.71
-363.84
-409.81
-450.92
-486.59
-515.93
-537.52
-549.60
-550.39
-538.81
-514.65
-479.12
-434.36
-383.01
-327.68
-270.61
-213.47
-157.51
-103.78
-53.16
-6.69
34.71
70.38
100.06
123.96
142.67
156.92
167.42
174.70
179.04
180.59
179.57
176.31
171.32
165.20
158.48
151.48
144.27
136.71
128.62
119.97
110.93
101.89
93.29
85.43
78.33
71.69
65.07
58.05
50.51
42.68
35.10
28.28
22.57
17.96
14.08
10.42
6.48
1.89
-3.61
-10.00
-16.83
-22.98
-26.75
-26.28
-20.40
-9.30
5.18
20.11
32.57
40.77
44.57
45.19
44.34
43.20
42.05
40.41
37.65
33.67
28.96
24.38
20.65
17.96
15.91
13.76
11.06
7.98
5.33
4.07
4.72
7.09
10.42
13.93
17.23
20.48
24.00
27.85
31.44
33.78
33.90
31.45
26.80
20.91
14.81
9.26
4.62
1.03
-1.42
-2.66
-2.77
-2.09
-1.27
-1.24
-2.83
-6.55
-12.33
-19.49
-26.84
-32.92
-36.36
-36.16
-32.02
-24.49
-15.03
-5.64
1.70
5.69
6.10
3.82
0.39
-2.56
-3.78
-2.59
1.06
6.56
12.68
17.71
19.93
18.30
13.05
5.74
-1.36
-6.22
-7.86
-6.61
-3.59
-0.11
2.92
5.01
6.02
5.73
4.06
1.25
-2.14
-5.22
-7.20
-7.75
-7.10
-5.92
-5.02
-4.93
-5.78
-7.31
-9.00
-10.37
-11.14
-11.36
-11.35
-11.59
-12.45
-14.06
-16.15
-18.06
-18.83
-17.51
-13.46
-6.74
1.83
10.75
18.30
23.05
24.37
22.50
18.38
13.20
7.97
3.28
-0.69
-3.99
-6.67
-8.72
-10.09
-10.81
-11.00
-10.87
-10.61
-10.33
-10.06
-9.84
-9.77
-10.09
-11.11
-13.01
-15.74
-19.01
-22.33
-25.23
-27.41
-28.91
-30.08
-31.56
-34.01
-37.91
-43.02
-48.49
-52.83
-54.21
-51.00
-42.38
-28.76
-11.70
6.50
23.52
37.59
47.82
54.23
57.35
57.91
56.57
53.86
50.16
45.77
40.96
35.97
31.03
26.37
22.22
18.83
16.34
14.78
13.94
13.43
12.71
11.30
8.85
5.31
0.84
-4.23
-9.57
-14.93
-20.23
-25.54
-31.15
-37.40
-44.60
-52.71
-61.11
-68.46
-72.86
-72.39
-65.82
-53.11
-35.64
-15.80
3.68
20.56
33.55
42.48
47.92
50.74
51.69
51.22
49.50
46.64
42.86
38.54
34.15
30.16
26.86
24.33
22.50
21.21
20.25
19.40
18.40
16.92
14.66
11.42
7.19
2.21
-3.12
-8.43
-13.48
-18.37
-23.51
-29.49
-36.84
-45.58
-54.95
-63.30
-68.46
-68.33
-61.64
-48.58
-30.77
-10.88
8.25
24.35
36.26
43.89
47.90
49.15
48.32
45.84
41.94
36.87
31.08
25.22
20.02
16.06
13.60
12.47
12.22
12.19
11.84
10.84
9.11
6.79
4.06
1.06
-2.23
-5.95
-10.31
-15.51
-21.70
-28.94
-37.14
-45.91
-54.41
-61.28
-64.87
-63.59
-56.60
-44.17
-27.85
-9.99
6.98
21.22
31.92
39.19
43.61
45.78
45.99
44.31
40.87
36.02
30.49
25.14
20.73
17.64
15.77
14.70
13.88
12.86
11.45
9.66
7.61
5.39
2.95
0.09
-3.40
-7.76
-13.12
-19.57
-27.12
-35.61
-44.55
-52.96
-59.40
-62.22
-60.08
-52.49
-40.07
-24.47
-7.84
7.80
21.11
31.50
39.05
44.05
46.82
47.56
46.48
43.88
40.23
36.11
32.08
28.60
25.92
24.11
23.07
22.56
22.23
21.63
20.38
18.19
14.96
10.78
5.93
0.70
-4.67
-10.04
-15.45
-21.06
-27.13
-33.96
-41.68
-50.03
-58.22
-64.87
-68.30
-67.04
-60.45
-48.98
-34.21
-18.33
-3.46
8.96
18.28
24.61
28.36
29.93
29.63
27.74
24.65
20.94
17.26
14.18
12.01
10.75
10.24
10.32
10.97
12.33
14.58
17.75
21.58
25.47
28.59
30.14
29.59
26.92
22.59
17.38
12.09
7.18
2.66
-1.91
-7.18
-13.72
-21.65
-30.51
-39.18
-46.07
-49.51
-48.27
-42.00
-31.37
-17.96
-3.73
9.57
20.77
29.49
35.90
40.37
43.21
44.50
44.29
42.69
40.05
36.89
33.72
30.93
28.65
26.82
25.33
24.08
23.07
22.36
21.93
21.64
21.09
19.79
17.28
13.34
8.12
2.13
-3.97
-9.56
-14.33
-18.36
-22.04
-25.97
-30.68
-36.45
-43.14
-50.10
-56.16
-59.88
-59.91
-55.46
-46.65
-34.52
-20.81
-7.32
4.57
14.18
21.50
26.83
30.49
32.60
33.15
32.19
29.94
26.91
23.71
20.92
18.87
17.61
16.95
16.61
16.34
16.06
15.77
15.47
15.03
14.14
12.40
9.51
5.41
0.38
-5.05
-10.28
-14.90
-18.79
-22.25
-25.78
-30.01
-35.33
-41.72
-48.52
-54.48
-57.96
-57.51
-52.38
-42.83
-30.18
-16.27
-2.93
8.57
17.75
24.69
29.77
33.32
35.50
36.38
36.03
34.68
32.70
30.52
28.52
26.95
25.88
25.27
25.00
24.99
25.18
25.57
26.08
26.51
26.48
25.59
23.53
20.27
16.08
11.45
6.90
2.75
-0.93
-4.36
-7.90
-11.82
-16.20
-20.83
-25.31
-29.22
-32.29
-34.61
-36.60
-38.98
-42.46
-47.44
-53.66
-60.14
-65.23
-67.10
-64.30
-56.26
-43.55
-27.75
-11.07
4.28
16.64
25.38
30.84
34.12
36.49
38.84
41.36
43.63
44.99
45.09
44.13
42.86
42.11
42.40
43.71
45.58
47.44
48.98
50.21
51.36
52.56
53.71
54.58
54.93
54.79
54.42
54.06
53.62
52.48
49.67
44.27
35.98
25.32
13.54
2.13
-7.79
-15.80
-22.22
-27.88
-33.68
-40.40
-48.40
-57.52
-66.87
-74.86
-79.41
-78.50
-70.79
-56.14
-35.87
-12.54
10.46
29.60
41.96
45.92
41.55
30.60
15.89
0.41
-13.61
-25.21
-34.55
-42.25
-48.72
-53.79
-57.02
-58.10
-57.41
-55.91
-54.71
-54.58
-55.54
-56.96
-57.97
-57.99
-57.00
-55.54
-54.34
-53.96
-54.52
-55.72
-57.09
-58.33
-59.41
-60.57
-62.19
-64.57
-67.92
-72.30
-77.55
-83.15
-88.04
-90.71
-89.53
-83.30
-71.80
-55.96
-37.69
-19.18
-2.26
11.99
23.33
32.03
38.53
43.16
46.07
47.36
47.23
45.99
44.17
42.30
40.87
40.17
40.21
40.78
41.52
42.07
42.18
41.78
40.98
39.90
38.60
36.93
34.61
31.26
26.63
20.75
14.04
7.12
0.71
-4.72
-9.12
-12.82
-16.44
-20.64
-25.89
-32.35
-39.80
-47.56
-54.57
-59.45
-60.80
-57.57
-49.44
-37.06
-21.91
-5.90
9.20
22.13
32.31
39.70
44.57
47.27
48.13
47.48
45.67
43.14
40.33
37.65
35.39
33.67
32.54
31.89
31.63
31.64
31.82
32.11
32.34
32.25
31.44
29.45
25.92
20.78
14.30
7.10
-0.04
-6.48
-11.88
-16.38
-20.47
-24.83
-30.07
-36.53
-44.06
-51.95
-59.01
-63.74
-64.69
-60.88
-52.16
-39.33
-23.94
-7.85
7.25
20.21
30.57
38.33
43.78
47.18
48.78
48.80
47.51
45.28
42.46
39.38
36.26
33.31
30.75
28.81
27.68
27.36
27.58
27.85
27.54
26.16
23.45
19.47
14.52
9.00
3.30
-2.33
-7.80
-13.24
-18.94
-25.30
-32.58
-40.63
-48.64
-55.20
-58.61
-57.44
-51.07
-40.05
-25.91
-10.68
3.71
15.95
25.50
32.40
36.99
39.61
40.51
39.87
37.89
34.86
31.16
27.16
23.22
19.63
16.56
14.13
12.37
11.21
10.48
9.84
8.84
7.00
3.97
-0.37
-5.84
-11.98
-18.32
-24.47
-30.32
-36.07
-42.15
-48.97
-56.72
-65.05
-72.99
-79.00
-81.31
-78.45
-69.79
-55.81
-38.07
-18.69
0.23
17.14
31.26
42.44
50.90
56.95
60.86
62.83
63.09
61.89
59.58
56.50
53.00
49.43
46.09
43.19
40.83
39.00
37.58
36.35
35.05
33.32
30.78
27.12
22.23
16.33
9.89
3.52
-2.31
-7.46
-12.19
-17.04
-22.60
-29.24
-36.87
-44.83
-51.93
-56.64
-57.53
-53.75
-45.36
-33.36
-19.44
-5.39
7.37
18.08
26.57
32.99
37.49
40.16
41.05
40.38
38.60
36.32
34.11
32.31
30.98
29.99
29.16
28.46
27.99
27.89
28.18
28.71
29.12
28.89
27.57
24.82
20.59
15.09
8.78
2.24
-3.98
-9.55
-14.42
-18.90
-23.46
-28.59
-34.65
-41.66
-49.26
-56.62
-62.49
-65.43
-64.21
-58.23
-47.82
-34.24
-19.35
-5.03
7.27
16.89
23.77
28.24
30.71
31.52
30.95
29.31
27.01
24.50
22.14
20.19
18.70
17.62
16.83
16.26
15.91
15.82
15.97
16.22
16.23
15.52
13.63
10.29
5.63
0.13
-5.48
-10.55
-14.75
-18.20
-21.43
-25.14
-29.91
-35.89
-42.67
-49.20
-54.05
-55.73
-53.16
-46.03
-34.96
-21.38
-7.12
6.11
17.11
25.33
30.78
33.88
35.11
34.93
33.72
31.80
29.51
27.17
25.13
23.59
22.53
21.63
20.44
18.63
16.22
13.69
11.76
11.00
11.44
12.42
12.87
11.71
8.45
3.30
-2.87
-9.03
-14.38
-18.63
-22.04
-25.14
-28.57
-32.82
-38.14
-44.44
-51.14
-57.26
-61.41
-62.20
-58.59
-50.38
-38.36
-24.13
-9.61
3.51
14.26
22.41
28.25
32.25
34.71
35.77
35.48
34.02
31.78
29.27
27.00
25.30
24.26
23.72
23.44
23.18
22.83
22.34
21.76
21.11
20.35
19.33
17.84
15.61
12.46
8.34
3.44
-1.87
-7.14
-11.99
-16.24
-19.99
-23.56
-27.42
-32.01
-37.60
-44.15
-51.21
-57.84
-62.76
-64.56
-62.12
-55.01
-43.78
-29.82
-15.01
-1.17
10.46
19.43
25.91
30.39
33.32
34.89
35.13
34.07
31.93
29.20
26.44
24.17
22.64
21.79
21.39
21.15
20.88
20.50
20.04
19.50
18.85
17.96
16.62
14.57
11.59
7.55
2.57
-3.04
-8.79
-14.14
-18.76
-22.58
-25.86
-29.09
-32.81
-37.43
-43.06
-49.43
-55.79
-61.01
-63.71
-62.67
-57.19
-47.44
-34.44
-19.84
-5.42
7.34
17.58
25.03
29.86
32.48
33.33
32.80
31.24
28.96
26.20
23.17
20.09
17.21
14.81
13.15
12.35
12.34
12.82
13.36
13.50
12.85
11.20
8.51
4.92
0.71
-3.78
-8.26
-12.56
-16.78
-21.21
-26.32
-32.48
-39.68
-47.36
-54.31
-58.91
-59.63
-55.50
-46.54
-33.78
-19.01
-4.22
8.93
19.46
27.09
32.08
34.92
36.10
35.98
34.82
32.83
30.25
27.38
24.50
21.81
19.46
17.57
16.18
15.36
15.08
15.23
15.50
15.46
14.64
12.64
9.29
4.71
-0.75
-6.59
-12.33
-17.62
-22.37
-26.78
-31.25
-36.34
-42.46
-49.68
-57.44
-64.48
-69.10
-69.58
-64.84
-54.82
-40.67
-24.37
-8.08
6.45
18.29
27.28
33.71
38.01
40.46
41.24
40.54
38.66
36.08
33.30
30.70
28.49
26.63
25.03
23.61
22.42
21.60
21.25
21.30
21.39
21.00
19.54
16.62
12.24
6.78
0.92
-4.72
-9.73
-14.17
-18.44
-23.18
-29.02
-36.20
-44.45
-52.86
-59.99
-64.16
-63.89
-58.42
-47.99
-33.84
-17.92
-2.33
11.29
22.01
29.69
34.74
37.70
39.10
39.25
38.34
36.57
34.13
31.29
28.35
25.55
23.09
21.11
19.69
18.86
18.58
18.73
19.01
18.97
18.10
15.97
12.41
7.63
2.14
-3.43
-8.60
-13.22
-17.53
-22.09
-27.45
-33.96
-41.40
-48.95
-55.23
-58.63
-57.76
-51.97
-41.59
-27.92
-12.80
1.89
14.68
24.76
31.97
36.54
38.91
39.52
38.77
36.99
34.51
31.62
28.56
25.56
22.81
20.48
18.77
17.78
17.56
17.89
18.35
18.39
17.44
15.15
11.52
6.89
1.76
-3.38
-8.20
-12.68
-16.97
-21.43
-26.44
-32.35
-39.25
-46.78
-53.95
-59.26
-61.04
-58.07
-50.07
-37.91
-23.35
-8.43
5.14
16.38
25.07
31.42
35.78
38.35
39.23
38.53
36.56
33.86
31.03
28.62
26.88
25.77
25.03
24.39
23.67
22.86
22.07
21.40
20.80
20.05
18.76
16.56
13.22
8.80
3.62
-1.85
-7.12
-11.86
-16.02
-19.88
-23.88
-28.56
-34.29
-41.07
-48.38
-55.17
-59.99
-61.42
-58.46
-50.92
-39.52
-25.71
-11.25
2.31
13.93
23.18
30.11
35.01
38.22
40.08
40.90
40.97
40.59
40.01
39.38
38.78
38.28
37.95
37.91
38.30
39.20
40.61
42.40
44.32
46.08
47.33
47.83
47.51
46.52
45.19
43.86
42.75
41.75
40.53
38.65
35.85
32.26
28.43
25.12
22.98
22.19
22.39
22.76
22.38
20.59
17.32
13.15
9.18
6.77
7.17
11.13
18.70
29.18
41.20
53.13
63.40
70.85
74.92
75.58
73.17
68.18
61.14
52.72
43.91
36.04
30.54
28.40
29.74
33.61
38.18
41.06
39.74
32.07
16.98
-4.85
-30.77
-56.73
-78.71
-94.31
-103.65
-109.03
-113.29
-118.02
-122.64
-124.88
-122.46
-114.69
-103.00
-90.18
-79.02
-71.32
-67.84
-68.83
-74.54
-84.97
-99.14
-114.63
-127.67
-134.29
-131.71
-119.36
-99.10
-74.36
-48.84
-25.35
-5.34
11.02
24.23
34.94
43.63
50.58
56.06
60.43
64.14
67.53
70.61
72.85
73.29
70.92
65.24
56.64
46.37
36.19
27.65
21.58
17.96
16.14
15.25
14.54
13.39
11.25
7.56
1.88
-5.86
-15.11
-24.76
-33.52
-40.47
-45.44
-49.02
-52.12
-55.37
-58.62
-60.96
-61.04
-57.67
-50.30
-39.13
-24.99
-9.02
7.61
23.74
38.19
49.79
57.45
60.47
58.72
52.85
44.12
34.10
24.23
15.49
8.26
2.36
-2.72
-7.45
-12.07
-16.53
-20.59
-24.04
-26.78
-28.99
-31.00
-33.18
-35.83
-39.02
-42.63
-46.39
-49.91
-52.91
-55.29
-57.27
-59.28
-61.88
-65.53
-70.39
-76.18
-82.19
-87.35
-90.43
-90.31
-86.26
-78.15
-66.45
-52.12
-36.37
-20.28
-4.69
9.83
22.80
33.58
41.41
45.62
46.03
43.18
38.30
32.88
28.14
24.68
22.44
21.01
20.00
19.30
19.10
19.56
20.62
21.81
22.39
21.63
19.05
14.61
8.63
1.65
-5.74
-13.19
-20.60
-28.14
-36.16
-45.01
-54.82
-65.37
-75.85
-84.80
-90.34
-90.60
-84.30
-71.31
-52.87
-31.26
-9.19
10.97
27.74
40.67
50.04
56.47
60.51
62.53
62.78
61.58
59.35
56.60
53.77
51.14
48.74
46.55
44.54
42.84
41.59
40.88
40.49
39.88
38.29
34.99
29.59
22.17
13.31
3.83
-5.43
-13.88
-21.34
-28.06
-34.60
-41.72
-50.04
-59.75
-70.31
-80.37
-87.87
-90.64
-87.02
-76.49
-59.97
-39.56
-17.89
2.62
20.32
34.54
45.33
53.11
58.28
61.17
62.06
61.31
59.49
57.22
55.07
53.32
51.99
50.80
49.50
47.98
46.38
45.02
44.18
43.84
43.61
42.81
40.74
36.96
31.47
24.61
16.81
8.44
-0.44
-9.96
-20.36
-31.87
-44.52
-57.96
-71.35
-83.21
-91.55
-94.36
-90.21
-78.86
-61.54
-40.69
-19.15
0.57
16.93
29.47
38.51
44.75
48.84
51.26
52.34
52.33
51.49
50.04
48.16
45.98
43.61
41.23
39.05
37.30
36.17
35.63
35.40
35.03
33.94
31.66
28.01
23.17
17.65
12.07
7.00
2.64
-1.17
-4.99
-9.60
-15.72
-23.66
-33.06
-42.67
-50.55
-54.50
-52.74
-44.51
-30.39
-12.22
7.51
26.28
42.27
54.51
62.89
67.77
69.70
69.17
66.62
62.44
57.12
51.11
44.78
38.32
31.73
24.92
17.87
10.64
3.43
-3.55
-10.24
-16.73
-23.22
-29.92
-36.87
-43.85
-50.39
-55.96
-60.10
-62.71
-64.10
-65.02
-66.44
-69.25
-73.90
-79.99
-86.19
-90.41
-90.31
-84.09
-71.15
-52.40
-30.03
-6.79
14.88
33.49
48.66
60.82
70.59
78.36
84.06
87.29
87.68
85.10
79.84
72.56
64.07
55.18
46.46
38.16
30.23
22.48
14.78
7.22
0.15
-6.04
-11.15
-15.37
-19.17
-23.09
-27.33
-31.64
-35.42
-38.04
-39.34
-39.77
-40.35
-42.22
-46.22
-52.48
-60.24
-67.99
-73.75
-75.61
-72.11
-62.76
-48.15
-29.86
-9.98
9.42
26.79
41.36
52.99
61.88
68.23
72.06
73.25
71.77
67.87
62.19
55.64
49.13
43.32
38.38
34.00
29.54
24.34
18.01
10.68
2.91
-4.58
-11.18
-16.72
-21.44
-25.76
-30.00
-34.14
-37.87
-40.84
-42.99
-44.70
-46.72
-49.88
-54.69
-61.05
-68.15
-74.50
-78.27
-77.65
-71.42
-59.31
-42.15
-21.80
-0.58
19.25
36.10
49.22
58.59
64.58
67.61
67.96
65.80
61.36
55.07
47.52
39.39
31.14
23.00
15.01
7.25
0.03
-6.07
-10.42
-12.63
-12.91
-12.08
-11.30
-11.62
-13.63
-17.21
-21.71
-26.36
-30.53
-34.07
-37.20
-40.40
-44.11
-48.51
-53.29
-57.59
-60.06
-59.16
-53.56
-42.61
-26.63
-6.92
14.52
35.52
54.24
69.48
80.79
88.27
92.41
93.81
93.10
90.77
87.20
82.55
76.71
69.33
59.82
47.57
32.26
14.18
-5.60
-25.34
-43.09
-57.31
-67.31
-73.41
-76.65
-78.17
-78.75
-78.46
-76.80
-73.17
-67.38
-60.17
-53.16
-48.55
-48.14
-52.47
-60.09
-67.77
-71.52
-68.08
-56.30
-37.74
-16.08
4.30
19.90
29.15
32.54
31.94
29.70
27.82
27.65
29.75
33.84
38.72
42.45
42.88
38.51
29.38
17.32
5.50
-2.94
-6.25
-4.85
-1.12
1.87
1.72
-2.18
-8.65
-15.42
-20.24
-21.76
-19.88
-15.60
-10.58
-6.69
-5.70
-9.00
-17.25
-30.01
-45.43
-60.41
-71.18
-74.44
-68.50
-53.91
-33.37
-10.80
9.93
26.06
36.44
41.36
42.02
39.82
36.00
31.43
26.69
22.16
18.08
14.53
11.50
8.94
6.86
5.46
5.03
5.79
7.64
10.04
12.06
12.71
11.27
7.64
2.34
-3.69
-9.45
-14.28
-18.00
-20.98
-23.97
-27.87
-33.43
-40.92
-49.81
-58.61
-65.13
-67.00
-62.57
-51.58
-35.40
-16.64
1.76
17.50
29.57
38.13
44.06
48.17
50.77
51.68
50.55
47.34
42.53
37.03
31.88
27.88
25.39
24.38
24.50
25.31
26.35
27.20
27.49
26.90
25.25
22.48
18.67
13.92
8.37
2.04
-5.17
-13.52
-23.23
-34.32
-46.27
-57.77
-66.84
-71.17
-68.91
-59.33
-43.30
-23.09
-1.69
18.13
34.58
47.15
56.31
62.94
67.74
71.04
72.85
73.23
72.49
71.20
69.98
69.21
68.90
68.75
68.43
67.84
67.14
66.64
66.51
66.60
66.43
65.38
62.97
58.98
53.39
46.10
36.81
25.01
10.19
-7.83
-28.70
-51.56
-75.17
-97.98
-118.18
-133.66
-142.14
-141.64
-131.11
-111.02
-83.53
-52.06
-20.47
7.90
30.90
47.68
58.48
64.17
65.88
64.78
61.92
58.19
54.27
50.60
47.36
44.60
42.31
40.55
39.44
39.10
39.57
40.72
42.24
43.66
44.46
44.16
42.43
39.15
34.46
28.79
22.71
16.68
10.61
3.68
-5.49
-18.24
-35.16
-55.56
-77.53
-98.33
-115.07
-125.21
-127.04
-119.99
-104.99
-84.56
-62.42
-42.44
-27.40
-17.97
-12.67
-8.89
-4.31
1.87
8.80
14.69
18.03
18.35
16.35
13.29
10.25
7.78
5.84
4.31
3.20
2.84
3.71
6.12
9.85
13.98
17.04
17.49
14.34
7.70
-1.19
-10.38
-18.05
-23.17
-25.87
-27.25
-28.75
-31.59
-36.36
-43.00
-50.96
-59.35
-66.99
-72.37
-73.88
-70.17
-60.66
-45.95
-27.71
-8.23
10.19
25.93
38.25
47.19
53.20
56.77
58.25
57.87
55.89
52.70
48.85
44.89
41.26
38.15
35.56
33.41
31.62
30.23
29.31
28.86
28.70
28.35
27.15
24.47
19.99
13.83
6.62
-0.78
-7.59
-13.39
-18.30
-22.87
-27.89
-34.04
-41.57
-50.06
-58.34
-64.68
-67.20
-64.48
-56.08
-42.74
-26.21
-8.73
7.65
21.52
32.31
40.06
45.16
48.02
49.02
48.45
46.63
43.90
40.62
37.10
33.57
30.23
27.26
24.86
23.17
22.24
21.94
21.93
21.71
20.74
18.56
14.98
10.07
4.22
-2.03
-8.13
-13.71
-18.72
-23.45
-28.49
-34.43
-41.58
-49.62
-57.48
-63.41
-65.49
-62.24
-53.20
-39.26
-22.36
-4.91
10.96
23.92
33.59
40.25
44.49
46.78
47.38
46.47
44.27
41.19
37.73
34.33
31.24
28.49
25.94
23.54
21.36
19.57
18.32
17.57
16.94
15.84
13.68
10.12
5.21
-0.61
-6.76
-12.72
-18.18
-23.18
-28.03
-33.23
-39.26
-46.41
-54.44
-62.49
-69.03
-72.24
-70.51
-63.14
-50.57
-34.40
-16.90
-0.31
13.75
24.58
32.29
37.44
40.61
42.16
42.18
40.65
37.72
33.78
29.45
25.41
22.16
19.90
18.51
17.71
17.13
16.48
15.53
14.09
11.96
9.01
5.17
0.55
-4.54
-9.74
-14.76
-19.52
-24.30
-29.61
-36.00
-43.66
-52.11
-60.07
-65.66
-66.96
-62.68
-52.67
-38.05
-20.91
-3.61
11.84
24.23
33.23
39.17
42.65
44.25
44.40
43.39
41.41
38.68
35.42
31.88
28.37
25.19
22.63
20.89
19.94
19.47
18.97
17.77
15.38
11.62
6.65
0.95
-4.98
-10.78
-16.29
-21.59
-26.91
-32.58
-38.94
-46.27
-54.52
-63.09
-70.62
-75.21
-74.94
-68.59
-56.23
-39.36
-20.44
-2.11
13.63
25.83
34.51
40.26
43.74
45.39
45.47
44.13
41.64
38.43
34.94
31.55
28.45
25.67
23.20
21.05
19.29
17.99
17.12
16.44
15.52
13.81
10.83
6.39
0.69
-5.69
-12.06
-17.81
-22.74
-27.11
-31.57
-36.86
-43.50
-51.36
-59.54
-66.45
-70.16
-69.00
-62.16
-49.95
-33.82
-15.92
1.56
16.90
29.20
38.32
44.61
48.52
50.50
50.89
49.99
48.20
45.90
43.48
41.24
39.32
37.74
36.40
35.24
34.26
33.49
33.01
32.72
32.36
31.45
29.48
26.09
21.32
15.61
9.71
4.36
0.03
-3.22
-5.76
-8.23
-11.29
-15.43
-20.82
-27.10
-33.34
-38.12
-39.78
-36.95
-29.02
-16.52
-0.98
15.44
30.66
43.22
52.49
58.61
62.01
63.14
62.27
59.55
55.22
49.63
43.32
36.84
30.62
24.90
19.80
15.36
11.68
8.83
6.73
5.09
3.37
0.93
-2.73
-7.77
-13.91
-20.56
-27.03
-32.83
-37.80
-42.15
-46.31
-50.81
-56.17
-62.66
-70.18
-78.00
-84.69
-88.35
-87.11
-79.80
-66.52
-48.72
-28.87
-9.64
6.86
19.50
28.21
33.59
36.45
37.49
37.12
35.61
33.15
30.02
26.58
23.15
20.04
17.39
15.29
13.76
12.80
12.34
12.21
12.05
11.34
9.55
6.27
1.50
-4.37
-10.65
-16.62
-21.77
-26.04
-29.82
-33.90
-39.08
-45.79
-53.66
-61.37
-66.82
-67.72
-62.41
-50.59
-33.55
-13.80
5.81
23.02
36.75
47.18
55.15
61.64
67.28
72.25
76.34
79.05
79.58
77.01
70.51
59.81
45.38
28.58
11.18
-5.09
-19.08
-30.38
-39.19
-45.98
-51.23
-55.30
-58.51
-61.16
-63.53
-65.73
-67.57
-68.56
-68.07
-65.64
-61.25
-55.52
-49.73
-45.48
-44.24
-46.80
-52.88
-61.17
-69.53
-75.57
-77.22
-73.26
-63.56
-49.08
-31.55
-13.05
4.45
19.45
31.10
39.18
43.96
45.99
45.97
44.66
42.78
40.96
39.65
38.98
38.83
38.87
38.79
38.45
37.95
37.63
37.81
38.65
39.93
41.14
41.66
40.95
38.80
35.39
31.16
26.64
22.21
17.98
13.80
9.41
4.60
-0.59
-5.84
-10.67
-14.62
-17.44
-19.25
-20.52
-22.02
-24.59
-28.79
-34.50
-40.70
-45.47
-46.43
-41.42
-29.31
-10.44
13.40
39.44
64.58
86.12
102.32
112.64
117.81
119.66
120.51
122.44
126.57
132.69
139.38
144.60
146.39
143.41
135.18
121.98
104.68
84.57
63.28
42.58
24.00
8.52
-3.76
-13.45
-21.78
-29.96
-38.90
-48.90
-59.65
-70.30
-79.79
-87.16
-91.83
-93.77
-93.42
-91.46
-88.47
-84.63
-79.63
-72.75
-63.23
-50.49
-34.50
-15.91
3.98
23.34
40.07
52.11
57.77
56.11
47.25
32.44
13.88
-5.90
-24.65
-41.06
-54.78
-66.23
-76.01
-84.33
-90.81
-94.73
-95.43
-92.89
-87.85
-81.61
-75.50
-70.31
-65.90
-61.16
-54.52
-44.65
-31.28
-15.47
0.71
15.00
25.88
33.06
37.43
40.52
43.97
49.14
57.11
68.76
84.63
104.38
126.32
147.09
162.09
166.40
156.31
130.56
91.16
43.41
-5.23
-46.80
-74.82
-85.69
-79.17
-58.00
-27.05
7.76
40.40
65.74
80.38
83.43
76.63
63.75
49.20
36.54
27.29
20.88
15.39
8.85
0.16
-10.54
-22.29
-33.97
-44.91
-55.09
-64.86
-74.54
-83.88
-91.89
-97.29
-99.07
-97.23
-92.93
-88.07
-84.42
-82.82
-82.95
-83.69
-83.92
-83.17
-81.88
-80.99
-81.42
-83.60
-87.40
-92.34
-97.89
-103.67
-109.36
-114.89
-120.55
-127.28
-136.58
-149.92
-167.92
-189.45
-211.51
-229.82
-239.99
-238.67
-224.17
-196.62
-157.62
-110.12
-58.25
-7.19
37.42
70.64
89.46
93.73
86.02
70.61
51.88
33.05
15.67
-0.04
-14.26
-26.69
-36.31
-41.69
-41.66
-35.99
-25.57
-12.30
1.59
14.18
24.35
31.92
37.40
41.54
44.92
47.73
49.85
51.09
51.42
51.03
50.11
48.74
46.85
44.41
41.67
39.24
37.93
38.41
40.82
44.72
49.29
53.73
57.59
60.89
64.02
67.39
71.13
74.86
77.72
78.48
75.84
68.78
56.81
40.19
19.98
-2.02
-23.63
-42.66
-57.37
-66.81
-70.92
-70.33
-66.02
-59.00
-50.16
-40.17
-29.74
-19.63
-10.75
-3.94
0.17
1.39
0.15
-2.61
-5.54
-7.21
-6.53
-3.03
2.90
10.22
17.52
23.51
27.32
28.71
28.01
25.90
23.15
20.35
17.73
15.13
12.06
7.90
2.13
-5.44
-14.52
-24.35
-33.76
-41.36
-45.74
-45.74
-40.73
-30.74
-16.52
0.66
19.35
38.22
56.23
72.66
87.04
98.99
108.23
114.41
117.23
116.48
112.26
105.15
96.28
87.12
79.04
72.78
68.21
64.37
60.04
54.30
46.92
38.38
29.45
20.75
12.44
4.16
-4.68
-14.67
-26.14
-38.94
-52.41
-65.35
-76.12
-82.93
-84.26
-79.33
-68.35
-52.60
-34.04
-14.84
3.11
18.56
30.90
40.05
46.19
49.62
50.61
49.47
46.59
42.45
37.67
32.91
28.69
25.33
22.87
21.10
19.69
18.33
16.81
15.04
13.00
10.64
7.88
4.58
0.57
-4.33
-10.33
-17.59
-26.10
-35.49
-44.83
-52.64
-57.18
-56.93
-51.08
-39.91
-24.71
-7.45
9.81
25.45
38.57
48.93
56.72
62.24
65.68
67.10
66.53
64.10
60.22
55.56
50.92
47.07
44.47
43.21
42.95
43.12
43.10
42.47
41.14
39.30
37.23
35.13
32.98
30.50
27.32
23.13
17.82
11.52
4.64
-2.14
-7.84
-11.27
-11.30
-7.28
0.65
11.39
23.24
34.52
44.20
52.28
59.72
67.86
77.77
89.66
102.64
114.89
124.22
128.72
127.55
121.21
111.46
100.57
90.41
81.65
73.62
64.84
53.89
40.15
24.08
6.93
-9.85
-25.05
-37.97
-48.30
-55.99
-61.15
-64.15
-65.61
-66.42
-67.41
-68.94
-70.51
-70.76
-68.00
-61.13
-50.49
-38.10
-27.03
-20.02
-18.14
-20.12
-22.90
-23.12
-18.76
-9.96
1.19
11.94
20.14
25.07
27.26
27.80
27.54
26.76
25.41
23.42
21.00
18.47
15.84
12.56
7.72
0.51
-9.09
-20.21
-31.53
-42.18
-52.46
-63.73
-77.47
-94.08
-112.15
-128.76
-140.58
-145.18
-141.73
-130.69
-113.15
-90.19
-62.84
-32.59
-1.84
26.27
48.63
63.27
69.96
70.14
66.07
59.87
52.91
45.73
38.45
31.23
24.54
19.11
15.67
14.67
16.07
19.40
23.85
28.56
32.78
35.97
37.74
37.84
36.08
32.42
27.02
20.28
12.71
4.85
-3.03
-10.97
-19.27
-28.31
-38.18
-48.50
-58.34
-66.37
-71.32
-72.28
-69.10
-62.40
-53.38
-43.40
-33.59
-24.62
-16.81
-10.29
-5.26
-2.04
-0.81
-1.38
-2.98
-4.40
-4.42
-2.35
1.57
6.26
10.15
11.84
10.61
6.60
0.72
-5.84
-12.00
-17.20
-21.40
-25.07
-28.85
-33.27
-38.56
-44.52
-50.61
-56.23
-61.00
-65.00
-68.85
-73.59
-80.20
-89.16
-99.91
-110.82
-119.31
-122.69
-118.98
-107.69
-90.12
-69.31
-49.39
-34.51
-27.58
-29.14
-37.03
-47.10
-54.82
-57.15
-53.67
-46.53
-39.01
-33.91
-32.38
-33.79
-36.64
-39.56
-41.88
-43.33
-43.40
-40.95
-34.64
-23.78
-9.04
7.62
23.41
35.71
43.03
45.47
44.46
41.64
37.83
32.63
24.98
14.12
0.44
-14.42
-28.29
-39.14
-46.29
-50.36
-52.33
-52.30
-49.11
-41.09
-27.20
-7.93
15.59
41.20
66.32
88.69
106.92
120.43
129.24
134.09
136.26
138.69
143.45
150.66
158.70
165.57
170.07
172.17
173.48
176.27
184.04
197.94
215.81
232.92
244.25
246.05
236.38
216.07
176.00
115.29
42.57
-27.51
-83.94
-124.52
-153.90
-180.58
-210.04
-242.47
-272.38
-293.46
-301.36
-295.67
-274.45
-235.04
-183.18
-130.07
-86.48
-55.57
-34.33
-17.52
-0.11
17.00
30.40
36.71
35.56
29.60
23.99
19.95
18.34
18.42
18.47
17.12
13.59
8.76
4.59
3.27
5.49
10.43
15.80
19.12
18.98
15.23
9.20
2.92
-1.83
-4.56
-5.78
-6.96
-9.72
-14.89
-22.25
-30.41
-37.23
-40.65
-39.35
-33.03
-22.57
-9.71
3.69
16.01
26.35
34.46
40.45
44.52
46.82
47.35
46.08
43.20
39.19
34.70
30.47
27.04
24.72
23.53
23.23
23.44
23.70
23.69
23.20
22.12
20.45
18.22
15.53
12.55
9.38
6.00
2.23
-2.21
-7.58
-13.88
-20.71
-27.12
-31.87
-33.82
-32.23
-26.95
-18.50
-7.91
3.57
14.76
25.04
34.12
41.80
47.76
51.69
53.33
52.63
49.94
46.01
42.41
40.50
40.85
43.09
46.29
49.37
51.47
52.37
52.41
53.19
55.99
60.99
67.19
73.02
77.04
78.37
77.34
75.14
74.51
77.51
84.36
93.59
102.97
110.28
113.76
112.77
98.83
67.52
20.68
-33.54
-85.32
-127.86
-159.11
-181.57
-198.74
-212.16
-220.47
-221.75
-215.12
-201.04
-178.49
-146.64
-109.22
-73.00
-45.19
-28.97
-21.16
-17.57
-15.40
-13.32
-11.41
-11.48
-13.71
-17.07
-19.37
-18.85
-15.35
-10.10
-4.85
-1.50
-1.51
-4.83
-10.35
-16.09
-20.18
-21.69
-20.33
-16.23
-10.00
-2.51
5.68
14.25
23.12
32.16
40.89
48.73
55.16
59.75
62.27
62.98
62.40
61.17
59.84
58.67
57.82
57.41
57.61
58.56
60.46
63.35
67.09
71.31
75.55
79.39
82.67
85.55
88.41
91.77
96.02
101.24
107.09
112.76
117.14
119.09
117.75
112.76
104.52
94.11
83.06
72.95
64.94
59.41
55.98
53.82
52.04
50.10
47.88
45.45
42.73
39.27
34.31
27.19
17.71
6.40
-5.70
-17.35
-27.48
-35.44
-40.88
-43.67
-43.73
-41.13
-36.13
-29.37
-21.75
-14.27
-7.77
-2.77
0.56
2.30
2.68
1.91
0.10
-2.84
-7.12
-13.04
-20.76
-30.03
-40.13
-49.90
-58.12
-63.97
-67.36
-68.95
-69.83
-71.06
-73.26
-76.48
-80.36
-84.37
-88.10
-91.38
-94.21
-96.68
-98.86
-100.76
-102.32
-103.45
-103.97
-103.66
-102.34
-99.90
-96.41
-92.10
-87.24
-82.13
-76.93
-71.77
-66.67
-61.72
-56.97
-52.54
-48.51
-44.95
-41.93
-39.60
-38.08
-37.46
-37.57
-37.97
-38.03
-37.09
-34.83
-31.42
-27.53
-24.10
-21.98
-21.69
-23.28
-26.36
-30.23
-33.93
-36.33
-36.19
-32.42
-24.43
-12.42
2.52
18.61
33.94
46.98
56.89
63.61
67.51
69.09
68.81
66.97
63.87
59.93
55.65
51.58
48.15
45.62
44.03
43.29
43.22
43.54
43.96
44.11
43.69
42.49
40.50
37.89
34.85
31.51
27.76
23.28
17.71
10.79
2.45
-7.09
-17.43
-27.91
-37.65
-45.57
-50.49
-51.40
-47.80
-39.98
-29.09
-16.85
-5.11
4.60
11.39
15.07
15.93
14.48
11.32
6.93
1.74
-3.88
-9.56
-15.01
-19.97
-24.31
-27.91
-30.65
-32.38
-33.03
-32.70
-31.83
-31.22
-31.81
-34.44
-39.42
-46.41
-54.45
-62.33
-69.01
-74.09
-78.06
-82.26
-88.51
-98.50
-113.08
-131.63
-151.91
-170.43
-183.39
-187.89
-182.91
-169.62
-151.06
-131.02
-112.89
-98.63
-88.55
-81.75
-76.90
-73.16
-70.51
-69.78
-72.09
-78.09
-87.20
-97.27
-104.90
-106.44
-99.21
-82.30
-56.98
-26.33
5.85
36.19
62.60
84.44
102.18
116.88
129.98
142.45
154.15
163.50
167.93
164.68
151.81
129.01
98.03
63.26
30.19
3.76
-12.87
-18.45
-13.22
1.41
23.16
49.08
76.92
104.23
127.98
144.74
152.20
150.30
141.26
128.69
116.65
110.27
113.66
128.36
152.77
183.14
214.71
242.48
261.71
259.91
229.47
173.77
107.12
45.36
-2.42
-34.80
-54.87
-66.86
-74.25
-77.54
-76.20
-70.49
-62.42
-54.71
-49.43
-47.41
-48.33
-51.26
-53.86
-53.95
-50.75
-45.22
-39.14
-34.13
-31.16
-30.67
-32.50
-35.29
-37.27
-37.27
-35.24
-31.82
-27.95
-24.53
-22.23
-21.57
-22.61
-25.49
-30.49
-37.11
-43.14
-44.65
-37.13
-17.70
13.00
50.02
85.64
110.84
118.67
106.82
78.08
38.86
-3.51
-42.85
-74.78
-96.23
-104.92
-99.40
-79.87
-49.62
-14.95
16.29
37.03
44.22
40.12
30.34
20.93
15.66
15.00
17.07
19.36
20.41
20.39
20.47
22.09
25.43
30.11
35.02
39.09
41.75
43.05
43.80
45.05
47.46
51.08
55.71
61.11
67.20
73.64
79.25
82.05
79.66
70.31
53.99
33.03
11.40
-6.83
-18.93
-24.46
-24.57
-21.07
-15.48
-8.75
-1.54
5.10
9.61
10.49
7.11
0.97
-4.60
-5.72
0.50
14.55
34.28
55.84
76.35
92.54
102.91
107.98
109.40
108.77
106.68
102.62
95.48
84.52
69.66
52.00
33.33
15.40
-0.50
-13.77
-24.40
-32.90
-40.11
-47.23
-55.15
-64.32
-74.57
-85.11
-94.79
-102.47
-107.48
-109.81
-110.15
-109.42
-108.63
-108.62
-109.99
-112.91
-116.97
-121.14
-123.83
-123.20
-117.54
-105.86
-88.29
-66.22
-42.00
-18.22
3.05
20.82
35.23
47.12
57.31
65.99
72.50
75.73
74.74
69.21
59.59
46.85
32.13
16.56
1.36
-12.11
-22.38
-28.33
-29.69
-27.22
-22.48
-17.11
-12.18
-7.84
-3.59
1.06
6.09
10.74
13.93
14.69
12.60
7.77
0.68
-8.06
-17.81
-27.95
-37.76
-46.49
-53.51
-58.32
-60.70
-60.60
-58.16
-53.73
-47.81
-41.00
-33.88
-26.81
-19.84
-12.91
-6.07
0.30
5.44
8.56
9.09
6.92
2.33
-4.23
-12.42
-22.10
-33.22
-45.55
-58.43
-70.82
-81.55
-89.80
-95.50
-99.36
-102.51
-105.77
-108.93
-110.37
-107.50
-97.70
-79.59
-53.80
-22.96
9.37
39.87
66.46
88.55
106.40
120.48
130.97
137.89
141.41
142.08
140.44
136.43
129.20
117.71
102.21
85.29
71.49
65.49
69.52
81.72
96.67
107.86
110.78
104.67
92.06
76.54
60.34
43.58
25.42
6.22
-11.25
-22.54
-24.00
-15.35
-0.58
13.63
20.97
18.47
7.69
-6.30
-17.65
-22.44
-20.19
-13.51
-6.33
-1.84
-1.23
-3.67
-7.36
-10.81
-13.63
-16.57
-20.71
-26.63
-33.89
-41.25
-47.28
-51.19
-53.12
-53.91
-54.53
-55.44
-56.50
-57.22
-57.21
-56.56
-55.86
-55.82
-56.99
-59.42
-62.76
-66.52
-70.48
-74.85
-80.23
-87.30
-96.26
-106.50
-116.38
-123.52
-125.39
-120.07
-106.97
-87.07
-62.73
-36.90
-12.34
9.04
26.35
39.51
48.73
54.24
56.17
54.68
50.22
43.61
35.96
28.50
22.26
17.84
15.37
14.53
14.69
15.07
14.97
13.90
11.67
8.32
4.03
-0.97
-6.54
-12.69
-19.54
-27.33
-36.24
-46.25
-56.95
-67.37
-76.09
-81.41
-81.82
-76.42
-65.19
-49.11
-29.91
-9.67
9.59
26.31
39.59
49.15
55.28
58.52
59.49
58.71
56.54
53.29
49.30
45.02
41.00
37.75
35.61
34.58
34.38
34.44
34.12
32.89
30.46
26.79
22.09
16.67
10.86
4.84
-1.35
-7.88
-15.08
-23.27
-32.58
-42.69
-52.67
-60.97
-65.72
-65.17
-58.31
-45.25
-27.32
-6.75
13.93
32.59
47.86
59.29
67.11
71.85
74.04
74.07
72.18
68.67
63.97
58.70
53.53
49.03
45.56
43.23
41.93
41.41
41.27
41.08
40.37
38.74
35.95
32.00
27.14
21.75
16.22
10.76
5.29
-0.52
-7.24
-15.39
-25.17
-36.14
-47.10
-56.11
-60.97
-59.89
-52.07
-38.11
-19.87
0.12
19.38
36.09
49.39
59.16
65.73
69.44
70.57
69.38
66.26
61.86
57.00
52.51
48.90
46.35
44.62
43.26
41.81
40.02
37.84
35.34
32.62
29.55
25.86
21.23
15.46
8.68
1.34
-5.96
-12.78
-19.08
-25.18
-31.56
-38.55
-46.16
-54.09
-61.92
-69.18
-75.32
-79.54
-80.73
-77.69
-69.62
-56.63
-39.90
-21.48
-3.57
12.12
24.82
34.61
41.99
47.37
50.84
52.30
51.63
49.10
45.39
41.41
38.07
35.93
35.06
35.10
35.43
35.40
34.56
32.75
30.11
26.98
23.71
20.59
17.63
14.64
11.31
7.39
2.83
-2.12
-7.04
-11.48
-15.15
-18.06
-20.48
-22.88
-25.78
-29.66
-34.83
-41.32
-48.69
-56.01
-61.84
-64.55
-62.74
-55.74
-43.92
-28.66
-11.94
4.23
18.33
29.57
37.88
43.62
47.24
49.17
49.70
49.12
47.69
45.72
43.48
41.18
39.01
37.12
35.68
34.85
34.74
35.35
36.53
37.97
39.24
39.82
39.24
37.17
33.54
28.61
22.81
16.66
10.59
4.80
-0.78
-6.35
-12.13
-18.27
-24.72
-31.30
-37.65
-43.36
-48.03
-51.46
-53.71
-55.24
-56.76
-59.03
-62.55
-67.30
-72.61
-77.25
-79.67
-78.41
-72.54
-61.94
-47.38
-30.36
-12.74
3.77
17.92
29.12
37.33
42.82
46.02
47.29
46.96
45.40
43.03
40.25
37.41
34.72
32.26
30.07
28.18
26.69
25.75
25.43
25.66
26.11
26.28
25.57
23.51
19.93
15.00
9.26
3.36
-2.12
-6.86
-10.89
-14.49
-18.03
-21.75
-25.71
-29.73
-33.46
-36.55
-38.80
-40.23
-41.12
-42.02
-43.51
-46.12
-50.06
-55.12
-60.54
-65.07
-67.15
-65.26
-58.36
-46.27
-29.88
-10.98
8.17
25.45
39.40
49.38
55.50
58.27
58.25
55.86
51.50
45.64
38.93
32.21
26.23
21.49
18.16
16.04
14.80
14.11
13.74
13.61
13.66
13.75
13.66
13.02
11.47
8.71
4.66
-0.48
-6.33
-12.38
-18.20
-23.56
-28.47
-33.18
-38.03
-43.39
-49.47
-56.23
-63.29
-69.84
-74.70
-76.52
-74.13
-66.89
-55.05
-39.72
-22.68
-5.88
9.00
20.91
29.47
34.85
37.44
37.72
36.09
32.99
28.93
24.53
20.40
17.02
14.58
13.04
12.12
11.55
11.13
10.84
10.71
10.77
10.84
10.57
9.44
6.96
2.86
-2.75
-9.37
-16.26
-22.65
-28.03
-32.32
-35.92
-39.54
-43.94
-49.60
-56.46
-63.72
-70.04
-73.71
-73.19
-67.50
-56.63
-41.57
-24.05
-6.14
10.33
24.10
34.63
41.93
46.33
48.29
48.27
46.78
44.35
41.51
38.66
35.97
33.34
30.48
27.20
23.48
19.62
16.10
13.38
11.73
11.09
11.02
10.85
9.79
7.20
2.79
-3.20
-10.10
-17.00
-23.08
-27.92
-31.70
-35.04
-38.84
-43.82
-50.26
-57.76
-65.25
-71.17
-73.82
-71.89
-64.88
-53.27
-38.45
-22.26
-6.46
7.74
19.76
29.51
37.04
42.34
45.28
45.82
44.24
41.12
37.28
33.50
30.28
27.84
26.17
25.14
24.65
24.58
24.79
25.07
25.12
24.64
23.30
20.84
17.10
12.10
6.15
-0.19
-6.25
-11.54
-15.96
-19.94
-24.23
-29.67
-36.81
-45.64
-55.50
-65.13
-72.88
-77.01
-76.13
-69.55
-57.59
-41.52
-23.37
-5.33
10.73
23.67
33.17
39.55
43.42
45.39
45.91
45.28
43.73
41.55
39.10
36.73
34.65
32.89
31.30
29.72
28.08
26.48
25.11
24.01
23.01
21.64
19.35
15.71
10.65
4.53
-2.02
-8.36
-14.06
-19.10
-23.83
-28.84
-34.78
-42.01
-50.41
-59.21
-67.00
-72.05
-72.67
-67.82
-57.41
-42.44
-24.74
-6.48
10.37
24.49
35.25
42.66
47.08
49.01
48.93
47.26
44.42
40.88
37.15
33.72
30.95
28.96
27.68
26.89
26.40
26.11
26.02
26.13
26.29
26.11
25.07
22.71
18.77
13.42
7.10
0.45
-5.94
-11.66
-16.68
-21.28
-26.04
-31.63
-38.60
-46.99
-56.14
-64.65
-70.61
-72.12
-67.87
-57.65
-42.41
-24.05
-4.91
12.86
27.75
39.05
46.78
51.38
53.49
53.66
52.36
49.95
46.78
43.23
39.69
36.46
33.74
31.57
29.94
28.77
28.04
27.66
27.49
27.18
26.24
24.13
20.41
14.98
8.17
0.63
-6.84
-13.56
-19.20
-23.85
-28.02
-32.50
-38.04
-45.06
-53.39
-62.09
-69.56
-73.92
-73.49
-67.40
-55.86
-40.18
-22.40
-4.73
11.03
23.80
33.30
39.85
44.08
46.61
47.86
48.00
47.03
44.93
41.83
38.05
34.05
30.34
27.34
25.31
24.34
24.35
25.19
26.57
28.08
29.18
29.20
27.53
23.83
18.17
11.14
3.67
-3.29
-9.11
-13.75
-17.78
-22.18
-27.96
-35.74
-45.50
-56.48
-67.23
-75.92
-80.63
-79.90
-73.13
-60.79
-44.40
-26.19
-8.47
6.89
18.81
27.00
31.80
33.78
33.51
31.55
28.45
24.88
21.65
19.53
19.10
20.59
23.78
28.06
32.61
36.58
39.24
40.11
39.03
36.19
31.98
26.86
21.27
15.45
9.54
3.60
-2.19
-7.57
-12.24
-16.03
-19.02
-21.64
-24.52
-28.35
-33.64
-40.48
-48.44
-56.55
-63.39
-67.39
-67.20
-62.06
-52.09
-38.32
-22.39
-6.17
8.69
21.08
30.53
37.12
41.22
43.31
43.83
43.13
41.44
38.94
35.79
32.20
28.43
24.91
22.08
20.32
19.74
20.15
21.04
21.78
21.82
20.88
18.92
16.09
12.57
8.51
4.01
-0.77
-5.65
-10.41
-14.86
-18.91
-22.56
-25.89
-29.02
-32.14
-35.47
-39.28
-43.87
-49.45
-55.93
-62.73
-68.68
-72.14
-71.49
-65.61
-54.46
-39.12
-21.63
-4.29
10.96
23.00
31.64
37.32
40.76
42.59
43.26
43.04
42.16
40.88
39.51
38.29
37.41
36.84
36.39
35.78
34.79
33.37
31.65
29.89
28.26
26.65
24.67
21.76
17.40
11.48
4.29
-3.44
-10.89
-17.42
-22.82
-27.32
-31.46
-35.84
-40.86
-46.62
-52.76
-58.52
-62.78
-64.30
-62.03
-55.46
-44.90
-31.46
-16.80
-2.69
9.49
18.99
25.68
29.86
31.96
32.39
31.45
29.46
26.78
23.86
21.15
18.99
17.52
16.69
16.33
16.23
16.30
16.49
16.77
16.98
16.76
15.63
13.13
9.11
3.78
-2.26
-8.20
-13.31
-17.17
-19.76
-21.47
-22.98
-25.08
-28.42
-33.29
-39.49
-46.18
-52.03
-55.53
-55.41
-51.07
-42.76
-31.57
-19.02
-6.56
4.74
14.41
22.45
28.95
33.91
37.08
38.11
36.84
33.55
29.03
24.32
20.40
17.81
16.50
16.01
15.73
15.27
14.66
14.24
14.32
14.95
15.62
15.44
13.50
9.22
2.73
-5.16
-13.14
-19.90
-24.55
-26.93
-27.65
-27.92
-29.12
-32.41
-38.35
-46.68
-56.31
-65.55
-72.46
-75.41
-73.55
-67.11
-57.34
-45.90
-34.01
-21.63
-7.32
11.24
36.04
67.47
103.65
140.60
173.32
197.18
209.23
208.80
197.30
177.32
151.71
122.84
92.44
61.82
32.33
5.43
-17.41
-35.19
-47.77
-56.09
-61.77
-66.49
-71.26
-76.01
-79.81
-81.35
-79.80
-75.34
-69.21
-63.26
-59.01
-56.96
-56.36
-55.72
-53.82
-50.44
-46.38
-42.69
-39.66
-36.21
-30.35
-20.38
-6.28
9.65
23.52
31.41
31.10
23.00
9.79
-4.83
-17.60
-26.42
-30.34
-29.12
-22.98
-12.62
0.35
13.29
23.19
27.90
27.44
24.44
23.22
27.63
38.66
53.34
65.67
69.32
60.80
41.33
16.27
-7.66
-25.80
-37.82
-47.41
-59.69
-77.93
-101.36
-125.34
-143.63
-151.15
-145.99
-129.63
-105.58
-77.66
-48.72
-20.53
5.68
28.48
46.01
56.39
58.56
52.81
40.92
25.73
10.51
-1.55
-7.85
-6.72
2.20
17.88
38.00
59.48
79.33
95.60
107.96
117.62
126.62
136.79
148.82
161.65
172.77
179.00
177.55
166.84
146.82
118.82
85.05
48.21
11.08
-23.71
-54.01
-78.63
-97.58
-111.91
-123.15
-132.53
-140.42
-146.27
-148.98
-147.50
-141.33
-130.72
-116.57
-100.28
-83.55
-68.05
-55.09
-45.31
-38.55
-34.03
-30.74
-27.86
-24.97
-21.99
-19.02
-16.11
-13.23
-10.36
-7.61
-5.18
-3.33
-2.18
-1.59
-1.22
-0.68
0.26
1.52
2.72
3.33
2.91
1.24
-1.60
-5.33
-9.60
-14.04
-18.41
-22.54
-26.36
-29.99
-33.75
-38.13
-43.58
-50.29
-57.84
-65.16
-70.71
-72.83
-70.27
-62.60
-50.35
-34.84
-17.80
-0.89
14.64
28.13
39.43
48.69
56.11
61.80
65.72
67.85
68.27
67.30
65.45
63.30
61.35
59.87
58.89
58.28
57.83
57.33
56.58
55.41
53.60
50.92
47.19
42.27
36.14
28.88
20.76
12.16
3.65
-4.21
-10.98
-16.52
-21.13
-25.40
-30.10
-35.87
-42.97
-51.17
-59.69
-67.25
-72.32
-73.34
-69.19
-59.55
-45.11
-27.51
-8.89
8.69
23.78
35.72
44.54
50.61
54.29
55.79
55.29
53.07
49.70
45.92
42.48
39.88
38.24
37.31
36.73
36.14
35.37
34.45
33.43
32.31
30.85
28.65
25.28
20.53
14.55
7.82
1.02
-5.24
-10.67
-15.40
-19.90
-24.81
-30.63
-37.49
-45.01
-52.24
-57.80
-60.19
-58.11
-50.92
-38.93
-23.36
-6.16
10.59
25.15
36.49
44.38
49.14
51.40
51.72
50.54
48.15
44.80
40.82
36.64
32.78
29.71
27.72
26.84
26.87
27.43
28.11
28.56
28.59
28.12
27.11
25.53
23.30
20.32
16.53
11.96
6.78
1.25
-4.27
-9.42
-13.92
-17.66
-20.82
-23.85
-27.40
-32.04
-38.08
-45.23
-52.59
-58.69
-61.93
-60.98
-55.24
-45.12
-31.93
-17.56
-3.94
7.46
15.97
21.69
25.26
27.45
28.87
29.78
30.20
30.06
29.43
28.47
27.48
26.67
26.09
25.64
25.17
24.62
24.09
23.77
23.80
24.10
24.30
23.85
22.14
18.80
13.85
7.72
1.17
-5.04
-10.34
-14.64
-18.23
-21.79
-26.08
-31.72
-38.94
-47.41
-56.22
-63.92
-68.79
-69.32
-64.60
-54.76
-40.97
-25.22
-9.68
3.89
14.59
22.37
27.71
31.15
32.88
32.78
30.66
26.64
21.42
16.15
12.06
10.01
10.04
11.38
12.78
13.03
11.49
8.34
4.39
0.57
-2.56
-5.15
-7.93
-11.87
-17.66
-25.56
-35.43
-46.73
-58.30
-67.97
-72.39
-67.79
-51.35
-22.78
14.94
56.29
95.09
126.66
149.05
162.79
169.41
169.94
164.23
151.55
131.81
106.53
78.72
51.81
28.32
9.05
-6.78
-20.66
-33.71
-46.02
-56.71
-64.59
-69.02
-70.31
-69.63
-68.35
-67.33
-66.60
-65.49
-63.31
-59.96
-56.18
-53.22
-52.22
-53.50
-56.44
-59.70
-61.94
-62.50
-61.65
-60.41
-59.93
-60.95
-63.46
-66.75
-69.76
-71.39
-70.66
-66.78
-59.19
-47.66
-32.56
-15.04
3.09
19.58
32.50
40.78
44.52
44.82
43.21
40.99
38.81
36.70
34.44
32.01
29.74
28.16
27.67
28.24
29.44
30.59
31.12
30.74
29.38
27.08
23.81
19.55
14.40
8.75
3.17
-1.87
-6.26
-10.36
-14.80
-20.10
-26.39
-33.31
-40.19
-46.48
-51.99
-56.88
-61.57
-66.39
-71.37
-76.13
-79.91
-81.59
-80.01
-74.27
-64.08
-50.07
-33.81
-17.42
-3.06
7.69
14.22
16.95
17.13
16.46
16.69
19.19
24.60
32.79
42.88
53.67
64.15
73.85
82.88
91.66
100.50
109.26
117.38
124.14
129.05
131.88
132.55
130.85
126.34
118.50
107.14
92.73
76.42
59.78
44.24
30.61
18.93
8.54
-1.51
-12.01
-23.30
-35.08
-46.39
-55.85
-61.98
-63.66
-60.49
-52.90
-41.95
-28.88
-14.64
0.18
15.09
29.28
41.48
50.29
54.99
56.18
55.81
56.33
59.58
65.91
74.25
83.00
91.10
98.51
105.86
113.47
120.65
125.83
127.32
124.40
117.66
108.66
99.09
89.99
81.57
73.39
64.82
55.26
44.11
30.62
13.90
-6.75
-31.51
-59.96
-91.27
-124.69
-160.03
-197.63
-237.97
-281.04
-325.72
-369.65
-409.37
-440.89
-460.33
-464.63
-452.12
-422.81
-378.30
-321.57
-256.56
-187.75
-119.85
-57.38
-4.21
37.15
66.00
83.59
92.63
96.28
97.06
96.13
93.48
88.57
81.24
72.13
62.52
53.76
46.65
41.13
36.44
31.51
25.39
17.65
8.57
-0.80
-8.73
-13.18
-12.38
-5.44
7.23
23.91
42.07
59.10
73.06
83.02
88.97
91.39
90.77
87.49
81.80
74.16
65.30
56.19
47.83
40.87
35.53
31.63
28.76
26.56
24.78
23.27
21.84
20.11
17.56
13.65
8.01
0.66
-8.01
-17.33
-26.57
-35.22
-43.06
-50.24
-57.18
-64.39
-72.27
-80.94
-90.03
-98.57
-105.10
-107.96
-105.73
-97.76
-84.52
-67.47
-48.75
-30.54
-14.56
-1.88
7.03
12.13
13.61
11.96
7.95
2.62
-2.88
-7.45
-10.19
-10.35
-7.28
-0.42
10.48
25.11
42.48
61.07
79.17
95.18
107.76
115.64
117.51
112.12
98.80
78.04
51.82
23.28
-4.30
-28.60
-49.05
-66.68
-83.21
-99.73
-115.81
-129.48
-137.96
-138.89
-131.08
-114.87
-91.72
-63.60
-32.53
-0.32
31.33
60.78
86.33
106.38
119.51
124.76
121.79
111.11
94.18
73.28
51.20
30.65
13.72
1.41
-6.35
-10.42
-12.05
-12.50
-12.75
-13.53
-15.31
-18.37
-22.75
-28.27
-34.56
-41.19
-47.86
-54.56
-61.59
-69.36
-77.89
-86.53
-93.74
-97.39
-95.33
-86.20
-69.97
-48.10
-23.14
2.00
24.88
44.02
58.94
69.90
77.43
82.03
84.07
83.85
81.79
78.39
74.28
70.00
66.01
62.67
60.21
58.77
58.32
58.56
58.98
58.92
57.84
55.43
51.68
46.82
41.07
34.60
27.38
19.21
9.85
-0.93
-13.16
-26.48
-39.90
-51.78
-59.98
-62.40
-57.63
-45.52
-27.40
-5.72
16.61
37.08
54.12
67.20
76.56
82.71
86.06
86.84
85.26
81.75
77.04
72.16
68.08
65.48
64.52
64.91
66.06
67.37
68.31
68.45
67.31
64.34
58.99
50.97
40.42
28.06
15.02
2.50
-8.57
-17.87
-25.64
-32.61
-39.70
-47.74
-57.17
-67.86
-78.89
-88.60
-94.88
-95.66
-89.54
-76.36
-57.29
-34.57
-10.98
10.90
29.18
42.81
51.58
55.79
56.15
53.55
49.08
43.84
38.85
34.74
31.71
29.46
27.43
25.05
22.00
18.36
14.61
11.43
9.46
8.99
9.81
11.21
12.23
12.03
10.19
6.97
3.21
-0.10
-2.30
-3.53
-4.80
-7.51
-12.74
-20.46
-29.15
-36.17
-38.63
-34.47
-23.32
-6.57
13.14
32.85
50.21
64.01
74.22
81.57
87.08
91.45
94.79
96.49
95.44
90.49
80.93
66.88
49.37
30.05
10.74
-7.02
-22.15
-34.13
-42.86
-48.61
-52.00
-53.96
-55.53
-57.67
-60.93
-65.29
-70.26
-75.11
-79.32
-82.87
-86.30
-90.45
-95.98
-102.74
-109.53
-114.12
-113.89
-106.79
-92.15
-71.13
-46.35
-21.14
1.54
19.83
33.09
41.64
46.19
47.42
45.87
42.03
36.53
30.18
23.83
18.18
13.67
10.44
8.44
7.49
7.35
7.71
8.11
7.96
6.72
4.02
-0.24
-5.80
-12.22
-18.98
-25.63
-31.91
-37.77
-43.44
-49.34
-55.93
-63.44
-71.49
-78.83
-83.47
-83.12
-76.04
-61.77
-41.53
-17.92
5.87
27.08
44.03
56.31
64.37
68.99
70.80
70.20
67.52
63.24
58.06
52.77
48.00
44.04
40.83
38.15
35.80
33.78
32.25
31.40
31.18
31.20
30.74
28.94
25.11
19.02
10.99
1.84
-7.43
-15.97
-23.42
-29.98
-36.34
-43.37
-51.79
-61.72
-72.43
-82.30
-89.06
-90.41
-84.73
-71.80
-52.94
-30.75
-8.30
11.69
27.57
38.88
46.13
50.19
51.89
51.70
49.86
46.49
41.86
36.41
30.69
25.28
20.63
17.00
14.50
13.01
12.25
11.82
11.14
9.66
6.92
2.73
-2.78
-9.19
-15.97
-22.64
-28.94
-34.93
-40.93
-47.39
-54.62
-62.45
-69.97
-75.54
-77.14
-73.02
-62.34
-45.66
-24.84
-2.57
18.41
35.98
49.00
57.26
61.25
61.72
59.51
55.33
49.77
43.30
36.37
29.43
22.97
17.52
13.51
11.12
10.17
10.17
10.39
10.13
8.82
6.18
2.19
-3.02
-9.19
-16.03
-23.23
-30.52
-37.75
-44.96
-52.44
-60.53
-69.35
-78.33
-86.09
-90.55
-89.50
-81.45
-66.30
-45.56
-21.99
1.26
21.56
37.43
48.58
55.61
59.38
60.66
59.98
57.72
54.28
50.17
45.95
42.06
38.78
36.13
34.02
32.38
31.23
30.63
30.55
30.76
30.73
29.66
26.75
21.43
13.67
4.09
-6.25
-16.15
-24.79
-32.00
-38.37
-44.95
-52.83
-62.52
-73.63
-84.68
-93.40
-97.30
-94.41
-83.96
-66.74
-44.86
-21.22
1.34
20.74
35.98
47.03
54.36
58.56
60.08
59.27
56.58
52.65
48.27
44.15
40.71
37.96
35.64
33.41
31.08
28.73
26.61
24.92
23.65
22.45
20.69
17.72
13.08
6.73
-0.89
-8.97
-16.69
-23.46
-29.17
-34.22
-39.39
-45.55
-53.30
-62.69
-73.00
-82.67
-89.53
-91.34
-86.42
-74.31
-56.01
-33.80
-10.61
10.77
28.39
41.40
49.90
54.53
56.07
55.18
52.39
48.25
43.36
38.37
33.88
30.28
27.70
26.05
25.14
24.78
24.90
25.37
25.97
26.25
25.57
23.26
18.88
12.43
4.42
-4.28
-12.68
-20.03
-26.11
-31.30
-36.47
-42.64
-50.50
-59.97
-69.97
-78.50
-83.11
-81.64
-72.98
-57.50
-37.10
-14.61
7.07
25.70
40.20
50.50
57.20
60.98
62.32
61.45
58.52
53.93
48.38
42.76
37.91
34.35
32.07
30.69
29.63
28.45
27.03
25.52
24.16
23.02
21.80
19.92
16.65
11.53
4.53
-3.82
-12.64
-20.90
-27.83
-33.14
-37.08
-40.38
-44.03
-48.98
-55.82
-64.47
-73.97
-82.52
-87.79
-87.50
-80.16
-65.61
-45.29
-21.79
1.86
23.04
40.17
52.85
61.55
67.07
70.15
71.26
70.62
68.40
64.91
60.58
55.96
51.60
47.90
45.06
43.02
41.53
40.25
38.88
37.24
35.33
33.14
30.59
27.44
23.28
17.76
10.74
2.43
-6.62
-15.73
-24.30
-32.01
-38.90
-45.32
-51.71
-58.55
-66.21
-74.85
-84.17
-93.25
-100.46
-103.63
-100.74
-90.61
-73.59
-51.57
-27.51
-4.48
15.19
30.43
41.30
48.56
53.00
55.19
55.33
53.54
50.03
45.28
39.97
34.91
30.77
27.93
26.42
25.90
25.86
25.80
25.41
24.55
23.18
21.24
18.59
15.01
10.34
4.56
-2.18
-9.60
-17.32
-25.01
-32.36
-39.11
-45.08
-50.23
-54.71
-58.88
-63.30
-68.49
-74.71
-81.64
-88.23
-92.71
-93.01
-87.40
-75.08
-56.65
-34.02
-9.86
13.12
32.90
48.49
59.81
67.32
71.53
72.84
71.51
67.93
62.75
56.87
51.20
46.44
42.82
40.19
38.10
36.14
34.12
32.15
30.48
29.30
28.48
27.51
25.61
22.07
16.59
9.43
1.35
-6.72
-13.98
-20.11
-25.30
-30.15
-35.40
-41.75
-49.59
-58.86
-68.77
-77.82
-83.93
-84.96
-79.40
-66.96
-48.83
-27.33
-5.27
14.89
31.56
44.15
52.84
58.11
60.50
60.41
58.25
54.52
49.83
44.92
40.45
36.87
34.28
32.53
31.27
30.17
29.03
27.85
26.79
25.97
25.33
24.50
22.94
20.05
15.43
9.06
1.30
-7.16
-15.58
-23.33
-30.12
-36.00
-41.37
-46.87
-53.16
-60.72
-69.55
-78.98
-87.58
-93.34
-94.18
-88.57
-76.13
-57.82
-35.74
-12.56
9.20
27.76
42.25
52.56
59.03
62.09
62.22
59.91
55.79
50.66
45.34
40.53
36.59
33.55
31.16
29.14
27.34
25.80
24.66
23.97
23.58
23.00
21.52
18.46
13.41
6.44
-1.88
-10.63
-18.92
-26.12
-32.14
-37.46
-42.90
-49.33
-57.34
-66.89
-77.10
-86.31
-92.32
-92.94
-86.69
-73.30
-53.92
-30.92
-7.21
14.53
32.44
45.75
54.60
59.61
61.50
60.83
58.01
53.48
47.77
41.54
35.45
30.02
25.54
22.12
19.73
18.29
17.63
17.43
17.17
16.16
13.75
9.48
3.30
-4.44
-13.10
-21.92
-30.31
-37.97
-45.09
-52.20
-59.96
-68.77
-78.26
-87.12
-93.15
-93.90
-87.52
-73.48
-52.96
-28.49
-3.21
20.12
39.74
55.07
66.40
74.39
79.57
82.29
82.63
80.71
76.73
71.05
64.15
56.53
48.73
41.26
34.65
29.33
25.46
22.84
20.84
18.58
15.17
10.12
3.49
-4.06
-11.52
-18.02
-23.10
-26.96
-30.29
-34.01
-38.92
-45.42
-53.22
-61.30
-67.82
-70.51
-67.17
-56.41
-38.26
-14.32
12.69
39.90
65.26
88.02
108.55
127.58
145.30
160.85
172.40
177.65
174.70
162.62
141.84
113.99
81.48
47.04
13.30
-17.49
-43.52
-63.58
-77.19
-84.85
-88.03
-88.93
-89.83
-92.32
-96.77
-102.30
-107.40
-110.81
-112.21
-112.40
-112.84
-114.94
-119.42
-125.91
-132.94
-138.21
-139.09
-133.29
-119.56
-98.30
-71.59
-42.72
-15.13
8.69
27.84
42.94
55.32
66.05
75.37
82.72
87.36
89.02
88.15
85.67
82.36
78.41
73.48
67.09
59.34
51.17
44.14
39.82
39.06
41.74
46.84
52.96
58.78
63.28
65.71
65.43
61.92
54.92
44.63
31.66
16.81
0.87
-15.42
-31.08
-44.53
-53.47
-55.50
-49.07
-34.50
-14.27
7.60
26.95
40.98
48.93
51.90
51.76
49.99
47.08
42.57
35.64
25.82
13.26
-1.34
-17.01
-32.67
-47.24
-59.59
-68.66
-73.70
-74.65
-72.26
-67.99
-63.62
-60.66
-60.06
-62.02
-66.15
-71.74
-78.03
-84.46
-90.81
-97.25
-104.20
-112.02
-120.51
-128.53
-133.94
-134.01
-126.29
-109.65
-84.83
-54.46
-22.35
7.74
33.01
52.22
65.47
73.69
77.96
79.14
77.80
74.42
69.60
64.06
58.57
53.71
49.75
46.69
44.35
42.49
40.90
39.39
37.66
35.29
31.74
26.54
19.47
10.72
0.87
-9.27
-18.98
-27.82
-35.87
-43.64
-51.97
-61.62
-72.89
-85.15
-96.63
-104.66
-106.38
-99.74
-84.37
-61.88
-35.41
-8.58
15.58
35.34
50.35
61.10
68.32
72.51
73.95
72.84
69.61
64.95
59.67
54.47
49.77
45.67
42.12
39.07
36.53
34.62
33.34
32.41
31.21
28.93
24.84
18.65
10.61
1.48
-7.79
-16.42
-24.05
-30.89
-37.57
-44.92
-53.63
-63.84
-74.88
-85.03
-91.82
-92.60
-85.39
-69.72
-46.94
-19.93
7.77
32.95
53.55
68.88
79.34
85.84
89.34
90.52
89.85
87.66
84.26
79.90
74.68
68.60
61.55
53.56
44.90
36.04
27.53
19.73
12.69
6.11
-0.40
-7.15
-14.17
-21.21
-27.92
-34.06
-39.63
-44.98
-50.68
-57.39
-65.60
-75.36
-85.97
-95.83
-102.58
-103.61
-96.91
-81.81
-59.40
-32.39
-4.29
21.59
43.01
59.11
70.30
77.55
81.90
84.02
84.18
82.51
79.21
74.69
69.61
64.72
60.67
57.88
56.48
56.34
57.08
58.16
59.01
59.04
57.77
54.90
50.33
44.21
36.95
29.27
22.04
16.09
11.93
9.49
8.15
7.02
5.44
3.35
1.44
0.79
2.35
6.50
12.96
21.04
30.05
39.44
48.84
57.65
64.89
69.13
68.86
63.08
51.76
36.07
18.22
0.91
-13.41
-23.30
-28.62
-30.49
-30.69
-30.82
-31.69
-33.09
-34.20
-34.29
-33.31
-32.08
-31.96
-34.18
-39.21
-46.58
-55.16
-63.70
-71.32
-77.78
-83.34
-88.51
-93.83
-99.74
-106.56
-114.23
-122.09
-128.54
-131.15
-127.30
-115.18
-94.64
-67.59
-37.45
-8.08
17.42
37.40
51.71
61.16
66.77
69.30
69.18
66.71
62.36
56.91
51.32
46.52
43.09
41.06
39.99
39.12
37.75
35.51
32.46
28.97
25.45
22.03
18.40
13.89
7.79
-0.34
-10.43
-21.79
-33.39
-44.15
-53.33
-60.76
-66.84
-72.29
-77.94
-84.42
-92.01
-100.43
-108.75
-115.35
-118.09
-114.79
-103.93
-85.28
-60.19
-31.35
-2.04
24.75
46.97
63.82
75.53
82.86
86.71
87.84
86.80
84.05
80.00
75.04
69.53
63.74
57.81
51.85
45.95
40.30
35.15
30.72
27.02
23.75
20.30
15.89
9.92
2.19
-6.87
-16.37
-25.28
-32.84
-38.88
-43.92
-48.97
-55.21
-63.50
-73.99
-85.80
-96.95
-104.68
-106.03
-98.77
-82.22
-57.63
-28.00
2.86
31.40
55.24
73.45
86.27
94.42
98.56
99.08
96.26
90.64
83.18
75.20
68.06
62.66
59.23
57.28
55.88
54.05
51.15
47.07
42.09
36.64
30.92
24.72
17.50
8.62
-2.27
-14.90
-28.42
-41.59
-53.18
-62.42
-69.22
-74.09
-78.00
-82.03
-87.13
-93.95
-102.64
-112.60
-122.32
-129.43
-131.16
-125.18
-110.51
-88.10
-60.64
-31.80
-5.04
17.29
34.37
46.54
54.73
59.79
62.31
62.66
61.23
58.60
55.50
52.62
50.39
48.91
47.96
47.24
46.50
45.68
44.92
44.40
44.22
44.12
43.48
41.40
37.04
29.99
20.56
9.76
-1.08
-10.79
-18.81
-25.39
-31.39
-37.97
-46.10
-56.29
-68.31
-81.12
-92.87
-101.07
-103.11
-96.94
-81.85
-58.91
-30.90
-1.50
25.70
48.17
64.93
76.27
83.16
86.54
87.02
84.89
80.43
74.22
67.13
60.10
53.82
48.55
44.11
40.20
36.63
33.54
31.24
30.02
29.81
30.09
29.92
28.22
24.09
17.17
7.74
-3.33
-14.88
-25.93
-35.98
-45.21
-54.33
-64.34
-76.06
-89.71
-104.68
-119.36
-131.36
-137.89
-136.45
-125.61
-105.63
-78.58
-47.96
-17.79
8.44
28.50
41.65
48.41
49.89
47.37
41.91
34.41
25.64
16.42
7.63
0.16
-5.24
-8.08
-8.26
-6.07
-2.18
2.51
7.04
10.58
12.56
12.71
11.02
7.67
2.97
-2.71
-9.09
-16.00
-23.55
-32.07
-41.95
-53.31
-65.57
-77.16
-85.65
-88.32
-83.04
-69.11
-47.69
-21.55
5.73
30.79
51.34
66.47
76.39
81.95
84.04
83.34
80.25
75.13
68.42
60.80
53.05
46.01
40.32
36.30
33.89
32.73
32.19
31.60
30.37
28.04
24.41
19.51
13.51
6.69
-0.68
-8.42
-16.54
-25.23
-34.87
-45.80
-58.07
-70.99
-83.00
-91.73
-94.61
-89.67
-76.30
-55.68
-30.48
-4.12
20.24
40.47
55.68
66.06
72.28
75.08
75.02
72.50
67.99
62.14
55.77
49.70
44.56
40.67
38.05
36.52
35.88
35.92
36.45
37.13
37.43
36.63
34.05
29.32
22.68
15.01
7.63
1.81
-1.71
-3.07
-3.22
-3.46
-4.91
-8.11
-12.83
-18.41
-24.14
-29.67
-35.13
-41.07
-48.11
-56.67
-66.69
-77.39
-87.25
-94.20
-96.03
-91.05
-78.68
-59.75
-36.35
-11.38
12.36
32.69
48.48
59.55
66.37
69.64
70.00
67.99
64.15
59.05
53.36
47.75
42.75
38.67
35.58
33.45
32.18
31.63
31.57
31.59
31.12
29.54
26.36
21.40
14.85
7.24
-0.76
-8.53
-15.78
-22.61
-29.57
-37.42
-46.81
-57.77
-69.39
-79.68
-85.99
-85.79
-77.56
-61.46
-39.42
-14.54
9.84
31.06
47.64
59.28
66.39
69.64
69.63
66.89
62.01
55.73
48.90
42.27
36.31
31.22
27.03
23.74
21.43
20.23
20.11
20.71
21.36
21.18
19.40
15.62
9.98
3.05
-4.37
-11.55
-18.12
-24.16
-30.19
-37.01
-45.37
-55.59
-67.21
-78.76
-87.94
-92.09
-89.03
-77.88
-59.48
-36.29
-11.65
11.20
29.94
43.62
52.44
57.24
58.92
58.11
55.15
50.25
43.77
36.34
28.82
22.12
16.99
13.83
12.56
12.69
13.43
13.93
13.50
11.79
8.79
4.76
0.09
-4.96
-10.23
-15.75
-21.65
-28.20
-35.72
-44.47
-54.44
-65.03
-74.86
-81.85
-83.72
-78.73
-66.40
-47.87
-25.65
-2.89
17.51
33.71
45.10
52.09
55.56
56.37
55.11
52.11
47.68
42.22
36.36
30.75
25.95
22.27
19.73
18.12
17.14
16.43
15.65
14.48
12.59
9.71
5.72
0.68
-5.13
-11.32
-17.52
-23.65
-29.92
-36.84
-45.01
-54.71
-65.60
-76.43
-85.14
-89.36
-87.10
-77.49
-61.16
-40.17
-17.40
4.27
22.73
36.95
46.93
53.28
56.74
57.89
57.12
54.77
51.30
47.35
43.53
40.36
38.09
36.73
36.17
36.33
37.15
38.55
40.30
41.89
42.68
42.03
39.56
35.31
29.69
23.33
16.81
10.46
4.22
-2.37
-10.04
-19.56
-31.39
-45.21
-59.63
-72.28
-80.22
-80.90
-73.10
-57.47
-36.44
-13.45
8.16
26.08
39.37
48.26
53.54
55.99
56.11
54.21
50.67
46.12
41.39
37.25
34.17
32.15
30.80
29.64
28.32
26.81
25.30
24.02
22.96
21.75
19.69
16.03
10.30
2.54
-6.62
-16.17
-25.00
-32.39
-38.21
-42.99
-47.70
-53.28
-60.24
-68.16
-75.61
-80.33
-79.80
-71.95
-55.80
-31.88
-2.18
30.11
61.24
87.53
105.90
114.41
112.43
100.83
81.76
58.18
33.33
10.07
-9.62
-24.76
-35.36
-42.07
-45.88
-47.83
-48.81
-49.43
-50.03
-50.74
-51.62
-52.75
-54.29
-56.43
-59.17
-62.27
-65.20
-67.30
-68.12
-67.66
-66.44
-65.45
-65.76
-68.17
-72.76
-78.71
-84.25
-86.99
-84.40
-74.50
-56.52
-31.19
-0.63
32.27
64.63
94.34
120.36
142.52
160.86
174.99
183.81
185.83
179.91
166.15
146.19
122.98
99.89
79.65
63.56
51.44
42.18
34.56
27.88
22.09
17.50
14.18
11.79
9.53
6.56
2.32
-3.29
-10.06
-17.68
-25.93
-34.75
-44.07
-53.71
-63.24
-72.19
-80.00
-86.27
-90.67
-92.95
-92.78
-89.79
-83.83
-75.24
-65.02
-54.50
-44.79
-36.10
-27.56
-17.72
-5.47
9.10
24.49
38.47
49.19
56.11
60.01
62.29
63.78
64.20
62.26
56.55
46.35
32.06
14.90
-3.61
-22.07
-39.42
-54.78
-67.40
-76.76
-82.87
-86.48
-88.96
-91.69
-95.49
-100.17
-104.72
-107.94
-109.13
-108.45
-106.82
-105.37
-104.95
-105.88
-108.16
-111.63
-116.09
-121.01
-125.22
-126.71
-123.03
-112.08
-93.04
-66.88
-36.11
-4.07
26.08
52.14
73.17
89.28
101.22
109.97
116.46
121.39
125.24
128.28
130.69
132.66
134.55
136.92
140.44
145.72
153.26
163.49
176.65
192.46
209.66
225.80
237.59
242.02
237.74
226.04
210.57
195.97
185.81
181.16
180.39
180.36
178.09
172.06
162.20
149.13
132.97
112.87
87.50
55.96
18.67
-22.53
-64.96
-106.22
-144.95
-181.15
-215.73
-249.92
-284.70
-320.76
-358.56
-398.16
-438.73
-477.78
-511.04
-533.08
-539.00
-526.19
-495.36
-450.14
-395.61
-336.55
-276.44
-217.62
-162.07
-112.08
-70.12
-37.97
-15.70
-1.51
7.48
13.94
19.13
22.65
22.96
18.51
8.78
-5.08
-20.40
-33.53
-40.75
-39.33
-28.27
-8.64
16.76
44.24
70.29
92.48
109.73
122.11
130.22
134.64
135.72
133.63
128.67
121.46
112.94
104.19
96.14
89.35
83.97
79.88
76.80
74.52
72.86
71.59
70.32
68.46
65.30
60.23
53.03
43.96
33.78
23.38
13.45
4.10
-5.20
-15.44
-27.60
-42.06
-58.11
-73.71
-85.86
-91.26
-87.36
-73.21
-49.93
-20.42
11.38
41.63
67.50
87.59
101.89
111.16
116.44
118.60
118.19
115.59
111.03
104.80
97.22
88.73
79.95
71.76
65.21
61.25
60.40
62.35
65.96
69.49
71.13
69.58
64.41
56.12
45.76
34.44
22.89
11.23
-0.97
-14.45
-29.90
-47.53
-66.77
-85.98
-102.55
-113.30
-115.28
-106.77
-88.00
-61.31
-30.56
0.02
26.94
48.29
63.69
73.87
79.87
82.51
82.20
79.12
73.47
65.81
57.01
48.19
40.40
34.39
30.40
28.15
26.97
26.07
24.79
22.75
19.83
16.06
11.46
6.01
-0.39
-7.79
-16.23
-25.71
-36.31
-48.05
-60.67
-73.25
-84.02
-90.50
-90.18
-81.38
-64.05
-40.01
-12.49
14.82
38.80
57.66
70.93
79.13
83.15
83.74
81.45
76.65
69.85
61.75
53.29
45.46
39.04
34.48
31.78
30.63
30.44
30.54
30.28
29.14
26.76
23.00
17.96
11.90
5.18
-1.93
-9.32
-17.19
-26.01
-36.28
-48.19
-61.18
-73.61
-82.88
-85.99
-80.49
-65.40
-41.70
-12.14
19.42
49.04
73.48
90.74
100.05
101.73
96.88
87.05
73.97
59.25
44.28
30.16
17.79
7.96
1.25
-2.04
-2.11
0.36
4.40
9.10
13.80
18.10
21.72
24.25
25.22
24.18
21.07
16.35
10.85
5.41
0.49
-4.09
-9.02
-15.19
-23.29
-33.55
-45.54
-58.09
-69.31
-76.73
-77.81
-70.75
-55.29
-33.11
-7.53
17.65
39.44
56.56
69.47
79.57
88.02
95.11
100.13
102.10
100.50
95.73
88.90
81.47
74.66
69.23
65.41
62.89
60.95
58.59
54.74
48.54
39.58
28.01
14.44
-0.29
-15.27
-29.80
-43.33
-55.53
-66.28
-75.57
-83.56
-90.39
-96.10
-100.61
-103.76
-105.44
-105.74
-104.92
-103.48
-102.19
-102.05
-104.02
-108.74
-115.95
-124.18
-130.81
-132.72
-127.30
-113.49
-92.32
-66.65
-40.27
-16.61
2.11
15.26
23.42
27.64
28.77
27.21
23.11
16.87
9.50
2.64
-1.91
-2.84
0.15
6.35
14.47
23.33
32.31
41.22
49.90
57.68
63.27
65.25
62.78
56.17
46.92
37.14
28.72
22.67
18.83
16.17
13.27
8.83
2.03
-7.30
-18.57
-30.44
-40.94
-47.84
-49.18
-43.98
-32.60
-16.91
0.24
15.79
27.42
34.12
36.26
35.10
32.06
28.11
23.55
18.24
11.99
4.99
-2.15
-8.54
-13.34
-16.07
-16.77
-15.90
-14.16
-12.22
-10.54
-9.30
-8.40
-7.64
-6.87
-6.10
-5.49
-5.27
-5.59
-6.45
-7.79
-9.48
-11.51
-14.01
-17.23
-21.54
-27.50
-35.88
-47.66
-63.73
-84.29
-108.31
-133.01
-154.12
-166.84
-167.25
-153.59
-126.96
-90.97
-50.63
-10.91
24.35
52.87
73.78
87.11
93.36
93.35
88.24
79.54
69.03
58.44
49.16
41.97
37.04
34.04
32.42
31.64
31.37
31.55
32.33
33.82
35.93
38.17
39.63
39.23
36.03
29.59
20.27
9.10
-2.50
-13.23
-22.33
-29.72
-35.95
-41.87
-48.35
-55.99
-65.05
-75.31
-85.88
-95.14
-100.82
-100.47
-92.21
-75.49
-51.54
-23.16
5.99
32.42
53.65
68.62
77.54
81.42
81.53
79.08
75.05
70.26
65.30
60.54
56.05
51.65
47.05
42.09
36.92
32.05
28.15
25.79
25.02
25.22
25.25
23.79
19.91
13.41
4.96
-4.22
-12.88
-20.20
-26.17
-31.50
-37.32
-44.67
-54.06
-65.12
-76.52
-86.15
-91.51
-90.39
-81.55
-65.23
-43.19
-18.28
6.34
28.09
45.42
57.90
65.84
69.77
70.17
67.39
61.88
54.40
46.00
37.85
30.85
25.42
21.50
18.73
16.71
15.23
14.26
13.91
14.16
14.76
15.18
14.75
12.80
8.94
3.20
-3.95
-11.73
-19.32
-26.16
-32.08
-37.35
-42.53
-48.27
-55.14
-63.36
-72.66
-82.06
-89.81
-93.61
-91.09
-80.63
-62.01
-36.71
-7.64
21.74
48.24
69.76
85.39
95.13
99.44
98.88
94.05
85.71
74.88
62.82
50.69
39.40
29.38
20.71
13.30
7.10
2.21
-1.18
-2.94
-3.15
-2.18
-0.68
0.51
0.55
-1.15
-4.79
-10.09
-16.43
-23.05
-29.27
-34.70
-39.25
-43.17
-46.96
-51.30
-56.94
-64.41
-73.60
-83.44
-91.81
-95.98
-93.37
-82.54
-63.79
-39.19
-11.99
14.37
37.17
54.88
67.16
74.38
77.21
76.30
72.22
65.65
57.42
48.58
40.13
32.89
27.23
23.13
20.26
18.26
16.91
16.12
15.88
15.95
15.85
14.81
12.05
7.07
-0.21
-9.30
-19.38
-29.53
-38.99
-47.31
-54.46
-60.81
-67.07
-74.13
-82.70
-92.93
-103.98
-113.84
-119.70
-118.71
-108.92
-90.08
-63.86
-33.41
-2.48
25.59
48.60
65.68
77.08
83.69
86.56
86.64
84.67
81.18
76.62
71.41
65.94
60.71
56.20
52.87
51.05
50.78
51.64
52.74
52.84
50.65
45.24
36.42
24.81
11.64
-1.64
-13.86
-24.47
-33.60
-41.86
-50.00
-58.56
-67.52
-76.08
-82.70
-85.41
-82.31
-72.32
-55.68
-34.12
-10.37
12.56
32.30
47.56
58.12
64.41
67.10
66.81
64.15
59.88
54.89
50.10
46.15
43.15
40.88
38.94
37.21
35.92
35.48
36.14
37.63
39.01
39.00
36.38
30.50
21.55
10.47
-1.34
-12.54
-22.25
-30.39
-37.65
-45.43
-55.39
-68.88
-86.27
-106.37
-126.27
-141.84
-148.81
-144.08
-126.83
-98.90
-64.23
-27.72
6.17
34.39
55.63
70.01
78.55
82.56
83.26
81.61
78.18
73.24
66.87
59.21
50.65
41.95
34.00
27.60
23.12
20.37
18.71
17.28
15.24
11.93
6.85
-0.24
-9.29
-19.89
-31.21
-42.18
-51.83
-59.63
-65.75
-71.09
-77.00
-84.67
-94.48
-105.44
-115.13
-120.19
-117.39
-104.79
-82.59
-53.20
-20.54
11.13
38.38
59.32
73.59
81.88
85.36
85.14
82.11
77.00
70.47
63.19
55.81
48.85
42.69
37.52
33.43
30.39
28.30
26.91
25.81
24.42
22.10
18.27
12.64
5.34
-3.16
-12.13
-20.89
-29.05
-36.69
-44.30
-52.68
-62.53
-74.01
-86.37
-97.74
-105.48
-106.78
-99.59
-83.44
-59.71
-31.33
-1.87
25.38
48.20
65.56
77.43
84.25
86.66
85.28
80.82
74.13
66.17
57.88
50.03
43.09
37.28
32.61
29.04
26.49
24.81
23.70
22.60
20.79
17.57
12.50
5.64
-2.44
-10.86
-18.70
-25.41
-31.01
-36.06
-41.52
-48.32
-56.96
-67.10
-77.28
-85.13
-87.88
-83.22
-70.18
-49.60
-24.01
3.16
28.58
49.91
66.05
77.01
83.35
85.70
84.57
80.40
73.85
65.82
57.40
49.58
42.98
37.74
33.60
30.16
27.18
24.65
22.75
21.56
20.83
19.87
17.78
13.78
7.62
-0.28
-8.97
-17.35
-24.63
-30.57
-35.61
-40.58
-46.48
-54.14
-63.91
-75.32
-86.88
-96.14
-100.16
-96.35
-83.51
-62.41
-35.72
-7.19
19.51
41.76
58.44
69.69
76.27
79.02
78.56
75.40
70.14
63.58
56.67
50.26
44.83
40.49
37.01
34.11
31.64
29.63
28.24
27.52
27.29
27.05
26.18
24.15
20.79
16.35
11.49
7.01
3.60
1.61
0.95
1.05
1.07
0.14
-2.26
-6.04
-10.38
-13.92
-15.21
-13.31
-8.15
-0.72
7.32
14.15
18.38
19.37
17.19
12.39
5.67
-2.35
-11.04
-19.64
-27.28
-33.00
-36.16
-36.65
-34.96
-32.04
-28.91
-26.27
-24.43
-23.21
-22.19
-20.81
-18.46
-14.70
-9.47
-3.40
2.08
4.99
3.39
-3.88
-16.66
-33.39
-51.65
-68.91
-83.20
-93.38
-98.98
-99.90
-96.26
-88.45
-77.38
-64.56
-51.84
-40.84
-32.29
-25.78
-19.98
-13.33
-4.96
4.84
14.68
22.79
27.90
29.87
29.70
29.01
29.25
31.11
34.41
38.44
42.36
45.60
47.89
49.28
50.03
50.53
51.21
52.44
54.27
56.34
57.81
57.55
54.41
47.49
36.32
20.94
2.00
-19.27
-41.04
-61.04
-76.85
-86.35
-88.23
-82.37
-69.99
-53.48
-35.91
-20.27
-8.75
-2.30
-0.54
-2.12
-5.39
-9.02
-12.20
-14.61
-15.99
-15.82
-13.24
-7.30
2.52
15.83
31.19
46.37
58.84
66.37
67.44
61.57
49.38
32.58
13.71
-4.51
-19.95
-31.61
-39.73
-45.22
-48.69
-49.93
-48.14
-42.75
-34.39
-25.00
-17.13
-12.59
-11.56
-12.69
-14.03
-14.36
-13.71
-13.07
-13.40
-14.78
-16.27
-16.48
-14.48
-10.29
-4.86
0.49
4.68
7.20
8.06
7.58
6.07
3.71
0.57
-3.31
-7.79
-12.65
-17.62
-22.58
-27.66
-33.30
-40.22
-49.19
-60.75
-74.77
-90.20
-104.98
-116.32
-121.31
-117.79
-105.08
-84.36
-58.29
-30.25
-3.35
20.42
40.30
56.51
69.61
80.01
87.73
92.54
94.28
93.04
89.22
83.51
76.69
69.57
62.87
57.11
52.50
48.94
46.09
43.53
40.92
38.12
35.10
31.84
28.19
23.82
18.31
11.23
2.21
-9.00
-22.34
-37.14
-51.84
-63.91
-70.28
-68.35
-56.98
-37.24
-12.30
13.58
36.39
53.57
64.47
70.00
71.79
71.25
69.18
65.80
61.11
55.25
48.59
41.67
34.99
28.86
23.47
18.90
15.22
12.53
10.78
9.69
8.75
7.25
4.54
0.27
-5.51
-12.34
-19.61
-26.78
-33.71
-40.73
-48.54
-57.88
-69.03
-81.34
-92.98
-101.16
-102.86
-95.81
-79.38
-54.98
-25.67
4.77
32.97
56.79
75.42
89.06
98.25
103.45
104.92
102.96
98.17
91.53
84.24
77.38
71.61
67.03
63.36
60.10
56.92
53.74
50.72
48.04
45.72
43.39
40.35
35.80
29.17
20.41
10.08
-0.79
-11.09
-19.96
-27.09
-32.74
-37.63
-42.64
-48.61
-56.07
-65.03
-74.74
-83.61
-89.31
-89.21
-81.15
-64.25
-39.44
-9.28
22.61
52.67
78.21
97.90
111.61
119.88
123.33
122.41
117.44
108.79
97.20
83.74
69.61
55.86
43.15
31.78
21.82
13.33
6.42
1.19
-2.49
-5.14
-7.67
-11.13
-16.40
-23.89
-33.37
-44.10
-55.01
-64.95
-73.05
-78.86
-82.52
-84.76
-86.66
-89.34
-93.58
-99.54
-106.68
-113.83
-119.36
-121.35
-117.99
-107.89
-90.63
-67.10
-39.46
-10.76
15.87
38.04
54.56
65.50
71.76
74.49
74.70
73.00
69.77
65.22
59.61
53.16
46.01
38.13
29.43
19.86
9.71
-0.31
-9.20
-15.97
-20.13
-21.98
-22.60
-23.48
-25.94
-30.59
-37.09
-44.23
-50.42
-54.24
-54.89
-52.56
-48.31
-43.83
-40.89
-40.87
-44.26
-50.39
-57.40
-62.63
-63.16
-56.70
-42.21
-20.41
6.43
35.03
62.08
85.02
102.51
114.27
120.58
121.80
118.14
109.79
97.32
81.91
65.28
49.21
35.11
23.56
14.44
7.21
1.39
-3.19
-6.46
-8.29
-8.76
-8.32
-7.66
-7.49
-8.46
-11.04
-15.54
-22.03
-30.22
-39.41
-48.52
-56.39
-62.17
-65.73
-67.67
-69.13
-71.37
-75.23
-80.76
-87.05
-92.28
-94.12
-90.29
-79.29
-60.93
-36.64
-9.12
18.31
42.66
61.87
75.06
82.24
83.85
80.44
72.60
61.20
47.52
33.23
20.04
9.20
1.21
-4.24
-8.00
-10.92
-13.44
-15.46
-16.44
-15.75
-13.06
-8.61
-3.19
2.04
5.90
7.55
6.77
3.87
-0.47
-5.63
-11.31
-17.59
-24.87
-33.54
-43.75
-55.20
-67.04
-77.83
-85.68
-88.56
-84.83
-73.78
-56.03
-33.53
-9.09
14.35
34.49
50.00
60.58
66.63
68.82
67.89
64.53
59.40
53.24
46.77
40.61
35.23
30.89
27.69
25.70
24.94
25.45
27.18
29.90
33.22
36.54
39.21
40.61
40.34
38.27
34.54
29.49
23.49
16.77
9.45
1.48
-7.23
-16.66
-26.50
-36.04
-44.20
-49.65
-51.13
-47.84
-39.83
-28.08
-14.34
-0.64
11.22
20.14
25.77
28.35
28.44
26.58
23.18
18.59
13.16
7.36
1.72
-3.24
-7.16
-9.88
-11.51
-12.28
-12.55
-12.66
-12.92
-13.58
-14.79
-16.66
-19.17
-22.28
-25.88
-29.83
-34.00
-38.32
-42.82
-47.68
-53.18
-59.61
-66.96
-74.70
-81.56
-85.69
-85.14
-78.49
-65.48
-47.25
-26.05
-4.61
14.65
30.15
41.34
48.47
52.22
53.32
52.37
49.81
45.96
41.19
35.89
30.54
25.61
21.51
18.43
16.34
14.92
13.69
12.13
9.89
6.82
2.99
-1.37
-6.07
-10.92
-15.87
-20.90
-26.15
-31.83
-38.30
-45.86
-54.57
-63.97
-72.84
-79.30
-81.16
-76.63
-64.98
-46.97
-24.76
-1.38
20.22
37.91
50.79
59.09
63.67
65.41
64.95
62.60
58.58
53.30
47.37
41.48
36.18
31.71
28.04
25.03
22.53
20.43
18.58
16.72
14.46
11.42
7.42
2.52
-2.99
-8.79
-14.69
-20.70
-27.05
-34.10
-42.17
-51.35
-61.21
-70.68
-77.95
-80.88
-77.54
-67.01
-49.85
-28.12
-4.86
16.87
34.74
47.70
55.85
60.06
61.32
60.39
57.73
53.52
47.97
41.46
34.57
28.02
22.45
18.26
15.49
13.79
12.51
10.97
8.58
5.12
0.69
-4.30
-9.42
-14.35
-19.06
-23.83
-29.15
-35.63
-43.79
-53.86
-65.49
-77.57
-88.07
-94.34
-93.81
-84.94
-68.02
-45.33
-20.53
2.50
20.99
33.92
41.93
46.53
49.16
50.60
50.91
49.89
47.51
44.11
40.33
36.76
33.72
31.18
28.98
26.98
25.18
23.63
22.24
20.62
18.18
14.30
8.66
1.44
-6.69
-14.78
-22.04
-28.14
-33.36
-38.51
-44.60
-52.36
-61.68
-71.25
-78.53
-80.33
-73.74
-57.29
-31.73
0.02
33.63
64.69
89.94
107.88
118.71
123.63
124.01
120.91
114.97
106.67
96.65
85.81
75.18
65.66
57.65
50.99
45.02
38.97
32.25
24.74
16.76
8.83
1.42
-5.31
-11.47
-17.31
-22.95
-28.25
-32.87
-36.35
-38.35
-38.78
-37.86
-36.13
-34.39
-33.61
-34.80
-38.76
-45.72
-55.10
-65.37
-74.20
-78.98
-77.49
-68.60
-52.70
-31.73
-8.60
13.61
32.52
46.91
56.76
62.81
65.94
66.72
65.37
62.00
56.94
50.95
45.03
40.11
36.69
34.72
33.68
32.94
32.06
30.98
29.83
28.78
27.74
26.29
23.86
20.01
14.72
8.43
1.88
-4.26
-9.68
-14.53
-19.27
-24.36
-29.98
-35.91
-41.68
-46.77
-50.97
-54.41
-57.55
-61.06
-65.57
-71.46
-78.68
-86.54
-93.71
-98.24
-98.04
-91.41
-77.71
-57.83
-34.03
-9.42
13.00
31.15
44.27
52.74
57.55
59.70
59.80
58.17
54.99
50.65
45.80
41.22
37.58
35.25
34.21
34.19
34.79
35.65
36.47
36.96
36.84
35.75
33.40
29.66
24.70
18.91
12.83
6.86
1.12
-4.58
-10.53
-16.89
-23.51
-29.91
-35.54
-40.06
-43.58
-46.64
-50.07
-54.63
-60.71
-68.12
-75.95
-82.64
-86.27
-84.92
-77.27
-63.10
-43.53
-20.90
1.88
22.13
38.08
49.19
55.94
59.29
60.17
59.11
56.34
52.03
46.59
40.69
35.13
30.57
27.34
25.41
24.52
24.27
24.29
24.27
23.92
23.00
21.34
18.85
15.58
11.63
7.10
2.05
-3.49
-9.47
-15.74
-22.07
-28.14
-33.68
-38.53
-42.72
-46.45
-50.12
-54.20
-59.17
-65.29
-72.40
-79.67
-85.56
-88.01
-84.96
-75.00
-58.10
-35.75
-10.73
13.71
34.75
50.73
61.38
67.46
70.25
70.86
70.06
68.23
65.58
62.36
58.86
55.36
52.02
48.91
46.01
43.30
40.74
38.26
35.75
33.06
30.09
26.77
23.03
18.75
13.73
7.74
0.66
-7.32
-15.78
-24.11
-31.76
-38.43
-44.14
-49.17
-53.90
-58.74
-64.01
-69.94
-76.59
-83.65
-90.30
-95.06
-96.02
-91.33
-79.92
-62.05
-39.48
-15.07
8.05
27.35
41.51
50.39
54.68
55.36
53.24
48.92
42.91
35.79
28.30
21.21
15.10
10.29
6.75
4.31
2.76
1.98
1.89
2.40
3.22
3.85
3.67
2.12
-1.07
-5.75
-11.41
-17.35
-22.98
-28.02
-32.64
-37.36
-42.83
-49.43
-56.97
-64.35
-69.71
-70.83
-65.87
-54.06
-36.16
-14.24
8.87
30.43
48.41
61.73
70.20
74.21
74.42
71.69
66.96
61.17
55.11
49.32
43.96
39.00
34.34
29.98
26.07
22.80
20.25
18.33
16.69
14.86
12.35
8.78
3.95
-2.05
-8.92
-16.21
-23.45
-30.28
-36.65
-42.84
-49.42
-57.08
-66.31
-77.07
-88.43
-98.54
-104.83
-104.66
-96.24
-79.35
-55.68
-28.40
-1.29
22.38
40.63
52.99
60.11
63.10
63.02
60.54
56.14
50.23
43.42
36.42
29.87
24.14
19.29
15.15
11.66
9.14
8.31
10.16
15.46
24.24
35.56
47.58
58.07
65.15
67.85
66.38
61.81
55.46
48.30
40.55
31.75
21.18
8.37
-6.42
-22.12
-37.01
-49.09
-56.52
-58.06
-53.39
-43.25
-29.39
-14.20
-0.10
10.99
18.13
21.34
21.35
19.14
15.51
10.96
5.74
0.10
-5.58
-10.78
-14.92
-17.57
-18.53
-17.89
-15.96
-13.22
-10.31
-7.90
-6.63
-6.98
-9.14
-12.92
-17.87
-23.40
-29.02
-34.47
-39.84
-45.58
-52.30
-60.65
-70.81
-82.17
-92.96
-100.49
-101.73
-94.32
-77.56
-52.80
-23.20
7.30
35.10
57.83
74.62
85.80
92.26
94.96
94.73
92.27
88.30
83.65
79.21
75.73
73.62
72.88
72.99
73.17
72.54
70.39
66.31
60.19
52.19
42.62
31.87
20.46
8.97
-2.01
-12.03
-20.95
-29.10
-37.21
-46.24
-56.88
-69.20
-82.20
-93.77
-101.05
-101.21
-92.56
-75.26
-51.62
-25.39
-0.68
19.35
33.24
41.21
44.61
44.99
43.53
40.83
37.10
32.46
27.10
21.42
15.84
10.78
6.60
3.56
1.80
1.19
1.38
1.78
1.73
0.68
-1.70
-5.41
-10.25
-15.89
-22.02
-28.39
-34.94
-41.70
-48.87
-56.69
-65.24
-74.15
-82.28
-87.69
-88.00
-81.18
-66.42
-44.67
-18.56
8.31
32.45
51.48
64.54
72.07
75.26
75.32
73.19
69.46
64.59
59.05
53.37
48.03
43.33
39.33
35.93
33.00
30.49
28.44
26.84
25.54
24.13
21.98
18.50
13.31
6.49
-1.40
-9.52
-17.03
-23.43
-28.79
-33.80
-39.52
-46.99
-56.71
-68.21
-79.84
-89.01
-92.82
-89.05
-76.93
-57.58
-33.74
-8.92
13.57
31.50
44.04
51.53
54.91
55.20
53.16
49.27
43.94
37.60
30.84
24.29
18.49
13.77
10.26
7.91
6.55
5.97
5.89
5.88
5.40
3.88
0.89
-3.67
-9.51
-16.03
-22.52
-28.44
-33.66
-38.49
-43.61
-49.74
-57.35
-66.14
-74.86
-81.33
-82.92
-77.37
-63.63
-42.44
-16.24
11.51
37.27
58.42
73.66
83.01
87.25
87.41
84.37
78.77
71.12
61.97
51.95
41.76
32.03
23.29
15.91
10.10
5.96
3.44
2.26
1.89
1.57
0.49
-1.96
-6.01
-11.41
-17.57
-23.77
-29.42
-34.23
-38.30
-41.97
-45.69
-49.81
-54.36
-58.86
-62.29
-63.14
-59.82
-51.25
-37.39
-19.53
-0.02
18.41
33.53
44.25
50.69
53.81
54.72
54.18
52.39
49.22
44.59
38.71
32.11
25.54
19.66
14.94
11.59
9.61
8.84
9.01
9.71
10.38
10.43
9.35
6.91
3.24
-1.11
-5.41
-9.08
-11.97
-14.56
-17.91
-23.34
-32.01
-44.43
-60.07
-77.16
-92.83
-103.66
-106.51
-99.57
-82.98
-58.95
-31.09
-3.37
21.04
40.38
54.24
63.13
67.82
68.98
67.11
62.82
56.93
50.48
44.41
39.33
35.36
32.24
29.61
27.30
25.38
24.15
23.98
25.01
27.10
29.76
32.23
33.64
33.20
30.36
24.90
16.94
6.84
-4.99
-18.17
-32.48
-47.72
-63.52
-78.98
-92.47
-101.66
-104.07
-97.92
-82.94
-60.76
-34.66
-8.56
14.12
31.38
42.85
49.37
52.20
52.36
50.36
46.36
40.50
33.23
25.32
17.77
11.53
7.25
5.17
5.02
6.16
7.75
8.96
9.16
8.01
5.50
1.81
-2.71
-7.73
-12.95
-18.18
-23.40
-28.80
-34.75
-41.69
-49.82
-58.73
-67.09
-72.71
-72.99
-65.85
-50.58
-28.40
-2.27
23.95
46.73
63.82
74.65
80.00
81.25
79.65
75.88
70.20
62.71
53.61
43.28
32.18
20.69
9.15
-2.05
-12.39
-21.22
-28.00
-32.49
-34.92
-35.90
-36.15
-36.28
-36.62
-37.26
-38.20
-39.45
-41.15
-43.59
-47.16
-52.22
-58.95
-67.05
-75.45
-82.28
-85.09
-81.54
-70.16
-50.97
-25.63
2.89
31.07
55.72
74.57
86.65
92.16
92.15
88.15
81.76
74.43
67.30
61.22
56.75
54.23
53.74
55.14
57.96
61.46
64.69
66.64
66.40
63.33
57.10
47.82
35.90
21.98
6.77
-9.14
-25.46
-42.18
-59.52
-77.77
-96.94
-116.61
-135.61
-152.03
-163.40
-167.21
-161.58
-146.07
-121.98
-92.22
-60.55
-30.56
-4.76
15.92
31.89
44.37
54.64
63.59
71.53
78.42
84.07
88.44
91.66
93.92
95.37
95.97
95.37
92.95
87.90
79.43
67.11
51.13
32.51
12.86
-6.03
-22.85
-37.04
-48.72
-58.14
-65.13
-69.01
-69.06
-65.18
-58.44
-50.77
-44.12
-39.34
-35.79
-31.70
-25.18
-15.24
-2.14
13.02
29.03
45.04
60.27
73.46
82.49
84.83
78.58
63.67
42.36
18.66
-2.99
-19.29
-28.96
-32.74
-32.60
-30.73
-28.80
-27.73
-27.87
-29.27
-31.89
-35.54
-39.87
-44.31
-48.27
-51.28
-53.28
-54.84
-57.10
-61.51
-69.29
-80.80
-94.91
-108.97
-119.19
-121.72
-113.86
-94.98
-66.75
-32.53
3.63
38.12
68.28
92.53
109.99
120.21
123.19
119.52
110.56
98.21
84.51
71.09
59.00
48.73
40.56
34.81
31.80
31.63
33.90
37.64
41.47
43.96
44.02
41.09
35.18
26.74
16.52
5.36
-6.01
-17.14
-27.88
-38.31
-48.37
-57.49
-64.43
-67.40
-64.63
-55.04
-38.81
-17.52
6.22
29.42
49.52
64.97
75.40
81.33
83.64
83.01
79.58
73.12
63.43
50.82
36.37
21.69
8.41
-2.34
-10.16
-15.24
-17.83
-17.99
-15.56
-10.58
-3.75
3.39
8.82
10.67
7.82
0.17
-11.49
-25.87
-41.56
-57.29
-72.00
-84.94
-95.71
-104.23
-110.54
-114.45
-115.26
-111.65
-102.21
-86.13
-63.93
-37.62
-10.22
15.28
36.80
53.62
66.09
74.86
80.16
81.43
77.77
68.63
54.51
37.19
19.27
3.31
-9.00
-17.30
-22.40
-25.64
-28.14
-30.30
-31.75
-31.66
-29.41
-25.03
-19.47
-14.35
-11.53
-12.53
-18.12
-28.20
-41.92
-58.01
-75.02
-91.43
-105.58
-115.60
-119.57
-115.82
-103.53
-83.20
-56.80
-27.43
1.40
26.77
46.95
61.64
71.64
78.19
82.28
84.36
84.29
81.72
76.51
69.04
60.20
51.25
43.39
37.50
33.94
32.53
32.65
33.41
33.81
33.00
30.39
25.80
19.49
12.10
4.43
-2.79
-9.13
-14.62
-19.76
-25.30
-31.95
-39.94
-48.62
-56.33
-60.69
-59.29
-50.58
-34.55
-12.93
11.34
35.02
55.50
71.40
82.53
89.44
92.89
93.52
91.75
87.98
82.72
76.52
69.85
62.92
55.69
48.10
40.27
32.64
25.89
20.60
16.95
14.56
12.62
10.18
6.57
1.62
-4.41
-10.99
-17.72
-24.50
-31.58
-39.41
-48.48
-59.04
-70.89
-83.20
-94.39
-102.25
-104.42
-99.07
-85.59
-64.99
-39.75
-13.15
11.69
32.57
48.56
59.74
66.78
70.39
71.15
69.51
65.97
61.12
55.64
50.10
44.89
40.15
35.91
32.22
29.20
26.97
25.49
24.44
23.18
20.92
17.01
11.21
3.82
-4.44
-12.69
-20.21
-26.73
-32.52
-38.30
-44.98
-53.23
-63.14
-73.91
-83.72
-90.14
-90.66
-83.56
-68.62
-47.28
-22.36
2.79
25.23
43.10
55.84
63.82
67.89
68.86
67.29
63.56
58.01
51.16
43.68
36.37
29.97
24.98
21.62
19.76
19.03
18.84
18.59
17.79
16.20
13.83
10.96
7.91
4.88
1.85
-1.52
-5.71
-11.19
-18.12
-26.16
-34.27
-40.86
-44.02
-42.04
-33.90
-19.66
-0.44
21.91
45.34
68.16
89.29
108.27
124.93
139.11
150.32
157.66
160.01
156.35
146.30
130.39
110.13
87.61
64.74
42.74
21.75
1.21
-19.69
-41.36
-63.66
-85.92
-107.31
-127.04
-144.33
-158.39
-168.22
-172.79
-171.21
-163.19
-149.35
-131.43
-112.31
-95.50
-84.16
-79.80
-81.24
-84.55
-84.31
-75.79
-57.16
-30.51
-0.99
25.27
43.60
52.28
52.50
46.99
38.44
28.42
17.34
5.17
-7.73
-20.30
-30.99
-38.45
-42.15
-42.69
-41.55
-40.51
-40.95
-43.32
-47.13
-51.36
-55.01
-57.74
-59.94
-62.54
-66.58
-72.69
-81.00
-91.22
-102.74
-114.69
-125.85
-134.51
-138.60
-136.10
-125.64
-107.12
-81.88
-52.41
-21.75
7.31
32.76
53.49
69.17
79.94
86.11
88.12
86.55
82.17
75.97
69.03
62.38
56.80
52.61
49.65
47.40
45.22
42.53
39.07
34.90
30.25
25.40
20.46
15.28
9.53
2.76
-5.45
-15.33
-26.84
-39.50
-52.28
-63.57
-71.34
-73.60
-69.00
-57.40
-40.01
-19.16
2.39
22.25
38.96
52.04
61.71
68.35
72.18
73.18
71.33
66.91
60.66
53.65
46.97
41.39
37.15
33.99
31.39
28.83
26.04
22.97
19.73
16.37
12.80
8.77
3.96
-1.94
-9.15
-17.80
-27.89
-39.07
-50.49
-60.63
-67.51
-69.09
-63.95
-51.88
-34.09
-12.87
9.05
29.29
46.33
59.57
69.05
75.05
77.79
77.39
74.08
68.37
61.15
53.51
46.53
40.97
37.06
34.55
32.85
31.26
29.25
26.52
23.07
19.00
14.50
9.61
4.30
-1.52
-7.92
-14.93
-22.58
-30.93
-40.06
-49.89
-59.89
-68.91
-75.22
-76.89
-72.37
-61.14
-44.02
-23.02
-0.77
20.22
38.23
52.53
63.18
70.65
75.33
77.36
76.76
73.63
68.43
61.96
55.23
49.13
44.19
40.49
37.80
35.76
34.09
32.65
31.33
29.96
28.20
25.51
21.40
15.56
8.17
-0.20
-8.70
-16.52
-23.20
-28.85
-34.03
-39.58
-46.26
-54.39
-63.59
-72.68
-79.85
-83.11
-80.79
-72.22
-57.92
-39.56
-19.49
0.02
17.28
31.47
42.50
50.70
56.42
59.93
61.38
60.93
58.84
55.53
51.52
47.37
43.57
40.47
38.24
36.86
36.23
36.12
36.30
36.48
36.32
35.44
33.51
30.39
26.22
21.37
16.34
11.48
6.84
2.19
-2.80
-8.39
-14.55
-21.04
-27.45
-33.52
-39.19
-44.71
-50.50
-57.05
-64.72
-73.47
-82.71
-91.18
-97.16
-98.84
-94.94
-85.18
-70.48
-52.74
-34.21
-16.87
-1.89
10.42
20.41
28.63
35.53
41.25
45.73
48.85
50.62
51.19
50.89
50.09
49.14
48.29
47.64
47.16
46.67
46.00
44.94
43.35
41.11
38.14
34.41
29.90
24.69
18.91
12.71
6.28
-0.23
-6.68
-12.94
-18.84
-24.27
-29.18
-33.73
-38.24
-43.15
-48.92
-55.75
-63.43
-71.18
-77.64
-81.13
-80.06
-73.53
-61.66
-45.67
-27.52
-9.34
7.23
21.26
32.55
41.32
47.83
52.21
54.49
54.74
53.25
50.52
47.16
43.72
40.53
37.68
35.08
32.61
30.31
28.29
26.77
25.77
25.05
24.06
22.10
18.61
13.41
6.79
-0.59
-7.97
-14.74
-20.70
-26.01
-31.12
-36.56
-42.82
-50.20
-58.69
-67.78
-76.46
-83.18
-86.23
-84.17
-76.38
-63.35
-46.65
-28.45
-10.85
4.58
17.13
26.76
33.79
38.55
41.20
41.78
40.35
37.15
32.69
27.67
22.83
18.80
15.92
14.21
13.40
13.06
12.70
11.92
10.43
8.12
4.88
0.73
-4.27
-9.99
-16.26
-22.88
-29.78
-37.02
-44.75
-53.05
-61.67
-69.79
-76.06
-78.82
-76.61
-68.71
-55.52
-38.51
-19.87
-1.81
13.95
26.55
35.87
42.25
46.14
47.91
47.82
46.09
42.98
38.84
34.04
29.00
24.13
19.87
16.54
14.31
13.09
12.50
11.99
11.00
9.10
6.11
2.10
-2.75
-8.17
-13.92
-19.87
-26.03
-32.58
-39.84
-48.08
-57.28
-66.85
-75.54
-81.59
-83.13
-78.86
-68.50
-53.01
-34.31
-14.75
3.61
19.39
32.04
41.62
48.48
52.94
55.21
55.46
53.89
50.92
47.11
43.07
39.36
36.25
33.76
31.69
29.80
28.00
26.35
24.98
23.92
22.86
21.18
18.16
13.31
6.62
-1.32
-9.57
-17.21
-23.71
-29.08
-33.87
-38.87
-44.85
-52.24
-60.98
-70.35
-78.98
-85.04
-86.63
-82.31
-71.67
-55.51
-35.76
-14.87
4.84
21.78
35.26
45.36
52.51
57.12
59.44
59.60
57.79
54.45
50.19
45.71
41.62
38.24
35.61
33.55
31.75
29.96
28.02
25.87
23.46
20.69
17.39
13.31
8.28
2.26
-4.54
-11.67
-18.56
-24.64
-29.56
-33.33
-36.27
-38.92
-41.98
-46.03
-51.44
-58.19
-65.70
-72.80
-77.80
-78.90
-74.66
-64.49
-48.97
-29.71
-8.92
11.20
28.97
43.41
54.24
61.53
65.57
66.72
65.44
62.32
58.04
53.25
48.51
44.14
40.27
36.91
34.03
31.66
29.83
28.54
27.61
26.63
25.01
22.13
17.53
11.15
3.40
-5.04
-13.44
-21.33
-28.63
-35.71
-43.16
-51.57
-61.16
-71.54
-81.56
-89.40
-92.94
-90.38
-80.91
-65.02
-44.52
-22.02
-0.10
19.28
35.10
47.24
55.99
61.73
64.70
65.04
63.02
59.17
54.27
49.17
44.54
40.74
37.75
35.38
33.42
31.82
30.64
29.89
29.41
28.75
27.24
24.22
19.32
12.56
4.43
-4.28
-12.75
-20.35
-26.88
-32.62
-38.22
-44.54
-52.30
-61.76
-72.46
-83.11
-91.67
-95.84
-93.68
-84.22
-67.87
-46.40
-22.45
1.17
22.21
39.39
52.41
61.62
67.60
70.81
71.58
70.18
67.06
62.93
58.64
54.98
52.43
51.02
50.42
50.19
50.03
49.88
49.85
50.07
50.41
50.46
49.62
47.35
43.41
38.05
31.88
25.70
20.26
15.95
12.74
10.21
7.73
4.59
0.33
-5.11
-11.16
-16.61
-19.75
-18.80
-12.56
-0.99
14.54
31.49
46.89
58.24
64.35
65.46
62.99
58.68
53.88
49.07
43.99
38.02
30.60
21.49
10.61
-2.03
-16.48
-32.63
-49.98
-67.51
-83.87
-97.81
-108.79
-117.13
-123.83
-129.91
-135.85
-141.33
-145.38
-146.86
-145.00
-139.65
-131.33
-120.99
-109.85
-99.24
-90.49
-84.74
-82.65
-84.03
-87.61
-91.14
-91.84
-87.25
-75.95
-58.06
-35.20
-9.95
14.95
37.38
56.22
71.26
82.86
91.60
98.05
102.80
106.55
109.86
112.79
114.44
112.90
105.83
91.49
69.86
43.03
14.76
-10.77
-30.43
-43.00
-49.27
-51.31
-51.43
-51.34
-51.85
-53.04
-54.73
-56.76
-59.18
-62.14
-65.77
-70.14
-75.29
-81.30
-88.22
-95.80
-103.16
-108.67
-110.16
-105.53
-93.55
-74.45
-49.91
-22.62
4.56
29.35
50.44
67.37
80.24
89.35
95.06
97.82
98.20
96.94
94.76
92.24
89.62
86.85
83.71
79.93
75.38
70.13
64.39
58.49
52.73
47.21
41.78
36.03
29.48
21.74
12.84
3.21
-6.41
-15.25
-22.84
-29.20
-34.82
-40.52
-47.14
-55.34
-65.31
-76.63
-88.09
-97.79
-103.41
-102.85
-94.84
-79.54
-58.53
-34.40
-10.03
12.21
30.85
45.37
55.88
62.81
66.59
67.66
66.49
63.61
59.58
54.96
50.13
45.38
40.94
37.03
33.96
31.99
31.24
31.51
32.29
32.80
32.25
30.08
26.14
20.73
14.46
8.05
2.08
-3.16
-7.85
-12.53
-17.94
-24.71
-32.90
-41.76
-49.69
-54.56
-54.43
-48.21
-36.11
-19.70
-1.40
16.28
31.34
42.69
50.15
54.10
55.13
53.77
50.43
45.45
39.19
32.18
25.04
18.42
12.84
8.65
5.94
4.61
4.37
4.78
5.39
5.69
5.29
3.87
1.32
-2.30
-6.83
-12.04
-17.81
-24.15
-31.28
-39.56
-49.30
-60.43
-72.23
-83.11
-90.86
-93.12
-88.22
-75.87
-57.32
-35.09
-12.17
8.83
26.21
39.36
48.40
53.82
56.07
55.52
52.48
47.36
40.74
33.39
26.15
19.77
14.81
11.51
9.80
9.29
9.44
9.66
9.46
8.51
6.73
4.21
1.12
-2.36
-6.24
-10.71
-16.23
-23.40
-32.64
-43.89
-56.23
-67.90
-76.53
-79.84
-76.39
-66.10
-50.30
-31.33
-11.77
6.23
21.30
32.89
40.95
45.73
47.49
46.55
43.28
38.19
31.90
25.16
18.72
13.21
9.04
6.20
4.37
2.94
1.29
-1.01
-4.06
-7.74
-11.81
-16.10
-20.64
-25.64
-31.43
-38.35
-46.59
-56.15
-66.65
-77.22
-86.40
-92.29
-92.95
-86.95
-73.97
-55.05
-32.39
-8.74
13.37
32.24
47.26
58.60
66.79
72.17
74.82
74.61
71.57
66.12
59.18
51.91
45.43
40.51
37.34
35.62
34.74
34.02
32.98
31.41
29.31
26.82
24.01
20.86
17.24
12.92
7.67
1.26
-6.46
-15.49
-25.42
-35.29
-43.54
-48.24
-47.59
-40.58
-27.43
-9.64
10.45
30.37
48.18
62.83
74.17
82.51
88.27
91.65
92.69
91.39
88.01
83.11
77.56
72.33
68.26
65.84
65.09
65.44
65.80
64.74
60.76
52.79
40.48
24.40
5.82
-13.69
-32.68
-50.15
-65.53
-78.58
-89.20
-97.39
-103.21
-106.81
-108.29
-107.48
-103.86
-96.55
-84.77
-68.28
-47.82
-25.21
-2.95
16.37
30.72
39.07
41.43
38.54
31.54
21.65
10.23
-1.14
-10.59
-16.28
-16.98
-12.68
-4.82
4.09
11.44
15.59
16.50
15.47
14.40
14.63
16.36
18.61
19.86
18.78
14.75
7.88
-1.24
-11.99
-23.92
-36.69
-49.88
-62.63
-73.68
-81.43
-84.42
-81.79
-73.70
-61.40
-46.86
-32.15
-18.77
-7.33
2.37
10.81
18.29
24.62
29.23
31.49
31.21
28.71
24.87
20.79
17.43
15.38
14.65
14.78
15.01
14.68
13.51
11.77
10.16
9.44
10.04
11.83
14.17
16.29
17.54
17.62
16.59
14.76
12.66
10.96
10.39
11.59
14.87
20.04
26.48
33.32
39.89
45.90
51.42
56.67
61.58
65.59
67.68
66.72
61.91
53.32
41.95
29.60
18.31
9.64
4.23
1.56
0.25
-1.30
-4.31
-9.21
-15.71
-23.13
-30.93
-38.93
-47.35
-56.59
-66.86
-78.09
-89.88
-101.63
-112.57
-121.68
-127.58
-128.61
-123.23
-110.58
-91.06
-66.49
-39.69
-13.73
8.88
26.69
39.29
46.88
49.85
48.55
43.34
34.91
24.38
13.26
3.11
-4.86
-10.07
-12.64
-13.18
-12.51
-11.33
-10.10
-9.07
-8.42
-8.40
-9.37
-11.79
-16.00
-22.17
-30.12
-39.37
-49.11
-58.26
-65.53
-69.51
-68.91
-62.92
-51.45
-35.35
-16.28
3.71
22.63
38.99
52.05
61.69
68.21
71.98
73.31
72.43
69.58
65.17
59.83
54.27
49.16
44.87
41.41
38.49
35.67
32.59
29.13
25.41
21.63
17.99
14.47
10.90
6.91
2.14
-3.73
-10.86
-19.18
-28.29
-37.38
-45.24
-50.39
-51.45
-47.50
-38.39
-24.89
-8.53
8.79
25.27
39.57
50.97
59.31
64.73
67.49
67.82
65.96
62.26
57.21
51.45
45.66
40.39
36.00
32.65
30.36
29.03
28.45
28.28
28.04
27.18
25.16
21.69
16.79
10.79
4.27
-2.21
-8.25
-13.84
-19.33
-25.34
-32.47
-40.94
-50.31
-59.39
-66.40
-69.45
-67.13
-59.00
-45.79
-29.18
-11.33
5.75
20.63
32.59
41.54
47.65
51.23
52.55
51.91
49.69
46.37
42.45
38.37
34.43
30.81
27.60
24.88
22.69
21.04
19.88
18.99
18.07
16.68
14.40
10.92
6.16
0.37
-5.97
-12.25
-18.00
-23.05
-27.59
-32.12
-37.24
-43.37
-50.48
-57.97
-64.63
-68.87
-69.07
-64.14
-53.97
-39.54
-22.70
-5.59
9.97
22.89
32.85
40.10
45.04
48.00
49.14
48.56
46.50
43.29
39.43
35.39
31.55
28.16
25.35
23.12
21.39
19.98
18.66
17.18
15.27
12.71
9.32
4.98
-0.24
-6.13
-12.33
-18.37
-23.94
-29.00
-33.85
-39.05
-45.07
-51.97
-59.12
-65.20
-68.52
-67.54
-61.46
-50.51
-35.93
-19.57
-3.35
11.17
23.10
32.08
38.10
41.33
42.02
40.52
37.31
32.97
28.09
23.18
18.57
14.48
11.09
8.51
6.79
5.86
5.48
5.27
4.81
3.75
1.91
-0.67
-3.80
-7.17
-10.48
-13.56
-16.49
-19.56
-23.24
-28.00
-34.03
-41.03
-48.08
-53.68
-56.07
-53.66
-45.57
-31.99
-14.26
5.46
24.67
41.28
53.97
62.40
66.98
68.41
67.37
64.26
59.30
52.65
44.57
35.50
26.05
16.90
8.74
2.13
-2.62
-5.54
-7.09
-8.03
-9.29
-11.65
-15.55
-21.05
-27.81
-35.32
-42.99
-50.29
-56.82
-62.44
-67.29
-71.81
-76.62
-82.18
-88.46
-94.65
-99.18
-100.11
-95.80
-85.50
-69.74
-50.20
-29.19
-8.99
8.73
23.16
34.20
42.16
47.42
50.32
51.13
50.15
47.79
44.52
40.81
37.02
33.38
30.04
27.12
24.72
22.97
21.86
21.22
20.67
19.68
17.72
14.44
9.75
3.84
-2.81
-9.68
-16.35
-22.64
-28.72
-35.05
-42.23
-50.67
-60.26
-70.15
-78.70
-83.91
-83.93
-77.76
-65.60
-48.92
-30.01
-11.36
5.01
17.92
27.11
32.96
36.16
37.31
36.80
34.84
31.62
27.53
23.17
19.27
16.53
15.41
15.98
17.95
20.74
23.55
25.51
25.88
24.18
20.34
14.74
8.14
1.37
-4.87
-10.27
-14.95
-19.33
-23.89
-28.85
-33.93
-38.25
-40.41
-38.90
-32.60
-21.32
-5.99
11.47
28.76
43.81
55.40
63.33
68.26
71.22
73.15
74.50
75.21
74.81
72.77
68.77
62.95
55.89
48.35
40.97
33.87
26.69
18.77
9.57
-0.91
-12.13
-23.28
-33.65
-42.99
-51.49
-59.50
-67.25
-74.70
-81.73
-88.40
-95.05
-102.08
-109.43
-116.19
-120.54
-120.27
-113.58
-99.88
-80.11
-56.44
-31.62
-8.14
12.25
28.76
41.30
50.22
55.95
58.89
59.35
57.61
54.00
48.94
42.95
36.66
30.77
25.95
22.73
21.43
22.04
24.15
27.03
29.69
31.13
30.58
27.73
22.76
16.24
8.91
1.40
-5.99
-13.33
-20.97
-29.31
-38.50
-48.11
-57.05
-63.64
-66.12
-63.19
-54.52
-40.95
-24.24
-6.49
10.45
25.40
37.89
47.94
55.67
61.09
64.02
64.22
61.56
56.14
48.36
39.00
29.18
20.31
13.88
11.17
12.79
18.41
26.71
35.70
43.26
47.70
48.18
44.63
37.57
27.74
15.86
2.64
-11.21
-24.91
-37.70
-48.99
-58.39
-65.66
-70.54
-72.52
-70.93
-65.08
-54.75
-40.44
-23.47
-5.75
10.74
24.38
34.33
40.51
43.42
43.90
42.77
40.70
38.17
35.50
32.90
30.55
28.58
27.10
26.14
25.68
25.63
25.83
26.04
25.96
25.30
23.82
21.41
18.15
14.26
9.98
5.49
0.80
-4.19
-9.56
-15.15
-20.47
-24.67
-26.79
-26.04
-22.05
-15.07
-5.88
4.36
14.35
22.90
29.18
32.83
34.02
33.36
31.66
29.56
27.31
24.69
21.31
16.99
12.21
8.08
5.99
6.98
11.10
17.36
24.01
29.23
31.82
31.43
28.48
23.72
17.87
11.39
4.55
-2.56
-9.95
-17.78
-26.33
-35.78
-45.99
-56.26
-65.37
-72.02
-75.24
-74.90
-71.71
-66.96
-62.04
-58.00
-55.36
-54.21
-54.24
-54.84
-54.99
-53.34
-48.36
-38.90
-24.76
-7.11
11.66
28.52
40.87
47.45
48.77
46.77
43.93
42.20
42.21
43.26
43.76
42.12
37.47
29.98
20.73
11.34
3.51
-1.26
-1.86
2.29
11.00
23.15
36.78
49.56
59.62
66.28
70.37
73.82
78.78
86.40
96.16
105.84
112.29
112.68
105.61
91.65
73.19
53.62
36.25
23.34
15.58
12.11
11.08
10.32
7.99
2.83
-5.85
-18.23
-34.06
-52.46
-71.87
-90.09
-104.87
-114.68
-119.40
-120.61
-121.12
-124.03
-131.64
-144.91
-163.29
-185.04
-207.41
-226.86
-239.42
-241.53
-231.34
-209.77
-180.56
-148.92
-119.44
-94.27
-72.69
-52.39
-31.48
-10.03
9.80
25.18
34.33
37.60
37.22
35.99
35.92
37.59
40.36
43.20
45.39
46.80
47.64
48.08
48.01
47.01
44.54
40.27
34.22
26.75
18.39
9.69
1.07
-7.24
-15.26
-23.19
-31.46
-40.55
-50.88
-62.49
-74.86
-86.74
-96.36
-101.79
-101.49
-94.84
-82.37
-65.59
-46.56
-27.25
-9.08
7.15
21.10
32.55
41.25
46.91
49.41
49.06
46.62
43.16
39.66
36.82
34.84
33.58
32.80
32.43
32.65
33.86
36.43
40.42
45.42
50.53
54.58
56.53
55.81
52.51
47.29
41.03
34.46
27.87
21.11
13.69
5.07
-5.05
-16.55
-28.72
-40.28
-49.53
-54.74
-54.61
-48.75
-37.89
-23.68
-8.21
6.59
19.47
29.90
37.93
43.83
47.76
49.73
49.75
47.96
44.81
40.96
37.12
33.74
30.99
28.79
27.03
25.71
24.96
24.89
25.34
25.80
25.49
23.62
19.74
13.93
6.79
-0.84
-8.17
-14.71
-20.50
-26.01
-32.03
-39.38
-48.55
-59.37
-70.87
-81.33
-88.63
-90.81
-86.62
-75.91
-59.72
-39.94
-18.82
1.58
19.79
35.04
47.10
56.12
62.29
65.83
66.97
66.07
63.69
60.55
57.40
54.85
53.24
52.65
52.99
54.11
55.86
58.01
60.20
61.93
62.68
62.07
60.10
57.11
53.63
50.14
46.72
43.05
38.48
32.26
23.88
13.24
0.87
-12.04
-23.75
-32.25
-35.78
-33.37
-25.23
-12.82
1.44
14.92
25.40
31.68
33.69
32.19
28.38
23.38
17.96
12.47
6.97
1.53
-3.66
-8.21
-11.60
-13.44
-13.57
-12.16
-9.67
-6.72
-3.96
-1.97
-1.15
-1.73
-3.69
-6.78
-10.56
-14.50
-18.14
-21.29
-24.07
-26.91
-30.42
-35.06
-40.92
-47.35
-53.02
-56.10
-54.75
-47.80
-35.18
-18.04
1.56
21.25
38.97
53.40
64.06
71.09
75.01
76.42
75.88
73.89
70.79
66.80
62.02
56.51
50.40
43.97
37.60
31.71
26.61
22.44
19.12
16.41
13.94
11.26
7.94
3.69
-1.56
-7.61
-14.01
-20.30
-26.21
-31.82
-37.58
-44.17
-52.17
-61.70
-72.14
-82.14
-89.77
-93.04
-90.43
-81.41
-66.67
-47.93
-27.47
-7.56
10.12
24.73
36.26
45.30
52.57
58.61
63.56
67.20
69.14
69.17
67.38
64.26
60.49
56.66
53.19
50.18
47.62
45.38
43.36
41.31
38.85
35.47
30.70
24.28
16.34
7.39
-1.86
-10.74
-18.88
-26.31
-33.41
-40.71
-48.52
-56.68
-64.30
-69.88
-71.63
-68.12
-58.83
-44.42
-26.74
-8.26
8.61
22.10
31.44
36.77
38.85
38.69
37.25
35.33
33.50
32.13
31.40
31.27
31.48
31.67
31.44
30.60
29.22
27.66
26.43
25.88
25.93
26.01
25.15
22.43
17.31
9.93
1.07
-8.26
-17.32
-25.93
-34.70
-44.64
-56.71
-71.08
-86.63
-100.83
-110.22
-111.44
-102.36
-83.00
-55.62
-24.09
7.07
33.67
52.48
61.57
60.47
50.37
34.12
15.69
-0.72
-11.96
-16.85
-16.30
-12.54
-7.91
-3.80
-0.40
2.98
7.09
12.10
17.43
21.95
24.48
24.23
21.09
15.54
8.52
1.02
-6.24
-12.93
-19.04
-24.65
-29.82
-34.44
-38.37
-41.34
-42.87
-42.18
-38.12
-29.54
-15.83
2.58
23.99
45.87
65.66
81.66
93.46
101.76
107.51
111.08
111.80
108.22
98.87
83.22
62.13
37.81
13.14
-9.17
-27.21
-40.10
-47.81
-50.95
-50.41
-47.34
-43.01
-38.71
-35.45
-33.67
-33.19
-33.43
-33.78
-34.03
-34.56
-36.32
-40.39
-47.54
-57.69
-69.51
-80.47
-87.29
-86.94
-77.83
-60.60
-38.28
-15.40
3.50
15.19
18.54
14.25
4.02
-10.34
-27.39
-45.92
-64.59
-81.69
-95.31
-103.85
-106.59
-103.93
-97.28
-88.72
-80.49
-74.48
-71.82
-72.51
-75.27
-77.92
-78.00
-73.64
-64.27
-50.74
-34.95
-19.16
-5.36
4.98
10.94
12.09
8.64
1.81
-6.00
-11.39
-10.95
-2.32
14.86
38.84
66.49
94.36
119.62
140.45
155.82
165.15
168.09
164.61
155.21
141.17
124.34
106.75
90.15
75.74
64.14
55.61
50.17
47.65
47.43
48.27
48.37
45.67
38.57
26.52
10.37
-7.78
-25.27
-39.82
-50.22
-56.67
-60.37
-62.75
-64.57
-65.50
-64.28
-59.34
-49.71
-35.49
-17.95
0.89
18.76
33.63
43.82
48.12
45.86
37.06
22.67
4.51
-14.95
-33.08
-47.69
-57.33
-61.47
-60.45
-55.36
-47.85
-39.94
-33.62
-30.41
-30.98
-35.05
-41.54
-49.04
-56.26
-62.33
-66.98
-70.42
-73.26
-76.23
-80.00
-84.92
-90.87
-97.20
-102.84
-106.60
-107.48
-104.94
-98.89
-89.65
-77.64
-63.11
-46.04
-26.13
-3.17
22.60
50.07
77.11
100.82
118.20
127.03
126.64
118.22
104.45
88.73
74.08
62.38
54.04
48.23
43.41
38.07
31.21
22.53
12.48
2.03
-7.59
-15.10
-19.57
-20.75
-19.39
-17.30
-16.98
-20.87
-30.29
-44.67
-61.30
-75.94
-84.06
-82.32
-69.67
-47.78
-20.44
7.62
32.19
50.74
62.84
69.87
74.05
77.57
81.83
87.34
94.10
101.83
110.21
118.65
126.16
131.39
133.08
130.53
124.00
114.49
103.25
91.24
78.77
65.77
52.01
37.40
21.89
5.20
-13.39
-34.87
-59.94
-88.43
-118.81
-148.25
-173.27
-190.66
-198.40
-196.22
-185.67
-169.52
-150.89
-132.31
-115.11
-99.42
-84.56
-69.73
-54.64
-39.72
-26.01
-14.72
-6.71
-2.19
-0.64
-1.05
-2.20
-2.89
-2.10
0.96
6.68
14.74
23.75
31.18
33.89
29.05
15.25
-6.83
-34.49
-63.87
-91.13
-113.59
-130.18
-141.09
-147.03
-148.64
-146.48
-141.25
-134.03
-125.91
-117.61
-108.94
-98.70
-84.91
-65.82
-40.81
-10.91
21.48
53.56
82.70
106.91
125.13
137.35
144.46
147.74
148.60
148.15
147.96
148.96
151.01
153.07
153.90
152.42
147.74
139.48
127.79
115.23
104.35
96.22
90.16
84.84
79.17
72.51
65.00
57.31
53.28
55.95
65.67
79.93
95.82
111.36
125.56
138.65
151.44
168.74
194.12
227.16
262.81
294.63
316.88
325.49
319.12
278.15
198.59
97.17
1.35
-71.19
-118.40
-147.99
-172.28
-198.58
-230.33
-264.89
-299.41
-327.81
-346.54
-352.05
-341.70
-315.83
-278.35
-236.16
-193.62
-153.63
-118.11
-89.00
-66.94
-51.54
-41.98
-36.88
-34.56
-31.34
-24.26
-12.73
0.80
13.20
21.82
25.40
24.27
19.74
14.40
10.47
8.98
9.52
11.49
14.63
19.13
25.31
33.19
42.58
52.79
62.66
70.68
75.68
77.00
74.62
69.03
61.12
52.10
43.31
35.93
30.63
27.43
25.76
24.72
23.40
21.22
18.04
14.11
9.98
6.36
4.02
3.66
5.77
10.34
16.77
23.84
30.04
33.92
34.52
31.48
25.00
15.68
4.32
-8.08
-20.49
-31.99
-42.00
-50.50
-58.00
-65.20
-72.37
-78.85
-83.02
-82.78
-76.49
-63.81
-46.00
-25.64
-5.72
11.33
24.20
32.75
37.66
39.76
39.73
37.95
34.61
29.93
24.26
18.06
11.75
5.68
0.10
-4.76
-8.56
-10.87
-11.23
-9.33
-5.28
0.27
6.21
11.25
14.35
15.12
14.08
12.43
11.67
12.91
16.53
22.00
28.13
33.45
36.58
36.54
33.02
26.53
18.54
11.25
7.22
8.45
15.66
27.83
42.40
56.20
66.54
72.04
72.79
69.71
63.66
54.76
42.40
25.98
5.82
-16.24
-37.22
-53.94
-64.29
-67.98
-66.45
-62.04
-56.84
-52.03
-47.74
-43.60
-39.36
-35.14
-31.40
-28.51
-26.53
-25.32
-24.83
-25.50
-28.33
-34.52
-44.97
-59.68
-77.43
-95.82
-111.76
-122.10
-124.30
-117.12
-100.85
-77.29
-49.31
-20.06
7.73
32.29
52.84
69.35
82.05
91.18
96.90
99.50
99.55
97.86
95.19
91.87
87.60
81.63
73.17
61.95
48.49
33.99
19.85
7.12
-3.76
-13.06
-21.40
-29.41
-37.44
-45.50
-53.38
-60.87
-67.97
-74.84
-81.61
-88.01
-93.12
-95.31
-92.67
-83.73
-68.11
-46.89
-22.24
3.19
27.02
47.65
64.11
75.76
81.97
82.13
75.96
63.90
47.28
28.06
8.42
-9.67
-24.71
-35.66
-41.99
-43.68
-41.27
-35.94
-29.21
-22.62
-17.30
-13.77
-12.01
-11.68
-12.51
-14.46
-17.77
-22.78
-29.74
-38.48
-48.14
-57.07
-62.91
-63.15
-55.86
-40.50
-18.44
7.21
32.40
53.27
67.17
73.22
72.15
65.71
55.82
44.08
31.65
19.36
8.08
-1.23
-7.59
-10.34
-9.40
-5.46
0.17
5.92
10.36
12.60
12.40
10.06
6.17
1.31
-4.18
-10.24
-17.08
-24.92
-33.96
-44.20
-55.38
-66.86
-77.48
-85.60
-89.24
-86.61
-76.66
-59.53
-36.69
-10.57
16.04
40.71
61.85
78.76
91.39
99.92
104.51
105.27
102.38
96.44
88.46
79.83
71.98
65.97
62.32
60.88
61.06
61.99
62.71
62.37
60.22
55.76
48.79
39.57
28.76
17.35
6.43
-3.11
-10.85
-17.03
-22.45
-28.30
-35.65
-44.91
-55.46
-65.47
-72.29
-73.21
-66.38
-51.60
-30.52
-6.32
17.24
36.82
50.43
57.70
59.62
57.86
54.04
49.30
44.20
38.92
33.61
28.65
24.61
22.14
21.71
23.46
27.13
32.22
38.04
43.95
49.31
53.51
55.77
55.12
50.49
40.97
26.26
6.96
-15.37
-38.55
-60.40
-79.34
-94.81
-107.23
-117.66
-127.36
-137.31
-148.02
-159.26
-169.99
-178.30
-181.72
-177.80
-165.05
-143.66
-115.77
-84.98
-55.15
-29.09
-7.68
10.12
26.42
43.20
61.41
80.70
99.85
117.52
132.83
145.44
155.28
162.21
165.98
166.53
164.45
161.15
158.51
158.03
160.04
163.34
165.49
163.69
155.75
140.69
118.84
91.38
59.81
25.59
-9.91
-45.37
-79.30
-110.18
-136.78
-158.39
-175.08
-187.49
-196.45
-202.43
-205.19
-203.86
-197.25
-184.56
-165.92
-142.59
-116.68
-90.58
-66.28
-45.03
-27.33
-13.25
-2.74
4.27
7.90
8.61
7.27
5.07
3.25
2.71
3.79
6.26
9.51
12.86
15.78
18.07
19.77
21.03
21.91
22.25
21.65
19.63
15.89
10.45
3.73
-3.61
-10.94
-17.81
-24.12
-30.04
-35.93
-42.24
-49.39
-57.57
-66.54
-75.44
-82.74
-86.49
-84.83
-76.70
-62.19
-42.69
-20.47
2.00
22.64
40.17
54.09
64.46
71.55
75.69
77.20
76.40
73.76
69.90
65.50
61.27
57.77
55.37
54.15
53.98
54.47
55.17
55.60
55.37
54.24
52.14
49.11
45.29
40.82
35.77
30.19
24.07
17.45
10.45
3.29
-3.75
-10.39
-16.45
-21.92
-26.94
-31.89
-37.23
-43.42
-50.66
-58.69
-66.58
-72.74
-75.26
-72.38
-63.16
-47.87
-27.99
-5.89
15.95
35.49
51.60
63.98
72.90
78.80
82.01
82.76
81.28
78.00
73.57
68.83
64.55
61.25
59.04
57.72
56.89
56.19
55.45
54.70
54.08
53.67
53.44
53.21
52.81
52.25
51.74
51.63
52.14
53.24
54.59
55.68
56.08
55.50
53.67
50.13
44.03
34.28
19.87
0.38
-23.64
-50.69
-78.50
-104.53
-126.34
-142.03
-150.45
-151.40
-145.64
-134.76
-120.81
-105.89
-91.66
-79.14
-68.71
-60.29
-53.60
-48.38
-44.38
-41.41
-39.20
-37.37
-35.42
-32.86
-29.30
-24.60
-18.92
-12.73
-6.61
-1.08
3.52
7.11
9.75
11.49
12.25
11.79
9.86
6.43
1.76
-3.57
-8.84
-13.54
-17.47
-20.90
-24.38
-28.58
-34.04
-40.98
-49.15
-57.78
-65.60
-71.03
-72.45
-68.68
-59.28
-44.79
-26.60
-6.64
13.10
30.93
45.71
56.84
64.15
67.78
68.08
65.57
60.91
54.88
48.25
41.79
36.07
31.49
28.18
26.06
24.87
24.27
23.94
23.55
22.82
21.39
18.94
15.21
10.17
4.16
-2.24
-8.34
-13.67
-18.17
-22.23
-26.56
-31.92
-38.76
-46.99
-55.72
-63.32
-67.66
-66.61
-58.76
-43.94
-23.45
0.27
24.34
46.26
64.43
78.24
87.76
93.30
95.15
93.66
89.36
83.17
76.31
69.99
65.07
61.87
60.22
59.63
59.66
59.97
60.41
60.91
61.45
62.01
62.59
63.05
62.96
61.46
57.45
49.92
38.44
23.40
5.92
-12.64
-31.19
-49.24
-66.64
-83.11
-97.72
-108.82
-114.55
-113.71
-106.39
-94.19
-79.68
-65.48
-53.49
-44.43
-38.12
-33.93
-31.34
-30.25
-30.80
-33.06
-36.75
-41.14
-45.23
-48.11
-49.18
-48.27
-45.63
-41.67
-36.94
-31.97
-27.26
-23.31
-20.48
-18.99
-18.83
-19.82
-21.65
-24.07
-26.96
-30.39
-34.65
-40.09
-46.97
-55.17
-63.94
-71.71
-76.30
-75.43
-67.51
-52.27
-31.11
-6.76
17.52
38.86
55.54
67.07
73.98
77.18
77.41
75.12
70.51
63.90
55.92
47.55
39.83
33.62
29.25
26.52
24.85
23.53
21.97
19.82
16.93
13.27
8.86
3.75
-2.01
-8.33
-15.15
-22.46
-30.42
-39.28
-49.24
-60.16
-71.24
-80.81
-86.61
-86.30
-78.33
-62.57
-40.60
-15.32
9.92
32.25
49.99
62.68
70.85
75.35
76.94
76.09
73.08
68.22
62.01
55.19
48.57
42.88
38.56
35.69
34.00
33.01
32.13
30.80
28.62
25.37
20.99
15.62
9.45
2.76
-4.24
-11.43
-18.85
-26.76
-35.50
-45.39
-56.30
-67.41
-77.01
-82.80
-82.47
-74.57
-59.11
-37.78
-13.45
10.65
31.82
48.54
60.46
68.06
72.13
73.41
72.42
69.58
65.31
60.15
54.70
49.49
44.88
41.04
38.02
35.79
34.26
33.23
32.30
30.87
28.26
23.93
17.66
9.68
0.58
-8.88
-18.00
-26.38
-34.05
-41.40
-49.15
-58.01
-68.24
-79.30
-89.61
-96.74
-98.12
-91.93
-77.87
-57.37
-33.24
-8.72
13.41
31.48
44.93
54.03
59.35
61.43
60.75
57.78
53.21
47.88
42.67
38.26
34.99
32.85
31.63
31.06
30.91
31.04
31.17
30.91
29.73
27.08
22.63
16.43
8.88
0.68
-7.47
-15.08
-22.04
-28.72
-35.76
-43.91
-53.62
-64.69
-75.96
-85.41
-90.53
-89.13
-80.09
-63.92
-42.68
-19.37
3.01
22.30
37.53
48.81
56.84
62.29
65.59
66.88
66.20
63.81
60.16
55.91
51.72
48.09
45.32
43.50
42.53
42.20
42.18
42.08
41.52
40.18
37.86
34.54
30.32
25.35
19.77
13.65
6.95
-0.35
-8.24
-16.57
-25.03
-33.16
-40.53
-46.81
-52.00
-56.46
-60.90
-66.13
-72.82
-81.05
-90.07
-98.16
-102.99
-102.18
-94.19
-78.85
-57.68
-33.38
-9.09
12.54
29.96
42.85
51.79
57.68
61.29
63.06
63.18
61.78
59.18
55.93
52.68
50.05
48.43
47.89
48.24
49.14
50.23
51.20
51.83
51.91
51.25
49.61
46.76
42.59
37.16
30.74
23.72
16.57
9.68
3.32
-2.41
-7.62
-12.55
-17.46
-22.59
-28.06
-33.80
-39.60
-45.14
-50.14
-54.45
-58.18
-61.65
-65.41
-70.13
-76.43
-84.66
-94.57
-104.98
-113.80
-118.31
-116.04
-105.59
-87.32
-63.32
-36.80
-11.09
11.34
29.31
42.82
52.52
59.18
63.37
65.45
65.68
64.47
62.28
59.66
57.06
54.73
52.76
51.09
49.68
48.51
47.67
47.26
47.21
47.25
46.85
45.40
42.42
37.74
31.58
24.51
17.18
10.18
3.80
-1.95
-7.34
-12.74
-18.46
-24.56
-30.84
-36.87
-42.18
-46.48
-49.85
-52.73
-55.91
-60.22
-66.23
-73.92
-82.49
-90.28
-95.09
-94.75
-87.84
-74.20
-55.09
-32.86
-10.24
10.44
27.75
41.22
51.07
57.77
61.75
63.29
62.71
60.45
57.19
53.70
50.62
48.29
46.70
45.62
44.83
44.22
43.83
43.77
43.98
44.21
43.98
42.78
40.21
36.18
30.92
24.94
18.86
13.16
8.08
3.46
-1.12
-6.15
-11.95
-18.47
-25.34
-31.98
-37.83
-42.59
-46.32
-49.43
-52.59
-56.55
-61.91
-68.79
-76.56
-83.78
-88.34
-88.04
-81.32
-67.87
-48.88
-26.72
-4.30
15.86
32.14
44.04
51.86
56.27
57.93
57.25
54.53
50.06
44.33
38.02
31.89
26.63
22.72
20.30
19.22
19.15
19.61
20.16
20.44
20.18
19.21
17.45
14.86
11.44
7.17
2.06
-3.89
-10.64
-18.04
-25.81
-33.57
-40.87
-47.32
-52.73
-57.22
-61.20
-65.32
-70.26
-76.53
-84.13
-92.32
-99.54
-103.66
-102.45
-94.34
-79.07
-57.90
-33.39
-8.64
13.65
31.81
45.40
54.85
60.91
64.17
64.95
63.41
59.93
55.23
50.27
45.96
42.84
40.92
39.77
38.84
37.73
36.36
34.88
33.52
32.29
30.88
28.69
25.05
19.56
12.21
3.50
-5.72
-14.52
-22.24
-28.64
-34.00
-38.98
-44.44
-51.13
-59.48
-69.28
-79.59
-88.71
-94.47
-94.76
-88.17
-74.61
-55.39
-32.93
-10.04
10.84
28.20
41.54
50.99
57.00
59.96
60.20
58.10
54.20
49.25
44.08
39.39
35.62
32.87
30.99
29.70
28.72
27.91
27.24
26.72
26.29
25.65
24.28
21.59
17.09
10.70
2.80
-5.85
-14.40
-22.18
-28.97
-34.99
-40.85
-47.30
-54.99
-64.23
-74.69
-85.30
-94.23
-99.27
-98.37
-90.33
-75.35
-55.05
-32.04
-9.16
11.32
28.17
41.12
50.58
57.11
61.07
62.64
61.94
59.28
55.24
50.65
46.30
42.78
40.28
38.61
37.38
36.21
34.90
33.50
32.22
31.18
30.21
28.84
26.31
21.96
15.47
7.09
-2.38
-11.82
-20.27
-27.20
-32.77
-37.67
-42.92
-49.42
-57.66
-67.48
-78.04
-87.83
-94.88
-97.21
-93.31
-82.65
-65.94
-45.08
-22.60
-1.03
17.76
32.87
44.26
52.40
57.89
61.22
62.71
62.61
61.26
59.05
56.45
53.89
51.65
49.87
48.58
47.79
47.50
47.73
48.39
49.18
49.60
49.05
46.97
43.13
37.67
31.15
24.23
17.47
11.07
4.82
-1.67
-8.71
-16.33
-24.21
-31.79
-38.57
-44.29
-49.06
-53.33
-57.80
-63.22
-70.16
-78.68
-88.09
-96.79
-102.56
-103.08
-96.77
-83.41
-64.33
-41.98
-19.15
1.83
19.58
33.72
44.46
52.19
57.29
59.97
60.55
59.46
57.28
54.65
52.10
49.93
48.24
46.98
46.10
45.56
45.40
45.61
46.07
46.46
46.29
45.02
42.26
37.94
32.34
26.02
19.57
13.45
7.72
2.20
-3.47
-9.57
-16.12
-22.85
-29.31
-35.03
-39.74
-43.54
-46.89
-50.52
-55.23
-61.54
-69.43
-78.08
-85.91
-90.80
-90.73
-84.42
-71.81
-54.19
-33.79
-13.14
5.69
21.50
34.02
43.53
50.50
55.28
57.99
58.75
57.73
55.36
52.24
49.02
46.24
44.22
43.04
42.58
42.62
42.96
43.42
43.93
44.37
44.61
44.36
43.28
41.03
37.43
32.58
26.77
20.50
14.29
8.49
3.32
-1.26
-5.43
-9.48
-13.72
-18.38
-23.51
-28.94
-34.34
-39.34
-43.67
-47.36
-50.70
-54.23
-58.59
-64.30
-71.56
-79.99
-88.43
-95.04
-97.63
-94.31
-84.19
-67.79
-47.02
-24.56
-3.03
15.73
30.93
42.62
51.24
57.20
60.73
61.98
61.28
59.23
56.63
54.25
52.61
51.83
51.69
51.84
52.01
52.13
52.35
52.94
54.12
55.84
57.69
58.97
58.79
56.36
51.27
43.61
33.98
23.32
12.63
2.66
-6.17
-13.84
-20.52
-26.41
-31.60
-36.02
-39.51
-41.96
-43.43
-44.18
-44.61
-45.21
-46.45
-48.70
-52.09
-56.30
-60.46
-63.14
-62.54
-57.11
-46.03
-29.66
-9.59
11.81
31.95
48.67
60.57
67.11
68.48
65.38
58.79
49.88
39.81
29.69
20.43
12.72
6.94
3.25
1.58
1.63
2.99
5.18
7.72
10.19
12.25
13.65
14.18
13.76
12.45
10.40
7.89
5.16
2.32
-0.63
-3.79
-7.23
-10.94
-14.74
-18.45
-21.97
-25.42
-29.14
-33.64
-39.36
-46.58
-55.21
-64.62
-73.73
-81.06
-85.07
-84.52
-78.85
-68.46
-54.60
-39.08
-23.81
-10.36
0.37
8.17
13.34
16.42
17.91
18.19
17.48
15.99
14.02
12.00
10.46
9.84
10.39
12.10
14.71
17.82
21.02
23.92
26.27
27.91
28.75
28.80
28.02
26.31
23.46
19.20
13.35
5.95
-2.64
-11.86
-21.10
-29.99
-38.49
-46.92
-55.77
-65.47
-76.16
-87.52
-98.74
-108.40
-114.70
-115.79
-110.27
-97.72
-79.04
-56.30
-32.21
-9.36
10.43
26.29
38.22
46.57
51.75
54.02
53.61
50.95
46.73
41.82
37.06
33.00
29.78
27.23
25.04
22.95
20.92
19.01
17.41
16.13
14.98
13.50
11.08
7.22
1.69
-5.31
-13.15
-20.99
-28.09
-34.02
-38.85
-43.10
-47.56
-53.01
-59.88
-68.02
-76.49
-83.59
-87.15
-85.07
-76.03
-60.05
-38.64
-14.43
9.57
30.90
48.12
60.96
69.86
75.49
78.34
78.66
76.65
72.65
67.25
61.18
55.06
49.30
44.04
39.27
34.99
31.29
28.36
26.28
24.94
23.83
22.18
19.11
13.94
6.54
-2.60
-12.53
-22.20
-30.87
-38.40
-45.26
-52.28
-60.31
-69.90
-80.95
-92.62
-103.22
-110.49
-112.09
-106.25
-92.50
-71.99
-47.25
-21.53
2.25
22.18
37.68
49.12
57.28
62.78
65.87
66.66
65.41
62.68
59.31
56.11
53.63
51.94
50.82
49.90
48.90
47.79
46.71
45.85
45.28
44.82
43.99
42.13
38.64
33.16
25.82
17.23
8.28
-0.16
-7.58
-14.01
-19.95
-26.19
-33.48
-42.32
-52.67
-63.86
-74.53
-82.78
-86.51
-84.04
-74.63
-58.87
-38.57
-16.31
5.37
24.59
40.41
52.76
62.01
68.61
72.83
74.75
74.43
72.03
67.97
62.84
57.38
52.24
47.88
44.49
41.92
39.87
37.99
36.05
33.96
31.69
29.18
26.20
22.45
17.53
11.20
3.46
-5.39
-14.78
-24.07
-32.65
-40.19
-46.70
-52.51
-58.22
-64.55
-72.06
-81.00
-91.00
-100.91
-108.85
-112.59
-110.16
-100.57
-84.24
-63.00
-39.49
-16.43
4.17
21.31
34.91
45.38
53.17
58.61
61.89
63.26
63.14
62.08
60.69
59.41
58.51
57.98
57.71
57.52
57.28
56.95
56.54
56.11
55.61
54.89
53.54
51.12
47.21
41.68
34.77
27.09
19.40
12.36
6.29
1.07
-3.77
-8.96
-15.17
-22.82
-31.84
-41.48
-50.36
-56.56
-58.14
-53.66
-42.69
-26.06
-5.65
16.15
37.14
55.78
71.48
84.33
94.78
103.21
109.76
114.27
116.48
116.23
113.64
109.09
103.15
96.44
89.47
82.67
76.40
71.05
67.05
64.75
64.22
65.11
66.58
67.52
66.89
64.06
59.20
53.23
47.69
44.20
43.84
46.72
51.72
56.79
59.54
57.97
50.98
38.63
21.78
1.81
-19.89
-42.04
-63.40
-82.67
-98.51
-109.80
-115.97
-117.31
-115.09
-111.18
-107.52
-105.49
-105.45
-106.79
-108.26
-108.60
-107.16
-104.11
-100.33
-96.93
-94.73
-93.94
-94.11
-94.47
-94.29
-93.40
-92.32
-92.09
-93.94
-98.99
-107.92
-120.68
-136.11
-151.90
-164.90
-171.98
-171.12
-162.19
-147.13
-129.42
-112.81
-100.07
-92.32
-89.23
-89.64
-92.17
-95.50
-98.49
-100.29
-100.18
-97.35
-91.01
-80.67
-66.47
-48.96
-28.88
-7.23
14.40
34.40
51.93
67.37
81.86
96.31
111.13
126.27
140.62
151.83
157.62
157.40
152.96
147.59
144.07
143.98
147.59
152.85
155.36
150.28
134.69
108.90
75.72
38.04
-1.67
-41.51
-73.60
-90.05
-89.15
-77.28
-62.35
-47.94
-34.88
-26.80
-22.73
-24.05
-34.35
-57.38
-94.91
-146.06
-202.49
-255.92
-297.61
-319.51
-317.69
-293.87
-254.44
-207.35
-158.76
-111.25
-65.04
-18.60
29.54
78.19
123.42
160.35
185.63
198.99
203.06
201.05
195.96
189.78
182.57
173.38
161.51
147.48
133.23
121.20
112.63
107.25
103.56
99.26
92.43
82.27
69.30
54.97
41.00
28.53
18.16
10.10
4.32
0.82
-0.32
0.97
4.68
10.63
18.47
27.81
38.23
49.29
60.48
71.21
80.86
88.91
94.99
98.95
100.84
100.88
99.39
96.79
93.57
90.28
87.24
84.37
81.00
75.99
68.20
57.12
43.30
28.34
14.35
3.11
-4.56
-9.05
-11.64
-13.83
-16.75
-20.81
-25.70
-30.60
-34.36
-35.78
-33.97
-28.78
-21.27
-13.70
-9.01
-9.76
-17.07
-30.14
-46.48
-62.97
-76.92
-86.86
-92.57
-94.68
-94.08
-91.56
-87.85
-83.68
-79.81
-76.85
-75.02
-74.04
-73.23
-71.85
-69.38
-65.66
-60.83
-55.16
-48.84
-41.98
-34.78
-27.66
-21.42
-17.13
-15.83
-18.15
-24.01
-32.54
-42.27
-51.41
-58.21
-61.25
-59.57
-52.85
-41.41
-26.24
-8.84
9.02
25.69
40.03
51.67
60.95
68.62
75.35
81.26
85.79
87.86
86.44
81.03
72.03
60.60
48.22
36.13
24.97
14.79
5.31
-3.67
-12.09
-19.69
-26.19
-31.53
-35.94
-39.86
-43.76
-48.01
-52.89
-58.65
-65.56
-73.78
-83.12
-92.70
-100.82
-105.26
-103.92
-95.61
-80.65
-60.87
-38.99
-17.73
1.04
16.59
29.11
39.15
47.09
52.99
56.67
58.12
57.61
55.81
53.47
51.27
49.63
48.60
48.07
47.83
47.76
47.86
48.14
48.45
48.31
46.95
43.45
37.12
27.88
16.34
3.68
-8.76
-19.91
-29.33
-37.22
-44.34
-51.60
-59.94
-69.93
-81.63
-94.24
-105.98
-114.23
-116.08
-109.22
-92.80
-67.98
-37.74
-6.00
23.46
48.13
67.07
80.68
90.04
96.17
99.71
100.92
100.00
97.38
93.79
90.14
87.20
85.39
84.72
84.89
85.52
86.43
87.61
89.25
91.50
94.27
97.19
99.70
101.28
101.62
100.60
98.16
94.19
88.43
80.60
70.52
58.19
43.77
27.46
9.52
-9.53
-28.75
-46.63
-61.31
-71.02
-74.66
-72.15
-64.46
-53.30
-40.75
-28.87
-19.42
-13.63
-11.90
-13.81
-18.18
-23.49
-28.44
-32.42
-35.67
-38.97
-43.01
-47.77
-52.35
-55.36
-55.59
-52.72
-47.47
-41.30
-35.60
-31.11
-27.67
-24.50
-20.78
-16.17
-10.89
-5.47
-0.42
3.95
7.49
9.93
10.84
9.74
6.38
1.00
-5.65
-12.69
-19.54
-26.26
-33.45
-41.81
-51.47
-61.47
-69.76
-73.61
-70.52
-59.11
-39.77
-14.61
13.02
39.58
62.21
79.34
90.75
97.17
99.72
99.36
96.69
92.02
85.67
78.26
70.67
63.79
58.09
53.33
48.69
43.13
36.04
27.62
18.85
11.00
5.01
1.00
-1.76
-4.41
-8.04
-13.21
-19.87
-27.54
-35.50
-43.04
-49.59
-54.89
-59.11
-62.97
-67.67
-74.54
-84.45
-97.11
-110.64
-121.70
-126.18
-120.47
-102.89
-74.62
-39.87
-4.82
24.14
42.38
48.28
43.41
31.46
16.70
2.49
-9.34
-18.32
-24.67
-28.64
-30.23
-29.32
-26.08
-21.06
-15.13
-9.16
-3.73
0.98
5.10
8.78
12.00
14.48
15.83
15.63
13.70
10.15
5.34
-0.26
-6.36
-12.93
-20.27
-28.85
-38.85
-49.84
-60.44
-68.43
-71.24
-66.78
-54.17
-34.18
-9.12
17.84
43.57
65.64
82.67
94.16
100.11
100.69
96.23
87.39
75.34
61.72
48.35
36.60
27.05
19.40
12.87
6.76
0.83
-4.62
-9.04
-12.12
-14.05
-15.52
-17.40
-20.41
-24.77
-30.27
-36.41
-42.73
-49.00
-55.28
-61.82
-68.92
-76.82
-85.52
-94.67
-103.40
-110.15
-112.86
-109.36
-98.12
-78.97
-53.38
-24.24
4.97
31.15
52.25
67.49
77.01
81.40
81.32
77.36
70.18
60.60
49.57
37.97
26.49
15.53
5.35
-3.72
-11.21
-16.59
-19.45
-19.79
-18.23
-15.95
-14.50
-15.30
-19.18
-26.03
-34.86
-44.08
-52.15
-58.11
-61.91
-64.45
-67.19
-71.64
-78.64
-87.81
-97.36
-104.29
-105.21
-97.42
-79.88
-53.70
-21.95
11.40
42.53
68.82
89.18
103.82
113.61
119.54
122.27
122.13
119.24
113.67
105.67
95.70
84.42
72.57
60.90
50.08
40.61
32.76
26.56
21.71
17.64
13.59
8.86
3.03
-3.89
-11.41
-18.83
-25.45
-30.95
-35.48
-39.77
-44.85
-51.69
-60.65
-71.08
-81.10
-87.95
-88.73
-81.34
-65.25
-41.80
-13.80
15.23
42.01
64.08
80.16
89.97
93.96
93.02
88.19
80.55
71.16
60.97
50.77
41.12
32.26
24.19
16.72
9.67
2.95
-3.31
-8.96
-13.96
-18.59
-23.43
-29.16
-36.23
-44.57
-53.62
-62.51
-70.46
-77.21
-83.08
-88.91
-95.61
-103.64
-112.52
-120.64
-125.46
-124.15
-114.53
-95.90
-69.38
-37.62
-4.02
28.29
57.09
81.25
100.42
114.56
123.69
127.88
127.47
123.18
116.07
107.25
97.55
87.44
77.09
66.58
56.11
46.06
36.91
29.06
22.62
17.30
12.43
7.13
0.56
-7.76
-17.76
-28.80
-39.87
-49.95
-58.39
-65.18
-70.97
-76.90
-84.26
-93.88
-105.72
-118.46
-129.60
-135.97
-134.64
-123.95
-104.15
-77.50
-47.50
-17.90
8.36
29.74
45.94
57.49
65.07
69.20
70.25
68.68
65.24
60.95
56.89
53.84
52.03
51.17
50.71
50.17
49.41
48.66
48.30
48.53
49.12
49.35
48.25
44.98
39.12
30.96
21.28
11.19
1.65
-6.78
-14.11
-20.87
-27.95
-36.26
-46.46
-58.53
-71.58
-83.73
-92.45
-95.12
-89.86
-76.27
-55.67
-30.78
-4.93
18.89
38.75
53.99
64.87
72.07
76.21
77.71
76.86
74.11
70.13
65.75
61.68
58.31
55.61
53.31
51.09
48.84
46.74
45.06
44.00
43.43
42.84
41.46
38.54
33.62
26.74
18.48
9.73
1.38
-6.00
-12.34
-18.07
-23.93
-30.71
-38.95
-48.70
-59.27
-69.20
-76.36
-78.47
-73.72
-61.49
-42.66
-19.48
5.19
28.68
49.18
65.91
78.75
87.84
93.21
94.85
92.97
88.28
81.98
75.53
70.23
66.80
65.29
65.16
65.63
65.98
65.80
65.07
63.96
62.71
61.33
59.47
56.45
51.42
43.68
32.99
19.68
4.71
-10.63
-25.17
-38.20
-49.75
-60.47
-71.33
-83.19
-96.40
-110.61
-124.70
-136.97
-145.37
-147.94
-143.38
-131.45
-113.16
-90.66
-66.63
-43.55
-23.18
-6.31
7.07
17.31
24.76
29.71
32.47
33.57
33.81
34.09
35.07
36.97
39.53
42.23
44.67
46.78
48.89
51.38
54.42
57.66
60.33
61.52
60.49
56.98
51.22
43.82
35.63
27.57
20.35
14.23
8.69
2.43
-6.34
-19.26
-37.02
-58.73
-81.92
-103.07
-118.61
-125.92
-123.99
-113.50
-96.49
-75.65
-53.74
-33.08
-15.31
-1.32
8.57
14.54
17.08
16.90
14.88
11.97
9.02
6.67
5.20
4.60
4.61
4.96
5.48
6.19
7.23
8.69
10.46
12.18
13.25
13.06
11.19
7.59
2.59
-3.20
-9.13
-14.70
-19.80
-24.64
-29.73
-35.69
-43.02
-51.88
-61.85
-71.84
-80.08
-84.57
-83.53
-76.05
-62.47
-44.36
-24.11
-4.19
13.42
27.67
38.37
45.89
50.73
53.28
53.79
52.49
49.79
46.28
42.65
39.42
36.84
34.79
33.00
31.27
29.60
28.24
27.44
27.25
27.30
26.93
25.39
22.14
17.08
10.56
3.29
-3.95
-10.57
-16.32
-21.40
-26.31
-31.75
-38.29
-46.12
-54.80
-63.21
-69.65
-72.27
-69.56
-60.89
-46.80
-28.90
-9.43
9.35
25.74
38.96
49.05
56.56
62.07
65.91
68.08
68.48
67.18
64.57
61.37
58.38
56.19
55.00
54.56
54.45
54.28
53.92
53.57
53.54
54.04
54.95
55.80
55.99
54.98
52.59
48.96
44.34
38.87
32.39
24.44
14.52
2.37
-11.91
-27.84
-44.63
-61.27
-76.43
-88.51
-95.75
-96.66
-90.51
-77.74
-59.95
-39.57
-19.19
-0.90
14.11
25.49
33.47
38.49
40.92
41.03
39.02
35.21
30.14
24.50
19.01
14.25
10.43
7.47
5.06
2.94
1.03
-0.54
-1.54
-1.87
-1.81
-1.97
-3.22
-6.27
-11.46
-18.50
-26.62
-34.78
-42.11
-48.20
-53.23
-57.83
-62.82
-68.86
-76.24
-84.60
-93.00
-99.86
-103.32
-101.55
-93.37
-78.70
-58.74
-35.72
-12.35
8.91
26.44
39.59
48.53
53.81
56.09
55.90
53.70
49.95
45.14
39.81
34.40
29.23
24.51
20.34
16.81
14.06
12.19
11.19
10.86
10.68
9.98
8.08
4.55
-0.58
-6.87
-13.63
-20.22
-26.26
-31.79
-37.19
-43.06
-49.94
-58.06
-67.02
-75.65
-82.12
-84.33
-80.56
-70.17
-53.90
-33.77
-12.41
7.66
24.75
38.15
47.95
54.67
58.83
60.81
60.91
59.48
57.01
54.02
50.94
47.95
44.89
41.48
37.49
33.04
28.56
24.72
22.08
20.79
20.39
19.93
18.27
14.62
8.84
1.57
-5.93
-12.31
-16.62
-18.73
-19.35
-19.75
-21.30
-24.96
-30.98
-38.77
-47.01
-53.78
-56.92
-54.41
-44.96
-28.47
-6.24
19.34
45.46
69.73
90.58
107.27
119.34
126.19
127.04
121.38
109.55
93.15
74.75
57.10
42.30
31.18
23.38
17.89
13.65
10.02
6.77
3.80
0.93
-2.34
-6.68
-12.65
-20.40
-29.59
-39.44
-49.05
-57.71
-65.20
-71.77
-78.12
-85.12
-93.60
-104.06
-116.49
-130.10
-143.24
-153.53
-158.37
-155.73
-144.74
-126.17
-102.17
-75.70
-49.66
-26.21
-6.49
9.22
21.21
29.97
36.02
39.88
42.12
43.29
43.93
44.46
45.09
45.88
46.71
47.38
47.67
47.43
46.60
45.22
43.44
41.49
39.57
37.81
36.15
34.25
31.49
27.09
20.31
10.72
-1.68
-16.38
-32.46
-48.65
-63.34
-74.58
-80.18
-78.15
-67.33
-47.92
-21.72
8.19
38.28
65.46
87.70
104.20
114.97
120.28
120.29
115.09
105.02
91.08
74.99
58.79
44.26
32.25
22.58
14.30
6.43
-1.42
-8.85
-14.97
-19.14
-21.53
-23.27
-26.03
-31.28
-39.54
-50.26
-62.08
-73.55
-83.81
-92.87
-101.53
-110.78
-121.24
-132.59
-143.44
-151.51
-154.23
-149.46
-136.28
-115.37
-89.03
-60.48
-32.99
-9.01
10.28
24.84
35.29
42.38
46.61
48.31
47.85
45.80
42.98
40.23
38.13
36.89
36.34
36.15
36.03
35.91
35.95
36.34
37.15
38.09
38.55
37.76
35.09
30.39
24.07
16.99
10.16
4.36
-0.19
-3.87
-7.51
-12.06
-18.23
-26.09
-34.88
-42.99
-48.19
-48.21
-41.41
-27.40
-7.32
16.46
40.98
63.62
82.69
97.69
108.98
117.35
123.58
128.22
131.58
133.77
134.77
134.37
132.29
128.21
122.05
114.06
104.86
95.25
85.97
77.39
69.46
61.79
53.86
45.22
35.66
25.22
14.17
2.84
-8.51
-19.85
-31.39
-43.49
-56.38
-69.71
-82.29
-92.00
-96.20
-92.41
-79.30
-57.21
-28.34
3.75
35.13
62.46
83.65
97.94
105.47
106.71
102.06
91.78
76.11
55.56
30.96
3.45
-25.71
-55.24
-83.84
-110.14
-132.80
-150.61
-162.81
-169.22
-170.30
-166.91
-160.13
-150.99
-140.36
-129.06
-117.91
-107.81
-99.56
-93.65
-90.06
-88.35
-87.86
-88.15
-89.31
-91.90
-96.50
-103.09
-110.40
-115.95
-116.55
-109.38
-93.02
-67.96
-36.48
-1.86
32.63
64.54
92.55
116.38
136.37
152.97
166.46
176.77
183.54
186.33
184.88
179.22
169.73
156.94
141.23
122.78
101.65
78.14
53.11
28.04
4.69
-15.48
-31.79
-44.57
-54.75
-63.36
-71.02
-77.69
-82.80
-85.63
-85.72
-83.21
-79.05
-74.86
-72.52
-73.61
-78.72
-87.13
-96.84
-105.11
-109.24
-107.39
-98.96
-84.71
-66.36
-46.19
-26.44
-9.01
4.83
14.51
20.08
22.05
21.13
18.07
13.52
8.03
2.11
-3.74
-9.07
-13.49
-16.73
-18.70
-19.40
-18.91
-17.39
-15.03
-12.16
-9.27
-6.98
-5.95
-6.64
-9.18
-13.28
-18.36
-23.74
-28.89
-33.60
-38.02
-42.64
-48.08
-54.84
-63.02
-72.02
-80.45
-86.29
-87.36
-81.98
-69.63
-51.22
-28.85
-5.20
17.32
37.06
53.33
66.14
75.75
82.45
86.40
87.83
87.16
85.08
82.39
79.86
77.94
76.73
76.04
75.64
75.33
75.13
75.20
75.77
76.96
78.61
80.21
81.00
80.20
77.37
72.62
66.76
60.95
56.35
53.59
52.50
52.16
51.20
48.17
42.00
32.39
19.98
6.48
-5.57
-13.38
-14.70
-8.65
3.85
20.23
37.16
51.49
61.23
65.80
65.77
62.24
56.32
48.85
40.45
31.75
23.38
15.97
9.93
5.33
1.91
-0.67
-2.65
-3.99
-4.42
-3.59
-1.36
1.90
5.27
7.37
6.80
2.63
-5.14
-15.43
-26.37
-35.86
-42.36
-45.45
-45.90
-45.22
-44.90
-45.65
-47.06
-47.82
-46.34
-41.59
-33.55
-23.21
-12.13
-1.81
6.74
13.07
17.10
18.76
17.91
14.46
8.57
0.88
-7.58
-15.63
-22.33
-27.24
-30.54
-32.82
-34.72
-36.56
-38.17
-38.97
-38.27
-35.73
-31.57
-26.63
-22.09
-19.11
-18.41
-20.16
-23.93
-29.05
-34.82
-40.82
-47.00
-53.64
-61.19
-70.05
-80.29
-91.53
-102.68
-112.03
-117.37
-116.53
-108.02
-91.61
-68.61
-41.67
-14.05
11.27
32.37
48.57
60.22
68.09
72.90
75.05
74.71
72.14
67.85
62.64
57.40
52.83
49.22
46.47
44.22
42.14
40.11
38.19
36.50
34.96
33.15
30.37
25.96
19.62
11.61
2.74
-6.03
-13.89
-20.62
-26.57
-32.56
-39.56
-48.26
-58.77
-70.31
-81.16
-88.95
-91.20
-86.12
-73.26
-53.82
-30.29
-5.73
17.12
36.48
51.67
62.78
70.26
74.54
75.95
74.86
71.81
67.50
62.64
57.78
53.14
48.66
44.17
39.62
35.18
31.26
28.30
26.52
25.70
25.18
24.00
21.24
16.35
9.38
0.93
-8.04
-16.66
-24.35
-31.09
-37.37
-43.94
-51.58
-60.72
-71.15
-81.82
-90.89
-96.06
-95.15
-86.87
-71.36
-50.32
-26.54
-3.12
17.41
33.66
45.42
53.22
57.89
60.10
60.26
58.63
55.46
51.14
46.15
40.98
36.01
31.56
27.84
25.03
23.17
22.16
21.65
21.08
19.81
17.32
13.34
7.98
1.64
-5.16
-11.96
-18.56
-25.18
-32.35
-40.68
-50.57
-61.81
-73.28
-82.99
-88.50
-87.60
-79.13
-63.47
-42.57
-19.36
3.12
22.50
37.59
48.25
55.05
58.73
59.89
58.96
56.23
52.12
47.14
41.89
36.92
32.59
29.14
26.65
25.17
24.60
24.72
25.07
24.98
23.78
20.91
16.21
9.97
2.80
-4.55
-11.51
-17.88
-23.93
-30.29
-37.65
-46.35
-56.03
-65.37
-72.27
-74.32
-69.62
-57.41
-38.49
-15.01
10.17
34.34
55.61
73.19
87.25
98.37
107.08
113.47
117.21
117.69
114.36
107.06
96.17
82.58
67.50
52.19
37.69
24.69
13.38
3.51
-5.50
-14.42
-23.97
-34.63
-46.43
-58.96
-71.51
-83.27
-93.62
-102.31
-109.59
-116.13
-122.77
-130.18
-138.34
-146.19
-151.60
-151.81
-144.38
-128.13
-103.85
-74.22
-43.00
-13.87
10.58
29.30
42.62
51.60
57.35
60.66
61.95
61.43
59.37
56.17
52.33
48.39
44.78
41.77
39.42
37.63
36.21
34.87
33.28
31.08
27.96
23.67
18.19
11.68
4.51
-2.94
-10.42
-17.93
-25.75
-34.32
-43.99
-54.74
-65.85
-75.88
-82.78
-84.40
-79.20
-66.87
-48.56
-26.67
-4.16
16.37
33.28
46.07
55.14
61.19
64.84
66.43
66.11
64.04
60.54
56.12
51.33
46.68
42.55
39.17
36.66
35.04
34.17
33.72
33.19
31.98
29.55
25.63
20.29
13.91
7.04
0.20
-6.38
-12.77
-19.36
-26.67
-35.13
-44.71
-54.66
-63.44
-68.94
-69.06
-62.37
-48.78
-29.67
-7.56
14.63
34.41
50.35
62.15
70.36
75.81
79.16
80.67
80.32
78.04
74.06
68.96
63.60
58.82
55.12
52.41
50.05
47.09
42.62
36.12
27.63
17.66
7.01
-3.47
-13.07
-21.28
-27.89
-32.90
-36.64
-39.78
-43.21
-47.87
-54.32
-62.35
-70.78
-77.63
-80.67
-78.23
-69.84
-56.42
-40.04
-23.16
-7.88
4.62
14.08
20.88
25.55
28.49
29.88
29.80
28.39
25.89
22.69
19.12
15.45
11.81
8.33
5.15
2.49
0.59
-0.47
-0.82
-0.93
-1.49
-3.17
-6.47
-11.38
-17.48
-23.98
-30.05
-35.06
-38.84
-41.75
-44.55
-48.28
-53.80
-61.50
-70.84
-80.23
-87.19
-89.00
-83.60
-70.41
-50.64
-27.03
-2.91
18.79
36.33
49.31
58.28
64.08
67.35
68.37
67.24
64.14
59.56
54.22
48.86
44.02
39.84
36.18
32.74
29.31
25.92
22.84
20.32
18.38
16.67
14.43
10.84
5.31
-2.15
-10.92
-20.00
-28.40
-35.53
-41.39
-46.50
-51.65
-57.63
-65.02
-73.99
-84.07
-94.03
-101.88
-105.24
-102.00
-91.08
-73.01
-49.90
-24.83
-0.91
19.62
35.76
47.59
55.77
60.99
63.69
64.16
62.64
59.61
55.64
51.35
47.19
43.37
39.96
36.95
34.41
32.42
31.05
30.14
29.29
27.89
25.28
21.02
15.07
7.84
0.03
-7.65
-14.73
-21.21
-27.49
-34.32
-42.41
-52.16
-63.22
-74.32
-83.31
-87.69
-85.39
-75.51
-58.84
-37.65
-15.00
6.26
24.25
38.36
48.93
56.67
62.14
65.50
66.71
65.82
63.18
59.53
55.72
52.44
49.96
48.16
46.63
44.97
43.05
41.02
39.14
37.51
35.83
33.40
29.42
23.27
14.91
4.89
-5.79
-16.05
-25.06
-32.55
-38.78
-44.42
-50.37
-57.45
-66.22
-76.65
-87.91
-98.27
-105.36
-106.75
-100.75
-87.15
-67.42
-44.32
-21.01
-0.06
17.23
30.75
41.20
49.33
55.48
59.56
61.33
60.79
58.40
55.02
51.65
49.01
47.42
46.71
46.41
46.00
45.18
43.92
42.45
41.05
39.80
38.45
36.49
33.28
28.41
21.94
14.36
6.56
-0.58
-6.44
-10.88
-14.27
-17.27
-20.68
-25.15
-31.04
-38.24
-46.02
-53.00
-57.32
-57.07
-50.90
-38.59
-21.35
-1.59
17.74
34.01
45.62
52.20
54.36
53.14
49.50
44.06
37.20
29.31
20.92
12.69
5.26
-0.95
-5.85
-9.63
-12.56
-14.81
-16.37
-17.12
-16.97
-16.08
-14.99
-14.54
-15.60
-18.77
-24.04
-30.74
-37.74
-43.96
-48.76
-52.28
-55.33
-59.04
-64.41
-71.84
-80.91
-90.32
-98.06
-101.80
-99.48
-89.94
-73.41
-51.55
-27.04
-2.85
18.63
36.00
48.92
57.75
63.09
65.47
65.33
63.07
59.25
54.56
49.69
45.19
41.32
38.07
35.27
32.74
30.44
28.49
27.01
25.99
25.08
23.62
20.85
16.19
9.54
1.39
-7.37
-15.81
-23.29
-29.75
-35.67
-41.88
-49.26
-58.34
-68.97
-80.13
-89.86
-95.73
-95.39
-87.42
-71.90
-50.53
-26.14
-1.78
20.11
38.26
52.52
63.38
71.40
76.91
80.01
80.90
80.18
78.81
77.84
77.96
79.18
80.83
81.88
81.48
79.26
75.46
70.70
65.61
60.58
55.65
50.53
44.63
37.22
27.70
15.79
1.92
-12.88
-27.16
-39.63
-49.66
-57.53
-64.24
-70.99
-78.53
-86.67
-94.13
-98.80
-98.30
-90.67
-75.13
-52.37
-24.66
4.83
32.84
56.88
75.69
89.10
97.53
101.46
101.19
96.96
89.29
79.14
67.81
56.60
46.33
37.24
28.97
20.97
12.85
4.57
-3.55
-11.07
-17.70
-23.46
-28.79
-34.39
-40.97
-48.92
-58.11
-67.91
-77.37
-85.61
-92.19
-97.23
-101.37
-105.53
-110.55
-117.03
-125.03
-133.99
-142.62
-148.95
-150.66
-145.69
-132.89
-112.56
-86.54
-57.68
-29.14
-3.50
17.67
33.85
45.26
52.47
56.01
56.38
54.10
49.82
44.34
38.52
33.08
28.46
24.80
22.07
20.17
19.10
18.92
19.58
20.82
22.04
22.43
21.21
17.93
12.62
5.81
-1.72
-9.20
-16.19
-22.71
-29.21
-36.40
-44.91
-54.98
-66.12
-76.98
-85.54
-89.58
-87.30
-77.92
-62.02
-41.40
-18.57
3.91
24.04
40.68
53.50
62.66
68.56
71.50
71.79
69.75
65.93
61.01
55.78
50.87
46.64
43.16
40.33
38.00
36.09
34.55
33.29
32.04
30.38
27.79
23.84
18.36
11.54
3.85
-4.08
-11.67
-18.63
-25.12
-31.66
-39.04
-47.86
-58.18
-69.23
-79.39
-86.45
-88.26
-83.37
-71.47
-53.65
-32.07
-9.39
11.91
30.08
44.34
54.74
61.85
66.32
68.60
68.93
67.45
64.35
60.02
55.02
49.95
45.30
41.33
38.09
35.47
33.24
31.21
29.15
26.83
24.05
20.61
16.41
11.42
5.69
-0.67
-7.66
-15.38
-24.04
-33.76
-44.34
-54.93
-64.06
-69.79
-70.36
-64.71
-52.96
-36.49
-17.51
1.53
18.62
32.58
43.07
50.29
54.62
56.37
55.66
52.65
47.68
41.38
34.59
28.16
22.73
18.61
15.78
13.98
12.88
12.15
11.56
10.89
10.02
8.84
7.21
5.00
2.01
-1.97
-7.10
-13.46
-20.99
-29.34
-37.85
-45.37
-50.40
-51.37
-47.10
-37.34
-22.94
-5.76
11.91
27.98
41.08
50.70
56.96
60.29
61.12
59.75
56.52
51.84
46.26
40.39
34.78
29.83
25.80
22.78
20.82
19.78
19.36
19.06
18.30
16.49
13.28
8.63
2.77
-3.88
-10.83
-17.75
-24.52
-31.28
-38.39
-46.22
-54.90
-64.05
-72.64
-79.00
-81.27
-77.91
-68.32
-53.15
-34.22
-14.00
5.06
21.19
33.56
42.22
47.71
50.65
51.51
50.56
48.00
44.20
39.64
34.95
30.71
27.32
24.94
23.53
22.90
22.77
22.86
22.82
22.37
21.24
19.28
16.47
12.89
8.72
4.11
-0.80
-5.98
-11.50
-17.50
-23.99
-30.68
-36.74
-40.78
-41.07
-36.07
-24.94
-7.94
13.49
37.18
60.67
81.83
99.14
111.75
119.40
122.22
120.64
115.31
107.10
96.97
85.90
74.80
64.41
55.29
47.73
41.81
37.32
33.85
30.77
27.44
23.25
17.86
11.22
3.62
-4.46
-12.51
-20.25
-27.71
-35.28
-43.51
-52.94
-63.77
-75.66
-87.59
-97.88
-104.56
-105.88
-100.90
-89.95
-74.68
-57.60
-41.31
-27.70
-17.46
-10.17
-4.76
-0.26
3.81
7.32
9.88
11.27
11.79
12.28
13.79
17.18
22.68
29.64
36.70
42.13
44.44
42.79
37.24
28.55
17.84
6.10
-6.04
-18.30
-30.56
-42.70
-54.53
-65.87
-76.59
-86.51
-95.16
-101.62
-104.56
-102.67
-95.28
-82.71
-66.24
-47.60
-28.42
-9.78
7.64
23.23
35.98
44.46
47.28
43.77
34.50
21.31
6.76
-6.77
-17.81
-26.09
-32.35
-37.72
-43.03
-48.53
-53.86
-58.45
-61.90
-64.30
-66.19
-68.37
-71.62
-76.42
-82.89
-90.72
-99.05
-106.47
-111.06
-110.69
-103.65
-89.27
-68.35
-43.10
-16.51
8.52
29.91
46.67
58.74
66.52
70.42
70.74
67.83
62.27
55.09
47.58
41.01
36.22
33.35
31.90
30.97
29.67
27.49
24.39
20.77
17.12
13.71
10.48
6.98
2.63
-3.16
-10.81
-20.43
-31.71
-43.71
-54.79
-62.75
-65.35
-61.09
-49.80
-32.87
-12.84
7.42
25.63
40.59
52.10
60.47
66.03
68.81
68.68
65.63
60.08
52.95
45.39
38.43
32.71
28.35
25.06
22.32
19.64
16.70
13.40
9.79
5.98
2.07
-1.99
-6.38
-11.36
-17.21
-24.23
-32.61
-42.38
-53.23
-64.24
-73.90
-80.17
-81.05
-75.21
-62.61
-44.68
-23.96
-3.34
14.77
29.02
39.17
45.68
49.29
50.55
49.73
47.02
42.69
37.25
31.41
25.94
21.46
18.29
16.41
15.49
15.06
14.63
13.85
12.50
10.47
7.70
4.12
-0.32
-5.62
-11.65
-18.24
-25.28
-32.83
-41.11
-50.23
-59.88
-68.96
-75.68
-77.95
-74.17
-63.87
-48.03
-28.81
-8.90
9.36
24.49
35.99
44.12
49.44
52.43
53.43
52.61
50.18
46.48
42.02
37.44
33.33
30.14
28.02
26.85
26.22
25.61
24.52
22.64
19.82
16.11
11.68
6.68
1.21
-4.66
-10.96
-17.77
-25.26
-33.64
-43.02
-53.21
-63.42
-72.16
-77.49
-77.52
-71.12
-58.44
-40.98
-21.19
-1.67
15.57
29.52
40.12
47.84
53.18
56.43
57.68
57.06
54.90
51.74
48.20
44.73
41.50
38.43
35.43
32.51
29.91
27.89
26.54
25.55
24.26
21.85
17.76
11.88
4.70
-3.00
-10.38
-16.94
-22.68
-28.05
-33.73
-40.39
-48.39
-57.52
-66.88
-74.92
-79.68
-79.31
-72.63
-59.68
-41.80
-21.32
-0.87
17.40
32.28
43.57
51.77
57.56
61.44
63.60
64.07
62.93
60.45
57.12
53.54
50.26
47.60
45.66
44.30
43.27
42.31
41.22
39.88
38.20
36.08
33.42
30.10
26.05
21.24
15.70
9.50
2.81
-4.22
-11.33
-18.29
-24.88
-30.96
-36.56
-41.83
-47.11
-52.82
-59.39
-66.95
-75.13
-82.90
-88.57
-90.23
-86.30
-76.20
-60.62
-41.38
-20.94
-1.59
15.07
28.40
38.49
45.79
50.76
53.69
54.74
54.15
52.32
49.86
47.38
45.36
44.04
43.39
43.24
43.41
43.79
44.35
45.03
45.68
45.97
45.50
43.86
40.85
36.60
31.48
26.03
20.73
15.81
11.18
6.55
1.61
-3.82
-9.62
-15.46
-20.93
-25.76
-29.88
-33.49
-36.89
-40.45
-44.50
-49.26
-54.81
-60.96
-67.07
-72.06
-74.46
-72.80
-66.02
-53.87
-37.07
-17.11
4.09
24.64
42.96
57.92
68.86
75.53
78.10
77.15
73.65
68.91
64.43
61.60
61.51
64.70
71.10
80.09
90.83
102.53
114.64
126.66
137.83
146.65
150.92
148.33
137.40
118.38
93.52
66.42
40.90
19.68
3.79
-7.31
-15.00
-20.67
-25.23
-29.12
-32.58
-35.97
-39.85
-44.75
-50.96
-58.32
-66.16
-73.47
-79.19
-82.48
-83.00
-80.94
-76.93
-71.82
-66.38
-61.22
-56.69
-53.03
-50.39
-48.90
-48.56
-49.16
-50.26
-51.31
-51.74
-51.17
-49.48
-46.66
-42.74
-37.75
-31.67
-24.65
-17.10
-9.63
-2.85
2.89
7.64
11.76
15.58
19.12
21.90
23.18
22.25
18.87
13.35
6.43
-0.99
-8.16
-14.60
-20.05
-24.48
-28.04
-31.26
-35.09
-40.73
-49.33
-61.30
-75.85
-90.92
-103.49
-110.53
-109.93
-101.22
-85.62
-65.57
-43.88
-23.06
-4.82
9.91
20.79
27.87
31.51
32.42
31.72
30.80
31.02
33.26
37.63
43.46
49.61
54.89
58.52
60.15
59.75
57.20
52.12
43.94
32.33
17.62
0.95
-15.92
-31.28
-43.98
-53.85
-61.59
-68.35
-75.22
-82.86
-91.29
-99.92
-107.60
-112.78
-113.75
-109.03
-97.87
-80.62
-58.85
-35.04
-11.93
8.20
24.00
35.15
42.07
45.51
46.21
44.72
41.54
37.20
32.33
27.62
23.63
20.65
18.68
17.47
16.72
16.23
15.94
15.88
15.99
15.98
15.30
13.34
9.63
4.12
-2.73
-10.09
-17.10
-23.17
-28.21
-32.60
-37.06
-42.40
-49.24
-57.79
-67.61
-77.43
-85.19
-88.45
-85.02
-73.77
-55.14
-31.14
-4.78
20.92
43.74
62.75
78.07
90.24
99.56
105.75
108.22
106.65
101.56
94.49
87.54
82.58
80.58
81.43
84.38
88.50
93.08
97.42
100.46
100.55
95.76
84.65
67.01
44.16
18.56
-6.97
-30.11
-49.53
-64.93
-76.79
-86.08
-93.94
-101.51
-109.57
-118.29
-127.08
-134.63
-139.24
-139.30
-133.71
-122.26
-105.65
-85.39
-63.37
-41.51
-21.34
-3.90
10.27
20.94
28.08
31.80
32.41
30.46
26.72
22.06
17.33
13.18
10.04
8.14
7.58
8.36
10.39
13.41
16.97
20.37
22.81
23.53
22.07
18.47
13.24
7.25
1.45
-3.47
-7.22
-10.06
-12.68
-16.00
-20.87
-27.59
-35.57
-43.12
-47.70
-46.58
-37.81
-20.95
2.51
29.46
55.95
78.22
93.57
100.89
100.69
94.74
85.43
75.12
65.58
57.69
51.51
46.50
41.84
36.76
30.66
23.15
14.12
3.81
-7.15
-17.82
-27.19
-34.59
-39.93
-43.87
-47.48
-51.90
-57.87
-65.46
-74.11
-82.92
-91.06
-98.13
-104.32
-110.38
-117.28
-125.78
-135.94
-146.83
-156.46
-162.14
-161.21
-151.81
-133.53
-107.64
-76.79
-44.26
-13.15
14.29
36.89
54.42
67.21
75.76
80.61
82.33
81.60
79.23
76.06
72.76
69.74
67.13
