1653558769.00
64.000000
-0.00
-0.00
-0.00
-0.00
-0.00
-0.00
-0.00
-0.00
-0.00
-0.00
0.00
0.01
0.01
-0.00
-0.03
-0.05
-0.05
0.00
0.13
0.36
0.66
1.01
1.37
1.72
2.06
2.40
2.79
3.24
3.80
4.42
5.06
5.66
6.20
6.68
7.15
7.68
8.31
9.14
10.09
11.04
11.88
12.56
13.14
13.76
14.65
15.96
17.91
20.32
22.90
25.38
27.58
29.57
31.68
34.32
37.82
42.54
48.15
54.10
59.83
64.97
69.59
74.17
79.39
85.76
93.78
102.93
112.42
121.39
129.28
136.16
142.66
150.09
157.13
165.98
177.23
190.96
206.00
219.47
227.08
224.20
207.41
175.79
131.63
78.75
21.47
-36.90
-94.72
-151.62
-207.71
-262.74
-316.05
-366.32
-412.76
-454.65
-491.23
-521.37
-543.43
-555.56
-556.14
-544.40
-520.50
-485.91
-442.72
-393.26
-339.66
-283.70
-226.89
-170.69
-116.69
-66.41
-21.28
17.80
50.63
77.69
99.79
117.77
132.18
143.16
150.61
154.26
153.85
149.30
141.13
130.76
120.75
114.27
114.11
121.43
134.92
151.18
165.89
175.55
178.59
175.58
168.37
158.86
148.24
136.87
124.83
112.45
100.46
89.69
80.61
73.14
66.75
60.90
55.06
49.07
43.13
37.58
32.70
28.55
25.00
21.78
18.58
15.18
11.58
7.99
4.70
2.06
0.21
-0.89
-1.50
-1.93
-2.44
-3.07
-3.69
-4.18
-4.41
-4.44
-4.43
-4.53
-4.86
-5.44
-6.24
-7.10
-7.72
-7.69
-6.66
-4.58
-1.88
0.63
2.10
2.01
0.51
-1.70
-3.72
-4.93
-5.19
-4.83
-4.36
-4.08
-4.05
-4.06
-3.95
-3.69
-3.45
-3.38
-3.53
-3.84
-4.06
-4.02
-3.65
-3.10
-2.62
-2.49
-2.85
-3.58
-4.32
-4.61
-4.08
-2.64
-0.56
1.69
3.58
4.77
5.20
5.00
4.48
3.88
3.37
3.04
2.94
3.11
3.55
4.22
5.05
5.93
6.78
7.57
8.26
8.82
9.15
9.15
8.75
7.94
6.81
5.49
3.97
2.25
0.29
-1.85
-4.04
-6.08
-7.78
-9.02
-9.79
-10.17
-10.25
-10.11
-9.83
-9.45
-9.05
-8.65
-8.30
-7.97
-7.62
-7.18
-6.62
-5.99
-5.36
-4.86
-4.58
-4.54
-4.64
-4.74
-4.65
-4.31
-3.78
-3.21
-2.76
-2.58
-2.67
-2.94
-3.23
-3.30
-2.95
-2.05
-0.59
1.24
3.12
4.66
5.57
5.74
5.27
4.37
3.27
2.15
1.14
0.31
-0.26
-0.51
-0.45
-0.16
0.26
0.70
1.13
1.49
1.79
2.02
2.17
2.23
2.22
2.17
2.13
2.12
2.08
1.95
1.67
1.20
0.61
-0.01
-0.56
-0.93
-1.10
-1.10
-1.02
-0.98
-1.08
-1.36
-1.79
-2.32
-2.89
-3.47
-4.05
-4.62
-5.15
-5.57
-5.82
-5.93
-6.00
-6.23
-6.81
-7.82
-9.16
-10.52
-11.47
-11.57
-10.56
-8.44
-5.51
-2.24
0.86
3.44
5.35
6.67
7.54
8.09
8.35
8.30
7.93
7.32
6.61
5.97
5.53
5.35
5.39
5.61
5.92
6.26
6.57
6.78
6.87
6.81
6.58
6.16
5.55
4.79
3.97
3.16
2.43
1.81
1.25
0.73
0.22
-0.26
-0.65
-0.95
-1.17
-1.36
-1.51
-1.64
-1.69
-1.67
-1.64
-1.72
-2.01
-2.57
-3.36
-4.34
-5.47
-6.78
-8.30
-9.99
-11.65
-12.92
-13.43
-12.88
-11.19
-8.53
-5.27
-1.82
1.43
4.20
6.28
7.62
8.19
8.14
7.63
6.91
6.19
5.61
5.21
4.98
4.84
4.75
4.68
4.65
4.70
4.83
5.03
5.26
5.45
5.56
5.55
5.43
5.23
4.93
4.56
4.13
3.67
3.26
2.97
2.83
2.81
2.85
2.86
2.77
2.58
2.29
1.90
1.37
0.69
-0.14
-1.08
-2.03
-2.93
-3.72
-4.41
-5.01
-5.56
-6.07
-6.60
-7.20
-7.97
-8.88
-9.79
-10.38
-10.29
-9.26
-7.25
-4.54
-1.58
1.16
3.33
4.77
5.48
5.55
5.11
4.30
3.31
2.35
1.60
1.17
1.04
1.16
1.45
1.88
2.45
3.15
3.93
4.67
5.23
5.52
5.53
5.36
5.10
4.85
4.60
4.33
3.98
3.57
3.13
2.67
2.17
1.54
0.68
-0.48
-1.89
-3.43
-4.92
-6.19
-7.14
-7.77
-8.13
-8.30
-8.34
-8.33
-8.34
-8.40
-8.48
-8.48
-8.20
-7.45
-6.13
-4.29
-2.14
0.01
1.88
3.30
4.22
4.68
4.75
4.54
4.14
3.67
3.28
3.07
3.08
3.25
3.47
3.64
3.74
3.81
3.96
4.24
4.62
5.00
5.23
5.21
4.93
4.44
3.86
3.25
2.69
2.15
1.65
1.20
0.79
0.44
0.14
-0.15
-0.47
-0.83
-1.19
-1.48
-1.63
-1.63
-1.56
-1.58
-1.82
-2.35
-3.12
-3.98
-4.78
-5.46
-6.04
-6.67
-7.45
-8.42
-9.52
-10.64
-11.65
-12.44
-12.91
-12.96
-12.47
-11.37
-9.63
-7.40
-4.91
-2.43
-0.23
1.49
2.64
3.23
3.36
3.20
2.93
2.68
2.49
2.32
2.09
1.78
1.45
1.22
1.17
1.28
1.43
1.40
1.05
0.33
-0.67
-1.78
-2.85
-3.79
-4.52
-5.03
-5.28
-5.22
-4.82
-4.12
-3.21
-2.32
-1.64
-1.33
-1.40
-1.72
-2.08
-2.32
-2.39
-2.34
-2.33
-2.52
-3.00
-3.83
-4.97
-6.38
-7.92
-9.40
-10.49
-10.88
-10.29
-8.64
-6.15
-3.25
-0.48
1.70
3.07
3.65
3.70
3.50
3.28
3.11
2.97
2.81
2.67
2.65
2.85
3.33
4.03
4.83
5.58
6.19
6.60
6.83
6.86
6.69
6.30
5.69
4.95
4.13
3.32
2.54
1.80
1.12
0.52
0.00
-0.44
-0.84
-1.28
-1.78
-2.35
-2.93
-3.46
-3.91
-4.32
-4.72
-5.17
-5.67
-6.20
-6.74
-7.27
-7.76
-8.24
-8.73
-9.29
-9.96
-10.76
-11.54
-12.08
-12.08
-11.27
-9.60
-7.24
-4.57
-2.07
-0.07
1.25
1.97
2.27
2.38
2.43
2.44
2.42
2.35
2.30
2.38
2.67
3.19
3.87
4.54
5.07
5.41
5.62
5.84
6.24
6.92
7.83
8.85
9.74
10.31
10.47
10.24
9.73
9.08
8.42
7.81
7.30
6.86
6.49
6.14
5.77
5.33
4.79
4.11
3.28
2.27
1.11
-0.18
-1.54
-2.86
-4.04
-4.95
-5.55
-5.82
-5.88
-5.95
-6.28
-7.08
-8.41
-10.15
-11.94
-13.31
-13.77
-13.02
-10.99
-7.95
-4.40
-0.92
1.92
3.83
4.79
5.02
4.90
4.77
4.88
5.30
5.97
6.74
7.48
8.05
8.39
8.49
8.41
8.27
8.21
8.32
8.60
8.97
9.30
9.44
9.31
8.92
8.36
7.77
7.29
7.00
6.89
6.91
6.99
7.05
7.06
7.05
7.01
6.94
6.77
6.44
5.89
5.12
4.22
3.32
2.56
2.01
1.62
1.30
0.92
0.39
-0.28
-1.05
-1.81
-2.49
-3.06
-3.52
-3.90
-4.24
-4.61
-5.10
-5.77
-6.67
-7.73
-8.76
-9.46
-9.55
-8.86
-7.46
-5.56
-3.52
-1.63
-0.07
1.13
2.05
2.77
3.35
3.78
4.02
4.09
4.01
3.90
3.86
3.98
4.29
4.74
5.24
5.71
6.11
6.45
6.77
7.05
7.22
7.19
6.84
6.14
5.17
4.06
2.92
1.88
0.97
0.21
-0.40
-0.87
-1.22
-1.46
-1.62
-1.69
-1.71
-1.72
-1.76
-1.91
-2.21
-2.69
-3.28
-3.90
-4.46
-4.90
-5.23
-5.49
-5.77
-6.19
-6.82
-7.69
-8.71
-9.64
-10.18
-10.03
-9.04
-7.27
-4.97
-2.54
-0.38
1.22
2.13
2.42
2.27
1.92
1.56
1.30
1.15
1.06
0.95
0.79
0.64
0.61
0.79
1.23
1.87
2.61
3.29
3.82
4.15
4.22
4.02
3.52
2.75
1.84
0.94
0.25
-0.11
-0.14
0.06
0.27
0.33
0.10
-0.38
-1.01
-1.62
-2.09
-2.38
-2.53
-2.59
-2.59
-2.49
-2.24
-1.85
-1.39
-1.00
-0.78
-0.76
-0.90
-1.10
-1.34
-1.63
-2.10
-2.81
-3.80
-4.99
-6.29
-7.57
-8.75
-9.72
-10.33
-10.39
-9.75
-8.35
-6.27
-3.73
-1.11
1.23
2.97
3.99
4.32
4.14
3.67
3.10
2.54
2.04
1.65
1.45
1.53
1.91
2.53
3.23
3.83
4.20
4.31
4.20
3.96
3.64
3.26
2.84
2.39
1.97
1.59
1.23
0.84
0.37
-0.20
-0.81
-1.39
-1.85
-2.13
-2.27
-2.34
-2.45
-2.72
-3.21
-3.89
-4.69
-5.48
-6.16
-6.63
-6.91
-7.06
-7.23
-7.56
-8.19
-9.15
-10.33
-11.47
-12.20
-12.19
-11.26
-9.49
-7.18
-4.74
-2.53
-0.76
0.50
1.29
1.67
1.71
1.48
1.12
0.78
0.58
0.58
0.75
1.01
1.29
1.56
1.84
2.13
2.43
2.70
2.94
3.17
3.46
3.84
4.24
4.56
4.66
4.45
3.96
3.30
2.64
2.10
1.72
1.44
1.18
0.84
0.41
-0.09
-0.57
-0.99
-1.31
-1.54
-1.75
-2.06
-2.55
-3.27
-4.18
-5.18
-6.10
-6.86
-7.41
-7.86
-8.38
-9.17
-10.35
-11.93
-13.81
-15.75
-17.47
-18.61
-18.88
-18.04
-16.05
-13.06
-9.45
-5.73
-2.35
0.36
2.27
3.44
4.01
4.17
4.11
4.01
4.06
4.45
5.28
6.55
8.16
9.94
11.69
13.28
14.62
15.68
16.48
17.09
17.60
18.15
18.83
19.68
20.61
21.48
22.18
22.65
22.95
23.13
23.17
22.90
22.05
20.40
17.83
14.50
10.72
6.90
3.35
0.27
-2.32
-4.49
-6.35
-8.04
-9.70
-11.41
-13.23
-15.15
-17.06
-18.89
-20.56
-22.07
-23.46
-24.81
-26.17
-27.58
-28.97
-30.21
-31.05
-31.16
-30.22
-28.00
-24.53
-20.09
-15.15
-10.28
-5.96
-2.47
0.15
2.01
3.33
4.30
5.08
5.74
6.29
6.70
6.95
7.06
7.11
7.22
7.51
8.04
8.82
9.75
10.70
11.52
12.08
12.29
12.10
11.50
10.55
9.35
8.09
6.97
6.14
5.65
5.42
5.30
5.11
4.78
4.30
3.74
3.19
2.67
2.15
1.62
1.03
0.37
-0.36
-1.16
-1.99
-2.82
-3.57
-4.22
-4.86
-5.67
-6.85
-8.46
-10.30
-11.92
-12.74
-12.31
-10.48
-7.48
-3.76
0.10
3.64
6.56
8.73
10.20
11.06
11.44
11.44
11.20
10.79
10.33
9.89
9.59
9.49
9.62
9.97
10.45
10.98
11.49
11.92
12.21
12.35
12.32
12.16
11.89
11.55
11.12
10.56
9.84
8.97
8.02
7.13
6.39
5.81
5.35
4.89
4.38
3.81
3.25
2.76
2.36
1.97
1.48
0.76
-0.24
-1.45
-2.72
-3.86
-4.73
-5.31
-5.71
-6.13
-6.79
-7.79
-9.14
-10.71
-12.28
-13.55
-14.22
-13.99
-12.69
-10.31
-7.10
-3.48
0.04
3.03
5.28
6.77
7.68
8.20
8.48
8.61
8.57
8.41
8.18
7.98
7.91
7.96
8.10
8.22
8.26
8.25
8.26
8.40
8.72
9.12
9.46
9.55
9.28
8.65
7.79
6.82
5.89
5.09
4.47
4.01
3.70
3.48
3.29
3.08
2.80
2.43
1.98
1.49
1.01
0.60
0.26
-0.03
-0.32
-0.68
-1.14
-1.73
-2.42
-3.20
-4.00
-4.77
-5.46
-6.04
-6.57
-7.10
-7.70
-8.42
-9.23
-10.12
-11.04
-11.91
-12.57
-12.80
-12.32
-10.95
-8.72
-5.89
-2.91
-0.26
1.77
3.09
3.81
4.10
4.12
3.94
3.58
3.08
2.50
1.94
1.51
1.30
1.33
1.59
1.99
2.43
2.82
3.10
3.27
3.35
3.39
3.41
3.41
3.34
3.16
2.84
2.37
1.80
1.18
0.57
-0.01
-0.57
-1.13
-1.71
-2.26
-2.73
-3.07
-3.31
-3.50
-3.73
-4.06
-4.51
-5.05
-5.62
-6.15
-6.58
-6.91
-7.14
-7.34
-7.56
-7.83
-8.20
-8.68
-9.29
-10.05
-10.95
-11.89
-12.66
-12.97
-12.50
-11.08
-8.78
-5.90
-2.94
-0.38
1.47
2.56
3.08
3.31
3.46
3.60
3.67
3.55
3.24
2.84
2.51
2.38
2.45
2.65
2.87
3.10
3.37
3.78
4.31
4.86
5.27
5.37
5.12
4.59
3.92
3.25
2.69
2.24
1.87
1.53
1.17
0.81
0.48
0.24
0.13
0.15
0.27
0.43
0.57
0.67
0.70
0.67
0.57
0.38
0.08
-0.34
-0.87
-1.49
-2.18
-2.90
-3.64
-4.35
-5.04
-5.75
-6.58
-7.61
-8.94
-10.57
-12.36
-14.06
-15.30
-15.75
-15.22
-13.71
-11.45
-8.76
-5.96
-3.30
-0.91
1.13
2.73
3.80
4.31
4.34
4.06
3.73
3.53
3.52
3.63
3.77
3.87
3.97
4.17
4.53
5.08
5.75
6.42
7.01
7.41
7.56
7.39
6.88
6.03
4.95
3.78
2.68
1.75
1.02
0.43
-0.07
-0.55
-1.02
-1.45
-1.82
-2.13
-2.42
-2.78
-3.29
-3.99
-4.87
-5.84
-6.78
-7.58
-8.21
-8.72
-9.24
-9.92
-10.87
-12.14
-13.62
-15.13
-16.42
-17.26
-17.45
-16.91
-15.61
-13.66
-11.20
-8.44
-5.60
-2.88
-0.44
1.59
3.16
4.23
4.82
4.99
4.85
4.52
4.14
3.83
3.68
3.73
3.97
4.39
4.94
5.57
6.23
6.89
7.55
8.17
8.70
9.01
8.97
8.49
7.54
6.23
4.77
3.43
2.43
1.87
1.72
1.76
1.73
1.43
0.80
-0.08
-1.02
-1.86
-2.52
-3.05
-3.53
-4.05
-4.66
-5.34
-6.07
-6.83
-7.59
-8.36
-9.17
-10.08
-11.23
-12.75
-14.67
-16.82
-18.79
-20.05
-20.10
-18.67
-15.81
-11.93
-7.63
-3.48
0.07
2.82
4.76
6.02
6.76
7.13
7.24
7.19
7.03
6.85
6.67
6.56
6.57
6.78
7.27
8.09
9.20
10.46
11.66
12.59
13.12
13.22
12.95
12.38
11.58
10.57
9.40
8.14
6.93
5.87
5.01
4.31
3.69
3.04
2.34
1.61
0.86
0.12
-0.63
-1.39
-2.11
-2.77
-3.33
-3.87
-4.50
-5.30
-6.29
-7.40
-8.53
-9.60
-10.60
-11.53
-12.42
-13.25
-14.06
-14.96
-16.14
-17.81
-19.99
-22.41
-24.49
-25.56
-25.08
-22.90
-19.27
-14.72
-9.89
-5.22
-0.94
2.96
6.55
9.93
13.09
15.98
18.54
20.75
22.68
24.37
25.84
27.08
27.98
28.45
28.45
28.06
27.38
26.59
25.78
24.94
23.95
22.66
21.00
19.04
16.98
15.05
13.44
12.22
11.26
10.38
9.38
8.18
6.84
5.51
4.35
3.46
2.80
2.25
1.65
0.87
-0.14
-1.34
-2.65
-3.97
-5.22
-6.34
-7.33
-8.17
-8.90
-9.56
-10.25
-11.10
-12.20
-13.58
-15.12
-16.50
-17.29
-17.06
-15.56
-12.85
-9.29
-5.45
-1.91
0.93
2.93
4.20
4.97
5.50
5.94
6.35
6.73
7.04
7.25
7.38
7.45
7.44
7.37
7.26
7.21
7.39
7.91
8.77
9.80
10.65
11.00
10.65
9.62
8.16
6.59
5.17
3.99
3.02
2.14
1.31
0.55
-0.04
-0.38
-0.45
-0.32
-0.10
0.12
0.34
0.60
0.95
1.44
2.01
2.56
3.00
3.25
3.31
3.22
3.06
2.86
2.66
2.48
2.31
2.13
1.91
1.60
1.16
0.56
-0.19
-1.06
-1.96
-2.73
-3.18
-3.11
-2.40
-1.06
0.77
2.79
4.70
6.20
7.18
7.64
7.71
7.56
7.28
6.91
6.40
5.72
4.88
3.98
3.15
2.45
1.88
1.31
0.62
-0.28
-1.36
-2.51
-3.60
-4.55
-5.30
-5.82
-6.06
-5.98
-5.56
-4.88
-4.09
-3.42
-3.08
-3.22
-3.81
-4.73
-5.74
-6.65
-7.34
-7.78
-8.06
-8.28
-8.55
-8.87
-9.21
-9.45
-9.51
-9.34
-8.98
-8.57
-8.27
-8.26
-8.62
-9.35
-10.30
-11.21
-11.78
-11.75
-10.97
-9.46
-7.38
-5.00
-2.61
-0.43
1.38
2.77
3.69
4.17
4.23
4.01
3.66
3.39
3.36
3.59
4.02
4.51
4.95
5.30
5.58
5.90
6.33
6.88
7.50
8.08
8.53
8.79
8.88
8.84
8.72
8.58
8.47
8.40
8.38
8.35
8.27
8.06
7.67
7.09
6.31
5.33
4.17
2.81
1.27
-0.38
-2.05
-3.63
-5.00
-6.08
-6.83
-7.25
-7.41
-7.43
-7.43
-7.54
-7.83
-8.27
-8.73
-9.09
-9.29
-9.37
-9.49
-9.85
-10.60
-11.76
-13.16
-14.48
-15.36
-15.52
-14.81
-13.30
-11.19
-8.78
-6.33
-4.05
-2.09
-0.54
0.53
1.10
1.21
0.98
0.59
0.28
0.24
0.58
1.27
2.21
3.24
4.20
4.99
5.60
6.09
6.52
6.95
7.38
7.76
8.03
8.15
8.07
7.82
7.42
6.95
6.46
6.04
5.72
5.49
5.26
4.96
4.54
3.97
3.31
2.61
1.89
1.14
0.35
-0.48
-1.26
-1.90
-2.40
-2.85
-3.42
-4.27
-5.45
-6.81
-8.12
-9.15
-9.83
-10.26
-10.69
-11.36
-12.43
-13.88
-15.49
-16.89
-17.64
-17.39
-15.98
-13.52
-10.36
-6.95
-3.72
-0.96
1.26
2.93
4.12
4.89
5.31
5.47
5.53
5.64
5.89
6.25
6.62
6.87
6.96
6.94
6.92
7.01
7.26
7.65
8.13
8.63
9.09
9.44
9.60
9.47
9.03
8.30
7.41
6.47
5.62
4.86
4.17
3.51
2.87
2.32
1.90
1.63
1.42
1.16
0.72
0.09
-0.69
-1.51
-2.26
-2.86
-3.26
-3.43
-3.40
-3.21
-2.99
-2.92
-3.20
-3.92
-5.01
-6.25
-7.36
-8.16
-8.59
-8.79
-8.96
-9.32
-10.02
-11.07
-12.35
-13.59
-14.47
-14.66
-13.97
-12.37
-10.03
-7.27
-4.41
-1.77
0.48
2.24
3.53
4.39
4.90
5.18
5.30
5.30
5.22
5.08
4.90
4.74
4.65
4.65
4.72
4.83
4.99
5.20
5.53
6.00
6.58
7.14
7.55
7.64
7.36
6.76
5.97
5.13
4.34
3.64
3.02
2.42
1.81
1.15
0.49
-0.15
-0.74
-1.25
-1.71
-2.19
-2.74
-3.35
-4.03
-4.67
-5.23
-5.65
-5.98
-6.27
-6.63
-7.11
-7.77
-8.64
-9.71
-10.96
-12.29
-13.59
-14.66
-15.30
-15.39
-14.86
-13.76
-12.26
-10.59
-8.98
-7.58
-6.49
-5.68
-5.07
-4.60
-4.19
-3.87
-3.66
-3.57
-3.59
-3.65
-3.63
-3.44
-2.98
-2.22
-1.11
0.30
1.93
3.65
5.28
6.64
7.61
8.16
8.39
8.43
8.38
8.15
7.46
5.97
3.65
1.15
-0.08
1.87
8.72
21.17
38.49
58.57
78.57
95.53
106.80
110.27
104.57
89.47
66.39
38.61
10.64
-12.94
-29.09
-37.15
-38.83
-37.02
-34.43
-32.60
-31.78
-31.54
-31.49
-31.65
-32.34
-33.79
-35.84
-37.95
-39.44
-39.74
-38.62
-36.23
-32.96
-29.28
-25.54
-21.94
-18.48
-15.10
-11.80
-8.72
-6.10
-4.22
-3.20
-2.92
-3.07
-3.21
-3.00
-2.29
-1.16
0.13
1.26
2.06
2.54
2.87
3.30
4.01
5.06
6.30
7.50
8.42
8.92
8.97
8.68
8.18
7.66
7.20
6.84
6.52
6.18
5.76
5.27
4.75
4.25
3.79
3.38
2.99
2.60
2.20
1.82
1.41
0.96
0.41
-0.25
-0.98
-1.74
-2.48
-3.23
-4.04
-4.97
-6.03
-7.16
-8.28
-9.32
-10.28
-11.24
-12.28
-13.51
-14.98
-16.70
-18.54
-20.21
-21.33
-21.49
-20.40
-18.02
-14.61
-10.63
-6.62
-3.00
-0.04
2.18
3.71
4.68
5.21
5.45
5.48
5.39
5.18
4.89
4.57
4.30
4.19
4.32
4.69
5.24
5.85
6.44
6.98
7.49
8.00
8.48
8.87
9.05
8.96
8.55
7.89
7.09
6.22
5.33
4.40
3.39
2.34
1.31
0.40
-0.31
-0.84
-1.24
-1.61
-1.95
-2.26
-2.53
-2.77
-3.08
-3.56
-4.24
-5.10
-6.01
-6.84
-7.55
-8.20
-8.91
-9.86
-11.17
-12.82
-14.60
-16.15
-17.03
-16.85
-15.44
-12.91
-9.66
-6.19
-2.96
-0.23
1.97
3.71
5.09
6.14
6.88
7.31
7.48
7.49
7.44
7.41
7.43
7.50
7.67
7.98
8.50
9.23
10.11
11.02
11.79
12.29
12.47
12.32
11.90
11.26
10.43
9.45
8.40
7.36
6.45
5.72
5.17
4.70
4.19
3.57
2.83
2.02
1.20
0.43
-0.31
-1.03
-1.74
-2.39
-2.99
-3.55
-4.16
-4.92
-5.87
-6.97
-8.12
-9.23
-10.27
-11.30
-12.44
-13.84
-15.57
-17.54
-19.47
-20.94
-21.48
-20.77
-18.73
-15.57
-11.71
-7.67
-3.87
-0.61
2.00
3.96
5.36
6.29
6.91
7.34
7.69
7.98
8.21
8.37
8.50
8.67
8.97
9.46
10.11
10.89
11.72
12.56
13.42
14.22
14.88
15.22
15.13
14.55
13.56
12.35
11.11
10.01
9.09
8.32
7.68
7.15
6.71
6.37
6.06
5.66
5.05
4.20
3.16
2.10
1.20
0.58
0.18
-0.13
-0.56
-1.29
-2.34
-3.62
-4.98
-6.25
-7.31
-8.17
-8.91
-9.70
-10.70
-12.07
-13.86
-15.99
-18.22
-20.20
-21.49
-21.71
-20.61
-18.19
-14.72
-10.62
-6.40
-2.52
0.74
3.31
5.24
6.68
7.74
8.51
8.99
9.19
9.17
9.06
9.06
9.33
9.91
10.71
11.51
12.12
12.41
12.41
12.32
12.32
12.53
12.92
13.30
13.43
13.16
12.49
11.58
10.64
9.87
9.33
8.92
8.53
8.04
7.44
6.78
6.15
5.58
5.03
4.38
3.59
2.68
1.78
1.06
0.62
0.42
0.31
0.07
-0.46
-1.35
-2.53
-3.84
-5.14
-6.33
-7.39
-8.36
-9.32
-10.32
-11.44
-12.75
-14.30
-16.08
-17.90
-19.46
-20.34
-20.15
-18.66
-15.93
-12.24
-8.06
-3.87
-0.06
3.12
5.58
7.36
8.57
9.30
9.64
9.63
9.35
8.90
8.44
8.15
8.14
8.46
9.01
9.69
10.40
11.11
11.83
12.57
13.28
13.82
14.01
13.75
13.04
12.02
10.87
9.78
8.85
8.11
7.51
6.98
6.43
5.86
5.26
4.66
4.07
3.46
2.79
2.04
1.22
0.37
-0.45
-1.20
-1.88
-2.51
-3.09
-3.63
-4.13
-4.59
-5.03
-5.46
-5.91
-6.39
-6.92
-7.50
-8.13
-8.84
-9.67
-10.71
-12.04
-13.71
-15.58
-17.34
-18.54
-18.68
-17.50
-15.01
-11.56
-7.72
-4.03
-0.85
1.65
3.47
4.66
5.32
5.52
5.39
5.10
4.85
4.78
4.98
5.42
5.98
6.55
7.01
7.33
7.54
7.68
7.82
8.00
8.22
8.44
8.56
8.46
8.07
7.36
6.43
5.44
4.56
3.95
3.67
3.62
3.61
3.44
2.97
2.20
1.24
0.25
-0.59
-1.20
-1.57
-1.76
-1.87
-2.00
-2.23
-2.61
-3.18
-3.90
-4.70
-5.49
-6.16
-6.67
-7.04
-7.39
-7.87
-8.60
-9.57
-10.64
-11.50
-11.81
-11.31
-9.90
-7.69
-5.00
-2.20
0.35
2.44
3.97
4.98
5.57
5.85
5.89
5.75
5.49
5.14
4.76
4.45
4.28
4.31
4.57
4.97
5.43
5.85
6.19
6.48
6.75
6.98
7.11
7.03
6.67
6.06
5.29
4.48
3.74
3.10
2.54
2.05
1.64
1.33
1.14
1.00
0.82
0.50
-0.02
-0.71
-1.46
-2.14
-2.65
-2.99
-3.19
-3.37
-3.61
-3.97
-4.44
-4.97
-5.52
-6.07
-6.63
-7.21
-7.84
-8.50
-9.19
-9.91
-10.71
-11.62
-12.63
-13.62
-14.33
-14.45
-13.71
-12.00
-9.47
-6.47
-3.46
-0.85
1.12
2.41
3.15
3.56
3.81
3.99
4.11
4.16
4.14
4.09
4.07
4.11
4.20
4.31
4.47
4.71
5.11
5.67
6.34
6.97
7.39
7.52
7.35
6.94
6.38
5.76
5.13
4.52
3.98
3.52
3.13
2.76
2.39
2.04
1.73
1.53
1.44
1.43
1.43
1.35
1.13
0.76
0.27
-0.32
-0.97
-1.64
-2.33
-3.01
-3.70
-4.36
-4.96
-5.48
-5.89
-6.22
-6.53
-6.89
-7.33
-7.82
-8.36
-8.95
-9.63
-10.47
-11.49
-12.59
-13.53
-14.00
-13.72
-12.54
-10.52
-7.90
-5.03
-2.27
0.09
1.89
3.09
3.72
3.90
3.77
3.50
3.24
3.05
2.94
2.86
2.82
2.84
3.02
3.45
4.10
4.86
5.54
5.99
6.16
6.11
5.96
5.78
5.56
5.23
4.77
4.19
3.60
3.14
2.85
2.73
2.68
2.60
2.43
2.16
1.83
1.45
1.02
0.51
-0.09
-0.71
-1.27
-1.69
-1.96
-2.15
-2.39
-2.81
-3.46
-4.34
-5.34
-6.37
-7.32
-8.15
-8.84
-9.42
-9.89
-10.26
-10.54
-10.76
-11.00
-11.36
-11.89
-12.55
-13.16
-13.40
-12.95
-11.60
-9.37
-6.52
-3.45
-0.56
1.82
3.57
4.71
5.34
5.56
5.47
5.13
4.62
4.00
3.39
2.91
2.65
2.67
2.95
3.44
4.04
4.69
5.32
5.90
6.42
6.85
7.18
7.38
7.42
7.28
6.95
6.42
5.71
4.87
3.96
3.08
2.31
1.73
1.32
1.03
0.76
0.39
-0.10
-0.69
-1.27
-1.73
-2.01
-2.11
-2.15
-2.23
-2.49
-2.95
-3.60
-4.36
-5.14
-5.90
-6.64
-7.40
-8.26
-9.28
-10.47
-11.79
-13.13
-14.34
-15.20
-15.46
-14.93
-13.50
-11.18
-8.19
-4.82
-1.47
1.53
3.92
5.56
6.46
6.71
6.51
6.08
5.62
5.29
5.17
5.26
5.53
5.91
6.37
6.82
7.21
7.49
7.66
7.77
7.92
8.16
8.46
8.73
8.82
8.65
8.27
7.78
7.34
7.06
6.94
6.92
6.87
6.73
6.47
6.12
5.75
5.42
5.15
4.89
4.57
4.06
3.30
2.31
1.16
-0.01
-1.11
-2.11
-3.08
-4.07
-5.14
-6.22
-7.24
-8.08
-8.72
-9.22
-9.69
-10.28
-11.09
-12.17
-13.49
-14.94
-16.31
-17.32
-17.67
-17.10
-15.50
-12.95
-9.75
-6.32
-3.09
-0.42
1.51
2.70
3.31
3.57
3.69
3.81
3.93
4.02
4.06
4.06
4.15
4.48
5.13
6.04
7.07
8.03
8.78
9.29
9.60
9.78
9.82
9.67
9.23
8.48
7.52
6.48
5.55
4.82
4.27
3.84
3.44
3.03
2.64
2.29
1.94
1.54
1.02
0.38
-0.35
-1.04
-1.62
-2.08
-2.50
-2.96
-3.51
-4.12
-4.74
-5.32
-5.86
-6.39
-6.95
-7.53
-8.17
-8.88
-9.73
-10.74
-11.87
-12.97
-13.84
-14.24
-13.98
-12.95
-11.15
-8.67
-5.66
-2.41
0.75
3.47
5.50
6.74
7.26
7.25
6.95
6.59
6.31
6.19
6.27
6.52
6.91
7.39
7.90
8.38
8.78
9.09
9.35
9.59
9.85
10.14
10.39
10.50
10.37
9.89
9.07
8.01
6.89
5.84
4.97
4.27
3.67
3.10
2.51
1.92
1.36
0.86
0.39
-0.08
-0.59
-1.13
-1.62
-2.00
-2.23
-2.38
-2.57
-2.92
-3.52
-4.36
-5.36
-6.39
-7.35
-8.26
-9.21
-10.33
-11.67
-13.09
-14.28
-14.83
-14.42
-12.94
-10.54
-7.54
-4.32
-1.24
1.47
3.66
5.23
6.14
6.46
6.35
6.02
5.71
5.53
5.50
5.56
5.64
5.73
5.90
6.22
6.70
7.31
7.93
8.48
8.88
9.13
9.23
9.17
8.93
8.49
7.86
7.09
6.30
5.63
5.16
4.90
4.78
4.65
4.37
3.90
3.25
2.56
1.99
1.66
1.58
1.68
1.77
1.66
1.20
0.34
-0.88
-2.34
-3.87
-5.32
-6.58
-7.58
-8.33
-8.88
-9.33
-9.83
-10.57
-11.64
-13.02
-14.50
-15.73
-16.30
-15.89
-14.36
-11.87
-8.76
-5.46
-2.41
0.13
2.02
3.27
3.99
4.33
4.46
4.50
4.52
4.53
4.53
4.54
4.61
4.78
5.07
5.45
5.83
6.15
6.40
6.59
6.77
6.91
6.96
6.82
6.43
5.80
5.02
4.21
3.53
3.04
2.75
2.60
2.49
2.30
1.99
1.61
1.24
1.00
0.93
0.92
0.78
0.33
-0.49
-1.61
-2.82
-3.89
-4.70
-5.27
-5.71
-6.16
-6.70
-7.33
-8.03
-8.78
-9.61
-10.52
-11.47
-12.27
-12.66
-12.35
-11.17
-9.15
-6.51
-3.66
-1.02
1.04
2.40
3.12
3.38
3.42
3.39
3.32
3.20
2.98
2.69
2.45
2.40
2.64
3.16
3.87
4.62
5.27
5.77
6.09
6.23
6.25
6.15
5.99
5.78
5.50
5.12
4.59
3.93
3.23
2.58
2.07
1.70
1.42
1.14
0.82
0.49
0.19
-0.02
-0.19
-0.40
-0.78
-1.36
-2.10
-2.89
-3.61
-4.22
-4.71
-5.13
-5.54
-5.95
-6.36
-6.77
-7.16
-7.60
-8.17
-8.92
-9.85
-10.90
-11.86
-12.51
-12.60
-11.96
-10.54
-8.47
-5.99
-3.43
-1.08
0.86
2.30
3.27
3.86
4.22
4.48
4.76
5.16
5.70
6.40
7.28
8.32
9.52
10.84
12.21
13.53
14.70
15.64
16.30
16.66
16.72
16.54
16.17
15.70
15.18
14.69
14.24
13.81
13.36
12.86
12.30
11.68
10.98
10.17
9.20
8.07
6.76
5.31
3.80
2.29
0.84
-0.53
-1.84
-3.10
-4.33
-5.53
-6.65
-7.63
-8.43
-9.09
-9.70
-10.40
-11.28
-12.37
-13.56
-14.74
-15.73
-16.50
-17.08
-17.65
-18.35
-19.22
-20.13
-20.75
-20.71
-19.69
-17.64
-14.74
-11.38
-8.01
-5.06
-2.79
-1.25
-0.37
0.03
0.16
0.17
0.13
0.01
-0.20
-0.51
-0.84
-1.04
-0.97
-0.57
0.09
0.85
1.53
2.04
2.39
2.66
2.90
3.12
3.26
3.25
3.06
2.72
2.32
1.95
1.69
1.53
1.45
1.40
1.33
1.24
1.12
0.97
0.78
0.54
0.30
0.08
-0.06
-0.08
-0.04
0.00
-0.08
-0.38
-0.93
-1.70
-2.58
-3.46
-4.31
-5.13
-6.01
-7.02
-8.18
-9.44
-10.63
-11.49
-11.73
-11.18
-9.80
-7.75
-5.31
-2.80
-0.46
1.60
3.31
4.69
5.72
6.38
6.66
6.56
6.14
5.53
4.82
4.13
3.57
3.20
3.11
3.30
3.74
4.35
5.01
5.62
6.11
6.45
6.60
6.51
6.17
5.57
4.79
3.93
3.16
2.59
2.28
2.17
2.15
2.07
1.81
1.38
0.81
0.23
-0.27
-0.62
-0.82
-0.91
-1.00
-1.21
-1.68
-2.48
-3.60
-4.91
-6.19
-7.24
-7.94
-8.31
-8.53
-8.82
-9.39
-10.35
-11.65
-13.08
-14.30
-14.93
-14.61
-13.20
-10.76
-7.63
-4.25
-1.09
1.52
3.42
4.63
5.24
5.41
5.26
4.95
4.63
4.45
4.51
4.83
5.37
6.04
6.73
7.36
7.89
8.31
8.64
8.89
9.08
9.21
9.23
9.08
8.73
8.20
7.55
6.89
6.29
5.80
5.42
5.06
4.65
4.14
3.54
2.88
2.24
1.65
1.11
0.59
0.02
-0.61
-1.28
-1.93
-2.51
-3.02
-3.51
-4.06
-4.76
-5.59
-6.46
-7.24
-7.86
-8.32
-8.75
-9.33
-10.20
-11.41
-12.92
-14.54
-15.99
-16.92
-17.00
-15.99
-13.85
-10.77
-7.15
-3.46
-0.10
2.66
4.72
6.13
6.97
7.35
7.36
7.10
6.68
6.17
5.63
5.10
4.63
4.26
4.05
4.04
4.22
4.55
4.93
5.26
5.44
5.42
5.16
4.72
4.20
3.73
3.40
3.26
3.27
3.32
3.31
3.13
2.76
2.22
1.58
0.91
0.26
-0.33
-0.89
-1.46
-2.13
-2.93
-3.85
-4.79
-5.63
-6.26
-6.67
-6.92
-7.20
-7.71
-8.61
-9.95
-11.62
-13.32
-14.62
-15.08
-14.40
-12.50
-9.63
-6.24
-2.84
0.19
2.65
4.58
6.09
7.32
8.31
9.04
9.48
9.71
9.86
10.15
10.70
11.54
12.57
13.61
14.53
15.27
15.85
16.36
16.82
17.18
17.35
17.21
16.74
15.96
14.98
13.84
12.59
11.20
9.68
8.09
6.54
5.16
4.04
3.23
2.65
2.20
1.78
1.33
0.87
0.47
0.15
-0.14
-0.51
-1.11
-2.02
-3.22
-4.60
-5.97
-7.24
-8.37
-9.47
-10.67
-12.04
-13.62
-15.32
-17.03
-18.59
-19.82
-20.45
-20.20
-18.83
-16.28
-12.76
-8.69
-4.63
-1.07
1.70
3.62
4.81
5.44
5.67
5.60
5.33
4.94
4.57
4.33
4.28
4.39
4.55
4.62
4.50
4.17
3.74
3.36
3.17
3.25
3.56
3.98
4.35
4.56
4.57
4.47
4.37
4.38
4.59
4.96
5.41
5.78
5.97
5.92
5.68
5.31
4.91
4.48
3.99
3.38
2.64
1.83
1.05
0.42
-0.01
-0.24
-0.35
-0.46
-0.69
-1.12
-1.78
-2.62
-3.51
-4.33
-4.96
-5.34
-5.52
-5.65
-5.94
-6.60
-7.73
-9.30
-11.03
-12.49
-13.18
-12.77
-11.13
-8.47
-5.22
-1.89
1.10
3.52
5.31
6.53
7.28
7.63
7.65
7.38
6.92
6.36
5.83
5.42
5.20
5.17
5.29
5.55
5.92
6.40
6.97
7.59
8.17
8.57
8.67
8.40
7.78
6.96
6.10
5.32
4.66
4.09
3.57
3.11
2.78
2.64
2.69
2.81
2.82
2.53
1.89
0.99
0.03
-0.78
-1.37
-1.80
-2.24
-2.87
-3.76
-4.84
-5.98
-6.99
-7.76
-8.26
-8.55
-8.76
-9.00
-9.37
-9.90
-10.60
-11.50
-12.54
-13.62
-14.50
-14.83
-14.28
-12.65
-10.01
-6.71
-3.25
-0.12
2.35
4.06
5.10
5.62
5.72
5.47
4.95
4.26
3.55
2.96
2.61
2.55
2.74
3.16
3.73
4.38
5.01
5.52
5.83
5.93
5.83
5.60
5.27
4.86
4.36
3.77
3.15
2.57
2.09
1.73
1.47
1.25
1.02
0.78
0.54
0.37
0.28
0.27
0.28
0.26
0.14
-0.15
-0.63
-1.28
-2.03
-2.80
-3.53
-4.21
-4.87
-5.56
-6.28
-7.00
-7.63
-8.08
-8.35
-8.50
-8.67
-9.01
-9.64
-10.58
-11.73
-12.87
-13.69
-13.83
-13.08
-11.37
-8.91
-6.05
-3.24
-0.83
0.98
2.17
2.83
3.11
3.18
3.16
3.11
3.07
3.03
2.99
2.98
3.05
3.22
3.52
3.91
4.35
4.78
5.18
5.60
6.03
6.42
6.64
6.52
5.99
5.12
4.13
3.26
2.70
2.51
2.57
2.70
2.72
2.55
2.18
1.71
1.23
0.84
0.58
0.49
0.50
0.53
0.41
0.03
-0.66
-1.61
-2.66
-3.65
-4.44
-5.04
-5.54
-6.15
-7.01
-8.15
-9.42
-10.52
-11.12
-10.95
-9.92
-8.13
-5.83
-3.31
-0.84
1.40
3.32
4.87
5.98
6.62
6.79
6.55
6.02
5.38
4.80
4.42
4.31
4.49
4.95
5.65
6.54
7.51
8.38
9.01
9.33
9.39
9.32
9.25
9.25
9.26
9.15
8.83
8.28
7.60
6.95
6.43
6.09
5.87
5.68
5.41
4.96
4.31
3.47
2.51
1.51
0.51
-0.46
-1.41
-2.34
-3.23
-4.05
-4.76
-5.37
-5.91
-6.44
-7.01
-7.59
-8.14
-8.62
-9.02
-9.40
-9.88
-10.56
-11.47
-12.48
-13.29
-13.58
-13.03
-11.54
-9.22
-6.40
-3.48
-0.83
1.33
2.91
3.94
4.45
4.52
4.25
3.75
3.17
2.66
2.30
2.13
2.13
2.25
2.43
2.65
2.92
3.25
3.64
4.07
4.49
4.87
5.15
5.32
5.37
5.28
5.05
4.66
4.15
3.57
2.95
2.32
1.69
1.04
0.38
-0.25
-0.78
-1.16
-1.39
-1.52
-1.62
-1.77
-1.99
-2.28
-2.65
-3.08
-3.60
-4.22
-4.93
-5.67
-6.33
-6.82
-7.04
-7.02
-6.91
-6.95
-7.42
-8.40
-9.77
-11.13
-11.95
-11.76
-10.37
-7.92
-4.83
-1.62
1.27
3.58
5.23
6.28
6.81
6.91
6.69
6.28
5.86
5.60
5.56
5.74
6.00
6.23
6.33
6.31
6.23
6.15
6.11
6.07
6.01
5.88
5.68
5.43
5.14
4.82
4.44
3.99
3.51
3.05
2.68
2.43
2.30
2.24
2.21
2.16
2.06
1.88
1.62
1.28
0.91
0.54
0.20
-0.12
-0.49
-0.99
-1.69
-2.59
-3.65
-4.74
-5.76
-6.64
-7.37
-8.00
-8.60
-9.23
-9.96
-10.82
-11.86
-13.08
-14.41
-15.63
-16.38
-16.30
-15.09
-12.73
-9.51
-5.97
-2.66
-0.03
1.79
2.86
3.46
3.81
4.09
4.34
4.53
4.63
4.69
4.77
4.97
5.34
5.85
6.42
6.94
7.36
7.70
8.00
8.32
8.65
8.92
8.99
8.80
8.34
7.68
6.95
6.25
5.68
5.27
5.04
4.96
4.97
5.00
4.96
4.81
4.56
4.24
3.91
3.60
3.29
2.92
2.43
1.79
1.03
0.25
-0.47
-1.04
-1.47
-1.83
-2.23
-2.77
-3.52
-4.47
-5.51
-6.50
-7.31
-7.91
-8.33
-8.72
-9.21
-9.95
-11.00
-12.35
-13.88
-15.36
-16.47
-16.85
-16.19
-14.39
-11.60
-8.18
-4.67
-1.54
0.89
2.50
3.35
3.62
3.50
3.18
2.81
2.52
2.42
2.57
2.98
3.61
4.38
5.19
5.94
6.57
7.04
7.33
7.49
7.52
7.44
7.25
6.93
6.46
5.85
5.13
4.32
3.47
2.62
1.85
1.22
0.80
0.60
0.57
0.64
0.70
0.70
0.65
0.53
0.37
0.15
-0.13
-0.47
-0.86
-1.28
-1.73
-2.27
-2.96
-3.86
-4.91
-5.99
-6.95
-7.70
-8.19
-8.47
-8.67
-8.94
-9.42
-10.21
-11.28
-12.44
-13.32
-13.49
-12.58
-10.52
-7.55
-4.18
-0.98
1.63
3.49
4.68
5.37
5.73
5.84
5.69
5.27
4.61
3.86
3.19
2.81
2.81
3.21
3.89
4.69
5.47
6.16
6.75
7.31
7.88
8.42
8.79
8.87
8.56
7.90
7.06
6.23
5.54
5.04
4.68
4.36
4.02
3.67
3.34
3.09
2.90
2.71
2.45
2.03
1.46
0.77
0.00
-0.78
-1.58
-2.39
-3.21
-4.03
-4.84
-5.59
-6.26
-6.81
-7.25
-7.57
-7.82
-8.03
-8.32
-8.81
-9.61
-10.74
-12.10
-13.40
-14.28
-14.36
-13.43
-11.48
-8.72
-5.55
-2.44
0.23
2.24
3.54
4.25
4.55
4.60
4.52
4.36
4.13
3.89
3.74
3.79
4.11
4.67
5.38
6.09
6.70
7.20
7.61
8.00
8.40
8.75
8.95
8.91
8.54
7.86
6.96
5.94
4.92
3.97
3.12
2.37
1.78
1.39
1.24
1.36
1.63
1.88
1.94
1.70
1.18
0.50
-0.17
-0.67
-1.00
-1.23
-1.50
-1.95
-2.64
-3.57
-4.66
-5.80
-6.88
-7.81
-8.55
-9.16
-9.69
-10.26
-10.97
-11.88
-12.95
-14.07
-15.03
-15.51
-15.21
-13.91
-11.59
-8.48
-4.99
-1.60
1.25
3.36
4.71
5.45
5.78
5.83
5.69
5.36
4.89
4.34
3.86
3.58
3.62
3.99
4.64
5.42
6.20
6.90
7.50
8.01
8.49
8.91
9.20
9.26
9.01
8.47
7.72
6.94
6.22
5.65
5.17
4.72
4.23
3.72
3.23
2.81
2.48
2.20
1.89
1.52
1.11
0.73
0.45
0.26
0.08
-0.23
-0.83
-1.79
-3.09
-4.57
-6.04
-7.29
-8.23
-8.94
-9.59
-10.44
-11.69
-13.36
-15.27
-16.98
-18.02
-17.99
-16.73
-14.34
-11.20
-7.75
-4.41
-1.44
1.05
3.02
4.47
5.40
5.80
5.76
5.44
5.08
4.91
5.05
5.50
6.13
6.80
7.42
7.98
8.52
9.13
9.81
10.54
11.22
11.71
11.88
11.66
11.04
10.07
8.88
7.58
6.28
5.06
3.96
3.02
2.27
1.75
1.46
1.36
1.40
1.51
1.62
1.64
1.52
1.23
0.80
0.28
-0.24
-0.72
-1.13
-1.53
-2.02
-2.67
-3.49
-4.43
-5.41
-6.34
-7.20
-7.97
-8.68
-9.36
-10.06
-10.85
-11.84
-13.09
-14.56
-16.03
-17.14
-17.43
-16.61
-14.61
-11.68
-8.28
-4.90
-1.90
0.51
2.32
3.58
4.36
4.74
4.81
4.72
4.61
4.60
4.74
5.02
5.40
5.87
6.43
7.11
7.89
8.69
9.41
9.91
10.15
10.09
9.77
9.21
8.44
7.49
6.41
5.30
4.30
3.53
3.06
2.85
2.79
2.71
2.48
2.05
1.49
0.94
0.54
0.36
0.33
0.28
0.01
-0.63
-1.64
-2.92
-4.24
-5.44
-6.39
-7.15
-7.84
-8.63
-9.67
-11.02
-12.57
-14.08
-15.23
-15.68
-15.18
-13.65
-11.18
-8.03
-4.58
-1.21
1.72
4.02
5.62
6.59
7.10
7.32
7.41
7.44
7.44
7.43
7.43
7.49
7.64
7.87
8.16
8.49
8.85
9.25
9.69
10.14
10.49
10.61
10.41
9.88
9.09
8.18
7.31
6.56
5.93
5.41
4.95
4.56
4.25
4.02
3.82
3.59
3.30
2.91
2.42
1.85
1.23
0.56
-0.13
-0.81
-1.45
-2.03
-2.56
-3.09
-3.69
-4.42
-5.28
-6.22
-7.15
-7.99
-8.70
-9.29
-9.84
-10.44
-11.21
-12.23
-13.50
-14.86
-16.03
-16.59
-16.19
-14.60
-11.88
-8.36
-4.52
-0.88
2.18
4.47
5.99
6.85
7.19
7.19
7.01
6.82
6.72
6.75
6.90
7.10
7.30
7.47
7.64
7.83
8.09
8.40
8.71
8.95
9.08
9.08
8.92
8.59
8.06
7.35
6.50
5.59
4.70
3.90
3.27
2.85
2.65
2.67
2.85
3.12
3.38
3.55
3.57
3.42
3.09
2.59
1.95
1.27
0.61
0.02
-0.53
-1.15
-1.95
-2.95
-4.07
-5.11
-5.92
-6.43
-6.73
-6.97
-7.35
-8.02
-9.04
-10.38
-11.90
-13.33
-14.32
-14.50
-13.61
-11.65
-8.86
-5.68
-2.60
0.02
1.99
3.28
4.00
4.28
4.29
4.19
4.12
4.14
4.28
4.48
4.67
4.83
5.00
5.23
5.59
6.04
6.49
6.85
7.07
7.16
7.19
7.19
7.12
6.86
6.28
5.36
4.17
2.94
1.88
1.10
0.61
0.32
0.10
-0.12
-0.36
-0.63
-0.95
-1.32
-1.70
-2.04
-2.25
-2.31
-2.31
-2.40
-2.74
-3.39
-4.27
-5.19
-5.98
-6.55
-6.98
-7.40
-7.95
-8.65
-9.47
-10.35
-11.17
-11.84
-12.20
-12.05
-11.19
-9.53
-7.14
-4.26
-1.26
1.51
3.81
5.56
6.84
7.78
8.50
9.08
9.57
10.04
10.59
11.33
12.34
13.57
14.89
16.10
16.97
17.34
17.21
16.64
15.82
14.88
13.92
12.90
11.71
10.20
8.32
6.10
3.74
1.47
-0.47
-1.99
-3.05
-3.74
-4.16
-4.42
-4.59
-4.76
-5.04
-5.47
-6.09
-6.86
-7.67
-8.43
-9.04
-9.45
-9.73
-9.99
-10.35
-10.91
-11.62
-12.37
-12.98
-13.30
-13.32
-13.18
-13.14
-13.47
-14.30
-15.57
-17.00
-18.18
-18.67
-18.18
-16.62
-14.15
-11.06
-7.77
-4.63
-1.90
0.33
2.05
3.32
4.19
4.73
4.98
5.01
4.92
4.83
4.81
4.88
5.07
5.35
5.75
6.27
6.92
7.64
8.34
8.91
9.26
9.34
9.16
8.78
8.25
7.63
6.94
6.19
5.37
4.51
3.65
2.85
2.18
1.66
1.28
1.00
0.76
0.54
0.30
0.05
-0.28
-0.74
-1.40
-2.24
-3.18
-4.08
-4.81
-5.34
-5.74
-6.17
-6.77
-7.60
-8.60
-9.66
-10.62
-11.34
-11.70
-11.57
-10.82
-9.38
-7.28
-4.73
-2.08
0.27
1.98
2.92
3.12
2.80
2.22
1.57
1.00
0.54
0.21
0.03
0.05
0.33
0.91
1.75
2.76
3.78
4.66
5.26
5.55
5.52
5.27
4.87
4.42
3.97
3.56
3.20
2.90
2.66
2.48
2.36
2.29
2.28
2.33
2.43
2.56
2.69
2.74
2.67
2.46
2.13
1.73
1.28
0.83
0.38
-0.09
-0.61
-1.25
-2.03
-2.94
-3.92
-4.87
-5.70
-6.36
-6.87
-7.33
-7.85
-8.48
-9.26
-10.18
-11.19
-12.21
-13.09
-13.57
-13.36
-12.22
-10.07
-7.09
-3.70
-0.41
2.29
4.08
4.91
4.95
4.52
3.94
3.49
3.29
3.36
3.64
4.07
4.57
5.15
5.81
6.55
7.33
8.08
8.75
9.28
9.69
9.98
10.10
10.00
9.60
8.90
7.99
7.06
6.28
5.77
5.50
5.33
5.07
4.59
3.88
3.06
2.31
1.78
1.48
1.35
1.22
0.96
0.50
-0.16
-0.93
-1.72
-2.46
-3.17
-3.85
-4.56
-5.36
-6.26
-7.31
-8.52
-9.80
-11.03
-11.98
-12.37
-11.99
-10.74
-8.71
-6.16
-3.43
-0.89
1.23
2.84
3.98
4.76
5.25
5.53
5.61
5.49
5.22
4.87
4.53
4.32
4.31
4.53
5.01
5.68
6.46
7.22
7.84
8.22
8.36
8.27
8.01
7.64
7.19
6.65
6.05
5.41
4.77
4.17
3.66
3.25
2.96
2.78
2.68
2.62
2.52
2.30
1.93
1.41
0.77
0.08
-0.63
-1.38
-2.21
-3.16
-4.22
-5.28
-6.22
-6.97
-7.55
-8.08
-8.79
-9.86
-11.37
-13.17
-14.96
-16.27
-16.66
-15.82
-13.73
-10.65
-7.04
-3.52
-0.58
1.49
2.64
3.04
2.95
2.64
2.30
2.04
1.92
1.98
2.25
2.75
3.44
4.21
4.93
5.50
5.89
6.16
6.40
6.69
7.03
7.34
7.52
7.49
7.23
6.81
6.30
5.77
5.26
4.78
4.35
3.98
3.69
3.46
3.26
3.03
2.74
2.41
2.07
1.76
1.50
1.24
0.95
0.60
0.20
-0.22
-0.64
-1.09
-1.62
-2.30
-3.17
-4.18
-5.19
-6.05
-6.66
-6.96
-7.02
-6.96
-6.97
-7.23
-7.91
-9.08
-10.69
-12.50
-14.13
-15.13
-15.10
-13.85
-11.47
-8.31
-4.84
-1.53
1.26
3.38
4.82
5.70
6.13
6.27
6.20
6.01
5.78
5.60
5.54
5.61
5.83
6.15
6.57
7.06
7.63
8.26
8.88
9.36
9.56
9.40
8.91
8.19
7.41
6.65
5.95
5.24
4.45
3.55
2.57
1.58
0.68
-0.08
-0.70
-1.23
-1.72
-2.20
-2.62
-2.89
-2.96
-2.85
-2.69
-2.69
-3.03
-3.76
-4.76
-5.80
-6.63
-7.13
-7.37
-7.53
-7.82
-8.37
-9.23
-10.34
-11.62
-12.98
-14.27
-15.25
-15.68
-15.30
-14.01
-11.89
-9.21
-6.34
-3.66
-1.45
0.15
1.16
1.71
1.93
1.96
1.86
1.68
1.46
1.26
1.18
1.32
1.72
2.39
3.22
4.09
4.88
5.51
5.94
6.19
6.27
6.20
5.98
5.66
5.28
4.88
4.47
4.03
3.56
3.05
2.58
2.22
2.06
2.08
2.18
2.21
2.04
1.65
1.12
0.61
0.27
0.15
0.21
0.33
0.37
0.20
-0.20
-0.80
-1.49
-2.12
-2.61
-2.90
-3.07
-3.24
-3.57
-4.17
-5.09
-6.29
-7.67
-9.02
-10.07
-10.53
-10.19
-8.95
-6.91
-4.32
-1.54
1.10
3.34
5.04
6.14
6.68
6.74
6.43
5.94
5.45
5.14
5.09
5.33
5.80
6.38
6.98
7.50
7.88
8.09
8.13
8.05
7.88
7.65
7.37
7.04
6.62
6.05
5.31
4.42
3.39
2.27
1.12
0.02
-0.97
-1.78
-2.35
-2.66
-2.72
-2.59
-2.38
-2.21
-2.24
-2.55
-3.21
-4.17
-5.32
-6.51
-7.59
-8.43
-9.00
-9.37
-9.65
-10.01
-10.57
-11.38
-12.43
-13.56
-14.53
-15.03
-14.76
-13.56
-11.42
-8.60
-5.47
-2.45
0.15
2.16
3.56
4.42
4.79
4.76
4.41
3.85
3.22
2.65
2.23
2.04
2.11
2.48
3.14
4.03
5.01
5.92
6.63
7.08
7.32
7.40
7.34
7.13
6.75
6.20
5.53
4.80
4.05
3.28
2.50
1.72
1.00
0.39
-0.10
-0.56
-1.07
-1.69
-2.39
-3.06
-3.57
-3.87
-4.03
-4.17
-4.46
-5.00
-5.84
-6.95
-8.26
-9.64
-10.86
-11.63
-11.67
-10.85
-9.21
-7.00
-4.55
-2.20
-0.18
1.41
2.56
3.30
3.68
3.72
3.46
2.95
2.26
1.50
0.81
0.37
0.38
0.93
1.98
3.33
4.69
5.82
6.59
7.02
7.25
7.37
7.40
7.28
6.90
6.19
5.20
4.05
2.92
1.93
1.13
0.48
-0.09
-0.68
-1.32
-2.02
-2.75
-3.43
-3.98
-4.37
-4.59
-4.71
-4.82
-5.01
-5.36
-5.97
-6.88
-8.10
-9.53
-10.92
-11.91
-12.15
-11.44
-9.82
-7.54
-4.98
-2.50
-0.32
1.47
2.87
3.90
4.61
5.04
5.23
5.23
5.05
4.72
4.34
4.02
3.92
4.14
4.67
5.40
6.16
6.85
7.42
7.90
8.31
8.60
8.66
8.39
7.77
6.85
5.75
4.57
3.37
2.19
1.05
0.03
-0.80
-1.44
-1.94
-2.47
-3.14
-3.99
-4.90
-5.70
-6.26
-6.56
-6.73
-7.01
-7.61
-8.63
-10.10
-11.91
-13.85
-15.61
-16.85
-17.21
-16.48
-14.64
-11.92
-8.72
-5.48
-2.53
-0.04
1.98
3.63
5.04
6.27
7.33
8.17
8.72
9.01
9.16
9.31
9.60
10.09
10.72
11.40
12.04
12.65
13.26
13.85
14.35
14.63
14.51
13.93
12.92
11.65
10.31
9.09
8.06
7.24
6.58
6.01
5.47
4.90
4.25
3.46
2.49
1.31
0.01
-1.26
-2.33
-3.05
-3.45
-3.66
-3.92
-4.40
-5.15
-6.05
-6.92
-7.64
-8.17
-8.58
-8.96
-9.39
-9.86
-10.37
-10.95
-11.70
-12.70
-13.88
-15.03
-15.73
-15.57
-14.26
-11.82
-8.49
-4.69
-0.89
2.56
5.39
7.48
8.82
9.49
9.67
9.55
9.32
9.09
8.95
8.89
8.90
8.98
9.14
9.39
9.75
10.20
10.76
11.39
12.07
12.73
13.25
13.51
13.40
12.89
12.05
11.07
10.15
9.49
9.12
8.96
8.80
8.47
7.87
7.05
6.14
5.25
4.44
3.73
3.07
2.45
1.88
1.39
0.96
0.56
0.14
-0.35
-0.94
-1.65
-2.50
-3.48
-4.60
-5.79
-6.99
-8.11
-9.08
-9.90
-10.61
-11.28
-11.99
-12.81
-13.79
-14.92
-16.11
-17.16
-17.78
-17.62
-16.44
-14.17
-10.99
-7.31
-3.63
-0.37
2.23
4.14
5.49
6.39
6.92
7.09
6.91
6.48
5.95
5.54
5.37
5.48
5.77
6.13
6.44
6.72
7.01
7.38
7.86
8.38
8.88
9.26
9.44
9.36
9.01
8.37
7.48
6.45
5.40
4.47
3.73
3.22
2.92
2.77
2.73
2.76
2.83
2.86
2.78
2.50
2.01
1.34
0.59
-0.08
-0.57
-0.85
-0.99
-1.13
-1.44
-2.03
-2.87
-3.87
-4.85
-5.68
-6.31
-6.83
-7.37
-8.05
-8.97
-10.09
-11.36
-12.67
-13.85
-14.73
-15.07
-14.65
-13.34
-11.17
-8.36
-5.28
-2.27
0.39
2.56
4.23
5.44
6.21
6.56
6.49
6.08
5.45
4.77
4.19
3.82
3.72
3.89
4.28
4.82
5.41
5.95
6.36
6.61
6.65
6.51
6.19
5.74
5.19
4.57
3.89
3.14
2.34
1.52
0.78
0.21
-0.12
-0.24
-0.25
-0.30
-0.49
-0.84
-1.28
-1.71
-2.08
-2.42
-2.85
-3.44
-4.20
-5.03
-5.78
-6.30
-6.55
-6.63
-6.72
-7.01
-7.64
-8.64
-9.92
-11.31
-12.53
-13.26
-13.23
-12.26
-10.35
-7.71
-4.67
-1.60
1.15
3.36
4.95
5.90
6.28
6.17
5.71
5.04
4.31
3.67
3.22
3.01
3.05
3.33
3.85
4.58
5.45
6.34
7.10
7.56
7.64
7.36
6.81
6.10
5.34
4.59
3.87
3.20
2.61
2.06
1.53
0.97
0.33
-0.34
-0.96
-1.41
-1.62
-1.60
-1.41
-1.19
-1.06
-1.10
-1.32
-1.72
-2.21
-2.74
-3.28
-3.83
-4.43
-5.15
-5.97
-6.84
-7.67
-8.37
-8.94
-9.47
-10.08
-10.90
-12.01
-13.35
-14.75
-15.90
-16.44
-16.07
-14.66
-12.27
-9.20
-5.86
-2.66
0.12
2.33
3.93
4.94
5.41
5.43
5.15
4.78
4.51
4.47
4.65
4.97
5.32
5.66
6.04
6.56
7.28
8.13
8.95
9.51
9.64
9.32
8.66
7.89
7.18
6.62
6.18
5.73
5.14
4.38
3.51
2.68
2.00
1.54
1.26
1.08
0.92
0.71
0.43
0.06
-0.46
-1.13
-1.97
-2.88
-3.73
-4.38
-4.78
-5.00
-5.15
-5.39
-5.81
-6.39
-7.07
-7.76
-8.38
-8.94
-9.49
-10.13
-10.95
-12.04
-13.36
-14.77
-15.99
-16.66
-16.49
-15.30
-13.15
-10.28
-7.09
-3.96
-1.22
0.95
2.47
3.43
3.96
4.24
4.41
4.59
4.79
5.03
5.27
5.54
5.83
6.16
6.51
6.88
7.25
7.63
8.03
8.38
8.57
8.45
7.94
7.05
5.96
4.86
3.94
3.28
2.86
2.58
2.34
2.08
1.78
1.50
1.26
1.08
0.93
0.76
0.51
0.13
-0.35
-0.87
-1.38
-1.86
-2.40
-3.12
-4.09
-5.29
-6.57
-7.71
-8.53
-8.99
-9.19
-9.35
-9.69
-10.43
-11.61
-13.14
-14.73
-15.96
-16.33
-15.49
-13.34
-10.11
-6.28
-2.45
0.88
3.43
5.16
6.17
6.61
6.62
6.33
5.85
5.31
4.84
4.59
4.63
4.99
5.65
6.51
7.48
8.44
9.26
9.85
10.16
10.18
9.97
9.61
9.20
8.78
8.31
7.75
7.04
6.20
5.29
4.45
3.82
3.48
3.43
3.55
3.70
3.70
3.45
2.92
2.15
1.26
0.38
-0.42
-1.11
-1.73
-2.33
-2.98
-3.73
-4.63
-5.65
-6.74
-7.80
-8.69
-9.36
-9.91
-10.56
-11.55
-13.01
-14.80
-16.51
-17.57
-17.49
-16.05
-13.39
-9.91
-6.15
-2.60
0.41
2.73
4.29
5.14
5.39
5.20
4.77
4.32
4.01
3.95
4.16
4.63
5.31
6.14
7.02
7.87
8.57
9.10
9.46
9.71
9.89
10.00
9.96
9.70
9.19
8.46
7.65
6.91
6.33
5.94
5.67
5.47
5.27
5.05
4.83
4.60
4.35
4.07
3.73
3.35
2.97
2.59
2.22
1.83
1.41
0.94
0.41
-0.17
-0.83
-1.62
-2.57
-3.66
-4.82
-5.93
-6.88
-7.65
-8.28
-8.89
-9.61
-10.54
-11.72
-13.10
-14.48
-15.56
-15.95
-15.32
-13.55
-10.75
-7.32
-3.76
-0.52
2.09
3.98
5.21
5.88
6.13
6.05
5.75
5.34
4.94
4.65
4.56
4.70
5.08
5.66
6.36
7.11
7.81
8.41
8.87
9.16
9.27
9.18
8.86
8.31
7.57
6.72
5.87
5.11
4.49
4.04
3.76
3.64
3.65
3.74
3.84
3.79
3.47
2.81
1.83
0.70
-0.39
-1.26
-1.87
-2.30
-2.73
-3.31
-4.09
-5.00
-5.90
-6.66
-7.26
-7.76
-8.32
-9.07
-10.14
-11.59
-13.36
-15.29
-17.06
-18.24
-18.36
-17.15
-14.62
-11.10
-7.16
-3.37
-0.14
2.39
4.27
5.65
6.66
7.37
7.80
8.00
8.08
8.14
8.31
8.64
9.13
9.69
10.21
10.61
10.86
10.97
11.01
11.04
11.05
11.00
10.79
10.36
9.68
8.81
7.88
7.02
6.29
5.72
5.26
4.86
4.49
4.13
3.81
3.56
3.38
3.26
3.18
3.11
3.06
2.98
2.82
2.51
1.96
1.17
0.19
-0.85
-1.83
-2.64
-3.28
-3.78
-4.25
-4.80
-5.47
-6.25
-7.04
-7.70
-8.15
-8.38
-8.49
-8.65
-9.03
-9.74
-10.83
-12.22
-13.71
-14.97
-15.62
-15.30
-13.83
-11.27
-7.97
-4.45
-1.25
1.26
2.94
3.88
4.25
4.27
4.12
3.90
3.73
3.69
3.85
4.28
4.96
5.82
6.72
7.51
8.08
8.42
8.62
8.81
9.11
9.51
9.87
10.03
9.86
9.34
8.62
7.87
7.26
6.84
6.58
6.35
6.08
5.73
5.30
4.83
4.35
3.86
3.39
2.93
2.46
1.95
1.40
0.81
0.21
-0.33
-0.80
-1.22
-1.65
-2.16
-2.77
-3.46
-4.11
-4.64
-4.99
-5.18
-5.29
-5.44
-5.71
-6.19
-6.90
-7.84
-8.96
-10.15
-11.27
-12.16
-12.61
-12.40
-11.41
-9.64
-7.31
-4.73
-2.29
-0.25
1.24
2.25
2.91
3.34
3.63
3.80
3.84
3.79
3.71
3.64
3.66
3.78
4.00
4.30
4.66
5.06
5.49
5.90
6.24
6.43
6.38
6.00
5.31
4.36
3.30
2.30
1.52
1.01
0.78
0.77
0.86
0.97
1.00
0.93
0.75
0.51
0.24
-0.02
-0.31
-0.67
-1.13
-1.69
-2.31
-2.90
-3.39
-3.72
-3.91
-4.03
-4.19
-4.47
-4.96
-5.63
-6.46
-7.38
-8.36
-9.46
-10.75
-12.21
-13.70
-14.89
-15.42
-14.95
-13.41
-10.97
-8.00
-4.93
-2.10
0.30
2.16
3.49
4.28
4.56
4.42
4.00
3.49
3.05
2.80
2.80
3.02
3.42
3.92
4.45
4.93
5.33
5.64
5.88
6.05
6.19
6.27
6.28
6.21
6.07
5.88
5.65
5.41
5.16
4.90
4.63
4.32
3.95
3.48
2.93
2.34
1.79
1.30
0.88
0.47
0.02
-0.51
-1.11
-1.73
-2.32
-2.88
-3.40
-3.91
-4.40
-4.87
-5.32
-5.74
-6.16
-6.60
-7.03
-7.44
-7.82
-8.19
-8.63
-9.27
-10.17
-11.30
-12.47
-13.37
-13.66
-13.09
-11.57
-9.27
-6.56
-3.82
-1.42
0.49
1.88
2.81
3.37
3.59
3.51
3.16
2.69
2.26
2.03
2.07
2.37
2.84
3.38
3.91
4.44
4.96
5.46
5.90
6.23
6.37
6.25
5.85
5.19
4.38
3.55
2.82
2.27
1.92
1.72
1.63
1.59
1.60
1.61
1.58
1.47
1.23
0.85
0.38
-0.14
-0.67
-1.21
-1.78
-2.41
-3.14
-4.01
-5.00
-6.08
-7.15
-8.09
-8.78
-9.23
-9.54
-9.89
-10.44
-11.31
-12.46
-13.72
-14.85
-15.53
-15.55
-14.77
-13.19
-10.97
-8.38
-5.70
-3.20
-1.06
0.62
1.82
2.55
2.91
3.00
2.95
2.87
2.86
2.94
3.13
3.42
3.80
4.26
4.80
5.37
5.94
6.49
7.03
7.59
8.20
8.83
9.37
9.64
9.48
8.84
7.81
6.59
5.44
4.56
4.01
3.74
3.59
3.44
3.17
2.75
2.18
1.52
0.82
0.14
-0.44
-0.87
-1.17
-1.40
-1.66
-2.05
-2.65
-3.47
-4.48
-5.63
-6.85
-8.05
-9.19
-10.25
-11.28
-12.40
-13.70
-15.21
-16.81
-18.20
-19.03
-18.95
-17.82
-15.69
-12.82
-9.56
-6.27
-3.24
-0.69
1.27
2.59
3.34
3.65
3.71
3.68
3.70
3.81
4.04
4.35
4.75
5.25
5.89
6.67
7.58
8.60
9.64
10.63
11.43
11.94
12.08
11.83
11.26
10.51
9.74
9.07
8.58
8.27
8.06
7.87
7.61
7.25
6.77
6.23
5.66
5.09
4.55
4.05
3.60
3.21
2.86
2.53
2.15
1.65
1.01
0.20
-0.76
-1.81
-2.91
-4.01
-5.06
-6.04
-6.98
-7.95
-9.09
-10.56
-12.44
-14.63
-16.84
-18.60
-19.41
-18.89
-16.97
-13.91
-10.18
-6.35
-2.88
-0.00
2.22
3.86
5.03
5.80
6.24
6.44
6.51
6.59
6.78
7.13
7.59
8.14
8.73
9.38
10.09
10.88
11.73
12.53
13.21
13.64
13.75
13.47
12.79
11.75
10.50
9.20
8.04
7.12
6.47
5.94
5.37
4.62
3.66
2.60
1.60
0.82
0.33
0.05
-0.19
-0.55
-1.15
-1.97
-2.97
-4.00
-5.01
-5.96
-6.88
-7.85
-8.95
-10.26
-11.78
-13.40
-14.92
-16.02
-16.38
-15.74
-13.99
-11.25
-7.83
-4.13
-0.59
2.47
4.86
6.53
7.58
8.19
8.57
8.90
9.24
9.58
9.87
10.06
10.17
10.28
10.46
10.78
11.19
11.58
11.82
11.85
11.71
11.48
11.23
10.97
10.63
10.10
9.36
8.43
7.48
6.68
6.12
5.82
5.65
5.48
5.23
4.92
4.60
4.32
4.05
3.66
3.05
2.18
1.11
0.01
-1.01
-1.89
-2.64
-3.32
-3.98
-4.60
-5.15
-5.62
-6.06
-6.58
-7.33
-8.40
-9.81
-11.44
-13.05
-14.30
-14.86
-14.47
-13.01
-10.61
-7.55
-4.28
-1.21
1.33
3.20
4.40
5.05
5.29
5.25
5.04
4.76
4.53
4.47
4.67
5.16
5.83
6.50
6.99
7.22
7.24
7.18
7.20
7.32
7.48
7.54
7.36
6.88
6.18
5.41
4.71
4.20
3.89
3.76
3.70
3.64
3.53
3.31
2.98
2.51
1.94
1.32
0.75
0.34
0.12
0.03
-0.06
-0.36
-0.98
-1.96
-3.17
-4.46
-5.65
-6.64
-7.43
-8.06
-8.64
-9.26
-10.00
-10.87
-11.84
-12.80
-13.56
-13.90
-13.64
-12.66
-11.02
-8.87
-6.48
-4.15
-2.10
-0.47
0.74
1.62
2.29
2.86
3.37
3.81
4.10
4.21
4.12
3.88
3.58
3.33
3.19
3.18
3.27
3.41
3.55
3.68
3.79
3.87
3.88
3.80
3.60
3.28
2.89
2.49
2.14
1.88
1.72
1.62
1.52
1.37
1.12
0.76
0.30
-0.21
-0.73
-1.25
-1.77
-2.33
-2.95
-3.62
-4.30
-4.89
-5.33
-5.56
-5.62
-5.64
-5.73
-5.99
-6.47
-7.13
-7.96
-8.95
-10.13
-11.45
-12.76
-13.74
-14.02
-13.30
-11.57
-9.08
-6.29
-3.68
-1.51
0.13
1.34
2.24
2.89
3.28
3.39
3.29
3.12
3.04
3.12
3.33
3.55
3.65
3.60
3.44
3.28
3.23
3.29
3.40
3.45
3.34
3.05
2.64
2.20
1.83
1.57
1.39
1.18
0.86
0.41
-0.10
-0.49
-0.59
-0.30
0.35
1.18
1.98
2.52
2.72
2.59
2.25
1.83
1.44
1.14
0.94
0.81
0.72
0.60
0.38
-0.04
-0.72
-1.68
-2.86
-4.16
-5.48
-6.77
-8.06
-9.44
-11.01
-12.79
-14.66
-16.38
-17.61
-18.05
-17.50
-15.99
-13.79
-11.28
-8.88
-6.87
-5.33
-4.16
-3.17
-2.24
-1.33
-0.50
0.18
0.73
1.20
1.70
2.29
2.91
3.49
3.98
4.39
4.79
5.26
5.77
6.26
6.60
6.69
6.51
6.08
5.47
4.77
4.06
3.43
2.95
2.68
2.63
2.73
2.87
2.96
2.94
2.79
2.54
2.24
1.93
1.64
1.38
1.17
0.96
0.71
0.32
-0.30
-1.19
-2.28
-3.47
-4.58
-5.51
-6.21
-6.74
-7.27
-7.98
-9.00
-10.30
-11.68
-12.81
-13.29
-12.86
-11.48
-9.34
-6.82
-4.30
-2.06
-0.23
1.16
2.17
2.86
3.31
3.60
3.81
4.02
4.25
4.47
4.63
4.70
4.72
4.77
4.93
5.26
5.72
6.26
6.79
7.26
7.66
7.96
8.13
8.13
7.94
7.56
7.05
6.49
5.97
5.57
5.27
5.00
4.68
4.22
3.61
2.88
2.11
1.40
0.81
0.33
-0.12
-0.66
-1.43
-2.49
-3.82
-5.31
-6.77
-8.00
-8.92
-9.57
-10.12
-10.79
-11.78
-13.16
-14.90
-16.81
-18.66
-20.10
-20.79
-20.46
-18.97
-16.43
-13.13
-9.52
-6.05
-3.05
-0.69
0.99
2.07
2.68
2.98
3.12
3.26
3.48
3.84
4.29
4.78
5.29
5.81
6.40
7.10
7.94
8.91
9.93
10.87
11.61
12.04
12.11
11.84
11.32
10.66
9.98
9.34
8.76
8.24
7.75
7.26
6.76
6.27
5.81
5.45
5.21
5.09
5.00
4.78
4.27
3.41
2.27
1.02
-0.14
-1.11
-1.91
-2.63
-3.39
-4.24
-5.18
-6.18
-7.22
-8.29
-9.39
-10.51
-11.62
-12.76
-14.03
-15.59
-17.48
-19.54
-21.39
-22.54
-22.54
-21.16
-18.46
-14.75
-10.50
-6.19
-2.32
0.75
2.76
3.66
3.56
2.79
1.78
0.93
0.54
0.74
1.53
2.84
4.56
6.59
8.83
11.14
13.39
15.42
17.12
18.39
19.21
19.63
19.82
20.16
21.19
23.53
27.64
33.59
40.88
48.47
55.00
59.13
59.98
57.33
51.66
43.98
35.43
26.98
19.23
12.36
6.30
0.94
-3.76
-7.73
-10.89
-13.30
-15.19
-16.91
-18.73
-20.74
-22.78
-24.60
-25.98
-26.92
-27.60
-28.31
-29.27
-30.51
-31.91
-33.23
-34.23
-34.73
-34.56
-33.63
-31.88
-29.32
-26.03
-22.24
-18.19
-14.17
-10.42
-7.13
-4.44
-2.45
-1.16
-0.52
-0.34
-0.34
-0.24
0.21
1.14
2.53
4.20
5.90
7.35
8.37
8.88
8.94
8.70
8.36
8.10
8.07
8.32
8.81
9.44
10.07
10.58
10.90
11.03
10.98
10.76
10.38
9.80
9.03
8.08
7.02
5.92
4.87
3.93
3.14
2.51
2.02
1.64
1.35
1.14
1.03
1.06
1.26
1.55
1.79
1.79
1.38
0.50
-0.76
-2.20
-3.62
-4.87
-5.95
-6.93
-7.91
-9.01
-10.26
-11.67
-13.18
-14.68
-15.91
-16.56
-16.27
-14.79
-12.09
-8.45
-4.34
-0.35
3.05
5.59
7.21
8.03
8.24
8.00
7.45
6.67
5.75
4.81
4.00
3.50
3.43
3.83
4.60
5.54
6.42
7.05
7.36
7.40
7.27
7.08
6.89
6.67
6.36
5.91
5.31
4.57
3.75
2.95
2.21
1.56
0.98
0.43
-0.11
-0.64
-1.12
-1.49
-1.74
-1.92
-2.12
-2.40
-2.78
-3.25
-3.76
-4.29
-4.80
-5.25
-5.58
-5.74
-5.76
-5.74
-5.85
-6.27
-7.11
-8.35
-9.80
-11.22
-12.30
-12.78
-12.46
-11.25
-9.22
-6.61
-3.79
-1.13
1.09
2.75
3.90
4.64
5.05
5.12
4.85
4.24
3.44
2.67
2.19
2.15
2.57
3.34
4.25
5.08
5.69
6.01
6.01
5.75
5.32
4.79
4.24
3.71
3.19
2.68
2.18
1.71
1.30
0.93
0.52
0.02
-0.62
-1.34
-2.02
-2.53
-2.84
-3.02
-3.22
-3.59
-4.16
-4.88
-5.67
-6.46
-7.25
-8.11
-9.17
-10.51
-12.13
-13.92
-15.62
-16.91
-17.44
-16.99
-15.51
-13.14
-10.15
-6.83
-3.49
-0.41
2.16
4.02
5.09
5.48
5.46
5.37
5.46
5.84
6.42
7.06
7.65
8.18
8.70
9.27
9.88
10.47
10.99
11.38
11.62
11.68
11.53
11.10
10.40
9.47
8.41
7.34
6.33
5.44
4.65
3.95
3.34
2.81
2.35
1.91
1.45
0.96
0.43
-0.10
-0.63
-1.14
-1.68
-2.31
-3.07
-3.96
-4.90
-5.81
-6.61
-7.34
-8.12
-9.11
-10.49
-12.29
-14.39
-16.47
-18.06
-18.71
-18.11
-16.17
-13.10
-9.32
-5.37
-1.76
1.17
3.29
4.66
5.41
5.72
5.71
5.48
5.11
4.73
4.43
4.36
4.59
5.16
6.04
7.15
8.34
9.46
10.37
10.99
11.33
11.44
11.37
11.14
10.72
10.03
9.03
7.78
6.39
5.08
4.02
3.34
3.06
3.06
3.20
3.33
3.32
3.16
2.90
2.57
2.23
1.85
1.41
0.83
0.13
-0.69
-1.54
-2.36
-3.11
-3.76
-4.33
-4.88
-5.48
-6.25
-7.30
-8.72
-10.55
-12.71
-15.01
-17.13
-18.70
-19.35
-18.80
-17.00
-14.12
-10.54
-6.80
-3.40
-0.73
1.04
1.95
2.21
2.10
1.88
1.72
1.68
1.80
2.07
2.52
3.18
4.07
5.17
6.35
7.48
8.44
9.17
9.66
9.97
10.15
10.19
10.07
9.74
9.19
8.49
7.73
7.00
6.35
5.74
5.09
4.35
3.51
2.68
1.98
1.51
1.26
1.10
0.84
0.36
-0.37
-1.26
-2.17
-2.97
-3.65
-4.24
-4.81
-5.37
-5.92
-6.42
-6.92
-7.55
-8.43
-9.55
-10.69
-11.46
-11.44
-10.38
-8.32
-5.60
-2.68
0.02
2.27
4.05
5.41
6.43
7.10
7.40
7.37
7.09
6.69
6.31
6.02
5.84
5.79
5.94
6.32
6.94
7.72
8.47
8.99
9.16
8.97
8.54
7.97
7.31
6.55
5.65
4.62
3.58
2.67
2.00
1.56
1.21
0.76
0.13
-0.64
-1.39
-1.95
-2.25
-2.39
-2.53
-2.84
-3.37
-4.07
-4.81
-5.47
-6.05
-6.59
-7.22
-8.03
-9.06
-10.33
-11.84
-13.53
-15.21
-16.62
-17.36
-17.09
-15.61
-12.98
-9.52
-5.74
-2.16
0.85
3.10
4.60
5.49
5.94
6.09
6.07
5.98
5.88
5.82
5.85
5.98
6.18
6.43
6.70
6.96
7.23
7.50
7.79
8.07
8.33
8.53
8.60
8.49
8.20
7.76
7.25
6.73
6.27
5.88
5.55
5.27
5.03
4.87
4.77
4.73
4.68
4.53
4.22
3.74
3.09
2.33
1.47
0.51
-0.55
-1.69
-2.86
-3.94
-4.84
-5.50
-5.96
-6.37
-6.93
-7.78
-8.97
-10.41
-11.97
-13.52
-15.02
-16.38
-17.46
-17.97
-17.55
-15.96
-13.19
-9.57
-5.62
-1.93
1.11
3.32
4.72
5.45
5.67
5.51
5.13
4.66
4.20
3.84
3.59
3.46
3.45
3.56
3.79
4.12
4.47
4.77
4.96
5.05
5.11
5.19
5.29
5.35
5.27
4.97
4.47
3.87
3.32
2.99
2.96
3.21
3.62
4.00
4.19
4.09
3.73
3.22
2.67
2.15
1.62
0.94
-0.00
-1.23
-2.66
-4.10
-5.37
-6.38
-7.14
-7.78
-8.42
-9.19
-10.15
-11.25
-12.41
-13.42
-14.06
-14.09
-13.35
-11.82
-9.60
-6.90
-4.01
-1.20
1.26
3.18
4.44
4.99
4.89
4.26
3.28
2.17
1.16
0.46
0.20
0.42
1.07
1.99
3.05
4.13
5.15
6.07
6.88
7.55
8.08
8.49
8.82
9.12
9.37
9.56
9.63
9.57
9.38
9.10
8.76
8.36
7.93
7.49
7.09
6.73
6.35
5.83
5.03
3.89
2.47
0.93
-0.54
-1.83
-2.99
-4.19
-5.64
-7.49
-9.69
-12.00
-14.01
-15.26
-15.43
-14.41
-12.39
-9.79
-7.11
-4.77
-2.98
-1.75
-0.93
-0.37
0.05
0.36
0.57
0.68
0.73
0.77
0.89
1.16
1.66
2.44
3.53
4.85
6.31
7.72
8.93
9.78
10.19
10.17
9.75
9.05
8.13
7.08
5.89
4.54
3.07
1.53
0.08
-1.14
-2.04
-2.67
-3.16
-3.70
-4.38
-5.15
-5.86
-6.34
-6.48
-6.33
-6.06
-5.90
-6.07
-6.67
-7.67
-8.95
-10.30
-11.45
-12.21
-12.49
-12.36
-11.99
-11.64
-11.53
-11.79
-12.37
-13.02
-13.42
-13.22
-12.16
-10.16
-7.37
-4.10
-0.74
2.34
4.87
6.69
7.77
8.22
8.20
7.90
7.49
7.08
6.75
6.53
6.45
6.53
6.77
7.12
7.51
7.85
8.12
8.37
8.68
9.07
9.49
9.79
9.80
9.45
8.82
8.08
7.43
6.99
6.82
6.88
7.13
7.49
7.87
8.15
8.23
8.02
7.60
7.07
6.59
6.22
5.89
5.44
4.72
3.64
2.23
0.55
-1.35
-3.50
-5.93
-8.59
-11.29
-13.69
-15.43
-16.28
-16.19
-15.29
-13.77
-11.85
-9.62
-7.19
-4.69
-2.36
-0.47
0.78
1.36
1.48
1.44
1.53
1.85
2.37
2.96
3.51
3.99
4.41
4.80
5.14
5.41
5.60
5.73
5.85
5.92
5.87
5.61
5.14
4.56
4.09
3.86
3.88
3.99
3.98
3.70
3.18
2.58
2.09
1.78
1.61
1.41
1.07
0.55
-0.05
-0.61
-1.06
-1.47
-1.92
-2.54
-3.33
-4.25
-5.19
-6.12
-7.08
-8.20
-9.58
-11.25
-13.05
-14.63
-15.58
-15.53
-14.34
-12.08
-9.10
-5.82
-2.66
0.07
2.23
3.82
4.92
5.64
6.10
6.37
6.51
6.51
6.36
6.05
5.65
5.26
5.05
5.10
5.43
5.94
6.51
7.03
7.46
7.84
8.17
8.43
8.51
8.31
7.78
6.97
6.01
5.09
4.32
3.78
3.43
3.21
3.06
2.90
2.72
2.50
2.25
1.99
1.72
1.46
1.15
0.74
0.17
-0.53
-1.32
-2.14
-2.95
-3.75
-4.56
-5.40
-6.22
-6.99
-7.64
-8.20
-8.73
-9.35
-10.11
-10.99
-11.81
-12.34
-12.32
-11.57
-10.07
-7.98
-5.58
-3.21
-1.17
0.41
1.54
2.31
2.87
3.28
3.53
3.59
3.43
3.07
2.63
2.24
2.01
2.00
2.17
2.46
2.76
3.04
3.28
3.49
3.67
3.78
3.75
3.51
3.07
2.46
1.77
1.10
0.53
0.08
-0.24
-0.45
-0.61
-0.78
-1.02
-1.36
-1.78
-2.23
-2.65
-2.99
-3.25
-3.49
-3.78
-4.14
-4.55
-4.94
-5.29
-5.63
-6.04
-6.64
-7.51
-8.62
-9.84
-10.95
-11.70
-11.90
-11.43
-10.29
-8.60
-6.58
-4.46
-2.43
-0.64
0.87
2.12
3.10
3.79
4.15
4.12
3.74
3.11
2.40
1.82
1.52
1.57
1.97
2.62
3.37
4.08
4.62
4.91
4.97
4.83
4.60
4.34
4.07
3.82
3.59
3.42
3.36
3.44
3.62
3.84
3.98
4.01
3.94
3.87
3.90
4.06
4.29
4.48
4.51
4.32
3.93
3.45
2.95
2.45
1.87
1.08
-0.03
-1.48
-3.19
-4.98
-6.68
-8.16
-9.37
-10.34
-11.19
-12.08
-13.14
-14.49
-16.08
-17.71
-19.01
-19.55
-18.98
-17.24
-14.52
-11.27
-7.95
-4.94
-2.46
-0.55
0.79
1.60
1.94
1.92
1.70
1.46
1.33
1.37
1.52
1.71
1.89
2.09
2.34
2.71
3.20
3.77
4.38
4.94
5.34
5.49
5.30
4.82
4.17
3.50
2.95
2.52
2.14
1.72
1.22
0.70
0.28
0.03
-0.06
-0.13
-0.30
-0.65
-1.15
-1.68
-2.15
-2.51
-2.81
-3.12
-3.51
-4.00
-4.60
-5.30
-6.07
-6.92
-7.78
-8.59
-9.28
-9.84
-10.32
-10.90
-11.75
-12.98
-14.52
-16.10
-17.32
-17.79
-17.23
-15.61
-13.13
-10.11
-6.94
-3.94
-1.35
0.67
2.05
2.83
3.11
3.03
2.78
2.55
2.51
2.80
3.49
4.55
5.86
7.17
8.29
9.07
9.56
9.89
10.23
10.67
11.15
11.51
11.57
11.27
10.66
9.90
9.14
8.52
8.07
7.77
7.57
7.35
7.08
6.71
6.27
5.85
5.50
5.25
5.00
4.62
3.96
2.94
1.60
0.11
-1.36
-2.66
-3.74
-4.59
-5.28
-5.89
-6.55
-7.40
-8.56
-10.03
-11.64
-13.05
-13.83
-13.62
-12.29
-9.94
-6.90
-3.58
-0.36
2.49
4.81
6.54
7.68
8.28
8.43
8.26
7.91
7.53
7.21
7.03
7.02
7.23
7.68
8.40
9.35
10.43
11.50
12.38
12.95
13.10
12.81
12.14
11.19
10.08
8.91
7.76
6.72
5.83
5.13
4.62
4.25
3.92
3.53
2.99
2.31
1.56
0.85
0.26
-0.21
-0.64
-1.14
-1.80
-2.60
-3.51
-4.46
-5.44
-6.48
-7.61
-8.80
-9.98
-11.11
-12.21
-13.43
-14.90
-16.62
-18.32
-19.52
-19.69
-18.48
-15.86
-12.19
-8.05
-3.99
-0.43
2.45
4.66
6.26
7.32
7.91
8.14
8.15
8.13
8.24
8.53
8.96
9.38
9.66
9.75
9.73
9.75
9.94
10.33
10.79
11.16
11.28
11.12
10.73
10.21
9.61
8.94
8.20
7.45
6.80
6.37
6.20
6.20
6.19
5.97
5.45
4.66
3.76
2.87
2.06
1.33
0.60
-0.17
-0.97
-1.75
-2.50
-3.24
-4.07
-5.12
-6.49
-8.14
-9.95
-11.73
-13.32
-14.70
-15.94
-17.19
-18.59
-20.17
-21.82
-23.28
-24.19
-24.22
-23.15
-20.90
-17.60
-13.52
-9.06
-4.64
-0.63
2.70
5.23
6.98
8.09
8.75
9.18
9.55
9.99
10.57
11.36
12.42
13.78
15.43
17.26
19.14
20.89
22.40
23.57
24.37
24.78
24.75
24.27
23.30
21.88
20.08
18.03
15.83
13.58
11.36
9.26
7.33
5.57
3.97
2.44
0.91
-0.71
-2.47
-4.38
-6.37
-8.35
-10.17
-11.71
-12.88
-13.70
-14.29
-14.80
-15.42
-16.19
-17.07
-17.88
-18.37
-18.32
-17.58
-16.07
-13.89
-11.20
-8.23
-5.27
-2.57
-0.33
1.34
2.44
3.00
3.08
2.72
2.04
1.16
0.28
-0.38
-0.64
-0.43
0.21
1.12
2.15
3.17
4.13
4.96
5.58
5.90
5.85
5.46
4.88
4.30
3.89
3.68
3.57
3.40
3.05
2.51
1.90
1.32
0.84
0.43
-0.03
-0.63
-1.41
-2.32
-3.28
-4.20
-5.06
-5.86
-6.63
-7.35
-8.00
-8.57
-9.07
-9.60
-10.29
-11.27
-12.56
-13.98
-15.20
-15.76
-15.27
-13.55
-10.71
-7.13
-3.35
0.15
3.03
5.14
6.51
7.29
7.62
7.66
7.53
7.36
7.21
7.16
7.25
7.48
7.86
8.37
8.98
9.65
10.32
10.91
11.37
11.63
11.69
11.53
11.19
10.70
10.08
9.37
8.60
7.85
7.18
6.67
6.35
6.19
6.11
6.00
5.77
5.38
4.86
4.29
3.73
3.20
2.70
2.22
1.76
1.32
0.93
0.55
0.14
-0.36
-0.99
-1.74
-2.53
-3.34
-4.15
-5.08
-6.28
-7.95
-10.19
-12.98
-16.06
-19.00
-21.25
-22.27
-21.73
-19.60
-16.19
-12.06
-7.83
-4.05
-1.05
1.07
2.40
3.11
3.37
3.34
3.17
2.98
2.94
3.14
3.62
4.33
5.07
5.61
5.75
5.43
4.77
4.04
3.52
3.39
3.63
4.07
4.45
4.59
4.46
4.14
3.82
3.63
3.61
3.66
3.66
3.51
3.18
2.76
2.37
2.16
2.21
2.51
2.98
3.44
3.72
3.69
3.34
2.73
2.03
1.35
0.73
0.07
-0.77
-1.93
-3.44
-5.24
-7.19
-9.15
-10.95
-12.41
-13.31
-13.39
-12.51
-10.68
-8.15
-5.34
-2.72
-0.63
0.84
1.76
2.35
2.79
3.13
3.38
3.50
3.49
3.45
3.53
3.87
4.55
5.52
6.66
7.80
8.76
9.42
9.70
9.57
9.03
8.09
6.78
5.15
3.29
1.31
-0.66
-2.46
-4.00
-5.24
-6.18
-6.89
-7.42
-7.85
-8.19
-8.42
-8.51
-8.43
-8.22
-7.94
-7.71
-7.61
-7.70
-7.96
-8.33
-8.72
-9.05
-9.31
-9.50
-9.65
-9.78
-9.96
-10.23
-10.72
-11.51
-12.56
-13.67
-14.45
-14.43
-13.30
-11.03
-7.93
-4.53
-1.38
1.15
2.98
4.21
5.01
5.52
5.78
5.80
5.61
5.31
5.03
4.87
4.85
4.92
4.99
5.09
5.27
5.65
6.26
7.03
7.77
8.25
8.31
7.95
7.29
6.50
5.72
5.04
4.45
3.93
3.43
2.95
2.46
1.97
1.48
1.02
0.61
0.27
0.03
-0.13
-0.24
-0.38
-0.61
-1.00
-1.55
-2.22
-2.91
-3.49
-3.89
-4.14
-4.34
-4.64
-5.20
-6.15
-7.52
-9.24
-11.09
-12.75
-13.82
-13.96
-12.95
-10.85
-7.91
-4.58
-1.30
1.59
3.92
5.66
6.89
7.69
8.11
8.20
7.96
7.47
6.82
6.19
5.73
5.58
5.77
6.23
6.82
7.38
7.84
8.21
8.54
8.88
9.21
9.41
9.33
8.88
8.10
7.09
6.03
5.03
4.10
3.16
2.13
0.97
-0.28
-1.52
-2.66
-3.64
-4.46
-5.13
-5.65
-6.00
-6.18
-6.25
-6.28
-6.39
-6.69
-7.17
-7.82
-8.57
-9.39
-10.31
-11.39
-12.69
-14.17
-15.63
-16.74
-17.11
-16.44
-14.63
-11.86
-8.48
-4.94
-1.64
1.18
3.40
5.01
6.06
6.63
6.82
6.75
6.51
6.18
5.80
5.44
5.17
5.05
5.16
5.48
5.93
6.44
6.91
7.36
7.80
8.27
8.71
9.03
9.10
8.85
8.28
7.50
6.65
5.87
5.24
4.78
4.46
4.20
3.92
3.55
3.05
2.42
1.69
0.93
0.24
-0.34
-0.82
-1.27
-1.80
-2.52
-3.47
-4.61
-5.84
-7.01
-7.98
-8.68
-9.13
-9.46
-9.90
-10.70
-12.00
-13.70
-15.47
-16.80
-17.21
-16.38
-14.27
-11.16
-7.50
-3.79
-0.49
2.09
3.83
4.74
4.97
4.71
4.17
3.54
2.97
2.58
2.47
2.68
3.20
3.97
4.91
5.90
6.87
7.76
8.53
9.16
9.62
9.89
9.95
9.79
9.40
8.82
8.08
7.24
6.39
5.58
4.83
4.16
3.58
3.08
2.65
2.26
1.85
1.41
0.93
0.46
0.07
-0.21
-0.44
-0.71
-1.15
-1.83
-2.71
-3.70
-4.64
-5.44
-6.11
-6.72
-7.35
-8.09
-8.96
-10.00
-11.21
-12.63
-14.21
-15.76
-16.99
-17.47
-16.85
-14.96
-11.91
-8.11
-4.09
-0.43
2.46
4.43
5.53
5.97
6.02
5.86
5.59
5.24
4.90
4.65
4.66
5.05
5.87
7.02
8.28
9.44
10.35
10.97
11.36
11.63
11.79
11.77
11.47
10.79
9.79
8.59
7.42
6.44
5.73
5.18
4.65
4.02
3.27
2.47
1.73
1.15
0.71
0.39
0.15
-0.02
-0.13
-0.20
-0.29
-0.52
-0.99
-1.73
-2.69
-3.78
-4.90
-5.99
-7.04
-8.06
-9.08
-10.13
-11.27
-12.58
-14.09
-15.66
-17.03
-17.77
-17.49
-15.95
-13.23
-9.66
-5.75
-1.99
1.25
3.79
5.54
6.54
6.84
6.54
5.79
4.77
3.71
2.80
2.21
2.03
2.32
3.02
3.98
4.96
5.74
6.15
6.13
5.80
5.33
4.86
4.43
3.99
3.37
2.48
1.35
0.13
-0.91
-1.56
-1.75
-1.60
-1.36
-1.32
-1.60
-2.18
-2.86
-3.40
-3.68
-3.70
-3.63
-3.64
-3.86
-4.33
-4.95
-5.63
-6.26
-6.81
-7.26
-7.65
-8.01
-8.39
-8.89
-9.60
-10.57
-11.71
-12.82
-13.56
-13.58
-12.68
-10.85
-8.29
-5.35
-2.41
0.29
2.61
4.51
5.98
7.00
7.50
7.44
6.87
5.95
4.91
3.99
3.42
3.28
3.57
4.19
4.97
5.74
6.38
6.86
7.21
7.53
7.86
8.15
8.23
7.92
7.12
5.89
4.46
3.11
2.03
1.26
0.68
0.13
-0.50
-1.18
-1.87
-2.50
-3.12
-3.78
-4.49
-5.20
-5.75
-6.04
-6.14
-6.27
-6.76
-7.79
-9.25
-10.74
-11.71
-11.67
-10.40
-8.06
-5.03
-1.79
1.26
3.89
5.99
7.56
8.65
9.32
9.67
9.77
9.69
9.48
9.18
8.84
8.51
8.30
8.22
8.25
8.30
8.30
8.24
8.15
8.12
8.17
8.26
8.29
8.14
7.71
6.99
6.03
4.95
3.88
2.89
2.05
1.32
0.65
-0.00
-0.66
-1.29
-1.86
-2.33
-2.73
-3.09
-3.50
-4.00
-4.63
-5.41
-6.40
-7.68
-9.32
-11.28
-13.37
-15.18
-16.24
-16.14
-14.69
-12.03
-8.56
-4.80
-1.22
1.87
4.39
6.32
7.73
8.64
9.07
9.10
8.84
8.46
8.15
8.05
8.22
8.62
9.12
9.56
9.81
9.81
9.63
9.38
9.19
9.12
9.14
9.13
8.96
8.52
7.81
6.91
5.95
5.07
4.35
3.82
3.46
3.19
2.94
2.65
2.31
1.93
1.50
0.98
0.31
-0.57
-1.69
-3.00
-4.43
-5.86
-7.21
-8.43
-9.52
-10.51
-11.43
-12.34
-13.31
-14.38
-15.58
-16.81
-17.87
-18.42
-18.11
-16.70
-14.17
-10.77
-6.99
-3.42
-0.53
1.40
2.41
2.74
2.73
2.66
2.70
2.86
3.08
3.34
3.69
4.24
5.11
6.28
7.61
8.83
9.72
10.18
10.28
10.24
10.23
10.30
10.34
10.14
9.54
8.49
7.14
5.70
4.40
3.37
2.62
2.10
1.67
1.21
0.61
-0.17
-1.15
-2.27
-3.43
-4.50
-5.39
-6.11
-6.74
-7.46
-8.46
-9.84
-11.58
-13.52
-15.36
-16.73
-17.32
-16.89
-15.37
-12.88
-9.73
-6.34
-3.19
-0.66
1.05
1.94
2.17
1.96
1.51
0.93
0.32
-0.25
-0.72
-1.00
-1.08
-0.98
-0.80
-0.68
-0.71
-0.94
-1.37
-2.00
-2.83
-3.89
-5.21
-6.75
-8.42
-10.01
-11.29
-12.07
-12.21
-11.69
-10.54
-8.80
-6.52
-3.79
-0.73
2.50
5.69
8.63
11.17
13.21
14.69
15.54
15.78
15.47
14.72
13.70
12.53
11.26
9.82
8.12
6.06
3.62
0.90
-1.89
-4.40
-6.25
-7.06
-6.57
-4.78
-1.94
1.45
4.78
7.53
9.41
10.40
10.69
10.58
10.31
10.02
9.77
9.58
9.46
9.42
9.50
9.69
9.93
10.15
10.26
10.26
10.20
10.18
10.28
10.49
10.68
10.66
10.27
9.46
8.34
7.11
6.01
5.21
4.76
4.57
4.50
4.40
4.15
3.73
3.21
2.69
2.29
2.07
2.01
2.06
2.10
2.06
1.91
1.66
1.33
0.97
0.61
0.24
-0.16
-0.65
-1.26
-2.05
-2.98
-4.01
-5.04
-6.02
-6.93
-7.85
-8.83
-9.90
-11.02
-12.08
-12.93
-13.36
-13.15
-12.15
-10.28
-7.66
-4.55
-1.37
1.46
3.62
4.95
5.51
5.47
5.09
4.61
4.19
3.92
3.82
3.86
4.02
4.27
4.61
5.00
5.40
5.74
5.97
6.07
6.06
5.97
5.79
5.46
4.91
4.11
3.09
1.96
0.89
-0.03
-0.76
-1.32
-1.73
-1.97
-1.98
-1.74
-1.27
-0.74
-0.32
-0.13
-0.19
-0.41
-0.63
-0.75
-0.75
-0.68
-0.65
-0.74
-1.00
-1.43
-2.00
-2.64
-3.28
-3.85
-4.31
-4.73
-5.20
-5.90
-6.98
-8.47
-10.26
-12.04
-13.42
-13.98
-13.47
-11.85
-9.33
-6.29
-3.19
-0.44
1.69
3.09
3.79
3.90
3.56
2.89
2.01
1.05
0.16
-0.50
-0.80
-0.68
-0.20
0.50
1.29
2.06
2.80
3.54
4.29
5.01
5.61
5.92
5.88
5.50
4.88
4.18
3.47
2.77
2.05
1.31
0.63
0.14
-0.07
-0.00
0.18
0.24
0.02
-0.49
-1.15
-1.77
-2.25
-2.60
-2.97
-3.49
-4.20
-5.04
-5.88
-6.59
-7.09
-7.40
-7.56
-7.62
-7.61
-7.55
-7.50
-7.51
-7.68
-8.01
-8.35
-8.41
-7.84
-6.34
-3.86
-0.62
2.91
6.20
8.79
10.47
11.23
11.24
10.72
9.87
8.82
7.70
6.63
5.72
5.08
4.79
4.89
5.35
6.02
6.74
7.34
7.74
7.94
8.04
8.11
8.17
8.14
7.91
7.35
6.40
5.11
3.61
2.08
0.68
-0.49
-1.44
-2.25
-3.09
-4.09
-5.30
-6.65
-7.95
-9.02
-9.71
-10.00
-9.99
-9.85
-9.72
-9.68
-9.73
-9.80
-9.86
-9.89
-9.93
-10.04
-10.28
-10.68
-11.21
-11.82
-12.41
-12.82
-12.85
-12.31
-11.10
-9.24
-6.90
-4.35
-1.86
0.34
2.17
3.62
4.68
5.36
5.62
5.45
4.94
4.24
3.59
3.19
3.14
3.40
3.89
4.51
5.17
5.85
6.49
7.03
7.37
7.42
7.13
6.55
5.78
4.95
4.14
3.40
2.72
2.08
1.45
0.81
0.20
-0.38
-0.92
-1.39
-1.80
-2.16
-2.50
-2.85
-3.23
-3.67
-4.17
-4.74
-5.38
-6.13
-6.99
-8.01
-9.21
-10.55
-11.90
-13.05
-13.73
-13.67
-12.72
-10.90
-8.41
-5.55
-2.67
-0.05
2.13
3.79
4.90
5.44
5.46
5.01
4.23
3.33
2.53
2.02
1.90
2.13
2.55
2.90
2.93
2.49
1.58
0.37
-0.85
-1.79
-2.26
-2.26
-1.91
-1.40
-0.91
-0.48
-0.05
0.45
1.07
1.78
2.45
2.93
3.13
3.09
2.96
2.93
3.15
3.63
4.28
4.91
5.37
5.59
5.57
5.36
4.99
4.49
3.82
2.97
1.99
0.92
-0.18
-1.36
-2.76
-4.60
-6.97
-9.72
-12.46
-14.62
-15.70
-15.48
-14.11
-11.94
-9.41
-6.84
-4.37
-2.08
-0.01
1.73
3.06
3.98
4.56
4.93
5.21
5.49
5.82
6.24
6.77
7.41
8.06
8.59
8.85
8.81
8.53
8.18
7.87
7.65
7.39
6.96
6.23
5.20
4.00
2.80
1.75
0.92
0.30
-0.18
-0.59
-0.94
-1.23
-1.45
-1.60
-1.69
-1.73
-1.74
-1.72
-1.68
-1.67
-1.76
-2.04
-2.54
-3.25
-4.11
-5.00
-5.84
-6.58
-7.27
-8.00
-8.90
-10.08
-11.57
-13.24
-14.79
-15.86
-16.08
-15.21
-13.24
-10.39
-7.01
-3.53
-0.27
2.54
4.81
6.52
7.67
8.29
8.39
8.07
7.50
6.89
6.48
6.46
6.93
7.82
9.00
10.26
11.39
12.25
12.71
12.77
12.47
11.91
11.19
10.35
9.39
8.29
7.04
5.62
4.13
2.66
1.32
0.17
-0.75
-1.48
-2.02
-2.37
-2.53
-2.53
-2.48
-2.53
-2.79
-3.31
-4.06
-4.94
-5.84
-6.71
-7.54
-8.32
-9.06
-9.79
-10.54
-11.43
-12.59
-14.01
-15.54
-16.80
-17.33
-16.76
-14.95
-12.08
-8.57
-4.95
-1.69
0.91
2.78
4.01
4.77
5.25
5.59
5.84
6.02
6.11
6.12
6.15
6.29
6.64
7.23
8.02
8.89
9.71
10.40
10.91
11.24
11.39
11.36
11.09
10.56
9.82
8.93
8.02
7.21
6.55
6.04
5.60
5.16
4.66
4.11
3.52
2.91
2.29
1.67
0.99
0.24
-0.62
-1.61
-2.72
-3.86
-4.95
-5.89
-6.62
-7.15
-7.54
-7.89
-8.30
-8.82
-9.54
-10.51
-11.78
-13.26
-14.79
-16.04
-16.61
-16.18
-14.59
-11.94
-8.54
-4.85
-1.29
1.80
4.27
6.08
7.29
8.02
8.38
8.54
8.62
8.77
9.05
9.50
10.05
10.60
11.04
11.31
11.43
11.46
11.42
11.30
11.01
10.44
9.51
8.30
6.94
5.70
4.78
4.35
4.42
4.87
5.50
6.05
6.31
6.19
5.67
4.82
3.76
2.55
1.26
-0.10
-1.49
-2.81
-3.98
-4.90
-5.60
-6.15
-6.68
-7.27
-7.93
-8.61
-9.22
-9.73
-10.16
-10.63
-11.30
-12.30
-13.65
-15.22
-16.73
-17.81
-18.06
-17.25
-15.35
-12.60
-9.36
-6.04
-2.96
-0.31
1.86
3.53
4.71
5.38
5.60
5.46
5.09
4.66
4.29
4.04
3.92
3.92
4.05
4.34
4.84
5.56
6.45
7.41
8.28
8.92
9.20
9.09
8.65
8.02
7.36
6.76
6.27
5.82
5.31
4.66
3.83
2.87
1.86
0.93
0.15
-0.49
-1.05
-1.59
-2.19
-2.88
-3.64
-4.41
-5.17
-5.95
-6.78
-7.76
-8.97
-10.49
-12.32
-14.38
-16.46
-18.22
-19.23
-19.12
-17.68
-15.00
-11.46
-7.56
-3.85
-0.67
1.83
3.69
5.03
5.96
6.57
6.90
7.05
7.17
7.39
7.84
8.54
9.40
10.22
10.82
11.06
10.93
10.51
9.97
9.50
9.19
9.04
8.96
8.84
8.55
8.06
7.39
6.56
5.63
4.64
3.61
2.60
1.70
1.01
0.58
0.41
0.38
0.39
0.31
0.07
-0.37
-1.04
-1.99
-3.30
-4.96
-6.86
-8.80
-10.51
-11.78
-12.59
-13.08
-13.51
-14.17
-15.24
-16.73
-18.48
-20.16
-21.36
-21.65
-20.70
-18.35
-14.66
-9.92
-4.60
0.72
5.49
9.33
12.04
13.70
14.53
14.87
15.01
15.13
15.30
15.45
15.48
15.35
15.07
14.69
14.30
13.94
13.59
13.20
12.70
12.02
11.12
9.96
8.52
6.85
5.05
3.32
1.92
1.04
0.79
1.11
1.83
2.74
3.67
4.47
5.04
5.24
4.96
4.20
3.07
1.82
0.74
0.01
-0.38
-0.61
-0.93
-1.53
-2.44
-3.61
-4.92
-6.27
-7.59
-8.83
-9.93
-10.83
-11.51
-12.08
-12.74
-13.73
-15.16
-16.97
-18.88
-20.41
-21.04
-20.41
-18.40
-15.19
-11.20
-6.97
-3.00
0.34
2.89
4.64
5.66
6.09
6.10
5.87
5.57
5.38
5.41
5.67
6.12
6.69
7.28
7.84
8.31
8.67
8.91
9.03
9.06
9.00
8.88
8.67
8.31
7.78
7.03
6.09
5.05
4.02
3.09
2.34
1.77
1.30
0.89
0.50
0.15
-0.13
-0.29
-0.32
-0.30
-0.33
-0.52
-0.92
-1.52
-2.26
-3.06
-3.86
-4.64
-5.39
-6.06
-6.64
-7.07
-7.41
-7.79
-8.38
-9.28
-10.44
-11.59
-12.33
-12.22
-11.00
-8.68
-5.55
-2.08
1.23
3.97
5.90
6.95
7.20
6.80
5.98
4.99
4.04
3.31
2.88
2.82
3.17
3.94
5.07
6.43
7.80
8.96
9.75
10.15
10.28
10.28
10.24
10.14
9.87
9.34
8.52
7.53
6.52
5.64
4.98
4.52
4.22
4.00
3.80
3.56
3.20
2.67
1.95
1.08
0.19
-0.59
-1.16
-1.56
-1.91
-2.38
-3.08
-4.01
-5.05
-6.07
-6.95
-7.66
-8.25
-8.81
-9.49
-10.37
-11.48
-12.74
-13.92
-14.68
-14.63
-13.49
-11.19
-8.00
-4.43
-1.07
1.61
3.38
4.29
4.56
4.40
3.98
3.33
2.51
1.63
0.88
0.47
0.47
0.86
1.47
2.15
2.84
3.58
4.44
5.46
6.50
7.36
7.82
7.76
7.23
6.38
5.43
4.57
3.87
3.36
2.97
2.64
2.31
1.95
1.56
1.15
0.72
0.27
-0.22
-0.73
-1.24
-1.76
-2.31
-2.96
-3.79
-4.79
-5.90
-6.95
-7.79
-8.36
-8.76
-9.20
-9.90
-10.97
-12.32
-13.66
-14.61
-14.80
-14.07
-12.44
-10.14
-7.50
-4.85
-2.47
-0.57
0.73
1.40
1.50
1.16
0.55
-0.17
-0.86
-1.47
-1.95
-2.27
-2.33
-2.08
-1.49
-0.61
0.49
1.71
2.96
4.19
5.33
6.30
6.99
7.34
7.34
7.05
6.56
5.99
5.44
4.99
4.66
4.42
4.22
4.02
3.75
3.35
2.81
2.09
1.18
0.08
-1.16
-2.47
-3.71
-4.79
-5.61
-6.18
-6.58
-7.00
-7.62
-8.56
-9.78
-11.07
-12.05
-12.30
-11.59
-9.88
-7.43
-4.63
-1.85
0.65
2.75
4.44
5.70
6.50
6.77
6.52
5.85
4.98
4.20
3.73
3.67
3.97
4.45
4.92
5.25
5.40
5.47
5.57
5.77
6.01
6.15
6.00
5.46
4.52
3.30
1.98
0.77
-0.21
-0.93
-1.42
-1.77
-2.09
-2.49
-3.04
-3.76
-4.58
-5.36
-5.95
-6.29
-6.44
-6.61
-7.02
-7.85
-9.14
-10.72
-12.30
-13.49
-13.98
-13.53
-12.08
-9.76
-6.84
-3.70
-0.72
1.78
3.63
4.80
5.37
5.53
5.41
5.17
4.89
4.61
4.38
4.19
4.10
4.11
4.26
4.54
4.87
5.17
5.36
5.40
5.31
5.16
4.99
4.81
4.59
4.32
3.98
3.58
3.12
2.62
2.05
1.39
0.66
-0.06
-0.71
-1.24
-1.67
-2.06
-2.50
-3.01
-3.58
-4.16
-4.68
-5.11
-5.48
-5.88
-6.46
-7.36
-8.66
-10.29
-12.04
-13.57
-14.47
-14.44
-13.33
-11.22
-8.38
-5.18
-2.01
0.82
3.14
4.87
6.03
6.69
6.96
6.95
6.79
6.58
6.43
6.40
6.52
6.77
7.16
7.63
8.14
8.63
9.04
9.32
9.45
9.44
9.31
9.06
8.69
8.17
7.51
6.77
6.05
5.47
5.09
4.83
4.57
4.19
3.69
3.17
2.82
2.73
2.88
3.10
3.16
2.90
2.28
1.40
0.40
-0.60
-1.55
-2.45
-3.37
-4.37
-5.51
-6.77
-8.05
-9.23
-10.17
-10.84
-11.30
-11.72
-12.27
-13.11
-14.25
-15.64
-17.10
-18.37
-19.10
-18.95
-17.64
-15.13
-11.65
-7.67
-3.77
-0.42
2.12
3.83
4.82
5.29
5.40
5.26
5.02
4.81
4.75
4.93
5.40
6.11
6.99
7.89
8.71
9.38
9.91
10.36
10.79
11.20
11.48
11.48
11.10
10.33
9.29
8.16
7.07
6.10
5.23
4.44
3.71
3.08
2.60
2.28
2.09
1.95
1.74
1.42
0.96
0.44
-0.07
-0.47
-0.71
-0.82
-0.83
-0.82
-0.80
-0.81
-0.87
-1.03
-1.38
-1.98
-2.83
-3.84
-4.90
-5.91
-6.90
-7.96
-9.24
-10.81
-12.54
-14.10
-15.05
-14.96
-13.58
-10.93
-7.30
-3.18
0.86
4.32
6.87
8.43
9.12
9.24
9.09
8.93
8.97
9.28
9.92
10.90
12.19
13.76
15.59
17.71
20.24
23.36
27.09
31.24
35.25
38.33
39.67
38.83
35.82
31.21
25.83
20.48
15.66
11.54
7.99
4.80
1.83
-0.91
-3.36
-5.49
-7.39
-9.21
-11.10
-13.05
-14.90
-16.43
-17.46
-17.94
-18.03
-17.97
-17.98
-18.19
-18.61
-19.20
-19.89
-20.64
-21.43
-22.27
-23.18
-24.15
-25.17
-26.05
-26.53
-26.23
-24.86
-22.30
-18.69
-14.45
-10.08
-6.07
-2.76
-0.29
1.38
2.35
2.75
2.69
2.25
1.59
0.94
0.57
0.70
1.40
2.54
3.82
4.90
5.51
5.61
5.29
4.76
4.22
3.80
3.58
3.60
3.89
4.42
5.12
5.85
6.49
6.90
7.03
6.87
6.43
5.73
4.76
3.57
2.22
0.81
-0.54
-1.71
-2.61
-3.23
-3.62
-3.85
-4.03
-4.22
-4.45
-4.69
-4.92
-5.08
-5.16
-5.21
-5.30
-5.51
-5.89
-6.39
-6.92
-7.38
-7.71
-7.98
-8.31
-8.87
-9.78
-11.07
-12.65
-14.28
-15.63
-16.28
-15.86
-14.18
-11.33
-7.67
-3.78
-0.21
2.61
4.56
5.74
6.40
6.74
6.89
6.88
6.68
6.33
5.94
5.65
5.59
5.80
6.24
6.78
7.29
7.70
8.02
8.32
8.67
9.07
9.46
9.72
9.69
9.28
8.50
7.44
6.31
5.29
4.54
4.11
3.97
3.99
4.02
3.91
3.58
3.04
2.38
1.72
1.14
0.70
0.35
0.02
-0.39
-0.96
-1.69
-2.56
-3.49
-4.42
-5.29
-6.12
-6.93
-7.77
-8.65
-9.60
-10.63
-11.72
-12.82
-13.81
-14.44
-14.42
-13.52
-11.64
-8.92
-5.69
-2.39
0.62
3.10
4.97
6.28
7.08
7.42
7.28
6.68
5.71
4.53
3.40
2.61
2.40
2.86
3.95
5.46
7.08
8.50
9.50
9.96
9.92
9.47
8.76
7.89
6.96
6.01
5.07
4.23
3.55
3.04
2.68
2.35
1.88
1.16
0.14
-1.09
-2.36
-3.53
-4.51
-5.32
-6.03
-6.75
-7.54
-8.41
-9.36
-10.37
-11.41
-12.43
-13.29
-13.81
-13.75
-12.90
-11.16
-8.59
-5.46
-2.16
0.89
3.36
5.10
6.13
6.61
6.74
6.69
6.56
6.37
6.11
5.77
5.39
5.06
4.86
4.89
5.15
5.62
6.22
6.84
7.38
7.76
7.94
7.89
7.61
7.10
6.42
5.67
4.95
4.30
3.75
3.27
2.81
2.33
1.81
1.27
0.72
0.14
-0.49
-1.16
-1.87
-2.63
-3.41
-4.23
-5.07
-5.94
-6.81
-7.67
-8.55
-9.51
-10.65
-12.04
-13.62
-15.17
-16.32
-16.67
-15.90
-13.93
-10.98
-7.46
-3.89
-0.70
1.85
3.72
5.00
5.84
6.34
6.54
6.45
6.13
5.74
5.47
5.47
5.80
6.39
7.10
7.75
8.23
8.52
8.66
8.70
8.69
8.62
8.46
8.14
7.62
6.90
6.05
5.20
4.45
3.89
3.49
3.18
2.89
2.57
2.22
1.83
1.42
0.98
0.52
0.05
-0.38
-0.75
-1.11
-1.57
-2.26
-3.28
-4.61
-6.11
-7.56
-8.80
-9.77
-10.59
-11.44
-12.58
-14.11
-15.97
-17.84
-19.27
-19.78
-19.06
-17.07
-14.02
-10.35
-6.51
-2.92
0.18
2.65
4.41
5.46
5.82
5.59
4.98
4.24
3.64
3.36
3.49
4.04
4.92
6.07
7.35
8.66
9.87
10.88
11.62
12.06
12.22
12.12
11.81
11.34
10.73
9.98
9.12
8.19
7.26
6.46
5.87
5.55
5.40
5.29
5.00
4.42
3.53
2.49
1.51
0.81
0.51
0.55
0.75
0.86
0.66
0.04
-0.94
-2.15
-3.39
-4.54
-5.54
-6.44
-7.29
-8.18
-9.16
-10.27
-11.51
-12.82
-14.05
-14.91
-15.06
-14.20
-12.22
-9.24
-5.60
-1.79
1.77
4.73
6.91
8.26
8.82
8.71
8.06
7.07
5.94
4.86
4.02
3.56
3.53
3.92
4.61
5.45
6.27
6.94
7.39
7.64
7.73
7.71
7.61
7.45
7.19
6.86
6.49
6.14
5.89
5.81
5.90
6.09
6.27
6.32
6.14
5.72
5.11
4.41
3.68
2.94
2.16
1.28
0.31
-0.72
-1.75
-2.74
-3.72
-4.74
-5.83
-6.97
-8.08
-9.02
-9.71
-10.18
-10.55
-11.05
-11.85
-13.03
-14.46
-15.82
-16.67
-16.57
-15.19
-12.55
-8.95
-4.91
-1.06
2.11
4.34
5.64
6.15
6.08
5.62
4.89
3.99
3.07
2.29
1.83
1.76
2.06
2.61
3.28
3.95
4.59
5.20
5.81
6.38
6.85
7.11
7.06
6.64
5.86
4.81
3.71
2.79
2.24
2.10
2.23
2.40
2.34
1.94
1.27
0.52
-0.10
-0.53
-0.89
-1.34
-2.00
-2.85
-3.71
-4.35
-4.70
-4.84
-4.99
-5.37
-6.10
-7.17
-8.44
-9.74
-10.84
-11.52
-11.57
-10.83
-9.24
-6.85
-3.88
-0.65
2.48
5.22
7.32
8.67
9.28
9.27
8.81
8.08
7.23
6.35
5.53
4.86
4.48
4.54
5.06
5.98
7.09
8.14
8.92
9.30
9.26
8.81
8.05
7.06
5.90
4.65
3.38
2.18
1.11
0.25
-0.38
-0.80
-1.10
-1.37
-1.62
-1.86
-2.03
-2.10
-2.07
-2.08
-2.24
-2.67
-3.39
-4.29
-5.21
-5.97
-6.45
-6.66
-6.71
-6.81
-7.23
-8.14
-9.57
-11.32
-13.01
-14.09
-14.12
-12.84
-10.31
-6.90
-3.16
0.34
3.17
5.16
6.36
6.96
7.15
7.06
6.73
6.18
5.48
4.80
4.32
4.21
4.50
5.10
5.83
6.53
7.10
7.55
7.95
8.34
8.67
8.79
8.56
7.89
6.82
5.54
4.27
3.23
2.54
2.17
2.01
1.93
1.80
1.53
1.12
0.57
-0.07
-0.74
-1.37
-1.93
-2.40
-2.82
-3.28
-3.87
-4.59
-5.40
-6.16
-6.75
-7.10
-7.21
-7.22
-7.31
-7.62
-8.29
-9.36
-10.79
-12.36
-13.78
-14.68
-14.76
-13.88
-12.13
-9.75
-7.07
-4.42
-2.04
-0.04
1.52
2.66
3.44
3.92
4.20
4.34
4.41
4.44
4.45
4.46
4.52
4.65
4.89
5.27
5.79
6.42
7.07
7.66
8.08
8.24
8.12
7.72
7.08
6.25
5.29
4.28
3.31
2.43
1.69
1.09
0.64
0.30
0.00
-0.32
-0.77
-1.40
-2.23
-3.21
-4.28
-5.32
-6.27
-7.08
-7.74
-8.31
-8.91
-9.68
-10.69
-11.90
-13.08
-13.81
-13.65
-12.35
-9.93
-6.77
-3.42
-0.44
1.83
3.28
4.02
4.24
4.14
3.87
3.54
3.27
3.10
3.11
3.32
3.71
4.26
4.92
5.60
6.22
6.71
7.02
7.15
7.18
7.17
7.15
7.11
6.95
6.56
5.88
4.90
3.70
2.41
1.18
0.13
-0.70
-1.35
-1.92
-2.50
-3.13
-3.74
-4.28
-4.64
-4.85
-4.95
-5.04
-5.17
-5.33
-5.45
-5.50
-5.49
-5.46
-5.45
-5.44
-5.41
-5.37
-5.34
-5.39
-5.50
-5.52
-5.17
-4.15
-2.30
0.32
3.36
6.40
9.05
11.16
12.73
13.88
14.67
15.02
14.76
13.73
11.87
9.30
6.34
3.37
0.75
-1.26
-2.52
-3.05
-2.93
-2.34
-1.46
-0.50
0.37
1.03
1.40
1.44
1.14
0.50
-0.44
-1.61
-2.88
-4.09
-5.11
-5.89
-6.44
-6.85
-7.24
-7.67
-8.16
-8.71
-9.29
-9.85
-10.39
-10.91
-11.43
-11.98
-12.58
-13.26
-14.03
-14.93
-15.95
-17.04
-18.04
-18.64
-18.47
-17.25
-14.92
-11.70
-8.00
-4.30
-0.96
1.82
4.01
5.64
6.77
7.51
7.99
8.38
8.81
9.32
9.83
10.20
10.33
10.21
9.97
9.74
9.59
9.51
9.43
9.28
9.06
8.79
8.48
8.09
7.56
6.81
5.88
4.87
3.96
3.32
3.01
2.97
3.04
3.02
2.79
2.31
1.68
1.06
0.62
0.49
0.64
0.96
1.21
1.18
0.73
-0.12
-1.23
-2.41
-3.46
-4.29
-4.96
-5.57
-6.32
-7.33
-8.64
-10.20
-11.81
-13.19
-14.01
-13.98
-12.93
-10.92
-8.19
-5.15
-2.23
0.26
2.17
3.52
4.41
4.98
5.33
5.55
5.69
5.83
6.02
6.32
6.71
7.17
7.64
8.07
8.45
8.78
9.06
9.32
9.57
9.80
9.97
10.06
10.04
9.87
9.54
9.03
8.34
7.55
6.75
6.04
5.50
5.12
4.82
4.52
4.13
3.67
3.19
2.78
2.48
2.24
1.96
1.53
0.92
0.19
-0.55
-1.18
-1.64
-1.99
-2.34
-2.82
-3.56
-4.56
-5.75
-7.01
-8.26
-9.48
-10.71
-11.92
-12.99
-13.63
-13.51
-12.40
-10.26
-7.30
-3.97
-0.76
1.94
3.91
5.14
5.77
6.02
6.11
6.20
6.39
6.70
7.06
7.42
7.69
7.88
8.02
8.19
8.42
8.70
8.97
9.15
9.22
9.18
9.04
8.87
8.66
8.43
8.17
7.87
7.54
7.15
6.73
6.26
5.78
5.33
4.93
4.57
4.23
3.90
3.57
3.28
3.07
2.96
2.89
2.76
2.50
2.06
1.44
0.73
0.03
-0.53
-0.87
-0.97
-0.93
-0.89
-1.06
-1.59
-2.55
-3.90
-5.52
-7.25
-8.87
-10.17
-10.88
-10.81
-9.90
-8.29
-6.26
-4.20
-2.44
-1.13
-0.29
0.19
0.40
0.35
-0.02
-0.79
-1.96
-3.40
-4.87
-6.09
-6.85
-7.09
-6.91
-6.51
-6.08
-5.74
-5.45
-5.10
-4.62
-3.99
-3.32
-2.74
-2.35
-2.15
-2.08
-2.04
-1.96
-1.86
-1.83
-1.96
-2.33
-2.92
-3.59
-4.20
-4.63
-4.87
-5.00
-5.15
-5.43
-5.86
-6.38
-6.92
-7.46
-8.05
-8.77
-9.70
-10.80
-11.94
-12.90
-13.46
-13.45
-12.77
-11.38
-9.34
-6.80
-4.01
-1.28
1.11
2.96
4.21
4.96
5.34
5.51
5.54
5.44
5.24
5.00
4.85
4.94
5.34
6.02
6.83
7.60
8.21
8.59
8.80
8.85
8.74
8.41
7.78
6.85
5.68
4.43
3.24
2.21
1.33
0.52
-0.25
-1.01
-1.70
-2.25
-2.60
-2.77
-2.83
-2.89
-3.06
-3.41
-3.96
-4.64
-5.31
-5.83
-6.08
-6.04
-5.86
-5.76
-5.97
-6.59
-7.46
-8.22
-8.38
-7.55
-5.53
-2.41
1.50
5.75
9.87
13.48
16.33
18.32
19.54
20.12
20.26
20.09
19.68
19.06
18.26
17.34
16.43
15.63
15.00
14.47
13.86
13.00
11.80
10.29
8.62
6.96
5.43
4.04
2.71
1.34
-0.13
-1.69
-3.25
-4.74
-6.11
-7.34
-8.41
-9.26
-9.85
-10.17
-10.27
-10.30
-10.39
-10.62
-11.01
-11.46
-11.89
-12.20
-12.36
-12.39
-12.30
-12.16
-12.06
-12.12
-12.45
-13.12
-14.10
-15.24
-16.28
-16.97
-17.00
-16.19
-14.47
-11.91
-8.81
-5.56
-2.59
-0.23
1.40
2.37
2.91
3.21
3.40
3.49
3.41
3.17
2.83
2.57
2.55
2.86
3.48
4.28
5.13
5.93
6.66
7.29
7.78
8.06
8.04
7.68
7.03
6.19
5.32
4.54
3.94
3.52
3.23
2.99
2.71
2.31
1.77
1.09
0.35
-0.36
-1.00
-1.55
-2.06
-2.62
-3.29
-4.09
-4.96
-5.84
-6.69
-7.52
-8.39
-9.36
-10.44
-11.65
-12.95
-14.33
-15.69
-16.88
-17.64
-17.66
-16.71
-14.74
-11.96
-8.75
-5.56
-2.78
-0.63
0.84
1.69
2.02
1.96
1.63
1.17
0.70
0.33
0.10
0.04
0.15
0.43
0.87
1.42
1.95
2.32
2.44
2.30
2.00
1.72
1.62
1.75
2.03
2.32
2.48
2.44
2.27
2.08
1.97
1.97
2.01
1.98
1.75
1.31
0.71
0.01
-0.68
-1.35
-2.01
-2.69
-3.42
-4.17
-4.94
-5.76
-6.74
-8.00
-9.67
-11.72
-13.96
-15.95
-17.20
-17.27
-15.99
-13.54
-10.36
-7.02
-4.00
-1.58
0.19
1.35
1.97
2.06
1.63
0.76
-0.34
-1.32
-1.86
-1.75
-0.97
0.32
1.87
3.43
4.83
5.98
6.85
7.43
7.73
7.76
7.57
7.27
6.94
6.65
6.37
6.03
5.54
4.93
4.28
3.76
3.55
3.69
4.10
4.58
4.89
4.91
4.62
4.11
3.53
2.94
2.38
1.78
1.02
-0.02
-1.48
-3.46
-5.92
-8.65
-11.20
-13.03
-13.61
-12.66
-10.30
-6.98
-3.37
-0.05
2.60
4.46
5.59
6.13
6.19
5.83
5.10
4.11
3.01
1.98
1.20
0.78
0.78
1.20
1.97
3.00
4.15
5.30
6.36
7.28
8.08
8.77
9.31
9.65
9.72
9.48
8.93
8.16
7.26
6.29
5.34
4.42
3.55
2.73
1.98
1.33
0.79
0.35
-0.05
-0.50
-1.08
-1.82
-2.69
-3.63
-4.53
-5.39
-6.26
-7.27
-8.46
-9.76
-10.91
-11.54
-11.29
-9.93
-7.47
-4.12
-0.26
3.71
7.39
10.48
12.81
14.33
15.12
15.33
15.16
14.78
14.30
13.79
13.31
12.92
12.71
12.73
12.99
13.43
13.95
14.44
14.79
14.95
14.87
14.53
13.90
12.99
11.83
10.48
9.05
7.67
6.44
5.47
4.78
4.30
3.89
3.43
2.81
2.06
1.25
0.51
-0.13
-0.70
-1.31
-2.03
-2.87
-3.76
-4.64
-5.48
-6.30
-7.17
-8.10
-9.11
-10.18
-11.36
-12.69
-14.20
-15.75
-17.01
-17.51
-16.81
-14.71
-11.34
-7.20
-2.95
0.82
3.76
5.77
7.01
7.69
8.00
8.03
7.84
7.48
7.07
6.79
6.81
7.22
7.99
8.90
9.75
10.34
10.60
10.59
10.40
10.10
9.71
9.19
8.51
7.74
6.98
6.36
5.92
5.60
5.28
4.83
4.21
3.44
2.60
1.77
1.02
0.35
-0.26
-0.84
-1.43
-2.02
-2.60
-3.13
-3.55
-3.86
-4.09
-4.32
-4.64
-5.15
-5.95
-7.12
-8.70
-10.65
-12.82
-14.90
-16.47
-17.13
-16.55
-14.70
-11.76
-8.18
-4.51
-1.28
1.19
2.79
3.68
4.10
4.29
4.35
4.26
3.92
3.31
2.52
1.76
1.25
1.10
1.24
1.53
1.82
2.07
2.38
2.86
3.56
4.32
4.88
4.95
4.37
3.24
1.82
0.50
-0.44
-0.88
-0.92
-0.73
-0.51
-0.31
0.08
1.12
3.48
7.77
14.38
23.17
33.40
43.69
52.25
57.20
57.00
51.02
39.76
24.90
8.91
-5.68
-16.94
-23.99
-27.00
-26.88
-24.75
-21.61
-18.17
-14.88
-12.12
-10.15
-9.10
-8.94
-9.43
-10.20
-10.92
-11.36
-11.47
-11.35
-11.22
-11.25
-11.49
-11.83
-12.01
-11.76
-10.97
-9.75
-8.42
-7.34
-6.75
-6.65
-6.82
-7.00
-7.02
-6.85
-6.64
-6.55
-6.71
-7.16
-7.81
-8.55
-9.26
-9.82
-10.15
-10.25
-10.21
-10.14
-10.19
-10.45
-10.94
-11.64
-12.51
-13.50
-14.48
-15.25
-15.49
-14.90
-13.32
-10.82
-7.78
-4.66
-1.95
0.11
1.50
2.39
2.98
3.39
3.63
3.65
3.38
2.84
2.14
1.43
0.90
0.66
0.79
1.26
1.97
2.77
3.49
4.01
4.27
4.29
4.13
3.85
3.49
3.04
2.50
1.87
1.18
0.49
-0.18
-0.82
-1.44
-2.08
-2.75
-3.43
-4.07
-4.66
-5.19
-5.74
-6.39
-7.25
-8.43
-9.93
-11.68
-13.41
-14.74
-15.25
-14.62
-12.76
-9.86
-6.35
-2.74
0.48
2.99
4.66
5.54
5.79
5.65
5.34
4.98
4.64
4.31
4.00
3.76
3.71
3.92
4.42
5.07
5.71
6.17
6.41
6.51
6.58
6.70
6.79
6.67
6.19
5.26
3.97
2.54
1.21
0.14
-0.61
-1.08
-1.38
-1.63
-1.92
-2.30
-2.82
-3.49
-4.29
-5.20
-6.18
-7.22
-8.31
-9.49
-10.77
-12.17
-13.72
-15.38
-17.00
-18.27
-18.76
-18.06
-15.97
-12.66
-8.61
-4.49
-0.90
1.86
3.80
5.12
6.04
6.66
6.94
6.86
6.48
6.02
5.75
5.91
6.55
7.56
8.67
9.61
10.23
10.49
10.49
10.38
10.22
10.00
9.66
9.10
8.35
7.53
6.81
6.35
6.19
6.25
6.37
6.38
6.18
5.79
5.30
4.80
4.36
3.95
3.51
2.96
2.25
1.34
0.28
-0.89
-2.11
-3.31
-4.45
-5.47
-6.39
-7.29
-8.33
-9.69
-11.52
-13.76
-16.06
-17.91
-18.70
-17.98
-15.64
-11.95
-7.49
-2.95
1.03
4.09
6.10
7.18
7.57
7.52
7.23
6.81
6.30
5.75
5.30
5.11
5.37
6.18
7.46
8.97
10.43
11.59
12.35
12.75
12.90
12.88
12.70
12.29
11.63
10.74
9.75
8.82
8.06
7.52
7.11
6.71
6.23
5.66
5.08
4.63
4.37
4.26
4.12
3.74
2.98
1.84
0.53
-0.72
-1.71
-2.39
-2.92
-3.55
-4.54
-6.07
-8.13
-10.55
-13.01
-15.08
-16.35
-16.43
-15.13
-12.47
-8.76
-4.50
-0.30
3.29
5.88
7.36
7.84
7.55
6.78
5.76
4.67
3.63
2.81
2.33
2.29
2.73
3.56
4.63
5.79
6.90
7.87
8.64
9.18
9.45
9.41
9.06
8.39
7.45
6.30
5.04
3.77
2.61
1.66
0.98
0.56
0.32
0.16
-0.06
-0.43
-0.92
-1.49
-2.02
-2.48
-2.90
-3.42
-4.19
-5.33
-6.85
-8.63
-10.42
-11.83
-12.48
-12.05
-10.40
-7.67
-4.19
-0.47
3.00
5.86
7.92
9.15
9.62
9.45
8.84
8.02
7.19
6.52
6.10
5.94
6.01
6.34
6.95
7.86
9.01
10.19
11.18
11.78
11.91
11.62
11.07
10.40
9.65
8.84
7.91
6.83
5.62
4.31
3.00
1.79
0.77
0.00
-0.50
-0.81
-1.07
-1.40
-1.87
-2.48
-3.17
-3.84
-4.42
-4.88
-5.25
-5.55
-5.83
-6.16
-6.60
-7.25
-8.19
-9.44
-10.89
-12.31
-13.32
-13.57
-12.79
-10.96
-8.33
-5.33
-2.46
-0.09
1.58
2.57
3.03
3.14
3.07
2.91
2.68
2.41
2.13
1.91
1.86
2.07
2.59
3.37
4.30
5.23
6.03
6.61
6.97
7.12
7.02
6.64
5.89
4.77
3.32
1.68
0.05
-1.40
-2.56
-3.39
-3.97
-4.40
-4.78
-5.19
-5.62
-6.02
-6.32
-6.52
-6.66
-6.90
-7.37
-8.21
-9.36
-10.60
-11.57
-11.87
-11.22
-9.55
-7.10
-4.26
-1.46
0.95
2.81
4.17
5.13
5.81
6.24
6.41
6.28
5.87
5.25
4.56
3.95
3.57
3.51
3.82
4.48
5.39
6.43
7.41
8.16
8.52
8.40
7.79
6.78
5.51
4.12
2.75
1.49
0.38
-0.60
-1.48
-2.30
-3.12
-3.97
-4.86
-5.75
-6.58
-7.23
-7.66
-7.90
-8.08
-8.43
-9.15
-10.36
-11.93
-13.51
-14.62
-14.80
-13.81
-11.71
-8.86
-5.74
-2.83
-0.41
1.37
2.56
3.22
3.49
3.47
3.30
3.08
2.89
2.77
2.72
2.67
2.62
2.59
2.63
2.79
3.08
3.48
3.91
4.28
4.50
4.52
4.34
3.97
3.45
2.82
2.15
1.50
0.95
0.50
0.14
-0.19
-0.58
-1.09
-1.73
-2.48
-3.28
-4.04
-4.71
-5.23
-5.59
-5.79
-5.89
-6.02
-6.32
-6.93
-7.89
-9.14
-10.45
-11.53
-12.03
-11.73
-10.54
-8.55
-6.02
-3.26
-0.59
1.77
3.69
5.15
6.18
6.85
7.23
7.41
7.49
7.57
7.70
7.91
8.13
8.27
8.26
8.15
8.04
8.10
8.43
9.03
9.76
10.40
10.76
10.69
10.18
9.28
8.06
6.62
5.01
3.31
1.59
-0.06
-1.51
-2.71
-3.66
-4.40
-5.03
-5.64
-6.20
-6.63
-6.83
-6.70
-6.27
-5.68
-5.13
-4.83
-4.88
-5.23
-5.76
-6.37
-6.99
-7.68
-8.52
-9.60
-10.96
-12.55
-14.27
-15.89
-17.16
-17.77
-17.49
-16.19
-13.94
-11.01
-7.79
-4.66
-1.95
0.18
1.69
2.64
3.09
3.18
3.00
2.69
2.37
2.18
2.25
2.67
3.45
4.52
5.72
6.88
7.83
8.51
8.92
9.12
9.19
9.23
9.32
9.53
9.92
10.45
11.00
11.39
11.45
11.13
10.50
9.69
8.84
8.02
7.20
6.35
5.44
4.54
3.70
2.96
2.26
1.49
0.53
-0.65
-2.03
-3.50
-4.95
-6.29
-7.47
-8.45
-9.23
-9.82
-10.31
-10.84
-11.54
-12.53
-13.84
-15.35
-16.80
-17.77
-17.87
-16.81
-14.53
-11.26
-7.42
-3.51
0.02
2.91
5.01
6.33
6.93
6.92
6.46
5.74
5.00
4.47
4.28
4.50
5.07
5.88
6.81
7.75
8.62
9.37
9.96
10.38
10.63
10.70
10.59
10.26
9.68
8.86
7.84
6.74
5.71
4.88
4.30
3.93
3.66
3.39
3.04
2.63
2.21
1.81
1.45
1.10
0.72
0.28
-0.22
-0.76
-1.33
-1.99
-2.77
-3.73
-4.84
-6.04
-7.20
-8.24
-9.12
-9.92
-10.79
-11.89
-13.28
-14.82
-16.25
-17.14
-17.09
-15.86
-13.43
-10.03
-6.11
-2.17
1.34
4.12
6.04
7.13
7.54
7.44
7.00
6.36
5.61
4.88
4.34
4.14
4.40
5.08
6.03
7.02
7.81
8.30
8.51
8.58
8.65
8.72
8.71
8.47
7.92
7.10
6.14
5.20
4.34
3.54
2.73
1.85
0.95
0.15
-0.43
-0.77
-0.92
-1.03
-1.28
-1.78
-2.59
-3.66
-4.91
-6.17
-7.28
-8.08
-8.49
-8.56
-8.40
-8.20
-8.14
-8.35
-8.92
-9.83
-10.90
-11.84
-12.23
-11.68
-9.95
-7.09
-3.42
0.52
4.19
7.15
9.23
10.46
10.97
10.90
10.28
9.11
7.41
5.34
3.18
1.31
0.06
-0.41
-0.18
0.49
1.32
2.07
2.66
3.15
3.61
4.11
4.66
5.18
5.59
5.81
5.77
5.47
4.99
4.41
3.81
3.24
2.73
2.26
1.79
1.27
0.68
-0.04
-0.91
-1.95
-3.09
-4.25
-5.31
-6.17
-6.80
-7.28
-7.75
-8.40
-9.38
-10.74
-12.39
-14.10
-15.53
-16.29
-16.07
-14.75
-12.41
-9.36
-6.03
-2.84
-0.07
2.17
3.94
5.31
6.34
6.98
7.15
6.84
6.15
5.34
4.70
4.45
4.65
5.17
5.83
6.44
6.91
7.22
7.42
7.51
7.49
7.30
6.93
6.42
5.84
5.30
4.82
4.40
3.99
3.53
2.99
2.35
1.62
0.78
-0.16
-1.16
-2.16
-3.12
-3.96
-4.67
-5.27
-5.81
-6.39
-7.11
-8.12
-9.51
-11.31
-13.33
-15.19
-16.38
-16.41
-15.04
-12.35
-8.79
-4.96
-1.45
1.35
3.30
4.47
5.03
5.19
5.14
5.03
4.95
4.97
5.11
5.36
5.71
6.18
6.75
7.38
7.99
8.51
8.87
9.07
9.17
9.21
9.17
8.99
8.57
7.85
6.84
5.62
4.33
3.07
1.93
0.95
0.14
-0.45
-0.82
-0.97
-0.95
-0.85
-0.77
-0.79
-0.96
-1.28
-1.73
-2.24
-2.76
-3.21
-3.56
-3.81
-4.04
-4.42
-5.13
-6.31
-7.96
-9.89
-11.72
-12.99
-13.26
-12.31
-10.15
-7.07
-3.54
-0.10
2.81
4.92
6.18
6.74
6.83
6.68
6.43
6.11
5.71
5.24
4.78
4.45
4.35
4.46
4.69
4.90
5.00
5.02
5.12
5.39
5.81
6.19
6.25
5.79
4.79
3.50
2.25
1.31
0.77
0.51
0.32
0.05
-0.33
-0.74
-1.08
-1.30
-1.46
-1.65
-1.96
-2.42
-2.98
-3.59
-4.22
-4.88
-5.59
-6.37
-7.24
-8.22
-9.30
-10.51
-11.77
-12.87
-13.52
-13.40
-12.26
-10.09
-7.09
-3.65
-0.24
2.80
5.24
7.07
8.32
9.07
9.36
9.20
8.65
7.80
6.81
5.85
5.05
4.43
3.93
3.45
2.92
2.35
1.80
1.33
0.98
0.72
0.50
0.27
-0.01
-0.34
-0.70
-1.04
-1.30
-1.43
-1.43
-1.33
-1.21
-1.13
-1.15
-1.25
-1.40
-1.56
-1.73
-1.97
-2.33
-2.85
-3.50
-4.18
-4.83
-5.40
-5.92
-6.46
-7.14
-8.06
-9.30
-10.90
-12.85
-14.99
-16.98
-18.35
-18.60
-17.40
-14.78
-11.08
-6.90
-2.85
0.61
3.31
5.25
6.51
7.15
7.25
6.89
6.25
5.56
5.04
4.80
4.85
5.12
5.53
6.08
6.78
7.65
8.62
9.58
10.37
10.89
11.09
10.97
10.61
10.07
9.43
8.76
8.12
7.56
7.14
6.84
6.64
6.45
6.20
5.88
5.54
5.25
5.09
5.06
5.10
5.05
4.77
4.19
3.29
2.17
0.92
-0.34
-1.55
-2.70
-3.85
-5.10
-6.59
-8.42
-10.58
-12.93
-15.12
-16.69
-17.19
-16.36
-14.23
-11.15
-7.60
-4.16
-1.22
0.99
2.44
3.21
3.48
3.42
3.24
3.11
3.14
3.38
3.77
4.23
4.66
5.02
5.35
5.66
5.98
6.33
6.67
6.93
7.01
6.78
6.15
5.10
3.77
2.37
1.12
0.18
-0.46
-0.87
-1.19
-1.48
-1.74
-1.92
-1.99
-1.92
-1.72
-1.39
-0.94
-0.41
0.09
0.44
0.52
0.23
-0.40
-1.27
-2.24
-3.20
-4.09
-4.94
-5.88
-7.04
-8.57
-10.42
-12.39
-14.08
-15.02
-14.85
-13.40
-10.81
-7.44
-3.73
-0.16
2.95
5.37
7.01
7.91
8.16
7.92
7.40
6.80
6.26
5.91
5.79
5.89
6.16
6.52
6.87
7.19
7.50
7.85
8.29
8.81
9.29
9.60
9.59
9.22
8.52
7.59
6.56
5.49
4.43
3.40
2.48
1.71
1.12
0.66
0.24
-0.28
-1.01
-1.97
-3.09
-4.28
-5.43
-6.49
-7.44
-8.30
-9.12
-9.96
-10.89
-12.00
-13.33
-14.89
-16.53
-17.97
-18.80
-18.68
-17.37
-14.94
-11.68
-8.05
-4.51
-1.41
1.05
2.81
3.90
4.41
4.50
4.38
4.24
4.25
4.44
4.76
5.12
5.45
5.76
6.09
6.51
7.05
7.68
8.33
8.91
9.32
9.48
9.31
8.82
8.05
7.09
6.04
4.97
3.91
2.89
1.96
1.16
0.52
0.06
-0.24
-0.44
-0.61
-0.83
-1.17
-1.68
-2.37
-3.21
-4.15
-5.10
-5.99
-6.76
-7.40
-7.91
-8.36
-8.82
-9.44
-10.28
-11.33
-12.40
-13.13
-13.13
-12.10
-9.99
-7.02
-3.63
-0.30
2.58
4.79
6.29
7.17
7.54
7.53
7.28
6.93
6.63
6.48
6.54
6.78
7.12
7.49
7.82
8.09
8.29
8.42
8.46
8.41
8.28
8.09
7.83
7.49
6.96
6.19
5.14
3.92
2.69
1.68
1.01
0.70
0.60
0.53
0.28
-0.23
-0.99
-1.91
-2.87
-3.76
-4.51
-5.10
-5.52
-5.79
-5.94
-6.06
-6.20
-6.45
-6.88
-7.54
-8.40
-9.41
-10.47
-11.48
-12.44
-13.35
-14.23
-15.02
-15.48
-15.29
-14.16
-12.00
-8.98
-5.56
-2.28
0.47
2.52
3.97
5.02
5.85
6.52
6.97
7.13
6.96
6.57
6.13
5.81
5.75
5.97
6.44
7.03
7.61
8.11
8.46
8.67
8.74
8.65
8.40
7.98
7.37
6.60
5.70
4.71
3.72
2.78
2.00
1.43
1.08
0.90
0.81
0.69
0.45
0.05
-0.49
-1.14
-1.88
-2.69
-3.53
-4.35
-5.08
-5.69
-6.26
-6.92
-7.77
-8.78
-9.76
-10.39
-10.33
-9.41
-7.67
-5.34
-2.78
-0.26
2.01
3.97
5.59
6.80
7.53
7.73
7.45
6.87
6.23
5.76
5.53
5.51
5.52
5.45
5.24
4.97
4.79
4.79
5.01
5.36
5.71
5.95
6.05
6.00
5.85
5.65
5.41
5.10
4.68
4.10
3.36
2.53
1.74
1.14
0.81
0.74
0.83
0.86
0.67
0.13
-0.73
-1.78
-2.85
-3.80
-4.55
-5.12
-5.60
-6.07
-6.65
-7.41
-8.41
-9.68
-11.12
-12.50
-13.45
-13.53
-12.44
-10.14
-6.89
-3.22
0.28
3.16
5.21
6.50
7.22
7.61
7.83
8.00
8.17
8.38
8.64
8.93
9.19
9.34
9.33
9.15
8.80
8.35
7.87
7.47
7.24
7.23
7.42
7.67
7.78
7.59
7.01
6.13
5.11
4.15
3.39
2.84
2.47
2.23
2.05
1.90
1.74
1.50
1.13
0.59
-0.07
-0.82
-1.59
-2.41
-3.29
-4.29
-5.41
-6.57
-7.67
-8.61
-9.33
-9.87
-10.32
-10.79
-11.33
-12.00
-12.82
-13.81
-14.92
-16.04
-16.90
-17.14
-16.45
-14.64
-11.83
-8.41
-4.90
-1.82
0.54
2.10
2.94
3.23
3.13
2.76
2.28
1.88
1.77
2.09
2.82
3.82
4.82
5.63
6.14
6.35
6.37
6.31
6.25
6.23
6.22
6.18
6.03
5.74
5.30
4.73
4.10
3.48
2.94
2.51
2.20
1.98
1.84
1.75
1.71
1.70
1.72
1.74
1.75
1.70
1.54
1.23
0.73
0.04
-0.80
-1.70
-2.59
-3.37
-4.02
-4.55
-5.04
-5.61
-6.38
-7.43
-8.73
-10.14
-11.40
-12.24
-12.42
-11.79
-10.34
-8.18
-5.57
-2.85
-0.37
1.57
2.82
3.40
3.48
3.31
3.08
2.84
2.61
2.34
2.07
1.93
2.09
2.65
3.58
4.73
5.91
6.94
7.73
8.25
8.55
8.62
8.45
8.06
7.49
6.82
6.15
5.57
5.09
4.66
4.22
3.70
3.06
2.26
1.32
0.32
-0.66
-1.51
-2.14
-2.57
-2.91
-3.33
-4.01
-5.02
-6.29
-7.61
-8.74
-9.47
-9.75
-9.68
-9.46
-9.32
-9.43
-9.84
-10.53
-11.39
-12.23
-12.83
-12.92
-12.33
-11.02
-9.08
-6.76
-4.34
-2.06
-0.01
1.74
3.19
4.26
4.88
5.01
4.72
4.14
3.46
2.82
2.30
2.00
1.99
2.37
3.17
4.32
5.60
6.75
7.51
7.77
7.56
6.99
6.15
5.07
3.71
2.03
0.04
-2.09
-4.12
-5.80
-6.93
-7.50
-7.59
-7.42
-7.22
-7.16
-7.31
-7.68
-8.20
-8.77
-9.31
-9.76
-10.07
-10.20
-10.19
-10.15
-10.25
-10.70
-11.57
-12.79
-14.04
-14.83
-14.69
-13.37
-10.91
-7.66
-4.13
-0.83
1.91
3.92
5.20
5.82
5.90
5.61
5.14
4.70
4.48
4.52
4.80
5.17
5.48
5.66
5.70
5.71
5.82
6.12
6.64
7.33
8.04
8.61
8.91
8.88
8.53
7.98
7.33
6.70
6.16
5.74
5.41
5.13
4.81
4.34
3.69
2.90
2.08
1.35
0.79
0.38
0.00
-0.46
-1.07
-1.82
-2.61
-3.33
-3.99
-4.66
-5.46
-6.52
-7.86
-9.42
-11.02
-12.41
-13.29
-13.34
-12.37
-10.34
-7.42
-3.96
-0.43
2.75
5.27
7.00
7.98
8.36
8.29
7.92
7.38
6.80
6.33
6.13
6.32
6.90
7.77
8.78
9.71
10.45
10.94
11.22
11.37
11.43
11.42
11.27
10.89
10.21
9.20
7.93
6.54
5.22
4.14
3.39
2.96
2.75
2.64
2.51
2.31
2.01
1.59
1.10
0.59
0.11
-0.31
-0.70
-1.15
-1.78
-2.67
-3.76
-4.92
-5.94
-6.72
-7.27
-7.77
-8.48
-9.57
-11.03
-12.63
-13.97
-14.66
-14.44
-13.25
-11.21
-8.57
-5.63
-2.66
0.10
2.48
4.36
5.67
6.40
6.60
6.35
5.79
5.11
4.49
4.10
4.01
4.22
4.60
5.03
5.37
5.58
5.70
5.80
5.97
6.23
6.51
6.64
6.46
5.85
4.85
3.62
2.40
1.38
0.66
0.17
-0.27
-0.86
-1.75
-2.94
-4.31
-5.68
-6.86
-7.74
-8.30
-8.62
-8.84
-9.11
-9.54
-10.21
-11.11
-12.13
-13.06
-13.59
-13.40
-12.27
-10.18
-7.32
-4.09
-0.92
1.82
3.89
5.23
5.91
6.08
5.91
5.54
5.08
4.58
4.12
3.79
3.70
3.93
4.49
5.30
6.17
6.86
7.22
7.19
6.84
6.31
5.76
5.32
5.02
4.86
4.75
4.61
4.33
3.86
3.21
2.45
1.70
1.07
0.65
0.40
0.25
0.08
-0.20
-0.60
-1.07
-1.56
-2.02
-2.46
-2.94
-3.50
-4.17
-4.94
-5.77
-6.65
-7.52
-8.25
-8.62
-8.37
-7.31
-5.40
-2.82
0.06
2.85
5.21
6.96
8.07
8.58
8.61
8.27
7.71
7.07
6.48
6.07
5.88
5.94
6.24
6.73
7.37
8.10
8.83
9.43
9.80
9.83
9.51
8.84
7.91
6.80
5.60
4.38
3.22
2.19
1.38
0.83
0.50
0.27
-0.03
-0.53
-1.26
-2.19
-3.20
-4.18
-5.04
-5.77
-6.35
-6.80
-7.15
-7.49
-7.90
-8.45
-9.13
-9.77
-10.13
-9.96
-9.19
-7.90
-6.38
-4.98
-4.00
-3.60
-3.79
-4.43
-5.33
-6.27
-7.01
-7.35
-7.09
-6.15
-4.56
-2.51
-0.26
1.91
3.76
5.18
6.15
6.69
6.88
6.76
6.42
5.99
5.61
5.40
5.42
5.59
5.80
5.97
6.07
6.22
6.51
6.98
7.49
7.80
7.67
7.02
5.97
4.78
3.76
3.03
2.56
2.17
1.68
1.05
0.37
-0.23
-0.62
-0.78
-0.79
-0.77
-0.79
-0.90
-1.10
-1.40
-1.81
-2.35
-3.00
-3.68
-4.30
-4.78
-5.09
-5.26
-5.42
-5.72
-6.35
-7.36
-8.66
-10.01
-11.01
-11.30
-10.65
-9.09
-6.89
-4.46
-2.20
-0.37
0.98
1.89
2.43
2.64
2.50
2.04
1.34
0.57
-0.08
-0.51
-0.68
-0.67
-0.57
-0.47
-0.39
-0.28
-0.09
0.26
0.80
1.49
2.23
2.87
3.28
3.36
3.12
2.64
2.06
1.52
1.05
0.66
0.26
-0.19
-0.75
-1.44
-2.28
-3.26
-4.34
-5.38
-6.25
-6.79
-6.92
-6.69
-6.25
-5.79
-5.52
-5.55
-5.90
-6.45
-7.02
-7.37
-7.30
-6.70
-5.58
-4.03
-2.25
-0.41
1.28
2.70
3.73
4.35
4.58
4.51
4.28
3.99
3.68
3.37
3.02
2.63
2.29
2.11
2.21
2.62
3.28
4.03
4.69
5.15
5.39
5.45
5.41
5.31
5.16
4.91
4.56
4.11
3.66
3.27
3.00
2.82
2.66
2.45
2.18
1.88
1.57
1.27
0.94
0.53
-0.00
-0.61
-1.23
-1.82
-2.40
-3.01
-3.76
-4.67
-5.74
-6.95
-8.22
-9.49
-10.66
-11.57
-12.04
-11.87
-10.98
-9.38
-7.27
-4.97
-2.83
-1.13
-0.06
0.36
0.27
-0.10
-0.49
-0.75
-0.81
-0.76
-0.75
-0.87
-1.16
-1.51
-1.76
-1.77
-1.50
-0.98
-0.31
0.42
1.19
2.00
2.83
3.58
4.12
4.30
4.08
3.56
2.97
2.54
2.39
2.51
2.73
2.83
2.65
2.19
1.54
0.89
0.39
0.05
-0.17
-0.39
-0.72
-1.19
-1.77
-2.42
-3.10
-3.86
-4.78
-5.94
-7.36
-8.97
-10.54
-11.76
-12.32
-12.00
-10.78
-8.86
-6.58
-4.31
-2.35
-0.83
0.27
1.01
1.44
1.61
1.57
1.43
1.33
1.38
1.61
1.95
2.30
2.56
2.75
2.96
3.32
3.95
4.86
5.93
6.94
7.64
7.82
7.43
6.52
5.30
4.04
2.99
2.28
1.91
1.76
1.68
1.52
1.18
0.65
-0.04
-0.83
-1.67
-2.49
-3.26
-3.95
-4.55
-5.11
-5.73
-6.50
-7.49
-8.62
-9.69
-10.37
-10.31
-9.29
-7.34
-4.70
-1.80
0.92
3.12
4.63
5.44
5.68
5.53
5.17
4.79
4.50
4.37
4.44
4.64
4.95
5.33
5.77
6.28
6.86
7.46
8.02
8.40
8.53
8.34
7.86
7.13
6.21
5.16
4.02
2.83
1.69
0.69
-0.06
-0.52
-0.76
-0.96
-1.31
-1.94
-2.86
-3.96
-5.08
-6.10
-6.99
-7.80
-8.66
-9.68
-10.91
-12.30
-13.72
-14.94
-15.66
-15.59
-14.53
-12.44
-9.44
-5.82
-1.98
1.73
4.99
7.60
9.49
10.68
11.32
11.59
11.68
11.70
11.75
11.82
11.91
12.03
12.15
12.22
12.16
11.90
11.42
10.84
10.30
9.92
9.69
9.46
9.00
8.14
6.85
5.24
3.55
1.96
0.60
-0.54
-1.51
-2.39
-3.21
-3.98
-4.69
-5.31
-5.86
-6.33
-6.75
-7.17
-7.66
-8.30
-9.15
-10.23
-11.47
-12.67
-13.55
-13.83
-13.30
-11.88
-9.64
-6.77
-3.54
-0.28
2.71
5.13
6.84
7.77
8.03
7.86
7.49
7.14
6.90
6.80
6.84
7.03
7.38
7.92
8.56
9.21
9.75
10.10
10.26
10.29
10.24
10.10
9.84
9.39
8.72
7.85
6.85
5.81
4.84
3.99
3.28
2.65
2.05
1.43
0.78
0.12
-0.55
-1.25
-2.05
-3.00
-4.08
-5.22
-6.24
-7.00
-7.46
-7.69
-7.90
-8.31
-9.09
-10.26
-11.69
-13.11
-14.20
-14.63
-14.19
-12.78
-10.48
-7.54
-4.31
-1.21
1.44
3.41
4.66
5.25
5.34
5.08
4.63
4.10
3.63
3.33
3.32
3.65
4.30
5.17
6.08
6.89
7.49
7.90
8.20
8.49
8.85
9.28
9.68
9.94
9.91
9.50
8.65
7.42
5.92
4.33
2.87
1.69
0.86
0.37
0.10
-0.09
-0.34
-0.77
-1.43
-2.32
-3.37
-4.47
-5.48
-6.28
-6.83
-7.14
-7.25
-7.29
-7.34
-7.52
-7.96
-8.71
-9.74
-10.83
-11.63
-11.77
-10.94
-9.11
-6.49
-3.46
-0.44
2.19
4.26
5.70
6.57
6.94
6.90
6.52
5.91
5.19
4.50
3.98
3.77
3.91
4.35
4.96
5.55
5.97
6.13
6.05
5.83
5.56
5.34
5.14
4.89
4.46
3.74
2.74
1.55
0.37
-0.64
-1.41
-2.00
-2.57
-3.24
-4.03
-4.81
-5.43
-5.76
-5.84
-5.84
-5.94
-6.24
-6.65
-7.00
-7.13
-7.01
-6.79
-6.67
-6.84
-7.30
-7.97
-8.70
-9.39
-9.99
-10.45
-10.68
-10.47
-9.62
-8.03
-5.81
-3.25
-0.70
1.51
3.22
4.40
5.09
5.34
5.17
4.60
3.74
2.74
1.77
1.03
0.60
0.53
0.79
1.31
1.97
2.62
3.15
3.48
3.60
3.53
3.36
3.15
2.94
2.71
2.44
2.09
1.62
1.04
0.40
-0.23
-0.79
-1.24
-1.62
-2.00
-2.48
-3.12
-3.92
-4.80
-5.63
-6.30
-6.75
-7.02
-7.23
-7.58
-8.24
-9.27
-10.58
-11.95
-13.04
-13.54
-13.20
-11.96
-9.94
-7.40
-4.68
-2.11
0.11
1.87
3.20
4.14
4.74
4.98
4.86
4.43
3.84
3.28
2.95
2.98
3.36
3.96
4.62
5.21
5.66
6.00
6.26
6.48
6.64
6.68
6.49
6.00
5.21
4.21
3.14
2.19
1.47
1.03
0.82
0.72
0.61
0.39
0.01
-0.52
-1.15
-1.82
-2.47
-3.06
-3.54
-3.89
-4.10
-4.18
-4.16
-4.12
-4.15
-4.40
-4.97
-5.91
-7.16
-8.53
-9.78
-10.62
-10.84
-10.34
-9.11
-7.32
-5.18
-2.92
-0.76
1.09
2.55
3.59
4.26
4.68
4.93
5.03
4.95
4.64
4.12
3.51
3.02
2.84
3.09
3.75
4.68
5.72
6.73
7.62
8.32
8.77
8.92
8.75
8.29
7.67
7.01
6.41
5.88
5.40
4.89
4.33
3.72
3.09
2.44
1.76
0.95
-0.00
-1.09
-2.21
-3.22
-4.01
-4.57
-4.99
-5.43
-6.06
-6.96
-8.10
-9.39
-10.71
-11.93
-12.98
-13.79
-14.23
-14.15
-13.35
-11.72
-9.27
-6.21
-2.94
0.13
2.68
4.58
5.93
6.88
7.57
7.99
8.09
7.81
7.27
6.68
6.33
6.40
6.89
7.65
8.50
9.34
10.17
11.04
11.95
12.75
13.22
13.15
12.47
11.28
9.81
8.28
6.81
5.37
3.87
2.27
0.62
-0.94
-2.25
-3.25
-3.98
-4.51
-4.92
-5.24
-5.48
-5.68
-5.96
-6.44
-7.17
-8.10
-9.08
-9.95
-10.62
-11.11
-11.59
-12.24
-13.25
-14.68
-16.45
-18.30
-19.79
-20.41
-19.76
-17.69
-14.36
-10.25
-5.95
-2.00
1.26
3.72
5.45
6.58
7.24
7.52
7.52
7.33
7.05
6.80
6.70
6.84
7.26
7.95
8.83
9.81
10.77
11.62
12.31
12.75
12.90
12.68
12.07
11.12
9.92
8.66
7.53
6.62
5.96
5.45
4.93
4.28
3.42
2.41
1.33
0.28
-0.70
-1.57
-2.33
-2.92
-3.29
-3.42
-3.39
-3.36
-3.51
-3.97
-4.74
-5.69
-6.66
-7.51
-8.22
-8.90
-9.74
-10.92
-12.52
-14.47
-16.53
-18.31
-19.32
-19.17
-17.67
-14.96
-11.43
-7.62
-3.97
-0.77
1.87
3.97
5.56
6.68
7.35
7.65
7.70
7.66
7.67
7.79
8.05
8.40
8.81
9.27
9.77
10.24
10.64
10.90
10.96
10.82
10.49
10.03
9.53
9.03
8.54
7.97
7.25
6.34
5.29
4.25
3.36
2.73
2.30
1.93
1.46
0.82
0.06
-0.68
-1.31
-1.83
-2.35
-3.01
-3.84
-4.81
-5.81
-6.80
-7.83
-9.03
-10.52
-12.32
-14.26
-16.03
-17.24
-17.52
-16.64
-14.60
-11.61
-8.08
-4.49
-1.23
1.44
3.46
4.90
5.89
6.54
6.97
7.25
7.51
7.83
8.28
8.82
9.36
9.81
10.10
10.27
10.40
10.61
10.94
11.35
11.70
11.86
11.70
11.20
10.44
9.55
8.68
7.93
7.28
6.66
5.98
5.16
4.20
3.17
2.14
1.19
0.35
-0.36
-0.97
-1.48
-1.89
-2.20
-2.47
-2.76
-3.19
-3.85
-4.73
-5.76
-6.82
-7.78
-8.58
-9.29
-10.07
-11.12
-12.56
-14.33
-16.18
-17.69
-18.42
-18.01
-16.31
-13.47
-9.86
-6.00
-2.40
0.57
2.74
4.13
4.92
5.30
5.47
5.61
5.82
6.13
6.54
6.97
7.36
7.68
7.95
8.22
8.58
9.07
9.68
10.36
11.04
11.66
12.17
12.50
12.59
12.40
11.88
11.04
9.96
8.75
7.59
6.63
5.98
5.67
5.58
5.52
5.27
4.70
3.83
2.83
1.92
1.26
0.87
0.64
0.37
-0.14
-0.98
-2.14
-3.50
-4.94
-6.31
-7.49
-8.42
-9.10
-9.58
-10.03
-10.64
-11.59
-12.95
-14.65
-16.44
-17.93
-18.69
-18.40
-16.96
-14.50
-11.35
-7.92
-4.59
-1.66
0.71
2.46
3.65
4.41
4.90
5.30
5.71
6.18
6.67
7.12
7.49
7.78
8.00
8.19
8.36
8.54
8.75
9.01
9.30
9.59
9.79
9.81
9.60
9.16
8.53
7.75
6.91
6.03
5.18
4.44
3.88
3.54
3.41
3.41
3.43
3.36
3.16
2.80
2.33
1.78
1.20
0.64
0.14
-0.30
-0.67
-1.06
-1.51
-2.07
-2.73
-3.44
-4.11
-4.67
-5.07
-5.34
-5.55
-5.84
-6.37
-7.31
-8.67
-10.28
-11.74
-12.56
-12.30
-10.84
-8.37
-5.37
-2.37
0.20
2.16
3.50
4.33
4.77
4.87
4.67
4.23
3.69
3.21
2.93
2.94
3.26
3.82
4.51
5.22
5.87
6.39
6.80
7.10
7.34
7.52
7.63
7.61
7.40
6.99
6.41
5.71
5.02
4.41
3.91
3.53
3.20
2.86
2.48
2.05
1.56
1.02
0.39
-0.35
-1.16
-1.96
-2.62
-3.04
-3.19
-3.16
-3.11
-3.21
-3.56
-4.17
-4.93
-5.71
-6.35
-6.75
-6.93
-7.00
-7.16
-7.60
-8.45
-9.64
-10.98
-12.12
-12.73
-12.57
-11.57
-9.79
-7.48
-4.89
-2.33
-0.02
1.84
3.17
3.95
4.25
4.21
3.98
3.75
3.64
3.74
4.03
4.47
4.95
5.41
5.79
6.10
6.39
6.69
7.03
7.39
7.69
7.84
7.77
7.44
6.87
6.12
5.31
4.51
3.81
3.22
2.73
2.32
1.95
1.64
1.39
1.21
1.07
0.95
0.81
0.65
0.47
0.29
0.10
-0.12
-0.40
-0.76
-1.16
-1.61
-2.08
-2.57
-3.09
-3.59
-4.04
-4.42
-4.73
-5.06
-5.52
-6.22
-7.19
-8.40
-9.73
-11.00
-11.97
-12.39
-12.09
-10.98
-9.15
-6.86
-4.43
-2.16
-0.28
1.10
1.96
2.36
2.37
2.09
1.68
1.27
0.98
0.87
0.94
1.13
1.38
1.69
2.06
2.52
3.02
3.53
3.95
4.20
4.20
3.95
3.47
2.83
2.13
1.44
0.80
0.21
-0.35
-0.89
-1.33
-1.61
-1.69
-1.61
-1.43
-1.29
-1.22
-1.21
-1.19
-1.08
-0.87
-0.64
-0.52
-0.62
-1.02
-1.69
-2.55
-3.44
-4.27
-4.98
-5.57
-6.09
-6.60
-7.16
-7.79
-8.49
-9.19
-9.75
-9.97
-9.66
-8.71
-7.13
-5.08
-2.84
-0.70
1.09
2.41
3.25
3.70
3.88
3.94
3.95
3.96
3.93
3.84
3.66
3.45
3.28
3.25
3.40
3.72
4.17
4.65
5.08
5.41
5.58
5.60
5.45
5.15
4.74
4.27
3.78
3.30
2.84
2.40
1.99
1.65
1.39
1.23
1.15
1.08
0.96
0.71
0.37
-0.02
-0.33
-0.51
-0.55
-0.55
-0.63
-0.87
-1.29
-1.80
-2.30
-2.70
-3.02
-3.29
-3.60
-4.00
-4.53
-5.17
-5.88
-6.65
-7.47
-8.31
-9.17
-9.98
-10.65
-10.99
-10.80
-9.97
-8.47
-6.46
-4.20
-1.96
0.01
1.57
2.69
3.37
3.66
3.64
3.39
3.02
2.63
2.29
2.00
1.76
1.61
1.60
1.83
2.30
2.93
3.53
3.96
4.13
4.07
3.92
3.79
3.76
3.80
3.87
3.88
3.79
3.58
3.24
2.78
2.25
1.74
1.36
1.19
1.23
1.39
1.51
1.50
1.31
0.99
0.64
0.32
0.02
-0.35
-0.93
-1.80
-2.97
-4.32
-5.65
-6.73
-7.46
-7.85
-8.09
-8.42
-9.02
-9.88
-10.82
-11.56
-11.83
-11.50
-10.58
-9.18
-7.44
-5.53
-3.59
-1.77
-0.24
0.84
1.40
1.48
1.23
0.86
0.57
0.45
0.55
0.82
1.19
1.60
2.03
2.43
2.75
2.97
3.11
3.24
3.45
3.80
4.29
4.81
5.20
5.31
5.09
4.58
3.93
3.33
2.91
2.72
2.73
2.83
2.92
2.91
2.73
2.40
1.93
1.39
0.80
0.21
-0.34
-0.82
-1.18
-1.45
-1.66
-1.91
-2.26
-2.77
-3.42
-4.20
-5.06
-6.00
-7.03
-8.16
-9.41
-10.76
-12.11
-13.31
-14.13
-14.39
-13.94
-12.74
-10.88
-8.54
-5.97
-3.40
-1.05
0.97
2.58
3.76
4.55
5.01
5.19
5.15
4.97
4.72
4.50
4.44
4.61
5.01
5.58
6.18
6.72
7.13
7.39
7.55
7.62
7.57
7.34
6.88
6.20
5.38
4.60
3.97
3.58
3.39
3.34
3.33
3.34
3.35
3.36
3.35
3.26
3.07
2.76
2.40
2.07
1.83
1.68
1.55
1.36
1.02
0.50
-0.20
-1.03
-1.92
-2.81
-3.65
-4.43
-5.17
-5.92
-6.75
-7.76
-8.99
-10.42
-11.88
-13.08
-13.67
-13.34
-11.98
-9.68
-6.77
-3.64
-0.68
1.84
3.76
5.04
5.69
5.77
5.41
4.77
4.06
3.49
3.24
3.37
3.84
4.53
5.29
5.95
6.42
6.67
6.74
6.70
6.61
6.54
6.49
6.42
6.26
5.92
5.37
4.62
3.79
3.00
2.38
2.00
1.85
1.83
1.85
1.83
1.76
1.64
1.49
1.30
1.01
0.57
-0.02
-0.71
-1.41
-2.02
-2.53
-2.93
-3.27
-3.61
-3.99
-4.47
-5.12
-6.02
-7.20
-8.58
-9.97
-11.06
-11.53
-11.19
-10.00
-8.15
-5.94
-3.67
-1.60
0.12
1.46
2.36
2.80
2.76
2.29
1.55
0.81
0.34
0.32
0.76
1.53
2.39
3.17
3.80
4.32
4.82
5.38
6.03
6.68
7.24
7.57
7.61
7.32
6.79
6.12
5.50
5.03
4.75
4.54
4.25
3.74
2.99
2.10
1.24
0.53
-0.01
-0.47
-1.00
-1.68
-2.49
-3.33
-4.13
-4.85
-5.58
-6.39
-7.31
-8.28
-9.21
-10.08
-10.96
-12.00
-13.31
-14.81
-16.24
-17.16
-17.20
-16.15
-14.10
-11.35
-8.32
-5.37
-2.72
-0.44
1.53
3.23
4.70
5.90
6.78
7.35
7.61
7.69
7.72
7.82
8.05
8.37
8.71
8.98
9.13
9.19
9.23
9.29
9.33
9.27
8.96
8.33
7.41
6.35
5.39
4.75
4.56
4.75
5.17
5.57
5.76
5.68
5.39
5.02
4.69
4.46
4.28
4.03
3.66
3.13
2.52
1.87
1.22
0.54
-0.27
-1.22
-2.26
-3.27
-4.11
-4.69
-5.07
-5.43
-5.95
-6.79
-7.98
-9.44
-11.00
-12.48
-13.64
-14.29
-14.26
-13.44
-11.80
-9.47
-6.70
-3.83
-1.19
0.94
2.43
3.28
3.64
3.72
3.75
3.87
4.14
4.55
5.01
5.42
5.74
5.96
6.10
6.22
6.36
6.55
6.83
7.19
7.57
7.90
8.04
7.95
7.61
7.07
6.42
5.76
5.16
4.68
4.35
4.16
4.06
4.00
3.90
3.73
3.49
3.23
2.99
2.78
2.54
2.16
1.61
0.91
0.16
-0.50
-0.99
-1.32
-1.58
-1.92
-2.44
-3.15
-4.01
-4.91
-5.80
-6.64
-7.43
-8.19
-8.95
-9.72
-10.56
-11.52
-12.58
-13.62
-14.38
-14.55
-13.88
-12.27
-9.86
-6.97
-4.01
-1.35
0.80
2.36
3.41
4.06
4.43
4.59
4.59
4.48
4.34
4.27
4.35
4.59
4.92
5.19
5.30
5.22
5.07
5.00
5.18
5.63
6.22
6.70
6.85
6.54
5.83
4.92
4.06
3.41
3.00
2.74
2.51
2.24
1.92
1.59
1.29
0.98
0.62
0.14
-0.43
-1.01
-1.49
-1.80
-1.99
-2.19
-2.54
-3.15
-4.01
-4.99
-5.94
-6.74
-7.34
-7.79
-8.14
-8.44
-8.72
-9.02
-9.45
-10.07
-10.92
-11.84
-12.54
-12.66
-11.90
-10.21
-7.76
-4.91
-2.03
0.58
2.73
4.33
5.33
5.75
5.65
5.21
4.68
4.29
4.21
4.46
4.98
5.66
6.43
7.21
7.99
8.75
9.42
9.93
10.17
10.06
9.60
8.86
8.01
7.24
6.68
6.36
6.20
6.07
5.82
5.39
4.76
3.97
3.05
2.05
1.02
0.02
-0.85
-1.56
-2.10
-2.52
-2.89
-3.26
-3.64
-3.97
-4.18
-4.19
-3.95
-3.51
-2.94
-2.36
-1.89
-1.58
-1.39
-1.26
-1.10
-0.93
-0.82
-0.89
-1.23
-1.80
-2.43
-2.85
-2.78
-2.06
-0.67
1.28
3.55
5.90
8.10
9.96
11.34
12.19
12.52
12.43
12.07
11.61
11.17
10.80
10.46
10.10
9.67
9.17
8.65
8.13
7.58
6.94
6.09
4.95
3.46
1.64
-0.44
-2.64
-4.83
-6.87
-8.67
-10.18
-11.39
-12.32
-12.98
-13.39
-13.53
-13.37
-12.88
-12.07
-11.02
-9.88
-8.79
-7.88
-7.19
-6.66
-6.15
-5.55
-4.79
-3.95
-3.19
-2.71
-2.62
-2.86
-3.24
-3.57
-3.69
-3.59
-3.39
-3.28
-3.40
-3.81
-4.51
-5.42
-6.47
-7.50
-8.28
-8.53
-7.99
-6.54
-4.27
-1.51
1.30
3.73
5.49
6.50
6.87
6.83
6.59
6.32
6.09
5.85
5.56
5.20
4.84
4.60
4.56
4.77
5.17
5.63
6.02
6.26
6.27
6.04
5.58
4.92
4.09
3.19
2.30
1.49
0.83
0.32
-0.07
-0.37
-0.63
-0.86
-1.06
-1.23
-1.40
-1.57
-1.79
-2.09
-2.50
-2.95
-3.34
-3.54
-3.50
-3.23
-2.89
-2.71
-2.83
-3.30
-4.01
-4.76
-5.35
-5.68
-5.76
-5.75
-5.85
-6.24
-7.02
-8.17
-9.55
-10.88
-11.83
-12.09
-11.47
-9.97
-7.75
-5.11
-2.37
0.17
2.35
4.06
5.29
6.06
6.41
6.42
6.20
5.89
5.63
5.56
5.70
6.03
6.43
6.73
6.82
6.66
6.30
5.91
5.64
5.59
5.75
6.01
6.18
6.13
5.82
5.35
4.88
4.56
4.46
4.52
4.63
4.62
4.39
3.91
3.25
2.50
1.75
1.05
0.41
-0.17
-0.73
-1.26
-1.75
-2.19
-2.57
-2.89
-3.18
-3.46
-3.77
-4.14
-4.61
-5.21
-5.97
-6.88
-7.91
-9.05
-10.28
-11.55
-12.76
-13.70
-14.07
-13.58
-12.05
-9.55
-6.41
-3.13
-0.22
1.99
3.41
4.13
4.38
4.36
4.23
4.07
3.91
3.79
3.71
3.68
3.68
3.70
3.75
3.86
4.09
4.45
4.89
5.32
5.65
5.80
5.77
5.58
5.31
4.98
4.59
4.10
3.52
2.87
2.19
1.58
1.05
0.60
0.20
-0.16
-0.51
-0.84
-1.14
-1.45
-1.80
-2.22
-2.70
-3.22
-3.76
-4.35
-5.00
-5.74
-6.53
-7.31
-7.98
-8.49
-8.83
-9.07
-9.32
-9.67
-10.17
-10.83
-11.52
-12.07
-12.24
-11.82
-10.67
-8.81
-6.35
-3.50
-0.54
2.25
4.63
6.37
7.38
7.67
7.39
6.75
5.99
5.26
4.65
4.18
3.89
3.81
4.01
4.52
5.32
6.33
7.40
8.37
9.11
9.52
9.60
9.36
8.87
8.19
7.41
6.59
5.76
4.93
4.09
3.20
2.27
1.32
0.41
-0.39
-1.06
-1.67
-2.27
-2.95
-3.73
-4.54
-5.31
-5.91
-6.30
-6.43
-6.33
-6.08
-5.76
-5.53
-5.55
-5.96
-6.82
-8.04
-9.38
-10.46
-10.90
-10.43
-8.97
-6.70
-3.96
-1.15
1.40
3.53
5.21
6.47
7.35
7.82
7.88
7.57
7.07
6.62
6.44
6.61
7.04
7.52
7.82
7.83
7.62
7.37
7.25
7.37
7.66
7.95
8.07
7.87
7.28
6.25
4.79
2.91
0.73
-1.55
-3.61
-5.20
-6.13
-6.39
-6.13
-5.54
-4.80
-4.02
-3.26
-2.56
-1.97
-1.55
-1.30
-1.19
-1.12
-1.01
-0.82
-0.54
-0.28
-0.14
-0.29
-0.87
-2.02
-3.74
-5.90
-8.20
-10.25
-11.61
-12.00
-11.30
-9.67
-7.46
-5.06
-2.81
-0.92
0.55
1.66
2.52
3.21
3.74
4.08
4.22
4.13
3.91
3.68
3.60
3.78
4.23
4.83
5.44
5.91
6.18
6.29
6.36
6.45
6.57
6.64
6.56
6.24
5.69
4.95
4.11
3.25
2.45
1.78
1.30
1.09
1.19
1.56
2.09
2.59
2.86
2.75
2.25
1.49
0.65
-0.07
-0.61
-1.04
-1.50
-2.17
-3.15
-4.45
-5.97
-7.54
-8.91
-9.79
-9.91
-9.09
-7.30
-4.75
-1.80
1.08
3.49
5.15
5.97
6.01
5.43
4.46
3.35
2.31
1.52
1.02
0.76
0.68
0.68
0.75
0.89
1.15
1.54
2.05
2.61
3.13
3.49
3.62
3.55
3.32
3.06
2.83
2.64
2.42
2.11
1.68
1.19
0.77
0.47
0.26
0.00
-0.47
-1.21
-2.12
-2.99
-3.64
-4.01
-4.22
-4.43
-4.80
-5.33
-5.93
-6.45
-6.87
-7.24
-7.74
-8.54
-9.70
-11.13
-12.63
-13.93
-14.77
-14.92
-14.32
-12.99
-11.09
-8.89
-6.68
-4.75
-3.26
-2.27
-1.65
-1.23
-0.80
-0.23
0.51
1.39
2.33
3.27
4.16
4.97
5.71
6.37
6.92
7.37
7.69
7.89
7.94
7.83
7.58
7.22
6.78
6.30
5.78
5.17
4.48
3.76
3.13
2.73
2.63
2.77
2.96
2.96
2.58
1.79
0.74
-0.33
-1.17
-1.71
-1.99
-2.18
-2.46
-2.92
-3.55
-4.28
-4.98
-5.55
-5.93
-6.12
-6.16
-6.16
-6.23
-6.48
-7.01
-7.85
-8.94
-10.08
-11.03
-11.46
-11.12
-9.88
-7.83
-5.24
-2.55
-0.15
1.68
2.87
3.50
3.72
3.69
3.50
3.23
2.93
2.69
2.62
2.77
3.16
3.74
4.38
4.99
5.52
5.98
6.39
6.78
7.09
7.26
7.21
6.92
6.41
5.76
5.04
4.32
3.63
2.94
2.22
1.48
0.73
0.04
-0.53
-0.94
-1.25
-1.51
-1.78
-2.07
-2.35
-2.54
-2.61
-2.59
-2.55
-2.58
-2.73
-3.02
-3.42
-3.87
-4.31
-4.70
-5.04
-5.34
-5.69
-6.16
-6.84
-7.73
-8.76
-9.77
-10.52
-10.76
-10.31
-9.13
-7.31
-5.11
-2.83
-0.74
0.96
2.21
3.02
3.46
3.65
3.68
3.68
3.73
3.84
3.99
4.13
4.21
4.26
4.38
4.67
5.19
5.86
6.55
7.08
7.34
7.31
7.05
6.63
6.14
5.63
5.12
4.63
4.17
3.76
3.43
3.16
2.91
2.62
2.27
1.86
1.44
1.10
0.91
0.84
0.83
0.74
0.45
-0.10
-0.87
-1.73
-2.54
-3.21
-3.69
-4.00
-4.21
-4.40
-4.71
-5.26
-6.18
-7.48
-9.00
-10.40
-11.24
-11.15
-9.94
-7.74
-4.88
-1.83
1.02
3.42
5.27
6.56
7.33
7.63
7.57
7.29
6.99
6.85
6.95
7.24
7.64
8.01
8.25
8.29
8.11
7.69
7.06
6.29
5.50
4.75
4.09
3.51
2.98
2.51
2.14
1.93
1.95
2.19
2.60
3.07
3.49
3.77
3.86
3.77
3.54
3.21
2.81
2.34
1.76
1.04
0.16
-0.82
-1.84
-2.82
-3.73
-4.59
-5.46
-6.40
-7.41
-8.45
-9.46
-10.37
-11.13
-11.81
-12.53
-13.41
-14.52
-15.78
-16.93
-17.62
-17.53
-16.48
-14.52
-11.88
-8.87
-5.80
-2.92
-0.42
1.57
2.95
3.75
4.06
4.08
3.98
3.91
3.94
4.06
4.27
4.57
4.97
5.46
6.01
6.54
6.98
7.31
7.53
7.66
7.71
7.64
7.37
6.86
6.17
5.42
4.76
4.33
4.14
4.10
4.06
3.89
3.52
2.98
2.37
1.79
1.29
0.90
0.58
0.27
-0.17
-0.86
-1.88
-3.23
-4.81
-6.39
-7.80
-8.89
-9.71
-10.41
-11.22
-12.31
-13.72
-15.30
-16.78
-17.80
-18.03
-17.23
-15.33
-12.48
-8.97
-5.26
-1.79
1.08
3.15
4.45
5.22
5.73
6.23
6.85
7.54
8.19
8.70
9.04
9.27
9.47
9.72
10.00
10.26
10.42
10.44
10.29
9.99
9.52
8.91
8.17
7.35
6.46
5.50
4.41
3.12
1.66
0.21
-0.93
-1.46
-1.26
-0.49
0.45
1.04
0.86
-0.16
-1.68
-3.10
-3.77
-3.26
-1.58
0.81
3.21
4.86
5.29
4.45
2.78
1.11
0.51
2.08
6.60
14.28
24.49
35.94
46.94
55.97
62.15
65.46
66.52
66.17
64.89
62.43
57.83
49.82
37.59
21.42
2.98
-15.07
-29.88
-39.44
-43.25
-42.33
-38.65
-34.18
-30.20
-27.04
-24.39
-21.86
-19.38
-17.22
-15.77
-15.19
-15.20
-15.24
-14.72
-13.40
-11.47
-9.54
-8.25
-8.01
-8.73
-9.87
-10.74
-10.79
-9.89
-8.35
-6.73
-5.54
-5.02
-5.03
-5.25
-5.30
-4.97
-4.24
-3.29
-2.37
-1.67
-1.35
-1.43
-1.89
-2.64
-3.58
-4.58
-5.53
-6.33
-6.95
-7.44
-7.86
-8.32
-8.91
-9.74
-10.88
-12.33
-13.96
-15.53
-16.68
-17.03
-16.38
-14.69
-12.19
-9.22
-6.16
-3.30
-0.84
1.15
2.63
3.63
4.18
4.37
4.32
4.17
4.04
4.03
4.16
4.47
4.94
5.55
6.24
6.91
7.45
7.80
7.94
7.92
7.77
7.52
7.14
6.60
5.90
5.16
4.49
4.00
3.67
3.36
2.88
2.14
1.21
0.31
-0.33
-0.55
-0.40
-0.09
0.17
0.22
0.01
-0.40
-1.00
-1.78
-2.80
-4.05
-5.45
-6.79
-7.87
-8.63
-9.17
-9.78
-10.79
-12.36
-14.38
-16.49
-18.16
-18.90
-18.41
-16.69
-13.99
-10.75
-7.38
-4.26
-1.61
0.47
1.95
2.88
3.35
3.48
3.45
3.43
3.57
3.98
4.64
5.51
6.45
7.35
8.08
8.60
8.92
9.13
9.35
9.61
9.89
10.05
9.90
9.32
8.36
7.18
6.08
5.27
4.83
4.65
4.52
4.28
3.85
3.34
2.89
2.65
2.61
2.68
2.70
2.53
2.13
1.53
0.84
0.14
-0.51
-1.11
-1.71
-2.38
-3.13
-3.95
-4.83
-5.73
-6.61
-7.49
-8.36
-9.23
-10.11
-11.03
-12.05
-13.20
-14.51
-15.84
-16.97
-17.56
-17.30
-16.02
-13.74
-10.72
-7.33
-4.02
-1.13
1.09
2.59
3.45
3.86
4.04
4.18
4.36
4.61
4.92
5.26
5.66
6.12
6.64
7.14
7.54
7.77
7.80
7.70
7.58
7.49
7.45
7.35
7.09
6.59
5.86
5.02
4.21
3.56
3.10
2.83
2.65
2.51
2.36
2.21
2.06
1.89
1.71
1.46
1.15
0.76
0.29
-0.25
-0.87
-1.58
-2.36
-3.14
-3.87
-4.46
-4.93
-5.34
-5.84
-6.58
-7.66
-9.03
-10.51
-11.82
-12.68
-12.84
-12.16
-10.61
-8.30
-5.41
-2.26
0.79
3.38
5.23
6.27
6.57
6.35
5.91
5.49
5.27
5.31
5.60
6.03
6.49
6.88
7.20
7.46
7.76
8.13
8.60
9.09
9.49
9.75
9.84
9.76
9.52
9.13
8.58
7.89
7.11
6.36
5.76
5.40
5.28
5.35
5.48
5.56
5.50
5.26
4.85
4.35
3.84
3.40
3.06
2.77
2.44
1.94
1.14
-0.01
-1.48
-3.20
-5.06
-6.93
-8.69
-10.23
-11.51
-12.50
-13.25
-13.90
-14.57
-15.32
-16.05
-16.54
-16.45
-15.51
-13.64
-10.99
-7.93
-4.92
-2.33
-0.38
0.88
1.55
1.77
1.67
1.39
1.02
0.69
0.52
0.58
0.89
1.40
2.02
2.61
3.14
3.60
4.02
4.43
4.80
5.03
5.00
4.64
3.95
3.05
2.05
1.08
0.20
-0.58
-1.29
-1.92
-2.47
-2.90
-3.18
-3.29
-3.25
-3.13
-3.02
-3.06
-3.34
-3.89
-4.68
-5.64
-6.69
-7.77
-8.87
-9.98
-11.09
-12.18
-13.23
-14.20
-14.99
-15.45
-15.31
-14.36
-12.45
-9.66
-6.30
-2.83
0.27
2.64
4.14
4.85
4.99
4.80
4.53
4.36
4.41
4.75
5.36
6.15
6.97
7.66
8.11
8.30
8.30
8.21
8.14
8.17
8.31
8.53
8.73
8.77
8.51
7.88
6.92
5.80
4.77
4.05
3.72
3.69
3.80
3.88
3.87
3.78
3.65
3.48
3.18
2.65
1.82
0.73
-0.48
-1.65
-2.67
-3.53
-4.32
-5.19
-6.22
-7.46
-8.86
-10.33
-11.72
-12.81
-13.34
-13.08
-11.89
-9.75
-6.87
-3.57
-0.28
2.62
4.86
6.34
7.14
7.48
7.61
7.71
7.88
8.12
8.37
8.63
8.94
9.37
9.95
10.64
11.31
11.85
12.17
12.28
12.26
12.20
12.15
12.09
11.92
11.52
10.81
9.79
8.58
7.34
6.29
5.57
5.19
5.08
5.10
5.09
4.95
4.64
4.14
3.46
2.65
1.77
0.94
0.23
-0.33
-0.79
-1.27
-1.88
-2.67
-3.55
-4.41
-5.11
-5.59
-5.87
-6.09
-6.40
-6.99
-7.97
-9.34
-10.92
-12.32
-13.11
-12.90
-11.54
-9.18
-6.24
-3.25
-0.64
1.34
2.64
3.37
3.69
3.79
3.80
3.80
3.83
3.91
4.04
4.20
4.40
4.65
4.92
5.17
5.31
5.30
5.16
4.98
4.90
4.98
5.21
5.47
5.64
5.64
5.46
5.15
4.78
4.39
3.95
3.45
2.87
2.22
1.59
1.05
0.64
0.36
0.15
-0.08
-0.44
-0.99
-1.75
-2.66
-3.61
-4.49
-5.17
-5.58
-5.74
-5.70
-5.61
-5.66
-6.02
-6.76
-7.82
-8.97
-9.87
-10.18
-9.70
-8.41
-6.49
-4.20
-1.80
0.49
2.50
4.08
5.12
5.56
5.44
4.93
4.28
3.74
3.48
3.55
3.90
4.45
5.10
5.78
6.40
6.90
7.17
7.19
6.99
6.66
6.31
6.01
5.79
5.61
5.43
5.20
4.91
4.55
4.11
3.57
2.96
2.34
1.80
1.40
1.13
0.86
0.43
-0.30
-1.37
-2.69
-4.07
-5.35
-6.40
-7.21
-7.84
-8.37
-8.90
-9.51
-10.24
-10.99
-11.60
-11.78
-11.29
-9.96
-7.83
-5.19
-2.42
0.05
1.92
3.09
3.64
3.76
3.72
3.69
3.79
4.00
4.25
4.40
4.40
4.25
4.01
3.77
3.56
3.40
3.27
3.18
3.15
3.24
3.46
3.73
3.93
3.87
3.43
2.60
1.54
0.47
-0.38
-0.90
-1.09
-1.05
-0.89
-0.67
-0.38
-0.02
0.39
0.76
0.95
0.90
0.65
0.32
0.09
0.07
0.19
0.28
0.12
-0.48
-1.56
-3.09
-4.93
-6.93
-8.96
-10.90
-12.63
-14.00
-14.81
-14.88
-14.07
-12.39
-10.01
-7.25
-4.49
-2.02
-0.04
1.42
2.42
3.06
3.45
3.70
3.91
4.16
4.46
4.80
5.06
5.19
5.16
5.06
5.03
5.22
5.66
6.30
6.93
7.35
7.42
7.15
6.66
6.16
5.81
5.62
5.49
5.26
4.81
4.09
3.15
2.11
1.05
0.06
-0.83
-1.62
-2.30
-2.89
-3.41
-3.85
-4.18
-4.39
-4.44
-4.34
-4.12
-3.82
-3.51
-3.23
-3.01
-2.89
-2.88
-2.94
-2.97
-2.88
-2.62
-2.28
-2.02
-2.02
-2.35
-2.94
-3.61
-4.16
-4.49
-4.60
-4.61
-4.65
-4.84
-5.26
-5.92
-6.76
-7.72
-8.62
-9.28
-9.47
-9.03
-7.86
-6.04
-3.77
-1.36
0.84
2.51
3.47
3.71
3.39
2.79
2.19
1.79
1.65
1.71
1.87
2.06
2.26
2.52
2.87
3.32
3.81
4.26
4.60
4.79
4.84
4.75
4.55
4.27
3.91
3.52
3.10
2.67
2.27
1.94
1.72
1.68
1.82
2.10
2.40
2.57
2.54
2.28
1.84
1.29
0.71
0.11
-0.49
-1.05
-1.54
-1.91
-2.19
-2.46
-2.81
-3.28
-3.85
-4.42
-4.83
-5.01
-4.96
-4.77
-4.59
-4.57
-4.80
-5.32
-6.04
-6.80
-7.36
-7.48
-7.00
-5.90
-4.31
-2.44
-0.54
1.19
2.61
3.65
4.27
4.47
4.30
3.86
3.30
2.78
2.40
2.20
2.15
2.21
2.31
2.40
2.41
2.31
2.08
1.73
1.34
0.98
0.70
0.49
0.29
0.02
-0.38
-0.88
-1.41
-1.89
-2.27
-2.54
-2.70
-2.79
-2.82
-2.83
-2.86
-2.99
-3.27
-3.73
-4.28
-4.82
-5.24
-5.50
-5.65
-5.77
-5.95
-6.25
-6.65
-7.17
-7.87
-8.78
-9.89
-11.08
-12.09
-12.62
-12.44
-11.51
-9.96
-8.04
-6.03
-4.15
-2.55
-1.26
-0.27
0.47
1.08
1.67
2.32
3.04
3.79
4.49
5.11
5.65
6.18
6.75
7.35
7.96
8.51
8.98
9.39
9.79
10.21
10.63
11.00
11.25
11.35
11.35
11.31
11.28
11.27
11.19
10.95
10.45
9.68
8.71
7.67
6.71
5.94
5.38
4.97
4.62
4.20
3.59
2.72
1.57
0.20
-1.26
-2.72
-4.10
-5.44
-6.87
-8.58
-10.70
-13.23
-15.98
-18.65
-20.78
-21.97
-21.95
-20.63
-18.20
-15.08
-11.81
-8.94
-6.82
-5.52
-4.91
-4.70
-4.68
-4.77
-4.99
-5.40
-5.96
-6.55
-6.93
-6.99
-6.67
-6.03
-5.15
-4.09
-2.88
-1.55
-0.13
1.28
2.59
3.70
4.59
5.27
5.79
6.22
6.62
7.04
7.50
7.99
8.52
9.02
9.47
9.82
10.02
10.03
9.89
9.68
9.55
9.57
9.73
9.84
9.63
8.83
7.32
5.22
2.81
0.49
-1.36
-2.47
-2.70
-2.06
-0.65
1.36
3.73
6.19
8.45
10.28
11.54
12.19
12.30
12.01
11.46
10.74
9.92
9.06
8.27
7.69
7.50
7.85
8.77
10.14
11.73
13.24
14.44
15.16
15.32
14.90
13.91
12.39
10.41
8.14
5.80
3.59
1.62
-0.11
-1.74
-3.38
-5.12
-6.91
-8.64
-10.21
-11.59
-12.81
-13.96
-15.12
-16.30
-17.46
-18.45
-19.08
-19.17
-18.64
-17.49
-15.87
-14.01
-12.15
-10.48
-9.07
-7.92
-6.93
-6.00
-5.04
-4.01
-2.94
-1.86
-0.90
-0.16
0.23
0.21
-0.18
-0.87
-1.67
-2.41
-2.92
-3.13
-3.03
-2.72
-2.35
-2.07
-2.01
-2.21
-2.67
-3.31
-4.06
-4.83
-5.54
-6.18
-6.71
-7.18
-7.66
-8.24
-8.96
-9.80
-10.67
-11.48
-12.17
-12.78
-13.33
-13.82
-14.09
-13.90
-13.01
-11.31
-8.92
-6.14
-3.35
-0.87
1.10
2.52
3.43
3.92
4.11
4.11
4.03
3.96
3.93
3.96
4.03
4.15
4.34
4.63
5.05
5.63
6.37
7.23
8.15
8.99
9.58
9.76
9.47
8.75
7.74
6.63
5.58
4.67
3.92
3.29
2.77
2.29
1.81
1.27
0.64
-0.04
-0.72
-1.33
-1.85
-2.29
-2.71
-3.17
-3.67
-4.24
-4.88
-5.66
-6.65
-7.83
-9.08
-10.10
-10.51
-9.99
-8.40
-5.92
-2.91
0.15
2.86
5.05
6.72
8.01
9.07
9.94
10.63
11.12
11.45
11.70
11.99
12.39
12.91
13.49
14.08
14.65
15.20
15.76
16.30
16.73
16.97
16.92
16.52
15.78
14.77
13.58
12.31
10.99
9.62
8.16
6.61
5.05
3.59
2.34
1.31
0.43
-0.47
-1.48
-2.65
-3.88
-5.05
-6.06
-6.91
-7.62
-8.22
-8.70
-8.99
-9.02
-8.78
-8.36
-7.93
-7.72
-7.83
-8.22
-8.63
-8.66
-7.90
-6.12
-3.35
0.02
3.48
6.52
8.84
10.39
11.33
11.89
12.32
12.72
13.14
13.54
13.81
13.84
13.52
12.80
11.79
10.64
9.55
8.66
7.95
7.33
6.67
5.89
4.97
3.93
2.75
1.42
-0.11
-1.83
-3.61
-5.29
-6.70
-7.78
-8.53
-8.98
-9.19
-9.14
-8.83
-8.29
-7.65
-7.10
-6.79
-6.81
-7.17
-7.75
-8.42
-9.09
-9.71
-10.29
-10.86
-11.48
-12.15
-12.86
-13.61
-14.37
-15.11
-15.72
-16.03
-15.83
-14.92
-13.26
-10.99
-8.41
-5.92
-3.84
-2.33
-1.36
-0.81
-0.50
-0.30
-0.16
-0.04
0.08
0.24
0.48
0.79
1.16
1.51
1.77
1.86
1.81
1.68
1.59
1.61
1.73
1.88
1.91
1.74
1.36
0.86
0.37
0.02
-0.15
-0.14
-0.04
0.06
0.08
-0.04
-0.36
-0.86
-1.45
-2.04
-2.50
-2.76
-2.84
-2.83
-2.84
-3.00
-3.37
-3.98
-4.80
-5.77
-6.82
-7.78
-8.47
-8.63
-8.08
-6.75
-4.73
-2.31
0.13
2.21
3.64
4.31
4.27
3.71
2.85
1.92
1.11
0.61
0.51
0.86
1.62
2.65
3.74
4.71
5.45
5.94
6.27
6.54
6.83
7.12
7.38
7.53
7.53
7.38
7.07
6.61
5.95
5.05
3.91
2.62
1.33
0.24
-0.50
-0.84
-0.82
-0.59
-0.31
-0.09
0.01
-0.00
-0.13
-0.41
-0.93
-1.73
-2.79
-3.93
-4.92
-5.57
-5.85
-5.92
-6.01
-6.35
-6.99
-7.88
-8.86
-9.83
-10.72
-11.43
-11.83
-11.70
-10.84
-9.22
-7.02
-4.62
-2.46
-0.83
0.22
0.81
1.17
1.49
1.85
2.21
2.50
2.68
2.77
2.82
2.94
3.18
3.51
3.88
4.17
4.33
4.35
4.28
4.21
4.17
4.13
4.00
3.66
3.06
2.25
1.35
0.55
0.00
-0.21
-0.10
0.21
0.59
0.88
0.99
0.87
0.53
0.02
-0.56
-1.10
-1.53
-1.85
-2.14
-2.58
-3.38
-4.68
-6.46
-8.48
-10.33
-11.54
-11.76
-10.89
-9.08
-6.69
-4.17
-1.88
-0.05
1.23
1.98
2.31
2.32
2.15
1.92
1.75
1.68
1.70
1.78
1.86
1.94
2.05
2.25
2.58
3.04
3.58
4.12
4.57
4.84
4.92
4.77
4.44
3.95
3.37
2.76
2.12
1.47
0.78
0.07
-0.64
-1.25
-1.72
-2.03
-2.25
-2.49
-2.88
-3.44
-4.14
-4.88
-5.55
-6.10
-6.50
-6.80
-7.05
-7.34
-7.80
-8.52
-9.61
-11.08
-12.80
-14.51
-15.83
-16.38
-15.87
-14.21
-11.58
-8.34
-4.99
-1.99
0.39
2.07
3.18
3.93
4.47
4.90
5.21
5.37
5.42
5.45
5.60
5.98
6.60
7.38
8.20
8.92
9.47
9.87
10.13
10.29
10.32
10.20
9.91
9.42
8.76
7.93
7.00
6.00
5.03
4.12
3.33
2.66
2.07
1.50
0.88
0.18
-0.61
-1.42
-2.20
-2.92
-3.58
-4.20
-4.80
-5.42
-6.07
-6.82
-7.74
-8.95
-10.52
-12.44
-14.52
-16.39
-17.56
-17.59
-16.25
-13.63
-10.13
-6.32
-2.76
0.14
2.24
3.59
4.35
4.69
4.77
4.73
4.67
4.73
4.98
5.43
5.99
6.55
7.03
7.44
7.84
8.34
9.00
9.76
10.49
11.01
11.20
11.01
10.48
9.69
8.74
7.73
6.70
5.71
4.81
4.03
3.41
2.92
2.53
2.20
1.88
1.56
1.23
0.85
0.43
-0.05
-0.57
-1.05
-1.46
-1.78
-2.09
-2.55
-3.37
-4.65
-6.40
-8.41
-10.28
-11.53
-11.73
-10.64
-8.30
-4.99
-1.21
2.53
5.80
8.31
9.94
10.71
10.71
10.12
9.19
8.17
7.28
6.64
6.23
5.96
5.79
5.74
5.89
6.33
7.04
7.87
8.63
9.13
9.25
9.02
8.49
7.77
6.92
5.97
4.96
3.96
3.07
2.40
1.97
1.76
1.67
1.56
1.33
0.94
0.40
-0.20
-0.82
-1.46
-2.20
-3.09
-4.17
-5.39
-6.60
-7.66
-8.48
-9.08
-9.57
-10.12
-10.88
-11.94
-13.29
-14.78
-16.14
-16.97
-16.91
-15.70
-13.31
-9.94
-6.01
-2.00
1.65
4.61
6.75
8.07
8.68
8.78
8.57
8.26
8.00
7.87
7.89
8.10
8.51
9.14
9.96
10.90
11.82
12.59
13.15
13.47
13.57
13.46
13.15
12.59
11.78
10.74
9.54
8.29
7.11
6.09
5.31
4.81
4.56
4.49
4.50
4.46
4.31
4.02
3.63
3.16
2.58
1.86
0.95
-0.11
-1.22
-2.22
-3.01
-3.60
-4.11
-4.75
-5.66
-6.90
-8.31
-9.62
-10.49
-10.60
-9.76
-7.99
-5.50
-2.62
0.22
2.68
4.56
5.81
6.54
6.86
6.91
6.75
6.44
6.03
5.58
5.14
4.73
4.34
3.96
3.62
3.35
3.23
3.29
3.48
3.71
3.81
3.67
3.24
2.54
1.71
0.86
0.14
-0.40
-0.72
-0.83
-0.76
-0.59
-0.41
-0.32
-0.40
-0.65
-1.02
-1.39
-1.67
-1.85
-2.02
-2.34
-2.97
-3.98
-5.27
-6.60
-7.62
-7.97
-7.41
-5.90
-3.67
-1.07
1.44
3.52
5.00
5.88
6.27
6.29
6.04
5.62
5.15
4.77
4.61
4.67
4.81
4.83
4.55
3.90
3.02
2.10
1.35
0.87
0.65
0.59
0.61
0.63
0.63
0.55
0.33
-0.06
-0.59
-1.16
-1.63
-1.83
-1.74
-1.38
-0.90
-0.46
-0.19
-0.15
-0.35
-0.71
-1.12
-1.50
-1.80
-2.08
-2.46
-3.15
-4.30
-5.93
-7.89
-9.84
-11.40
-12.21
-12.10
-11.10
-9.37
-7.19
-4.86
-2.65
-0.78
0.58
1.38
1.63
1.50
1.19
0.94
0.90
1.09
1.44
1.86
2.25
2.58
2.86
3.13
3.41
3.68
3.90
4.02
4.05
3.99
3.90
3.79
3.63
3.39
3.04
2.63
2.27
2.08
2.12
2.36
2.65
2.79
2.66
2.25
1.66
1.00
0.36
-0.22
-0.77
-1.29
-1.80
-2.29
-2.76
-3.25
-3.80
-4.43
-5.12
-5.84
-6.57
-7.32
-8.20
-9.25
-10.45
-11.62
-12.47
-12.68
-12.01
-10.49
-8.31
-5.87
-3.55
-1.66
-0.31
0.55
1.04
1.28
1.39
1.43
1.47
1.56
1.76
2.13
2.65
3.29
3.95
4.51
4.92
5.18
5.35
5.50
5.67
5.82
5.88
5.76
5.44
4.95
4.31
3.54
2.63
1.60
0.56
-0.31
-0.79
-0.78
-0.32
0.38
1.02
1.36
1.28
0.83
0.15
-0.57
-1.19
-1.64
-1.95
-2.21
-2.53
-3.01
-3.67
-4.47
-5.30
-6.04
-6.63
-7.04
-7.32
-7.58
-7.91
-8.41
-9.16
-10.20
-11.46
-12.73
-13.71
-13.98
-13.27
-11.49
-8.84
-5.73
-2.68
-0.12
1.70
2.78
3.25
3.31
3.16
2.95
2.77
2.67
2.68
2.82
3.05
3.38
3.78
4.23
4.72
5.20
5.62
5.90
6.02
5.99
5.89
5.79
5.73
5.71
5.63
5.41
4.98
4.37
3.69
3.08
2.64
2.40
2.24
2.06
1.78
1.41
1.09
0.93
0.96
1.13
1.26
1.21
0.89
0.32
-0.40
-1.19
-1.97
-2.72
-3.44
-4.12
-4.69
-5.12
-5.38
-5.55
-5.81
-6.35
-7.31
-8.65
-10.14
-11.38
-11.93
-11.50
-10.03
-7.75
-5.12
-2.57
-0.45
1.09
2.04
2.49
2.55
2.28
1.78
1.15
0.56
0.15
0.04
0.22
0.66
1.30
2.12
3.12
4.34
5.71
7.13
8.41
9.39
9.97
10.15
9.99
9.60
9.08
8.51
7.93
7.36
6.80
6.25
5.71
5.17
4.65
4.14
3.66
3.18
2.67
2.08
1.39
0.62
-0.14
-0.79
-1.29
-1.65
-1.94
-2.30
-2.81
-3.47
-4.23
-4.93
-5.49
-5.86
-6.09
-6.29
-6.52
-6.81
-7.16
-7.60
-8.14
-8.83
-9.61
-10.33
-10.77
-10.67
-9.89
-8.41
-6.42
-4.18
-1.96
0.01
1.61
2.77
3.48
3.78
3.72
3.36
2.78
2.06
1.34
0.82
0.71
1.11
2.01
3.23
4.48
5.53
6.22
6.56
6.62
6.50
6.24
5.86
5.33
4.68
3.96
3.25
2.63
2.14
1.79
1.54
1.33
1.11
0.84
0.51
0.13
-0.28
-0.70
-1.08
-1.44
-1.77
-2.11
-2.47
-2.84
-3.22
-3.60
-3.99
-4.48
-5.16
-6.10
-7.30
-8.67
-10.10
-11.50
-12.83
-14.06
-15.06
-15.62
-15.45
-14.33
-12.26
-9.49
-6.45
-3.60
-1.20
0.70
2.20
3.43
4.44
5.21
5.68
5.84
5.79
5.63
5.48
5.40
5.43
5.58
5.89
6.34
6.90
7.48
7.97
8.28
8.39
8.34
8.17
7.88
7.43
6.77
5.87
4.81
3.73
2.75
1.95
1.32
0.79
0.33
-0.07
-0.33
-0.41
-0.31
-0.12
0.04
0.06
-0.10
-0.36
-0.65
-0.96
-1.38
-2.03
-3.00
-4.23
-5.54
-6.73
-7.66
-8.36
-8.98
-9.76
-10.88
-12.43
-14.32
-16.32
-18.06
-19.11
-19.08
-17.76
-15.17
-11.66
-7.77
-4.05
-0.97
1.26
2.66
3.44
3.85
4.09
4.30
4.55
4.87
5.27
5.74
6.26
6.75
7.16
7.51
7.82
8.19
8.66
9.22
9.79
10.24
10.47
10.42
10.14
9.71
9.19
8.62
8.02
7.40
6.80
6.25
5.78
5.37
4.98
4.57
4.11
3.64
3.19
2.78
2.41
2.04
1.61
1.09
0.45
-0.29
-1.13
-2.07
-3.06
-4.07
-5.01
-5.81
-6.42
-6.89
-7.29
-7.74
-8.40
-9.41
-10.83
-12.63
-14.63
-16.49
-17.77
-18.11
-17.31
-15.43
-12.72
-9.56
-6.29
-3.18
-0.43
1.83
3.47
4.41
4.63
4.25
3.51
2.69
2.04
1.73
1.79
2.18
2.80
3.57
4.46
5.44
6.51
7.61
8.67
9.57
10.20
10.52
10.49
10.19
9.67
9.05
8.40
7.78
7.20
6.60
5.87
4.91
3.68
2.21
0.65
-0.78
-1.90
-2.62
-2.99
-3.19
-3.42
-3.84
-4.49
-5.28
-6.06
-6.67
-7.06
-7.28
-7.47
-7.80
-8.41
-9.36
-10.62
-12.03
-13.36
-14.29
-14.52
-13.80
-12.07
-9.44
-6.18
-2.66
0.72
3.68
5.99
7.56
8.42
8.64
8.38
7.80
7.10
6.48
6.08
6.00
6.31
6.94
7.81
8.79
9.74
10.54
11.13
11.50
11.62
11.50
11.12
10.50
9.72
8.85
7.99
7.23
6.58
6.07
5.66
5.29
4.89
4.37
3.68
2.83
1.90
1.02
0.30
-0.23
-0.64
-1.03
-1.51
-2.07
-2.67
-3.22
-3.72
-4.24
-4.88
-5.72
-6.77
-7.93
-9.12
-10.32
-11.66
-13.30
-15.28
-17.40
-19.25
-20.28
-20.09
-18.51
-15.74
-12.22
-8.47
-4.93
-1.88
0.55
2.36
3.58
4.27
4.57
4.62
4.57
4.54
4.59
4.77
5.09
5.51
6.02
6.56
7.09
7.55
7.93
8.21
8.39
8.46
8.37
8.08
7.58
6.91
6.13
5.35
4.61
3.95
3.34
2.77
2.20
1.64
1.10
0.61
0.18
-0.20
-0.57
-1.02
-1.67
-2.63
-3.94
-5.52
-7.18
-8.67
-9.77
-10.42
-10.77
-11.09
-11.70
-12.76
-14.20
-15.71
-16.81
-17.08
-16.20
-14.13
-11.06
-7.35
-3.48
0.10
3.08
5.30
6.76
7.63
8.14
8.50
8.80
9.08
9.26
9.31
9.24
9.15
9.17
9.43
9.93
10.58
11.25
11.78
12.13
12.28
12.28
12.18
11.99
11.68
11.20
10.53
9.69
8.72
7.71
6.76
5.98
5.44
5.15
5.06
5.03
4.91
4.60
4.06
3.37
2.66
2.07
1.64
1.31
0.94
0.32
-0.65
-1.96
-3.43
-4.80
-5.85
-6.48
-6.77
-6.98
-7.37
-8.18
-9.51
-11.26
-13.19
-14.92
-16.04
-16.19
-15.19
-13.04
-9.97
-6.38
-2.72
0.60
3.30
5.25
6.47
7.07
7.20
7.06
6.84
6.67
6.68
6.87
7.22
7.65
8.06
8.40
8.65
8.83
8.92
8.91
8.82
8.65
8.46
8.25
8.03
7.71
7.21
6.53
5.73
5.00
4.51
4.35
4.50
4.78
4.97
4.91
4.54
3.94
3.25
2.63
2.15
1.79
1.48
1.09
0.56
-0.12
-0.88
-1.62
-2.29
-2.88
-3.45
-4.08
-4.80
-5.59
-6.40
-7.15
-7.82
-8.49
-9.27
-10.29
-11.59
-13.04
-14.36
-15.15
-15.09
-14.04
-12.11
-9.63
-7.00
-4.56
-2.51
-0.87
0.40
1.36
2.03
2.37
2.38
2.13
1.74
1.44
1.37
1.62
2.11
2.74
3.37
3.97
4.58
5.28
6.03
6.72
7.14
7.13
6.69
5.95
5.19
4.61
4.29
4.17
4.09
3.94
3.69
3.35
2.98
2.57
2.12
1.60
1.03
0.49
0.10
-0.09
-0.08
0.00
-0.00
-0.25
-0.78
-1.55
-2.39
-3.16
-3.73
-4.11
-4.38
-4.69
-5.19
-6.00
-7.17
-8.64
-10.24
-11.72
-12.79
-13.19
-12.75
-11.47
-9.50
-7.10
-4.54
-2.11
-0.02
1.64
2.79
3.47
3.75
3.74
3.57
3.35
3.15
3.06
3.13
3.40
3.89
4.56
5.36
6.18
6.91
7.48
7.88
8.13
8.26
8.25
8.06
7.60
6.86
5.90
4.87
3.93
3.21
2.71
2.38
2.16
1.98
1.81
1.60
1.27
0.72
-0.08
-1.06
-2.08
-2.93
-3.48
-3.75
-3.85
-3.98
-4.30
-4.86
-5.61
-6.45
-7.25
-7.95
-8.51
-8.96
-9.33
-9.73
-10.23
-10.96
-11.93
-13.07
-14.12
-14.74
-14.54
-13.32
-11.10
-8.21
-5.10
-2.24
0.05
1.67
2.70
3.32
3.73
4.08
4.49
4.98
5.53
6.10
6.63
7.09
7.50
7.85
8.15
8.38
8.53
8.62
8.69
8.76
8.81
8.73
8.43
7.84
7.00
6.00
5.00
4.10
3.36
2.78
2.33
1.95
1.59
1.20
0.75
0.28
-0.16
-0.52
-0.81
-1.10
-1.52
-2.14
-2.92
-3.74
-4.46
-5.01
-5.39
-5.71
-6.09
-6.61
-7.29
-8.13
-9.18
-10.42
-11.80
-13.09
-13.92
-13.93
-12.88
-10.79
-8.00
-5.02
-2.33
-0.27
1.06
1.78
2.08
2.13
2.03
1.79
1.45
1.09
0.85
0.87
1.26
1.97
2.86
3.72
4.39
4.81
5.06
5.30
5.63
6.08
6.52
6.77
6.69
6.23
5.46
4.51
3.51
2.52
1.58
0.70
-0.10
-0.75
-1.23
-1.54
-1.74
-1.90
-2.13
-2.48
-2.96
-3.54
-4.17
-4.81
-5.40
-5.90
-6.30
-6.62
-6.89
-7.18
-7.57
-8.07
-8.67
-9.24
-9.58
-9.43
-8.55
-6.81
-4.23
-1.00
2.54
6.02
9.12
11.63
13.47
14.71
15.45
15.79
15.83
15.60
15.15
14.53
13.82
13.11
12.47
11.91
11.41
10.95
10.49
10.00
9.48
8.90
8.18
7.26
6.08
4.64
3.03
1.32
-0.39
-2.06
-3.68
-5.26
-6.77
-8.18
-9.41
-10.35
-10.98
-11.28
-11.38
-11.44
-11.58
-11.90
-12.38
-12.98
-13.62
-14.25
-14.82
-15.26
-15.57
-15.75
-15.92
-16.27
-16.95
-17.97
-19.09
-19.89
-19.93
-18.95
-16.97
-14.27
-11.28
-8.38
-5.83
-3.74
-2.14
-1.06
-0.48
-0.29
-0.29
-0.16
0.38
1.48
3.07
4.93
6.77
8.31
9.42
10.08
10.40
10.51
10.57
10.62
10.68
10.67
10.49
10.06
9.41
8.59
7.78
7.09
6.62
6.40
6.37
6.44
6.52
6.52
6.39
6.09
5.64
5.04
4.32
3.51
2.62
1.66
0.62
-0.52
-1.74
-2.96
-4.09
-5.00
-5.61
-5.99
-6.31
-6.87
-7.92
-9.54
-11.54
-13.54
-15.03
-15.58
-14.93
-13.05
-10.15
-6.57
-2.77
0.79
3.74
5.87
7.16
7.80
8.06
8.19
8.35
8.54
8.73
8.89
9.02
9.20
9.46
9.80
10.17
10.49
10.69
10.76
10.69
10.50
10.18
9.70
9.07
8.33
7.56
6.86
6.30
5.87
5.50
5.05
4.41
3.54
2.47
1.29
0.11
-1.02
-2.07
-3.03
-3.87
-4.55
-5.00
-5.19
-5.15
-4.96
-4.74
-4.62
-4.69
-4.94
-5.33
-5.72
-6.02
-6.24
-6.45
-6.83
-7.47
-8.36
-9.29
-9.90
-9.81
-8.81
-6.90
-4.35
-1.54
1.13
3.41
5.20
6.48
7.32
7.76
7.80
7.49
6.91
6.25
5.70
5.47
5.66
6.24
7.02
7.78
8.34
8.59
8.60
8.52
8.51
8.63
8.87
9.06
9.04
8.66
7.88
6.76
5.47
4.21
3.12
2.29
1.70
1.26
0.89
0.57
0.28
0.05
-0.12
-0.24
-0.32
-0.38
-0.37
-0.27
-0.08
0.10
0.15
-0.08
-0.66
-1.54
-2.59
-3.61
-4.47
-5.09
-5.49
-5.77
-6.04
-6.41
-6.94
-7.64
-8.44
-9.17
-9.62
-9.57
-8.86
-7.49
-5.62
-3.54
-1.53
0.20
1.54
2.49
3.08
3.32
3.21
2.75
2.02
1.14
0.30
-0.35
-0.71
-0.74
-0.48
-0.00
0.63
1.35
2.09
2.79
3.40
3.90
4.25
4.44
4.47
4.34
4.06
3.67
3.21
2.72
2.20
1.66
1.10
0.60
0.21
0.03
0.06
0.24
0.43
0.47
0.25
-0.22
-0.86
-1.52
-2.10
-2.59
-3.07
-3.63
-4.34
-5.18
-6.11
-7.08
-8.09
-9.11
-10.08
-10.84
-11.20
-10.99
-10.18
-8.89
-7.37
-5.87
-4.56
-3.52
-2.72
-2.13
-1.73
-1.49
-1.39
-1.36
-1.32
-1.21
-1.02
-0.78
-0.53
-0.25
0.08
0.49
1.00
1.59
2.17
2.67
3.02
3.17
3.13
2.91
2.62
2.34
2.16
2.14
2.28
2.49
2.66
2.69
2.55
2.30
2.01
1.77
1.64
1.68
1.91
2.28
2.71
3.06
3.16
2.95
2.48
2.03
1.95
2.52
3.86
5.83
8.10
10.33
12.23
13.66
14.60
15.02
14.86
14.07
12.64
10.68
8.42
6.18
4.22
2.69
1.58
0.80
0.18
-0.36
-0.86
-1.31
-1.66
-1.92
-2.14
-2.40
-2.85
-3.55
-4.54
-5.76
-7.04
-8.20
-9.11
-9.70
-10.02
-10.17
-10.23
-10.23
-10.16
-9.99
-9.78
-9.64
-9.68
-9.99
-10.51
-11.20
-12.00
-12.92
-13.97
-15.13
-16.21
-16.92
-16.91
-15.98
-14.14
-11.66
-8.92
-6.31
-4.07
-2.25
-0.82
0.35
1.34
2.20
2.98
3.67
4.27
4.76
5.12
5.37
5.60
5.87
6.23
6.63
6.93
7.02
6.85
6.54
6.26
6.19
6.36
6.68
6.97
7.05
6.84
6.36
5.68
4.87
3.96
2.96
1.85
0.62
-0.70
-2.05
-3.33
-4.43
-5.27
-5.87
-6.35
-6.87
-7.58
-8.56
-9.77
-11.16
-12.64
-14.13
-15.47
-16.46
-16.85
-16.38
-14.96
-12.65
-9.73
-6.57
-3.54
-0.88
1.28
2.95
4.20
5.14
5.87
6.44
6.84
7.10
7.20
7.19
7.12
7.03
6.96
6.87
6.73
6.49
6.13
5.66
5.12
4.55
4.02
3.55
3.20
2.95
2.78
2.65
2.55
2.47
2.42
2.39
2.33
2.19
1.92
1.52
1.05
0.59
0.18
-0.14
-0.43
-0.70
-0.97
-1.21
-1.47
-1.83
-2.40
-3.28
-4.43
-5.70
-6.87
-7.81
-8.49
-9.01
-9.55
-10.27
-11.26
-12.46
-13.75
-14.88
-15.54
-15.42
-14.27
-12.01
-8.80
-5.04
-1.27
1.96
4.27
5.57
5.99
5.89
5.64
5.56
5.82
6.41
7.20
8.03
8.79
9.41
9.91
10.31
10.62
10.86
11.03
11.14
11.19
11.17
11.04
10.74
10.20
9.41
8.40
7.31
6.30
5.54
5.09
4.91
4.83
4.65
4.22
3.51
2.63
1.75
1.01
0.45
-0.02
-0.57
-1.30
-2.24
-3.29
-4.30
-5.18
-5.91
-6.55
-7.19
-7.88
-8.68
-9.59
-10.61
-11.68
-12.67
-13.33
-13.33
-12.36
-10.29
-7.21
-3.49
0.32
3.67
6.18
7.74
8.49
8.75
8.82
8.89
8.98
9.05
9.12
9.24
9.62
10.37
11.50
12.79
13.95
14.70
14.91
14.63
14.07
13.44
12.91
