1650348428.00
64.000000
-0.00
-0.00
-0.00
-0.00
-0.00
-0.00
-0.00
-0.00
-0.00
-0.00
0.00
0.01
0.01
-0.00
-0.03
-0.05
-0.05
0.00
0.13
0.36
0.66
1.01
1.37
1.72
2.06
2.40
2.79
3.24
3.80
4.42
5.06
5.66
6.20
6.68
7.15
7.68
8.31
9.14
10.09
11.04
11.88
12.56
13.14
13.76
14.65
15.96
17.91
20.32
22.90
25.38
27.58
29.57
31.68
34.32
37.81
42.54
48.15
54.10
59.83
64.97
69.58
74.14
79.34
85.71
93.76
103.00
112.62
121.73
129.77
136.75
143.30
150.75
157.77
166.64
177.95
191.79
206.97
220.57
228.25
225.36
208.53
176.87
132.76
80.05
23.07
-34.94
-92.44
-149.16
-205.23
-260.37
-313.74
-363.87
-409.83
-450.91
-486.50
-515.74
-537.23
-549.22
-549.96
-538.37
-514.21
-478.67
-433.88
-382.45
-327.02
-269.84
-212.63
-156.66
-102.95
-52.37
-5.90
35.58
71.43
101.35
125.50
144.38
158.69
169.15
176.37
180.75
182.57
182.07
179.51
175.23
169.65
163.18
156.15
148.81
141.30
133.69
126.02
118.33
110.69
103.16
95.80
88.68
81.83
75.25
68.95
62.95
57.25
51.86
46.78
42.03
37.59
33.45
29.61
26.07
22.81
19.83
17.11
14.67
12.48
10.54
8.83
7.35
6.07
4.97
4.05
3.27
2.62
2.09
1.65
1.30
1.01
0.79
0.61
0.47
0.37
0.29
0.23
0.19
0.17
0.16
0.16
0.17
0.19
0.21
0.24
0.27
0.31
0.35
0.40
0.44
0.49
0.54
0.58
0.64
0.69
0.75
0.81
0.88
0.96
1.04
1.14
1.24
1.36
1.49
1.63
1.80
1.98
2.18
2.41
2.66
2.93
3.24
3.57
3.94
4.34
4.77
5.24
5.74
6.29
6.87
7.50
8.17
8.88
9.64
10.45
11.29
12.19
13.12
14.12
15.18
16.29
17.47
18.71
19.97
21.24
22.45
23.53
24.36
24.81
24.74
24.02
22.57
20.35
17.40
13.81
9.67
5.20
0.57
-4.03
-8.40
-12.37
-15.79
-18.51
-20.47
-21.65
-22.11
-21.97
-21.40
-20.57
-19.63
-18.65
-17.65
-16.58
-15.45
-14.24
-13.05
-12.04
-11.31
-10.92
-10.81
-10.78
-10.63
-10.19
-9.45
-8.60
-7.93
-7.72
-8.10
-8.97
-10.02
-10.84
-11.14
-10.88
-10.41
-10.21
-10.77
-12.32
-14.76
-17.62
-20.37
-22.53
-23.99
-25.02
-26.06
-27.65
-30.41
-34.95
-41.60
-50.03
-58.87
-65.78
-68.14
-63.89
-52.64
-36.13
-17.63
-0.77
11.76
18.89
21.88
21.90
20.19
17.59
14.37
10.48
5.93
0.82
-4.66
-10.33
-16.17
-21.87
-26.74
-29.67
-29.25
-24.20
-13.96
0.99
18.99
37.60
54.36
67.41
75.97
80.27
81.26
80.05
77.48
73.95
69.52
64.24
58.35
52.31
46.63
41.73
37.76
34.54
31.70
28.80
25.56
21.98
18.20
14.48
10.98
7.74
4.65
1.56
-1.66
-5.05
-8.60
-12.25
-15.90
-19.46
-22.80
-25.83
-28.54
-31.09
-33.82
-37.19
-41.62
-47.26
-53.82
-60.50
-66.07
-69.13
-68.48
-63.40
-53.96
-41.00
-26.08
-10.96
2.73
13.89
22.14
27.70
31.09
32.86
33.42
33.00
31.79
30.02
28.04
26.21
24.77
23.71
22.88
22.02
20.93
19.59
18.00
16.23
14.24
11.94
9.31
6.45
3.60
1.15
-0.61
-1.57
-1.83
-1.64
-1.31
-1.03
-0.81
-0.59
-0.34
-0.22
-0.62
-2.03
-4.90
-9.34
-15.05
-21.28
-26.96
-30.96
-32.23
-30.09
-24.29
-15.19
-3.76
8.65
20.53
30.57
38.04
42.78
45.09
45.50
44.51
42.46
39.65
36.40
33.11
30.17
27.81
26.01
24.47
22.82
20.76
18.22
15.37
12.49
9.81
7.38
5.05
2.54
-0.45
-4.08
-8.28
-12.80
-17.28
-21.45
-25.19
-28.57
-31.77
-35.08
-38.76
-42.99
-47.77
-52.86
-57.65
-61.22
-62.56
-60.81
-55.60
-47.19
-36.50
-24.85
-13.63
-3.95
3.60
8.86
12.06
13.58
13.81
13.10
11.76
10.14
8.54
7.22
6.33
5.82
5.60
5.60
5.83
6.33
7.14
8.17
9.23
10.05
10.48
10.50
10.22
9.78
9.20
8.40
7.13
5.15
2.33
-1.25
-5.31
-9.43
-13.24
-16.48
-19.17
-21.50
-23.92
-26.97
-31.24
-37.08
-44.35
-52.29
-59.49
-64.33
-65.30
-61.55
-53.08
-40.85
-26.42
-11.61
1.88
12.89
20.87
25.98
28.81
30.10
30.40
29.97
28.83
26.96
24.51
21.86
19.46
17.57
16.23
15.21
14.22
13.05
11.64
10.02
8.30
6.53
4.72
2.89
1.06
-0.73
-2.46
-4.10
-5.68
-7.22
-8.77
-10.36
-11.98
-13.63
-15.36
-17.31
-19.80
-23.22
-27.90
-33.90
-40.84
-47.82
-53.46
-56.17
-54.39
-47.10
-34.06
-16.11
4.92
26.57
46.32
62.28
73.56
80.39
83.75
84.82
84.55
83.44
81.59
79.00
75.77
72.21
68.71
65.55
62.80
60.21
57.42
54.13
50.23
45.84
41.22
36.64
32.13
27.63
22.93
17.96
12.76
7.56
2.61
-1.94
-6.06
-9.89
-13.53
-17.09
-20.63
-24.27
-28.25
-32.88
-38.41
-44.72
-51.22
-56.86
-60.37
-60.70
-57.33
-50.44
-40.86
-29.82
-18.63
-8.41
0.08
6.49
10.85
13.46
14.78
15.31
15.45
15.43
15.35
15.25
15.20
15.32
15.72
16.41
17.22
17.88
18.09
17.73
16.90
15.82
14.70
13.57
12.17
10.13
7.22
3.44
-0.85
-5.11
-8.84
-11.78
-13.99
-15.76
-17.51
-19.64
-22.46
-26.18
-30.84
-36.18
-41.57
-45.97
-48.19
-47.24
-42.73
-35.12
-25.59
-15.66
-6.72
0.44
5.68
9.33
11.90
13.74
14.96
15.53
15.44
14.83
14.04
13.42
13.27
13.66
14.45
15.39
16.25
16.87
17.25
17.52
17.84
18.32
18.87
19.16
18.75
17.25
14.59
11.07
7.30
3.91
1.25
-0.77
-2.54
-4.59
-7.26
-10.73
-15.02
-20.09
-25.75
-31.56
-36.60
-39.63
-39.48
-35.49
-27.96
-18.13
-7.69
1.76
9.27
14.65
18.25
20.51
21.72
21.85
20.80
18.65
15.71
12.52
9.61
7.30
5.66
4.52
3.63
2.82
2.07
1.43
0.93
0.51
-0.09
-1.21
-3.16
-6.06
-9.74
-13.83
-17.81
-21.31
-24.13
-26.46
-28.70
-31.41
-35.00
-39.55
-44.60
-49.19
-52.09
-52.12
-48.65
-41.77
-32.35
-21.71
-11.19
-1.80
5.91
11.79
15.91
18.34
19.22
18.73
17.25
15.29
13.43
12.17
11.72
12.03
12.78
13.55
14.05
14.14
13.82
13.13
12.05
10.48
8.36
5.69
2.65
-0.46
-3.37
-6.02
-8.57
-11.43
-15.09
-19.97
-26.23
-33.49
-40.86
-46.95
-50.28
-49.70
-44.89
-36.53
-26.03
-15.07
-5.07
3.15
9.47
14.10
17.41
19.64
20.93
21.40
21.15
20.37
19.22
17.83
16.32
14.83
13.56
12.67
12.22
12.06
11.89
11.28
9.88
7.47
4.09
-0.02
-4.49
-8.87
-12.76
-15.83
-17.95
-19.30
-20.42
-22.09
-24.98
-29.36
-34.75
-39.97
-43.44
-43.76
-40.20
-32.98
-23.16
-12.21
-1.56
7.77
15.29
20.93
24.91
27.50
28.96
29.48
29.14
28.00
26.10
23.65
20.99
18.61
16.95
16.20
16.22
16.58
16.74
16.29
15.06
13.11
10.56
7.53
4.08
0.28
-3.74
-7.82
-11.85
-15.88
-20.14
-24.92
-30.32
-35.94
-40.95
-44.21
-44.71
-41.94
-36.06
-27.87
-18.47
-8.97
-0.23
7.25
13.25
17.73
20.78
22.55
23.26
23.18
22.56
21.65
20.61
19.62
18.82
18.35
18.33
18.73
19.36
19.85
19.80
18.84
16.89
14.11
10.82
7.32
3.81
0.31
-3.27
-6.94
-10.78
-14.89
-19.54
-25.02
-31.44
-38.35
-44.66
-48.87
-49.60
-46.20
-39.03
-29.38
-18.92
-9.07
-0.61
6.35
12.12
17.02
21.16
24.45
26.74
27.96
28.26
27.93
27.30
26.63
26.04
25.53
25.08
24.64
24.27
24.01
23.87
23.72
23.24
22.05
19.80
16.38
12.07
7.39
2.95
-0.78
-3.68
-6.02
-8.32
-11.20
-15.07
-20.12
-26.08
-32.32
-37.88
-41.66
-42.70
-40.47
-35.06
-27.17
-17.95
-8.58
0.00
7.31
13.28
18.09
21.99
25.12
27.46
28.98
29.62
29.41
28.52
27.16
25.68
24.39
23.56
23.29
23.47
23.82
23.94
23.53
22.46
20.78
18.62
16.08
13.15
9.81
6.06
1.95
-2.46
-7.24
-12.60
-18.71
-25.44
-32.17
-37.81
-41.11
-41.10
-37.46
-30.62
-21.53
-11.38
-1.23
8.13
16.19
22.66
27.39
30.41
31.89
32.23
31.84
31.13
30.32
29.43
28.36
27.00
25.40
23.76
22.39
21.55
21.21
21.07
20.56
19.04
16.01
11.26
4.96
-2.36
-9.95
-17.06
-23.20
-28.35
-33.02
-38.07
-44.38
-52.34
-61.57
-70.86
-78.57
-83.17
-83.86
-80.86
-75.30
-68.74
-62.65
-57.88
-54.55
-52.40
-51.20
-51.08
-52.55
-56.22
-62.30
-70.42
-79.69
-89.19
-98.36
-107.20
-116.20
-125.96
-136.84
-148.83
-161.71
-175.38
-189.90
-205.32
-221.36
-237.03
-250.72
-260.56
-265.12
-263.99
-257.89
-248.31
-236.79
-224.16
-210.33
-194.51
-175.67
-153.16
-126.94
-97.51
-65.63
-32.10
2.37
37.27
72.16
106.84
141.45
176.44
212.66
251.42
294.39
343.15
398.18
457.83
517.81
571.85
613.47
638.05
644.24
633.85
610.63
578.30
539.37
495.16
446.88
396.90
349.06
307.68
275.67
253.05
236.71
221.90
204.55
183.02
158.33
132.86
108.17
83.73
57.41
27.13
-7.22
-43.26
-77.04
-104.85
-124.39
-134.88
-136.30
-128.58
-111.77
-86.87
-56.56
-25.17
2.61
23.56
37.16
45.56
52.22
59.94
69.28
78.44
84.19
83.80
76.46
63.65
48.11
32.06
16.02
-1.26
-21.45
-45.13
-70.91
-95.98
-117.58
-134.33
-146.75
-156.67
-166.05
-176.19
-187.56
-200.25
-214.58
-231.15
-250.18
-270.76
-290.50
-305.98
-313.94
-312.74
-303.20
-288.22
-271.52
-255.70
-240.98
-225.16
-204.86
-177.46
-142.67
-102.96
-62.69
-26.48
2.34
22.52
34.85
41.29
44.12
45.35
46.67
49.41
54.51
62.05
70.72
77.79
79.85
74.41
61.27
43.06
23.97
7.74
-4.24
-13.32
-22.15
-32.42
-43.34
-51.89
-54.83
-51.19
-43.29
-35.70
-32.67
-35.69
-42.97
-50.76
-55.76
-56.66
-53.96
-48.71
-41.12
-30.44
-15.95
1.57
19.51
34.28
43.11
45.40
42.85
38.31
34.36
32.41
32.81
35.46
40.21
46.80
54.49
61.76
66.67
67.57
63.85
56.30
46.83
37.61
30.15
24.64
19.74
13.23
2.92
-12.19
-31.22
-51.52
-69.44
-81.61
-85.99
-82.40
-72.18
-57.48
-40.48
-22.98
-6.39
8.19
19.84
27.97
32.52
34.19
34.33
34.60
36.46
40.62
46.88
54.16
60.79
65.16
66.16
63.73
58.90
53.47
49.46
48.48
51.28
57.69
66.95
78.09
90.14
102.18
113.12
121.58
125.90
124.55
116.62
102.15
82.15
58.34
32.61
6.60
-18.67
-42.90
-66.51
-90.33
-114.99
-140.34
-164.95
-186.37
-202.01
-210.38
-212.11
-209.92
-207.64
-208.51
-213.76
-222.23
-231.21
-237.95
-241.05
-241.10
-240.07
-240.16
-242.57
-247.01
-251.91
-255.29
-255.51
-251.68
-243.44
-230.42
-212.01
-187.60
-157.32
-122.75
-87.02
-54.25
-28.26
-11.48
-4.36
-5.56
-12.64
-22.96
-34.15
-44.35
-52.12
-56.37
-56.27
-51.47
-42.21
-29.53
-15.18
-1.14
11.12
21.52
31.33
42.51
56.24
71.83
86.72
97.62
102.41
101.43
97.36
93.81
93.37
96.41
101.32
105.79
108.29
108.78
108.31
108.07
108.41
108.72
107.90
105.08
100.20
93.99
87.86
83.17
80.72
80.29
80.57
79.59
75.46
67.31
55.88
43.48
33.33
28.43
30.64
40.21
55.94
75.80
97.53
119.14
139.03
156.06
169.47
178.89
184.27
185.83
184.01
179.40
172.90
165.67
159.01
154.01
151.22
150.22
149.57
147.17
140.88
129.32
112.45
91.54
68.70
45.98
24.48
3.94
-17.06
-40.20
-66.28
-94.23
-120.80
-141.27
-150.86
-146.59
-128.63
-100.70
-69.18
-41.32
-23.23
-18.17
-25.82
-42.49
-62.06
-77.63
-83.15
-75.20
-54.05
-23.85
8.47
35.27
50.46
51.36
39.09
17.72
-7.41
-31.41
-50.93
-64.42
-71.77
-73.71
-71.23
-65.33
-56.94
-46.81
-35.53
-23.52
-11.07
1.63
14.27
26.44
37.69
47.81
57.06
66.40
77.40
91.78
110.65
133.91
159.87
185.40
206.70
220.41
224.67
219.84
208.29
193.40
178.15
163.99
150.43
135.59
117.42
94.83
68.33
39.76
11.50
-14.52
-37.35
-56.98
-73.95
-88.78
-101.85
-113.42
-123.86
-133.79
-143.81
-154.24
-164.71
-174.20
-181.37
-185.27
-185.83
-183.95
-181.00
-178.02
-175.14
-171.44
-165.59
-156.54
-144.23
-129.67
-114.40
-99.85
-86.69
-74.71
-63.24
-51.70
-40.03
-28.87
-19.09
-11.28
-5.28
-0.10
5.75
13.64
24.22
37.11
51.08
64.50
75.98
84.80
91.04
95.19
97.81
99.03
98.41
95.02
87.84
76.19
60.16
40.81
20.00
0.01
-17.06
-29.91
-38.40
-43.60
-47.41
-52.05
-59.29
-69.83
-82.90
-96.20
-106.40
-110.02
-104.63
-89.66
-66.83
-39.56
-11.87
12.78
32.33
46.03
53.98
56.52
54.00
47.03
36.89
25.55
15.15
7.12
1.48
-3.17
-8.89
-17.19
-28.14
-40.22
-50.94
-57.95
-60.00
-57.38
-51.61
-44.76
-38.58
-34.04
-31.18
-29.35
-27.71
-25.70
-23.33
-21.30
-20.71
-22.77
-28.28
-37.30
-48.87
-60.90
-70.34
-73.65
-67.48
-49.28
-17.99
25.47
78.04
134.63
188.82
234.07
265.22
279.85
278.79
265.73
245.83
224.08
203.94
186.92
172.97
161.21
150.77
141.10
131.95
123.18
114.66
106.22
97.70
88.99
80.01
70.65
60.75
50.18
38.88
26.99
14.82
2.79
-8.75
-19.70
-30.26
-40.86
-51.89
-63.27
-74.18
-82.99
-87.57
-85.86
-76.61
-59.99
-37.62
-12.29
12.89
35.31
53.49
67.22
77.26
84.82
90.95
96.16
100.28
102.59
102.07
97.91
89.94
78.99
66.93
56.10
48.54
45.31
46.26
50.47
56.96
65.23
75.32
87.29
100.51
113.36
123.47
128.86
129.12
126.03
122.97
123.22
127.90
134.77
138.60
133.10
113.30
77.40
27.13
-33.01
-97.14
-159.07
-213.01
-253.99
-278.60
-285.77
-277.25
-257.31
-231.36
-204.39
-179.81
-159.28
-143.39
-132.32
-126.17
-124.69
-126.92
-131.11
-135.15
-137.20
-136.14
-131.54
-123.51
-112.27
-97.98
-80.79
-61.02
-39.41
-17.23
3.70
21.43
34.50
42.46
46.27
47.86
49.17
51.11
52.67
51.13
43.12
26.19
0.06
-32.96
-68.74
-102.89
-132.30
-155.95
-174.89
-191.30
-207.04
-222.38
-235.29
-241.49
-235.60
-212.99
-172.07
-115.88
-52.23
8.03
54.19
79.26
81.96
66.55
40.71
12.44
-12.24
-30.04
-39.82
-41.44
-34.89
-20.24
2.06
30.61
62.87
95.43
124.54
146.88
160.50
165.80
166.23
168.05
178.86
204.94
248.25
304.57
364.09
414.37
444.75
450.07
431.88
396.90
353.34
307.30
261.07
213.79
163.65
109.97
54.04
-1.36
-53.20
-99.01
-137.19
-167.05
-188.71
-203.24
-212.36
-217.61
-219.42
-216.61
-206.74
-187.31
-157.29
-118.09
-73.35
-27.98
13.29
46.68
69.62
80.28
77.42
60.50
30.27
-10.79
-58.35
-107.03
-151.51
-187.63
-212.96
-226.67
-229.00
-220.76
-203.26
-178.61
-149.90
-121.11
-96.06
-77.28
-65.26
-58.37
-53.74
-48.51
-40.97
-30.93
-19.49
-8.20
1.62
9.14
14.00
16.30
16.72
16.89
19.35
26.90
41.23
61.76
85.22
106.65
121.08
125.28
118.61
102.76
80.74
55.96
31.58
10.25
-6.12
-16.75
-22.13
-23.83
-23.78
-23.48
-23.77
-25.18
-28.42
-34.57
-44.19
-56.32
-67.98
-74.93
-73.59
-63.12
-46.30
-28.57
-15.75
-11.55
-16.28
-27.36
-40.95
-53.86
-64.56
-72.98
-79.69
-85.03
-88.80
-90.63
-90.54
-89.09
-87.12
-85.14
-82.86
-79.18
-72.83
-63.10
-50.42
-36.29
-22.64
-11.02
-2.03
4.74
10.27
15.49
20.86
26.31
31.45
35.83
39.09
40.94
41.15
39.54
36.21
31.63
26.59
22.05
18.81
17.29
17.42
18.75
20.51
21.87
22.14
20.97
18.48
15.23
11.93
9.12
6.94
5.10
3.12
0.64
-2.40
-5.71
-8.81
-11.30
-13.07
-14.37
-15.78
-17.94
-21.35
-26.05
-31.51
-36.73
-40.52
-41.90
-40.35
-35.96
-29.24
-20.94
-11.82
-2.58
6.21
14.04
20.54
25.49
28.86
30.77
31.47
31.28
30.57
29.76
29.19
29.11
29.50
30.18
30.83
31.22
31.36
31.52
32.08
33.24
34.85
36.33
36.86
35.77
32.85
28.53
23.68
19.30
16.07
14.09
12.94
11.87
10.23
7.69
4.34
0.60
-3.00
-6.09
-8.54
-10.51
-12.34
-14.43
-17.10
-20.44
-24.31
-28.18
-31.32
-32.83
-31.90
-28.06
-21.39
-12.55
-2.65
7.11
15.78
22.91
28.45
32.62
35.63
37.54
38.35
38.16
37.24
36.01
34.86
33.96
33.22
32.36
31.14
29.50
27.66
25.91
24.49
23.44
22.56
21.51
20.01
17.94
15.43
12.71
9.97
7.26
4.41
1.11
-2.96
-7.91
-13.58
-19.44
-24.80
-29.07
-32.00
-33.86
-35.45
-37.74
-41.51
-46.89
-53.15
-58.91
-62.55
-62.78
-59.08
-51.82
-42.07
-31.28
-20.78
-11.59
-4.20
1.33
5.33
8.35
10.95
13.57
16.39
19.33
22.15
24.60
26.59
28.18
29.57
30.92
32.36
33.87
35.37
36.72
37.76
38.27
37.96
36.55
33.95
30.33
26.19
22.26
19.19
17.33
16.58
16.46
16.28
15.45
13.61
10.74
7.08
3.01
-1.05
-4.79
-8.06
-10.95
-13.87
-17.44
-22.30
-28.69
-36.18
-43.59
-49.25
-51.59
-49.70
-43.71
-34.76
-24.45
-14.26
-5.09
2.89
9.95
16.43
22.47
28.01
32.89
36.97
40.18
42.42
43.62
43.76
43.17
42.50
42.60
44.08
46.87
50.04
52.16
51.96
49.03
44.17
39.02
35.25
33.58
33.31
32.58
29.20
21.86
10.88
-1.66
-12.77
-19.56
-20.27
-14.97
-5.49
4.95
12.24
12.10
1.02
-22.33
-55.89
-93.41
-125.39
-141.60
-134.87
-104.27
-56.10
-2.01
45.11
75.51
85.15
75.79
52.89
22.82
-8.97
-38.57
-63.16
-80.48
-88.95
-88.21
-79.56
-65.64
-49.78
-34.68
-21.69
-10.78
-1.05
8.54
18.56
28.97
39.22
48.58
56.35
62.02
65.24
65.87
63.97
59.90
54.24
47.71
40.95
34.48
28.67
23.93
20.81
19.84
21.12
23.87
26.43
26.77
23.60
17.13
9.18
2.19
-2.20
-4.21
-5.78
-9.34
-16.26
-25.97
-36.44
-45.54
-52.28
-57.15
-61.18
-64.61
-66.26
-64.10
-56.69
-44.46
-29.93
-16.35
-5.86
1.73
8.84
18.60
32.91
51.29
71.22
89.75
105.10
117.24
127.01
134.54
138.15
134.74
121.49
97.74
65.82
30.18
-4.60
-35.49
-61.60
-83.24
-100.53
-112.67
-118.35
-116.87
-108.98
-96.75
-82.42
-67.18
-50.91
-32.93
-13.26
6.47
23.39
34.59
38.70
36.67
31.48
26.90
26.11
30.52
39.20
49.15
55.91
54.84
42.59
18.68
-13.38
-46.48
-71.69
-81.53
-73.04
-49.57
-19.81
5.36
16.88
10.68
-11.47
-43.52
-77.93
-108.37
-131.23
-145.58
-152.25
-152.81
-148.94
-142.30
-134.56
-127.21
-121.28
-116.97
-113.49
-109.34
-102.72
-92.19
-77.27
-58.65
-38.18
-18.35
-1.53
10.76
18.34
22.36
24.83
27.89
32.98
40.44
49.41
58.31
65.51
69.99
71.61
71.10
69.58
68.19
67.68
68.28
69.68
71.18
71.83
70.81
67.84
63.35
58.60
55.24
54.79
58.13
65.18
74.67
84.18
90.40
89.75
79.45
58.65
29.14
-4.74
-37.36
-63.59
-80.57
-88.35
-89.37
-86.92
-83.76
-81.27
-79.59
-78.33
-77.17
-76.01
-74.80
-73.21
-70.51
-65.91
-59.12
-50.58
-41.52
-33.46
-27.49
-23.88
-22.16
-21.50
-21.25
-21.28
-21.81
-23.07
-25.00
-27.13
-28.88
-29.98
-30.67
-31.67
-33.87
-38.00
-44.45
-53.18
-63.76
-75.27
-86.26
-94.76
-98.71
-96.55
-87.83
-73.52
-55.60
-36.40
-17.78
-0.80
14.19
27.05
37.56
45.45
50.82
54.51
58.18
63.72
72.36
83.90
96.47
107.18
113.13
112.44
104.90
91.78
75.23
57.53
40.62
25.83
13.94
5.11
-1.05
-5.60
-10.06
-15.93
-24.22
-34.95
-47.20
-59.36
-69.84
-77.55
-82.17
-84.09
-84.07
-82.92
-81.36
-80.13
-79.96
-81.54
-85.20
-90.60
-96.50
-101.03
-102.17
-98.54
-89.88
-77.02
-61.51
-44.86
-28.08
-11.76
3.68
17.56
29.05
37.68
43.93
49.33
55.91
65.17
77.15
90.45
102.88
112.82
119.88
124.83
128.85
132.63
136.10
138.89
141.00
143.06
145.95
150.01
154.59
158.30
159.94
159.26
157.11
154.81
153.02
151.22
147.93
141.51
131.24
117.65
102.16
86.44
71.75
58.74
47.68
38.67
31.82
27.08
24.26
23.06
23.23
24.53
26.58
28.73
30.20
30.44
29.72
29.19
30.40
34.47
41.36
49.89
58.34
65.38
70.48
73.72
75.20
74.68
71.64
65.86
57.79
48.62
39.69
31.98
25.80
20.85
16.51
11.88
5.92
-2.54
-14.24
-28.90
-44.80
-59.04
-68.59
-71.58
-68.16
-60.48
-51.70
-44.62
-40.78
-40.26
-42.14
-45.22
-48.50
-51.40
-53.60
-54.95
-55.42
-55.15
-54.43
-53.61
-53.00
-52.72
-52.84
-53.37
-54.35
-55.79
-57.61
-59.63
-61.62
-63.51
-65.44
-67.72
-70.66
-74.29
-78.29
-82.09
-85.07
-86.92
-87.78
-88.31
-89.36
-91.63
-95.25
-99.49
-102.91
-103.72
-100.43
-92.42
-80.11
-64.92
-48.64
-32.97
-19.02
-7.21
2.54
10.53
16.97
21.95
25.48
27.64
28.67
28.85
28.41
27.39
25.60
22.91
19.41
15.59
12.20
9.91
8.97
9.02
9.19
8.48
6.17
2.06
-3.49
-9.87
-16.44
-22.76
-28.67
-34.22
-39.71
-45.57
-52.35
-60.41
-69.68
-79.36
-88.00
-93.81
-95.25
-91.66
-83.48
-72.14
-59.49
-47.17
-36.15
-26.70
-18.64
-11.78
-6.30
-2.70
-1.57
-3.18
-7.24
-12.92
-19.18
-25.17
-30.58
-35.59
-40.56
-45.75
-51.17
-56.66
-62.18
-67.95
-74.34
-81.37
-88.37
-93.79
-95.70
-92.53
-83.73
-70.05
-53.17
-35.05
-17.26
-0.65
14.46
28.04
40.09
50.69
60.11
68.88
77.63
86.62
95.65
103.96
110.78
115.73
119.21
122.26
126.19
132.26
141.35
153.94
170.02
189.05
209.89
230.82
249.74
264.58
273.69
276.12
271.76
261.21
245.70
226.94
206.85
187.28
169.63
154.49
141.59
130.05
118.85
107.24
94.97
82.25
69.52
57.24
45.70
34.92
24.69
14.69
4.59
-5.86
-16.70
-27.86
-39.13
-50.17
-60.46
-69.22
-75.45
-78.24
-77.17
-72.80
-66.72
-61.16
-58.17
-58.75
-62.51
-67.90
-73.07
-76.61
-77.99
-77.35
-75.03
-71.16
-65.71
-58.92
-51.64
-45.34
-41.63
-41.47
-44.72
-50.09
-55.74
-59.98
-61.83
-61.12
-58.28
-53.94
-48.68
-42.96
-37.16
-31.70
-26.94
-23.12
-20.21
-17.98
-16.02
-14.05
-11.97
-9.98
-8.42
-7.65
-7.86
-9.16
-11.59
-15.25
-20.21
-26.16
-32.31
-37.23
-39.21
-36.81
-29.49
-17.87
-3.62
11.19
24.79
36.34
45.89
54.11
61.71
68.99
75.68
81.23
85.03
86.82
86.74
85.21
82.75
79.70
76.15
71.96
66.93
60.89
53.90
46.18
38.11
29.98
21.86
13.59
4.90
-4.34
-13.97
-23.53
-32.51
-40.65
-48.04
-55.01
-61.84
-68.54
-74.85
-80.42
-85.08
-88.88
-92.04
-94.67
-96.71
-97.96
-98.52
-99.05
-100.90
-105.75
-114.87
-128.28
-144.32
-159.79
-170.93
-174.69
-169.89
-157.51
-140.23
-121.26
-103.15
-87.08
-73.02
-60.27
-48.26
-36.90
-26.46
-17.25
-9.26
-2.13
4.67
11.52
18.41
24.97
30.65
35.03
38.05
40.04
41.70
43.73
46.56
50.18
54.11
57.67
60.20
61.44
61.53
60.91
59.98
58.92
57.50
55.28
51.84
47.00
40.96
34.20
27.23
20.38
13.67
6.79
-0.80
-9.60
-19.79
-30.88
-41.71
-50.48
-55.32
-54.87
-48.82
-38.12
-24.64
-10.57
2.29
12.97
21.36
27.86
32.94
36.83
39.47
40.63
40.16
38.21
35.18
31.73
28.51
25.98
24.31
23.33
22.67
21.93
20.89
19.58
18.30
17.39
17.07
17.33
17.88
18.26
17.92
16.31
13.02
7.88
1.03
-7.00
-15.39
-23.26
-29.94
-35.23
-39.51
-43.64
-48.68
-55.35
-63.68
-72.66
-80.47
-85.01
-84.57
-78.49
-67.37
-52.84
-36.95
-21.55
-7.87
3.58
12.79
20.10
25.86
30.45
34.13
37.10
39.48
41.33
42.78
43.96
45.09
46.47
48.52
51.75
56.64
63.21
70.74
77.66
82.02
82.31
78.15
70.49
61.05
51.32
41.90
32.40
22.18
11.13
0.06
-9.76
-17.34
-22.70
-26.81
-31.03
-36.27
-42.59
-49.29
-55.31
-59.61
-61.44
-60.29
-55.99
-48.89
-39.88
-30.31
-21.57
-14.63
-9.69
-6.24
-3.42
-0.47
2.89
6.47
9.76
12.27
13.69
14.02
13.49
12.54
11.63
11.14
11.22
11.72
12.32
12.63
12.43
11.64
10.33
8.53
6.13
2.92
-1.24
-6.23
-11.55
-16.48
-20.40
-23.06
-24.75
-26.19
-28.21
-31.50
-36.39
-42.82
-50.35
-58.22
-65.36
-70.49
-72.32
-69.88
-62.82
-51.63
-37.55
-22.29
-7.58
5.24
15.46
23.01
28.25
31.69
33.70
34.50
34.21
32.97
31.14
29.19
27.57
26.47
25.73
24.91
23.57
21.50
18.82
15.88
13.03
10.33
7.60
4.42
0.53
-4.07
-8.98
-13.64
-17.54
-20.42
-22.32
-23.49
-24.31
-25.19
-26.61
-29.10
-33.13
-38.80
-45.69
-52.75
-58.50
-61.47
-60.71
-56.03
-47.91
-37.34
-25.38
-12.99
-0.95
10.16
19.89
27.93
34.17
38.63
41.51
43.06
43.59
43.45
43.09
42.97
43.44
44.59
46.20
47.79
48.84
48.99
48.23
46.74
44.83
42.70
40.38
37.75
34.64
30.91
26.51
21.44
15.79
9.70
3.38
-2.93
-9.04
-14.90
-20.63
-26.48
-32.70
-39.37
-46.30
-52.90
-58.30
-61.43
-61.31
-57.27
-49.18
-37.52
-23.31
-7.83
7.66
22.12
34.87
45.47
53.74
59.58
63.09
64.61
64.81
64.51
64.54
65.40
67.03
68.83
69.90
69.47
67.25
63.53
59.08
54.74
51.04
47.97
45.00
41.32
36.26
29.57
21.49
12.50
2.98
-7.05
-17.99
-30.17
-43.65
-58.02
-72.66
-87.02
-100.43
-111.48
-117.52
-114.73
-99.59
-70.98
-32.00
10.11
46.02
67.73
71.48
58.91
35.84
9.60
-13.62
-30.29
-39.62
-42.65
-41.27
-37.46
-32.86
-28.64
-25.36
-23.17
-22.09
-22.30
-24.37
-29.08
-37.12
-48.62
-62.72
-77.37
-89.31
-94.49
-88.95
-70.16
-38.25
3.38
48.75
90.90
124.01
144.86
153.21
150.80
139.89
122.17
98.69
70.55
39.66
8.88
-18.75
-41.21
-58.48
-72.36
-85.29
-98.71
-111.90
-122.07
-125.55
-119.66
-104.02
-81.06
-55.23
-31.68
-14.77
-6.76
-7.06
-12.06
-15.82
-11.72
5.27
36.29
77.52
120.89
156.72
176.96
177.88
160.77
130.80
94.61
58.16
25.53
-1.17
-21.19
-34.64
-42.26
-45.35
-45.72
-45.26
-45.39
-46.79
-49.30
-52.23
-54.92
-57.04
-58.81
-60.83
-63.71
-67.63
-72.16
-76.29
-78.98
-79.68
-78.70
-76.94
-75.25
-73.65
-71.04
-65.66
-56.10
-42.26
-25.76
-9.45
3.75
11.94
15.01
14.51
13.05
13.26
16.88
24.26
34.48
45.84
56.52
65.19
71.15
74.07
73.77
70.13
63.35
54.41
45.16
37.96
34.91
36.87
43.02
51.20
58.83
63.93
65.88
65.43
64.21
64.12
66.76
73.04
82.88
94.81
106.04
112.83
111.64
100.45
79.72
52.43
23.00
-4.31
-26.90
-44.28
-57.59
-68.36
-77.46
-84.59
-88.63
-88.35
-83.28
-74.02
-62.07
-49.31
-37.37
-27.10
-18.44
-10.79
-3.46
3.81
10.65
16.23
19.72
20.76
19.72
17.58
15.54
14.49
14.65
15.49
16.05
15.39
13.16
9.72
5.96
2.86
0.86
-0.26
-1.34
-3.32
-6.74
-11.37
-16.41
-20.80
-23.79
-25.21
-25.53
-25.60
-26.30
-28.33
-32.10
-37.67
-44.78
-52.83
-60.92
-67.90
-72.59
-74.08
-71.99
-66.60
-58.73
-49.47
-39.85
-30.58
-22.00
-14.14
-6.88
-0.08
6.29
12.19
17.49
22.00
25.63
28.37
30.38
32.01
33.67
35.79
38.53
41.70
44.82
47.24
48.41
48.01
46.07
42.87
38.74
33.93
28.56
22.66
16.23
9.41
2.38
-4.60
-11.34
-17.74
-23.77
-29.43
-34.73
-39.74
-44.56
-49.46
-54.74
-60.59
-66.89
-73.03
-77.91
-80.22
-78.81
-73.11
-63.32
-50.44
-35.85
-21.00
-7.00
5.42
15.98
24.60
31.30
36.09
39.07
40.42
40.49
39.75
38.72
37.88
37.60
38.02
39.08
40.57
42.13
43.46
44.31
44.55
44.10
42.86
40.70
37.47
33.20
28.13
22.69
17.37
12.47
7.97
3.52
-1.26
-6.61
-12.41
-18.28
-23.73
-28.52
-32.77
-36.94
-41.70
-47.60
-54.82
-62.96
-70.97
-77.32
-80.35
-78.75
-72.03
-60.66
-45.98
-29.73
-13.55
1.41
14.51
25.52
34.39
41.11
45.72
48.42
49.60
49.80
49.58
49.35
49.32
49.54
49.92
50.38
50.93
51.54
52.25
53.08
53.99
54.85
55.40
55.27
54.02
51.39
47.37
42.31
36.82
31.47
26.59
22.11
17.68
12.88
7.46
1.45
-4.88
-11.19
-17.27
-23.03
-28.60
-34.21
-40.15
-46.75
-54.26
-62.75
-71.92
-81.05
-89.04
-94.56
-96.49
-94.06
-87.21
-76.49
-63.00
-48.07
-33.00
-18.80
-6.03
5.11
14.70
22.79
29.35
34.26
37.49
39.29
40.15
40.72
41.48
42.62
43.99
45.28
46.22
46.71
46.80
46.57
45.96
44.84
43.01
40.44
37.23
33.61
29.79
25.90
21.89
17.66
13.06
8.06
2.66
-3.02
-8.87
-14.84
-20.93
-27.20
-33.81
-40.97
-48.94
-57.79
-67.24
-76.40
-83.83
-87.81
-86.91
-80.54
-69.20
-54.40
-38.10
-22.12
-7.67
4.73
15.12
23.66
30.44
35.41
38.44
39.62
39.29
38.10
36.83
36.21
36.59
37.86
39.57
41.07
41.91
41.99
41.55
40.98
40.61
40.43
40.18
39.43
37.83
35.24
31.75
27.52
22.76
17.69
12.54
7.57
2.95
-1.36
-5.67
-10.51
-16.34
-23.11
-30.09
-35.82
-38.50
-36.59
-29.34
-17.14
-1.37
16.03
33.19
48.79
62.30
73.90
84.10
93.51
102.62
111.71
120.72
129.00
135.13
137.00
132.28
119.26
97.60
68.78
35.92
2.95
-26.36
-49.33
-64.89
-73.48
-76.73
-76.87
-76.27
-76.96
-80.22
-86.24
-93.93
-101.14
-105.31
-104.36
-97.38
-85.05
-69.24
-52.29
-36.18
-21.90
-9.50
1.66
12.32
23.08
34.13
45.40
56.43
66.52
74.85
80.88
84.81
87.68
91.09
96.42
104.01
112.77
120.48
124.65
123.61
117.13
106.41
93.52
80.50
68.83
59.33
52.42
48.50
47.91
50.77
56.52
63.73
70.36
74.29
74.00
69.12
60.48
49.67
38.39
27.79
18.20
9.18
0.10
-9.50
-19.68
-30.22
-40.86
-51.46
-61.93
-72.11
-81.64
-90.11
-97.32
-103.43
-108.99
-114.67
-120.88
-127.70
-134.83
-141.98
-148.91
-155.39
-161.01
-165.01
-166.44
-164.52
-159.01
-150.40
-139.72
-128.25
-117.11
-107.08
-98.50
-91.32
-85.23
-79.79
-74.58
-69.29
-63.72
-57.77
-51.35
-44.28
-36.35
-27.34
-17.07
-5.43
7.51
21.56
36.30
51.06
65.02
77.36
87.44
94.90
99.69
101.97
101.97
99.90
95.89
89.99
82.10
71.93
59.10
43.36
24.96
4.95
-14.86
-32.30
-45.43
-53.10
-55.12
-52.17
-45.53
-36.78
-27.79
-20.60
-17.27
-19.26
-26.69
-37.67
-48.28
-53.40
-48.44
-31.19
-3.11
30.63
62.46
84.86
92.86
85.60
66.38
40.99
15.41
-6.32
-22.82
-34.93
-44.18
-51.49
-56.63
-58.60
-56.57
-50.68
-42.17
-32.89
-24.38
-17.17
-10.73
-3.98
4.00
13.42
23.75
34.07
43.38
50.70
54.75
53.70
45.30
27.68
0.28
-35.35
-75.63
-115.80
-151.35
-179.19
-198.16
-208.81
-212.71
-211.74
-207.70
-202.04
-195.77
-189.32
-182.32
-173.85
-162.89
-149.05
-132.95
-116.16
-100.61
-87.58
-77.02
-67.44
-56.57
-42.42
-24.23
-2.77
19.97
41.58
59.98
73.79
82.17
84.62
80.94
71.56
57.88
42.26
27.45
15.71
8.07
4.20
2.98
3.39
5.00
8.08
12.94
19.44
26.90
34.57
42.20
50.15
58.97
68.49
77.43
83.60
84.96
80.58
71.22
58.99
46.57
36.35
30.02
28.76
33.36
44.32
61.41
83.34
107.61
131.11
151.05
165.79
175.27
180.51
182.86
183.48
182.99
181.76
179.90
177.14
172.47
164.16
150.30
129.89
103.80
75.09
48.34
28.17
17.81
18.21
28.09
44.58
64.10
83.05
98.36
107.97
111.32
109.56
105.25
101.35
99.91
101.29
104.04
105.52
103.19
95.19
80.76
59.88
33.04
1.16
-33.97
-69.50
-101.75
-127.23
-143.97
-152.46
-155.61
-157.51
-161.74
-169.76
-180.39
-190.28
-195.34
-192.32
-180.11
-160.09
-135.44
-109.92
-86.45
-66.22
-48.58
-31.87
-14.58
3.61
21.56
37.21
48.71
55.46
58.46
60.00
62.74
68.67
78.49
91.31
104.90
116.15
121.81
119.35
107.80
88.35
64.29
40.15
20.29
7.34
1.48
0.74
2.11
3.08
2.43
0.27
-2.48
-4.40
-3.66
2.05
14.83
35.32
61.13
86.43
103.24
104.54
87.38
54.36
12.50
-29.85
-66.34
-94.25
-113.96
-126.90
-133.95
-135.05
-130.30
-121.05
-110.10
-100.61
-94.36
-90.87
-87.62
-81.60
-71.04
-56.33
-39.77
-24.37
-12.54
-5.19
-1.83
-1.10
-1.60
-2.37
-3.01
-3.47
-3.79
-3.96
-3.86
-3.46
-3.00
-3.05
-4.47
-8.16
-14.63
-23.75
-34.54
-45.30
-54.03
-58.94
-58.93
-53.94
-44.86
-33.30
-21.07
-9.70
-0.07
7.77
14.46
20.98
28.26
36.77
46.29
56.00
64.67
71.14
74.57
74.76
72.16
67.72
62.56
57.62
53.52
50.41
48.21
46.70
45.74
45.24
45.03
44.82
44.05
42.12
38.68
33.93
28.69
24.28
22.05
22.90
26.86
32.97
39.38
43.72
43.65
37.60
25.45
9.12
-7.49
-19.28
-21.59
-11.95
8.75
36.34
64.73
87.94
101.87
105.09
98.54
84.44
65.37
43.58
20.95
-0.85
-20.29
-36.13
-47.65
-54.83
-58.31
-59.25
-58.96
-58.61
-58.94
-60.11
-61.67
-62.88
-63.06
-61.93
-59.77
-57.25
-55.15
-54.05
-54.03
-54.80
-55.76
-56.35
-56.24
-55.41
-54.14
-52.82
-51.80
-51.19
-50.96
-51.02
-51.39
-52.19
-53.53
-55.26
-56.72
-56.80
-54.17
-47.79
-37.36
-23.59
-7.98
7.54
21.25
32.01
39.53
44.14
46.64
47.96
48.86
49.82
50.87
51.59
51.18
48.67
43.22
34.47
22.78
9.18
-4.79
-17.47
-27.49
-34.05
-37.18
-37.67
-36.92
-36.48
-37.54
-40.57
-45.12
-50.10
-54.31
-57.04
-58.46
-59.58
-61.81
-66.28
-73.28
-81.98
-90.70
-97.35
-100.14
-98.02
-90.89
-79.52
-65.15
-49.14
-32.73
-16.86
-2.21
10.78
21.91
31.21
38.83
45.00
49.84
53.36
55.45
56.03
55.10
52.91
49.80
46.13
42.16
38.00
33.77
29.71
26.27
23.99
23.25
23.94
25.38
26.43
25.87
22.87
17.32
9.85
1.54
-6.56
-13.89
-20.49
-26.74
-32.97
-38.92
-43.62
-45.70
-43.89
-37.74
-27.88
-16.00
-4.28
5.19
11.01
12.73
10.94
7.02
2.84
0.30
0.85
5.09
12.58
21.97
31.52
39.65
45.55
49.34
51.81
53.99
56.73
60.40
64.83
69.34
72.64
73.09
69.14
60.18
47.32
33.50
22.61
17.93
20.47
28.20
36.59
40.41
35.71
21.25
-1.28
-28.30
-55.77
-80.46
-100.56
-115.52
-125.63
-131.34
-132.94
-130.42
-123.59
-112.42
-97.37
-79.47
-60.15
-40.76
-22.35
-5.38
10.02
23.73
35.39
44.45
50.63
54.29
56.62
59.19
63.26
69.02
75.41
80.58
82.82
81.39
76.85
70.84
65.26
61.56
60.29
61.12
63.15
65.34
66.92
67.46
66.88
65.29
62.88
59.83
56.33
52.50
48.38
43.80
38.64
33.04
27.54
22.90
19.62
17.43
15.05
10.65
2.69
-9.18
-23.71
-38.47
-50.77
-58.70
-61.65
-60.23
-55.73
-49.55
-42.76
-36.12
-30.18
-25.34
-21.86
-19.75
-18.74
-18.35
-17.98
-17.13
-15.48
-13.03
-10.03
-6.88
-4.03
-1.78
-0.29
0.49
0.71
0.57
0.16
-0.61
-2.00
-4.36
-7.92
-12.63
-18.03
-23.34
-27.81
-31.02
-33.14
-34.99
-37.65
-41.98
-48.16
-55.56
-62.95
-68.91
-72.36
-72.83
-70.46
-65.80
-59.50
-51.94
-42.98
-32.02
-18.48
-2.38
15.11
31.68
44.60
51.83
52.94
49.19
42.82
35.82
28.98
21.91
13.78
4.37
-5.41
-13.79
-19.08
-20.33
-17.60
-11.49
-2.67
8.40
21.26
35.19
49.32
62.86
75.55
87.51
98.69
108.21
114.21
114.37
107.09
92.34
71.99
49.01
26.42
6.32
-10.39
-23.66
-33.84
-41.33
-46.64
-50.50
-53.89
-57.88
-63.27
-70.40
-79.12
-88.77
-98.32
-106.46
-111.75
-112.83
-108.87
-99.82
-86.52
-70.50
-53.56
-37.26
-22.59
-9.93
0.84
9.98
17.63
23.67
27.76
29.58
29.20
27.27
25.00
23.76
24.60
27.74
32.58
38.11
43.47
48.46
53.46
58.83
64.39
69.25
72.15
72.23
69.48
64.79
59.28
53.63
47.65
40.47
31.04
18.69
3.33
-14.58
-34.26
-54.70
-74.62
-92.46
-106.64
-115.86
-119.43
-117.36
-110.20
-98.77
-84.10
-67.34
-49.84
-32.88
-17.25
-2.96
10.92
25.65
41.99
59.47
76.26
89.85
98.24
100.91
98.87
94.08
88.23
81.89
74.42
64.54
51.36
35.28
18.28
3.58
-5.30
-5.74
2.95
18.84
37.51
53.08
59.71
53.40
33.33
2.09
-35.33
-73.20
-106.87
-133.86
-154.06
-169.01
-180.78
-190.98
-200.18
-207.95
-213.22
-214.70
-211.30
-202.36
-187.73
-167.94
-144.28
-118.61
-93.16
-69.96
-50.45
-35.22
-24.06
-16.18
-10.46
-5.77
-1.07
4.39
11.00
18.62
26.75
34.70
41.89
48.06
53.27
57.64
61.14
63.51
64.35
63.38
60.62
56.46
51.45
46.11
40.80
35.60
30.43
25.19
19.80
14.29
8.68
2.90
-3.26
-10.19
-18.28
-27.74
-38.41
-49.61
-60.22
-68.84
-74.06
-74.78
-70.39
-60.91
-47.08
-30.20
-12.00
5.79
21.64
34.65
44.60
51.91
57.35
61.67
65.29
68.11
69.78
70.00
68.83
66.93
65.26
64.72
65.68
67.78
70.06
71.43
71.15
69.12
65.84
62.05
58.32
54.78
51.10
46.80
41.55
35.51
29.23
23.43
18.62
14.81
11.42
7.53
2.27
-4.79
-13.48
-23.01
-32.20
-39.70
-44.26
-44.86
-40.88
-32.26
-19.55
-3.90
13.13
29.84
44.76
56.90
65.78
71.38
73.98
73.92
71.59
67.52
62.50
57.56
53.87
52.31
53.07
55.49
58.16
59.52
58.49
54.94
49.72
44.22
39.71
36.85
35.56
35.24
35.21
34.98
34.29
32.98
30.79
27.38
22.45
16.00
8.42
0.41
-7.30
-14.29
-20.62
-26.82
-33.65
-41.71
-51.10
-61.28
-71.11
-79.21
-84.39
-85.89
-83.62
-77.99
-69.72
-59.70
-48.78
-37.77
-27.40
-18.20
-10.40
-3.93
1.53
6.31
10.66
14.66
18.30
21.65
24.83
27.95
31.03
33.89
36.28
38.07
39.35
40.50
41.97
44.10
46.85
49.71
51.87
52.47
50.86
46.91
40.99
33.91
26.62
20.00
14.55
10.38
7.17
4.40
1.52
-1.88
-5.91
-10.43
-15.11
-19.56
-23.62
-27.40
-31.34
-35.96
-41.65
-48.31
-55.33
-61.59
-65.88
-67.24
-65.33
-60.58
-54.05
-47.07
-40.79
-35.91
-32.56
-30.47
-29.34
-28.99
-29.45
-30.78
-32.86
-35.29
-37.40
-38.56
-38.37
-36.80
-34.18
-30.99
-27.69
-24.61
-21.93
-19.68
-17.86
-16.53
-15.86
-16.19
-17.92
-21.36
-26.56
-33.21
-40.68
-48.25
-55.33
-61.67
-67.30
-72.49
-77.62
-83.15
-89.60
-97.39
-106.60
-116.70
-126.42
-133.90
-137.17
-134.77
-126.23
-112.20
-94.18
-73.98
-53.26
-33.12
-14.10
3.74
20.50
36.24
50.78
63.73
74.58
83.01
89.10
93.46
97.11
101.18
106.49
113.21
120.79
128.20
134.36
138.57
140.80
141.63
142.15
143.65
147.29
153.81
163.10
174.07
184.73
192.75
196.21
194.31
187.60
177.65
166.26
154.73
143.45
132.00
119.70
106.44
93.01
80.89
71.33
64.28
57.65
47.67
30.28
3.12
-32.93
-73.53
-112.33
-143.35
-163.01
-170.96
-169.45
-161.71
-150.68
-138.30
-125.77
-113.90
-103.24
-93.87
-85.17
-76.03
-65.24
-52.23
-37.42
-21.98
-7.10
6.71
19.76
32.94
47.05
62.26
78.10
93.95
109.66
125.67
142.36
158.85
172.25
177.94
171.25
149.59
114.16
69.80
23.46
-18.43
-51.76
-75.42
-90.42
-98.59
-101.62
-101.02
-98.53
-96.35
-96.73
-100.97
-108.51
-116.71
-121.41
-118.11
-103.12
-74.52
-32.98
17.81
71.22
118.67
151.73
164.69
156.59
131.63
97.64
63.10
34.21
13.35
-0.43
-9.60
-16.18
-20.73
-22.75
-21.77
-18.36
-14.26
-11.62
-11.94
-15.24
-19.91
-23.51
-23.86
-20.19
-13.55
-6.39
-1.52
-0.82
-4.42
-10.61
-16.66
-19.91
-18.88
-13.60
-5.43
3.61
11.47
16.47
17.30
13.08
3.68
-9.93
-25.32
-38.91
-46.93
-46.72
-37.99
-23.03
-6.11
8.05
15.86
15.83
8.84
-2.44
-14.50
-23.90
-28.01
-25.48
-16.59
-3.17
11.64
24.04
30.39
28.17
16.80
-1.82
-23.36
-41.94
-51.82
-49.28
-34.01
-9.32
19.36
46.70
69.52
87.27
101.07
111.70
118.06
117.21
105.81
82.32
48.40
8.66
-31.08
-66.09
-94.34
-116.47
-134.44
-149.75
-162.42
-171.21
-174.86
-173.39
-168.55
-163.07
-159.13
-157.14
-155.34
-150.63
-139.99
-121.78
-96.52
-66.59
-35.64
-7.56
14.44
28.64
35.31
36.74
36.58
38.70
45.96
59.50
78.81
102.29
127.82
153.19
176.12
194.74
208.07
216.55
221.90
226.11
230.12
232.94
232.05
224.85
210.38
189.92
166.27
141.98
117.94
93.15
65.91
35.55
3.47
-27.15
-52.77
-70.97
-81.44
-85.87
-87.14
-88.17
-91.01
-96.41
-103.98
-112.79
-122.04
-131.55
-141.76
-153.18
-165.78
-178.45
-189.14
-195.51
-195.90
-189.99
-179.08
-165.63
-152.33
-141.20
-133.02
-127.33
-122.97
-118.75
-113.95
-108.59
-103.15
-98.22
-94.16
-91.02
-88.64
-86.82
-85.35
-84.08
-82.81
-81.26
-79.23
-76.60
-73.40
-69.76
-65.69
-60.95
-55.00
-47.19
-36.99
-24.28
-9.53
6.05
20.62
32.11
38.89
40.65
38.80
36.18
35.95
40.29
49.55
62.45
77.18
92.79
109.74
129.55
153.64
182.28
214.17
246.65
276.15
298.58
309.59
305.26
283.25
244.10
191.83
133.43
77.13
30.18
-2.82
-20.56
-24.69
-18.92
-8.18
2.14
6.97
2.87
-10.70
-30.57
-50.45
-62.89
-62.22
-47.23
-21.98
5.66
27.14
36.73
33.57
21.43
6.51
-5.56
-11.81
-12.54
-10.56
-9.60
-12.98
-22.63
-38.69
-59.48
-81.98
-102.78
-118.99
-129.11
-133.27
-132.89
-129.87
-125.97
-122.34
-119.35
-116.63
-113.05
-106.93
-96.45
-80.38
-58.83
-33.48
-7.16
17.22
37.58
53.15
64.20
71.45
75.56
77.06
76.45
74.30
71.17
67.15
61.80
54.34
44.58
33.62
23.92
18.37
18.77
24.55
32.67
38.88
39.56
33.34
21.52
7.42
-5.06
-12.72
-14.07
-9.81
-2.79
2.55
1.25
-10.65
-34.52
-68.23
-106.43
-142.04
-168.43
-181.39
-180.00
-166.42
-144.79
-119.82
-95.68
-75.23
-59.62
-48.25
-39.21
-30.03
-18.52
-3.50
14.86
35.01
54.36
69.79
78.31
77.81
67.86
50.29
29.11
9.57
-3.57
-7.68
-3.20
6.85
18.38
28.15
35.01
39.93
44.93
51.60
59.98
68.40
74.33
75.71
72.32
66.31
61.64
62.47
71.21
86.98
105.52
120.49
125.92
118.34
97.92
68.01
33.69
0.06
-28.79
-50.12
-62.37
-65.10
-59.06
-46.19
-29.40
-11.90
3.66
15.87
24.56
30.39
34.17
36.29
36.61
34.58
29.75
22.17
12.71
3.03
-4.81
-9.06
-9.20
-6.43
-3.56
-4.10
-10.89
-24.80
-44.25
-65.61
-84.61
-97.94
-104.25
-104.48
-100.96
-96.22
-91.88
-88.23
-84.61
-80.19
-74.75
-68.86
-63.60
-59.89
-58.01
-57.49
-57.26
-55.86
-51.61
-42.60
-26.98
-3.58
27.26
63.29
100.69
135.50
164.92
188.00
205.00
215.90
219.43
213.21
195.39
166.49
130.21
92.50
59.15
33.49
15.42
2.25
-9.28
-21.18
-33.55
-45.21
-54.89
-62.01
-66.78
-69.67
-70.87
-70.17
-67.19
-61.87
-54.72
-46.81
-39.40
-33.58
-29.99
-28.67
-29.19
-30.85
-33.01
-35.29
-37.76
-40.91
-45.45
-51.99
-60.72
-71.20
-82.35
-92.59
-100.08
-103.06
-100.14
-90.70
-75.14
-54.89
-32.12
-9.17
12.01
30.29
45.42
57.72
67.63
75.48
81.34
85.22
87.31
88.08
88.26
88.49
89.16
90.28
91.48
92.24
92.12
90.88
88.52
85.16
80.97
76.00
70.20
63.43
55.67
47.05
37.98
29.01
20.74
13.58
7.67
2.78
-1.59
-6.08
-11.21
-17.18
-23.79
-30.53
-36.79
-42.11
-46.39
-49.95
-53.46
-57.75
-63.54
-71.18
-80.35
-90.03
-98.52
-103.77
-104.01
-98.25
-86.71
-70.78
-52.50
-33.89
-16.39
-0.60
13.55
26.30
37.71
47.51
55.20
60.36
62.93
63.28
62.06
59.95
57.53
55.13
52.89
50.92
49.31
48.22
47.78
47.95
48.42
48.60
47.74
45.14
40.48
33.98
26.36
18.66
11.81
6.28
1.97
-1.75
-5.67
-10.45
-16.27
-22.76
-29.26
-35.06
-39.69
-43.17
-46.03
-49.13
-53.40
-59.61
-68.06
-78.34
-89.28
-99.06
-105.56
-106.84
-101.69
-89.99
-72.76
-51.86
-29.56
-7.94
11.42
27.68
40.58
50.32
57.31
62.01
64.84
66.20
66.49
66.16
65.67
65.43
65.63
66.26
67.09
67.82
68.19
68.02
67.32
66.10
64.33
61.94
58.79
54.72
49.65
43.65
36.93
29.84
22.77
16.04
9.73
3.72
-2.28
-8.59
-15.38
-22.63
-30.10
-37.49
-44.46
-50.82
-56.52
-61.72
-66.80
-72.26
-78.66
-86.44
-95.70
-106.01
-116.28
-124.82
-129.63
-128.85
-121.40
-107.29
-87.79
-65.11
-41.79
-20.01
-1.18
14.28
26.61
36.42
44.18
50.12
54.23
56.52
57.16
56.63
55.62
54.76
54.52
54.98
55.92
56.98
57.73
57.88
57.24
55.81
53.67
51.02
48.07
44.98
41.79
38.41
34.66
30.45
25.87
21.17
16.69
12.65
8.99
5.36
1.18
-4.15
-11.00
-19.40
-28.94
-38.87
-48.30
-56.50
-63.15
-68.49
-73.30
-78.63
-85.34
-93.62
-102.78
-111.23
-116.87
-117.64
-112.11
-99.81
-81.39
-58.44
-33.13
-7.76
15.59
35.45
51.11
62.63
70.68
76.27
80.42
83.84
86.87
89.58
91.87
93.64
94.81
95.28
94.94
93.61
91.18
87.73
83.56
79.11
74.72
70.52
66.27
61.51
55.73
48.71
40.62
32.00
23.54
15.76
8.76
2.24
-4.41
-11.77
-20.18
-29.61
-39.81
-50.35
-60.79
-70.74
-79.96
-88.40
-96.25
-103.97
-112.13
-121.09
-130.72
-140.09
-147.61
-151.21
-148.94
-139.48
-122.63
-99.47
-72.23
-43.78
-16.98
5.97
23.99
37.07
45.99
51.77
55.25
56.89
56.93
55.55
53.07
50.03
46.97
44.32
42.29
40.81
39.68
38.67
37.61
36.41
34.97
33.16
30.77
27.62
23.55
18.54
12.75
6.51
0.18
-5.94
-11.68
-17.02
-22.02
-26.76
-31.31
-35.84
-40.65
-46.17
-52.83
-60.77
-69.51
-77.82
-83.91
-85.81
-82.02
-71.98
-56.32
-36.72
-15.45
5.21
23.55
38.70
50.64
59.90
67.14
72.76
76.81
79.06
79.35
77.87
75.17
72.08
69.31
67.21
65.63
64.11
62.18
59.55
56.20
52.30
48.05
43.45
38.31
32.30
25.13
16.74
7.33
-2.58
-12.42
-21.69
-30.17
-37.90
-45.10
-52.08
-59.13
-66.55
-74.65
-83.66
-93.46
-103.40
-112.13
-117.79
-118.54
-113.08
-101.21
-83.90
-63.04
-40.89
-19.48
-0.14
16.53
30.59
42.35
52.11
59.94
65.81
69.67
71.76
72.61
72.95
73.43
74.45
75.99
77.79
79.47
80.80
81.67
82.13
82.19
81.79
80.81
79.12
76.77
73.99
71.13
68.60
66.60
65.12
63.87
62.46
60.58
58.17
55.52
53.20
51.90
52.08
53.72
56.11
57.82
57.02
51.93
41.44
25.57
5.54
-16.47
-37.86
-56.22
-69.77
-77.58
-79.59
-76.57
-70.06
-62.14
-55.20
-51.33
-51.89
-57.05
-65.72
-75.87
-85.13
-91.46
-93.61
-91.40
-85.52
-77.29
-68.15
-59.36
-51.68
-45.28
-39.73
-34.22
-27.82
-19.85
-10.18
0.57
11.22
20.26
26.39
28.76
27.16
21.94
13.81
3.66
-7.60
-19.09
-30.06
-39.90
-48.30
-55.23
-60.85
-65.40
-69.01
-71.76
-73.69
-75.12
-76.66
-79.12
-83.09
-88.48
-94.13
-97.96
-97.40
-90.17
-74.94
-51.66
-21.58
12.95
48.89
82.79
111.35
132.00
143.45
146.05
141.60
132.64
121.60
110.09
98.78
87.81
77.31
67.77
60.07
55.07
53.22
54.28
57.40
61.22
64.10
64.32
60.30
50.97
36.20
17.05
-4.28
-25.14
-43.39
-58.21
-70.36
-81.74
-94.22
-108.57
-123.78
-137.38
-146.48
-149.14
-145.27
-136.82
-126.88
-118.36
-112.73
-109.33
-105.83
-99.22
-87.23
-69.36
-47.16
-23.63
-1.99
15.56
28.40
37.40
44.05
49.62
54.55
58.52
60.88
61.10
58.87
54.00
46.19
35.37
22.08
7.95
-4.48
-12.64
-15.04
-12.06
-5.95
0.17
3.62
3.27
-0.23
-4.88
-8.43
-9.24
-6.91
-2.27
2.98
7.01
8.52
7.13
3.36
-1.88
-8.02
-15.15
-23.84
-34.50
-46.69
-58.94
-69.10
-75.27
-76.58
-73.67
-68.39
-62.93
-58.99
-57.22
-57.16
-57.77
-57.99
-57.26
-55.59
-53.32
-50.62
-47.12
-41.80
-33.32
-20.53
-3.12
18.20
41.91
66.17
89.37
110.41
128.69
143.80
155.13
161.81
163.02
158.46
148.82
135.75
121.35
107.38
94.58
82.56
70.33
57.08
42.93
29.02
17.00
8.11
2.56
-0.65
-3.14
-6.37
-10.94
-16.41
-21.67
-25.58
-27.58
-28.04
-28.23
-30.12
-35.81
-46.82
-63.48
-84.43
-106.73
-126.50
-140.05
-144.97
-140.81
-128.96
-111.98
-92.68
-73.43
-55.82
-40.69
-28.31
-18.52
-10.75
-4.06
2.68
10.45
19.76
30.35
41.36
51.54
59.79
65.69
69.66
72.98
77.26
83.89
93.38
105.06
117.22
127.58
134.10
135.78
133.14
128.04
122.91
119.65
118.74
118.95
117.87
112.76
101.52
83.30
58.76
29.92
-0.18
-28.10
-50.62
-65.51
-72.05
-71.19
-65.22
-57.08
-49.61
-44.97
-44.22
-47.26
-52.90
-59.08
-63.24
-62.93
-56.33
-42.81
-23.12
0.62
25.30
47.27
63.01
69.93
67.08
55.62
38.74
20.81
5.98
-3.05
-5.84
-4.11
-0.90
0.83
-0.58
-4.88
-10.08
-13.40
-12.62
-7.01
2.19
12.23
19.81
22.19
18.08
7.87
-6.76
-23.61
-40.71
-56.70
-70.79
-82.43
-91.14
-96.56
-98.75
-98.41
-96.83
-95.57
-95.79
-97.87
-101.42
-105.52
-109.29
-112.19
-114.04
-114.81
-114.34
-112.25
-108.07
-101.54
-92.84
-82.58
-71.58
-60.62
-50.05
-39.82
-29.61
-19.15
-8.52
1.81
11.10
18.69
24.25
27.99
30.41
32.16
33.71
35.31
37.11
39.20
41.74
44.79
48.09
50.98
52.59
52.10
49.16
44.02
37.46
30.42
23.72
17.81
12.75
8.41
4.59
1.13
-2.09
-5.22
-8.42
-11.88
-15.73
-20.14
-25.30
-31.43
-38.64
-46.68
-54.66
-61.09
-64.15
-62.30
-54.91
-42.54
-26.80
-9.76
6.80
21.83
35.10
46.84
57.30
66.45
74.00
79.66
83.48
85.83
87.45
88.99
90.83
93.01
95.30
97.47
99.42
101.24
103.07
104.95
106.74
108.13
108.80
108.53
107.26
105.09
102.26
98.99
95.53
92.25
89.60
88.10
88.15
89.85
92.93
96.73
100.39
103.02
103.97
102.97
100.14
95.90
90.62
84.35
76.75
67.26
55.71
42.81
30.41
21.23
18.08
22.82
35.55
54.04
74.02
89.93
96.28
89.00
66.71
31.24
-12.58
-58.04
-98.30
-127.99
-144.51
-148.45
-143.12
-133.56
-125.11
-122.03
-126.39
-137.63
-152.78
-167.43
-176.99
-177.95
-168.79
-150.45
-126.14
-100.46
-78.03
-62.06
-53.33
-50.10
-49.00
-46.59
-40.72
-31.22
-19.63
-8.22
1.04
6.97
9.33
8.51
5.37
1.23
-2.17
-2.95
0.28
7.75
18.17
29.02
37.45
41.31
39.97
34.34
26.31
17.92
10.66
5.22
1.62
-0.46
-1.46
-1.79
-1.86
-2.06
-2.68
-3.86
-5.65
-8.05
-11.06
-14.48
-17.78
-20.12
-20.70
-19.20
-15.97
-11.91
-7.94
-4.53
-1.61
1.11
3.64
5.41
5.58
3.64
-0.16
-4.85
-9.36
-13.19
-16.77
-21.08
-26.81
-33.80
-40.81
-46.12
-48.27
-46.62
-41.40
-33.35
-23.23
-11.51
1.54
15.61
30.09
44.10
56.62
66.85
74.34
79.10
81.46
81.94
81.02
79.08
76.38
73.11
69.56
66.16
63.37
61.48
60.34
59.34
57.51
53.95
48.17
40.37
31.25
21.80
12.88
4.99
-1.85
-7.97
-13.89
-20.11
-27.01
-34.66
-42.92
-51.38
-59.57
-67.11
-73.80
-79.70
-85.04
-90.15
-95.31
-100.73
-106.35
-111.68
-115.68
-116.85
-113.55
-104.59
-89.82
-70.37
-48.44
-26.64
-7.18
8.68
20.76
29.62
36.06
40.77
44.23
46.82
48.91
50.93
53.14
55.47
57.58
59.03
59.67
59.81
60.20
61.55
64.07
67.11
69.37
69.40
66.23
59.72
50.62
40.35
30.68
23.37
19.71
19.98
22.99
26.16
26.18
20.24
7.39
-10.90
-31.18
-49.38
-62.46
-69.38
-71.08
-69.64
-67.19
-65.13
-63.95
-63.34
-62.58
-60.81
-57.38
-52.03
-45.02
-37.15
-29.48
-22.99
-18.33
-15.64
-14.62
-14.67
-15.13
-15.36
-14.90
-13.51
-11.32
-8.79
-6.62
-5.51
-5.96
-7.99
-11.16
-14.52
-16.94
-17.47
-15.75
-12.19
-7.88
-4.13
-1.98
-1.74
-3.04
-5.05
-6.91
-8.07
-8.43
-8.22
-7.87
-7.76
-8.15
-9.19
-10.97
-13.59
-17.17
-21.69
-26.89
-32.08
-36.09
-37.51
-35.09
-28.26
-17.47
-4.15
9.61
21.72
30.69
36.01
38.12
38.05
36.96
35.65
34.43
33.27
32.08
30.97
30.33
30.63
32.10
34.55
37.36
39.78
41.22
41.44
40.59
39.03
37.02
34.63
31.69
28.00
23.51
18.39
13.05
7.97
3.54
-0.03
-2.77
-4.86
-6.53
-8.04
-9.68
-11.86
-15.08
-19.85
-26.47
-34.65
-43.40
-51.08
-55.80
-56.06
-51.29
-42.11
-30.11
-17.39
-5.80
3.54
10.42
15.37
19.20
22.61
25.92
29.09
31.93
34.33
36.34
38.14
39.92
41.78
43.75
45.80
47.91
50.03
52.00
53.52
54.23
53.83
52.25
49.66
46.39
42.71
38.72
34.30
29.29
23.54
17.07
9.97
2.38
-5.55
-13.54
-21.17
-27.89
-33.21
-37.03
-39.82
-42.64
-46.68
-52.73
-60.70
-69.50
-77.39
-82.66
-84.24
-81.97
-76.57
-69.16
-60.83
-52.42
-44.45
-37.27
-31.12
-26.13
-22.23
-19.10
-16.29
-13.43
-10.41
-7.43
-4.75
-2.44
-0.22
2.49
6.24
11.26
17.21
23.26
28.53
32.41
34.95
36.65
38.16
39.78
41.28
41.99
41.24
38.76
34.87
30.26
25.71
21.70
18.24
15.00
11.62
7.93
4.03
0.27
-2.98
-5.54
-7.52
-9.40
-11.92
-15.84
-21.72
-29.53
-38.52
-47.31
-54.14
-57.32
-55.60
-48.52
-36.53
-21.05
-4.25
11.39
23.71
31.44
34.58
34.30
32.40
30.46
29.26
28.62
27.73
25.85
22.84
19.30
16.22
14.58
14.86
16.97
20.45
24.72
29.27
33.60
37.24
39.61
40.16
38.58
34.88
29.46
22.99
16.22
9.73
3.93
-1.03
-5.18
-8.64
-11.58
-14.14
-16.39
-18.36
-20.05
-21.57
-23.19
-25.44
-28.96
-34.30
-41.60
-50.36
-59.37
-66.95
-71.38
-71.33
-66.31
-56.73
-43.74
-28.97
-14.11
-0.62
10.48
18.71
24.07
26.95
27.91
27.56
26.43
24.95
23.46
22.27
21.61
21.59
22.17
23.21
24.51
25.85
27.07
27.98
28.40
28.14
27.08
25.16
22.49
19.21
15.53
11.66
7.80
4.14
0.85
-2.04
-4.61
-7.07
-9.64
-12.45
-15.53
-18.78
-22.08
-25.39
-28.84
-32.60
-36.91
-41.92
-47.63
-53.82
-59.99
-65.32
-68.83
-69.57
-66.93
-60.87
-51.97
-41.17
-29.57
-18.05
-7.26
2.45
10.85
17.79
23.26
27.33
30.25
32.38
34.05
35.48
36.75
37.83
38.59
38.92
38.76
38.15
37.29
36.44
35.83
35.48
35.17
34.44
32.86
30.17
26.48
22.23
18.04
14.34
11.28
8.66
6.02
2.90
-1.01
-5.72
-10.98
-16.37
-21.41
-25.80
-29.51
-32.80
-36.15
-40.05
-44.84
-50.53
-56.77
-62.84
-67.78
-70.52
-70.17
-66.17
-58.53
-47.80
-34.93
-21.12
-7.48
5.04
15.77
24.35
30.71
34.99
37.47
38.55
38.64
38.11
37.28
36.40
35.58
34.84
34.10
33.25
32.28
31.31
30.58
30.32
30.53
30.95
31.06
30.30
28.32
25.18
21.33
17.43
14.10
11.62
9.87
8.45
6.87
4.85
2.42
-0.14
-2.52
-4.61
-6.63
-9.13
-12.77
-18.04
-25.10
-33.56
-42.61
-51.10
-57.80
-61.69
-62.18
-59.24
-53.40
-45.51
-36.51
-27.13
-17.80
-8.70
0.07
8.27
15.54
21.44
25.66
28.22
29.38
29.59
29.17
28.31
26.99
25.28
23.37
21.66
20.69
20.97
22.80
26.30
31.21
36.94
42.55
46.84
48.63
47.24
42.72
36.02
28.53
21.52
15.60
10.48
5.35
-0.63
-7.70
-15.40
-22.81
-29.09
-33.95
-37.76
-41.37
-45.69
-51.32
-58.35
-66.40
-74.68
-82.19
-87.75
-90.22
-88.68
-82.76
-72.87
-60.17
-46.30
-32.93
-21.25
-11.74
-4.24
1.69
6.44
10.05
12.31
12.92
11.88
9.57
6.72
4.16
2.56
2.20
2.99
4.48
6.07
7.11
6.96
5.13
1.21
-4.95
-13.17
-22.95
-33.55
-44.18
-54.21
-63.32
-71.51
-79.04
-86.32
-93.83
-102.03
-111.31
-121.91
-133.70
-145.97
-157.40
-166.16
-170.29
-168.36
-159.81
-145.27
-126.31
-105.04
-83.39
-62.63
-43.04
-24.03
-4.51
16.44
39.04
62.66
85.96
107.62
126.89
143.90
159.52
174.66
189.69
204.08
216.50
225.25
228.78
225.97
216.36
200.11
178.12
152.10
124.41
97.65
73.99
54.50
38.86
25.61
12.85
-1.04
-16.90
-34.67
-53.76
-73.29
-92.33
-109.87
-124.78
-135.95
-142.52
-144.28
-141.81
-136.38
-129.43
-122.12
-115.00
-108.08
-101.14
-94.16
-87.53
-82.05
-78.48
-77.31
-78.34
-80.72
-83.07
-83.81
-81.55
-75.39
-65.15
-51.44
-35.49
-18.73
-2.45
12.55
25.90
37.52
47.30
54.92
59.91
61.85
60.65
56.73
51.13
45.42
41.49
41.19
45.76
55.54
69.76
86.80
104.67
121.51
135.89
146.81
153.58
155.63
152.74
145.21
134.14
121.35
108.95
98.77
91.82
88.16
87.00
87.10
87.20
86.25
83.43
78.16
69.98
58.54
43.78
25.92
5.65
-15.91
-37.23
-56.37
-71.25
-79.86
-80.88
-74.22
-61.47
-45.84
-31.42
-22.02
-19.92
-25.07
-35.25
-46.87
-56.47
-61.88
-62.85
-60.77
-57.88
-56.28
-57.20
-60.59
-65.00
-67.72
-65.34
-54.75
-34.43
-5.61
27.61
59.33
84.00
98.59
103.66
102.70
100.05
98.66
98.71
98.11
94.08
85.17
72.30
58.41
47.08
40.79
39.77
41.88
43.52
40.85
30.95
12.36
-14.69
-48.38
-85.19
-120.00
-146.71
-159.53
-154.95
-133.43
-99.89
-62.37
-29.36
-6.90
3.17
2.94
-3.37
-11.88
-20.68
-30.13
-41.74
-56.50
-73.54
-90.01
-101.97
-105.84
-99.96
-85.14
-64.17
-40.56
-17.23
4.36
24.00
41.95
58.13
71.81
82.24
89.54
95.10
101.27
110.14
122.36
136.57
149.92
159.34
162.93
160.70
154.37
146.48
139.26
133.85
130.15
127.13
123.48
118.27
111.42
103.82
97.22
93.59
94.42
100.02
109.35
120.39
131.05
140.11
147.73
155.41
165.00
177.65
192.81
208.01
219.44
223.15
216.36
198.23
169.97
134.20
94.11
52.88
13.41
-21.63
-49.77
-69.14
-79.09
-80.70
-76.86
-71.44
-68.09
-68.97
-74.24
-82.26
-90.62
-97.24
-101.11
-102.46
-102.30
-101.85
-102.01
-103.18
-105.29
-108.07
-111.12
-114.16
-116.95
-119.43
-121.67
-123.96
-126.61
-129.93
-133.97
-138.42
-142.57
-145.34
-145.44
-141.63
-132.99
-119.19
-100.73
-78.88
-55.47
-32.51
-11.75
5.63
19.11
28.78
35.11
38.74
40.34
40.47
39.61
38.14
36.31
34.36
32.43
30.66
29.15
27.95
26.98
26.02
24.75
22.84
20.05
16.32
11.75
6.52
0.82
-5.14
-11.13
-16.90
-22.20
-26.97
-31.39
-35.89
-40.89
-46.54
-52.52
-58.18
-62.87
-66.32
-68.90
-71.46
-75.02
-80.30
-87.46
-95.92
-104.60
-112.04
-116.71
-117.28
-112.80
-103.03
-88.55
-70.69
-51.29
-32.22
-14.95
-0.31
11.49
20.67
27.58
32.58
35.95
37.98
39.02
39.46
39.70
40.00
40.52
41.23
42.03
42.80
43.37
43.63
43.46
42.84
41.75
40.22
38.22
35.62
32.18
27.68
22.02
15.32
7.99
0.55
-6.53
-13.03
-19.06
-24.98
-31.24
-38.21
-46.03
-54.44
-62.72
-69.70
-73.81
-73.36
-67.15
-54.92
-37.70
-17.68
2.45
20.29
34.40
44.60
51.64
56.65
60.48
63.44
65.30
65.63
64.25
61.39
57.75
54.23
51.54
49.98
49.38
49.24
49.13
48.80
48.26
47.59
46.66
45.06
42.19
37.53
30.88
22.55
13.27
4.00
-4.33
-11.07
-16.06
-19.74
-23.06
-27.22
-33.07
-40.59
-48.60
-54.98
-57.33
-53.83
-43.92
-28.43
-9.28
10.98
29.40
42.87
48.43
44.08
29.75
7.92
-16.56
-37.89
-51.31
-54.73
-49.22
-38.23
-25.80
-14.88
-6.57
-0.29
5.36
11.59
18.95
27.19
35.58
43.40
50.27
56.07
60.42
62.06
58.57
47.00
25.26
-6.37
-44.50
-83.44
-117.28
-142.19
-157.76
-166.60
-172.43
-177.86
-183.10
-186.24
-184.86
-177.72
-165.52
-150.44
-134.85
-119.97
-105.37
-89.58
-71.19
-49.88
-26.80
-4.13
15.71
31.05
41.49
47.99
52.57
57.61
65.10
75.96
89.52
103.73
115.61
122.29
121.89
114.10
100.09
81.96
61.86
41.33
20.99
0.85
-19.18
-38.77
-57.02
-72.83
-85.36
-94.57
-101.24
-106.68
-112.26
-118.96
-127.13
-136.30
-144.94
-150.50
-149.97
-140.99
-123.15
-98.74
-72.19
-48.40
-30.61
-19.13
-11.64
-4.95
3.07
12.56
22.13
30.28
36.69
42.27
48.16
54.48
59.64
61.10
56.94
47.12
34.03
21.52
13.31
11.36
15.31
22.78
30.51
35.70
36.85
34.18
29.25
24.31
21.33
21.18
23.17
25.26
25.10
21.35
14.71
7.95
4.69
7.53
16.52
28.76
39.63
44.89
42.47
33.08
19.44
4.54
-9.71
-22.83
-35.18
-46.76
-56.60
-62.95
-64.12
-59.45
-49.71
-36.68
-22.35
-8.09
5.60
18.77
31.38
42.81
51.93
57.50
58.93
56.69
52.25
47.53
44.22
43.15
44.21
46.72
49.87
53.10
56.19
59.09
61.75
64.05
65.76
66.66
66.46
64.70
60.81
54.23
44.83
33.11
20.18
7.42
-4.00
-13.42
-20.65
-25.61
-28.05
-27.63
-24.16
-18.07
-10.49
-2.93
3.35
7.89
11.15
14.11
17.54
21.50
25.22
27.50
27.43
24.88
20.66
16.12
12.54
10.67
10.41
11.09
11.89
12.32
12.38
12.48
12.98
13.91
14.82
15.00
13.82
11.07
6.94
1.91
-3.53
-9.04
-14.46
-19.68
-24.60
-29.15
-33.47
-37.96
-43.23
-49.64
-57.06
-64.61
-70.82
-73.99
-72.76
-66.45
-55.20
-39.89
-21.79
-2.33
17.19
35.62
52.08
65.85
76.48
83.77
87.87
89.19
88.33
85.97
82.69
78.98
75.18
71.55
68.28
65.49
63.16
61.19
59.40
57.58
55.61
53.42
50.94
48.07
44.70
40.76
36.21
31.18
25.85
20.43
15.12
9.98
5.02
0.07
-5.10
-10.86
-17.58
-25.52
-34.79
-45.33
-56.98
-69.47
-82.45
-95.38
-107.46
-117.63
-124.68
-127.54
-125.53
-118.59
-107.31
-92.93
-77.08
-61.56
-47.91
-37.15
-29.47
-24.32
-20.66
-17.44
-14.07
-10.56
-7.38
-4.98
-3.52
-2.62
-1.58
0.30
3.35
7.45
12.11
16.68
20.61
23.48
24.99
24.85
22.94
19.44
15.07
11.13
9.16
10.32
14.71
21.09
27.25
30.77
30.17
25.49
18.17
10.25
3.23
-2.60
-8.02
-14.06
-20.98
-27.72
-32.19
-32.16
-26.34
-14.78
1.17
19.47
38.14
55.74
71.51
85.18
96.83
106.63
114.77
121.27
125.81
127.70
125.96
119.68
108.34
92.12
71.97
49.45
26.46
4.87
-13.73
-28.34
-38.58
-44.65
-47.10
-46.65
-43.93
-39.47
-33.73
-27.28
-21.14
-16.65
-15.18
-17.63
-23.85
-32.55
-41.68
-49.23
-53.98
-55.90
-55.88
-55.26
-55.20
-56.37
-58.95
-62.71
-67.01
-70.82
-72.72
-71.33
-65.73
-55.98
-43.10
-28.64
-14.17
-0.68
11.38
21.90
30.77
37.73
42.43
44.74
44.88
43.43
41.12
38.58
36.23
34.23
32.60
31.32
30.32
29.48
28.53
27.13
24.96
21.90
18.10
13.94
9.88
6.25
3.11
0.19
-2.87
-6.39
-10.46
-14.88
-19.29
-23.36
-26.84
-29.66
-31.90
-33.79
-35.74
-38.26
-41.83
-46.55
-51.86
-56.47
-58.65
-56.79
-50.06
-38.86
-24.62
-9.31
5.26
17.92
28.22
36.18
41.91
45.38
46.57
45.65
43.16
39.96
36.96
34.85
33.87
33.87
34.51
35.41
36.24
36.54
35.66
32.81
27.39
19.28
9.07
-2.23
-13.61
-24.67
-35.59
-46.93
-59.02
-71.58
-83.89
-95.33
-105.92
-116.50
-128.16
-141.42
-155.58
-168.78
-178.67
-183.44
-182.41
-176.11
-165.64
-151.89
-135.17
-115.29
-92.08
-65.98
-38.24
-10.69
14.85
37.12
55.61
70.49
82.16
91.04
97.26
100.91
102.19
101.62
100.04
98.31
96.97
96.11
95.37
94.20
92.18
89.15
85.21
80.48
75.05
68.91
62.11
54.90
47.79
41.36
36.14
32.32
29.74
27.98
26.47
24.70
22.36
19.41
16.27
13.79
13.22
15.87
22.79
34.35
50.05
68.64
88.35
107.41
124.35
138.23
148.60
155.30
158.28
157.61
153.54
146.79
138.53
130.36
123.85
120.07
119.14
120.16
121.52
121.49
118.90
113.59
106.32
98.34
90.79
84.08
77.64
70.04
59.37
43.97
23.08
-2.55
-30.53
-57.21
-78.81
-92.68
-98.48
-98.31
-96.00
-95.48
-99.17
-107.11
-117.08
-125.82
-130.41
-129.36
-122.81
-112.05
-98.65
-83.83
-68.28
-52.48
-37.10
-23.18
-11.92
-4.17
-0.02
1.20
0.31
-2.56
-8.31
-18.24
-32.71
-50.10
-66.76
-78.46
-82.52
-79.34
-72.33
-66.03
-63.65
-65.56
-69.69
-73.35
-75.17
-75.71
-76.41
-77.79
-78.33
-75.14
-65.85
-50.50
-32.10
-15.37
-4.52
-1.34
-4.71
-11.63
-19.10
-25.48
-30.82
-36.05
-41.77
-47.42
-51.27
-51.36
-46.49
-37.09
-25.12
-13.35
-4.22
1.13
3.12
3.25
3.00
2.94
2.42
0.11
-5.03
-12.93
-22.16
-30.52
-35.97
-37.53
-35.42
-30.90
-25.58
-20.81
-17.47
-15.89
-16.01
-17.39
-19.39
-21.27
-22.49
-22.86
-22.45
-21.46
-20.00
-18.04
-15.63
-13.05
-10.91
-9.87
-10.37
-12.34
-15.27
-18.49
-21.50
-24.03
-25.97
-27.25
-27.84
-28.04
-28.59
-30.46
-34.31
-39.82
-45.41
-48.66
-47.30
-40.33
-28.61
-14.58
-1.34
8.58
14.07
15.62
14.72
13.04
11.57
10.33
8.54
5.27
0.20
-6.13
-12.37
-17.11
-19.67
-20.59
-21.51
-24.51
-31.15
-41.58
-54.32
-66.57
-75.18
-77.70
-73.15
-62.23
-46.88
-29.47
-12.00
4.26
18.73
31.15
41.11
48.02
51.38
51.12
47.82
42.60
36.68
30.96
25.90
21.68
18.55
17.15
18.61
24.34
35.49
52.46
74.53
99.81
125.70
149.73
170.26
187.02
200.80
212.75
223.31
231.56
235.29
231.86
219.57
198.58
171.24
141.22
112.29
87.01
66.35
49.93
36.76
25.95
16.89
8.99
1.42
-6.96
-17.19
-29.65
-43.70
-57.71
-69.64
-77.76
-81.25
-80.53
-77.05
-72.86
-69.99
-69.83
-72.89
-78.76
-86.48
-94.95
-103.29
-110.82
-116.84
-120.39
-120.26
-115.34
-105.18
-90.25
-72.01
-52.41
-33.28
-15.80
-0.45
12.83
24.24
33.77
41.18
46.13
48.45
48.38
46.57
44.00
41.68
40.41
40.58
42.03
44.22
46.44
48.11
49.02
49.27
49.18
48.95
48.47
47.29
44.89
40.91
35.43
28.98
22.33
16.12
10.67
5.83
1.27
-3.35
-8.07
-12.63
-16.64
-19.89
-22.46
-24.83
-27.65
-31.55
-37.02
-44.39
-53.85
-65.38
-78.62
-92.67
-106.10
-117.14
-124.05
-125.60
-121.36
-111.82
-98.20
-82.22
-65.72
-50.42
-37.68
-28.36
-22.52
-19.33
-17.10
-13.52
-6.10
7.11
26.78
51.86
79.60
106.17
127.98
142.82
150.68
153.64
154.89
157.36
162.56
170.14
178.45
185.56
190.28
192.51
192.90
191.96
189.39
184.11
174.82
161.00
143.48
124.20
105.34
88.18
72.46
56.63
38.66
16.96
-8.89
-37.92
-68.03
-96.43
-120.09
-136.53
-144.76
-146.09
-144.15
-143.62
-148.20
-158.51
-171.47
-181.58
-183.64
-175.30
-158.04
-136.12
-114.10
-94.64
-77.77
-61.81
-45.23
-28.03
-11.72
1.69
11.19
17.44
22.37
28.02
35.42
43.95
51.75
56.74
57.64
54.49
48.53
41.63
35.37
30.44
26.41
22.06
16.02
7.55
-3.00
-14.16
-23.81
-30.02
-31.74
-29.24
-24.04
-18.48
-15.15
-16.37
-23.77
-37.86
-57.83
-81.44
-105.34
-125.83
-139.74
-145.28
-142.33
-132.23
-117.14
-99.29
-80.44
-61.69
-43.58
-26.40
-10.46
3.89
16.26
26.43
34.57
41.23
47.14
52.94
58.85
64.65
69.87
74.07
77.11
79.14
80.41
81.04
80.95
80.03
78.35
76.30
74.45
73.19
72.45
71.64
69.94
66.81
62.48
58.10
55.44
56.18
61.12
69.49
78.97
86.10
87.40
80.58
65.66
45.17
23.53
5.59
-4.99
-6.83
-1.09
9.36
21.07
31.08
37.45
39.31
36.66
30.15
21.14
11.52
3.48
-1.16
-1.63
1.40
6.09
10.08
11.45
9.40
4.33
-2.37
-9.03
-14.29
-17.53
-19.06
-19.83
-20.95
-23.22
-26.73
-30.90
-34.92
-38.22
-40.92
-43.85
-48.15
-54.72
-63.75
-74.52
-85.60
-95.17
-101.40
-102.82
-98.59
-88.68
-74.04
-56.43
-38.17
-21.56
-8.39
0.46
5.12
6.56
6.28
5.76
6.14
7.85
10.64
13.81
16.43
17.39
15.19
7.99
-5.72
-25.98
-50.35
-73.92
-90.84
-96.79
-91.15
-77.67
-62.88
-53.19
-51.99
-58.40
-68.18
-76.11
-78.34
-73.87
-64.35
-52.99
-43.13
-37.30
-36.59
-40.53
-47.28
-54.23
-58.57
-58.06
-51.49
-38.87
-21.36
-0.99
19.70
38.00
51.58
59.02
60.26
56.76
51.08
46.08
43.92
45.23
49.01
53.14
55.49
54.87
51.51
46.89
43.06
41.72
43.47
47.49
51.67
53.42
50.48
41.91
28.43
12.25
-3.65
-16.67
-25.53
-30.64
-33.68
-36.56
-40.49
-45.46
-50.54
-54.72
-57.74
-60.34
-63.86
-69.33
-76.75
-84.94
-92.07
-96.65
-98.29
-97.88
-97.08
-97.41
-99.41
-102.33
-104.51
-104.04
-99.64
-91.06
-79.11
-65.19
-50.75
-36.85
-23.97
-12.23
-1.72
7.17
13.76
17.34
17.78
15.90
13.48
12.63
14.72
19.72
26.04
31.29
33.49
31.92
27.37
21.52
15.94
11.28
7.14
2.50
-3.47
-10.98
-19.54
-28.23
-36.15
-42.69
-47.63
-51.09
-53.44
-55.20
-56.94
-59.33
-63.01
-68.47
-75.73
-84.03
-91.65
-96.15
-95.09
-86.83
-71.36
-50.29
-26.30
-2.10
20.45
40.63
58.57
74.62
88.80
100.69
109.75
115.77
119.06
120.32
120.37
119.71
118.45
116.49
113.71
110.21
106.32
102.40
98.68
95.09
91.29
86.76
81.05
73.95
65.59
56.41
46.98
37.80
29.07
20.62
12.03
2.89
-6.93
-17.07
-26.72
-34.80
-40.29
-42.43
-40.93
-35.95
-28.05
-18.11
-7.14
3.82
14.00
23.02
30.91
37.95
44.38
50.22
55.22
59.04
61.48
62.61
62.79
62.41
61.76
60.93
59.84
58.42
56.68
54.65
52.32
49.52
46.04
41.74
36.66
31.07
25.36
19.85
14.69
9.80
4.88
-0.56
-6.95
-14.56
-23.20
-32.13
-40.09
-45.59
-47.38
-44.83
-38.19
-28.43
-16.94
-5.10
6.09
16.09
24.78
32.17
38.23
42.78
45.61
46.62
46.03
44.37
42.40
40.76
39.77
39.31
38.99
38.37
37.19
35.58
33.84
32.32
31.15
30.18
29.02
27.24
24.55
20.93
16.60
11.96
7.40
3.23
-0.46
-3.76
-6.94
-10.42
-14.63
-19.84
-25.99
-32.46
-38.12
-41.64
-41.83
-38.16
-30.85
-20.75
-8.93
3.70
16.68
29.84
43.09
56.03
67.81
77.16
82.70
83.29
78.34
68.01
53.24
35.57
16.90
-0.98
-16.62
-29.14
-38.19
-43.79
-46.21
-45.87
-43.33
-39.32
-34.64
-30.05
-26.04
-22.83
-20.32
-18.20
-16.23
-14.33
-12.67
-11.65
-11.75
-13.30
-16.40
-20.73
-25.70
-30.58
-34.81
-38.22
-41.10
-44.15
-48.22
-53.98
-61.62
-70.63
-79.89
-87.88
-93.02
-94.13
-90.62
-82.65
-70.91
-56.48
-40.57
-24.34
-8.81
5.23
17.31
27.27
35.21
41.38
45.99
49.23
51.26
52.32
52.78
53.08
53.56
54.35
55.38
56.44
57.32
57.92
58.19
58.04
57.33
55.88
53.55
50.38
46.49
42.05
37.17
31.89
26.29
20.44
14.51
8.64
2.85
-2.96
-8.95
-15.16
-21.48
-27.67
-33.54
-39.11
-44.72
-50.88
-57.93
-65.84
-73.96
-81.11
-85.89
-87.15
-84.31
-77.57
-67.78
-56.12
-43.73
-31.34
-19.24
-7.39
4.30
15.75
26.63
36.47
44.87
51.69
57.14
61.65
65.61
69.27
72.68
75.79
78.62
81.23
83.51
85.05
84.97
82.20
75.96
66.24
54.05
41.06
29.00
18.96
11.08
4.72
-1.06
-6.99
-13.26
-19.70
-25.96
-31.76
-37.01
-41.68
-45.72
-49.08
-51.73
-53.91
-56.12
-59.06
-63.36
-69.21
-76.08
-82.72
-87.35
-88.22
-84.11
-74.87
-61.44
-45.62
-29.47
-14.71
-2.28
7.77
15.99
23.11
29.61
35.59
40.73
44.62
47.00
47.88
47.58
46.49
44.96
43.16
41.11
38.82
36.31
33.73
31.22
28.87
26.57
24.04
20.85
16.62
11.16
4.62
-2.52
-9.60
-16.04
-21.51
-26.15
-30.49
-35.29
-41.34
-49.05
-58.32
-68.34
-77.75
-85.00
-88.77
-88.33
-83.78
-75.88
-65.78
-54.66
-43.46
-32.76
-22.80
-13.65
-5.37
1.91
7.98
12.53
15.34
16.34
15.65
13.54
10.40
6.60
2.54
-1.36
-4.65
-6.91
-7.87
-7.62
-6.61
-5.55
-5.19
-6.01
-8.05
-10.95
-14.11
-16.94
-19.09
-20.57
-21.70
-23.01
-24.94
-27.61
-30.62
-33.11
-34.05
-32.53
-28.14
-21.07
-11.93
-1.47
9.67
21.02
32.23
42.82
52.27
60.07
65.97
70.15
73.09
75.39
77.51
79.70
82.01
84.47
87.13
90.19
93.87
98.30
103.51
109.31
115.35
121.21
126.49
130.85
134.09
136.21
137.38
138.02
138.63
139.64
141.06
142.21
141.66
137.54
128.09
112.31
90.40
63.67
34.14
3.75
-26.07
-54.56
-81.31
-105.83
-127.20
-144.18
-155.71
-161.46
-162.22
-159.85
-156.77
-155.21
-156.50
-160.69
-166.61
-172.39
-175.97
-175.77
-171.01
-161.78
-148.91
-133.67
-117.46
-101.51
-86.78
-73.90
-63.22
-54.79
-48.42
-43.70
-40.07
-36.90
-33.62
-29.86
-25.59
-21.18
-17.34
-15.05
-15.24
-18.41
-24.27
-31.59
-38.38
-42.41
-41.91
-36.18
-25.83
-12.51
1.71
15.00
26.25
35.10
41.81
46.82
50.51
53.06
54.43
54.55
53.47
51.41
48.80
46.08
43.62
41.54
39.83
38.40
37.20
36.26
35.55
34.89
33.94
32.34
29.89
26.69
22.98
18.91
14.25
8.44
0.85
-8.78
-20.09
-32.14
-43.81
-54.22
-63.15
-70.99
-78.54
-86.54
-95.37
-104.71
-113.63
-120.81
-124.96
-125.30
-121.91
-115.71
-108.13
-100.57
-93.79
-87.83
-82.18
-76.37
-70.57
-65.73
-63.40
-64.97
-70.93
-80.24
-90.32
-97.63
-98.59
-90.54
-72.27
-44.14
-7.81
34.09
78.43
122.06
162.35
197.71
227.76
253.03
274.13
291.01
302.59
307.28
304.11
293.88
279.43
264.99
254.62
250.66
252.88
258.71
264.39
266.51
263.14
254.39
241.98
228.23
214.80
201.88
188.03
170.93
148.54
120.26
87.41
52.87
20.09
-8.10
-30.27
-46.46
-57.75
-65.39
-70.30
-72.85
-73.09
-71.15
-67.55
-63.09
-58.67
-54.95
-52.22
-50.44
-49.50
-49.52
-50.84
-53.84
-58.55
-64.38
-70.07
-74.05
-75.04
-72.48
-66.68
-58.57
-49.34
-40.02
-31.39
-24.06
-18.55
-15.13
-13.64
-13.31
-12.87
-11.24
-8.20
-4.85
-3.35
-6.00
-14.13
-27.37
-43.63
-59.81
-72.93
-81.10
-83.78
-81.63
-75.80
-67.34
-56.89
-44.79
-31.40
-17.38
-3.76
8.40
18.35
25.95
31.72
36.70
42.08
48.84
57.34
66.94
75.73
80.56
77.81
64.47
39.45
4.28
-37.26
-80.16
-119.73
-152.58
-176.83
-191.61
-196.53
-191.60
-177.49
-155.95
-129.76
-102.03
-75.41
-51.63
-31.69
-16.55
-7.66
-6.94
-15.99
-35.01
-62.07
-93.10
-122.73
-145.66
-157.95
-157.98
-146.56
-126.38
-101.19
-74.92
-50.89
-31.54
-18.25
-11.24
-9.41
-10.54
-11.87
-11.02
-7.02
-0.49
7.00
14.17
20.91
28.16
36.68
45.84
53.27
56.00
52.39
43.36
32.07
22.19
15.78
12.35
9.61
5.34
-1.01
-8.05
-13.61
-16.29
-16.45
-15.95
-16.96
-20.70
-26.94
-34.42
-41.74
-48.14
-53.75
-59.15
-64.92
-71.27
-78.03
-84.98
-92.07
-99.54
-107.61
-116.18
-124.58
-131.64
-135.98
-136.40
-132.23
-123.49
-110.84
-95.43
-78.66
-61.91
-46.28
-32.39
-20.44
-10.32
-1.81
5.24
10.98
15.62
19.53
23.20
27.04
31.24
35.74
40.26
44.51
48.24
51.24
53.23
53.87
52.83
49.88
45.12
38.90
31.79
24.24
16.49
8.49
0.03
-9.07
-18.76
-28.77
-38.77
-48.50
-57.95
-67.40
-77.32
-88.24
-100.53
-114.26
-128.92
-143.35
-155.72
-163.83
-165.52
-159.29
-144.71
-122.62
-94.90
-63.91
-31.89
-0.54
29.16
56.77
81.95
104.21
122.85
137.16
146.79
151.96
153.49
152.50
150.08
146.93
143.32
139.20
134.48
129.19
123.57
117.88
112.21
106.38
99.92
92.20
82.71
71.30
58.29
44.44
30.70
17.86
6.24
-4.42
-14.94
-26.36
-39.59
-55.01
-72.18
-89.71
-105.38
-116.44
-120.19
-114.64
-99.24
-75.12
-45.01
-12.45
19.07
47.06
70.36
88.97
103.47
114.39
121.99
126.32
127.61
126.50
124.00
121.19
118.77
116.94
115.40
113.73
111.68
109.23
106.46
103.28
99.35
94.17
87.45
79.37
70.60
62.19
55.06
49.73
46.12
43.58
41.11
37.54
31.84
23.54
13.21
2.77
-4.75
-6.18
0.51
14.95
34.08
53.02
66.65
71.50
66.66
53.69
35.41
14.69
-6.57
-27.38
-47.25
-65.60
-81.50
-93.90
-102.07
-105.94
-106.06
-103.34
-98.69
-92.69
-85.62
-77.73
-69.42
-61.35
-54.39
-49.33
-46.61
-46.16
-47.43
-49.67
-52.18
-54.64
-57.16
-60.14
-64.05
-69.11
-75.20
-82.00
-89.25
-96.95
-105.35
-114.60
-124.24
-133.00
-138.84
-139.51
-133.17
-119.12
-97.88
-71.12
-41.06
-10.02
19.97
47.35
71.01
90.28
104.89
114.91
120.74
122.94
122.19
119.25
115.00
110.44
106.59
104.28
103.86
104.96
106.63
107.55
106.61
103.39
98.30
92.52
87.44
84.11
82.68
82.33
81.60
78.97
73.71
66.25
58.23
51.84
48.95
50.24
54.93
61.02
65.97
67.60
64.65
57.19
46.95
37.52
33.84
40.80
60.96
92.34
127.69
156.03
166.46
152.50
114.79
60.98
2.54
-49.56
-88.33
-111.94
-122.61
-124.26
-120.65
-114.43
-107.33
-100.56
-95.13
-91.59
-89.84
-89.04
-87.81
-84.72
-78.98
-70.74
-61.18
-52.14
-45.47
-42.33
-42.68
-45.28
-48.28
-49.97
-49.65
-47.91
-46.38
-46.97
-50.97
-58.57
-68.73
-79.71
-89.80
-98.02
-104.45
-110.21
-116.94
-126.11
-138.32
-152.92
-167.93
-180.35
-186.74
-184.04
-170.39
-145.83
-112.47
-74.08
-35.13
0.47
30.27
53.59
71.13
84.08
93.38
99.48
102.52
102.83
101.24
99.00
97.36
97.08
98.20
100.07
101.81
102.61
102.08
100.18
97.08
92.99
87.98
82.09
75.35
67.84
59.67
50.88
41.44
31.26
20.33
8.78
-3.13
-15.17
-27.30
-39.84
-53.37
-68.61
-86.19
-106.30
-128.33
-150.59
-170.20
-183.40
-186.53
-177.16
-155.09
-122.64
-84.02
-43.99
-6.50
26.19
53.52
75.90
93.95
107.95
117.86
123.72
126.00
125.76
124.24
122.49
120.95
119.40
117.26
113.99
109.52
104.29
99.05
94.39
90.39
86.48
81.63
74.83
65.48
53.70
40.26
26.32
13.00
1.01
-9.54
-19.10
-28.61
-39.19
-51.89
-67.29
-85.10
-103.86
-120.93
-132.90
-136.50
-129.63
-112.13
-85.95
-54.60
-22.08
8.33
34.66
56.30
73.49
86.66
96.01
101.51
103.24
101.71
97.98
93.42
89.36
86.61
85.22
84.55
83.58
81.41
77.56
72.18
65.82
59.09
52.25
45.03
36.74
26.64
14.31
-0.06
-15.77
-31.83
-47.35
-61.76
-74.95
-87.16
-98.80
-110.32
-122.03
-134.04
-146.03
-157.14
-165.77
-169.77
-166.81
-155.14
-134.41
-105.97
-72.75
-38.42
-6.32
21.41
44.05
62.00
76.04
86.72
94.21
98.47
99.73
98.73
96.63
94.64
93.55
93.38
93.46
92.82
90.67
86.84
81.78
76.25
70.84
65.60
59.94
52.95
43.92
32.72
19.91
6.55
-6.24
-17.76
-27.87
-36.99
-45.90
-55.52
-66.72
-80.12
-95.76
-112.77
-129.07
-141.60
-146.97
-142.51
-127.23
-102.35
-70.98
-37.15
-4.68
23.78
47.07
65.22
78.85
88.64
95.08
98.52
99.39
98.38
96.34
94.12
92.29
90.97
89.86
88.46
86.30
83.15
79.12
74.58
69.95
65.47
61.02
56.00
49.53
40.71
29.07
14.86
-0.97
-17.04
-32.08
-45.47
-57.33
-68.45
-79.80
-92.16
-105.90
-120.89
-136.42
-151.13
-162.94
-169.19
-167.20
-155.15
-132.92
-102.38
-66.97
-30.67
3.18
32.62
57.09
76.84
92.26
103.43
110.22
112.71
111.59
108.08
103.60
99.21
95.23
91.30
86.81
81.34
75.02
68.42
62.28
57.08
52.73
48.63
43.79
37.26
28.40
17.19
4.16
-9.76
-23.54
-36.47
-48.33
-59.49
-70.72
-82.96
-96.92
-112.78
-129.85
-146.44
-159.97
-167.41
-166.10
-154.59
-133.25
-104.24
-70.85
-36.49
-3.78
25.81
51.73
73.80
91.81
105.43
114.50
119.31
120.59
119.25
115.96
110.99
104.37
96.22
87.13
78.16
70.57
65.35
62.80
62.35
62.63
61.88
58.43
51.20
40.08
25.89
10.08
-5.84
-20.85
-34.70
-47.83
-61.04
-75.10
-90.44
-106.92
-123.66
-138.91
-150.13
-154.45
-149.47
-134.18
-109.58
-78.55
-45.09
-13.11
14.58
36.75
53.52
65.69
74.02
78.86
80.27
78.41
73.95
68.32
63.36
60.85
61.83
66.26
73.10
80.85
88.12
93.95
97.86
99.47
98.10
92.84
82.93
68.39
50.40
31.04
12.49
-3.88
-17.94
-30.63
-43.22
-56.61
-71.00
-85.96
-100.62
-113.92
-124.47
-130.60
-130.57
-123.11
-108.13
-87.06
-62.56
-37.81
-15.45
3.08
17.68
29.18
38.62
46.66
53.21
57.66
59.33
57.99
54.23
49.30
44.67
41.43
39.89
39.60
39.68
39.23
37.71
35.02
31.27
26.61
21.08
14.55
6.78
-2.39
-13.00
-24.78
-37.19
-49.49
-60.98
-71.24
-80.37
-88.92
-97.75
-107.63
-118.90
-131.24
-143.46
-153.67
-159.46
-158.47
-148.97
-130.48
-104.11
-72.41
-38.79
-6.65
21.50
44.41
62.09
75.34
85.18
92.46
97.70
101.22
103.30
104.33
104.82
105.19
105.67
106.16
106.30
105.64
103.90
101.06
97.28
92.78
87.56
81.42
74.05
65.36
55.56
45.17
34.76
24.71
15.00
5.26
-4.97
-15.98
-27.73
-39.79
-51.63
-62.76
-72.99
-82.49
-91.88
-102.04
-113.88
-127.83
-143.37
-158.64
-170.58
-175.55
-170.50
-154.04
-127.12
-92.90
-55.77
-20.10
10.95
35.96
55.03
69.10
79.20
86.02
89.91
91.18
90.40
88.40
86.15
84.31
83.03
81.99
80.62
78.55
75.73
72.41
68.94
65.44
61.76
57.55
52.51
46.53
39.69
32.12
23.84
14.70
4.52
-6.75
-18.85
-31.19
-43.03
-53.80
-63.34
-71.96
-80.44
-89.84
-101.17
-114.91
-130.62
-146.68
-160.32
-168.34
-168.05
-158.37
-140.38
-117.08
-92.36
-69.60
-50.68
-35.61
-23.16
-11.82
-0.77
9.72
18.62
24.72
27.40
26.91
24.29
20.99
18.39
17.58
19.21
23.45
29.99
37.98
46.15
53.05
57.46
58.82
57.37
53.89
49.20
43.74
37.44
29.94
21.03
10.99
0.44
-9.97
-20.03
-30.24
-41.53
-54.88
-70.71
-88.53
-106.78
-123.01
-134.20
-137.49
-130.82
-113.70
-87.57
-55.52
-21.59
10.39
37.67
59.08
74.77
85.59
92.45
96.02
96.82
95.54
93.20
90.93
89.59
89.37
89.66
89.40
87.68
84.26
79.76
75.34
72.14
70.53
69.89
68.69
65.10
57.65
45.79
30.04
11.89
-6.75
-24.03
-38.73
-50.62
-60.48
-69.88
-80.62
-94.12
-110.71
-129.24
-147.12
-160.83
-166.84
-162.74
-148.07
-124.51
-95.29
-64.15
-34.11
-6.79
17.62
39.66
59.80
77.87
93.06
104.31
110.88
112.68
110.23
104.36
96.00
85.94
74.82
63.24
51.88
41.49
32.88
26.66
22.98
21.18
19.76
16.69
10.17
-0.64
-15.06
-31.09
-46.10
-57.87
-65.36
-68.93
-69.91
-69.97
-70.40
-71.76
-73.76
-75.35
-74.97
-70.74
-60.84
-44.02
-20.09
9.71
42.78
75.75
105.31
129.00
145.63
155.08
157.77
154.30
145.24
131.52
114.82
97.67
83.08
73.53
70.05
71.73
76.06
79.85
80.41
76.36
67.78
55.83
42.02
27.59
13.16
-1.24
-15.87
-30.93
-46.24
-61.22
-75.03
-86.84
-96.06
-102.50
-106.35
-108.12
-108.56
-108.58
-109.08
-110.57
-112.69
-113.91
-111.73
-103.39
-87.07
-62.69
-32.12
1.49
34.92
65.85
93.21
116.68
135.98
150.28
158.42
159.61
154.26
144.26
132.48
121.64
113.29
107.33
102.33
96.59
89.02
79.62
69.32
59.29
50.37
42.74
35.97
29.34
22.13
13.80
4.10
-6.81
-18.26
-29.15
-38.25
-44.73
-48.69
-51.36
-54.73
-60.78
-70.55
-83.54
-97.67
-109.80
-116.64
-115.69
-105.92
-88.02
-64.14
-37.35
-10.83
12.73
31.63
45.26
53.98
58.85
61.24
62.38
63.08
63.50
63.18
61.28
56.92
49.61
39.45
27.17
13.96
1.14
-10.11
-19.10
-25.71
-30.45
-34.35
-38.61
-44.18
-51.33
-59.59
-67.92
-75.20
-80.85
-85.04
-88.62
-92.58
-97.47
-102.80
-107.05
-107.95
-103.32
-91.94
-74.17
-52.08
-28.86
-7.89
8.34
18.83
24.11
25.75
25.54
24.82
24.20
23.62
22.63
20.85
18.18
14.94
11.81
9.48
8.35
8.24
8.21
6.93
2.96
-4.60
-15.96
-30.51
-47.26
-65.11
-83.14
-100.59
-116.78
-130.95
-142.41
-150.71
-155.99
-159.05
-161.17
-163.63
-167.10
-171.05
-173.57
-171.70
-162.26
-143.05
-113.82
-76.62
-35.34
5.47
41.87
71.51
93.71
109.03
118.46
122.96
123.36
120.53
115.62
109.89
104.47
100.02
96.73
94.46
93.05
92.39
92.38
92.80
93.24
93.19
92.30
90.48
87.89
84.83
81.52
78.01
74.12
69.60
64.15
57.50
49.46
40.11
29.84
19.43
9.97
2.59
-1.79
-2.70
-0.22
5.00
11.84
18.97
25.10
29.28
31.16
31.03
29.70
28.11
26.97
26.50
26.46
26.39
25.88
24.76
23.15
21.28
19.36
17.57
16.07
15.03
14.56
14.60
14.81
14.56
13.15
10.09
5.35
-0.57
-6.81
-12.67
-17.87
-22.75
-28.12
-34.76
-42.98
-52.21
-61.13
-68.00
-71.26
-70.05
-64.50
-55.75
-45.48
-35.44
-26.88
-20.33
-15.67
-12.50
-10.50
-9.68
-10.24
-12.33
-15.72
-19.71
-23.40
-25.98
-27.11
-26.99
-26.17
-25.19
-24.34
-23.58
-22.62
-21.21
-19.20
-16.69
-13.85
-10.88
-7.87
-4.86
-2.04
0.15
1.02
-0.19
-3.89
-9.87
-17.23
-24.60
-30.55
-33.93
-34.09
-30.81
-24.21
-14.66
-2.80
10.45
24.01
36.82
48.13
57.63
65.28
70.96
74.09
73.59
68.22
57.14
40.49
19.65
-3.04
-24.98
-43.97
-58.88
-69.67
-77.14
-82.36
-86.25
-89.37
-91.98
-94.26
-96.50
-99.07
-102.26
-106.05
-110.07
-113.72
-116.52
-118.39
-119.64
-120.61
-121.20
-120.66
-117.61
-110.69
-99.06
-82.69
-62.25
-38.68
-12.96
13.92
40.63
65.35
85.80
99.82
106.03
104.39
96.27
84.14
70.78
58.53
48.73
41.52
36.00
30.83
24.97
18.22
11.28
5.32
1.27
-0.73
-1.40
-1.81
-2.74
-4.20
-5.54
-5.98
-5.29
-4.20
-4.23
-7.05
-13.62
-23.63
-35.36
-46.26
-53.68
-55.79
-51.98
-42.86
-29.91
-14.92
0.49
15.00
27.69
37.91
45.27
49.69
51.36
50.81
48.71
45.73
42.39
39.01
35.66
32.33
28.98
25.64
22.42
19.50
17.07
15.18
13.75
12.52
11.22
9.62
7.65
5.36
2.86
0.25
-2.52
-5.62
-9.34
-14.02
-19.88
-26.91
-34.74
-42.64
-49.60
-54.54
-56.45
-54.65
-48.80
-38.91
-25.26
-8.42
10.73
31.02
50.98
69.09
84.04
95.06
102.03
105.56
106.80
107.18
108.08
110.49
114.75
120.47
126.56
131.62
134.45
134.50
132.12
128.50
125.26
123.88
125.39
130.12
137.78
147.49
157.86
166.98
172.80
173.67
169.06
159.96
148.57
137.27
127.59
119.56
112.06
103.72
93.83
82.56
70.55
58.36
46.40
35.36
26.60
21.92
22.46
27.32
33.11
34.77
27.73
9.92
-17.32
-50.01
-83.31
-113.28
-137.75
-156.08
-168.49
-175.62
-178.32
-177.91
-176.15
-174.92
-175.59
-178.72
-183.92
-190.14
-195.97
-199.93
-200.83
-198.05
-191.92
-183.99
-176.72
-172.72
-173.71
-179.60
-188.39
-196.90
-201.98
-201.63
-195.45
-184.31
-169.61
-152.66
-134.50
-116.09
-98.60
-83.29
-71.16
-62.39
-56.20
-51.08
-45.46
-38.35
-29.67
-20.07
-10.48
-1.60
6.39
13.86
21.37
29.31
37.60
45.72
52.89
58.40
61.86
63.22
62.65
60.36
56.52
51.44
45.66
40.02
35.36
32.24
30.59
29.86
29.27
28.20
26.40
23.91
20.76
16.82
11.79
5.33
-2.61
-11.54
-20.26
-26.82
-28.78
-23.64
-9.71
13.27
43.89
79.49
116.91
153.12
185.31
210.86
227.33
233.05
228.00
214.24
195.36
175.01
155.47
137.23
120.13
104.98
94.19
90.68
95.69
107.09
119.78
128.21
129.40
124.46
117.57
112.96
112.22
113.36
112.47
106.49
95.22
81.34
68.57
59.48
54.22
50.84
46.68
39.66
28.83
14.27
-3.23
-22.45
-41.79
-59.43
-73.58
-83.08
-87.80
-88.82
-88.27
-88.94
-93.78
-105.17
-124.25
-150.37
-180.87
-211.54
-237.67
-255.43
-262.85
-260.13
-249.03
-231.89
-210.85
-187.49
-162.96
-138.15
-113.96
-91.24
-70.63
-52.32
-36.06
-21.24
-7.21
6.31
18.93
29.75
37.76
42.45
44.20
44.24
44.21
45.44
48.40
52.59
56.82
59.83
60.79
59.56
56.63
52.61
47.76
41.71
33.64
22.76
8.99
-6.61
-22.06
-35.17
-44.63
-50.81
-55.75
-62.20
-72.26
-86.26
-102.54
-118.08
-129.69
-134.79
-131.71
-119.66
-98.62
-69.60
-34.93
1.81
36.51
65.69
87.63
102.65
112.43
118.82
122.79
124.16
122.19
116.48
107.69
97.55
88.33
81.82
78.65
78.04
78.25
77.39
74.33
69.01
62.29
55.21
48.18
40.73
31.74
20.23
6.16
-9.29
-24.03
-35.94
-43.65
-47.01
-46.78
-44.11
-39.79
-34.16
-27.28
-19.54
-11.93
-5.89
-2.65
-2.67
-5.41
-9.72
-14.48
-19.12
-23.62
-28.09
-32.28
-35.43
-36.59
-35.19
-31.43
-26.19
-20.60
-15.42
-10.74
-6.01
-0.58
5.84
12.80
19.15
23.47
24.63
22.23
16.81
9.57
1.85
-5.31
-11.36
-16.23
-20.13
-23.42
-26.49
-29.73
-33.37
-37.24
-40.56
-42.08
-40.58
-35.67
-28.39
-21.10
-16.74
-17.46
-23.43
-32.66
-41.76
-47.37
-47.64
-42.98
-35.66
-28.74
-24.69
-24.53
-27.74
-32.77
-37.86
-41.74
-43.87
-44.39
-43.97
-43.57
-44.16
-46.65
-51.30
-57.08
-61.17
-59.13
-46.23
-19.57
19.88
66.54
111.25
144.25
158.40
151.49
126.49
89.87
49.07
10.21
-22.84
-48.47
-66.51
-77.71
-83.54
-86.24
-88.86
-94.74
-106.66
-125.73
-150.71
-178.06
-202.98
-221.03
-229.56
-228.44
-219.56
-205.53
-188.22
-167.98
-143.91
-115.07
-81.68
-45.88
-11.43
17.34
36.76
44.82
41.57
28.79
9.36
-13.59
-37.32
-59.93
-80.47
-98.89
-115.94
-132.92
-151.23
-171.91
-195.16
-220.15
-245.02
-267.24
-284.13
-293.41
-293.65
-284.40
-266.20
-240.33
-208.55
-172.84
-135.29
-98.19
-64.00
-35.13
-13.35
0.97
9.28
14.76
21.36
32.36
49.23
71.24
96.03
120.76
143.12
161.94
176.86
187.87
194.82
197.34
195.16
188.46
178.15
165.74
152.98
141.28
131.45
123.46
116.68
110.11
102.77
93.85
82.81
69.46
54.07
37.45
21.01
6.52
-4.28
-10.21
-10.87
-6.74
1.21
11.85
24.06
36.73
48.60
58.34
64.75
67.28
66.40
63.56
60.78
60.04
62.61
68.76
77.79
88.41
99.09
108.54
115.91
120.89
123.55
124.27
123.46
121.46
118.48
114.59
109.76
103.80
96.37
86.93
74.93
60.05
42.55
23.35
3.91
-14.36
-30.80
-45.91
-61.26
-78.75
-99.47
-122.76
-145.90
-164.71
-174.81
-173.10
-158.92
-134.52
-104.62
-75.31
-52.36
-39.62
-37.90
-44.73
-55.31
-64.16
-66.97
-61.74
-48.94
-30.73
-9.75
11.91
33.17
53.75
73.59
92.36
109.20
122.95
132.60
137.78
139.19
138.50
137.79
138.88
142.60
148.54
155.26
160.98
164.19
164.00
160.10
152.43
140.97
125.79
107.30
86.60
65.46
46.04
30.17
18.79
11.61
7.30
3.99
-0.00
-5.83
-13.80
-23.50
-33.98
-43.87
-51.66
-55.89
-55.39
-49.64
-38.95
-24.43
-7.81
9.07
24.63
37.88
48.48
56.62
62.80
67.69
71.94
76.07
80.39
85.01
89.75
94.29
98.24
101.32
103.53
105.23
107.02
109.50
112.79
116.18
118.06
116.24
108.77
94.76
74.97
51.66
27.87
6.43
-10.86
-23.59
-32.38
-38.41
-42.83
-46.59
-50.27
-54.25
-58.56
-62.94
-66.89
-69.91
-71.81
-72.84
-73.55
-74.38
-75.15
-74.97
-72.46
-66.45
-56.60
-43.70
-29.38
-15.42
-3.05
7.29
15.82
22.84
28.32
31.87
33.03
31.69
28.36
23.95
19.40
15.42
12.46
11.03
11.98
16.34
24.85
37.36
52.57
68.53
83.57
97.27
110.62
125.32
142.64
162.39
182.72
200.88
214.38
222.03
224.05
221.65
216.17
208.44
198.54
186.06
170.53
151.80
130.19
106.63
82.51
59.42
38.81
21.57
7.87
-2.70
-10.78
-16.94
-21.37
-23.96
-24.51
-22.92
-19.33
-13.97
-7.06
1.26
10.92
21.83
33.71
46.22
59.01
71.79
84.40
96.51
107.54
116.46
122.13
123.57
120.49
113.37
103.28
91.33
77.95
62.60
44.01
20.85
-7.32
-39.35
-72.63
-104.06
-131.29
-153.71
-172.54
-189.77
-206.78
-223.23
-236.97
-244.99
-244.90
-235.95
-219.42
-197.98
-174.80
-152.67
-133.52
-118.40
-107.54
-100.43
-95.91
-92.38
-88.17
-81.91
-72.74
-60.28
-44.70
-26.82
-8.41
7.79
18.52
20.93
13.74
-2.05
-23.20
-45.20
-63.70
-75.83
-80.86
-79.93
-75.19
-68.77
-62.09
-55.71
-49.59
-43.52
-37.55
-31.98
-27.30
-23.84
-21.50
-19.83
-18.22
-16.34
-14.22
-12.37
-11.43
-11.91
-14.06
-17.90
-23.38
-30.46
-39.02
-48.59
-58.13
-66.06
-70.59
-70.38
-65.01
-55.22
-42.67
-29.31
-16.77
-5.93
3.05
10.46
16.67
21.83
25.86
28.52
29.70
29.53
28.49
27.23
26.35
26.12
26.37
26.58
26.09
24.52
21.88
18.55
15.06
11.79
8.80
5.90
2.72
-1.08
-5.80
-11.80
-19.45
-29.00
-40.32
-52.68
-64.73
-74.88
-81.76
-84.72
-84.01
-80.58
-75.69
-70.50
-65.74
-61.72
-58.31
-55.10
-51.59
-47.32
-42.06
-35.85
-28.99
-21.87
-14.83
-8.21
-2.48
1.53
2.65
-0.16
-7.30
-18.05
-30.64
-42.93
-53.33
-61.47
-68.27
-75.36
-84.22
-95.52
-108.80
-122.62
-134.82
-142.95
-144.77
-138.92
-125.67
-107.38
-88.29
-73.51
-67.51
-72.82
-89.38
-114.83
-145.49
-177.35
-206.85
-231.13
-248.09
-256.43
-255.82
-246.90
-231.19
-210.73
-187.61
-163.65
-140.19
-118.12
-98.07
-80.40
-65.26
-52.39
-40.98
-29.67
-16.64
-0.06
21.56
48.88
81.48
117.74
155.10
190.46
220.92
244.39
260.13
268.86
272.43
273.19
273.22
273.74
275.06
276.93
279.12
281.90
285.99
292.15
300.63
310.68
320.54
327.90
330.59
327.30
317.85
303.16
284.78
264.53
244.06
224.79
207.77
193.69
182.71
174.36
167.42
160.01
149.95
135.19
114.55
88.22
57.96
26.83
-1.70
-24.60
-40.19
-48.47
-50.87
-49.69
-47.46
-46.49
-48.76
-55.74
-68.06
-85.03
-104.29
-122.03
-134.08
-137.40
-131.35
-118.18
-102.02
-87.06
-75.63
-67.35
-59.79
-50.23
-37.35
-22.04
-6.78
5.81
14.28
18.85
20.83
21.58
21.61
20.53
17.60
12.38
5.05
-3.89
-14.17
-26.14
-40.52
-57.67
-76.88
-96.31
-113.48
-126.30
-133.93
-136.98
-137.06
-135.84
-134.28
-132.37
-129.47
-124.77
-117.77
-108.37
-96.77
-83.38
-68.77
-53.69
-39.06
-25.77
-14.47
-5.46
1.34
6.32
9.99
12.97
15.81
18.99
22.85
27.69
33.73
41.15
49.92
59.63
69.32
77.48
82.48
83.12
79.25
71.98
63.43
55.96
51.27
49.72
50.12
50.06
46.70
38.02
23.66
5.46
-12.98
-27.44
-34.67
-33.84
-27.00
-18.39
-12.95
-14.46
-24.22
-40.82
-60.61
-78.87
-91.07
-93.89
-85.97
-68.25
-43.75
-16.68
8.94
30.48
47.18
59.47
67.71
71.03
67.36
54.72
33.05
5.24
-23.58
-48.01
-64.85
-74.29
-79.20
-82.92
-87.10
-90.79
-91.28
-86.16
-75.04
-60.06
-44.73
-32.09
-23.11
-16.23
-8.36
3.29
19.43
37.82
53.98
63.01
61.78
50.36
32.09
12.04
-5.10
-16.84
-23.30
-26.25
-27.46
-27.51
-25.53
-20.11
-10.70
1.72
14.84
26.10
33.83
37.88
39.38
39.93
40.87
42.79
45.70
49.31
53.28
57.26
60.68
62.77
62.66
59.82
54.41
47.49
40.70
35.69
33.42
33.58
34.63
34.32
30.80
23.62
14.28
5.82
1.56
3.62
11.99
24.41
37.24
46.56
49.19
43.41
29.15
8.09
-16.63
-41.10
-61.57
-75.63
-83.02
-85.57
-86.23
-87.72
-91.28
-96.32
-100.88
-102.67
-100.12
-92.98
-82.26
-69.78
-57.43
-46.55
-37.49
-29.86
-22.86
-15.83
-8.53
-1.13
6.00
12.44
17.72
21.26
22.48
21.33
18.68
16.44
16.95
21.91
31.46
43.87
56.20
65.55
70.06
69.31
64.00
55.19
43.73
30.23
15.36
0.23
-13.48
-23.85
-29.39
-29.63
-25.54
-19.38
-14.12
-12.47
-15.88
-24.02
-34.92
-45.70
-53.63
-57.20
-56.55
-53.18
-49.24
-46.52
-45.72
-46.20
-46.35
-44.29
-38.61
-28.87
-15.66
-0.32
15.52
30.29
42.78
52.28
58.67
62.39
64.29
65.36
66.25
67.04
67.24
66.20
63.57
59.68
55.47
51.97
49.73
48.44
47.08
44.43
39.68
32.81
24.45
15.48
6.52
-2.19
-10.70
-19.03
-26.91
-33.93
-39.72
-44.26
-47.94
-51.43
-55.35
-60.02
-65.28
-70.59
-75.11
-77.93
-78.30
-75.73
-70.15
-61.97
-52.04
-41.38
-30.97
-21.41
-12.88
-5.20
1.91
8.53
14.43
19.08
21.96
22.84
22.01
20.22
18.46
17.42
17.30
17.65
17.71
16.79
14.69
11.76
8.79
6.70
6.19
7.57
10.69
14.94
19.37
22.93
24.69
24.16
21.28
16.27
9.28
0.18
-11.30
-25.17
-40.82
-56.82
-71.21
-82.08
-88.08
-88.86
-85.06
-78.24
-70.41
-63.49
-58.47
-54.73
-49.82
-40.23
-22.90
3.32
36.75
73.32
107.69
134.78
150.71
153.16
141.45
116.63
81.63
41.29
1.66
-31.34
-53.61
-63.71
-62.55
-52.17
-34.39
-10.47
18.18
48.64
75.98
94.10
98.03
86.39
62.61
34.09
9.24
-5.78
-9.39
-4.51
3.36
9.09
10.02
6.44
0.53
-5.40
-10.27
-14.47
-19.19
-25.34
-32.83
-40.61
-47.17
-51.22
-52.13
-49.96
-45.18
-38.43
-30.28
-21.36
-12.32
-3.86
3.33
8.73
12.11
13.63
13.81
13.39
13.09
13.43
14.60
16.45
18.54
20.31
21.19
20.76
18.92
15.97
12.58
9.60
7.70
7.06
7.19
7.16
6.07
3.51
-0.14
-3.94
-6.83
-8.27
-8.47
-8.43
-9.45
-12.59
-18.25
-25.91
-34.29
-41.72
-46.60
-47.79
-44.87
-38.16
-28.60
-17.45
-5.96
4.84
14.35
22.34
28.85
34.00
37.81
40.18
40.93
39.98
37.50
34.02
30.37
27.45
25.99
26.21
27.77
29.79
31.19
31.11
29.21
25.79
21.59
17.50
14.11
11.53
9.47
7.47
5.14
2.33
-1.08
-5.32
-10.72
-17.47
-25.15
-32.48
-37.58
-38.82
-35.54
-28.55
-19.65
-10.69
-2.68
4.56
11.80
19.59
27.51
34.31
38.68
40.02
38.86
36.47
34.05
32.09
30.23
27.75
24.23
20.05
16.34
14.47
15.32
18.70
23.29
26.99
27.80
24.57
17.49
7.94
-2.21
-11.47
-19.22
-25.79
-31.99
-38.51
-45.49
-52.50
-58.87
-63.94
-67.41
-69.26
-69.75
-69.24
-68.09
-66.58
-64.76
-62.45
-59.40
-55.59
-51.55
-48.38
-47.29
-48.91
-52.78
-57.35
-60.62
-61.04
-58.12
-52.56
-45.62
-38.42
-31.46
-24.76
-18.29
-12.33
-7.47
-4.23
-2.52
-1.55
-0.14
2.61
6.83
11.87
16.60
20.00
21.54
21.25
19.52
16.85
13.72
10.55
7.77
5.80
4.91
5.17
6.34
7.98
9.59
10.72
11.04
10.44
9.06
7.35
5.91
5.29
5.65
6.50
6.73
5.03
0.53
-6.65
-15.19
-22.97
-27.88
-28.64
-25.34
-19.35
-12.84
-8.00
-6.55
-9.35
-16.30
-26.42
-37.93
-48.70
-56.71
-60.78
-61.02
-58.95
-56.91
-57.29
-61.52
-69.44
-78.97
-86.60
-88.29
-80.84
-63.06
-36.44
-4.89
26.43
52.62
70.42
78.77
78.47
71.25
58.97
43.31
25.93
8.69
-6.35
-17.45
-23.89
-26.37
-26.82
-27.64
-30.77
-36.89
-45.20
-53.83
-60.63
-63.88
-62.80
-57.58
-49.07
-38.36
-26.52
-14.40
-2.70
7.99
17.12
24.32
29.45
32.65
34.31
34.90
34.88
34.59
34.26
34.08
34.23
34.85
36.02
37.71
39.82
42.24
44.92
47.80
50.83
53.97
57.18
60.52
64.08
68.01
72.44
77.38
82.80
88.65
95.04
102.10
109.87
118.02
125.68
131.46
133.79
131.40
123.75
111.24
95.11
77.05
58.77
41.70
26.86
14.87
6.06
0.45
-2.31
-2.93
-2.45
-1.94
-2.10
-3.05
-4.26
-4.82
-3.93
-1.26
2.91
7.80
12.47
16.15
18.46
19.42
19.39
18.76
17.86
16.77
15.25
12.82
8.89
3.13
-4.30
-12.69
-21.04
-28.40
-34.30
-38.79
-42.25
-45.10
-47.46
-49.16
-49.96
-49.78
-48.93
-48.04
-47.89
-49.23
-52.54
-57.86
-64.79
-72.36
-79.15
-83.52
-83.95
-79.46
-69.90
-56.02
-39.27
-21.40
-4.00
11.82
25.61
37.46
47.81
57.13
65.66
73.34
79.82
84.67
87.60
88.60
87.95
86.10
83.53
80.66
77.83
75.38
73.71
73.08
73.45
74.33
74.89
74.19
71.66
67.38
62.08
56.78
52.39
49.29
47.27
45.74
43.99
41.57
38.41
34.72
30.90
27.29
24.04
21.02
17.91
14.34
10.01
4.87
-0.97
-7.28
-13.78
-20.17
-26.00
-30.58
-33.03
-32.50
-28.60
-21.69
-12.95
-4.12
3.00
7.18
8.00
5.87
1.60
-3.93
-10.13
-16.66
-23.30
-29.73
-35.48
-40.01
-42.81
-43.40
-41.30
-35.96
-26.90
-14.04
1.78
18.58
33.43
43.25
45.91
41.03
30.21
16.47
3.24
-6.80
-12.37
-13.72
-12.06
-8.97
-5.66
-2.64
0.28
3.70
8.18
13.76
19.77
24.85
27.41
26.10
20.29
10.28
-2.84
-17.43
-31.64
-43.68
-52.04
-55.76
-54.63
-49.23
-40.79
-30.77
-20.48
-10.82
-2.27
4.97
10.82
15.29
18.57
20.94
22.67
23.75
23.77
22.05
17.99
11.55
3.43
-5.05
-12.30
-16.96
-18.36
-16.73
-13.11
-9.08
-6.33
-6.08
-8.79
-13.96
-20.43
-26.84
-32.18
-36.03
-38.59
-40.35
-41.69
-42.66
-42.99
-42.31
-40.38
-37.34
-33.70
-30.22
-27.61
-26.26
-26.11
-26.66
-27.11
-26.75
-25.07
-21.97
-17.65
-12.39
-6.34
0.59
8.58
17.61
27.06
35.68
41.84
44.24
42.54
37.81
32.22
28.26
27.65
30.64
35.90
41.14
44.07
43.20
38.31
30.29
20.76
11.56
4.32
0.17
-0.51
1.76
5.63
9.11
10.13
7.15
-0.30
-11.45
-24.40
-36.69
-46.06
-51.07
-51.58
-48.78
-44.71
-41.60
-41.11
-43.81
-49.03
-55.27
-60.72
-63.87
-63.81
-60.34
-53.70
-44.33
-32.79
-19.75
-6.07
7.21
19.08
28.87
36.47
42.20
46.50
49.43
50.63
49.54
45.92
40.39
34.38
29.57
27.13
27.06
28.11
28.51
26.88
23.04
18.15
14.07
12.42
13.77
17.39
21.66
24.89
25.92
24.31
20.07
13.24
3.70
-8.66
-23.63
-40.44
-57.86
-74.54
-89.34
-101.37
-109.92
-114.25
-113.69
-107.87
-97.09
-82.39
-65.31
-47.51
-30.49
-15.52
-3.87
3.28
5.06
1.27
-7.23
-18.65
-30.67
-41.09
-48.31
-51.65
-51.18
-47.53
-41.67
-34.64
-27.44
-20.88
-15.36
-10.90
-7.20
-3.90
-0.86
1.71
3.26
3.19
1.14
-2.77
-7.85
-12.96
-16.83
-18.33
-16.88
-12.51
-6.00
1.30
7.81
12.14
13.55
12.22
9.22
6.11
4.46
5.24
8.61
14.06
20.66
27.59
34.17
40.00
44.66
47.69
48.58
47.03
43.18
37.80
32.07
27.22
24.02
22.51
21.96
21.33
19.70
16.59
12.02
6.27
-0.40
-7.96
-16.66
-27.02
-39.76
-55.54
-74.54
-95.79
-116.74
-133.46
-141.73
-138.78
-124.66
-102.49
-77.32
-54.01
-35.43
-21.97
-12.39
-5.66
-2.07
-3.20
-10.58
-24.04
-40.76
-55.90
-64.27
-62.36
-49.69
-28.81
-4.30
19.03
37.51
49.50
55.34
56.77
56.05
55.22
55.32
56.06
55.68
51.25
39.71
19.05
-10.17
-44.27
-76.86
-100.77
-110.51
-104.38
-84.95
-57.92
-29.75
-5.33
13.04
25.36
32.60
35.53
34.36
29.20
20.79
10.78
1.18
-6.54
-12.26
-17.18
-22.97
-30.89
-40.98
-52.02
-61.96
-68.58
-70.10
-65.46
-54.50
-38.00
-17.39
5.50
28.94
51.56
72.56
91.47
107.89
121.30
131.06
136.74
138.45
137.07
134.16
131.50
130.32
130.62
130.95
128.91
122.13
109.58
92.21
72.75
54.55
40.15
30.33
24.04
19.37
14.61
9.05
2.89
-3.40
-9.79
-16.86
-25.39
-35.72
-47.15
-58.01
-66.18
-69.72
-67.47
-59.23
-45.72
-28.35
-9.09
9.81
26.23
38.68
46.91
51.99
55.97
60.91
67.88
76.48
85.05
91.54
94.51
93.65
89.72
83.86
77.01
69.55
61.42
52.40
42.34
31.28
19.36
6.85
-5.77
-17.69
-27.91
-35.49
-39.94
-41.36
-40.48
-38.30
-35.82
-33.85
-32.91
-33.30
-35.03
-37.91
-41.44
-45.00
-47.94
-49.74
-50.16
-49.22
-47.25
-44.77
-42.40
-40.66
-39.77
-39.58
-39.75
-39.90
-39.80
-39.43
-38.81
-37.64
-35.28
-30.73
-23.02
-11.66
3.00
19.64
36.21
50.40
60.31
65.05
65.24
62.89
60.85
61.86
67.51
77.72
90.75
103.95
114.76
121.56
123.90
122.13
116.84
108.35
96.79
82.38
65.93
48.82
32.55
18.23
6.17
-3.89
-12.33
-19.18
-24.13
-27.13
-28.88
-31.06
-35.80
-44.64
-57.77
-73.78
-90.35
-105.26
-117.36
-126.78
-134.53
-141.77
-149.06
-156.08
-161.71
-164.57
-163.69
-158.97
-151.23
-141.89
-132.33
-123.33
-114.76
-105.66
-94.78
-81.18
-64.72
-46.29
-27.51
-10.30
3.76
13.95
20.44
24.24
26.80
29.67
34.22
41.51
52.06
65.66
81.28
97.24
111.66
123.09
130.82
134.88
135.75
134.08
130.79
127.18
125.08
126.33
132.07
142.02
154.41
166.55
175.92
180.96
181.43
178.09
172.41
166.34
162.16
161.98
166.91
176.19
186.97
195.09
196.92
190.94
178.26
161.69
143.68
124.52
101.94
72.43
33.62
-13.76
-65.45
-115.26
-157.48
-188.96
-209.59
-221.37
-226.54
-226.17
-219.89
-206.78
-186.72
-161.26
-133.47
-107.04
-84.82
-67.77
-54.74
-43.21
-30.51
-14.94
3.65
23.86
43.23
58.77
67.37
66.26
53.56
28.95
-5.88
-47.19
-90.07
-129.63
-162.31
-186.43
-202.08
-210.33
-212.46
-209.58
-202.60
-192.37
-179.66
-165.05
-148.83
-131.08
-111.94
-91.75
-71.22
-51.28
-32.87
-16.77
-3.44
7.01
14.81
20.41
24.41
27.28
29.36
30.75
31.47
31.58
31.28
30.91
30.76
31.06
31.82
32.94
34.23
35.48
36.37
36.53
35.63
33.53
30.42
26.82
23.42
20.73
18.87
17.47
15.73
12.78
7.94
1.04
-7.61
-17.08
-26.15
-33.43
-37.69
-38.11
-34.42
-27.06
-17.02
-5.63
5.72
15.86
23.95
29.58
32.66
33.40
32.19
29.56
26.14
22.55
19.27
16.61
14.61
13.17
12.08
11.13
10.19
9.21
8.16
6.98
5.55
3.72
1.28
-1.90
-5.87
-10.51
-15.55
-20.66
-25.49
-29.85
-33.73
-37.36
-41.15
-45.58
-51.02
-57.55
-64.80
-71.95
-77.79
-80.97
-80.29
-75.02
-65.18
-51.53
-35.39
-18.32
-1.74
13.44
26.86
38.62
48.93
57.83
65.03
69.97
72.12
71.32
67.97
63.02
57.71
53.12
49.90
48.07
47.14
46.42
45.28
43.35
40.47
36.69
32.12
26.98
21.63
16.60
12.39
9.27
7.04
5.00
2.21
-2.07
-8.02
-15.19
-22.72
-29.83
-36.15
-41.79
-47.25
-53.06
-59.57
-66.83
-74.55
-82.02
-88.16
-91.60
-90.94
-85.17
-74.09
-58.55
-40.26
-21.43
-4.05
10.53
21.87
30.30
36.62
41.67
46.10
50.13
53.73
56.69
58.92
60.57
62.17
64.60
69.03
76.67
88.28
103.64
121.17
137.98
150.59
155.98
152.67
141.31
124.46
105.68
88.32
74.44
64.47
57.31
50.97
43.21
32.15
16.62
-3.51
-27.22
-52.61
-77.24
-98.95
-116.43
-129.54
-139.15
-146.50
-152.33
-156.34
-157.18
-153.07
-142.79
-126.39
-105.40
-82.31
-59.66
-39.25
-21.60
-6.25
7.76
21.14
34.12
46.53
58.15
68.99
79.18
88.59
96.58
102.06
103.99
102.08
97.10
90.61
84.29
79.22
75.54
72.52
69.16
64.62
58.50
50.72
41.25
30.02
16.96
2.24
-13.49
-29.07
-43.13
-54.48
-62.58
-67.84
-71.54
-75.38
-80.97
-89.30
-100.59
-114.39
-129.77
-145.42
-159.64
-170.38
-175.50
-173.39
-163.60
-147.29
-126.92
-105.55
-85.79
-69.07
-55.42
-43.92
-33.43
-23.18
-13.13
-3.85
3.90
9.42
12.37
12.83
11.23
8.32
5.04
2.37
1.06
1.38
3.03
5.26
7.24
8.42
8.79
8.80
9.05
10.01
11.72
13.82
15.72
16.85
16.71
14.92
11.15
5.16
-3.00
-12.81
-23.25
-33.06
-41.25
-47.54
-52.52
-57.35
-62.98
-69.58
-76.14
-80.84
-81.71
-77.49
-68.12
-54.75
-39.29
-23.81
-9.99
1.11
9.05
13.78
15.45
14.24
10.48
4.78
-1.85
-8.07
-12.51
-14.16
-12.62
-8.16
-1.48
6.47
14.72
22.17
27.58
29.72
27.66
21.41
12.29
2.83
-4.06
-6.25
-3.48
2.22
7.03
6.74
-1.66
-18.69
-41.98
-67.04
-88.65
-102.54
-106.60
-101.16
-88.51
-71.89
-54.42
-38.35
-24.63
-13.06
-2.75
7.23
17.38
27.45
36.54
43.41
47.05
47.03
43.70
38.04
31.41
25.31
21.12
19.92
22.34
28.34
37.18
47.53
57.75
66.42
72.57
75.86
76.62
75.56
73.49
71.03
68.40
65.36
61.32
55.64
47.95
38.35
27.49
16.43
6.33
-1.98
-8.34
-13.46
-18.63
-25.12
-33.33
-42.32
-49.98
-53.80
-52.01
-44.40
-32.57
-19.12
-6.66
3.27
10.38
15.31
18.78
21.10
22.06
21.33
18.98
15.76
12.87
11.51
12.29
14.87
18.21
21.00
22.33
22.07
20.73
19.06
17.54
16.24
14.89
13.26
11.48
10.06
9.56
10.20
11.56
12.79
12.96
11.48
8.37
4.09
-0.70
-5.38
-9.58
-13.16
-16.29
-19.34
-22.86
-27.23
-32.26
-36.73
-38.33
-33.91
-20.32
4.48
40.30
84.21
130.90
174.00
207.84
229.00
236.96
233.80
223.03
208.41
193.13
179.52
169.01
162.11
158.29
155.88
152.43
145.44
133.28
115.89
94.75
72.27
50.82
32.02
16.33
3.20
-8.49
-19.92
-31.89
-44.59
-57.55
-69.89
-80.59
-88.72
-93.61
-95.08
-93.71
-90.98
-89.25
-91.32
-99.45
-114.40
-134.76
-157.15
-177.16
-190.84
-196.09
-193.30
-184.98
-174.75
-165.93
-160.24
-157.24
-154.66
-149.47
-139.40
-124.02
-104.85
-84.49
-65.30
-48.34
-33.34
-19.35
-5.77
6.99
17.74
25.39
29.81
32.02
33.76
36.44
40.42
44.87
48.26
49.20
46.92
41.56
34.09
25.96
19.07
15.57
17.57
26.34
41.18
58.83
73.99
81.32
77.96
65.30
48.64
34.68
28.31
30.34
37.66
45.65
51.11
53.86
56.26
60.97
68.92
78.67
87.54
93.47
96.20
97.13
97.95
99.49
101.15
101.50
99.24
93.88
85.92
76.39
66.43
57.00
48.78
42.13
36.99
32.80
28.71
23.94
18.25
12.03
6.03
0.79
-3.80
-8.53
-14.38
-21.85
-30.65
-39.74
-47.91
-54.31
-58.68
-61.25
-62.24
-61.57
-58.77
-53.32
-45.11
-34.76
-23.62
-13.45
-5.76
-1.28
0.42
0.81
1.86
5.26
11.77
20.81
30.66
38.99
43.64
43.24
37.51
27.20
13.70
-1.48
-16.91
-31.09
-42.30
-48.45
-47.47
-38.10
-20.75
2.10
26.44
47.93
63.37
71.51
73.03
69.55
62.52
52.68
40.30
25.89
10.60
-3.96
-16.66
-27.54
-37.85
-49.17
-62.06
-74.96
-84.34
-86.04
-77.19
-57.79
-31.02
-2.24
23.15
42.07
55.23
66.73
81.91
104.16
132.19
159.62
177.24
177.05
156.13
118.09
71.54
26.23
-10.76
-36.92
-53.50
-63.08
-67.09
-65.15
-56.14
-40.07
-18.98
3.61
24.28
41.25
54.58
65.24
73.85
80.11
83.40
83.77
82.23
79.76
75.74
67.11
49.39
19.30
-22.64
-71.20
-118.20
-155.96
-180.41
-192.12
-194.97
-193.60
-191.30
-189.35
-187.57
-185.20
-181.24
-174.40
-163.06
-145.90
-122.70
-94.92
-65.46
-37.64
-14.09
3.86
15.97
22.37
23.08
18.00
7.61
-6.46
-21.25
-32.95
-37.83
-33.09
-17.50
8.31
41.70
78.09
111.54
135.80
146.16
141.09
123.16
98.29
73.32
53.11
38.51
26.44
12.13
-8.00
-34.25
-63.55
-91.24
-113.38
-128.18
-135.92
-137.87
-135.12
-128.20
-117.58
-104.33
-90.27
-77.54
-67.69
-61.13
-57.28
-55.14
-53.93
-53.30
-53.31
-54.17
-55.94
-58.63
-62.31
-67.05
-72.87
-79.29
-85.27
-89.30
-90.07
-87.10
-81.20
-74.33
-68.76
-66.11
-66.66
-69.41
-72.78
-75.31
-76.34
-75.97
-74.83
-73.67
-73.11
-73.48
-74.68
-76.01
-76.15
-73.47
-66.66
-55.35
-40.42
-23.60
-6.76
8.92
23.23
36.75
50.15
63.64
76.72
88.33
97.38
103.20
105.82
105.99
104.90
103.79
103.63
104.83
107.17
109.99
112.35
113.35
112.34
109.03
103.59
96.49
88.31
79.51
70.19
60.14
48.97
36.34
22.25
7.07
-8.55
-23.89
-38.36
-51.71
-64.17
-76.37
-89.22
-103.47
-119.19
-135.27
-149.38
-158.36
-159.09
-149.48
-129.23
-99.89
-64.49
-26.65
10.31
43.90
72.65
96.01
113.99
126.91
135.30
139.88
141.60
141.70
141.44
141.91
143.64
146.49
149.75
152.58
154.45
155.30
155.53
155.56
155.50
154.97
153.26
149.74
144.18
136.93
128.64
119.93
110.99
101.46
90.67
77.97
63.03
46.00
27.37
7.87
-11.66
-30.21
-46.58
-59.41
-67.49
-70.07
-67.00
-58.77
-46.24
-30.40
-12.36
6.65
25.31
42.40
57.25
69.92
81.18
91.81
102.13
111.49
118.74
122.87
123.66
121.91
118.96
116.01
113.66
111.79
109.85
107.13
102.89
96.19
86.06
71.84
53.75
33.16
12.22
-7.01
-23.50
-37.70
-51.06
-65.09
-80.37
-96.35
-111.85
-125.96
-138.71
-151.05
-163.95
-177.45
-190.10
-199.17
-201.71
-195.79
-181.40
-160.51
-136.37
-112.31
-90.69
-72.39
-57.03
-43.71
-31.73
-21.09
-12.35
-6.20
-2.76
-1.34
-0.51
1.42
5.72
12.76
21.89
31.65
40.32
46.43
49.28
49.05
46.71
43.56
40.67
38.45
36.44
33.70
29.32
22.97
15.19
7.10
-0.04
-5.38
-8.74
-10.50
-11.31
-11.68
-11.86
-11.75
-10.96
-8.98
-5.25
0.60
8.61
18.34
28.93
39.40
48.97
57.24
64.26
70.22
75.20
78.96
81.09
81.30
79.55
76.16
71.60
66.24
60.25
53.63
46.24
37.96
28.72
18.59
7.83
-3.13
-13.73
-23.48
-32.17
-39.95
-47.26
-54.50
-61.74
-68.56
-74.18
-77.84
-79.18
-78.40
-76.20
-73.53
-71.31
-70.24
-70.71
-72.60
-75.20
-77.19
-76.80
-72.20
-62.13
-46.35
-25.92
-3.09
19.31
38.45
52.27
59.88
61.68
59.12
54.24
49.13
45.43
44.15
45.62
49.58
55.34
61.80
67.60
71.37
72.13
69.75
65.08
59.72
55.33
52.85
52.07
51.75
50.31
46.56
40.27
32.07
22.99
13.80
4.66
-4.75
-14.81
-25.43
-35.98
-45.59
-53.70
-60.43
-66.44
-72.36
-78.11
-82.63
-84.25
-81.58
-74.27
-63.35
-50.74
-38.40
-27.54
-18.52
-11.28
-6.01
-3.50
-4.87
-10.93
-21.74
-36.46
-53.69
-71.87
-89.47
-104.99
-117.03
-124.71
-128.18
-128.92
-129.47
-132.26
-138.45
-147.17
-155.87
-161.58
-162.41
-158.25
-150.59
-141.42
-132.15
-123.06
-113.62
-103.17
-91.63
-79.70
-68.54
-59.19
-52.08
-47.02
-43.40
-40.70
-38.69
-37.33
-36.47
-35.44
-32.84
-26.74
-15.20
3.07
28.16
58.91
93.18
128.46
162.42
193.10
218.94
238.64
251.25
256.44
255.01
248.86
240.55
232.42
225.62
219.74
213.24
204.45
192.39
177.23
159.94
141.59
122.82
103.63
83.50
61.63
37.10
9.17
-22.15
-55.33
-86.88
-111.76
-124.87
-123.09
-106.84
-80.16
-49.35
-20.50
2.41
18.16
27.56
32.02
32.44
29.04
21.80
11.19
-1.57
-14.81
-26.98
-37.03
-44.52
-49.41
-51.88
-52.14
-50.57
-47.73
-44.35
-41.17
-38.81
-37.61
-37.58
-38.36
-39.29
-39.52
-38.18
-34.77
-29.35
-22.59
-15.66
-9.84
-6.07
-4.72
-5.54
-7.93
-11.19
-14.79
-18.52
-22.33
-26.19
-29.91
-33.22
-35.86
-37.86
-39.65
-41.95
-45.53
-50.74
-57.19
-63.63
-68.28
-69.29
-65.50
-56.79
-44.15
-29.25
-13.84
0.83
14.19
26.17
36.81
45.91
53.02
57.68
59.89
60.26
59.95
60.27
62.16
65.86
70.95
76.54
81.60
85.22
86.67
85.38
80.97
73.33
62.89
50.66
38.06
26.52
16.95
9.39
3.12
-2.94
-9.64
-17.20
-25.11
-32.50
-38.54
-42.80
-45.37
-46.59
-46.89
-46.70
-46.37
-46.22
-46.46
-47.01
-47.37
-46.69
-44.13
-39.33
-32.76
-25.62
-19.50
-15.71
-14.75
-16.15
-18.68
-20.79
-21.07
-18.64
-13.31
-5.74
2.49
8.91
10.57
4.83
-9.63
-32.01
-59.40
-87.48
-111.92
-129.66
-139.61
-142.50
-140.17
-134.75
-128.05
-121.42
-115.72
-111.28
-107.68
-103.64
-97.19
-86.32
-69.82
-47.96
-22.55
3.65
27.86
48.08
63.52
74.40
81.47
85.57
87.34
87.30
86.00
84.06
82.13
80.65
79.71
79.07
78.26
76.91
74.85
72.15
68.94
65.24
60.83
55.37
48.57
40.49
31.62
22.69
14.46
7.34
1.24
-4.32
-9.96
-16.22
-23.28
-30.93
-38.54
-45.04
-49.07
-49.17
-44.23
-33.99
-19.30
-2.10
15.20
30.46
42.40
50.84
56.34
59.68
61.38
61.59
60.37
58.00
55.16
52.76
51.56
51.85
53.26
55.06
56.47
57.01
56.68
55.78
54.67
53.54
52.28
50.56
47.92
43.93
38.32
31.05
22.28
12.36
1.66
-9.47
-20.81
-32.16
-43.31
-53.94
-63.72
-72.51
-80.51
-88.33
-96.60
-105.53
-114.55
-122.11
-126.16
-124.70
-116.45
-101.25
-80.05
-54.63
-27.17
0.17
25.60
47.94
66.68
81.90
94.11
103.88
111.66
117.77
122.44
126.05
129.16
132.39
136.16
140.50
145.07
149.29
152.68
155.00
156.28
156.48
155.39
152.57
147.54
140.05
130.19
118.28
104.61
89.33
72.51
54.38
35.62
17.32
0.75
-13.06
-23.64
-31.15
-36.26
-39.93
-43.12
-46.65
-50.96
-55.97
-61.03
-65.06
-66.78
-65.17
-59.70
-50.33
-37.46
-21.88
-4.78
12.11
26.60
36.42
39.84
36.19
26.13
11.42
-5.66
-22.84
-38.33
-50.85
-59.60
-64.16
-64.48
-60.97
-54.50
-46.29
-37.64
-29.68
-23.06
-17.98
-14.17
-11.01
-7.83
-4.03
0.63
5.94
11.14
15.03
16.28
13.81
7.20
-3.26
-16.84
-32.70
-50.08
-68.18
-85.86
-101.42
-112.84
-118.37
-117.04
-108.86
-94.54
-75.05
-51.61
-26.14
-1.72
17.58
27.82
26.78
15.12
-3.66
-24.64
-43.34
-57.18
-65.68
-69.65
-70.04
-67.24
-61.16
-51.75
-39.53
-25.72
-11.91
0.34
9.94
16.50
20.45
22.90
25.29
28.86
34.00
40.02
45.15
47.19
44.37
36.11
23.28
7.88
-7.68
-21.40
-32.08
-39.32
-43.07
-43.28
-39.73
-32.25
-21.18
-7.71
6.23
18.44
27.15
31.61
32.13
29.88
26.30
22.62
19.48
16.98
14.73
12.28
9.36
6.11
2.99
0.52
-1.10
-2.25
-3.92
-7.36
-13.59
-22.92
-34.82
-48.18
-61.80
-74.82
-86.85
-97.89
-107.89
-116.46
-122.92
-126.51
-126.87
-124.31
-119.76
-114.38
-108.96
-103.53
-97.24
-88.80
-77.12
-61.96
-44.07
-24.89
-5.87
12.06
28.59
43.71
57.09
67.81
74.53
76.07
72.17
63.87
53.49
44.02
38.28
38.11
43.76
53.72
65.20
74.98
80.49
80.57
75.60
66.99
56.29
44.55
32.10
18.81
4.58
-10.27
-25.05
-38.88
-50.93
-60.63
-67.74
-72.45
-75.37
-77.48
-79.72
-82.46
-85.22
-86.86
-86.13
-82.31
-75.47
-66.26
-55.38
-43.18
-29.76
-15.43
-1.11
11.72
21.54
27.61
30.35
31.19
31.90
33.87
37.64
43.01
49.38
56.13
62.85
69.32
75.56
81.60
87.44
92.96
97.93
102.16
105.67
108.75
111.79
114.97
118.07
120.62
122.34
123.59
125.43
129.21
135.87
145.36
156.60
167.74
176.75
181.88
181.97
176.73
166.97
154.60
142.19
132.07
125.18
120.62
116.13
109.28
98.91
85.67
71.56
58.61
47.71
38.10
27.90
15.08
-1.62
-22.33
-46.24
-71.98
-97.94
-122.38
-143.49
-159.47
-168.75
-170.39
-164.45
-152.16
-135.68
-117.57
-100.01
-84.14
-69.90
-56.45
-43.00
-29.48
-16.77
-6.22
1.15
5.27
7.14
8.26
9.84
12.23
14.77
16.11
14.82
10.00
1.61
-9.52
-21.76
-33.03
-41.22
-44.70
-42.73
-35.86
-25.91
-15.66
-8.14
-5.61
-8.85
-16.79
-26.97
-36.50
-43.16
-46.14
-46.04
-44.31
-42.39
-41.02
-40.06
-38.72
-36.17
-31.93
-26.16
-19.59
-13.30
-8.41
-5.72
-5.52
-7.54
-11.22
-15.97
-21.44
-27.48
-33.91
-40.27
-45.80
-49.89
-52.55
-54.77
-58.42
-65.49
-77.22
-93.37
-112.15
-130.91
-147.21
-159.69
-168.39
-174.42
-179.17
-183.55
-187.56
-190.26
-190.16
-185.77
-175.98
-160.39
-139.38
-114.09
-86.32
-58.38
-32.67
-11.14
5.35
17.32
26.45
34.83
43.92
53.93
63.79
71.98
77.53
80.71
82.93
85.87
90.49
96.44
102.34
106.59
108.31
107.76
105.97
104.11
102.74
101.57
99.80
96.71
92.35
87.61
83.80
81.79
81.10
79.63
74.13
61.47
40.08
10.76
-23.31
-57.70
-88.21
-112.04
-128.13
-136.78
-138.87
-135.39
-127.39
-116.30
-103.97
-92.38
-82.81
-75.29
-68.66
-61.27
-52.07
-41.18
-29.93
-19.98
-12.50
-7.56
-4.24
-1.29
2.20
6.44
10.99
15.09
18.02
18.92
16.60
9.48
-3.65
-22.52
-44.35
-63.98
-75.35
-73.90
-58.60
-32.46
-1.27
28.81
53.45
70.89
81.33
85.69
84.66
78.79
69.06
57.42
46.55
39.18
37.34
42.04
53.41
70.76
92.45
115.76
137.09
152.67
159.78
157.73
147.99
133.38
116.81
100.29
84.65
69.99
56.37
44.16
33.87
25.73
19.47
14.35
9.54
4.48
-1.01
-6.78
-12.67
-18.55
-24.41
-30.24
-35.99
-41.58
-46.94
-52.13
-57.30
-62.72
-68.68
-75.32
-82.39
-89.10
-94.17
-96.07
-93.48
-85.87
-73.77
-58.71
-42.94
-28.69
-17.70
-10.68
-7.35
-6.64
-7.21
-7.84
-7.85
-7.14
-6.00
-4.88
-4.07
-3.57
-3.17
-2.59
-1.67
-0.34
1.34
3.34
5.61
8.02
10.28
11.82
11.99
10.25
6.43
0.69
-6.54
-14.86
-24.02
-33.96
-44.63
-55.95
-67.72
-79.70
-91.53
-102.62
-111.92
-117.94
-119.09
-114.19
-103.07
-86.75
-67.13
-46.39
-26.27
-7.78
8.84
23.79
37.39
49.75
60.68
69.68
76.08
79.34
79.37
76.72
72.47
67.90
64.01
61.12
58.93
56.78
54.13
50.96
47.75
45.21
43.93
44.02
45.06
46.31
46.99
46.65
45.20
42.92
40.24
37.56
35.16
33.26
32.06
31.56
31.47
30.97
28.89
24.21
16.80
7.80
-0.54
-5.74
-6.31
-2.60
3.23
8.19
9.85
7.36
1.57
-5.72
-12.79
-18.64
-22.88
-25.17
-24.76
-20.57
-11.87
0.84
15.55
29.22
38.88
42.93
41.68
37.13
31.94
28.28
27.03
27.64
28.75
29.07
28.10
26.42
25.29
25.98
28.99
33.78
38.91
42.63
43.56
41.27
36.44
30.66
25.90
23.95
25.85
31.55
39.85
48.62
55.33
57.64
54.02
44.14
28.96
10.52
-8.57
-25.75
-39.15
-47.91
-52.30
-53.33
-52.37
-50.64
-48.93
-47.65
-46.86
-46.42
-46.07
-45.52
-44.65
-43.89
-44.39
-48.11
-57.12
-72.58
-93.68
-117.22
-138.38
-152.27
-155.84
-148.99
-134.54
-117.01
-100.93
-89.49
-84.12
-84.74
-90.32
-99.32
-109.69
-118.95
-124.40
-123.83
-116.29
-102.60
-85.10
-66.76
-50.16
-36.58
-25.84
-16.66
-7.53
2.64
14.12
26.45
38.77
50.17
59.87
67.42
72.59
75.47
76.44
76.20
75.56
75.24
75.56
76.38
77.20
77.40
76.42
73.93
69.82
64.24
57.37
49.41
40.38
30.04
17.95
3.74
-12.42
-29.55
-45.87
-59.42
-69.00
-74.91
-79.03
-84.13
-92.58
-105.14
-120.60
-136.27
-149.18
-157.39
-160.56
-159.85
-157.03
-153.52
-149.76
-145.09
-138.24
-128.01
-113.73
-95.59
-74.43
-51.39
-27.49
-3.30
21.09
45.81
70.74
95.24
118.06
137.75
153.19
164.00
170.71
174.31
175.71
175.33
173.05
168.57
161.90
153.59
144.61
135.92
127.97
120.39
112.16
102.04
89.16
73.47
55.95
38.49
23.54
13.53
10.30
14.58
25.73
41.83
60.22
78.14
93.47
105.17
113.16
118.02
120.45
120.87
119.26
115.34
108.91
100.07
89.35
77.58
65.71
54.53
44.61
36.18
29.29
23.92
19.94
17.20
15.38
13.94
12.16
9.41
5.39
0.31
-5.13
-10.11
-14.06
-16.92
-19.16
-21.48
-24.36
-27.86
-31.55
-34.79
-37.08
-38.26
-38.65
-38.83
-39.50
-41.22
-44.29
-48.57
-53.42
-57.71
-59.96
-58.83
-53.45
-43.80
-30.77
-15.91
-0.94
12.73
24.28
33.53
40.74
46.23
50.26
52.93
54.28
54.37
53.33
51.37
48.74
45.71
42.55
39.60
37.12
35.28
34.00
33.03
31.95
30.43
28.28
25.54
22.40
19.05
15.63
12.17
8.68
5.19
1.83
-1.27
-4.01
-6.45
-8.78
-11.28
-14.23
-17.72
-21.67
-25.75
-29.55
-32.69
-34.95
-36.43
-37.47
-38.61
-40.41
-43.25
-47.16
-51.74
-56.14
-59.15
-59.50
-56.07
-48.19
-35.82
-19.56
-0.50
19.97
40.50
59.99
77.75
93.63
107.93
121.20
133.98
146.43
158.25
168.61
176.44
180.62
180.19
174.53
163.53
147.78
128.60
107.85
87.49
68.99
52.92
38.94
26.25
14.12
2.30
-8.88
-18.85
-27.12
-33.47
-37.99
-40.92
-42.57
-43.29
-43.44
-43.25
-42.77
-41.89
-40.55
-38.92
-37.53
-37.11
-38.30
-41.40
-46.22
-52.17
-58.31
-63.62
-67.09
-67.97
-66.08
-61.98
-56.97
-52.65
-50.38
-50.72
-53.33
-57.30
-61.63
-65.69
-69.18
-71.85
-73.27
-72.70
-69.43
-63.25
-54.69
-45.03
-35.82
-28.39
-23.46
-21.01
-20.65
-21.84
-24.16
-27.21
-30.34
-32.54
-32.50
-29.20
-22.43
-13.28
-3.96
2.92
5.35
2.67
-4.19
-13.26
-22.42
-30.36
-36.99
-43.37
-50.94
-60.58
-72.02
-83.75
-93.64
-99.83
-101.51
-99.19
-94.23
-88.15
-81.87
-75.51
-68.62
-60.78
-52.05
-43.07
-34.67
-27.53
-21.91
-17.68
-14.61
-12.51
-11.28
-10.77
-10.63
-10.29
-9.20
-7.00
-3.76
0.09
3.93
7.15
9.37
10.53
10.85
10.73
10.71
11.25
12.62
14.69
16.94
18.55
18.79
17.24
14.06
9.87
5.50
1.58
-1.69
-4.58
-7.69
-11.60
-16.65
-22.72
-29.18
-34.99
-38.84
-39.46
-35.98
-28.27
-17.09
-3.93
9.47
21.70
32.05
40.51
47.37
52.80
56.62
58.60
58.83
58.13
57.90
59.75
64.95
74.10
87.15
103.54
122.23
141.50
158.83
171.16
175.57
170.46
156.14
134.96
110.27
85.19
61.52
39.47
18.18
-3.35
-25.51
-47.74
-68.74
-86.91
-100.88
-109.90
-114.12
-114.48
-112.35
-108.91
-104.62
-99.07
-91.42
-81.04
-68.07
-53.53
-38.80
-25.02
-12.63
-1.49
8.63
17.58
24.60
28.61
28.71
24.56
16.66
6.27
-4.80
-14.59
-21.58
-25.19
-26.17
-26.49
-28.74
-35.03
-45.96
-60.04
-73.97
-83.60
-85.41
-77.70
-61.14
-38.53
-13.70
9.60
28.72
42.58
51.45
56.41
58.72
59.33
58.63
56.74
53.76
50.23
47.25
46.42
49.25
56.56
67.96
81.67
95.00
105.17
110.18
109.39
103.40
93.56
81.33
67.96
54.39
41.53
30.29
21.46
15.28
11.21
7.95
3.93
-1.94
-9.83
-18.93
-28.00
-35.93
-42.25
-47.07
-50.72
-53.38
-54.99
-55.48
-55.04
-54.38
-54.51
-56.27
-59.92
-65.00
-70.56
-75.66
-79.72
-82.64
-84.55
-85.37
-84.61
-81.46
-75.20
-65.71
-53.64
-40.33
-27.27
-15.60
-5.81
2.25
9.01
14.80
19.63
23.28
25.52
26.39
26.22
25.53
24.72
23.90
22.95
21.65
19.87
17.79
15.76
14.22
13.42
13.27
13.37
12.98
11.33
7.77
2.05
-5.52
-14.20
-23.03
-31.31
-38.86
-46.12
-53.87
-62.85
-73.27
-84.68
-96.09
-106.30
-114.21
-119.08
-120.62
-119.23
-115.89
-111.95
-108.48
-105.65
-102.45
-96.96
-87.40
-73.13
-55.14
-35.79
-17.71
-2.73
8.75
17.58
25.17
32.72
40.85
49.49
58.20
66.31
73.10
78.01
80.89
82.06
82.12
81.59
80.52
78.38
74.43
68.30
60.42
52.05
44.68
39.30
35.88
33.42
30.50
25.94
19.37
11.22
2.46
-5.79
-12.47
-16.68
-17.62
-14.66
-7.57
3.39
17.39
33.31
50.06
66.99
84.10
101.79
120.49
140.06
159.38
176.12
187.15
189.40
180.96
162.13
135.79
106.73
80.17
59.96
47.26
40.38
35.91
30.45
22.13
10.98
-1.58
-14.00
-25.42
-35.88
-45.73
-54.97
-62.92
-68.56
-71.25
-71.27
-69.87
-68.80
-69.55
-72.76
-78.01
-84.05
-89.24
-92.12
-91.76
-88.01
-81.48
-73.23
-64.37
-55.69
-47.56
-39.98
-32.97
-26.78
-22.03
-19.47
-19.62
-22.46
-27.32
-33.07
-38.56
-42.99
-46.21
-48.58
-50.73
-53.19
-56.14
-59.36
-62.40
-64.67
-65.65
-64.90
-62.07
-57.06
-50.17
-42.20
-34.38
-28.05
-24.14
-22.81
-23.38
-24.73
-25.81
-26.19
-26.10
-26.26
-27.38
-29.88
-33.73
-38.62
-44.06
-49.47
-54.05
-56.75
-56.32
-51.65
-42.22
-28.38
-11.41
6.86
24.60
40.49
53.91
64.85
73.51
80.07
84.49
86.73
86.95
85.73
83.99
82.69
82.46
83.39
85.03
86.58
87.22
86.24
83.13
77.47
69.16
58.59
46.83
35.58
26.64
21.20
19.25
19.71
20.93
21.66
21.56
21.22
21.55
22.94
24.82
25.86
24.62
20.29
13.17
4.46
-4.15
-11.10
-15.38
-16.67
-15.35
-12.29
-8.64
-5.56
-3.88
-3.96
-5.66
-8.56
-12.16
-16.09
-20.21
-24.49
-28.88
-33.23
-37.30
-40.72
-42.96
-43.42
-41.70
-38.06
-33.63
-30.23
-29.66
-32.81
-39.03
-46.40
-52.64
-56.46
-58.35
-60.61
-66.19
-77.20
-93.56
-112.69
-130.31
-142.01
-144.94
-138.84
-125.96
-110.07
-94.88
-82.72
-74.05
-67.81
-62.27
-55.87
-47.59
-36.93
-23.73
-8.12
9.26
27.06
43.33
55.94
63.34
65.08
62.09
56.39
50.45
46.54
46.08
49.48
56.18
64.96
74.37
83.12
90.24
95.21
97.96
98.75
98.04
96.40
94.29
92.09
89.98
87.97
85.92
83.67
81.04
77.94
74.49
71.03
68.10
66.27
65.91
66.97
68.85
70.56
71.00
69.37
65.45
59.85
53.95
49.67
48.99
53.35
62.97
76.54
91.33
103.90
111.26
111.72
105.43
94.07
80.05
65.68
52.59
41.70
33.46
28.17
26.01
26.82
29.89
33.94
37.54
39.64
39.94
38.96
37.62
36.72
36.44
36.30
35.45
33.04
28.59
22.09
13.83
4.21
-6.40
-17.77
-29.67
-41.85
-53.85
-65.10
-74.90
-82.66
-88.13
-91.56
-93.81
-96.14
-99.80
-105.54
-113.15
-121.41
-128.42
-132.32
-132.09
-127.89
-121.03
-113.37
-106.63
-101.91
-99.65
-99.82
-102.06
-105.53
-108.59
-108.82
-103.64
-91.47
-72.78
-50.30
-28.10
-9.91
2.47
9.71
14.24
18.83
25.14
33.19
41.78
49.40
55.13
58.85
61.05
62.36
63.15
63.50
63.27
62.36
60.69
58.24
54.87
50.33
44.27
36.39
26.62
15.11
2.38
-10.76
-23.11
-33.22
-39.65
-41.34
-37.97
-30.15
-19.29
-7.10
4.85
15.47
24.23
30.99
35.83
38.94
40.45
40.32
38.30
33.95
26.93
17.48
6.61
-4.03
-12.81
-18.92
-22.87
-26.24
-30.78
-37.42
-45.76
-54.23
-61.04
-65.06
-66.29
-65.67
-64.50
-63.74
-63.74
-64.26
-64.73
-64.53
-63.15
-60.29
-55.93
-50.30
-43.90
-37.37
-31.35
-26.38
-22.91
-21.17
-21.15
-22.41
-24.03
-24.65
-22.77
-17.19
-7.40
6.32
22.99
41.35
60.11
78.20
94.90
109.81
122.87
134.27
144.31
153.31
161.48
168.84
175.18
180.11
183.08
183.54
180.96
175.01
165.72
153.48
138.83
122.29
104.15
84.52
63.56
41.84
20.44
0.93
-15.06
-26.35
-32.61
-34.55
-33.63
-31.64
-30.13
-30.06
-31.75
-35.03
-39.50
-44.69
-50.19
-55.62
-60.79
-65.75
-70.86
-76.78
-84.17
-93.18
-103.22
-113.00
-120.88
-125.61
-126.66
-124.45
-120.03
-114.66
-109.29
-104.33
-99.69
-94.88
-89.30
-82.51
-74.44
-65.49
-56.37
-47.87
-40.50
-34.34
-28.95
-23.67
-17.92
-11.49
-4.57
2.36
8.85
14.81
20.55
26.62
33.37
40.61
47.47
52.69
55.28
54.89
52.04
47.75
42.91
37.83
32.22
25.67
18.26
10.92
5.12
2.29
2.97
6.51
11.28
15.42
17.50
17.00
14.30
10.35
6.26
2.95
1.06
0.99
2.95
7.05
13.24
21.33
30.84
41.09
51.24
60.58
68.74
75.81
82.09
87.77
92.42
95.04
94.38
89.69
81.29
70.63
59.81
50.60
43.77
38.83
34.51
29.51
23.29
16.26
9.40
3.63
-0.65
-3.79
-6.52
-9.51
-13.05
-16.92
-20.66
-23.87
-26.45
-28.58
-30.58
-32.69
-34.87
-36.89
-38.45
-39.40
-39.85
-40.21
-41.10
-43.09
-46.53
-51.30
-56.71
-61.58
-64.49
-64.27
-60.34
-52.91
-42.98
-31.93
-21.15
-11.66
-3.93
1.99
6.33
9.27
10.91
11.30
10.47
8.57
5.88
2.72
-0.60
-3.94
-7.28
-10.69
-14.22
-17.86
-21.54
-25.23
-28.99
-32.98
-37.34
-42.07
-47.02
-51.84
-56.22
-59.93
-62.89
-65.09
-66.44
-66.82
-66.14
-64.58
-62.66
-61.18
-60.98
-62.59
-65.89
-70.09
-73.80
-75.42
-73.55
-67.30
-56.51
-41.76
-24.19
-5.34
13.18
29.93
43.87
54.48
61.69
65.76
67.17
66.53
64.57
62.13
60.10
59.24
59.94
62.15
65.43
69.11
72.53
75.00
75.81
74.25
69.74
62.09
51.80
40.00
28.20
17.77
9.54
3.55
-0.75
-4.22
-7.64
-11.49
-15.98
-21.12
-26.87
-33.23
-40.08
-47.16
-53.87
-59.33
-62.47
-62.35
-58.48
-50.94
-40.51
-28.37
-15.92
-4.34
5.58
13.61
19.87
24.75
28.52
31.26
32.86
33.22
32.42
30.83
29.06
27.65
26.94
26.95
27.49
28.29
29.15
29.95
30.55
30.76
30.25
28.78
26.23
22.74
18.65
14.36
10.22
6.43
3.04
-0.02
-2.87
-5.67
-8.58
-11.80
-15.49
-19.76
-24.63
-30.03
-35.81
-41.88
-48.18
-54.73
-61.48
-68.16
-74.27
-79.13
-81.94
-81.91
-78.42
-71.09
-59.97
-45.72
-29.57
-13.05
2.43
16.03
27.66
37.74
46.91
55.52
63.58
70.73
76.44
80.14
81.41
80.02
76.18
70.69
64.81
59.96
57.20
56.70
57.85
59.56
60.80
61.00
60.05
57.96
54.61
49.77
43.14
34.67
24.59
13.41
1.81
-9.44
-19.52
-27.57
-32.96
-35.64
-36.39
-36.80
-38.79
-43.77
-51.95
-62.13
-71.95
-78.73
-80.14
-74.71
-62.06
-42.98
-19.47
5.37
27.75
44.11
52.13
51.63
44.57
34.25
23.85
15.23
8.48
2.47
-4.09
-11.67
-19.61
-26.56
-31.24
-33.04
-32.11
-29.02
-24.29
-18.16
-10.70
-2.17
6.76
14.99
21.43
25.42
27.13
27.37
27.19
27.36
27.99
28.55
28.28
26.58
23.17
17.95
10.69
0.81
-12.29
-28.78
-47.95
-68.10
-86.98
-102.48
-113.30
-119.21
-120.82
-119.11
-114.92
-108.76
-100.72
-90.70
-78.53
-64.13
-47.61
-29.38
-10.19
8.99
27.07
43.19
56.83
67.91
76.65
83.34
88.06
90.53
90.32
87.18
81.53
74.61
68.20
64.05
63.15
65.52
70.27
75.99
81.18
84.40
84.34
79.98
70.93
57.78
42.17
26.32
12.01
-0.20
-11.19
-22.64
-35.92
-51.11
-66.89
-81.17
-92.23
-99.43
-103.47
-105.89
-108.40
-112.31
-118.20
-125.92
-134.79
-143.62
-150.98
-155.43
-155.85
-151.97
-144.73
-136.23
-129.06
-125.13
-124.39
-124.49
-121.41
-111.28
-92.25
-65.55
-35.04
-5.53
19.29
38.05
51.61
61.86
70.39
77.66
83.27
86.69
88.07
88.35
88.83
90.53
93.69
97.67
101.17
102.74
101.17
95.82
86.79
74.87
61.24
47.12
33.43
20.51
8.34
-3.33
-14.54
-25.02
-34.22
-41.61
-46.97
-50.48
-52.57
-53.69
-53.92
-52.94
-50.13
-44.88
-36.90
-26.36
-13.91
-0.49
12.96
25.62
36.82
45.99
52.61
56.25
56.77
54.57
50.73
46.79
44.38
44.54
47.38
52.09
57.33
61.98
65.63
68.77
72.40
77.42
83.96
91.20
97.59
101.50
101.88
98.72
93.08
86.68
81.24
77.94
76.97
77.51
77.89
75.96
69.66
57.44
38.77
14.49
-13.18
-41.11
-65.98
-85.20
-97.39
-102.47
-101.36
-95.36
-85.71
-73.41
-59.27
-44.12
-28.91
-14.64
-2.24
7.65
14.75
19.29
21.91
23.54
25.24
27.87
31.75
36.58
41.47
45.36
47.34
47.09
44.86
41.29
37.07
32.74
28.53
24.30
19.47
13.05
3.81
-9.23
-26.16
-45.69
-65.24
-81.79
-93.01
-98.29
-98.72
-96.17
-91.99
-86.36
-78.74
-69.10
-58.85
-50.70
-47.26
-49.27
-54.50
-58.43
-56.23
-45.20
-26.24
-3.45
17.82
33.32
41.34
42.35
37.53
27.27
10.76
-12.89
-42.94
-75.80
-105.40
-125.05
-130.00
-119.37
-96.39
-67.17
-38.40
-15.29
-0.37
6.75
8.60
8.73
10.34
15.18
22.75
30.30
33.64
28.63
12.96
-12.54
-43.62
-73.80
-96.53
-107.54
-106.23
-95.41
-79.71
-63.54
-49.64
-38.96
-31.47
-27.06
-25.86
-27.71
-31.36
-34.09
-32.41
-23.21
-4.75
22.77
57.45
96.22
135.34
170.72
198.24
214.17
215.93
202.81
176.64
141.71
103.95
69.36
42.27
24.10
13.31
6.77
1.80
-2.13
-3.09
2.03
15.23
35.54
58.53
77.65
86.69
81.94
63.23
33.43
-2.94
-41.39
-78.14
-110.23
-135.18
-150.85
-155.86
-150.28
-136.13
-117.14
-97.68
-81.31
-69.67
-62.27
-57.23
-52.51
-46.98
-40.69
-34.50
-29.36
-25.61
-22.81
-19.89
-15.64
-9.14
-0.08
11.17
23.78
36.69
49.00
60.14
69.87
78.14
84.94
90.23
94.02
96.52
98.16
99.49
100.96
102.82
105.07
107.64
110.54
113.82
117.43
121.06
124.10
125.78
125.50
122.94
118.18
111.57
103.64
95.05
86.56
78.93
72.75
68.22
64.87
61.58
56.82
49.26
38.39
24.98
10.96
-1.13
-9.21
-12.59
-12.28
-10.54
-9.81
-11.63
-16.18
-22.51
-29.30
-35.59
-41.00
-45.44
-48.71
-50.38
-50.19
-48.54
-46.77
-46.81
-50.38
-58.05
-68.82
-80.32
-89.62
-94.14
-92.48
-84.81
-73.04
-60.53
-51.56
-50.51
-60.74
-83.53
-117.27
-157.33
-196.91
-228.58
-246.23
-246.77
-230.78
-202.07
-166.21
-128.70
-93.54
-62.66
-36.26
-13.57
6.28
23.77
38.98
51.78
62.03
69.72
74.91
77.73
78.32
76.79
73.37
68.62
63.61
59.83
58.60
60.29
63.66
66.05
64.40
56.75
43.32
26.57
10.24
-2.30
-9.23
-10.60
-7.90
-3.13
1.88
5.83
7.94
8.07
6.59
4.46
2.92
3.14
5.85
11.14
18.45
26.81
35.05
42.04
46.97
49.58
50.25
49.78
49.04
48.58
48.60
49.11
50.18
52.11
55.08
58.96
63.10
66.76
69.66
72.52
77.08
85.31
98.35
115.69
135.19
153.86
169.11
179.51
184.82
185.38
181.43
172.90
159.65
141.98
120.84
97.57
73.48
49.44
26.08
4.27
-14.53
-28.32
-35.53
-35.99
-31.74
-26.50
-24.26
-27.62
-36.62
-48.87
-60.93
-70.04
-75.56
-79.11
-83.66
-91.98
-105.24
-122.40
-140.59
-155.98
-164.70
-163.61
-150.74
-125.89
-91.43
-52.77
-17.98
4.08
6.65
-12.09
-47.51
-89.33
-124.78
-142.88
-138.19
-112.34
-72.93
-30.35
6.02
30.43
41.68
42.16
35.96
27.16
18.81
12.92
11.03
14.40
23.68
38.03
54.55
68.71
75.96
73.63
62.26
45.58
28.88
16.94
12.27
14.60
21.70
30.65
38.99
45.19
48.54
48.84
46.24
41.27
34.76
27.51
19.82
11.19
0.45
-13.64
-31.71
-53.21
-76.36
-98.63
-117.48
-131.24
-139.52
-143.34
-144.63
-145.36
-146.71
-148.64
-149.94
-149.06
-144.94
-137.57
-127.95
-117.37
-106.67
-95.89
-84.55
-72.22
-59.10
-46.02
-34.00
-23.60
-14.67
-6.52
1.58
9.85
17.88
24.95
30.41
34.12
36.46
38.12
39.67
41.32
42.83
43.73
43.56
42.08
39.34
35.68
31.59
27.66
24.48
22.44
21.49
21.00
19.80
16.46
9.89
-0.22
-13.14
-27.26
-40.66
-51.57
-58.66
-61.03
-57.93
-48.72
-32.94
-10.71
16.78
47.04
76.34
100.36
115.14
118.16
109.18
90.57
66.78
43.10
24.14
12.60
8.97
11.98
19.73
30.60
43.78
59.21
77.23
98.15
121.90
147.46
172.60
193.77
206.82
208.38
197.73
177.83
154.71
135.08
123.09
118.02
114.16
103.32
78.76
38.51
-13.50
-69.16
-119.64
-158.82
-184.96
-200.10
-207.82
-210.93
-210.24
-204.95
-194.05
-177.74
-157.88
-137.48
-119.35
-104.96
-93.93
-84.49
-74.54
-62.75
-49.20
-35.30
-23.19
-14.72
-10.75
-10.86
-13.77
-17.87
-21.84
-24.92
-26.80
-27.40
-26.64
-24.50
-21.07
-16.81
-12.47
-8.92
-6.78
-6.09
-6.08
-5.13
-1.07
8.21
23.78
45.02
69.46
93.58
114.17
129.57
140.08
147.31
152.93
157.72
161.47
163.75
164.84
166.18
169.86
177.41
188.69
201.52
212.48
218.41
217.65
210.58
199.18
185.89
172.56
159.89
147.64
135.20
122.14
108.35
93.72
77.51
58.03
32.85
-0.32
-42.24
-91.04
-141.73
-186.86
-218.30
-229.40
-217.01
-182.42
-131.02
-71.03
-11.66
38.55
73.19
89.03
86.45
69.39
44.39
18.95
-0.44
-10.06
-9.70
-2.37
6.92
12.77
10.87
-1.12
-23.18
-53.19
-87.49
-121.79
-152.02
-174.95
-188.48
-191.58
-184.31
-167.99
-145.46
-120.88
-98.83
-82.98
-74.73
-72.47
-72.19
-69.06
-59.27
-41.50
-17.36
9.37
33.93
52.07
61.10
60.58
52.37
40.19
28.55
21.30
20.35
25.16
33.15
40.88
45.19
43.84
35.66
20.39
-1.45
-28.47
-58.35
-88.07
-114.43
-134.66
-146.95
-150.81
-147.07
-137.62
-124.92
-111.14
-97.11
-81.53
-61.34
-33.30
3.31
44.66
82.38
106.31
108.65
87.54
47.88
-0.82
-48.33
-87.20
-113.91
-127.98
-130.04
-120.65
-100.59
-72.06
-39.69
-9.97
10.74
18.68
14.17
1.17
-14.64
-28.44
-37.99
-43.76
-47.74
-51.78
-56.40
-60.85
-64.13
-66.11
-68.11
-72.29
-80.41
-92.54
-106.55
-118.77
-125.40
-124.04
-114.56
-99.10
-81.08
-63.85
-49.52
-38.43
-29.44
-20.72
-10.79
1.10
14.85
30.01
46.16
62.97
80.01
96.36
110.44
120.44
124.91
123.50
117.28
108.46
99.68
93.21
90.52
92.13
97.85
106.71
116.77
124.98
127.20
118.90
96.12
56.64
0.76
-68.43
-145.30
-222.27
-290.96
-343.52
-374.22
-380.67
-364.45
-330.63
-286.66
-240.57
-199.12
-166.58
-143.95
-129.17
-118.08
-106.03
-89.77
-68.81
-45.51
-23.76
-6.71
4.95
13.41
22.34
34.71
51.14
69.68
87.10
100.64
109.16
113.24
114.32
113.76
112.41
110.83
109.65
109.65
111.30
114.14
116.69
117.01
113.67
106.51
96.71
86.22
76.93
70.01
65.72
63.48
61.94
59.25
53.38
42.79
27.16
7.73
-13.21
-33.48
-52.13
-69.89
-88.36
-108.41
-128.88
-146.48
-157.27
-158.79
-151.56
-139.12
-126.36
-117.19
-112.55
-110.08
-105.27
-93.72
-73.12
-44.22
-10.45
23.64
53.99
78.14
95.33
105.83
110.14
108.74
102.50
93.12
83.37
76.32
74.19
77.19
83.27
89.08
91.50
89.25
83.30
76.29
70.98
68.85
69.41
70.59
69.85
65.46
57.20
46.36
35.12
25.55
18.85
14.97
12.72
10.30
6.01
-1.02
-10.32
-20.14
-27.75
-30.25
-25.49
-12.83
6.52
29.82
53.68
75.24
92.99
106.93
117.91
126.72
133.52
137.91
139.57
138.87
136.91
134.94
133.45
131.76
128.35
121.95
112.51
101.42
90.78
82.09
75.23
68.46
59.42
46.63
30.46
13.07
-2.76
-15.14
-24.12
-31.55
-39.77
-50.07
-61.57
-71.42
-76.13
-73.36
-63.30
-48.84
-34.52
-24.82
-22.57
-28.19
-39.97
-54.99
-70.34
-83.73
-93.55
-98.45
-97.01
-88.03
-71.23
-48.12
-22.31
1.21
17.56
23.66
19.36
7.59
-6.61
-17.59
-20.82
-14.23
1.08
21.22
40.65
54.11
58.24
52.53
39.10
21.79
5.01
-6.92
-10.18
-2.00
18.40
48.82
83.61
114.93
135.20
140.10
130.13
110.03
86.12
63.42
44.03
27.50
12.67
-0.59
-11.04
-17.05
-18.04
-15.34
-11.72
-9.98
-11.57
-16.11
-21.86
-26.70
-28.90
-27.16
-20.46
-7.75
11.57
36.81
65.39
93.01
114.76
126.65
126.80
115.63
95.10
67.59
35.46
1.11
-32.48
-61.80
-83.71
-96.69
-101.60
-101.19
-98.51
-95.23
-90.98
-84.07
-72.93
-57.36
-38.63
-18.72
0.57
17.86
31.88
41.04
43.81
39.88
31.06
21.19
14.59
13.82
18.43
25.19
30.03
30.08
25.01
16.56
7.15
-1.27
-7.34
-9.29
-4.27
10.98
38.13
75.10
115.43
150.12
171.23
175.24
164.34
144.77
123.51
104.95
89.67
75.59
60.40
43.76
27.70
15.40
9.01
8.35
10.90
13.05
11.89
6.49
-1.96
-11.13
-18.93
-24.56
-28.75
-33.05
-38.80
-46.26
-54.48
-61.72
-66.29
-67.15
-63.92
-56.40
-43.95
-25.32
0.80
34.48
73.33
112.13
143.78
161.52
161.20
142.69
109.39
66.67
19.75
-27.60
-73.06
-114.87
-150.88
-178.48
-195.42
-201.09
-197.26
-187.65
-176.70
-167.97
-163.15
-161.86
-162.42
-162.68
-160.87
-155.95
-147.49
-135.62
-120.81
-103.89
-85.92
-67.90
-50.59
-34.34
-19.15
-4.91
8.32
20.17
29.68
35.40
35.55
28.52
13.52
-9.00
-37.23
-68.35
-99.18
-126.86
-149.21
-164.89
-173.16
-173.83
-167.22
-154.32
-136.77
-116.59
-95.70
-75.47
-56.46
-38.63
-21.62
-5.19
10.52
24.91
37.08
46.15
51.59
53.42
52.20
48.86
44.43
39.83
35.76
32.63
30.64
29.84
30.22
31.68
34.07
36.99
39.88
41.99
42.67
41.62
39.02
35.51
31.83
28.52
25.61
22.65
18.94
13.95
7.49
-0.28
-9.04
-18.49
-28.36
-38.27
-47.64
-55.60
-61.26
-63.98
-63.61
-60.54
-55.46
-49.17
-42.26
-35.05
-27.61
-19.85
-11.57
-2.66
6.66
15.74
23.41
28.49
30.34
29.47
27.58
26.98
29.54
35.78
44.57
53.68
60.87
64.86
65.62
63.94
60.68
56.22
50.55
43.84
36.84
30.99
27.74
27.79
30.66
34.80
38.38
40.12
39.77
38.08
36.34
35.82
37.43
41.45
47.40
53.91
58.84
59.75
54.84
43.95
29.04
13.84
2.62
-1.33
3.20
15.19
31.95
49.99
65.79
76.05
78.25
71.17
55.75
35.25
14.70
-0.78
-7.92
-6.50
0.78
9.78
16.90
20.45
20.85
19.70
18.48
17.71
16.83
14.82
11.02
5.54
-0.66
-6.31
-10.39
-12.67
-13.82
-15.00
-17.39
-21.61
-27.57
-34.63
-42.00
-49.10
-55.65
-61.62
-66.95
-71.62
-75.63
-79.20
-82.79
-86.87
-91.52
-96.18
-99.62
-100.31
-97.05
-89.58
-78.67
-66.02
-53.56
-42.81
-34.55
-28.67
-24.60
-21.63
-19.23
-17.35
-16.51
-17.79
-22.51
-31.60
-44.79
-60.19
-74.57
-84.47
-87.54
-83.56
-74.30
-62.46
-50.28
-38.64
-27.25
-15.55
-3.60
7.61
16.76
23.09
26.99
29.77
32.95
37.47
43.26
49.46
54.92
58.70
60.44
60.28
58.74
56.43
53.81
50.97
47.69
43.73
39.30
35.43
33.96
36.79
44.81
57.00
70.44
81.25
86.11
83.68
74.90
62.33
48.84
36.64
27.02
20.85
19.03
22.46
31.46
45.05
60.78
75.41
86.19
91.74
92.31
89.35
84.86
80.90
79.25
80.96
85.73
91.43
94.46
91.05
79.13
59.64
36.35
14.25
-2.55
-12.47
-16.40
-16.68
-16.09
-17.30
-23.00
-35.93
-57.99
-88.89
-125.03
-159.95
-186.18
-197.87
-192.79
-172.74
-142.39
-107.29
-72.25
-40.62
-14.46
4.98
17.04
21.76
20.32
14.95
8.62
4.11
3.08
5.53
9.81
13.38
13.95
10.53
3.86
-3.82
-9.71
-11.63
-8.81
-2.05
6.78
15.57
22.66
27.15
28.84
27.96
24.90
20.19
14.48
8.69
3.99
1.62
2.65
7.67
16.53
28.21
40.81
51.65
57.80
56.84
47.71
31.31
10.47
-10.83
-28.80
-40.99
-47.03
-48.28
-46.82
-44.19
-40.73
-35.64
-27.88
-17.19
-4.60
7.75
17.55
23.15
24.27
21.85
17.67
13.63
11.24
11.17
13.01
15.27
15.59
11.44
0.95
-16.04
-37.53
-59.58
-77.44
-87.19
-87.14
-78.28
-63.78
-47.43
-32.20
-19.42
-9.08
-0.81
5.08
7.56
5.64
-0.45
-8.78
-16.35
-20.65
-21.15
-19.77
-19.94
-24.87
-35.85
-51.56
-68.64
-82.93
-90.94
-90.82
-82.63
-68.16
-50.31
-32.09
-15.76
-2.08
9.70
21.25
34.08
48.46
63.13
75.82
84.30
87.47
85.80
80.92
74.80
68.90
63.75
59.16
54.68
50.15
45.92
42.65
40.96
40.97
42.09
43.23
43.15
40.90
35.99
28.45
18.59
6.81
-6.49
-20.89
-35.89
-50.84
-65.03
-77.80
-88.60
-96.98
-102.63
-105.51
-106.08
-105.58
-105.75
-108.29
-113.91
-121.70
-129.12
-132.78
-129.75
-118.70
-100.45
-77.54
-53.15
-29.95
-9.40
8.35
23.89
37.85
50.40
61.17
69.52
75.00
77.64
77.99
76.97
75.53
74.41
74.03
74.53
75.86
77.86
80.23
82.47
83.91
83.82
81.61
77.13
70.76
63.41
56.27
50.48
46.82
45.53
46.35
48.61
51.48
54.22
56.27
57.38
57.63
57.38
57.23
57.91
60.06
64.13
70.18
77.96
86.99
96.88
107.41
118.59
130.44
142.71
154.64
164.96
172.02
174.15
170.00
158.86
141.04
118.11
92.87
68.88
49.59
37.07
31.34
30.23
30.32
28.39
22.77
13.77
3.17
-7.00
-15.56
-22.56
-28.77
-34.86
-41.02
-47.24
-54.00
-62.58
-74.56
-90.77
-110.27
-130.27
-147.07
-157.57
-160.54
-156.77
-148.30
-137.15
-124.51
-110.58
-95.13
-78.06
-59.76
-41.02
-22.90
-6.60
6.56
15.26
18.58
16.54
10.25
1.69
-7.03
-14.42
-19.95
-23.75
-26.03
-26.48
-24.29
-18.64
-9.43
2.36
14.98
26.71
36.77
45.61
54.36
63.93
74.05
83.20
89.25
90.72
87.71
81.95
75.84
71.02
67.00
61.03
49.15
28.23
-2.17
-38.99
-76.44
-108.12
-129.35
-138.63
-137.62
-129.74
-118.23
-104.81
-89.61
-72.12
-52.50
-32.28
-14.00
-0.06
8.54
12.63
14.42
16.28
19.64
24.44
29.52
33.41
35.28
35.30
34.45
33.90
34.36
35.75
37.42
38.58
38.85
38.48
38.14
38.48
39.57
40.67
40.29
36.69
28.51
15.44
-1.48
-19.96
-37.09
-50.16
-57.52
-58.98
-55.71
-49.67
-42.85
-36.81
-32.52
-30.68
-31.96
-36.98
-45.94
-58.07
-71.38
-82.96
-89.86
-90.00
-82.90
-69.69
-52.68
-34.52
-17.50
-2.97
8.76
18.34
26.95
35.66
44.81
53.61
60.38
63.24
61.19
54.83
46.27
38.17
32.31
28.64
25.35
20.02
11.23
