1653568161.00
64.000000
-0.00
-0.00
-0.00
-0.00
-0.00
-0.00
-0.00
-0.00
-0.00
-0.00
0.00
0.01
0.01
-0.00
-0.03
-0.05
-0.05
0.00
0.13
0.36
0.66
1.01
1.37
1.72
2.06
2.40
2.79
3.24
3.80
4.42
5.06
5.67
6.21
6.69
7.15
7.68
8.30
9.13
10.09
11.07
11.94
12.63
13.16
13.69
14.42
15.52
17.26
19.47
21.92
24.31
26.46
28.39
30.39
32.88
36.18
40.72
46.18
52.09
57.82
62.98
67.53
71.89
76.73
82.63
90.22
99.11
108.59
117.70
125.74
132.52
138.48
144.90
150.60
158.12
168.37
181.62
196.60
210.09
217.30
213.20
194.33
160.03
113.23
58.35
0.08
-58.43
-116.14
-173.54
-231.37
-289.56
-346.87
-401.10
-450.48
-493.77
-530.37
-559.86
-581.57
-594.52
-597.73
-590.70
-573.27
-545.67
-507.65
-458.34
-396.77
-322.99
-239.13
-149.69
-60.68
22.06
94.21
153.80
200.86
236.46
261.82
278.01
286.13
287.64
284.46
278.47
271.02
262.58
252.91
241.40
227.71
212.11
195.40
178.70
162.97
148.76
136.12
124.67
113.87
103.28
92.70
82.25
72.25
63.04
54.88
47.80
41.59
35.85
30.18
24.32
18.25
12.36
7.06
2.76
-0.30
-2.18
-3.21
-3.84
-4.47
-5.34
-6.40
-7.47
-8.31
-8.79
-8.94
-8.92
-8.86
-8.82
-8.72
-8.42
-7.87
-7.10
-6.31
-5.71
-5.44
-5.48
-5.65
-5.73
-5.61
-5.31
-4.98
-4.72
-4.54
-4.27
-3.72
-2.81
-1.71
-0.73
-0.25
-0.44
-1.21
-2.17
-2.91
-3.11
-2.76
-2.11
-1.50
-1.21
-1.31
-1.68
-2.10
-2.35
-2.36
-2.16
-1.87
-1.62
-1.48
-1.43
-1.39
-1.28
-1.08
-0.85
-0.65
-0.54
-0.49
-0.43
-0.30
-0.03
0.34
0.73
1.03
1.12
1.00
0.72
0.43
0.27
0.36
0.75
1.36
2.08
2.74
3.22
3.49
3.59
3.63
3.71
3.88
4.07
4.19
4.09
3.72
3.09
2.29
1.41
0.50
-0.43
-1.40
-2.39
-3.37
-4.25
-4.92
-5.36
-5.57
-5.65
-5.64
-5.57
-5.41
-5.10
-4.60
-3.96
-3.27
-2.66
-2.28
-2.14
-2.22
-2.42
-2.61
-2.72
-2.71
-2.57
-2.36
-2.11
-1.87
-1.64
-1.43
-1.22
-1.01
-0.80
-0.61
-0.49
-0.42
-0.39
-0.30
-0.11
0.19
0.58
0.93
1.13
1.13
0.93
0.61
0.26
-0.01
-0.14
-0.13
-0.00
0.20
0.45
0.67
0.83
0.87
0.80
0.68
0.63
0.72
0.99
1.42
1.91
2.30
2.50
2.46
2.26
2.00
1.75
1.51
1.24
0.81
0.20
-0.56
-1.36
-2.01
-2.38
-2.41
-2.16
-1.79
-1.46
-1.32
-1.39
-1.60
-1.82
-1.98
-2.05
-2.08
-2.12
-2.18
-2.19
-2.06
-1.76
-1.34
-1.00
-0.95
-1.34
-2.14
-3.16
-4.14
-4.86
-5.21
-5.20
-4.91
-4.41
-3.72
-2.82
-1.73
-0.50
0.74
1.85
2.73
3.34
3.76
4.04
4.26
4.42
4.49
4.45
4.30
4.07
3.82
3.58
3.34
3.03
2.62
2.10
1.56
1.09
0.75
0.53
0.35
0.11
-0.25
-0.68
-1.07
-1.29
-1.33
-1.24
-1.16
-1.21
-1.40
-1.65
-1.82
-1.83
-1.63
-1.28
-0.84
-0.34
0.22
0.87
1.58
2.24
2.69
2.78
2.46
1.80
1.00
0.25
-0.32
-0.70
-0.92
-1.05
-1.11
-1.08
-0.93
-0.65
-0.31
-0.01
0.16
0.14
-0.00
-0.20
-0.36
-0.42
-0.37
-0.26
-0.15
-0.12
-0.23
-0.50
-0.91
-1.37
-1.77
-2.02
-2.05
-1.85
-1.47
-0.94
-0.35
0.23
0.72
1.04
1.15
1.08
0.89
0.71
0.62
0.65
0.73
0.74
0.56
0.17
-0.35
-0.82
-1.06
-0.95
-0.51
0.13
0.76
1.22
1.40
1.33
1.09
0.81
0.53
0.28
0.04
-0.22
-0.47
-0.72
-0.94
-1.16
-1.45
-1.82
-2.25
-2.58
-2.66
-2.37
-1.74
-0.92
-0.15
0.41
0.71
0.83
0.88
0.91
0.93
0.90
0.82
0.74
0.69
0.70
0.72
0.66
0.47
0.14
-0.26
-0.62
-0.85
-0.91
-0.80
-0.58
-0.31
-0.08
0.03
-0.00
-0.20
-0.51
-0.88
-1.25
-1.57
-1.80
-1.92
-1.95
-1.91
-1.81
-1.65
-1.45
-1.21
-0.94
-0.69
-0.49
-0.31
-0.12
0.12
0.44
0.78
1.05
1.16
1.06
0.81
0.48
0.17
-0.07
-0.22
-0.29
-0.24
-0.07
0.21
0.54
0.83
0.96
0.91
0.67
0.34
0.01
-0.24
-0.38
-0.45
-0.53
-0.71
-1.08
-1.63
-2.28
-2.88
-3.25
-3.25
-2.85
-2.14
-1.31
-0.53
0.05
0.39
0.54
0.59
0.66
0.82
1.08
1.40
1.64
1.72
1.55
1.14
0.62
0.15
-0.13
-0.15
0.03
0.24
0.34
0.24
-0.05
-0.40
-0.67
-0.77
-0.70
-0.54
-0.44
-0.53
-0.83
-1.31
-1.88
-2.43
-2.87
-3.14
-3.17
-2.93
-2.34
-1.44
-0.34
0.78
1.68
2.20
2.31
2.13
1.83
1.59
1.49
1.51
1.55
1.53
1.44
1.33
1.24
1.19
1.14
1.06
0.93
0.79
0.69
0.65
0.62
0.49
0.18
-0.29
-0.87
-1.44
-1.91
-2.28
-2.60
-2.95
-3.33
-3.74
-4.06
-4.21
-4.09
-3.65
-2.89
-1.88
-0.77
0.25
1.01
1.41
1.47
1.29
1.05
0.90
0.93
1.15
1.47
1.78
1.95
1.95
1.80
1.57
1.39
1.31
1.33
1.39
1.39
1.31
1.17
1.06
1.05
1.15
1.30
1.39
1.37
1.21
0.97
0.70
0.39
-0.03
-0.64
-1.49
-2.49
-3.50
-4.30
-4.76
-4.80
-4.44
-3.73
-2.77
-1.64
-0.47
0.62
1.52
2.15
2.52
2.69
2.75
2.75
2.67
2.48
2.16
1.76
1.41
1.20
1.17
1.27
1.39
1.43
1.35
1.22
1.16
1.25
1.51
1.84
2.11
2.21
2.10
1.85
1.51
1.15
0.76
0.32
-0.20
-0.76
-1.30
-1.72
-2.02
-2.24
-2.48
-2.82
-3.30
-3.88
-4.42
-4.78
-4.81
-4.41
-3.59
-2.42
-1.06
0.28
1.45
2.31
2.85
3.12
3.23
3.25
3.26
3.24
3.19
3.09
2.96
2.84
2.79
2.81
2.88
2.92
2.88
2.75
2.60
2.49
2.48
2.55
2.62
2.62
2.53
2.37
2.20
2.04
1.85
1.58
1.21
0.77
0.35
0.04
-0.13
-0.22
-0.32
-0.56
-0.97
-1.55
-2.22
-2.91
-3.54
-4.07
-4.46
-4.65
-4.56
-4.10
-3.25
-2.07
-0.71
0.65
1.81
2.67
3.21
3.47
3.50
3.36
3.10
2.74
2.33
1.94
1.63
1.45
1.39
1.42
1.50
1.58
1.63
1.61
1.52
1.37
1.19
1.02
0.89
0.82
0.75
0.63
0.38
-0.01
-0.51
-1.02
-1.43
-1.66
-1.70
-1.61
-1.51
-1.48
-1.61
-1.89
-2.30
-2.78
-3.25
-3.61
-3.78
-3.71
-3.36
-2.78
-2.02
-1.16
-0.26
0.62
1.42
2.08
2.54
2.78
2.82
2.76
2.69
2.68
2.72
2.76
2.70
2.51
2.22
1.93
1.75
1.73
1.81
1.89
1.84
1.64
1.31
0.95
0.67
0.50
0.40
0.29
0.12
-0.16
-0.52
-0.90
-1.25
-1.54
-1.76
-1.95
-2.14
-2.35
-2.58
-2.80
-2.98
-3.09
-3.08
-2.93
-2.61
-2.14
-1.58
-1.03
-0.57
-0.19
0.17
0.57
1.03
1.45
1.73
1.75
1.56
1.26
1.01
0.91
0.95
1.03
1.05
0.97
0.83
0.71
0.71
0.87
1.17
1.50
1.73
1.72
1.43
0.86
0.15
-0.52
-0.99
-1.15
-1.05
-0.82
-0.67
-0.77
-1.20
-1.91
-2.71
-3.42
-3.85
-3.92
-3.63
-3.06
-2.31
-1.47
-0.61
0.16
0.77
1.19
1.41
1.52
1.58
1.66
1.77
1.89
2.00
2.08
2.13
2.15
2.10
1.96
1.71
1.37
0.98
0.62
0.33
0.14
0.04
0.01
0.02
0.07
0.12
0.15
0.12
-0.01
-0.28
-0.69
-1.21
-1.73
-2.17
-2.44
-2.54
-2.54
-2.60
-2.79
-3.13
-3.51
-3.72
-3.60
-3.08
-2.25
-1.29
-0.40
0.32
0.84
1.21
1.48
1.62
1.54
1.21
0.66
0.07
-0.35
-0.41
-0.09
0.47
1.06
1.48
1.62
1.53
1.29
1.00
0.72
0.47
0.24
0.02
-0.18
-0.36
-0.56
-0.79
-1.09
-1.44
-1.79
-2.08
-2.25
-2.29
-2.27
-2.29
-2.44
-2.74
-3.10
-3.37
-3.41
-3.17
-2.69
-2.11
-1.53
-1.01
-0.51
0.06
0.71
1.39
1.97
2.34
2.48
2.44
2.37
2.37
2.49
2.69
2.89
2.99
2.95
2.77
2.46
2.07
1.64
1.23
0.87
0.58
0.37
0.21
0.07
-0.06
-0.21
-0.36
-0.51
-0.64
-0.77
-0.90
-1.06
-1.28
-1.59
-2.01
-2.49
-2.97
-3.39
-3.71
-3.96
-4.19
-4.37
-4.43
-4.23
-3.64
-2.68
-1.49
-0.35
0.54
1.11
1.42
1.67
1.97
2.33
2.61
2.69
2.47
2.06
1.64
1.41
1.45
1.70
2.02
2.24
2.28
2.15
1.94
1.72
1.57
1.49
1.44
1.38
1.24
0.98
0.58
0.09
-0.46
-0.97
-1.40
-1.72
-1.97
-2.18
-2.41
-2.70
-3.07
-3.49
-3.93
-4.30
-4.47
-4.35
-3.87
-3.07
-2.09
-1.09
-0.26
0.34
0.72
1.00
1.28
1.63
2.05
2.47
2.82
3.05
3.18
3.25
3.30
3.31
3.26
3.11
2.88
2.62
2.39
2.25
2.18
2.13
2.07
2.00
1.95
1.98
2.11
2.27
2.37
2.27
1.91
1.32
0.61
-0.07
-0.63
-1.08
-1.48
-1.92
-2.41
-2.90
-3.29
-3.47
-3.42
-3.16
-2.75
-2.22
-1.58
-0.80
0.08
0.97
1.73
2.23
2.44
2.43
2.33
2.26
2.25
2.28
2.26
2.16
2.00
1.79
1.57
1.33
1.09
0.87
0.74
0.75
0.93
1.21
1.48
1.64
1.60
1.40
1.09
0.73
0.38
0.06
-0.24
-0.53
-0.84
-1.15
-1.44
-1.68
-1.85
-1.96
-2.10
-2.36
-2.77
-3.25
-3.64
-3.72
-3.37
-2.63
-1.66
-0.70
0.14
0.85
1.48
2.11
2.70
3.09
3.15
2.85
2.30
1.73
1.35
1.28
1.47
1.81
2.12
2.31
2.37
2.33
2.24
2.12
1.97
1.80
1.60
1.36
1.07
0.71
0.25
-0.27
-0.79
-1.21
-1.45
-1.48
-1.36
-1.22
-1.21
-1.46
-1.98
-2.67
-3.40
-4.02
-4.43
-4.56
-4.36
-3.79
-2.85
-1.67
-0.43
0.63
1.35
1.67
1.68
1.54
1.40
1.36
1.42
1.57
1.74
1.87
1.92
1.84
1.66
1.45
1.32
1.34
1.52
1.77
1.95
1.99
1.87
1.66
1.43
1.24
1.08
0.93
0.74
0.50
0.21
-0.13
-0.53
-1.02
-1.58
-2.18
-2.77
-3.29
-3.73
-4.04
-4.19
-4.11
-3.73
-3.07
-2.21
-1.33
-0.59
-0.07
0.25
0.50
0.79
1.16
1.54
1.83
1.92
1.79
1.48
1.10
0.76
0.56
0.54
0.70
0.97
1.27
1.50
1.59
1.53
1.33
1.05
0.78
0.60
0.56
0.67
0.89
1.12
1.24
1.17
0.85
0.33
-0.32
-0.99
-1.61
-2.11
-2.48
-2.73
-2.90
-3.04
-3.23
-3.48
-3.72
-3.83
-3.67
-3.14
-2.28
-1.21
-0.13
0.77
1.42
1.81
2.03
2.18
2.28
2.33
2.26
2.05
1.73
1.39
1.13
1.05
1.13
1.35
1.60
1.84
2.04
2.17
2.23
2.17
1.95
1.58
1.12
0.67
0.32
0.11
0.00
-0.11
-0.33
-0.68
-1.13
-1.57
-1.89
-2.07
-2.17
-2.28
-2.53
-2.94
-3.46
-3.95
-4.26
-4.28
-3.97
-3.41
-2.69
-1.94
-1.22
-0.55
0.08
0.69
1.24
1.68
1.95
2.02
1.95
1.85
1.81
1.85
1.92
1.93
1.80
1.56
1.32
1.20
1.27
1.49
1.74
1.85
1.76
1.45
1.03
0.59
0.20
-0.12
-0.41
-0.68
-0.95
-1.17
-1.33
-1.44
-1.59
-1.86
-2.34
-2.99
-3.69
-4.24
-4.50
-4.38
-3.90
-3.18
-2.31
-1.42
-0.59
0.15
0.76
1.24
1.61
1.88
2.06
2.13
2.09
1.96
1.79
1.66
1.58
1.53
1.43
1.24
0.93
0.58
0.27
0.09
0.06
0.12
0.24
0.35
0.47
0.63
0.83
1.03
1.13
1.04
0.69
0.13
-0.54
-1.19
-1.72
-2.10
-2.35
-2.56
-2.82
-3.18
-3.62
-4.03
-4.30
-4.32
-4.03
-3.49
-2.82
-2.14
-1.53
-0.94
-0.31
0.42
1.21
1.93
2.42
2.59
2.50
2.27
2.05
1.92
1.85
1.77
1.64
1.50
1.42
1.51
1.75
2.06
2.29
2.35
2.21
1.93
1.59
1.23
0.86
0.44
-0.03
-0.53
-1.00
-1.35
-1.56
-1.70
-1.86
-2.13
-2.58
-3.15
-3.72
-4.17
-4.36
-4.27
-3.94
-3.49
-3.00
-2.51
-2.01
-1.44
-0.77
-0.01
0.79
1.55
2.20
2.70
3.01
3.14
3.09
2.88
2.55
2.17
1.83
1.61
1.56
1.66
1.85
2.06
2.19
2.19
2.04
1.76
1.39
0.99
0.62
0.32
0.07
-0.16
-0.41
-0.68
-0.94
-1.15
-1.30
-1.47
-1.78
-2.33
-3.15
-4.07
-4.85
-5.24
-5.07
-4.34
-3.23
-1.98
-0.82
0.14
0.84
1.32
1.66
1.92
2.11
2.25
2.30
2.25
2.12
1.93
1.72
1.54
1.43
1.39
1.41
1.48
1.54
1.58
1.58
1.55
1.51
1.50
1.49
1.47
1.37
1.12
0.73
0.22
-0.32
-0.80
-1.16
-1.40
-1.55
-1.68
-1.86
-2.15
-2.57
-3.10
-3.66
-4.17
-4.51
-4.61
-4.44
-4.01
-3.38
-2.62
-1.79
-0.95
-0.15
0.58
1.23
1.77
2.17
2.39
2.39
2.18
1.81
1.42
1.12
1.01
1.08
1.25
1.41
1.46
1.41
1.33
1.30
1.40
1.56
1.70
1.70
1.47
1.03
0.45
-0.14
-0.65
-1.07
-1.41
-1.72
-2.05
-2.40
-2.77
-3.14
-3.57
-4.09
-4.70
-5.33
-5.82
-5.99
-5.72
-5.01
-3.96
-2.75
-1.51
-0.36
0.63
1.40
1.90
2.10
2.05
1.84
1.59
1.40
1.30
1.29
1.37
1.55
1.87
2.30
2.78
3.17
3.39
3.40
3.31
3.23
3.25
3.39
3.55
3.61
3.47
3.12
2.61
2.00
1.36
0.68
-0.06
-0.86
-1.70
-2.52
-3.28
-3.94
-4.55
-5.20
-5.95
-6.83
-7.76
-8.60
-9.16
-9.32
-9.04
-8.42
-7.60
-6.73
-5.92
-5.19
-4.52
-3.91
-3.32
-2.78
-2.28
-1.88
-1.59
-1.43
-1.37
-1.31
-1.10
-0.62
0.14
1.13
2.18
3.08
3.70
4.01
4.08
4.02
3.89
3.72
3.46
3.07
2.53
1.87
1.16
0.49
-0.08
-0.57
-1.04
-1.60
-2.34
-3.30
-4.42
-5.58
-6.63
-7.43
-7.90
-7.97
-7.60
-6.72
-5.32
-3.43
-1.23
1.02
3.00
4.44
5.24
5.48
5.34
5.05
4.78
4.57
4.41
4.24
4.09
3.99
4.03
4.26
4.65
5.08
5.39
5.45
5.28
4.98
4.71
4.59
4.58
4.55
4.31
3.74
2.88
1.94
1.15
0.71
0.63
0.73
0.73
0.38
-0.43
-1.65
-3.07
-4.49
-5.69
-6.58
-7.09
-7.14
-6.67
-5.64
-4.11
-2.24
-0.30
1.46
2.84
3.78
4.35
4.62
4.67
4.56
4.34
4.06
3.80
3.65
3.65
3.77
3.94
4.09
4.17
4.16
4.11
4.04
3.97
3.89
3.77
3.62
3.46
3.29
3.08
2.73
2.15
1.31
0.25
-0.85
-1.78
-2.42
-2.77
-3.00
-3.31
-3.86
-4.70
-5.77
-6.87
-7.76
-8.22
-8.08
-7.26
-5.86
-4.08
-2.19
-0.42
1.08
2.33
3.40
4.35
5.13
5.61
5.71
5.44
4.94
4.44
4.08
3.89
3.74
3.48
3.04
2.50
2.00
1.69
1.58
1.60
1.59
1.48
1.26
1.03
0.93
1.02
1.28
1.62
1.94
2.14
2.20
2.09
1.87
1.58
1.32
1.14
1.06
0.98
0.78
0.31
-0.50
-1.61
-2.85
-3.99
-4.81
-5.17
-5.01
-4.34
-3.23
-1.80
-0.19
1.39
2.71
3.64
4.17
4.40
4.49
4.59
4.71
4.80
4.76
4.55
4.24
3.95
3.80
3.84
4.02
4.25
4.45
4.58
4.67
4.74
4.80
4.81
4.73
4.50
4.11
3.58
2.98
2.33
1.69
1.08
0.53
0.05
-0.39
-0.79
-1.22
-1.72
-2.31
-3.01
-3.79
-4.60
-5.31
-5.79
-5.83
-5.29
-4.14
-2.46
-0.47
1.54
3.30
4.61
5.40
5.69
5.53
5.02
4.30
3.53
2.89
2.48
2.31
2.28
2.25
2.11
1.86
1.56
1.33
1.22
1.21
1.21
1.12
0.93
0.66
0.39
0.17
0.02
-0.09
-0.23
-0.39
-0.58
-0.79
-1.01
-1.25
-1.51
-1.79
-2.07
-2.37
-2.69
-3.06
-3.48
-3.95
-4.44
-4.87
-5.16
-5.23
-5.01
-4.50
-3.70
-2.71
-1.60
-0.44
0.70
1.76
2.69
3.42
3.92
4.15
4.10
3.77
3.21
2.51
1.82
1.32
1.17
1.39
1.89
2.46
2.89
3.07
2.95
2.61
2.11
1.56
1.08
0.79
0.85
1.32
2.11
3.00
3.67
3.90
3.62
2.94
2.09
1.26
0.52
-0.11
-0.70
-1.30
-1.91
-2.52
-3.13
-3.72
-4.26
-4.68
-4.91
-4.89
-4.62
-4.20
-3.76
-3.43
-3.29
-3.32
-3.41
-3.46
-3.31
-2.90
-2.16
-1.09
0.26
1.79
3.30
4.59
5.46
5.80
5.63
5.03
4.17
3.22
2.30
1.50
0.83
0.29
-0.18
-0.67
-1.22
-1.87
-2.59
-3.28
-3.87
-4.27
-4.48
-4.55
-4.58
-4.65
-4.78
-5.01
-5.29
-5.54
-5.71
-5.75
-5.62
-5.35
-4.97
-4.51
-4.01
-3.48
-2.95
-2.45
-2.01
-1.66
-1.42
-1.25
-1.09
-0.88
-0.58
-0.22
0.18
0.56
0.89
1.13
1.26
1.29
1.22
1.12
1.03
1.00
1.05
1.15
1.23
1.23
1.14
0.96
0.74
0.49
0.20
-0.16
-0.63
-1.19
-1.77
-2.30
-2.70
-2.96
-3.06
-3.01
-2.79
-2.40
-1.88
-1.27
-0.61
0.05
0.68
1.28
1.82
2.25
2.50
2.57
2.49
2.38
2.35
2.43
2.57
2.66
2.60
2.35
1.94
1.49
1.08
0.79
0.70
0.80
1.07
1.42
1.68
1.71
1.43
0.92
0.32
-0.19
-0.52
-0.71
-0.88
-1.16
-1.60
-2.15
-2.73
-3.22
-3.55
-3.69
-3.61
-3.29
-2.73
-1.98
-1.15
-0.40
0.18
0.53
0.69
0.75
0.83
1.03
1.37
1.80
2.21
2.46
2.47
2.22
1.81
1.37
1.03
0.88
0.89
0.99
1.08
1.10
1.05
0.92
0.73
0.45
0.07
-0.39
-0.84
-1.20
-1.40
-1.47
-1.49
-1.57
-1.78
-2.12
-2.52
-2.87
-3.13
-3.30
-3.41
-3.44
-3.32
-2.95
-2.26
-1.36
-0.41
0.37
0.84
1.01
1.01
1.00
1.03
1.07
1.03
0.84
0.58
0.37
0.35
0.55
0.88
1.15
1.22
1.07
0.78
0.51
0.37
0.37
0.47
0.60
0.73
0.82
0.88
0.86
0.72
0.44
0.02
-0.51
-1.07
-1.62
-2.15
-2.68
-3.19
-3.63
-3.90
-3.91
-3.59
-2.98
-2.18
-1.34
-0.63
-0.14
0.13
0.24
0.32
0.45
0.63
0.83
0.99
1.06
1.06
1.03
1.02
1.03
1.00
0.87
0.61
0.29
0.02
-0.08
0.03
0.28
0.52
0.61
0.47
0.13
-0.31
-0.70
-0.97
-1.09
-1.12
-1.11
-1.14
-1.26
-1.51
-1.93
-2.50
-3.14
-3.71
-4.03
-3.96
-3.46
-2.60
-1.54
-0.48
0.43
1.12
1.60
1.93
2.15
2.28
2.30
2.21
2.06
1.90
1.78
1.71
1.63
1.50
1.26
0.95
0.68
0.58
0.69
0.98
1.32
1.57
1.67
1.65
1.61
1.61
1.60
1.45
1.03
0.32
-0.55
-1.42
-2.15
-2.73
-3.25
-3.80
-4.40
-4.92
-5.19
-5.05
-4.49
-3.60
-2.57
-1.53
-0.61
0.17
0.77
1.18
1.41
1.50
1.47
1.38
1.26
1.12
0.97
0.83
0.75
0.76
0.87
1.09
1.35
1.57
1.68
1.66
1.53
1.34
1.14
0.95
0.76
0.56
0.34
0.11
-0.08
-0.24
-0.38
-0.56
-0.83
-1.22
-1.72
-2.30
-2.90
-3.45
-3.91
-4.19
-4.22
-3.97
-3.43
-2.65
-1.73
-0.73
0.24
1.11
1.80
2.26
2.47
2.48
2.34
2.14
1.94
1.78
1.67
1.61
1.61
1.66
1.72
1.76
1.70
1.54
1.32
1.11
1.00
1.06
1.25
1.48
1.60
1.53
1.20
0.68
0.08
-0.45
-0.80
-0.95
-0.98
-1.05
-1.29
-1.81
-2.57
-3.46
-4.30
-4.89
-5.09
-4.84
-4.17
-3.18
-2.07
-1.02
-0.20
0.37
0.75
1.07
1.46
1.92
2.34
2.57
2.53
2.24
1.87
1.62
1.62
1.87
2.22
2.52
2.63
2.53
2.28
1.94
1.58
1.21
0.84
0.47
0.15
-0.07
-0.16
-0.14
-0.09
-0.12
-0.31
-0.67
-1.13
-1.65
-2.17
-2.71
-3.27
-3.87
-4.45
-4.90
-5.12
-5.08
-4.76
-4.19
-3.43
-2.49
-1.41
-0.27
0.84
1.84
2.66
3.27
3.66
3.84
3.84
3.69
3.46
3.21
3.04
2.93
2.86
2.78
2.65
2.45
2.22
1.98
1.75
1.54
1.35
1.17
1.01
0.88
0.78
0.71
0.69
0.70
0.71
0.69
0.62
0.48
0.24
-0.11
-0.60
-1.21
-1.92
-2.68
-3.40
-4.04
-4.59
-5.03
-5.33
-5.43
-5.25
-4.75
-3.99
-3.07
-2.14
-1.29
-0.55
0.09
0.66
1.15
1.53
1.76
1.84
1.84
1.81
1.83
1.89
1.97
1.98
1.85
1.58
1.22
0.89
0.69
0.70
0.88
1.10
1.21
1.11
0.80
0.36
-0.08
-0.44
-0.71
-0.95
-1.22
-1.62
-2.16
-2.84
-3.65
-4.56
-5.54
-6.56
-7.57
-8.50
-9.29
-9.94
-10.49
-10.99
-11.44
-11.78
-11.88
-11.60
-10.88
-9.78
-8.48
-7.18
-6.04
-5.07
-4.23
-3.44
-2.65
-1.91
-1.30
-0.93
-0.79
-0.79
-0.73
-0.44
0.21
1.20
2.41
3.64
4.69
5.39
5.70
5.67
5.46
5.24
5.21
5.41
5.79
6.16
6.27
5.94
5.10
3.88
2.48
1.12
-0.08
-1.08
-1.94
-2.73
-3.45
-4.05
-4.42
-4.43
-4.00
-3.15
-1.93
-0.50
0.97
2.36
3.58
4.62
5.47
6.15
6.64
6.90
6.90
6.61
6.10
5.44
4.77
4.21
3.87
3.77
3.90
4.17
4.48
4.75
4.93
4.98
4.88
4.63
4.22
3.67
3.02
2.35
1.71
1.13
0.63
0.18
-0.25
-0.65
-1.02
-1.38
-1.77
-2.24
-2.84
-3.55
-4.31
-5.01
-5.54
-5.78
-5.68
-5.22
-4.39
-3.27
-1.94
-0.56
0.71
1.73
2.44
2.87
3.09
3.19
3.23
3.20
3.05
2.77
2.40
2.04
1.82
1.81
2.01
2.35
2.71
2.99
3.13
3.11
2.97
2.75
2.50
2.28
2.12
2.02
1.95
1.84
1.64
1.31
0.84
0.27
-0.33
-0.93
-1.48
-2.01
-2.54
-3.12
-3.76
-4.42
-4.99
-5.33
-5.30
-4.83
-3.96
-2.82
-1.58
-0.38
0.69
1.59
2.30
2.80
3.05
3.03
2.80
2.46
2.15
2.02
2.12
2.44
2.86
3.26
3.55
3.67
3.64
3.48
3.28
3.09
2.94
2.83
2.72
2.56
2.30
1.93
1.46
0.92
0.35
-0.20
-0.68
-1.08
-1.42
-1.77
-2.22
-2.90
-3.79
-4.80
-5.70
-6.24
-6.23
-5.62
-4.52
-3.13
-1.69
-0.38
0.73
1.62
2.34
2.93
3.40
3.73
3.87
3.79
3.54
3.20
2.90
2.75
2.79
2.98
3.24
3.48
3.68
3.85
4.03
4.16
4.18
3.99
3.55
2.94
2.30
1.79
1.50
1.39
1.33
1.15
0.70
-0.02
-0.89
-1.73
-2.36
-2.71
-2.80
-2.82
-2.96
-3.39
-4.10
-4.96
-5.67
-5.97
-5.66
-4.74
-3.34
-1.67
0.02
1.55
2.78
3.62
4.06
4.12
3.89
3.50
3.08
2.72
2.49
2.42
2.49
2.71
3.05
3.42
3.71
3.83
3.76
3.60
3.49
3.53
3.71
3.87
3.80
3.39
2.66
1.82
1.12
0.72
0.63
0.70
0.69
0.46
-0.04
-0.72
-1.45
-2.11
-2.62
-2.95
-3.16
-3.33
-3.55
-3.90
-4.38
-4.90
-5.31
-5.42
-5.11
-4.35
-3.21
-1.86
-0.50
0.74
1.74
2.47
2.95
3.22
3.32
3.26
3.04
2.70
2.28
1.87
1.57
1.47
1.61
1.95
2.37
2.76
3.05
3.21
3.22
3.10
2.85
2.51
2.13
1.79
1.53
1.38
1.32
1.30
1.27
1.18
1.01
0.74
0.34
-0.19
-0.82
-1.47
-2.04
-2.42
-2.56
-2.51
-2.42
-2.48
-2.87
-3.63
-4.65
-5.68
-6.38
-6.49
-5.87
-4.63
-3.06
-1.53
-0.33
0.43
0.83
1.04
1.24
1.46
1.66
1.76
1.70
1.54
1.38
1.33
1.41
1.58
1.75
1.86
1.89
1.89
1.88
1.87
1.83
1.74
1.60
1.46
1.37
1.38
1.47
1.56
1.54
1.35
0.97
0.51
0.07
-0.26
-0.46
-0.59
-0.75
-1.00
-1.36
-1.79
-2.21
-2.57
-2.88
-3.20
-3.62
-4.14
-4.70
-5.17
-5.38
-5.19
-4.57
-3.61
-2.44
-1.22
-0.11
0.80
1.47
1.90
2.10
2.12
2.03
1.88
1.75
1.66
1.66
1.72
1.80
1.84
1.77
1.57
1.29
1.05
0.94
1.01
1.22
1.46
1.61
1.60
1.45
1.24
1.07
1.01
1.03
1.05
0.96
0.67
0.17
-0.44
-1.02
-1.45
-1.67
-1.74
-1.78
-1.92
-2.24
-2.70
-3.21
-3.71
-4.17
-4.58
-4.95
-5.21
-5.22
-4.87
-4.11
-3.04
-1.84
-0.71
0.21
0.91
1.44
1.87
2.18
2.35
2.31
2.09
1.78
1.53
1.43
1.49
1.64
1.77
1.82
1.77
1.67
1.56
1.49
1.46
1.45
1.42
1.37
1.27
1.10
0.87
0.57
0.24
-0.08
-0.35
-0.60
-0.88
-1.21
-1.58
-1.89
-2.07
-2.08
-2.00
-1.94
-2.03
-2.34
-2.84
-3.44
-4.04
-4.53
-4.86
-4.96
-4.75
-4.20
-3.34
-2.26
-1.13
-0.11
0.69
1.28
1.71
2.05
2.31
2.47
2.48
2.34
2.09
1.85
1.67
1.57
1.53
1.49
1.43
1.37
1.32
1.31
1.30
1.29
1.24
1.18
1.15
1.15
1.12
0.97
0.61
0.06
-0.62
-1.30
-1.87
-2.28
-2.55
-2.72
-2.88
-3.11
-3.48
-4.04
-4.77
-5.56
-6.23
-6.55
-6.36
-5.65
-4.55
-3.28
-2.03
-0.90
0.08
0.94
1.68
2.26
2.65
2.84
2.86
2.77
2.63
2.45
2.20
1.89
1.56
1.26
1.05
0.92
0.85
0.81
0.78
0.78
0.80
0.84
0.88
0.91
0.93
0.97
1.04
1.10
1.08
0.89
0.52
0.03
-0.48
-0.93
-1.30
-1.67
-2.11
-2.68
-3.39
-4.18
-4.96
-5.63
-6.07
-6.17
-5.83
-5.02
-3.84
-2.44
-1.07
0.09
0.92
1.42
1.69
1.84
2.00
2.22
2.46
2.67
2.75
2.62
2.29
1.85
1.44
1.19
1.18
1.36
1.62
1.81
1.81
1.62
1.30
0.92
0.61
0.40
0.31
0.30
0.29
0.19
-0.05
-0.43
-0.92
-1.43
-1.87
-2.24
-2.57
-2.94
-3.42
-4.02
-4.66
-5.22
-5.55
-5.55
-5.15
-4.37
-3.28
-2.00
-0.69
0.50
1.43
2.03
2.31
2.32
2.19
2.02
1.89
1.81
1.75
1.61
1.35
0.95
0.51
0.15
-0.02
0.05
0.29
0.62
0.93
1.15
1.28
1.33
1.29
1.12
0.76
0.18
-0.59
-1.44
-2.21
-2.83
-3.27
-3.61
-3.94
-4.35
-4.86
-5.44
-6.03
-6.57
-6.97
-7.10
-6.83
-6.05
-4.72
-2.93
-0.84
1.30
3.27
4.91
6.11
6.84
7.14
7.08
6.79
6.41
6.03
5.71
5.45
5.19
4.90
4.55
4.18
3.82
3.53
3.35
3.27
3.26
3.26
3.19
3.01
2.66
2.12
1.42
0.59
-0.26
-1.01
-1.53
-1.76
-1.76
-1.66
-1.66
-1.91
-2.44
-3.19
-3.99
-4.68
-5.10
-5.17
-4.86
-4.15
-3.07
-1.73
-0.28
1.06
2.09
2.71
2.90
2.76
2.45
2.10
1.80
1.53
1.27
0.99
0.72
0.53
0.49
0.60
0.81
1.02
1.17
1.26
1.34
1.47
1.63
1.74
1.67
1.37
0.85
0.27
-0.24
-0.56
-0.73
-0.89
-1.25
-1.93
-2.90
-3.99
-4.92
-5.41
-5.30
-4.60
-3.45
-2.05
-0.60
0.75
1.89
2.78
3.36
3.63
3.62
3.43
3.17
2.95
2.82
2.74
2.63
2.39
2.02
1.61
1.30
1.22
1.40
1.73
2.04
2.21
2.15
1.91
1.58
1.19
0.75
0.23
-0.38
-1.02
-1.58
-2.02
-2.33
-2.60
-2.92
-3.37
-3.96
-4.62
-5.26
-5.73
-5.87
-5.54
-4.70
-3.44
-1.98
-0.60
0.47
1.17
1.59
1.85
2.04
2.13
2.06
1.79
1.40
1.07
0.93
1.05
1.36
1.70
1.93
1.98
1.88
1.70
1.50
1.33
1.15
0.94
0.71
0.49
0.31
0.11
-0.17
-0.66
-1.43
-2.47
-3.66
-4.84
-5.83
-6.53
-6.86
-6.82
-6.39
-5.60
-4.51
-3.23
-1.92
-0.72
0.31
1.15
1.85
2.43
2.87
3.11
3.13
2.95
2.70
2.49
2.42
2.51
2.68
2.86
3.00
3.09
3.13
3.13
3.08
2.97
2.79
2.58
2.36
2.12
1.80
1.35
0.74
-0.00
-0.79
-1.55
-2.24
-2.88
-3.50
-4.08
-4.51
-4.63
-4.30
-3.48
-2.27
-0.90
0.38
1.35
1.95
2.24
2.35
2.41
2.47
2.54
2.58
2.61
2.66
2.76
2.95
3.19
3.41
3.56
3.62
3.60
3.57
3.57
3.59
3.57
3.45
3.17
2.73
2.19
1.59
0.99
0.37
-0.29
-0.98
-1.68
-2.33
-2.87
-3.30
-3.67
-4.02
-4.36
-4.61
-4.62
-4.26
-3.47
-2.35
-1.09
0.11
1.14
1.97
2.69
3.36
4.01
4.55
4.87
4.87
4.55
4.02
3.45
3.01
2.80
2.80
2.93
3.07
3.14
3.11
3.00
2.83
2.59
2.27
1.86
1.37
0.85
0.37
-0.02
-0.29
-0.44
-0.50
-0.50
-0.48
-0.49
-0.61
-0.89
-1.37
-2.03
-2.75
-3.37
-3.74
-3.74
-3.35
-2.63
-1.72
-0.76
0.11
0.84
1.42
1.91
2.33
2.69
2.92
2.96
2.76
2.35
1.85
1.40
1.13
1.09
1.28
1.61
1.99
2.34
2.58
2.67
2.56
2.28
1.88
1.46
1.15
1.04
1.11
1.30
1.48
1.54
1.42
1.15
0.80
0.45
0.18
0.02
-0.04
-0.05
-0.10
-0.27
-0.62
-1.13
-1.72
-2.29
-2.73
-3.03
-3.17
-3.23
-3.22
-3.16
-3.02
-2.81
-2.53
-2.21
-1.86
-1.49
-1.09
-0.66
-0.29
-0.08
-0.11
-0.38
-0.80
-1.24
-1.62
-1.90
-2.10
-2.23
-2.25
-2.13
-1.86
-1.54
-1.33
-1.38
-1.76
-2.38
-3.05
-3.57
-3.84
-3.88
-3.80
-3.71
-3.70
-3.80
-3.99
-4.24
-4.56
-4.94
-5.39
-5.85
-6.26
-6.51
-6.53
-6.32
-5.94
-5.48
-4.99
-4.49
-3.93
-3.23
-2.32
-1.10
0.50
2.52
4.94
7.62
10.32
12.75
14.68
15.97
16.66
16.87
16.77
16.49
16.12
15.66
15.11
14.40
13.48
12.32
10.89
9.21
7.33
5.34
3.35
1.53
0.01
-1.11
-1.84
-2.29
-2.64
-3.01
-3.43
-3.81
-4.00
-3.91
-3.56
-3.08
-2.65
-2.40
-2.37
-2.51
-2.75
-3.05
-3.38
-3.78
-4.24
-4.72
-5.17
-5.54
-5.81
-5.97
-6.00
-5.88
-5.57
-5.01
-4.21
-3.22
-2.14
-1.11
-0.26
0.33
0.61
0.61
0.42
0.17
-0.03
-0.10
-0.04
0.07
0.15
0.12
-0.02
-0.19
-0.31
-0.32
-0.23
-0.11
-0.05
-0.10
-0.24
-0.41
-0.51
-0.50
-0.39
-0.28
-0.26
-0.42
-0.78
-1.26
-1.75
-2.14
-2.34
-2.33
-2.19
-2.03
-2.01
-2.23
-2.75
-3.52
-4.37
-5.15
-5.65
-5.76
-5.43
-4.70
-3.64
-2.39
-1.10
0.07
0.98
1.54
1.75
1.64
1.32
0.88
0.44
0.07
-0.17
-0.23
-0.12
0.09
0.31
0.43
0.42
0.30
0.17
0.15
0.28
0.51
0.72
0.78
0.61
0.25
-0.20
-0.63
-0.94
-1.12
-1.22
-1.30
-1.40
-1.52
-1.62
-1.68
-1.72
-1.80
-1.98
-2.30
-2.70
-3.10
-3.39
-3.50
-3.45
-3.28
-3.01
-2.65
-2.11
-1.35
-0.43
0.53
1.32
1.81
2.00
1.97
1.86
1.77
1.67
1.50
1.25
0.97
0.78
0.77
0.94
1.19
1.37
1.34
1.09
0.74
0.43
0.29
0.38
0.66
1.02
1.32
1.46
1.37
1.06
0.56
-0.04
-0.65
-1.19
-1.61
-1.88
-1.98
-1.93
-1.81
-1.73
-1.81
-2.15
-2.76
-3.51
-4.21
-4.61
-4.58
-4.07
-3.20
-2.11
-1.01
-0.02
0.77
1.37
1.77
2.03
2.17
2.19
2.10
1.88
1.57
1.20
0.83
0.50
0.23
0.03
-0.08
-0.09
0.01
0.21
0.46
0.68
0.81
0.82
0.76
0.66
0.59
0.55
0.54
0.55
0.58
0.60
0.59
0.48
0.24
-0.13
-0.58
-1.05
-1.52
-2.00
-2.51
-2.96
-3.18
-2.99
-2.29
-1.18
0.08
1.18
1.89
2.16
2.13
1.98
1.86
1.80
1.75
1.66
1.51
1.34
1.22
1.15
1.13
1.10
1.04
0.96
0.88
0.80
0.71
0.57
0.36
0.11
-0.15
-0.32
-0.36
-0.27
-0.08
0.13
0.31
0.41
0.43
0.34
0.11
-0.24
-0.70
-1.22
-1.76
-2.28
-2.74
-3.12
-3.38
-3.46
-3.27
-2.75
-1.94
-0.92
0.14
1.08
1.79
2.23
2.43
2.42
2.24
1.95
1.58
1.19
0.87
0.71
0.72
0.87
1.08
1.25
1.33
1.30
1.23
1.14
1.08
1.06
1.06
1.08
1.10
1.09
1.04
0.92
0.70
0.36
-0.06
-0.51
-0.90
-1.18
-1.34
-1.44
-1.55
-1.74
-2.04
-2.37
-2.66
-2.79
-2.70
-2.38
-1.87
-1.22
-0.50
0.22
0.88
1.41
1.74
1.82
1.65
1.31
0.93
0.66
0.59
0.70
0.88
0.98
0.92
0.75
0.60
0.58
0.73
0.96
1.16
1.24
1.22
1.18
1.17
1.15
1.04
0.73
0.25
-0.32
-0.82
-1.17
-1.40
-1.57
-1.80
-2.14
-2.55
-2.95
-3.24
-3.36
-3.27
-2.98
-2.51
-1.93
-1.27
-0.59
0.06
0.67
1.23
1.71
2.04
2.18
2.08
1.79
1.42
1.09
0.88
0.80
0.77
0.73
0.64
0.56
0.59
0.75
0.97
1.09
0.92
0.42
-0.33
-1.10
-1.64
-1.82
-1.66
-1.31
-0.95
-0.69
-0.60
-0.63
-0.78
-1.07
-1.55
-2.20
-2.90
-3.44
-3.60
-3.25
-2.44
-1.34
-0.23
0.70
1.36
1.76
1.99
2.12
2.20
2.21
2.14
2.00
1.82
1.65
1.50
1.39
1.28
1.14
0.95
0.72
0.52
0.42
0.49
0.70
0.97
1.16
1.15
0.92
0.54
0.14
-0.17
-0.35
-0.43
-0.51
-0.65
-0.87
-1.16
-1.47
-1.79
-2.14
-2.52
-2.86
-3.05
-2.95
-2.46
-1.62
-0.59
0.39
1.10
1.43
1.44
1.29
1.15
1.11
1.16
1.18
1.06
0.75
0.33
-0.08
-0.36
-0.43
-0.30
-0.07
0.17
0.34
0.40
0.38
0.32
0.26
0.26
0.32
0.42
0.47
0.43
0.27
0.08
-0.03
0.03
0.27
0.53
0.62
0.36
-0.27
-1.14
-2.02
-2.71
-3.12
-3.30
-3.33
-3.22
-2.87
-2.18
-1.13
0.13
1.31
2.13
2.41
2.22
1.78
1.35
1.11
1.03
1.01
0.91
0.71
0.48
0.32
0.34
0.56
0.90
1.26
1.57
1.78
1.89
1.90
1.80
1.58
1.23
0.78
0.31
-0.11
-0.37
-0.42
-0.28
-0.06
0.12
0.14
-0.05
-0.45
-0.98
-1.56
-2.14
-2.66
-3.11
-3.43
-3.57
-3.43
-2.98
-2.26
-1.35
-0.41
0.43
1.04
1.40
1.52
1.49
1.41
1.36
1.36
1.38
1.36
1.27
1.11
0.93
0.80
0.76
0.76
0.76
0.69
0.57
0.47
0.44
0.51
0.59
0.56
0.34
-0.03
-0.41
-0.66
-0.71
-0.60
-0.48
-0.45
-0.57
-0.80
-1.04
-1.26
-1.50
-1.81
-2.22
-2.66
-2.96
-2.98
-2.60
-1.89
-0.97
-0.02
0.83
1.52
2.07
2.51
2.85
3.06
3.09
2.92
2.55
2.05
1.50
0.98
0.59
0.36
0.31
0.39
0.52
0.62
0.62
0.50
0.34
0.20
0.14
0.19
0.30
0.39
0.42
0.36
0.23
0.06
-0.13
-0.36
-0.65
-1.01
-1.43
-1.85
-2.20
-2.44
-2.56
-2.61
-2.64
-2.66
-2.62
-2.41
-1.96
-1.26
-0.38
0.51
1.25
1.72
1.89
1.82
1.61
1.37
1.18
1.04
0.90
0.70
0.40
0.04
-0.28
-0.47
-0.47
-0.34
-0.15
0.04
0.21
0.42
0.68
0.99
1.28
1.48
1.56
1.52
1.37
1.14
0.78
0.28
-0.33
-0.97
-1.49
-1.81
-1.93
-1.99
-2.13
-2.47
-3.01
-3.60
-4.02
-4.08
-3.70
-2.96
-1.99
-0.96
0.02
0.92
1.72
2.39
2.83
2.96
2.75
2.30
1.79
1.43
1.34
1.51
1.82
2.10
2.26
2.25
2.11
1.90
1.64
1.34
1.04
0.78
0.63
0.60
0.63
0.61
0.38
-0.12
-0.86
-1.68
-2.38
-2.81
-2.99
-3.02
-3.09
-3.38
-3.98
-4.86
-5.92
-6.99
-7.87
-8.39
-8.40
-7.88
-6.89
-5.57
-4.11
-2.70
-1.47
-0.48
0.28
0.87
1.34
1.74
2.14
2.57
3.08
3.71
4.45
5.28
6.15
6.99
7.74
8.39
8.91
9.27
9.44
9.32
8.85
7.99
6.75
5.24
3.58
1.93
0.43
-0.81
-1.69
-2.17
-2.30
-2.21
-2.10
-2.10
-2.33
-2.78
-3.34
-3.89
-4.27
-4.33
-4.00
-3.23
-2.11
-0.79
0.51
1.62
2.43
2.96
3.28
3.47
3.57
3.57
3.45
3.26
3.09
3.02
3.07
3.20
3.35
3.45
3.49
3.52
3.54
3.56
3.53
3.44
3.26
3.03
2.76
2.40
1.92
1.28
0.45
-0.52
-1.56
-2.58
-3.51
-4.28
-4.88
-5.34
-5.72
-6.05
-6.33
-6.49
-6.43
-6.08
-5.43
-4.57
-3.60
-2.62
-1.70
-0.85
-0.10
0.49
0.82
0.86
0.66
0.37
0.18
0.20
0.44
0.76
1.02
1.09
0.96
0.70
0.45
0.31
0.31
0.43
0.57
0.66
0.67
0.57
0.37
0.07
-0.31
-0.73
-1.12
-1.40
-1.52
-1.52
-1.50
-1.59
-1.89
-2.37
-2.91
-3.32
-3.47
-3.29
-2.78
-2.04
-1.15
-0.23
0.65
1.36
1.84
2.05
2.00
1.78
1.47
1.15
0.87
0.67
0.57
0.59
0.70
0.86
0.97
0.99
0.90
0.78
0.72
0.79
0.97
1.17
1.29
1.24
1.04
0.76
0.53
0.47
0.59
0.86
1.13
1.25
1.11
0.74
0.25
-0.21
-0.52
-0.63
-0.59
-0.42
-0.08
0.51
1.44
2.70
4.08
5.34
6.22
6.63
6.64
6.43
6.18
5.99
5.91
5.94
6.08
6.33
6.62
6.86
6.91
6.65
6.07
5.24
4.32
3.48
2.85
2.46
2.28
2.18
2.04
1.79
1.41
0.95
0.45
-0.07
-0.64
-1.28
-1.98
-2.65
-3.18
-3.48
-3.54
-3.43
-3.25
-3.08
-2.94
-2.84
-2.76
-2.69
-2.59
-2.44
-2.19
-1.86
-1.52
-1.28
-1.23
-1.36
-1.57
-1.73
-1.70
-1.46
-1.10
-0.74
-0.48
-0.33
-0.26
-0.23
-0.23
-0.29
-0.40
-0.54
-0.67
-0.75
-0.77
-0.81
-0.95
-1.26
-1.74
-2.29
-2.83
-3.25
-3.50
-3.56
-3.44
-3.16
-2.74
-2.25
-1.74
-1.27
-0.91
-0.69
-0.60
-0.60
-0.65
-0.67
-0.63
-0.51
-0.32
-0.11
0.12
0.33
0.52
0.64
0.65
0.53
0.31
0.06
-0.11
-0.13
0.00
0.23
0.42
0.49
0.41
0.21
-0.01
-0.18
-0.30
-0.45
-0.74
-1.22
-1.85
-2.51
-2.99
-3.12
-2.85
-2.27
-1.55
-0.89
-0.39
-0.03
0.25
0.50
0.68
0.72
0.57
0.27
-0.07
-0.30
-0.32
-0.14
0.11
0.32
0.41
0.41
0.38
0.37
0.36
0.26
0.03
-0.33
-0.70
-0.97
-1.05
-0.97
-0.85
-0.86
-1.11
-1.60
-2.22
-2.78
-3.08
-3.01
-2.57
-1.88
-1.12
-0.46
-0.02
0.21
0.28
0.33
0.44
0.65
0.93
1.22
1.44
1.53
1.50
1.39
1.26
1.16
1.10
1.04
0.96
0.84
0.69
0.51
0.31
0.10
-0.15
-0.43
-0.69
-0.88
-0.95
-0.92
-0.85
-0.85
-0.99
-1.29
-1.69
-2.10
-2.44
-2.68
-2.78
-2.73
-2.50
-2.07
-1.42
-0.61
0.26
1.08
1.74
2.17
2.36
2.34
2.18
1.95
1.70
1.49
1.34
1.24
1.19
1.18
1.23
1.29
1.33
1.25
0.99
0.52
-0.09
-0.70
-1.14
-1.28
-1.15
-0.87
-0.63
-0.60
-0.83
-1.26
-1.77
-2.22
-2.54
-2.68
-2.63
-2.37
-1.87
-1.12
-0.17
0.85
1.79
2.51
2.94
3.12
3.13
3.06
2.99
2.93
2.87
2.77
2.63
2.46
2.29
2.18
2.13
2.11
2.07
1.96
1.75
1.49
1.23
1.00
0.80
0.56
0.25
-0.13
-0.51
-0.78
-0.89
-0.86
-0.78
-0.78
-0.98
-1.39
-1.94
-2.43
-2.67
-2.54
-1.99
-1.16
-0.20
0.66
1.27
1.59
1.64
1.52
1.33
1.17
1.07
1.04
1.05
1.06
1.04
0.98
0.89
0.81
0.77
0.75
0.71
0.58
0.34
0.03
-0.28
-0.51
-0.59
-0.54
-0.41
-0.29
-0.22
-0.22
-0.26
-0.33
-0.43
-0.58
-0.81
-1.14
-1.53
-1.91
-2.18
-2.25
-2.07
-1.64
-1.04
-0.36
0.30
0.88
1.35
1.71
1.96
2.09
2.08
1.90
1.54
1.04
0.46
-0.09
-0.57
-0.93
-1.21
-1.45
-1.69
-1.96
-2.25
-2.51
-2.72
-2.87
-2.98
-3.11
-3.29
-3.51
-3.72
-3.84
-3.84
-3.76
-3.68
-3.70
-3.84
-4.07
-4.30
-4.49
-4.63
-4.78
-4.97
-5.18
-5.29
-5.14
-4.61
-3.68
-2.46
-1.13
0.15
1.24
2.09
2.69
3.05
3.15
3.01
2.65
2.18
1.70
1.34
1.16
1.20
1.42
1.77
2.16
2.56
2.92
3.21
3.38
3.39
3.22
2.88
2.44
1.98
1.58
1.24
0.94
0.65
0.37
0.16
0.11
0.26
0.54
0.84
1.05
1.13
1.17
1.29
1.59
2.05
2.52
2.83
2.86
2.63
2.26
1.89
1.59
1.34
1.08
0.78
0.52
0.39
0.47
0.72
0.99
1.10
0.94
0.53
0.02
-0.40
-0.63
-0.65
-0.55
-0.49
-0.55
-0.71
-0.91
-1.05
-1.12
-1.17
-1.29
-1.55
-1.91
-2.26
-2.48
-2.44
-2.13
-1.57
-0.83
0.00
0.83
1.56
2.10
2.42
2.51
2.39
2.12
1.73
1.23
0.64
0.05
-0.46
-0.77
-0.82
-0.63
-0.27
0.14
0.50
0.74
0.81
0.68
0.38
-0.03
-0.42
-0.66
-0.67
-0.47
-0.20
-0.02
-0.07
-0.40
-0.93
-1.53
-2.02
-2.28
-2.25
-1.91
-1.31
-0.52
0.32
1.10
1.71
2.13
2.38
2.51
2.58
2.61
2.60
2.54
2.43
2.28
2.08
1.85
1.61
1.41
1.30
1.31
1.39
1.47
1.39
1.06
0.46
-0.32
-1.12
-1.75
-2.11
-2.19
-2.08
-1.91
-1.82
-1.87
-2.04
-2.26
-2.40
-2.35
-2.09
-1.61
-0.99
-0.30
0.39
1.04
1.60
2.01
2.20
2.11
1.76
1.25
0.72
0.35
0.19
0.17
0.17
0.07
-0.16
-0.43
-0.57
-0.50
-0.21
0.17
0.46
0.53
0.37
0.09
-0.17
-0.29
-0.25
-0.13
-0.06
-0.14
-0.38
-0.72
-1.06
-1.35
-1.61
-1.93
-2.37
-2.90
-3.34
-3.47
-3.16
-2.41
-1.39
-0.37
0.44
0.94
1.16
1.20
1.14
1.01
0.84
0.65
0.47
0.41
0.50
0.73
0.99
1.18
1.19
1.02
0.71
0.32
-0.04
-0.32
-0.49
-0.57
-0.62
-0.70
-0.87
-1.14
-1.45
-1.73
-1.91
-2.01
-2.07
-2.19
-2.43
-2.79
-3.23
-3.62
-3.88
-3.94
-3.82
-3.56
-3.24
-2.95
-2.76
-2.71
-2.80
-3.01
-3.28
-3.56
-3.79
-3.89
-3.82
-3.55
-3.11
-2.58
-2.06
-1.65
-1.42
-1.40
-1.59
-1.88
-2.16
-2.29
-2.15
-1.72
-1.08
-0.37
0.21
0.54
0.60
0.47
0.28
0.18
0.25
0.54
1.07
1.83
2.80
3.89
4.97
5.87
6.42
6.52
6.18
5.52
4.75
4.09
3.70
3.63
3.78
3.98
4.03
3.83
3.36
2.70
2.01
1.42
1.00
0.76
0.65
0.64
0.68
0.74
0.77
0.74
0.58
0.27
-0.16
-0.68
-1.19
-1.63
-1.94
-2.08
-2.01
-1.67
-1.04
-0.16
0.86
1.80
2.46
2.68
2.44
1.84
1.07
0.36
-0.12
-0.29
-0.21
-0.01
0.13
0.10
-0.13
-0.47
-0.77
-0.91
-0.85
-0.63
-0.36
-0.15
-0.04
-0.00
0.05
0.17
0.34
0.49
0.49
0.25
-0.24
-0.94
-1.72
-2.43
-2.87
-2.89
-2.43
-1.53
-0.32
0.97
2.11
2.92
3.38
3.56
3.61
3.65
3.73
3.80
3.73
3.44
2.91
2.21
1.50
0.93
0.61
0.55
0.65
0.81
0.90
0.88
0.75
0.61
0.52
0.51
0.54
0.52
0.38
0.09
-0.33
-0.78
-1.18
-1.46
-1.61
-1.62
-1.54
-1.37
-1.09
-0.72
-0.26
0.21
0.62
0.89
1.01
1.01
0.96
0.88
0.77
0.61
0.37
0.07
-0.21
-0.40
-0.47
-0.46
-0.44
-0.49
-0.61
-0.76
-0.89
-0.97
-1.03
-1.09
-1.18
-1.30
-1.39
-1.42
-1.39
-1.37
-1.42
-1.63
-1.99
-2.45
-2.90
-3.23
-3.36
-3.24
-2.86
-2.24
-1.44
-0.58
0.21
0.81
1.16
1.28
1.28
1.26
1.26
1.24
1.12
0.82
0.41
0.01
-0.20
-0.13
0.17
0.52
0.73
0.69
0.44
0.16
-0.01
-0.00
0.09
0.14
0.02
-0.26
-0.60
-0.88
-1.01
-1.02
-0.98
-0.94
-0.91
-0.84
-0.68
-0.39
0.05
0.54
1.01
1.34
1.50
1.50
1.37
1.21
1.04
0.91
0.79
0.69
0.59
0.53
0.52
0.57
0.65
0.71
0.71
0.62
0.42
0.09
-0.33
-0.76
-1.11
-1.27
-1.23
-1.07
-0.91
-0.86
-0.92
-1.03
-1.10
-1.11
-1.07
-1.07
-1.12
-1.19
-1.15
-0.91
-0.49
0.01
0.44
0.72
0.86
0.96
1.09
1.27
1.43
1.47
1.37
1.21
1.10
1.13
1.31
1.53
1.64
1.56
1.27
0.87
0.49
0.20
0.03
-0.05
-0.10
-0.16
-0.19
-0.19
-0.13
-0.04
0.05
0.06
-0.03
-0.21
-0.44
-0.65
-0.77
-0.77
-0.63
-0.39
-0.08
0.20
0.40
0.50
0.52
0.51
0.50
0.50
0.48
0.42
0.33
0.24
0.22
0.29
0.43
0.57
0.59
0.42
0.05
-0.42
-0.88
-1.18
-1.24
-1.06
-0.72
-0.35
-0.06
0.08
0.05
-0.12
-0.39
-0.71
-1.05
-1.37
-1.60
-1.68
-1.59
-1.34
-1.00
-0.63
-0.29
0.02
0.32
0.64
0.97
1.25
1.41
1.42
1.28
1.07
0.88
0.78
0.75
0.76
0.72
0.56
0.32
0.05
-0.14
-0.19
-0.08
0.11
0.29
0.39
0.37
0.26
0.12
-0.00
-0.11
-0.22
-0.40
-0.71
-1.15
-1.68
-2.20
-2.54
-2.57
-2.22
-1.50
-0.57
0.37
1.11
1.55
1.72
1.69
1.62
1.56
1.52
1.44
1.28
1.07
0.86
0.73
0.68
0.67
0.60
0.42
0.15
-0.10
-0.25
-0.22
-0.04
0.20
0.38
0.40
0.21
-0.19
-0.73
-1.32
-1.87
-2.26
-2.45
-2.42
-2.22
-1.90
-1.55
-1.19
-0.83
-0.49
-0.15
0.16
0.44
0.67
0.82
0.89
0.85
0.72
0.52
0.32
0.18
0.16
0.23
0.36
0.46
0.47
0.34
0.09
-0.26
-0.62
-0.90
-1.05
-1.06
-0.99
-0.92
-0.97
-1.16
-1.46
-1.78
-2.01
-2.09
-2.01
-1.82
-1.59
-1.31
-0.98
-0.51
0.12
0.87
1.60
2.14
2.32
2.11
1.60
0.98
0.45
0.15
0.08
0.17
0.30
0.37
0.32
0.15
-0.10
-0.38
-0.60
-0.72
-0.74
-0.69
-0.62
-0.57
-0.56
-0.55
-0.55
-0.52
-0.47
-0.45
-0.47
-0.56
-0.73
-0.94
-1.13
-1.18
-1.01
-0.59
0.02
0.68
1.18
1.40
1.30
0.99
0.62
0.32
0.16
0.10
0.08
0.07
0.04
0.00
-0.05
-0.13
-0.20
-0.24
-0.19
-0.03
0.20
0.39
0.38
0.09
-0.49
-1.20
-1.88
-2.33
-2.51
-2.43
-2.20
-1.91
-1.61
-1.33
-1.06
-0.80
-0.52
-0.18
0.22
0.67
1.13
1.52
1.76
1.83
1.75
1.57
1.35
1.09
0.78
0.39
-0.08
-0.56
-0.93
-1.06
-0.89
-0.43
0.20
0.79
1.14
1.12
0.75
0.13
-0.57
-1.22
-1.77
-2.21
-2.54
-2.71
-2.64
-2.28
-1.66
-0.92
-0.25
0.21
0.41
0.47
0.53
0.75
1.16
1.68
2.15
2.39
2.29
1.88
1.30
0.71
0.27
0.01
-0.06
-0.03
0.01
0.03
0.03
0.03
0.04
0.03
-0.04
-0.22
-0.49
-0.80
-1.06
-1.19
-1.18
-1.14
-1.21
-1.54
-2.18
-2.99
-3.74
-4.14
-4.02
-3.37
-2.35
-1.20
-0.16
0.68
1.28
1.69
1.92
1.96
1.79
1.44
1.00
0.62
0.42
0.47
0.74
1.11
1.45
1.64
1.66
1.53
1.33
1.12
0.98
0.91
0.88
0.83
0.72
0.53
0.30
0.05
-0.19
-0.44
-0.69
-0.93
-1.13
-1.27
-1.38
-1.53
-1.84
-2.33
-2.88
-3.30
-3.33
-2.87
-1.98
-0.91
0.05
0.67
0.85
0.71
0.46
0.32
0.41
0.74
1.19
1.59
1.85
1.92
1.84
1.68
1.50
1.35
1.22
1.10
1.00
0.94
0.96
1.07
1.24
1.40
1.46
1.37
1.10
0.66
0.14
-0.39
-0.83
-1.17
-1.43
-1.65
-1.89
-2.17
-2.48
-2.81
-3.14
-3.48
-3.82
-4.12
-4.30
-4.28
-3.96
-3.31
-2.35
-1.17
0.07
1.25
2.23
2.92
3.27
3.31
3.14
2.86
2.62
2.49
2.47
2.52
2.57
2.52
2.34
2.05
1.69
1.35
1.09
0.98
1.01
1.16
1.33
1.42
1.36
1.13
0.78
0.39
0.06
-0.12
-0.16
-0.11
-0.03
-0.00
-0.08
-0.30
-0.65
-1.13
-1.72
-2.37
-3.03
-3.59
-3.93
-3.93
-3.54
-2.83
-1.92
-0.99
-0.17
0.47
0.94
1.28
1.52
1.67
1.75
1.77
1.76
1.76
1.81
1.91
2.04
2.16
2.23
2.23
2.19
2.14
2.13
2.19
2.27
2.33
2.29
2.16
1.96
1.75
1.56
1.37
1.14
0.85
0.52
0.20
-0.10
-0.41
-0.75
-1.15
-1.55
-1.86
-1.96
-1.81
-1.46
-1.03
-0.62
-0.23
0.17
0.64
1.16
1.66
2.00
2.12
1.99
1.71
1.37
1.07
0.83
0.67
0.59
0.61
0.72
0.89
1.09
1.22
1.25
1.13
0.87
0.48
0.01
-0.46
-0.86
-1.15
-1.33
-1.45
-1.59
-1.82
-2.16
-2.56
-2.96
-3.26
-3.39
-3.30
-2.97
-2.42
-1.71
-0.94
-0.22
0.35
0.76
1.01
1.16
1.27
1.37
1.46
1.54
1.58
1.58
1.51
1.37
1.17
0.93
0.67
0.46
0.32
0.29
0.36
0.48
0.62
0.73
0.79
0.80
0.73
0.54
0.21
-0.26
-0.83
-1.39
-1.79
-1.94
-1.80
-1.47
-1.06
-0.68
-0.36
-0.03
0.42
1.03
1.70
2.25
2.45
2.17
1.47
0.54
-0.33
-0.92
-1.16
-1.11
-0.95
-0.86
-0.96
-1.25
-1.66
-2.10
-2.50
-2.83
-3.13
-3.44
-3.81
-4.21
-4.62
-5.04
-5.51
-6.09
-6.82
-7.60
-8.23
-8.45
-8.04
-6.97
-5.38
-3.56
-1.78
-0.26
0.94
1.90
2.68
3.35
3.89
4.28
4.51
4.62
4.70
4.83
5.01
5.13
5.07
4.71
4.07
3.30
2.64
2.25
2.18
2.27
2.30
2.10
1.61
0.96
0.32
-0.19
-0.56
-0.92
-1.42
-2.12
-2.97
-3.81
-4.41
-4.61
-4.34
-3.62
-2.56
-1.32
-0.07
1.08
2.02
2.74
3.28
3.72
4.13
4.55
4.98
5.35
5.60
5.67
5.54
5.23
4.80
4.31
3.85
3.44
3.11
2.83
2.56
2.24
1.86
1.39
0.89
0.41
0.02
-0.25
-0.43
-0.57
-0.79
-1.17
-1.74
-2.46
-3.25
-3.99
-4.55
-4.81
-4.70
-4.19
-3.30
-2.10
-0.73
0.64
1.87
2.84
3.55
4.01
4.28
4.43
4.50
4.53
4.54
4.55
4.55
4.52
4.46
4.33
4.14
3.93
3.72
3.52
3.31
3.10
2.86
2.62
2.40
2.25
2.18
2.16
2.13
2.02
1.78
1.41
0.95
0.46
0.01
-0.40
-0.78
-1.16
-1.56
-1.92
-2.13
-2.08
-1.72
-1.08
-0.31
0.43
1.00
1.37
1.57
1.75
1.96
2.24
2.49
2.63
2.60
2.39
2.11
1.90
1.86
2.01
2.29
2.53
2.61
2.43
2.02
1.50
1.01
0.69
0.57
0.57
0.57
0.46
0.19
-0.18
-0.54
-0.78
-0.87
-0.86
-0.85
-0.96
-1.23
-1.61
-2.03
-2.39
-2.62
-2.69
-2.59
-2.31
-1.86
-1.24
-0.52
0.24
0.92
1.46
1.78
1.91
1.89
1.79
1.66
1.54
1.39
1.20
0.96
0.70
0.50
0.44
0.55
0.77
0.99
1.09
1.01
0.82
0.62
0.53
0.58
0.72
0.81
0.76
0.53
0.16
-0.26
-0.64
-0.91
-1.08
-1.23
-1.42
-1.71
-2.10
-2.53
-2.89
-3.10
-3.11
-2.91
-2.53
-2.01
-1.35
-0.56
0.30
1.16
1.88
2.34
2.48
2.33
1.98
1.52
1.04
0.58
0.20
-0.05
-0.16
-0.13
-0.04
0.00
-0.10
-0.36
-0.71
-1.05
-1.25
-1.26
-1.13
-0.95
-0.84
-0.87
-1.05
-1.35
-1.70
-2.01
-2.21
-2.23
-2.07
-1.75
-1.36
-1.01
-0.82
-0.85
-1.15
-1.66
-2.29
-2.87
-3.23
-3.22
-2.77
-1.93
-0.87
0.19
1.04
1.55
1.75
1.71
1.57
1.39
1.21
1.00
0.76
0.51
0.32
0.22
0.22
0.23
0.20
0.05
-0.16
-0.35
-0.40
-0.24
0.12
0.60
1.08
1.41
1.50
1.34
0.95
0.43
-0.12
-0.63
-1.06
-1.38
-1.59
-1.73
-1.81
-1.89
-2.02
-2.25
-2.54
-2.82
-2.97
-2.88
-2.50
-1.88
-1.13
-0.39
0.21
0.61
0.78
0.75
0.55
0.24
-0.13
-0.50
-0.80
-0.99
-1.04
-0.93
-0.70
-0.39
-0.05
0.26
0.47
0.55
0.46
0.21
-0.18
-0.63
-1.06
-1.36
-1.46
-1.36
-1.13
-0.88
-0.73
-0.77
-1.02
-1.40
-1.81
-2.15
-2.37
-2.45
-2.41
-2.27
-1.98
-1.49
-0.82
-0.03
0.73
1.29
1.53
1.47
1.19
0.85
0.59
0.44
0.37
0.31
0.22
0.07
-0.10
-0.24
-0.33
-0.38
-0.43
-0.51
-0.64
-0.83
-1.03
-1.21
-1.30
-1.28
-1.17
-1.00
-0.84
-0.77
-0.87
-1.15
-1.59
-2.11
-2.59
-2.90
-2.97
-2.75
-2.26
-1.58
-0.83
-0.14
0.40
0.72
0.82
0.78
0.68
0.60
0.57
0.58
0.60
0.60
0.56
0.48
0.35
0.18
-0.02
-0.19
-0.29
-0.26
-0.13
0.04
0.14
0.09
-0.12
-0.46
-0.86
-1.25
-1.60
-1.91
-2.16
-2.35
-2.47
-2.49
-2.36
-2.06
-1.58
-0.95
-0.27
0.38
0.90
1.23
1.37
1.37
1.29
1.18
1.08
0.99
0.89
0.77
0.60
0.40
0.20
0.01
-0.15
-0.27
-0.37
-0.45
-0.51
-0.52
-0.44
-0.28
-0.09
0.06
0.08
-0.11
-0.47
-0.93
-1.37
-1.68
-1.82
-1.83
-1.81
-1.83
-1.93
-2.03
-2.02
-1.81
-1.39
-0.85
-0.34
0.05
0.28
0.43
0.59
0.80
1.04
1.20
1.17
0.92
0.51
0.10
-0.17
-0.19
0.00
0.30
0.56
0.63
0.47
0.11
-0.34
-0.77
-1.11
-1.33
-1.47
-1.59
-1.70
-1.78
-1.85
-1.92
-2.08
-2.38
-2.83
-3.31
-3.65
-3.65
-3.23
-2.44
-1.48
-0.60
0.02
0.33
0.44
0.52
0.72
1.05
1.38
1.55
1.45
1.10
0.66
0.33
0.28
0.52
0.90
1.24
1.39
1.32
1.09
0.81
0.54
0.25
-0.11
-0.62
-1.24
-1.85
-2.29
-2.43
-2.24
-1.83
-1.42
-1.23
-1.40
-1.94
-2.74
-3.60
-4.29
-4.63
-4.50
-3.91
-2.92
-1.69
-0.41
0.70
1.52
2.00
2.21
2.26
2.21
2.11
1.94
1.69
1.43
1.24
1.17
1.25
1.40
1.51
1.53
1.48
1.42
1.46
1.59
1.71
1.72
1.50
1.04
0.44
-0.16
-0.65
-0.97
-1.14
-1.26
-1.41
-1.67
-2.09
-2.67
-3.40
-4.19
-4.88
-5.27
-5.19
-4.54
-3.37
-1.88
-0.35
0.98
1.96
2.59
2.94
3.09
3.12
3.05
2.91
2.77
2.70
2.73
2.85
2.99
3.06
3.02
2.90
2.79
2.76
2.86
3.03
3.17
3.19
3.05
2.77
2.41
2.00
1.60
1.23
0.91
0.63
0.38
0.09
-0.30
-0.85
-1.56
-2.38
-3.24
-4.07
-4.74
-5.17
-5.23
-4.87
-4.08
-2.96
-1.67
-0.39
0.79
1.82
2.67
3.36
3.85
4.09
4.07
3.80
3.35
2.83
2.35
1.97
1.73
1.61
1.56
1.55
1.55
1.58
1.66
1.82
2.00
2.14
2.15
1.95
1.55
0.99
0.35
-0.29
-0.86
-1.35
-1.74
-2.06
-2.33
-2.58
-2.82
-3.09
-3.45
-3.95
-4.56
-5.21
-5.69
-5.78
-5.35
-4.41
-3.11
-1.71
-0.45
0.56
1.28
1.78
2.10
2.30
2.38
2.34
2.21
2.06
1.93
1.81
1.71
1.61
1.56
1.63
1.86
2.24
2.69
3.04
3.20
3.14
2.95
2.76
2.66
2.61
2.50
2.23
1.75
1.16
0.61
0.20
-0.10
-0.39
-0.80
-1.39
-2.11
-2.83
-3.43
-3.81
-3.94
-3.79
-3.37
-2.64
-1.65
-0.47
0.76
1.90
2.81
3.41
3.68
3.66
3.45
3.18
2.94
2.81
2.79
2.80
2.78
2.67
2.47
2.23
2.05
2.00
2.07
2.20
2.28
2.18
1.86
1.33
0.63
-0.14
-0.90
-1.63
-2.28
-2.85
-3.30
-3.65
-3.93
-4.26
-4.74
-5.41
-6.15
-6.70
-6.76
-6.13
-4.83
-3.11
-1.35
0.14
1.21
1.91
2.42
2.86
3.26
3.53
3.58
3.38
3.02
2.64
2.40
2.34
2.43
2.56
2.63
2.61
2.49
2.33
2.15
1.98
1.80
1.60
1.37
1.13
0.90
0.67
0.44
0.16
-0.20
-0.68
-1.30
-2.06
-2.96
-3.92
-4.82
-5.48
-5.71
-5.40
-4.56
-3.36
-2.01
-0.72
0.35
1.17
1.80
2.31
2.80
3.30
3.78
4.15
4.34
4.28
3.97
3.50
3.02
2.70
2.60
2.71
2.90
3.03
3.02
2.87
2.66
2.44
2.22
1.92
1.46
0.80
0.04
-0.68
-1.17
-1.37
-1.37
-1.39
-1.62
-2.20
-3.08
-4.11
-5.08
-5.75
-6.01
-5.77
-5.06
-3.96
-2.59
-1.12
0.30
1.55
2.57
3.33
3.85
4.15
4.22
4.03
3.61
3.04
2.48
2.08
1.93
2.00
2.18
2.30
2.30
2.21
2.15
2.23
2.41
2.57
2.53
2.19
1.58
0.83
0.12
-0.46
-0.88
-1.21
-1.49
-1.79
-2.13
-2.55
-3.08
-3.72
-4.40
-4.98
-5.25
-5.05
-4.34
-3.22
-1.92
-0.69
0.32
1.09
1.67
2.19
2.67
3.08
3.34
3.37
3.16
2.81
2.42
2.10
1.92
1.89
1.95
2.06
2.17
2.29
2.39
2.48
2.53
2.49
2.30
1.95
1.47
0.93
0.40
-0.08
-0.51
-0.90
-1.30
-1.77
-2.32
-2.98
-3.74
-4.55
-5.30
-5.83
-5.99
-5.67
-4.87
-3.68
-2.30
-0.91
0.30
1.25
1.92
2.36
2.64
2.83
2.94
2.97
2.92
2.81
2.71
2.68
2.75
2.90
3.07
3.17
3.18
3.08
2.90
2.67
2.42
2.17
1.98
1.87
1.86
1.88
1.83
1.60
1.11
0.42
-0.37
-1.10
-1.70
-2.18
-2.63
-3.18
-3.89
-4.69
-5.47
-6.05
-6.29
-6.12
-5.53
-4.59
-3.43
-2.15
-0.90
0.23
1.17
1.90
2.44
2.83
3.09
3.22
3.22
3.12
2.96
2.78
2.66
2.62
2.67
2.77
2.88
2.96
2.94
2.80
2.55
2.24
1.94
1.72
1.58
1.46
1.29
1.04
0.73
0.39
0.06
-0.24
-0.53
-0.85
-1.20
-1.58
-2.03
-2.60
-3.35
-4.28
-5.25
-6.06
-6.48
-6.39
-5.77
-4.76
-3.53
-2.23
-0.97
0.20
1.22
2.06
2.71
3.16
3.42
3.50
3.42
3.19
2.88
2.58
2.39
2.41
2.66
3.11
3.65
4.15
4.45
4.43
4.05
3.39
2.62
1.98
1.61
1.57
1.75
1.98
2.08
1.96
1.61
1.11
0.51
-0.16
-0.87
-1.62
-2.37
-3.06
-3.64
-4.13
-4.62
-5.23
-6.02
-6.94
-7.78
-8.25
-8.07
-7.12
-5.50
-3.49
-1.46
0.28
1.59
2.48
3.04
3.36
3.45
3.29
2.93
2.47
2.08
1.91
2.00
2.29
2.62
2.82
2.85
2.77
2.69
2.71
2.84
2.98
3.04
2.97
2.77
2.51
2.24
1.98
1.71
1.37
0.93
0.40
-0.20
-0.83
-1.47
-2.09
-2.64
-3.09
-3.44
-3.75
-4.09
-4.55
-5.12
-5.71
-6.16
-6.28
-5.98
-5.26
-4.25
-3.09
-1.92
-0.86
0.05
0.80
1.37
1.77
1.98
1.98
1.79
1.44
1.03
0.72
0.65
0.87
1.34
1.89
2.33
2.53
2.48
2.29
2.09
1.96
1.90
1.81
1.61
1.26
0.81
0.32
-0.09
-0.37
-0.49
-0.45
-0.30
-0.14
-0.07
-0.20
-0.57
-1.16
-1.88
-2.67
-3.48
-4.29
-5.02
-5.56
-5.74
-5.42
-4.54
-3.21
-1.67
-0.21
1.00
1.87
2.46
2.87
3.12
3.19
3.02
2.62
2.08
1.56
1.22
1.15
1.30
1.54
1.76
1.90
2.01
2.19
2.48
2.85
3.19
3.35
3.22
2.81
2.20
1.52
0.88
0.38
0.02
-0.23
-0.41
-0.62
-0.92
-1.36
-1.97
-2.72
-3.58
-4.42
-5.08
-5.42
-5.30
-4.68
-3.65
-2.34
-0.93
0.42
1.57
2.47
3.09
3.45
3.58
3.55
3.42
3.27
3.16
3.12
3.13
3.14
3.12
3.05
2.95
2.87
2.85
2.85
2.84
2.74
2.55
2.30
2.04
1.85
1.70
1.56
1.36
1.11
0.80
0.48
0.12
-0.30
-0.83
-1.48
-2.18
-2.84
-3.38
-3.75
-3.97
-4.12
-4.24
-4.39
-4.58
-4.85
-5.23
-5.71
-6.28
-6.83
-7.16
-7.11
-6.50
-5.35
-3.80
-2.12
-0.58
0.60
1.39
1.88
2.22
2.53
2.84
3.07
3.13
2.99
2.72
2.45
2.25
2.13
2.03
1.81
1.42
0.87
0.30
-0.09
-0.20
0.00
0.38
0.69
0.77
0.51
-0.01
-0.63
-1.17
-1.52
-1.69
-1.80
-2.02
-2.48
-3.20
-4.12
-5.07
-5.82
-6.14
-5.91
-5.12
-3.93
-2.57
-1.26
-0.17
0.70
1.39
1.96
2.41
2.72
2.84
2.81
2.70
2.62
2.65
2.81
3.02
3.17
3.18
3.04
2.77
2.44
2.11
1.80
1.53
1.30
1.10
0.87
0.56
0.12
-0.44
-1.08
-1.68
-2.13
-2.39
-2.49
-2.56
-2.77
-3.25
-4.05
-5.09
-6.19
-7.12
-7.61
-7.50
-6.75
-5.47
-3.89
-2.27
-0.82
0.35
1.22
1.87
2.35
2.70
2.93
3.01
2.95
2.80
2.63
2.50
2.44
2.42
2.41
2.36
2.27
2.19
2.21
2.34
2.55
2.75
2.80
2.61
2.15
1.52
0.85
0.29
-0.09
-0.30
-0.42
-0.60
-0.91
-1.43
-2.16
-3.07
-4.04
-4.94
-5.60
-5.84
-5.56
-4.75
-3.55
-2.15
-0.75
0.53
1.63
2.52
3.21
3.65
3.85
3.83
3.65
3.43
3.23
3.09
2.97
2.88
2.78
2.69
2.59
2.48
2.32
2.10
1.85
1.60
1.42
1.30
1.20
1.07
0.84
0.49
0.03
-0.47
-0.93
-1.30
-1.58
-1.83
-2.17
-2.69
-3.42
-4.28
-5.14
-5.81
-6.18
-6.20
-5.90
-5.32
-4.49
-3.40
-2.07
-0.60
0.83
1.99
2.72
3.03
3.03
2.90
2.80
2.79
2.79
2.75
2.64
2.52
2.51
2.69
3.04
3.43
3.69
3.71
3.51
3.19
2.90
2.72
2.60
2.40
1.97
1.25
0.37
-0.45
-1.00
-1.20
-1.15
-1.09
-1.19
-1.55
-2.12
-2.77
-3.46
-4.20
-5.04
-5.94
-6.78
-7.32
-7.34
-6.74
-5.58
-4.05
-2.37
-0.72
0.76
1.95
2.80
3.25
3.35
3.19
2.88
2.57
2.35
2.28
2.38
2.60
2.88
3.12
3.24
3.20
3.01
2.73
2.42
2.12
1.80
1.47
1.12
0.81
0.60
0.48
0.42
0.33
0.17
-0.06
-0.35
-0.65
-1.00
-1.45
-2.06
-2.82
-3.64
-4.41
-5.06
-5.55
-5.93
-6.23
-6.42
-6.40
-6.02
-5.18
-3.89
-2.31
-0.69
0.73
1.82
2.57
3.09
3.49
3.82
4.06
4.18
4.11
3.85
3.45
3.01
2.63
2.38
2.33
2.44
2.68
2.97
3.24
3.42
3.50
3.48
3.39
3.21
2.94
2.58
2.14
1.64
1.13
0.63
0.13
-0.34
-0.77
-1.12
-1.36
-1.53
-1.69
-1.93
-2.32
-2.89
-3.59
-4.36
-5.11
-5.76
-6.24
-6.49
-6.46
-6.11
-5.44
-4.48
-3.32
-2.05
-0.77
0.42
1.44
2.21
2.70
2.91
2.87
2.66
2.42
2.26
2.26
2.42
2.66
2.87
2.96
2.91
2.77
2.60
2.46
2.39
2.40
2.47
2.59
2.71
2.73
2.60
2.27
1.78
1.24
0.74
0.35
0.06
-0.18
-0.42
-0.66
-0.87
-1.05
-1.22
-1.45
-1.83
-2.40
-3.20
-4.18
-5.30
-6.42
-7.40
-8.04
-8.19
-7.74
-6.73
-5.30
-3.63
-1.91
-0.30
1.11
2.26
3.11
3.64
3.86
3.81
3.61
3.38
3.25
3.25
3.35
3.42
3.37
3.15
2.81
2.46
2.19
2.03
1.93
1.79
1.59
1.37
1.26
1.31
1.50
1.70
1.71
1.43
0.84
0.05
-0.76
-1.45
-1.94
-2.25
-2.46
-2.68
-2.98
-3.40
-3.90
-4.43
-4.92
-5.36
-5.73
-5.99
-6.04
-5.71
-4.86
-3.51
-1.86
-0.19
1.20
2.15
2.69
2.96
3.08
3.10
2.98
2.71
2.35
2.03
1.85
1.88
2.06
2.29
2.48
2.57
2.55
2.43
2.25
2.04
1.85
1.74
1.72
1.76
1.75
1.60
1.27
0.76
0.15
-0.46
-0.98
-1.37
-1.63
-1.84
-2.07
-2.41
-2.88
-3.48
-4.19
-4.97
-5.79
-6.58
-7.24
-7.62
-7.56
-6.95
-5.75
-4.05
-2.08
-0.08
1.67
3.00
3.79
4.10
4.05
3.83
3.60
3.46
3.37
3.28
3.08
2.78
2.46
2.23
2.18
2.33
2.60
2.84
2.94
2.81
2.46
1.97
1.49
1.11
0.87
0.77
0.70
0.56
0.29
-0.13
-0.66
-1.20
-1.68
-2.04
-2.29
-2.50
-2.78
-3.22
-3.88
-4.75
-5.72
-6.58
-7.10
-7.08
-6.44
-5.23
-3.65
-1.94
-0.33
0.99
1.94
2.56
2.92
3.15
3.33
3.48
3.57
3.56
3.46
3.30
3.18
3.14
3.18
3.25
3.29
3.28
3.25
3.26
3.31
3.36
3.30
3.02
2.54
1.92
1.31
0.83
0.53
0.37
0.31
0.24
0.10
-0.17
-0.63
-1.28
-2.07
-2.92
-3.70
-4.29
-4.70
-5.00
-5.34
-5.83
-6.45
-7.03
-7.32
-7.12
-6.33
-5.01
-3.34
-1.57
0.11
1.57
2.70
3.47
3.87
3.93
3.74
3.40
3.05
2.74
2.52
2.36
2.22
2.09
1.99
1.96
2.03
2.22
2.49
2.77
3.01
3.13
3.13
3.01
2.82
2.56
2.26
1.89
1.43
0.88
0.27
-0.35
-0.94
-1.48
-2.00
-2.55
-3.18
-3.92
-4.74
-5.55
-6.20
-6.51
-6.34
-5.63
-4.47
-3.05
-1.63
-0.40
0.55
1.25
1.82
2.32
2.76
3.05
3.09
2.85
2.42
1.93
1.56
1.37
1.37
1.46
1.57
1.67
1.76
1.88
2.04
2.16
2.18
2.01
1.65
1.14
0.58
0.04
-0.44
-0.86
-1.22
-1.54
-1.87
-2.27
-2.80
-3.51
-4.38
-5.34
-6.31
-7.20
-7.91
-8.33
-8.35
-7.87
-6.83
-5.32
-3.51
-1.63
0.07
1.45
2.44
3.09
3.44
3.56
3.49
3.28
2.99
2.71
2.52
2.51
2.72
3.14
3.67
4.19
4.58
4.78
4.84
4.83
4.81
4.76
4.59
4.22
3.61
2.82
1.97
1.19
0.53
-0.01
-0.52
-1.05
-1.65
-2.31
-3.02
-3.77
-4.58
-5.45
-6.36
-7.21
-7.83
-8.03
-7.69
-6.78
-5.42
-3.80
-2.15
-0.64
0.63
1.63
2.36
2.85
3.09
3.12
3.01
2.83
2.67
2.59
2.58
2.59
2.58
2.53
2.46
2.42
2.47
2.63
2.86
3.07
3.17
3.07
2.77
2.30
1.72
1.09
0.45
-0.15
-0.70
-1.12
-1.39
-1.52
-1.63
-1.85
-2.35
-3.17
-4.20
-5.18
-5.77
-5.73
-4.94
-3.50
-1.64
0.32
2.11
3.55
4.58
5.23
5.60
5.78
5.86
5.88
5.85
5.72
5.49
5.16
4.79
4.44
4.17
3.97
3.80
3.60
3.38
3.17
2.99
2.88
2.77
2.56
2.20
1.69
1.12
0.61
0.19
-0.17
-0.62
-1.25
-2.04
-2.84
-3.45
-3.75
-3.78
-3.75
-3.92
-4.43
-5.22
-6.03
-6.51
-6.42
-5.70
-4.52
-3.16
-1.88
-0.84
-0.05
0.56
1.07
1.52
1.91
2.19
2.32
2.32
2.24
2.15
2.08
2.04
2.00
1.96
1.93
1.94
2.04
2.20
2.37
2.44
2.31
1.94
1.39
0.77
0.20
-0.20
-0.40
-0.46
-0.46
-0.53
-0.77
-1.23
-1.88
-2.62
-3.33
-3.88
-4.26
-4.53
-4.83
-5.30
-6.04
-7.04
-8.20
-9.34
-10.23
-10.67
-10.50
-9.66
-8.20
-6.34
-4.33
-2.46
-0.91
0.29
1.18
1.86
2.39
2.76
2.96
2.98
2.88
2.79
2.82
3.04
3.39
3.80
4.16
4.44
4.67
4.91
5.19
5.49
5.72
5.79
5.62
5.21
4.64
4.00
3.40
2.88
2.43
1.98
1.48
0.91
0.30
-0.29
-0.82
-1.29
-1.74
-2.23
-2.80
-3.49
-4.30
-5.21
-6.13
-6.91
-7.39
-7.37
-6.74
-5.52
-3.85
-1.97
-0.15
1.39
2.57
3.38
3.90
4.21
4.37
4.41
4.31
4.08
3.73
3.35
3.03
2.85
2.85
3.03
3.31
3.62
3.88
4.01
3.96
3.70
3.21
2.55
1.82
1.16
0.69
0.47
0.45
0.51
0.48
0.26
-0.15
-0.70
-1.27
-1.80
-2.29
-2.79
-3.39
-4.11
-4.96
-5.87
-6.77
-7.59
-8.25
-8.61
-8.54
-7.91
-6.68
-4.94
-2.95
-0.99
0.65
1.88
2.71
3.27
3.68
3.98
4.15
4.18
4.10
4.00
4.00
4.16
4.45
4.80
5.09
5.24
5.20
4.98
4.61
4.15
3.70
3.36
3.16
3.05
2.91
2.61
2.12
1.49
0.83
0.26
-0.23
-0.72
-1.27
-1.92
-2.58
-3.11
-3.42
-3.56
-3.69
-4.01
-4.64
-5.60
-6.71
-7.71
-8.33
-8.36
-7.71
-6.40
-4.60
-2.53
-0.46
1.35
2.77
3.73
4.27
4.52
4.56
4.50
4.41
4.32
4.21
4.09
3.94
3.77
3.62
3.53
3.53
3.60
3.69
3.70
3.59
3.37
3.09
2.83
2.61
2.39
2.11
1.74
1.29
0.84
0.44
0.11
-0.19
-0.54
-1.02
-1.64
-2.36
-3.09
-3.78
-4.36
-4.87
-5.34
-5.84
-6.45
-7.12
-7.73
-8.07
-7.93
-7.17
-5.83
-4.09
-2.22
-0.46
1.06
2.33
3.35
4.11
4.54
4.58
4.22
3.59
2.87
2.29
1.99
1.98
2.14
2.31
2.37
2.25
2.02
1.79
1.65
1.64
1.73
1.85
1.91
1.87
1.68
1.33
0.81
0.16
-0.58
-1.31
-1.92
-2.35
-2.63
-2.84
-3.08
-3.46
-4.00
-4.70
-5.51
-6.34
-7.02
-7.37
-7.20
-6.40
-5.06
-3.39
-1.66
-0.09
1.25
2.39
3.39
4.23
4.80
4.97
4.72
4.15
3.47
2.91
2.60
2.52
2.59
2.68
2.71
2.67
2.58
2.51
2.47
2.49
2.53
2.49
2.26
1.76
0.98
0.01
-0.97
-1.81
-2.42
-2.83
-3.14
-3.47
-3.91
-4.52
-5.32
-6.29
-7.42
-8.63
-9.72
-10.43
-10.49
-9.71
-8.13
-6.01
-3.71
-1.56
0.25
1.69
2.87
3.86
4.65
5.17
5.37
5.26
4.99
4.71
4.55
4.51
4.53
4.51
4.41
4.24
4.05
3.88
3.75
3.64
3.54
3.44
3.26
2.93
2.37
1.60
0.76
0.02
-0.51
-0.82
-1.07
-1.46
-2.12
-3.06
-4.19
-5.37
-6.46
-7.34
-7.85
-7.82
-7.10
-5.65
-3.62
-1.34
0.83
2.59
3.82
4.58
4.98
5.12
5.04
4.73
4.22
3.57
2.94
2.44
2.17
2.11
2.18
2.32
2.44
2.53
2.61
2.67
2.70
2.68
2.56
2.33
1.96
1.46
0.84
0.14
-0.59
-1.27
-1.84
-2.27
-2.65
-3.12
-3.80
-4.74
-5.87
-7.00
-7.84
-8.16
-7.81
-6.78
-5.20
-3.27
-1.25
0.63
2.17
3.29
3.99
4.34
4.46
4.42
4.29
4.10
3.85
3.57
3.29
3.02
2.77
2.50
2.22
1.94
1.69
1.54
1.51
1.58
1.67
1.64
1.34
0.72
-0.20
-1.25
-2.21
-2.88
-3.19
-3.23
-3.20
-3.36
-3.89
-4.84
-6.11
-7.46
-8.61
-9.27
-9.22
-8.36
-6.75
-4.56
-2.11
0.31
2.44
4.13
5.35
6.13
6.55
6.68
6.55
6.22
5.76
5.27
4.84
4.55
4.38
4.28
4.14
3.92
3.62
3.34
3.21
3.33
3.65
4.04
4.28
4.18
3.68
2.84
1.84
0.85
0.00
-0.66
-1.16
-1.60
-2.08
-2.69
-3.46
-4.40
-5.42
-6.36
-7.02
-7.20
-6.78
-5.76
-4.29
-2.60
-0.99
0.35
1.31
1.94
2.34
2.64
2.87
3.02
3.02
2.82
2.45
2.00
1.62
1.44
1.49
1.77
2.16
2.56
2.88
3.08
3.18
3.18
3.07
2.82
2.40
1.81
1.12
0.42
-0.20
-0.67
-1.00
-1.24
-1.47
-1.82
-2.36
-3.17
-4.23
-5.43
-6.59
-7.42
-7.67
-7.22
-6.08
-4.45
-2.59
-0.78
0.78
2.02
2.95
3.60
3.99
4.13
4.00
3.64
3.12
2.58
2.14
1.88
1.82
1.89
2.05
2.22
2.34
2.39
2.35
2.21
1.97
1.63
1.21
0.72
0.18
-0.40
-0.99
-1.57
-2.10
-2.55
-2.93
-3.29
-3.75
-4.39
-5.25
-6.21
-7.06
-7.49
-7.28
-6.36
-4.86
-3.02
-1.15
0.54
1.95
3.06
3.91
4.48
4.78
4.81
4.59
4.22
3.77
3.31
2.90
2.57
2.36
2.31
2.41
2.62
2.86
3.01
2.98
2.72
2.25
1.62
0.93
0.25
-0.39
-0.98
-1.54
-2.09
-2.63
-3.19
-3.83
-4.61
-5.51
-6.43
-7.11
-7.27
-6.67
-5.26
-3.26
-1.03
1.00
2.52
3.44
3.81
3.81
3.64
3.41
3.20
3.00
2.77
2.50
2.20
1.92
1.73
1.66
1.71
1.81
1.86
1.77
1.53
1.17
0.78
0.45
0.18
-0.06
-0.35
-0.73
-1.21
-1.71
-2.16
-2.53
-2.90
-3.39
-4.11
-5.05
-6.02
-6.67
-6.65
-5.77
-4.08
-1.90
0.34
2.25
3.64
4.48
4.91
5.04
4.92
4.54
3.94
3.22
2.56
2.17
2.10
2.27
2.46
2.46
2.17
1.69
1.23
1.01
1.13
1.51
1.94
2.17
2.04
1.54
0.77
-0.08
-0.84
-1.44
-1.88
-2.24
-2.63
-3.15
-3.83
-4.67
-5.52
-6.21
-6.48
-6.17
-5.16
-3.53
-1.49
0.65
2.54
3.92
4.66
4.78
4.40
3.74
2.96
2.21
1.58
1.15
0.96
1.04
1.36
1.83
2.28
2.55
2.54
2.27
1.86
1.49
1.28
1.26
1.35
1.39
1.26
0.88
0.30
-0.37
-0.99
-1.46
-1.76
-1.98
-2.27
-2.81
-3.67
-4.78
-5.95
-6.88
-7.32
-7.12
-6.28
-4.97
-3.41
-1.83
-0.41
0.74
1.59
2.15
2.45
2.57
2.56
2.46
2.31
2.13
1.95
1.79
1.66
1.56
1.46
1.37
1.27
1.19
1.15
1.16
1.21
1.27
1.34
1.38
1.40
1.36
1.21
0.91
0.47
-0.06
-0.57
-0.98
-1.27
-1.48
-1.71
-2.10
-2.70
-3.53
-4.52
-5.53
-6.40
-6.98
-7.14
-6.81
-5.96
-4.68
-3.09
-1.38
0.26
1.68
2.78
3.55
3.98
4.10
3.94
3.52
2.87
2.10
1.32
0.73
0.47
0.58
0.99
1.52
1.98
2.26
2.31
2.16
1.89
1.54
1.11
0.64
0.16
-0.26
-0.58
-0.77
-0.86
-0.91
-1.01
-1.21
-1.55
-2.04
-2.63
-3.23
-3.78
-4.23
-4.62
-5.04
-5.54
-6.09
-6.53
-6.60
-6.11
-4.98
-3.33
-1.43
0.44
2.03
3.25
4.09
4.61
4.89
4.98
4.91
4.74
4.51
4.26
4.04
3.83
3.61
3.38
3.15
2.97
2.88
2.89
2.98
3.09
3.19
3.24
3.24
3.17
2.97
2.61
2.07
1.41
0.71
0.09
-0.41
-0.79
-1.09
-1.38
-1.70
-2.03
-2.36
-2.72
-3.16
-3.78
-4.61
-5.60
-6.55
-7.20
-7.26
-6.59
-5.23
-3.35
-1.26
0.73
2.37
3.56
4.30
4.71
4.86
4.82
4.59
4.19
3.63
2.99
2.39
1.94
1.70
1.64
1.69
1.80
1.90
2.01
2.15
2.31
2.47
2.58
2.61
2.55
2.42
2.27
2.13
2.01
1.87
1.63
1.19
0.51
-0.37
-1.35
-2.27
-3.03
-3.58
-3.98
-4.31
-4.68
-5.12
-5.62
-6.12
-6.54
-6.76
-6.68
-6.22
-5.33
-4.04
-2.48
-0.81
0.76
2.07
3.02
3.57
3.78
3.71
3.46
3.07
2.60
2.09
1.62
1.29
1.19
1.36
1.75
2.22
2.63
2.89
2.97
2.94
2.86
2.81
2.77
2.69
2.50
2.18
1.77
1.33
0.94
0.56
0.16
-0.34
-0.97
-1.65
-2.30
-2.82
-3.16
-3.38
-3.61
-3.98
-4.57
-5.36
-6.21
-6.90
-7.15
-6.77
-5.67
-3.97
-1.97
-0.02
1.61
2.78
3.50
3.90
4.10
4.16
4.05
3.72
3.18
2.50
1.83
1.32
1.07
1.10
1.34
1.67
1.99
2.21
2.32
2.31
2.24
2.11
1.97
1.81
1.64
1.46
1.23
0.94
0.53
0.01
-0.60
-1.24
-1.86
-2.45
-3.02
-3.62
-4.29
-5.04
-5.84
-6.65
-7.37
-7.89
-8.07
-7.76
-6.87
-5.42
-3.58
-1.59
0.31
1.94
3.23
4.19
4.83
5.12
5.03
4.59
3.91
3.16
2.49
2.03
1.82
1.83
2.03
2.35
2.76
3.16
3.47
3.58
3.44
3.10
2.65
2.22
1.91
1.71
1.58
1.41
1.14
0.71
0.12
-0.58
-1.29
-1.91
-2.30
-2.45
-2.42
-2.45
-2.78
-3.60
-4.90
-6.45
-7.86
-8.70
-8.70
-7.79
-6.14
-4.05
-1.88
0.08
1.63
2.73
3.42
3.80
3.98
4.00
3.87
3.56
3.06
2.43
1.78
1.25
0.96
0.97
1.22
1.59
1.95
2.20
2.31
2.35
2.40
2.54
2.74
2.88
2.79
2.36
1.62
0.70
-0.19
-0.88
-1.32
-1.56
-1.73
-1.91
-2.16
-2.50
-2.97
-3.64
-4.61
-5.87
-7.27
-8.46
-9.04
-8.67
-7.28
-5.07
-2.49
-0.05
1.88
3.16
3.86
4.20
4.36
4.41
4.33
4.05
3.59
3.06
2.60
2.30
2.16
2.10
2.02
1.89
1.76
1.73
1.84
2.08
2.38
2.61
2.71
2.65
2.44
2.08
1.60
1.02
0.39
-0.24
-0.80
-1.29
-1.70
-2.10
-2.54
-3.03
-3.58
-4.20
-4.86
-5.55
-6.21
-6.73
-6.96
-6.75
-5.97
-4.61
-2.80
-0.80
1.06
2.52
3.41
3.78
3.78
3.59
3.36
3.12
2.84
2.48
2.11
1.82
1.70
1.80
2.05
2.31
2.47
2.46
2.34
2.17
2.05
1.96
1.88
1.77
1.59
1.35
1.06
0.74
0.38
-0.01
-0.45
-0.93
-1.47
-2.09
-2.80
-3.58
-4.41
-5.23
-5.98
-6.58
-6.96
-7.03
-6.72
-5.97
-4.81
-3.29
-1.54
0.28
2.00
3.49
4.60
5.26
5.41
5.10
4.46
3.69
3.01
2.60
2.52
2.72
3.06
3.37
3.48
3.32
2.90
2.32
1.73
1.27
1.08
1.15
1.41
1.71
1.87
1.73
1.24
0.45
-0.54
-1.57
-2.52
-3.29
-3.86
-4.25
-4.51
-4.71
-4.92
-5.16
-5.33
-5.30
-4.92
-4.08
-2.80
-1.23
0.43
1.97
3.21
4.11
4.63
4.82
4.72
4.37
3.89
3.36
2.87
2.49
2.18
1.92
1.66
1.40
1.17
1.01
0.94
0.97
1.04
1.14
1.21
1.19
1.05
0.76
0.36
-0.10
-0.54
-0.93
-1.30
-1.73
-2.27
-2.92
-3.67
-4.45
-5.20
-5.88
-6.41
-6.69
-6.53
-5.80
-4.47
-2.68
-0.74
1.02
2.34
3.11
3.39
3.36
3.18
2.95
2.71
2.47
2.26
2.10
2.02
1.99
1.97
1.90
1.74
1.52
1.30
1.17
1.11
1.09
1.02
0.88
0.67
0.46
0.28
0.11
-0.13
-0.54
-1.12
-1.85
-2.62
-3.39
-4.15
-4.92
-5.69
-6.37
-6.75
-6.59
-5.74
-4.22
-2.26
-0.23
1.50
2.68
3.24
3.34
3.19
3.00
2.83
2.63
2.33
1.90
1.42
1.04
0.87
0.91
1.04
1.13
1.06
0.86
0.64
0.52
0.56
0.68
0.75
0.65
0.34
-0.10
-0.57
-0.96
-1.30
-1.63
-2.06
-2.67
-3.42
-4.22
-4.90
-5.28
-5.21
-4.64
-3.62
-2.30
-0.85
0.56
1.79
2.79
3.54
4.03
4.26
4.22
3.95
3.47
2.87
2.23
1.67
1.28
1.12
1.19
1.40
1.58
1.60
1.42
1.09
0.74
0.45
0.22
-0.07
-0.53
-1.21
-1.99
-2.72
-3.26
-3.58
-3.83
-4.23
-4.88
-5.76
-6.60
-7.07
-6.92
-6.07
-4.64
-2.93
-1.22
0.31
1.55
2.52
3.21
3.59
3.62
3.32
2.79
2.20
1.74
1.52
1.52
1.65
1.78
1.85
1.83
1.77
1.72
1.72
1.79
1.91
2.04
2.12
2.10
1.91
1.53
0.99
0.37
-0.27
-0.85
-1.40
-1.99
-2.74
-3.73
-4.94
-6.19
-7.17
-7.55
-7.13
-5.91
-4.11
-2.09
-0.17
1.44
2.68
3.58
4.16
4.41
4.32
3.92
3.33
2.71
2.22
1.95
1.91
2.05
2.30
2.61
2.93
3.20
3.38
3.43
3.33
3.06
2.60
1.97
1.20
0.35
-0.51
-1.30
-2.00
-2.58
-3.05
-3.43
-3.73
-4.04
-4.46
-5.13
-6.07
-7.14
-8.02
-8.35
-7.85
-6.50
-4.53
-2.34
-0.29
1.42
2.80
3.94
4.87
5.53
5.72
5.34
4.47
3.36
2.41
1.93
2.02
2.57
3.32
4.00
4.45
4.62
4.56
4.35
4.03
3.68
3.33
3.06
2.89
2.79
2.66
2.39
1.87
1.13
0.28
-0.51
-1.10
-1.44
-1.64
-1.90
-2.40
-3.22
-4.27
-5.35
-6.21
-6.65
-6.57
-5.97
-4.95
-3.62
-2.12
-0.60
0.80
1.99
2.91
3.59
4.04
4.31
4.38
4.28
4.03
3.68
3.33
3.08
2.97
2.99
3.09
3.22
3.35
3.47
3.57
3.63
3.60
3.44
3.12
2.69
2.24
1.88
1.67
1.60
1.61
1.57
1.40
1.02
0.44
-0.25
-0.99
-1.72
-2.39
-3.05
-3.75
-4.56
-5.47
-6.38
-7.10
-7.41
-7.11
-6.18
-4.75
-3.08
-1.45
-0.07
1.02
1.84
2.48
2.99
3.35
3.48
3.36
3.04
2.63
2.31
2.20
2.33
2.61
2.92
3.16
3.30
3.40
3.53
3.73
3.94
4.04
3.88
3.42
2.69
1.88
1.19
0.76
0.63
0.71
0.83
0.82
0.58
0.10
-0.56
-1.29
-2.00
-2.64
-3.21
-3.72
-4.19
-4.67
-5.21
-5.82
-6.41
-6.84
-6.90
-6.44
-5.41
-3.96
-2.36
-0.87
0.31
1.16
1.76
2.25
2.67
3.01
3.19
3.16
2.92
2.56
2.19
1.93
1.86
2.02
2.33
2.69
2.96
3.03
2.85
2.48
2.07
1.74
1.55
1.49
1.46
1.39
1.24
1.03
0.81
0.61
0.38
0.07
-0.38
-0.97
-1.64
-2.31
-2.94
-3.53
-4.15
-4.83
-5.57
-6.24
-6.64
-6.59
-6.01
-4.95
-3.58
-2.09
-0.66
0.63
1.71
2.57
3.17
3.45
3.44
3.20
2.84
2.49
2.23
2.07
1.99
1.92
1.85
1.77
1.68
1.60
1.49
1.35
1.16
0.97
0.84
0.80
0.85
0.94
0.94
0.75
0.31
-0.37
-1.20
-2.00
-2.67
-3.14
-3.43
-3.64
-3.86
-4.18
-4.61
-5.14
-5.69
-6.17
-6.45
-6.40
-5.90
-4.91
-3.50
-1.84
-0.15
1.37
2.58
3.43
3.96
4.25
4.38
4.37
4.25
4.00
3.63
3.17
2.72
2.35
2.17
2.20
2.42
2.75
3.09
3.37
3.54
3.62
3.59
3.45
3.20
2.82
2.31
1.69
1.02
0.35
-0.23
-0.67
-0.97
-1.15
-1.30
-1.52
-1.88
-2.45
-3.20
-4.06
-4.86
-5.40
-5.49
-5.03
-3.99
-2.52
-0.85
0.73
1.99
2.77
3.04
2.87
2.43
1.88
1.37
0.99
0.76
0.69
0.73
0.86
1.05
1.25
1.36
1.33
1.17
0.97
0.84
0.87
1.06
1.27
1.33
1.10
0.59
-0.06
-0.67
-1.10
-1.32
-1.41
-1.51
-1.70
-2.05
-2.55
-3.20
-3.97
-4.78
-5.46
-5.80
-5.59
-4.73
-3.35
-1.71
-0.15
1.04
1.78
2.11
2.21
2.21
2.20
2.19
2.16
2.10
2.03
1.96
1.91
1.86
1.82
1.80
1.80
1.85
1.94
2.05
2.13
2.13
2.02
1.78
1.43
1.00
0.54
0.07
-0.41
-0.92
-1.51
-2.15
-2.81
-3.43
-3.98
-4.51
-5.09
-5.75
-6.45
-7.04
-7.30
-7.07
-6.28
-5.04
-3.57
-2.13
-0.90
0.05
0.75
1.28
1.72
2.07
2.27
2.27
2.03
1.59
1.08
0.66
0.48
0.57
0.92
1.40
1.87
2.21
2.35
2.31
2.09
1.77
1.40
1.04
0.72
0.48
0.31
0.17
-0.01
-0.27
-0.60
-0.98
-1.37
-1.79
-2.32
-3.03
-3.90
-4.78
-5.42
-5.59
-5.16
-4.21
-2.97
-1.70
-0.59
0.31
1.04
1.67
2.22
2.59
2.68
2.46
1.98
1.43
1.01
0.85
0.95
1.21
1.45
1.56
1.54
1.46
1.45
1.58
1.82
2.06
2.15
2.01
1.61
1.03
0.37
-0.28
-0.84
-1.29
-1.67
-2.04
-2.48
-3.03
-3.68
-4.32
-4.82
-5.01
-4.74
-3.98
-2.79
-1.32
0.22
1.63
2.80
3.68
4.25
4.54
4.58
4.39
4.02
3.53
2.99
2.46
1.98
1.57
1.26
1.08
1.05
1.13
1.31
1.51
1.67
1.72
1.65
1.42
1.04
0.49
-0.22
-1.02
-1.82
-2.50
-3.01
-3.32
-3.53
-3.75
-4.10
-4.59
-5.12
-5.47
-5.45
-4.93
-3.94
-2.65
-1.27
0.02
1.12
2.02
2.72
3.18
3.33
3.10
2.58
1.95
1.47
1.34
1.60
2.08
2.54
2.74
2.65
2.36
2.09
1.96
2.00
2.08
2.05
1.82
1.42
0.97
0.57
0.27
0.00
-0.31
-0.75
-1.32
-1.99
-2.71
-3.43
-4.17
-4.91
-5.60
-6.10
-6.25
-5.88
-4.94
-3.52
-1.83
-0.15
1.26
2.27
2.86
3.15
3.27
3.36
3.44
3.47
3.38
3.11
2.69
2.21
1.79
1.53
1.47
1.54
1.64
1.71
1.72
1.75
1.86
2.07
2.28
2.33
2.09
1.52
0.70
-0.19
-0.98
-1.60
-2.05
-2.42
-2.80
-3.26
-3.80
-4.41
-5.01
-5.43
-5.51
-5.07
-4.05
-2.54
-0.82
0.81
2.08
2.91
3.38
3.65
3.86
4.04
4.13
4.03
3.71
3.23
2.70
2.24
1.89
1.64
1.43
1.25
1.17
1.29
1.63
2.12
2.55
2.69
2.40
1.71
0.81
-0.07
-0.76
-1.23
-1.52
-1.73
-1.92
-2.11
-2.34
-2.66
-3.18
-3.95
-4.90
-5.80
-6.32
-6.22
-5.39
-3.97
-2.20
-0.40
1.22
2.51
3.42
3.93
4.04
3.81
3.35
2.80
2.28
1.91
1.70
1.64
1.69
1.84
2.06
2.31
2.54
2.65
2.58
2.32
1.95
1.57
1.31
1.18
1.14
1.04
0.76
0.23
-0.48
-1.23
-1.82
-2.17
-2.31
-2.41
-2.65
-3.14
-3.85
-4.61
-5.18
-5.36
-5.05
-4.26
-3.07
-1.63
-0.13
1.28
2.41
3.15
3.41
3.27
2.86
2.39
2.01
1.78
1.66
1.58
1.47
1.32
1.18
1.11
1.12
1.18
1.25
1.30
1.34
1.40
1.49
1.57
1.55
1.36
0.97
0.42
-0.18
-0.73
-1.17
-1.49
-1.76
-2.08
-2.50
-3.05
-3.71
-4.38
-4.94
-5.26
-5.23
-4.79
-3.93
-2.76
-1.40
-0.05
1.13
2.04
2.66
3.04
3.22
3.26
3.14
2.86
2.44
1.95
1.53
1.28
1.25
1.41
1.63
1.79
1.79
1.63
1.36
1.08
0.85
0.69
0.61
0.57
0.53
0.45
0.27
-0.05
-0.54
-1.16
-1.80
-2.34
-2.71
-2.94
-3.16
-3.51
-4.08
-4.84
-5.61
-6.18
-6.33
-5.96
-5.08
-3.81
-2.29
-0.71
0.74
1.93
2.75
3.18
3.26
3.11
2.83
2.53
2.27
2.07
1.94
1.91
1.96
2.06
2.14
2.13
2.01
1.85
1.72
1.71
1.82
1.98
2.05
1.93
1.58
1.05
0.43
-0.17
-0.69
-1.11
-1.46
-1.77
-2.08
-2.39
-2.72
-3.07
-3.48
-3.95
-4.50
-5.03
-5.41
-5.45
-5.00
-4.04
-2.71
-1.26
0.04
1.01
1.64
2.05
2.37
2.64
2.83
2.85
2.64
2.25
1.81
1.49
1.39
1.52
1.78
2.04
2.21
2.28
2.28
2.27
2.29
2.35
2.40
2.40
2.33
2.18
1.97
1.69
1.32
0.83
0.22
-0.45
-1.10
-1.61
-1.92
-2.07
-2.19
-2.49
-3.11
-4.05
-5.14
-6.11
-6.64
-6.55
-5.81
-4.59
-3.11
-1.61
-0.23
0.97
1.98
2.76
3.25
3.41
3.26
2.86
2.37
1.94
1.69
1.67
1.86
2.18
2.53
2.82
2.98
2.98
2.81
2.52
2.20
1.92
1.73
1.63
1.62
1.64
1.66
1.66
1.62
1.51
1.27
0.87
0.32
-0.34
-0.98
-1.49
-1.77
-1.85
-1.82
-1.86
-2.12
-2.67
-3.48
-4.38
-5.22
-5.84
-6.13
-6.04
-5.52
-4.56
-3.20
-1.56
0.10
1.49
2.38
2.69
2.55
2.19
1.87
1.69
1.65
1.68
1.72
1.78
1.93
2.21
2.58
2.94
3.17
3.19
3.06
2.86
2.71
2.67
2.71
2.73
2.62
2.33
1.87
1.34
0.87
0.53
0.33
0.23
0.14
0.02
-0.13
-0.29
-0.46
-0.70
-1.06
-1.61
-2.31
-3.08
-3.80
-4.39
-4.85
-5.23
-5.54
-5.73
-5.67
-5.19
-4.21
-2.78
-1.11
0.49
1.75
2.51
2.78
2.73
2.55
2.37
2.21
2.04
1.78
1.44
1.09
0.83
0.70
0.70
0.77
0.87
0.98
1.12
1.34
1.62
1.92
2.15
2.21
2.03
1.63
1.07
0.50
0.05
-0.16
-0.19
-0.19
-0.36
-0.82
-1.53
-2.29
-2.84
-3.03
-2.89
-2.61
-2.44
-2.57
-3.03
-3.73
-4.48
-5.09
-5.36
-5.15
-4.39
-3.14
-1.57
0.06
1.49
2.55
3.21
3.58
3.75
3.80
3.74
3.59
3.38
3.14
2.92
2.74
2.52
2.23
1.85
1.44
1.14
1.04
1.16
1.46
1.83
2.19
2.47
2.66
2.70
2.52
2.05
1.28
0.34
-0.58
-1.27
-1.63
-1.70
-1.67
-1.75
-2.06
-2.61
-3.31
-4.07
-4.81
-5.50
-6.06
-6.37
-6.26
-5.60
-4.37
-2.74
-0.99
0.58
1.72
2.36
2.56
2.45
2.22
2.02
1.93
1.96
2.04
2.09
2.08
2.03
2.03
2.13
2.35
2.59
2.69
2.55
2.19
1.74
1.39
1.27
1.37
1.55
1.62
1.46
1.08
0.58
0.07
-0.38
-0.81
-1.31
-1.93
-2.64
-3.35
-3.95
-4.41
-4.77
-5.15
-5.61
-6.07
-6.38
-6.31
-5.68
-4.46
-2.79
-0.92
0.83
2.24
3.17
3.61
3.69
3.54
3.31
3.05
2.75
2.37
1.93
1.51
1.26
1.26
1.51
1.87
2.15
2.22
2.07
1.81
1.58
1.49
1.54
1.65
1.70
1.59
1.30
0.88
0.38
-0.10
-0.55
-0.97
-1.37
-1.80
-2.22
-2.61
-2.92
-3.17
-3.41
-3.72
-4.17
-4.70
-5.17
-5.34
-5.04
-4.20
-2.95
-1.50
-0.13
1.00
1.84
2.43
2.87
3.19
3.34
3.23
2.82
2.19
1.53
1.03
0.80
0.84
1.05
1.29
1.46
1.56
1.67
1.85
2.13
2.42
2.61
2.60
2.35
1.92
1.40
0.89
0.46
0.11
-0.18
-0.49
-0.83
-1.23
-1.65
-2.04
-2.41
-2.76
-3.18
-3.74
-4.47
-5.30
-6.05
-6.46
-6.30
-5.47
-4.03
-2.23
-0.38
1.24
2.45
3.24
3.70
3.97
4.10
4.11
3.98
3.67
3.22
2.69
2.22
1.89
1.74
1.75
1.85
1.95
2.01
2.04
2.05
2.09
2.14
2.19
2.17
2.02
1.71
1.25
0.71
0.15
-0.31
-0.64
-0.84
-0.96
-1.06
-1.20
-1.43
-1.74
-2.17
-2.76
-3.54
-4.45
-5.35
-5.99
-6.12
-5.60
-4.50
-3.05
-1.53
-0.19
0.89
1.73
2.42
3.01
3.50
3.83
3.96
3.86
3.56
3.10
2.54
1.97
1.48
1.14
1.02
1.11
1.35
1.64
1.86
1.90
1.70
1.31
0.80
0.31
-0.03
-0.14
0.00
0.33
0.74
1.11
1.38
1.50
1.47
1.28
0.98
0.61
0.21
-0.16
-0.49
-0.77
-1.03
-1.29
-1.61
-1.99
-2.46
-3.01
-3.61
-4.24
-4.84
-5.29
-5.48
-5.30
-4.71
-3.78
-2.65
-1.50
-0.48
0.32
0.92
1.39
1.83
2.27
2.68
2.95
2.99
2.80
2.43
2.05
1.78
1.69
1.76
1.88
1.90
1.78
1.55
1.30
1.12
1.06
1.08
1.11
1.10
1.01
0.85
0.63
0.32
-0.14
-0.75
-1.45
-2.15
-2.72
-3.13
-3.42
-3.73
-4.16
-4.73
-5.29
-5.62
-5.50
-4.85
-3.76
-2.45
-1.15
0.00
0.99
1.85
2.61
3.25
3.67
3.79
3.61
3.23
2.80
2.46
2.26
2.18
2.14
2.09
2.03
2.02
2.08
2.24
2.43
2.53
2.44
2.14
1.71
1.24
0.86
0.60
0.41
0.20
-0.11
-0.54
-1.05
-1.56
-2.02
-2.47
-2.97
-3.62
-4.43
-5.34
-6.17
-6.70
-6.77
-6.29
-5.27
-3.84
-2.15
-0.41
1.19
2.47
3.34
3.73
3.66
3.24
2.61
1.95
1.45
1.24
1.32
1.63
2.02
2.32
2.45
2.40
2.26
2.12
2.06
2.06
2.07
2.05
1.97
1.83
1.62
1.35
0.99
0.56
0.10
-0.33
-0.70
-1.01
-1.34
-1.75
-2.29
-2.97
-3.74
-4.51
-5.18
-5.63
-5.72
-5.34
-4.48
-3.21
-1.74
-0.29
0.96
1.91
2.55
2.91
3.06
3.06
2.94
2.79
2.64
2.54
2.47
2.39
2.24
2.01
1.75
1.55
1.49
1.58
1.80
2.06
2.27
2.40
2.42
2.31
2.05
1.61
1.01
0.32
-0.33
-0.84
-1.16
-1.33
-1.47
-1.75
-2.28
-3.07
-4.03
-4.97
-5.68
-5.96
-5.71
-4.92
-3.67
-2.12
-0.49
1.01
2.22
3.06
3.57
3.81
3.91
3.93
3.89
3.80
3.62
3.34
3.00
2.66
2.37
2.15
2.03
1.99
2.01
2.07
2.12
2.13
2.08
1.95
1.72
1.34
0.78
0.05
-0.81
-1.66
-2.31
-2.65
-2.65
-2.47
-2.35
-2.50
-3.02
-3.84
-4.73
-5.42
-5.70
-5.45
-4.73
-3.65
-2.37
-1.00
0.35
1.60
2.68
3.51
4.01
4.17
4.02
3.64
3.13
2.58
2.05
1.61
1.31
1.21
1.32
1.60
1.90
2.11
2.15
2.04
1.88
1.77
1.72
1.64
1.43
1.00
0.38
-0.31
-0.93
-1.35
-1.55
-1.62
-1.68
-1.88
-2.28
-2.90
-3.70
-4.55
-5.33
-5.89
-6.13
-5.96
-5.36
-4.35
-2.99
-1.45
0.07
1.41
2.47
3.22
3.70
3.94
3.92
3.60
3.01
2.30
1.70
1.44
1.62
2.18
2.87
3.40
3.59
3.44
3.10
2.75
2.49
2.32
2.11
1.75
1.21
0.57
-0.05
-0.53
-0.86
-1.09
-1.33
-1.66
-2.11
-2.65
-3.27
-3.94
-4.71
-5.55
-6.35
-6.91
-6.97
-6.37
-5.10
-3.38
-1.52
0.14
1.42
2.28
2.81
3.14
3.32
3.36
3.22
2.93
2.55
2.19
1.96
1.90
1.96
2.08
2.19
2.26
2.29
2.32
2.32
2.27
2.14
1.93
1.69
1.45
1.24
1.01
0.70
0.24
-0.36
-1.04
-1.68
-2.21
-2.61
-2.93
-3.25
-3.61
-4.02
-4.47
-4.94
-5.40
-5.83
-6.12
-6.12
-5.67
-4.68
-3.26
-1.62
-0.05
1.23
2.17
2.82
3.26
3.54
3.65
3.57
3.32
2.98
2.66
2.43
2.29
2.18
2.03
1.84
1.69
1.68
1.84
2.09
2.30
2.34
2.16
1.82
1.39
0.94
0.48
0.02
-0.44
-0.85
-1.11
-1.19
-1.12
-1.08
-1.26
-1.79
-2.67
-3.74
-4.80
-5.61
-6.05
-6.04
-5.59
-4.74
-3.60
-2.31
-1.01
0.15
1.12
1.88
2.47
2.93
3.24
3.37
3.32
3.13
2.89
2.68
2.55
2.50
2.49
2.47
2.44
2.42
2.40
2.37
2.26
2.05
1.73
1.37
1.03
0.73
0.44
0.11
-0.31
-0.80
-1.31
-1.76
-2.12
-2.40
-2.65
-2.93
-3.28
-3.67
-4.04
-4.27
-4.22
-3.82
-3.07
-2.03
-0.84
0.38
1.48
2.41
3.10
3.54
3.74
3.71
3.46
3.03
2.46
1.83
1.26
0.86
0.73
0.89
1.23
1.60
1.84
1.88
1.77
1.61
1.47
1.37
1.27
1.09
0.82
0.49
0.16
-0.11
-0.31
-0.46
-0.60
-0.75
-0.93
-1.19
-1.63
-2.33
-3.28
-4.32
-5.18
-5.53
-5.19
-4.18
-2.73
-1.17
0.22
1.28
2.02
2.53
2.86
3.03
3.03
2.84
2.50
2.07
1.66
1.35
1.17
1.15
1.25
1.40
1.53
1.59
1.57
1.53
1.51
1.54
1.56
1.46
1.16
0.68
0.13
-0.33
-0.62
-0.75
-0.89
-1.19
-1.74
-2.46
-3.18
-3.74
-4.09
-4.34
-4.62
-5.03
-5.47
-5.72
-5.52
-4.75
-3.49
-2.03
-0.69
0.32
0.99
1.47
1.92
2.42
2.88
3.14
3.07
2.70
2.19
1.78
1.64
1.79
2.12
2.43
2.59
2.57
2.44
2.30
2.21
2.17
2.14
2.06
1.90
1.70
1.47
1.22
0.92
0.54
0.07
-0.49
-1.05
-1.57
-1.98
-2.30
-2.58
-2.89
-3.29
-3.78
-4.31
-4.81
-5.16
-5.26
-5.03
-4.43
-3.47
-2.25
-0.91
0.36
1.40
2.10
2.48
2.60
2.58
2.52
2.47
2.41
2.30
2.14
1.96
1.86
1.90
2.09
2.36
2.60
2.72
2.69
2.54
2.36
2.19
2.06
1.90
1.69
1.40
1.07
0.79
0.61
0.57
0.59
0.57
0.37
-0.07
-0.73
-1.50
-2.20
-2.68
-2.90
-2.94
-2.95
-3.09
-3.43
-3.92
-4.37
-4.58
-4.41
-3.84
-2.96
-1.94
-0.93
-0.02
0.77
1.44
2.01
2.42
2.60
2.53
2.23
1.81
1.45
1.29
1.40
1.68
1.99
2.16
2.11
1.89
1.65
1.52
1.56
1.70
1.80
1.73
1.44
0.99
0.55
0.26
0.18
0.29
0.47
0.55
0.45
0.14
-0.30
-0.76
-1.15
-1.45
-1.69
-1.93
-2.23
-2.64
-3.13
-3.67
-4.17
-4.56
-4.74
-4.64
-4.21
-3.41
-2.31
-1.00
0.36
1.61
2.59
3.23
3.47
3.36
2.97
2.40
1.76
1.14
0.62
0.29
0.22
0.42
0.82
1.29
1.71
1.97
2.04
1.98
1.84
1.67
1.50
1.34
1.18
1.05
0.96
0.90
0.82
0.69
0.52
0.32
0.13
-0.04
-0.20
-0.41
-0.71
-1.13
-1.64
-2.20
-2.76
-3.32
-3.86
-4.41
-4.91
-5.30
-5.45
-5.25
-4.63
-3.63
-2.39
-1.11
0.01
0.88
1.46
1.81
2.04
2.22
2.38
2.51
2.54
2.44
2.18
1.82
1.42
1.10
0.88
0.78
0.74
0.73
0.75
0.81
0.95
1.16
1.38
1.53
1.53
1.37
1.10
0.84
0.66
0.59
0.56
0.50
0.32
-0.04
-0.58
-1.25
-1.95
-2.58
-3.08
-3.43
-3.68
-3.90
-4.13
-4.32
-4.35
-4.10
-3.50
-2.61
-1.57
-0.58
0.24
0.87
1.36
1.78
2.12
2.34
2.33
2.05
1.55
0.96
0.46
0.19
0.20
0.46
0.85
1.25
1.57
1.78
1.91
1.98
2.00
1.94
1.75
1.41
0.95
0.41
-0.15
-0.64
-1.02
-1.29
-1.46
-1.56
-1.63
-1.72
-1.82
-1.99
-2.25
-2.67
-3.29
-4.13
-5.06
-5.89
-6.34
-6.18
-5.34
-3.93
-2.23
-0.54
0.94
2.10
2.96
3.53
3.83
3.85
3.59
3.15
2.67
2.28
2.08
2.04
2.05
2.03
1.91
1.70
1.46
1.27
1.17
1.16
1.21
1.28
1.32
1.31
1.25
1.18
1.12
1.09
1.04
0.94
0.73
0.40
0.00
-0.38
-0.67
-0.85
-0.98
-1.20
-1.61
-2.21
-2.86
-3.31
-3.30
-2.70
-1.57
-0.15
1.26
2.39
3.13
3.50
3.61
3.53
3.31
2.98
2.58
2.17
1.81
1.51
1.25
0.98
0.67
0.34
0.07
-0.07
-0.07
0.05
0.20
0.30
0.29
0.18
-0.01
-0.22
-0.43
-0.66
-0.91
-1.19
-1.46
-1.73
-1.98
-2.27
-2.63
-3.10
-3.64
-4.16
-4.51
-4.59
-4.33
-3.73
-2.87
-1.83
-0.78
0.15
0.83
1.22
1.35
1.35
1.31
1.31
1.31
1.25
1.07
0.78
0.45
0.16
-0.02
-0.09
-0.06
0.05
0.23
0.49
0.75
0.93
0.94
0.72
0.30
-0.18
-0.60
-0.86
-0.99
-1.07
-1.23
-1.58
-2.13
-2.82
-3.49
-3.97
-4.09
-3.79
-3.09
-2.13
-1.08
-0.12
0.64
1.17
1.50
1.71
1.84
1.95
2.03
2.06
2.02
1.88
1.63
1.33
1.06
0.89
0.86
0.97
1.13
1.26
1.32
1.31
1.23
1.10
0.90
0.60
0.16
-0.39
-0.99
-1.54
-1.97
-2.26
-2.48
-2.76
-3.23
-3.92
-4.72
-5.39
-5.65
-5.30
-4.32
-2.90
-1.35
0.05
1.14
1.91
2.44
2.82
3.06
3.11
2.93
2.51
1.98
1.52
1.30
1.43
1.84
2.39
2.85
3.06
2.96
2.65
2.30
2.05
1.97
2.02
2.07
1.97
1.66
1.15
0.52
-0.10
-0.60
-0.92
-1.10
-1.21
-1.39
-1.73
-2.27
-2.94
-3.54
-3.87
-3.76
-3.20
-2.25
-1.08
0.14
1.30
2.29
3.05
3.53
3.70
3.61
3.37
3.09
2.86
2.67
2.50
2.30
2.05
1.81
1.60
1.44
1.29
1.10
0.82
0.45
0.06
-0.27
-0.46
-0.43
-0.22
0.10
0.38
0.48
0.32
-0.10
-0.66
-1.24
-1.76
-2.19
-2.54
-2.85
-3.14
-3.38
-3.57
-3.75
-4.00
-4.35
-4.78
-5.18
-5.36
-5.17
-4.54
-3.55
-2.40
-1.35
-0.55
-0.06
0.16
0.22
0.22
0.21
0.22
0.25
0.34
0.54
0.91
1.46
2.17
2.93
3.66
4.25
4.70
5.05
5.38
5.77
6.22
6.67
7.01
7.12
6.94
6.49
5.81
4.98
4.11
3.34
2.81
2.65
2.87
3.32
3.74
3.84
3.39
2.35
0.79
-1.13
-3.22
-5.24
-6.89
-7.84
-7.84
-6.81
-4.93
-2.63
-0.39
1.45
2.75
3.57
4.05
4.24
4.13
3.68
2.92
2.03
1.26
0.81
0.80
1.19
1.82
2.52
3.18
3.71
4.08
4.22
4.05
3.54
2.73
1.79
0.98
0.56
0.63
1.15
1.86
2.45
2.69
2.53
2.08
1.55
1.10
0.75
0.38
-0.20
-1.14
-2.42
-3.91
-5.34
-6.49
-7.23
-7.55
-7.59
-7.47
-7.26
-6.95
-6.48
-5.79
-4.88
-3.83
-2.75
-1.71
-0.80
-0.03
0.52
0.82
0.85
0.64
0.30
-0.03
-0.25
-0.30
-0.20
-0.01
0.24
0.53
0.84
1.16
1.49
1.77
1.98
2.09
2.07
1.90
1.56
1.12
0.64
0.26
0.04
0.02
0.12
0.20
0.16
-0.09
-0.51
-1.03
-1.54
-1.97
-2.27
-2.46
-2.58
-2.70
-2.88
-3.16
-3.52
-3.88
-4.11
-4.11
-3.80
-3.19
-2.37
-1.45
-0.55
0.24
0.86
1.30
1.56
1.66
1.63
1.48
1.26
0.98
0.66
0.32
-0.02
-0.32
-0.51
-0.57
-0.48
-0.29
-0.08
0.06
0.07
-0.06
-0.27
-0.46
-0.52
-0.45
-0.31
-0.22
-0.25
-0.41
-0.63
-0.79
-0.82
-0.75
-0.64
-0.56
-0.54
-0.55
-0.57
-0.62
-0.80
-1.19
-1.78
-2.46
-2.99
-3.16
-2.86
-2.16
-1.27
-0.43
0.19
0.59
0.85
1.11
1.41
1.69
1.80
1.64
1.18
0.53
-0.10
-0.52
-0.65
-0.51
-0.22
0.07
0.23
0.25
0.16
0.08
0.08
0.22
0.46
0.75
1.02
1.22
1.33
1.35
1.23
0.93
0.40
-0.33
-1.18
-1.98
-2.60
-2.94
-3.01
-2.91
-2.72
-2.51
-2.25
-1.89
-1.39
-0.78
-0.14
0.40
0.76
0.93
0.99
1.02
1.06
1.08
1.04
0.94
0.83
0.78
0.83
0.94
1.01
0.94
0.69
0.37
0.12
0.05
0.12
0.18
0.07
-0.28
-0.79
-1.27
-1.55
-1.60
-1.54
-1.54
-1.71
-2.06
-2.47
-2.84
-3.14
-3.39
-3.66
-3.93
-4.08
-3.97
-3.47
-2.59
-1.49
-0.35
0.64
1.42
1.98
2.35
2.53
2.47
2.13
1.51
0.75
0.05
-0.40
-0.48
-0.21
0.27
0.76
1.09
1.17
1.02
0.70
0.30
-0.12
-0.51
-0.81
-1.00
-1.10
-1.10
-1.05
-1.01
-1.04
-1.20
-1.57
-2.15
-2.92
-3.74
-4.45
-4.84
-4.81
-4.36
-3.59
-2.63
-1.63
-0.68
0.17
0.86
1.37
1.69
1.83
1.87
1.86
1.85
1.83
1.76
1.60
1.39
1.23
1.25
1.52
2.02
2.60
3.08
3.29
3.18
2.83
2.39
2.04
1.88
1.92
2.09
2.27
2.39
2.42
2.37
2.21
1.95
1.59
1.19
0.92
0.95
1.39
2.17
3.09
3.89
4.32
4.33
4.00
3.54
3.13
2.84
2.63
2.37
1.97
1.37
0.63
-0.11
-0.69
-1.02
-1.08
-0.95
-0.74
-0.56
-0.44
-0.36
-0.26
-0.11
0.08
0.28
0.44
0.52
0.55
0.51
0.39
0.18
-0.17
-0.65
-1.18
-1.64
-1.91
-1.92
-1.74
-1.48
-1.28
-1.21
-1.20
-1.11
-0.85
-0.39
0.13
0.53
0.67
0.54
0.27
0.02
-0.08
0.01
0.26
0.57
0.85
1.07
1.19
1.21
1.13
0.97
0.76
0.57
0.43
0.40
0.47
0.61
0.80
0.96
1.06
1.02
0.82
0.44
-0.09
-0.70
-1.33
-1.92
-2.44
-2.88
-3.24
-3.49
-3.56
-3.42
-3.03
-2.44
-1.74
-1.02
-0.36
0.19
0.62
0.93
1.09
1.10
0.95
0.70
0.43
0.25
0.20
0.28
0.40
0.47
0.40
0.21
-0.02
-0.19
-0.20
-0.05
0.18
0.39
0.50
0.47
0.33
0.14
-0.01
-0.09
-0.10
-0.11
-0.22
-0.53
-1.09
-1.82
-2.60
-3.23
-3.53
-3.41
-2.91
-2.15
-1.28
-0.49
0.13
0.54
0.75
0.86
0.92
0.99
1.03
0.96
0.70
0.25
-0.31
-0.82
-1.13
-1.16
-0.96
-0.67
-0.44
-0.33
-0.32
-0.33
-0.28
-0.15
0.02
0.16
0.18
0.06
-0.17
-0.48
-0.83
-1.17
-1.47
-1.69
-1.82
-1.83
-1.76
-1.65
-1.50
-1.32
-1.06
-0.69
-0.21
0.31
0.79
1.14
1.34
1.41
1.41
1.35
1.23
1.05
0.81
0.57
0.42
0.40
0.49
0.62
0.68
0.63
0.47
0.26
0.08
-0.02
-0.03
-0.00
0.02
0.01
-0.04
-0.14
-0.36
-0.72
-1.29
-2.00
-2.73
-3.29
-3.52
-3.35
-2.83
-2.10
-1.32
-0.57
0.09
0.66
1.10
1.37
1.44
1.38
1.29
1.30
1.45
1.67
1.81
1.74
1.39
0.87
0.35
0.02
-0.06
0.05
0.22
0.30
0.20
-0.06
-0.39
-0.69
-0.90
-1.02
-1.09
-1.18
-1.32
-1.51
-1.75
-2.00
-2.25
-2.47
-2.62
-2.63
-2.43
-1.98
-1.31
-0.51
0.27
0.91
1.35
1.62
1.76
1.82
1.80
1.69
1.46
1.12
0.74
0.44
0.29
0.32
0.48
0.63
0.65
0.46
0.07
-0.42
-0.84
-1.07
-1.05
-0.84
-0.56
-0.33
-0.24
-0.33
-0.56
-0.94
-1.40
-1.89
-2.34
-2.65
-2.75
-2.56
-2.08
-1.38
-0.54
0.27
0.94
1.36
1.53
1.51
1.43
1.41
1.50
1.70
1.94
2.13
2.22
2.22
2.17
2.10
2.02
1.91
1.73
1.48
1.21
0.96
0.80
0.73
0.69
0.62
0.44
0.16
-0.18
-0.51
-0.80
-1.06
-1.36
-1.75
-2.24
-2.80
-3.34
-3.73
-3.90
-3.77
-3.30
-2.55
-1.58
-0.54
0.41
1.12
1.52
1.65
1.67
1.76
2.05
2.55
3.11
3.52
3.57
3.24
2.63
1.97
1.48
1.27
1.31
1.46
1.60
1.65
1.61
1.53
1.44
1.36
1.29
1.25
1.24
1.27
1.27
1.13
0.74
0.06
-0.86
-1.88
-2.84
-3.63
-4.20
-4.57
-4.71
-4.59
-4.15
-3.37
-2.34
-1.23
-0.21
0.59
1.16
1.58
1.93
2.25
2.52
2.66
2.64
2.49
2.31
2.18
2.16
2.22
2.24
2.15
1.91
1.58
1.27
1.13
1.19
1.41
1.67
1.84
1.85
1.71
1.51
1.30
1.09
0.85
0.56
0.18
-0.24
-0.64
-1.01
-1.38
-1.80
-2.33
-2.92
-3.47
-3.86
-3.96
-3.75
-3.26
-2.56
-1.73
-0.84
0.05
0.89
1.60
2.13
2.46
2.58
2.55
2.40
2.21
2.06
2.00
2.07
2.25
2.44
2.52
2.38
2.01
1.52
1.07
0.80
0.78
0.95
1.15
1.28
1.24
1.08
0.84
0.57
0.30
0.01
-0.30
-0.62
-0.91
-1.18
-1.44
-1.77
-2.22
-2.84
-3.58
-4.36
-5.03
-5.43
-5.39
-4.86
-3.84
-2.51
-1.12
0.07
0.87
1.24
1.30
1.23
1.21
1.35
1.64
2.03
2.44
2.80
3.08
3.25
3.33
3.32
3.25
3.16
3.10
3.10
3.16
3.24
3.33
3.37
3.35
3.25
3.02
2.68
2.25
1.78
1.34
0.98
0.73
0.56
0.41
0.23
-0.07
-0.52
-1.14
-1.86
-2.58
-3.14
-3.43
-3.37
-2.99
-2.41
-1.77
-1.19
-0.72
-0.38
-0.20
-0.18
-0.32
-0.55
-0.76
-0.84
-0.74
-0.48
-0.17
0.10
0.25
0.29
0.27
0.24
0.22
0.23
0.27
0.35
0.48
0.63
0.75
0.78
0.67
0.42
0.09
-0.26
-0.56
-0.80
-1.01
-1.24
-1.50
-1.75
-1.94
-2.03
-2.06
-2.11
-2.24
-2.48
-2.74
-2.91
-2.86
-2.54
-1.97
-1.24
-0.46
0.29
0.98
1.58
2.09
2.47
2.68
2.69
2.51
2.18
1.76
1.37
1.07
0.91
0.87
0.88
0.87
0.79
0.64
0.50
0.43
0.45
0.53
0.62
0.65
0.61
0.55
0.49
0.40
0.23
-0.10
-0.61
-1.27
-1.99
-2.63
-3.11
-3.44
-3.63
-3.74
-3.80
-3.79
-3.66
-3.39
-2.97
-2.46
-1.92
-1.41
-0.93
-0.45
0.06
0.62
1.15
1.55
1.73
1.67
1.47
1.27
1.19
1.25
1.42
1.59
1.69
1.69
1.65
1.65
1.72
1.87
2.04
2.16
2.19
2.12
1.96
1.74
1.43
1.03
0.53
-0.05
-0.65
-1.15
-1.46
-1.54
-1.42
-1.19
-1.03
-1.01
-1.17
-1.39
-1.52
-1.40
-0.99
-0.33
0.39
1.00
1.38
1.48
1.37
1.13
0.88
0.70
0.64
0.69
0.80
0.92
0.94
0.84
0.63
0.39
0.20
0.12
0.16
0.31
0.54
0.86
1.25
1.64
1.91
1.92
1.60
0.98
0.23
-0.45
-0.93
-1.17
-1.28
-1.38
-1.52
-1.69
-1.81
-1.78
-1.59
-1.28
-0.97
-0.74
-0.62
-0.53
-0.37
-0.02
0.51
1.12
1.60
1.77
1.57
1.07
0.50
0.06
-0.08
0.09
0.45
0.86
1.18
1.34
1.36
1.27
1.09
0.80
0.41
-0.03
-0.45
-0.71
-0.74
-0.57
-0.34
-0.24
-0.39
-0.81
-1.39
-1.96
-2.39
-2.61
-2.63
-2.47
-2.13
-1.57
-0.80
0.08
0.92
1.50
1.74
1.61
1.24
0.79
0.40
0.17
0.11
0.20
0.39
0.62
0.83
0.99
1.08
1.08
0.99
0.82
0.57
0.25
-0.07
-0.36
-0.56
-0.65
-0.65
-0.60
-0.56
-0.58
-0.74
-1.08
-1.59
-2.19
-2.73
-3.02
-2.96
-2.57
-1.98
-1.40
-0.92
-0.54
-0.15
0.35
0.95
1.54
1.94
2.05
1.88
1.55
1.21
0.98
0.86
0.81
0.75
0.66
0.59
0.57
0.62
0.68
0.68
0.54
0.21
-0.27
-0.81
-1.29
-1.58
-1.64
-1.53
-1.39
-1.38
-1.60
-2.05
-2.58
-3.01
-3.15
-2.90
-2.28
-1.38
-0.38
0.57
1.36
1.94
2.30
2.45
2.39
2.12
1.70
1.21
0.80
0.59
0.66
0.97
1.37
1.69
1.82
1.71
1.43
1.09
0.78
0.52
0.32
0.15
0.01
-0.12
-0.23
-0.36
-0.54
-0.82
-1.21
-1.73
-2.36
-3.02
-3.61
-4.01
-4.12
-3.87
-3.29
-2.49
-1.62
-0.80
-0.10
0.49
1.03
1.54
1.98
2.30
2.46
2.45
2.33
2.17
2.03
1.93
1.85
1.80
1.73
1.62
1.45
1.22
0.93
0.62
0.34
0.10
-0.09
-0.24
-0.39
-0.52
-0.63
-0.71
-0.80
-0.97
-1.28
-1.77
-2.40
-3.07
-3.66
-4.05
-4.15
-3.92
-3.39
-2.60
-1.67
-0.73
0.14
0.88
1.50
2.00
2.40
2.64
2.66
2.43
2.00
1.51
1.14
1.07
1.31
1.72
2.09
2.21
2.05
1.70
1.39
1.26
1.38
1.59
1.73
1.64
1.31
0.84
0.40
0.07
-0.13
-0.25
-0.41
-0.63
-0.91
-1.23
-1.56
-1.91
-2.29
-2.68
-2.95
-2.98
-2.63
-1.88
-0.85
0.22
1.09
1.61
1.78
1.73
1.63
1.61
1.67
1.75
1.76
1.67
1.52
1.39
1.35
1.42
1.56
1.69
1.76
1.73
1.60
1.43
1.28
1.18
1.14
1.12
1.05
0.86
0.51
0.05
-0.48
-0.99
-1.39
-1.66
-1.81
-1.92
-2.09
-2.41
-2.94
-3.65
-4.43
-5.11
-5.49
-5.44
-4.90
-3.92
-2.66
-1.31
-0.07
0.96
1.75
2.33
2.74
2.98
3.03
2.84
2.42
1.87
1.34
0.99
0.91
1.05
1.27
1.38
1.28
0.98
0.59
0.26
0.08
0.04
0.08
0.06
-0.10
-0.44
-0.91
-1.39
-1.80
-2.06
-2.20
-2.27
-2.36
-2.49
-2.68
-2.92
-3.24
-3.65
-4.14
-4.65
-4.99
-4.93
-4.32
-3.17
-1.68
-0.14
1.13
1.99
2.43
2.58
2.57
2.49
2.37
2.19
1.94
1.64
1.37
1.20
1.18
1.29
1.46
1.61
1.69
1.69
1.69
1.74
1.82
1.88
1.83
1.59
1.18
0.68
0.24
-0.05
-0.15
-0.16
-0.18
-0.36
-0.76
-1.38
-2.17
-2.99
-3.69
-4.10
-4.06
-3.48
-2.40
-1.02
0.43
1.69
2.61
3.16
3.43
3.52
3.52
3.45
3.33
3.17
3.02
2.93
2.92
2.98
3.06
3.09
3.05
2.95
2.80
2.61
2.37
2.07
1.72
1.36
1.07
0.90
0.81
0.71
0.49
0.06
-0.55
-1.26
-1.95
-2.56
-3.11
-3.61
-4.04
-4.30
-4.28
-3.89
-3.17
-2.28
-1.38
-0.59
0.09
0.70
1.29
1.82
2.22
2.40
2.34
2.06
1.66
1.21
0.79
0.42
0.16
0.07
0.18
0.49
0.94
1.40
1.76
1.95
1.94
1.79
1.59
1.40
1.31
1.32
1.43
1.58
1.75
1.91
2.07
2.22
2.31
2.27
2.04
1.61
1.04
0.47
0.04
-0.14
-0.04
0.28
0.75
1.25
1.73
2.14
2.44
2.60
2.59
2.40
2.06
1.64
1.21
0.82
0.50
0.23
-0.01
-0.19
-0.29
-0.28
-0.18
-0.03
0.10
0.17
0.13
-0.00
-0.21
-0.47
-0.76
-1.06
-1.34
-1.56
-1.73
-1.85
-1.93
-2.00
-2.05
-2.07
-2.06
-2.01
-1.90
-1.74
-1.50
-1.20
-0.84
-0.46
-0.10
0.22
0.50
0.73
0.90
1.00
1.03
1.03
1.03
1.07
1.13
1.17
1.16
1.08
0.96
0.82
0.67
0.52
0.35
0.18
0.05
0.03
0.12
0.26
0.37
0.33
0.11
-0.27
-0.71
-1.14
-1.51
-1.84
-2.13
-2.37
-2.46
-2.36
-2.03
-1.57
-1.12
-0.82
-0.74
-0.80
-0.87
-0.79
-0.47
0.04
0.59
0.99
1.11
0.91
0.46
-0.07
-0.52
-0.75
-0.71
-0.47
-0.13
0.19
0.41
0.53
0.57
0.57
0.55
0.54
0.52
0.49
0.44
0.35
0.23
0.06
-0.21
-0.60
-1.09
-1.63
-2.06
-2.23
-2.05
-1.52
-0.79
-0.06
0.48
0.76
0.83
0.80
0.80
0.90
1.06
1.21
1.29
1.24
1.07
0.80
0.47
0.11
-0.26
-0.58
-0.84
-0.99
-1.02
-0.90
-0.65
-0.31
0.04
0.29
0.36
0.17
-0.26
-0.86
-1.53
-2.14
-2.58
-2.81
-2.87
-2.85
-2.81
-2.81
-2.81
-2.75
-2.54
-2.13
-1.58
-0.96
-0.39
0.07
0.43
0.76
1.10
1.44
1.71
1.78
1.58
1.15
0.59
0.05
-0.36
-0.58
-0.62
-0.51
-0.30
-0.00
0.36
0.71
0.95
1.01
0.87
0.58
0.27
0.02
-0.17
-0.35
-0.61
-0.96
-1.32
-1.61
-1.72
-1.68
-1.56
-1.47
-1.46
-1.48
-1.45
-1.26
-0.89
-0.42
0.04
0.38
0.52
0.46
0.22
-0.12
-0.48
-0.78
-0.93
-0.88
-0.65
-0.31
0.01
0.20
0.17
-0.03
-0.34
-0.62
-0.81
-0.91
-0.97
-1.06
-1.22
-1.44
-1.71
-1.98
-2.25
-2.49
-2.64
-2.62
-2.29
-1.57
-0.50
0.79
2.07
3.12
3.84
4.23
4.35
4.31
4.15
3.89
3.53
3.10
2.67
2.35
2.15
2.06
1.96
1.74
1.36
0.89
0.43
0.13
0.04
0.13
0.29
0.39
0.36
0.17
-0.12
-0.47
-0.85
-1.26
-1.71
-2.15
-2.50
-2.66
-2.55
-2.18
-1.65
-1.05
-0.53
-0.16
0.04
0.05
-0.08
-0.30
-0.54
-0.73
-0.82
-0.83
-0.83
-0.92
-1.14
-1.44
-1.71
-1.79
-1.61
-1.19
-0.69
-0.26
-0.04
-0.09
-0.36
-0.76
-1.18
-1.56
-1.88
-2.14
-2.34
-2.43
-2.38
-2.12
-1.65
-1.01
-0.31
0.31
0.72
0.91
0.92
0.86
0.83
0.88
0.98
1.06
1.06
0.95
0.74
0.46
0.13
-0.26
-0.69
-1.14
-1.54
-1.81
-1.89
-1.76
-1.49
-1.23
-1.14
-1.34
-1.87
-2.63
-3.44
-4.13
-4.53
-4.59
-4.32
-3.82
-3.15
-2.35
-1.43
-0.40
0.65
1.59
2.24
2.49
2.30
1.79
1.14
0.52
0.06
-0.20
-0.30
-0.26
-0.12
0.09
0.29
0.39
0.32
0.08
-0.23
-0.47
-0.53
-0.44
-0.37
-0.52
-1.04
-1.95
-3.06
-4.10
-4.81
-5.00
-4.63
-3.78
-2.60
-1.28
0.04
1.21
2.16
2.84
3.27
3.45
3.43
3.28
3.10
2.95
2.90
2.93
3.02
3.07
3.02
2.79
2.40
1.89
1.33
0.79
0.35
0.00
-0.27
-0.56
-0.93
-1.42
-2.02
-2.71
-3.42
-4.12
-4.79
-5.36
-5.74
-5.79
-5.40
-4.50
-3.14
-1.49
0.23
1.77
2.96
3.75
4.14
4.25
4.18
4.02
3.86
3.70
3.56
3.43
3.33
3.26
3.23
3.23
3.20
3.08
2.84
2.45
1.96
1.41
0.86
0.36
-0.08
-0.47
-0.82
-1.16
-1.53
-1.97
-2.48
-3.06
-3.68
-4.23
-4.60
-4.69
-4.41
-3.75
-2.77
-1.59
-0.36
0.74
1.59
2.10
2.30
2.29
2.19
2.11
2.09
2.12
2.18
2.27
2.42
2.64
2.90
3.08
3.07
2.77
2.26
1.69
1.28
1.16
1.31
1.58
1.73
1.61
1.17
0.52
-0.16
-0.73
-1.11
-1.38
-1.63
-2.00
-2.55
-3.29
-4.14
-4.99
-5.74
-6.24
-6.38
-6.07
-5.27
-4.03
-2.49
-0.86
0.63
1.82
2.68
3.24
3.57
3.76
3.84
3.82
3.70
3.50
3.25
3.01
2.83
2.75
2.81
2.99
3.23
3.45
3.55
3.49
3.25
2.87
2.43
2.01
1.66
1.38
1.15
0.89
0.55
0.10
-0.42
-0.93
-1.29
-1.45
-1.45
-1.42
-1.56
-1.99
-2.73
-3.66
-4.60
-5.35
-5.74
-5.71
-5.22
-4.35
-3.18
-1.85
-0.47
0.84
2.04
3.10
4.00
4.69
5.12
5.24
5.07
4.69
4.28
3.96
3.85
3.94
4.19
4.50
4.78
4.96
4.99
4.85
4.55
4.16
3.76
3.45
3.28
3.23
3.21
3.09
2.75
2.19
1.54
0.98
0.64
0.56
0.63
0.65
0.44
-0.02
-0.64
-1.22
-1.64
-1.89
-2.10
-2.43
-2.93
-3.57
-4.22
-4.75
-5.09
-5.24
-5.20
-4.95
-4.44
-3.64
-2.56
-1.30
-0.02
1.12
2.01
2.62
2.98
3.14
3.18
3.15
3.10
3.07
3.09
3.17
3.31
3.44
3.50
3.46
3.32
3.14
3.00
2.97
3.04
3.15
3.17
3.04
2.74
2.35
1.96
1.63
1.37
1.15
0.92
0.68
0.42
0.13
-0.21
-0.63
-1.11
-1.60
-2.02
-2.35
-2.59
-2.82
-3.12
-3.55
-4.10
-4.74
-5.42
-6.05
-6.52
-6.68
-6.44
-5.75
-4.71
-3.54
-2.47
-1.66
-1.18
-0.96
-0.88
-0.82
-0.75
-0.65
-0.57
-0.50
-0.42
-0.30
-0.06
0.33
0.90
1.64
2.51
3.47
4.44
5.33
6.06
6.50
6.59
6.30
5.68
4.90
4.15
3.59
3.29
3.15
3.01
2.69
2.12
1.35
0.55
-0.12
-0.58
-0.90
-1.20
-1.57
-2.03
-2.49
-2.85
-3.06
-3.10
-3.01
-2.76
-2.32
-1.63
-0.71
0.38
1.45
2.34
2.93
3.21
3.22
3.05
2.77
2.42
2.06
1.75
1.58
1.60
1.77
1.99
2.13
2.07
1.79
1.41
1.08
0.89
0.86
0.91
0.92
0.86
0.73
0.62
0.56
0.52
0.42
0.18
-0.21
-0.65
-0.99
-1.17
-1.24
-1.33
-1.59
-2.07
-2.65
-3.13
-3.35
-3.30
-3.10
-2.91
-2.86
-2.90
-2.93
-2.81
-2.50
-2.05
-1.55
-1.04
-0.52
0.05
0.66
1.22
1.58
1.66
1.43
1.01
0.56
0.20
0.00
-0.07
-0.06
0.03
0.20
0.48
0.85
1.20
1.43
1.41
1.18
0.84
0.50
0.24
0.05
-0.16
-0.42
-0.73
-1.00
-1.13
-1.08
-0.89
-0.68
-0.60
-0.72
-1.05
-1.52
-1.98
-2.30
-2.41
-2.30
-2.05
-1.76
-1.50
-1.28
-1.04
-0.71
-0.29
0.17
0.58
0.86
0.99
1.02
1.00
0.96
0.91
0.82
0.69
0.52
0.32
0.10
-0.10
-0.23
-0.24
-0.13
0.05
0.20
0.22
0.07
-0.22
-0.55
-0.82
-1.00
-1.15
-1.33
-1.60
-1.93
-2.22
-2.36
-2.32
-2.14
-1.94
-1.85
-1.88
-1.99
-2.04
-1.93
-1.61
-1.13
-0.61
-0.12
0.30
0.66
0.98
1.25
1.42
1.47
1.36
1.13
0.83
0.50
0.18
-0.11
-0.36
-0.54
-0.63
-0.63
-0.50
-0.25
0.08
0.45
0.75
0.87
0.74
0.40
-0.03
-0.39
-0.55
-0.54
-0.50
-0.60
-0.96
-1.52
-2.14
-2.62
-2.86
-2.85
-2.65
-2.34
-1.95
-1.47
-0.93
-0.38
0.10
0.43
0.61
0.70
0.79
0.90
0.99
0.97
0.76
0.39
-0.05
-0.38
-0.48
-0.32
0.01
0.38
0.64
0.73
0.66
0.49
0.31
0.18
0.12
0.12
0.19
0.28
0.36
0.37
0.25
-0.06
-0.56
-1.17
-1.78
-2.25
-2.45
-2.36
-2.01
-1.49
-0.90
-0.30
0.26
0.78
1.24
1.58
1.76
1.75
1.55
1.22
0.82
0.41
0.01
-0.35
-0.64
-0.77
-0.70
-0.42
-0.04
0.30
0.47
0.42
0.18
-0.09
-0.29
-0.38
-0.41
-0.46
-0.59
-0.79
-1.01
-1.21
-1.41
-1.65
-1.97
-2.32
-2.62
-2.73
-2.61
-2.29
-1.86
-1.44
-1.10
-0.86
-0.67
-0.49
-0.31
-0.11
0.10
0.31
0.47
0.53
0.48
0.36
0.24
0.22
0.34
0.58
0.81
0.92
0.82
0.53
0.13
-0.27
-0.60
-0.83
-1.02
-1.20
-1.36
-1.44
-1.39
-1.24
-1.09
-1.09
-1.36
-1.88
-2.50
-2.99
-3.16
-2.98
-2.52
-1.97
-1.50
-1.19
-1.02
-0.87
-0.66
-0.35
0.02
0.34
0.52
0.53
0.42
0.27
0.17
0.16
0.22
0.30
0.35
0.36
0.36
0.38
0.44
0.51
0.57
0.64
0.70
0.73
0.73
0.63
0.39
0.00
-0.51
-1.06
-1.58
-1.98
-2.23
-2.34
-2.30
-2.12
-1.80
-1.33
-0.74
-0.08
0.58
1.11
1.43
1.49
1.34
1.08
0.87
0.80
0.90
1.13
1.37
1.54
1.59
1.56
1.52
1.49
1.47
1.38
1.16
0.82
0.42
0.08
-0.12
-0.17
-0.15
-0.13
-0.20
-0.37
-0.58
-0.80
-1.01
-1.21
-1.48
-1.81
-2.20
-2.55
-2.75
-2.70
-2.39
-1.83
-1.13
-0.39
0.29
0.84
1.21
1.39
1.38
1.20
0.92
0.59
0.31
0.18
0.24
0.46
0.75
0.99
1.06
0.91
0.61
0.26
-0.02
-0.18
-0.26
-0.33
-0.48
-0.74
-1.02
-1.25
-1.33
-1.30
-1.25
-1.31
-1.60
-2.14
-2.82
-3.46
-3.90
-4.05
-3.91
-3.58
-3.16
-2.71
-2.20
-1.57
-0.82
0.01
0.81
1.48
1.97
2.30
2.55
2.80
3.05
3.28
3.46
3.55
3.53
3.39
3.13
2.75
2.28
1.81
1.47
1.35
1.47
1.76
2.03
2.14
2.00
1.64
1.17
0.69
0.29
-0.03
-0.30
-0.55
-0.82
-1.15
-1.58
-2.14
-2.80
-3.42
-3.85
-3.92
-3.59
-2.94
-2.13
-1.33
-0.61
0.00
0.55
1.04
1.42
1.64
1.66
1.53
1.35
1.26
1.35
1.62
2.02
2.43
2.72
2.82
2.70
2.42
2.10
1.90
1.89
2.06
2.30
2.46
2.42
2.14
1.70
1.20
0.73
0.35
0.05
-0.19
-0.38
-0.55
-0.69
-0.86
-1.08
-1.40
-1.80
-2.21
-2.57
-2.79
-2.80
-2.63
-2.29
-1.85
-1.32
-0.76
-0.17
0.43
1.03
1.62
2.13
2.53
2.74
2.72
2.48
2.12
1.76
1.53
1.46
1.53
1.66
1.77
1.82
1.86
1.93
2.04
2.16
2.25
2.25
2.15
1.99
1.78
1.54
1.26
0.94
0.63
0.36
0.18
0.07
-0.03
-0.20
-0.50
-0.95
-1.53
-2.17
-2.79
-3.32
-3.67
-3.81
-3.71
-3.34
-2.75
-1.97
-1.10
-0.23
0.55
1.15
1.53
1.69
1.69
1.61
1.48
1.36
1.24
1.15
1.13
1.22
1.44
1.74
2.02
2.16
2.10
1.84
1.49
1.15
0.90
0.78
0.74
0.73
0.71
0.65
0.50
0.24
-0.13
-0.55
-0.93
-1.17
-1.25
-1.24
-1.29
-1.58
-2.20
-3.08
-4.01
-4.72
-4.96
-4.63
-3.81
-2.68
-1.50
-0.47
0.32
0.89
1.32
1.71
2.09
2.44
2.72
2.94
3.13
3.38
3.72
4.09
4.32
4.26
3.82
3.04
2.06
1.02
0.03
-0.86
-1.63
-2.20
-2.45
-2.27
-1.65
-0.69
0.38
1.33
2.00
2.29
2.21
1.81
1.15
0.33
-0.50
-1.18
-1.52
-1.48
-1.09
-0.55
-0.08
0.08
-0.15
-0.73
-1.45
-2.05
-2.33
-2.19
-1.71
-1.05
-0.40
0.14
0.56
0.99
1.55
2.29
3.19
4.10
4.79
5.08
4.86
4.15
3.06
1.79
0.51
-0.61
-1.49
-2.05
-2.23
-1.99
-1.35
-0.44
0.50
1.18
1.36
0.95
0.01
-1.26
-2.62
-3.86
-4.83
-5.46
-5.77
-5.82
-5.76
-5.71
-5.76
-5.87
-5.93
-5.78
-5.29
-4.45
-3.32
-2.07
-0.84
0.23
1.08
1.69
2.12
2.43
2.71
2.99
3.23
3.39
3.38
3.19
2.86
2.48
2.15
1.92
1.79
1.70
1.62
1.52
1.41
1.29
1.13
0.91
0.59
0.18
-0.26
-0.66
-0.96
-1.16
-1.31
-1.49
-1.73
-2.07
-2.48
-2.96
-3.50
-4.05
-4.51
-4.72
-4.51
-3.80
-2.65
-1.28
0.03
1.06
1.74
2.11
2.30
2.40
2.42
2.31
2.04
1.62
1.21
0.94
0.91
1.11
1.39
1.58
1.58
1.38
1.08
0.84
0.74
0.78
0.85
0.80
0.56
0.14
-0.32
-0.69
-0.90
-1.00
-1.16
-1.51
-2.13
-2.93
-3.70
-4.25
-4.46
-4.33
-3.92
-3.32
-2.56
-1.67
-0.67
0.34
1.27
2.01
2.52
2.81
2.91
2.87
2.75
2.59
2.44
2.30
2.16
1.97
1.69
1.36
1.07
0.95
1.07
1.41
1.79
2.00
1.86
1.35
0.60
-0.17
-0.76
-1.06
-1.10
-1.03
-1.00
-1.14
-1.47
-1.94
-2.46
-2.96
-3.40
-3.73
-3.90
-3.86
-3.55
-2.92
-2.01
-0.94
0.16
1.13
1.84
2.28
2.49
2.57
2.60
2.65
2.67
2.61
2.46
2.23
1.98
1.80
1.70
1.65
1.58
1.45
1.25
1.06
0.92
0.89
0.94
0.97
0.90
0.70
0.38
0.01
-0.36
-0.69
-1.03
-1.40
-1.81
-2.22
-2.58
-2.85
-3.08
-3.33
-3.63
-3.94
-4.14
-4.11
-3.78
-3.16
-2.35
-1.44
-0.54
0.29
1.00
1.55
1.89
2.03
2.03
1.99
1.94
1.90
1.80
1.63
1.41
1.27
1.30
1.53
1.89
2.20
2.33
2.23
1.98
1.69
1.49
1.39
1.33
1.24
1.05
0.77
0.43
0.06
-0.34
-0.78
-1.29
-1.86
-2.46
-3.02
-3.46
-3.74
-3.84
-3.79
-3.63
-3.40
-3.12
-2.80
-2.39
-1.87
-1.23
-0.46
0.38
1.27
2.14
2.91
3.46
3.68
3.52
3.02
2.36
1.78
1.45
1.46
1.71
2.01
2.20
2.20
2.03
1.79
1.53
1.28
1.02
0.75
0.48
0.28
0.19
0.18
0.20
0.17
0.02
-0.30
-0.77
-1.35
-1.96
-2.51
-2.93
-3.19
-3.29
-3.27
-3.14
-2.89
-2.50
-1.93
-1.20
-0.37
0.47
1.22
1.83
2.30
2.64
2.85
2.91
2.80
2.53
2.14
1.73
1.40
1.22
1.17
1.21
1.24
1.22
1.13
1.01
0.90
0.79
0.68
0.55
0.40
0.25
0.13
0.07
0.05
0.04
-0.01
-0.15
-0.39
-0.73
-1.15
-1.61
-2.02
-2.36
-2.58
-2.69
-2.68
-2.54
-2.22
-1.70
-0.97
-0.09
0.84
1.70
2.38
2.80
2.98
2.95
2.80
2.61
2.43
2.29
2.17
2.03
1.86
1.67
1.50
1.39
1.34
1.29
1.20
1.05
0.84
0.64
0.51
0.47
0.51
0.55
0.51
0.31
-0.02
-0.44
-0.90
-1.34
-1.78
-2.23
-2.71
-3.17
-3.58
-3.86
-4.01
-4.00
-3.84
-3.54
-3.09
-2.49
-1.77
-1.01
-0.32
0.21
0.53
0.67
0.66
0.53
0.30
0.01
-0.27
-0.49
-0.57
-0.51
-0.35
-0.19
-0.11
-0.13
-0.24
-0.42
-0.63
-0.85
-1.11
-1.41
-1.73
-2.05
-2.37
-2.69
-3.06
-3.50
-4.02
-4.60
-5.18
-5.69
-6.03
-6.08
-5.70
-4.85
-3.55
-1.97
-0.33
1.11
2.20
2.91
3.32
3.54
3.65
3.67
3.61
3.48
3.34
3.25
3.27
3.35
3.44
3.44
3.33
3.16
3.02
2.98
3.06
3.17
3.19
3.05
2.74
2.36
2.03
1.80
1.66
1.49
1.16
0.61
-0.12
-0.91
-1.60
-2.09
-2.34
-2.36
-2.14
-1.66
-0.92
0.03
1.06
1.97
2.64
3.02
3.15
3.16
3.12
3.04
2.92
2.73
2.49
2.21
1.93
1.61
1.23
0.78
0.34
0.04
0.02
0.31
0.84
1.41
1.85
2.05
2.03
1.85
1.59
1.27
0.87
0.35
-0.29
-0.99
-1.65
-2.15
-2.42
-2.42
-2.16
-1.68
-1.07
-0.44
0.08
0.43
0.61
0.69
0.75
0.86
0.97
1.01
0.89
0.60
0.23
-0.11
-0.31
-0.36
-0.31
-0.26
-0.25
-0.28
-0.29
-0.26
-0.20
-0.19
-0.30
-0.53
-0.78
-0.94
-0.91
-0.73
-0.51
-0.46
-0.68
-1.17
-1.77
-2.29
-2.54
-2.43
-1.99
-1.32
-0.58
0.08
0.57
0.85
0.98
1.06
1.19
1.35
1.49
1.47
1.26
0.91
0.60
0.50
0.70
1.11
1.55
1.81
1.82
1.61
1.30
1.02
0.83
0.71
0.57
0.37
0.05
-0.42
-1.03
-1.71
-2.37
-2.89
-3.18
-3.18
-2.92
-2.46
-1.88
-1.25
-0.59
0.04
0.56
0.91
1.07
1.10
1.10
1.15
1.29
1.48
1.59
1.53
1.31
0.97
0.64
0.41
0.34
0.39
0.50
0.59
0.61
0.54
0.37
0.13
-0.18
-0.51
-0.82
-1.08
-1.28
-1.45
-1.57
-1.66
-1.69
-1.63
-1.46
-1.15
-0.71
-0.16
0.42
0.95
1.33
1.48
1.36
0.99
0.49
-0.04
-0.46
-0.69
-0.69
-0.49
-0.16
0.21
0.53
0.75
0.87
0.92
0.89
0.79
0.60
0.31
-0.08
-0.50
-0.91
-1.27
-1.57
-1.85
-2.13
-2.37
-2.50
-2.44
-2.15
-1.64
-1.01
-0.33
0.32
0.87
1.29
1.52
1.54
1.35
0.99
0.53
0.06
-0.36
-0.71
-0.99
-1.24
-1.45
-1.62
-1.74
-1.85
-1.95
-2.07
-2.22
-2.34
-2.44
-2.52
-2.65
-2.88
-3.25
-3.70
-4.09
-4.25
-4.06
-3.54
-2.78
-1.93
-1.14
-0.41
0.28
0.98
1.68
2.27
2.63
2.69
2.48
2.14
1.85
1.73
1.80
1.97
2.11
2.14
2.07
1.95
1.85
1.79
1.73
1.57
1.23
0.72
0.09
-0.56
-1.14
-1.64
-2.14
-2.72
-3.44
-4.26
-5.07
-5.68
-5.96
-5.87
-5.46
-4.90
-4.37
-3.98
-3.79
-3.73
-3.68
-3.59
-3.45
-3.29
-3.20
-3.20
-3.24
-3.24
-3.09
-2.74
-2.23
-1.64
-1.07
-0.61
-0.31
-0.17
-0.14
-0.15
-0.10
0.10
0.47
0.91
1.30
1.49
1.39
1.03
0.49
-0.10
-0.65
-1.10
-1.39
-1.48
-1.30
-0.84
-0.14
0.68
1.51
2.26
2.90
3.47
4.02
4.54
4.99
5.30
5.39
5.25
4.90
4.36
3.70
2.98
2.30
1.78
1.54
1.63
1.99
2.46
2.79
2.80
2.43
1.80
1.10
0.54
0.21
0.08
0.07
0.08
0.08
0.05
-0.02
-0.17
-0.50
-1.04
-1.74
-2.39
-2.73
-2.56
-1.82
-0.66
0.65
1.85
2.79
3.46
3.97
4.43
4.89
5.30
5.53
5.54
5.35
5.07
4.83
4.72
4.76
4.89
5.05
5.21
5.33
5.41
5.44
5.36
5.15
4.79
4.34
3.84
3.37
2.94
2.53
2.10
1.62
1.11
0.62
0.19
-0.16
-0.46
-0.75
-1.08
-1.45
-1.85
-2.29
-2.77
-3.31
-3.89
-4.42
-4.73
-4.68
-4.19
-3.32
-2.28
-1.33
-0.68
-0.42
-0.47
-0.67
-0.86
-0.91
-0.83
-0.69
-0.58
-0.58
-0.74
-1.01
-1.32
-1.58
-1.70
-1.66
-1.53
-1.38
-1.33
-1.39
-1.50
-1.54
-1.41
-1.08
-0.62
-0.13
0.28
0.60
0.84
1.04
1.23
1.43
1.63
1.84
2.08
2.32
2.50
2.55
2.42
2.12
1.73
1.40
1.28
1.46
1.96
2.69
3.53
4.34
5.05
5.61
6.00
6.18
6.12
5.76
5.12
4.28
3.41
2.70
2.28
2.15
2.20
2.25
2.11
1.70
1.03
0.20
-0.67
-1.44
-2.05
-2.48
-2.74
-2.85
-2.85
-2.74
-2.56
-2.35
-2.18
-2.09
-2.09
-2.14
-2.18
-2.19
-2.17
-2.19
-2.34
-2.66
-3.09
-3.51
-3.76
-3.70
-3.28
-2.54
-1.58
-0.57
0.34
1.05
1.49
1.69
1.72
1.68
1.61
1.54
1.45
1.31
1.14
0.97
0.88
0.89
0.95
0.98
0.89
0.65
0.31
-0.06
-0.35
-0.51
-0.50
-0.32
-0.03
0.28
0.46
0.35
-0.16
-1.03
-2.06
-2.98
-3.53
-3.65
-3.45
-3.21
-3.19
-3.49
-4.06
-4.67
-5.08
-5.16
-4.88
-4.37
-3.73
-3.09
-2.46
-1.87
-1.30
-0.80
-0.44
-0.25
-0.24
-0.31
-0.35
-0.24
-0.00
0.29
0.52
0.57
0.47
0.29
0.15
0.08
0.09
0.16
0.28
0.50
0.86
1.37
1.90
2.25
2.26
1.88
1.23
0.50
-0.09
-0.42
-0.50
-0.42
-0.29
-0.18
-0.13
-0.15
-0.26
-0.46
-0.72
-0.95
-1.12
-1.22
-1.28
-1.41
-1.64
-1.97
-2.26
-2.35
-2.13
-1.57
-0.77
0.11
0.88
1.45
1.76
1.83
1.70
1.44
1.09
0.73
0.41
0.15
-0.03
-0.13
-0.16
-0.15
-0.11
-0.08
-0.10
-0.20
-0.36
-0.54
-0.67
-0.70
-0.59
-0.34
-0.03
0.30
0.55
0.68
0.64
0.43
0.06
-0.39
-0.83
-1.14
-1.27
-1.22
-1.06
-0.92
-0.91
-1.08
-1.41
-1.81
-2.19
-2.45
-2.53
-2.40
-2.10
-1.63
-1.05
-0.44
0.13
0.60
0.95
1.18
1.33
1.43
1.47
1.39
1.14
0.70
0.10
-0.49
-0.90
-1.00
-0.78
-0.34
0.13
0.48
0.61
0.59
0.52
0.51
0.61
0.74
0.78
0.62
0.26
-0.21
-0.63
-0.86
-0.88
-0.77
-0.66
-0.68
-0.86
-1.16
-1.49
-1.77
-2.01
-2.26
-2.56
-2.91
-3.19
-3.27
-3.02
-2.42
-1.55
-0.57
0.34
1.03
1.40
1.49
1.37
1.16
0.97
0.86
0.84
0.87
0.92
0.92
0.88
0.77
0.64
0.51
0.38
0.27
0.15
-0.01
-0.22
-0.45
-0.66
-0.76
-0.69
-0.46
-0.17
0.07
0.15
0.06
-0.16
-0.42
-0.68
-0.95
-1.31
-1.82
-2.46
-3.09
-3.57
-3.79
-3.77
-3.62
-3.43
-3.22
-2.92
-2.40
-1.64
-0.71
0.21
0.97
1.51
1.87
2.17
2.44
2.65
2.72
2.58
2.27
1.89
1.60
1.45
1.45
1.52
1.57
1.55
1.44
1.24
1.02
0.83
0.70
0.66
0.66
0.63
0.48
0.19
-0.22
-0.66
-1.02
-1.23
-1.30
-1.29
-1.27
-1.32
-1.45
-1.67
-1.95
-2.28
-2.69
-3.16
-3.67
-4.11
-4.33
-4.18
-3.55
-2.51
-1.23
0.03
1.03
1.64
1.91
1.97
1.97
1.99
2.05
2.13
2.19
2.25
2.33
2.42
2.45
2.34
2.05
1.62
1.18
0.86
0.76
0.88
1.14
1.42
1.62
1.70
1.67
1.57
1.42
1.20
0.90
0.46
-0.14
-0.90
-1.78
-2.64
-3.35
-3.77
-3.86
-3.66
-3.34
-3.11
-3.14
-3.47
-4.00
-4.50
-4.73
-4.55
-3.94
-3.00
-1.91
-0.79
0.25
1.17
1.93
2.49
2.80
2.85
2.66
2.34
1.99
1.70
1.54
1.51
1.59
1.76
1.94
2.04
1.97
1.67
1.15
0.51
-0.10
-0.54
-0.69
-0.58
-0.31
-0.06
-0.01
-0.25
-0.75
-1.38
-1.99
-2.44
-2.68
-2.75
-2.78
-2.88
-3.14
-3.59
-4.13
-4.59
-4.78
-4.52
-3.74
-2.49
-0.95
0.62
1.95
2.87
3.36
3.48
3.38
3.18
2.94
2.68
2.42
2.19
2.07
2.09
2.26
2.47
2.57
2.47
2.17
1.76
1.40
1.20
1.15
1.15
1.08
0.90
0.64
0.41
0.28
0.26
0.25
0.12
-0.23
-0.80
-1.51
-2.24
-2.92
-3.54
-4.15
-4.75
-5.30
-5.65
-5.65
-5.18
-4.23
-2.92
-1.44
-0.01
1.21
2.10
2.64
2.92
3.02
3.06
3.09
3.11
3.06
2.90
2.61
2.27
1.97
1.79
1.75
1.81
1.86
1.86
1.82
1.75
1.67
1.57
1.38
1.06
0.61
0.10
-0.39
-0.82
-1.18
-1.55
-2.00
-2.59
-3.27
-3.98
-4.57
-4.93
-4.93
-4.55
-3.82
-2.83
-1.73
-0.62
0.39
1.30
2.08
2.72
3.19
3.47
3.52
3.37
3.05
2.63
2.19
1.80
1.54
1.45
1.52
1.71
1.91
2.08
2.17
2.21
2.22
2.18
2.05
1.76
1.32
0.78
0.30
0.02
-0.03
0.09
0.15
-0.04
-0.65
-1.64
-2.83
-3.92
-4.63
-4.71
-4.10
-2.86
-1.22
0.56
2.24
3.63
4.63
5.21
5.38
5.24
4.89
4.46
4.07
3.76
3.53
3.31
3.01
2.59
2.06
1.49
1.01
0.74
0.73
0.97
1.32
1.65
1.82
1.76
1.49
1.07
0.54
-0.08
-0.80
-1.59
-2.39
-3.11
-3.71
-4.20
-4.65
-5.08
-5.42
-5.47
-5.05
-4.09
-2.68
-1.05
0.54
1.92
3.03
3.89
4.52
4.87
4.87
4.52
3.88
3.13
2.47
2.03
1.81
1.74
1.71
1.68
1.61
1.53
1.43
1.31
1.15
0.95
0.74
0.53
0.36
0.21
0.08
-0.07
-0.29
-0.62
-1.13
-1.82
-2.65
-3.51
-4.25
-4.75
-4.92
-4.76
-4.26
-3.42
-2.26
-0.84
0.68
2.07
3.15
3.79
4.05
4.08
4.01
3.90
3.72
3.41
2.96
2.46
2.01
1.67
1.44
1.24
1.01
0.74
0.50
0.37
0.40
0.56
0.75
0.85
0.79
0.57
0.23
-0.14
-0.47
-0.74
-0.99
-1.29
-1.72
-2.32
-3.02
-3.69
-4.14
-4.23
-3.91
-3.23
-2.30
-1.26
-0.22
0.76
1.63
2.32
2.77
2.92
2.76
2.35
1.81
1.29
0.88
0.62
0.46
0.35
0.26
0.18
0.13
0.12
0.12
0.06
-0.06
-0.22
-0.33
-0.34
-0.25
-0.17
-0.22
-0.46
-0.83
-1.14
-1.27
-1.19
-1.04
-1.05
-1.39
-2.11
-3.04
-3.91
-4.49
-4.62
-4.26
-3.48
-2.38
-1.08
0.28
1.57
2.64
3.38
3.77
3.82
3.60
3.20
2.69
2.14
1.63
1.24
1.03
1.01
1.10
1.22
1.27
1.23
1.15
1.10
1.11
1.16
1.17
1.04
0.75
0.34
-0.08
-0.38
-0.50
-0.47
-0.38
-0.37
-0.53
-0.93
-1.53
-2.30
-3.12
-3.87
-4.43
-4.66
-4.48
-3.86
-2.87
-1.65
-0.35
0.89
1.95
2.77
3.29
3.48
3.35
2.96
2.42
1.87
1.45
1.18
1.06
1.00
0.96
0.89
0.83
0.84
0.95
1.18
1.45
1.68
1.79
1.74
1.51
1.16
0.72
0.23
-0.25
-0.70
-1.09
-1.39
-1.58
-1.69
-1.78
-1.91
-2.18
-2.59
-3.10
-3.56
-3.79
-3.66
-3.08
-2.09
-0.81
0.57
1.85
2.87
3.53
3.79
3.70
3.35
2.85
2.29
1.71
1.17
0.74
0.47
0.43
0.63
0.97
1.32
1.55
1.56
1.36
1.02
0.64
0.30
0.05
-0.11
-0.18
-0.22
-0.27
-0.39
-0.60
-0.87
-1.15
-1.37
-1.55
-1.73
-1.99
-2.43
-3.07
-3.83
-4.53
-4.98
-4.98
-4.47
-3.52
-2.32
-1.07
0.04
0.91
1.54
1.96
2.20
2.30
2.27
2.15
2.01
1.90
1.85
1.80
1.69
1.48
1.18
0.86
0.61
0.48
0.47
0.52
0.56
0.56
0.50
0.39
0.23
0.03
-0.18
-0.35
-0.43
-0.42
-0.36
-0.35
-0.49
-0.84
-1.39
-2.05
-2.72
-3.29
-3.70
-3.89
-3.83
-3.50
-2.90
-2.07
-1.09
-0.06
0.91
1.74
2.37
2.76
2.91
2.83
2.59
2.25
1.92
1.66
1.48
1.35
1.18
0.92
0.58
0.21
-0.10
-0.31
-0.44
-0.53
-0.66
-0.83
-0.97
-1.03
-0.99
-0.91
-0.88
-0.99
-1.27
-1.62
-1.98
-2.31
-2.63
-3.03
-3.54
-4.11
-4.59
-4.79
-4.56
-3.91
-2.95
-1.87
-0.86
-0.02
0.66
1.22
1.72
2.16
2.49
2.64
2.61
2.44
2.22
2.05
1.95
1.90
1.79
1.57
1.20
0.71
0.20
-0.24
-0.52
-0.57
-0.39
-0.07
0.26
0.43
0.31
-0.12
-0.77
-1.46
-2.00
-2.27
-2.27
-2.12
-2.00
-2.08
-2.42
-2.98
-3.59
-4.03
-4.11
-3.75
-2.96
-1.88
-0.70
0.43
1.40
2.14
2.60
2.78
2.66
2.32
1.87
1.48
1.25
1.20
1.26
1.33
1.33
1.26
1.14
1.06
1.03
1.05
1.09
1.15
1.21
1.27
1.29
1.24
1.08
0.79
0.41
-0.01
-0.44
-0.83
-1.17
-1.44
-1.63
-1.77
-1.95
-2.22
-2.62
-3.09
-3.49
-3.69
-3.57
-3.14
-2.47
-1.70
-0.95
-0.35
0.04
0.24
0.31
0.37
0.54
0.94
1.58
2.38
3.22
3.97
4.50
4.74
4.70
4.39
3.95
3.50
3.20
3.14
3.31
3.57
3.71
3.57
3.08
2.32
1.45
0.67
0.08
-0.27
-0.44
-0.56
-0.76
-1.19
-1.90
-2.84
-3.86
-4.71
-5.15
-5.03
-4.32
-3.15
-1.72
-0.27
1.01
2.02
2.71
3.11
3.27
3.29
3.26
3.24
3.25
3.29
3.31
3.23
2.99
2.58
2.02
1.43
0.92
0.65
0.67
0.96
1.41
1.84
2.07
1.99
1.65
1.13
0.59
0.17
-0.09
-0.20
-0.26
-0.36
-0.62
-1.11
-1.85
-2.82
-3.89
-4.86
-5.47
-5.51
-4.88
-3.68
-2.12
-0.47
1.03
2.24
3.12
3.66
3.86
3.75
3.41
2.97
2.61
2.46
2.53
2.73
2.87
2.85
2.62
2.29
1.99
1.86
1.94
2.16
2.41
2.55
2.52
2.30
1.93
1.48
1.03
0.63
0.29
0.00
-0.23
-0.45
-0.65
-0.88
-1.19
-1.61
-2.16
-2.77
-3.32
-3.65
-3.64
-3.22
-2.45
-1.44
-0.36
0.66
1.50
2.15
2.59
2.84
2.92
2.81
2.53
2.15
1.76
1.47
1.34
1.38
1.50
1.63
1.71
1.74
1.74
1.72
1.67
1.52
1.25
0.84
0.34
-0.19
-0.68
-1.11
-1.49
-1.82
-2.10
-2.36
-2.64
-3.02
-3.56
-4.28
-5.12
-5.94
-6.57
-6.90
-6.91
-6.65
-6.26
-5.84
-5.47
-5.13
-4.80
-4.43
-4.03
-3.62
-3.24
-2.92
-2.62
-2.28
-1.87
-1.37
-0.85
-0.40
-0.07
0.10
0.14
0.09
0.03
-0.04
-0.08
-0.13
-0.16
-0.14
-0.05
0.12
0.37
0.63
0.83
0.92
0.86
0.66
0.36
0.02
-0.27
-0.47
-0.57
-0.59
-0.57
-0.51
-0.37
-0.12
0.28
0.80
1.34
1.83
2.20
2.46
2.65
2.81
2.95
3.01
2.94
2.71
2.36
1.95
1.58
1.29
1.11
1.02
1.00
1.02
1.05
1.07
1.06
0.96
0.74
0.39
-0.06
-0.55
-1.01
-1.38
-1.67
-1.90
-2.14
-2.46
-2.87
-3.30
-3.67
-3.86
-3.82
-3.51
-3.00
-2.37
-1.74
-1.18
-0.73
-0.38
-0.12
0.04
0.09
-0.03
-0.32
-0.72
-1.16
-1.50
-1.64
-1.54
-1.19
-0.71
-0.19
0.25
0.53
0.64
0.63
0.57
0.54
0.53
0.47
0.25
-0.19
-0.83
-1.56
-2.25
-2.81
-3.20
-3.48
-3.66
-3.70
-3.53
-3.03
-2.20
-1.12
0.04
1.09
1.91
2.47
2.83
3.08
3.27
3.40
3.45
3.37
3.16
2.87
2.56
2.29
2.07
1.90
1.71
1.49
1.27
1.14
1.17
1.37
1.67
1.93
1.99
1.77
1.28
0.63
-0.05
-0.64
-1.12
-1.49
-1.78
-1.98
-2.02
-1.83
-1.38
-0.77
-0.13
0.37
0.65
0.76
0.81
0.92
1.13
1.36
1.51
1.49
1.30
1.05
0.85
0.75
0.74
0.72
0.60
0.37
0.05
-0.25
-0.47
-0.59
-0.63
-0.65
-0.71
-0.88
-1.19
-1.64
-2.20
-2.81
-3.36
-3.71
-3.75
-3.44
-2.81
-1.99
-1.14
-0.43
0.08
0.42
0.68
0.93
1.23
1.49
1.61
1.51
1.21
0.83
0.53
0.42
0.53
0.75
0.92
0.95
0.80
0.57
0.35
0.22
0.19
0.23
0.24
0.19
0.01
-0.32
-0.82
-1.45
-2.15
-2.78
-3.20
-3.29
-3.02
-2.46
-1.75
-1.02
-0.35
0.24
0.79
1.29
1.73
2.04
2.18
2.14
1.99
1.84
1.78
1.84
1.94
1.97
1.83
1.52
1.11
0.73
0.44
0.23
0.03
-0.23
-0.53
-0.81
-0.95
-0.96
-0.94
-1.06
-1.49
-2.22
-3.11
-3.89
-4.29
-4.15
-3.48
-2.44
-1.25
-0.12
0.85
1.60
2.18
2.63
2.98
3.23
3.34
3.29
3.07
2.69
2.22
1.75
1.35
1.06
0.88
0.76
0.69
0.64
0.63
0.64
0.66
0.63
0.49
0.19
-0.22
-0.67
-1.08
-1.42
-1.75
-2.17
-2.72
-3.33
-3.80
-3.87
-3.37
-2.31
-0.90
0.53
1.71
2.51
2.97
3.21
3.33
3.37
3.30
3.10
2.79
2.43
2.12
1.89
1.75
1.64
1.52
1.35
1.12
0.83
0.53
0.28
0.14
0.13
0.24
0.37
0.41
0.25
-0.14
-0.71
-1.34
-1.94
-2.46
-2.88
-3.17
-3.29
-3.15
-2.68
-1.92
-0.95
0.03
0.88
1.52
1.99
2.33
2.58
2.71
2.64
2.32
1.84
1.34
1.00
0.95
1.16
1.50
1.79
1.90
1.83
1.66
1.50
1.42
1.38
1.32
1.13
0.79
0.36
-0.08
-0.41
-0.61
-0.72
-0.83
-1.00
-1.29
-1.67
-2.09
-2.51
-2.86
-3.11
-3.18
-2.99
-2.50
-1.71
-0.72
0.29
1.15
1.73
2.03
2.15
2.22
2.32
2.49
2.66
2.73
2.63
2.36
1.98
1.63
1.39
1.34
1.44
1.60
1.70
1.68
1.54
1.35
1.19
1.07
1.01
0.93
0.77
0.50
0.16
-0.22
-0.56
-0.80
-0.93
-0.98
-1.00
-1.10
-1.32
-1.64
-2.00
-2.33
-2.58
-2.76
-2.90
-3.01
-3.05
-2.92
-2.54
-1.89
-1.03
-0.08
0.85
1.66
2.29
2.71
2.88
2.80
2.49
2.04
1.57
1.20
1.03
1.08
1.28
1.56
1.81
1.94
1.90
1.68
1.31
0.85
0.39
0.05
-0.09
0.03
0.39
0.87
1.31
1.51
1.38
0.94
0.35
-0.20
-0.56
-0.70
-0.72
-0.74
-0.89
-1.19
-1.57
-1.96
-2.27
-2.50
-2.65
-2.75
-2.82
-2.82
-2.69
-2.38
-1.89
-1.25
-0.60
-0.05
0.31
0.49
0.56
0.60
0.66
0.74
0.76
0.71
0.58
0.43
0.31
0.26
0.27
0.30
0.34
0.39
0.47
0.60
0.76
0.88
0.89
0.72
0.38
-0.08
-0.55
-0.91
-1.11
-1.14
-1.08
-1.03
-1.05
-1.14
-1.23
-1.23
-1.12
-0.95
-0.83
-0.86
-1.08
-1.44
-1.86
-2.25
-2.54
-2.69
-2.69
-2.52
-2.16
-1.62
-0.97
-0.31
0.26
0.69
1.00
1.26
1.51
1.74
1.90
1.92
1.77
1.49
1.14
0.79
0.47
0.17
-0.08
-0.23
-0.23
-0.05
0.25
0.59
0.85
0.96
0.94
0.81
0.62
0.38
0.10
-0.22
-0.51
-0.74
-0.86
-0.90
-0.89
-0.87
-0.85
-0.85
-0.91
-1.08
-1.38
-1.78
-2.18
-2.46
-2.55
-2.46
-2.29
-2.13
-2.00
-1.86
-1.64
-1.28
-0.81
-0.33
0.04
0.26
0.32
0.34
0.38
0.51
0.69
0.85
0.93
0.89
0.78
0.68
0.64
0.69
0.80
0.93
1.04
1.11
1.11
1.04
0.87
0.60
0.25
-0.12
-0.41
-0.55
-0.49
-0.30
-0.05
0.16
0.24
0.20
0.06
-0.12
-0.30
-0.42
-0.48
-0.47
-0.41
-0.36
-0.37
-0.49
-0.72
-1.03
-1.33
-1.57
-1.73
-1.84
-1.93
-2.00
-2.02
-1.91
-1.64
-1.23
-0.78
-0.38
-0.09
0.09
0.25
0.46
0.75
1.06
1.29
1.35
1.20
0.87
0.46
0.07
-0.19
-0.29
-0.18
0.10
0.48
0.89
1.22
1.39
1.37
1.21
0.99
0.81
0.72
0.72
0.78
0.81
0.76
0.59
0.28
-0.19
-0.79
-1.48
-2.17
-2.72
-3.02
-3.02
-2.77
-2.39
-2.05
-1.87
-1.89
-2.08
-2.33
-2.52
-2.57
-2.43
-2.08
-1.60
-1.03
-0.48
-0.02
0.31
0.49
0.58
0.64
0.70
0.77
0.84
0.88
0.87
0.82
0.73
0.65
0.65
0.76
0.97
1.22
1.42
1.48
1.37
1.13
0.87
0.71
0.72
0.86
1.07
1.23
1.30
1.29
1.24
1.20
1.18
1.14
1.01
0.74
0.31
-0.23
-0.83
-1.40
-1.88
-2.23
-2.46
-2.58
-2.60
-2.54
-2.39
-2.12
-1.69
-1.09
-0.40
0.26
0.75
0.97
0.92
0.68
0.40
0.20
0.12
0.15
0.25
0.38
0.51
0.64
0.74
0.82
0.87
0.91
0.93
0.93
0.89
0.79
0.61
0.36
0.08
-0.21
-0.48
-0.71
-0.87
-0.92
-0.83
-0.64
-0.40
-0.20
-0.11
-0.14
-0.32
-0.65
-1.12
-1.72
-2.39
-3.00
-3.40
-3.48
-3.22
-2.70
-2.06
-1.43
-0.88
-0.44
-0.08
0.21
0.41
0.52
0.54
0.55
0.58
0.66
0.76
0.87
0.95
1.05
1.21
1.41
1.62
1.75
1.74
1.61
1.40
1.20
1.03
0.87
0.68
0.43
0.15
-0.11
-0.27
-0.33
-0.31
-0.30
-0.35
-0.47
-0.64
-0.85
-1.08
-1.31
-1.59
-1.90
-2.25
-2.62
-2.91
-3.04
-2.94
-2.56
-1.97
-1.29
-0.64
-0.09
0.32
0.66
0.95
1.21
1.37
1.37
1.18
0.89
0.63
0.55
0.72
1.07
1.46
1.69
1.67
1.40
1.00
0.63
0.39
0.34
0.42
0.54
0.59
0.51
0.29
0.00
-0.27
-0.46
-0.53
-0.52
-0.50
-0.58
-0.82
-1.28
-1.97
-2.84
-3.80
-4.73
-5.47
-5.85
-5.78
-5.22
-4.25
-3.03
-1.79
-0.71
0.10
0.66
1.03
1.31
1.57
1.81
1.99
2.07
2.02
1.86
1.59
1.26
0.92
0.61
0.42
0.39
0.51
0.72
0.92
1.05
1.10
1.10
1.07
0.96
0.70
0.26
-0.33
-0.92
-1.37
-1.60
-1.68
-1.76
-2.03
-2.58
-3.35
-4.18
-4.87
-5.29
-5.39
-5.22
-4.82
-4.20
-3.35
-2.29
-1.08
0.13
1.16
1.89
2.28
2.40
2.38
2.34
2.31
2.28
2.21
2.09
1.97
1.88
1.82
1.77
1.64
1.42
1.14
0.86
0.67
0.60
0.63
0.66
0.64
0.50
0.26
-0.05
-0.41
-0.82
-1.30
-1.84
-2.40
-2.92
-3.34
-3.70
-4.04
-4.41
-4.74
-4.87
-4.60
-3.78
-2.43
-0.77
0.88
2.22
3.13
3.64
3.90
4.06
4.17
4.22
4.14
3.91
3.57
3.17
2.82
2.58
2.50
2.61
2.88
3.28
3.72
4.06
4.19
4.04
3.68
3.23
2.83
2.55
2.34
2.10
1.75
1.29
0.82
0.45
0.23
0.09
-0.14
-0.62
-1.44
-2.53
-3.71
-4.74
-5.37
-5.43
-4.87
-3.76
-2.31
-0.80
0.48
1.37
1.86
2.09
2.24
2.41
2.60
2.76
2.79
2.69
2.51
2.35
2.27
2.26
2.30
2.33
2.34
2.35
2.36
2.37
2.36
2.30
2.22
2.18
2.22
2.34
2.45
2.43
2.17
1.64
0.93
0.21
-0.36
-0.67
-0.75
-0.74
-0.84
-1.22
-1.92
-2.85
-3.82
-4.58
-4.91
-4.70
-3.94
-2.75
-1.31
0.17
1.50
2.55
3.26
3.60
3.63
3.42
3.10
2.80
2.65
2.66
2.78
2.86
2.78
2.49
2.10
1.80
1.73
1.93
2.28
2.58
2.69
2.59
2.37
2.18
2.10
2.11
2.11
2.01
1.74
1.34
0.83
0.28
-0.27
-0.77
-1.19
-1.50
-1.75
-2.02
-2.43
-3.02
-3.74
-4.44
-4.95
-5.10
-4.81
-4.06
-2.93
-1.56
-0.14
1.09
1.96
2.39
2.48
2.43
2.45
2.61
2.85
3.00
2.92
2.58
2.14
1.79
1.67
1.78
2.00
2.19
2.26
2.24
2.23
2.31
2.46
2.60
2.57
2.30
1.75
1.03
0.29
-0.34
-0.77
-0.97
-0.97
-0.80
-0.52
-0.19
0.08
0.21
0.13
-0.15
-0.54
-0.94
-1.23
-1.40
-1.51
-1.64
-1.84
-2.11
-2.38
-2.63
-2.89
-3.23
-3.74
-4.37
-4.98
-5.32
-5.17
-4.42
-3.21
-1.77
-0.39
0.73
1.58
2.22
2.74
3.14
3.37
3.34
3.02
2.48
1.86
1.35
1.04
0.99
1.15
1.45
1.78
2.06
2.22
2.22
2.09
1.83
1.53
1.24
0.98
0.76
0.57
0.40
0.26
0.18
0.16
0.16
0.11
-0.06
-0.39
-0.85
-1.35
-1.83
-2.25
-2.67
-3.19
-3.86
-4.64
-5.36
-5.81
-5.83
-5.36
-4.50
-3.38
-2.18
-1.02
0.01
0.86
1.49
1.94
2.24
2.47
2.68
2.86
2.98
2.99
2.89
2.73
2.60
2.52
2.48
2.40
2.21
1.94
1.68
1.54
1.60
1.81
2.06
2.18
2.10
1.82
1.44
1.04
0.67
0.29
-0.14
-0.65
-1.18
-1.64
-1.96
-2.12
-2.18
-2.26
-2.43
-2.74
-3.16
-3.69
-4.28
-4.91
-5.50
-5.89
-5.89
-5.34
-4.24
-2.74
-1.13
0.29
1.35
2.03
2.41
2.61
2.70
2.69
2.58
2.38
2.11
1.82
1.55
1.31
1.15
1.11
1.21
1.46
1.79
2.11
2.33
2.40
2.33
2.14
1.87
1.55
1.23
0.94
0.72
0.53
0.33
0.07
-0.27
-0.66
-1.02
-1.27
-1.47
-1.68
-2.02
-2.53
-3.15
-3.76
-4.26
-4.59
-4.75
-4.77
-4.63
-4.30
-3.71
-2.87
-1.88
-0.88
-0.03
0.64
1.13
1.52
1.89
2.22
2.48
2.60
2.60
2.51
2.38
2.28
2.23
2.26
2.34
2.48
2.63
2.72
2.71
2.58
2.35
2.08
1.83
1.60
1.36
1.08
0.74
0.37
0.03
-0.26
-0.49
-0.68
-0.87
-1.08
-1.33
-1.66
-2.09
-2.62
-3.23
-3.86
-4.46
-4.99
-5.42
-5.69
-5.69
-5.34
-4.61
-3.58
-2.43
-1.37
-0.53
0.08
0.54
0.96
1.40
1.87
2.29
2.62
2.84
2.94
2.95
2.86
2.68
2.46
2.26
2.15
2.18
2.33
2.49
2.58
2.52
2.33
2.08
1.84
1.67
1.56
1.45
1.25
0.89
0.38
-0.21
-0.77
-1.22
-1.54
-1.79
-2.08
-2.45
-2.89
-3.32
-3.69
-3.97
-4.26
-4.64
-5.12
-5.54
-5.64
-5.19
-4.11
-2.58
-0.89
0.62
1.76
2.49
2.91
3.14
3.23
3.22
3.10
2.91
2.71
2.55
2.44
2.36
2.31
2.27
2.24
2.23
2.21
2.15
2.05
1.93
1.84
1.80
1.79
1.73
1.56
1.28
0.94
0.65
0.44
0.31
0.19
0.01
-0.23
-0.52
-0.83
-1.14
-1.53
-2.04
-2.71
-3.51
-4.32
-5.02
-5.48
-5.61
-5.39
-4.85
-4.08
-3.14
-2.11
-1.02
0.07
1.11
2.02
2.71
3.12
3.25
3.17
2.95
2.69
2.43
2.20
2.02
1.93
1.92
2.02
2.18
2.35
2.47
2.48
2.37
2.15
1.86
1.57
1.35
1.24
1.23
1.25
1.24
1.14
0.93
0.67
0.41
0.18
-0.04
-0.31
-0.66
-1.09
-1.55
-1.96
-2.32
-2.65
-3.05
-3.62
-4.38
-5.24
-6.02
-6.49
-6.45
-5.83
-4.68
-3.20
-1.59
-0.07
1.21
2.16
2.75
3.02
3.03
2.90
2.75
2.63
2.56
2.49
2.40
2.27
2.17
2.12
2.15
2.23
2.30
2.29
2.20
2.06
1.94
1.88
1.91
2.03
2.22
2.43
2.56
2.51
2.18
1.54
0.69
-0.26
-1.16
-1.87
-2.36
-2.63
-2.77
-2.85
-3.02
-3.40
-4.03
-4.84
-5.65
-6.19
-6.25
-5.71
-4.66
-3.29
-1.84
-0.47
0.70
1.67
2.45
3.04
3.43
3.60
3.54
3.29
2.91
2.47
2.05
1.71
1.47
1.39
1.46
1.66
1.95
2.22
2.38
2.36
2.16
1.86
1.55
1.32
1.20
1.14
1.07
0.95
0.77
0.54
0.29
-0.04
-0.49
-1.09
-1.80
-2.52
-3.13
-3.58
-3.91
-4.25
-4.71
-5.30
-5.90
-6.29
-6.27
-5.72
-4.69
-3.38
-2.01
-0.77
0.26
1.08
1.79
2.43
3.00
3.43
3.66
3.64
3.42
3.10
2.80
2.62
2.56
2.57
2.60
2.58
2.47
2.31
2.12
1.96
1.84
1.75
1.65
1.55
1.46
1.40
1.37
1.36
1.28
1.07
0.69
0.14
-0.50
-1.15
-1.72
-2.17
-2.52
-2.87
-3.28
-3.83
-4.50
-5.21
-5.81
-6.13
-6.02
-5.43
-4.36
-2.97
-1.43
0.04
1.27
2.15
2.69
2.95
3.02
2.99
2.90
2.77
2.59
2.40
2.22
2.12
2.12
2.18
2.23
2.22
2.13
1.99
1.86
1.78
1.74
1.74
1.75
1.78
1.83
1.87
1.85
1.68
1.33
0.80
0.18
-0.45
-1.03
-1.53
-1.94
-2.27
-2.53
-2.75
-2.99
-3.35
-3.90
-4.63
-5.40
-5.97
-6.10
-5.69
-4.79
-3.61
-2.40
-1.32
-0.43
0.35
1.13
1.94
2.70
3.26
3.45
3.25
2.72
2.08
1.53
1.20
1.13
1.26
1.51
1.80
2.09
2.34
2.49
2.46
2.24
1.85
1.42
1.06
0.85
0.74
0.62
0.33
-0.18
-0.87
-1.58
-2.14
-2.49
-2.68
-2.85
-3.17
-3.74
-4.60
-5.70
-6.92
-8.07
-8.94
-9.32
-9.07
-8.17
-6.72
-4.95
-3.13
-1.48
-0.18
0.71
1.19
1.33
1.22
0.97
0.70
0.50
0.43
0.53
0.78
1.13
1.53
1.94
2.31
2.64
2.92
3.13
3.25
3.26
3.16
2.98
2.77
2.60
2.47
2.35
2.15
1.77
1.18
0.40
-0.47
-1.30
-2.00
-2.53
-2.91
-3.17
-3.37
-3.55
-3.80
-4.15
-4.64
-5.20
-5.71
-5.95
-5.71
-4.85
-3.39
-1.47
0.66
2.68
4.35
5.50
6.07
6.14
5.85
5.41
4.99
4.72
4.67
4.80
5.04
5.31
5.56
5.82
6.10
6.42
6.76
7.06
7.25
7.27
7.10
6.76
6.28
5.69
5.01
4.29
3.59
2.94
2.40
1.97
1.62
1.27
0.83
0.25
-0.47
-1.28
-2.07
-2.78
-3.35
-3.83
-4.28
-4.75
-5.19
-5.48
-5.44
-4.95
-3.99
-2.71
-1.35
-0.13
0.79
1.38
1.68
1.79
1.76
1.66
1.49
1.26
1.00
0.78
0.67
0.74
0.98
1.33
1.68
1.92
2.01
1.99
1.93
1.91
1.93
1.91
1.75
1.42
0.96
0.50
0.16
-0.01
-0.05
-0.05
-0.13
-0.30
-0.56
-0.87
-1.24
-1.70
-2.25
-2.88
-3.50
-4.01
-4.32
-4.43
-4.36
-4.15
-3.77
-3.18
-2.36
-1.35
-0.30
0.63
1.33
1.78
2.04
2.19
2.28
2.27
2.13
1.86
1.52
1.24
1.13
1.26
1.59
1.97
2.27
2.39
2.29
2.03
1.69
1.37
1.12
0.96
0.91
0.95
1.01
1.02
0.91
0.63
0.24
-0.18
-0.50
-0.65
-0.64
-0.54
-0.49
-0.63
-1.05
-1.76
-2.72
-3.78
-4.76
-5.42
-5.57
-5.13
-4.16
-2.86
-1.50
-0.32
0.57
1.17
1.59
1.94
2.28
2.58
2.75
2.70
2.42
1.95
1.39
0.87
0.50
0.34
0.39
0.62
0.93
1.25
1.50
1.64
1.68
1.65
1.61
1.57
1.50
1.36
1.09
0.68
0.14
-0.44
-1.00
-1.46
-1.79
-1.99
-2.07
-2.08
-2.08
-2.13
-2.26
-2.50
-2.82
-3.16
-3.42
-3.46
-3.19
-2.57
-1.63
-0.50
0.68
1.74
2.57
3.12
3.33
3.21
2.76
2.07
1.28
0.57
0.11
-0.03
0.13
0.46
0.81
1.08
1.23
1.26
1.19
1.05
0.86
0.66
0.52
0.47
0.52
0.59
0.57
0.38
-0.01
-0.51
-1.00
-1.35
-1.53
-1.57
-1.59
-1.71
-2.00
-2.46
-2.97
-3.39
-3.55
-3.38
-2.89
-2.17
-1.35
-0.55
0.15
0.69
1.07
1.30
1.41
1.45
1.48
1.53
1.62
1.68
1.62
1.41
1.07
0.68
0.36
0.17
0.11
0.13
0.18
0.27
0.43
0.66
0.95
1.19
1.26
1.06
0.58
-0.09
-0.80
-1.35
-1.62
-1.54
-1.22
-0.84
-0.62
-0.70
-1.16
-1.90
-2.78
-3.59
-4.16
-4.35
-4.10
-3.44
-2.49
-1.43
-0.42
0.43
1.09
1.56
1.87
2.02
2.00
1.85
1.61
1.38
1.23
1.16
1.14
1.11
1.08
1.07
1.12
1.24
1.38
1.48
1.49
1.39
1.21
0.99
0.76
0.57
0.40
0.26
0.07
-0.21
-0.62
-1.14
-1.66
-2.04
-2.17
-2.05
-1.83
-1.72
-1.92
-2.50
-3.35
-4.24
-4.90
-5.11
-4.79
-3.99
-2.84
-1.56
-0.34
0.68
1.41
1.83
2.00
1.99
1.85
1.64
1.38
1.11
0.88
0.74
0.73
0.87
1.10
1.36
1.58
1.75
1.87
1.96
2.02
2.05
2.02
1.88
1.61
1.21
0.71
0.17
-0.31
-0.67
-0.87
-0.94
-0.97
-1.03
-1.18
-1.41
-1.65
-1.88
-2.11
-2.40
-2.80
-3.30
-3.75
-3.96
-3.77
-3.12
-2.15
-1.07
-0.10
0.62
1.08
1.37
1.57
1.74
1.86
1.88
1.75
1.48
1.15
0.90
0.80
0.90
1.10
1.27
1.26
1.02
0.61
0.20
-0.01
0.07
0.42
0.90
1.33
1.55
1.50
1.21
0.74
0.21
-0.30
-0.74
-1.09
-1.38
-1.66
-1.98
-2.35
-2.79
-3.26
-3.74
-4.14
-4.37
-4.34
-3.96
-3.23
-2.22
-1.09
-0.04
0.83
1.45
1.84
2.05
2.14
2.13
2.04
1.88
1.65
1.40
1.15
0.95
0.81
0.75
0.76
0.83
0.92
1.02
1.11
1.16
1.16
1.09
0.94
0.75
0.56
0.38
0.21
0.01
-0.22
-0.49
-0.74
-0.92
-1.04
-1.14
-1.30
-1.61
-2.07
-2.64
-3.21
-3.66
-3.91
-3.91
-3.65
-3.15
-2.47
-1.68
-0.86
-0.09
0.57
1.13
1.62
2.06
2.45
2.71
2.78
2.62
2.29
1.89
1.51
1.23
1.04
0.88
0.70
0.50
0.32
0.24
0.29
0.44
0.61
0.68
0.59
0.39
0.12
-0.12
-0.33
-0.51
-0.70
-0.90
-1.09
-1.23
-1.31
-1.39
-1.52
-1.76
-2.11
-2.54
-2.96
-3.32
-3.57
-3.66
-3.56
-3.19
-2.55
-1.66
-0.63
0.38
1.22
1.82
2.18
2.31
2.27
2.08
1.75
1.33
0.94
0.67
0.64
0.85
1.22
1.61
1.87
1.91
1.77
1.51
1.23
1.01
0.85
0.71
0.54
0.31
-0.02
-0.40
-0.80
-1.16
-1.45
-1.69
-1.91
-2.15
-2.42
-2.70
-2.94
-3.14
-3.30
-3.47
-3.68
-3.87
-3.90
-3.63
-2.97
-1.99
-0.88
0.10
0.77
1.10
1.21
1.29
1.46
1.72
1.96
2.01
1.74
1.19
0.51
-0.07
-0.37
-0.32
-0.00
0.46
0.91
1.26
1.51
1.70
1.82
1.85
1.71
1.37
0.87
0.33
-0.12
-0.39
-0.48
-0.48
-0.52
-0.67
-0.97
-1.42
-2.03
-2.74
-3.49
-4.15
-4.54
-4.53
-4.06
-3.22
-2.19
-1.16
-0.27
0.48
1.14
1.79
2.39
2.86
3.05
2.88
2.44
1.92
1.54
1.46
1.64
1.93
2.16
2.20
2.08
1.89
1.76
1.69
1.65
1.57
1.42
1.21
1.01
0.86
0.76
0.65
0.47
0.20
-0.15
-0.50
-0.80
-1.04
-1.26
-1.57
-2.04
-2.64
-3.27
-3.78
-4.01
-3.88
-3.43
-2.76
-2.00
-1.24
-0.53
0.15
0.83
1.48
2.10
2.62
2.98
3.15
3.11
2.90
2.58
2.22
1.89
1.62
1.42
1.27
1.18
1.11
1.05
1.01
0.98
1.01
1.10
1.23
1.36
1.43
1.37
1.21
0.97
0.70
0.40
0.06
-0.35
-0.83
-1.31
-1.73
-2.05
-2.25
-2.37
-2.44
-2.43
-2.30
-2.00
-1.50
-0.86
-0.18
0.44
0.96
1.37
1.71
2.01
2.24
2.35
2.25
1.91
1.36
0.73
0.15
-0.26
-0.46
-0.46
-0.28
0.03
0.40
0.76
1.00
1.05
0.91
0.69
0.50
0.45
0.51
0.57
0.51
0.28
-0.06
-0.38
-0.59
-0.71
-0.81
-1.02
-1.38
-1.85
-2.33
-2.75
-3.04
-3.23
-3.31
-3.23
-2.95
-2.42
-1.69
-0.86
-0.05
0.66
1.24
1.72
2.15
2.51
2.73
2.70
2.36
1.80
1.18
0.71
0.52
0.62
0.88
1.17
1.38
1.52
1.63
1.77
1.95
2.08
2.10
1.94
1.60
1.15
0.67
0.24
-0.12
-0.36
-0.53
-0.65
-0.77
-0.95
-1.22
-1.61
-2.11
-2.69
-3.30
-3.85
-4.20
-4.25
-3.91
-3.17
-2.13
-0.94
0.19
1.11
1.74
2.09
2.23
2.24
2.17
2.04
1.87
1.66
1.45
1.29
1.22
1.23
1.26
1.25
1.16
1.00
0.85
0.81
0.92
1.14
1.37
1.49
1.43
1.17
0.79
0.39
0.03
-0.22
-0.38
-0.48
-0.55
-0.63
-0.77
-1.04
-1.46
-2.02
-2.65
-3.19
-3.50
-3.50
-3.18
-2.60
-1.84
-0.99
-0.12
0.73
1.50
2.13
2.52
2.61
2.40
1.94
1.34
0.72
0.21
-0.08
-0.11
0.13
0.54
0.97
1.27
1.31
1.11
0.77
0.48
0.38
0.54
0.85
1.18
1.38
1.38
1.21
0.94
0.61
0.27
-0.11
-0.54
-0.99
-1.42
-1.77
-2.03
-2.20
-2.35
-2.54
-2.76
-2.96
-3.00
-2.76
-2.19
-1.37
-0.48
0.27
0.74
0.93
0.95
0.93
0.95
1.00
1.04
1.00
0.89
0.75
0.61
0.50
0.42
0.32
0.24
0.20
0.24
0.41
0.71
1.09
1.49
1.81
1.97
1.89
1.59
1.11
0.59
0.14
-0.20
-0.46
-0.72
-1.10
-1.63
-2.27
-2.93
-3.51
-3.95
-4.26
-4.42
-4.37
-4.04
-3.37
-2.42
-1.33
-0.29
0.52
1.06
1.40
1.64
1.83
1.96
1.95
1.75
1.39
1.00
0.69
0.54
0.53
0.59
0.62
0.56
0.43
0.29
0.20
0.19
0.28
0.41
0.56
0.68
0.75
0.77
0.74
0.67
0.52
0.29
-0.04
-0.43
-0.86
-1.27
-1.64
-1.99
-2.36
-2.74
-3.14
-3.47
-3.65
-3.58
-3.24
-2.66
-1.89
-1.03
-0.15
0.66
1.33
1.78
1.97
1.93
1.72
1.44
1.16
0.90
0.66
0.47
0.35
0.33
0.44
0.65
0.89
1.08
1.15
1.12
1.02
0.91
0.82
0.76
0.72
0.65
0.50
0.23
-0.18
-0.70
-1.23
-1.69
-1.99
-2.15
-2.26
-2.47
-2.87
-3.45
-4.06
-4.52
-4.64
-4.37
-3.71
-2.77
-1.68
-0.56
0.48
1.32
1.88
2.09
1.98
1.65
1.25
0.92
0.75
0.74
0.82
0.93
0.99
1.00
0.99
0.99
1.07
1.22
1.40
1.53
1.50
1.30
0.94
0.55
0.21
-0.03
-0.20
-0.38
-0.65
-1.02
-1.41
-1.75
-1.99
-2.18
-2.41
-2.80
-3.36
-3.98
-4.47
-4.63
-4.31
-3.53
-2.43
-1.26
-0.26
0.45
0.87
1.11
1.33
1.63
2.00
2.35
2.55
2.52
2.27
1.90
1.56
1.38
1.42
1.66
2.01
2.34
2.58
2.71
2.75
2.74
2.71
2.62
2.42
2.05
1.56
1.00
0.50
0.14
-0.08
-0.24
-0.47
-0.83
-1.32
-1.87
-2.40
-2.85
-3.20
-3.45
-3.59
-3.57
-3.33
-2.82
-2.07
-1.16
-0.21
0.72
1.55
2.25
2.81
3.17
3.33
3.29
3.10
2.82
2.54
2.29
2.08
1.91
1.80
1.77
1.86
2.10
2.45
2.84
3.13
3.23
3.09
2.77
2.34
1.93
1.56
1.23
0.91
0.55
0.18
-0.14
-0.36
-0.47
-0.52
-0.61
-0.82
-1.22
-1.77
-2.40
-3.04
-3.56
-3.90
-3.96
-3.69
-3.08
-2.16
-1.06
0.07
1.08
1.83
2.29
2.48
2.43
2.20
1.86
1.47
1.13
0.91
0.90
1.08
1.40
1.72
1.94
2.00
1.92
1.81
1.76
1.85
2.04
2.27
2.43
2.46
2.28
1.91
1.38
0.78
0.20
-0.29
-0.65
-0.87
-1.01
-1.15
-1.34
-1.63
-2.03
-2.48
-2.92
-3.22
-3.29
-3.05
-2.47
-1.64
-0.65
0.34
1.21
1.86
2.27
2.43
2.38
2.19
1.91
1.63
1.40
1.28
1.27
1.36
1.50
1.64
1.69
1.61
1.38
1.05
0.71
0.51
0.49
0.66
0.91
1.10
1.13
0.97
0.65
0.28
-0.07
-0.37
-0.68
-1.06
-1.54
-2.12
-2.72
-3.25
-3.61
-3.78
-3.77
-3.58
-3.21
-2.61
-1.72
-0.59
0.62
1.69
2.39
2.57
2.27
1.64
0.91
0.31
-0.04
-0.13
-0.01
0.22
0.50
0.78
1.05
1.28
1.47
1.60
1.66
1.65
1.61
1.53
1.44
1.30
1.09
0.79
0.43
0.05
-0.29
-0.54
-0.71
-0.84
-1.01
-1.29
-1.67
-2.11
-2.55
-2.90
-3.09
-3.08
-2.81
-2.28
-1.53
-0.66
0.18
0.86
1.30
1.52
1.59
1.63
1.67
1.67
1.57
1.34
1.05
0.78
0.65
0.69
0.84
1.01
1.09
1.05
0.94
0.83
0.82
0.91
1.07
1.20
1.22
1.10
0.85
0.51
0.17
-0.12
-0.34
-0.50
-0.65
-0.85
-1.12
-1.45
-1.80
-2.12
-2.40
-2.64
-2.84
-2.98
-2.96
-2.69
-2.11
-1.27
-0.29
0.61
1.27
1.62
1.68
1.56
1.34
1.10
0.86
0.65
0.50
0.44
0.47
0.59
0.75
0.89
0.94
0.90
0.78
0.63
0.51
0.48
0.54
0.68
0.83
0.91
0.86
0.65
0.29
-0.13
-0.50
-0.72
-0.76
-0.66
-0.55
-0.55
-0.73
-1.06
-1.47
-1.90
-2.33
-2.76
-3.13
-3.37
-3.34
-2.95
-2.22
-1.30
-0.40
0.32
0.80
1.11
1.36
1.61
1.84
1.97
1.92
1.67
1.28
0.84
0.49
0.32
0.34
0.53
0.83
1.15
1.40
1.52
1.45
1.19
0.77
0.29
-0.15
-0.46
-0.59
-0.57
-0.48
-0.40
-0.41
-0.55
-0.80
-1.13
-1.50
-1.88
-2.26
-2.65
-3.02
-3.32
-3.44
-3.26
-2.73
-1.86
-0.78
0.31
1.21
1.77
1.97
1.90
1.67
1.39
1.12
0.89
0.72
0.61
0.60
0.66
0.78
0.93
1.09
1.26
1.45
1.66
1.82
1.86
1.72
1.40
0.97
0.57
0.29
0.15
0.11
0.07
-0.03
-0.22
-0.47
-0.75
-1.04
-1.35
-1.68
-2.04
-2.39
-2.70
-2.95
-3.11
-3.14
-3.01
-2.70
-2.19
-1.47
-0.58
0.38
1.29
1.99
2.37
2.40
2.16
1.76
1.37
1.06
0.86
0.72
0.58
0.46
0.42
0.50
0.70
0.95
1.11
1.09
0.91
0.64
0.38
0.22
0.15
0.13
0.14
0.19
0.31
0.51
0.77
1.05
1.30
1.50
1.67
1.82
1.94
2.00
1.99
1.94
1.94
2.06
2.37
2.87
3.49
4.14
4.68
5.01
5.06
4.80
4.29
3.61
2.92
2.29
1.72
1.16
0.50
-0.28
-1.12
-1.88
-2.41
-2.67
-2.71
-2.66
-2.65
-2.78
-3.02
-3.31
-3.56
-3.71
-3.77
-3.82
-3.93
-4.13
-4.41
-4.70
-4.91
-4.96
-4.81
-4.50
-4.10
-3.70
-3.37
-3.15
-3.01
-2.91
-2.74
-2.40
-1.82
-0.99
0.01
1.03
1.93
2.62
3.08
3.40
3.67
3.96
4.28
4.57
4.75
4.78
4.65
4.42
4.16
3.89
3.60
3.26
2.87
2.47
2.14
1.99
2.05
2.26
2.50
2.66
2.67
2.62
2.58
2.59
2.58
2.43
2.02
1.36
0.54
-0.26
-0.91
-1.39
-1.73
-2.05
-2.40
-2.77
-3.08
-3.23
-3.15
-2.85
-2.40
-1.93
-1.53
-1.30
-1.25
-1.39
-1.70
-2.17
-2.78
-3.47
-4.17
-4.76
-5.17
-5.33
-5.29
-5.11
-4.93
-4.82
-4.83
-4.95
-5.07
-5.10
-4.95
-4.61
-4.13
-3.65
-3.31
-3.20
-3.34
-3.64
-3.98
-4.22
-4.29
-4.20
-4.00
-3.71
-3.33
-2.77
-1.97
-0.91
0.29
1.43
2.31
2.81
2.99
3.01
3.07
3.26
3.55
3.80
3.90
3.78
3.50
3.19
2.93
2.79
2.73
2.70
2.62
2.47
2.23
1.94
1.66
1.45
1.37
1.41
1.52
1.62
1.62
1.44
1.07
0.52
-0.15
-0.89
-1.60
-2.17
-2.49
-2.50
-2.22
-1.72
-1.12
-0.50
0.06
0.54
0.94
1.22
1.35
1.34
1.21
1.02
0.83
0.69
0.59
0.53
0.49
0.48
0.50
0.57
0.64
0.69
0.69
0.66
0.65
0.71
0.83
0.95
0.98
0.88
0.66
0.39
0.17
0.03
-0.08
-0.25
-0.51
-0.84
-1.11
-1.19
-1.04
-0.67
-0.21
0.20
0.48
0.60
0.59
0.46
0.25
0.00
-0.22
-0.36
-0.40
-0.36
-0.35
-0.47
-0.75
-1.14
-1.50
-1.65
-1.53
-1.20
-0.79
-0.53
-0.52
-0.75
-1.09
-1.39
-1.55
-1.60
-1.64
-1.74
-1.92
-2.08
-2.14
-2.04
-1.85
-1.66
-1.55
-1.54
-1.53
-1.44
-1.21
-0.83
-0.34
0.21
0.79
1.35
1.85
2.23
2.46
2.52
2.45
2.30
2.08
1.82
1.53
1.24
1.02
0.91
0.91
0.97
1.01
0.97
0.85
0.73
0.64
0.64
0.68
0.68
0.55
0.26
-0.18
-0.72
-1.26
-1.72
-2.00
-2.04
-1.83
-1.40
-0.84
-0.27
0.19
0.48
0.60
0.61
0.61
0.66
0.74
0.84
0.89
0.84
0.69
0.46
0.20
-0.03
-0.22
-0.35
-0.47
-0.59
-0.70
-0.77
-0.73
-0.58
-0.33
-0.11
-0.02
-0.15
-0.48
-0.88
-1.22
-1.42
-1.49
-1.52
-1.60
-1.73
-1.81
-1.69
-1.26
-0.57
0.24
0.96
1.42
1.58
1.53
1.39
1.27
1.16
1.01
0.74
0.37
0.02
-0.18
-0.12
0.17
0.58
0.94
1.10
1.04
0.81
0.51
0.22
0.00
-0.15
-0.27
-0.39
-0.53
-0.71
-0.97
-1.30
-1.66
-1.96
-2.11
-2.01
-1.67
-1.10
-0.40
0.30
0.89
1.28
1.41
1.30
1.00
0.62
0.24
-0.06
-0.23
-0.25
-0.10
0.21
0.65
1.12
1.50
1.68
1.58
1.20
0.65
0.08
-0.37
-0.62
-0.65
-0.56
-0.49
-0.58
-0.90
-1.43
-2.05
-2.60
-2.93
-2.92
-2.58
-1.96
-1.20
-0.44
0.23
0.77
1.19
1.51
1.77
1.97
2.07
2.04
1.88
1.62
1.32
1.06
0.87
0.76
0.70
0.63
0.52
0.36
0.17
-0.03
-0.23
-0.43
-0.61
-0.77
-0.90
-0.96
-0.97
-0.95
-0.97
-1.12
-1.45
-1.95
-2.55
-3.09
-3.38
-3.30
-2.81
-1.99
-1.01
-0.07
0.71
1.28
1.66
1.94
2.17
2.34
2.43
2.40
2.27
2.10
1.95
1.84
1.75
1.64
1.50
1.31
1.11
0.91
0.72
0.55
0.39
0.27
0.20
0.19
0.18
0.12
-0.05
-0.37
-0.77
-1.16
-1.44
-1.61
-1.72
-1.89
-2.21
-2.66
-3.12
-3.43
-3.44
-3.11
-2.50
-1.74
-0.94
-0.20
0.42
0.91
1.26
1.47
1.56
1.58
1.57
1.55
1.53
1.51
1.50
1.56
1.73
1.97
2.20
2.28
2.10
1.69
1.18
0.78
0.65
0.79
1.09
1.34
1.37
1.11
0.65
0.16
-0.22
-0.40
-0.42
-0.38
-0.37
-0.46
-0.65
-0.91
-1.23
-1.62
-2.10
-2.66
-3.20
-3.57
-3.60
-3.23
-2.50
-1.57
-0.64
0.09
0.56
0.77
0.85
0.88
0.95
1.05
1.14
1.18
1.18
1.20
1.32
1.57
1.90
2.26
2.53
2.63
2.52
2.21
1.77
1.30
0.93
0.75
0.74
0.80
0.79
0.62
0.29
-0.09
-0.35
-0.40
-0.28
-0.14
-0.11
-0.28
-0.60
-0.99
-1.37
-1.72
-2.08
-2.46
-2.85
-3.19
-3.40
-3.43
-3.26
-2.88
-2.28
-1.49
-0.61
0.23
0.86
1.21
1.29
1.23
1.18
1.21
1.30
1.34
1.24
1.00
0.71
0.52
0.50
0.64
0.86
1.01
1.01
0.84
0.59
0.37
0.25
0.22
0.18
0.01
-0.36
-0.94
-1.57
-2.01
-2.12
-1.93
-1.65
-1.56
-1.86
-2.58
-3.56
-4.54
-5.21
-5.39
-5.11
-4.51
-3.74
-2.92
-2.08
-1.26
