1653041271.00
64.000000
-0.00
-0.00
-0.00
-0.00
-0.00
-0.00
-0.00
-0.00
-0.00
-0.00
0.00
0.01
0.01
-0.00
-0.03
-0.05
-0.05
0.00
0.13
0.36
0.66
1.01
1.37
1.72
2.06
2.40
2.79
3.24
3.80
4.42
5.06
5.66
6.20
6.68
7.15
7.68
8.31
9.14
10.09
11.04
11.88
12.56
13.14
13.76
14.66
15.97
17.91
20.31
22.90
25.38
27.59
29.61
31.74
34.37
37.81
42.43
47.87
53.64
59.20
64.22
68.77
73.31
78.50
84.81
92.77
101.86
111.32
120.31
128.28
135.28
141.87
149.32
156.25
164.87
175.81
189.24
204.08
217.51
225.21
222.41
205.57
173.61
128.80
75.05
16.91
-42.09
-100.16
-157.00
-212.96
-268.15
-322.12
-373.62
-421.63
-465.01
-502.60
-533.07
-554.93
-566.79
-567.53
-556.76
-534.61
-502.14
-460.82
-412.49
-359.13
-302.82
-245.57
-189.31
-135.80
-86.58
-43.20
-6.82
22.34
45.50
65.52
86.18
110.80
140.68
174.35
207.97
236.93
257.76
269.23
272.26
268.91
261.15
250.16
236.54
220.85
204.07
187.56
172.51
159.42
147.98
137.32
126.51
115.02
102.92
90.80
79.46
69.53
61.27
54.42
48.36
42.41
36.22
29.73
23.29
17.48
12.79
9.38
6.99
5.14
3.34
1.38
-0.71
-2.69
-4.29
-5.42
-6.12
-6.59
-6.99
-7.43
-7.88
-8.29
-8.54
-8.58
-8.42
-8.12
-7.81
-7.56
-7.41
-7.31
-7.24
-7.14
-6.98
-6.61
-5.87
-4.58
-2.75
-0.71
1.02
1.89
1.65
0.49
-1.04
-2.33
-3.02
-3.14
-2.97
-2.88
-3.00
-3.24
-3.34
-3.16
-2.69
-2.15
-1.77
-1.69
-1.92
-2.29
-2.55
-2.53
-2.20
-1.66
-1.15
-0.84
-0.84
-1.02
-1.22
-1.25
-1.03
-0.65
-0.22
0.14
0.41
0.63
0.89
1.19
1.49
1.74
1.92
2.09
2.33
2.68
3.13
3.62
4.07
4.49
4.90
5.37
5.90
6.41
6.73
6.69
6.16
5.13
3.71
2.03
0.25
-1.46
-3.02
-4.38
-5.53
-6.50
-7.29
-7.89
-8.32
-8.60
-8.74
-8.76
-8.67
-8.45
-8.09
-7.61
-7.03
-6.41
-5.79
-5.16
-4.51
-3.82
-3.14
-2.52
-2.02
-1.70
-1.53
-1.45
-1.39
-1.31
-1.19
-1.06
-0.95
-0.83
-0.73
-0.63
-0.57
-0.60
-0.73
-0.93
-1.09
-1.09
-0.88
-0.50
-0.10
0.17
0.21
0.05
-0.20
-0.38
-0.41
-0.32
-0.20
-0.10
-0.05
-0.02
0.05
0.16
0.28
0.35
0.34
0.24
0.07
-0.09
-0.21
-0.26
-0.24
-0.16
-0.01
0.21
0.47
0.74
0.97
1.14
1.23
1.24
1.23
1.20
1.17
1.09
0.94
0.69
0.34
-0.06
-0.45
-0.79
-1.07
-1.32
-1.56
-1.83
-2.09
-2.32
-2.47
-2.52
-2.48
-2.37
-2.19
-1.97
-1.72
-1.44
-1.13
-0.78
-0.41
-0.04
0.28
0.43
0.34
-0.00
-0.52
-1.07
-1.50
-1.76
-1.89
-1.99
-2.12
-2.23
-2.21
-1.92
-1.28
-0.30
0.86
2.04
3.02
3.67
3.93
3.86
3.58
3.26
3.00
2.85
2.74
2.58
2.30
1.92
1.56
1.29
1.18
1.18
1.24
1.27
1.23
1.11
0.93
0.71
0.53
0.45
0.55
0.82
1.17
1.46
1.52
1.31
0.89
0.39
-0.03
-0.29
-0.39
-0.39
-0.36
-0.32
-0.29
-0.27
-0.32
-0.50
-0.88
-1.44
-2.02
-2.46
-2.59
-2.37
-1.89
-1.30
-0.77
-0.38
-0.14
0.02
0.17
0.33
0.47
0.54
0.49
0.32
0.06
-0.23
-0.52
-0.75
-0.94
-1.06
-1.14
-1.17
-1.15
-1.06
-0.90
-0.71
-0.58
-0.60
-0.77
-1.01
-1.14
-1.00
-0.55
0.12
0.78
1.23
1.34
1.13
0.72
0.23
-0.28
-0.82
-1.42
-2.05
-2.66
-3.15
-3.42
-3.42
-3.15
-2.64
-1.94
-1.14
-0.33
0.43
1.11
1.71
2.29
2.86
3.36
3.71
3.80
3.62
3.20
2.65
2.10
1.59
1.16
0.78
0.51
0.39
0.53
0.91
1.45
1.95
2.21
2.11
1.73
1.21
0.76
0.46
0.29
0.14
-0.13
-0.56
-1.11
-1.71
-2.27
-2.75
-3.17
-3.55
-3.93
-4.28
-4.57
-4.72
-4.66
-4.39
-3.94
-3.45
-3.03
-2.77
-2.64
-2.52
-2.30
-1.88
-1.29
-0.64
-0.04
0.41
0.69
0.81
0.84
0.81
0.75
0.67
0.60
0.58
0.64
0.82
1.14
1.54
1.95
2.25
2.38
2.32
2.16
2.04
2.05
2.21
2.45
2.61
2.56
2.25
1.70
1.03
0.38
-0.14
-0.46
-0.60
-0.65
-0.73
-0.99
-1.53
-2.30
-3.11
-3.71
-3.85
-3.44
-2.58
-1.48
-0.41
0.46
1.11
1.60
1.99
2.31
2.55
2.71
2.83
3.01
3.28
3.64
3.96
4.06
3.81
3.22
2.41
1.62
1.04
0.78
0.84
1.12
1.50
1.85
2.09
2.18
2.09
1.81
1.37
0.83
0.28
-0.20
-0.53
-0.71
-0.77
-0.77
-0.79
-0.91
-1.18
-1.59
-2.09
-2.57
-2.90
-3.00
-2.82
-2.38
-1.71
-0.87
0.12
1.20
2.27
3.18
3.74
3.83
3.43
2.68
1.77
0.90
0.20
-0.30
-0.59
-0.68
-0.56
-0.21
0.37
1.06
1.68
2.07
2.14
1.93
1.55
1.11
0.61
-0.00
-0.78
-1.71
-2.62
-3.28
-3.52
-3.32
-2.82
-2.28
-1.89
-1.72
-1.68
-1.55
-1.16
-0.43
0.57
1.72
2.87
3.94
4.89
5.74
6.48
7.13
7.70
8.29
9.00
9.91
10.97
12.04
12.89
13.35
13.39
13.15
12.80
12.39
11.82
10.84
9.28
7.25
5.14
3.53
2.93
3.58
5.34
7.75
10.19
11.98
12.63
11.84
9.60
6.18
2.00
-2.47
-6.84
-10.86
-14.39
-17.28
-19.32
-20.31
-20.19
-19.18
-17.75
-16.44
-15.59
-15.22
-15.00
-14.47
-13.32
-11.56
-9.48
-7.53
-6.06
-5.22
-4.93
-5.05
-5.41
-5.92
-6.48
-6.98
-7.26
-7.16
-6.61
-5.65
-4.44
-3.20
-2.12
-1.31
-0.79
-0.53
-0.45
-0.44
-0.33
0.06
0.84
2.02
3.44
4.80
5.78
6.09
5.65
4.53
2.96
1.26
-0.28
-1.46
-2.18
-2.51
-2.59
-2.58
-2.60
-2.68
-2.75
-2.71
-2.53
-2.26
-1.97
-1.79
-1.73
-1.79
-1.88
-1.99
-2.11
-2.30
-2.62
-3.04
-3.48
-3.79
-3.85
-3.53
-2.83
-1.80
-0.56
0.71
1.87
2.81
3.50
3.94
4.20
4.30
4.31
4.25
4.18
4.09
4.01
3.90
3.72
3.45
3.09
2.67
2.27
1.90
1.59
1.30
1.01
0.75
0.58
0.58
0.83
1.35
2.07
2.89
3.67
4.29
4.67
4.80
4.73
4.51
4.24
3.96
3.70
3.46
3.20
2.93
2.66
2.42
2.21
1.94
1.52
0.84
-0.10
-1.17
-2.19
-2.95
-3.37
-3.49
-3.46
-3.41
-3.41
-3.41
-3.32
-3.12
-2.86
-2.68
-2.73
-3.11
-3.80
-4.69
-5.64
-6.47
-7.06
-7.38
-7.52
-7.65
-8.04
-8.91
-10.33
-12.12
-13.90
-15.18
-15.58
-14.99
-13.55
-11.58
-9.39
-7.12
-4.70
-2.00
0.98
3.99
6.53
8.06
8.10
6.38
2.84
-2.27
-8.31
-13.96
-17.36
-16.50
-10.07
1.81
17.25
33.16
46.32
54.55
57.35
55.71
51.24
45.30
38.58
31.24
23.38
15.47
8.31
2.69
-1.03
-3.11
-4.30
-5.45
-7.10
-9.27
-11.57
-13.40
-14.29
-14.09
-13.05
-11.67
-10.51
-9.93
-9.98
-10.40
-10.78
-10.75
-10.16
-9.11
-7.87
-6.74
-5.91
-5.42
-5.20
-5.07
-4.93
-4.72
-4.46
-4.23
-4.09
-4.04
-4.03
-3.97
-3.80
-3.53
-3.19
-2.87
-2.59
-2.37
-2.16
-1.97
-1.82
-1.77
-1.84
-2.01
-2.19
-2.28
-2.25
-2.16
-2.10
-2.14
-2.27
-2.41
-2.46
-2.37
-2.17
-1.96
-1.80
-1.67
-1.47
-1.07
-0.38
0.56
1.60
2.53
3.18
3.49
3.50
3.32
3.07
2.86
2.69
2.57
2.46
2.37
2.32
2.34
2.44
2.56
2.62
2.54
2.30
1.98
1.69
1.57
1.64
1.82
1.91
1.76
1.30
0.59
-0.15
-0.71
-0.95
-0.87
-0.59
-0.28
-0.08
-0.06
-0.19
-0.46
-0.84
-1.33
-1.92
-2.51
-2.91
-2.94
-2.47
-1.55
-0.42
0.61
1.26
1.40
1.14
0.68
0.25
-0.02
-0.12
-0.11
-0.08
-0.05
-0.02
0.02
0.08
0.14
0.22
0.33
0.51
0.76
1.07
1.34
1.51
1.53
1.39
1.15
0.86
0.58
0.35
0.18
0.10
0.10
0.17
0.25
0.26
0.14
-0.15
-0.54
-0.90
-1.13
-1.16
-1.03
-0.84
-0.72
-0.76
-0.97
-1.27
-1.58
-1.82
-1.93
-1.91
-1.76
-1.48
-1.08
-0.59
-0.05
0.45
0.85
1.11
1.22
1.25
1.29
1.42
1.67
1.98
2.24
2.31
2.14
1.75
1.28
0.88
0.68
0.71
0.91
1.19
1.45
1.66
1.81
1.96
2.10
2.22
2.28
2.23
2.10
1.92
1.75
1.66
1.65
1.74
1.91
2.19
2.56
3.01
3.47
3.88
4.19
4.40
4.64
5.07
5.76
6.66
7.55
8.08
7.97
7.10
5.57
3.61
1.46
-0.84
-3.45
-6.65
-10.62
-15.21
-19.91
-23.96
-26.67
-27.69
-27.15
-25.62
-23.85
-22.59
-22.39
-23.50
-25.81
-28.67
-30.89
-30.80
-26.78
-17.91
-4.53
11.62
27.91
41.60
50.78
54.73
53.90
49.37
42.40
34.12
25.48
17.36
10.53
5.52
2.49
1.10
0.69
0.51
-0.04
-1.19
-2.86
-4.67
-6.19
-7.06
-7.17
-6.65
-5.86
-5.20
-5.00
-5.35
-6.10
-6.93
-7.47
-7.52
-7.04
-6.24
-5.41
-4.82
-4.59
-4.67
-4.88
-4.99
-4.86
-4.44
-3.81
-3.10
-2.43
-1.88
-1.50
-1.28
-1.18
-1.16
-1.10
-0.95
-0.68
-0.37
-0.13
-0.12
-0.36
-0.79
-1.25
-1.54
-1.54
-1.24
-0.72
-0.15
0.33
0.67
0.88
1.01
1.11
1.22
1.28
1.27
1.15
0.96
0.81
0.81
1.01
1.34
1.66
1.78
1.58
1.07
0.37
-0.32
-0.84
-1.08
-1.04
-0.77
-0.34
0.16
0.66
1.10
1.41
1.54
1.46
1.23
0.97
0.79
0.77
0.90
1.11
1.26
1.25
1.02
0.60
0.04
-0.59
-1.21
-1.73
-2.08
-2.20
-2.07
-1.73
-1.29
-0.89
-0.59
-0.39
-0.20
0.09
0.52
1.04
1.51
1.82
1.92
1.85
1.68
1.48
1.24
0.95
0.61
0.28
0.06
0.03
0.18
0.39
0.53
0.51
0.34
0.11
-0.05
-0.09
-0.03
0.05
0.05
-0.06
-0.27
-0.54
-0.79
-1.00
-1.15
-1.23
-1.25
-1.24
-1.23
-1.25
-1.34
-1.52
-1.78
-2.12
-2.49
-2.78
-2.89
-2.72
-2.21
-1.41
-0.44
0.54
1.34
1.84
2.02
1.94
1.70
1.37
1.01
0.64
0.29
0.01
-0.13
-0.07
0.19
0.60
1.06
1.45
1.65
1.63
1.38
0.97
0.48
0.03
-0.32
-0.54
-0.67
-0.76
-0.87
-1.02
-1.18
-1.36
-1.61
-1.99
-2.53
-3.15
-3.67
-3.83
-3.44
-2.52
-1.25
0.05
1.09
1.71
1.95
1.98
1.97
2.07
2.33
2.72
3.20
3.71
4.18
4.56
4.82
4.93
4.90
4.75
4.48
4.14
3.75
3.36
3.03
2.76
2.51
2.21
1.81
1.34
0.90
0.63
0.60
0.75
0.94
1.04
0.98
0.76
0.50
0.27
0.12
0.04
-0.01
-0.04
-0.03
-0.00
0.04
0.07
0.04
-0.04
-0.15
-0.24
-0.28
-0.31
-0.37
-0.55
-0.90
-1.39
-1.95
-2.47
-2.83
-2.99
-2.99
-2.86
-2.70
-2.53
-2.35
-2.10
-1.75
-1.29
-0.75
-0.19
0.31
0.69
0.91
0.96
0.87
0.66
0.35
-0.03
-0.45
-0.82
-1.05
-1.05
-0.81
-0.39
0.08
0.51
0.84
1.11
1.41
1.82
2.30
2.72
2.92
2.78
2.29
1.59
0.87
0.31
0.01
-0.03
0.10
0.36
0.68
1.01
1.29
1.42
1.31
0.95
0.43
-0.08
-0.38
-0.39
-0.15
0.18
0.40
0.40
0.23
0.07
0.12
0.53
1.24
2.05
2.71
2.96
2.73
2.08
1.19
0.25
-0.63
-1.43
-2.18
-2.89
-3.55
-4.08
-4.44
-4.61
-4.64
-4.60
-4.52
-4.38
-4.17
-3.86
-3.51
-3.22
-3.07
-3.06
-3.09
-3.03
-2.74
-2.20
-1.48
-0.73
-0.08
0.37
0.60
0.64
0.49
0.17
-0.29
-0.84
-1.37
-1.79
-2.04
-2.10
-2.01
-1.79
-1.49
-1.12
-0.70
-0.22
0.27
0.70
0.99
1.13
1.11
1.02
0.98
1.07
1.31
1.63
1.91
2.03
1.95
1.71
1.45
1.28
1.32
1.62
2.18
2.97
3.86
4.68
5.25
5.43
5.20
4.64
3.92
3.17
2.47
1.81
1.16
0.55
0.01
-0.40
-0.69
-0.95
-1.28
-1.74
-2.27
-2.76
-3.07
-3.14
-3.00
-2.79
-2.67
-2.74
-3.04
-3.52
-4.02
-4.37
-4.39
-3.99
-3.15
-1.96
-0.58
0.76
1.89
2.70
3.16
3.32
3.28
3.16
3.08
3.09
3.23
3.48
3.79
4.10
4.37
4.54
4.58
4.53
4.40
4.25
4.11
3.95
3.74
3.46
3.15
2.86
2.67
2.63
2.70
2.78
2.78
2.67
2.51
2.38
2.38
2.54
2.84
3.19
3.52
3.72
3.77
3.68
3.46
3.13
2.72
2.27
1.84
1.58
1.58
1.96
2.77
3.90
5.20
6.49
7.70
8.82
9.93
11.08
12.30
13.65
15.02
16.26
17.23
17.85
18.02
17.85
17.35
16.67
16.11
15.75
15.49
15.18
14.71
13.99
13.33
12.82
12.67
13.15
13.98
14.49
14.01
12.04
8.36
3.45
-2.50
-9.14
-15.85
-22.53
-29.29
-36.09
-42.69
-49.00
-54.74
-60.85
-68.67
-75.32
-78.06
-75.48
-67.96
-57.07
-47.98
-40.27
-33.27
-26.94
-21.74
-17.20
-14.02
-12.58
-12.66
-13.68
-14.49
-14.94
-15.17
-15.26
-15.46
-16.08
-17.05
-18.28
-19.78
-21.25
-22.69
-23.55
-22.70
-19.19
-13.04
-5.23
2.42
7.87
10.02
8.61
4.57
-0.41
-4.68
-7.10
-6.97
-3.94
1.89
9.91
18.49
25.25
27.59
23.57
12.59
-4.02
-23.39
-42.05
-56.97
-66.43
-70.17
-68.99
-64.04
-56.38
-46.75
-35.69
-23.76
-11.71
-0.28
10.06
19.25
27.63
35.49
42.87
49.29
54.02
56.47
56.56
54.85
52.30
49.90
48.23
47.28
46.62
45.71
44.19
42.03
39.50
36.99
34.85
33.22
32.05
31.09
30.00
28.43
26.11
23.01
19.34
15.64
12.57
10.82
10.81
12.52
15.48
18.82
21.60
23.09
23.05
21.78
19.94
18.26
17.24
17.08
17.69
18.92
20.66
22.93
25.76
29.07
32.50
35.44
37.14
36.87
34.14
28.89
21.52
12.81
3.75
-4.70
-11.75
-16.88
-19.84
-20.58
-19.26
-16.30
-12.28
-7.92
-3.89
-0.60
1.84
3.63
5.20
6.94
9.16
11.92
15.11
18.45
21.60
24.29
26.40
27.91
28.86
29.15
28.43
26.08
21.44
14.04
3.94
-8.10
-20.75
-32.44
-41.77
-47.98
-51.06
-51.75
-51.27
-50.95
-51.91
-54.85
-59.92
-66.73
-74.46
-82.05
-88.50
-93.22
-96.14
-97.73
-98.78
-100.02
-101.83
-103.92
-105.21
-103.96
-98.17
-86.31
-67.98
-44.39
-18.20
7.15
28.56
44.15
53.74
58.64
60.90
62.40
64.28
66.75
69.31
71.20
71.86
71.14
69.35
67.04
64.74
62.76
61.12
59.66
58.17
56.45
54.27
51.33
47.34
42.11
35.72
28.65
21.64
15.54
10.99
8.27
7.22
7.33
7.93
8.43
8.43
7.82
6.75
5.47
4.22
3.15
2.23
1.37
0.47
-0.56
-1.71
-2.92
-4.09
-5.06
-5.70
-5.88
-5.55
-4.75
-3.64
-2.42
-1.34
-0.59
-0.27
-0.46
-1.17
-2.34
-3.87
-5.55
-7.12
-8.33
-9.03
-9.29
-9.31
-9.37
-9.67
-10.22
-10.87
-11.39
-11.62
-11.56
-11.36
-11.23
-11.29
-11.53
-11.78
-11.80
-11.37
-10.36
-8.73
-6.59
-4.06
-1.30
1.60
4.58
7.55
10.38
12.82
14.58
15.39
15.15
14.01
12.32
10.61
9.33
8.79
9.03
9.86
10.96
12.00
12.73
13.04
12.92
12.46
11.75
10.85
9.81
8.66
7.52
6.55
5.92
5.77
6.09
6.70
7.31
7.64
7.50
6.92
6.09
5.33
4.95
5.10
5.78
6.83
8.02
9.07
9.73
9.80
9.18
7.89
6.07
4.00
1.93
0.06
-1.57
-3.00
-4.27
-5.39
-6.23
-6.65
-6.54
-5.94
-5.07
-4.22
-3.72
-3.73
-4.28
-5.20
-6.19
-6.93
-7.12
-6.54
-5.05
-2.64
0.57
4.34
8.29
11.97
14.97
16.99
17.94
17.88
16.96
15.37
13.20
10.48
7.20
3.45
-0.50
-4.20
-7.12
-8.92
-9.66
-9.94
-10.74
-13.00
-17.16
-22.86
-29.09
-34.61
-38.52
-40.58
-41.14
-40.74
-39.76
-38.20
-35.92
-32.93
-29.60
-26.64
-24.70
-24.09
-24.59
-25.56
-26.28
-26.26
-25.34
-23.70
-21.66
-19.57
-17.69
-16.17
-15.07
-14.32
-13.67
-12.80
-11.46
-9.64
-7.64
-6.06
-5.55
-6.57
-9.12
-12.65
-16.02
-17.87
-16.99
-12.74
-5.43
3.72
12.94
20.37
24.64
25.17
22.27
17.08
11.24
6.51
4.29
5.25
9.15
14.98
21.42
27.28
31.87
34.96
36.53
36.54
34.89
31.58
27.02
22.01
17.48
14.05
11.74
9.98
7.98
5.22
1.83
-1.48
-3.72
-4.07
-2.32
0.98
4.60
6.93
6.42
2.01
-6.40
-17.69
-29.53
-38.90
-43.00
-40.35
-31.37
-18.36
-4.62
6.74
13.72
15.84
13.90
9.41
4.02
-0.83
-4.10
-5.18
-4.02
-1.06
2.91
7.02
10.60
13.31
15.07
15.90
15.85
15.02
13.59
11.85
10.06
8.31
6.48
4.31
1.65
-1.44
-4.60
-7.37
-9.33
-10.33
-10.52
-10.24
-9.86
-9.61
-9.52
-9.44
-9.17
-8.56
-7.63
-6.49
-5.39
-4.55
-4.10
-4.06
-4.35
-4.81
-5.26
-5.57
-5.67
-5.55
-5.26
-4.88
-4.45
-4.02
-3.59
-3.19
-2.81
-2.49
-2.20
-1.92
-1.62
-1.29
-0.94
-0.60
-0.25
0.16
0.71
1.45
2.31
3.14
3.67
3.71
3.19
2.19
0.99
-0.13
-0.94
-1.36
-1.47
-1.44
-1.37
-1.31
-1.22
-1.05
-0.80
-0.57
-0.51
-0.74
-1.26
-1.91
-2.47
-2.78
-2.81
-2.65
-2.43
-2.22
-1.95
-1.50
-0.76
0.26
1.48
2.74
3.89
4.85
5.58
6.05
6.26
6.25
6.08
5.83
5.59
5.39
5.23
5.05
4.84
4.62
4.43
4.28
4.16
4.05
3.92
3.77
3.64
3.54
3.43
3.25
2.94
2.51
2.05
1.66
1.39
1.20
0.97
0.59
-0.00
-0.75
-1.56
-2.31
-2.96
-3.50
-3.95
-4.26
-4.33
-4.08
-3.46
-2.51
-1.41
-0.38
0.42
0.90
1.06
1.01
0.88
0.79
0.85
1.09
1.46
1.88
2.26
2.52
2.66
2.73
2.79
2.87
2.98
3.05
3.03
2.87
2.54
2.04
1.38
0.63
-0.09
-0.64
-0.87
-0.70
-0.15
0.67
1.56
2.35
2.91
3.19
3.21
3.05
2.77
2.43
2.09
1.78
1.52
1.29
1.00
0.57
-0.06
-0.90
-1.84
-2.72
-3.33
-3.55
-3.32
-2.74
-1.96
-1.15
-0.44
0.09
0.43
0.60
0.62
0.52
0.33
0.07
-0.23
-0.53
-0.82
-1.05
-1.17
-1.14
-0.91
-0.50
-0.01
0.48
0.88
1.17
1.39
1.58
1.75
1.84
1.76
1.48
1.06
0.64
0.36
0.32
0.46
0.65
0.72
0.58
0.23
-0.23
-0.70
-1.11
-1.44
-1.72
-1.95
-2.10
-2.17
-2.14
-2.07
-2.01
-1.99
-1.96
-1.82
-1.45
-0.80
0.08
1.05
1.92
2.56
2.88
2.92
2.76
2.48
2.16
1.84
1.50
1.14
0.75
0.35
0.01
-0.18
-0.16
0.11
0.56
1.08
1.51
1.75
1.78
1.68
1.53
1.38
1.20
0.93
0.52
-0.00
-0.52
-0.89
-1.04
-0.98
-0.81
-0.62
-0.46
-0.36
-0.29
-0.27
-0.39
-0.72
-1.26
-1.94
-2.57
-2.96
-2.99
-2.66
-2.05
-1.34
-0.66
-0.11
0.28
0.51
0.62
0.64
0.61
0.57
0.51
0.42
0.28
0.10
-0.07
-0.17
-0.17
-0.06
0.05
0.08
0.00
-0.14
-0.23
-0.18
0.01
0.25
0.44
0.54
0.58
0.66
0.84
1.07
1.22
1.15
0.79
0.22
-0.41
-0.91
-1.14
-1.11
-0.89
-0.58
-0.25
0.07
0.33
0.50
0.50
0.31
-0.07
-0.53
-0.93
-1.08
-0.91
-0.41
0.26
0.92
1.38
1.56
1.49
1.27
1.06
0.96
1.00
1.10
1.20
1.20
1.09
0.92
0.72
0.56
0.47
0.46
0.57
0.81
1.14
1.48
1.74
1.84
1.75
1.54
1.28
1.05
0.87
0.71
0.50
0.20
-0.18
-0.62
-1.06
-1.45
-1.79
-2.06
-2.28
-2.47
-2.64
-2.75
-2.79
-2.73
-2.59
-2.46
-2.42
-2.52
-2.75
-3.02
-3.24
-3.33
-3.29
-3.14
-2.93
-2.68
-2.38
-2.02
-1.63
-1.33
-1.26
-1.58
-2.30
-3.32
-4.44
-5.41
-6.08
-6.40
-6.52
-6.60
-6.82
-7.23
-7.74
-8.12
-8.12
-7.49
-6.15
-4.13
-1.57
1.31
4.34
7.36
10.28
12.94
15.14
16.69
17.47
17.53
17.07
16.34
15.53
14.71
13.81
12.77
11.63
10.50
9.49
8.64
7.81
6.83
5.58
4.15
2.78
1.80
1.39
1.56
2.08
2.72
3.24
3.56
3.70
3.67
3.44
2.96
2.18
1.15
0.00
-1.04
-1.79
-2.17
-2.19
-1.99
-1.71
-1.48
-1.34
-1.26
-1.16
-0.97
-0.67
-0.30
0.01
0.16
0.03
-0.33
-0.85
-1.37
-1.81
-2.18
-2.61
-3.21
-4.02
-4.98
-5.92
-6.68
-7.20
-7.50
-7.64
-7.63
-7.38
-6.75
-5.65
-4.11
-2.36
-0.69
0.63
1.51
2.01
2.29
2.47
2.55
2.36
1.69
0.41
-1.40
-3.46
-5.39
-6.84
-7.64
-7.83
-7.57
-7.08
-6.50
-5.89
-5.29
-4.72
-4.23
-3.87
-3.66
-3.54
-3.39
-3.10
-2.66
-2.11
-1.55
-1.10
-0.81
-0.68
-0.68
-0.78
-0.94
-1.14
-1.33
-1.42
-1.34
-1.08
-0.73
-0.40
-0.19
-0.08
0.01
0.23
0.62
1.10
1.50
1.62
1.41
0.95
0.43
0.05
-0.06
0.07
0.31
0.51
0.59
0.53
0.39
0.22
-0.00
-0.33
-0.82
-1.45
-2.07
-2.50
-2.56
-2.17
-1.38
-0.31
0.87
2.00
2.97
3.67
4.02
3.97
3.55
2.84
2.02
1.29
0.79
0.57
0.57
0.66
0.74
0.76
0.73
0.71
0.79
0.96
1.19
1.40
1.52
1.50
1.34
1.06
0.74
0.43
0.23
0.20
0.33
0.58
0.86
1.06
1.13
1.07
0.91
0.73
0.56
0.42
0.32
0.23
0.13
0.02
-0.12
-0.34
-0.66
-1.11
-1.69
-2.35
-3.04
-3.65
-4.08
-4.24
-4.08
-3.56
-2.74
-1.73
-0.69
0.22
0.89
1.30
1.53
1.69
1.87
2.13
2.45
2.79
3.13
3.47
3.83
4.24
4.67
5.08
5.42
5.66
5.82
5.94
6.13
6.42
6.75
6.98
6.88
6.36
5.44
4.36
3.38
2.71
2.39
2.28
2.18
1.93
1.46
0.83
0.11
-0.67
-1.52
-2.45
-3.43
-4.39
-5.28
-6.07
-6.81
-7.53
-8.25
-8.91
-9.39
-9.61
-9.56
-9.29
-8.93
-8.57
-8.26
-7.99
-7.69
-7.26
-6.64
-5.74
-4.50
-2.90
-0.99
1.11
3.23
5.17
6.79
8.01
8.86
9.40
9.68
9.75
9.66
9.53
9.46
9.61
10.09
10.95
12.12
13.43
14.64
15.45
15.63
15.07
13.84
12.19
10.39
8.63
6.92
5.15
3.12
0.77
-1.77
-4.22
-6.27
-7.74
-8.66
-9.23
-9.71
-10.32
-11.24
-12.60
-14.49
-16.94
-19.84
-22.87
-25.54
-27.34
-27.94
-27.32
-25.77
-23.74
-21.67
-19.88
-18.47
-17.41
-16.59
-15.79
-14.72
-13.04
-10.45
-6.87
-2.51
2.16
6.60
10.39
13.36
15.55
17.11
18.15
18.68
18.71
18.26
17.48
16.58
15.74
15.04
14.41
13.68
12.70
11.42
9.96
8.58
7.53
6.93
6.74
6.72
6.59
6.18
5.46
4.55
3.61
2.76
2.05
1.47
0.97
0.51
0.01
-0.62
-1.47
-2.55
-3.81
-5.11
-6.29
-7.26
-7.99
-8.48
-8.74
-8.73
-8.44
-7.89
-7.16
-6.38
-5.66
-5.05
-4.52
-4.00
-3.48
-2.96
-2.50
-2.15
-1.91
-1.74
-1.55
-1.27
-0.85
-0.30
0.31
0.89
1.37
1.74
2.07
2.45
2.93
3.48
3.96
4.22
4.15
3.81
3.37
3.02
2.94
3.15
3.55
3.97
4.20
4.14
3.76
3.12
2.37
1.66
1.14
0.87
0.88
1.06
1.27
1.34
1.13
0.59
-0.25
-1.31
-2.43
-3.42
-4.13
-4.42
-4.22
-3.56
-2.59
-1.50
-0.48
0.33
0.88
1.19
1.33
1.36
1.31
1.19
0.99
0.73
0.47
0.27
0.23
0.38
0.70
1.12
1.53
1.85
2.06
2.18
2.25
2.30
2.29
2.20
2.01
1.78
1.59
1.47
1.40
1.31
1.12
0.78
0.32
-0.18
-0.64
-0.99
-1.22
-1.35
-1.39
-1.36
-1.33
-1.37
-1.58
-2.01
-2.62
-3.31
-3.91
-4.30
-4.41
-4.28
-3.95
-3.47
-2.88
-2.18
-1.42
-0.69
-0.10
0.31
0.57
0.79
1.02
1.30
1.53
1.63
1.55
1.35
1.18
1.18
1.42
1.87
2.43
2.95
3.35
3.59
3.71
3.74
3.73
3.70
3.62
3.46
3.20
2.86
2.49
2.14
1.88
1.67
1.45
1.14
0.73
0.24
-0.21
-0.54
-0.73
-0.84
-1.02
-1.36
-1.90
-2.55
-3.18
-3.68
-4.01
-4.18
-4.25
-4.25
-4.14
-3.86
-3.36
-2.67
-1.86
-1.05
-0.36
0.17
0.56
0.88
1.19
1.53
1.89
2.21
2.44
2.52
2.43
2.19
1.89
1.64
1.57
1.76
2.18
2.71
3.14
3.29
3.08
2.55
1.85
1.15
0.55
0.08
-0.33
-0.69
-0.99
-1.13
-1.04
-0.70
-0.21
0.30
0.68
0.86
0.86
0.74
0.57
0.39
0.18
-0.09
-0.46
-0.93
-1.53
-2.30
-3.25
-4.38
-5.60
-6.74
-7.66
-8.21
-8.35
-8.10
-7.50
-6.64
-5.60
-4.50
-3.45
-2.57
-1.91
-1.47
-1.17
-0.93
-0.70
-0.47
-0.29
-0.20
-0.19
-0.23
-0.23
-0.16
-0.03
0.10
0.18
0.21
0.24
0.35
0.59
0.94
1.30
1.55
1.61
1.51
1.31
1.08
0.85
0.59
0.28
-0.03
-0.21
-0.16
0.20
0.80
1.50
2.13
2.53
2.62
2.34
1.72
0.83
-0.25
-1.37
-2.38
-3.17
-3.62
-3.72
-3.47
-2.96
-2.31
-1.70
-1.27
-1.09
-1.11
-1.20
-1.19
-0.98
-0.59
-0.09
0.38
0.74
1.01
1.25
1.52
1.87
2.22
2.45
2.43
2.08
1.48
0.79
0.23
-0.03
0.06
0.41
0.86
1.26
1.52
1.66
1.74
1.81
1.88
1.90
1.80
1.56
1.16
0.67
0.13
-0.40
-0.87
-1.24
-1.49
-1.59
-1.54
-1.36
-1.09
-0.82
-0.67
-0.73
-1.02
-1.51
-2.11
-2.66
-3.06
-3.22
-3.15
-2.85
-2.37
-1.75
-1.01
-0.17
0.74
1.64
2.48
3.15
3.59
3.79
3.77
3.61
3.39
3.18
3.02
2.92
2.86
2.84
2.91
3.09
3.41
3.81
4.19
4.43
4.45
4.27
3.98
3.69
3.52
3.45
3.44
3.37
3.17
2.79
2.22
1.50
0.66
-0.25
-1.13
-1.91
-2.51
-2.90
-3.14
-3.31
-3.55
-3.93
-4.44
-5.03
-5.59
-6.01
-6.24
-6.29
-6.23
-6.16
-6.12
-6.09
-5.96
-5.59
-4.87
-3.78
-2.41
-0.96
0.31
1.26
1.82
2.07
2.14
2.16
2.21
2.31
2.46
2.63
2.79
2.93
3.01
3.01
2.91
2.78
2.67
2.67
2.81
3.05
3.34
3.63
3.88
4.06
4.12
3.99
3.64
3.06
2.30
1.43
0.53
-0.35
-1.20
-1.96
-2.56
-2.94
-3.06
-2.96
-2.79
-2.68
-2.74
-2.99
-3.35
-3.73
-4.08
-4.35
-4.53
-4.58
-4.46
-4.16
-3.76
-3.35
-3.07
-2.99
-3.06
-3.17
-3.16
-2.95
-2.52
-1.93
-1.27
-0.58
0.10
0.77
1.42
2.02
2.55
2.99
3.34
3.60
3.77
3.82
3.77
3.65
3.50
3.39
3.35
3.36
3.36
3.32
3.22
3.09
3.03
3.10
3.32
3.62
3.89
4.00
3.89
3.58
3.14
2.66
2.20
1.77
1.35
0.92
0.49
0.11
-0.18
-0.33
-0.29
-0.07
0.28
0.67
0.95
0.99
0.68
0.03
-0.84
-1.73
-2.49
-3.04
-3.37
-3.60
-3.80
-4.01
-4.19
-4.26
-4.16
-3.89
-3.48
-3.01
-2.51
-2.01
-1.50
-1.00
-0.52
-0.11
0.20
0.40
0.51
0.55
0.57
0.58
0.58
0.59
0.60
0.64
0.74
0.93
1.21
1.56
1.95
2.33
2.70
3.03
3.32
3.52
3.59
3.51
3.28
2.93
2.55
2.19
1.91
1.72
1.63
1.60
1.59
1.55
1.37
1.04
0.54
-0.04
-0.60
-1.03
-1.33
-1.53
-1.68
-1.84
-2.04
-2.27
-2.50
-2.71
-2.84
-2.88
-2.81
-2.64
-2.39
-2.09
-1.75
-1.36
-0.90
-0.39
0.10
0.51
0.78
0.89
0.91
0.90
0.89
0.86
0.79
0.65
0.50
0.44
0.55
0.85
1.28
1.71
1.99
2.06
1.92
1.67
1.42
1.25
1.19
1.19
1.17
1.07
0.86
0.59
0.31
0.09
-0.04
-0.07
-0.04
0.00
0.02
0.00
-0.04
-0.06
-0.03
0.04
0.10
0.07
-0.14
-0.55
-1.11
-1.72
-2.26
-2.67
-2.94
-3.08
-3.05
-2.82
-2.36
-1.68
-0.88
-0.07
0.61
1.09
1.37
1.48
1.46
1.34
1.12
0.80
0.46
0.18
0.03
-0.01
0.02
0.03
-0.00
-0.07
-0.13
-0.18
-0.26
-0.43
-0.72
-1.08
-1.41
-1.61
-1.63
-1.53
-1.42
-1.39
-1.46
-1.58
-1.71
-1.82
-1.94
-2.06
-2.18
-2.24
-2.22
-2.09
-1.92
-1.75
-1.62
-1.53
-1.43
-1.33
-1.28
-1.37
-1.71
-2.33
-3.13
-3.94
-4.56
-4.81
-4.67
-4.19
-3.50
-2.70
-1.87
-1.05
-0.23
0.54
1.22
1.76
2.14
2.38
2.55
2.69
2.82
2.92
2.94
2.87
2.73
2.57
2.45
2.41
2.44
2.56
2.71
2.85
2.92
2.86
2.66
2.37
2.08
1.85
1.72
1.62
1.45
1.09
0.53
-0.13
-0.72
-1.09
-1.21
-1.15
-1.05
-1.05
-1.17
-1.37
-1.58
-1.80
-2.07
-2.49
-3.10
-3.85
-4.58
-5.07
-5.19
-4.91
-4.35
-3.69
-3.08
-2.58
-2.16
-1.70
-1.14
-0.46
0.27
0.94
1.45
1.77
1.89
1.87
1.70
1.42
1.05
0.66
0.38
0.29
0.48
0.91
1.48
2.03
2.43
2.61
2.57
2.37
2.09
1.78
1.48
1.18
0.90
0.69
0.57
0.54
0.53
0.49
0.35
0.10
-0.17
-0.41
-0.57
-0.66
-0.72
-0.77
-0.83
-0.90
-1.02
-1.26
-1.67
-2.23
-2.80
-3.20
-3.26
-2.92
-2.26
-1.45
-0.64
0.07
0.67
1.19
1.62
1.93
2.08
2.06
1.90
1.67
1.44
1.25
1.12
1.04
0.98
0.94
0.92
0.92
0.97
1.08
1.25
1.47
1.71
1.91
2.03
2.00
1.81
1.48
1.05
0.60
0.20
-0.11
-0.34
-0.46
-0.49
-0.45
-0.36
-0.30
-0.30
-0.42
-0.66
-0.96
-1.27
-1.50
-1.65
-1.76
-1.92
-2.19
-2.61
-3.11
-3.52
-3.67
-3.45
-2.85
-2.01
-1.12
-0.34
0.19
0.47
0.55
0.50
0.41
0.30
0.22
0.13
0.03
-0.09
-0.25
-0.43
-0.56
-0.57
-0.44
-0.16
0.15
0.41
0.54
0.55
0.53
0.60
0.80
1.13
1.48
1.77
1.92
1.91
1.76
1.50
1.15
0.77
0.41
0.17
0.10
0.18
0.31
0.35
0.22
-0.08
-0.49
-0.93
-1.31
-1.60
-1.77
-1.77
-1.56
-1.14
-0.57
0.04
0.57
0.94
1.12
1.19
1.21
1.24
1.29
1.36
1.43
1.48
1.52
1.54
1.57
1.60
1.65
1.70
1.71
1.65
1.50
1.31
1.18
1.18
1.33
1.56
1.76
1.81
1.67
1.41
1.10
0.84
0.64
0.43
0.14
-0.29
-0.82
-1.34
-1.74
-1.94
-1.93
-1.83
-1.75
-1.79
-1.99
-2.32
-2.72
-3.14
-3.53
-3.85
-4.02
-3.94
-3.52
-2.76
-1.78
-0.73
0.23
0.99
1.54
1.91
2.13
2.19
2.10
1.85
1.52
1.22
1.07
1.11
1.33
1.63
1.90
2.02
1.95
1.70
1.34
0.98
0.76
0.80
1.14
1.72
2.39
2.90
3.07
2.81
2.21
1.44
0.70
0.15
-0.17
-0.33
-0.46
-0.67
-1.04
-1.53
-2.01
-2.32
-2.38
-2.24
-2.11
-2.27
-2.96
-4.21
-5.81
-7.39
-8.56
-9.09
-9.02
-8.61
-8.21
-8.15
-8.71
-10.07
-12.26
-15.02
-17.68
-19.18
-18.37
-14.49
-7.61
1.25
10.44
18.30
23.81
26.86
28.04
28.17
27.79
27.05
25.82
23.99
21.69
19.29
17.08
15.19
13.45
11.58
9.37
6.81
4.12
1.60
-0.51
-2.14
-3.33
-4.28
-5.11
-5.94
-6.80
-7.65
-8.43
-9.03
-9.43
-9.61
-9.68
-9.72
-9.82
-9.97
-10.08
-10.04
-9.78
-9.30
-8.69
-8.04
-7.45
-6.99
-6.65
-6.38
-6.11
-5.76
-5.27
-4.63
-3.86
-3.05
-2.25
-1.53
-0.93
-0.48
-0.21
-0.11
-0.14
-0.18
-0.11
0.18
0.68
1.28
1.85
2.26
2.48
2.55
2.57
2.62
2.73
2.87
2.97
2.94
2.73
2.37
1.95
1.56
1.28
1.11
1.00
0.87
0.68
0.43
0.20
0.01
-0.12
-0.27
-0.48
-0.74
-1.01
-1.22
-1.38
-1.61
-2.07
-2.89
-4.02
-5.25
-6.31
-6.94
-7.05
-6.71
-6.04
-5.17
-4.25
-3.41
-2.83
-2.64
-2.75
-2.82
-2.33
-0.84
1.73
5.04
8.40
11.19
13.08
14.14
14.73
15.18
15.60
15.91
15.94
15.65
15.17
14.72
14.47
14.37
14.21
13.70
12.69
11.19
9.41
7.56
5.80
4.10
2.38
0.57
-1.26
-2.92
-4.14
-4.79
-4.92
-4.78
-4.68
-4.89
-5.49
-6.41
-7.46
-8.45
-9.27
-9.87
-10.29
-10.56
-10.70
-10.70
-10.54
-10.20
-9.66
-8.96
-8.12
-7.20
-6.18
-5.08
-3.86
-2.56
-1.22
0.06
1.19
2.09
2.73
3.16
3.45
3.69
3.96
4.28
4.63
4.91
5.07
5.04
4.80
4.39
3.89
3.36
2.85
2.38
1.98
1.66
1.45
1.34
1.29
1.22
1.08
0.85
0.61
0.44
0.40
0.45
0.48
0.37
0.07
-0.33
-0.67
-0.82
-0.76
-0.60
-0.50
-0.57
-0.81
-1.13
-1.43
-1.66
-1.88
-2.13
-2.44
-2.71
-2.79
-2.56
-1.99
-1.20
-0.40
0.24
0.64
0.83
0.92
1.00
1.09
1.12
1.02
0.74
0.36
0.00
-0.18
-0.11
0.18
0.51
0.73
0.71
0.49
0.20
0.00
-0.02
0.13
0.32
0.42
0.35
0.13
-0.13
-0.33
-0.37
-0.26
-0.04
0.19
0.36
0.39
0.24
-0.10
-0.64
-1.34
-2.08
-2.73
-3.16
-3.27
-3.08
-2.73
-2.42
-2.34
-2.60
-3.16
-3.87
-4.53
-4.98
-5.16
-5.10
-4.89
-4.61
-4.30
-3.98
-3.63
-3.22
-2.74
-2.17
-1.52
-0.85
-0.24
0.16
0.29
0.13
-0.17
-0.41
-0.42
-0.13
0.37
0.87
1.21
1.33
1.30
1.25
1.29
1.43
1.59
1.74
1.84
1.97
2.19
2.53
2.91
3.22
3.33
3.20
2.87
2.47
2.14
1.93
1.83
1.72
1.48
1.05
0.44
-0.20
-0.72
-1.03
-1.13
-1.14
-1.23
-1.51
-2.02
-2.70
-3.45
-4.10
-4.51
-4.54
-4.12
-3.32
-2.34
-1.41
-0.76
-0.43
-0.33
-0.31
-0.16
0.17
0.69
1.29
1.89
2.42
2.83
3.07
3.13
3.06
2.95
2.96
3.21
3.73
4.47
5.30
6.09
6.72
7.16
7.36
7.35
7.18
7.01
7.04
7.49
8.43
9.74
11.11
12.19
12.70
12.68
12.34
12.02
11.88
11.72
11.03
9.18
5.73
0.68
-5.53
-12.26
-18.93
-25.16
-30.60
-34.67
-36.51
-35.21
-30.42
-22.77
-13.92
-6.02
-0.79
1.19
0.56
-1.27
-2.98
-3.93
-4.24
-4.43
-4.91
-5.63
-6.23
-6.33
-5.82
-4.94
-4.13
-3.71
-3.74
-3.99
-4.05
-3.60
-2.52
-1.02
0.53
1.72
2.30
2.23
1.71
1.06
0.56
0.37
0.46
0.64
0.77
0.74
0.60
0.48
0.49
0.62
0.79
0.86
0.78
0.61
0.49
0.53
0.75
1.03
1.23
1.25
1.07
0.75
0.38
-0.04
-0.51
-1.04
-1.57
-1.98
-2.17
-2.09
-1.81
-1.43
-1.05
-0.68
-0.30
0.15
0.70
1.31
1.90
2.38
2.69
2.79
2.70
2.47
2.18
1.91
1.79
1.86
2.14
2.53
2.94
3.23
3.37
3.41
3.44
3.57
3.83
4.14
4.38
4.44
4.26
3.89
3.47
3.11
2.87
2.74
2.66
2.58
2.49
2.43
2.45
2.51
2.55
2.44
2.09
1.49
0.70
-0.15
-0.94
-1.60
-2.12
-2.53
-2.80
-2.92
-2.84
-2.56
-2.13
-1.66
-1.24
-0.90
-0.63
-0.38
-0.12
0.11
0.24
0.26
0.15
0.00
-0.09
-0.05
0.15
0.48
0.85
1.15
1.34
1.38
1.35
1.33
1.40
1.60
1.87
2.14
2.27
2.20
1.93
1.54
1.12
0.75
0.46
0.18
-0.15
-0.58
-1.04
-1.42
-1.62
-1.58
-1.40
-1.25
-1.30
-1.62
-2.12
-2.65
-3.04
-3.23
-3.25
-3.18
-3.09
-2.95
-2.71
-2.33
-1.83
-1.29
-0.80
-0.41
-0.15
0.05
0.23
0.46
0.73
1.03
1.27
1.40
1.37
1.22
1.04
0.94
1.01
1.26
1.59
1.91
2.13
2.23
2.25
2.26
2.30
2.39
2.46
2.46
2.35
2.09
1.71
1.24
0.73
0.24
-0.19
-0.54
-0.81
-1.02
-1.21
-1.34
-1.37
-1.21
-0.81
-0.20
0.51
1.15
1.60
1.81
1.84
1.79
1.81
2.02
2.45
3.10
3.86
4.54
4.87
4.63
3.71
2.20
0.37
-1.45
-2.98
-4.06
-4.73
-5.11
-5.34
-5.59
-6.00
-6.62
-7.31
-7.75
-7.42
-5.85
-2.85
1.29
5.86
9.94
12.75
13.92
13.55
12.03
9.87
7.44
4.97
2.61
0.46
-1.29
-2.46
-2.96
-2.85
-2.34
-1.76
-1.42
-1.49
-1.98
-2.72
-3.47
-3.99
-4.21
-4.18
-4.10
-4.15
-4.44
-4.94
-5.50
-5.94
-6.12
-5.99
-5.58
-4.97
-4.23
-3.40
-2.49
-1.51
-0.52
0.39
1.10
1.52
1.60
1.38
1.01
0.65
0.47
0.56
0.93
1.49
2.14
2.76
3.26
3.59
3.71
3.63
3.37
3.07
2.87
2.93
3.30
3.87
4.42
4.68
4.50
3.93
3.18
2.53
2.12
1.94
1.82
1.60
1.18
0.61
-0.02
-0.61
-1.14
-1.63
-2.07
-2.45
-2.71
-2.86
-2.96
-3.12
-3.40
-3.75
-4.03
-4.07
-3.84
-3.38
-2.86
-2.42
-2.12
-1.89
-1.63
-1.24
-0.73
-0.19
0.24
0.42
0.35
0.10
-0.15
-0.22
0.04
0.65
1.47
2.30
2.90
3.16
3.11
2.86
2.59
2.39
2.27
2.16
2.01
1.84
1.70
1.67
1.74
1.83
1.86
1.78
1.65
1.62
1.79
2.20
2.70
3.12
3.26
3.08
2.67
2.27
2.06
2.10
2.28
2.36
2.12
1.49
0.52
-0.61
-1.72
-2.67
-3.41
-3.87
-4.00
-3.72
-3.06
-2.11
-1.09
-0.24
0.28
0.41
0.23
-0.12
-0.50
-0.80
-0.98
-1.07
-1.13
-1.21
-1.37
-1.59
-1.81
-1.93
-1.85
-1.56
-1.08
-0.51
0.04
0.47
0.78
0.96
1.10
1.28
1.57
1.96
2.36
2.64
2.67
2.38
1.84
1.18
0.52
-0.01
-0.37
-0.52
-0.44
-0.13
0.33
0.78
1.02
0.86
0.26
-0.65
-1.66
-2.57
-3.26
-3.68
-3.87
-3.82
-3.51
-2.95
-2.24
-1.57
-1.15
-1.06
-1.25
-1.52
-1.69
-1.66
-1.47
-1.24
-1.06
-0.92
-0.77
-0.53
-0.20
0.12
0.33
0.39
0.35
0.34
0.46
0.70
0.96
1.09
1.02
0.79
0.54
0.39
0.46
0.72
1.09
1.43
1.65
1.67
1.51
1.23
0.91
0.64
0.48
0.43
0.43
0.42
0.37
0.30
0.28
0.35
0.52
0.71
0.83
0.80
0.61
0.32
0.03
-0.20
-0.35
-0.49
-0.69
-1.00
-1.39
-1.73
-1.88
-1.73
-1.32
-0.77
-0.25
0.10
0.27
0.32
0.34
0.39
0.43
0.42
0.33
0.22
0.17
0.29
0.57
0.96
1.31
1.51
1.51
1.36
1.15
0.97
0.88
0.82
0.74
0.55
0.21
-0.22
-0.69
-1.08
-1.32
-1.36
-1.21
-0.92
-0.58
-0.27
-0.02
0.14
0.22
0.23
0.13
-0.05
-0.33
-0.66
-1.01
-1.36
-1.72
-2.11
-2.54
-3.00
-3.43
-3.76
-3.97
-4.07
-4.09
-4.08
-4.01
-3.86
-3.58
-3.18
-2.78
-2.48
-2.40
-2.55
-2.80
-2.98
-2.88
-2.41
-1.60
-0.63
0.30
0.96
1.27
1.24
0.99
0.70
0.50
0.47
0.59
0.81
1.03
1.24
1.47
1.80
2.27
2.83
3.37
3.73
3.81
3.58
3.16
2.71
2.38
2.25
2.30
2.38
2.34
2.05
1.50
0.78
0.05
-0.54
-0.92
-1.11
-1.20
-1.28
-1.38
-1.51
-1.67
-1.86
-2.10
-2.37
-2.62
-2.73
-2.60
-2.23
-1.68
-1.11
-0.65
-0.36
-0.23
-0.18
-0.14
-0.09
-0.02
0.05
0.11
0.18
0.30
0.45
0.62
0.81
1.00
1.20
1.41
1.61
1.75
1.77
1.66
1.47
1.29
1.23
1.33
1.56
1.76
1.79
1.58
1.16
0.67
0.29
0.13
0.17
0.32
0.39
0.26
-0.13
-0.73
-1.41
-2.02
-2.48
-2.79
-3.02
-3.25
-3.51
-3.79
-4.02
-4.14
-4.11
-3.94
-3.65
-3.27
-2.80
-2.25
-1.67
-1.11
-0.59
-0.11
0.37
0.85
1.32
1.68
1.84
1.75
1.46
1.07
0.73
0.58
0.68
1.01
1.53
2.17
2.82
3.36
3.69
3.76
3.60
3.28
2.88
2.47
2.09
1.75
1.45
1.22
1.09
1.06
1.11
1.10
0.91
0.44
-0.31
-1.21
-2.10
-2.82
-3.30
-3.59
-3.79
-3.99
-4.21
-4.38
-4.40
-4.21
-3.81
-3.26
-2.64
-2.00
-1.36
-0.72
-0.08
0.54
1.08
1.50
1.81
2.01
2.16
2.29
2.41
2.52
2.58
2.57
2.51
2.42
2.35
2.32
2.31
2.27
2.15
1.90
1.52
1.08
0.63
0.24
-0.07
-0.28
-0.39
-0.42
-0.40
-0.39
-0.46
-0.66
-0.95
-1.28
-1.55
-1.72
-1.84
-2.02
-2.35
-2.87
-3.50
-4.04
-4.30
-4.15
-3.59
-2.74
-1.80
-0.95
-0.35
-0.06
-0.07
-0.24
-0.41
-0.41
-0.14
0.36
0.93
1.37
1.52
1.37
1.06
0.81
0.79
1.06
1.49
1.94
2.29
2.52
2.66
2.79
2.90
2.92
2.80
2.52
2.19
1.92
1.80
1.85
2.04
2.30
2.57
2.80
2.94
2.88
2.52
1.83
0.85
-0.26
-1.28
-2.03
-2.37
-2.32
-1.97
-1.51
-1.14
-1.04
-1.29
-1.88
-2.65
-3.39
-3.84
-3.84
-3.40
-2.65
-1.79
-1.02
-0.42
0.02
0.38
0.73
1.09
1.41
1.64
1.71
1.63
1.46
1.25
1.07
0.95
0.88
0.84
0.84
0.87
0.95
1.10
1.32
1.60
1.86
2.06
2.18
2.24
2.26
2.28
2.27
2.17
1.91
1.46
0.91
0.39
0.04
-0.02
0.17
0.52
0.84
0.95
0.80
0.43
-0.03
-0.46
-0.78
-1.02
-1.27
-1.61
-2.01
-2.39
-2.64
-2.69
-2.57
-2.40
-2.30
-2.32
-2.42
-2.46
-2.33
-1.96
-1.37
-0.68
-0.01
0.56
0.99
1.34
1.66
2.02
2.42
2.78
2.99
2.92
2.55
1.92
1.18
0.45
-0.13
-0.54
-0.75
-0.75
-0.54
-0.10
0.51
1.13
1.60
1.77
1.59
1.17
0.66
0.22
-0.05
-0.19
-0.24
-0.28
-0.32
-0.35
-0.37
-0.39
-0.48
-0.68
-1.02
-1.43
-1.82
-2.12
-2.29
-2.37
-2.38
-2.33
-2.18
-1.90
-1.50
-1.06
-0.66
-0.37
-0.18
0.02
0.33
0.81
1.40
1.94
2.28
2.33
2.13
1.83
1.60
1.58
1.78
2.12
2.46
2.69
2.76
2.68
2.49
2.28
2.07
1.91
1.81
1.78
1.81
1.85
1.84
1.71
1.45
1.12
0.80
0.54
0.36
0.16
-0.12
-0.55
-1.08
-1.59
-1.95
-2.07
-1.94
-1.69
-1.49
-1.54
-1.92
-2.63
-3.55
-4.52
-5.41
-6.10
-6.54
-6.70
-6.52
-5.99
-5.12
-4.01
-2.85
-1.85
-1.17
-0.82
-0.66
-0.50
-0.17
0.35
0.95
1.48
1.80
1.89
1.80
1.63
1.50
1.42
1.43
1.50
1.67
1.96
2.37
2.86
3.32
3.60
3.65
3.46
3.09
2.64
2.18
1.73
1.27
0.81
0.39
0.08
-0.05
0.02
0.23
0.43
0.49
0.33
-0.03
-0.49
-0.93
-1.24
-1.38
-1.35
-1.19
-0.96
-0.77
-0.74
-0.99
-1.58
-2.47
-3.47
-4.34
-4.79
-4.67
-4.00
-2.98
-1.89
-1.00
-0.48
-0.32
-0.38
-0.47
-0.42
-0.13
0.35
0.92
1.46
1.89
2.21
2.46
2.70
2.97
3.25
3.50
3.69
3.80
3.82
3.78
3.67
3.46
3.07
2.45
1.57
0.54
-0.46
-1.22
-1.56
-1.49
-1.09
-0.53
0.05
0.57
1.03
1.43
1.73
1.89
1.86
1.64
1.31
0.94
0.58
0.24
-0.14
-0.57
-0.99
-1.28
-1.31
-0.96
-0.25
0.71
1.80
2.86
3.85
4.82
5.90
7.24
8.90
10.79
12.72
14.44
15.84
16.99
18.12
19.49
21.28
23.38
25.51
27.31
28.60
29.48
30.32
31.61
33.75
36.91
41.02
45.91
51.34
57.06
62.90
68.72
74.57
80.81
88.14
97.38
108.80
121.38
132.69
139.47
138.88
129.70
112.76
90.68
66.82
44.21
24.77
9.27
-2.33
-10.44
-15.63
-18.73
-20.61
-21.92
-23.04
-24.22
-26.04
-29.37
-35.17
-43.62
-53.94
-64.31
-72.65
-78.00
-81.64
-86.63
-95.98
-110.75
-129.20
-148.53
-165.93
-179.79
-190.09
-197.91
-204.40
-210.03
-214.92
-219.24
-224.70
-232.04
-238.90
-239.32
-225.93
-193.52
-141.91
-77.09
-9.36
48.09
84.91
97.27
88.39
65.85
38.08
11.57
-10.97
-20.26
-13.05
5.73
26.68
43.83
57.36
69.81
82.19
92.59
98.95
98.98
93.31
85.62
80.14
78.84
80.33
81.25
76.62
66.00
49.96
30.88
12.14
-3.60
-15.74
-25.94
-33.01
-39.45
-46.25
-54.13
-63.22
-72.82
-81.56
-86.72
-84.63
-71.43
-45.76
-9.15
32.88
73.43
107.61
134.10
154.08
168.33
175.63
172.29
155.17
123.96
82.01
39.41
5.91
-13.11
-18.21
-14.34
-7.92
-3.49
-2.33
-3.45
-5.11
-6.70
-8.61
-11.47
-15.66
-21.58
-28.68
-36.09
-43.30
-50.11
-57.29
-66.21
-78.07
-92.67
-105.87
-113.33
-109.63
-91.24
-58.97
-18.56
21.46
53.21
72.41
79.65
78.73
74.70
71.23
69.71
70.06
72.42
78.25
88.81
103.81
119.96
131.40
131.58
116.25
86.31
48.00
10.38
-17.36
-31.13
-32.81
-28.71
-24.88
-24.89
-28.92
-34.71
-39.49
-41.62
-41.20
-39.52
-37.91
-37.84
-39.67
-42.60
-45.44
-47.11
-47.27
-46.42
-45.68
-46.27
-49.89
-57.17
-68.18
-82.92
-101.36
-122.74
-144.71
-162.91
-166.50
-151.52
-119.33
-76.53
-32.77
2.82
25.08
34.02
33.61
28.91
22.62
15.67
7.84
-0.91
-9.66
-16.75
-20.79
-21.59
-20.27
-19.36
-20.37
-23.96
-29.47
-35.44
-40.37
-43.38
-44.63
-45.21
-47.05
-51.57
-58.88
-68.21
-78.32
-87.95
-96.25
-103.11
-108.97
-114.90
-121.87
-129.73
-138.04
-146.02
-152.76
-157.33
-158.93
-156.67
-149.38
-140.41
-130.88
-121.37
-111.96
-102.41
-92.30
-81.21
-68.97
-55.82
-42.45
-29.08
-16.10
-3.67
8.45
20.88
34.40
49.56
66.42
84.40
103.16
122.12
140.95
159.72
178.86
199.01
220.90
245.23
272.39
302.29
333.38
362.41
385.01
396.90
395.47
380.86
355.89
324.93
292.39
261.18
232.37
205.84
181.20
158.46
138.04
120.22
104.69
90.63
76.99
63.13
49.14
35.71
23.77
13.98
6.42
0.63
-4.13
-8.53
-12.99
-17.52
-21.86
-25.59
-28.38
-30.12
-30.93
-31.17
-31.24
-31.41
-31.73
-32.03
-32.11
-31.88
-31.45
-31.10
-31.10
-31.55
-32.26
-32.87
-33.05
-32.63
-31.71
-30.60
-29.68
-29.21
-29.31
-29.98
-31.16
-32.79
-34.76
-36.94
-39.17
-41.34
-43.42
-45.51
-47.72
-50.07
-52.44
-54.56
-56.15
-57.08
-57.46
-57.65
-58.16
-59.45
-61.71
-64.79
-68.13
-70.91
-72.22
-71.32
-67.78
-61.51
-52.69
-41.70
-29.03
-15.31
-1.30
12.12
24.17
34.25
42.06
47.47
50.39
50.64
48.04
42.64
34.94
25.94
17.01
9.53
4.54
2.49
3.18
5.96
9.87
13.91
17.26
19.37
19.97
19.11
17.03
14.07
10.63
7.07
3.71
0.76
-1.72
-3.76
-5.42
-6.70
-7.51
-7.73
-7.28
-6.26
-4.95
-3.69
-2.81
-2.46
-2.61
-3.10
-3.72
-4.27
-4.60
-4.63
-4.31
-3.69
-2.88
-2.02
-1.25
-0.64
-0.21
0.06
0.17
0.11
-0.14
-0.52
-0.93
-1.21
-1.26
-1.09
-0.83
-0.68
-0.78
-1.15
-1.70
-2.29
-2.80
-3.23
-3.59
-3.92
-4.15
-4.20
-3.99
-3.57
-3.11
-2.85
-3.01
-3.61
-4.54
-5.56
-6.41
-6.98
-7.24
-7.27
-7.12
-6.84
-6.43
-5.92
-5.34
-4.76
-4.23
-3.77
-3.37
-2.99
-2.60
-2.24
-1.94
-1.77
-1.72
-1.76
-1.77
-1.67
-1.40
-1.02
-0.62
-0.34
-0.27
-0.41
-0.69
-1.01
-1.26
-1.38
-1.34
-1.19
-0.95
-0.70
-0.49
-0.38
-0.37
-0.42
-0.50
-0.55
-0.60
-0.70
-0.93
-1.33
-1.91
-2.59
-3.24
-3.77
-4.09
-4.20
-4.14
-4.01
-3.90
-3.91
-4.07
-4.34
-4.61
-4.72
-4.55
-4.07
-3.39
-2.64
-1.96
-1.43
-1.02
-0.69
-0.40
-0.20
-0.12
-0.21
-0.39
-0.52
-0.49
-0.25
0.14
0.52
0.74
0.73
0.54
0.28
0.04
-0.14
-0.26
-0.37
-0.51
-0.66
-0.78
-0.83
-0.85
-0.92
-1.13
-1.51
-2.03
-2.58
-3.08
-3.49
-3.86
-4.24
-4.66
-5.07
-5.40
-5.63
-5.86
-6.22
-6.84
-7.71
-8.72
-9.67
-10.44
-11.00
-11.49
-12.02
-12.70
-13.46
-14.17
-14.66
-14.85
-14.72
-14.31
-13.63
-12.60
-11.09
-8.97
-6.24
-3.10
0.11
3.00
5.27
6.84
7.84
8.56
9.23
9.96
10.71
11.30
11.59
11.52
11.10
10.44
9.63
8.71
7.72
6.71
5.76
5.00
4.49
4.25
4.17
4.09
3.87
3.48
2.96
2.42
1.97
1.65
1.41
1.17
0.84
0.39
-0.14
-0.66
-1.09
-1.35
-1.39
-1.24
-0.96
-0.64
-0.39
-0.27
-0.27
-0.33
-0.37
-0.36
-0.30
-0.27
-0.29
-0.35
-0.37
-0.27
-0.04
0.21
0.35
0.29
0.02
-0.31
-0.56
-0.63
-0.51
-0.31
-0.17
-0.13
-0.20
-0.30
-0.36
-0.35
-0.32
-0.31
-0.38
-0.53
-0.71
-0.82
-0.82
-0.74
-0.67
-0.73
-0.98
-1.35
-1.72
-1.94
-1.93
-1.77
-1.58
-1.55
-1.75
-2.16
-2.67
-3.17
-3.60
-3.94
-4.25
-4.52
-4.73
-4.86
-4.84
-4.67
-4.30
-3.73
-2.98
-2.12
-1.23
-0.44
0.20
0.63
0.89
1.02
1.02
0.91
0.66
0.27
-0.20
-0.64
-0.91
-0.96
-0.82
-0.58
-0.37
-0.27
-0.31
-0.47
-0.66
-0.81
-0.92
-1.00
-1.11
-1.26
-1.46
-1.65
-1.78
-1.85
-1.88
-1.95
-2.14
-2.46
-2.90
-3.39
-3.88
-4.33
-4.73
-5.06
-5.34
-5.55
-5.72
-5.89
-6.12
-6.44
-6.86
-7.35
-7.85
-8.29
-8.65
-8.91
-9.08
-9.20
-9.30
-9.40
-9.49
-9.53
-9.46
-9.21
-8.70
-7.92
-6.85
-5.50
-3.86
-1.96
0.16
2.41
4.64
6.70
8.46
9.87
10.96
11.83
12.55
13.16
13.61
13.83
13.75
13.33
12.64
11.79
10.89
10.07
9.38
8.79
8.25
7.70
7.12
6.55
6.04
5.64
5.33
5.04
4.70
4.27
3.79
3.27
2.76
2.23
1.65
1.00
0.29
-0.44
-1.18
-1.96
-2.84
-3.78
-4.69
-5.38
-5.68
-5.56
-5.09
-4.48
-3.89
-3.39
-3.01
-2.71
-2.51
-2.41
-2.43
-2.51
-2.50
-2.29
-1.88
-1.39
-1.01
-0.87
-0.96
-1.16
-1.26
-1.12
-0.74
-0.23
0.23
0.47
0.47
0.27
-0.00
-0.24
-0.34
-0.29
-0.14
0.04
0.15
0.15
0.01
-0.23
-0.55
-0.89
-1.24
-1.56
-1.84
-2.06
-2.22
-2.34
-2.45
-2.61
-2.84
-3.15
-3.53
-3.89
-4.16
-4.24
-4.03
-3.51
-2.68
-1.63
-0.55
0.35
0.92
1.06
0.85
0.44
0.04
-0.23
-0.33
-0.34
-0.34
-0.33
-0.26
-0.00
0.48
1.08
1.60
1.80
1.60
1.05
0.39
-0.14
-0.39
-0.37
-0.17
0.06
0.25
0.39
0.47
0.50
0.43
0.23
-0.08
-0.44
-0.72
-0.87
-0.89
-0.88
-0.95
-1.17
-1.56
-2.07
-2.67
-3.33
-4.03
-4.72
-5.32
-5.73
-5.90
-5.84
-5.64
-5.41
-5.21
-5.06
-4.94
-4.81
-4.68
-4.58
-4.57
-4.69
-4.91
-5.21
-5.53
-5.83
-6.09
-6.26
-6.31
-6.18
-5.81
-5.13
-4.11
-2.76
-1.14
0.65
2.54
4.46
6.36
8.18
9.84
11.18
12.08
12.44
12.28
11.70
10.87
9.95
9.07
8.34
7.80
7.46
7.28
7.14
6.88
6.36
5.55
4.53
3.45
2.45
1.61
0.88
0.18
-0.53
-1.23
-1.82
-2.24
-2.44
-2.46
-2.36
-2.15
-1.83
-1.41
-0.92
-0.50
-0.26
-0.26
-0.44
-0.68
-0.82
-0.79
-0.62
-0.40
-0.21
-0.07
0.07
0.26
0.49
0.70
0.77
0.64
0.37
0.10
-0.00
0.15
0.54
1.01
1.40
1.61
1.66
1.64
1.67
1.83
2.11
2.44
2.71
2.85
2.83
2.73
2.67
2.80
3.21
3.88
4.65
5.27
5.49
5.22
4.55
3.74
3.10
2.87
3.07
3.58
4.15
4.51
4.55
4.25
3.68
2.85
1.67
-0.02
-2.39
-5.48
-9.20
-13.43
-18.02
-22.85
-27.72
-32.21
-35.71
-37.57
-37.36
-35.08
-31.26
-26.73
-22.29
-18.46
-15.29
-12.46
-9.41
-5.60
-0.65
5.55
12.84
20.78
28.69
35.61
40.39
41.89
39.29
32.46
22.26
10.44
-0.77
-9.28
-13.82
-14.17
-11.11
-5.94
-0.04
5.52
10.02
13.02
14.32
13.93
12.08
9.30
6.23
3.58
1.81
1.10
1.25
1.85
2.38
2.43
1.84
0.73
-0.58
-1.71
-2.40
-2.64
-2.62
-2.61
-2.81
-3.23
-3.70
-4.03
-4.18
-4.27
-4.59
-5.32
-6.45
-7.69
-8.58
-8.78
-8.26
-7.35
-6.49
-5.95
-5.62
-5.05
-3.71
-1.28
2.18
6.32
10.76
15.27
19.72
23.89
27.23
28.84
27.79
23.59
16.52
7.74
-1.17
-8.67
-13.73
-16.02
-15.79
-13.61
-10.15
-6.09
-2.11
1.13
3.10
3.49
2.41
0.30
-2.14
-4.25
-5.58
-5.98
-5.55
-4.55
-3.22
-1.79
-0.39
0.91
2.08
3.10
4.00
4.77
5.37
5.68
5.59
5.02
4.04
2.82
1.62
0.68
0.11
-0.11
-0.12
-0.10
-0.18
-0.38
-0.64
-0.84
-0.93
-0.91
-0.86
-0.85
-0.94
-1.16
-1.51
-2.00
-2.60
-3.28
-3.94
-4.50
-4.88
-5.06
-5.08
-5.01
-4.89
-4.70
-4.44
-4.12
-3.80
-3.60
-3.60
-3.81
-4.12
-4.39
-4.47
-4.29
-3.89
-3.37
-2.84
-2.40
-2.07
-1.83
-1.61
-1.34
-1.02
-0.66
-0.30
0.03
0.32
0.61
0.91
1.22
1.52
1.79
2.01
2.19
2.31
2.33
2.21
1.94
1.59
1.27
1.12
1.18
1.39
1.58
1.56
1.27
0.76
0.20
-0.24
-0.45
-0.45
-0.38
-0.37
-0.55
-0.90
-1.36
-1.83
-2.27
-2.72
-3.23
-3.85
-4.50
-5.06
-5.37
-5.37
-5.11
-4.78
-4.56
-4.59
-4.87
-5.31
-5.71
-5.91
-5.80
-5.42
-4.89
-4.38
-4.06
-3.99
-4.13
-4.36
-4.52
-4.55
-4.45
-4.30
-4.21
-4.22
-4.36
-4.60
-4.94
-5.41
-6.00
-6.64
-7.17
-7.37
-7.05
-6.14
-4.67
-2.77
-0.61
1.65
3.91
6.08
8.07
9.76
11.01
11.73
11.90
11.57
10.91
10.10
9.35
8.77
8.43
8.26
8.14
7.92
7.50
6.85
6.03
5.12
4.18
3.24
2.33
1.49
0.78
0.26
-0.01
-0.04
0.11
0.35
0.60
0.82
0.99
1.17
1.36
1.58
1.81
2.02
2.15
2.14
1.97
1.65
1.28
0.97
0.85
0.98
1.33
1.79
2.22
2.51
2.63
2.62
2.56
2.49
2.40
2.24
2.01
1.76
1.55
1.41
1.28
1.06
0.66
0.09
-0.50
-0.90
-0.98
-0.73
-0.31
0.08
0.30
0.32
0.22
0.14
0.14
0.21
0.29
0.27
0.12
-0.17
-0.55
-0.97
-1.40
-1.85
-2.32
-2.80
-3.24
-3.51
-3.55
-3.31
-2.83
-2.20
-1.52
-0.85
-0.24
0.27
0.65
0.85
0.83
0.62
0.29
-0.03
-0.23
-0.25
-0.10
0.17
0.45
0.69
0.83
0.87
0.84
0.78
0.73
0.71
0.72
0.77
0.86
0.98
1.14
1.28
1.38
1.38
1.28
1.11
0.91
0.67
0.38
-0.00
-0.49
-1.03
-1.50
-1.79
-1.83
-1.68
-1.44
-1.25
-1.19
-1.24
-1.36
-1.49
-1.63
-1.82
-2.10
-2.49
-2.92
-3.28
-3.45
-3.37
-3.03
-2.48
-1.80
-1.10
-0.45
0.09
0.45
0.61
0.56
0.33
0.04
-0.20
-0.25
-0.03
0.47
1.15
1.83
2.35
2.61
2.61
2.44
2.21
2.01
1.85
1.71
1.59
1.50
1.46
1.46
1.48
1.44
1.29
1.05
0.79
0.57
0.44
0.36
0.31
0.26
0.19
0.14
0.09
0.01
-0.17
-0.51
-1.03
-1.68
-2.35
-2.91
-3.29
-3.47
-3.51
-3.50
-3.51
-3.57
-3.61
-3.53
-3.23
-2.68
-1.92
-1.10
-0.34
0.22
0.53
0.61
0.54
0.45
0.42
0.52
0.73
1.01
1.24
1.34
1.30
1.14
0.93
0.75
0.62
0.54
0.46
0.35
0.25
0.21
0.27
0.43
0.65
0.84
0.92
0.87
0.74
0.61
0.52
0.49
0.50
0.50
0.53
0.61
0.75
0.91
0.97
0.84
0.46
-0.11
-0.73
-1.18
-1.32
-1.09
-0.56
0.13
0.81
1.39
1.81
2.07
2.20
2.22
2.15
2.02
1.85
1.73
1.71
1.85
2.16
2.58
2.99
3.27
3.33
3.18
2.89
2.56
2.27
2.05
1.87
1.67
1.40
1.11
0.83
0.63
0.49
0.36
0.16
-0.15
-0.53
-0.89
-1.15
-1.26
-1.26
-1.19
-1.13
-1.09
-1.09
-1.13
-1.28
-1.57
-2.04
-2.64
-3.25
-3.76
-4.08
-4.15
-3.99
-3.62
-3.05
-2.33
-1.50
-0.64
0.16
0.83
1.32
1.64
1.85
2.00
2.11
2.17
2.18
2.15
2.10
2.05
2.00
1.95
1.88
1.79
1.72
1.71
1.80
1.96
2.14
2.23
2.17
1.97
1.67
1.33
1.01
0.71
0.41
0.11
-0.19
-0.47
-0.72
-0.93
-1.11
-1.29
-1.50
-1.82
-2.28
-2.91
-3.69
-4.52
-5.28
-5.84
-6.09
-6.01
-5.66
-5.17
-4.65
-4.16
-3.72
-3.28
-2.76
-2.11
-1.36
-0.64
-0.07
0.24
0.30
0.24
0.21
0.34
0.67
1.11
1.51
1.74
1.77
1.66
1.51
1.45
1.50
1.67
1.88
2.08
2.23
2.33
2.35
2.28
2.13
1.89
1.59
1.30
1.05
0.86
0.72
0.60
0.48
0.33
0.14
-0.08
-0.36
-0.68
-1.03
-1.36
-1.66
-1.93
-2.19
-2.49
-2.88
-3.32
-3.73
-3.96
-3.93
-3.62
-3.16
-2.73
-2.45
-2.31
-2.18
-1.90
-1.39
-0.74
-0.11
0.34
0.55
0.62
0.70
0.85
1.04
1.18
1.17
1.06
0.95
0.97
1.17
1.50
1.84
2.12
2.29
2.37
2.38
2.32
2.21
2.05
1.89
1.81
1.86
2.04
2.27
2.43
2.43
2.22
1.86
1.46
1.09
0.80
0.58
0.38
0.16
-0.06
-0.20
-0.24
-0.19
-0.19
-0.39
-0.92
-1.75
-2.73
-3.60
-4.14
-4.24
-3.96
-3.46
-2.95
-2.56
-2.32
-2.10
-1.80
-1.34
-0.76
-0.20
0.20
0.33
0.27
0.14
0.13
0.31
0.63
1.00
1.28
1.44
1.50
1.51
1.52
1.52
1.50
1.45
1.41
1.38
1.30
1.01
0.39
-0.65
-1.99
-3.35
-4.39
-4.81
-4.50
-3.62
-2.47
-1.46
-0.88
-0.85
-1.30
-2.01
-2.73
-3.32
-3.72
-4.03
-4.30
-4.56
-4.68
-4.48
-3.79
-2.60
-1.04
0.60
2.02
3.02
3.58
3.81
3.88
3.94
4.03
4.17
4.33
4.51
4.71
4.91
5.06
5.12
5.07
4.91
4.70
4.47
4.21
3.90
3.52
3.08
2.69
2.42
2.35
2.45
2.65
2.81
2.86
2.73
2.46
2.15
1.86
1.64
1.46
1.27
1.02
0.72
0.41
0.16
-0.01
-0.10
-0.16
-0.23
-0.30
-0.34
-0.29
-0.17
-0.07
-0.11
-0.42
-1.00
-1.74
-2.45
-2.96
-3.17
-3.11
-2.91
-2.69
-2.53
-2.41
-2.26
-2.04
-1.74
-1.42
-1.12
-0.88
-0.70
-0.52
-0.36
-0.24
-0.19
-0.25
-0.40
-0.57
-0.69
-0.72
-0.64
-0.46
-0.18
0.18
0.59
1.01
1.39
1.63
1.70
1.59
1.35
1.03
0.67
0.29
-0.09
-0.46
-0.74
-0.88
-0.87
-0.77
-0.67
-0.69
-0.86
-1.16
-1.52
-1.90
-2.27
-2.61
-2.91
-3.14
-3.27
-3.33
-3.36
-3.46
-3.70
-4.04
-4.39
-4.62
-4.63
-4.41
-4.04
-3.61
-3.20
-2.84
-2.50
-2.12
-1.68
-1.16
-0.63
-0.14
0.23
0.50
0.71
0.93
1.23
1.58
1.90
2.12
2.16
2.05
1.86
1.68
1.59
1.58
1.60
1.63
1.63
1.62
1.62
1.66
1.71
1.77
1.80
1.81
1.79
1.75
1.72
1.70
1.67
1.58
1.42
1.14
0.74
0.28
-0.21
-0.66
-1.04
-1.36
-1.61
-1.80
-1.90
-1.89
-1.81
-1.74
-1.80
-2.05
-2.47
-2.89
-3.14
-3.08
-2.69
-2.09
-1.44
-0.88
-0.42
-0.02
0.38
0.77
1.06
1.14
0.95
0.54
0.08
-0.30
-0.51
-0.55
-0.51
-0.47
-0.49
-0.53
-0.54
-0.43
-0.17
0.18
0.55
0.82
0.96
1.03
1.12
1.32
1.60
1.87
1.96
1.81
1.48
1.11
0.84
0.69
0.60
0.43
0.12
-0.26
-0.58
-0.75
-0.74
-0.65
-0.62
-0.71
-0.93
-1.20
-1.43
-1.52
-1.43
-1.15
-0.73
-0.24
0.22
0.55
0.73
0.84
0.97
1.22
1.60
2.06
2.51
2.87
3.11
3.24
3.26
3.15
2.86
2.38
1.75
1.06
0.42
-0.08
-0.44
-0.73
-1.04
-1.40
-1.78
-2.08
-2.23
-2.22
-2.11
-2.03
-2.04
-2.09
-2.09
-1.88
-1.44
-0.85
-0.30
0.02
-0.02
-0.43
-1.09
-1.81
-2.44
-2.86
-3.05
-3.04
-2.89
-2.69
-2.51
-2.41
-2.44
-2.60
-2.87
-3.14
-3.29
-3.15
-2.65
-1.83
-0.96
-0.43
-0.61
-1.67
-3.41
-5.31
-6.79
-7.43
-7.26
-6.71
-6.40
-6.83
-8.10
-9.86
-11.52
-12.50
-12.49
-11.55
-9.92
-7.91
-5.72
-3.40
-0.96
1.60
4.30
7.24
10.64
14.75
19.62
24.81
29.26
31.56
30.47
25.54
17.47
7.96
-0.92
-7.43
-10.77
-11.10
-9.16
-5.83
-1.71
2.90
7.74
12.37
16.14
18.36
18.56
16.78
13.52
9.59
5.85
2.92
1.04
0.09
-0.28
-0.44
-0.63
-0.88
-1.05
-1.03
-0.81
-0.58
-0.59
-1.05
-1.98
-3.15
-4.24
-4.93
-5.08
-4.75
-4.20
-3.71
-3.49
-3.58
-3.87
-4.14
-4.19
-3.91
-3.38
-2.80
-2.39
-2.31
-2.53
-2.92
-3.30
-3.50
-3.49
-3.34
-3.15
-3.00
-2.89
-2.78
-2.61
-2.38
-2.17
-2.09
-2.20
-2.50
-2.89
-3.23
-3.45
-3.51
-3.50
-3.52
-3.63
-3.84
-4.07
-4.24
-4.30
-4.23
-4.03
-3.72
-3.32
-2.84
-2.31
-1.74
-1.20
-0.72
-0.37
-0.16
-0.07
-0.02
0.10
0.40
0.87
1.48
2.11
2.63
2.97
3.09
3.05
2.92
2.78
2.70
2.70
2.74
2.69
2.37
1.67
0.59
-0.65
-1.79
-2.59
-2.97
-3.08
-3.17
-3.46
-4.03
-4.82
-5.76
-6.91
-8.43
-10.42
-12.80
-15.13
-16.83
-17.34
-16.31
-13.74
-9.78
-4.52
2.12
10.24
19.51
28.83
36.37
40.01
38.08
30.12
17.35
2.45
-11.29
-21.03
-25.21
-23.67
-17.31
-7.75
3.16
13.88
23.44
31.39
37.52
41.84
44.66
46.56
47.95
48.87
49.17
48.92
48.30
47.52
46.84
46.77
48.11
51.17
55.24
58.54
58.66
52.74
38.10
13.19
-21.77
-61.43
-96.90
-120.64
-130.62
-129.69
-122.57
-113.23
-103.88
-95.12
-86.75
-79.07
-72.77
-68.48
-65.99
-64.47
-63.23
-62.31
-62.32
-63.80
-66.65
-69.86
-72.53
-71.98
-66.37
-55.13
-38.78
-18.39
4.55
28.18
50.22
68.45
81.67
89.83
94.12
96.01
96.05
92.72
83.07
64.31
36.42
3.35
-28.22
-51.79
-64.66
-67.58
-66.60
-70.42
-86.22
-115.57
-152.89
-187.58
-208.22
-206.94
-181.70
-136.50
-79.07
-18.61
35.49
74.42
90.85
81.07
47.22
-1.67
-51.86
-89.00
-102.96
-90.82
-56.71
-8.49
46.34
102.97
159.30
213.77
263.51
304.22
331.80
344.63
344.76
337.35
328.39
321.86
318.01
313.12
301.29
277.21
238.83
188.54
132.14
77.04
29.70
-6.32
-31.03
-47.08
-57.79
-65.29
-69.82
-71.23
-69.18
-63.93
-56.29
-47.40
-38.33
-29.66
-21.53
-13.85
-8.20
-5.80
-7.23
-11.68
-18.03
-25.54
-34.19
-44.58
-57.13
-73.82
-94.76
-118.38
-141.75
-162.57
-180.78
-198.58
-219.19
-235.11
-239.92
-229.95
-207.74
-178.53
-146.86
-116.16
-89.02
-66.95
-50.22
-43.74
-47.18
-59.40
-77.72
-98.00
-114.98
-123.06
-117.75
-89.28
-42.19
11.55
58.35
89.94
105.19
108.38
105.43
100.95
97.01
91.75
84.43
75.92
68.57
64.36
63.72
65.39
67.36
67.92
65.23
59.85
53.84
50.82
52.31
58.48
67.61
76.45
81.20
78.07
65.99
46.77
24.55
3.86
-11.75
-21.06
-25.03
-25.81
-25.74
-25.81
-25.85
-25.11
-23.27
-20.57
-17.79
-15.75
-14.79
-14.91
-15.53
-15.92
-15.63
-14.70
-13.45
-12.31
-11.52
-11.02
-10.45
-9.38
-7.52
-4.98
-2.22
0.16
1.66
2.10
1.64
0.68
-0.27
-0.87
-0.97
-0.70
-0.27
0.11
0.26
0.10
-0.36
-1.06
-1.87
-2.63
-3.15
-3.30
-3.09
-2.64
-2.19
-1.95
-2.09
-2.58
-3.31
-4.09
-4.77
-5.23
-5.46
-5.49
-5.34
-5.04
-4.54
-3.80
-2.83
-1.69
-0.52
0.53
1.35
1.95
2.41
2.85
3.34
3.82
4.20
4.40
4.40
4.28
4.09
3.88
3.59
3.18
2.67
2.17
1.82
1.73
1.84
1.99
2.01
1.78
1.30
0.68
0.03
-0.58
-1.14
-1.64
-2.10
-2.48
-2.80
-3.08
-3.35
-3.62
-3.85
-3.98
-3.97
-3.82
-3.59
-3.37
-3.21
-3.15
-3.16
-3.20
-3.24
-3.20
-3.03
-2.65
-2.05
-1.28
-0.46
0.23
0.66
0.78
0.67
0.51
0.47
0.61
0.90
1.21
1.36
1.30
1.05
0.79
0.68
0.87
1.36
2.06
2.81
3.44
3.83
3.95
3.81
3.48
3.00
2.43
1.87
1.41
1.19
1.29
1.68
2.23
2.69
2.86
2.63
2.09
1.41
0.82
0.44
0.22
0.03
-0.31
-0.85
-1.53
-2.20
-2.75
-3.19
-3.60
-4.11
-4.78
-5.54
-6.21
-6.60
-6.59
-6.14
-5.38
-4.43
-3.45
-2.57
-1.95
-1.71
-1.92
-2.52
-3.30
-3.92
-4.06
-3.55
-2.43
-0.94
0.58
1.84
2.71
3.23
3.60
4.05
4.76
5.84
7.25
8.87
10.51
11.92
12.89
13.22
12.79
11.60
9.76
7.52
5.18
3.02
1.22
-0.19
-1.31
-2.29
-3.24
-4.20
-5.13
-5.95
-6.62
-7.10
-7.37
-7.41
-7.18
-6.67
-5.95
-5.16
-4.47
-4.03
-3.91
-4.08
-4.42
-4.79
-5.04
-5.05
-4.74
-4.12
-3.23
-2.20
-1.16
-0.24
0.49
1.01
1.34
1.54
1.64
1.66
1.64
1.60
1.58
1.64
1.80
2.09
2.47
2.85
3.13
3.21
3.04
2.66
2.20
1.82
1.62
1.62
1.74
1.87
1.95
1.97
1.93
1.87
1.75
1.54
1.24
0.91
0.64
0.52
0.51
0.53
0.46
0.25
-0.06
-0.36
-0.57
-0.68
-0.77
-0.93
-1.20
-1.53
-1.80
-1.95
-1.95
-1.89
-1.85
-1.90
-2.01
-2.10
-2.12
-2.02
-1.82
-1.53
-1.14
-0.64
-0.05
0.56
1.08
1.40
1.49
1.39
1.22
1.12
1.17
1.35
1.58
1.75
1.77
1.63
1.38
1.12
0.96
0.93
1.04
1.22
1.36
1.39
1.26
1.00
0.68
0.39
0.21
0.16
0.20
0.24
0.21
0.08
-0.13
-0.39
-0.63
-0.80
-0.87
-0.87
-0.81
-0.76
-0.78
-0.92
-1.24
-1.73
-2.34
-2.98
-3.53
-3.89
-3.97
-3.76
-3.29
-2.66
-1.98
-1.31
-0.72
-0.21
0.22
0.54
0.74
0.80
0.77
0.71
0.71
0.76
0.83
0.82
0.68
0.45
0.24
0.17
0.30
0.58
0.93
1.27
1.56
1.79
1.94
2.00
1.88
1.53
0.96
0.26
-0.42
-0.93
-1.18
-1.17
-1.02
-0.85
-0.81
-0.95
-1.24
-1.57
-1.83
-1.93
-1.87
-1.74
-1.67
-1.77
-2.08
-2.56
-3.12
-3.65
-4.04
-4.24
-4.24
-4.02
-3.60
-3.00
-2.27
-1.51
-0.82
-0.29
0.04
0.21
0.29
0.33
0.36
0.36
0.32
0.25
0.20
0.25
0.47
0.83
1.26
1.60
1.72
1.60
1.31
1.05
1.01
1.26
1.70
2.11
2.27
2.12
1.73
1.32
1.06
1.01
1.12
1.27
1.38
1.45
1.52
1.63
1.75
1.83
1.83
1.73
1.59
1.45
1.33
1.20
0.98
0.65
0.23
-0.20
-0.54
-0.71
-0.70
-0.59
-0.50
-0.57
-0.87
-1.39
-2.04
-2.67
-3.17
-3.44
-3.45
-3.25
-2.91
-2.49
-2.07
-1.67
-1.30
-0.97
-0.69
-0.51
-0.48
-0.59
-0.83
-1.07
-1.20
-1.17
-1.02
-0.90
-0.96
-1.28
-1.82
-2.43
-2.92
-3.19
-3.24
-3.19
-3.18
-3.30
-3.54
-3.80
-3.91
-3.77
-3.27
-2.42
-1.26
0.07
1.38
2.47
3.18
3.48
3.53
3.66
4.32
5.98
8.82
12.64
16.75
20.06
21.46
20.14
16.00
9.72
2.51
-4.22
-9.37
-12.40
-13.32
-12.50
-10.37
-7.28
-3.55
0.43
4.11
6.86
8.14
7.81
6.18
3.95
1.93
0.73
0.54
1.16
2.21
3.29
4.22
4.98
5.59
6.05
6.22
5.95
5.15
3.87
2.34
0.86
-0.31
-1.03
-1.30
-1.24
-1.04
-0.83
-0.67
-0.54
-0.39
-0.15
0.16
0.52
0.84
1.02
1.01
0.79
0.37
-0.25
-1.06
-2.04
-3.17
-4.46
-5.91
-7.54
-9.32
-11.17
-12.91
-14.35
-15.36
-15.84
-15.82
-15.34
-14.44
-13.15
-11.50
-9.58
-7.51
-5.48
-3.67
-2.24
-1.30
-0.95
-1.19
-1.90
-2.73
-3.12
-2.44
-0.24
3.50
8.25
13.07
16.93
19.03
19.08
17.38
14.53
11.27
8.15
5.49
3.38
1.83
0.83
0.36
0.38
0.76
1.29
1.73
1.84
1.53
0.77
-0.35
-1.69
-3.08
-4.33
-5.29
-5.84
-5.98
-5.78
-5.43
-5.12
-4.98
-5.06
-5.26
-5.49
-5.63
-5.67
-5.63
-5.60
-5.61
-5.66
-5.64
-5.45
-5.00
-4.27
-3.33
-2.28
-1.25
-0.32
0.45
0.98
1.19
1.01
0.44
-0.37
-1.16
-1.67
-1.78
-1.49
-0.96
-0.26
0.80
2.61
5.69
10.31
16.20
22.39
27.36
29.49
27.58
21.34
11.53
-0.25
-12.01
-21.91
-28.74
-32.02
-31.97
-29.20
-24.44
-18.39
-11.65
-4.81
1.55
6.86
10.68
12.82
13.39
12.78
11.53
10.16
9.00
8.11
7.38
6.64
5.81
5.00
4.46
4.42
4.95
5.88
6.86
7.50
7.58
7.13
6.42
5.81
5.58
5.77
6.23
6.69
6.94
6.86
6.54
6.09
5.66
5.33
5.08
4.87
4.65
4.38
4.03
3.62
3.15
2.67
2.26
1.98
1.85
1.79
1.66
1.28
0.56
-0.43
-1.51
-2.46
-3.13
-3.48
-3.61
-3.68
-3.77
-3.86
-3.91
-3.88
-3.78
-3.71
-3.80
-4.07
-4.49
-4.91
-5.14
-5.07
-4.64
-3.89
-2.94
-1.95
-1.05
-0.35
0.12
0.31
0.23
-0.11
-0.67
-1.37
-2.11
-2.76
-3.26
-3.55
-3.64
-3.51
-3.18
-2.67
-2.02
-1.40
-0.96
-0.84
-1.04
-1.40
-1.73
-1.85
-1.72
-1.46
-1.23
-1.17
-1.28
-1.51
-1.71
-1.78
-1.67
-1.43
-1.14
-0.91
-0.80
-0.83
-0.99
-1.25
-1.56
-1.89
-2.17
-2.31
-2.25
-1.95
-1.49
-1.01
-0.69
-0.60
-0.68
-0.75
-0.61
-0.20
0.37
0.85
0.96
0.49
-0.52
-1.84
-3.12
-4.01
-4.34
-4.19
-3.84
-3.70
-4.11
-5.22
-7.02
-9.35
-11.98
-14.57
-16.64
-17.64
-17.04
-14.58
-10.36
-4.81
1.52
8.21
15.03
21.77
27.95
32.64
34.60
32.73
26.60
16.83
4.99
-6.85
-16.72
-23.24
-25.92
-25.02
-21.38
-16.06
-10.09
-4.31
0.71
4.67
7.47
9.16
9.86
9.80
9.23
8.49
7.92
7.74
8.03
8.64
9.23
9.49
9.21
8.43
7.41
6.46
5.85
5.66
5.78
6.00
6.08
5.87
5.37
4.67
3.97
3.44
3.15
3.05
2.99
2.77
2.27
1.46
0.48
-0.46
-1.16
-1.53
-1.62
-1.59
-1.67
-1.95
-2.41
-2.89
-3.15
-3.05
-2.61
-2.01
-1.49
-1.28
-1.43
-1.83
-2.27
-2.51
-2.37
-1.82
-0.96
-0.01
0.76
1.18
1.16
0.73
-0.10
-1.35
-3.10
-5.45
-8.38
-11.72
-15.14
-18.23
-20.56
-21.77
-21.63
-20.04
-17.12
-13.24
-8.89
-4.66
-0.95
2.07
4.51
6.64
8.66
10.59
12.28
13.49
14.13
14.28
14.20
14.08
13.95
13.57
12.56
10.62
7.72
4.14
0.42
-2.87
-5.29
-6.59
-6.76
-5.96
-4.44
-2.54
-0.58
1.10
2.30
2.91
2.94
2.42
1.39
-0.06
-1.78
-3.56
-5.15
-6.34
-7.03
-7.27
-7.14
-6.76
-6.19
-5.46
-4.59
-3.61
-2.58
-1.54
-0.55
0.37
1.16
1.76
2.12
2.24
2.15
1.96
1.73
1.53
1.36
1.21
1.06
0.92
0.82
0.77
0.74
0.71
0.61
0.44
0.22
0.02
-0.13
-0.21
-0.24
-0.28
-0.42
-0.72
-1.19
-1.78
-2.38
-2.90
-3.26
-3.49
-3.60
-3.60
-3.43
-3.01
-2.29
-1.32
-0.27
0.64
1.26
1.57
1.71
1.86
2.15
2.60
3.08
3.46
3.66
3.67
3.56
3.38
3.14
2.81
2.39
1.93
1.52
1.28
1.27
1.45
1.69
1.84
1.82
1.62
1.33
1.10
1.01
1.07
1.24
1.40
1.47
1.42
1.30
1.15
1.01
0.83
0.54
0.08
-0.51
-1.12
-1.59
-1.82
-1.80
-1.66
-1.53
-1.56
-1.81
-2.24
-2.75
-3.20
-3.51
-3.61
-3.48
-3.12
-2.60
-1.96
-1.32
-0.73
-0.28
0.01
0.16
0.17
0.10
-0.05
-0.30
-0.66
-1.13
-1.61
-1.97
-2.01
-1.63
-0.77
0.45
1.80
3.03
3.94
4.46
4.61
4.55
4.44
4.38
4.39
4.39
4.22
3.79
3.11
2.31
1.62
1.22
1.16
1.33
1.53
1.62
1.56
1.49
1.59
1.96
2.52
3.06
3.31
3.05
2.27
1.08
-0.32
-1.70
-2.93
-3.95
-4.73
-5.28
-5.56
-5.53
-5.17
-4.50
-3.58
-2.52
-1.33
0.04
1.76
3.88
6.26
8.37
9.36
8.36
4.79
-1.24
-8.89
-16.77
-23.45
-27.85
-29.55
-28.69
-25.70
-21.00
-14.91
-7.73
0.05
7.65
14.09
18.53
20.54
20.28
18.44
15.87
13.30
11.11
9.34
7.87
6.58
5.48
4.66
4.23
4.16
4.30
4.39
4.17
3.50
2.45
1.21
0.05
-0.82
-1.35
-1.64
-1.92
-2.37
-3.09
-4.00
-4.93
-5.70
-6.17
-6.33
-6.27
-6.18
-6.22
-6.54
-7.14
-7.84
-8.33
-8.25
-7.34
-5.60
-3.29
-0.83
1.37
3.07
4.28
5.17
5.92
6.60
7.10
7.26
6.99
6.38
5.72
5.38
5.61
6.49
7.86
9.45
11.01
12.47
13.93
15.61
17.66
20.18
23.14
26.47
29.92
32.95
34.62
33.73
29.17
20.46
8.17
-6.07
-20.01
-31.56
-39.43
-43.39
-44.04
-42.24
-38.69
-33.77
-27.76
-21.13
-14.62
-9.09
-5.26
-3.40
-3.26
-4.22
-5.58
-6.76
-7.49
-7.71
-7.50
-6.93
-6.06
-4.89
-3.41
-1.69
0.18
2.03
3.67
4.96
5.83
6.31
6.52
6.58
6.57
6.48
6.21
5.67
4.82
3.70
2.50
1.40
0.57
0.11
-0.04
0.01
0.15
0.27
0.33
0.32
0.20
-0.06
-0.49
-1.07
-1.69
-2.21
-2.52
-2.56
-2.41
-2.24
-2.25
-2.53
-3.06
-3.70
-4.27
-4.62
-4.70
-4.57
-4.31
-4.06
-3.90
-3.87
-3.99
-4.19
-4.31
-4.11
-3.33
-1.82
0.31
2.70
4.80
6.07
6.27
5.51
4.26
3.10
2.46
2.50
3.06
3.81
4.47
4.90
5.10
5.16
5.17
5.14
5.06
4.93
4.83
4.91
5.32
6.08
7.07
7.98
8.44
8.19
7.20
5.69
4.02
2.55
1.48
0.80
0.34
-0.06
-0.51
-0.98
-1.33
-1.48
-1.40
-1.20
-1.05
-1.10
-1.44
-2.09
-2.99
-4.02
-5.09
-6.06
-6.79
-7.14
-7.02
-6.43
-5.50
-4.45
-3.47
-2.71
-2.13
-1.63
-1.09
-0.45
0.26
0.95
1.53
1.99
2.35
2.64
2.83
2.85
2.62
2.13
1.53
1.01
0.78
0.94
1.41
2.04
2.62
3.01
3.17
3.13
2.96
2.70
2.40
2.08
1.77
1.49
1.25
0.99
0.68
0.27
-0.23
-0.77
-1.28
-1.69
-1.95
-2.03
-1.96
-1.80
-1.66
-1.67
-1.96
-2.55
-3.35
-4.19
-4.87
-5.22
-5.20
-4.87
-4.34
-3.74
-3.11
-2.47
-1.81
-1.10
-0.38
0.30
0.86
1.27
1.51
1.61
1.60
1.56
1.54
1.56
1.62
1.68
1.69
1.63
1.52
1.40
1.38
1.51
1.80
2.19
2.58
2.87
2.98
2.91
2.69
2.39
2.08
1.78
1.48
1.19
0.91
0.72
0.69
0.85
1.09
1.19
0.94
0.23
-0.83
-1.95
-2.80
-3.16
-3.05
-2.70
-2.37
-2.31
-2.56
-3.05
-3.62
-4.13
-4.45
-4.49
-4.21
-3.63
-2.81
-1.90
-1.03
-0.29
0.31
0.82
1.28
1.73
2.13
2.42
2.56
2.52
2.34
2.12
1.93
1.84
1.86
1.96
2.15
2.41
2.75
3.14
3.52
3.78
3.79
3.51
2.99
2.35
1.79
1.42
1.29
1.32
1.40
1.41
1.27
0.97
0.50
-0.10
-0.76
-1.42
-2.02
-2.51
-2.87
-3.10
-3.21
-3.23
-3.23
-3.31
-3.59
-4.09
-4.70
-5.24
-5.46
-5.22
-4.55
-3.61
-2.62
-1.76
-1.03
-0.38
0.29
0.96
1.52
1.82
1.79
1.47
1.08
0.83
0.85
1.12
1.51
1.85
2.07
2.18
2.25
2.36
2.48
2.54
2.46
2.20
1.83
1.46
1.18
1.02
0.97
0.95
0.89
0.75
0.51
0.19
-0.14
-0.43
-0.65
-0.81
-0.98
-1.22
-1.58
-2.07
-2.62
-3.16
-3.64
-4.00
-4.27
-4.48
-4.67
-4.85
-4.96
-4.89
-4.54
-3.86
-2.87
-1.69
-0.48
0.61
1.49
2.14
2.56
2.77
2.76
2.54
2.17
1.75
1.45
1.36
1.52
1.88
2.33
2.72
2.97
3.07
3.09
3.08
3.09
3.08
2.96
2.64
2.04
1.17
0.16
-0.82
-1.60
-2.07
-2.23
-2.17
-2.02
-1.90
-1.86
-1.92
-2.08
-2.36
-2.79
-3.34
-3.93
-4.40
-4.61
-4.49
-4.07
-3.44
-2.73
-2.03
-1.35
-0.70
-0.07
0.55
1.16
1.74
2.30
2.78
3.13
3.31
3.30
3.16
2.98
2.84
2.77
2.77
2.80
2.87
2.98
3.13
3.28
3.36
3.28
3.02
2.63
2.21
1.85
1.60
1.44
1.30
1.10
0.80
0.36
-0.19
-0.79
-1.37
-1.83
-2.11
-2.21
-2.22
-2.26
-2.41
-2.69
-3.01
-3.22
-3.21
-2.91
-2.39
-1.72
-1.02
-0.34
0.30
0.94
1.59
2.23
2.78
3.13
3.18
2.91
2.45
1.98
1.67
1.60
1.73
1.90
1.99
1.94
1.81
1.71
1.73
1.89
2.10
2.31
2.49
2.62
2.72
2.75
2.66
2.37
1.87
1.22
0.55
-0.03
-0.45
-0.72
-0.92
-1.13
-1.37
-1.61
-1.78
-1.86
-1.88
-1.96
-2.20
-2.69
-3.40
-4.24
-5.06
-5.70
-6.05
-6.06
-5.71
-5.06
-4.22
-3.30
-2.42
-1.65
-0.98
-0.35
0.29
0.95
1.57
2.06
2.35
2.43
2.39
2.36
2.41
2.56
2.77
2.99
3.13
3.20
3.19
3.12
2.99
2.82
2.68
2.61
2.66
2.81
2.96
2.99
2.82
2.44
1.93
1.41
0.96
0.60
0.34
0.16
0.06
0.03
0.04
-0.01
-0.20
-0.58
-1.15
-1.84
-2.58
-3.31
-4.01
-4.67
-5.25
-5.69
-5.92
-5.87
-5.52
-4.90
-4.08
-3.13
-2.10
-1.07
-0.07
0.83
1.58
2.12
2.42
2.45
2.26
1.93
1.61
1.44
1.50
1.80
2.22
2.63
2.91
3.01
3.00
2.96
2.95
2.97
2.97
2.93
2.85
2.78
2.76
2.80
2.82
2.74
2.51
2.14
1.71
1.33
1.05
0.87
0.68
0.37
-0.10
-0.70
-1.32
-1.81
-2.05
-2.04
-1.83
-1.58
-1.46
-1.59
-2.02
-2.71
-3.56
-4.43
-5.19
-5.76
-6.07
-6.10
-5.84
-5.33
-4.61
-3.76
-2.92
-2.21
-1.75
-1.55
-1.52
-1.49
-1.28
-0.77
-0.02
0.78
1.43
1.79
1.88
1.85
1.89
2.14
2.59
3.13
3.59
3.85
3.89
3.79
3.65
3.57
3.55
3.56
3.51
3.35
3.09
2.77
2.42
2.10
1.81
1.57
1.38
1.27
1.24
1.26
1.26
1.13
0.85
0.42
-0.09
-0.60
-1.03
-1.39
-1.68
-1.96
-2.26
-2.63
-3.13
-3.78
-4.58
-5.47
-6.34
-7.04
-7.44
-7.46
-7.10
-6.41
-5.50
-4.48
-3.46
-2.59
-1.97
-1.64
-1.58
-1.71
-1.91
-2.10
-2.28
-2.46
-2.69
-3.00
-3.40
-3.87
-4.35
-4.79
-5.11
-5.25
-5.24
-5.11
-4.97
-4.85
-4.74
-4.49
-3.95
-2.96
-1.52
0.28
2.24
4.15
5.84
7.22
8.26
8.96
9.38
9.56
9.54
9.36
9.01
8.51
7.89
7.20
6.52
5.86
5.21
4.51
3.73
2.86
1.98
1.17
0.49
-0.08
-0.57
-1.02
-1.38
-1.57
-1.49
-1.12
-0.54
0.14
0.81
1.42
1.97
2.50
3.00
3.45
3.76
3.86
3.76
3.52
3.23
3.00
2.88
2.85
2.85
2.83
2.77
2.69
2.65
2.71
2.85
3.02
3.08
2.96
2.60
2.07
1.47
0.91
0.49
0.24
0.13
0.14
0.20
0.27
0.29
0.25
0.15
0.00
-0.15
-0.29
-0.44
-0.62
-0.84
-1.08
-1.34
-1.62
-1.97
-2.46
-3.09
-3.80
-4.43
-4.82
-4.86
-4.54
-3.95
-3.18
-2.32
-1.43
-0.58
0.14
0.62
0.79
0.64
0.27
-0.15
-0.48
-0.61
-0.50
-0.22
0.19
0.62
1.02
1.37
1.64
1.83
1.92
1.89
1.78
1.66
1.61
1.73
2.00
2.36
2.64
2.71
2.51
2.11
1.65
1.26
1.00
0.84
0.69
0.49
0.22
-0.07
-0.34
-0.56
-0.81
-1.17
-1.73
-2.48
-3.38
-4.29
-5.05
-5.56
-5.78
-5.75
-5.53
-5.23
-4.88
-4.47
-3.91
-3.11
-2.04
-0.79
0.47
1.53
2.22
2.49
2.43
2.21
1.99
1.91
1.98
2.14
2.28
2.32
2.25
2.14
2.07
2.10
2.22
2.34
2.31
2.10
1.72
1.29
0.96
0.79
0.74
0.70
0.57
0.32
-0.01
-0.32
-0.53
-0.60
-0.59
-0.59
-0.68
-0.90
-1.22
-1.59
-1.96
-2.33
-2.70
-3.08
-3.47
-3.85
-4.20
-4.55
-4.90
-5.22
-5.42
-5.38
-5.00
-4.27
-3.29
-2.25
-1.26
-0.38
0.42
1.17
1.87
2.45
2.81
2.91
2.77
2.51
2.22
2.01
1.92
2.00
2.24
2.63
3.07
3.41
3.51
3.27
2.72
1.99
1.27
0.72
0.42
0.34
0.39
0.47
0.52
0.50
0.42
0.27
0.03
-0.30
-0.73
-1.20
-1.65
-2.00
-2.24
-2.41
-2.59
-2.84
-3.17
-3.51
-3.79
-3.95
-4.01
-4.04
-4.11
-4.28
-4.48
-4.61
-4.51
-4.07
-3.28
-2.23
-1.08
-0.00
0.87
1.45
1.70
1.66
1.41
1.07
0.77
0.63
0.69
0.93
1.23
1.48
1.63
1.68
1.70
1.76
1.91
2.15
2.43
2.69
2.87
2.88
2.69
2.30
1.81
1.31
0.92
0.66
0.49
0.34
0.14
-0.14
-0.46
-0.78
-1.09
-1.41
-1.77
-2.19
-2.64
-3.06
-3.39
-3.62
-3.75
-3.80
-3.79
-3.68
-3.45
-3.06
-2.50
-1.80
-1.01
-0.21
0.55
1.22
1.75
2.08
2.16
1.94
1.50
0.97
0.54
0.37
0.52
0.89
1.31
1.62
1.74
1.69
1.59
1.54
1.60
1.79
2.07
2.35
2.56
2.59
2.36
1.88
1.21
0.47
-0.20
-0.71
-1.04
-1.20
-1.26
-1.28
-1.32
-1.44
-1.66
-1.99
-2.35
-2.65
-2.78
-2.73
-2.59
-2.50
-2.54
-2.75
-3.02
-3.20
-3.19
-2.92
-2.40
-1.69
-0.85
0.05
0.92
1.66
2.16
2.39
2.35
2.14
1.88
1.67
1.55
1.53
1.59
1.69
1.84
2.03
2.27
2.50
2.69
2.78
2.77
2.69
2.56
2.42
2.24
1.95
1.53
1.00
0.45
0.04
-0.17
-0.17
-0.09
-0.06
-0.20
-0.51
-0.93
-1.38
-1.82
-2.22
-2.56
-2.81
-2.95
-3.02
-3.09
-3.27
-3.58
-3.94
-4.16
-4.07
-3.58
-2.74
-1.73
-0.73
0.09
0.70
1.12
1.40
1.60
1.74
1.83
1.83
1.75
1.61
1.49
1.48
1.63
1.94
2.31
2.63
2.79
2.80
2.74
2.74
2.83
2.99
3.14
3.15
2.99
2.68
2.29
1.89
1.55
1.30
1.13
1.01
0.91
0.77
0.58
0.30
-0.04
-0.41
-0.76
-1.08
-1.31
-1.45
-1.50
-1.50
-1.56
-1.80
-2.31
-3.09
-4.00
-4.80
-5.28
-5.32
-4.94
-4.29
-3.53
-2.79
-2.10
-1.43
-0.77
-0.09
0.59
1.22
1.77
2.24
2.60
2.85
2.97
2.98
2.90
2.80
2.71
2.67
2.64
2.57
2.45
2.26
2.08
1.98
1.98
2.07
2.14
2.06
1.76
1.30
0.77
0.34
0.11
0.07
0.15
0.28
0.39
0.51
0.64
0.79
0.87
0.79
0.49
-0.02
-0.62
-1.17
-1.53
-1.66
-1.60
-1.49
-1.42
-1.49
-1.73
-2.17
-2.80
-3.57
-4.41
-5.15
-5.62
-5.66
-5.21
-4.30
-3.10
-1.81
-0.62
0.31
0.90
1.16
1.12
0.87
0.54
0.20
-0.06
-0.19
-0.17
0.02
0.39
0.90
1.51
2.10
2.59
2.90
3.03
3.01
2.92
2.84
2.82
2.85
2.90
2.91
2.89
2.83
2.77
2.72
2.67
2.56
2.37
2.05
1.65
1.22
0.86
0.60
0.44
0.30
0.09
-0.24
-0.69
-1.18
-1.63
-2.01
-2.33
-2.64
-3.01
-3.46
-3.99
-4.52
-4.97
-5.22
-5.18
-4.79
-4.09
-3.17
-2.16
-1.22
-0.45
0.12
0.51
0.80
1.06
1.33
1.63
1.95
2.25
2.47
2.55
2.50
2.36
2.22
2.16
2.19
2.27
2.33
2.30
2.16
1.95
1.74
1.61
1.61
1.76
2.02
2.33
2.58
2.70
2.66
2.46
2.18
1.88
1.58
1.30
1.00
0.70
0.40
0.13
-0.12
-0.35
-0.58
-0.82
-1.05
-1.27
-1.46
-1.65
-1.86
-2.08
-2.31
-2.50
-2.67
-2.79
-2.89
-2.92
-2.80
-2.42
-1.72
-0.71
0.50
1.77
2.99
4.16
5.29
6.39
7.42
8.22
8.67
8.78
8.70
8.75
9.18
10.03
11.08
11.87
11.96
11.08
9.32
7.06
4.83
3.14
2.32
2.51
3.68
5.70
8.35
11.33
14.28
16.85
18.82
20.11
20.82
21.06
20.81
19.96
18.33
15.91
12.96
10.00
7.64
6.32
6.01
6.25
6.26
5.37
3.27
0.10
-3.71
-7.79
-12.11
-17.08
-23.30
-31.20
-40.73
-51.32
-62.06
-72.04
-80.48
-86.89
-90.90
-92.20
-90.44
-85.32
-76.74
-64.96
-50.68
-35.03
-19.43
-5.25
6.44
15.16
21.03
24.59
26.55
27.50
27.79
27.56
26.92
26.02
25.18
24.80
25.35
27.31
31.02
36.51
43.27
50.02
54.80
55.39
50.09
38.44
21.71
2.67
-15.27
-29.08
-37.09
-39.20
-36.45
-30.24
-21.70
-11.51
-0.25
11.09
20.97
27.59
29.61
26.83
20.39
12.44
5.27
0.50
-1.37
-0.93
0.74
2.61
4.16
5.38
6.47
7.51
8.28
8.34
7.30
5.17
2.35
-0.39
-2.35
-3.15
-2.89
-2.06
-1.27
-0.98
-1.30
-2.07
-2.98
-3.76
-4.35
-4.83
-5.32
-5.91
-6.57
-7.17
-7.55
-7.63
-7.41
-6.97
-6.43
-5.90
-5.44
-5.05
-4.68
-4.28
-3.81
-3.30
-2.84
-2.53
-2.43
-2.51
-2.67
-2.76
-2.69
-2.47
-2.22
-2.14
-2.40
-3.07
-4.04
-5.07
-5.88
-6.20
-5.95
-5.20
-4.18
-3.09
-2.04
-1.01
0.11
1.36
2.60
3.59
4.09
4.03
3.54
2.93
2.53
2.52
2.87
3.39
3.85
4.10
4.10
3.89
3.59
3.30
3.07
2.91
2.81
2.74
2.69
2.63
2.55
2.44
2.27
2.05
1.82
1.64
1.55
1.54
1.52
1.38
1.03
0.46
-0.23
-0.90
-1.49
-1.97
-2.42
-2.87
-3.31
-3.68
-3.91
-3.98
-3.93
-3.82
-3.67
-3.48
-3.18
-2.73
-2.15
-1.53
-0.95
-0.47
-0.05
0.37
0.85
1.40
1.95
2.43
2.77
2.93
2.92
2.77
2.55
2.34
2.25
2.33
2.57
2.87
3.07
3.03
2.76
2.35
1.99
1.84
1.90
2.07
2.15
2.02
1.68
1.23
0.80
0.50
0.31
0.17
0.03
-0.14
-0.30
-0.44
-0.54
-0.69
-0.95
-1.38
-1.95
-2.55
-3.07
-3.39
-3.52
-3.49
-3.37
-3.19
-2.93
-2.56
-2.08
-1.55
-1.05
-0.66
-0.38
-0.15
0.12
0.51
0.98
1.44
1.76
1.85
1.69
1.38
1.02
0.72
0.55
0.51
0.54
0.59
0.61
0.60
0.56
0.50
0.44
0.35
0.22
0.07
-0.12
-0.33
-0.58
-0.88
-1.24
-1.63
-2.01
-2.35
-2.63
-2.90
-3.26
-3.80
-4.56
-5.49
-6.51
-7.49
-8.33
-8.99
-9.42
-9.58
-9.41
-8.82
-7.78
-6.31
-4.45
-2.33
-0.08
2.16
4.25
6.10
7.64
8.87
9.80
10.47
10.86
10.96
10.77
10.31
9.62
8.83
8.05
7.39
6.93
6.70
6.64
6.68
6.69
6.58
6.34
5.99
5.59
5.18
4.76
4.27
3.67
2.98
2.25
1.59
1.06
0.71
0.51
0.37
0.20
-0.05
-0.38
-0.73
-1.07
-1.35
-1.62
-1.93
-2.36
-2.91
-3.55
-4.19
-4.73
-5.08
-5.19
-5.06
-4.69
-4.10
-3.35
-2.50
-1.68
-0.96
-0.40
0.03
0.36
0.65
0.89
1.03
1.00
0.78
0.44
0.12
-0.03
0.11
0.52
1.10
1.69
2.15
2.39
2.42
2.31
2.14
2.00
1.93
1.90
1.82
1.63
1.29
0.84
0.41
0.12
0.05
0.16
0.33
0.39
0.27
0.01
-0.25
-0.33
-0.16
0.20
0.58
0.76
0.62
0.17
-0.40
-0.90
-1.13
-1.00
-0.56
0.09
0.78
1.44
2.02
2.57
3.17
3.84
4.55
5.19
5.65
5.85
5.82
5.64
5.50
5.49
5.65
5.95
6.28
6.47
6.35
5.75
4.55
2.70
0.23
-2.67
-5.67
-8.36
-10.34
-11.38
-11.42
-10.56
-9.00
-7.03
-4.92
-2.88
-1.09
0.21
0.80
0.63
-0.11
-0.90
-0.99
0.31
3.44
8.31
14.08
19.57
23.73
26.12
26.91
26.66
25.95
25.20
24.60
23.77
22.32
20.24
18.08
16.62
16.38
17.45
19.52
22.14
24.22
24.86
23.85
21.87
20.08
19.16
18.97
18.60
16.68
11.00
-0.25
-17.58
-39.84
-64.76
-90.09
-114.12
-135.68
-148.69
-148.12
-133.18
-108.84
-82.51
-59.49
-41.87
-29.19
-19.87
-12.37
-6.51
-2.80
-1.61
-3.14
-5.96
-8.94
-11.42
-13.15
-14.09
-14.83
-15.98
-17.68
-19.43
-20.34
-19.95
-18.29
-15.37
-11.78
-8.57
-6.68
-6.60
-8.10
-10.37
-12.62
-14.23
-14.90
-14.66
-13.93
-13.17
-12.51
-11.66
-10.03
-7.25
-3.32
1.33
6.03
10.16
13.41
15.91
18.11
20.64
23.90
27.98
32.65
37.36
41.50
44.54
46.28
46.87
46.81
46.66
46.79
47.22
47.56
47.35
46.27
44.35
41.89
39.24
36.64
34.04
31.30
28.30
25.20
22.32
20.02
18.41
17.31
16.31
15.06
13.45
11.75
10.39
9.77
9.98
10.75
11.58
11.95
11.49
10.10
7.95
5.33
2.66
0.36
-1.24
-1.94
-1.77
-0.96
0.07
0.88
1.15
0.77
-0.13
-1.30
-2.50
-3.60
-4.62
-5.64
-6.78
-8.07
-9.44
-10.80
-12.12
-13.42
-14.77
-16.26
-17.87
-19.49
-20.95
-22.15
-23.12
-24.01
-25.00
-26.08
-27.02
-27.39
-26.81
-25.13
-22.59
-19.67
-16.87
-14.48
-12.49
-10.68
-8.78
-6.56
-3.88
-0.55
3.65
8.96
15.42
22.77
30.46
37.82
44.39
50.04
55.05
59.84
64.76
69.85
74.76
78.87
81.49
82.02
80.12
75.83
69.58
62.12
54.24
46.52
39.11
31.67
23.62
14.44
4.07
-7.08
-18.21
-28.52
-37.49
-44.96
-51.05
-55.96
-59.81
-62.58
-64.22
-64.73
-64.19
-62.76
-60.56
-57.68
-54.09
-49.74
-44.61
-38.83
-32.70
-26.67
-21.20
-16.69
-13.26
-10.77
-8.90
-7.29
-5.76
-4.34
-3.22
-2.59
-2.51
-2.82
-3.21
-3.38
-3.12
-2.37
-1.15
0.49
2.51
4.90
7.58
10.42
13.18
15.66
17.70
19.22
20.25
20.85
21.04
20.82
20.13
18.98
17.42
15.58
13.57
11.47
9.25
6.86
4.22
1.36
-1.59
-4.38
-6.77
-8.63
-9.95
-10.86
-11.57
-12.21
-12.86
-13.46
-13.94
-14.25
-14.46
-14.69
-15.09
-15.67
-16.32
-16.81
-16.98
-16.77
-16.31
-15.81
-15.47
-15.38
-15.56
-15.92
-16.43
-17.02
-17.65
-18.23
-18.66
-18.86
-18.85
-18.69
-18.41
-17.91
-16.89
-15.00
-11.97
-7.75
-2.60
3.00
8.49
13.39
17.30
19.88
20.81
19.90
17.26
13.40
9.18
5.64
3.69
3.82
6.06
10.05
15.32
21.40
27.80
33.96
39.17
42.67
43.79
42.14
37.73
31.10
23.13
14.87
7.33
1.32
-2.62
-4.50
-4.91
-4.79
-4.91
-5.53
-6.28
-6.36
-4.86
-1.00
5.21
12.74
20.05
25.88
29.91
32.72
35.43
39.22
44.91
52.15
59.29
64.11
65.06
62.00
56.07
48.98
42.68
38.95
38.65
41.29
45.25
48.25
47.59
40.12
22.73
-9.34
-54.74
-103.97
-143.73
-164.95
-166.77
-154.65
-136.28
-119.76
-106.66
-95.94
-86.33
-77.81
-71.55
-68.71
-69.21
-71.38
-72.89
-71.16
-64.66
-53.81
-40.92
-29.08
-20.35
-14.51
-9.33
-1.74
10.82
28.84
50.36
71.68
88.84
99.46
103.47
102.67
99.32
95.03
89.77
82.28
70.99
55.16
35.67
14.77
-4.78
-20.84
-32.33
-39.30
-42.31
-41.87
-38.24
-31.69
-22.83
-12.87
-3.36
4.27
9.25
11.65
12.20
11.88
11.44
11.21
11.13
10.93
10.37
9.40
8.20
7.11
6.43
6.28
6.49
6.65
6.27
4.98
2.80
0.13
-2.27
-3.59
-3.20
-1.00
2.58
6.68
10.29
12.57
13.11
11.96
9.63
6.79
4.09
1.93
0.36
-0.86
-2.17
-3.82
-5.72
-7.21
-7.32
-5.11
-0.15
7.17
15.73
24.08
30.96
35.71
38.31
39.10
38.49
36.70
33.79
29.87
25.30
20.76
17.07
14.90
14.48
15.57
17.54
19.70
21.55
23.00
24.35
26.13
28.84
32.70
37.47
42.58
47.34
51.26
54.25
56.65
59.02
61.92
65.65
70.12
74.90
79.20
81.80
81.09
75.23
62.58
42.46
15.81
-14.64
-44.87
-70.82
-89.75
-101.16
-106.64
-108.90
-110.45
-112.62
-115.52
-118.52
-121.01
-122.75
-123.63
-123.22
-120.62
-114.73
-105.02
-92.53
-79.92
-70.54
-66.88
-69.23
-75.26
-80.59
-80.43
-71.40
-53.07
-27.88
0.15
27.22
51.03
70.89
86.85
98.70
105.69
106.57
100.79
89.33
74.28
57.90
41.05
22.79
0.86
-23.75
-47.44
-65.03
-72.98
-71.56
-64.09
-55.06
-47.84
-43.97
-42.42
-41.06
-37.77
-31.64
-23.69
-16.15
-11.49
-10.77
-14.32
-21.28
-30.33
-40.17
-47.42
-48.48
-40.43
-22.08
5.70
38.82
72.07
98.44
114.95
123.30
127.88
133.70
138.76
141.78
137.20
120.93
92.45
55.84
16.99
-15.51
-36.98
-47.92
-51.93
-53.55
-54.91
-55.27
-52.27
-44.52
-33.47
-23.36
-18.85
-21.70
-30.51
-40.79
-47.54
-47.23
-39.75
-28.28
-17.85
-13.06
-16.03
-26.38
-41.16
-55.54
-64.45
-62.61
-47.20
-19.26
15.47
48.25
69.86
73.87
59.87
33.52
4.74
-16.41
-23.79
-18.13
-6.17
3.01
2.55
-8.77
-27.21
-46.83
-62.81
-73.08
-78.18
-78.68
-73.62
-60.93
-38.84
-8.76
23.37
48.87
61.79
61.15
50.76
38.42
28.89
25.57
29.29
38.52
50.11
59.76
63.15
57.24
41.66
18.90
-5.53
-25.38
-35.56
-33.44
-18.99
4.79
33.36
61.37
83.93
98.18
103.34
100.51
92.07
80.77
68.77
57.20
46.39
36.21
26.85
18.66
11.86
6.24
1.14
-4.38
-10.79
-17.77
-24.22
-28.73
-30.55
-30.07
-28.68
-28.02
-29.22
-32.39
-36.71
-41.03
-44.34
-46.20
-46.63
-45.81
-43.75
-40.28
-35.24
-28.79
-21.61
-14.71
-9.16
-5.52
-3.61
-2.45
-0.72
2.68
8.12
15.01
22.14
28.19
32.40
34.77
36.07
37.42
39.95
44.50
51.51
60.98
72.26
83.93
93.70
98.94
97.47
88.58
73.64
55.68
38.17
23.66
12.84
4.71
-2.46
-10.01
-18.27
-26.95
-36.04
-46.64
-60.75
-80.28
-105.48
-134.20
-162.14
-184.31
-196.66
-197.45
-187.37
-168.95
-145.39
-119.68
-94.13
-70.40
-49.69
-32.80
-20.05
-11.02
-4.59
0.72
6.35
13.26
21.70
31.21
40.79
49.13
54.87
56.92
54.71
48.45
39.07
28.01
16.80
6.71
-1.43
-7.06
-9.68
-8.68
-3.44
6.45
20.65
37.62
54.50
67.52
72.87
68.07
52.98
30.23
4.46
-19.24
-37.03
-47.38
-51.08
-50.21
-46.85
-42.29
-36.92
-30.78
-24.09
-17.45
-11.65
-7.23
-4.23
-2.26
-0.78
0.67
2.28
3.97
5.58
6.96
8.07
9.00
9.92
10.96
12.14
13.28
14.10
14.26
13.56
11.97
9.68
7.05
4.46
2.22
0.48
-0.77
-1.70
-2.55
-3.48
-4.46
-5.14
-4.91
-3.00
1.16
7.62
15.74
24.28
31.77
37.03
39.57
39.73
38.49
36.95
35.90
35.52
35.44
35.10
34.12
32.52
30.68
29.02
27.77
26.80
25.73
24.19
22.09
19.68
17.33
15.34
13.73
12.28
10.69
8.78
6.55
4.21
1.98
0.09
-1.30
-2.05
-2.09
-1.42
-0.21
1.26
2.65
3.66
4.12
3.99
3.35
2.30
1.00
-0.45
-1.93
-3.42
-4.91
-6.41
-7.85
-9.10
-9.95
-10.18
-9.66
-8.47
-6.84
-5.08
-3.40
-1.91
-0.57
0.68
1.82
2.67
3.01
2.65
1.61
0.08
-1.65
-3.37
-5.00
-6.61
-8.31
-10.08
-11.75
-13.07
-13.80
-13.86
-13.34
-12.42
-11.27
-10.02
-8.68
-7.19
-5.48
-3.49
-1.22
1.37
4.30
7.58
11.17
14.90
18.53
21.74
24.16
25.52
25.67
24.61
22.54
19.82
16.96
14.47
12.74
11.90
11.69
11.53
10.62
8.25
4.02
-1.99
-9.28
-17.05
-24.39
-30.47
-34.69
-36.70
-36.46
-34.24
-30.58
-26.14
-21.60
-17.47
-14.00
-11.19
-8.88
-6.86
-5.02
-3.30
-1.73
-0.36
0.78
1.67
2.26
2.55
2.64
2.76
3.22
4.33
6.19
8.70
11.53
14.31
16.77
18.81
20.49
21.86
22.92
23.62
23.93
23.90
23.59
23.02
22.07
20.52
18.04
14.33
9.22
2.79
-4.61
-12.29
-19.29
-24.66
-27.77
-28.48
-27.23
-24.81
-22.03
-19.40
-17.12
-15.20
-13.61
-12.43
-11.74
-11.49
-11.44
-11.26
-10.65
-9.51
-7.93
-6.18
-4.55
-3.29
-2.54
-2.33
-2.53
-2.91
-3.14
-2.95
-2.24
-1.13
0.12
1.17
1.78
1.85
1.43
0.68
-0.21
-1.02
-1.57
-1.66
-1.18
-0.16
1.25
2.77
4.09
4.99
5.38
5.34
5.08
4.81
4.64
4.61
4.65
4.68
4.70
4.76
4.96
5.28
5.63
5.81
5.66
5.12
4.30
3.35
2.44
1.63
0.88
0.15
-0.55
-1.08
-1.23
-0.84
0.13
1.52
2.99
4.17
4.78
4.74
4.22
3.47
2.79
2.30
2.00
1.73
1.34
0.77
0.08
-0.58
-1.11
-1.45
-1.63
-1.66
-1.53
-1.13
-0.39
0.65
1.86
2.96
3.73
4.02
3.90
3.52
3.13
2.86
2.77
2.79
2.82
2.73
2.44
1.90
1.12
0.17
-0.80
-1.63
-2.19
-2.39
-2.26
-1.93
-1.59
-1.40
-1.47
-1.83
-2.40
-3.10
-3.78
-4.28
-4.46
-4.27
-3.77
-3.20
-2.89
-3.10
-3.86
-4.96
-5.98
-6.52
-6.34
-5.50
-4.27
-3.04
-2.13
-1.73
-1.85
-2.34
-2.97
-3.47
-3.65
-3.49
-3.13
-2.80
-2.70
-2.83
-2.97
-2.79
-1.96
-0.36
1.88
4.42
6.81
8.62
9.57
9.58
8.87
7.88
7.19
7.30
8.46
10.52
12.99
15.26
16.82
17.49
17.44
17.04
16.70
16.65
16.93
17.36
17.70
17.75
17.37
16.57
15.44
14.17
12.92
11.76
10.54
8.92
6.43
2.67
-2.56
-9.21
-16.92
-25.11
-33.01
-39.78
-44.67
-47.20
-47.29
-45.28
-41.71
-37.06
-31.50
-24.99
-17.49
-9.26
-1.00
6.34
11.86
15.10
16.14
15.48
13.74
11.42
8.81
6.08
3.42
1.03
-0.84
-2.00
-2.38
-2.01
-1.04
0.33
1.85
3.26
4.35
5.00
5.12
4.68
3.62
1.90
-0.43
-3.19
-6.07
-8.71
-10.87
-12.48
-13.67
-14.61
-15.37
-15.86
-15.83
-15.01
-13.23
-10.48
-6.90
-2.67
2.01
6.90
11.74
16.21
20.01
22.95
25.00
26.35
27.24
27.86
28.12
27.66
26.01
22.83
18.30
13.16
8.53
5.58
5.06
7.16
11.51
17.45
24.22
31.00
36.77
40.33
40.48
36.46
28.42
17.44
5.26
-6.41
-16.50
-24.71
-31.33
-36.76
-41.12
-44.16
-45.52
-45.02
-42.79
-39.33
-35.24
-31.09
-27.32
-24.14
-21.62
-19.63
-17.95
-16.34
-14.64
-12.93
-11.43
-10.36
-9.82
-9.66
-9.58
-9.22
-8.31
-6.78
-4.63
-1.91
1.36
5.18
9.42
13.80
17.89
21.23
23.53
24.74
25.02
24.62
23.76
22.56
21.11
19.54
18.02
16.73
15.73
14.83
13.59
11.48
8.06
3.21
-2.74
-9.06
-14.78
-19.01
-21.14
-20.96
-18.69
-14.80
-9.94
-4.80
-0.04
3.77
6.17
6.88
5.91
3.55
0.31
-3.19
-6.37
-8.83
-10.34
-10.96
-10.87
-10.40
-9.87
-9.55
-9.57
-9.92
-10.48
-11.09
-11.51
-11.40
-10.39
-8.15
-4.50
0.39
6.02
11.62
16.42
19.81
21.48
21.44
19.91
17.23
13.83
10.20
6.83
4.13
2.25
1.01
-0.06
-1.53
-3.81
-6.96
-10.65
-14.33
-17.43
-19.54
-20.50
-20.33
-19.18
-17.23
-14.71
-11.95
-9.30
-7.09
-5.51
-4.53
-3.91
-3.36
-2.65
-1.72
-0.70
0.20
0.79
1.01
0.95
0.78
0.70
0.81
1.05
1.26
1.23
0.79
-0.05
-1.14
-2.27
-3.33
-4.37
-5.60
-7.26
-9.40
-11.77
-13.91
-15.30
-15.68
-15.15
-14.14
-13.28
-13.17
-14.28
-16.90
-20.96
-25.92
-30.62
-33.30
-32.06
-25.58
-13.75
1.94
18.79
33.63
43.89
48.23
46.66
40.20
30.38
18.85
7.22
-2.82
-9.68
-12.04
-9.39
-2.26
7.77
18.53
27.79
33.95
36.28
34.96
30.84
25.17
19.26
14.27
11.01
9.79
10.33
11.95
13.68
14.62
14.17
12.18
8.90
4.81
0.45
-3.73
-7.46
-10.61
-13.16
-15.16
-16.70
-17.91
-18.94
-19.83
-20.50
-20.72
-20.20
-18.68
-16.10
-12.67
-8.72
-4.60
-0.47
3.66
7.95
12.46
17.13
21.66
25.59
28.48
30.07
30.32
29.54
28.23
26.98
26.25
26.23
26.66
26.91
26.18
23.75
19.37
13.32
6.41
-0.31
-5.86
-9.68
-11.70
-12.31
-12.11
-11.67
-11.34
-11.23
-11.25
-11.24
-11.13
-10.90
-10.62
-10.36
-10.12
-9.84
-9.39
-8.62
-7.45
-5.90
-4.07
-2.15
-0.35
1.11
2.14
2.68
2.81
2.63
2.25
1.76
1.23
0.72
0.29
-0.03
-0.31
-0.74
-1.56
-2.94
-4.80
-6.78
-8.32
-8.85
-8.06
-6.06
-3.42
-1.03
0.16
-0.59
-3.57
-8.50
-14.62
-20.89
-26.30
-30.15
-32.17
-32.55
-31.65
-29.87
-27.44
-24.49
-21.13
-17.57
-14.18
-11.32
-9.22
-7.88
-7.03
-6.32
-5.47
-4.41
-3.32
-2.43
-1.83
-1.39
-0.78
0.34
2.08
4.22
6.31
7.87
8.61
8.57
8.02
7.29
6.66
6.24
6.10
6.27
6.77
7.46
8.10
8.34
7.93
6.85
5.32
3.72
2.36
1.41
0.87
0.70
1.02
1.98
3.69
5.97
8.35
10.20
11.01
10.69
9.56
8.23
7.24
6.85
6.93
7.09
6.90
6.14
4.80
3.15
1.58
0.47
0.08
0.44
1.39
2.56
3.55
4.03
3.85
3.04
1.78
0.30
-1.26
-2.82
-4.31
-5.66
-6.74
-7.36
-7.38
-6.74
-5.48
-3.77
-1.87
-0.04
1.47
2.44
2.74
2.35
1.34
-0.03
-1.43
-2.45
-2.74
-2.13
-0.62
1.52
3.91
6.09
7.62
8.25
7.92
6.79
5.20
3.56
2.18
1.26
0.80
0.73
0.93
1.31
1.81
2.39
3.00
3.56
4.01
4.34
4.56
4.69
4.71
4.53
4.05
3.22
2.08
0.80
-0.42
-1.37
-1.99
-2.30
-2.48
-2.70
-3.06
-3.53
-3.94
-4.08
-3.79
-3.06
-2.03
-0.89
0.18
1.17
2.15
3.26
4.55
5.95
7.28
8.37
9.11
9.51
9.65
9.59
9.34
8.84
8.02
6.81
5.23
3.44
1.68
0.23
-0.67
-0.88
-0.45
0.45
1.55
2.58
3.39
3.90
4.12
4.10
3.86
3.38
2.64
1.62
0.36
-1.00
-2.23
-3.13
-3.57
-3.55
-3.21
-2.74
-2.28
-1.85
-1.39
-0.79
-0.03
0.80
1.53
1.94
1.90
1.40
0.56
-0.42
-1.35
-2.04
-2.40
-2.39
-2.02
-1.38
-0.59
0.19
0.76
0.95
0.69
0.03
-0.87
-1.82
-2.63
-3.20
-3.52
-3.59
-3.44
-3.11
-2.64
-2.06
-1.44
-0.84
-0.34
-0.02
0.09
-0.04
-0.33
-0.67
-0.92
-0.97
-0.82
-0.57
-0.39
-0.42
-0.70
-1.13
-1.51
-1.63
-1.38
-0.85
-0.28
-0.00
-0.28
-1.17
-2.54
-4.08
-5.49
-6.60
-7.35
-7.78
-7.93
-7.74
-7.15
-6.14
-4.79
-3.33
-2.00
-0.99
-0.34
-0.00
0.15
0.23
0.28
0.30
0.29
0.26
0.27
0.38
0.61
0.91
1.17
1.30
1.26
1.13
1.06
1.18
1.52
1.98
2.40
2.60
2.47
2.04
1.36
0.53
-0.35
-1.17
-1.83
-2.21
-2.26
-2.00
-1.53
-1.03
-0.68
-0.64
-0.95
-1.61
-2.50
-3.48
-4.40
-5.14
-5.67
-5.99
-6.15
-6.22
-6.27
-6.35
-6.53
-6.81
-7.14
-7.39
-7.39
-7.05
-6.42
-5.66
-4.99
-4.48
-4.11
-3.69
-3.10
-2.22
-1.02
0.54
2.55
5.15
8.35
11.97
15.57
18.60
20.56
21.14
20.23
18.00
14.83
11.37
8.44
6.96
7.54
10.27
14.54
19.20
22.97
24.85
24.37
21.55
16.82
10.77
4.06
-2.61
-8.59
-13.33
-16.56
-18.28
-18.72
-18.11
-16.61
-14.31
-11.34
-8.12
-5.40
-4.11
-4.96
-8.13
-13.08
-18.66
-23.50
-26.40
-26.68
-24.28
-19.65
-13.62
-7.14
-1.18
3.41
6.03
6.45
4.87
1.91
-1.57
-4.71
-6.85
-7.66
-7.12
-5.55
-3.43
-1.33
0.23
0.96
0.85
0.18
-0.66
-1.28
-1.49
-1.34
-1.06
-0.93
-1.11
-1.58
-2.11
-2.40
-2.21
-1.55
-0.67
0.05
0.27
-0.09
-0.83
-1.61
-2.08
-2.14
-1.90
-1.58
-1.36
-1.19
-0.91
-0.32
0.70
2.08
3.65
5.20
6.59
7.70
8.50
8.95
9.04
8.80
8.28
7.57
6.75
5.90
5.01
4.03
2.88
1.55
0.09
-1.34
-2.53
-3.33
-3.65
-3.49
-2.94
-2.13
-1.23
-0.47
-0.01
0.02
-0.38
-1.08
-1.87
-2.55
-3.02
-3.26
-3.34
-3.35
-3.40
-3.56
-3.87
-4.29
-4.63
-4.64
-4.12
-2.98
-1.43
0.19
1.51
2.32
2.69
2.86
3.08
3.45
3.87
4.08
3.88
3.26
2.44
1.76
1.55
1.94
2.79
3.81
4.65
5.10
5.11
4.79
4.27
3.67
3.03
2.32
1.48
0.49
-0.61
-1.75
-2.80
-3.64
-4.18
-4.41
-4.38
-4.18
-3.89
-3.51
-3.02
-2.40
-1.71
-1.13
-0.88
-1.11
-1.73
-2.47
-2.94
-2.87
-2.23
-1.28
-0.40
0.10
0.12
-0.16
-0.48
-0.63
-0.52
-0.21
0.23
0.76
1.44
2.29
3.29
4.29
5.14
5.70
5.90
5.80
5.49
5.13
4.80
4.60
4.54
4.58
4.66
4.68
4.57
4.35
4.05
3.67
3.21
2.61
1.83
0.88
-0.12
-1.03
-1.73
-2.19
-2.50
-2.77
-3.08
-3.41
-3.64
-3.63
-3.29
-2.70
-2.01
-1.43
-1.06
-0.89
-0.75
-0.49
-0.00
0.68
1.42
2.06
2.47
2.64
2.63
2.56
2.50
2.49
2.46
2.37
2.17
1.89
1.64
1.48
1.46
1.52
1.57
1.58
1.54
1.57
1.76
2.11
2.50
2.72
2.57
1.97
1.01
-0.06
-0.97
-1.50
-1.60
-1.41
-1.18
-1.24
-1.81
-2.89
-4.29
-5.64
-6.58
-6.88
-6.51
-5.63
-4.49
-3.29
-2.17
-1.17
-0.29
0.45
1.00
1.33
1.48
1.56
1.73
2.12
2.75
3.57
4.44
5.26
5.96
6.55
7.05
7.44
7.65
7.58
7.17
6.42
5.47
4.52
3.72
3.20
2.97
2.94
3.03
3.08
3.01
2.75
2.29
1.66
0.89
0.09
-0.68
-1.36
-1.93
-2.37
-2.75
-3.10
-3.48
-3.89
-4.25
-4.46
-4.39
-3.99
-3.27
-2.40
-1.58
-0.99
-0.73
-0.77
-1.03
-1.36
-1.63
-1.78
-1.83
-1.90
-2.14
-2.70
-3.64
-4.86
-6.17
-7.25
-7.86
-7.82
-7.09
-5.81
-4.25
-2.77
-1.76
-1.54
-2.27
-3.85
-5.95
-8.10
-9.83
-10.82
-10.89
-10.01
-8.22
-5.66
-2.58
0.62
3.46
5.55
6.72
7.17
7.28
7.44
7.85
8.38
8.71
8.57
7.95
7.14
6.60
6.68
7.41
8.47
9.36
9.63
9.07
7.79
6.12
4.47
3.13
2.21
1.60
1.11
0.58
-0.01
-0.58
-0.99
-1.16
-1.07
-0.87
-0.71
-0.75
-1.05
-1.56
-2.14
-2.66
-2.98
-3.08
-2.94
-2.62
-2.15
-1.54
-0.74
0.28
1.51
2.81
3.98
4.81
5.15
5.03
4.57
3.94
3.29
2.66
1.98
1.17
0.19
-0.86
-1.80
-2.39
-2.47
-1.99
-1.10
-0.05
0.87
1.45
1.60
1.32
0.64
-0.39
-1.69
-3.18
-4.73
-6.21
-7.54
-8.67
-9.56
-10.09
-10.15
-9.59
-8.40
-6.67
-4.64
-2.60
-0.82
0.58
1.59
2.28
2.74
3.04
3.17
3.13
2.90
2.51
2.02
1.55
1.18
0.94
0.83
0.78
0.71
0.60
0.42
0.21
-0.02
-0.30
-0.64
-1.09
-1.62
-2.17
-2.66
-3.04
-3.32
-3.59
-3.97
-4.48
-5.02
-5.39
-5.42
-5.03
-4.33
-3.51
-2.76
-2.17
-1.72
-1.35
-0.99
-0.64
-0.34
-0.09
0.13
0.36
0.62
0.87
1.02
1.00
0.82
0.55
0.29
0.15
0.16
0.31
0.58
0.92
1.27
1.57
1.75
1.76
1.58
1.24
0.84
0.49
0.25
0.15
0.14
0.18
0.23
0.31
0.44
0.61
0.74
0.75
0.54
0.09
-0.52
-1.13
-1.57
-1.75
-1.67
-1.42
-1.13
-0.87
-0.70
-0.57
-0.43
-0.26
-0.05
0.12
0.20
0.17
0.08
-0.01
-0.01
0.07
0.22
0.35
0.39
0.32
0.21
0.16
0.30
0.69
1.32
2.07
2.78
3.27
3.45
3.33
3.03
2.68
2.41
2.22
2.00
1.61
0.97
0.10
-0.85
-1.69
-2.26
-2.51
-2.49
-2.33
-2.15
-2.08
-2.20
-2.53
-3.06
-3.68
-4.26
-4.59
-4.54
-4.09
-3.34
-2.46
-1.63
-0.95
-0.44
-0.05
0.25
0.46
0.59
0.67
0.78
1.02
1.43
1.98
2.55
2.99
3.20
3.17
2.96
2.65
2.28
1.85
1.36
0.83
0.35
0.07
0.09
0.39
0.81
1.13
1.18
0.89
0.34
-0.29
-0.88
-1.35
-1.70
-1.95
-2.12
-2.19
-2.18
-2.14
-2.11
-2.16
-2.33
-2.60
-2.92
-3.26
-3.57
-3.82
-3.97
-3.96
-3.74
-3.29
-2.62
-1.75
-0.73
0.37
1.44
2.34
2.92
3.13
2.98
2.58
2.03
1.41
0.70
-0.10
-0.98
-1.85
-2.56
-2.97
-3.00
-2.67
-2.05
-1.20
-0.22
0.85
1.91
2.86
3.58
4.00
4.12
4.02
3.82
3.65
3.60
3.71
3.92
4.16
4.32
4.28
3.99
3.43
2.66
1.82
1.07
0.59
0.50
0.78
1.28
1.76
2.01
1.86
1.35
0.59
-0.22
-0.88
-1.25
-1.24
-0.82
-0.03
0.97
1.97
2.76
3.21
3.42
3.58
3.97
4.74
5.89
7.26
8.61
9.71
10.43
10.67
10.42
9.71
8.63
7.37
6.13
5.04
4.17
3.39
2.53
1.33
-0.44
-2.90
-6.06
-9.70
-13.48
-16.93
-19.64
-21.29
-21.79
-21.22
-19.79
-17.74
-15.29
-12.69
-10.17
-7.99
-6.34
-5.30
-4.80
-4.62
-4.50
-4.23
-3.71
-3.01
-2.25
-1.57
-1.03
-0.59
-0.15
0.41
1.16
2.10
3.16
4.22
5.12
5.77
6.11
6.17
6.03
5.83
5.70
5.68
5.77
5.92
6.10
6.29
6.54
6.85
7.18
7.43
7.51
7.35
6.96
6.44
5.86
5.28
4.69
4.02
3.20
2.20
1.06
-0.13
-1.25
-2.21
-2.96
-3.49
-3.82
-4.01
-4.08
-4.13
-4.22
-4.42
-4.78
-5.32
-6.00
-6.74
-7.46
-8.03
-8.35
-8.35
-8.00
-7.33
-6.43
-5.47
-4.59
-3.86
-3.24
-2.57
-1.69
-0.50
0.94
2.46
3.83
4.87
5.53
5.84
5.88
5.70
5.33
4.81
4.22
3.66
3.24
3.02
3.02
3.21
3.58
4.10
4.74
5.36
5.81
5.90
5.52
4.67
3.49
2.17
0.89
-0.16
-0.84
-1.07
-0.84
-0.26
0.48
1.13
1.49
1.49
1.22
0.89
0.72
0.84
1.21
1.65
1.94
1.91
1.50
0.78
-0.12
-1.03
-1.80
-2.28
-2.31
-1.77
-0.63
1.01
2.90
4.72
6.20
7.26
7.89
8.05
7.53
5.96
2.97
-1.48
-6.93
-12.50
-17.16
-20.19
-21.36
-20.98
-19.61
-17.74
-15.66
-13.38
-10.92
-8.34
-5.84
-3.64
-1.87
-0.49
0.65
1.71
2.75
3.70
4.41
4.71
4.53
3.94
3.14
2.39
1.91
1.78
1.96
2.27
2.55
2.67
2.66
2.66
2.88
3.45
4.42
5.65
6.88
7.79
8.11
7.69
6.57
4.95
3.13
1.43
0.06
-0.90
-1.47
-1.75
-1.83
-1.79
-1.67
-1.49
-1.27
-0.97
-0.60
-0.14
0.35
0.80
1.15
1.38
1.53
1.72
2.04
2.51
3.05
3.46
3.52
3.09
2.21
1.08
0.00
-0.75
-1.00
-0.77
-0.24
0.34
0.72
0.77
0.49
-0.01
-0.55
-0.95
-1.10
-0.96
-0.59
-0.03
0.65
1.45
2.39
3.49
4.75
6.10
7.37
8.26
8.40
7.39
4.92
0.97
-4.07
-9.44
-14.15
-17.31
-18.48
-17.76
-15.67
-12.94
-10.11
-7.45
-5.01
-2.74
-0.68
1.01
2.18
2.86
3.22
3.53
4.03
4.74
5.51
6.14
6.45
6.47
6.31
6.17
6.16
6.32
6.55
6.75
6.85
6.82
6.69
6.51
6.36
6.29
6.27
6.27
6.16
5.82
5.15
4.09
2.66
0.98
-0.79
-2.49
-3.94
-5.11
-5.99
-6.67
-7.21
-7.61
-7.82
-7.77
-7.42
-6.83
-6.08
-5.31
-4.58
-3.89
-3.19
-2.42
-1.56
-0.67
0.18
0.93
1.55
2.09
2.57
2.99
3.31
3.48
3.46
3.20
2.74
2.11
1.34
0.48
-0.44
-1.34
-2.12
-2.65
-2.87
-2.78
-2.49
-2.16
-1.96
-1.96
-2.16
-2.49
-2.85
-3.15
-3.33
-3.35
-3.18
-2.80
-2.26
-1.67
-1.24
-1.10
-1.34
-1.85
-2.43
-2.80
-2.72
-2.08
-0.87
0.72
2.40
3.79
4.58
4.63
4.02
3.07
2.15
1.54
1.32
1.39
1.60
1.84
2.14
2.62
3.35
4.34
5.52
6.80
8.14
9.54
10.94
12.21
13.08
13.31
12.74
11.42
9.57
7.48
5.46
3.71
2.36
1.47
1.06
1.12
1.59
2.27
2.81
2.77
1.74
-0.55
-4.06
-8.41
-12.95
-16.97
-19.86
-21.26
-21.08
-19.53
-16.98
-13.91
-10.84
-8.27
-6.54
-5.79
-5.88
-6.43
-6.95
-7.03
-6.51
-5.47
-4.21
-3.07
-2.28
-1.96
-2.03
-2.35
-2.73
-2.96
-2.89
-2.42
-1.56
-0.44
0.76
1.83
2.66
3.21
3.53
3.73
3.93
4.30
4.98
6.10
7.63
9.44
11.24
12.70
13.58
13.78
13.40
12.58
11.44
9.99
8.23
6.20
4.08
2.14
0.62
-0.38
-0.92
-1.22
-1.52
-1.99
-2.68
-3.53
-4.44
-5.30
-6.02
-6.55
-6.89
-7.08
-7.19
-7.32
-7.49
-7.70
-7.87
-7.90
-7.69
-7.10
-6.02
-4.34
-2.01
0.88
4.14
7.39
10.27
12.52
14.05
14.92
15.21
14.91
13.88
11.95
9.06
5.40
1.46
-2.23
-5.22
-7.40
-8.96
-10.26
-11.54
-12.79
-13.72
-13.97
-13.32
-11.85
-9.93
-8.00
-6.44
-5.41
-4.82
-4.46
-4.09
-3.59
-2.99
-2.41
-1.94
-1.58
-1.21
-0.62
0.29
1.48
2.71
3.64
3.97
3.61
2.69
1.53
0.48
-0.18
-0.30
0.16
1.15
2.54
4.10
5.57
6.66
7.23
7.23
6.81
6.15
5.43
4.76
4.16
3.63
3.17
2.81
2.56
2.40
2.26
2.07
1.76
1.31
0.77
0.21
-0.28
-0.65
-0.88
-0.98
-0.97
-0.90
-0.76
-0.57
-0.34
-0.11
0.04
0.03
-0.21
-0.67
-1.27
-1.87
-2.29
-2.39
-2.13
-1.57
-0.89
-0.30
0.02
0.01
-0.23
-0.55
-0.77
-0.80
-0.61
-0.25
0.19
0.59
0.82
0.73
0.25
-0.64
-1.77
-2.93
-3.85
-4.35
-4.42
-4.23
-4.03
-4.05
-4.42
-5.10
-5.90
-6.59
-6.91
-6.73
-6.02
-4.82
-3.30
-1.64
-0.08
1.15
1.92
2.19
2.08
1.82
1.60
1.50
1.46
1.32
0.98
0.45
-0.16
-0.70
-1.08
-1.35
-1.56
-1.69
-1.60
-1.06
0.05
1.64
3.45
5.15
6.50
7.48
8.17
8.58
8.52
7.66
5.68
2.58
-1.21
-4.88
-7.63
-8.93
-8.83
-7.92
-7.05
-7.00
-8.16
-10.37
-13.00
-15.24
-16.39
-16.11
-14.53
-12.20
-9.98
-8.87
-9.82
-13.40
-19.22
-25.57
-29.43
-27.33
-16.70
2.66
28.06
54.54
76.65
90.42
94.60
90.50
80.88
68.44
54.97
41.39
28.30
16.52
7.04
0.60
-2.96
-4.75
-6.41
-9.29
-13.65
-18.40
-21.53
-21.01
-15.85
-6.62
4.69
15.43
23.28
26.92
26.23
21.91
15.05
6.70
-2.16
-10.55
-17.51
-22.27
-24.54
-24.66
-23.41
-21.63
-19.80
-17.94
-15.81
-13.27
-10.46
-7.80
-5.77
-4.53
-3.88
-3.34
-2.38
-0.69
1.72
4.54
7.38
9.86
11.73
12.91
13.34
13.04
11.97
10.14
7.61
4.55
1.24
-1.97
-4.75
-6.84
-8.10
-8.47
-7.87
-6.10
-2.83
2.14
8.59
15.63
21.79
25.42
25.34
21.23
13.78
4.26
-6.06
-16.43
-26.72
-37.06
-47.42
-57.23
-65.46
-70.99
-73.11
-71.79
-67.69
-61.78
-54.96
-47.74
-40.23
-32.36
-24.05
-15.47
-6.93
1.24
8.87
16.00
22.76
29.22
35.27
40.64
45.07
48.38
50.52
51.45
51.08
49.21
45.66
40.43
33.81
26.31
18.53
11.01
4.08
-2.05
-7.23
-11.29
-14.02
-15.29
-15.17
-13.97
-12.19
-10.34
-8.81
-7.78
-7.29
-7.36
-8.20
-10.11
-13.35
-17.81
-22.89
-27.43
-30.16
-30.12
-27.05
-21.54
-14.79
-8.16
-2.75
0.91
2.85
3.49
3.31
2.72
1.90
0.83
-0.54
-2.26
-4.20
-6.12
-7.69
-8.62
-8.71
-7.95
-6.50
-4.58
-2.49
-0.50
1.17
2.41
3.16
3.47
3.43
3.18
2.82
2.46
2.16
1.93
1.77
1.69
1.68
1.79
2.06
2.52
3.11
3.72
4.23
4.52
4.57
4.41
4.08
3.57
2.79
1.67
0.19
-1.48
-3.06
-4.22
-4.76
-4.65
-4.04
-3.15
-2.14
-1.13
-0.13
0.85
1.79
2.69
3.53
4.35
5.14
5.89
6.52
6.94
7.03
6.73
6.03
4.93
3.52
1.94
0.36
-0.98
-1.89
-2.26
-2.15
-1.76
-1.36
-1.21
-1.41
-1.93
-2.64
-3.39
-4.12
-4.86
-5.70
-6.67
-7.75
-8.81
-9.70
-10.35
-10.71
-10.87
-10.88
-10.82
-10.75
-10.78
-11.10
-11.93
-13.36
-15.18
-16.63
-16.44
-13.16
-5.63
6.47
22.29
39.94
56.89
70.59
79.04
81.05
76.34
65.47
49.80
31.46
13.28
-1.77
-11.25
-13.97
-10.49
-2.90
5.94
13.32
17.60
18.49
16.76
13.67
10.33
7.37
4.97
3.06
1.53
0.36
-0.53
-1.32
-2.32
-3.84
-6.06
-8.87
-11.90
-14.63
-16.66
-17.84
-18.30
-18.38
-18.44
-18.70
-19.16
-19.59
-19.64
-18.99
-17.48
-15.20
-12.48
-9.82
-7.71
-6.47
-6.16
-6.54
-7.18
-7.64
-7.61
-7.01
-6.02
-4.94
-4.07
-3.55
-3.36
-3.31
-3.20
-2.93
-2.46
-1.87
-1.25
-0.64
-0.05
0.53
1.07
1.51
1.77
1.80
1.61
1.24
0.75
0.18
-0.39
-0.91
-1.26
-1.38
-1.23
-0.89
-0.47
-0.09
0.13
0.13
-0.08
-0.41
-0.71
-0.83
-0.65
-0.13
0.62
1.40
2.00
2.28
2.22
1.96
1.66
1.45
1.41
1.57
1.89
2.35
2.86
3.31
3.57
3.59
3.39
3.08
2.79
2.59
2.46
2.33
2.18
2.02
1.93
1.93
2.01
2.05
1.96
1.71
1.39
1.18
1.26
1.71
2.49
3.40
4.22
4.71
4.74
4.30
3.51
2.62
1.89
1.58
1.80
2.52
3.59
4.79
5.93
6.88
7.67
8.35
9.02
9.68
10.24
10.44
10.01
8.69
6.39
3.27
-0.22
-3.50
-6.04
-7.61
-8.39
-8.94
-10.02
-12.26
-15.86
-20.50
-25.39
-29.54
-32.12
-32.71
-31.48
-29.03
-26.03
-22.89
-19.53
-15.50
-10.27
-3.70
3.80
11.36
18.11
23.51
27.62
30.95
34.06
37.20
40.14
42.21
42.54
40.35
35.18
26.98
16.25
4.04
-8.24
-19.21
-27.87
-34.01
-38.21
-41.47
-44.68
-47.89
-50.20
-49.86
-45.12
-35.01
-19.86
-1.32
18.20
36.34
51.41
62.59
69.76
73.05
72.58
68.38
60.63
49.98
37.59
25.00
13.71
4.75
-1.56
-5.60
-8.21
-10.32
-12.57
-15.19
-17.94
-20.43
-22.30
-23.48
-24.12
-24.49
-24.82
-25.12
-25.25
-24.96
-24.08
-22.61
-20.73
-18.78
-17.08
-15.88
-15.28
-15.17
-15.32
-15.41
-15.21
-14.64
-13.74
-12.69
-11.68
-10.79
-10.01
-9.25
-8.38
-7.35
-6.19
-5.02
-3.92
-2.94
-2.06
-1.20
-0.26
0.78
1.86
2.80
3.38
3.46
2.99
2.10
1.00
-0.07
-0.91
-1.44
-1.62
-1.47
-1.07
-0.59
-0.23
-0.21
-0.68
-1.67
-3.04
-4.51
-5.81
-6.71
-7.16
-7.18
-6.92
-6.53
-6.19
-6.03
-6.21
-6.80
-7.70
-8.62
-9.10
-8.64
-6.94
-4.02
-0.26
3.81
7.75
11.44
15.01
18.67
22.43
26.03
29.03
31.11
32.23
32.64
32.68
32.53
32.10
31.12
29.37
26.86
23.87
20.84
18.14
15.96
14.24
12.85
11.59
10.33
8.97
7.45
5.79
4.09
2.48
1.14
0.17
-0.47
-0.91
-1.40
-2.17
-3.36
-5.01
-6.99
-9.05
-10.89
-12.24
-12.93
-12.97
-12.54
-11.92
-11.40
-11.14
-11.19
-11.48
-11.91
-12.45
-13.09
-13.79
-14.50
-15.08
-15.41
-15.42
-15.11
-14.54
-13.72
-12.66
-11.32
-9.68
-7.78
-5.71
-3.59
-1.60
0.14
1.52
2.50
3.08
3.34
3.37
3.28
3.15
3.06
3.07
3.21
3.51
3.97
4.49
4.90
5.04
4.79
4.18
3.37
2.62
2.14
1.95
1.89
1.68
1.08
0.06
-1.13
-2.03
-2.20
-1.43
0.15
2.06
3.69
4.56
4.49
3.65
2.44
1.28
0.47
0.10
0.12
0.35
0.56
0.52
0.07
-0.87
-2.18
-3.57
-4.66
-5.16
-5.03
-4.56
-4.24
-4.50
-5.47
-6.89
-8.23
-8.89
-8.53
-7.22
-5.39
-3.75
-3.02
-3.73
-6.07
-9.74
-13.99
-17.81
-20.16
-20.27
-17.85
-13.20
-7.05
-0.34
6.02
11.51
16.18
20.64
25.84
32.46
40.36
48.43
54.86
58.00
57.19
53.17
47.70
42.62
38.89
36.19
33.31
29.02
22.87
15.34
7.55
0.48
-5.41
-10.26
-14.45
-18.20
-21.42
-23.85
-25.29
-25.91
-26.19
-26.74
-28.00
-30.03
-32.48
-34.73
-36.08
-36.01
-34.33
-31.17
-26.99
-22.40
-18.03
-14.39
-11.76
-10.16
-9.30
-8.74
-8.01
-6.84
-5.26
-3.60
-2.35
-1.95
-2.48
-3.72
-5.08
-5.87
-5.55
-3.90
-1.11
2.35
5.88
8.94
11.26
12.85
13.95
14.86
15.82
16.95
18.25
19.69
21.31
23.15
25.20
27.30
29.16
30.40
30.72
29.91
27.86
24.49
19.75
13.68
6.57
-0.96
-8.07
-13.89
-17.85
-19.89
-20.43
-20.17
-19.76
-19.53
-19.40
-18.93
-17.57
-14.90
-10.84
-5.61
0.27
6.19
11.60
16.06
19.28
21.06
21.30
20.05
17.53
14.07
10.02
5.58
0.70
-4.84
-11.24
-18.47
-26.13
-33.46
-39.61
-43.86
-45.87
-45.78
-44.14
-41.80
-39.77
-39.13
-40.66
-44.37
-48.98
-51.85
-49.54
-39.16
-19.82
6.55
35.52
61.66
80.51
89.97
90.51
84.40
74.33
62.37
49.74
37.20
25.42
15.26
7.43
2.20
-0.84
-2.55
-3.90
-5.53
-7.59
-9.78
-11.55
-12.43
-12.22
-11.08
-9.50
-8.11
-7.44
-7.70
-8.75
-10.17
-11.41
-12.06
-11.94
-11.18
-10.08
-8.91
-7.83
-6.79
-5.63
-4.24
-2.66
-1.13
0.03
0.57
0.40
-0.30
-1.22
-2.04
-2.57
-2.80
-2.89
-3.04
-3.36
-3.88
-4.47
-5.01
-5.41
-5.66
-5.84
-6.05
-6.34
-6.73
-7.23
-7.80
-8.40
-8.93
-9.22
-9.09
-8.40
-7.14
-5.47
-3.67
-2.01
-0.69
0.29
1.12
2.02
3.21
4.75
6.46
8.02
9.07
9.37
8.92
7.98
6.95
6.18
5.81
5.77
5.81
5.74
5.52
5.25
5.08
5.05
5.08
4.97
4.56
3.81
2.85
1.90
1.21
0.90
0.94
1.18
1.44
1.54
1.37
0.88
0.10
-0.88
-1.88
-2.71
-3.20
-3.28
-3.02
-2.55
-2.04
-1.59
-1.21
-0.83
-0.38
0.17
0.73
1.14
1.23
0.87
0.10
-0.90
-1.81
-2.33
-2.30
-1.76
-0.99
-0.31
0.04
-0.01
-0.32
-0.71
-1.06
-1.38
-1.77
-2.26
-2.77
-3.12
-3.14
-2.78
-2.16
-1.48
-0.89
-0.38
0.18
0.98
2.14
3.62
5.23
6.69
7.74
8.21
8.06
7.39
6.45
5.53
4.94
4.80
5.08
5.55
5.95
6.09
5.92
5.53
5.02
4.46
3.83
3.09
2.29
1.54
1.03
0.93
1.24
1.87
2.62
3.31
3.88
4.33
4.74
5.15
5.56
5.89
6.12
6.30
6.51
6.86
7.36
7.90
8.33
8.51
8.44
8.22
8.01
7.92
7.96
8.03
7.96
7.65
7.03
6.06
4.67
2.70
-0.00
-3.56
-7.96
-13.02
-18.40
-23.64
-28.28
-31.91
-34.26
-35.25
-35.02
-33.95
-32.65
-31.79
-31.90
-33.09
-34.82
-35.88
-34.75
-30.07
-21.28
-8.95
5.30
19.25
30.79
38.55
42.07
41.78
38.62
33.64
27.79
21.80
16.18
11.25
7.09
3.60
0.59
-2.16
-4.69
-6.79
-8.05
-7.94
-6.06
-2.25
3.18
9.56
15.97
21.48
25.36
27.26
27.19
25.49
22.69
19.32
15.86
12.57
9.53
6.72
4.06
1.48
-1.06
-3.65
-6.33
-9.14
-12.00
-14.73
-17.07
-18.79
-19.72
-19.86
-19.23
-17.87
-15.79
-13.06
-9.89
-6.68
-3.97
-2.19
-1.58
-2.03
-3.15
-4.44
-5.44
-5.88
-5.68
-4.94
-3.88
-2.76
-1.78
-1.11
-0.80
-0.81
-1.07
-1.46
-1.86
-2.19
-2.37
-2.36
-2.15
-1.80
-1.37
-0.99
-0.76
-0.72
-0.86
-1.06
-1.18
-1.06
-0.59
0.25
1.38
2.61
3.72
4.53
4.97
5.06
4.91
4.63
4.27
3.82
3.24
2.55
1.79
1.06
0.47
0.02
-0.35
-0.73
-1.19
-1.73
-2.28
-2.75
-3.04
-3.11
-2.99
-2.77
-2.58
-2.54
-2.70
-3.03
-3.44
-3.76
-3.89
-3.78
-3.48
-3.09
-2.71
-2.42
-2.25
-2.19
-2.22
-2.32
-2.43
-2.52
-2.55
-2.56
-2.61
-2.75
-3.02
-3.34
-3.59
-3.62
-3.32
-2.69
-1.81
-0.83
0.12
0.95
1.64
2.20
2.65
2.98
3.12
3.08
2.90
2.77
2.91
3.52
4.68
6.29
8.13
9.96
11.58
12.87
13.75
14.20
14.28
14.16
14.16
14.63
15.78
17.54
19.48
20.95
21.31
20.13
17.34
13.20
8.18
2.84
-2.32
-6.92
-10.78
-13.88
-16.36
-18.36
-19.94
-21.07
-21.62
-21.45
-20.54
-18.99
-17.02
-14.82
-12.46
-9.88
-6.99
-3.75
-0.32
3.00
5.81
7.81
8.85
8.99
8.46
7.53
6.49
5.60
5.03
4.91
5.24
5.82
6.34
6.37
5.57
3.88
1.51
-1.06
-3.34
-5.02
-6.12
-6.96
-8.01
-9.60
-11.85
-14.59
-17.49
-20.17
-22.27
-23.42
-23.30
-21.63
-18.43
-14.16
-9.73
-6.19
-4.20
-3.51
-2.95
-0.75
4.55
13.35
24.64
36.25
45.66
50.90
51.16
46.82
39.14
29.75
20.18
11.70
5.17
1.01
-0.82
-0.82
0.13
1.07
1.18
0.00
-2.46
-5.87
-9.75
-13.63
-17.16
-20.18
-22.61
-24.41
-25.51
-25.88
-25.55
-24.72
-23.72
-23.02
-23.16
-24.51
-27.14
-30.55
-33.62
-34.70
-32.08
-24.52
-11.90
4.56
22.50
38.99
51.39
58.03
58.54
53.71
45.15
34.69
23.94
14.05
5.66
-1.04
-6.13
-9.84
-12.41
-14.08
-15.10
-15.72
-16.15
-16.47
-16.66
-16.54
-15.92
-14.72
-13.05
-11.19
-9.43
-7.95
-6.76
-5.66
-4.39
-2.76
-0.73
1.57
3.93
6.10
7.94
9.37
10.38
10.99
11.29
11.35
11.27
11.10
10.84
10.48
9.98
9.30
8.44
7.38
6.09
4.53
2.72
0.76
-1.14
-2.75
-3.89
-4.51
-4.73
-4.77
-4.82
-4.98
-5.22
-5.44
-5.58
-5.71
-5.95
-6.45
-7.25
-8.25
-9.19
-9.78
-9.77
-9.06
-7.77
-6.14
-4.46
-2.97
-1.77
-0.88
-0.29
0.04
0.15
0.10
-0.01
-0.04
0.13
0.53
1.11
1.69
2.05
2.06
1.66
0.94
0.06
-0.74
-1.24
-1.31
-0.94
-0.28
0.38
0.80
0.89
0.84
1.04
1.86
3.38
5.22
6.59
6.57
4.52
0.36
-5.33
-11.44
-16.69
-20.07
-21.03
-19.71
-16.82
-13.43
-10.71
-9.63
-10.70
-13.73
-17.64
-20.52
-20.06
-14.25
-2.29
14.86
34.57
53.26
67.59
75.45
76.42
71.42
62.09
50.06
36.62
22.81
9.60
-1.98
-10.94
-16.65
-19.11
-18.95
-17.22
-15.06
-13.29
-12.29
-11.92
-11.80
-11.60
-11.21
-10.79
-10.60
-10.75
-11.09
-11.34
-11.18
-10.56
-9.64
-8.72
-8.06
-7.69
-7.52
-7.37
-7.21
-7.11
-7.25
-7.78
-8.67
-9.72
-10.61
-10.98
-10.59
-9.40
-7.55
-5.32
-3.03
-0.92
0.88
2.35
3.48
4.27
4.69
4.71
4.35
3.70
2.86
1.93
0.96
-0.03
-1.02
-1.95
-2.74
-3.23
-3.27
-2.73
-1.62
-0.13
1.35
2.37
2.60
1.98
0.81
-0.36
-1.00
-0.78
0.28
1.88
3.60
5.09
6.16
6.80
7.12
7.26
7.37
7.56
7.87
8.30
8.79
9.33
9.88
10.49
11.20
11.99
12.78
13.47
14.02
14.49
14.95
15.41
15.69
15.48
14.51
12.77
10.52
8.19
6.04
3.95
1.42
-2.06
-6.64
-11.89
-16.83
-20.40
-21.91
-21.21
-18.69
-14.98
-10.64
-6.07
-1.58
2.51
5.85
8.14
9.24
9.29
8.57
7.45
6.19
4.95
3.79
2.73
1.75
0.81
-0.18
-1.30
-2.55
-3.78
-4.73
-5.17
-5.03
-4.46
-3.74
-3.13
-2.75
-2.50
-2.20
-1.69
-0.99
-0.25
0.30
0.55
0.51
0.29
-0.00
-0.41
-1.04
-2.07
-3.51
-5.20
-6.79
-7.88
-8.22
-7.76
-6.64
-5.15
-3.56
-2.13
-1.04
-0.40
-0.26
-0.57
-1.13
-1.72
-2.12
-2.21
-1.96
-1.46
-0.83
-0.18
0.37
0.68
0.65
0.27
-0.37
-1.07
-1.62
-1.92
-1.97
-1.88
-1.80
-1.78
-1.80
-1.77
-1.63
-1.41
-1.22
-1.19
-1.38
-1.75
-2.14
-2.38
-2.35
-2.08
-1.65
-1.19
-0.79
-0.46
-0.20
-0.02
0.08
0.07
-0.01
-0.09
-0.09
0.06
0.34
0.72
1.14
1.57
2.00
2.42
2.85
3.27
3.67
4.04
4.37
4.61
4.72
4.64
4.35
3.90
3.37
2.86
2.51
2.41
2.62
3.09
3.64
4.05
4.13
3.82
3.19
2.43
1.68
1.05
0.51
0.02
-0.40
-0.71
-0.83
-0.78
-0.66
-0.68
-1.00
-1.62
-2.43
-3.17
-3.64
-3.72
-3.47
-3.04
-2.65
-2.46
-2.55
-2.91
-3.46
-4.11
-4.75
-5.27
-5.57
-5.58
-5.25
-4.62
-3.84
-3.15
-2.81
-2.99
-3.71
-4.81
-6.06
-7.23
-8.31
-9.36
-10.54
-11.90
-13.24
-14.19
-14.31
-13.33
-11.32
-8.80
-6.50
-5.10
-4.98
-6.06
-7.90
-9.90
-11.49
-12.30
-12.15
-10.98
-8.87
-5.99
-2.70
0.55
3.32
5.36
6.77
7.92
9.24
11.01
13.22
15.62
17.86
19.74
21.24
22.46
23.52
24.43
25.07
25.24
24.77
23.59
21.76
19.46
16.96
14.55
12.50
11.01
10.17
9.97
10.26
10.85
11.55
12.21
12.72
13.07
13.27
13.39
13.51
13.74
14.12
14.68
15.37
16.17
17.09
18.20
19.71
21.82
24.71
28.36
32.46
36.38
39.27
40.35
39.25
36.20
32.08
28.12
25.47
24.80
26.15
28.94
32.11
34.21
33.46
27.99
16.37
-1.76
-25.16
-51.03
-75.70
-95.81
-109.29
-115.88
-116.71
-113.46
-107.60
-100.11
-91.68
-83.10
-75.35
-69.19
-64.61
-60.43
-54.57
-44.98
-30.62
-12.25
7.70
25.98
39.78
47.66
49.89
47.97
43.80
38.89
33.94
29.00
23.87
18.59
13.55
9.43
6.78
5.73
5.92
6.61
7.08
6.91
6.09
4.95
3.91
3.30
3.20
3.46
3.81
3.97
3.80
3.34
2.72
2.12
1.58
0.97
0.06
-1.40
-3.45
-5.85
-8.15
-9.82
-10.51
-10.22
-9.33
-8.44
-8.17
-8.86
-10.44
-12.45
-14.17
-14.96
-14.45
-12.72
-10.24
-7.66
-5.52
-4.09
-3.26
-2.68
-1.91
-0.64
1.24
3.61
6.21
8.74
10.88
12.37
13.02
12.75
11.63
9.90
7.94
6.11
4.64
3.52
2.58
1.61
0.46
-0.81
-2.01
-2.91
-3.35
-3.25
-2.64
-1.62
-0.35
0.99
2.23
3.19
3.78
4.00
3.95
3.79
3.64
3.61
3.72
3.96
4.25
4.45
4.45
4.18
3.64
2.95
2.26
1.70
1.31
0.99
0.56
-0.14
-1.16
-2.37
-3.47
-4.08
-3.90
-2.76
-0.79
1.67
4.13
6.16
7.50
8.11
8.13
7.81
7.36
6.91
6.48
6.08
5.73
5.47
5.36
5.45
5.74
6.17
6.68
7.23
7.78
8.32
8.81
9.21
9.43
9.47
9.31
9.00
8.57
8.00
7.17
5.95
4.23
2.02
-0.45
-2.84
-4.70
-5.69
-5.69
-4.83
-3.51
-2.16
-1.14
-0.55
-0.25
-0.07
-0.01
-0.41
-1.86
-4.88
-9.56
-15.39
-21.31
-26.15
-29.08
-29.85
-28.87
-26.88
-24.63
-22.72
-21.48
-21.08
-21.45
-22.16
-22.35
-20.78
-16.24
-8.06
3.43
16.79
29.87
40.48
47.03
48.97
46.72
41.39
34.27
26.53
19.03
12.32
6.73
2.38
-0.74
-2.84
-4.19
-5.13
-5.96
-6.81
-7.67
-8.31
-8.48
-8.01
-6.96
-5.67
-4.65
-4.32
-4.81
-5.91
-7.15
-8.02
-8.15
-7.49
-6.28
-4.89
-3.73
-3.05
-2.95
-3.29
-3.82
-4.22
-4.25
-3.82
-2.99
-1.94
-0.86
0.14
0.98
1.68
2.20
2.51
2.59
2.48
2.27
2.09
2.04
2.14
2.36
2.61
2.81
2.88
2.76
2.44
1.98
1.47
1.04
0.82
0.85
1.13
1.57
2.08
2.53
2.84
2.91
2.70
2.23
1.58
0.93
0.46
0.26
0.35
0.61
0.88
1.03
1.03
0.95
0.90
0.98
1.15
1.31
1.30
0.98
0.37
-0.42
-1.23
-1.89
-2.33
-2.64
-2.92
-3.28
-3.72
-4.18
-4.53
-4.64
-4.47
-4.03
-3.34
-2.49
-1.53
-0.56
0.32
1.04
1.54
1.83
1.96
1.98
1.98
2.02
2.15
2.43
2.89
3.48
4.15
4.77
5.24
5.46
5.37
5.00
4.40
3.73
3.15
2.81
2.75
2.89
3.01
2.94
2.61
2.09
1.57
1.24
1.16
1.29
1.51
1.70
1.81
1.84
1.82
1.74
1.58
1.28
0.85
0.31
-0.26
-0.78
-1.20
-1.46
-1.61
-1.69
-1.79
-2.02
-2.45
-3.09
-3.86
-4.64
-5.30
-5.74
-5.91
-5.80
-5.44
-4.88
-4.17
-3.41
-2.71
-2.16
-1.85
-1.80
-1.93
-2.07
-2.08
-1.84
-1.31
-0.57
0.26
1.01
1.61
2.01
2.25
2.41
2.57
2.79
3.11
3.52
3.99
4.43
4.75
4.88
4.80
4.57
4.30
4.13
4.09
4.11
4.03
3.66
2.89
1.75
0.41
-0.88
-1.90
-2.51
-2.68
-2.50
-2.11
-1.65
-1.24
-0.97
-0.91
-1.09
-1.54
-2.23
-3.07
-3.88
-4.44
-4.56
-4.16
-3.30
-2.17
-1.03
-0.11
0.45
0.68
0.67
0.57
0.51
0.54
0.66
0.85
1.07
1.29
1.49
1.63
1.65
1.51
1.19
0.78
0.38
0.09
0.01
0.11
0.34
0.61
0.85
1.01
1.05
0.97
0.79
0.55
0.31
0.11
-0.06
-0.21
-0.38
-0.57
-0.76
-0.93
-1.09
-1.24
-1.39
-1.50
-1.51
-1.38
-1.15
-0.94
-0.88
-1.11
-1.61
-2.30
-3.00
-3.58
-3.96
-4.11
-4.08
-3.89
-3.62
-3.34
-3.11
-2.93
-2.76
-2.50
-2.06
-1.43
-0.68
0.02
0.49
0.68
0.63
0.51
0.51
0.73
1.14
1.61
1.98
2.14
2.07
1.85
1.57
1.33
1.16
1.09
1.15
1.37
1.75
2.26
2.80
3.21
3.38
3.27
2.98
2.64
2.41
2.33
2.34
2.30
2.10
1.69
1.11
0.51
0.00
-0.34
-0.49
-0.49
-0.32
-0.03
0.36
0.73
0.96
0.96
0.69
0.24
-0.23
-0.59
-0.73
-0.64
-0.33
0.11
0.63
1.17
1.66
2.08
2.38
2.57
2.64
2.59
2.40
2.02
1.36
0.36
-1.02
-2.74
-4.71
-6.73
-8.67
-10.43
-12.03
-13.56
-15.05
-16.43
-17.45
-17.79
-17.19
-15.58
-13.19
-10.43
-7.79
-5.71
-4.49
-4.19
-4.57
-5.10
-4.95
-3.29
0.44
6.26
13.41
20.59
26.32
29.44
29.48
26.72
22.01
16.35
10.62
5.39
0.96
-2.53
-5.02
-6.46
-6.87
-6.34
-5.07
-3.33
-1.37
0.63
2.55
4.26
5.60
6.30
6.11
4.93
2.86
0.32
-2.12
-3.91
-4.80
-4.92
-4.78
-5.08
-6.39
-8.94
-12.55
-16.80
-21.21
-25.54
-29.89
-34.64
-40.28
-47.11
-55.03
-63.39
-70.94
-75.92
-76.38
-70.79
-58.73
-41.41
-21.58
-2.70
12.23
21.81
26.71
29.17
31.90
36.79
44.29
53.50
63.01
71.66
79.12
85.74
92.04
98.11
103.31
106.24
105.13
98.49
85.65
67.16
44.82
21.25
-0.76
-18.86
-31.58
-38.41
-39.67
-36.25
-29.49
-21.00
-12.57
-5.91
-2.22
-1.94
-4.59
-9.03
-13.83
-17.83
-20.39
-21.52
-21.70
-21.55
-21.60
-22.05
-22.81
-23.52
-23.70
-22.92
-20.96
-17.87
-14.08
-10.28
-7.23
-5.52
-5.28
-6.18
-7.50
-8.48
-8.67
-8.09
-7.19
-6.59
-6.70
-7.48
-8.41
-8.77
-7.90
-5.57
-2.12
1.67
4.87
6.72
6.94
5.79
3.88
1.90
0.34
-0.62
-1.03
-1.04
-0.69
0.05
1.23
2.79
4.50
5.97
6.89
7.12
6.82
6.39
6.26
6.72
7.73
9.04
10.28
11.16
11.63
11.84
12.00
12.29
12.73
13.16
13.38
13.28
13.00
12.85
13.20
14.25
15.91
17.81
19.46
20.53
21.00
21.15
21.47
22.33
23.87
26.00
28.57
31.52
34.82
38.20
41.10
42.63
41.93
38.51
32.57
25.09
17.47
11.17
7.23
6.29
8.65
14.29
22.74
32.94
43.16
51.18
54.67
51.55
40.98
23.72
1.96
-21.30
-43.01
-60.70
-72.92
-79.59
-82.28
-83.02
-83.44
-84.51
-86.51
-89.46
-93.07
-97.03
-101.09
-105.76
-110.87
-115.37
-118.00
-118.15
-116.61
-114.74
-113.92
-114.78
-117.80
-121.59
-123.19
-119.43
-108.44
-90.60
-67.63
-41.78
-9.44
27.60
63.56
92.46
111.95
125.63
136.48
145.97
152.82
154.99
149.21
133.59
108.86
78.30
46.75
18.88
-1.53
-12.58
-14.48
-10.03
-2.26
6.57
15.07
22.23
26.84
28.08
25.83
20.96
14.62
8.65
5.00
4.83
7.92
12.60
16.83
18.97
18.40
15.19
10.28
4.97
0.46
-2.59
-4.18
-4.64
-4.47
-4.08
-3.88
-4.07
-4.59
-5.31
-6.04
-6.70
-7.26
-7.65
-7.79
-7.59
-7.01
-6.13
-5.16
-4.34
-3.87
-3.76
-3.92
-4.17
-4.41
-4.66
-4.98
-5.39
-5.76
-5.91
-5.70
-5.15
-4.47
-3.89
-3.57
-3.48
-3.44
-3.24
-2.76
-2.02
-1.13
-0.21
0.67
1.49
2.24
2.87
3.35
3.62
3.66
3.55
3.36
3.17
3.03
2.96
2.94
2.91
2.87
2.81
2.74
2.72
2.79
2.95
3.18
3.45
3.68
3.82
3.80
3.60
3.19
2.57
1.80
0.98
0.28
-0.14
-0.17
0.14
0.63
1.08
1.32
1.31
1.11
0.89
0.78
0.82
0.94
1.04
0.98
0.70
0.20
-0.47
-1.22
-1.88
-2.28
-2.27
-1.77
-0.85
0.31
1.48
2.43
3.00
3.15
2.93
2.46
1.94
1.52
1.37
1.53
1.93
2.38
2.66
2.55
1.93
0.85
-0.51
-1.89
-3.03
-3.73
-3.91
-3.63
-3.03
-2.33
-1.69
-1.27
-1.09
-1.14
-1.38
-1.73
-2.14
-2.56
-2.96
-3.29
-3.52
-3.66
-3.80
-4.08
-4.68
-5.72
-7.14
-8.72
-10.04
-10.69
-10.42
-9.33
-7.90
-6.80
-6.66
-7.83
-10.11
-12.87
-15.26
-16.52
-16.28
-14.67
-12.16
-9.41
-6.90
-4.86
-3.27
-1.94
-0.65
0.78
2.50
4.56
6.79
8.73
9.59
8.60
5.51
1.10
-2.74
-3.71
-0.04
8.48
20.28
32.63
42.87
49.62
53.31
55.67
58.66
63.21
68.55
72.40
71.90
64.87
50.75
30.92
8.25
-13.85
-32.36
-45.31
-51.87
-52.13
-46.64
-36.36
-22.69
-7.63
6.38
16.92
22.32
22.15
17.36
9.81
1.59
-5.66
-11.13
-14.84
-17.33
-19.26
-21.06
-22.82
-24.31
-25.16
-25.07
-23.95
-21.96
-19.45
-16.83
-14.43
-12.37
-10.66
-9.21
-7.87
-6.54
-5.13
-3.61
-2.01
-0.45
0.94
2.03
2.75
3.16
3.34
3.42
3.45
3.43
3.30
3.03
2.61
2.15
1.77
1.60
1.71
2.10
2.68
3.27
3.70
3.85
3.71
3.38
3.05
2.87
2.90
3.06
3.16
3.01
2.53
1.79
0.99
0.30
-0.14
-0.36
-0.46
-0.54
-0.65
-0.76
-0.84
-0.90
-1.02
-1.25
-1.60
-1.99
-2.24
-2.22
-1.90
-1.38
-0.81
-0.32
0.01
0.18
0.22
0.19
0.14
0.13
0.24
0.48
0.79
1.06
1.20
1.18
1.11
1.08
1.19
1.38
1.52
1.50
1.32
1.10
1.01
1.13
1.44
1.83
2.17
2.36
2.41
2.35
2.19
1.94
1.63
1.31
1.02
0.83
0.74
0.75
0.81
0.92
1.08
1.26
1.38
1.35
1.05
0.46
-0.36
-1.22
-1.94
-2.39
-2.56
-2.47
-2.22
-1.87
-1.45
-0.99
-0.54
-0.18
0.03
0.06
-0.03
-0.16
-0.23
-0.21
-0.12
0.02
0.13
0.17
0.09
-0.10
-0.37
-0.61
-0.72
-0.58
-0.19
0.32
0.77
1.00
0.97
0.77
0.62
0.65
0.88
1.18
1.36
1.26
0.90
0.40
-0.05
-0.31
-0.40
-0.43
-0.56
-0.89
-1.37
-1.89
-2.28
-2.48
-2.53
-2.53
-2.64
-2.93
-3.36
-3.80
-4.14
-4.28
-4.22
-4.02
-3.71
-3.30
-2.78
-2.10
-1.29
-0.43
0.38
1.05
1.54
1.88
2.18
2.53
2.97
3.43
3.81
4.01
4.09
4.20
4.59
5.40
6.56
7.75
8.54
8.57
7.81
6.51
5.07
3.83
2.85
1.96
0.90
-0.44
-1.92
-3.21
-4.02
-4.25
-4.06
-3.77
-3.71
-3.99
-4.49
-4.98
-5.22
-5.12
-4.79
-4.39
-4.06
-3.85
-3.72
-3.61
-3.53
-3.51
-3.59
-3.70
-3.72
-3.53
-3.09
-2.47
-1.85
-1.37
-1.04
-0.75
-0.35
0.20
0.81
1.27
1.35
0.96
0.15
-0.93
-2.09
-3.18
-4.06
-4.62
-4.74
-4.31
-3.33
-1.91
-0.30
1.16
2.20
2.66
2.54
2.04
1.40
0.91
0.79
1.11
1.82
2.74
3.65
4.33
4.70
4.74
4.54
4.19
3.76
3.29
2.80
2.30
1.82
1.38
0.98
0.61
0.26
-0.13
-0.57
-1.04
-1.49
-1.85
-2.06
-2.09
-1.99
-1.84
-1.70
-1.55
-1.39
-1.17
-0.88
-0.61
-0.45
-0.46
-0.62
-0.85
-1.02
-1.01
-0.79
-0.36
0.20
0.78
1.28
1.56
1.56
1.27
0.75
0.15
-0.39
-0.77
-0.91
-0.82
-0.53
-0.13
0.28
0.53
0.52
0.21
-0.33
-0.96
-1.50
-1.84
-1.95
-1.84
-1.57
-1.15
-0.61
-0.01
0.57
0.97
1.06
0.79
0.24
-0.45
-1.06
-1.43
-1.53
-1.46
-1.41
-1.59
-2.09
-2.82
-3.57
-4.09
-4.21
-3.93
-3.37
-2.68
-1.99
-1.32
-0.64
0.07
0.75
1.31
1.69
1.86
1.90
1.89
1.87
1.83
1.73
1.57
1.39
1.26
1.22
1.27
1.35
1.42
1.49
1.62
1.89
2.31
2.81
3.26
3.55
3.61
3.49
3.25
2.95
2.58
2.15
1.68
1.26
0.97
0.88
0.96
1.11
1.18
1.01
0.55
-0.20
-1.13
-2.12
-3.00
-3.65
-3.97
-3.99
-3.78
-3.45
-3.11
-2.82
-2.58
-2.37
-2.20
-2.07
-2.02
-2.08
-2.23
-2.40
-2.51
-2.47
-2.25
-1.83
-1.19
-0.38
0.56
1.53
2.38
2.98
3.21
3.10
2.78
2.45
2.31
2.44
2.80
3.25
3.58
3.67
3.47
3.04
2.47
1.84
1.19
0.54
-0.10
-0.68
-1.15
-1.47
-1.65
-1.76
-1.84
-1.94
-2.00
-1.96
-1.79
-1.55
-1.39
-1.50
-1.95
-2.69
-3.53
-4.20
-4.50
-4.38
-3.89
-3.21
-2.52
-1.93
-1.48
-1.14
-0.85
-0.53
-0.16
0.23
0.61
0.88
1.02
1.02
0.96
0.88
0.84
0.85
0.91
1.01
1.15
1.33
1.56
1.79
1.96
1.97
1.77
1.40
0.97
0.66
0.60
0.79
1.12
1.41
1.53
1.43
1.20
0.95
0.79
0.73
0.72
0.68
0.56
0.34
0.07
-0.23
-0.50
-0.72
-0.89
-1.06
-1.28
-1.60
-2.00
-2.41
-2.71
-2.84
-2.78
-2.59
-2.34
-2.08
-1.80
-1.47
-1.07
-0.58
-0.06
0.45
0.91
1.30
1.62
1.88
2.10
2.33
2.59
2.93
3.32
3.72
4.06
4.34
4.54
4.70
4.84
4.93
4.95
4.85
4.58
4.15
3.58
2.95
2.35
1.87
1.56
1.40
1.38
1.45
1.56
1.67
1.72
1.65
1.40
0.95
0.33
-0.38
-1.08
-1.69
-2.20
-2.60
-2.92
-3.16
-3.35
-3.49
-3.63
-3.78
-3.96
-4.15
-4.33
-4.47
-4.52
-4.44
-4.15
-3.61
-2.87
-2.00
-1.15
-0.45
0.02
0.27
0.37
0.40
0.45
0.55
0.73
0.96
1.22
1.47
1.66
1.77
1.83
1.90
2.07
2.37
2.80
3.25
3.61
3.81
3.82
3.68
3.48
3.26
3.05
2.88
2.74
2.65
2.61
2.60
2.53
2.33
1.93
1.37
0.74
0.18
-0.21
-0.45
-0.63
-0.87
-1.21
-1.60
-1.93
-2.09
-2.12
-2.15
-2.30
-2.62
-3.06
-3.46
-3.73
-3.87
-3.97
-4.15
-4.41
-4.64
-4.65
-4.32
-3.59
-2.60
-1.52
-0.57
0.13
0.53
0.67
0.66
0.62
0.64
0.77
1.03
1.35
1.68
1.95
2.16
2.28
2.33
2.33
2.30
2.25
2.20
2.13
2.07
2.06
2.13
2.33
2.66
3.07
3.42
3.60
3.50
3.10
2.46
1.71
0.99
0.43
0.12
0.03
0.03
-0.11
-0.70
-1.93
-3.80
-6.08
-8.26
-9.83
-10.45
-10.10
-9.18
-8.31
-8.06
-8.76
-10.31
-12.21
-13.75
-14.20
-13.07
-10.23
-6.00
-1.17
3.10
5.49
5.01
1.48
-4.16
-9.95
-13.58
-13.39
-9.10
-2.03
5.53
11.38
14.43
15.14
15.19
16.59
20.74
27.87
37.04
46.47
54.07
57.89
56.51
49.35
36.84
20.42
2.33
-14.85
-28.77
-37.72
-40.93
-38.63
-31.81
-22.03
-11.05
-0.58
7.97
13.70
16.30
16.09
13.82
10.45
6.85
3.58
0.89
-1.32
-3.29
-5.27
-7.46
-9.91
-12.50
-14.95
-16.87
-17.88
-17.76
-16.62
-14.87
-13.11
-11.82
-11.19
-11.02
-10.88
-10.36
-9.31
-7.87
-6.41
-5.31
-4.77
-4.72
-4.90
-4.98
-4.72
-4.08
-3.14
-2.08
-1.04
-0.13
0.63
1.19
1.51
1.55
1.28
0.79
0.21
-0.28
-0.52
-0.45
-0.09
0.45
1.02
1.47
1.67
1.53
1.02
0.17
-0.95
-2.16
-3.28
-4.13
-4.64
-4.91
-5.13
-5.50
-6.13
-6.95
-7.75
-8.27
-8.35
-7.91
-6.98
-5.69
-4.12
-2.42
-0.75
0.73
1.83
2.44
2.56
2.34
1.96
1.61
1.39
1.29
1.25
1.25
1.33
1.58
2.09
2.86
3.78
4.62
5.19
5.44
5.47
5.49
5.71
6.16
6.71
7.19
7.44
7.47
7.36
7.21
7.08
6.92
6.63
6.18
5.64
5.15
4.80
4.63
4.53
4.41
4.17
3.85
3.51
3.27
3.14
3.07
2.91
2.55
1.93
1.13
0.29
-0.41
-0.85
-1.03
-1.03
-0.95
-0.87
-0.80
-0.70
-0.52
-0.26
0.02
0.26
0.42
0.50
0.57
0.68
0.84
0.96
0.97
0.81
0.51
0.17
-0.09
-0.21
-0.22
-0.21
-0.30
-0.56
-1.00
-1.53
-2.09
-2.61
-3.04
-3.35
-3.52
-3.54
-3.42
-3.23
-3.11
-3.15
-3.40
-3.81
-4.22
-4.47
-4.41
-4.07
-3.60
-3.19
-3.01
-3.12
-3.42
-3.76
-3.93
-3.80
-3.30
-2.50
-1.49
-0.40
0.64
1.52
2.18
2.56
2.64
2.48
2.20
1.93
1.80
1.87
2.10
2.40
2.65
2.78
2.82
2.83
2.90
3.08
3.35
3.65
3.91
4.03
3.98
3.77
3.48
3.20
2.98
2.80
2.62
2.33
1.90
1.35
0.71
0.03
-0.65
-1.30
-1.84
-2.20
-2.30
-2.14
-1.87
-1.66
-1.71
-2.12
-2.81
-3.57
-4.13
-4.32
-4.08
-3.50
-2.80
-2.16
-1.72
-1.49
-1.38
-1.26
-1.04
-0.67
-0.20
0.30
0.76
1.14
1.45
1.70
1.92
2.15
2.40
2.66
2.92
3.14
3.25
3.24
3.10
2.85
2.56
2.30
2.14
2.08
2.14
2.27
2.42
2.57
2.72
2.86
2.98
3.02
2.89
2.53
1.94
1.17
0.35
-0.42
-1.03
-1.48
-1.87
-2.27
-2.73
-3.23
-3.69
-4.04
-4.26
-4.37
-4.42
-4.44
-4.36
-4.08
-3.53
-2.76
-1.89
-1.17
-0.79
-0.78
-1.05
-1.37
-1.55
-1.47
-1.11
-0.53
0.14
0.81
1.40
1.84
2.12
2.25
2.25
2.17
2.07
1.98
1.91
1.88
1.87
1.86
1.85
1.82
1.76
1.68
1.60
1.53
1.45
1.32
1.13
0.88
0.60
0.35
0.17
0.04
-0.09
-0.27
-0.52
-0.77
-0.94
-0.98
-0.92
-0.89
-1.03
-1.45
-2.10
-2.80
-3.34
-3.57
-3.52
-3.31
-3.08
-2.91
-2.74
-2.46
-2.01
-1.42
-0.85
-0.44
-0.28
-0.30
-0.37
-0.36
-0.20
0.05
0.32
0.54
0.68
0.81
0.96
1.20
1.51
1.85
2.14
2.33
2.39
2.33
2.14
1.86
1.51
1.15
0.81
0.54
0.37
0.36
0.54
0.93
1.50
2.17
2.78
3.15
3.17
2.86
2.34
1.80
1.35
1.00
0.65
0.16
-0.52
-1.27
-1.94
-2.37
-2.54
-2.53
-2.47
-2.46
-2.53
-2.60
-2.60
-2.48
-2.26
-1.99
-1.73
-1.49
-1.22
-0.91
-0.52
-0.08
0.36
0.75
1.06
1.29
1.47
1.64
1.82
1.99
2.12
2.20
2.24
2.27
2.31
2.38
2.46
2.48
2.37
2.09
1.63
1.10
0.62
0.34
0.30
0.47
0.68
0.78
0.66
0.34
-0.06
-0.42
-0.65
-0.78
-0.85
-0.93
-1.02
-1.13
-1.30
-1.61
-2.14
-2.90
-3.76
-4.51
-4.90
-4.80
-4.24
-3.40
-2.52
-1.82
-1.36
-1.10
-0.90
-0.66
-0.31
0.12
0.54
0.87
1.09
1.22
1.33
1.48
1.66
1.81
1.87
1.79
1.64
1.47
1.39
1.42
1.54
1.67
1.76
1.80
1.81
1.88
2.01
2.20
2.36
2.39
2.20
1.80
1.26
0.67
0.19
-0.08
-0.12
0.04
0.28
0.46
0.48
0.28
-0.13
-0.70
-1.36
-2.06
-2.78
-3.46
-4.03
-4.39
-4.44
-4.17
-3.63
-2.98
-2.37
-1.93
-1.63
-1.39
-1.07
-0.63
-0.11
0.31
0.51
0.42
0.14
-0.15
-0.29
-0.19
0.08
0.40
0.65
0.77
0.79
0.77
0.75
0.76
0.78
0.80
0.81
0.82
0.87
0.95
1.04
1.13
1.16
1.12
1.00
0.82
0.61
0.43
0.34
0.36
0.47
0.59
0.61
0.44
0.03
-0.59
-1.35
-2.15
-2.91
-3.54
-3.93
-4.02
-3.77
-3.24
-2.56
-1.88
-1.32
-0.88
-0.46
0.02
0.60
1.22
1.71
1.91
1.78
1.39
0.91
0.55
0.48
0.73
1.22
1.80
2.28
2.53
2.51
2.31
2.06
1.85
1.74
1.69
1.63
1.50
1.26
0.97
0.70
0.51
0.43
0.43
0.45
0.44
0.34
0.13
-0.15
-0.44
-0.70
-0.90
-1.06
-1.22
-1.41
-1.61
-1.78
-1.90
-2.00
-2.15
-2.40
-2.74
-3.11
-3.40
-3.50
-3.37
-3.01
-2.48
-1.85
-1.18
-0.52
0.07
0.54
0.88
1.11
1.26
1.36
1.41
1.42
1.37
1.34
1.38
1.57
1.87
2.20
2.44
2.50
2.40
2.22
2.08
2.08
2.18
2.32
2.38
2.32
2.16
1.94
1.70
1.41
1.03
0.56
0.07
-0.31
-0.48
-0.43
-0.26
-0.15
-0.19
-0.39
-0.66
-0.89
-1.09
-1.32
-1.74
-2.41
-3.31
-4.28
-5.11
-5.63
-5.75
-5.50
-5.00
-4.39
-3.82
-3.39
-3.07
-2.80
-2.48
-2.02
-1.42
-0.72
-0.02
0.59
1.04
1.31
1.36
1.21
0.89
0.48
0.10
-0.11
-0.09
0.21
0.70
1.28
1.82
2.24
2.50
2.60
2.59
2.53
2.48
2.45
2.45
2.43
2.38
2.28
2.14
2.02
1.92
1.83
1.73
1.58
1.37
1.13
0.87
0.61
0.34
0.02
-0.35
-0.75
-1.15
-1.50
-1.84
-2.22
-2.72
-3.32
-3.89
-4.24
-4.15
-3.55
-2.56
-1.43
-0.42
0.30
0.75
1.02
1.22
1.41
1.52
1.51
1.36
1.14
0.96
0.85
0.81
0.76
0.69
0.61
0.58
0.61
0.69
0.75
0.74
0.66
0.55
0.50
0.53
0.64
0.79
0.97
1.18
1.44
1.73
1.98
2.06
1.87
1.38
0.69
-0.07
-0.76
-1.27
-1.60
-1.75
-1.79
-1.79
-1.81
-1.90
-2.10
-2.37
-2.66
-2.86
-2.91
-2.73
-2.35
-1.81
-1.21
-0.64
-0.17
0.14
0.26
0.26
0.24
0.35
0.70
1.32
2.08
2.79
3.23
3.27
2.94
2.37
1.79
1.38
1.21
1.24
1.38
1.52
1.60
1.61
1.58
1.50
1.36
1.15
0.91
0.73
0.70
0.88
1.21
1.56
1.78
1.73
1.39
0.85
0.25
-0.27
-0.62
-0.79
-0.83
-0.82
-0.85
-0.98
-1.23
-1.57
-1.94
-2.30
-2.59
-2.78
-2.88
-2.88
-2.79
-2.60
-2.34
-2.02
-1.67
-1.32
-0.98
-0.65
-0.34
-0.05
0.21
0.42
0.57
0.67
0.75
0.86
1.05
1.33
1.66
1.94
2.10
2.12
2.06
1.99
1.98
2.04
2.12
2.13
2.07
1.98
1.97
2.08
2.31
2.55
2.63
2.48
2.12
1.64
1.21
0.91
0.75
0.62
0.42
0.03
-0.56
-1.28
-2.04
-2.71
-3.20
-3.45
-3.44
-3.18
-2.70
-2.12
-1.60
-1.33
-1.46
-2.00
-2.86
-3.81
-4.58
-5.01
-5.03
-4.72
-4.21
-3.63
-3.07
-2.55
-2.06
-1.57
-1.07
-0.57
-0.07
0.42
0.90
1.35
1.72
2.00
2.18
2.27
2.32
2.39
2.51
2.64
2.76
2.79
2.73
2.58
2.34
2.03
1.65
1.22
0.78
0.43
0.25
0.33
0.63
1.03
1.36
1.48
1.34
0.98
0.55
0.13
-0.22
-0.53
-0.86
-1.24
-1.65
-2.05
-2.38
-2.63
-2.87
-3.18
-3.61
-4.19
-4.83
-5.39
-5.72
-5.69
-5.24
-4.42
-3.32
-2.09
-0.89
0.18
0.99
1.52
1.75
1.71
1.47
1.14
0.82
0.60
0.52
0.56
0.69
0.85
0.98
1.06
1.08
1.05
1.02
1.00
1.02
1.07
1.15
1.25
1.37
1.50
1.60
1.66
1.64
1.49
1.22
0.83
0.40
0.01
-0.22
-0.22
-0.01
0.30
0.51
0.43
-0.03
-0.83
-1.76
-2.57
-3.09
-3.28
-3.25
-3.13
-2.99
-2.79
-2.43
-1.89
-1.22
-0.59
-0.13
0.09
0.15
0.16
0.23
0.37
0.56
0.73
0.85
0.96
1.06
1.17
1.29
1.45
1.70
2.11
2.66
3.28
3.83
4.15
4.15
3.84
3.28
2.58
1.83
1.12
0.54
0.20
0.13
0.29
0.55
0.73
0.71
0.46
0.10
-0.24
-0.44
-0.51
-0.57
-0.74
-1.13
-1.73
-2.49
-3.32
-4.13
-4.87
-5.46
-5.81
-5.82
-5.43
-4.67
-3.67
-2.63
-1.70
-0.94
-0.34
0.18
0.67
1.12
1.50
1.81
2.07
2.35
2.70
3.09
3.45
3.71
3.85
3.92
4.00
4.12
4.27
4.44
4.59
4.74
4.91
5.08
5.21
5.30
5.35
5.44
5.62
5.92
6.28
6.62
6.89
7.12
7.34
7.62
7.93
8.24
8.51
8.85
9.42
10.41
11.87
13.66
15.50
17.09
18.29
19.21
20.17
21.51
23.45
25.97
28.87
31.86
34.74
37.49
40.21
43.06
46.21
49.76
53.82
58.41
63.43
68.59
73.31
76.93
78.80
78.55
76.21
72.04
66.36
59.19
50.18
38.63
23.71
4.95
-17.42
-42.17
-67.18
-89.84
-107.76
-119.42
-124.62
-124.38
-120.57
-115.16
-109.74
-105.20
-101.80
-99.35
-97.42
-95.48
-92.91
-89.19
-84.00
-77.42
-69.96
-62.36
-55.29
-49.10
-43.75
-38.88
-34.09
-29.08
-23.71
-17.92
-11.72
-5.15
1.60
8.16
14.04
18.82
22.30
24.54
25.84
26.48
26.69
26.49
25.75
24.38
22.39
19.94
17.25
14.63
12.40
10.86
10.11
9.93
9.70
8.79
6.64
3.11
-1.32
-5.73
-8.95
-10.34
-10.13
-9.48
-9.60
-11.57
-15.85
-21.93
-28.68
-34.63
-38.86
-41.20
-41.91
-40.61
-37.12
-32.12
-27.35
-25.22
-26.87
-31.89
-38.32
-43.53
-44.78
-41.95
-37.83
-36.19
-39.19
-44.01
-44.22
-32.69
-4.81
40.34
98.00
159.14
213.92
254.69
279.80
291.60
294.09
282.04
253.81
213.29
168.52
131.26
101.94
80.04
65.12
55.81
51.12
50.94
54.03
57.47
57.25
49.39
33.19
10.36
-15.96
-42.27
-65.12
-83.05
-96.56
-106.92
-115.06
-119.76
-119.46
-113.77
-104.01
-92.18
-80.62
-71.08
-64.04
-58.97
-54.11
-48.02
-40.33
-31.60
-22.70
-14.40
-7.30
-1.74
2.07
4.35
5.42
5.65
5.51
5.61
6.40
7.92
9.83
11.55
12.80
13.63
14.37
15.35
16.59
17.60
17.56
15.71
11.75
5.93
-1.27
-9.57
-19.03
-29.76
-41.42
-52.93
-62.70
-69.61
-73.77
-76.80
-81.32
-89.59
-102.52
-119.40
-138.38
-157.32
-174.21
-187.25
-194.85
-195.90
-190.26
-179.15
-164.76
-149.25
-133.58
-117.04
-97.85
-74.43
-46.63
-16.06
14.43
42.07
64.98
82.42
94.39
101.02
102.35
98.57
90.49
79.65
68.33
58.99
53.46
52.42
55.15
59.77
63.95
65.59
63.39
57.13
47.57
36.20
24.83
15.21
8.62
5.54
5.59
7.68
10.58
13.47
16.33
19.73
24.41
30.62
37.76
44.58
49.81
52.87
54.32
55.47
57.72
61.70
66.93
72.00
75.30
75.76
73.49
69.79
66.63
65.67
67.71
72.40
78.40
83.60
85.54
81.86
70.77
51.48
24.35
-8.49
-42.90
-73.37
-94.49
-102.91
-98.51
-84.43
-65.53
-47.12
-32.63
-22.80
-16.32
-11.46
-7.91
-6.67
-9.06
-15.16
-24.15
-34.03
-42.67
-48.65
-52.13
-55.66
-62.62
-76.01
-91.51
-103.80
-108.69
-105.87
-97.62
-86.46
-75.16
-65.38
-58.09
-52.96
-50.33
-53.07
-62.07
-77.19
-96.06
-115.16
-128.42
-130.11
-116.02
-86.41
-41.72
6.79
47.05
77.44
100.35
121.03
139.48
154.61
163.80
164.97
158.78
149.82
145.96
145.57
146.59
145.27
138.61
125.66
107.46
91.57
78.16
66.75
55.70
44.69
34.10
22.58
11.18
0.91
-7.64
-14.77
-19.68
-22.15
-21.69
-18.81
-14.53
-9.78
-5.50
-2.24
-0.59
-0.09
-0.70
-2.31
-5.09
-8.97
-13.21
-17.03
-19.88
-21.94
-23.26
-24.23
-25.04
-25.81
-26.47
-26.60
-25.93
-24.39
-22.32
-19.98
-17.65
-15.51
-13.67
-12.14
-10.71
-9.30
-7.91
-6.77
-6.10
-6.03
-6.56
-7.45
-8.32
-8.74
-8.44
-7.44
-5.98
-4.47
-3.30
-2.68
-2.64
-2.95
-3.31
-3.46
-3.34
-3.08
-2.90
-3.00
-3.42
-4.04
-4.64
-5.02
-5.09
-4.90
-4.56
-4.21
-3.89
-3.63
-3.45
-3.37
-3.40
-3.56
-3.79
-4.06
-4.31
-4.48
-4.55
-4.49
-4.30
-4.05
-3.84
-3.83
-4.14
-4.81
-5.74
-6.72
-7.49
-7.81
-7.58
-6.80
-5.59
-4.13
-2.59
-1.10
0.27
1.50
2.56
3.41
4.00
4.31
4.38
4.32
4.34
4.57
5.08
5.79
6.53
7.10
7.33
7.09
6.33
5.03
3.25
1.20
-0.85
-2.55
-3.61
-3.91
-3.54
-2.75
-1.81
-0.89
0.05
1.18
2.66
4.52
6.59
8.49
9.84
10.40
10.18
9.40
8.36
7.26
6.10
4.70
2.91
0.71
-1.66
-3.80
-5.32
-5.95
-5.73
-4.89
-3.75
-2.58
-1.49
-0.47
0.59
1.73
2.89
3.89
4.55
4.72
4.39
3.67
2.73
1.74
0.84
0.14
-0.31
-0.42
-0.17
0.43
1.25
2.13
2.87
3.37
3.62
3.72
3.82
4.02
4.35
4.73
5.02
5.05
4.73
4.11
3.31
2.52
1.92
1.59
1.54
1.72
2.01
2.33
2.57
2.61
2.38
1.85
1.08
0.21
-0.61
-1.27
-1.69
-1.90
-1.91
-1.70
-1.28
-0.61
0.27
1.27
2.26
3.13
3.80
4.20
4.30
4.06
3.50
2.65
1.65
0.68
-0.07
-0.47
-0.49
-0.22
0.18
0.57
0.83
0.96
1.05
1.20
1.49
1.92
2.37
2.68
2.74
2.50
2.04
1.52
1.10
0.88
0.87
0.99
1.11
1.19
1.21
1.25
1.37
1.61
1.95
2.28
2.49
2.46
2.12
1.47
0.59
-0.39
-1.34
-2.18
-2.88
-3.47
-3.96
-4.32
-4.46
-4.33
-3.93
-3.33
-2.65
-1.99
-1.40
-0.85
-0.34
0.15
0.58
0.92
1.13
1.23
1.26
1.28
1.30
1.36
1.46
1.62
1.86
2.18
2.52
2.79
2.88
2.77
2.55
2.39
2.50
2.98
3.77
4.64
5.27
5.45
5.18
4.65
4.18
4.03
4.24
4.62
4.93
4.97
4.73
4.34
4.02
3.94
4.15
4.59
5.15
5.62
5.76
5.29
3.99
1.75
-1.26
-4.66
-7.88
-10.42
-12.00
-12.64
-12.64
-12.48
-12.62
-13.39
-14.90
-16.96
-19.19
-21.12
-22.33
-22.56
-21.75
-20.02
-17.52
-14.44
-10.91
-7.03
-2.98
1.04
4.83
8.24
11.20
13.79
16.13
18.41
20.72
23.07
25.29
27.04
27.88
27.43
25.50
22.23
18.07
13.65
9.57
6.29
4.06
2.97
3.04
4.25
6.44
9.19
11.73
13.07
12.26
8.73
2.55
-5.61
-14.68
-23.50
-31.12
-36.95
-40.67
-42.14
-41.22
-37.80
-31.89
-23.82
-14.36
-4.71
3.87
10.41
14.58
16.84
18.19
19.77
22.35
26.08
30.55
34.98
38.66
41.12
42.19
41.97
40.69
38.66
36.21
33.67
31.34
29.50
28.38
28.10
28.63
29.66
30.68
30.96
29.68
25.99
19.29
9.33
-3.54
-18.39
-33.80
-48.19
-60.10
-68.55
-73.17
-74.09
-71.85
-67.13
-60.71
-53.44
-46.18
-39.65
-34.32
-30.25
-27.10
-24.35
-21.58
-18.55
-15.31
-12.10
-9.18
-6.72
-4.75
-3.15
-1.69
-0.13
1.69
3.80
6.09
8.41
10.58
12.52
14.14
15.32
15.84
15.47
14.05
11.66
8.58
5.23
1.93
-1.23
-4.40
-7.77
-11.32
-14.74
-17.47
-18.92
-18.81
-17.32
-15.03
-12.71
-11.00
-10.22
-10.30
-10.91
-11.63
-12.00
-11.65
-10.29
-7.86
-4.54
-0.77
2.89
5.93
8.12
9.56
10.62
11.74
13.24
15.21
17.53
19.92
22.08
23.70
24.61
24.76
24.23
23.22
21.95
20.61
19.33
18.22
17.36
16.72
16.15
15.37
14.13
12.33
10.16
8.00
6.16
4.67
3.09
0.71
-3.08
-8.39
-14.65
-20.77
-25.52
-28.05
-28.10
-26.00
-22.42
-18.09
-13.57
-9.21
-5.24
-1.87
0.73
2.48
3.44
3.84
4.00
4.18
4.49
4.88
5.20
5.30
5.17
4.91
4.73
4.82
5.26
5.89
6.40
6.42
5.66
4.07
1.88
-0.52
-2.68
-4.31
-5.37
-6.01
-6.59
-7.44
-8.77
-10.55
-12.42
-13.80
-14.03
-12.62
-9.47
-4.90
0.42
5.68
10.14
13.27
14.80
14.65
12.91
9.86
5.91
1.64
-2.36
-5.64
-7.95
-9.33
-9.98
-10.13
-9.97
-9.58
-9.00
-8.26
-7.44
-6.62
-5.91
-5.42
-5.22
-5.36
-5.83
-6.46
-6.94
-6.90
-6.01
-4.15
-1.51
1.50
4.36
6.63
8.02
8.51
8.24
7.45
6.44
5.45
4.67
4.21
4.07
4.27
4.79
5.65
6.84
8.30
9.88
11.37
12.58
13.40
13.82
13.81
13.34
12.29
10.57
8.21
5.40
2.54
0.06
-1.71
-2.70
-3.05
-3.05
-2.93
-2.85
-2.81
-2.84
-2.96
-3.25
-3.81
-4.65
-5.66
-6.62
-7.34
-7.70
-7.69
-7.39
-6.88
-6.19
-5.25
-4.02
-2.51
-0.80
0.89
2.35
3.42
4.05
4.31
4.33
4.27
4.18
4.09
3.93
3.68
3.34
2.95
2.55
2.13
1.59
0.86
-0.10
-1.20
-2.27
-3.12
-3.63
-3.79
-3.73
-3.62
-3.56
-3.61
-3.73
-3.87
-3.99
-4.10
-4.20
-4.27
-4.29
-4.23
-4.06
-3.81
-3.49
-3.11
-2.69
-2.22
-1.79
-1.52
-1.54
-1.89
-2.51
-3.14
-3.47
-3.23
-2.32
-0.85
0.90
2.62
4.09
5.21
6.05
6.72
7.39
8.12
8.92
9.68
10.26
10.53
10.43
10.04
9.56
9.24
9.28
9.77
10.66
11.78
12.89
13.74
14.08
13.74
12.67
10.95
8.81
6.53
4.33
2.31
0.32
-1.87
-4.49
-7.64
-11.13
-14.57
-17.43
-19.20
-19.54
-18.33
-15.72
-12.08
-7.91
-3.80
-0.31
2.06
2.97
2.35
0.36
-2.56
-5.79
-8.75
-10.99
-12.32
-12.87
-12.97
-13.01
-13.30
-13.91
-14.57
-14.74
-13.72
-10.96
-6.31
-0.23
6.30
12.08
16.14
18.07
18.12
16.95
15.35
13.87
12.70
11.82
11.11
10.52
10.07
9.67
9.11
7.98
5.90
2.71
-1.38
-5.76
-9.61
-12.14
-12.95
-12.14
-10.34
-8.46
-7.27
-7.22
-8.17
-9.59
-10.75
-11.03
-10.15
-8.22
-5.64
-3.00
-0.86
0.37
0.57
-0.11
-1.25
-2.34
-2.94
-2.88
-2.24
-1.27
-0.21
0.78
1.78
2.88
4.17
5.57
6.84
7.73
8.09
7.94
7.46
6.91
6.49
6.31
6.35
6.56
6.91
7.45
8.29
9.49
10.96
12.35
13.15
12.86
11.21
8.30
4.58
0.63
-3.06
-6.25
-8.91
-11.13
-12.91
-14.14
-14.64
-14.32
-13.21
-11.47
-9.29
-6.78
-4.04
-1.21
1.52
3.85
5.48
6.19
5.93
4.82
3.08
1.04
-0.98
-2.68
-3.85
-4.41
-4.44
-4.16
-3.89
-3.85
-4.13
-4.62
-5.06
-5.20
-4.89
-4.12
-3.05
-1.93
-0.97
-0.34
-0.10
-0.23
-0.65
-1.23
-1.82
-2.26
-2.41
-2.22
-1.72
-1.00
-0.20
0.50
0.95
1.03
0.71
0.09
-0.64
-1.23
-1.46
-1.23
-0.61
0.20
0.90
1.26
1.13
0.57
-0.24
-0.99
-1.38
-1.13
-0.15
1.51
3.61
5.81
7.76
9.19
9.95
10.08
9.72
9.06
8.28
7.49
6.71
5.88
4.92
3.74
2.37
0.94
-0.33
-1.22
-1.58
-1.40
-0.83
-0.10
0.51
0.78
0.52
-0.34
-1.84
-3.89
-6.30
-8.77
-10.96
-12.50
-13.19
-12.97
-11.95
-10.33
-8.35
-6.20
-4.03
-2.00
-0.24
1.17
2.18
2.82
3.20
3.48
3.79
4.22
4.76
5.32
5.80
6.11
6.18
6.01
5.65
5.16
4.65
4.21
3.95
3.91
4.08
4.33
4.48
4.39
4.02
3.50
3.09
3.06
3.51
4.39
5.50
6.58
7.51
8.27
8.97
9.71
10.48
11.18
11.69
11.93
11.95
11.85
11.76
11.81
12.00
12.30
12.67
13.14
13.77
14.58
15.52
16.36
16.74
16.25
14.54
11.50
7.32
2.49
-2.34
-6.51
-9.66
-11.74
-13.10
-14.27
-15.74
-17.76
-20.28
-22.99
-25.49
-27.41
-28.54
-28.80
-28.31
-27.27
-26.05
-25.01
-24.44
-24.37
-24.61
-24.78
-24.48
-23.43
-21.59
-19.11
-16.25
-13.31
-10.50
-7.96
-5.75
-3.82
-2.06
-0.36
1.33
3.00
4.54
5.78
6.63
7.09
7.33
7.59
8.09
8.90
9.90
10.87
11.63
12.16
12.57
13.07
13.76
14.59
15.34
15.85
16.12
16.30
16.57
16.91
17.05
16.50
14.85
11.95
8.01
3.53
-0.95
-4.99
-8.28
-10.64
-11.91
-11.95
-10.69
-8.30
-5.15
-1.76
1.35
3.85
5.63
6.87
7.87
8.93
10.12
11.20
11.55
10.45
7.33
2.09
-4.77
-12.34
-19.57
-25.72
-30.39
-33.52
-35.13
-35.16
-33.53
-30.33
-26.02
-21.46
-17.61
-15.19
-14.35
-14.64
-15.24
-15.32
-14.37
-12.32
-9.49
-6.37
-3.45
-1.17
0.22
0.60
0.04
-1.14
-2.39
-3.04
-2.50
-0.44
3.00
7.28
11.58
15.14
17.52
18.76
19.37
20.09
21.58
24.15
27.60
31.30
34.40
36.09
35.84
33.43
29.01
22.96
15.95
8.76
2.21
-3.04
-6.69
-8.80
-9.84
-10.36
-10.79
-11.28
-11.67
-11.65
-10.97
-9.53
-7.49
-5.16
-2.89
-0.95
0.48
1.35
1.72
1.72
1.55
1.39
1.36
1.52
1.83
2.16
2.35
2.28
1.92
1.30
0.55
-0.24
-0.95
-1.57
-2.06
-2.41
-2.56
-2.49
-2.18
-1.68
-1.07
-0.43
0.17
0.73
1.26
1.78
2.29
2.79
3.24
3.63
3.98
4.32
4.67
4.99
5.23
5.31
5.19
4.88
4.41
3.81
3.13
2.38
1.62
0.87
0.19
-0.39
-0.84
-1.15
-1.29
-1.30
-1.22
-1.14
-1.22
-1.55
-2.17
-2.94
-3.61
-3.87
-3.46
-2.26
-0.41
1.75
3.69
4.90
4.99
3.86
1.72
-0.93
-3.52
-5.56
-6.79
-7.19
-6.95
-6.34
-5.64
-5.01
-4.54
-4.18
-3.84
-3.45
-3.01
-2.63
-2.46
-2.62
-3.09
-3.67
-4.08
-4.06
-3.49
-2.48
-1.24
-0.05
0.93
1.66
2.14
2.41
2.49
2.38
2.14
1.90
1.83
2.06
2.61
3.32
3.94
4.19
3.90
3.08
1.88
0.59
-0.49
-1.09
-1.06
-0.41
0.66
1.84
2.71
2.98
2.57
1.68
0.68
0.02
-0.03
0.53
1.45
2.32
2.78
2.67
2.09
1.36
0.90
1.04
1.88
3.19
4.54
5.44
5.59
5.01
4.11
3.48
3.65
4.87
6.89
9.13
10.85
11.49
10.83
9.13
7.02
5.35
4.94
6.31
9.41
13.35
16.43
16.39
11.12
-0.32
-16.94
-35.62
-51.94
-61.65
-62.35
-54.37
-40.49
-24.66
-10.37
0.49
7.73
12.25
15.01
16.52
16.80
15.83
13.94
11.79
10.01
8.77
7.61
5.76
2.63
-1.77
-6.69
-10.87
-13.07
-12.52
-9.22
-3.85
2.42
8.37
13.07
16.10
17.53
17.76
17.18
16.05
14.38
12.07
9.13
5.84
2.71
0.26
-1.19
-1.67
-1.54
-1.31
-1.44
-2.13
-3.32
-4.72
-5.96
-6.67
-6.60
-5.70
-4.13
-2.25
-0.52
0.62
0.89
0.24
-1.12
-2.84
-4.55
-6.00
-7.10
-7.97
-8.82
-9.81
-10.97
-12.15
-13.06
-13.42
-13.13
-12.30
-11.22
-10.19
-9.42
-8.87
-8.37
-7.69
-6.66
-5.26
-3.60
-1.87
-0.20
1.35
2.82
4.24
5.59
6.72
7.39
7.39
6.62
5.26
3.70
2.44
1.89
2.21
3.24
4.58
5.68
6.06
5.37
3.46
0.43
-3.36
-7.31
-10.71
-12.88
-13.42
-12.37
-10.20
-7.66
-5.47
-4.03
-3.23
-2.56
-1.34
0.91
4.25
8.32
12.47
16.11
18.88
20.69
21.57
21.50
20.34
17.93
14.29
9.72
4.79
0.12
-3.78
-6.74
-8.80
-10.08
-10.68
-10.55
-9.61
-7.85
-5.42
-2.58
0.38
3.23
5.82
8.05
9.81
10.99
11.51
11.46
11.10
10.84
11.07
11.98
13.51
15.33
17.00
18.22
18.85
19.03
18.97
18.87
18.79
18.69
18.49
18.16
17.76
17.31
16.78
16.04
14.92
13.32
11.23
8.69
5.72
2.35
-1.36
-5.17
-8.61
-11.21
-12.64
-12.91
-12.42
-11.75
-11.46
-11.89
-13.06
-14.76
-16.60
-18.09
-18.67
-17.88
-15.51
-11.82
-7.67
-4.31
-2.94
-4.30
-8.35
-14.46
-21.71
-29.35
-36.91
-44.11
