1653134466.00
64.000000
-0.00
-0.00
-0.00
-0.00
-0.00
-0.00
-0.00
-0.00
-0.00
-0.00
0.00
0.01
0.01
-0.00
-0.03
-0.05
-0.05
0.00
0.13
0.36
0.66
1.01
1.37
1.72
2.06
2.40
2.79
3.24
3.80
4.42
5.06
5.66
6.20
6.68
7.15
7.68
8.31
9.14
10.09
11.04
11.88
12.56
13.14
13.76
14.65
15.96
17.91
20.32
22.90
25.38
27.58
29.57
31.68
34.32
37.81
42.54
48.15
54.10
59.83
64.97
69.58
74.14
79.34
85.71
93.76
103.00
112.62
121.73
129.77
136.75
143.30
150.75
157.77
166.64
177.95
191.79
206.97
220.57
228.25
225.36
208.53
176.87
132.76
80.05
23.07
-34.94
-92.44
-149.16
-205.23
-260.37
-313.74
-363.87
-409.83
-450.91
-486.50
-515.74
-537.23
-549.22
-549.96
-538.37
-514.21
-478.67
-433.88
-382.45
-327.02
-269.84
-212.63
-156.66
-102.95
-52.38
-5.91
35.57
71.43
101.37
125.54
144.43
158.72
169.11
176.22
180.47
182.19
181.62
179.06
174.83
169.30
162.84
155.76
148.31
140.66
132.94
125.23
117.58
110.02
102.56
95.20
87.93
80.80
73.88
67.32
61.21
55.61
50.44
45.54
40.73
35.86
30.98
26.24
21.95
18.35
15.53
13.31
11.30
9.07
6.32
3.12
-0.17
-2.97
-4.80
-5.51
-5.43
-5.25
-5.75
-7.38
-10.08
-13.21
-15.86
-17.31
-17.39
-16.45
-15.34
-14.88
-15.58
-17.69
-21.23
-25.96
-31.08
-34.85
-34.84
-28.82
-16.11
1.57
20.36
35.76
44.57
46.29
42.95
37.76
33.26
30.34
28.28
25.93
22.77
19.28
16.55
15.33
15.53
16.23
16.36
15.19
12.71
9.66
7.01
5.54
5.49
6.58
8.13
9.46
10.05
9.81
8.92
7.74
6.61
5.73
5.10
4.61
4.03
3.19
2.06
0.83
-0.16
-0.52
0.03
1.52
3.70
6.13
8.34
10.05
11.18
11.90
12.45
13.01
13.65
14.31
14.81
14.89
14.31
12.87
10.52
7.50
4.09
0.71
-2.21
-4.44
-5.98
-6.97
-7.67
-8.33
-9.11
-10.14
-11.40
-12.79
-14.14
-15.24
-15.90
-16.05
-15.76
-15.13
-14.29
-13.30
-12.17
-10.91
-9.61
-8.40
-7.45
-6.81
-6.42
-6.13
-5.76
-5.24
-4.58
-3.95
-3.48
-3.22
-3.13
-3.05
-2.90
-2.66
-2.37
-2.08
-1.81
-1.41
-0.74
0.35
1.84
3.54
5.12
6.26
6.75
6.54
5.75
4.61
3.34
2.13
1.04
0.09
-0.72
-1.34
-1.70
-1.73
-1.41
-0.82
-0.12
0.57
1.12
1.40
1.41
1.19
0.82
0.40
-0.03
-0.36
-0.56
-0.66
-0.70
-0.83
-1.17
-1.74
-2.43
-3.03
-3.25
-2.89
-1.86
-0.21
1.93
4.33
6.75
8.85
10.27
10.72
10.12
8.61
6.57
4.43
2.53
1.02
-0.11
-0.96
-1.58
-1.98
-2.13
-2.03
-1.78
-1.47
-1.25
-1.17
-1.27
-1.49
-1.79
-2.09
-2.39
-2.72
-3.16
-3.83
-4.71
-5.66
-6.43
-6.69
-6.21
-4.97
-3.15
-1.08
0.91
2.54
3.65
4.23
4.28
3.84
2.96
1.74
0.35
-0.99
-2.08
-2.81
-3.17
-3.27
-3.28
-3.30
-3.39
-3.49
-3.53
-3.48
-3.37
-3.26
-3.24
-3.34
-3.56
-3.93
-4.46
-5.16
-5.92
-6.53
-6.72
-6.23
-4.96
-3.04
-0.74
1.57
3.60
5.16
6.17
6.59
6.45
5.77
4.65
3.25
1.77
0.41
-0.68
-1.43
-1.83
-1.92
-1.80
-1.63
-1.57
-1.70
-2.04
-2.47
-2.86
-3.07
-3.12
-3.16
-3.41
-4.04
-5.05
-6.28
-7.45
-8.23
-8.36
-7.66
-6.09
-3.74
-0.86
2.15
4.86
6.90
8.08
8.39
8.01
7.15
6.01
4.72
3.40
2.14
1.06
0.26
-0.23
-0.46
-0.52
-0.55
-0.64
-0.84
-1.18
-1.63
-2.12
-2.52
-2.77
-2.87
-2.97
-3.27
-3.95
-5.01
-6.24
-7.31
-7.81
-7.46
-6.15
-3.95
-1.07
2.20
5.55
8.64
11.18
12.89
13.67
13.53
12.65
11.28
9.70
8.14
6.77
5.70
4.97
4.57
4.43
4.39
4.30
4.02
3.50
2.78
1.96
1.13
0.32
-0.47
-1.28
-2.10
-2.85
-3.40
-3.70
-3.78
-3.80
-3.98
-4.44
-5.18
-6.06
-6.88
-7.41
-7.48
-6.94
-5.64
-3.51
-0.60
2.83
6.32
9.33
11.37
12.19
11.82
10.55
8.78
6.88
5.10
3.59
2.41
1.57
1.04
0.76
0.62
0.48
0.25
-0.16
-0.73
-1.37
-1.96
-2.39
-2.62
-2.71
-2.77
-2.89
-3.16
-3.57
-4.04
-4.48
-4.83
-5.07
-5.27
-5.54
-5.97
-6.61
-7.43
-8.29
-8.95
-9.15
-8.60
-7.12
-4.71
-1.54
2.00
5.44
8.26
10.11
10.82
10.46
9.27
7.63
5.84
4.15
2.68
1.44
0.45
-0.25
-0.60
-0.61
-0.38
-0.04
0.20
0.29
0.25
0.23
0.34
0.62
0.94
1.16
1.16
0.95
0.57
0.09
-0.50
-1.23
-2.09
-2.98
-3.70
-4.13
-4.27
-4.31
-4.51
-5.06
-5.94
-6.88
-7.50
-7.46
-6.62
-5.04
-2.92
-0.52
1.92
4.16
6.02
7.33
7.99
7.97
7.36
6.32
5.07
3.80
2.64
1.65
0.86
0.26
-0.10
-0.16
0.08
0.55
1.10
1.55
1.72
1.56
1.12
0.54
-0.10
-0.72
-1.33
-1.92
-2.41
-2.71
-2.73
-2.48
-2.04
-1.59
-1.26
-1.14
-1.22
-1.47
-1.82
-2.25
-2.67
-2.98
-3.01
-2.65
-1.81
-0.50
1.20
3.18
5.30
7.38
9.19
10.53
11.23
11.25
10.68
9.74
8.72
7.85
7.33
7.20
7.42
7.82
8.11
7.99
7.22
5.76
3.75
1.52
-0.60
-2.40
-3.82
-4.98
-6.04
-7.12
-8.22
-9.24
-10.04
-10.55
-10.73
-10.63
-10.29
-9.77
-9.14
-8.46
-7.85
-7.46
-7.35
-7.51
-7.74
-7.78
-7.34
-6.28
-4.66
-2.73
-0.82
0.72
1.70
2.10
2.02
1.67
1.28
0.98
0.83
0.71
0.47
0.04
-0.56
-1.13
-1.43
-1.29
-0.75
-0.01
0.65
1.04
1.17
1.17
1.20
1.29
1.35
1.19
0.71
-0.04
-0.85
-1.48
-1.75
-1.70
-1.51
-1.44
-1.67
-2.21
-2.94
-3.63
-4.02
-3.96
-3.37
-2.31
-0.91
0.63
2.10
3.31
4.08
4.37
4.19
3.61
2.79
1.86
0.97
0.21
-0.35
-0.73
-0.93
-0.98
-0.90
-0.68
-0.34
0.04
0.32
0.39
0.19
-0.21
-0.67
-1.04
-1.25
-1.32
-1.29
-1.22
-1.10
-0.96
-0.86
-0.91
-1.22
-1.78
-2.46
-3.05
-3.34
-3.22
-2.70
-1.90
-0.93
0.10
1.09
1.87
2.31
2.27
1.76
0.92
0.02
-0.68
-1.07
-1.17
-1.13
-1.09
-1.08
-1.02
-0.80
-0.38
0.15
0.56
0.71
0.54
0.18
-0.16
-0.33
-0.32
-0.29
-0.42
-0.80
-1.37
-1.95
-2.33
-2.41
-2.16
-1.68
-1.07
-0.35
0.48
1.45
2.58
3.76
4.81
5.51
5.71
5.32
4.43
3.22
1.91
0.74
-0.13
-0.61
-0.74
-0.68
-0.61
-0.74
-1.11
-1.68
-2.23
-2.56
-2.53
-2.17
-1.60
-1.02
-0.55
-0.24
-0.06
0.02
-0.01
-0.17
-0.46
-0.83
-1.19
-1.39
-1.35
-0.99
-0.32
0.57
1.59
2.63
3.61
4.44
5.02
5.26
5.12
4.60
3.81
2.87
1.93
1.07
0.33
-0.26
-0.70
-0.94
-0.95
-0.73
-0.36
-0.01
0.17
0.07
-0.29
-0.82
-1.35
-1.76
-2.01
-2.12
-2.18
-2.23
-2.31
-2.44
-2.64
-2.91
-3.27
-3.67
-3.99
-4.09
-3.84
-3.20
-2.22
-1.02
0.29
1.60
2.83
3.86
4.59
4.86
4.60
3.87
2.80
1.67
0.73
0.16
0.04
0.29
0.75
1.24
1.61
1.79
1.82
1.77
1.66
1.51
1.26
0.84
0.24
-0.48
-1.19
-1.76
-2.08
-2.12
-1.94
-1.70
-1.55
-1.58
-1.83
-2.26
-2.73
-3.10
-3.22
-3.00
-2.42
-1.52
-0.37
0.87
2.03
2.90
3.30
3.14
2.46
1.41
0.24
-0.81
-1.59
-2.03
-2.13
-1.97
-1.58
-1.01
-0.31
0.41
1.05
1.50
1.74
1.78
1.65
1.38
0.98
0.46
-0.11
-0.64
-1.00
-1.16
-1.16
-1.11
-1.16
-1.38
-1.79
-2.28
-2.72
-2.98
-2.94
-2.53
-1.71
-0.51
0.99
2.62
4.19
5.48
6.33
6.64
6.37
5.60
4.45
3.13
1.82
0.69
-0.14
-0.68
-0.99
-1.20
-1.40
-1.62
-1.84
-1.98
-1.97
-1.83
-1.63
-1.43
-1.31
-1.32
-1.43
-1.64
-1.94
-2.31
-2.73
-3.11
-3.36
-3.41
-3.28
-3.06
-2.81
-2.52
-2.07
-1.30
-0.14
1.32
2.87
4.19
5.06
5.39
5.23
4.69
3.89
2.93
1.86
0.77
-0.21
-0.98
-1.51
-1.83
-2.03
-2.18
-2.28
-2.30
-2.18
-1.91
-1.52
-1.11
-0.77
-0.55
-0.48
-0.53
-0.67
-0.83
-0.97
-1.03
-0.99
-0.85
-0.65
-0.46
-0.34
-0.29
-0.25
-0.11
0.29
1.00
2.01
3.12
4.12
4.82
5.13
5.09
4.79
4.30
3.68
2.91
2.01
1.02
0.05
-0.78
-1.37
-1.70
-1.81
-1.79
-1.71
-1.65
-1.64
-1.64
-1.64
-1.57
-1.44
-1.26
-1.10
-1.05
-1.14
-1.39
-1.75
-2.22
-2.75
-3.30
-3.83
-4.25
-4.48
-4.46
-4.16
-3.57
-2.71
-1.60
-0.26
1.25
2.81
4.25
5.33
5.86
5.78
5.15
4.16
3.07
2.04
1.18
0.54
0.12
-0.03
0.09
0.46
0.97
1.46
1.77
1.83
1.63
1.21
0.64
-0.03
-0.72
-1.33
-1.71
-1.77
-1.56
-1.26
-1.11
-1.34
-2.00
-2.94
-3.86
-4.47
-4.52
-3.97
-2.91
-1.53
-0.02
1.44
2.74
3.75
4.38
4.54
4.22
3.48
2.48
1.45
0.59
0.05
-0.10
0.08
0.47
0.92
1.30
1.51
1.51
1.34
1.03
0.64
0.24
-0.12
-0.39
-0.54
-0.57
-0.56
-0.60
-0.83
-1.28
-1.92
-2.62
-3.19
-3.46
-3.32
-2.77
-1.90
-0.83
0.30
1.36
2.26
2.91
3.22
3.18
2.77
2.08
1.24
0.42
-0.24
-0.69
-0.96
-1.15
-1.33
-1.50
-1.62
-1.57
-1.30
-0.82
-0.24
0.30
0.63
0.66
0.37
-0.17
-0.81
-1.44
-1.95
-2.36
-2.75
-3.22
-3.78
-4.36
-4.78
-4.85
-4.47
-3.66
-2.54
-1.25
0.08
1.37
2.57
3.59
4.35
4.76
4.79
4.47
3.86
3.09
2.29
1.61
1.16
0.99
1.05
1.19
1.27
1.21
1.04
0.84
0.67
0.57
0.47
0.32
0.09
-0.17
-0.41
-0.63
-0.91
-1.31
-1.82
-2.33
-2.62
-2.51
-1.92
-0.93
0.27
1.46
2.44
3.08
3.36
3.31
3.01
2.56
2.04
1.49
0.90
0.27
-0.36
-0.89
-1.15
-1.05
-0.59
0.09
0.76
1.24
1.43
1.35
1.10
0.79
0.51
0.28
0.11
-0.05
-0.27
-0.61
-1.15
-1.88
-2.71
-3.41
-3.74
-3.48
-2.55
-1.03
0.87
2.90
4.82
6.46
7.66
8.36
8.56
8.28
7.62
6.74
5.81
4.99
4.38
3.97
3.75
3.64
3.59
3.54
3.46
3.30
3.09
2.86
2.68
2.60
2.60
2.55
2.22
1.42
0.06
-1.80
-3.91
-5.91
-7.41
-8.07
-7.60
-5.85
-2.83
1.19
5.70
10.07
13.66
16.01
16.95
16.57
15.12
12.93
10.33
7.56
4.86
2.41
0.40
-1.04
-1.86
-2.12
-2.00
-1.72
-1.53
-1.58
-1.94
-2.53
-3.22
-3.83
-4.26
-4.55
-4.78
-5.12
-5.74
-6.76
-8.21
-9.98
-11.87
-13.56
-14.68
-14.91
-14.07
-12.22
-9.66
-6.86
-4.35
-2.54
-1.67
-1.68
-2.36
-3.41
-4.55
-5.61
-6.53
-7.29
-7.84
-8.15
-8.17
-7.93
-7.47
-6.88
-6.23
-5.55
-4.89
-4.28
-3.82
-3.61
-3.68
-4.01
-4.48
-4.95
-5.36
-5.66
-5.83
-5.88
-5.75
-5.43
-4.96
-4.39
-3.75
-3.00
-2.06
-0.81
0.70
2.34
3.86
5.05
5.80
6.07
5.94
5.43
4.62
3.60
2.54
1.71
1.37
1.62
2.34
3.22
3.88
4.04
3.61
2.70
1.52
0.26
-0.89
-1.82
-2.45
-2.74
-2.72
-2.51
-2.23
-1.98
-1.74
-1.44
-0.94
-0.23
0.62
1.45
2.16
2.73
3.27
3.81
4.32
4.64
4.61
4.17
3.45
2.64
1.92
1.30
0.71
0.01
-0.82
-1.70
-2.43
-2.87
-2.90
-2.55
-1.93
-1.23
-0.63
-0.35
-0.56
-1.36
-2.71
-4.40
-6.12
-7.43
-7.91
-7.21
-5.18
-1.93
2.14
6.33
9.81
11.84
12.05
10.57
7.99
5.14
2.76
1.24
0.52
0.31
0.29
0.34
0.54
1.01
1.72
2.38
2.59
2.05
0.75
-0.94
-2.49
-3.44
-3.68
-3.44
-3.17
-3.21
-3.63
-4.17
-4.38
-3.92
-2.65
-0.76
1.36
3.33
4.86
5.89
6.47
6.74
6.75
6.55
6.11
5.45
4.65
3.78
2.94
2.19
1.62
1.27
1.18
1.32
1.59
1.85
1.96
1.86
1.58
1.22
0.87
0.56
0.21
-0.30
-0.99
-1.80
-2.50
-2.87
-2.75
-2.13
-1.11
0.13
1.47
2.80
4.09
5.24
6.11
6.58
6.56
6.10
5.36
4.56
3.85
3.26
2.72
2.13
1.46
0.76
0.11
-0.41
-0.80
-1.10
-1.35
-1.55
-1.66
-1.67
-1.68
-1.83
-2.25
-2.96
-3.79
-4.45
-4.61
-4.08
-2.88
-1.25
0.51
2.14
3.46
4.41
5.00
5.23
5.07
4.53
3.68
2.66
1.66
0.82
0.23
-0.15
-0.40
-0.60
-0.77
-0.84
-0.78
-0.61
-0.45
-0.45
-0.74
-1.34
-2.13
-3.01
-3.86
-4.65
-5.37
-5.98
-6.33
-6.23
-5.50
-4.06
-2.01
0.36
2.70
4.67
6.06
6.78
6.85
6.34
5.40
4.21
3.03
2.06
1.43
1.10
0.90
0.62
0.13
-0.50
-1.08
-1.42
-1.42
-1.18
-0.89
-0.77
-0.92
-1.36
-2.02
-2.87
-3.88
-5.01
-6.13
-7.03
-7.41
-7.01
-5.70
-3.60
-1.01
1.63
3.87
5.40
6.05
5.89
5.09
3.93
2.72
1.70
1.01
0.64
0.54
0.57
0.69
0.86
1.11
1.43
1.73
1.87
1.70
1.21
0.51
-0.21
-0.78
-1.16
-1.43
-1.75
-2.26
-3.03
-3.99
-4.98
-5.78
-6.13
-5.84
-4.81
-3.08
-0.88
1.51
3.74
5.60
6.96
7.82
8.20
8.13
7.64
6.79
5.70
4.55
3.52
2.70
2.11
1.65
1.23
0.82
0.45
0.18
0.07
0.10
0.18
0.20
0.04
-0.32
-0.79
-1.29
-1.71
-2.01
-2.26
-2.57
-2.99
-3.52
-4.06
-4.47
-4.69
-4.74
-4.77
-4.95
-5.37
-5.98
-6.60
-6.95
-6.80
-6.03
-4.68
-2.90
-0.91
1.06
2.88
4.44
5.68
6.50
6.80
6.51
5.66
4.43
3.08
1.91
1.09
0.64
0.44
0.30
0.11
-0.15
-0.39
-0.52
-0.52
-0.45
-0.42
-0.54
-0.81
-1.17
-1.48
-1.65
-1.68
-1.62
-1.62
-1.75
-2.02
-2.33
-2.61
-2.81
-2.99
-3.22
-3.55
-3.89
-4.07
-3.87
-3.13
-1.83
-0.11
1.78
3.58
5.07
6.09
6.59
6.56
6.10
5.35
4.47
3.65
3.01
2.57
2.31
2.12
1.95
1.72
1.44
1.13
0.84
0.61
0.49
0.48
0.56
0.62
0.52
0.15
-0.53
-1.40
-2.27
-2.89
-3.14
-3.04
-2.74
-2.47
-2.40
-2.60
-3.00
-3.48
-3.91
-4.19
-4.22
-3.91
-3.16
-1.93
-0.27
1.62
3.48
5.02
5.99
6.30
5.98
5.17
4.11
3.04
2.18
1.68
1.58
1.80
2.18
2.56
2.82
2.93
2.92
2.86
2.77
2.63
2.41
2.12
1.86
1.76
1.84
1.96
1.80
1.05
-0.43
-2.49
-4.71
-6.64
-7.98
-8.70
-9.00
-9.09
-9.01
-8.62
-7.68
-6.10
-4.06
-1.92
-0.12
1.09
1.69
1.86
1.85
1.85
1.88
1.87
1.73
1.39
0.88
0.30
-0.21
-0.50
-0.51
-0.28
0.10
0.46
0.72
0.89
1.03
1.23
1.46
1.62
1.57
1.25
0.73
0.13
-0.44
-0.98
-1.54
-2.17
-2.84
-3.43
-3.79
-3.87
-3.73
-3.46
-3.11
-2.62
-1.90
-0.92
0.25
1.45
2.46
3.16
3.49
3.48
3.16
2.61
1.92
1.26
0.81
0.69
0.91
1.34
1.78
2.09
2.19
2.10
1.84
1.43
0.88
0.24
-0.37
-0.86
-1.15
-1.26
-1.31
-1.43
-1.69
-2.09
-2.55
-2.97
-3.31
-3.56
-3.73
-3.83
-3.79
-3.56
-3.07
-2.30
-1.31
-0.22
0.80
1.61
2.13
2.33
2.30
2.11
1.83
1.47
1.03
0.51
0.00
-0.37
-0.50
-0.34
0.04
0.46
0.73
0.72
0.38
-0.20
-0.87
-1.53
-2.08
-2.52
-2.90
-3.25
-3.58
-3.88
-4.12
-4.30
-4.46
-4.64
-4.83
-4.99
-5.00
-4.75
-4.17
-3.29
-2.19
-0.96
0.38
1.88
3.56
5.34
6.96
8.13
8.57
8.26
7.37
6.24
5.15
4.30
3.74
3.50
3.61
4.16
5.16
6.43
7.60
8.31
8.29
7.69
6.87
6.32
6.32
6.80
7.36
7.57
7.14
6.11
4.74
3.35
2.09
0.92
-0.27
-1.57
-2.80
-3.66
-3.86
-3.36
-2.44
-1.58
-1.19
-1.37
-1.85
-2.16
-1.96
-1.25
-0.34
0.31
0.44
0.12
-0.32
-0.54
-0.48
-0.33
-0.44
-0.99
-1.82
-2.50
-2.60
-2.00
-0.98
-0.12
0.08
-0.53
-1.71
-2.90
-3.57
-3.49
-2.79
-1.86
-1.11
-0.76
-0.78
-0.98
-1.17
-1.25
-1.29
-1.41
-1.71
-2.15
-2.61
-2.89
-2.86
-2.48
-1.83
-1.05
-0.27
0.47
1.24
2.14
3.25
4.50
5.69
6.54
6.80
6.49
5.77
5.02
4.57
4.51
4.76
5.06
5.30
5.53
5.98
6.86
8.19
9.63
10.63
10.68
9.51
7.29
4.49
1.72
-0.58
-2.31
-3.66
-5.00
-6.68
-8.81
-11.20
-13.46
-15.13
-15.94
-15.88
-15.22
-14.41
-13.81
-13.59
-13.69
-13.82
-13.63
-12.89
-11.59
-9.90
-8.12
-6.48
-5.08
-3.85
-2.71
-1.64
-0.80
-0.39
-0.55
-1.20
-2.02
-2.60
-2.64
-2.10
-1.23
-0.42
0.04
0.06
-0.18
-0.37
-0.24
0.32
1.19
2.14
2.90
3.36
3.51
3.45
3.33
3.18
3.01
2.75
2.40
2.04
1.78
1.73
1.87
2.09
2.17
1.91
1.26
0.30
-0.75
-1.67
-2.27
-2.49
-2.35
-1.95
-1.40
-0.73
0.04
0.92
1.88
2.83
3.61
4.03
3.98
3.50
2.73
1.89
1.12
0.46
-0.13
-0.72
-1.25
-1.57
-1.53
-1.06
-0.34
0.32
0.59
0.37
-0.21
-0.79
-1.05
-0.87
-0.38
0.10
0.29
0.09
-0.38
-0.88
-1.22
-1.36
-1.43
-1.59
-1.90
-2.25
-2.46
-2.35
-1.95
-1.41
-0.99
-0.86
-0.96
-1.07
-0.93
-0.37
0.52
1.49
2.31
2.86
3.24
3.61
4.10
4.66
5.03
4.98
4.38
3.38
2.32
1.56
1.30
1.46
1.75
1.83
1.52
0.86
0.08
-0.52
-0.80
-0.76
-0.59
-0.48
-0.56
-0.86
-1.26
-1.63
-1.88
-1.96
-1.92
-1.82
-1.70
-1.61
-1.53
-1.47
-1.42
-1.39
-1.41
-1.49
-1.65
-1.89
-2.17
-2.47
-2.69
-2.72
-2.48
-1.95
-1.21
-0.40
0.36
0.94
1.30
1.47
1.47
1.35
1.15
0.90
0.66
0.46
0.34
0.28
0.25
0.20
0.14
0.07
0.07
0.14
0.29
0.46
0.57
0.57
0.45
0.27
0.11
0.03
0.03
0.09
0.13
0.09
-0.07
-0.32
-0.67
-1.08
-1.52
-1.95
-2.33
-2.63
-2.84
-2.94
-2.89
-2.64
-2.12
-1.29
-0.23
0.93
2.02
2.85
3.34
3.45
3.17
2.58
1.77
0.91
0.23
-0.12
-0.12
0.08
0.28
0.30
0.18
0.11
0.28
0.77
1.37
1.77
1.70
1.11
0.23
-0.63
-1.24
-1.62
-1.94
-2.40
-2.99
-3.50
-3.60
-3.13
-2.15
-1.01
-0.07
0.44
0.56
0.55
0.65
1.00
1.45
1.77
1.74
1.33
0.72
0.22
0.03
0.22
0.64
1.06
1.26
1.15
0.77
0.26
-0.22
-0.53
-0.61
-0.52
-0.32
-0.12
0.07
0.26
0.49
0.74
0.90
0.79
0.31
-0.52
-1.48
-2.26
-2.57
-2.31
-1.59
-0.66
0.20
0.82
1.10
1.07
0.79
0.34
-0.16
-0.58
-0.80
-0.75
-0.45
-0.07
0.21
0.26
0.05
-0.36
-0.81
-1.19
-1.38
-1.35
-1.11
-0.72
-0.25
0.18
0.47
0.60
0.60
0.63
0.83
1.25
1.83
2.40
2.76
2.76
2.38
1.68
0.78
-0.18
-1.06
-1.73
-2.07
-1.97
-1.42
-0.52
0.54
1.57
2.39
2.94
3.25
3.34
3.25
2.97
2.51
1.91
1.27
0.68
0.20
-0.18
-0.48
-0.70
-0.83
-0.84
-0.73
-0.52
-0.26
0.02
0.33
0.71
1.13
1.48
1.61
1.37
0.78
-0.05
-0.85
-1.40
-1.54
-1.27
-0.67
0.12
0.98
1.82
2.58
3.12
3.33
3.06
2.30
1.18
-0.02
-1.00
-1.51
-1.49
-1.08
-0.52
-0.08
0.07
-0.10
-0.49
-0.93
-1.24
-1.30
-1.11
-0.75
-0.38
-0.20
-0.30
-0.67
-1.24
-1.84
-2.37
-2.74
-2.90
-2.78
-2.32
-1.45
-0.18
1.34
2.89
4.21
5.07
5.37
5.11
4.39
3.31
2.05
0.76
-0.36
-1.14
-1.53
-1.58
-1.43
-1.26
-1.13
-1.01
-0.81
-0.48
-0.04
0.38
0.62
0.63
0.43
0.15
-0.16
-0.48
-0.86
-1.33
-1.82
-2.16
-2.18
-1.73
-0.81
0.43
1.77
2.95
3.74
3.98
3.68
2.94
1.94
0.92
0.02
-0.67
-1.18
-1.52
-1.75
-1.85
-1.86
-1.81
-1.82
-1.96
-2.26
-2.63
-2.90
-2.94
-2.69
-2.24
-1.80
-1.54
-1.56
-1.79
-2.06
-2.18
-1.97
-1.37
-0.38
0.92
2.39
3.84
5.04
5.73
5.79
5.25
4.32
3.33
2.56
2.14
1.98
1.91
1.74
1.41
0.97
0.53
0.16
-0.16
-0.51
-0.92
-1.35
-1.69
-1.86
-1.87
-1.83
-1.86
-2.02
-2.26
-2.43
-2.44
-2.34
-2.26
-2.34
-2.63
-3.02
-3.26
-3.11
-2.43
-1.24
0.28
1.91
3.45
4.72
5.64
6.13
6.14
5.65
4.75
3.57
2.33
1.22
0.38
-0.11
-0.25
-0.09
0.29
0.76
1.17
1.40
1.44
1.34
1.21
1.14
1.12
1.05
0.78
0.22
-0.58
-1.50
-2.33
-2.91
-3.18
-3.18
-3.02
-2.88
-2.94
-3.31
-4.03
-5.01
-6.04
-6.81
-7.04
-6.53
-5.27
-3.44
-1.31
0.84
2.83
4.56
5.98
7.01
7.57
7.57
7.04
6.08
4.93
3.84
2.98
2.38
2.01
1.80
1.70
1.69
1.74
1.80
1.81
1.72
1.53
1.30
1.09
0.92
0.80
0.67
0.51
0.28
-0.01
-0.39
-0.85
-1.36
-1.82
-2.11
-2.18
-2.10
-2.05
-2.25
-2.83
-3.75
-4.75
-5.55
-5.86
-5.55
-4.62
-3.17
-1.35
0.61
2.46
3.93
4.79
4.96
4.53
3.72
2.83
2.04
1.46
1.09
0.87
0.82
0.94
1.25
1.69
2.15
2.47
2.56
2.41
2.06
1.58
1.06
0.57
0.14
-0.21
-0.50
-0.75
-1.02
-1.36
-1.73
-2.08
-2.26
-2.20
-1.89
-1.42
-1.01
-0.88
-1.18
-1.93
-2.97
-4.05
-4.84
-5.08
-4.62
-3.49
-1.86
0.02
1.87
3.47
4.68
5.44
5.73
5.57
5.00
4.10
2.99
1.85
0.87
0.19
-0.17
-0.28
-0.25
-0.20
-0.16
-0.09
0.07
0.34
0.67
0.95
1.03
0.85
0.42
-0.13
-0.68
-1.14
-1.47
-1.73
-2.00
-2.33
-2.70
-3.06
-3.32
-3.49
-3.63
-3.88
-4.32
-4.92
-5.53
-5.95
-5.99
-5.54
-4.57
-3.15
-1.36
0.65
2.70
4.58
6.07
7.04
7.45
7.39
6.99
6.32
5.43
4.34
3.13
1.95
1.01
0.47
0.40
0.68
1.10
1.44
1.52
1.36
1.05
0.76
0.57
0.47
0.33
0.06
-0.34
-0.77
-1.02
-0.97
-0.62
-0.14
0.26
0.40
0.29
-0.01
-0.39
-0.82
-1.39
-2.22
-3.34
-4.63
-5.86
-6.72
-7.00
-6.57
-5.49
-3.91
-2.05
-0.09
1.75
3.30
4.43
5.05
5.18
4.87
4.28
3.48
2.57
1.58
0.58
-0.30
-0.89
-1.03
-0.70
-0.04
0.69
1.21
1.38
1.26
1.03
0.87
0.84
0.86
0.80
0.55
0.16
-0.28
-0.63
-0.89
-1.12
-1.41
-1.78
-2.16
-2.44
-2.55
-2.54
-2.57
-2.76
-3.16
-3.65
-4.00
-4.01
-3.56
-2.67
-1.43
0.02
1.56
3.04
4.32
5.23
5.61
5.39
4.62
3.49
2.27
1.19
0.41
-0.02
-0.17
-0.13
0.01
0.17
0.31
0.40
0.41
0.36
0.28
0.24
0.27
0.34
0.33
0.12
-0.34
-0.99
-1.67
-2.17
-2.40
-2.38
-2.29
-2.31
-2.56
-3.03
-3.59
-4.04
-4.23
-4.04
-3.42
-2.36
-0.93
0.72
2.34
3.62
4.32
4.39
3.96
3.33
2.79
2.50
2.47
2.57
2.67
2.68
2.60
2.45
2.23
1.93
1.53
1.09
0.67
0.33
0.09
-0.09
-0.30
-0.60
-0.98
-1.39
-1.76
-2.07
-2.31
-2.50
-2.69
-2.88
-3.10
-3.36
-3.65
-3.89
-3.93
-3.60
-2.78
-1.46
0.19
1.90
3.37
4.40
4.88
4.86
4.43
3.70
2.79
1.84
0.96
0.25
-0.22
-0.47
-0.55
-0.53
-0.49
-0.43
-0.33
-0.18
0.00
0.15
0.15
-0.06
-0.50
-1.08
-1.66
-2.06
-2.18
-2.01
-1.68
-1.43
-1.48
-1.97
-2.86
-3.92
-4.80
-5.17
-4.83
-3.77
-2.17
-0.27
1.64
3.31
4.63
5.51
5.98
6.07
5.82
5.25
4.38
3.26
2.03
0.90
0.08
-0.27
-0.18
0.21
0.65
0.96
1.05
1.00
0.96
1.01
1.13
1.19
1.06
0.71
0.25
-0.15
-0.36
-0.36
-0.26
-0.26
-0.48
-0.98
-1.71
-2.57
-3.42
-4.14
-4.61
-4.75
-4.49
-3.84
-2.85
-1.63
-0.32
0.95
2.04
2.82
3.15
2.97
2.33
1.40
0.37
-0.56
-1.31
-1.88
-2.29
-2.54
-2.56
-2.26
-1.58
-0.61
0.44
1.29
1.73
1.68
1.26
0.69
0.17
-0.19
-0.37
-0.44
-0.43
-0.39
-0.30
-0.18
-0.08
-0.07
-0.23
-0.56
-1.04
-1.51
-1.80
-1.74
-1.16
-0.05
1.49
3.21
4.79
5.89
6.28
5.94
5.00
3.74
2.44
1.29
0.39
-0.25
-0.68
-0.93
-1.01
-0.92
-0.68
-0.33
0.05
0.37
0.53
0.49
0.28
-0.03
-0.31
-0.46
-0.41
-0.19
0.08
0.26
0.23
-0.07
-0.62
-1.37
-2.25
-3.21
-4.16
-4.96
-5.41
-5.35
-4.67
-3.39
-1.65
0.30
2.14
3.58
4.37
4.43
3.84
2.85
1.76
0.81
0.14
-0.27
-0.48
-0.55
-0.51
-0.31
-0.01
0.33
0.53
0.48
0.16
-0.31
-0.74
-1.00
-0.99
-0.80
-0.52
-0.30
-0.19
-0.19
-0.25
-0.33
-0.39
-0.45
-0.56
-0.74
-0.99
-1.24
-1.37
-1.26
-0.85
-0.15
0.74
1.71
2.61
3.35
3.85
4.08
3.98
3.54
2.81
1.90
1.01
0.30
-0.16
-0.44
-0.67
-0.98
-1.37
-1.67
-1.68
-1.29
-0.57
0.22
0.77
0.90
0.61
0.07
-0.49
-0.91
-1.19
-1.39
-1.60
-1.88
-2.28
-2.80
-3.45
-4.19
-4.89
-5.35
-5.36
-4.80
-3.70
-2.26
-0.70
0.76
1.99
2.97
3.66
4.03
4.02
3.63
2.98
2.25
1.63
1.25
1.09
1.04
1.01
0.97
0.97
1.09
1.37
1.74
2.09
2.32
2.35
2.19
1.87
1.44
0.93
0.36
-0.22
-0.78
-1.27
-1.68
-2.02
-2.35
-2.68
-2.99
-3.21
-3.26
-3.10
-2.69
-2.09
-1.34
-0.48
0.41
1.27
1.98
2.45
2.67
2.65
2.49
2.25
1.96
1.57
1.07
0.47
-0.11
-0.53
-0.67
-0.51
-0.12
0.36
0.80
1.03
0.96
0.53
-0.19
-1.04
-1.76
-2.15
-2.15
-1.89
-1.60
-1.53
-1.77
-2.21
-2.64
-2.88
-2.86
-2.62
-2.27
-1.81
-1.21
-0.37
0.73
1.95
3.04
3.74
3.95
3.73
3.27
2.79
2.38
2.01
1.58
1.01
0.30
-0.47
-1.16
-1.68
-1.97
-2.01
-1.82
-1.43
-0.89
-0.31
0.19
0.53
0.67
0.64
0.52
0.36
0.20
0.04
-0.16
-0.45
-0.86
-1.41
-2.08
-2.82
-3.52
-4.02
-4.15
-3.82
-3.09
-2.13
-1.19
-0.45
0.02
0.28
0.46
0.68
0.94
1.18
1.34
1.38
1.35
1.31
1.34
1.47
1.64
1.81
1.94
2.03
2.08
2.06
1.98
1.80
1.52
1.15
0.72
0.27
-0.18
-0.62
-1.03
-1.43
-1.82
-2.24
-2.68
-3.12
-3.53
-3.84
-3.95
-3.73
-3.06
-1.90
-0.26
1.69
3.66
5.26
6.13
6.05
5.07
3.50
1.80
0.39
-0.48
-0.83
-0.84
-0.73
-0.63
-0.58
-0.57
-0.60
-0.70
-0.90
-1.15
-1.39
-1.52
-1.55
-1.54
-1.61
-1.78
-1.98
-2.11
-2.08
-1.98
-1.99
-2.26
-2.84
-3.54
-4.07
-4.15
-3.64
-2.59
-1.18
0.34
1.79
3.00
3.88
4.35
4.41
4.08
3.47
2.70
1.89
1.18
0.68
0.46
0.57
0.99
1.60
2.26
2.83
3.23
3.48
3.60
3.65
3.61
3.40
2.97
2.30
1.49
0.72
0.14
-0.16
-0.26
-0.36
-0.61
-1.06
-1.59
-1.99
-2.07
-1.76
-1.15
-0.41
0.34
1.02
1.64
2.17
2.52
2.56
2.20
1.50
0.64
-0.14
-0.68
-0.95
-1.06
-1.15
-1.30
-1.47
-1.53
-1.34
-0.88
-0.25
0.37
0.79
0.93
0.84
0.64
0.45
0.30
0.10
-0.34
-1.11
-2.18
-3.35
-4.30
-4.73
-4.46
-3.52
-2.12
-0.53
1.00
2.32
3.34
3.99
4.18
3.83
2.97
1.75
0.46
-0.59
-1.20
-1.35
-1.17
-0.88
-0.62
-0.45
-0.34
-0.22
-0.09
0.03
0.10
0.10
0.02
-0.10
-0.23
-0.36
-0.50
-0.70
-1.01
-1.50
-2.21
-3.12
-4.10
-4.92
-5.33
-5.12
-4.28
-2.97
-1.47
-0.09
0.98
1.69
2.10
2.27
2.22
1.92
1.33
0.53
-0.29
-0.90
-1.11
-0.86
-0.27
0.47
1.16
1.66
1.94
2.04
2.03
1.95
1.84
1.68
1.44
1.08
0.59
-0.04
-0.81
-1.67
-2.60
-3.52
-4.34
-4.94
-5.18
-4.97
-4.25
-3.07
-1.59
-0.01
1.43
2.53
3.21
3.47
3.40
3.16
2.86
2.59
2.38
2.27
2.25
2.31
2.39
2.48
2.54
2.59
2.62
2.61
2.49
2.17
1.60
0.82
-0.10
-1.05
-2.03
-3.11
-4.36
-5.76
-7.14
-8.21
-8.65
-8.30
-7.17
-5.49
-3.53
-1.50
0.43
2.21
3.73
4.86
5.41
5.28
4.54
3.42
2.26
1.36
0.87
0.78
0.99
1.35
1.75
2.08
2.28
2.30
2.15
1.95
1.84
1.91
2.15
2.35
2.28
1.73
0.69
-0.73
-2.28
-3.71
-4.79
-5.38
-5.40
-4.82
-3.73
-2.29
-0.76
0.62
1.73
2.51
3.01
3.26
3.26
2.98
2.45
1.78
1.15
0.74
0.62
0.74
0.99
1.26
1.51
1.76
2.01
2.21
2.25
2.06
1.64
1.14
0.73
0.51
0.41
0.24
-0.21
-1.01
-2.03
-2.98
-3.56
-3.58
-3.03
-2.12
-1.10
-0.19
0.53
1.08
1.53
1.82
1.85
1.42
0.49
-0.81
-2.13
-3.07
-3.32
-2.83
-1.79
-0.54
0.61
1.53
2.19
2.68
3.05
3.31
3.42
3.33
3.04
2.58
1.97
1.18
0.19
-1.00
-2.30
-3.52
-4.44
-4.83
-4.63
-3.88
-2.76
-1.50
-0.35
0.52
1.03
1.16
0.97
0.56
0.00
-0.61
-1.19
-1.66
-1.94
-1.95
-1.68
-1.18
-0.59
-0.03
0.41
0.74
1.03
1.35
1.69
1.98
2.12
2.02
1.71
1.26
0.79
0.31
-0.23
-0.96
-1.95
-3.15
-4.35
-5.25
-5.55
-5.10
-3.92
-2.22
-0.32
1.46
2.90
3.87
4.34
4.38
4.07
3.56
3.00
2.51
2.12
1.87
1.72
1.67
1.75
1.96
2.26
2.58
2.78
2.76
2.53
2.13
1.67
1.21
0.74
0.22
-0.35
-0.95
-1.50
-1.98
-2.47
-3.12
-4.08
-5.32
-6.64
-7.71
-8.17
-7.79
-6.55
-4.62
-2.29
0.16
2.44
4.29
5.50
5.99
5.85
5.29
4.62
4.11
3.91
4.03
4.42
4.98
5.63
6.28
6.87
7.28
7.40
7.19
6.64
5.75
4.56
3.08
1.36
-0.45
-2.13
-3.40
-4.08
-4.15
-3.76
-3.21
-2.87
-3.04
-3.84
-5.20
-6.76
-8.00
-8.36
-7.42
-5.11
-1.76
1.96
5.26
7.49
8.38
8.03
6.79
5.14
3.42
1.83
0.45
-0.67
-1.47
-1.87
-1.87
-1.59
-1.28
-1.24
-1.69
-2.64
-3.93
-5.30
-6.51
-7.44
-8.10
-8.57
-8.91
-9.14
-9.21
-9.06
-8.70
-8.25
-7.87
-7.74
-7.92
-8.31
-8.58
-8.32
-7.19
-5.08
-2.15
1.12
4.19
6.56
8.02
8.69
8.87
8.89
8.94
9.03
8.95
8.52
7.61
6.28
4.74
3.27
2.13
1.47
1.30
1.47
1.75
1.88
1.74
1.33
0.80
0.31
-0.08
-0.47
-1.07
-2.00
-3.15
-4.21
-4.78
-4.54
-3.44
-1.68
0.40
2.50
4.35
5.83
6.83
7.26
7.11
6.45
5.47
4.45
3.59
2.97
2.47
1.86
0.94
-0.29
-1.68
-2.97
-4.01
-4.80
-5.52
-6.39
-7.45
-8.56
-9.43
-9.79
-9.58
-8.98
-8.32
-7.92
-7.94
-8.34
-8.99
-9.70
-10.30
-10.62
-10.45
-9.62
-8.01
-5.65
-2.80
0.18
2.92
5.15
6.81
7.89
8.47
8.62
8.40
7.93
7.36
6.91
6.71
6.79
6.99
7.02
6.60
5.57
3.98
2.12
0.39
-0.86
-1.47
-1.55
-1.38
-1.28
-1.44
-1.84
-2.30
-2.62
-2.66
-2.43
-1.97
-1.28
-0.29
1.08
2.84
4.85
6.81
8.39
9.33
9.58
9.29
8.68
7.92
7.08
6.13
5.04
3.84
2.70
1.83
1.35
1.23
1.30
1.32
1.15
0.77
0.31
-0.11
-0.42
-0.65
-0.91
-1.25
-1.67
-2.13
-2.59
-3.03
-3.48
-3.86
-4.03
-3.74
-2.82
-1.26
0.69
2.60
4.05
4.75
4.69
4.09
3.33
2.73
2.47
2.50
2.59
2.52
2.16
1.59
1.02
0.70
0.72
0.93
1.02
0.68
-0.21
-1.45
-2.67
-3.52
-3.85
-3.79
-3.64
-3.68
-4.04
-4.69
-5.58
-6.69
-8.06
-9.67
-11.18
-12.03
-11.55
-9.34
-5.59
-1.02
3.28
6.36
7.75
7.57
6.34
4.69
3.07
1.66
0.47
-0.52
-1.26
-1.57
-1.34
-0.54
0.69
2.09
3.34
4.18
4.45
4.14
3.36
2.27
1.10
0.00
-0.89
-1.54
-2.00
-2.40
-2.88
-3.57
-4.49
-5.51
-6.47
-7.16
-7.41
-7.10
-6.12
-4.43
-2.03
0.88
3.87
6.40
7.97
8.42
8.00
7.22
6.59
6.35
6.35
6.25
5.73
4.76
3.55
2.47
1.76
1.52
1.73
2.28
3.08
3.98
4.77
5.23
5.20
4.71
3.96
3.24
2.72
2.37
2.01
1.46
0.68
-0.17
-0.85
-1.20
-1.21
-0.98
-0.64
-0.26
0.19
0.74
1.27
1.56
1.32
0.38
-1.15
-2.81
-4.00
-4.16
-3.10
-1.08
1.26
3.16
4.10
3.91
2.92
1.65
0.67
0.28
0.50
1.07
1.65
1.97
1.94
1.62
1.17
0.70
0.21
-0.35
-1.08
-1.96
-2.89
-3.66
-4.09
-4.12
-3.83
-3.46
-3.24
-3.35
-3.78
-4.39
-4.98
-5.40
-5.65
-5.90
-6.35
-7.15
-8.23
-9.23
-9.73
-9.31
-7.86
-5.55
-2.78
-0.02
2.39
4.29
5.66
6.55
7.02
7.06
6.70
5.97
4.97
3.90
2.91
2.17
1.71
1.52
1.48
1.47
1.38
1.16
0.78
0.23
-0.46
-1.24
-2.02
-2.72
-3.29
-3.74
-4.11
-4.41
-4.61
-4.68
-4.65
-4.64
-4.84
-5.35
-6.12
-6.86
-7.15
-6.68
-5.37
-3.37
-1.04
1.29
3.34
4.96
6.09
6.70
6.82
6.53
5.99
5.39
4.88
4.48
4.14
3.77
3.32
2.85
2.44
2.15
1.95
1.75
1.47
1.10
0.69
0.35
0.11
-0.07
-0.30
-0.70
-1.30
-2.01
-2.64
-3.03
-3.08
-2.89
-2.63
-2.52
-2.67
-3.10
-3.71
-4.33
-4.78
-4.90
-4.56
-3.68
-2.30
-0.52
1.39
3.12
4.38
4.97
4.87
4.23
3.27
2.27
1.42
0.81
0.43
0.19
0.01
-0.18
-0.34
-0.45
-0.45
-0.36
-0.20
-0.03
0.12
0.22
0.24
0.15
-0.10
-0.48
-0.89
-1.17
-1.14
-0.76
-0.17
0.35
0.49
0.04
-1.02
-2.46
-3.92
-5.04
-5.58
-5.44
-4.69
-3.46
-1.94
-0.33
1.18
2.40
3.20
3.52
3.41
3.02
2.52
1.98
1.43
0.84
0.21
-0.39
-0.81
-0.95
-0.82
-0.50
-0.18
0.04
0.15
0.22
0.29
0.39
0.43
0.32
0.02
-0.44
-0.99
-1.53
-2.01
-2.40
-2.66
-2.73
-2.60
-2.27
-1.85
-1.49
-1.30
-1.28
-1.38
-1.43
-1.30
-0.91
-0.25
0.64
1.68
2.81
3.92
4.89
5.55
5.77
5.48
4.72
3.62
2.39
1.25
0.36
-0.23
-0.50
-0.52
-0.34
-0.01
0.42
0.91
1.38
1.70
1.76
1.49
0.90
0.08
-0.81
-1.59
-2.18
-2.53
-2.68
-2.69
-2.64
-2.57
-2.51
-2.49
-2.59
-2.84
-3.28
-3.83
-4.32
-4.54
-4.27
-3.41
-2.03
-0.36
1.27
2.55
3.29
3.46
3.14
2.48
1.63
0.73
-0.11
-0.79
-1.24
-1.48
-1.56
-1.58
-1.60
-1.64
-1.70
-1.71
-1.66
-1.55
-1.40
-1.22
-0.99
-0.68
-0.28
0.18
0.60
0.92
1.11
1.16
1.10
0.97
0.78
0.50
0.13
-0.29
-0.65
-0.83
-0.72
-0.23
0.59
1.61
2.66
3.58
4.21
4.53
4.56
4.37
4.07
3.71
3.37
3.06
2.74
2.35
1.91
1.41
0.93
0.57
0.36
0.29
0.31
0.33
0.28
0.14
-0.05
-0.26
-0.45
-0.59
-0.69
-0.77
-0.90
-1.17
-1.61
-2.24
-2.97
-3.65
-4.14
-4.33
-4.20
-3.78
-3.12
-2.27
-1.30
-0.31
0.59
1.27
1.66
1.76
1.62
1.30
0.83
0.20
-0.54
-1.26
-1.76
-1.86
-1.51
-0.86
-0.17
0.28
0.37
0.17
-0.13
-0.31
-0.25
-0.06
0.10
0.02
-0.39
-1.06
-1.87
-2.60
-3.11
-3.33
-3.25
-2.93
-2.44
-1.80
-0.98
0.01
1.16
2.35
3.38
4.08
4.33
4.16
3.70
3.14
2.58
2.06
1.50
0.85
0.12
-0.60
-1.18
-1.50
-1.52
-1.27
-0.81
-0.22
0.39
0.96
1.44
1.84
2.14
2.30
2.24
1.81
0.90
-0.47
-2.12
-3.72
-4.91
-5.46
-5.30
-4.59
-3.58
-2.52
-1.60
-0.87
-0.35
-0.02
0.13
0.10
-0.05
-0.25
-0.41
-0.49
-0.49
-0.46
-0.49
-0.60
-0.77
-0.92
-0.96
-0.87
-0.71
-0.60
-0.65
-0.89
-1.24
-1.61
-1.88
-2.03
-2.09
-2.09
-2.05
-1.92
-1.62
-1.09
-0.32
0.62
1.61
2.52
3.24
3.72
3.95
4.01
3.99
3.98
4.02
4.07
4.04
3.84
3.42
2.82
2.15
1.56
1.13
0.93
0.93
1.03
1.07
0.93
0.52
-0.13
-0.91
-1.63
-2.14
-2.39
-2.41
-2.35
-2.29
-2.28
-2.31
-2.32
-2.28
-2.21
-2.10
-1.96
-1.68
-1.11
-0.16
1.16
2.67
4.08
5.04
5.36
4.98
4.06
2.84
1.61
0.60
-0.04
-0.24
-0.02
0.53
1.20
1.75
1.96
1.71
1.04
0.15
-0.75
-1.45
-1.87
-2.02
-2.01
-1.97
-2.02
-2.19
-2.48
-2.82
-3.06
-3.07
-2.73
-1.97
-0.84
0.51
1.86
2.98
3.70
3.97
3.79
3.29
2.57
1.77
1.01
0.38
-0.03
-0.19
-0.15
0.01
0.14
0.13
-0.06
-0.36
-0.60
-0.62
-0.32
0.27
0.95
1.51
1.74
1.56
1.06
0.40
-0.28
-0.90
-1.50
-2.09
-2.64
-3.02
-3.04
-2.57
-1.65
-0.49
0.60
1.34
1.62
1.51
1.22
0.95
0.79
0.71
0.61
0.44
0.20
0.00
-0.07
0.03
0.25
0.46
0.58
0.52
0.25
-0.25
-0.92
-1.70
-2.43
-2.95
-3.14
-2.97
-2.54
-2.04
-1.68
-1.60
-1.85
-2.38
-3.03
-3.60
-3.84
-3.53
-2.59
-1.09
0.71
2.43
3.64
4.08
3.68
2.65
1.34
0.15
-0.63
-0.91
-0.74
-0.27
0.30
0.84
1.26
1.49
1.55
1.46
1.33
1.32
1.54
2.00
2.62
3.21
3.60
3.70
3.49
2.97
2.16
1.04
-0.32
-1.76
-3.03
-3.85
-4.03
-3.55
-2.59
-1.37
-0.14
0.95
1.81
2.38
2.61
2.48
2.02
1.31
0.51
-0.25
-0.85
-1.22
-1.32
-1.12
-0.67
-0.07
0.50
0.89
0.95
0.71
0.27
-0.16
-0.45
-0.53
-0.45
-0.33
-0.33
-0.52
-0.92
-1.46
-2.06
-2.59
-3.01
-3.30
-3.49
-3.65
-3.79
-3.89
-3.85
-3.49
-2.69
-1.35
0.50
2.71
5.04
7.14
8.70
9.46
9.33
8.40
6.96
5.38
4.05
3.16
2.76
2.72
2.87
3.08
3.26
3.36
3.29
2.96
2.33
1.50
0.67
0.09
-0.14
-0.04
0.14
0.11
-0.31
-1.13
-2.17
-3.20
-4.07
-4.74
-5.37
-6.08
-6.97
-7.91
-8.67
-8.93
-8.47
-7.25
-5.45
-3.46
-1.67
-0.40
0.20
0.16
-0.37
-1.19
-2.12
-3.05
-3.93
-4.73
-5.43
-5.91
-6.03
-5.67
-4.84
-3.74
-2.63
-1.76
-1.15
-0.66
-0.03
0.86
1.92
2.81
3.22
3.08
2.62
2.25
2.26
2.64
3.06
3.04
2.29
0.89
-0.78
-2.18
-2.91
-2.79
-1.91
-0.45
1.36
3.29
5.17
6.75
7.79
8.08
7.52
6.20
4.39
2.53
1.06
0.29
0.32
0.97
1.86
2.56
2.78
2.46
1.78
1.05
0.54
0.40
0.59
0.94
1.31
1.57
1.66
1.52
1.10
0.33
-0.78
-2.19
-3.77
-5.32
-6.59
-7.32
-7.25
-6.27
-4.45
-2.12
0.22
2.11
3.22
3.53
3.27
2.73
2.13
1.56
1.00
0.50
0.18
0.20
0.65
1.41
2.28
2.97
3.32
3.32
3.10
2.73
2.22
1.53
0.58
-0.54
-1.66
-2.52
-2.99
-3.07
-2.94
-2.83
-2.88
-3.11
-3.46
-3.78
-3.99
-4.04
-3.81
-3.22
-2.14
-0.53
1.49
3.63
5.52
6.83
7.40
7.25
6.54
5.46
4.20
2.87
1.58
0.45
-0.38
-0.81
-0.81
-0.43
0.16
0.76
1.16
1.24
0.97
0.44
-0.19
-0.76
-1.15
-1.30
-1.20
-0.93
-0.57
-0.25
-0.09
-0.20
-0.60
-1.21
-1.85
-2.27
-2.30
-1.89
-1.11
-0.14
0.83
1.65
2.23
2.54
2.58
2.34
1.89
1.30
0.68
0.14
-0.27
-0.51
-0.60
-0.54
-0.36
-0.03
0.45
1.00
1.50
1.81
1.83
1.50
0.88
0.06
-0.84
-1.71
-2.47
-3.10
-3.62
-4.04
-4.40
-4.69
-4.87
-4.87
-4.58
-3.93
-2.92
-1.65
-0.28
0.98
1.91
2.43
2.53
2.30
1.93
1.59
1.38
1.34
1.46
1.69
1.95
2.13
2.13
1.90
1.42
0.77
0.07
-0.52
-0.91
-1.08
-1.04
-0.87
-0.64
-0.47
-0.48
-0.78
-1.39
-2.18
-2.87
-3.16
-2.86
-1.99
-0.80
0.43
1.50
2.35
3.07
3.75
4.37
4.81
4.88
4.49
3.70
2.73
1.85
1.24
0.96
0.89
0.81
0.56
0.09
-0.54
-1.17
-1.65
-1.89
-1.94
-1.87
-1.80
-1.77
-1.79
-1.84
-1.92
-2.05
-2.27
-2.58
-2.94
-3.31
-3.60
-3.72
-3.58
-3.11
-2.27
-1.08
0.39
1.99
3.49
4.71
5.52
5.93
6.01
5.91
5.71
5.41
4.91
4.09
2.94
1.57
0.26
-0.72
-1.18
-1.20
-0.99
-0.89
-1.09
-1.60
-2.19
-2.61
-2.66
-2.34
-1.81
-1.29
-0.96
-0.88
-1.04
-1.39
-1.89
-2.47
-3.05
-3.46
-3.51
-3.07
-2.12
-0.81
0.61
1.87
2.75
3.16
3.14
2.80
2.26
1.62
1.02
0.54
0.23
0.09
0.11
0.22
0.38
0.54
0.67
0.76
0.78
0.74
0.67
0.58
0.46
0.29
0.02
-0.36
-0.76
-1.02
-0.98
-0.61
-0.06
0.39
0.42
-0.13
-1.16
-2.36
-3.36
-3.89
-3.85
-3.31
-2.42
-1.34
-0.21
0.78
1.45
1.62
1.22
0.40
-0.58
-1.36
-1.69
-1.53
-1.00
-0.28
0.45
1.15
1.83
2.44
2.90
3.07
2.83
2.19
1.27
0.23
-0.78
-1.66
-2.39
-2.89
-3.10
-2.96
-2.47
-1.74
-0.97
-0.39
-0.17
-0.38
-1.00
-1.91
-2.98
-4.02
-4.80
-5.08
-4.64
-3.43
-1.54
0.70
2.89
4.66
5.81
6.32
6.33
6.02
5.54
5.06
4.63
4.32
4.13
4.05
4.02
4.03
4.05
4.07
4.00
3.67
2.96
1.81
0.38
-1.04
-2.15
-2.79
-3.03
-3.11
-3.28
-3.63
-4.04
-4.27
-4.14
-3.67
-3.08
-2.69
-2.69
-3.06
-3.56
-3.86
-3.70
-3.02
-1.89
-0.56
0.79
1.97
2.87
3.38
3.43
3.03
2.26
1.35
0.55
0.02
-0.20
-0.21
-0.15
-0.12
-0.11
0.01
0.36
1.03
2.00
3.09
4.07
4.69
4.78
4.37
3.61
2.76
2.01
1.44
0.95
0.40
-0.30
-1.12
-1.90
-2.49
-2.77
-2.76
-2.49
-1.97
-1.17
-0.05
1.32
2.73
3.84
4.31
3.95
2.85
1.26
-0.47
-2.03
-3.26
-4.09
-4.55
-4.66
-4.49
-4.14
-3.78
-3.62
-3.79
-4.33
-5.14
-5.97
-6.55
-6.62
-6.03
-4.86
-3.37
-1.99
-1.21
-1.41
-2.69
-4.82
-7.31
-9.60
-11.30
-12.29
-12.73
-12.90
-13.09
-13.44
-13.93
-14.38
-14.49
-13.93
-12.49
-10.16
-7.27
-4.43
-2.30
-1.28
-1.22
-1.53
-1.37
-0.20
1.94
4.34
6.00
6.00
4.01
0.31
-4.32
-9.03
-13.01
-15.77
-17.16
-17.40
-17.06
-17.08
-18.50
-22.04
-27.56
-33.67
-38.02
-37.96
-31.80
-19.77
-4.26
10.83
21.60
25.70
23.23
16.49
8.82
3.11
0.64
1.04
2.93
5.02
6.77
8.56
11.06
14.60
18.79
22.48
24.35
23.44
19.63
13.69
7.10
1.52
-1.67
-1.78
1.02
5.84
11.35
16.20
19.36
20.32
19.14
16.24
12.26
7.87
3.66
0.11
-2.39
-3.60
-3.52
-2.39
-0.67
1.05
2.21
2.53
2.04
1.11
0.11
-0.67
-1.21
-1.69
-2.28
-3.02
-3.76
-4.29
-4.40
-3.97
-2.89
-1.00
1.95
6.14
11.40
17.11
22.19
25.43
25.96
23.70
19.48
14.85
11.54
10.78
12.90
17.14
21.98
25.69
26.89
24.98
20.23
13.70
6.83
1.04
-2.65
-3.95
-3.26
-1.56
0.03
0.66
0.11
-1.29
-2.80
-3.77
-3.86
-3.19
-2.16
-1.18
-0.45
0.16
0.95
2.23
4.07
6.33
8.60
10.49
11.84
12.80
13.79
15.34
17.73
20.86
24.20
27.00
28.61
28.70
27.33
24.89
21.89
18.89
16.38
14.73
14.00
13.78
13.11
10.68
5.27
-3.59
-15.09
-27.14
-36.83
-41.56
-39.99
-32.79
-22.48
-12.51
-6.01
-4.67
-8.32
-15.24
-23.04
-29.66
-33.86
-35.30
-34.27
-31.35
-27.23
-22.73
-18.80
-16.30
-15.68
-16.75
-18.66
-20.23
-20.46
-18.90
-15.83
-12.04
-8.45
-5.72
-4.01
-3.07
-2.32
-1.24
0.44
2.63
5.00
7.11
8.61
9.32
9.18
8.18
6.45
4.26
2.16
0.81
0.80
2.27
4.77
7.35
9.00
9.04
7.47
4.88
2.14
0.03
-1.14
-1.41
-1.11
-0.53
0.19
1.05
2.11
3.31
4.42
5.15
5.30
4.91
4.26
3.73
3.59
3.82
4.16
4.24
3.88
3.20
2.56
2.36
2.71
3.42
4.03
4.22
3.92
3.44
3.20
3.47
4.16
4.88
5.16
4.75
3.73
2.44
1.27
0.41
-0.19
-0.70
-1.27
-1.88
-2.38
-2.55
-2.25
-1.48
-0.40
0.77
1.77
2.37
2.51
2.25
1.80
1.37
1.08
0.92
0.75
0.45
0.01
-0.44
-0.68
-0.56
-0.08
0.55
1.08
1.29
1.17
0.85
0.55
0.41
0.43
0.52
0.56
0.51
0.44
0.44
0.58
0.80
0.95
0.93
0.71
0.43
0.29
0.42
0.81
1.30
1.70
1.91
1.97
2.00
2.12
2.36
2.58
2.62
2.37
1.85
1.19
0.52
-0.07
-0.61
-1.17
-1.80
-2.42
-2.91
-3.09
-2.90
-2.39
-1.74
-1.18
-0.86
-0.82
-1.01
-1.33
-1.68
-1.99
-2.21
-2.33
-2.34
-2.26
-2.12
-1.97
-1.86
-1.78
-1.74
-1.70
-1.63
-1.51
-1.33
-1.06
-0.63
-0.02
0.69
1.36
1.80
1.88
1.58
1.02
0.40
-0.14
-0.56
-0.96
-1.43
-1.99
-2.52
-2.83
-2.78
-2.36
-1.73
-1.14
-0.74
-0.54
-0.42
-0.24
0.02
0.24
0.27
0.05
-0.35
-0.70
-0.79
-0.57
-0.16
0.20
0.32
0.19
-0.06
-0.22
-0.17
0.07
0.33
0.46
0.43
0.35
0.43
0.83
1.55
2.40
3.08
3.34
3.10
2.43
1.54
0.62
-0.19
-0.91
-1.51
-2.04
-2.41
-2.55
-2.41
-2.04
-1.59
-1.25
-1.12
-1.18
-1.35
-1.48
-1.51
-1.41
-1.26
-1.13
-1.05
-1.05
-1.10
-1.17
-1.30
-1.51
-1.82
-2.20
-2.55
-2.78
-2.81
-2.62
-2.32
-2.01
-1.75
-1.54
-1.25
-0.77
-0.09
0.66
1.26
1.51
1.35
0.90
0.40
0.06
-0.04
0.03
0.08
-0.01
-0.27
-0.56
-0.69
-0.49
0.06
0.88
1.74
2.44
2.86
2.95
2.81
2.51
2.12
1.64
1.07
0.40
-0.32
-1.05
-1.77
-2.48
-3.23
-3.99
-4.67
-5.09
-5.08
-4.55
-3.56
-2.34
-1.19
-0.37
0.03
0.09
-0.00
-0.03
0.08
0.30
0.52
0.65
0.69
0.73
0.81
0.91
0.94
0.80
0.51
0.16
-0.06
-0.09
0.00
0.07
-0.03
-0.31
-0.63
-0.84
-0.84
-0.69
-0.55
-0.57
-0.76
-1.04
-1.23
-1.20
-0.95
-0.53
-0.02
0.59
1.30
2.12
2.97
3.67
4.04
3.96
3.49
2.82
2.17
1.70
1.39
1.13
0.82
0.42
-0.02
-0.36
-0.53
-0.56
-0.53
-0.52
-0.54
-0.54
-0.48
-0.37
-0.28
-0.31
-0.52
-0.93
-1.52
-2.21
-2.93
-3.60
-4.13
-4.41
-4.35
-3.90
-3.11
-2.08
-0.97
0.11
1.07
1.82
2.28
2.36
2.02
1.30
0.37
-0.53
-1.14
-1.30
-1.00
-0.33
0.53
1.45
2.34
3.13
3.74
4.03
3.88
3.27
2.31
1.27
0.41
-0.13
-0.41
-0.64
-1.07
-1.82
-2.84
-3.91
-4.78
-5.28
-5.36
-5.11
-4.61
-3.97
-3.21
-2.39
-1.56
-0.79
-0.21
0.12
0.18
0.11
0.06
0.23
0.66
1.30
1.98
2.53
2.88
3.09
3.28
3.55
3.90
4.20
4.28
4.05
3.55
2.91
2.27
1.64
0.97
0.20
-0.71
-1.63
-2.40
-2.86
-2.94
-2.70
-2.28
-1.82
-1.39
-0.95
-0.40
0.34
1.25
2.21
2.98
3.39
3.36
2.93
2.31
1.70
1.26
1.01
0.92
0.92
0.99
1.16
1.45
1.85
2.23
2.39
2.22
1.71
1.00
0.30
-0.21
-0.54
-0.86
-1.35
-2.11
-3.08
-4.03
-4.76
-5.16
-5.27
-5.21
-5.04
-4.67
-3.96
-2.77
-1.18
0.55
2.01
2.92
3.17
2.89
2.38
1.88
1.47
1.11
0.69
0.14
-0.42
-0.80
-0.84
-0.52
-0.01
0.41
0.46
0.03
-0.74
-1.61
-2.24
-2.44
-2.20
-1.67
-1.12
-0.79
-0.80
-1.16
-1.73
-2.36
-2.93
-3.37
-3.64
-3.74
-3.63
-3.29
-2.74
-2.06
-1.40
-0.88
-0.55
-0.37
-0.24
-0.09
0.11
0.29
0.39
0.38
0.30
0.21
0.15
0.09
0.00
-0.14
-0.31
-0.40
-0.31
-0.03
0.43
0.96
1.49
1.95
2.26
2.35
2.10
1.41
0.29
-1.07
-2.37
-3.23
-3.42
-2.93
-1.95
-0.82
0.21
0.99
1.59
2.13
2.65
3.06
3.17
2.81
1.98
0.91
-0.02
-0.46
-0.24
0.52
1.51
2.37
2.91
3.12
3.15
3.19
3.27
3.31
3.16
2.74
2.09
1.33
0.61
-0.06
-0.75
-1.56
-2.49
-3.38
-3.95
-3.93
-3.27
-2.12
-0.81
0.34
1.14
1.58
1.79
1.88
1.90
1.79
1.50
1.05
0.61
0.39
0.54
1.04
1.68
2.20
2.37
2.17
1.69
1.13
0.60
0.16
-0.25
-0.67
-1.10
-1.55
-1.98
-2.38
-2.75
-3.07
-3.26
-3.25
-3.03
-2.68
-2.34
-2.11
-1.97
-1.79
-1.42
-0.83
-0.18
0.29
0.41
0.20
-0.13
-0.33
-0.25
0.04
0.30
0.28
-0.10
-0.71
-1.31
-1.63
-1.59
-1.27
-0.86
-0.56
-0.47
-0.56
-0.73
-0.83
-0.79
-0.59
-0.32
-0.09
-0.03
-0.22
-0.63
-1.11
-1.50
-1.59
-1.33
-0.80
-0.18
0.33
0.59
0.58
0.40
0.13
-0.14
-0.38
-0.59
-0.74
-0.76
-0.62
-0.31
0.09
0.53
0.93
1.28
1.64
2.04
2.47
2.88
3.18
3.25
3.05
2.61
1.96
1.20
0.40
-0.39
-1.14
-1.82
-2.38
-2.75
-2.83
-2.55
-1.91
-0.98
0.07
1.05
1.80
2.22
2.32
2.18
1.89
1.54
1.16
0.73
0.25
-0.22
-0.60
-0.76
-0.66
-0.37
-0.02
0.23
0.29
0.18
-0.00
-0.16
-0.25
-0.28
-0.29
-0.29
-0.28
-0.26
-0.26
-0.36
-0.62
-1.07
-1.60
-2.06
-2.24
-2.01
-1.36
-0.38
0.76
1.87
2.77
3.39
3.67
3.59
3.14
2.37
1.39
0.33
-0.62
-1.36
-1.83
-2.07
-2.16
-2.15
-2.08
-1.98
-1.88
-1.82
-1.83
-1.88
-1.92
-1.85
-1.60
-1.20
-0.75
-0.40
-0.24
-0.29
-0.47
-0.67
-0.80
-0.82
-0.80
-0.81
-0.91
-1.04
-1.06
-0.80
-0.17
0.80
1.93
2.99
3.74
4.09
4.06
3.78
3.38
2.98
2.60
2.24
1.85
1.40
0.87
0.29
-0.24
-0.63
-0.81
-0.72
-0.42
0.02
0.49
0.91
1.24
1.45
1.53
1.48
1.33
1.13
0.95
0.85
0.82
0.75
0.52
0.02
-0.72
-1.54
-2.21
-2.55
-2.47
-2.02
-1.34
-0.56
0.22
0.95
1.58
2.04
2.26
2.19
1.89
1.50
1.18
1.04
1.06
1.14
1.17
1.07
0.81
0.46
0.07
-0.33
-0.71
-1.06
-1.36
-1.57
-1.69
-1.78
-1.94
-2.27
-2.77
-3.35
-3.84
-4.08
-4.05
-3.86
-3.68
-3.65
-3.78
-3.93
-3.89
-3.49
-2.66
-1.47
-0.09
1.29
2.48
3.36
3.84
3.89
3.57
3.00
2.35
1.79
1.40
1.23
1.22
1.26
1.25
1.16
1.01
0.90
0.95
1.20
1.61
2.05
2.36
2.48
2.39
2.15
1.82
1.38
0.82
0.14
-0.56
-1.14
-1.46
-1.53
-1.45
-1.42
-1.60
-1.99
-2.46
-2.77
-2.70
-2.18
-1.26
-0.09
1.12
2.21
3.06
3.63
3.85
3.71
3.20
2.42
1.53
0.74
0.20
-0.02
0.04
0.28
0.55
0.78
0.92
0.99
1.04
1.13
1.29
1.54
1.83
2.10
2.29
2.37
2.40
2.46
2.63
2.93
3.29
3.59
3.72
3.65
3.42
3.11
2.84
2.68
2.70
2.91
3.29
3.84
4.57
5.51
6.66
7.95
9.27
10.39
11.02
10.87
9.77
7.77
5.11
2.18
-0.61
-3.01
-4.92
-6.36
-7.37
-8.01
-8.25
-8.12
-7.72
-7.22
-6.77
-6.45
-6.27
-6.14
-6.02
-5.86
-5.67
-5.46
-5.20
-4.85
-4.40
-3.92
-3.48
-3.18
-3.00
-2.89
-2.79
-2.67
-2.58
-2.60
-2.80
-3.18
-3.66
-4.13
-4.49
-4.70
-4.78
-4.77
-4.68
-4.47
-4.11
-3.57
-2.85
-2.01
-1.13
-0.27
0.52
1.17
1.63
1.82
1.75
1.48
1.11
0.81
0.72
0.87
1.21
1.60
1.91
2.05
1.99
1.77
1.46
1.14
0.84
0.61
0.47
0.43
0.45
0.50
0.46
0.26
-0.13
-0.67
-1.29
-1.86
-2.30
-2.58
-2.73
-2.79
-2.84
-2.94
-3.17
-3.53
-4.02
-4.52
-4.89
-4.93
-4.51
-3.55
-2.14
-0.48
1.17
2.52
3.38
3.65
3.43
2.92
2.35
1.88
1.56
1.31
1.01
0.61
0.20
-0.08
-0.08
0.23
0.75
1.31
1.75
1.96
1.94
1.73
1.37
0.88
0.26
-0.42
-1.07
-1.57
-1.84
-1.87
-1.68
-1.35
-0.96
-0.57
-0.25
-0.07
-0.11
-0.38
-0.83
-1.33
-1.70
-1.84
-1.70
-1.30
-0.69
0.06
0.90
1.75
2.48
2.97
3.16
3.05
2.76
2.40
2.08
1.82
1.58
1.35
1.12
0.91
0.73
0.57
0.38
0.12
-0.15
-0.38
-0.50
-0.50
-0.47
-0.52
-0.76
-1.21
-1.80
-2.43
-2.99
-3.40
-3.64
-3.72
-3.69
-3.62
-3.63
-3.77
-4.06
-4.37
-4.48
-4.20
-3.40
-2.14
-0.57
1.04
2.51
3.70
4.57
5.10
5.29
5.15
4.70
3.99
3.16
2.38
1.79
1.46
1.34
1.31
1.18
0.86
0.35
-0.21
-0.64
-0.78
-0.60
-0.26
0.06
0.17
0.04
-0.25
-0.50
-0.58
-0.43
-0.15
0.03
-0.10
-0.64
-1.48
-2.35
-2.87
-2.77
-1.99
-0.70
0.72
1.91
2.66
2.93
2.85
2.59
2.25
1.81
1.24
0.53
-0.23
-0.89
-1.35
-1.59
-1.66
-1.70
-1.77
-1.89
-2.00
-2.03
-1.91
-1.64
-1.25
-0.82
-0.43
-0.16
-0.06
-0.12
-0.26
-0.38
-0.38
-0.23
0.01
0.19
0.18
-0.10
-0.62
-1.18
-1.58
-1.60
-1.15
-0.27
0.91
2.22
3.49
4.58
5.37
5.82
5.92
5.70
5.30
4.80
4.33
3.90
3.48
3.02
2.49
1.94
1.46
1.11
0.89
0.76
0.60
0.32
-0.11
-0.65
-1.20
-1.63
-1.87
-1.84
-1.55
-1.09
-0.59
-0.23
-0.20
-0.60
-1.38
-2.41
-3.45
-4.29
-4.79
-4.88
-4.58
-3.96
-3.11
-2.15
-1.24
-0.51
-0.09
0.03
-0.07
-0.24
-0.27
-0.08
0.35
0.90
1.46
1.87
2.05
1.99
1.67
1.15
0.50
-0.17
-0.71
-0.99
-0.97
-0.65
-0.18
0.26
0.47
0.32
-0.19
-0.97
-1.86
-2.67
-3.26
-3.53
-3.47
-3.11
-2.53
-1.84
-1.13
-0.51
-0.01
0.37
0.66
0.96
1.34
1.85
2.46
3.07
3.57
3.82
3.76
3.36
2.70
1.85
0.98
0.20
-0.35
-0.61
-0.54
-0.18
0.35
0.87
1.19
1.16
0.73
-0.02
-0.96
-1.95
-2.95
-3.99
-5.04
-6.04
-6.71
-6.77
-5.98
-4.35
-2.18
0.05
1.88
3.00
3.38
3.18
2.63
1.95
1.27
0.64
0.08
-0.37
-0.65
-0.72
-0.60
-0.39
-0.23
-0.21
-0.36
-0.60
-0.80
-0.82
-0.66
-0.37
-0.11
0.01
-0.09
-0.42
-0.92
-1.55
-2.31
-3.20
-4.15
-5.01
-5.52
-5.45
-4.68
-3.29
-1.52
0.27
1.75
2.80
3.47
3.89
4.21
4.43
4.48
4.26
3.79
3.24
2.84
2.77
3.06
3.56
4.04
4.35
4.41
4.30
4.10
3.89
3.63
3.26
2.72
2.02
1.23
0.45
-0.26
-0.85
-1.34
-1.78
-2.18
-2.49
-2.61
-2.42
-1.82
-0.88
0.24
1.31
2.11
2.48
2.39
1.89
1.10
0.18
-0.70
-1.44
-1.94
-2.16
-2.11
-1.83
-1.41
-0.94
-0.54
-0.28
-0.18
-0.22
-0.35
-0.52
-0.71
-0.95
-1.27
-1.64
-1.98
-2.19
-2.22
-2.08
-1.85
-1.59
-1.24
-0.66
0.30
1.65
3.19
4.58
5.46
5.67
5.29
4.53
3.65
2.76
1.87
0.93
-0.05
-0.96
-1.64
-1.96
-1.96
-1.81
-1.71
-1.79
-2.00
-2.21
-2.24
-1.98
-1.49
-0.98
-0.75
-0.98
-1.73
-2.84
-3.99
-4.85
-5.20
-5.00
-4.32
-3.31
-2.11
-0.79
0.57
1.86
2.91
3.51
3.53
2.98
2.03
0.94
-0.04
-0.73
-1.10
-1.17
-1.06
-0.86
-0.60
-0.32
-0.01
0.33
0.67
0.95
1.10
1.04
0.72
0.20
-0.38
-0.90
-1.27
-1.49
-1.65
-1.82
-2.00
-2.08
-1.85
-1.14
0.09
1.65
3.23
4.54
5.44
6.01
6.42
6.76
6.98
6.85
6.13
4.76
2.97
1.14
-0.32
-1.20
-1.52
-1.48
-1.31
-1.17
-1.11
-1.12
-1.19
-1.34
-1.53
-1.71
-1.76
-1.60
-1.25
-0.80
-0.42
-0.27
-0.43
-0.93
-1.71
-2.65
-3.56
-4.17
-4.24
-3.58
-2.13
-0.10
2.13
4.09
5.35
5.70
5.20
4.12
2.82
1.63
0.76
0.25
0.07
0.14
0.37
0.70
1.08
1.43
1.68
1.76
1.69
1.50
1.26
1.05
0.86
0.71
0.53
0.26
-0.15
-0.72
-1.42
-2.15
-2.87
-3.53
-4.21
-4.96
-5.80
-6.60
-7.16
-7.24
-6.61
-5.22
-3.17
-0.71
1.77
3.88
5.30
5.91
5.75
5.04
4.04
2.99
2.02
1.18
0.53
0.14
0.11
0.47
1.12
1.87
2.47
2.78
2.79
2.61
2.39
2.19
1.98
1.63
1.04
0.23
-0.64
-1.38
-1.85
-2.05
-2.11
-2.22
-2.47
-2.83
-3.20
-3.47
-3.56
-3.52
-3.43
-3.32
-3.13
-2.73
-2.00
-0.92
0.40
1.77
2.95
3.76
4.11
4.00
3.48
2.64
1.55
0.29
-0.97
-2.04
-2.72
-2.85
-2.41
-1.52
-0.43
0.55
1.25
1.59
1.64
1.55
1.45
1.43
1.49
1.59
1.71
1.82
1.88
1.86
1.66
1.20
0.47
-0.46
-1.40
-2.18
-2.64
-2.74
-2.51
-1.97
-1.14
-0.03
1.29
2.63
3.73
4.30
4.19
3.44
2.31
1.15
0.24
-0.33
-0.64
-0.82
-0.96
-1.00
-0.85
-0.40
0.28
1.00
1.52
1.68
1.49
1.16
0.91
0.88
1.03
1.18
1.18
0.99
0.70
0.46
0.35
0.32
0.21
-0.12
-0.74
-1.56
-2.43
-3.19
-3.73
-4.00
-4.01
-3.74
-3.18
-2.34
-1.26
-0.10
0.95
1.70
1.99
1.84
1.38
0.81
0.33
0.08
0.06
0.15
0.24
0.19
-0.02
-0.33
-0.67
-0.96
-1.13
-1.14
-0.96
-0.58
-0.02
0.63
1.23
1.60
1.64
1.41
1.07
0.82
0.78
0.88
0.94
0.75
0.24
-0.47
-1.16
-1.66
-1.92
-2.05
-2.14
-2.21
-2.17
-1.87
-1.23
-0.32
0.72
1.74
2.66
3.47
4.16
4.68
4.90
4.71
4.09
3.21
2.34
1.79
1.74
2.20
2.94
3.67
4.09
4.09
3.76
3.31
3.04
3.13
3.60
4.26
4.90
5.28
5.27
4.93
4.37
3.76
3.19
2.65
2.07
1.37
0.50
-0.53
-1.67
-2.85
-4.02
-5.11
-6.07
-6.84
-7.36
-7.61
-7.62
-7.47
-7.23
-7.00
-6.81
-6.69
-6.59
-6.50
-6.34
-5.99
-5.35
-4.34
-2.98
-1.42
0.12
1.41
2.29
2.72
2.72
2.41
1.91
1.31
0.74
0.28
0.03
0.05
0.33
0.79
1.31
1.73
1.92
1.80
1.37
0.70
-0.09
-0.87
-1.57
-2.13
-2.54
-2.79
-2.89
-2.82
-2.62
-2.33
-2.02
-1.78
-1.66
-1.69
-1.84
-2.04
-2.19
-2.20
-2.06
-1.81
-1.56
-1.38
-1.29
-1.21
-1.05
-0.72
-0.26
0.21
0.52
0.56
0.39
0.14
-0.01
0.02
0.26
0.59
0.92
1.17
1.35
1.48
1.59
1.69
1.75
1.77
1.79
1.88
2.06
2.29
2.47
2.46
2.20
1.69
1.04
0.45
0.07
-0.06
0.03
0.20
0.27
0.13
-0.24
-0.79
-1.40
-1.93
-2.25
-2.23
-1.83
-1.04
0.05
1.24
2.33
3.13
3.51
3.51
3.25
2.90
2.60
2.38
2.17
1.89
1.49
1.02
0.62
0.41
0.40
0.50
0.54
0.41
0.12
-0.21
-0.42
-0.45
-0.36
-0.32
-0.44
-0.73
-1.05
-1.23
-1.16
-0.89
-0.57
-0.41
-0.50
-0.84
-1.34
-1.91
-2.50
-3.15
-3.83
-4.44
-4.80
-4.71
-4.05
-2.93
-1.57
-0.27
0.77
1.47
1.88
2.06
2.03
1.80
1.38
0.86
0.38
0.08
-0.00
0.11
0.34
0.62
0.92
1.23
1.52
1.73
1.80
1.67
1.38
1.00
0.62
0.28
-0.00
-0.23
-0.40
-0.45
-0.37
-0.22
-0.10
-0.14
-0.38
-0.77
-1.12
-1.22
-0.89
-0.11
1.02
2.26
3.36
4.13
4.52
4.56
4.33
3.90
3.29
2.56
1.72
0.80
-0.12
-0.98
-1.69
-2.17
-2.33
-2.17
-1.73
-1.14
-0.57
-0.17
-0.06
-0.30
-0.81
-1.46
-2.10
-2.57
-2.81
-2.82
-2.67
-2.45
-2.28
-2.23
-2.33
-2.54
-2.80
-2.98
-2.99
-2.71
-2.11
-1.17
0.07
1.48
2.90
4.10
4.87
5.05
4.66
3.89
2.99
2.28
1.95
2.00
2.31
2.71
3.02
3.14
2.98
2.47
1.55
0.28
-1.18
-2.51
-3.38
-3.60
-3.15
-2.22
-1.08
0.03
0.92
1.46
1.51
0.92
-0.37
-2.22
-4.24
-5.83
-6.42
-5.68
-3.72
-1.01
1.70
3.77
4.83
4.85
4.08
2.87
1.54
0.31
-0.68
-1.31
-1.51
-1.24
-0.57
0.31
1.12
1.61
1.65
1.31
0.80
0.34
0.07
-0.02
-0.09
-0.28
-0.68
-1.24
-1.84
-2.40
-2.88
-3.31
-3.69
-3.95
-3.93
-3.54
-2.76
-1.77
-0.77
0.09
0.81
1.45
2.09
2.64
2.90
2.68
1.95
0.92
-0.06
-0.65
-0.72
-0.39
0.13
0.62
1.08
1.57
2.13
2.71
3.10
3.10
2.63
1.80
0.84
-0.03
-0.72
-1.30
-1.92
-2.62
-3.31
-3.81
-3.94
-3.63
-2.99
-2.19
-1.40
-0.67
0.03
0.74
1.40
1.95
2.28
2.37
2.27
2.08
1.87
1.64
1.35
0.95
0.45
-0.04
-0.42
-0.58
-0.50
-0.23
0.16
0.58
0.96
1.21
1.24
0.96
0.34
-0.53
-1.52
-2.40
-3.01
-3.28
-3.21
-2.89
-2.41
-1.85
-1.29
-0.78
-0.39
-0.13
0.04
0.17
0.29
0.39
0.42
0.30
-0.00
-0.43
-0.88
-1.21
-1.33
-1.19
-0.83
-0.35
0.15
0.52
0.72
0.73
0.64
0.54
0.51
0.51
0.43
0.12
-0.45
-1.23
-2.01
-2.52
-2.56
-2.06
-1.17
-0.11
0.86
1.56
1.99
2.26
2.50
2.73
2.87
2.80
2.42
1.84
1.24
0.87
0.86
1.12
1.47
1.69
1.68
1.51
1.34
1.32
1.44
1.64
1.78
1.72
1.45
0.98
0.36
-0.41
-1.30
-2.26
-3.19
-3.90
-4.25
-4.08
-3.42
-2.38
-1.15
0.09
1.17
2.00
2.48
2.55
2.18
1.39
0.31
-0.85
-1.83
-2.46
-2.70
-2.65
-2.48
-2.31
-2.19
-2.04
-1.79
-1.38
-0.87
-0.35
0.06
0.31
0.41
0.42
0.41
0.38
0.31
0.10
-0.27
-0.75
-1.23
-1.55
-1.56
-1.20
-0.48
0.47
1.47
2.33
2.91
3.18
3.15
2.89
2.48
1.97
1.41
0.84
0.36
0.05
-0.05
0.04
0.25
0.45
0.61
0.72
0.83
0.97
1.14
1.28
1.35
1.31
1.14
0.85
0.43
-0.10
-0.73
-1.43
-2.12
-2.70
-3.06
-3.17
-3.02
-2.70
-2.29
-1.85
-1.38
-0.81
-0.11
0.73
1.62
2.43
3.00
3.27
3.26
3.06
2.78
2.41
1.95
1.38
0.79
0.31
0.11
0.26
0.69
1.25
1.73
2.05
2.20
2.25
2.26
2.17
1.90
1.39
0.65
-0.18
-0.91
-1.41
-1.64
-1.68
-1.69
-1.78
-2.01
-2.37
-2.75
-3.10
-3.37
-3.53
-3.56
-3.40
-3.02
-2.34
-1.38
-0.25
0.83
1.60
1.87
1.57
0.81
-0.17
-1.09
-1.77
-2.14
-2.24
-2.15
-1.94
-1.60
-1.12
-0.49
0.26
1.01
1.64
2.06
2.25
2.23
2.11
1.97
1.81
1.57
1.15
0.51
-0.27
-0.97
-1.34
-1.22
-0.67
0.03
0.53
0.58
0.19
-0.38
-0.78
-0.76
-0.27
0.52
1.35
2.07
2.66
3.21
3.79
4.32
4.60
4.37
3.54
2.27
0.92
-0.16
-0.73
-0.79
-0.54
-0.21
0.03
0.11
0.10
0.04
-0.04
-0.16
-0.30
-0.43
-0.48
-0.41
-0.20
0.08
0.36
0.54
0.53
0.32
-0.04
-0.45
-0.81
-1.09
-1.37
-1.82
-2.56
-3.56
-4.62
-5.42
-5.61
-5.06
-3.80
-2.04
-0.08
1.78
3.31
4.30
4.65
4.32
3.44
2.24
1.02
0.06
-0.49
-0.58
-0.27
0.31
1.02
1.72
2.28
2.63
2.73
2.63
2.42
2.18
1.97
1.84
1.75
1.61
1.34
0.84
0.10
-0.85
-1.88
-2.84
-3.64
-4.27
-4.83
-5.41
-6.03
-6.56
-6.78
-6.48
-5.55
-4.13
-2.45
-0.87
0.41
1.28
1.79
2.04
2.12
2.07
1.88
1.58
1.25
0.97
0.87
1.00
1.33
1.79
2.24
2.57
2.72
2.69
2.53
2.32
2.11
1.90
1.66
1.37
1.01
0.63
0.28
0.00
-0.22
-0.42
-0.62
-0.85
-1.09
-1.30
-1.45
-1.49
-1.39
-1.08
-0.53
0.24
1.13
1.94
2.46
2.52
2.08
1.28
0.33
-0.54
-1.15
-1.45
-1.48
-1.34
-1.13
-0.92
-0.71
-0.51
-0.31
-0.15
-0.05
-0.05
-0.10
-0.15
-0.15
-0.11
-0.07
-0.10
-0.25
-0.53
-0.89
-1.31
-1.74
-2.19
-2.61
-2.90
-2.93
-2.62
-1.99
-1.15
-0.28
0.46
1.03
1.49
1.95
2.46
3.00
3.42
3.58
3.39
2.87
2.11
1.27
0.41
-0.40
-1.12
-1.67
-1.93
-1.83
-1.40
-0.80
-0.32
-0.21
-0.61
-1.43
-2.42
-3.22
-3.59
-3.52
-3.20
-2.94
-2.97
-3.31
-3.76
-4.02
-3.88
-3.27
-2.38
-1.44
-0.65
-0.06
0.41
0.88
1.38
1.87
2.24
2.36
2.18
1.73
1.13
0.51
0.05
-0.11
0.13
0.75
1.61
2.54
3.32
3.79
3.91
3.71
3.28
2.71
2.11
1.52
0.95
0.38
-0.21
-0.81
-1.38
-1.83
-2.09
-2.14
-2.03
-1.85
-1.64
-1.35
-0.86
-0.08
0.98
2.12
3.06
3.54
3.46
2.96
2.30
1.72
1.36
1.17
1.03
0.82
0.54
0.27
0.09
0.04
-0.00
-0.17
-0.56
-1.10
-1.60
-1.85
-1.76
-1.43
-1.12
-1.12
-1.60
-2.53
-3.69
-4.80
-5.59
-5.94
-5.80
-5.25
-4.36
-3.21
-1.90
-0.52
0.85
2.11
3.18
4.00
4.55
4.80
4.82
4.68
4.48
4.30
4.15
3.97
3.69
3.27
2.72
2.13
1.55
1.02
0.49
-0.05
-0.59
-1.01
-1.22
-1.19
-1.05
-1.03
-1.35
-2.06
-2.95
-3.70
-3.98
-3.66
-2.87
-1.84
-0.86
-0.05
0.55
0.94
1.09
0.93
0.46
-0.22
-0.86
-1.26
-1.30
-1.06
-0.69
-0.31
0.08
0.57
1.20
1.87
2.35
2.41
1.98
1.24
0.51
0.09
0.08
0.32
0.54
0.45
-0.03
-0.79
-1.58
-2.13
-2.32
-2.17
-1.79
-1.30
-0.73
-0.01
0.91
1.97
3.00
3.72
3.92
3.54
2.73
1.74
0.86
0.25
-0.02
0.04
0.40
1.00
1.72
2.37
2.71
2.59
2.03
1.21
0.44
-0.04
-0.16
-0.04
0.09
0.06
-0.19
-0.59
-1.02
-1.45
-1.90
-2.41
-3.01
-3.58
-3.92
-3.84
-3.23
-2.11
-0.65
0.92
2.30
3.29
3.74
3.67
3.20
2.52
1.86
1.35
1.05
0.90
0.84
0.79
0.74
0.66
0.52
0.33
0.08
-0.16
-0.30
-0.26
-0.06
0.23
0.50
0.68
0.78
0.87
1.07
1.38
1.76
2.09
2.31
2.36
2.23
1.95
1.49
0.85
0.12
-0.54
-0.95
-0.93
-0.50
0.14
0.70
0.89
0.58
-0.13
-1.03
-1.85
-2.45
-2.85
-3.16
-3.45
-3.72
-3.86
-3.73
-3.27
-2.57
-1.82
-1.27
-1.03
-1.11
-1.34
-1.53
-1.52
-1.24
-0.76
-0.19
0.31
0.62
0.68
0.50
0.17
-0.20
-0.52
-0.79
-1.05
-1.36
-1.68
-1.89
-1.78
-1.21
-0.21
1.02
2.18
3.03
3.49
3.67
3.72
3.73
3.63
3.30
2.64
1.67
0.56
-0.48
-1.27
-1.75
-1.92
-1.83
-1.52
-1.06
-0.58
-0.22
-0.11
-0.27
-0.64
-1.05
-1.38
-1.58
-1.67
-1.68
-1.59
-1.35
-0.95
-0.49
-0.17
-0.17
-0.56
-1.18
-1.72
-1.85
-1.40
-0.42
0.85
2.10
3.08
3.67
3.86
3.69
3.21
2.48
1.60
0.69
-0.11
-0.74
-1.22
-1.62
-2.01
-2.40
-2.70
-2.79
-2.56
-2.01
-1.26
-0.46
0.23
0.74
1.09
1.28
1.31
1.12
0.68
0.03
-0.65
-1.14
-1.25
-0.91
-0.26
0.46
0.98
1.18
1.10
0.92
0.87
1.09
1.59
2.29
3.00
3.58
3.89
3.83
3.38
2.57
1.46
0.24
-0.89
-1.71
-2.06
-1.94
-1.47
-0.90
-0.51
-0.45
-0.79
-1.41
-2.11
-2.67
-2.97
-2.94
-2.60
-2.00
-1.25
-0.53
-0.02
0.05
-0.42
-1.35
-2.50
-3.49
-4.00
-3.85
-3.07
-1.89
-0.56
0.70
1.78
2.61
3.15
3.34
3.16
2.64
1.95
1.30
0.93
0.92
1.23
1.64
1.89
1.78
1.27
0.46
-0.40
-1.07
-1.38
-1.30
-0.95
-0.56
-0.35
-0.45
-0.84
-1.37
-1.84
-2.16
-2.33
-2.49
-2.77
-3.16
-3.52
-3.58
-3.12
-2.11
-0.72
0.70
1.80
2.41
2.56
2.48
2.47
2.68
3.06
3.40
3.51
3.31
2.92
2.53
2.27
2.13
1.98
1.66
1.13
0.54
0.07
-0.10
0.03
0.27
0.34
0.00
-0.83
-2.04
-3.36
-4.54
-5.40
-5.90
-6.11
-6.11
-5.97
-5.64
-5.07
-4.29
-3.38
-2.47
-1.66
-0.96
-0.31
0.37
1.07
1.75
2.28
2.59
2.68
2.63
2.51
2.40
2.30
2.18
2.01
1.78
1.55
1.37
1.26
1.26
1.31
1.37
1.36
1.24
1.01
0.71
0.38
0.01
-0.46
-1.11
-1.98
-2.99
-3.95
-4.67
-4.97
-4.79
-4.18
-3.27
-2.19
-1.04
0.10
1.17
2.05
2.64
2.84
2.65
2.13
1.43
0.75
0.25
0.03
0.11
0.46
1.02
1.73
2.49
3.16
3.54
3.44
2.79
1.73
0.56
-0.32
-0.70
-0.63
-0.40
-0.39
-0.84
-1.68
-2.61
-3.25
-3.36
-2.93
-2.14
-1.18
-0.19
0.87
1.99
3.11
4.04
4.51
4.36
3.66
2.67
1.76
1.24
1.20
1.53
1.97
2.27
2.30
2.10
1.79
1.47
1.17
0.83
0.33
-0.38
-1.24
-2.09
-2.70
-2.91
-2.70
-2.28
-1.95
-2.02
-2.57
-3.47
-4.37
-4.87
-4.75
-4.01
-2.83
-1.49
-0.18
1.02
2.10
3.07
3.80
4.16
4.02
3.39
2.45
1.48
0.74
0.35
0.29
0.40
0.50
0.50
0.38
0.24
0.15
0.15
0.23
0.32
0.39
0.42
0.46
0.52
0.59
0.56
0.32
-0.25
-1.14
-2.21
-3.26
-4.01
-4.24
-3.88
-3.03
-1.89
-0.74
0.20
0.82
1.15
1.29
1.37
1.48
1.65
1.83
1.95
1.95
1.80
1.51
1.17
0.86
0.69
0.65
0.67
0.63
0.47
0.19
-0.07
-0.14
0.03
0.40
0.76
0.91
0.70
0.17
-0.55
-1.24
-1.77
-2.11
-2.31
-2.40
-2.33
-1.99
-1.31
-0.32
0.77
1.64
2.04
1.91
1.45
0.97
0.75
0.87
1.23
1.60
1.80
1.81
1.73
1.66
1.63
1.60
1.50
1.28
1.01
0.77
0.62
0.51
0.33
-0.05
-0.66
-1.46
-2.28
-2.94
-3.30
-3.34
-3.16
-2.94
-2.79
-2.77
-2.81
-2.76
-2.44
-1.80
-0.91
0.08
0.95
1.53
1.72
1.55
1.11
0.55
0.03
-0.36
-0.56
-0.61
-0.58
-0.53
-0.48
-0.36
-0.07
0.44
1.15
1.90
2.46
2.65
2.45
1.99
1.53
1.27
1.23
1.29
1.26
1.02
0.59
0.13
-0.22
-0.42
-0.51
-0.59
-0.70
-0.80
-0.79
-0.61
-0.27
0.17
0.60
0.95
1.17
1.25
1.20
1.00
0.71
0.41
0.14
-0.09
-0.28
-0.44
-0.54
-0.54
-0.41
-0.20
0.00
0.07
-0.00
-0.15
-0.24
-0.19
-0.01
0.15
0.11
-0.22
-0.85
-1.69
-2.60
-3.45
-4.10
-4.45
-4.38
-3.84
-2.85
-1.53
-0.08
1.31
2.47
3.34
3.91
4.16
4.10
3.71
3.05
2.22
1.37
0.68
0.30
0.27
0.53
0.86
1.03
0.88
0.39
-0.34
-1.14
-1.85
-2.42
-2.89
-3.31
-3.72
-4.09
-4.38
-4.57
-4.65
-4.67
-4.60
-4.36
-3.84
-3.01
-1.91
-0.72
0.33
1.08
1.47
1.59
1.59
1.62
1.72
1.87
1.98
1.97
1.83
1.60
1.33
1.05
0.76
0.44
0.05
-0.37
-0.80
-1.17
-1.41
-1.48
-1.39
-1.12
-0.72
-0.23
0.22
0.53
0.54
0.18
-0.54
-1.44
-2.24
-2.69
-2.58
-1.90
-0.74
0.67
2.15
3.56
4.80
5.81
6.53
6.91
6.89
6.54
5.96
5.28
4.60
3.95
3.32
2.67
1.98
1.31
0.72
0.25
-0.12
-0.43
-0.77
-1.12
-1.45
-1.70
-1.88
-2.05
-2.32
-2.76
-3.36
-4.04
-4.65
-5.13
-5.37
-5.36
-5.02
-4.31
-3.23
-1.90
-0.54
0.57
1.26
1.48
1.35
1.07
0.82
0.73
0.80
0.97
1.17
1.36
1.60
1.95
2.46
3.08
3.63
3.93
3.81
3.22
2.27
1.13
0.03
-0.84
-1.33
-1.42
-1.15
-0.73
-0.41
-0.45
-0.95
-1.81
-2.78
-3.56
-3.93
-3.82
-3.28
-2.41
-1.31
-0.03
1.28
2.44
3.19
3.32
2.77
1.70
0.40
-0.77
-1.55
-1.84
-1.67
-1.18
-0.48
0.31
1.11
1.83
2.36
2.54
2.27
1.57
0.59
-0.41
-1.17
-1.53
-1.51
-1.23
-0.91
-0.70
-0.72
-0.95
-1.30
-1.65
-1.88
-1.88
-1.61
-1.06
-0.29
0.56
1.32
1.85
2.06
2.00
1.79
1.54
1.35
1.18
0.96
0.67
0.39
0.32
0.62
1.30
2.16
2.80
2.88
2.28
1.20
0.04
-0.78
-1.06
-0.87
-0.50
-0.26
-0.32
-0.64
-1.05
-1.42
-1.69
-1.92
-2.15
-2.34
-2.38
-2.10
-1.47
-0.60
0.30
1.02
1.46
1.63
1.67
1.65
1.52
1.21
0.61
-0.22
-1.12
-1.85
-2.23
-2.27
-2.06
-1.78
-1.50
-1.18
-0.73
-0.09
0.64
1.25
1.55
1.46
1.13
0.81
0.67
0.70
0.73
0.51
-0.05
-0.85
-1.59
-1.97
-1.86
-1.38
-0.73
-0.17
0.22
0.52
0.87
1.36
1.95
2.45
2.65
2.44
1.89
1.18
0.56
0.15
-0.10
-0.31
-0.64
-1.12
-1.61
-1.90
-1.82
-1.38
-0.75
-0.20
0.10
0.11
-0.01
-0.07
0.04
0.26
0.39
0.19
-0.45
-1.49
-2.69
-3.72
-4.34
-4.38
-3.84
-2.82
-1.49
0.00
1.52
2.93
4.07
4.77
4.91
4.49
3.63
2.56
1.53
0.69
0.14
-0.18
-0.31
-0.32
-0.19
0.08
0.45
0.85
1.16
1.26
1.11
0.70
0.12
-0.48
-1.01
-1.35
-1.50
-1.50
-1.47
-1.55
-1.83
-2.32
-2.90
-3.41
-3.63
-3.43
-2.74
-1.65
-0.31
1.04
2.20
3.00
3.43
3.56
3.51
3.38
3.19
2.90
2.48
1.93
1.39
1.01
0.90
1.03
1.29
1.50
1.56
1.46
1.28
1.11
0.97
0.79
0.47
0.00
-0.54
-0.97
-1.14
-1.04
-0.81
-0.71
-0.97
-1.69
-2.73
-3.81
-4.56
-4.70
-4.17
-3.10
-1.76
-0.45
0.65
1.49
2.11
2.62
3.00
3.16
2.97
2.35
1.35
0.19
-0.83
-1.44
-1.55
-1.23
-0.71
-0.22
0.11
0.27
0.32
0.34
0.34
0.26
0.08
-0.14
-0.31
-0.32
-0.13
0.20
0.47
0.52
0.27
-0.24
-0.88
-1.49
-1.97
-2.27
-2.40
-2.36
-2.15
-1.70
-0.99
-0.02
1.10
2.23
3.17
3.76
3.93
3.71
3.18
2.47
1.65
0.80
-0.05
-0.82
-1.41
-1.71
-1.69
-1.36
-0.85
-0.35
-0.04
-0.01
-0.27
-0.68
-1.09
-1.39
-1.56
-1.65
-1.73
-1.83
-1.91
-1.89
-1.76
-1.56
-1.43
-1.48
-1.66
-1.81
-1.67
-1.05
0.06
1.47
2.85
3.89
4.42
4.41
3.99
3.30
2.51
1.73
1.01
0.36
-0.22
-0.74
-1.20
-1.54
-1.66
-1.52
-1.14
-0.64
-0.15
0.21
0.44
0.58
0.70
0.80
0.84
0.78
0.60
0.35
0.08
-0.21
-0.56
-1.00
-1.50
-1.98
-2.29
-2.32
-1.97
-1.23
-0.13
1.20
2.55
3.60
4.05
3.74
2.77
1.50
0.36
-0.28
-0.41
-0.27
-0.20
-0.40
-0.79
-1.07
-0.97
-0.44
0.26
0.74
0.69
0.12
-0.67
-1.30
-1.50
-1.29
-0.95
-0.78
-0.99
-1.53
-2.23
-2.85
-3.23
-3.33
-3.17
-2.81
-2.27
-1.57
-0.74
0.15
1.04
1.83
2.44
2.78
2.76
2.34
1.54
0.50
-0.55
-1.34
-1.69
-1.57
-1.14
-0.63
-0.26
-0.09
-0.04
0.06
0.29
0.64
0.97
1.15
1.15
1.05
0.98
0.96
0.89
0.61
-0.03
-0.98
-2.02
-2.87
-3.30
-3.26
-2.84
-2.24
-1.62
-1.02
-0.41
0.28
1.05
1.86
2.58
3.06
3.25
3.15
2.87
2.52
2.20
1.92
1.66
1.40
1.12
0.86
0.67
0.54
0.49
0.51
0.62
0.84
1.14
1.45
1.67
1.68
1.45
1.08
0.66
0.30
-0.01
-0.37
-0.88
-1.58
-2.37
-3.08
-3.50
-3.52
-3.14
-2.48
-1.67
-0.85
-0.09
0.54
1.00
1.21
1.14
0.83
0.33
-0.20
-0.64
-0.88
-0.90
-0.71
-0.41
-0.05
0.33
0.70
1.03
1.33
1.57
1.74
1.80
1.73
1.51
1.17
0.78
0.46
0.30
0.35
0.49
0.58
0.42
-0.06
-0.81
-1.58
-2.08
-2.08
-1.51
-0.49
0.70
1.79
2.62
3.13
3.39
3.44
3.32
3.03
2.58
2.06
1.61
1.41
1.56
2.00
2.55
2.91
2.87
2.38
1.58
0.70
-0.08
-0.67
-1.17
-1.70
-2.30
-2.86
-3.23
-3.27
-3.03
-2.70
-2.58
-2.82
-3.41
-4.16
-4.81
-5.16
-5.11
-4.69
-3.98
-3.04
-2.00
-0.96
-0.12
0.39
0.51
0.26
-0.15
-0.51
-0.66
-0.58
-0.39
-0.29
-0.38
-0.66
-1.04
-1.38
-1.57
-1.60
-1.45
-1.16
-0.75
-0.23
0.40
1.10
1.78
2.38
2.77
2.86
2.55
1.81
0.69
-0.61
-1.81
-2.60
-2.86
-2.57
-1.92
-1.12
-0.35
0.34
0.93
1.43
1.82
2.08
2.17
2.11
1.92
1.63
1.21
0.66
0.01
-0.63
-1.14
-1.41
-1.39
-1.15
-0.79
-0.42
-0.09
0.18
0.38
0.47
0.44
0.33
0.19
0.09
0.03
-0.05
-0.30
-0.76
-1.42
-2.12
-2.67
-2.90
-2.81
-2.44
-1.89
-1.24
-0.49
0.38
1.32
2.18
2.79
3.01
2.79
2.23
1.55
0.94
0.48
0.17
-0.09
-0.35
-0.62
-0.86
-0.96
-0.87
-0.62
-0.26
0.13
0.50
0.82
1.05
1.17
1.10
0.82
0.31
-0.34
-1.01
-1.56
-1.90
-2.01
-1.89
-1.60
-1.14
-0.52
0.28
1.18
1.98
2.43
2.33
1.68
0.73
-0.18
-0.77
-0.96
-0.94
-0.96
-1.21
-1.66
-2.06
-2.14
-1.76
-1.00
-0.13
0.59
1.04
1.25
1.34
1.40
1.40
1.26
0.89
0.30
-0.40
-1.03
-1.46
-1.63
-1.60
-1.42
-1.08
-0.54
0.29
1.36
2.54
3.57
4.24
4.43
4.19
3.69
3.14
2.73
2.51
2.48
2.53
2.54
2.41
2.12
1.71
1.29
0.94
0.67
0.40
0.06
-0.42
-1.07
-1.80
-2.51
-3.09
-3.43
-3.49
-3.29
-2.91
-2.52
-2.27
-2.26
-2.40
-2.50
-2.32
-1.73
-0.77
0.37
1.44
2.30
2.93
3.36
3.61
3.66
3.44
2.94
2.22
1.45
0.83
0.46
0.36
0.42
0.54
0.59
0.58
0.52
0.46
0.39
0.24
-0.07
-0.56
-1.14
-1.66
-1.93
-1.92
-1.71
-1.51
-1.53
-1.86
-2.44
-3.10
-3.60
-3.81
-3.67
-3.25
-2.64
-1.93
-1.15
-0.36
0.40
1.06
1.56
1.87
2.00
1.99
1.82
1.50
1.04
0.50
-0.04
-0.46
-0.68
-0.68
-0.49
-0.20
0.13
0.43
0.65
0.77
0.77
0.66
0.43
0.16
-0.15
-0.47
-0.81
-1.13
-1.37
-1.51
-1.50
-1.43
-1.35
-1.33
-1.39
-1.48
-1.55
-1.59
-1.57
-1.50
-1.33
-1.00
-0.40
0.46
1.49
2.53
3.37
3.89
4.05
3.90
3.53
2.99
2.30
1.50
0.66
-0.08
-0.54
-0.58
-0.18
0.53
1.27
1.79
1.96
1.83
1.56
1.29
1.07
0.80
0.34
-0.34
-1.13
-1.78
-2.07
-1.93
-1.47
-0.91
-0.48
-0.34
-0.51
-0.92
-1.48
-2.11
-2.76
-3.36
-3.79
-3.95
-3.70
-3.00
-1.84
-0.33
1.34
2.90
4.07
4.67
4.64
4.15
3.44
2.77
2.28
1.97
1.73
1.45
1.10
0.73
0.45
0.34
0.35
0.39
0.36
0.20
-0.06
-0.33
-0.56
-0.70
-0.79
-0.88
-1.02
-1.21
-1.40
-1.53
-1.52
-1.36
-1.10
-0.87
-0.81
-1.02
-1.45
-1.97
-2.39
-2.53
-2.29
-1.72
-0.93
-0.05
0.80
1.52
2.08
2.45
2.64
2.66
2.54
2.32
2.01
1.62
1.16
0.67
0.19
-0.18
-0.37
-0.38
-0.29
-0.22
-0.26
-0.40
-0.52
-0.54
-0.37
-0.12
0.07
0.05
-0.22
-0.63
-1.01
-1.22
-1.25
-1.21
-1.29
-1.57
-2.05
-2.61
-3.10
-3.41
-3.56
-3.54
-3.32
-2.83
-1.95
-0.67
0.88
2.43
3.64
4.30
4.37
4.04
3.58
3.21
2.99
2.84
2.59
2.14
1.49
0.76
0.14
-0.20
-0.21
0.03
0.36
0.62
0.69
0.65
0.62
0.72
0.98
1.26
1.38
1.18
0.66
-0.03
-0.67
-1.13
-1.41
-1.65
-1.99
-2.50
-3.06
-3.51
-3.70
-3.59
-3.26
-2.78
-2.21
-1.49
-0.58
0.50
1.58
2.43
2.85
2.79
2.35
1.72
1.06
0.43
-0.13
-0.64
-1.02
-1.17
-0.99
-0.49
0.22
0.93
1.45
1.64
1.49
1.12
0.66
0.25
-0.01
-0.16
-0.26
-0.39
-0.52
-0.56
-0.40
-0.04
0.40
0.63
0.45
-0.20
-1.15
-2.05
-2.59
-2.63
-2.26
-1.65
-0.99
-0.36
0.24
0.82
1.33
1.67
1.76
1.61
1.30
0.96
0.71
0.56
0.49
0.44
0.40
0.38
0.42
0.56
0.79
1.09
1.41
1.69
1.89
1.96
1.89
1.68
1.35
0.91
0.39
-0.16
-0.69
-1.16
-1.54
-1.89
-2.31
-2.87
-3.56
-4.28
-4.86
-5.11
-4.92
-4.29
-3.30
-2.10
-0.80
0.51
1.76
2.92
3.89
4.60
4.94
4.89
4.47
3.77
2.91
2.02
1.22
0.57
0.10
-0.18
-0.28
-0.22
-0.10
0.01
0.02
-0.12
-0.43
-0.90
-1.50
-2.16
-2.79
-3.26
-3.46
-3.31
-2.88
-2.35
-1.96
-1.92
-2.32
-3.04
-3.81
-4.32
-4.33
-3.74
-2.64
-1.20
0.30
1.60
2.51
2.95
2.94
2.61
2.14
1.69
1.38
1.23
1.21
1.30
1.44
1.64
1.86
2.11
2.35
2.59
2.81
3.00
3.16
3.25
3.27
3.22
3.15
3.12
3.18
3.33
3.51
3.59
3.41
2.89
2.02
0.87
-0.36
-1.46
-2.24
-2.65
-2.67
-2.41
-1.95
-1.36
-0.65
0.15
0.97
1.67
2.07
2.04
1.53
0.63
-0.43
-1.41
-2.09
-2.35
-2.23
-1.81
-1.23
-0.56
0.19
0.99
1.80
2.52
3.00
3.15
2.99
2.60
2.11
1.63
1.15
0.58
-0.12
-0.93
-1.77
-2.50
-2.97
-3.14
-3.00
-2.58
-1.98
-1.32
-0.77
-0.42
-0.30
-0.28
-0.19
0.11
0.65
1.27
1.72
1.79
1.44
0.83
0.21
-0.21
-0.35
-0.30
-0.24
-0.32
-0.60
-1.05
-1.53
-1.93
-2.17
-2.25
-2.21
-2.15
-2.13
-2.22
-2.50
-2.98
-3.65
-4.39
-5.02
-5.37
-5.32
-4.86
-4.07
-3.09
-2.02
-0.92
0.20
1.29
2.25
2.96
3.34
3.35
3.11
2.72
2.30
1.90
1.52
1.14
0.74
0.32
-0.10
-0.53
-1.01
-1.55
-2.09
-2.51
-2.67
-2.49
-1.99
-1.34
-0.79
-0.62
-0.94
-1.72
-2.72
-3.63
-4.17
-4.20
-3.73
-2.89
-1.81
-0.61
0.62
1.79
2.78
3.40
3.50
3.02
2.14
1.16
0.44
0.19
0.37
0.70
0.86
0.66
0.19
-0.26
-0.44
-0.26
0.12
0.39
0.33
-0.11
-0.72
-1.26
-1.54
-1.59
-1.54
-1.59
-1.86
-2.34
-2.94
-3.54
-3.97
-4.10
-3.81
-3.10
-2.03
-0.78
0.48
1.63
2.62
3.46
4.14
4.59
4.74
4.56
4.16
3.75
3.56
3.68
4.02
4.35
4.45
4.25
3.79
3.24
2.72
2.27
1.87
1.45
0.97
0.46
-0.10
-0.67
-1.28
-1.89
-2.43
-2.83
-3.04
-3.04
-2.86
-2.52
-2.01
-1.33
-0.47
0.47
1.34
1.99
2.31
2.29
2.01
1.58
1.11
0.68
0.32
0.08
-0.01
0.10
0.40
0.84
1.28
1.56
1.54
1.17
0.53
-0.22
-0.88
-1.28
-1.40
-1.31
-1.17
-1.17
-1.44
-1.98
-2.65
-3.21
-3.44
-3.20
-2.53
-1.61
-0.67
0.15
0.80
1.34
1.82
2.25
2.53
2.54
2.24
1.68
1.05
0.51
0.22
0.19
0.40
0.76
1.23
1.75
2.26
2.69
2.96
3.00
2.77
2.27
1.52
0.62
-0.27
-1.02
-1.53
-1.86
-2.16
-2.60
-3.28
-4.08
-4.76
-5.03
-4.76
-3.97
-2.85
-1.63
-0.47
0.56
1.42
2.08
2.50
2.60
2.38
1.95
1.47
1.11
0.98
1.09
1.36
1.68
1.94
2.08
2.08
1.95
1.68
1.29
0.81
0.29
-0.18
-0.50
-0.60
-0.45
-0.17
0.06
0.04
-0.36
-1.15
-2.20
-3.26
-4.07
-4.42
-4.20
-3.45
-2.31
-0.95
0.42
1.65
2.63
3.26
3.51
3.39
3.00
2.48
2.01
1.76
1.77
1.95
2.17
2.28
2.22
2.04
1.83
1.70
1.68
1.77
1.90
2.00
1.98
1.78
1.34
0.66
-0.21
-1.15
-2.01
-2.66
-3.03
-3.13
-2.99
-2.69
-2.30
-1.91
-1.61
-1.48
-1.55
-1.77
-2.03
-2.17
-2.04
-1.60
-0.88
-0.04
0.72
1.20
1.30
1.04
0.56
0.01
-0.46
-0.75
-0.88
-0.92
-0.94
-0.93
-0.86
-0.64
-0.31
0.05
0.24
0.15
-0.26
-0.81
-1.28
-1.46
-1.24
-0.75
-0.16
0.31
0.55
0.61
0.58
0.61
0.74
0.91
1.01
0.92
0.57
-0.00
-0.67
-1.32
-1.89
-2.36
-2.73
-2.99
-3.01
-2.67
-1.88
-0.68
0.74
2.10
3.16
3.79
4.05
4.07
3.99
3.83
3.50
2.90
2.02
0.99
0.07
-0.46
-0.46
0.02
0.73
1.36
1.71
1.78
1.71
1.67
1.69
1.67
1.46
0.99
0.35
-0.20
-0.47
-0.43
-0.27
-0.26
-0.61
-1.27
-2.03
-2.64
-2.95
-3.03
-3.06
-3.19
-3.48
-3.86
-4.24
-4.57
-4.83
-5.01
-5.02
-4.74
-4.03
-2.85
-1.36
0.21
1.60
2.63
3.29
3.66
3.88
4.03
4.12
4.09
3.89
3.58
3.23
2.95
2.82
2.85
2.94
2.97
2.86
2.61
2.29
1.99
1.74
1.49
1.13
0.56
-0.30
-1.35
-2.41
-3.23
-3.62
-3.52
-3.01
-2.28
-1.57
-1.02
-0.74
-0.76
-1.05
-1.62
-2.42
-3.39
-4.40
-5.27
-5.76
-5.67
-4.89
-3.46
-1.58
0.41
2.21
3.58
4.43
4.82
4.87
4.68
4.29
3.74
3.03
2.24
1.48
0.87
0.47
0.24
0.13
0.04
-0.01
0.02
0.22
0.65
1.26
1.86
2.22
2.14
1.57
0.65
-0.35
-1.15
-1.59
-1.72
-1.72
-1.79
-2.08
-2.50
-2.90
-3.08
-3.01
-2.82
-2.69
-2.79
-3.07
-3.35
-3.36
-2.92
-2.01
-0.77
0.56
1.79
2.79
3.57
4.13
4.49
4.63
4.49
4.05
3.37
2.53
1.67
0.88
0.21
-0.37
-0.88
-1.31
-1.59
-1.63
-1.38
-0.89
-0.31
0.17
0.41
0.40
0.23
0.05
-0.08
-0.17
-0.30
-0.56
-0.93
-1.32
-1.56
-1.60
-1.54
-1.59
-1.94
-2.63
-3.51
-4.23
-4.47
-4.07
-3.07
-1.72
-0.33
0.90
1.88
2.66
3.31
3.91
4.44
4.82
4.97
4.84
4.44
3.88
3.24
2.60
1.98
1.36
0.78
0.35
0.21
0.44
0.97
1.59
2.00
2.00
1.58
0.92
0.29
-0.10
-0.25
-0.30
-0.48
-0.87
-1.44
-2.04
-2.55
-2.97
-3.39
-3.93
-4.61
-5.28
-5.67
-5.53
-4.80
-3.58
-2.13
-0.74
0.40
1.26
1.87
2.31
2.60
2.72
2.59
2.15
1.37
0.39
-0.61
-1.38
-1.77
-1.72
-1.31
-0.71
-0.08
0.55
1.18
1.84
2.49
3.04
3.34
3.30
2.91
2.30
1.64
1.06
0.61
0.24
-0.11
-0.54
-1.08
-1.75
-2.56
-3.48
-4.44
-5.29
-5.82
-5.85
-5.29
-4.20
-2.78
-1.32
-0.04
0.92
1.57
1.96
2.16
2.20
2.11
1.90
1.62
1.33
1.09
0.97
1.01
1.24
1.66
2.19
2.73
3.14
3.31
3.20
2.86
2.41
1.95
1.50
1.08
0.66
0.27
-0.01
-0.08
0.07
0.32
0.49
0.39
-0.08
-0.84
-1.71
-2.48
-2.99
-3.20
-3.12
-2.79
-2.23
-1.49
-0.62
0.26
0.99
1.47
1.68
1.72
1.69
1.65
1.59
1.45
1.20
0.89
0.61
0.47
0.49
0.60
0.67
0.61
0.42
0.16
-0.02
-0.04
0.09
0.30
0.50
0.63
0.72
0.82
0.96
1.11
1.15
0.96
0.48
-0.30
-1.26
-2.25
-3.10
-3.66
-3.80
-3.45
-2.65
-1.52
-0.24
0.93
1.77
2.15
2.00
1.41
0.52
-0.42
-1.19
-1.61
-1.58
-1.16
-0.51
0.14
0.61
0.83
0.80
0.64
0.49
0.44
0.53
0.73
0.96
1.14
1.22
1.17
1.04
0.87
0.73
0.62
0.52
0.40
0.24
0.07
-0.08
-0.17
-0.24
-0.32
-0.50
-0.78
-1.16
-1.55
-1.91
-2.27
-2.68
-3.22
-3.88
-4.55
-4.99
-5.04
-4.55
-3.58
-2.27
-0.79
0.70
2.05
3.16
3.89
4.14
3.89
3.27
2.55
2.02
1.86
2.03
2.32
2.42
2.13
1.46
0.64
-0.04
-0.36
-0.34
-0.14
-0.00
-0.06
-0.32
-0.66
-0.96
-1.23
-1.52
-1.88
-2.26
-2.52
-2.48
-2.11
-1.54
-1.05
-0.90
-1.15
-1.66
-2.12
-2.25
-1.93
-1.24
-0.39
0.35
0.84
1.07
1.13
1.16
1.27
1.49
1.77
2.02
2.15
2.16
2.10
2.04
2.04
2.06
2.02
1.86
1.62
1.38
1.30
1.44
1.70
1.86
1.71
1.12
0.18
-0.87
-1.75
-2.25
-2.39
-2.35
-2.39
-2.68
-3.24
-3.90
-4.38
-4.52
-4.29
-3.84
-3.32
-2.83
-2.31
-1.65
-0.78
0.23
1.16
1.74
1.82
1.44
0.81
0.24
-0.03
0.10
0.53
1.09
1.54
1.71
1.56
1.16
0.66
0.22
-0.08
-0.22
-0.22
-0.13
0.00
0.10
0.07
-0.18
-0.68
-1.37
-2.07
-2.62
-2.90
-2.92
-2.73
-2.43
-2.01
-1.40
-0.52
0.65
2.01
3.32
4.36
5.00
5.23
5.17
4.92
4.56
4.05
3.30
2.31
1.15
0.00
-0.89
-1.35
-1.32
-0.88
-0.24
0.40
0.87
1.11
1.14
1.00
0.71
0.29
-0.28
-0.93
-1.58
-2.09
-2.36
-2.42
-2.40
-2.50
-2.84
-3.42
-4.04
-4.41
-4.28
-3.60
-2.52
-1.37
-0.42
0.18
0.48
0.66
0.89
1.26
1.71
2.12
2.37
2.43
2.38
2.34
2.40
2.58
2.81
2.98
3.02
2.95
2.84
2.74
2.62
2.40
1.95
1.21
0.30
-0.61
-1.29
-1.61
-1.62
-1.44
-1.25
-1.18
-1.27
-1.50
-1.79
-2.08
-2.26
-2.27
-2.02
-1.48
-0.71
0.22
1.14
1.93
2.50
2.82
2.89
2.77
2.49
2.12
1.73
1.38
1.13
0.99
0.94
0.93
0.90
0.83
0.69
0.51
0.26
-0.06
-0.50
-1.07
-1.71
-2.30
-2.69
-2.78
-2.61
-2.30
-2.03
-1.93
-2.02
-2.22
-2.39
-2.43
-2.34
-2.13
-1.85
-1.54
-1.19
-0.78
-0.35
0.08
0.44
0.71
0.88
0.98
1.04
1.12
1.22
1.32
1.33
1.19
0.86
0.37
-0.12
-0.42
-0.37
0.03
0.61
1.09
1.25
1.01
0.54
0.10
-0.08
0.04
0.32
0.52
0.47
0.17
-0.25
-0.61
-0.86
-1.05
-1.36
-1.84
-2.42
-2.84
-2.83
-2.25
-1.17
0.11
1.24
1.97
2.23
2.13
1.91
1.71
1.60
1.52
1.34
0.99
0.47
-0.11
-0.57
-0.74
-0.59
-0.18
0.31
0.71
0.89
0.85
0.67
0.46
0.32
0.24
0.21
0.20
0.16
0.10
0.02
-0.11
-0.39
-0.90
-1.65
-2.58
-3.50
-4.18
-4.41
-4.08
-3.24
-2.02
-0.65
0.67
1.72
2.34
2.42
1.99
1.23
0.43
-0.07
-0.08
0.35
1.01
1.60
1.96
2.06
2.05
2.07
2.21
2.37
2.40
2.20
1.78
1.27
0.88
0.72
0.79
0.98
1.13
1.10
0.85
0.41
-0.16
-0.82
-1.52
-2.24
-2.88
-3.29
-3.31
-2.80
-1.75
-0.32
1.23
2.55
3.36
3.57
3.28
2.73
2.17
1.73
1.38
0.98
0.42
-0.29
-0.98
-1.46
-1.59
-1.42
-1.13
-0.93
-0.96
-1.18
-1.47
-1.65
-1.61
-1.38
-1.04
-0.69
-0.40
-0.16
0.08
0.36
0.64
0.82
0.77
0.43
-0.20
-0.94
-1.60
-1.95
-1.89
-1.44
-0.76
-0.00
0.70
1.31
1.85
2.36
2.78
3.04
3.03
2.71
2.10
1.34
0.63
0.15
-0.00
0.16
0.52
0.91
1.14
1.13
0.90
0.51
0.12
-0.15
-0.25
-0.18
-0.04
0.12
0.23
0.31
0.39
0.46
0.49
0.39
0.11
-0.39
-1.09
-1.88
-2.65
-3.32
-3.83
-4.18
-4.36
-4.33
-4.01
-3.33
-2.31
-1.04
0.28
1.43
2.22
2.58
2.54
2.26
1.87
1.48
1.13
0.80
0.42
-0.02
-0.51
-0.97
-1.30
-1.43
-1.37
-1.17
-0.94
-0.75
-0.60
-0.49
-0.42
-0.42
-0.52
-0.71
-0.93
-1.08
-1.09
-0.95
-0.78
-0.67
-0.70
-0.80
-0.87
-0.81
-0.59
-0.25
0.15
0.60
1.10
1.71
2.37
2.97
3.33
3.32
2.94
2.34
1.74
1.35
1.24
1.37
1.60
1.81
1.95
2.01
2.00
1.91
1.68
1.25
0.63
-0.10
-0.81
-1.37
-1.71
-1.83
-1.80
-1.67
-1.55
-1.48
-1.54
-1.79
-2.23
-2.82
-3.42
-3.78
-3.69
-2.99
-1.75
-0.15
1.46
2.74
3.52
3.75
3.57
3.18
2.73
2.29
1.86
1.37
0.84
0.31
-0.17
-0.56
-0.88
-1.21
-1.58
-1.95
-2.20
-2.20
-1.90
-1.37
-0.83
-0.46
-0.40
-0.58
-0.83
-0.94
-0.78
-0.37
0.16
0.58
0.75
0.62
0.27
-0.19
-0.59
-0.85
-0.89
-0.70
-0.31
0.22
0.82
1.41
1.95
2.40
2.74
2.95
2.93
2.60
1.93
0.97
-0.14
-1.16
-1.90
-2.25
-2.19
-1.78
-1.14
-0.39
0.35
0.93
1.20
1.07
0.53
-0.29
-1.17
-1.92
-2.37
-2.52
-2.41
-2.13
-1.77
-1.42
-1.23
-1.34
-1.87
-2.79
-3.86
-4.73
-5.00
-4.49
-3.30
-1.74
-0.19
1.09
2.04
2.73
3.24
3.57
3.62
3.35
2.76
1.99
1.26
0.72
0.45
0.37
0.35
0.30
0.15
-0.07
-0.32
-0.57
-0.77
-0.94
-1.09
-1.19
-1.24
-1.18
-0.99
-0.66
-0.26
0.10
0.27
0.19
-0.12
-0.49
-0.73
-0.68
-0.28
0.37
1.10
1.76
2.24
2.52
2.64
2.64
2.51
2.22
1.72
1.01
0.15
-0.73
-1.48
-1.94
-1.99
-1.59
-0.79
0.27
1.41
2.44
3.22
3.64
3.68
3.32
2.65
1.74
0.70
-0.40
-1.51
-2.62
-3.70
-4.67
-5.41
-5.80
-5.72
-5.17
-4.25
-3.07
-1.77
-0.40
0.97
2.26
3.32
3.98
4.15
3.84
3.21
2.47
1.82
1.38
1.14
1.10
1.21
1.39
1.56
1.65
1.58
1.39
1.17
1.07
1.19
1.50
1.86
2.06
1.94
1.40
0.47
-0.77
-2.19
-3.59
-4.75
-5.41
-5.35
-4.51
-3.04
-1.23
0.51
1.84
2.58
2.71
2.32
1.61
0.76
-0.05
-0.66
-1.01
-1.09
-1.02
-0.89
-0.80
-0.70
-0.53
-0.21
0.26
0.82
1.33
1.69
1.85
1.83
1.68
1.39
0.93
0.25
-0.66
-1.74
-2.84
-3.77
-4.30
-4.28
-3.68
-2.57
-1.18
0.23
1.40
2.19
2.56
2.56
2.32
1.96
1.55
1.13
0.73
0.39
0.17
0.08
0.15
0.35
0.64
0.96
1.24
1.40
1.41
1.25
0.96
0.58
0.21
-0.10
-0.36
-0.56
-0.76
-1.01
-1.37
-1.84
-2.44
-3.07
-3.59
-3.82
-3.60
-2.87
-1.70
-0.25
1.26
2.61
3.63
4.21
4.27
3.87
3.15
2.30
1.53
0.96
0.63
0.48
0.49
0.65
1.01
1.59
2.27
2.85
3.11
2.93
2.36
1.58
0.81
0.11
-0.55
-1.30
-2.23
-3.28
-4.28
-5.04
-5.46
-5.60
-5.61
-5.65
-5.71
-5.66
-5.24
-4.28
-2.76
-0.86
1.11
2.83
4.07
4.75
4.90
4.62
4.01
3.19
2.28
1.43
0.79
0.49
0.57
0.98
1.56
2.11
2.44
2.48
2.30
2.02
1.76
1.58
1.43
1.21
0.86
0.39
-0.12
-0.56
-0.85
-1.03
-1.18
-1.38
-1.73
-2.27
-2.96
-3.72
-4.36
-4.69
-4.52
-3.81
-2.62
-1.18
0.26
1.52
2.51
3.23
3.73
4.00
3.98
3.68
3.13
2.52
2.00
1.69
1.58
1.57
1.56
1.48
1.37
1.28
1.28
1.30
1.28
1.11
0.76
0.26
-0.30
-0.81
-1.23
-1.54
-1.82
-2.12
-2.48
-2.90
-3.34
-3.76
-4.14
-4.50
-4.81
-5.04
-5.05
-4.71
-3.89
-2.60
-0.95
0.83
2.46
3.70
4.42
4.58
4.27
3.67
2.99
2.44
2.11
1.99
1.94
1.79
1.49
1.10
0.77
0.69
0.91
1.34
1.74
1.88
1.63
1.06
0.36
-0.18
-0.39
-0.22
0.18
0.57
0.69
0.36
-0.44
-1.62
-3.00
-4.40
-5.61
-6.42
-6.65
-6.18
-5.02
-3.38
-1.62
-0.13
0.86
1.29
1.35
1.26
1.23
1.33
1.51
1.70
1.84
1.95
2.07
2.22
2.35
2.35
2.11
1.65
1.05
0.52
0.22
0.17
0.23
0.18
-0.18
-0.88
-1.77
-2.57
-3.06
-3.19
-3.14
-3.15
-3.41
-3.89
-4.43
-4.77
-4.73
-4.26
-3.40
-2.27
-0.97
0.41
1.79
3.06
4.11
4.81
5.09
4.95
4.45
3.76
3.04
2.48
2.19
2.19
2.39
2.63
2.78
2.76
2.62
2.46
2.38
2.37
2.36
2.25
1.97
1.53
0.94
0.27
-0.45
-1.20
-1.93
-2.60
-3.15
-3.62
-4.09
-4.65
-5.30
-5.95
-6.39
-6.40
-5.86
-4.84
-3.52
-2.11
-0.79
0.36
1.33
2.07
2.48
2.50
2.07
1.31
0.45
-0.19
-0.43
-0.21
0.37
1.11
1.80
2.33
2.66
2.77
2.68
2.41
2.01
1.56
1.18
0.93
0.82
0.83
0.88
0.90
0.84
0.65
0.27
-0.32
-1.09
-1.98
-2.87
-3.64
-4.20
-4.49
-4.49
-4.20
-3.63
-2.79
-1.69
-0.37
1.10
2.58
3.86
4.73
5.03
4.70
3.87
2.77
1.71
0.92
0.48
0.39
0.54
0.85
1.22
1.64
2.04
2.36
2.48
2.36
1.97
1.42
0.85
0.40
0.15
0.08
0.08
0.04
-0.13
-0.41
-0.75
-1.06
-1.32
-1.61
-2.03
-2.70
-3.58
-4.53
-5.31
-5.69
-5.57
-4.95
-3.95
-2.74
-1.44
-0.18
0.94
1.80
2.32
2.44
2.17
1.63
0.96
0.34
-0.09
-0.26
-0.19
0.03
0.26
0.39
0.37
0.30
0.37
0.74
1.45
2.33
3.09
3.40
3.13
2.43
1.55
0.82
0.38
0.19
0.06
-0.19
-0.63
-1.15
-1.60
-1.86
-1.89
-1.77
-1.60
-1.38
-1.04
-0.49
0.34
1.38
2.42
3.24
3.67
3.65
3.29
2.76
2.22
1.76
1.38
1.00
0.56
0.06
-0.46
-0.92
-1.27
-1.53
-1.79
-2.14
-2.65
-3.25
-3.80
-4.13
-4.10
-3.74
-3.21
-2.72
-2.45
-2.49
-2.79
-3.24
-3.71
-4.10
-4.30
-4.23
-3.81
-2.97
-1.73
-0.28
1.14
2.28
3.01
3.33
3.34
3.19
2.94
2.63
2.22
1.74
1.24
0.83
0.54
0.44
0.52
0.79
1.24
1.83
2.45
2.95
3.18
3.14
2.92
2.69
2.54
2.42
2.15
1.54
0.49
-0.84
-2.18
-3.24
-3.88
-4.13
-4.14
-4.06
-3.92
-3.64
-3.14
-2.36
-1.43
-0.55
0.11
0.45
0.54
0.53
0.55
0.64
0.75
0.77
0.67
0.51
0.42
0.55
0.95
1.55
2.16
2.59
2.66
2.36
1.77
1.02
0.32
-0.22
-0.53
-0.66
-0.69
-0.75
-0.88
-1.11
-1.44
-1.85
-2.33
-2.82
-3.19
-3.28
-2.91
-2.03
-0.74
0.67
1.92
2.82
3.36
3.65
3.83
3.92
3.84
3.50
2.91
2.21
1.63
1.31
1.28
1.37
1.41
1.30
1.07
0.83
0.73
0.77
0.85
0.79
0.45
-0.20
-1.02
-1.84
-2.51
-2.94
-3.14
-3.20
-3.22
-3.26
-3.30
-3.26
-3.02
-2.54
-1.79
-0.85
0.15
1.11
1.96
2.66
3.21
3.57
3.71
3.57
3.12
2.45
1.66
0.90
0.26
-0.21
-0.53
-0.74
-0.87
-0.96
-1.06
-1.21
-1.46
-1.76
-2.03
-2.12
-1.93
-1.47
-0.89
-0.43
-0.30
-0.61
-1.28
-2.16
-3.06
-3.81
-4.32
-4.50
-4.26
-3.51
-2.29
-0.75
0.81
2.10
2.90
3.22
3.21
3.01
2.75
2.38
1.89
1.26
0.61
0.15
0.02
0.26
0.76
1.29
1.61
1.58
1.20
0.56
-0.16
-0.80
-1.26
-1.53
-1.70
-1.88
-2.20
-2.69
-3.32
-4.01
-4.64
-5.06
-5.17
-4.87
-4.11
-2.92
-1.40
0.27
1.86
3.17
4.08
4.57
4.70
4.59
4.32
3.92
3.41
2.80
2.16
1.58
1.18
1.01
1.06
1.25
1.50
1.72
1.91
2.08
2.30
2.55
2.79
2.97
2.98
2.79
2.39
1.82
1.12
0.31
-0.57
-1.55
-2.56
-3.49
-4.17
-4.42
-4.12
-3.28
-2.07
-0.77
0.29
0.92
1.06
0.88
0.58
0.37
0.32
0.36
0.41
0.38
0.28
0.13
0.01
-0.08
-0.17
-0.29
-0.47
-0.69
-0.89
-1.00
-0.98
-0.84
-0.63
-0.42
-0.29
-0.33
-0.57
-0.98
-1.48
-1.95
-2.24
-2.24
-1.93
-1.33
-0.56
0.26
1.05
1.77
2.43
3.02
3.50
3.77
3.76
3.44
2.87
2.13
1.27
0.34
-0.61
-1.47
-2.08
-2.29
-2.05
-1.48
-0.82
-0.31
-0.12
-0.20
-0.44
-0.71
-0.98
-1.31
-1.74
-2.24
-2.70
-3.01
-3.11
-3.07
-2.93
-2.71
-2.33
-1.66
-0.65
0.62
1.91
2.94
3.51
3.63
3.42
3.09
2.76
2.44
2.07
1.58
0.97
0.32
-0.21
-0.52
-0.53
-0.29
0.09
0.48
0.81
1.03
1.16
1.23
1.19
1.01
0.64
0.06
-0.60
-1.23
-1.73
-2.13
-2.56
-3.17
-3.98
-4.86
-5.52
-5.65
-5.06
-3.80
-2.11
-0.31
1.34
2.67
3.63
4.26
4.57
4.62
4.45
4.18
3.91
3.72
3.62
3.54
3.42
3.21
2.93
2.63
2.38
2.17
1.93
1.59
1.11
0.48
-0.19
-0.84
-1.38
-1.81
-2.16
-2.48
-2.84
-3.31
-3.90
-4.57
-5.18
-5.50
-5.33
-4.58
-3.30
-1.70
-0.07
1.33
2.33
2.91
3.14
3.11
2.93
2.64
2.28
1.88
1.47
1.10
0.79
0.57
0.45
0.45
0.54
0.66
0.73
0.68
0.49
0.20
-0.10
-0.37
-0.60
-0.81
-1.06
-1.32
-1.57
-1.71
-1.69
-1.54
-1.40
-1.45
-1.83
-2.53
-3.42
-4.23
-4.65
-4.47
-3.62
-2.20
-0.48
1.23
2.63
3.51
3.82
3.60
2.99
2.14
1.18
0.23
-0.60
-1.21
-1.50
-1.43
-1.02
-0.40
0.22
0.67
0.86
0.87
0.86
0.98
1.23
1.50
1.59
1.39
0.94
0.40
0.01
-0.15
-0.08
0.09
0.25
0.35
0.34
0.16
-0.28
-1.04
-2.07
-3.13
-3.89
-4.03
-3.39
-2.07
-0.36
1.40
2.90
3.99
4.65
4.92
4.92
4.74
4.46
4.14
3.82
3.48
3.12
2.75
2.40
2.06
1.76
1.43
1.06
0.63
0.21
-0.11
-0.27
-0.27
-0.20
-0.19
-0.36
-0.74
-1.25
-1.77
-2.16
-2.34
-2.30
-2.09
-1.77
-1.44
-1.22
-1.22
-1.54
-2.22
-3.18
-4.22
-5.05
-5.40
-5.09
-4.12
-2.61
-0.84
0.90
2.34
3.31
3.74
3.70
3.39
3.00
2.66
2.42
2.20
1.95
1.59
1.14
0.62
0.02
-0.67
-1.48
-2.40
-3.37
-4.27
-4.97
-5.41
-5.57
-5.46
-5.12
-4.56
-3.82
-2.94
-2.03
-1.17
-0.47
0.00
0.18
0.00
-0.55
-1.40
-2.31
-2.95
-2.93
-2.05
-0.35
1.79
3.85
5.32
5.97
5.85
5.23
4.44
3.65
2.93
2.30
1.82
1.63
1.84
2.45
3.22
3.82
3.96
3.53
2.68
1.66
0.75
0.10
-0.30
-0.48
-0.50
-0.41
-0.27
-0.20
-0.35
-0.86
-1.76
-2.93
-4.19
-5.29
-6.06
-6.43
-6.35
-5.84
-4.91
-3.63
-2.14
-0.63
0.67
1.62
2.16
2.41
2.54
2.74
3.12
3.66
4.23
4.63
4.76
4.58
4.18
3.72
3.32
3.02
2.76
2.47
2.10
1.69
1.33
1.13
1.14
1.31
1.47
1.42
1.03
0.23
-0.91
-2.24
-3.61
-4.84
-5.74
-6.16
-5.98
-5.18
-3.86
-2.21
-0.51
0.97
2.03
2.56
2.57
2.12
1.37
0.51
-0.24
-0.70
-0.77
-0.49
-0.01
0.47
0.81
0.92
0.87
0.80
0.80
0.88
0.95
0.89
0.61
0.17
-0.32
-0.74
-1.08
-1.44
-1.96
-2.72
-3.62
-4.44
-4.94
-4.96
-4.51
-3.68
-2.58
-1.26
0.22
1.83
3.42
4.77
5.67
6.00
5.74
4.97
3.87
2.64
1.45
0.45
-0.27
-0.65
-0.70
-0.47
-0.09
0.32
0.65
0.85
0.91
0.90
0.88
0.87
0.78
0.49
-0.18
-1.25
-2.66
-4.16
-5.42
-6.13
-6.13
-5.39
-4.06
-2.41
-0.72
0.76
1.90
2.65
3.08
3.29
3.32
3.22
2.96
2.59
2.19
1.86
1.70
1.70
1.73
1.67
1.46
1.18
0.99
1.05
1.34
1.73
1.98
1.95
1.60
1.02
0.33
-0.43
-1.25
-2.23
-3.40
-4.71
-5.98
-6.96
-7.39
-7.12
-6.16
-4.65
-2.86
-1.10
0.43
1.64
2.56
3.24
3.73
3.97
3.91
3.53
2.90
2.21
1.68
1.44
1.52
1.81
2.20
2.58
2.91
3.20
3.43
3.56
3.51
3.25
2.80
2.26
1.77
1.39
1.09
0.74
0.18
-0.71
-1.92
-3.28
-4.56
-5.51
-5.91
-5.66
-4.78
-3.40
-1.76
-0.11
1.30
2.35
2.95
3.12
2.92
2.44
1.79
1.08
0.40
-0.18
-0.64
-0.98
-1.23
-1.38
-1.44
-1.40
-1.30
-1.20
-1.15
-1.14
-1.15
-1.09
-0.93
-0.69
-0.49
-0.46
-0.70
-1.25
-2.07
-3.03
-3.98
-4.73
-5.13
-5.04
-4.38
-3.19
-1.65
-0.02
1.41
2.42
2.89
2.86
2.42
1.73
0.96
0.24
-0.33
-0.68
-0.84
-0.83
-0.69
-0.43
-0.03
0.58
1.41
2.38
3.30
3.96
4.20
3.99
3.48
2.85
2.31
1.94
1.74
1.61
1.42
1.09
0.56
-0.17
-1.06
-1.95
-2.60
-2.76
-2.27
-1.14
0.42
2.01
3.26
3.91
3.92
3.44
2.69
1.88
1.14
0.51
0.02
-0.31
-0.45
-0.44
-0.36
-0.35
-0.48
-0.71
-0.91
-0.94
-0.72
-0.37
-0.08
-0.11
-0.52
-1.24
-2.05
-2.73
-3.16
-3.39
-3.56
-3.82
-4.23
-4.72
-5.13
-5.34
-5.27
-4.96
-4.48
-3.90
-3.28
-2.61
-1.91
-1.22
-0.57
-0.01
0.46
0.91
1.43
2.07
2.83
3.60
4.23
4.57
4.56
4.25
3.82
3.46
3.34
3.54
3.99
4.51
4.89
4.97
4.63
3.85
2.62
1.01
-0.83
-2.66
-4.19
-5.16
-5.47
-5.25
-4.78
-4.39
-4.27
-4.38
-4.50
-4.34
-3.70
-2.55
-1.03
0.63
2.13
3.27
3.92
4.12
3.98
3.67
3.32
3.02
2.75
2.48
2.21
1.98
1.83
1.75
1.66
1.41
0.92
0.20
-0.61
-1.32
-1.82
-2.14
-2.43
-2.85
-3.44
-4.08
-4.54
-4.61
-4.23
-3.54
-2.78
-2.21
-2.01
-2.16
-2.50
-2.79
-2.78
-2.31
-1.38
-0.09
1.34
2.68
3.78
4.55
4.98
5.08
4.84
4.25
3.36
2.34
1.39
0.75
0.52
0.65
0.96
1.22
1.33
1.31
1.27
1.33
1.51
1.73
1.87
1.85
1.64
1.31
0.95
0.64
0.41
0.27
0.23
0.33
0.58
0.93
1.30
1.55
1.51
1.08
0.28
-0.76
-1.78
-2.54
-2.83
-2.62
-1.99
-1.11
-0.17
0.70
1.46
2.07
2.49
2.66
2.52
2.06
1.37
0.58
-0.11
-0.58
-0.76
-0.71
-0.53
-0.38
-0.32
-0.40
-0.52
-0.59
-0.53
-0.34
-0.11
-0.01
-0.19
-0.72
-1.54
-2.46
-3.28
-3.81
-3.99
-3.90
-3.67
-3.44
-3.32
-3.37
-3.57
-3.87
-4.20
-4.42
-4.36
-3.86
-2.84
-1.33
0.48
2.29
3.82
4.86
5.37
5.40
5.09
4.60
4.01
3.36
2.66
1.92
1.21
0.62
0.25
0.14
0.28
0.59
0.96
1.29
1.57
1.80
2.02
2.26
2.48
2.66
2.74
2.68
2.47
2.12
1.64
1.11
0.63
0.29
0.14
0.13
0.11
-0.10
-0.67
-1.65
-2.95
-4.38
-5.68
-6.62
-7.00
-6.75
-5.89
-4.50
-2.76
-0.85
1.01
2.64
3.93
4.75
5.06
4.88
4.31
3.51
2.67
1.91
1.27
0.72
0.23
-0.22
-0.60
-0.87
-1.06
-1.21
-1.41
-1.67
-1.91
-1.96
-1.69
-1.08
-0.24
0.60
1.25
1.63
1.83
2.04
2.47
3.17
4.05
4.90
5.48
5.73
5.70
5.58
5.55
5.67
5.86
6.00
6.02
5.97
6.02
6.40
7.27
8.68
10.53
12.71
15.15
17.79
20.51
23.10
25.17
26.21
25.82
23.78
20.22
15.46
9.98
4.18
-1.59
-7.05
-11.89
-15.81
-18.59
-20.19
-20.81
-20.82
-20.57
-20.27
-19.94
-19.47
-18.83
-18.06
-17.33
-16.81
-16.52
-16.27
-15.78
-14.83
-13.37
-11.55
-9.67
-8.00
-6.66
-5.60
-4.60
-3.51
-2.25
-0.98
-0.00
0.36
-0.08
-1.26
-2.84
-4.39
-5.54
-6.14
-6.25
-6.11
-5.94
-5.83
-5.72
-5.46
-4.94
-4.16
-3.23
-2.25
-1.34
-0.54
0.16
0.77
1.28
1.69
2.01
2.24
2.43
2.60
2.77
2.95
3.10
3.17
3.18
3.16
3.17
3.28
3.50
3.80
4.11
4.35
4.52
4.61
4.60
4.43
4.02
3.37
2.56
1.83
1.38
1.35
1.68
2.12
2.36
2.27
1.88
1.36
0.90
0.60
0.38
0.07
-0.50
-1.38
-2.44
-3.51
-4.41
-5.06
-5.45
-5.65
-5.74
-5.75
-5.68
-5.51
-5.25
-4.94
-4.63
-4.38
-4.22
-4.10
-3.93
-3.62
-3.20
-2.78
-2.51
-2.53
-2.81
-3.17
-3.35
-3.13
-2.40
-1.25
0.17
1.65
3.02
4.16
4.98
5.39
5.38
5.02
4.49
3.96
3.62
3.47
3.44
3.39
3.19
2.80
2.30
1.79
1.37
1.11
1.02
1.05
1.17
1.31
1.42
1.49
1.51
1.51
1.51
1.52
1.57
1.67
1.84
2.04
2.18
2.12
1.71
0.89
-0.22
-1.39
-2.30
-2.76
-2.71
-2.27
-1.64
-1.00
-0.41
0.12
0.57
0.88
0.97
0.79
0.40
-0.08
-0.47
-0.68
-0.73
-0.70
-0.68
-0.75
-0.88
-1.03
-1.12
-1.12
-1.08
-1.01
-1.00
-1.06
-1.20
-1.40
-1.59
-1.70
-1.66
-1.45
-1.08
-0.63
-0.19
0.10
0.17
-0.01
-0.38
-0.79
-1.06
-1.01
-0.58
0.19
1.19
2.25
3.23
3.96
4.33
4.30
3.86
3.12
2.29
1.57
1.10
0.92
0.93
1.02
1.04
0.94
0.78
0.65
0.67
0.90
1.29
1.73
2.04
2.04
1.62
0.80
-0.29
-1.40
-2.29
-2.80
-2.90
-2.73
-2.49
-2.35
-2.41
-2.62
-2.88
-3.05
-2.99
-2.57
-1.76
-0.60
0.73
1.94
2.78
3.08
2.90
2.44
1.99
1.79
1.92
2.29
2.74
3.09
3.26
3.20
2.98
2.64
2.23
1.83
1.48
1.24
1.10
1.04
1.01
0.97
0.90
0.79
0.65
0.43
0.11
-0.37
-1.02
-1.79
-2.55
-3.19
-3.61
-3.77
-3.69
-3.35
-2.68
-1.66
-0.33
1.16
2.53
3.53
3.99
3.93
3.52
2.94
2.33
1.70
1.02
0.26
-0.49
-1.08
-1.39
-1.36
-1.02
-0.51
0.00
0.40
0.62
0.72
0.72
0.68
0.64
0.60
0.53
0.38
0.11
-0.34
-0.98
-1.77
-2.61
-3.39
-3.99
-4.30
-4.26
-3.79
-2.91
-1.72
-0.39
0.85
1.80
2.35
2.56
2.56
2.49
2.41
2.27
1.96
1.41
0.63
-0.27
-1.11
-1.75
-2.07
-2.07
-1.82
-1.40
-0.91
-0.43
-0.03
0.28
0.47
0.55
0.52
0.36
0.07
-0.31
-0.73
-1.15
-1.50
-1.75
-1.90
-2.02
-2.15
-2.29
-2.40
-2.36
-2.04
-1.38
-0.43
0.71
1.87
2.92
3.71
4.16
4.22
3.89
3.30
2.56
1.84
1.26
0.83
0.50
0.23
-0.01
-0.19
-0.29
-0.33
-0.42
-0.63
-1.03
-1.50
-1.88
-1.99
-1.80
-1.42
-1.06
-0.88
-0.97
-1.20
-1.41
-1.47
-1.37
-1.27
-1.36
-1.74
-2.33
-2.83
-2.90
-2.32
-1.07
0.59
2.27
3.61
4.41
4.71
4.66
4.48
4.30
4.12
3.90
3.56
3.08
2.50
1.91
1.41
1.10
1.05
1.23
1.55
1.80
1.78
1.35
0.51
-0.58
-1.66
-2.49
-2.96
-3.11
-3.04
-2.91
-2.76
-2.60
-2.39
-2.19
-2.07
-2.17
-2.52
-3.02
-3.47
-3.59
-3.18
-2.18
-0.73
0.89
2.37
3.45
4.02
4.17
4.08
3.91
3.76
3.62
3.41
3.04
2.47
1.74
0.91
0.10
-0.59
-1.04
-1.16
-0.95
-0.52
-0.06
0.24
0.25
-0.01
-0.42
-0.86
-1.27
-1.67
-2.11
-2.62
-3.18
-3.72
-4.23
-4.70
-5.18
-5.68
-6.09
-6.23
-5.91
-4.99
-3.50
-1.63
0.30
2.00
3.25
3.96
4.20
4.07
3.67
3.09
2.40
1.68
1.04
0.61
0.45
0.53
0.74
0.95
1.06
1.07
1.04
1.05
1.15
1.32
1.52
1.72
1.91
2.05
2.14
2.14
2.02
1.74
1.34
0.88
0.40
-0.08
-0.60
-1.24
-2.01
-2.83
-3.49
-3.79
-3.54
-2.73
-1.54
-0.22
0.98
1.91
2.55
2.95
3.10
2.96
2.46
1.69
0.86
0.27
0.13
0.47
1.09
1.67
1.97
1.93
1.65
1.33
1.12
1.05
1.03
0.93
0.68
0.27
-0.26
-0.80
-1.21
-1.44
-1.42
-1.21
-0.93
-0.73
-0.74
-1.09
-1.80
-2.79
-3.91
-4.87
-5.38
-5.20
-4.28
-2.76
-0.98
0.67
1.89
2.55
2.75
2.68
2.59
2.62
2.78
3.00
3.15
3.17
3.06
2.89
2.75
2.67
2.61
2.44
2.06
1.42
0.58
-0.34
-1.20
-1.92
-2.49
-2.90
-3.16
-3.24
-3.11
-2.79
-2.38
-1.99
-1.75
-1.71
-1.82
-2.01
-2.16
-2.21
-2.11
-1.85
-1.43
-0.88
-0.23
0.47
1.15
1.75
2.20
2.47
2.55
2.46
2.21
1.83
1.36
0.83
0.31
-0.11
-0.35
-0.38
-0.19
0.16
0.61
1.06
1.48
1.80
1.96
1.89
1.56
1.01
0.36
-0.22
-0.59
-0.77
-0.88
-1.07
-1.46
-2.06
-2.78
-3.48
-4.02
-4.30
-4.25
-3.80
-2.95
-1.77
-0.41
0.95
2.12
2.97
3.45
3.56
3.34
2.82
2.14
1.46
0.95
0.74
0.79
0.97
1.11
1.13
1.06
1.02
1.08
1.26
1.48
1.62
1.60
1.43
1.15
0.80
0.36
-0.16
-0.72
-1.20
-1.49
-1.58
-1.60
-1.81
-2.42
-3.43
-4.62
-5.57
-5.92
-5.47
-4.30
-2.68
-0.88
0.87
2.47
3.77
4.57
4.63
3.81
2.11
-0.14
-2.44
-4.26
-5.23
-5.25
-4.42
-3.02
-1.35
0.34
1.79
2.79
3.14
2.73
1.59
-0.07
-1.91
-3.55
-4.67
-5.11
-4.86
-4.12
-3.12
-2.12
-1.29
-0.70
-0.32
-0.07
0.14
0.35
0.60
0.94
1.42
2.09
2.94
3.88
4.73
5.27
5.32
4.85
3.96
2.82
1.70
0.80
0.28
0.15
0.35
0.73
1.13
1.43
1.59
1.65
1.74
1.90
2.13
2.27
2.10
1.43
0.22
-1.40
-3.12
-4.59
-5.54
-5.81
-5.43
-4.52
-3.24
-1.76
-0.22
1.25
2.52
3.45
3.95
4.01
3.70
3.11
2.41
1.74
1.23
0.94
0.85
0.84
0.82
0.70
0.49
0.24
0.01
-0.20
-0.48
-0.90
-1.48
-2.15
-2.69
-2.92
-2.79
-2.40
-2.00
-1.84
-2.01
-2.43
-2.84
-2.98
-2.67
-1.87
-0.71
0.56
1.71
2.59
3.15
3.44
3.55
3.54
3.43
3.17
2.74
2.14
1.48
0.88
0.50
0.37
0.42
0.50
0.47
0.29
0.01
-0.23
-0.34
-0.30
-0.17
-0.08
-0.16
-0.43
-0.85
-1.34
-1.86
-2.38
-2.88
-3.28
-3.45
-3.20
-2.41
-1.15
0.37
1.84
3.00
3.70
3.97
3.91
3.66
3.26
2.72
2.07
1.36
0.76
0.41
0.38
0.62
0.94
1.13
1.06
0.71
0.19
-0.32
-0.72
-0.95
-1.05
-1.10
-1.17
-1.31
-1.55
-1.94
-2.48
-3.12
-3.72
-4.09
-4.00
-3.38
-2.29
-0.95
0.40
1.56
2.45
3.09
3.52
3.79
3.88
3.77
3.48
3.03
2.52
2.00
1.55
1.22
1.03
0.98
1.06
1.19
1.29
1.27
1.05
0.62
-0.06
-0.94
-2.01
-3.13
-4.16
-4.95
-5.42
-5.59
-5.58
-5.55
-5.56
-5.51
-5.17
-4.34
-2.97
-1.22
0.59
2.13
3.18
3.73
3.92
3.87
3.69
3.38
2.90
2.29
1.62
1.01
0.60
0.43
0.50
0.73
1.08
1.49
1.92
2.32
2.63
2.77
2.68
2.32
1.70
0.92
0.09
-0.66
-1.25
-1.68
-2.00
-2.30
-2.70
-3.23
-3.90
-4.59
-5.14
-5.38
-5.19
-4.49
-3.29
-1.66
0.24
2.20
3.94
5.23
5.93
6.00
5.56
4.82
4.01
3.29
2.73
2.31
2.02
1.85
1.87
2.07
2.39
2.66
2.69
2.40
1.82
1.17
0.66
0.46
0.53
0.70
0.73
0.47
-0.10
-0.83
-1.56
-2.14
-2.56
-2.87
-3.16
-3.49
-3.87
-4.24
-4.54
-4.63
-4.37
-3.70
-2.59
-1.21
0.23
1.43
2.23
2.56
2.53
2.31
2.04
1.83
1.67
1.59
1.58
1.59
1.59
1.51
1.32
1.07
0.85
0.70
0.66
0.64
0.56
0.32
-0.05
-0.48
-0.94
-1.40
-1.91
-2.46
-2.98
-3.36
-3.54
-3.54
-3.48
-3.50
-3.64
-3.81
-3.81
-3.45
-2.63
-1.41
0.04
1.53
2.87
3.99
4.80
5.30
5.46
5.27
4.79
4.04
3.12
2.13
1.19
0.46
0.08
0.18
0.73
1.60
2.55
3.34
3.79
3.85
3.54
2.94
2.07
0.94
-0.40
-1.82
-3.10
-3.99
-4.36
-4.21
-3.76
-3.25
-2.92
-2.88
-3.18
-3.75
-4.49
-5.26
-5.85
-6.02
-5.59
-4.51
-2.87
-0.95
0.92
2.48
3.57
4.20
4.47
4.47
4.27
3.89
3.36
2.71
2.05
1.49
1.20
1.26
1.67
2.30
2.96
3.45
3.62
3.39
2.76
1.82
0.72
-0.37
-1.26
-1.82
-2.06
-2.07
-2.02
-2.07
-2.28
-2.61
-2.94
-3.16
-3.27
-3.33
-3.46
-3.69
-3.97
-4.11
-3.94
-3.36
-2.37
-1.18
0.01
0.97
1.66
2.16
2.61
3.16
3.79
4.39
4.72
4.62
4.08
3.23
2.34
1.66
1.33
1.33
1.52
1.73
1.83
1.79
1.68
1.59
1.59
1.68
1.76
1.70
1.40
0.84
0.10
-0.68
-1.35
-1.85
-2.25
-2.70
-3.33
-4.17
-5.11
-5.97
-6.59
-6.88
-6.87
-6.60
-6.12
-5.37
-4.29
-2.85
-1.11
0.71
2.43
3.87
4.95
5.67
6.01
6.00
5.65
5.02
4.29
3.66
3.30
3.25
3.41
3.56
3.47
3.01
2.19
1.15
0.06
-0.92
-1.71
-2.29
-2.69
-2.94
-3.06
-3.08
-3.07
-3.12
-3.37
-3.92
-4.75
-5.73
-6.63
-7.18
-7.17
-6.50
-5.22
-3.48
-1.50
0.49
2.30
3.78
4.83
5.42
5.55
5.29
4.72
3.94
3.04
2.11
1.28
0.68
0.45
0.64
1.19
1.88
2.39
2.48
2.03
1.17
0.19
-0.58
-0.94
-0.91
-0.70
-0.57
-0.67
-0.99
-1.42
-1.82
-2.13
-2.40
-2.67
-2.95
-3.19
-3.21
-2.86
-2.09
-0.94
0.45
1.90
3.21
4.19
4.75
4.86
4.57
4.02
3.37
2.72
2.18
1.74
1.41
1.20
1.14
1.23
1.43
1.63
1.73
1.64
1.40
1.14
0.99
1.03
1.22
1.44
1.59
1.63
1.65
1.71
1.83
1.91
1.79
1.38
0.69
-0.12
-0.81
-1.19
-1.14
-0.67
0.17
1.24
2.39
3.46
4.27
4.77
4.96
4.89
4.65
4.27
3.72
3.01
2.20
1.47
1.01
0.98
1.38
2.02
2.65
3.05
3.14
2.96
2.61
2.25
1.97
1.81
1.81
1.92
2.07
2.13
1.90
1.21
-0.07
-1.91
-4.12
-6.43
-8.45
-9.87
-10.49
-10.26
-9.31
-7.96
-6.54
-5.35
-4.57
-4.19
-4.10
-4.16
-4.26
-4.33
-4.30
-4.09
-3.66
-3.00
-2.23
-1.57
-1.19
-1.17
-1.38
-1.63
-1.71
-1.57
-1.31
-1.11
-1.13
-1.37
-1.71
-1.99
-2.12
-2.12
-2.08
-2.13
-2.34
-2.71
-3.19
-3.74
-4.23
-4.56
-4.56
-4.12
-3.21
-1.96
-0.57
0.68
1.63
2.24
2.60
2.83
2.98
2.98
2.70
2.04
1.04
-0.12
-1.17
-1.83
-2.03
-1.84
-1.52
-1.30
-1.34
-1.62
-1.99
-2.26
-2.30
-2.11
-1.78
-1.43
-1.15
-0.96
-0.86
-0.84
-0.93
-1.15
-1.48
-1.85
-2.11
-2.16
-1.95
-1.53
-1.02
-0.51
-0.06
0.40
0.98
1.80
2.85
4.04
5.13
5.88
6.07
5.67
4.72
3.45
2.07
0.81
-0.20
-0.91
-1.32
-1.50
-1.49
-1.37
-1.20
-1.03
-0.90
-0.89
-1.07
-1.48
-2.10
-2.81
-3.40
-3.69
-3.51
-2.85
-1.79
-0.44
1.09
2.68
4.22
5.56
6.53
6.96
6.78
6.04
4.88
3.49
2.03
0.62
-0.65
-1.69
-2.42
-2.78
-2.74
-2.40
-1.84
-1.20
-0.52
0.17
0.82
1.40
1.86
2.13
2.17
1.96
1.47
0.67
-0.39
-1.61
-2.72
-3.44
-3.52
-2.94
-1.88
-0.67
0.36
1.05
1.45
1.73
2.01
2.29
2.45
2.31
1.81
1.02
0.16
-0.54
-0.88
-0.81
-0.40
0.21
0.83
1.29
1.51
1.45
1.17
0.78
0.36
-0.10
-0.64
-1.35
-2.23
-3.21
-4.13
-4.86
-5.30
-5.38
-5.05
-4.23
-2.89
-1.10
0.91
2.83
4.32
5.19
5.45
5.24
4.77
4.19
3.56
2.89
2.16
1.45
0.85
0.45
0.26
0.23
0.26
0.22
0.04
-0.27
-0.64
-0.93
-1.04
-0.91
-0.66
-0.45
-0.50
-0.91
-1.68
-2.65
-3.57
-4.20
-4.39
-4.06
-3.25
-2.06
-0.64
0.81
2.16
3.30
4.19
4.83
5.24
5.41
5.29
4.84
4.05
3.01
1.88
0.83
0.04
-0.46
-0.69
-0.75
-0.75
-0.76
-0.76
-0.70
-0.52
-0.24
0.08
0.32
0.36
0.17
-0.25
-0.87
-1.65
-2.54
-3.45
-4.23
-4.65
-4.51
-3.72
-2.34
-0.66
0.98
2.26
3.02
3.30
3.21
2.95
2.61
2.23
1.81
1.34
0.87
0.48
0.31
0.42
0.78
1.28
1.75
2.02
1.99
1.64
1.04
0.32
-0.42
-1.08
-1.67
-2.19
-2.64
-3.01
-3.23
-3.30
-3.31
-3.38
-3.64
-4.05
-4.46
-4.55
-4.07
-2.91
-1.18
0.80
2.67
4.14
5.05
5.40
5.27
4.76
4.00
3.10
2.16
1.31
0.68
0.37
0.43
0.81
1.36
1.83
1.98
1.65
0.90
-0.08
-0.99
-1.63
-1.92
-1.94
-1.83
-1.71
-1.58
-1.43
-1.28
-1.24
-1.45
-2.00
-2.85
-3.79
-4.56
-4.96
-4.88
-4.37
-3.51
-2.40
-1.13
0.19
1.37
2.21
2.57
2.45
2.00
1.46
1.07
0.91
0.94
1.04
1.06
0.97
0.84
0.80
0.94
1.29
1.80
2.35
2.83
3.17
3.35
3.40
3.30
3.05
2.60
1.98
1.25
0.54
0.01
-0.32
-0.50
-0.69
-1.08
-1.77
-2.67
-3.54
-4.09
-4.09
-3.52
-2.54
-1.40
-0.35
0.47
1.08
1.55
1.98
2.34
2.51
2.36
1.84
1.04
0.18
-0.50
-0.82
-0.73
-0.30
0.31
0.94
1.46
1.79
1.90
1.86
1.75
1.66
1.65
1.72
1.79
1.71
1.38
0.74
-0.14
-1.17
-2.22
-3.20
-4.08
-4.79
-5.28
-5.39
-5.03
-4.13
-2.81
-1.32
0.06
1.09
1.63
1.75
1.59
1.31
1.00
0.71
0.48
0.32
0.32
0.48
0.77
1.10
1.34
1.46
1.49
1.48
1.46
1.39
1.14
0.68
0.06
-0.52
-0.83
-0.75
-0.33
0.21
0.61
0.67
0.34
-0.36
-1.28
-2.27
-3.17
-3.76
-3.85
-3.30
-2.15
-0.59
1.04
2.39
3.23
3.52
3.37
2.97
2.50
2.03
1.56
1.09
0.69
0.48
0.55
0.93
1.47
1.97
2.23
2.15
1.76
1.21
0.65
0.19
-0.16
-0.44
-0.72
-1.03
-1.36
-1.70
-2.03
-2.34
-2.61
-2.82
-2.96
-3.02
-3.02
-2.93
-2.70
-2.27
-1.53
-0.48
0.79
2.11
3.23
3.96
4.17
3.87
3.21
2.38
1.58
0.94
0.46
0.07
-0.33
-0.80
-1.30
-1.74
-1.97
-1.94
-1.68
-1.37
-1.15
-1.12
-1.23
-1.30
-1.16
-0.80
-0.34
-0.06
-0.20
-0.81
-1.77
-2.76
-3.44
-3.60
-3.18
-2.33
-1.24
-0.14
0.83
1.60
2.19
2.59
2.82
2.82
2.58
2.13
1.58
1.14
0.96
1.12
1.54
1.99
2.25
2.16
1.73
1.09
0.40
-0.20
-0.64
-0.91
-1.03
-1.05
-1.00
-0.96
-1.01
-1.21
-1.62
-2.24
-3.07
-3.96
-4.76
-5.23
-5.17
-4.51
-3.34
-1.89
-0.43
0.82
1.77
2.43
2.88
3.19
3.40
3.53
3.57
3.55
3.45
3.29
3.09
2.89
2.75
2.70
2.67
2.55
2.20
1.59
0.76
-0.08
-0.73
-1.06
-1.09
-0.96
-0.86
-0.98
-1.38
-2.03
-2.82
-3.65
-4.39
-4.96
-5.25
-5.18
-4.66
-3.68
-2.27
-0.60
1.09
2.57
3.64
4.18
4.24
3.91
3.38
2.79
2.25
1.80
1.43
1.14
0.90
0.71
0.53
0.35
0.15
-0.06
-0.23
-0.27
-0.19
-0.01
0.11
0.05
-0.26
-0.79
-1.38
-1.84
-2.05
-2.02
-1.85
-1.69
-1.70
-1.95
-2.40
-2.94
-3.41
-3.67
-3.58
-3.07
-2.18
-1.01
0.32
1.64
2.79
3.69
4.22
4.32
3.99
3.29
2.36
1.42
0.68
0.24
0.12
0.22
0.41
0.61
0.79
0.95
1.14
1.34
1.50
1.59
1.54
1.37
1.12
0.82
0.54
0.31
0.15
0.10
0.15
0.25
0.31
0.25
-0.02
-0.56
-1.37
-2.39
-3.53
-4.61
-5.37
-5.57
-5.03
-3.77
-2.02
-0.18
1.38
2.41
2.93
3.05
2.95
2.69
2.22
1.47
0.51
-0.49
-1.25
-1.55
-1.40
-0.93
-0.41
-0.01
0.25
0.42
0.60
0.81
1.02
1.15
1.21
1.24
1.32
1.45
1.57
1.55
1.32
0.93
0.48
0.09
-0.19
-0.39
-0.60
-0.87
-1.19
-1.52
-1.82
-2.13
-2.45
-2.81
-3.08
-3.08
-2.61
-1.64
-0.29
1.16
2.36
3.10
3.35
3.22
2.92
2.61
2.33
2.03
1.61
1.06
0.48
0.02
-0.15
-0.01
0.34
0.66
0.76
0.59
0.18
-0.26
-0.59
-0.70
-0.61
-0.40
-0.18
-0.03
0.02
0.01
0.01
0.06
0.17
0.27
0.35
0.33
0.22
0.05
-0.16
-0.42
-0.80
-1.36
-2.10
-2.92
-3.63
-4.03
-3.95
-3.36
-2.36
-1.15
0.03
0.97
1.58
1.88
1.97
1.97
1.94
1.89
1.74
1.47
1.12
0.83
0.73
0.91
1.31
1.75
2.04
2.05
1.79
1.37
0.95
0.65
0.50
0.44
0.35
0.13
-0.24
-0.71
-1.13
-1.41
-1.48
-1.45
-1.46
-1.68
-2.16
-2.84
-3.55
-4.09
-4.35
-4.32
-4.08
-3.76
-3.39
-2.98
-2.47
-1.80
-0.97
-0.06
0.81
1.53
2.03
2.27
2.28
2.08
1.71
1.20
0.62
0.07
-0.34
-0.46
-0.24
0.31
1.05
1.74
2.19
2.32
2.18
1.92
1.71
1.60
1.52
1.35
1.01
0.58
0.26
0.25
0.57
1.05
1.39
1.33
0.80
-0.05
-0.96
-1.65
-2.03
-2.06
-1.83
-1.37
-0.70
0.15
1.08
1.97
2.65
3.03
3.08
2.86
2.45
1.92
1.29
0.60
-0.14
-0.83
-1.40
-1.74
-1.80
-1.58
-1.14
-0.58
-0.03
0.38
0.59
0.54
0.28
-0.12
-0.53
-0.86
-1.06
-1.14
-1.16
-1.19
-1.30
-1.50
-1.84
-2.32
-2.95
-3.65
-4.29
-4.69
-4.68
-4.20
-3.31
-2.18
-1.01
0.07
1.01
1.82
2.54
3.09
3.41
3.43
3.15
2.65
2.06
1.50
1.07
0.83
0.80
0.94
1.19
1.43
1.53
1.43
1.12
0.69
0.25
-0.09
-0.30
-0.35
-0.31
-0.21
-0.15
-0.19
-0.40
-0.80
-1.39
-2.06
-2.66
-3.08
-3.22
-3.05
-2.60
-1.90
-1.00
0.04
1.15
2.21
3.07
3.63
3.80
3.65
3.32
2.97
2.70
2.55
2.42
2.22
1.86
1.34
0.77
0.23
-0.19
-0.50
-0.78
-1.11
-1.55
-2.05
-2.52
-2.87
-3.00
-2.89
-2.59
-2.18
-1.82
-1.65
-1.74
-2.09
-2.58
-3.04
-3.28
-3.16
-2.62
-1.72
-0.56
0.72
1.94
2.95
3.67
4.05
4.10
3.89
3.46
2.90
2.25
1.60
1.02
0.61
0.42
0.40
0.51
0.66
0.82
1.00
1.21
1.42
1.52
1.40
1.01
0.45
-0.12
-0.50
-0.59
-0.51
-0.44
-0.59
-1.09
-1.90
-2.87
-3.83
-4.59
-5.02
-4.98
-4.41
-3.32
-1.86
-0.28
1.08
1.96
2.27
2.08
1.62
1.16
0.88
0.86
1.01
1.18
1.22
1.06
0.79
0.54
0.49
0.74
1.20
1.72
2.09
2.17
1.94
1.50
0.99
0.51
0.08
-0.33
-0.76
-1.25
-1.79
-2.39
-3.01
-3.57
-3.97
-4.05
-3.69
-2.87
-1.70
-0.39
0.85
1.82
2.44
2.72
2.69
2.36
1.79
1.03
0.20
-0.52
-1.04
-1.26
-1.23
-1.03
-0.81
-0.65
-0.59
-0.60
-0.58
-0.49
-0.33
-0.17
-0.11
-0.18
-0.37
-0.57
-0.69
-0.72
-0.75
-0.94
-1.39
-2.09
-2.88
-3.52
-3.81
-3.62
-2.95
-1.84
-0.36
1.37
3.18
4.83
6.05
6.67
6.62
5.99
4.95
3.71
2.45
1.30
0.37
-0.30
-0.69
-0.89
-0.98
-1.07
-1.21
-1.36
-1.41
-1.33
-1.15
-1.05
-1.14
-1.46
-1.90
-2.27
-2.38
-2.21
-1.93
-1.80
-2.01
-2.55
-3.21
-3.63
-3.53
-2.81
-1.62
-0.24
1.09
2.21
3.11
3.83
4.38
4.77
4.93
4.88
4.66
4.40
4.18
4.05
3.97
3.85
3.65
3.34
2.93
2.42
1.82
1.13
0.40
-0.28
-0.82
-1.20
-1.46
-1.65
-1.83
-2.00
-2.14
-2.23
-2.30
-2.45
-2.75
-3.22
-3.81
-4.44
-4.98
-5.29
-5.26
-4.78
-3.80
-2.38
-0.67
1.09
2.66
3.81
4.46
4.58
4.24
3.55
2.66
1.75
0.98
0.49
0.35
0.56
1.09
1.86
2.76
3.62
4.24
4.48
4.27
3.73
3.10
2.65
2.53
2.70
2.97
3.10
2.92
2.38
1.57
0.58
-0.52
-1.70
-2.96
-4.27
-5.53
-6.57
-7.17
-7.15
-6.46
-5.20
-3.59
-1.93
-0.48
0.64
1.39
1.85
2.13
2.24
2.20
1.98
1.63
1.27
1.02
1.00
1.18
1.45
1.60
1.52
1.18
0.71
0.28
-0.01
-0.17
-0.34
-0.69
-1.25
-1.93
-2.49
-2.72
-2.58
-2.19
-1.83
-1.73
-2.00
-2.55
-3.17
-3.66
-3.92
-3.95
-3.82
-3.55
-3.11
-2.41
-1.46
-0.32
0.82
1.75
2.32
2.46
2.26
1.83
1.37
1.05
0.96
1.16
1.56
2.05
2.50
2.82
3.02
3.14
3.22
3.27
3.25
3.11
2.84
2.48
2.06
1.61
1.13
0.62
0.07
-0.44
-0.83
-1.07
-1.21
-1.36
-1.65
-2.12
-2.74
-3.38
-3.89
-4.14
-4.07
-3.64
-2.86
-1.80
-0.59
0.57
1.50
2.05
2.20
2.06
1.74
1.39
1.02
0.60
0.09
-0.47
-0.99
-1.31
-1.36
-1.13
-0.75
-0.41
-0.23
-0.26
-0.44
-0.65
-0.78
-0.79
-0.68
-0.49
-0.25
-0.01
0.23
0.43
0.57
0.61
0.53
0.29
-0.10
-0.68
-1.41
-2.21
-2.98
-3.55
-3.79
-3.58
-2.93
-1.87
-0.52
0.97
2.43
3.71
4.66
5.15
5.12
4.59
3.66
2.52
1.43
0.60
0.19
0.24
0.63
1.17
1.64
1.94
2.04
2.00
1.88
1.73
1.53
1.27
0.96
0.63
0.33
0.10
-0.08
-0.20
-0.28
-0.31
-0.29
-0.24
-0.24
-0.41
-0.77
-1.33
-1.99
-2.63
-3.18
-3.58
-3.79
-3.74
-3.31
-2.44
-1.17
0.31
1.71
2.75
3.30
3.39
3.16
2.75
2.22
1.53
0.70
-0.19
-0.97
-1.41
-1.40
-0.99
-0.37
0.21
0.54
0.56
0.33
0.03
-0.19
-0.25
-0.14
0.07
0.27
0.38
0.40
0.39
0.39
0.47
0.58
0.65
0.60
0.38
0.04
-0.39
-0.87
-1.44
-2.16
-3.09
-4.17
-5.17
-5.79
-5.74
-4.91
-3.41
-1.58
0.20
1.60
2.49
2.92
3.02
2.92
2.67
2.28
1.74
1.11
0.54
0.16
0.09
0.29
0.64
0.98
1.17
1.21
1.16
1.11
1.09
1.10
1.06
0.93
0.73
0.53
0.41
0.44
0.61
0.84
1.03
1.06
0.90
0.53
0.03
-0.51
-0.99
-1.40
-1.72
-1.96
-2.10
-2.06
-1.79
-1.27
-0.58
0.13
0.76
1.19
1.44
1.54
1.54
1.47
1.30
1.02
0.59
0.02
-0.63
-1.28
-1.77
-1.95
-1.73
-1.13
-0.30
0.55
1.20
1.50
1.42
1.04
0.47
-0.12
-0.58
-0.81
-0.77
-0.52
-0.19
0.04
0.04
-0.28
-0.84
-1.52
-2.12
-2.49
-2.54
-2.27
-1.74
-1.04
-0.25
0.59
1.45
2.31
3.11
3.72
4.04
4.00
3.62
2.99
2.21
1.36
0.47
-0.45
-1.33
-2.10
-2.68
-3.02
-3.14
-3.11
-3.02
-2.94
-2.83
-2.67
-2.38
-1.92
-1.30
-0.62
-0.01
0.31
0.17
-0.47
-1.46
-2.50
-3.24
-3.43
-3.02
-2.14
-1.02
0.13
1.21
2.20
3.05
3.73
4.16
4.30
4.21
4.03
3.91
3.90
3.95
3.91
3.61
3.01
2.16
1.22
0.40
-0.20
-0.56
-0.83
-1.18
-1.74
-2.52
-3.39
-4.08
-4.37
-4.16
-3.58
-2.86
-2.31
-2.12
-2.33
-2.81
-3.40
-3.91
-4.18
-4.12
-3.67
-2.82
-1.60
-0.11
1.48
2.96
4.16
4.96
5.32
5.24
4.84
4.25
3.62
3.05
2.58
2.21
1.90
1.66
1.46
1.29
1.12
0.89
0.55
0.10
-0.39
-0.82
-1.13
-1.32
-1.43
-1.51
-1.58
-1.67
-1.76
-1.93
-2.28
-2.91
-3.85
-4.98
-6.07
-6.80
-6.93
-6.32
-5.02
-3.22
-1.22
0.73
2.42
3.72
4.60
5.02
5.00
4.59
3.87
3.00
2.16
1.51
1.13
1.04
1.20
1.52
1.90
2.23
2.37
2.27
1.90
1.37
0.79
0.24
-0.28
-0.86
-1.57
-2.37
-3.11
-3.57
-3.62
-3.26
-2.69
-2.18
-1.96
-2.10
-2.48
-2.84
-2.90
-2.46
-1.49
-0.12
1.40
2.79
3.86
4.49
4.72
4.61
4.21
3.59
2.78
1.86
0.96
0.24
-0.13
-0.10
0.29
0.91
1.54
2.02
2.26
2.26
2.09
1.79
1.41
0.94
0.44
-0.03
-0.34
-0.43
-0.33
-0.16
-0.11
-0.31
-0.80
-1.52
-2.39
-3.33
-4.25
-5.01
-5.45
-5.34
-4.57
-3.18
-1.39
0.47
2.11
3.35
4.13
4.49
4.49
4.17
3.58
2.82
1.99
1.25
0.68
0.28
0.03
-0.11
-0.18
-0.19
-0.16
-0.13
-0.13
-0.15
-0.17
-0.17
-0.16
-0.21
-0.39
-0.73
-1.16
-1.53
-1.69
-1.60
-1.32
-1.02
-0.86
-0.96
-1.33
-1.95
-2.71
-3.49
-4.08
-4.24
-3.82
-2.78
-1.27
0.37
1.76
2.61
2.75
2.25
1.28
0.11
-0.97
-1.75
-2.10
-1.99
-1.44
-0.55
0.56
1.74
2.86
3.78
4.45
4.90
5.18
5.32
5.32
5.11
4.57
3.69
2.58
1.44
0.47
-0.18
-0.49
-0.55
-0.48
-0.41
-0.45
-0.72
-1.25
-2.06
-3.05
-4.03
-4.77
-5.11
-4.98
-4.42
-3.55
-2.51
-1.37
-0.29
0.62
1.23
1.47
1.38
1.11
0.90
0.90
1.18
1.65
2.14
2.50
2.63
2.53
2.21
1.76
1.24
0.73
0.32
0.10
0.12
0.38
0.83
1.29
1.57
1.49
0.91
-0.18
-1.67
-3.36
-5.01
-6.36
-7.20
-7.35
-6.68
-5.18
-2.99
-0.48
1.87
3.61
4.47
4.52
4.05
3.45
3.01
2.79
2.64
2.39
1.87
1.09
0.13
-0.84
-1.68
-2.27
-2.53
-2.47
-2.16
-1.75
-1.37
-1.13
-1.10
-1.31
-1.77
-2.43
-3.21
-3.96
-4.49
-4.66
-4.45
-3.97
-3.39
-2.84
-2.30
-1.63
-0.63
0.77
2.51
4.31
5.87
6.92
7.32
7.08
6.31
5.17
3.86
2.55
1.41
0.49
-0.19
-0.67
-0.96
-1.03
-0.78
-0.17
0.71
1.65
2.33
2.53
2.18
1.45
0.61
-0.08
-0.47
-0.61
-0.60
-0.62
-0.83
-1.37
-2.34
-3.72
-5.38
-6.97
-8.08
-8.38
-7.72
-6.23
-4.21
-2.06
-0.07
1.58
2.84
3.72
4.27
4.50
4.50
4.30
4.00
3.66
3.33
3.04
2.81
2.65
2.55
2.48
2.38
2.19
1.88
1.49
1.07
0.69
0.41
0.25
0.20
0.18
0.14
-0.04
-0.44
-1.14
-2.11
-3.26
-4.41
-5.30
-5.71
-5.49
-4.67
-3.40
-1.94
-0.54
0.63
1.48
2.04
2.34
2.43
2.33
2.01
1.51
0.87
0.19
-0.36
-0.64
-0.56
-0.12
0.51
1.16
1.66
1.98
2.15
2.28
2.41
2.51
2.52
2.43
2.28
2.17
2.11
2.05
1.80
1.17
0.11
-1.31
-2.82
-4.14
-5.02
-5.33
-5.08
-4.29
-3.04
-1.45
0.26
1.84
3.00
3.53
3.35
2.59
1.50
0.37
-0.54
-1.11
-1.34
-1.34
-1.22
-1.07
-0.88
-0.60
-0.16
0.45
1.19
1.94
2.55
2.91
2.99
2.81
2.44
1.94
1.32
0.57
-0.31
-1.30
-2.31
-3.24
-4.03
-4.62
-4.93
-4.93
-4.55
-3.80
-2.72
-1.44
-0.12
1.09
2.08
2.82
3.32
3.62
3.70
3.57
3.24
2.76
2.22
1.75
1.46
1.36
1.41
1.50
1.53
1.43
1.19
0.84
0.47
0.11
-0.19
-0.40
-0.53
-0.62
-0.70
-0.84
-1.07
-1.37
-1.66
-1.85
-1.88
-1.76
-1.60
-1.58
-1.83
-2.43
-3.27
-4.15
-4.76
-4.88
-4.44
-3.52
-2.32
-1.03
0.24
1.44
2.55
3.53
4.27
4.66
4.66
4.34
3.87
3.44
3.22
3.24
3.45
3.71
3.84
3.69
3.18
2.35
1.37
0.50
-0.01
-0.05
0.28
0.73
0.98
0.80
0.16
-0.76
-1.66
-2.30
-2.59
-2.62
-2.57
-2.69
-3.09
-3.80
-4.75
-5.80
-6.79
-7.51
-7.73
-7.22
-5.88
-3.81
-1.31
1.13
3.05
4.19
4.57
4.44
4.12
3.86
3.70
3.55
3.29
2.89
2.43
2.09
2.00
2.21
2.60
2.95
3.07
2.84
2.29
1.56
0.82
0.19
-0.35
-0.89
-1.53
-2.25
-2.89
-3.26
-3.17
-2.68
-1.96
-1.35
-1.08
-1.25
-1.80
-2.56
-3.38
-4.13
-4.69
-4.94
-4.74
-3.99
-2.73
-1.13
0.48
1.75
2.48
2.68
2.52
2.29
2.20
2.31
2.57
2.83
2.96
2.93
2.78
2.63
2.55
2.56
2.61
2.60
2.45
2.14
1.70
1.22
0.80
0.47
0.18
-0.12
-0.52
-1.04
-1.64
-2.27
-2.92
-3.58
-4.30
-5.04
-5.72
-6.20
-6.33
-6.05
-5.30
-4.14
-2.64
-0.97
0.65
1.98
2.85
3.21
3.20
3.05
2.96
3.01
3.09
3.04
2.77
2.32
1.91
1.75
1.92
2.33
2.76
2.97
2.88
2.55
2.12
1.70
1.30
0.86
0.29
-0.40
-1.11
-1.71
-2.11
-2.32
-2.44
-2.63
-2.99
-3.53
-4.14
-4.67
-4.90
-4.66
-3.83
-2.42
-0.60
1.35
3.10
4.37
5.06
5.22
4.98
4.52
3.92
3.25
2.55
1.90
1.37
1.03
0.83
0.70
0.49
0.15
-0.30
-0.77
-1.14
-1.36
-1.45
-1.42
-1.33
-1.21
-1.09
-1.02
-1.02
-1.07
-1.12
-1.12
-1.09
-1.13
-1.40
-2.01
-2.91
-3.92
-4.76
-5.23
-5.20
-4.73
-3.89
-2.80
-1.54
-0.16
1.22
2.48
3.48
4.15
4.47
4.49
4.27
3.86
3.33
2.72
2.10
1.54
1.10
0.80
0.62
0.53
0.46
0.36
0.18
-0.10
-0.49
-0.97
-1.47
-1.93
-2.26
-2.40
-2.36
-2.19
-1.99
-1.85
-1.86
-2.01
-2.27
-2.61
-2.94
-3.20
-3.25
-2.98
-2.31
-1.22
0.18
1.73
3.24
4.57
5.57
6.15
6.22
5.73
4.75
3.44
2.05
0.84
-0.07
-0.68
-1.03
-1.17
-1.12
-0.84
-0.36
0.26
0.83
1.24
1.40
1.37
1.27
1.21
1.27
1.45
1.73
2.04
2.29
2.32
1.94
0.94
-0.72
-2.85
-5.08
-6.85
-7.74
-7.53
-6.27
-4.25
-1.86
0.55
2.69
4.37
5.48
5.94
5.78
5.14
4.17
3.07
1.96
0.95
0.11
-0.46
-0.68
-0.54
-0.10
0.42
0.78
0.77
0.34
-0.42
-1.29
-2.07
-2.59
-2.81
-2.75
-2.45
-2.00
-1.50
-1.10
-0.97
-1.23
-1.93
-2.93
-3.98
-4.75
-4.97
-4.54
-3.55
-2.21
-0.82
0.37
1.26
1.83
2.21
2.51
2.86
3.29
3.73
4.07
4.22
4.16
3.93
3.65
3.37
3.13
2.87
2.53
2.06
1.52
0.97
0.49
0.15
-0.08
-0.26
-0.51
-0.92
-1.50
-2.23
-3.03
-3.81
-4.52
-5.07
-5.40
-5.42
-5.04
-4.24
-3.01
-1.49
0.20
1.87
3.34
4.45
5.11
5.23
4.80
3.90
2.67
1.29
-0.06
-1.23
-2.11
-2.60
-2.60
-2.09
-1.18
-0.08
0.88
1.34
1.11
0.19
-1.19
-2.64
-3.71
-4.11
-3.74
-2.81
-1.69
-0.81
-0.49
-0.81
-1.61
-2.55
-3.32
-3.65
-3.46
-2.76
-1.65
-0.25
1.32
2.88
4.27
5.30
5.85
5.85
5.33
4.40
3.26
2.10
1.14
0.56
0.43
0.76
1.40
2.16
2.80
3.16
3.10
2.60
1.72
0.61
-0.49
-1.38
-1.87
-1.95
-1.74
-1.52
-1.55
-2.00
-2.86
-3.98
-5.14
-6.15
-6.88
-7.17
-6.91
-5.98
-4.33
-2.14
0.27
2.46
4.03
4.79
4.79
4.26
3.51
2.78
2.18
1.73
1.33
0.95
0.54
0.14
-0.18
-0.33
-0.23
0.10
0.61
1.12
1.50
1.63
1.56
1.39
1.29
1.34
1.46
1.53
1.38
0.95
0.26
-0.56
-1.37
-2.08
-2.63
-3.02
-3.20
-3.14
-2.77
-2.11
-1.22
-0.26
0.62
1.35
1.88
2.22
2.30
2.09
1.55
0.72
-0.21
-1.01
-1.46
-1.45
-1.10
-0.62
-0.29
-0.23
-0.45
-0.75
-0.93
-0.82
-0.40
0.23
0.89
1.42
1.73
1.84
1.78
1.56
1.15
0.51
-0.34
-1.29
-2.12
-2.65
-2.74
-2.38
-1.67
-0.71
0.37
1.45
2.40
3.07
3.32
3.06
2.33
1.33
0.29
-0.55
-1.06
-1.24
-1.19
-0.99
-0.70
-0.34
0.11
0.64
1.17
1.60
1.82
1.76
1.47
1.04
0.59
0.18
-0.19
-0.58
-1.06
-1.67
-2.36
-3.06
-3.68
-4.13
-4.34
-4.24
-3.78
-2.93
-1.72
-0.29
1.18
2.47
3.39
3.85
3.83
3.44
2.81
2.13
1.51
1.06
0.81
0.76
0.86
1.09
1.39
1.68
1.90
1.93
1.73
1.31
0.76
0.21
-0.21
-0.47
-0.63
-0.79
-1.05
-1.46
-2.03
-2.68
-3.38
-4.07
-4.67
-5.03
-4.97
-4.37
-3.20
-1.60
0.12
1.68
2.87
3.64
4.05
4.20
4.13
3.80
3.18
2.31
1.28
0.25
-0.61
-1.18
-1.39
-1.25
-0.80
-0.16
0.51
1.01
1.16
0.89
0.24
-0.59
-1.39
-1.92
-2.11
-2.00
-1.78
-1.68
-1.86
-2.41
-3.25
-4.24
-5.08
-5.50
-5.30
-4.43
-3.01
-1.27
0.53
2.15
3.48
4.47
5.11
5.42
5.44
5.22
4.84
4.33
3.73
3.04
2.30
1.56
0.91
0.46
0.30
0.42
0.73
1.10
1.39
1.48
1.31
0.92
0.43
-0.04
-0.33
-0.45
-0.48
-0.59
-0.89
-1.45
-2.19
-2.98
-3.73
-4.36
-4.86
-5.16
-5.15
-4.67
-3.64
-2.07
-0.16
1.81
3.55
4.81
5.51
5.62
5.22
4.41
3.35
2.23
1.26
0.61
0.37
0.49
0.81
1.14
1.35
1.36
1.19
0.94
0.68
0.50
0.44
0.51
0.63
0.70
0.59
0.23
-0.38
-1.09
-1.70
-2.04
-2.10
-2.07
-2.23
-2.79
-3.78
-4.98
-6.02
-6.60
-6.57
-5.97
-4.98
-3.77
-2.41
-0.96
0.53
1.91
2.96
3.51
3.47
2.93
2.15
1.42
0.96
0.87
1.08
1.43
1.75
1.95
2.05
2.11
2.22
2.37
2.51
2.54
2.40
2.08
1.63
1.07
0.44
-0.26
-0.99
-1.62
-1.99
-2.00
-1.65
-1.11
-0.65
-0.49
-0.71
-1.18
-1.64
-1.83
-1.60
-1.00
-0.22
0.51
1.04
1.33
1.45
1.47
1.43
1.28
0.93
0.36
-0.35
-0.96
-1.29
-1.19
-0.66
0.11
0.90
1.51
1.85
1.97
1.95
1.85
1.70
1.47
1.12
0.66
0.15
-0.33
-0.69
-0.90
-0.97
-0.96
-0.95
-0.95
-0.98
-1.07
-1.27
-1.63
-2.18
-2.91
-3.67
-4.25
-4.44
-4.12
-3.34
-2.21
-0.92
0.41
1.68
2.80
3.67
4.15
4.19
3.82
3.19
2.53
2.00
1.68
1.56
1.57
1.65
1.72
1.76
1.69
1.48
1.13
0.74
0.38
0.13
-0.03
-0.18
-0.40
-0.69
-1.00
-1.21
-1.33
-1.42
-1.64
-2.05
-2.64
-3.24
-3.62
-3.61
-3.18
-2.41
-1.49
-0.55
0.31
1.09
1.78
2.39
2.85
3.08
3.04
2.74
2.30
1.84
1.46
1.20
1.03
0.91
0.81
0.77
0.79
0.89
1.01
1.06
1.00
0.81
0.53
0.26
0.06
-0.02
-0.05
-0.13
-0.42
-1.02
-1.95
-3.07
-4.09
-4.74
-4.81
-4.29
-3.37
-2.31
-1.30
-0.42
0.40
1.24
2.07
2.76
3.14
3.11
2.71
2.13
1.60
1.27
1.17
1.15
1.05
0.69
0.00
-0.94
-1.97
-2.89
-3.50
-3.73
-3.62
-3.33
-3.06
-2.94
-3.01
-3.20
-3.43
-3.67
-3.95
-4.27
-4.61
-4.81
-4.66
-4.03
-2.91
-1.41
0.19
1.65
2.80
3.54
3.86
3.80
3.41
2.83
2.24
1.88
1.95
2.54
3.54
4.67
5.60
6.02
5.81
5.06
3.95
2.76
1.65
0.69
-0.14
-0.91
-1.67
-2.47
-3.28
-4.09
-4.85
-5.52
-6.03
-6.29
-6.20
-5.71
-4.78
-3.51
-2.04
-0.53
0.84
1.99
2.85
3.44
3.74
3.73
3.42
2.90
2.30
1.79
1.50
1.47
1.63
1.85
2.02
2.09
2.07
2.04
2.02
2.01
1.94
1.75
1.44
1.06
0.69
0.38
0.10
-0.26
-0.81
-1.64
-2.67
-3.68
-4.37
-4.50
-3.97
-2.89
-1.50
-0.07
1.19
2.21
2.97
3.47
3.69
3.54
2.95
2.01
0.94
0.03
-0.42
-0.36
0.07
0.53
0.71
0.45
-0.17
-0.91
-1.52
-1.89
-2.03
-2.08
-2.10
-2.10
-2.01
-1.83
-1.64
-1.63
-1.90
-2.41
-2.95
-3.22
-3.02
-2.29
-1.24
-0.09
0.91
1.71
2.35
2.94
3.50
3.93
4.07
3.77
2.99
1.88
0.72
-0.18
-0.57
-0.43
0.10
0.72
1.14
1.19
0.90
0.43
-0.01
-0.29
-0.40
-0.45
-0.57
-0.85
-1.29
-1.85
-2.46
-3.10
-3.71
-4.25
-4.57
-4.51
-3.95
-2.87
-1.39
0.26
1.83
3.14
4.05
4.51
4.50
4.08
3.37
2.57
1.87
1.43
1.32
1.47
1.75
2.05
2.28
2.39
2.39
2.33
2.25
2.18
2.11
2.00
1.81
1.47
0.91
0.16
-0.74
-1.69
-2.62
-3.50
-4.28
-4.94
-5.39
-5.54
-5.31
-4.69
-3.75
-2.61
-1.44
-0.35
0.57
1.26
1.66
1.73
1.42
0.81
0.04
-0.63
-1.01
-0.94
-0.43
0.42
1.41
2.35
3.06
3.42
3.37
2.93
2.21
1.40
0.69
0.24
0.12
0.32
0.70
1.09
1.25
1.02
0.27
-0.98
-2.53
-4.07
-5.21
-5.65
-5.26
-4.09
-2.39
-0.43
1.48
3.12
4.33
5.01
5.16
4.80
4.04
3.05
2.07
1.35
1.05
1.30
2.01
2.92
3.65
3.86
3.34
2.14
0.53
-1.08
-2.31
-2.98
-3.12
-2.96
-2.81
-2.90
-3.34
-4.09
-5.02
-5.88
-6.50
-6.70
-6.39
-5.59
-4.39
-2.96
-1.46
-0.03
1.22
2.24
3.00
3.54
3.87
4.00
3.93
3.68
3.30
2.92
2.67
2.66
2.89
3.28
3.72
4.09
4.30
4.34
4.20
3.86
3.36
2.70
1.96
1.24
0.58
-0.02
-0.67
-1.46
-2.43
-3.58
-4.79
-5.96
-6.96
-7.66
-7.94
-7.65
-6.70
-5.11
-3.07
-0.92
0.95
2.26
2.88
2.95
2.68
2.32
2.01
1.78
1.61
1.51
1.51
1.63
1.84
2.03
2.05
1.82
1.36
0.79
0.25
-0.15
-0.36
-0.44
-0.51
-0.63
-0.86
-1.17
-1.47
-1.71
-1.83
-1.86
-1.91
-2.11
-2.52
-3.10
-3.59
-3.71
-3.22
-2.07
-0.48
1.20
2.64
3.65
4.24
4.55
4.73
4.82
4.77
4.52
4.04
3.42
2.82
2.38
2.15
2.07
2.00
1.82
1.47
1.01
0.55
0.20
0.01
-0.11
-0.31
-0.70
-1.32
-2.00
-2.55
-2.79
-2.70
-2.39
-2.09
-1.94
-2.02
-2.30
-2.78
-3.43
-4.32
-5.40
-6.52
-7.41
-7.77
-7.38
-6.19
-4.35
-2.10
0.25
2.44
4.28
5.59
6.31
6.43
6.08
5.45
4.72
4.01
3.35
2.72
2.12
1.65
1.36
1.28
1.36
1.44
1.36
1.10
0.72
0.34
0.11
0.02
-0.01
-0.08
-0.28
-0.57
-0.85
-0.97
-0.88
-0.62
-0.30
-0.07
-0.00
-0.11
-0.36
-0.72
-1.19
-1.82
-2.62
-3.52
-4.33
-4.76
-4.57
-3.63
-2.03
-0.04
1.96
3.62
4.73
5.24
5.27
4.99
4.56
4.10
3.67
3.31
3.08
3.03
3.17
3.45
3.76
3.96
3.91
3.53
2.83
1.94
1.02
0.25
-0.28
-0.59
-0.79
-1.03
-1.38
-1.84
-2.30
-2.65
-2.81
-2.82
-2.73
-2.66
-2.63
-2.63
-2.62
-2.58
-2.54
-2.54
-2.58
-2.64
-2.70
-2.72
-2.77
-2.93
-3.26
-3.74
-4.20
-4.39
-4.05
-3.04
-1.47
0.38
2.10
3.38
4.01
4.03
3.59
2.91
2.17
1.52
0.97
0.53
0.14
-0.21
-0.51
-0.71
-0.74
-0.59
-0.34
-0.15
-0.14
-0.36
-0.73
-1.07
-1.19
-1.04
-0.71
-0.39
-0.27
-0.41
-0.73
-1.07
-1.27
-1.31
-1.25
-1.28
-1.52
-2.01
-2.63
-3.22
-3.58
-3.55
-3.11
-2.32
-1.34
-0.34
0.48
1.01
1.16
0.98
0.56
0.06
-0.33
-0.50
-0.38
-0.06
0.31
0.57
0.62
0.51
0.41
0.55
1.06
1.93
2.96
3.85
4.30
4.20
3.64
2.87
2.16
1.69
1.49
1.44
1.38
1.22
0.94
0.56
0.07
-0.62
-1.58
-2.79
-4.05
-5.05
-5.50
-5.26
-4.44
-3.30
-2.14
-1.14
-0.36
0.25
0.76
1.14
1.37
1.43
1.38
1.35
1.44
1.73
2.21
2.80
3.41
3.95
4.33
4.50
4.45
4.22
3.87
3.43
2.92
2.30
1.56
0.74
-0.05
-0.68
-1.09
-1.32
-1.50
-1.80
-2.28
-2.91
-3.59
-4.21
-4.75
-5.19
-5.51
-5.62
-5.37
-4.64
-3.38
-1.73
0.08
1.81
3.24
4.25
4.73
4.66
4.03
2.93
1.61
0.36
-0.53
-0.94
-0.90
-0.58
-0.15
0.24
0.60
0.97
1.36
1.79
2.19
2.52
2.75
2.87
2.84
2.61
2.16
1.46
0.57
-0.43
-1.48
-2.53
-3.55
-4.52
-5.41
-6.17
-6.74
-7.05
-7.07
-6.73
-5.97
-4.76
-3.10
-1.14
0.93
2.84
4.38
5.41
5.94
6.06
5.88
5.49
4.95
4.27
3.51
2.73
2.03
1.45
1.01
0.66
0.36
0.12
-0.02
-0.01
0.17
0.47
0.74
0.83
0.61
0.05
-0.78
-1.73
-2.63
-3.32
-3.80
-4.13
-4.45
-4.87
-5.40
-5.93
-6.25
-6.18
-5.58
-4.45
-2.89
-1.10
0.71
2.34
3.60
4.40
4.70
4.56
4.11
3.48
2.81
2.20
1.75
1.53
1.64
2.06
2.73
3.44
3.98
4.21
4.13
3.82
3.41
2.99
2.55
2.02
1.37
0.61
-0.20
-0.95
-1.61
-2.14
-2.59
-2.98
-3.38
-3.84
-4.36
-4.89
-5.29
-5.33
-4.84
-3.78
-2.32
-0.76
0.57
1.46
1.92
2.18
2.44
2.89
3.44
3.90
4.03
3.70
3.02
2.20
1.53
1.16
1.07
1.11
1.10
0.91
0.54
0.08
-0.40
-0.84
-1.24
-1.63
-2.02
-2.40
-2.80
-3.29
-3.95
-4.84
-5.92
-6.93
-7.54
-7.40
-6.39
-4.66
-2.61
-0.72
0.72
1.65
2.27
2.80
3.35
3.82
4.02
3.82
3.31
2.77
2.49
2.59
2.97
3.31
3.32
2.88
2.10
1.24
0.60
0.31
0.34
0.50
0.57
0.38
-0.10
-0.80
-1.53
-2.13
-2.50
-2.69
-2.85
-3.12
-3.57
-4.08
-4.39
-4.27
-3.57
-2.39
-0.93
0.51
1.73
2.65
3.25
3.56
3.60
3.36
2.89
2.29
1.73
1.36
1.26
1.35
1.49
1.52
1.36
1.06
0.76
0.58
0.58
0.73
0.92
1.03
0.96
0.69
0.19
-0.48
-1.28
-2.12
-2.93
-3.71
-4.51
-5.41
-6.39
-7.33
-7.96
-8.00
-7.31
-5.93
-4.10
-2.12
-0.23
1.42
2.77
3.78
4.41
4.63
4.45
3.97
3.38
2.83
2.43
2.21
2.17
2.31
2.64
3.12
3.67
4.11
4.25
3.94
3.18
2.12
0.97
-0.06
-0.84
-1.31
-1.53
-1.59
-1.57
-1.57
-1.69
-1.99
-2.51
-3.20
-3.90
-4.41
-4.50
-4.03
-2.97
-1.40
0.48
2.40
4.05
5.17
5.61
5.42
4.83
4.14
3.55
3.13
2.77
2.31
1.73
1.11
0.64
0.43
0.45
0.52
0.44
0.12
-0.36
-0.82
-1.07
-1.04
-0.78
-0.43
-0.16
-0.06
-0.15
-0.43
-0.87
-1.49
-2.24
-3.05
-3.80
-4.31
-4.42
-4.02
-3.08
-1.71
-0.15
1.32
2.42
2.98
3.00
2.57
1.86
1.06
0.28
-0.38
-0.86
-1.12
-1.18
-1.08
-0.90
-0.76
-0.69
-0.69
-0.63
-0.42
-0.01
0.57
1.17
1.66
1.93
1.95
1.68
1.13
0.31
-0.74
-1.93
-3.12
-4.10
-4.72
-4.88
-4.60
-3.94
-3.00
-1.88
-0.67
0.54
1.64
2.56
3.24
3.69
3.94
4.00
3.86
3.52
3.01
2.44
1.94
1.61
1.45
1.37
1.24
1.01
0.69
0.34
0.01
-0.30
-0.63
-0.97
-1.23
-1.30
-1.15
-0.87
-0.68
-0.83
-1.40
-2.29
-3.19
-3.76
-3.80
-3.30
-2.43
-1.41
-0.41
0.49
1.27
1.87
2.17
2.04
1.46
0.58
-0.27
-0.81
-0.83
-0.41
0.17
0.62
0.79
0.73
0.61
0.62
0.77
0.99
1.14
1.17
1.12
1.08
1.07
1.00
0.70
0.04
-0.96
-2.14
-3.28
-4.18
-4.78
-5.14
-5.33
-5.36
-5.14
-4.53
-3.42
-1.83
0.03
1.84
3.28
4.19
4.53
4.43
4.08
3.64
3.15
2.63
2.04
1.42
0.83
0.34
0.04
-0.04
0.09
0.38
0.73
1.04
1.24
1.25
1.07
0.75
0.40
0.13
0.03
0.08
0.23
0.35
0.35
0.15
-0.24
-0.82
-1.53
-2.29
-2.93
-3.30
-3.21
-2.60
-1.54
-0.22
1.11
2.23
3.07
3.61
3.89
3.90
3.63
3.10
2.44
1.83
1.48
1.47
1.78
2.25
2.69
3.00
3.11
3.03
2.75
2.25
1.55
0.71
-0.10
-0.71
-1.02
-1.04
-0.90
-0.79
-0.84
-1.10
-1.51
-2.02
-2.62
-3.36
-4.29
-5.38
-6.45
-7.23
-7.42
-6.82
-5.46
-3.54
-1.42
0.54
2.09
3.14
3.73
3.95
3.88
3.53
2.88
1.98
0.96
0.04
-0.58
-0.78
-0.62
-0.27
0.06
0.21
0.18
0.06
0.01
0.16
0.52
0.99
1.42
1.65
1.61
1.36
0.99
0.60
0.17
-0.40
-1.24
-2.36
-3.60
-4.64
-5.12
-4.85
-3.89
-2.48
-0.98
0.37
1.46
2.35
3.08
3.66
3.96
3.94
3.60
3.07
2.56
2.19
1.94
1.72
1.41
0.98
0.52
0.14
-0.08
-0.14
-0.17
-0.26
-0.47
-0.76
-0.99
-1.10
-1.05
-0.96
-0.95
-1.13
-1.54
-2.09
-2.67
-3.20
-3.65
-4.09
-4.59
-5.12
-5.55
-5.63
-5.12
-3.90
-2.08
0.06
2.12
3.77
4.85
5.32
5.35
5.09
4.65
4.08
3.41
2.69
2.01
1.51
1.31
1.43
1.79
2.20
2.49
2.53
2.37
2.11
1.89
1.81
1.82
1.81
1.66
1.31
0.80
0.24
-0.24
-0.61
-0.94
-1.36
-1.97
-2.81
-3.79
-4.74
-5.50
-5.94
-5.99
-5.61
-4.78
-3.54
-2.00
-0.41
0.95
1.86
2.25
2.26
2.14
2.10
2.20
2.33
2.33
2.14
1.83
1.56
1.48
1.55
1.61
1.50
1.21
0.85
0.60
0.61
0.84
1.15
1.35
1.34
1.15
0.86
0.56
0.29
0.05
-0.21
-0.50
-0.84
-1.23
-1.68
-2.21
-2.82
-3.44
-3.98
-4.32
-4.31
-3.84
-2.90
-1.57
-0.03
1.46
2.70
3.50
3.78
3.55
2.90
1.96
0.95
0.08
-0.49
-0.65
-0.44
0.01
0.53
0.99
1.33
1.58
1.76
1.85
1.81
1.57
1.17
0.67
0.16
-0.29
-0.70
-1.13
-1.64
-2.20
-2.76
-3.23
-3.59
-3.84
-4.03
-4.15
-4.09
-3.69
-2.79
-1.39
0.34
2.09
3.53
4.41
4.68
4.46
3.97
3.40
2.84
2.27
1.67
1.06
0.54
0.20
0.11
0.17
0.27
0.27
0.12
-0.11
-0.28
-0.27
-0.04
0.32
0.65
0.79
0.62
0.12
-0.62
-1.50
-2.40
-3.31
-4.21
-5.10
-5.88
-6.36
-6.29
-5.55
-4.14
-2.30
-0.34
1.42
2.76
3.59
3.97
3.98
3.75
3.34
2.80
2.18
1.54
0.97
0.56
0.40
0.52
0.85
1.24
1.55
1.66
1.60
1.44
1.26
1.09
0.85
0.47
-0.04
-0.57
-0.99
-1.21
-1.27
-1.31
-1.52
-2.00
-2.73
-3.55
-4.26
-4.65
-4.60
-4.08
-3.16
-1.98
-0.73
0.40
1.28
1.88
2.23
2.42
2.46
2.32
1.89
1.14
0.14
-0.87
-1.63
-1.91
-1.67
-1.06
-0.33
0.28
0.63
0.76
0.77
0.80
0.90
1.06
1.19
1.17
0.96
0.56
0.08
-0.33
-0.54
-0.54
-0.45
-0.48
-0.85
-1.59
-2.50
-3.24
-3.45
-2.91
-1.70
-0.08
1.58
2.99
4.04
4.76
5.23
5.47
5.45
5.10
4.43
3.53
2.56
1.70
1.02
0.56
0.27
0.14
0.17
0.34
0.63
0.93
1.15
1.15
0.92
0.46
-0.18
-0.94
-1.77
-2.58
-3.23
-3.61
-3.68
-3.56
-3.45
-3.56
-3.92
-4.38
-4.61
-4.30
-3.35
-1.90
-0.30
1.09
2.04
2.50
2.60
2.51
2.31
2.03
1.63
1.15
0.67
0.33
0.23
0.38
0.69
1.03
1.24
1.26
1.08
0.76
0.39
0.02
-0.35
-0.76
-1.18
-1.61
-1.99
-2.25
-2.40
-2.46
-2.44
-2.36
-2.21
-1.97
-1.60
-1.05
-0.27
0.80
2.17
3.75
5.30
6.49
7.04
6.78
5.81
4.37
2.82
1.45
0.38
-0.36
-0.84
-1.12
-1.21
-1.07
-0.69
-0.12
0.54
1.08
1.36
1.25
0.71
-0.20
-1.36
-2.57
-3.63
-4.37
-4.65
-4.53
-4.14
-3.72
-3.41
-3.30
-3.32
-3.35
-3.30
-3.10
-2.72
-2.13
-1.30
-0.19
1.12
2.43
3.50
4.12
4.24
3.94
3.41
2.83
2.29
1.84
1.52
1.38
1.49
1.86
2.39
2.90
3.21
3.23
2.97
2.58
2.16
1.80
1.47
1.14
0.71
0.15
-0.57
-1.45
-2.49
-3.65
-4.82
-5.86
-6.58
-6.86
-6.67
-6.03
-5.03
-3.75
-2.29
-0.76
0.69
1.89
2.73
3.19
3.35
3.36
3.34
3.35
3.34
3.21
2.93
2.53
2.09
1.73
1.48
1.32
1.17
1.00
0.81
0.66
0.62
0.72
0.90
1.03
0.96
0.51
-0.38
-1.65
-3.08
-4.35
-5.13
-5.26
-4.75
-3.82
-2.73
-1.68
-0.76
0.06
0.80
1.43
1.86
1.99
1.82
1.40
0.87
0.36
-0.07
-0.41
-0.68
-0.89
-1.01
-1.03
-0.98
-0.91
-0.93
-1.10
-1.41
-1.77
-2.05
-2.17
-2.12
-2.01
-2.01
-2.26
-2.74
-3.33
-3.78
-3.85
-3.46
-2.63
-1.50
-0.23
1.05
2.25
3.32
4.18
4.75
4.93
4.70
4.11
3.26
2.31
1.41
0.66
0.14
-0.14
-0.15
0.04
0.35
0.62
0.75
0.69
0.52
0.38
0.42
0.65
0.94
1.08
0.86
0.24
-0.64
-1.56
-2.34
-2.91
-3.25
-3.41
-3.33
-2.93
-2.14
-0.98
0.39
1.71
2.76
3.40
3.61
3.40
2.88
2.13
1.30
0.56
0.07
-0.02
0.30
0.93
1.67
2.28
2.60
2.58
2.30
1.92
1.58
1.35
1.19
1.02
0.75
0.33
-0.22
-0.87
-1.61
-2.47
-3.43
-4.44
-5.38
-6.10
-6.44
-6.31
-5.62
-4.40
-2.73
-0.80
1.12
2.75
3.83
4.30
4.20
3.71
2.97
2.12
1.25
0.50
-0.00
-0.15
0.06
0.50
0.96
1.25
1.32
1.23
1.07
0.94
0.82
0.67
0.49
0.32
0.19
0.12
0.01
-0.27
-0.84
-1.68
-2.68
-3.68
-4.54
-5.15
-5.45
-5.36
-4.80
-3.74
-2.25
-0.53
1.12
2.47
3.37
3.84
4.01
4.03
4.02
4.01
3.95
3.78
3.43
2.92
2.35
1.87
1.58
1.54
1.66
1.77
1.72
1.42
0.95
0.51
0.27
0.30
0.53
0.78
0.86
0.68
0.25
-0.38
-1.17
-2.09
-3.10
-4.09
-4.83
-5.05
-4.54
-3.29
-1.50
0.44
2.13
3.31
3.90
4.02
3.82
3.41
2.81
1.99
0.94
-0.17
-1.13
-1.65
-1.62
-1.12
-0.42
0.18
0.46
0.44
0.28
0.21
0.33
0.56
0.72
0.64
0.25
-0.35
-1.01
-1.61
-2.14
-2.65
-3.24
-3.88
-4.50
-4.91
-4.92
-4.40
-3.31
-1.76
0.01
1.70
3.03
3.84
4.13
4.07
3.85
3.65
3.49
3.25
2.79
2.08
1.22
0.43
-0.01
0.02
0.49
1.16
1.73
2.00
1.95
1.69
1.41
1.22
1.11
0.95
0.62
0.01
-0.85
-1.91
-3.10
-4.37
-5.69
-6.98
-8.07
-8.77
-8.87
-8.22
-6.87
-4.96
-2.77
-0.63
1.17
2.44
3.11
3.27
3.08
2.76
2.47
2.30
2.22
2.15
1.96
1.64
1.24
0.90
0.74
0.77
0.96
1.15
1.26
1.28
1.23
1.13
0.96
0.65
0.14
-0.52
-1.18
-1.68
-1.91
-1.93
-1.90
-2.01
-2.34
-2.78
-3.14
-3.20
-2.83
-2.04
-0.92
0.38
1.73
3.01
4.09
4.89
5.33
5.39
5.08
4.49
3.73
2.89
2.09
1.40
0.88
0.53
0.35
0.29
0.33
0.39
0.44
0.44
0.32
0.07
-0.36
-0.93
-1.53
-2.03
-2.30
-2.33
-2.21
-2.13
-2.27
-2.70
-3.29
-3.85
-4.22
-4.33
-4.22
-3.99
-3.66
-3.13
-2.32
-1.17
0.19
1.55
2.69
3.49
3.96
4.16
4.16
3.96
3.53
2.89
2.14
1.46
1.05
1.02
1.33
1.83
2.35
2.72
2.87
2.77
2.46
2.00
1.45
0.88
0.38
-0.06
-0.46
-0.91
-1.52
-2.30
-3.19
-4.03
-4.67
-5.00
-5.04
-4.89
-4.68
-4.50
-4.38
-4.23
-3.89
-3.20
-2.01
-0.34
1.63
3.64
5.37
6.61
7.28
7.48
7.33
6.94
6.29
5.34
4.11
2.71
1.39
0.41
-0.07
-0.02
0.39
0.93
1.37
1.58
1.48
1.11
0.54
-0.16
-0.87
-1.52
-2.05
-2.48
-2.80
-3.08
-3.34
-3.60
-3.90
-4.29
-4.83
-5.50
-6.18
-6.62
-6.56
-5.82
-4.42
-2.64
-0.85
0.61
1.60
2.17
2.52
2.79
3.01
3.04
2.76
2.18
1.46
0.89
0.69
0.92
1.41
1.89
2.12
1.98
1.52
0.91
0.32
-0.13
-0.43
-0.60
-0.70
-0.80
-0.93
-1.12
-1.33
-1.52
-1.65
-1.75
-1.90
-2.20
-2.68
-3.25
-3.69
-3.73
-3.19
-2.07
-0.55
1.07
2.54
3.68
4.47
4.94
5.16
5.16
4.93
4.50
3.87
3.13
2.37
1.72
1.24
0.97
0.82
0.72
0.56
0.36
0.17
0.06
0.08
0.14
0.07
-0.26
-0.90
-1.70
-2.46
-2.94
-3.10
-3.05
-3.02
-3.24
-3.78
-4.56
-5.34
-5.84
-5.84
-5.22
-4.05
-2.48
-0.76
0.89
2.31
3.42
4.18
4.61
4.73
4.54
4.06
3.36
2.51
1.66
0.93
0.43
0.19
0.12
0.13
0.11
0.04
-0.04
-0.01
0.18
0.50
0.83
1.06
1.07
0.84
0.43
-0.04
-0.46
-0.79
-0.99
-1.08
-1.13
-1.27
-1.63
-2.32
-3.26
-4.23
-4.87
-4.89
-4.15
-2.75
-0.97
0.88
2.54
3.89
4.87
5.46
5.64
5.39
4.77
3.91
2.98
2.11
1.35
0.72
0.21
-0.13
-0.25
-0.14
0.15
0.48
0.71
0.77
0.66
0.45
0.23
0.04
-0.06
-0.07
-0.03
-0.00
-0.10
-0.41
-0.95
-1.64
-2.36
-2.96
-3.41
-3.70
-3.92
-4.06
-4.04
-3.74
-3.08
-2.06
-0.80
0.49
1.67
2.61
3.26
3.60
3.65
3.45
3.09
2.70
2.39
2.24
2.24
2.31
2.37
2.32
2.12
1.80
1.40
0.97
0.53
0.08
-0.40
-0.89
-1.35
-1.70
-1.92
-2.01
-2.08
-2.21
-2.48
-2.87
-3.34
-3.83
-4.33
-4.84
-5.27
-5.45
-5.15
-4.21
-2.59
-0.54
1.58
3.38
4.62
5.27
5.46
5.33
4.98
4.42
3.65
2.68
1.61
0.59
-0.26
-0.84
-1.11
-1.11
-0.90
-0.56
-0.21
0.04
0.13
0.07
-0.09
-0.29
-0.46
-0.63
-0.83
-1.07
-1.32
-1.47
-1.42
-1.19
-0.90
-0.74
-0.92
-1.51
-2.40
-3.38
-4.13
-4.40
-4.06
-3.14
-1.80
-0.31
1.08
2.16
2.80
2.99
2.80
2.35
1.75
1.14
0.61
0.23
0.04
0.06
0.24
0.49
0.74
0.89
0.96
1.00
1.07
1.21
1.39
1.53
1.55
1.42
1.18
0.90
0.64
0.41
0.19
-0.11
-0.57
-1.22
-2.08
-3.10
-4.18
-5.13
-5.76
-5.88
-5.39
-4.32
-2.86
-1.24
0.27
1.53
2.43
2.98
3.21
3.16
2.89
2.50
2.09
1.80
1.75
1.98
2.45
3.07
3.67
4.12
4.29
4.15
3.75
3.20
2.66
2.21
1.83
1.40
0.81
-0.00
-0.93
-1.80
-2.45
-2.85
-3.12
-3.47
-4.07
-4.99
-6.12
-7.24
-8.06
-8.31
-7.81
-6.51
-4.50
-2.02
0.54
2.83
4.57
5.63
6.04
5.95
5.54
4.99
4.43
3.94
3.53
3.19
2.93
2.74
2.66
2.69
2.82
2.99
3.05
2.90
2.46
1.75
0.86
-0.06
-0.90
-1.58
-2.09
-2.47
-2.75
-2.99
-3.25
-3.55
-3.94
-4.41
-4.91
-5.26
-5.28
-4.83
-3.89
-2.63
-1.27
-0.01
1.06
1.98
2.81
3.58
4.18
4.44
4.22
3.50
2.40
1.15
-0.03
-0.95
-1.53
-1.76
-1.68
-1.34
-0.79
-0.07
0.77
1.58
2.20
2.48
2.34
1.88
1.26
0.69
0.28
-0.00
-0.32
-0.85
-1.67
-2.68
-3.64
-4.28
-4.34
-3.77
-2.66
-1.23
0.25
1.57
2.61
3.34
3.75
3.86
3.67
3.23
2.64
2.08
1.72
1.67
1.91
2.38
2.92
3.41
3.75
3.84
3.59
2.98
2.07
0.98
-0.12
-1.06
-1.84
-2.48
-3.12
-3.86
-4.75
-5.77
-6.84
-7.76
-8.33
-8.32
-7.60
-6.19
-4.26
-2.10
0.03
1.88
3.34
4.33
4.81
4.79
4.29
3.41
2.28
1.06
-0.10
-1.06
-1.74
-2.04
-1.95
-1.56
-1.00
-0.49
-0.20
-0.14
-0.24
-0.32
-0.23
0.12
0.68
1.33
1.87
2.16
2.12
1.73
1.03
0.14
-0.83
-1.73
-2.42
-2.80
-2.77
-2.31
-1.43
-0.23
1.09
2.32
3.22
3.70
3.76
3.55
3.28
3.10
3.00
2.91
2.68
2.26
1.72
1.23
0.93
0.86
0.89
0.82
0.50
-0.07
-0.71
-1.19
-1.38
-1.33
-1.24
-1.33
-1.72
-2.37
-3.11
-3.83
-4.48
-5.12
-5.73
-6.17
-6.21
-5.60
-4.23
-2.24
0.05
2.28
4.11
5.40
6.10
6.25
5.92
5.20
4.23
3.17
2.19
1.41
0.90
0.65
0.63
0.72
0.81
0.75
0.43
-0.22
-1.10
-2.03
-2.76
-3.09
-3.00
-2.67
-2.34
-2.30
-2.71
-3.52
-4.54
-5.49
-6.11
-6.23
-5.80
-4.91
-3.71
-2.38
-1.06
0.17
1.30
2.32
3.19
3.79
4.00
3.72
3.00
1.99
0.95
0.12
-0.31
-0.31
0.05
0.61
1.14
1.41
1.24
0.57
-0.46
-1.58
-2.39
-2.60
-2.07
-0.95
0.38
1.48
1.99
1.75
0.85
-0.44
-1.78
-2.81
-3.31
-3.20
-2.55
-1.62
-0.71
-0.11
0.06
-0.14
-0.48
-0.66
-0.46
0.17
1.11
2.11
2.87
3.13
2.79
1.94
0.83
-0.19
-0.78
-0.72
-0.03
1.15
2.47
3.58
4.17
4.09
3.35
2.12
0.67
-0.75
-1.94
-2.85
-3.50
-4.03
-4.51
-4.92
-5.20
-5.18
-4.73
-3.82
-2.49
-0.89
0.78
2.35
3.72
4.86
5.74
6.33
6.57
6.42
5.86
4.99
3.97
3.01
2.28
1.89
1.86
2.10
2.48
2.85
3.02
2.89
2.40
1.59
0.60
-0.40
-1.22
-1.75
-1.98
-1.99
-1.97
-2.10
-2.51
-3.23
-4.11
-4.88
-5.27
-5.05
-4.18
-2.80
-1.17
0.45
1.84
2.96
3.80
4.42
4.79
4.87
4.59
3.99
3.16
2.28
1.52
0.97
0.62
0.45
0.43
0.52
0.67
0.80
0.84
0.76
0.55
0.26
-0.12
-0.61
-1.25
-2.03
-2.88
-3.69
-4.40
-5.04
-5.74
-6.52
-7.29
-7.79
-7.72
-6.91
-5.53
-3.98
-2.84
-2.61
-3.61
-5.85
-9.10
-12.92
-16.81
-20.27
-22.92
-24.61
-25.38
-25.43
-24.96
-24.02
-22.52
-20.37
-17.57
-14.38
-11.24
-8.58
-6.72
-5.71
-5.38
-5.38
-5.17
-4.07
-1.44
3.07
9.23
16.17
22.49
26.77
28.07
26.34
22.33
17.30
12.46
8.71
6.51
6.01
7.27
10.29
15.02
21.28
28.76
37.07
45.74
