1653135109.00
64.000000
-0.00
-0.00
-0.00
-0.00
-0.00
-0.00
-0.00
-0.00
-0.00
-0.00
0.00
0.01
0.01
-0.00
-0.03
-0.05
-0.05
0.00
0.13
0.36
0.66
1.01
1.37
1.72
2.06
2.40
2.79
3.24
3.80
4.42
5.06
5.66
6.20
6.68
7.15
7.68
8.31
9.14
10.09
11.04
11.88
12.56
13.14
13.76
14.65
15.96
17.91
20.32
22.90
25.38
27.58
29.57
31.68
34.32
37.81
42.54
48.15
54.10
59.83
64.97
69.58
74.14
79.34
85.71
93.76
103.00
112.62
121.73
129.77
136.75
143.30
150.75
157.77
166.64
177.95
191.79
206.97
220.57
228.25
225.36
208.53
176.87
132.76
80.05
23.07
-34.94
-92.44
-149.16
-205.23
-260.37
-313.74
-363.87
-409.83
-450.91
-486.50
-515.74
-537.23
-549.22
-549.96
-538.37
-514.21
-478.67
-433.88
-382.45
-327.02
-269.84
-212.63
-156.66
-102.95
-52.37
-5.90
35.58
71.43
101.35
125.50
144.38
158.69
169.15
176.37
180.75
182.57
182.07
179.51
175.23
169.65
163.18
156.15
148.81
141.30
133.69
126.02
118.33
110.69
103.16
95.81
88.68
81.82
75.24
68.95
62.96
57.27
51.89
46.80
42.01
37.51
33.30
29.39
25.79
22.50
19.51
16.81
14.36
12.15
10.16
8.39
6.85
5.55
4.46
3.55
2.79
2.11
1.48
0.89
0.35
-0.10
-0.41
-0.59
-0.67
-0.74
-0.90
-1.20
-1.66
-2.20
-2.68
-2.98
-3.05
-2.95
-2.85
-2.95
-3.39
-4.16
-5.10
-5.96
-6.52
-6.66
-6.53
-6.40
-6.60
-7.32
-8.54
-9.99
-11.28
-12.14
-12.47
-12.45
-12.40
-12.60
-13.21
-14.28
-15.89
-18.12
-20.80
-23.30
-24.39
-22.59
-16.89
-7.39
4.44
16.27
25.86
31.99
34.75
35.08
33.94
31.69
28.17
23.27
17.52
12.18
8.80
8.29
10.46
14.05
17.39
19.23
19.25
18.09
16.83
16.47
17.45
19.64
22.49
25.30
27.49
28.67
28.68
27.49
25.16
21.78
17.48
12.59
7.34
2.16
-2.54
-6.46
-9.51
-11.85
-13.79
-15.54
-17.10
-18.24
-18.54
-17.69
-15.73
-13.14
-10.73
-9.31
-9.34
-10.70
-12.71
-14.45
-15.14
-14.53
-12.90
-10.95
-9.40
-8.73
-9.01
-9.91
-10.88
-11.39
-11.11
-9.93
-7.97
-5.55
-3.04
-0.84
0.66
1.22
0.75
-0.63
-2.58
-4.62
-6.30
-7.31
-7.61
-7.44
-7.17
-7.14
-7.48
-8.08
-8.62
-8.80
-8.39
-7.39
-6.02
-4.68
-3.85
-3.96
-5.28
-7.77
-11.13
-14.91
-18.78
-22.47
-25.81
-28.69
-30.91
-32.11
-31.89
-30.05
-26.77
-22.63
-18.39
-14.64
-11.60
-9.04
-6.45
-3.30
0.92
6.60
14.05
23.44
34.53
46.59
58.41
68.70
76.58
81.89
85.28
87.80
90.47
93.73
97.26
100.00
100.45
97.14
89.12
76.37
59.93
41.73
24.10
9.02
-2.37
-10.10
-15.17
-19.10
-23.45
-29.31
-37.12
-46.55
-56.64
-65.97
-73.00
-76.48
-75.81
-71.34
-64.32
-56.65
-50.34
-46.93
-46.94
-49.75
-53.85
-57.42
-59.00
-57.99
-54.81
-50.55
-46.55
-43.87
-43.00
-43.84
-45.78
-47.93
-49.37
-49.28
-47.21
-43.10
-37.37
-30.70
-23.90
-17.67
-12.43
-8.36
-5.47
-3.72
-3.07
-3.43
-4.61
-6.29
-8.18
-10.25
-12.78
-16.21
-20.61
-25.33
-28.93
-29.84
-27.06
-20.77
-12.05
-2.17
8.20
19.09
30.72
42.56
53.01
59.94
61.76
58.50
51.92
44.58
38.63
34.81
32.46
30.18
26.77
21.72
15.18
7.53
-0.96
-10.29
-20.63
-32.11
-44.73
-58.24
-72.19
-86.10
-99.61
-112.71
-125.61
-138.64
-151.80
-164.49
-175.42
-183.00
-185.79
-183.11
-175.20
-163.12
-148.29
-132.05
-115.27
-98.33
-81.25
-64.00
-46.74
-30.00
-14.70
-1.77
8.32
15.85
21.88
27.85
34.89
43.41
53.08
63.37
74.14
85.98
100.00
117.12
137.40
159.76
182.31
203.02
220.33
233.45
242.21
246.62
246.69
242.32
233.55
220.71
204.46
185.67
165.15
143.57
121.45
99.26
77.58
57.09
38.50
22.39
9.00
-1.89
-10.96
-19.20
-27.68
-37.27
-48.29
-60.43
-72.80
-84.21
-93.64
-100.59
-105.40
-109.09
-113.13
-118.94
-127.41
-138.64
-151.86
-165.67
-178.45
-188.83
-196.05
-200.09
-201.44
-200.73
-198.32
-194.11
-187.71
-178.83
-167.70
-155.29
-143.01
-132.21
-123.55
-116.78
-110.80
-104.25
-96.04
-85.68
-73.29
-59.39
-44.63
-29.77
-15.69
-3.45
5.84
11.34
12.74
10.36
5.10
-1.88
-9.50
-16.92
-23.55
-28.95
-32.75
-34.61
-34.26
-31.49
-26.14
-18.09
-7.28
6.23
22.11
39.73
58.15
76.26
92.91
107.08
117.99
125.20
128.65
128.66
125.94
121.50
116.48
111.98
108.80
107.33
107.51
108.92
110.95
113.16
115.41
117.85
120.79
124.39
128.53
132.76
136.39
138.72
139.14
137.22
132.66
125.31
115.24
102.80
88.71
73.97
59.68
46.78
35.84
26.98
19.88
14.01
8.68
3.32
-2.49
-8.94
-15.91
-23.08
-29.94
-35.92
-40.49
-43.26
-44.09
-43.03
-40.30
-36.14
-30.59
-23.36
-13.74
-0.81
15.97
36.08
57.49
76.83
90.42
95.66
92.11
81.73
68.13
55.20
46.05
42.44
44.99
53.72
68.20
87.46
109.60
131.76
150.63
163.30
168.07
164.73
154.33
138.68
119.89
100.13
81.50
65.82
54.23
46.86
42.80
40.35
37.62
33.14
26.15
16.63
5.02
-8.00
-21.69
-35.22
-47.75
-58.47
-66.74
-72.29
-75.22
-76.02
-75.34
-73.93
-72.39
-71.04
-69.86
-68.46
-66.18
-62.22
-55.90
-46.80
-35.00
-21.16
-6.45
7.69
19.94
29.46
36.09
40.34
43.05
45.06
46.87
48.53
49.80
50.40
50.23
49.41
48.25
47.05
46.01
45.23
44.74
44.51
44.44
44.34
43.89
42.71
40.49
37.12
32.71
27.56
22.01
16.31
10.46
4.28
-2.52
-10.10
-18.23
-26.22
-32.98
-37.34
-38.48
-36.20
-30.99
-23.83
-15.81
-7.83
-0.50
5.79
10.69
13.81
14.85
13.74
10.88
7.05
3.16
0.02
-1.94
-2.72
-2.59
-1.91
-0.95
0.15
1.27
2.27
2.97
3.13
2.60
1.37
-0.48
-2.81
-5.51
-8.47
-11.58
-14.72
-17.75
-20.65
-23.54
-26.65
-30.15
-33.98
-37.68
-40.54
-41.76
-40.74
-37.34
-31.86
-25.00
-17.63
-10.64
-4.74
-0.34
2.55
4.24
5.33
6.49
8.26
10.94
14.47
18.46
22.32
25.33
26.80
26.20
23.37
18.54
12.40
5.89
0.00
-4.55
-7.45
-8.88
-9.34
-9.49
-9.95
-11.17
-13.38
-16.63
-20.81
-25.71
-30.99
-36.19
-40.74
-44.01
-45.47
-44.72
-41.65
-36.46
-29.58
-21.67
-13.46
-5.63
1.17
6.45
9.87
11.26
10.74
8.69
5.74
2.61
-0.09
-2.02
-3.18
-3.86
-4.47
-5.33
-6.60
-8.29
-10.27
-12.38
-14.45
-16.29
-17.75
-18.81
-19.62
-20.58
-22.18
-24.79
-28.42
-32.64
-36.56
-39.14
-39.46
-36.99
-31.69
-24.02
-14.81
-5.07
4.16
12.01
17.87
21.48
22.98
22.78
21.44
19.56
17.60
15.91
14.69
14.08
14.09
14.64
15.42
16.00
15.81
14.34
11.29
6.65
0.67
-6.18
-13.44
-20.68
-27.57
-33.92
-39.60
-44.57
-48.78
-52.11
-54.30
-54.92
-53.44
-49.44
-42.75
-33.66
-22.91
-11.54
-0.63
8.88
16.37
21.56
24.47
25.35
24.60
22.75
20.31
17.77
15.41
13.33
11.46
9.66
7.79
5.82
3.76
1.64
-0.57
-2.90
-5.36
-7.86
-10.22
-12.22
-13.75
-14.84
-15.64
-16.35
-17.07
-17.76
-18.16
-17.94
-16.69
-14.11
-10.00
-4.39
2.46
9.99
17.39
23.75
28.20
30.21
29.62
26.77
22.38
17.31
12.46
8.47
5.74
4.39
4.28
5.16
6.68
8.44
10.07
11.29
11.87
11.70
10.77
9.11
6.85
4.11
1.01
-2.38
-6.04
-10.01
-14.33
-19.03
-24.14
-29.69
-35.62
-41.76
-47.73
-52.95
-56.62
-57.97
-56.38
-51.61
-43.86
-33.73
-22.05
-9.77
2.18
12.91
21.66
27.87
31.31
32.13
30.92
28.57
26.03
24.11
23.21
23.29
23.98
24.73
25.07
24.76
23.76
22.21
20.25
17.95
15.35
12.45
9.33
6.11
2.91
-0.28
-3.55
-7.09
-11.10
-15.72
-20.98
-26.76
-32.71
-38.22
-42.45
-44.46
-43.52
-39.31
-32.13
-22.83
-12.61
-2.73
5.78
12.23
16.28
17.88
17.20
14.58
10.49
5.46
0.07
-5.16
-9.80
-13.53
-16.22
-17.97
-19.10
-20.14
-21.70
-24.30
-28.21
-33.30
-39.05
-44.79
-49.95
-54.42
-58.73
-63.92
-71.08
-80.84
-92.79
-105.46
-116.61
-123.92
-125.63
-120.92
-109.99
-93.84
-73.90
-51.81
-29.16
-7.36
12.55
29.96
44.73
56.98
66.96
74.82
80.60
84.19
85.40
84.08
80.19
73.98
66.08
57.50
49.37
42.57
37.33
33.19
29.26
24.71
19.24
13.19
7.32
2.48
-0.68
-1.76
-0.53
3.16
9.26
17.37
26.64
35.97
44.40
51.55
57.73
63.76
70.36
77.62
84.83
90.66
93.82
93.59
90.21
84.73
78.66
73.43
69.92
68.32
68.13
68.55
68.78
68.31
67.07
65.26
63.13
60.97
59.04
57.72
57.50
58.79
61.63
65.45
69.15
71.48
71.59
69.29
65.06
59.61
53.46
46.76
39.44
31.59
23.68
16.47
10.64
6.38
3.20
0.12
-3.88
-9.42
-16.48
-24.49
-32.65
-40.28
-46.95
-52.48
-56.73
-59.47
-60.30
-58.77
-54.50
-47.34
-37.45
-25.36
-11.88
1.96
15.10
26.67
36.12
43.32
48.47
51.95
54.24
55.78
56.95
58.05
59.15
60.07
60.31
59.15
55.95
50.33
42.33
32.30
20.77
8.18
-5.20
-19.16
-33.41
-47.39
-60.36
-71.51
-80.33
-86.73
-91.08
-94.01
-96.03
-97.36
-97.93
-97.62
-96.52
-94.97
-93.41
-92.27
-91.75
-91.99
-93.19
-95.63
-99.50
-104.52
-109.75
-113.75
-115.15
-113.34
-108.71
-102.41
-95.64
-88.93
-81.90
-73.57
-63.15
-50.64
-37.10
-24.30
-14.05
-7.52
-4.85
-5.31
-7.56
-10.22
-12.14
-12.53
-10.94
-7.17
-1.20
6.75
16.16
26.27
36.13
44.84
51.72
56.51
59.39
60.89
61.70
62.49
63.74
65.61
68.06
70.80
73.47
75.67
76.99
77.07
75.65
72.60
67.99
62.08
55.30
48.04
40.51
32.58
23.88
14.01
2.73
-9.82
-23.20
-36.84
-50.31
-63.33
-75.81
-87.66
-98.69
-108.60
-117.06
-123.79
-128.68
-131.65
-132.63
-131.53
-128.19
-122.42
-113.97
-102.58
-88.12
-70.86
-51.75
-32.44
-15.00
-1.36
7.34
11.02
10.62
7.62
3.43
-1.05
-5.58
-10.33
-15.54
-21.17
-26.74
-31.46
-34.47
-35.26
-33.92
-31.12
-27.94
-25.49
-24.60
-25.71
-28.94
-34.25
-41.48
-50.31
-60.11
-70.00
-78.99
-86.27
-91.48
-94.71
-96.38
-96.93
-96.67
-95.75
-94.23
-92.24
-89.95
-87.61
-85.39
-83.33
-81.35
-79.34
-77.30
-75.35
-73.70
-72.63
-72.34
-72.99
-74.66
-77.40
-81.07
-85.25
-89.05
-91.13
-89.87
-83.82
-72.10
-54.85
-33.21
-9.17
14.93
36.95
55.35
69.39
79.06
84.84
87.44
87.59
85.97
83.24
80.04
76.93
74.29
72.22
70.59
69.19
67.88
66.67
65.75
65.29
65.38
65.99
66.94
68.03
69.03
69.66
69.65
68.76
66.84
63.95
60.26
56.04
51.51
46.79
41.84
36.54
30.71
24.19
16.93
9.15
1.47
-5.12
-9.38
-10.15
-6.77
0.66
11.26
23.63
36.29
47.99
58.02
66.08
72.19
76.43
78.87
79.56
78.61
76.29
73.04
69.44
66.03
63.20
61.07
59.54
58.33
57.19
55.95
54.56
53.06
51.46
49.71
47.69
45.22
42.12
38.31
33.84
28.91
23.79
18.79
14.11
9.75
5.55
1.19
-3.63
-9.09
-15.24
-21.96
-28.91
-35.51
-40.86
-43.91
-43.70
-39.68
-32.03
-21.60
-9.72
2.25
13.29
22.84
30.69
36.71
40.72
42.46
41.88
39.28
35.49
31.57
28.51
26.82
26.41
26.76
27.24
27.49
27.54
27.74
28.41
29.57
30.81
31.49
30.99
29.00
25.63
21.33
16.66
12.04
7.67
3.52
-0.48
-4.42
-8.29
-12.10
-15.95
-20.12
-24.92
-30.47
-36.47
-42.05
-45.94
-46.84
-43.79
-36.60
-25.85
-12.76
1.18
14.54
26.16
35.23
41.35
44.44
44.78
42.90
39.53
35.37
30.96
26.62
22.43
18.35
14.34
10.44
6.78
3.54
0.85
-1.31
-3.24
-5.42
-8.37
-12.34
-16.94
-21.13
-23.36
-22.21
-16.98
-8.12
2.86
13.80
22.63
27.92
29.09
26.30
20.21
11.78
2.18
-7.19
-14.83
-19.38
-19.96
-16.44
-9.53
-0.48
9.22
18.31
26.01
32.04
36.47
39.53
41.34
41.90
41.10
38.83
35.19
30.50
25.32
20.25
15.86
12.47
10.17
8.72
7.71
6.67
5.12
2.82
-0.28
-3.95
-7.82
-11.53
-14.87
-17.85
-20.63
-23.45
-26.48
-29.74
-33.14
-36.56
-39.92
-43.23
-46.55
-49.96
-53.56
-57.47
-61.76
-66.44
-71.25
-75.60
-78.58
-79.12
-76.35
-69.88
-59.91
-47.21
-32.92
-18.28
-4.39
7.85
17.82
25.23
30.06
32.57
33.25
32.75
31.69
30.62
29.94
29.84
30.33
31.25
32.34
33.35
34.06
34.36
34.23
33.62
32.46
30.66
28.13
24.86
20.90
16.41
11.55
6.49
1.38
-3.67
-8.56
-13.29
-17.93
-22.65
-27.63
-32.90
-38.27
-43.39
-47.93
-51.82
-55.37
-59.13
-63.57
-68.68
-73.82
-77.75
-79.11
-76.90
-70.90
-61.84
-51.16
-40.68
-32.23
-27.38
-27.22
-32.12
-41.44
-53.24
-64.46
-71.46
-71.11
-61.91
-44.69
-22.36
1.14
22.23
38.90
50.92
59.31
65.37
69.93
73.13
74.84
75.10
74.40
73.48
72.86
72.51
71.79
69.83
66.03
60.36
53.44
46.17
39.41
33.57
28.61
24.07
19.42
14.19
8.14
1.33
-5.93
-13.04
-19.21
-23.51
-25.14
-23.59
-18.89
-11.55
-2.44
7.39
17.00
25.66
32.86
38.36
42.12
44.28
45.11
44.96
44.16
43.00
41.76
40.66
39.92
39.61
39.56
39.20
37.67
34.02
27.61
18.42
7.18
-4.81
-16.17
-25.91
-33.87
-40.69
-47.67
-56.36
-68.21
-84.30
-104.92
-128.95
-153.39
-173.40
-183.41
-179.12
-159.45
-127.62
-90.35
-55.45
-28.98
-13.17
-6.27
-4.09
-2.30
1.89
9.15
18.77
29.68
41.19
52.99
64.70
75.49
84.04
88.99
89.58
86.05
79.66
72.23
65.43
60.22
56.59
53.79
50.89
47.24
42.84
38.22
34.13
31.15
29.44
28.64
28.12
27.15
25.19
21.99
17.66
12.59
7.33
2.45
-1.66
-4.88
-7.34
-9.40
-11.43
-13.72
-16.41
-19.56
-23.17
-27.27
-31.79
-36.46
-40.67
-43.49
-43.91
-41.23
-35.30
-26.69
-16.40
-5.61
4.72
13.92
21.64
27.63
31.71
33.75
33.83
32.30
29.78
26.98
24.52
22.75
21.72
21.24
21.00
20.74
20.31
19.62
18.66
17.42
15.90
14.11
12.06
9.78
7.31
4.64
1.72
-1.50
-5.01
-8.74
-12.58
-16.39
-20.08
-23.61
-27.04
-30.49
-34.18
-38.27
-42.78
-47.44
-51.54
-54.07
-53.96
-50.45
-43.40
-33.33
-21.36
-8.87
2.88
12.92
20.72
26.13
29.28
30.48
30.19
28.88
27.08
25.22
23.61
22.42
21.65
21.24
21.04
20.93
20.79
20.49
19.92
18.96
17.54
15.67
13.39
10.83
8.04
5.02
1.69
-2.00
-6.06
-10.35
-14.69
-18.86
-22.67
-26.01
-28.82
-31.14
-33.11
-35.00
-37.10
-39.58
-42.26
-44.52
-45.38
-43.83
-39.26
-31.67
-21.77
-10.63
0.60
11.06
20.18
27.62
33.13
36.55
37.81
37.10
34.89
31.80
28.51
25.52
23.14
21.40
20.19
19.31
18.57
17.83
17.05
16.22
15.35
14.37
13.14
11.48
9.26
6.51
3.37
0.10
-3.09
-6.11
-9.02
-12.00
-15.21
-18.75
-22.56
-26.46
-30.21
-33.62
-36.63
-39.41
-42.31
-45.74
-49.92
-54.60
-59.01
-61.91
-62.00
-58.32
-50.62
-39.47
-26.06
-11.80
2.00
14.41
24.84
33.00
38.80
42.29
43.69
43.44
42.10
40.24
38.32
36.58
35.10
33.78
32.54
31.30
30.04
28.74
27.39
25.96
24.36
22.48
20.20
17.45
14.20
10.52
6.49
2.22
-2.21
-6.76
-11.45
-16.24
-21.08
-25.84
-30.38
-34.54
-38.19
-41.28
-43.89
-46.23
-48.65
-51.48
-54.81
-58.28
-61.06
-62.02
-60.08
-54.61
-45.70
-34.15
-21.22
-8.25
3.60
13.60
21.36
26.74
29.81
30.74
29.91
27.83
25.13
22.43
20.23
18.84
18.37
18.73
19.75
21.16
22.66
23.94
24.72
24.82
24.20
22.98
21.37
19.55
17.61
15.47
12.99
9.96
6.23
1.83
-3.06
-8.03
-12.64
-16.50
-19.39
-21.44
-23.04
-24.79
-27.31
-31.04
-35.93
-41.41
-46.35
-49.42
-49.42
-45.70
-38.40
-28.38
-16.94
-5.42
5.10
13.96
20.88
25.81
28.82
30.05
29.73
28.22
26.04
23.70
21.70
20.29
19.51
19.23
19.19
19.17
19.03
18.70
18.11
17.23
16.01
14.36
12.17
9.33
5.75
1.44
-3.43
-8.55
-13.50
-17.93
-21.65
-24.72
-27.41
-30.07
-33.05
-36.63
-40.91
-45.71
-50.50
-54.38
-56.26
-55.14
-50.50
-42.40
-31.57
-19.10
-6.18
6.17
17.19
26.40
33.50
38.33
40.91
41.44
40.32
38.11
35.43
32.81
30.64
29.09
28.13
27.53
27.02
26.28
25.11
23.47
21.43
19.15
16.76
14.27
11.58
8.45
4.72
0.39
-4.34
-9.15
-13.67
-17.69
-21.20
-24.33
-27.32
-30.41
-33.79
-37.52
-41.44
-45.08
-47.69
-48.32
-46.11
-40.60
-31.90
-20.67
-7.96
5.09
17.42
28.14
36.59
42.31
45.05
44.89
42.25
37.80
32.41
26.95
22.28
19.05
17.72
18.37
20.72
24.11
27.61
30.27
31.30
30.28
27.13
22.05
15.42
7.72
-0.44
-8.31
-15.05
-19.93
-22.52
-22.96
-21.95
-20.64
-20.23
-21.62
-25.11
-30.25
-35.91
-40.57
-42.68
-41.14
-35.61
-26.61
-15.37
-3.42
7.81
17.31
24.53
29.34
31.82
32.24
30.99
28.60
25.67
22.75
20.18
18.08
16.43
15.14
14.17
13.54
13.23
13.19
13.23
13.15
12.71
11.77
10.28
8.27
5.85
3.18
0.45
-2.19
-4.67
-7.04
-9.53
-12.52
-16.43
-21.49
-27.48
-33.65
-38.81
-41.61
-41.00
-36.65
-29.03
-19.26
-8.70
1.42
10.26
17.40
22.66
25.96
27.23
26.50
23.99
20.19
15.80
11.59
8.14
5.70
4.08
2.79
1.26
-0.94
-3.90
-7.42
-11.14
-14.77
-18.27
-21.85
-25.82
-30.42
-35.63
-41.11
-46.39
-51.08
-54.98
-58.19
-60.90
-63.21
-65.01
-66.02
-65.86
-64.22
-60.78
-55.15
-46.84
-35.40
-20.68
-3.25
15.51
33.52
48.59
59.00
64.07
64.26
61.01
56.16
51.41
47.79
45.52
44.01
42.21
38.91
33.07
24.05
11.72
-3.39
-20.01
-36.21
-49.75
-58.61
-61.70
-59.23
-52.65
-44.18
-35.90
-29.20
-24.50
-21.36
-18.93
-16.23
-12.36
-6.55
1.73
12.65
25.87
40.49
55.27
68.98
80.70
90.05
96.94
101.38
103.23
102.19
98.06
91.00
81.67
71.12
60.47
50.61
41.93
34.39
27.59
21.10
14.53
7.68
0.45
-7.10
-14.74
-22.09
-28.63
-33.86
-37.42
-39.26
-39.61
-38.95
-37.84
-36.80
-36.23
-36.45
-37.78
-40.58
-45.26
-52.04
-60.72
-70.38
-79.39
-85.65
-87.16
-82.61
-71.87
-56.12
-37.56
-18.84
-2.39
10.03
17.55
20.06
18.01
12.15
3.41
-7.27
-18.89
-30.47
-41.02
-49.48
-54.67
-55.36
-50.52
-39.73
-23.52
-3.51
17.84
37.84
54.33
66.12
73.23
76.55
77.43
77.16
76.70
76.42
76.00
74.35
69.82
60.55
45.18
23.65
-2.45
-29.89
-54.65
-73.04
-82.88
-84.02
-78.18
-68.05
-56.29
-44.72
-34.16
-24.71
-16.28
-8.88
-2.72
2.07
5.61
8.29
10.63
12.93
15.21
17.17
18.47
18.95
18.80
18.43
18.33
18.76
19.67
20.65
21.09
20.47
18.49
15.22
11.02
6.44
2.02
-1.85
-4.95
-7.28
-8.99
-10.33
-11.58
-13.00
-14.79
-17.00
-19.52
-22.06
-24.16
-25.22
-24.60
-21.81
-16.69
-9.44
-0.66
8.87
18.40
27.32
35.20
41.70
46.46
49.12
49.45
47.53
43.82
39.06
34.10
29.61
25.96
23.18
21.09
19.45
18.07
16.85
15.75
14.76
13.91
13.21
12.70
12.38
12.21
12.08
11.72
10.81
9.00
6.03
1.81
-3.54
-9.76
-16.52
-23.50
-30.37
-36.73
-42.09
-45.85
-47.47
-46.58
-43.11
-37.30
-29.66
-20.85
-11.54
-2.44
5.90
13.11
19.05
23.87
27.85
31.31
34.42
37.21
39.61
41.53
42.95
43.87
44.27
44.09
43.33
42.20
41.15
40.88
42.00
44.75
48.74
52.96
56.07
56.90
54.82
49.91
42.85
34.49
25.52
16.30
7.00
-2.19
-10.90
-18.56
-24.57
-28.48
-30.04
-29.26
-26.25
-21.31
-14.90
-7.74
-0.71
5.31
9.73
12.34
13.31
13.03
11.94
10.41
8.79
7.38
6.42
5.95
5.62
4.74
2.48
-1.86
-8.43
-16.74
-25.77
-34.24
-41.13
-45.86
-48.48
-49.48
-49.53
-49.22
-48.93
-48.82
-48.93
-49.28
-49.94
-50.95
-52.29
-53.87
-55.60
-57.50
-59.68
-62.25
-65.06
-67.51
-68.66
-67.42
-63.00
-55.20
-44.53
-31.97
-18.65
-5.57
6.57
17.27
26.12
32.70
36.67
37.92
36.65
33.46
29.11
24.39
19.92
16.10
13.16
11.20
10.23
10.13
10.65
11.35
11.75
11.47
10.35
8.55
6.46
4.54
3.10
2.22
1.72
1.19
0.19
-1.71
-4.77
-8.97
-13.94
-18.92
-22.84
-24.57
-23.16
-18.20
-9.93
0.77
12.61
24.19
34.30
42.12
47.22
49.58
49.40
47.06
43.07
38.03
32.60
27.37
22.76
18.97
15.93
13.44
11.31
9.43
7.84
6.60
5.70
4.95
4.03
2.62
0.54
-2.19
-5.38
-8.77
-12.13
-15.35
-18.35
-21.17
-23.88
-26.65
-29.75
-33.43
-37.72
-42.24
-46.15
-48.24
-47.38
-42.89
-34.86
-24.13
-12.02
0.06
11.00
20.08
26.96
31.52
33.78
33.95
32.44
29.92
27.12
24.66
22.81
21.47
20.28
18.88
17.11
15.08
13.08
11.34
9.89
8.50
6.76
4.25
0.77
-3.60
-8.54
-13.57
-18.29
-22.49
-26.28
-30.10
-34.58
-40.28
-47.41
-55.55
-63.54
-69.71
-72.30
-70.03
-62.56
-50.68
-36.04
-20.62
-6.13
6.44
16.91
25.66
33.22
39.85
45.46
49.67
52.12
52.74
51.79
49.83
47.44
45.05
42.86
40.90
39.14
37.52
35.94
34.11
31.61
27.99
22.95
16.57
9.29
1.84
-5.05
-10.91
-15.69
-19.72
-23.62
-28.06
-33.46
-39.74
-46.22
-51.64
-54.46
-53.33
-47.60
-37.57
-24.50
-10.18
3.51
15.15
23.94
29.72
32.75
33.47
32.41
30.11
27.14
24.08
21.39
19.36
18.03
17.21
16.60
15.94
15.08
14.04
12.91
11.79
10.66
9.37
7.72
5.57
2.90
-0.18
-3.50
-6.91
-10.38
-14.02
-18.06
-22.70
-27.98
-33.68
-39.19
-43.58
-45.75
-44.77
-40.18
-32.23
-21.83
-10.34
0.87
10.76
18.79
24.89
29.24
32.07
33.49
33.54
32.23
29.68
26.19
22.17
18.12
14.42
11.35
9.02
7.40
6.39
5.83
5.52
5.18
4.53
3.23
1.10
-1.92
-5.66
-9.82
-14.14
-18.50
-23.12
-28.39
-34.72
-42.20
-50.36
-58.09
-63.86
-66.19
-64.07
-57.39
-46.92
-34.09
-20.56
-7.80
3.18
11.88
18.22
22.40
24.67
25.36
24.83
23.56
22.11
21.02
20.67
21.09
21.98
22.74
22.86
22.07
20.48
18.47
16.49
14.76
13.25
11.66
9.69
7.15
3.99
0.26
-4.06
-9.00
-14.46
-20.07
-25.01
-28.20
-28.60
-25.59
-19.25
-10.34
-0.09
10.22
19.57
27.33
33.22
37.13
39.02
38.92
37.01
33.71
29.60
25.38
21.59
18.47
15.96
13.73
11.40
8.72
5.63
2.26
-1.22
-4.67
-8.07
-11.50
-15.07
-18.87
-23.00
-27.55
-32.71
-38.68
-45.60
-53.27
-61.02
-67.67
-71.73
-71.85
-67.23
-57.98
-45.08
-30.14
-14.96
-1.07
10.43
19.01
24.54
27.23
27.51
25.94
23.24
20.11
17.17
14.83
13.25
12.35
11.89
11.58
11.20
10.62
9.84
8.91
7.88
6.67
5.10
2.87
-0.36
-4.83
-10.60
-17.49
-25.18
-33.27
-41.39
-49.19
-56.25
-61.96
-65.51
-66.01
-62.79
-55.66
-45.06
-32.01
-17.79
-3.63
9.52
21.11
30.79
38.34
43.59
46.55
47.45
46.83
45.43
43.95
42.84
42.20
41.82
41.38
40.61
39.43
37.93
36.23
34.43
32.48
30.21
27.43
24.03
20.07
15.72
11.19
6.60
1.90
-3.10
-8.57
-14.66
-21.42
-28.84
-36.73
-44.62
-51.66
-56.66
-58.39
-56.09
-49.76
-40.32
-29.28
-18.28
-8.55
-0.78
4.91
8.63
10.51
10.59
8.89
5.53
0.87
-4.47
-9.74
-14.20
-17.34
-19.08
-19.73
-19.93
-20.37
-21.52
-23.51
-26.15
-29.08
-31.95
-34.54
-36.68
-38.17
-38.79
-38.35
-36.84
-34.51
-31.79
-29.09
-26.57
-24.11
-21.47
-18.60
-15.89
-14.16
-14.30
-16.77
-21.19
-26.29
-30.27
-31.42
-28.65
-21.80
-11.52
1.04
14.65
28.27
41.13
52.70
62.55
70.38
75.98
79.37
80.80
80.75
79.73
78.18
76.29
73.90
70.64
66.09
60.06
52.80
44.99
37.63
31.71
27.94
26.49
27.01
28.77
30.88
32.65
33.71
34.02
33.80
33.22
32.32
30.85
28.43
24.63
19.09
11.52
1.73
-10.29
-24.17
-38.95
-53.06
-64.61
-71.86
-73.74
-70.06
-61.45
-48.93
-33.68
-16.86
0.35
16.58
30.49
40.93
47.43
50.32
50.61
49.61
48.47
47.89
48.07
48.85
49.99
51.28
52.62
53.93
55.08
55.87
56.00
55.13
52.97
49.36
44.30
37.98
30.73
22.90
14.82
6.68
-1.42
-9.37
-17.08
-24.42
-31.36
-38.02
-44.58
-51.11
-57.29
-62.29
-64.91
-63.98
-58.87
-49.78
-37.74
-24.20
-10.66
1.78
12.45
21.03
27.39
31.54
33.62
33.96
33.04
31.37
29.36
27.22
25.08
22.98
21.00
19.26
17.88
16.90
16.29
15.94
15.73
15.51
15.15
14.52
13.51
12.03
10.01
7.39
4.11
0.13
-4.53
-9.72
-15.22
-20.70
-25.89
-30.59
-34.82
-38.76
-42.73
-47.06
-52.01
-57.51
-63.12
-67.98
-71.05
-71.38
-68.44
-62.35
-53.84
-44.06
-34.19
-25.17
-17.59
-11.67
-7.45
-4.85
-3.70
-3.69
-4.36
-5.14
-5.48
-5.03
-3.76
-1.85
0.32
2.45
4.34
5.96
7.33
8.44
9.23
9.59
9.42
8.70
7.48
5.85
3.89
1.63
-0.92
-3.74
-6.76
-9.89
-12.96
-15.83
-18.38
-20.54
-22.33
-23.94
-25.66
-27.94
-31.21
-35.63
-40.85
-45.97
-49.61
-50.34
-47.17
-39.91
-29.30
-16.72
-3.80
8.11
18.14
25.94
31.49
34.94
36.49
36.36
34.88
32.53
29.87
27.42
25.61
24.63
24.40
24.67
25.01
25.07
24.62
23.67
22.44
21.21
20.12
19.10
17.81
15.90
13.18
9.75
5.96
2.18
-1.34
-4.61
-7.82
-11.16
-14.74
-18.61
-22.84
-27.55
-32.85
-38.53
-43.95
-48.03
-49.51
-47.50
-41.79
-33.02
-22.43
-11.39
-1.02
8.06
15.64
21.67
26.03
28.44
28.67
26.78
23.28
19.08
15.21
12.43
10.97
10.45
10.15
9.45
8.28
7.31
7.78
11.01
17.75
27.70
39.29
50.12
57.57
59.71
55.85
46.67
33.84
19.36
4.76
-9.30
-23.15
-37.95
-55.24
-76.42
-101.91
-130.34
-158.20
-180.11
-190.18
-183.93
-160.22
-122.03
-75.71
-28.98
11.64
42.56
63.46
76.34
83.91
88.32
90.69
91.42
90.84
89.54
88.31
87.74
87.79
87.75
86.54
83.33
77.92
70.90
63.38
56.48
50.85
46.34
42.20
37.44
31.34
23.82
15.46
7.21
-0.06
-5.93
-10.60
-14.76
-19.35
-25.19
-32.85
-42.42
-53.53
-65.31
-76.46
-85.42
-90.65
-91.00
-85.98
-76.00
-62.22
-46.26
-29.81
-14.20
-0.11
12.43
24.01
35.48
47.62
60.78
74.70
88.52
101.05
111.09
117.74
120.63
119.84
115.88
109.47
101.33
92.04
81.83
70.45
57.30
41.71
23.48
3.30
-17.10
-35.40
-49.47
-58.30
-62.43
-63.78
-64.76
-67.37
-72.52
-80.06
-89.29
-99.63
-110.83
-122.66
-134.40
-144.41
-150.49
-150.63
-143.94
-131.07
-113.98
-94.96
-75.70
-56.80
-38.06
-19.08
0.05
18.59
35.56
50.25
62.64
73.29
83.02
92.31
101.11
108.75
114.29
116.90
116.11
112.00
105.08
96.18
86.20
75.99
66.16
57.05
48.72
41.06
33.87
27.07
20.81
15.44
11.43
9.08
8.27
8.34
8.20
6.69
2.87
-3.64
-12.63
-23.32
-34.47
-44.57
-51.91
-55.00
-52.90
-45.60
-34.12
-20.27
-6.05
6.84
17.38
25.07
29.70
31.01
28.69
22.64
13.25
1.64
-10.69
-22.30
-32.30
-40.66
-48.08
-55.64
-64.36
-74.99
-87.81
-102.41
-117.53
-130.98
-140.03
-142.24
-136.48
-123.64
-106.51
-88.82
-73.87
-63.42
-57.44
-54.64
-53.41
-52.43
-50.84
-47.93
-42.84
-34.71
-23.08
-8.35
8.12
24.39
38.55
49.33
56.39
60.20
61.66
61.69
60.92
59.66
57.96
55.78
53.16
50.33
47.59
45.33
43.80
43.02
42.79
42.67
42.16
40.83
38.45
35.02
30.74
25.93
20.88
15.82
10.83
5.84
0.67
-4.92
-11.16
-18.09
-25.42
-32.46
-38.13
-41.24
-40.87
-36.64
-28.87
-18.54
-6.90
4.79
15.53
24.63
31.62
36.29
38.59
38.79
37.48
35.44
33.45
32.02
31.19
30.67
29.95
28.67
26.77
24.44
22.06
19.89
17.98
16.16
14.09
11.50
8.24
4.43
0.37
-3.54
-6.94
-9.66
-11.78
-13.61
-15.64
-18.43
-22.48
-27.97
-34.56
-41.30
-46.76
-49.37
-47.96
-42.23
-32.84
-21.16
-8.83
2.80
12.89
21.08
27.29
31.51
33.76
34.18
33.18
31.40
29.59
28.34
27.90
28.18
28.82
29.43
29.72
29.60
29.14
28.44
27.54
26.34
24.64
22.17
18.76
14.37
9.19
3.52
-2.19
-7.56
-12.31
-16.43
-20.18
-24.03
-28.51
-33.91
-40.04
-46.10
-50.81
-52.83
-51.20
-45.68
-36.82
-25.78
-13.89
-2.31
8.12
16.89
23.65
28.14
30.14
29.66
27.05
23.06
18.75
15.15
13.02
12.53
13.33
14.73
16.04
16.83
17.04
16.82
16.31
15.48
14.12
11.89
8.63
4.36
-0.61
-5.84
-10.87
-15.34
-19.06
-22.05
-24.54
-26.92
-29.71
-33.41
-38.31
-44.34
-50.83
-56.61
-60.19
-60.19
-55.73
-46.85
-34.47
-20.18
-5.71
7.51
18.61
27.30
33.60
37.63
39.50
39.31
37.40
34.40
31.17
28.54
27.06
26.73
27.14
27.64
27.68
27.07
25.92
24.57
23.29
22.13
20.93
19.42
17.35
14.61
11.21
7.27
2.94
-1.68
-6.49
-11.45
-16.49
-21.52
-26.48
-31.36
-36.19
-41.00
-45.66
-49.69
-52.32
-52.56
-49.53
-42.85
-32.82
-20.43
-7.04
5.92
17.36
26.62
33.47
37.95
40.22
40.59
39.43
37.24
34.60
32.08
30.13
28.96
28.57
28.69
28.94
28.92
28.29
26.87
24.69
21.95
18.95
15.98
13.18
10.51
7.77
4.75
1.35
-2.33
-6.10
-9.76
-13.22
-16.54
-19.88
-23.36
-27.09
-31.17
-35.75
-40.99
-46.90
-53.05
-58.49
-61.86
-61.78
-57.37
-48.67
-36.63
-22.85
-9.00
3.57
14.10
22.36
28.43
32.48
34.70
35.27
34.46
32.67
30.38
28.08
26.20
24.96
24.39
24.31
24.43
24.40
23.97
23.03
21.68
20.07
18.40
16.72
14.99
13.04
10.62
7.57
3.81
-0.57
-5.30
-10.07
-14.57
-18.64
-22.30
-25.70
-29.07
-32.67
-36.72
-41.33
-46.42
-51.56
-55.87
-58.19
-57.33
-52.55
-43.88
-32.24
-19.07
-5.98
5.78
15.50
22.96
28.23
31.46
32.80
32.43
30.68
28.05
25.17
22.61
20.76
19.74
19.33
19.20
18.98
18.54
17.95
17.46
17.25
17.31
17.30
16.69
14.98
11.89
7.56
2.45
-2.82
-7.70
-11.90
-15.40
-18.45
-21.45
-24.81
-28.84
-33.68
-39.11
-44.47
-48.73
-50.67
-49.23
-43.96
-35.18
-23.93
-11.66
0.23
10.73
19.33
25.88
30.38
32.85
33.34
32.05
29.44
26.27
23.33
21.28
20.38
20.50
21.18
21.91
22.28
22.13
21.51
20.56
19.50
18.46
17.42
16.25
14.64
12.29
8.99
4.73
-0.26
-5.59
-10.81
-15.63
-19.95
-23.93
-27.89
-32.25
-37.36
-43.31
-49.82
-56.12
-60.97
-63.00
-61.09
-54.79
-44.57
-31.63
-17.61
-4.07
7.83
17.44
24.58
29.34
31.96
32.72
31.97
30.19
27.89
25.60
23.70
22.39
21.65
21.31
21.12
20.90
20.49
19.80
18.76
17.31
15.43
13.18
10.65
7.95
5.13
2.15
-1.13
-4.79
-8.87
-13.30
-17.90
-22.52
-27.01
-31.23
-35.05
-38.42
-41.39
-44.21
-47.25
-50.79
-54.73
-58.37
-60.51
-59.80
-55.24
-46.62
-34.68
-20.85
-6.82
6.01
16.80
25.27
31.53
35.80
38.23
38.91
37.96
35.64
32.41
28.83
25.45
22.64
20.51
18.94
17.69
16.54
15.37
14.17
13.02
12.02
11.23
10.68
10.34
10.09
9.74
9.03
7.70
5.59
2.75
-0.64
-4.34
-8.18
-12.12
-16.27
-20.74
-25.60
-30.82
-36.42
-42.46
-48.97
-55.73
-62.04
-66.64
-67.96
-64.63
-56.10
-42.87
-26.42
-8.67
8.56
24.06
37.23
47.98
56.37
62.48
66.34
68.08
68.03
66.68
64.57
62.11
59.50
56.70
53.55
49.84
45.50
40.54
35.11
29.38
23.47
17.40
11.15
4.74
-1.70
-7.87
-13.37
-17.84
-21.06
-23.03
-23.94
-24.07
-23.68
-22.91
-21.89
-20.78
-19.92
-19.79
-20.86
-23.37
-27.04
-31.05
-34.19
-35.26
-33.48
-28.73
-21.64
-13.19
-4.48
3.71
10.91
16.84
21.29
23.98
24.70
23.52
20.91
17.70
14.84
13.05
12.58
13.20
14.31
15.29
15.70
15.48
14.85
14.23
13.94
14.14
14.68
15.24
15.45
15.03
13.91
12.17
10.03
7.67
5.20
2.58
-0.33
-3.80
-8.20
-13.85
-20.87
-28.98
-37.32
-44.66
-49.61
-51.07
-48.55
-42.28
-33.09
-22.10
-10.45
0.89
11.16
19.77
26.24
30.35
32.19
32.29
31.50
30.84
31.09
32.62
35.20
38.17
40.66
41.90
41.44
39.22
35.50
30.69
25.27
19.64
14.08
8.71
3.54
-1.48
-6.37
-11.08
-15.45
-19.30
-22.51
-25.14
-27.45
-29.85
-32.79
-36.52
-40.96
-45.52
-49.24
-50.94
-49.57
-44.56
-36.03
-24.82
-12.27
0.21
11.47
20.86
28.21
33.66
37.40
39.57
40.25
39.57
37.83
35.44
32.86
30.40
28.23
26.29
24.46
22.66
20.87
19.16
17.57
16.08
14.62
13.01
11.07
8.64
5.62
1.98
-2.22
-6.82
-11.62
-16.32
-20.67
-24.48
-27.66
-30.28
-32.56
-34.86
-37.61
-41.16
-45.61
-50.64
-55.42
-58.77
-59.42
-56.41
-49.49
-39.17
-26.63
-13.34
-0.64
10.50
19.59
26.46
31.14
33.74
34.49
33.77
32.14
30.24
28.62
27.61
27.25
27.31
27.47
27.47
27.15
26.49
25.52
24.29
22.80
21.04
19.04
16.80
14.32
11.53
8.31
4.58
0.35
-4.19
-8.72
-12.89
-16.48
-19.49
-22.13
-24.76
-27.76
-31.42
-35.88
-40.98
-46.21
-50.64
-53.08
-52.42
-47.94
-39.67
-28.39
-15.38
-2.07
10.37
21.20
30.06
36.79
41.36
43.84
44.45
43.65
42.03
40.23
38.76
37.89
37.63
37.82
38.18
38.45
38.46
38.10
37.34
36.17
34.52
32.20
28.98
24.63
19.09
12.55
5.43
-1.67
-8.21
-13.84
-18.56
-22.65
-26.60
-30.93
-36.05
-42.13
-49.03
-56.19
-62.71
-67.37
-68.99
-66.72
-60.37
-50.55
-38.48
-25.72
-13.68
-3.36
4.72
10.40
13.73
14.88
14.15
12.09
9.43
6.92
5.09
4.06
3.52
2.97
1.98
0.46
-1.33
-2.95
-4.03
-4.51
-4.66
-4.98
-5.98
-7.92
-10.73
-14.08
-17.52
-20.70
-23.49
-26.02
-28.63
-31.76
-35.79
-40.86
-46.70
-52.52
-57.01
-58.64
-56.13
-48.89
-37.35
-22.85
-7.25
7.61
20.39
30.43
37.61
42.14
44.34
44.53
43.09
40.48
37.22
33.78
30.52
27.61
25.12
23.07
21.47
20.33
19.62
19.18
18.72
17.87
16.28
13.76
10.32
6.20
1.82
-2.36
-6.01
-8.98
-11.40
-13.67
-16.37
-20.09
-25.14
-31.32
-37.82
-43.26
-46.07
-45.03
-39.68
-30.56
-18.98
-6.60
5.09
15.11
23.05
28.86
32.64
34.54
34.77
33.69
31.77
29.56
27.45
25.62
24.04
22.60
21.22
19.94
18.82
17.89
17.06
16.10
14.75
12.80
10.21
7.02
3.40
-0.47
-4.45
-8.47
-12.57
-16.94
-21.88
-27.68
-34.42
-41.69
-48.49
-53.40
-54.98
-52.27
-45.23
-34.79
-22.51
-10.13
0.98
10.06
16.88
21.53
24.20
25.01
24.14
21.83
18.52
14.78
11.16
8.02
5.50
3.55
2.01
0.72
-0.40
-1.39
-2.32
-3.33
-4.62
-6.39
-8.74
-11.66
-14.97
-18.56
-22.44
-26.82
-32.06
-38.38
-45.61
-53.02
-59.40
-63.35
-63.66
-59.66
-51.43
-39.81
-26.10
-11.87
1.39
12.50
20.80
26.11
28.75
29.34
28.64
27.34
25.98
24.90
24.28
24.12
24.26
24.39
24.16
23.29
21.70
19.54
17.07
14.56
12.12
9.66
6.94
3.63
-0.50
-5.60
-11.57
-18.02
-24.25
-29.29
-32.06
-31.67
-27.74
-20.50
-10.79
0.22
11.35
21.66
30.57
37.77
43.11
46.48
47.84
47.25
45.00
41.65
37.89
34.44
31.77
29.98
28.81
27.73
26.24
23.96
20.83
16.98
12.71
8.31
3.99
-0.09
-3.84
-7.28
-10.53
-13.84
-17.48
-21.58
-25.91
-29.84
-32.39
-32.52
-29.48
-23.11
-13.90
-2.86
8.73
19.69
29.09
36.39
41.37
44.11
44.91
44.22
42.54
40.37
38.10
35.94
33.98
32.20
30.52
28.83
26.98
24.82
22.21
19.01
15.19
10.74
5.74
0.38
-5.10
-10.40
-15.23
-19.36
-22.76
-25.65
-28.48
-31.83
-36.11
-41.34
-46.98
-51.90
-54.73
-54.24
-49.80
-41.61
-30.63
-18.26
-5.94
5.23
14.62
22.00
27.43
31.06
33.07
33.69
33.22
32.03
30.55
29.21
28.32
28.05
28.29
28.74
28.93
28.37
26.72
23.94
20.33
16.38
12.58
9.25
6.36
3.65
0.77
-2.50
-6.08
-9.66
-12.85
-15.36
-17.16
-18.45
-19.63
-21.06
-23.07
-25.94
-29.83
-34.76
-40.42
-46.11
-50.72
-52.93
-51.63
-46.28
-37.18
-25.38
-12.40
0.21
11.29
20.19
26.79
31.23
33.83
34.90
34.76
33.75
32.24
30.63
29.22
28.20
27.54
27.06
26.47
25.53
24.08
22.18
20.00
17.78
15.68
13.73
11.84
9.82
7.50
4.82
1.78
-1.58
-5.16
-8.91
-12.73
-16.50
-20.10
-23.37
-26.26
-28.80
-31.18
-33.72
-36.80
-40.74
-45.64
-51.27
-57.00
-61.89
-64.97
-65.51
-63.16
-57.97
-50.20
-40.20
-28.35
-15.12
-1.25
12.27
24.33
33.95
40.59
44.26
45.49
45.10
43.87
42.39
40.91
39.38
37.58
35.19
32.00
27.95
23.22
18.18
13.34
9.22
6.18
4.32
3.42
2.98
2.40
1.18
-0.90
-3.72
-6.93
-10.04
-12.63
-14.43
-15.37
-15.56
-15.40
-15.43
-16.27
-18.26
-21.31
-24.69
-27.24
-27.75
-25.41
-20.13
-12.54
-3.66
5.41
13.88
21.22
27.14
31.42
33.90
34.61
33.81
32.04
29.96
28.10
26.74
25.83
25.13
24.36
23.30
21.91
20.26
18.46
16.61
14.74
12.75
10.47
7.68
4.27
0.29
-4.02
-8.29
-12.19
-15.52
-18.31
-20.83
-23.43
-26.57
-30.54
-35.42
-40.82
-45.90
-49.47
-50.35
-47.76
-41.59
-32.48
-21.59
-10.22
0.52
9.86
17.37
22.81
26.08
27.25
26.57
24.55
21.78
18.88
16.28
14.18
12.60
11.44
10.60
9.99
9.46
8.85
7.97
6.65
4.82
2.54
-0.08
-2.94
-5.96
-9.12
-12.37
-15.66
-18.94
-22.26
-25.81
-29.85
-34.47
-39.40
-43.86
-46.67
-46.65
-43.04
-35.83
-25.81
-14.31
-2.81
7.50
15.87
22.02
25.95
27.78
27.71
26.03
23.15
19.63
16.06
12.94
10.52
8.84
7.74
7.05
6.68
6.58
6.70
6.88
6.83
6.18
4.63
2.09
-1.30
-5.23
-9.33
-13.29
-16.97
-20.40
-23.83
-27.63
-32.14
-37.40
-43.00
-47.98
-51.03
-50.89
-46.80
-38.77
-27.66
-14.85
-1.84
10.13
20.24
28.10
33.53
36.55
37.33
36.23
33.82
30.85
28.06
25.94
24.65
24.00
23.61
23.13
22.37
21.36
20.20
18.96
17.55
15.72
13.22
9.88
5.76
1.17
-3.47
-7.78
-11.59
-15.03
-18.48
-22.46
-27.40
-33.40
-40.04
-46.35
-51.00
-52.67
-50.46
-44.22
-34.58
-22.78
-10.24
1.75
12.28
20.87
27.33
31.66
33.94
34.38
33.29
31.14
28.43
25.64
23.12
21.04
19.39
18.03
16.80
15.56
14.26
12.94
11.63
10.31
8.80
6.87
4.23
0.73
-3.57
-8.36
-13.20
-17.64
-21.40
-24.52
-27.36
-30.48
-34.38
-39.19
-44.50
-49.29
-52.20
-51.99
-47.92
-40.07
-29.27
-16.79
-4.00
8.00
18.51
27.14
33.69
38.02
40.09
39.99
38.04
34.84
31.09
27.48
24.48
22.29
20.82
19.86
19.17
18.65
18.32
18.22
18.27
18.13
17.28
15.15
11.38
6.03
-0.40
-7.18
-13.56
-19.01
-23.35
-26.66
-29.26
-31.57
-33.98
-36.76
-39.87
-42.89
-45.05
-45.43
-43.24
-38.10
-30.19
-20.15
-8.94
2.47
13.18
22.54
30.11
35.70
39.28
41.03
41.24
40.27
38.45
36.10
33.44
30.66
27.90
25.29
22.97
21.05
19.58
18.54
17.72
16.81
15.39
13.13
9.85
5.64
0.82
-4.11
-8.70
-12.60
-15.76
-18.38
-20.92
-23.88
-27.59
-32.01
-36.53
-40.09
-41.46
-39.62
-34.15
-25.42
-14.41
-2.49
9.07
19.29
27.62
33.86
37.96
40.05
40.34
39.27
37.44
35.53
34.14
33.53
33.62
33.97
33.98
33.15
31.22
28.29
24.70
20.91
17.31
14.05
11.04
7.97
4.51
0.44
-4.20
-9.16
-14.10
-18.76
-23.09
-27.25
-31.54
-36.21
-41.47
-47.35
-53.74
-60.22
-65.98
-69.84
-70.45
-66.69
-58.16
-45.45
-30.03
-13.87
1.20
13.93
23.87
31.16
36.19
39.32
40.76
40.65
39.21
36.82
33.98
31.16
28.64
26.46
24.51
22.61
20.68
18.72
16.78
14.83
12.72
10.23
7.19
3.53
-0.62
-5.05
-9.56
-14.03
-18.48
-23.00
-27.78
-32.98
-38.72
-44.91
-51.13
-56.51
-59.86
-59.95
-55.97
-47.88
-36.53
-23.47
-10.36
1.45
11.34
19.34
25.82
31.14
35.43
38.58
40.41
40.94
40.41
39.30
38.04
36.90
35.89
34.81
33.46
31.73
29.63
27.23
24.62
21.83
18.89
15.80
12.62
9.35
5.95
2.24
-2.10
-7.39
-13.92
-21.69
-30.40
-39.24
-47.06
-52.49
-54.32
-51.86
-45.16
-35.09
-23.09
-10.76
0.48
9.67
16.39
20.67
22.76
22.98
21.70
19.22
15.86
11.95
7.78
3.68
-0.14
-3.52
-6.36
-8.63
-10.40
-11.80
-13.05
-14.36
-15.91
-17.72
-19.74
-21.81
-23.80
-25.66
-27.44
-29.33
-31.63
-34.70
-38.82
-43.99
-49.69
-54.84
-57.88
-57.32
-52.20
-42.56
-29.45
-14.61
0.06
13.13
23.77
31.77
37.25
40.39
41.35
40.36
37.78
34.18
30.28
26.68
23.77
21.56
19.74
17.88
15.60
12.71
9.27
5.50
1.65
-2.08
-5.65
-9.15
-12.74
-16.64
-21.09
-26.34
-32.55
-39.60
-46.98
-53.67
-58.31
-59.50
-56.29
-48.49
-36.82
-22.67
-7.73
6.47
18.83
28.77
36.04
40.65
42.74
42.58
40.67
37.66
34.31
31.26
28.91
27.37
26.50
26.04
25.77
25.49
25.06
24.30
23.02
21.05
18.35
15.05
11.43
7.81
4.42
1.29
-1.79
-5.17
-9.23
-14.33
-20.62
-27.88
-35.45
-42.16
-46.58
-47.35
-43.67
-35.65
-24.30
-11.26
1.78
13.50
23.26
30.95
36.75
40.83
43.24
44.00
43.28
41.43
39.03
36.67
34.76
33.50
32.78
32.37
31.99
31.38
30.36
28.85
26.83
24.35
21.52
18.44
15.19
11.78
8.22
4.48
0.60
-3.40
-7.45
-11.49
-15.46
-19.31
-23.01
-26.55
-29.97
-33.40
-37.06
-41.22
-46.17
-51.96
-58.21
-63.99
-67.87
-68.34
-64.31
-55.54
-42.84
-27.86
-12.52
1.51
13.27
22.52
29.49
34.52
37.83
39.49
39.58
38.35
36.31
34.08
32.22
31.02
30.48
30.33
30.24
29.96
29.36
28.43
27.18
25.59
23.62
21.25
18.47
15.34
11.93
8.28
4.35
0.15
-4.32
-8.94
-13.49
-17.79
-21.70
-25.25
-28.61
-32.04
-35.83
-40.25
-45.43
-51.22
-57.08
-62.02
-64.71
-63.85
-58.64
-49.11
-36.25
-21.68
-7.16
5.88
16.60
24.74
30.39
33.77
35.16
34.91
33.53
31.64
29.90
28.79
28.49
28.84
29.45
29.85
29.72
28.95
27.64
26.04
24.36
22.65
20.76
18.41
15.32
11.35
6.60
1.38
-3.87
-8.78
-13.14
-16.97
-20.51
-24.14
-28.25
-33.14
-38.80
-44.84
-50.40
-54.27
-55.20
-52.30
-45.38
-35.04
-22.55
-9.41
3.07
14.02
23.07
30.14
35.21
38.27
39.30
38.47
36.22
33.29
30.47
28.40
27.34
27.07
27.12
26.94
26.19
24.87
23.28
21.75
20.46
19.28
17.79
15.53
12.20
7.86
2.92
-2.08
-6.65
-10.59
-14.03
-17.30
-20.78
-24.78
-29.46
-34.87
-40.96
-47.44
-53.72
-58.80
-61.43
-60.44
-55.17
-45.72
-33.03
-18.60
-4.06
9.21
20.33
28.93
34.99
38.72
40.46
40.59
39.55
37.78
35.69
33.63
31.83
30.42
29.40
28.70
28.21
27.80
27.38
26.88
26.20
25.25
23.92
22.09
19.74
16.87
13.51
9.75
5.65
1.26
-3.33
-7.98
-12.60
-17.08
-21.33
-25.34
-29.10
-32.66
-36.14
-39.77
-43.82
-48.45
-53.49
-58.27
-61.66
-62.37
-59.40
-52.43
-41.96
-29.17
-15.55
-2.45
9.09
18.41
25.10
28.97
30.04
28.69
25.74
22.34
19.71
18.71
19.68
22.31
25.83
29.37
32.20
33.93
34.52
34.20
33.25
31.93
30.30
28.18
25.15
20.68
14.38
6.22
-3.31
-13.25
-22.45
-29.93
-35.18
-38.24
-39.63
-40.05
-40.21
-40.72
-41.97
-44.18
-47.22
-50.49
-52.93
-53.19
-50.04
-42.84
-31.84
-18.20
-3.62
10.12
21.68
30.36
36.07
39.13
39.95
38.93
36.47
32.98
28.99
25.14
21.98
19.89
18.90
18.77
19.08
19.50
19.89
20.34
21.04
22.06
23.21
24.03
23.94
22.42
19.25
14.57
8.82
2.53
-3.92
-10.30
-16.61
-22.92
-29.23
-35.45
-41.38
-46.82
-51.55
-55.28
-57.55
-57.68
-54.95
-48.86
-39.42
-27.35
-13.90
-0.57
11.36
21.13
28.49
33.66
36.98
38.75
39.21
38.55
37.08
35.16
33.17
31.35
29.71
28.04
26.06
23.59
20.67
17.60
14.83
12.77
11.69
11.49
11.83
12.13
11.83
10.52
8.11
4.79
0.98
-2.89
-6.52
-9.85
-13.09
-16.65
-20.94
-26.17
-32.13
-38.12
-43.06
-45.76
-45.28
-41.32
-34.34
-25.43
-15.96
-7.14
0.22
5.86
9.88
12.47
13.73
13.64
12.14
9.36
5.76
2.05
-0.99
-2.82
-3.32
-2.77
-1.70
-0.65
0.02
0.16
-0.26
-1.23
-2.73
-4.70
-7.03
-9.55
-12.05
-14.43
-16.79
-19.38
-22.52
-26.33
-30.56
-34.46
-36.91
-36.78
-33.30
-26.40
-16.74
-5.54
5.84
16.25
24.89
31.38
35.64
37.70
37.69
35.83
32.50
28.23
23.67
19.46
16.11
13.85
12.61
12.09
11.90
11.67
11.11
10.09
8.54
6.43
3.77
0.63
-2.85
-6.47
-10.12
-13.87
-17.99
-22.87
-28.69
-35.19
-41.53
-46.46
-48.64
-47.16
-41.89
-33.55
-23.48
-13.14
-3.74
4.02
9.93
14.11
16.73
17.97
17.96
16.86
14.95
12.59
10.21
8.19
6.75
5.97
5.72
5.73
5.69
5.36
4.66
3.65
2.51
1.40
0.40
-0.56
-1.62
-2.94
-4.66
-6.91
-9.88
-13.83
-18.95
-25.17
-31.83
-37.72
-41.25
-40.96
-36.09
-26.90
-14.65
-1.14
11.84
22.99
31.70
37.85
41.54
42.89
42.02
39.19
34.94
30.09
25.52
21.90
19.47
18.00
17.01
16.01
14.76
13.30
11.79
10.36
8.96
7.34
5.19
2.34
-1.17
-5.05
-8.85
-12.22
-14.96
-17.13
-19.04
-21.10
-23.71
-27.05
-30.98
-34.90
-37.83
-38.65
-36.40
-30.65
-21.62
-10.20
2.34
14.65
25.69
34.78
41.63
46.17
48.50
48.80
47.39
44.78
41.59
38.48
35.89
33.95
32.44
30.98
29.17
26.86
24.17
21.37
18.73
16.33
13.99
11.38
8.21
4.38
0.01
-4.58
-9.07
-13.23
-17.02
-20.50
-23.83
-27.20
-30.80
-34.77
-39.14
-43.66
-47.69
-50.29
-50.39
-47.18
-40.39
-30.49
-18.56
-5.91
6.20
16.91
25.70
32.35
36.78
39.01
39.18
37.67
35.03
31.94
29.00
26.58
24.77
23.41
22.30
21.25
20.22
19.17
18.07
16.79
15.14
12.92
10.04
6.50
2.48
-1.77
-5.97
-9.87
-13.29
-16.23
-18.87
-21.54
-24.67
-28.61
-33.39
-38.57
-43.20
-46.08
-46.05
-42.49
-35.47
-25.82
-14.76
-3.57
6.74
15.59
22.66
27.73
30.64
31.29
29.87
26.93
23.33
20.00
17.65
16.52
16.41
16.78
17.12
17.08
16.62
15.90
15.12
14.39
13.61
12.58
11.03
8.78
5.75
1.98
-2.37
-7.05
-11.78
-16.27
-20.29
-23.76
-26.73
-29.47
-32.37
-35.85
-40.14
-45.15
-50.27
-54.42
-56.31
-54.80
-49.32
-40.10
-28.10
-14.73
-1.40
10.83
21.31
29.78
36.13
40.30
42.32
42.41
41.02
38.82
36.54
34.73
33.71
33.52
33.96
34.71
35.44
35.86
35.73
34.95
33.55
31.67
29.55
27.43
25.49
23.77
22.21
20.67
18.99
16.99
14.49
11.35
7.45
2.76
-2.67
-8.72
-15.34
-22.60
-30.61
-39.41
-48.64
-57.47
-64.67
-68.95
-69.42
-65.88
-58.93
-49.69
-39.42
-29.17
-19.64
-11.22
-4.13
1.47
5.48
7.89
8.89
8.83
8.13
7.18
6.26
5.55
5.08
4.86
4.88
5.19
5.84
6.85
8.12
9.37
10.24
10.36
9.53
7.81
5.51
3.06
0.84
-0.98
-2.55
-4.28
-6.70
-10.30
-15.26
-21.31
-27.70
-33.30
-36.84
-37.26
-34.03
-27.29
-17.89
-7.08
3.72
13.34
20.97
26.24
29.12
29.83
28.78
26.49
23.57
20.56
17.89
15.74
14.07
12.70
11.49
10.37
9.36
8.42
7.44
6.19
4.40
1.86
-1.50
-5.65
-10.49
-15.90
-21.73
-27.83
-33.99
-40.00
-45.78
-51.34
-56.69
-61.67
-65.78
-68.15
-67.77
-63.84
-56.12
-45.07
-31.80
-17.72
-4.25
7.49
16.78
23.29
27.03
28.28
27.53
25.39
22.54
19.58
16.97
15.04
13.93
13.62
13.90
14.45
14.88
14.87
14.30
13.24
11.93
10.59
9.32
7.99
6.34
3.98
0.58
-4.11
-10.13
-17.20
-24.66
-31.45
-36.35
-38.21
-36.39
-30.94
-22.59
-12.48
-1.83
8.36
17.47
25.09
30.95
34.78
36.40
35.84
33.47
29.97
26.21
22.94
20.60
19.22
18.43
17.67
16.46
14.55
11.99
9.08
6.19
3.56
1.24
-0.92
-3.24
-6.02
-9.56
-13.97
-19.25
-25.07
-30.79
-35.44
-37.91
-37.25
-33.03
-25.51
-15.60
-4.61
6.18
15.80
23.75
29.86
34.17
36.70
37.43
36.39
33.81
30.18
26.17
22.52
19.72
17.91
16.83
15.95
14.73
12.83
10.23
7.19
4.05
1.05
-1.82
-4.78
-8.13
-12.12
-16.89
-22.45
-28.64
-35.09
-41.12
-45.75
-47.91
-46.70
-41.77
-33.51
-22.91
-11.29
0.15
10.56
19.50
26.76
32.16
35.53
36.78
36.00
33.61
30.28
26.74
23.65
21.35
19.85
18.89
18.07
17.04
15.60
13.73
11.55
9.19
6.74
4.14
1.29
-1.94
-5.62
-9.82
-14.59
-19.97
-25.91
-32.05
-37.67
-41.72
-43.06
-40.90
-35.04
-26.03
-14.96
-3.15
8.21
18.26
26.52
32.76
36.95
39.16
39.60
38.62
36.71
34.34
31.96
29.84
28.11
26.78
25.77
24.97
24.26
23.53
22.62
21.40
19.77
17.68
15.16
12.30
9.19
5.91
2.48
-1.07
-4.71
-8.36
-11.94
-15.36
-18.58
-21.60
-24.47
-27.27
-30.06
-32.97
-36.21
-40.04
-44.62
-49.78
-54.87
-58.74
-60.06
-57.74
-51.35
-41.33
-28.86
-15.39
-2.28
9.52
19.53
27.52
33.42
37.18
38.89
38.85
37.60
35.78
33.98
32.56
31.61
31.01
30.54
29.97
29.16
28.08
26.79
25.39
23.97
22.55
21.01
19.15
16.79
13.84
10.43
6.78
3.23
0.01
-2.77
-5.19
-7.45
-9.83
-12.55
-15.70
-19.26
-23.00
-26.67
-30.01
-32.85
-35.18
-37.10
-38.86
-40.77
-43.20
-46.41
-50.43
-54.82
-58.67
-60.75
-59.86
-55.25
-46.92
-35.64
-22.69
-9.46
2.87
13.58
22.31
28.97
33.55
36.13
36.88
36.15
34.47
32.51
30.86
29.89
29.70
30.08
30.72
31.30
31.67
31.83
31.89
31.95
32.00
31.88
31.37
30.26
28.45
25.97
23.03
19.84
16.63
13.51
10.48
7.46
4.31
0.95
-2.62
-6.31
-9.99
-13.54
-16.90
-20.08
-23.13
-26.18
-29.43
-33.17
-37.67
-42.98
-48.80
-54.31
-58.37
-59.73
-57.46
-51.18
-41.18
-28.40
-14.20
-0.08
12.52
22.48
29.11
32.26
32.32
30.07
26.43
22.27
18.19
14.54
11.40
8.80
6.84
5.73
5.79
7.31
10.31
14.50
19.25
23.80
27.54
30.16
31.74
32.60
32.99
32.95
32.10
29.84
25.52
18.88
10.24
0.57
-8.72
-16.25
-21.03
-22.85
-22.34
-20.84
-20.12
-22.09
-28.37
-39.81
-55.99
-74.88
-92.96
-106.01
-110.32
-103.94
-87.33
-63.25
-35.67
-8.54
15.25
34.24
48.16
57.44
62.82
65.26
66.01
66.62
68.53
72.60
78.60
85.13
90.06
91.25
87.45
78.76
66.58
53.10
40.49
30.32
23.16
18.72
16.17
14.59
13.35
12.18
11.12
10.25
9.47
8.44
6.71
3.99
0.36
-3.64
-7.28
-10.00
-11.72
-12.96
-14.61
-17.62
-22.69
-29.97
-39.06
-49.00
-58.41
-65.81
-69.86
-69.78
-65.45
-57.59
-47.38
-36.17
-25.06
-14.80
-5.75
1.87
7.75
11.47
12.52
10.55
5.54
-1.96
-10.87
-19.69
-26.86
-31.10
-31.71
-28.76
-22.92
-15.25
-6.84
1.40
8.88
15.22
20.16
23.49
25.11
25.14
23.94
22.03
19.93
17.95
16.02
13.85
11.04
7.33
2.81
-2.14
-6.97
-11.18
-14.47
-16.87
-18.67
-20.34
-22.41
-25.30
-29.14
-33.69
-38.23
-41.71
-43.02
-41.27
-36.15
-28.01
-17.78
-6.67
4.15
13.78
21.68
27.55
31.20
32.54
31.58
28.62
24.26
19.37
14.86
11.41
9.30
8.38
8.29
8.63
9.16
9.80
10.50
11.10
11.31
10.77
9.21
6.54
2.89
-1.46
-6.20
-11.02
-15.66
-19.93
-23.67
-26.89
-29.76
-32.64
-35.91
-39.83
-44.26
-48.57
-51.72
-52.57
-50.22
-44.36
-35.40
-24.33
-12.45
-1.03
8.91
16.72
22.09
24.96
25.42
23.76
20.45
16.21
11.92
8.49
6.57
6.41
7.74
9.88
12.01
13.44
13.91
13.57
12.83
12.18
11.85
11.80
11.78
11.49
10.84
9.92
9.03
8.43
8.26
8.51
9.03
9.64
10.08
10.04
9.10
6.96
3.54
-0.77
-5.19
-8.74
-10.59
-10.36
-8.16
-4.49
0.05
4.88
9.53
13.62
16.77
18.74
19.46
19.14
18.23
17.29
16.80
16.96
17.65
18.47
18.95
18.71
17.68
16.11
14.43
13.03
12.06
11.31
10.30
8.41
5.11
0.10
-6.59
-14.61
-23.25
-31.61
-38.84
-44.32
-47.95
-50.06
-51.34
-52.38
-53.38
-53.98
-53.33
-50.49
-44.81
-36.21
-25.22
-12.80
0.03
12.32
23.41
32.82
40.16
45.14
47.63
47.73
45.96
43.09
40.03
37.54
35.98
35.23
34.78
33.96
32.22
29.36
25.57
21.30
17.11
13.43
10.49
8.31
6.85
6.10
6.17
7.20
9.26
12.21
15.67
19.10
21.97
23.96
25.12
25.96
27.28
30.08
35.38
43.95
56.18
71.72
89.33
106.95
122.05
132.27
136.22
134.10
127.73
120.10
114.23
112.05
113.57
116.89
118.96
116.88
109.10
95.91
79.16
61.38
44.80
30.74
19.58
11.10
4.89
0.56
-2.44
-4.83
-7.50
-11.23
-16.32
-22.33
-28.10
-32.25
-33.85
-33.05
-31.18
-30.30
-32.21
-37.45
-44.95
-52.45
-57.82
-60.17
-60.55
-61.42
-65.34
-73.64
-85.74
-99.42
-111.98
-121.49
-127.55
-131.21
-134.31
-138.46
-144.22
-150.73
-155.88
-157.11
-152.43
-141.35
-125.43
-107.87
-92.55
-82.67
-79.73
-83.22
-91.10
-100.81
-110.23
-118.16
-124.18
-128.12
-129.50
-127.44
-120.96
-109.53
-93.53
-74.24
-53.37
-32.41
-12.10
7.62
27.18
46.69
65.38
81.52
92.91
97.69
95.10
85.81
71.74
55.41
39.15
24.56
12.25
2.03
-6.63
-14.19
-20.77
-26.23
-30.40
-33.37
-35.53
-37.39
-39.29
-41.23
-42.88
-43.80
-43.70
-42.60
-40.72
-38.38
-35.72
-32.77
-29.48
-25.95
-22.47
-19.44
-17.24
-16.08
-15.93
-16.56
-17.66
-18.95
-20.25
-21.47
-22.64
-23.83
-25.19
-26.92
-29.32
-32.73
-37.44
-43.49
-50.38
-57.09
-62.13
-63.92
-61.25
-53.68
-41.64
-26.37
-9.56
7.09
22.16
34.66
44.10
50.40
53.86
55.07
54.79
53.74
52.54
51.49
50.62
49.73
48.53
46.79
44.43
41.53
38.28
34.83
31.15
27.05
22.24
16.48
9.76
2.40
-5.03
-11.84
-17.43
-21.40
-23.63
-24.32
-23.91
-23.03
-22.20
-21.58
-20.77
-18.77
-14.27
-6.19
5.87
21.35
38.88
56.64
72.87
86.26
96.01
101.84
103.76
102.03
97.14
89.84
81.10
72.04
63.65
56.63
51.20
47.17
44.07
41.46
39.07
36.88
35.00
33.51
32.27
30.92
28.98
26.03
21.96
16.97
11.56
6.34
1.78
-1.90
-4.89
-7.68
-10.92
-15.18
-20.74
-27.37
-34.32
-40.39
-44.25
-44.75
-41.32
-34.05
-23.73
-11.57
1.08
13.04
23.41
31.68
37.64
41.23
42.59
41.97
39.79
36.62
33.07
29.76
27.14
25.39
24.44
23.98
23.67
23.26
22.65
21.90
21.13
20.41
19.71
18.89
17.73
16.03
13.64
10.56
6.94
3.01
-1.01
-4.94
-8.72
-12.42
-16.17
-20.13
-24.47
-29.39
-35.02
-41.32
-47.90
-53.92
-58.21
-59.55
-57.17
-51.06
-42.06
-31.54
-20.90
-11.10
-2.47
5.10
11.85
17.75
22.54
25.94
27.92
28.88
29.49
30.39
31.89
33.90
35.99
37.75
38.99
39.82
40.52
41.40
42.64
44.32
46.44
48.93
51.65
54.30
56.39
57.35
56.64
54.04
49.68
44.01
37.61
31.01
24.53
18.25
12.13
6.06
-0.10
-6.52
-13.33
-20.57
-27.95
-34.79
-40.08
-42.71
-41.87
-37.34
-29.64
-19.91
-9.61
-0.08
7.71
13.36
16.91
18.67
18.98
18.06
16.01
12.93
9.03
4.71
0.40
-3.58
-7.18
-10.54
-13.83
-17.02
-19.77
-21.61
-22.23
-21.73
-20.58
-19.38
-18.46
-17.67
-16.53
-14.60
-11.80
-8.58
-5.67
-3.64
-2.65
-2.41
-2.45
-2.55
-2.91
-4.13
-6.88
-11.42
-17.36
-23.62
-28.74
-31.33
-30.51
-26.12
-18.76
-9.48
0.51
10.12
18.57
25.32
30.09
32.73
33.33
32.18
29.77
26.75
23.69
21.04
18.97
17.44
16.27
15.21
14.05
12.68
11.04
9.21
7.33
5.59
4.15
3.04
2.13
1.15
-0.21
-2.13
-4.60
-7.43
-10.37
-13.21
-15.86
-18.34
-20.75
-23.28
-26.17
-29.60
-33.58
-37.80
-41.52
-43.75
-43.49
-40.10
-33.57
-24.51
-13.97
-3.11
7.12
16.00
23.07
28.04
30.78
31.37
30.15
27.76
24.99
22.56
20.93
20.24
20.30
20.74
21.17
21.30
20.98
20.20
19.02
17.49
15.67
13.59
11.28
8.83
6.35
3.91
1.61
-0.51
-2.45
-4.22
-5.79
-7.12
-8.14
-8.82
-9.26
-9.64
-10.30
-11.58
-13.78
-17.09
-21.59
-27.18
-33.51
-40.00
-45.73
-49.66
-50.77
-48.42
-42.53
-33.67
-22.85
-11.27
0.05
10.40
19.35
26.65
32.11
35.63
37.26
37.28
36.21
34.68
33.19
32.01
31.08
30.20
29.17
27.96
26.66
25.46
24.43
23.50
22.45
21.01
18.98
16.26
12.94
9.20
5.32
1.57
-1.88
-5.03
-8.09
-11.39
-15.25
-19.77
-24.74
-29.77
-34.40
-38.35
-41.58
-44.40
-47.27
-50.76
-55.31
-61.09
-67.79
-74.68
-80.67
-84.64
-85.74
-83.65
-78.60
-71.19
-62.14
-52.06
-41.40
-30.55
-19.94
-10.07
-1.37
5.94
12.04
17.46
22.99
29.39
37.23
46.68
57.57
69.39
81.49
93.19
103.99
113.60
121.99
129.34
135.91
141.82
146.81
150.06
150.18
145.52
134.72
117.31
94.12
67.13
38.97
11.99
-12.37
-33.93
-53.44
-72.01
-90.38
-108.57
-125.73
-140.42
-150.98
-155.91
-154.28
-146.04
-132.10
-114.31
-94.96
-76.34
-60.18
-47.41
-38.20
-32.15
-28.61
-26.79
-25.90
-25.14
-23.82
-21.45
-17.94
-13.63
-9.18
-5.32
-2.52
-0.85
0.07
0.81
1.84
3.27
4.85
6.09
6.60
6.27
5.42
4.58
4.20
4.45
5.06
5.48
5.15
3.74
1.29
-1.88
-5.35
-8.87
-12.41
-16.13
-20.11
-24.14
-27.66
-29.87
-30.02
-27.65
-22.78
-15.86
-7.61
1.19
9.86
17.84
24.67
30.05
33.80
35.93
36.67
36.39
35.55
34.57
33.72
33.13
32.80
32.60
32.37
31.90
31.03
29.68
27.88
25.80
23.64
21.54
19.52
17.40
14.91
11.79
7.95
3.53
-1.17
-5.74
-9.91
-13.59
-16.88
-19.98
-23.10
-26.37
-29.79
-33.23
-36.38
-38.76
-39.76
-38.82
-35.65
-30.40
-23.70
-16.47
-9.58
-3.52
1.69
6.38
10.80
14.93
18.36
20.56
21.16
20.23
18.32
16.21
14.69
14.29
15.24
17.53
21.01
25.42
30.49
35.88
41.24
46.30
50.78
54.39
56.78
57.53
56.23
52.73
47.20
40.20
32.55
25.04
18.22
12.21
6.68
1.02
-5.45
-13.20
-22.24
-31.95
-41.14
-48.35
-52.31
-52.38
-48.76
-42.41
-34.65
-26.64
-19.08
-12.13
-5.62
0.58
6.43
11.62
15.83
18.95
21.18
23.07
25.24
28.11
31.76
35.84
39.79
43.12
45.75
48.16
51.40
56.75
65.28
77.32
92.09
107.67
121.28
129.92
131.03
123.32
107.32
85.59
62.37
42.56
30.36
27.82
34.16
45.97
58.39
66.72
67.81
60.65
46.17
26.49
4.11
-18.66
-39.90
-58.20
-72.72
-83.39
-90.94
-96.70
-102.14
-108.30
-115.34
-122.36
-127.60
-129.07
-125.17
-115.39
-100.63
-83.02
-65.29
-49.96
-38.53
-31.28
-27.41
-25.71
-25.15
-25.21
-25.89
-27.37
-29.75
-32.86
-36.42
-40.20
-44.06
-47.94
-51.60
-54.58
-56.12
-55.44
-51.96
-45.62
-36.89
-26.81
-16.69
-7.90
-1.47
2.09
2.97
1.92
-0.04
-2.02
-3.68
-5.33
-7.87
-12.40
-19.76
-30.12
-42.73
-55.98
-67.75
-75.86
-78.62
-75.22
-65.95
-52.14
-35.80
-19.17
-4.22
7.71
16.02
20.83
22.73
22.53
21.12
19.28
17.67
16.71
16.60
17.30
18.61
20.23
21.88
23.39
24.62
25.52
25.98
25.93
25.29
24.06
22.33
20.19
17.73
14.98
11.91
8.56
4.97
1.28
-2.38
-5.84
-8.95
-11.57
-13.63
-15.17
-16.47
-17.95
-20.02
-22.81
-26.01
-28.82
-30.16
-29.03
-24.89
-17.79
-8.39
2.27
13.12
23.26
32.06
39.16
44.31
47.37
48.29
47.21
44.58
41.07
37.49
34.51
32.45
31.24
30.49
29.68
28.41
26.54
24.19
21.63
19.10
16.76
14.59
12.46
10.18
7.62
4.75
1.65
-1.52
-4.63
-7.61
-10.47
-13.31
-16.29
-19.54
-23.24
-27.41
-31.90
-36.28
-39.79
-41.54
-40.70
-36.84
-30.08
-21.12
-10.97
-0.70
8.84
17.09
23.72
28.51
31.32
32.14
31.16
28.91
26.10
23.45
21.46
20.27
19.66
19.23
18.58
17.49
15.93
14.05
12.05
10.12
8.32
6.61
4.85
2.84
0.42
-2.48
-5.76
-9.17
-12.42
-15.26
-17.60
-19.61
-21.58
-23.98
-27.15
-31.22
-35.89
-40.35
-43.45
-43.95
-41.06
-34.68
-25.58
-15.11
-4.75
4.37
11.67
17.12
20.99
23.56
25.01
25.45
25.03
24.02
22.80
21.76
21.10
20.85
20.79
20.67
20.28
19.55
18.58
17.55
16.61
15.80
15.03
14.06
12.63
10.53
7.71
4.30
0.57
-3.15
-6.59
-9.64
-12.34
-14.84
-17.33
-19.97
-22.90
-26.14
-29.59
-32.89
-35.40
-36.32
-34.84
-30.43
-23.02
-13.07
-1.43
10.92
23.08
34.39
44.43
52.98
59.96
65.33
69.15
71.56
72.81
73.20
73.03
72.52
71.75
70.61
68.87
66.30
62.71
58.09
52.59
46.43
39.87
33.05
26.00
18.68
11.06
3.22
-4.57
-11.95
-18.57
-24.27
-29.15
-33.48
-37.60
-41.76
-46.10
-50.75
-55.86
-61.55
-67.77
-74.06
-79.51
-82.93
-83.29
-80.08
-73.56
-64.67
-54.68
-44.78
-35.78
-28.03
-21.58
-16.35
-12.30
-9.44
-7.76
-7.10
-7.13
-7.39
-7.42
-6.91
-5.80
-4.28
-2.64
-1.11
0.21
1.47
2.84
4.44
6.17
7.74
8.77
9.01
8.42
7.24
5.81
4.37
2.92
1.23
-1.09
-4.34
-8.64
-13.75
-19.13
-23.98
-27.38
-28.52
-26.86
-22.33
-15.37
-6.81
2.34
11.14
18.92
25.26
30.01
33.13
34.64
34.69
33.61
31.88
30.05
28.64
27.93
27.93
28.43
29.03
29.35
29.12
28.21
26.67
24.70
22.52
20.33
18.29
16.41
14.70
13.14
11.72
10.42
9.12
7.60
5.61
2.97
-0.20
-3.49
-6.26
-7.88
-8.04
-6.98
-5.38
-4.07
-3.55
-3.58
-3.13
-0.74
5.00
14.95
29.26
47.30
67.81
88.79
107.58
121.01
126.01
120.50
104.27
79.30
49.30
18.63
-8.90
-30.92
-46.71
-56.79
-62.46
-65.33
-66.98
-68.88
-72.07
-76.95
-83.10
-89.42
-94.44
-96.87
-96.04
-92.05
-85.71
-78.22
-70.74
-64.12
-58.69
-54.39
-50.90
-47.89
-45.15
-42.59
-40.20
-37.96
-35.82
-33.72
-31.68
-29.79
-28.26
-27.25
-26.90
-27.28
-28.35
-29.95
-31.70
-32.98
-32.97
-30.83
-25.97
-18.27
-8.18
3.40
15.30
26.42
35.91
43.22
48.14
50.77
51.42
50.62
49.00
47.14
45.47
44.20
43.30
42.62
41.93
41.08
39.98
38.72
37.41
36.17
35.04
33.91
32.58
30.82
28.50
25.71
22.66
19.60
16.70
13.93
11.12
8.09
4.74
1.14
-2.56
-6.17
-9.54
-12.62
-15.41
-17.99
-20.56
-23.36
-26.64
-30.41
-34.38
-37.86
-39.91
-39.66
-36.56
-30.59
-22.29
-12.57
-2.45
7.13
15.45
22.07
26.79
29.58
30.56
29.98
28.23
25.80
23.17
20.80
18.92
17.54
16.48
15.50
14.44
13.30
12.22
11.35
10.68
10.04
9.09
7.51
5.17
2.12
-1.37
-4.97
-8.38
-11.38
-13.88
-15.88
-17.52
-19.08
-20.91
-23.31
-26.33
-29.62
-32.45
-33.87
-33.08
-29.66
-23.74
-15.90
-6.93
2.30
11.03
18.64
24.63
28.65
30.56
30.51
28.92
26.44
23.74
21.33
19.51
18.30
17.53
16.91
16.16
15.10
13.67
11.98
10.22
8.57
7.12
5.80
4.40
2.61
0.24
-2.76
-6.18
-9.63
-12.71
-15.11
-16.79
-17.94
-19.01
-20.49
-22.75
-25.86
-29.42
-32.66
-34.61
-34.44
-31.66
-26.31
-18.87
-10.12
-0.94
7.91
15.80
22.34
27.28
30.57
32.31
32.73
32.15
30.94
29.50
28.12
27.01
26.20
25.59
24.98
24.21
23.25
22.28
21.58
21.42
21.82
22.49
22.85
22.35
20.73
18.27
15.65
13.73
13.09
13.80
15.41
17.21
18.54
19.08
18.88
18.34
18.19
19.46
23.33
30.87
42.55
57.70
74.39
89.73
100.67
105.01
101.92
92.09
77.19
59.13
39.41
18.85
-2.28
-23.93
-45.95
-67.98
-89.42
-109.69
-128.31
-145.03
-159.70
-172.07
-181.59
-187.35
-188.43
-184.38
-175.67
-163.80
-150.79
-138.34
-127.19
-116.95
-106.59
-95.24
-82.93
-70.59
-59.64
-51.16
-45.33
-41.24
-37.30
-31.90
-23.95
-13.19
-0.10
14.36
29.17
43.41
56.45
67.84
77.28
84.55
89.54
92.33
93.23
92.75
91.44
89.79
88.09
86.43
84.72
82.76
80.34
77.34
73.78
69.85
65.83
61.99
58.43
55.09
51.77
48.29
44.56
40.61
36.50
32.25
27.84
23.38
19.23
16.07
14.73
15.84
19.48
25.18
32.09
39.46
46.92
54.49
62.35
70.43
78.25
85.02
89.90
92.27
91.84
88.53
82.32
73.21
61.21
46.52
29.51
10.72
-9.29
-30.08
-51.39
-73.06
-94.90
-116.35
-136.32
-153.12
-164.81
-169.75
-167.25
-157.97
-143.81
-127.36
-111.15
-97.03
-85.89
-77.82
-72.36
-68.91
-66.82
-65.52
-64.43
-63.10
-61.18
-58.55
-55.39
-52.18
-49.56
-48.11
-48.04
-48.88
-49.53
-48.51
-44.49
-36.83
-25.94
-13.06
0.10
12.10
22.12
30.11
36.47
41.68
45.95
49.19
51.17
51.75
51.09
49.58
47.75
46.09
44.87
44.17
43.87
43.79
43.70
43.38
42.65
41.41
39.65
37.40
34.77
31.87
28.78
25.56
22.28
19.01
15.81
12.70
9.62
6.47
3.22
-0.10
-3.39
-6.54
-9.53
-12.50
-15.73
-19.53
-24.04
-28.96
-33.60
-36.99
-38.20
-36.61
-32.15
-25.19
-16.47
-6.81
3.29
13.40
23.01
31.42
37.90
41.90
43.35
42.67
40.62
38.47
37.19
37.12
37.92
38.94
39.59
39.71
39.43
38.97
39.26
40.92
43.98
47.82
51.58
54.49
56.45
57.68
58.66
60.79
65.16
71.96
80.42
89.31
97.36
103.79
108.07
105.01
91.97
70.21
44.83
21.44
4.79
-6.08
-13.25
-18.39
-22.72
-25.60
-26.76
-26.75
-26.91
-28.60
-32.79
-40.51
-51.92
-66.15
-81.00
-94.58
-106.10
-115.92
-124.92
-133.89
-144.39
-157.03
-171.07
-184.38
-195.01
-202.02
-205.47
-205.91
-194.77
-168.79
-131.41
-90.94
-54.76
-26.37
-5.90
8.11
16.92
22.76
25.37
24.37
20.14
14.12
8.08
3.57
1.66
3.13
8.36
15.95
24.46
33.10
41.79
50.66
59.62
68.22
75.82
81.84
85.01
84.69
81.19
75.55
68.98
62.43
56.43
51.23
46.88
42.82
38.62
34.15
29.57
25.21
21.29
17.87
14.91
12.23
9.51
6.56
3.44
0.48
-1.94
-3.48
-4.07
-3.84
-3.19
-2.64
-2.66
-3.63
-5.71
-8.90
-12.96
-17.47
-21.70
-24.72
-25.57
-23.56
-18.52
-10.89
-1.68
7.94
16.89
24.53
30.59
35.07
38.00
39.32
38.95
36.93
33.55
29.43
25.32
21.86
19.37
17.73
16.48
15.07
13.13
10.65
7.88
5.23
2.95
1.09
-0.52
-2.14
-3.89
-5.72
-7.42
-8.76
-9.61
-10.06
-10.31
-10.62
-11.20
-12.20
-13.78
-16.10
-19.24
-23.01
-26.86
-29.86
-30.94
-29.34
-24.80
-17.76
-9.13
0.03
8.82
16.60
23.00
27.75
30.67
31.65
30.83
28.57
25.43
22.02
18.76
15.87
13.38
11.17
9.13
7.21
5.36
3.57
1.79
-0.08
-2.19
-4.65
-7.54
-10.78
-14.24
-17.68
-20.85
-23.51
-25.52
-26.84
-27.55
-27.83
-27.90
-27.91
-27.79
-27.21
-25.68
-22.69
-17.93
-11.42
-3.55
5.08
13.75
21.81
28.76
34.20
37.86
39.57
39.35
37.45
34.36
30.71
27.17
24.21
22.04
20.53
19.33
18.04
16.39
14.32
12.02
9.77
7.77
6.09
4.59
3.01
1.10
-1.31
-4.28
-7.73
-11.47
-15.23
-18.73
-21.75
-24.18
-26.14
-27.92
-29.88
-32.26
-34.98
-37.56
-39.25
-39.22
-36.87
-32.05
-25.07
-16.63
-7.65
0.98
8.58
14.68
19.04
21.64
22.63
22.34
21.27
20.03
19.18
19.12
19.91
21.29
22.78
23.88
24.20
23.60
22.11
19.96
17.40
14.69
12.00
9.45
7.01
4.60
2.09
-0.60
-3.44
-6.31
-9.02
-11.40
-13.35
-14.89
-16.15
-17.31
-18.57
-20.08
-21.90
-23.94
-25.96
-27.50
-27.98
-26.79
-23.55
-18.25
-11.31
-3.52
4.26
11.32
17.27
22.02
25.62
28.07
29.25
29.06
27.49
24.76
21.33
17.70
14.33
11.51
9.39
8.07
7.69
8.43
10.41
13.58
17.61
21.93
25.90
29.05
31.21
32.52
33.17
33.15
32.01
29.02
23.38
14.72
3.35
-9.74
-23.16
-35.60
-46.15
-54.50
-60.86
-65.63
-69.16
-71.50
-72.39
-71.43
-68.28
-62.87
-55.45
-46.55
-36.81
-26.82
-17.04
-7.83
0.51
7.63
13.25
17.18
19.45
20.34
20.35
20.06
19.98
20.40
21.33
22.53
23.62
24.33
24.51
24.21
23.59
22.76
21.70
20.24
18.23
15.59
12.41
8.99
5.66
2.73
0.35
-1.47
-2.79
-3.66
-4.15
-4.32
-4.32
-4.39
-4.78
-5.58
-6.60
-7.31
-7.00
-5.02
-1.06
4.73
11.75
19.18
26.25
32.39
37.27
40.68
42.42
42.28
40.13
36.12
30.79
24.95
19.53
15.15
12.00
9.80
8.02
6.20
4.09
1.75
-0.64
-2.91
-4.98
-6.85
-8.53
-9.96
-11.01
-11.54
-11.48
-10.83
-9.76
-8.52
-7.48
-6.99
-7.33
-8.57
-10.65
-13.29
-16.15
-18.82
-20.90
-21.99
-21.77
-20.04
-16.82
-12.36
-7.13
-1.70
3.36
7.58
10.65
12.44
13.03
12.71
11.92
11.22
11.09
11.84
13.54
15.98
18.82
21.57
23.70
24.62
23.76
20.71
15.46
8.62
1.31
-5.03
-9.22
-10.74
-9.93
-7.82
-5.67
-4.45
-4.60
-6.00
-8.22
-10.80
-13.36
-15.68
-17.60
-19.01
-19.88
-20.32
-20.57
-20.90
-21.42
-22.02
-22.34
-21.89
-20.21
-17.09
-12.59
-7.07
-1.18
4.31
8.56
10.84
10.67
7.97
3.20
-2.72
-8.56
-13.14
-15.67
-16.01
-14.60
-12.22
-9.68
-7.51
-5.83
-4.50
-3.34
-2.23
-1.27
-0.67
-0.59
-1.09
-2.07
-3.34
-4.73
-6.07
-7.32
-8.43
-9.43
-10.35
-11.24
-12.18
-13.29
-14.62
-16.13
-17.57
-18.47
-18.27
-16.45
-12.77
-7.26
-0.32
7.50
15.56
23.28
30.06
35.40
38.88
40.26
39.60
37.26
33.89
30.22
26.90
24.37
22.76
21.95
21.66
21.55
21.37
20.98
20.35
19.52
18.52
17.32
15.81
13.90
11.52
8.71
5.53
2.10
-1.49
-5.16
-8.82
-12.37
-15.69
-18.73
-21.52
-24.23
-27.07
-30.24
-33.71
-37.18
-40.04
-41.51
-40.91
-37.81
-32.23
-24.60
-15.64
-6.13
3.15
11.57
18.61
23.91
27.25
28.63
28.27
26.61
24.18
21.51
19.01
16.97
15.47
14.49
13.91
13.52
13.11
12.48
11.51
10.16
8.50
6.66
4.74
2.82
0.82
-1.35
-3.83
-6.66
-9.77
-13.01
-16.21
-19.26
-22.17
-24.97
-27.74
-30.55
-33.49
-36.59
-39.81
-42.90
-45.30
-46.29
-45.13
-41.35
-34.94
-26.38
-16.48
-6.15
3.79
12.71
20.21
26.03
30.04
32.28
32.94
32.41
31.14
29.58
28.02
26.59
25.24
23.86
22.41
20.96
19.64
18.56
17.69
16.81
15.63
13.91
11.63
8.94
6.10
3.30
0.56
-2.25
-5.33
-8.79
-12.57
-16.51
-20.36
-23.90
-26.99
-29.65
-31.98
-34.19
-36.52
-39.20
-42.33
-45.78
-49.08
-51.50
-52.18
-50.39
-45.78
-38.47
-29.08
-18.50
-7.70
2.49
11.40
18.58
23.76
26.85
27.98
27.53
26.05
24.14
22.27
20.67
19.39
18.34
17.39
16.46
15.52
14.51
13.40
12.14
10.73
9.23
7.76
6.42
5.20
4.04
2.78
1.32
-0.33
-2.01
-3.53
-4.75
-5.71
-6.59
-7.64
-9.01
-10.66
-12.39
-14.00
-15.38
-16.64
-17.90
-19.15
-20.03
-19.92
-18.25
-14.80
-9.88
-4.31
1.01
5.39
8.59
10.74
12.08
12.69
12.45
11.16
8.85
5.84
2.76
0.30
-1.10
-1.35
-0.71
0.35
1.33
1.83
1.66
0.79
-0.65
-2.50
-4.64
-7.03
-9.72
-12.76
-16.13
-19.66
-23.08
-26.07
-28.36
-29.83
-30.53
-30.65
-30.44
-30.15
-29.87
-29.53
-28.79
-27.25
-24.54
-20.58
-15.56
-9.93
-4.11
1.59
7.13
12.54
17.80
22.64
26.62
29.27
30.33
29.91
28.37
26.19
23.69
21.03
18.18
15.12
11.94
8.84
6.03
3.62
1.55
-0.39
-2.42
-4.67
-7.11
-9.60
-12.04
-14.39
-16.72
-19.17
-21.80
-24.54
-27.23
-29.61
-31.37
-32.10
-31.40
-28.91
-24.47
-18.22
-10.62
-2.32
6.06
14.06
21.40
27.92
33.44
37.70
40.44
41.54
41.10
39.39
36.78
33.61
30.12
26.57
23.24
20.46
18.50
17.52
17.38
17.72
18.04
17.81
16.70
14.60
11.62
8.01
4.05
-0.02
-4.07
-7.99
-11.77
-15.41
-18.99
-22.54
-26.00
-29.10
-31.33
-32.09
-30.85
-27.39
-21.88
-14.83
-6.94
1.07
8.63
15.30
20.79
24.90
27.51
28.63
28.41
27.18
25.39
23.49
21.84
20.56
19.55
18.51
17.19
15.45
13.40
11.25
9.20
7.28
5.31
3.05
0.34
-2.76
-5.99
-9.05
-11.71
-13.96
-15.98
-18.01
-20.28
-22.91
-25.83
-28.78
-31.26
-32.62
-32.18
-29.48
-24.45
-17.49
-9.35
-0.89
7.15
14.28
20.30
25.13
28.66
30.76
31.30
30.32
28.11
25.18
22.12
19.42
17.35
15.87
14.78
13.81
12.79
11.63
10.33
8.87
7.18
5.12
2.58
-0.44
-3.79
-7.21
-10.41
-13.17
-15.40
-17.16
-18.64
-20.10
-21.75
-23.69
-25.71
-27.30
-27.78
-26.47
-22.99
-17.47
-10.48
-2.86
4.56
11.20
16.75
21.06
24.02
25.48
25.37
23.78
21.08
17.89
14.84
12.40
10.77
9.82
9.22
8.65
7.86
6.78
5.41
3.82
2.05
0.08
-2.07
-4.42
-6.95
-9.66
-12.53
-15.58
-18.81
-22.12
-25.33
-28.09
-29.92
-30.31
-28.86
-25.43
-20.23
-13.73
-6.56
0.69
7.58
13.85
19.38
23.99
27.48
29.61
30.24
29.48
27.65
25.18
22.48
19.77
17.14
14.55
12.04
9.70
7.72
6.20
5.13
4.29
3.35
1.97
-0.08
-2.81
-6.08
-9.61
-13.07
-16.22
-18.90
-21.12
-23.08
-25.08
-27.34
-29.85
-32.21
-33.71
-33.54
-31.09
-26.22
-19.28
-10.97
-2.11
6.53
14.32
20.75
25.37
27.87
28.17
26.58
23.73
20.44
17.45
15.19
13.70
12.71
11.81
10.69
9.23
7.55
5.82
4.18
2.58
0.83
-1.33
-4.00
-7.07
-10.19
-12.96
-15.11
-16.54
-17.40
-17.94
-18.50
-19.33
-20.60
-22.30
-24.17
-25.64
-25.93
-24.29
-20.24
-13.75
-5.38
3.97
13.24
21.50
28.10
32.68
35.18
35.72
34.61
32.27
29.24
26.06
23.18
20.81
18.97
17.42
15.90
14.18
12.26
10.32
8.65
7.48
6.82
6.43
5.85
4.59
2.31
-1.03
-5.12
-9.48
-13.59
-17.12
-20.04
-22.52
-24.89
-27.41
-30.14
-32.87
-35.16
-36.42
-36.06
-33.71
-29.25
-22.91
-15.17
-6.66
1.96
10.06
17.13
22.74
26.59
28.57
28.82
27.73
25.86
23.82
22.06
20.79
19.91
19.12
18.02
16.29
13.80
10.70
7.34
4.11
1.32
-1.00
-3.10
-5.43
-8.46
-12.50
-17.58
-23.35
-29.18
-34.27
-37.78
-39.07
-37.88
-34.47
-29.58
-24.27
-19.57
-16.12
-14.01
-12.76
-11.59
-9.71
-6.58
-2.01
3.82
10.47
17.27
23.43
28.17
30.82
31.08
29.09
25.48
21.16
17.04
13.80
11.70
10.60
10.07
9.64
8.92
7.76
6.21
4.46
2.71
1.07
-0.48
-2.11
-3.98
-6.22
-8.84
-11.79
-14.94
-18.18
-21.46
-24.75
-28.09
-31.49
-34.86
-37.88
-39.92
-40.15
-37.70
-32.10
-23.54
-12.91
-1.61
8.89
17.51
23.77
27.76
29.86
30.44
29.81
28.19
25.93
23.51
21.49
20.32
20.12
20.62
21.30
21.62
21.27
20.26
18.88
17.48
16.25
15.09
13.74
11.94
9.64
7.07
4.61
2.57
0.97
-0.39
-1.90
-3.82
-6.21
-8.94
-11.75
-14.43
-16.82
-18.73
-19.82
-19.62
-17.62
-13.56
-7.57
-0.24
7.52
14.77
20.75
25.03
27.55
28.45
27.96
26.36
23.89
20.82
17.43
14.04
10.88
8.12
5.86
4.06
2.64
1.51
0.53
-0.43
-1.53
-2.94
-4.80
-7.13
-9.81
-12.58
-15.13
-17.23
-18.86
-20.24
-21.75
-23.72
-26.18
-28.76
-30.70
-31.18
-29.57
-25.75
-20.11
-13.41
-6.49
-0.03
5.58
10.25
14.04
17.04
19.27
20.73
21.45
21.45
20.79
19.48
17.48
14.69
11.05
6.69
1.99
-2.43
-5.85
-7.66
-7.65
-6.13
-3.86
-1.87
-1.12
-2.23
-5.34
-10.08
-15.80
-21.70
-26.97
-30.92
-33.03
-32.98
-30.73
-26.55
-20.98
-14.69
-8.39
-2.62
2.27
6.17
9.08
11.06
12.12
12.23
11.41
9.69
7.27
4.44
1.57
-0.94
-2.84
-4.02
-4.55
-4.60
-4.38
-4.04
-3.62
-3.12
-2.57
-2.06
-1.79
-2.02
-2.98
-4.79
-7.43
-10.68
-14.12
-17.18
-19.22
-19.66
-18.15
-14.63
-9.38
-2.90
4.17
11.17
17.56
22.89
26.83
29.20
29.94
29.19
27.25
24.51
21.45
18.50
15.98
14.04
12.62
11.50
10.40
9.06
7.36
5.30
2.98
0.51
-2.04
-4.70
-7.48
-10.36
-13.26
-16.12
-18.95
-21.74
-24.39
-26.63
-27.92
-27.67
-25.40
-21.02
-14.89
-7.69
-0.23
6.83
13.07
18.24
22.23
24.90
26.15
25.98
24.56
22.25
19.52
16.84
14.51
12.68
11.26
10.05
8.81
7.37
5.68
3.79
1.84
-0.07
-1.91
-3.73
-5.63
-7.66
-9.80
-12.00
-14.22
-16.47
-18.75
-20.95
-22.75
-23.61
-22.91
-20.28
-15.73
-9.81
-3.37
2.69
7.71
11.37
13.66
14.65
14.45
13.15
10.89
7.97
4.82
1.87
-0.54
-2.30
-3.52
-4.38
-5.02
-5.46
-5.55
-5.16
-4.23
-2.98
-1.87
-1.47
-2.23
-4.33
-7.60
-11.61
-15.93
-20.30
-24.70
-29.25
-34.02
-38.85
-43.29
-46.63
-48.04
-46.71
-42.09
-33.96
-22.60
-8.77
6.36
21.39
34.92
45.80
53.29
57.19
57.84
55.94
52.45
48.28
44.10
40.29
36.91
33.88
31.06
28.39
25.91
23.69
21.82
20.35
19.30
18.64
18.27
18.02
17.68
17.04
15.96
14.39
12.37
9.93
7.11
3.93
0.47
-3.06
-6.39
-9.22
-11.35
-12.79
-13.71
-14.47
-15.40
-16.79
-18.80
-21.47
-24.63
-27.88
-30.55
-31.82
-30.94
-27.49
-21.51
-13.53
-4.42
4.84
13.45
20.82
26.66
30.84
33.41
34.48
34.28
33.07
31.14
28.74
26.11
23.41
20.79
18.34
16.11
14.11
12.34
10.77
9.34
7.95
6.46
4.74
2.71
0.36
-2.16
-4.68
-7.00
-9.00
-10.67
-12.06
-13.27
-14.38
-15.47
-16.63
-18.00
-19.68
-21.74
-24.13
-26.74
-29.48
-32.27
-35.03
-37.55
-39.43
-40.09
-38.87
-35.36
-29.52
-21.82
-13.03
-4.09
4.20
11.26
16.78
20.65
22.90
23.67
23.18
21.77
19.84
17.86
16.21
15.15
14.74
14.82
15.13
15.38
15.35
14.96
14.24
13.27
12.10
10.68
8.90
6.65
3.92
0.83
-2.39
-5.51
-8.35
-10.94
-13.44
-16.05
-18.87
-21.82
-24.72
-27.39
-29.75
-31.78
-33.45
-34.52
-34.59
-33.12
-29.75
-24.39
-17.36
-9.28
-0.89
7.09
14.14
19.87
24.07
26.65
27.63
27.18
25.60
23.28
20.67
18.16
16.04
14.46
13.39
12.67
12.09
11.47
10.67
9.65
8.45
7.12
5.66
4.05
2.21
0.05
-2.43
-5.18
-8.08
-11.00
-13.84
-16.57
-19.25
-21.95
-24.72
-27.54
-30.19
-32.31
-33.40
-32.98
-30.70
-26.48
-20.55
-13.37
-5.49
2.50
10.07
16.76
22.12
25.82
27.67
27.75
26.40
24.14
21.56
19.14
17.15
15.69
14.66
13.88
13.17
12.36
11.35
10.08
8.59
6.95
5.20
3.37
1.40
-0.77
-3.17
-5.76
-8.43
-11.07
-13.65
-16.21
-18.88
-21.75
-24.85
-28.03
-31.00
-33.32
-34.50
-34.02
-31.50
-26.79
-20.10
-12.01
-3.34
5.01
12.28
18.01
21.98
24.20
24.83
24.10
22.36
20.04
17.60
15.46
13.85
12.78
12.09
11.51
10.84
9.95
8.86
7.64
6.38
5.08
3.66
2.01
-0.03
-2.47
-5.22
-8.07
-10.75
-13.11
-15.14
-16.98
-18.86
-20.98
-23.42
-26.13
-28.95
-31.58
-33.61
-34.51
-33.73
-30.87
-25.79
-18.75
-10.40
-1.61
6.72
13.87
19.41
23.19
25.28
25.89
25.27
23.71
21.55
19.19
17.07
15.57
14.91
15.06
15.77
16.65
17.34
17.64
17.54
17.21
16.85
16.64
16.59
16.58
16.35
15.64
14.27
12.21
9.57
6.59
3.49
0.47
-2.40
-5.17
-8.07
-11.40
-15.51
-20.59
-26.52
-32.81
-38.65
-43.13
-45.49
-45.32
-42.52
-37.33
-30.18
-21.68
-12.59
-3.77
3.94
9.91
13.90
16.09
17.02
17.30
17.45
17.72
18.18
18.74
19.34
19.93
20.58
21.28
21.92
22.29
22.09
21.16
19.50
17.33
15.00
12.82
11.03
9.72
8.89
8.46
8.26
8.00
7.31
5.76
3.10
-0.69
-5.36
-10.48
-15.62
-20.45
-24.78
-28.38
-30.96
-32.08
-31.32
-28.41
-23.48
-17.00
-9.74
-2.48
4.10
9.58
13.76
16.60
18.10
18.29
17.30
15.36
12.84
10.19
7.84
6.08
4.95
4.33
3.97
3.64
3.21
2.67
2.06
1.44
0.77
-0.00
-0.95
-2.13
-3.52
-5.09
-6.84
-8.79
-10.98
-13.40
-15.97
-18.50
-20.80
-22.68
-24.11
-25.15
-26.01
-26.93
-28.12
-29.56
-30.99
-31.88
-31.52
-29.34
-25.08
-18.95
-11.56
-3.69
3.96
10.98
17.17
22.43
26.58
29.36
30.53
30.03
28.10
25.23
22.01
18.92
16.24
14.04
12.25
10.79
9.59
8.61
7.80
7.09
6.42
5.75
5.08
4.50
4.06
3.76
3.47
2.96
1.96
0.32
-1.89
-4.44
-7.10
-9.81
-12.81
-16.53
-21.29
-26.97
-32.87
-37.81
-40.56
-40.23
-36.63
-30.28
-22.18
-13.56
-5.55
0.91
5.20
7.12
6.93
5.31
3.26
1.75
1.40
2.27
3.94
5.80
7.45
8.86
10.36
12.57
16.05
21.14
27.75
35.28
42.64
48.49
51.39
50.18
44.36
34.33
21.43
7.58
-5.15
-15.04
-21.00
-22.96
-21.82
-19.07
-16.17
-14.15
-13.30
-13.31
-13.54
-13.10
-11.54
-8.82
-5.11
-0.46
5.33
12.42
20.59
29.04
36.73
42.39
44.93
43.96
39.95
33.93
26.89
19.36
10.23
0.00
-9.27
-15.20
-16.74
-14.81
-11.38
-8.38
-7.17
-8.21
-11.02
-14.56
-17.85
-20.32
-21.82
-22.45
-22.40
-21.87
-20.95
-19.54
-17.69
-15.72
-14.00
-12.68
-11.59
-10.37
-8.73
-6.54
-3.82
-0.97
1.31
2.21
1.22
-1.59
-5.43
-8.99
-10.76
-9.51
-4.75
3.06
12.75
22.90
32.33
40.26
46.33
50.40
52.45
52.44
50.37
46.32
40.51
33.29
25.12
16.46
7.84
-0.19
-7.09
-12.41
-15.90
-17.58
-17.70
-16.70
-15.08
-13.30
-11.72
-10.60
-10.13
-10.44
-11.56
-13.46
-16.03
-19.08
-22.43
-25.88
-29.31
-32.64
-35.85
-38.93
-41.84
-44.55
-46.92
-48.78
-49.80
-49.52
-47.34
-42.68
-35.19
-24.97
-12.66
0.64
13.64
25.16
34.38
40.93
44.75
45.98
44.85
41.69
37.00
31.44
25.76
20.65
16.54
13.57
11.57
10.23
9.25
8.37
7.48
6.58
5.72
4.97
4.33
3.71
2.92
1.75
0.03
-2.32
-5.21
-8.45
-11.77
-14.90
-17.58
-19.60
-20.91
-21.58
-21.90
-22.22
-22.82
-23.70
-24.54
-24.75
-23.71
-21.00
-16.54
-10.56
-3.56
3.88
11.10
17.53
22.66
26.16
27.92
28.11
27.05
25.17
22.88
20.54
18.42
16.75
15.64
15.02
14.67
14.27
13.50
12.23
10.54
8.62
6.68
4.83
3.04
1.20
-0.73
-2.73
-4.71
-6.53
-8.12
-9.51
-10.94
-12.75
-15.37
-19.08
-23.78
-28.83
-33.08
-35.22
-34.18
-29.64
-22.13
-12.84
-3.20
5.64
13.04
18.81
22.98
25.61
26.66
26.11
24.18
21.29
18.05
14.98
12.39
10.23
8.23
6.08
3.64
1.03
-1.44
-3.47
-4.94
-6.03
-7.10
-8.54
-10.61
-13.30
-16.36
-19.45
-22.25
-24.59
-26.45
-27.92
-29.17
-30.40
-31.82
-33.55
-35.53
-37.38
-38.41
-37.81
-34.88
-29.33
-21.43
-12.01
-2.13
7.17
15.16
21.51
26.17
29.21
30.73
30.86
29.82
27.98
25.81
23.77
22.11
20.84
19.76
18.63
17.31
15.87
14.50
13.43
12.71
12.20
11.57
10.47
8.67
6.13
3.01
-0.43
-3.92
-7.27
-10.36
-13.14
-15.64
-17.95
-20.21
-22.50
-24.75
-26.59
-27.42
-26.52
-23.33
-17.73
-10.16
-1.50
7.21
15.00
21.28
25.77
28.49
29.57
29.20
27.61
25.10
22.10
19.09
16.47
14.52
13.26
12.49
11.88
11.14
10.06
8.60
6.82
4.80
2.57
0.09
-2.70
-5.79
-9.04
-12.22
-15.13
-17.62
-19.70
-21.55
-23.40
-25.48
-27.80
-30.11
-31.87
-32.39
-31.01
-27.36
-21.49
-13.85
-5.18
3.73
12.17
19.60
25.63
29.98
32.44
32.93
31.57
28.76
25.07
21.15
17.56
14.60
12.30
10.44
8.73
6.97
5.07
3.13
1.31
-0.30
-1.68
-2.93
-4.17
-5.46
-6.83
-8.26
-9.73
-11.22
-12.73
-14.22
-15.72
-17.28
-19.03
-21.13
-23.66
-26.50
-29.22
-31.11
-31.39
-29.39
-24.79
-17.79
-8.99
0.72
10.39
19.25
26.77
32.65
36.76
39.04
39.53
38.33
35.72
32.10
27.89
23.48
19.05
14.65
10.19
5.59
0.94
-3.51
-7.37
-10.31
-12.12
-12.91
-13.05
-13.10
-13.58
-14.84
-16.95
-19.74
-22.88
-26.03
-28.98
-31.65
-34.05
-36.19
-38.00
-39.33
-40.05
-40.13
-39.72
-39.04
-38.14
-36.78
-34.39
-30.27
-23.91
-15.30
-5.00
6.01
16.69
26.20
34.08
40.17
44.47
47.02
47.91
47.35
45.69
43.39
40.90
38.54
36.45
34.63
33.03
31.63
30.40
29.29
28.20
26.98
25.49
23.66
21.49
19.02
16.33
13.51
10.61
7.68
4.78
1.92
-0.96
-3.93
-7.04
-10.31
-13.64
-16.89
-19.90
-22.59
-25.02
-27.35
-29.76
-32.29
-34.71
-36.42
-36.65
-34.67
-30.08
-23.00
-14.08
-4.32
5.25
13.76
20.65
25.64
28.71
29.99
29.74
28.34
26.26
23.95
21.76
19.92
18.52
17.50
16.80
16.30
15.88
15.45
14.91
14.23
13.43
12.49
11.40
10.08
8.43
6.40
3.97
1.19
-1.85
-5.03
-8.25
-11.35
-14.22
-16.75
-18.95
-20.92
-22.82
-24.83
-27.12
-29.71
-32.50
-35.17
-37.22
-37.95
-36.66
-32.87
-26.48
-17.88
-7.95
2.25
11.68
19.55
25.44
29.21
30.98
30.98
29.56
27.15
24.21
21.21
18.55
16.47
15.05
14.18
13.65
13.20
12.61
11.76
10.65
9.32
7.86
6.27
4.50
2.45
0.02
-2.81
-5.93
-9.17
-12.33
-15.25
-17.87
-20.17
-22.18
-23.94
-25.61
-27.37
-29.43
-31.80
-34.18
-35.88
-36.02
-33.80
-28.84
-21.39
-12.24
-2.44
6.98
15.28
22.01
26.97
30.07
31.30
30.78
28.78
25.84
22.57
19.59
17.29
15.81
15.00
14.59
14.30
13.95
13.45
12.73
11.73
10.39
8.65
6.56
4.28
1.95
-0.36
-2.69
-5.23
-8.09
-11.25
-14.51
-17.61
-20.32
-22.56
-24.43
-26.05
-27.50
-28.86
-30.17
-31.57
-33.14
-34.85
-36.30
-36.79
-35.46
-31.63
-25.13
-16.40
-6.40
3.71
12.90
20.47
26.16
29.97
32.14
32.92
32.56
31.31
29.42
27.17
24.87
22.82
21.22
20.14
19.50
19.09
18.62
17.83
16.60
14.90
12.84
10.56
8.16
5.69
3.11
0.40
-2.46
-5.42
-8.45
-11.49
-14.55
-17.61
-20.57
-23.23
-25.32
-26.63
-27.16
-27.18
-27.15
-27.43
-28.06
-28.65
-28.39
-26.47
-22.33
-15.92
-7.63
1.79
11.54
20.90
29.27
36.16
41.13
43.90
44.42
42.95
40.10
36.68
33.45
30.92
29.16
27.81
26.27
23.93
20.36
15.45
9.33
2.35
-5.03
-12.33
-19.05
-24.78
-29.28
-32.50
-34.52
-35.54
-35.75
-35.31
-34.46
-33.54
-32.97
-33.19
-34.47
-36.86
-40.18
-44.07
-48.07
-51.53
-53.69
-53.68
-50.80
-44.75
-35.79
-24.79
-12.91
-1.32
9.10
17.89
24.89
30.14
33.70
35.70
36.37
36.08
35.27
34.37
33.62
33.07
32.59
32.01
31.26
30.35
29.38
28.43
27.43
26.21
24.56
22.32
19.52
16.32
12.92
9.51
6.12
2.70
-0.84
-4.58
-8.50
-12.56
-16.73
-21.03
-25.44
-29.83
-33.79
-36.62
-37.51
-35.82
-31.30
-24.25
-15.42
-5.78
3.72
12.32
19.52
25.00
28.56
30.17
29.95
28.28
25.70
22.80
20.12
17.93
16.32
15.18
14.29
13.46
12.55
11.48
10.17
8.54
6.46
3.82
0.60
-3.18
-7.35
-11.67
-15.86
-19.63
-22.76
-25.16
-26.90
-28.28
-29.73
-31.67
-34.27
-37.30
-40.07
-41.58
-40.86
-37.31
-30.94
-22.32
-12.46
-2.45
6.79
14.71
21.05
25.79
28.95
30.61
30.87
29.93
28.14
25.91
23.68
21.74
20.16
18.85
17.59
16.24
14.78
13.30
12.01
10.97
10.11
9.14
7.69
5.43
2.27
-1.60
-5.76
-9.70
-13.03
-15.62
-17.58
-19.27
-21.09
-23.30
-25.93
-28.64
-30.82
-31.65
-30.37
-26.50
-19.98
-11.22
-0.98
9.85
20.39
29.93
38.00
44.27
48.56
50.79
51.02
49.42
46.35
42.28
37.73
33.21
29.07
25.53
22.64
20.38
18.65
17.34
16.28
15.20
13.80
11.78
9.03
5.63
1.85
-1.95
-5.46
-8.52
-11.15
-13.55
-16.02
-18.89
-22.41
-26.70
-31.64
-36.90
-41.97
-46.27
-49.33
-50.85
-50.84
-49.59
-47.56
-45.30
-43.24
-41.59
-40.23
-38.71
-36.40
-32.67
-27.09
-19.58
-10.42
-0.26
10.07
19.67
27.79
33.94
37.91
39.80
39.89
38.58
36.25
33.26
29.92
26.51
23.30
20.49
18.17
16.26
14.57
12.84
10.85
8.49
5.78
2.84
-0.19
-3.18
-6.06
-8.76
-11.19
-13.26
-14.82
-15.88
-16.58
-17.23
-18.22
-19.78
-21.78
-23.67
-24.62
-23.79
-20.69
-15.30
-8.20
-0.31
7.38
14.05
19.25
22.85
24.98
25.86
25.69
24.67
22.98
20.84
18.52
16.25
14.24
12.54
11.09
9.72
8.29
6.65
4.73
2.53
0.06
-2.63
-5.51
-8.51
-11.54
-14.47
-17.17
-19.52
-21.52
-23.33
-25.16
-27.17
-29.29
-31.06
-31.73
-30.50
-26.80
-20.58
-12.33
-3.02
6.23
14.37
20.67
24.73
26.56
26.43
24.84
22.42
19.77
17.34
15.37
13.89
12.76
11.77
10.73
9.57
8.31
7.04
5.89
4.91
4.05
3.11
1.85
0.03
-2.43
-5.43
-8.75
-12.07
-15.18
-18.01
-20.68
-23.38
-26.29
-29.46
-32.64
-35.33
-36.79
-36.28
-33.22
-27.49
-19.43
-9.85
0.23
9.78
18.01
24.42
28.80
31.20
31.82
30.99
29.15
26.75
24.22
21.86
19.80
18.03
16.42
14.88
13.33
11.80
10.32
8.88
7.44
5.87
3.99
1.70
-1.02
-4.04
-7.13
-10.05
-12.61
-14.78
-16.67
-18.50
-20.57
-23.05
-25.94
-28.92
-31.37
-32.47
-31.47
-27.92
-21.83
-13.72
-4.48
4.84
13.30
20.23
25.20
28.08
28.91
27.90
25.41
21.93
18.01
14.19
10.92
8.45
6.83
5.94
5.53
5.33
5.15
4.87
4.46
3.88
3.12
2.14
0.96
-0.35
-1.63
-2.75
-3.65
-4.45
-5.41
-6.93
-9.32
-12.75
-17.07
-21.78
-26.07
-29.04
-29.86
-28.05
-23.57
-16.81
-8.50
0.52
9.45
17.59
24.40
29.46
32.48
33.35
32.22
29.49
25.79
21.83
18.24
15.38
13.35
11.95
10.88
9.81
8.52
6.94
5.12
3.14
1.03
-1.24
-3.83
-6.95
-10.74
-15.12
-19.65
-23.53
-25.81
-25.71
-22.96
-18.04
-12.04
-6.40
-2.46
-1.14
-2.81
-7.19
-13.42
-20.08
-25.39
-27.63
-25.62
-19.21
-9.48
1.67
12.11
20.29
25.61
28.36
29.28
29.00
27.85
25.88
23.23
20.35
17.96
16.71
16.76
17.64
18.43
18.30
17.00
15.07
13.62
13.81
16.25
20.79
26.63
32.71
38.10
42.15
44.54
45.06
43.60
40.12
34.79
28.03
20.45
12.69
5.22
-1.75
-8.24
-14.45
-20.63
-27.02
-33.86
-41.30
-49.27
-57.29
-64.37
-69.19
-70.40
-67.15
-59.40
-48.10
-34.88
-21.57
-9.71
-0.26
6.50
10.78
13.05
13.80
13.51
12.58
11.36
10.15
9.24
8.92
9.39
10.71
12.72
15.01
17.07
18.40
18.74
18.09
16.72
14.91
12.87
10.61
7.97
4.79
0.95
-3.49
-8.38
-13.44
-18.37
-22.86
-26.62
-29.50
-31.51
-32.86
-33.92
-35.12
-36.84
-39.15
-41.73
-43.88
-44.72
-43.44
-39.58
-33.23
-24.99
-15.79
-6.62
1.71
8.64
13.87
17.33
19.07
19.32
18.45
16.95
15.33
13.98
13.07
12.59
12.38
12.21
11.90
11.33
10.51
9.50
8.41
7.29
6.07
4.58
2.58
-0.12
-3.52
-7.37
-11.26
-14.73
-17.59
-19.97
-22.41
-25.62
-30.16
-36.13
-42.91
-49.24
-53.55
-54.40
-50.93
-43.15
-31.93
-18.70
-5.11
7.37
17.74
25.50
30.64
33.49
34.58
34.50
33.75
32.71
31.56
30.29
28.76
26.78
24.22
21.08
17.49
13.75
10.22
7.31
5.37
4.56
4.79
5.63
6.44
6.51
5.36
2.97
-0.22
-3.51
-6.29
-8.27
-9.67
-10.98
-12.70
-15.06
-17.82
-20.36
-21.86
-21.49
-18.67
-13.23
-5.52
3.68
13.26
22.06
29.26
34.53
38.11
40.58
42.53
44.22
45.56
46.13
45.55
43.66
40.62
36.84
32.74
28.60
24.52
20.48
16.44
12.47
8.68
5.25
2.27
-0.28
-2.55
-4.79
-7.25
-10.05
-13.12
-16.20
-18.90
-20.86
-21.96
-22.39
-22.64
-23.32
-25.00
-27.90
-31.81
-36.04
-39.53
-41.09
-39.78
-35.22
-27.85
-18.90
-10.18
-3.65
-0.81
-2.16
-6.81
-12.66
-17.00
-17.55
-13.34
-5.15
4.83
13.91
19.97
22.20
21.16
18.21
14.80
11.83
9.64
8.17
7.36
7.23
7.86
9.11
10.54
11.50
11.36
9.85
7.18
3.94
0.88
-1.48
-3.04
-4.18
-5.58
-7.93
-11.55
-16.21
-21.04
-24.79
-26.21
-24.47
-19.49
-11.95
-3.08
5.74
13.39
19.25
23.23
25.55
26.54
26.41
25.29
23.23
20.37
17.03
13.66
10.71
8.52
7.17
6.48
6.12
5.71
4.99
3.82
2.14
-0.05
-2.74
-5.89
-9.37
-12.96
-16.37
-19.30
-21.58
-23.28
-24.62
-25.91
-27.32
-28.68
-29.52
-29.14
-26.87
-22.37
-15.78
-7.69
0.99
9.29
16.43
21.90
25.53
27.39
27.74
26.89
25.12
22.71
19.90
16.93
14.04
11.50
9.51
8.15
7.32
6.74
6.04
4.89
3.15
0.89
-1.70
-4.35
-6.90
-9.28
-11.53
-13.69
-15.89
-18.21
-20.77
-23.63
-26.68
-29.53
-31.56
-32.01
-30.27
-26.06
-19.60
-11.51
-2.64
6.10
13.95
20.38
25.05
27.82
28.78
28.14
26.26
23.55
20.47
17.40
14.64
12.33
10.49
8.99
7.63
6.18
4.50
2.51
0.27
-2.10
-4.46
-6.71
-8.82
-10.80
-12.70
-14.60
-16.56
-18.61
-20.77
-22.98
-25.02
-26.54
-26.99
-25.76
-22.42
-16.83
-9.32
-0.63
8.29
16.51
23.29
28.23
31.23
32.40
31.99
30.36
27.90
25.02
22.09
19.35
16.95
14.90
13.16
11.67
10.40
9.26
8.11
6.78
5.06
2.83
0.06
-3.17
-6.67
-10.25
-13.70
-16.88
-19.71
-22.20
-24.45
-26.68
-29.13
-31.89
-34.72
-37.00
-37.80
-36.19
-31.67
-24.37
-15.11
-5.11
4.40
12.50
18.71
22.92
25.24
25.80
24.82
22.59
19.54
16.17
12.89
9.97
7.46
5.35
3.61
2.37
1.82
2.10
3.16
4.61
5.83
6.17
5.14
2.61
-1.17
-5.73
-10.54
-15.17
-19.41
-23.15
-26.37
-28.95
-30.64
-31.09
-29.92
-26.83
-21.82
-15.16
-7.48
0.41
7.69
13.71
18.15
21.01
22.54
23.13
23.17
22.98
22.67
22.21
21.42
20.10
18.14
15.60
12.74
9.92
7.48
5.62
4.32
3.42
2.70
1.95
0.98
-0.37
-2.22
-4.67
-7.72
-11.20
-14.87
-18.44
-21.72
-24.61
-27.04
-28.87
-29.78
-29.33
-27.06
-22.74
-16.47
-8.71
-0.17
8.37
16.20
22.75
27.59
30.45
31.26
30.17
27.59
24.13
20.49
17.27
14.83
13.23
12.26
11.60
10.94
10.07
8.88
7.32
5.41
3.19
0.74
-1.86
-4.47
-6.99
-9.34
-11.48
-13.45
-15.31
-17.17
-19.17
-21.47
-24.16
-27.11
-29.89
-31.80
-32.00
-29.80
-24.95
-17.77
-9.02
0.31
9.29
17.24
23.72
28.48
31.34
32.25
31.31
28.92
25.65
22.20
19.13
16.76
15.12
14.03
13.24
12.54
11.85
11.20
10.63
10.18
9.74
9.12
8.04
6.23
3.48
-0.28
-4.92
-10.16
-15.54
-20.51
-24.58
-27.42
-28.96
-29.48
-29.44
-29.29
-29.19
-28.87
-27.72
-24.98
-20.12
-13.10
-4.46
4.83
13.67
21.15
26.76
30.37
32.20
32.59
31.92
30.52
28.63
26.46
24.15
21.82
19.56
17.43
15.47
13.67
12.04
10.60
9.33
8.20
7.07
5.78
4.10
1.85
-1.05
-4.52
-8.34
-12.19
-15.76
-18.78
-21.16
-22.97
-24.45
-25.90
-27.54
-29.28
-30.66
-30.93
-29.30
-25.22
-18.70
-10.37
-1.25
7.53
15.02
20.70
24.37
26.09
26.06
24.50
21.76
18.31
14.71
11.52
9.11
7.59
6.81
6.47
6.25
5.96
5.53
4.94
4.18
3.18
1.84
0.08
-2.14
-4.71
-7.49
-10.25
-12.84
-15.17
-17.25
-19.18
-21.14
-23.31
-25.77
-28.42
-30.92
-32.63
-32.84
-30.88
-26.42
-19.59
-11.02
-1.63
7.57
15.78
22.49
27.49
30.72
32.20
32.00
30.33
27.57
24.26
21.04
18.42
16.68
15.76
15.37
15.08
14.58
13.71
12.51
11.09
9.57
7.98
6.30
4.45
2.36
0.01
-2.62
-5.48
-8.50
-11.51
-14.37
-16.89
-18.91
-20.39
-21.38
-22.06
-22.76
-23.82
-25.52
-27.87
-30.50
-32.63
-33.29
-31.60
-27.10
-19.93
-10.84
-0.92
8.68
17.06
23.70
28.44
31.36
32.65
32.50
31.14
28.81
25.87
22.76
19.90
17.63
16.06
15.06
14.33
13.57
12.59
11.38
10.04
8.72
7.47
6.22
4.83
3.11
0.97
-1.58
-4.46
-7.50
-10.54
-13.42
-16.03
-18.30
-20.26
-22.06
-23.87
-25.87
-28.05
-30.14
-31.57
-31.63
-29.69
-25.41
-18.94
-10.85
-1.99
6.77
14.65
21.15
25.91
28.77
29.73
28.97
26.90
24.09
21.17
18.63
16.75
15.52
14.76
14.21
13.66
12.94
11.97
10.71
9.14
7.27
5.10
2.69
0.07
-2.72
-5.61
-8.56
-11.46
-14.23
-16.75
-18.97
-20.86
-22.54
-24.21
-26.10
-28.27
-30.47
-32.11
-32.40
-30.58
-26.31
-19.76
-11.62
-2.82
5.71
13.23
19.27
23.54
25.96
26.59
25.70
23.74
21.19
18.55
16.13
14.11
12.53
11.34
10.42
9.62
8.74
7.62
6.17
4.45
2.55
0.57
-1.42
-3.47
-5.65
-8.00
-10.45
-12.89
-15.17
-17.23
-19.14
-21.05
-23.16
-25.51
-27.90
-29.84
-30.68
-29.81
-26.85
-21.80
-15.04
-7.17
1.14
9.30
16.84
23.35
28.44
31.80
33.19
32.64
30.48
27.30
23.81
20.67
18.26
16.64
15.61
14.83
14.02
13.05
11.98
10.95
10.07
9.28
8.34
6.88
4.57
1.29
-2.82
-7.36
-11.77
-15.60
-18.62
-20.98
-23.12
-25.65
-29.08
-33.56
-38.73
-43.75
-47.46
-48.72
-46.76
-41.46
-33.38
-23.67
-13.80
-5.22
0.90
4.03
4.40
2.97
1.14
0.23
1.08
3.71
7.47
11.40
14.70
16.99
18.34
19.03
19.28
19.15
18.63
17.74
16.73
15.92
15.57
15.69
15.94
15.81
14.80
12.66
9.50
5.75
1.94
-1.54
-4.52
-7.21
-10.04
-13.47
-17.77
-22.81
-27.95
-32.19
-34.40
-33.66
-29.61
-22.52
-13.24
-2.92
7.31
16.53
24.13
29.79
33.39
34.99
34.77
33.07
30.35
27.11
23.87
21.06
18.95
17.64
17.04
16.90
16.97
17.02
16.93
16.67
16.23
15.54
14.48
12.91
10.73
8.06
5.13
2.27
-0.22
-2.18
-3.62
-4.69
-5.61
-6.63
-7.95
-9.74
-12.02
-14.62
-17.13
-18.85
-19.02
-16.99
-12.55
-6.04
1.74
9.75
17.14
23.37
28.24
31.70
33.66
33.98
32.60
29.66
25.65
21.24
17.08
13.58
10.85
8.83
7.41
6.55
6.23
6.33
6.56
6.51
5.80
4.26
1.98
-0.72
-3.49
-6.09
-8.51
-10.92
-13.58
-16.75
-20.57
-25.02
-29.87
-34.64
-38.57
-40.76
-40.41
-37.03
-30.69
-22.09
-12.28
-2.44
6.45
13.78
19.27
22.85
24.58
24.63
23.27
20.92
18.06
15.17
12.56
10.36
8.51
6.88
5.29
3.67
1.97
0.22
-1.57
-3.43
-5.47
-7.87
-10.80
-14.33
-18.33
-22.49
-26.47
-30.00
-33.03
-35.75
-38.53
-41.76
-45.73
-50.49
-55.76
-60.87
-64.85
-66.60
-65.17
-60.08
-51.49
-40.24
-27.60
-14.96
-3.57
5.74
12.48
16.51
17.94
17.09
14.48
10.80
6.87
3.47
1.23
0.48
1.25
3.22
5.90
8.71
11.17
12.95
13.89
13.93
13.08
11.37
8.81
5.52
1.68
-2.40
-6.42
-10.21
-13.82
-17.49
-21.58
-26.32
-31.66
-37.14
-41.98
-45.18
-45.86
-43.46
-37.94
-29.75
-19.73
-8.87
1.91
11.89
20.60
27.67
32.85
35.99
37.09
36.42
34.47
31.88
29.23
26.90
24.93
23.18
21.34
19.23
16.78
14.15
11.58
9.27
7.30
5.55
3.76
1.63
-1.01
-4.13
-7.48
-10.68
-13.42
-15.52
-17.03
-18.18
-19.26
-20.58
-22.31
-24.48
-26.80
-28.78
-29.70
-28.80
-25.52
-19.72
-11.74
-2.35
7.46
16.72
24.72
30.99
35.34
37.76
38.37
37.39
35.18
32.21
29.02
26.05
23.60
21.75
20.41
19.37
18.44
17.45
16.31
14.95
13.30
11.32
8.97
6.29
3.36
0.30
-2.75
-5.70
-8.58
-11.51
-14.69
-18.35
-22.52
-27.00
-31.22
-34.39
-35.71
-34.58
-30.88
-25.00
-17.77
-10.17
-3.14
2.67
6.98
9.80
11.37
12.03
12.10
11.89
11.63
11.48
11.56
11.89
12.44
13.16
13.92
14.55
14.87
14.69
13.89
12.47
10.55
8.33
5.98
3.59
1.13
-1.53
-4.53
-7.99
-11.86
-15.95
-19.89
-23.09
-24.84
-24.46
-21.49
-15.87
-8.08
0.99
10.24
18.68
25.58
30.60
33.68
34.95
34.59
32.86
30.05
26.58
22.92
19.54
16.82
14.93
13.84
13.36
13.26
13.28
13.20
12.81
11.88
10.22
7.71
4.41
0.55
-3.55
-7.55
-11.23
-14.61
-17.85
-21.20
-24.83
-28.64
-32.19
-34.77
-35.55
-33.83
-29.30
-22.16
-13.11
-3.10
6.86
15.93
23.51
29.23
32.91
34.48
34.08
32.03
28.92
25.43
22.21
19.71
18.03
16.95
16.05
14.90
13.21
10.98
8.40
5.79
3.44
1.45
-0.27
-1.93
-3.77
-5.90
-8.34
-10.98
-13.66
-16.30
-18.89
-21.50
-24.23
-27.22
-30.55
-34.15
-37.77
-40.87
-42.68
-42.38
-39.37
-33.48
-25.08
-15.00
-4.31
5.98
15.08
22.48
27.94
31.38
32.84
32.50
30.68
27.86
24.61
21.44
18.73
16.67
15.27
14.36
13.76
13.25
12.67
11.86
10.70
9.15
7.24
5.09
2.84
0.65
-1.45
-3.56
-5.82
-8.42
-11.41
-14.72
-18.13
-21.38
-24.21
-26.52
-28.33
-29.83
-31.32
-33.09
-35.26
-37.67
-39.76
-40.72
-39.66
-35.89
-29.21
-19.98
-9.05
2.47
13.48
23.08
30.68
35.96
38.83
39.42
38.04
35.23
31.64
27.99
24.87
22.65
21.42
20.98
20.95
20.87
20.40
19.36
17.79
15.91
13.92
11.97
10.03
7.92
5.46
2.55
-0.77
-4.29
-7.74
-10.90
-13.63
-15.90
-17.79
-19.46
-21.15
-23.10
-25.49
-28.25
-31.00
-33.00
-33.37
-31.34
-26.51
-19.06
-9.68
0.57
10.60
19.46
26.48
31.29
33.84
34.25
32.86
30.11
26.57
22.81
19.35
16.56
14.63
13.52
13.05
12.95
12.98
12.97
12.84
12.55
12.07
11.32
10.19
8.59
6.47
3.89
0.95
-2.20
-5.44
-8.64
-11.72
-14.65
-17.44
-20.14
-22.81
-25.57
-28.51
-31.62
-34.72
-37.37
-38.89
-38.51
-35.59
-29.86
-21.59
-11.56
-0.88
9.33
18.15
25.09
30.02
33.09
34.54
34.67
33.74
32.01
29.78
27.36
25.09
23.25
22.02
21.42
21.29
21.32
21.11
20.20
18.20
14.78
9.81
3.39
-4.09
-11.97
-19.47
-25.92
-30.97
-34.66
-37.36
-39.51
-41.45
-43.21
-44.62
-45.42
-45.43
-44.69
-43.43
-42.02
-40.76
-39.79
-38.95
-37.79
-35.66
-31.98
-26.42
-19.08
-10.45
-1.21
8.01
16.78
24.84
31.97
37.89
42.17
44.47
44.64
42.92
39.91
36.38
33.05
30.40
28.53
27.24
26.16
24.89
23.20
21.07
18.67
16.22
13.92
11.82
9.77
7.56
4.98
1.96
-1.36
-4.76
-7.99
-10.88
-13.41
-15.62
-17.64
-19.57
-21.55
-23.70
-26.03
-28.41
-30.47
-31.61
-31.22
-28.81
-24.24
-17.71
-9.75
-1.04
7.69
15.75
22.50
27.42
30.21
30.85
29.67
27.32
24.54
21.98
20.00
18.66
17.74
16.99
16.16
15.17
14.07
12.92
11.79
10.59
9.15
7.19
4.49
0.92
-3.45
-8.38
-13.55
-18.59
-23.21
-27.25
-30.68
-33.58
-36.09
-38.24
-39.96
-40.92
-40.65
-38.61
-34.42
-28.05
-19.94
-10.92
-2.00
5.90
12.14
16.46
18.88
19.62
18.99
17.37
15.15
12.75
10.55
8.81
7.67
7.11
6.99
7.12
7.26
7.18
6.68
5.64
4.08
2.13
0.00
-2.13
-4.17
-6.18
-8.33
-10.82
-13.80
-17.16
-20.46
-22.95
-23.74
-22.05
-17.50
-10.36
-1.49
7.93
16.75
24.24
30.09
34.36
37.18
38.55
38.28
36.05
31.56
24.69
15.63
4.94
-6.45
-17.26
-26.12
-31.89
-34.03
-32.77
-29.09
-24.35
-19.87
-16.50
-14.53
-13.77
-13.82
-14.31
-15.04
-15.94
-17.07
-18.42
-19.82
-20.96
-21.36
-20.46
-17.82
-13.23
-6.85
0.81
9.04
17.07
24.27
30.18
34.52
37.11
37.85
36.80
34.18
30.46
26.29
22.29
18.96
16.47
14.70
13.38
12.17
10.86
9.39
7.77
6.01
4.10
2.01
-0.28
-2.74
-5.25
-7.70
-10.02
-12.21
-14.34
-16.53
-18.91
-21.47
-24.06
-26.30
-27.60
-27.28
-24.77
-19.80
-12.58
-3.79
5.59
14.49
22.03
27.66
31.17
32.67
32.44
30.88
28.43
25.60
22.86
20.63
19.14
18.34
17.99
17.71
17.23
16.43
15.34
14.06
12.60
10.83
8.54
5.63
2.18
-1.54
-5.15
-8.43
-11.40
-14.35
-17.75
-22.10
-27.71
-34.57
-42.18
-49.56
-55.32
-57.95
-56.33
-50.10
-39.90
-27.24
-14.03
-2.06
7.46
14.06
17.89
19.40
19.05
17.17
14.04
9.97
5.39
0.91
-2.83
-5.32
-6.32
-5.90
-4.42
-2.31
0.02
2.28
4.30
5.94
7.08
7.57
7.33
6.38
4.89
3.14
1.43
-0.08
-1.38
-2.68
-4.31
-6.58
-9.67
-13.49
-17.58
-21.20
-23.48
-23.66
-21.29
-16.45
-9.65
-1.72
6.42
13.98
20.39
25.30
28.57
30.15
30.16
28.84
26.59
23.91
21.27
19.03
17.31
16.05
15.03
14.03
12.87
11.51
10.02
8.43
6.76
4.89
2.71
0.16
-2.71
-5.71
-8.57
-11.09
-13.15
-14.77
-16.08
-17.31
-18.69
-20.40
-22.46
-24.65
-26.51
-27.41
-26.70
-23.95
-19.10
-12.48
-4.75
3.30
10.95
17.64
23.00
26.86
29.14
29.87
29.17
27.32
24.72
21.84
19.10
16.79
14.91
13.29
11.62
9.61
7.12
4.17
0.95
-2.27
-5.26
-7.87
-10.02
-11.79
-13.27
-14.63
-16.01
-17.55
-19.32
-21.31
-23.45
-25.60
-27.57
-29.16
-30.08
-30.01
-28.60
-25.53
-20.64
-13.94
-5.76
3.33
12.54
21.09
28.29
33.68
37.03
38.34
37.79
35.65
32.35
28.34
24.18
20.34
17.17
14.81
13.15
11.94
10.92
9.91
8.86
7.86
7.05
6.52
6.24
6.07
5.71
4.88
3.34
1.01
-1.98
-5.39
-8.95
-12.44
-15.78
-18.99
-22.18
-25.45
-28.86
-32.31
-35.55
-38.10
-39.31
-38.52
-35.26
-29.48
-21.56
-12.29
-2.62
6.56
14.58
21.02
25.63
28.32
29.11
28.18
25.88
22.73
19.31
16.14
13.56
11.70
10.55
9.95
9.71
9.65
9.57
9.32
8.81
7.97
6.78
5.21
3.24
0.82
-2.08
-5.41
-9.02
-12.63
-15.94
-18.68
-20.70
-22.06
-22.96
-23.73
-24.69
-26.02
-27.63
-29.12
-29.88
-29.24
-26.75
-22.27
-16.07
-8.75
-1.05
6.29
12.68
17.68
21.02
22.62
22.55
21.11
18.79
16.19
13.87
12.22
11.33
10.97
10.63
9.78
7.97
5.10
1.41
-2.47
-5.82
-7.99
-8.69
-8.08
-6.69
-5.19
-4.13
-3.77
-4.06
-4.75
-5.56
-6.31
-7.01
-7.89
-9.36
-11.89
-15.83
-21.16
-27.32
-33.21
-37.37
-38.48
-35.79
-29.36
-20.05
-9.20
1.81
11.87
20.26
26.62
30.77
32.63
32.31
30.13
26.68
22.76
19.20
16.64
15.31
15.10
15.56
16.18
16.49
16.20
15.19
13.45
11.07
8.17
4.89
1.40
-2.13
-5.54
-8.67
-11.42
-13.72
-15.54
-16.97
-18.18
-19.47
-21.12
-23.31
-25.95
-28.53
-30.28
-30.33
-28.07
-23.37
-16.64
-8.67
-0.41
7.38
14.17
19.74
23.98
26.83
28.26
28.31
27.20
25.32
23.21
21.30
19.82
18.72
17.71
16.46
14.81
12.80
10.68
8.73
7.06
5.56
3.98
2.06
-0.30
-2.99
-5.81
-8.52
-11.02
-13.25
-15.25
-17.12
-18.98
-21.01
-23.33
-25.90
-28.37
-30.08
-30.21
-28.02
-23.21
-16.04
-7.31
1.89
10.45
17.52
22.60
25.58
26.60
25.99
24.12
21.39
18.20
15.00
12.21
10.15
8.93
8.42
8.27
8.13
7.70
6.88
5.71
4.26
2.53
0.46
-2.01
-4.88
-8.00
-11.13
-14.00
-16.43
-18.36
-19.94
-21.45
-23.21
-25.39
-27.84
-29.99
-30.97
-29.90
-26.21
-19.95
-11.77
-2.71
6.12
13.86
20.03
24.44
27.13
28.14
27.62
25.79
23.02
19.80
16.60
13.76
11.40
9.48
7.86
6.44
5.21
4.19
3.33
2.51
1.52
0.16
-1.68
-3.93
-6.46
-9.11
-11.76
-14.39
-17.01
-19.66
-22.34
-24.97
-27.39
-29.27
-30.15
-29.56
-27.07
-22.55
-16.18
-8.49
-0.21
7.91
15.25
21.35
25.90
28.78
29.97
29.64
28.13
25.89
23.37
20.93
18.74
16.84
15.13
13.56
12.05
10.60
9.17
7.68
6.02
4.08
1.78
-0.84
-3.69
-6.60
-9.39
-11.92
-14.12
-16.03
-17.68
-19.23
-20.82
-22.63
-24.76
-27.09
-29.19
-30.39
-29.92
-27.19
-22.05
-14.80
-6.13
3.08
12.00
19.93
26.30
30.70
32.90
32.93
31.11
28.01
24.32
20.66
17.45
14.91
13.05
11.78
10.94
10.34
9.83
9.26
8.52
7.56
6.39
5.02
3.45
1.64
-0.45
-2.91
-5.74
-8.92
-12.33
-15.80
-19.15
-22.31
-25.28
-28.19
-31.17
-34.22
-37.06
-39.09
-39.54
-37.67
-33.05
-25.75
-16.35
-5.85
4.67
14.27
22.32
28.56
32.97
35.72
36.98
36.93
35.77
33.78
31.29
28.70
26.39
24.58
23.27
22.31
21.45
20.48
19.34
18.08
16.80
15.59
14.45
13.25
11.85
10.09
7.84
5.09
1.89
-1.60
-5.15
-8.57
-11.72
-14.58
-17.25
-19.85
-22.54
-25.48
-28.76
-32.35
-36.03
-39.27
-41.32
-41.35
-38.75
-33.38
-25.61
-16.26
-6.36
3.15
11.54
18.33
23.26
26.24
27.31
26.70
24.83
22.26
19.58
17.29
15.66
14.68
14.09
13.51
12.57
11.11
9.19
7.05
4.99
3.21
1.72
0.34
-1.21
-3.20
-5.74
-8.76
-12.08
-15.43
-18.60
-21.44
-23.93
-26.14
-28.29
-30.58
-33.11
-35.69
-37.79
-38.62
-37.36
-33.53
-27.16
-18.88
-9.63
-0.43
7.95
15.06
20.71
24.86
27.43
28.41
27.85
26.03
23.41
20.60
18.14
16.41
15.51
15.30
15.46
15.64
15.53
15.01
14.07
12.87
11.56
10.24
8.87
7.30
5.33
2.81
-0.22
-3.59
-7.01
-10.23
-13.11
-15.67
-18.04
-20.39
-22.92
-25.73
-28.86
-32.16
-35.24
-37.47
-38.11
-36.50
-32.31
-25.74
-17.43
-8.29
0.80
9.16
16.38
22.24
26.65
29.52
30.88
30.88
29.88
28.38
26.88
25.73
25.06
24.73
24.46
23.91
22.82
21.08
18.74
15.96
12.93
9.82
6.74
3.73
0.76
-2.20
-5.19
-8.23
-11.29
-14.27
-17.02
-19.34
-21.11
-22.36
-23.27
-24.21
-25.56
-27.57
-30.18
-32.95
-35.13
-35.91
-34.59
-30.84
-24.78
-16.90
-8.00
1.04
9.41
16.45
21.75
25.18
26.85
27.04
26.13
24.50
22.48
20.32
18.21
16.28
14.61
13.17
11.82
10.38
8.72
6.81
4.76
2.76
1.01
-0.45
-1.72
-3.09
-4.83
-7.15
-10.07
-13.43
-16.88
-20.03
-22.56
-24.38
-25.67
-26.83
-28.36
-30.52
-33.12
-35.34
-35.93
-33.50
-27.02
-16.21
-1.72
14.89
31.50
45.83
55.99
60.93
60.65
56.20
49.35
42.08
36.09
32.32
30.89
31.18
32.23
33.04
32.90
31.47
28.74
24.90
20.23
15.02
9.60
4.32
-0.49
-4.57
-7.89
-10.63
-13.12
-15.73
-18.65
-21.85
-25.16
-28.38
-31.44
-34.42
-37.44
-40.47
-43.16
-44.84
-44.72
-42.12
-36.84
-29.22
-20.13
-10.68
-1.92
5.44
11.05
14.85
16.96
17.51
16.72
14.83
12.22
9.35
6.68
4.59
3.27
2.70
2.66
2.82
2.82
2.41
1.47
0.06
-1.68
-3.59
-5.56
-7.58
-9.62
-11.65
-13.61
-15.47
-17.31
-19.31
-21.63
-24.20
-26.58
-27.99
-27.55
-24.60
-19.03
-11.37
-2.58
6.20
14.00
20.21
24.60
27.23
28.25
27.88
26.36
23.93
20.94
17.75
14.72
12.15
10.18
8.81
7.90
7.25
6.60
5.74
4.51
2.82
0.69
-1.75
-4.29
-6.73
-8.96
-11.02
-13.06
-15.29
-17.83
-20.72
-23.84
-26.97
-29.76
-31.72
-32.29
-30.96
-27.38
-21.60
-14.09
-5.65
2.76
10.27
16.32
20.63
23.18
24.12
23.68
22.23
20.19
18.07
16.27
15.05
14.43
14.27
14.34
14.50
14.71
15.02
15.42
15.80
15.87
15.31
13.88
11.57
8.56
5.18
1.77
-1.41
-4.24
-6.77
-9.16
-11.70
-14.67
-18.28
-22.49
-26.87
-30.67
-32.88
-32.61
-29.36
-23.23
-14.91
-5.44
4.06
12.69
19.87
25.36
29.12
31.21
31.72
30.85
28.91
26.34
23.63
21.23
19.37
18.11
17.31
16.73
16.16
15.42
14.40
13.07
11.45
9.60
7.60
5.56
3.56
1.61
-0.35
-2.38
-4.56
-6.88
-9.29
-11.67
-13.91
-15.93
-17.73
-19.37
-21.07
-23.08
-25.61
-28.67
-31.96
-34.84
-36.43
-35.88
-32.65
-26.72
-18.62
-9.21
0.53
9.75
17.86
24.55
29.67
33.21
35.19
35.71
35.00
33.40
31.36
29.37
27.80
26.85
26.44
26.30
26.14
25.71
25.00
24.11
23.17
22.17
20.91
19.03
16.13
11.93
6.32
-0.58
-8.42
-16.71
-24.81
-32.04
-37.83
-41.88
-44.22
-45.19
-45.30
-45.03
-44.73
-44.59
-44.70
-45.08
-45.68
-46.29
-46.45
-45.53
-42.86
-38.01
-30.91
-21.95
-11.83
-1.48
8.24
16.61
23.18
27.76
30.43
31.49
31.38
30.52
29.28
27.90
26.53
25.25
24.11
23.11
22.20
21.26
20.16
18.71
16.80
14.43
11.75
9.02
6.53
4.48
2.88
1.53
0.11
-1.63
-3.80
-6.27
-8.82
-11.18
-13.27
-15.07
-16.73
-18.41
-20.23
-22.24
-24.47
-26.90
-29.36
-31.54
-32.91
-32.82
-30.72
-26.35
-19.84
-11.69
-2.65
6.42
14.64
21.33
25.97
28.26
28.21
26.19
23.00
19.64
17.01
15.56
15.32
15.77
16.14
15.74
14.39
12.51
10.95
10.43
11.09
12.55
13.85
13.96
12.30
9.19
5.95
4.28
5.52
10.14
17.82
27.26
36.59
42.89
42.72
33.76
16.40
-6.04
-29.09
-48.60
-62.43
-70.58
-74.85
-77.88
-81.67
-86.71
-91.60
-95.27
-93.89
-84.91
-67.92
-44.96
-19.83
3.51
22.11
34.84
42.30
46.44
48.98
51.12
53.59
55.80
57.97
60.54
63.75
67.26
70.31
71.71
70.40
66.06
59.17
51.07
43.30
36.97
32.30
28.79
25.34
20.85
14.82
7.17
-1.55
-10.50
-18.91
-26.39
-32.76
-38.03
-42.15
-44.83
-45.93
-45.26
-42.43
-37.17
-29.52
-19.80
-8.55
3.62
15.98
26.94
33.08
31.34
20.97
3.79
-16.54
-35.55
-49.36
-55.43
-54.22
-48.51
-41.68
-36.67
-35.56
-39.48
-48.45
-62.01
-75.64
-83.85
-81.22
-64.25
-33.59
5.22
43.22
70.72
79.92
71.29
51.34
28.68
9.91
-2.45
-9.45
-13.48
-16.17
-17.54
-16.78
-13.55
-8.88
-4.52
-1.98
-1.36
-1.37
0.05
4.65
13.23
24.63
36.55
46.37
52.28
53.84
51.93
48.28
44.86
43.53
43.78
45.29
47.43
49.62
51.53
53.22
55.04
57.47
60.96
65.51
70.99
76.83
82.45
87.38
91.39
94.45
96.68
98.34
99.71
101.23
103.14
105.49
108.09
110.57
112.52
113.65
113.88
113.24
111.83
109.47
105.70
99.98
91.87
81.23
68.30
53.49
37.24
19.82
1.23
-18.71
-40.21
-63.35
-88.02
-113.93
-140.63
-167.44
-193.37
-217.03
-236.78
-250.99
-258.47
-258.90
-252.93
-242.08
-228.24
-213.24
-198.43
-184.54
-171.82
-160.16
-149.33
-138.98
-128.69
-118.09
-106.95
-95.42
-83.98
-73.30
-63.95
-55.98
-48.89
-41.74
-33.61
-24.07
-13.49
-2.99
5.96
12.14
15.07
15.27
14.03
12.92
13.22
15.50
19.55
24.62
29.91
34.95
39.70
44.57
50.16
56.94
64.96
73.81
82.62
90.16
94.96
95.53
90.85
80.76
66.30
49.53
33.14
19.62
10.57
6.30
5.84
7.67
10.35
12.99
15.43
18.06
21.48
26.15
32.05
38.35
43.84
47.24
47.45
43.75
36.05
24.99
11.81
-1.93
-15.20
-26.84
-35.73
-41.17
-43.17
-42.44
-40.06
-37.17
-34.74
-34.19
-35.96
-39.59
-44.33
-49.79
-55.93
-62.77
-70.12
-77.52
-85.26
-92.61
-97.88
-99.17
-95.36
-86.58
-74.19
-60.42
-41.12
-17.54
5.58
24.04
36.95
45.64
51.48
55.16
57.28
58.58
59.10
59.25
59.26
58.52
55.71
49.76
40.93
31.65
23.91
18.65
16.31
16.65
18.78
21.35
23.22
23.84
23.46
22.40
20.41
17.40
13.56
9.41
5.58
2.90
0.66
-1.02
-2.15
-3.01
-3.81
-4.57
-5.14
-5.34
-5.07
-4.39
-3.42
-2.59
-2.49
-3.47
-5.52
-8.27
-11.24
-14.05
-16.62
-19.01
-21.57
-24.63
-28.32
-32.41
-36.24
-38.89
-39.38
-36.95
-31.25
-22.61
-11.98
-0.70
9.89
18.81
25.67
30.67
34.41
37.59
40.74
44.00
47.21
50.02
52.01
52.86
52.38
50.59
47.70
44.09
40.23
36.54
33.30
30.56
28.14
25.69
22.86
19.39
15.15
10.19
4.72
-0.93
-6.41
-11.43
-15.91
-19.97
-23.75
-27.19
-29.81
-30.71
-28.92
-23.80
-15.39
-4.54
7.42
19.09
29.36
37.65
43.76
47.66
49.45
49.26
47.40
44.36
40.75
37.15
33.92
31.17
28.79
26.62
24.52
22.44
20.42
18.47
16.55
14.55
12.30
9.67
6.62
3.17
-0.52
-4.27
-7.92
-11.40
-14.70
-17.87
-20.97
-24.07
-27.25
-30.47
-33.53
-35.95
-37.02
-35.94
-32.13
-25.50
-16.57
-6.33
4.07
13.67
21.82
28.28
32.97
35.88
36.98
36.33
34.16
30.99
27.45
24.17
21.53
19.57
18.07
16.70
15.20
13.52
11.81
10.25
8.98
7.95
7.00
5.91
4.49
2.67
0.43
-2.13
-4.88
-7.67
-10.30
-12.61
-14.54
-16.23
-17.99
-20.21
-23.17
-26.79
-30.48
-33.29
-34.14
-32.24
-27.40
-20.10
-11.29
-2.10
6.56
14.09
20.24
24.95
28.19
29.98
30.37
29.53
27.79
25.53
23.15
20.94
19.05
17.50
16.22
15.09
13.97
12.75
11.35
9.69
7.78
5.65
3.37
0.99
-1.44
-3.94
-6.58
-9.49
-12.76
-16.39
-20.28
-24.25
-28.06
-31.54
-34.59
-37.22
-39.58
-41.88
-44.41
-47.35
-50.64
-53.86
-56.21
-56.75
-54.67
-49.68
-42.12
-32.93
-23.42
-14.92
-8.38
-4.20
-2.10
-1.22
-0.41
1.44
5.02
10.43
17.21
24.51
31.43
37.23
41.49
44.07
45.02
44.47
42.65
39.85
36.45
32.89
29.58
26.79
24.64
23.05
21.79
20.60
19.33
17.93
16.52
15.21
14.08
13.05
11.87
10.21
7.78
4.44
0.29
-4.31
-8.89
-13.02
-16.43
-19.08
-21.12
-22.83
-24.48
-26.30
-28.40
-30.70
-32.91
-34.47
-34.69
-32.94
-28.91
-22.72
-14.98
-6.50
1.86
9.48
15.93
20.99
24.47
26.24
26.27
24.76
22.20
19.21
16.39
14.10
12.40
11.08
9.87
8.58
7.20
5.85
4.68
3.73
2.91
2.01
0.82
-0.81
-2.89
-5.31
-7.90
-10.47
-12.91
-15.26
-17.64
-20.23
-23.16
-26.28
-29.18
-31.19
-31.57
-29.76
-25.61
-19.40
-11.84
-3.78
3.96
10.78
16.33
20.48
23.24
24.68
24.91
24.05
22.27
19.83
17.07
14.34
11.95
10.10
8.85
8.11
7.78
7.68
7.67
7.57
7.14
6.14
4.40
1.91
-1.16
-4.50
-7.78
-10.79
-13.47
-15.90
-18.29
-20.84
-23.73
-26.94
-30.19
-32.93
-34.39
-33.84
-30.83
-25.40
-18.05
-9.61
-0.96
7.14
14.18
19.86
24.01
26.55
27.46
26.86
25.01
22.32
19.31
16.43
14.04
12.23
10.93
9.90
8.93
7.89
6.78
5.68
4.64
3.66
2.65
1.49
0.07
-1.69
-3.82
-6.33
-9.15
-12.15
-15.12
-17.84
-20.17
-22.17
-24.03
-26.08
-28.53
-31.40
-34.33
-36.66
-37.60
-36.44
-32.80
-26.74
-18.77
-9.71
-0.47
8.15
15.54
21.34
25.39
27.68
28.34
27.62
25.93
23.71
21.42
19.40
17.85
16.80
16.20
15.90
15.73
15.51
15.10
14.36
13.26
11.85
10.22
8.48
6.63
4.57
2.19
-0.60
-3.72
-6.96
-10.11
-13.00
-15.62
-18.03
-20.34
-22.59
-24.76
-26.91
-29.14
-31.57
-34.11
-36.42
-37.86
-37.71
-35.50
-31.18
-25.09
-17.80
-9.87
-1.72
6.32
13.88
20.46
25.47
28.47
29.35
28.41
26.29
23.76
21.45
19.74
18.70
18.18
17.93
17.70
17.31
16.68
15.77
14.56
13.01
11.07
8.70
5.92
2.83
-0.44
-3.71
-6.81
-9.62
-12.03
-14.05
-15.74
-17.24
-18.75
-20.53
-22.74
-25.38
-28.14
-30.42
-31.44
-30.46
-27.05
-21.26
-13.65
-5.12
3.37
11.04
17.40
22.21
25.40
27.00
27.11
25.99
24.00
21.64
19.34
17.45
16.10
15.23
14.67
14.22
13.72
13.08
12.30
11.46
10.64
9.85
9.01
7.94
6.38
4.17
1.28
-2.09
-5.63
-9.02
-12.02
-14.59
-16.79
-18.76
-20.69
-22.80
-25.29
-28.22
-31.41
-34.33
-36.18
-36.06
-33.36
-27.97
-20.35
-11.41
-2.16
6.55
14.15
20.34
24.95
27.87
29.08
28.72
27.15
24.91
22.56
20.50
18.88
17.68
16.78
16.10
15.64
15.41
15.35
15.29
14.98
14.23
12.96
11.21
9.15
6.93
4.66
2.35
-0.01
-2.45
-4.99
-7.63
-10.34
-13.08
-15.76
-18.29
-20.60
-22.68
-24.58
-26.46
-28.54
-30.99
-33.81
-36.68
-38.93
-39.71
-38.24
-34.08
-27.33
-18.63
-8.93
0.73
9.54
16.94
22.66
26.60
28.82
29.48
28.86
27.35
25.39
23.37
21.60
20.26
19.39
18.92
18.72
18.62
18.48
18.18
17.62
16.73
15.47
13.84
11.90
9.74
7.45
5.08
2.66
0.15
-2.46
-5.19
-7.98
-10.78
-13.50
-16.08
-18.43
-20.51
-22.33
-24.00
-25.74
-27.84
-30.48
-33.60
-36.71
-38.99
-39.48
-37.42
-32.53
-25.13
-16.02
-6.18
3.44
12.15
19.49
25.15
28.98
30.92
31.13
29.93
27.82
25.33
22.91
20.83
19.19
17.98
17.15
16.63
16.35
16.22
16.09
15.75
15.05
13.89
12.32
10.48
8.53
6.54
4.44
2.08
-0.65
-3.75
-7.07
-10.38
-13.45
-16.16
-18.51
-20.56
-22.42
-24.24
-26.21
-28.53
-31.32
-34.38
-37.12
-38.64
-38.01
-34.63
-28.56
-20.53
-11.74
-3.44
3.43
8.46
11.68
13.36
13.78
13.19
11.78
9.81
7.65
5.73
4.41
3.87
4.07
4.76
5.65
6.51
7.29
8.07
8.94
9.95
11.00
11.92
12.44
12.35
11.49
9.81
7.38
4.37
1.01
-2.45
-5.76
-8.75
-11.41
-13.88
-16.44
-19.36
-22.73
-26.31
-29.51
-31.50
-31.47
-28.91
-23.81
-16.64
-8.21
0.62
9.08
16.63
22.92
27.70
30.80
32.16
31.87
30.21
27.66
24.76
22.03
19.82
18.24
17.16
16.32
15.39
14.17
12.62
10.83
8.96
7.16
5.43
3.65
1.67
-0.68
-3.42
-6.44
-9.53
-12.47
-15.13
-17.46
-19.51
-21.35
-23.08
-24.79
-26.58
-28.57
-30.86
-33.39
-35.83
-37.54
-37.73
-35.66
-30.90
-23.60
-14.38
-4.24
5.73
14.58
21.75
26.96
30.24
31.79
31.87
30.72
28.64
25.95
23.02
20.24
17.96
16.34
15.33
14.68
14.08
13.31
12.28
11.09
9.88
8.74
7.63
6.39
4.83
2.86
0.48
-2.18
-4.94
-7.65
-10.18
-12.49
-14.55
-16.41
-18.16
-19.99
-22.11
-24.69
-27.73
-30.90
-33.55
-34.80
-33.80
-30.05
-23.58
-15.00
-5.32
4.39
13.19
20.52
26.10
29.90
31.99
32.51
31.67
29.85
27.50
25.10
23.03
21.48
20.44
19.76
19.24
18.71
18.07
17.28
16.33
15.19
13.84
12.32
10.64
8.80
6.73
4.31
1.42
-1.95
-5.73
-9.70
-13.56
-17.05
-20.03
-22.49
-24.44
-25.97
-27.30
-28.81
-30.90
-33.77
-37.20
-40.51
-42.67
-42.39
-38.75
-31.69
-22.06
-11.32
-0.94
8.00
15.01
20.10
23.84
26.82
29.24
30.80
31.08
29.95
27.74
25.11
22.91
22.26
24.01
28.33
34.62
41.81
48.90
55.07
59.60
59.22
51.76
37.98
21.75
7.62
-1.69
-5.77
-6.02
-4.81
-4.50
-6.40
-10.41
-15.88
-22.13
-28.83
-35.61
-42.03
-47.62
-51.97
-54.65
-55.40
-54.50
-51.51
-47.10
-42.02
-36.83
-31.86
-26.28
-20.45
-15.44
-12.21
-10.95
-11.28
-12.42
-13.76
-15.05
-16.25
-17.41
-18.48
-18.81
-18.02
-16.33
-14.27
-12.53
-11.64
-11.77
-12.76
-14.05
-14.90
-14.96
-14.25
-13.01
-11.59
-10.29
-9.35
-8.94
-9.00
-9.13
-8.77
-7.26
-3.99
1.39
8.81
17.80
27.49
36.93
45.32
52.07
56.85
59.53
60.16
58.89
55.98
51.79
46.75
41.37
36.12
31.36
27.27
23.81
20.83
18.10
15.48
12.99
10.78
9.00
7.67
6.63
5.53
4.06
2.00
-0.60
-3.56
-6.63
-9.62
-12.44
-15.10
-17.59
-19.97
-22.34
-24.83
-27.54
-30.35
-32.87
-34.39
-34.13
-31.49
-26.35
-19.07
-10.43
-1.33
7.42
15.19
21.54
26.13
28.71
29.19
27.76
24.89
21.30
17.73
14.82
12.93
12.18
12.41
13.32
14.51
15.60
16.29
16.46
16.18
15.66
15.11
14.60
14.03
13.20
11.95
10.27
8.35
6.43
4.68
3.06
1.37
-0.71
-3.48
-7.16
-11.78
-17.05
-22.28
-26.42
-28.22
-26.58
-20.95
-11.57
0.59
14.14
27.66
40.04
50.64
59.27
66.03
71.22
75.26
78.55
81.37
83.86
85.99
87.67
88.97
90.17
91.69
93.96
97.19
101.36
106.28
111.75
117.64
123.75
129.61
134.31
136.64
135.42
129.98
120.49
107.89
93.51
78.45
63.18
47.48
30.71
12.28
-8.00
-29.83
-52.55
-75.42
-97.74
-118.89
-138.26
-155.27
-169.49
-180.78
-189.46
-196.12
-201.44
-205.79
-209.11
-210.85
-210.23
-206.57
-199.41
-188.73
-174.84
-158.40
-140.33
-121.71
-103.70
-87.32
-73.33
-62.15
-53.87
-48.24
-44.80
-42.95
-42.06
-41.55
-41.05
-40.43
-39.77
-39.35
-39.52
-40.56
-42.64
-45.65
-49.11
-52.11
-53.51
-52.14
-47.28
-38.90
-27.73
-14.96
-1.91
10.39
21.34
30.66
38.23
43.95
47.72
49.57
49.78
48.89
47.52
46.19
45.13
44.30
43.47
42.51
41.45
40.54
40.08
40.15
40.48
40.43
39.21
36.21
31.27
24.82
17.70
10.88
5.06
0.52
-2.96
-5.84
-8.69
-12.01
-16.12
-21.18
-27.08
-33.32
-39.00
-42.92
-43.89
-41.10
-34.49
-24.69
-12.92
-0.52
11.34
21.90
30.75
37.72
42.76
45.88
47.19
46.98
45.69
43.86
42.01
40.49
39.50
39.04
39.00
39.21
39.47
39.60
39.41
38.74
37.48
35.58
33.11
30.23
27.14
24.00
20.90
17.81
14.58
10.99
6.88
2.21
-2.85
-8.00
-12.88
-17.22
-20.90
-24.04
-26.95
-30.06
-33.76
-38.28
-43.43
-48.54
-52.50
-54.00
-51.98
-45.92
-36.14
-23.68
-10.00
3.41
15.43
25.41
33.13
38.61
42.00
43.49
43.33
41.94
39.83
37.58
35.64
34.22
33.31
32.71
32.18
31.57
30.82
29.97
29.08
28.16
27.16
25.91
24.23
21.97
19.14
15.89
12.50
9.27
6.32
3.54
0.65
-2.63
-6.43
-10.60
-14.80
-18.65
-21.92
-24.55
-26.65
-28.51
-30.51
-33.10
-36.58
-40.92
-45.58
-49.50
-51.37
-50.06
-45.05
-36.61
-25.71
-13.63
-1.64
9.30
18.58
25.89
31.09
34.22
35.45
35.13
33.75
31.84
29.90
28.25
27.02
26.19
25.63
25.18
24.74
24.23
23.62
22.85
21.84
20.51
18.80
16.74
14.40
11.91
9.33
6.64
3.78
0.73
-2.49
-5.74
-8.85
-11.71
-14.26
-16.57
-18.77
-20.99
-23.43
-26.30
-29.78
-33.93
-38.45
-42.63
-45.41
-45.65
-42.53
-35.92
-26.44
-15.25
-3.74
6.95
16.02
23.13
28.19
31.27
32.55
32.28
30.84
28.67
26.24
23.91
21.91
20.35
19.22
18.50
18.09
17.87
17.71
17.47
17.03
16.30
15.25
13.86
12.11
10.05
7.71
5.18
2.53
-0.18
-2.91
-5.67
-8.45
-11.28
-14.14
-17.01
-19.85
-22.63
-25.40
-28.31
-31.61
-35.48
-39.85
-44.22
-47.61
-48.83
-46.88
-41.32
-32.53
-21.57
-9.82
1.40
11.17
19.07
25.00
29.10
31.52
32.46
32.19
31.04
29.40
27.60
25.86
24.26
22.79
21.45
20.27
19.30
18.52
17.83
17.03
15.93
14.42
12.51
10.32
8.01
5.71
3.46
1.25
-1.00
-3.39
-5.98
-8.83
-11.90
-15.08
-18.18
-21.02
-23.48
-25.61
-27.63
-29.89
-32.72
-36.24
-40.23
-43.99
-46.51
-46.74
-43.88
-37.72
-28.70
-17.76
-6.11
5.10
15.01
23.05
28.95
32.66
34.28
34.14
32.67
30.41
27.90
25.52
23.53
22.01
20.92
20.16
19.59
19.08
18.57
18.01
17.40
16.65
15.61
14.08
11.92
9.12
5.86
2.48
-0.75
-3.68
-6.39
-9.07
-11.90
-14.94
-18.11
-21.23
-24.09
-26.55
-28.59
-30.37
-32.21
-34.50
-37.57
-41.49
-45.87
-49.86
-52.31
-52.13
-48.62
-41.76
-32.17
-20.94
-9.29
1.72
11.35
19.19
25.10
29.11
31.34
32.01
31.46
30.06
28.26
26.44
24.90
23.77
23.05
22.63
22.35
22.06
21.66
21.09
20.32
19.34
18.13
16.70
15.06
13.19
11.04
8.54
5.61
2.27
-1.37
-5.12
-8.75
-12.13
-15.22
-18.11
-20.96
-23.92
-27.19
-30.95
-35.20
-39.66
-43.66
-46.19
-46.16
-42.86
-36.22
-26.98
-16.36
-5.72
3.91
11.99
18.42
23.25
26.50
28.12
28.14
26.77
24.49
21.93
19.61
17.82
16.53
15.46
14.31
12.93
11.36
9.80
8.47
7.45
6.68
5.93
4.88
3.30
1.08
-1.73
-4.87
-8.06
-10.99
-13.56
-15.85
-18.12
-20.78
-24.19
-28.53
-33.62
-38.89
-43.38
-46.01
-45.83
-42.31
-35.57
-26.32
-15.69
-4.92
4.93
13.18
19.54
23.98
26.62
27.63
27.22
25.73
23.62
21.40
19.54
18.33
17.75
17.56
17.47
17.24
16.85
16.44
16.13
15.95
15.70
15.03
13.59
11.17
7.82
3.89
-0.16
-3.88
-7.01
-9.61
-12.00
-14.71
-18.23
-22.86
-28.49
-34.46
-39.71
-42.95
-43.09
-39.57
-32.56
-22.93
-11.95
-0.90
9.22
17.89
24.92
30.25
33.85
35.63
35.62
34.08
31.52
28.62
25.99
24.03
22.79
22.06
21.49
20.83
19.95
18.88
17.72
16.55
15.35
13.99
12.32
10.12
7.27
3.76
-0.25
-4.46
-8.55
-12.24
-15.46
-18.34
-21.20
-24.44
-28.43
-33.34
-39.00
-44.87
-49.99
-53.20
-53.40
-49.95
-42.87
-32.91
-21.31
-9.50
1.39
10.66
18.03
23.55
27.37
29.63
30.45
30.03
28.64
26.68
24.60
22.81
21.54
20.81
20.45
20.18
19.73
18.92
17.69
16.10
14.28
12.32
10.27
8.04
5.48
2.43
-1.17
-5.18
-9.36
-13.36
-16.91
-19.94
-22.58
-25.12
-27.92
-31.27
-35.37
-40.29
-45.82
-51.47
-56.39
-59.51
-59.79
-56.62
-50.02
-40.68
-29.74
-18.45
-7.83
1.45
9.01
14.67
18.39
20.19
20.36
19.39
17.96
16.72
16.11
16.19
16.72
17.31
17.63
17.60
17.38
17.21
17.23
17.40
17.45
17.00
15.76
13.62
10.77
7.55
4.39
1.62
-0.66
-2.60
-4.56
-6.95
-10.12
-14.16
-18.90
-23.81
-28.09
-30.82
-31.15
-28.51
-22.82
-14.54
-4.61
5.77
15.45
23.56
29.64
33.64
35.74
36.23
35.41
33.52
30.85
27.71
24.49
21.55
19.18
17.47
16.33
15.55
14.85
14.03
12.95
11.54
9.83
7.84
5.59
3.14
0.52
-2.16
-4.83
-7.47
-10.19
-13.15
-16.49
-20.11
-23.53
-25.97
-26.55
-24.57
-19.78
-12.47
-3.38
6.48
16.10
24.61
31.39
36.08
38.58
39.01
37.72
35.21
31.99
28.57
25.29
22.38
19.91
17.85
16.11
14.59
13.19
11.82
10.35
8.64
6.52
3.94
0.92
-2.35
-5.67
-8.85
-11.84
-14.66
-17.42
-20.30
-23.47
-27.07
-31.10
-35.27
-38.98
-41.31
-41.33
-38.38
-32.39
-23.90
-13.96
-3.71
5.90
14.30
21.25
26.67
30.50
32.62
33.06
32.06
30.13
27.96
26.15
24.99
24.44
24.11
23.57
22.52
20.89
18.88
16.78
14.83
13.11
11.57
9.99
8.13
5.79
2.88
-0.58
-4.45
-8.48
-12.40
-15.96
-19.03
-21.64
-23.97
-26.37
-29.21
-32.71
-36.75
-40.78
-43.86
-44.87
-42.93
-37.68
-29.48
-19.26
-8.28
2.30
11.71
19.52
25.59
29.87
32.36
33.09
32.31
30.48
28.22
26.08
24.41
23.24
22.38
21.62
20.82
20.00
19.23
18.49
17.72
16.72
15.32
13.46
11.19
8.67
6.04
3.45
0.92
-1.57
-4.09
-6.70
-9.44
-12.29
-15.23
-18.18
-21.06
-23.76
-26.28
-28.69
-31.20
-34.07
-37.37
-40.90
-43.99
-45.67
-44.96
-41.16
-34.20
-24.65
-13.61
-2.31
8.14
16.98
23.82
28.60
31.44
32.60
32.42
31.30
29.64
27.81
26.06
24.51
23.16
21.95
20.79
19.65
18.53
17.44
16.36
15.24
14.02
12.65
11.15
9.57
7.97
6.30
4.46
2.25
-0.45
-3.66
-7.25
-10.95
-14.53
-17.79
-20.71
-23.33
-25.76
-28.12
-30.57
-33.23
-36.18
-39.25
-41.95
-43.50
-42.98
-39.72
-33.55
-24.97
-15.02
-4.92
4.33
12.10
18.17
22.56
25.33
26.54
26.29
24.87
22.72
20.44
18.58
17.41
16.95
16.90
16.86
16.52
15.72
14.54
13.20
11.90
10.75
9.69
8.50
6.92
4.76
2.02
-1.12
-4.37
-7.40
-10.05
-12.27
-14.19
-16.00
-17.87
-19.97
-22.44
-25.38
-28.76
-32.28
-35.31
-37.01
-36.51
-33.28
-27.33
-19.24
-9.96
-0.55
8.17
15.63
21.57
25.89
28.62
29.86
29.82
28.78
27.07
25.07
23.05
21.22
19.68
18.42
17.41
16.55
15.75
14.90
13.89
12.66
11.16
9.42
7.48
5.42
3.31
1.13
-1.15
-3.56
-6.12
-8.78
-11.49
-14.23
-17.01
-19.83
-22.66
-25.36
-27.78
-29.89
-31.82
-33.87
-36.30
-39.06
-41.63
-43.06
-42.28
-38.47
-31.52
-22.04
-11.25
-0.56
8.84
16.28
21.61
25.08
27.11
28.07
28.23
27.72
26.67
25.21
23.55
21.90
20.44
19.23
18.25
17.43
16.69
15.91
14.96
13.60
11.54
8.53
4.50
-0.24
-5.08
-9.17
-11.75
-12.46
-11.43
-9.27
-6.80
-4.81
-3.77
-3.87
-5.01
-6.98
-9.52
-12.41
-15.46
-18.47
-21.14
-23.15
-24.17
-23.92
-22.34
-19.54
-15.77
-11.36
-6.56
-1.58
3.40
8.13
12.20
15.11
16.41
15.87
13.73
10.65
7.60
5.52
5.03
6.15
8.33
10.62
12.04
12.03
10.58
8.25
5.95
4.55
4.65
6.38
9.38
12.91
16.08
18.11
18.49
17.11
14.22
10.30
5.94
1.67
-2.07
-5.09
-7.43
-9.45
-11.63
-14.41
-17.81
-21.38
-24.16
-25.11
-23.47
-19.10
-12.51
-4.65
3.44
10.91
17.19
21.94
24.98
26.25
25.85
24.09
21.49
18.68
16.20
14.32
13.03
12.04
11.03
9.76
8.22
6.56
4.97
3.55
2.21
0.71
-1.21
-3.72
-6.78
-10.16
-13.54
-16.55
-18.94
-20.62
-21.74
-22.68
-23.97
-26.06
-29.07
-32.57
-35.61
-36.99
-35.68
-31.25
-24.02
-14.87
-4.83
5.31
15.27
25.20
35.32
45.67
55.93
65.49
73.81
80.68
86.42
91.85
97.96
105.55
114.85
125.34
135.72
143.99
147.62
144.05
131.29
108.80
78.08
42.77
7.86
-21.78
-42.87
-54.66
-58.81
-58.36
-56.31
-54.57
-53.63
-52.97
-51.80
-49.69
-46.63
-42.90
-38.74
-34.20
-29.39
-24.79
-21.55
-21.27
-25.29
-33.87
-45.59
-57.55
-66.24
-68.98
-64.88
-55.22
-42.69
-30.25
-20.01
-12.67
-7.67
-3.74
0.46
6.02
13.58
23.46
35.61
49.53
64.22
78.25
90.03
98.27
102.31
102.31
99.25
94.73
90.63
88.76
90.49
96.36
105.93
117.79
129.88
139.99
146.27
147.54
143.43
134.28
121.04
105.18
88.50
72.82
59.61
49.62
42.69
37.77
33.19
26.96
17.11
2.06
-19.01
-45.72
-76.31
-107.69
-136.05
-157.76
-170.35
-173.12
-167.16
-154.88
-139.13
-122.35
-106.09
-90.87
-76.52
-62.66
-49.21
-36.58
-25.56
-16.93
-11.03
-7.53
-5.52
-3.90
-1.95
0.35
2.29
2.75
0.80
-3.88
-10.81
-18.94
-27.08
-34.25
-39.90
-43.87
-46.18
-47.06
-46.94
-46.71
-47.60
-50.92
-57.50
-67.26
-79.02
-90.89
-100.87
-107.57
-110.45
-109.82
-106.45
-101.24
-94.94
-88.19
-81.63
-75.82
-71.23
-68.00
-65.88
-64.29
-62.60
-60.35
-57.49
-54.65
-52.45
-51.10
-50.26
-49.25
-47.27
-43.64
-37.96
-30.11
-20.51
-9.63
2.03
13.88
25.01
34.39
41.22
45.19
46.43
44.48
39.01
30.03
17.95
3.50
-12.12
-27.28
-40.22
-49.76
-57.61
-65.43
-73.75
-81.96
-89.20
-94.82
-98.34
-99.46
-98.29
-99.32
-105.32
-115.54
-126.82
-136.41
-143.05
-146.59
-147.31
-145.70
-148.82
-160.82
-180.69
-204.30
-228.67
-252.96
-277.22
-300.52
-321.05
-344.62
-373.32
-403.14
-426.98
-440.38
-442.95
-437.07
-425.33
-359.87
-227.53
-56.30
106.50
230.51
310.79
356.99
381.99
396.46
410.26
420.40
423.49
419.91
413.17
406.17
401.29
396.09
390.11
384.16
374.58
360.45
344.48
330.82
321.02
313.81
305.07
290.74
259.48
206.20
139.52
76.19
30.89
3.08
-11.52
-18.15
-20.07
-19.88
-19.90
-21.49
-25.46
-32.21
-41.86
-52.96
-63.80
-72.45
-77.41
-77.48
-72.55
-63.80
-53.15
-42.51
-32.60
-24.00
-17.12
-12.26
-8.72
-5.89
-3.83
-3.18
-4.70
-8.39
-13.97
-20.81
-27.97
-34.08
-38.26
-40.71
-42.55
-45.18
-49.39
-55.25
-61.99
-68.29
-72.49
-73.35
-70.55
-64.71
-57.13
-49.24
-42.22
-36.63
-32.26
-28.18
-23.17
-16.19
-6.95
3.74
13.89
20.72
21.40
14.15
-0.80
-20.81
-41.30
-56.96
-63.50
-58.93
-44.20
-22.60
1.45
23.87
41.87
54.23
60.99
62.84
60.71
55.59
48.61
41.05
34.26
29.37
26.95
26.81
28.09
29.59
30.29
29.70
28.01
25.84
23.93
22.70
22.10
21.65
20.67
18.65
15.42
11.27
6.73
2.31
-1.81
-5.86
-10.34
-15.61
-21.53
-27.26
-31.45
-32.74
-30.30
-24.16
-15.13
-4.44
6.74
17.59
27.68
36.77
44.63
50.98
55.58
58.35
59.50
59.46
58.75
57.88
57.15
56.71
56.48
56.28
55.87
55.03
53.57
51.38
48.46
44.84
40.70
36.23
31.66
27.12
22.66
18.20
13.54
8.45
2.69
-3.89
-11.22
-18.83
-25.85
-31.14
-33.56
-32.35
-27.47
-19.59
-9.87
0.39
10.09
18.53
25.29
30.11
32.79
33.30
31.86
29.16
26.30
24.51
24.81
27.52
32.16
37.48
41.92
44.13
43.43
39.95
34.48
28.11
21.84
16.42
12.31
9.75
8.80
9.33
10.96
13.06
14.83
15.45
14.27
11.01
5.81
-0.64
-7.11
-12.11
-14.13
-12.17
-6.03
3.64
15.53
28.13
40.11
50.55
58.91
64.91
68.37
69.09
66.92
61.80
53.79
43.23
30.77
17.38
4.22
-7.57
-17.25
-24.59
-29.78
-33.23
-35.16
-35.53
-34.15
-30.94
-26.30
-21.12
-16.56
-13.56
-12.51
-13.08
-14.49
-15.91
-16.85
-17.34
-17.85
-19.05
-21.53
-25.49
-30.72
-36.49
-41.72
-45.26
-46.19
-44.09
-39.16
-32.07
-23.74
-15.05
-6.67
0.91
7.33
12.26
15.43
16.78
16.53
15.14
13.23
11.35
9.85
8.83
8.20
7.87
7.80
8.16
9.17
11.06
13.82
17.14
20.35
22.70
23.56
22.77
20.65
17.91
15.33
13.47
12.41
11.83
11.18
9.92
7.77
4.76
1.30
-2.01
-4.44
-5.33
-4.28
-1.22
3.49
9.22
15.31
21.29
26.99
32.44
37.65
42.37
45.98
47.70
46.81
42.92
36.10
26.85
16.01
4.49
-6.84
-17.24
-26.18
-33.29
-38.35
-41.19
-41.78
-40.26
-37.05
-32.83
-28.40
-24.50
-21.55
-19.60
-18.40
-17.63
-17.09
-16.81
-17.01
-17.92
-19.68
-22.16
-25.00
-27.61
-29.33
-29.62
-28.17
-25.04
-20.51
-15.06
-9.08
-2.86
3.41
9.58
15.44
20.68
24.97
28.07
29.93
30.70
30.74
30.48
30.34
30.62
31.38
32.49
33.67
34.60
35.11
35.17
34.94
34.59
34.25
33.88
33.33
32.43
30.99
28.95
26.28
23.03
19.25
15.02
10.37
5.31
-0.19
-6.10
-12.22
-18.10
-23.07
-26.49
-27.91
-27.25
-24.75
-20.84
-15.92
-10.23
-3.97
2.61
9.10
14.95
19.70
23.14
25.41
26.97
28.39
30.12
32.36
34.98
37.63
39.95
41.72
43.00
44.05
45.23
46.66
48.16
49.12
48.67
45.96
40.29
31.42
19.56
5.43
-9.92
-25.26
-39.44
-51.70
-61.84
-70.24
-77.72
-85.17
-93.15
-101.59
-109.69
-116.13
-119.49
-118.68
-113.34
-103.87
-91.39
-77.34
-63.11
-49.79
-38.01
-27.97
-19.58
-12.51
-6.35
-0.60
5.12
10.95
16.67
21.69
25.19
26.40
25.02
21.38
16.41
11.34
7.26
4.76
3.79
3.80
4.04
3.82
2.73
0.58
-2.64
-6.85
-11.88
-17.47
-23.18
-28.51
-33.09
-36.85
-40.16
-43.71
-48.12
-53.55
-59.37
-64.25
-66.55
-64.86
-58.52
-47.83
-33.92
-18.41
-2.96
10.91
22.10
29.86
33.81
33.98
30.86
25.34
18.58
11.74
5.75
1.13
-2.03
-3.91
-4.76
-4.77
-3.97
-2.40
-0.12
2.63
5.45
7.91
9.61
10.23
9.62
7.72
4.57
0.36
-4.58
-9.75
-14.61
-18.66
-21.61
-23.53
-24.82
-26.10
-27.98
-30.73
-34.10
-37.30
-39.24
-38.84
-35.48
-29.20
-20.64
-10.89
-1.02
8.10
15.98
22.42
27.32
30.58
32.07
31.73
29.80
26.81
23.55
20.77
18.95
18.09
17.76
17.34
16.31
14.50
12.08
9.46
7.02
4.96
3.26
1.70
0.03
-1.94
-4.31
-7.05
-10.01
-13.04
-15.93
-18.52
-20.74
-22.62
-24.35
-26.22
-28.47
-31.10
-33.80
-35.91
-36.55
-34.90
-30.47
-23.30
-13.99
-3.55
6.87
16.23
23.76
29.02
31.88
32.48
31.13
28.30
24.61
20.74
17.37
14.98
13.75
13.51
13.81
14.13
14.09
13.61
12.81
11.90
10.99
9.98
8.60
6.62
3.92
0.63
-2.98
-6.62
-10.13
-13.45
-16.60
-19.59
-22.45
-25.26
-28.24
-31.62
-35.55
-39.80
-43.69
-46.18
-46.20
-42.97
-36.37
-26.94
-15.71
-3.93
7.29
17.13
25.05
30.77
34.23
35.53
34.99
33.11
30.48
27.68
25.18
23.29
22.10
21.57
21.53
21.75
21.96
21.87
21.27
20.07
18.33
16.25
14.03
11.80
9.50
6.98
4.05
0.62
-3.22
-7.26
-11.25
-15.00
-18.44
-21.65
-24.79
-28.06
-31.68
-35.80
-40.39
-45.10
-49.22
-51.75
-51.60
-48.02
-40.80
-30.46
-18.08
-5.08
7.19
17.72
25.93
31.71
35.26
36.93
37.16
36.40
35.07
33.61
32.34
31.43
30.85
30.38
29.75
28.79
27.53
26.16
24.91
23.94
23.18
22.42
21.38
19.85
17.79
15.33
12.72
10.17
7.84
5.68
3.57
1.29
-1.30
-4.23
-7.37
-10.53
-13.52
-16.25
-18.78
-21.30
-24.09
-27.35
-31.05
-34.81
-37.80
-38.92
-37.08
-31.54
-22.25
-9.89
4.30
18.85
32.39
43.85
52.56
58.20
60.77
60.62
58.38
54.87
50.90
47.06
43.58
40.34
36.96
33.00
28.14
22.25
15.42
7.98
0.40
-6.77
-12.95
-17.65
-20.56
-21.64
-21.11
-19.41
-17.06
-14.54
-12.16
-10.02
-8.02
-6.04
-4.02
-2.06
-0.44
0.49
0.41
-0.86
-3.40
-7.17
-12.05
-17.78
-23.83
-29.39
-33.41
-34.92
-33.25
-28.39
-21.08
-12.50
-4.02
3.29
8.84
12.56
14.68
15.54
15.36
14.31
12.56
10.34
8.04
6.06
4.72
4.06
3.87
3.77
3.39
2.53
1.25
-0.24
-1.69
-3.01
-4.34
-5.91
-7.97
-10.61
-13.67
-16.84
-19.74
-22.05
-23.64
-24.52
-24.88
-25.03
-25.34
-26.08
-27.31
-28.78
-29.97
-30.24
-29.01
-25.99
-21.24
-15.16
-8.29
-1.21
5.56
11.59
16.50
20.03
21.97
22.34
21.37
19.47
17.17
14.95
13.09
11.63
10.34
8.84
6.76
3.84
0.02
-4.53
-9.50
-14.50
-19.20
-23.32
-26.70
-29.27
-31.05
-32.19
-32.88
-33.39
-33.90
-34.44
-34.79
-34.54
-33.20
-30.43
-26.16
-20.61
-14.15
-7.14
0.12
7.40
14.46
20.95
26.43
30.48
32.83
33.53
32.85
31.23
29.07
26.69
24.25
21.80
19.31
16.76
14.10
11.29
8.29
5.09
1.72
-1.67
-4.86
-7.57
-9.60
-10.88
-11.57
-11.99
-12.52
-13.43
-14.81
-16.48
-18.08
-19.23
-19.59
-18.94
-17.19
-14.36
-10.60
-6.21
-1.63
2.65
6.16
8.61
9.92
10.27
9.93
9.20
8.31
7.37
6.40
5.36
4.25
3.09
1.92
0.79
-0.29
-1.36
-2.49
-3.74
-5.16
-6.79
-8.61
-10.62
-12.80
-15.07
-17.28
-19.16
-20.34
-20.48
-19.28
-16.63
-12.59
-7.41
-1.52
4.55
10.22
15.03
18.65
21.03
22.26
22.61
22.34
21.63
20.58
19.21
17.54
15.65
13.71
11.93
10.50
9.54
9.03
8.81
8.59
8.06
6.98
5.26
3.03
0.51
-2.07
-4.54
-6.94
-9.41
-12.15
-15.32
-18.88
-22.63
-26.19
-29.05
-30.66
-30.52
-28.31
-24.04
-18.03
-10.91
-3.42
3.83
10.46
16.37
21.62
26.22
30.04
32.86
34.51
34.99
34.53
33.49
32.16
30.67
28.98
26.95
24.52
21.79
18.95
16.24
13.82
11.76
9.97
8.32
6.63
4.75
2.60
0.20
-2.32
-4.77
-7.02
-9.04
-10.89
-12.73
-14.70
-16.89
-19.34
-22.04
-24.96
-27.96
-30.73
-32.76
-33.45
-32.22
-28.78
-23.21
-15.98
-7.78
0.64
8.66
15.80
21.82
26.59
30.09
32.38
33.60
33.96
33.73
33.17
32.51
31.87
31.26
30.65
29.95
29.14
28.25
27.33
26.41
25.48
24.45
23.15
21.46
19.30
16.75
13.98
11.22
8.69
6.47
4.51
2.63
0.62
-1.65
-4.19
-6.90
-9.63
-12.28
-14.82
-17.27
-19.65
-21.94
-24.09
-26.10
-28.11
-30.30
-32.86
-35.70
-38.41
-40.27
-40.46
-38.42
-33.96
-27.38
-19.31
-10.49
-1.57
6.95
14.73
21.43
26.76
30.45
32.35
32.56
31.43
29.50
27.33
25.39
23.92
22.91
22.22
21.68
21.19
20.72
20.30
19.89
19.39
18.64
17.51
15.97
14.09
12.01
9.88
7.77
5.70
3.62
1.51
-0.64
-2.81
-4.95
-7.05
-9.15
-11.25
-13.33
-15.34
-17.21
-18.89
-20.38
-21.74
-23.06
-24.49
-26.15
-28.09
-30.25
-32.39
-34.10
-34.90
-34.36
-32.25
-28.57
-23.54
-17.48
-10.68
-3.42
4.03
11.25
17.66
22.65
25.75
26.84
26.18
24.38
22.17
20.13
18.59
17.61
17.05
16.71
16.45
16.16
15.77
15.22
14.45
13.42
12.14
10.67
9.08
7.44
5.79
4.13
2.46
0.75
-1.01
-2.79
-4.55
-6.24
-7.86
-9.42
-11.01
-12.68
-14.46
-16.31
-18.13
-19.86
-21.54
-23.28
-25.20
-27.30
-29.36
-30.97
-31.65
-31.01
-28.90
-25.38
-20.65
-14.93
-8.50
-1.67
5.09
11.16
15.90
18.88
20.00
19.59
18.26
16.64
15.15
13.97
12.99
12.03
10.95
9.76
8.60
7.66
7.05
6.73
6.53
6.20
5.55
4.50
3.13
1.61
0.04
-1.53
-3.14
-4.87
-6.71
-8.52
-10.19
-11.62
-12.87
-14.15
-15.65
-17.49
-19.57
-21.70
-23.73
-25.59
-27.39
-29.19
-30.95
-32.40
-33.11
-32.69
-30.83
-27.47
-22.71
-16.83
-10.18
-3.23
3.50
9.42
14.05
17.15
18.70
18.99
18.39
17.26
15.86
14.35
12.80
11.27
9.82
8.55
7.55
6.89
6.56
6.47
6.44
6.29
5.83
4.97
3.76
2.35
0.96
-0.25
-1.24
-2.12
-3.11
-4.39
-6.07
-8.05
-10.15
-12.14
-13.92
-15.57
-17.29
-19.27
-21.53
-23.86
-25.85
-27.03
-27.00
-25.57
-22.75
-18.68
-13.62
-7.88
-1.87
3.97
9.13
13.21
15.96
17.35
17.59
16.98
15.86
14.52
13.18
12.00
11.11
10.54
10.25
10.10
9.89
9.44
8.66
7.60
6.36
5.05
3.70
2.31
0.79
-0.87
-2.66
-4.50
-6.28
-7.96
-9.59
-11.25
-13.04
-14.96
-16.91
-18.69
-20.12
-21.20
-22.12
-23.19
-24.62
-26.28
-27.70
-28.15
-27.01
-23.95
-19.09
-12.90
-5.98
1.08
7.80
13.79
18.69
22.22
24.28
24.98
24.66
23.76
22.65
21.58
20.55
19.52
18.41
17.23
16.07
15.07
14.34
13.87
13.55
13.21
12.67
11.81
10.62
9.16
7.52
5.77
3.94
2.01
-0.03
-2.23
-4.57
-7.00
-9.44
-11.79
-14.04
-16.25
-18.56
-21.06
-23.72
-26.26
-28.23
-29.14
-28.65
-26.65
-23.30
-18.84
-13.52
-7.52
-1.05
5.53
11.70
16.85
20.51
22.47
22.90
22.21
20.95
19.57
18.40
17.55
17.01
16.72
16.56
16.42
16.22
15.91
15.47
14.95
14.38
13.80
13.16
12.39
11.34
9.85
7.82
5.22
2.15
-1.16
-4.48
-7.58
-10.38
-12.96
-15.54
-18.37
-21.52
-24.82
-27.80
-29.87
-30.52
-29.44
-26.63
-22.37
-17.08
-11.23
-5.28
0.35
5.23
9.08
11.70
13.16
13.72
13.77
13.71
13.85
14.33
15.10
15.99
16.81
17.40
17.74
17.91
18.07
18.28
18.44
18.22
17.25
15.23
12.17
8.39
4.39
0.65
-2.60
-5.41
-7.98
-10.52
-13.11
-15.70
-18.20
-20.59
-22.86
-24.99
-26.75
-27.79
-27.66
-26.00
-22.68
-17.87
-11.99
-5.59
0.78
6.63
11.61
15.50
18.23
19.83
20.44
20.23
19.43
18.28
17.04
15.90
15.00
14.33
13.79
13.20
12.43
11.41
10.22
9.01
7.88
6.87
5.91
4.83
3.48
1.76
-0.32
-2.66
-5.13
-7.55
-9.80
-11.83
-13.73
-15.65
-17.74
-19.94
-21.96
-23.27
-23.28
-21.58
-18.10
-13.15
-7.28
-1.08
4.93
10.37
14.95
18.39
20.48
21.15
20.55
19.11
17.36
15.76
14.55
13.71
13.07
12.38
11.49
10.41
9.24
8.13
7.18
6.37
5.60
4.66
3.37
1.64
-0.53
-3.03
-5.68
-8.30
-10.77
-13.03
-15.05
-16.90
-18.67
-20.51
-22.55
-24.79
-27.02
-28.79
-29.54
-28.72
-26.03
-21.51
-15.56
-8.81
-1.98
4.32
9.64
13.78
16.66
18.31
18.85
18.49
17.53
16.34
15.27
14.54
14.15
13.90
13.52
12.86
11.94
10.99
10.31
10.00
9.96
9.87
9.37
8.25
6.53
4.45
2.30
0.30
-1.48
-3.15
-4.86
-6.75
-8.92
-11.39
-14.15
-17.10
-20.00
-22.42
-23.88
-23.88
-22.15
-18.72
-13.89
-8.15
-2.04
4.02
9.67
14.65
18.73
21.68
23.40
23.93
23.48
22.39
21.00
19.59
18.30
17.15
16.07
14.99
13.83
12.59
11.29
9.97
8.65
7.25
5.68
3.79
1.52
-1.07
-3.78
-6.38
-8.64
-10.50
-12.02
-13.38
-14.79
-16.39
-18.22
-20.17
-22.03
-23.46
-24.07
-23.48
-21.42
-17.85
-13.01
-7.40
-1.67
3.58
7.91
11.13
13.28
14.50
14.96
14.80
14.11
12.96
11.46
9.81
8.23
6.91
5.98
5.40
5.04
4.70
4.21
3.49
2.57
1.49
0.32
-0.98
-2.46
-4.19
-6.13
-8.14
-10.11
-11.94
-13.74
-15.69
-17.99
-20.62
-23.31
-25.52
-26.63
-26.18
-24.00
-20.23
-15.25
-9.47
-3.33
2.82
8.63
13.69
17.60
20.02
20.80
20.10
18.33
16.08
13.90
12.13
10.86
9.93
9.11
8.22
7.20
6.15
5.20
4.43
3.81
3.23
2.51
1.51
0.16
-1.56
-3.62
-5.97
-8.57
-11.41
-14.56
-18.10
-22.07
-26.33
-30.49
-33.88
-35.70
-35.21
-31.96
-25.95
-17.62
-7.80
2.52
12.35
20.89
27.60
32.22
34.80
35.57
34.89
33.04
30.25
26.59
22.15
17.06
11.65
6.32
1.49
-2.65
-6.20
-9.49
-12.96
-16.87
-21.24
-25.80
-30.18
-34.02
-37.15
-39.65
-41.75
-43.87
-46.43
-49.74
-53.82
-58.20
-61.96
-63.88
-62.85
-58.25
-50.17
-39.43
-27.23
-14.81
-3.16
7.17
15.91
23.01
28.51
32.49
35.14
36.76
37.69
38.26
38.69
39.01
39.15
38.94
38.25
36.99
35.11
32.65
29.68
26.37
22.88
19.36
15.83
12.18
8.20
3.71
-1.35
-6.87
-12.65
-18.43
-23.86
-28.49
-31.74
-32.98
-31.67
-27.59
-20.92
-12.22
-2.28
8.09
18.12
27.14
34.52
39.75
42.49
42.77
40.99
37.93
34.45
31.35
29.07
27.68
26.88
26.23
25.33
23.93
21.98
19.54
16.72
13.59
10.27
6.95
3.90
1.39
-0.45
-1.78
-3.05
-4.84
-7.56
-11.17
-15.11
-18.36
-19.88
-18.91
-15.29
-9.46
-2.24
5.42
12.72
19.10
24.24
27.92
30.04
30.60
29.73
27.76
25.12
22.30
19.68
17.46
15.67
14.12
12.57
10.76
8.58
6.07
3.43
0.91
-1.36
-3.39
-5.39
-7.60
-10.23
-13.36
-16.95
-20.87
-24.90
-28.68
-31.74
-33.48
-33.32
-30.89
-26.18
-19.57
-11.79
-3.65
4.09
10.84
16.21
19.94
21.93
22.23
21.07
18.89
16.25
13.68
11.53
9.94
8.79
7.83
6.78
5.48
3.85
1.95
-0.16
-2.39
-4.66
-6.91
-9.13
-11.32
-13.60
-16.18
-19.23
-22.83
-26.72
-30.30
-32.72
-33.16
-31.04
-26.32
-19.40
-11.02
-2.05
6.69
14.54
20.95
25.53
28.08
28.64
27.53
25.25
22.39
19.46
16.81
14.61
12.84
11.39
10.09
8.76
7.23
5.45
3.47
1.39
-0.65
-2.57
-4.37
-6.14
-8.00
-10.10
-12.58
-15.51
-18.90
-22.55
-26.08
-28.89
-30.33
-29.82
-27.05
-22.10
-15.37
-7.47
0.94
9.27
16.95
23.42
28.09
30.40
30.02
27.01
22.05
16.32
11.26
8.18
7.80
10.08
14.20
18.92
22.95
25.31
25.57
23.76
20.26
15.58
10.23
4.71
-0.59
-5.34
-9.35
-12.63
-15.37
-17.89
-20.53
-23.53
-26.94
-30.70
-34.57
-38.20
-41.11
-42.71
-42.42
-39.77
-34.60
-27.12
-17.94
-7.88
2.16
11.39
19.24
25.35
29.60
32.04
32.85
32.31
30.72
28.43
25.81
23.23
21.02
19.41
18.47
18.08
18.02
18.03
17.88
