1653033660.00
64.000000
-0.00
-0.00
-0.00
-0.00
-0.00
-0.00
-0.00
-0.00
-0.00
-0.00
0.00
0.01
0.01
-0.00
-0.03
-0.05
-0.05
0.00
0.13
0.36
0.66
1.01
1.37
1.72
2.06
2.40
2.79
3.24
3.80
4.42
5.06
5.66
6.20
6.68
7.15
7.68
8.31
9.14
10.09
11.04
11.88
12.56
13.14
13.76
14.65
15.96
17.91
20.32
22.90
25.38
27.58
29.57
31.68
34.32
37.81
42.54
48.15
54.10
59.83
64.97
69.58
74.14
79.34
85.71
93.76
103.00
112.62
121.73
129.77
136.75
143.30
150.75
157.77
166.64
177.95
191.79
206.97
220.57
228.25
225.36
208.53
176.87
132.76
80.05
23.07
-34.94
-92.44
-149.16
-205.23
-260.37
-313.74
-363.87
-409.83
-450.91
-486.50
-515.74
-537.23
-549.22
-549.96
-538.37
-514.21
-478.67
-433.88
-382.45
-327.02
-269.84
-212.63
-156.66
-102.95
-52.37
-5.90
35.58
71.43
101.35
125.50
144.38
158.69
169.15
176.37
180.75
182.57
182.07
179.51
175.23
169.65
163.18
156.15
148.81
141.30
133.69
126.02
118.33
110.68
103.15
95.81
88.70
81.86
75.28
68.96
62.91
57.12
51.64
46.48
41.67
37.22
33.10
29.28
25.74
22.43
19.37
16.56
14.03
11.81
9.89
8.23
6.77
5.46
4.24
3.10
2.08
1.24
0.62
0.23
-0.01
-0.23
-0.56
-1.09
-1.79
-2.55
-3.18
-3.51
-3.52
-3.32
-3.18
-3.37
-4.06
-5.19
-6.51
-7.62
-8.20
-8.18
-7.76
-7.41
-7.59
-8.59
-10.33
-12.36
-14.12
-15.14
-15.30
-14.85
-14.30
-14.18
-14.86
-16.57
-19.37
-23.02
-26.80
-29.34
-28.90
-24.02
-14.35
-1.11
13.15
25.46
33.67
37.19
36.98
34.79
32.18
29.87
27.76
25.46
22.81
20.16
18.14
17.22
17.39
18.11
18.67
18.40
17.18
15.45
13.92
13.27
13.84
15.38
17.26
18.77
19.49
19.42
18.88
18.35
18.17
18.41
18.90
19.27
19.15
18.22
16.33
13.53
10.13
6.34
2.40
-1.48
-5.23
-8.83
-12.20
-15.22
-17.68
-19.46
-20.53
-20.99
-20.95
-20.49
-19.72
-18.67
-17.49
-16.27
-15.11
-14.06
-13.07
-12.11
-11.23
-10.54
-10.13
-10.08
-10.30
-10.60
-10.70
-10.34
-9.29
-7.42
-4.74
-1.45
2.02
5.16
7.43
8.57
8.60
7.83
6.72
5.62
4.78
4.22
3.97
3.99
4.30
4.92
5.80
6.84
7.88
8.82
9.63
10.39
11.17
11.98
12.76
13.41
13.86
14.15
14.41
14.75
15.24
15.82
16.40
16.81
16.94
16.76
16.31
15.69
14.95
14.09
13.07
11.85
10.46
8.96
7.45
5.97
4.48
2.84
0.96
-1.12
-3.19
-4.89
-5.81
-5.67
-4.43
-2.29
0.41
3.24
5.89
8.13
9.88
11.10
11.83
12.09
11.89
11.29
10.37
9.27
8.14
7.12
6.23
5.43
4.62
3.73
2.80
1.95
1.32
0.98
0.89
0.88
0.81
0.61
0.33
0.09
-0.00
0.06
0.20
0.33
0.36
0.35
0.37
0.51
0.77
1.04
1.18
1.00
0.43
-0.54
-1.74
-3.00
-4.15
-5.08
-5.79
-6.35
-6.87
-7.50
-8.38
-9.64
-11.36
-13.46
-15.72
-17.81
-19.45
-20.51
-21.10
-21.53
-22.14
-23.12
-24.43
-25.72
-26.61
-26.72
-25.81
-23.85
-20.99
-17.42
-13.42
-9.30
-5.34
-1.84
1.01
3.13
4.60
5.59
6.27
6.76
7.11
7.37
7.55
7.68
7.76
7.77
7.64
7.31
6.77
6.08
5.36
4.66
4.01
3.35
2.61
1.74
0.77
-0.26
-1.31
-2.35
-3.36
-4.32
-5.18
-5.95
-6.60
-7.17
-7.71
-8.26
-8.88
-9.61
-10.48
-11.48
-12.59
-13.79
-15.08
-16.47
-17.97
-19.45
-20.62
-21.04
-20.30
-18.21
-14.89
-10.80
-6.53
-2.59
0.76
3.50
5.73
7.57
9.04
10.12
10.77
11.08
11.18
11.18
11.14
11.05
10.87
10.60
10.28
9.99
9.79
9.67
9.60
9.49
9.35
9.24
9.21
9.31
9.48
9.61
9.55
9.23
8.70
8.13
7.65
7.33
7.09
6.74
6.08
5.04
3.76
2.49
1.51
0.91
0.59
0.30
-0.27
-1.26
-2.59
-4.02
-5.24
-6.12
-6.67
-7.07
-7.52
-8.20
-9.18
-10.42
-11.84
-13.30
-14.67
-15.82
-16.71
-17.39
-18.03
-18.81
-19.93
-21.47
-23.32
-25.14
-26.45
-26.70
-25.48
-22.67
-18.53
-13.65
-8.77
-4.50
-1.16
1.25
2.98
4.34
5.53
6.62
7.56
8.32
8.93
9.42
9.84
10.18
10.40
10.48
10.39
10.20
9.97
9.82
9.79
9.87
9.98
10.01
9.86
9.53
9.11
8.72
8.43
8.20
7.89
7.34
6.43
5.20
3.76
2.28
0.91
-0.30
-1.34
-2.22
-2.96
-3.62
-4.34
-5.29
-6.62
-8.43
-10.69
-13.22
-15.85
-18.41
-20.84
-23.19
-25.57
-28.00
-30.33
-32.21
-33.17
-32.83
-31.03
-27.97
-24.17
-20.29
-16.90
-14.33
-12.59
-11.46
-10.65
-9.96
-9.36
-8.91
-8.65
-8.53
-8.37
-7.96
-7.17
-6.05
-4.76
-3.53
-2.53
-1.80
-1.28
-0.91
-0.67
-0.61
-0.86
-1.47
-2.41
-3.56
-4.71
-5.67
-6.29
-6.56
-6.56
-6.44
-6.29
-6.15
-5.95
-5.59
-5.04
-4.32
-3.56
-2.89
-2.42
-2.19
-2.18
-2.38
-2.76
-3.32
-4.05
-4.89
-5.73
-6.41
-6.78
-6.75
-6.37
-5.88
-5.59
-5.81
-6.69
-8.19
-10.04
-11.83
-13.06
-13.22
-11.95
-9.07
-4.75
0.53
6.01
10.86
14.41
16.41
16.99
16.60
15.82
15.14
14.84
14.97
15.41
16.00
16.59
17.13
17.61
18.13
18.76
19.52
20.37
21.20
21.87
22.30
22.47
22.42
22.24
21.99
21.64
21.14
20.43
19.52
18.51
17.48
16.45
15.37
14.16
12.82
11.44
10.16
9.12
8.31
7.65
6.96
6.16
5.24
4.26
3.31
2.41
1.56
0.78
0.08
-0.50
-1.00
-1.54
-2.28
-3.29
-4.60
-6.06
-7.53
-8.87
-10.04
-11.10
-12.18
-13.43
-14.94
-16.78
-18.90
-21.08
-23.00
-24.22
-24.38
-23.28
-20.95
-17.66
-13.82
-9.79
-5.88
-2.24
1.07
4.03
6.69
9.05
11.13
12.92
14.34
15.38
16.03
16.41
16.66
16.98
17.48
18.19
19.04
19.93
20.77
21.50
22.10
22.56
22.88
23.04
23.03
22.82
22.32
21.48
20.26
18.76
17.13
15.56
14.17
12.99
11.98
11.05
10.13
9.10
7.88
6.37
4.49
2.32
0.03
-2.19
-4.21
-6.07
-7.99
-10.19
-12.85
-15.94
-19.31
-22.69
-25.76
-28.11
-29.32
-29.04
-27.04
-23.47
-18.80
-13.74
-9.01
-5.10
-2.17
-0.12
1.29
2.29
2.97
3.34
3.35
3.00
2.34
1.47
0.49
-0.55
-1.67
-2.96
-4.49
-6.28
-8.26
-10.27
-12.14
-13.80
-15.29
-16.72
-18.20
-19.78
-21.46
-23.28
-25.31
-27.68
-30.47
-33.62
-36.90
-40.02
-42.74
-45.03
-47.06
-49.13
-51.47
-54.15
-56.98
-59.54
-61.33
-61.90
-60.96
-58.47
-54.68
-50.06
-45.14
-40.37
-36.01
-32.15
-28.73
-25.73
-23.25
-21.61
-21.21
-22.44
-25.38
-29.70
-34.60
-38.89
-41.31
-40.84
-36.97
-29.89
-20.33
-9.43
1.63
11.86
20.59
27.60
33.06
37.45
41.43
45.66
50.66
56.61
63.41
70.69
78.04
85.10
91.66
97.58
102.78
107.09
110.39
112.61
114.01
115.06
116.18
117.62
119.26
120.80
121.86
122.14
121.50
120.03
117.60
113.53
106.29
93.80
74.22
46.79
12.35
-26.65
-66.56
-103.88
-136.42
-163.82
-187.19
-208.01
-227.21
-244.67
-259.19
-267.99
-268.11
-257.74
-237.20
-209.16
-177.70
-147.00
-120.00
-97.23
-74.61
-45.60
-4.50
50.12
113.60
175.78
223.15
242.39
224.52
171.49
94.84
11.79
-60.84
-111.29
-134.83
-133.40
-113.20
-81.27
-38.54
17.66
89.75
175.85
269.65
363.77
453.35
537.21
593.02
600.08
549.03
450.75
328.98
206.53
98.71
13.01
-50.49
-97.86
-133.75
-159.70
-173.25
-170.26
-148.75
-112.11
-69.11
-31.47
-9.84
-6.77
-17.48
-33.15
-45.24
-48.65
-42.12
-27.54
-9.14
8.10
21.81
32.02
38.56
41.54
41.66
40.25
38.81
38.18
38.38
40.23
44.73
51.86
59.48
62.84
55.70
32.54
-9.32
-67.92
-136.14
-203.73
-260.71
-300.51
-321.85
-328.30
-325.99
-320.58
-314.89
-308.12
-296.99
-277.82
-248.53
-209.21
-161.78
-108.78
-52.63
4.58
60.89
114.38
163.28
205.88
240.87
267.38
284.77
292.53
290.22
277.51
254.30
220.80
177.26
125.27
68.10
10.10
-44.34
-92.10
-132.06
-164.81
-191.73
-214.80
-234.27
-248.78
-256.50
-256.17
-248.18
-234.63
-218.73
-204.10
-194.96
-193.26
-197.73
-204.22
-206.48
-199.13
-179.88
-150.30
-107.72
-57.88
-11.43
22.43
41.62
51.67
60.91
74.10
91.24
109.82
126.48
140.80
152.50
164.01
180.27
205.11
239.90
283.67
334.27
388.36
442.59
492.51
516.61
496.85
428.02
323.37
207.41
102.95
22.30
-32.72
-67.50
-89.33
-101.78
-105.57
-100.68
-88.75
-73.68
-60.44
-52.67
-51.78
-56.24
-61.36
-62.32
-56.71
-45.57
-32.54
-22.00
-17.18
-20.04
-29.39
-41.56
-52.53
-59.68
-62.77
-63.70
-65.27
-68.02
-73.78
-82.31
-91.33
-97.88
-99.75
-96.68
-90.19
-82.87
-77.18
-74.69
-75.16
-77.35
-80.15
-82.97
-85.36
-86.02
-82.11
-70.30
-48.53
-17.48
18.56
53.36
81.58
101.25
113.89
122.25
127.30
126.97
117.55
96.67
66.24
32.41
3.57
-13.58
-16.98
-9.68
2.65
14.69
23.86
30.40
35.81
41.00
45.16
46.31
42.42
33.23
20.32
6.24
-6.48
-16.79
-25.24
-33.53
-41.89
-51.81
-62.89
-73.44
-81.61
-86.13
-87.19
-86.06
-84.45
-83.83
-85.43
-89.70
-96.50
-104.68
-111.56
-113.06
-104.89
-84.59
-53.24
-15.92
20.43
49.34
67.25
74.44
73.78
68.98
62.83
56.76
51.59
49.06
51.68
61.56
78.21
97.29
111.66
113.83
99.38
69.65
31.96
-3.85
-29.44
-41.58
-42.81
-39.22
-37.17
-40.65
-50.61
-65.34
-81.86
-96.59
-105.74
-105.76
-94.58
-72.99
-44.26
-15.63
6.38
18.27
20.42
15.99
8.86
1.91
-3.66
-7.51
-9.48
-8.70
-4.33
3.94
15.08
27.07
37.82
45.69
50.32
52.05
51.90
50.65
48.41
44.51
37.97
27.99
14.14
-2.37
-19.81
-36.11
-49.48
-58.84
-63.88
-65.01
-62.97
-58.71
-52.76
-45.55
-37.36
-28.50
-19.44
-10.78
-3.22
2.67
6.49
8.23
8.13
6.69
4.48
2.11
0.01
-1.57
-2.64
-3.46
-4.35
-5.55
-7.16
-9.04
-10.88
-12.27
-12.93
-12.81
-12.18
-11.51
-11.05
-10.90
-10.84
-10.40
-9.03
-6.36
-2.38
2.48
7.65
12.93
18.34
24.24
31.27
40.24
52.23
68.60
90.93
118.07
148.57
179.42
206.29
224.80
232.18
228.46
216.46
200.48
184.57
171.69
163.17
159.40
160.55
166.65
177.04
189.76
201.66
209.35
210.87
206.24
197.48
187.62
179.54
175.01
174.26
175.98
177.58
175.76
167.01
148.53
119.16
79.86
33.45
-16.24
-65.69
-112.61
-156.27
-197.20
-236.61
-275.65
-315.05
-354.81
-394.07
-431.13
-463.61
-489.03
-505.52
-512.46
-510.72
-502.30
-489.48
-473.94
-456.10
-435.18
-409.75
-378.53
-341.16
-298.31
-251.44
-202.18
-151.61
-99.83
-46.10
10.44
69.58
129.13
184.80
231.21
263.53
279.29
279.15
266.58
246.30
222.64
198.35
174.64
151.89
130.52
111.33
95.14
82.15
71.50
61.62
50.96
38.88
25.97
13.86
4.53
-0.56
-0.97
2.79
9.68
18.79
29.65
42.26
56.56
72.06
87.63
101.70
112.86
120.34
124.14
124.86
123.24
119.78
114.69
108.07
100.19
91.61
83.00
74.90
67.51
60.69
54.14
47.60
41.09
34.82
29.16
24.41
20.72
17.95
15.80
13.93
12.03
9.99
7.84
5.73
3.79
2.06
0.41
-1.39
-3.58
-6.29
-9.43
-12.72
-15.80
-18.44
-20.64
-22.60
-24.62
-26.86
-29.27
-31.52
-33.22
-34.07
-34.03
-33.26
-32.03
-30.61
-29.10
-27.54
-25.91
-24.23
-22.58
-21.08
-19.84
-18.92
-18.27
-17.82
-17.42
-16.94
-16.27
-15.41
-14.42
-13.40
-12.49
-11.78
-11.29
-10.98
-10.74
-10.48
-10.11
-9.63
-9.14
-8.75
-8.61
-8.80
-9.27
-9.92
-10.57
-11.10
-11.46
-11.65
-11.71
-11.69
-11.61
-11.48
-11.36
-11.38
-11.66
-12.23
-13.05
-13.92
-14.66
-15.11
-15.29
-15.28
-15.26
-15.34
-15.54
-15.80
-15.97
-15.91
-15.49
-14.66
-13.45
-11.93
-10.21
-8.39
-6.56
-4.78
-3.10
-1.58
-0.27
0.79
1.60
2.25
2.85
3.51
4.33
5.27
6.22
7.03
7.53
7.62
7.31
6.74
6.10
5.55
5.16
4.87
4.53
4.01
3.30
2.52
1.84
1.42
1.31
1.40
1.52
1.52
1.31
0.91
0.37
-0.27
-1.01
-1.87
-2.83
-3.86
-4.83
-5.68
-6.34
-6.77
-6.96
-6.85
-6.38
-5.54
-4.44
-3.31
-2.45
-2.12
-2.41
-3.18
-4.21
-5.26
-6.21
-7.12
-8.12
-9.32
-10.77
-12.41
-14.09
-15.62
-16.75
-17.23
-16.85
-15.53
-13.37
-10.67
-7.80
-5.08
-2.71
-0.72
0.94
2.33
3.43
4.19
4.56
4.54
4.21
3.70
3.17
2.74
2.53
2.57
2.84
3.20
3.50
3.59
3.42
3.03
2.47
1.80
1.00
0.03
-1.16
-2.53
-3.99
-5.38
-6.57
-7.50
-8.16
-8.62
-9.00
-9.38
-9.87
-10.52
-11.29
-12.06
-12.68
-12.96
-12.85
-12.46
-12.04
-11.90
-12.31
-13.35
-14.91
-16.74
-18.49
-19.84
-20.53
-20.41
-19.41
-17.58
-15.05
-12.03
-8.78
-5.51
-2.42
0.42
2.97
5.28
7.38
9.31
11.08
12.63
13.92
14.86
15.42
15.59
15.41
14.95
14.31
13.60
12.90
12.30
11.86
11.55
11.35
11.15
10.88
10.49
9.98
9.42
8.87
8.41
8.05
7.77
7.49
7.15
6.74
6.27
5.82
5.41
5.08
4.80
4.55
4.33
4.13
3.94
3.72
3.40
2.92
2.24
1.38
0.37
-0.72
-1.88
-3.07
-4.22
-5.25
-6.08
-6.71
-7.24
-7.89
-8.85
-10.19
-11.74
-13.15
-14.02
-13.98
-12.88
-10.77
-7.87
-4.51
-1.04
2.25
5.14
7.49
9.30
10.64
11.68
12.55
13.32
13.96
14.35
14.40
14.10
13.49
12.67
11.73
10.66
9.43
8.01
6.46
4.90
3.50
2.36
1.50
0.82
0.23
-0.37
-0.97
-1.53
-2.00
-2.38
-2.69
-3.00
-3.35
-3.76
-4.23
-4.75
-5.31
-5.91
-6.52
-7.11
-7.63
-8.06
-8.40
-8.69
-9.05
-9.56
-10.27
-11.16
-12.14
-13.09
-13.91
-14.59
-15.20
-15.87
-16.78
-18.01
-19.56
-21.28
-22.89
-24.05
-24.39
-23.67
-21.83
-19.00
-15.50
-11.71
-8.02
-4.72
-2.01
0.04
1.48
2.46
3.18
3.81
4.49
5.22
5.97
6.66
7.28
7.82
8.36
8.98
9.75
10.67
11.71
12.77
13.73
14.48
14.90
14.96
14.66
14.08
13.30
12.44
11.58
10.79
10.11
9.58
9.18
8.89
8.69
8.50
8.24
7.81
7.10
6.04
4.62
2.86
0.87
-1.20
-3.12
-4.68
-5.67
-6.01
-5.75
-5.10
-4.32
-3.68
-3.33
-3.29
-3.48
-3.77
-4.07
-4.35
-4.65
-5.01
-5.48
-6.06
-6.77
-7.65
-8.75
-10.14
-11.74
-13.28
-14.32
-14.30
-12.81
-9.70
-5.26
-0.08
5.06
9.51
12.82
14.85
15.69
15.53
14.65
13.31
11.81
10.43
9.46
9.10
9.37
10.10
10.98
11.65
11.84
11.46
10.67
9.72
8.90
8.35
8.08
7.97
7.87
7.71
7.46
7.11
6.66
6.08
5.34
4.43
3.40
2.32
1.28
0.32
-0.55
-1.36
-2.14
-2.90
-3.60
-4.13
-4.38
-4.25
-3.75
-3.10
-2.63
-2.72
-3.60
-5.27
-7.43
-9.65
-11.49
-12.67
-13.11
-12.90
-12.24
-11.33
-10.42
-9.77
-9.61
-10.07
-11.06
-12.27
-13.25
-13.60
-13.15
-11.97
-10.31
-8.45
-6.54
-4.62
-2.71
-0.90
0.66
1.81
2.51
2.87
3.09
3.32
3.63
3.91
4.06
4.03
3.87
3.74
3.78
4.11
4.70
5.49
6.35
7.12
7.64
7.80
7.53
6.93
6.15
5.41
4.86
4.51
4.26
3.99
3.58
3.04
2.43
1.81
1.21
0.62
0.07
-0.39
-0.70
-0.86
-0.97
-1.23
-1.83
-2.82
-4.10
-5.42
-6.55
-7.35
-7.91
-8.41
-9.11
-10.21
-11.73
-13.50
-15.22
-16.51
-17.02
-16.55
-15.10
-12.85
-10.12
-7.25
-4.52
-2.12
-0.10
1.58
2.99
4.22
5.31
6.30
7.15
7.87
8.46
8.93
9.34
9.72
10.08
10.46
10.84
11.22
11.55
11.78
11.86
11.74
11.47
11.12
10.81
10.62
10.54
10.45
10.21
9.69
8.88
7.83
6.65
5.46
4.32
3.28
2.29
1.29
0.18
-1.15
-2.74
-4.58
-6.56
-8.47
-10.13
-11.44
-12.39
-13.12
-13.88
-14.85
-16.13
-17.61
-19.01
-19.92
-19.99
-19.03
-17.09
-14.43
-11.44
-8.49
-5.84
-3.60
-1.77
-0.26
1.03
2.20
3.29
4.29
5.15
5.82
6.24
6.44
6.53
6.59
6.75
7.04
7.40
7.76
8.03
8.16
8.18
8.12
8.05
7.97
7.90
7.84
7.81
7.83
7.93
8.06
8.12
7.98
7.55
6.84
5.99
5.14
4.42
3.87
3.49
3.22
3.04
2.94
2.86
2.74
2.48
1.99
1.27
0.39
-0.54
-1.43
-2.21
-2.89
-3.53
-4.23
-5.04
-5.99
-7.05
-8.14
-9.20
-10.22
-11.27
-12.50
-14.01
-15.76
-17.47
-18.75
-19.18
-18.50
-16.74
-14.17
-11.14
-7.98
-4.90
-2.03
0.51
2.61
4.19
5.23
5.85
6.25
6.63
7.11
7.69
8.28
8.76
9.09
9.29
9.43
9.58
9.80
10.09
10.40
10.68
10.90
11.02
11.04
10.97
10.79
10.50
10.03
9.37
8.52
7.60
6.76
6.15
5.82
5.73
5.70
5.53
5.10
4.40
3.51
2.57
1.69
0.94
0.31
-0.21
-0.65
-1.09
-1.61
-2.30
-3.22
-4.38
-5.66
-6.90
-7.94
-8.68
-9.16
-9.53
-10.04
-10.91
-12.29
-14.16
-16.30
-18.36
-19.92
-20.60
-20.15
-18.50
-15.81
-12.41
-8.76
-5.33
-2.47
-0.33
1.17
2.32
3.41
4.63
5.95
7.21
8.19
8.78
8.98
8.92
8.74
8.57
8.47
8.45
8.55
8.81
9.25
9.83
10.40
10.78
10.84
10.51
9.85
9.01
8.20
7.53
7.07
6.79
6.55
6.21
5.65
4.85
3.90
2.98
2.24
1.79
1.60
1.52
1.38
1.04
0.48
-0.21
-0.89
-1.46
-1.91
-2.34
-2.90
-3.76
-4.99
-6.52
-8.19
-9.75
-10.98
-11.79
-12.24
-12.54
-12.97
-13.79
-15.12
-16.94
-18.98
-20.86
-22.15
-22.47
-21.60
-19.57
-16.62
-13.10
-9.37
-5.74
-2.40
0.51
2.92
4.75
5.99
6.72
7.11
7.37
7.69
8.15
8.73
9.30
9.71
9.87
9.73
9.38
8.95
8.60
8.47
8.61
8.97
9.42
9.82
10.04
10.02
9.76
9.34
8.82
8.29
7.80
7.36
6.95
6.51
5.97
5.30
4.53
3.71
2.91
2.15
1.40
0.63
-0.19
-1.05
-1.91
-2.77
-3.66
-4.67
-5.85
-7.19
-8.62
-10.05
-11.49
-13.00
-14.69
-16.59
-18.56
-20.26
-21.27
-21.25
-19.99
-17.56
-14.22
-10.41
-6.61
-3.23
-0.54
1.38
2.65
3.53
4.27
5.07
5.99
6.94
7.78
8.44
8.90
9.24
9.55
9.90
10.32
10.81
11.32
11.84
12.30
12.65
12.82
12.72
12.33
11.66
10.80
9.87
9.00
8.26
7.67
7.18
6.72
6.29
5.88
5.56
5.32
5.12
4.82
4.32
3.59
2.72
1.89
1.23
0.75
0.31
-0.29
-1.16
-2.27
-3.42
-4.38
-5.04
-5.43
-5.75
-6.22
-6.99
-8.03
-9.21
-10.28
-11.09
-11.59
-11.90
-12.29
-13.05
-14.39
-16.28
-18.48
-20.53
-21.96
-22.40
-21.67
-19.85
-17.19
-13.96
-10.47
-6.97
-3.65
-0.72
1.67
3.42
4.57
5.23
5.63
5.98
6.42
6.99
7.64
8.25
8.71
8.99
9.08
9.06
8.98
8.92
8.93
9.03
9.22
9.46
9.69
9.81
9.77
9.52
9.08
8.52
7.91
7.31
6.80
6.38
6.04
5.72
5.31
4.70
3.83
2.76
1.63
0.60
-0.26
-0.95
-1.62
-2.37
-3.28
-4.28
-5.26
-6.11
-6.82
-7.43
-8.07
-8.82
-9.77
-10.98
-12.50
-14.34
-16.44
-18.60
-20.53
-21.85
-22.20
-21.33
-19.15
-15.88
-11.91
-7.83
-4.15
-1.26
0.78
2.12
3.07
3.92
4.81
5.73
6.58
7.26
7.76
8.12
8.40
8.62
8.78
8.88
8.95
9.09
9.41
9.93
10.63
11.37
11.97
12.26
12.13
11.61
10.80
9.88
9.03
8.37
7.93
7.61
7.34
7.04
6.67
6.26
5.83
5.35
4.80
4.14
3.37
2.54
1.72
0.99
0.35
-0.24
-0.86
-1.58
-2.46
-3.53
-4.75
-6.10
-7.47
-8.77
-9.92
-10.90
-11.74
-12.51
-13.32
-14.29
-15.52
-17.06
-18.84
-20.68
-22.20
-22.97
-22.61
-20.94
-18.04
-14.26
-10.10
-6.03
-2.42
0.52
2.74
4.27
5.17
5.56
5.58
5.37
5.12
4.96
4.99
5.26
5.79
6.55
7.50
8.62
9.82
11.04
12.15
13.04
13.60
13.76
13.57
13.10
12.50
11.91
11.50
11.39
11.66
12.32
13.21
14.05
14.50
14.30
13.39
11.92
10.21
8.53
6.99
5.53
4.01
2.39
0.79
-0.59
-1.57
-2.18
-2.63
-3.17
-4.01
-5.11
-6.36
-7.66
-9.03
-10.65
-12.62
-14.87
-17.04
-18.54
-18.85
-17.75
-15.46
-12.53
-9.68
-7.41
-5.94
-5.15
-4.76
-4.56
-4.42
-4.36
-4.38
-4.41
-4.30
-3.84
-2.91
-1.51
0.27
2.31
4.47
6.65
8.77
10.74
12.45
13.79
14.71
15.23
15.46
15.54
15.61
15.73
15.90
16.14
16.43
16.84
17.38
18.05
18.69
19.06
18.85
17.81
15.88
13.15
9.85
6.26
2.57
-1.08
-4.58
-7.81
-10.68
-13.09
-15.05
-16.60
-17.86
-18.86
-19.63
-20.12
-20.31
-20.22
-19.91
-19.47
-19.01
-18.68
-18.64
-19.05
-19.98
-21.30
-22.61
-23.37
-23.06
-21.39
-18.45
-14.62
-10.49
-6.60
-3.34
-0.89
0.76
1.74
2.29
2.58
2.81
3.06
3.38
3.76
4.16
4.60
5.05
5.52
5.95
6.29
6.51
6.61
6.62
6.61
6.65
6.76
6.91
7.03
7.04
6.86
6.46
5.88
5.23
4.63
4.17
3.89
3.74
3.64
3.47
3.14
2.61
1.87
0.96
-0.06
-1.11
-2.13
-3.10
-4.08
-5.13
-6.36
-7.83
-9.47
-11.15
-12.58
-13.47
-13.55
-12.67
-10.89
-8.46
-5.72
-3.04
-0.68
1.23
2.69
3.82
4.75
5.63
6.53
7.47
8.42
9.30
10.02
10.54
10.87
11.05
11.17
11.24
11.32
11.42
11.58
11.85
12.25
12.78
13.37
13.91
14.27
14.32
13.99
13.31
12.36
11.30
10.34
9.61
9.18
9.03
9.00
8.94
8.72
8.28
7.64
6.88
6.09
5.32
4.60
3.94
3.33
2.78
2.30
1.87
1.40
0.79
-0.09
-1.28
-2.75
-4.35
-5.92
-7.28
-8.38
-9.24
-10.00
-10.83
-11.92
-13.38
-15.26
-17.47
-19.75
-21.73
-23.01
-23.27
-22.39
-20.49
-17.87
-14.91
-11.95
-9.20
-6.71
-4.50
-2.53
-0.80
0.70
2.00
3.12
4.14
5.12
6.08
7.04
7.96
8.79
9.49
10.03
10.46
10.85
11.26
11.75
12.28
12.75
13.05
13.10
12.92
12.57
12.16
11.73
11.30
10.83
10.35
9.89
9.56
9.40
9.37
9.33
9.12
8.66
7.99
7.24
6.58
6.09
5.74
5.40
4.96
4.39
3.75
3.13
2.56
1.98
1.28
0.33
-0.91
-2.37
-3.90
-5.32
-6.49
-7.32
-7.85
-8.26
-8.75
-9.56
-10.85
-12.67
-14.91
-17.40
-19.87
-22.04
-23.58
-24.17
-23.58
-21.74
-18.80
-15.16
-11.34
-7.86
-5.04
-2.99
-1.59
-0.58
0.28
1.19
2.22
3.34
4.50
5.60
6.59
7.45
8.18
8.82
9.39
9.92
10.39
10.79
11.13
11.41
11.63
11.77
11.78
11.59
11.20
10.62
9.94
9.26
8.64
8.10
7.57
7.03
6.43
5.79
5.14
4.51
3.90
3.32
2.76
2.20
1.58
0.84
-0.09
-1.19
-2.39
-3.58
-4.67
-5.70
-6.81
-8.24
-10.12
-12.45
-15.02
-17.45
-19.33
-20.29
-20.12
-18.81
-16.56
-13.65
-10.50
-7.48
-4.81
-2.63
-0.86
0.63
1.99
3.34
4.71
6.10
7.44
8.64
9.64
10.39
10.88
11.18
11.36
11.51
11.69
11.94
12.28
12.72
13.25
13.80
14.24
14.42
14.26
13.76
13.03
12.27
11.65
11.27
11.08
10.97
10.80
10.51
10.08
9.52
8.85
8.05
7.12
6.08
5.04
4.11
3.39
2.88
2.46
1.97
1.26
0.31
-0.78
-1.85
-2.80
-3.59
-4.30
-5.00
-5.72
-6.43
-7.05
-7.56
-8.00
-8.44
-8.97
-9.64
-10.47
-11.43
-12.57
-13.95
-15.62
-17.48
-19.25
-20.47
-20.69
-19.63
-17.28
-14.02
-10.42
-7.07
-4.39
-2.49
-1.25
-0.37
0.44
1.35
2.37
3.43
4.42
5.24
5.89
6.43
6.93
7.41
7.83
8.15
8.32
8.38
8.41
8.49
8.67
8.89
9.03
8.97
8.65
8.11
7.45
6.77
6.14
5.59
5.10
4.64
4.18
3.66
3.05
2.34
1.53
0.70
-0.04
-0.64
-1.04
-1.34
-1.68
-2.22
-3.03
-4.10
-5.29
-6.46
-7.51
-8.40
-9.21
-10.06
-11.07
-12.34
-13.89
-15.70
-17.59
-19.31
-20.55
-20.99
-20.44
-18.86
-16.45
-13.53
-10.47
-7.57
-5.00
-2.82
-0.95
0.71
2.25
3.67
4.94
5.99
6.78
7.31
7.64
7.88
8.13
8.46
8.91
9.46
10.05
10.61
11.09
11.43
11.62
11.67
11.62
11.53
11.42
11.31
11.18
11.00
10.74
10.39
9.97
9.48
8.93
8.31
7.62
6.87
6.12
5.37
4.62
3.84
2.99
2.03
1.03
0.06
-0.79
-1.52
-2.19
-2.92
-3.83
-4.96
-6.23
-7.52
-8.70
-9.75
-10.70
-11.69
-12.87
-14.39
-16.31
-18.53
-20.81
-22.72
-23.79
-23.68
-22.29
-19.84
-16.79
-13.67
-10.82
-8.40
-6.35
-4.52
-2.82
-1.21
0.34
1.81
3.21
4.53
5.68
6.60
7.24
7.66
7.96
8.33
8.89
9.68
10.60
11.53
12.32
12.87
13.18
13.30
13.31
13.24
13.15
12.99
12.78
12.50
12.21
11.91
11.59
11.17
10.55
9.70
8.66
7.58
6.64
5.99
5.66
5.54
5.44
5.19
4.71
4.03
3.25
2.50
1.85
1.32
0.88
0.44
-0.09
-0.82
-1.82
-3.13
-4.72
-6.49
-8.30
-10.02
-11.59
-13.05
-14.56
-16.27
-18.29
-20.60
-22.99
-25.10
-26.46
-26.67
-25.52
-23.04
-19.49
-15.37
-11.21
-7.45
-4.35
-1.95
-0.13
1.35
2.66
3.93
5.20
6.44
7.62
8.77
9.93
11.15
12.42
13.70
14.90
15.97
16.91
17.76
18.57
19.28
19.75
19.79
19.32
18.36
17.13
15.88
14.80
13.92
13.11
12.21
11.07
9.70
8.20
6.70
5.28
3.94
2.59
1.11
-0.68
-2.93
-5.74
-9.07
-12.71
-16.28
-19.27
-21.24
-21.90
-21.23
-19.48
-17.04
-14.28
-11.47
-8.73
-6.07
-3.49
-1.02
1.26
3.25
4.91
6.24
7.30
8.17
8.88
9.45
9.82
9.96
9.88
9.61
9.22
8.77
8.27
7.62
6.68
5.26
3.25
0.66
-2.35
-5.54
-8.71
-11.74
-14.66
-17.58
-20.65
-23.91
-27.28
-30.47
-33.09
-34.67
-34.81
-33.33
-30.31
-26.10
-21.20
-16.18
-11.46
-7.31
-3.81
-0.91
1.45
3.28
4.58
5.30
5.43
5.08
4.45
3.81
3.39
3.31
3.53
3.86
4.05
3.93
3.40
2.51
1.38
0.15
-1.09
-2.27
-3.39
-4.46
-5.54
-6.66
-7.92
-9.37
-11.05
-12.93
-14.83
-16.49
-17.57
-17.74
-16.81
-14.73
-11.69
-8.01
-4.11
-0.40
2.81
5.34
7.16
8.36
9.10
9.56
9.92
10.30
10.79
11.42
12.17
13.03
13.96
14.96
16.01
17.08
18.15
19.16
20.06
20.81
21.39
21.76
21.88
21.75
21.35
20.73
19.96
19.11
18.29
17.58
17.03
16.67
16.44
16.21
15.83
15.15
14.11
12.76
11.21
9.61
8.04
6.54
5.08
3.64
2.26
0.99
-0.08
-0.93
-1.58
-2.11
-2.60
-3.09
-3.58
-4.05
-4.50
-4.99
-5.64
-6.53
-7.72
-9.13
-10.60
-11.92
-12.92
-13.55
-13.89
-14.15
-14.58
-15.44
-16.88
-18.93
-21.54
-24.51
-27.50
-30.03
-31.55
-31.57
-29.84
-26.55
-22.23
-17.65
-13.50
-10.14
-7.59
-5.60
-3.82
-2.03
-0.14
1.81
3.74
5.53
7.07
8.21
8.82
8.84
8.29
7.32
6.14
5.03
4.22
3.92
4.27
5.33
7.02
9.20
11.64
14.07
16.30
18.16
19.56
20.40
20.66
20.30
19.38
18.01
16.35
14.61
12.94
11.50
10.33
9.45
8.84
8.45
8.24
8.14
8.07
7.96
7.77
7.45
7.02
6.43
5.67
4.68
3.46
2.05
0.58
-0.84
-2.14
-3.37
-4.68
-6.18
-7.87
-9.60
-11.14
-12.26
-12.89
-13.16
-13.30
-13.61
-14.30
-15.53
-17.24
-19.19
-20.95
-21.95
-21.69
-19.82
-16.40
-11.78
-6.53
-1.23
3.69
8.04
11.77
14.91
17.50
19.63
21.39
23.01
24.79
27.00
29.74
32.89
36.06
38.78
40.70
41.76
42.29
42.86
44.04
46.13
49.05
52.45
55.87
58.92
61.32
62.72
62.49
59.78
53.65
43.43
28.98
10.74
-10.48
-33.77
-58.26
-83.11
-107.24
-129.20
-147.25
-159.74
-165.67
-165.12
-159.29
-150.18
-139.84
-129.83
-120.90
-113.08
-106.30
-100.79
-97.22
-96.24
-97.61
-99.66
-99.55
-94.25
-82.05
-63.49
-41.31
-19.37
-1.06
11.89
19.66
23.64
25.48
26.35
26.89
27.54
28.91
31.73
36.51
43.11
50.56
57.42
62.26
64.28
63.60
61.17
58.37
56.43
55.99
56.94
58.55
59.87
60.21
59.50
58.27
57.40
57.62
59.16
61.58
63.96
65.22
64.51
61.44
56.24
49.65
42.81
36.98
33.18
31.94
33.06
35.66
38.49
40.35
40.50
38.80
35.65
31.70
27.56
23.55
19.64
15.57
11.03
5.85
0.07
-6.09
-12.36
-18.59
-24.80
-31.13
-37.74
-44.59
-51.41
-57.63
-62.55
-65.50
-66.12
-64.47
-61.03
-56.62
-52.07
-48.03
-44.77
-42.25
-40.24
-38.54
-37.00
-35.54
-34.05
-32.49
-30.94
-29.80
-29.74
-31.45
-35.37
-41.34
-48.52
-55.56
-60.91
-63.11
-61.12
-54.54
-43.66
-29.50
-13.52
2.62
17.48
30.08
39.97
47.19
52.06
55.02
56.53
56.99
56.65
55.54
53.44
50.05
45.27
39.41
33.28
27.93
24.26
22.55
22.32
22.53
22.10
20.40
17.55
14.27
11.40
9.46
8.45
7.99
7.71
7.51
7.55
7.98
8.59
8.71
7.49
4.37
-0.53
-6.42
-12.09
-16.42
-18.69
-18.73
-16.91
-13.87
-10.38
-7.11
-4.51
-2.74
-1.75
-1.26
-0.97
-0.63
-0.07
0.76
1.79
2.81
3.58
3.98
4.22
4.93
7.00
11.16
17.40
24.84
31.92
37.00
39.01
37.75
33.86
28.35
22.15
15.78
9.51
3.47
-2.09
-6.74
-10.10
-12.00
-12.65
-12.64
-12.67
-13.33
-14.86
-17.06
-19.50
-21.66
-23.21
-24.10
-24.53
-24.74
-24.87
-24.83
-24.32
-23.07
-21.03
-18.44
-15.85
-13.88
-12.99
-13.33
-14.72
-16.73
-18.91
-20.92
-22.60
-23.96
-25.06
-25.94
-26.60
-26.91
-26.67
-25.50
-23.03
-19.00
-13.45
-6.86
-0.09
5.83
10.04
12.18
12.46
11.58
10.38
9.59
9.57
10.34
11.67
13.29
14.96
16.53
17.85
18.76
19.14
18.99
18.49
18.08
18.26
19.38
21.37
23.66
25.24
25.07
22.50
17.53
10.87
3.62
-3.11
-8.56
-12.40
-14.67
-15.49
-14.97
-13.12
-10.00
-5.80
-0.90
4.13
8.69
12.20
14.26
14.67
13.46
10.88
7.30
3.11
-1.37
-5.86
-10.06
-13.62
-16.13
-17.28
-17.00
-15.60
-13.64
-11.83
-10.71
-10.54
-11.32
-12.87
-15.01
-17.54
-20.27
-22.87
-24.93
-26.02
-25.86
-24.38
-21.73
-18.21
-14.10
-9.67
-5.08
-0.41
4.25
8.85
13.28
17.46
21.27
24.58
27.29
29.34
30.75
31.54
31.79
31.59
31.07
30.41
29.76
29.24
28.79
28.27
27.45
26.22
24.68
23.09
21.79
20.99
20.64
20.47
20.10
19.25
17.85
16.04
14.11
12.36
10.93
9.87
9.05
8.24
7.22
5.74
3.62
0.88
-2.27
-5.36
-7.80
-8.99
-8.61
-6.68
-3.60
-0.01
3.46
6.36
8.54
10.11
11.26
12.11
12.54
12.23
10.79
7.96
3.77
-1.42
-6.96
-12.10
-16.14
-18.62
-19.34
-18.41
-16.06
-12.67
-8.57
-4.07
0.50
4.81
8.51
11.33
13.12
13.95
14.07
13.83
13.50
13.23
13.00
12.76
12.45
12.07
11.65
11.14
10.47
9.57
8.42
7.12
5.86
4.85
4.20
3.92
3.95
4.22
4.71
5.41
6.31
7.35
8.44
9.44
10.30
10.99
11.55
11.98
12.27
12.31
11.97
11.12
9.67
7.64
5.18
2.50
-0.14
-2.50
-4.43
-5.87
-6.93
-7.78
-8.70
-9.91
-11.56
-13.57
-15.68
-17.51
-18.66
-18.86
-18.01
-16.19
-13.60
-10.43
-6.92
-3.34
-0.00
2.82
4.93
6.39
7.44
8.42
9.62
11.14
12.85
14.49
15.80
16.59
16.75
16.27
15.13
13.38
11.15
8.64
6.14
3.88
2.02
0.53
-0.74
-2.05
-3.60
-5.55
-7.92
-10.62
-13.49
-16.28
-18.73
-20.60
-21.72
-22.00
-21.51
-20.41
-18.94
-17.37
-15.89
-14.66
-13.77
-13.30
-13.37
-14.06
-15.50
-17.73
-20.73
-24.33
-28.18
-31.78
-34.56
-36.07
-36.03
-34.54
-31.95
-28.77
-25.49
-22.33
-19.29
-16.19
-12.83
-9.07
-4.96
-0.65
3.68
7.82
11.63
14.98
17.79
20.04
21.77
23.07
24.15
25.23
26.49
27.99
29.60
31.07
32.07
32.32
31.70
30.24
28.12
25.61
23.00
20.56
18.53
17.05
16.16
15.80
15.79
15.94
16.10
16.19
16.22
16.17
16.00
15.57
14.75
13.44
11.66
9.56
7.42
5.51
4.04
3.11
2.66
2.50
2.39
2.10
1.45
0.40
-1.04
-2.79
-4.82
-7.12
-9.70
-12.51
-15.40
-18.11
-20.34
-21.82
-22.35
-21.87
-20.44
-18.21
-15.48
-12.62
-10.04
-8.14
-7.16
-7.12
-7.81
-8.81
-9.70
-10.14
-9.97
-9.27
-8.29
-7.33
-6.68
-6.52
-6.96
-7.98
-9.47
-11.23
-13.04
-14.74
-16.26
-17.69
-19.18
-20.84
-22.57
-24.00
-24.53
-23.49
-20.32
-14.76
-6.91
2.86
13.99
25.88
37.90
49.46
59.99
68.95
75.95
80.81
83.55
84.44
83.89
82.33
80.13
77.56
74.82
72.10
69.57
67.29
65.00
62.08
57.69
51.06
41.83
30.24
17.07
3.34
-9.96
-22.13
-32.82
-41.92
-49.53
-55.94
-61.65
-67.28
-73.32
-79.95
-86.85
-93.27
-98.28
-101.01
-100.79
-97.18
-90.01
-79.34
-65.58
-49.50
-32.23
-15.08
0.77
14.51
25.81
34.81
41.92
47.54
51.98
55.35
57.66
58.88
59.02
58.28
56.96
55.52
54.40
53.77
53.41
52.64
50.46
45.94
38.58
28.66
17.22
5.90
-3.57
-9.84
-12.38
-11.63
-8.98
-6.35
-5.74
-8.64
-15.62
-26.18
-38.95
-52.17
-64.11
-73.46
-79.41
-81.60
-80.03
-74.95
-66.95
-56.97
-46.22
-36.06
-27.63
-21.66
-18.27
-17.10
-17.46
-18.71
-20.35
-22.13
-23.87
-25.30
-25.94
-25.19
-22.54
-17.86
-11.62
-4.72
1.75
6.91
10.49
12.82
14.66
16.76
19.57
23.03
26.72
30.07
32.75
34.76
36.42
38.15
40.15
42.30
44.10
44.94
44.35
42.22
38.83
34.71
30.46
26.51
23.05
20.09
17.48
15.11
12.91
10.96
9.39
8.36
8.01
8.35
9.24
10.34
11.18
11.23
10.00
7.17
2.77
-2.86
-9.01
-14.85
-19.61
-22.82
-24.39
-24.49
-23.45
-21.54
-18.97
-15.90
-12.64
-9.65
-7.52
-6.72
-7.45
-9.53
-12.42
-15.40
-17.77
-19.05
-19.01
-17.71
-15.40
-12.44
-9.24
-6.11
-3.34
-1.07
0.56
1.50
1.74
1.37
0.62
-0.19
-0.67
-0.55
0.27
1.62
3.17
4.56
5.58
6.32
7.05
8.04
9.42
11.02
12.52
13.52
13.84
13.51
12.89
12.40
12.30
12.71
13.48
14.38
15.18
15.71
15.83
15.76
15.67
15.62
15.61
15.58
15.51
15.38
15.19
14.86
14.97
16.09
18.69
23.04
29.09
36.41
44.29
51.86
58.30
64.16
70.19
77.20
85.75
95.88
107.20
119.05
130.86
142.41
155.38
171.81
193.52
221.56
255.72
294.69
336.55
379.66
412.99
427.68
417.01
378.37
314.49
232.68
142.36
52.28
-31.17
-104.43
-164.77
-211.11
-243.58
-263.39
-272.65
-274.11
-270.68
-264.97
-258.99
-252.88
-246.16
-238.09
-228.14
-216.30
-203.18
-189.79
-177.19
-166.19
-156.48
-147.43
-138.29
-128.57
-118.24
-107.74
-97.74
-88.82
-81.29
-74.83
-68.96
-63.25
-57.44
-51.57
-45.86
-40.57
-35.88
-31.86
-28.36
-25.23
-22.25
-19.27
-16.18
-12.95
-9.57
-6.13
-2.69
0.68
3.89
6.84
9.37
11.29
12.49
12.96
12.89
12.56
12.38
12.38
12.41
12.19
11.34
9.62
7.09
4.05
1.01
-1.51
-3.27
-4.23
-4.61
-4.86
-5.32
-6.13
-7.19
-8.24
-9.02
-9.39
-9.43
-9.45
-9.82
-10.81
-12.37
-14.20
-15.75
-16.52
-16.21
-14.89
-12.83
-10.51
-8.40
-7.08
-7.20
-9.29
-13.44
-19.02
-24.54
-28.19
-28.50
-25.04
-18.71
-11.27
-4.62
0.08
2.63
3.62
3.82
3.72
3.41
2.74
1.71
0.62
0.01
0.36
1.84
4.19
6.82
9.11
10.57
11.02
10.60
9.63
8.54
7.68
7.29
7.44
8.13
9.28
10.81
12.59
14.43
15.96
16.74
16.33
14.30
10.76
6.28
1.69
-2.25
-5.14
-7.05
-8.43
-9.84
-11.75
-14.34
-17.51
-20.91
-23.93
-25.84
-25.88
-23.52
-18.73
-12.06
-4.58
2.37
7.63
10.48
10.85
9.15
6.03
2.11
-2.17
-6.56
-10.95
-15.21
-19.15
-22.52
-25.10
-26.77
-27.49
-27.26
-26.06
-23.82
-20.53
-16.33
-11.57
-6.83
-2.66
0.63
3.08
5.07
7.20
9.89
13.28
17.13
20.93
24.10
26.19
27.00
26.61
25.39
23.90
22.75
22.38
22.82
23.65
24.02
23.02
20.02
15.03
8.71
2.21
-3.23
-6.67
-7.77
-6.80
-4.49
-1.69
0.82
2.57
3.35
3.16
2.09
0.34
-1.78
-3.86
-5.40
-6.01
-5.59
-4.39
-2.94
-1.84
-1.49
-1.90
-2.79
-3.72
-4.36
-4.69
-4.91
-5.36
-6.33
-7.85
-9.70
-11.50
-12.86
-13.58
-13.76
-13.70
-13.83
-14.50
-15.87
-17.93
-20.42
-22.98
-25.17
-26.60
-26.98
-26.20
-24.30
-21.48
-17.98
-14.05
-9.93
-5.89
-2.17
0.96
3.30
4.83
5.71
6.29
7.03
8.32
10.36
13.07
16.13
19.10
21.60
23.48
24.94
26.41
28.34
31.02
34.40
38.15
41.89
45.31
48.33
51.08
53.72
56.31
58.75
60.74
61.93
61.99
60.78
58.38
55.18
51.80
48.97
47.20
46.50
46.17
44.83
40.78
32.64
19.83
2.98
-16.18
-35.23
-51.78
-63.97
-70.97
-72.94
-70.87
-66.10
-60.06
-53.93
-48.57
-44.51
-41.95
-40.78
-40.56
-40.63
-40.27
-38.93
-36.46
-33.17
-29.67
-26.55
-24.10
-22.09
-19.98
-17.16
-13.29
-8.56
-3.52
1.05
4.46
6.31
6.55
5.47
3.52
1.26
-0.78
-2.19
-2.76
-2.48
-1.53
-0.19
1.21
2.37
3.10
3.33
3.15
2.71
2.22
1.78
1.36
0.84
0.06
-1.08
-2.53
-4.11
-5.61
-6.82
-7.64
-8.05
-8.14
-8.05
-8.03
-8.32
-9.11
-10.41
-12.06
-13.73
-15.09
-15.93
-16.28
-16.34
-16.42
-16.70
-17.21
-17.71
-17.81
-17.17
-15.58
-13.12
-10.12
-6.98
-4.09
-1.66
0.29
1.85
3.14
4.27
5.24
6.06
6.70
7.16
7.48
7.69
7.84
7.92
7.93
7.85
7.67
7.37
6.93
6.40
5.83
5.31
4.98
4.95
5.24
5.82
6.50
7.07
7.32
7.18
6.67
5.90
4.99
4.01
3.03
2.07
1.21
0.54
0.12
-0.08
-0.16
-0.31
-0.67
-1.35
-2.35
-3.59
-5.00
-6.48
-7.92
-9.16
-10.00
-10.27
-9.82
-8.66
-6.88
-4.70
-2.38
-0.11
1.99
3.91
5.67
7.33
8.94
10.51
11.99
13.29
14.30
14.93
15.13
14.94
14.52
14.06
13.72
13.58
13.59
13.58
13.42
13.01
12.39
11.70
11.10
10.73
10.66
10.90
11.39
12.00
12.57
12.92
12.85
12.23
11.08
9.57
7.97
6.58
5.56
4.91
4.47
4.04
3.49
2.80
2.01
1.20
0.34
-0.63
-1.80
-3.24
-4.90
-6.64
-8.28
-9.64
-10.67
-11.39
-11.93
-12.45
-13.09
-13.94
-15.04
-16.34
-17.76
-19.14
-20.24
-20.84
-20.76
-19.95
-18.54
-16.76
-14.94
-13.33
-12.06
-11.12
-10.37
-9.67
-8.89
-7.93
-6.73
-5.27
-3.56
-1.67
0.26
2.08
3.63
4.81
5.61
6.08
6.31
6.39
6.38
6.35
6.32
6.26
6.11
5.73
5.01
3.82
2.16
0.13
-2.07
-4.21
-6.04
-7.39
-8.12
-8.24
-7.82
-7.07
-6.24
-5.65
-5.57
-6.25
-7.85
-10.39
-13.73
-17.54
-21.38
-24.75
-27.25
-28.62
-28.76
-27.64
-25.31
-21.86
-17.49
-12.57
-7.57
-2.93
1.04
4.26
6.86
9.02
10.88
12.54
14.08
15.58
17.22
19.10
21.17
23.19
24.78
25.49
25.03
23.33
20.60
17.27
13.82
10.69
8.19
6.53
5.84
6.16
7.48
9.67
12.38
15.17
17.55
19.18
19.92
19.91
19.41
18.68
17.86
16.93
15.83
14.50
13.02
11.51
10.15
9.07
8.30
7.82
7.51
7.27
6.97
6.48
5.67
4.45
2.79
0.77
-1.42
-3.52
-5.29
-6.60
-7.48
-8.09
-8.61
-9.14
-9.67
-10.12
-10.43
-10.64
-10.91
-11.41
-12.24
-13.30
-14.28
-14.75
-14.33
-12.86
-10.50
-7.64
-4.82
-2.50
-0.92
-0.08
0.22
0.28
0.33
0.51
0.83
1.23
1.69
2.20
2.82
3.60
4.56
5.65
6.76
7.74
8.48
8.93
9.09
9.00
8.65
8.08
7.29
6.33
5.27
4.21
3.20
2.29
1.46
0.70
0.05
-0.41
-0.61
-0.53
-0.23
0.13
0.40
0.44
0.18
-0.40
-1.24
-2.32
-3.56
-4.91
-6.28
-7.61
-8.84
-9.92
-10.78
-11.36
-11.63
-11.60
-11.36
-11.08
-10.94
-11.07
-11.52
-12.29
-13.36
-14.71
-16.23
-17.74
-18.93
-19.45
-18.96
-17.33
-14.64
-11.19
-7.44
-3.88
-0.92
1.18
2.37
2.85
3.02
3.30
4.04
5.33
7.02
8.78
10.24
11.14
11.39
11.01
10.12
8.87
7.49
6.21
5.36
5.18
5.84
7.33
9.46
11.93
14.45
16.73
18.57
19.86
20.51
20.51
19.92
18.83
17.38
15.69
13.81
11.74
9.45
6.90
4.12
1.21
-1.65
-4.28
-6.53
-8.32
-9.62
-10.42
-10.76
-10.76
-10.56
-10.38
-10.39
-10.63
-10.98
-11.13
-10.72
-9.48
-7.34
-4.48
-1.28
1.84
4.56
6.72
8.40
9.76
11.02
12.32
13.73
15.22
16.68
17.98
18.97
19.49
19.49
18.95
18.00
16.84
15.68
14.76
14.26
14.27
14.83
15.87
17.19
18.51
19.54
20.06
20.00
19.44
18.59
17.74
17.12
16.87
16.95
17.12
17.03
16.23
14.30
10.97
6.11
-0.24
-7.86
-16.35
-25.11
-33.34
-40.14
-44.71
-46.60
-45.81
-42.89
-38.72
-34.27
-30.32
-27.39
-25.68
-25.16
-25.59
-26.59
-27.66
-28.24
-27.94
-26.54
-24.14
-21.01
-17.51
-13.86
-10.16
-6.41
-2.62
1.16
4.77
8.04
10.78
12.81
13.98
14.17
13.38
11.73
9.50
7.04
4.66
2.57
0.88
-0.39
-1.17
-1.38
-0.97
0.04
1.51
3.21
4.90
6.43
7.74
8.83
9.67
10.24
10.45
10.27
9.70
8.85
7.83
6.74
5.64
4.53
3.43
2.36
1.37
0.50
-0.25
-0.93
-1.65
-2.55
-3.78
-5.43
-7.47
-9.71
-11.82
-13.38
-14.07
-13.78
-12.61
-10.88
-8.93
-7.02
-5.25
-3.57
-1.90
-0.19
1.52
3.16
4.62
5.85
6.85
7.65
8.28
8.74
8.98
8.97
8.71
8.28
7.80
7.44
7.30
7.38
7.56
7.70
7.69
7.50
7.21
6.91
6.63
6.32
5.89
5.24
4.41
3.51
2.69
2.04
1.57
1.17
0.70
0.09
-0.63
-1.37
-1.99
-2.40
-2.62
-2.76
-2.96
-3.37
-4.10
-5.18
-6.54
-8.03
-9.45
-10.62
-11.44
-11.91
-12.16
-12.41
-12.87
-13.69
-14.88
-16.23
-17.41
-18.04
-17.81
-16.62
-14.59
-11.99
-9.15
-6.35
-3.75
-1.43
0.59
2.30
3.66
4.66
5.36
5.85
6.28
6.78
7.41
8.10
8.72
9.12
9.19
8.97
8.57
8.17
7.88
7.74
7.70
7.64
7.50
7.25
6.92
6.57
6.18
5.73
5.18
4.54
3.84
3.17
2.60
2.17
1.83
1.53
1.23
0.90
0.55
0.19
-0.20
-0.69
-1.29
-1.97
-2.67
-3.28
-3.78
-4.19
-4.62
-5.17
-5.92
-6.84
-7.84
-8.80
-9.65
-10.34
-10.86
-11.23
-11.48
-11.69
-11.93
-12.32
-12.92
-13.75
-14.69
-15.53
-16.04
-16.01
-15.33
-14.01
-12.10
-9.71
-6.94
-3.96
-0.94
1.88
4.30
6.19
7.55
8.51
9.22
9.78
10.24
10.58
10.75
10.76
10.67
10.58
10.53
10.55
10.64
10.77
10.92
11.06
11.15
11.15
11.01
10.68
10.16
9.49
8.72
7.95
7.24
6.64
6.14
5.70
5.29
4.83
4.27
3.64
2.96
2.32
1.79
1.41
1.12
0.81
0.29
-0.61
-1.94
-3.60
-5.38
-7.04
-8.41
-9.41
-10.14
-10.73
-11.34
-12.08
-12.96
-13.95
-14.98
-16.00
-16.97
-17.82
-18.44
-18.68
-18.40
-17.45
-15.83
-13.65
-11.14
-8.57
-6.18
-4.06
-2.20
-0.54
1.00
2.44
3.73
4.83
5.70
6.40
7.00
7.58
8.16
8.75
9.28
9.72
10.01
10.18
10.23
10.19
10.09
9.98
9.89
9.85
9.87
9.87
9.76
9.44
8.85
8.00
7.01
6.02
5.17
4.56
4.20
4.06
4.03
3.97
3.75
3.31
2.62
1.76
0.79
-0.20
-1.16
-2.10
-3.05
-4.03
-5.07
-6.19
-7.36
-8.57
-9.76
-10.90
-11.96
-12.98
-14.04
-15.24
-16.66
-18.30
-20.05
-21.70
-23.02
-23.81
-23.93
-23.27
-21.84
-19.69
-16.95
-13.85
-10.66
-7.63
-4.93
-2.59
-0.56
1.30
3.09
4.81
6.34
7.50
8.15
8.30
8.05
7.63
7.26
7.06
7.02
7.07
7.13
7.19
7.30
7.55
7.97
8.48
8.92
9.12
8.95
8.40
7.53
6.44
5.28
4.13
3.05
2.06
1.13
0.24
-0.64
-1.45
-2.15
-2.71
-3.17
-3.64
-4.29
-5.24
-6.58
-8.27
-10.22
-12.24
-14.12
-15.58
-16.36
-16.21
-15.02
-12.83
-9.87
-6.51
-3.16
-0.14
2.38
4.38
5.95
7.23
8.34
9.32
10.16
10.83
11.35
11.76
12.17
12.65
13.22
13.82
14.35
14.75
15.00
15.13
15.17
15.11
14.90
14.48
13.82
12.96
11.99
11.01
10.06
9.13
8.16
7.09
5.92
4.69
3.47
2.27
1.05
-0.26
-1.74
-3.41
-5.26
-7.25
-9.29
-11.26
-13.02
-14.40
-15.32
-15.79
-15.95
-16.09
-16.52
-17.52
-19.17
-21.37
-23.80
-25.98
-27.42
-27.69
-26.53
-23.92
-20.09
-15.49
-10.65
-6.10
-2.18
0.95
3.32
5.13
6.60
7.89
9.04
9.99
10.70
11.18
11.58
12.13
12.98
14.17
15.53
16.79
17.65
17.93
17.56
16.60
15.15
13.32
11.24
9.04
6.83
4.72
2.72
0.76
-1.25
-3.36
-5.52
-7.59
-9.36
-10.65
-11.41
-11.68
-11.68
-11.65
-11.90
-12.68
-14.15
-16.35
-19.12
-22.22
-25.32
-28.07
-30.17
-31.39
-31.53
-30.54
-28.48
-25.58
-22.20
-18.78
-15.68
-13.07
-10.86
-8.73
-6.18
-2.74
1.95
7.94
14.98
22.52
29.89
36.43
41.66
45.35
47.48
48.23
47.80
46.39
44.19
41.39
38.19
34.85
31.64
28.75
26.33
24.43
23.11
22.35
22.12
22.25
22.48
22.42
21.75
20.26
17.97
15.09
11.88
8.56
5.25
2.00
-1.06
-3.79
-5.96
-7.44
-8.22
-8.43
-8.31
-8.10
-7.96
-8.03
-8.41
-9.22
-10.62
-12.70
-15.43
-18.56
-21.65
-24.11
-25.39
-25.13
-23.29
-20.12
-16.09
-11.68
-7.30
-3.24
0.39
3.52
6.13
8.19
9.70
10.73
11.39
11.86
12.33
12.94
13.76
14.74
15.78
16.77
17.62
18.30
18.85
19.30
19.63
19.77
19.60
19.05
18.14
16.96
15.68
14.41
13.23
12.09
10.92
9.61
8.15
6.59
5.00
3.49
2.10
0.87
-0.20
-1.15
-2.00
-2.80
-3.60
-4.42
-5.23
-5.98
-6.63
-7.16
-7.63
-8.17
-8.91
-9.94
-11.23
-12.61
-13.91
-14.96
-15.74
-16.36
-17.00
-17.89
-19.16
-20.75
-22.43
-23.82
-24.50
-24.13
-22.59
-19.97
-16.57
-12.78
-8.98
-5.47
-2.37
0.33
2.70
4.84
6.77
8.44
9.77
10.74
11.34
11.69
11.89
12.04
12.16
12.20
12.15
11.98
11.70
11.34
10.92
10.46
9.96
9.44
8.89
8.30
7.65
6.91
6.09
5.23
4.35
3.48
2.61
1.72
0.78
-0.21
-1.22
-2.19
-3.06
-3.78
-4.31
-4.62
-4.73
-4.74
-4.78
-4.98
-5.44
-6.19
-7.12
-8.08
-8.92
-9.54
-9.93
-10.17
-10.35
-10.56
-10.83
-11.15
-11.49
-11.86
-12.32
-13.00
-13.99
-15.28
-16.69
-17.85
-18.32
-17.69
-15.77
-12.63
-8.60
-4.16
0.18
4.02
7.18
9.62
11.46
12.84
13.86
14.58
15.03
15.25
15.33
15.37
15.42
15.47
15.44
15.23
14.79
14.17
13.48
12.86
12.38
12.02
11.70
11.29
10.70
9.93
9.03
8.09
7.13
6.13
5.03
3.74
2.24
0.56
-1.21
-2.97
-4.60
-6.06
-7.28
-8.28
-9.03
-9.57
-9.97
-10.35
-10.88
-11.67
-12.76
-14.02
-15.23
-16.09
-16.37
-15.96
-14.91
-13.38
-11.55
-9.61
-7.69
-5.84
-4.11
-2.48
-0.93
0.56
1.97
3.25
4.34
5.18
5.79
6.22
6.55
6.83
7.05
7.17
7.17
7.06
6.87
6.66
6.48
6.33
6.22
6.14
6.08
6.02
5.95
5.80
5.53
5.10
4.50
3.80
3.09
2.45
1.96
1.58
1.31
1.09
0.89
0.70
0.50
0.23
-0.19
-0.79
-1.59
-2.48
-3.31
-3.96
-4.36
-4.56
-4.70
-4.93
-5.32
-5.88
-6.53
-7.20
-7.88
-8.55
-9.26
-9.97
-10.66
-11.28
-11.89
-12.64
-13.72
-15.26
-17.16
-19.08
-20.51
-20.98
-20.24
-18.40
-15.82
-13.00
-10.36
-8.14
-6.38
-4.96
-3.72
-2.48
-1.15
0.27
1.70
3.00
4.02
4.67
4.99
5.06
5.01
4.93
4.88
4.90
5.01
5.21
5.45
5.58
5.46
4.97
4.16
3.20
2.35
1.81
1.66
1.79
1.99
2.05
1.85
1.36
0.65
-0.18
-1.05
-1.88
-2.63
-3.31
-3.90
-4.39
-4.79
-5.11
-5.36
-5.58
-5.83
-6.10
-6.41
-6.70
-6.94
-7.13
-7.33
-7.62
-8.07
-8.68
-9.41
-10.20
-11.00
-11.77
-12.49
-13.09
-13.43
-13.37
-12.78
-11.63
-10.01
-8.08
-5.99
-3.82
-1.55
0.85
3.34
5.82
8.10
10.02
11.51
12.58
13.34
13.89
14.31
14.65
14.92
15.15
15.33
15.43
15.37
15.06
14.45
13.61
12.66
11.81
11.19
10.82
10.60
10.37
9.98
9.34
8.45
7.38
6.21
5.01
3.81
2.64
1.53
0.46
-0.59
-1.64
-2.73
-3.87
-5.05
-6.23
-7.36
-8.44
-9.48
-10.60
-11.89
-13.44
-15.20
-17.01
-18.64
-19.81
-20.29
-19.95
-18.81
-16.93
-14.48
-11.66
-8.68
-5.74
-3.04
-0.69
1.25
2.83
4.18
5.41
6.58
7.67
8.59
9.26
9.67
9.92
10.14
10.47
10.93
11.44
11.88
12.13
12.14
11.93
11.57
11.11
10.58
10.00
9.40
8.82
8.31
7.86
7.44
6.99
6.46
5.82
5.09
4.34
3.65
3.11
2.76
2.58
2.46
2.24
1.79
1.05
0.11
-0.94
-1.97
-2.95
-3.92
-4.97
-6.15
-7.46
-8.81
-10.12
-11.34
-12.47
-13.56
-14.70
-15.98
-17.44
-19.11
-20.94
-22.79
-24.48
-25.73
-26.29
-25.96
-24.65
-22.42
-19.46
-16.09
-12.64
-9.44
-6.69
-4.45
-2.60
-0.91
0.83
2.72
4.71
6.59
8.15
9.28
10.01
10.49
10.90
11.33
11.74
12.07
12.27
12.37
12.42
12.50
12.57
12.54
12.31
11.80
11.06
10.21
9.38
8.71
8.26
8.00
7.85
7.68
7.38
6.86
6.14
5.29
4.46
3.77
3.25
2.83
2.36
1.71
0.82
-0.23
-1.26
-2.12
-2.75
-3.22
-3.72
-4.45
-5.50
-6.86
-8.42
-10.06
-11.66
-13.10
-14.25
-14.92
-14.90
-14.00
-12.21
-9.62
-6.49
-3.10
0.29
3.54
6.53
9.20
11.47
13.24
14.47
15.22
15.59
15.74
15.81
15.84
15.86
15.85
15.78
15.70
15.61
15.51
15.38
15.19
14.95
14.65
14.31
13.92
13.43
12.78
11.95
10.98
9.93
8.88
7.86
6.85
5.86
4.91
4.03
3.25
2.55
1.86
1.11
0.29
-0.56
-1.35
-2.03
-2.63
-3.24
-3.94
-4.81
-5.82
-6.92
-8.05
-9.21
-10.39
-11.58
-12.76
-13.96
-15.27
-16.77
-18.54
-20.44
-22.17
-23.27
-23.31
-22.10
-19.69
-16.41
-12.67
-8.85
-5.23
-1.98
0.82
3.15
5.05
6.64
8.04
9.38
10.68
11.91
12.97
13.77
14.25
14.46
14.49
14.46
14.48
14.59
14.79
15.00
15.09
14.98
14.62
14.01
13.20
12.25
11.20
10.11
9.05
8.09
7.26
6.55
5.88
5.16
4.33
3.38
2.39
1.46
0.65
-0.06
-0.75
-1.53
-2.44
-3.44
-4.41
-5.23
-5.89
-6.46
-7.11
-8.02
-9.24
-10.68
-12.16
-13.46
-14.42
-15.06
-15.49
-15.89
-16.41
-17.18
-18.20
-19.45
-20.82
-22.09
-22.99
-23.21
-22.52
-20.87
-18.38
-15.32
-11.99
-8.64
-5.45
-2.47
0.26
2.72
4.87
6.72
8.34
9.82
11.26
12.73
14.18
15.54
16.67
17.48
17.94
18.10
18.02
17.81
17.54
17.26
16.98
16.67
16.29
15.78
15.09
14.23
13.24
12.20
11.15
10.10
9.05
7.98
6.91
5.87
4.89
3.96
3.07
2.16
1.24
0.33
-0.54
-1.40
-2.28
-3.26
-4.34
-5.48
-6.59
-7.61
-8.53
-9.46
-10.52
-11.84
-13.41
-15.14
-16.78
-18.04
-18.65
-18.43
-17.33
-15.48
-13.12
-10.56
-8.09
-5.84
-3.86
-2.08
-0.42
1.16
2.65
4.00
5.14
6.08
6.89
7.63
8.40
9.23
10.08
10.85
11.42
11.67
11.56
11.14
10.53
9.91
9.39
9.01
8.74
8.51
8.26
7.98
7.63
7.15
6.49
5.60
4.51
3.35
2.29
1.49
1.01
0.78
0.65
0.53
0.34
0.07
-0.25
-0.63
-1.07
-1.60
-2.27
-3.10
-4.09
-5.23
-6.46
-7.70
-8.83
-9.81
-10.65
-11.42
-12.22
-13.11
-14.10
-15.13
-16.14
-17.11
-18.03
-18.85
-19.47
-19.69
-19.27
-18.08
-16.11
-13.56
-10.81
-8.26
-6.20
-4.70
-3.59
-2.56
-1.33
0.19
1.83
3.30
4.38
5.01
5.31
5.54
5.86
6.30
6.76
7.07
7.14
6.97
6.64
6.21
5.73
5.21
4.65
4.07
3.52
3.05
2.73
2.61
2.65
2.75
2.78
2.63
2.26
1.79
1.33
1.03
0.92
0.95
1.03
1.07
1.08
1.06
0.99
0.79
0.37
-0.32
-1.23
-2.21
-3.12
-3.83
-4.36
-4.81
-5.34
-6.08
-7.04
-8.15
-9.18
-9.92
-10.16
-9.85
-9.03
-7.85
-6.48
-5.06
-3.64
-2.25
-0.83
0.62
2.15
3.73
5.30
6.76
7.96
8.81
9.30
9.51
9.61
9.79
10.11
10.48
10.75
10.76
10.46
9.95
9.41
8.99
8.75
8.62
8.46
8.19
7.77
7.24
6.66
6.06
5.43
4.76
4.05
3.34
2.71
2.24
1.96
1.88
1.89
1.89
1.74
1.34
0.68
-0.17
-1.07
-1.91
-2.64
-3.34
-4.09
-4.99
-6.06
-7.22
-8.38
-9.43
-10.32
-11.08
-11.74
-12.34
-12.95
-13.64
-14.57
-15.90
-17.75
-20.06
-22.57
-24.83
-26.35
-26.83
-26.21
-24.79
-23.05
-21.51
-20.55
-20.30
-20.66
-21.35
-22.07
-22.65
-23.09
-23.61
-24.53
-26.11
-28.39
-31.14
-33.86
-35.98
-37.11
-37.18
-36.61
-36.16
-36.65
-38.66
-42.28
-47.18
-52.77
-58.46
-63.84
-68.66
-72.55
-75.01
-75.33
-72.86
-67.19
-58.32
-46.61
-32.65
-17.12
-0.81
15.49
30.94
44.88
56.99
67.47
76.90
86.14
96.00
106.86
118.30
128.94
136.62
139.15
135.19
125.04
110.80
95.69
82.90
74.47
70.75
70.66
72.60
75.18
77.69
79.85
81.46
81.98
80.67
76.94
70.76
62.78
54.08
45.83
38.80
33.27
29.20
26.53
25.48
26.42
29.59
34.73
40.99
47.11
51.90
54.69
55.47
54.69
52.83
50.10
46.37
41.40
35.10
27.75
19.81
11.69
3.42
-5.35
-15.12
-26.10
-37.89
-49.45
-59.37
-66.41
-69.93
-70.09
-67.65
-63.62
-58.84
-53.75
-48.41
-42.73
-36.66
-30.36
-24.19
-18.58
-13.86
-10.20
-7.56
-5.83
-4.89
-4.71
-5.31
-6.69
-8.79
-11.42
-14.39
-17.50
-20.71
-24.10
-27.90
-32.32
-37.52
-43.46
-49.93
-56.59
-62.98
-68.69
-73.39
-76.87
-79.08
-80.00
-79.63
-77.90
-74.70
-69.98
-63.87
-56.62
-48.67
-40.54
-32.71
-25.59
-19.51
-14.64
-11.03
-8.59
-7.11
-6.28
-5.81
-5.51
-5.25
-4.99
-4.66
-4.18
-3.41
-2.29
-0.81
0.92
2.75
4.51
6.15
7.68
9.23
10.99
13.15
15.85
19.13
22.91
26.89
30.67
33.76
35.81
36.66
36.44
35.45
34.03
32.47
30.93
29.47
28.13
26.96
26.00
25.22
24.55
23.85
23.05
22.16
21.27
20.47
19.76
19.03
18.07
16.67
14.66
11.96
8.57
4.55
0.02
-4.89
-9.98
-15.13
-20.21
-25.16
-29.93
-34.37
-38.29
-41.37
-43.33
-43.95
-43.21
-41.27
-38.36
-34.71
-30.47
-25.69
-20.44
-14.92
-9.47
-4.59
-0.76
1.74
2.91
3.06
2.71
2.38
2.46
3.16
4.55
6.62
9.41
12.98
17.28
22.05
26.81
30.90
33.66
34.71
33.98
31.78
28.61
24.98
21.30
17.82
14.69
12.01
9.91
8.48
7.76
7.66
7.98
8.41
8.68
8.57
7.99
6.94
5.51
3.75
1.64
-0.91
-4.00
-7.58
-11.48
-15.35
-18.78
-21.43
-23.09
-23.78
-23.62
-22.77
-21.44
-19.83
-18.20
-16.89
-16.28
-16.64
-18.10
-20.51
-23.54
-26.75
-29.74
-32.18
-33.88
-34.72
-34.63
-33.51
-31.33
-28.10
-24.00
-19.29
-14.32
-9.35
-4.54
0.13
4.74
9.33
13.81
17.91
21.30
23.70
25.00
25.28
24.80
23.84
22.65
21.44
20.41
19.80
19.88
20.88
22.88
25.74
29.17
32.80
36.34
39.57
42.38
44.61
46.08
46.55
45.88
44.09
41.36
38.02
34.41
30.80
27.40
24.38
21.91
20.09
18.91
18.20
17.65
16.94
15.86
14.38
12.55
10.40
7.87
4.74
0.87
-3.71
-8.74
-13.76
-18.36
-22.28
-25.54
-28.31
-30.81
-33.07
-34.98
-36.31
-36.88
-36.68
-35.90
-34.88
-33.98
-33.50
-33.56
-34.13
-35.06
-36.10
-36.99
-37.44
-37.24
-36.24
-34.47
-32.10
-29.38
-26.59
-23.91
-21.46
-19.24
-17.29
-15.68
-14.54
-14.00
-14.13
-14.83
-15.85
-16.80
-17.33
-17.19
-16.36
-15.02
-13.55
-12.29
-11.46
-11.06
-10.90
-10.76
-10.42
-9.80
-8.92
-7.87
-6.80
-5.91
-5.45
-5.68
-6.77
-8.73
-11.32
-14.09
-16.51
-18.06
-18.41
-17.41
-15.12
-11.74
-7.64
-3.31
0.65
3.66
5.27
5.28
3.86
1.51
-1.04
-3.09
-4.15
-4.11
-3.19
-1.81
-0.40
0.81
1.75
2.45
2.95
3.14
2.88
2.09
0.86
-0.45
-1.34
-1.38
-0.45
1.20
2.97
4.17
4.21
2.83
0.15
-3.46
-7.55
-11.72
-15.72
-19.36
-22.46
-24.73
-25.85
-25.58
-23.86
-20.92
-17.22
-13.22
-9.33
-5.69
-2.29
0.94
4.01
6.72
8.78
9.90
9.88
8.75
6.69
3.99
1.02
-1.89
-4.47
-6.52
-7.89
-8.48
-8.22
-7.10
-5.19
-2.65
0.21
3.06
5.59
7.56
8.88
9.60
9.89
10.04
10.41
11.38
13.22
16.00
19.43
22.89
25.53
26.47
25.10
21.21
15.13
7.69
0.07
-6.42
-10.60
-11.71
-9.57
-4.66
2.03
9.24
15.72
20.52
23.11
23.47
21.97
19.26
16.12
13.24
11.08
9.77
9.15
8.85
8.51
7.90
7.01
6.03
5.22
4.81
4.91
5.50
6.44
7.53
8.58
9.39
9.76
9.50
8.45
6.52
3.81
0.53
-3.04
-6.61
-9.95
-12.84
-15.02
-16.17
-15.95
-14.15
-10.86
-6.45
-1.51
3.33
7.64
11.17
13.88
15.77
16.87
17.26
17.08
16.56
15.97
15.46
15.12
14.90
14.73
14.54
14.36
14.23
14.23
14.38
14.68
15.08
15.51
15.87
16.07
16.02
15.61
14.73
13.28
11.17
8.40
5.02
1.19
-2.90
-7.05
-11.14
-15.08
-18.79
-22.18
-25.01
-26.98
-27.74
-27.02
-24.82
-21.38
-17.23
-13.00
-9.28
-6.43
-4.54
-3.47
-2.95
-2.67
-2.43
-2.11
-1.69
-1.30
-1.05
-1.07
-1.41
-2.02
-2.73
-3.38
-3.85
-4.07
-4.06
-3.85
-3.48
-3.00
-2.44
-1.88
-1.47
-1.34
-1.57
-2.14
-2.89
-3.61
-4.10
-4.27
-4.17
-3.96
-3.79
-3.77
-3.96
-4.41
-5.24
-6.59
-8.55
-11.02
-13.67
-15.95
-17.29
-17.23
-15.61
-12.56
-8.48
-3.80
1.06
5.84
10.34
14.36
17.60
19.72
20.45
19.82
18.29
16.66
15.81
16.33
18.20
20.76
22.99
23.92
23.00
20.28
16.28
11.74
7.30
3.34
-0.06
-3.03
-5.75
-8.38
-10.95
-13.32
-15.22
-16.35
-16.50
-15.68
-14.19
-12.49
-11.05
-10.20
-10.01
-10.35
-10.97
-11.66
-12.31
-12.90
-13.47
-14.01
-14.47
-14.73
-14.63
-14.01
-12.72
-10.72
-8.08
-5.00
-1.75
1.44
4.43
7.21
9.85
12.38
14.71
16.71
18.22
19.23
19.84
20.23
20.51
20.65
20.53
20.04
19.21
18.21
17.38
17.00
17.22
17.99
19.10
20.27
21.25
21.82
21.85
21.32
20.27
18.87
17.32
15.82
14.51
13.43
12.56
11.84
11.24
10.73
10.29
9.84
9.27
8.48
7.42
6.10
4.63
3.16
1.78
0.54
-0.60
-1.73
-2.95
-4.36
-6.02
-7.98
-10.22
-12.69
-15.32
-17.99
-20.60
-23.09
-25.42
-27.59
-29.58
-31.27
-32.45
-32.70
-31.57
-28.63
-23.65
-16.79
-8.55
0.29
8.93
16.72
23.33
28.68
32.89
36.05
38.25
39.48
39.78
39.30
38.28
36.99
35.66
34.39
33.16
31.89
30.52
29.05
27.58
26.26
25.17
24.30
23.50
22.56
21.32
19.75
17.93
16.01
14.09
12.20
10.27
8.24
6.10
3.92
1.79
-0.19
-2.01
-3.68
-5.22
-6.72
-8.24
-9.94
-11.94
-14.26
-16.77
-19.13
-20.91
-21.65
-21.11
-19.27
-16.35
-12.75
-8.92
-5.23
-1.94
0.81
2.98
4.61
5.74
6.45
6.81
6.92
6.87
6.72
6.48
6.12
5.61
4.97
4.35
3.96
4.03
4.69
5.90
7.46
9.04
10.32
11.10
11.29
10.98
10.30
9.42
8.49
7.58
6.77
6.09
5.56
5.16
4.86
4.58
4.30
4.00
3.73
3.54
3.47
3.46
3.38
3.08
2.36
1.16
-0.52
-2.53
-4.68
-6.82
-8.85
-10.82
-12.80
-14.91
-17.21
-19.71
-22.36
-25.03
-27.54
-29.59
-30.80
-30.77
-29.24
-26.20
-21.96
-17.02
-11.96
-7.19
-2.95
0.72
3.82
6.40
8.47
10.06
11.27
12.20
12.99
13.74
14.50
15.29
16.08
16.80
17.38
17.74
17.88
17.88
17.84
17.86
17.97
18.08
18.02
17.61
16.78
15.57
14.15
12.66
11.24
9.91
8.64
7.32
5.85
4.17
2.28
0.25
-1.78
-3.69
-5.39
-6.90
-8.30
-9.69
-11.14
-12.66
-14.23
-15.79
-17.35
-18.92
-20.50
-22.07
-23.58
-24.97
-26.29
-27.67
-29.34
-31.46
-34.00
-36.67
-38.97
-40.27
-40.09
-38.21
-34.77
-30.22
-25.15
-20.10
-15.44
-11.29
-7.61
-4.28
-1.25
1.43
3.66
5.34
6.45
7.08
7.35
7.43
7.40
7.33
7.30
7.37
7.64
8.18
8.98
9.94
10.91
11.74
12.35
12.69
12.76
12.56
12.10
11.37
10.40
9.24
7.96
6.65
5.38
4.25
3.32
2.62
2.11
1.67
1.11
0.29
-0.88
-2.34
-3.94
-5.50
-6.89
-8.08
-9.15
-10.25
-11.58
-13.24
-15.28
-17.57
-19.89
-21.93
-23.35
-23.91
-23.49
-22.15
-20.09
-17.61
-14.99
-12.41
-9.95
-7.57
-5.20
-2.87
-0.69
1.13
2.37
2.93
2.84
2.27
1.45
0.60
-0.16
-0.76
-1.12
-1.16
-0.75
0.18
1.60
3.38
5.31
7.18
8.84
10.18
11.11
11.52
11.27
10.28
8.57
6.31
3.77
1.26
-1.02
-3.01
-4.80
-6.56
-8.44
-10.49
-12.59
-14.53
-16.10
-17.18
-17.85
-18.31
-18.85
-19.69
-20.91
-22.44
-24.09
-25.65
-26.97
-27.98
-28.71
-29.26
-29.70
-30.05
-30.18
-29.79
-28.47
-25.82
-21.59
-15.87
-9.06
-1.86
4.94
10.59
14.60
16.82
17.47
17.05
16.21
15.58
15.60
16.46
18.08
20.18
22.36
24.18
25.26
25.33
24.29
22.23
19.43
16.29
13.27
10.71
8.80
7.52
6.78
6.42
6.39
6.68
7.32
8.27
9.39
10.42
11.11
11.24
10.72
9.59
7.93
5.85
3.44
0.75
-2.18
-5.26
-8.39
-11.46
-14.31
-16.73
-18.51
-19.38
-19.13
-17.61
-14.84
-10.99
-6.37
-1.39
3.48
7.82
11.26
13.64
14.93
15.30
15.05
14.54
14.12
14.06
14.53
15.54
16.99
18.65
20.26
21.55
22.39
22.78
22.94
23.18
23.81
25.00
26.68
28.55
30.17
31.15
31.24
30.40
28.78
26.58
24.00
21.21
18.27
15.21
12.04
8.80
5.56
2.46
-0.31
-2.50
-3.96
-4.67
-4.77
-4.62
-4.58
-4.99
-5.91
-7.22
-8.55
-9.55
-10.01
-10.01
-9.91
-10.22
-11.39
-13.63
-16.78
-20.31
-23.37
-24.93
-24.07
-20.19
-13.34
-4.39
5.15
13.51
19.35
22.17
22.55
21.83
21.45
22.35
24.50
27.05
28.70
28.36
25.56
20.58
14.34
8.01
2.60
-1.27
-3.44
-4.18
-3.92
-3.14
-2.22
-1.41
-0.85
-0.62
-0.77
-1.31
-2.13
-3.05
-3.81
-4.16
-3.97
-3.32
-2.44
-1.63
-1.13
-0.98
-1.05
-1.12
-1.07
-0.88
-0.69
-0.68
-1.00
-1.72
-2.87
-4.39
-6.21
-8.23
-10.26
-12.17
-13.84
-15.29
-16.63
-18.00
-19.46
-21.02
-22.64
-24.26
-25.92
-27.65
-29.39
-30.97
-32.06
-32.28
-31.36
-29.21
-25.99
-22.08
-17.96
-14.04
-10.52
-7.42
-4.65
-2.11
0.19
2.07
3.38
4.04
4.18
4.05
3.95
4.04
4.36
4.81
5.29
5.77
6.26
6.74
7.19
7.52
7.64
7.51
7.16
6.62
5.91
5.00
3.87
2.50
0.93
-0.78
-2.59
-4.44
-6.27
-7.96
-9.32
-10.09
-10.04
-9.06
-7.21
-4.72
-1.91
0.85
3.29
5.23
6.58
7.31
7.46
7.10
6.29
5.11
3.59
1.78
-0.23
-2.33
-4.34
-6.10
-7.46
-8.30
-8.53
-8.03
-6.70
-4.48
-1.46
2.10
5.76
9.09
11.77
13.75
15.14
16.10
16.73
17.04
16.96
16.53
15.94
15.48
15.44
15.94
16.87
17.99
18.99
19.63
19.83
19.58
18.94
17.96
16.70
15.21
13.53
11.72
9.78
7.74
5.61
3.44
1.28
-0.81
-2.82
-4.73
-6.57
-8.36
-10.13
-11.95
-13.93
-16.18
-18.72
-21.43
-24.04
-26.11
-27.26
-27.23
-26.00
-23.80
-21.00
-18.04
-15.23
-12.72
-10.47
-8.33
-6.13
-3.76
-1.17
1.65
4.67
7.92
11.39
15.07
18.87
22.64
26.18
29.24
31.54
32.82
32.89
31.73
29.55
26.79
23.97
21.51
19.54
17.87
16.12
13.88
10.91
7.20
2.89
-1.87
-6.96
-12.31
-17.80
-23.18
-28.08
-32.08
-34.88
-36.35
-36.67
-36.13
-35.09
-33.76
-32.18
-30.25
-27.83
-24.92
-21.71
-18.53
-15.76
-13.67
-12.29
-11.40
-10.65
-9.70
-8.34
-6.56
-4.51
-2.39
-0.40
1.33
2.70
3.66
4.19
4.29
4.05
3.65
3.29
3.24
3.65
4.60
6.00
7.61
9.08
10.01
10.05
8.99
6.90
4.15
1.31
-1.04
-2.42
-2.65
-1.86
-0.39
1.31
2.80
3.74
3.89
3.20
1.78
-0.06
-1.92
-3.47
-4.64
-5.59
-6.66
-8.05
-9.63
-10.81
-10.83
-9.02
-5.21
0.24
6.48
12.53
17.55
21.06
22.96
23.43
22.91
21.92
20.98
20.56
20.91
22.08
23.84
25.82
27.60
28.94
29.93
30.99
32.70
35.48
39.23
43.18
46.11
46.79
44.63
40.01
34.14
28.56
24.45
22.20
21.36
20.95
20.00
17.99
14.91
11.16
7.25
3.57
0.26
-2.83
-6.00
-9.56
-13.53
-17.64
-21.39
-24.40
-26.59
-28.22
-29.86
-32.15
-35.37
-39.23
-42.96
-45.73
-47.10
-47.22
-46.75
-46.73
-48.31
-52.22
-58.33
-65.67
-72.69
-77.75
-79.43
-76.58
-68.73
-56.29
-40.49
-23.10
-6.23
8.05
18.21
23.02
23.54
23.26
25.65
31.85
40.18
47.53
51.12
49.88
44.71
37.88
31.34
25.75
20.59
15.06
9.10
3.68
0.43
0.55
4.40
10.84
17.74
23.05
25.69
25.81
24.32
22.16
19.89
17.72
15.42
12.91
10.65
9.62
10.77
14.38
19.77
25.48
30.12
31.85
29.60
23.70
15.85
8.38
3.34
1.85
3.88
8.40
12.57
13.44
9.59
1.96
-6.65
-13.02
-14.81
-11.45
-4.22
2.44
4.04
-1.45
-12.61
-25.72
-36.70
-42.61
-42.25
-36.16
-29.28
-27.76
-36.32
-56.47
-87.00
-125.12
-167.49
-210.67
-240.28
-245.64
-226.16
-191.95
-154.93
-121.51
-92.11
-64.14
-37.44
-8.01
23.32
53.38
79.29
100.15
116.74
130.54
140.37
145.28
145.01
137.71
122.68
101.58
78.31
57.06
40.28
28.05
19.24
12.78
6.93
1.22
-3.16
-4.20
-0.74
6.26
13.85
18.70
18.58
12.45
1.44
-11.55
-23.10
-30.66
-33.46
-32.34
-28.78
-24.28
-20.28
-17.76
-17.12
-18.25
-20.64
-23.56
-26.23
-27.98
-28.51
-28.10
-27.32
-26.76
-26.69
-26.96
-27.11
-26.63
-25.18
-22.75
-19.62
-16.24
-13.10
-10.61
-9.09
-8.70
-9.38
-10.87
-12.75
-14.58
-16.11
-17.30
-18.24
-19.00
-19.41
-19.05
-17.43
-14.19
-9.38
-3.42
3.01
9.22
14.71
19.29
22.97
25.84
27.94
29.20
29.49
28.79
27.30
25.57
24.25
23.96
24.90
26.77
28.91
30.67
31.79
32.57
33.66
35.62
38.45
41.44
43.41
43.24
40.45
35.41
29.18
23.10
18.23
15.10
13.68
13.58
14.27
15.30
16.34
17.09
17.33
16.83
15.48
13.28
10.43
7.29
4.27
1.69
-0.37
-2.03
-3.56
-5.16
-6.88
-8.50
-9.74
-10.36
-10.34
-9.91
-9.46
-9.34
-9.73
-10.66
-11.98
-13.49
-14.95
-16.13
-16.88
-17.17
-17.09
-16.92
-16.96
-17.47
-18.50
-19.82
-21.00
-21.49
-20.86
-18.88
-15.68
-11.60
-7.15
-2.81
1.05
4.21
6.64
8.48
9.96
11.33
12.72
14.15
15.45
16.44
16.99
17.16
17.13
17.15
17.31
17.53
17.57
17.21
16.38
15.22
14.00
12.98
12.26
11.80
11.45
11.15
10.92
10.89
11.11
11.51
11.86
11.87
11.31
10.18
8.68
7.12
5.75
4.71
3.95
3.31
2.63
1.80
0.80
-0.32
-1.53
-2.77
-4.03
-5.31
-6.62
-8.01
-9.52
-11.20
-13.02
-14.84
-16.37
-17.28
-17.22
-16.00
-13.67
-10.54
-7.08
-3.74
-0.87
1.40
3.14
4.53
5.73
6.84
7.90
8.86
9.69
10.41
11.06
11.67
12.21
12.63
12.83
12.75
12.42
11.92
11.37
10.82
10.30
9.74
9.08
8.25
7.27
6.19
5.03
3.83
2.58
1.27
-0.11
-1.55
-3.07
-4.61
-6.09
-7.40
-8.39
-8.98
-9.13
-8.82
-8.04
-6.74
-4.87
-2.40
0.59
3.90
7.23
10.27
12.74
14.53
15.65
16.16
16.18
15.81
15.10
14.10
12.84
11.38
9.73
7.87
5.70
3.20
0.45
-2.26
-4.50
-5.83
-6.00
-5.07
-3.35
-1.30
0.70
2.46
3.91
5.07
5.98
6.62
6.99
7.16
7.23
7.31
7.45
7.64
7.83
8.00
8.14
8.30
8.48
8.63
8.67
8.55
8.31
8.03
7.81
7.72
7.71
7.70
7.59
7.31
6.89
6.29
5.50
4.43
3.05
1.41
-0.28
-1.75
-2.76
-3.30
-3.57
-3.88
-4.53
-5.60
-6.96
-8.31
-9.33
-9.86
-9.93
-9.73
-9.51
-9.41
-9.46
-9.58
-9.64
-9.59
-9.45
-9.32
-9.29
-9.36
-9.43
-9.35
-8.94
-8.10
-6.84
-5.22
-3.34
-1.27
0.90
3.04
4.96
6.50
7.52
8.07
8.33
8.53
8.87
9.38
9.99
10.52
10.82
10.80
10.48
9.93
9.26
8.56
7.92
7.38
6.94
6.56
6.20
5.81
5.40
4.99
4.66
4.48
4.49
4.73
5.19
5.84
6.64
7.53
8.50
9.55
10.63
11.57
12.08
11.84
10.67
8.75
6.50
4.52
3.22
2.68
2.59
2.48
1.88
0.55
-1.47
-4.00
-6.73
-9.42
-11.88
-13.98
-15.62
-16.72
-17.23
-17.11
-16.37
-15.10
-13.48
-11.80
-10.31
-9.15
-8.26
-7.41
-6.35
-4.91
-3.18
-1.45
-0.09
0.59
0.53
-0.06
-0.74
-1.03
-0.59
0.73
2.85
5.55
8.60
11.75
14.78
17.48
19.71
21.51
23.09
24.76
26.64
28.46
29.48
28.78
25.68
20.19
13.10
5.72
-0.70
-5.43
-8.42
-10.11
-11.03
-11.51
-11.58
-11.21
-10.55
-9.94
-9.78
-10.35
-11.54
-12.92
-13.99
-14.42
-14.20
-13.63
-13.18
-13.27
-14.16
-15.86
-18.21
-20.82
-23.23
-24.92
-25.48
-24.77
-22.94
-20.42
-17.76
-15.42
-13.62
-12.37
-11.51
-10.87
-10.39
-10.08
-9.99
-10.14
-10.49
-10.94
-11.37
-11.69
-11.89
-12.04
-12.21
-12.49
-12.88
-13.23
-13.38
-13.18
-12.67
-12.13
-11.96
-12.51
-13.87
-15.68
-17.30
-17.96
-17.10
-14.55
-10.52
-5.50
-0.05
5.39
10.49
15.01
18.73
21.43
22.97
23.41
23.01
22.15
21.19
20.35
19.60
18.81
17.79
16.48
14.88
13.12
11.33
9.64
8.14
6.90
5.90
5.02
4.10
2.95
1.49
-0.20
-1.88
-3.24
-4.04
-4.22
-3.86
-3.15
-2.32
-1.52
-0.80
-0.18
0.34
0.73
0.94
0.92
0.69
0.37
0.12
0.06
0.21
0.46
0.69
0.80
0.80
0.80
0.88
1.09
1.40
1.73
2.06
2.38
2.70
3.02
3.27
3.41
3.41
3.32
3.22
3.17
3.13
3.03
2.78
2.41
2.01
1.71
1.62
1.74
1.98
2.23
2.35
2.25
1.84
1.08
-0.04
-1.42
-2.87
-4.15
-5.02
-5.32
-5.09
-4.51
-3.81
-3.25
-2.96
-3.03
-3.48
-4.32
-5.55
-7.12
-8.84
-10.45
-11.60
-12.02
-11.65
-10.71
-9.63
-8.94
-9.05
-10.11
-11.92
-14.03
-15.82
-16.75
-16.45
-14.86
-12.23
-9.01
-5.68
-2.63
-0.11
1.76
2.98
3.53
3.53
3.12
2.56
2.08
1.86
1.91
2.15
2.47
2.79
3.09
3.34
3.48
3.38
2.96
2.26
1.48
0.93
0.88
1.44
2.55
3.99
5.46
6.75
7.68
8.18
8.28
8.04
7.54
6.83
5.95
4.86
3.52
1.92
0.12
-1.73
-3.42
-4.75
-5.54
-5.68
-5.22
-4.34
-3.34
-2.61
-2.46
-3.07
-4.38
-6.12
-7.92
-9.39
-10.27
-10.41
-9.80
-8.50
-6.64
-4.40
-2.02
0.28
2.28
3.81
4.82
5.36
5.55
5.54
5.49
5.53
5.73
6.09
6.56
7.08
7.54
7.86
8.00
8.00
7.92
7.86
7.85
7.86
7.79
7.57
7.18
6.69
6.22
5.86
5.61
5.39
5.11
4.73
4.26
3.78
3.29
2.80
2.27
1.68
1.07
0.50
-0.02
-0.50
-1.02
-1.63
-2.31
-3.02
-3.64
-4.14
-4.55
-4.95
-5.38
-5.90
-6.49
-7.20
-8.08
-9.20
-10.59
-12.16
-13.72
-15.00
-15.70
-15.63
-14.72
-13.10
-11.05
-8.88
-6.83
-5.01
-3.37
-1.80
-0.24
1.31
2.71
3.85
4.64
5.13
5.44
5.67
5.91
6.17
6.46
6.79
7.21
7.72
8.30
8.83
9.17
9.22
8.98
8.55
8.09
7.76
7.61
7.61
7.62
7.50
7.20
6.72
6.13
5.56
5.06
4.63
4.24
3.86
3.48
3.12
2.81
2.57
2.36
2.10
1.70
1.11
0.34
-0.58
-1.59
-2.61
-3.59
-4.50
-5.31
-6.03
-6.67
-7.29
-7.97
-8.79
-9.81
-11.02
-12.32
-13.53
-14.37
-14.61
-14.10
-12.81
-10.88
-8.52
-5.98
-3.47
-1.14
0.88
2.54
3.82
4.74
5.36
5.76
6.05
6.34
6.74
7.28
7.96
8.68
9.32
9.75
9.94
9.92
9.81
9.73
9.71
9.70
9.61
9.36
8.94
8.43
7.91
7.47
7.12
6.79
6.37
5.80
5.05
4.23
3.45
2.85
2.45
2.20
1.96
1.60
1.09
0.47
-0.18
-0.74
-1.18
-1.49
-1.71
-1.89
-2.11
-2.47
-3.08
-4.01
-5.23
-6.61
-7.98
-9.16
-10.11
-10.88
-11.62
-12.46
-13.49
-14.67
-15.82
-16.70
-17.07
-16.80
-15.87
-14.39
-12.56
-10.52
-8.39
-6.25
-4.16
-2.23
-0.59
0.67
1.56
2.22
2.81
3.48
4.28
5.10
5.81
6.27
6.47
6.51
6.53
6.70
7.11
7.73
8.47
9.15
9.60
9.72
9.48
8.97
8.33
7.75
7.36
7.18
7.17
7.18
7.08
6.79
6.32
5.71
5.04
4.35
3.69
3.09
2.62
2.32
2.17
2.08
1.94
1.62
1.10
0.41
-0.38
-1.19
-2.01
-2.86
-3.73
-4.55
-5.28
-5.84
-6.29
-6.74
-7.31
-8.09
-9.06
-10.15
-11.23
-12.20
-12.99
-13.50
-13.64
-13.29
-12.40
-11.00
-9.22
-7.24
-5.23
-3.32
-1.57
-0.06
1.18
2.14
2.87
3.49
4.11
4.76
5.39
5.88
6.12
6.14
6.02
5.92
5.91
5.99
6.10
6.19
6.30
6.45
6.69
6.96
7.16
7.20
7.03
6.69
6.25
5.73
5.18
4.62
4.12
3.77
3.59
3.54
3.46
3.21
2.71
2.02
1.28
0.64
0.16
-0.24
-0.70
-1.29
-2.01
-2.78
-3.50
-4.13
-4.74
-5.40
-6.18
-7.02
-7.79
-8.41
-8.85
-9.23
-9.74
-10.54
-11.67
-13.01
-14.33
-15.32
-15.77
-15.54
-14.65
-13.24
-11.47
-9.55
-7.64
-5.87
-4.30
-2.98
-1.89
-0.97
-0.15
0.63
1.38
2.09
2.70
3.20
3.59
3.97
4.40
4.92
5.51
6.09
6.57
6.90
7.06
7.12
7.11
7.05
6.92
6.70
6.37
6.00
5.67
5.45
5.32
5.19
4.93
4.50
3.93
3.38
2.98
2.77
2.66
2.51
2.19
1.73
1.21
0.74
0.32
-0.16
-0.82
-1.73
-2.81
-3.87
-4.69
-5.18
-5.39
-5.54
-5.90
-6.65
-7.84
-9.32
-10.80
-11.99
-12.63
-12.59
-11.88
-10.56
-8.78
-6.69
-4.50
-2.40
-0.60
0.78
1.76
2.45
3.00
3.54
4.13
4.75
5.33
5.84
6.26
6.60
6.83
6.95
6.94
6.84
6.71
6.62
6.58
6.55
6.45
6.25
5.97
5.68
5.45
5.29
5.09
4.74
4.18
3.44
2.66
1.99
1.51
1.21
1.00
0.80
0.58
0.34
0.09
-0.22
-0.68
-1.35
-2.19
-3.09
-3.88
-4.47
-4.85
-5.14
-5.50
-6.08
-6.96
-8.13
-9.50
-10.96
-12.37
-13.59
-14.53
-15.09
-15.23
-14.89
-14.06
-12.74
-11.01
-9.03
-6.98
-5.00
-3.18
-1.51
0.01
1.39
2.60
3.61
4.41
5.04
5.58
6.07
6.55
6.99
7.36
7.65
7.83
7.94
7.97
7.94
7.85
7.77
7.73
7.76
7.82
7.83
7.68
7.32
6.78
6.13
5.50
4.94
4.45
3.99
3.51
2.99
2.45
1.89
1.36
0.89
0.49
0.20
0.04
-0.02
-0.05
-0.13
-0.35
-0.76
-1.34
-2.01
-2.70
-3.33
-3.86
-4.28
-4.58
-4.82
-5.08
-5.43
-5.96
-6.72
-7.68
-8.71
-9.69
-10.51
-11.16
-11.74
-12.40
-13.24
-14.17
-15.00
-15.39
-15.10
-14.02
-12.23
-9.96
-7.50
-5.06
-2.83
-0.86
0.82
2.20
3.29
4.11
4.70
5.12
5.47
5.89
6.49
7.32
8.31
9.32
10.10
10.51
10.51
10.22
9.86
9.61
9.53
9.54
9.52
9.32
8.93
8.42
7.92
7.47
7.08
6.64
6.09
5.42
4.73
4.16
3.80
3.64
3.59
3.51
3.33
3.06
2.72
2.39
2.03
1.61
1.05
0.32
-0.53
-1.41
-2.21
-2.87
-3.38
-3.79
-4.19
-4.68
-5.35
-6.19
-7.13
-8.08
-8.93
-9.68
-10.41
-11.25
-12.29
-13.49
-14.71
-15.72
-16.27
-16.22
-15.46
-14.03
-12.00
-9.54
-6.85
-4.17
-1.69
0.44
2.20
3.59
4.68
5.55
6.28
6.90
7.46
7.97
8.43
8.81
9.05
9.12
9.05
8.91
8.84
8.93
9.22
9.64
10.01
10.13
9.91
9.33
8.55
7.73
7.02
6.48
6.06
5.69
5.29
4.83
4.32
3.79
3.28
2.83
2.47
2.24
2.12
2.08
2.05
1.94
1.70
1.31
0.80
0.21
-0.37
-0.90
-1.36
-1.76
-2.16
-2.65
-3.29
-4.11
-5.08
-6.09
-7.02
-7.84
-8.55
-9.25
-10.02
-10.93
-12.00
-13.15
-14.31
-15.40
-16.36
-17.10
-17.48
-17.33
-16.48
-14.85
-12.52
-9.76
-6.93
-4.35
-2.23
-0.56
0.80
2.02
3.19
4.28
5.21
5.93
6.47
6.92
7.38
7.90
8.45
8.94
9.28
9.45
9.44
9.33
9.19
9.13
9.19
9.39
9.65
9.85
9.86
9.58
9.04
8.29
7.49
6.71
6.01
5.40
4.87
4.44
4.11
3.87
3.63
3.32
2.85
2.24
1.56
0.90
0.31
-0.21
-0.73
-1.31
-1.94
-2.62
-3.29
-3.96
-4.67
-5.44
-6.28
-7.18
-8.11
-9.09
-10.19
-11.44
-12.82
-14.14
-15.15
-15.52
-15.06
-13.72
-11.66
-9.14
-6.46
-3.84
-1.42
0.71
2.49
3.87
4.82
5.38
5.69
5.93
6.29
6.85
7.55
8.24
8.77
9.08
9.24
9.34
9.49
9.66
9.80
9.81
9.63
9.31
8.93
8.57
8.28
8.05
7.81
7.50
7.08
6.53
5.87
5.13
4.36
3.60
2.90
2.32
1.91
1.68
1.59
1.52
1.35
1.00
0.47
-0.15
-0.73
-1.14
-1.38
-1.53
-1.71
-2.00
-2.41
-2.89
-3.41
-3.98
-4.67
-5.53
-6.56
-7.64
-8.63
-9.42
-9.99
-10.43
-10.90
-11.55
-12.47
-13.62
-14.89
-16.09
-17.04
-17.55
-17.45
-16.63
-15.06
-12.82
-10.11
-7.21
-4.37
-1.80
0.38
2.15
3.55
4.62
5.44
6.08
6.58
6.99
7.34
7.62
7.82
7.92
7.98
8.04
8.16
8.36
8.59
8.76
8.82
8.73
8.52
8.23
7.91
7.59
7.26
6.93
6.58
6.22
5.82
5.38
4.88
4.32
3.70
3.06
2.44
1.88
1.41
1.03
0.74
0.51
0.29
0.02
-0.34
-0.82
-1.39
-1.98
-2.51
-2.92
-3.24
-3.52
-3.89
-4.42
-5.16
-6.07
-7.03
-7.92
-8.65
-9.18
-9.55
-9.86
-10.22
-10.77
-11.56
-12.53
-13.45
-14.02
-13.93
-13.02
-11.35
-9.14
-6.68
-4.22
-1.85
0.38
2.46
4.27
5.67
6.55
6.94
7.01
7.01
7.16
7.51
8.01
8.51
8.90
9.08
9.05
8.86
8.63
8.45
8.44
8.62
8.94
9.22
9.29
9.02
8.40
7.58
6.73
5.96
5.30
4.67
3.98
3.20
2.39
1.68
1.16
0.85
0.67
0.50
0.22
-0.23
-0.83
-1.53
-2.27
-3.00
-3.69
-4.33
-4.94
-5.53
-6.10
-6.68
-7.29
-8.00
-8.89
-10.04
-11.46
-13.06
-14.64
-15.89
-16.49
-16.23
-15.03
-13.00
-10.37
-7.45
-4.54
-1.88
0.39
2.23
3.64
4.72
5.54
6.20
6.81
7.41
8.03
8.66
9.25
9.73
10.06
10.21
10.20
10.08
9.93
9.83
9.80
9.83
9.84
9.74
9.47
9.01
8.40
7.73
7.02
6.31
5.61
4.91
4.29
3.81
3.48
3.24
2.98
2.57
2.02
1.41
0.90
0.64
0.61
0.72
0.76
0.59
0.16
-0.47
-1.17
-1.87
-2.51
-3.12
-3.71
-4.28
-4.83
-5.36
-5.94
-6.64
-7.53
-8.60
-9.76
-10.87
-11.84
-12.65
-13.38
-14.18
-15.16
-16.32
-17.56
-18.63
-19.27
-19.28
-18.58
-17.25
-15.44
-13.32
-10.98
-8.45
-5.73
-2.86
0.04
2.80
5.25
7.29
8.87
9.99
10.65
10.87
10.78
10.58
10.54
10.82
11.36
11.85
11.90
11.17
9.63
7.56
5.47
3.82
2.86
2.56
2.66
2.89
3.08
3.19
3.27
3.36
3.43
3.37
3.15
2.81
2.48
2.33
2.47
2.87
3.33
3.63
3.56
3.03
2.07
0.77
-0.68
-2.14
-3.46
-4.54
-5.31
-5.78
-6.02
-6.16
-6.33
-6.64
-7.16
-7.86
-8.70
-9.62
-10.57
-11.47
-12.15
-12.42
-12.08
-11.01
-9.24
-7.02
-4.63
-2.41
-0.56
0.89
2.00
2.88
3.61
4.17
4.52
4.60
4.43
4.11
3.76
3.48
3.35
3.35
3.41
3.40
3.18
2.63
1.69
0.36
-1.23
-2.91
-4.49
-5.80
-6.85
-7.74
-8.70
-10.01
-11.88
-14.42
-17.49
-20.76
-23.79
-26.12
-27.46
-27.76
-27.21
-26.12
-24.75
-23.20
-21.39
-19.13
-16.28
-12.87
-9.18
-5.63
-2.64
-0.46
0.87
1.52
1.72
1.76
1.85
2.17
2.82
3.77
4.83
5.69
6.05
5.76
4.92
3.90
3.21
3.24
4.18
5.96
8.28
10.85
13.39
15.77
17.90
19.71
21.10
21.98
22.27
22.01
21.32
20.44
19.62
19.05
18.81
18.81
18.87
18.80
18.45
17.77
16.77
15.45
13.77
11.66
9.13
6.36
3.71
1.66
0.58
0.56
1.30
2.18
2.50
1.74
-0.23
-3.03
-5.98
-8.30
-9.45
-9.36
-8.47
-7.55
-7.40
-8.50
-10.84
-13.89
-16.85
-18.98
-19.76
-19.05
-16.98
-13.87
-10.12
-6.20
-2.62
0.15
1.83
2.49
2.59
2.83
3.86
6.00
9.01
12.23
14.84
16.15
15.88
14.19
11.53
8.51
5.70
3.57
2.45
2.50
3.70
5.83
8.52
11.24
13.47
14.76
14.91
14.07
12.74
11.61
11.35
12.28
14.22
16.54
18.36
18.90
17.72
14.78
10.44
5.28
-0.04
-4.86
-8.61
-10.89
-11.55
-10.78
-9.13
-7.37
-6.25
-6.24
-7.33
-9.02
-10.48
-10.83
-9.39
-5.84
-0.30
6.63
14.01
20.68
25.53
27.83
27.44
24.79
20.72
16.11
11.59
7.36
3.37
-0.45
-4.05
-7.20
-9.59
-11.06
-11.61
-11.49
-11.00
-10.44
-9.95
-9.55
-9.15
-8.63
-7.91
-6.95
-5.63
-3.76
-1.07
2.46
6.34
9.47
10.37
7.79
1.35
-8.03
-18.35
-27.19
-32.52
-33.35
-29.79
-22.85
-13.94
-4.48
4.29
11.43
16.35
18.95
19.63
19.15
18.29
17.72
17.82
18.86
21.18
24.96
29.77
34.19
36.07
33.56
26.46
16.86
8.49
5.04
8.16
16.62
26.92
35.15
38.73
37.05
30.88
21.18
8.43
-7.06
-24.34
-41.14
-54.18
-60.30
-57.77
-47.01
-30.32
-11.01
7.71
23.61
35.71
44.15
49.69
53.30
55.80
57.72
59.26
60.24
60.04
57.54
51.21
39.63
22.02
-1.13
-27.92
-55.35
-80.06
-99.08
-110.41
-113.25
-108.10
-96.59
-81.29
-65.34
-51.76
-42.82
-39.44
-41.01
-45.69
-51.05
-54.88
-55.78
-53.46
-48.70
-42.91
-37.49
-33.37
-30.61
-28.49
-25.79
-21.38
-14.64
-5.78
4.32
14.40
23.33
30.40
35.49
38.87
40.94
41.97
41.97
40.84
38.51
35.14
31.06
26.72
22.47
18.50
14.85
11.46
8.23
5.14
2.18
-0.59
-3.13
-5.38
-7.40
-9.24
-10.91
-12.24
-12.83
-12.18
-9.89
-5.90
-0.68
4.87
9.78
13.33
15.31
16.03
16.09
16.04
16.22
16.66
17.25
17.82
18.26
18.57
18.74
18.73
18.41
17.66
16.39
14.66
12.63
10.58
8.78
7.40
6.52
6.07
5.90
5.81
5.63
5.20
4.44
3.38
2.10
0.81
-0.31
-1.15
-1.77
-2.36
-3.18
-4.42
-6.05
-7.91
-9.72
-11.26
-12.47
-13.47
-14.45
-15.64
-17.14
-18.90
-20.74
-22.35
-23.40
-23.56
-22.65
-20.69
-17.84
-14.43
-10.79
-7.22
-3.93
-1.02
1.42
3.39
4.96
6.23
7.38
8.53
9.71
10.87
11.83
12.48
12.75
12.71
12.47
12.19
11.96
11.82
11.76
11.74
11.67
11.48
11.08
10.42
9.55
8.56
7.61
6.79
6.17
5.68
5.25
4.76
4.17
3.47
2.72
1.97
1.28
0.64
0.04
-0.58
-1.24
-1.96
-2.73
-3.50
-4.25
-5.01
-5.79
-6.64
-7.50
-8.30
-8.89
-9.22
-9.30
-9.32
-9.51
-10.09
-11.10
-12.35
-13.50
-14.13
-13.93
-12.83
-10.97
-8.61
-6.04
-3.47
-1.01
1.25
3.26
4.94
6.25
7.20
7.84
8.23
8.41
8.40
8.24
8.04
7.91
7.93
8.10
8.28
8.29
7.99
7.44
6.79
6.27
6.04
6.12
6.38
6.61
6.64
6.33
5.64
4.62
3.39
2.11
0.95
0.06
-0.55
-0.93
-1.20
-1.46
-1.77
-2.12
-2.49
-2.89
-3.31
-3.76
-4.24
-4.75
-5.29
-5.95
-6.81
-7.89
-9.08
-10.19
-11.08
-11.67
-12.12
-12.63
-13.38
-14.40
-15.48
-16.36
-16.73
-16.46
-15.51
-13.97
-11.95
-9.57
-6.94
-4.25
-1.70
0.49
2.19
3.42
4.30
5.05
5.82
6.69
7.61
8.42
8.99
9.27
9.30
9.16
8.95
8.73
8.48
8.20
7.86
7.47
7.08
6.76
6.51
6.28
5.95
5.40
4.60
3.63
2.72
2.09
1.86
2.02
2.36
2.60
2.57
2.18
1.55
0.81
0.11
-0.50
-1.03
-1.55
-2.09
-2.70
-3.38
-4.12
-4.89
-5.65
-6.35
-6.93
-7.38
-7.75
-8.15
-8.78
-9.76
-11.10
-12.61
-13.93
-14.66
-14.51
-13.45
-11.63
-9.36
-6.93
-4.50
-2.20
-0.05
1.92
3.69
5.25
6.61
7.76
8.69
9.37
9.82
10.07
10.21
10.29
10.25
10.00
9.46
8.62
7.69
6.91
6.49
6.47
6.65
6.75
6.52
5.87
4.95
3.96
3.14
2.55
2.13
1.79
1.43
1.05
0.71
0.46
0.25
-0.03
-0.49
-1.16
-1.93
-2.61
-3.06
-3.25
-3.35
-3.59
-4.16
-5.09
-6.26
-7.47
-8.54
-9.37
-10.03
-10.65
-11.39
-12.34
-13.54
-14.88
-16.14
-17.06
-17.37
-16.91
-15.63
-13.63
-11.13
-8.36
-5.59
-3.00
-0.75
1.09
2.50
3.56
4.36
5.03
5.64
6.20
6.64
6.90
6.94
6.81
6.61
6.47
6.51
6.73
7.06
7.39
7.59
7.60
7.42
7.11
6.72
6.34
6.01
5.75
5.51
5.23
4.82
4.26
3.60
2.97
2.49
2.20
2.01
1.79
1.38
0.76
0.02
-0.71
-1.33
-1.83
-2.33
-2.97
-3.82
-4.87
-5.99
-7.01
-7.81
-8.35
-8.71
-9.04
-9.51
-10.26
-11.33
-12.60
-13.84
-14.74
-15.00
-14.43
-12.99
-10.82
-8.19
-5.43
-2.82
-0.50
1.48
3.17
4.66
6.02
7.27
8.37
9.26
9.87
10.15
10.07
9.66
9.03
8.32
7.71
7.34
7.26
7.44
7.77
8.07
8.22
8.12
7.77
7.23
6.61
6.00
5.46
4.97
4.48
3.95
3.38
2.80
2.25
1.72
1.18
0.58
-0.07
-0.72
-1.27
-1.63
-1.81
-1.90
-2.06
-2.47
-3.26
-4.40
-5.79
-7.19
-8.39
-9.24
-9.72
-9.95
-10.15
-10.58
-11.42
-12.73
-14.42
-16.28
-17.99
-19.19
-19.57
-18.92
-17.21
-14.58
-11.33
-7.84
-4.46
-1.43
1.16
3.37
5.27
6.91
8.26
9.28
9.94
10.28
10.48
10.68
11.00
11.40
11.75
11.89
11.76
11.43
11.04
10.70
10.43
10.14
9.70
9.07
8.27
7.41
6.60
5.85
5.10
4.27
3.33
2.36
1.48
0.81
0.37
0.06
-0.24
-0.63
-1.09
-1.55
-1.90
-2.07
-2.12
-2.17
-2.37
-2.84
-3.57
-4.50
-5.49
-6.42
-7.24
-7.95
-8.62
-9.32
-10.16
-11.22
-12.56
-14.17
-15.94
-17.61
-18.85
-19.29
-18.67
-16.88
-14.03
-10.43
-6.51
-2.71
0.63
3.34
5.43
7.06
8.39
9.53
10.49
11.22
11.70
11.94
12.05
12.12
12.17
12.14
11.90
11.34
10.51
9.60
8.86
8.51
8.59
8.98
9.39
9.54
9.23
8.44
7.33
6.10
4.97
4.04
3.30
2.67
2.08
1.45
0.80
0.13
-0.54
-1.26
-2.13
-3.22
-4.55
-6.06
-7.67
-9.33
-11.02
-12.75
-14.42
-15.77
-16.42
-15.99
-14.24
-11.32
-7.63
-3.75
-0.22
2.69
4.97
6.77
8.29
9.61
10.73
11.60
12.21
12.62
12.91
13.18
13.41
13.54
13.51
13.28
12.85
12.34
11.87
11.54
11.38
11.30
11.20
10.95
10.49
9.84
9.07
8.28
7.47
6.62
5.68
4.66
3.66
2.85
2.40
2.34
2.56
2.85
2.94
2.69
2.06
1.14
0.13
-0.80
-1.52
-1.96
-2.14
-2.13
-2.00
-1.88
-1.85
-1.99
-2.34
-2.87
-3.52
-4.25
-4.99
-5.73
-6.50
-7.36
-8.32
-9.37
-10.41
-11.34
-12.11
-12.74
-13.38
-14.25
-15.49
-17.15
-19.05
-20.82
-22.00
-22.18
-21.10
-18.78
-15.50
-11.66
-7.69
-3.91
-0.50
2.46
4.95
6.98
8.58
9.82
10.82
11.69
12.49
13.21
13.77
14.14
14.33
14.39
14.38
14.32
14.19
13.94
13.60
13.21
12.82
12.42
11.92
11.21
10.22
9.00
7.71
6.53
5.54
4.75
4.07
3.40
2.71
2.03
1.43
0.95
0.55
0.17
-0.29
-0.85
-1.53
-2.25
-2.94
-3.55
-4.04
-4.44
-4.78
-5.15
-5.60
-6.19
-6.97
-7.90
-8.94
-9.98
-10.93
-11.72
-12.33
-12.81
-13.25
-13.77
-14.50
-15.48
-16.70
-18.00
-19.16
-19.88
-19.88
-18.98
-17.08
-14.29
-10.87
-7.16
-3.56
-0.37
2.25
4.29
5.86
7.10
8.11
8.92
9.52
9.90
10.10
10.22
10.36
10.57
10.82
10.98
10.95
10.67
10.20
9.67
9.19
8.81
8.46
8.03
7.40
6.61
5.77
5.02
4.45
4.04
3.66
3.17
2.44
1.49
0.43
-0.58
-1.40
-1.94
-2.27
-2.52
-2.85
-3.36
-4.11
-5.09
-6.27
-7.60
-8.99
-10.25
-11.14
-11.37
-10.76
-9.32
-7.23
-4.82
-2.40
-0.20
1.70
3.32
4.72
5.90
6.87
7.60
8.10
8.45
8.71
8.91
9.01
8.96
8.75
8.48
8.31
8.41
8.85
9.51
10.14
10.46
10.23
9.42
8.18
6.74
5.37
4.23
3.39
2.82
2.43
2.07
1.60
0.91
-0.06
-1.27
-2.62
-3.96
-5.13
-6.02
-6.66
-7.21
-7.88
-8.90
-10.35
-12.11
-13.85
-15.16
-15.65
-15.13
-13.66
-11.49
-9.01
-6.57
-4.38
-2.55
-1.03
0.27
1.45
2.63
3.84
5.10
6.35
7.50
8.41
9.02
9.28
9.24
8.97
8.58
8.18
7.86
7.65
7.56
7.50
7.35
7.01
6.37
5.48
4.45
3.46
2.68
2.16
1.88
1.71
1.52
1.21
0.76
0.19
-0.39
-0.92
-1.30
-1.49
-1.48
-1.31
-1.08
-0.92
-0.96
-1.23
-1.71
-2.32
-2.99
-3.66
-4.33
-5.03
-5.75
-6.48
-7.20
-7.88
-8.56
-9.27
-10.01
-10.78
-11.50
-12.11
-12.58
-12.98
-13.46
-14.16
-15.14
-16.27
-17.27
-17.76
-17.43
-16.16
-14.06
-11.44
-8.64
-5.97
-3.59
-1.55
0.13
1.49
2.56
3.41
4.15
4.86
5.58
6.30
6.95
7.53
8.10
8.77
9.61
10.55
11.39
11.84
11.69
10.93
9.76
8.50
7.43
6.70
6.22
5.75
5.08
4.12
2.98
1.87
1.03
0.52
0.28
0.14
-0.02
-0.23
-0.42
-0.43
-0.23
0.12
0.44
0.55
0.34
-0.15
-0.74
-1.26
-1.56
-1.64
-1.64
-1.74
-2.09
-2.73
-3.57
-4.48
-5.35
-6.10
-6.73
-7.20
-7.47
-7.51
-7.34
-7.08
-6.94
-7.08
-7.61
-8.45
-9.37
-10.10
-10.37
-10.02
-9.04
-7.52
-5.64
-3.57
-1.46
0.58
2.46
4.10
5.44
6.41
6.99
7.24
7.23
7.13
7.05
7.07
7.17
7.25
7.13
6.68
5.88
4.84
3.78
2.90
2.27
1.83
1.40
0.86
0.23
-0.33
-0.62
-0.55
-0.20
0.23
0.48
0.43
0.06
-0.54
-1.24
-1.95
-2.62
-3.24
-3.80
-4.27
-4.65
-4.97
-5.31
-5.79
-6.53
-7.60
-8.94
-10.35
-11.52
-12.10
-11.84
-10.63
-8.62
-6.10
-3.43
-0.91
1.33
3.28
5.06
6.78
8.46
10.04
11.40
12.42
13.07
13.37
13.47
13.47
13.47
13.41
13.22
12.76
11.95
10.84
9.53
8.24
7.12
6.25
5.58
5.00
4.38
3.67
2.90
2.17
1.52
0.94
0.38
-0.20
-0.79
-1.32
-1.69
-1.90
-1.98
-2.06
-2.21
-2.46
-2.77
-3.10
-3.42
-3.81
-4.29
-4.90
-5.57
-6.20
-6.72
-7.12
-7.44
-7.76
-8.09
-8.41
-8.67
-8.86
-9.02
-9.27
-9.72
-10.43
-11.40
-12.60
-13.99
-15.55
-17.24
-18.96
-20.43
-21.30
-21.19
-19.88
-17.42
-14.10
-10.36
-6.59
-3.05
0.20
3.17
5.94
8.50
10.84
12.93
14.77
16.28
17.36
17.90
17.85
17.29
16.42
15.53
14.84
14.39
14.01
13.46
12.55
11.23
9.62
7.97
6.49
5.33
4.49
3.90
3.43
2.98
2.49
1.92
1.28
0.61
-0.01
-0.51
-0.83
-1.01
-1.14
-1.39
-1.86
-2.58
-3.45
-4.36
-5.21
-6.00
-6.81
-7.70
-8.67
-9.67
-10.58
-11.38
-12.11
-12.85
-13.60
-14.19
-14.29
-13.59
-11.90
-9.31
-6.20
-3.02
-0.18
2.15
4.03
5.65
7.19
8.71
10.14
11.35
12.26
12.87
13.28
13.61
13.93
14.22
14.39
14.34
14.04
13.52
12.95
12.44
12.08
11.84
11.58
11.11
10.32
9.17
7.76
6.26
4.85
3.66
2.70
1.94
1.29
0.70
0.16
-0.33
-0.76
-1.16
-1.55
-1.95
-2.31
-2.58
-2.71
-2.74
-2.75
-2.87
-3.16
-3.62
-4.17
-4.72
-5.20
-5.59
-5.92
-6.25
-6.62
-7.06
-7.60
-8.24
-8.93
-9.60
-10.17
-10.56
-10.81
-11.00
-11.33
-11.93
-12.87
-14.04
-15.24
-16.16
-16.48
-15.95
-14.45
-12.00
-8.83
-5.30
-1.84
1.14
3.44
5.08
6.27
7.30
8.40
9.61
10.81
11.81
12.44
12.67
12.57
12.27
11.89
11.47
11.01
10.50
9.95
9.44
9.04
8.76
8.54
8.24
7.72
6.90
5.81
4.58
3.38
2.35
1.56
0.99
0.59
0.28
-0.01
-0.35
-0.82
-1.48
-2.28
-3.16
-3.95
-4.54
-4.91
-5.11
-5.32
-5.71
-6.43
-7.54
-9.03
-10.78
-12.57
-14.13
-15.12
-15.26
-14.34
-12.34
-9.47
-6.10
-2.68
0.42
3.03
5.13
6.86
8.32
9.56
10.56
11.32
11.88
12.33
12.76
13.17
13.45
13.47
13.11
12.41
11.53
10.69
10.03
9.60
9.32
9.04
8.66
8.11
7.37
6.47
5.47
4.43
3.43
2.53
1.80
1.25
0.84
0.48
0.12
-0.31
-0.84
-1.45
-2.12
-2.80
-3.41
-3.88
-4.17
-4.33
-4.48
-4.76
-5.28
-6.02
-6.82
-7.52
-7.99
-8.26
-8.47
-8.83
-9.43
-10.23
-11.08
-11.78
-12.18
-12.26
-12.13
-11.95
-11.94
-12.23
-12.89
-13.84
-14.87
-15.64
-15.83
-15.17
-13.58
-11.20
-8.29
-5.21
-2.27
0.37
2.62
4.52
6.13
7.46
8.55
9.41
10.07
10.60
11.06
11.49
11.88
12.16
12.29
12.24
12.01
11.61
11.08
10.46
9.85
9.35
9.01
8.81
8.60
8.19
7.44
6.33
5.01
3.71
2.66
1.93
1.49
1.20
0.93
0.62
0.28
0.02
-0.07
0.02
0.20
0.34
0.26
-0.14
-0.84
-1.72
-2.65
-3.52
-4.29
-4.97
-5.57
-6.06
-6.41
-6.62
-6.75
-6.90
-7.14
-7.52
-7.99
-8.50
-9.02
-9.56
-10.18
-10.91
-11.71
-12.50
-13.13
-13.46
-13.32
-12.61
-11.26
-9.31
-6.86
-4.11
-1.32
1.26
3.43
5.09
6.31
7.24
8.09
8.98
9.95
10.89
11.67
12.18
12.42
12.43
12.30
12.04
11.63
11.04
10.31
9.53
8.82
8.26
7.80
7.37
6.84
6.14
5.28
4.29
3.21
2.12
1.09
0.23
-0.40
-0.79
-1.01
-1.20
-1.45
-1.78
-2.13
-2.40
-2.52
-2.51
-2.41
-2.29
-2.17
-2.06
-1.96
-1.96
-2.15
-2.59
-3.28
-4.14
-5.05
-5.92
-6.74
-7.55
-8.38
-9.22
-9.99
-10.57
-10.92
-11.10
-11.26
-11.59
-12.24
-13.22
-14.44
-15.68
-16.64
-17.02
-16.60
-15.24
-12.97
-9.97
-6.54
-3.04
0.20
2.92
5.03
6.58
7.71
8.61
9.40
10.13
10.79
11.32
11.65
11.76
11.64
11.32
10.84
10.31
9.83
9.50
9.37
9.36
9.34
9.11
8.51
7.54
6.29
4.98
3.83
2.99
2.52
2.34
2.33
2.35
2.29
2.05
1.61
0.92
0.01
-1.06
-2.18
-3.19
-3.99
-4.55
-4.96
-5.34
-5.85
-6.56
-7.48
-8.59
-9.86
-11.30
-12.85
-14.35
-15.49
-15.87
-15.21
-13.40
-10.65
-7.36
-3.98
-0.85
1.87
4.19
6.20
7.91
9.30
10.32
10.98
11.38
11.67
11.93
12.16
12.29
12.22
11.92
11.49
11.05
10.75
10.64
10.69
10.78
10.77
10.52
9.96
9.07
7.93
6.67
5.45
4.38
3.51
2.77
2.06
1.28
0.42
-0.44
-1.19
-1.70
-1.96
-2.00
-1.93
-1.87
-1.92
-2.14
-2.56
-3.20
-4.01
-4.93
-5.85
-6.69
-7.43
-8.14
-8.92
-9.84
-10.90
-12.00
-12.98
-13.72
-14.18
-14.44
-14.67
-15.00
-15.52
-16.23
-17.06
-17.89
-18.54
-18.81
-18.46
-17.30
-15.21
-12.24
-8.66
-4.87
-1.28
1.79
4.22
6.08
7.56
8.80
9.86
10.70
11.23
11.45
11.46
11.43
11.50
11.68
11.85
11.82
11.48
10.86
10.12
9.49
9.12
8.98
8.93
8.77
8.38
7.74
6.98
6.22
5.55
4.98
4.48
4.02
3.61
3.26
2.95
2.61
2.17
1.58
0.92
0.30
-0.13
-0.33
-0.41
-0.61
-1.12
-2.07
-3.38
-4.88
-6.34
-7.57
-8.47
-9.04
-9.35
-9.52
-9.67
-9.95
-10.48
-11.32
-12.42
-13.62
-14.66
-15.23
-15.06
-13.94
-11.83
-8.84
-5.26
-1.49
2.02
4.94
7.07
8.44
9.28
9.89
10.53
11.32
12.22
13.05
13.65
13.93
13.90
13.67
13.34
12.98
12.60
12.18
11.75
11.32
10.92
10.52
10.05
9.42
8.56
7.48
6.27
5.04
3.88
2.85
1.97
1.23
0.60
0.06
-0.39
-0.78
-1.10
-1.34
-1.51
-1.62
-1.68
-1.74
-1.87
-2.14
-2.59
-3.21
-3.93
-4.63
-5.22
-5.70
-6.20
-6.91
-7.95
-9.30
-10.76
-12.06
-12.99
-13.54
-13.88
-14.29
-14.98
-16.03
-17.32
-18.64
-19.68
-20.19
-19.89
-18.61
-16.25
-12.92
-8.91
-4.64
-0.55
3.02
5.90
8.13
9.82
11.15
12.22
13.10
13.85
14.47
14.96
15.29
15.43
15.33
14.95
14.31
13.50
12.66
11.93
11.42
11.12
10.91
10.59
9.98
8.98
7.67
6.25
4.92
3.84
3.05
2.46
1.93
1.33
0.62
-0.19
-0.97
-1.64
-2.13
-2.40
-2.53
-2.59
-2.65
-2.75
-2.86
-2.94
-2.99
-3.07
-3.29
-3.74
-4.43
-5.30
-6.20
-7.00
-7.64
-8.12
-8.53
-8.91
-9.30
-9.70
-10.16
-10.77
-11.63
-12.78
-14.10
-15.28
-15.92
-15.68
-14.43
-12.27
-9.48
-6.42
-3.36
-0.47
2.20
4.64
6.82
8.68
10.21
11.40
12.30
12.96
13.40
13.61
13.59
13.33
12.87
12.26
11.57
10.86
10.22
9.74
9.48
9.43
9.49
9.47
9.18
8.49
7.42
6.11
4.78
3.59
2.66
1.95
1.40
0.93
0.48
0.03
-0.39
-0.79
-1.16
-1.53
-1.93
-2.38
-2.92
-3.56
-4.29
-5.10
-5.95
-6.80
-7.64
-8.49
-9.41
-10.47
-11.76
-13.28
-14.91
-16.41
-17.44
-17.63
-16.74
-14.75
-11.86
-8.47
-4.95
-1.64
1.26
3.69
5.62
7.07
8.12
8.90
9.59
10.39
11.35
12.41
13.31
13.80
13.73
13.12
12.22
11.31
10.61
10.18
9.94
9.74
9.45
9.01
8.45
7.81
7.12
6.35
5.48
4.54
3.56
2.62
1.75
0.94
0.16
-0.57
-1.18
-1.58
-1.71
-1.59
-1.36
-1.24
-1.39
-1.85
-2.51
-3.19
-3.74
-4.14
-4.49
-4.96
-5.70
-6.71
-7.89
-9.11
-10.25
-11.24
-12.06
-12.74
-13.31
-13.82
-14.40
-15.17
-16.22
-17.51
-18.84
-19.88
-20.29
-19.78
-18.23
-15.73
-12.53
-8.98
-5.45
-2.19
0.65
3.05
5.07
6.76
8.20
9.43
10.51
11.48
12.36
13.11
13.62
13.78
13.52
12.90
12.09
11.31
10.75
10.47
10.40
10.36
10.18
9.78
9.18
8.51
7.93
7.49
7.14
6.75
6.18
5.39
4.47
3.59
2.87
2.32
1.86
1.37
0.83
0.25
-0.29
-0.76
-1.25
-1.86
-2.70
-3.73
-4.82
-5.83
-6.65
-7.28
-7.82
-8.43
-9.21
-10.22
-11.40
-12.64
-13.73
-14.45
-14.53
-13.76
-12.07
-9.55
-6.50
-3.31
-0.35
2.14
4.10
5.64
6.92
8.05
9.08
9.97
10.70
11.22
11.53
11.65
11.61
11.45
11.22
10.95
10.67
10.39
10.10
9.75
9.31
8.77
8.13
7.38
6.54
5.61
4.65
3.73
2.93
2.27
1.72
1.23
0.74
0.22
-0.30
-0.74
-1.05
-1.21
-1.25
-1.19
-1.08
-0.93
-0.78
-0.67
-0.72
-1.00
-1.57
-2.37
-3.28
-4.14
-4.86
-5.42
-5.93
-6.51
-7.28
-8.25
-9.36
-10.49
-11.50
-12.30
-12.85
-13.17
-13.37
-13.57
-13.91
-14.47
-15.27
-16.18
-16.97
-17.36
-17.08
-15.98
-14.07
-11.49
-8.48
-5.29
-2.17
0.67
3.11
5.11
6.70
7.97
9.01
9.91
10.67
11.31
11.83
12.23
12.51
12.64
12.56
12.22
11.67
11.00
10.37
9.90
9.57
9.31
8.96
8.46
7.81
7.13
6.52
6.04
5.61
5.09
4.36
3.42
2.35
1.33
0.51
-0.01
-0.24
-0.28
-0.22
-0.11
0.02
0.16
0.25
0.24
0.02
-0.42
-1.03
-1.70
-2.31
-2.82
-3.30
-3.84
-4.55
-5.43
-6.41
-7.36
-8.18
-8.81
-9.25
-9.54
-9.70
-9.80
-9.92
-10.21
-10.79
-11.66
-12.69
-13.57
-13.93
-13.47
-12.07
-9.88
-7.20
-4.38
-1.71
0.65
2.66
4.34
5.74
6.85
7.70
8.31
8.77
9.17
9.60
10.08
10.54
10.88
11.03
10.97
10.76
10.48
10.19
9.86
9.45
8.93
8.31
7.64
6.93
6.17
5.30
4.29
3.21
2.21
1.47
1.06
0.92
0.88
0.76
0.50
0.20
0.04
0.17
0.53
0.92
1.09
0.90
0.40
-0.22
-0.73
-1.08
-1.37
-1.80
-2.57
-3.69
-5.02
-6.37
-7.60
-8.70
-9.76
-10.85
-11.95
-12.92
-13.62
-13.99
-14.15
-14.34
-14.82
-15.70
-16.88
-18.03
-18.69
-18.47
-17.15
-14.80
-11.70
-8.27
-4.93
-1.94
0.59
2.68
4.40
5.81
6.93
7.84
8.64
9.46
10.37
11.33
12.20
12.77
12.94
12.70
12.15
11.44
10.69
9.98
9.33
8.73
8.19
7.70
7.26
6.83
6.36
5.84
5.28
4.69
4.13
3.66
3.30
3.06
2.87
2.66
2.34
1.90
1.38
0.92
0.63
0.59
0.71
0.86
0.86
0.58
-0.01
-0.84
-1.80
-2.74
-3.62
-4.41
-5.17
-5.95
-6.77
-7.57
-8.28
-8.81
-9.15
-9.35
-9.60
-10.08
-10.88
-11.96
-13.13
-14.08
-14.52
-14.24
-13.16
-11.38
-9.04
-6.33
-3.44
-0.57
2.08
4.33
6.07
7.35
8.31
9.11
9.88
10.58
11.13
11.41
11.42
11.25
11.03
10.85
10.68
10.42
9.98
9.38
8.74
8.19
7.80
7.51
7.20
6.72
6.02
5.15
4.20
3.28
2.46
1.73
1.07
0.43
-0.18
-0.72
-1.12
-1.30
-1.22
-0.89
-0.45
-0.08
0.03
-0.23
-0.81
-1.56
-2.29
-2.88
-3.35
-3.83
-4.48
-5.36
-6.45
-7.61
-8.73
-9.73
-10.62
-11.47
-12.34
-13.30
-14.33
-15.40
-16.42
-17.24
-17.65
-17.44
-16.41
-14.50
-11.82
-8.61
-5.21
-1.94
1.01
3.59
5.82
7.76
9.39
10.68
11.61
12.24
12.68
13.09
13.51
13.91
14.15
14.06
13.59
12.78
11.80
10.85
10.09
9.55
9.19
8.89
8.49
7.89
7.00
5.84
4.50
3.14
1.90
0.89
0.12
-0.45
-0.87
-1.20
-1.45
-1.60
-1.63
-1.54
-1.38
-1.22
-1.13
-1.19
-1.45
-1.90
-2.48
-3.10
-3.65
-4.05
-4.34
-4.61
-4.96
-5.48
-6.19
-7.01
-7.87
-8.71
-9.52
-10.30
-11.01
-11.63
-12.15
-12.65
-13.27
-14.19
-15.43
-16.82
-17.97
-18.40
-17.74
-15.89
-13.06
-9.65
-6.10
-2.73
0.29
2.89
5.09
6.86
8.22
9.21
9.96
10.60
11.23
11.83
12.34
12.65
12.69
12.48
12.11
11.69
11.26
10.85
10.41
9.91
9.33
8.69
8.03
7.40
6.84
6.36
5.94
5.53
5.08
4.58
4.01
3.42
2.86
2.35
1.86
1.37
0.86
0.34
-0.16
-0.61
-1.01
-1.43
-2.01
-2.84
-3.95
-5.23
-6.47
-7.47
-8.10
-8.38
-8.48
-8.61
-8.98
-9.67
-10.60
-11.62
-12.49
-12.95
-12.77
-11.80
-9.97
-7.37
-4.25
-0.95
2.18
4.87
7.01
8.64
9.89
10.91
11.77
12.47
12.92
13.06
12.89
12.51
12.07
11.71
11.43
11.20
10.93
10.55
10.11
9.67
9.28
8.91
8.43
7.73
6.76
5.59
4.35
3.18
2.13
1.21
0.36
-0.39
-1.01
-1.44
-1.66
-1.75
-1.77
-1.81
-1.92
-2.13
-2.43
-2.83
-3.32
-3.85
-4.37
-4.85
-5.30
-5.77
-6.32
-7.02
-7.88
-8.89
-9.99
-11.14
-12.29
-13.36
-14.27
-14.96
-15.46
-15.88
-16.37
-17.03
-17.90
-18.79
-19.42
-19.48
-18.70
-16.96
-14.32
-11.00
-7.30
-3.57
-0.08
2.91
5.30
7.09
8.42
9.47
10.42
11.36
12.27
13.04
13.55
13.75
13.66
13.34
12.87
12.29
11.62
10.91
10.22
9.65
9.26
9.04
8.92
8.76
8.45
7.95
7.23
6.36
5.44
4.56
3.80
3.19
2.68
2.23
1.78
1.34
0.94
0.62
0.34
0.04
-0.38
-0.98
-1.74
-2.58
-3.43
-4.22
-4.96
-5.66
-6.33
-6.98
-7.63
-8.35
-9.21
-10.27
-11.44
-12.52
-13.23
-13.31
-12.65
-11.30
-9.43
-7.23
-4.84
-2.33
0.24
2.80
5.21
7.32
9.00
10.18
10.85
11.09
10.98
10.64
10.21
9.85
9.63
9.55
9.51
9.40
9.11
8.67
8.21
7.82
7.53
7.25
6.82
6.13
5.14
3.96
2.75
1.63
0.70
-0.03
-0.57
-0.99
-1.32
-1.64
-1.99
-2.37
-2.75
-3.10
-3.43
-3.75
-4.14
-4.64
-5.24
-5.89
-6.53
-7.16
-7.82
-8.59
-9.56
-10.80
-12.29
-13.92
-15.49
-16.78
-17.52
-17.51
-16.60
-14.77
-12.16
-9.00
-5.65
-2.46
0.31
2.54
4.31
5.77
7.09
8.35
9.56
10.62
11.46
12.02
12.30
12.33
12.14
11.77
11.27
10.71
10.15
9.65
9.26
8.94
8.61
8.17
7.53
6.69
5.69
4.62
3.60
2.67
1.87
1.20
0.67
0.26
-0.03
-0.24
-0.43
-0.65
-0.95
-1.28
-1.59
-1.81
-1.92
-1.95
-1.96
-2.02
-2.17
-2.45
-2.87
-3.41
-4.01
-4.62
-5.18
-5.68
-6.17
-6.72
-7.40
-8.17
-8.95
-9.62
-10.08
-10.36
-10.54
-10.74
-11.07
-11.58
-12.28
-13.14
-14.06
-14.87
-15.26
-14.92
-13.59
-11.21
-8.00
-4.37
-0.83
2.25
4.68
6.48
7.76
8.63
9.19
9.51
9.72
9.99
10.51
11.32
12.31
13.18
13.59
13.34
12.47
11.23
9.96
8.97
8.34
7.99
7.73
7.36
6.81
6.09
5.30
4.53
3.84
3.28
2.86
2.60
2.48
2.43
2.35
2.13
1.71
1.12
0.46
-0.12
-0.57
-0.93
-1.35
-1.97
-2.86
-3.95
-5.05
-6.02
-6.81
-7.52
-8.32
-9.36
-10.67
-12.12
-13.49
-14.58
-15.30
-15.62
-15.54
-14.99
-13.79
-11.82
-9.07
-5.74
-2.23
1.04
3.77
5.87
7.44
8.67
9.71
10.64
11.47
12.19
12.78
13.29
13.68
13.94
13.98
13.73
13.18
12.39
11.48
10.58
9.81
9.21
8.72
8.22
7.54
6.60
5.40
4.05
2.77
1.72
1.00
0.58
0.32
0.08
-0.26
-0.68
-1.15
-1.59
-1.94
-2.20
-2.41
-2.59
-2.76
-2.90
-3.03
-3.20
-3.49
-3.99
-4.70
-5.55
-6.41
-7.15
-7.70
-8.06
-8.32
-8.56
-8.86
-9.23
-9.70
-10.25
-10.88
-11.58
-12.29
-12.95
-13.48
-13.88
-14.21
-14.58
-15.08
-15.67
-16.17
-16.24
-15.57
-13.93
-11.37
-8.20
-4.85
-1.76
0.80
2.80
4.37
5.76
7.13
8.55
9.93
11.15
12.13
12.83
13.30
13.58
13.67
13.50
12.98
12.12
11.06
10.02
9.27
8.94
9.00
9.19
9.20
8.81
7.98
6.91
5.89
5.13
4.65
4.29
3.85
3.20
2.37
1.53
0.87
0.51
0.38
0.34
0.20
-0.14
-0.70
-1.43
-2.25
-3.12
-4.06
-5.07
-6.15
-7.22
-8.23
-9.11
-9.88
-10.63
-11.48
-12.47
-13.51
-14.32
-14.59
-14.02
-12.53
-10.23
-7.42
-4.45
-1.61
0.91
3.07
4.89
6.43
7.79
8.98
10.02
10.86
11.46
11.82
11.97
12.00
11.99
11.94
11.83
11.60
11.25
10.83
10.41
10.04
9.65
9.14
8.36
7.29
6.03
4.78
3.70
2.86
2.20
1.59
0.96
0.31
-0.27
-0.68
-0.90
-0.98
-1.01
-1.05
-1.10
-1.13
-1.13
-1.12
-1.19
-1.45
-1.93
-2.64
-3.49
-4.41
-5.33
-6.23
-7.09
-7.91
-8.67
-9.34
-9.94
-10.53
-11.19
-11.92
-12.68
-13.35
-13.85
-14.16
-14.39
-14.70
-15.23
-16.02
-16.95
-17.79
-18.25
-18.09
-17.10
-15.23
-12.57
-9.31
-5.75
-2.18
1.14
4.02
6.38
8.21
9.58
10.59
11.39
12.10
12.79
13.44
13.96
14.23
14.15
13.70
12.95
12.03
11.10
10.27
9.60
9.11
8.71
8.31
7.80
7.13
6.35
5.59
4.94
4.48
4.16
3.88
3.51
3.04
2.49
1.94
1.42
0.89
0.27
-0.45
-1.18
-1.73
-1.97
-1.89
-1.69
-1.65
-2.00
-2.79
-3.86
-4.94
-5.82
-6.45
-6.90
-7.34
-7.90
-8.64
-9.61
-10.76
-12.07
-13.40
-14.54
-15.23
-15.16
-14.16
-12.19
-9.43
-6.17
-2.78
0.44
3.27
5.60
7.39
8.67
9.50
9.96
10.17
10.27
10.40
10.64
11.02
11.49
11.97
12.35
12.58
12.58
12.35
11.89
11.24
10.44
9.55
8.60
7.60
6.54
5.40
4.25
3.14
2.17
1.43
0.93
0.66
0.52
0.43
0.31
0.15
-0.02
-0.11
-0.12
-0.07
-0.09
-0.26
-0.66
-1.24
-1.93
-2.65
-3.40
-4.19
-5.03
-5.92
-6.80
-7.62
-8.41
-9.23
-10.15
-11.17
-12.26
-13.36
-14.45
-15.53
-16.61
-17.59
-18.29
-18.42
-17.75
-16.15
-13.64
-10.45
-6.89
-3.33
-0.11
2.57
4.65
6.23
7.49
8.64
9.79
10.93
11.97
12.81
13.40
13.73
13.81
13.64
13.23
12.61
11.84
11.03
10.24
9.50
8.77
7.97
7.06
6.07
5.11
4.27
3.61
3.12
2.71
2.33
1.95
1.59
1.28
1.00
0.71
0.36
-0.05
-0.46
-0.77
-0.91
-0.87
-0.73
-0.62
-0.68
-1.00
-1.61
-2.45
-3.37
-4.25
-4.96
-5.50
-5.94
-6.40
-7.00
-7.76
-8.61
-9.41
-10.05
-10.50
-10.81
-11.14
-11.60
-12.27
-13.13
-14.12
-15.12
-16.00
-16.62
-16.80
-16.37
-15.18
-13.13
-10.28
-6.80
-3.03
0.67
3.91
6.49
8.37
9.65
10.55
11.22
11.75
12.14
12.35
12.37
12.21
11.94
11.61
11.22
10.75
10.20
9.58
8.93
8.31
7.77
7.30
6.88
6.46
5.97
5.38
4.64
3.76
2.82
1.91
1.16
0.62
0.32
0.19
0.14
0.07
-0.09
-0.38
-0.79
-1.33
-1.98
-2.71
-3.47
-4.21
-4.92
-5.65
-6.51
-7.61
-8.99
-10.56
-12.12
-13.36
-14.00
-13.83
-12.81
-10.99
-8.55
-5.71
-2.71
0.23
2.94
5.31
7.31
8.93
10.20
11.16
11.86
12.33
12.64
12.82
12.91
12.89
12.75
12.47
12.03
11.45
10.79
10.11
9.45
8.85
8.25
7.65
6.97
6.23
5.40
4.53
3.64
2.75
1.91
1.13
0.45
-0.10
-0.50
-0.77
-0.90
-0.95
-0.95
-0.95
-1.02
-1.18
-1.47
-1.89
-2.43
-3.06
-3.77
-4.51
-5.22
-5.84
-6.34
-6.77
-7.21
-7.79
-8.56
-9.51
-10.59
-11.65
-12.61
-13.38
-13.94
-14.28
-14.42
-14.39
-14.30
-14.28
-14.48
-15.03
-15.89
-16.88
-17.71
-18.00
-17.45
-15.90
-13.38
-10.14
-6.50
-2.80
0.70
3.83
6.53
8.79
10.64
12.11
13.19
13.93
14.35
14.54
14.53
14.38
14.09
13.66
13.10
12.42
11.69
10.97
10.31
9.73
9.19
8.65
8.05
7.39
6.67
5.92
5.20
4.56
4.06
3.70
3.46
3.30
3.14
2.91
2.58
2.11
1.54
0.92
0.33
-0.20
-0.64
-1.03
-1.46
-2.01
-2.77
-3.75
-4.86
-5.96
-6.89
-7.54
-7.95
-8.21
-8.55
-9.12
-10.04
-11.23
-12.52
-13.64
-14.33
-14.36
-13.60
-12.00
-9.61
-6.59
-3.22
0.18
3.23
5.68
7.44
8.64
9.52
10.28
11.01
11.63
11.99
11.97
11.63
11.15
10.74
10.54
10.51
10.48
10.29
9.86
9.27
8.67
8.20
7.86
7.54
7.04
6.24
5.15
3.89
2.67
1.68
0.97
0.47
0.07
-0.30
-0.64
-0.85
-0.83
-0.57
-0.16
0.20
0.31
0.03
-0.63
-1.50
-2.38
-3.08
-3.57
-3.94
-4.37
-5.00
-5.91
-7.06
-8.36
-9.72
-11.05
-12.28
-13.36
-14.22
-14.85
-15.34
-15.86
-16.62
-17.73
-19.10
-20.44
-21.29
-21.24
-20.02
-17.63
-14.28
-10.33
-6.20
-2.29
1.09
3.77
5.70
7.01
7.93
8.69
9.47
10.32
11.18
11.92
12.44
12.66
12.60
12.32
11.89
11.36
10.79
10.21
9.70
9.31
9.05
8.89
8.72
8.44
7.99
7.38
6.67
5.94
5.23
4.51
3.74
2.93
2.12
1.46
1.04
0.90
0.96
1.09
1.11
0.93
0.55
0.06
-0.40
-0.77
-1.05
-1.34
-1.81
-2.58
-3.71
-5.11
-6.60
-7.95
-8.98
-9.61
-9.92
-10.08
-10.30
-10.73
-11.40
-12.25
-13.10
-13.75
-13.97
-13.59
-12.47
-10.58
-8.00
-4.97
-1.78
1.26
3.92
6.12
7.87
9.22
10.24
10.96
11.40
11.62
11.71
11.73
11.73
11.67
11.48
11.10
10.55
9.86
9.14
8.47
7.95
7.59
7.35
7.14
6.80
6.21
5.31
4.14
2.84
1.59
0.55
-0.16
-0.52
-0.55
-0.31
0.12
0.63
1.07
1.32
1.30
0.99
0.47
-0.16
-0.83
-1.51
-2.24
-3.02
-3.84
-4.63
-5.34
-5.98
-6.66
-7.49
-8.55
-9.75
-10.94
-11.95
-12.76
-13.49
-14.31
-15.35
-16.54
-17.62
-18.24
-18.07
-16.96
-14.98
-12.33
-9.28
-6.11
-3.02
-0.15
2.39
4.55
6.33
7.75
8.88
9.80
10.55
11.16
11.58
11.80
11.84
11.73
11.55
11.34
11.11
10.83
10.46
9.98
9.38
8.67
7.87
7.02
6.14
5.28
4.47
3.72
3.02
2.36
1.75
1.23
0.82
0.58
0.46
0.38
0.26
0.01
-0.38
-0.88
-1.44
-1.96
-2.39
-2.68
-2.85
-2.96
-3.09
-3.32
-3.71
-4.29
-5.03
-5.89
-6.80
-7.66
-8.38
-8.91
-9.27
-9.60
-10.08
-10.89
-12.06
-13.43
-14.71
-15.53
-15.58
-14.68
-12.83
-10.18
-7.03
-3.71
-0.53
2.26
4.54
6.33
7.73
8.86
9.78
10.48
10.88
10.92
10.56
9.92
9.16
8.51
8.15
8.08
8.17
8.19
7.89
7.20
6.23
5.21
4.33
3.66
3.09
2.45
1.61
0.59
-0.49
-1.46
-2.24
-2.85
-3.35
-3.78
-4.16
-4.44
-4.64
-4.87
-5.27
-5.96
-6.99
-8.21
-9.39
-10.21
-10.41
-9.82
-8.38
-6.23
-3.62
-0.90
1.60
3.68
5.27
6.48
7.46
8.29
8.94
9.33
9.42
9.27
9.08
9.04
9.19
9.42
9.52
9.31
8.75
8.02
7.30
6.74
6.31
5.86
5.24
4.37
3.30
2.12
0.87
-0.45
-1.86
-3.33
-4.73
-5.89
-6.70
-7.19
-7.48
-7.75
-8.14
-8.67
-9.27
-9.82
-10.22
-10.44
-10.54
-10.66
-11.00
-11.76
-13.03
-14.70
-16.42
-17.66
-17.95
-17.00
-14.90
-12.01
-8.82
-5.73
-2.99
-0.64
1.38
3.12
4.63
5.89
6.89
7.65
8.20
8.62
8.99
9.42
9.93
10.46
10.87
11.03
10.86
10.40
9.81
9.25
8.78
8.32
7.74
6.92
5.91
4.87
3.95
3.21
2.56
1.83
0.89
-0.23
-1.33
-2.18
-2.61
-2.67
-2.62
-2.77
-3.37
-4.49
-5.98
-7.56
-8.92
-9.78
-9.94
-9.29
-7.81
-5.58
-2.82
0.17
3.04
5.50
7.38
8.68
9.55
10.18
10.72
11.22
11.65
11.94
12.08
12.11
12.07
12.03
11.98
11.87
11.65
11.33
10.93
10.51
10.09
9.58
8.93
8.04
6.95
5.74
4.54
3.49
2.62
1.94
1.41
1.01
0.72
0.55
0.51
0.57
0.68
0.76
0.76
0.64
0.40
0.08
-0.29
-0.64
-0.96
-1.27
-1.60
-2.04
-2.64
-3.43
-4.38
-5.41
-6.42
-7.31
-8.07
-8.74
-9.41
-10.19
-11.09
-12.03
-12.87
-13.52
-13.97
-14.36
-14.90
-15.77
-17.01
-18.46
-19.84
-20.82
-21.08
-20.46
-18.91
-16.57
-13.65
-10.43
-7.18
-4.06
-1.18
1.42
3.75
5.80
7.59
9.17
10.57
11.80
12.83
13.59
14.02
14.13
13.98
13.65
13.21
12.66
12.00
11.25
10.49
9.81
9.29
8.92
8.58
8.15
7.51
6.63
5.57
4.49
3.56
2.89
2.51
2.37
2.34
2.29
2.14
1.88
1.57
1.26
0.98
0.70
0.42
0.13
-0.14
-0.37
-0.58
-0.86
-1.27
-1.82
-2.43
-2.98
-3.39
-3.70
-4.05
-4.61
-5.42
-6.41
-7.35
-8.03
-8.37
-8.46
-8.50
-8.68
-9.13
-9.81
-10.56
-11.22
-11.62
-11.64
-11.17
-10.12
-8.42
-6.12
-3.36
-0.46
2.28
4.59
6.36
7.68
8.71
9.58
10.34
10.95
11.31
11.40
11.27
10.99
10.63
10.20
9.63
8.93
8.16
7.43
6.88
6.54
6.33
6.13
5.79
5.23
4.43
3.42
2.26
1.05
-0.07
-0.97
-1.54
-1.81
-1.86
-1.84
-1.90
-2.09
-2.40
-2.72
-2.95
-3.01
-2.96
-2.86
-2.82
-2.94
-3.26
-3.78
-4.46
-5.28
-6.24
-7.31
-8.48
-9.73
-10.99
-12.19
-13.25
-14.10
-14.64
-14.77
-14.39
-13.42
-11.85
-9.77
-7.34
-4.78
-2.30
-0.02
1.99
3.75
5.29
6.66
7.89
9.01
10.03
10.94
11.73
12.30
12.55
12.38
11.78
10.80
9.61
8.40
7.33
6.50
5.92
5.53
5.24
4.93
4.48
3.80
2.90
1.84
0.75
-0.23
-0.99
-1.51
-1.83
-2.04
-2.23
-2.47
-2.75
-3.02
-3.17
-3.12
-2.88
-2.56
-2.31
-2.27
-2.48
-2.87
-3.29
-3.62
-3.81
-3.92
-4.06
-4.30
-4.69
-5.21
-5.82
-6.49
-7.17
-7.82
-8.39
-8.84
-9.22
-9.62
-10.21
-11.08
-12.17
-13.31
-14.21
-14.59
-14.25
-13.12
-11.29
-8.92
-6.22
-3.46
-0.86
1.39
3.19
4.56
5.59
6.45
7.26
8.11
8.97
9.73
10.25
10.41
10.18
9.62
8.87
8.10
7.45
6.94
6.57
6.25
5.89
5.45
4.91
4.27
3.56
2.82
2.09
1.48
1.04
0.81
0.72
0.63
0.37
-0.15
-0.93
-1.84
-2.70
-3.37
-3.83
-4.16
-4.54
-5.11
-5.97
-7.07
-8.28
-9.43
-10.34
-10.87
-10.92
-10.46
-9.47
-7.95
-5.95
-3.55
-0.94
1.63
3.90
5.70
6.99
7.93
8.74
9.56
10.46
11.32
11.99
12.35
12.38
12.20
11.93
11.65
11.37
11.03
10.59
10.03
9.40
8.75
8.11
7.46
6.73
5.90
4.95
3.93
2.93
2.03
1.26
0.62
0.09
-0.36
-0.74
-1.01
-1.17
-1.21
-1.18
-1.16
-1.24
-1.47
-1.85
-2.34
-2.89
-3.45
-4.06
-4.79
-5.70
-6.79
-8.00
-9.17
-10.18
-10.98
-11.58
-12.05
-12.44
-12.78
-13.04
-13.21
-13.36
-13.63
-14.18
-15.08
-16.26
-17.50
-18.50
-18.98
-18.74
-17.68
-15.81
-13.23
-10.09
-6.64
-3.15
0.08
2.81
4.90
6.37
7.35
8.06
8.69
9.38
10.15
10.98
11.79
12.47
12.92
13.06
12.87
12.37
11.61
10.74
9.92
9.31
8.96
8.84
8.81
8.68
8.35
7.76
6.98
6.11
5.25
4.43
3.68
3.00
2.43
2.01
1.72
1.47
1.11
0.50
-0.40
-1.53
-2.72
-3.82
-4.75
-5.53
-6.28
-7.09
-8.01
-9.03
-10.15
-11.34
-12.57
-13.70
-14.51
-14.66
-13.87
-12.06
-9.34
-6.07
-2.68
0.40
2.94
4.89
6.38
7.60
8.72
9.80
10.80
11.61
12.15
12.42
12.51
12.53
12.52
12.46
12.25
11.80
11.13
10.35
9.60
8.97
8.45
7.97
7.42
6.74
5.92
4.96
3.90
2.78
1.69
0.75
0.07
-0.30
-0.40
-0.37
-0.35
-0.47
-0.74
-1.10
-1.48
-1.80
-2.07
-2.35
-2.75
-3.34
-4.15
-5.12
-6.17
-7.25
-8.38
-9.58
-10.88
-12.22
-13.51
-14.69
-15.76
-16.80
-17.95
-19.23
-20.49
-21.33
-21.32
-20.13
-17.70
-14.32
-10.44
-6.58
-3.10
-0.14
2.29
4.31
6.05
7.57
8.93
10.16
11.26
12.21
12.99
13.53
13.82
13.90
13.84
13.70
13.51
13.23
12.83
12.29
11.62
10.89
10.15
9.42
8.69
7.93
7.12
6.31
5.53
4.83
4.22
3.66
3.10
2.48
1.79
1.04
0.32
-0.31
-0.80
-1.16
-1.44
-1.71
-2.02
-2.38
-2.78
-3.21
-3.68
-4.24
-4.93
-5.73
-6.56
-7.31
-7.90
-8.36
-8.80
-9.37
-10.16
-11.16
-12.27
-13.35
-14.27
-14.95
-15.33
-15.29
-14.63
-13.21
-10.93
-7.95
-4.57
-1.17
1.92
4.53
6.63
8.32
9.65
10.66
11.38
11.85
12.17
12.47
12.83
13.23
13.55
13.66
13.47
12.99
12.32
11.61
10.94
10.34
9.76
9.15
8.48
7.74
6.94
6.09
5.20
4.30
3.40
2.55
1.82
1.22
0.76
0.42
0.16
-0.06
-0.25
-0.42
-0.61
-0.82
-1.06
-1.33
-1.63
-2.01
-2.48
-3.09
-3.83
-4.71
-5.68
-6.76
-7.95
-9.28
-10.77
-12.41
-14.12
-15.79
-17.24
-18.27
-18.69
-18.33
-17.08
-14.96
-12.09
-8.75
-5.25
-1.94
0.94
3.27
5.07
6.52
7.82
9.12
10.48
11.84
13.05
13.94
14.39
14.40
14.02
13.36
12.51
11.58
10.63
9.76
8.98
8.33
7.75
7.18
6.57
5.86
5.05
4.18
3.27
2.37
1.52
0.72
0.02
-0.58
-1.08
-1.49
-1.79
-1.95
-1.92
-1.71
-1.38
-1.11
-1.08
-1.38
-2.00
-2.78
-3.49
-4.00
-4.32
-4.59
-5.01
-5.70
-6.66
-7.75
-8.79
-9.66
-10.32
-10.85
-11.38
-12.04
-12.88
-13.88
-14.90
-15.76
-16.26
-16.20
-15.48
-14.05
-11.98
-9.40
-6.50
-3.47
-0.50
2.23
4.60
6.57
8.13
9.38
10.40
11.27
11.99
12.50
12.72
12.61
12.18
11.52
10.77
10.05
9.43
8.90
8.43
7.96
7.44
6.87
6.24
5.58
4.87
4.10
3.25
2.35
1.47
0.74
0.25
0.06
0.12
0.27
0.34
0.17
-0.31
-1.07
-2.01
-2.99
-3.91
-4.66
-5.27
-5.77
-6.29
-6.96
-7.86
-9.01
-10.32
-11.61
-12.65
-13.21
-13.08
-12.14
-10.39
-7.95
-5.06
-2.04
0.81
3.28
5.29
6.88
8.16
9.22
10.09
10.75
11.16
11.36
11.38
11.32
11.20
11.02
10.69
10.19
9.52
8.81
8.19
7.76
7.52
7.37
7.13
6.64
5.85
4.84
3.75
2.70
1.78
1.00
0.32
-0.29
-0.84
-1.33
-1.73
-2.02
-2.20
-2.24
-2.17
-2.02
-1.87
-1.81
-1.95
-2.36
-3.05
-3.95
-4.95
-5.91
-6.71
-7.32
-7.75
-8.11
-8.49
-9.01
-9.72
-10.59
-11.55
-12.49
-13.31
-14.01
-14.62
-15.25
-15.98
-16.80
-17.63
-18.25
-18.38
-17.78
-16.28
-13.91
-10.83
-7.33
-3.76
-0.44
2.39
4.60
6.22
7.37
8.23
8.97
9.73
10.54
11.39
12.20
12.84
13.18
13.10
12.59
11.73
10.73
9.80
9.12
8.69
8.41
8.11
7.65
6.97
6.13
5.20
4.26
3.35
2.51
1.79
1.25
0.94
0.81
0.77
0.67
0.40
-0.05
-0.63
-1.21
-1.69
-2.04
-2.32
-2.62
-3.00
-3.49
-4.03
-4.57
-5.09
-5.62
-6.18
-6.76
-7.32
-7.81
-8.21
-8.61
-9.18
-10.02
-11.11
-12.22
-12.96
-12.95
-11.98
-10.09
-7.54
-4.74
-2.04
0.33
2.30
3.94
5.30
6.45
7.38
8.07
8.54
8.85
9.09
9.35
9.67
10.00
10.28
10.37
10.20
9.70
8.94
8.03
7.11
6.30
5.62
5.03
4.43
3.77
3.05
2.37
1.81
1.42
1.18
0.97
0.72
0.39
0.04
-0.21
-0.29
-0.20
-0.03
0.07
-0.03
-0.40
-1.00
-1.75
-2.52
-3.24
-3.94
-4.68
-5.57
-6.63
-7.75
-8.79
-9.61
-10.21
-10.78
-11.56
-12.76
-14.35
-16.10
-17.62
-18.51
-18.54
-17.62
-15.83
-13.34
-10.35
-7.08
-3.78
-0.67
2.10
4.45
6.45
8.15
9.63
10.90
11.90
12.61
13.03
13.23
13.29
13.26
13.11
12.79
12.24
11.46
10.54
9.59
8.69
7.90
7.18
6.49
5.75
4.92
3.98
2.98
2.01
1.14
0.41
-0.17
-0.63
-1.02
-1.35
-1.60
-1.73
-1.75
-1.72
-1.71
-1.75
-1.83
-1.92
-1.96
-2.01
-2.18
-2.59
-3.33
-4.38
-5.64
-6.94
-8.14
-9.10
-9.76
-10.10
-10.22
-10.26
-10.48
-11.10
-12.25
-13.92
-15.84
-17.57
-18.64
-18.65
-17.42
-15.03
-11.75
-8.01
-4.24
-0.79
2.12
4.43
6.20
7.56
8.67
9.63
10.50
11.31
12.06
12.71
13.24
13.54
13.51
13.05
12.13
10.90
9.59
8.48
7.77
7.45
7.37
7.29
6.97
6.31
5.35
4.24
3.17
2.29
1.65
1.21
0.88
0.56
0.18
-0.27
-0.79
-1.37
-2.01
-2.70
-3.45
-4.24
-5.09
-6.02
-7.09
-8.32
-9.66
-10.95
-11.95
-12.41
-12.16
-11.12
-9.35
-6.98
-4.19
-1.19
1.81
4.61
7.04
9.01
10.49
11.54
12.29
12.87
13.36
13.76
14.01
14.06
13.88
13.52
13.03
12.48
11.87
11.20
10.46
9.69
8.96
8.33
7.76
7.18
6.47
5.58
4.55
3.48
2.48
1.61
0.86
0.20
-0.37
-0.79
-0.96
-0.84
-0.45
0.07
0.51
0.70
0.52
0.01
-0.70
-1.43
-2.05
-2.49
-2.79
-3.07
-3.47
-4.14
-5.13
-6.44
-7.99
-9.62
-11.15
-12.42
-13.37
-14.01
-14.42
-14.74
-15.09
-15.59
-16.32
-17.32
-18.49
-19.61
-20.29
-20.12
-18.80
-16.30
-12.85
-8.90
-4.92
-1.28
1.83
4.37
6.37
7.90
9.08
10.06
10.97
11.92
12.88
13.75
14.35
14.55
14.36
13.88
13.28
12.69
12.20
11.84
11.54
11.20
10.72
10.01
9.03
7.84
6.58
5.38
4.38
3.65
3.15
2.81
2.51
2.17
1.77
1.30
0.82
0.42
0.15
0.06
0.13
0.28
0.40
0.38
0.14
-0.35
-1.08
-1.99
-3.01
-4.08
-5.17
-6.22
-7.19
-8.01
-8.64
-9.08
-9.38
-9.68
-10.13
-10.84
-11.81
-12.90
-13.88
-14.45
-14.30
-13.26
-11.30
-8.59
-5.50
-2.39
0.41
2.75
4.67
6.30
7.78
9.10
10.19
10.92
11.25
11.24
11.09
10.98
11.00
11.11
11.21
11.17
10.95
10.55
10.02
9.37
8.60
7.69
6.65
5.56
4.51
3.59
2.83
2.17
1.55
0.91
0.28
-0.26
-0.62
-0.75
-0.70
-0.58
-0.52
-0.57
-0.72
-0.88
-0.95
-0.93
-0.94
-1.15
-1.69
-2.61
-3.79
-5.08
-6.32
-7.42
-8.36
-9.19
-9.97
-10.75
-11.58
-12.49
-13.55
-14.73
-15.94
-16.93
-17.41
-17.10
-15.86
-13.74
-10.94
-7.79
-4.59
-1.61
1.01
3.21
5.00
6.45
7.62
8.57
9.37
10.06
10.67
11.17
11.49
11.59
11.43
11.06
10.57
10.04
9.50
8.95
8.31
7.56
6.69
5.78
4.91
4.14
3.47
2.82
2.12
1.36
0.56
-0.19
-0.79
-1.19
-1.40
-1.46
-1.42
-1.31
-1.14
-0.88
-0.60
-0.36
-0.29
-0.49
-0.99
-1.74
-2.62
-3.48
-4.20
-4.71
-5.06
-5.37
-5.77
-6.39
-7.24
-8.20
-9.10
-9.80
-10.27
-10.64
-11.10
-11.80
-12.77
-13.84
-14.71
-15.12
-14.84
-13.85
-12.19
-10.02
-7.46
-4.67
-1.82
0.90
3.30
5.24
6.70
7.80
8.68
9.46
10.16
10.69
10.93
10.86
10.52
10.08
9.63
9.24
8.85
8.37
7.77
7.03
6.25
5.49
4.82
4.27
3.83
3.48
3.19
2.91
2.61
2.26
1.86
1.43
0.99
0.51
-0.02
-0.63
-1.30
-1.99
-2.61
-3.13
-3.55
-3.94
-4.41
-5.03
-5.85
-6.91
-8.16
-9.52
-10.84
-11.86
-12.31
-11.94
-10.65
-8.50
-5.74
-2.69
0.35
3.11
5.43
7.25
8.57
9.49
10.12
10.58
10.94
11.22
11.44
11.61
11.75
11.88
11.95
11.84
11.44
10.66
9.58
8.37
7.25
6.38
5.75
5.24
4.67
3.92
2.96
1.86
0.77
-0.14
-0.77
-1.07
-1.11
-1.01
-0.93
-1.00
-1.28
-1.73
-2.29
-2.85
-3.35
-3.77
-4.15
-4.53
-4.93
-5.34
-5.74
-6.12
-6.48
-6.87
-7.33
-7.88
-8.54
-9.30
-10.16
-11.07
-11.95
-12.72
-13.32
-13.79
-14.26
-14.91
-15.84
-17.03
-18.24
-19.12
-19.31
-18.53
-16.69
-13.91
-10.47
-6.76
-3.19
-0.06
2.48
4.48
6.10
7.55
8.93
10.24
11.38
12.26
12.83
13.07
13.02
12.71
12.19
11.54
10.87
10.26
9.79
9.45
9.20
8.94
8.60
8.11
7.45
6.67
5.83
5.00
4.24
3.53
2.85
2.17
1.49
0.87
0.35
-0.09
-0.50
-0.97
-1.56
-2.23
-2.90
-3.50
-4.08
-4.77
-5.74
-7.07
-8.70
-10.43
-11.97
-13.12
-13.71
-13.66
-12.93
-11.48
-9.33
-6.60
-3.55
-0.53
2.15
4.31
6.01
7.46
8.86
10.28
11.62
12.65
13.18
13.20
12.85
12.34
11.83
11.35
10.83
10.23
9.56
8.89
8.30
7.77
7.22
6.55
5.71
4.74
3.77
2.86
2.03
1.24
0.44
-0.37
-1.16
-1.88
-2.55
-3.17
-3.74
-4.20
-4.47
-4.56
-4.58
-4.76
-5.32
-6.29
-7.55
-8.80
-9.79
-10.43
-10.84
-11.28
-12.01
-13.16
-14.73
-16.55
-18.35
-19.82
-20.61
-20.40
-19.02
-16.48
-13.00
-8.98
-4.84
-0.94
2.46
5.23
7.34
8.84
9.86
10.57
11.17
11.78
12.42
13.00
13.40
13.47
13.20
12.62
11.83
10.96
10.12
9.43
8.92
8.61
8.40
8.13
7.68
7.00
6.11
5.15
4.21
3.36
2.59
1.87
1.19
0.60
0.16
-0.10
-0.21
-0.25
-0.33
-0.55
-0.93
-1.46
-2.13
-2.93
-3.82
-4.77
-5.67
-6.43
-7.02
-7.53
-8.15
-9.08
-10.45
-12.14
-13.83
-15.09
-15.49
-14.78
-12.95
-10.19
-6.82
-3.23
0.23
3.26
5.68
7.45
8.66
9.48
10.12
10.70
11.26
11.76
12.14
12.39
12.54
12.61
12.58
12.38
11.94
11.24
10.39
9.56
8.90
8.47
8.16
7.78
7.10
6.03
4.63
3.14
1.80
0.83
0.31
0.17
0.25
0.36
0.37
0.23
-0.06
-0.40
-0.73
-1.03
-1.32
-1.68
-2.18
-2.88
-3.78
-4.82
-5.89
-6.90
-7.78
-8.54
-9.23
-9.97
-10.89
-12.09
-13.62
-15.39
-17.20
-18.69
-19.49
-19.26
-17.85
-15.28
-11.83
-7.87
-3.81
-0.05
3.18
5.77
7.78
9.36
10.68
11.86
12.93
13.81
14.43
14.74
14.77
14.59
14.27
13.85
13.32
12.69
12.02
11.37
10.79
10.27
9.73
9.07
8.19
7.09
5.82
4.49
3.18
2.00
0.96
0.09
-0.63
-1.23
-1.75
-2.20
-2.55
-2.76
-2.79
-2.65
-2.39
-2.14
-2.02
-2.09
-2.38
-2.83
-3.39
-3.98
-4.57
-5.14
-5.67
-6.18
-6.69
-7.26
-7.98
-8.86
-9.87
-10.91
-11.86
-12.61
-13.13
-13.41
-13.50
-13.50
-13.59
-13.93
-14.68
-15.83
-17.20
-18.36
-18.79
-18.06
-15.98
-12.75
-8.83
-4.81
-1.16
1.89
4.34
6.34
8.02
9.45
10.60
11.47
12.08
12.47
12.70
12.76
12.61
12.24
11.66
10.96
10.29
9.70
9.23
8.82
8.40
7.94
7.45
6.96
6.47
5.95
5.33
4.61
3.84
3.12
2.58
2.27
2.12
1.99
1.74
1.28
0.64
-0.00
-0.50
-0.76
-0.82
-0.87
-1.07
-1.55
-2.31
-3.29
-4.43
-5.74
-7.25
-8.99
-10.88
-12.72
-14.22
-15.10
-15.16
-14.33
-12.62
-10.19
-7.25
-4.10
-1.06
1.57
3.59
4.94
5.70
6.07
6.22
6.31
6.43
6.56
6.67
6.71
6.63
6.44
6.18
5.89
5.64
5.46
5.34
5.24
5.07
4.77
4.29
3.66
2.94
2.27
1.77
1.50
1.45
1.49
1.48
1.31
0.95
0.46
-0.07
-0.54
-0.98
-1.43
-1.99
-2.72
-3.66
-4.82
-6.24
-7.95
-9.99
-12.30
-14.67
-16.77
-18.16
-18.42
-17.35
-14.98
-11.67
-7.98
-4.49
-1.64
0.42
1.82
2.83
3.69
4.51
5.23
5.70
5.85
5.73
5.53
5.48
5.69
6.14
6.69
7.14
7.37
7.36
7.12
6.74
6.24
5.64
4.91
4.05
3.10
2.10
1.11
0.14
-0.84
-1.89
-3.02
-4.20
-5.31
-6.23
-6.87
-7.26
-7.54
-7.92
-8.54
-9.42
-10.38
-11.14
-11.38
-10.88
-9.54
-7.49
-4.98
-2.35
0.10
2.20
3.92
5.37
6.68
7.90
8.99
9.83
10.32
10.42
10.17
9.72
9.18
8.63
8.07
7.51
6.92
6.34
5.80
5.34
4.96
4.62
4.25
3.78
3.20
2.52
1.82
1.18
0.62
0.11
-0.43
-1.01
-1.64
-2.26
-2.87
-3.52
-4.34
-5.45
-6.85
-8.36
-9.68
-10.40
-10.25
-9.13
-7.16
-4.62
-1.90
0.67
2.90
4.73
6.22
7.47
8.55
9.46
10.13
10.50
10.56
10.39
10.10
9.75
9.36
8.89
8.30
7.65
7.04
6.64
6.47
6.47
6.44
6.21
5.69
4.94
4.09
3.32
2.71
2.28
2.01
1.85
1.79
1.80
1.80
1.73
1.54
1.26
0.97
0.76
0.65
0.55
0.34
-0.05
-0.61
-1.26
-1.91
-2.56
-3.28
-4.14
-5.09
-6.01
-6.71
-7.08
-7.15
-7.12
-7.28
-7.82
-8.78
-10.07
-11.47
-12.75
-13.75
-14.38
-14.68
-14.74
-14.73
-14.89
-15.43
-16.45
-17.87
-19.45
-20.76
-21.34
-20.81
-19.03
-16.14
-12.47
-8.50
-4.65
-1.24
1.59
3.84
5.58
6.89
7.90
8.72
9.47
10.21
10.93
11.54
11.93
12.04
11.87
11.56
11.26
11.08
11.05
11.06
11.00
10.74
10.26
9.58
8.82
8.08
7.46
7.05
6.84
6.76
6.69
6.49
6.02
5.27
4.33
3.34
2.45
1.75
1.19
0.65
-0.04
-0.98
-2.17
-3.53
-4.88
-6.05
-6.87
-7.29
-7.37
-7.33
-7.43
-7.92
-8.88
-10.17
-11.49
-12.43
-12.61
-11.78
-9.87
-7.03
-3.59
-0.03
3.14
5.46
6.71
6.97
6.58
6.09
5.95
6.38
7.33
8.53
9.64
10.44
10.90
11.08
11.15
11.24
11.48
11.86
12.30
12.61
12.52
11.84
10.52
8.73
6.77
4.97
3.51
2.40
1.54
0.87
0.43
0.29
0.49
0.94
1.44
1.83
2.03
2.08
2.05
1.98
1.78
1.35
0.61
-0.44
-1.74
-3.22
-4.85
-6.65
-8.55
-10.42
-12.04
-13.22
-13.87
-14.04
-13.90
-13.65
-13.53
-13.71
-14.32
-15.38
-16.78
-18.24
-19.35
-19.70
-18.99
-17.15
-14.32
-10.87
-7.20
-3.71
-0.72
1.58
3.15
4.09
4.62
4.98
5.42
6.05
6.91
7.90
8.88
9.68
10.14
10.18
9.79
9.08
8.25
7.51
7.01
6.80
6.83
7.02
7.27
7.52
7.67
7.63
7.30
6.64
5.75
4.83
4.11
3.75
3.69
3.72
3.58
3.09
2.21
1.11
-0.01
-0.98
-1.72
-2.28
-2.75
-3.27
-3.87
-4.60
-5.42
-6.25
-7.00
-7.56
-7.88
-8.01
-8.13
-8.47
-9.26
-10.56
-12.20
-13.78
-14.77
-14.72
-13.36
-10.73
-7.12
-2.99
1.17
4.98
8.22
10.81
12.78
14.24
15.32
16.12
16.70
17.10
17.30
17.25
16.91
16.29
15.49
14.64
13.83
13.05
12.19
11.09
9.69
8.12
6.64
5.48
4.73
4.20
3.60
2.65
1.30
-0.22
-1.53
-2.33
-2.56
-2.41
-2.22
-2.27
-2.64
-3.22
-3.76
-4.02
-3.90
-3.48
-2.97
-2.61
-2.61
-3.02
-3.77
-4.72
-5.70
-6.61
-7.46
-8.30
-9.16
-10.02
-10.76
-11.28
-11.59
-11.86
-12.33
-13.25
-14.69
-16.44
-18.10
-19.18
-19.28
-18.21
-16.04
-13.00
-9.45
-5.73
-2.12
1.14
3.89
6.00
7.43
8.22
8.54
8.61
8.66
8.82
9.11
9.43
9.62
9.53
9.09
8.32
7.34
6.26
5.26
4.43
3.85
3.57
3.55
3.72
3.98
4.19
4.23
4.03
3.59
3.00
2.42
1.97
1.73
1.66
1.66
1.62
1.48
1.24
0.93
0.55
0.10
-0.46
-1.16
-2.00
-2.93
-3.89
-4.78
-5.56
-6.24
-6.84
-7.45
-8.15
-9.00
-10.04
-11.27
-12.61
-13.94
-15.08
-15.79
-15.85
-15.05
-13.33
-10.76
-7.61
-4.20
-0.88
2.13
4.72
6.88
8.66
10.09
11.14
11.76
11.97
11.81
11.41
10.89
10.35
9.77
9.10
8.30
7.39
6.46
5.64
5.03
4.64
4.41
4.19
3.85
3.32
2.60
1.80
1.02
0.36
-0.17
-0.64
-1.16
-1.78
-2.49
-3.20
-3.81
-4.25
-4.53
-4.73
-4.95
-5.27
-5.79
-6.60
-7.74
-9.17
-10.73
-12.14
-13.08
-13.28
-12.59
-11.03
-8.75
-5.97
-2.95
0.03
2.75
5.03
6.79
8.09
9.04
9.80
10.48
11.08
11.55
11.84
11.90
11.72
11.36
10.84
10.19
9.44
8.66
7.91
7.28
6.83
6.53
6.28
5.94
5.38
4.55
3.47
2.20
0.87
-0.43
-1.57
-2.46
-3.02
-3.24
-3.18
-3.02
-2.86
-2.80
-2.85
-3.00
-3.25
-3.65
-4.23
-4.95
-5.71
-6.33
-6.73
-6.95
-7.13
-7.48
-8.12
-9.00
-9.96
-10.79
-11.43
-11.97
-12.62
-13.55
-14.80
-16.21
-17.47
-18.29
-18.45
-17.82
-16.40
-14.17
-11.18
-7.58
-3.65
0.19
3.53
6.12
7.91
9.06
9.79
10.27
10.57
10.72
10.76
10.77
10.84
10.95
11.00
10.83
10.37
9.66
8.87
8.18
7.67
7.30
6.93
6.46
5.84
5.14
4.44
3.81
3.25
2.75
2.28
1.83
1.39
0.95
0.47
-0.10
-0.73
-1.38
-2.00
-2.58
-3.14
-3.75
-4.48
-5.42
-6.61
-8.09
-9.82
-11.69
-13.42
-14.67
-15.11
-14.52
-12.88
-10.36
-7.29
-3.99
-0.75
2.24
4.85
7.02
8.77
10.17
11.25
12.04
12.55
12.75
12.66
12.36
11.95
11.49
11.02
10.51
9.95
9.39
8.89
8.51
8.25
8.01
7.64
7.08
6.35
5.59
4.95
4.52
4.26
4.05
3.76
3.29
2.63
1.83
0.93
0.04
-0.76
-1.39
-1.77
-1.92
-1.92
-1.89
-1.98
-2.30
-2.85
-3.56
-4.29
-4.93
-5.41
-5.81
-6.26
-6.92
-7.87
-9.09
-10.45
-11.76
-12.90
-13.83
-14.60
-15.28
-15.97
-16.77
-17.75
-18.93
-20.21
-21.32
-21.84
-21.35
-19.60
-16.61
-12.69
-8.33
-4.00
-0.07
3.27
5.95
7.98
9.39
10.32
10.94
11.44
11.94
12.46
12.90
13.13
13.04
12.62
11.94
11.13
10.32
9.61
9.07
8.76
8.67
8.74
8.84
8.81
8.51
7.90
7.03
6.06
5.21
4.60
4.29
4.14
3.94
3.48
2.69
1.64
0.54
-0.44
-1.20
-1.80
-2.34
-2.86
-3.35
-3.71
-3.92
-4.05
-4.25
-4.70
-5.49
-6.54
-7.73
-8.92
-10.09
-11.30
-12.56
-13.80
-14.77
-15.11
-14.49
-12.77
-10.06
-6.72
-3.17
0.20
3.20
5.73
7.80
9.39
10.45
10.98
11.05
10.87
10.68
10.61
10.65
10.65
10.41
9.86
9.05
8.18
7.45
6.97
6.72
6.59
6.46
6.25
5.94
5.55
5.08
4.51
3.80
2.97
2.06
1.21
0.55
0.18
0.14
0.33
0.60
0.72
0.55
-0.00
-0.91
-2.03
-3.22
-4.31
-5.21
-5.93
-6.54
-7.14
-7.89
-8.92
-10.28
-11.96
-13.78
-15.50
-16.76
-17.24
-16.72
-15.15
-12.65
-9.43
-5.81
-2.08
1.49
4.64
7.25
9.22
10.58
11.41
11.83
11.95
11.92
11.85
11.77
11.68
11.49
11.10
10.46
9.65
8.85
8.22
7.90
7.82
7.82
7.68
7.26
6.55
5.68
4.83
4.12
3.57
3.12
2.69
2.20
1.65
1.05
0.45
-0.08
-0.50
-0.76
-0.85
-0.82
-0.79
-0.88
-1.23
-1.89
-2.81
-3.85
-4.87
-5.78
-6.59
-7.36
-8.18
-9.08
-10.06
-11.03
-11.92
-12.69
-13.34
-13.91
-14.47
-15.14
-16.00
-17.12
-18.42
-19.70
-20.63
-20.78
-19.84
-17.69
-14.49
-10.62
-6.54
-2.68
0.66
3.37
5.46
7.01
8.12
8.91
9.49
9.90
10.19
10.38
10.46
10.45
10.36
10.20
9.95
9.62
9.18
8.67
8.12
7.62
7.23
7.01
6.95
6.99
7.01
6.90
6.57
6.01
5.29
4.53
3.86
3.39
3.14
3.03
2.94
2.74
2.37
1.81
1.11
0.33
-0.48
-1.34
-2.27
-3.26
-4.27
-5.24
-6.11
-6.90
-7.70
-8.65
-9.79
-11.06
-12.25
-13.07
-13.26
-12.70
-11.38
-9.41
-6.97
-4.19
-1.26
1.64
4.33
6.65
8.48
9.81
10.70
11.21
11.37
11.21
10.73
10.03
9.24
8.52
7.98
7.65
7.47
7.31
7.08
6.73
6.29
5.79
5.26
4.69
4.08
3.41
2.72
2.02
1.35
0.73
0.20
-0.23
-0.52
-0.67
-0.68
-0.59
-0.51
-0.53
-0.77
-1.29
-2.11
-3.16
-4.33
-5.49
-6.51
-7.32
-7.97
-8.55
-9.21
-10.12
-11.32
-12.76
-14.27
-15.56
-16.35
-16.36
-15.41
-13.45
-10.62
-7.18
-3.50
-0.00
3.00
5.33
6.97
8.07
8.78
9.28
9.64
9.93
10.15
10.31
10.39
10.35
10.13
9.68
9.01
8.26
7.58
7.16
7.05
7.19
7.40
7.47
7.23
6.63
5.71
4.60
3.46
2.40
1.50
0.75
0.17
-0.26
-0.54
-0.69
-0.80
-0.94
-1.24
-1.75
-2.45
-3.25
-3.98
-4.54
-4.92
-5.23
-5.64
-6.29
-7.19
-8.23
-9.22
-10.01
-10.57
-10.98
-11.39
-11.95
-12.73
-13.71
-14.90
-16.24
-17.68
-19.04
-20.01
-20.22
-19.34
-17.27
-14.17
-10.40
-6.43
-2.63
0.71
3.48
5.64
7.24
8.38
9.17
9.72
10.13
10.44
10.69
10.89
11.01
11.02
10.87
10.50
9.89
9.11
8.31
7.64
7.21
7.02
6.98
6.95
6.82
6.55
6.15
5.68
5.19
4.69
4.19
3.66
3.10
2.51
1.92
1.31
0.70
0.04
-0.71
-1.58
-2.56
-3.56
-4.47
-5.25
-5.92
-6.61
-7.46
-8.56
-9.87
-11.22
-12.37
-13.03
-12.96
-12.01
-10.15
-7.50
-4.34
-1.02
2.07
4.68
6.74
8.35
9.63
10.69
11.48
11.92
11.94
11.58
11.00
10.38
9.83
9.32
8.77
8.11
7.38
6.67
6.14
5.85
5.76
5.76
5.73
5.55
5.22
4.75
4.18
3.57
2.98
2.46
2.04
1.68
1.31
0.86
0.31
-0.29
-0.81
-1.16
-1.34
-1.45
-1.69
-2.25
-3.19
-4.47
-5.91
-7.28
-8.40
-9.18
-9.68
-10.05
-10.52
-11.26
-12.35
-13.74
-15.31
-16.83
-18.08
-18.81
-18.79
-17.82
-15.83
-12.91
-9.35
-5.53
-1.90
1.25
3.74
5.58
6.86
7.73
8.34
8.87
9.42
10.04
10.68
11.21
11.52
11.52
11.20
10.60
9.81
8.90
8.01
7.28
6.82
6.70
6.82
7.00
6.98
6.56
5.73
4.59
3.36
2.22
1.30
0.63
0.21
0.06
0.14
0.40
0.71
0.90
0.81
0.36
-0.39
-1.28
-2.08
-2.62
-2.84
-2.79
-2.63
-2.55
-2.72
-3.26
-4.19
-5.45
-6.85
-8.19
-9.27
-10.00
-10.40
-10.62
-10.86
-11.30
-12.10
-13.27
-14.69
-16.11
-17.20
-17.57
-16.95
-15.19
-12.42
-8.92
-5.09
-1.33
2.05
4.89
7.12
8.77
9.92
10.65
11.09
11.32
11.43
11.43
11.34
11.18
10.96
10.73
10.51
10.26
9.89
9.34
8.60
7.76
6.98
6.39
6.02
5.75
5.42
4.90
4.18
3.38
2.68
2.19
1.92
1.73
1.47
1.07
0.54
-0.05
-0.60
-1.08
-1.55
-2.13
-2.97
-4.15
-5.69
-7.47
-9.29
-10.90
-12.09
-12.68
-12.59
-11.79
-10.32
-8.23
-5.63
-2.66
0.45
3.42
5.99
7.99
9.41
10.35
11.00
11.51
11.95
12.29
12.46
12.38
12.00
11.36
10.55
9.68
8.85
8.12
7.50
6.97
6.52
6.14
5.84
5.65
5.51
5.32
4.91
4.16
3.10
1.92
0.91
0.29
0.14
0.29
0.50
0.53
0.30
-0.09
-0.48
-0.78
-1.00
-1.28
-1.74
-2.44
-3.31
-4.22
-5.01
-5.62
-6.09
-6.51
-7.02
-7.71
-8.62
-9.71
-10.84
-11.84
-12.54
-12.83
-12.74
-12.45
-12.26
-12.45
-13.22
-14.60
-16.38
-18.20
-19.61
-20.22
-19.75
-18.11
-15.41
-11.93
-8.05
-4.19
-0.72
2.16
4.43
6.22
7.68
8.94
10.01
10.85
11.39
11.65
11.68
11.56
11.39
11.18
10.92
10.62
10.32
10.10
9.98
9.96
9.88
9.57
8.92
7.96
6.88
5.94
5.34
5.10
5.07
5.02
4.73
4.16
3.38
2.53
1.73
1.00
0.27
-0.53
-1.40
-2.29
-3.12
-3.81
-4.34
-4.76
-5.18
-5.70
-6.43
-7.43
-8.67
-10.05
-11.41
-12.52
-13.14
-13.09
-12.25
-10.61
-8.32
-5.66
-2.89
-0.27
2.10
4.15
5.91
7.37
8.47
9.20
9.62
9.89
10.22
10.73
11.41
12.08
12.47
12.42
11.89
11.00
9.95
8.91
8.00
7.28
6.78
6.44
6.16
5.79
5.20
4.35
3.34
2.40
1.72
1.39
1.33
1.33
1.23
0.94
0.51
0.05
-0.36
-0.67
-0.89
-1.06
-1.20
-1.33
-1.48
-1.71
-2.06
-2.57
-3.22
-3.96
-4.76
-5.62
-6.55
-7.59
-8.71
-9.87
-10.96
-11.87
-12.53
-12.94
-13.16
-13.39
-13.83
-14.63
-15.83
-17.29
-18.73
-19.75
-20.02
-19.30
-17.55
-14.89
-11.60
-8.04
-4.53
-1.34
1.37
3.54
5.23
6.55
7.65
8.63
9.56
10.40
11.09
11.53
11.66
11.48
11.02
10.36
9.61
8.89
8.27
7.82
7.53
7.35
7.18
6.92
6.52
5.97
5.30
4.58
3.89
3.28
2.79
2.44
2.21
2.05
1.89
1.67
1.39
1.06
0.76
0.50
0.29
0.10
-0.15
-0.52
-1.07
-1.77
-2.61
-3.51
-4.39
-5.17
-5.82
-6.36
-6.85
-7.38
-8.02
-8.78
-9.61
-10.42
-11.06
-11.38
-11.23
-10.52
-9.21
-7.33
-4.97
-2.32
0.41
3.00
5.25
7.07
8.45
9.49
10.27
10.89
11.36
11.67
11.75
11.61
11.26
10.78
10.23
9.65
9.03
8.33
7.54
6.71
5.95
5.42
5.17
5.11
5.03
4.70
3.95
2.86
1.67
0.68
0.10
-0.06
0.06
0.24
0.37
0.42
0.43
0.42
0.30
-0.02
-0.61
-1.41
-2.27
-3.02
-3.55
-3.91
-4.22
-4.62
-5.20
-5.96
-6.87
-7.84
-8.83
-9.80
-10.74
-11.64
-12.52
-13.38
-14.26
-15.14
-15.93
-16.43
-16.40
-15.58
-13.82
-11.17
-7.88
-4.38
-1.10
1.65
3.77
5.36
6.60
7.65
8.55
9.25
9.66
9.80
9.73
9.58
9.43
9.27
9.00
8.55
7.90
7.16
6.51
6.07
5.85
5.74
5.56
5.16
4.50
3.67
2.82
2.07
1.44
0.89
0.34
-0.21
-0.71
-1.08
-1.22
-1.14
-0.87
-0.54
-0.26
-0.12
-0.16
-0.38
-0.76
-1.22
-1.66
-2.01
-2.23
-2.34
-2.48
-2.77
-3.28
-3.99
-4.82
-5.64
-6.39
-7.02
-7.58
-8.12
-8.68
-9.29
-9.96
-10.68
-11.47
-12.33
-13.23
-14.11
-14.87
-15.32
-15.25
-14.44
-12.78
-10.26
-7.10
-3.61
-0.17
2.90
5.43
7.38
8.83
9.88
10.59
10.98
11.06
10.88
10.58
10.30
10.17
10.15
10.10
9.81
9.18
8.30
7.37
6.66
6.33
6.34
6.46
6.45
6.19
5.72
5.21
4.84
4.69
4.67
4.62
4.43
4.03
3.49
2.92
2.38
1.90
1.41
0.81
0.04
-0.91
-1.98
-3.09
-4.14
-5.08
-5.89
-6.61
-7.32
-8.04
-8.80
-9.60
-10.42
-11.26
-12.12
-12.97
-13.66
-13.97
-13.58
-12.24
-9.90
-6.69
-3.00
0.74
4.10
6.80
8.77
10.06
10.85
11.32
11.60
11.82
11.99
12.14
12.20
12.14
11.90
11.44
10.78
9.99
9.19
8.49
7.94
7.51
7.09
6.57
5.87
4.98
3.99
3.06
2.33
1.87
1.67
1.64
1.62
1.49
1.20
0.78
0.35
0.01
-0.19
-0.29
-0.34
-0.46
-0.69
-1.07
-1.60
-2.27
-3.06
-3.93
-4.78
-5.56
-6.22
-6.78
-7.28
-7.79
-8.40
-9.16
-10.08
-11.12
-12.16
-13.04
-13.65
-13.96
-14.14
-14.42
-15.06
-16.09
-17.33
-18.37
-18.74
-18.09
-16.34
-13.66
-10.36
-6.78
-3.21
0.14
3.09
5.54
7.43
8.76
9.63
10.17
10.52
10.74
10.86
10.87
10.75
10.50
10.17
9.79
9.44
9.13
8.88
8.66
8.42
8.12
7.71
7.21
6.65
6.09
5.58
5.14
4.81
4.62
4.57
4.59
4.60
4.46
4.12
3.60
2.99
2.44
2.02
1.71
1.40
0.96
0.32
-0.49
-1.35
-2.16
-2.86
-3.50
-4.17
-4.93
-5.75
-6.53
-7.19
-7.66
-7.98
-8.24
-8.52
-8.87
-9.27
-9.68
-10.08
-10.44
-10.68
-10.66
-10.17
-8.99
-7.01
-4.27
-1.04
2.34
5.51
8.17
10.19
11.55
12.30
12.53
12.39
12.02
11.61
11.30
11.14
11.06
10.88
10.43
9.62
8.53
7.37
6.38
5.71
5.36
5.16
4.91
4.45
3.76
2.95
2.18
1.60
1.24
1.06
0.99
0.96
0.95
0.93
0.89
0.80
0.63
0.37
0.03
-0.33
-0.65
-0.85
-0.88
-0.75
-0.47
-0.13
0.16
0.28
0.16
-0.21
-0.77
-1.40
-2.00
-2.54
-3.03
-3.50
-4.01
-4.58
-5.27
-6.10
-7.08
-8.18
-9.33
-10.44
-11.41
-12.23
-12.97
-13.79
-14.82
-16.12
-17.57
-18.92
-19.86
-20.09
-19.42
-17.81
-15.35
-12.25
-8.74
-5.10
-1.58
1.58
4.21
6.21
7.56
8.34
8.71
8.89
9.06
9.33
9.71
10.11
10.42
10.55
10.48
10.20
9.77
9.22
8.63
8.05
7.52
7.05
6.61
6.16
5.66
5.15
4.73
4.44
4.25
4.05
3.69
3.12
2.42
1.78
1.38
1.24
1.30
1.36
1.28
0.99
0.55
0.06
-0.40
-0.83
-1.26
-1.75
-2.32
-2.96
-3.63
-4.32
-5.04
-5.78
-6.50
-7.18
-7.80
-8.37
-8.95
-9.58
-10.29
-11.06
-11.84
-12.55
-13.06
-13.22
-12.85
-11.80
-10.01
-7.54
-4.57
-1.38
1.75
4.61
7.07
9.08
10.64
11.79
12.58
13.04
13.22
13.14
12.83
12.31
11.65
10.90
10.10
9.29
8.53
7.87
7.36
7.01
6.77
6.52
6.15
5.58
4.86
4.10
3.41
2.88
2.52
2.30
2.19
2.18
2.23
2.30
2.29
2.14
1.82
1.38
0.87
0.38
-0.08
-0.52
-0.98
-1.48
-2.00
-2.52
-3.03
-3.54
-4.14
-4.89
-5.82
-6.91
-8.04
-9.10
-9.99
-10.71
-11.30
-11.86
-12.47
-13.19
-14.00
-14.91
-15.92
-16.98
-17.94
-18.51
-18.32
-17.05
-14.60
-11.19
-7.28
-3.42
-0.03
2.74
4.99
6.87
8.50
9.85
10.81
11.30
11.40
11.27
11.13
11.05
10.98
10.75
10.23
9.45
8.59
7.88
7.47
7.32
7.25
7.00
6.46
5.68
4.87
4.23
3.90
3.83
3.85
3.79
3.57
3.19
2.73
2.27
1.85
1.48
1.18
0.95
0.78
0.67
0.56
0.36
-0.01
-0.57
-1.31
-2.13
-2.92
-3.59
-4.13
-4.61
-5.14
-5.79
-6.55
-7.30
-7.88
-8.19
-8.23
-8.13
-8.08
-8.26
-8.77
-9.57
-10.58
-11.63
-12.50
-12.97
-12.78
-11.75
-9.79
-7.00
-3.64
-0.07
3.35
6.34
8.74
10.51
11.67
12.29
12.50
12.44
12.25
12.06
11.88
11.67
11.34
10.85
10.24
9.61
9.05
8.59
8.19
7.75
7.22
6.60
5.98
5.46
5.12
4.94
4.85
4.75
4.58
4.33
4.04
3.76
3.53
3.35
3.21
3.10
2.98
2.81
2.49
1.91
0.97
-0.36
-2.00
-3.73
-5.32
-6.61
-7.53
-8.18
-8.71
-9.27
-9.92
-10.64
-11.36
-11.94
-12.30
-12.42
-12.34
-12.17
-12.06
-12.24
-12.87
-13.97
-15.39
-16.77
-17.61
-17.49
-16.15
-13.66
-10.32
-6.53
-2.70
0.92
4.18
6.98
9.21
10.76
11.62
11.89
11.80
11.61
11.52
11.57
11.61
11.43
10.88
9.91
8.59
7.08
5.51
4.02
2.63
1.36
0.15
-1.03
-2.23
-3.41
-4.48
-5.31
-5.80
-5.95
-5.92
-5.90
-6.15
-6.82
-7.93
-9.38
-10.98
-12.45
-13.50
-13.83
-13.23
-11.70
-9.41
-6.77
-4.22
-2.17
-0.82
-0.14
0.01
-0.15
-0.44
-0.78
-1.17
-1.68
-2.48
-3.73
-5.52
-7.82
-10.48
-13.23
-15.86
-18.23
-20.26
-21.85
-22.77
-22.69
-21.37
-18.82
-15.44
-11.95
-9.13
-7.50
-7.11
-7.54
-8.09
-8.08
-7.16
-5.38
-3.15
-1.03
0.54
1.39
1.60
1.47
1.25
1.10
1.00
0.82
0.42
-0.29
-1.35
-2.78
-4.57
-6.67
-8.90
-10.97
-12.56
-13.43
-13.57
-13.18
-12.58
-12.03
-11.64
-11.29
-10.74
-9.75
-8.28
-6.51
-4.81
-3.60
-3.11
-3.32
-3.86
-4.18
-3.75
-2.27
0.27
3.56
7.15
10.63
13.73
16.42
18.87
21.34
24.06
27.16
30.63
34.37
38.19
41.93
45.41
48.56
51.29
53.47
55.02
55.95
56.41
56.64
56.84
57.07
57.35
57.45
57.00
55.69
53.51
50.73
47.81
45.16
43.06
41.74
41.06
40.55
39.70
38.29
36.52
34.84
33.77
33.67
35.02
37.69
40.94
43.71
45.06
44.46
41.77
37.26
31.73
26.82
23.83
22.93
23.05
22.19
18.13
9.02
-6.06
-29.49
-59.48
-90.89
-117.74
-136.30
-145.43
-145.38
-137.06
-122.24
-103.67
-84.31
-67.06
-53.94
-45.46
-40.69
-38.21
-36.76
-35.73
-34.86
-33.52
-31.17
-27.82
-24.10
-21.05
-19.67
-20.46
-23.21
-26.91
-29.95
-31.14
-30.20
-27.77
-25.04
-23.08
-22.47
-23.18
-24.71
-26.18
-26.75
-25.81
-22.99
-18.21
-11.82
-4.65
2.04
6.94
9.13
8.25
4.57
-1.18
-8.00
-14.58
-19.47
-21.22
-18.71
-11.57
-0.30
13.89
29.42
44.85
58.98
70.70
78.80
82.07
79.62
71.53
59.04
44.28
29.56
16.53
5.84
-2.78
-9.91
-15.86
-20.38
-22.89
-22.94
-20.68
-17.01
-13.25
-10.58
-9.43
-9.13
-8.14
-4.64
2.64
13.73
27.29
41.01
52.43
59.76
62.31
60.53
55.54
48.69
41.07
33.42
26.19
19.73
14.44
10.77
9.11
9.61
12.03
15.71
19.72
23.15
25.38
26.24
25.98
25.10
24.09
23.25
22.70
22.41
22.31
22.33
22.36
22.19
21.58
20.42
18.81
17.19
16.17
16.33
17.94
20.82
24.35
27.58
29.45
29.00
25.56
19.02
9.92
-0.44
-10.18
-17.24
-19.96
-17.62
-10.77
-1.03
9.37
18.42
24.88
28.55
30.08
30.38
30.11
29.32
27.65
24.73
20.82
17.18
15.91
19.15
28.01
41.58
56.65
68.35
71.59
62.60
40.09
5.67
-36.28
-79.10
-114.87
-136.06
-137.77
-120.02
-88.62
-53.92
-27.16
-16.11
-21.87
-38.81
-57.67
-70.06
-71.89
-64.19
-51.12
-36.93
-23.91
-12.34
-2.08
5.81
8.51
2.69
-13.38
-38.16
-66.55
-91.67
-107.40
-110.72
-102.56
-86.82
-68.29
-50.67
-35.53
-22.57
-10.66
1.14
12.98
24.43
34.78
43.38
49.58
52.71
52.15
47.63
39.54
28.96
17.26
5.56
-5.57
-15.99
-25.50
-33.40
-38.40
-39.10
-34.74
-25.79
-14.03
-1.98
7.94
14.23
16.54
15.51
12.12
7.20
1.26
-5.44
-12.57
-19.54
-25.43
-29.21
-30.09
-27.73
-22.40
-14.95
-6.58
1.46
8.17
13.04
16.03
17.54
18.05
18.02
17.70
17.20
16.52
15.75
15.03
14.52
14.32
14.37
14.48
14.39
13.92
13.04
11.97
11.13
11.06
12.25
14.96
19.05
23.93
28.68
32.35
34.24
34.22
32.70
30.45
28.20
26.30
24.64
22.75
20.14
16.55
12.08
7.18
2.41
-1.63
-4.48
-5.70
-4.97
-2.02
3.24
10.58
19.40
28.64
36.81
42.18
43.00
37.88
26.19
8.41
-13.76
-37.56
-59.69
-77.03
-87.44
-90.33
-86.76
-79.07
-70.07
-62.11
-56.40
-52.77
-50.01
-46.54
-41.12
-33.35
-23.63
-12.89
-1.98
8.69
19.29
30.27
41.94
53.96
65.27
74.28
79.51
80.20
76.62
70.05
62.32
55.19
49.88
46.74
45.26
44.17
41.78
36.45
27.06
13.50
-3.23
-21.24
-38.32
-52.61
-63.07
-69.48
-72.21
-71.90
-69.16
-64.52
-58.56
-51.90
-45.26
-39.38
-34.99
-32.72
-32.95
-35.70
-40.43
-46.09
-51.38
-55.18
-56.89
-56.57
-54.65
-51.49
-47.05
-41.05
-33.35
-24.55
-16.15
-10.17
-8.29
-11.09
-17.56
-25.51
-32.37
-36.19
-36.18
-32.83
-27.31
-20.82
-14.20
-7.79
-1.63
4.23
9.58
14.08
17.39
19.29
19.81
19.13
17.64
15.80
14.04
12.63
11.58
10.57
9.10
6.66
3.01
-1.72
-7.13
-12.82
-18.57
-24.42
-30.45
-36.56
-42.18
-46.38
-48.18
-46.93
-42.61
-35.85
-27.67
-19.07
-10.82
-3.30
3.43
9.48
15.00
20.13
24.94
29.45
33.64
37.42
40.79
43.85
46.84
50.14
54.01
58.42
62.91
66.73
69.09
69.51
68.04
65.28
62.10
59.30
57.34
56.23
55.62
55.01
53.90
51.89
48.71
44.24
38.55
31.98
25.15
18.89
14.05
11.21
10.50
11.46
13.11
14.23
13.72
10.96
5.93
-0.77
-8.30
-15.90
-23.21
-30.27
-37.43
-44.93
-52.69
-60.11
-66.21
-69.92
-70.44
-67.56
-61.71
-53.80
-44.96
-36.19
-28.17
-21.28
-15.67
-11.46
-8.75
-7.55
-7.62
-8.38
-9.03
-8.77
-7.10
-4.07
-0.20
3.72
6.94
8.93
9.52
8.82
7.09
4.77
2.34
0.37
-0.59
-0.10
2.03
5.66
10.34
15.34
19.78
22.83
23.87
22.71
19.68
15.61
11.57
8.56
7.13
7.22
8.29
9.54
10.30
10.25
9.43
8.15
6.80
5.65
4.81
4.23
3.72
3.03
1.91
0.19
-2.08
-4.61
-6.92
-8.47
-8.83
-7.84
-5.56
-2.28
1.54
5.39
8.73
11.14
12.32
12.23
10.93
8.50
4.98
0.38
-5.11
-10.96
-16.15
-19.47
-19.81
-16.61
-10.11
-1.34
8.16
16.77
23.25
27.06
28.52
28.62
28.71
29.93
32.69
36.32
39.29
39.68
36.00
27.82
16.05
2.61
-10.28
-20.78
-27.98
-31.86
-32.96
-31.95
-29.32
-25.38
-20.40
-14.76
-8.94
-3.40
1.61
6.06
10.11
13.89
17.38
20.34
22.38
23.10
22.26
19.85
16.20
11.91
7.77
4.54
2.70
2.29
2.85
3.64
3.90
3.14
1.19
-1.73
-5.24
-8.87
-12.23
-14.93
-16.72
-17.47
-17.24
-16.32
-15.10
-13.97
-13.10
-12.40
-11.57
-10.21
-8.02
-4.91
-1.01
3.30
7.46
10.91
13.23
14.31
14.39
13.94
13.40
12.95
12.39
11.26
9.07
5.60
1.03
-4.13
-9.20
-13.60
-16.98
-19.27
-20.56
-21.08
-20.98
-20.40
-19.39
-17.98
-16.17
-14.02
-11.62
-9.03
-6.28
-3.28
0.18
4.27
9.05
14.34
19.64
24.23
27.23
27.79
25.32
19.64
11.28
1.58
-7.30
-12.63
-11.67
-2.31
16.22
43.05
75.77
110.92
144.70
173.53
194.35
204.81
203.50
190.27
166.47
135.08
100.15
65.99
36.10
12.58
-3.98
-14.02
-18.41
-18.08
-13.97
-7.34
0.14
6.44
9.71
8.72
3.26
-5.85
-17.09
-28.73
-39.21
-47.47
-53.02
-55.94
-56.75
-56.26
-55.40
-55.00
-55.64
-57.56
-60.64
-64.60
-69.05
-73.67
-78.19
-82.29
-85.62
-87.78
-88.51
-87.83
-86.06
-83.71
-81.23
-78.75
-76.04
-72.65
-68.20
-62.65
-56.38
-50.02
-44.21
-39.27
-35.19
-31.63
-28.19
-24.49
-20.32
-15.60
-10.35
-4.73
0.98
6.37
10.97
14.45
16.70
17.89
18.38
18.61
18.88
19.39
20.24
21.43
22.89
24.42
25.64
26.08
25.30
23.15
19.90
16.16
12.67
10.04
8.52
7.99
8.05
8.32
8.52
8.55
8.40
8.04
7.41
6.45
5.15
3.60
1.94
0.27
-1.39
-3.15
-5.20
-7.67
-10.55
-13.67
-16.71
-19.32
-21.19
-22.18
-22.34
-21.81
-20.78
-19.31
-17.31
-14.57
-10.93
-6.40
-1.22
4.13
9.12
13.25
16.18
17.68
17.68
16.25
13.64
10.33
6.98
4.29
2.84
2.93
4.50
7.17
10.36
13.42
15.75
17.00
17.05
16.09
14.52
12.80
11.32
10.25
9.53
8.95
8.28
7.34
6.07
4.53
2.89
1.32
0.01
-0.95
-1.59
-2.10
-2.73
-3.71
-5.14
-6.90
-8.74
-10.33
-11.36
-11.67
-11.17
-9.88
-7.90
-5.41
-2.65
0.08
2.47
4.30
5.49
6.11
6.29
6.21
5.98
5.66
5.30
4.94
4.66
4.54
4.68
5.05
5.60
6.18
6.66
6.98
7.12
7.13
7.07
6.98
6.83
6.56
6.11
5.45
4.61
3.66
2.73
1.88
1.13
0.50
-0.06
-0.55
-0.96
-1.32
-1.71
-2.22
-2.96
-3.99
-5.26
-6.66
-8.05
-9.38
-10.62
-11.82
-13.04
-14.35
-15.79
-17.41
-19.15
-20.86
-22.22
-22.82
-22.30
-20.53
-17.66
-14.08
-10.28
-6.68
-3.52
-0.88
1.29
3.05
4.41
5.39
6.03
6.43
6.70
6.96
7.28
7.67
8.12
8.59
9.04
9.46
9.80
10.03
10.12
10.02
9.71
9.20
8.56
7.84
7.08
6.27
5.39
4.43
3.43
2.45
1.55
0.78
0.13
-0.50
-1.18
-1.95
-2.79
-3.63
-4.39
-5.06
-5.64
-6.15
-6.61
-7.03
-7.45
-7.96
-8.66
-9.58
-10.70
-11.89
-13.01
-13.91
-14.56
-15.06
-15.56
-16.31
-17.49
-19.23
-21.48
-23.96
-26.25
-27.79
-28.07
-26.86
-24.19
-20.40
-15.95
-11.29
-6.74
-2.53
1.21
4.35
6.75
8.38
9.27
9.60
9.54
9.32
9.09
8.96
9.04
9.36
9.95
10.77
11.70
12.57
13.23
13.54
13.47
13.06
12.44
11.72
10.99
10.29
9.59
8.87
8.14
7.41
6.71
6.02
5.25
4.30
3.10
1.68
0.15
-1.33
-2.63
-3.71
-4.62
-5.51
-6.55
-7.92
-9.72
-11.93
-14.32
-16.52
-18.09
-18.60
-17.76
-15.56
-12.21
-8.12
-3.79
0.34
3.96
6.95
9.35
11.27
12.83
14.09
15.02
15.57
15.73
15.62
15.48
15.53
15.89
16.48
17.10
17.47
17.45
17.08
16.55
16.07
15.77
15.61
15.44
15.10
14.49
13.66
12.72
11.77
10.86
10.00
9.16
8.30
7.43
6.57
5.73
4.95
4.26
3.67
3.17
2.70
2.19
1.57
0.84
0.02
-0.87
-1.83
-2.86
-4.03
-5.35
-6.80
-8.31
-9.80
-11.23
-12.55
-13.78
-14.92
-16.02
-17.16
-18.47
-20.11
-22.20
-24.73
-27.52
-30.12
-32.00
-32.61
-31.59
-28.91
-24.85
-19.93
-14.74
-9.79
-5.41
-1.75
1.20
3.49
5.17
6.29
6.90
7.15
7.19
7.23
7.45
7.92
8.64
9.51
10.40
11.20
11.86
12.33
12.60
12.67
12.54
12.23
11.82
11.38
10.95
10.55
10.13
9.64
9.05
8.34
7.54
6.67
5.78
4.91
4.08
3.32
2.61
1.96
1.36
0.78
0.18
-0.47
-1.22
-2.08
-3.05
-4.09
-5.14
-6.16
-7.09
-7.91
-8.66
-9.45
-10.47
-11.95
-14.05
-16.78
-19.90
-22.96
-25.34
-26.45
-25.83
-23.29
-18.95
-13.24
-6.77
-0.22
5.81
10.97
15.12
18.34
20.80
22.57
23.69
24.14
23.96
23.33
22.51
21.82
21.39
21.23
21.19
21.07
20.76
20.23
19.60
18.99
18.50
18.14
17.90
17.74
17.65
17.64
17.69
17.74
17.70
17.46
16.94
16.17
15.20
14.10
12.87
11.43
9.60
7.25
4.35
1.09
-2.22
-5.21
-7.59
-9.22
-10.14
