1653124608.00
64.000000
-0.00
-0.00
-0.00
-0.00
-0.00
-0.00
-0.00
-0.00
-0.00
-0.00
0.00
0.01
0.01
-0.00
-0.03
-0.05
-0.05
0.00
0.13
0.36
0.66
1.01
1.37
1.72
2.06
2.40
2.79
3.24
3.80
4.42
5.06
5.66
6.20
6.68
7.15
7.68
8.31
9.14
10.09
11.04
11.88
12.56
13.14
13.76
14.65
15.96
17.91
20.32
22.90
25.38
27.58
29.57
31.68
34.32
37.81
42.54
48.15
54.10
59.83
64.97
69.58
74.14
79.34
85.71
93.76
103.00
112.62
121.73
129.77
136.75
143.30
150.75
157.77
166.64
177.95
191.79
206.97
220.57
228.25
225.36
208.53
176.87
132.76
80.05
23.07
-34.94
-92.44
-149.16
-205.23
-260.36
-313.71
-363.83
-409.79
-450.91
-486.59
-515.95
-537.57
-549.68
-550.50
-538.92
-514.74
-479.17
-434.36
-382.97
-327.64
-270.58
-213.49
-157.58
-103.88
-53.28
-6.80
34.62
70.28
99.91
123.72
142.32
156.50
166.98
174.31
178.75
180.43
179.47
176.17
171.04
164.71
157.82
150.77
143.66
136.33
128.50
119.96
110.80
101.39
92.26
83.92
76.57
70.04
63.81
57.28
50.06
42.16
34.05
26.39
19.84
14.68
10.75
7.56
4.39
0.54
-4.58
-11.27
-19.18
-26.98
-32.46
-32.99
-26.56
-12.85
6.27
27.05
45.13
57.03
61.30
58.70
51.51
42.46
33.77
26.75
21.90
19.30
18.83
20.33
23.47
27.69
32.15
35.85
38.03
38.48
37.63
36.25
34.92
33.63
31.72
28.29
22.84
15.72
8.04
1.24
-3.72
-6.64
-8.05
-8.76
-9.29
-9.75
-9.85
-9.34
-8.21
-6.78
-5.52
-4.83
-4.95
-5.76
-6.92
-7.93
-8.32
-7.82
-6.48
-4.72
-3.08
-2.09
-2.05
-3.01
-4.80
-7.17
-9.73
-11.92
-12.86
-11.65
-7.77
-1.62
5.31
10.90
13.43
12.45
9.19
5.83
4.22
4.88
6.82
8.38
8.44
7.18
5.82
5.69
7.25
9.71
11.65
11.93
10.42
7.96
5.73
4.50
4.20
4.10
3.38
1.45
-1.62
-5.30
-8.82
-11.54
-13.19
-13.88
-14.05
-14.25
-14.92
-16.20
-17.80
-19.13
-19.45
-18.21
-15.25
-10.88
-5.88
-1.20
2.32
4.25
4.60
3.81
2.50
1.20
0.22
-0.41
-0.88
-1.36
-1.96
-2.66
-3.34
-3.89
-4.28
-4.52
-4.68
-4.83
-5.01
-5.23
-5.45
-5.64
-5.78
-5.92
-6.11
-6.43
-6.94
-7.63
-8.41
-9.10
-9.54
-9.64
-9.48
-9.29
-9.40
-10.15
-11.71
-13.93
-16.30
-18.06
-18.47
-17.01
-13.61
-8.58
-2.45
3.99
10.01
15.13
19.18
22.14
24.09
25.04
25.00
24.03
22.24
19.89
17.22
14.46
11.70
8.96
6.27
3.76
1.66
0.22
-0.44
-0.46
-0.29
-0.54
-1.73
-4.03
-7.25
-10.95
-14.71
-18.31
-21.83
-25.49
-29.50
-33.88
-38.50
-43.08
-47.28
-50.66
-52.71
-52.81
-50.46
-45.47
-38.10
-29.02
-19.11
-9.16
0.28
8.96
16.85
23.93
30.16
35.41
39.53
42.45
44.16
44.74
44.39
43.32
41.75
39.78
37.45
34.72
31.59
28.20
24.82
21.74
19.16
17.03
15.11
13.04
10.58
7.69
4.55
1.43
-1.50
-4.25
-7.06
-10.28
-14.20
-18.93
-24.30
-29.86
-34.89
-38.55
-40.02
-38.79
-34.81
-28.55
-20.86
-12.64
-4.58
2.98
9.99
16.41
22.07
26.59
29.65
31.16
31.42
31.02
30.57
30.48
30.78
31.20
31.35
30.92
29.82
28.13
26.12
24.06
22.16
20.61
19.47
18.70
18.11
17.39
16.08
13.73
10.08
5.14
-0.71
-6.87
-12.81
-18.24
-23.31
-28.35
-33.66
-39.13
-44.11
-47.55
-48.43
-46.15
-40.82
-33.23
-24.47
-15.63
-7.40
-0.08
6.33
11.88
16.54
20.20
22.73
24.14
24.57
24.24
23.38
22.13
20.52
18.52
16.15
13.49
10.77
8.23
6.11
4.48
3.21
1.99
0.46
-1.65
-4.40
-7.58
-10.78
-13.58
-15.65
-16.94
-17.71
-18.41
-19.61
-21.70
-24.79
-28.55
-32.25
-34.91
-35.58
-33.67
-29.11
-22.35
-14.28
-5.83
2.18
9.21
14.99
19.38
22.37
24.06
24.69
24.64
24.29
23.91
23.54
23.00
22.04
20.50
18.51
16.35
14.42
12.93
11.90
11.11
10.27
9.16
7.70
5.93
3.91
1.68
-0.81
-3.56
-6.55
-9.72
-13.07
-16.69
-20.76
-25.27
-29.91
-33.97
-36.46
-36.54
-33.76
-28.40
-21.28
-13.45
-5.88
0.82
6.41
10.91
14.42
17.02
18.83
20.02
20.75
21.23
21.54
21.72
21.69
21.33
20.60
19.51
18.23
16.99
16.00
15.38
15.03
14.67
13.89
12.37
9.98
6.90
3.57
0.47
-2.09
-4.12
-5.95
-8.08
-11.03
-15.10
-20.26
-26.09
-31.84
-36.49
-39.03
-38.72
-35.30
-29.18
-21.28
-12.74
-4.60
2.47
8.26
12.82
16.28
18.71
20.14
20.61
20.34
19.60
18.70
17.81
16.93
15.94
14.72
13.25
11.68
10.24
9.14
8.51
8.33
8.44
8.60
8.58
8.14
7.14
5.58
3.56
1.27
-1.08
-3.43
-5.85
-8.53
-11.69
-15.51
-20.02
-25.13
-30.56
-35.85
-40.30
-43.13
-43.64
-41.44
-36.67
-29.92
-22.08
-14.03
-6.42
0.41
6.30
11.19
15.02
17.72
19.32
19.98
19.97
19.58
19.03
18.41
17.71
16.88
15.84
14.61
13.23
11.85
10.62
9.68
9.07
8.70
8.34
7.67
6.44
4.55
2.11
-0.60
-3.25
-5.67
-7.84
-9.93
-12.17
-14.75
-17.78
-21.30
-25.26
-29.48
-33.54
-36.77
-38.40
-37.73
-34.50
-28.93
-21.74
-13.79
-5.87
1.51
8.13
13.87
18.65
22.27
24.61
25.65
25.59
24.82
23.70
22.50
21.30
20.06
18.73
17.34
15.99
14.86
14.02
13.43
12.94
12.34
11.44
10.12
8.29
5.92
3.02
-0.31
-3.87
-7.39
-10.64
-13.55
-16.33
-19.37
-23.14
-27.87
-33.35
-38.84
-43.24
-45.40
-44.58
-40.66
-34.17
-26.06
-17.32
-8.70
-0.65
6.63
12.99
18.29
22.37
25.19
26.88
27.69
27.90
27.68
27.09
26.12
24.77
23.07
21.14
19.07
16.99
15.02
13.29
11.92
10.95
10.23
9.48
8.33
6.50
3.94
0.83
-2.49
-5.63
-8.38
-10.71
-12.79
-14.92
-17.49
-20.85
-25.23
-30.54
-36.30
-41.58
-45.23
-46.17
-43.84
-38.34
-30.45
-21.27
-11.86
-3.01
4.96
11.96
18.04
23.13
27.08
29.71
30.97
31.00
30.14
28.80
27.28
25.73
24.10
22.30
20.25
18.05
15.84
13.82
12.11
10.63
9.25
7.76
6.04
4.05
1.82
-0.57
-3.00
-5.39
-7.68
-9.85
-11.95
-14.07
-16.35
-18.98
-22.16
-26.13
-31.01
-36.75
-42.94
-48.76
-53.09
-54.78
-53.01
-47.64
-39.22
-28.89
-17.94
-7.44
1.94
9.99
16.72
22.26
26.66
29.98
32.30
33.75
34.50
34.67
34.30
33.33
31.69
29.39
26.51
23.29
19.99
16.94
14.41
12.58
11.43
10.82
10.41
9.83
8.74
6.93
4.41
1.35
-1.92
-5.05
-7.77
-9.99
-11.82
-13.56
-15.60
-18.29
-21.84
-26.18
-30.89
-35.22
-38.25
-39.05
-37.04
-32.16
-24.90
-16.22
-7.17
1.38
8.89
15.22
20.45
24.69
27.96
30.23
31.43
31.62
30.97
29.71
28.06
26.18
24.07
21.67
18.96
16.00
12.98
10.15
7.74
5.81
4.24
2.78
1.19
-0.66
-2.71
-4.82
-6.85
-8.71
-10.45
-12.15
-13.84
-15.55
-17.28
-19.18
-21.51
-24.58
-28.56
-33.20
-37.82
-41.32
-42.62
-40.97
-36.29
-29.16
-20.62
-11.81
-3.63
3.47
9.39
14.23
18.11
21.08
23.17
24.45
25.10
25.35
25.41
25.39
25.24
24.85
24.06
22.81
21.19
19.41
17.74
16.40
15.49
14.90
14.38
13.57
12.15
9.97
7.05
3.66
0.14
-3.18
-6.12
-8.66
-10.93
-13.15
-15.59
-18.53
-22.24
-26.84
-32.16
-37.63
-42.23
-44.75
-44.21
-40.18
-33.04
-23.80
-13.79
-4.21
4.18
11.10
16.61
20.91
24.16
26.48
27.90
28.50
28.39
27.76
26.78
25.61
24.34
22.97
21.42
19.63
17.62
15.54
13.61
12.08
11.04
10.45
10.06
9.53
8.58
7.01
4.81
2.10
-0.94
-4.07
-7.11
-9.97
-12.65
-15.24
-17.94
-20.94
-24.45
-28.52
-33.02
-37.52
-41.32
-43.52
-43.33
-40.27
-34.39
-26.33
-17.09
-7.72
0.89
8.24
14.16
18.67
21.87
23.84
24.66
24.50
23.63
22.45
21.30
20.41
19.74
19.05
18.05
16.58
14.74
12.86
11.34
10.42
10.00
9.70
8.99
7.49
5.11
2.10
-1.16
-4.29
-7.14
-9.76
-12.34
-15.09
-18.24
-21.92
-26.13
-30.66
-34.98
-38.29
-39.68
-38.46
-34.41
-27.88
-19.69
-10.83
-2.19
5.66
12.45
18.09
22.51
25.64
27.44
27.99
27.54
26.50
25.23
24.04
22.95
21.83
20.42
18.56
16.25
13.73
11.34
9.41
8.08
7.22
6.48
5.49
3.95
1.83
-0.69
-3.33
-5.88
-8.24
-10.51
-12.92
-15.72
-19.20
-23.53
-28.68
-34.23
-39.37
-42.94
-43.87
-41.46
-35.77
-27.58
-18.07
-8.48
0.33
7.99
14.42
19.68
23.77
26.61
28.17
28.54
28.00
26.92
25.65
24.41
23.24
22.03
20.58
18.76
16.60
14.31
12.22
10.58
9.50
8.83
8.24
7.33
5.80
3.61
0.91
-2.02
-4.88
-7.52
-9.93
-12.24
-14.70
-17.57
-21.14
-25.58
-30.83
-36.42
-41.48
-44.87
-45.51
-42.79
-36.79
-28.30
-18.52
-8.69
0.30
8.03
14.43
19.61
23.65
26.58
28.39
29.16
29.09
28.49
27.66
26.83
26.06
25.26
24.30
23.03
21.44
19.64
17.83
16.21
14.84
13.64
12.40
10.88
8.93
6.48
3.58
0.34
-3.16
-6.77
-10.37
-13.86
-17.16
-20.35
-23.62
-27.25
-31.52
-36.51
-41.94
-47.12
-51.03
-52.57
-50.98
-46.05
-38.24
-28.54
-18.11
-7.93
1.36
9.44
16.21
21.55
25.39
27.69
28.62
28.50
27.77
26.81
25.83
24.85
23.75
22.41
20.83
19.10
17.40
15.95
14.87
14.16
13.68
13.15
12.32
10.97
9.02
6.54
3.72
0.81
-1.99
-4.57
-6.99
-9.43
-12.14
-15.37
-19.32
-24.04
-29.37
-34.84
-39.68
-42.93
-43.68
-41.37
-36.01
-28.23
-19.05
-9.58
-0.66
7.24
14.00
19.66
24.24
27.66
29.85
30.81
30.70
29.84
28.59
27.24
25.90
24.55
23.09
21.41
19.51
17.55
15.74
14.29
13.25
12.49
11.72
10.56
8.75
6.19
3.03
-0.43
-3.88
-7.09
-10.01
-12.74
-15.56
-18.83
-22.87
-27.82
-33.44
-39.00
-43.40
-45.43
-44.23
-39.62
-32.14
-22.88
-13.02
-3.51
5.17
12.87
19.56
25.17
29.53
32.52
34.16
34.69
34.44
33.79
32.97
32.06
31.03
29.80
28.31
26.56
24.65
22.72
20.96
19.49
18.38
17.51
16.62
15.40
13.62
11.19
8.21
4.95
1.66
-1.43
-4.24
-6.77
-9.19
-11.75
-14.87
-19.07
-24.75
-31.97
-40.19
-48.21
-54.48
-57.54
-56.58
-51.72
-43.96
-34.77
-25.51
-17.10
-9.74
-3.30
2.42
7.37
11.25
13.62
14.12
12.54
8.83
3.17
-4.16
-12.71
-21.87
-30.78
-38.56
-44.47
-48.21
-49.96
-50.06
-48.83
-46.39
-42.63
-37.35
-30.64
-23.21
-16.39
-11.80
-10.32
-12.08
-16.56
-22.88
-30.06
-37.26
-44.06
-50.34
-56.16
-60.45
-62.05
-60.29
-55.37
-47.93
-38.41
-26.73
-12.40
5.06
27.10
54.01
83.96
113.34
138.34
156.73
168.32
174.44
177.01
179.62
185.13
194.44
206.56
219.78
232.87
245.30
256.84
254.61
230.45
185.02
127.85
70.56
20.48
-20.15
-51.87
-75.86
-92.54
-102.31
-105.20
-102.34
-96.27
-89.79
-84.69
-81.54
-80.31
-80.58
-80.87
-80.02
-77.98
-75.83
-74.72
-75.05
-76.28
-77.47
-77.64
-75.31
-69.36
-59.78
-47.74
-34.83
-22.40
-11.22
-1.62
6.31
12.89
18.54
23.33
27.02
29.38
30.43
30.43
29.74
28.57
27.18
25.77
24.48
23.34
22.37
21.57
20.92
20.27
19.43
18.20
16.50
14.44
12.22
10.08
8.17
6.44
4.66
2.46
-0.51
-4.44
-9.28
-14.63
-19.80
-23.98
-26.41
-26.60
-24.51
-20.55
-15.52
-10.37
-5.99
-2.90
-1.25
-0.76
-0.90
-1.07
-0.82
0.04
1.37
2.81
3.92
4.38
4.12
3.29
2.17
0.98
-0.22
-1.55
-3.29
-5.76
-9.18
-13.66
-19.12
-25.31
-31.81
-38.19
-44.08
-49.29
-53.83
-57.89
-61.70
-65.45
-69.16
-72.70
-75.71
-77.69
-78.14
-76.70
-73.34
-68.37
-62.33
-55.72
-48.74
-41.26
-32.95
-23.48
-12.78
-1.03
11.37
23.89
35.95
46.94
56.32
63.80
69.51
73.94
77.83
81.79
86.11
90.68
95.09
98.88
101.66
103.21
103.58
103.01
101.97
101.00
100.50
100.53
100.72
100.37
98.72
95.08
89.07
80.71
70.51
59.46
48.94
40.42
34.97
32.98
33.95
36.75
40.01
42.55
43.53
42.48
39.08
33.16
24.78
14.32
2.59
-9.36
-20.55
-30.34
-38.53
-45.28
-50.86
-55.47
-59.06
-61.47
-62.57
-62.40
-61.24
-59.59
-58.02
-57.00
-56.79
-57.40
-58.62
-60.10
-61.47
-62.46
-62.96
-63.08
-63.07
-63.25
-63.86
-64.99
-66.59
-68.40
-70.09
-71.21
-71.37
-70.28
-67.87
-64.30
-59.95
-55.30
-50.77
-46.69
-43.17
-40.23
-37.74
-35.55
-33.42
-31.10
-28.35
-25.07
-21.31
-17.37
-13.68
-10.65
-8.47
-6.99
-5.77
-4.25
-2.08
0.66
3.37
5.15
5.13
2.91
-1.20
-6.18
-10.64
-13.31
-13.44
-11.04
-6.78
-1.74
2.90
6.16
7.34
6.14
2.63
-2.64
-8.82
-14.86
-19.84
-23.27
-25.17
-26.01
-26.43
-26.95
-27.85
-29.17
-30.82
-32.68
-34.62
-36.43
-37.82
-38.48
-38.24
-37.12
-35.38
-33.45
-31.75
-30.60
-30.10
-30.12
-30.36
-30.42
-29.89
-28.45
-25.84
-21.92
-16.62
-10.00
-2.28
6.16
14.83
23.19
30.85
37.58
43.32
48.00
51.52
53.65
54.19
53.21
51.07
48.40
45.84
43.82
42.35
41.09
39.48
36.99
33.21
27.94
21.17
13.08
4.04
-5.44
-14.68
-23.07
-30.09
-35.52
-39.38
-41.98
-43.78
-45.31
-47.08
-49.44
-52.50
-56.07
-59.65
-62.60
-64.25
-64.11
-61.96
-57.85
-52.04
-44.85
-36.62
-27.66
-18.35
-9.09
-0.37
7.33
13.71
18.65
22.33
25.03
27.07
28.62
29.73
30.37
30.56
30.36
29.96
29.53
29.21
29.02
28.92
28.84
28.69
28.37
27.73
26.58
24.67
21.81
17.93
13.18
7.87
2.35
-3.09
-8.34
-13.43
-18.36
-22.96
-26.82
-29.36
-30.19
-29.28
-27.14
-24.61
-22.56
-21.57
-21.70
-22.71
-24.30
-26.46
-29.54
-34.02
-40.22
-48.14
-57.42
-67.56
-78.10
-88.58
-98.53
-107.22
-113.80
-117.55
-118.31
-116.54
-113.17
-108.94
-103.93
-97.35
-87.97
-74.86
-58.05
-38.85
-19.61
-3.02
8.60
14.08
13.76
9.56
4.54
2.11
5.01
14.45
29.71
48.48
67.73
84.76
97.96
106.92
112.03
113.96
113.25
110.28
105.48
99.44
92.94
86.65
80.92
75.67
70.51
65.04
59.14
53.05
47.29
42.33
38.42
35.43
32.92
30.31
27.08
22.87
17.58
11.28
4.10
-3.85
-12.50
-21.69
-31.00
-39.53
-45.98
-48.87
-47.04
-40.11
-28.72
-14.37
1.01
15.69
28.51
39.02
47.29
53.56
58.02
60.72
61.63
60.83
58.57
55.34
51.71
48.18
45.00
42.17
39.43
36.43
32.88
28.71
24.10
19.36
14.84
10.73
7.00
3.41
-0.35
-4.62
-9.63
-15.51
-22.25
-29.57
-36.81
-42.89
-46.45
-46.21
-41.44
-32.26
-19.65
-5.13
9.66
23.45
35.51
45.51
53.42
59.24
62.97
64.74
64.82
63.63
61.67
59.32
56.73
53.87
50.61
46.87
42.71
38.43
34.36
30.83
27.91
25.43
22.98
20.12
16.53
12.17
7.33
2.42
-2.14
-6.14
-9.63
-12.93
-16.49
-20.80
-26.25
-32.94
-40.56
-48.20
-54.45
-57.70
-56.61
-50.56
-39.95
-26.08
-10.75
4.29
17.75
28.97
37.86
44.59
49.45
52.66
54.47
55.11
54.85
53.97
52.69
51.12
49.26
47.06
44.50
41.67
38.74
35.98
33.63
31.82
30.52
29.52
28.47
27.02
24.93
22.17
18.93
15.57
12.39
9.57
7.03
4.52
1.72
-1.56
-5.32
-9.37
-13.45
-17.32
-20.88
-24.16
-27.31
-30.50
-33.93
-37.80
-42.35
-47.69
-53.61
-59.34
-63.65
-65.09
-62.51
-55.51
-44.63
-31.22
-16.96
-3.33
8.64
18.52
26.27
32.04
36.00
38.37
39.35
39.20
38.23
36.71
34.87
32.86
30.72
28.48
26.14
23.80
21.56
19.56
17.81
16.28
14.84
13.36
11.77
10.03
8.12
6.00
3.56
0.71
-2.55
-6.12
-9.76
-13.23
-16.37
-19.13
-21.60
-23.98
-26.50
-29.42
-32.97
-37.27
-42.13
-47.01
-50.97
-52.87
-51.70
-46.97
-38.92
-28.46
-16.91
-5.57
4.59
13.08
19.82
24.94
28.64
31.12
32.53
33.02
32.73
31.87
30.59
29.07
27.42
25.72
24.01
22.32
20.68
19.09
17.58
16.12
14.69
13.24
11.72
10.09
8.41
6.73
5.11
3.53
1.88
-0.00
-2.31
-5.09
-8.27
-11.65
-15.01
-18.22
-21.34
-24.56
-28.14
-32.29
-37.07
-42.29
-47.48
-51.86
-54.47
-54.33
-50.84
-43.97
-34.39
-23.28
-11.97
-1.61
7.13
14.04
19.20
22.83
25.19
26.53
27.16
27.37
27.37
27.21
26.75
25.84
24.35
22.37
20.15
18.00
16.21
14.91
14.03
13.38
12.65
11.61
10.12
8.22
6.08
3.94
2.00
0.29
-1.33
-3.10
-5.23
-7.76
-10.56
-13.38
-16.01
-18.36
-20.54
-22.78
-25.32
-28.38
-32.07
-36.39
-41.13
-45.79
-49.57
-51.43
-50.42
-45.98
-38.24
-28.03
-16.63
-5.40
4.62
12.87
19.23
23.82
26.85
28.57
29.22
29.09
28.40
27.33
25.94
24.23
22.21
19.98
17.74
15.68
13.96
12.59
11.46
10.40
9.21
7.77
6.01
3.95
1.68
-0.70
-3.06
-5.34
-7.57
-9.79
-12.08
-14.45
-16.86
-19.20
-21.37
-23.35
-25.21
-27.13
-29.40
-32.26
-35.87
-40.12
-44.50
-48.17
-50.02
-49.04
-44.67
-37.04
-26.99
-15.84
-4.94
4.71
12.63
18.80
23.42
26.72
28.83
29.81
29.77
28.95
27.65
26.13
24.54
22.83
20.87
18.49
15.69
12.64
9.68
7.15
5.30
4.16
3.50
2.95
2.07
0.57
-1.66
-4.47
-7.59
-10.71
-13.63
-16.34
-18.97
-21.81
-25.14
-29.15
-33.89
-39.14
-44.37
-48.67
-50.96
-50.23
-45.89
-38.07
-27.69
-16.17
-4.97
4.78
12.61
18.61
23.17
26.61
29.10
30.63
31.16
30.79
29.79
28.50
27.22
26.02
24.77
23.21
21.12
18.47
15.53
12.76
10.59
9.24
8.56
8.06
7.15
5.32
2.42
-1.34
-5.47
-9.42
-12.83
-15.58
-17.87
-20.04
-22.50
-25.58
-29.48
-34.25
-39.67
-45.14
-49.66
-52.01
-51.02
-46.08
-37.38
-26.03
-13.66
-1.94
7.96
15.57
21.09
25.08
28.09
30.46
32.29
33.52
34.13
34.14
33.70
32.95
31.97
30.73
29.10
26.98
24.38
21.50
18.66
16.18
14.25
12.85
11.75
10.63
9.17
7.15
4.51
1.32
-2.22
-5.88
-9.41
-12.68
-15.68
-18.54
-21.54
-24.98
-29.17
-34.28
-40.30
-46.85
-53.11
-57.92
-59.95
-58.16
-52.17
-42.43
-30.15
-16.91
-4.16
7.11
16.49
24.01
29.88
34.33
37.50
39.53
40.57
40.83
40.51
39.74
38.55
36.91
34.81
32.32
29.64
27.07
24.88
23.22
22.06
21.14
20.13
18.72
16.74
14.23
11.38
8.48
5.70
3.08
0.49
-2.31
-5.51
-9.20
-13.29
-17.50
-21.53
-25.12
-28.21
-30.96
-33.76
-37.06
-41.25
-46.42
-52.22
-57.71
-61.56
-62.34
-59.02
-51.35
-40.06
-26.61
-12.77
-0.01
10.81
19.51
26.32
31.59
35.54
38.28
39.90
40.56
40.54
40.09
39.38
38.38
36.97
35.03
32.55
29.71
26.79
24.12
21.98
20.49
19.57
18.97
18.30
17.22
15.54
13.27
10.63
7.93
5.38
3.01
0.64
-1.97
-5.03
-8.52
-12.26
-15.92
-19.24
-22.12
-24.69
-27.24
-30.15
-33.79
-38.39
-43.94
-50.06
-55.95
-60.41
-62.10
-59.90
-53.34
-42.85
-29.66
-15.49
-2.01
9.53
18.57
25.12
29.58
32.44
34.13
34.95
35.08
34.71
33.97
32.94
31.68
30.13
28.21
25.87
23.16
20.31
17.64
15.48
13.96
12.97
12.19
11.27
9.96
8.25
6.27
4.14
1.88
-0.66
-3.60
-6.94
-10.50
-13.97
-17.10
-19.89
-22.55
-25.49
-29.10
-33.61
-39.01
-44.94
-50.67
-55.12
-57.07
-55.45
-49.75
-40.24
-28.04
-14.77
-2.07
8.89
17.59
24.14
28.92
32.33
34.59
35.78
35.93
35.19
33.85
32.19
30.48
28.78
27.04
25.13
22.95
20.54
18.08
15.76
13.77
12.16
10.84
9.57
8.05
6.00
3.29
-0.05
-3.78
-7.58
-11.16
-14.39
-17.36
-20.38
-23.87
-28.25
-33.78
-40.45
-47.83
-55.02
-60.73
-63.48
-62.06
-56.00
-45.74
-32.60
-18.38
-4.79
7.00
16.49
23.74
29.08
32.86
35.34
36.69
37.13
36.92
36.33
35.56
34.68
33.67
32.39
30.72
28.58
25.98
23.09
20.15
17.46
15.19
13.37
11.74
9.96
7.65
4.63
1.00
-2.95
-6.85
-10.39
-13.51
-16.36
-19.21
-22.45
-26.39
-31.30
-37.26
-44.03
-50.92
-56.78
-60.17
-59.79
-54.97
-46.00
-34.08
-20.97
-8.33
2.75
11.92
19.39
25.55
30.66
34.68
37.45
38.86
39.04
38.33
37.14
35.81
34.47
33.10
31.52
29.59
27.25
24.61
21.89
19.37
17.21
15.48
14.02
12.56
10.80
8.50
5.57
2.06
-1.81
-5.82
-9.71
-13.34
-16.71
-19.92
-23.25
-27.03
-31.55
-36.98
-43.16
-49.50
-54.93
-58.15
-57.91
-53.49
-44.98
-33.32
-20.04
-6.78
5.19
15.20
23.17
29.34
34.03
37.48
39.79
41.07
41.47
41.24
40.58
39.60
38.27
36.49
34.20
31.50
28.65
26.01
23.84
22.24
21.04
19.94
18.62
16.90
14.77
12.38
9.87
7.32
4.67
1.78
-1.47
-5.12
-9.06
-13.13
-17.10
-20.84
-24.31
-27.62
-31.03
-34.87
-39.50
-45.07
-51.32
-57.42
-62.03
-63.57
-60.80
-53.29
-41.68
-27.54
-12.87
0.53
11.58
20.04
26.28
30.89
34.34
36.82
38.31
38.78
38.38
37.38
36.12
34.77
33.28
31.39
28.78
25.34
21.23
16.91
12.96
9.82
7.64
6.18
4.97
3.47
1.30
-1.64
-5.21
-9.07
-12.90
-16.46
-19.70
-22.74
-25.83
-29.25
-33.30
-38.19
-43.90
-50.00
-55.58
-59.31
-59.82
-56.11
-48.03
-36.39
-22.79
-9.02
3.44
13.77
21.89
28.08
32.73
36.05
38.09
38.90
38.65
37.65
36.30
34.86
33.37
31.68
29.55
26.86
23.68
20.28
17.08
14.46
12.63
11.56
10.98
10.42
9.40
7.54
4.70
1.04
-3.06
-7.11
-10.68
-13.60
-15.99
-18.24
-20.86
-24.37
-29.10
-35.13
-42.05
-48.94
-54.42
-56.96
-55.33
-49.12
-38.92
-26.19
-12.79
-0.33
10.21
18.59
25.12
30.24
34.29
37.29
39.06
39.37
38.17
35.76
32.71
29.68
27.13
25.11
23.32
21.39
19.17
16.89
14.99
13.82
13.30
12.94
12.05
10.13
7.10
3.27
-0.85
-4.80
-8.35
-11.46
-14.21
-16.72
-19.14
-21.63
-24.34
-27.48
-31.22
-35.64
-40.61
-45.66
-49.88
-52.07
-51.10
-46.32
-37.85
-26.67
-14.26
-2.17
8.47
17.12
23.73
28.56
31.90
33.95
34.93
35.07
34.66
34.02
33.32
32.55
31.53
29.96
27.61
24.45
20.67
16.68
12.96
9.80
7.25
5.08
2.88
0.31
-2.77
-6.20
-9.67
-12.82
-15.48
-17.65
-19.61
-21.73
-24.39
-27.91
-32.46
-37.98
-44.01
-49.67
-53.76
-55.02
-52.60
-46.34
-36.85
-25.37
-13.27
-1.72
8.57
17.28
24.34
29.70
33.34
35.31
35.86
35.42
34.51
33.51
32.57
31.54
30.11
27.98
25.12
21.76
18.37
15.42
13.19
11.61
10.30
8.74
6.51
3.48
-0.15
-4.00
-7.62
-10.78
-13.53
-16.14
-19.07
-22.82
-27.78
-34.00
-41.06
-47.91
-53.07
-54.96
-52.48
-45.42
-34.64
-21.70
-8.35
4.03
14.69
23.46
30.47
35.83
39.58
41.73
42.38
41.85
40.56
38.93
37.25
35.61
33.89
31.92
29.51
26.62
23.38
20.08
17.09
14.69
12.95
11.66
10.44
8.88
6.71
3.87
0.51
-3.13
-6.82
-10.40
-13.90
-17.45
-21.27
-25.61
-30.67
-36.52
-43.01
-49.62
-55.40
-59.13
-59.50
-55.65
-47.43
-35.64
-21.77
-7.56
5.50
16.52
25.24
31.86
36.70
40.02
42.02
42.83
42.69
41.84
40.53
38.89
37.01
34.90
32.61
30.20
27.81
25.55
23.54
21.79
20.23
18.73
17.10
15.18
12.86
10.12
7.02
3.64
0.07
-3.60
-7.32
-11.02
-14.57
-17.84
-20.73
-23.22
-25.48
-27.85
-30.79
-34.68
-39.65
-45.30
-50.66
-54.37
-55.04
-51.75
-44.42
-33.83
-21.36
-8.54
3.35
13.54
21.71
27.89
32.24
34.95
36.25
36.40
35.69
34.41
32.81
31.05
29.19
27.20
24.96
22.36
19.36
16.05
12.72
9.72
7.38
5.83
4.94
4.36
3.64
2.41
0.50
-1.97
-4.68
-7.25
-9.42
-11.17
-12.72
-14.45
-16.76
-19.85
-23.78
-28.45
-33.62
-38.88
-43.52
-46.54
-46.89
-43.74
-36.88
-26.92
-15.17
-3.21
7.55
16.28
22.76
27.29
30.34
32.33
33.51
33.96
33.70
32.76
31.26
29.37
27.30
25.22
23.21
21.26
19.32
17.37
15.45
13.65
12.08
10.78
9.69
8.65
7.47
6.00
4.16
1.93
-0.62
-3.39
-6.25
-9.07
-11.72
-14.18
-16.51
-18.86
-21.44
-24.46
-28.07
-32.30
-36.97
-41.59
-45.37
-47.30
-46.40
-42.11
-34.54
-24.51
-13.38
-2.58
6.78
14.14
19.46
23.09
25.43
26.86
27.63
27.87
27.69
27.15
26.27
25.09
23.62
21.94
20.13
18.30
16.56
14.97
13.59
12.35
11.19
9.96
8.57
6.98
5.30
3.67
2.27
1.14
0.15
-0.94
-2.44
-4.51
-7.15
-10.15
-13.19
-15.99
-18.45
-20.70
-23.05
-25.88
-29.46
-33.77
-38.38
-42.43
-44.86
-44.69
-41.39
-35.03
-26.34
-16.44
-6.50
2.53
10.12
16.06
20.42
23.37
25.13
25.96
26.11
25.84
25.31
24.53
23.45
21.98
20.10
17.91
15.61
13.45
11.60
10.11
8.94
7.93
6.96
5.93
4.80
3.56
2.22
0.72
-0.97
-2.89
-5.06
-7.41
-9.87
-12.35
-14.78
-17.11
-19.31
-21.44
-23.59
-25.93
-28.60
-31.63
-34.76
-37.42
-38.80
-38.09
-34.79
-28.90
-21.01
-12.04
-3.06
5.10
11.96
17.35
21.34
24.01
25.47
25.82
25.24
23.98
22.39
20.78
19.35
18.14
17.03
15.81
14.32
12.49
10.43
8.37
6.58
5.23
4.31
3.64
2.91
1.90
0.44
-1.45
-3.66
-6.02
-8.37
-10.60
-12.66
-14.57
-16.41
-18.39
-20.75
-23.77
-27.57
-32.00
-36.50
-40.17
-41.98
-41.08
-37.13
-30.47
-21.94
-12.69
-3.74
4.20
10.85
16.17
20.26
23.19
25.04
25.93
26.07
25.74
25.15
24.41
23.50
22.35
20.92
19.23
17.39
15.58
13.93
12.52
11.34
10.29
9.27
8.17
6.94
5.56
4.02
2.32
0.39
-1.78
-4.20
-6.80
-9.49
-12.17
-14.73
-17.14
-19.41
-21.58
-23.78
-26.20
-29.06
-32.48
-36.29
-39.93
-42.47
-42.84
-40.23
-34.43
-26.01
-16.11
-6.09
2.92
10.34
16.10
20.43
23.64
25.90
27.28
27.84
27.70
27.08
26.18
25.08
23.76
22.15
20.20
17.98
15.76
13.82
12.39
11.53
11.09
10.81
10.42
9.74
8.76
7.62
6.43
5.23
3.88
2.12
-0.26
-3.30
-6.80
-10.36
-13.61
-16.33
-18.55
-20.55
-22.71
-25.39
-28.83
-32.98
-37.47
-41.55
-44.20
-44.38
-41.38
-35.09
-26.12
-15.66
-5.09
4.42
12.23
18.18
22.41
25.20
26.71
27.14
26.70
25.73
24.59
23.56
22.71
21.87
20.75
19.13
16.93
14.37
11.79
9.61
8.05
7.17
6.73
6.37
5.69
4.41
2.44
-0.09
-2.90
-5.71
-8.31
-10.69
-12.95
-15.30
-17.97
-21.20
-25.13
-29.73
-34.70
-39.33
-42.65
-43.64
-41.55
-36.25
-28.28
-18.70
-8.70
0.70
8.89
15.68
21.11
25.31
28.40
30.47
31.60
31.94
31.65
30.94
29.96
28.80
27.49
26.03
24.41
22.67
20.90
19.20
17.66
16.27
14.95
13.56
11.99
10.21
8.25
6.19
4.06
1.80
-0.71
-3.56
-6.73
-10.08
-13.38
-16.44
-19.22
-21.86
-24.64
-27.91
-31.89
-36.57
-41.57
-46.13
-49.21
-49.71
-46.89
-40.60
-31.45
-20.57
-9.33
1.16
10.19
17.56
23.34
27.66
30.64
32.39
33.10
33.06
32.60
31.97
31.26
30.38
29.20
27.63
25.74
23.74
21.89
20.38
19.22
18.26
17.28
16.08
14.61
12.95
11.26
9.63
7.97
6.08
3.71
0.74
-2.77
-6.58
-10.36
-13.84
-16.89
-19.59
-22.14
-24.78
-27.79
-31.37
-35.65
-40.50
-45.47
-49.68
-52.01
-51.34
-46.99
-39.02
-28.30
-16.20
-4.23
6.42
15.11
21.72
26.44
29.60
31.49
32.40
32.64
32.48
32.12
31.65
31.01
30.09
28.83
27.22
25.37
23.42
21.53
19.81
18.29
16.90
15.51
13.96
12.16
10.13
8.02
6.01
4.20
2.54
0.82
-1.24
-3.82
-6.91
-10.32
-13.78
-17.07
-20.12
-23.01
-25.95
-29.22
-33.08
-37.63
-42.64
-47.45
-50.99
-52.01
-49.52
-43.21
-33.60
-21.96
-9.87
1.28
10.58
17.75
22.94
26.54
28.89
30.26
30.79
30.62
29.86
28.66
27.16
25.53
23.88
22.24
20.58
18.83
16.99
15.12
13.37
11.84
10.58
9.48
8.33
6.92
5.14
2.96
0.48
-2.22
-5.05
-7.97
-10.91
-13.78
-16.50
-19.06
-21.54
-24.13
-27.12
-30.79
-35.22
-40.15
-44.88
-48.34
-49.34
-46.98
-41.00
-31.92
-20.87
-9.28
1.66
11.15
18.89
24.92
29.37
32.38
34.10
34.71
34.46
33.64
32.49
31.13
29.59
27.85
25.92
23.88
21.85
19.89
18.04
16.28
14.57
12.90
11.26
9.70
8.21
6.75
5.24
3.57
1.59
-0.82
-3.69
-6.96
-10.44
-13.90
-17.15
-20.09
-22.84
-25.64
-28.85
-32.76
-37.49
-42.77
-47.88
-51.74
-53.11
-51.03
-45.14
-35.87
-24.33
-11.99
-0.22
9.99
18.23
24.46
28.93
31.94
33.79
34.73
35.05
34.95
34.56
33.89
32.84
31.32
29.29
26.85
24.24
21.74
19.61
17.96
16.75
15.78
14.84
13.73
12.35
10.68
8.78
6.67
4.32
1.70
-1.26
-4.50
-7.93
-11.36
-14.62
-17.62
-20.42
-23.21
-26.27
-29.90
-34.33
-39.59
-45.41
-51.05
-55.39
-57.10
-55.08
-48.85
-38.85
-26.35
-13.06
-0.64
9.84
17.98
23.98
28.30
31.37
33.48
34.80
35.49
35.73
35.69
35.43
34.93
33.99
32.48
30.37
27.87
25.34
23.16
21.59
20.65
20.13
19.63
18.76
17.24
15.01
12.25
9.32
6.53
4.08
1.88
-0.37
-2.99
-6.21
-9.95
-13.90
-17.70
-21.07
-24.02
-26.78
-29.79
-33.47
-38.14
-43.84
-50.21
-56.41
-61.19
-63.15
-61.15
-54.78
-44.57
-31.87
-18.41
-5.73
5.20
14.08
21.03
26.34
30.17
32.56
33.59
33.45
32.52
31.22
29.87
28.58
27.27
25.76
23.93
21.79
19.51
17.29
15.31
13.65
12.27
11.07
9.89
8.54
6.84
4.63
1.83
-1.50
-5.14
-8.81
-12.21
-15.21
-17.91
-20.62
-23.71
-27.51
-32.15
-37.54
-43.27
-48.59
-52.46
-53.74
-51.50
-45.38
-35.79
-23.90
-11.29
0.54
10.57
18.45
24.39
28.86
32.26
34.80
36.53
37.41
37.53
37.01
36.10
34.95
33.65
32.15
30.34
28.15
25.62
22.94
20.35
18.07
16.21
14.67
13.24
11.58
9.44
6.64
3.15
-0.89
-5.26
-9.67
-13.87
-17.71
-21.18
-24.41
-27.70
-31.36
-35.73
-41.03
-47.14
-53.51
-59.07
-62.41
-62.19
-57.56
-48.62
-36.37
-22.45
-8.54
4.03
14.60
23.07
29.67
34.67
38.29
40.73
42.14
42.72
42.64
41.99
40.77
38.96
36.60
33.81
30.79
27.81
25.07
22.68
20.63
18.86
17.24
15.64
13.99
12.19
10.15
7.79
5.01
1.80
-1.81
-5.63
-9.48
-13.18
-16.69
-20.10
-23.60
-27.46
-31.91
-37.09
-42.95
-49.13
-54.86
-59.01
-60.30
-57.69
-50.78
-40.11
-27.02
-13.26
-0.47
10.28
18.68
24.96
29.59
33.00
35.40
36.86
37.47
37.41
36.95
36.32
35.58
34.64
33.31
31.46
29.14
26.65
24.39
22.71
21.71
21.15
20.59
19.52
17.62
14.94
11.79
8.67
5.97
3.82
2.00
0.11
-2.32
-5.53
-9.49
-13.88
-18.30
-22.40
-26.00
-29.13
-32.02
-35.02
-38.52
-42.87
-48.17
-54.08
-59.72
-63.69
-64.48
-60.96
-52.86
-40.94
-26.79
-12.31
0.90
11.90
20.49
26.96
31.74
35.17
37.40
38.51
38.62
37.96
36.80
35.36
33.78
32.06
30.19
28.18
26.06
23.92
21.79
19.73
17.79
16.02
14.50
13.20
11.96
10.48
8.42
5.53
1.82
-2.49
-7.01
-11.39
-15.41
-19.02
-22.36
-25.66
-29.21
-33.31
-38.24
-44.12
-50.67
-57.07
-61.93
-63.66
-60.96
-53.42
-41.75
-27.60
-13.00
0.33
11.41
20.08
26.67
31.65
35.32
37.81
39.20
39.66
39.48
38.95
38.21
37.23
35.86
33.97
31.57
28.88
26.20
23.80
21.78
20.03
18.33
16.51
14.51
12.41
10.34
8.27
6.06
3.41
0.14
-3.74
-7.92
-12.01
-15.67
-18.88
-21.87
-25.02
-28.73
-33.27
-38.74
-45.07
-51.92
-58.53
-63.64
-65.73
-63.40
-56.07
-44.27
-29.62
-14.27
-0.16
11.54
20.55
27.22
32.06
35.40
37.40
38.16
37.91
37.03
35.92
34.82
33.71
32.45
30.84
28.88
26.75
24.79
23.30
22.45
22.13
21.97
21.51
20.35
18.32
15.57
12.44
9.33
6.45
3.80
1.18
-1.72
-5.06
-8.87
-12.93
-16.99
-20.82
-24.35
-27.67
-30.98
-34.52
-38.53
-43.18
-48.48
-54.13
-59.40
-63.17
-64.12
-61.22
-54.11
-43.36
-30.31
-16.59
-3.70
7.45
16.49
23.51
28.72
32.33
34.53
35.58
35.81
35.57
35.14
34.60
33.86
32.76
31.20
29.24
27.09
25.03
23.25
21.79
20.50
19.15
17.57
15.70
13.65
11.54
9.41
7.16
4.62
1.61
-1.84
-5.59
-9.35
-12.91
-16.18
-19.26
-22.38
-25.72
-29.48
-33.79
-38.73
-44.23
-49.88
-54.85
-57.88
-57.70
-53.44
-45.11
-33.63
-20.56
-7.58
4.04
13.67
21.22
26.96
31.19
34.14
36.05
37.18
37.80
38.14
38.27
38.06
37.28
35.75
33.48
30.72
27.87
25.35
23.42
22.10
21.17
20.31
19.21
17.71
15.83
13.74
11.60
9.48
7.30
4.84
1.86
-1.77
-5.99
-10.52
-15.00
-19.08
-22.62
-25.72
-28.69
-31.91
-35.74
-40.42
-45.90
-51.77
-57.17
-60.89
-61.62
-58.44
-51.17
-40.45
-27.63
-14.27
-1.72
9.19
18.15
25.20
30.52
34.29
36.75
38.20
38.96
39.36
39.57
39.59
39.28
38.49
37.16
35.37
33.36
31.36
29.61
28.17
27.02
26.03
25.03
23.95
22.75
21.42
19.96
18.28
16.31
13.99
11.35
8.53
5.75
3.18
0.87
-1.32
-3.62
-6.31
-9.54
-13.26
-17.26
-21.24
-24.95
-28.30
-31.32
-34.20
-37.16
-40.51
-44.53
-49.42
-55.09
-60.94
-65.81
-68.20
-66.69
-60.56
-50.12
-36.63
-21.94
-7.80
4.54
14.52
22.16
27.70
31.46
33.75
34.91
35.36
35.50
35.58
35.69
35.66
35.28
34.38
32.93
31.08
29.05
27.13
25.50
24.26
23.41
22.84
22.42
21.96
21.30
20.30
18.85
16.93
14.57
11.91
9.12
6.37
3.75
1.26
-1.21
-3.81
-6.67
-9.85
-13.30
-16.90
-20.48
-23.86
-26.93
-29.70
-32.38
-35.30
-38.92
-43.54
-49.21
-55.43
-61.22
-65.21
-65.99
-62.57
-54.71
-43.09
-29.13
-14.57
-1.02
10.49
19.58
26.39
31.35
34.85
37.19
38.51
38.96
38.75
38.14
37.36
36.54
35.68
34.64
33.25
31.49
29.44
27.37
25.56
24.20
23.27
22.57
21.75
20.53
18.77
16.52
13.99
11.40
8.92
6.61
4.40
2.16
-0.26
-2.98
-6.07
-9.49
-13.11
-16.73
-20.18
-23.37
-26.33
-29.22
-32.24
-35.64
-39.62
-44.29
-49.57
-55.04
-59.92
-63.10
-63.42
-60.04
-52.77
-42.15
-29.35
-15.82
-2.91
8.42
17.69
24.78
29.85
33.16
35.04
35.82
35.86
35.46
34.83
34.11
33.27
32.25
30.97
29.39
27.56
25.59
23.64
21.82
20.16
18.58
16.97
15.19
13.23
11.14
8.99
6.82
4.53
1.92
-1.23
-4.96
-9.12
-13.38
-17.37
-20.90
-24.04
-27.11
-30.58
-34.85
-40.12
-46.25
-52.69
-58.49
-62.37
-63.06
-59.60
-51.78
-40.23
-26.36
-11.92
1.51
12.87
21.73
28.18
32.53
35.20
36.59
37.07
37.01
36.68
36.25
35.70
34.92
33.79
32.24
30.30
28.06
25.68
23.30
21.04
18.96
17.08
15.30
13.50
11.55
9.40
7.07
4.61
2.06
-0.62
-3.52
-6.72
-10.22
-13.94
-17.74
-21.52
-25.24
-29.00
-33.00
-37.50
-42.74
-48.70
-54.98
-60.64
-64.30
-64.46
-60.07
-50.95
-38.03
-23.06
-8.08
5.26
16.12
24.43
30.63
35.23
38.55
40.69
41.69
41.70
40.96
39.81
38.43
36.89
35.09
32.96
30.52
27.93
25.43
23.20
21.32
19.70
18.16
16.52
14.63
12.43
9.93
7.13
4.05
0.73
-2.80
-6.48
-10.22
-13.94
-17.57
-21.10
-24.60
-28.23
-32.23
-36.86
-42.28
-48.36
-54.51
-59.67
-62.52
-61.83
-56.96
-48.07
-36.15
-22.69
-9.24
2.97
13.28
21.46
27.60
31.84
34.38
35.43
35.34
34.54
33.46
32.35
31.26
30.00
28.36
26.23
23.67
20.96
18.39
16.17
14.37
12.87
11.46
9.88
7.88
5.28
2.06
-1.67
-5.62
-9.45
-12.90
-15.90
-18.69
-21.68
-25.36
-30.07
-35.85
-42.33
-48.76
-54.08
-57.14
-56.91
-52.79
-44.81
-33.69
-20.72
-7.40
4.88
15.24
23.33
29.28
33.48
36.33
38.13
39.09
39.30
38.89
37.99
36.71
35.16
33.38
31.36
29.09
26.54
23.77
20.89
18.10
15.62
13.57
11.94
10.52
8.98
6.97
4.24
0.73
-3.37
-7.76
-12.06
-16.06
-19.71
-23.21
-26.91
-31.18
-36.28
-42.25
-48.75
-55.06
-60.07
-62.52
-61.32
-55.92
-46.58
-34.31
-20.64
-7.10
5.10
15.32
23.42
29.54
33.91
36.78
38.33
38.82
38.52
37.75
36.74
35.64
34.44
33.04
31.30
29.14
26.59
23.85
21.16
18.77
16.78
15.13
13.56
11.75
9.39
6.34
2.64
-1.45
-5.63
-9.58
-13.16
-16.43
-19.68
-23.29
-27.64
-33.00
-39.36
-46.37
-53.19
-58.58
-61.14
-59.65
-53.62
-43.46
-30.51
-16.54
-3.26
8.18
17.33
24.27
29.32
32.77
34.86
35.80
35.94
35.65
35.24
34.79
34.17
33.08
31.33
28.87
25.94
22.87
20.00
17.52
15.40
13.44
11.36
8.92
5.99
2.60
-1.06
-4.77
-8.35
-11.73
-14.98
-18.33
-22.06
-26.47
-31.74
-37.78
-44.09
-49.73
-53.44
-53.96
-50.49
-42.99
-32.25
-19.68
-6.89
4.80
14.60
22.28
28.02
32.14
34.92
36.60
37.32
37.21
36.43
35.08
33.28
31.10
28.58
25.78
22.79
19.74
16.77
13.96
11.33
8.78
6.17
3.37
0.37
-2.77
-5.89
-8.89
-11.77
-14.75
-18.14
-22.33
-27.55
-33.78
-40.60
-47.10
-52.02
-53.95
-51.81
-45.21
-34.72
-21.79
-8.25
4.19
14.42
22.12
27.55
31.23
33.63
35.02
35.52
35.29
34.50
33.40
32.10
30.59
28.72
26.35
23.47
20.28
17.11
14.31
12.04
10.23
8.57
6.64
4.14
0.95
-2.77
-6.68
-10.40
-13.68
-16.55
-19.32
-22.51
-26.66
-32.08
-38.61
-45.54
-51.66
-55.47
-55.66
-51.46
-42.97
-31.18
-17.70
-4.25
7.80
17.72
25.42
31.19
35.42
38.36
40.07
40.58
40.05
38.76
37.08
35.36
33.72
32.12
30.45
28.59
26.54
24.38
22.24
20.18
18.21
16.32
14.43
12.47
10.37
8.02
5.31
2.16
-1.43
-5.33
-9.37
-13.36
-17.21
-20.92
-24.60
-28.41
-32.59
-37.36
-42.93
-49.21
-55.71
-61.42
-64.97
-65.00
-60.64
-51.90
-39.65
-25.47
-11.09
2.02
12.99
21.54
27.82
32.15
34.88
36.29
36.63
36.13
35.07
33.75
32.35
30.95
29.49
27.80
25.73
23.28
20.59
17.95
15.64
13.83
12.46
11.19
9.59
7.23
3.93
-0.18
-4.72
-9.23
-13.34
-16.98
-20.31
-23.73
-27.65
-32.43
-38.19
-44.74
-51.48
-57.42
-61.34
-62.06
-58.78
-51.38
-40.50
-27.39
-13.55
-0.37
11.15
20.54
27.76
33.05
36.77
39.23
40.68
41.27
41.13
40.39
39.21
37.77
36.22
34.64
32.98
31.16
29.11
26.84
24.48
22.15
19.99
17.96
15.92
13.66
10.99
7.79
4.05
-0.18
-4.72
-9.39
-14.00
-18.38
-22.50
-26.47
-30.54
-35.06
-40.34
-46.52
-53.41
-60.39
-66.35
-69.91
-69.74
-64.99
-55.62
-42.54
-27.35
-11.89
2.27
14.16
23.44
30.27
35.08
38.30
40.31
41.43
41.91
41.93
41.58
40.87
39.76
38.22
36.31
34.17
31.98
29.91
28.08
26.48
25.03
23.57
21.94
19.93
17.50
14.70
11.71
8.75
5.91
3.07
-0.04
-3.71
-8.07
-12.96
-18.02
-22.85
-27.22
-31.22
-35.20
-39.66
-44.94
-51.09
-57.65
-63.66
-67.86
-68.93
-65.91
-58.57
-47.46
-33.83
-19.28
-5.25
7.23
17.64
25.91
32.14
36.58
39.47
41.13
41.92
42.16
42.07
41.69
40.97
39.80
38.12
36.04
33.75
31.49
29.44
27.66
26.07
24.52
22.78
20.72
18.27
15.50
12.55
9.55
6.59
3.64
0.59
-2.72
-6.39
-10.42
-14.71
-19.10
-23.38
-27.42
-31.19
-34.84
-38.64
-42.94
-48.01
-53.80
-59.83
-65.14
-68.41
-68.37
-64.23
-55.96
-44.30
-30.60
-16.34
-2.77
9.24
19.25
27.12
32.89
36.74
38.97
39.98
40.17
39.88
39.25
38.31
37.02
35.38
33.46
31.40
29.32
27.32
25.49
23.81
22.25
20.74
19.18
17.46
15.50
13.26
10.72
7.92
4.84
1.50
-2.11
-5.99
-10.09
-14.35
-18.67
-22.99
-27.25
-31.51
-35.92
-40.70
-46.01
-51.70
-57.25
-61.65
-63.73
-62.46
-57.32
-48.54
-37.03
-24.04
-10.83
1.62
12.69
22.07
29.60
35.19
38.89
40.84
41.40
41.01
40.12
39.05
37.91
36.68
35.26
33.58
31.65
29.53
27.34
25.12
22.88
20.60
18.24
15.75
13.13
10.35
7.36
4.12
0.58
-3.26
-7.36
-11.63
-15.96
-20.24
-24.41
-28.49
-32.55
-36.78
-41.38
-46.58
-52.46
-58.86
-65.21
-70.53
-73.57
-73.09
-68.34
-59.27
-46.72
-32.12
-17.05
-2.86
9.65
20.18
28.77
35.52
40.53
43.87
45.75
46.50
46.51
46.14
45.53
44.67
43.45
41.78
39.70
37.39
35.07
32.93
31.13
29.69
28.50
27.34
25.90
23.92
21.29
18.14
14.75
11.40
8.21
5.06
1.66
-2.27
-6.80
-11.75
-16.75
-21.44
-25.63
-29.41
-33.08
-37.03
-41.60
-46.97
-53.08
-59.54
-65.63
-70.32
-72.43
-70.96
-65.37
-55.86
-43.30
-29.04
-14.57
-1.10
10.63
20.33
28.07
34.09
38.58
41.73
43.69
44.64
44.82
44.50
43.88
43.08
42.04
40.65
38.84
36.65
34.31
32.13
30.38
29.12
28.19
27.27
26.01
24.19
21.75
18.83
15.65
12.48
9.48
6.70
4.02
1.19
-2.05
-5.91
-10.41
-15.35
-20.42
-25.30
-29.79
-33.91
-37.85
-41.89
-46.35
-51.42
-57.08
-62.97
-68.36
-72.16
-73.21
-70.60
-64.00
-53.83
-41.13
-27.25
-13.44
-0.58
10.84
20.60
28.61
34.79
39.15
41.79
42.98
43.14
42.66
41.83
40.79
39.56
38.09
36.32
34.30
32.13
30.00
28.10
26.58
25.45
24.61
23.82
22.83
21.44
19.62
17.44
15.06
12.58
10.03
7.28
4.19
0.62
-3.46
-7.96
-12.65
-17.29
-21.67
-25.71
-29.49
-33.24
-37.27
-41.89
-47.23
-53.12
-58.98
-63.89
-66.71
-66.43
-62.45
-54.83
-44.28
-31.95
-19.10
-6.81
4.20
13.59
21.26
27.26
31.71
34.78
36.67
37.61
37.81
37.44
36.62
35.42
33.88
32.06
30.04
27.92
25.82
23.83
22.03
20.37
18.70
16.86
14.68
12.11
9.14
5.81
2.15
-1.85
-6.15
-10.63
-15.09
-19.37
-23.46
-27.56
-32.05
-37.33
-43.58
-50.65
-57.93
-64.43
-68.98
-70.48
-68.16
-61.82
-51.96
-39.58
-25.99
-12.49
-0.09
10.63
19.48
26.55
32.03
36.15
39.09
41.04
42.14
42.57
42.47
41.93
41.02
39.81
38.32
36.69
35.01
33.40
31.87
30.33
28.63
26.66
24.38
21.87
19.27
16.63
13.88
10.84
7.32
3.23
-1.33
-6.11
-10.86
-15.37
-19.60
-23.69
-27.82
-32.29
-37.34
-43.18
-49.79
-56.82
-63.47
-68.57
-70.81
-69.13
-63.09
-53.03
-40.02
-25.56
-11.17
1.94
13.06
21.94
28.74
33.78
37.44
40.05
41.86
43.00
43.60
43.76
43.52
42.95
42.07
40.91
39.52
37.98
36.40
34.93
33.63
32.51
31.45
30.23
28.63
26.49
23.78
20.68
17.42
14.28
11.37
8.62
5.78
2.53
-1.35
-5.87
-10.85
-15.96
-20.86
-25.33
-29.35
-33.06
-36.77
-40.83
-45.58
-51.21
-57.65
-64.44
-70.63
-74.97
-76.06
-72.89
-65.10
-53.26
-38.69
-23.12
-8.21
4.89
15.64
24.09
30.56
35.44
39.03
41.57
43.21
44.11
44.48
44.50
44.32
44.02
43.57
42.92
42.00
40.81
39.40
37.86
36.31
34.84
33.52
32.31
31.14
29.84
28.25
26.22
23.70
20.73
17.44
14.03
10.66
7.40
4.17
0.85
-2.67
-6.46
-10.47
-14.64
-18.85
-23.02
-27.11
-31.11
-35.07
-39.09
-43.40
-48.27
-53.87
-60.08
-66.27
-71.34
-73.90
-72.78
-67.38
-57.93
-45.47
-31.49
-17.45
-4.44
6.97
16.63
24.60
30.99
35.86
39.31
41.52
42.75
43.28
43.34
43.03
42.37
41.34
39.96
38.35
36.68
35.12
33.78
32.65
31.66
30.66
29.51
28.09
26.33
24.15
21.54
18.53
15.25
11.86
8.55
5.40
2.36
-0.75
-4.18
-8.07
-12.38
-16.86
-21.19
-25.10
-28.52
-31.57
-34.52
-37.70
-41.39
-45.78
-50.91
-56.58
-62.24
-66.94
-69.51
-68.84
-64.30
-55.96
-44.65
-31.69
-18.48
-6.14
4.69
13.77
21.14
26.92
31.28
34.39
36.48
37.81
38.61
39.03
39.09
38.72
37.85
36.47
34.70
32.80
31.05
29.63
28.54
27.56
26.36
24.63
22.25
19.32
16.07
12.78
9.56
6.37
3.03
-0.70
-4.97
-9.82
-15.13
-20.69
-26.18
-31.36
-36.07
-40.37
-44.54
-49.00
-54.14
-60.16
-66.78
-73.20
-78.16
-80.19
-78.13
-71.44
-60.50
-46.46
-30.90
-15.41
-1.20
11.05
21.10
28.98
34.87
39.03
41.81
43.57
44.69
45.42
45.82
45.85
45.36
44.31
42.73
40.80
38.74
36.75
34.99
33.50
32.21
30.98
29.59
27.84
25.58
22.84
19.74
16.49
13.25
10.05
6.76
3.15
-1.00
-5.75
-10.94
-16.25
-21.33
-25.95
-30.14
-34.20
-38.57
-43.70
-49.83
-56.78
-63.90
-70.04
-73.81
-73.92
-69.61
-60.90
-48.65
-34.36
-19.68
-5.98
5.92
15.76
23.64
29.87
34.68
38.30
40.90
42.67
43.80
44.44
44.62
44.27
43.27
41.62
39.46
37.08
34.84
33.04
31.77
30.93
30.23
29.31
27.83
25.59
22.63
19.14
15.43
11.76
8.27
4.94
1.57
-2.02
-5.96
-10.24
-14.73
-19.23
-23.60
-27.78
-31.83
-35.97
-40.48
-45.66
-51.64
-58.22
-64.68
-69.89
-72.55
-71.58
-66.51
-57.62
-45.89
-32.67
-19.27
-6.70
4.45
13.92
21.64
27.66
32.08
35.10
37.00
38.08
38.62
38.76
38.50
37.78
36.56
34.89
32.98
31.07
29.39
27.94
26.59
25.08
23.21
20.89
18.22
15.40
12.61
9.89
7.12
4.10
0.67
-3.18
-7.27
-11.33
-15.17
-18.74
-22.24
-26.03
-30.50
-35.95
-42.45
-49.74
-57.18
-63.74
-68.20
-69.31
-66.26
-58.90
-47.89
-34.51
-20.32
-6.71
5.35
15.47
23.63
30.01
34.85
38.38
40.84
42.50
43.61
44.36
44.83
44.98
44.70
43.91
42.59
40.84
38.84
36.82
35.03
33.60
32.51
31.51
30.26
28.39
25.73
22.40
18.72
15.12
11.84
8.87
5.92
2.59
-1.45
-6.26
-11.64
-17.17
-22.47
-27.28
-31.61
-35.73
-40.10
-45.22
-51.45
-58.74
-66.54
-73.77
-78.98
-80.74
-78.02
-70.55
-58.93
-44.44
-28.74
-13.38
0.46
12.17
21.64
29.08
34.81
39.11
42.21
44.27
45.52
46.17
46.42
46.35
45.96
45.15
43.85
42.13
40.19
38.34
36.82
35.76
35.08
34.53
33.75
32.40
30.29
27.40
23.94
20.24
16.67
13.43
10.45
7.44
3.98
-0.25
-5.29
-10.91
-16.64
-22.02
-26.76
-30.81
-34.35
-37.76
-41.44
-45.84
-51.21
-57.55
-64.36
-70.67
-75.11
-76.26
-73.11
-65.40
-53.77
-39.60
-24.58
-10.25
2.35
12.80
21.16
27.77
33.00
37.15
40.35
42.67
44.08
44.54
44.08
42.77
40.78
38.38
35.89
33.58
31.65
30.12
28.82
27.50
25.85
23.69
20.99
17.86
14.48
11.03
7.57
4.05
0.36
-3.62
-7.94
-12.56
-17.37
-22.27
-27.21
-32.23
-37.47
-43.16
-49.49
-56.49
-63.76
-70.42
-75.12
-76.38
-73.12
-65.01
-52.69
-37.56
-21.41
-5.86
7.96
19.48
28.61
35.55
40.56
43.95
46.06
47.22
47.72
47.74
47.35
46.53
45.23
43.50
41.50
39.46
37.61
36.12
35.01
34.14
33.27
32.10
30.41
28.11
25.24
21.89
18.13
13.94
9.27
4.09
-1.56
-7.51
-13.51
-19.36
-24.97
-30.41
-35.88
-41.69
-48.13
-55.34
-63.21
-71.16
-78.12
-82.64
-83.21
-78.77
-69.11
-55.02
-38.14
-20.49
-3.93
10.25
21.51
29.92
35.93
40.09
42.88
44.67
45.71
46.20
46.23
45.86
45.05
43.69
41.71
39.09
35.93
32.46
28.98
25.74
22.92
20.53
18.48
16.59
14.67
12.50
9.85
6.58
2.64
-1.85
-6.65
-11.46
-16.07
-20.43
-24.71
-29.17
-34.12
-39.78
-46.18
-53.10
-60.00
-65.93
-69.67
-70.01
-66.10
-57.83
-45.97
-31.97
-17.57
-4.23
7.19
16.52
24.01
30.04
34.84
38.46
40.84
42.02
42.21
41.76
41.00
40.10
39.01
37.56
35.58
33.06
30.20
27.30
24.62
22.30
20.28
18.31
16.09
13.31
9.78
5.48
0.56
-4.68
-9.90
-14.85
-19.45
-23.84
-28.27
-33.05
-38.44
-44.64
-51.64
-59.23
-66.76
-73.12
-76.90
-76.69
-71.64
-61.79
-48.23
-32.71
-17.10
-2.85
9.35
19.45
27.73
34.46
39.76
43.61
46.04
47.25
47.58
47.38
46.85
46.02
44.80
43.06
40.83
38.24
35.52
32.86
30.36
27.97
25.59
23.09
20.36
17.30
13.84
9.98
5.73
1.19
-3.54
-8.36
-13.21
-18.11
-23.09
-28.25
-33.69
-39.55
-46.01
-53.10
-60.56
-67.69
-73.28
-75.89
-74.27
-67.81
-56.78
-42.37
-26.28
-10.34
4.01
15.93
25.20
32.04
36.91
40.28
42.59
44.18
45.27
45.99
46.35
46.25
45.58
44.28
42.40
40.13
37.74
35.47
33.43
31.56
29.65
27.48
24.88
21.87
18.55
15.08
11.53
7.85
3.87
-0.53
-5.35
-10.44
-15.56
-20.51
-25.23
-29.86
-34.68
-40.00
-46.09
-53.02
-60.55
-68.01
-74.25
-77.82
-77.36
-72.03
-61.89
-48.00
-32.03
-15.80
-0.77
12.21
22.83
31.15
37.41
41.88
44.90
46.87
48.14
48.95
49.34
49.18
48.28
46.54
44.06
41.09
37.99
35.05
32.46
30.21
28.21
26.27
24.23
21.99
19.47
16.62
13.38
9.67
5.43
0.67
-4.50
-9.85
-15.14
-20.18
-24.90
-29.41
-33.96
-38.91
-44.60
-51.21
-58.57
-66.00
-72.33
-76.04
-75.74
-70.58
-60.66
-47.04
-31.43
-15.68
-1.25
10.99
20.80
28.31
33.79
37.53
39.74
40.71
40.75
40.20
39.30
38.20
36.84
35.10
32.82
29.95
26.59
23.04
19.69
16.91
14.83
13.25
11.74
9.76
6.90
3.04
-1.61
-6.62
-11.50
-15.92
-19.85
-23.53
-27.41
-32.00
-37.73
-44.73
-52.70
-60.79
-67.60
-71.51
-71.06
-65.45
-54.87
-40.56
-24.45
-8.56
5.55
17.12
26.13
33.06
38.41
42.56
45.61
47.59
48.54
48.60
47.99
46.91
45.51
43.80
41.77
39.40
36.74
33.91
31.08
28.36
25.81
23.38
20.95
18.36
15.43
12.00
7.99
3.40
-1.61
-6.81
-11.94
-16.78
-21.29
-25.60
-29.99
-34.80
-40.38
-46.94
-54.47
-62.58
-70.36
-76.41
-79.12
-77.11
-69.77
-57.53
-41.82
-24.64
-7.95
6.82
19.04
28.68
36.08
41.59
45.51
48.08
49.53
50.15
50.20
49.84
49.09
47.84
46.00
43.59
40.75
37.73
34.78
32.03
29.45
26.95
24.40
21.70
18.86
15.87
12.74
9.40
5.75
1.69
-2.80
-7.67
-12.76
-17.90
-22.91
-27.71
-32.34
-36.92
-41.68
-46.94
-52.97
-59.86
-67.26
-74.21
-79.17
-80.36
-76.36
-66.70
-52.13
-34.48
-16.07
1.04
15.51
26.89
35.40
41.50
45.66
48.21
49.46
49.72
49.37
48.72
47.90
46.83
45.31
43.13
40.28
36.95
33.53
30.42
27.90
25.96
24.35
22.66
20.59
18.02
15.04
11.88
8.72
5.57
2.28
-1.42
-5.73
-10.67
-16.03
-21.44
-26.53
-31.12
-35.25
-39.27
-43.70
-49.02
-55.47
-62.82
-70.21
-76.28
-79.39
-78.15
-71.82
-60.67
-45.94
-29.44
-13.05
1.80
14.36
24.46
32.28
38.06
42.01
44.28
45.14
44.93
44.10
42.98
41.76
40.42
38.79
36.72
34.16
31.20
28.06
25.01
22.26
19.94
18.01
16.23
14.29
11.80
8.47
4.23
-0.75
-6.13
-11.51
-16.61
-21.39
-25.99
-30.71
-35.94
-41.95
-48.90
-56.62
-64.51
-71.41
-75.82
-76.18
-71.45
-61.51
-47.35
-30.76
-13.79
1.81
14.99
25.43
33.30
39.04
43.06
45.73
47.33
48.12
48.27
47.93
47.16
45.95
44.29
42.17
39.59
36.64
33.42
30.13
26.97
24.08
21.50
19.09
16.60
13.72
10.26
6.15
1.49
-3.47
-8.45
-13.21
-17.61
-21.70
-25.65
-29.78
-34.41
-39.87
-46.36
-53.87
-62.00
-69.87
-76.11
-79.16
-77.62
-70.81
-59.02
-43.51
-26.16
-8.94
6.58
19.53
29.67
37.23
42.66
46.42
48.89
50.36
51.05
51.12
50.71
49.89
48.63
46.84
44.37
41.21
37.52
33.74
30.37
27.77
26.02
24.82
23.68
22.13
19.91
16.99
13.50
9.58
5.32
0.81
-3.84
-8.54
-13.25
-18.07
-23.31
-29.36
-36.56
-45.09
-54.82
-65.21
-75.20
-83.30
-87.83
-87.34
-81.14
-69.60
-54.09
-36.57
-18.99
-2.80
11.21
22.84
32.11
39.11
43.95
46.78
47.94
47.88
47.02
45.65
43.80
41.37
38.24
34.41
30.10
25.70
21.68
18.42
16.07
14.51
13.36
12.09
10.21
7.43
3.71
-0.73
-5.58
-10.51
-15.30
-19.85
-24.26
-28.73
-33.60
-39.24
-45.93
-53.62
-61.74
-69.12
-74.11
-75.09
-70.94
-61.56
-47.93
-31.81
-15.20
0.25
13.58
24.53
33.23
39.88
44.65
47.64
49.06
49.26
48.75
47.95
47.08
46.06
44.63
42.46
39.39
35.48
31.05
26.58
22.52
19.19
16.66
14.67
12.67
10.02
6.14
0.84
-5.66
-12.74
-19.65
-25.79
-30.95
-35.42
-39.81
-44.88
-51.26
-59.23
-68.48
-78.04
-86.27
-91.21
-91.08
-84.84
-72.70
-56.06
-37.16
-18.36
-1.46
12.59
23.64
32.04
38.22
42.53
45.19
46.44
46.57
45.90
44.68
43.01
40.84
38.07
34.70
30.82
26.65
22.37
18.13
14.03
10.13
6.51
3.22
0.25
-2.46
-4.95
-7.16
-8.87
-9.81
-9.87
-9.22
-8.41
-8.15
-9.12
-11.75
-16.18
-22.29
-29.72
-37.78
-45.37
-51.02
-53.21
-50.85
-43.78
-32.89
-19.78
-6.25
6.34
17.27
26.38
33.81
39.65
43.90
46.53
47.66
47.62
46.81
45.62
44.29
42.86
41.22
39.28
36.97
34.31
31.43
28.49
25.68
23.13
20.88
18.81
16.70
14.23
11.11
7.14
2.29
-3.26
-9.20
-15.13
-20.70
-25.68
-30.03
-33.86
-37.45
-41.17
-45.45
-50.54
-56.33
-62.14
-66.70
-68.43
-65.87
-58.33
-46.18
-30.84
-14.30
1.48
15.16
26.23
34.87
41.54
46.63
50.32
52.60
53.46
53.00
51.49
49.26
46.55
43.47
40.00
36.02
31.51
26.62
21.68
17.13
13.36
10.54
8.59
7.12
5.59
3.49
0.48
-3.45
-8.03
-12.80
-17.31
-21.27
-24.68
-27.78
-31.01
-34.89
-39.83
-46.09
-53.50
-61.36
-68.35
-72.69
-72.65
-67.14
-56.21
-41.14
-24.05
-7.22
7.60
19.54
28.55
35.06
39.59
42.51
44.15
44.82
44.92
44.88
44.97
45.19
45.30
44.95
43.87
42.03
39.72
37.42
35.62
34.58
34.19
34.01
33.41
31.85
29.13
25.46
21.35
17.37
13.87
10.76
7.65
4.01
-0.49
-5.85
-11.75
-17.79
-23.72
-29.43
-34.92
-40.18
-45.16
-49.91
-54.71
-59.97
-65.80
-71.64
-75.95
-76.66
-71.99
-61.35
-45.76
-27.54
-9.42
6.48
19.24
29.01
36.48
42.24
46.53
49.34
50.70
50.96
50.70
50.49
50.63
50.96
50.97
50.02
47.71
44.00
39.32
34.40
29.89
26.19
23.22
20.52
17.53
13.84
9.41
4.55
-0.25
-4.48
-7.87
-10.40
-12.31
-14.02
-15.99
-18.57
-21.92
-25.91
-30.19
-34.33
-38.01
-41.14
-43.95
-46.88
-50.43
-55.06
-60.97
-67.96
-75.33
-81.76
-85.57
-85.09
-79.25
-68.01
-52.46
-34.54
-16.40
0.18
14.13
25.13
33.35
39.09
42.66
44.39
44.71
44.18
43.44
42.94
42.88
43.07
43.13
42.62
41.33
39.34
36.97
34.67
32.81
31.56
30.80
30.19
29.30
27.74
25.34
22.18
18.59
14.95
11.57
8.53
5.74
2.97
-0.00
-3.37
-7.18
-11.41
-15.97
-20.71
-25.46
-30.08
-34.47
-38.65
-42.83
-47.37
-52.71
-59.12
-66.42
-73.84
-79.93
-82.93
-81.28
-74.15
-61.88
-45.90
-28.31
-11.22
3.82
16.09
25.55
32.58
37.61
40.96
42.93
43.81
44.00
43.85
43.62
43.32
42.75
41.65
39.89
37.56
34.97
32.52
30.47
28.89
27.55
26.06
24.07
21.39
18.13
14.61
11.27
8.41
6.13
4.25
2.38
0.14
-2.76
-6.39
-10.59
-15.09
-19.56
-23.80
-27.75
-31.55
-35.53
-40.11
-45.65
-52.27
-59.59
-66.59
-71.76
-73.39
-70.17
-61.73
-48.80
-33.12
-16.79
-1.65
11.20
21.47
29.41
35.40
39.73
42.53
43.93
44.24
43.95
43.55
43.32
43.22
42.91
41.98
40.19
37.64
34.75
32.05
29.92
28.42
27.20
25.72
23.53
20.48
16.79
12.95
9.42
6.40
3.77
1.16
-1.83
-5.45
-9.68
-14.28
-18.97
-23.51
-27.86
-32.11
-36.52
-41.38
-46.97
-53.48
-60.87
-68.74
-76.15
-81.73
-83.86
-81.21
-73.15
-60.15
-43.68
-25.83
-8.67
6.33
18.49
27.92
35.08
40.45
44.38
47.01
48.49
49.03
48.93
48.46
47.74
46.74
45.29
43.26
40.70
37.89
35.21
33.04
31.48
30.31
29.05
27.13
24.20
20.26
15.71
11.16
7.17
4.04
1.66
-0.35
-2.56
-5.40
-9.10
-13.57
-18.50
-23.54
-28.38
-32.95
-37.36
-41.95
-47.11
-53.15
-60.08
-67.45
-74.17
-78.76
-79.58
-75.45
-66.02
-52.04
-35.16
-17.49
-0.94
13.20
24.40
32.76
38.71
42.70
45.16
46.42
46.83
46.75
46.46
46.11
45.66
44.89
43.58
41.61
39.09
36.33
33.73
31.59
29.99
28.74
27.45
25.74
23.38
20.35
16.88
13.27
9.81
6.67
3.81
1.02
-1.98
-5.45
-9.50
-14.06
-18.86
-23.58
-28.00
-32.05
-35.91
-39.95
-44.58
-50.14
-56.67
-63.78
-70.49
-75.35
-76.70
-73.23
-64.51
-51.18
-34.94
-17.94
-2.18
11.03
21.22
28.60
33.68
36.99
38.97
39.98
40.38
40.47
40.42
40.24
39.72
38.64
36.86
34.45
31.67
28.88
26.39
24.35
22.68
21.19
19.64
17.85
15.76
13.45
11.00
8.48
5.80
2.80
-0.66
-4.59
-8.90
-13.36
-17.76
-21.99
-26.08
-30.21
-34.65
-39.70
-45.62
-52.40
-59.62
-66.25
-70.83
-71.76
-67.92
-59.09
-46.13
-30.72
-14.80
0.06
12.88
23.39
31.70
38.01
42.49
45.33
46.80
47.28
47.25
47.04
46.76
46.24
45.21
43.44
40.91
37.86
34.69
31.87
29.67
28.11
26.95
25.80
24.24
22.05
19.21
15.93
12.53
9.29
6.35
3.60
0.75
-2.55
-6.58
-11.38
-16.71
-22.16
-27.29
-31.81
-35.70
-39.26
-42.98
-47.42
-53.01
-59.82
-67.37
-74.55
-79.70
-81.07
-77.35
-68.18
-54.41
-37.78
-20.44
-4.23
9.72
21.03
29.85
36.51
41.31
44.47
46.28
47.10
47.36
47.44
47.47
47.39
46.95
45.92
44.18
41.77
38.95
36.09
33.56
31.61
30.28
29.35
28.38
26.97
24.82
21.92
18.52
15.00
11.72
8.81
6.17
3.48
0.37
-3.40
-7.87
-12.82
-17.92
-22.81
-27.24
-31.19
-34.81
-38.38
-42.26
-46.77
-52.24
-58.77
-66.12
-73.46
-79.36
-82.04
-79.92
-72.28
-59.58
-43.44
-26.09
-9.63
4.56
16.05
25.13
32.34
38.15
42.73
46.12
48.35
49.56
50.01
49.92
49.41
48.49
47.08
45.15
42.75
40.06
37.35
34.90
32.90
31.38
30.21
29.15
27.92
26.30
24.19
21.62
18.68
15.53
12.29
9.11
6.02
3.01
-0.10
-3.53
-7.50
-12.11
-17.21
-22.47
-27.46
-31.90
-35.72
-39.14
-42.55
-46.36
-50.97
-56.56
-63.08
-70.09
-76.63
-81.26
-82.36
-78.61
-69.52
-55.74
-38.90
-21.17
-4.51
9.79
21.24
30.02
36.53
41.18
44.26
46.01
46.71
46.69
46.30
45.80
45.29
44.69
43.87
42.70
41.18
39.43
37.66
36.09
34.85
33.89
32.97
31.83
30.21
28.09
25.60
23.04
20.65
18.55
16.65
14.73
12.53
9.87
6.72
3.21
-0.45
-4.05
-7.49
-10.76
-13.97
-17.27
-20.77
-24.48
-28.27
-31.96
-35.38
-38.49
-41.37
-44.28
-47.58
-51.58
-56.51
-62.29
-68.44
-73.96
-77.46
-77.44
-72.79
-63.23
-49.54
-33.36
-16.69
-1.31
11.70
22.02
29.89
35.76
40.04
42.99
44.81
45.75
46.04
45.91
45.44
44.60
43.24
41.28
38.76
35.89
32.98
30.35
28.18
26.45
24.95
23.34
21.35
18.85
15.91
12.77
9.62
6.53
3.36
-0.13
-4.13
-8.68
-13.57
-18.51
-23.22
-27.64
-31.87
-36.17
-40.86
-46.22
-52.44
-59.45
-66.77
-73.39
-77.84
-78.53
-74.28
-64.81
-50.93
-34.40
-17.29
-1.42
12.05
22.73
30.77
36.58
40.59
43.23
44.83
45.74
46.14
46.11
45.58
44.42
42.60
40.24
37.61
34.99
32.63
30.58
28.73
26.91
24.95
22.77
20.41
17.95
15.41
12.73
9.75
6.32
2.37
-2.03
-6.67
-11.24
-15.48
-19.22
-22.47
-25.43
-28.47
-32.06
-36.62
-42.27
-48.58
-54.45
-58.22
-58.14
-52.85
-41.90
-25.89
-6.29
14.99
36.11
55.66
72.79
87.17
98.76
107.61
113.65
116.66
116.29
112.31
104.82
94.36
81.97
68.88
56.22
44.75
34.79
26.28
19.06
12.93
7.77
3.47
-0.16
-3.39
-6.56
-9.98
-13.89
-18.32
-23.14
-28.06
-32.77
-37.06
-40.89
-44.40
-47.79
-51.20
-54.68
-58.20
-61.71
-65.25
-68.89
-72.57
-75.97
-78.41
-79.01
-76.98
-71.88
-63.89
-53.80
-42.70
-31.73
-21.75
-13.22
-6.24
-0.69
3.60
6.80
9.03
10.40
11.08
11.23
11.03
10.63
10.06
9.30
8.33
7.13
5.73
4.29
2.96
1.91
1.20
0.73
0.27
-0.52
-1.91
-4.05
-6.89
-10.20
-13.65
-16.99
-20.10
-23.00
-25.89
-29.04
-32.73
-37.11
-42.10
-47.26
-51.81
-54.72
-55.00
-52.04
-45.76
-36.76
-26.10
-15.01
-4.59
4.47
11.88
17.71
22.19
25.53
27.89
29.31
29.83
29.56
28.67
27.40
25.92
24.35
22.67
20.86
18.87
16.76
14.61
12.50
10.49
8.61
6.81
5.02
3.10
0.91
-1.73
-4.94
-8.77
-13.11
-17.71
-22.26
-26.49
-30.35
-34.00
-37.85
-42.44
-48.28
-55.59
-64.14
-73.05
-80.88
-85.90
-86.55
-81.93
-72.13
-58.18
-41.78
-24.74
-8.60
5.69
17.68
27.36
34.91
40.59
44.72
47.65
49.77
51.38
52.64
53.51
53.84
53.41
52.13
50.13
47.74
45.45
43.65
42.50
41.80
41.12
39.95
37.96
35.17
31.87
28.46
25.21
22.14
18.97
15.40
11.17
6.30
0.99
-4.45
-9.80
-15.00
-20.16
-25.52
-31.36
-37.94
-45.42
-53.70
-62.21
-69.79
-74.88
-75.86
-71.68
-62.25
-48.64
-32.69
-16.47
-1.62
10.99
21.20
29.30
35.64
40.43
43.72
45.55
46.06
45.52
44.22
42.43
40.29
37.88
35.27
32.59
30.01
27.71
25.79
24.27
23.03
21.94
20.79
19.39
17.58
15.21
12.17
8.47
4.21
-0.40
-5.11
-9.71
-14.09
-18.31
-22.57
-27.18
-32.44
-38.60
-45.78
-53.79
-62.09
-69.67
-75.17
-77.22
-74.78
-67.61
-56.32
-42.25
-27.05
-12.22
1.16
12.58
21.94
29.37
35.16
39.62
43.05
45.73
47.78
49.21
49.92
49.82
48.90
47.32
45.35
43.34
41.57
40.23
39.29
38.58
37.80
36.65
34.94
32.60
29.75
26.57
23.24
19.81
16.27
12.48
8.32
3.74
-1.21
-6.37
-11.53
-16.57
-21.42
-26.24
-31.29
-36.98
-43.64
-51.28
-59.37
-66.74
-71.82
-73.05
-69.50
-61.15
-48.97
-34.56
-19.59
-5.34
7.47
18.58
27.99
35.71
41.77
46.25
49.32
51.31
52.50
53.10
53.19
52.70
51.54
49.67
47.14
44.17
41.08
38.26
36.03
34.49
33.51
32.68
31.53
29.69
27.03
23.75
20.20
16.73
13.51
10.47
7.37
3.91
-0.10
-4.67
-9.64
-14.74
-19.70
-24.33
-28.59
-32.62
-36.72
-41.31
-46.78
-53.28
-60.53
-67.65
-73.29
-75.88
-74.20
-67.77
-57.10
-43.51
-28.70
-14.23
-1.17
10.01
19.23
26.63
32.39
36.65
39.59
41.43
42.43
42.79
42.62
41.93
40.68
38.91
36.73
34.37
32.09
30.07
28.36
26.89
25.46
23.89
22.05
19.93
17.59
15.11
12.52
9.75
6.71
3.26
-0.63
-4.89
-9.33
-13.73
-17.86
-21.65
-25.21
-28.83
-32.96
-37.97
-44.04
-50.92
-57.81
-63.47
-66.48
-65.66
-60.46
-51.19
-38.90
-25.08
-11.21
1.61
12.74
21.98
29.35
34.96
38.96
41.53
42.94
43.53
43.59
43.33
42.80
41.91
40.54
38.64
36.29
33.73
31.28
29.25
27.74
26.64
25.63
24.33
22.46
19.97
17.07
14.11
11.38
9.01
6.83
4.52
1.73
-1.72
-5.78
-10.20
-14.63
-18.84
-22.71
-26.34
-29.95
-33.76
-38.00
-42.84
-48.34
-54.36
-60.36
-65.41
-68.24
-67.65
-62.92
-54.12
-42.21
-28.66
-15.01
-2.42
8.54
17.75
25.35
31.48
36.19
39.47
41.42
42.26
42.31
41.92
41.32
40.58
39.59
38.21
36.36
34.12
31.73
29.52
27.78
26.58
25.80
25.09
24.07
22.45
20.17
17.36
14.32
11.36
8.64
6.15
3.71
1.07
-1.98
-5.50
-9.39
-13.44
-17.40
-21.07
-24.36
-27.31
-30.10
-33.00
-36.33
-40.35
-45.14
-50.46
-55.63
-59.59
-61.16
-59.35
-53.78
-44.82
-33.52
-21.27
-9.37
1.24
10.16
17.37
23.04
27.34
30.35
32.15
32.86
32.68
31.89
30.75
29.42
27.98
26.42
24.72
22.88
20.98
19.13
17.42
15.92
14.65
13.55
12.53
11.45
10.14
8.43
6.18
3.33
-0.07
-3.83
-7.71
-11.45
-14.91
-18.11
-21.20
-24.47
-28.18
-32.56
-37.61
-43.10
-48.43
-52.73
-54.97
-54.26
-50.17
-42.91
-33.35
-22.75
-12.35
-2.99
5.05
11.98
18.12
23.64
28.38
31.93
33.93
34.33
33.49
31.99
30.41
29.08
27.97
26.87
25.59
24.13
22.61
21.22
20.00
18.83
17.51
15.90
14.01
11.94
9.82
7.65
5.34
2.73
-0.23
-3.51
-6.95
-10.40
-13.80
-17.23
-20.87
-24.93
-29.56
-34.72
-40.11
-45.13
-48.90
-50.47
-49.07
-44.37
-36.70
-26.95
-16.37
-6.14
2.89
10.35
16.26
20.84
24.32
26.88
28.58
29.54
29.89
29.81
29.45
28.90
28.10
26.91
25.18
22.87
20.11
17.19
14.43
12.09
10.21
8.66
7.11
5.18
2.66
-0.46
-3.94
-7.41
-10.54
-13.18
-15.42
-17.56
-19.96
-22.95
-26.73
-31.31
-36.41
-41.44
-45.53
-47.67
-47.00
-43.13
-36.28
-27.27
-17.24
-7.28
1.81
9.65
16.10
21.17
24.86
27.19
28.28
28.36
27.78
26.88
25.90
24.89
23.71
22.17
20.10
17.54
14.70
11.94
9.55
7.69
6.22
4.81
3.06
0.73
-2.20
-5.50
-8.82
-11.86
-14.52
-16.92
-19.36
-22.18
-25.68
-30.01
-34.98
-40.07
-44.40
-46.96
-46.83
-43.51
-37.10
-28.26
-18.04
-7.58
2.14
10.52
17.28
22.44
26.18
28.79
30.51
31.56
32.07
32.10
31.61
30.53
28.83
26.50
23.66
20.55
17.45
14.64
12.27
10.35
8.67
6.96
4.96
2.51
-0.37
-3.55
-6.86
-10.12
-13.24
-16.21
-19.22
-22.55
-26.50
-31.12
-36.04
-40.35
-42.86
-42.45
-38.58
-31.50
-22.21
-12.08
-2.35
6.18
13.24
18.90
23.35
26.68
28.95
30.21
30.64
30.51
30.03
29.26
28.10
26.36
23.93
20.88
17.49
14.15
11.15
8.60
6.42
4.42
2.40
0.23
-2.13
-4.65
-7.30
-10.06
-12.96
-16.03
-19.41
-23.25
-27.63
-32.38
-36.99
-40.56
-42.08
-40.73
-36.21
-28.90
-19.71
-9.79
-0.18
8.45
15.76
21.69
26.24
29.46
31.37
32.12
31.94
31.15
30.05
28.85
27.56
26.10
24.33
22.14
19.55
16.76
14.08
11.80
10.09
8.89
7.93
6.81
5.21
2.99
0.23
-2.84
-5.93
-8.83
-11.47
-13.93
-16.44
-19.26
-22.68
-26.87
-31.81
-37.12
-42.06
-45.61
-46.74
-44.72
-39.38
-31.19
-21.12
-10.35
0.06
9.36
17.17
23.38
28.05
31.26
33.19
34.04
34.09
33.63
32.88
31.91
30.75
29.35
27.67
25.74
23.68
21.63
19.75
18.13
16.75
15.51
14.26
12.85
11.21
9.38
7.42
5.41
3.34
1.16
-1.24
-3.93
-6.94
-10.21
-13.64
-17.16
-20.70
-24.27
-27.99
-32.02
-36.57
-41.62
-46.82
-51.37
-54.15
-54.04
-50.34
-43.12
-33.20
-21.92
-10.69
-0.57
7.92
14.71
19.96
23.90
26.61
28.19
28.75
28.48
27.65
26.52
25.29
24.04
22.76
21.38
19.83
18.11
16.30
14.52
12.92
11.57
10.43
9.36
8.16
6.65
4.72
2.36
-0.35
-3.26
-6.23
-9.13
-11.92
-14.63
-17.33
-20.14
-23.17
-26.57
-30.46
-34.92
-39.77
-44.49
-48.13
-49.59
-47.97
-42.90
-34.76
-24.57
-13.57
-2.87
6.79
15.04
21.77
26.94
30.56
32.76
33.81
34.08
33.94
33.61
33.09
32.28
31.06
29.37
27.31
25.04
22.78
20.70
18.92
17.43
16.12
14.82
13.33
11.54
9.48
7.24
4.94
2.63
0.26
-2.29
-5.11
-8.17
-11.32
-14.38
-17.21
-19.80
-22.29
-24.96
-28.12
-32.02
-36.81
-42.32
-48.01
-52.93
-55.88
-55.71
-51.75
-44.07
-33.55
-21.58
-9.65
1.10
10.09
17.24
22.78
27.01
30.14
32.26
33.45
33.84
33.69
33.26
32.80
32.34
31.76
30.81
29.29
27.21
24.82
22.57
20.83
19.77
19.19
18.67
17.72
16.07
13.74
11.01
8.32
5.99
4.13
2.60
1.06
-0.87
-3.43
-6.63
-10.23
-13.88
-17.25
-20.19
-22.70
-25.02
-27.48
-30.46
-34.32
-39.27
-45.20
-51.53
-57.15
-60.63
-60.64
-56.43
-48.15
-36.92
-24.37
-12.09
-1.18
7.98
15.55
21.89
27.26
31.66
34.92
36.95
37.82
37.78
37.16
36.20
34.98
33.51
31.79
29.91
28.09
26.58
25.52
24.84
24.35
23.71
22.71
21.31
19.71
18.21
17.05
16.19
15.24
13.63
10.81
6.54
1.00
-5.20
-11.31
-16.68
-21.03
-24.42
-27.26
-30.09
-33.48
-37.87
-43.39
-49.72
-56.04
-61.13
-63.64
-62.54
-57.50
-49.02
-38.27
-26.71
-15.66
-5.97
1.97
8.16
12.80
16.14
18.43
19.94
20.86
21.40
21.69
21.80
21.78
21.60
21.22
20.54
19.50
18.06
16.29
14.38
12.56
11.02
9.83
8.86
7.80
6.33
4.19
1.32
-2.08
-5.68
-9.11
-12.14
-14.78
-17.24
-19.82
-22.87
-26.63
-31.17
-36.36
-41.74
-46.47
-49.48
-49.72
-46.51
-39.85
-30.43
-19.40
-8.00
2.78
12.39
20.61
27.37
32.64
36.39
38.65
39.60
39.53
38.79
37.66
36.27
34.66
32.79
30.65
28.28
25.75
23.20
20.76
18.58
16.72
15.16
13.74
12.23
10.35
7.90
4.82
1.23
-2.62
-6.46
-10.06
-13.32
-16.26
-19.04
-21.89
-25.10
-28.96
-33.69
-39.28
-45.35
-51.10
-55.36
-56.96
-55.01
-49.32
-40.43
-29.46
-17.76
-6.50
3.54
12.04
18.99
24.51
28.74
31.77
33.68
34.59
34.63
33.97
32.80
31.28
29.53
27.66
25.74
23.82
21.99
20.32
18.85
17.60
16.54
15.60
14.65
13.55
12.16
10.37
8.15
5.54
2.60
-0.53
-3.74
-6.92
-10.04
-13.08
-16.10
-19.19
-22.46
-26.13
-30.43
-35.51
-41.24
-47.06
-51.97
-54.71
-54.15
-49.77
-41.82
-31.35
-19.75
-8.39
1.77
10.33
17.22
22.61
26.67
29.55
31.44
32.52
33.02
33.07
32.72
31.94
30.70
29.03
27.06
25.01
23.14
21.67
20.69
20.21
20.05
19.98
19.71
19.02
17.83
16.18
14.21
12.05
9.73
7.19
4.31
1.04
-2.63
-6.54
-10.54
-14.47
-18.25
-21.93
-25.70
-29.81
-34.52
-39.83
-45.35
-50.15
-52.99
-52.66
-48.52
-40.77
-30.45
-19.05
-7.99
1.78
9.89
16.41
21.55
25.51
28.37
30.18
31.10
31.28
30.93
30.17
29.05
27.57
25.78
23.79
21.75
19.81
18.05
16.51
15.17
13.93
12.72
11.43
9.95
8.18
6.04
3.50
0.57
-2.59
-5.80
-8.87
-11.68
-14.29
-16.88
-19.70
-23.05
-27.11
-31.91
-37.26
-42.62
-47.15
-49.81
-49.62
-46.00
-39.02
-29.42
-18.39
-7.24
3.03
11.81
18.90
24.35
28.35
31.09
32.85
33.92
34.60
35.08
35.36
35.29
34.63
33.23
31.11
28.49
25.76
23.28
21.35
20.07
19.29
18.72
17.99
16.83
15.08
12.82
10.24
7.62
5.13
2.84
0.60
-1.82
-4.63
-7.90
-11.53
-15.28
-18.86
-22.12
-25.09
-27.99
-31.19
-35.07
-39.81
-45.25
-50.76
-55.25
-57.49
-56.42
-51.58
-43.28
-32.56
-20.78
-9.25
1.16
10.05
17.39
23.28
27.81
31.05
33.13
34.30
34.89
35.20
35.39
35.40
35.07
34.23
32.82
30.95
28.83
26.72
24.84
23.32
22.17
21.34
20.69
20.06
19.26
18.14
16.55
14.47
11.98
9.26
6.56
4.07
1.86
-0.21
-2.42
-5.03
-8.18
-11.78
-15.53
-19.11
-22.30
-25.10
-27.72
-30.46
-33.61
-37.38
-41.86
-46.93
-52.15
-56.75
-59.63
-59.63
-55.97
-48.54
-38.04
-25.77
-13.24
-1.72
8.05
15.86
21.89
26.47
29.87
32.27
33.73
34.35
34.27
33.70
32.88
32.01
31.21
30.45
29.62
28.63
27.44
26.13
24.81
23.58
22.45
21.35
20.19
18.95
17.64
16.29
14.88
13.30
11.45
9.26
6.83
4.31
1.85
-0.52
-2.92
-5.49
-8.35
-11.49
-14.79
-18.07
-21.21
-24.16
-26.96
-29.68
-32.47
-35.54
-39.19
-43.65
-48.91
-54.53
-59.54
-62.66
-62.66
-58.79
-51.12
-40.46
-28.17
-15.62
-3.95
6.25
14.74
21.51
26.64
30.19
32.28
33.16
33.18
32.75
32.18
31.65
31.12
30.43
29.43
28.04
26.35
24.58
22.97
21.72
20.88
20.37
19.96
19.43
18.55
17.22
15.44
13.29
10.91
8.47
6.10
3.88
1.82
-0.17
-2.28
-4.71
-7.58
-10.88
-14.48
-18.12
-21.58
-24.73
-27.61
-30.40
-33.37
-36.81
-40.93
-45.78
-51.05
-56.03
-59.60
-60.51
-57.73
-50.94
-40.63
-28.08
-14.90
-2.55
8.00
16.43
22.83
27.55
30.92
33.24
34.72
35.55
35.91
35.94
35.72
35.25
34.48
33.35
31.85
29.97
27.85
25.65
23.59
21.84
20.49
19.48
18.63
17.72
16.50
14.83
12.68
10.15
7.43
4.79
2.39
0.31
-1.55
-3.42
-5.56
-8.13
-11.16
-14.53
-18.02
-21.41
-24.61
-27.61
-30.56
-33.69
-37.28
-41.58
-46.67
-52.27
-57.63
-61.59
-62.84
-60.36
-53.82
-43.77
-31.50
-18.58
-6.42
4.13
12.76
19.60
24.89
28.86
31.65
33.38
34.23
34.44
34.29
34.00
33.66
33.25
32.62
31.63
30.22
28.46
26.55
24.76
23.30
22.27
21.56
20.91
20.03
18.69
16.80
14.48
11.95
9.47
7.24
5.27
3.41
1.36
-1.19
-4.39
-8.23
-12.47
-16.72
-20.63
-23.98
-26.80
-29.39
-32.19
-35.67
-40.15
-45.65
-51.73
-57.53
-61.81
-63.32
-61.13
-54.97
-45.36
-33.47
-20.76
-8.54
2.29
11.38
18.73
24.52
28.92
32.07
34.07
35.12
35.46
35.32
34.88
34.17
33.15
31.79
30.10
28.19
26.31
24.70
23.58
23.03
22.96
23.09
23.05
22.45
21.04
18.78
15.86
12.66
9.57
6.87
4.61
2.61
0.54
-1.93
-4.97
-8.58
-12.54
-16.55
-20.33
-23.74
-26.85
-29.84
-33.06
-36.82
-41.33
-46.50
-51.82
-56.37
-58.92
-58.33
-53.92
-45.74
-34.65
-22.04
-9.40
2.09
11.76
19.42
25.17
29.22
31.81
33.24
33.84
34.00
33.98
33.90
33.62
32.95
31.71
29.91
27.76
25.57
23.62
22.07
20.85
19.78
18.59
17.09
15.21
13.02
10.70
8.39
6.15
3.92
1.57
-1.02
-3.88
-6.90
-9.92
-12.79
-15.45
-17.97
-20.53
-23.36
-26.70
-30.75
-35.59
-41.08
-46.72
-51.59
-54.47
-54.22
-50.10
-42.19
-31.37
-19.10
-6.93
3.93
12.87
19.88
25.28
29.40
32.47
34.55
35.75
36.23
36.26
36.09
35.82
35.36
34.48
33.02
30.96
28.56
26.18
24.21
22.87
22.15
21.81
21.48
20.81
19.57
17.71
15.35
12.73
10.08
7.55
5.09
2.55
-0.30
-3.61
-7.34
-11.28
-15.14
-18.65
-21.73
-24.52
-27.32
-30.49
-34.39
-39.22
-45.03
-51.52
-57.98
-63.26
-65.96
-64.85
-59.27
-49.53
-36.80
-22.83
-9.33
2.47
12.03
19.41
25.00
29.18
32.25
34.38
35.69
36.32
36.44
36.18
35.60
34.69
33.38
31.58
29.29
26.70
24.15
22.05
20.69
20.06
19.83
19.46
18.45
16.57
13.98
11.13
8.48
6.30
4.53
2.84
0.81
-1.89
-5.37
-9.47
-13.87
-18.15
-22.00
-25.27
-28.02
-30.52
-33.20
-36.50
-40.77
-46.03
-51.79
-57.03
-60.40
-60.54
-56.62
-48.59
-37.36
-24.44
-11.48
0.21
9.98
17.72
23.70
28.24
31.57
33.83
35.19
35.87
36.12
36.12
35.92
35.44
34.59
33.33
31.74
30.00
28.33
26.87
25.71
24.81
24.10
23.41
22.57
21.40
19.74
17.55
14.95
12.17
9.52
7.20
5.23
3.36
1.20
-1.62
-5.24
-9.50
-13.96
-18.13
-21.68
-24.60
-27.13
-29.73
-32.80
-36.66
-41.44
-47.06
-53.12
-58.86
-63.07
-64.42
-61.83
-54.95
-44.38
-31.56
-18.25
-5.98
4.37
12.66
19.20
24.40
28.45
31.38
33.18
33.95
33.98
33.64
33.22
32.84
32.45
31.85
30.90
29.54
27.87
26.07
24.38
22.95
21.85
20.96
20.06
18.90
17.28
15.17
12.71
10.14
7.71
5.55
3.55
1.41
-1.20
-4.50
-8.45
-12.72
-16.85
-20.45
-23.41
-25.89
-28.31
-31.14
-34.79
-39.44
-45.01
-50.94
-56.26
-59.68
-59.92
-56.14
-48.33
-37.33
-24.59
-11.72
0.05
10.02
18.05
24.29
28.95
32.23
34.31
35.44
35.94
36.08
36.04
35.81
35.32
34.45
33.15
31.47
29.59
27.70
25.94
24.42
23.15
22.08
21.08
20.03
18.79
17.22
15.23
12.83
10.12
7.30
4.57
2.06
-0.27
-2.63
-5.27
-8.38
-11.95
-15.78
-19.53
-22.90
-25.80
-28.34
-30.85
-33.71
-37.30
-41.82
-47.28
-53.29
-59.05
-63.33
-64.77
-62.28
-55.47
-44.88
-31.86
-18.17
-5.37
5.51
14.19
20.90
26.07
30.10
33.22
35.51
37.01
37.79
37.99
37.76
37.20
36.38
35.27
33.83
32.08
30.11
28.15
26.46
25.26
24.61
24.34
24.18
23.76
22.84
21.28
19.16
16.66
14.01
11.43
9.01
6.68
4.27
1.54
-1.68
-5.44
-9.58
-13.87
-18.04
-21.90
-25.41
-28.64
-31.78
-35.06
-38.76
-43.12
-48.25
-53.94
-59.52
-63.81
-65.41
-63.07
-56.24
-45.38
-31.87
-17.57
-4.17
7.23
16.38
23.57
29.26
33.78
37.18
39.42
40.53
40.79
40.60
40.34
40.12
39.81
39.08
37.68
35.57
33.00
30.38
28.14
26.53
25.58
25.10
24.79
24.38
23.63
22.29
20.16
17.16
13.35
9.05
4.75
0.87
-2.32
-4.87
-7.05
-9.21
-11.61
-14.31
-17.21
-20.16
-23.05
-25.87
-28.71
-31.70
-34.99
-38.77
-43.19
-48.20
-53.46
-58.21
-61.32
-61.61
-58.20
-50.87
-40.20
-27.43
-14.08
-1.49
9.42
18.30
25.21
30.38
34.04
36.39
37.60
37.85
37.35
36.30
34.90
33.24
31.37
29.30
27.07
24.74
22.41
20.20
18.18
16.33
14.53
12.62
10.46
7.97
5.23
2.38
-0.47
-3.26
-6.07
-8.99
-12.08
-15.32
-18.63
-21.95
-25.29
-28.80
-32.68
-37.14
-42.30
-48.06
-53.99
-59.21
-62.50
-62.62
-58.66
-50.55
-39.10
-25.86
-12.58
-0.67
9.15
16.82
22.72
27.35
31.02
33.92
36.11
37.67
38.66
39.09
38.88
37.93
36.24
33.96
31.42
29.05
27.17
25.86
24.94
24.08
22.90
21.17
18.83
16.01
12.86
9.51
6.02
2.37
-1.42
-5.31
-9.15
-12.84
-16.28
-19.50
-22.64
-25.90
-29.54
-33.78
-38.74
-44.37
-50.23
-55.45
-58.84
-59.13
-55.41
-47.55
-36.32
-23.20
-9.89
2.20
12.27
20.15
26.09
30.42
33.43
35.29
36.16
36.26
35.84
35.13
34.24
33.17
31.86
30.24
28.33
26.20
23.98
21.79
19.71
17.78
15.99
14.28
12.56
10.71
8.61
6.23
3.56
0.65
-2.45
-5.73
-9.20
-12.85
-16.60
-20.32
-23.90
-27.34
-30.85
-34.76
-39.45
-45.02
-51.14
-56.89
-60.93
-61.85
-58.68
-51.23
-40.22
-27.07
-13.48
-0.90
9.76
18.22
24.67
29.50
33.10
35.74
37.59
38.77
39.41
39.57
39.28
38.55
37.34
35.68
33.67
31.47
29.32
27.42
25.93
24.84
24.02
23.20
22.04
20.31
17.89
14.91
11.65
8.45
5.55
2.98
0.54
-2.12
-5.28
-9.04
-13.28
-17.65
-21.80
-25.49
-28.72
-31.79
-35.13
-39.20
-44.26
-50.27
-56.68
-62.54
-66.56
-67.45
-64.31
-56.96
-46.03
-32.85
-19.02
-5.93
5.47
14.83
22.21
27.83
31.96
34.82
36.62
37.54
37.77
37.44
36.60
35.28
33.48
31.33
29.00
26.75
24.81
23.33
22.26
21.40
20.43
19.06
17.18
14.90
12.49
10.28
8.41
6.80
5.18
3.24
0.78
-2.21
-5.51
-8.85
-11.98
-14.76
-17.23
-19.54
-21.98
-24.90
-28.57
-33.09
-38.13
-42.89
-46.07
-46.24
-42.30
-33.92
-21.74
-7.20
7.90
22.03
34.31
44.51
52.80
59.35
64.10
66.79
67.25
65.70
62.83
59.53
56.55
54.14
51.98
49.40
45.78
40.93
35.16
29.14
23.51
18.62
14.34
10.22
5.76
0.65
-5.03
-10.95
-16.68
-22.01
-27.00
-31.96
-37.23
-42.95
-48.96
-54.85
-60.18
-64.67
-68.31
-71.33
-74.04
-76.69
-79.34
-81.88
-84.05
-85.43
-85.54
-83.86
-80.00
-73.87
-65.69
-56.01
-45.49
-34.80
-24.45
-14.75
-5.85
2.14
9.18
15.17
19.97
23.49
25.71
26.87
27.48
28.23
29.88
32.85
37.10
42.07
46.88
50.62
52.66
52.69
50.76
47.10
42.11
36.31
30.36
25.04
21.09
18.98
18.69
19.60
20.64
20.59
18.57
14.21
7.79
-0.04
-8.46
-16.69
-24.05
-29.86
-33.41
-34.08
-31.59
-26.24
-18.86
-10.68
-2.83
3.93
9.45
13.97
17.92
21.59
25.03
28.06
30.42
31.88
32.33
31.84
30.59
28.83
26.85
24.91
23.19
21.72
20.40
19.03
17.40
15.37
12.87
9.97
6.77
3.41
0.02
-3.31
-6.51
-9.56
-12.45
-15.20
-17.84
-20.40
-22.97
-25.72
-28.87
-32.72
-37.47
-43.03
-48.90
-54.17
-57.75
-58.63
-56.29
-50.83
-42.98
-33.83
-24.50
-15.81
-8.20
-1.74
3.69
8.22
11.98
15.05
17.53
19.52
21.11
22.27
22.96
23.09
22.72
22.06
21.45
21.21
21.52
22.29
23.17
23.70
23.47
22.27
20.13
17.34
14.29
11.33
8.67
6.34
4.19
2.03
-0.28
-2.77
-5.35
-7.91
-10.36
-12.71
-15.05
-17.53
-20.33
-23.67
-27.72
-32.50
-37.69
-42.61
-46.22
-47.49
-45.68
-40.68
-33.05
-23.79
-14.03
-4.71
3.58
10.60
16.29
20.73
24.03
26.34
27.86
28.75
29.16
29.16
28.78
28.05
27.04
25.85
24.60
23.35
22.14
20.98
19.84
18.71
17.52
16.23
14.77
13.09
11.20
9.18
7.15
5.24
3.50
1.86
0.18
-1.77
-4.14
-7.00
-10.19
-13.44
-16.40
-18.83
-20.74
-22.41
-24.34
-27.05
-30.84
-35.63
-40.81
-45.36
-48.10
-48.06
-44.73
-38.30
-29.58
-19.71
-9.84
-0.84
6.87
13.24
18.44
22.65
25.99
28.51
30.24
31.30
31.85
32.07
32.01
31.63
30.83
29.53
27.81
25.89
24.06
22.54
21.42
20.65
20.08
19.53
18.84
17.86
16.47
14.60
12.28
9.70
7.14
4.85
2.90
1.14
-0.74
-3.03
-5.85
-9.06
-12.37
-15.45
-18.11
-20.34
-22.35
-24.44
-26.93
-30.07
-33.93
-38.38
-43.01
-47.10
-49.78
-50.18
-47.67
-42.11
-33.94
-24.02
-13.51
-3.48
5.29
12.46
18.01
22.17
25.24
27.47
29.07
30.17
30.86
31.19
31.12
30.62
29.67
28.33
26.76
25.14
23.69
22.53
21.65
21.00
20.46
19.94
19.36
18.65
17.71
16.46
14.81
12.80
10.54
8.26
6.15
4.28
2.58
0.86
-1.10
-3.42
-6.05
-8.88
-11.74
-14.50
-17.13
-19.62
-22.01
-24.36
-26.76
-29.38
-32.43
-36.02
-40.00
-43.88
-46.86
-48.02
-46.62
-42.38
-35.55
-26.87
-17.29
-7.76
1.00
8.58
14.82
19.75
23.47
26.10
27.76
28.63
28.90
28.79
28.44
27.97
27.32
26.40
25.15
23.58
21.87
20.29
19.11
18.44
18.20
18.09
17.77
16.98
15.62
13.82
11.78
9.73
7.77
5.93
4.12
2.26
0.25
-1.96
-4.41
-7.07
-9.91
-12.87
-15.86
-18.83
-21.73
-24.58
-27.48
-30.58
-34.05
-37.89
-41.89
-45.48
-47.86
-48.17
-45.78
-40.53
-32.77
-23.33
-13.20
-3.33
5.58
13.13
19.15
23.66
26.77
28.72
29.77
30.24
30.34
30.22
29.89
29.30
28.39
27.20
25.83
24.40
23.05
21.84
20.78
19.85
19.05
18.36
17.69
16.94
15.93
14.53
12.72
10.60
8.37
6.20
4.15
2.22
0.29
-1.68
-3.76
-5.93
-8.22
-10.68
-13.34
-16.16
-19.02
-21.72
-24.16
-26.36
-28.55
-30.99
-33.94
-37.51
-41.56
-45.69
-49.27
-51.54
-51.73
-49.27
-43.98
-36.20
-26.71
-16.57
-6.79
1.91
9.20
15.12
19.87
23.62
26.48
28.50
29.73
30.31
30.40
30.18
29.76
29.14
28.32
27.28
26.06
24.74
23.44
22.20
21.07
20.04
19.06
18.08
17.04
15.88
14.54
13.01
11.34
9.58
7.78
5.97
4.15
2.29
0.35
-1.73
-3.99
-6.48
-9.19
-12.03
-14.90
-17.64
-20.19
-22.55
-24.84
-27.21
-29.80
-32.72
-36.03
-39.69
-43.52
-47.05
-49.55
-50.11
-47.97
-42.77
-34.82
-25.01
-14.50
-4.45
4.40
11.72
17.54
22.05
25.45
27.89
29.48
30.36
30.68
30.59
30.20
29.61
28.82
27.86
26.74
25.50
24.21
22.95
21.82
20.88
20.13
19.50
18.85
18.06
17.01
15.65
14.00
12.13
10.16
8.20
6.30
4.47
2.62
0.63
-1.56
-3.97
-6.54
-9.21
-11.92
-14.64
-17.38
-20.12
-22.82
-25.42
-27.90
-30.34
-32.91
-35.82
-39.12
-42.63
-45.82
-47.90
-48.03
-45.59
-40.41
-32.83
-23.66
-13.92
-4.52
3.86
10.89
16.50
20.77
23.81
25.80
26.93
27.42
27.46
27.18
26.61
25.72
24.48
22.94
21.23
19.54
18.08
16.98
16.26
15.79
15.38
14.79
13.85
12.50
10.84
9.08
7.39
5.83
4.32
2.64
0.60
-1.90
-4.78
-7.87
-10.94
-13.83
-16.49
-18.95
-21.33
-23.78
-26.46
-29.55
-33.11
-37.04
-40.95
-44.13
-45.69
-44.87
-41.25
-34.95
-26.65
-17.30
-7.90
0.82
8.46
14.91
20.22
24.46
27.65
29.82
31.04
31.46
31.29
30.76
29.99
29.02
27.80
26.26
24.44
22.51
20.73
19.35
18.51
18.13
17.97
17.68
16.96
15.67
13.83
11.60
9.23
6.96
4.95
3.23
1.70
0.09
-1.90
-4.46
-7.61
-11.10
-14.60
-17.77
-20.45
-22.74
-24.93
-27.35
-30.30
-33.87
-37.95
-42.14
-45.85
-48.27
-48.60
-46.23
-40.95
-33.07
-23.37
-12.93
-2.81
6.18
13.59
19.37
23.69
26.83
29.05
30.54
31.37
31.61
31.33
30.68
29.79
28.79
27.73
26.59
25.33
23.95
22.54
21.27
20.26
19.55
19.00
18.42
17.59
16.41
14.86
13.03
11.02
8.90
6.72
4.54
2.43
0.45
-1.43
-3.33
-5.39
-7.77
-10.51
-13.51
-16.58
-19.56
-22.37
-25.03
-27.64
-30.37
-33.37
-36.75
-40.52
-44.47
-48.10
-50.61
-51.11
-48.83
-43.45
-35.26
-25.12
-14.25
-3.82
5.35
12.86
18.74
23.20
26.48
28.78
30.23
30.94
31.07
30.81
30.29
29.59
28.73
27.68
26.46
25.15
23.82
22.57
21.47
20.54
19.76
19.06
18.36
17.52
16.45
15.09
13.46
11.64
9.73
7.79
5.81
3.77
1.60
-0.71
-3.18
-5.82
-8.64
-11.61
-14.64
-17.57
-20.25
-22.62
-24.85
-27.23
-30.13
-33.84
-38.32
-43.14
-47.56
-50.65
-51.53
-49.63
-44.79
-37.34
-28.02
-17.77
-7.53
1.89
9.97
16.45
21.27
24.55
26.53
27.49
27.74
27.54
27.11
26.52
25.79
24.86
23.71
22.34
20.84
19.37
18.09
17.11
16.41
15.87
15.29
14.52
13.47
12.16
10.66
9.05
7.34
5.44
3.29
0.83
-1.91
-4.82
-7.76
-10.62
-13.33
-15.89
-18.39
-20.97
-23.82
-27.12
-30.98
-35.33
-39.80
-43.74
-46.23
-46.33
-43.41
-37.32
-28.57
-18.20
-7.46
2.54
11.05
17.86
23.10
27.09
30.06
32.10
33.14
33.14
32.16
30.49
28.48
26.48
24.66
23.00
21.36
19.64
17.88
16.28
15.06
14.39
14.19
14.23
14.16
13.67
12.63
11.08
9.21
7.22
5.23
3.22
1.05
-1.44
-4.32
-7.54
-10.94
-14.32
-17.52
-20.47
-23.18
-25.76
-28.41
-31.39
-34.99
-39.34
-44.25
-49.10
-52.89
-54.50
-53.05
-48.22
-40.37
-30.41
-19.54
-8.83
0.92
9.30
16.20
21.70
25.91
29.00
31.09
32.33
32.89
32.94
32.62
32.02
31.15
30.03
28.67
27.15
25.62
24.24
23.14
22.36
21.78
21.25
20.55
19.55
18.21
16.57
14.70
12.63
10.38
7.95
5.38
2.75
0.11
-2.54
-5.30
-8.30
-11.59
-15.08
-18.53
-21.66
-24.29
-26.47
-28.48
-30.78
-33.82
-37.84
-42.66
-47.66
-51.80
-53.88
-52.92
-48.46
-40.77
-30.75
-19.63
-8.59
1.49
10.13
17.16
22.60
26.56
29.21
30.81
31.67
32.05
32.09
31.83
31.21
30.22
28.92
27.46
26.03
24.74
23.67
22.85
22.28
21.96
21.83
21.70
21.34
20.46
18.92
16.72
14.10
11.37
8.80
6.53
4.48
2.44
0.15
-2.53
-5.66
-9.12
-12.71
-16.20
-19.40
-22.22
-24.73
-27.14
-29.80
-33.06
-37.10
-41.78
-46.53
-50.42
-52.36
-51.44
-47.20
-39.85
-30.16
-19.29
-8.43
1.46
9.83
16.46
21.41
24.84
26.96
28.03
28.36
28.26
27.92
27.43
26.72
25.66
24.25
22.61
21.00
19.67
18.73
18.09
17.49
16.71
15.65
14.38
13.04
11.70
10.34
8.79
6.90
4.57
1.87
-1.07
-4.05
-6.95
-9.71
-12.33
-14.87
-17.39
-20.04
-22.99
-26.48
-30.64
-35.41
-40.32
-44.56
-47.08
-46.88
-43.39
-36.69
-27.54
-17.13
-6.77
2.57
10.35
16.56
21.40
25.15
27.99
29.98
31.12
31.47
31.17
30.43
29.44
28.33
27.11
25.78
24.32
22.80
21.39
20.23
19.45
19.02
18.78
18.45
17.71
16.32
14.20
11.48
8.46
5.48
2.81
0.50
-1.64
-3.91
-6.64
-9.98
-13.89
-18.12
-22.36
-26.38
-30.09
-33.59
-37.11
-40.94
-45.37
-50.54
-56.37
-62.41
-67.79
-71.37
-72.03
-69.04
-62.41
-52.99
-42.22
-31.78
-23.07
-16.83
-13.04
-11.00
-9.58
-7.58
-4.03
1.53
8.96
17.60
26.51
34.76
41.68
46.96
50.61
52.81
53.82
53.84
53.10
51.81
50.21
48.45
46.63
44.78
42.89
40.93
38.95
36.99
35.12
33.38
31.80
30.36
29.04
27.75
26.39
24.85
23.03
20.85
18.30
15.46
12.47
9.50
6.71
4.16
1.81
-0.52
-3.00
-5.76
-8.80
-12.00
-15.17
-18.14
-20.83
-23.25
-25.52
-27.86
-30.53
-33.78
-37.81
-42.54
-47.57
-52.10
-55.05
-55.35
-52.31
-45.83
-36.52
-25.53
-14.17
-3.56
5.55
12.91
18.57
22.76
25.74
27.75
29.01
29.73
30.07
30.10
29.88
29.37
28.55
27.46
26.19
24.88
23.70
22.76
22.11
21.72
21.45
21.15
20.68
19.93
18.86
17.47
15.73
13.67
11.31
8.72
6.04
3.39
0.82
-1.70
-4.26
-7.00
-9.94
-13.04
-16.14
-19.10
-21.82
-24.32
-26.75
-29.32
-32.27
-35.75
-39.79
-44.21
-48.60
-52.25
-54.33
-54.02
-50.77
-44.55
-35.88
-25.74
-15.24
-5.37
3.30
10.54
16.39
20.92
24.23
26.34
27.40
27.64
27.39
26.94
26.44
25.86
25.08
24.02
22.70
21.29
20.07
19.25
18.94
19.07
19.41
19.61
19.35
18.41
16.76
14.57
12.11
9.69
7.48
5.49
3.58
1.53
-0.83
-3.56
-6.58
-9.71
-12.75
-15.56
-18.09
-20.42
-22.75
-25.38
-28.62
-32.64
-37.35
-42.29
-46.64
-49.38
-49.57
-46.66
-40.63
-32.05
-21.93
-11.40
-1.49
7.14
14.19
19.73
23.97
27.16
29.42
30.78
31.25
30.92
30.00
28.75
27.44
26.20
25.06
23.97
22.92
21.95
21.16
20.66
20.43
20.34
20.17
19.70
18.78
17.36
15.49
13.32
11.01
8.69
6.46
4.29
2.13
-0.16
-2.70
-5.57
-8.74
-12.13
-15.58
-18.90
-21.95
-24.68
-27.13
-29.52
-32.15
-35.37
-39.39
-44.12
-49.02
-53.11
-55.25
-54.43
-50.18
-42.71
-32.83
-21.71
-10.50
-0.13
8.85
16.14
21.72
25.65
28.14
29.46
29.97
29.96
29.68
29.27
28.78
28.23
27.62
26.93
26.20
25.44
24.71
24.06
23.55
23.16
22.77
22.24
21.40
20.15
18.51
16.55
14.40
12.16
9.91
7.71
5.58
3.53
1.49
-0.62
-2.95
-5.57
-8.51
-11.70
-15.01
-18.28
-21.42
-24.33
-27.03
-29.56
-32.12
-34.98
-38.42
-42.58
-47.22
-51.62
-54.69
-55.27
-52.53
-46.31
-37.23
-26.45
-15.33
-5.02
3.77
10.82
16.25
20.32
23.29
25.35
26.64
27.32
27.53
27.38
26.94
26.20
25.14
23.77
22.19
20.64
19.36
18.58
18.38
18.66
19.16
19.56
19.60
19.14
18.15
16.69
14.82
12.63
10.17
7.56
4.93
2.46
0.24
-1.73
-3.60
-5.62
-7.99
-10.80
-13.96
-17.26
-20.41
-23.27
-25.78
-28.09
-30.51
-33.36
-36.94
-41.35
-46.30
-51.06
-54.55
-55.60
-53.34
-47.58
-38.91
-28.50
-17.68
-7.53
1.35
8.76
14.75
19.30
22.37
23.91
24.07
23.23
21.88
20.49
19.37
18.66
18.43
18.71
19.50
20.65
21.79
22.40
21.98
20.26
17.33
13.58
9.47
5.38
1.47
-2.21
-5.66
-8.81
-11.55
-13.83
-15.77
-17.64
-19.76
-22.33
-25.32
-28.44
-31.28
-33.45
-34.80
-35.46
-35.90
-36.70
-38.42
-41.28
-45.03
-48.86
-51.53
-51.74
-48.46
-41.32
-30.79
-17.96
-4.26
8.99
20.87
31.01
39.45
46.46
52.32
57.24
61.32
64.53
66.81
68.00
67.99
66.76
64.39
61.10
57.28
53.30
49.54
46.24
43.54
41.39
39.64
38.00
36.10
33.58
30.16
25.72
20.35
14.30
7.92
1.54
-4.61
-10.43
-15.88
-20.94
-25.57
-29.83
-33.90
-38.18
-43.08
-48.85
-55.22
-61.40
-66.12
-68.08
-66.42
-61.01
-52.55
-42.29
-31.66
-21.82
-13.47
-6.83
-1.71
2.25
5.43
8.13
10.48
12.48
14.04
15.05
15.50
15.53
15.38
15.35
15.68
16.48
17.75
19.38
21.18
22.94
24.42
25.40
25.67
25.09
23.60
21.18
17.90
13.90
9.38
4.67
0.08
-4.14
-7.91
-11.31
-14.53
-17.82
-21.40
-25.41
-29.93
-34.89
-39.94
-44.43
-47.43
-47.96
-45.36
-39.55
-31.10
-21.06
-10.63
-0.74
8.04
15.51
21.67
26.59
30.30
32.93
34.64
35.73
36.46
37.00
37.34
37.35
36.91
35.99
34.73
33.37
32.20
31.41
31.03
30.91
30.82
30.48
29.66
28.27
26.35
24.07
21.63
19.16
16.66
13.98
10.91
7.33
3.26
-1.08
-5.40
-9.50
-13.29
-16.93
-20.66
-24.76
-29.44
-34.74
-40.46
-46.15
-51.03
-54.14
-54.51
-51.54
-45.22
-36.17
-25.55
-14.64
-4.54
4.09
11.01
16.29
20.14
22.84
24.65
25.83
26.60
27.12
27.42
27.45
27.11
26.32
25.09
23.53
21.83
20.24
18.98
18.15
17.69
17.36
16.83
15.80
14.16
12.06
9.77
7.58
5.58
3.66
1.54
-0.99
-4.02
-7.41
-10.89
-14.19
-17.13
-19.67
-21.94
-24.16
-26.58
-29.50
-33.09
-37.33
-41.87
-45.97
-48.65
-48.93
-46.19
-40.40
-32.14
-22.49
-12.62
-3.48
4.35
10.69
15.66
19.44
22.24
24.18
25.40
26.03
26.21
26.08
25.72
25.12
24.27
23.18
21.94
20.71
19.73
19.14
18.95
19.01
19.03
18.72
17.88
16.47
14.63
12.54
10.37
8.21
6.04
3.72
1.16
-1.73
-4.91
-8.25
-11.56
-14.70
-17.58
-20.26
-22.86
-25.57
-28.64
-32.28
-36.56
-41.32
-45.98
-49.66
-51.30
-50.01
-45.43
-37.86
-28.24
-17.84
-7.86
0.88
8.03
13.65
18.01
21.36
23.91
25.78
27.07
27.86
28.27
28.38
28.24
27.82
27.12
26.14
25.03
23.99
23.27
22.99
23.10
23.37
23.49
23.24
22.50
21.31
19.78
17.97
15.93
13.62
11.09
8.45
5.85
3.40
1.10
-1.16
-3.57
-6.26
-9.24
-12.37
-15.47
-18.37
-21.00
-23.38
-25.63
-27.93
-30.50
-33.54
-37.17
-41.31
-45.66
-49.60
-52.27
-52.77
-50.44
-45.15
-37.33
-27.93
-18.07
-8.78
-0.67
6.02
11.40
15.69
19.09
21.74
23.74
25.21
26.25
26.94
27.26
27.16
26.60
25.68
24.60
23.66
23.09
22.95
23.09
23.25
23.14
22.58
21.59
20.30
18.90
17.56
16.28
15.01
13.61
11.94
9.94
7.62
5.14
2.65
0.30
-1.88
-4.00
-6.27
-8.86
-11.81
-14.97
-18.07
-20.88
-23.25
-25.29
-27.24
-29.42
-32.10
-35.42
-39.32
-43.49
-47.31
-49.93
-50.46
-48.19
-42.92
-35.05
-25.52
-15.51
-6.07
2.06
8.64
13.73
17.59
20.47
22.54
23.93
24.73
25.09
25.17
25.11
24.99
24.78
24.45
23.97
23.39
22.83
22.39
22.13
21.96
21.72
21.24
20.41
19.25
17.81
16.16
14.33
12.32
10.21
8.09
6.11
4.36
2.75
1.04
-1.03
-3.66
-6.77
-10.10
-13.28
-16.04
-18.33
-20.31
-22.25
-24.39
-26.90
-29.86
-33.26
-37.01
-40.81
-44.10
-46.11
-46.01
-43.31
-37.96
-30.52
-21.89
-13.07
-4.84
2.34
8.34
13.22
17.06
19.99
22.09
23.47
24.25
24.58
24.58
24.36
24.01
23.55
23.02
22.42
21.79
21.17
20.63
20.18
19.84
19.56
19.24
18.72
17.85
16.52
14.71
12.54
10.20
7.89
5.72
3.66
1.59
-0.67
-3.22
-6.08
-9.14
-12.23
-15.19
-17.93
-20.40
-22.66
-24.91
-27.43
-30.52
-34.34
-38.77
-43.35
-47.24
-49.46
-49.16
-45.90
-39.80
-31.54
-22.17
-12.74
-4.11
3.24
9.22
13.96
17.72
20.76
23.25
25.26
26.79
27.81
28.32
28.35
27.98
27.32
26.51
25.65
24.84
24.16
23.64
23.33
23.20
23.16
23.05
22.68
21.87
20.53
18.66
16.37
13.79
11.15
8.60
6.28
4.21
2.33
0.47
-1.55
-3.89
-6.64
-9.72
-12.93
-16.04
-18.86
-21.35
-23.61
-25.87
-28.42
-31.45
-35.06
-39.09
-43.12
-46.51
-48.48
-48.27
-45.40
-39.83
-32.02
-22.81
-13.22
-4.13
3.82
10.36
15.50
19.38
22.16
24.01
25.11
25.62
25.74
25.64
25.46
25.23
24.95
24.57
24.04
23.36
22.54
21.65
20.79
20.07
19.56
19.22
18.92
18.44
17.54
16.12
14.17
11.87
9.47
7.21
5.25
3.58
2.08
0.51
-1.38
-3.76
-6.64
-9.88
-13.19
-16.29
-19.00
-21.31
-23.42
-25.60
-28.16
-31.29
-34.99
-39.00
-42.79
-45.67
-46.88
-45.79
-42.10
-35.94
-27.91
-18.88
-9.83
-1.55
5.46
11.07
15.39
18.69
21.22
23.15
24.56
25.49
25.94
25.93
25.53
24.82
23.93
22.97
22.04
21.22
20.52
19.92
19.41
18.97
18.54
18.03
17.27
16.13
14.52
12.53
10.34
8.17
6.19
4.36
2.50
0.40
-2.06
-4.83
-7.70
-10.46
-12.99
-15.33
-17.62
-19.99
-22.52
-25.28
-28.35
-31.79
-35.58
-39.43
-42.69
-44.51
-44.05
-40.88
-35.13
-27.51
-18.96
-10.39
-2.46
4.49
10.33
14.98
18.42
20.67
21.89
22.36
22.37
22.13
21.72
21.15
20.42
19.60
18.81
18.17
17.70
17.30
16.84
16.20
15.34
14.31
13.14
11.87
10.47
8.92
7.19
5.27
3.13
0.73
-1.96
-4.92
-8.04
-11.15
-14.10
-16.88
-19.63
-22.58
-25.98
-29.96
-34.38
-38.81
-42.55
-44.79
-44.80
-42.12
-36.77
-29.26
-20.47
-11.43
-3.04
4.10
9.79
14.17
17.51
20.13
22.29
24.13
25.68
26.85
27.51
27.58
27.04
25.99
24.66
23.26
22.02
21.04
20.34
19.87
19.49
19.03
18.30
17.13
15.46
13.36
11.02
8.67
6.46
4.35
2.14
-0.41
-3.45
-6.89
-10.48
-13.90
-16.95
-19.65
-22.22
-25.06
-28.56
-32.92
-38.00
-43.26
-47.76
-50.42
-50.30
-46.92
-40.47
-31.76
-21.96
-12.19
-3.30
4.38
10.83
16.19
20.56
23.95
26.36
27.83
28.54
28.77
28.75
28.61
28.33
27.79
26.92
25.77
24.56
23.55
22.95
22.79
22.85
22.77
22.16
20.79
18.68
16.07
13.34
10.79
8.59
6.69
4.86
2.82
0.39
-2.49
-5.70
-9.04
-12.29
-15.32
-18.10
-20.73
-23.39
-26.36
-29.85
-33.98
-38.65
-43.44
-47.59
-50.14
-50.17
-47.15
-41.12
-32.74
-23.10
-13.33
-4.32
3.45
9.86
15.02
19.06
22.11
24.31
25.82
26.84
27.52
27.94
28.07
27.86
27.30
26.49
25.56
24.69
23.99
23.46
23.05
22.63
22.07
21.25
20.11
18.62
16.84
14.88
12.89
10.96
9.15
7.39
5.54
3.38
0.78
-2.28
-5.68
-9.14
-12.37
-15.18
-17.57
-19.70
-21.88
-24.42
-27.57
-31.45
-35.99
-40.87
-45.50
-49.03
-50.56
-49.35
-45.12
-38.14
-29.20
-19.41
-9.84
-1.32
5.78
11.41
15.74
19.00
21.35
22.91
23.80
24.15
24.13
23.88
23.54
23.14
22.71
22.24
21.72
21.20
20.70
20.24
19.79
19.30
18.66
17.77
16.51
14.85
12.84
10.64
8.44
6.35
4.30
2.13
-0.36
-3.24
-6.42
-9.65
-12.70
-15.43
-17.99
-20.63
-23.69
-27.41
-31.81
-36.61
-41.23
-44.82
-46.44
-45.31
-41.09
-34.03
-24.97
-15.09
-5.54
2.83
9.68
15.06
19.22
22.44
24.89
26.66
27.83
28.49
28.74
28.68
28.38
27.87
27.18
26.35
25.44
24.51
23.62
22.79
22.07
21.48
21.01
20.56
20.00
19.10
17.73
15.84
13.52
10.94
8.34
5.88
3.60
1.41
-0.86
-3.42
-6.39
-9.75
-13.31
-16.79
-19.95
-22.70
-25.15
-27.58
-30.37
-33.77
-37.89
-42.51
-47.14
-51.01
-53.24
-53.03
-49.87
-43.76
-35.20
-25.12
-14.59
-4.62
4.07
11.15
16.61
20.67
23.64
25.81
27.42
28.63
29.53
30.15
30.51
30.60
30.43
29.99
29.28
28.33
27.24
26.16
25.27
24.73
24.52
24.50
24.35
23.80
22.65
20.91
18.74
16.34
13.87
11.39
8.91
6.41
3.91
1.46
-0.91
-3.21
-5.55
-8.03
-10.74
-13.69
-16.79
-19.87
-22.80
-25.49
-28.00
-30.53
-33.39
-36.82
-40.88
-45.27
-49.35
-52.25
-53.06
-51.11
-46.18
-38.57
-29.04
-18.63
-8.40
0.80
8.44
14.34
18.63
21.61
23.65
25.08
26.15
27.01
27.71
28.21
28.44
28.34
27.96
27.41
26.85
26.42
26.19
26.10
26.01
25.77
25.27
24.48
23.44
22.23
20.92
19.57
18.15
16.62
14.90
12.92
10.67
8.19
5.61
3.05
0.63
-1.64
-3.84
-6.12
-8.60
-11.33
-14.26
-17.28
-20.23
-23.02
-25.59
-27.97
-30.26
-32.65
-35.38
-38.64
-42.41
-46.40
-49.94
-52.11
-51.99
-48.94
-42.87
-34.30
-24.23
-13.82
-4.11
4.23
10.96
16.12
19.94
22.65
24.46
25.55
26.09
26.28
26.28
26.14
25.82
25.25
24.38
23.30
22.18
21.22
20.60
20.37
20.46
20.67
20.78
20.61
20.03
19.02
17.67
16.09
14.38
12.54
10.53
8.28
5.84
3.34
0.97
-1.14
-3.03
-4.86
-6.87
-9.23
-11.93
-14.79
-17.59
-20.15
-22.44
-24.59
-26.81
-29.38
-32.55
-36.41
-40.78
-45.10
-48.48
-49.91
-48.62
-44.34
-37.45
-28.83
-19.56
-10.56
-2.42
4.65
10.61
15.43
19.06
21.45
22.68
22.99
22.75
22.34
22.00
21.76
21.51
21.08
20.40
19.52
18.63
17.94
17.59
17.56
17.64
17.53
16.94
15.74
14.02
12.00
9.98
8.16
6.60
5.18
3.68
1.86
-0.44
-3.25
-6.48
-9.92
-13.32
-16.44
-19.15
-21.50
-23.71
-26.16
-29.21
-33.06
-37.58
-42.26
-46.25
-48.57
-48.36
-45.15
-39.00
-30.54
-20.78
-10.84
-1.68
6.07
12.22
16.88
20.34
22.90
24.79
26.16
27.13
27.75
28.10
28.22
28.08
27.64
26.89
25.85
24.65
23.49
22.55
21.91
21.54
21.29
20.96
20.35
19.33
17.86
16.03
13.99
11.90
9.91
8.04
6.20
4.21
1.91
-0.82
-3.93
-7.30
-10.74
-14.05
-17.11
-19.86
-22.34
-24.69
-27.18
-30.12
-33.73
-38.05
-42.74
-47.11
-50.26
-51.25
-49.45
-44.68
-37.33
-28.24
-18.47
-9.01
-0.55
6.58
12.37
16.96
20.50
23.10
24.84
25.85
26.31
26.49
26.55
26.58
26.50
26.20
25.56
24.63
23.54
22.52
21.76
21.34
21.19
21.15
20.93
20.29
19.06
17.24
14.96
12.47
10.04
7.83
5.87
4.04
2.13
-0.09
-2.76
-5.89
-9.34
-12.83
-16.10
-18.94
-21.31
-23.38
-25.50
-28.08
-31.45
-35.70
-40.54
-45.24
-48.81
-50.22
-48.69
-43.98
-36.51
-27.22
-17.29
-7.80
0.52
7.38
12.85
17.13
20.46
23.02
24.95
26.34
27.26
27.74
27.78
27.42
26.70
25.78
24.83
24.01
23.42
23.03
22.80
22.65
22.52
22.35
22.05
21.48
20.51
19.03
17.06
14.75
12.31
9.99
7.94
6.18
4.61
3.00
1.15
-1.10
-3.76
-6.71
-9.76
-12.73
-15.50
-18.07
-20.53
-23.03
-25.72
-28.73
-32.20
-36.13
-40.37
-44.48
-47.77
-49.44
-48.77
-45.39
-39.42
-31.42
-22.26
-12.85
-3.99
3.76
10.14
15.09
18.72
21.24
22.88
23.82
24.21
24.13
23.70
23.06
22.40
21.83
21.41
21.06
20.66
20.12
19.51
18.94
18.58
18.42
18.31
17.95
17.04
15.44
13.26
10.77
8.30
6.03
3.99
1.99
-0.20
-2.72
-5.58
-8.64
-11.69
-14.56
-17.19
-19.67
-22.18
-24.93
-28.09
-31.73
-35.69
-39.60
-42.85
-44.67
-44.32
-41.31
-35.57
-27.58
-18.24
-8.60
0.40
8.13
14.35
19.07
22.48
24.79
26.18
26.84
26.99
26.80
26.48
26.17
25.91
25.71
25.52
25.23
24.78
24.12
23.28
22.36
21.52
20.83
20.27
19.66
18.78
17.43
15.56
13.28
10.81
8.37
6.08
3.90
1.71
-0.63
-3.19
-5.93
-8.78
-11.63
-14.40
-17.07
-19.65
-22.20
-24.82
-27.70
-31.05
-35.01
-39.53
-44.18
-48.21
-50.65
-50.63
-47.65
-41.75
-33.53
-24.00
-14.23
-5.14
2.69
9.05
14.03
17.87
20.83
23.06
24.66
25.71
26.30
26.56
26.67
26.73
26.73
26.61
26.25
25.61
24.79
23.96
23.30
22.88
22.62
22.34
21.84
21.01
19.85
18.37
16.64
14.68
12.49
10.13
7.68
5.25
2.90
0.60
-1.78
-4.39
-7.28
-10.41
-13.61
-16.70
-19.57
-22.23
-24.80
-27.48
-30.51
-34.05
-38.15
-42.57
-46.74
-49.85
-50.96
-49.34
-44.74
-37.47
-28.37
-18.54
-9.02
-0.53
6.62
12.42
17.05
20.72
23.55
25.62
27.01
27.82
28.19
28.25
28.11
27.83
27.42
26.92
26.38
25.89
25.49
25.18
24.86
24.44
23.79
22.89
21.77
20.50
19.12
17.63
16.01
14.22
12.28
10.26
8.23
6.23
4.19
1.99
-0.52
-3.41
-6.58
-9.84
-12.95
-15.70
-18.02
-19.99
-21.82
-23.77
-26.12
-29.11
-32.84
-37.24
-41.90
-46.17
-49.17
-50.05
-48.25
-43.65
-36.65
-28.05
-18.81
-9.81
-1.68
5.23
10.86
15.27
18.59
20.94
22.49
23.41
23.89
24.08
24.09
23.94
23.62
23.14
22.57
22.02
21.63
21.47
21.51
21.63
21.61
21.22
20.31
18.80
16.77
14.38
11.89
9.53
7.45
5.61
3.84
1.88
-0.49
-3.35
-6.59
-9.96
-13.20
-16.09
-18.62
-20.93
-23.34
-26.22
-29.84
-34.27
-39.20
-43.93
-47.52
-49.02
-47.73
-43.49
-36.69
-28.18
-18.96
-9.94
-1.73
5.38
11.31
16.13
19.92
22.78
24.86
26.33
27.33
28.01
28.39
28.50
28.33
27.93
27.39
26.84
26.34
25.92
25.55
25.13
24.60
23.91
23.05
21.99
20.70
19.14
17.29
15.15
12.83
10.45
8.14
5.93
3.78
1.58
-0.80
-3.45
-6.38
-9.48
-12.61
-15.58
-18.26
-20.58
-22.64
-24.65
-26.92
-29.75
-33.32
-37.53
-41.94
-45.76
-48.05
-47.99
-45.08
-39.40
-31.56
-22.50
-13.24
-4.62
2.87
9.05
13.94
17.68
20.42
22.29
23.46
24.12
24.45
24.59
24.66
24.68
24.63
24.47
24.15
23.65
23.02
22.34
21.75
21.33
21.09
20.93
20.67
20.10
19.08
17.58
15.66
13.49
11.22
8.97
6.77
4.60
2.37
-0.03
-2.67
-5.58
-8.71
-11.90
-14.97
-17.78
-20.29
-22.66
-25.22
-28.36
-32.40
-37.34
-42.79
-47.90
-51.57
-52.77
-50.83
-45.69
-37.90
-28.43
-18.38
-8.71
-0.07
7.22
13.09
17.61
20.94
23.27
24.83
25.81
26.36
26.58
26.53
26.25
25.77
25.14
24.42
23.65
22.91
22.23
21.68
21.24
20.82
20.26
19.33
17.91
15.96
13.63
11.12
8.61
6.15
3.68
1.08
-1.74
-4.74
-7.80
-10.74
-13.41
-15.74
-17.78
-19.69
-21.73
-24.21
-27.43
-31.59
-36.64
-42.13
-47.25
-50.91
-52.07
-50.01
-44.68
-36.68
-27.11
-17.22
-8.05
-0.18
6.25
11.36
15.35
18.37
20.51
21.87
22.58
22.83
22.77
22.55
22.20
21.76
21.23
20.66
20.07
19.48
18.88
18.24
17.50
16.58
15.43
14.02
12.38
10.58
8.64
6.57
4.25
1.59
-1.48
-4.89
-8.46
-11.97
-15.26
-18.28
-21.14
-24.09
-27.41
-31.34
-35.89
-40.80
-45.43
-48.85
-50.06
-48.32
-43.43
-35.82
-26.42
-16.37
-6.65
2.06
9.47
15.53
20.31
23.93
26.58
28.45
29.76
30.67
31.21
31.35
30.99
30.13
28.85
27.37
25.92
24.65
23.58
22.65
21.72
20.71
19.55
18.26
16.79
15.08
12.99
10.42
7.29
3.69
-0.20
-4.13
-7.86
-11.29
-14.42
-17.40
-20.43
-23.76
-27.63
-32.17
-37.29
-42.57
-47.19
-50.06
-50.18
-46.97
-40.50
-31.53
-21.28
-10.98
-1.60
6.39
12.92
18.15
22.31
25.56
27.99
29.69
30.78
31.43
31.74
31.78
31.49
30.81
29.71
28.31
26.85
25.59
24.73
24.28
24.08
23.84
23.30
22.24
20.61
18.51
16.09
13.51
10.90
8.28
5.61
2.84
-0.11
-3.24
-6.50
-9.79
-13.01
-16.05
-18.83
-21.34
-23.73
-26.26
-29.35
-33.35
-38.36
-44.02
-49.43
-53.37
-54.58
-52.26
-46.31
-37.39
-26.71
-15.63
-5.26
3.70
11.02
16.79
21.24
24.58
26.96
28.52
29.41
29.80
29.85
29.71
29.46
29.08
28.55
27.82
26.91
25.89
24.88
23.99
23.27
22.66
22.00
21.11
19.82
18.12
16.10
13.91
11.71
9.57
7.48
5.35
3.06
0.50
-2.41
-5.59
-8.91
-12.12
-15.02
-17.54
-19.81
-22.11
-24.80
-28.18
-32.41
-37.37
-42.67
-47.65
-51.42
-53.07
-51.84
-47.46
-40.21
-30.93
-20.72
-10.66
-1.53
6.27
12.64
17.62
21.30
23.83
25.39
26.22
26.60
26.73
26.72
26.60
26.36
25.99
25.55
25.06
24.56
24.02
23.41
22.71
21.91
21.04
20.05
18.90
17.48
15.74
13.73
11.59
9.48
7.52
5.66
3.72
1.49
-1.17
-4.24
-7.56
-10.84
-13.85
-16.44
-18.68
-20.81
-23.16
-26.07
-29.76
-34.19
-38.97
-43.42
-46.60
-47.56
-45.60
-40.52
-32.71
-23.14
-13.02
-3.54
4.52
10.84
15.57
19.05
21.60
23.43
24.60
25.11
25.03
24.49
23.65
22.68
21.68
20.69
19.74
18.86
18.10
17.52
17.17
17.02
16.96
16.76
16.18
15.02
13.25
11.05
8.68
6.37
4.19
1.97
-0.57
-3.67
-7.45
-11.86
-16.78
-22.13
-27.82
-33.61
-38.99
-43.10
-44.89
-43.53
-38.69
-30.82
-21.01
-10.67
-1.10
6.89
12.99
17.35
20.30
22.12
23.02
23.11
22.56
21.59
20.48
19.45
18.62
17.96
17.34
16.65
15.83
14.90
13.91
12.96
12.10
11.28
10.37
9.10
7.13
4.22
0.28
-4.47
-9.52
-14.27
-18.21
-21.12
-23.11
-24.58
-26.06
-28.09
-31.04
-34.96
-39.52
-43.98
-47.29
-48.41
-46.60
-41.73
-34.28
-25.24
-15.74
-6.72
1.24
7.99
13.59
18.21
21.91
24.74
26.66
27.70
27.97
27.64
26.90
25.94
24.84
23.64
22.33
20.93
19.51
18.20
17.12
16.34
15.78
15.29
14.62
13.52
11.84
9.55
6.72
3.54
0.19
-3.14
-6.35
-9.44
-12.49
-15.69
-19.27
-23.41
-28.16
-33.33
-38.45
-42.78
-45.44
-45.58
-42.74
-36.92
-28.72
-19.11
-9.18
0.14
8.30
15.05
20.42
24.49
27.35
29.09
29.81
29.70
29.00
27.95
26.72
25.41
24.02
22.56
21.06
19.59
18.23
17.03
16.00
15.09
14.16
13.11
11.81
10.18
8.17
5.80
3.11
0.17
-2.97
-6.25
-9.61
-12.94
-16.11
-19.01
-21.67
-24.32
-27.34
-31.12
-35.81
-41.15
-46.34
-50.27
-51.75
-49.95
-44.65
-36.33
-26.04
-15.03
-4.47
4.85
12.54
18.59
23.10
26.26
28.15
28.89
28.62
27.61
26.18
24.69
23.36
22.26
21.31
20.33
19.19
17.84
16.36
14.91
13.67
12.69
11.88
11.00
9.73
7.79
5.09
1.72
-2.04
-5.87
-9.46
-12.66
-15.47
-18.10
-20.87
-24.15
-28.30
-33.43
-39.27
-45.09
-49.79
-52.16
-51.25
-46.74
-39.00
-29.02
-18.06
-7.31
2.42
10.73
17.53
22.95
27.12
30.15
32.13
33.17
33.45
33.16
32.49
31.57
30.48
29.23
27.84
26.42
25.13
24.15
23.50
23.05
22.53
21.59
20.03
17.87
15.34
12.76
10.32
8.02
5.68
3.05
-0.02
-3.52
-7.27
-11.03
-14.63
-17.99
-21.20
-24.41
-27.85
-31.76
-36.31
-41.56
-47.21
-52.59
-56.65
-58.16
-56.14
-50.21
-40.80
-29.07
-16.58
-4.78
5.37
13.53
19.89
24.81
28.63
31.52
33.51
34.67
35.15
35.18
34.97
34.63
34.14
33.39
32.34
31.04
29.66
28.42
27.44
26.77
26.29
25.86
25.31
24.50
23.35
21.78
19.73
17.16
14.16
10.90
7.63
4.61
1.97
-0.36
-2.60
-5.08
-8.00
-11.42
-15.19
-19.06
-22.75
-26.10
-29.10
-31.92
-34.85
-38.25
-42.45
-47.52
-53.20
-58.72
-62.89
-64.36
-62.06
-55.57
-45.32
-32.51
-18.71
-5.45
6.16
15.56
22.70
27.84
31.31
33.45
34.53
34.81
34.52
33.89
33.09
32.20
31.26
30.28
29.28
28.35
27.59
27.06
26.75
26.58
26.36
25.95
25.25
24.24
22.96
21.40
19.55
17.38
14.88
12.15
9.32
6.55
3.90
1.34
-1.24
-3.98
-6.92
-10.06
-13.29
-16.45
-19.47
-22.34
-25.14
-28.00
-31.05
-34.38
-38.10
-42.32
-47.09
-52.25
-57.27
-61.17
-62.69
-60.69
-54.59
-44.66
-32.07
-18.44
-5.43
5.84
14.88
21.78
26.91
30.61
33.12
34.55
35.04
34.81
34.16
33.33
32.42
31.39
30.10
28.51
26.71
24.96
23.53
22.60
22.12
21.89
21.63
21.12
20.27
19.08
17.56
15.71
13.50
10.95
8.19
5.39
2.76
0.36
-1.88
-4.23
-6.92
-10.10
-13.69
-17.45
-21.08
-24.37
-27.27
-29.93
-32.60
-35.63
-39.32
-43.83
-49.03
-54.36
-58.85
-61.27
-60.48
-55.82
-47.32
-35.84
-22.74
-9.55
2.41
12.34
19.91
25.23
28.65
30.56
31.35
31.35
30.80
29.90
28.79
27.56
26.28
24.97
23.63
22.29
21.01
19.82
18.72
17.66
16.52
15.23
13.73
12.03
10.16
8.12
5.85
3.29
0.38
-2.83
-6.22
-9.65
-12.96
-16.12
-19.14
-22.13
-25.21
-28.59
-32.46
-37.00
-42.21
-47.75
-52.86
-56.39
-57.15
-54.25
-47.49
-37.45
-25.31
-12.55
-0.50
9.94
18.33
24.63
29.05
31.91
33.62
34.52
34.91
34.97
34.77
34.25
33.29
31.86
30.00
27.94
25.96
24.33
23.18
22.46
21.94
21.28
20.23
18.64
16.57
14.20
11.72
9.23
6.74
4.12
1.27
-1.89
-5.37
-9.08
-12.90
-16.68
-20.31
-23.75
-27.06
-30.47
-34.28
-38.81
-44.13
-49.84
-55.01
-58.27
-58.24
-54.06
-45.75
-34.26
-21.19
-8.21
3.40
12.98
20.49
26.16
30.31
33.18
34.90
35.64
35.68
35.30
34.76
34.18
33.46
32.44
31.00
29.18
27.24
25.53
24.37
23.82
23.69
23.57
22.99
21.68
19.62
17.05
14.30
11.65
9.20
6.89
4.51
1.83
-1.30
-4.89
-8.82
-12.86
-16.78
-20.41
-23.67
-26.66
-29.56
-32.68
-36.35
-40.83
-46.10
-51.76
-56.90
-60.28
-60.61
-57.02
-49.38
-38.42
-25.50
-12.23
0.05
10.47
18.77
25.05
29.61
32.75
34.73
35.76
36.08
35.88
35.36
34.58
33.58
32.36
30.94
29.40
27.83
26.38
25.14
24.19
23.51
23.04
22.61
21.98
20.87
19.07
16.57
13.55
10.36
7.35
4.70
2.34
0.03
-2.54
-5.57
-9.07
-12.85
-16.63
-20.16
-23.35
-26.27
-29.12
-32.23
-35.92
-40.41
-45.68
-51.33
-56.52
-60.05
-60.70
-57.59
-50.52
-40.11
-27.63
-14.61
-2.44
7.98
16.31
22.65
27.29
30.52
32.54
33.54
33.70
33.32
32.65
31.93
31.23
30.50
29.62
28.54
27.28
25.95
24.64
23.36
21.99
20.36
18.39
16.12
13.70
11.36
9.20
7.18
5.06
2.60
-0.41
-3.92
-7.73
-11.55
-15.11
-18.36
-21.43
-24.62
-28.28
-32.69
-37.96
-43.93
-50.06
-55.46
-58.95
-59.39
-56.03
-48.80
-38.41
-26.16
-13.59
-2.00
7.80
15.60
21.56
26.04
29.35
31.72
33.26
34.09
34.33
34.15
33.67
32.95
31.99
30.78
29.35
27.83
26.44
25.37
24.78
24.62
24.67
24.53
23.78
22.13
19.56
16.32
12.82
9.52
6.66
4.20
1.83
-0.86
-4.21
-8.27
-12.80
-17.38
-21.58
-25.14
-28.10
-30.75
-33.58
-37.08
-41.64
-47.30
-53.62
-59.59
-63.80
-64.79
-61.53
-53.82
-42.42
-28.85
-14.88
-2.01
8.85
17.43
23.93
28.70
32.05
34.22
35.45
35.97
36.09
36.05
35.96
35.79
35.34
34.42
32.97
31.11
29.09
27.28
25.97
25.28
25.13
25.19
25.00
24.13
22.33
19.61
16.26
12.73
9.43
6.60
4.16
1.86
-0.66
-3.68
-7.24
-11.19
-15.24
-19.11
-22.59
-25.66
-28.45
-31.27
-34.49
-38.49
-43.49
-49.35
-55.47
-60.74
-63.79
-63.33
-58.59
-49.68
-37.57
-23.87
-10.24
1.97
12.06
19.91
25.75
29.91
32.70
34.37
35.17
35.38
35.25
34.93
34.46
33.78
32.83
31.66
30.39
29.17
28.13
27.33
26.79
26.44
26.18
25.84
25.22
24.07
22.21
19.64
16.53
13.22
10.10
7.41
5.18
3.18
1.07
-1.51
-4.74
-8.57
-12.76
-17.01
-21.02
-24.64
-27.86
-30.84
-33.88
-37.30
-41.44
-46.44
-52.10
-57.70
-62.09
-63.91
-62.00
-55.85
-45.87
-33.27
-19.72
-6.83
4.30
13.20
19.92
24.81
28.21
30.38
31.57
32.00
31.95
31.66
31.24
30.64
29.71
28.31
26.47
24.40
22.46
21.02
20.27
20.20
20.52
20.80
20.57
19.52
17.53
14.78
11.64
8.54
5.82
3.57
1.60
-0.45
-2.98
-6.16
-9.90
-13.84
-17.59
-20.86
-23.65
-26.24
-29.09
-32.69
-37.29
-42.81
-48.75
-54.23
-58.06
-59.09
-56.43
-49.85
-39.85
-27.57
-14.49
-2.03
8.83
17.61
24.27
29.05
32.24
34.16
35.09
35.32
35.08
34.57
33.86
32.96
31.83
30.48
29.00
27.52
26.19
25.13
24.39
23.94
23.66
23.30
22.58
21.24
19.11
16.28
13.01
9.72
6.76
4.36
2.43
0.68
-1.29
-3.85
-7.14
-11.07
-15.31
-19.48
-23.28
-26.59
-29.50
-32.28
-35.26
-38.80
-43.13
-48.28
-53.91
-59.21
-63.00
-63.90
-60.85
-53.53
-42.54
-29.27
-15.48
-2.72
8.07
16.64
23.24
28.27
32.04
34.66
36.17
36.64
36.29
35.45
34.41
33.34
32.28
31.16
29.95
28.67
27.45
26.41
25.65
25.17
24.85
24.54
24.03
23.16
21.79
19.87
17.40
14.53
11.47
8.49
5.76
3.31
1.00
-1.48
-4.42
-7.94
-11.91
-16.02
-19.88
-23.28
-26.18
-28.79
-31.42
-34.39
-38.01
-42.48
-47.84
-53.82
-59.70
-64.32
-66.33
-64.57
-58.52
-48.57
-35.87
-22.04
-8.60
3.33
13.24
21.04
26.93
31.17
33.99
35.63
36.36
36.48
36.28
35.96
35.60
35.15
34.48
33.46
32.08
30.47
28.84
27.45
26.46
25.88
25.53
25.15
24.43
23.13
21.14
18.54
15.55
12.48
9.62
7.14
5.00
2.96
0.68
-2.11
-5.52
-9.42
-13.56
-17.62
-21.40
-24.86
-28.10
-31.30
-34.72
-38.61
-43.18
-48.42
-54.00
-59.11
-62.64
-63.39
-60.48
-53.63
-43.31
-30.64
-17.05
-3.99
7.41
16.47
23.00
27.23
29.68
30.95
31.54
31.78
31.73
31.32
30.47
29.22
27.71
26.17
24.83
23.85
23.30
23.11
23.14
23.14
22.86
22.10
20.72
18.70
16.07
12.85
9.07
4.76
0.02
-4.99
-10.00
-14.73
-18.96
-22.59
-25.65
-28.32
-30.89
-33.70
-37.10
-41.25
-46.05
-50.93
-54.98
-57.03
-56.02
-51.38
-43.21
-32.38
-20.20
-8.09
2.80
11.86
18.94
24.26
28.15
30.92
32.81
33.97
34.56
34.72
34.54
34.08
33.30
32.16
30.67
28.92
27.11
25.38
23.87
22.54
21.32
20.06
18.69
17.19
15.55
13.76
11.77
9.45
6.69
3.44
-0.27
-4.31
-8.53
-12.77
-16.92
-20.93
-24.81
-28.72
-32.92
-37.70
-43.19
-49.15
-54.79
-58.89
-60.11
-57.43
-50.56
-40.10
-27.36
-13.94
-1.29
9.60
18.27
24.74
29.26
32.17
33.79
34.43
34.34
33.73
32.78
31.63
30.34
28.95
27.49
26.03
24.64
23.42
22.42
21.64
20.99
20.31
19.46
18.30
16.77
14.81
12.39
9.51
6.20
2.57
-1.21
-4.90
-8.36
-11.51
-14.44
-17.39
-20.67
-24.61
-29.51
-35.42
-42.10
-48.84
-54.52
-57.79
-57.47
-52.97
-44.52
-33.12
-20.29
-7.60
3.74
13.03
20.10
25.11
28.40
30.31
31.18
31.30
30.93
30.25
29.37
28.33
27.14
25.76
24.14
22.23
20.06
17.79
15.66
13.91
12.68
11.86
11.08
9.89
7.90
5.03
1.49
-2.31
-5.95
-9.23
-12.22
-15.20
-18.53
-22.53
-27.35
-32.93
-38.87
-44.43
-48.51
-49.99
-48.00
-42.28
-33.39
-22.48
-10.97
-0.09
9.41
17.29
23.63
28.60
32.26
34.59
35.58
35.38
34.32
32.80
31.19
29.69
28.31
26.90
25.34
23.56
21.65
19.77
18.11
16.74
15.63
14.60
13.43
11.86
9.69
6.83
3.30
-0.70
-4.89
-8.96
-12.68
-16.01
-19.11
-22.31
-25.98
-30.43
-35.73
-41.56
-47.15
-51.40
-53.09
-51.29
-45.69
-36.78
-25.71
-13.96
-2.84
6.82
14.70
20.91
25.70
29.26
31.75
33.30
34.07
34.26
34.07
33.58
32.84
31.84
30.57
29.10
27.55
26.02
24.57
23.23
21.95
20.69
19.39
17.97
16.30
14.27
11.80
8.88
5.58
2.03
-1.64
-5.29
-8.84
-12.23
-15.46
-18.60
-21.82
-25.38
-29.56
-34.51
-40.07
-45.65
-50.28
-52.81
-52.23
-48.03
-40.43
-30.27
-18.85
-7.48
2.78
11.35
18.08
23.13
26.79
29.34
30.97
31.85
32.09
31.83
31.20
30.30
29.20
27.91
26.42
24.81
23.20
21.80
20.78
20.18
19.84
19.45
18.67
17.32
15.41
13.14
10.79
8.49
6.21
3.79
1.06
-2.06
-5.48
-9.03
-12.51
-15.77
-18.77
-21.51
-24.10
-26.72
-29.66
-33.27
-37.76
-42.94
-48.12
-52.11
-53.58
-51.52
-45.64
-36.52
-25.45
-13.93
-3.20
6.00
13.44
19.26
23.64
26.72
28.61
29.43
29.38
28.74
27.78
26.67
25.52
24.35
23.19
22.07
21.02
20.06
19.19
18.40
17.73
17.17
16.65
16.01
14.98
13.35
11.04
8.25
5.38
2.77
0.67
-1.01
-2.60
-4.42
-6.61
-9.10
-11.76
-14.58
-17.74
-21.45
-25.73
-30.26
-34.56
-38.26
-41.31
-43.91
-46.25
-48.11
-48.69
-46.92
-42.01
-33.94
-23.58
-12.37
-1.78
7.21
14.28
19.64
23.68
26.69
28.83
30.03
30.21
29.47
28.03
26.28
24.61
23.25
22.19
21.25
20.16
18.76
17.08
15.33
13.76
12.53
11.63
10.85
9.89
8.48
6.49
3.90
0.85
-2.50
-5.97
-9.44
-12.85
-16.20
-19.52
-22.84
-26.25
-29.89
-33.93
-38.45
-43.28
-47.84
-51.22
-52.36
-50.39
-45.00
-36.56
-26.07
-14.77
-3.83
5.96
14.24
20.94
26.10
29.78
32.05
33.05
33.04
32.31
31.15
29.73
28.12
26.34
24.43
22.51
20.76
19.31
18.21
17.38
16.60
15.69
14.50
12.97
11.11
9.00
6.70
4.28
1.72
-1.03
-4.03
-7.29
-10.78
-14.35
-17.84
-21.10
-24.16
-27.17
-30.43
-34.28
-38.88
-44.05
-49.26
-53.57
-55.93
-55.40
-51.43
-44.08
-34.02
-22.34
-10.32
0.92
10.55
18.17
23.78
27.61
30.02
31.39
32.00
32.06
31.71
31.03
30.10
28.94
27.60
26.08
24.45
22.84
21.44
20.43
19.91
19.81
19.87
19.74
19.06
17.63
15.50
12.91
10.20
7.61
5.16
2.67
-0.15
-3.46
-7.21
-11.13
-14.87
-18.24
-21.24
-24.09
-27.10
-30.54
-34.56
-39.20
-44.30
-49.45
-53.84
-56.37
-55.88
-51.56
-43.32
-31.97
-18.96
-5.95
5.72
15.30
22.64
27.93
31.42
33.37
34.00
33.65
32.73
31.66
30.68
29.76
28.69
27.22
25.27
23.07
21.01
19.52
18.77
18.68
18.88
18.96
18.55
17.49
15.82
13.68
11.28
8.76
6.18
3.53
0.71
-2.34
-5.65
-9.16
-12.71
-16.11
-19.23
-22.03
-24.65
-27.30
-30.32
-33.98
-38.41
-43.46
-48.56
-52.78
-54.98
-54.12
-49.65
-41.68
-31.02
-18.91
-6.67
4.57
14.07
21.44
26.61
29.73
31.12
31.22
30.50
29.40
28.23
27.19
26.38
25.81
25.42
25.10
24.68
24.01
23.02
21.70
20.15
18.45
16.66
14.74
12.62
10.20
7.43
4.30
0.90
-2.68
-6.25
-9.67
-12.81
-15.64
-18.28
-20.97
-24.06
-27.89
-32.70
-38.41
-44.52
-50.09
-53.93
-54.87
-52.13
-45.61
-35.90
-24.19
-11.84
-0.15
9.99
18.13
24.21
28.43
31.07
32.47
32.94
32.72
32.02
30.98
29.71
28.26
26.69
25.06
23.39
21.71
20.01
18.29
16.61
15.04
13.68
12.56
11.54
10.37
8.77
6.51
3.58
0.15
-3.52
-7.22
-10.85
-14.39
-17.89
-21.36
-24.85
-28.46
-32.39
-36.86
-41.92
-47.24
-52.03
-55.14
-55.41
-52.02
-44.83
-34.48
-22.16
-9.32
2.75
13.17
21.53
27.85
32.37
35.41
37.28
38.20
38.37
37.92
36.95
35.55
33.75
31.64
29.33
27.00
24.86
23.08
21.71
20.67
19.76
18.75
17.43
15.73
13.68
11.36
8.84
6.16
3.33
0.33
-2.82
-6.09
-9.43
-12.81
-16.21
-19.65
-23.16
-26.87
-30.96
-35.60
-40.86
-46.45
-51.62
-55.21
-55.97
-52.96
-45.94
-35.52
-23.00
-9.96
2.19
12.48
20.53
26.39
30.36
32.81
34.02
34.26
33.69
32.50
30.89
29.06
27.25
25.60
24.15
22.81
21.40
19.80
18.01
16.17
14.49
13.15
12.13
11.28
10.33
9.02
7.20
4.78
1.81
-1.61
-5.30
-9.05
-12.66
-16.01
-19.09
-22.07
-25.16
-28.58
-32.52
-37.01
-41.91
-46.83
-51.08
-53.73
-53.80
-50.55
-43.73
-33.82
-21.82
-9.05
3.19
13.97
22.82
29.63
34.45
37.29
38.15
37.12
34.59
31.25
27.98
25.48
24.03
23.44
23.16
22.66
21.64
20.18
18.60
17.20
16.04
14.97
13.70
12.02
9.85
7.28
4.45
1.44
-1.72
-5.14
-8.86
-12.83
-16.84
-20.58
-23.88
-26.76
-29.57
-32.82
-37.02
-42.42
-48.79
-55.32
-60.75
-63.62
-62.64
-57.17
-47.41
-34.45
-19.91
-5.51
7.40
18.04
26.22
32.10
35.98
38.18
39.00
38.77
37.82
36.44
34.84
33.13
31.31
29.38
27.42
25.59
24.12
23.12
22.57
22.30
22.01
21.43
20.40
18.93
17.10
15.01
12.69
10.09
7.14
3.80
0.12
-3.77
-7.72
-11.57
-15.20
-18.61
-21.87
-25.19
-28.89
-33.28
-38.48
-44.19
-49.61
-53.51
-54.59
-51.90
-45.21
-35.15
-22.98
-10.21
1.84
12.27
20.69
27.07
31.58
34.45
35.95
36.35
35.94
35.00
33.75
32.33
30.76
29.06
27.22
25.29
23.36
21.56
19.97
18.60
17.37
16.13
14.73
13.09
11.18
8.99
6.53
3.79
0.76
-2.55
-6.06
-9.66
-13.22
-16.65
-19.90
-22.99
-26.01
-29.17
-32.69
-36.81
-41.57
-46.71
-51.52
-54.92
-55.71
-52.92
-46.21
-36.04
-23.61
-10.48
1.85
12.35
20.57
26.55
30.61
33.09
34.25
34.27
33.33
31.69
29.64
27.47
25.36
23.32
21.23
18.96
16.47
13.91
11.54
9.67
8.42
7.65
7.00
5.97
4.19
1.50
-1.94
-5.73
-9.46
-12.86
-15.90
-18.79
-21.92
-25.67
-30.27
-35.68
-41.50
-46.94
-50.95
-52.37
-50.25
-44.25
-34.78
-22.96
-10.31
1.68
12.02
20.30
26.63
31.29
34.53
36.44
37.08
36.59
35.26
33.47
31.55
29.66
27.77
25.77
23.57
21.20
18.87
16.82
15.28
14.32
13.80
13.36
12.57
11.01
8.47
5.03
1.01
-3.12
-6.96
-10.29
-13.14
-15.77
-18.55
-21.91
-26.20
-31.62
-38.05
-44.83
-50.88
-54.76
-55.15
-51.28
-43.25
-32.02
-19.16
-6.30
5.28
14.91
22.44
28.07
32.06
34.65
36.02
36.38
36.02
35.23
34.23
33.10
31.76
30.14
28.22
26.19
24.31
22.82
21.81
21.14
20.52
19.62
18.26
16.41
14.20
11.80
9.34
6.84
4.23
1.39
-1.79
-5.30
-9.07
-12.90
-16.61
-20.07
-23.30
-26.49
-29.96
-34.12
-39.20
-45.13
-51.37
-56.85
-60.22
-60.18
-55.92
-47.44
-35.61
-21.95
-8.16
4.31
14.62
22.52
28.18
32.01
34.37
35.59
35.92
35.61
34.90
33.99
32.98
31.87
30.63
29.21
27.65
26.07
24.62
23.45
22.65
22.17
21.84
21.39
20.52
19.03
16.87
14.18
11.26
8.45
5.99
3.87
1.90
-0.31
-3.09
-6.59
-10.69
-15.07
-19.33
-23.17
-26.47
-29.34
-32.04
-34.94
-38.39
-42.64
-47.71
-53.21
-58.29
-61.72
-62.19
-58.76
-51.19
-40.11
-26.83
-12.95
0.06
11.19
19.97
26.36
30.62
33.11
34.20
34.24
33.51
32.30
30.82
29.23
27.59
25.90
24.15
22.35
20.58
19.02
17.82
17.06
16.63
16.35
15.93
15.19
14.06
12.58
10.80
8.76
6.43
3.73
0.65
-2.70
-6.13
-9.42
-12.38
-14.96
-17.28
-19.59
-22.24
-25.55
-29.75
-34.85
-40.54
-46.16
-50.71
-53.02
-52.05
-47.28
-38.89
-27.86
-15.64
-3.74
6.69
15.11
21.50
26.20
29.53
31.71
32.81
32.88
32.03
30.54
28.74
26.96
25.37
23.97
22.63
21.21
19.60
17.87
16.17
14.72
13.61
12.79
11.99
10.88
9.16
6.74
3.69
0.26
-3.28
-6.71
-9.94
-13.02
-16.04
-19.13
-22.43
-26.10
-30.38
-35.44
-41.27
-47.46
-53.16
-57.15
-58.17
-55.33
-48.46
-38.22
-25.92
-13.13
-1.19
9.04
17.28
23.67
28.50
32.01
34.36
35.64
36.00
35.69
35.00
34.18
33.29
32.26
30.92
29.18
27.10
24.89
22.82
21.07
19.63
18.36
17.04
15.51
13.70
11.61
9.27
6.70
3.89
0.84
-2.41
-5.78
-9.19
-12.55
-15.85
-19.13
-22.49
-26.06
-30.06
-34.65
-39.88
-45.51
-50.85
-54.81
-56.15
-53.85
-47.54
-37.73
-25.65
-12.88
-0.89
9.39
17.61
23.89
28.55
31.84
33.92
34.90
34.93
34.26
33.18
31.94
30.60
29.14
27.49
25.68
23.85
22.20
20.91
19.99
19.31
18.61
17.67
16.30
14.51
12.40
10.12
7.77
5.34
2.74
-0.21
-3.60
-7.41
-11.44
-15.43
-19.13
-22.42
-25.43
-28.44
-31.90
-36.14
-41.29
-47.02
-52.50
-56.53
-57.82
-55.39
-48.94
-39.01
-26.78
-13.76
-1.33
9.54
18.35
25.02
29.68
32.56
33.95
34.20
33.70
32.81
31.79
30.72
29.54
28.17
26.60
25.00
23.62
22.70
22.31
22.29
22.25
21.79
20.63
18.74
16.31
13.63
10.97
8.46
6.09
3.74
1.26
-1.47
-4.55
-7.97
-11.63
-15.38
-19.05
-22.51
-25.81
-29.14
-32.83
-37.19
-42.37
-48.07
-53.54
-57.58
-58.86
-56.36
-49.73
-39.50
-26.94
-13.69
-1.25
9.40
17.91
24.40
29.14
32.38
34.23
34.78
34.21
32.84
31.06
29.21
27.45
25.80
24.16
22.46
20.68
18.88
17.14
15.54
14.12
12.85
11.67
10.47
9.10
7.35
5.10
2.30
-0.94
-4.37
-7.77
-10.96
-13.92
-16.77
-19.74
-23.10
-27.07
-31.76
-37.08
-42.64
-47.69
-51.19
-52.05
-49.45
-43.15
-33.64
-22.05
-9.83
1.72
11.73
19.82
26.03
30.54
33.56
35.22
35.66
35.07
33.74
32.01
30.17
28.35
26.63
24.96
23.33
21.75
20.24
18.84
17.56
16.36
15.22
14.04
12.73
11.11
8.99
6.27
2.93
-0.87
-4.88
-8.82
-12.51
-15.87
-18.98
-22.03
-25.29
-29.08
-33.70
-39.26
-45.51
-51.67
-56.51
-58.60
-56.79
-50.64
-40.61
-27.98
-14.40
-1.41
9.91
19.06
26.04
31.08
34.50
36.57
37.49
37.49
36.76
35.56
34.07
32.45
30.81
29.15
27.46
25.69
23.87
22.07
20.40
18.94
17.68
16.56
15.39
13.98
12.11
9.65
6.56
2.92
-1.10
-5.26
-9.32
-13.08
-16.49
-19.68
-22.93
-26.64
-31.14
-36.63
-42.88
-49.21
-54.51
-57.44
-56.85
-52.15
-43.51
-31.90
-18.78
-5.68
6.15
15.98
23.58
29.09
32.81
35.09
36.21
36.40
35.86
34.75
33.21
31.39
29.41
27.42
25.48
23.64
21.89
20.21
18.62
17.17
15.94
14.97
14.16
13.29
12.05
10.15
7.44
3.99
0.05
-4.02
-7.95
-11.56
-14.87
-18.02
-21.22
-24.75
-28.89
-33.84
-39.63
-45.89
-51.81
-56.19
-57.71
-55.37
-48.85
-38.67
-26.08
-12.67
0.12
11.22
20.14
26.78
31.28
33.93
35.04
35.04
34.37
33.48
32.63
31.85
30.98
29.77
28.10
26.09
24.02
22.20
20.84
19.90
19.20
18.44
17.40
16.00
14.27
12.31
10.20
7.98
5.61
3.03
0.15
-3.11
-6.72
-10.58
-14.51
-18.33
-21.91
-25.25
-28.54
-32.09
-36.25
-41.27
-47.14
-53.41
-59.14
-63.03
-63.70
-60.18
-52.26
-40.68
-26.92
-12.75
0.24
11.08
19.48
25.62
29.87
32.58
34.01
34.34
33.75
32.48
30.79
28.91
27.00
25.16
23.44
21.86
20.40
19.06
17.81
16.63
15.51
14.41
13.30
12.13
10.80
9.19
7.16
4.63
1.56
-1.90
-5.56
-9.16
-12.51
-15.56
-18.42
-21.31
-24.55
-28.42
-33.11
-38.59
-44.46
-49.91
-53.75
-54.73
-51.87
-44.89
-34.35
-21.54
-8.14
4.32
14.79
22.88
28.71
32.67
35.16
36.47
36.75
36.15
34.83
33.04
31.04
29.04
27.14
25.39
23.77
22.27
20.92
19.73
18.67
17.65
16.55
15.24
13.67
11.80
9.66
7.23
4.51
1.46
-1.91
-5.56
-9.36
-13.16
-16.83
-20.31
-23.70
-27.20
-31.12
-35.75
-41.22
-47.41
-53.76
-59.31
-62.80
-63.01
-59.08
-50.89
-39.18
-25.36
-11.10
2.10
13.28
22.12
28.72
33.41
36.49
38.19
38.70
38.26
37.18
35.77
34.27
32.76
31.20
29.52
27.73
25.97
24.41
23.17
22.20
21.29
20.16
18.61
16.61
14.31
11.96
9.69
7.50
5.21
2.58
-0.54
-4.19
-8.21
-12.36
-16.41
-20.17
-23.62
-26.89
-30.28
-34.20
-39.01
-44.77
-51.07
-56.95
-61.04
-61.94
-58.66
-51.00
-39.63
-25.91
-11.54
1.96
13.49
22.55
29.14
33.57
36.27
37.66
38.06
37.72
36.80
35.40
33.60
31.49
29.20
26.89
24.73
22.85
21.30
20.03
18.94
17.94
16.94
15.88
14.71
13.34
11.64
9.49
6.79
3.54
-0.15
-4.07
-8.03
-11.87
-15.52
-19.04
-22.55
-26.22
-30.28
-34.93
-40.36
-46.48
-52.88
-58.61
-62.40
-62.89
-59.12
-50.95
-39.16
-25.26
-11.06
1.88
12.59
20.72
26.45
30.16
32.22
32.97
32.65
31.54
29.95
28.18
26.42
24.71
22.99
21.12
19.10
17.03
15.15
13.74
12.89
12.52
12.31
11.83
10.68
8.63
5.70
2.18
-1.53
-5.05
-8.15
-10.86
-13.43
-16.27
-19.80
-24.34
-29.96
-36.32
-42.62
-47.70
-50.26
-49.26
-44.23
-35.52
-24.20
-11.72
0.49
11.36
20.36
27.34
32.39
35.67
37.31
37.49
36.46
34.61
32.35
30.10
28.08
26.35
24.75
23.07
21.17
19.07
16.94
15.08
13.69
12.78
12.09
11.21
9.67
7.19
3.74
-0.37
-4.71
-8.85
-12.50
-15.66
-18.61
-21.79
-25.72
-30.76
-36.90
-43.66
-50.05
-54.73
-56.36
-54.01
-47.49
-37.41
-25.09
-12.04
0.31
11.00
19.58
25.97
30.35
32.96
34.12
34.15
33.41
32.26
30.96
29.60
28.07
26.21
23.85
21.00
17.84
14.69
11.85
9.46
7.41
5.39
3.05
0.17
-3.21
-6.88
-10.52
-13.90
-16.91
-19.65
-22.28
-25.02
-28.12
-31.80
-36.15
-40.91
-45.34
-48.26
-48.32
-44.48
-36.46
-24.92
-11.30
2.62
15.28
25.65
33.35
38.47
41.39
42.59
42.52
41.59
40.07
38.11
35.74
32.94
29.75
26.31
22.86
19.63
16.79
14.36
12.25
10.33
8.46
6.49
4.34
1.89
-0.92
-4.09
-7.57
-11.30
-15.25
-19.56
-24.42
-30.02
-36.29
-42.66
-48.08
-51.17
-50.69
-45.93
-37.08
-25.18
-11.85
1.24
12.76
21.98
28.72
33.19
35.75
36.75
36.51
35.30
33.36
30.91
28.14
25.21
22.27
19.40
16.69
14.19
11.89
9.76
7.70
5.55
3.22
0.65
-2.18
-5.18
-8.26
-11.34
-14.41
-17.56
-20.99
-24.97
-29.77
-35.44
-41.58
-47.28
-51.21
-52.02
-48.70
-41.11
-29.97
-16.74
-3.14
9.33
19.69
27.56
32.99
36.29
37.82
37.94
36.98
35.27
33.12
30.73
28.18
25.41
22.33
18.93
15.37
11.98
9.15
7.13
5.94
5.28
4.62
3.41
1.27
-1.88
-5.79
-10.02
-14.08
-17.68
-20.83
-23.86
-27.30
-31.70
-37.33
-43.97
-50.81
-56.52
-59.57
-58.65
-53.14
-43.34
-30.41
-16.05
-2.02
10.34
20.29
27.63
32.54
35.32
36.33
35.97
34.69
32.92
31.00
29.06
27.04
24.74
22.06
19.06
16.03
13.35
11.30
9.93
8.96
7.97
6.53
4.37
1.46
-2.02
-5.84
-9.74
-13.51
-17.09
-20.53
-24.07
-28.08
-32.94
-38.74
-45.02
-50.66
-54.09
-53.79
-48.86
-39.44
-26.71
-12.50
1.38
13.56
23.42
30.93
36.30
39.77
41.47
41.48
40.01
37.45
34.35
31.24
28.45
25.99
23.69
21.29
18.67
15.92
13.34
11.24
9.78
8.89
8.20
7.22
5.49
2.79
-0.84
-5.09
-9.51
-13.71
-17.50
-20.98
-24.53
-28.66
-33.82
-40.18
-47.40
-54.59
-60.36
-63.17
-61.73
-55.49
-44.89
-31.21
-16.25
-1.75
11.05
21.56
29.72
35.76
39.91
42.37
43.34
43.09
41.98
40.37
38.51
36.53
34.43
32.18
29.78
27.25
24.68
22.17
19.85
17.83
16.17
14.81
13.52
11.95
9.72
6.61
2.65
-1.83
-6.39
-10.63
-14.41
-17.84
-21.27
-25.08
-29.60
-35.02
-41.35
-48.32
-55.32
-61.34
-65.00
-64.92
-60.15
-50.60
-37.20
-21.65
-5.94
8.26
19.98
29.01
35.63
40.31
43.43
45.23
45.88
45.53
44.35
42.53
40.26
37.67
34.90
32.09
29.41
27.01
24.99
23.37
22.07
20.90
19.65
18.08
16.03
13.49
10.61
7.59
4.62
1.72
-1.25
-4.51
-8.21
-12.33
-16.68
-20.98
-25.01
-28.73
-32.31
-36.09
-40.51
-45.89
-52.25
-59.13
-65.47
-69.79
-70.52
-66.49
-57.42
-44.02
-27.87
-10.93
4.98
18.62
29.39
37.26
42.52
45.55
46.75
46.54
45.33
43.52
41.47
39.35
37.25
35.12
32.95
30.75
28.59
26.59
24.87
23.48
22.39
21.43
20.36
18.93
16.96
14.44
11.53
8.49
5.60
2.96
0.43
-2.28
-5.52
-9.49
-14.12
-19.08
-23.93
-28.27
-31.97
-35.25
-38.63
-42.77
-48.13
-54.72
-61.92
-68.46
-72.69
-72.99
-68.28
-58.44
-44.42
-27.97
-11.15
4.26
17.13
27.08
34.26
39.04
41.77
42.72
42.15
40.40
37.95
35.28
32.75
30.48
28.33
26.08
23.54
20.73
17.82
15.15
12.99
11.46
10.46
9.65
8.60
6.90
4.35
0.98
-2.96
-7.12
-11.19
-15.04
-18.68
-22.34
-26.31
-30.88
-36.26
-42.44
-49.03
-55.15
-59.51
-60.69
-57.58
-49.82
-38.01
-23.54
-8.21
6.35
19.03
29.33
37.24
42.91
46.54
48.27
48.33
47.09
45.06
42.74
40.50
38.46
36.51
34.45
32.09
29.39
26.47
23.55
20.91
18.78
17.23
16.13
15.16
13.88
11.89
8.97
5.22
0.99
-3.30
-7.30
-10.91
-14.21
-17.48
-21.07
-25.31
-30.48
-36.58
-43.20
-49.33
-53.44
-53.83
-49.14
-38.94
-23.92
-5.75
13.46
31.77
47.84
61.07
71.46
79.35
85.16
89.28
92.03
93.67
94.42
94.45
93.87
92.76
91.15
89.06
86.55
83.63
80.38
76.82
72.97
68.82
64.34
59.45
54.13
48.40
42.33
36.04
29.58
22.93
15.94
8.44
0.33
-8.31
-17.17
-25.84
-33.98
-41.47
-48.49
-55.39
-62.44
-69.50
-75.95
-80.68
-82.44
-80.24
-73.69
-63.23
-49.98
-35.43
-21.06
-8.02
3.02
11.81
18.36
22.82
25.38
26.32
26.06
25.08
23.86
22.71
21.66
20.56
19.14
17.26
14.88
12.10
8.92
5.14
0.35
-5.90
-13.87
-23.34
-33.60
-43.63
-52.51
-59.82
-65.78
-71.22
-77.18
-84.45
-93.20
-102.96
-112.84
-121.96
-129.93
-137.01
-143.91
-151.42
-159.98
-169.35
-178.71
-186.85
-192.54
-194.87
-193.46
-188.54
-180.89
-171.55
-161.41
-150.84
-139.39
-125.91
-108.91
-87.10
-59.88
-27.88
6.96
41.66
72.87
97.86
115.44
126.37
133.06
138.56
145.39
154.62
165.85
177.70
188.80
198.37
206.38
213.22
219.17
224.20
228.06
230.60
232.05
233.01
234.22
236.17
238.72
240.88
241.05
237.44
228.64
214.07
194.09
169.82
142.77
114.66
87.29
62.48
41.73
25.88
14.73
6.96
0.50
-6.81
-16.36
-28.38
-42.16
-56.69
-71.41
-86.49
-102.67
-120.76
-141.32
-164.16
-188.25
-212.10
-234.28
-253.85
-270.67
-285.35
-299.08
-313.67
-330.43
-349.43
-369.47
-388.43
-403.77
-412.94
-413.77
-404.88
-387.04
-361.93
-331.39
-297.23
-261.18
-224.82
-189.25
-155.07
-122.75
-94.55
-72.41
-56.58
-45.82
-38.17
-31.71
-24.80
-16.39
-6.32
2.63
7.71
8.22
5.22
0.58
-3.75
-5.75
-3.54
16.58
58.54
114.50
169.99
213.25
240.43
253.77
257.98
257.19
253.82
248.46
240.22
230.73
223.05
219.50
220.02
222.63
224.37
222.87
216.01
200.64
178.82
154.61
131.60
111.63
95.64
83.88
76.13
70.70
65.56
59.87
53.32
46.09
35.99
22.99
8.89
-3.68
-13.38
-20.21
-24.11
-25.25
-24.13
-20.75
-15.84
-10.42
-5.51
-2.04
-0.41
-0.08
-0.17
0.31
0.50
0.55
0.68
0.98
1.39
1.77
2.22
2.80
3.41
3.89
4.38
4.94
5.53
6.03
6.33
6.40
6.16
5.48
4.12
2.10
-0.53
-3.70
-7.25
-10.96
-14.57
-17.92
-20.98
-23.98
-27.18
-30.97
-35.74
-41.59
-48.12
-54.38
-58.97
-60.42
-57.69
-50.48
-39.41
-25.82
-11.31
2.63
15.00
25.31
33.46
39.59
43.94
46.72
48.12
48.37
47.71
46.39
44.65
42.70
40.64
38.48
36.14
33.54
30.72
27.83
25.13
22.90
21.21
19.95
18.76
17.21
14.94
11.80
7.92
3.64
-0.66
-4.65
-8.22
-11.44
-14.55
-17.87
-21.72
-26.34
-31.78
-37.80
-43.85
-48.99
-52.13
-52.28
-48.89
-42.06
-32.57
-21.60
-10.41
-0.04
8.91
16.23
21.96
26.26
29.28
31.15
32.02
32.12
31.72
31.05
30.24
29.31
28.15
26.67
24.85
22.79
20.72
18.89
17.43
16.33
15.37
14.24
12.60
10.26
7.23
3.69
-0.03
-3.61
-6.85
-9.79
-12.64
-15.75
-19.46
-23.94
-29.14
-34.71
-40.00
-44.12
-46.16
-45.36
-41.41
-34.58
-25.69
-15.86
-6.24
2.34
9.44
15.03
19.29
22.45
24.74
26.32
27.34
27.95
28.23
28.21
27.85
27.11
25.97
24.53
22.99
21.51
20.22
19.11
18.08
16.98
15.76
14.37
12.85
11.14
9.15
6.79
3.99
0.87
-2.38
-5.52
-8.41
-11.07
-13.63
-16.29
-19.21
-22.54
-26.40
-30.84
-35.82
-40.99
-45.67
-48.88
-49.61
-47.18
-41.52
-33.28
-23.58
-13.70
-4.64
3.06
9.30
14.26
18.13
21.04
23.02
24.13
24.56
24.55
24.39
24.29
24.26
24.23
24.01
23.50
22.71
21.74
20.75
19.89
19.20
18.67
18.17
17.59
16.81
15.75
14.34
12.54
10.38
7.99
5.55
3.27
1.31
-0.36
-1.94
-3.73
-6.02
-8.92
-12.34
-15.99
-19.52
-22.69
-25.39
-27.75
-30.04
-32.59
-35.73
-39.60
-44.07
-48.61
-52.32
-54.12
-53.10
-48.80
-41.44
-31.88
-21.33
-11.04
-1.95
5.44
11.05
15.12
17.99
20.03
21.52
22.59
23.33
23.74
23.83
23.68
23.34
22.90
22.36
21.70
20.89
19.97
19.02
18.16
17.48
16.96
16.48
15.87
14.98
13.73
12.17
10.41
8.59
6.83
5.18
3.61
2.06
0.36
-1.59
-3.88
-6.52
-9.42
-12.44
-15.43
-18.25
-20.86
-23.31
-25.71
-28.23
-31.09
-34.45
-38.38
-42.70
-46.95
-50.35
-51.96
-50.95
-46.86
-39.87
-30.73
-20.62
-10.72
-1.94
5.32
11.06
15.49
18.86
21.30
22.88
23.69
23.90
23.72
23.28
22.62
21.65
20.33
18.73
17.08
15.68
14.73
14.25
14.08
13.92
13.49
12.62
11.30
9.63
7.80
5.96
4.20
2.45
0.55
-1.69
-4.39
-7.50
-10.83
-14.10
-17.06
-19.64
-22.01
-24.48
-27.42
-31.06
-35.35
-39.86
-43.81
-46.23
-46.20
-43.19
-37.19
-28.82
-19.08
-9.10
0.17
8.14
14.57
19.50
23.07
25.46
26.90
27.61
27.85
27.81
27.59
27.15
26.41
25.35
24.05
22.73
21.60
20.77
20.19
19.66
18.97
17.98
16.63
14.97
13.10
11.11
9.09
7.04
4.93
2.68
0.20
-2.59
-5.69
-9.03
-12.47
-15.87
-19.16
-22.33
-25.49
-28.82
-32.57
-36.90
-41.76
-46.71
-50.94
-53.38
-53.04
-49.34
-42.38
-32.92
-22.13
-11.24
-1.23
7.33
14.24
19.57
23.46
26.12
27.77
28.67
29.09
29.25
29.28
29.16
28.82
28.12
27.02
25.59
24.00
22.49
21.26
20.40
19.86
19.43
18.87
17.92
16.48
14.59
12.40
10.15
8.01
6.05
4.15
2.12
-0.30
-3.26
-6.71
-10.43
-14.09
-17.43
-20.36
-23.05
-25.88
-29.28
-33.53
-38.66
-44.24
-49.48
-53.34
-54.75
-52.96
-47.77
-39.59
-29.40
-18.39
-7.71
1.82
9.76
16.04
20.77
24.18
26.53
28.10
29.11
29.75
30.09
30.14
29.81
29.09
27.99
26.66
25.25
23.94
22.84
22.00
21.39
20.92
20.42
19.69
18.54
16.86
14.69
12.18
9.55
6.98
4.53
2.13
-0.37
-3.12
-6.19
-9.56
-13.09
-16.60
-19.89
-22.85
-25.53
-28.15
-31.10
-34.76
-39.25
-44.28
-49.03
-52.36
-53.10
-50.47
-44.36
-35.39
-24.67
-13.53
-3.13
5.78
12.90
18.27
22.16
24.86
26.59
27.52
27.81
27.61
27.08
26.35
25.47
24.46
23.33
22.11
20.90
19.81
18.90
18.17
17.56
16.94
16.20
15.24
13.99
12.39
10.43
8.10
5.48
2.65
-0.28
-3.21
-6.14
-9.06
-11.96
-14.88
-17.88
-21.13
-24.90
-29.41
-34.62
-40.10
-44.95
-48.02
-48.24
-45.04
-38.52
-29.46
-19.03
-8.44
1.31
9.63
16.30
21.35
25.01
27.55
29.22
30.25
30.74
30.75
30.29
29.38
28.07
26.51
24.85
23.27
21.90
20.82
20.00
19.35
18.71
17.87
16.74
15.25
13.46
11.45
9.28
6.92
4.30
1.32
-2.02
-5.59
-9.18
-12.59
-15.70
-18.58
-21.45
-24.62
-28.38
-32.96
-38.34
-44.20
-49.86
-54.25
-56.23
-54.82
-49.61
-40.95
-29.96
-18.08
-6.73
3.15
11.17
17.45
22.31
26.07
28.92
30.96
32.31
33.10
33.52
33.71
33.70
33.44
32.82
31.82
30.51
29.08
27.80
26.87
26.40
26.27
26.21
25.85
24.86
23.12
20.73
17.99
15.28
12.88
10.86
9.04
7.11
4.71
1.64
-2.12
-6.33
-10.65
-14.75
-18.42
-21.66
-24.65
-27.69
-31.11
-35.20
-40.09
-45.61
-51.21
-55.92
-58.55
-57.98
-53.57
-45.49
-34.68
-22.61
-10.78
-0.33
8.24
14.91
19.98
23.82
26.68
28.78
30.28
31.31
31.98
32.31
32.27
31.77
30.84
29.57
28.21
27.03
26.24
25.88
25.89
26.07
26.20
26.10
25.63
24.73
23.38
21.64
19.58
17.30
14.93
12.55
10.19
7.86
5.54
3.24
0.95
-1.36
-3.76
-6.37
-9.30
-12.59
-16.16
-19.79
-23.26
-26.39
-29.23
-31.96
-34.93
-38.50
-42.87
-47.95
-53.20
-57.69
-60.24
-59.75
-55.58
-47.82
-37.26
-25.24
-13.20
-2.26
6.94
14.27
19.93
24.20
27.28
29.33
30.53
31.08
31.27
31.28
31.20
30.94
30.38
29.49
28.39
27.33
26.56
26.19
26.11
26.08
25.85
25.28
24.39
23.32
22.17
20.96
19.55
17.78
15.55
12.91
10.02
7.16
4.53
2.20
0.07
-2.08
-4.47
-7.21
-10.29
-13.56
-16.86
-20.08
-23.18
-26.17
-29.12
-32.14
-35.38
-39.02
-43.16
-47.69
-52.12
-55.60
-57.08
-55.62
-50.76
-42.70
-32.34
-20.95
-9.84
0.02
8.13
14.44
19.16
22.57
24.89
26.29
26.92
27.00
26.79
26.52
26.31
26.08
25.64
24.83
23.64
22.22
20.87
19.87
19.35
19.26
19.35
19.31
18.84
17.75
16.02
13.81
11.39
9.05
6.95
5.05
3.13
0.89
-1.88
-5.17
-8.78
-12.41
-15.84
-19.01
-22.04
-25.10
-28.36
-31.98
-36.08
-40.71
-45.73
-50.68
-54.68
-56.57
-55.36
-50.52
-42.32
-31.79
-20.31
-9.18
0.68
8.93
15.57
20.78
24.75
27.59
29.45
30.49
30.94
31.00
30.80
30.38
29.74
28.88
27.83
26.67
25.51
24.49
23.69
23.17
22.86
22.61
22.20
21.42
20.18
18.54
16.62
14.56
12.47
10.36
8.23
6.05
3.79
1.36
-1.34
-4.41
-7.82
-11.43
-14.99
-18.28
-21.18
-23.77
-26.29
-29.03
-32.24
-36.10
-40.64
-45.71
-50.87
-55.35
-58.13
-58.12
-54.56
-47.34
-37.11
-25.14
-12.93
-1.76
7.60
14.93
20.45
24.50
27.39
29.36
30.55
31.15
31.34
31.28
31.05
30.62
29.97
29.09
28.09
27.11
26.31
25.77
25.46
25.25
25.00
24.57
23.90
22.95
21.73
20.24
18.49
16.48
14.28
11.92
9.48
7.00
4.53
2.04
-0.50
-3.18
-6.03
-9.07
-12.26
-15.53
-18.78
-21.95
-25.00
-27.96
-30.94
-34.17
-37.91
-42.41
-47.61
-53.05
-57.80
-60.59
-60.24
-56.08
-48.23
-37.61
-25.63
-13.74
-3.02
6.00
13.25
18.87
23.07
25.99
27.79
28.71
29.06
29.14
29.14
29.04
28.68
27.89
26.61
24.99
23.31
21.90
20.97
20.56
20.49
20.44
20.09
19.21
17.72
15.74
13.42
10.96
8.46
5.93
3.32
0.60
-2.26
-5.20
-8.15
-11.03
-13.79
-16.42
-18.95
-21.53
-24.40
-27.87
-32.18
-37.33
-42.89
-47.94
-51.34
-51.93
-49.03
-42.58
-33.29
-22.33
-11.02
-0.50
8.52
15.77
21.28
25.27
28.00
29.71
30.59
30.80
30.49
29.82
28.91
27.88
26.78
25.67
24.60
23.59
22.70
21.93
21.24
20.49
19.50
18.10
16.26
14.11
11.87
9.79
7.93
6.17
4.22
1.73
-1.47
-5.33
-9.58
-13.84
-17.81
-21.41
-24.79
-28.27
-32.19
-36.83
-42.24
-48.16
-53.98
-58.77
-61.42
-60.99
-56.92
-49.37
-39.18
-27.72
-16.41
-6.39
1.78
8.10
12.92
16.65
19.61
21.86
23.34
23.90
23.50
22.27
20.55
18.81
17.57
17.21
17.90
19.50
21.63
23.80
25.58
26.63
26.84
26.21
24.86
23.03
21.00
19.15
17.81
17.15
17.11
17.37
17.46
16.95
15.64
13.59
11.13
8.65
6.43
4.54
2.79
0.87
-1.46
-4.32
-7.58
-11.01
-14.33
-17.40
-20.19
-22.79
-25.43
-28.36
-31.81
-35.95
-40.69
-45.56
-49.72
-52.04
-51.45
-47.32
-39.79
-29.72
-18.44
-7.31
2.66
11.02
17.72
22.95
26.94
29.87
31.87
33.12
33.79
34.01
33.80
33.13
31.93
30.25
28.31
26.45
25.00
24.17
23.88
23.93
23.98
23.75
23.05
21.85
20.20
18.20
15.97
13.58
11.05
8.32
5.34
2.06
-1.50
-5.25
-9.03
-12.67
-16.08
-19.25
-22.31
-25.51
-29.11
-33.23
-37.72
-42.04
-45.32
-46.56
-44.95
-40.25
-32.88
-23.83
-14.34
-5.48
2.10
8.21
12.96
16.57
19.20
20.89
21.68
21.66
21.00
19.90
18.53
16.96
15.20
13.25
11.14
8.98
6.95
5.25
4.03
3.33
3.02
2.81
2.37
1.39
-0.29
-2.64
-5.45
-8.38
-11.11
-13.45
-15.35
-16.95
-18.48
-20.26
-22.55
-25.52
-29.10
-32.93
-36.30
-38.24
-37.77
-34.22
-27.53
-18.39
-8.13
1.69
9.66
14.97
17.57
17.96
17.00
15.46
13.87
12.40
10.96
9.35
7.44
5.21
2.71
0.08
-2.54
-4.95
-6.93
-8.24
-8.67
-8.17
-6.93
-5.37
-4.02
-3.38
-3.71
-4.98
-6.94
-9.21
-11.47
-13.54
-15.36
-16.96
-18.45
-19.94
-21.57
-23.47
-25.75
-28.58
-32.17
-36.72
-42.25
-48.40
-54.30
-58.59
-59.81
-56.89
-49.60
-38.69
-25.61
-12.00
0.89
12.40
22.47
31.33
39.22
46.17
52.12
56.99
60.81
63.75
66.01
67.74
68.99
69.70
69.83
69.37
68.46
67.36
66.38
65.75
65.54
65.64
65.76
65.58
64.83
63.35
61.09
58.06
54.31
49.93
45.00
39.69
34.13
28.45
22.72
16.99
11.34
5.89
0.82
-3.75
-7.85
-11.74
-15.85
-20.66
-26.55
-33.65
-41.68
-49.93
-57.36
-62.69
-64.80
-62.99
-57.23
-48.21
-37.14
-25.39
-14.16
-4.27
3.90
10.21
14.71
17.53
18.93
19.28
19.07
18.73
18.54
18.48
18.34
17.83
16.78
15.28
13.68
12.44
11.91
12.19
13.08
14.15
14.93
15.03
14.23
12.58
10.25
7.53
4.70
1.94
-0.72
-3.41
-6.30
-9.52
-13.08
-16.86
-20.61
-24.12
-27.27
-30.10
-32.84
-35.86
-39.53
-44.02
-49.18
-54.32
-58.39
-60.16
-58.65
-53.49
-45.02
-34.28
-22.58
-11.24
-1.18
7.12
13.59
18.40
21.76
23.88
24.91
25.01
24.40
23.37
22.21
21.13
20.18
19.24
18.10
16.64
14.91
13.19
11.82
11.06
10.90
11.00
10.88
10.05
8.26
5.59
2.32
-1.16
-4.56
-7.74
-10.72
-13.55
-16.32
-19.10
-22.01
-25.26
-29.08
-33.61
-38.71
-43.86
-48.14
-50.45
-49.86
-45.88
-38.67
-28.98
-17.95
-6.83
3.34
11.90
18.57
23.43
26.79
29.04
30.52
31.44
31.86
31.74
31.08
29.96
28.51
26.92
25.34
23.84
22.46
21.21
20.15
19.29
18.57
17.83
16.84
15.40
13.45
11.11
8.58
6.05
3.58
1.06
-1.71
-4.87
-8.42
-12.16
-15.81
-19.14
-22.08
-24.82
-27.68
-31.05
-35.17
-40.05
-45.31
-50.23
-53.81
-55.00
-52.99
-47.49
-38.90
-28.24
-16.82
-5.87
3.76
11.76
18.19
23.29
27.28
30.23
32.15
33.07
33.14
32.61
31.76
30.79
29.79
28.77
27.69
26.57
25.49
24.53
23.76
23.15
22.59
21.97
21.19
20.23
19.10
17.75
16.11
14.08
11.64
8.89
6.04
3.32
0.90
-1.23
-3.23
-5.36
-7.82
-10.72
-13.98
-17.41
-20.76
-23.80
-26.46
-28.80
-31.05
-33.54
-36.62
-40.46
-45.02
-49.88
-54.25
-57.09
-57.31
-54.17
-47.50
-37.85
-26.36
-14.43
-3.30
6.24
13.92
19.85
24.31
27.54
29.71
30.96
31.45
31.37
30.93
30.24
29.32
28.14
26.72
25.20
23.81
22.79
22.28
22.26
22.53
22.84
22.92
22.58
21.75
20.44
18.75
16.82
14.78
12.73
10.72
8.73
6.70
4.55
2.25
-0.13
-2.51
-4.83
-7.12
-9.49
-12.09
-15.02
-18.24
-21.56
-24.71
-27.48
-29.82
-31.92
-34.14
-36.88
-40.42
-44.70
-49.27
-53.24
-55.47
-54.91
-50.93
-43.56
-33.53
-22.01
-10.28
0.62
10.00
17.55
23.19
27.02
29.21
30.08
30.03
29.48
28.79
28.15
27.57
26.96
26.19
25.20
24.04
22.85
21.78
20.91
20.27
19.78
19.33
18.83
18.21
17.42
16.46
15.26
13.78
11.98
9.89
7.61
5.25
2.92
0.67
-1.53
-3.70
-5.92
-8.24
-10.75
-13.46
-16.34
-19.27
-22.05
-24.51
-26.60
-28.50
-30.54
-33.13
-36.51
-40.64
-45.09
-49.12
-51.83
-52.33
-50.01
-44.67
-36.63
-26.67
-15.84
-5.25
4.22
12.04
18.08
22.49
25.56
27.56
28.66
29.01
28.70
27.89
26.72
25.36
