1650257964.00
64.000000
-0.00
-0.00
-0.00
-0.00
-0.00
-0.00
-0.00
-0.00
-0.00
-0.00
0.00
0.01
0.01
-0.00
-0.03
-0.05
-0.05
0.00
0.13
0.36
0.66
1.01
1.37
1.72
2.06
2.40
2.79
3.24
3.80
4.42
5.06
5.66
6.20
6.68
7.15
7.68
8.31
9.14
10.09
11.04
11.88
12.56
13.14
13.76
14.65
15.96
17.91
20.32
22.90
25.38
27.58
29.57
31.68
34.32
37.81
42.54
48.15
54.10
59.83
64.97
69.58
74.14
79.34
85.71
93.76
103.00
112.62
121.73
129.77
136.75
143.30
150.75
157.77
166.64
177.95
191.79
206.97
220.57
228.25
225.36
208.53
176.87
132.76
80.05
23.07
-34.94
-92.44
-149.16
-205.23
-260.37
-313.74
-363.87
-409.83
-450.91
-486.50
-515.74
-537.23
-549.22
-549.96
-538.37
-514.21
-478.67
-433.88
-382.45
-327.02
-269.84
-212.63
-156.66
-102.96
-52.38
-5.91
35.59
71.45
101.38
125.52
144.36
158.62
169.01
176.18
180.54
182.38
181.93
179.44
175.21
169.64
163.13
156.03
148.63
141.09
133.52
125.93
118.33
110.71
103.12
95.62
88.29
81.26
74.61
68.39
62.56
57.04
51.70
46.44
41.26
36.27
31.67
27.64
24.28
21.48
19.02
16.57
13.88
10.94
7.94
5.29
3.37
2.38
2.15
2.22
1.99
1.02
-0.76
-2.99
-4.97
-6.09
-6.01
-4.92
-3.51
-2.54
-2.68
-4.18
-6.89
-10.22
-13.30
-15.03
-14.28
-10.27
-3.04
6.15
14.99
20.82
21.74
17.45
9.38
0.02
-8.26
-14.19
-17.92
-20.47
-22.92
-25.71
-28.35
-29.85
-29.31
-26.45
-21.84
-16.74
-12.49
-9.85
-8.76
-8.13
-6.39
-2.23
4.75
13.78
23.26
31.38
36.88
39.28
38.91
36.48
32.82
28.72
24.92
22.04
20.56
20.64
22.11
24.49
27.11
29.26
30.29
29.65
26.95
22.06
15.11
6.64
-2.40
-10.68
-16.82
-19.69
-18.88
-14.84
-8.80
-2.26
3.60
8.37
12.46
16.60
21.24
26.05
29.97
31.69
30.35
26.03
19.78
13.12
7.28
2.85
-0.63
-3.90
-7.60
-11.80
-15.98
-19.33
-21.23
-21.52
-20.56
-18.98
-17.42
-16.26
-15.59
-15.33
-15.27
-15.11
-14.52
-13.16
-10.82
-7.63
-3.95
-0.39
2.45
4.11
4.41
3.33
0.90
-2.86
-7.83
-13.55
-19.09
-23.18
-24.49
-22.21
-16.29
-7.62
2.22
11.31
17.90
20.78
19.67
15.21
8.89
2.65
-1.72
-3.19
-1.83
1.38
4.96
7.44
7.83
5.78
1.70
-3.66
-9.47
-15.11
-20.00
-23.56
-25.15
-24.27
-20.72
-14.42
-5.81
4.16
13.23
18.85
18.99
12.93
1.52
-13.17
-28.00
-40.17
-48.43
-53.35
-56.61
-60.08
-64.87
-71.18
-78.45
-84.58
-86.86
-83.11
-72.30
-54.69
-31.81
-5.49
21.04
41.37
51.10
50.85
45.05
38.12
32.05
26.03
18.68
9.80
-3.44
-22.58
-47.03
-74.29
-100.51
-121.43
-133.38
-132.23
-115.67
-86.54
-50.78
-14.97
16.11
40.83
60.87
80.38
107.01
146.62
199.98
263.03
327.86
384.69
423.87
438.21
409.06
333.15
226.24
116.16
27.78
-27.66
-52.34
-56.34
-51.69
-48.18
-48.69
-52.65
-58.67
-65.70
-73.24
-80.82
-88.18
-95.05
-100.98
-103.23
-99.90
-92.03
-81.98
-72.78
-66.38
-63.12
-62.08
-61.75
-59.43
-53.49
-44.23
-33.56
-23.97
-17.16
-13.64
-12.67
-12.66
-11.33
-7.25
-0.63
6.89
12.97
16.62
17.53
16.49
14.97
14.60
16.22
19.50
23.15
25.56
25.59
22.90
18.17
12.60
7.36
3.13
-0.11
-2.90
-6.00
-9.88
-14.70
-20.19
-25.83
-31.09
-35.57
-39.05
-41.48
-43.02
-43.96
-44.61
-45.12
-45.30
-44.71
-42.90
-39.58
-35.00
-29.87
-25.29
-22.39
-21.88
-23.73
-27.11
-30.46
-31.89
-29.63
-22.38
-9.58
8.62
31.38
57.41
84.91
111.68
135.25
153.11
163.18
164.20
155.97
139.38
116.17
88.64
59.32
30.63
4.61
-17.31
-34.31
-46.21
-53.28
-56.13
-55.55
-52.49
-47.98
-43.05
-38.58
-35.15
-32.95
-31.77
-31.18
-30.73
-30.05
-28.92
-27.28
-25.13
-22.45
-19.23
-15.52
-11.56
-7.80
-4.90
-3.58
-4.32
-7.15
-11.58
-16.67
-21.36
-24.75
-26.36
-26.10
-24.22
-21.06
-17.08
-12.86
-9.13
-6.69
-6.17
-7.64
-10.59
-13.96
-16.56
-17.49
-16.47
-13.77
-10.09
-6.14
-2.51
0.45
2.61
3.88
4.29
3.96
3.11
2.02
0.95
0.04
-0.77
-1.68
-2.94
-4.74
-7.06
-9.61
-11.91
-13.47
-13.89
-13.06
-11.20
-8.81
-6.62
-5.31
-5.37
-6.86
-9.32
-11.99
-13.93
-14.35
-12.84
-9.44
-4.63
0.88
6.28
10.86
14.12
15.84
16.01
14.86
12.71
9.90
6.76
3.60
0.79
-1.33
-2.44
-2.34
-0.98
1.53
4.98
9.14
13.78
18.54
22.75
25.54
25.88
23.10
17.26
9.33
1.03
-5.73
-9.47
-9.57
-6.37
-0.91
5.50
11.68
16.72
20.02
21.28
20.50
17.95
14.20
9.95
5.89
2.58
0.36
-0.61
-0.37
0.89
2.87
5.14
7.20
8.54
8.71
7.41
4.52
0.26
-4.85
-10.00
-14.26
-16.84
-17.30
-15.71
-12.62
-8.90
-5.47
-3.13
-2.38
-3.38
-6.03
-9.97
-14.59
-19.16
-22.84
-24.87
-24.72
-22.25
-17.76
-11.96
-5.88
-0.75
2.30
2.44
-0.48
-5.84
-12.34
-18.37
-22.56
-24.18
-23.35
-20.80
-17.45
-14.05
-10.96
-8.25
-5.87
-3.82
-2.20
-1.08
-0.43
-0.07
0.22
0.63
1.20
1.86
2.42
2.75
2.80
2.66
2.48
2.39
2.47
2.69
2.99
3.29
3.56
3.83
4.14
4.59
5.22
6.08
7.11
8.22
9.25
10.02
10.36
10.19
9.54
8.53
7.35
6.24
5.36
4.82
4.61
4.59
4.60
4.50
4.19
3.66
2.94
2.12
1.27
0.50
-0.10
-0.46
-0.60
-0.56
-0.45
-0.35
-0.35
-0.45
-0.62
-0.78
-0.86
-0.82
-0.69
-0.52
-0.41
-0.43
-0.59
-0.86
-1.20
-1.58
-1.99
-2.40
-2.76
-3.01
-3.09
-3.05
-3.02
-3.16
-3.60
-4.32
-5.20
-6.07
-6.81
-7.33
-7.61
-7.67
-7.51
-7.20
-6.86
-6.61
-6.58
-6.83
-7.32
-7.98
-8.78
-9.72
-10.89
-12.36
-14.14
-16.17
-18.31
-20.43
-22.42
-24.29
-26.12
-28.12
-30.67
-34.18
-39.07
-45.46
-53.03
-61.05
-68.61
-75.01
-80.07
-84.18
-87.94
-91.75
-95.45
-98.47
-100.15
-100.28
-99.20
-97.68
-96.50
-95.99
-96.07
-96.40
-96.65
-96.65
-96.29
-95.31
-93.28
-89.58
-83.81
-75.88
-65.88
-53.67
-38.78
-20.55
1.38
26.65
54.09
81.66
106.90
127.54
142.04
149.97
152.05
149.99
146.04
142.67
141.37
141.99
142.96
142.15
137.81
129.19
116.38
99.81
80.73
59.83
37.39
14.00
-8.63
-28.06
-42.23
-50.93
-56.06
-58.81
-60.90
-64.07
-69.26
-75.76
-81.46
-83.86
-80.96
-71.63
-52.23
-20.99
20.69
68.85
119.50
170.25
220.19
268.58
313.60
356.08
394.68
425.43
444.06
449.39
444.51
435.22
427.27
396.65
332.43
240.79
140.35
48.08
-28.18
-87.40
-131.26
-162.38
-182.68
-193.08
-194.39
-188.99
-180.41
-171.61
-164.16
-159.01
-156.81
-158.54
-161.52
-162.59
-159.82
-152.92
-142.89
-131.42
-120.68
-112.86
-109.56
-108.81
-107.32
-103.37
-95.68
-84.41
-70.75
-56.35
-43.03
-32.51
-24.89
-19.60
-16.39
-15.41
-17.25
-22.35
-30.32
-39.35
-47.78
-54.25
-58.29
-60.47
-61.98
-64.25
-68.29
-73.53
-78.07
-79.47
-75.43
-64.16
-45.15
-19.41
10.93
39.34
58.86
66.30
63.46
54.85
44.83
36.07
29.30
23.74
17.93
11.57
5.15
-0.37
-3.97
-4.83
-2.57
2.45
9.05
16.11
22.91
29.34
36.05
44.15
54.71
68.37
85.25
104.97
123.45
139.21
149.76
151.06
138.92
111.48
71.17
24.61
-19.69
-54.81
-77.45
-89.06
-93.72
-95.24
-95.20
-93.21
-88.40
-81.22
-73.91
-68.99
-68.35
-72.20
-79.22
-87.21
-93.38
-94.74
-88.41
-72.37
-46.46
-13.58
20.97
51.28
73.17
85.80
91.49
93.81
95.21
95.65
92.94
84.71
70.49
52.76
35.69
23.18
16.91
15.71
16.63
16.53
14.04
10.00
6.50
5.28
6.65
9.21
10.85
9.92
6.01
0.06
-6.29
-11.34
-14.01
-14.13
-12.51
-10.68
-10.25
-12.26
-16.59
-21.94
-26.52
-28.87
-28.61
-26.45
-23.68
-21.05
-18.62
-15.80
-12.03
-7.41
-2.73
0.98
3.02
3.41
2.70
1.58
0.60
0.05
-0.18
-0.44
-1.02
-2.08
-3.40
-4.36
-4.17
-2.35
0.87
4.37
6.66
6.56
3.86
-0.42
-4.64
-7.36
-8.01
-6.89
-4.70
-2.01
0.84
3.55
5.57
6.11
4.59
1.04
-3.58
-7.88
-10.71
-11.69
-11.28
-10.32
-9.56
-8.99
-8.57
-8.20
-7.93
-8.10
-9.13
-11.16
-13.90
-16.79
-19.04
-19.97
-19.07
-16.16
-11.44
-5.37
1.40
8.18
14.41
19.70
23.81
26.66
28.28
28.73
28.12
26.64
24.56
22.22
19.95
18.04
16.67
15.88
15.59
15.60
15.69
15.70
15.51
15.12
14.55
13.84
12.98
11.94
10.70
9.26
7.67
6.04
4.45
2.93
1.45
-0.04
-1.53
-3.01
-4.42
-5.74
-7.02
-8.39
-9.99
-11.90
-14.07
-16.23
-17.96
-18.73
-18.12
-15.90
-12.16
-7.31
-1.97
3.16
7.49
10.70
12.79
13.99
14.69
15.23
15.81
16.56
17.53
18.90
20.87
23.64
27.16
30.99
34.29
36.10
35.66
32.70
27.66
21.53
15.46
10.24
6.07
2.68
-0.38
-3.55
-7.16
-11.40
-16.19
-21.26
-26.24
-30.62
-33.91
-35.74
-36.12
-35.73
-35.37
-35.45
-35.79
-35.85
-35.09
-33.37
-31.04
-28.93
-28.53
-30.53
-33.90
-36.37
-35.67
-30.62
-21.42
-9.54
2.92
12.49
17.03
17.14
15.44
14.54
15.86
19.56
24.88
30.61
33.16
30.09
21.98
11.27
-0.22
-12.23
-25.19
-39.31
-54.26
-72.67
-96.64
-125.74
-157.69
-190.34
-221.63
-248.49
-266.69
-253.26
-198.42
-115.68
-31.89
33.01
73.03
91.64
96.12
93.80
89.74
83.94
73.75
59.73
45.28
33.71
26.72
24.50
26.31
30.70
33.75
32.28
26.84
20.53
16.45
16.33
20.60
28.85
39.90
50.69
58.62
63.32
66.08
68.36
70.86
73.48
75.99
78.00
78.65
77.60
75.70
74.19
73.86
74.48
75.07
74.54
71.56
64.76
53.49
38.86
23.82
12.55
8.73
11.38
17.93
23.93
25.92
23.45
18.87
15.01
13.44
13.66
14.29
15.27
18.11
25.74
39.10
56.87
75.42
90.80
100.31
103.70
103.06
101.02
99.38
98.42
97.43
94.02
87.49
77.92
65.63
50.72
32.79
11.54
-12.53
-37.57
-60.87
-79.51
-91.68
-97.11
-96.70
-92.01
-84.78
-76.35
-67.46
-58.56
-49.98
-42.27
-36.06
-31.80
-29.68
-29.76
-31.71
-34.68
-37.69
-39.94
-41.16
-41.49
-41.16
-40.35
-39.56
-39.09
-38.85
-38.78
-39.14
-40.39
-42.78
-46.00
-49.24
-52.93
-56.88
-59.58
-58.97
-53.90
-44.62
-32.38
-18.82
-5.52
3.32
5.20
1.15
-5.66
-12.45
-17.67
-20.37
-19.97
-16.44
-15.36
-20.82
-31.88
-44.27
-54.40
-61.12
-65.43
-69.87
-77.85
-98.86
-138.30
-192.69
-252.69
-309.31
-356.88
-393.04
-418.05
-394.47
-309.95
-189.29
-73.34
13.93
70.77
105.62
127.82
144.19
158.72
167.02
164.25
154.34
143.81
136.64
133.25
132.30
132.46
132.94
128.56
116.19
97.71
78.89
63.46
52.31
44.59
38.91
33.92
25.57
11.39
-6.96
-25.04
-38.63
-45.04
-43.08
-32.77
-15.25
5.94
26.56
44.08
58.13
69.50
79.37
88.96
99.26
110.34
120.75
127.51
128.38
123.69
115.75
107.63
102.03
100.58
103.18
108.25
111.90
110.08
100.39
81.61
53.08
15.23
-29.72
-77.10
-111.50
-120.52
-106.28
-81.06
-57.51
-42.96
-38.05
-39.09
-41.91
-44.06
-46.54
-51.10
-57.25
-62.37
-63.07
-57.89
-47.10
-35.14
-27.57
-28.96
-39.92
-56.34
-71.36
-77.32
-67.12
-37.41
9.40
66.31
123.52
171.83
205.84
218.38
199.37
151.43
91.15
38.30
4.29
-11.11
-14.77
-13.91
-12.78
-11.45
-7.43
0.90
11.58
20.82
25.64
25.49
21.90
17.07
13.40
11.83
12.68
13.62
11.66
5.07
-5.87
-19.45
-33.72
-44.03
-49.95
-51.96
-51.87
-51.66
-52.41
-53.87
-55.08
-55.06
-53.31
-50.21
-46.40
-43.10
-41.30
-41.16
-41.89
-42.36
-41.73
-39.84
-37.57
-35.85
-35.64
-37.32
-40.34
-43.49
-45.62
-46.05
-44.97
-43.53
-42.74
-43.47
-46.32
-51.66
-59.39
-68.29
-75.65
-77.46
-69.99
-51.42
-23.53
8.49
37.90
59.17
70.14
72.31
69.34
64.72
60.29
56.03
51.21
45.66
40.24
36.37
34.97
35.78
37.47
38.39
37.24
33.84
29.04
24.24
20.80
19.40
19.89
21.36
22.59
22.52
20.77
17.70
14.25
11.56
10.44
11.11
13.06
15.29
16.71
16.62
14.96
12.38
9.96
8.80
9.53
12.01
15.39
18.44
20.05
19.64
17.43
14.32
11.57
10.57
12.35
17.29
24.50
31.65
35.16
31.21
17.34
-6.03
-34.90
-62.67
-82.37
-89.63
-84.40
-70.86
-55.26
-43.10
-37.13
-36.45
-38.28
-39.45
-37.58
-31.42
-20.71
-6.47
8.93
21.85
28.41
26.18
15.61
0.08
-15.69
-27.79
-34.24
-35.05
-31.54
-25.67
-19.62
-15.45
-14.25
-15.19
-15.52
-11.36
0.17
18.94
40.99
60.09
70.69
69.87
59.63
44.49
28.91
15.65
5.77
-0.10
-0.94
4.24
15.20
29.42
41.97
47.60
43.21
30.08
13.86
2.36
2.07
15.12
38.25
63.98
83.82
91.36
84.21
63.95
34.75
1.74
-30.35
-57.93
-78.89
-92.52
-99.39
-100.93
-99.15
-96.52
-95.31
-97.25
-103.12
-112.51
-123.82
-134.80
-143.40
-148.67
-151.04
-151.54
-150.84
-148.54
-143.07
-132.45
-115.30
-91.48
-61.65
-28.26
5.95
38.68
68.18
93.00
111.84
123.71
128.43
126.86
120.68
112.14
103.16
94.86
87.50
80.78
74.21
67.38
59.99
51.82
42.84
33.26
23.49
14.00
5.25
-2.67
-10.19
-18.17
-27.71
-39.59
-53.76
-69.05
-83.01
-92.28
-93.33
-83.57
-62.32
-31.37
5.29
42.59
75.72
101.33
118.28
127.10
129.06
125.39
116.92
104.34
88.73
72.03
57.01
47.08
44.91
51.27
64.46
80.76
95.89
106.84
113.07
116.41
120.22
126.96
136.39
145.57
150.34
147.55
136.60
119.41
99.16
79.41
62.56
49.57
40.43
34.88
32.81
34.06
37.91
38.38
30.73
12.92
-13.63
-45.17
-77.90
-109.27
-138.03
-163.60
-185.64
-204.18
-219.12
-230.55
-238.92
-244.64
-247.71
-247.70
-244.15
-235.78
-222.30
-204.37
-183.41
-161.16
-139.22
-118.67
-100.02
-83.24
-67.89
-53.02
-37.36
-19.88
-0.11
21.77
45.10
68.87
91.70
111.80
127.22
136.48
139.12
136.06
129.39
121.67
115.06
110.89
109.84
112.53
119.95
132.99
151.45
172.86
192.56
205.26
207.32
198.76
183.32
166.66
153.26
143.90
135.26
121.86
99.30
66.83
28.00
-10.97
-43.91
-67.01
-79.72
-83.96
-82.53
-77.78
-71.06
-63.01
-54.04
-44.62
-35.30
-26.47
-18.18
-10.13
-1.98
6.21
13.68
18.64
18.44
10.27
-7.48
-33.83
-64.55
-92.95
-112.18
-117.99
-110.51
-93.83
-73.78
-55.15
-40.10
-28.67
-20.58
-16.75
-19.25
-29.76
-47.55
-68.91
-88.31
-100.88
-104.43
-99.88
-89.99
-77.51
-63.71
-48.40
-30.95
-11.48
8.44
26.24
39.42
46.76
48.88
48.01
47.04
48.36
53.08
60.85
70.11
78.70
84.32
84.78
78.23
63.34
39.51
7.10
-32.45
-76.36
-120.33
-158.78
-185.57
-195.52
-186.27
-159.58
-121.18
-79.24
-41.57
-13.14
4.93
14.86
20.36
24.81
30.03
36.08
41.67
45.03
44.57
39.09
28.04
11.75
-8.35
-29.58
-48.52
-62.03
-67.79
-64.97
-54.90
-40.67
-26.23
-15.18
-9.66
-10.24
-17.09
-29.76
-47.76
-70.91
-99.00
-131.11
-164.88
-196.17
-219.73
-231.23
-226.80
-204.01
-162.96
-106.27
-38.48
35.10
109.88
182.44
249.82
306.57
347.40
368.59
369.83
354.28
326.40
290.10
254.71
220.21
185.89
152.98
124.06
101.72
87.33
78.26
72.34
67.47
61.17
52.99
43.98
35.49
28.43
22.93
18.62
15.34
13.10
11.18
9.60
8.51
7.72
6.79
5.39
3.64
2.56
3.36
6.48
12.10
19.79
28.36
36.19
41.61
43.18
40.14
32.30
19.87
4.00
-13.61
-31.09
-46.88
-60.01
-70.14
-77.36
-82.04
-84.72
-85.90
-86.03
-85.60
-85.00
-84.46
-84.00
-83.45
-82.66
-81.60
-80.44
-79.49
-78.96
-78.91
-79.08
-78.97
-78.03
-75.75
-71.93
-66.69
-60.39
-53.55
-46.62
-39.89
-33.49
-27.40
-21.56
-15.89
-10.29
-4.62
1.29
7.58
14.28
21.20
28.01
34.25
39.46
43.27
45.50
46.13
45.34
43.39
40.58
37.16
33.32
29.18
24.85
20.48
16.31
12.61
9.65
7.62
6.53
6.25
6.46
6.76
6.78
6.26
5.13
3.54
1.77
0.14
-1.18
-2.17
-2.94
-3.66
-4.44
-5.27
-6.08
-6.79
-7.39
-7.99
-8.77
-9.86
-11.30
-12.97
-14.61
-15.91
-16.69
-16.94
-16.83
-16.66
-16.68
-16.99
-17.43
-17.72
-17.55
-16.74
-15.38
-13.73
-12.15
-10.95
-10.29
-10.17
-10.45
-10.88
-11.14
-10.84
-9.60
-7.23
-3.88
-0.09
3.36
5.74
6.71
6.43
5.48
4.58
4.25
4.58
5.31
5.97
6.20
5.83
4.98
3.86
2.67
1.46
0.15
-1.35
-3.07
-4.94
-6.79
-8.43
-9.75
-10.77
-11.56
-12.22
-12.70
-12.91
-12.70
-11.96
-10.70
-9.01
-7.03
-4.97
-2.98
-1.20
0.28
1.47
2.43
3.24
3.99
4.68
5.22
5.51
5.47
5.10
4.57
4.08
3.83
3.89
4.14
4.40
4.43
4.13
3.53
2.80
2.16
1.79
1.72
1.86
2.03
2.03
1.69
0.89
-0.37
-2.02
-3.85
-5.60
-7.02
-7.99
-8.67
-9.43
-10.69
-12.76
-15.63
-18.95
-22.15
-24.66
-26.08
-26.30
-25.50
-24.07
-22.50
-21.28
-20.76
-21.12
-22.34
-24.25
-26.60
-29.14
-31.60
-33.69
-35.11
-35.66
-35.36
-34.51
-33.71
-33.58
-34.61
-36.85
-39.87
-42.90
-45.10
-45.83
-44.90
-42.61
-39.56
-36.43
-33.74
-31.71
-30.28
-29.26
-28.56
-28.26
-28.63
-29.95
-32.37
-35.73
-39.53
-43.07
-45.53
-46.24
-44.82
-41.32
-36.32
-30.82
-26.07
-23.18
-22.64
-23.89
-25.27
-24.43
-19.15
-8.26
7.65
26.36
44.74
59.90
70.18
75.51
77.12
76.64
75.32
73.67
71.59
68.78
65.21
61.23
57.40
54.24
51.92
50.25
48.82
47.21
45.23
42.91
40.50
38.20
36.11
34.14
32.05
29.61
26.69
23.37
19.88
16.51
13.45
10.72
8.16
5.57
2.73
-0.39
-3.73
-7.12
-10.39
-13.53
-16.68
-20.07
-23.83
-27.77
-31.18
-32.94
-31.75
-26.73
-17.80
-5.93
7.16
19.49
29.46
36.30
40.01
41.19
40.53
38.58
35.70
32.17
28.37
24.81
22.03
20.39
19.91
20.26
20.89
21.23
20.89
19.77
18.04
16.04
14.05
12.29
10.75
9.28
7.64
5.63
3.07
-0.07
-3.67
-7.53
-11.36
-14.89
-17.96
-20.55
-22.82
-25.03
-27.50
-30.48
-34.11
-38.20
-42.17
-45.00
-45.42
-42.32
-35.15
-24.32
-11.15
2.49
14.78
24.42
30.96
34.64
36.03
35.75
34.23
31.75
28.61
25.22
22.04
19.45
17.65
16.61
16.10
15.86
15.70
15.52
15.34
15.21
15.10
14.90
14.40
13.36
11.63
9.23
6.39
3.49
0.87
-1.25
-2.96
-4.52
-6.27
-8.40
-10.85
-13.37
-15.62
-17.39
-18.68
-19.74
-20.93
-22.63
-25.05
-28.16
-31.50
-34.27
-35.38
-33.78
-28.84
-20.67
-10.15
1.23
11.85
20.45
26.43
29.82
31.09
30.83
29.49
27.40
24.78
21.92
19.13
16.78
15.10
14.18
13.92
14.04
14.31
14.52
14.64
14.69
14.75
14.82
14.76
14.35
13.37
11.67
9.29
6.48
3.63
1.07
-0.97
-2.50
-3.77
-5.11
-6.78
-8.87
-11.25
-13.64
-15.72
-17.29
-18.32
-18.96
-19.49
-20.22
-21.47
-23.47
-26.25
-29.54
-32.66
-34.60
-34.27
-30.82
-24.08
-14.68
-3.93
6.53
15.32
21.65
25.41
27.05
27.15
26.23
24.56
22.31
19.64
16.84
14.28
12.28
10.98
10.27
9.86
9.47
8.96
8.39
7.96
7.80
7.88
7.90
7.45
6.20
4.13
1.51
-1.21
-3.59
-5.46
-6.92
-8.25
-9.76
-11.54
-13.51
-15.39
-16.91
-17.92
-18.46
-18.73
-19.08
-19.91
-21.53
-24.08
-27.38
-30.87
-33.57
-34.34
-32.19
-26.62
-17.98
-7.31
3.83
13.89
21.73
26.83
29.29
29.57
28.23
25.78
22.60
19.01
15.31
11.86
9.01
7.06
6.14
6.17
6.86
7.82
8.66
9.12
9.09
8.55
7.59
6.26
4.67
2.92
1.10
-0.76
-2.70
-4.82
-7.22
-9.87
-12.53
-14.88
-16.62
-17.65
-18.16
-18.53
-19.22
-20.61
-22.86
-25.86
-29.21
-32.18
-33.81
-33.08
-29.20
-22.01
-12.13
-0.88
10.08
19.25
25.72
29.30
30.39
29.64
27.63
24.75
21.30
17.53
13.82
10.61
8.26
6.95
6.66
7.12
7.98
8.92
9.64
9.97
9.82
9.13
7.92
6.27
4.31
2.21
0.12
-1.91
-3.90
-5.98
-8.20
-10.52
-12.78
-14.78
-16.37
-17.59
-18.65
-19.86
-21.53
-23.83
-26.73
-29.97
-32.98
-34.94
-34.86
-31.90
-25.66
-16.47
-5.42
5.88
15.81
23.22
27.68
29.47
29.24
27.63
25.14
22.00
18.42
14.65
11.12
8.27
6.46
5.76
5.97
6.67
7.38
7.74
7.58
6.96
6.07
5.12
4.21
3.30
2.23
0.77
-1.25
-3.85
-6.83
-9.83
-12.46
-14.49
-15.91
-16.98
-18.09
-19.62
-21.78
-24.59
-27.85
-31.18
-33.98
-35.46
-34.74
-31.11
-24.31
-14.82
-3.82
7.17
16.72
23.92
28.50
30.73
31.05
29.84
27.41
24.04
20.11
16.19
12.86
10.55
9.39
9.18
9.50
9.87
9.96
9.64
8.99
8.18
7.33
6.45
5.37
3.88
1.81
-0.86
-3.95
-7.14
-10.07
-12.48
-14.30
-15.65
-16.77
-18.02
-19.73
-22.13
-25.28
-28.95
-32.57
-35.22
-35.87
-33.59
-28.01
-19.44
-8.94
2.04
12.05
20.03
25.52
28.59
29.62
28.99
27.07
24.15
20.58
16.83
13.41
10.77
9.13
8.47
8.52
8.91
9.27
9.40
9.27
8.95
8.57
8.12
7.47
6.36
4.53
1.86
-1.55
-5.35
-9.10
-12.36
-14.90
-16.75
-18.19
-19.63
-21.46
-23.94
-27.10
-30.71
-34.21
-36.76
-37.35
-35.07
-29.46
-20.71
-9.79
1.84
12.60
21.32
27.44
31.03
32.53
32.44
31.07
28.63
25.29
21.41
17.49
14.14
11.84
10.73
10.64
11.07
11.50
11.53
11.02
10.11
9.05
8.05
7.14
6.17
4.84
2.93
0.38
-2.66
-5.87
-8.88
-11.39
-13.32
-14.78
-16.04
-17.41
-19.15
-21.44
-24.36
-27.77
-31.18
-33.72
-34.20
-31.51
-25.04
-15.09
-2.92
9.59
20.53
28.60
33.38
35.29
35.16
33.86
31.93
29.56
26.72
23.43
19.90
16.56
13.96
12.49
12.26
13.02
14.31
15.67
16.73
17.23
16.85
15.24
12.17
7.87
3.31
0.00
-0.57
2.28
7.82
14.12
18.67
19.47
15.79
8.31
-1.42
-11.73
-21.43
-30.05
-37.55
-43.83
-48.37
-50.20
-48.23
-41.79
-31.10
-17.42
-2.66
11.20
22.75
31.50
37.66
41.82
44.43
45.68
45.61
44.38
42.38
40.17
38.23
36.63
35.09
33.06
30.08
26.01
21.16
16.10
11.46
7.57
4.26
0.94
-3.06
-8.08
-13.80
-19.29
-23.37
-25.21
-24.74
-22.66
-20.09
-18.03
-16.99
-16.88
-17.25
-17.61
-17.63
-17.14
-16.06
-14.38
-12.26
-10.18
-8.92
-9.38
-12.25
-17.56
-24.57
-31.91
-37.96
-41.35
-41.40
-38.22
-32.60
-25.73
-18.86
-12.97
-8.71
-6.28
-5.51
-6.00
-7.18
-8.53
-9.63
-10.26
-10.42
-10.25
-10.07
-10.23
-11.05
-12.71
-15.18
-18.21
-21.39
-24.31
-26.70
-28.59
-30.27
-32.28
-35.24
-39.60
-45.48
-52.37
-59.02
-63.56
-64.01
-58.95
-48.24
-33.23
-16.43
-0.70
11.74
19.86
23.94
25.10
24.73
23.95
23.49
23.67
24.57
26.14
28.22
30.52
32.67
34.27
35.04
34.85
33.77
32.01
29.88
27.67
25.51
23.34
20.91
17.86
14.00
9.36
4.32
-0.49
-4.47
-7.19
-8.63
-9.20
-9.59
-10.55
-12.57
-15.75
-19.63
-23.31
-25.66
-25.57
-22.37
-15.94
-6.88
3.72
14.52
24.30
32.21
37.86
41.26
42.59
42.07
39.93
36.42
31.94
27.07
22.47
18.74
16.22
14.87
14.42
14.43
14.53
14.53
14.41
14.21
13.96
13.57
12.84
11.52
9.47
6.71
3.48
0.21
-2.66
-4.86
-6.39
-7.57
-8.87
-10.78
-13.66
-17.58
-22.36
-27.53
-32.38
-35.96
-37.26
-35.44
-30.19
-21.90
-11.68
-1.01
8.68
16.41
21.77
24.85
25.97
25.44
23.56
20.65
17.19
13.73
10.83
8.85
7.87
7.69
8.01
8.53
9.08
9.55
9.85
9.79
9.12
7.57
5.00
1.46
-2.77
-7.22
-11.42
-15.03
-17.97
-20.42
-22.79
-25.54
-29.04
-33.35
-38.11
-42.44
-45.15
-45.04
-41.35
-34.07
-24.01
-12.57
-1.32
8.43
15.91
20.86
23.39
23.75
22.29
19.42
15.71
11.85
8.53
6.24
5.16
5.13
5.76
6.57
7.17
7.32
7.02
6.38
5.65
4.97
4.36
3.68
2.64
1.00
-1.37
-4.34
-7.59
-10.72
-13.45
-15.68
-17.58
-19.54
-21.98
-25.17
-29.08
-33.17
-36.48
-37.79
-36.02
-30.60
-21.74
-10.43
1.91
13.84
24.24
32.49
38.40
42.05
43.60
43.26
41.32
38.23
34.61
31.10
28.22
26.20
24.96
24.14
23.26
21.94
20.04
17.74
15.39
13.37
11.86
10.72
9.56
7.88
5.34
1.85
-2.33
-6.76
-10.92
-14.49
-17.33
-19.56
-21.48
-23.46
-25.94
-29.22
-33.36
-38.00
-42.23
-44.74
-44.15
-39.54
-30.86
-19.12
-6.05
6.38
16.68
24.16
28.90
31.46
32.45
32.24
31.01
28.84
25.98
22.88
20.12
18.18
17.31
17.35
17.91
18.49
18.71
18.40
17.68
16.75
15.79
14.86
13.81
12.46
10.65
8.33
5.56
2.51
-0.65
-3.75
-6.66
-9.28
-11.54
-13.49
-15.22
-16.98
-19.03
-21.70
-25.19
-29.45
-33.98
-37.81
-39.60
-38.07
-32.42
-22.82
-10.40
3.03
15.55
25.71
32.85
37.03
38.77
38.62
37.04
34.39
31.04
27.49
24.30
21.95
20.62
20.19
20.29
20.52
20.64
20.60
20.54
20.55
20.60
20.43
19.73
18.24
15.95
13.07
10.01
7.17
4.74
2.65
0.62
-1.68
-4.46
-7.69
-11.13
-14.41
-17.17
-19.28
-20.83
-22.17
-23.79
-26.15
-29.51
-33.68
-37.90
-40.86
-41.06
-37.26
-29.09
-17.24
-3.39
10.31
21.93
30.24
34.96
36.54
35.73
33.25
29.67
25.39
20.79
16.29
12.32
9.20
7.03
5.75
5.17
5.05
5.20
5.46
5.65
5.64
5.31
4.61
3.59
2.36
0.99
-0.50
-2.20
-4.24
-6.77
-9.79
-13.19
-16.70
-20.01
-22.81
-24.99
-26.62
-28.01
-29.63
-31.92
-35.17
-39.29
-43.73
-47.44
-49.08
-47.35
-41.45
-31.45
-18.37
-3.98
9.76
21.21
29.43
34.29
36.17
35.67
33.34
29.66
25.10
20.29
15.98
12.85
11.29
11.25
12.20
13.38
14.07
13.89
12.90
11.44
9.92
8.53
7.13
5.33
2.73
-0.87
-5.28
-10.02
-14.50
-18.25
-21.12
-23.28
-25.14
-27.17
-29.80
-33.28
-37.57
-42.25
-46.39
-48.74
-48.00
-43.36
-34.79
-23.19
-10.06
3.00
14.79
24.68
32.48
38.18
41.66
42.77
41.46
38.07
33.34
28.31
23.94
20.80
18.98
18.12
17.69
17.22
16.49
15.55
14.54
13.58
12.62
11.44
9.77
7.44
4.45
1.03
-2.49
-5.74
-8.46
-10.58
-12.26
-13.80
-15.67
-18.28
-21.91
-26.53
-31.70
-36.56
-39.92
-40.49
-37.27
-29.95
-19.09
-6.07
7.27
19.19
28.49
34.78
38.30
39.67
39.47
38.12
35.88
33.01
29.87
26.97
24.80
23.72
23.78
24.75
26.24
27.84
29.26
30.35
31.15
31.73
32.20
32.63
33.00
33.26
33.29
32.93
31.98
30.25
27.53
23.58
18.13
10.94
1.86
-9.16
-21.88
-35.88
-50.48
-64.94
-78.43
-90.18
-99.34
-105.06
-106.53
-103.17
-94.94
-82.52
-67.30
-51.13
-35.83
-22.81
-12.74
-5.68
-1.19
1.35
2.58
3.17
3.78
4.95
7.05
10.07
13.64
17.15
20.00
21.80
22.49
22.24
21.31
19.88
17.97
15.45
12.24
8.36
4.08
-0.18
-3.95
-6.96
-9.19
-10.99
-12.93
-15.58
-19.33
-24.23
-29.79
-35.05
-38.67
-39.22
-35.67
-27.73
-16.14
-2.56
10.90
22.35
30.62
35.39
37.08
36.34
33.74
29.68
24.56
18.97
13.72
9.64
7.24
6.52
6.97
7.83
8.44
8.53
8.17
7.62
7.07
6.48
5.59
4.09
1.73
-1.46
-5.21
-9.07
-12.59
-15.42
-17.41
-18.72
-19.68
-20.79
-22.53
-25.20
-28.71
-32.42
-35.21
-35.72
-32.77
-25.83
-15.30
-2.44
11.01
23.37
33.49
40.91
45.69
48.16
48.66
47.51
45.07
41.77
38.18
34.84
32.20
30.47
29.66
29.61
30.09
30.87
31.76
32.61
33.31
33.72
33.69
33.05
31.65
29.38
26.26
22.48
18.38
14.37
10.70
7.32
3.74
-0.85
-7.37
-16.37
-27.74
-40.57
-53.41
-64.68
-73.13
-78.12
-79.60
-77.93
-73.68
-67.36
-59.52
-50.72
-41.60
-32.86
-25.17
-18.93
-14.31
-11.10
-8.89
-7.16
-5.49
-3.67
-1.73
0.18
1.92
3.47
4.98
6.58
8.32
9.97
11.12
11.27
10.14
7.76
4.52
1.01
-2.27
-5.05
-7.43
-9.69
-12.29
-15.54
-19.60
-24.27
-28.92
-32.51
-33.75
-31.43
-24.90
-14.46
-1.39
12.37
24.80
34.43
40.62
43.49
43.61
41.60
37.97
33.10
27.50
21.80
16.75
12.94
10.67
9.80
9.91
10.45
10.95
11.11
10.74
9.73
8.00
5.54
2.43
-1.13
-4.86
-8.48
-11.78
-14.72
-17.40
-20.14
-23.32
-27.30
-32.13
-37.27
-41.55
-43.36
-41.18
-34.26
-23.02
-9.01
5.56
18.54
28.49
34.89
38.00
38.48
36.98
33.97
29.81
24.86
19.59
14.56
10.29
7.11
5.17
4.35
4.34
4.73
5.09
5.05
4.35
2.86
0.59
-2.33
-5.71
-9.33
-12.98
-16.47
-19.72
-22.73
-25.63
-28.73
-32.40
-36.87
-41.90
-46.58
-49.42
-48.79
-43.55
-33.58
-20.05
-5.02
9.21
20.82
28.92
33.53
35.22
34.72
32.60
29.26
25.08
20.48
16.05
12.30
9.58
7.93
7.16
6.92
6.88
6.79
6.50
5.91
4.87
3.24
0.95
-1.95
-5.22
-8.55
-11.68
-14.50
-17.12
-19.82
-22.98
-26.92
-31.67
-36.83
-41.44
-44.20
-43.78
-39.33
-30.85
-19.31
-6.37
6.15
16.78
24.76
29.98
32.78
33.63
32.96
31.09
28.35
25.11
21.77
18.76
16.33
14.60
13.50
12.85
12.48
12.26
12.08
11.83
11.36
10.47
8.98
6.80
4.01
0.82
-2.48
-5.66
-8.67
-11.65
-14.96
-18.98
-23.92
-29.52
-34.99
-39.05
-40.28
-37.60
-30.74
-20.35
-7.91
4.79
16.14
25.14
31.44
35.20
36.76
36.49
34.67
31.63
27.88
24.09
20.95
18.99
18.36
18.73
19.53
20.09
19.99
19.16
17.82
16.33
14.93
13.63
12.23
10.41
7.90
4.63
0.79
-3.26
-7.09
-10.34
-12.88
-14.87
-16.67
-18.81
-21.80
-25.93
-31.16
-36.97
-42.30
-45.75
-45.85
-41.55
-32.71
-20.24
-5.91
8.19
20.32
29.55
35.78
39.51
41.31
41.58
40.46
38.06
34.67
30.86
27.40
24.94
23.82
23.94
24.80
25.73
26.11
25.52
23.84
21.20
17.89
14.16
10.19
6.02
1.63
-3.00
-7.74
-12.32
-16.39
-19.68
-22.04
-23.61
-24.70
-25.73
-27.13
-29.32
-32.57
-36.99
-42.40
-48.11
-52.90
-55.21
-53.52
-46.96
-35.77
-21.29
-5.65
8.95
20.91
29.51
34.88
37.56
38.14
37.00
34.38
30.59
26.15
21.84
18.45
16.53
16.18
17.04
18.38
19.47
19.75
19.06
17.58
15.67
13.69
11.78
9.91
7.86
5.41
2.39
-1.18
-5.12
-9.16
-12.97
-16.34
-19.17
-21.57
-23.79
-26.16
-28.99
-32.53
-36.86
-41.75
-46.53
-50.06
-50.90
-47.77
-40.07
-28.25
-13.81
1.13
14.51
25.00
32.21
36.45
38.35
38.42
36.94
34.13
30.34
26.21
22.53
19.92
18.64
18.48
18.98
19.59
19.99
20.04
19.76
19.15
18.13
16.56
14.39
11.72
8.82
5.98
3.39
1.02
-1.37
-4.05
-7.17
-10.65
-14.22
-17.52
-20.30
-22.51
-24.34
-26.14
-28.34
-31.34
-35.37
-40.34
-45.60
-49.94
-51.81
-49.74
-42.94
-31.71
-17.49
-2.36
11.55
22.76
30.69
35.48
37.65
37.76
36.22
33.44
29.94
26.43
23.66
22.15
22.00
22.89
24.20
25.34
25.92
25.93
25.56
25.04
24.47
23.69
22.42
20.41
17.56
14.08
10.36
6.84
3.83
1.38
-0.71
-2.78
-5.18
-8.09
-11.44
-14.97
-18.32
-21.18
-23.42
-25.21
-26.93
-29.11
-32.28
-36.66
-42.02
-47.49
-51.60
-52.62
-49.12
-40.58
-27.65
-12.11
3.71
17.66
28.34
35.32
38.97
39.96
38.93
36.33
32.52
27.94
23.23
19.15
16.31
15.03
15.15
16.12
17.24
17.87
17.68
16.68
15.14
13.41
11.71
10.05
8.25
6.01
3.11
-0.52
-4.76
-9.26
-13.64
-17.52
-20.69
-23.14
-25.03
-26.71
-28.51
-30.77
-33.73
-37.43
-41.67
-45.81
-48.78
-49.23
-45.89
-38.11
-26.25
-11.68
3.52
17.29
28.12
35.40
39.29
40.37
39.28
36.52
32.47
27.66
22.73
18.41
15.27
13.53
13.01
13.29
13.85
14.34
14.58
14.49
14.01
13.03
11.45
9.28
6.65
3.84
1.11
-1.40
-3.77
-6.25
-9.10
-12.42
-16.09
-19.77
-23.08
-25.76
-27.75
-29.27
-30.66
-32.34
-34.67
-37.88
-41.96
-46.49
-50.54
-52.71
-51.49
-45.75
-35.24
-20.93
-4.74
10.97
24.23
33.91
39.89
42.76
43.31
42.13
39.55
35.83
31.36
26.85
23.12
20.78
19.99
20.38
21.25
21.95
22.13
21.87
21.45
21.10
20.82
20.26
18.97
16.64
13.31
9.37
5.40
1.91
-0.90
-3.21
-5.46
-8.09
-11.33
-15.08
-18.94
-22.42
-25.20
-27.21
-28.73
-30.21
-32.17
-34.98
-38.81
-43.52
-48.54
-52.85
-55.00
-53.50
-47.27
-36.20
-21.41
-4.96
10.73
23.65
32.72
37.91
39.84
39.36
37.13
33.61
29.18
24.35
19.77
16.15
13.97
13.31
13.86
15.03
16.16
16.76
16.62
15.76
14.43
12.85
11.19
9.48
7.66
5.58
3.15
0.33
-2.81
-6.15
-9.49
-12.61
-15.33
-17.57
-19.36
-20.86
-22.31
-24.09
-26.54
-29.94
-34.27
-39.07
-43.31
-45.55
-44.33
-38.67
-28.60
-15.24
-0.55
13.33
24.69
32.68
37.30
39.09
38.70
36.66
33.37
29.21
24.74
20.59
17.40
15.45
14.70
14.78
15.21
15.63
15.88
15.95
15.88
15.57
14.81
13.39
11.19
8.30
5.02
1.71
-1.35
-4.09
-6.63
-9.23
-12.12
-15.32
-18.68
-21.87
-24.57
-26.61
-28.13
-29.50
-31.29
-34.02
-37.99
-43.01
-48.28
-52.42
-53.76
-50.83
-42.92
-30.47
-15.05
1.13
15.87
27.65
35.86
40.72
42.78
42.61
40.62
37.14
32.63
27.79
23.42
20.22
18.50
18.13
18.63
19.43
20.02
20.19
19.93
19.39
18.76
18.09
17.30
16.18
14.44
11.91
8.57
4.64
0.54
-3.29
-6.51
-9.03
-10.98
-12.69
-14.51
-16.66
-19.22
-22.04
-24.86
-27.41
-29.46
-30.99
-32.14
-33.28
-34.88
-37.41
-41.17
-46.07
-51.49
-56.22
-58.62
-57.06
-50.50
-38.96
-23.68
-6.83
9.19
22.46
32.04
37.96
40.85
41.48
40.43
38.09
34.84
31.20
27.86
25.44
24.28
24.30
25.01
25.79
26.15
25.89
25.14
24.23
23.46
22.94
22.55
21.91
20.62
18.39
15.20
11.34
7.30
3.64
0.76
-1.28
-2.75
-4.20
-6.18
-8.94
-12.36
-16.00
-19.29
-21.83
-23.56
-24.78
-26.04
-27.91
-30.85
-35.05
-40.39
-46.27
-51.58
-54.80
-54.37
-49.20
-39.17
-25.31
-9.57
5.82
18.99
28.91
35.44
39.03
40.33
39.92
38.20
35.50
32.27
29.04
26.37
24.66
23.98
24.14
24.71
25.28
25.56
25.48
25.11
24.61
24.05
23.37
22.42
20.95
18.84
16.07
12.79
9.27
5.79
2.62
-0.13
-2.47
-4.58
-6.69
-9.04
-11.76
-14.84
-18.12
-21.32
-24.16
-26.42
-28.08
-29.30
-30.49
-32.15
-34.81
-38.83
-44.17
-50.22
-55.73
-59.00
-58.33
-52.62
-41.82
-27.10
-10.57
5.35
18.67
28.33
34.26
37.09
37.62
36.51
34.15
30.83
26.94
23.00
19.59
17.12
15.68
15.06
14.87
14.76
14.57
14.30
13.99
13.66
13.19
12.41
11.18
9.43
7.19
4.59
1.77
-1.14
-4.04
-6.86
-9.58
-12.16
-14.56
-16.73
-18.66
-20.38
-22.02
-23.82
-26.07
-29.05
-32.85
-37.23
-41.49
-44.50
-44.97
-41.83
-34.65
-23.93
-11.01
2.30
14.29
23.77
30.31
34.09
35.62
35.44
33.92
31.36
28.10
24.56
21.31
18.85
17.50
17.28
17.93
19.01
20.11
20.94
21.37
21.40
21.03
20.15
18.66
16.50
13.75
10.64
7.43
4.29
1.22
-1.93
-5.35
-9.08
-12.96
-16.71
-20.00
-22.65
-24.73
-26.54
-28.54
-31.21
-34.91
-39.70
-45.24
-50.64
-54.54
-55.44
-52.06
-43.94
-31.66
-16.78
-1.42
12.47
23.59
31.52
36.59
39.37
40.39
39.92
38.10
35.18
31.60
28.00
25.01
22.97
21.86
21.36
21.02
20.54
19.86
19.13
18.53
18.06
17.53
16.54
14.78
12.15
8.92
5.58
2.61
0.19
-1.81
-3.83
-6.31
-9.43
-13.01
-16.63
-19.80
-22.23
-24.01
-25.52
-27.33
-29.97
-33.76
-38.64
-44.11
-49.16
-52.47
-52.62
-48.60
-40.16
-28.01
-13.68
0.92
14.03
24.51
31.94
36.49
38.65
38.92
37.71
35.41
32.43
29.28
26.48
24.42
23.24
22.80
22.75
22.76
22.60
22.23
21.70
21.03
20.11
18.76
16.75
13.98
10.55
6.74
2.93
-0.60
-3.75
-6.64
-9.48
-12.43
-15.55
-18.69
-21.59
-24.03
-25.95
-27.50
-29.05
-31.09
-34.06
-38.25
-43.46
-48.89
-53.17
-54.56
-51.61
-43.68
-31.37
-16.39
-1.03
12.60
23.15
30.26
34.34
36.08
36.11
34.81
32.44
29.32
25.90
22.75
20.31
18.79
18.11
17.95
18.01
18.02
17.86
17.50
16.89
15.98
14.71
13.05
11.02
8.65
5.94
2.88
-0.58
-4.40
-8.40
-12.27
-15.65
-18.32
-20.27
-21.79
-23.37
-25.56
-28.80
-33.26
-38.76
-44.64
-49.79
-52.83
-52.41
-47.66
-38.53
-25.96
-11.62
2.55
14.94
24.69
31.63
36.13
38.64
39.54
38.98
37.20
34.57
31.70
29.25
27.72
27.22
27.46
27.90
28.01
27.51
26.41
25.04
23.73
22.74
22.04
21.36
20.31
18.50
15.75
12.16
8.04
3.88
0.10
-3.00
-5.41
-7.34
-9.20
-11.36
-14.05
-17.25
-20.68
-23.98
-26.79
-29.00
-30.72
-32.29
-34.18
-36.84
-40.60
-45.56
-51.31
-56.90
-60.78
-61.22
-56.82
-47.14
-33.00
-16.34
0.44
15.20
26.69
34.69
39.65
42.30
43.16
42.51
40.55
37.60
34.24
31.22
29.16
28.33
28.56
29.34
30.10
30.43
30.30
29.94
29.66
29.62
29.65
29.33
28.22
26.08
23.04
19.53
16.08
13.08
10.64
8.60
6.70
4.64
2.29
-0.30
-2.99
-5.53
-7.70
-9.38
-10.65
-11.77
-13.16
-15.21
-18.13
-21.79
-25.78
-29.54
-32.58
-34.71
-36.13
-37.30
-38.83
-41.30
-45.11
-50.27
-56.29
-61.98
-65.61
-65.26
-59.47
-47.90
-31.63
-12.96
5.36
20.95
32.50
39.90
43.82
45.19
44.74
42.92
40.03
36.49
32.84
29.71
27.49
26.29
25.86
25.77
25.62
25.16
24.39
23.42
22.42
21.47
20.57
19.55
18.21
16.37
13.97
11.09
7.93
4.74
1.78
-0.79
-2.91
-4.68
-6.31
-8.08
-10.25
-12.95
-16.08
-19.35
-22.36
-24.75
-26.42
-27.52
-28.42
-29.63
-31.57
-34.56
-38.71
-43.83
-49.31
-54.06
-56.56
-55.27
-49.15
-38.16
-23.41
-6.93
9.02
22.58
32.75
39.43
43.07
44.30
43.63
41.47
38.22
34.45
30.80
27.88
26.07
25.38
25.47
25.93
26.34
26.50
26.44
26.22
25.90
25.41
24.58
23.25
21.37
19.02
16.42
13.77
11.18
8.65
6.10
3.49
0.90
-1.52
-3.57
-5.12
-6.23
-7.06
-7.89
-9.00
-10.58
-12.77
-15.58
-18.99
-22.94
-27.31
-32.00
-36.95
-42.15
-47.65
-53.44
-59.19
-64.10
-66.82
-65.81
-59.85
-48.68
-33.30
-15.80
1.25
15.68
26.25
32.87
36.30
37.47
37.13
35.62
33.09
29.75
26.11
22.86
20.61
19.62
19.73
20.41
21.09
21.32
20.99
20.25
19.37
18.55
17.81
17.02
15.92
14.25
11.91
8.96
5.67
2.38
-0.54
-2.91
-4.72
-6.18
-7.64
-9.41
-11.71
-14.52
-17.63
-20.66
-23.30
-25.36
-26.89
-28.18
-29.61
-31.57
-34.40
-38.22
-42.87
-47.76
-51.80
-53.47
-51.27
-44.22
-32.43
-17.25
-0.92
14.17
26.25
34.60
39.50
41.77
42.19
41.19
38.91
35.49
31.32
27.10
23.63
21.48
20.72
20.96
21.57
21.96
21.82
21.18
20.26
19.28
18.31
17.17
15.62
13.41
10.47
6.96
3.25
-0.26
-3.23
-5.58
-7.47
-9.26
-11.36
-14.05
-17.36
-21.03
-24.64
-27.73
-30.00
-31.46
-32.46
-33.55
-35.30
-38.12
-42.04
-46.64
-51.04
-53.99
-54.13
-50.29
-41.90
-29.27
-13.65
3.03
18.67
31.59
40.91
46.57
49.07
49.15
47.49
44.69
41.26
37.80
34.87
32.86
31.90
31.82
32.19
32.56
32.62
32.24
31.54
30.70
29.87
29.12
28.35
27.32
25.79
23.55
20.58
17.05
13.23
9.44
5.88
2.60
-0.49
-3.57
-6.76
-10.10
-13.49
-16.85
-20.12
-23.36
-26.66
-30.00
-33.16
-35.61
-36.58
-35.28
-31.18
-24.23
-15.03
-4.67
5.45
14.05
20.27
23.84
25.03
24.39
22.53
19.90
16.79
13.42
10.03
6.86
4.07
1.66
-0.57
-2.77
-4.99
-6.96
-8.26
-8.52
-7.75
-6.36
-5.07
-4.51
-4.99
-6.37
-8.23
-10.13
-11.87
-13.43
-14.94
-16.40
-17.74
-18.83
-19.76
-20.85
-22.62
-25.50
-29.59
-34.52
-39.57
-43.86
-46.65
-47.53
-46.38
-43.38
-38.84
-33.13
-26.66
-19.74
-12.71
-5.83
0.61
6.32
11.01
14.37
16.16
16.34
15.07
12.79
10.09
7.56
5.65
4.51
4.03
3.92
3.90
3.84
3.81
4.00
4.53
5.34
6.13
6.45
5.95
4.46
2.16
-0.54
-3.18
-5.39
-7.10
-8.49
-10.00
-12.10
-15.10
-19.07
-23.77
-28.64
-32.91
-35.67
-36.03
-33.29
-27.18
-18.02
-6.75
5.25
16.50
25.75
32.31
36.09
37.46
36.99
35.25
32.65
29.51
26.08
22.67
19.57
17.00
15.00
13.49
12.26
11.11
9.95
8.75
7.53
6.20
4.57
2.40
-0.51
-4.19
-8.47
-12.97
-17.37
-21.46
-25.25
-28.98
-32.97
-37.46
-42.47
-47.70
-52.51
-55.97
-57.05
-54.88
-48.99
-39.61
-27.64
-14.45
-1.57
9.78
18.87
25.49
29.74
31.92
32.34
31.41
29.67
27.79
26.41
25.95
26.41
27.42
28.41
28.87
28.58
27.62
26.26
24.77
23.25
21.57
19.46
16.65
13.02
8.69
3.96
-0.75
-5.12
-9.00
-12.48
-15.92
-19.75
-24.32
-29.75
-35.69
-41.30
-45.28
-46.21
-42.96
-35.13
-23.34
-9.07
5.76
19.38
30.61
39.08
44.94
48.54
50.14
49.82
47.65
43.89
39.04
33.82
28.90
24.68
21.27
18.50
16.11
13.89
11.68
9.47
7.24
5.00
2.75
0.55
-1.61
-3.78
-6.08
-8.79
-12.15
-16.28
-21.07
-26.20
-31.23
-35.84
-39.89
-43.53
-47.10
-51.00
-55.61
-61.19
-67.78
-75.10
-82.31
-88.05
-90.57
-88.24
-80.12
-66.46
-48.78
-29.49
-11.18
4.12
15.45
22.95
27.50
30.18
31.86
33.03
33.85
34.39
34.75
35.12
35.67
36.42
37.22
37.80
37.87
37.30
36.15
34.60
32.85
31.00
29.02
26.79
24.15
21.04
17.45
13.47
9.21
4.79
0.30
-4.14
-8.41
-12.39
-16.02
-19.32
-22.39
-25.46
-28.89
-33.03
-38.20
-44.42
-51.20
-57.43
-61.47
-61.59
-56.55
-46.16
-31.45
-14.42
2.67
17.99
30.58
40.31
47.53
52.58
55.62
56.68
55.91
53.71
50.79
47.92
45.70
44.36
43.79
43.63
43.47
42.96
41.93
40.37
38.44
36.33
34.22
32.18
30.12
27.83
25.08
21.74
17.84
13.53
9.01
4.45
-0.05
-4.42
-8.69
-12.87
-17.10
-21.67
-27.00
-33.45
-41.00
-48.96
-55.84
-59.67
-58.63
-51.75
-39.39
-23.20
-5.63
10.90
24.67
34.99
42.05
46.51
48.99
49.89
49.38
47.65
45.06
42.15
39.48
37.41
36.00
35.00
34.02
32.80
31.31
29.80
28.64
28.10
28.17
28.48
28.45
27.53
25.39
22.16
18.27
14.36
10.98
8.34
6.32
4.50
2.39
-0.33
-3.71
-7.47
-11.20
-14.49
-17.14
-19.23
-21.19
-23.63
-27.16
-32.13
-38.40
-45.22
-51.29
-55.05
-55.10
-50.73
-42.15
-30.55
-17.68
-5.39
4.95
12.71
17.91
20.98
22.48
22.91
22.67
22.06
21.34
20.71
20.21
19.76
19.18
18.31
17.13
15.73
14.34
13.22
12.49
12.10
11.78
11.11
9.63
7.04
3.31
-1.26
-6.16
-10.79
-14.76
-18.02
-20.80
-23.57
-26.74
-30.49
-34.66
-38.82
-42.45
-45.12
-46.71
-47.43
-47.80
-48.44
-49.94
-52.65
-56.51
-60.85
-64.37
-65.29
-61.81
-52.79
-38.33
-19.88
0.00
18.57
33.66
44.27
50.59
53.56
54.25
53.45
51.55
48.69
45.04
40.93
36.85
33.28
30.52
28.65
27.48
26.65
25.78
24.56
22.87
20.75
18.37
15.91
13.38
10.65
7.47
3.56
-1.15
-6.50
-12.06
-17.29
-21.74
-25.22
-27.91
-30.23
-32.70
-35.78
-39.73
-44.54
-49.98
-55.45
-59.96
-62.11
-60.38
-53.62
-41.56
-25.18
-6.58
11.63
27.10
38.44
45.44
48.79
49.58
48.75
46.90
44.30
41.16
37.76
34.45
31.51
29.05
26.94
24.97
22.97
20.94
19.01
17.40
16.13
15.02
13.67
11.70
8.91
5.38
1.48
-2.36
-5.84
-8.99
-12.05
-15.36
-19.08
-23.09
-27.03
-30.48
-33.18
-35.20
-36.86
-38.60
-40.86
-43.95
-47.93
-52.55
-57.05
-60.13
-60.16
-55.58
-45.60
-30.64
-12.48
6.29
23.06
36.07
44.69
49.39
51.08
50.67
48.71
45.56
41.60
37.36
33.49
30.46
28.38
26.93
25.60
23.97
21.94
19.72
17.67
16.06
14.87
13.80
12.40
10.32
7.42
3.91
0.16
-3.45
-6.70
-9.63
-12.47
-15.46
-18.67
-21.94
-24.95
-27.39
-29.18
-30.50
-31.79
-33.52
-36.10
-39.69
-44.19
-49.06
-53.27
-55.36
-53.70
-47.09
-35.31
-19.42
-1.61
15.52
29.74
39.89
45.88
48.46
48.56
46.91
43.93
39.92
35.28
30.53
26.26
22.84
20.37
18.66
17.41
16.34
15.29
14.20
13.08
11.87
10.50
8.88
6.91
4.54
1.76
-1.34
-4.65
-8.06
-11.44
-14.73
-17.88
-20.81
-23.45
-25.73
-27.62
-29.21
-30.72
-32.49
-34.85
-38.05
-42.01
-46.28
-49.95
-51.70
-50.14
-44.30
-34.02
-20.19
-4.61
10.58
23.49
33.02
38.95
41.71
41.95
40.26
37.09
32.85
28.09
23.46
19.59
16.87
15.28
14.47
13.92
13.21
12.14
10.75
9.25
7.78
6.41
4.97
3.21
0.88
-2.20
-5.97
-10.17
-14.36
-18.08
-21.03
-23.20
-24.89
-26.60
-28.86
-32.03
-36.16
-40.90
-45.53
-48.95
-49.89
-47.16
-40.10
-28.89
-14.66
0.74
15.29
27.35
36.08
41.45
43.92
44.08
42.40
39.21
34.88
29.95
25.13
21.11
18.35
16.87
16.33
16.13
15.69
14.62
12.89
10.71
8.45
6.43
4.73
3.18
1.39
-1.04
-4.35
-8.47
-13.02
-17.46
-21.32
-24.38
-26.72
-28.70
-30.76
-33.29
-36.54
-40.57
-45.19
-49.91
-53.77
-55.47
-53.57
-47.01
-35.65
-20.47
-3.45
13.05
27.01
37.33
43.90
47.30
48.29
47.46
45.13
41.58
37.23
32.70
28.69
25.69
23.85
22.93
22.49
22.04
21.25
19.97
18.24
16.20
14.00
11.78
9.57
7.30
4.81
1.96
-1.33
-4.98
-8.80
-12.57
-16.05
-19.11
-21.74
-24.05
-26.27
-28.74
-31.82
-35.79
-40.64
-45.86
-50.43
-52.92
-51.86
-46.25
-35.96
-21.92
-5.92
9.89
23.64
34.13
40.96
44.41
45.06
43.53
40.37
36.09
31.21
26.40
22.27
19.29
17.58
16.89
16.72
16.48
15.72
14.26
12.22
9.91
7.65
5.62
3.80
1.93
-0.32
-3.23
-6.85
-10.99
-15.21
-19.04
-22.11
-24.35
-25.98
-27.46
-29.36
-32.10
-35.87
-40.49
-45.37
-49.48
-51.51
-50.16
-44.51
-34.42
-20.76
-5.21
10.20
23.65
33.95
40.70
44.12
44.71
43.02
39.55
34.86
29.60
24.58
20.51
17.89
16.75
16.73
17.17
17.42
17.03
15.95
14.39
12.71
11.14
9.66
7.96
5.58
2.17
-2.30
-7.48
-12.72
-17.38
-21.08
-23.86
-26.15
-28.57
-31.68
-35.84
-41.03
-46.89
-52.56
-56.78
-58.04
-54.98
-46.88
-34.10
-18.12
-1.12
14.62
27.41
36.51
42.02
44.52
44.68
42.99
39.86
35.76
31.31
27.24
24.17
22.41
21.82
21.94
22.13
21.89
20.95
19.35
17.34
15.20
13.15
11.25
9.33
7.12
4.28
0.57
-4.04
-9.25
-14.55
-19.37
-23.28
-26.23
-28.52
-30.75
-33.55
-37.37
-42.42
-48.46
-54.82
-60.38
-63.64
-63.05
-57.50
-46.77
-31.78
-14.42
2.96
18.27
30.17
38.29
43.00
45.03
45.09
43.73
41.36
38.37
35.19
32.30
30.08
28.71
28.16
28.18
28.41
28.48
28.12
27.17
25.59
23.50
21.08
18.52
15.90
13.23
10.34
7.02
3.15
-1.24
-5.93
-10.57
-14.84
-18.56
-21.73
-24.55
-27.27
-30.23
-33.72
-38.03
-43.26
-49.18
-54.97
-59.19
-60.09
-56.17
-46.82
-32.77
-15.94
1.15
16.26
28.04
36.20
41.21
43.74
44.26
42.93
39.92
35.65
30.91
26.66
23.66
22.16
21.85
22.07
22.14
21.63
20.45
18.80
16.99
15.27
13.71
12.17
10.34
7.88
4.55
0.35
-4.49
-9.46
-14.04
-17.83
-20.77
-23.12
-25.34
-28.00
-31.53
-36.15
-41.75
-47.75
-53.08
-56.26
-55.75
-50.45
-40.24
-26.11
-10.02
5.77
19.32
29.57
36.38
40.21
41.68
41.30
39.39
36.24
32.32
28.26
24.72
22.23
20.93
20.64
20.90
21.17
21.00
20.15
18.60
16.52
14.17
11.72
9.20
6.50
3.43
-0.14
-4.19
-8.52
-12.80
-16.74
-20.14
-23.02
-25.56
-28.11
-31.02
-34.62
-39.11
-44.56
-50.78
-57.17
-62.63
-65.70
-64.81
-58.87
-47.78
-32.59
-15.35
1.58
16.19
27.38
34.95
39.37
41.32
41.34
39.85
37.21
33.94
30.70
28.11
26.58
26.13
26.41
26.88
27.07
26.74
25.92
24.83
23.64
22.41
20.96
19.06
16.55
13.49
10.15
6.89
3.96
1.41
-0.99
-3.56
-6.58
-10.10
-13.95
-17.78
-21.22
-24.05
-26.29
-28.24
-30.41
-33.39
-37.63
-43.21
-49.58
-55.54
-59.38
-59.38
-54.35
-44.13
-29.72
-13.03
3.73
18.64
30.55
39.10
44.59
47.55
48.51
47.89
46.04
43.34
40.30
37.46
35.29
34.04
33.64
33.76
33.95
33.85
33.27
32.28
31.05
29.78
28.55
27.29
25.81
23.88
21.32
18.11
14.37
10.40
6.57
3.24
0.59
-1.48
-3.30
-5.32
-7.92
-11.27
-15.18
-19.28
-23.12
-26.47
-29.30
-31.87
-34.54
-37.70
-41.63
-46.49
-52.18
-58.25
-63.68
-66.98
-66.48
-60.89
-49.87
-34.40
-16.53
1.22
16.67
28.55
36.62
41.38
43.54
43.64
42.02
38.99
35.02
30.85
27.25
24.78
23.61
23.44
23.74
23.96
23.77
23.20
22.45
21.76
21.23
20.68
19.72
17.93
15.11
11.41
7.29
3.38
0.16
-2.26
-4.14
-6.01
-8.39
-11.57
-15.47
-19.70
-23.72
-27.08
-29.58
-31.35
-32.84
-34.68
-37.45
-41.55
-46.96
-53.14
-58.96
-62.82
-63.03
-58.27
-48.17
-33.55
-16.32
1.10
16.52
28.54
36.82
41.78
44.13
44.48
43.20
40.53
36.85
32.79
29.16
26.63
25.55
25.77
26.74
27.77
28.30
28.08
27.22
26.03
24.82
23.70
22.60
21.24
19.31
16.63
13.21
9.29
5.25
1.49
-1.72
-4.35
-6.56
-8.73
-11.20
-14.21
-17.80
-21.72
-25.60
-29.03
-31.74
-33.70
-35.13
-36.49
-38.38
-41.31
-45.63
-51.27
-57.61
-63.37
-66.82
-66.16
-60.14
-48.59
-32.64
-14.45
3.40
18.77
30.45
38.32
42.97
45.21
45.67
44.71
42.59
39.65
36.43
33.52
31.37
30.15
29.69
29.66
29.67
29.44
28.89
28.03
26.99
25.92
24.89
23.84
22.53
20.61
17.79
14.04
9.67
5.28
1.46
-1.44
-3.56
-5.45
-7.77
-11.02
-15.25
-20.05
-24.75
-28.72
-31.66
-33.67
-35.19
-36.87
-39.28
-42.82
-47.52
-53.01
-58.46
-62.67
-64.19
-61.66
-54.25
-42.04
-26.14
-8.55
8.39
22.67
33.05
39.33
42.06
42.19
40.62
38.00
34.77
31.27
27.94
25.24
23.51
22.80
22.82
23.06
23.01
22.40
21.29
19.99
18.84
17.97
17.18
16.06
14.19
11.34
7.70
3.74
0.04
-2.97
-5.20
-6.95
-8.73
-11.03
-14.10
-17.79
-21.71
-25.32
-28.26
-30.43
-32.09
-33.78
-36.12
-39.57
-44.27
-49.86
-55.45
-59.65
-60.90
-57.81
-49.70
-36.94
-20.95
-3.89
12.02
25.04
34.37
40.07
42.71
43.03
41.62
38.95
35.52
31.90
28.72
26.49
25.32
24.97
24.98
24.88
24.46
23.78
23.07
22.52
22.11
21.53
20.40
18.37
15.31
11.43
7.15
2.97
-0.77
-3.99
-6.90
-9.82
-13.07
-16.75
-20.71
-24.60
-28.03
-30.79
-32.98
-34.99
-37.41
-40.81
-45.53
-51.49
-58.02
-63.86
-67.37
-66.87
-61.20
-50.19
-34.86
-17.17
0.45
15.89
27.83
35.94
40.66
42.76
42.95
41.70
39.36
36.29
32.97
29.94
27.63
26.22
25.57
25.35
25.21
24.96
24.61
24.28
24.04
23.80
23.29
22.15
20.07
17.04
13.29
9.32
5.59
2.39
-0.33
-2.92
-5.83
-9.38
-13.55
-18.00
-22.22
-25.77
-28.48
-30.57
-32.55
-35.08
-38.73
-43.80
-50.01
-56.45
-61.58
-63.55
-60.80
-52.58
-39.40
-22.89
-5.37
10.91
24.38
34.37
40.96
44.68
46.07
45.60
43.69
40.83
37.58
34.52
32.09
30.43
29.41
28.75
28.15
27.44
26.62
25.80
25.05
24.29
23.32
21.83
19.59
16.58
13.02
9.33
5.84
2.71
-0.18
-3.17
-6.61
-10.64
-15.15
-19.78
-24.10
-27.81
-30.87
-33.51
-36.15
-39.34
-43.51
-48.83
-54.97
-60.99
-65.35
-66.27
-62.29
-52.86
-38.65
-21.46
-3.66
12.46
25.37
34.49
40.05
42.68
43.09
41.86
39.43
36.25
32.78
29.53
26.90
25.09
24.06
23.63
23.49
23.38
23.09
22.49
21.53
20.16
18.36
16.14
13.53
10.66
7.64
4.57
1.47
-1.72
-5.14
-8.86
-12.82
-16.83
-20.60
-23.93
-26.78
-29.34
-32.02
-35.33
-39.72
-45.30
-51.65
-57.71
-61.89
-62.46
-58.14
-48.60
-34.71
-18.27
-1.49
13.71
26.16
35.46
41.80
45.53
47.02
46.57
44.57
41.58
38.32
35.44
33.39
32.21
31.64
31.25
30.70
29.85
28.78
27.73
26.90
26.33
25.85
25.14
23.82
21.64
18.56
14.81
10.80
7.03
3.83
1.25
-0.96
-3.30
-6.26
-10.07
-14.59
-19.38
-23.84
-27.53
-30.33
-32.54
-34.70
-37.43
-41.25
-46.42
-52.77
-59.64
-65.75
-69.40
-68.80
-62.75
-51.08
-34.95
-16.52
1.69
17.57
29.97
38.71
44.26
47.29
48.32
47.71
45.81
43.05
40.06
37.42
35.56
34.59
34.32
34.35
34.27
33.81
32.91
31.67
30.30
28.98
27.68
26.26
24.39
21.80
18.39
14.34
10.05
6.01
2.59
-0.12
-2.35
-4.57
-7.28
-10.75
-14.96
-19.57
-24.07
-27.99
-31.08
-33.44
-35.44
-37.63
-40.58
-44.69
-50.11
-56.60
-63.39
-69.13
-72.10
-70.60
-63.55
-50.96
-34.16
-15.41
2.70
18.06
29.52
36.97
41.03
42.52
42.13
40.30
37.39
33.86
30.27
27.23
25.12
24.02
23.69
23.73
23.80
23.72
23.45
23.01
22.35
21.35
19.80
17.60
14.72
11.29
7.50
3.54
-0.46
-4.41
-8.25
-11.96
-15.51
-18.89
-22.06
-25.03
-27.81
-30.52
-33.40
-36.77
-40.96
-46.14
-52.00
-57.68
-61.74
-62.55
-58.78
-49.96
-36.71
-20.69
-4.04
11.24
23.82
33.15
39.33
42.77
43.91
43.14
40.88
37.70
34.31
31.39
29.41
28.51
28.46
28.81
29.11
29.09
28.70
28.10
27.49
26.94
26.30
25.25
23.40
20.53
16.71
12.35
8.04
4.27
1.25
-1.19
-3.53
-6.28
-9.78
-14.03
-18.70
-23.29
-27.32
-30.57
-33.14
-35.37
-37.77
-40.86
-45.01
-50.35
-56.59
-62.84
-67.67
-69.32
-66.24
-57.67
-44.05
-26.98
-8.76
8.31
22.55
33.26
40.52
44.85
46.83
46.85
45.23
42.35
38.79
35.28
32.46
30.68
29.84
29.51
29.16
28.48
27.48
26.46
25.73
25.35
25.05
24.30
22.57
19.61
15.60
11.03
6.56
2.67
-0.47
-3.12
-5.76
-8.84
-12.60
-16.88
-21.25
-25.21
-28.46
-31.07
-33.44
-36.19
-39.89
-44.82
-50.83
-57.24
-62.79
-65.91
-65.02
-59.08
-47.99
-32.77
-15.38
1.90
17.06
28.89
37.07
41.96
44.22
44.49
43.26
40.95
37.96
34.75
31.76
29.31
27.54
26.36
25.58
24.97
24.38
23.75
23.06
22.24
21.11
19.44
17.06
13.96
10.32
6.45
2.67
-0.89
-4.26
-7.66
-11.28
-15.25
-19.46
-23.67
-27.56
-30.89
-33.59
-35.87
-38.15
-41.00
-44.95
-50.18
-56.31
-62.20
-66.14
-66.27
-61.28
-50.89
-36.09
-18.89
-1.64
13.66
25.80
34.43
39.81
42.41
42.66
40.99
37.88
33.97
30.04
26.78
24.62
23.63
23.53
23.81
23.92
23.47
22.31
20.61
18.72
17.00
15.60
14.34
12.77
10.36
6.78
2.10
-3.21
-8.46
-13.04
-16.64
-19.38
-21.74
-24.37
-27.82
-32.42
-38.16
-44.63
-50.98
-55.97
-58.16
-56.26
-49.55
-38.31
-23.75
-7.81
7.48
20.56
30.66
37.75
42.26
44.66
45.27
44.29
41.90
38.51
34.71
31.20
28.54
26.99
26.41
26.36
26.26
25.63
24.29
22.29
19.94
17.54
15.25
13.00
10.52
7.50
3.72
-0.76
-5.69
-10.65
-15.27
-19.34
-22.90
-26.18
-29.53
-33.28
-37.74
-43.08
-49.37
-56.29
-63.07
-68.35
-70.39
-67.60
-59.15
-45.46
-28.22
-9.88
7.13
21.13
31.53
38.58
42.98
45.34
46.01
45.16
43.04
40.13
37.06
34.42
32.50
31.24
30.34
29.50
28.57
27.62
26.77
26.06
25.35
24.32
22.65
20.19
16.99
13.29
9.37
5.45
1.57
-2.32
-6.30
-10.39
-14.49
-18.43
-22.06
-25.29
-28.19
-30.97
-34.01
-37.75
-42.60
-48.70
-55.64
-62.31
-66.97
-67.65
-62.89
-52.28
-36.81
-18.59
-0.17
16.29
29.49
39.19
45.73
49.67
51.40
51.17
49.24
46.12
42.52
39.19
36.65
35.03
34.05
33.26
32.28
31.01
29.62
28.45
27.71
27.31
26.88
25.84
23.71
20.32
15.91
11.03
6.33
2.28
-1.02
-3.88
-6.77
-10.11
-14.06
-18.44
-22.85
-26.90
-30.38
-33.35
-36.16
-39.25
-43.07
-47.94
-53.94
-60.74
-67.39
-72.34
-73.71
-69.85
-60.04
-44.87
-26.29
-6.91
10.73
24.96
35.22
41.80
45.39
46.61
45.83
43.33
39.53
35.09
30.85
27.56
25.64
25.07
25.43
26.12
26.55
26.37
25.49
24.08
22.36
20.51
18.56
16.38
13.78
10.58
6.73
2.34
-2.38
-7.17
-11.81
-16.11
-20.00
-23.45
-26.59
-29.62
-32.94
-36.98
-42.13
-48.40
-55.17
-61.14
-64.51
-63.50
-57.01
-45.11
-29.10
-11.18
6.28
21.38
33.11
41.30
46.34
48.78
49.08
47.59
44.68
40.89
36.94
33.54
31.19
29.99
29.65
29.62
29.42
28.80
27.81
26.75
25.85
25.17
24.46
23.28
21.21
18.01
13.82
9.04
4.28
0.09
-3.24
-5.81
-8.08
-10.66
-13.99
-18.15
-22.75
-27.18
-30.87
-33.58
-35.57
-37.41
-39.81
-43.33
-48.30
-54.70
-62.13
-69.62
-75.57
-77.97
-74.88
-65.28
-49.54
-29.60
-8.36
11.30
27.35
39.11
46.97
51.82
54.42
55.10
54.00
51.29
47.54
43.55
40.16
37.82
36.52
35.87
35.34
34.56
33.46
32.20
31.00
29.98
29.08
28.04
26.51
24.17
20.83
16.54
11.64
6.60
1.99
-1.81
-4.71
-6.95
-9.02
-11.43
-14.59
-18.58
-23.14
-27.80
-32.02
-35.44
-38.00
-39.99
-41.93
-44.47
-48.12
-53.17
-59.46
-66.24
-72.11
-75.21
-73.63
-66.08
-52.51
-34.30
-13.98
5.61
22.17
34.52
42.62
47.16
49.01
48.82
47.02
44.00
40.29
36.58
33.53
31.50
30.48
30.14
30.01
29.73
29.16
28.32
27.30
26.11
24.63
22.68
20.08
16.81
12.98
8.85
4.66
0.59
-3.37
-7.28
-11.29
-15.42
-19.58
-23.59
-27.24
-30.48
-33.42
-36.40
-39.92
-44.40
-50.02
-56.50
-62.92
-67.79
-69.42
-66.37
-58.02
-44.82
-28.29
-10.54
6.33
20.72
31.83
39.54
44.13
46.06
45.77
43.77
40.64
37.04
33.63
30.91
29.08
28.04
27.47
27.00
26.40
25.57
24.61
23.65
22.75
21.83
20.63
18.87
16.30
12.88
8.83
4.59
0.60
-2.86
-5.81
-8.54
-11.49
-15.00
-19.11
-23.55
-27.83
-31.51
-34.45
-36.87
-39.30
-42.39
-46.64
-52.13
-58.42
-64.45
-68.65
-69.29
-64.98
-55.18
-40.51
-22.74
-4.29
12.51
26.02
35.65
41.72
44.96
46.12
45.67
43.90
41.07
37.65
34.23
31.41
29.51
28.53
28.13
27.88
27.42
26.59
25.43
24.08
22.68
21.29
19.95
18.62
17.33
16.17
15.30
14.84
14.87
15.34
16.01
16.53
16.51
15.58
13.55
10.47
6.65
2.61
-1.12
-4.17
-6.52
-8.51
-10.70
-13.60
-17.42
-21.93
-26.59
-30.75
-34.00
-36.30
-38.03
-39.81
-42.26
-45.86
-50.78
-56.80
-63.16
-68.52
-71.11
-69.13
-61.39
-47.91
-30.12
-10.48
8.24
23.88
35.37
42.76
46.75
48.19
47.66
45.52
42.06
37.76
33.25
29.18
26.00
23.87
22.64
22.00
21.61
21.21
20.64
19.82
18.71
17.30
15.51
13.29
10.57
7.33
3.62
-0.41
-4.56
-8.67
-12.60
-16.28
-19.69
-22.83
-25.75
-28.53
-31.35
-34.48
-38.22
-42.81
-48.21
-53.98
-59.12
-62.19
-61.66
-56.40
-46.15
-31.78
-15.05
1.86
16.98
29.03
37.56
42.73
44.98
44.85
42.82
39.43
35.32
31.18
27.63
25.06
23.57
22.98
22.96
23.17
23.31
23.17
22.61
21.56
19.96
17.81
15.13
11.99
8.52
4.88
1.20
-2.46
-6.13
-9.92
-13.92
-18.10
-22.28
-26.19
-29.59
-32.46
-35.01
-37.72
-41.21
-45.95
-52.07
-58.99
-65.40
-69.41
-69.06
-62.97
-50.98
-34.27
-15.16
3.69
20.03
32.61
41.26
46.50
49.07
49.59
48.48
46.07
42.81
39.31
36.17
33.85
32.47
31.82
31.53
31.23
30.74
30.06
29.30
28.51
27.58
26.25
24.17
21.19
17.43
13.27
9.20
5.60
2.48
-0.47
-3.72
-7.63
-12.24
-17.24
-22.10
-26.35
-29.77
-32.48
-34.90
-37.57
-41.08
-45.89
-52.10
-59.30
-66.36
-71.48
-72.60
-68.05
-57.25
-41.04
-21.57
-1.59
16.38
30.73
40.93
47.32
50.64
51.58
50.67
48.35
45.15
41.71
38.67
36.45
35.10
34.33
33.68
32.76
31.45
29.92
28.46
27.27
26.29
25.16
23.46
20.86
17.37
13.31
9.15
5.28
1.80
-1.49
-4.95
-8.92
-13.44
-18.31
-23.12
-27.41
-30.92
-33.63
-35.83
-38.00
-40.78
-44.77
-50.29
-57.15
-64.34
-70.12
-72.36
-69.23
-59.88
-44.95
-26.43
-7.09
10.46
24.46
34.30
40.34
43.36
44.11
43.08
40.61
37.07
33.05
29.26
26.33
24.62
24.08
24.34
24.85
25.11
24.79
23.84
22.38
20.62
18.69
16.64
14.38
11.77
8.68
5.07
0.99
-3.36
-7.78
-12.03
-15.93
-19.37
-22.35
-25.00
-27.55
-30.36
-33.80
-38.22
-43.72
-50.01
-56.18
-60.79
-62.11
-58.67
-49.84
-36.21
-19.49
-2.05
13.90
26.83
36.18
42.14
45.24
46.02
44.89
42.28
38.75
35.00
31.73
29.40
28.13
27.70
27.71
27.81
27.77
27.53
27.10
26.43
25.40
23.83
21.59
18.63
15.07
11.15
7.14
3.21
-0.60
-4.44
-8.50
-12.92
-17.64
-22.37
-26.77
-30.56
-33.70
-36.50
-39.50
-43.32
-48.41
-54.81
-61.88
-68.28
-72.15
-71.57
-65.19
-52.86
-35.77
-16.25
2.98
19.61
32.34
41.00
46.15
48.65
49.17
48.09
45.73
42.45
38.83
35.52
33.06
31.66
31.15
31.15
31.19
30.90
30.12
28.84
27.14
25.11
22.83
20.31
17.54
14.45
10.99
7.11
2.79
-1.88
-6.74
-11.56
-16.12
-20.22
-23.86
-27.16
-30.47
-34.22
-38.85
-44.67
-51.63
-59.14
-65.96
-70.34
-70.46
-64.99
-53.74
-37.80
-19.34
-0.89
15.38
28.20
37.26
42.90
45.69
46.11
44.51
41.27
36.90
32.11
27.69
24.22
21.99
20.86
20.42
20.13
19.57
18.54
17.13
15.55
13.96
12.40
10.65
8.36
5.20
1.06
-3.91
-9.21
-14.26
-18.52
-21.78
-24.19
-26.27
-28.67
-32.00
-36.57
-42.28
-48.57
-54.43
-58.49
-59.33
-55.78
-47.37
-34.62
-18.98
-2.54
12.63
25.02
33.96
39.56
42.37
42.98
41.86
39.34
35.78
31.74
27.93
25.03
23.43
23.09
23.57
24.21
24.43
23.95
22.81
21.29
19.64
17.97
16.13
13.81
10.68
6.61
1.68
-3.81
-9.41
-14.68
-19.29
-23.10
-26.20
-28.91
-31.70
-35.17
-39.86
-46.05
-53.53
-61.42
-68.16
-71.86
-70.76
-63.92
-51.59
-35.24
-17.10
0.47
15.67
27.58
36.07
41.56
44.58
45.63
45.12
43.42
40.98
38.27
35.74
33.68
32.22
31.30
30.70
30.15
29.42
28.36
26.94
25.18
23.16
20.89
18.36
15.52
12.34
8.84
5.06
1.08
-3.06
-7.30
-11.58
-15.82
-19.89
-23.73
-27.31
-30.72
-34.18
-38.02
-42.61
-48.20
-54.66
-61.22
-66.51
-68.69
-66.07
-57.77
-44.16
-26.89
-8.36
9.04
23.61
34.68
42.42
47.44
50.28
51.30
50.68
48.72
45.90
42.87
40.28
38.50
37.60
37.33
37.29
37.12
36.64
35.81
34.70
33.42
32.04
30.52
28.77
26.63
23.91
20.51
16.49
12.09
7.70
3.71
0.37
-2.35
-4.80
-7.49
-10.84
-14.99
-19.68
-24.42
-28.66
-32.10
-34.76
-37.03
-39.48
-42.70
-47.19
-53.14
-60.38
-68.10
-74.88
-78.80
-77.89
-70.84
-57.54
-39.31
-18.59
1.81
19.52
33.20
42.62
48.31
51.03
51.43
49.93
46.96
43.06
39.00
35.53
33.15
31.90
31.39
31.10
30.57
29.70
28.64
27.59
26.63
25.53
23.93
21.50
18.13
14.02
9.57
5.19
1.14
-2.60
-6.22
-9.98
-14.01
-18.27
-22.55
-26.56
-30.05
-32.98
-35.54
-38.09
-41.16
-45.27
-50.68
-57.19
-63.87
-69.07
-70.77
-67.20
-57.57
-42.51
-23.94
-4.50
13.36
27.99
38.82
46.09
50.39
52.22
51.89
49.69
46.11
41.87
37.82
34.66
32.73
31.91
31.78
31.80
31.55
30.86
29.82
28.64
27.46
26.21
24.66
22.41
19.19
15.00
10.17
5.27
0.89
-2.61
-5.26
-7.43
-9.73
-12.67
-16.48
-21.01
-25.76
-30.14
-33.66
-36.16
-37.88
-39.36
-41.31
-44.33
-48.79
-54.69
-61.47
-67.97
-72.47
-73.03
-68.04
-56.87
-40.30
-20.37
0.15
18.66
33.42
43.86
50.32
53.55
54.26
52.92
49.90
45.69
41.05
36.85
33.85
32.41
32.33
33.03
33.78
33.99
33.45
32.33
30.98
29.73
28.60
27.30
25.35
22.36
18.20
13.14
7.73
2.61
-1.75
-5.15
-7.75
-9.95
-12.24
-15.04
-18.52
-22.60
-26.88
-30.88
-34.14
-36.53
-38.22
-39.72
-41.67
-44.63
-48.96
-54.64
-61.16
-67.40
-71.68
-72.12
-67.14
-56.11
-39.78
-20.15
0.02
18.11
32.32
42.02
47.55
49.73
49.43
47.27
43.68
39.11
34.13
29.45
25.69
23.26
22.12
21.91
22.05
22.04
21.57
20.60
19.27
17.77
16.21
14.55
12.68
10.42
7.64
4.33
0.52
-3.63
-7.91
-12.09
-15.96
-19.40
-22.43
-25.18
-27.90
-30.87
-34.41
-38.76
-44.04
-49.97
-55.76
-60.08
-61.26
-57.82
-49.09
-35.53
-18.77
-1.15
15.04
28.19
37.63
43.52
46.43
46.98
45.61
42.69
38.63
34.01
29.53
25.82
23.27
21.92
21.46
21.41
21.28
20.68
19.43
17.55
15.24
12.75
10.27
7.83
5.33
2.60
-0.53
-4.13
-8.16
-12.47
-16.85
-21.10
-25.05
-28.60
-31.79
-34.79
-37.92
-41.61
-46.24
-51.99
-58.50
-64.72
-68.98
-69.32
-64.15
-52.93
-36.54
-17.17
2.37
19.50
32.59
41.22
45.95
47.76
47.53
45.84
43.03
39.42
35.48
31.77
28.80
26.85
25.90
25.65
25.66
25.51
24.90
23.69
21.88
19.59
16.98
14.16
11.21
8.08
4.65
0.75
-3.75
-8.79
-14.17
-19.48
-24.31
-28.37
-31.63
-34.33
-36.89
-39.82
-43.57
-48.40
-54.31
-60.82
-66.86
-70.78
-70.69
-65.11
-53.60
-37.14
-17.95
1.21
17.99
31.02
40.11
45.84
48.95
49.97
49.13
46.60
42.80
38.42
34.34
31.27
29.54
29.01
29.21
29.51
29.44
28.76
27.47
25.76
23.88
21.95
19.94
17.63
14.72
10.98
6.37
1.13
-4.32
-9.46
-13.90
-17.48
-20.32
-22.78
-25.35
-28.53
-32.76
-38.29
-45.04
-52.45
-59.28
-63.76
-63.99
-58.56
-47.21
-31.12
-12.60
5.58
21.17
32.96
40.91
45.67
48.00
48.40
47.05
44.12
40.02
35.51
31.49
28.61
27.08
26.62
26.69
26.71
26.31
25.37
23.95
22.21
20.31
18.35
16.34
14.14
11.52
8.23
4.11
-0.81
-6.20
-11.57
-16.41
-20.40
-23.54
-26.15
-28.70
-31.67
-35.45
-40.25
-46.00
-52.30
-58.26
-62.50
-63.36
-59.41
-49.97
-35.58
-17.92
0.61
17.61
31.37
41.12
46.90
49.24
48.73
45.89
41.27
35.57
29.66
24.47
20.67
18.46
17.49
17.10
16.58
15.53
14.00
12.33
10.90
9.85
8.89
7.48
5.08
1.40
-3.36
-8.63
-13.68
-17.93
-21.15
-23.55
-25.68
-28.24
-31.84
-36.80
-43.01
-49.77
-55.78
-59.37
-58.88
-53.24
-42.41
-27.53
-10.63
5.99
20.40
31.44
38.78
42.67
43.58
42.00
38.44
33.56
28.20
23.28
19.54
17.27
16.27
15.92
15.56
14.73
13.38
11.79
10.33
9.19
8.21
6.89
4.63
1.05
-3.82
-9.49
-15.24
-20.39
-24.57
-27.87
-30.72
-33.78
-37.68
-42.89
-49.49
-56.94
-64.01
-68.86
-69.49
-64.42
-53.32
-37.27
-18.51
0.29
16.90
30.05
39.45
45.47
48.58
49.11
47.29
43.51
38.51
33.33
28.98
26.10
24.68
24.22
23.98
23.36
22.17
20.63
19.20
18.26
17.84
17.61
16.90
15.00
11.47
6.33
0.12
-6.33
-12.17
-16.85
-20.34
-23.04
-25.69
-29.04
-33.68
-39.80
-47.14
-54.75
-61.08
-64.23
-62.42
-54.70
-41.40
-24.21
-5.65
11.70
26.00
36.54
43.57
47.78
49.81
49.99
48.45
45.40
41.31
36.95
33.11
30.37
28.84
28.22
28.00
27.64
26.81
25.45
23.70
21.83
19.99
18.18
16.21
13.75
10.52
6.39
1.52
-3.73
-8.90
-13.62
-17.72
-21.25
-24.45
-27.63
-31.12
-35.28
-40.40
-46.62
-53.70
-60.78
-66.35
-68.51
-65.58
-56.75
-42.52
-24.67
-5.71
11.85
26.23
36.68
43.33
46.82
47.87
47.04
44.72
41.26
37.08
32.71
28.71
25.55
23.47
22.45
22.23
22.36
22.35
21.80
20.50
18.44
15.78
12.74
9.47
6.05
2.43
-1.48
-5.77
-10.42
-15.30
-20.22
-24.96
-29.35
-33.26
-36.64
-39.55
-42.12
-44.64
-47.49
-51.09
-55.57
-60.55
-64.93
-67.06
-65.11
-57.82
-45.06
-28.05
-9.08
9.20
24.62
35.99
43.20
46.92
48.04
47.30
45.21
42.09
38.35
34.52
31.18
28.84
27.68
27.58
28.14
28.88
29.37
29.33
28.66
27.36
25.51
23.21
20.55
17.57
14.36
10.96
7.38
3.62
-0.37
-4.61
-9.06
-13.58
-18.00
-22.10
-25.81
-29.22
-32.61
-36.44
-41.17
-47.14
-54.29
-61.94
-68.77
-72.94
-72.59
-66.46
-54.39
-37.58
-18.31
0.78
17.43
30.34
39.30
44.87
47.84
48.87
48.35
46.60
44.01
41.17
38.70
37.06
36.33
36.26
36.42
36.49
36.37
36.14
35.90
35.59
34.91
33.51
31.11
27.74
23.72
19.47
15.34
11.42
7.52
3.32
-1.39
-6.55
-11.88
-16.95
-21.39
-25.13
-28.33
-31.42
-34.90
-39.28
-44.91
-51.75
-59.17
-65.84
-69.83
-69.12
-62.33
-49.35
-31.60
-11.66
7.55
23.71
35.60
43.18
47.06
48.00
46.55
43.10
38.10
32.29
26.63
22.11
19.29
18.15
18.16
18.48
18.44
17.70
16.39
14.92
13.65
12.70
11.81
10.46
8.08
4.37
-0.54
-6.11
-11.63
-16.45
-20.27
-23.20
-25.68
-28.32
-31.71
-36.28
-42.18
-49.11
-56.21
-62.01
-64.68
-62.49
-54.49
-40.99
-23.61
-4.84
12.79
27.37
38.06
44.91
48.44
49.17
47.43
43.52
37.96
31.65
25.73
21.26
18.74
18.04
18.41
18.93
18.89
18.08
16.74
15.33
14.19
13.27
12.15
10.21
6.94
2.23
-3.58
-9.84
-15.81
-20.96
-25.14
-28.52
-31.54
-34.72
-38.61
-43.68
-50.07
-57.44
-64.72
-70.10
-71.50
-67.17
-56.47
-40.26
-20.67
-0.47
17.85
32.70
43.56
50.68
54.59
55.73
54.36
50.75
45.49
39.45
33.75
29.34
26.73
25.84
26.11
26.76
27.12
26.84
25.93
24.64
23.21
21.72
19.98
17.61
14.23
9.61
3.86
-2.62
-9.18
-15.21
-20.25
-24.19
-27.28
-30.03
-33.05
-36.88
-41.89
-48.11
-55.09
-61.75
-66.49
-67.45
-63.06
-52.68
-37.02
-18.05
1.52
19.13
33.07
42.77
48.61
51.36
51.72
50.06
46.61
41.74
36.14
30.77
26.54
23.96
23.00
23.12
23.57
23.69
23.10
21.72
19.71
17.34
14.84
12.38
9.96
7.43
4.52
0.95
-3.43
-8.51
-13.95
-19.21
-23.87
-27.70
-30.81
-33.54
-36.33
-39.67
-43.94
-49.37
-55.83
-62.63
-68.34
-71.03
-68.73
-60.23
-45.64
-26.56
-5.68
14.07
30.42
42.24
49.53
52.97
53.42
51.57
47.93
43.01
37.48
32.11
27.62
24.45
22.58
21.69
21.30
21.00
20.61
20.09
19.46
18.64
17.41
15.49
12.70
9.03
4.69
0.05
-4.57
-8.99
-13.20
-17.35
-21.57
-25.89
-30.18
-34.22
-37.82
-40.97
-43.85
-46.85
-50.45
-55.09
-61.00
-67.91
-74.86
-80.24
-82.01
-78.41
-68.57
-53.07
-33.90
-13.82
4.46
19.12
29.48
35.88
39.12
40.03
39.17
36.95
33.81
30.29
27.03
24.57
23.22
22.98
23.62
24.81
26.24
27.66
28.94
29.92
30.47
30.42
29.59
27.90
25.40
22.28
18.77
15.06
11.19
7.08
2.64
-2.14
-7.07
-11.86
-16.21
-20.01
-23.42
-26.87
-30.95
-36.18
-42.74
-50.25
-57.62
-63.14
-64.88
-61.27
-51.69
-36.84
-18.66
0.30
17.56
31.48
41.48
47.87
51.40
52.77
52.37
50.43
47.19
43.14
39.01
35.55
33.26
32.23
32.13
32.41
32.58
32.34
31.59
30.37
28.75
26.77
24.47
21.92
19.21
16.39
13.45
10.23
6.57
2.37
-2.30
-7.22
-12.08
-16.59
-20.63
-24.26
-27.74
-31.48
-35.94
-41.48
-48.13
-55.38
-61.95
-66.03
-65.62
-59.33
-46.93
-29.65
-9.84
9.72
26.68
39.71
48.56
53.74
56.02
56.01
54.13
50.77
46.50
42.08
38.38
36.02
35.27
35.92
37.46
39.30
40.97
42.28
43.28
44.16
45.07
45.98
46.65
46.68
45.65
43.34
39.82
35.46
30.84
26.54
22.97
20.25
18.23
16.51
14.51
11.54
6.87
-0.06
-9.36
-20.53
-32.35
-43.16
-51.39
-56.13
-57.61
-57.13
-56.64
-57.95
-62.14
-69.22
-78.34
-88.17
-97.37
-104.74
-109.32
-110.36
-107.33
-100.18
-89.45
-76.28
-62.17
-48.53
-36.36
-26.06
-17.58
-10.64
-4.94
-0.29
3.44
6.27
8.18
9.02
8.60
6.79
3.69
-0.35
-4.73
-8.86
-12.32
-15.08
-17.52
-20.25
-24.03
-29.46
-36.78
-45.56
-54.57
-61.84
-65.06
-62.35
-52.89
-37.38
-17.86
2.89
22.22
38.29
50.33
58.38
62.97
64.67
63.97
61.33
57.33
52.70
48.20
44.43
41.64
39.74
38.38
37.22
36.06
34.90
33.88
33.08
32.37
31.41
29.74
27.03
23.24
18.69
13.92
9.49
5.68
2.43
-0.64
-4.05
-8.15
-13.01
-18.34
-23.61
-28.32
-32.19
-35.28
-38.06
-41.29
-45.79
-52.13
-60.22
-69.13
-77.01
-81.50
-80.41
-72.44
-57.75
-38.01
-15.89
5.71
24.48
39.14
49.47
55.93
59.24
60.05
58.90
56.29
52.79
49.07
45.76
43.30
41.83
41.13
40.84
40.61
40.21
39.66
39.08
38.57
38.04
37.17
35.53
32.79
28.93
24.27
19.34
14.63
10.36
6.36
2.25
-2.36
-7.57
-13.12
-18.49
-23.16
-26.84
-29.63
-32.04
-34.84
-38.87
-44.67
-52.17
-60.40
-67.58
-71.44
-69.88
-61.79
-47.47
-28.66
-8.04
11.62
28.21
40.66
48.92
53.51
55.14
54.48
52.06
48.44
44.28
40.27
36.99
34.71
33.38
32.64
32.09
31.46
30.72
30.00
29.48
29.12
28.63
27.55
25.47
22.23
18.02
13.34
8.80
4.88
1.69
-1.00
-3.67
-6.82
-10.75
-15.38
-20.32
-25.03
-29.06
-32.27
-34.90
-37.53
-40.89
-45.62
-52.06
-59.93
-68.21
-75.15
-78.55
-76.44
-67.74
-52.83
-33.51
-12.52
7.36
24.08
36.74
45.42
50.67
53.06
52.95
50.59
46.42
41.17
35.83
31.36
28.33
26.86
26.62
27.07
27.68
28.09
28.13
27.72
26.82
25.38
23.39
20.83
17.75
14.19
10.21
5.85
1.21
-3.56
-8.20
-12.47
-16.16
-19.24
-21.91
-24.53
-27.60
-31.53
-36.60
-42.77
-49.59
-56.07
-60.72
-61.89
-58.16
-48.93
-34.73
-17.25
1.17
18.19
32.08
42.09
48.27
51.12
51.20
48.97
44.81
39.27
33.13
27.36
22.85
20.13
19.21
19.61
20.60
21.46
21.75
21.41
20.60
19.57
18.45
17.11
15.24
12.47
8.60
3.67
-1.99
-7.87
-13.43
-18.29
-22.29
-25.53
-28.37
-31.34
-34.97
-39.77
-45.93
-53.20
-60.71
-67.02
-70.27
-68.76
-61.46
-48.45
-31.13
-11.82
6.84
22.67
34.42
41.88
45.57
46.35
44.99
42.06
38.02
33.34
28.64
24.56
21.59
19.96
19.49
19.78
20.26
20.51
20.30
19.61
18.55
17.22
15.64
13.76
11.47
8.70
5.47
1.81
-2.17
-6.38
-10.73
-15.07
-19.23
-23.01
-26.24
-28.89
-31.14
-33.38
-36.21
-40.25
-45.86
-52.90
-60.41
-66.69
-69.57
-67.14
-58.44
-43.88
-25.28
-5.29
13.39
28.76
39.93
47.06
50.85
52.14
51.52
49.35
45.92
41.65
37.15
33.06
29.91
27.92
26.96
26.71
26.83
27.11
27.44
27.75
27.83
27.37
26.05
23.67
20.32
16.36
12.21
8.22
4.43
0.69
-3.31
-7.76
-12.63
-17.65
-22.44
-26.63
-30.09
-32.94
-35.58
-38.55
-42.47
-47.71
-54.14
-60.89
-66.37
-68.55
-65.64
-56.74
-42.32
-24.14
-4.79
13.20
27.96
38.67
45.44
48.86
49.62
48.23
45.06
40.52
35.21
29.93
25.50
22.51
21.16
21.19
21.98
22.86
23.34
23.21
22.60
21.72
20.75
19.65
18.20
15.99
12.71
8.24
2.77
-3.25
-9.18
-14.43
-18.67
-21.93
-24.55
-27.11
-30.23
-34.38
-39.78
-46.23
-53.03
-58.90
-62.18
-61.24
-54.94
-43.25
-27.33
-9.33
8.30
23.49
35.08
42.82
47.06
48.33
47.04
43.56
38.32
32.07
25.76
20.37
16.60
14.65
14.21
14.67
15.36
15.76
15.62
14.87
13.67
12.16
10.51
8.70
6.56
3.79
0.13
-4.50
-9.84
-15.41
-20.60
-24.97
-28.48
-31.41
-34.27
-37.62
-41.84
-47.16
-53.53
-60.50
-67.07
-71.65
-72.30
-67.37
-56.20
-39.56
-19.60
0.82
19.05
33.38
43.34
49.35
52.17
52.47
50.64
46.94
41.79
35.90
30.24
25.67
22.77
21.58
21.63
22.25
22.74
22.65
21.89
20.60
19.02
17.32
15.44
13.15
10.16
6.31
1.67
-3.44
-8.58
-13.29
-17.28
-20.48
-23.09
-25.46
-28.06
-31.31
-35.58
-41.05
-47.49
-54.15
-59.58
-61.91
-59.33
-50.76
-36.44
-18.02
1.88
20.47
35.70
46.60
53.26
56.34
56.50
54.18
49.68
43.39
36.06
28.72
22.39
17.79
15.04
13.68
12.97
12.19
10.99
9.43
7.89
6.71
6.01
5.45
4.42
2.24
-1.48
-6.66
-12.72
-18.84
-24.23
-28.42
-31.43
-33.71
-35.96
-38.86
-42.89
-48.20
-54.51
-61.07
-66.60
-69.43
-67.85
-60.67
-47.69
-30.06
-9.99
9.82
27.00
40.13
48.82
53.50
54.83
53.44
49.84
44.60
38.51
32.55
27.64
24.32
22.57
21.86
21.45
20.75
19.56
18.08
16.67
15.58
14.68
13.52
11.46
8.04
3.19
-2.66
-8.77
-14.38
-19.00
-22.64
-25.72
-28.95
-33.03
-38.44
-45.23
-52.82
-60.00
-65.04
-66.03
-61.53
-51.05
-35.44
-16.75
2.37
19.41
32.65
41.46
46.04
47.05
45.22
41.15
35.42
28.72
21.91
15.85
11.20
8.23
6.77
6.39
6.60
7.02
7.39
7.59
7.47
6.87
5.63
3.63
0.87
-2.52
-6.33
-10.33
-14.31
-18.18
-21.99
-25.90
-30.10
-34.55
-38.79
-41.83
-42.30
-38.93
-31.07
-19.13
-4.53
10.71
24.55
35.51
42.82
46.37
46.40
43.30
37.57
29.93
21.34
12.99
6.00
1.20
-1.13
-1.26
0.08
1.96
3.49
4.05
3.40
1.63
-0.92
-3.86
-6.87
-9.86
-12.88
-16.15
-19.96
-24.62
-30.38
-37.21
-44.60
-51.43
-56.03
-56.54
-51.58
-40.84
-25.40
-7.48
10.24
25.42
36.65
43.57
46.54
46.21
43.17
37.88
30.87
22.87
14.88
7.98
2.99
0.27
-0.43
0.15
1.05
1.38
0.62
-1.32
-4.15
-7.44
-10.77
-13.99
-17.19
-20.65
-24.74
-29.78
-36.04
-43.63
-52.31
-61.35
-69.34
-74.31
-74.26
-67.75
-54.65
-36.32
-15.30
5.44
23.40
37.14
46.36
51.55
53.38
52.42
49.02
43.57
36.68
29.26
22.37
16.89
13.27
11.42
10.76
10.50
9.85
8.30
5.68
2.11
-2.08
-6.57
-11.13
-15.77
-20.61
-25.82
-31.62
-38.27
-46.03
-54.99
-64.81
-74.39
-81.84
-84.82
-81.32
-70.47
-53.02
-31.24
-8.25
12.97
30.30
42.90
51.00
55.41
57.10
56.77
54.85
51.62
47.33
42.39
37.33
32.79
29.29
27.13
26.21
26.11
26.18
25.83
24.61
22.43
19.42
15.86
12.01
8.07
4.10
0.03
-4.35
-9.41
-15.60
-23.29
-32.42
-42.21
-51.02
-56.67
-57.03
-50.84
-38.25
-20.89
-1.38
17.51
33.62
45.90
54.33
59.50
62.10
62.59
61.07
57.50
51.93
44.71
36.53
28.26
20.67
14.27
9.11
4.90
1.13
-2.69
-6.84
-11.42
-16.32
-21.42
-26.69
-32.18
-38.04
-44.39
-51.28
-58.69
-66.54
-74.54
-82.09
-88.11
-91.06
-89.25
-81.41
-67.25
-47.72
-24.89
-1.31
20.66
39.37
54.10
64.79
71.77
75.49
76.44
75.16
72.28
68.44
64.21
59.96
55.88
52.06
48.53
45.35
42.56
40.19
38.17
36.28
34.13
31.26
27.22
21.77
14.98
7.26
-0.72
-8.26
-14.86
-20.49
-25.55
-30.82
-37.12
-44.88
-53.83
-62.74
-69.69
-72.49
-69.44
-59.93
-44.70
-25.59
-5.05
14.66
31.85
45.71
56.04
63.05
67.07
68.43
67.51
64.82
61.00
56.78
52.84
49.66
47.41
45.99
45.09
44.44
43.83
43.23
42.70
42.24
41.75
40.99
39.71
37.71
34.97
31.62
27.92
24.18
20.66
17.51
14.80
12.44
10.25
8.07
5.71
3.07
0.17
-2.82
-5.70
-8.24
-10.34
-12.09
-13.77
-15.77
-18.44
-21.93
-26.06
-30.45
-34.58
-38.06
-40.72
-42.72
-44.47
-46.53
-49.49
-53.81
-59.64
-66.52
-73.22
-77.83
-78.20
-72.62
-60.49
-42.76
-21.75
-0.43
18.49
33.26
43.38
49.31
51.95
52.11
50.35
47.06
42.62
37.61
32.71
28.57
25.53
23.60
22.48
21.79
21.20
20.61
20.04
19.57
19.19
18.77
18.07
16.85
14.93
12.31
9.13
5.66
2.19
-1.00
-3.75
-6.03
-7.91
-9.52
-11.03
-12.60
-14.39
-16.53
-19.04
-21.83
-24.66
-27.27
-29.45
-31.24
-32.95
-35.10
-38.18
-42.48
-47.82
-53.44
-58.06
-60.07
-57.99
-50.94
-39.02
-23.48
-6.40
9.90
23.52
33.43
39.56
42.48
42.96
41.63
38.89
35.08
30.63
26.14
22.29
19.58
18.16
17.79
18.02
18.36
18.52
18.47
18.35
18.35
18.54
18.79
18.78
18.17
16.65
14.12
10.73
6.87
3.06
-0.25
-2.82
-4.73
-6.36
-8.23
-10.78
-14.12
-18.02
-21.95
-25.36
-27.87
-29.47
-30.49
-31.54
-33.29
-36.25
-40.60
-45.93
-51.22
-54.89
-55.18
-50.68
-40.89
-26.51
-9.30
8.36
24.22
36.76
45.39
50.33
52.18
51.56
48.96
44.75
39.40
33.61
28.14
23.70
20.68
19.04
18.39
18.17
17.94
17.51
16.91
16.31
15.81
15.33
14.59
13.25
11.04
7.90
4.07
-0.02
-3.88
-7.18
-9.93
-12.47
-15.28
-18.80
-23.08
-27.81
-32.36
-36.13
-38.72
-40.18
-40.87
-41.41
-42.38
-44.30
-47.48
-51.96
-57.31
-62.51
-65.98
-65.94
-60.91
-50.39
-35.18
-17.21
0.95
16.92
29.11
36.93
40.68
41.09
39.03
35.24
30.36
25.00
19.76
15.20
11.72
9.52
8.53
8.47
8.95
9.60
10.14
10.46
10.57
10.50
10.25
9.64
8.44
6.42
3.56
0.09
-3.56
-6.94
-9.82
-12.31
-14.79
-17.71
-21.30
-25.45
-29.74
-33.63
-36.75
-39.06
-40.90
-42.87
-45.66
-49.81
-55.44
-62.05
-68.37
-72.50
-72.36
-66.35
-54.03
-36.35
-15.56
5.58
24.51
39.62
50.33
56.92
60.04
60.36
58.43
54.76
49.96
44.73
39.75
35.56
32.36
30.08
28.47
27.25
26.25
25.44
24.79
24.25
23.62
22.61
20.89
18.20
14.48
9.92
4.89
-0.15
-4.89
-9.24
-13.37
-17.62
-22.23
-27.24
-32.34
-37.01
-40.73
-43.29
-44.92
-46.38
-48.71
-52.94
-59.66
-68.71
-78.99
-88.51
-94.74
-95.24
-88.38
-74.00
-53.65
-30.28
-7.47
11.63
25.12
32.69
35.39
34.95
33.03
30.85
29.09
28.11
28.29
30.03
33.66
39.22
46.34
54.38
62.67
70.85
78.98
87.48
96.82
107.29
118.81
130.97
143.18
154.81
165.33
174.36
181.68
187.25
191.22
193.90
195.74
197.17
198.44
199.58
200.52
201.08
201.15
200.52
198.78
195.21
188.86
178.74
164.08
144.54
120.28
91.97
60.68
27.85
-4.95
-36.13
-64.35
-88.69
-108.65
-124.05
-134.97
-141.68
-144.71
-144.96
-143.65
-142.05
-141.19
-141.47
-142.66
-144.06
-144.85
-144.49
-142.82
-140.10
-136.76
-133.21
-129.59
-125.82
-121.70
-117.13
-112.30
-107.65
-103.81
-101.31
-100.41
-101.04
-102.82
-105.33
-108.23
-111.34
-114.69
-118.40
-122.60
-127.45
-133.22
-140.25
-148.96
-159.52
-171.65
-184.42
-196.39
-206.09
-212.68
-216.27
-217.94
-219.11
-220.79
-222.95
-224.43
-223.38
-218.08
-207.70
-192.59
-174.04
-153.57
-132.37
-110.87
-88.92
-66.16
-42.45
-18.05
6.51
30.65
53.93
76.00
96.45
114.55
129.34
139.83
145.35
145.83
142.00
135.34
128.06
122.74
121.96
127.58
140.15
158.45
179.75
200.51
217.44
228.36
232.53
230.50
223.43
212.57
198.98
183.54
167.18
150.90
135.58
121.54
108.42
95.26
81.03
65.24
48.40
31.92
17.61
6.93
0.34
-2.82
-4.07
-5.15
-7.36
-11.19
-16.33
-21.91
-26.94
-30.61
-32.48
-32.47
-30.75
-27.65
-23.56
-18.88
-14.05
-9.42
-5.19
-1.35
2.36
6.34
10.99
16.54
22.98
29.96
36.97
43.39
48.66
52.39
54.35
54.50
52.85
49.53
44.75
38.86
32.34
25.68
19.26
13.23
7.44
1.59
-4.61
-11.28
-18.34
-25.63
-33.02
-40.56
-48.43
-56.86
-66.00
-75.84
-86.16
-96.62
-106.79
-116.23
-124.40
-130.68
-134.43
-135.16
-132.73
-127.44
-119.96
-111.07
-101.43
-91.38
-80.96
-70.10
-58.82
-47.31
-35.92
-24.99
-14.77
-5.38
3.08
10.47
16.53
21.05
23.90
25.21
25.24
24.36
22.86
20.88
18.43
15.49
12.07
8.35
4.59
1.12
-1.91
-4.58
-7.29
-10.65
-15.17
-20.86
-26.99
-32.00
-33.96
-31.19
-23.19
-11.04
2.70
14.83
22.59
24.50
20.67
12.38
1.32
-11.00
-23.53
-35.54
-46.52
-56.16
-64.53
-71.98
-78.85
-84.91
-89.13
-89.84
-85.52
-75.59
-60.99
-43.83
-26.65
-11.55
0.35
8.85
14.31
17.23
18.04
16.97
14.20
9.96
4.79
-0.23
-3.41
-2.91
2.46
12.42
24.97
36.99
45.47
48.88
47.75
44.19
40.75
39.22
40.18
43.31
48.17
54.78
63.53
74.57
87.12
99.21
108.25
111.99
109.50
101.62
90.60
79.10
69.16
61.46
55.30
49.27
42.06
33.15
22.87
12.07
1.43
-8.98
-19.75
-31.76
-45.55
-60.91
-76.76
-91.51
-103.53
-111.74
-115.76
-115.89
-112.83
-107.43
-100.61
-93.34
-86.68
-81.56
-78.58
-77.66
-77.98
-78.28
-77.30
-74.30
-69.37
-63.30
-57.21
-52.15
-48.69
-46.96
-46.68
-47.39
-48.61
-49.94
-51.09
-51.95
-52.66
-53.57
-55.04
-57.19
-59.51
-60.83
-59.53
-54.04
-43.41
-27.74
-8.07
13.88
36.23
57.39
76.23
92.08
104.58
113.52
118.79
120.47
118.87
114.57
108.38
101.17
93.78
86.78
80.43
74.65
69.12
63.55
57.80
51.99
46.34
41.06
36.11
31.10
25.45
18.45
9.63
-1.10
-13.30
-26.01
-37.81
-47.03
-52.09
-51.83
-45.87
-34.66
-19.47
-2.06
15.71
32.27
46.54
57.96
66.35
71.80
74.52
74.84
73.22
70.25
66.54
62.59
58.65
54.66
50.32
45.34
39.60
33.22
26.57
20.04
13.93
8.39
3.39
-1.15
-5.35
-9.42
-13.66
-18.52
-24.42
-31.52
-39.37
-46.82
-52.17
-53.58
-49.75
-40.30
-25.95
-8.26
10.88
29.77
47.23
62.64
75.83
86.84
95.81
102.88
108.26
112.23
115.13
117.39
119.37
121.33
123.32
125.15
126.45
126.65
125.15
121.41
115.22
106.77
96.73
86.03
75.63
66.19
57.92
50.49
43.27
35.49
26.47
15.84
3.58
-9.88
-23.66
-36.56
-47.26
-54.73
-58.54
-59.00
-56.92
-53.31
-48.89
-43.94
-38.41
-32.18
-25.39
-18.54
-12.37
-7.60
-4.62
-3.44
-3.74
-5.08
-7.03
-9.25
-11.46
-13.37
-14.69
-15.24
-15.01
-14.30
-13.68
-13.86
-15.42
-18.56
-23.03
-28.17
-33.27
-37.83
-41.75
-45.28
-48.82
-52.69
-56.91
-61.10
-64.46
-65.88
-64.06
-57.82
-46.48
-30.12
-9.71
13.11
36.44
58.73
79.09
97.38
113.89
128.99
142.78
154.95
164.93
172.20
176.50
177.93
176.97
174.22
170.31
165.75
160.95
156.21
151.68
147.27
142.55
136.83
129.27
119.25
106.62
91.81
75.72
59.41
43.75
29.26
16.02
3.83
-7.69
-18.87
-29.97
-41.06
-52.00
-62.34
-71.40
-78.40
-82.69
-84.07
-82.85
-79.75
-75.56
-70.80
-65.52
-59.44
-52.27
-44.09
-35.51
-27.47
-20.90
-16.32
-13.70
-12.55
-12.27
-12.41
-12.80
-13.43
-14.30
-15.32
-16.26
-16.94
-17.33
-17.62
-18.07
-18.84
-19.88
-20.95
-21.74
-22.11
-22.21
-22.35
-22.79
-23.57
-24.39
-24.79
-24.40
-23.14
-21.26
-19.24
-17.51
-16.31
-15.70
-15.62
-16.09
-17.22
-19.14
-21.88
-25.17
-28.54
-31.33
-33.01
-33.31
-32.39
-30.74
-29.02
-27.82
-27.45
-27.89
-28.86
-29.95
-30.73
-30.88
-30.15
-28.35
-25.48
-21.76
-17.70
-14.02
-11.44
-10.50
-11.32
-13.62
-16.89
-20.62
-24.42
-28.09
-31.50
-34.50
-36.91
-38.62
-39.69
-40.38
-41.07
-41.99
-43.08
-43.95
-44.00
-42.78
-40.15
-36.39
-32.03
-27.62
-23.54
-19.89
-16.62
-13.64
-10.92
-8.49
-6.36
-4.50
-2.79
-1.16
0.41
1.86
3.04
3.83
4.16
4.01
3.49
2.72
1.88
1.08
0.33
-0.48
-1.53
-3.08
-5.31
-8.25
-11.79
-15.67
-19.58
-23.19
-26.33
-28.99
-31.34
-33.68
-36.33
-39.52
-43.26
-47.34
-51.38
-54.98
-57.88
-59.96
-61.33
-62.19
-62.80
-63.42
-64.23
-65.34
-66.65
-67.74
-67.82
-65.79
-60.53
-51.30
-38.20
-22.30
-5.54
9.75
21.47
28.34
30.09
27.46
21.94
15.49
10.17
7.80
9.47
15.20
23.82
33.31
41.40
46.44
47.86
46.20
42.71
38.63
34.79
31.53
28.86
26.74
25.20
24.20
23.45
22.41
20.37
16.76
11.40
4.55
-3.18
-11.10
-18.67
-25.63
-32.00
-37.92
-43.52
-48.83
-53.71
-58.00
-61.48
-63.96
-65.15
-64.54
-61.38
-54.78
-44.06
-29.10
-10.67
9.58
29.33
46.10
57.82
63.21
62.05
55.17
44.36
32.17
21.51
15.07
14.63
20.42
30.94
43.29
54.04
60.29
60.49
54.74
44.52
32.11
19.90
9.85
3.29
0.67
1.66
5.21
9.74
13.58
15.35
14.28
10.35
4.16
-3.27
-10.80
-17.35
-22.03
-24.22
-23.57
-20.08
-14.06
-6.17
2.65
11.34
18.78
24.04
26.56
26.22
23.43
18.90
13.45
7.78
2.28
-2.89
-7.77
-12.36
-16.63
-20.45
-23.74
-26.49
-28.87
-31.13
-33.56
-36.34
-39.43
-42.53
-45.09
-46.52
-46.28
-44.03
-39.78
-33.87
-26.94
-19.82
-13.30
-7.79
-3.11
1.60
7.64
16.20
27.76
41.71
56.42
69.69
79.53
84.83
85.62
82.92
78.18
72.66
67.02
61.29
55.11
48.15
40.39
32.19
24.02
16.26
9.02
2.17
-4.38
-10.50
-15.78
-19.72
-22.01
-22.82
-22.72
-22.53
-22.95
-24.28
-26.33
-28.59
-30.50
-31.69
-32.18
-32.31
-32.55
-33.28
-34.66
-36.51
-38.36
-39.51
-39.15
-36.52
-31.11
-22.85
-12.22
-0.18
11.98
23.03
32.07
38.66
42.80
44.82
45.20
44.40
42.89
41.00
38.93
36.73
34.32
31.58
28.46
25.03
21.44
17.82
14.31
10.96
7.84
4.97
2.36
-0.12
-2.72
-5.77
-9.49
-13.90
-18.69
-23.35
-27.28
-30.01
-31.28
-31.04
-29.40
-26.48
-22.38
-17.24
-11.31
-4.98
1.17
6.44
10.27
12.33
12.69
11.76
10.10
8.23
6.51
5.07
3.90
2.97
2.23
1.68
1.24
0.78
0.09
-1.05
-2.78
-5.06
-7.66
-10.26
-12.56
-14.39
-15.82
-17.08
-18.44
-20.05
-21.87
-23.64
-25.03
-25.72
-25.47
-24.17
-21.81
-18.58
-14.79
-10.87
-7.28
-4.34
-2.20
-0.72
0.31
1.12
1.84
2.50
3.06
3.50
3.86
4.18
4.43
4.52
4.30
3.69
2.73
1.63
0.64
-0.03
-0.40
-0.71
-1.29
-2.41
-4.04
-5.90
-7.50
-8.42
-8.47
-7.79
-6.70
-5.65
-4.93
-4.74
-5.07
-5.86
-6.95
-8.17
-9.36
-10.40
-11.36
-12.48
-14.16
-16.78
-20.45
-24.84
-29.16
-32.40
-33.68
-32.64
-29.52
-25.03
-20.05
-15.15
-10.44
-5.57
-0.06
6.41
13.69
21.27
28.39
34.31
38.53
40.88
41.47
40.55
38.34
34.86
29.92
23.24
14.70
4.51
-6.76
-18.31
-29.45
-39.75
-49.11
-57.66
-65.49
-72.59
-78.85
-84.24
-88.90
-93.00
-96.47
-98.73
-98.72
-95.21
-87.44
-75.59
-60.93
-45.49
-31.39
-20.18
-12.44
-7.87
-5.66
-4.89
-4.86
-4.99
-4.82
-3.91
-2.04
0.49
2.69
3.13
0.55
-5.44
-14.00
-23.21
-31.02
-36.23
-39.10
-41.26
-44.76
-50.87
-59.12
-67.22
-71.73
-69.43
-58.53
-39.41
-14.49
12.75
38.89
61.52
79.59
93.05
102.18
107.15
107.88
104.44
97.53
88.60
79.59
72.21
67.28
64.52
62.82
60.91
58.03
54.26
50.37
47.31
45.60
44.98
44.54
43.12
39.91
34.82
28.37
21.40
14.62
8.41
2.87
-2.01
-6.13
-9.26
-11.16
-11.70
-10.88
-8.76
-5.28
-0.36
5.98
13.43
21.29
28.59
34.32
37.74
38.51
36.68
32.53
26.48
18.95
10.37
1.26
-7.81
-16.25
-23.49
-29.08
-32.81
-34.68
-35.04
-34.56
-34.21
-34.92
-37.35
-41.48
-46.62
-51.65
-55.58
-58.01
-59.34
-60.50
-62.50
-65.89
-70.54
-75.58
-79.62
-80.92
-77.71
-68.54
-52.71
-30.57
-3.64
25.64
54.48
80.19
100.63
114.31
120.49
119.37
112.18
101.18
89.30
79.38
73.42
71.98
74.06
77.47
79.40
77.33
69.81
57.03
40.94
24.73
11.73
4.24
2.68
5.59
10.34
14.24
15.44
13.32
8.21
0.98
-7.47
-16.27
-24.60
-31.50
-35.96
-37.12
-34.60
-28.77
-20.79
-12.34
-5.13
-0.32
1.82
1.91
0.93
-0.31
-1.60
-3.24
-5.63
-8.82
-12.34
-15.38
-17.26
-17.84
-17.49
-16.85
-16.46
-16.51
-16.98
-17.84
-19.21
-21.34
-24.34
-27.98
-31.68
-34.81
-36.94
-38.15
-38.99
-40.29
-42.85
-47.10
-52.89
-59.29
-64.67
-66.88
-63.93
-54.64
-39.22
-19.39
2.03
22.07
38.41
49.98
56.91
60.12
60.68
59.40
56.77
53.07
48.59
43.79
39.19
35.23
32.13
29.81
27.96
26.15
24.00
21.23
17.74
13.61
9.01
4.17
-0.69
-5.45
-10.12
-14.78
-19.59
-24.69
-30.19
-36.11
-42.22
-47.91
-52.13
-53.47
-50.55
-42.56
-29.65
-13.14
4.87
22.04
36.49
47.22
54.09
57.56
58.29
56.92
53.96
49.83
44.98
39.90
35.06
30.89
27.64
25.32
23.71
22.40
20.87
18.68
15.59
11.66
7.16
2.49
-2.04
-6.25
-10.12
-13.74
-17.32
-21.15
-25.63
-31.16
-37.81
-45.07
-51.62
-55.54
-54.83
-48.20
-35.64
-18.59
0.47
18.85
34.44
46.12
53.80
57.96
59.23
58.15
55.11
50.48
44.77
38.54
32.38
26.69
21.69
17.38
13.69
10.58
8.02
5.95
4.20
2.48
0.37
-2.49
-6.27
-10.85
-15.92
-21.04
-25.90
-30.41
-34.73
-39.25
-44.42
-50.53
-57.42
-64.27
-69.54
-71.25
-67.62
-57.76
-42.21
-22.88
-2.56
16.02
30.93
41.48
47.98
51.29
52.23
51.31
48.69
44.48
39.01
32.87
26.87
21.76
17.99
15.54
13.95
12.59
10.84
8.32
5.00
1.07
-3.16
-7.38
-11.46
-15.35
-19.12
-22.92
-26.93
-31.41
-36.67
-42.93
-50.11
-57.54
-63.78
-66.92
-65.05
-57.02
-43.05
-24.73
-4.63
14.55
30.78
43.02
51.18
55.70
57.19
56.17
53.20
48.95
44.19
39.65
35.79
32.65
29.95
27.30
24.44
21.37
18.38
15.83
13.92
12.47
11.00
8.80
5.32
0.40
-5.59
-11.92
-17.84
-22.88
-27.08
-30.96
-35.30
-40.88
-48.12
-56.87
-66.18
-74.29
-78.93
-77.93
-70.00
-55.31
-35.64
-13.82
7.12
24.92
38.51
47.87
53.57
56.25
56.32
54.10
50.03
44.79
39.20
34.00
29.54
25.81
22.50
19.31
16.11
13.08
10.51
8.64
7.41
6.40
4.91
2.26
-1.91
-7.48
-13.86
-20.25
-26.00
-30.82
-34.91
-38.87
-43.45
-49.30
-56.69
-65.14
-73.37
-79.37
-80.91
-76.31
-65.09
-48.34
-28.38
-8.04
10.28
25.20
36.40
44.25
49.24
51.66
51.60
49.24
45.07
39.99
35.01
30.98
28.21
26.51
25.30
23.98
22.17
19.92
17.52
15.33
13.52
11.89
9.97
7.18
3.15
-2.12
-8.22
-14.47
-20.20
-24.97
-28.71
-31.70
-34.51
-37.75
-42.04
-47.78
-55.04
-63.34
-71.46
-77.57
-79.55
-75.67
-65.27
-49.09
-29.14
-8.09
11.57
28.20
41.18
50.75
57.42
61.65
63.64
63.54
61.61
58.39
54.63
51.10
48.31
46.37
45.07
43.98
42.71
41.05
39.05
36.90
34.86
33.03
31.31
29.37
26.79
23.20
18.47
12.73
6.38
-0.11
-6.36
-12.14
-17.45
-22.45
-27.37
-32.52
-38.23
-44.83
-52.49
-60.91
-69.06
-75.21
-77.28
-73.52
-63.27
-47.34
-27.79
-7.27
11.76
27.75
40.15
49.07
54.90
57.88
58.17
56.02
52.02
47.08
42.24
38.32
35.66
34.07
33.02
31.92
30.39
28.35
26.04
23.77
21.74
19.92
17.99
15.49
11.96
7.22
1.41
-4.95
-11.16
-16.58
-20.86
-24.10
-26.84
-29.88
-34.03
-39.84
-47.33
-55.86
-64.05
-69.98
-71.68
-67.67
-57.55
-42.26
-23.81
-4.68
12.95
27.68
39.01
47.02
51.96
53.97
53.17
49.85
44.67
38.70
33.12
28.83
26.20
24.98
24.46
23.87
22.65
20.70
18.25
15.76
13.55
11.68
9.86
7.59
4.37
-0.03
-5.50
-11.60
-17.67
-23.11
-27.53
-30.93
-33.63
-36.24
-39.46
-43.96
-50.10
-57.78
-66.15
-73.63
-78.05
-77.30
-69.99
-56.12
-37.21
-15.91
4.85
22.76
36.63
46.39
52.60
55.93
56.80
55.44
52.10
47.30
41.85
36.69
32.59
29.82
28.19
27.12
26.02
24.45
22.39
20.12
18.06
16.49
15.35
14.22
12.47
9.54
5.21
-0.27
-6.27
-12.00
-16.89
-20.75
-23.86
-26.81
-30.27
-34.80
-40.68
-47.82
-55.66
-63.11
-68.57
-70.21
-66.46
-56.68
-41.45
-22.59
-2.63
15.97
31.47
43.08
50.81
54.99
55.97
54.05
49.67
43.58
36.88
30.71
25.93
22.78
20.92
19.70
18.53
17.19
15.84
14.78
14.20
13.93
13.47
12.15
9.48
5.35
0.08
-5.69
-11.26
-16.11
-20.08
-23.40
-26.60
-30.34
-35.20
-41.48
-48.94
-56.59
-62.75
-65.34
-62.55
-53.47
-38.64
-19.94
-0.07
18.33
33.38
44.32
51.22
54.55
54.78
52.23
47.26
40.54
33.10
26.12
20.56
16.83
14.71
13.52
12.53
11.30
9.79
8.31
7.23
6.67
6.39
5.83
4.35
1.49
-2.78
-8.03
-13.57
-18.67
-22.88
-26.15
-28.86
-31.68
-35.34
-40.45
-47.15
-54.94
-62.54
-68.02
-69.29
-64.76
-53.96
-37.93
-18.94
0.25
17.23
30.55
39.90
45.66
48.40
48.50
46.15
41.60
35.47
28.74
22.53
17.66
14.40
12.39
10.94
9.43
7.58
5.57
3.79
2.59
1.98
1.56
0.72
-1.14
-4.29
-8.58
-13.47
-18.30
-22.54
-25.93
-28.60
-30.99
-33.64
-37.17
-42.03
-48.33
-55.63
-62.79
-68.05
-69.45
-65.52
-55.84
-41.37
-24.18
-6.83
8.50
20.46
28.68
33.44
35.25
34.59
31.90
27.68
22.66
17.64
13.33
10.10
7.87
6.27
4.87
3.42
1.91
0.50
-0.71
-1.76
-2.87
-4.35
-6.38
-8.94
-11.85
-14.84
-17.71
-20.43
-23.14
-26.13
-29.76
-34.36
-40.06
-46.59
-53.11
-58.24
-60.30
-57.85
-50.20
-37.75
-21.92
-4.77
11.65
25.77
36.77
44.51
49.28
51.52
51.69
50.27
47.75
44.68
41.58
38.82
36.56
34.75
33.22
31.84
30.59
29.52
28.72
28.13
27.50
26.45
24.56
21.56
17.34
12.07
6.07
-0.26
-6.58
-12.73
-18.79
-25.04
-31.80
-39.16
-46.67
-53.25
-57.32
-57.29
-52.17
-41.97
-27.83
-11.65
4.47
18.85
30.47
39.07
44.80
47.99
48.96
47.99
45.43
41.75
37.56
33.49
30.11
27.75
26.49
26.15
26.39
26.81
27.09
26.93
26.10
24.36
21.52
17.52
12.51
6.86
1.01
-4.63
-9.92
-15.04
-20.44
-26.64
-33.95
-42.26
-50.79
-58.20
-62.77
-62.96
-57.88
-47.70
-33.71
-17.87
-2.34
11.17
21.69
28.94
33.09
34.48
33.44
30.37
25.80
20.48
15.27
10.90
7.79
5.99
5.26
5.26
5.66
6.26
6.90
7.42
7.64
7.34
6.39
4.76
2.55
-0.08
-2.94
-5.95
-9.09
-12.51
-16.50
-21.45
-27.72
-35.25
-43.41
-50.83
-55.68
-56.27
-51.65
-42.08
-28.92
-14.20
0.17
12.85
23.29
31.43
37.34
41.03
42.46
41.81
39.57
36.56
33.58
31.15
29.36
27.98
26.71
25.38
24.05
22.88
21.97
21.23
20.34
18.83
16.31
12.57
7.72
2.19
-3.46
-8.72
-13.33
-17.41
-21.41
-25.94
-31.50
-38.24
-45.78
-53.12
-58.83
-61.26
-59.10
-51.71
-39.52
-23.93
-6.95
9.39
23.56
34.78
42.97
48.36
51.29
51.98
50.71
47.90
44.21
40.41
37.14
34.67
32.86
31.25
29.38
27.03
24.32
21.62
19.27
17.34
15.56
13.38
10.28
5.97
0.59
-5.37
-11.25
-16.48
-20.81
-24.36
-27.61
-31.24
-35.88
-41.90
-49.17
-56.91
-63.74
-67.98
-68.02
-62.89
-52.56
-38.08
-21.23
-4.14
11.35
24.01
33.43
39.74
43.37
44.78
44.29
42.25
39.15
35.58
32.25
29.63
27.86
26.69
25.64
24.28
22.46
20.31
18.12
16.15
14.36
12.48
10.09
6.84
2.61
-2.37
-7.63
-12.63
-16.90
-20.30
-23.06
-25.72
-29.00
-33.55
-39.60
-46.76
-53.90
-59.38
-61.37
-58.45
-50.09
-36.86
-20.31
-2.50
14.59
29.43
41.19
49.58
54.70
56.82
56.31
53.77
49.96
45.76
42.04
39.39
38.09
38.02
38.84
40.14
41.53
42.77
43.76
44.47
44.95
45.20
45.15
44.62
43.44
41.52
38.99
36.17
33.48
31.21
29.35
27.49
24.99
21.20
15.83
9.06
1.52
-5.98
-12.76
-18.56
-23.62
-28.57
-34.18
-41.16
-49.92
-60.38
-71.84
-82.82
-91.25
-94.96
-92.34
-83.03
-68.20
-50.17
-31.70
-15.05
-1.54
8.51
15.36
19.40
20.92
20.17
17.60
13.95
10.09
6.82
4.63
3.58
3.48
3.99
4.80
5.66
6.39
6.85
6.92
6.44
5.28
3.38
0.80
-2.26
-5.46
-8.48
-11.12
-13.39
-15.48
-17.63
-19.93
-22.30
-24.50
-26.31
-27.66
-28.73
-29.82
-31.30
-33.50
-36.58
-40.44
-44.63
-48.18
-49.77
-47.99
-41.85
-31.22
-16.99
-0.93
14.94
28.89
39.89
47.67
52.45
54.63
54.54
52.52
48.96
44.43
39.60
35.14
31.45
28.61
26.42
24.57
22.79
20.98
19.16
17.42
15.80
14.21
12.44
10.22
7.29
3.49
-1.16
-6.41
-11.84
-17.00
-21.51
-25.21
-28.16
-30.62
-32.99
-35.73
-39.31
-44.10
-50.15
-57.03
-63.59
-68.13
-68.78
-64.13
-53.78
-38.64
-20.66
-2.29
14.32
27.79
37.66
44.16
47.82
49.18
48.61
46.43
43.01
38.85
34.61
30.89
28.11
26.33
25.30
24.55
23.66
22.43
20.95
19.50
18.32
17.40
16.45
14.92
12.34
8.49
3.56
-1.87
-7.10
-11.57
-15.08
-17.81
-20.26
-23.05
-26.67
-31.44
-37.49
-44.68
-52.57
-60.22
-66.17
-68.65
-66.04
-57.55
-43.61
-25.94
-7.00
10.75
25.56
36.74
44.51
49.59
52.71
54.44
55.14
55.20
55.07
55.27
56.09
57.48
59.00
60.00
59.99
58.80
56.57
53.53
49.60
44.30
36.86
26.55
13.20
-2.68
-19.81
-36.56
-51.20
-62.36
-69.18
-71.50
-69.87
-65.48
-59.83
-54.40
-50.22
-47.66
-46.54
-46.40
-46.78
-47.30
-47.39
-46.14
-42.25
-34.41
-22.01
-5.61
12.92
30.97
46.11
56.85
63.02
65.48
65.53
64.29
62.37
59.99
57.25
54.40
51.83
49.94
48.93
48.63
48.49
47.80
45.97
42.83
38.77
34.62
31.36
29.64
29.63
30.91
32.74
34.33
35.06
34.57
32.69
29.39
24.84
19.44
13.87
8.90
5.18
2.99
2.06
1.71
1.10
-0.44
-3.15
-6.79
-10.92
-15.06
-19.13
-23.43
-28.48
-34.75
-42.37
-51.09
-60.40
-69.81
-79.00
-87.64
-95.24
-100.93
-103.65
-102.53
-97.45
-89.16
-79.14
-68.99
-59.90
-52.33
-46.13
-40.90
-36.37
-32.48
-29.31
-26.84
-24.86
-23.05
-21.21
-19.36
-17.71
-16.59
-16.15
-16.38
-17.10
-18.10
-19.27
-20.62
-22.19
-23.91
-25.46
-26.27
-25.64
-22.91
-17.70
-10.00
-0.24
10.82
22.24
32.99
42.13
48.86
52.67
53.47
51.54
47.54
42.34
36.75
31.43
26.74
22.73
19.29
16.13
12.99
9.66
6.10
2.43
-1.15
-4.39
-7.20
-9.64
-11.94
-14.39
-17.20
-20.38
-23.78
-27.10
-30.04
-32.46
-34.39
-36.13
-38.07
-40.63
-44.05
-48.23
-52.53
-55.78
-56.47
-53.12
-44.85
-31.85
-15.48
1.99
18.11
30.91
39.43
43.69
44.41
42.51
38.79
33.91
28.48
23.18
18.69
15.53
13.80
13.21
13.15
13.02
12.42
11.25
9.67
7.89
5.97
3.84
1.28
-1.91
-5.76
-10.11
-14.64
-18.97
-22.84
-26.20
-29.27
-32.51
-36.43
-41.43
-47.51
-54.07
-59.95
-63.55
-63.32
-58.21
-48.00
-33.52
-16.37
1.45
18.06
32.06
42.69
49.74
53.41
54.16
52.54
49.24
45.03
40.69
36.85
33.89
31.78
30.20
28.68
26.83
24.56
22.04
19.61
17.50
15.67
13.73
11.12
7.34
2.18
-4.08
-10.85
-17.42
-23.21
-28.04
-32.16
-36.10
-40.54
-46.04
-52.79
-60.45
-67.98
-73.74
-75.81
-72.52
-63.10
-48.06
-29.16
-8.90
10.24
26.46
38.89
47.49
52.71
55.03
54.90
52.78
49.27
45.15
41.29
38.35
36.60
35.84
35.52
35.04
33.99
32.29
30.20
28.08
26.14
24.29
22.10
19.09
14.95
9.81
4.17
-1.29
-6.05
-10.01
-13.48
-17.07
-21.45
-27.07
-34.13
-42.38
-51.11
-59.09
-64.67
-66.09
-62.04
-52.18
-37.36
-19.55
-1.23
15.29
28.49
37.79
43.38
45.85
45.86
44.04
40.95
37.22
33.47
30.22
27.76
26.11
25.04
24.28
23.62
23.02
22.51
22.11
21.69
20.99
19.68
17.50
14.39
10.48
6.11
1.65
-2.61
-6.58
-10.41
-14.44
-19.10
-24.69
-31.15
-37.86
-43.64
-46.89
-46.13
-40.45
-30.02
-16.03
-0.45
14.55
27.24
36.58
42.26
44.48
43.69
40.44
35.35
29.20
22.87
17.23
12.86
9.94
8.17
6.95
5.72
4.14
2.24
0.30
-1.39
-2.78
-4.12
-5.91
-8.65
-12.53
-17.29
-22.34
-26.98
-30.70
-33.44
-35.61
-37.97
-41.33
-46.30
-52.99
-60.88
-68.72
-74.70
-76.82
-73.48
-64.05
-49.21
-30.84
-11.43
6.67
21.82
33.40
41.53
46.66
49.25
49.64
48.16
45.31
41.83
38.53
36.04
34.59
33.97
33.69
33.23
32.36
31.15
29.89
28.86
28.09
27.26
25.83
23.22
19.11
13.57
7.08
0.35
-5.93
-11.36
-15.96
-20.21
-24.85
-30.68
-38.15
-47.13
-56.70
-65.16
-70.44
-70.66
-64.78
-53.00
-36.81
-18.56
-0.71
14.76
26.77
35.12
40.13
42.34
42.24
40.29
36.99
33.00
29.02
25.68
23.34
21.97
21.18
20.42
19.23
17.46
15.29
13.20
11.61
10.66
10.01
8.97
6.79
3.01
-2.25
-8.37
-14.41
-19.58
-23.51
-26.37
-28.79
-31.53
-35.27
-40.43
-47.05
-54.66
-62.21
-68.10
-70.41
-67.46
-58.43
-43.81
-25.41
-5.87
12.20
26.98
37.73
44.71
48.60
50.03
49.38
46.88
42.84
37.87
32.81
28.48
25.38
23.54
22.53
21.76
20.67
19.00
16.79
14.36
12.05
10.07
8.40
6.76
4.76
2.06
-1.51
-5.83
-10.60
-15.42
-19.94
-23.97
-27.51
-30.71
-33.88
-37.39
-41.65
-47.04
-53.70
-61.30
-68.81
-74.53
-76.45
-72.89
-63.20
-48.11
-29.63
-10.35
7.36
22.01
33.21
41.35
47.06
50.80
52.73
52.91
51.51
49.04
46.22
43.75
42.12
41.40
41.33
41.49
41.48
41.12
40.38
39.40
38.30
37.17
35.94
34.43
32.39
29.50
25.50
20.30
14.04
7.11
0.09
-6.43
-12.06
-16.70
-20.63
-24.36
-28.55
-33.78
-40.34
-48.02
-55.97
-62.65
-66.19
-64.84
-57.61
-44.77
-27.85
-9.27
8.46
23.50
35.03
43.18
48.57
51.80
53.17
52.71
50.52
47.01
42.95
39.31
36.85
35.87
36.08
36.82
37.37
37.27
36.44
35.21
33.97
32.98
32.18
31.15
29.40
26.54
22.55
17.75
12.70
7.93
3.74
0.09
-3.39
-7.17
-11.75
-17.42
-24.32
-32.31
-40.95
-49.38
-56.27
-60.02
-59.17
-52.94
-41.59
-26.56
-9.99
5.81
19.09
28.96
35.35
38.69
39.51
38.21
35.12
30.64
25.39
20.13
15.66
12.54
10.94
10.65
11.16
11.86
12.24
12.02
11.15
9.74
8.01
6.17
4.32
2.48
0.54
-1.65
-4.23
-7.30
-10.84
-14.72
-18.74
-22.61
-26.06
-28.94
-31.28
-33.40
-35.85
-39.30
-44.27
-50.86
-58.42
-65.50
-70.06
-70.02
-63.95
-51.71
-34.58
-14.94
4.47
21.40
34.62
43.93
49.79
52.84
53.53
52.14
48.99
44.64
39.91
35.64
32.36
30.15
28.64
27.28
25.64
23.67
21.60
19.83
18.59
17.81
17.09
15.88
13.74
10.57
6.63
2.46
-1.41
-4.67
-7.40
-9.99
-12.95
-16.65
-21.08
-25.84
-30.33
-34.02
-36.69
-38.58
-40.30
-42.63
-46.26
-51.54
-58.33
-65.80
-72.47
-76.40
-75.62
-68.79
-55.75
-37.75
-17.19
3.13
20.81
34.42
43.64
48.93
51.06
50.77
48.65
45.23
41.07
36.81
33.00
30.02
27.95
26.64
25.79
25.12
24.41
23.60
22.68
21.66
20.43
18.79
16.51
13.44
9.67
5.53
1.52
-1.91
-4.57
-6.67
-8.65
-11.04
-14.10
-17.73
-21.48
-24.83
-27.42
-29.28
-30.82
-32.71
-35.67
-40.24
-46.57
-54.25
-62.18
-68.54
-71.14
-68.08
-58.41
-42.72
-23.04
-2.30
16.71
32.11
43.26
50.51
54.64
56.31
55.90
53.64
49.89
45.27
40.57
36.47
33.35
31.14
29.53
28.09
26.53
24.75
22.83
20.95
19.29
17.88
16.57
14.99
12.73
9.46
5.15
0.12
-5.06
-9.74
-13.45
-16.05
-17.74
-18.99
-20.34
-22.22
-24.83
-28.05
-31.59
-35.05
-38.09
-40.56
-42.53
-44.26
-46.21
-48.88
-52.76
-58.10
-64.68
-71.51
-76.83
-78.37
-74.10
-63.04
-45.82
-24.63
-2.54
17.48
33.51
44.94
52.22
56.25
57.80
57.28
54.93
51.09
46.45
41.90
38.26
35.98
34.99
34.79
34.76
34.43
33.60
32.40
31.04
29.73
28.47
27.11
25.41
23.13
20.15
16.51
12.44
8.26
4.29
0.76
-2.27
-4.96
-7.60
-10.53
-13.99
-18.06
-22.63
-27.44
-32.11
-36.31
-39.83
-42.67
-45.09
-47.61
-50.84
-55.31
-61.22
-68.15
-74.99
-79.91
-80.85
-76.04
-64.70
-47.46
-26.36
-4.23
16.09
32.55
44.32
51.58
55.15
55.93
54.63
51.84
48.13
44.16
40.54
37.76
35.92
34.84
34.18
33.62
33.02
32.42
31.97
31.76
31.73
31.65
31.20
30.06
28.05
25.24
21.90
18.41
15.09
12.08
9.25
6.39
3.27
-0.10
-3.57
-6.88
-9.86
-12.58
-15.32
-18.41
-22.10
-26.36
-30.84
-35.11
-38.72
-41.52
-43.71
-45.79
-48.42
-52.22
-57.50
-64.12
-71.24
-77.37
-80.53
-78.78
-70.80
-56.52
-37.29
-15.60
5.66
24.02
38.06
47.51
52.94
55.21
55.12
53.20
49.93
45.82
41.54
37.77
35.01
33.38
32.67
32.36
31.95
31.13
29.91
28.57
27.46
26.79
26.45
26.03
24.96
22.79
19.43
15.17
10.57
6.24
2.58
-0.35
-2.82
-5.27
-8.16
-11.75
-16.00
-20.64
-25.22
-29.30
-32.63
-35.24
-37.50
-39.99
-43.34
-48.01
-54.06
-60.96
-67.58
-72.28
-73.25
-68.98
-58.84
-43.42
-24.51
-4.60
13.83
28.98
40.08
47.27
51.20
52.59
51.98
49.75
46.30
42.22
38.22
34.92
32.71
31.54
31.04
30.75
30.30
29.58
28.73
27.99
27.50
27.14
26.53
25.17
22.69
19.05
14.59
9.94
5.75
2.33
-0.39
-2.90
-5.77
-9.45
-13.93
-18.87
-23.68
-27.84
-31.16
-33.79
-36.22
-39.02
-42.71
-47.56
-53.56
-60.28
-66.77
-71.57
-72.95
-69.38
-60.12
-45.65
-27.70
-8.76
8.65
22.74
32.82
39.13
42.41
43.39
42.55
40.14
36.44
31.97
27.49
23.79
21.44
20.56
20.84
21.69
22.50
22.82
22.54
21.78
20.78
19.72
18.57
17.08
14.94
11.83
7.71
2.76
-2.58
-7.84
-12.62
-16.75
-20.29
-23.48
-26.64
-30.10
-34.15
-39.02
-44.71
-50.91
-56.82
-61.17
-62.41
-59.21
-50.96
-38.14
-22.26
-5.46
10.19
23.20
32.94
39.42
43.04
44.18
43.16
40.32
36.17
31.45
27.04
23.65
21.65
20.88
20.81
20.77
20.25
19.07
17.44
15.71
14.22
12.97
11.69
9.90
7.19
3.44
-1.15
-6.10
-10.90
-15.16
-18.76
-21.79
-24.55
-27.44
-30.90
-35.32
-40.92
-47.54
-54.44
-60.28
-63.35
-62.07
-55.51
-43.84
-28.35
-11.09
5.73
20.36
31.82
39.92
44.96
47.36
47.51
45.72
42.37
38.05
33.53
29.61
26.88
25.53
25.30
25.60
25.77
25.34
24.22
22.65
21.02
19.65
18.55
17.42
15.76
13.10
9.27
4.49
-0.74
-5.78
-10.21
-13.89
-17.08
-20.22
-23.80
-28.22
-33.70
-40.25
-47.51
-54.68
-60.50
-63.33
-61.65
-54.56
-42.25
-26.10
-8.33
8.67
23.08
33.99
41.39
45.71
47.47
46.99
44.42
40.09
34.63
28.98
24.12
20.75
19.00
18.43
18.34
18.01
17.09
15.62
13.93
12.40
11.19
10.12
8.74
6.54
3.19
-1.28
-6.46
-11.73
-16.46
-20.31
-23.29
-25.79
-28.37
-31.61
-35.91
-41.40
-47.79
-54.34
-59.83
-62.72
-61.53
-55.33
-44.14
-29.10
-12.17
4.43
18.89
30.16
38.01
42.72
44.72
44.36
41.93
37.88
32.90
27.91
23.78
21.07
19.80
19.54
19.64
19.51
18.88
17.76
16.41
15.07
13.85
12.58
10.91
8.42
4.85
0.25
-5.05
-10.46
-15.42
-19.56
-22.93
-25.95
-29.24
-33.46
-39.02
-45.96
-53.80
-61.48
-67.46
-70.00
-67.59
-59.48
-46.08
-28.98
-10.51
6.89
21.43
32.27
39.53
43.84
45.91
46.20
44.97
42.39
38.80
34.79
31.06
28.19
26.46
25.78
25.76
25.88
25.69
24.93
23.61
21.91
20.05
18.18
16.26
14.10
11.40
7.97
3.73
-1.15
-6.28
-11.26
-15.74
-19.60
-22.95
-26.07
-29.31
-33.10
-37.81
-43.74
-50.89
-58.69
-65.87
-70.57
-70.80
-65.15
-53.46
-36.98
-18.09
0.54
16.75
29.42
38.48
44.42
47.89
49.36
49.11
47.43
44.81
41.88
39.28
37.42
36.39
35.95
35.74
35.49
35.13
34.68
34.20
33.58
32.57
30.81
28.08
24.39
20.05
15.54
11.30
7.49
3.99
0.43
-3.58
-8.25
-13.44
-18.78
-23.77
-28.07
-31.56
-34.50
-37.38
-40.82
-45.39
-51.29
-58.14
-64.84
-69.61
-70.43
-65.71
-54.92
-38.95
-19.92
-0.52
16.86
30.71
40.66
47.11
50.79
52.31
52.05
50.27
47.36
43.90
40.57
37.95
36.33
35.61
35.44
35.41
35.21
34.69
33.84
32.72
31.33
29.64
27.56
25.07
22.18
18.98
15.56
11.94
8.08
3.93
-0.48
-5.04
-9.46
-13.54
-17.21
-20.64
-24.26
-28.61
-34.20
-41.36
-50.15
-60.13
-70.30
-79.07
-84.45
-84.59
-78.46
-66.32
-49.88
-31.77
-14.76
-0.85
9.12
15.34
18.62
19.70
19.04
16.85
13.32
8.96
4.53
0.88
-1.37
-2.07
-1.48
-0.17
1.36
2.85
4.32
5.95
7.90
10.07
12.09
13.41
13.49
12.06
9.17
5.24
0.86
-3.43
-7.31
-10.81
-14.21
-17.88
-22.10
-26.91
-32.04
-37.07
-41.58
-45.33
-48.43
-51.25
-54.34
-58.27
-63.51
-70.23
-78.22
-86.67
-94.15
-98.73
-98.44
-91.81
-78.52
-59.53
-36.97
-13.49
8.45
27.16
41.83
52.43
59.27
62.83
63.58
62.10
59.10
55.46
51.99
49.28
47.51
46.52
45.91
45.29
44.52
43.63
42.82
42.24
41.83
41.25
40.03
37.67
33.87
28.73
22.67
16.30
10.19
4.62
-0.54
-5.73
-11.45
-18.00
-25.33
-33.01
-40.47
-47.26
-53.32
-58.95
-64.70
-71.19
-78.81
-87.70
-97.63
-107.90
-117.37
-124.47
-127.44
-124.76
-115.61
-100.20
-79.73
-56.04
-31.06
-6.40
16.88
38.03
56.42
71.40
82.29
88.70
90.66
88.78
84.08
77.72
70.65
63.45
56.32
49.27
42.28
35.45
29.00
23.11
17.83
13.01
8.36
3.63
-1.30
-6.39
-11.52
-16.66
-21.96
-27.74
-34.29
-41.72
-49.87
-58.33
-66.64
-74.55
-82.11
-89.61
-97.36
-105.34
-112.95
-118.98
-121.83
-119.88
-111.96
-97.72
-77.66
-53.12
-25.89
2.10
29.12
53.80
75.20
92.81
106.41
116.07
122.00
124.60
124.39
122.05
118.36
114.08
109.80
105.82
102.17
98.70
95.24
91.69
88.04
84.26
80.21
75.68
70.44
64.53
58.21
51.91
45.99
40.54
35.36
30.00
24.12
17.55
10.48
3.29
-3.56
-9.73
-15.12
-19.74
-23.77
-27.41
-30.80
-33.89
-36.24
-37.03
-35.13
-29.43
-19.33
-5.04
12.32
30.97
48.92
64.53
76.81
85.51
90.91
93.56
94.04
92.83
90.31
86.81
82.64
78.10
73.44
68.80
64.19
59.53
54.74
49.82
44.91
40.27
36.18
32.89
30.53
29.17
28.72
29.01
29.70
30.34
30.47
29.79
28.30
26.39
24.70
23.88
24.27
25.75
27.67
29.00
28.62
25.75
20.22
12.70
4.68
-1.90
-5.08
-3.63
2.62
12.63
24.50
36.12
45.74
52.37
55.76
56.19
54.11
50.00
44.29
37.43
29.93
22.31
15.00
8.26
2.20
-3.17
-7.95
-12.31
-16.50
-20.84
-25.65
-31.15
-37.44
-44.53
-52.38
-60.92
-70.05
-79.54
-88.98
-97.83
-105.62
-112.14
-117.51
-122.16
-126.54
-130.81
-134.72
-137.72
-139.23
-138.80
-136.19
-131.15
-123.24
-111.88
-96.58
-77.42
-55.33
-32.10
-9.84
9.58
25.06
36.39
44.02
48.67
50.95
51.33
50.17
47.93
45.21
42.67
40.86
40.04
40.13
40.79
41.52
41.87
41.54
40.46
38.74
36.57
34.11
31.45
28.52
25.19
21.32
16.87
11.92
6.70
1.50
-3.40
-7.83
-11.78
-15.41
-19.03
-23.05
-27.85
-33.64
-40.28
-47.10
-52.94
-56.38
-56.11
-51.42
-42.48
-30.32
-16.58
-3.02
8.94
18.47
25.34
29.68
31.80
31.93
30.32
27.23
23.16
18.75
14.75
11.78
10.17
9.89
10.63
11.95
13.47
14.96
16.31
17.50
18.44
19.05
19.16
18.63
17.31
15.12
12.03
8.13
3.60
-1.24
-6.04
-10.49
-14.43
-17.89
-21.10
-24.41
-28.19
-32.68
-37.87
-43.30
-48.06
-50.83
-50.26
-45.34
-35.78
-22.20
-5.97
11.16
27.50
41.74
53.12
61.32
66.33
68.29
67.46
64.20
58.99
52.44
45.19
37.89
31.07
25.14
20.37
16.90
14.80
13.98
14.21
15.12
16.24
17.12
17.47
17.22
16.50
15.59
14.70
13.97
13.31
12.57
11.55
10.21
8.68
7.22
6.12
5.55
5.39
5.25
4.57
2.85
-0.15
-4.24
-8.75
-12.62
-14.58
-13.52
-8.82
-0.59
10.28
22.33
33.99
43.94
51.34
55.84
57.48
56.41
52.91
47.35
40.30
32.42
24.35
16.55
9.16
1.99
-5.32
-13.17
-21.78
-31.12
-40.88
-50.57
-59.67
-67.85
-74.97
-81.17
-86.66
-91.62
-96.00
-99.58
-102.03
-103.12
-102.87
-101.61
-99.92
-98.49
-97.96
-98.80
-101.17
-104.69
-108.40
-110.68
-109.64
-103.56
-91.59
-74.18
-53.07
-30.84
-10.04
7.45
20.82
30.17
36.06
39.08
39.65
38.15
35.09
31.22
27.43
24.42
22.51
21.53
20.98
20.29
19.12
17.48
15.65
14.00
12.74
11.76
10.64
8.88
6.09
2.27
-2.25
-6.90
-11.16
-14.78
-17.91
-20.97
-24.54
-29.14
-34.98
-41.84
-48.97
-55.15
-58.87
-58.72
-53.84
-44.23
-30.83
-15.33
0.36
14.54
26.05
34.41
39.62
41.94
41.80
39.67
36.15
31.89
27.56
23.72
20.68
18.49
16.97
15.86
14.96
14.19
13.57
13.12
12.75
12.21
11.12
9.14
6.07
2.02
-2.62
-7.36
-11.82
-15.83
-19.61
-23.66
-28.53
-34.64
-42.02
-50.07
-57.65
-63.21
-65.21
-62.51
-54.81
-42.77
-27.84
-11.88
3.30
16.32
26.33
33.03
36.48
36.98
35.01
31.24
26.43
21.40
16.87
13.31
10.91
9.53
8.82
8.41
8.02
7.50
6.82
5.94
4.77
3.09
0.63
-2.78
-7.10
-12.06
-17.23
-22.18
-26.68
-30.80
-34.96
-39.72
-45.66
-53.00
-61.43
-69.92
-76.83
-80.34
-78.89
-71.79
-59.42
-43.17
-24.99
-6.84
9.76
23.88
35.13
43.40
48.76
51.33
51.41
49.51
46.39
42.96
40.00
38.05
37.27
37.42
38.04
38.65
38.92
38.80
38.46
38.10
37.73
37.10
35.72
33.10
28.98
23.50
17.16
10.66
4.58
-0.77
-5.46
-9.88
-14.57
-20.10
-26.89
-35.03
-44.17
-53.38
-61.20
-65.90
-65.98
-60.60
-49.95
-35.24
-18.33
-1.19
14.55
27.83
38.18
45.51
49.93
51.65
51.03
48.61
45.09
41.31
37.97
35.59
34.32
33.99
34.25
34.71
35.06
35.22
35.22
35.17
35.09
34.81
34.00
32.25
29.26
25.00
19.78
14.10
8.53
3.41
-1.19
-5.48
-9.86
-14.72
-20.36
-26.89
-34.07
-41.24
-47.33
-50.99
-50.93
-46.31
-37.13
-24.25
-9.22
6.20
20.47
32.52
41.85
48.32
52.02
53.12
51.93
48.93
44.82
40.39
36.41
33.42
31.58
30.74
30.52
30.44
30.14
29.37
28.10
26.42
24.48
22.39
20.18
17.76
14.94
11.56
7.54
3.00
-1.77
-6.37
-10.40
-13.72
-16.43
-18.97
-21.90
-25.75
-30.81
-37.04
-44.03
-51.01
-56.93
-60.58
-60.81
-56.82
-48.47
-36.39
-21.91
-6.71
7.63
20.00
29.91
37.36
42.56
45.74
47.03
46.63
44.88
42.39
39.88
37.98
36.97
36.77
37.01
37.26
37.25
36.92
36.37
35.70
34.94
33.97
32.59
30.66
28.12
25.03
21.55
17.86
14.10
10.34
6.47
2.32
-2.29
-7.44
-12.99
-18.63
-23.93
-28.56
-32.38
-35.53
-38.38
-41.43
-45.17
-49.84
-55.27
-60.75
-65.10
-66.93
-65.02
-58.79
-48.52
-35.33
-20.81
-6.58
6.11
16.62
24.75
30.62
34.39
36.25
36.45
35.40
33.62
31.72
30.20
29.33
29.08
29.27
29.65
30.01
30.26
30.41
30.52
30.61
30.63
30.42
29.82
28.73
27.16
25.28
23.29
21.35
19.50
17.62
15.56
13.20
10.54
7.71
4.91
2.29
-0.08
-2.30
-4.55
-7.04
-9.91
-13.21
-16.81
-20.48
-24.00
-27.20
-30.08
-32.80
-35.72
-39.22
-43.63
-49.07
-55.19
-61.16
-65.66
-67.22
-64.61
-57.29
-45.76
-31.40
-16.16
-1.95
9.84
18.60
24.39
27.63
28.76
28.11
25.93
22.58
18.56
14.55
11.13
8.66
7.16
6.43
6.17
6.18
6.37
6.71
7.16
7.57
7.73
7.45
6.66
5.40
3.80
2.01
0.13
-1.80
-3.84
-6.01
-8.33
-10.73
-13.13
-15.44
-17.63
-19.77
-22.00
-24.49
-27.35
-30.54
-33.90
-37.20
-40.23
-42.94
-45.48
-48.18
-51.46
-55.64
-60.69
-66.14
-70.93
-73.70
-73.09
-68.18
-58.80
-45.71
-30.36
-14.48
0.37
13.16
23.42
31.17
36.59
39.89
41.23
40.76
38.80
35.89
32.73
30.04
28.34
27.83
28.39
29.65
31.18
32.65
33.83
34.63
34.96
34.79
34.01
32.55
30.36
27.47
24.03
20.27
16.59
13.36
10.89
9.22
8.09
6.98
5.30
2.69
-0.88
-5.05
-9.34
-13.27
-16.68
-19.68
-22.59
-25.83
-29.75
-34.64
-40.51
-47.08
-53.63
-59.00
-61.77
-60.69
-55.07
-45.08
-31.78
-16.80
-1.92
11.39
22.24
30.33
35.77
38.88
39.96
39.29
37.20
34.06
30.39
26.73
23.53
21.09
19.46
18.60
18.36
18.58
19.10
19.68
20.00
19.76
18.71
16.78
14.06
10.82
7.31
3.71
0.07
-3.67
-7.59
-11.68
-15.86
-19.95
-23.79
-27.35
-30.74
-34.23
-38.19
-42.96
-48.71
-55.25
-61.90
-67.51
-70.68
-70.13
-65.11
-55.74
-42.95
-28.25
-13.26
0.63
12.52
22.01
28.99
33.56
35.91
36.34
35.28
33.23
30.76
28.32
26.18
24.47
23.15
22.21
21.61
21.40
21.59
22.08
22.61
22.81
22.27
20.73
18.14
14.67
10.65
6.36
1.96
-2.65
-7.72
-13.54
-20.26
-27.74
-35.59
-43.23
-50.08
-55.82
-60.44
-64.25
-67.78
-71.65
-76.29
-81.81
-87.82
-93.39
-97.12
-97.49
-93.17
-83.50
-68.76
-50.06
-29.13
-7.79
12.46
30.70
46.53
59.87
70.77
79.27
85.41
89.37
91.50
92.32
92.40
92.19
91.93
91.60
91.09
90.29
89.22
88.01
86.78
85.56
84.17
82.28
79.57
75.83
71.03
65.41
59.28
53.03
46.92
41.07
35.44
29.93
24.49
19.19
14.24
9.98
6.67
4.43
3.06
2.07
0.74
-1.76
-6.04
-12.35
-20.35
-29.11
-37.17
-42.84
-44.54
-41.24
-32.70
-19.63
-3.51
13.73
30.12
44.09
54.63
61.35
64.30
63.81
60.20
53.83
45.07
34.41
22.58
10.43
-1.15
-11.48
-20.21
-27.31
-32.99
-37.47
-40.86
-43.15
-44.34
-44.58
-44.24
-43.85
-43.99
-45.01
-46.99
-49.66
-52.56
-55.20
-57.19
-58.36
-58.77
-58.65
-58.36
-58.31
-58.92
-60.50
-63.12
-66.47
-69.69
-71.51
-70.45
-65.35
-55.78
-42.26
-26.21
-9.50
6.08
19.22
29.22
35.97
39.69
40.75
39.64
36.94
33.32
29.50
26.09
23.46
21.67
20.55
19.82
19.28
18.84
18.51
18.26
17.95
17.32
16.08
14.02
11.15
7.69
3.97
0.30
-3.16
-6.42
-9.73
-13.45
-17.97
-23.45
-29.62
-35.65
-40.24
-41.90
-39.47
-32.54
-21.63
-8.08
6.35
19.96
31.46
40.18
45.92
48.85
49.29
47.67
44.49
40.35
35.90
31.72
28.23
25.61
23.79
22.56
21.73
21.17
20.88
20.83
20.87
20.68
19.81
17.81
14.47
9.87
4.38
-1.45
-7.14
-12.39
-17.24
-22.01
-27.15
-33.15
-40.22
-48.14
-56.02
-62.40
-65.51
-63.84
-56.69
-44.52
-28.89
-12.03
3.88
17.24
27.30
34.03
37.82
39.14
38.45
36.22
33.00
29.40
26.00
23.16
20.98
19.26
17.69
16.05
14.31
12.65
11.37
10.66
10.45
10.38
9.86
8.34
5.50
1.40
-3.52
-8.64
-13.39
-17.50
-21.06
-24.51
-28.45
-33.42
-39.65
-46.85
-54.12
-59.97
-62.67
-60.70
-53.35
-40.99
-25.10
-7.81
8.70
22.86
33.95
42.00
47.43
50.68
52.05
51.75
50.03
47.33
44.16
41.00
38.08
35.40
32.78
30.04
27.14
24.22
21.49
19.19
17.33
15.76
14.11
11.91
8.77
4.47
-0.94
-7.12
-13.56
-19.68
-25.07
-29.57
-33.39
-37.07
-41.27
-46.58
-53.14
-60.50
-67.52
-72.58
-73.98
-70.46
-61.68
-48.36
-32.15
-15.17
0.56
13.56
23.05
28.97
31.63
31.62
29.57
26.14
22.03
17.94
14.44
11.90
10.38
9.69
9.53
9.60
9.74
9.99
10.43
11.08
11.81
12.22
11.85
10.27
7.32
3.18
-1.67
-6.64
-11.25
-15.28
-18.83
-22.28
-26.12
-30.79
-36.49
-42.90
-49.16
-53.81
-55.25
-52.13
-43.98
-31.42
-16.04
0.03
14.84
27.05
36.14
42.22
45.66
46.85
46.11
43.74
40.19
36.07
32.01
28.51
25.83
23.92
22.58
21.62
20.90
20.39
20.03
19.63
18.89
17.47
15.13
11.90
8.03
3.88
-0.21
-4.14
-8.06
-12.35
-17.49
-23.84
-31.43
-39.79
-47.84
-54.07
-56.82
-54.82
-47.59
-35.77
-20.98
-5.36
8.98
20.54
28.64
33.40
35.38
35.20
33.33
30.02
25.45
19.91
13.84
7.87
2.59
-1.59
-4.52
-6.33
-7.35
-8.01
-8.73
-9.83
-11.53
-13.87
-16.80
-20.17
-23.78
-27.41
-30.96
-34.41
-37.94
-41.87
-46.57
-52.27
-58.74
-65.08
-69.78
-71.07
-67.50
-58.53
-44.85
-28.25
-11.09
4.46
16.94
25.85
31.40
34.18
34.75
33.50
30.72
26.72
21.98
17.13
12.85
9.67
7.78
7.00
6.83
6.68
6.00
4.49
2.10
-1.01
-4.60
-8.50
-12.66
-17.12
-22.00
-27.46
-33.63
-40.66
-48.55
-56.99
-65.16
-71.70
-74.93
-73.33
-66.11
-53.58
-37.20
-19.13
-1.62
13.58
25.56
34.16
39.66
42.48
42.99
41.50
38.43
34.34
29.92
25.87
22.65
20.47
19.16
18.35
17.56
16.35
14.47
11.85
8.64
5.07
1.36
-2.43
-6.44
-10.95
-16.28
-22.73
-30.49
-39.56
-49.58
-59.68
-68.43
-74.02
-74.63
-69.12
-57.47
-40.93
-21.70
-2.26
15.28
29.66
40.45
47.88
52.39
54.39
54.21
52.13
48.49
43.73
38.33
32.77
27.42
22.53
18.24
14.59
11.55
8.96
6.61
4.20
1.38
-2.10
-6.37
-11.40
-17.00
-22.95
-29.08
-35.39
-42.03
-49.26
-57.20
-65.60
-73.59
-79.67
-81.97
-78.81
-69.28
-53.64
-33.35
-10.66
12.00
32.67
50.13
63.92
74.08
80.88
84.65
85.81
84.89
82.50
79.30
75.83
72.46
69.38
66.65
64.23
62.03
59.92
57.75
55.34
52.58
49.44
45.95
42.13
37.94
33.24
27.87
21.73
14.91
7.66
0.40
-6.56
-12.99
-18.92
-24.51
-30.07
-35.93
-42.46
-50.03
-58.83
-68.60
-78.37
-86.43
-90.58
-88.81
-80.00
-64.50
-44.13
-21.63
0.16
19.13
34.24
45.46
53.29
58.27
60.77
61.02
59.31
56.14
52.23
48.30
44.88
42.19
40.17
38.64
37.41
36.30
35.16
33.80
32.02
29.70
26.84
23.56
20.00
16.26
12.31
8.03
3.33
-1.79
-7.18
-12.61
-17.81
-22.61
-26.95
-30.93
-34.73
-38.68
-43.14
-48.47
-54.83
-61.93
-68.87
-74.15
-76.00
-72.85
-63.98
-49.80
-31.81
-12.16
7.00
24.01
37.95
48.53
55.86
60.13
61.63
60.72
57.98
54.19
50.17
46.60
43.85
41.93
40.63
39.62
38.72
37.85
37.10
36.56
36.21
35.87
35.21
33.82
31.38
27.80
23.28
18.25
13.28
8.80
4.97
1.63
-1.62
-5.21
-9.39
-14.09
-18.98
-23.56
-27.49
-30.71
-33.51
-36.42
-40.09
-45.00
-51.37
-58.88
-66.64
-73.21
-76.80
-75.78
-69.12
-56.88
-40.26
-21.29
-2.30
14.76
28.69
39.09
46.17
50.40
52.25
52.13
50.46
47.75
44.63
41.79
39.78
38.85
38.91
39.59
40.48
41.27
41.94
42.59
43.33
44.04
44.32
43.64
41.56
37.99
33.22
27.82
22.37
17.30
12.70
8.44
4.21
-0.28
-5.21
-10.61
-16.34
-22.10
-27.56
-32.43
-36.63
-40.35
-44.05
-48.35
-53.78
-60.48
-67.95
-74.97
-79.77
-80.52
-75.90
-65.67
-50.80
-33.27
-15.42
0.68
13.72
23.28
29.55
33.00
34.15
33.46
31.43
28.69
25.92
23.73
22.44
22.00
22.11
22.36
22.53
22.60
22.74
23.17
23.92
24.79
25.36
25.11
23.66
20.88
17.00
12.50
7.96
3.83
0.31
-2.76
-5.77
-9.18
-13.33
-18.27
-23.75
-29.33
-34.51
-39.01
-42.82
-46.26
-49.90
-54.35
-60.00
-66.80
-74.13
-80.72
-84.88
-84.86
-79.43
-68.31
-52.45
-33.80
-14.77
2.46
16.42
26.59
33.14
36.61
37.50
36.24
33.20
28.93
24.19
19.81
16.53
14.70
14.28
14.85
15.89
16.92
17.69
18.15
18.37
18.44
18.34
17.94
17.04
15.42
12.94
9.57
5.41
0.70
-4.23
-9.05
-13.52
-17.53
-21.18
-24.67
-28.28
-32.32
-37.05
-42.61
-48.79
-55.00
-60.10
-62.66
-61.27
-55.06
-44.10
-29.47
-12.97
3.40
17.93
29.54
37.76
42.67
44.60
44.06
41.63
37.92
33.59
29.26
25.44
22.45
20.41
19.26
18.82
18.86
19.15
19.52
19.79
19.74
19.17
17.91
15.91
13.26
10.19
6.89
3.51
0.02
-3.66
-7.61
-11.73
-15.88
-19.85
-23.53
-26.92
-30.14
-33.41
-37.00
-41.20
-46.31
-52.42
-59.18
-65.59
-70.08
-70.87
-66.59
-56.85
-42.51
-25.49
-8.11
7.56
20.26
29.57
35.69
39.02
39.94
38.75
35.78
31.54
26.73
22.13
18.38
15.82
14.49
14.16
14.45
14.99
15.50
15.81
15.86
15.62
15.05
14.09
12.66
10.68
8.13
5.03
1.45
-2.53
-6.78
-11.15
-15.45
-19.50
-23.18
-26.53
-29.74
-33.17
-37.22
-42.24
-48.29
-54.96
-61.26
-65.68
-66.60
-62.74
-53.70
-40.15
-23.74
-6.57
9.36
22.67
32.74
39.57
43.46
44.75
43.80
41.00
36.93
32.36
28.15
24.98
23.20
22.71
23.06
23.64
23.91
23.60
22.72
21.50
20.24
19.13
18.12
16.95
15.24
12.69
9.20
5.00
0.52
-3.80
-7.67
-11.04
-14.08
-17.12
-20.44
-24.32
-28.94
-34.38
-40.45
-46.54
-51.55
-54.01
-52.54
-46.29
-35.33
-20.71
-4.17
12.36
27.26
39.47
48.48
54.23
56.90
56.80
54.41
50.35
45.40
40.32
35.79
32.21
29.64
27.92
26.73
25.80
25.00
24.34
23.93
23.78
23.73
23.42
22.38
20.19
16.66
11.95
6.51
0.92
-4.37
-9.18
-13.68
-18.33
-23.64
-30.05
-37.67
-46.26
-55.09
-62.95
-68.33
-69.68
-65.87
-56.59
-42.58
-25.52
-7.53
9.33
23.58
34.46
41.81
45.80
46.77
45.15
41.57
36.79
31.69
27.04
23.30
20.57
18.68
17.32
16.27
15.41
14.69
14.10
13.48
12.58
11.12
8.86
5.72
1.78
-2.71
-7.47
-12.24
-16.94
-21.65
-26.63
-32.19
-38.58
-45.80
-53.32
-60.14
-64.77
-65.69
-61.81
-52.92
-39.85
-24.30
-8.36
6.10
17.80
26.18
31.25
33.35
32.94
30.52
26.67
22.02
17.26
12.95
9.48
6.97
5.37
4.49
4.11
4.01
3.99
3.80
3.18
1.84
-0.39
-3.54
-7.46
-11.84
-16.34
-20.71
-24.85
-28.94
-33.34
-38.50
-44.77
-52.08
-59.77
-66.51
-70.59
-70.35
-64.77
-53.88
-38.79
-21.40
-3.75
12.41
26.02
36.61
44.17
48.90
51.06
51.01
49.18
46.13
42.46
38.72
35.35
32.60
30.55
29.19
28.38
27.92
27.60
27.16
26.32
24.82
22.39
18.92
14.48
9.35
3.94
-1.37
-6.39
-11.26
-16.38
-22.30
-29.41
-37.71
-46.60
-54.95
-61.15
-63.61
-61.13
-53.36
-40.98
-25.57
-9.15
6.38
19.67
30.13
37.70
42.66
45.28
45.82
44.51
41.76
38.12
34.29
30.84
28.11
26.12
24.66
23.43
22.23
20.97
19.62
18.14
16.36
14.03
10.94
7.00
2.34
-2.76
-7.94
-12.93
-17.64
-22.18
-26.76
-31.71
-37.33
-43.73
-50.71
-57.54
-62.97
-65.48
-63.72
-57.00
-45.65
-30.94
-14.71
1.26
15.68
27.96
37.99
45.85
51.48
54.68
55.31
53.53
49.98
45.64
41.58
38.55
36.82
36.14
35.93
35.62
34.85
33.52
31.80
29.92
28.04
26.14
24.08
21.61
18.50
14.66
10.15
5.22
0.19
-4.65
-9.16
-13.37
-17.55
-22.08
-27.40
-33.82
-41.37
-49.69
-57.81
-64.32
-67.57
-66.16
-59.41
-47.71
-32.47
-15.71
0.52
14.71
26.13
34.73
40.85
44.85
47.01
47.51
46.66
44.90
42.85
41.06
39.88
39.35
39.26
39.28
39.19
38.92
38.57
38.28
38.10
37.87
37.26
35.86
33.39
29.82
25.42
20.66
16.04
11.91
8.33
5.10
1.84
-1.89
-6.33
-11.51
-17.15
-22.80
-27.95
-32.27
-35.68
-38.44
-41.07
-44.21
-48.44
-54.06
-60.93
-68.30
-74.79
-78.62
-78.13
-72.28
-61.12
-45.90
-28.68
-11.69
3.24
15.14
23.80
29.58
32.97
34.41
34.22
32.73
30.34
27.57
24.97
22.96
21.73
21.24
21.24
21.48
21.74
21.95
22.07
22.05
21.74
20.88
19.25
16.80
13.71
10.33
6.99
3.89
0.98
-1.95
-5.14
-8.72
-12.66
-16.74
-20.73
-24.45
-27.87
-31.11
-34.47
-38.30
-42.95
-48.55
-54.82
-60.93
-65.56
-67.19
-64.56
-57.18
-45.51
-30.92
-15.25
-0.27
12.72
23.09
30.74
35.90
38.87
39.97
39.52
37.93
35.69
33.27
31.05
29.28
28.00
27.15
26.61
26.29
26.12
26.06
26.06
26.06
25.96
25.60
24.82
23.52
21.63
19.22
16.45
13.55
10.73
8.11
5.66
3.19
0.41
-2.91
-6.84
-11.17
-15.56
-19.61
-23.04
-25.86
-28.30
-30.80
-33.85
-37.89
-43.16
-49.61
-56.71
-63.36
-68.02
-69.05
-65.23
-56.29
-43.03
-27.16
-10.76
4.38
17.15
27.17
34.56
39.63
42.61
43.67
42.96
40.82
37.81
34.60
31.81
29.86
28.84
28.55
28.63
28.73
28.61
28.26
27.81
27.38
27.00
26.52
25.65
24.11
21.75
18.64
15.04
11.35
7.93
4.97
2.42
-0.01
-2.70
-6.03
-10.15
-14.96
-20.11
-25.09
-29.47
-33.04
-35.94
-38.61
-41.64
-45.63
-50.95
-57.59
-65.02
-72.16
-77.53
-79.58
-77.07
-69.51
-57.42
-42.21
-25.82
-10.15
3.36
13.96
21.56
26.45
29.09
29.88
29.23
27.52
25.19
22.74
20.57
18.98
18.05
17.69
17.71
17.91
18.13
18.34
18.52
18.63
18.58
18.18
17.19
15.44
12.93
9.86
6.62
3.64
1.23
-0.59
-2.05
-3.59
-5.57
-8.07
-10.86
-13.50
-15.57
-16.93
-17.78
-18.65
-20.18
-22.89
-27.04
-32.50
-38.70
-44.63
-48.98
-50.39
-47.85
-40.99
-30.31
-17.04
-2.84
10.70
22.35
31.47
37.93
41.91
43.68
43.55
41.86
39.02
35.55
32.04
28.99
26.75
25.41
24.84
24.82
25.12
25.58
26.08
26.49
26.59
26.10
24.79
22.59
19.63
16.22
12.70
9.30
6.02
2.67
-0.99
-5.16
-9.82
-14.78
-19.72
-24.34
-28.51
-32.25
-35.83
-39.65
-44.15
-49.73
-56.45
-63.89
-70.94
-75.97
-77.18
-73.26
-63.85
-49.82
-32.99
-15.54
0.64
14.40
25.36
33.62
39.41
42.89
44.19
43.57
41.56
38.86
36.16
33.92
32.24
30.95
29.81
28.68
27.58
26.60
25.78
25.00
24.02
22.50
20.14
16.83
12.65
7.88
2.89
-1.99
-6.57
-10.85
-15.00
-19.25
-23.78
-28.58
-33.45
-38.07
-42.15
-45.54
-48.31
-50.78
-53.44
-56.75
-60.91
-65.56
-69.71
-71.83
-70.25
-63.71
-51.83
-35.27
-15.57
5.28
25.44
43.53
58.72
70.62
79.05
84.02
85.68
84.44
80.98
76.18
70.89
65.78
61.25
57.40
54.17
51.46
49.15
47.16
45.42
43.78
42.09
40.10
37.60
34.40
30.49
25.99
21.17
16.37
11.82
7.57
3.47
-0.80
-5.53
-10.80
-16.45
-22.06
-27.15
-31.36
-34.65
-37.37
-40.14
-43.71
-48.64
-55.02
-62.32
-69.32
-74.32
-75.58
-71.84
-62.72
-48.95
-32.17
-14.48
2.18
16.36
27.37
35.15
40.04
42.55
43.17
42.39
40.67
38.45
36.11
33.91
31.98
30.36
29.04
27.99
27.20
26.63
26.23
25.84
25.24
24.23
22.60
20.30
17.36
13.92
10.24
6.59
3.22
0.19
-2.62
-5.48
-8.70
-12.43
-16.58
-20.85
-24.87
-28.41
-31.52
-34.52
-37.91
-42.18
-47.56
-53.83
-60.25
-65.54
-68.13
-66.61
-60.21
-49.14
-34.65
-18.63
-3.08
10.51
21.36
29.35
34.73
37.79
38.75
37.79
35.25
31.69
27.80
24.31
21.72
20.21
19.64
19.68
19.98
20.22
20.20
19.85
19.19
18.24
17.06
15.62
13.84
11.58
8.71
5.23
1.29
-2.82
-6.74
-10.25
-13.28
-16.00
-18.71
-21.79
-25.55
-30.24
-35.86
-42.09
-48.15
-52.82
-54.71
-52.63
-46.02
-35.28
-21.66
-6.94
7.12
19.21
28.66
35.36
39.52
41.47
41.50
39.94
37.19
33.79
30.37
27.46
25.41
24.30
23.97
24.12
24.44
24.73
24.87
24.79
24.41
23.62
22.26
20.29
17.76
14.83
11.70
8.54
5.34
2.01
-1.57
-5.42
-9.41
-13.30
-16.84
-19.94
-22.76
-25.60
-28.88
-32.94
-37.92
-43.57
-49.23
-53.76
-55.83
-54.21
-48.23
-38.08
-24.85
-10.21
4.02
16.39
26.10
32.92
37.04
38.79
38.48
36.44
33.11
29.06
24.96
21.38
18.67
16.88
15.77
15.04
14.42
13.79
13.18
12.60
12.02
11.26
10.11
8.43
6.21
3.62
0.85
-1.96
-4.81
-7.82
-11.11
-14.71
-18.49
-22.17
-25.46
-28.18
-30.35
-32.23
-34.25
-36.88
-40.48
-45.09
-50.27
-55.09
-58.25
-58.37
-54.43
-46.18
-34.26
-20.11
-5.55
7.77
18.72
26.87
32.31
35.38
36.39
35.56
33.15
29.53
25.30
21.22
17.94
15.86
14.99
14.94
15.17
15.21
14.79
13.87
12.63
11.24
9.83
8.38
6.76
4.79
2.27
-0.88
-4.64
-8.85
-13.25
-17.53
-21.44
-24.86
-27.85
-30.65
-33.61
-37.14
-41.57
-46.98
-53.00
-58.77
-62.98
-64.15
-61.11
-53.40
-41.55
-26.98
-11.64
2.62
14.47
23.32
29.30
32.86
34.47
34.45
32.94
30.16
26.51
22.61
19.17
16.71
15.44
15.11
15.28
15.41
15.19
14.56
13.70
12.84
12.08
11.29
10.13
8.19
5.19
1.12
-3.71
-8.74
-13.43
-17.42
-20.66
-23.37
-25.95
-28.86
-32.45
-36.91
-42.22
-48.02
-53.56
-57.67
-59.02
-56.48
-49.52
-38.46
-24.54
-9.46
5.02
17.59
27.59
34.91
39.78
42.49
43.31
42.49
40.39
37.53
34.52
31.90
30.06
29.08
28.79
28.84
28.87
28.61
27.93
26.87
25.56
24.13
22.60
20.86
18.69
15.89
12.34
8.10
3.38
-1.53
-6.37
-10.90
-14.99
-18.61
-21.88
-25.11
-28.76
-33.29
-38.97
-45.63
-52.51
-58.28
-61.35
-60.29
-54.35
-43.74
-29.62
-13.74
2.06
16.35
28.28
37.56
44.21
48.31
49.96
49.33
46.83
43.14
39.15
35.65
33.20
31.89
31.46
31.43
31.30
30.79
29.82
28.45
26.76
24.73
22.16
18.76
14.31
8.72
2.16
-5.03
-12.42
-19.62
-26.38
-32.67
-38.62
-44.48
-50.57
-57.15
-64.31
-71.78
-78.78
-84.03
-86.00
-83.35
-75.43
-62.57
-46.11
-27.97
-10.14
5.83
19.03
29.16
36.23
40.38
41.78
40.78
37.98
34.25
30.59
27.83
26.48
26.57
27.73
29.35
30.84
31.76
31.93
31.37
30.25
28.75
27.00
24.99
22.63
19.75
16.24
12.10
7.50
2.75
-1.86
-6.14
-10.09
-13.86
-17.70
-21.93
-26.84
-32.68
-39.46
-46.81
-53.78
-58.92
-60.60
-57.53
-49.34
-36.74
-21.42
-5.42
9.41
21.87
31.48
38.27
42.49
44.40
44.20
42.19
38.84
34.78
30.76
27.43
25.18
24.01
23.63
23.54
23.31
22.67
21.64
20.38
19.13
17.99
16.86
15.48
13.49
10.60
6.75
2.12
-2.90
-7.82
-12.26
-16.03
-19.18
-22.00
-24.90
-28.32
-32.61
-37.97
-44.30
-51.05
-57.23
-61.43
-62.23
-58.59
-50.26
-37.91
-23.02
-7.46
7.03
19.19
28.47
34.85
38.64
40.25
40.02
38.27
35.34
31.73
28.04
24.88
22.71
21.69
21.60
22.01
22.40
22.40
21.87
20.90
19.66
18.29
16.79
15.04
12.86
10.08
6.71
2.90
-1.07
-4.93
-8.43
-11.53
-14.34
-17.11
-20.14
-23.69
-27.96
-33.03
-38.86
-45.13
-51.20
-55.96
-58.08
-56.32
-49.99
-39.32
-25.43
-10.11
4.83
17.96
28.53
36.38
41.68
44.71
45.70
44.95
42.81
39.78
36.43
33.26
30.62
28.66
27.32
26.46
25.93
25.58
25.33
25.11
24.79
24.22
23.21
21.64
19.48
16.84
13.90
10.85
7.80
4.72
1.52
-1.87
-5.45
-9.11
-12.58
-15.63
-18.12
-20.11
-21.88
-23.88
-26.61
-30.48
-35.51
-41.18
-46.38
-49.54
-49.03
-43.72
-33.40
-18.87
-1.75
16.02
32.72
47.16
58.80
67.58
73.73
77.61
79.68
80.43
80.40
80.13
80.04
80.42
81.42
83.02
85.06
87.23
89.12
90.33
90.50
89.36
86.70
82.40
76.41
68.82
59.95
50.32
40.55
31.12
22.27
13.91
5.79
-2.29
-10.28
-17.79
-24.26
-29.22
-32.51
-34.43
-35.67
-37.11
-39.51
-43.25
-48.10
-53.21
-57.37
-59.29
-58.15
-53.84
-47.03
-38.93
-30.84
-23.75
-18.17
-14.18
-11.68
-10.62
-11.07
-13.08
-16.41
-20.46
-24.34
-27.14
-28.21
-27.30
-24.60
-20.54
-15.56
-10.07
-4.41
1.01
5.70
9.10
10.76
10.45
8.22
4.37
-0.74
-6.75
-13.43
-20.62
-28.18
-35.92
-43.61
-50.88
-57.39
-62.85
-67.14
-70.32
-72.69
-74.75
-77.19
-80.79
-86.22
-93.66
-102.49
-111.13
-117.22
-118.27
-112.46
-99.33
-80.06
-57.08
-33.30
-11.27
7.31
21.70
31.79
37.79
40.04
39.02
35.45
30.41
25.12
20.70
17.83
16.59
16.62
17.34
18.22
18.98
19.53
19.84
19.87
19.48
18.53
17.05
15.18
13.20
11.28
9.42
7.44
5.05
2.04
-1.56
-5.54
-9.58
-13.41
-16.95
-20.31
-23.74
-27.53
-31.96
-37.21
-43.36
-50.24
-57.27
-63.40
-67.16
-67.00
-61.81
-51.36
-36.53
-19.10
-1.27
14.92
28.12
37.74
43.83
46.78
47.09
45.28
41.90
37.59
33.06
28.94
25.66
23.38
21.98
21.21
20.79
20.52
20.30
20.03
19.56
18.67
17.14
14.80
11.66
7.87
3.69
-0.62
-4.94
-9.29
-13.79
-18.59
-23.72
-29.05
-34.34
-39.28
-43.67
-47.56
-51.22
-55.13
-59.79
-65.51
-72.20
-79.13
-85.00
-88.09
-86.75
-79.92
-67.59
-50.86
-31.70
-12.38
5.11
19.51
30.32
37.66
41.93
43.62
43.19
41.13
38.01
34.50
31.27
28.82
27.36
26.78
26.73
26.79
26.62
26.05
25.12
23.96
22.66
21.25
19.65
17.69
15.18
12.00
8.09
3.46
-1.75
-7.33
-13.02
-18.53
-23.67
-28.36
-32.74
-37.16
-42.07
-47.97
-55.06
-63.05
-70.97
-77.27
-80.13
-78.04
-70.26
-57.21
-40.33
-21.68
-3.34
13.13
26.91
37.85
46.12
51.97
55.55
56.96
56.45
54.50
51.80
49.05
46.78
45.26
44.39
43.96
43.69
43.38
42.95
42.33
41.47
40.20
38.37
35.85
32.62
28.81
24.64
20.35
16.10
11.95
7.81
3.57
-0.82
-5.34
-9.90
-14.41
-18.86
-23.38
-28.21
-33.71
-40.19
-47.76
-56.04
-64.05
-70.24
-72.83
-70.38
-62.27
-49.06
-32.32
-14.14
3.44
18.96
31.63
41.26
47.90
51.75
53.04
52.15
49.63
46.15
42.40
38.90
35.95
33.66
32.07
31.26
31.36
32.53
34.76
37.83
41.21
44.20
46.08
46.38
45.04
42.38
38.93
35.21
31.45
27.58
23.36
18.49
12.93
6.84
0.58
-5.49
-11.12
-16.29
-21.16
-26.03
-31.30
-37.38
-44.50
-52.52
-60.72
-67.72
-71.79
-71.27
-65.20
-53.68
-37.91
-19.86
-1.67
14.87
28.59
39.03
46.17
50.30
51.86
51.40
49.55
47.03
44.50
42.46
41.18
40.67
40.72
41.04
41.38
41.63
41.77
41.88
41.91
41.68
40.88
39.20
36.52
33.01
29.06
25.11
21.44
18.00
14.48
10.49
5.77
0.35
-5.48
-11.32
-16.84
-21.92
-26.65
-31.25
-36.09
-41.51
-47.75
-54.77
-62.00
-68.32
-72.18
-72.03
-66.85
-56.62
-42.35
-25.85
-9.09
6.27
19.21
29.33
36.61
41.16
43.15
42.84
40.71
37.50
34.07
31.21
29.36
28.58
28.55
28.83
29.05
29.05
28.87
28.64
28.43
28.17
27.60
26.43
24.45
21.63
18.20
14.51
10.94
7.73
4.90
2.25
-0.54
-3.76
-7.52
-11.72
-16.07
-20.23
-23.96
-27.16
-29.98
-32.76
-35.95
-40.00
-45.11
-50.96
-56.65
-60.71
-61.55
-57.94
-49.51
-36.95
-21.82
-6.04
8.67
21.14
30.90
37.91
42.39
44.56
44.67
43.03
40.16
36.75
33.51
31.04
29.63
29.19
29.39
29.77
30.02
30.03
29.89
29.81
29.92
30.16
30.28
29.94
28.80
26.74
23.83
20.40
16.84
13.50
10.57
7.96
5.43
2.69
-0.47
-4.02
-7.77
-11.39
-14.61
-17.30
-19.52
-21.49
-23.54
-26.08
-29.51
-34.11
-39.82
-46.11
-51.85
-55.52
-55.62
-51.21
-42.29
-29.87
-15.68
-1.57
10.93
20.98
28.37
33.24
35.89
36.57
35.52
33.09
29.79
26.22
22.95
20.38
18.59
17.48
16.82
16.44
16.27
16.33
16.61
17.07
17.53
17.71
17.32
16.15
14.14
11.44
8.29
5.03
1.89
-1.05
-3.89
-6.83
-10.08
-13.69
-17.54
-21.36
-24.80
-27.65
-29.89
-31.75
-33.63
-36.02
-39.30
-43.63
-48.71
-53.80
-57.72
-59.14
-56.92
-50.51
-40.25
-27.30
-13.33
-0.03
11.26
19.88
25.70
28.97
30.04
29.24
26.92
23.48
19.45
15.43
11.97
9.42
7.91
7.37
7.57
8.19
8.92
9.51
9.73
9.48
8.73
7.50
5.84
3.79
1.32
-1.54
-4.77
-8.30
-11.95
-15.52
-18.79
-21.60
-23.89
-25.74
-27.35
-29.02
-31.13
-34.00
-37.85
-42.59
-47.72
-52.28
-54.99
-54.54
-50.05
-41.35
-29.20
-15.12
-0.93
11.74
21.82
28.96
33.37
35.53
35.93
34.95
32.88
30.07
26.97
24.09
21.84
20.40
19.66
19.32
19.16
19.05
19.06
19.29
19.67
19.97
19.77
18.73
16.70
13.86
10.57
7.24
4.07
1.04
-2.08
-5.57
-9.56
-13.98
-18.51
-22.79
-26.50
-29.54
-32.06
-34.39
-37.01
-40.37
-44.81
-50.40
-56.72
-62.75
-67.00
-67.84
-64.01
-55.14
-41.99
-26.23
-9.96
4.92
17.12
26.17
32.20
35.63
36.93
36.49
34.70
31.98
28.87
25.94
23.71
22.46
22.20
22.70
23.58
24.51
25.22
25.66
25.90
26.05
26.15
26.07
25.59
24.42
22.42
19.62
16.33
13.01
10.06
7.66
5.65
3.63
1.12
-2.19
-6.36
-11.10
-15.94
-20.45
-24.36
-27.68
-30.69
-33.80
-37.43
-41.96
-47.61
-54.27
-61.40
-67.90
-72.26
-72.84
-68.48
-58.91
-44.94
-28.35
-11.25
4.44
17.50
27.45
34.36
38.57
40.43
40.27
38.48
35.60
32.31
29.24
26.85
25.30
24.52
24.29
24.41
24.76
25.25
25.71
25.90
25.54
24.42
22.48
19.85
16.76
13.49
10.20
6.99
3.82
0.59
-2.88
-6.73
-11.01
-15.62
-20.28
-24.63
-28.41
-31.63
-34.59
-37.88
-42.16
-47.81
-54.71
-62.00
-68.15
-71.31
-69.84
-62.92
-50.87
-35.15
-17.85
-1.09
13.56
25.31
34.03
39.92
43.24
44.20
43.10
40.42
36.89
33.29
30.26
28.11
26.81
26.13
25.84
25.84
26.16
26.85
27.88
28.99
29.78
29.79
28.71
26.49
23.34
19.71
16.04
12.65
9.58
6.63
3.44
-0.29
-4.65
-9.44
-14.27
-18.72
-22.54
-25.80
-28.83
-32.15
-36.28
-41.59
-48.06
-55.20
-61.96
-66.86
-68.29
-64.94
-56.37
-43.17
-26.94
-9.79
6.21
19.64
29.85
36.88
41.11
42.96
42.82
41.03
38.05
34.48
30.98
28.10
26.16
25.17
24.94
25.23
25.84
26.67
27.64
28.57
29.14
29.00
27.88
25.76
22.87
19.64
16.45
13.50
10.71
7.82
4.52
0.62
-3.81
-8.52
-13.18
-17.48
-21.23
-24.43
-27.28
-30.14
-33.47
-37.72
-43.07
-49.21
-55.19
-59.54
-60.60
-57.05
-48.47
-35.51
-19.79
-3.38
11.82
24.56
34.33
41.22
45.57
47.69
47.80
46.14
43.14
39.47
35.89
33.08
31.40
30.82
31.01
31.53
32.03
32.38
32.62
32.85
33.15
33.40
33.37
32.72
31.20
28.72
25.43
21.66
17.80
14.19
11.04
8.37
6.06
3.94
1.79
-0.56
-3.15
-5.94
-8.78
-11.53
-14.19
-16.89
-19.91
-23.53
-27.83
-32.65
-37.58
-42.10
-45.84
-48.69
-50.86
-52.79
-55.06
-58.20
-62.58
-68.24
-74.69
-80.86
-85.14
-85.79
-81.45
-71.68
-57.15
-39.52
-20.86
-3.12
12.38
25.01
34.65
41.41
45.48
47.10
46.70
44.91
42.53
40.34
38.93
38.52
39.06
40.24
41.68
43.00
43.89
44.17
43.81
42.93
41.70
40.28
38.67
36.79
34.47
31.59
28.20
24.53
20.94
17.80
15.28
13.32
11.60
9.70
7.22
3.99
0.15
-3.97
-7.93
-11.38
-14.22
-16.62
-18.99
-21.82
-25.57
-30.53
-36.61
-43.24
-49.28
-53.16
-53.24
-48.31
-38.11
-23.47
-6.20
11.51
27.69
41.12
51.43
58.88
63.98
67.12
68.54
68.37
66.93
64.75
62.53
60.95
60.43
60.98
62.29
63.83
65.10
65.77
65.71
64.98
63.76
62.21
60.43
58.39
55.97
53.04
49.52
45.45
40.99
36.31
31.52
26.64
21.57
16.17
10.34
4.09
-2.47
-9.13
-15.66
-21.85
-27.58
-32.84
-37.78
-42.68
-47.91
-53.87
-60.85
-68.90
-77.63
-86.08
-92.84
-96.28
-95.10
-88.77
-77.80
-63.61
-48.06
-32.92
-19.45
-8.29
0.30
6.25
9.54
10.26
8.75
5.70
1.97
-1.58
-4.34
-6.03
-6.62
-6.29
-5.28
-3.91
-2.54
-1.51
-1.07
-1.28
-2.03
-3.10
-4.28
-5.56
-7.00
-8.72
-10.75
-13.03
-15.45
-17.93
-20.49
-23.19
-26.12
-29.24
-32.44
-35.53
-38.41
-41.14
-43.99
-47.30
-51.40
-56.35
-61.76
-66.76
-70.06
-70.30
-66.38
-57.91
-45.40
-30.22
-14.28
0.50
12.60
21.17
26.05
27.60
26.46
23.35
19.03
14.23
9.57
5.51
2.27
-0.19
-2.11
-3.74
-5.26
-6.62
-7.62
-7.99
-7.63
-6.74
-5.81
-5.54
-6.57
-9.21
-13.28
-18.18
-23.02
-26.89
-29.15
-29.56
-28.42
-26.56
-25.24
-25.86
-29.46
-36.36
-45.88
-56.55
-66.54
-74.24
-78.65
-79.43
-76.58
-70.20
-60.35
-47.24
-31.49
-14.31
2.68
17.78
29.80
38.25
43.40
45.94
46.60
45.91
44.15
41.55
38.43
35.38
33.03
31.86
31.96
32.95
34.17
34.94
34.91
34.12
32.93
31.77
30.84
30.06
29.06
27.41
24.81
21.23
16.96
12.44
8.10
4.20
0.69
-2.78
-6.74
-11.77
-18.22
-26.03
-34.51
-42.40
-48.08
-50.01
-47.18
-39.45
-27.60
-13.12
2.23
16.77
29.25
38.88
45.35
48.72
49.29
47.60
44.29
40.05
35.57
31.39
27.89
25.21
23.31
21.95
20.91
19.99
19.15
18.43
17.81
17.12
15.99
14.00
10.86
6.56
1.42
-4.03
-9.27
-14.01
-18.24
-22.24
-26.50
-31.53
-37.74
-45.20
-53.42
-61.30
-67.20
-69.40
-66.59
-58.39
-45.51
-29.50
-12.35
4.10
18.48
30.02
38.50
43.99
46.76
47.16
45.65
42.78
39.19
35.49
32.13
29.34
27.08
25.09
23.11
21.03
18.88
16.86
15.12
13.62
12.10
10.10
7.23
3.31
-1.53
-6.84
-12.12
-16.99
-21.38
-25.56
-30.03
-35.38
-42.04
-50.02
-58.79
-67.16
-73.47
-75.98
-73.39
-65.30
-52.45
-36.54
-19.67
-3.81
9.76
20.55
28.64
34.35
37.94
39.58
39.45
37.95
35.69
33.37
31.56
30.47
29.91
29.48
28.75
27.53
25.91
24.16
22.56
21.22
19.97
18.44
16.18
12.86
8.38
2.98
-2.91
-8.72
-14.00
-18.58
-22.62
-26.62
-31.23
-37.05
-44.36
-52.88
-61.63
-69.01
-73.16
-72.44
