1650269957.00
64.000000
-0.00
-0.00
-0.00
-0.00
-0.00
-0.00
-0.00
-0.00
-0.00
-0.00
0.00
0.01
0.01
-0.00
-0.03
-0.05
-0.05
0.00
0.13
0.36
0.66
1.01
1.37
1.72
2.06
2.40
2.79
3.24
3.80
4.42
5.06
5.66
6.20
6.68
7.15
7.68
8.31
9.14
10.09
11.04
11.88
12.56
13.14
13.76
14.65
15.96
17.91
20.32
22.90
25.38
27.58
29.57
31.68
34.32
37.81
42.54
48.15
54.10
59.83
64.97
69.58
74.14
79.34
85.71
93.76
103.00
112.62
121.73
129.77
136.75
143.30
150.75
157.77
166.64
177.95
191.79
206.97
220.57
228.25
225.36
208.53
176.87
132.76
80.05
23.07
-34.94
-92.44
-149.16
-205.23
-260.37
-313.74
-363.88
-409.84
-450.91
-486.49
-515.71
-537.18
-549.19
-549.97
-538.46
-514.41
-479.00
-434.30
-382.93
-327.51
-270.31
-213.08
-157.12
-103.48
-53.01
-6.65
34.75
70.57
100.54
124.75
143.65
157.88
168.13
175.05
179.11
180.71
180.15
177.68
173.57
168.04
161.36
153.80
145.69
137.36
129.14
121.23
113.69
106.35
98.94
91.21
83.05
74.65
66.41
58.83
52.28
46.78
41.96
37.22
31.97
25.93
19.33
12.82
7.13
2.82
-0.04
-1.90
-3.49
-5.59
-8.77
-13.33
-19.17
-25.59
-31.15
-33.84
-31.59
-23.24
-9.27
8.09
25.45
39.58
48.53
52.17
51.72
48.98
45.26
41.13
36.62
31.65
26.43
21.47
17.48
15.11
14.79
16.48
19.48
22.57
24.33
23.81
20.90
16.50
12.00
8.53
6.40
5.06
3.60
1.47
-1.15
-3.49
-4.73
-4.58
-3.50
-2.37
-2.06
-2.90
-4.74
-6.88
-8.59
-9.26
-8.64
-6.79
-4.06
-0.91
2.17
4.77
6.63
7.67
7.93
7.55
6.69
5.54
4.21
2.83
1.54
0.48
-0.20
-0.37
0.00
0.88
2.12
3.53
4.94
6.20
7.28
8.23
9.13
10.00
10.84
11.49
11.77
11.50
10.58
9.00
6.86
4.39
1.72
-0.95
-3.42
-5.56
-7.32
-8.80
-10.16
-11.51
-12.87
-14.08
-14.82
-14.78
-13.80
-11.92
-9.41
-6.65
-4.03
-1.93
-0.60
-0.14
-0.51
-1.49
-2.77
-4.04
-5.09
-5.89
-6.50
-7.02
-7.45
-7.70
-7.69
-7.34
-6.77
-6.14
-5.63
-5.36
-5.31
-5.43
-5.65
-5.92
-6.24
-6.61
-6.98
-7.29
-7.46
-7.43
-7.21
-6.85
-6.40
-5.91
-5.44
-5.00
-4.65
-4.46
-4.57
-5.15
-6.32
-8.01
-9.91
-11.48
-12.11
-11.29
-8.79
-4.62
0.80
6.76
12.56
17.69
21.86
24.99
27.12
28.28
28.55
28.00
26.83
25.31
23.77
22.49
21.64
21.25
21.25
21.44
21.57
21.35
20.55
19.02
16.78
13.99
10.93
7.87
4.98
2.32
-0.14
-2.42
-4.53
-6.41
-8.05
-9.53
-11.00
-12.63
-14.54
-16.71
-19.02
-21.31
-23.44
-25.24
-26.52
-26.97
-26.24
-24.01
-20.18
-14.94
-8.79
-2.41
3.56
8.66
12.72
15.80
18.04
19.63
20.65
21.11
21.03
20.45
19.51
18.38
17.27
16.33
15.67
15.28
15.17
15.34
15.84
16.68
17.77
18.79
19.27
18.66
16.54
12.78
7.63
1.55
-4.90
-11.22
-17.10
-22.34
-26.83
-30.55
-33.54
-35.95
-38.06
-40.17
-42.51
-45.20
-48.15
-51.11
-53.70
-55.41
-55.68
-53.99
-50.01
-43.77
-35.70
-26.58
-17.35
-8.83
-1.54
4.38
9.04
12.64
15.33
17.15
18.16
18.49
18.42
18.30
18.39
18.79
19.38
19.96
20.34
20.49
20.54
20.67
21.00
21.52
22.08
22.46
22.45
21.89
20.69
18.83
16.32
13.23
9.64
5.70
1.56
-2.59
-6.54
-10.11
-13.15
-15.65
-17.69
-19.46
-21.15
-22.98
-25.11
-27.60
-30.35
-33.10
-35.33
-36.39
-35.62
-32.61
-27.30
-20.02
-11.40
-2.23
6.76
14.93
21.79
26.99
30.35
31.97
32.14
31.33
30.04
28.61
27.22
25.87
24.53
23.06
21.22
18.57
14.55
8.72
1.04
-7.96
-17.29
-25.78
-32.48
-36.96
-39.38
-40.34
-40.69
-41.28
-42.70
-45.11
-48.13
-50.85
-52.21
-51.42
-48.46
-44.29
-40.67
-39.48
-42.07
-48.63
-58.00
-68.23
-77.28
-83.77
-87.11
-87.48
-85.57
-82.21
-78.11
-73.56
-68.60
-63.09
-56.89
-49.76
-41.63
-32.87
-24.40
-17.53
-13.15
-11.53
-11.94
-13.07
-13.25
-11.83
-10.05
-11.18
-19.09
-35.14
-57.14
-78.96
-93.06
-92.13
-73.06
-38.74
2.42
39.89
66.80
80.98
84.92
82.46
79.00
78.13
81.06
86.70
93.52
103.20
117.17
134.93
151.07
161.61
164.89
163.83
164.61
174.47
200.69
242.78
291.22
328.38
342.14
329.76
299.72
266.18
223.38
171.20
112.20
70.74
46.37
34.81
24.60
11.09
-9.06
-37.77
-71.13
-102.59
-124.51
-133.74
-127.46
-107.12
-78.10
-49.08
-28.01
-16.86
-13.95
-15.96
-21.93
-29.41
-36.95
-44.42
-53.59
-66.35
-81.37
-95.10
-102.86
-101.79
-89.09
-64.13
-29.09
8.58
38.62
53.25
51.20
37.17
16.66
-5.79
-25.38
-42.96
-58.69
-71.65
-80.72
-86.28
-90.72
-97.35
-107.33
-118.67
-127.64
-129.97
-123.09
-106.97
-83.45
-55.31
-25.62
2.36
24.82
37.31
36.84
23.61
2.01
-20.44
-36.27
-41.24
-35.82
-24.36
-12.83
-5.65
-4.10
-6.42
-9.33
-10.10
-7.96
-4.15
-0.80
0.45
-0.43
-1.99
-2.21
0.50
6.46
14.74
24.03
33.17
41.66
49.73
57.95
66.79
76.23
85.55
93.35
97.88
97.51
91.38
79.77
64.09
46.35
28.37
11.20
-5.03
-20.76
-36.41
-51.94
-66.73
-79.78
-90.09
-96.99
-100.32
-100.29
-97.37
-92.12
-85.04
-76.59
-67.15
-57.02
-46.46
-35.79
-25.42
-15.89
-7.81
-1.66
2.41
4.68
5.80
6.58
7.68
9.44
11.86
14.68
17.54
20.19
22.45
24.20
25.32
25.61
24.83
22.86
19.84
16.22
12.66
9.76
7.81
6.67
5.84
4.80
3.30
1.55
0.10
-0.41
0.36
2.29
4.81
7.14
8.60
8.93
8.25
6.99
5.65
4.59
4.04
4.15
5.07
6.98
9.94
13.82
18.15
22.26
25.48
27.36
27.83
27.07
25.38
22.96
19.88
16.19
12.10
8.07
4.81
3.08
3.56
6.53
11.82
18.72
26.13
32.80
37.66
40.14
40.33
38.93
36.95
35.32
34.50
34.30
33.98
32.62
29.53
24.56
18.19
11.36
5.16
0.38
-2.71
-4.43
-5.44
-6.47
-8.05
-10.32
-13.19
-16.47
-20.00
-23.75
-27.67
-31.66
-35.42
-38.45
-40.15
-39.90
-37.25
-32.07
-24.61
-15.55
-5.83
3.55
11.77
18.30
22.95
25.78
26.91
26.48
24.70
21.87
18.44
14.92
11.76
9.18
7.11
5.21
3.04
0.20
-3.47
-7.85
-12.55
-16.99
-20.59
-22.98
-24.11
-24.28
-24.11
-24.38
-25.83
-29.05
-34.33
-41.54
-50.09
-58.82
-66.14
-70.30
-69.81
-63.90
-52.75
-37.49
-19.78
-1.34
16.53
33.12
48.24
61.89
74.07
84.66
93.51
100.61
106.22
110.73
114.48
117.54
119.58
120.03
118.40
114.52
108.73
101.76
94.40
87.26
80.54
74.10
67.58
60.65
53.17
45.20
36.97
28.79
20.93
13.56
6.68
0.11
-6.46
-13.37
-20.83
-28.88
-37.36
-45.96
-54.34
-62.15
-69.03
-74.62
-78.58
-80.67
-80.80
-79.09
-75.83
-71.38
-66.10
-60.27
-54.09
-47.69
-41.09
-34.25
-27.12
-19.70
-12.14
-4.81
1.73
6.89
10.19
11.49
11.06
9.61
8.03
7.24
7.83
9.90
13.06
16.59
19.76
21.97
22.93
22.50
20.71
17.71
13.89
9.88
6.48
4.26
3.31
3.08
2.55
0.78
-2.72
-7.66
-13.21
-18.36
-22.36
-24.88
-25.93
-25.64
-24.03
-20.95
-16.19
-9.58
-1.13
8.91
19.91
30.80
40.01
45.77
46.52
41.54
31.20
16.95
0.81
-15.34
-30.23
-43.32
-54.60
-64.09
-71.64
-76.90
-79.53
-79.55
-77.34
-73.60
-69.02
-64.10
-59.05
-53.97
-48.95
-44.28
-40.34
-37.48
-35.82
-35.08
-34.69
-33.99
-32.51
-30.22
-27.56
-25.28
-24.14
-24.61
-26.71
-30.07
-34.06
-38.01
-41.38
-43.77
-44.85
-44.32
-41.95
-37.70
-31.83
-24.95
-17.89
-11.48
-6.32
-2.65
-0.39
0.73
0.98
0.54
-0.53
-2.26
-4.64
-7.56
-10.74
-13.74
-16.03
-17.10
-16.58
-14.24
-10.07
-4.20
3.13
11.61
20.85
30.41
39.81
48.59
56.35
62.75
67.63
71.03
73.29
74.91
76.44
78.33
80.67
83.23
85.67
87.73
89.50
91.46
94.36
98.95
105.83
115.31
127.32
141.13
155.19
167.01
173.61
172.32
161.77
142.45
116.62
87.45
57.99
30.31
5.36
-16.75
-36.11
-52.78
-66.74
-78.20
-87.73
-96.14
-104.10
-111.73
-118.52
-123.52
-125.71
-124.47
-119.80
-112.31
-102.93
-92.57
-81.86
-71.09
-60.33
-49.68
-39.46
-30.23
-22.65
-17.29
-14.48
-14.21
-16.16
-19.76
-24.28
-28.95
-33.02
-35.90
-37.29
-37.28
-36.34
-35.23
-34.75
-35.45
-37.43
-40.18
-42.66
-43.56
-41.64
-36.10
-26.75
-14.01
1.21
17.77
34.52
50.43
64.64
76.52
85.69
92.09
96.06
98.23
99.51
100.84
102.97
106.24
110.41
114.72
118.06
119.32
117.67
112.87
105.17
95.19
83.62
70.78
56.82
42.29
27.45
12.39
-2.71
-17.62
-32.11
-46.02
-59.50
-72.52
-84.41
-94.55
-102.57
-108.16
-111.30
-112.20
-111.31
-109.73
-108.15
-105.78
-102.19
-97.62
-92.41
-87.05
-82.06
-77.91
-76.63
-79.32
-83.36
-87.28
-91.35
-95.52
-99.61
-103.27
-106.24
-111.94
-122.49
-132.76
-140.20
-145.74
-149.79
-152.51
-154.11
-154.95
-161.33
-177.06
-194.02
-207.80
-219.44
-229.26
-237.31
-243.61
-248.20
-258.65
-279.37
-299.54
-313.73
-323.92
-331.23
-336.10
-338.53
-291.69
-177.36
-70.48
3.72
61.51
107.02
143.29
172.84
197.70
219.27
230.92
228.70
223.73
221.88
221.67
222.42
223.73
225.27
226.77
222.40
209.14
195.93
187.66
183.31
181.99
182.78
184.77
187.25
186.13
179.08
171.22
165.03
159.40
153.66
147.61
141.46
135.68
128.99
120.66
113.19
107.57
102.88
98.43
93.72
88.40
82.18
74.22
64.02
52.69
41.19
30.13
20.20
12.01
5.79
1.45
-1.32
-2.99
-4.02
-4.95
-6.31
-8.55
-11.92
-16.33
-21.34
-26.33
-30.75
-34.29
-36.90
-38.67
-39.65
-39.82
-39.18
-37.91
-36.46
-35.45
-35.45
-36.70
-39.03
-41.88
-44.50
-46.15
-46.25
-44.38
-40.33
-34.02
-25.60
-15.48
-4.32
7.02
17.68
26.91
34.18
39.21
41.98
42.68
41.67
39.42
36.46
33.26
30.09
26.92
23.52
19.45
14.32
7.90
0.27
-8.14
-16.61
-24.21
-30.11
-33.76
-35.12
-34.67
-33.20
-31.51
-30.10
-29.02
-28.10
-27.16
-26.29
-25.85
-26.25
-27.62
-29.66
-31.65
-32.73
-32.15
-29.46
-24.56
-17.66
-9.19
0.22
9.82
18.83
26.61
32.72
37.04
39.69
41.01
41.44
41.41
41.31
41.30
41.37
41.27
40.77
39.81
38.60
37.62
37.36
38.09
39.73
41.86
43.95
45.64
46.85
47.82
48.91
50.32
51.89
53.11
53.25
51.64
47.85
41.80
33.70
24.04
13.51
3.05
-6.19
-13.10
-16.82
-17.10
-14.40
-9.75
-4.47
0.33
3.96
6.21
7.19
7.03
5.82
3.60
0.48
-3.29
-7.31
-11.11
-14.32
-16.73
-18.37
-19.51
-20.49
-21.68
-23.30
-25.38
-27.78
-30.19
-32.28
-33.75
-34.40
-34.16
-33.07
-31.32
-29.13
-26.75
-24.33
-21.94
-19.49
-16.87
-13.96
-10.78
-7.49
-4.35
-1.65
0.30
1.26
1.11
-0.13
-2.21
-4.57
-6.50
-7.25
-6.34
-3.76
0.02
4.24
8.09
11.02
12.91
13.98
14.64
15.29
16.20
17.43
18.86
20.30
21.43
21.97
21.68
20.46
18.39
15.67
12.64
9.65
7.00
4.96
3.68
3.23
3.53
4.36
5.42
6.38
6.96
6.97
6.32
4.93
2.78
-0.14
-3.69
-7.62
-11.61
-15.33
-18.57
-21.30
-23.59
-25.63
-27.54
-29.45
-31.37
-33.32
-35.21
-36.91
-38.23
-38.93
-38.84
-37.87
-36.15
-33.96
-31.72
-29.95
-29.12
-29.57
-31.43
-34.50
-38.34
-42.35
-45.92
-48.55
-49.92
-49.89
-48.47
-45.77
-42.07
-37.80
-33.56
-30.00
-27.83
-27.67
-30.00
-35.09
-42.78
-52.47
-63.06
-73.16
-81.47
-87.12
-89.87
-90.04
-88.22
-85.01
-80.83
-75.98
-70.75
-65.59
-60.98
-57.30
-54.65
-52.84
-51.55
-50.56
-49.86
-49.51
-49.47
-49.33
-48.32
-45.50
-40.22
-32.41
-22.66
-12.01
-1.45
8.47
17.71
26.60
35.39
44.06
52.28
59.62
65.86
71.10
75.67
79.88
83.87
87.47
90.43
92.44
93.26
92.72
90.66
87.00
81.87
75.67
69.04
62.62
56.86
51.81
47.26
42.85
38.35
33.75
29.20
24.86
20.77
16.85
12.95
9.02
5.10
1.36
-2.06
-5.13
-7.98
-10.88
-14.21
-18.25
-23.08
-28.49
-33.91
-38.64
-41.99
-43.50
-43.08
-40.90
-37.24
-32.34
-26.43
-19.75
-12.73
-6.04
-0.41
3.59
5.71
6.09
5.14
3.42
1.51
-0.02
-0.61
0.21
2.71
6.83
12.14
17.98
23.60
28.46
32.20
34.78
36.40
37.39
38.20
39.25
40.81
42.88
45.16
47.09
48.10
47.83
46.26
43.73
40.71
37.59
34.48
31.21
27.45
22.94
17.62
11.70
5.53
-0.47
-5.91
-10.37
-13.39
-14.51
-13.34
-9.81
-4.26
2.64
10.05
17.29
24.06
30.36
36.32
41.88
46.66
50.08
51.65
51.29
49.50
47.12
45.03
43.80
43.53
43.99
44.84
45.88
47.14
48.73
50.71
52.95
55.18
57.11
58.58
59.61
60.40
61.17
62.06
63.07
64.01
64.61
64.59
63.70
61.74
58.52
53.89
47.74
40.14
31.30
21.60
11.49
1.38
-8.33
-17.26
-24.95
-30.89
-34.64
-36.00
-35.17
-32.75
-29.55
-26.31
-23.49
-21.17
-19.15
-17.16
-15.04
-12.76
-10.46
-8.29
-6.34
-4.61
-3.02
-1.49
0.01
1.43
2.72
3.79
4.61
5.21
5.64
5.96
6.21
6.39
6.47
6.42
6.16
5.65
4.79
3.46
1.53
-1.05
-4.17
-7.56
-10.91
-13.98
-16.76
-19.41
-22.22
-25.32
-28.61
-31.71
-34.12
-35.38
-35.12
-33.13
-29.28
-23.52
-15.98
-7.10
2.41
11.63
19.75
26.16
30.66
33.32
34.38
34.14
32.92
31.13
29.20
27.62
26.87
27.29
29.02
31.98
35.80
39.82
43.24
45.19
45.04
42.54
37.82
31.34
23.64
15.26
6.61
-1.94
-10.08
-17.54
-24.15
-29.84
-34.69
-38.85
-42.43
-45.45
-47.78
-49.18
-49.40
-48.31
-46.01
-42.88
-39.50
-36.52
-34.34
-33.07
-32.43
-31.95
-31.19
-29.82
-27.66
-24.68
-20.88
-16.36
-11.34
-6.18
-1.34
2.78
5.95
8.24
9.91
11.31
12.69
14.07
15.25
15.93
15.85
14.95
13.36
11.39
9.33
7.41
5.73
4.20
2.62
0.73
-1.76
-5.07
-9.34
-14.47
-20.20
-26.10
-31.66
-36.33
-39.58
-41.01
-40.45
-38.05
-34.32
-29.93
-25.52
-21.46
-17.80
-14.42
-11.26
-8.45
-6.21
-4.69
-3.75
-2.91
-1.61
0.59
3.81
7.87
12.47
17.39
22.46
27.53
32.35
36.49
39.49
41.04
41.09
39.87
37.68
34.76
31.17
26.84
21.75
16.01
9.92
3.75
-2.30
-8.19
-13.96
-19.55
-24.74
-29.14
-32.36
-34.14
-34.45
-33.44
-31.37
-28.54
-25.24
-21.82
-18.65
-16.09
-14.38
-13.60
-13.68
-14.47
-15.82
-17.63
-19.82
-22.25
-24.73
-26.93
-28.53
-29.34
-29.33
-28.69
-27.69
-26.59
-25.54
-24.54
-23.58
-22.76
-22.21
-22.02
-22.05
-21.91
-21.03
-19.01
-15.72
-11.53
-7.16
-3.38
-0.75
0.50
0.47
-0.63
-2.53
-4.91
-7.36
-9.39
-10.42
-9.93
-7.62
-3.49
2.23
9.19
17.21
26.06
35.27
44.27
52.54
59.85
66.34
72.41
78.46
84.93
91.64
97.77
102.22
104.18
103.47
100.44
95.60
89.44
82.84
76.39
70.20
64.17
58.30
52.77
47.71
43.09
38.70
35.13
32.86
31.79
31.30
30.58
28.87
25.47
19.85
7.46
-12.52
-36.71
-59.75
-77.72
-89.80
-97.19
-101.53
-103.92
-104.80
-103.51
-99.74
-94.48
-89.43
-85.88
-83.80
-81.76
-77.63
-69.71
-58.02
-43.05
-27.26
-13.65
-4.22
0.77
2.54
2.86
3.13
4.35
6.87
10.24
13.95
17.72
21.42
24.70
26.93
27.30
25.29
21.56
16.69
11.48
6.68
2.66
-0.74
-4.07
-8.01
-12.78
-17.95
-22.78
-26.38
-28.26
-28.70
-28.84
-30.22
-34.10
-40.69
-48.74
-55.88
-59.17
-56.08
-45.37
-27.73
-5.77
16.55
35.05
46.53
49.62
45.18
35.77
24.66
14.70
7.56
3.57
2.25
3.01
5.59
10.29
17.60
27.67
39.92
52.95
64.86
73.88
79.05
80.54
79.63
78.21
78.07
80.23
84.51
89.37
92.23
90.23
81.28
64.93
42.78
17.97
-5.91
-26.11
-41.55
-52.67
-60.63
-66.27
-69.65
-70.19
-67.50
-62.01
-55.08
-48.55
-43.79
-41.15
-39.87
-38.61
-36.22
-32.33
-27.49
-22.84
-19.54
-18.15
-18.49
-19.81
-21.20
-22.08
-22.39
-22.51
-22.95
-24.01
-25.67
-27.62
-29.46
-30.94
-32.03
-32.91
-33.82
-34.89
-36.04
-36.90
-36.97
-35.70
-32.81
-28.37
-22.85
-17.02
-11.61
-7.14
-3.76
-1.30
0.45
1.69
2.46
2.70
2.40
1.63
0.53
-0.72
-1.98
-3.19
-4.29
-5.22
-5.87
-6.12
-5.92
-5.34
-4.56
-3.84
-3.48
-3.74
-4.80
-6.72
-9.46
-12.83
-16.58
-20.43
-24.12
-27.39
-30.05
-31.92
-32.86
-32.82
-31.77
-29.79
-26.97
-23.41
-19.16
-14.30
-8.93
-3.21
2.62
8.34
13.75
18.77
23.36
27.50
31.15
34.17
36.46
37.96
38.73
38.91
38.62
37.90
36.70
34.91
32.44
29.37
25.88
22.24
18.68
15.34
12.19
9.08
5.86
2.46
-1.00
-4.16
-6.51
-7.60
-7.19
-5.49
-3.07
-0.77
0.54
0.13
-2.55
-7.86
-16.05
-27.23
-41.26
-57.61
-75.32
-93.05
-109.33
-122.81
-132.41
-137.39
-137.36
-132.33
-122.79
-109.68
-94.26
-77.90
-61.73
-46.49
-32.52
-19.93
-8.79
0.74
8.46
14.23
18.13
20.46
21.66
22.13
22.20
22.09
21.94
21.86
21.93
22.21
22.71
23.33
23.86
23.98
23.44
22.11
20.11
17.76
15.55
14.02
13.47
13.91
15.11
16.74
18.57
20.43
22.24
24.10
26.17
28.26
29.78
30.02
28.51
25.26
20.85
16.14
12.38
10.66
11.02
12.50
13.64
13.27
10.98
7.22
2.71
-1.25
-3.39
-3.70
-3.17
-3.06
-4.48
-8.37
-15.67
-27.35
-42.62
-58.35
-70.65
-75.45
-69.67
-52.19
-24.41
11.85
48.65
76.73
91.96
95.70
91.82
83.61
73.24
62.38
52.95
46.94
46.99
56.79
75.01
96.84
115.26
123.34
116.70
95.29
63.43
26.07
-5.71
-24.20
-28.53
-23.72
-16.52
-11.46
-9.28
-8.11
-5.33
0.59
7.99
13.83
15.79
13.65
9.13
4.92
3.11
4.85
9.54
14.87
18.37
18.56
15.53
10.65
5.69
2.01
0.25
0.50
1.99
3.65
4.45
3.48
-0.06
-6.75
-16.67
-28.34
-39.25
-46.95
-50.13
-49.04
-45.22
-40.54
-36.36
-33.02
-30.04
-26.65
-22.52
-18.09
-14.31
-12.03
-11.69
-13.04
-15.16
-16.88
-17.18
-15.76
-13.20
-10.60
-9.12
-9.48
-12.10
-17.15
-25.00
-35.86
-48.40
-59.82
-65.96
-62.78
-48.26
-24.08
5.33
32.53
52.36
63.40
67.42
67.31
64.91
60.63
52.95
41.64
28.37
16.58
9.39
7.76
10.11
13.52
15.64
15.74
15.01
15.00
16.42
18.27
18.42
14.83
6.88
-4.32
-16.54
-27.28
-34.89
-38.74
-39.07
-36.63
-32.50
-27.96
-24.47
-23.44
-25.52
-30.25
-35.91
-40.15
-40.79
-37.12
-30.65
-24.83
-23.78
-30.49
-45.80
-68.29
-95.23
-123.80
-151.97
-178.34
-201.53
-219.56
-229.95
-230.52
-220.48
-201.08
-175.42
-147.58
-121.44
-99.49
-82.58
-70.18
-61.24
-55.02
-51.37
-50.51
-52.34
-55.62
-57.72
-54.93
-43.59
-21.17
13.02
57.74
110.26
166.83
222.89
273.09
311.76
334.16
338.22
325.82
302.70
276.44
253.36
236.09
223.07
210.35
194.58
175.19
154.75
137.28
125.90
121.19
121.25
123.14
124.51
124.55
123.76
122.87
121.89
119.80
114.98
106.02
92.51
75.31
56.27
37.53
20.82
6.86
-4.74
-15.04
-25.15
-35.68
-46.47
-56.92
-66.36
-74.62
-82.10
-89.63
-98.03
-107.80
-119.01
-131.41
-144.53
-157.64
-169.72
-179.42
-185.25
-185.92
-180.77
-169.92
-154.22
-134.92
-113.41
-90.98
-68.83
-48.12
-29.91
-15.02
-3.74
4.17
9.45
12.95
15.38
17.03
17.91
17.82
16.58
14.26
11.15
7.74
4.52
1.93
0.15
-0.88
-1.45
-2.02
-3.09
-4.97
-7.72
-11.10
-14.56
-17.47
-19.27
-19.65
-18.64
-16.50
-13.54
-9.97
-5.75
-0.68
5.41
12.50
20.38
28.61
36.63
43.89
49.92
54.50
57.53
59.07
59.23
58.21
56.22
53.45
50.03
46.01
41.62
37.08
32.57
28.27
24.34
20.99
18.40
16.77
16.29
17.53
20.81
25.87
31.91
37.94
43.15
47.08
49.66
51.04
52.27
54.00
56.01
57.43
57.57
56.44
54.72
53.46
53.71
57.48
65.73
77.58
90.52
101.58
108.29
108.99
102.90
90.28
74.12
57.65
43.24
32.16
25.39
23.86
27.97
37.05
38.14
23.49
-5.79
-40.96
-73.08
-97.42
-113.19
-122.09
-127.10
-131.09
-134.10
-135.02
-132.62
-126.35
-116.29
-103.00
-87.48
-71.26
-56.22
-42.90
-32.63
-27.69
-30.53
-42.02
-60.17
-80.27
-96.33
-102.18
-94.39
-74.78
-49.12
-24.20
-4.70
8.33
16.58
22.30
26.65
29.51
30.02
28.01
24.48
21.23
19.65
19.76
20.24
19.42
16.38
11.57
6.61
3.25
2.44
3.88
6.34
8.28
8.63
6.97
3.68
-0.61
-5.02
-8.78
-11.45
-12.97
-13.54
-13.48
-13.10
-12.74
-12.52
-12.37
-12.13
-11.65
-10.93
-9.98
-8.87
-7.65
-6.63
-6.06
-5.97
-6.19
-6.39
-6.45
-6.26
-5.87
-5.23
-4.52
-3.74
-2.75
-1.48
-0.19
0.31
-0.80
-4.20
-9.95
-18.01
-27.91
-39.00
-50.80
-61.90
-71.66
-79.75
-86.29
-88.45
-85.07
-77.40
-68.25
-60.09
-53.64
-49.25
-44.83
-38.64
-29.45
-17.30
-2.80
12.56
27.19
40.53
52.52
63.36
72.75
79.81
82.93
80.93
74.04
64.48
56.35
53.07
55.92
63.61
73.61
83.29
91.11
96.83
100.91
104.47
107.44
108.35
105.62
98.87
89.02
77.51
65.11
46.08
18.56
-14.49
-47.33
-74.77
-94.08
-104.95
-108.82
-108.09
-105.18
-102.00
-98.39
-94.63
-91.35
-88.96
-87.53
-86.75
-86.22
-85.64
-84.23
-81.20
-77.29
-73.59
-70.80
-68.79
-66.84
-63.98
-59.35
-52.00
-41.53
-28.53
-13.92
1.42
16.79
31.54
45.01
56.56
66.02
73.50
79.07
82.91
85.16
85.91
85.14
82.88
79.37
75.10
70.58
65.97
61.19
56.04
50.48
44.72
39.14
33.99
29.21
24.48
19.38
13.82
8.14
2.99
-1.04
-3.79
-5.66
-7.48
-10.18
-14.42
-20.38
-27.68
-35.37
-42.17
-46.60
-47.41
-43.87
-36.07
-24.93
-12.03
0.93
12.52
21.82
28.56
32.83
34.94
35.23
34.03
31.66
28.44
24.65
20.58
16.52
12.72
9.41
6.72
4.65
3.07
1.82
0.72
-0.34
-1.44
-2.70
-4.30
-6.37
-8.95
-11.87
-14.84
-17.59
-20.03
-22.35
-24.85
-27.70
-30.77
-33.54
-35.24
-35.15
-32.82
-28.25
-21.84
-14.25
-6.26
1.42
8.21
13.70
17.67
20.07
20.96
20.50
18.84
16.18
12.70
8.69
4.50
0.57
-2.68
-4.93
-6.11
-6.40
-6.16
-5.83
-5.72
-6.01
-6.74
-7.85
-9.37
-11.27
-13.54
-16.01
-18.37
-20.34
-21.81
-22.88
-23.84
-24.88
-25.88
-26.29
-25.29
-22.18
-16.68
-9.14
-0.44
8.36
16.34
23.00
28.23
32.20
35.11
37.04
37.97
37.87
36.83
35.11
33.06
31.03
29.20
27.58
26.07
24.54
22.99
21.44
19.94
18.44
16.79
14.77
12.21
9.10
5.56
1.84
-1.84
-5.30
-8.50
-11.47
-14.33
-17.23
-20.28
-23.50
-26.75
-29.64
-31.60
-32.02
-30.44
-26.73
-21.15
-14.26
-6.81
0.51
7.13
12.64
16.81
19.51
20.74
20.63
19.48
17.64
15.47
13.29
11.26
9.47
7.93
6.70
5.79
5.25
5.05
5.08
5.16
5.05
4.61
3.77
2.59
1.19
-0.27
-1.72
-3.18
-4.78
-6.68
-8.98
-11.65
-14.51
-17.14
-19.03
-19.58
-18.31
-15.02
-9.85
-3.32
3.81
10.67
16.52
20.87
23.53
24.59
24.28
22.94
20.88
18.38
15.67
12.96
10.44
8.28
6.57
5.37
4.61
4.14
3.75
3.21
2.34
1.03
-0.70
-2.76
-5.04
-7.44
-9.91
-12.44
-15.01
-17.60
-20.18
-22.76
-25.36
-28.01
-30.58
-32.75
-33.98
-33.65
-31.25
-26.56
-19.81
-11.64
-2.96
5.29
12.33
17.71
21.32
23.32
24.03
23.79
22.86
21.45
19.69
17.75
15.81
14.06
12.60
11.43
10.46
9.58
8.68
7.73
6.71
5.60
4.33
2.78
0.81
-1.61
-4.44
-7.48
-10.52
-13.35
-15.87
-18.12
-20.28
-22.59
-25.18
-28.00
-30.66
-32.55
-32.95
-31.30
-27.40
-21.54
-14.35
-6.66
0.72
7.24
12.56
16.59
19.31
20.77
20.98
20.03
18.08
15.44
12.51
9.64
7.05
4.70
2.37
-0.22
-3.24
-6.62
-10.10
-13.28
-15.82
-17.63
-18.85
-19.82
-20.96
-22.59
-24.80
-27.38
-29.91
-31.87
-32.80
-32.46
-30.84
-28.23
-25.07
-21.88
-19.06
-16.66
-14.34
-11.34
-6.71
0.39
10.46
23.40
38.53
54.71
70.53
84.55
95.49
102.52
105.31
104.09
99.51
92.44
83.70
73.98
63.72
53.25
42.81
32.64
22.99
14.10
6.22
-0.47
-5.87
-10.00
-13.01
-15.15
-16.78
-18.27
-19.99
-22.19
-24.97
-28.27
-31.87
-35.53
-39.05
-42.32
-45.35
-48.10
-50.57
-52.71
-54.45
-55.69
-56.23
-55.68
-53.48
-49.08
-42.14
-32.82
-21.79
-10.09
1.13
10.94
18.79
24.54
28.35
30.47
31.18
30.68
29.13
26.76
23.87
20.80
17.93
15.48
13.49
11.78
10.08
8.13
5.88
3.48
1.30
-0.29
-1.07
-1.06
-0.62
-0.27
-0.53
-1.75
-3.99
-7.04
-10.50
-14.00
-17.24
-20.08
-22.53
-24.69
-26.72
-28.79
-31.03
-33.39
-35.62
-37.25
-37.72
-36.53
-33.42
-28.51
-22.29
-15.48
-8.85
-3.02
1.70
5.28
7.91
9.81
11.13
11.90
12.15
12.01
11.73
11.65
12.02
12.88
14.07
15.27
16.25
16.92
17.38
17.80
18.26
18.75
19.12
19.23
18.92
18.11
16.79
15.01
12.89
10.66
8.50
6.53
4.69
2.78
0.60
-1.95
-4.73
-7.51
-10.05
-12.20
-13.92
-15.21
-15.96
-15.95
-14.96
-12.91
-9.92
-6.33
-2.53
1.19
4.77
8.23
11.62
14.84
17.66
19.76
20.95
21.19
20.58
19.28
17.40
15.05
12.37
9.61
7.16
5.39
4.52
4.43
4.71
4.76
4.06
2.28
-0.58
-4.28
-8.46
-12.80
-17.09
-21.19
-25.05
-28.63
-31.91
-34.88
-37.58
-40.08
-42.53
-45.03
-47.63
-50.28
-52.80
-54.93
-56.33
-56.61
-55.39
-52.29
-47.05
-39.64
-30.34
-19.82
-9.00
1.12
9.74
16.44
21.26
24.53
26.75
28.36
29.67
30.81
31.84
32.70
33.32
33.65
33.63
33.21
32.44
31.36
30.10
28.81
27.65
26.74
26.12
25.73
25.42
25.00
24.33
23.37
22.10
20.58
18.76
16.57
13.88
10.66
6.99
3.11
-0.68
-4.17
-7.27
-10.13
-13.04
-16.31
-20.17
-24.71
-29.81
-35.12
-40.14
-44.23
-46.73
-47.12
-45.17
-41.03
-35.14
-28.16
-20.72
-13.35
-6.46
-0.47
4.23
7.29
8.55
8.18
6.69
4.76
3.07
2.09
2.06
2.98
4.81
7.41
10.62
14.22
17.97
21.59
24.91
27.84
30.37
32.47
34.14
35.36
36.09
36.38
36.27
35.88
35.30
34.68
34.20
34.13
34.72
36.12
38.33
41.11
44.05
46.73
48.85
50.29
51.16
51.75
52.34
53.20
54.41
55.89
57.40
58.59
59.12
58.74
57.35
54.97
51.57
46.92
40.48
31.49
19.26
3.55
-15.14
-35.51
-55.56
-73.05
-86.01
-93.25
-94.60
-90.99
-84.09
-75.85
-67.97
-61.60
-57.21
-54.79
-54.05
-54.60
-56.03
-57.88
-59.64
-60.88
-61.35
-61.15
-60.67
-60.41
-60.75
-61.72
-62.97
-63.80
-63.48
-61.43
-57.42
-51.62
-44.54
-36.89
-29.39
-22.57
-16.73
-11.81
-7.55
-3.60
0.28
4.16
7.96
11.53
14.77
17.64
20.17
22.34
24.06
25.18
25.61
25.35
24.56
23.50
22.45
21.61
21.11
20.91
20.86
20.72
20.29
19.49
18.43
17.32
16.32
15.38
14.15
12.12
8.78
3.90
-2.33
-9.30
-16.07
-21.67
-25.26
-26.39
-25.05
-21.62
-16.76
-11.19
-5.55
-0.31
4.25
7.93
10.61
12.27
12.96
12.88
12.33
11.60
10.95
10.52
10.35
10.46
10.82
11.35
11.94
12.44
12.67
12.50
11.91
10.98
9.90
8.83
7.85
6.95
5.95
4.68
2.92
0.58
-2.34
-5.71
-9.31
-12.87
-16.18
-19.09
-21.58
-23.75
-25.79
-27.89
-30.09
-32.25
-33.94
-34.60
-33.69
-30.90
-26.29
-20.29
-13.53
-6.63
-0.09
5.76
10.74
14.70
17.54
19.26
19.96
19.91
19.46
18.96
18.61
18.48
18.51
18.60
18.66
18.64
18.55
18.39
18.16
17.84
17.40
16.80
16.03
15.02
13.75
12.14
10.21
7.99
5.63
3.28
1.08
-0.90
-2.66
-4.26
-5.75
-7.26
-8.92
-10.92
-13.41
-16.45
-19.80
-22.95
-25.20
-25.86
-24.51
-21.12
-16.10
-10.12
-3.95
1.74
6.51
10.16
12.74
14.40
15.33
15.70
15.60
15.12
14.35
13.46
12.69
12.20
12.06
12.21
12.49
12.75
12.92
13.02
13.09
13.13
13.04
12.70
12.01
10.97
9.71
8.37
7.05
5.76
4.45
3.02
1.44
-0.27
-2.04
-3.76
-5.41
-6.99
-8.56
-10.21
-12.01
-14.00
-16.19
-18.48
-20.67
-22.42
-23.29
-22.83
-20.80
-17.21
-12.44
-7.08
-1.79
2.89
6.74
9.78
12.18
14.08
15.47
16.24
16.30
15.75
14.93
14.35
14.47
15.46
17.11
18.90
20.19
20.53
19.82
18.33
16.54
14.91
13.66
12.74
11.90
10.83
9.26
6.99
3.82
-0.43
-5.84
-12.24
-19.09
-25.58
-30.84
-34.33
-35.99
-36.27
-35.78
-34.95
-33.82
-32.01
-29.05
-24.70
-19.13
-12.86
-6.51
-0.50
5.02
10.10
14.83
19.15
22.79
25.41
26.79
26.91
26.00
24.48
22.79
21.23
19.99
19.05
18.32
17.67
16.99
16.22
15.33
14.25
12.96
11.38
9.54
7.52
5.50
3.67
2.16
0.98
-0.04
-1.10
-2.39
-3.95
-5.66
-7.31
-8.72
-9.82
-10.70
-11.55
-12.59
-13.96
-15.65
-17.48
-19.10
-20.08
-20.02
-18.71
-16.20
-12.86
-9.27
-6.06
-3.68
-2.31
-1.86
-2.08
-2.74
-3.67
-4.77
-5.97
-7.14
-8.07
-8.61
-8.62
-8.10
-7.12
-5.83
-4.36
-2.80
-1.22
0.41
2.10
3.92
5.87
7.95
10.07
12.17
14.18
16.09
17.85
19.31
20.23
20.27
19.18
16.90
13.69
9.96
6.26
3.00
0.43
-1.43
-2.71
-3.64
-4.49
-5.56
-7.02
-8.86
-10.83
-12.48
-13.26
-12.73
-10.69
-7.21
-2.65
2.43
7.34
11.41
14.10
15.17
14.66
12.88
10.29
7.34
4.39
1.68
-0.63
-2.37
-3.43
-3.79
-3.53
-2.86
-2.06
-1.31
-0.70
-0.21
0.22
0.64
1.04
1.34
1.45
1.31
0.85
0.10
-0.90
-2.04
-3.24
-4.45
-5.71
-7.07
-8.58
-10.23
-11.91
-13.46
-14.80
-15.93
-17.02
-18.30
-19.98
-22.05
-24.34
-26.42
-27.79
-27.97
-26.66
-23.74
-19.32
-13.72
-7.37
-0.80
5.48
11.03
15.50
18.66
20.48
21.09
20.81
20.04
19.22
18.64
18.47
18.68
19.11
19.58
19.92
19.98
19.73
19.19
18.46
17.67
16.86
16.02
14.97
13.49
11.46
8.94
6.20
3.61
1.45
-0.16
-1.35
-2.41
-3.64
-5.27
-7.47
-10.32
-13.86
-18.10
-22.91
-27.98
-32.76
-36.49
-38.36
-37.72
-34.29
-28.27
-20.33
-11.36
-2.28
6.17
13.50
19.47
23.97
26.99
28.68
29.27
29.13
28.66
28.17
27.84
27.64
27.44
27.06
26.34
25.17
23.49
21.30
18.62
15.56
12.29
8.96
5.68
2.47
-0.68
-3.80
-6.84
-9.70
-12.27
-14.50
-16.42
-18.15
-19.78
-21.31
-22.65
-23.66
-24.24
-24.39
-24.30
-24.24
-24.55
-25.48
-27.08
-29.05
-30.77
-31.42
-30.23
-26.81
-21.29
-14.38
-7.13
-0.58
4.55
7.98
9.87
10.63
10.69
10.37
9.85
9.28
8.83
8.73
9.14
10.09
11.39
12.74
13.81
14.40
14.54
14.42
14.29
14.29
14.38
14.40
14.17
13.58
12.67
11.59
10.51
9.62
8.99
8.66
8.53
8.43
8.13
7.43
6.16
4.23
1.65
-1.44
-4.80
-8.02
-10.57
-11.86
-11.43
-9.13
-5.20
-0.25
4.91
9.57
13.28
15.95
17.74
18.85
19.39
19.35
18.66
17.33
15.60
13.83
12.43
11.64
11.46
11.65
11.84
11.75
11.25
10.42
9.50
8.75
8.42
8.64
9.36
10.34
11.16
11.31
10.39
8.24
5.01
1.07
-3.08
-6.99
-10.35
-13.02
-14.98
-16.33
-17.25
-17.95
-18.67
-19.54
-20.58
-21.64
-22.47
-22.89
-22.80
-22.36
-21.83
-21.49
-21.36
-21.12
-20.17
-17.92
-14.11
-9.09
-3.71
1.03
4.50
6.72
8.32
10.13
12.70
16.01
19.50
22.48
24.48
25.45
25.71
25.60
25.18
24.13
21.91
18.01
12.26
4.93
-3.28
-11.51
-18.94
-25.04
-29.60
-32.79
-35.06
-36.94
-38.95
-41.35
-44.05
-46.60
-48.33
-48.55
-46.83
-43.12
-37.76
-31.36
-24.59
-18.09
-12.34
-7.67
-4.21
-1.91
-0.56
0.19
0.71
1.27
1.99
2.82
3.56
3.99
3.94
3.34
2.25
0.86
-0.63
-1.98
-3.00
-3.57
-3.60
-3.13
-2.32
-1.45
-0.92
-1.06
-2.03
-3.69
-5.63
-7.29
-8.22
-8.24
-7.50
-6.39
-5.36
-4.79
-4.84
-5.51
-6.66
-8.17
-9.87
-11.56
-12.93
-13.51
-12.75
-10.17
-5.56
0.88
8.51
16.48
23.92
30.20
35.10
38.73
41.41
43.44
44.96
45.90
46.07
45.31
43.66
41.38
38.90
36.68
34.99
33.85
33.03
32.24
31.23
29.89
28.21
26.23
23.91
21.16
17.91
14.13
9.84
5.11
-0.01
-5.52
-11.35
-17.31
-23.05
-28.14
-32.22
-35.20
-37.22
-38.61
-39.74
-40.82
-41.95
-43.12
-44.32
-45.50
-46.51
-47.00
-46.42
-44.19
-39.91
-33.58
-25.60
-16.70
-7.69
0.79
8.30
14.63
19.69
23.41
25.76
26.75
26.50
25.26
23.33
21.05
18.71
16.52
14.64
13.14
12.06
11.37
11.02
10.92
10.92
10.88
10.64
10.08
9.16
7.91
6.50
5.17
4.13
3.47
3.08
2.68
1.93
0.65
-1.15
-3.21
-5.16
-6.79
-8.10
-9.28
-10.60
-12.14
-13.68
-14.77
-14.82
-13.38
-10.31
-5.87
-0.60
4.75
9.44
12.96
15.06
15.80
15.47
14.43
12.99
11.36
9.63
7.92
6.32
4.98
4.03
3.53
3.47
3.76
4.28
4.87
5.35
5.52
5.24
4.47
3.35
2.13
1.09
0.42
0.10
-0.06
-0.36
-1.00
-2.06
-3.38
-4.76
-6.05
-7.27
-8.65
-10.51
-13.09
-16.42
-20.26
-24.22
-27.88
-30.87
-32.92
-33.79
-33.29
-31.28
-27.81
-23.16
-17.88
-12.58
-7.79
-3.79
-0.57
2.01
4.16
5.94
7.30
8.14
8.34
7.95
7.12
6.12
5.27
4.82
4.85
5.29
5.90
6.43
6.73
6.81
6.76
6.66
6.47
6.00
5.05
3.49
1.45
-0.81
-2.94
-4.72
-6.14
-7.36
-8.62
-10.12
-12.04
-14.43
-17.27
-20.37
-23.32
-25.53
-26.38
-25.40
-22.49
-17.90
-12.20
-6.06
-0.05
5.42
10.14
14.01
17.01
19.10
20.29
20.61
20.17
19.18
17.91
16.65
15.65
15.04
14.77
14.71
14.71
14.64
14.49
14.29
14.05
13.75
13.29
12.56
11.47
9.99
8.20
6.19
4.11
2.04
0.01
-2.02
-4.11
-6.34
-8.72
-11.22
-13.79
-16.39
-18.99
-21.52
-23.80
-25.45
-26.00
-24.94
-22.02
-17.37
-11.49
-5.16
0.85
5.99
10.08
13.16
15.43
17.01
17.91
18.11
17.63
16.61
15.30
13.98
12.89
12.15
11.79
11.78
12.04
12.49
13.03
13.51
13.80
13.77
13.33
12.47
11.22
9.62
7.75
5.69
3.52
1.35
-0.73
-2.67
-4.48
-6.26
-8.12
-10.16
-12.43
-14.90
-17.57
-20.41
-23.38
-26.26
-28.63
-29.87
-29.36
-26.76
-22.17
-16.19
-9.69
-3.51
1.85
6.30
9.95
13.00
15.44
17.11
17.80
17.45
16.28
14.73
13.27
12.28
11.85
11.89
12.22
12.68
13.15
13.57
13.91
14.10
14.01
13.56
12.66
11.33
9.62
7.63
5.52
3.41
1.38
-0.52
-2.32
-4.05
-5.73
-7.35
-8.94
-10.59
-12.47
-14.71
-17.33
-20.12
-22.63
-24.26
-24.51
-23.07
-19.99
-15.59
-10.35
-4.80
0.63
5.61
9.91
13.36
15.86
17.34
17.81
17.42
16.41
15.13
13.94
13.13
12.80
12.91
13.25
13.59
13.77
13.72
13.48
13.09
12.58
11.93
11.10
10.09
8.95
7.73
6.45
5.08
3.52
1.71
-0.36
-2.56
-4.73
-6.71
-8.38
-9.76
-10.97
-12.19
-13.63
-15.44
-17.68
-20.19
-22.62
-24.42
-25.00
-23.89
-20.96
-16.46
-10.99
-5.25
0.14
4.79
8.54
11.41
13.42
14.62
15.05
14.84
14.24
13.51
12.92
12.60
12.58
12.75
12.97
13.14
13.22
13.21
13.16
13.11
13.08
13.03
12.89
12.55
11.93
11.01
9.80
8.39
6.85
5.24
3.62
2.02
0.50
-0.92
-2.25
-3.48
-4.67
-5.82
-6.98
-8.20
-9.58
-11.32
-13.62
-16.65
-20.38
-24.54
-28.60
-31.86
-33.60
-33.25
-30.55
-25.69
-19.28
-12.23
-5.54
-0.03
3.80
5.82
6.22
5.35
3.62
1.49
-0.54
-2.01
-2.55
-2.01
-0.54
1.44
3.45
5.12
6.29
7.08
7.70
8.29
8.82
9.09
8.85
7.95
6.43
4.54
2.57
0.73
-0.96
-2.70
-4.75
-7.31
-10.38
-13.77
-17.20
-20.44
-23.37
-26.04
-28.55
-31.03
-33.60
-36.34
-39.33
-42.56
-45.87
-48.89
-51.07
-51.85
-50.88
-48.24
-44.37
-40.01
-35.92
-32.63
-30.38
-29.10
-28.56
-28.45
-28.45
-28.27
-27.66
-26.44
-24.53
-21.93
-18.73
-15.02
-10.82
-6.12
-0.85
5.03
11.45
18.18
24.84
30.91
35.84
39.19
40.79
40.80
39.73
38.25
36.97
36.30
36.35
36.98
37.97
39.15
40.52
42.25
44.61
47.85
52.11
57.34
63.28
69.45
75.20
79.86
82.81
83.67
82.39
79.26
74.88
69.94
65.07
60.58
56.41
52.18
47.35
41.43
34.23
25.90
16.97
8.17
0.28
-6.01
-10.21
-12.10
-11.75
-9.53
-6.07
-2.07
1.74
4.83
6.92
7.93
8.02
7.40
6.37
5.22
4.26
3.70
3.63
3.93
4.27
4.32
3.85
2.90
1.76
0.83
0.46
0.69
1.25
1.63
1.22
-0.44
-3.54
-7.98
-13.42
-19.45
-25.61
-31.53
-36.88
-41.40
-44.94
-47.48
-49.11
-49.97
-50.13
-49.49
-47.84
-45.00
-40.99
-36.13
-30.95
-26.02
-21.72
-18.16
-15.18
-12.55
-10.05
-7.57
-5.07
-2.55
0.01
2.66
5.39
8.17
10.95
13.68
16.28
18.73
21.00
23.08
24.94
26.50
27.59
27.96
27.27
25.29
21.95
17.41
12.06
6.41
0.95
-4.01
-8.43
-12.56
-16.86
-21.78
-27.58
-34.09
-40.70
-46.45
-50.40
-51.84
-50.59
-46.87
-41.16
-34.00
-25.84
-17.10
-8.29
-0.07
6.81
11.74
14.44
15.12
14.38
13.02
11.81
11.20
11.28
11.82
12.37
12.48
11.76
9.99
7.12
3.29
-1.19
-5.80
-9.93
-12.99
-14.58
-14.64
-13.46
-11.58
-9.62
-8.07
-7.28
-7.39
-8.42
-10.31
-12.90
-15.93
-19.12
-22.25
-25.26
-28.23
-31.28
-34.38
-37.22
-39.14
-39.32
-37.01
-31.78
-23.70
-13.34
-1.76
9.77
19.96
27.81
32.73
34.66
34.01
31.41
27.56
23.05
18.32
13.68
9.38
5.67
2.75
0.74
-0.33
-0.57
-0.14
0.76
1.96
3.27
4.54
5.64
6.46
6.97
7.20
7.23
7.20
7.26
7.51
8.03
8.75
9.47
9.95
9.89
9.12
7.60
5.45
2.90
0.18
-2.49
-4.90
-6.76
-7.65
-7.08
-4.57
0.18
7.12
15.69
24.91
33.46
39.96
43.33
43.08
39.50
33.52
26.43
19.49
13.56
9.01
5.74
3.43
1.79
0.62
-0.16
-0.57
-0.75
-0.88
-1.22
-1.93
-3.05
-4.47
-6.01
-7.45
-8.67
-9.68
-10.61
-11.66
-13.05
-14.97
-17.50
-20.59
-24.08
-27.57
-30.58
-32.55
-32.98
-31.58
-28.33
-23.48
-17.52
-11.03
-4.57
1.41
6.57
10.74
13.83
15.80
16.73
16.79
16.19
15.12
13.76
12.19
10.47
8.70
7.02
5.59
4.51
3.73
3.08
2.30
1.20
-0.25
-1.89
-3.48
-4.78
-5.64
-6.07
-6.14
-5.98
-5.74
-5.60
-5.74
-6.34
-7.44
-8.92
-10.38
-11.25
-10.94
-9.06
-5.58
-0.91
4.23
9.07
12.98
15.70
17.27
18.00
18.27
18.35
18.41
18.42
18.29
17.87
17.05
15.78
14.12
12.23
10.32
8.60
7.19
6.09
5.19
4.31
3.31
2.08
0.55
-1.34
-3.63
-6.37
-9.51
-12.89
-16.31
-19.53
-22.41
-24.89
-27.05
-29.07
-31.15
-33.51
-36.25
-39.23
-42.07
-44.18
-44.91
-43.75
-40.53
-35.41
-28.81
-21.27
-13.29
-5.28
2.40
9.42
15.43
20.13
23.34
25.08
25.57
25.19
24.38
23.60
23.17
23.25
23.78
24.54
25.21
25.50
25.26
24.43
23.10
21.35
19.24
16.76
13.92
10.78
7.48
4.23
1.27
-1.26
-3.29
-4.87
-6.05
-6.96
-7.70
-8.45
-9.46
-10.99
-13.21
-16.12
-19.38
-22.43
-24.56
-25.15
-23.88
-20.83
-16.41
-11.18
-5.73
-0.53
4.14
8.08
11.17
13.34
14.56
14.96
14.77
14.32
13.93
13.72
13.67
13.61
13.34
12.77
11.95
11.06
10.28
9.74
9.47
9.42
9.43
9.35
8.94
8.00
6.38
4.04
1.10
-2.21
-5.57
-8.68
-11.32
-13.36
-14.81
-15.83
-16.66
-17.58
-18.79
-20.30
-21.89
-23.14
-23.58
-22.81
-20.67
-17.22
-12.71
-7.51
-2.07
3.17
7.77
11.36
13.72
14.81
14.76
13.86
12.46
10.86
9.28
7.90
6.82
6.07
5.58
5.21
4.79
4.18
3.36
2.44
1.58
0.89
0.34
-0.24
-1.12
-2.49
-4.35
-6.47
-8.52
-10.15
-11.20
-11.72
-12.00
-12.39
-13.22
-14.64
-16.59
-18.80
-20.91
-22.50
-23.18
-22.64
-20.72
-17.41
-12.90
-7.61
-2.11
2.99
7.23
10.38
12.45
13.65
14.23
14.40
14.26
13.89
13.34
12.71
12.09
11.54
11.03
10.53
9.98
9.38
8.79
8.27
7.84
7.48
7.10
6.61
5.88
4.81
3.29
1.27
-1.15
-3.78
-6.31
-8.50
-10.25
-11.71
-13.16
-14.95
-17.25
-20.00
-22.86
-25.33
-26.86
-27.02
-25.60
-22.59
-18.27
-13.06
-7.51
-2.14
2.68
6.73
10.00
12.52
14.36
15.54
16.03
15.85
15.08
13.94
12.68
11.56
10.66
9.96
9.33
8.68
8.01
7.39
6.93
6.64
6.40
6.00
5.25
4.04
2.43
0.60
-1.29
-3.10
-4.78
-6.32
-7.72
-9.02
-10.24
-11.50
-12.96
-14.79
-17.09
-19.80
-22.62
-25.06
-26.56
-26.63
-24.98
-21.61
-16.81
-11.09
-5.09
0.59
5.45
9.24
11.89
13.52
14.31
14.46
14.11
13.40
12.50
11.59
10.86
10.40
10.19
10.12
10.06
9.94
9.80
9.70
9.69
9.72
9.65
9.32
8.57
7.40
5.84
4.01
2.01
-0.08
-2.20
-4.33
-6.44
-8.54
-10.68
-12.93
-15.40
-18.12
-21.03
-23.87
-26.20
-27.49
-27.23
-25.14
-21.26
-15.97
-9.90
-3.78
1.79
6.48
10.18
12.96
14.93
16.15
16.67
16.55
15.96
15.15
14.39
13.86
13.62
13.59
13.64
13.65
13.54
13.31
12.99
12.66
12.37
12.10
11.80
11.30
10.41
9.00
7.07
4.80
2.45
0.26
-1.69
-3.48
-5.37
-7.59
-10.32
-13.62
-17.40
-21.42
-25.25
-28.27
-29.77
-29.11
-26.01
-20.65
-13.74
-6.24
0.97
7.30
12.62
17.08
20.90
24.16
26.78
28.55
29.31
29.10
28.13
26.76
25.30
23.91
22.55
21.02
19.04
16.46
13.32
9.88
6.53
3.62
1.28
-0.63
-2.48
-4.57
-7.03
-9.63
-11.97
-13.66
-14.59
-14.99
-15.31
-15.97
-17.19
-18.89
-20.82
-22.69
-24.28
-25.43
-25.96
-25.59
-23.98
-20.93
-16.52
-11.15
-5.45
-0.10
4.35
7.69
9.89
11.14
11.68
11.74
11.52
11.13
10.64
10.07
9.41
8.66
7.83
6.95
6.09
5.31
4.69
4.31
4.25
4.52
5.02
5.60
6.06
6.23
6.12
5.82
5.50
5.35
5.46
5.79
6.23
6.55
6.48
5.76
4.21
1.83
-1.17
-4.30
-6.93
-8.44
-8.42
-6.81
-3.92
-0.32
3.36
6.57
8.98
10.46
11.04
10.83
9.91
8.41
6.43
4.18
1.94
0.02
-1.27
-1.74
-1.35
-0.23
1.30
2.87
4.16
4.97
5.21
4.93
4.23
3.16
1.73
-0.01
-1.93
-3.80
-5.38
-6.52
-7.31
-8.09
-9.32
-11.33
-14.20
-17.64
-21.11
-23.96
-25.62
-25.72
-24.10
-20.86
-16.27
-10.82
-5.06
0.43
5.21
9.06
11.95
13.98
15.25
15.79
15.62
14.75
13.30
11.50
9.64
7.95
6.62
5.71
5.23
5.10
5.20
5.41
5.55
5.47
5.07
4.29
3.14
1.70
0.07
-1.61
-3.25
-4.76
-6.14
-7.48
-8.94
-10.72
-12.97
-15.70
-18.70
-21.51
-23.55
-24.24
-23.18
-20.30
-15.87
-10.46
-4.71
0.79
5.66
9.70
12.88
15.22
16.74
17.49
17.50
16.89
15.82
14.55
13.39
12.60
12.33
12.55
13.07
13.58
13.87
13.80
13.43
12.87
12.17
11.32
10.23
8.78
6.97
4.86
2.63
0.43
-1.60
-3.44
-5.11
-6.75
-8.48
-10.46
-12.75
-15.34
-18.14
-20.96
-23.59
-25.71
-26.98
-27.02
-25.57
-22.50
-17.99
-12.43
-6.42
-0.54
4.79
9.33
13.04
15.98
18.21
19.80
20.79
21.22
21.21
20.88
20.37
19.77
19.15
18.55
17.99
17.48
17.01
16.53
15.99
15.30
14.39
13.21
11.74
9.98
7.99
5.87
3.75
1.71
-0.22
-2.09
-3.98
-5.91
-7.88
-9.79
-11.57
-13.20
-14.79
-16.52
-18.60
-21.12
-23.95
-26.79
-29.12
-30.36
-30.01
-27.83
-23.89
-18.56
-12.46
-6.22
-0.41
4.58
8.55
11.46
13.38
14.40
14.71
14.51
13.99
13.35
12.72
12.18
11.74
11.42
11.25
11.28
11.52
11.96
12.48
12.94
13.19
13.16
12.83
12.27
11.54
10.64
9.52
8.11
6.35
4.26
1.96
-0.42
-2.75
-4.96
-7.07
-9.19
-11.49
-14.10
-17.04
-20.17
-23.14
-25.49
-26.68
-26.31
-24.21
-20.50
-15.57
-9.96
-4.26
1.02
5.57
9.23
11.95
13.73
14.60
14.63
13.98
12.92
11.79
10.88
10.33
10.13
10.13
10.19
10.23
10.28
10.42
10.67
10.96
11.12
10.94
10.31
9.23
7.84
6.35
4.94
3.71
2.66
1.71
0.74
-0.33
-1.56
-2.96
-4.50
-6.15
-7.88
-9.66
-11.41
-13.10
-14.71
-16.30
-17.99
-19.89
-22.03
-24.23
-26.10
-27.13
-26.87
-25.02
-21.62
-16.98
-11.61
-6.03
-0.71
4.04
8.01
11.06
13.14
14.31
14.67
14.48
13.96
13.38
12.91
12.66
12.63
12.78
13.02
13.26
13.45
13.58
13.64
13.66
13.63
13.53
13.29
12.85
12.12
11.05
9.63
7.95
6.11
4.33
2.74
1.42
0.33
-0.70
-1.83
-3.14
-4.61
-6.11
-7.52
-8.79
-10.03
-11.41
-13.09
-15.19
-17.69
-20.47
-23.26
-25.64
-27.13
-27.28
-25.76
-22.55
-17.95
-12.48
-6.81
-1.49
3.11
6.84
9.73
11.87
13.34
14.15
14.35
14.03
13.37
12.62
12.02
11.72
11.74
11.99
12.31
12.60
12.80
12.91
12.96
12.90
12.65
12.11
11.21
9.91
8.28
6.42
4.48
2.62
0.94
-0.49
-1.69
-2.74
-3.75
-4.82
-5.99
-7.31
-8.76
-10.31
-11.92
-13.58
-15.32
-17.17
-19.21
-21.39
-23.53
-25.27
-26.10
-25.57
-23.46
-19.86
-15.18
-10.01
-4.93
-0.35
3.52
6.67
9.13
10.97
12.17
12.72
12.61
11.95
10.96
9.93
9.14
8.77
8.85
9.23
9.72
10.12
10.33
10.36
10.30
10.22
10.12
9.94
9.57
8.94
8.06
7.03
6.00
5.08
4.29
3.53
2.66
1.56
0.19
-1.39
-3.06
-4.70
-6.22
-7.62
-8.97
-10.35
-11.84
-13.51
-15.45
-17.68
-20.21
-22.88
-25.35
-27.09
-27.57
-26.39
-23.45
-19.05
-13.75
-8.19
-2.93
1.70
5.56
8.65
10.97
12.50
13.22
13.17
12.51
11.49
10.40
9.50
8.93
8.68
8.65
8.70
8.78
8.87
9.00
9.19
9.36
9.38
9.10
8.43
7.40
6.11
4.70
3.24
1.71
0.06
-1.81
-3.86
-5.95
-7.87
-9.43
-10.58
-11.43
-12.22
-13.25
-14.70
-16.62
-18.83
-20.99
-22.68
-23.46
-22.99
-21.12
-17.96
-13.83
-9.23
-4.63
-0.40
3.28
6.35
8.78
10.54
11.58
11.91
11.62
10.92
10.07
9.34
8.95
9.01
9.52
10.39
11.44
12.45
13.21
13.57
13.47
12.88
11.82
10.30
8.38
6.13
3.75
1.41
-0.68
-2.42
-3.78
-4.86
-5.77
-6.63
-7.56
-8.64
-9.94
-11.50
-13.32
-15.38
-17.58
-19.76
-21.68
-23.04
-23.51
-22.79
-20.73
-17.39
-13.03
-8.09
-3.09
1.54
5.52
8.71
11.12
12.76
13.66
13.89
13.53
12.77
11.90
11.20
10.87
10.98
11.40
11.90
12.23
12.16
11.62
10.59
9.16
7.43
5.51
3.53
1.61
-0.13
-1.61
-2.73
-3.50
-3.93
-4.12
-4.18
-4.21
-4.31
-4.50
-4.76
-5.10
-5.55
-6.23
-7.31
-8.87
-10.86
-12.99
-14.77
-15.67
-15.27
-13.43
-10.31
-6.28
-1.80
2.73
6.99
10.75
13.78
15.87
16.85
16.66
15.40
13.33
10.83
8.29
6.06
4.32
3.16
2.53
2.34
2.49
2.82
3.17
3.37
3.28
2.79
1.90
0.69
-0.73
-2.25
-3.81
-5.42
-7.10
-8.81
-10.49
-12.05
-13.49
-14.88
-16.40
-18.26
-20.51
-23.02
-25.40
-27.13
-27.64
-26.54
-23.70
-19.31
-13.87
-8.02
-2.39
2.52
6.49
9.49
11.68
13.22
14.23
14.72
14.69
14.16
13.28
12.25
11.29
10.49
9.86
9.32
8.84
8.47
8.34
8.50
8.91
9.34
9.48
9.05
7.92
6.14
3.88
1.41
-0.98
-3.04
-4.54
-5.39
-5.64
-5.55
-5.52
-5.95
-7.07
-8.94
-11.43
-14.26
-17.09
-19.52
-21.08
-21.35
-20.04
-17.10
-12.80
-7.66
-2.29
2.75
7.12
10.70
13.48
15.51
16.81
17.45
17.50
17.14
16.58
16.02
15.60
15.34
15.18
15.03
14.85
14.60
14.31
13.96
13.51
12.91
12.12
11.16
10.02
8.69
7.12
5.27
3.17
0.97
-1.14
-2.98
-4.44
-5.55
-6.49
-7.54
-8.96
-10.95
-13.57
-16.61
-19.67
-22.17
-23.47
-23.13
-20.97
-17.19
-12.27
-6.84
-1.49
3.32
7.27
10.22
12.17
13.22
13.60
13.59
13.46
13.36
13.31
13.26
13.11
12.82
12.42
11.96
11.43
10.81
10.05
9.15
8.13
7.05
5.94
4.78
3.52
2.14
0.67
-0.78
-2.14
-3.37
-4.51
-5.62
-6.77
-7.98
-9.32
-10.88
-12.74
-14.94
-17.31
-19.45
-20.79
-20.79
-19.18
-16.05
-11.85
-7.22
-2.71
1.30
4.68
7.43
9.57
11.12
12.03
12.31
12.02
11.30
10.28
9.15
8.05
7.11
6.44
6.11
6.15
6.52
7.12
7.82
8.46
8.84
8.84
8.34
7.32
5.82
3.97
1.96
-0.06
-1.95
-3.66
-5.24
-6.79
-8.47
-10.41
-12.61
-14.93
-17.08
-18.70
-19.42
-19.00
-17.36
-14.58
-10.89
-6.63
-2.21
1.95
5.47
8.09
9.72
10.42
10.40
9.91
9.18
8.41
7.72
7.22
6.95
6.93
7.12
7.43
7.72
7.87
7.76
7.37
6.75
5.97
5.05
3.98
2.71
1.21
-0.43
-2.07
-3.56
-4.82
-5.94
-7.09
-8.46
-10.17
-12.20
-14.37
-16.44
-18.07
-18.96
-18.81
-17.45
-14.91
-11.40
-7.31
-3.07
0.97
4.54
7.50
9.76
11.26
12.01
12.11
11.79
11.34
11.01
10.94
11.09
11.34
11.50
11.46
11.18
10.67
9.97
9.10
8.09
7.00
5.89
4.81
3.76
2.67
1.41
-0.10
-1.85
-3.73
-5.55
-7.17
-8.54
-9.78
-11.07
-12.58
-14.37
-16.27
-17.97
-19.05
-19.12
-17.96
-15.57
-12.19
-8.17
-3.90
0.30
4.19
7.61
10.41
12.45
13.62
13.89
13.38
12.33
11.09
9.94
9.07
8.51
8.17
7.92
7.71
7.52
7.40
7.36
7.34
7.22
6.84
6.10
4.99
3.58
2.03
0.49
-0.92
-2.19
-3.39
-4.63
-6.05
-7.74
-9.73
-12.00
-14.41
-16.78
-18.86
-20.31
-20.81
-20.11
-18.07
-14.81
-10.64
-6.04
-1.49
2.63
6.06
8.72
10.59
11.71
12.12
11.93
11.27
10.37
9.40
8.47
7.55
6.51
5.24
3.74
2.18
0.82
-0.14
-0.61
-0.70
-0.64
-0.68
-1.00
-1.65
-2.63
-3.86
-5.28
-6.83
-8.48
-10.18
-11.95
-13.80
-15.72
-17.65
-19.39
-20.69
-21.18
-20.59
-18.73
-15.64
-11.52
-6.75
-1.77
2.97
7.10
10.36
12.65
13.99
14.48
14.30
13.62
12.65
11.60
10.62
9.82
9.27
8.91
8.69
8.52
8.39
8.29
8.22
8.12
7.85
7.22
6.08
4.41
2.33
0.11
-1.99
-3.83
-5.37
-6.74
-8.11
-9.67
-11.51
-13.68
-16.10
-18.57
-20.73
-22.16
-22.40
-21.15
-18.37
-14.31
-9.46
-4.36
0.50
4.83
8.47
11.40
13.64
15.22
16.14
16.43
16.18
15.52
14.60
13.60
12.66
11.88
11.30
10.93
10.74
10.63
10.55
10.39
10.10
9.65
9.00
8.11
6.96
5.56
3.96
2.24
0.45
-1.34
-3.12
-4.88
-6.59
-8.21
-9.75
-11.27
-12.88
-14.75
-16.88
-19.09
-20.99
-22.10
-21.99
-20.44
-17.52
-13.50
-8.85
-4.05
0.46
4.36
7.44
9.61
10.89
11.37
11.16
10.41
9.29
8.00
6.77
5.80
5.23
5.09
5.28
5.63
5.97
6.17
6.19
6.06
5.87
5.71
5.65
5.69
5.77
5.78
5.61
5.16
4.41
3.37
2.16
0.90
-0.21
-0.97
-1.25
-1.03
-0.43
0.24
0.60
0.32
-0.81
-2.76
-5.31
-8.10
-10.76
-12.92
-14.31
-14.67
-13.82
-11.67
-8.36
-4.28
0.00
3.84
6.68
8.22
8.44
7.57
5.94
3.92
1.88
0.16
-0.92
-1.09
-0.27
1.42
3.62
5.83
7.59
8.62
8.94
8.79
8.44
8.06
7.58
6.78
5.46
3.60
1.44
-0.64
-2.33
-3.55
-4.51
-5.57
-7.11
-9.30
-12.12
-15.31
-18.45
-21.08
-22.69
-22.87
-21.33
-18.12
-13.53
-8.15
-2.61
2.53
6.94
10.49
13.19
15.14
16.41
17.09
17.30
17.23
17.09
17.09
17.38
18.00
18.90
20.00
21.21
22.50
23.87
25.28
26.66
27.86
28.65
28.75
27.92
25.92
22.61
17.96
12.11
5.50
-1.22
-7.27
-12.03
-15.32
-17.48
-19.29
-21.57
-24.91
-29.34
-34.38
-39.27
-43.24
-45.77
-46.60
-45.75
-43.29
-39.34
-34.02
-27.55
-20.32
-12.90
-5.99
-0.17
4.20
7.16
9.05
10.37
11.60
12.96
14.43
15.81
16.85
17.37
17.29
16.63
15.48
13.98
12.27
10.51
8.84
7.30
5.83
4.24
2.27
-0.30
-3.57
-7.41
-11.49
-15.37
-18.65
-21.15
-22.92
-24.28
-25.60
-27.12
-28.93
-30.91
-32.92
-34.88
-36.78
-38.51
-39.76
-39.93
-38.30
-34.34
-28.06
-20.12
-11.70
-4.05
1.88
5.75
7.78
8.57
8.83
9.07
9.59
10.45
11.54
12.65
13.61
14.29
14.67
14.81
14.78
14.61
14.27
13.67
12.79
11.66
10.39
9.07
7.79
6.54
5.28
3.97
2.64
1.36
0.24
-0.65
-1.35
-1.94
-2.60
-3.48
-4.68
-6.23
-8.09
-10.14
-12.24
-14.18
-15.73
-16.59
-16.42
-15.01
-12.29
-8.45
-3.86
1.06
5.98
10.74
15.34
19.72
23.68
26.82
28.67
28.95
27.71
25.37
22.54
19.82
17.53
15.78
14.50
13.60
13.09
13.00
13.32
13.87
14.36
14.52
14.14
13.24
11.93
10.38
8.63
6.70
4.58
2.38
0.31
-1.38
-2.55
-3.23
-3.66
-4.19
-5.13
-6.73
-9.07
-12.14
-15.86
-20.03
-24.35
-28.41
-31.72
-33.85
-34.45
-33.43
-30.92
-27.31
-23.08
-18.75
-14.72
-11.21
-8.27
-5.90
-4.12
-3.03
-2.75
-3.27
-4.47
-6.01
-7.52
-8.74
-9.55
-9.98
-10.07
-9.73
-8.79
-7.05
-4.49
-1.31
2.09
5.20
7.65
9.32
10.27
10.73
10.88
10.85
10.68
10.38
9.99
9.56
9.15
8.75
8.22
7.37
6.02
4.15
2.07
0.40
-0.14
1.09
4.31
9.26
15.26
21.50
27.30
32.31
36.43
39.70
42.11
43.52
43.77
42.78
40.67
37.74
34.33
30.69
26.98
23.27
19.63
16.22
13.23
10.78
8.89
7.45
6.30
5.30
4.39
3.55
2.74
1.89
0.88
-0.35
-1.75
-3.18
-4.49
-5.61
-6.58
-7.58
-8.82
-10.46
-12.58
-15.17
-18.05
-20.93
-23.33
-24.70
-24.51
-22.43
-18.47
-12.99
-6.65
-0.17
5.79
10.77
14.54
17.10
18.60
19.28
19.42
19.31
19.14
18.97
18.74
18.27
17.38
15.94
13.93
11.48
8.74
5.91
3.13
0.51
-1.86
-3.95
-5.72
-7.18
-8.34
-9.19
-9.74
-9.97
-9.90
-9.58
-9.09
-8.51
-7.89
-7.34
-6.98
-6.94
-7.24
-7.80
-8.35
-8.50
-7.90
-6.35
-3.90
-0.76
2.78
6.45
10.00
13.21
15.78
17.36
17.65
16.55
14.24
11.16
7.86
4.83
2.37
0.50
-0.91
-2.06
-3.09
-4.08
-5.08
-6.16
-7.38
-8.79
-10.35
-11.92
-13.30
-14.34
-15.03
-15.50
-15.99
-16.77
-18.03
-19.86
-22.19
-24.78
-27.28
-29.15
-29.82
-28.83
-25.96
-21.40
-15.64
-9.39
-3.29
2.16
6.77
10.47
13.29
15.22
16.21
16.27
15.48
14.03
12.21
10.27
8.38
6.63
5.02
3.55
2.21
1.08
0.20
-0.43
-0.90
-1.45
-2.30
-3.63
-5.44
-7.57
-9.73
-11.65
-13.16
-14.27
-15.16
-16.10
-17.39
-19.23
-21.56
-24.08
-26.20
-27.22
-26.51
-23.73
-18.98
-12.79
-5.92
0.80
6.71
11.45
14.93
17.29
18.72
19.46
19.69
19.56
19.18
18.64
18.01
17.33
16.63
15.94
15.30
14.72
14.21
13.76
13.34
12.88
12.31
11.58
10.63
9.49
8.20
6.89
5.67
4.60
3.67
2.75
1.64
0.16
-1.81
-4.21
-6.81
-9.25
-11.14
-12.08
-11.81
-10.21
-7.37
-3.58
0.69
4.89
8.50
11.17
12.74
13.23
12.81
11.60
9.76
7.43
4.80
2.14
-0.23
-2.03
-3.15
-3.62
-3.63
-3.42
-3.18
-3.00
-2.91
-2.90
-2.98
-3.22
-3.73
-4.52
-5.55
-6.69
-7.75
-8.61
-9.25
-9.75
-10.23
-10.81
-11.56
-12.52
-13.72
-15.20
-16.91
-18.69
-20.22
-21.08
-20.89
-19.43
-16.78
-13.28
-9.44
-5.82
-2.89
-1.01
-0.38
-1.03
-2.90
-5.74
-9.21
-12.84
-16.16
-18.74
-20.24
-20.50
-19.49
-17.36
-14.32
-10.65
-6.60
-2.40
1.74
5.64
9.10
11.91
13.93
15.07
15.45
15.25
14.73
14.05
13.24
12.16
10.59
8.39
5.51
2.12
-1.45
-4.72
-7.17
-8.27
-7.67
-5.30
-1.46
3.18
7.78
11.60
14.17
15.41
15.49
14.69
13.24
11.24
8.76
5.90
2.87
-0.11
-2.81
-5.09
-6.93
-8.34
-9.33
-9.95
-10.26
-10.42
-10.67
-11.25
-12.32
-13.83
-15.55
-17.13
-18.25
-18.66
-18.35
-17.47
-16.35
-15.37
-14.88
-15.05
-15.82
-16.90
-17.78
-17.93
-16.93
-14.54
-10.79
-5.85
0.07
6.70
13.79
21.04
28.07
34.45
39.79
43.77
46.22
47.14
46.65
44.97
42.37
39.12
35.44
31.48
27.36
23.16
19.05
15.18
11.74
8.82
6.39
4.37
2.64
1.15
-0.06
-0.98
-1.65
-2.22
-2.91
-3.89
-5.20
-6.76
-8.41
-10.04
-11.59
-13.04
-14.33
-15.26
-15.51
-14.73
-12.68
-9.36
-5.05
-0.23
4.47
8.53
11.57
13.49
14.41
14.63
14.47
14.24
14.09
14.06
14.08
14.02
13.75
13.16
12.23
11.01
9.57
8.01
6.39
4.78
3.24
1.86
0.72
-0.16
-0.87
-1.60
-2.61
-4.10
-6.16
-8.73
-11.64
-14.68
-17.65
-20.32
-22.40
-23.53
-23.28
-21.35
-17.71
-12.64
-6.71
-0.64
4.94
9.58
13.07
15.37
16.48
16.45
15.41
13.62
11.46
9.39
7.76
6.68
6.02
5.50
4.82
3.83
2.56
1.18
-0.11
-1.23
-2.21
-3.20
-4.39
-5.87
-7.62
-9.50
-11.32
-12.90
-14.19
-15.23
-16.22
-17.39
-18.93
-20.81
-22.79
-24.35
-24.94
-24.06
-21.54
-17.58
-12.68
-7.48
-2.56
1.68
5.05
7.44
8.82
9.15
8.49
7.00
4.94
2.66
0.47
-1.44
-2.94
-4.01
-4.64
-4.86
-4.70
-4.30
-3.87
-3.64
-3.85
-4.58
-5.81
-7.40
-9.20
-11.06
-12.91
-14.75
-16.63
-18.59
-20.65
-22.79
-24.89
-26.75
-28.05
-28.39
-27.35
-24.65
-20.30
-14.64
-8.26
-1.86
4.03
9.11
13.41
17.05
20.16
22.73
24.69
25.97
26.69
27.12
27.58
28.31
29.31
30.35
31.07
31.15
30.44
28.99
27.00
24.71
22.33
20.00
17.81
15.84
14.16
12.81
11.76
10.89
10.04
9.07
7.91
6.55
4.99
3.24
1.31
-0.78
-2.85
-4.62
-5.67
-5.63
-4.20
-1.35
2.69
7.44
12.25
16.49
19.67
21.51
21.96
21.15
19.30
16.69
13.63
10.43
7.38
4.68
2.42
0.59
-0.84
-1.91
-2.60
-2.93
-2.99
-2.97
-3.07
-3.47
-4.18
-5.14
-6.24
-7.43
-8.74
-10.21
-11.82
-13.45
-14.89
-16.00
-16.73
-17.15
-17.40
-17.58
-17.70
-17.69
-17.42
-16.80
-15.84
-14.66
-13.50
-12.58
-12.08
-12.03
-12.35
-12.89
-13.49
-14.07
-14.53
-14.73
-14.47
-13.48
-11.54
-8.59
-4.74
-0.33
4.23
8.56
12.33
15.38
17.62
19.03
19.65
19.59
18.95
17.90
16.57
15.10
13.60
12.17
10.91
9.94
9.33
9.08
9.07
9.08
8.80
7.94
6.34
3.96
0.95
-2.43
-5.85
-9.02
-11.73
-13.91
-15.67
-17.19
-18.72
-20.42
-22.29
-24.11
-25.52
-26.06
-25.36
-23.30
-19.99
-15.85
-11.41
-7.25
-3.81
-1.35
0.08
0.56
0.24
-0.72
-2.17
-3.96
-5.94
-7.95
-9.87
-11.59
-13.06
-14.22
-15.00
-15.36
-15.25
-14.68
-13.73
-12.53
-11.23
-9.95
-8.78
-7.75
-6.88
-6.14
-5.54
-5.15
-5.07
-5.46
-6.38
-7.75
-9.23
-10.31
-10.38
-9.05
-6.29
-2.46
1.87
6.12
9.91
13.17
16.02
18.60
20.96
22.99
24.43
25.02
24.63
23.32
21.39
19.26
17.35
15.98
15.23
15.00
15.09
15.31
15.48
15.50
15.26
14.61
13.38
11.45
8.81
5.57
1.98
-1.61
-4.82
-7.32
-8.83
-9.25
-8.68
-7.39
-5.83
-4.54
-3.96
-4.36
-5.71
-7.62
-9.42
-10.32
-9.67
-7.21
-3.17
1.86
7.10
11.87
15.77
18.61
20.40
21.21
21.22
20.80
20.50
21.00
22.81
26.07
30.45
35.24
39.62
43.00
45.14
46.10
46.12
45.42
44.08
42.11
39.48
36.15
32.04
27.01
20.91
13.77
5.89
-2.00
-8.99
-14.19
-17.13
-17.97
-17.42
-16.51
-16.22
-17.19
-19.65
-23.41
-27.92
-32.49
-36.27
-38.52
-38.69
-36.65
-32.74
-27.69
-22.41
-17.75
-14.23
-12.04
-11.03
-10.88
-11.19
-11.62
-11.87
-11.77
-11.27
-10.46
-9.52
-8.61
-7.84
-7.20
-6.56
-5.86
-5.08
-4.40
-4.09
-4.39
-5.39
-6.96
-8.81
-10.53
-11.83
-12.54
-12.66
-12.31
-11.67
-10.91
-10.22
-9.77
-9.74
-10.16
-10.92
-11.67
-11.87
-11.03
-8.82
-5.32
-0.98
3.51
7.47
10.49
12.49
13.69
14.42
14.92
15.25
15.37
15.14
14.52
13.55
12.29
10.82
9.18
7.36
5.40
3.42
1.52
-0.18
-1.68
-3.11
-4.62
-6.36
-8.34
-10.41
-12.40
-14.14
-15.56
-16.72
-17.76
-18.83
-20.04
-21.42
-22.92
-24.35
-25.40
-25.63
-24.61
-22.04
-17.93
-12.64
-6.83
-1.31
3.25
6.48
8.34
9.07
9.01
8.45
7.58
6.48
5.22
3.91
2.71
1.76
1.13
0.83
0.79
0.98
1.34
1.84
2.43
2.99
3.36
3.38
2.93
1.96
0.49
-1.38
-3.61
-6.15
-8.98
-12.04
-15.20
-18.18
-20.58
-21.97
-22.02
-20.57
-17.72
-13.81
-9.31
-4.69
-0.37
3.38
6.40
8.62
10.08
10.84
10.98
10.61
9.83
8.78
7.65
6.67
6.07
5.99
6.41
7.13
7.86
8.30
8.26
7.72
6.80
5.64
4.37
2.99
1.42
-0.42
-2.60
-5.07
-7.70
-10.36
-12.90
-15.21
-17.16
-18.55
-19.05
-18.31
-16.05
-12.22
-7.10
-1.23
4.72
10.15
14.66
18.05
20.29
21.44
21.59
20.92
19.63
18.00
16.28
14.70
13.38
12.35
11.61
11.13
10.85
10.66
10.38
9.82
8.85
7.45
5.73
3.88
2.07
0.40
-1.14
-2.59
-4.03
-5.54
-7.19
-9.08
-11.31
-13.90
-16.73
-19.40
-21.38
-22.06
-20.98
-18.01
-13.42
-7.79
-1.88
3.64
8.30
11.89
14.42
16.03
16.90
17.20
17.08
16.67
16.09
15.42
14.73
14.03
13.30
12.54
11.77
11.05
10.46
10.01
9.65
9.26
8.69
7.86
6.71
5.28
3.67
1.97
0.27
-1.41
-3.06
-4.78
-6.69
-8.91
-11.53
-14.47
-17.46
-20.06
-21.73
-21.99
-20.56
-17.43
-12.92
-7.57
-2.03
3.10
7.43
10.78
13.18
14.72
15.48
15.52
14.89
13.77
12.48
11.34
10.62
10.39
10.53
10.78
10.91
10.76
10.30
9.60
8.74
7.81
6.83
5.76
4.52
3.02
1.22
-0.85
-3.05
-5.19
-7.12
-8.79
-10.22
-11.55
-12.92
-14.46
-16.25
-18.27
-20.37
-22.19
-23.25
-23.05
-21.23
-17.80
-13.08
-7.69
-2.27
2.67
6.91
10.38
13.15
15.20
16.47
16.86
16.39
15.20
13.62
12.01
10.71
9.89
9.52
9.45
9.46
9.36
9.03
8.42
7.53
6.42
5.12
3.68
2.11
0.43
-1.40
-3.40
-5.53
-7.73
-9.88
-11.86
-13.65
-15.28
-16.88
-18.57
-20.42
-22.46
-24.58
-26.56
-28.06
-28.64
-27.83
-25.32
-21.04
-15.29
-8.71
-2.10
3.81
8.47
11.70
13.58
14.40
14.49
14.20
13.79
13.46
13.33
13.44
13.79
14.27
14.73
14.97
14.85
14.29
13.33
12.20
11.20
10.60
10.55
10.97
11.55
11.85
11.44
10.04
7.60
4.31
0.52
-3.37
-7.01
-10.26
-13.15
-15.89
-18.73
-21.86
-25.24
-28.62
-31.54
-33.43
-33.78
-32.26
-28.84
-23.79
-17.62
-10.98
-4.48
1.42
6.46
10.51
13.54
15.51
16.45
16.53
16.05
15.42
15.08
15.29
16.08
17.26
18.49
19.39
19.70
19.28
18.14
16.43
14.33
12.07
9.80
7.64
5.63
3.78
2.06
0.41
-1.22
-2.90
-4.72
-6.70
-8.81
-10.99
-13.17
-15.27
-17.21
-18.82
-19.86
-20.01
-18.99
-16.69
-13.18
-8.78
-3.95
0.84
5.23
8.98
11.99
14.22
15.64
16.20
15.89
14.81
13.17
11.30
9.56
8.23
7.47
7.29
7.51
7.93
8.31
8.47
8.29
7.71
6.76
5.46
3.88
2.08
0.14
-1.84
-3.77
-5.54
-7.15
-8.69
-10.32
-12.25
-14.56
-17.12
-19.61
-21.51
-22.28
-21.51
-19.02
-14.93
-9.64
-3.73
2.17
7.46
11.76
14.87
16.82
17.76
17.86
17.28
16.16
14.66
12.95
11.25
9.72
8.50
7.61
7.05
6.75
6.64
6.58
6.41
5.98
5.21
4.08
2.68
1.14
-0.43
-1.99
-3.58
-5.24
-7.00
-8.82
-10.66
-12.44
-14.09
-15.51
-16.49
-16.77
-16.07
-14.21
-11.23
-7.35
-2.96
1.56
5.93
9.96
13.54
16.50
18.62
19.63
19.34
17.75
15.11
11.85
8.49
5.46
3.04
1.36
0.36
-0.09
-0.17
-0.08
-0.03
-0.22
-0.79
-1.84
-3.31
-5.10
-7.01
-8.91
-10.71
-12.45
-14.21
-16.11
-18.23
-20.55
-22.89
-24.90
-26.08
-25.90
-24.02
-20.37
-15.27
-9.32
-3.24
2.36
7.07
10.73
13.36
15.04
15.85
15.90
15.35
14.44
13.40
12.43
11.62
10.93
10.31
9.73
9.22
8.86
8.67
8.58
8.41
7.96
7.03
5.59
3.73
1.64
-0.45
-2.39
-4.15
-5.81
-7.59
-9.72
-12.40
-15.60
-19.06
-22.28
-24.63
-25.55
-24.73
-22.20
-18.26
-13.36
-7.98
-2.50
2.78
7.56
11.58
14.56
16.33
16.86
16.30
14.96
13.21
11.45
10.02
9.17
9.04
9.61
10.73
12.10
13.39
14.30
14.62
14.33
13.50
12.26
10.74
8.99
7.04
4.92
2.74
0.64
-1.21
-2.76
-4.11
-5.50
-7.25
-9.59
-12.60
-16.08
-19.62
-22.61
-24.43
-24.57
-22.82
-19.30
-14.43
-8.84
-3.15
2.15
6.78
10.62
13.60
15.64
16.70
16.79
16.09
14.88
13.55
12.42
11.70
11.42
11.48
11.73
12.02
12.26
12.41
12.45
12.31
11.88
11.07
9.81
8.18
6.36
4.58
3.03
1.79
0.82
-0.06
-1.03
-2.26
-3.83
-5.71
-7.76
-9.79
-11.61
-13.13
-14.41
-15.73
-17.35
-19.47
-21.95
-24.38
-26.12
-26.57
-25.31
-22.29
-17.79
-12.36
-6.59
-1.04
3.88
7.94
11.05
13.23
14.56
15.21
15.34
15.15
14.81
14.46
14.17
13.98
13.87
13.81
13.76
13.70
13.63
13.54
13.44
13.34
13.20
12.98
12.58
11.92
10.96
9.75
8.41
7.05
5.78
4.63
3.56
2.51
1.41
0.19
-1.19
-2.71
-4.32
-5.88
-7.26
-8.42
-9.37
-10.32
-11.51
-13.16
-15.33
-17.87
-20.43
-22.54
-23.70
-23.48
-21.60
-18.04
-13.08
-7.28
-1.37
3.91
8.05
10.82
12.33
12.91
12.94
12.71
12.38
12.03
11.70
11.44
11.26
11.20
11.22
11.26
11.27
11.22
11.11
10.95
10.72
10.38
9.83
8.98
7.78
6.27
4.53
2.72
0.97
-0.62
-2.05
-3.37
-4.65
-5.94
-7.24
-8.55
-9.87
-11.19
-12.56
-14.03
-15.70
-17.66
-19.88
-22.22
-24.30
-25.60
-25.62
-24.05
-20.96
-16.74
-12.04
-7.50
-3.53
-0.30
2.23
4.20
5.67
6.65
7.11
7.06
6.59
5.87
5.16
4.65
4.44
4.53
4.83
5.18
5.47
5.61
5.60
5.46
5.23
4.96
4.65
4.30
3.84
3.21
2.37
1.35
0.25
-0.75
-1.52
-2.03
-2.36
-2.76
-3.49
-4.74
-6.57
-8.86
-11.37
-13.74
-15.58
-16.49
-16.16
-14.37
-11.16
-6.79
-1.76
3.33
7.92
11.67
14.48
16.47
17.79
18.48
18.47
17.61
15.85
13.37
10.58
8.02
6.17
5.26
5.31
6.07
7.24
8.50
9.62
10.43
10.84
10.89
10.63
10.14
9.44
8.44
7.06
5.20
2.90
0.33
-2.25
-4.58
-6.52
-8.09
-9.47
-10.88
-12.55
-14.56
-16.85
-19.21
-21.29
-22.74
-23.21
-22.42
-20.21
-16.65
-12.01
-6.82
-1.74
2.59
5.70
7.42
7.79
7.02
5.37
3.08
0.41
-2.32
-4.75
-6.52
-7.38
-7.32
-6.50
-5.25
-3.84
-2.50
-1.31
-0.27
0.64
1.45
2.08
2.41
2.32
1.70
0.57
-0.96
-2.69
-4.39
-5.91
-7.17
-8.21
-9.13
-10.07
-11.15
-12.42
-13.85
-15.26
-16.36
-16.72
-15.96
-13.84
-10.40
-6.00
-1.18
3.52
7.70
11.22
14.07
16.31
17.94
18.91
19.17
18.75
17.83
16.69
15.61
14.78
14.26
14.01
13.89
13.70
13.22
12.22
10.55
8.16
5.14
1.68
-2.03
-5.81
-9.58
-13.28
-16.84
-20.09
-22.82
-24.91
-26.36
-27.42
-28.44
-29.79
-31.73
-34.30
-37.26
-40.10
-42.19
-42.89
-41.76
-38.65
-33.79
-27.67
-20.94
-14.22
-7.93
-2.32
2.57
6.76
10.30
13.17
15.32
16.69
17.28
17.19
16.68
16.06
15.64
15.59
15.98
16.71
17.61
18.53
19.31
19.85
20.04
19.82
19.11
17.88
16.12
13.86
11.18
8.20
5.10
2.06
-0.71
-3.10
-5.10
-6.81
-8.43
-10.16
-12.19
-14.56
-17.15
-19.65
-21.61
-22.54
-22.07
-20.06
-16.65
-12.24
-7.31
-2.32
2.38
6.56
10.07
12.78
14.59
15.43
15.35
14.55
13.31
11.93
10.69
9.76
9.21
9.03
9.15
9.49
9.89
10.24
10.39
10.23
9.67
8.66
7.23
5.51
3.65
1.84
0.22
-1.16
-2.39
-3.62
-5.05
-6.81
-8.91
-11.19
-13.38
-15.08
-15.95
-15.68
-14.18
-11.50
-7.89
-3.75
0.51
4.49
7.87
10.43
12.11
12.93
13.00
12.52
11.71
10.80
9.99
9.42
9.12
9.09
9.21
9.34
9.32
9.06
8.52
7.77
6.93
6.09
5.26
4.29
3.03
1.33
-0.78
-3.12
-5.41
-7.39
-9.02
-10.40
-11.76
-13.34
-15.24
-17.39
-19.57
-21.45
-22.65
-22.82
-21.66
-19.04
-15.06
-10.04
-4.48
1.07
6.17
10.56
14.14
16.90
18.83
19.95
20.27
19.92
19.16
18.30
17.59
17.16
16.96
16.86
16.68
16.35
15.88
15.28
14.59
13.80
12.88
11.81
10.57
9.11
7.41
5.42
3.18
0.79
-1.61
-3.90
-5.97
-7.82
-9.52
-11.18
-12.94
-14.83
-16.82
-18.74
-20.26
-21.03
-20.72
-19.14
-16.29
-12.42
-7.89
-3.14
1.42
5.50
8.93
11.63
13.59
14.80
15.29
15.10
14.40
13.45
12.56
12.00
11.88
12.12
12.55
12.98
13.31
13.52
13.63
13.60
13.30
12.55
11.22
9.30
6.91
4.27
1.60
-0.93
-3.22
-5.21
-6.90
-8.33
-9.61
-10.82
-11.92
-12.73
-12.88
-11.92
-9.53
-5.64
-0.43
5.69
12.22
18.68
24.64
29.67
33.34
35.21
34.97
32.53
28.13
22.30
15.74
9.07
2.74
-3.06
-8.30
-12.97
-16.95
-19.97
-21.68
-21.85
-20.57
-18.28
-15.68
-13.52
-12.31
-12.19
-12.96
-14.22
-15.56
-16.72
-17.63
-18.34
-18.98
-19.67
-20.47
-21.42
-22.46
-23.47
-24.23
-24.43
-23.78
-22.04
-19.13
-15.15
-10.38
-5.18
0.03
4.95
9.36
13.17
16.39
19.04
21.10
22.51
23.22
23.18
22.47
21.28
19.88
18.57
17.53
16.83
16.37
15.98
15.47
14.75
13.76
12.49
10.95
9.10
6.96
4.58
2.11
-0.26
-2.41
-4.32
-6.05
-7.73
-9.47
-11.27
-13.15
-15.07
-17.08
-19.18
-21.30
-23.21
-24.55
-24.88
-23.91
-21.52
-17.88
-13.39
-8.58
-3.95
0.09
3.36
5.90
7.87
9.46
10.80
11.83
12.41
12.43
11.90
11.04
10.16
9.53
9.23
9.14
9.04
8.71
8.09
7.22
6.24
5.26
4.35
3.52
2.73
1.92
1.05
0.00
-1.29
-2.88
-4.75
-6.81
-8.90
-10.86
-12.57
-13.95
-15.07
-16.07
-17.17
-18.61
-20.49
-22.72
-24.95
-26.63
-27.17
-26.14
-23.42
-19.24
-14.09
-8.53
-3.01
2.20
6.98
11.28
15.05
18.23
20.77
22.71
24.19
25.34
26.26
26.90
27.08
26.60
25.30
23.22
20.52
17.51
14.48
11.62
9.00
6.55
4.19
1.91
-0.16
-1.79
-2.72
-2.81
-2.14
-1.02
0.12
0.85
0.89
0.15
-1.26
-3.14
-5.26
-7.42
-9.48
-11.35
-12.99
-14.47
-15.90
-17.41
-19.11
-20.92
-22.62
-23.82
-24.08
-23.02
-20.45
-16.36
-11.03
-4.92
1.33
7.05
11.61
14.59
15.87
15.65
14.31
12.36
10.21
8.17
6.41
5.06
4.19
3.86
4.03
4.55
5.24
5.90
6.39
6.63
6.58
6.26
5.69
4.88
3.89
2.76
1.49
0.08
-1.51
-3.26
-5.09
-6.85
-8.41
-9.72
-10.78
-11.71
-12.63
-13.63
-14.79
-16.21
-17.92
-19.85
-21.75
-23.17
-23.53
-22.38
-19.52
-15.19
-9.94
-4.45
0.68
5.05
8.48
10.98
12.63
13.56
13.93
13.84
13.38
12.58
11.46
10.07
8.55
7.10
5.94
5.21
4.95
5.13
5.68
6.51
7.52
8.52
9.28
9.59
9.30
8.45
7.16
5.62
3.92
2.11
0.16
-1.92
-4.05
-6.15
-8.15
-10.05
-11.95
-13.98
-16.26
-18.84
-21.65
-24.44
-26.83
-28.38
-28.68
-27.49
-24.82
-20.91
-16.15
-10.94
-5.65
-0.55
4.12
8.14
11.28
13.34
14.28
14.19
13.31
12.00
10.61
9.40
8.53
8.01
7.73
7.59
7.44
7.22
6.90
6.50
6.08
5.69
5.33
4.97
4.52
3.85
2.90
1.60
0.05
-1.67
-3.42
-5.13
-6.81
-8.53
-10.39
-12.47
-14.82
-17.42
-20.21
-23.05
-25.67
-27.66
-28.51
-27.77
-25.20
-20.87
-15.21
-8.89
-2.59
3.09
7.78
11.32
13.72
15.06
15.53
15.36
14.80
14.11
13.49
13.06
12.84
12.83
13.00
13.33
13.84
14.55
15.44
16.46
17.48
18.32
18.79
18.73
18.06
16.77
14.96
12.74
10.25
7.59
4.85
2.09
-0.60
-3.14
-5.47
-7.60
-9.65
-11.78
-14.16
-16.84
-19.68
-22.34
-24.36
-25.28
-24.70
-22.48
-18.67
-13.59
-7.75
-1.70
4.04
9.08
13.21
16.36
18.55
19.84
20.29
19.99
19.10
17.84
16.42
15.03
13.69
12.36
10.94
9.41
7.85
6.40
5.21
4.35
3.75
3.24
2.65
1.86
0.82
-0.43
-1.85
-3.38
-4.98
-6.62
-8.25
-9.81
-11.29
-12.70
-14.10
-15.60
-17.28
-19.19
-21.29
-23.33
-24.92
-25.60
-24.95
-22.80
-19.28
-14.78
-9.78
-4.68
0.25
4.85
8.97
12.35
14.69
15.75
15.51
14.19
12.20
10.01
7.98
6.36
5.28
4.76
4.75
5.10
5.58
5.94
6.01
5.78
5.39
5.02
4.82
4.75
4.66
4.35
3.74
2.88
1.89
0.86
-0.30
-1.78
-3.84
-6.64
-10.10
-13.94
-17.68
-20.81
-22.88
-23.54
-22.65
-20.25
-16.56
-11.96
-6.93
-1.96
2.54
6.28
9.13
11.01
11.96
12.03
11.35
10.19
8.92
7.99
7.82
8.65
10.40
12.74
15.14
17.11
18.31
18.66
18.30
17.43
16.24
14.84
13.22
11.36
9.21
6.82
4.27
1.72
-0.67
-2.83
-4.76
-6.63
-8.63
-10.94
-13.60
-16.52
-19.46
-22.05
-23.95
-24.85
-24.52
-22.88
-19.99
-16.08
-11.52
-6.79
-2.31
1.57
4.67
6.93
8.40
9.20
9.47
9.35
8.97
8.45
7.89
7.39
7.07
6.99
7.19
7.60
8.11
8.58
8.92
9.10
9.20
9.30
9.40
9.42
9.18
8.54
7.44
5.97
4.27
2.48
0.69
-1.08
-2.82
-4.45
-5.92
-7.19
-8.36
-9.66
-11.35
-13.57
-16.15
-18.61
-20.24
-20.38
-18.67
-15.16
-10.36
-5.01
0.15
4.52
7.82
10.04
11.33
11.95
12.14
12.07
11.87
11.58
11.23
10.82
10.34
9.74
8.96
7.95
6.75
5.47
4.33
3.52
3.13
3.09
3.17
3.15
2.91
2.49
2.05
1.76
1.67
1.68
1.58
1.16
0.38
-0.68
-1.86
-3.00
-4.06
-5.13
-6.37
-7.91
-9.82
-12.06
-14.45
-16.74
-18.65
-19.85
-20.05
-19.00
-16.59
-12.87
-8.11
-2.80
2.43
6.97
10.32
12.29
12.98
12.70
11.85
10.74
9.54
8.34
7.13
6.01
5.11
4.58
4.46
4.64
4.89
4.97
4.72
4.12
3.29
2.35
1.37
0.30
-0.95
-2.49
-4.36
-6.49
-8.71
-10.83
-12.67
-14.16
-15.33
-16.35
-17.48
-18.97
-20.88
-23.04
-25.00
-26.17
-25.99
-24.12
-20.62
-15.86
-10.45
-5.06
-0.22
3.76
6.79
8.99
10.54
11.63
12.43
13.08
13.63
14.10
14.40
14.42
14.00
13.05
11.62
9.90
8.23
6.98
6.40
6.57
7.29
8.21
8.90
9.00
8.35
7.00
5.24
3.42
1.85
0.68
-0.15
-0.88
-1.83
-3.22
-5.11
-7.34
-9.54
-11.26
-12.06
-11.58
-9.67
-6.37
-1.97
3.07
8.21
12.89
16.67
19.28
20.72
21.16
20.86
20.07
18.95
17.57
15.97
14.23
12.49
10.92
9.64
8.67
7.89
7.14
6.33
5.45
4.58
3.77
3.00
2.15
1.07
-0.36
-2.12
-4.12
-6.21
-8.28
-10.30
-12.28
-14.27
-16.33
-18.53
-20.91
-23.42
-25.86
-27.85
-28.88
-28.50
-26.44
-22.72
-17.71
-11.97
-6.10
-0.64
4.05
7.79
10.51
12.25
13.12
13.30
13.01
12.46
11.86
11.35
11.02
10.85
10.80
10.78
10.69
10.51
10.28
10.06
9.87
9.65
9.24
8.47
7.22
5.55
3.63
1.69
-0.09
-1.67
-3.10
-4.51
-6.04
-7.81
-9.89
-12.26
-14.83
-17.34
-19.37
-20.42
-20.08
-18.16
-14.82
-10.49
-5.71
-1.00
3.30
7.01
10.07
12.45
14.07
14.86
14.78
13.94
12.55
10.95
9.44
8.26
7.51
7.15
7.07
7.15
7.31
7.50
7.72
7.90
7.91
7.59
6.83
5.65
4.20
2.74
1.47
0.44
-0.47
-1.53
-2.96
-4.90
-7.36
-10.23
-13.36
-16.59
-19.67
-22.26
-23.91
-24.14
-22.68
-19.53
-15.03
-9.77
-4.34
0.74
5.16
8.73
11.37
13.00
13.56
13.12
11.90
10.26
8.67
7.56
7.13
7.34
7.93
8.53
8.82
8.67
8.13
7.41
6.67
6.01
5.33
4.46
3.21
1.50
-0.62
-2.99
-5.39
-7.65
-9.67
-11.54
-13.40
-15.48
-17.92
-20.72
-23.70
-26.50
-28.69
-29.81
-29.53
-27.72
-24.45
-20.01
-14.88
-9.59
-4.61
-0.28
3.27
6.03
8.08
9.47
10.27
10.53
10.31
9.75
9.05
8.42
8.06
8.09
8.54
9.33
10.27
11.11
11.63
11.67
11.19
10.24
8.94
7.46
5.95
4.54
3.34
2.39
1.63
0.90
-0.02
-1.32
-3.11
-5.33
-7.77
-10.06
-11.80
-12.61
-12.19
-10.45
-7.44
-3.45
1.11
5.71
9.83
13.05
15.15
16.11
16.12
15.50
14.58
13.65
12.87
12.26
11.72
11.11
10.33
9.40
8.41
7.52
6.84
6.40
6.12
5.89
5.59
5.17
4.58
3.86
3.05
2.25
1.62
1.38
1.67
2.56
3.89
5.34
6.51
6.93
6.30
4.53
1.82
-1.32
-4.22
-6.25
-6.99
-6.36
-4.67
-2.40
-0.05
2.07
3.87
5.40
6.70
7.72
8.33
8.38
7.82
6.78
5.53
4.39
3.60
3.25
3.25
3.44
3.66
3.86
4.03
4.21
4.46
4.78
5.15
5.50
5.77
5.87
5.72
5.25
4.41
3.24
1.81
0.21
-1.48
-3.26
-5.15
-7.20
-9.42
-11.84
-14.46
-17.23
-20.02
-22.54
-24.43
-25.26
-24.73
-22.71
-19.34
-15.03
-10.31
-5.75
-1.82
1.21
3.25
4.42
4.93
5.00
4.83
4.56
4.27
4.05
3.95
3.99
4.12
4.26
4.34
4.38
4.44
4.63
4.96
5.32
5.51
5.33
4.69
3.68
2.49
1.37
0.44
-0.25
-0.80
-1.41
-2.27
-3.56
-5.32
-7.42
-9.53
-11.18
-11.87
-11.23
-9.15
-5.81
-1.65
2.79
7.00
10.61
13.40
15.27
16.15
15.95
14.64
12.27
9.15
5.78
2.76
0.58
-0.55
-0.80
-0.55
-0.25
-0.21
-0.50
-0.98
-1.50
-1.92
-2.26
-2.57
-2.93
-3.32
-3.72
-4.07
-4.39
-4.78
-5.41
-6.44
-7.99
-10.04
-12.49
-15.15
-17.82
-20.26
-22.25
-23.51
-23.73
-22.63
-20.04
-16.02
-10.93
-5.32
0.15
5.00
8.93
11.94
14.12
15.58
16.39
16.61
16.33
15.76
15.15
14.70
14.45
14.33
14.16
13.83
13.30
12.62
11.87
11.08
10.22
9.17
7.80
5.97
3.58
0.62
-2.82
-6.50
-10.15
-13.51
-16.40
-18.76
-20.64
-22.12
-23.25
-24.10
-24.73
-25.30
-25.96
-26.82
-27.83
-28.72
-29.03
-28.28
-26.15
-22.64
-18.01
-12.79
-7.48
-2.49
1.96
5.77
8.88
11.27
12.88
13.74
13.96
13.75
13.32
12.83
12.35
11.86
11.37
10.92
10.59
10.44
10.47
10.57
10.61
10.45
10.02
9.29
8.29
7.11
5.83
4.56
3.39
2.30
1.26
0.15
-1.14
-2.68
-4.46
-6.37
-8.24
-9.87
-11.10
-11.84
-12.13
-12.12
-12.05
-12.14
-12.49
-13.02
-13.43
-13.33
-12.36
-10.33
-7.25
-3.38
0.90
5.20
9.28
13.01
16.33
19.17
21.38
22.73
23.07
22.35
20.77
18.70
16.55
14.62
13.09
11.92
10.99
10.19
9.43
8.75
8.26
8.05
8.14
8.43
8.71
8.70
8.20
7.10
5.51
3.61
1.66
-0.16
-1.74
-3.11
-4.34
-5.55
-6.85
-8.25
-9.74
-11.24
-12.68
-14.04
-15.36
-16.76
-18.35
-20.14
-21.99
-23.54
-24.31
-23.81
-21.74
-18.06
-13.09
-7.40
-1.63
3.67
8.18
11.78
14.53
16.50
17.74
18.26
18.09
17.34
16.21
14.95
13.82
12.95
12.37
12.00
11.70
11.32
10.80
10.16
9.47
8.82
8.22
7.62
6.93
6.04
4.85
3.37
1.62
-0.33
-2.37
-4.44
-6.47
-8.42
-10.34
-12.31
-14.47
-16.93
-19.65
-22.40
-24.77
-26.22
-26.25
-24.60
-21.29
-16.66
-11.26
-5.71
-0.51
3.97
7.56
10.29
12.24
13.58
14.39
14.76
14.71
14.24
13.36
12.12
10.61
8.95
7.25
5.60
4.04
2.61
1.37
0.39
-0.29
-0.71
-1.02
-1.44
-2.15
-3.26
-4.78
-6.62
-8.65
-10.69
-12.57
-14.14
-15.31
-16.10
-16.69
-17.36
-18.44
-20.12
-22.38
-24.89
-27.11
-28.37
-28.12
-26.04
-22.17
-16.87
-10.79
-4.58
1.19
6.17
10.23
13.36
15.64
17.12
17.90
18.05
17.68
16.96
16.06
15.15
14.36
13.74
13.27
12.89
12.50
12.07
11.59
11.08
10.50
9.75
8.68
7.13
5.05
2.54
-0.13
-2.69
-4.88
-6.58
-7.84
-8.82
-9.76
-10.85
-12.21
-13.88
-15.80
-17.86
-19.92
-21.78
-23.18
-23.75
-23.13
-21.07
-17.54
-12.78
-7.28
-1.61
3.71
8.34
12.13
15.02
17.00
18.04
18.15
17.50
16.36
15.12
14.13
13.59
13.52
13.75
14.06
14.23
14.12
13.75
13.22
12.70
12.30
12.02
11.68
11.03
9.86
8.09
5.85
3.42
1.08
-0.99
-2.77
-4.35
-5.88
-7.49
-9.25
-11.22
-13.46
-16.06
-19.01
-22.22
-25.37
-27.95
-29.35
-29.04
-26.79
-22.72
-17.28
-11.12
-4.89
0.88
5.87
9.94
13.07
15.32
16.79
17.58
17.80
17.56
16.98
16.22
15.46
14.86
14.50
14.34
14.25
14.08
13.75
13.27
12.69
12.05
11.30
10.37
9.20
7.79
6.22
4.58
2.89
1.10
-0.83
-2.88
-5.00
-7.05
-8.98
-10.84
-12.75
-14.88
-17.31
-20.01
-22.80
-25.38
-27.32
-28.22
-27.73
-25.67
-22.07
-17.19
-11.45
-5.32
0.74
6.33
11.14
14.91
17.45
18.68
18.68
17.71
16.21
14.65
13.47
12.94
13.06
13.63
14.32
14.78
14.79
14.32
13.51
12.57
11.70
10.97
10.32
9.59
8.56
7.09
5.11
2.70
0.01
-2.78
-5.50
-8.02
-10.27
-12.22
-13.92
-15.48
-17.08
-18.91
-21.00
-23.18
-25.03
-26.01
-25.58
-23.45
-19.65
-14.51
-8.60
-2.50
3.27
8.34
12.48
15.60
17.71
18.90
19.32
19.13
18.49
17.58
16.58
15.70
15.10
14.88
14.97
15.22
15.38
15.28
14.84
14.10
13.18
12.19
11.18
10.14
8.99
7.63
6.01
4.07
1.84
-0.69
-3.52
-6.72
-10.33
-14.37
-18.72
-23.16
-27.35
-30.96
-33.71
-35.38
-35.82
-34.90
-32.58
-28.90
-24.06
-18.42
-12.50
-6.77
-1.59
2.87
6.59
9.58
11.85
13.35
14.04
13.97
13.35
12.46
11.63
11.09
10.90
11.02
11.28
11.57
11.78
11.92
12.01
12.06
12.06
11.94
11.64
11.10
10.29
9.24
7.98
6.48
4.68
2.50
-0.09
-2.99
-6.02
-8.96
-11.75
-14.49
-17.38
-20.59
-24.04
-27.38
-29.99
-31.27
-30.75
-28.32
-24.22
-18.96
-13.20
-7.58
-2.60
1.48
4.60
6.84
8.38
9.37
9.93
10.15
10.13
10.02
10.00
10.18
10.62
11.31
12.17
13.15
14.23
15.38
16.57
17.67
18.55
19.05
19.09
18.71
17.98
17.01
15.91
14.75
13.57
12.41
11.29
10.18
8.97
7.57
5.90
3.93
1.64
-1.03
-4.22
-8.03
-12.39
-16.93
-20.98
-23.74
-24.58
-23.32
-20.24
-15.99
-11.27
-6.62
-2.30
1.61
5.03
7.81
9.75
10.72
10.75
10.12
9.18
8.30
7.71
7.47
7.54
7.84
8.32
8.93
9.62
10.29
10.78
10.96
10.71
10.01
8.93
7.61
6.23
4.92
3.77
2.72
1.62
0.32
-1.32
-3.29
-5.45
-7.61
-9.61
-11.36
-12.96
-14.58
-16.47
-18.77
-21.49
-24.43
-27.14
-29.02
-29.46
-28.00
-24.54
-19.37
-13.11
-6.50
-0.21
5.31
9.88
13.51
16.24
18.15
19.26
19.65
19.46
18.86
18.01
17.04
16.02
15.02
14.09
13.33
12.82
12.57
12.55
12.62
12.66
12.54
12.18
11.49
10.42
8.96
7.18
5.28
3.46
1.90
0.63
-0.53
-1.85
-3.52
-5.61
-7.92
-10.17
-12.07
-13.54
-14.75
-15.97
-17.56
-19.68
-22.32
-25.15
-27.64
-29.12
-28.99
-26.86
-22.78
-17.18
-10.83
-4.56
0.95
5.33
8.57
10.86
12.45
13.48
13.99
13.94
13.38
12.46
11.42
10.49
9.85
9.51
9.42
9.44
9.47
9.43
9.27
8.97
8.47
7.73
6.72
5.42
3.81
1.93
-0.20
-2.49
-4.83
-7.12
-9.25
-11.19
-12.96
-14.61
-16.25
-17.97
-19.87
-22.04
-24.49
-27.08
-29.54
-31.39
-32.11
-31.29
-28.71
-24.51
-19.06
-12.87
-6.45
-0.23
5.49
10.50
14.58
17.60
19.46
20.24
20.10
19.35
18.31
17.24
16.30
15.52
14.82
14.12
13.34
12.50
11.68
10.97
10.42
9.98
9.58
9.15
8.67
8.22
7.81
7.39
6.83
5.92
4.58
2.84
0.91
-0.98
-2.65
-4.11
-5.46
-6.84
-8.38
-10.14
-12.19
-14.55
-17.23
-20.05
-22.63
-24.35
-24.61
-22.96
-19.40
-14.31
-8.39
-2.41
3.01
7.51
11.01
13.55
15.21
16.06
16.19
15.71
14.80
13.70
12.62
11.74
11.14
10.82
10.75
10.81
10.90
10.89
10.68
10.23
9.56
8.72
7.76
6.71
5.60
4.45
3.29
2.13
0.94
-0.35
-1.86
-3.61
-5.60
-7.69
-9.68
-11.43
-12.90
-14.22
-15.62
-17.37
-19.63
-22.37
-25.34
-28.01
-29.78
-30.03
-28.41
-24.86
-19.72
-13.61
-7.28
-1.40
3.55
7.32
9.94
11.53
12.30
12.38
11.90
10.99
9.82
8.60
7.57
6.91
6.67
6.81
7.16
7.56
7.88
8.02
8.00
7.80
7.42
6.79
5.81
4.39
2.54
0.36
-1.94
-4.13
-6.05
-7.69
-9.18
-10.75
-12.64
-14.98
-17.80
-20.93
-24.10
-26.84
-28.65
-29.00
-27.56
-24.26
-19.36
-13.36
-6.92
-0.63
5.03
9.81
13.59
16.37
18.20
19.15
19.31
18.81
17.81
16.54
15.28
14.25
13.63
13.48
13.75
14.25
14.78
15.17
15.31
15.14
14.69
14.00
13.10
12.04
10.84
9.51
8.05
6.45
4.69
2.69
0.31
-2.60
-6.16
-10.39
-15.16
-20.31
-25.58
-30.73
-35.45
-39.35
-41.92
-42.59
-41.00
-37.09
-31.27
-24.28
-17.01
-10.18
-4.20
0.84
5.00
8.36
10.89
12.50
13.17
13.02
12.37
11.62
11.12
11.02
11.25
11.60
11.84
11.82
11.57
11.20
10.84
10.48
10.00
9.20
7.93
6.18
4.11
2.01
0.16
-1.28
-2.31
-3.07
-3.76
-4.51
-5.43
-6.59
-8.10
-10.08
-12.58
-15.51
-18.57
-21.22
-22.81
-22.74
-20.72
-16.77
-11.32
-4.97
1.59
7.82
13.36
18.01
21.60
24.00
25.12
25.02
23.94
22.30
20.63
19.32
18.58
18.32
18.25
18.07
17.57
16.72
15.61
14.43
13.26
12.06
10.72
9.08
7.04
4.59
1.81
-1.21
-4.37
-7.64
-10.96
-14.36
-17.89
-21.61
-25.59
-29.76
-33.87
-37.44
-39.85
-40.52
-39.10
-35.58
-30.29
-23.76
-16.63
-9.49
-2.82
3.04
7.88
11.60
14.17
15.69
16.29
16.19
15.62
14.87
14.21
13.87
13.96
14.46
15.22
16.02
16.65
16.95
16.92
16.63
16.12
15.39
14.32
12.78
10.72
8.25
5.63
3.18
1.09
-0.61
-2.12
-3.77
-5.86
-8.57
-11.92
-15.72
-19.63
-23.14
-25.70
-26.76
-25.91
-23.01
-18.24
-12.11
-5.27
1.63
8.06
13.67
18.30
21.87
24.36
25.82
26.36
26.16
25.48
24.57
23.61
22.73
21.95
21.23
20.51
19.75
18.91
17.99
17.02
16.04
15.10
14.15
13.08
11.70
9.87
7.57
4.91
2.10
-0.66
-3.25
-5.73
-8.28
-11.14
-14.51
-18.46
-22.90
-27.53
-31.85
-35.22
-36.98
-36.60
-33.88
-29.05
-22.68
-15.56
-8.46
-1.96
3.63
8.20
11.75
14.27
15.76
16.23
15.86
14.90
13.73
12.65
11.89
11.49
11.38
11.43
11.53
11.65
11.82
12.06
12.32
12.47
12.34
11.81
10.86
9.61
8.22
6.84
5.54
4.24
2.85
1.30
-0.40
-2.14
-3.82
-5.35
-6.69
-7.86
-8.93
-9.97
-11.06
-12.26
-13.64
-15.24
-17.05
-19.05
-21.16
-23.24
-25.04
-26.18
-26.26
-24.93
-22.03
-17.69
-12.26
-6.25
-0.19
5.46
10.34
14.18
16.80
18.17
18.38
17.68
16.40
14.87
13.43
12.26
11.48
11.08
10.96
10.98
10.98
10.83
10.48
9.91
9.15
8.19
7.00
5.50
3.66
1.50
-0.86
-3.22
-5.43
-7.41
-9.26
-11.18
-13.43
-16.16
-19.35
-22.69
-25.66
-27.63
-28.02
-26.47
-22.97
-17.88
-11.83
-5.58
0.27
5.35
9.57
12.96
15.57
17.31
18.07
17.82
16.77
15.30
13.88
12.85
12.30
12.08
11.96
11.72
11.34
10.86
10.37
9.90
9.42
8.82
7.97
6.78
5.19
3.22
0.96
-1.39
-3.60
-5.47
-6.99
-8.32
-9.75
-11.60
-14.02
-16.98
-20.18
-23.20
-25.52
-26.63
-26.15
-23.84
-19.75
-14.22
-7.85
-1.32
4.73
9.87
13.91
16.86
18.80
19.83
20.05
19.57
18.58
17.30
15.98
14.83
13.95
13.35
12.98
12.74
12.50
12.20
11.79
11.27
10.68
10.04
9.32
8.42
7.19
5.52
3.38
0.87
-1.77
-4.32
-6.57
-8.49
-10.17
-11.79
-13.55
-15.61
-18.04
-20.79
-23.66
-26.28
-28.14
-28.74
-27.67
-24.82
-20.41
-14.92
-8.99
-3.21
1.97
6.30
9.68
12.05
13.38
13.71
13.10
11.79
10.12
8.47
7.19
6.48
6.35
6.65
7.16
7.68
8.10
8.38
8.57
8.63
8.49
7.97
6.93
5.33
3.25
0.92
-1.39
-3.48
-5.28
-6.88
-8.42
-10.11
-12.09
-14.45
-17.17
-20.05
-22.73
-24.70
-25.45
-24.58
-21.98
-17.87
-12.72
-7.08
-1.48
3.67
8.08
11.58
14.06
15.51
16.00
15.69
14.81
13.62
12.38
11.35
10.66
10.37
10.37
10.50
10.52
10.27
9.73
8.98
8.18
7.45
6.78
6.05
5.06
3.67
1.80
-0.44
-2.86
-5.21
-7.29
-8.99
-10.32
-11.47
-12.70
-14.26
-16.37
-19.06
-22.09
-25.02
-27.22
-28.05
-27.04
-24.06
-19.35
-13.48
-7.15
-1.05
4.33
8.77
12.23
14.77
16.45
17.30
17.37
16.74
15.61
14.26
12.96
11.93
11.25
10.91
10.82
10.91
11.13
11.45
11.80
12.04
11.98
11.43
10.29
8.63
6.57
4.30
1.98
-0.29
-2.42
-4.29
-5.76
-6.81
-7.58
-8.45
-9.92
-12.38
-15.95
-20.35
-25.02
-29.28
-32.53
-34.38
-34.62
-33.21
-30.17
-25.63
-19.87
-13.31
-6.51
-0.07
5.53
9.94
13.06
15.02
16.07
16.51
16.63
16.64
16.66
16.74
16.90
17.10
17.30
17.41
17.37
17.17
16.82
16.37
15.84
15.16
14.16
12.69
10.65
8.13
5.39
2.77
0.57
-1.11
-2.43
-3.69
-5.32
-7.65
-10.83
-14.79
-19.20
-23.53
-27.13
-29.30
-29.53
-27.57
-23.56
-18.04
-11.79
-5.60
-0.11
4.29
7.47
9.41
10.13
9.67
8.11
5.65
2.66
-0.41
-3.08
-5.06
-6.27
-6.87
-7.10
-7.14
-7.04
-6.65
-5.72
-4.05
-1.59
1.46
4.70
7.67
9.98
11.43
12.03
11.98
11.54
10.95
10.33
9.67
8.86
7.73
6.06
3.70
0.52
-3.44
-7.90
-12.34
-16.01
-18.16
-18.21
-16.03
-11.96
-6.72
-1.18
3.84
7.83
10.50
11.78
11.71
10.40
8.05
4.98
1.66
-1.41
-3.78
-5.15
-5.47
-4.89
-3.71
-2.29
-0.93
0.16
0.91
1.31
1.36
1.02
0.24
-1.01
-2.65
-4.50
-6.34
-8.01
-9.51
-11.08
-13.05
-15.75
-19.29
-23.54
-28.08
-32.30
-35.50
-37.06
-36.56
-33.85
-29.11
-22.83
-15.66
-8.34
-1.47
4.49
9.29
12.80
15.00
15.93
15.75
14.75
13.31
11.85
10.65
9.82
9.26
8.79
8.23
7.60
6.98
6.56
6.40
6.43
6.42
6.11
5.29
3.87
1.95
-0.29
-2.61
-4.76
-6.54
-7.86
-8.78
-9.54
-10.50
-12.04
-14.41
-17.55
-21.04
-24.16
-26.03
-25.90
-23.38
-18.51
-11.79
-3.97
4.17
11.96
18.92
24.72
29.14
32.04
33.38
33.30
32.08
30.11
27.80
25.44
23.22
21.18
19.31
17.56
15.88
14.21
12.59
11.06
9.71
8.59
7.60
6.50
5.01
2.92
0.23
-2.85
-5.94
-8.70
-10.98
-12.79
-14.36
-15.97
-17.87
-20.25
-23.14
-26.41
-29.73
-32.53
-34.10
-33.71
-30.81
-25.27
-17.44
-8.15
1.53
10.60
18.30
24.36
28.80
31.85
33.71
34.44
34.05
32.58
30.29
27.58
24.99
22.92
21.53
20.67
20.05
19.35
18.38
17.12
15.62
13.96
12.10
9.94
7.32
4.15
0.48
-3.51
-7.50
-11.16
-14.27
-16.78
-18.87
-20.84
-23.01
-25.58
-28.50
-31.46
-33.95
-35.36
-35.15
-33.01
-28.91
-23.16
-16.29
-8.96
-1.84
4.53
9.76
13.65
16.13
17.25
17.16
16.08
14.37
12.41
10.61
9.22
8.37
7.94
7.75
7.60
7.39
7.11
6.83
6.50
6.03
5.25
4.03
2.37
0.40
-1.70
-3.79
-5.85
-7.94
-10.18
-12.67
-15.45
-18.54
-21.86
-25.24
-28.32
-30.57
-31.34
-30.14
-26.77
-21.46
-14.82
-7.65
-0.70
5.52
10.76
14.93
18.04
20.07
21.04
21.03
20.26
19.01
17.60
16.30
15.27
14.60
14.26
14.19
14.31
14.55
14.82
15.07
15.17
14.95
14.17
12.63
10.22
7.05
3.43
-0.20
-3.40
-5.86
-7.57
-8.76
-9.85
-11.26
-13.25
-15.74
-18.36
-20.44
-21.27
-20.26
-17.17
-12.18
-5.85
1.04
7.74
13.67
18.51
22.18
24.73
26.19
26.60
25.96
24.34
21.90
18.91
15.70
12.64
10.03
8.12
6.96
6.40
6.11
5.70
4.84
3.46
1.75
0.08
-1.14
-1.60
-1.17
0.10
1.94
3.85
5.13
4.97
2.70
-1.98
-8.73
-16.61
-24.25
-30.26
-33.61
-33.83
-31.06
-25.93
-19.30
-12.11
-5.17
0.86
5.56
8.71
10.32
10.62
9.92
8.63
7.11
5.61
4.26
3.09
2.13
1.40
1.00
1.01
1.44
2.21
3.11
3.85
4.21
4.08
3.53
2.73
1.82
0.91
-0.10
-1.38
-3.09
-5.34
-8.06
-11.05
-13.99
-16.50
-18.15
-18.52
-17.30
-14.38
-9.95
-4.49
1.27
6.61
10.95
14.01
15.77
16.39
16.03
14.83
12.95
10.62
8.20
6.12
4.72
4.13
4.20
4.63
5.05
5.19
4.94
4.30
3.33
2.07
0.56
-1.14
-2.95
-4.80
-6.66
-8.56
-10.62
-13.00
-15.75
-18.76
-21.72
-24.09
-25.28
-24.80
-22.42
-18.24
-12.70
-6.48
-0.34
5.09
9.33
12.19
13.69
14.03
13.48
12.32
10.78
9.07
7.41
6.00
5.06
4.69
4.89
5.51
6.29
7.00
7.44
7.52
7.19
6.45
5.27
3.64
1.58
-0.81
-3.38
-6.00
-8.58
-11.13
-13.71
-16.38
-19.12
-21.70
-23.71
-24.60
-23.83
-21.08
-16.35
-10.03
-2.83
4.40
10.88
16.05
19.62
21.64
22.36
22.16
21.43
20.46
19.39
18.24
16.97
15.60
14.16
12.75
11.40
10.09
8.75
7.31
5.79
4.22
2.63
0.98
-0.84
-2.98
-5.46
-8.17
-10.95
-13.63
-16.23
-18.89
-21.77
-24.83
-27.74
-29.87
-30.51
-29.11
-25.53
-20.13
-13.68
-7.09
-1.20
3.48
6.78
8.88
10.08
10.74
11.08
11.27
11.39
11.56
11.83
12.25
12.75
13.13
13.18
12.74
11.82
10.58
9.26
8.04
6.96
5.89
4.66
3.12
1.24
-0.87
-3.04
-5.15
-7.15
-9.14
-11.27
-13.71
-16.52
-19.58
-22.55
-24.91
-26.07
-25.56
-23.18
-19.08
-13.76
-7.87
-2.09
3.08
7.41
10.87
13.57
15.62
17.02
17.75
17.74
17.06
15.87
14.43
13.02
11.82
10.92
10.28
9.85
9.56
9.41
9.38
9.42
9.42
9.21
8.67
7.74
6.50
5.11
3.75
2.53
1.41
0.28
-1.03
-2.67
-4.66
-6.88
-9.14
-11.14
-12.51
-12.87
-11.88
-9.39
-5.52
-0.71
4.38
9.08
12.90
15.70
17.60
18.92
19.87
20.51
20.67
20.18
18.92
17.00
14.75
12.58
10.86
9.81
9.44
9.62
10.14
10.80
11.44
11.92
12.13
12.03
11.60
10.92
10.08
9.15
8.13
6.93
5.42
3.53
1.26
-1.30
-4.04
-6.82
-9.61
-12.41
-15.26
-18.24
-21.39
-24.64
-27.78
-30.39
-31.92
-31.81
-29.67
-25.44
-19.44
-12.30
-4.83
2.20
8.17
12.77
15.93
17.81
18.70
18.87
18.52
17.77
16.62
15.14
13.41
11.64
10.04
8.76
7.85
7.21
6.74
6.29
5.79
5.16
4.32
3.17
1.63
-0.33
-2.65
-5.15
-7.61
-9.84
-11.73
-13.35
-14.85
-16.46
-18.38
-20.62
-22.98
-25.01
-26.15
-25.88
-23.93
-20.38
-15.61
-10.16
-4.56
0.75
5.45
9.37
12.35
14.35
15.37
15.53
15.07
14.18
13.09
11.89
10.65
9.40
8.18
7.07
6.16
5.48
5.01
4.67
4.28
3.66
2.65
1.23
-0.50
-2.32
-4.00
-5.40
-6.55
-7.62
-8.88
-10.57
-12.82
-15.62
-18.72
-21.76
-24.22
-25.57
-25.37
-23.39
-19.68
-14.62
-8.82
-2.99
2.24
6.44
9.44
11.26
12.06
12.03
11.36
10.23
8.82
7.29
5.80
4.44
3.27
2.27
1.44
0.78
0.32
0.06
-0.06
-0.21
-0.62
-1.48
-2.82
-4.55
-6.41
-8.16
-9.67
-11.00
-12.35
-14.01
-16.14
-18.79
-21.81
-24.83
-27.37
-28.85
-28.78
-26.85
-23.11
-17.95
-12.00
-5.94
-0.35
4.46
8.43
11.58
13.96
15.57
16.40
16.51
16.06
15.33
14.57
13.96
13.54
13.20
12.82
12.34
11.77
11.21
10.73
10.29
9.76
8.94
7.68
5.92
3.69
1.09
-1.72
-4.58
-7.32
-9.83
-12.07
-14.16
-16.30
-18.77
-21.73
-25.13
-28.61
-31.55
-33.23
-33.04
-30.69
-26.30
-20.32
-13.44
-6.37
0.31
6.20
11.05
14.77
17.32
18.74
19.13
18.71
17.76
16.59
15.45
14.50
13.79
13.29
12.89
12.50
12.02
11.42
10.72
10.00
9.35
8.79
8.24
7.52
6.40
4.73
2.55
0.03
-2.50
-4.78
-6.68
-8.28
-9.78
-11.44
-13.47
-15.98
-18.92
-22.03
-24.88
-26.88
-27.40
-25.94
-22.35
-16.85
-10.05
-2.74
4.25
10.30
15.02
18.27
20.13
20.80
20.54
19.69
18.53
17.30
16.13
15.06
14.07
13.12
12.20
11.29
10.41
9.57
8.79
8.09
7.45
6.84
6.19
5.36
4.19
2.59
0.58
-1.65
-3.87
-5.81
-7.39
-8.70
-9.99
-11.60
-13.80
-16.67
-20.08
-23.68
-26.95
-29.34
-30.30
-29.47
-26.70
-22.14
-16.22
-9.56
-2.82
3.45
8.82
13.10
16.25
18.34
19.48
19.77
19.33
18.28
16.79
15.06
13.32
11.74
10.43
9.45
8.79
8.38
8.13
7.91
7.57
6.96
5.99
4.60
2.86
0.89
-1.14
-3.11
-4.94
-6.67
-8.40
-10.32
-12.59
-15.27
-18.30
-21.34
-23.89
-25.32
-25.05
-22.78
-18.58
-12.88
-6.36
0.23
6.25
11.26
15.04
17.55
18.89
19.25
18.88
18.02
16.87
15.56
14.17
12.76
11.41
10.21
9.22
8.45
7.85
7.30
6.74
6.06
5.20
4.08
2.61
0.71
-1.56
-4.10
-6.67
-9.09
-11.26
-13.23
-15.19
-17.43
-20.14
-23.31
-26.62
-29.44
-30.98
-30.55
-27.79
-22.85
-16.33
-9.10
-1.97
4.46
9.89
14.21
17.37
19.33
20.09
19.78
18.70
17.24
15.77
14.50
13.45
12.50
11.54
10.55
9.61
8.88
8.42
8.25
8.20
8.07
7.59
6.55
4.88
2.67
0.15
-2.40
-4.74
-6.80
-8.71
-10.70
-13.06
-15.94
-19.30
-22.85
-26.09
-28.40
-29.20
-28.05
-24.86
-19.84
-13.52
-6.58
0.28
6.50
11.73
15.77
18.52
19.98
20.19
19.30
17.61
15.49
13.38
11.60
10.33
9.54
9.09
8.80
8.54
8.27
7.99
7.67
7.23
6.56
5.56
4.23
2.61
0.80
-1.10
-3.03
-4.99
-6.99
-9.05
-11.24
-13.65
-16.32
-19.20
-22.00
-24.16
-25.03
-24.05
-20.95
-15.92
-9.49
-2.42
4.52
10.69
15.66
19.19
21.20
21.78
21.14
19.61
17.55
15.30
13.14
11.24
9.74
8.66
8.00
7.65
7.45
7.17
6.62
5.70
4.41
2.85
1.17
-0.51
-2.13
-3.72
-5.38
-7.22
-9.36
-11.84
-14.63
-17.57
-20.33
-22.47
-23.46
-22.83
-20.37
-16.17
-10.69
-4.62
1.34
6.62
10.87
13.99
16.04
17.10
17.26
16.60
15.25
13.40
11.37
9.50
8.10
7.33
7.18
7.48
7.98
8.41
8.60
8.49
8.06
7.32
6.30
4.98
3.38
1.54
-0.49
-2.68
-4.99
-7.48
-10.19
-13.16
-16.29
-19.28
-21.65
-22.81
-22.22
-19.64
-15.19
-9.42
-3.12
2.89
7.97
11.78
14.22
15.37
15.39
14.47
12.84
10.81
8.77
7.07
5.98
5.53
5.60
5.90
6.15
6.10
5.66
4.86
3.77
2.51
1.13
-0.31
-1.78
-3.24
-4.70
-6.18
-7.78
-9.64
-11.91
-14.65
-17.80
-21.02
-23.79
-25.42
-25.32
-23.15
-19.00
-13.36
-7.05
-0.87
4.57
9.02
12.53
15.33
17.56
19.23
20.22
20.38
19.66
18.26
16.50
14.81
13.49
12.66
12.23
12.01
11.80
11.47
10.99
10.33
9.47
8.28
6.68
4.63
2.22
-0.34
-2.80
-5.02
-7.08
-9.21
-11.70
-14.69
-18.04
-21.28
-23.73
-24.69
-23.71
-20.68
-15.90
-9.95
-3.53
2.73
8.32
12.97
16.55
19.10
20.69
21.46
21.52
21.01
20.10
18.99
17.88
16.94
16.24
15.74
15.32
14.85
14.28
13.60
12.85
12.07
11.25
10.34
9.27
8.01
6.50
4.75
2.77
0.59
-1.69
-3.96
-6.11
-8.06
-9.83
-11.51
-13.26
-15.21
-17.47
-20.05
-22.86
-25.68
-28.17
-29.87
-30.31
-29.11
-26.10
-21.45
-15.64
-9.36
-3.27
2.15
6.65
10.21
12.90
14.77
15.82
16.07
15.56
14.46
13.01
11.38
9.72
8.06
6.40
4.77
3.25
1.96
1.03
0.51
0.30
0.24
0.09
-0.31
-0.97
-1.71
-2.22
-2.13
-1.26
0.33
2.37
4.48
6.42
8.13
9.69
11.14
12.35
12.98
12.62
10.95
7.88
3.57
-1.67
-7.47
-13.38
-18.90
-23.44
-26.35
-27.12
-25.54
-21.83
-16.59
-10.59
-4.56
0.98
5.81
9.91
13.34
16.15
18.31
19.81
20.69
21.09
21.25
21.39
21.63
21.89
22.02
21.82
21.19
20.16
18.85
17.43
15.99
14.55
13.04
11.40
9.55
7.47
5.21
2.83
0.39
-2.05
-4.46
-6.86
-9.28
-11.77
-14.39
-17.19
-20.19
-23.35
-26.54
-29.46
-31.70
-32.76
-32.25
-30.01
-26.15
-21.12
-15.51
-9.95
-4.95
-0.81
2.37
4.61
6.01
6.68
6.66
6.00
4.77
3.08
1.12
-0.87
-2.64
-4.02
-4.92
-5.40
-5.55
-5.48
-5.20
-4.67
-3.93
-3.07
-2.33
-2.03
-2.40
-3.46
-5.01
-6.66
-8.05
-8.99
-9.51
-9.84
-10.22
-10.83
-11.70
-12.78
-13.97
-15.08
-15.83
-15.83
-14.70
-12.19
-8.31
-3.42
1.90
7.05
11.52
15.02
17.46
18.85
19.31
19.00
18.15
17.01
15.84
14.78
13.89
13.16
12.57
12.11
11.78
11.53
11.22
10.74
9.98
8.97
7.79
6.56
5.33
4.05
2.60
0.88
-1.15
-3.44
-5.82
-8.10
-10.10
-11.72
-12.92
-13.81
-14.56
-15.35
-16.31
-17.48
-18.80
-20.21
-21.58
-22.74
-23.41
-23.17
-21.63
-18.56
-14.06
-8.63
-2.99
2.16
6.37
9.49
11.62
12.92
13.54
13.58
13.15
12.41
11.60
10.92
10.44
10.14
9.93
9.71
9.45
9.20
9.04
8.99
9.00
8.96
8.73
8.18
7.28
6.07
4.64
3.12
1.62
0.15
-1.26
-2.63
-3.93
-5.17
-6.37
-7.57
-8.84
-10.20
-11.68
-13.28
-15.05
-17.03
-19.18
-21.28
-22.93
-23.59
-22.80
-20.35
-16.43
-11.51
-6.25
-1.20
3.24
6.85
9.51
11.16
11.78
11.47
10.43
9.00
7.51
6.28
5.44
5.03
5.02
5.28
5.70
6.12
6.42
6.46
6.23
5.74
5.15
4.55
4.02
3.52
2.88
1.98
0.75
-0.73
-2.26
-3.61
-4.63
-5.35
-5.92
-6.61
-7.66
-9.21
-11.22
-13.46
-15.52
-16.95
-17.30
-16.31
-13.91
-10.32
-5.95
-1.29
3.21
7.19
10.47
12.96
14.65
15.53
15.63
15.04
13.91
12.47
10.97
9.65
8.67
8.08
7.79
7.66
7.53
7.29
6.95
6.59
6.34
6.28
6.37
6.44
6.21
5.43
3.95
1.82
-0.77
-3.52
-6.10
-8.30
-10.06
-11.48
-12.79
-14.28
-16.15
-18.51
-21.25
-24.08
-26.56
-28.25
-28.73
-27.81
-25.49
-22.00
-17.74
-13.18
-8.74
-4.81
-1.62
0.64
1.88
2.07
1.25
-0.43
-2.73
-5.33
-7.86
-9.88
-11.02
-11.01
-9.80
-7.60
-4.79
-1.83
0.89
3.19
5.09
6.75
8.32
9.86
11.31
12.49
13.25
13.48
13.18
12.40
11.28
9.91
8.39
6.74
4.92
2.82
0.34
-2.57
-5.80
-8.96
-11.54
-12.96
-12.79
-10.91
-7.58
-3.32
1.25
5.60
9.39
12.47
14.82
16.41
17.24
17.31
16.70
15.59
14.27
13.07
12.25
11.97
12.19
12.74
13.34
13.72
13.72
13.33
12.66
11.91
11.24
10.68
10.14
9.43
8.37
6.89
5.08
3.12
1.21
-0.53
-2.12
-3.71
-5.48
-7.59
-10.07
-12.85
-15.67
-18.18
-19.94
-20.51
-19.55
-16.90
-12.68
-7.28
-1.29
4.67
10.04
14.42
17.60
19.51
20.18
19.74
18.40
16.43
14.18
11.98
10.18
9.00
8.54
8.73
9.39
10.21
10.93
11.40
11.59
11.61
11.57
11.49
11.23
10.55
9.20
7.09
4.29
1.09
-2.17
-5.21
-7.92
-10.42
-12.93
-15.74
-18.99
-22.66
-26.57
-30.42
-33.78
-36.21
-37.27
-36.59
-34.02
-29.69
-24.05
-17.73
-11.42
-5.68
-0.84
2.97
5.77
7.64
8.67
9.00
8.77
8.18
7.42
6.67
6.04
5.60
5.42
5.51
5.86
6.40
7.05
7.63
7.98
7.94
7.40
6.36
4.89
3.16
1.37
-0.30
-1.76
-3.07
-4.39
-5.96
-7.99
-10.60
-13.69
-16.93
-19.79
-21.67
-22.03
-20.55
-17.23
-12.40
-6.67
-0.72
4.83
9.57
13.38
16.28
18.39
19.78
20.43
20.33
19.53
18.22
16.72
15.38
14.42
13.89
13.62
13.36
12.91
12.24
11.43
10.65
9.98
9.34
8.55
7.37
5.65
3.44
0.90
-1.67
-4.04
-6.09
-7.81
-9.33
-10.78
-12.35
-14.20
-16.43
-19.04
-21.88
-24.60
-26.71
-27.64
-26.95
-24.45
-20.26
-14.76
-8.54
-2.17
3.82
9.06
13.30
16.43
18.45
19.44
19.55
18.96
17.86
16.41
14.75
13.06
11.51
10.26
9.39
8.88
8.62
8.49
8.39
8.24
7.97
7.47
6.64
5.40
3.79
2.01
0.29
-1.16
-2.30
-3.27
-4.26
-5.46
-6.89
-8.52
-10.21
-11.89
-13.58
-15.35
-17.30
-19.42
-21.56
-23.33
-24.16
-23.43
-20.63
-15.63
-8.76
-0.78
7.33
14.62
20.48
24.67
27.26
28.50
28.68
28.04
26.79
25.17
23.42
21.71
20.06
18.36
16.40
14.04
11.31
8.43
5.75
3.55
1.98
0.96
0.24
-0.48
-1.45
-2.81
-4.54
-6.54
-8.64
-10.68
-12.55
-14.19
-15.67
-17.08
-18.59
-20.36
-22.53
-25.20
-28.33
-31.70
-34.89
-37.26
-38.15
-37.07
-33.87
-28.86
-22.65
-15.97
-9.47
-3.56
1.61
5.98
9.53
12.22
13.96
14.75
14.70
14.11
13.35
12.75
12.54
12.75
13.24
13.79
14.22
14.43
14.43
14.30
14.09
13.79
13.34
12.65
11.66
10.38
8.86
7.20
5.46
3.67
1.87
0.07
-1.71
-3.48
-5.26
-7.13
-9.11
-11.22
-13.47
-15.84
-18.31
-20.81
-23.15
-24.95
-25.75
-25.08
-22.67
-18.63
-13.38
-7.54
-1.77
3.45
7.88
11.43
14.13
16.00
17.07
17.43
17.21
16.62
15.87
15.14
14.56
14.16
13.95
13.90
13.99
14.19
14.47
14.77
15.00
15.05
14.76
14.00
12.70
10.93
8.87
6.79
4.92
3.43
2.33
1.44
0.51
-0.78
-2.69
-5.34
-8.63
-12.32
-16.05
-19.49
-22.46
-24.91
-26.81
-28.06
-28.38
-27.38
-24.80
-20.68
-15.40
-9.62
-3.96
1.13
5.53
9.26
12.36
14.77
16.33
16.92
16.59
15.61
14.31
13.01
11.84
10.78
9.72
8.59
7.35
6.06
4.80
3.65
2.68
1.93
1.41
1.07
0.74
0.22
-0.64
-1.89
-3.42
-5.02
-6.51
-7.83
-9.05
-10.30
-11.79
-13.63
-15.89
-18.54
-21.37
-24.05
-26.08
-26.85
-25.83
-22.70
-17.49
-10.62
-2.86
4.90
11.84
17.39
21.32
23.71
24.85
25.12
24.85
24.27
23.51
22.66
21.81
21.07
20.53
20.20
19.99
19.73
19.20
18.30
17.01
15.40
13.58
11.61
9.51
7.20
4.62
1.76
-1.31
-4.44
-7.44
-10.13
-12.41
-14.23
-15.57
-16.44
-16.84
-16.75
-16.20
-15.32
-14.36
-13.71
-13.77
-14.75
-16.55
-18.75
-20.69
-21.71
-21.41
-19.78
-17.12
-13.96
-10.78
-7.92
-5.57
-3.81
-2.69
-2.24
-2.45
-3.18
-4.21
-5.28
-6.17
-6.80
-7.16
-7.31
-7.28
-7.06
-6.62
-5.97
-5.16
-4.31
-3.58
-3.10
-2.94
-3.11
-3.60
-4.36
-5.39
-6.67
-8.18
-9.87
-11.68
-13.50
-15.22
-16.71
-17.85
-18.55
-18.85
-18.94
-19.11
-19.61
-20.46
-21.38
-21.73
-20.77
-17.97
-13.18
-6.76
0.64
8.26
15.44
21.80
27.16
31.50
34.88
37.35
38.96
39.74
39.74
38.95
37.47
35.44
33.11
30.78
28.66
26.82
25.17
23.57
21.93
20.29
18.79
17.55
16.61
15.83
14.99
13.86
12.31
10.35
8.04
5.49
2.77
-0.07
-3.02
-6.05
-9.11
-12.15
-15.14
-18.05
-20.82
-23.28
-25.16
-26.09
-25.69
-23.77
-20.39
-15.87
-10.74
-5.52
-0.62
3.80
7.68
11.05
13.85
15.94
17.17
17.46
16.86
15.62
14.06
12.57
11.43
10.74
10.46
10.40
10.36
10.19
9.85
9.37
8.73
7.90
6.83
5.46
3.83
2.02
0.18
-1.59
-3.20
-4.63
-5.88
-6.98
-8.10
-9.44
-11.27
-13.72
-16.71
-19.86
-22.61
-24.36
-24.66
-23.33
-20.48
-16.44
-11.69
-6.73
-1.97
2.31
5.97
8.99
11.38
13.16
14.28
14.72
14.51
13.82
12.87
11.95
11.20
10.66
10.26
9.86
9.40
8.88
8.40
8.02
7.78
7.55
7.15
6.39
5.13
3.40
1.38
-0.72
-2.69
-4.41
-5.95
-7.43
-9.03
-10.89
-13.09
-15.62
-18.42
-21.24
-23.71
-25.32
-25.53
-24.00
-20.70
-15.95
-10.33
-4.48
1.08
6.08
10.37
13.90
16.56
18.25
18.90
18.61
17.64
16.35
15.09
14.05
13.27
12.67
12.14
11.62
11.12
10.69
10.36
10.07
9.68
9.01
7.91
6.32
4.31
2.00
-0.41
-2.74
-4.87
-6.74
-8.40
-9.96
-11.61
-13.48
-15.69
-18.21
-20.89
-23.41
-25.34
-26.17
-25.53
-23.21
-19.31
-14.21
-8.50
-2.84
2.18
6.18
9.07
11.00
12.24
13.06
13.62
13.94
13.98
13.73
13.27
12.75
12.34
12.14
12.14
12.25
12.34
12.31
12.11
11.72
11.17
10.45
9.57
8.53
7.28
5.81
4.10
2.16
0.10
-1.97
-3.91
-5.65
-7.17
-8.51
-9.77
-11.09
-12.66
-14.64
-17.14
-20.08
-23.20
-25.94
-27.65
-27.72
-25.80
-21.98
-16.72
-10.73
-4.71
0.82
5.59
9.51
12.58
14.79
16.13
16.65
16.50
15.91
15.15
14.43
13.88
13.54
13.39
13.43
13.59
13.82
13.99
14.02
13.79
13.27
12.48
11.47
10.30
8.98
7.55
6.03
4.48
3.01
1.70
0.57
-0.51
-1.68
-3.10
-4.78
-6.57
-8.22
-9.48
-10.28
-10.73
-11.14
-11.81
-13.02
-14.87
-17.28
-19.95
-22.42
-24.10
-24.39
-22.90
-19.53
-14.63
-8.84
-2.92
2.49
7.02
10.54
13.11
14.82
15.73
15.89
15.37
14.35
13.09
11.84
10.82
10.15
9.85
9.86
10.06
10.29
10.41
10.29
9.89
9.25
8.47
7.63
6.77
5.84
4.77
3.52
2.14
0.69
-0.72
-2.06
-3.34
-4.63
-5.91
-7.12
-8.17
-9.04
-9.77
-10.51
-11.45
-12.73
-14.37
-16.29
-18.24
-19.92
-20.94
-20.95
-19.70
-17.10
-13.32
-8.71
-3.78
0.99
5.21
8.63
11.19
12.93
13.91
14.25
14.08
13.57
12.90
12.24
11.70
11.35
11.21
11.29
11.60
12.12
12.81
13.59
14.35
14.96
15.26
15.08
14.28
12.78
10.64
8.07
5.39
2.92
0.85
-0.83
-2.31
-3.84
-5.63
-7.73
-10.04
-12.37
-14.46
-16.13
-17.30
-18.10
-18.78
-19.67
-21.01
-22.87
-25.01
-26.95
-28.10
-27.99
-26.38
-23.38
-19.39
-14.99
-10.81
-7.33
-4.83
-3.33
-2.65
-2.46
-2.46
-2.48
-2.42
-2.33
-2.23
-2.16
-2.06
-1.90
-1.61
-1.07
-0.06
1.72
4.62
8.81
14.18
20.22
26.15
31.11
34.44
35.81
35.29
33.11
29.55
24.79
19.00
12.37
5.26
-1.87
-8.63
-14.87
-20.73
-26.59
-32.77
-39.33
-45.93
-51.91
-56.59
-59.60
-61.10
-61.73
-62.30
-63.40
-65.03
-66.58
-67.06
-65.44
-61.09
-53.96
-44.47
-33.41
-21.62
-9.89
1.14
11.01
19.51
26.69
32.88
38.55
44.14
49.87
55.66
61.11
65.72
68.96
70.42
69.83
66.99
61.82
54.38
45.04
34.64
24.44
15.92
10.22
7.70
7.71
8.72
8.97
7.18
3.04
-2.77
-8.94
-14.21
-17.84
-19.81
-20.64
-20.98
-21.37
-22.04
-23.01
-24.18
-25.39
-26.48
-27.22
-27.32
-26.49
-24.53
-21.46
-17.53
-13.22
-9.11
-5.77
-3.55
-2.55
-2.61
-3.41
-4.59
-5.84
-7.00
-8.04
-9.04
-10.15
-11.51
-13.18
-15.10
-17.01
-18.50
-19.16
-18.69
-17.06
-14.50
-11.41
-8.17
-5.04
-2.12
0.64
3.27
5.81
8.20
10.40
12.37
14.15
15.75
17.22
18.53
19.66
20.60
21.35
21.92
22.31
22.46
22.25
21.58
20.42
18.94
17.39
16.02
14.98
14.26
13.82
13.68
14.03
15.12
17.09
19.81
22.80
25.44
27.13
27.55
26.62
24.52
21.57
18.14
14.61
11.37
8.69
6.63
5.00
3.41
1.46
-1.16
-4.57
-8.68
-13.33
-18.27
-23.19
-27.72
-31.49
-34.29
-36.11
-37.26
-38.20
-39.35
-40.85
-42.50
-43.77
-43.95
-42.37
-38.61
-32.64
-24.84
-15.96
-6.97
1.14
7.62
12.12
14.71
15.73
15.62
14.70
13.09
10.83
7.96
4.69
1.41
-1.38
-3.25
-3.96
-3.49
-2.00
0.26
2.98
5.93
8.90
11.71
14.21
16.23
17.57
18.06
17.53
15.99
13.63
10.79
7.89
5.21
2.76
0.39
-2.11
-4.77
-7.23
-8.89
-9.13
-7.56
-4.18
0.58
6.12
11.83
17.29
22.24
26.55
30.14
32.90
34.73
35.52
35.27
34.07
32.13
29.74
27.21
24.79
22.72
21.16
20.26
20.06
20.52
21.44
22.42
22.98
22.74
21.53
19.50
17.09
14.79
12.89
11.36
9.84
7.76
4.63
0.26
-5.18
-11.20
-17.13
-22.34
-26.39
-29.03
-30.27
-30.35
-29.64
-28.67
-27.94
-27.81
-28.38
-29.44
-30.54
-31.18
-31.00
-29.97
-28.47
-27.16
-26.71
-27.53
-29.59
-32.39
-35.26
-37.54
-38.87
-39.26
-38.92
-38.17
-37.31
-36.53
-35.96
-35.65
-35.52
-35.38
-34.92
-33.82
-31.84
-28.91
-25.12
-20.70
-15.91
-10.96
-6.01
-1.11
3.79
8.84
14.27
20.33
27.19
34.76
42.63
50.17
56.68
61.65
64.94
66.74
67.38
66.99
65.36
62.01
56.50
48.81
39.55
29.85
21.05
14.25
10.01
8.31
8.59
9.95
11.33
11.64
9.95
5.66
-1.26
-10.14
-19.68
-28.22
-34.32
-37.20
-36.95
-34.47
-30.99
-27.47
-24.28
-21.18
-17.66
-13.40
-8.58
-3.81
0.22
3.18
5.23
6.92
8.76
10.98
13.28
15.05
15.66
14.79
12.59
9.65
6.83
4.89
4.33
5.13
6.83
8.64
9.74
9.57
7.97
5.14
1.48
-2.52
-6.49
-10.03
-12.80
-14.46
-14.84
-14.06
-12.51
-10.77
-9.31
-8.27
-7.41
-6.20
-4.14
-0.93
3.34
8.27
13.30
17.91
21.67
24.31
25.76
26.09
25.54
24.44
23.18
22.11
21.41
21.09
20.94
20.66
19.90
18.40
16.11
13.21
10.07
7.11
4.65
2.74
1.24
-0.19
-1.81
-3.77
-6.09
-8.69
-11.54
-14.65
-17.96
-21.23
-24.00
-25.62
-25.53
-23.48
-19.71
-14.85
-9.75
-5.16
-1.50
1.15
2.94
4.11
4.82
5.14
5.06
4.59
3.76
2.67
1.48
0.38
-0.44
-0.82
-0.69
-0.13
0.67
1.37
1.68
1.43
0.62
-0.56
-1.85
-3.03
-4.00
-4.84
-5.69
-6.66
-7.77
-8.94
-10.04
-10.92
-11.44
-11.43
-10.63
-8.79
-5.75
-1.62
3.16
7.98
12.24
15.58
18.00
19.71
21.02
22.09
22.94
23.49
23.69
23.63
23.49
23.44
23.50
23.53
23.31
22.66
21.52
19.95
18.10
16.07
13.88
11.49
8.86
5.99
2.99
0.03
-2.75
-5.34
-7.91
-10.76
-14.18
-18.29
-22.89
-27.44
-31.14
-33.17
-32.95
-30.35
-25.78
-20.05
-14.16
-9.02
-5.20
-2.81
-1.58
-1.05
-0.77
-0.50
-0.16
0.14
0.30
0.28
0.12
-0.15
-0.51
-1.04
-1.81
-2.88
-4.18
-5.54
-6.80
-7.79
-8.49
-8.95
-9.28
-9.53
-9.68
-9.69
-9.55
-9.34
-9.25
-9.53
-10.38
-11.84
-13.80
-15.92
-17.77
-18.79
-18.53
-16.75
-13.53
-9.34
-4.87
-0.81
2.33
4.38
5.44
5.78
5.65
5.19
4.45
3.39
1.97
0.13
-2.12
-4.67
-7.25
-9.39
-10.56
-10.36
-8.77
-6.14
-3.14
-0.43
1.55
2.72
3.35
3.86
4.59
5.73
7.30
9.11
10.87
12.21
12.68
11.95
9.90
6.79
3.21
0.01
-1.97
-2.16
-0.46
2.76
6.76
10.75
14.08
16.52
18.24
19.68
21.30
23.39
25.93
28.66
31.20
33.31
34.80
35.58
35.51
34.38
32.00
28.31
23.51
18.05
12.51
7.42
3.08
-0.44
-3.34
-5.87
-8.26
-10.67
-13.09
-15.46
-17.65
-19.49
-20.89
-21.83
-22.47
-23.06
-23.93
-25.32
-27.25
-29.42
-31.22
-31.97
-31.08
-28.34
-23.95
-18.49
-12.72
-7.37
-3.00
0.12
1.91
2.47
1.98
0.66
-1.22
-3.33
-5.33
-6.93
-7.95
-8.37
-8.27
-7.82
-7.16
-6.40
-5.58
-4.77
-4.06
-3.59
-3.54
-3.95
-4.75
-5.72
-6.59
-7.15
-7.37
-7.38
-7.48
-7.97
-9.04
-10.70
-12.76
-14.88
-16.64
-17.63
-17.56
-16.30
-13.93
-10.75
-7.13
-3.50
-0.20
2.52
4.57
5.99
6.90
7.44
7.75
7.91
7.94
7.85
7.66
7.45
7.34
7.43
7.76
8.33
9.08
9.93
10.82
11.60
12.10
12.10
11.46
10.11
8.23
6.06
3.94
2.08
0.54
-0.86
-2.43
-4.54
-7.44
-11.22
-15.64
-20.25
-24.38
-27.36
-28.63
-27.92
-25.26
-21.00
-15.69
-9.96
-4.40
0.50
4.49
7.45
9.43
10.56
10.99
10.89
10.38
9.59
8.61
7.49
6.25
4.84
3.17
1.28
-0.69
-2.51
-3.92
-4.77
-5.11
-5.19
-5.30
-5.68
-6.43
-7.48
-8.69
-9.94
-11.20
-12.53
-14.03
-15.76
-17.76
-20.02
-22.48
-25.03
-27.44
-29.37
-30.38
-30.04
-28.09
-24.53
-19.65
-13.99
-8.15
-2.69
1.98
5.67
8.32
9.99
10.83
10.96
10.55
9.72
8.57
7.22
5.81
4.49
3.43
2.74
2.45
2.49
2.76
3.10
3.35
3.37
3.00
2.14
0.76
-1.09
-3.22
-5.43
-7.54
-9.48
-11.35
-13.36
-15.72
-18.49
-21.41
-23.90
-25.23
-24.69
-21.94
-17.12
-10.84
-3.98
2.60
8.29
12.81
16.19
18.55
20.04
20.74
20.74
20.14
19.12
17.91
16.69
15.60
14.75
14.20
13.99
14.10
14.42
14.73
14.75
14.27
13.19
11.55
9.50
7.18
4.70
2.09
-0.66
-3.54
-6.63
-10.02
-13.87
-18.29
-23.13
-27.90
-31.77
-33.75
-33.09
-29.53
-23.40
-15.56
-7.05
1.16
8.38
14.27
18.74
21.85
23.74
24.60
24.68
24.25
23.58
22.86
22.22
21.65
21.09
20.47
19.73
18.90
18.04
17.25
16.53
15.80
14.92
13.70
12.04
9.92
7.43
4.70
1.81
-1.24
-4.57
-8.24
-12.22
-16.20
-19.66
-21.88
-22.27
-20.47
-16.50
-10.79
-4.02
3.07
9.82
15.76
20.59
24.20
26.58
27.84
28.16
27.80
26.99
25.95
24.80
23.60
22.35
21.07
19.77
18.59
17.63
16.97
16.57
16.24
15.73
14.82
13.43
11.61
9.49
7.19
4.76
2.19
-0.58
-3.60
-6.90
-10.49
-14.32
-18.21
-21.71
-24.18
-24.88
-23.26
-19.18
-12.97
-5.40
2.59
10.17
16.76
22.08
26.08
28.81
30.33
30.73
30.12
28.70
26.74
24.57
22.43
20.52
18.85
17.40
16.10
14.93
13.91
13.12
12.60
12.33
12.14
11.82
11.11
9.88
8.17
6.15
4.08
2.18
0.55
-0.92
-2.49
-4.47
-7.14
-10.61
-14.82
-19.41
-23.80
-27.28
-29.20
-29.15
-27.15
-23.65
-19.32
-14.82
-10.56
-6.67
-3.05
0.41
3.76
6.89
9.64
11.88
13.62
14.99
16.11
17.07
17.83
18.27
18.29
17.89
17.21
16.46
15.82
15.40
15.12
14.81
14.28
13.35
11.98
10.21
8.19
6.12
4.19
2.55
1.21
0.07
-1.10
-2.55
-4.49
-6.97
-9.87
-12.82
-15.35
-16.93
-17.17
-15.88
-13.19
-9.48
-5.30
-1.20
2.40
5.24
7.30
8.66
9.48
9.90
10.02
9.89
9.51
8.93
8.21
7.44
6.72
6.15
5.75
5.50
5.34
5.19
4.98
4.71
4.40
4.09
3.77
3.40
2.88
2.14
1.11
-0.16
-1.59
-3.07
-4.55
-6.02
-7.48
-8.92
-10.31
-11.66
-13.03
-14.63
-16.67
-19.23
-22.10
-24.75
-26.46
-26.55
-24.69
-21.04
-16.16
-10.81
-5.67
-1.17
2.52
5.42
7.59
9.07
9.89
10.10
9.83
9.21
8.42
7.61
6.88
6.32
5.96
5.78
5.67
5.55
5.30
4.88
4.31
3.63
2.85
1.93
0.78
-0.70
-2.54
-4.70
-6.96
-9.06
-10.70
-11.67
-11.95
-11.71
-11.28
-11.07
-11.40
-12.47
-14.27
-16.60
-19.13
-21.38
-22.87
-23.16
-22.00
-19.41
-15.71
-11.43
-7.17
-3.43
-0.46
1.66
3.08
3.92
4.27
4.18
3.69
2.91
2.04
1.33
0.96
1.02
1.43
2.01
2.60
3.11
3.57
4.04
4.53
4.95
5.14
4.93
4.26
3.23
2.06
0.96
-0.00
-0.90
-1.96
-3.34
-5.07
-6.95
-8.67
-9.94
-10.65
-10.89
-10.92
-10.99
-11.32
-12.01
-13.09
-14.49
-16.03
-17.38
-18.08
-17.70
-15.98
-12.97
-9.06
-4.88
-1.03
2.08
4.29
5.70
6.48
6.81
6.79
6.42
5.70
4.68
3.51
2.46
1.82
1.76
2.30
3.22
4.16
4.75
4.72
4.02
2.80
1.33
-0.11
-1.39
-2.50
-3.58
-4.77
-6.21
-7.93
-9.88
-11.95
-13.98
-15.86
-17.52
-18.98
-20.40
-21.98
-23.86
-26.09
-28.45
-30.60
-32.06
-32.47
-31.56
-29.26
-25.66
-20.98
-15.57
-9.88
-4.43
0.31
4.03
6.66
8.38
9.48
10.26
10.89
11.38
11.64
11.56
11.13
10.42
9.62
8.91
8.47
8.31
8.39
8.50
8.44
8.04
7.23
6.02
4.51
2.75
0.77
-1.43
-3.88
-6.55
-9.37
-12.23
-15.04
-17.70
-20.14
-22.24
-23.94
-25.19
-26.03
-26.60
-27.07
-27.60
-28.28
-29.04
-29.66
-29.75
-28.82
-26.43
-22.37
-16.73
-9.99
-2.86
3.93
9.78
14.41
17.78
19.98
21.17
21.46
20.96
19.84
18.35
16.82
15.55
14.76
14.50
14.66
15.10
15.67
16.34
17.12
18.04
19.05
20.03
20.80
21.25
21.36
21.17
20.74
20.06
19.06
17.65
15.85
13.73
11.50
9.33
7.33
5.47
3.62
1.59
-0.81
-3.73
-7.20
-11.10
-15.10
-18.66
-21.15
-21.95
-20.74
-17.54
-12.76
-7.07
-1.15
4.40
9.19
12.99
15.67
17.17
17.55
17.03
15.96
14.73
13.66
12.88
12.37
11.98
11.64
11.30
11.01
10.83
10.76
10.76
10.75
10.62
10.32
9.81
9.09
8.18
7.13
6.01
4.90
3.87
2.94
2.11
1.34
0.54
-0.34
-1.37
-2.58
-4.00
-5.64
-7.53
-9.66
-11.88
-13.95
-15.41
-15.77
-14.63
-11.86
-7.67
-2.59
2.74
7.72
11.91
15.07
17.07
17.90
17.63
16.45
14.66
12.68
10.93
9.74
9.28
9.54
10.38
11.59
12.97
14.30
15.40
16.19
16.64
16.82
16.85
16.84
16.85
16.86
16.78
16.51
15.93
14.96
13.59
11.90
9.98
7.98
5.98
4.01
1.94
-0.48
-3.51
-7.31
-11.86
-16.86
-21.80
-26.05
-28.99
-30.17
-29.38
-26.72
-22.54
-17.38
-11.92
-6.77
-2.39
1.01
3.43
5.03
6.00
6.47
6.46
5.96
4.93
3.45
1.67
-0.17
-1.82
-3.14
-4.04
-4.55
-4.74
-4.70
-4.50
-4.15
-3.69
-3.19
-2.79
-2.68
-3.05
-3.96
-5.32
-6.93
-8.54
-9.98
-11.25
-12.49
-13.87
-15.56
-17.62
-20.07
-22.77
-25.46
-27.68
-28.81
-28.19
-25.36
-20.19
-12.96
-4.30
5.08
14.56
23.79
32.65
41.16
49.32
57.02
64.01
69.93
74.45
77.35
78.63
78.50
77.31
75.36
72.80
69.63
65.74
61.08
55.76
49.94
43.81
37.39
30.62
23.38
15.69
7.66
-0.53
-8.85
-17.49
-26.86
-37.44
-49.59
-63.43
-78.77
-95.24
-112.33
-129.40
-145.60
-159.87
-170.93
-177.49
-178.53
-173.50
-162.53
-146.44
-126.59
-104.60
-82.11
-60.45
-40.53
-22.81
-7.35
6.03
17.69
28.00
37.36
46.04
54.27
62.14
69.70
76.93
83.71
89.77
94.66
97.83
98.78
97.38
93.96
89.36
84.52
80.13
76.30
72.54
68.12
62.43
55.34
47.16
38.46
29.75
21.35
13.37
5.81
-1.29
-7.82
-13.64
-18.62
-22.73
-25.98
-28.48
-30.32
-31.57
-32.20
-32.15
-31.29
-29.60
-27.26
-24.68
-22.47
-21.24
-21.37
-22.91
-25.65
-29.22
-33.33
-37.89
-42.92
-48.48
-54.44
-60.36
-65.55
-69.22
-70.70
-69.57
-65.72
-59.31
-50.69
-40.34
-28.86
-16.95
-5.33
5.29
14.46
22.08
28.33
33.58
38.14
42.10
45.17
46.76
46.14
43.06
37.75
30.93
23.58
16.72
11.18
7.46
5.65
5.52
7.09
10.38
15.17
20.86
26.49
31.14
34.16
35.25
34.47
32.79
31.26
30.54
30.43
30.21
29.15
27.03
24.11
20.89
18.74
18.79
21.50
26.56
33.56
42.76
55.20
71.85
87.04
94.23
88.93
72.06
48.83
25.32
6.00
-7.04
-14.28
-17.88
-19.34
-19.26
-17.37
-13.51
-7.82
-1.65
3.44
6.08
5.44
2.10
-2.62
-7.04
-9.79
-10.13
-8.06
-4.32
-0.41
1.77
1.61
-1.19
-6.13
-12.12
-17.74
-21.54
-22.35
-19.69
-13.92
-5.86
3.16
11.61
17.95
20.87
19.63
14.46
6.47
-2.50
-10.40
-15.77
-18.19
-18.45
-18.12
-18.70
-20.72
-23.48
-25.38
-24.83
-21.06
-14.52
-6.58
1.22
7.83
12.90
16.51
18.62
18.84
16.53
11.40
3.92
-4.60
-12.56
-18.78
-22.98
-25.81
-28.17
-30.53
-32.56
-33.23
-31.51
-27.04
-20.44
-13.12
-6.55
-1.55
2.06
5.12
8.37
11.59
13.46
12.19
6.59
-3.09
-15.15
-27.21
-37.41
-45.16
-51.16
-56.65
-62.50
-68.59
-73.93
-77.24
-77.66
-75.23
-70.83
-65.81
-61.39
-58.18
-55.97
-53.79
-50.30
-44.37
-35.51
-24.20
-11.73
0.20
10.02
16.78
20.34
21.19
20.11
17.79
14.62
10.62
5.67
-0.23
-6.67
-12.83
-17.65
-20.29
-20.45
-18.60
-15.75
-13.07
-11.38
-10.85
-11.08
-11.46
-11.54
-11.35
-11.34
-12.18
-14.45
-18.53
-24.62
-32.79
-43.03
-55.04
-68.02
-80.53
-90.54
-95.93
-95.06
-87.28
-73.24
-54.75
-34.27
-14.12
4.14
20.14
34.48
48.21
62.04
75.90
88.91
99.77
107.38
111.29
111.87
110.11
107.24
104.34
102.04
100.37
98.74
96.17
91.63
84.44
74.50
62.35
48.82
34.84
21.29
9.16
-0.43
-6.36
-8.02
-5.82
-1.28
3.38
6.18
6.29
4.53
3.11
4.67
11.23
23.35
39.95
58.74
77.05
92.71
104.55
112.48
117.12
119.22
119.36
117.86
115.08
111.65
108.55
106.72
106.54
107.59
108.71
108.61
106.49
102.53
97.73
93.48
90.81
90.04
90.56
90.99
89.37
83.40
70.89
50.46
22.38
-10.94
-45.25
-75.71
-98.65
-112.91
-120.32
-124.75
-130.31
-139.65
-153.08
-168.75
-183.65
-194.86
-200.43
-199.76
-193.39
-182.62
-169.14
-154.62
-140.52
-127.78
-116.62
-106.48
-96.11
-84.16
-69.75
-53.02
-35.14
-17.83
-2.61
9.86
19.82
28.03
35.12
41.23
46.14
49.67
51.99
53.53
54.53
54.75
53.54
50.41
45.60
40.31
36.22
34.61
35.59
37.93
39.59
38.71
34.51
27.62
19.84
13.37
10.13
11.11
16.19
24.24
33.44
41.63
46.73
47.12
41.88
30.97
15.06
-4.73
-27.17
-51.15
-75.66
-99.59
-121.57
-140.00
-153.36
-160.78
-162.52
-160.02
-155.40
-150.66
-146.93
-144.12
-141.31
-137.40
-131.74
-124.34
-115.61
-105.94
-95.43
-84.02
-71.92
-59.91
-49.31
-41.38
-36.71
-34.80
-34.27
-33.48
-31.24
-27.14
-21.43
-14.69
-7.45
-0.11
7.06
13.87
20.27
26.46
32.79
39.63
46.96
54.20
60.40
64.55
66.11
65.25
62.76
59.67
56.96
55.24
54.72
55.33
56.81
58.83
60.99
62.79
63.67
63.12
60.78
56.64
50.97
44.30
37.14
29.89
22.68
15.46
8.09
0.54
-7.03
-14.24
-20.66
-25.98
-30.33
-34.37
-39.23
-46.01
-55.19
-66.13
-76.95
-85.10
-88.22
-85.05
-75.84
-62.18
-46.29
-30.32
-15.76
-3.42
6.50
14.13
19.78
23.86
26.71
28.48
29.03
28.04
25.18
20.51
14.63
8.60
3.64
0.68
0.25
2.24
5.99
10.54
14.95
18.70
21.97
25.54
30.56
37.77
46.72
55.36
60.58
59.30
49.67
31.70
7.10
-21.14
-49.20
-73.21
-89.75
-96.30
-91.83
-77.31
-55.89
-32.26
-11.05
5.39
16.76
24.30
29.84
35.25
42.01
50.96
62.01
74.64
89.39
105.94
122.74
137.50
148.43
155.06
157.97
157.64
154.93
152.93
153.72
157.52
162.80
167.89
172.06
175.31
177.19
178.23
181.99
190.87
204.64
220.63
235.97
249.39
261.37
272.49
263.27
223.59
157.78
82.68
14.36
-40.54
-83.15
-112.99
-137.67
-160.62
-179.31
-190.90
-194.99
-194.35
-192.80
-192.76
-194.04
-198.93
-205.58
-209.29
-206.30
-195.46
-178.53
-158.50
-137.95
-118.70
-102.71
-90.20
-79.69
-69.84
-59.96
-50.05
-40.07
-29.69
-18.87
-8.83
-0.64
4.93
7.20
5.79
0.71
-7.36
-17.17
-27.29
-36.76
-44.46
-49.42
-51.04
-49.19
-44.18
-36.62
-27.19
-16.57
-5.49
5.62
16.31
26.07
34.33
40.54
44.25
45.34
44.07
41.03
37.09
33.09
29.66
27.05
25.09
23.27
21.00
17.86
13.85
9.39
5.06
1.32
-1.81
-4.77
-8.22
-12.74
-18.55
-25.43
-32.87
-40.28
-47.22
-53.34
-58.45
-62.45
-65.30
-67.13
-68.16
-68.64
-68.71
-68.25
-66.88
-64.16
-59.73
-53.44
-45.24
-35.09
-22.81
-8.13
9.05
28.42
49.20
70.36
90.91
110.17
127.70
143.06
155.53
164.21
168.42
168.14
164.22
158.01
150.67
142.51
132.87
120.52
104.53
84.85
62.53
39.28
16.87
-3.36
-20.78
-35.19
-46.67
-55.28
-61.15
-64.61
-66.36
-67.38
-68.67
-70.76
-73.49
-75.96
-76.92
-75.15
-69.93
-61.14
-49.26
-35.19
-20.19
-5.74
6.59
15.39
19.91
20.37
17.90
14.08
10.25
7.14
4.72
2.53
0.05
-2.99
-6.61
-10.69
-15.12
-19.92
-24.94
-29.89
-34.48
-38.57
-42.27
-45.74
-49.07
-52.20
-55.13
-57.79
-60.09
-62.14
-64.23
-66.64
-69.41
-72.32
-75.00
-77.40
-79.26
-80.19
-79.81
-77.98
-74.71
-70.04
-63.99
-56.66
-48.63
-40.17
-31.17
-21.32
-10.46
1.31
13.77
26.51
41.56
58.24
74.17
87.31
97.25
104.48
109.26
111.33
110.09
105.27
96.86
85.80
73.81
62.69
53.66
46.79
41.97
38.90
37.17
36.05
35.06
34.28
34.11
34.85
36.59
39.17
42.05
44.34
45.61
45.16
42.76
38.72
33.71
28.50
23.66
19.38
15.49
11.62
7.55
3.55
0.16
-2.22
-3.53
-4.12
-4.62
-5.64
-7.55
-10.41
-13.90
-17.55
-20.92
-23.76
-25.92
-27.32
-27.96
-27.94
-27.53
-27.10
-27.01
-27.55
-28.76
-30.42
-32.14
-33.49
-34.17
-34.10
-33.37
-32.13
-30.54
-28.72
-26.72
-24.64
-22.57
-20.63
-18.89
-17.33
-15.83
-14.22
-12.34
-10.08
-7.45
-4.55
-1.52
1.49
4.32
6.91
9.16
11.01
12.32
12.95
12.76
11.70
9.89
7.62
5.31
3.42
2.35
2.34
3.43
5.51
8.26
11.27
14.03
16.07
17.01
16.63
14.97
12.20
8.67
4.72
0.65
-3.41
-7.39
-11.31
-15.18
-18.91
-22.35
-25.31
-27.62
-29.20
-30.04
-30.21
-29.79
-28.85
-27.46
-25.68
-23.59
-21.31
-18.94
-16.53
-14.10
-11.65
-9.17
-6.67
-4.13
-1.53
1.23
4.23
7.55
11.21
15.04
18.74
21.88
24.00
24.78
24.15
22.39
20.00
17.55
15.49
13.93
12.75
11.66
10.43
9.06
7.74
6.73
6.27
6.39
7.03
8.05
9.36
10.92
12.71
14.65
16.63
18.51
20.17
21.54
22.64
23.51
24.22
24.87
25.48
25.99
26.22
25.83
24.47
21.88
17.97
12.92
7.06
0.75
-5.71
-12.20
-18.65
-24.98
-31.02
-36.48
-41.05
-44.53
-46.93
-48.43
-49.29
-49.71
-49.73
-49.18
-47.85
-45.54
-42.29
-38.34
-34.05
-29.78
-25.78
-22.18
-18.95
-16.03
-13.37
-10.93
-8.74
-6.86
-5.30
-4.07
-3.07
-2.15
-1.12
0.15
1.68
3.37
5.04
6.51
7.67
8.50
9.08
9.48
9.74
9.88
9.96
10.07
10.28
10.64
11.09
11.48
11.68
11.67
11.59
11.72
12.41
13.93
16.42
19.80
23.83
28.11
32.19
35.56
37.78
38.54
37.71
35.38
31.79
27.28
22.23
16.95
11.70
6.68
1.97
-2.44
-6.66
-10.86
-15.23
-19.90
-24.92
-30.18
-35.50
-40.63
-45.34
-49.46
-52.92
-55.72
-57.91
-59.47
-60.33
-60.39
-59.59
-57.95
-55.54
-52.53
-48.98
-44.85
-40.08
-34.58
-28.41
-21.79
-15.09
-8.74
-3.12
1.53
5.09
7.57
9.10
9.87
10.07
9.89
9.45
8.85
8.16
7.46
6.83
6.34
6.01
5.79
5.56
5.19
4.55
3.59
2.40
1.08
-0.19
-1.32
-2.31
-3.27
-4.36
-5.79
-7.67
-10.00
-12.64
-15.33
-17.74
-19.47
-20.17
-19.62
-17.78
-14.86
-11.20
-7.24
-3.36
0.22
3.39
6.15
8.52
10.51
12.13
13.40
14.34
14.99
15.33
15.36
15.05
14.46
13.73
13.02
12.51
12.22
12.06
11.86
11.43
10.67
9.55
8.16
6.57
4.80
2.87
0.82
-1.26
-3.24
-5.08
-6.86
-8.77
-10.97
-13.44
-15.86
-17.68
-18.33
-17.49
-15.19
-11.80
-7.82
-3.68
0.40
4.34
8.11
11.60
14.56
16.72
17.91
18.14
17.67
16.83
15.92
15.13
14.46
13.87
13.26
12.60
11.90
11.15
10.36
9.45
8.34
6.94
5.24
3.32
1.27
-0.80
-2.82
-4.77
-6.71
-8.77
-11.09
-13.83
-17.02
-20.56
-24.12
-27.23
-29.32
-29.86
-28.51
-25.20
-20.18
-13.96
-7.14
-0.29
6.15
11.92
16.87
20.90
23.90
25.76
26.48
26.20
25.20
23.87
22.53
21.35
20.36
19.50
18.74
18.10
17.63
17.30
16.99
16.53
15.72
14.48
12.81
10.80
8.54
6.08
3.47
0.76
-1.95
-4.57
-7.03
-9.38
-11.79
-14.50
-17.70
-21.41
-25.42
-29.28
-32.38
-34.10
-33.95
-31.72
-27.51
-21.75
-15.06
-8.13
-1.55
4.19
8.79
12.05
13.89
14.37
13.75
12.49
11.20
10.43
10.55
11.62
13.42
15.53
17.57
19.26
20.51
21.35
21.82
21.94
21.70
21.08
20.08
18.73
17.10
15.26
13.23
11.04
8.70
6.26
3.76
1.30
-1.05
-3.25
-5.37
-7.57
-10.02
-12.88
-16.16
-19.67
-23.01
-25.57
-26.74
-26.01
-23.19
-18.45
-12.30
-5.37
1.68
8.34
14.26
19.22
23.06
25.70
27.17
27.60
27.26
26.46
25.48
24.52
23.65
22.91
22.31
21.84
21.53
21.34
21.26
21.22
21.18
21.03
20.68
20.00
18.94
17.53
15.87
14.12
12.43
10.83
9.28
7.66
5.84
3.73
1.37
-1.15
-3.70
-6.15
-8.44
-10.54
-12.55
-14.65
-17.03
-19.88
-23.24
-26.96
-30.59
-33.51
-35.03
-34.61
-32.06
-27.59
-21.79
-15.38
-9.05
-3.26
1.80
6.11
9.70
12.56
14.63
15.85
16.29
16.18
15.84
15.56
15.52
15.74
16.07
16.36
16.48
16.43
16.30
16.21
16.19
16.17
16.01
15.52
14.58
13.23
11.64
10.03
8.59
7.42
6.44
5.53
4.49
3.19
1.60
-0.24
-2.25
-4.30
-6.29
-8.15
-9.85
-11.40
-12.89
-14.47
-16.29
-18.50
-21.13
-24.00
-26.69
-28.64
-29.22
-28.01
-24.89
-20.10
-14.17
-7.72
-1.34
4.61
9.92
14.53
18.41
21.47
23.59
24.70
24.89
24.41
23.66
23.02
22.76
22.97
23.57
24.43
25.47
26.71
28.22
30.01
32.00
33.99
35.75
37.06
37.85
38.18
38.18
38.00
37.72
37.35
36.79
35.93
34.66
32.93
30.75
28.16
25.23
22.10
18.88
15.61
12.33
8.99
5.53
1.97
-1.62
-5.06
-8.16
-10.71
-12.59
-13.72
-14.11
-13.81
-12.93
-11.64
-10.13
-8.62
-7.23
-6.02
-5.00
-4.16
-3.50
-3.08
-2.93
-3.02
-3.28
-3.59
-3.86
-4.05
-4.21
-4.42
-4.74
-5.18
-5.70
-6.23
-6.75
-7.25
-7.75
-8.24
-8.72
-9.18
-9.63
-10.11
-10.62
-11.14
-11.60
-11.91
-12.03
-12.00
-11.92
-11.90
-11.97
-12.11
-12.21
-12.23
-12.18
-12.14
-12.21
-12.40
-12.57
-12.59
-12.29
-11.66
-10.78
-9.86
-9.08
-8.58
-8.42
-8.58
-9.05
-9.76
-10.65
-11.70
-12.86
-14.12
-15.41
-16.61
-17.52
-17.91
-17.58
-16.48
-14.71
-12.47
-10.04
-7.67
-5.55
-3.79
-2.45
-1.61
-1.27
-1.43
-2.02
-2.93
-4.00
-5.04
-5.92
-6.49
-6.70
-6.58
-6.18
-5.61
-4.94
-4.25
-3.59
-3.00
-2.50
-2.10
-1.81
-1.64
-1.59
-1.69
-1.98
-2.48
-3.15
-3.89
-4.55
-4.97
-5.10
-5.03
-4.93
-5.03
-5.48
-6.27
-7.31
-8.47
-9.62
-10.72
-11.78
-12.83
-13.87
-14.89
-15.86
-16.79
-17.70
-18.70
-19.90
-21.41
-23.26
-25.37
-27.55
-29.60
-31.37
-32.76
-33.74
-34.22
-34.02
-32.83
-30.33
-26.34
-20.89
-14.23
-6.71
1.32
9.55
17.70
25.46
32.43
38.21
42.41
44.82
45.36
44.13
41.35
37.36
32.58
27.42
22.26
17.35
12.77
8.52
4.59
1.05
-1.96
-4.28
-5.84
-6.72
-7.09
-7.17
-7.14
-7.05
-6.89
-6.67
-6.42
-6.21
-6.09
-6.13
-6.31
-6.63
-7.08
-7.69
-8.51
-9.57
-10.82
-12.21
-13.62
-14.96
-16.19
-17.33
-18.47
-19.78
-21.40
-23.30
-25.27
-26.88
-27.62
-27.13
-25.29
-22.34
-18.72
-14.90
-11.21
-7.80
-4.67
-1.81
0.73
2.79
4.28
5.17
5.54
5.59
5.50
5.43
5.44
5.49
5.52
5.43
5.18
4.77
4.27
3.75
3.27
2.85
2.44
1.97
1.39
0.64
-0.28
-1.36
-2.57
-3.90
-5.29
-6.72
-8.13
-9.45
-10.61
-11.58
-12.36
-13.00
-13.61
-14.26
-15.02
-15.84
-16.65
-17.38
-18.05
-18.80
-19.85
-21.39
-23.51
-26.14
-29.10
-32.11
-34.88
-37.16
-38.75
-39.52
-39.39
-38.33
-36.31
-33.27
-29.12
-23.81
-17.30
-9.72
-1.42
7.08
15.14
22.12
27.57
31.34
33.60
34.78
35.47
36.19
37.31
38.90
40.73
42.38
43.42
43.64
43.15
42.41
42.05
42.55
43.93
45.69
46.98
47.06
45.69
43.41
41.32
40.64
42.02
45.27
49.47
53.42
56.27
57.88
58.68
59.24
60.04
61.68
65.24
72.45
85.25
104.79
130.28
158.49
184.27
202.07
207.55
198.58
175.18
138.64
90.67
33.39
-29.50
-91.53
-143.44
-175.59
-181.56
-161.43
-122.48
-76.78
-36.76
-10.68
-0.37
-2.06
-9.75
-18.57
-26.49
-33.92
-42.05
-51.51
-61.91
-72.61
-82.98
-93.42
-105.08
-118.77
-133.80
-147.86
-157.98
-161.65
-158.02
-147.07
-130.51
-111.53
-93.93
-81.25
-76.16
-80.60
-94.82
-117.21
-142.68
-165.58
-181.74
-188.96
-186.64
-174.86
-154.24
-124.60
-85.28
-34.04
28.62
98.19
167.33
228.07
274.64
304.33
318.66
308.47
271.91
218.57
165.39
124.88
99.35
88.01
83.32
80.36
77.09
75.46
77.16
80.42
84.72
89.74
95.45
100.87
100.62
90.49
77.10
63.29
47.54
30.62
14.32
1.24
-6.79
-8.81
-5.04
3.72
14.35
23.47
29.08
30.33
27.75
22.23
14.71
5.91
-3.51
-13.86
-24.99
-35.66
-44.77
-51.61
-56.35
-59.60
-61.82
-62.95
-63.13
-62.15
-59.74
-56.28
-52.64
-49.79
-48.30
-47.96
-47.95
-47.52
-45.87
-42.59
-38.10
-33.54
-30.27
-29.30
-30.76
-33.93
-37.75
-41.24
-43.94
-46.02
-47.97
-50.09
-52.24
-53.81
-54.07
-52.48
-48.80
-43.10
-35.64
-26.87
-17.45
-8.32
-0.62
4.49
6.27
4.71
0.72
-4.04
-7.55
-8.09
-4.74
2.30
11.75
21.66
29.96
35.12
36.48
34.40
30.02
24.79
19.94
16.11
13.18
10.48
7.15
2.57
-3.37
-10.30
-17.59
-24.68
-31.25
-37.22
-42.58
-47.27
-51.12
-53.94
-55.65
-56.33
-56.19
-55.37
-53.93
-51.80
-48.88
-45.10
-40.42
-34.77
-27.97
-19.78
-10.03
1.15
13.23
25.36
36.53
45.85
52.78
57.11
58.86
58.17
55.20
50.18
43.47
35.59
27.23
19.13
11.93
6.08
1.79
-0.96
-2.35
-2.62
-2.05
-0.91
0.59
2.24
3.90
5.41
6.67
7.56
8.02
8.00
7.52
6.68
5.59
4.41
3.26
2.21
1.23
0.27
-0.79
-2.05
-3.57
-5.30
-7.10
-8.63
-9.41
-8.90
-6.59
-2.26
3.95
11.57
19.85
28.07
35.62
42.07
47.14
50.58
52.16
51.79
49.58
45.91
41.32
36.37
31.44
26.75
22.40
18.50
15.24
12.79
11.20
10.31
9.81
9.34
8.72
7.95
7.14
6.46
5.93
5.46
4.93
4.23
3.33
2.26
1.08
-0.21
-1.57
-2.98
-4.38
-5.71
-6.91
-7.97
-8.95
-9.92
-11.00
-12.28
-13.79
-15.47
-17.09
-18.31
-18.73
-18.02
-16.05
-12.92
-8.98
-4.66
-0.41
3.51
6.96
9.92
12.39
14.29
15.46
15.73
15.03
13.46
11.32
9.00
6.88
5.16
3.87
2.85
1.88
0.79
-0.52
-2.01
-3.59
-5.14
-6.54
-7.78
-8.87
-9.85
-10.81
-11.79
-12.81
-13.84
-14.82
-15.73
-16.55
-17.27
-17.95
-18.67
-19.51
-20.59
-21.92
-23.41
-24.81
-25.73
-25.69
-24.27
-21.25
-16.69
-10.93
-4.54
1.87
7.77
12.80
16.79
19.69
21.51
22.34
22.34
21.74
20.87
20.02
19.36
18.92
18.62
18.30
17.86
17.26
16.51
15.69
14.90
14.19
13.52
12.72
11.54
9.77
7.31
4.27
0.93
-2.45
-5.70
-8.89
-12.23
-15.93
-20.07
-24.49
-28.86
-32.72
-35.58
-36.98
-36.50
-33.90
-29.14
-22.47
-14.47
-5.85
2.64
10.38
16.98
22.27
26.19
28.76
30.06
30.27
29.65
28.60
27.50
26.70
26.39
26.60
27.21
28.05
28.88
29.54
29.86
29.77
29.20
28.15
26.62
24.66
22.34
19.74
16.89
13.76
10.27
6.34
2.00
-2.58
-7.10
-11.22
-14.70
-17.45
-19.50
-20.90
-21.71
-21.96
-21.73
-21.20
-20.62
-20.28
-20.38
-20.99
-22.07
-23.53
-25.25
-27.06
-28.72
-29.95
-30.48
-30.17
-29.08
-27.45
-25.58
-23.72
-21.98
-20.40
-18.95
-17.66
-16.52
-15.49
-14.40
-13.01
-11.06
-8.40
-5.08
-1.37
2.35
5.68
8.40
10.44
11.91
12.95
13.64
13.95
13.82
13.22
12.18
10.76
9.04
7.06
4.85
2.44
-0.05
-2.46
-4.69
-6.74
-8.73
-10.81
-13.00
-14.99
-16.16
-15.70
-12.90
-7.46
0.37
9.81
19.73
28.95
36.46
41.69
44.45
44.92
43.52
40.71
36.91
32.38
27.27
21.67
15.72
9.70
4.07
-0.69
-4.28
-6.65
-8.09
-9.07
-10.06
-11.40
-13.16
-15.19
-17.31
-19.34
-21.24
-23.00
-24.59
-25.95
-26.99
-27.71
-28.30
-29.07
-30.38
-32.44
-35.19
-38.33
-41.45
-44.25
-46.68
-48.97
-51.45
-54.38
-57.72
-61.10
-63.93
-65.53
-65.28
-62.82
-58.10
-51.36
-43.13
-34.10
-25.09
-16.87
-10.06
-5.05
-1.96
-0.64
-0.81
-2.08
-4.00
-6.16
-8.09
-9.40
-9.77
-9.04
-7.27
-4.73
-1.87
0.80
2.85
4.03
4.34
4.03
3.41
2.82
2.42
2.18
1.92
1.38
0.40
-1.06
-2.84
-4.77
-6.70
-8.58
-10.51
-12.65
-15.16
-18.14
-21.59
-25.37
-29.17
-32.48
-34.63
-34.94
-32.86
-28.19
-21.13
-12.29
-2.46
7.58
17.21
26.05
33.89
40.63
46.17
50.49
53.60
55.60
56.66
56.92
56.54
55.61
54.26
52.59
50.80
49.06
47.52
46.25
45.25
44.41
43.53
42.35
40.56
37.89
34.18
29.43
23.88
17.87
11.81
5.98
0.55
-4.49
-9.20
-13.63
-17.73
-21.31
-24.19
-26.29
-27.69
-28.70
-29.76
-31.29
-33.57
-36.64
-40.18
-43.59
-46.03
-46.58
-44.49
-39.38
-31.39
-21.22
-9.89
1.48
11.99
21.07
28.48
34.17
38.17
40.58
41.55
41.43
40.67
39.77
39.10
38.82
38.84
39.02
39.23
39.47
39.76
40.08
40.26
40.05
39.24
37.78
35.77
33.43
30.97
28.49
25.96
23.32
20.51
17.50
14.27
10.81
7.16
3.38
-0.36
-3.89
-7.05
-9.79
-12.21
-14.58
-17.24
-20.54
-24.67
-29.42
-34.20
-38.04
-39.90
-38.99
-35.04
-28.38
-19.84
-10.45
-1.18
7.27
14.50
20.34
24.74
27.74
29.45
30.00
29.68
28.77
27.59
26.36
25.24
24.26
23.41
22.67
22.05
21.59
21.32
21.19
21.12
20.96
20.55
19.74
18.48
16.78
14.76
12.59
10.43
8.41
6.52
4.64
2.65
0.43
-2.02
-4.63
-7.26
-9.79
-12.16
-14.43
-16.77
-19.42
-22.61
-26.42
-30.68
-34.88
-38.26
-39.93
-39.23
-35.87
-30.07
-22.48
-13.93
-5.30
2.73
9.68
15.28
19.41
22.06
23.34
23.49
22.87
21.87
20.85
20.05
19.56
19.35
19.29
19.23
19.10
18.92
18.76
18.70
18.77
18.89
18.92
18.69
18.07
17.04
15.66
14.04
12.27
10.42
8.50
6.52
4.47
2.32
0.09
-2.21
-4.53
-6.78
-8.91
-10.93
-12.93
-15.07
-17.53
-20.44
-23.84
-27.61
-31.45
-34.87
-37.24
-37.91
-36.37
-32.48
-26.49
-19.04
-10.97
-3.02
4.25
10.51
15.64
19.56
22.20
23.60
23.89
23.40
22.54
21.70
21.16
20.96
21.01
21.10
21.04
20.73
20.17
19.45
18.67
17.95
17.32
16.78
16.24
15.55
14.59
13.29
11.68
9.87
8.00
6.16
4.33
2.40
0.20
-2.32
-5.13
-8.04
-10.82
-13.29
-15.34
-17.03
-18.57
-20.20
-22.17
-24.60
-27.40
-30.23
-32.58
-33.87
-33.62
-31.55
-27.70
-22.39
-16.15
-9.62
-3.42
1.98
6.26
9.33
11.27
12.25
12.52
12.33
11.93
11.53
11.29
11.25
11.39
11.63
11.87
12.10
12.34
12.69
13.18
13.84
14.62
15.41
16.13
16.69
17.03
17.08
16.78
16.08
14.97
13.47
11.64
9.57
7.32
4.95
2.52
0.04
-2.47
-4.98
-7.48
-9.97
-12.51
-15.22
-18.22
-21.58
-25.21
-28.81
-31.91
-33.94
-34.41
-33.02
-29.84
-25.20
-19.66
-13.82
-8.22
-3.25
0.84
3.98
6.15
7.43
7.93
7.82
7.27
6.49
5.65
4.88
4.24
3.73
3.28
2.85
2.38
1.84
1.21
0.52
-0.20
-0.92
-1.63
-2.39
-3.31
-4.54
-6.14
-8.02
-9.96
-11.67
-12.94
-13.79
-14.40
-15.09
-16.13
-17.66
-19.67
-22.10
-24.85
-27.80
-30.66
-32.97
-34.05
-33.25
-30.17
-24.86
-17.91
-10.23
-2.80
3.65
8.77
12.54
15.18
16.95
18.02
18.53
18.60
18.37
17.99
17.61
17.33
17.19
17.17
17.19
17.22
17.31
17.55
18.00
18.62
19.23
19.66
19.69
19.21
18.23
16.96
15.67
14.54
13.54
12.53
11.31
9.82
7.92
5.67
3.25
0.86
-1.44
-3.70
-6.01
-8.35
-10.71
-13.56
-17.20
-21.46
-25.70
-29.10
-30.85
-30.27
-26.89
-20.73
-13.22
-5.74
1.05
7.18
12.63
17.07
20.08
21.47
21.30
18.49
12.85
5.53
-1.68
-7.80
-13.26
-19.30
-27.18
-38.04
-54.20
-76.39
-102.78
-129.70
-153.65
-172.43
-185.11
-191.63
-180.78
-149.24
-104.71
-60.70
-26.37
-3.56
10.06
16.78
20.48
23.24
24.13
22.40
18.78
15.11
13.12
13.05
14.45
16.87
19.79
21.52
21.29
20.00
19.61
21.77
27.04
35.17
45.53
57.04
67.75
76.25
82.29
86.46
89.39
91.22
91.88
91.34
89.49
85.88
80.38
73.38
65.60
57.66
49.89
42.35
35.02
27.72
20.09
11.98
3.47
-5.13
-13.53
-21.57
-29.20
-36.39
-43.04
-48.98
-54.06
-58.19
-61.52
-64.28
-66.74
-69.03
-71.07
-72.70
-73.81
-74.48
-74.95
-75.53
-76.33
-77.17
-77.54
-76.78
-74.23
-69.40
-62.07
-52.30
-40.49
-27.30
-13.67
-0.60
10.99
20.48
27.70
32.83
36.31
38.59
40.04
40.86
41.17
41.05
40.60
39.93
39.17
38.39
37.67
37.09
36.68
36.44
36.29
36.02
35.43
34.26
32.41
29.94
27.12
24.36
22.11
20.66
20.09
20.19
20.54
20.70
20.30
19.18
17.40
15.13
12.58
9.86
7.02
3.97
0.66
-2.91
-6.68
-10.54
-14.35
-17.98
-21.36
-24.42
-27.20
-29.77
-32.35
-35.21
-38.55
-42.41
-46.46
-50.02
-52.23
-52.28
-49.71
-44.59
-37.46
-29.18
-20.71
-12.80
-5.96
-0.38
4.06
7.70
11.02
14.46
18.28
22.47
26.78
30.83
34.36
37.29
39.78
42.13
44.56
47.18
49.95
52.70
55.20
57.22
58.45
58.62
57.58
55.38
52.34
48.93
45.62
42.73
40.30
38.18
36.13
33.91
31.39
28.47
25.12
21.30
17.02
12.30
7.14
1.53
-4.55
-11.04
-17.77
-24.31
-30.00
-34.06
-35.72
-34.53
-30.46
-24.05
-16.24
-8.11
-0.62
5.65
10.54
14.19
16.85
18.70
19.78
20.10
19.76
18.96
17.99
17.14
16.53
16.14
15.77
15.23
14.40
13.32
12.12
10.96
9.93
8.97
7.93
6.59
4.75
2.40
-0.37
-3.30
-6.13
-8.64
-10.75
-12.50
-14.04
-15.60
-17.44
-19.75
-22.64
-26.08
-29.86
-33.58
-36.73
-38.77
-39.20
-37.72
-34.26
-29.01
-22.41
-15.02
-7.44
-0.18
6.46
12.34
17.48
21.93
25.73
28.92
31.52
33.66
35.49
37.25
39.14
41.23
43.42
45.42
46.87
47.44
47.00
45.58
43.40
40.68
37.54
33.97
29.94
25.44
20.58
15.57
10.63
5.87
1.28
-3.21
-7.61
-11.86
-15.80
-19.28
-22.29
-24.95
-27.49
-30.13
-33.06
-36.32
-39.94
-43.83
-47.81
-51.53
-54.45
-55.87
-55.21
-52.14
-46.79
-39.71
-31.66
-23.38
-15.42
-8.11
-1.61
3.93
8.38
11.65
13.79
15.01
15.57
15.66
15.38
14.77
13.88
12.87
11.95
11.30
10.96
10.79
10.55
10.07
9.31
8.38
7.44
6.58
5.79
4.99
4.08
3.03
1.82
0.49
-0.99
-2.63
-4.46
-6.50
-8.70
-11.04
-13.50
-16.12
-19.00
-22.25
-25.87
-29.63
-33.03
-35.38
-35.95
-34.23
-30.12
-23.97
-16.48
-8.52
-0.86
5.91
11.44
15.55
18.22
19.50
19.61
18.83
17.50
15.86
14.07
12.20
10.29
8.44
6.81
5.53
4.63
4.02
3.48
2.84
2.01
1.02
0.02
-0.86
-1.51
-1.81
-1.61
-0.73
0.92
3.28
6.09
8.89
11.25
12.88
13.68
13.71
13.00
11.45
8.89
5.22
0.61
-4.39
-9.01
-12.46
-14.27
-14.37
-13.05
-10.78
-7.97
-4.87
-1.62
1.64
4.74
7.41
9.44
10.69
11.19
11.15
10.82
10.49
10.39
10.63
11.17
11.85
12.43
12.66
12.33
11.34
9.73
7.67
5.43
3.26
1.36
-0.26
-1.73
-3.29
-5.14
-7.35
-9.82
-12.39
-14.86
-17.20
-19.47
-21.82
-24.42
-27.32
-30.56
-34.09
-37.86
-41.72
-45.37
-48.37
-50.11
-50.03
-47.78
-43.39
-37.30
-30.29
-23.22
-16.77
-11.30
-6.79
-2.99
0.34
3.32
5.90
7.92
9.31
10.15
10.65
11.04
11.47
11.94
12.39
12.74
13.01
13.31
13.79
14.57
15.60
16.72
17.66
18.21
18.25
17.83
17.13
16.38
15.71
15.14
14.56
13.81
12.75
11.29
9.40
7.06
4.25
0.98
-2.66
-6.44
-9.98
-12.83
-14.53
-14.76
-13.47
-10.86
-7.35
-3.45
0.37
3.79
6.66
8.92
10.56
11.56
11.90
11.63
10.86
9.80
8.65
7.59
6.69
5.96
5.38
4.95
4.64
4.49
4.44
4.44
4.35
4.06
3.44
2.44
1.05
-0.69
-2.72
-4.94
-7.27
-9.65
-12.03
-14.40
-16.76
-19.02
-21.12
-22.94
-24.41
-25.53
-26.45
-27.41
-28.73
-30.68
-33.32
-36.41
-39.36
-41.29
-41.36
-38.95
-33.91
-26.60
-17.77
-8.31
0.99
9.57
17.09
23.38
28.31
31.81
33.90
34.74
34.65
33.99
33.12
32.29
31.58
30.97
30.41
29.84
29.21
28.48
27.61
26.60
25.47
24.27
23.02
21.71
20.17
18.23
15.80
12.95
9.93
7.07
4.57
2.44
0.49
-1.55
-3.79
-6.17
-8.51
-10.59
-12.36
-13.95
-15.53
-17.27
-19.23
-21.42
-23.88
-26.71
-29.98
-33.58
-37.09
-39.78
-40.81
-39.50
-35.62
-29.48
-21.85
-13.68
-5.84
1.09
6.85
11.43
14.88
17.25
18.60
18.98
18.52
17.43
15.97
14.41
12.97
11.79
10.92
10.32
9.88
9.47
8.99
8.37
7.67
6.92
6.10
5.12
3.84
2.18
0.23
-1.76
-3.52
-4.91
-6.00
-7.06
-8.42
-10.29
-12.62
-15.14
-17.46
-19.33
-20.65
-21.52
-22.16
-22.80
-23.62
-24.73
-26.20
-27.94
-29.68
-30.91
-30.96
-29.18
-25.14
-18.88
-10.87
-1.95
6.95
15.02
21.72
26.83
30.38
32.54
33.59
33.78
33.35
32.51
31.42
30.25
29.16
28.27
27.63
27.22
26.94
26.73
26.59
26.58
26.71
26.87
26.72
25.82
23.79
20.51
16.21
11.40
6.66
2.46
-1.06
-3.99
-6.56
-8.92
-11.11
-13.00
-14.45
-15.40
-15.91
-16.24
-16.74
-17.73
-19.39
-21.66
-24.18
-26.33
-27.39
-26.72
-23.94
-19.05
-12.46
-4.91
2.78
9.84
15.78
20.39
23.69
25.78
26.77
26.72
25.64
23.59
20.72
17.28
13.60
9.99
6.69
3.84
1.49
-0.41
-1.93
-3.21
-4.38
-5.57
-6.83
-8.15
-9.45
-10.61
-11.52
-12.16
-12.61
-13.00
-13.51
-14.26
-15.33
-16.69
-18.30
-20.03
-21.74
-23.30
-24.58
-25.59
-26.42
-27.26
-28.38
-30.00
-32.25
-35.05
-38.09
-40.86
-42.69
-42.94
-41.14
-37.14
-31.22
-23.96
-16.15
-8.56
-1.75
3.97
8.54
11.98
14.40
15.87
16.50
16.44
15.88
15.08
14.28
13.65
13.31
13.24
13.38
13.61
13.80
13.86
13.75
13.49
13.10
12.62
12.03
11.26
10.23
8.89
7.24
5.36
3.39
1.43
-0.43
-2.16
-3.80
-5.39
-7.00
-8.71
-10.65
-12.95
-15.68
-18.77
-21.92
-24.64
-26.32
-26.38
-24.51
-20.68
-15.22
-8.68
-1.74
4.94
10.81
15.52
18.94
21.12
22.23
22.48
22.05
21.10
19.79
18.29
16.84
15.62
14.79
14.39
14.36
14.56
14.87
15.17
15.41
15.57
15.63
15.55
15.25
14.64
13.63
12.18
10.29
8.02
5.49
2.84
0.20
-2.33
-4.67
-6.82
-8.83
-10.82
-12.99
-15.58
-18.76
-22.53
-26.62
-30.45
-33.21
-34.13
-32.67
-28.73
-22.71
-15.34
-7.50
0.10
6.95
12.84
17.69
21.50
24.24
25.89
26.48
26.15
25.15
23.79
22.36
21.05
19.93
19.01
18.25
17.67
17.26
17.03
16.91
16.75
16.35
15.51
14.12
12.24
10.05
7.77
5.53
3.34
1.06
-1.44
-4.21
-7.10
-9.89
-12.34
-14.36
-16.06
-17.73
-19.66
-22.04
-24.89
-28.05
-31.20
-33.89
-35.55
-35.59
-33.58
-29.37
-23.23
-15.81
-7.90
-0.29
6.51
12.28
16.99
20.70
23.48
25.37
26.43
26.78
26.60
26.11
25.52
24.99
24.68
24.68
25.01
25.64
26.43
27.21
27.79
28.03
27.87
27.28
26.29
24.93
23.23
21.19
18.80
16.00
12.71
8.87
4.51
-0.25
-5.19
-10.07
-14.63
-18.79
-22.56
-26.11
-29.63
-33.21
-36.76
-39.97
-42.39
-43.50
-42.94
-40.55
-36.43
-30.95
-24.67
-18.25
-12.29
-7.25
-3.37
-0.64
1.11
2.15
2.71
2.99
3.20
3.53
4.22
5.53
7.53
10.18
13.23
16.35
19.24
21.73
23.77
25.40
26.68
27.62
28.22
28.43
28.24
27.62
26.61
25.20
23.40
21.23
18.74
15.99
13.02
9.88
6.54
2.93
-1.01
-5.32
-10.01
-15.04
-20.30
-25.62
-30.71
-35.21
-38.69
-40.80
-41.36
-40.46
-38.46
-35.83
-33.01
-30.27
-27.64
-25.06
-22.44
-19.75
-17.07
-14.47
-11.94
-9.36
-6.56
-3.37
0.24
4.14
8.14
12.05
15.75
19.19
22.37
25.29
27.89
30.09
31.78
32.90
33.39
33.24
32.47
31.14
29.31
27.09
24.56
21.81
18.89
15.83
12.67
9.46
6.24
2.94
-0.59
-4.56
-9.09
-14.16
-19.42
-24.31
-28.17
-30.45
-30.93
-29.75
-27.42
-24.61
-21.99
-19.96
-18.72
-18.19
-18.23
-18.76
-19.83
-21.57
-24.04
-27.13
-30.51
-33.73
-36.43
-38.51
-40.20
-41.91
-44.04
-46.80
-50.02
-53.35
-56.27
-58.36
-59.37
-59.24
-58.03
-55.96
-53.42
-50.89
-48.88
-47.56
-46.60
-45.07
-41.72
-35.52
-26.19
-14.47
-1.94
9.48
18.21
23.51
25.51
24.99
23.01
20.67
18.98
18.88
21.16
26.35
34.47
44.90
56.50
67.87
77.77
85.50
91.04
94.90
97.82
100.51
103.34
106.35
