1650966021.00
64.000000
-0.00
-0.00
-0.00
-0.00
-0.00
-0.00
-0.00
-0.00
-0.00
-0.00
0.00
0.01
0.01
-0.00
-0.03
-0.05
-0.05
0.00
0.13
0.36
0.66
1.01
1.37
1.72
2.06
2.40
2.79
3.24
3.80
4.42
5.06
5.66
6.20
6.68
7.15
7.68
8.31
9.14
10.09
11.04
11.88
12.56
13.14
13.76
14.65
15.96
17.91
20.32
22.90
25.38
27.58
29.57
31.68
34.32
37.81
42.54
48.15
54.10
59.83
64.97
69.58
74.14
79.34
85.71
93.76
103.00
112.62
121.73
129.77
136.75
143.30
150.75
157.77
166.64
177.95
191.79
206.97
220.57
228.25
225.36
208.53
176.87
132.76
80.05
23.07
-34.94
-92.44
-149.16
-205.23
-260.37
-313.74
-363.87
-409.83
-450.91
-486.50
-515.74
-537.23
-549.22
-549.96
-538.37
-514.21
-478.67
-433.88
-382.45
-327.02
-269.84
-212.63
-156.66
-102.95
-52.37
-5.90
35.58
71.43
101.35
125.50
144.38
158.69
169.15
176.37
180.75
182.57
182.07
179.51
175.23
169.65
163.18
156.15
148.81
141.30
133.69
126.02
118.33
110.69
103.16
95.80
88.68
81.83
75.25
68.95
62.95
57.25
51.86
46.78
42.03
37.59
33.45
29.61
26.07
22.81
19.83
17.11
14.67
12.48
10.54
8.83
7.35
6.07
4.97
4.05
3.27
2.62
2.09
1.65
1.30
1.01
0.79
0.61
0.48
0.38
0.30
0.25
0.22
0.20
0.19
0.20
0.21
0.23
0.26
0.29
0.32
0.36
0.40
0.43
0.47
0.52
0.56
0.61
0.67
0.74
0.81
0.88
0.97
1.06
1.16
1.27
1.40
1.56
1.72
1.90
2.06
2.20
2.31
2.43
2.58
2.79
3.09
3.49
3.94
4.42
4.90
5.36
5.82
6.31
6.88
7.55
8.32
9.15
9.97
10.73
11.42
12.08
12.82
13.73
14.87
16.22
17.62
18.89
19.82
20.31
20.38
20.15
19.78
19.33
18.65
17.43
15.28
11.94
7.38
2.01
-3.51
-8.43
-12.21
-14.75
-16.42
-17.87
-19.73
-22.27
-25.29
-28.20
-30.35
-31.31
-31.14
-30.39
-29.82
-30.16
-31.92
-35.28
-39.96
-44.79
-47.69
-46.16
-38.05
-22.75
-1.83
21.13
41.76
56.15
62.45
61.06
53.89
43.19
30.70
17.44
4.19
-8.10
-18.45
-25.70
-29.28
-29.83
-29.14
-29.49
-32.79
-39.66
-49.15
-59.66
-69.10
-75.85
-79.78
-82.30
-85.73
-92.51
-104.42
-122.34
-146.48
-174.78
-203.05
-225.63
-237.00
-233.64
-215.43
-185.70
-145.41
-99.83
-53.34
-7.67
37.82
84.10
130.12
171.89
203.60
220.22
219.34
203.19
177.60
149.23
123.38
102.88
88.30
79.16
74.81
74.15
76.43
80.89
86.77
93.62
101.52
110.84
121.60
132.98
142.96
149.45
150.99
147.13
138.42
125.95
110.84
94.09
76.64
59.38
43.33
29.35
17.62
7.53
-1.99
-12.20
-23.72
-36.38
-49.34
-61.29
-71.12
-78.21
-82.69
-85.22
-86.74
-88.06
-89.59
-91.29
-92.67
-93.00
-91.55
-87.80
-81.62
-73.32
-63.58
-53.22
-43.00
-33.44
-24.85
-17.40
-11.25
-6.53
-3.28
-1.30
-0.11
0.93
2.34
4.37
6.85
9.25
10.93
11.42
10.63
9.00
7.35
6.51
6.94
8.22
8.99
7.51
2.43
-6.40
-17.72
-29.26
-38.53
-43.50
-42.98
-36.79
-25.63
-10.93
5.49
21.90
37.18
51.21
64.82
79.18
95.05
111.93
127.75
139.25
142.95
136.28
118.56
91.27
57.60
21.48
-13.56
-45.26
-72.70
-95.78
-114.71
-129.67
-140.87
-148.83
-154.13
-156.82
-155.81
-148.93
-133.76
-109.12
-76.04
-37.57
2.44
40.61
74.71
103.26
124.91
138.14
142.05
137.38
126.86
114.29
102.60
92.10
80.33
63.69
39.92
10.00
-22.05
-50.99
-72.90
-86.78
-94.30
-98.34
-101.23
-103.88
-106.02
-107.09
-106.93
-106.08
-105.29
-105.01
-105.09
-104.90
-103.64
-100.65
-95.67
-88.75
-80.22
-70.55
-60.25
-49.76
-39.34
-29.00
-18.60
-8.04
2.62
13.10
23.06
32.30
40.88
49.15
57.49
66.07
74.64
82.45
88.42
91.49
91.01
87.03
80.38
72.42
64.62
58.00
52.91
48.98
45.44
41.58
37.04
31.91
26.61
21.57
17.05
13.17
9.96
7.52
5.92
5.13
4.89
4.69
3.93
2.22
-0.48
-3.86
-7.44
-10.85
-14.06
-17.35
-21.14
-25.59
-30.43
-34.95
-38.24
-39.49
-38.37
-35.04
-30.10
-24.22
-17.85
-11.05
-3.60
4.66
13.43
21.82
28.58
32.55
33.14
30.60
25.73
19.51
12.66
5.64
-1.18
-7.37
-12.39
-15.98
-18.34
-20.20
-22.41
-25.39
-28.82
-31.86
-33.62
-33.73
-32.44
-30.38
-28.06
-25.56
-22.62
-18.90
-14.36
-9.26
-3.98
1.31
6.71
12.42
18.42
24.36
29.50
33.16
34.96
35.08
34.08
32.58
30.93
29.03
26.55
23.16
18.90
14.25
9.88
6.37
3.97
2.62
2.13
2.52
4.02
6.96
11.54
17.52
24.20
30.65
36.00
39.81
42.10
43.22
43.59
43.45
42.74
41.28
38.88
35.61
31.68
27.51
23.42
19.58
16.00
12.63
9.48
6.57
3.97
1.60
-0.63
-2.83
-4.96
-6.72
-7.75
-7.64
-6.24
-3.66
-0.30
3.32
6.72
9.56
11.64
12.85
13.12
12.41
10.73
8.18
5.00
1.55
-1.81
-4.77
-7.25
-9.33
-11.27
-13.36
-15.81
-18.69
-21.89
-25.11
-27.89
-29.67
-29.93
-28.35
-24.90
-19.91
-14.03
-8.00
-2.52
1.91
5.07
6.99
7.84
7.93
7.53
6.88
6.12
5.33
4.54
3.77
3.11
2.63
2.43
2.50
2.76
2.96
2.75
1.80
-0.06
-2.64
-5.43
-7.63
-8.51
-7.60
-4.93
-0.94
3.69
8.32
12.56
16.24
19.29
21.58
22.92
23.16
22.31
20.65
18.62
16.70
15.20
14.18
13.52
13.00
12.43
11.66
10.61
9.19
7.36
5.12
2.57
-0.10
-2.60
-4.59
-5.72
-5.69
-4.39
-1.83
1.73
5.93
10.34
14.56
18.26
21.10
22.78
22.99
21.53
18.35
13.68
7.97
1.79
-4.33
-9.94
-14.79
-18.76
-21.79
-23.88
-25.10
-25.69
-26.07
-26.75
-28.14
-30.31
-32.84
-34.86
-35.30
-33.34
-28.66
-21.66
-13.20
-4.30
4.26
12.12
19.37
26.36
33.38
40.57
47.79
54.73
60.85
65.62
68.54
69.37
68.25
65.70
62.49
59.29
56.35
53.45
50.01
45.48
39.61
32.60
24.99
17.36
10.15
3.65
-1.93
-6.31
-9.22
-10.49
-10.31
-9.24
-8.09
-7.65
-8.35
-10.17
-12.67
-15.18
-17.07
-17.95
-17.74
-16.64
-15.04
-13.35
-11.93
-10.94
-10.31
-9.79
-9.15
-8.21
-7.04
-5.91
-5.17
-5.14
-6.05
-8.00
-10.95
-14.67
-18.74
-22.54
-25.42
-26.87
-26.65
-24.86
-21.83
-18.05
-13.96
-9.92
-6.31
-3.44
-1.55
-0.73
-0.84
-1.56
-2.46
-3.24
-3.72
-3.94
-4.01
-4.04
-4.14
-4.37
-4.81
-5.52
-6.51
-7.71
-9.04
-10.43
-11.93
-13.65
-15.67
-17.88
-19.93
-21.23
-21.21
-19.56
-16.32
-11.94
-7.00
-2.06
2.57
6.75
10.50
13.76
16.40
18.27
19.25
19.38
18.84
17.87
16.73
15.58
14.46
13.39
12.37
11.42
10.50
9.54
8.39
6.90
4.97
2.63
0.07
-2.45
-4.72
-6.62
-8.19
-9.46
-10.38
-10.74
-10.20
-8.51
-5.62
-1.79
2.50
6.71
10.40
13.36
15.49
16.79
17.26
16.81
15.41
13.10
10.04
6.57
3.07
-0.11
-2.77
-4.90
-6.60
-7.94
-8.89
-9.29
-8.94
-7.79
-6.03
-4.03
-2.26
-1.05
-0.53
-0.67
-1.43
-2.76
-4.61
-6.84
-9.18
-11.32
-13.00
-14.12
-14.62
-14.45
-13.47
-11.55
-8.71
-5.28
-1.75
1.34
3.60
4.81
4.86
3.59
0.91
-3.06
-7.69
-11.90
-14.37
-14.12
-10.83
-4.89
2.88
11.72
21.21
31.21
41.54
51.64
60.48
66.78
69.43
67.84
62.12
52.90
41.10
27.56
12.98
-2.11
-17.15
-31.42
-44.09
-54.28
-61.32
-64.97
-65.41
-63.30
-59.43
-54.66
-49.60
-44.71
-40.15
-36.00
-32.25
-28.83
-25.68
-22.72
-19.90
-17.17
-14.50
-11.87
-9.28
-6.82
-4.62
-2.86
-1.67
-1.05
-0.87
-0.92
-1.01
-1.04
-1.04
-1.14
-1.44
-2.01
-2.85
-3.95
-5.30
-6.92
-8.77
-10.70
-12.44
-13.64
-14.02
-13.48
-12.14
-10.27
-8.18
-6.07
-4.04
-2.04
-0.11
1.64
2.95
3.57
3.36
2.46
1.20
-0.01
-0.81
-1.08
-0.90
-0.57
-0.35
-0.48
-0.98
-1.77
-2.70
-3.62
-4.42
-5.13
-5.85
-6.71
-7.85
-9.37
-11.26
-13.39
-15.51
-17.34
-18.55
-18.93
-18.35
-16.80
-14.31
-10.96
-6.89
-2.35
2.31
6.65
10.30
13.10
15.13
16.74
18.34
20.26
22.49
24.64
26.00
25.80
23.54
19.24
13.62
8.01
4.09
3.49
7.40
16.18
29.04
43.98
57.98
67.59
69.95
63.79
50.09
31.97
13.76
-0.45
-7.98
-8.27
-2.61
6.58
16.72
25.80
32.73
37.38
40.41
43.07
46.75
52.68
61.31
71.99
82.80
90.84
93.04
87.09
72.34
50.25
24.14
-1.53
-22.44
-35.45
-39.37
-34.97
-24.44
-10.45
4.60
18.96
31.47
41.23
47.31
48.76
44.99
36.20
23.73
9.98
-2.18
-10.14
-12.22
-8.06
1.34
13.86
26.76
37.38
43.75
45.10
41.87
35.41
27.42
19.42
12.42
6.87
2.74
-0.36
-3.10
-6.30
-10.75
-16.98
-25.04
-34.46
-44.49
-54.31
-63.27
-70.94
-77.03
-81.40
-84.16
-85.73
-86.87
-88.51
-91.49
-96.29
-102.94
-111.14
-120.39
-130.18
-140.09
-149.66
-158.36
-165.57
-170.66
-173.12
-172.66
-169.30
-163.27
-154.98
-144.81
-133.13
-120.27
-106.53
-92.37
-78.36
-65.20
-53.57
-43.92
-36.34
-30.43
-25.47
-20.53
-14.80
-7.77
0.57
9.75
18.96
27.25
33.78
38.00
39.81
39.50
37.66
35.00
32.11
29.41
27.03
24.90
22.73
20.25
17.24
13.69
9.88
6.31
3.59
2.20
2.36
3.98
6.67
9.92
13.25
16.27
18.73
20.44
21.32
21.38
20.70
19.51
18.04
16.52
15.08
13.72
12.38
10.93
9.35
7.71
6.15
4.79
3.68
2.72
1.75
0.53
-1.15
-3.49
-6.59
-10.41
-14.64
-18.74
-21.97
-23.62
-23.19
-20.65
-16.37
-11.00
-5.21
0.45
5.68
10.30
14.11
16.92
18.53
18.92
18.29
17.05
15.66
14.49
13.66
13.10
12.55
11.85
10.92
9.85
8.80
7.84
6.91
5.78
4.12
1.65
-1.74
-5.89
-10.38
-14.54
-17.57
-18.76
-17.59
-13.97
-8.25
-1.16
6.40
13.59
19.81
24.76
28.34
30.59
31.60
31.51
30.53
28.97
27.18
25.47
24.01
22.75
21.54
20.15
18.50
16.61
14.65
12.84
11.29
9.90
8.36
6.28
3.31
-0.64
-5.29
-10.02
-14.01
-16.44
-16.72
-14.69
-10.57
-5.01
1.25
7.46
13.10
17.87
21.64
24.34
25.92
26.37
25.78
24.46
22.83
21.31
20.20
19.49
18.98
18.30
17.18
15.57
13.62
11.60
9.69
7.90
6.00
3.66
0.63
-3.14
-7.37
-11.51
-14.83
-16.67
-16.51
-14.21
-10.02
-4.50
1.64
7.70
13.19
17.80
21.44
24.07
25.66
26.25
25.97
25.08
23.95
22.91
22.16
21.66
21.21
20.57
19.57
18.19
16.55
14.82
13.10
11.43
9.71
7.82
5.58
2.82
-0.60
-4.62
-8.93
-12.89
-15.66
-16.42
-14.68
-10.53
-4.59
2.16
8.76
14.55
19.30
23.10
26.09
28.35
29.73
30.11
29.44
27.98
26.23
24.73
23.83
23.58
23.68
23.67
23.19
22.11
20.53
18.69
16.75
14.76
12.60
10.14
7.30
4.11
0.61
-3.14
-7.06
-10.97
-14.54
-17.26
-18.55
-17.99
-15.45
-11.15
-5.66
0.36
6.30
11.71
16.33
20.00
22.62
24.09
24.40
23.70
22.35
20.82
19.57
18.84
18.61
18.59
18.39
17.74
16.53
14.90
13.11
11.35
9.72
8.12
6.38
4.33
1.84
-1.13
-4.58
-8.45
-12.54
-16.48
-19.67
-21.40
-21.17
-18.82
-14.66
-9.35
-3.64
1.83
6.65
10.62
13.58
15.42
16.05
15.57
14.27
12.60
11.04
9.94
9.37
9.20
9.16
8.99
8.53
7.73
6.68
5.53
4.38
3.26
2.10
0.75
-0.94
-3.09
-5.73
-8.72
-11.72
-14.22
-15.65
-15.46
-13.32
-9.29
-3.78
2.51
8.82
14.41
18.81
21.72
23.09
23.05
21.88
20.00
17.83
15.76
14.02
12.65
11.54
10.50
9.30
7.77
5.84
3.50
0.90
-1.76
-4.27
-6.52
-8.56
-10.61
-12.94
-15.65
-18.58
-21.25
-23.00
-23.18
-21.44
-17.83
-12.79
-7.05
-1.35
3.66
7.58
10.26
11.75
12.22
11.91
11.02
9.77
8.29
6.67
4.95
3.16
1.33
-0.48
-2.20
-3.75
-5.04
-6.05
-6.84
-7.53
-8.38
-9.68
-11.72
-14.62
-18.16
-21.81
-24.75
-26.19
-25.56
-22.76
-18.20
-12.57
-6.66
-1.16
3.49
7.08
9.53
10.86
11.19
10.74
9.81
8.70
7.64
6.74
5.99
5.32
4.67
4.04
3.50
3.10
2.84
2.63
2.31
1.71
0.69
-0.89
-3.07
-5.86
-9.13
-12.54
-15.52
-17.46
-17.86
-16.57
-13.83
-10.22
-6.38
-2.84
0.11
2.34
3.77
4.32
3.91
2.58
0.57
-1.71
-3.80
-5.41
-6.49
-7.20
-7.82
-8.60
-9.62
-10.86
-12.21
-13.62
-15.16
-17.00
-19.36
-22.46
-26.40
-31.11
-36.32
-41.46
-45.72
-48.08
-47.61
-43.81
-36.88
-27.80
-18.02
-9.01
-1.83
3.21
6.41
8.50
10.29
12.50
15.66
20.15
26.23
33.86
42.62
51.65
59.83
66.08
69.73
70.67
69.27
66.16
61.89
56.81
50.95
44.17
36.36
27.44
17.65
7.56
-1.97
-10.04
-16.19
-20.70
-24.63
-29.27
-35.27
-42.14
-48.22
-51.60
-51.18
-47.24
-41.23
-34.90
-29.36
-24.73
-20.56
-16.56
-13.15
-11.26
-11.69
-14.44
-18.61
-22.73
-25.56
-26.57
-26.00
-24.64
-23.23
-22.23
-21.72
-21.42
-20.86
-19.49
-16.79
-12.39
-6.22
1.47
10.10
18.92
27.28
34.76
41.37
47.38
53.22
59.18
65.31
71.41
77.13
82.20
86.55
90.49
94.58
99.67
106.68
116.40
129.04
143.62
157.65
167.24
168.00
156.30
130.57
92.00
44.22
-7.68
-58.47
-103.75
-140.52
-167.15
-183.21
-189.30
-186.87
-178.04
-165.14
-150.35
-135.30
-121.03
-108.11
-96.75
-86.95
-78.47
-70.95
-63.91
-57.03
-50.22
-43.64
-37.50
-31.93
-27.00
-22.69
-19.10
-16.40
-14.71
-13.86
-13.40
-12.65
-10.97
-8.11
-4.20
0.28
4.88
9.24
13.23
16.67
19.29
20.73
20.78
19.58
17.75
16.08
15.26
15.51
16.48
17.47
17.75
16.83
14.61
11.23
6.96
2.05
-3.20
-8.45
-13.26
-17.14
-19.64
-20.52
-19.77
-17.63
-14.52
-10.88
-7.12
-3.52
-0.23
2.64
4.97
6.57
7.20
6.70
5.04
2.48
-0.52
-3.37
-5.57
-6.82
-7.17
-6.92
-6.53
-6.51
-7.26
-8.98
-11.61
-14.83
-18.06
-20.60
-21.84
-21.36
-19.17
-15.59
-11.17
-6.46
-1.88
2.34
6.08
9.24
11.68
13.26
13.93
13.81
13.20
12.48
12.00
11.95
12.30
12.84
13.29
13.34
12.79
11.50
9.37
6.36
2.48
-2.15
-7.17
-12.00
-15.92
-18.25
-18.56
-16.78
-13.27
-8.67
-3.70
1.01
5.03
8.17
10.43
11.97
13.00
13.82
14.67
15.75
17.15
18.79
20.49
22.00
23.06
23.49
23.25
22.39
21.08
19.55
18.00
16.55
15.16
13.67
11.83
9.40
6.23
2.29
-2.29
-7.22
-12.14
-16.51
-19.78
-21.42
-21.10
-18.78
-14.73
-9.44
-3.53
2.48
8.20
13.42
17.97
21.70
24.46
26.14
26.72
26.35
25.35
24.12
23.00
22.26
21.94
21.93
21.94
21.68
20.91
19.57
17.77
15.72
13.67
11.78
10.03
8.30
6.40
4.15
1.45
-1.76
-5.44
-9.50
-13.68
-17.53
-20.44
-21.76
-21.04
-18.20
-13.59
-7.87
-1.81
3.91
8.80
12.60
15.23
16.71
17.18
16.86
16.07
15.19
14.53
14.31
14.59
15.22
15.93
16.48
16.67
16.44
15.90
15.23
14.56
13.89
13.11
12.02
10.47
8.51
6.33
4.25
2.48
1.05
-0.25
-1.82
-4.06
-7.11
-10.71
-14.25
-16.90
-17.93
-17.01
-14.26
-10.21
-5.56
-0.89
3.48
7.51
11.34
15.14
18.93
22.50
25.36
26.83
26.25
23.22
17.87
10.94
3.61
-2.85
-7.42
-9.71
-9.85
-8.38
-5.97
-3.25
-0.73
1.14
1.98
1.55
-0.20
-2.96
-6.20
-9.24
-11.45
-12.36
-11.79
-9.77
-6.43
-2.02
3.20
8.92
14.91
21.03
27.38
34.22
41.81
50.21
58.98
67.21
73.76
77.76
79.00
78.12
76.39
75.23
75.66
78.01
81.85
86.22
89.90
91.61
90.29
85.35
76.93
65.92
53.74
41.63
29.95
17.90
3.84
-13.69
-34.87
-58.01
-79.86
-96.82
-106.44
-108.42
-104.65
-98.36
-92.63
-89.39
-88.94
-90.34
-92.22
-93.48
-93.61
-92.53
-90.23
-86.54
-81.15
-73.96
-65.32
-56.14
-47.60
-40.67
-35.75
-32.52
-30.08
-27.41
-23.82
-19.16
-13.84
-8.65
-4.36
-1.53
-0.34
-0.63
-2.08
-4.26
-6.77
-9.22
-11.26
-12.49
-12.55
-11.20
-8.34
-4.20
0.74
5.76
10.11
13.22
14.87
15.15
14.39
12.96
11.16
9.17
7.12
5.18
3.47
2.08
0.91
-0.20
-1.50
-3.12
-5.06
-7.20
-9.39
-11.47
-13.34
-14.96
-16.33
-17.59
-18.94
-20.63
-22.75
-25.12
-27.25
-28.58
-28.61
-27.20
-24.52
-20.99
-17.09
-13.17
-9.45
-5.99
-2.85
-0.05
2.34
4.24
5.56
6.26
6.40
6.11
5.61
5.12
4.83
4.76
4.86
4.99
5.05
5.01
4.96
5.07
5.47
6.17
7.06
7.92
8.49
8.56
8.06
7.03
5.57
3.87
2.23
1.09
0.95
2.28
5.23
9.51
14.42
19.11
22.89
25.51
27.16
28.30
29.34
30.41
31.37
31.95
32.00
31.63
31.21
31.19
31.86
33.28
35.25
37.43
39.53
41.36
42.93
44.35
45.78
47.36
49.16
51.15
53.21
55.10
56.56
57.43
57.81
58.00
58.38
59.22
60.48
61.76
62.56
62.46
61.41
59.71
58.01
57.07
57.55
59.83
63.79
68.74
73.31
75.69
73.98
66.78
53.69
35.53
14.15
-8.07
-28.75
-46.03
-58.78
-66.66
-69.98
-69.62
-66.78
-62.82
-59.03
-56.43
-55.67
-57.02
-60.42
-65.64
-72.32
-80.05
-88.34
-96.66
-104.36
-110.71
-114.93
-116.34
-114.49
-109.32
-101.23
-90.94
-79.29
-67.00
-54.67
-42.79
-31.85
-22.34
-14.64
-8.77
-4.42
-1.06
1.79
4.26
6.19
7.36
7.78
7.85
8.20
9.28
11.05
13.09
14.82
16.00
16.82
17.75
19.12
20.78
22.20
22.85
22.67
22.31
22.93
25.71
31.42
40.20
51.54
64.63
78.56
92.44
105.44
116.78
125.71
131.62
134.58
135.38
135.66
137.04
140.05
143.16
142.68
133.66
111.77
75.13
25.32
-32.82
-92.58
-147.03
-190.50
-219.23
-231.65
-228.30
-211.75
-186.25
-157.09
-129.75
-108.88
-97.31
-95.52
-101.41
-110.86
-119.03
-122.03
-118.29
-108.97
-97.11
-85.86
-77.04
-70.45
-64.60
-57.98
-50.23
-42.26
-35.50
-30.98
-28.64
-27.53
-26.58
-25.17
-23.19
-20.87
-18.30
-15.35
-11.79
-7.66
-3.32
0.67
3.88
6.22
7.93
9.34
10.66
11.87
12.77
13.20
13.17
12.92
13.09
14.70
19.14
27.99
42.39
62.41
86.66
112.28
135.79
154.06
165.35
169.69
168.55
163.89
157.18
148.77
137.90
123.25
103.79
79.54
51.81
23.00
-4.15
-27.35
-45.39
-58.29
-67.00
-72.77
-76.58
-78.93
-79.86
-79.43
-77.98
-76.19
-74.95
-74.91
-76.30
-78.79
-81.68
-84.18
-85.63
-85.53
-83.47
-79.10
-72.15
-62.65
-51.14
-38.69
-26.70
-16.56
-9.18
-4.82
-3.06
-3.11
-4.10
-5.36
-6.47
-7.22
-7.50
-7.23
-6.39
-5.12
-3.66
-2.37
-1.57
-1.45
-1.96
-2.91
-4.07
-5.32
-6.70
-8.39
-10.56
-13.19
-16.01
-18.49
-20.07
-20.29
-19.05
-16.57
-13.31
-9.78
-6.39
-3.34
-0.68
1.58
3.42
4.65
5.03
4.43
2.88
0.74
-1.48
-3.22
-4.24
-4.63
-4.87
-5.59
-7.29
-10.15
-13.97
-18.24
-22.43
-26.13
-29.23
-31.84
-34.25
-36.79
-39.70
-43.12
-47.08
-51.45
-56.00
-60.39
-64.17
-66.94
-68.46
-68.79
-68.27
-67.32
-66.21
-64.81
-62.55
-58.60
-52.28
-43.22
-31.60
-17.83
-2.37
14.74
33.77
55.03
78.44
103.12
127.28
148.44
163.99
171.64
170.06
159.03
139.46
113.21
82.70
50.82
20.58
-5.09
-23.83
-34.37
-37.03
-33.76
-27.71
-22.29
-20.00
-21.68
-26.31
-31.72
-35.62
-36.70
-34.94
-31.44
-27.73
-25.01
-23.82
-24.16
-25.87
-28.90
-33.26
-38.82
-44.93
-50.46
-54.07
-54.50
-50.73
-42.15
-28.65
-10.81
9.81
30.58
48.18
59.46
62.56
57.57
46.57
32.82
19.57
9.00
1.80
-2.60
-5.54
-8.47
-12.33
-17.04
-21.36
-22.97
-19.11
-7.65
11.82
37.33
64.72
88.75
105.04
111.66
109.79
102.92
95.08
88.88
84.61
80.73
75.43
68.22
60.41
54.35
52.12
54.45
60.62
69.18
78.90
89.19
99.84
110.46
120.00
126.85
129.40
126.48
117.75
103.66
85.30
64.23
42.19
20.77
1.00
-16.91
-33.58
-49.95
-66.78
-84.42
-102.68
-121.16
-139.54
-157.82
-176.34
-195.71
-216.37
-238.14
-259.75
-278.74
-291.91
-296.38
-290.62
-275.16
-252.47
-225.91
-198.46
-171.66
-145.38
-118.57
-90.31
-60.86
-31.79
-5.48
16.02
31.87
42.73
50.44
56.99
63.85
71.39
79.14
86.16
91.68
95.34
97.28
97.88
97.52
96.43
94.61
91.96
88.33
83.75
78.46
72.80
67.07
61.20
54.78
47.20
38.13
27.90
17.60
8.84
3.11
1.25
3.01
7.23
12.38
17.22
21.21
24.47
27.38
30.10
32.31
33.35
32.68
30.25
26.61
22.68
19.28
16.82
15.09
13.53
11.47
8.48
4.42
-0.62
-6.52
-13.24
-20.77
-29.12
-38.05
-47.13
-55.65
-62.74
-67.59
-69.45
-67.79
-62.30
-53.05
-40.54
-25.78
-10.20
4.72
17.78
28.34
36.44
42.54
47.28
51.17
54.56
57.59
60.27
62.53
64.28
65.41
65.83
65.40
63.85
60.75
55.49
47.59
36.90
23.88
9.61
-4.51
-17.12
-27.40
-35.13
-40.60
-44.34
-46.82
-48.28
-48.81
-48.35
-46.87
-44.39
-41.02
-36.99
-32.61
-28.27
-24.36
-21.17
-18.83
-17.35
-16.69
-16.71
-17.34
-18.50
-20.18
-22.58
-26.12
-31.33
-38.41
-46.74
-54.65
-59.78
-59.76
-53.25
-40.34
-22.58
-2.20
18.63
38.32
55.92
70.96
83.19
92.55
99.32
104.08
107.57
110.31
112.39
113.49
113.16
111.18
107.67
103.11
98.07
93.05
88.30
83.85
79.48
74.77
69.25
62.55
54.79
46.63
39.31
34.31
32.87
35.49
41.65
49.96
58.64
66.07
71.33
74.22
75.14
74.63
73.10
70.73
67.60
63.87
59.85
55.93
52.44
49.43
46.69
43.81
40.30
35.77
30.02
23.00
14.93
6.25
-2.36
-10.09
-16.17
-20.06
-21.61
-21.12
-19.18
-16.49
-13.60
-10.88
-8.48
-6.51
-5.12
-4.51
-4.79
-5.93
-7.63
-9.48
-11.16
-12.59
-14.04
-15.88
-18.45
-21.77
-25.53
-29.24
-32.44
-34.97
-37.07
-39.26
-42.16
-46.20
-51.42
-57.41
-63.35
-68.21
-71.04
-71.19
-68.49
-63.33
-56.54
-49.12
-41.97
-35.71
-30.60
-26.68
-23.86
-21.98
-20.82
-19.99
-18.91
-16.99
-13.86
-9.58
-4.66
0.04
3.65
5.55
5.49
3.65
0.31
-4.23
-9.72
-15.89
-22.23
-27.90
-31.90
-33.34
-31.85
-27.65
-21.46
-14.06
-5.89
2.99
12.74
23.30
34.21
44.61
53.65
60.95
66.60
70.95
74.00
75.23
73.67
68.49
59.64
48.04
35.32
23.14
12.51
3.56
-4.36
-12.09
-20.26
-28.90
-37.53
-45.35
-51.43
-55.04
-55.84
-54.05
-50.49
-46.37
-42.93
-40.92
-40.35
-40.51
-40.33
-38.79
-35.35
-29.89
-22.69
-14.13
-4.62
5.34
15.09
23.84
30.77
35.41
37.75
38.33
37.99
37.56
37.54
37.95
38.39
38.26
37.00
34.29
30.13
24.88
19.13
13.63
9.18
6.46
5.86
7.29
10.25
13.94
17.51
20.37
22.30
23.34
23.54
22.88
21.20
18.38
14.60
10.34
6.24
2.86
0.45
-1.09
-2.09
-2.89
-3.73
-4.70
-5.78
-6.91
-8.01
-8.97
-9.78
-10.52
-11.42
-12.78
-14.82
-17.44
-20.21
-22.34
-22.97
-21.49
-17.71
-12.04
-5.38
1.12
6.43
9.88
11.39
11.36
10.43
9.11
7.63
5.88
3.58
0.51
-3.41
-8.08
-13.32
-18.96
-24.85
-30.81
-36.68
-42.29
-47.58
-52.63
-57.56
-62.29
-66.44
-69.20
-69.52
-66.36
-59.01
-47.36
-31.94
-13.78
5.86
25.78
45.08
63.24
80.00
95.23
108.76
120.28
129.49
136.15
140.24
142.02
141.95
140.61
138.51
135.97
132.95
129.12
124.02
117.32
109.21
100.59
92.76
86.71
82.28
77.79
70.61
58.44
40.69
19.05
-3.06
-22.13
-36.09
-45.05
-50.73
-55.00
-58.73
-61.45
-62.22
-60.73
-57.89
-55.40
-54.56
-55.12
-55.12
-51.80
-43.17
-29.26
-12.47
3.23
13.95
17.38
13.57
4.65
-6.26
-16.36
-24.12
-29.47
-33.38
-37.06
-41.34
-46.46
-52.20
-58.16
-63.98
-69.43
-74.32
-78.48
-81.83
-84.45
-86.64
-88.81
-91.26
-93.96
-96.60
-98.68
-99.75
-99.54
-98.00
-95.21
-91.36
-86.76
-81.84
-77.15
-73.14
-69.97
-67.35
-64.67
-61.19
-56.44
-50.38
-43.42
-36.21
-29.43
-23.58
-18.81
-14.92
-11.43
-7.78
-3.56
1.20
5.97
9.82
11.89
11.81
10.01
7.65
6.15
6.72
9.82
15.20
22.06
29.45
36.66
43.23
49.07
54.32
59.31
64.44
70.03
76.18
82.74
89.24
95.06
99.65
102.61
103.80
103.26
101.18
97.91
93.88
89.64
85.85
83.20
82.26
83.38
86.59
91.45
97.17
102.70
107.21
110.52
113.19
116.03
119.39
122.68
124.50
123.40
118.53
109.82
97.48
81.44
61.33
37.17
10.33
-16.00
-37.42
-49.81
-50.98
-41.40
-23.94
-2.83
17.36
32.54
39.50
36.34
23.02
1.66
-23.76
-48.28
-67.12
-76.91
-76.70
-68.27
-55.65
-44.15
-38.47
-41.12
-51.28
-65.18
-77.70
-84.66
-84.43
-78.10
-68.28
-57.35
-46.47
-35.56
-24.31
-13.24
-3.84
2.00
3.23
0.31
-4.85
-9.73
-12.40
-12.37
-10.57
-8.71
-8.35
-10.22
-13.98
-18.53
-22.64
-25.56
-27.34
-28.79
-30.93
-34.49
-39.43
-44.96
-49.79
-52.82
-53.60
-52.53
-50.57
-48.81
-47.88
-47.84
-48.18
-48.24
-47.54
-45.98
-43.89
-41.88
-40.66
-40.78
-42.53
-45.82
-50.21
-55.14
-60.08
-64.68
-68.77
-72.27
-75.08
-77.04
-78.14
-78.58
-78.84
-79.45
-80.70
-82.47
-84.23
-85.29
-85.11
-83.52
-80.74
-77.33
-74.15
-72.23
-72.67
-76.37
-83.62
-93.81
-105.41
-116.40
-124.99
-130.17
-131.84
-130.45
-126.30
-119.19
-108.50
-93.76
-75.35
-54.76
-34.49
-17.03
-3.95
4.54
9.48
12.52
15.23
18.59
22.87
27.62
32.18
36.13
39.50
42.67
46.21
50.68
56.48
63.92
72.73
82.58
93.13
103.91
114.14
122.71
128.52
130.84
129.48
123.60
112.89
97.90
80.09
61.34
43.34
27.40
14.24
3.96
-6.33
-18.96
-34.12
-49.35
-60.94
-65.61
-61.65
-49.42
-31.16
-14.61
-7.14
-13.10
-32.70
-63.38
-101.39
-142.16
-180.75
-211.96
-236.98
-257.81
-275.60
-290.21
-301.88
-312.11
-322.88
-335.67
-322.26
-267.12
-174.29
-66.50
32.19
109.14
162.87
197.30
214.90
222.40
218.94
203.99
180.53
155.23
135.14
124.84
126.89
139.32
158.97
175.10
178.48
166.53
144.26
120.08
101.36
92.44
92.49
98.99
105.82
108.11
103.95
94.65
80.96
64.95
48.81
34.09
22.04
11.71
2.32
-5.92
-11.91
-14.66
-13.71
-9.72
-4.23
1.45
5.89
8.59
9.95
10.81
11.70
12.91
14.29
15.38
16.02
16.19
16.21
16.54
17.50
19.07
20.97
22.60
23.22
22.34
19.76
15.72
10.78
5.56
0.59
-3.66
-6.90
-9.01
-10.03
-10.11
-9.52
-8.51
-7.25
-5.82
-4.26
-2.70
-1.44
-0.90
-1.38
-2.95
-5.33
-8.00
-10.44
-12.29
-13.51
-14.25
-14.78
-15.34
-16.10
-17.18
-18.65
-20.47
-22.40
-23.98
-24.65
-23.86
-21.38
-17.32
-12.13
-6.34
-0.48
5.10
10.14
14.41
17.64
19.63
20.33
19.92
18.72
17.09
15.28
13.34
11.27
9.04
6.69
4.37
2.23
0.36
-1.30
-2.96
-4.91
-7.37
-10.32
-13.40
-15.97
-17.30
-16.85
-14.49
-10.49
-5.45
0.02
5.37
10.26
14.42
17.59
19.60
20.37
20.03
18.95
17.58
16.31
15.37
14.72
14.19
13.56
12.66
11.37
9.63
7.37
4.60
1.38
-2.03
-5.27
-7.85
-9.32
-9.37
-7.88
-4.86
-0.43
5.22
11.81
18.88
25.74
31.60
35.75
37.86
38.09
36.97
35.24
33.54
32.21
31.29
30.66
30.17
29.81
29.65
29.80
30.21
30.70
30.97
30.73
29.80
28.12
25.81
23.11
20.42
18.27
17.38
18.60
22.71
30.13
40.63
53.11
65.76
76.41
83.15
84.87
81.56
74.26
64.63
54.38
44.77
36.36
28.95
21.90
14.30
5.35
-5.49
-18.21
-32.11
-45.86
-57.83
-66.57
-71.43
-72.76
-71.80
-70.08
-68.80
-68.33
-68.25
-67.63
-65.52
-61.27
-54.78
-46.33
-36.45
-25.67
-14.31
-2.39
10.28
23.88
38.36
53.28
67.95
81.74
94.41
106.19
117.53
128.64
139.14
147.98
153.84
155.71
153.34
147.34
138.89
129.29
119.59
110.60
103.08
97.86
95.72
97.03
101.34
107.30
112.93
116.26
115.89
111.36
102.99
91.61
78.08
63.18
47.62
32.12
17.39
4.00
-7.82
-18.20
-27.51
-36.07
-43.93
-50.88
-56.59
-60.81
-63.62
-65.29
-66.21
-66.56
-66.32
-65.26
-63.14
-59.83
-55.52
-50.66
-45.86
-41.69
-38.46
-36.15
-34.40
-32.66
-30.38
-27.15
-22.84
-17.56
-11.77
-6.10
-1.31
1.93
3.23
2.66
0.79
-1.49
-3.16
-3.38
-1.67
2.01
7.21
13.15
18.75
22.94
24.90
24.31
21.43
16.96
11.75
6.45
1.42
-3.22
-7.44
-11.09
-13.95
-15.93
-17.16
-18.09
-19.37
-21.48
-24.55
-28.36
-32.46
-36.45
-40.17
-43.76
-47.49
-51.50
-55.74
-59.88
-63.43
-65.96
-67.20
-67.10
-65.85
-63.71
-60.99
-57.91
-54.67
-51.36
-48.01
-44.51
-40.72
-36.54
-32.04
-27.66
-24.16
-22.49
-23.42
-27.09
-32.88
-39.54
-45.58
-49.84
-51.87
-51.91
-50.65
-48.83
-46.92
-45.09
-43.28
-41.51
-39.86
-38.49
-37.50
-36.74
-35.95
-34.82
-33.21
-31.20
-29.06
-27.09
-25.41
-23.96
-22.49
-20.67
-18.29
-15.29
-11.75
-7.92
-4.06
-0.48
2.61
5.05
6.78
7.81
8.19
8.02
7.32
6.14
4.46
2.31
-0.26
-3.17
-6.23
-9.26
-12.08
-14.57
-16.72
-18.64
-20.51
-22.49
-24.69
-27.10
-29.64
-32.23
-34.85
-37.53
-40.44
-43.77
-47.69
-52.33
-57.65
-63.51
-69.58
-75.45
-80.75
-85.16
-88.49
-90.71
-91.91
-92.26
-92.09
-91.79
-91.90
-92.99
-95.49
-99.64
-105.24
-111.66
-117.85
-122.57
-124.61
-123.12
-117.68
-108.23
-94.87
-77.67
-56.66
-31.96
-4.09
25.79
55.94
84.31
109.04
128.86
143.22
152.14
155.82
154.47
148.36
138.04
124.60
109.65
95.06
82.47
72.84
66.35
62.47
60.38
59.19
58.12
56.51
53.84
49.98
45.24
40.38
36.32
33.61
32.14
31.16
29.73
27.33
24.12
20.83
18.15
16.14
14.12
10.94
5.75
-1.49
-10.03
-18.73
-26.66
-33.47
-39.35
-44.76
-50.10
-55.68
-61.77
-68.73
-76.82
-86.01
-95.78
-105.12
-113.00
-118.75
-122.32
-124.16
-124.80
-124.37
-122.49
-118.49
-111.92
-102.89
-92.05
-80.12
-67.35
-53.29
-37.06
-17.99
3.71
26.90
49.93
71.44
90.63
106.82
118.57
123.41
118.53
102.53
77.02
46.93
18.96
-1.18
-11.31
-13.39
-12.09
-12.16
-16.19
-24.13
-34.45
-45.73
-57.67
-70.56
-84.08
-96.37
-104.20
-104.30
-94.84
-76.46
-52.15
-26.11
-2.32
16.66
30.00
38.33
42.91
44.93
45.20
44.18
42.25
39.97
38.00
36.76
36.20
35.59
33.82
29.93
23.57
15.20
5.86
-3.37
-11.82
-19.32
-26.03
-32.00
-36.84
-39.66
-39.33
-34.98
-26.29
-13.76
1.59
18.53
35.92
52.79
68.21
81.19
90.93
97.22
100.76
103.09
105.93
110.34
116.02
121.26
123.66
121.32
113.82
102.48
89.81
78.37
69.69
63.81
59.63
55.83
51.64
47.25
43.38
40.63
38.79
36.93
33.92
29.24
23.48
18.21
15.27
15.97
20.53
28.00
36.59
44.24
49.25
50.60
48.17
42.54
34.72
25.65
15.93
5.72
-5.05
-16.40
-28.01
-39.18
-49.07
-56.95
-62.44
-65.57
-66.72
-66.45
-65.37
-64.05
-62.97
-62.45
-62.60
-63.42
-64.82
-66.67
-68.79
-70.78
-72.00
-71.59
-68.79
-63.25
-55.27
-45.75
-35.84
-26.47
-18.08
-10.55
-3.52
3.23
9.64
15.35
20.06
23.72
26.65
29.35
32.26
35.54
39.01
42.25
44.85
46.55
47.32
47.33
46.80
45.95
44.85
43.45
41.59
39.04
35.60
31.11
25.52
19.00
11.92
4.79
-1.76
-7.17
-11.12
-13.55
-14.77
-15.21
-15.32
-15.40
-15.56
-15.85
-16.31
-17.08
-18.31
-20.07
-22.24
-24.57
-26.78
-28.70
-30.27
-31.49
-32.24
-32.31
-31.46
-29.57
-26.84
-23.74
-20.88
-18.83
-17.98
-18.48
-20.29
-23.17
-26.68
-30.11
-32.62
-33.42
-32.01
-28.40
-23.07
-16.82
-10.50
-4.73
0.20
4.44
8.45
12.86
18.21
24.71
32.14
39.84
46.93
52.63
56.49
58.50
58.99
58.48
57.43
56.28
55.30
54.68
54.41
54.26
53.75
52.36
49.68
45.72
40.88
35.89
31.56
28.38
26.49
25.64
25.49
25.91
27.04
29.34
33.14
38.39
44.43
50.13
54.24
55.95
55.15
52.54
49.31
46.70
45.55
46.11
48.07
50.89
54.13
57.56
61.09
64.46
66.96
67.54
65.14
59.24
50.09
38.62
25.95
12.99
0.25
-11.88
-22.77
-31.36
-36.45
-37.24
-33.89
-27.62
-20.17
-13.03
-6.75
-0.75
6.11
14.70
24.93
35.62
44.96
51.40
54.44
54.85
54.32
54.59
56.63
60.23
64.23
67.12
67.86
66.24
62.88
58.90
55.60
54.31
56.43
63.38
76.11
94.31
115.66
135.94
150.26
155.14
150.22
138.83
126.62
119.08
119.03
125.52
134.57
141.41
142.69
137.80
128.52
117.64
107.58
99.59
93.92
90.15
87.62
85.46
82.45
77.02
67.40
52.15
30.75
3.93
-26.33
-57.28
-86.03
-110.32
-128.84
-141.36
-148.43
-150.89
-149.51
-144.76
-136.97
-126.58
-114.45
-101.72
-89.51
-78.42
-68.47
-59.25
-50.36
-41.82
-34.19
-28.22
-24.43
-22.80
-22.75
-23.55
-24.62
-25.79
-27.13
-28.68
-30.27
-31.49
-32.14
-32.36
-32.75
-34.06
-36.82
-41.09
-46.60
-52.92
-59.65
-66.46
-72.92
-78.47
-82.58
-84.93
-85.65
-85.28
-84.44
-83.51
-82.38
-80.63
-77.88
-74.00
-69.26
-64.10
-58.94
-54.05
-49.54
-45.49
-41.88
-38.68
-35.76
-33.00
-30.30
-27.67
-25.20
-22.91
-20.76
-18.60
-16.36
-14.15
-12.34
-11.33
-11.39
-12.49
-14.28
-16.41
-18.60
-20.90
-23.40
-26.21
-29.19
-31.93
-33.93
-34.70
-33.96
-31.71
-28.20
-23.83
-19.11
-14.57
-10.66
-7.69
-5.80
-4.99
-5.18
-6.20
-7.89
-10.03
-12.38
-14.70
-16.89
-18.97
-21.01
-23.02
-24.85
-26.25
-27.01
-27.14
-26.86
-26.54
-26.47
-26.77
-27.33
-27.88
-28.12
-27.80
-26.80
-25.07
-22.68
-19.79
-16.68
-13.60
-10.75
-8.20
-5.97
-4.08
-2.66
-1.90
-1.95
-2.79
-4.25
-6.07
-8.03
-10.01
-12.01
-14.07
-16.22
-18.35
-20.32
-21.91
-23.02
-23.68
-24.03
-24.30
-24.65
-25.12
-25.62
-25.99
-26.10
-25.92
-25.45
-24.71
-23.64
-22.09
-20.01
-17.42
-14.54
-11.71
-9.24
-7.33
-6.02
-5.17
-4.55
-3.94
-3.16
-2.22
-1.23
-0.46
-0.13
-0.34
-0.92
-1.54
-1.84
-1.61
-0.96
-0.17
0.44
0.63
0.36
-0.30
-1.28
-2.54
-4.06
-5.80
-7.61
-9.29
-10.65
-11.53
-11.90
-11.80
-11.29
-10.48
-9.46
-8.38
-7.41
-6.71
-6.40
-6.55
-7.11
-8.02
-9.12
-10.25
-11.32
-12.31
-13.28
-14.37
-15.67
-17.19
-18.78
-20.22
-21.33
-22.10
-22.65
-23.29
-24.22
-25.48
-26.78
-27.63
-27.47
-25.91
-22.84
-18.44
-13.13
-7.41
-1.92
2.67
5.53
5.88
3.15
-2.85
-11.89
-23.51
-37.36
-53.39
-71.76
-92.39
-114.49
-136.35
-155.69
-170.35
-179.16
-182.30
-181.09
-177.11
-171.52
-164.50
-155.48
-143.74
-129.11
-112.30
-94.84
-78.74
-65.87
-57.55
-54.31
-55.75
-60.77
-67.50
-73.65
-76.67
-74.29
-65.12
-49.10
-27.69
-3.46
20.70
42.52
61.08
76.82
91.03
104.98
119.14
132.89
144.93
153.87
159.04
160.65
159.65
157.20
154.10
150.55
146.15
140.40
132.84
123.34
111.84
98.24
82.37
64.21
44.17
23.10
2.01
-18.48
-38.42
-58.60
-80.03
-103.18
-127.59
-151.58
-172.82
-189.07
-198.92
-202.10
-199.33
-191.71
-180.06
-164.64
-145.10
-121.12
-93.27
-63.60
-35.33
-11.83
4.86
14.93
20.72
25.35
31.07
38.35
45.93
52.11
55.91
57.48
57.77
57.36
56.26
54.03
50.53
46.20
41.65
37.02
31.72
25.00
17.00
9.36
4.71
5.40
12.03
22.91
34.89
44.81
51.01
53.78
55.13
57.65
63.50
73.63
87.53
103.33
118.49
130.69
138.55
142.08
142.30
140.36
136.88
131.51
123.47
112.27
98.31
82.91
67.64
53.63
41.07
29.41
17.81
5.78
-6.62
-18.80
-30.14
-40.25
-49.19
-57.29
-64.79
-71.51
-76.51
-78.26
-75.12
-66.12
-51.60
-33.41
-14.41
2.46
15.26
23.49
28.03
30.50
32.44
34.89
38.34
42.91
48.60
55.30
62.73
70.43
77.76
84.13
89.06
92.28
93.68
93.35
91.48
88.32
84.17
79.26
73.71
67.54
60.66
53.02
44.58
35.38
25.56
15.51
5.90
-2.36
-8.30
-11.24
-11.03
-8.17
-3.58
1.68
6.80
11.33
15.27
18.86
22.35
25.90
29.47
32.87
35.83
38.10
39.57
40.27
40.35
39.99
39.31
38.33
37.00
35.26
33.11
30.67
28.15
25.82
23.87
22.32
20.98
19.51
17.58
15.01
11.89
8.50
5.25
2.62
1.14
1.39
3.93
9.19
17.15
27.36
38.99
51.18
63.42
75.85
89.04
103.59
119.48
135.77
150.60
161.89
168.14
169.08
165.92
160.98
156.94
156.04
159.51
167.36
178.35
190.31
200.53
206.35
205.73
197.78
182.96
162.77
139.15
113.87
88.06
62.20
36.42
10.79
-14.35
-38.31
-59.99
-77.97
-90.67
-96.72
-95.49
-87.44
-74.29
-58.73
-43.79
-32.09
-25.18
-23.25
-25.25
-29.26
-33.09
-34.90
-33.80
-30.04
-25.00
-20.60
-18.59
-19.90
-24.25
-30.37
-36.48
-40.90
-42.58
-41.22
-37.25
-31.58
-25.25
-19.18
-14.06
-10.28
-7.98
-7.10
-7.41
-8.58
-10.19
-11.79
-13.05
-13.88
-14.48
-15.21
-16.46
-18.40
-20.99
-24.04
-27.43
-31.20
-35.44
-40.16
-45.03
-49.49
-52.89
-54.94
-55.83
-56.19
-56.78
-57.99
-59.71
-61.37
-62.33
-62.35
-61.70
-61.02
-60.86
-61.36
-62.07
-62.18
-60.99
-58.28
-54.50
-50.58
-47.58
-46.23
-46.74
-48.76
-51.64
-54.76
-57.80
-60.70
-63.62
-66.65
-69.64
-72.23
-73.92
-74.37
-73.48
-71.43
-68.57
-65.28
-61.88
-58.68
-55.92
-53.83
-52.58
-52.10
-52.08
-51.92
-51.02
-48.95
-45.70
-41.70
-37.72
-34.53
-32.65
-32.17
-32.78
-34.05
-35.66
-37.57
-40.03
-43.31
-47.50
-52.35
-57.38
-62.04
-66.09
-69.67
-73.33
-77.63
-82.83
-88.69
-94.63
-100.10
-105.09
-110.34
-117.06
-126.26
-138.00
-151.05
-163.15
-171.76
-174.94
-171.83
-162.73
-148.74
-131.32
-112.07
-92.57
-74.29
-58.29
-44.97
-34.01
-24.55
-15.62
-6.48
3.27
13.92
25.73
38.85
52.78
66.14
76.84
82.66
82.18
75.47
64.29
51.71
41.18
35.53
36.09
42.31
51.92
61.87
69.63
74.27
76.92
80.09
86.22
96.18
108.52
120.09
127.47
128.50
122.84
111.76
97.31
81.57
66.36
53.13
42.99
36.61
33.87
33.92
35.56
37.94
41.10
46.03
54.03
65.90
81.22
98.11
113.68
124.81
129.13
125.67
115.19
99.75
81.91
63.73
46.17
29.05
11.93
-4.97
-20.31
-32.29
-40.18
-45.68
-53.15
-67.92
-93.56
-129.33
-169.57
-205.41
-228.27
-233.16
-220.30
-194.34
-161.87
-128.73
-98.39
-72.12
-50.02
-32.28
-19.46
-12.24
-10.57
-13.27
-18.17
-22.82
-25.50
-25.81
-24.79
-24.34
-26.31
-31.53
-39.34
-47.82
-54.48
-57.40
-55.85
-50.46
-42.59
-33.68
-24.68
-16.13
-8.46
-2.34
1.38
2.07
-0.24
-4.60
-9.50
-13.45
-15.49
-15.47
-13.83
-11.25
-8.26
-5.23
-2.42
-0.21
0.89
0.42
-1.69
-4.98
-8.40
-10.62
-10.52
-7.61
-2.23
4.69
12.00
18.82
24.76
29.77
33.93
37.07
38.88
39.06
37.70
35.37
32.93
31.16
30.44
30.71
31.65
32.98
34.57
36.38
38.21
39.63
40.21
39.77
38.67
37.72
37.83
39.60
43.19
48.33
54.61
61.70
69.26
76.79
83.60
88.88
92.02
92.84
91.62
88.91
85.14
80.44
74.73
68.03
60.78
53.76
47.94
43.97
41.98
41.50
41.85
42.45
43.04
43.66
44.40
45.04
45.06
43.71
40.45
35.30
29.01
22.96
18.74
17.69
20.49
27.10
36.82
48.67
61.68
75.12
88.58
101.74
114.24
125.48
134.62
140.77
143.37
142.48
138.81
133.56
127.86
122.47
117.54
112.91
108.38
104.08
100.44
97.97
96.79
96.42
95.69
93.01
86.82
75.99
60.26
40.49
18.66
-2.63
-20.82
-34.21
-42.42
-46.40
-48.06
-49.66
-53.34
-60.77
-72.71
-88.48
-105.37
-118.76
-123.14
-114.03
-90.02
-53.82
-11.59
29.44
63.67
88.80
105.57
115.94
121.00
120.04
111.27
93.71
68.82
40.63
14.31
-5.96
-18.48
-24.20
-25.53
-24.63
-22.36
-18.21
-11.15
-0.70
12.31
25.84
37.20
43.87
44.34
38.41
27.16
12.48
-3.55
-19.24
-33.62
-46.41
-57.67
-67.39
-75.39
-81.36
-85.09
-86.74
-86.88
-86.34
-85.84
-85.72
-85.89
-85.91
-85.24
-83.55
-80.84
-77.41
-73.70
-70.14
-67.01
-64.32
-61.91
-59.52
-56.98
-54.25
-51.55
-49.20
-47.51
-46.68
-46.60
-47.01
-47.53
-47.76
-47.46
-46.53
-45.01
-43.05
-40.80
-38.47
-36.25
-34.32
-32.82
-31.78
-31.04
-30.33
-29.29
-27.72
-25.61
-23.18
-20.78
-18.75
-17.34
-16.63
-16.70
-17.63
-19.52
-22.42
-26.20
-30.61
-35.35
-40.20
-45.12
-50.15
-55.35
-60.72
-66.12
-71.41
-76.48
-81.26
-85.70
-89.76
-93.26
-95.93
-97.45
-97.54
-96.16
-93.43
-89.63
-84.97
-79.53
-73.24
-66.01
-57.90
-49.20
-40.35
-31.67
-23.22
-14.69
-5.54
4.77
16.59
30.07
45.15
61.51
78.67
95.86
112.13
126.58
138.60
148.01
154.95
159.64
162.02
161.83
158.79
152.99
145.06
135.95
126.56
117.39
108.52
99.91
91.80
84.84
79.86
77.32
76.90
77.43
77.25
74.77
69.01
59.77
47.39
32.59
16.12
-1.34
-19.19
-36.90
-54.00
-70.01
-84.55
-97.32
-108.16
-117.07
-124.23
-129.86
-134.21
-137.47
-139.77
-141.27
-142.14
-142.58
-142.80
-142.89
-142.86
-142.60
-142.06
-141.26
-140.28
-139.22
-138.07
-136.69
-134.91
-132.62
-129.94
-127.26
-125.10
-123.98
-124.11
-125.29
-126.86
-127.87
-127.33
-124.34
-118.29
-108.79
-95.73
-79.26
-59.94
-38.72
-16.92
3.95
22.51
37.76
49.17
56.63
60.39
60.85
58.59
54.33
48.85
42.88
36.94
31.30
26.01
21.10
16.72
13.09
10.30
8.12
5.95
3.16
-0.47
-4.46
-7.72
-9.13
-8.24
-5.65
-2.66
-0.48
0.57
1.22
2.70
5.83
10.33
15.00
18.61
20.57
21.33
21.83
22.79
24.39
26.63
30.14
36.49
47.55
63.81
83.21
101.06
111.69
110.99
98.40
77.06
52.38
29.63
12.06
0.46
-6.07
-8.85
-8.70
-5.93
-0.87
5.76
12.80
19.18
24.54
29.30
34.30
40.22
47.00
53.68
58.75
60.71
58.75
53.14
45.18
36.90
30.46
27.50
28.50
32.71
38.27
42.86
44.59
42.63
37.53
30.84
24.31
19.13
15.49
12.68
9.73
6.02
1.71
-2.27
-4.61
-4.19
-0.54
6.10
14.86
24.61
34.36
43.50
51.84
59.39
66.14
71.78
75.55
76.39
73.32
66.08
55.65
44.49
36.03
33.80
40.24
55.88
79.33
107.87
138.26
167.49
193.00
212.85
225.95
232.43
233.85
232.86
232.19
233.41
236.16
238.40
237.55
231.77
220.66
205.06
186.09
164.30
139.53
111.43
80.22
47.04
13.66
-18.35
-48.26
-76.42
-103.83
-131.38
-159.19
-186.46
-211.92
-234.46
-253.74
-270.19
-284.50
-296.95
-306.98
-313.16
-313.73
-307.07
-292.27
-269.33
-239.14
-203.39
-164.27
-124.07
-84.77
-47.68
-13.35
18.09
46.45
71.20
91.43
106.19
115.04
118.21
116.39
110.38
100.72
87.76
72.13
55.11
38.75
25.54
17.61
15.99
20.20
28.44
38.15
46.88
52.83
55.14
53.84
49.50
42.87
34.71
25.67
16.32
7.11
-1.61
-9.62
-16.79
-22.93
-27.68
-30.46
-30.71
-28.31
-23.87
-18.82
-15.01
-14.03
-16.48
-21.78
-28.45
-34.83
-39.56
-41.77
-40.67
-35.23
-24.13
-6.39
17.71
45.98
74.38
97.98
112.52
115.64
107.48
90.27
67.28
41.77
16.28
-7.57
-28.85
-47.08
-62.16
-74.29
-84.05
-92.19
-99.33
-105.62
-110.48
-112.76
-111.15
-104.68
-93.20
-77.53
-59.35
-40.87
-24.24
-11.07
-1.95
3.69
7.51
11.71
18.39
28.87
43.32
60.86
80.03
99.29
117.41
133.54
147.07
157.37
163.82
165.91
163.53
157.02
147.14
134.65
120.07
103.49
84.72
63.58
40.25
15.39
-9.94
-34.45
-56.93
-76.48
-92.58
-105.14
-114.45
-121.09
-125.76
-129.12
-131.61
-133.36
-134.26
-134.12
-132.89
-130.64
-127.62
-123.99
-119.84
-115.12
-109.77
-103.87
-97.65
-91.54
-85.99
-81.34
-77.66
-74.74
-72.16
-69.46
-66.29
-62.51
-58.17
-53.44
-48.44
-43.16
-37.54
-31.48
-25.02
-18.27
-11.42
-4.61
2.04
8.47
14.62
20.33
25.43
29.68
32.83
34.72
35.31
34.72
33.28
31.42
29.54
27.86
26.25
24.36
21.79
18.31
14.08
9.60
5.44
2.09
-0.28
-1.71
-2.38
-2.38
-1.83
-0.86
0.25
1.11
1.33
0.69
-0.76
-2.74
-4.83
-6.61
-7.80
-8.31
-8.17
-7.58
-6.81
-6.08
-5.52
-5.05
-4.43
-3.35
-1.61
0.86
3.96
7.49
11.21
14.79
17.89
20.14
21.21
21.00
19.65
17.54
15.15
12.91
11.04
9.55
8.26
6.91
5.33
3.49
1.55
-0.27
-1.82
-3.14
-4.48
-6.24
-8.71
-11.93
-15.62
-19.30
-22.48
-24.90
-26.59
-27.84
-28.98
-30.25
-31.70
-33.22
-34.59
-35.64
-36.30
-36.65
-36.87
-37.17
-37.67
-38.40
-39.33
-40.41
-41.72
-43.39
-45.42
-47.60
-49.42
-50.24
-49.60
-47.44
-44.21
-40.71
-37.79
-36.11
-36.05
-37.70
-40.98
-45.54
-50.79
-55.85
-59.84
-62.16
-62.82
-62.47
-62.09
-62.49
-63.90
-65.91
-67.78
-68.87
-69.01
-68.49
-67.75
-67.08
-66.35
-65.05
-62.44
-57.77
-50.36
-39.66
-25.34
-7.48
13.16
35.06
56.08
73.95
87.03
94.92
98.59
99.90
100.80
102.48
105.09
107.97
110.25
111.41
111.34
110.06
107.30
102.32
94.28
82.88
68.93
54.41
41.95
33.86
31.27
33.91
40.34
48.80
57.76
66.29
73.88
80.08
84.25
85.64
83.84
79.01
72.00
64.05
56.35
49.73
44.55
40.81
38.30
36.81
36.41
37.69
41.96
51.07
66.64
89.11
116.88
146.22
172.07
189.54
195.24
188.03
168.75
139.46
102.60
60.52
15.71
-28.88
-69.80
-103.54
-127.42
-140.30
-142.65
-136.23
-123.14
-105.37
-84.67
-62.78
-41.45
-22.14
-5.38
9.47
23.57
37.24
48.99
55.73
54.52
44.79
29.47
14.17
4.48
3.28
9.52
19.19
27.86
33.07
35.15
36.23
38.41
42.29
46.72
49.75
49.91
47.06
42.39
37.79
34.92
34.63
36.63
39.85
42.88
44.60
44.45
42.43
38.79
33.76
27.44
19.85
11.13
1.66
-7.92
-16.92
-24.73
-31.01
-35.69
-39.02
-41.42
-43.43
-45.51
-47.95
-50.75
-53.61
-56.07
-57.71
-58.33
-58.06
-57.29
-56.42
-55.75
-55.30
-54.95
-54.50
-53.91
-53.26
-52.68
-52.18
-51.50
-50.23
-48.00
-44.70
-40.67
-36.54
-33.01
-30.57
-29.34
-29.10
-29.37
-29.71
-29.77
-29.36
-28.44
-27.12
-25.67
-24.42
-23.71
-23.79
-24.71
-26.34
-28.47
-30.80
-33.15
-35.37
-37.40
-39.23
-40.94
-42.68
-44.63
-46.88
-49.40
-52.03
-54.58
-56.95
-59.24
-61.69
-64.59
-68.12
-72.29
-76.88
-81.50
-85.69
-88.88
-90.59
-90.46
-88.38
-84.50
-79.08
-72.32
-64.17
-54.44
-42.95
-29.85
-15.75
-1.62
11.60
23.23
33.05
41.04
47.01
50.46
50.79
47.87
42.63
37.30
34.67
37.12
45.49
58.50
73.24
86.61
96.66
103.22
107.07
108.53
106.89
101.15
91.64
80.88
72.96
71.27
76.28
84.88
92.03
93.63
88.56
78.62
66.67
54.13
40.00
21.87
-1.96
-30.62
-60.45
-86.41
-104.03
-110.80
-106.75
-94.32
-77.35
-60.16
-46.32
-37.73
-34.39
-34.70
-36.42
-37.75
-37.96
-37.34
-36.59
-36.31
-36.58
-37.16
-37.98
-39.47
-42.70
-48.89
-58.80
-72.03
-86.91
-100.76
-110.80
-115.07
-113.12
-106.06
-95.95
-84.85
-73.98
-63.54
-53.00
-41.84
-30.24
-19.28
-10.65
-5.82
-5.38
-8.50
-13.26
-17.36
-19.00
-17.63
-14.11
-10.43
-8.85
-10.99
-17.15
-26.16
-35.98
-44.52
-50.53
-53.83
-54.93
-54.37
-52.11
-47.56
-40.02
-29.37
-16.42
-2.73
10.03
20.81
29.42
36.31
41.91
46.15
48.36
47.60
43.31
35.66
25.64
14.66
4.08
-5.19
-12.85
-19.10
-24.36
-29.04
-33.33
-37.40
-41.56
-46.40
-52.67
-60.90
-70.90
-81.41
-90.38
-95.55
-95.30
-89.16
-77.79
-62.42
-44.38
-24.73
-4.46
15.31
33.17
47.79
58.39
65.05
68.66
70.46
71.37
71.74
71.35
69.80
66.79
62.38
56.87
50.68
44.38
38.57
33.95
31.15
30.44
31.60
33.75
35.74
36.38
35.00
31.53
26.48
20.66
15.00
10.45
8.00
8.65
13.24
22.21
35.26
51.36
68.93
86.27
101.98
115.24
125.66
133.01
136.95
136.97
132.73
124.45
113.29
101.19
90.34
82.34
77.54
75.07
73.41
71.27
68.46
65.82
64.60
65.59
68.41
71.63
73.33
72.12
67.93
62.24
57.72
57.29
63.06
75.42
92.82
112.10
129.25
140.59
143.76
138.55
126.98
112.96
101.06
94.88
95.47
100.60
105.31
103.88
92.14
69.46
38.98
6.27
-22.74
-43.87
-55.89
-60.52
-61.78
-65.14
-76.40
-100.00
-137.10
-184.01
-232.37
-271.34
-291.51
-288.60
-264.89
-227.88
-186.71
-148.69
-117.43
-93.22
-74.78
-60.86
-50.62
-43.17
-37.00
-30.17
-21.27
-10.32
1.19
11.24
18.51
22.97
25.76
28.37
31.83
36.55
42.53
49.74
58.07
67.14
75.98
83.22
87.69
88.93
87.47
84.39
80.68
76.48
71.11
63.48
52.87
39.55
24.84
10.65
-1.21
-9.66
-14.61
-16.81
-17.45
-17.69
-18.23
-19.36
-21.01
-23.05
-25.45
-28.34
-31.87
-36.04
-40.60
-45.09
-49.06
-52.20
-54.50
-56.16
-57.56
-59.03
-60.81
-62.96
-65.35
-67.70
-69.71
-71.14
-71.95
-72.32
-72.55
-72.86
-73.18
-73.06
-71.81
-68.75
-63.51
-56.16
-47.19
-37.26
-27.00
-16.84
-7.03
2.32
11.09
19.05
25.94
31.50
35.65
38.51
40.41
41.70
42.67
43.48
44.09
44.38
44.25
43.66
42.66
41.33
39.69
37.70
35.24
32.22
28.58
24.38
19.79
15.13
10.87
7.58
5.81
5.98
8.16
12.06
17.10
22.56
27.79
32.24
35.56
37.55
38.12
37.38
35.59
33.25
30.89
29.01
27.84
27.35
27.22
27.07
26.65
25.86
24.83
23.69
22.55
21.37
19.99
18.24
15.95
13.02
9.43
5.24
0.67
-3.93
-7.96
-10.76
-11.77
-10.71
-7.69
-3.18
2.17
7.73
12.97
17.49
21.01
23.23
23.96
23.18
21.17
18.51
15.94
14.06
13.13
12.92
12.85
12.25
10.73
8.23
5.05
1.60
-1.87
-5.25
-8.53
-11.67
-14.44
-16.63
-18.15
-19.12
-19.78
-20.29
-20.51
-19.95
-18.09
-14.60
-9.64
-3.86
1.90
6.80
10.33
12.34
12.94
12.33
10.69
8.15
4.83
0.94
-3.21
-7.29
-11.09
-14.61
-18.03
-21.56
-25.27
-28.91
-31.90
-33.53
-33.22
-30.78
-26.45
-20.86
-14.70
-8.62
-3.08
1.68
5.47
8.25
10.08
11.15
11.70
11.80
11.30
9.77
6.77
2.13
-3.79
-10.09
-15.68
-19.65
-21.60
-21.78
-20.94
-20.00
-19.79
-20.76
-22.96
-26.05
-29.42
-32.33
-34.13
-34.32
-32.66
-29.20
-24.20
-18.11
-11.50
-4.96
0.97
5.94
9.90
13.15
16.23
19.69
23.86
28.69
33.79
38.60
42.53
45.28
46.71
46.88
45.87
43.74
40.63
36.72
32.38
28.02
24.05
20.74
18.19
16.37
15.17
14.43
14.03
13.83
13.70
13.48
13.00
12.12
10.70
8.72
6.27
3.52
0.79
-1.55
-3.07
-3.37
-2.16
0.59
4.52
8.93
12.92
15.67
16.77
16.31
14.85
13.10
11.61
10.58
9.81
8.84
7.23
4.75
1.52
-2.00
-5.17
-7.36
-8.22
-7.73
-6.25
-4.31
-2.45
-1.10
-0.41
-0.22
0.10
1.52
5.24
12.13
22.28
34.66
47.32
58.11
65.63
69.82
71.99
74.06
77.45
82.28
87.18
89.89
88.32
81.53
70.20
56.59
43.91
35.42
33.64
39.68
52.87
70.96
90.62
108.45
121.99
130.40
134.48
136.01
136.74
137.65
138.70
139.14
138.05
134.75
129.05
121.23
112.01
102.42
93.47
85.71
78.71
70.99
60.51
45.69
26.41
4.28
-17.92
-37.51
-52.91
-63.99
-71.53
-76.40
-78.98
-79.27
-77.32
-73.78
-69.83
-66.79
-65.45
-65.79
-67.12
-68.61
-69.83
-70.91
-72.39
-74.79
-78.27
-82.51
-86.81
-90.38
-92.52
-92.79
-91.11
-87.76
-83.38
-78.84
-75.04
-72.63
-71.81
-72.29
-73.46
-74.68
-75.50
-75.84
-75.83
-75.69
-75.55
-75.37
-75.00
-74.34
-73.42
-72.41
-71.59
-71.18
-71.28
-71.87
-72.86
-74.14
-75.65
-77.30
-78.92
-80.20
-80.77
-80.29
-78.56
-75.64
-71.81
-67.47
-63.08
-59.03
-55.67
-53.28
-52.01
-51.92
-52.84
-54.46
-56.40
-58.35
-60.17
-61.96
-63.89
-66.09
-68.57
-71.13
-73.40
-75.03
-75.68
-75.16
-73.42
-70.55
-66.75
-62.30
-57.51
-52.58
-47.43
-41.72
-34.81
-26.07
-15.13
-2.11
12.38
27.34
41.79
54.95
66.45
76.22
84.34
90.91
95.95
99.51
101.76
103.04
103.76
104.24
104.58
104.61
104.01
102.56
100.24
97.35
94.38
91.81
89.89
88.58
87.52
86.24
84.33
81.58
77.96
73.63
68.68
63.08
56.76
49.61
41.82
33.81
26.28
19.88
14.95
11.44
8.96
7.03
5.32
3.70
2.20
0.78
-0.67
-2.25
-3.98
-5.65
-6.96
-7.70
-7.89
-7.90
-8.29
-9.65
-12.49
-17.16
-23.78
-32.25
-42.26
-53.27
-64.68
-75.88
-86.32
-95.53
-103.06
-108.56
-111.77
-112.76
-111.86
-109.72
-107.02
-104.29
-101.83
-99.69
-97.76
-95.87
-93.79
-91.25
-87.96
-83.68
-78.29
-71.86
-64.62
-56.94
-49.23
-41.85
-35.07
-29.00
-23.68
-19.04
-15.10
-11.90
-9.50
-7.82
-6.57
-5.18
-2.92
0.86
6.55
14.12
23.14
32.90
42.58
51.45
58.95
64.72
68.58
70.50
70.61
69.14
66.48
63.13
59.67
56.63
54.35
52.89
51.99
51.21
50.17
48.81
47.33
46.14
45.51
45.36
45.16
44.16
41.71
37.64
32.31
26.52
21.19
17.03
14.40
13.32
13.55
14.74
16.49
18.44
20.24
21.60
22.26
22.01
20.67
18.22
14.84
11.04
7.46
4.66
2.84
1.74
0.84
-0.37
-2.03
-3.96
-5.92
-7.92
-10.44
-14.21
-19.89
-27.57
-36.70
-46.22
-54.96
-62.09
-67.27
-70.62
-72.42
-72.92
-72.18
-70.01
-66.18
-60.51
-53.12
-44.42
-35.08
-25.84
-17.30
-9.76
-3.23
2.45
7.40
11.58
14.74
16.62
17.11
16.43
15.11
13.77
12.90
12.63
12.74
12.75
12.17
10.77
8.66
6.28
4.20
2.97
2.97
4.31
6.91
10.58
15.10
20.23
25.74
31.24
36.27
40.37
43.21
44.79
45.40
45.58
45.91
46.82
48.49
50.85
53.64
56.52
59.19
61.44
63.12
64.17
64.64
64.62
64.18
63.37
62.04
59.92
56.66
51.99
45.92
38.79
31.23
23.91
17.27
11.36
5.94
0.61
-4.90
-10.60
-16.27
-21.63
-26.50
-30.83
-34.70
-38.09
-40.90
-42.91
-44.01
-44.26
-43.92
-43.44
-43.18
-43.35
-43.95
-44.86
-45.96
-47.21
-48.63
-50.31
-52.32
-54.77
-57.79
-61.42
-65.61
-70.01
-73.97
-76.71
-77.49
-75.86
-71.78
-65.62
-57.97
-49.51
-40.80
-32.25
-24.03
-16.12
-8.36
-0.62
7.01
14.17
20.13
24.11
25.49
24.13
20.53
15.73
11.04
7.69
6.47
7.40
9.74
12.13
13.08
11.51
7.19
0.79
-6.42
-13.04
-18.06
-21.07
-22.18
-21.75
-20.21
-17.92
-15.23
-12.38
-9.48
-6.29
-2.23
3.53
11.69
22.48
35.48
49.76
64.15
77.63
89.54
99.67
108.04
114.76
119.93
123.50
125.43
125.68
124.30
121.44
117.32
112.12
105.96
98.89
90.92
82.15
72.78
63.12
53.50
44.18
35.25
26.64
18.20
9.75
1.24
-7.26
-15.57
-23.41
-30.62
-37.20
-43.37
-49.42
-55.54
-61.59
-67.04
-71.13
-73.14
-72.59
-69.42
-63.87
-56.38
-47.54
-38.11
-29.14
-21.86
-17.40
-16.31
-18.34
-22.32
-26.51
-29.11
-28.72
-24.73
-17.27
-7.10
4.63
16.57
27.38
35.86
41.07
42.55
40.33
34.92
27.17
18.10
8.55
-0.87
-10.05
-19.26
-29.08
-40.05
-52.35
-65.47
-78.29
-89.31
-97.22
-101.32
-101.79
-99.37
-94.96
-89.17
-82.11
-73.63
-63.67
-52.52
-40.94
-29.87
-20.13
-12.16
-5.98
-1.27
2.31
5.06
7.14
8.67
9.76
10.55
11.25
11.98
12.80
13.67
14.49
15.17
15.71
16.10
16.27
16.07
15.24
13.52
10.78
6.95
2.21
-3.18
-8.75
-13.89
-17.91
-20.21
-20.48
-18.81
-15.64
-11.62
-7.41
-3.54
-0.36
1.96
3.42
4.22
4.66
5.06
5.62
6.24
6.63
6.42
5.42
3.75
1.84
0.17
-0.97
-1.63
-2.15
-3.00
-4.49
-6.69
-9.38
-12.19
-14.65
-16.32
-16.67
-15.16
-11.41
-5.43
2.26
10.65
18.62
25.32
30.47
34.42
37.74
40.96
44.24
47.50
50.55
53.38
56.10
58.87
61.64
64.19
66.12
67.08
66.91
65.65
63.42
60.32
56.35
51.43
45.44
38.23
29.65
19.60
8.06
-4.74
-18.18
-31.27
-42.88
-52.06
-58.45
-62.39
-64.77
-66.51
-68.15
-69.49
-69.79
-68.21
-64.34
-58.52
-51.70
-45.02
-39.23
-34.48
-30.33
-26.15
-21.49
-16.31
-10.82
-5.27
0.31
6.15
12.57
19.63
27.01
34.00
39.79
43.80
45.83
46.04
44.85
42.71
40.09
37.55
35.67
34.97
35.61
37.23
38.82
38.93
36.13
29.41
18.56
4.22
-12.15
-28.64
-43.23
-54.26
-60.77
-62.68
-60.73
-56.19
-50.39
-44.38
-38.76
-33.73
-29.25
-25.17
-21.33
-17.41
-13.01
-7.68
-1.18
6.36
14.33
21.93
28.47
33.74
38.19
42.70
48.25
55.47
64.42
74.64
85.42
96.18
106.55
116.30
125.08
132.22
136.62
137.00
132.23
121.65
105.22
83.57
57.90
30.01
2.33
-22.30
-41.14
-52.30
-55.48
-52.17
-45.19
-37.62
-31.75
-28.41
-27.09
-26.59
-25.72
-23.66
-19.98
-14.36
-6.58
3.18
13.87
23.47
29.46
29.68
23.37
11.49
-3.61
-19.14
-32.84
-43.60
-51.42
-56.88
-60.59
-62.81
-63.37
-61.92
-58.23
-52.35
-44.68
-35.90
-26.90
-18.67
-12.17
-8.23
-7.36
-9.64
-14.71
-21.84
-30.14
-38.80
-47.30
-55.39
-63.07
-70.38
-77.32
-83.96
-90.40
-96.82
-103.28
-109.54
-114.97
-118.68
-119.94
-118.45
-114.48
-108.67
-101.63
-93.65
-84.60
-74.21
-62.38
-49.46
-36.24
-23.61
-12.31
-2.58
5.72
13.09
20.02
26.88
33.81
40.87
48.06
55.49
63.29
71.56
80.24
88.99
97.35
104.83
111.13
116.19
120.18
123.23
125.41
126.57
126.56
125.29
122.89
119.68
116.01
112.11
107.90
102.99
96.79
88.76
78.67
66.77
53.78
40.61
28.03
16.39
5.60
-4.60
-14.45
-23.99
-33.33
-42.88
-53.53
-66.51
-82.87
-102.96
-126.18
-151.02
-175.33
-196.61
-212.24
-219.60
-216.42
-201.29
-174.29
-137.38
-94.19
-49.27
-7.13
28.72
56.21
74.82
85.27
89.33
89.43
88.27
88.11
90.00
93.31
95.94
95.05
88.35
74.95
55.65
32.39
7.47
-17.10
-39.79
-59.42
-74.99
-85.68
-91.08
-91.44
-87.65
-80.93
-72.39
-62.66
-51.85
-39.74
-26.17
-11.41
3.66
17.60
28.80
35.90
38.33
36.47
31.53
25.13
18.81
13.72
10.46
9.10
9.29
10.34
11.45
11.85
11.01
8.78
5.38
1.26
-3.03
-7.03
-10.30
-12.48
-13.21
-12.29
-9.78
-6.07
-1.76
2.53
6.39
9.66
12.42
14.68
16.35
17.13
16.73
15.02
12.21
8.78
5.36
2.55
0.75
0.17
0.80
2.50
5.02
7.96
10.85
13.22
14.72
15.25
14.93
14.07
12.99
11.89
10.78
9.62
8.34
7.03
5.88
5.06
4.58
4.32
4.11
3.95
4.03
4.57
5.54
6.49
6.71
5.66
3.58
1.58
1.39
4.42
10.89
19.36
27.11
31.23
29.86
23.10
12.96
2.54
-5.19
-8.42
-6.86
-1.38
6.68
16.14
26.05
35.41
42.83
46.61
45.42
39.09
29.17
18.55
10.42
7.01
8.76
14.41
21.41
26.74
27.36
20.87
6.14
-15.76
-41.27
-64.84
-80.61
-84.44
-75.32
-55.68
-30.19
-4.16
17.82
32.52
38.26
35.22
25.80
14.87
8.83
13.75
32.79
64.37
102.20
137.32
161.25
169.03
160.68
140.60
115.47
91.61
72.94
60.47
52.88
47.85
43.16
37.30
29.59
20.17
9.94
0.66
-5.31
-5.47
1.79
16.62
37.60
62.33
88.24
113.15
135.17
152.32
162.35
163.18
153.83
135.24
110.31
83.05
57.18
34.96
16.71
1.23
-13.53
-30.02
-51.06
-79.76
-118.68
-168.31
-225.52
-283.20
-331.80
-362.29
-369.20
-352.38
-316.61
-269.56
-219.21
-171.91
-131.65
-100.20
-77.71
-63.19
-54.85
-50.60
-48.52
-47.52
-47.37
-48.50
-51.21
-55.36
-60.25
-64.83
-68.06
-69.12
-67.37
-62.43
-54.21
-43.04
-29.79
-15.80
-2.68
8.12
15.68
19.87
21.28
20.94
19.85
18.70
17.75
17.00
16.34
15.79
15.46
15.44
15.71
16.03
16.03
15.27
13.42
10.40
6.33
1.51
-3.77
-9.21
-14.51
-19.42
-23.61
-26.73
-28.32
-27.99
-25.52
-21.03
-15.03
-8.37
-2.04
2.99
6.10
7.24
6.98
6.23
6.12
7.60
11.27
17.14
24.34
31.61
38.02
43.42
48.36
53.57
59.42
65.51
70.95
74.15
74.07
70.85
65.89
61.05
58.10
58.44
63.06
72.58
85.64
99.61
111.19
117.31
115.81
106.12
89.69
69.14
47.79
26.62
5.75
-14.74
-34.30
-52.43
-69.18
-85.07
-101.26
-112.06
-112.92
-102.25
-83.07
-60.01
-36.71
-15.33
2.47
13.07
15.02
4.94
-18.51
-52.72
-91.07
-125.75
-150.85
-159.29
-149.66
-119.24
-75.94
-33.12
-1.84
15.58
24.17
31.59
42.75
57.52
73.27
85.11
90.24
86.95
76.82
62.81
48.00
34.62
23.40
14.54
6.97
0.65
-3.20
-2.82
2.20
10.22
18.16
22.75
22.37
16.85
8.05
-1.16
-8.12
-11.86
-13.10
-13.42
-14.24
-15.91
-18.02
-19.49
-19.25
-16.75
-12.38
-7.13
-2.09
2.00
4.94
6.76
7.61
7.60
6.85
5.51
3.79
1.92
0.10
-1.67
-3.62
-6.09
-9.34
-13.41
-18.13
-23.21
-28.42
-33.68
-39.11
-45.00
-51.63
-59.16
-67.46
-76.08
-84.17
-90.67
-94.40
-94.36
-90.03
-81.41
-69.09
-53.95
-36.96
-18.96
-0.60
17.49
34.58
49.83
62.46
71.92
78.16
81.57
82.80
82.47
80.91
78.16
74.10
68.72
62.29
55.34
48.46
42.07
36.27
30.81
25.26
19.24
12.52
5.09
-2.84
-10.91
-18.62
-25.31
-30.19
-32.54
-31.84
-28.04
-21.58
-13.33
-4.20
5.05
14.02
22.57
30.62
37.92
44.05
48.57
51.22
52.20
52.02
51.28
50.45
49.57
48.40
46.51
43.61
39.70
35.07
30.13
25.28
20.66
16.19
11.59
6.55
0.90
-5.20
-11.30
-16.70
-20.67
-22.68
-22.60
-20.67
-17.41
-13.44
-9.32
-5.38
-1.74
1.70
5.19
8.93
13.00
17.26
21.40
25.06
28.02
30.27
31.99
33.42
34.65
35.64
36.11
35.79
34.48
32.20
29.06
25.18
20.56
15.03
8.40
0.62
-8.06
-16.96
-25.09
-31.47
-35.40
-36.71
-35.88
-33.76
-31.35
-29.38
-28.32
-28.30
-29.26
-31.04
-33.44
-36.27
-39.37
-42.59
-45.84
-49.00
-51.87
-54.21
-55.76
-56.36
-56.02
-54.83
-52.86
-50.00
-45.97
-40.50
-33.60
-25.62
-17.25
-9.23
-1.96
4.56
10.67
16.61
22.31
27.32
31.06
33.33
34.50
35.52
37.47
41.08
46.38
52.83
59.62
66.12
72.06
77.34
81.76
84.69
85.18
82.33
75.80
66.12
54.62
42.93
32.26
23.04
14.71
6.18
-3.57
-14.93
-27.39
-39.69
-50.22
-57.51
-60.55
-59.05
-53.38
-44.52
-33.86
-22.98
-13.38
-6.21
-2.12
-1.09
-2.48
-5.12
-7.65
-8.90
-8.22
-5.66
-1.83
2.41
6.31
9.50
11.94
13.78
15.13
15.94
16.07
15.42
14.05
12.22
10.38
8.97
8.41
8.97
10.70
13.40
16.72
20.15
23.28
25.82
27.64
28.69
28.97
28.46
27.22
25.42
23.39
21.52
20.13
19.25
18.65
17.91
16.55
14.29
11.10
7.23
3.06
-1.07
-4.94
-8.55
-12.06
-15.72
-19.75
-24.24
-29.10
-34.01
-38.43
-41.77
-43.52
-43.34
-41.24
-37.48
-32.56
-27.01
-21.36
-15.97
-11.13
-7.08
-4.01
-2.07
-1.23
-1.27
-1.80
-2.38
-2.69
-2.69
-2.56
-2.59
-3.01
-3.85
-4.96
-6.11
-7.17
-8.19
-9.32
-10.81
-12.83
-15.49
-18.77
-22.53
-26.51
-30.28
-33.29
-34.94
-34.84
-32.83
-29.13
-24.26
-18.81
-13.37
-8.36
-4.10
-0.79
1.44
2.62
2.93
2.73
2.47
2.51
3.00
3.83
4.72
5.32
5.45
5.15
4.62
4.14
3.90
3.91
4.06
4.03
3.51
2.19
-0.09
-3.31
-7.17
-11.04
-14.14
-15.73
-15.47
-13.56
-10.70
-7.75
-5.40
-3.87
-3.03
-2.62
-2.69
-3.70
-6.34
-11.19
-18.28
-26.97
-36.17
-44.68
-51.67
-56.84
-60.40
-62.73
-64.19
-64.91
-64.87
-63.99
-62.00
-58.03
-50.48
-37.18
-16.23
12.94
48.85
88.06
126.24
159.52
185.62
203.94
214.92
219.03
216.17
205.88
188.02
163.59
134.87
105.00
77.04
53.03
33.72
18.66
6.87
-2.50
-9.74
-14.72
-17.30
-17.76
-17.00
-16.29
-16.82
-19.14
-23.04
-27.71
-32.19
-35.79
-38.29
-39.88
-40.91
-41.69
-42.26
-42.46
-41.96
-40.39
-37.41
-32.85
-26.80
-19.68
-12.26
-5.38
0.20
4.16
6.70
8.37
9.81
11.44
13.39
15.58
17.94
20.47
23.21
26.05
28.58
30.12
29.97
27.73
23.51
17.88
11.67
5.62
0.18
-4.41
-8.01
-10.37
-11.14
-9.99
-6.92
-2.35
2.88
7.74
11.31
13.06
12.95
11.31
8.67
5.59
2.45
-0.52
-3.25
-5.70
-7.81
-9.51
-10.73
-11.49
-11.99
-12.54
-13.47
-14.98
-17.05
-19.44
-21.81
-23.97
-25.88
-27.66
-29.37
-30.90
-31.86
-31.74
-30.12
-26.88
-22.31
-16.97
-11.51
-6.42
-1.98
1.79
4.95
7.58
9.72
11.38
12.57
13.36
13.84
14.16
14.42
14.67
14.85
14.82
14.38
13.43
11.91
9.86
7.39
4.52
1.20
-2.65
-6.96
-11.43
-15.49
-18.50
-19.92
-19.61
-17.79
-14.98
-11.75
-8.58
-5.78
-3.46
-1.64
-0.27
0.72
1.40
1.81
1.90
1.60
0.90
-0.08
-1.11
-1.95
-2.54
-3.09
-3.96
-5.51
-7.81
-10.58
-13.34
-15.65
-17.36
-18.75
-20.31
-22.39
-24.97
-27.52
-29.25
-29.46
-27.87
-24.65
-20.30
-15.36
-10.19
-4.98
0.15
4.91
8.88
11.55
12.65
12.26
10.87
9.19
7.89
7.31
7.40
7.87
8.26
8.25
7.65
6.49
4.85
2.84
0.48
-2.27
-5.45
-9.04
-12.86
-16.59
-19.81
-22.07
-23.06
-22.64
-20.95
-18.26
-14.97
-11.41
-7.88
-4.61
-1.78
0.41
1.79
2.31
2.06
1.29
0.36
-0.40
-0.80
-0.89
-0.88
-1.07
-1.65
-2.62
-3.81
-4.99
-6.02
-6.92
-7.85
-8.92
-10.12
-11.35
-12.46
-13.35
-14.04
-14.50
-14.59
-14.02
-12.45
-9.66
-5.72
-1.04
3.73
7.98
11.19
13.16
13.91
13.67
12.81
11.67
10.55
9.62
8.97
8.62
8.60
8.93
9.58
10.42
11.17
11.52
11.20
10.10
8.38
6.48
4.96
4.33
4.84
6.32
8.26
10.02
11.09
11.32
10.98
10.59
10.56
11.07
11.97
12.94
13.75
14.39
15.04
15.88
16.93
17.96
18.63
18.69
18.13
17.17
16.17
15.43
15.10
15.11
15.34
15.71
16.20
16.83
17.58
18.35
18.95
19.26
19.31
19.30
19.51
20.20
21.41
23.09
25.14
27.67
31.05
35.92
42.89
52.38
64.38
78.36
93.42
108.41
122.14
133.45
141.30
144.86
143.64
137.64
127.48
114.14
98.48
80.88
61.19
39.18
15.28
-8.90
-30.71
-47.31
-56.74
-58.85
-55.22
-48.43
-40.96
-34.27
-28.67
-23.73
-18.95
-14.31
-10.35
-7.71
-6.66
-6.61
-6.12
-3.34
3.30
14.39
29.34
46.71
64.84
82.32
98.17
111.56
121.56
127.15
127.54
122.69
113.44
101.14
87.06
71.92
55.91
38.92
21.02
2.59
-15.76
-33.62
-50.79
-67.27
-82.87
-96.98
-108.69
-117.21
-122.52
-125.69
-128.72
-133.67
-141.72
-152.49
-164.00
-173.52
-178.68
-178.35
-172.88
-163.52
-151.60
-138.07
-123.51
-108.54
-94.21
-81.82
-72.36
-65.93
-61.63
-58.03
-54.03
-49.42
-44.93
-41.66
-40.45
-41.42
-44.00
-47.39
-50.91
-54.21
-57.16
-59.63
-61.39
-62.10
-61.51
-59.61
-56.63
-52.95
-48.95
-44.96
-41.14
-37.54
-34.06
-30.56
-26.91
-23.18
-19.60
-16.56
-14.37
-13.06
-12.35
-11.74
-10.85
-9.62
-8.35
-7.53
-7.56
-8.49
-10.00
-11.64
-12.94
-13.67
-13.83
-13.59
-13.21
-12.96
-13.01
-13.44
-14.16
-14.88
-15.21
-14.74
-13.22
-10.65
-7.26
-3.48
0.32
3.77
6.67
8.82
10.04
10.22
9.36
7.65
5.42
3.10
1.08
-0.40
-1.38
-2.10
-2.94
-4.24
-6.19
-8.72
-11.56
-14.36
-16.87
-19.08
-21.21
-23.55
-26.30
-29.35
-32.26
-34.41
-35.23
-34.36
-31.81
-27.86
-22.93
-17.50
-11.96
-6.62
-1.71
2.56
6.00
8.50
10.03
10.70
10.76
10.51
10.26
10.24
10.55
11.25
12.37
14.05
16.43
19.60
23.38
27.26
30.40
31.95
31.34
28.66
24.76
20.98
18.73
18.93
21.71
26.45
32.12
37.70
42.54
46.36
49.17
51.02
51.90
51.81
50.81
49.08
46.89
44.54
42.19
39.90
37.70
35.56
33.49
31.50
29.58
27.71
25.83
23.95
22.15
20.53
19.24
18.40
18.14
18.55
19.59
21.09
22.70
23.96
24.42
23.86
22.31
20.09
17.66
15.49
13.81
12.62
11.67
10.59
9.13
7.20
4.96
2.72
0.78
-0.70
-1.73
-2.56
-3.45
-4.63
-6.21
-8.11
-10.19
-12.22
-13.89
-14.83
-14.70
-13.18
-10.14
-5.65
0.20
7.42
16.32
27.32
40.62
55.74
71.30
85.21
95.30
100.11
99.42
94.30
86.61
78.27
70.66
64.36
59.22
54.70
50.13
44.85
38.23
29.67
18.68
5.11
-10.83
-28.42
-46.56
-63.92
-79.25
-91.54
-100.21
-105.12
-106.54
-104.94
-100.83
-94.65
-86.69
-77.28
-66.82
-55.95
-45.40
-35.97
-28.31
-22.77
-19.39
-17.81
-17.27
-16.64
-14.68
-10.36
-3.28
6.18
16.94
27.72
37.43
45.54
52.04
57.26
61.59
65.20
67.93
69.15
67.73
62.33
51.94
36.53
17.49
-2.61
-20.81
-34.92
-44.30
-49.88
-53.48
-56.71
-60.27
-63.78
-66.30
-66.95
-65.42
-61.91
-56.91
-50.76
-43.62
-35.58
-27.03
-18.79
-12.05
-8.01
-7.48
-10.48
-16.29
-23.62
-31.08
-37.56
-42.52
-46.04
-48.64
-50.97
-53.46
-56.13
-58.43
-59.53
-58.53
-54.86
-48.49
-39.96
-30.21
-20.30
-11.06
-2.85
4.56
11.79
19.60
28.56
38.79
49.86
61.00
71.35
80.25
87.44
92.97
97.11
100.08
102.02
102.87
102.55
100.86
97.58
92.41
85.07
75.50
64.05
51.61
39.56
29.37
22.13
18.13
16.79
16.90
17.10
16.40
14.41
11.32
7.66
4.03
0.94
-1.12
-1.66
-0.18
3.55
9.24
15.88
21.88
25.66
26.28
23.96
19.92
15.81
12.78
10.87
9.07
5.98
0.73
-6.29
-13.45
-18.61
-19.86
-16.17
-7.39
5.98
23.10
42.85
63.80
84.08
101.62
114.50
121.51
122.35
117.60
108.28
95.32
79.37
60.90
40.57
19.63
0.02
-16.07
-26.76
-31.22
-29.95
-24.64
-17.67
-11.43
-7.91
-8.42
-13.58
-23.22
-36.34
-51.14
-65.30
-76.58
-83.33
-84.98
-82.06
-75.88
-68.06
-60.20
-53.66
-49.41
-47.96
-49.22
-52.43
-56.39
-59.72
-61.38
-60.95
-58.77
-55.67
-52.64
-50.42
-49.18
-48.47
-47.30
-44.41
-38.69
-29.63
-17.58
-3.78
10.02
22.23
31.93
39.20
44.94
50.25
55.85
61.61
66.64
69.63
69.35
65.13
56.97
45.49
31.73
16.93
2.26
-11.26
-22.92
-32.28
-39.25
-44.08
-47.33
-49.74
-52.08
-54.86
-58.16
-61.69
-64.96
-67.59
-69.53
-70.95
-72.07
-72.84
-72.93
-71.80
-68.96
-64.24
-57.77
-49.90
-41.06
-31.64
-22.02
-12.64
-3.99
3.46
9.40
13.86
17.21
20.12
23.29
27.28
32.28
38.09
44.29
50.42
56.20
61.62
66.94
72.56
78.93
86.45
95.34
105.62
117.01
128.97
140.72
151.45
160.31
166.43
168.86
166.54
158.44
143.75
122.10
93.48
58.23
17.10
-28.42
-75.60
-120.39
-157.84
-183.49
-194.78
-192.01
-178.38
-158.80
-138.26
-120.49
-107.34
-99.03
-94.92
-94.12
-95.77
-98.96
-102.61
-105.34
-105.74
-102.74
-95.92
-85.75
-73.42
-60.47
-48.32
-37.84
-29.27
-22.29
-16.47
-11.45
-7.21
-3.90
-1.60
-0.17
0.76
1.66
2.85
4.33
5.82
6.90
7.34
7.21
6.92
6.95
7.58
8.73
9.94
10.62
10.40
9.29
7.71
6.31
5.65
6.11
7.75
10.48
14.05
18.12
22.26
25.96
28.84
30.80
32.24
33.93
36.79
41.49
48.18
56.38
65.16
73.41
80.08
84.34
85.61
83.61
78.39
70.26
59.87
48.19
36.43
25.94
17.96
13.23
11.73
12.60
14.36
15.52
15.03
12.68
8.97
4.75
0.75
-2.66
-5.47
-7.78
-9.64
-11.12
-12.49
-14.41
-17.74
-23.20
-30.78
-39.57
-47.90
-53.94
-56.40
-55.05
-50.72
-44.82
-38.77
-33.41
-28.94
-25.12
-21.70
-18.74
-16.59
-15.60
-15.77
-16.60
-17.14
-16.41
-13.87
-9.63
-4.41
0.87
5.57
9.57
13.24
17.14
21.58
26.41
31.03
34.69
36.81
37.30
36.55
35.25
34.14
33.78
34.42
36.11
38.74
42.18
46.20
50.53
54.81
58.73
62.17
65.32
68.63
72.57
77.28
82.36
86.89
89.75
90.07
87.72
83.39
78.42
74.27
71.97
71.76
72.97
74.36
74.62
72.76
68.31
61.17
51.33
38.63
22.90
4.30
-16.32
-37.28
-56.34
-71.46
-81.46
-86.42
-87.54
-86.43
-84.34
-81.59
-77.58
-71.29
-61.98
-49.68
-35.45
-21.16
-9.10
-1.29
0.98
-2.49
-10.71
-21.83
-33.65
-44.36
-53.04
-59.88
-65.79
-71.77
-78.34
-85.22
-91.54
-96.24
-98.54
-98.06
-94.77
-88.81
-80.52
-70.54
-59.97
-50.24
-42.68
-37.95
-35.63
-34.39
-32.47
-28.46
-21.78
-12.79
-2.49
7.87
17.06
23.97
27.64
27.39
23.06
15.19
5.02
-5.90
-16.23
-25.25
-32.89
-39.35
-44.62
-48.07
-48.49
-44.67
-36.05
-23.31
-8.47
5.74
16.71
22.84
24.03
21.46
16.97
12.35
8.67
6.20
4.54
3.07
1.28
-1.02
-3.66
-6.25
-8.22
-8.98
-8.00
-4.84
0.62
8.09
16.73
25.04
31.11
33.03
29.73
21.55
10.56
0.07
-6.42
-6.48
0.42
12.81
27.91
42.72
55.04
63.93
69.74
73.70
77.51
82.92
91.58
104.79
123.25
146.75
173.91
202.23
228.43
249.12
261.65
264.82
259.21
246.95
230.86
213.37
195.61
176.95
155.39
128.79
96.42
60.12
24.43
-4.83
-22.72
-27.22
-19.93
-5.19
11.87
27.09
38.11
43.81
43.40
35.65
19.01
-7.63
-44.26
-89.46
-140.76
-194.78
-247.16
-292.48
-324.62
-338.31
-331.15
-305.36
-267.59
-226.84
-191.08
-164.38
-146.04
-131.99
-117.62
-100.18
-79.74
-58.24
-37.71
-18.92
-1.16
16.91
36.07
55.94
75.27
92.73
107.37
118.67
126.13
129.04
126.64
118.59
105.35
88.13
68.38
47.27
25.46
3.30
-18.60
-39.19
-57.11
-71.32
-81.59
-88.56
-93.35
-96.85
-99.34
-100.46
-99.79
-97.33
-93.67
-89.84
-86.96
-85.66
-85.91
-87.11
-88.37
-88.93
-88.45
-87.05
-85.17
-83.26
-81.55
-79.83
-77.59
-74.22
-69.34
-62.93
-55.48
-47.81
-40.85
-35.39
-31.87
-30.33
-30.46
-31.70
-33.37
-34.83
-35.58
-35.30
-33.94
-31.66
-28.76
-25.57
-22.29
-19.04
-15.89
-13.02
-10.74
-9.50
-9.69
-11.41
-14.38
-17.92
-21.23
-23.65
-24.96
-25.44
-25.65
-26.14
-27.13
-28.29
-28.83
-27.77
-24.31
-18.04
-9.16
1.73
13.73
25.82
36.96
46.19
52.84
56.67
58.06
57.89
57.29
57.22
58.12
59.83
61.84
63.65
65.05
66.17
67.15
67.89
67.87
66.39
62.94
57.64
51.33
45.26
40.46
37.26
35.01
32.38
27.99
21.15
12.14
2.14
-7.31
-14.99
-20.49
-24.37
-27.87
-32.46
-39.27
-48.69
-60.13
-72.10
-82.46
-88.90
-89.62
-83.77
-71.75
-55.01
-35.63
-15.72
2.90
18.87
31.28
39.64
44.03
45.23
44.57
43.53
43.19
43.75
44.60
44.79
43.63
41.15
37.96
34.73
31.75
28.81
25.50
21.71
17.88
14.77
12.95
12.31
11.97
10.68
7.59
2.73
-2.89
-7.80
-10.79
-11.49
-10.51
-9.06
-8.38
-9.12
-11.18
-13.80
-16.00
-17.12
-17.05
-16.33
-15.81
-16.37
-18.47
-22.07
-26.67
-31.53
-36.00
-39.58
-42.12
-43.69
-44.53
-44.90
-44.87
-44.29
-42.68
-39.54
-34.49
-27.66
-19.66
-11.50
-4.19
1.55
5.47
7.81
8.97
9.38
9.31
8.88
8.09
6.82
4.88
2.11
-1.42
-5.28
-8.56
-10.20
-9.35
-5.89
-0.56
5.28
10.21
13.32
14.55
14.58
14.43
14.99
16.69
19.45
22.89
26.55
29.98
32.90
35.21
37.02
38.75
41.02
44.50
49.66
56.46
64.17
71.55
77.16
79.84
79.20
75.75
70.75
65.82
62.38
61.23
62.43
65.43
69.36
73.44
77.13
80.16
82.38
83.70
84.11
83.76
82.99
82.14
81.22
79.62
76.20
69.73
59.53
46.03
30.79
15.95
3.51
-5.38
-10.68
-13.21
-14.23
-15.00
-16.43
-19.12
-23.30
-28.87
-35.38
-42.02
-47.83
-51.84
-53.48
-52.60
-49.51
-44.87
-39.44
-33.97
-29.09
-25.22
-22.52
-20.82
-19.77
-18.97
-18.23
-17.57
-17.25
-17.51
-18.37
-19.57
-20.73
-21.53
-21.89
-22.02
-22.31
-23.12
-24.64
-26.93
-29.86
-33.18
-36.48
-39.21
-40.80
-40.76
-38.91
-35.48
-31.04
-26.36
-22.15
-18.90
-16.80
-15.77
-15.60
-16.04
-16.79
-17.57
-18.08
-18.04
-17.33
-16.04
-14.49
-13.12
-12.31
-12.26
-12.91
-14.00
-15.27
-16.56
-17.86
-19.19
-20.49
-21.45
-21.66
-20.68
-18.34
-14.75
-10.32
-5.51
-0.75
3.74
7.86
11.55
14.69
17.16
18.85
19.76
19.99
19.67
18.93
17.88
16.61
15.26
13.99
12.94
12.14
11.46
10.61
9.27
7.12
4.07
0.17
-4.26
-8.70
-12.58
-15.35
-16.67
-16.45
-14.90
-12.44
-9.64
-6.99
-4.90
-3.53
-2.75
-2.29
-1.75
-0.88
0.37
1.79
3.09
4.06
4.72
5.31
6.07
7.10
8.27
9.30
9.89
9.89
9.26
8.00
6.09
3.57
0.65
-2.24
-4.43
-5.28
-4.43
-1.92
1.84
6.25
10.70
14.77
18.22
20.92
22.84
23.99
24.43
24.24
23.50
22.22
20.40
18.05
15.39
12.76
10.64
9.39
9.11
9.60
10.35
10.81
10.56
9.45
7.67
5.60
3.75
2.60
2.56
4.03
7.44
13.24
21.81
33.24
47.15
62.57
78.05
91.97
102.80
109.37
110.84
106.71
96.89
81.79
62.65
41.48
20.83
3.16
-9.73
-17.15
-19.39
-17.39
-12.15
-4.44
5.13
15.81
26.30
34.73
39.01
37.48
29.77
17.05
1.86
-12.80
-24.59
-32.61
-37.55
-41.13
-45.12
-50.60
-57.63
-65.44
-72.98
-79.31
-83.76
-85.96
-85.74
-83.08
-78.22
-71.71
-64.34
-56.95
-50.17
-44.16
-38.62
-32.95
-26.58
-19.40
-11.94
-5.28
-0.69
0.93
-0.60
-4.60
-9.81
-14.75
-18.16
-19.21
-17.65
-13.71
-8.10
-1.75
4.33
9.37
13.00
15.21
16.26
16.33
15.52
14.03
12.41
11.76
13.54
18.93
28.17
40.17
52.79
63.53
70.32
72.16
69.08
61.84
51.59
39.51
26.91
15.22
6.00
0.72
0.40
5.36
15.03
28.05
42.54
56.43
67.86
75.33
77.80
74.55
65.20
49.73
28.76
3.75
-23.03
-48.87
-71.30
-88.67
-100.40
-106.60
-107.62
-103.63
-94.63
-80.83
-63.11
-43.09
-22.82
-4.20
11.66
24.67
35.51
45.16
54.25
62.70
69.66
73.72
73.48
68.22
58.43
46.04
34.13
26.08
24.53
30.48
42.87
58.99
75.31
88.42
95.81
96.22
89.67
77.36
61.43
44.64
29.83
19.20
13.73
12.98
15.43
19.22
22.91
25.99
28.87
32.53
37.92
45.36
54.20
62.73
68.42
68.60
61.34
46.43
25.75
3.01
-17.31
-31.36
-37.11
-34.76
-26.36
-14.80
-2.74
8.27
17.91
26.89
36.23
46.61
58.00
69.50
79.74
87.31
91.26
91.25
87.59
81.02
72.45
62.88
53.24
44.35
36.66
30.20
24.55
19.17
13.67
8.04
2.57
-2.63
-7.95
-14.37
-23.12
-34.88
-49.37
-65.19
-80.42
-93.39
-103.40
-111.00
-117.79
-125.98
-137.86
-155.16
-178.40
-206.27
-235.37
-260.70
-276.93
-280.22
-269.70
-247.89
-219.70
-190.52
-164.36
-142.84
-125.40
-110.41
-96.37
-82.65
-69.46
-57.33
-46.61
-37.27
-29.04
-21.81
-15.77
-11.33
-8.76
-7.82
-7.77
-7.57
-6.42
-4.04
-0.84
2.49
5.39
7.76
9.96
12.48
15.50
18.72
21.50
23.17
23.43
22.43
20.75
19.14
18.30
18.66
20.29
22.88
25.77
28.11
28.98
27.64
23.73
17.41
9.43
0.95
-6.70
-12.46
-15.84
-17.06
-16.86
-16.12
-15.45
-14.92
-14.13
-12.46
-9.40
-4.83
0.95
7.35
13.59
18.94
22.86
25.15
25.98
25.89
25.70
26.37
28.64
32.85
38.76
45.52
51.94
56.87
59.46
59.46
57.12
53.08
48.18
43.19
38.85
35.69
34.11
34.26
36.09
39.36
43.62
48.20
52.14
54.10
52.48
45.87
33.47
15.64
-6.04
-29.06
-50.57
-67.99
-79.59
-84.69
-83.64
-77.63
-68.39
-57.83
-47.68
-39.26
-33.31
-29.94
-28.79
-29.19
-30.38
-31.69
-32.63
-32.91
-32.36
-31.05
-29.18
-27.20
-25.68
-25.23
-26.22
-28.64
-31.93
-35.14
-37.17
-37.16
-34.60
-29.58
-22.72
-15.05
-7.74
-1.75
2.56
5.65
8.62
12.66
18.46
25.87
33.97
41.64
48.12
53.38
58.16
63.60
70.84
80.51
92.48
105.57
117.67
126.07
128.16
122.41
108.96
89.70
67.60
45.76
26.42
10.68
-1.29
-9.69
-14.71
-16.51
-15.52
-12.68
-9.42
-7.10
-6.42
-7.03
-7.67
-6.89
-3.89
0.94
5.97
9.05
8.39
3.37
-5.15
-15.24
-24.60
-31.38
-34.68
-34.68
-32.35
-29.09
-26.38
-25.49
-27.26
-31.90
-38.79
-46.49
-53.14
-57.10
-57.48
-54.56
-49.41
-43.43
-37.56
-32.03
-26.42
-20.13
-12.90
-5.01
2.73
9.47
14.62
18.10
20.17
21.18
21.30
20.57
19.16
17.67
17.23
19.13
24.23
32.24
41.66
50.15
55.55
56.69
53.74
47.94
40.86
33.69
26.90
20.26
13.16
4.94
-4.88
-16.43
-29.41
-43.04
-56.11
-67.24
-75.29
-79.73
-80.77
-79.24
-76.15
-72.25
-67.85
-62.85
-57.10
-50.74
-44.35
-38.82
-34.99
-33.26
-33.42
-34.77
-36.40
-37.56
-37.86
-37.15
-35.45
-32.68
-28.75
-23.55
-17.16
-9.94
-2.59
4.00
8.94
11.64
12.03
10.74
8.99
8.30
9.98
14.72
22.43
32.26
42.91
52.88
60.79
65.47
66.23
62.98
56.28
47.32
37.60
28.58
21.34
16.24
13.04
10.93
8.94
6.16
2.01
-3.62
-10.26
-17.07
-23.02
-27.29
-29.47
-29.76
-28.81
-27.40
-26.17
-25.29
-24.42
-22.74
-19.23
-13.04
-3.79
8.22
22.07
36.42
49.91
61.44
70.36
76.42
79.75
80.69
79.70
77.29
73.96
69.96
65.19
59.13
51.15
40.86
28.55
15.18
2.19
-9.11
-17.98
-24.38
-28.84
-32.03
-34.49
-36.53
-38.32
-39.97
-41.60
-43.15
-44.29
-44.51
-43.30
-40.49
-36.35
-31.51
-26.64
-22.24
-18.60
-15.85
-14.18
-13.90
-15.33
-18.67
-23.78
-30.19
-37.00
-43.00
-46.73
-46.71
-41.81
-31.77
-17.52
-1.18
14.49
26.88
34.32
36.39
33.73
27.48
18.73
8.25
-3.35
-15.30
-26.40
-35.18
-40.24
-40.84
-37.20
-30.44
-22.12
-13.60
-5.63
1.82
9.15
16.65
24.08
30.64
35.28
37.25
36.36
33.12
28.48
23.63
19.75
17.96
19.14
23.77
31.58
41.55
52.07
61.46
68.53
72.90
74.92
75.28
74.61
73.26
71.30
68.80
65.90
62.87
59.92
57.11
54.29
51.33
48.20
45.18
42.69
41.18
40.88
41.65
42.97
44.00
43.87
41.76
37.26
30.45
21.96
12.76
3.92
-3.72
-9.82
-14.52
-18.35
-21.97
-26.00
-30.90
-36.83
-43.62
-50.74
-57.23
-61.93
-63.70
-61.83
-56.18
-47.29
-36.03
-23.30
-9.81
3.86
17.17
29.31
39.21
45.74
48.07
45.99
40.07
31.51
21.79
12.27
3.81
-3.30
-9.31
-14.72
-19.98
-25.26
-30.36
-34.82
-38.24
-40.48
-41.84
-42.91
-44.32
-46.52
-49.56
-53.21
-57.01
-60.45
-63.13
-64.69
-64.84
-63.31
-59.91
-54.67
-47.97
-40.53
-33.33
-27.30
-23.08
-20.76
-19.90
-19.73
-19.54
-18.96
-18.08
-17.32
-17.07
-17.52
-18.53
-19.72
-20.72
-21.31
-21.43
-21.14
-20.44
-19.23
-17.36
-14.70
-11.21
-6.98
-2.05
3.52
9.75
16.57
23.77
30.92
37.46
42.89
47.02
50.04
52.54
55.21
58.59
62.80
67.52
72.09
75.75
77.76
77.55
74.72
68.99
60.28
48.65
34.51
18.53
1.71
-14.85
-30.10
-43.32
-54.17
-62.73
-69.29
-74.13
-77.35
-78.80
-78.26
-75.58
-70.89
-64.60
-57.29
-49.51
-41.67
-34.02
-26.82
-20.32
-14.82
-10.46
-7.13
-4.42
-1.80
1.18
4.64
8.39
12.09
15.50
18.64
21.78
25.20
28.91
32.55
35.44
36.93
36.64
34.69
31.59
28.02
24.61
21.78
19.69
18.40
17.93
18.36
19.71
21.88
24.63
27.58
30.38
32.90
35.19
37.48
39.98
42.73
45.55
48.22
50.53
52.46
54.15
55.71
57.20
58.48
59.35
59.55
58.86
56.99
53.58
48.14
40.24
29.67
16.64
1.85
-13.62
-28.54
-41.76
-52.45
-60.23
-65.20
-67.80
-68.62
-68.10
-66.27
-62.67
-56.49
-46.90
-33.53
-16.84
1.74
20.04
35.66
46.48
51.19
49.53
42.19
30.57
16.40
1.32
-13.33
-26.58
-37.84
-46.75
-53.11
-56.94
-58.57
-58.69
-58.25
-58.14
-58.92
-60.53
-62.31
-63.27
-62.44
-59.14
-53.20
-44.90
-34.93
-24.25
-13.97
-5.15
1.39
5.25
6.51
5.62
3.26
0.10
-3.34
-6.71
-9.90
-12.95
-16.05
-19.51
-23.56
-28.20
-33.03
-37.20
-39.66
-39.42
-36.07
-30.00
-22.33
-14.51
-7.71
-2.43
1.61
5.22
9.11
13.55
18.19
22.42
25.71
28.02
29.76
31.53
33.66
35.91
37.52
37.60
35.54
31.37
25.78
19.84
14.64
10.90
8.88
8.49
9.48
11.54
14.33
17.47
20.51
23.04
24.74
25.48
25.21
23.94
21.54
17.95
13.17
7.50
1.50
-4.13
-8.80
-12.17
-14.19
-14.94
-14.39
-12.40
-8.61
-2.67
5.65
16.23
28.57
41.71
54.27
64.71
71.53
73.85
71.71
66.22
59.16
52.46
47.53
44.92
44.48
45.63
47.67
49.87
51.36
51.13
48.12
41.65
31.77
19.30
5.54
-8.21
-21.06
-32.64
-42.88
-51.72
-59.03
-64.62
-68.47
-70.79
-71.98
-72.45
-72.46
-72.05
-71.15
-69.62
-67.38
-64.40
-60.74
-56.44
-51.56
-46.21
-40.62
-35.16
-30.29
-26.34
-23.34
-21.00
-18.72
-15.93
-12.36
-8.14
-3.78
0.06
2.86
4.39
4.68
3.98
2.64
1.06
-0.30
-0.96
-0.52
1.20
4.17
8.14
12.84
18.08
23.73
29.65
35.57
41.02
45.45
48.43
49.81
49.86
49.16
48.43
48.29
49.11
50.92
53.55
56.71
60.13
63.68
67.35
71.24
75.43
79.86
84.19
87.92
90.38
90.90
88.83
83.64
74.90
62.50
46.73
28.54
9.50
-8.41
-23.28
-33.72
-39.16
-39.96
-37.18
-32.30
-26.95
-22.58
-20.23
-20.31
-22.49
-25.67
-28.35
-29.09
-27.00
-22.15
-15.50
-8.55
-2.85
0.52
1.23
-0.33
-3.30
-6.64
-9.49
-11.31
-11.95
-11.59
-10.60
-9.47
-8.67
-8.58
-9.31
-10.66
-12.18
-13.34
-13.86
-14.02
-14.59
-16.64
-21.04
-28.06
-37.19
-47.34
-57.24
-65.85
-72.47
-76.81
-78.74
-78.26
-75.48
-70.68
-64.46
-57.57
-50.80
-44.70
-39.45
-34.84
-30.42
-25.69
-20.32
-14.24
-7.76
-1.53
3.59
6.64
6.80
3.61
-2.84
-11.80
-21.92
-31.49
-38.80
-42.53
-41.98
-37.17
-28.72
-17.66
-5.17
7.62
19.78
30.70
40.08
48.00
54.83
61.13
67.41
73.98
80.67
86.97
92.21
95.88
97.89
98.62
98.64
98.40
97.93
96.89
94.84
91.63
87.69
83.90
81.35
80.88
82.85
87.07
93.07
100.34
108.51
117.34
126.59
135.89
144.71
152.54
158.95
163.65
166.29
166.28
162.64
154.27
140.40
121.09
97.37
71.00
43.88
17.50
-7.37
-30.50
-51.89
-71.51
-89.29
-105.30
-120.01
-134.23
-148.81
-164.24
-180.35
-196.38
-211.25
-223.92
-233.75
-240.53
-244.39
-245.58
-244.37
-240.90
-235.29
-227.63
-218.06
-206.75
-193.86
-179.57
-164.08
-147.68
-130.72
-113.64
-96.93
-81.06
-66.38
-53.17
-41.60
-31.74
-23.60
-17.05
-11.81
-7.50
-3.72
-0.23
3.05
5.98
8.39
10.19
11.48
12.49
13.40
14.24
14.79
14.72
13.65
11.44
8.23
4.38
0.41
-3.28
-6.47
-9.19
-11.69
-14.22
-17.00
-20.01
-22.98
-25.26
-25.94
-24.09
-19.04
-10.80
-0.32
10.74
20.39
27.04
30.07
29.92
27.81
25.16
23.00
21.77
21.46
21.89
23.02
24.96
27.86
31.62
35.87
40.01
43.36
45.45
46.13
45.53
43.98
41.90
39.64
37.57
35.97
35.07
34.97
35.65
36.96
38.75
41.01
43.90
47.76
52.96
59.68
67.79
76.83
85.94
94.08
100.11
103.04
102.19
97.39
89.04
77.95
65.12
51.43
37.49
23.65
10.17
-2.69
-14.54
-25.08
-34.25
-42.38
-50.12
-58.09
-66.56
-75.20
-83.08
-89.01
-92.01
-91.67
-88.32
-82.80
-76.09
-68.90
-61.50
-53.82
-45.67
-37.08
-28.32
-19.86
-12.12
-5.39
0.28
4.90
8.47
10.98
12.45
12.99
12.96
12.87
13.26
14.50
16.55
18.96
20.94
21.56
20.03
15.96
9.47
1.09
-8.37
-18.08
-27.28
-35.36
-41.80
-46.12
-47.91
-46.96
-43.38
-37.63
-30.50
-22.85
-15.43
-8.67
-2.71
2.57
7.34
11.75
15.92
19.92
23.82
27.65
31.37
34.77
37.50
39.15
39.38
38.02
35.16
31.04
26.02
20.37
14.25
7.77
1.11
-5.33
-10.87
-14.79
-16.62
-16.33
-14.52
-12.19
-10.37
-9.76
-10.44
-11.95
-13.53
-14.51
-14.55
-13.74
-12.43
-11.02
-9.78
-8.74
-7.82
-7.00
-6.43
-6.47
-7.60
-10.16
-14.18
-19.20
-24.38
-28.75
-31.60
-32.66
-32.26
-31.05
-29.76
-28.90
-28.61
-28.73
-28.92
-28.80
-28.04
-26.35
-23.50
-19.43
-14.31
-8.62
-3.01
1.82
5.43
7.67
8.80
9.36
10.02
11.43
14.01
17.88
22.84
28.40
33.95
38.90
42.80
45.39
46.58
46.48
45.38
43.69
41.87
40.23
38.89
37.71
36.38
34.58
32.17
29.24
26.07
23.02
20.35
18.14
16.21
14.26
11.94
9.02
5.45
1.44
-2.58
-6.04
-8.37
-9.07
-7.92
-4.96
-0.53
4.85
10.57
16.12
21.13
25.39
28.83
31.48
33.40
34.71
35.54
36.08
36.46
36.81
37.15
37.47
37.71
37.80
37.64
37.15
36.25
34.83
32.79
30.07
26.61
22.41
17.42
11.60
5.02
-2.09
-9.24
-15.72
-20.79
-23.84
-24.66
-23.49
-20.90
-17.55
-14.00
-10.56
-7.39
-4.57
-2.25
-0.63
0.14
0.06
-0.70
-1.86
-3.12
-4.27
-5.17
-5.84
-6.33
-6.70
-7.01
-7.24
-7.40
-7.46
-7.48
-7.62
-8.10
-9.21
-11.15
-13.99
-17.57
-21.50
-25.25
-28.21
-29.87
-29.93
-28.35
-25.40
-21.56
-17.36
-13.25
-9.54
-6.39
-3.89
-2.14
-1.19
-1.10
-1.75
-2.84
-4.02
-4.89
-5.19
-4.87
-4.06
-3.03
-2.16
-1.71
-1.86
-2.59
-3.68
-4.87
-5.90
-6.71
-7.38
-8.15
-9.27
-10.88
-12.95
-15.28
-17.53
-19.26
-20.03
-19.46
-17.26
-13.44
-8.23
-2.15
4.20
10.29
15.76
20.46
24.37
27.50
29.85
31.45
32.39
32.82
32.94
32.85
32.57
32.03
31.10
29.73
27.94
25.82
23.53
21.19
18.90
16.64
14.34
11.87
9.10
6.03
2.82
-0.25
-2.83
-4.72
-5.89
-6.48
-6.62
-6.27
-5.20
-3.14
0.11
4.51
9.69
15.14
20.32
24.73
28.09
30.25
31.21
31.11
30.20
28.79
27.16
25.46
23.68
21.67
19.19
16.06
12.18
7.57
2.36
-3.28
-9.17
-15.11
-20.93
-26.45
-31.50
-35.84
-39.25
-41.46
-42.27
-41.52
-39.12
-35.05
-29.32
-22.04
-13.44
-3.90
6.02
15.64
24.33
31.54
36.98
40.64
42.80
43.98
44.82
45.76
46.95
48.04
48.19
46.32
41.44
32.95
20.97
6.36
-9.49
-24.95
-38.54
-49.17
-56.28
-59.87
-60.38
-58.63
-55.61
-52.33
-49.55
-47.61
-46.26
-44.90
-42.76
-39.30
-34.49
-28.71
-22.66
-17.04
-12.35
-8.85
-6.49
-5.14
-4.56
-4.49
-4.65
-4.74
-4.51
-3.76
-2.47
-0.77
1.00
2.45
3.18
3.01
1.96
0.23
-1.91
-4.24
-6.64
-9.03
-11.31
-13.35
-15.02
-16.25
-16.99
-17.22
-16.76
-15.36
-12.74
-8.84
-3.87
1.62
6.96
11.60
15.24
17.86
19.59
20.62
21.06
21.02
20.62
19.94
19.05
17.96
16.71
15.38
14.14
13.15
12.45
11.88
11.08
9.65
7.34
4.15
0.29
-3.92
-8.16
-12.17
-15.70
-18.44
-20.09
-20.40
-19.31
-16.99
-13.83
-10.23
-6.51
-2.82
0.81
4.34
7.66
10.51
12.56
13.60
13.66
13.06
12.26
11.67
11.40
11.23
10.71
9.39
7.11
4.03
0.54
-2.97
-6.37
-9.85
-13.82
-18.55
-23.95
-29.41
-33.94
-36.54
-36.46
-33.50
-28.00
-20.74
-12.74
-4.98
1.75
6.97
10.57
12.72
13.74
13.98
13.67
12.94
11.87
10.59
9.32
8.26
7.51
6.94
6.28
5.23
3.60
1.41
-1.20
-4.04
-7.00
-10.06
-13.30
-16.75
-20.24
-23.36
-25.57
-26.37
-25.48
-22.98
-19.23
-14.75
-9.97
-5.23
-0.82
2.97
5.73
7.08
6.80
5.00
2.10
-1.36
-4.89
-8.20
-11.17
-13.67
-15.51
-16.38
-16.08
-14.62
-12.32
-9.76
-7.50
-6.01
-5.54
-6.10
-7.52
-9.46
-11.51
-13.13
-13.84
-13.24
-11.13
-7.48
-2.50
3.46
9.90
16.18
21.64
25.73
28.14
28.88
28.24
26.66
24.57
22.33
20.16
18.23
16.64
15.46
14.65
14.12
13.66
13.06
12.09
10.64
8.69
6.31
3.59
0.66
-2.37
-5.38
-8.17
-10.46
-11.90
-12.15
-11.02
-8.50
-4.88
-0.56
3.97
8.29
12.01
14.78
16.28
16.26
14.69
11.84
8.29
4.74
1.76
-0.42
-2.01
-3.47
-5.29
-7.71
-10.65
-13.74
-16.52
-18.53
-19.45
-19.14
-17.62
-15.01
-11.47
-7.19
-2.30
3.08
8.89
15.04
21.46
28.10
35.01
42.24
49.84
57.73
65.63
73.08
79.64
84.99
89.12
92.31
95.01
97.72
100.89
104.98
110.43
117.64
126.69
137.04
147.38
155.68
159.62
157.29
147.82
131.87
111.51
89.73
69.58
53.60
43.50
40.20
43.91
53.92
68.29
83.75
96.22
102.18
100.21
91.91
81.54
74.20
73.55
80.21
91.60
103.38
111.37
113.10
108.18
97.67
83.19
66.16
47.74
28.92
10.81
-5.48
-19.15
-29.98
-38.54
-46.06
-54.00
-63.50
-74.95
-87.81
-100.87
-112.73
-122.48
-130.00
-135.96
-141.34
-146.91
-152.81
-158.51
-163.19
-166.17
-167.29
-167.00
-166.16
-165.67
-166.16
-167.85
-170.59
-174.03
-177.80
-181.63
-185.32
-188.61
-191.11
-192.29
-191.73
-189.31
-185.41
-180.84
-176.48
-172.90
-170.04
-167.25
-163.48
-157.68
-149.00
-136.75
-120.32
-99.14
-73.02
-42.51
-9.18
24.54
55.93
82.66
103.35
117.66
125.98
129.04
127.70
122.87
115.72
107.60
99.83
93.23
87.72
82.35
75.70
66.57
54.63
40.65
26.22
13.11
2.47
-5.47
-11.27
-15.73
-19.34
-22.04
-23.36
-22.95
-20.88
-17.77
-14.49
-11.81
-10.14
-9.49
-9.68
-10.46
-11.68
-13.19
-14.84
-16.48
-17.94
-19.13
-20.00
-20.53
-20.70
-20.47
-19.82
-18.72
-17.11
-14.89
-11.85
-7.76
-2.52
3.73
10.49
17.01
22.52
26.45
28.61
29.17
28.60
27.44
26.19
25.22
24.80
25.08
26.12
27.83
29.91
31.91
33.25
33.47
32.40
30.30
27.71
25.36
23.75
23.07
22.99
22.84
21.84
19.37
15.19
9.50
2.92
-3.69
-9.46
-13.76
-16.29
-17.19
-16.82
-15.58
-13.76
-11.37
-8.31
-4.47
0.05
4.84
9.41
13.33
16.40
18.69
20.36
21.51
22.09
21.95
20.96
19.14
16.67
13.83
10.85
7.82
4.68
1.26
-2.64
-7.06
-11.90
-16.89
-21.56
-25.41
-27.93
-28.82
-27.95
-25.38
-21.33
-16.10
-10.08
-3.70
2.56
8.25
13.02
16.63
18.94
19.95
19.81
18.89
17.75
16.97
16.98
17.75
18.80
19.35
18.66
16.36
12.53
7.67
2.31
-3.19
-8.69
-14.26
-19.91
-25.43
-30.34
-33.93
-35.44
-34.26
-30.13
-23.31
-14.55
-5.01
4.00
11.34
16.27
18.57
18.47
16.54
13.48
10.00
6.75
4.21
2.70
2.30
2.87
4.11
5.62
7.07
8.21
8.92
9.17
8.92
8.06
6.44
3.90
0.45
-3.76
-8.32
-12.71
-16.41
-19.03
-20.36
-20.49
-19.68
-18.37
-17.05
-16.12
-15.85
-16.31
-17.36
-18.80
-20.39
-21.92
-23.15
-23.81
-23.68
-22.61
-20.72
-18.34
-15.95
-13.89
-12.18
-10.53
-8.55
-6.06
-3.31
-0.88
0.56
0.72
-0.12
-1.16
-1.40
-0.05
3.22
8.27
14.64
21.90
29.73
37.95
46.36
54.68
62.51
69.44
75.13
79.38
82.11
83.34
83.10
81.52
78.99
76.21
74.13
73.73
75.69
80.07
86.16
92.53
97.28
98.32
93.84
82.77
65.12
42.23
16.55
-8.96
-31.66
-49.98
-63.77
-74.07
-82.34
-89.61
-95.98
-100.76
-102.94
-101.95
-98.04
-92.25
-85.84
-79.79
-74.37
-69.24
-63.91
-58.16
-52.21
-46.59
-41.72
-37.53
-33.46
-28.78
-23.00
-16.25
-9.26
-3.10
1.32
3.58
3.81
2.48
0.17
-2.68
-5.75
-8.78
-11.46
-13.40
-14.24
-13.77
-12.06
-9.38
-6.18
-2.92
0.01
2.32
3.85
4.50
4.26
3.21
1.57
-0.35
-2.22
-3.76
-4.88
-5.64
-6.17
-6.61
-6.99
-7.22
-7.23
-7.01
-6.70
-6.53
-6.73
-7.34
-8.18
-8.88
-8.99
-8.10
-5.98
-2.55
2.07
7.63
13.77
20.11
26.33
32.26
37.85
43.12
47.99
52.29
55.67
57.85
58.79
58.74
58.21
57.72
57.63
57.93
58.41
58.69
58.52
57.70
56.13
53.72
50.32
45.86
40.37
34.17
27.68
21.33
15.39
9.84
4.51
-0.82
-6.23
-11.51
-16.33
-20.38
-23.67
-26.58
-29.77
-33.82
-38.92
-44.66
-50.23
-54.81
-57.99
-59.93
-61.18
-62.20
-62.94
-62.77
-60.84
-56.51
-49.84
-41.65
-33.18
-25.72
-20.24
-17.19
-16.54
-17.85
-20.40
-23.31
-25.70
-26.91
-26.63
-25.05
-22.73
-20.51
-19.18
-19.31
-21.13
-24.48
-28.87
-33.57
-37.81
-40.93
-42.59
-42.76
-41.70
-39.82
-37.51
-35.01
-32.48
-29.96
-27.53
-25.31
-23.41
-21.91
-20.75
-19.80
-18.92
-18.00
-16.94
-15.56
-13.55
-10.54
-6.19
-0.50
6.19
13.23
19.87
25.53
29.94
33.11
35.18
36.33
36.71
36.57
36.30
36.46
37.65
40.33
44.58
50.10
56.20
62.06
67.00
70.70
73.23
75.00
76.49
77.91
79.05
79.31
77.90
74.16
67.73
58.63
47.10
33.54
18.52
2.85
-12.27
-25.37
-35.07
-40.52
-41.82
-40.01
-36.77
-33.76
-32.05
-31.87
-32.72
-33.72
-34.06
-33.26
-31.22
-28.13
-24.29
-20.01
-15.59
-11.35
-7.67
-4.93
-3.36
-2.98
-3.45
-4.21
-4.55
-3.87
-1.88
1.46
5.90
11.02
16.38
21.48
25.88
29.19
31.13
31.64
30.89
29.22
27.01
24.62
22.30
20.11
18.01
15.88
13.56
10.87
7.70
3.95
-0.51
-5.78
-11.97
-19.00
-26.53
-33.91
-40.27
-44.80
-47.02
-46.86
-44.66
-40.92
-36.11
-30.52
-24.29
-17.56
-10.56
-3.68
2.68
8.16
12.60
16.04
18.65
20.70
22.41
23.92
25.25
26.34
27.03
27.23
26.86
25.97
24.66
23.10
21.54
20.17
19.14
18.51
18.27
18.39
18.92
20.09
22.21
25.62
30.58
37.16
45.23
54.41
64.04
73.12
80.46
84.81
85.24
81.53
74.33
65.03
55.30
46.59
39.65
34.53
30.75
27.67
24.79
21.82
18.61
14.92
10.40
4.69
-2.41
-10.74
-19.75
-28.70
-36.84
-43.73
-49.15
-53.03
-55.20
-55.38
-53.25
-48.75
-42.25
-34.54
-26.54
-18.94
-11.92
-5.25
1.48
8.32
14.90
20.34
23.68
24.25
22.05
17.68
12.22
6.78
2.11
-1.59
-4.64
-7.57
-10.90
-14.92
-19.76
-25.54
-32.42
-40.44
-49.31
-58.10
-65.42
-69.83
-70.39
-67.14
-60.98
-53.30
-45.34
-37.79
-30.77
-24.11
-17.67
-11.51
-5.97
-1.36
2.04
4.08
4.71
4.00
2.11
-0.61
-3.64
-6.33
-8.07
-8.39
-7.20
-4.73
-1.56
1.55
3.90
5.03
4.90
3.84
2.41
1.19
0.52
0.40
0.52
0.37
-0.51
-2.33
-4.95
-7.87
-10.40
-11.87
-11.86
-10.33
-7.52
-3.87
0.12
4.07
7.72
10.90
13.52
15.48
16.67
16.99
16.42
15.11
13.36
11.63
10.33
9.68
9.57
9.56
9.12
7.84
5.64
2.70
-0.63
-4.05
-7.36
-10.48
-13.38
-15.99
-18.21
-19.89
-20.90
-21.20
-20.84
-19.99
-18.91
-17.85
-16.90
-15.86
-14.32
-11.71
-7.60
-1.84
5.36
13.58
22.31
31.04
39.24
46.31
51.69
55.04
56.53
56.96
57.58
59.51
63.24
68.22
73.00
75.80
75.22
70.77
62.84
52.41
40.50
27.88
15.07
2.50
-9.34
-19.83
-28.56
-35.46
-40.91
-45.55
-49.92
-54.34
-58.82
-63.18
-67.09
-70.14
-71.66
-70.99
-67.65
-61.75
-54.11
-46.06
-38.89
-33.30
-29.19
-25.88
-22.67
-19.29
-15.98
-13.23
-11.27
-9.88
-8.49
-6.55
-3.92
-0.92
1.84
3.86
4.95
5.26
5.14
4.87
4.58
4.22
3.73
3.09
2.41
1.81
1.37
1.01
0.46
-0.61
-2.47
-5.13
-8.28
-11.30
-13.54
-14.44
-13.79
-11.75
-8.69
-5.04
-1.11
2.94
7.06
11.16
15.07
18.54
21.30
23.22
24.30
24.68
24.55
24.10
23.44
22.63
21.68
20.59
19.41
18.22
17.00
15.66
14.01
11.87
9.19
6.11
2.87
-0.23
-3.02
-5.51
-7.80
-10.06
-12.37
-14.74
-17.00
-18.95
-20.29
-20.77
-20.23
-18.65
-16.20
-13.17
-9.90
-6.67
-3.66
-0.98
1.26
2.92
3.86
3.98
3.37
2.24
0.90
-0.32
-1.20
-1.62
-1.64
-1.43
-1.26
-1.48
-2.34
-3.93
-6.06
-8.33
-10.20
-11.26
-11.39
-10.87
-10.28
-10.34
-11.65
-14.48
-18.69
-23.65
-28.37
-31.78
-33.10
-32.09
-29.17
-25.16
-21.02
-17.42
-14.56
-12.26
-10.09
-7.62
-4.53
-0.70
3.77
8.53
13.08
16.93
19.80
21.85
23.62
25.83
28.94
32.95
37.33
41.34
44.35
46.12
46.80
46.73
46.19
45.19
43.55
41.02
37.51
33.15
28.17
22.82
17.24
11.47
5.64
0.16
-4.29
-6.88
-7.00
-4.51
0.06
5.65
10.97
14.91
16.81
16.66
15.08
13.20
12.34
13.69
17.87
24.61
32.76
40.58
46.33
48.92
48.21
44.94
40.33
35.42
30.81
26.58
22.54
18.58
14.84
11.64
9.28
7.77
6.81
5.77
4.08
1.48
-1.78
-4.89
-6.81
-6.61
-3.94
0.90
7.00
13.21
18.57
22.56
25.19
26.84
28.08
29.42
31.16
33.29
35.58
37.65
39.16
39.91
39.87
39.10
37.64
35.38
32.05
27.36
21.15
13.51
4.75
-4.70
-14.37
-23.91
-32.98
-41.23
-48.24
-53.60
-56.95
-58.17
-57.42
-55.15
-52.06
-48.86
-46.14
-44.23
-43.03
-41.97
-40.09
-36.20
-29.29
-18.92
-5.59
9.19
23.12
33.65
38.66
37.04
29.04
16.11
0.58
-14.99
-28.33
-37.85
-42.86
-43.52
-40.64
-35.49
-29.49
-24.01
-20.07
-18.22
-18.37
-19.94
-21.97
-23.47
-23.75
-22.61
-20.47
-18.25
-17.12
-18.05
-21.37
-26.58
-32.47
-37.61
-41.06
-42.81
-43.88
-45.89
-50.34
-57.97
-68.37
-80.17
-91.52
-100.62
-106.29
-108.01
-105.95
-100.77
-93.46
-85.05
-76.42
-68.18
-60.57
-53.61
-47.31
-41.77
-37.11
-33.39
-30.25
-27.04
-22.94
-17.38
-10.42
-2.80
4.37
10.12
14.07
16.52
18.17
19.71
21.38
22.99
24.06
24.12
22.91
20.37
16.64
11.95
6.72
1.55
-2.72
-5.27
-5.47
-3.10
1.60
8.17
16.09
24.97
34.45
43.98
52.77
59.79
64.14
65.38
63.73
59.99
55.20
50.25
45.62
41.39
37.40
33.50
29.62
25.76
21.90
17.95
13.78
9.38
4.90
0.66
-2.97
-5.74
-7.57
-8.57
-8.92
-8.73
-7.96
-6.45
-4.04
-0.64
3.61
8.31
12.82
16.41
18.46
18.68
17.16
14.33
10.77
6.94
3.06
-0.88
-4.95
-9.13
-13.32
-17.35
-21.14
-24.68
-28.07
-31.39
-34.70
-38.07
-41.61
-45.36
-49.25
-52.85
-55.55
-56.67
-55.80
-53.04
-49.00
-44.61
-40.66
-37.51
-34.95
-32.49
-29.71
-26.51
-23.18
-20.23
-18.05
-16.74
-16.10
-15.84
-15.75
-15.78
-15.84
-15.66
-14.75
-12.44
-8.32
-2.49
4.38
11.29
17.30
21.91
25.17
27.60
29.93
32.75
36.28
40.40
44.70
48.68
51.92
54.24
55.72
56.62
57.26
57.85
58.41
58.78
58.65
57.73
55.82
52.86
48.91
44.14
38.82
33.29
27.97
23.23
19.24
15.96
13.09
10.32
7.49
4.75
2.48
1.04
0.57
0.90
1.66
2.54
3.54
4.85
6.68
8.99
11.36
13.20
14.10
14.14
13.87
14.03
15.19
17.34
19.96
22.22
23.43
23.33
22.21
20.66
19.33
18.55
18.24
17.91
17.01
15.14
12.34
9.02
5.78
3.07
0.97
-0.87
-3.01
-5.95
-9.83
-14.49
-19.56
-24.66
-29.44
-33.58
-36.66
-38.24
-37.94
-35.64
-31.57
-26.22
-20.25
-14.17
-8.29
-2.73
2.49
7.30
11.48
14.75
16.88
17.80
17.72
16.99
16.07
15.30
14.86
14.74
14.89
15.27
15.92
16.84
17.96
19.00
19.56
19.25
17.86
15.44
12.27
8.75
5.33
2.34
0.13
-1.01
-0.83
0.84
3.99
8.40
13.57
18.90
23.72
27.51
30.04
31.41
32.10
32.77
34.01
36.13
39.01
42.14
44.99
47.33
49.48
52.35
57.09
64.52
74.69
86.51
97.82
105.77
107.56
101.18
86.06
63.34
35.73
6.96
-19.10
-39.40
-52.32
-57.94
-57.77
-54.00
-48.83
-43.87
-40.01
-37.48
-36.29
-36.38
-37.72
-40.16
-43.32
-46.54
-49.05
-50.22
-49.75
-47.61
-43.97
-38.96
-32.63
-25.01
-16.34
-7.31
0.92
6.92
9.42
7.74
2.20
-5.92
-14.62
-21.77
-25.67
-25.42
-21.09
-13.52
-3.95
6.45
16.88
26.97
36.63
45.85
54.53
62.46
69.49
75.61
81.12
86.44
91.92
97.69
103.46
108.67
112.63
114.78
114.90
113.10
109.74
105.25
99.94
93.90
87.01
79.04
69.86
59.47
48.11
36.14
24.14
12.79
2.85
-4.94
-10.12
-12.53
-12.46
-10.48
-7.29
-3.44
0.70
4.83
8.62
11.60
13.20
12.96
10.74
6.73
1.48
-4.42
-10.46
-16.32
-21.90
-27.20
-32.43
-37.96
-44.31
-52.11
-61.80
-73.43
-86.50
-100.04
-112.85
-123.91
-132.58
-138.83
-143.09
-145.96
-147.95
-149.19
-149.47
-148.35
-145.45
-140.69
-134.44
-127.32
-120.00
-112.89
-106.10
-99.55
-93.18
-87.19
-82.02
-78.21
-76.15
-75.86
-76.91
-78.55
-79.94
-80.39
-79.64
-77.75
-75.03
-71.73
-67.86
-63.22
-57.56
-50.88
-43.55
-36.20
-29.43
-23.47
-18.19
-13.21
-8.44
-4.22
-1.29
-0.27
-1.13
-2.96
-4.13
-2.91
1.89
10.45
22.04
35.31
48.86
61.67
73.24
83.69
93.47
103.22
113.54
124.76
136.76
148.80
159.53
167.17
169.93
166.41
156.04
139.10
116.64
90.02
60.67
29.87
-1.24
-31.56
-60.11
-86.06
-108.89
-128.40
-144.62
-157.64
-167.54
-174.33
-178.12
-179.20
-177.96
-174.81
-170.06
-163.91
-156.42
-147.67
-137.74
-126.79
-115.03
-102.67
-89.99
-77.33
-65.12
-53.78
-43.53
-34.24
-25.30
-15.77
-4.69
8.52
23.74
39.98
55.59
68.66
77.63
81.76
81.35
77.56
72.05
66.37
61.50
57.64
54.23
50.39
45.29
38.56
30.34
21.13
11.60
2.41
-5.73
-12.07
-15.83
-16.35
-13.45
-7.55
0.29
8.69
16.40
22.65
27.27
30.41
32.18
32.45
30.85
27.18
21.73
15.46
9.72
5.73
4.13
4.75
6.80
9.35
11.72
13.62
15.14
16.42
17.56
18.54
19.37
20.26
21.72
24.45
29.11
35.99
44.82
54.74
64.62
73.43
80.60
86.16
90.49
93.97
96.61
98.06
97.75
95.37
91.06
85.39
79.06
72.55
65.94
59.06
51.73
44.03
36.22
28.60
21.24
14.04
6.82
-0.41
-7.51
-14.36
-21.12
-28.23
-36.13
-44.83
-53.57
-61.00
-65.78
-67.28
-65.99
-63.26
-60.69
-59.36
-59.46
-60.34
-61.11
-61.12
-60.25
-58.88
-57.55
-56.67
-56.33
-56.34
-56.46
-56.56
-56.76
-57.38
-58.72
-60.80
-63.22
-65.30
-66.34
-66.00
-64.50
-62.52
-60.77
-59.60
-58.74
-57.50
-55.00
-50.59
-43.98
-35.03
-23.72
-10.08
5.64
22.69
39.75
55.11
67.06
74.41
76.75
74.50
68.73
60.81
52.08
43.73
36.64
31.41
28.38
27.66
29.15
32.49
37.06
41.96
46.13
48.50
48.26
45.11
39.37
32.03
24.50
18.29
14.60
14.01
16.39
20.95
26.54
32.00
36.41
39.28
40.50
40.20
38.52
35.55
31.41
26.26
20.44
14.24
7.71
0.63
-7.27
-15.82
-24.05
-30.42
-33.44
-32.60
-28.91
-24.72
-22.85
-25.47
-33.32
-45.40
-59.32
-71.93
-80.08
-81.39
-74.76
-60.69
-41.20
-19.18
2.47
21.71
37.68
50.49
60.62
68.45
74.11
77.76
79.76
80.74
81.35
81.85
82.02
81.24
78.97
75.08
69.98
64.37
58.88
53.76
48.74
43.25
36.60
28.31
18.18
6.47
-6.08
-18.28
-28.70
-36.10
-39.87
-39.93
-36.95
-31.74
-24.85
-16.30
-5.76
7.07
21.94
37.80
53.18
66.27
75.78
81.38
83.99
85.64
88.73
95.18
105.52
119.41
135.42
152.00
167.82
181.51
191.31
195.00
190.62
176.99
156.20
131.35
105.64
80.76
56.56
32.40
9.39
-8.19
-14.96
-4.25
24.73
66.42
110.34
145.27
163.69
164.37
151.77
131.18
110.43
92.07
75.19
57.32
36.23
10.93
-18.90
-53.89
-97.32
-147.15
-201.42
-254.55
-298.35
-325.05
-330.95
-318.63
-282.53
-251.23
-229.73
-220.62
-221.48
-227.31
-233.40
-236.94
-236.96
-233.04
-226.58
-214.01
-195.00
-170.82
-144.31
-119.01
-97.80
-81.87
-70.48
-63.29
-56.12
-47.44
-36.91
-25.33
-14.11
-4.66
2.15
6.32
7.64
8.51
9.87
11.95
14.14
15.38
14.75
12.08
8.16
3.99
1.73
2.48
6.44
12.97
20.91
29.04
36.41
42.59
47.38
51.29
54.67
57.70
60.21
61.75
61.66
59.52
55.39
49.97
44.41
39.85
37.01
35.90
35.91
36.14
35.81
34.57
32.43
29.56
26.12
22.09
17.44
12.36
7.36
3.17
0.58
0.16
2.18
6.66
13.42
22.19
32.47
43.49
54.14
63.12
69.25
71.88
71.05
67.43
62.07
56.00
50.03
44.66
40.25
37.07
35.37
35.21
36.34
38.16
39.91
40.93
40.97
40.24
39.10
37.71
35.69
32.18
26.28
17.59
6.58
-5.34
-16.18
-23.93
-27.01
-24.61
-16.95
-5.19
8.68
22.24
33.10
39.49
40.63
36.92
29.75
21.10
13.01
6.93
3.36
1.75
0.81
-0.79
-3.71
-7.56
-11.16
-13.24
-13.36
-12.28
-11.71
-13.42
-18.42
-26.52
-36.58
-47.21
-57.36
-66.58
-74.84
-82.08
-87.97
-91.86
-93.08
-91.28
-86.68
-79.97
-72.12
-64.02
-56.25
-49.07
-42.46
-36.35
-30.71
-25.70
-21.45
-17.99
-15.05
-12.11
-8.66
-4.42
0.43
5.29
9.29
11.65
11.93
10.19
6.88
2.64
-1.91
-6.36
-10.58
-14.55
-18.36
-21.97
-25.26
-27.96
-29.72
-30.21
-29.18
-26.53
-22.35
-16.89
-10.62
-4.21
1.55
5.85
8.00
7.65
4.89
0.24
-5.42
-11.09
-15.78
-18.74
-19.55
-18.22
-15.25
-11.45
-7.85
-5.36
-4.56
-5.59
-8.17
-11.79
-15.85
-19.78
-23.01
-25.01
-25.37
-23.84
-20.53
-15.85
-10.45
-4.97
0.11
4.56
8.36
11.60
14.32
16.49
17.98
18.65
18.51
17.72
16.73
16.13
16.66
18.86
22.93
28.58
35.06
41.36
46.53
49.87
51.08
50.18
47.43
43.25
38.18
32.91
28.21
24.85
23.41
24.07
26.59
30.33
34.42
37.96
40.15
40.41
38.43
34.30
28.44
21.57
14.51
7.91
2.07
-3.12
-8.06
-13.10
-18.32
-23.45
-27.96
-31.39
-33.58
-34.81
-35.71
-36.95
-38.94
-41.70
-44.79
-47.47
-48.90
-48.39
-45.54
-40.36
-33.25
-24.92
-16.13
-7.49
0.74
8.72
16.85
25.57
35.13
45.47
56.25
66.93
76.98
85.91
93.34
98.99
102.62
104.10
103.35
100.43
95.47
88.75
80.66
71.70
62.31
52.89
43.56
34.27
24.81
15.08
5.16
-4.49
-13.18
-20.15
-24.83
-26.98
-26.71
-24.40
-20.51
-15.57
-10.15
-4.92
-0.56
2.32
3.45
2.94
1.37
-0.49
-1.91
-2.48
-2.18
-1.32
-0.33
0.40
0.68
0.51
0.03
-0.56
-1.04
-1.21
-0.94
-0.12
1.22
3.01
5.09
7.31
9.54
11.70
13.71
15.42
16.71
17.52
18.02
18.53
19.43
20.93
22.82
24.52
25.22
24.30
21.56
17.46
13.00
9.53
8.41
10.59
16.31
24.83
34.54
43.25
48.85
49.97
46.46
39.31
30.22
20.89
12.45
5.33
-0.58
-5.52
-9.59
-12.65
-14.49
-15.07
-14.49
-13.11
-11.23
-9.01
-6.39
-3.14
1.01
6.21
12.40
19.30
26.32
32.73
37.74
40.65
40.94
38.36
32.85
24.58
13.96
1.75
-10.96
-22.88
-32.81
-39.99
-44.41
-46.84
-48.54
-50.94
-55.22
-62.10
-71.73
-83.70
-96.99
-110.16
-121.51
-129.51
-133.19
-132.43
-127.87
-120.60
-111.68
-101.84
-91.37
-80.39
-69.03
-57.62
-46.68
-36.64
-27.78
-20.11
-13.46
-7.64
-2.52
1.91
5.65
8.73
11.29
13.49
15.49
17.29
18.78
19.83
20.30
20.22
19.72
18.99
18.11
17.08
15.72
13.86
11.36
8.20
4.47
0.34
-3.91
-7.91
-11.22
-13.33
-13.90
-12.83
-10.43
-7.31
-4.14
-1.44
0.65
2.34
4.00
5.90
8.01
9.95
11.22
11.46
10.68
9.35
8.25
8.21
9.86
13.46
18.89
25.65
33.02
40.18
46.47
51.47
55.22
58.08
60.54
62.95
65.25
67.04
67.87
67.57
66.52
65.59
65.86
68.36
73.70
82.00
92.89
105.71
119.63
133.75
147.28
159.56
170.21
179.01
185.78
190.18
191.57
188.93
181.21
167.75
148.47
124.05
95.62
64.14
29.96
-7.24
-47.59
-89.80
-130.24
-163.24
-182.67
-184.22
-167.32
-135.39
-94.67
-51.80
-11.77
23.04
52.31
76.52
95.89
110.21
119.21
123.33
123.87
122.57
120.96
119.89
119.63
120.25
121.95
125.12
129.84
135.38
140.00
141.30
137.12
126.19
108.64
85.66
59.01
30.44
1.51
-26.31
-51.62
-73.11
-89.88
-101.72
-109.09
-112.95
-114.28
-113.87
-112.31
-110.01
-107.39
-104.86
-102.76
-101.27
-100.44
-100.28
-100.79
-101.80
-102.85
-103.10
-101.56
-97.52
-90.91
-82.45
-73.37
-64.91
-57.91
-52.56
-48.62
-45.77
-43.85
-42.91
-42.95
-43.76
-44.92
-46.02
-46.98
-48.17
-50.20
-53.63
-58.55
-64.52
-70.70
-76.24
-80.57
-83.47
-84.96
-85.14
-84.11
-82.00
-79.09
-75.79
-72.59
-69.87
-67.77
-66.12
-64.59
-62.82
-60.59
-57.83
-54.59
-50.96
-47.04
-42.96
-38.96
-35.36
-32.47
-30.51
-29.47
-29.19
-29.42
-29.97
-30.77
-31.83
-33.19
-34.84
-36.74
-38.91
-41.47
-44.64
-48.59
-53.39
-58.82
-64.43
-69.71
-74.17
-77.54
-79.87
-81.48
-82.87
-84.61
-87.19
-90.90
-95.84
-101.87
-108.78
-116.31
-124.28
-132.61
-141.28
-150.15
-159.02
-167.54
-175.33
-182.03
-187.31
-190.86
-192.30
-191.22
-187.28
-180.39
-170.79
-158.98
-145.49
-130.69
-114.69
-97.47
-79.24
-60.59
-42.49
-26.04
-12.11
-0.97
7.66
14.62
20.89
27.31
34.41
42.20
50.32
58.16
65.11
70.71
74.79
77.34
78.47
78.37
77.34
75.80
74.09
72.24
69.73
65.72
59.52
51.26
42.20
34.36
29.56
28.48
30.07
31.98
31.58
27.31
19.42
9.86
1.35
-3.86
-5.04
-3.27
-0.82
0.07
-1.60
-4.73
-6.52
-3.73
5.98
23.00
45.81
71.66
97.18
118.80
132.91
136.48
128.25
110.26
88.30
70.60
64.63
73.62
94.78
120.58
142.81
157.28
166.56
178.67
202.27
241.23
291.40
341.52
377.94
390.73
377.78
345.34
304.65
266.77
238.47
220.86
211.00
205.00
200.47
197.03
194.91
193.14
188.63
177.04
154.85
121.45
80.02
36.60
-2.58
-33.81
-57.71
-79.25
-105.85
-144.28
-197.31
-261.70
-328.86
-387.79
-429.30
-449.62
-451.39
-441.63
-428.14
-416.03
-406.34
-397.17
-385.97
-371.64
-354.95
-337.67
-320.98
-304.66
-287.23
-266.91
-242.66
-214.64
-184.06
-152.74
-122.31
-93.55
-66.32
-39.73
-12.98
13.84
39.20
60.43
74.73
80.48
78.22
70.60
61.45
54.30
51.17
52.10
55.59
59.51
62.09
62.35
60.19
55.90
49.76
42.01
33.07
23.90
16.07
11.39
11.14
15.47
23.10
31.89
39.63
44.93
47.55
48.25
48.07
47.81
47.73
47.63
47.30
46.72
46.11
45.73
45.63
45.61
45.37
44.75
43.86
42.95
42.34
42.06
41.82
41.01
38.94
35.07
29.21
21.74
13.61
6.21
1.14
-0.20
2.88
10.12
20.25
31.46
41.98
50.64
57.14
61.99
65.96
69.75
73.67
77.72
81.78
85.85
90.10
94.71
99.70
104.72
109.15
112.30
113.75
113.55
112.15
110.23
108.29
106.36
103.96
100.36
94.94
87.56
78.70
69.30
60.35
52.63
46.44
41.79
38.58
36.81
36.56
37.78
40.09
42.78
45.05
46.28
46.28
45.26
43.63
41.77
39.88
37.92
35.84
33.61
31.31
29.11
27.26
26.01
25.53
25.88
26.96
28.50
30.10
31.37
31.94
31.59
30.26
28.02
25.03
21.45
17.33
12.51
6.67
-0.51
-9.19
-19.17
-29.81
-40.15
-49.17
-56.02
-60.17
-61.40
-59.71
-55.20
-48.05
-38.60
-27.39
-15.26
-3.27
7.45
15.89
21.27
23.00
20.74
14.39
4.14
-9.48
-25.60
-43.15
-60.92
-77.74
-92.52
-104.25
-112.10
-115.55
-114.60
-109.77
-102.02
-92.41
-81.80
-70.74
-59.50
-48.37
-37.67
-27.88
-19.40
-12.41
-6.80
-2.25
1.56
4.77
7.32
9.01
9.69
9.35
8.15
6.33
4.08
1.43
-1.67
-5.32
-9.42
-13.64
-17.35
-19.86
-20.54
-19.07
-15.53
-10.25
-3.65
3.87
11.98
20.31
28.33
35.34
40.65
43.82
44.88
44.37
43.13
42.00
41.49
41.73
42.46
43.29
43.90
44.22
44.42
44.84
45.81
47.39
49.22
50.51
50.34
48.04
43.55
37.55
31.24
25.96
22.67
21.76
23.11
26.24
30.70
36.12
42.23
48.68
55.00
60.68
65.41
69.26
72.77
76.57
81.09
86.18
91.05
94.60
95.80
94.22
89.99
83.76
76.27
68.06
59.49
50.94
42.93
36.22
31.66
29.91
31.26
35.46
41.68
48.66
54.96
59.43
61.57
61.78
61.12
60.82
61.71
63.83
66.54
68.82
69.83
69.04
66.36
61.90
55.94
48.94
41.54
34.47
28.13
22.14
15.15
5.07
-10.16
-31.69
-59.14
-90.54
-122.82
-152.68
-177.41
-195.33
-205.92
-209.55
-207.25
-200.40
-190.69
-179.89
-169.74
-161.57
-156.06
-153.10
-152.08
-152.12
-152.45
-152.61
-152.42
-151.82
-150.79
-149.34
-147.61
-145.97
-144.86
-144.68
-145.53
-147.20
-149.23
-151.18
-152.73
-153.58
-153.25
-150.90
-145.36
-135.57
-121.03
-102.17
-80.22
-56.83
-33.50
-11.15
9.76
29.00
46.25
60.97
72.62
80.94
86.23
89.39
91.63
94.14
97.67
102.26
107.34
111.90
114.88
115.51
113.42
108.66
101.45
92.08
80.91
68.45
55.61
43.56
33.58
26.66
23.12
22.50
23.71
25.45
26.59
26.51
25.13
22.78
19.99
17.20
14.65
12.37
10.30
8.39
6.70
5.39
4.72
4.88
6.06
8.39
11.85
16.17
20.58
23.76
24.09
20.07
10.97
-2.70
-19.21
-35.99
-50.39
-60.48
-65.47
-65.69
-62.30
-56.67
-50.05
-43.33
-37.09
-31.64
-27.13
-23.55
-20.65
-18.01
-15.15
-11.73
-7.75
-3.61
0.06
2.68
3.97
4.03
3.25
2.11
0.91
-0.36
-1.98
-4.33
-7.63
-11.67
-15.74
-18.74
-19.50
-17.25
-11.91
-4.20
4.65
13.27
20.67
26.40
30.52
33.37
35.30
36.49
36.94
36.60
35.46
33.67
31.50
29.29
27.31
25.62
24.10
22.53
20.71
18.59
16.23
13.74
11.13
8.34
5.30
2.17
-0.59
-2.25
-2.10
0.29
4.85
11.02
18.01
25.07
31.64
37.44
42.28
46.02
48.53
49.69
49.59
48.56
47.18
46.21
46.42
48.35
52.08
57.12
62.48
66.98
69.54
69.51
66.68
61.25
53.55
44.03
33.27
22.10
11.77
3.69
-0.77
-0.84
3.25
10.17
17.69
23.31
25.00
21.93
14.75
5.37
-3.76
-10.56
-13.88
-13.67
-10.71
-6.03
-0.61
4.82
9.61
13.19
15.01
14.78
12.57
8.79
4.09
-0.86
-5.55
-9.65
-13.01
-15.55
-17.27
-18.23
-18.64
-18.84
-19.41
-21.04
-24.42
-30.05
-37.96
-47.61
-57.85
-67.21
-74.27
-78.07
-78.35
-75.43
-70.06
-63.00
-54.91
-46.27
-37.55
-29.30
-22.08
-16.26
-11.80
-8.20
-4.70
-0.60
4.36
9.92
15.46
20.35
24.25
27.20
29.46
31.35
32.94
34.05
34.36
33.56
31.46
28.11
23.75
18.79
13.81
9.46
6.38
5.10
5.98
9.09
14.18
20.76
28.14
35.57
42.32
47.82
51.68
53.67
53.70
51.78
47.94
42.30
35.07
26.52
16.96
6.76
-3.76
-14.14
-23.85
-32.15
-38.20
-41.29
-41.10
-37.87
-32.48
-26.26
-20.68
-17.05
-16.14
-18.08
-22.22
-27.32
-31.87
-34.52
-34.43
-31.47
-26.13
-19.31
-11.99
-4.97
1.17
6.07
9.50
11.42
11.96
11.48
10.55
9.73
9.48
9.93
10.91
11.89
12.29
11.55
9.45
6.04
1.67
-3.22
-8.25
-13.18
-17.95
-22.48
-26.69
-30.31
-33.03
-34.45
-34.27
-32.28
-28.45
-23.02
-16.43
-9.27
-2.23
4.11
9.32
13.19
15.73
17.10
17.65
17.74
17.77
17.99
18.44
18.94
19.18
18.88
17.86
16.15
13.89
11.23
8.22
4.85
1.11
-2.94
-7.15
-11.31
-15.18
-18.53
-21.04
-22.33
-21.99
-19.72
-15.59
-9.99
-3.66
2.63
8.32
13.20
17.29
20.66
23.26
24.90
25.36
24.70
23.31
21.85
21.10
21.56
23.36
26.19
29.55
32.91
35.92
38.51
40.77
42.87
44.87
46.61
47.60
47.21
44.75
39.86
32.66
23.94
15.06
7.76
3.77
4.38
10.04
20.03
32.56
45.21
55.87
63.62
69.21
74.82
83.02
95.58
112.58
132.47
152.71
170.89
185.49
196.10
203.14
207.43
209.87
211.27
212.16
212.64
212.14
209.51
203.25
192.10
175.34
152.94
125.27
92.74
55.67
14.43
-30.06
-76.04
-120.95
-161.94
-196.65
-223.95
-244.20
-258.96
-270.33
-280.15
-289.47
-298.36
-306.24
-312.34
-316.04
-317.16
-315.76
-312.04
-306.16
-298.20
-288.11
-275.77
-261.01
-243.72
-224.00
-202.34
-179.60
-156.79
-134.67
-113.47
-92.89
-72.46
-52.05
-32.20
-14.18
0.52
10.78
16.36
17.91
16.71
14.06
10.90
7.73
4.77
2.23
0.59
0.56
2.81
7.72
15.08
24.03
33.28
41.52
47.79
51.70
53.45
53.61
52.82
51.56
50.09
48.55
47.04
45.83
45.21
45.40
46.35
47.68
48.82
49.23
48.63
47.12
45.10
43.09
41.41
40.06
38.74
36.94
34.26
30.57
26.10
21.36
16.90
13.13
10.18
7.96
6.18
4.54
2.71
0.33
-2.88
-7.03
-11.92
-17.02
-21.63
-25.23
-27.61
-29.01
-29.82
-30.34
-30.56
-30.20
-29.03
-27.00
-24.40
-21.75
-19.56
-18.23
-17.95
-18.75
-20.60
-23.39
-26.91
-30.78
-34.38
-36.95
-37.72
-36.12
-31.99
-25.69
-18.00
-9.98
-2.53
3.75
8.68
12.36
14.96
16.49
16.85
15.90
13.74
10.76
7.64
5.12
3.77
3.91
5.58
8.76
13.46
19.78
27.73
37.02
46.90
56.20
63.56
67.85
68.43
65.27
58.95
50.40
40.77
31.22
22.80
16.33
12.33
10.92
11.86
14.59
18.28
22.01
24.91
26.35
26.05
24.20
21.35
18.22
15.49
13.56
12.47
12.02
11.84
11.58
10.98
9.93
8.42
6.55
4.43
2.12
-0.36
-3.01
-5.77
-8.48
-10.90
-12.83
-14.23
-15.28
-16.37
-17.95
-20.35
-23.71
-27.87
-32.40
-36.71
-40.15
-42.18
-42.48
-41.03
-38.12
-34.18
-29.67
-25.00
-20.45
-16.19
-12.39
-9.16
-6.60
-4.68
-3.37
-2.62
-2.39
-2.68
-3.38
-4.21
-4.76
-4.61
-3.50
-1.54
0.79
2.74
3.58
2.84
0.47
-3.15
-7.43
-11.74
-15.61
-18.76
-21.04
-22.38
-22.70
-21.93
-19.95
-16.65
-11.86
-5.42
2.67
12.18
22.49
32.67
41.74
49.00
54.26
57.83
60.32
62.33
64.25
66.17
68.01
69.59
70.80
71.62
72.12
72.40
72.48
72.26
71.39
69.35
65.66
60.00
52.51
43.72
34.48
25.76
18.36
12.88
9.61
8.53
9.27
11.11
12.99
13.73
12.35
8.34
1.90
-6.19
-14.82
-22.91
-29.68
-34.69
-37.80
-38.99
-38.31
-35.82
-31.69
-26.19
-19.73
-12.76
-5.74
0.87
6.56
10.85
13.36
13.91
12.59
9.75
5.79
1.09
-4.16
-9.80
-15.65
-21.31
-26.19
-29.68
-31.37
-31.25
-29.67
-27.17
-24.18
-20.82
-16.92
-12.20
-6.56
-0.28
6.06
11.74
16.27
19.52
21.82
23.80
26.19
29.58
34.28
40.27
47.22
54.45
61.05
66.00
68.41
67.76
64.09
57.98
50.42
42.52
35.26
29.24
24.55
20.80
17.18
12.74
6.71
-1.15
-10.39
-19.91
-28.39
-34.75
-38.54
-40.04
-39.92
-38.84
-37.13
-34.73
-31.42
-27.18
-22.39
-17.79
-14.18
-12.06
-11.37
-11.60
-12.07
-12.35
-12.48
-12.92
-14.14
-16.30
-18.97
-21.34
-22.62
-22.48
-21.20
-19.48
-17.99
-17.12
-16.81
-16.84
-17.05
-17.58
-18.76
-20.82
-23.65
-26.71
-29.28
-30.69
-30.62
-29.28
-27.08
-24.53
-21.91
-19.29
-16.61
-13.86
-11.22
-8.96
-7.33
-6.37
-5.84
-5.40
-4.73
-3.73
-2.56
-1.51
-0.89
-0.88
-1.52
-2.69
-4.25
-6.00
-7.83
-9.74
-11.85
-14.40
-17.62
-21.65
-26.46
-31.82
-37.31
-42.43
-46.51
-48.83
-48.62
-45.26
-38.55
-28.85
-17.12
-4.75
6.82
16.38
23.19
26.97
27.84
26.22
22.78
18.39
13.98
10.38
8.09
7.15
7.24
7.81
8.32
8.41
7.90
6.80
5.19
3.17
0.87
-1.64
-4.26
-7.02
-9.94
-13.02
-16.16
-19.09
-21.41
-22.65
-22.37
-20.33
-16.55
-11.38
-5.38
0.78
6.53
11.51
15.56
18.71
21.06
22.68
23.63
24.01
23.97
23.79
23.72
23.94
24.39
24.77
24.67
23.70
21.72
18.88
15.66
12.58
10.04
8.15
6.72
5.30
3.41
0.65
-3.15
-7.85
-12.99
-17.89
-21.75
-23.86
-23.80
-21.56
-17.56
-12.53
-7.28
-2.55
1.18
3.68
4.96
5.27
4.97
4.57
4.59
5.50
7.53
10.48
13.77
16.52
17.86
17.30
14.94
11.42
7.71
4.68
2.81
2.03
1.84
1.55
0.56
-1.49
-4.67
-8.78
-13.34
-17.62
-20.71
-21.62
-19.55
-14.17
-5.73
4.89
16.39
27.42
36.77
43.74
48.10
50.07
50.19
49.12
47.55
46.08
45.09
44.78
45.15
46.09
47.43
48.96
50.42
51.52
51.86
51.03
48.71
44.71
39.10
32.10
24.06
15.33
6.30
-2.66
-11.11
-18.69
-25.17
-30.58
-35.14
-39.12
-42.44
-44.43
-44.06
-40.28
-32.66
-21.88
-9.67
1.56
9.57
12.92
11.35
5.62
-2.90
-12.70
-22.45
-31.11
-37.97
-42.58
-44.91
-45.26
-44.23
-42.50
-40.54
-38.54
-36.42
-33.96
-31.05
-27.81
-24.51
-21.41
-18.59
-15.84
-12.63
-8.34
-2.44
5.38
14.98
25.85
37.11
47.77
56.96
64.21
69.50
73.23
75.90
77.94
79.51
80.59
81.20
81.60
82.32
84.05
87.33
92.33
98.71
105.62
111.75
115.47
114.89
108.20
94.04
72.00
42.98
9.27
-25.76
-58.29
-84.84
-102.96
-111.65
-111.52
-104.48
-93.21
-80.44
-68.30
-57.87
-49.22
-41.76
-34.71
-27.52
-20.01
-12.36
-4.90
2.06
8.32
13.99
19.54
25.87
34.00
44.69
57.78
71.82
84.10
91.27
90.22
79.05
57.73
28.14
-6.30
-41.41
-73.22
-98.77
-116.66
-127.11
-131.55
-131.98
-130.27
-127.64
-124.52
-120.70
-115.68
-108.85
-99.81
-88.55
-75.61
-62.12
-49.68
-39.84
-33.48
-30.28
-28.77
-26.88
-22.84
-16.07
-7.52
0.56
5.57
5.48
-0.34
-10.91
-24.00
-36.94
-47.27
-53.39
-54.63
-51.22
-44.04
-34.35
-23.62
-13.23
-4.25
2.73
7.77
11.47
14.72
18.35
22.82
28.11
33.79
39.25
43.92
47.46
49.82
51.18
51.80
51.86
51.38
50.13
47.76
43.97
38.64
32.08
25.03
18.70
14.60
14.27
18.87
28.73
43.12
60.19
77.31
91.57
100.51
102.62
97.76
87.10
72.69
56.94
42.00
29.25
19.08
11.03
4.01
-3.10
-11.12
-20.21
-29.90
-39.31
-47.50
-53.75
-57.75
-59.57
-59.60
-58.41
-56.77
-55.51
-55.42
-57.03
-60.34
-64.76
-69.23
-72.61
-74.11
-73.58
-71.48
-68.62
-65.87
-63.86
-62.90
-63.02
-63.96
-65.24
-66.19
-66.10
-64.25
-60.18
-53.72
-44.98
-34.35
-22.38
-9.75
2.75
14.25
23.93
31.08
35.35
36.77
35.69
32.71
28.43
23.25
17.23
10.12
1.58
-8.43
-19.35
-29.91
-38.42
-43.31
-43.75
-40.03
-33.39
-25.56
-17.98
-11.30
-5.30
0.81
7.84
16.18
25.72
36.00
46.48
56.79
66.71
76.03
84.42
91.34
96.23
98.73
98.81
96.81
93.13
88.00
81.29
72.69
61.98
49.45
35.95
22.79
11.29
2.33
-3.87
-7.70
-9.82
-10.85
-11.13
-10.74
-9.65
-7.88
-5.58
-3.02
-0.48
1.83
3.82
5.45
6.63
7.14
6.57
4.44
0.38
-5.65
-13.29
-21.81
-30.34
-38.15
-44.83
-50.38
-55.00
-58.86
-61.94
-64.05
-64.89
-64.35
-62.61
-60.11
-57.36
-54.75
-52.35
-49.90
-46.89
-42.76
-37.07
-29.59
-20.31
-9.38
2.87
15.93
29.05
41.32
51.79
59.75
64.94
67.54
68.11
67.26
65.44
62.84
59.47
55.32
50.59
45.65
40.92
36.75
33.21
30.18
27.39
24.61
21.77
18.94
16.31
13.96
11.82
9.65
7.24
4.56
1.87
-0.30
-1.41
-1.22
0.11
2.07
4.00
5.41
6.10
6.11
5.64
4.78
3.50
1.68
-0.71
-3.54
-6.46
-8.98
-10.67
-11.27
-10.85
-9.70
-8.27
-6.96
-6.07
-5.71
-5.85
-6.44
-7.41
-8.69
-10.23
-11.83
-13.25
-14.24
-14.57
-14.03
-12.42
-9.56
-5.33
0.13
6.39
12.75
18.44
22.82
25.55
26.54
25.98
24.15
21.50
18.58
16.01
14.40
14.09
15.08
17.01
19.37
21.77
24.06
26.27
28.44
30.41
31.83
32.29
31.50
29.53
26.75
23.74
21.10
19.28
18.48
18.71
19.84
21.66
23.98
26.57
29.13
31.27
32.47
32.17
29.79
24.93
17.47
7.70
-3.65
-15.46
-26.38
-35.24
-41.35
-44.79
-46.40
-47.51
-49.40
-52.93
-58.25
-64.95
-72.37
-79.81
-86.77
-92.86
-97.73
-101.00
-102.33
-101.42
-98.02
-91.97
-83.18
-71.77
-58.14
-43.04
-27.43
-12.30
1.45
13.11
22.13
28.07
30.66
30.05
26.84
22.12
17.18
13.12
10.57
9.59
9.85
10.88
12.40
14.29
16.65
19.59
23.09
26.89
30.58
33.69
35.99
37.53
38.74
40.32
43.01
47.43
53.96
62.69
73.28
84.82
95.73
103.90
107.04
103.40
92.33
74.68
52.67
29.17
7.05
-11.67
-26.13
-36.59
-43.99
-49.49
-53.98
-57.84
-61.00
-63.00
-63.39
-61.90
-58.66
-54.13
-49.04
-44.10
-39.94
-36.95
-35.30
-35.05
-36.12
-38.36
-41.52
-45.17
-48.73
-51.71
-53.77
-54.88
-55.23
-55.09
-54.59
-53.70
-52.22
-50.01
-47.07
-43.58
-39.85
-36.14
-32.61
-29.34
-26.32
-23.60
-21.21
-19.22
-17.60
-16.21
-14.90
-13.50
-11.89
-10.01
-7.83
-5.31
-2.40
0.93
4.63
8.53
12.38
15.85
18.75
21.07
22.97
24.69
26.38
27.99
29.32
30.11
30.30
30.03
29.60
29.34
29.42
29.84
30.53
31.50
32.86
34.75
37.18
39.96
42.73
45.07
46.61
47.12
46.34
43.93
39.56
33.01
24.50
14.75
4.89
-3.91
-10.85
-15.73
-18.97
-21.27
-23.23
-25.12
-26.79
-27.78
-27.50
-25.32
-20.78
-13.70
-4.45
5.97
16.15
24.67
30.73
34.48
37.00
39.66
43.43
48.42
53.86
58.62
61.80
63.10
62.82
61.64
60.25
59.18
58.84
59.58
61.67
65.24
70.14
75.87
81.57
86.24
88.93
88.92
85.89
79.94
71.45
60.92
48.80
35.49
21.43
7.23
-6.24
-18.11
-27.70
-34.78
-39.67
-43.09
-45.80
-48.40
-51.10
-53.86
-56.45
-58.54
-59.81
-60.05
-59.22
-57.56
-55.65
-54.18
-53.78
-54.62
-56.34
-58.03
-58.54
-56.87
-52.52
-45.57
-36.59
-26.38
-15.73
-5.15
5.06
14.87
24.34
33.60
42.75
51.74
60.29
67.85
73.68
77.11
77.88
76.44
73.96
72.02
72.18
75.43
81.92
90.90
100.75
109.29
114.12
113.11
105.01
89.85
69.20
45.80
22.91
3.36
-11.25
-20.87
-26.87
-31.33
-36.17
-42.46
-50.20
-58.53
-66.42
-73.33
-79.47
-85.42
-91.47
-96.98
-100.40
-99.85
-93.98
-82.58
-66.39
-46.55
-23.81
1.48
28.68
56.00
80.11
96.97
103.48
99.03
85.89
68.21
50.19
34.61
22.58
14.23
9.75
9.65
14.15
21.92
29.51
31.80
23.84
2.84
-30.44
-71.72
-114.71
-153.09
-182.39
-200.79
-208.98
-209.12
-203.75
-194.92
-183.83
-171.20
-157.70
-144.19
-131.64
-120.70
-111.43
-103.26
-95.44
-87.51
-79.61
-72.44
-66.85
-63.48
-62.48
-63.58
-66.31
-70.15
-74.50
-78.66
-81.75
-82.89
-81.40
-77.09
-70.29
-61.72
-52.37
-43.26
-35.48
-29.86
-26.81
-26.02
-26.40
-26.42
-24.62
-20.19
-13.19
-4.52
4.65
13.21
20.41
25.93
29.71
31.90
32.88
33.20
33.47
34.18
35.47
37.00
38.08
38.01
36.41
33.45
29.87
26.73
25.00
25.19
27.23
30.58
34.47
38.27
41.60
44.34
46.42
47.77
48.30
48.00
47.11
46.16
45.79
46.52
48.62
51.94
56.01
60.13
63.61
65.88
66.60
65.78
63.79
61.25
58.89
57.19
56.21
55.65
54.93
53.57
51.33
48.23
44.46
40.24
35.80
31.54
28.08
26.25
26.71
29.72
34.82
41.01
47.07
51.97
55.09
56.07
54.67
50.60
43.65
33.87
21.83
8.56
-4.69
-16.88
-27.43
-36.41
-44.32
-51.82
-59.47
-67.45
-75.64
-83.64
-90.89
-96.88
-101.27
-103.93
-104.94
-104.61
-103.22
-100.96
-97.78
-93.35
-87.15
-78.85
-68.52
-56.77
-44.70
-33.50
-23.92
-16.13
-9.76
-3.96
1.74
7.62
13.84
20.83
29.18
39.06
49.37
57.50
60.13
54.91
42.20
25.62
10.57
1.98
2.07
9.55
20.83
32.28
41.87
49.46
55.59
59.97
61.15
57.39
48.46
36.62
25.98
20.61
22.66
31.37
43.62
56.15
66.88
75.70
83.63
91.32
97.79
100.24
95.12
79.76
53.88
20.14
-16.49
-49.86
-74.57
-87.26
-87.28
-76.68
-59.35
-39.69
-21.71
-8.35
-1.37
-1.53
-8.55
-21.11
-36.68
-51.76
-62.57
-66.17
-61.56
-50.19
-35.65
-22.39
-14.06
-12.21
-15.93
-22.52
-28.98
-33.33
-35.35
-36.33
-38.01
-41.40
-45.99
-49.86
-50.54
-46.31
-37.18
-25.10
-13.36
-5.43
-3.94
-9.96
-22.79
-39.98
-57.45
-69.93
-72.02
-60.13
-34.38
0.51
36.34
64.40
79.30
81.50
77.13
74.95
81.91
99.74
124.22
147.47
161.80
162.89
151.10
130.11
104.50
77.69
51.76
28.32
9.65
-1.47
-3.19
3.61
14.53
22.94
22.84
11.74
-8.21
-31.49
-51.92
-65.47
-71.53
-72.24
-70.65
-68.97
-67.79
-66.53
-64.14
-59.84
-53.45
-45.26
-35.90
-26.04
-16.32
-7.34
0.38
6.40
10.36
12.04
11.61
9.67
7.40
6.14
6.99
10.24
15.11
19.96
22.86
22.47
18.46
11.65
3.48
-4.67
-12.02
-18.50
-24.49
-30.41
-36.25
-41.56
-45.54
-47.44
-46.86
-43.92
-39.28
-33.77
-28.17
-22.88
-17.93
-13.04
-7.90
-2.41
3.27
8.79
13.75
17.87
21.07
23.46
25.22
26.52
27.41
27.88
27.82
27.12
25.69
23.53
20.78
17.69
14.57
11.70
9.21
6.97
4.55
1.42
-2.89
-8.49
-14.94
-21.30
-26.41
-29.14
-28.68
-24.69
-17.33
-7.19
4.82
17.65
30.41
42.50
53.84
64.72
75.61
86.71
97.72
107.72
115.49
119.76
119.48
113.90
102.67
85.82
63.89
38.05
10.04
-17.96
-43.71
-65.17
-80.96
-90.57
-94.46
-93.92
-90.74
-86.85
-83.96
-83.32
-85.60
-90.70
-97.55
-104.21
-108.10
-106.81
-99.07
-85.55
-68.91
-53.14
-42.30
-39.31
-45.09
-58.35
-75.94
-93.44
-106.21
-110.62
-105.19
-91.41
-73.64
-57.73
-48.97
-50.07
-60.08
-74.85
-88.59
-96.05
-94.20
-82.75
-63.62
-39.82
-14.25
10.82
33.66
52.83
67.11
75.75
78.91
77.77
74.17
69.79
65.43
60.83
55.05
47.33
37.69
27.06
16.87
8.38
2.26
-1.56
-3.67
-4.93
-6.20
-8.16
-11.16
-15.06
-19.15
-22.27
-23.22
-21.21
-16.07
-8.47
0.52
9.67
18.07
25.23
31.09
35.77
39.43
42.12
43.85
44.61
44.49
43.61
42.13
40.16
37.84
35.27
32.61
29.95
27.34
24.71
21.89
18.66
14.79
10.11
4.66
-1.23
-6.86
-11.26
-13.46
-12.84
-9.37
-3.70
3.09
9.91
15.96
20.89
24.74
27.70
29.94
31.52
32.52
33.03
33.28
33.51
33.93
34.55
35.22
35.61
35.45
34.56
33.03
31.14
29.23
27.49
25.91
24.27
22.22
19.48
15.96
11.79
7.35
3.24
0.14
-1.32
-0.77
1.74
5.80
10.74
15.92
20.92
25.63
30.03
34.12
37.71
40.52
42.32
43.03
42.80
41.90
40.59
39.10
37.55
36.07
34.75
33.63
32.70
31.88
31.02
30.04
28.92
27.67
26.26
24.57
22.42
19.69
16.42
12.74
8.87
5.02
1.35
-1.90
-4.38
-5.66
-5.33
-3.21
0.54
5.46
10.99
16.62
22.09
27.25
32.03
36.24
39.63
41.94
43.15
43.46
43.28
43.08
43.18
43.67
44.38
45.04
45.41
45.38
45.00
44.39
43.70
43.08
42.59
42.26
42.01
41.68
40.96
39.59
37.41
34.51
31.29
28.33
26.24
25.41
25.84
27.23
29.07
30.86
32.27
33.20
33.73
34.10
34.58
35.51
37.19
39.88
43.59
48.04
52.65
56.58
59.05
59.56
58.07
55.03
51.19
47.32
43.93
41.05
38.31
35.15
31.12
26.11
20.34
14.21
8.04
1.93
-4.21
-10.55
-17.12
-23.75
-30.16
-36.09
-41.36
-45.85
-49.42
-51.80
-52.62
-51.60
-48.77
-44.55
-39.65
-34.81
-30.55
-26.99
-23.93
-21.01
-18.05
-15.05
-12.24
-9.91
-8.21
-7.15
-6.65
-6.65
-7.18
-8.36
-10.19
-12.56
-15.21
-17.85
-20.34
-22.75
-25.25
-27.99
-30.95
-33.89
-36.45
-38.36
-39.54
-40.16
-40.53
-40.94
-41.56
-42.47
-43.65
-45.01
-46.34
-47.24
-47.15
-45.54
-42.11
-37.00
-30.78
-24.29
-18.34
-13.43
-9.68
-6.95
-5.00
-3.66
-2.92
-2.76
-3.19
-4.10
-5.37
-6.86
-8.51
-10.27
-12.09
-13.96
-15.86
-18.00
-20.68
-24.31
-28.98
-34.19
-38.70
-40.79
-38.89
-32.40
-22.11
-10.08
1.07
9.11
12.86
12.23
7.79
0.32
-9.44
-20.53
-31.57
-40.86
-46.93
-49.22
-48.52
-46.59
-45.21
-45.23
-46.18
-46.71
-45.65
-42.85
-39.42
-37.10
-37.35
-40.56
-45.81
-51.42
-55.51
-56.66
-54.08
-47.63
-37.63
-24.76
-10.03
5.35
20.08
33.21
44.30
53.52
61.47
68.74
75.54
81.48
85.73
87.32
85.56
80.27
71.80
60.95
48.72
36.15
24.24
13.85
5.51
-0.61
-4.89
-8.15
-11.30
-15.01
-19.37
-23.94
-28.10
-31.52
-34.51
-38.00
-43.16
-50.78
-60.74
-71.91
-82.39
-90.13
-93.62
-92.35
-86.78
-78.12
-67.75
-56.81
-45.95
-35.36
-24.98
-14.82
-5.15
3.51
10.48
15.21
17.48
17.58
16.25
14.42
12.93
12.18
12.19
12.65
13.35
14.37
16.01
18.65
22.47
27.31
32.84
38.63
44.04
48.12
49.37
46.13
37.27
23.02
5.34
-12.55
-27.31
-36.88
-41.19
-41.86
-40.96
-39.61
-37.32
-32.30
-22.87
-8.71
8.43
25.20
37.90
43.89
42.55
35.22
24.54
13.46
4.43
-0.85
-1.39
3.33
13.39
28.32
46.93
67.43
87.68
105.76
120.47
131.61
139.85
146.35
152.16
157.81
163.10
167.30
169.52
169.08
165.75
159.78
151.81
142.62
133.08
123.97
116.01
109.68
105.19
102.33
100.55
99.04
96.95
93.58
88.47
81.49
72.84
63.11
53.00
43.13
33.74
24.45
14.36
2.52
-11.47
-27.14
-43.18
-57.93
-69.65
-76.95
-79.14
-76.86
-72.78
-71.66
-78.91
-97.86
-127.16
-159.96
-186.25
-197.64
-191.77
-173.73
-153.14
-138.76
-133.87
-135.50
-137.79
-136.78
-133.35
-131.87
-136.41
-147.30
-160.84
-172.50
-180.70
-187.98
-198.44
-213.56
-229.49
-238.33
-232.70
-210.59
-176.92
-140.99
-111.33
-91.62
-79.89
-71.17
-61.42
-49.89
-38.63
-30.13
-24.93
-21.11
-15.63
-6.48
5.96
18.99
29.07
33.62
32.06
25.84
17.46
9.14
2.08
-3.81
-9.39
-15.59
-22.82
-30.71
-38.28
-44.35
-47.97
-48.75
-46.96
-43.32
-38.88
-34.58
-31.08
-28.43
-26.13
-23.15
-18.36
-11.04
-1.36
9.51
19.67
27.22
31.14
31.75
30.62
29.81
30.86
34.06
38.43
42.36
44.59
44.78
43.52
41.77
40.14
38.47
35.91
31.54
24.97
16.70
8.03
0.56
-4.45
-6.46
-5.74
-3.13
0.52
4.64
9.18
14.49
20.90
28.48
36.82
45.17
52.68
58.64
62.68
64.74
65.11
64.37
63.27
62.58
62.81
64.06
65.86
67.36
67.70
66.23
62.70
57.27
50.33
42.42
34.17
26.26
19.40
14.16
10.81
9.25
9.08
9.68
10.42
10.97
11.42
12.43
15.17
20.84
30.16
42.70
56.71
69.46
78.19
81.08
77.98
70.35
60.59
51.12
43.65
38.99
37.41
39.03
43.95
52.14
63.05
75.50
87.85
98.41
105.73
108.39
104.74
92.74
70.50
37.40
-5.00
-52.58
-99.57
-140.18
-170.27
-188.16
-194.38
-190.70
-179.14
-161.53
-139.73
-115.88
-92.48
-71.88
-55.64
-44.21
-36.98
-32.74
-30.25
-28.48
-26.61
-23.83
-19.22
-11.75
-0.44
15.18
34.66
56.48
78.17
97.03
110.95
119.22
122.66
122.84
121.03
117.59
112.12
104.31
94.86
85.46
77.85
72.64
68.60
63.22
54.19
40.63
23.31
3.58
-18.05
-42.53
-71.42
-105.06
-141.09
-174.49
-199.21
-210.58
-207.16
-190.84
-165.70
-136.09
-105.25
-74.95
-46.18
-19.94
2.41
19.49
30.50
35.64
35.96
32.83
27.49
21.03
14.69
10.12
9.12
12.91
21.28
32.29
42.75
49.48
50.68
46.54
39.07
31.08
24.93
21.86
21.85
24.18
27.99
32.67
37.87
43.35
48.64
53.15
56.25
57.63
57.41
56.16
54.60
53.26
52.20
51.00
48.94
45.36
39.99
33.09
25.31
17.44
10.11
3.64
-2.03
-7.12
-11.84
-16.20
-20.01
-22.92
-24.68
-25.27
-24.94
-24.15
-23.35
-22.78
-22.43
-22.07
-21.42
-20.29
-18.71
-16.84
-14.98
-13.42
-12.43
-12.33
-13.49
-16.28
-21.05
-27.94
-36.81
-47.15
-58.15
-68.78
-78.01
-85.11
-89.78
-92.21
-92.88
-92.35
-90.97
-88.73
-85.30
-80.17
-72.95
-63.49
-51.95
-38.77
-24.50
-9.70
5.12
19.52
33.09
45.44
56.35
65.73
73.77
80.83
87.34
93.67
100.03
106.46
112.84
118.97
124.55
129.20
132.53
134.17
134.00
132.24
129.46
126.47
124.20
123.41
124.68
128.32
134.32
142.32
151.47
160.44
167.55
171.06
169.63
162.71
150.62
134.55
116.16
97.27
79.54
64.25
52.11
43.09
36.32
30.47
24.16
16.65
8.09
-0.83
-9.64
-18.91
-30.39
-46.44
-68.91
-98.08
-132.30
-168.56
-203.45
-234.07
-258.45
-275.37
-284.09
-284.30
-276.38
-261.76
-242.89
-222.74
-203.90
-187.71
-173.74
-160.16
-144.52
-125.02
-101.47
-75.54
-50.39
-29.58
-15.98
-11.01
-14.48
-24.90
-40.05
-57.44
-74.57
-89.18
-99.40
-104.07
-103.07
-97.43
-89.13
-80.55
-73.74
-69.77
-68.35
-67.94
-66.32
-61.58
-52.97
-41.23
-28.28
-16.19
-6.19
1.92
9.43
17.86
28.01
39.52
51.14
61.44
69.46
74.83
77.42
77.04
73.15
65.28
53.57
39.16
24.16
11.16
2.40
-0.85
1.46
8.39
18.52
30.59
43.80
57.84
72.56
87.67
102.53
116.26
127.99
137.18
143.83
148.41
151.65
154.28
156.81
159.45
162.18
164.87
167.43
169.79
171.90
173.55
174.34
173.53
170.32
164.03
154.35
141.49
126.11
109.01
90.81
71.81
51.98
31.25
9.80
-11.85
-32.89
-52.47
-69.97
-85.22
-98.52
-110.55
-122.10
-133.85
-146.09
-158.56
-170.44
-180.39
-186.72
-187.62
-181.37
-166.68
-143.03
-110.93
-72.15
-29.69
12.63
50.78
81.37
102.38
113.56
116.42
113.79
108.99
104.88
103.07
103.57
105.14
106.06
104.99
101.79
97.74
95.36
97.64
106.81
123.08
143.82
163.76
176.26
175.25
157.27
122.56
75.15
21.58
-30.89
-76.07
-110.04
-131.54
-141.67
-143.18
-139.53
-134.08
-129.41
-127.06
-127.59
-130.80
-136.06
-142.37
-148.53
-153.28
-155.72
-155.72
-154.04
-152.05
-151.09
-151.75
-153.56
-155.08
-154.62
-150.97
-143.92
-134.37
-123.80
-113.75
-105.31
-98.99
-94.82
-92.42
-91.20
-90.26
-88.48
-84.78
-78.38
-69.12
-57.54
-44.71
-31.75
-19.46
-8.11
2.47
12.52
21.98
30.30
36.53
39.66
39.09
34.92
27.95
19.51
10.96
3.32
-2.80
-7.21
-9.89
-10.77
-9.82
-7.12
-3.06
1.71
6.41
10.36
13.20
14.97
15.92
16.41
16.75
17.18
17.88
19.02
20.70
22.92
25.61
28.60
31.77
35.06
38.44
41.90
45.33
48.53
51.22
53.15
54.18
54.26
53.51
52.18
50.55
48.97
47.73
47.02
46.89
47.20
47.72
48.20
48.49
48.61
48.59
48.44
48.04
47.16
45.59
43.35
40.73
38.21
36.31
35.27
35.02
35.20
35.39
35.32
34.96
34.47
34.03
33.81
33.90
34.38
35.33
36.82
38.81
41.10
43.33
45.14
46.26
46.70
46.80
47.04
47.96
49.75
52.25
54.89
57.03
58.29
58.77
58.97
59.43
60.40
61.64
62.51
62.23
60.08
55.58
48.42
38.38
25.39
9.70
-8.11
-27.11
-46.37
-65.34
-83.97
-102.58
-121.44
-140.25
-157.95
-172.91
-183.47
-188.56
-188.21
-183.69
-177.18
-171.08
-167.27
-166.48
-168.01
-169.88
-169.51
-164.66
-154.46
-139.94
-123.76
-109.16
-98.54
-92.39
-89.14
-85.76
-79.21
-67.41
-49.91
-27.61
-2.25
24.34
50.51
74.97
96.64
114.72
128.81
139.06
146.14
151.03
154.86
158.58
162.79
167.65
172.90
178.07
182.75
187.03
191.61
197.62
205.84
215.97
226.02
232.54
231.67
220.65
198.97
168.73
133.79
98.35
65.48
36.42
10.78
-12.73
-35.38
-57.90
-80.36
-102.38
-123.42
-142.95
-160.42
-175.29
-186.94
-194.79
-198.43
-197.80
-193.26
-185.55
-175.57
-164.07
-151.49
-137.94
-123.31
-107.58
-90.98
-74.10
-57.83
-43.10
-30.68
-20.96
-13.93
-9.18
-6.11
-4.01
-2.29
-0.55
1.35
3.30
5.04
6.29
6.89
6.87
6.44
5.85
5.34
4.97
4.72
4.41
3.92
3.09
1.73
-0.37
-3.42
-7.40
-11.96
-16.40
-19.83
-21.46
-20.84
-18.03
-13.49
-7.95
-2.14
3.28
7.78
10.98
12.73
13.15
12.61
11.72
11.05
11.05
11.82
13.16
14.69
15.94
16.56
16.36
15.32
13.59
11.39
8.96
6.47
4.05
1.68
-0.69
-3.08
-5.47
-7.73
-9.57
-10.63
-10.53
-9.06
-6.23
-2.40
1.87
5.97
9.43
12.08
13.99
15.33
16.21
16.63
16.54
15.94
14.99
13.94
13.03
12.43
12.15
12.10
12.15
12.18
12.06
11.69
10.96
9.81
8.23
6.25
3.88
1.12
-2.04
-5.48
-8.85
-11.71
-13.59
-14.15
-13.28
-11.07
-7.77
-3.72
0.69
5.03
8.89
11.96
14.08
15.30
15.80
15.82
15.59
15.28
15.00
14.83
14.78
14.76
14.58
14.03
12.95
11.36
9.39
7.28
5.21
3.24
1.24
-1.04
-3.78
-6.95
-10.24
-13.06
-14.74
-14.73
-12.81
-9.17
-4.31
1.07
6.33
11.01
14.83
17.68
19.56
20.47
20.49
19.74
18.46
16.94
15.47
14.23
13.22
12.36
11.46
10.43
9.26
8.05
6.85
5.69
4.42
2.84
0.76
-1.97
-5.35
-9.29
-13.51
-17.53
-20.75
-22.47
-22.15
-19.58
-15.09
-9.37
-3.31
2.32
7.09
10.90
13.79
15.81
16.95
17.16
16.48
15.21
13.74
12.47
11.67
11.33
11.28
11.24
11.05
10.69
10.26
9.83
9.41
8.81
7.72
5.84
3.00
-0.74
-5.04
-9.39
-13.21
-15.94
-17.20
-16.77
-14.67
-11.15
-6.65
-1.68
3.23
7.78
11.78
15.15
17.77
19.50
20.21
19.93
18.95
17.71
16.71
16.21
16.15
16.22
16.04
15.36
14.22
12.82
11.39
10.05
8.73
7.24
5.33
2.78
-0.53
-4.60
-9.26
-14.08
-18.42
-21.52
-22.60
-21.19
-17.21
-11.05
-3.44
4.72
12.52
19.24
24.32
27.49
28.73
28.23
26.40
23.78
20.92
18.30
16.22
14.76
13.81
13.09
12.33
11.31
9.96
8.36
6.65
4.95
3.26
1.48
-0.55
-2.95
-5.82
-9.16
-12.83
-16.55
-19.84
-22.04
-22.53
-20.91
-17.18
-11.80
-5.54
0.73
6.32
10.83
14.16
16.36
17.63
18.10
17.94
17.35
16.55
15.80
15.32
15.20
15.36
15.54
15.41
14.71
13.38
11.57
9.58
7.64
5.81
3.88
1.57
-1.43
-5.14
-9.29
-13.35
-16.65
-18.54
-18.62
-16.74
-13.06
-8.03
-2.22
3.77
9.41
14.33
18.32
21.30
23.32
24.51
25.11
25.42
25.75
26.30
27.18
28.26
29.36
30.25
30.78
30.88
30.56
29.92
29.04
27.97
26.69
25.08
22.91
19.95
16.10
11.49
6.54
1.84
-2.03
-4.71
-6.20
-6.82
-7.08
-7.50
-8.42
-9.95
-11.98
-14.30
-16.64
-18.72
-20.40
-21.56
-22.17
-22.24
-21.86
-21.18
-20.35
-19.58
-19.01
-18.75
-18.84
-19.27
-20.01
-21.04
-22.37
-24.02
-26.02
-28.35
-30.91
-33.43
-35.53
-36.75
-36.68
-35.06
-31.93
-27.59
-22.59
-17.56
-13.06
-9.52
-7.11
-5.80
-5.38
-5.52
-5.89
-6.16
-6.08
-5.51
-4.45
-3.06
-1.61
-0.40
0.33
0.45
0.02
-0.79
-1.80
-2.89
-4.00
-5.15
-6.28
-7.17
-7.43
-6.64
-4.55
-1.21
2.90
7.10
10.65
13.04
14.10
13.96
12.92
11.30
9.27
6.84
3.99
0.76
-2.69
-6.00
-8.80
-10.73
-11.58
-11.36
-10.24
-8.56
-6.79
-5.38
-4.65
-4.71
-5.34
-6.06
-6.22
-5.19
-2.53
1.88
7.87
15.00
22.67
30.24
37.10
42.82
47.16
50.11
51.82
52.56
52.69
52.68
53.05
54.26
56.50
59.53
62.67
64.95
65.41
63.43
58.84
51.96
43.42
33.97
24.37
15.22
6.74
-1.25
-9.32
-18.18
-28.28
-39.61
-51.54
-63.08
-73.22
-81.19
-86.44
-88.48
-86.79
-80.86
-70.33
-55.25
-36.10
-13.63
11.13
36.83
61.63
83.00
98.19
104.82
101.83
90.08
72.36
52.77
35.69
24.67
21.54
26.17
36.57
49.75
62.51
72.37
78.08
79.67
77.95
73.96
68.47
61.89
54.42
46.41
38.53
31.68
26.64
23.73
22.65
22.65
22.87
22.75
22.20
21.41
20.61
19.68
18.13
15.37
11.11
5.56
-0.56
-6.49
-11.92
-17.09
-22.69
-29.15
-36.21
-42.79
-47.37
-48.74
-46.55
-41.57
-35.27
-29.22
-24.49
-21.50
-20.23
-20.55
-22.49
-26.09
-31.19
-37.17
-43.02
-47.64
-50.25
-50.69
-49.38
-47.08
-44.57
-42.46
-41.01
-40.26
-40.09
-40.35
-41.00
-42.18
-44.09
-46.91
-50.63
-54.97
-59.58
-64.19
-68.86
-73.90
-79.63
-85.96
-92.32
-97.82
-102.03
-105.40
-109.41
-115.75
-125.32
-137.32
-149.21
-157.68
-159.93
-154.69
-142.41
-124.57
-102.86
-78.59
-52.76
-26.46
-1.18
21.34
39.67
53.34
63.13
70.70
77.89
85.91
94.76
103.23
109.36
111.11
107.05
96.66
80.51
60.01
37.03
13.70
-7.90
-25.80
-38.46
-45.05
-45.67
-41.44
-34.19
-25.96
-18.52
-12.94
-9.62
-8.36
-8.68
-10.04
-11.93
-13.89
-15.57
-16.71
-17.17
-16.98
-16.31
-15.44
-14.66
-14.22
-14.22
-14.59
-15.12
-15.54
-15.65
-15.36
-14.86
-14.47
-14.60
-15.54
-17.39
-19.95
-22.80
-25.34
-26.95
-27.11
-25.56
-22.34
-17.86
-12.72
-7.60
-3.07
0.60
3.41
5.60
7.47
9.22
10.87
12.32
13.41
14.09
14.47
14.73
15.07
15.54
16.01
16.25
16.03
15.26
13.98
12.32
10.38
8.24
5.88
3.35
0.78
-1.66
-3.75
-5.38
-6.57
-7.43
-8.09
-8.65
-9.09
-9.23
-8.83
-7.64
-5.54
-2.54
1.12
5.14
9.12
12.74
15.72
17.88
19.11
19.43
18.97
17.99
16.84
15.85
15.20
14.86
14.60
14.14
13.28
12.01
10.50
9.00
7.62
6.37
5.07
3.41
1.14
-1.91
-5.69
-9.94
-14.20
-17.85
-20.28
-21.01
-19.81
-16.82
-12.44
-7.25
-1.80
3.49
8.32
12.54
16.02
18.68
20.46
21.39
21.60
21.31
20.74
20.05
19.33
18.56
17.69
16.71
15.61
14.42
13.14
11.73
10.09
8.14
5.78
2.93
-0.49
-4.50
-9.08
-14.00
-18.81
-22.89
