1650970288.00
64.000000
-0.00
-0.00
-0.00
-0.00
-0.00
-0.00
-0.00
-0.00
-0.00
-0.00
0.00
0.01
0.01
-0.00
-0.03
-0.05
-0.05
0.00
0.13
0.36
0.66
1.01
1.37
1.72
2.06
2.40
2.79
3.24
3.80
4.42
5.06
5.66
6.20
6.68
7.15
7.68
8.31
9.14
10.09
11.04
11.88
12.56
13.14
13.76
14.65
15.96
17.91
20.32
22.90
25.38
27.58
29.57
31.68
34.32
37.81
42.54
48.15
54.10
59.83
64.97
69.58
74.14
79.34
85.71
93.76
103.00
112.62
121.73
129.77
136.75
143.30
150.75
157.77
166.64
177.95
191.79
206.97
220.57
228.25
225.36
208.53
176.87
132.76
80.05
23.07
-34.94
-92.44
-149.16
-205.23
-260.37
-313.74
-363.87
-409.83
-450.91
-486.50
-515.74
-537.23
-549.22
-549.96
-538.37
-514.21
-478.67
-433.88
-382.45
-327.02
-269.84
-212.63
-156.66
-102.95
-52.37
-5.90
35.58
71.43
101.35
125.50
144.38
158.69
169.15
176.37
180.75
182.57
182.07
179.51
175.23
169.65
163.18
156.15
148.81
141.30
133.69
126.02
118.33
110.69
103.16
95.80
88.68
81.83
75.25
68.95
62.95
57.25
51.86
46.78
42.03
37.59
33.45
29.61
26.07
22.81
19.83
17.11
14.67
12.48
10.54
8.83
7.35
6.07
4.97
4.05
3.27
2.62
2.09
1.65
1.30
1.01
0.79
0.61
0.48
0.37
0.29
0.22
0.18
0.14
0.11
0.09
0.08
0.07
0.06
0.05
0.05
0.05
0.04
0.05
0.05
0.06
0.08
0.09
0.12
0.15
0.18
0.21
0.25
0.29
0.33
0.37
0.41
0.46
0.52
0.58
0.65
0.71
0.74
0.74
0.72
0.68
0.67
0.69
0.77
0.89
1.03
1.16
1.27
1.36
1.46
1.58
1.77
2.03
2.34
2.68
2.98
3.22
3.39
3.56
3.81
4.20
4.76
5.43
6.11
6.66
6.99
7.13
7.21
7.42
7.95
8.84
10.01
11.17
12.05
12.45
12.37
12.04
11.78
11.86
12.29
12.76
12.73
11.59
8.95
4.81
-0.44
-6.15
-11.76
-16.88
-21.50
-25.86
-30.27
-35.01
-40.30
-46.25
-52.67
-58.76
-62.97
-63.36
-58.27
-47.32
-31.88
-14.80
0.65
11.99
18.37
20.51
19.93
18.09
15.80
13.34
10.77
8.35
6.63
6.14
7.13
9.29
12.01
14.56
16.40
17.42
17.85
18.22
18.97
20.31
22.08
23.80
24.80
24.52
22.61
19.07
14.31
9.09
4.47
1.47
0.84
2.79
6.93
12.42
18.30
23.78
28.35
31.71
33.57
33.73
32.14
29.17
25.55
22.21
19.70
17.94
16.29
13.73
9.44
3.26
-4.10
-11.53
-18.05
-23.12
-26.72
-28.93
-29.72
-28.98
-26.80
-23.84
-21.35
-20.71
-22.76
-27.32
-33.15
-38.46
-41.60
-41.54
-38.01
-31.41
-22.52
-12.30
-1.75
8.21
16.86
23.90
29.46
34.07
38.31
42.61
46.98
51.02
54.09
55.47
54.61
51.24
45.43
37.60
28.35
18.24
7.48
-4.21
-17.52
-33.19
-51.45
-71.58
-91.76
-109.21
-120.71
-123.39
-115.45
-96.81
-69.33
-36.56
-2.78
28.08
53.47
72.66
86.34
95.78
101.84
104.60
103.61
98.61
90.05
79.24
67.82
57.07
47.48
38.72
30.20
21.53
12.94
5.09
-1.23
-5.54
-7.94
-8.91
-9.05
-8.69
-7.80
-6.07
-3.29
0.31
3.91
6.25
6.10
2.72
-3.75
-12.28
-21.29
-29.12
-34.59
-37.19
-37.24
-35.54
-33.16
-30.99
-29.57
-28.97
-28.95
-29.09
-28.94
-28.18
-26.59
-24.13
-20.87
-17.08
-13.22
-9.81
-7.32
-5.91
-5.50
-5.74
-6.28
-7.00
-8.14
-10.14
-13.43
-18.12
-23.82
-29.71
-34.74
-38.01
-38.96
-37.56
-34.18
-29.49
-24.22
-18.96
-14.17
-10.13
-7.11
-5.31
-4.90
-5.88
-7.99
-10.66
-13.16
-14.75
-14.89
-13.39
-10.38
-6.21
-1.36
3.65
8.29
12.14
14.92
16.61
17.45
17.84
18.13
18.54
19.02
19.43
19.62
19.52
19.23
18.81
18.25
17.46
16.25
14.54
12.39
10.04
7.79
5.99
4.82
4.31
4.32
4.61
4.91
4.95
4.57
3.71
2.39
0.66
-1.39
-3.74
-6.27
-8.83
-11.21
-13.14
-14.44
-14.99
-14.87
-14.22
-13.29
-12.30
-11.39
-10.59
-9.82
-8.97
-7.91
-6.59
-5.02
-3.30
-1.52
0.18
1.74
3.08
4.12
4.80
5.12
5.12
4.89
4.57
4.26
4.02
3.90
3.89
3.98
4.10
4.19
4.14
3.91
3.49
2.93
2.33
1.72
1.14
0.53
-0.18
-0.99
-1.79
-2.38
-2.55
-2.22
-1.48
-0.60
0.12
0.53
0.66
0.77
1.11
1.82
2.78
3.71
4.34
4.57
4.55
4.48
4.52
4.57
4.38
3.68
2.43
0.86
-0.54
-1.28
-1.07
0.04
1.72
3.52
5.06
6.07
6.47
6.27
5.59
4.62
3.68
3.06
2.93
3.26
3.77
4.13
4.08
3.64
2.99
2.49
2.34
2.58
3.04
3.46
3.60
3.34
2.67
1.71
0.68
-0.15
-0.51
-0.24
0.57
1.65
2.60
3.10
3.00
2.36
1.39
0.28
-0.84
-1.97
-3.15
-4.40
-5.66
-6.84
-7.84
-8.61
-9.16
-9.54
-9.82
-10.04
-10.17
-10.19
-10.06
-9.83
-9.63
-9.65
-10.04
-10.81
-11.82
-12.75
-13.22
-12.98
-11.94
-10.27
-8.31
-6.46
-5.00
-4.06
-3.64
-3.66
-4.03
-4.68
-5.48
-6.17
-6.43
-5.94
-4.61
-2.67
-0.60
1.01
1.78
1.67
0.98
0.17
-0.45
-0.78
-1.01
-1.37
-2.03
-2.99
-4.09
-5.12
-5.88
-6.30
-6.34
-5.98
-5.22
-4.05
-2.48
-0.64
1.30
3.14
4.69
5.89
6.78
7.45
8.00
8.42
8.61
8.45
7.88
6.99
6.02
5.21
4.69
4.39
4.13
3.68
2.94
2.00
1.05
0.31
-0.18
-0.51
-0.92
-1.61
-2.63
-3.86
-5.00
-5.75
-5.89
-5.44
-4.60
-3.64
-2.77
-2.02
-1.26
-0.33
0.83
2.15
3.40
4.35
4.84
4.90
4.69
4.40
4.22
4.26
4.55
5.07
5.76
6.47
6.98
7.09
6.65
5.61
4.14
2.44
0.75
-0.78
-2.12
-3.34
-4.54
-5.78
-7.06
-8.27
-9.27
-9.95
-10.25
-10.23
-9.97
-9.59
-9.15
-8.67
-8.17
-7.67
-7.26
-6.99
-6.84
-6.66
-6.27
-5.44
-4.07
-2.16
0.09
2.35
4.28
5.60
6.21
6.19
5.80
5.37
5.15
5.20
5.40
5.51
5.34
4.84
4.13
3.43
2.96
2.75
2.69
2.56
2.15
1.31
0.04
-1.49
-3.01
-4.25
-4.98
-5.17
-4.98
-4.61
-4.28
-4.09
-3.93
-3.69
-3.23
-2.53
-1.65
-0.74
0.10
0.79
1.27
1.51
1.49
1.25
0.88
0.53
0.29
0.22
0.29
0.45
0.66
0.84
0.96
0.95
0.77
0.42
0.03
-0.26
-0.32
-0.10
0.25
0.57
0.64
0.35
-0.24
-0.94
-1.53
-1.74
-1.47
-0.74
0.29
1.37
2.30
2.92
3.12
2.87
2.12
0.87
-0.80
-2.67
-4.40
-5.57
-5.84
-4.99
-3.12
-0.57
2.16
4.46
5.92
6.37
6.01
5.23
4.53
4.18
4.24
4.49
4.60
4.38
3.76
2.86
1.74
0.44
-1.14
-3.03
-5.10
-7.08
-8.59
-9.38
-9.43
-9.00
-8.43
-8.03
-7.95
-8.08
-8.24
-8.17
-7.73
-6.93
-5.93
-4.93
-4.11
-3.53
-3.12
-2.73
-2.23
-1.57
-0.80
-0.08
0.46
0.73
0.76
0.64
0.44
0.23
0.07
-0.03
-0.03
0.06
0.25
0.54
0.92
1.36
1.77
1.99
1.86
1.28
0.26
-1.06
-2.42
-3.58
-4.34
-4.65
-4.51
-4.00
-3.26
-2.49
-1.89
-1.63
-1.71
-1.98
-2.12
-1.81
-0.86
0.70
2.62
4.48
5.94
6.77
6.97
6.79
6.53
6.49
6.79
7.40
8.11
8.68
8.92
8.76
8.27
7.57
6.70
5.66
4.41
3.00
1.58
0.40
-0.36
-0.65
-0.66
-0.74
-1.19
-2.12
-3.43
-4.79
-5.86
-6.43
-6.44
-6.03
-5.33
-4.45
-3.41
-2.19
-0.82
0.62
1.98
3.11
3.90
4.38
4.67
4.90
5.15
5.41
5.60
5.58
5.32
4.83
4.32
4.03
4.16
4.79
5.82
6.95
7.85
8.23
7.92
6.98
5.60
4.08
2.70
1.64
0.94
0.49
0.09
-0.50
-1.42
-2.68
-4.13
-5.50
-6.56
-7.20
-7.44
-7.44
-7.35
-7.26
-7.13
-6.86
-6.35
-5.62
-4.72
-3.74
-2.68
-1.47
-0.02
1.69
3.56
5.41
7.01
8.23
9.02
9.43
9.57
9.56
9.49
9.45
9.43
9.45
9.44
9.34
9.06
8.49
7.57
6.27
4.71
3.08
1.64
0.62
0.05
-0.21
-0.45
-0.95
-1.86
-3.07
-4.31
-5.27
-5.71
-5.56
-4.92
-3.97
-2.90
-1.89
-0.99
-0.19
0.56
1.27
1.88
2.31
2.47
2.43
2.34
2.43
2.76
3.26
3.62
3.56
2.92
1.77
0.47
-0.63
-1.19
-1.14
-0.59
0.25
1.12
1.87
2.38
2.64
2.68
2.58
2.42
2.23
1.99
1.63
1.11
0.38
-0.48
-1.45
-2.47
-3.59
-4.86
-6.23
-7.59
-8.71
-9.39
-9.51
-9.12
-8.42
-7.64
-6.88
-6.15
-5.31
-4.28
-3.06
-1.78
-0.63
0.24
0.81
1.24
1.73
2.49
3.57
4.88
6.18
7.21
7.84
8.09
8.17
8.28
8.54
8.86
9.02
8.82
8.18
7.26
6.32
5.57
5.07
4.70
4.26
3.64
2.84
1.96
1.08
0.24
-0.63
-1.53
-2.44
-3.26
-3.92
-4.40
-4.76
-5.03
-5.22
-5.25
-5.05
-4.60
-3.91
-3.04
-2.00
-0.83
0.45
1.75
2.86
3.63
3.93
3.84
3.55
3.29
3.24
3.45
3.84
4.28
4.71
5.10
5.49
5.92
6.36
6.75
6.96
6.87
6.42
5.61
4.54
3.33
2.10
0.94
-0.12
-1.10
-2.06
-3.07
-4.13
-5.20
-6.14
-6.78
-7.00
-6.82
-6.35
-5.74
-5.12
-4.49
-3.78
-2.86
-1.73
-0.51
0.63
1.51
2.07
2.34
2.46
2.54
2.69
2.97
3.37
3.86
4.36
4.78
5.05
5.17
5.19
5.19
5.24
5.30
5.25
4.93
4.24
3.15
1.74
0.15
-1.44
-2.90
-4.16
-5.21
-6.04
-6.68
-7.21
-7.71
-8.25
-8.87
-9.50
-10.00
-10.19
-9.92
-9.18
-8.08
-6.77
-5.39
-4.00
-2.60
-1.17
0.22
1.47
2.44
3.07
3.42
3.67
4.01
4.53
5.19
5.81
6.23
6.35
6.24
6.07
6.01
6.14
6.36
6.48
6.31
5.79
4.98
4.05
3.16
2.40
1.78
1.23
0.72
0.22
-0.25
-0.72
-1.28
-2.03
-3.03
-4.18
-5.26
-5.97
-6.12
-5.70
-4.94
-4.13
-3.57
-3.31
-3.21
-3.03
-2.55
-1.73
-0.72
0.25
0.98
1.39
1.46
1.34
1.16
1.08
1.22
1.65
2.35
3.18
4.01
4.70
5.20
5.57
5.91
6.27
6.59
6.68
6.36
5.55
4.36
3.07
1.95
1.17
0.72
0.42
0.01
-0.71
-1.78
-3.08
-4.34
-5.33
-5.93
-6.11
-5.97
-5.59
-5.01
-4.23
-3.27
-2.17
-1.06
-0.07
0.69
1.24
1.62
1.88
2.03
2.04
1.91
1.63
1.23
0.76
0.20
-0.47
-1.24
-2.09
-2.95
-3.79
-4.63
-5.52
-6.45
-7.33
-8.00
-8.34
-8.36
-8.29
-8.38
-8.82
-9.54
-10.28
-10.77
-10.91
-10.81
-10.73
-10.86
-11.20
-11.64
-12.11
-12.70
-13.63
-14.97
-16.47
-17.51
-17.31
-15.40
-11.88
-7.38
-2.72
1.53
5.18
8.39
11.31
13.78
15.42
15.85
15.07
13.47
11.73
10.40
9.60
9.14
8.67
8.10
7.61
7.69
8.66
10.54
12.85
14.83
15.67
14.79
12.04
7.79
2.88
-1.63
-4.80
-6.15
-5.91
-4.76
-3.41
-2.12
-0.51
2.17
6.34
11.61
16.68
19.86
20.01
17.14
12.53
7.99
4.95
3.77
3.70
3.53
2.45
0.60
-1.09
-1.47
0.04
3.12
6.67
9.40
10.35
9.30
6.68
3.20
-0.45
-3.78
-6.49
-8.38
-9.30
-9.16
-8.02
-6.12
-3.84
-1.49
0.74
2.86
5.00
7.25
9.46
11.22
11.97
11.21
8.80
5.00
0.53
-3.71
-6.86
-8.37
-8.12
-6.44
-4.02
-1.62
0.05
0.68
0.31
-0.66
-1.73
-2.54
-2.94
-3.08
-3.16
-3.40
-3.89
-4.64
-5.67
-6.99
-8.59
-10.35
-12.01
-13.17
-13.50
-12.81
-11.20
-8.96
-6.49
-4.17
-2.19
-0.58
0.76
1.99
3.24
4.50
5.74
6.87
7.80
8.51
8.97
9.13
8.88
8.16
6.96
5.47
4.02
2.97
2.56
2.73
3.20
3.51
3.27
2.29
0.69
-1.19
-2.94
-4.19
-4.81
-4.90
-4.69
-4.46
-4.38
-4.45
-4.51
-4.28
-3.46
-1.90
0.38
3.06
5.61
7.29
7.47
5.79
2.45
-1.78
-5.77
-8.41
-9.07
-7.84
-5.45
-3.04
-1.64
-1.85
-3.65
-6.58
-9.89
-12.93
-15.29
-16.95
-18.18
-19.37
-20.92
-23.00
-25.59
-28.45
-31.34
-34.07
-36.57
-38.93
-41.23
-43.55
-45.96
-48.78
-52.75
-59.15
-69.49
-84.98
-105.67
-130.14
-155.62
-178.89
-197.44
-210.22
-217.80
-221.72
-223.74
-225.35
-227.74
-232.04
-239.21
-249.45
-261.29
-271.26
-274.43
-266.17
-244.00
-208.79
-164.49
-116.42
-69.26
-25.51
14.96
53.94
93.50
134.70
177.09
218.78
256.77
287.08
304.74
304.23
280.90
233.26
165.17
86.41
10.87
-47.48
-79.03
-81.32
-58.99
-21.24
21.71
61.42
92.54
112.80
122.74
125.30
125.41
128.76
139.72
159.53
185.24
210.64
228.81
234.59
226.40
206.40
179.29
150.41
123.84
101.43
82.78
66.23
50.15
34.00
18.53
5.22
-4.61
-10.34
-11.93
-9.58
-3.28
6.74
19.46
32.52
42.73
47.27
45.12
37.66
28.07
19.97
15.81
16.20
19.85
24.45
27.70
28.28
26.30
23.18
20.84
20.64
22.54
25.05
26.06
24.07
19.13
12.77
7.07
3.38
1.59
0.41
-1.61
-5.15
-9.72
-14.03
-16.89
-17.84
-17.24
-15.87
-14.42
-13.13
-11.80
-10.02
-7.48
-4.16
-0.34
3.51
6.90
9.51
11.29
12.38
13.05
13.53
13.90
14.11
14.09
13.84
13.48
13.24
13.36
13.96
14.98
16.14
17.06
17.32
16.62
14.91
12.37
9.40
6.45
3.84
1.63
-0.40
-2.61
-5.32
-8.67
-12.50
-16.36
-19.65
-21.78
-22.33
-21.16
-18.48
-14.75
-10.58
-6.50
-2.92
0.00
2.28
4.05
5.48
6.70
7.83
8.90
9.97
11.01
11.98
12.79
13.38
13.72
13.81
13.71
13.49
13.16
12.72
12.10
11.21
9.98
8.41
6.56
4.55
2.56
0.71
-0.93
-2.44
-3.99
-5.88
-8.38
-11.58
-15.32
-19.09
-22.18
-23.93
-23.89
-22.09
-18.93
-15.03
-10.97
-7.13
-3.62
-0.41
2.54
5.15
7.27
8.76
9.60
9.96
10.18
10.57
11.33
12.48
13.81
14.99
15.71
15.77
15.22
14.30
13.26
12.28
11.36
10.42
9.33
8.01
6.47
4.77
2.95
1.09
-0.75
-2.58
-4.40
-6.31
-8.44
-10.92
-13.76
-16.77
-19.56
-21.60
-22.42
-21.75
-19.61
-16.27
-12.16
-7.73
-3.38
0.60
4.03
6.83
9.00
10.56
11.56
12.08
12.25
12.25
12.28
12.53
13.08
13.93
14.92
15.85
16.54
16.90
16.94
16.77
16.47
16.05
15.46
14.65
13.67
12.75
12.26
12.55
13.80
15.86
18.26
20.42
21.81
22.26
21.89
21.11
20.35
19.89
19.84
20.07
20.36
20.49
20.36
20.04
19.84
20.14
21.23
23.14
25.51
27.73
29.14
29.34
28.40
26.85
25.46
24.90
25.36
26.41
27.12
26.39
23.46
18.35
11.87
5.32
-0.15
-4.15
-7.27
-10.85
-16.32
-24.90
-37.56
-55.03
-77.49
-103.64
-130.22
-152.20
-164.52
-164.27
-152.44
-133.69
-114.36
-99.52
-90.91
-86.83
-83.95
-79.63
-73.29
-66.25
-60.29
-56.37
-54.22
-52.93
-51.83
-50.99
-50.98
-52.31
-54.87
-57.84
-59.94
-60.12
-58.30
-55.85
-55.42
-59.95
-71.01
-87.24
-103.88
-114.20
-112.21
-95.30
-65.40
-27.96
10.63
45.59
74.92
98.80
118.05
132.82
142.58
146.91
146.47
143.09
138.97
135.70
133.58
131.85
129.42
125.60
120.43
114.47
108.41
102.81
97.92
93.79
90.40
87.80
86.05
85.00
84.24
83.10
80.86
76.99
71.31
64.08
56.15
48.93
44.09
42.98
45.88
51.62
57.91
62.40
63.88
62.78
60.78
59.62
59.93
60.93
60.85
57.80
50.60
39.04
24.02
7.34
-8.46
-20.66
-27.44
-29.05
-28.25
-29.65
-37.89
-55.40
-81.10
-110.59
-137.85
-157.43
-166.17
-163.75
-152.28
-135.06
-115.53
-96.49
-79.92
-66.99
-58.26
-53.62
-52.20
-52.36
-52.16
-49.90
-44.96
-37.97
-30.51
-24.33
-20.52
-19.18
-19.59
-20.68
-21.58
-21.81
-21.18
-19.75
-17.66
-15.25
-12.99
-11.38
-10.73
-10.95
-11.53
-11.81
-11.27
-9.87
-8.04
-6.43
-5.61
-5.78
-6.63
-7.56
-7.95
-7.41
-5.95
-3.88
-1.62
0.48
2.24
3.65
4.77
5.60
6.13
6.28
6.01
5.35
4.36
3.23
2.12
1.20
0.58
0.25
0.07
-0.15
-0.60
-1.36
-2.31
-3.23
-3.89
-4.16
-4.13
-4.08
-4.34
-5.12
-6.43
-8.09
-9.82
-11.33
-12.40
-12.86
-12.58
-11.46
-9.46
-6.73
-3.49
-0.09
3.09
5.75
7.71
8.91
9.44
9.47
9.23
8.96
8.78
8.66
8.44
7.94
7.09
5.97
4.79
3.72
2.87
2.19
1.57
0.93
0.27
-0.35
-0.89
-1.39
-1.98
-2.80
-3.88
-5.16
-6.44
-7.54
-8.35
-8.79
-8.89
-8.60
-7.88
-6.64
-4.87
-2.58
0.10
2.93
5.71
8.25
10.44
12.21
13.50
14.23
14.30
13.70
12.49
10.89
9.15
7.51
6.11
5.00
4.16
3.52
2.99
2.51
2.01
1.43
0.75
-0.05
-0.94
-1.90
-2.84
-3.69
-4.37
-4.81
-5.06
-5.29
-5.71
-6.52
-7.80
-9.39
-10.96
-12.11
-12.50
-11.94
-10.42
-8.07
-5.13
-1.87
1.41
4.44
6.96
8.85
10.10
10.75
10.93
10.75
10.34
9.84
9.37
9.03
8.85
8.77
8.67
8.40
7.88
7.09
6.14
5.16
4.24
3.45
2.72
1.97
1.06
-0.05
-1.32
-2.60
-3.74
-4.66
-5.38
-6.02
-6.75
-7.68
-8.83
-10.16
-11.52
-12.74
-13.59
-13.84
-13.34
-12.06
-10.16
-7.91
-5.60
-3.43
-1.50
0.18
1.55
2.55
3.18
3.54
3.90
4.54
5.53
6.68
7.57
7.79
7.18
5.97
4.62
3.61
3.18
3.27
3.54
3.63
3.25
2.27
0.70
-1.29
-3.49
-5.61
-7.35
-8.42
-8.64
-8.07
-7.06
-6.22
-6.24
-7.54
-10.13
-13.42
-16.53
-18.53
-18.93
-17.86
-15.92
-13.85
-12.12
-10.70
-9.18
-7.12
-4.41
-1.44
1.03
2.25
1.80
-0.28
-3.55
-7.35
-11.03
-13.89
-15.13
-14.05
-10.35
-4.48
2.24
8.09
11.66
12.58
11.65
10.36
9.98
10.97
12.83
14.63
15.67
15.88
15.72
15.62
15.63
15.28
14.00
11.50
8.07
4.45
1.48
-0.25
-0.59
0.19
1.57
3.03
4.16
4.78
4.91
4.74
4.52
4.54
5.00
5.94
7.21
8.54
9.61
10.16
10.13
9.68
9.14
8.85
9.02
9.57
10.19
10.46
10.09
9.06
7.56
5.84
4.05
2.20
0.20
-1.88
-3.82
-5.26
-5.97
-5.97
-5.60
-5.39
-5.85
-7.27
-9.65
-12.75
-16.06
-18.97
-20.86
-21.26
-20.01
-17.36
-13.80
-9.87
-5.91
-1.99
1.94
5.84
9.46
12.38
14.23
14.93
14.71
13.97
13.08
12.18
11.23
10.11
8.79
7.39
6.08
4.93
3.90
2.86
1.75
0.69
-0.09
-0.32
0.10
1.00
1.87
2.08
1.02
-1.59
-5.55
-10.17
-14.51
-17.68
-19.14
-18.81
-17.04
-14.30
-10.98
-7.26
-3.21
1.02
5.09
8.48
10.64
11.22
10.19
7.84
4.69
1.44
-1.15
-2.28
-1.36
1.81
6.83
12.80
18.52
22.96
25.58
26.44
26.02
24.88
23.39
21.71
19.93
18.16
16.54
15.15
13.94
12.73
11.43
10.08
8.73
7.22
5.05
1.56
-3.70
-10.57
-18.13
-25.05
-30.20
-33.04
-33.83
-33.33
-32.23
-30.92
-29.39
-27.67
-26.10
-25.42
-26.46
-29.63
-34.50
-39.87
-44.25
-46.55
-46.52
-44.82
-42.54
-40.66
-39.68
-39.59
-40.17
-41.33
-43.21
-46.00
-49.78
-54.23
-58.73
-62.48
-64.75
-65.11
-63.58
-60.49
-56.43
-51.90
-47.01
-41.47
-34.69
-26.27
-16.23
-5.18
5.87
15.85
24.01
30.01
33.95
36.16
37.07
37.08
36.48
35.58
34.73
34.35
34.82
36.30
38.53
40.84
42.37
42.44
40.92
38.34
35.60
33.61
32.83
33.10
33.70
33.64
32.13
28.83
24.06
18.55
13.20
8.67
5.23
2.77
0.98
-0.40
-1.40
-1.94
-1.98
-1.63
-1.17
-0.95
-1.16
-1.77
-2.50
-2.90
-2.52
-1.05
1.50
4.76
8.00
10.44
11.46
10.80
8.53
5.21
1.71
-0.93
-1.80
-0.45
2.88
7.29
11.54
14.52
15.75
15.49
14.58
14.08
14.94
17.74
22.65
29.49
37.81
46.93
56.16
64.86
72.69
79.53
85.31
89.83
92.79
93.93
93.27
91.11
87.95
84.17
79.71
74.10
66.71
57.14
45.53
32.52
19.00
5.80
-6.39
-17.11
-25.89
-32.21
-35.73
-36.52
-35.18
-32.83
-30.72
-29.74
-30.17
-31.69
-33.89
-36.62
-40.10
-44.60
-49.87
-54.83
-57.83
-57.34
-52.77
-44.86
-35.34
-26.10
-18.48
-12.90
-9.24
-7.47
-7.89
-10.94
-16.74
-24.67
-33.39
-41.40
-47.61
-51.74
-54.29
-56.17
-58.21
-60.89
-64.26
-68.10
-72.08
-75.93
-79.41
-82.15
-83.55
-82.76
-78.96
-71.68
-61.18
-48.41
-34.73
-21.42
-9.18
2.04
12.89
24.13
36.14
48.76
61.45
73.71
85.39
96.55
107.02
116.14
122.90
126.48
127.04
125.96
125.26
126.55
130.02
134.14
136.67
136.03
132.17
126.43
120.14
113.07
102.89
85.90
58.71
20.12
-28.15
-81.79
-135.38
-184.04
-224.67
-256.12
-278.82
-293.73
-301.58
-302.23
-294.57
-276.84
-247.33
-205.44
-152.63
-92.85
-31.83
24.34
71.10
106.76
132.66
152.01
168.06
182.65
195.49
204.79
208.19
203.80
190.71
169.26
141.17
109.63
78.92
53.37
35.88
26.80
23.86
23.27
21.41
16.25
7.70
-2.95
-14.14
-24.72
-34.01
-41.46
-46.37
-47.96
-45.87
-40.60
-33.42
-25.91
-19.14
-13.11
-6.81
1.32
12.52
27.04
43.96
61.46
77.63
91.02
101.12
108.28
113.15
116.56
119.05
120.72
121.34
120.39
117.24
111.39
102.84
92.15
80.06
66.93
52.40
35.58
15.75
-6.69
-29.93
-51.25
-68.22
-79.98
-87.72
-94.06
-101.60
-111.64
-123.66
-135.90
-146.51
-154.56
-160.29
-164.57
-167.91
-169.79
-169.12
-164.71
-156.38
-145.37
-134.03
-124.72
-118.94
-116.86
-117.50
-119.22
-119.96
-117.47
-109.35
-93.55
-69.13
-37.10
-0.69
35.29
65.63
86.11
94.19
89.22
72.10
44.86
10.54
-27.01
-63.50
-95.03
-118.81
-133.62
-139.58
-137.62
-128.89
-114.41
-94.93
-70.94
-42.75
-10.62
24.78
61.91
98.15
130.20
155.10
171.54
180.58
185.46
190.25
197.96
209.26
222.14
232.80
237.14
232.14
216.72
192.02
161.00
127.40
94.95
66.03
41.22
19.51
-1.10
-22.62
-46.39
-73.08
-102.91
-135.48
-169.21
-201.22
-227.91
-246.52
-256.73
-260.86
-262.19
-262.60
-261.15
-255.07
-242.36
-223.92
-203.45
-184.70
-168.37
-151.01
-127.35
-94.38
-54.28
-13.87
19.34
41.27
53.62
62.19
73.20
89.66
109.77
127.80
136.54
129.89
104.71
61.94
7.28
-49.81
-98.29
-129.21
-139.28
-132.33
-117.34
-103.88
-97.53
-97.36
-97.25
-89.64
-69.76
-37.93
0.98
40.26
74.42
101.08
120.72
135.24
146.32
154.61
159.79
161.31
159.18
154.35
148.54
143.66
140.98
140.44
140.76
140.09
136.99
131.20
123.63
115.69
108.49
102.19
96.09
89.20
80.82
70.95
60.23
49.64
40.02
31.90
25.24
19.63
14.35
8.58
1.72
-6.38
-15.26
-23.97
-31.37
-36.65
-39.53
-40.26
-39.42
-37.53
-34.89
-31.58
-27.67
-23.49
-19.74
-17.28
-16.75
-18.21
-20.96
-23.94
-26.19
-27.34
-27.69
-27.87
-28.35
-29.12
-29.86
-30.43
-31.15
-32.70
-35.58
-39.63
-43.97
-47.44
-49.25
-49.36
-48.34
-46.94
-45.61
-44.37
-43.06
-41.70
-40.52
-39.90
-40.10
-40.98
-42.06
-42.70
-42.32
-40.59
-37.41
-32.95
-27.45
-21.14
-14.19
-6.77
0.83
8.08
14.24
18.60
20.84
21.19
20.32
19.12
18.28
18.17
18.97
20.79
23.74
27.81
32.75
38.01
42.84
46.58
48.84
49.60
49.00
47.14
44.08
39.92
35.09
30.33
26.51
24.20
23.40
23.51
23.73
23.45
22.60
21.63
21.10
21.35
22.20
23.13
23.54
23.14
21.99
20.37
18.49
16.36
13.91
11.17
8.42
6.07
4.47
3.61
3.10
2.40
1.06
-1.02
-3.58
-6.22
-8.55
-10.28
-11.17
-11.06
-9.83
-7.58
-4.63
-1.51
1.24
3.34
4.82
5.89
6.77
7.53
8.13
8.46
8.55
8.51
8.53
8.74
9.20
9.91
10.86
12.02
13.30
14.59
15.71
16.54
17.04
17.24
17.21
16.95
16.44
15.63
14.62
13.72
13.32
13.74
15.05
17.00
19.21
21.38
23.50
25.90
28.98
33.01
37.85
43.04
47.98
52.20
55.49
57.91
59.67
61.09
62.68
65.11
69.03
74.75
81.90
89.24
94.96
97.22
94.74
87.20
75.17
59.87
42.91
26.00
10.73
-1.55
-9.90
-13.96
-13.93
-10.46
-4.44
3.22
11.76
20.60
29.29
37.50
44.74
50.38
53.35
52.39
46.35
34.58
17.08
-5.75
-33.48
-65.79
-101.99
-140.82
-180.13
-217.22
-249.68
-275.84
-294.84
-306.12
-309.09
-303.35
-289.44
-269.34
-246.30
-223.93
-204.79
-189.59
-177.36
-166.48
-155.60
-144.22
-132.52
-121.04
-110.40
-101.03
-93.06
-86.34
-80.40
-74.71
-69.03
-63.66
-59.15
-55.79
-52.98
-49.49
-44.29
-37.28
-29.50
-22.23
-15.83
-8.98
0.81
15.77
36.17
59.63
81.97
99.00
108.41
110.41
107.35
102.19
97.22
93.41
90.66
88.46
86.62
85.55
86.06
88.97
94.58
102.49
111.46
119.82
126.01
129.17
129.49
128.11
126.52
125.74
125.72
125.52
124.10
121.12
117.27
113.80
111.76
111.26
111.45
111.12
109.41
106.21
102.07
97.72
93.59
89.63
85.47
80.57
74.55
67.41
59.47
51.36
43.80
37.30
31.98
27.45
23.14
18.59
13.74
8.87
4.43
0.60
-2.70
-5.79
-8.89
-11.91
-14.52
-16.28
-16.93
-16.45
-15.07
-13.15
-11.10
-9.25
-7.83
-6.97
-6.64
-6.77
-7.25
-7.96
-8.80
-9.59
-10.14
-10.20
-9.65
-8.55
-7.28
-6.33
-6.17
-7.00
-8.62
-10.53
-12.11
-12.90
-12.69
-11.59
-9.87
-7.86
-5.82
-3.90
-2.08
-0.26
1.73
3.99
6.44
8.86
10.89
12.23
12.75
12.53
11.71
10.42
8.62
6.20
3.09
-0.62
-4.75
-9.07
-13.51
-18.10
-22.92
-27.91
-32.88
-37.63
-42.04
-46.13
-49.99
-53.63
-56.76
-58.93
-59.68
-58.79
-56.46
-53.19
-49.65
-46.37
-43.62
-41.43
-39.71
-38.39
-37.48
-36.99
-36.92
-37.10
-37.29
-37.21
-36.54
-34.97
-32.11
-27.58
-21.06
-12.57
-2.54
8.08
18.04
26.18
31.69
34.46
34.86
33.61
31.39
28.64
25.48
21.85
17.68
13.00
8.01
3.06
-1.41
-4.94
-7.05
-7.46
-6.09
-3.19
0.70
4.87
8.62
11.50
13.34
14.23
14.46
14.36
14.25
14.32
14.67
15.25
15.92
16.54
16.98
17.22
17.29
17.23
17.07
16.86
16.64
16.46
16.42
16.53
16.79
17.08
17.29
17.29
17.07
16.60
15.94
15.12
14.19
13.23
12.31
11.50
10.76
10.10
9.51
9.02
8.66
8.40
8.17
7.84
7.28
6.38
5.08
3.28
0.90
-2.08
-5.45
-8.83
-11.65
-13.35
-13.65
-12.65
-10.79
-8.67
-6.81
-5.45
-4.59
-4.05
-3.63
-3.26
-2.97
-2.88
-3.10
-3.67
-4.59
-5.83
-7.35
-9.08
-10.87
-12.49
-13.60
-14.01
-13.69
-12.87
-11.94
-11.30
-11.18
-11.68
-12.81
-14.67
-17.41
-21.11
-25.62
-30.52
-35.27
-39.43
-42.94
-46.12
-49.50
-53.51
-58.28
-63.57
-68.94
-74.01
-78.61
-82.88
-87.15
-91.80
-97.11
-103.23
-110.27
-118.34
-127.54
-137.87
-149.07
-160.56
-171.46
-180.80
-187.82
-192.09
-193.35
-191.29
-185.25
-174.26
-157.40
-134.26
-105.47
-72.81
-38.89
-6.43
22.53
47.24
68.32
87.27
105.56
123.77
141.28
156.61
168.20
175.22
178.01
177.90
176.75
176.22
177.21
179.73
183.01
185.85
187.16
186.26
183.02
177.76
171.04
163.28
154.47
143.92
130.22
111.47
85.87
52.47
11.95
-33.00
-77.97
-117.72
-147.41
-163.72
-165.55
-153.99
-131.99
-103.69
-73.74
-46.90
-27.61
-19.76
-25.88
-46.11
-77.15
-112.09
-141.43
-155.57
-147.87
-117.10
-68.08
-10.21
45.67
90.58
119.80
133.25
134.40
128.28
119.48
110.93
103.69
97.56
92.11
87.56
84.86
85.10
88.50
93.82
98.40
99.05
93.42
80.97
63.39
44.00
26.33
12.72
3.42
-3.15
-9.25
-16.36
-24.28
-31.27
-35.02
-34.01
-28.28
-19.47
-10.16
-2.86
0.78
0.47
-2.67
-6.42
-8.19
-6.12
-0.07
7.75
13.15
11.39
-1.04
-25.06
-58.78
-98.49
-139.99
-179.62
-214.30
-241.40
-258.36
-262.82
-253.45
-230.37
-195.14
-150.05
-97.60
-40.84
15.28
62.86
91.78
92.82
62.39
5.81
-62.73
-124.38
-162.18
-166.92
-139.64
-90.04
-31.91
22.23
64.63
93.35
110.87
121.56
129.40
136.70
144.19
151.87
160.27
170.46
183.39
198.65
213.47
223.17
223.04
210.44
186.17
153.92
118.42
83.28
49.94
18.05
-13.02
-42.82
-69.57
-91.11
-106.52
-117.09
-125.69
-134.94
-145.16
-153.50
-155.19
-146.21
-125.93
-97.94
-68.74
-44.83
-29.77
-22.96
-20.24
-16.15
-6.28
11.17
35.26
63.15
91.26
116.25
135.46
147.10
150.40
145.52
133.60
116.45
96.23
74.83
53.40
32.19
10.76
-11.45
-34.65
-58.40
-81.66
-103.19
-122.09
-138.10
-151.63
-163.23
-173.01
-179.97
-181.96
-176.22
-160.19
-132.35
-92.83
-43.78
10.80
65.71
115.62
156.21
184.99
201.31
205.76
199.47
183.67
160.05
131.29
101.31
74.56
54.58
42.51
36.53
32.95
28.02
19.93
9.53
-0.29
-6.04
-4.95
4.06
20.27
41.41
64.15
84.70
99.22
104.55
98.76
81.79
55.48
23.29
-10.44
-41.40
-66.00
-81.84
-87.91
-84.56
-73.35
-56.69
-37.23
-17.06
2.66
21.80
40.73
59.69
78.43
96.06
111.42
123.49
131.72
136.09
137.19
136.02
133.74
131.15
128.17
123.56
115.30
101.58
81.97
58.10
33.33
11.59
-4.07
-12.42
-14.24
-11.70
-7.52
-4.13
-3.20
-5.52
-11.19
-19.71
-30.14
-41.18
-51.26
-58.78
-62.57
-62.33
-58.97
-54.43
-50.91
-49.91
-51.34
-53.76
-55.34
-55.32
-54.72
-55.84
-60.79
-69.97
-81.56
-92.35
-99.53
-102.09
-100.96
-98.05
-94.84
-91.85
-89.08
-87.04
-87.04
-90.67
-98.23
-108.05
-116.67
-120.26
-116.39
-105.38
-90.77
-78.27
-73.82
-81.18
-99.91
-124.74
-146.72
-155.99
-144.77
-109.90
-53.65
17.18
93.10
163.89
220.20
254.87
264.26
249.56
217.11
177.00
139.97
113.74
100.60
97.56
98.63
97.69
90.70
76.14
54.22
25.77
-8.32
-47.00
-88.72
-131.09
-171.05
-205.34
-231.05
-245.97
-248.96
-240.10
-220.72
-193.16
-160.41
-125.75
-92.51
-63.91
-42.53
-29.58
-24.15
-22.91
-20.80
-12.63
5.08
32.94
68.53
107.40
144.73
176.56
200.41
215.34
221.91
222.23
219.77
218.79
223.03
233.92
249.57
264.62
272.02
265.80
243.85
209.35
170.10
135.85
114.91
111.23
123.17
144.33
165.69
178.39
176.12
156.33
120.29
72.11
17.33
-38.55
-90.96
-136.78
-174.42
-203.97
-227.08
-246.59
-265.33
-284.52
-302.69
-315.69
-318.75
-309.32
-288.99
-263.52
-240.78
-227.53
-227.08
-238.54
-257.68
-278.76
-296.09
-305.05
-302.51
-287.04
-258.83
-219.54
-172.21
-121.02
-71.04
-27.64
4.25
21.18
22.22
9.64
-11.37
-34.12
-52.23
-61.27
-59.43
-47.24
-26.77
-0.58
29.24
61.56
96.49
135.22
179.59
231.39
291.38
358.28
428.18
494.38
548.50
582.79
592.68
578.38
544.73
499.22
449.11
399.26
351.28
304.57
258.01
211.54
166.45
124.57
87.17
54.24
24.89
-1.73
-25.70
-46.23
-62.43
-74.32
-83.30
-91.66
-101.40
-113.23
-126.07
-137.78
-146.31
-150.71
-151.42
-149.76
-147.12
-144.38
-141.80
-139.26
-136.45
-133.11
-129.13
-124.46
-119.14
-113.34
-107.41
-101.92
-97.64
-95.22
-94.90
-96.27
-98.32
-99.85
-99.93
-98.36
-95.62
-92.59
-90.14
-88.75
-88.46
-88.98
-89.71
-89.88
-88.60
-85.16
-79.34
-71.81
-64.04
-57.86
-54.70
-54.90
-57.63
-61.22
-63.88
-64.36
-62.19
-57.68
-51.61
-44.92
-38.47
-32.81
-28.04
-23.74
-19.20
-13.80
-7.48
-0.92
4.70
8.31
9.35
7.82
3.84
-2.80
-12.68
-26.44
-43.96
-63.87
-84.04
-102.30
-117.28
-128.41
-135.50
-138.14
-135.81
-128.12
-115.32
-98.56
-79.55
-59.95
-40.66
-21.72
-2.66
16.65
36.26
56.35
77.38
99.74
123.20
146.58
168.00
185.54
197.20
202.61
203.43
202.61
202.70
204.43
206.42
205.61
198.40
179.98
147.99
104.53
56.55
13.60
-15.33
-24.49
-13.18
13.75
44.25
65.72
70.04
56.28
28.97
-5.28
-40.87
-74.88
-107.30
-143.65
-188.23
-240.54
-294.95
-344.63
-385.06
-415.30
-437.00
-427.60
-374.18
-281.77
-172.30
-68.18
18.57
85.86
135.96
172.14
197.35
210.62
211.54
202.07
187.00
170.99
157.27
147.00
139.75
134.29
126.78
114.24
95.69
73.45
51.02
32.49
20.84
17.45
21.61
29.72
37.59
40.93
42.50
42.78
43.12
45.07
49.77
55.29
60.02
61.31
54.65
36.78
5.99
-36.93
-90.79
-149.79
-208.10
-258.73
-281.57
-264.33
-210.96
-140.80
-74.83
-25.65
4.86
21.19
30.23
36.83
40.53
39.01
31.26
19.73
8.64
1.83
0.29
2.93
7.24
8.95
5.40
-3.26
-13.95
-22.94
-27.04
-25.81
-20.53
-13.30
-7.00
-3.17
-1.31
0.64
4.58
12.22
22.89
34.63
45.36
53.38
58.45
61.83
65.56
70.87
79.28
90.03
101.51
112.19
121.36
129.37
137.24
146.27
151.50
154.87
158.30
162.05
163.98
159.68
143.94
112.87
69.77
16.51
-39.07
-87.86
-122.38
-139.42
-140.89
-132.75
-122.54
-115.99
-116.05
-120.81
-127.12
-132.14
-133.87
-131.11
-121.08
-102.40
-75.37
-43.75
-13.58
7.28
12.81
3.37
-13.29
-24.75
-18.78
10.83
60.36
117.93
167.34
193.68
188.88
152.22
89.30
10.67
-70.53
-141.73
-192.97
-218.87
-219.78
-198.97
-162.95
-119.98
-76.98
-38.37
-6.40
18.61
37.92
53.29
69.07
88.48
105.07
111.23
103.23
83.33
57.11
34.84
19.33
15.37
27.52
58.09
103.98
159.76
217.12
266.10
297.88
296.09
256.41
188.81
112.90
47.34
1.17
-26.77
-42.84
-52.57
-58.65
-58.91
-51.69
-38.81
-24.85
-14.55
-10.79
-14.26
-23.20
-34.14
-40.84
-37.54
-22.25
3.25
33.00
58.57
71.38
67.11
47.21
19.46
-6.65
-24.48
-32.51
-33.76
-33.18
-35.53
-42.39
-52.47
-62.50
-69.66
-73.02
-73.77
-74.93
-73.82
-70.60
-65.57
-58.58
-48.87
-36.01
-20.93
-6.32
4.28
8.12
3.78
-7.61
-23.27
-40.37
-57.07
-72.32
-84.59
-90.88
-86.98
-70.21
-41.43
-5.40
30.75
60.28
79.32
88.13
90.64
92.50
98.06
107.58
119.18
130.94
142.19
153.46
165.52
178.51
191.31
201.60
203.43
193.94
176.42
159.19
150.24
152.16
160.83
167.85
165.02
142.24
96.91
35.72
-29.37
-88.62
-138.92
-182.78
-224.55
-267.11
-319.08
-385.13
-462.99
-545.39
-625.71
-701.78
-775.04
-847.56
-868.22
-806.63
-671.32
-504.41
-347.85
-220.72
-121.84
-40.23
35.90
113.99
186.79
243.73
279.04
294.73
298.86
300.13
304.46
313.07
322.44
320.76
298.60
255.45
199.08
141.37
91.27
51.65
20.22
-7.41
-37.57
-71.38
-96.19
-102.59
-86.60
-53.05
-13.57
19.52
38.64
41.58
32.24
18.06
4.66
-5.18
-12.08
-18.04
-23.95
-29.03
-32.24
-32.94
-30.62
-26.56
-22.35
-19.40
-18.52
-19.22
-20.50
-21.39
-21.47
-21.05
-21.51
-23.91
-28.60
-35.18
-42.18
-48.11
-51.86
-52.87
-51.02
-46.58
-39.22
-27.69
-13.37
3.81
23.88
46.57
71.29
97.29
123.75
150.21
176.56
203.16
231.38
262.79
298.44
337.84
378.24
414.75
441.65
454.35
450.84
432.45
402.23
363.29
317.48
265.26
207.03
144.54
81.43
22.12
-29.64
-72.19
-105.69
-130.82
-147.64
-155.56
-154.54
-146.28
-134.34
-122.82
-114.64
-110.29
-108.02
-105.32
-100.56
-93.88
-86.77
-80.95
-77.27
-75.44
-74.46
-73.20
-70.87
-67.21
-62.53
-57.49
-52.73
-48.60
-44.89
-40.87
-35.82
-29.44
-22.18
-15.03
-9.01
-4.83
-2.68
-2.33
-3.35
-5.30
-7.76
-10.46
-13.21
-15.93
-18.52
-20.70
-22.00
-21.87
-20.03
-16.82
-13.17
-10.33
-9.30
-10.28
-12.57
-14.92
-16.14
-15.63
-13.66
-11.19
-9.31
-8.75
-9.54
-11.02
-12.22
-12.26
-10.70
-7.76
-4.08
-0.44
2.59
4.83
6.45
7.74
8.88
9.79
10.27
10.19
9.69
9.16
9.05
9.60
10.60
11.53
11.81
11.13
9.67
7.97
6.66
6.13
6.33
6.79
6.95
6.41
5.17
3.56
2.05
0.98
0.44
0.34
0.55
1.01
1.68
2.45
3.04
3.07
2.19
0.33
-2.16
-4.71
-6.72
-7.87
-8.23
-8.16
-8.13
-8.43
-9.18
-10.30
-11.58
-12.79
-13.69
-14.14
-14.05
-13.56
-12.94
-12.56
-12.74
-13.60
-15.06
-16.87
-18.77
-20.50
-21.88
-22.77
-23.07
-22.78
-22.06
-21.31
-21.09
-21.96
-24.27
-27.91
-32.33
-36.47
-39.18
-39.49
-36.97
-31.94
-25.43
-18.81
-13.43
-10.16
-9.18
-10.09
-12.09
-14.34
-16.08
-16.77
-16.07
-13.86
-10.35
-6.10
-1.98
1.15
2.75
2.85
2.03
1.13
0.74
0.91
1.14
0.69
-0.94
-3.65
-6.78
-9.50
-11.14
-11.61
-11.33
-10.96
-11.03
-11.75
-13.02
-14.60
-16.39
-18.47
-21.08
-24.34
-28.08
-31.80
-34.71
-36.07
-35.32
-32.44
-27.92
-22.82
-18.55
-16.58
-18.07
-23.53
-32.66
-44.31
-56.85
-68.66
-78.64
-86.61
-93.22
-99.64
-106.92
-115.50
-125.06
-134.75
-143.48
-150.15
-153.90
-154.11
-150.75
-144.61
-137.35
-130.90
-126.56
-124.17
-121.97
-117.51
-108.94
-95.98
-79.73
-61.63
-42.11
-20.28
5.31
35.31
68.38
101.36
130.37
152.27
165.54
170.38
168.17
160.88
150.84
140.40
131.73
126.31
124.49
125.42
127.51
128.97
128.42
125.18
119.12
110.79
101.34
92.31
85.16
80.52
77.74
74.97
70.05
61.55
49.45
35.08
20.32
6.96
-3.58
-10.05
-11.09
-5.37
7.63
26.76
49.00
69.79
84.31
88.64
80.85
61.46
33.43
1.54
-28.74
-52.80
-68.24
-75.38
-76.79
-75.80
-74.78
-74.20
-72.93
-69.59
-63.96
-57.67
-53.50
-53.76
-58.84
-66.66
-73.56
-76.24
-73.55
-67.23
-61.21
-59.57
-64.59
-75.54
-88.90
-99.59
-102.69
-94.86
-75.36
-46.25
-11.89
22.41
52.02
74.42
89.68
99.53
105.79
108.92
107.78
100.86
88.06
71.91
57.14
48.80
50.05
60.75
77.84
97.07
115.10
130.62
144.12
156.68
168.41
177.91
182.72
180.47
170.00
151.79
127.59
99.73
70.55
42.17
16.40
-5.50
-23.17
-37.39
-49.73
-61.86
-74.78
-88.35
-101.49
-112.89
-121.45
-126.57
-128.09
-126.25
-121.87
-116.46
-112.07
-110.61
-113.00
-118.67
-125.81
-132.19
-136.06
-136.38
-132.67
-124.53
-111.71
-94.51
-74.27
-53.34
-34.59
-20.48
-12.37
-10.39
-13.65
-20.49
-28.42
-34.15
-33.88
-24.39
-4.26
25.15
59.90
94.90
125.62
149.44
165.69
174.83
177.30
173.12
162.15
144.77
122.45
97.59
72.92
50.64
31.90
16.63
3.81
-8.13
-20.84
-35.40
-51.95
-69.51
-86.15
-99.70
-108.44
-111.47
-108.68
-100.46
-87.61
-71.52
-54.27
-38.29
-25.40
-15.85
-7.90
1.37
14.44
31.84
51.80
71.21
87.58
100.56
112.09
125.23
142.39
163.89
187.95
211.36
230.64
242.81
245.55
237.07
215.98
181.67
135.07
79.46
20.51
-34.57
-78.77
-107.22
-118.44
-114.60
-100.52
-82.27
-65.42
-53.98
-49.55
-51.26
-56.22
-60.62
-61.09
-55.80
-44.90
-29.84
-12.32
6.70
27.03
48.34
69.23
87.03
98.52
101.34
94.90
80.54
60.61
37.58
13.44
-10.21
-31.67
-49.03
-60.37
-64.38
-60.95
-51.37
-38.13
-24.40
-13.42
-7.96
-9.75
-19.00
-34.05
-51.38
-66.34
-74.25
-71.96
-59.00
-38.01
-14.07
6.87
19.89
22.62
15.66
1.87
-15.01
-31.68
-45.92
-56.51
-62.71
-63.88
-59.48
-49.50
-34.97
-18.27
-2.81
7.72
10.46
4.18
-10.43
-31.13
-54.81
-78.06
-97.62
-110.74
-115.58
-111.91
-101.52
-88.02
-75.72
-67.93
-65.39
-65.97
-65.86
-61.62
-52.25
-39.98
-29.67
-26.71
-34.83
-54.28
-81.36
-109.39
-130.70
-138.70
-129.40
-102.22
-59.98
-8.56
43.85
88.17
116.27
122.88
107.02
72.09
24.07
-31.13
-89.70
-149.95
-210.35
-266.96
-312.54
-338.42
-338.30
-311.63
-264.45
-206.90
-148.85
-96.17
-49.65
-6.36
37.34
83.53
132.50
183.87
237.50
293.09
348.62
399.08
437.19
455.78
450.95
424.01
380.99
330.01
278.27
230.15
187.16
149.29
116.59
89.94
70.58
59.08
54.51
54.63
56.87
59.47
61.92
64.58
67.80
71.14
73.39
73.22
70.19
65.11
59.57
54.93
51.44
48.09
43.44
36.57
27.61
17.26
5.96
-6.61
-21.33
-39.05
-60.19
-84.62
-111.73
-140.24
-167.90
-191.47
-207.53
-213.86
-210.47
-199.80
-185.45
-170.59
-156.89
-144.55
-133.29
-123.39
-115.95
-112.30
-113.21
-118.33
-126.20
-134.64
-140.94
-141.64
-132.58
-109.68
-70.84
-17.81
42.94
101.23
146.31
170.51
171.84
154.22
125.51
94.49
67.98
49.78
40.92
40.84
48.51
62.81
82.17
103.94
124.21
138.60
143.56
137.71
122.50
101.98
81.39
65.31
56.19
53.67
55.15
57.19
57.12
53.97
48.60
43.01
39.41
39.49
44.16
53.47
66.73
82.50
98.75
112.91
121.89
122.64
112.99
92.61
63.53
29.66
-4.58
-35.80
-62.58
-84.84
-102.21
-112.34
-110.78
-92.69
-55.73
-2.34
60.12
121.68
173.41
210.56
233.43
245.87
252.27
254.86
252.69
242.44
220.83
186.90
143.28
95.42
49.39
9.52
-23.25
-51.12
-77.83
-106.66
-139.03
-174.55
-211.63
-247.70
-279.16
-301.22
-309.03
-300.44
-278.30
-250.75
-228.34
-219.42
-226.21
-244.17
-264.75
-279.71
-284.64
-279.85
-269.05
-257.05
-247.46
-241.84
-239.30
-236.64
-228.80
-210.56
-178.81
-134.30
-81.66
-26.97
25.64
76.02
126.84
180.04
233.48
280.15
310.58
317.59
300.29
265.05
223.16
186.13
161.41
149.94
147.02
145.25
138.03
122.22
98.65
71.13
44.30
21.54
4.14
-8.47
-17.62
-24.23
-28.36
-29.89
-29.64
-29.75
-32.96
-40.98
-53.00
-64.95
-70.50
-63.36
-39.98
-1.66
45.18
90.49
123.90
138.30
132.26
110.29
80.88
53.11
33.35
23.49
21.19
21.83
20.90
15.67
5.49
-8.92
-26.69
-47.44
-71.32
-98.48
-128.25
-158.46
-185.82
-206.86
-219.11
-221.72
-215.18
-200.63
-179.11
-151.56
-119.52
-85.75
-54.13
-28.64
-11.81
-3.73
-2.19
-3.86
-5.84
-6.62
-5.92
-3.93
-0.56
4.68
12.20
21.78
32.43
42.89
52.09
59.41
64.68
67.84
68.66
66.90
62.49
55.83
47.82
39.65
32.63
27.87
26.28
28.50
34.83
45.08
58.30
72.83
86.54
97.36
103.89
105.63
102.94
96.62
87.53
76.33
63.55
49.75
35.65
22.04
9.40
-2.26
-13.41
-24.53
-35.69
-46.21
-54.77
-60.00
-60.95
-57.48
-50.09
-39.68
-27.10
-13.05
1.78
16.51
29.95
40.82
48.06
51.33
51.20
48.93
46.14
44.17
43.72
44.62
46.12
47.21
47.17
45.71
42.88
38.83
33.54
26.87
18.85
9.99
1.31
-6.01
-11.19
-14.26
-15.98
-17.35
-18.91
-20.50
-21.42
-20.98
-19.22
-17.15
-16.59
-19.63
-27.84
-41.63
-59.98
-80.56
-100.37
-116.65
-127.67
-133.14
-134.12
-132.46
-129.87
-127.23
-124.35
-120.22
-113.68
-104.16
-91.90
-77.88
-63.37
-49.37
-36.20
-23.42
-10.13
4.55
21.01
38.87
56.97
73.51
86.51
94.26
95.88
91.72
83.39
73.26
63.69
56.09
50.64
46.40
42.13
37.12
31.74
27.38
25.95
28.91
36.50
47.24
58.13
65.30
64.88
54.05
31.79
-0.61
-39.39
-78.74
-111.93
-133.24
-140.02
-133.96
-120.69
-107.56
-100.39
-100.84
-105.89
-109.55
-106.09
-92.69
-70.31
-42.42
-12.74
16.33
43.64
67.95
86.54
95.39
90.82
71.84
41.54
6.43
-26.34
-52.07
-70.55
-85.12
-99.86
-116.39
-132.09
-141.15
-137.27
-116.48
-78.67
-27.58
30.23
86.86
134.96
169.58
189.45
196.90
196.16
190.91
182.49
169.91
151.96
129.66
107.13
90.15
82.78
84.95
92.37
98.97
100.53
96.92
91.95
91.26
99.54
118.49
146.00
176.54
202.75
217.62
216.75
199.73
169.89
132.54
92.74
53.63
16.34
-18.82
-51.24
-79.71
-103.46
-123.11
-140.79
-158.93
-178.56
-198.27
-214.75
-224.31
-224.31
-213.74
-192.58
-161.18
-120.13
-71.16
-18.24
32.32
73.19
98.41
105.71
97.16
78.11
54.86
32.40
13.38
-1.72
-13.49
-22.60
-29.31
-33.60
-35.69
-36.46
-37.49
-40.67
-47.36
-57.75
-70.72
-84.58
-97.84
-109.78
-120.39
-129.62
-136.69
-140.34
-139.84
-136.10
-131.83
-130.17
-132.42
-136.46
-136.78
-126.67
-101.10
-58.94
-3.45
58.96
120.68
174.54
214.85
237.81
241.83
227.82
199.28
161.87
122.23
86.53
59.16
42.11
35.05
35.63
40.32
45.14
46.53
42.08
31.01
14.26
-5.83
-26.08
-43.46
-55.82
-62.60
-64.90
-64.80
-64.14
-63.40
-61.19
-55.05
-43.07
-25.55
-5.58
12.15
23.57
27.34
25.53
22.43
22.27
27.24
37.14
50.25
64.70
78.92
91.08
98.41
97.38
85.24
62.03
31.67
0.85
-23.69
-38.16
-43.05
-41.75
-37.46
-30.09
-15.59
11.98
56.15
114.63
178.52
234.99
272.13
283.30
268.71
233.62
184.81
127.64
65.52
1.73
-58.49
-107.50
-137.37
-143.44
-126.92
-94.95
-57.99
-25.96
-5.31
1.93
-2.75
-15.97
-33.73
-52.12
-67.58
-77.48
-80.81
-78.59
-73.65
-69.34
-68.29
-71.26
-77.03
-83.30
-87.81
-89.35
-87.90
-84.28
-79.26
-73.07
-65.20
-54.85
-41.44
-25.14
-7.02
10.92
25.99
35.31
36.38
27.98
10.67
-13.16
-40.03
-66.54
-90.61
-112.02
-131.67
-150.66
-169.17
-186.29
-200.51
-210.34
-214.33
-210.56
-196.64
-170.77
-133.68
-90.08
-47.85
-15.12
3.69
9.85
9.08
7.69
8.56
9.95
7.87
0.27
-10.04
-16.04
-10.44
9.74
41.28
76.58
107.87
131.22
147.56
160.62
173.81
187.70
199.96
207.11
206.74
198.74
185.05
168.62
152.11
137.34
125.30
116.39
110.45
106.72
103.79
100.11
94.35
86.02
75.44
63.41
50.85
38.55
27.14
17.29
9.60
4.39
1.50
0.33
0.05
-0.13
-1.11
-4.22
-11.32
-24.30
-43.87
-68.44
-93.94
-114.99
-127.11
-128.80
-122.29
-112.63
-105.38
-104.33
-110.08
-119.95
-129.21
-132.60
-126.24
-108.84
-82.34
-51.30
-21.50
2.08
16.70
22.31
20.69
14.14
4.61
-6.53
-17.92
-27.86
-34.52
-36.69
-34.49
-29.54
-24.24
-20.60
-19.42
-20.09
-21.16
-21.11
-19.00
-14.79
-9.25
-3.63
0.74
2.96
2.97
1.71
0.80
2.03
6.57
14.43
24.44
34.65
43.02
48.00
49.00
46.29
40.92
34.35
28.11
23.50
21.18
21.09
22.44
24.09
24.96
24.38
22.29
19.16
15.76
12.92
11.37
11.63
13.94
18.06
23.18
28.01
30.95
30.66
26.58
19.18
9.88
0.55
-7.34
-13.26
-17.75
-21.92
-26.68
-32.06
-37.32
-41.47
-44.00
-45.28
-46.15
-47.20
-48.19
-48.04
-45.55
-40.33
-33.34
-26.58
-22.28
-21.89
-25.51
-32.09
-39.90
-47.32
-53.28
-57.33
-59.54
-60.29
-60.03
-59.08
-57.58
-55.39
-51.97
-46.45
-37.63
-24.29
-5.54
18.74
47.48
78.38
108.18
133.43
151.33
160.59
161.71
156.69
148.23
138.85
130.23
122.96
116.84
111.24
105.55
99.20
91.70
82.72
72.27
60.95
49.80
39.86
31.51
24.22
16.83
8.30
-1.61
-12.32
-23.01
-33.43
-44.20
-56.46
-70.87
-86.93
-103.14
-117.85
-130.23
-140.64
-149.95
-158.54
-165.65
-169.55
-168.54
-162.05
-151.12
-138.04
-125.37
-115.02
-107.86
-103.92
-102.88
-104.34
-107.66
-111.60
-114.20
-113.27
-107.24
-95.98
-80.98
-64.66
-49.10
-34.84
-20.46
-3.38
18.61
45.95
76.82
107.92
135.75
157.89
173.46
182.78
186.66
185.91
181.21
173.20
162.63
150.33
137.09
123.57
110.27
97.64
86.10
75.85
66.66
57.85
48.52
38.06
26.39
14.10
2.21
-8.22
-16.38
-21.86
-24.79
-25.80
-25.95
-26.38
-27.75
-29.71
-30.70
-28.39
-20.66
-6.80
11.78
31.54
47.90
56.72
55.74
45.35
28.32
8.87
-8.76
-21.46
-28.09
-29.65
-28.98
-29.83
-35.53
-47.67
-65.30
-85.08
-102.33
-112.74
-113.86
-105.75
-90.66
-71.99
-53.02
-36.11
-22.47
-12.42
-5.78
-2.03
-0.36
0.38
1.48
4.00
8.40
14.20
20.01
23.82
23.77
18.92
9.81
-1.67
-12.89
-21.41
-25.90
-26.42
-24.11
-20.58
-17.20
-14.68
-13.08
-12.09
-11.40
-10.95
-10.81
-11.18
-12.08
-13.32
-14.46
-14.93
-14.24
-12.03
-8.17
-2.74
3.94
11.29
18.54
24.76
29.10
31.04
30.54
28.14
24.76
21.42
18.96
17.86
18.10
19.22
20.45
20.88
19.69
16.36
10.84
3.57
-4.73
-13.34
-21.74
-29.70
-37.17
-43.92
-49.34
-52.47
-52.35
-48.45
-40.93
-30.50
-18.07
-4.34
10.52
26.58
43.78
61.55
78.69
93.72
105.30
112.62
115.50
114.25
109.37
101.39
90.92
78.74
65.78
53.04
41.21
30.49
20.44
10.33
-0.40
-11.73
-23.06
-33.55
-42.65
-50.61
-58.36
-67.12
-77.72
-90.10
-103.43
-116.53
-128.38
-138.56
-147.17
-154.76
-161.97
-169.40
-177.34
-185.57
-192.98
-197.60
-197.00
-189.03
-172.46
-147.23
-114.27
-75.03
-31.16
15.51
62.71
107.68
147.52
179.83
203.44
218.84
227.94
233.19
236.62
239.00
239.70
237.23
230.11
217.80
201.20
182.64
165.15
151.59
143.62
141.33
143.12
146.08
146.49
140.40
124.37
96.35
56.65
8.79
-40.79
-84.19
-114.29
-126.74
-120.75
-98.38
-63.10
-18.73
30.65
80.13
123.83
155.92
172.71
174.40
165.20
151.52
139.11
130.75
125.88
121.84
115.93
106.79
94.60
80.45
65.57
50.98
37.53
25.78
16.04
8.14
1.30
-5.75
-14.53
-26.25
-41.15
-58.04
-74.16
-85.96
-90.57
-87.31
-78.31
-67.76
-60.11
-58.14
-62.01
-69.75
-78.71
-87.05
-94.46
-101.71
-109.73
-118.64
-127.28
-133.60
-135.16
-129.82
-116.25
-94.20
-64.91
-31.08
3.36
34.03
56.95
69.42
70.35
60.29
41.32
16.67
-9.42
-32.26
-47.49
-52.33
-46.66
-33.52
-18.46
-7.78
-6.37
-16.03
-35.22
-60.09
-86.22
-110.15
-130.22
-146.28
-158.74
-167.66
-172.18
-170.88
-162.69
-147.86
-128.44
-107.82
-89.51
-75.88
-67.33
-62.51
-59.35
-55.93
-50.97
-43.71
-33.57
-20.24
-4.04
13.53
29.92
42.18
48.14
47.28
40.86
31.16
20.44
10.23
1.10
-6.91
-13.92
-20.01
-25.32
-30.15
-34.87
-39.66
-44.22
-47.62
-48.53
-45.69
-38.54
-27.64
-14.63
-1.77
8.83
15.91
19.32
19.91
18.89
17.26
15.42
13.19
10.26
6.74
3.47
1.93
3.63
9.22
17.97
27.73
35.76
39.86
39.33
35.12
29.18
23.35
18.44
14.03
9.01
2.50
-5.52
-14.14
-22.05
-28.15
-32.03
-33.97
-34.65
-34.73
-34.61
-34.42
-34.07
-33.50
-32.70
-31.68
-30.44
-28.88
-26.88
-24.31
-21.19
-17.74
-14.26
-11.03
-8.11
-5.22
-1.75
3.06
9.66
17.78
26.15
32.66
34.91
31.01
20.36
4.03
-15.45
-34.80
-50.89
-61.64
-66.30
-65.54
-60.85
-53.90
-46.02
-37.94
-29.93
-22.24
-15.36
-9.85
-6.00
-3.14
0.37
6.65
17.30
32.55
50.95
70.00
87.43
102.09
114.17
124.41
133.07
139.40
142.08
140.11
133.65
123.95
112.64
100.82
88.90
76.81
64.99
54.68
47.68
45.49
48.43
55.42
64.60
74.18
83.06
90.77
96.95
100.86
101.42
97.68
89.46
77.73
64.35
51.46
40.74
32.88
27.47
23.37
19.27
14.16
7.59
-0.33
-9.18
-18.41
-27.51
-36.01
-43.57
-49.88
-54.77
-58.15
-60.08
-60.82
-60.81
-60.60
-60.75
-61.69
-63.57
-66.32
-69.68
-73.40
-77.36
-81.57
-86.00
-90.42
-94.31
-97.01
-97.91
-96.74
-93.53
-88.52
-81.95
-74.07
-65.13
-55.59
-46.09
-37.37
-29.96
-23.94
-18.94
-14.31
-9.42
-3.93
2.20
8.77
15.61
22.66
29.93
37.34
44.60
51.10
56.06
58.73
58.71
56.15
51.74
46.57
41.72
38.04
35.86
35.01
34.95
34.95
34.34
32.68
29.80
25.85
21.14
16.10
11.00
6.05
1.42
-2.63
-5.66
-7.11
-6.52
-3.81
0.67
6.13
11.66
16.50
20.19
22.64
23.95
24.31
23.93
23.04
21.92
20.82
19.98
19.47
19.22
19.06
18.74
17.93
16.36
13.88
10.48
6.45
2.25
-1.64
-4.82
-7.21
-9.03
-10.62
-12.29
-14.21
-16.32
-18.45
-20.39
-21.95
-23.00
-23.46
-23.39
-22.92
-22.27
-21.63
-21.05
-20.34
-19.28
-17.65
-15.49
-13.13
-11.02
-9.60
-9.08
-9.37
-10.19
-11.17
-11.99
-12.48
-12.61
-12.50
-12.38
-12.49
-13.05
-14.06
-15.36
-16.62
-17.49
-17.76
-17.39
-16.49
-15.24
-13.83
-12.45
-11.35
-10.89
-11.49
-13.50
-17.09
-22.09
-27.96
-33.91
-39.03
-42.56
-43.96
-43.05
-39.98
-35.06
-28.65
-20.96
-12.08
-2.08
8.78
19.92
30.42
39.24
45.49
48.68
48.88
46.63
42.78
38.19
33.51
29.05
24.71
20.18
15.12
9.41
3.25
-2.89
-8.63
-13.83
-18.74
-23.76
-29.11
-34.57
-39.51
-43.20
-45.22
-45.71
-45.24
-44.49
-43.99
-44.00
-44.78
-46.83
-50.86
-57.52
-66.90
-78.26
-90.24
-101.46
-111.19
-119.42
-126.60
-132.92
-137.97
-140.86
-140.72
-137.17
-130.37
-120.70
-108.42
-93.54
-75.98
-55.90
-33.96
-11.16
11.47
33.25
53.98
73.78
92.84
111.09
128.06
142.80
154.17
161.17
163.44
161.70
157.58
153.00
149.22
146.21
142.72
137.14
128.52
117.09
104.23
91.76
81.12
73.05
67.62
64.62
63.83
65.03
67.81
71.47
75.15
78.15
80.06
80.81
80.45
78.98
76.38
72.83
68.86
65.16
62.29
60.41
59.18
58.08
56.81
55.56
54.81
54.94
55.79
56.66
56.58
54.86
51.45
46.86
41.89
37.21
33.19
29.80
26.90
24.31
21.92
19.59
17.09
13.99
9.74
3.86
-3.81
-12.91
-22.58
-31.68
-39.23
-44.66
-47.98
-49.66
-50.30
-50.39
-50.25
-50.09
-50.18
-50.82
-52.11
-53.64
-54.41
-53.18
-49.09
-42.39
-34.71
-28.58
-26.42
-29.24
-35.90
-43.33
-47.67
-45.76
-36.37
-20.34
0.05
22.12
43.70
63.32
80.01
92.95
101.37
104.76
103.24
97.63
89.22
79.37
69.10
58.90
48.82
38.69
28.31
17.58
6.68
-4.02
-13.87
-22.18
-28.44
-32.47
-34.47
-34.93
-34.37
-33.28
-32.12
-31.36
-31.54
-33.21
-36.68
-41.92
-48.49
-55.63
-62.47
-68.24
-72.33
-74.39
-74.31
-72.21
-68.53
-64.01
-59.50
-55.78
-53.29
-52.01
-51.51
-51.25
-50.74
-49.83
-48.69
-47.64
-46.91
-46.52
-46.22
-45.72
-44.87
-43.69
-42.37
-41.12
-40.07
-39.30
-38.84
-38.78
-39.19
-40.06
-41.24
-42.44
-43.27
-43.39
-42.61
-40.86
-38.18
-34.70
-30.63
-26.22
-21.72
-17.32
-13.02
-8.76
-4.41
0.13
4.85
9.67
14.58
19.56
24.64
29.77
34.69
38.97
42.07
43.53
43.17
41.17
38.02
34.37
30.80
27.65
24.96
22.54
20.07
17.26
14.00
10.30
6.27
2.01
-2.43
-7.04
-11.84
-16.79
-21.79
-26.75
-31.61
-36.31
-40.79
-44.91
-48.42
-51.04
-52.58
-53.13
-53.05
-52.95
-53.42
-54.78
-56.92
-59.29
-61.19
-62.08
-61.81
-60.76
-59.61
-59.01
-59.21
-59.76
-59.70
-57.85
-53.29
-45.73
-35.59
-23.84
-11.68
-0.26
9.53
17.25
23.10
27.97
33.34
40.88
51.79
66.26
83.15
100.36
115.50
126.91
134.17
138.19
140.66
143.27
147.03
152.01
157.58
162.80
167.00
170.00
172.26
174.67
178.25
183.60
190.49
197.60
202.47
202.03
193.29
174.34
145.01
107.11
64.04
19.98
-21.15
-56.44
-84.47
-105.10
-119.11
-127.69
-132.09
-133.50
-133.07
-131.85
-130.75
-130.28
-130.50
-131.12
-131.71
-131.98
-131.75
-130.87
-129.02
-125.81
-120.91
-114.44
-107.02
-99.48
-92.28
-85.00
-76.33
-64.62
-48.82
-29.16
-7.40
13.81
31.78
44.67
51.84
53.72
51.27
45.52
37.33
27.43
16.63
6.05
-3.06
-9.53
-12.67
-12.48
-9.72
-5.52
-0.92
3.70
8.80
15.38
24.36
35.89
49.08
62.15
73.15
80.60
83.91
83.41
79.99
74.71
68.40
61.56
54.37
46.94
39.44
32.26
25.91
20.77
16.83
13.49
9.70
4.34
-3.20
-12.74
-23.31
-33.50
-42.07
-48.36
-52.43
-54.93
-56.85
-59.15
-62.59
-67.54
-73.89
-81.06
-88.15
-94.12
-98.14
-99.76
-99.04
-96.46
-92.52
-87.46
-81.03
-72.67
-61.89
-48.67
-33.62
-17.79
-2.29
12.03
24.78
35.86
45.31
53.06
58.87
62.39
63.31
61.49
56.92
49.73
40.15
28.52
15.41
1.64
-11.71
-23.54
-32.92
-39.30
-42.58
-43.07
-41.27
-37.64
-32.52
-26.21
-19.15
-12.06
-5.96
-1.89
-0.55
-2.10
-6.15
-11.99
-18.79
-25.82
-32.37
-37.70
-41.02
-41.62
-39.17
-33.86
-26.41
-17.79
-8.80
0.11
8.92
17.79
26.82
35.93
44.88
53.17
60.01
64.41
65.42
62.59
56.33
47.93
39.06
31.10
24.65
19.54
15.20
11.35
8.15
6.12
5.48
5.84
6.21
5.42
2.86
-1.23
-5.82
-9.60
-11.51
-11.06
-8.30
-3.68
2.25
8.84
15.42
21.37
26.31
30.26
33.58
36.68
39.64
41.95
42.77
41.41
37.80
32.61
26.81
21.19
16.02
11.09
6.07
0.91
-4.22
-9.08
-13.72
-18.38
-23.27
-28.10
-31.92
-33.45
-31.58
-25.86
-16.71
-5.21
7.33
19.68
30.98
40.77
48.90
55.51
60.91
65.44
69.50
73.29
76.86
80.05
82.66
84.69
86.39
88.17
90.24
92.12
92.51
89.41
80.83
65.47
43.25
15.37
-16.00
-48.09
-77.81
-102.19
-118.76
-126.24
-125.06
-117.34
-106.29
-95.09
-85.87
-79.40
-75.48
-73.73
-74.17
-77.18
-82.93
-90.77
-99.04
-105.49
-107.97
-105.06
-96.35
-82.33
-64.20
-43.55
-22.11
-1.57
16.57
31.13
41.26
46.52
46.89
42.89
35.57
26.37
16.75
7.75
-0.32
-7.81
-15.31
-23.30
-31.72
-40.13
-47.87
-54.47
-59.78
-63.87
-66.84
-68.73
-69.51
-69.12
-67.44
-64.06
-58.04
-48.09
-33.09
-13.04
10.39
33.97
53.93
67.49
73.97
74.94
73.27
71.67
71.47
72.47
73.59
73.81
72.80
70.89
68.58
66.10
63.36
60.13
56.30
51.91
47.00
41.59
35.68
29.48
23.41
17.93
13.19
8.91
4.48
-0.55
-6.13
-11.61
-16.08
-18.89
-20.04
-20.13
-19.83
-19.34
-18.08
-14.99
-9.35
-1.42
7.33
14.86
19.52
20.92
19.95
18.27
17.29
17.45
18.33
19.13
19.37
19.25
19.39
20.34
22.10
24.18
25.92
26.94
27.38
27.72
28.49
29.89
31.68
33.24
33.79
32.72
29.89
25.68
20.83
16.18
12.28
9.34
7.23
5.79
4.90
4.49
4.48
4.68
4.84
4.77
4.52
4.31
4.34
4.61
4.75
4.21
2.52
-0.39
-4.29
-8.71
-13.30
-17.95
-22.67
-27.39
-31.80
-35.41
-37.74
-38.60
-38.13
-36.69
-34.56
-31.77
-28.09
-23.30
-17.40
-10.80
-4.14
1.92
7.04
11.15
14.36
16.71
18.01
18.02
16.62
13.97
10.46
6.50
2.25
-2.44
-7.87
-14.22
-21.38
-28.98
-36.50
-43.48
-49.54
-54.34
-57.46
-58.55
-57.44
-54.40
-50.13
-45.52
-41.39
-38.22
-36.10
-34.83
-34.09
-33.57
-32.98
-32.06
-30.59
-28.54
-26.09
-23.67
-21.85
-21.06
-21.47
-22.91
-24.92
-26.94
-28.50
-29.40
-29.78
-30.11
-31.00
-32.96
-36.24
-40.73
-45.95
-51.06
-54.95
-56.37
-54.25
-47.99
-37.72
-24.25
-8.82
7.35
23.32
38.54
52.77
65.88
77.80
88.48
97.94
106.12
112.82
117.64
120.20
120.50
119.07
116.93
115.09
114.17
114.19
114.67
114.81
113.54
109.34
100.16
83.96
59.68
28.46
-5.88
-37.62
-61.09
-72.98
-73.68
-66.93
-58.07
-51.61
-49.64
-51.68
-55.70
-59.51
-61.71
-61.81
-59.82
-55.87
-50.16
-43.16
-35.80
-29.48
-25.55
-24.83
-27.21
-31.72
-36.86
-41.14
-43.43
-43.21
-40.45
-35.44
-28.61
-20.40
-11.19
-1.36
8.72
18.81
28.81
38.75
48.60
58.00
66.17
71.99
74.53
73.62
70.04
65.29
61.02
58.15
56.54
55.11
52.54
48.11
42.15
35.93
31.07
28.86
29.73
33.14
37.96
42.93
47.10
50.01
51.66
52.21
51.82
50.37
47.63
43.38
37.65
30.87
23.73
16.91
10.70
4.89
-1.17
-8.10
-16.14
-24.83
-33.04
-39.30
-42.32
-41.44
-36.86
-29.55
-20.93
-12.40
-5.07
0.48
4.12
6.07
6.70
6.42
5.38
3.43
0.08
-5.20
-12.51
-21.15
-29.52
-35.54
-37.48
-34.68
-27.90
-19.07
-10.51
-4.16
-1.03
-1.17
-3.90
-8.20
-13.02
-17.29
-20.13
-20.87
-19.38
-16.14
-12.14
-8.61
-6.63
-6.84
-9.26
-13.46
-18.75
-24.39
-29.72
-34.23
-37.62
-39.85
-41.17
-42.02
-42.90
-44.06
-45.48
-46.80
-47.54
-47.35
-46.10
-43.95
-41.17
-38.01
-34.52
-30.51
-25.60
-19.41
-11.76
-2.77
7.12
17.24
26.82
35.21
41.89
46.43
48.60
48.36
46.10
42.63
39.13
36.68
35.76
35.98
36.14
34.78
30.81
24.09
15.54
6.80
-0.40
-4.80
-6.10
-5.01
-2.90
-1.34
-1.54
-3.96
-8.29
-13.62
-18.93
-23.41
-26.61
-28.50
-29.39
-29.85
-30.53
-32.06
-34.71
-38.15
-41.38
-43.04
-41.96
-37.70
-30.79
-22.52
-14.36
-7.34
-1.83
2.39
5.74
8.55
11.01
13.36
16.03
19.59
24.50
30.73
37.73
44.55
50.33
54.63
57.49
59.10
59.42
58.11
54.59
48.58
40.49
31.46
23.09
16.87
13.60
13.11
14.32
15.63
15.43
12.68
7.21
-0.26
-8.33
-15.53
-20.77
-23.75
-24.97
-25.41
-26.10
-27.68
-30.22
-33.29
-36.26
-38.73
-40.76
-42.87
-45.74
-49.79
-54.88
-60.27
-65.00
-68.24
-69.51
-68.68
-65.78
-60.88
-54.17
-46.13
-37.65
-29.73
-22.88
-16.70
-9.99
-1.46
9.23
20.96
31.47
38.41
40.61
38.60
34.25
29.63
25.95
23.19
20.43
16.85
12.43
8.07
5.14
4.75
7.14
11.64
17.04
22.08
25.94
28.42
29.88
30.83
31.71
32.64
33.59
34.46
35.34
36.50
38.19
40.42
42.80
44.63
45.17
43.94
40.95
36.72
32.11
28.06
25.34
24.37
25.20
27.48
30.56
33.63
35.86
36.68
35.86
33.60
30.44
27.00
23.69
20.53
17.17
13.09
8.01
1.98
-4.51
-10.78
-16.26
-20.66
-24.04
-26.69
-28.92
-30.94
-32.77
-34.33
-35.46
-36.12
-36.42
-36.62
-37.12
-38.23
-40.13
-42.71
-45.75
-48.99
-52.37
-55.90
-59.57
-63.16
-66.15
-67.93
-68.06
-66.47
-63.56
-59.99
-56.34
-52.94
-49.82
-46.79
-43.77
-40.80
-38.00
-35.46
-33.10
-30.69
-27.99
-24.85
-21.39
-17.91
-14.71
-11.92
-9.40
-6.81
-3.85
-0.54
2.81
5.69
7.74
9.05
10.15
11.71
14.17
17.42
20.91
23.92
26.02
27.23
27.94
28.44
28.74
28.44
27.13
24.71
21.75
19.29
18.50
20.15
24.30
30.33
37.28
44.27
50.71
56.36
61.11
64.77
67.02
67.47
65.89
62.34
57.19
51.04
44.45
37.81
31.32
24.95
18.58
12.05
5.31
-1.48
-7.93
-13.49
-17.62
-20.06
-21.00
-21.14
-21.44
-22.81
-25.81
-30.45
-36.19
-42.20
-47.68
-52.15
-55.53
-58.07
-60.11
-61.87
-63.33
-64.25
-64.44
-63.86
-62.70
-61.30
-59.89
-58.49
-56.96
-55.21
-53.35
-51.78
-50.96
-51.15
-52.10
-53.01
-52.63
-49.71
-43.37
-33.49
-20.80
-6.73
6.98
18.84
27.95
34.27
38.45
41.46
44.19
47.05
49.83
51.93
52.62
51.47
48.58
44.52
40.14
36.14
32.67
29.24
24.84
18.29
8.74
-4.07
-19.59
-36.51
-52.97
-66.87
-76.40
-80.30
-78.22
-70.70
-59.05
-45.12
-30.96
-18.46
-9.08
-3.55
-1.72
-2.62
-4.76
-6.58
-6.89
-5.06
-1.05
4.86
12.26
20.78
30.07
39.76
49.42
58.69
67.41
75.68
83.75
91.70
99.06
104.65
106.65
103.25
93.46
77.69
57.96
37.33
18.89
4.80
-4.29
-9.08
-11.10
-11.80
-12.01
-11.82
-10.82
-8.64
-5.27
-1.12
3.22
7.43
11.64
16.41
22.30
29.45
37.29
44.71
50.52
54.04
55.36
55.24
54.70
54.43
54.50
54.25
52.56
48.24
40.47
29.27
15.58
1.06
-12.38
-23.18
-30.67
-35.04
-37.04
-37.43
-36.61
-34.62
-31.35
-27.00
-22.22
-18.02
-15.35
-14.78
-16.35
-19.59
-23.80
-28.25
-32.34
-35.61
-37.81
-38.88
-38.86
-37.95
-36.39
-34.45
-32.36
-30.34
-28.60
-27.26
-26.24
-25.29
-24.00
-22.04
-19.34
-16.24
-13.34
-11.24
-10.23
-10.07
-10.15
-9.74
-8.31
-5.78
-2.44
1.13
4.15
5.77
5.13
1.64
-4.59
-12.29
-19.01
-21.72
-18.02
-7.24
8.91
26.85
42.53
52.90
56.95
55.57
50.75
44.46
37.92
31.56
25.38
19.28
13.20
7.04
0.54
-6.65
-14.82
-23.94
-33.68
-43.44
-52.55
-60.50
-66.95
-71.87
-75.35
-77.56
-78.46
-77.71
-74.73
-68.96
-60.32
-49.42
-37.61
-26.51
-17.44
-11.01
-6.95
-4.38
-2.24
0.30
3.63
7.71
12.12
16.25
19.44
21.09
20.86
18.82
15.50
11.73
8.39
5.99
4.49
3.27
1.50
-1.47
-5.66
-10.38
-14.52
-16.97
-17.10
-15.00
-11.38
-7.18
-3.28
-0.13
2.12
3.51
3.99
3.33
1.17
-2.69
-8.09
-14.47
-20.96
-26.80
-31.59
-35.49
-39.06
-42.96
-47.62
-53.02
-58.57
-63.16
-65.33
-63.57
-56.71
-44.46
-27.63
-8.18
11.27
28.15
40.59
48.01
51.04
51.22
50.50
50.61
52.68
56.95
62.85
69.18
74.60
78.03
79.04
77.89
75.22
71.75
67.93
63.85
59.37
54.28
48.52
42.24
35.71
29.25
23.10
17.40
12.18
7.49
3.35
-0.19
-3.11
-5.52
-7.64
-9.73
-11.97
-14.34
-16.65
-18.60
-20.03
-20.98
-21.69
-22.36
-22.84
-22.61
-20.86
-16.90
-10.56
-2.41
6.43
14.67
21.42
26.51
30.44
34.11
38.35
43.58
49.63
55.71
60.67
63.16
62.03
56.53
46.51
32.57
15.95
-1.59
-18.22
-32.36
-43.18
-50.77
-56.05
-60.38
-64.84
-69.72
-74.32
-77.28
-77.36
-74.16
-68.41
-61.68
-55.65
-51.37
-48.93
-47.60
-46.37
-44.44
-41.49
-37.64
-33.13
-28.08
-22.47
-16.21
-9.31
-2.00
5.30
12.06
17.83
22.36
25.70
28.18
30.27
32.35
34.68
37.22
39.75
41.89
43.15
42.96
40.77
36.21
29.41
21.09
12.57
5.33
0.64
-0.94
0.31
3.45
7.28
10.71
13.00
13.85
13.22
11.31
8.42
4.94
1.30
-2.08
-4.85
-6.82
-7.97
-8.41
-8.28
-7.64
-6.48
-4.70
-2.24
0.80
4.20
7.62
10.73
13.26
15.02
15.88
15.76
14.70
12.88
10.72
8.73
7.33
6.69
6.65
6.83
6.85
6.53
5.98
5.52
5.48
5.97
6.84
7.75
8.31
8.27
7.59
6.33
4.58
2.36
-0.36
-3.57
-7.10
-10.52
-13.28
-14.84
-14.93
-13.68
-11.55
-9.19
-7.12
-5.63
-4.70
-4.11
-3.60
-3.02
-2.27
-1.32
-0.16
1.26
2.96
4.95
7.18
9.57
12.05
14.55
17.08
19.70
22.45
25.33
28.20
30.75
32.56
33.22
32.44
30.17
26.54
21.83
16.28
10.12
3.51
-3.28
-9.94
-16.10
-21.40
-25.62
-28.71
-30.82
-32.21
-33.11
-33.57
-33.47
-32.56
-30.55
-27.32
-23.01
-17.98
-12.71
-7.66
-3.12
0.77
4.01
6.62
8.67
10.28
11.71
13.34
15.64
18.94
23.31
28.40
33.53
37.84
40.57
41.26
39.88
36.77
32.55
27.95
23.63
20.05
17.50
16.02
15.43
15.41
15.51
15.26
14.26
12.35
9.58
6.17
2.43
-1.38
-5.12
-8.67
-11.92
-14.76
-17.16
-19.17
-20.93
-22.47
-23.66
-24.19
-23.87
-22.90
-21.95
-22.02
-24.00
-28.20
-34.13
-40.66
-46.45
-50.39
-51.85
-50.77
-47.50
-42.64
-36.91
-31.04
-25.59
-20.88
-16.89
-13.25
-9.36
-4.59
1.54
9.21
18.22
28.06
37.95
47.03
54.52
59.87
62.75
62.99
60.60
55.68
48.51
39.64
29.90
20.34
12.08
6.03
2.74
2.35
4.61
8.99
14.76
21.02
26.71
30.73
32.25
30.95
27.22
22.04
16.63
11.94
8.36
5.67
3.33
0.85
-2.00
-5.13
-8.42
-11.93
-15.85
-20.36
-25.31
-30.21
-34.30
-37.08
-38.65
-39.78
-41.71
-45.51
-51.59
-59.53
-68.21
-76.21
-82.16
-84.88
-83.37
-76.81
-64.80
-47.59
-26.36
-3.03
20.30
41.95
61.09
77.59
91.78
104.03
114.81
124.89
135.54
148.31
164.36
183.74
204.92
224.97
240.20
247.09
243.18
227.66
201.71
168.44
132.39
98.53
70.99
52.02
41.54
37.53
37.11
37.64
37.45
35.91
33.02
28.82
23.04
15.08
4.34
-9.47
-25.97
-44.24
-63.04
-81.25
-98.10
-113.20
-126.30
-136.97
-144.53
-148.26
-147.85
-143.77
-137.30
-130.10
-123.66
-118.73
-115.18
-112.27
-109.11
-105.14
-100.32
-94.98
-89.64
-84.73
-80.51
-77.07
-74.32
-72.07
-70.00
-67.69
-64.66
-60.47
-54.93
-48.12
-40.38
-32.18
-23.98
-16.27
-9.60
-4.68
-2.13
-2.12
-4.04
-6.40
-7.18
-4.56
2.45
13.64
27.75
42.93
57.38
69.74
79.23
85.51
88.61
88.90
86.94
83.49
79.35
75.23
71.71
69.21
67.99
68.04
68.99
70.09
70.33
68.79
64.95
58.83
50.95
42.17
33.36
25.29
18.50
13.28
9.61
7.05
4.84
2.01
-2.32
-8.75
-17.52
-28.60
-41.71
-56.37
-71.69
-86.40
-98.97
-108.04
-112.99
-114.13
-112.69
-110.17
-107.84
-106.27
-105.33
-104.48
-103.18
-101.06
-97.93
-93.66
-88.16
-81.43
-73.69
-65.40
-57.10
-49.12
-41.36
-33.26
-24.07
-13.29
-1.11
11.55
23.17
32.19
37.49
38.66
36.08
30.54
22.97
14.09
4.34
-6.05
-16.77
-27.38
-37.20
-45.43
-51.36
-54.36
-54.00
-50.11
-42.86
-32.94
-21.67
-10.84
-2.39
2.12
2.05
-2.17
-9.18
-17.23
-24.83
-31.16
-36.02
-39.55
-41.61
-41.50
-37.97
-29.78
-16.41
1.45
21.90
42.43
60.98
76.55
89.35
100.11
109.20
116.00
119.05
116.85
108.99
96.74
82.80
70.34
61.77
57.84
57.66
59.39
61.17
61.90
61.38
60.03
58.34
56.50
54.34
51.65
48.53
45.61
43.85
43.98
45.84
48.03
48.06
43.04
30.66
10.07
-17.72
-50.00
-82.97
-112.65
-135.81
-150.46
-156.23
-154.23
-146.71
-136.47
-126.13
-117.50
-111.23
-106.87
-103.25
-99.08
-93.40
-85.84
-76.53
-65.85
-54.20
-42.05
-29.93
-18.63
-9.06
-2.07
1.98
3.34
2.91
1.85
1.19
1.39
2.23
2.92
2.46
0.21
-3.72
-8.28
-11.75
-12.31
-8.74
-1.01
9.66
21.09
30.93
37.42
39.90
38.95
36.00
32.62
29.93
28.24
27.31
26.76
26.57
27.13
28.86
31.64
34.54
36.05
34.82
30.46
23.76
16.30
9.48
3.88
-0.92
-5.69
-10.65
-15.04
-17.28
-15.99
-10.89
-3.35
4.05
8.70
9.16
6.00
1.57
-1.03
0.70
7.59
18.33
29.95
38.78
41.60
36.67
24.22
6.43
-13.23
-30.94
-43.63
-49.78
-49.59
-44.71
-37.41
-29.79
-23.28
-18.50
-15.38
-13.51
-12.37
-11.48
-10.45
-9.03
-7.11
-4.78
-2.28
-0.02
1.58
2.29
2.24
2.02
2.54
4.63
8.55
13.75
18.90
22.55
23.81
22.77
20.53
18.49
17.66
18.15
19.27
20.03
19.76
18.43
16.52
14.62
13.09
11.92
10.94
10.02
9.35
9.32
10.38
12.70
16.06
19.82
23.10
25.00
24.84
22.32
17.55
10.94
3.17
-4.96
-12.53
-18.73
-23.06
-25.69
-27.59
-30.12
-34.26
-39.74
-44.73
-46.51
-42.89
-33.54
-20.53
-7.51
2.01
6.25
5.70
2.36
-1.66
-5.39
-9.06
-13.35
-18.35
-23.03
-25.73
-24.99
-20.37
-12.40
-1.95
10.39
24.41
39.69
55.06
68.43
77.49
80.82
78.67
72.82
65.61
58.89
53.48
49.53
47.42
48.13
52.89
62.01
74.04
85.77
93.47
94.60
89.07
79.17
68.50
60.22
55.84
55.00
56.14
57.42
57.51
55.73
51.84
45.79
37.64
27.65
16.52
5.27
-4.94
-13.18
-19.07
-22.80
-24.98
-26.28
-27.21
-27.95
-28.39
-28.26
-27.30
-25.37
-22.57
-19.16
-15.47
-11.86
-8.56
-5.64
-3.06
-0.68
1.56
3.59
5.09
5.66
4.82
2.30
-1.89
-7.30
-13.20
-18.67
-22.93
-25.57
-26.64
-26.58
-26.02
-25.50
-25.31
-25.36
-25.28
-24.60
-22.93
-20.12
-16.27
-11.78
-7.31
-3.69
-1.83
-2.45
-5.79
-11.40
-18.17
-24.64
-29.55
-32.31
-33.16
-32.97
-32.67
-32.83
-33.35
-33.69
-33.23
-31.71
-29.33
-26.71
-24.52
-23.22
-22.92
-23.33
-23.81
-23.34
-20.50
-13.53
-0.82
18.46
43.69
72.51
101.12
125.20
141.09
146.78
142.35
129.64
111.40
90.40
68.60
46.91
25.36
3.54
-18.75
-41.05
-62.11
-80.22
-93.76
-102.01
-105.52
-105.97
-105.59
-106.25
-108.80
-112.90
-117.28
-120.44
-121.14
-118.73
-113.04
-104.22
-92.53
-78.33
-62.13
-44.70
-27.10
-10.58
3.60
14.40
21.27
24.33
24.50
23.37
22.96
25.22
31.50
42.02
55.76
70.64
84.13
94.05
99.07
98.95
94.21
85.66
73.97
59.68
43.51
26.68
10.94
-1.85
-10.36
-14.21
-14.01
-10.90
-5.94
0.07
6.52
12.67
17.56
20.27
20.40
18.53
15.95
14.03
13.38
13.45
12.93
10.59
6.27
1.07
-3.06
-4.26
-1.65
4.48
12.92
22.23
31.23
39.13
45.39
49.51
51.00
49.50
45.00
37.89
28.87
18.79
8.54
-1.06
-9.23
-15.36
-19.11
-20.47
-19.86
-18.01
-15.91
-14.57
-14.88
-17.24
-21.32
-25.96
-29.32
-29.36
-24.41
-13.67
2.67
23.51
47.09
71.26
93.71
112.17
124.75
130.29
128.49
119.93
105.78
87.55
66.79
45.10
23.88
4.26
-13.15
-28.18
-40.89
-51.12
-58.24
-61.43
-60.18
-55.04
-47.72
-40.76
-36.62
-36.73
-40.86
-46.95
-51.40
-49.78
-38.14
-14.66
19.04
57.72
94.04
121.48
137.07
142.40
142.08
140.62
139.33
135.34
123.33
98.51
59.10
6.91
-53.85
-117.80
-179.05
-230.95
-266.36
-279.30
-267.73
-235.73
-193.07
-151.97
-122.17
-107.20
-103.74
-104.45
-102.44
-94.64
-82.55
-70.30
-61.69
-58.05
-58.05
-59.11
-59.10
-57.50
-55.26
-53.67
-53.18
-52.83
-50.69
-45.05
-35.35
-22.63
-8.95
3.70
14.36
23.34
31.65
40.16
48.82
56.64
62.28
64.80
64.28
61.88
59.34
58.30
59.74
63.69
69.34
75.36
80.34
83.23
83.65
81.88
78.70
74.94
71.13
67.21
62.70
56.92
49.45
40.29
29.69
17.83
4.42
-11.28
-30.06
-52.03
-76.32
-101.05
-123.65
-141.46
-151.81
-151.98
-139.20
-111.50
-69.49
-17.89
34.89
79.30
108.75
122.77
127.14
130.69
140.44
157.94
178.89
195.99
202.98
197.26
179.90
153.91
122.52
88.82
56.56
30.79
17.15
19.69
38.67
70.05
106.67
140.81
166.53
180.68
182.44
172.36
151.39
120.89
83.01
40.90
-1.60
-40.84
-74.26
-100.79
-120.65
-134.82
-144.31
-149.86
-152.08
-151.62
-149.39
-146.49
-143.98
-142.57
-142.46
-143.33
-144.51
-145.35
-145.39
-144.64
-143.49
-142.56
-142.40
-143.32
-145.14
-147.33
-149.15
-149.90
-149.13
-146.71
-142.79
-137.64
-131.48
-124.29
-115.88
-105.93
-94.32
-81.32
-67.60
-54.17
-41.96
-31.54
-22.89
-15.44
-8.14
0.22
10.69
23.63
38.25
52.65
64.32
71.26
73.21
72.08
71.54
75.35
85.49
100.80
116.96
127.80
127.38
111.95
80.96
37.31
-13.39
-63.70
-105.67
-132.30
-139.28
-126.57
-99.04
-65.57
-36.40
-19.64
-18.41
-29.95
-47.18
-62.01
-68.54
-64.84
-52.57
-35.15
-15.87
3.08
20.34
34.50
43.72
46.28
41.75
32.07
21.37
14.51
15.01
23.48
37.37
52.24
63.89
70.01
70.67
67.62
62.95
58.11
53.62
49.65
46.49
44.80
45.24
48.07
52.82
58.40
63.47
66.95
68.32
67.55
65.00
61.17
56.65
52.03
47.97
45.10
43.87
44.43
46.36
48.71
50.19
49.60
46.31
40.44
32.85
24.73
17.06
10.30
4.31
-1.36
-7.24
-13.50
-19.84
-25.63
-30.21
-33.26
-35.21
-37.23
-40.86
-47.31
-56.71
-67.78
-78.02
-84.47
-84.83
-78.37
-66.44
-52.15
-39.34
-31.01
-28.00
-28.41
-28.04
-21.96
-6.40
19.77
54.56
93.61
131.45
162.87
183.67
190.89
183.00
160.31
125.49
83.64
41.47
5.38
-20.52
-35.70
-42.87
-46.26
-49.50
-54.22
-59.97
-65.33
-69.09
-70.99
-71.55
-71.35
-70.54
-68.81
-65.81
-61.59
-56.66
-51.76
-47.31
-43.25
-39.11
-34.32
-28.53
-21.73
-14.26
-6.56
0.86
7.57
13.26
17.74
20.99
23.06
24.04
23.96
22.85
20.79
18.02
14.98
12.17
10.01
8.59
7.56
6.11
3.14
-2.36
-10.93
-22.35
-35.45
-48.40
-59.19
-66.21
-68.78
-67.18
-62.48
-55.99
-48.86
-41.89
-35.56
-30.15
-25.81
-22.65
-20.61
-19.54
-19.20
-19.41
-20.01
-20.89
-21.92
-22.86
-23.42
-23.31
-22.35
-20.52
-17.84
-14.29
-9.77
-4.13
2.71
10.57
18.96
27.11
34.15
39.39
42.52
43.72
43.45
42.31
40.70
38.82
36.73
34.45
32.08
29.86
28.23
27.74
28.95
32.15
37.04
42.63
47.35
49.48
47.88
42.39
33.90
23.96
14.07
5.13
-2.71
-9.73
-16.21
-22.06
-26.86
-30.15
-31.76
-32.01
-31.53
-30.92
-30.40
-29.69
-28.09
-24.92
-19.92
-13.43
-6.32
0.42
6.09
10.53
14.07
17.23
20.38
23.59
26.62
29.15
30.98
32.05
32.44
32.23
31.50
30.36
28.97
27.60
26.52
25.85
25.52
25.35
25.09
24.54
23.49
21.78
19.16
15.46
10.61
4.75
-1.90
-9.20
-17.23
-26.24
-36.28
-46.83
-56.68
-64.07
-67.38
-65.61
-58.71
-47.44
-32.88
-16.11
1.97
20.53
38.74
55.94
71.83
86.73
101.32
116.16
131.15
145.14
156.13
161.67
159.56
148.39
127.99
99.54
65.43
28.88
-6.72
-38.46
-64.38
-83.57
-95.94
-101.85
-101.92
-96.98
-88.12
-76.69
-64.17
-51.90
-40.95
-32.06
-25.79
-22.45
-22.03
-24.13
-27.86
-32.14
-35.92
-38.54
-39.81
-39.87
-38.95
-37.18
-34.57
-31.18
-27.21
-23.08
-19.18
-15.72
-12.59
-9.51
-6.28
-3.06
-0.42
0.95
0.57
-1.51
-4.72
-8.20
-11.18
-13.26
-14.48
-15.22
-16.02
-17.41
-19.77
-23.26
-27.77
-32.87
-37.96
-42.30
-45.27
-46.53
-46.22
-44.94
-43.61
-43.14
-44.00
-46.01
-48.39
-50.10
-50.33
-48.88
-46.11
-42.68
-39.05
-35.14
-30.41
-24.20
-16.26
-7.00
2.57
11.29
18.43
24.21
29.74
36.59
46.11
58.75
73.64
88.65
100.82
106.97
104.43
91.80
69.49
40.10
8.17
-20.66
-41.12
-49.86
-46.58
-34.01
-16.93
-0.34
12.16
19.17
21.35
20.38
17.94
15.02
12.02
9.19
7.14
6.91
9.55
15.56
24.36
34.47
43.97
51.32
55.83
57.81
58.21
58.04
57.94
57.90
57.48
56.13
53.54
49.84
45.57
41.41
37.90
35.28
33.38
31.72
29.72
26.79
22.55
16.88
9.96
2.21
-5.75
-13.34
-20.12
-25.93
-30.81
-34.70
-37.31
-37.97
-35.87
-30.52
-22.18
-12.02
-1.74
7.11
13.72
18.32
21.88
25.50
29.87
35.02
40.47
45.57
49.72
52.44
53.31
52.01
48.55
43.38
37.44
31.86
27.40
24.10
21.29
17.97
13.36
7.27
0.09
-7.43
-14.54
-20.69
-25.46
-28.52
-29.57
-28.56
-25.88
-22.41
-19.43
-18.22
-19.68
-24.01
-30.75
-38.89
-47.14
-54.19
-58.91
-60.50
-58.56
-53.03
-44.03
-31.66
-15.94
3.01
24.55
47.17
68.53
85.97
97.32
101.64
99.26
91.33
79.05
63.11
43.77
21.37
-3.08
-27.77
-50.43
-68.97
-81.94
-88.57
-88.34
-80.71
-65.31
-42.59
-14.67
14.43
39.44
55.32
58.89
49.96
31.45
8.33
-13.98
-31.31
-41.70
-45.57
-45.11
-43.07
-41.81
-42.60
-45.57
-50.07
-55.20
-60.27
-64.80
-68.38
-70.54
-70.74
-68.73
-64.78
-59.75
-54.80
-50.85
-48.19
-46.33
-44.38
-41.56
-37.72
-33.48
-29.99
-28.40
-29.34
-32.46
-36.47
-39.48
-39.72
-36.13
-28.72
-18.34
-6.05
7.59
22.86
40.60
61.59
85.99
113.46
143.43
175.34
208.22
240.04
267.40
286.27
293.49
288.14
272.03
248.63
221.37
192.41
162.42
131.68
101.19
72.96
49.32
31.67
19.85
12.36
7.33
3.31
-0.37
-4.00
-7.76
-11.92
-16.59
-21.67
-26.77
-31.48
-35.50
-38.70
-41.00
-42.20
-42.10
-40.65
-38.15
-35.25
-32.72
-31.10
-30.45
-30.35
-30.15
-29.21
-27.28
-24.62
-21.91
-20.02
-19.68
-21.23
-24.56
-29.15
-34.21
-38.87
-42.34
-44.06
-43.87
-42.06
-39.39
-36.83
-35.20
-34.87
-35.65
-36.95
-38.11
-38.69
-38.56
-37.78
-36.44
-34.61
-32.48
-30.56
-29.70
-30.85
-34.67
-41.10
-49.28
-57.74
-64.85
-69.29
-70.39
-68.19
-63.41
-57.31
-51.37
-47.06
-45.37
-46.50
-49.71
-53.52
-56.14
-56.18
-53.09
-47.38
-40.39
-33.81
-29.07
-26.94
-27.41
-29.95
-33.83
-38.40
-43.25
-48.07
-52.48
-55.95
-57.92
-58.07
-56.62
-54.36
-52.35
-51.43
-51.84
-53.17
-54.67
-55.64
-55.54
-53.88
-50.06
-43.40
-33.53
-20.81
-6.61
7.02
18.02
25.01
27.70
26.72
23.16
18.08
12.41
7.08
3.29
2.55
6.30
15.37
29.40
46.61
64.20
79.14
89.22
93.87
94.14
92.07
89.52
87.29
84.78
80.65
73.75
64.13
53.25
43.57
37.59
36.97
41.95
51.39
63.20
74.89
84.11
89.08
88.74
82.85
72.03
57.62
41.50
25.74
12.30
2.65
-2.43
-3.01
0.03
5.22
10.76
14.93
16.43
14.68
9.91
2.95
-4.94
-12.56
-18.97
-23.68
-26.63
-28.07
-28.42
-28.14
-27.68
-27.44
-27.69
-28.58
-30.01
-31.56
-32.57
-32.34
-30.37
-26.67
-21.77
-16.68
-12.49
-9.99
-9.39
-10.31
-11.99
-13.66
-14.83
-15.26
-14.97
-14.04
-12.57
-10.68
-8.55
-6.41
-4.52
-3.13
-2.45
-2.72
-4.19
-7.05
-11.26
-16.39
-21.67
-26.15
-29.07
-30.12
-29.50
-27.80
-25.68
-23.68
-22.10
-21.03
-20.49
-20.48
-20.99
-22.02
-23.56
-25.57
-27.93
-30.43
-32.77
-34.59
-35.66
-35.85
-35.26
-34.08
-32.48
-30.53
-28.17
-25.29
-21.89
-18.14
-14.41
-11.15
-8.73
-7.28
-6.64
-6.45
-6.36
-6.14
-5.85
-5.75
-6.16
-7.28
-9.07
-11.29
-13.54
-15.35
-16.34
-16.25
-15.00
-12.82
-10.16
-7.65
-5.90
-5.28
-5.86
-7.36
-9.31
-11.28
-13.09
-14.80
-16.72
-19.16
-22.23
-25.74
-29.15
-31.83
-33.26
-33.24
-32.01
-30.04
-27.78
-25.48
-23.09
-20.50
-17.69
-14.85
-12.29
-10.17
-8.34
-6.26
-3.34
0.74
5.73
10.84
15.03
17.49
17.93
16.63
14.27
11.61
9.22
7.46
6.46
6.34
7.22
9.33
12.86
17.91
24.32
31.70
39.45
46.90
53.44
58.67
62.39
64.63
65.58
65.56
64.99
64.22
63.44
62.58
61.39
59.67
57.53
55.50
54.37
54.84
57.09
60.60
64.39
67.48
69.38
70.24
70.65
71.23
72.31
73.91
75.85
78.05
80.48
82.99
85.00
85.35
82.66
75.91
65.08
51.29
36.54
22.86
11.59
2.88
-4.07
-10.44
-17.01
-23.74
-29.95
-34.79
-37.86
-39.51
-40.64
-42.14
-44.50
-47.58
-50.93
-54.17
-57.28
-60.59
-64.55
-69.36
-74.87
-80.64
-86.21
-91.32
-95.94
-100.10
-103.73
-106.61
-108.36
-108.69
-107.54
-105.16
-102.02
-98.70
-95.56
-92.74
-90.11
-87.43
-84.53
-81.38
-78.04
-74.55
-70.76
-66.41
-61.24
-55.07
-47.95
-40.02
-31.47
-22.42
-13.00
-3.40
5.98
14.58
21.80
27.22
30.81
32.97
34.35
35.63
37.17
38.88
40.32
40.99
40.61
39.37
37.85
36.69
36.23
36.34
36.49
35.98
34.39
31.67
28.19
24.55
21.27
18.66
16.73
15.26
13.98
12.65
11.20
9.72
8.49
7.86
8.19
9.70
12.30
15.57
18.79
21.13
21.97
21.13
18.94
16.12
13.52
11.75
11.13
11.66
13.18
15.44
18.19
21.04
23.46
24.85
24.78
23.19
20.47
17.31
14.41
12.18
10.59
9.31
7.94
6.20
4.07
1.70
-0.68
-2.92
-4.89
-6.50
-7.68
-8.43
-8.95
-9.62
-10.83
-12.78
-15.22
-17.46
-18.59
-17.86
-14.93
-10.12
-4.22
1.83
7.27
11.66
14.88
16.94
17.81
17.39
15.51
12.12
7.44
2.02
-3.31
-7.53
-9.41
-7.60
-0.87
11.33
28.28
47.62
65.84
79.34
85.93
85.76
81.25
75.97
72.91
73.37
76.59
80.69
83.70
84.29
81.82
75.91
66.45
53.97
40.26
28.27
21.65
23.81
37.04
62.01
97.39
139.82
184.01
223.66
253.09
269.15
272.57
267.74
260.83
256.97
257.98
261.75
263.47
258.19
242.97
217.82
185.11
148.20
110.03
72.50
36.47
2.21
-30.06
-60.08
-87.70
-113.24
-137.50
-161.27
-184.71
-206.76
-225.39
-238.44
-244.78
-244.91
-240.96
-235.72
-231.66
-230.16
-231.32
-234.21
-237.45
-239.69
-239.93
-237.71
-233.01
-226.11
-217.28
-206.64
-194.02
-179.19
-162.09
-143.04
-122.76
-102.15
-81.94
-62.54
-44.00
-26.19
-9.10
7.08
22.07
35.74
48.40
60.72
73.42
86.97
101.33
116.16
131.08
145.97
160.76
175.17
188.11
197.59
201.09
196.42
182.57
160.25
131.68
99.93
68.03
38.43
12.76
-7.99
-23.34
-33.23
-38.14
-39.07
-37.57
-35.25
-33.50
-33.07
-34.03
-35.87
-37.85
-39.21
-39.38
-38.10
-35.52
-32.02
-28.13
-24.39
-21.21
-18.81
-17.18
-16.22
-15.78
-15.76
-16.18
-17.13
-18.74
-21.06
-24.03
-27.52
-31.35
-35.42
-39.66
-43.98
-48.19
-51.94
-54.86
-56.68
-57.42
-57.46
-57.39
-57.73
-58.79
-60.53
-62.74
-65.13
-67.54
-69.96
-72.53
-75.46
-78.87
-82.76
-86.96
-91.22
-95.34
-99.25
-103.08
-106.99
-111.07
-115.29
-119.48
-123.38
-126.66
-128.95
-129.82
-128.79
-125.46
-119.62
-111.31
-100.91
-88.95
-76.02
-62.65
-49.26
-36.28
-24.19
-13.47
-4.49
2.63
8.11
12.32
15.66
18.38
20.67
22.75
24.97
27.71
31.22
35.30
39.29
42.19
43.06
41.36
37.11
30.91
23.82
17.27
13.01
12.84
18.13
29.23
44.99
62.87
79.65
92.45
99.71
101.39
98.65
93.01
85.66
77.19
67.79
57.64
47.21
37.16
28.06
20.10
13.05
6.42
-0.21
-7.06
-14.20
-21.51
-28.80
-35.55
-41.05
-44.41
-45.05
-42.97
-39.00
-34.45
-30.57
-27.99
-26.41
-24.91
-22.56
-18.92
-14.14
-8.69
-2.88
3.48
11.04
20.45
31.93
45.00
58.53
71.28
82.38
91.77
100.08
108.04
115.90
123.11
128.58
131.27
130.78
127.50
122.12
114.84
104.83
90.44
70.10
43.55
12.58
-19.20
-47.60
-69.61
-84.47
-93.79
-100.52
-107.45
-116.01
-125.92
-135.73
-143.83
-149.02
-150.53
-147.53
-138.83
-123.21
-100.44
-72.14
-41.94
-14.49
6.09
17.79
21.11
18.38
12.62
6.38
1.35
-1.44
-1.32
2.23
9.40
19.82
32.48
45.88
58.26
67.99
73.94
75.79
74.22
70.86
67.83
66.98
69.10
73.85
80.25
87.59
95.88
105.63
116.92
128.67
138.71
144.95
146.83
146.07
145.82
148.75
155.33
163.63
170.81
175.41
178.45
182.49
189.14
196.86
200.82
195.32
177.05
147.39
111.89
77.50
49.23
28.25
12.33
-2.03
-17.37
-34.16
-51.09
-66.25
-78.14
-86.14
-90.38
-91.44
-90.07
-86.95
-82.73
-78.08
-73.66
-70.15
-68.12
-67.69
-68.28
-68.62
-67.10
-62.50
-54.69
-44.89
-35.44
-28.95
-27.42
-31.44
-39.97
-50.62
-60.47
-67.07
-69.31
-67.78
-64.41
-61.62
-61.31
-64.12
-69.48
-76.05
-82.49
-87.97
-92.23
-95.26
-96.98
-97.09
-95.27
-91.46
-86.02
-79.61
-72.91
-66.32
-59.93
-53.80
-48.23
-43.82
-41.34
-41.24
-43.40
-47.06
-51.23
-55.19
-58.81
-62.56
-67.12
-72.95
-79.90
-87.30
-94.18
-99.66
-103.26
-104.98
-105.16
-104.26
-102.51
-99.75
-95.57
-89.34
-80.67
-69.46
-56.04
-41.08
-25.37
-9.71
5.06
18.16
28.92
36.92
42.31
45.92
49.07
53.08
58.72
65.69
72.72
78.08
80.36
79.30
76.03
72.66
71.40
73.65
79.48
87.77
96.92
105.54
112.97
119.11
123.96
127.13
127.66
124.42
116.80
105.24
91.39
77.55
65.77
57.09
51.26
47.20
43.69
40.09
36.53
33.46
31.04
28.66
25.02
18.70
8.88
-4.21
-19.34
-34.76
-48.77
-60.24
-68.70
-74.28
-77.46
-78.84
-79.08
-78.75
-78.25
-77.66
-76.70
-74.84
-71.52
-66.53
-60.20
-53.33
-46.83
-41.27
-36.60
-32.25
-27.57
-22.33
-16.89
-11.99
-8.20
-5.52
-3.37
-0.95
2.24
6.03
9.77
12.75
14.72
15.94
16.99
18.31
19.87
21.20
21.70
21.09
19.51
17.54
15.79
14.56
13.71
12.70
10.94
8.16
4.61
0.96
-1.90
-3.26
-2.82
-0.74
2.43
6.09
9.77
13.41
17.38
22.43
29.40
38.90
50.98
64.93
79.33
92.42
102.62
109.01
111.57
111.07
108.55
104.86
100.33
94.83
88.14
80.34
72.05
64.35
58.40
55.11
54.86
57.49
62.22
67.63
71.54
71.15
63.53
46.57
20.02
-13.94
-51.03
-85.99
-114.17
-132.89
-141.84
-142.63
-137.77
-129.64
-119.93
-109.61
-99.30
-89.52
-80.78
-73.46
-67.68
-63.27
-59.96
-57.64
-56.44
-56.71
-58.69
-62.24
-66.61
-70.47
-72.30
-70.87
-65.84
-57.97
-49.01
-41.12
-36.06
-34.60
-36.26
-39.56
-42.69
-44.20
-43.47
-40.66
-36.40
-31.25
-25.35
-18.44
-10.21
-0.67
9.59
19.47
27.85
33.94
37.65
39.55
40.56
41.64
43.40
46.08
49.49
53.23
56.86
59.96
62.19
63.26
62.94
61.11
57.85
53.43
48.28
42.81
37.20
31.30
24.75
17.25
8.80
-0.11
-8.68
-16.07
-21.75
-25.63
-27.95
-29.08
-29.28
-28.63
-27.07
-24.57
-21.22
-17.27
-12.94
-8.31
-3.28
2.35
8.63
15.29
21.69
27.01
30.49
31.74
30.90
28.52
25.37
22.17
19.39
17.16
15.35
13.75
12.26
10.95
10.04
9.64
9.64
9.57
8.78
6.68
3.14
-1.47
-6.36
-10.63
-13.65
-15.22
-15.49
-14.69
-13.00
-10.36
-6.74
-2.21
2.93
8.21
13.29
18.10
22.88
27.94
33.36
38.85
43.75
47.31
48.99
48.63
46.43
42.73
37.83
31.91
25.07
17.51
9.60
1.90
-4.99
-10.55
-14.53
-17.02
-18.49
-19.71
-21.51
-24.55
-29.11
-34.92
-41.22
-46.95
-51.08
-52.84
-51.89
-48.23
-42.12
-33.85
-23.88
-12.83
-1.62
8.67
17.09
23.13
27.04
29.60
31.73
33.99
36.34
38.21
38.94
38.21
36.20
33.46
30.55
27.75
24.93
21.77
17.95
13.41
8.28
2.82
-2.73
-8.23
-13.59
-18.69
-23.36
-27.32
-30.29
-32.01
-32.30
-31.09
-28.42
-24.39
-19.16
-12.95
-6.03
1.23
8.45
15.22
21.21
26.19
30.04
32.71
34.24
34.74
34.41
33.54
32.45
31.42
30.63
30.13
29.91
29.96
30.30
31.02
32.15
33.68
35.54
37.55
39.44
40.79
41.04
39.56
35.89
29.93
22.13
13.27
4.19
-4.62
-13.19
-21.90
-31.15
-41.00
-51.00
-60.39
-68.42
-74.72
-79.34
-82.76
-85.50
-87.95
-90.26
-92.32
-93.82
-94.32
-93.32
-90.33
-84.92
-76.86
-66.19
-53.31
-38.98
-24.31
-10.46
1.52
11.07
18.24
23.73
28.54
33.49
38.68
43.27
45.74
44.63
39.35
30.67
20.57
11.38
4.86
1.72
1.71
4.27
9.09
16.22
25.63
36.56
47.42
56.32
62.01
64.75
66.46
69.90
77.34
89.45
104.95
121.30
135.98
147.73
156.99
165.37
174.49
184.80
195.27
203.83
208.64
209.15
206.44
202.75
200.34
200.52
203.34
207.97
213.51
219.66
226.74
235.14
244.57
253.65
260.11
261.50
256.24
244.23
227.04
207.46
188.65
173.26
162.73
156.92
154.31
152.41
148.33
139.55
124.25
101.50
71.10
33.34
-10.90
-59.84
-110.57
-159.27
-202.10
-236.56
-262.69
-283.27
-302.93
-326.34
-356.42
-393.37
-434.98
-477.82
-518.65
-555.11
-585.61
-608.83
-623.42
-627.81
-620.69
-601.28
-569.17
-524.36
-467.04
-397.55
-316.85
-227.33
-133.95
-44.48
31.70
86.71
117.53
128.35
129.68
134.50
152.96
188.18
235.43
284.96
326.66
354.04
365.91
365.28
357.06
346.11
336.25
330.20
329.54
334.23
342.04
348.70
348.62
336.20
307.61
262.03
202.32
134.68
67.36
8.64
-35.47
-62.64
-74.57
-75.78
-71.77
-67.14
-64.46
-64.08
-64.51
-63.45
-58.88
-50.14
-38.68
-28.21
-23.79
-30.09
-49.24
-79.54
-115.74
-150.86
-178.76
-196.14
-203.12
-202.22
-196.74
-189.25
-181.07
-172.54
-163.62
-154.34
-144.78
-134.98
-124.82
-114.13
-102.85
-91.24
-79.85
-69.32
-60.29
-53.26
-48.42
-45.62
-44.32
-43.74
-43.10
-41.79
-39.59
-36.75
-33.87
-31.57
-30.30
-30.09
-30.63
-31.40
-31.92
-31.96
-31.64
-31.29
-31.33
-32.00
-33.19
-34.54
-35.55
-35.81
-35.19
-33.90
-32.37
-31.09
-30.34
-30.11
-30.10
-29.94
-29.37
-28.43
-27.42
-26.70
-26.51
-26.85
-27.40
-27.67
-27.15
-25.39
-22.06
-17.04
-10.43
-2.67
5.48
13.09
19.20
23.16
24.69
24.00
21.63
18.21
14.28
10.14
5.90
1.62
-2.60
-6.50
-9.78
-12.21
-13.75
-14.53
-14.79
-14.70
-14.34
-13.60
-12.31
-10.39
-7.93
-5.22
-2.71
-0.87
-0.02
-0.19
-1.06
-1.97
-2.10
-0.69
2.70
7.91
14.28
20.64
25.76
28.61
28.65
25.99
21.17
15.05
8.41
1.77
-4.75
-11.38
-18.57
-26.73
-36.03
-46.40
-57.59
-69.28
-81.23
-93.25
-105.25
-117.17
-129.04
-140.93
-152.88
-164.66
-175.61
-184.62
-190.38
-191.79
-188.42
-180.55
-168.97
-154.61
-138.17
-119.95
-99.91
-77.89
-53.74
-27.41
0.97
31.00
61.72
91.55
118.30
139.54
153.33
158.89
156.97
149.70
139.86
129.90
121.30
114.39
108.67
103.33
97.47
90.20
80.73
68.60
54.15
38.86
25.24
16.13
13.64
18.37
29.21
43.98
60.25
75.97
89.63
100.09
106.46
108.30
106.01
101.02
95.60
92.06
91.79
94.77
99.51
103.79
105.78
104.96
102.37
100.13
100.45
104.50
111.70
119.77
125.49
125.96
119.68
107.09
90.18
71.55
53.10
35.13
16.21
-6.25
-34.75
-70.45
-111.99
-155.46
-195.18
-225.20
-241.14
-241.20
-226.16
-198.32
-160.66
-116.66
-70.48
-26.77
10.42
39.16
60.52
77.86
94.81
113.12
131.64
147.07
155.93
156.11
147.31
130.08
104.69
71.02
29.46
-17.65
-65.52
-107.79
-138.65
-154.97
-157.07
-148.54
-134.90
-121.83
-113.59
-111.90
-115.93
-123.03
-130.03
-134.54
-135.61
-133.64
-129.55
-123.92
-116.44
-106.19
-92.55
-76.04
-58.79
-43.94
-34.44
-31.66
-34.74
-41.07
-47.36
-51.07
-51.13
-48.08
-43.53
-39.37
-37.09
-37.23
-39.26
-41.66
-42.49
-40.15
-34.02
-24.65
-13.27
-0.81
12.77
28.67
48.64
74.15
105.66
142.04
180.36
215.92
243.08
256.85
255.08
239.89
217.54
196.19
182.65
179.60
184.97
193.77
200.94
203.59
201.43
195.31
185.50
170.87
149.71
121.30
87.14
50.80
16.61
-12.03
-33.75
-49.24
-60.40
-69.18
-76.67
-82.84
-86.88
-87.83
-85.32
-79.87
-72.83
-65.91
-60.53
-57.41
-56.42
-56.81
-57.64
-58.24
-58.53
-58.91
-60.13
-62.94
-67.96
-75.49
-85.41
-97.16
-109.58
-120.97
-129.30
-132.64
-129.74
-120.44
-105.83
-88.01
-69.52
-52.73
-39.30
-29.99
-24.75
-22.88
-23.37
-24.96
-26.18
-25.43
-21.27
-12.93
-0.69
13.99
28.96
42.10
52.09
58.68
62.55
64.60
65.51
65.40
64.10
61.47
57.72
53.35
48.91
44.72
40.82
36.99
33.03
28.81
24.37
19.80
15.18
10.58
5.94
1.23
-3.57
-8.33
-12.69
-16.17
-18.27
-18.62
-17.16
-14.15
-10.12
-5.74
-1.77
1.15
2.61
2.58
1.45
-0.06
-1.11
-1.04
0.34
2.73
5.44
7.70
8.91
8.85
7.57
5.38
2.55
-0.75
-4.53
-8.87
-13.90
-19.64
-25.93
-32.38
-38.29
-42.71
-44.55
-42.85
-37.08
-27.43
-14.82
-0.61
13.90
27.87
41.05
53.51
65.28
75.96
84.85
91.23
94.72
95.54
94.42
92.32
90.10
88.30
87.16
86.64
86.59
86.78
86.94
86.73
85.75
83.48
79.38
72.86
63.51
51.28
36.60
20.46
4.15
-11.02
-24.01
-34.22
-41.56
-46.25
-48.74
-49.54
-49.17
-48.10
-46.71
-45.17
-43.46
-41.46
-39.05
-36.24
-33.18
-30.07
-27.05
-24.16
-21.45
-19.00
-17.00
-15.61
-14.88
-14.70
-14.81
-14.99
-15.18
-15.52
-16.21
-17.43
-19.18
-21.34
-23.72
-26.12
-28.43
-30.53
-32.26
-33.44
-33.86
-33.35
-31.88
-29.60
-26.84
-24.04
-21.67
-20.08
-19.42
-19.66
-20.61
-21.90
-23.11
-23.71
-23.19
-21.23
-17.84
-13.47
-8.81
-4.54
-0.96
2.17
5.50
9.69
15.07
21.35
27.81
33.53
37.72
39.93
40.07
38.32
35.04
30.73
25.98
21.42
17.56
14.73
12.98
12.18
12.15
12.69
13.63
14.80
16.01
17.07
17.88
18.50
19.05
19.70
20.47
21.30
22.03
22.56
22.95
23.39
24.12
25.36
27.15
29.37
31.79
34.10
35.97
37.07
37.15
36.12
34.12
31.46
28.39
24.92
20.66
14.98
7.43
-1.90
-12.23
-22.26
-30.72
-36.85
-40.51
-42.13
-42.25
-41.22
-39.12
-35.87
-31.61
-26.82
-22.31
-18.99
-17.54
-18.24
-21.01
-25.59
-31.70
-39.09
-47.57
-56.78
-66.24
-75.30
-83.27
-89.50
-93.46
-94.76
-93.17
-88.64
-81.31
-71.57
-60.05
-47.53
-34.86
-22.84
-12.11
-3.10
4.05
9.53
13.70
17.05
19.95
22.52
24.55
25.66
25.52
24.10
21.76
19.18
17.05
15.87
15.76
16.51
17.83
19.44
21.23
23.15
25.04
26.64
27.70
28.17
28.33
28.69
29.65
31.28
33.19
34.73
35.33
34.84
33.61
32.30
31.61
31.92
33.24
35.22
37.48
39.81
42.30
45.27
49.05
53.84
59.49
65.62
71.65
76.86
80.41
81.43
79.05
72.72
62.54
49.41
34.99
21.34
10.31
3.01
-0.38
-0.49
1.62
4.89
8.55
12.19
15.69
19.09
22.51
26.00
29.46
32.48
34.36
34.23
31.41
25.74
17.77
8.65
-0.25
-7.82
-13.50
-17.35
-19.79
-21.35
-22.40
-23.07
-23.33
-23.06
-22.12
-20.32
-17.43
-13.26
-7.73
-0.96
6.64
14.49
21.89
28.30
33.40
37.21
40.05
42.33
44.34
46.03
46.97
46.47
43.84
38.73
31.40
22.67
13.70
5.65
-0.64
-4.77
-6.76
-6.88
-5.51
-3.11
-0.20
2.59
4.53
4.99
3.52
0.03
-5.25
-11.82
-19.12
-26.58
-33.70
-40.04
-45.15
-48.65
-50.31
-50.05
-48.11
-44.94
-41.15
-37.39
-34.13
-31.66
-30.02
-29.04
-28.45
-27.92
-27.21
-26.10
-24.47
-22.25
-19.54
-16.59
-13.81
-11.63
-10.33
-9.90
-10.00
-10.20
-10.19
-9.99
-9.97
-10.60
-12.19
-14.66
-17.58
-20.33
-22.37
-23.37
-23.17
-21.70
-18.97
-15.03
-10.08
-4.40
1.64
7.76
13.75
19.42
24.50
28.64
31.41
32.46
31.63
28.99
24.78
19.35
13.10
6.38
-0.36
-6.73
-12.40
-17.16
-21.07
-24.34
-27.30
-30.21
-33.15
-36.04
-38.68
-40.97
-42.90
-44.58
-46.06
-47.24
-47.82
-47.40
-45.66
-42.60
-38.44
-33.62
-28.53
-23.45
-18.59
-14.16
-10.54
-8.13
-7.31
-8.12
-10.26
-13.09
-15.91
-18.23
-19.87
-21.10
-22.35
-24.05
-26.38
-29.16
-31.99
-34.42
-36.23
-37.55
-38.92
-41.06
-44.59
-49.77
-56.29
-63.29
-69.54
-73.61
-74.21
-70.42
-61.91
-49.09
-33.13
-15.77
1.12
15.93
27.74
36.36
42.21
46.01
48.42
49.95
50.87
51.29
51.21
50.51
48.99
46.48
43.03
38.92
34.75
31.17
28.69
27.44
27.16
27.31
27.24
26.41
24.43
21.19
16.81
11.78
6.83
2.86
0.71
0.90
3.45
7.91
13.51
19.46
25.19
30.40
35.04
39.13
42.59
45.27
46.91
47.35
46.53
44.63
41.88
38.56
34.92
31.11
27.24
23.45
19.88
16.72
14.12
12.11
10.56
9.15
7.51
5.33
2.43
-1.06
-4.84
-8.44
-11.37
-13.21
-13.60
-12.35
-9.42
-4.98
0.49
6.28
11.64
15.93
18.86
20.54
21.45
22.24
23.54
25.85
29.43
34.31
40.26
46.83
53.50
59.79
65.49
70.68
75.66
80.69
85.74
90.37
93.82
95.29
94.27
90.80
85.51
79.37
73.34
68.05
63.68
59.92
56.22
52.01
46.92
40.83
33.93
26.55
18.90
10.97
2.60
-6.28
-15.32
-23.62
-29.95
-33.28
-33.33
-30.82
-27.16
-23.86
-21.79
-21.03
-21.01
-21.24
-21.73
-23.10
-26.18
-31.47
-38.77
-47.19
-55.52
-62.74
-68.31
-72.34
-75.36
-78.13
-81.34
-85.40
-90.38
-95.89
-101.12
-104.94
-106.27
-104.48
-99.74
-93.06
-85.94
-79.78
-75.32
-72.41
-70.23
-67.89
-64.92
-61.47
-58.04
-55.03
-52.34
-49.37
-45.37
-39.98
-33.57
-27.30
-22.68
-21.08
-23.25
-29.07
-37.68
-47.76
-57.89
-66.94
-74.21
-79.45
-82.69
-84.17
-84.27
-83.51
-82.57
-82.18
-82.85
-84.68
-87.16
-89.40
-90.33
-89.09
-85.24
-78.83
-70.27
-60.27
-49.78
-39.79
-31.18
-24.48
-19.60
-15.96
-12.72
-9.23
-5.32
-1.32
2.26
5.12
7.51
10.12
13.87
19.40
26.80
35.50
44.48
52.65
59.17
63.63
66.07
66.83
66.28
64.80
62.74
60.51
58.63
57.61
57.75
58.93
60.52
61.56
61.16
58.83
54.68
49.33
43.69
38.54
34.26
30.76
27.63
24.38
20.76
16.91
13.29
10.49
8.86
8.43
8.97
10.31
12.62
16.46
22.49
30.90
41.06
51.44
60.13
65.52
66.95
64.90
60.67
55.90
52.00
49.89
49.88
51.80
55.10
59.04
62.83
65.79
67.44
67.55
66.10
63.16
58.89
53.60
47.74
41.90
36.67
32.46
29.51
27.79
27.22
27.59
28.59
29.68
30.15
29.22
26.37
21.49
14.93
7.30
-0.81
-9.05
-17.34
-25.73
-34.20
-42.57
-50.59
-57.96
-64.52
-70.21
-75.05
-79.09
-82.33
-84.80
-86.52
-87.55
-87.95
-87.73
-86.90
-85.56
-83.89
-82.15
-80.56
-79.12
-77.53
-75.15
-71.22
-65.20
-57.08
-47.52
-37.76
-29.02
-21.91
-15.93
-9.69
-1.55
9.46
22.94
37.29
50.45
60.80
67.80
72.04
74.78
77.61
82.24
90.43
103.60
121.94
143.47
163.72
176.73
177.14
162.46
134.42
98.34
61.24
29.16
5.42
-9.85
-18.78
-24.24
-28.63
-33.23
-38.39
-43.94
-49.57
-55.01
-59.96
-63.99
-66.60
-67.27
-65.70
-61.99
-56.60
-50.24
-43.68
-37.44
-31.83
-26.88
-22.55
-18.83
-15.89
-14.05
-13.62
-14.77
-17.24
-20.39
-23.40
-25.65
-27.03
-27.97
-29.08
-30.81
-33.15
-35.68
-37.93
-39.75
-41.50
-43.86
-47.62
-53.38
-61.48
-71.75
-83.13
-93.34
-99.11
-97.06
-85.09
-63.61
-35.69
-6.01
21.03
42.97
59.79
73.04
84.37
94.29
102.00
106.21
106.28
102.77
97.14
90.88
84.61
77.92
69.85
59.69
47.66
34.86
22.78
12.44
3.85
-3.91
-12.08
-21.25
-30.85
-39.10
-43.73
-42.86
-35.82
-23.47
-7.81
8.63
23.61
35.63
44.21
49.63
52.61
53.86
53.87
52.76
50.44
46.79
41.93
36.30
30.61
25.64
21.98
19.90
19.30
19.82
21.06
22.74
24.77
27.13
29.84
32.68
35.23
36.88
37.04
35.40
32.11
27.78
23.22
19.16
15.93
13.33
10.71
7.27
2.35
-4.30
-12.44
-21.41
-30.36
-38.57
-45.60
-51.40
-56.18
-60.27
-63.90
-67.24
-70.35
-73.19
-75.62
-77.33
-77.84
-76.57
-73.15
-67.63
-60.60
-53.05
-46.02
-40.27
-36.08
-33.36
-31.80
-31.09
-30.96
-31.21
-31.71
-32.47
-33.75
-35.98
-39.51
-44.15
-48.99
-52.58
-53.40
-50.48
-43.57
-33.16
-20.13
-5.48
9.64
23.95
36.19
45.58
52.45
58.46
66.08
77.44
93.02
111.14
128.55
141.80
148.68
148.90
143.82
135.63
126.58
118.52
112.87
110.68
112.50
118.16
126.54
135.84
143.96
149.14
150.29
147.14
140.15
130.21
118.52
106.27
94.42
83.44
73.26
63.50
53.79
44.14
34.92
26.67
19.68
13.81
8.44
2.90
-3.21
-9.74
-16.00
-21.17
-24.60
-26.26
-26.67
-26.67
-27.08
-28.39
-30.66
-33.73
-37.43
-41.63
-46.27
-51.10
-55.62
-59.09
-60.77
-60.25
-57.58
-53.27
-48.08
-42.73
-37.75
-33.39
-29.61
-26.21
-22.91
-19.45
-15.73
-11.98
-8.79
-6.92
-7.20
-10.05
-15.42
-22.74
-31.08
-39.47
-46.99
-52.90
-56.56
-57.48
-55.45
-50.69
-43.93
-36.32
-29.07
-23.16
-19.04
-16.62
-15.43
-14.90
-14.64
-14.47
-14.37
-14.36
-14.39
-14.39
-14.24
-13.90
-13.38
-12.82
-12.42
-12.42
-13.06
-14.52
-16.84
-19.93
-23.54
-27.30
-30.72
-33.27
-34.52
-34.18
-32.22
-28.87
-24.54
-19.69
-14.68
-9.76
-5.04
-0.59
3.49
7.08
10.00
12.12
13.34
13.66
13.17
12.08
10.66
9.19
7.82
6.50
4.93
2.67
-0.67
-5.30
-11.12
-17.84
-24.98
-32.14
-38.96
-45.15
-50.44
-54.59
-57.46
-59.09
-59.74
-59.84
-59.72
-59.53
-59.10
-58.18
-56.69
-54.94
-53.58
-53.23
-53.99
-55.15
-55.37
-53.28
-48.32
-41.21
-33.85
-28.62
-27.28
-30.19
-35.99
-41.85
-44.19
-39.61
-25.87
-2.91
26.88
59.05
88.42
110.78
124.23
129.58
129.54
127.24
124.93
123.30
121.52
117.71
109.59
95.02
72.78
43.34
9.24
-25.13
-54.69
-75.35
-85.42
-86.06
-80.47
-72.52
-65.36
-60.65
-58.68
-58.91
-60.69
-63.58
-67.40
-72.02
-77.12
-82.03
-85.95
-88.18
-88.49
-87.36
-85.69
-84.42
-84.07
-84.42
-84.64
-83.65
-80.49
-74.60
-65.97
-54.96
-42.02
-27.54
-11.74
5.10
22.28
38.54
52.18
61.68
66.42
66.95
64.75
61.38
58.00
55.20
53.68
54.87
60.73
72.81
90.96
113.12
136.23
157.85
176.94
193.45
206.87
215.00
214.10
200.41
172.37
131.99
84.51
36.86
-4.37
-34.36
-50.73
-53.49
-44.91
-29.01
-10.66
5.62
16.96
22.66
23.74
21.75
18.05
13.35
8.08
2.78
-1.84
-5.14
-7.12
-8.42
-10.10
-12.92
-16.93
-21.46
-25.45
-28.19
-29.53
-30.04
-30.54
-31.66
-33.51
-35.66
-37.52
-38.66
-39.16
-39.63
-40.95
-43.82
-48.37
-54.03
-59.80
-64.89
-69.09
-72.94
-77.20
-82.24
-87.44
-91.41
-92.62
-90.32
-84.82
-77.15
-68.42
-59.77
-52.92
-50.81
-57.27
-75.40
-105.10
-141.69
-176.65
-200.89
-208.60
-199.62
-178.99
-153.86
-129.94
-109.39
-91.40
-74.23
-57.23
-41.39
-28.27
-18.55
-11.30
-4.72
2.58
10.33
16.64
18.98
15.72
7.07
-5.04
-17.90
-29.30
-38.29
-45.21
-50.95
-55.85
-59.08
-58.58
-51.57
-35.50
-8.90
28.12
73.70
124.41
175.48
221.46
257.03
278.14
283.34
274.91
259.07
244.65
240.37
251.63
278.12
313.51
347.39
368.70
369.36
346.57
303.17
246.13
184.06
124.69
73.34
32.34
1.59
-20.51
-36.10
-47.25
-55.74
-62.99
-70.14
-77.90
-86.33
-94.73
-101.84
-106.48
-108.07
-107.03
-104.62
-102.41
-101.66
-102.62
-104.53
-105.90
-105.24
-101.79
-95.92
-89.05
-83.09
-79.60
-79.20
-81.36
-84.68
-87.45
-88.27
-86.42
-82.03
-75.86
-69.00
-62.44
-56.73
-51.90
-47.58
-43.27
-38.63
-33.61
-28.46
-23.53
-19.09
-15.22
-11.82
-8.75
-5.90
-3.25
-0.91
1.01
2.44
3.39
3.83
3.63
2.51
0.13
-3.72
-8.94
-15.02
-21.23
-27.01
-32.22
-37.30
-43.05
-50.14
-58.83
-68.91
-80.10
-92.55
-107.08
-124.91
-146.83
-172.20
-198.36
-221.00
-235.24
-237.22
-225.33
-200.34
-164.61
-121.12
-72.80
-22.71
25.44
67.30
98.58
116.66
121.73
116.99
107.34
97.46
90.15
85.94
83.86
82.81
82.39
82.87
84.45
86.56
87.79
86.52
81.76
73.63
63.20
51.93
41.06
31.38
23.36
17.49
14.35
14.48
17.93
24.00
31.32
38.30
43.61
46.60
47.27
46.10
43.76
41.03
38.69
37.40
37.68
39.72
43.39
48.24
53.55
58.39
61.68
62.30
59.48
53.26
44.61
35.33
27.38
22.06
19.64
19.43
20.36
21.60
22.90
24.40
26.19
27.87
28.55
27.19
22.97
15.65
5.47
-6.91
-20.64
-34.60
-47.56
-58.32
-66.04
-70.51
-72.13
-71.66
-69.92
-67.51
-64.89
-62.44
-60.27
-57.79
-53.50
-45.20
-31.04
-10.71
13.84
38.95
60.79
77.22
88.53
96.87
104.44
111.83
117.49
118.73
113.51
101.84
86.05
69.54
55.09
43.58
33.80
23.46
10.61
-5.12
-22.17
-37.72
-48.86
-53.89
-52.94
-47.80
-40.99
-34.59
-29.41
-24.82
-19.26
-11.23
-0.10
13.53
28.11
41.94
53.80
63.44
71.42
78.66
86.03
93.99
102.62
111.68
120.76
129.34
136.79
142.54
146.12
147.33
146.32
143.72
140.67
138.68
139.22
142.95
149.05
155.09
157.91
155.15
146.80
135.48
125.18
119.04
117.63
118.74
118.86
115.42
108.19
99.16
91.05
85.58
82.73
81.15
79.46
77.14
74.73
73.06
72.21
71.08
67.75
60.31
47.85
31.06
12.04
-6.45
-22.10
-34.06
-43.23
-51.84
-62.31
-76.11
-93.06
-111.46
-128.90
-143.22
-153.29
-159.11
-161.40
-161.10
-158.92
-155.25
-150.29
-144.27
-137.46
-130.28
-123.16
-116.47
-110.47
-105.16
-100.23
-95.19
-89.53
-83.07
-76.17
-69.58
-64.11
-60.24
-57.80
-56.10
-54.33
-52.02
-49.30
-46.76
-45.08
-44.58
-45.06
-45.90
-46.29
-45.61
-43.66
-40.67
-37.22
-33.96
-31.39
-29.70
-28.78
-28.43
-28.54
-29.28
-31.03
-34.17
-38.78
-44.44
-50.31
-55.45
-59.24
-61.62
-63.09
-64.52
-66.75
-70.39
-75.69
-82.57
-90.62
-99.16
-107.32
-114.23
-119.32
-122.43
-123.94
-124.42
-124.35
-123.83
-122.61
-120.32
-116.76
-112.08
-106.68
-100.99
-95.29
-89.64
-83.98
-78.10
-71.67
-64.22
-55.23
-44.33
-31.46
-16.94
-1.28
15.04
31.65
48.17
63.89
77.65
88.03
93.88
94.99
92.36
88.05
84.37
82.91
84.00
86.58
88.76
88.72
85.62
79.92
73.30
67.90
65.43
66.59
70.95
77.20
83.80
89.42
93.18
94.66
93.73
90.39
84.62
76.32
65.25
51.10
33.66
12.89
-10.75
-36.09
-61.15
-83.32
-99.93
-108.93
-109.73
-103.58
-93.33
-82.55
-74.28
-70.02
-69.46
-70.97
-72.63
-73.18
-72.36
-70.61
-68.35
-65.43
-61.08
-54.32
-44.60
-32.30
-18.69
-5.45
6.07
15.36
22.84
29.38
35.71
41.85
47.02
50.03
50.02
46.98
41.92
36.48
32.07
29.30
27.78
26.50
24.56
21.71
18.48
15.78
14.40
14.61
16.21
18.83
22.25
26.46
31.60
37.73
44.83
52.86
61.72
71.22
80.92
90.12
98.20
104.92
110.55
115.65
120.56
124.94
127.96
128.74
127.02
123.45
119.22
115.38
112.34
109.69
106.60
102.20
95.76
86.62
74.16
57.88
37.77
14.71
-9.63
-33.15
-54.04
-71.27
-84.68
-94.76
-102.26
-107.84
-112.09
-115.55
-118.81
-122.38
-126.58
-131.38
-136.34
-140.73
-143.71
-144.61
-143.14
-139.54
-134.39
-128.32
-121.65
-114.16
-105.05
-93.34
-78.23
-59.61
-38.17
-15.37
7.04
27.49
44.93
58.94
69.54
76.98
81.54
83.62
83.70
82.37
79.96
76.28
70.39
60.88
46.58
27.32
4.41
-19.60
-41.70
-59.49
-71.84
-79.03
-82.23
-82.79
-81.64
-79.06
-74.82
-68.70
-60.84
-51.96
-43.22
-35.94
-31.19
-29.55
-30.76
-33.64
-36.09
-35.48
-29.39
-16.72
1.58
22.43
41.79
56.42
65.66
71.92
79.50
92.26
111.40
134.47
156.45
172.04
177.98
174.14
162.99
147.95
131.76
115.82
100.52
86.09
73.32
63.38
57.11
54.25
53.15
51.31
46.36
37.07
23.98
9.10
-4.89
-15.65
-22.05
-24.36
-23.95
-22.59
-21.77
-22.21
-23.91
-26.42
-29.19
-31.89
-34.47
-37.09
-39.96
-43.22
-46.85
-50.69
-54.52
-58.14
-61.39
-64.22
-66.61
-68.56
-70.14
-71.52
-73.04
-75.17
-78.39
-82.91
-88.48
-94.40
-99.73
-103.74
-106.23
-107.54
-108.17
-108.29
-107.35
-104.20
-97.49
-86.16
-69.79
-48.70
-23.90
2.96
29.60
53.38
71.90
83.78
89.17
89.71
87.73
85.16
82.67
79.62
74.54
65.93
52.78
34.69
11.96
-14.25
-41.73
-67.18
-86.94
-98.12
-99.77
-93.33
-82.01
-69.47
-58.44
-50.09
-44.31
-40.37
-37.68
-35.95
-34.96
-34.35
-33.49
-31.79
-28.96
-25.09
-20.46
-15.29
-9.58
-3.16
4.07
11.96
20.15
28.11
35.36
41.57
46.70
51.02
55.22
60.37
67.63
77.81
90.83
105.52
119.87
131.76
139.72
143.41
143.39
140.53
135.36
127.80
117.33
103.52
86.49
67.05
46.44
26.01
7.00
-9.66
-23.29
-33.52
-40.38
-44.36
-46.33
-47.17
-47.62
-48.09
-48.85
-50.23
-52.72
-56.77
-62.46
-69.29
-76.13
-81.42
-83.36
-80.04
-69.67
-50.91
-23.58
10.81
48.86
85.83
116.89
138.58
149.69
151.29
145.80
135.72
122.77
107.64
90.52
71.71
52.03
32.79
15.24
0.19
-12.29
-22.80
-32.19
-41.01
-49.26
-56.40
-61.64
-64.54
-65.30
-64.85
-64.50
-65.45
-68.22
-72.47
-77.14
-80.94
-82.86
-82.58
-80.47
-77.31
-73.86
-70.50
-67.28
-64.09
-60.95
-58.08
-55.82
-54.38
-53.66
-53.25
-52.66
-51.59
-50.06
-48.29
-46.50
-44.66
-42.55
-39.90
-36.71
-33.29
-30.18
-27.78
-26.23
-25.33
-24.73
-24.18
-23.58
-22.91
-22.05
-20.62
-18.12
-14.03
-8.20
-0.86
7.29
15.34
22.39
27.71
30.91
31.94
31.09
28.88
25.85
22.40
18.67
14.56
9.90
4.76
-0.42
-4.83
-7.52
-7.80
-5.45
-0.86
5.16
11.61
17.62
22.57
26.12
28.08
28.32
26.70
23.13
17.62
10.39
1.93
-7.11
-15.91
-23.69
-29.87
-34.16
-36.69
-37.91
-38.45
-38.85
-39.41
-40.11
-40.65
-40.75
-40.24
-39.30
-38.26
-37.50
-37.21
-37.26
-37.31
-36.97
-35.99
-34.37
-32.32
-30.13
-27.98
-25.85
-23.58
-20.97
-17.89
-14.30
-10.18
-5.49
0.03
6.70
14.80
24.39
35.19
46.61
57.96
68.68
78.50
87.49
95.92
103.91
111.31
117.73
122.90
127.11
131.30
136.66
143.87
152.55
161.10
167.50
170.29
169.17
164.87
158.20
149.15
136.55
118.80
95.12
66.53
35.82
6.54
-18.36
-37.41
-50.64
-58.99
-63.53
-65.12
-64.41
-61.97
-58.32
-53.58
-47.33
-38.77
-27.30
-13.19
2.18
16.71
28.44
36.48
41.29
44.27
46.87
49.77
52.59
54.30
53.93
51.18
46.48
40.69
34.50
28.15
21.51
14.44
7.13
0.07
-6.18
-11.42
-15.90
-20.09
-24.23
-27.91
-30.14
-29.81
-26.39
-20.39
-13.40
-7.41
-4.01
-3.62
-5.23
-6.90
-6.52
-2.78
4.47
14.23
25.00
35.54
45.04
52.90
58.36
60.27
57.67
50.81
41.73
33.88
30.49
32.86
39.48
46.82
51.33
51.44
48.15
44.06
41.56
41.45
42.92
44.74
46.64
49.65
55.33
64.31
75.39
86.03
93.54
96.50
95.40
91.97
88.01
84.39
80.76
76.07
69.49
60.97
51.15
40.83
30.43
19.78
8.47
-3.61
-15.81
-26.95
-35.81
-41.76
-45.12
-46.96
-48.52
-50.65
-53.51
-56.73
-59.77
-62.27
-64.22
-65.84
-67.44
-69.34
-71.82
-75.20
-79.70
-85.33
-91.66
-97.80
-102.52
-104.68
-103.50
-98.72
-90.62
-79.90
-67.66
-55.33
-44.45
-36.36
-31.71
-30.23
-30.80
-31.99
-32.60
-32.09
-30.69
-29.08
-27.94
-27.60
-27.99
-28.73
-29.33
-29.35
-28.61
-27.21
-25.50
-23.96
-23.00
-22.83
-23.36
-24.32
-25.38
-26.38
-27.27
-28.16
-29.13
-30.24
-31.47
-32.78
-34.16
-35.59
-37.11
-38.67
-40.14
-41.28
-41.72
-41.03
-38.82
-34.96
-29.63
-23.39
-16.95
-11.02
-6.07
-2.23
0.62
2.71
4.20
5.07
5.23
4.55
3.03
0.83
-1.85
-4.84
-8.13
-11.85
-16.19
-21.22
-26.83
-32.78
-38.77
-44.61
-50.20
-55.40
-59.90
-63.17
-64.54
-63.37
-59.30
-52.40
-43.13
-32.25
-20.63
-9.11
1.63
11.10
19.03
25.38
30.29
33.99
36.75
38.82
40.40
41.70
42.99
44.56
46.68
49.44
52.72
56.19
59.36
61.75
63.10
63.38
62.75
61.40
59.49
57.03
54.07
50.75
47.43
44.57
42.60
41.70
41.70
42.01
41.84
40.43
37.31
32.46
26.27
19.28
11.99
4.65
-2.66
-10.03
-17.47
-24.96
-32.41
-39.84
-47.40
-55.34
-63.83
-72.85
-82.09
-91.10
-99.51
-107.22
-114.34
-121.20
-128.10
-135.24
-142.69
-150.39
-158.07
-165.20
-170.78
-173.53
-172.08
-165.38
-153.08
-135.68
-114.35
-90.71
-66.38
-42.73
-20.67
-0.67
17.25
33.28
47.61
60.14
70.24
76.95
79.27
76.65
69.38
58.60
45.97
33.14
21.29
10.77
1.14
-8.50
-18.92
-30.10
-41.03
-50.04
-55.47
-56.56
-53.91
-49.35
-45.23
-43.48
-44.82
-48.55
-52.89
-55.64
-54.90
-49.52
-39.25
-24.63
-6.73
13.14
33.70
53.88
72.91
90.17
105.16
117.39
126.55
132.62
135.97
137.34
137.48
136.88
135.64
133.61
130.86
127.95
125.70
124.63
124.31
123.04
118.35
108.05
91.21
68.62
42.39
15.01
-11.61
-36.59
-60.06
-82.61
-104.88
-127.14
-148.97
-169.20
-185.92
-196.93
-200.21
-194.55
-179.54
-155.31
-122.21
-80.85
-32.87
18.30
67.42
108.45
136.63
150.46
152.41
147.93
143.15
142.39
146.96
155.44
165.37
174.94
183.79
192.50
201.45
209.81
215.54
216.31
210.83
199.61
184.94
169.75
156.28
145.04
134.78
123.37
109.07
91.51
71.75
51.56
32.44
14.77
-2.24
-19.87
-39.06
-59.65
-80.34
-99.10
-113.95
-123.59
-127.72
-126.94
-122.52
-116.00
-108.83
-102.08
-96.27
-91.29
-86.76
-82.28
-77.80
-73.58
-70.04
-67.52
-66.00
-65.22
-64.82
-64.53
-64.26
-64.01
-63.78
-63.48
-62.99
-62.31
-61.65
-61.48
-62.27
-64.27
-67.30
-70.72
-73.69
-75.51
-75.95
-75.18
-73.78
-72.28
-71.01
-70.03
-69.21
-68.40
-67.57
-66.93
-66.88
-68.01
-70.83
-75.50
-81.48
-87.43
-91.58
-92.39
-89.28
-83.00
-75.35
-68.36
-63.40
-60.68
-59.42
-58.44
-56.66
-53.30
-47.80
-39.57
-28.17
-13.65
3.11
20.47
36.51
49.68
59.38
65.86
69.95
72.63
74.81
77.29
80.84
85.91
92.34
99.08
104.36
106.32
103.76
96.71
86.38
74.62
63.14
52.94
44.12
36.20
28.58
20.88
13.15
5.74
-0.98
-6.84
-11.95
-16.54
-20.78
-24.54
-27.47
-29.04
-28.79
-26.29
-21.11
-12.64
-0.29
16.05
35.37
55.10
71.61
81.41
82.68
76.37
66.09
56.74
52.61
55.75
65.49
79.21
93.66
106.23
115.56
121.21
123.20
121.55
116.33
107.87
96.96
84.82
72.81
62.01
53.03
45.93
40.35
35.78
31.78
28.16
25.11
23.14
23.02
25.35
30.27
37.21
45.00
52.21
57.72
61.00
62.17
61.67
59.88
56.94
52.76
47.25
40.60
33.28
25.81
18.52
11.35
3.87
-4.50
-14.14
-25.12
-37.14
-49.66
-61.98
-73.26
-82.59
-89.18
-92.51
-92.51
-89.66
-84.73
-78.53
-71.64
-64.36
-56.85
-49.36
-42.28
-36.12
-31.27
-27.80
-25.57
-24.29
-23.58
-23.15
-22.67
-21.84
-20.41
-18.39
-16.10
-14.16
-13.27
-13.96
-16.48
-20.75
-26.48
-33.37
-41.15
-49.63
-58.57
-67.66
-76.42
-84.27
-90.64
-95.04
-97.24
-97.30
-95.54
-92.49
-88.76
-85.04
-81.89
-79.79
-78.89
-78.97
-79.42
-79.38
-78.03
-74.93
-70.26
-64.85
-59.93
-56.55
-55.06
-54.71
-53.77
-50.31
-43.32
-33.56
-23.78
-17.54
-17.47
-23.59
-32.69
-39.52
-39.03
-28.64
-9.34
15.11
40.02
61.81
78.51
89.16
93.09
89.96
80.78
68.58
57.85
52.51
53.65
58.74
63.08
62.72
56.88
48.20
40.75
37.16
36.94
37.08
34.36
27.51
17.83
8.03
0.27
-5.03
-8.87
-12.55
-16.49
-19.86
-21.21
-19.29
-13.86
-5.58
4.51
15.64
27.60
40.65
55.15
71.17
88.47
106.62
125.18
143.77
161.88
178.70
193.20
204.23
210.85
212.44
208.62
199.12
183.72
162.49
136.15
106.33
75.45
46.29
21.29
1.98
-11.27
-19.13
-22.82
-23.78
-23.25
-22.24
-21.51
-21.53
-22.52
-24.43
-27.09
-30.27
-33.81
-37.53
-41.18
-44.38
-46.80
-48.46
-49.95
-52.33
-56.75
-63.76
-72.72
-81.81
-88.59
-90.90
-87.64
-78.97
-65.96
-50.11
-32.78
-15.12
1.84
17.08
29.74
39.32
45.87
49.90
52.16
53.17
53.15
51.91
49.03
44.07
36.79
27.29
16.13
4.30
-7.09
-17.15
-25.53
-32.38
-38.04
-42.67
-46.05
-47.69
-47.19
-44.56
-40.33
-35.32
-30.30
-25.79
-22.03
-19.00
-16.67
-14.99
-14.01
-13.85
-14.62
-16.35
-18.81
-21.42
-23.37
-24.00
-23.10
-21.15
-19.20
-18.35
-19.25
-21.78
-25.19
-28.60
-31.53
-34.14
-36.96
-40.35
-44.11
-47.50
-49.72
-50.40
-49.82
-48.60
-47.30
-46.04
-44.58
-42.72
-40.67
-39.03
-38.52
-39.38
-41.20
-43.09
-44.22
-44.31
-43.69
-42.94
-42.36
-41.80
-40.96
-39.87
-39.07
-39.50
-41.81
-45.85
-50.58
-54.54
-56.59
-56.53
-54.99
-53.00
-51.30
-49.96
-48.41
-45.81
-41.44
-35.02
-26.68
-16.98
-6.70
3.31
12.40
20.24
26.84
32.29
36.51
39.05
39.31
36.85
31.70
24.41
15.72
6.20
-3.98
-14.84
-26.23
-37.48
-47.49
-55.15
-59.80
-61.46
-60.56
-57.44
-51.95
-43.47
-31.33
-15.47
3.33
23.55
43.52
62.01
78.44
92.70
104.72
114.18
120.45
122.97
121.63
117.06
110.49
103.39
97.04
92.15
88.81
86.66
85.15
83.90
82.77
81.90
81.54
81.92
83.27
85.94
90.37
96.87
105.25
114.43
122.43
126.94
126.02
118.83
105.97
89.20
70.79
52.79
36.56
22.66
10.99
1.07
-7.67
-15.71
-23.32
-30.49
-36.97
-42.42
-46.51
-49.05
-49.96
-49.23
-46.97
-43.39
-38.91
-34.18
-29.92
-26.81
-25.25
-25.24
-26.43
-28.33
-30.60
-33.17
-36.20
-39.90
-44.24
-48.78
-52.68
-55.05
-55.25
-53.27
-49.63
-45.30
-41.17
-37.78
-35.20
-33.12
-31.20
-29.26
-27.34
-25.60
-24.20
-23.12
-22.27
-21.60
-21.18
-21.21
-21.88
-23.34
-25.60
-28.63
-32.33
-36.48
-40.80
-44.88
-48.40
-51.21
-53.41
-55.11
-56.26
-56.45
-55.12
-51.81
-46.57
-40.00
-33.03
-26.50
-20.84
-16.00
-11.67
-7.60
-3.76
-0.31
2.59
4.87
6.62
7.94
8.89
9.51
9.78
9.75
9.51
9.17
8.81
8.45
8.04
7.51
6.74
5.60
3.95
1.71
-1.17
-4.57
-8.24
-11.76
-14.62
-16.39
-16.75
-15.70
-13.50
-10.59
-7.32
-3.92
-0.40
3.33
7.28
11.34
15.26
18.77
21.63
23.75
25.14
25.84
25.97
25.62
24.89
23.84
22.52
20.94
19.17
17.33
15.58
14.12
13.04
12.31
11.77
11.20
10.42
9.38
8.13
6.81
5.57
4.48
3.52
2.56
1.45
-0.00
-1.95
-4.48
-7.60
-11.19
-14.99
-18.53
-21.25
-22.61
-22.27
-20.24
-16.79
-12.40
-7.53
-2.53
2.35
6.89
10.85
13.94
15.99
17.00
17.19
16.94
16.64
16.56
16.75
17.09
17.36
17.36
16.96
16.18
15.16
14.06
12.93
11.74
10.27
8.28
5.58
2.12
-1.96
-6.31
-10.42
-13.69
-15.51
-15.46
-13.43
-9.69
-4.77
0.65
5.99
10.82
14.80
17.65
19.03
18.72
16.71
13.36
9.34
5.46
2.34
0.22
-1.12
-2.18
-3.45
-5.24
-7.49
-9.88
-12.05
-13.82
-15.35
-17.16
-19.91
-24.13
-29.94
-36.93
-44.31
-51.17
-56.76
-60.70
-62.93
-63.55
-62.67
-60.48
-57.47
-54.68
-53.57
-55.59
-61.62
-71.57
-84.44
-98.61
-112.24
-123.35
-129.75
-129.05
-119.07
-98.78
-69.15
-33.45
3.48
36.77
63.14
81.85
94.40
103.36
110.93
118.07
124.37
128.63
129.66
126.95
120.70
111.50
99.81
85.73
69.10
50.09
29.79
10.23
-5.95
-16.47
-20.21
-17.31
-8.94
3.41
18.22
34.06
49.42
62.72
72.71
78.78
81.05
80.01
75.93
68.55
57.39
42.45
24.71
6.05
-11.65
-27.41
-41.57
-55.18
-68.83
-81.44
-90.10
-90.79
-80.02
-56.53
-22.37
17.00
53.92
80.59
91.46
85.16
65.04
37.95
11.77
-7.47
-17.39
-19.35
-16.96
-13.91
-12.46
-13.14
-15.45
-18.81
-23.09
-28.27
-33.96
-38.93
-41.46
-39.95
-33.81
-23.86
-12.20
-1.56
5.44
7.03
2.77
-6.44
-18.65
-31.56
-43.16
-52.29
-58.70
-62.61
-64.02
-62.29
-56.22
-44.60
-27.14
-4.93
19.60
43.49
64.29
80.96
94.00
104.90
115.10
125.07
133.96
139.92
140.97
135.72
123.91
106.29
84.25
59.29
32.74
5.79
-20.27
-43.79
-62.80
-75.52
-81.05
-80.07
-74.75
-68.29
-63.80
-63.28
-66.87
-72.87
-78.32
-79.91
-75.10
-62.97
-44.74
-23.79
-4.81
7.56
10.29
3.16
-10.85
-26.65
-38.76
-43.26
-39.03
-27.83
-13.23
0.94
11.83
18.27
20.54
19.81
17.37
14.22
10.85
7.35
3.58
-0.66
-5.55
-11.14
-17.12
-22.67
-26.49
-27.05
-23.14
-14.42
-1.62
13.60
29.29
43.71
55.54
63.58
66.61
63.30
52.75
35.35
13.14
-10.59
-32.30
-49.30
-60.49
-66.20
-67.48
-65.40
-60.73
-54.04
-45.98
-37.37
-29.02
-21.35
-14.25
-7.17
0.45
8.78
17.44
25.63
32.51
37.58
40.84
42.80
44.17
45.62
47.40
49.36
51.08
52.17
52.49
52.24
51.87
51.83
52.29
53.01
53.49
53.19
51.83
49.54
46.75
43.97
41.42
38.91
35.99
32.30
27.98
23.71
20.50
19.10
19.65
21.50
23.52
24.56
23.83
20.97
16.07
9.68
2.98
-2.25
-3.94
-0.61
7.80
19.47
31.20
39.67
42.83
40.60
34.56
26.89
19.12
11.71
4.36
-3.24
-10.66
-16.65
-19.65
-18.48
-12.84
-3.50
8.02
19.82
30.09
37.38
40.84
40.22
35.81
28.33
18.78
8.26
-2.13
-11.46
-19.07
-24.63
-28.17
-29.97
-30.45
-30.05
-29.17
-28.18
-27.40
-27.13
-27.60
-28.93
-31.07
-33.84
-36.98
-40.18
-43.12
-45.42
-46.61
-46.15
-43.56
-38.61
-31.48
-22.77
-13.40
-4.37
3.51
9.68
13.88
16.11
16.53
15.46
13.41
10.92
8.49
6.47
5.06
4.38
4.60
5.98
8.81
13.18
18.90
25.41
31.87
37.22
40.27
39.76
34.44
23.41
6.47
-15.40
-39.84
-63.32
-81.94
-92.39
-92.95
-83.92
-67.41
-46.61
-24.84
-4.76
11.88
24.24
32.15
35.95
36.41
34.64
31.83
28.84
25.91
22.56
17.95
11.32
2.46
-8.30
-20.35
-33.14
-46.35
-59.73
-72.75
-84.26
-92.55
-95.60
-91.71
-80.11
-61.44
-37.99
-13.31
8.52
24.09
31.65
31.59
26.14
18.32
10.82
5.20
1.77
-0.10
-1.26
-2.33
-3.38
-3.87
-2.93
0.28
5.97
13.36
20.63
25.45
25.92
21.50
13.32
3.86
-4.25
-9.17
-10.53
-9.18
-6.59
-4.05
-2.28
-1.43
-1.24
-1.33
-1.34
-0.87
0.64
3.82
9.17
16.67
25.55
34.30
41.28
45.44
46.96
47.33
48.81
53.43
62.01
73.85
86.93
98.64
106.67
109.44
106.25
97.22
83.09
65.13
45.04
24.73
5.92
-10.17
-23.02
-32.72
-39.68
-44.34
-47.02
-47.94
-47.21
-44.86
-40.88
-35.23
-28.03
-19.73
-11.17
-3.41
2.54
6.08
7.12
6.12
3.81
0.90
-2.04
-4.71
-6.93
-8.61
-9.68
-10.13
-10.06
-9.71
-9.52
-9.96
-11.43
-14.08
-17.79
-22.18
-26.79
-31.26
-35.37
-38.98
-41.88
-43.77
-44.24
-43.04
-40.15
-35.85
-30.67
-25.18
-19.83
-14.91
-10.55
-6.80
-3.71
-1.30
0.45
1.69
2.60
3.36
4.05
4.62
4.87
4.61
3.78
2.48
0.96
-0.49
-1.73
-2.88
-4.25
-6.26
-9.21
-13.16
-17.83
-22.64
-26.90
-29.94
-31.33
-30.92
-28.86
-25.52
-21.36
-16.82
-12.28
-8.05
-4.41
-1.65
-0.06
0.20
-0.91
-3.23
-6.47
-10.33
-14.55
-18.96
-23.41
-27.75
-31.97
-36.38
-41.63
-48.57
-57.80
-69.19
-81.84
-94.41
-105.85
-115.78
-124.40
-131.76
-137.17
-139.05
-135.61
-125.87
-110.20
-90.29
-68.21
-45.49
-22.76
-0.12
22.17
43.13
61.40
75.86
86.39
93.96
100.12
106.05
111.93
116.82
119.16
117.54
111.25
100.49
86.24
69.83
52.56
35.54
19.61
5.31
-7.10
-17.62
-26.36
-33.32
-38.19
-40.30
-38.80
-33.07
-23.11
-9.66
5.98
22.27
37.74
51.18
61.63
68.42
71.29
70.44
66.65
61.07
54.89
48.93
43.47
38.39
33.46
28.62
24.08
20.21
17.30
15.39
14.24
13.46
12.61
11.43
9.77
7.58
4.80
1.26
-3.28
-8.96
-15.66
-22.82
-29.47
-34.49
-37.00
-36.66
-33.82
-29.24
-23.78
-18.00
-12.04
-5.83
0.70
7.31
13.51
18.73
22.58
25.03
26.35
26.96
27.15
27.05
26.60
25.72
24.36
22.56
20.38
17.90
15.10
11.89
8.08
3.49
-1.76
-7.12
-11.64
-14.23
-14.29
-11.97
-8.19
-4.10
-0.44
2.98
7.13
13.20
21.86
32.94
45.56
58.67
71.51
83.61
94.57
103.76
110.32
113.50
112.97
108.96
102.07
92.95
82.03
69.49
55.49
40.37
24.72
9.36
-4.89
-17.35
-27.63
-35.70
-41.82
-46.45
-50.08
-53.16
-56.03
-58.87
-61.80
-64.77
-67.54
-69.67
-70.57
-69.73
-66.95
-62.45
-56.87
-50.97
-45.38
-40.41
-36.06
-32.20
-28.67
-25.44
-22.64
-20.49
-19.22
-19.01
-19.86
-21.58
-23.81
-26.03
-27.77
-28.74
-28.91
-28.51
-27.97
-27.73
-28.24
-29.84
-32.66
-36.61
-41.18
-45.52
-48.68
-49.94
-49.18
-46.86
-43.79
-40.57
-37.23
-33.19
-27.67
-20.30
-11.54
-2.58
5.13
10.62
13.87
15.75
17.47
19.86
22.95
26.01
28.06
28.51
27.47
25.63
23.69
21.97
20.22
17.88
14.52
10.19
5.34
0.54
-3.89
-8.00
-12.06
-16.18
-20.02
-22.86
-23.88
-22.62
-19.29
-14.77
-10.20
-6.51
-4.01
-2.42
-1.13
0.28
1.82
3.18
4.03
4.35
4.48
4.80
5.38
5.83
5.46
3.75
0.77
-2.76
-5.83
-7.69
-8.22
-7.94
-7.55
-7.48
-7.66
-7.57
-6.72
-5.05
-2.92
-0.88
0.80
2.46
5.06
9.74
17.30
27.73
40.17
53.14
65.01
74.53
81.19
85.18
87.28
88.43
89.48
90.98
93.20
96.30
100.37
105.35
110.80
115.70
118.46
117.34
111.02
99.24
82.91
63.86
44.03
24.76
6.40
-11.46
-29.52
-48.12
-66.97
-85.20
-101.71
-115.56
-126.10
-132.92
-135.74
-134.38
-128.79
-119.24
-106.39
-91.29
-75.10
-58.96
-43.85
-30.53
-19.62
-11.52
-6.43
-4.20
-4.28
-5.68
-7.12
-7.26
-5.02
0.13
8.01
17.80
28.16
37.59
44.75
48.74
49.27
46.58
41.24
33.88
25.02
14.94
3.81
-8.11
-20.23
-31.58
-40.95
-47.15
-49.45
-47.79
-42.83
-35.70
-27.62
-19.58
-12.11
-5.37
0.64
5.80
9.83
12.33
13.07
12.11
9.86
6.85
3.51
-0.06
-4.05
-8.80
-14.52
-21.08
-28.03
-34.71
-40.51
-45.16
-48.87
-52.21
-55.88
-60.47
-66.11
-72.39
-78.41
-82.98
-85.00
-83.79
-79.21
-71.67
-61.86
-50.48
-38.08
-25.06
-11.82
1.18
13.48
24.80
35.21
45.04
54.56
63.60
71.37
76.78
79.07
78.34
75.62
72.44
69.96
68.38
66.85
64.04
58.88
51.19
41.72
31.72
22.34
14.12
7.05
0.83
-4.78
-9.65
-13.34
-15.37
-15.50
-13.99
-11.47
-8.67
-6.15
-4.03
-2.08
0.09
2.72
5.72
8.71
11.15
12.64
13.05
12.55
11.52
10.38
9.54
9.30
9.75
10.85
12.45
14.27
16.01
17.40
18.19
18.23
17.44
15.84
13.52
10.57
6.99
2.76
-2.16
-7.69
-13.63
-19.64
-25.44
-30.73
-35.22
-38.47
-40.01
-39.44
-36.79
-32.63
-27.98
-23.94
-21.15
-19.58
-18.61
-17.46
-15.61
-13.01
-9.96
-6.84
-3.83
-0.90
2.12
5.24
8.34
11.14
13.34
14.66
14.90
13.85
11.39
7.46
2.04
-4.80
-12.99
-22.36
-32.52
-42.75
-51.88
-58.54
-61.55
-60.34
-55.26
-47.53
-38.77
-30.46
-23.42
-17.73
-12.98
-8.76
-5.01
-2.01
0.02
1.28
2.71
5.66
11.15
19.17
28.50
37.06
42.88
44.97
43.67
40.33
36.52
33.27
30.77
28.62
26.32
23.76
21.23
19.17
17.72
16.58
15.09
12.57
8.72
3.80
-1.44
-6.00
-8.97
-9.78
-8.42
-5.29
-1.10
3.37
7.54
11.15
14.23
16.94
19.40
21.55
23.23
24.30
24.72
24.63
24.27
23.84
23.42
23.01
22.49
21.80
20.88
19.68
18.09
16.02
13.41
10.29
6.78
3.06
-0.70
-4.43
-8.10
-11.72
-15.16
-18.14
-20.22
-20.95
-20.08
-17.72
-14.36
-10.64
-7.11
-4.04
-1.37
1.15
3.71
6.31
8.75
10.77
12.21
13.10
13.58
13.80
13.79
13.44
12.62
11.25
9.49
7.65
6.09
4.98
4.22
3.49
2.48
1.06
-0.61
-2.15
-3.27
-3.95
-4.51
-5.41
-6.93
-8.90
-10.73
-11.73
-11.45
-9.98
-7.89
-5.88
-4.41
-3.49
-2.71
-1.61
0.03
2.06
4.10
5.89
7.55
9.52
12.34
16.27
21.12
26.42
31.77
37.10
42.74
49.11
56.41
64.27
71.77
77.74
81.25
81.93
80.20
77.00
73.45
70.25
67.43
64.27
59.76
53.23
44.81
35.55
27.04
20.62
16.82
15.21
14.78
14.56
14.13
13.67
13.66
14.34
15.42
16.12
15.60
13.35
9.40
4.29
-1.21
-6.41
-10.86
-14.39
-17.05
-18.89
-19.98
-20.41
-20.31
-19.97
-19.82
-20.35
-21.92
-24.57
-27.94
-31.39
-34.20
-35.87
-36.30
-35.88
-35.23
-34.95
-35.36
-36.29
-37.22
-37.46
-36.47
-34.05
-30.44
-26.21
-21.95
-18.14
-14.92
-12.24
-9.93
-7.97
-6.47
-5.65
-5.65
-6.38
-7.56
-8.81
-9.83
-10.48
-10.83
-11.04
-11.23
-11.51
-11.90
-12.43
-13.21
-14.35
-15.93
-17.93
-20.26
-22.71
-25.10
-27.34
-29.44
-31.51
-33.62
-35.73
-37.55
-38.61
-38.42
-36.67
-33.40
-29.01
-24.09
-19.13
-14.34
-9.62
-4.70
0.57
6.04
11.20
15.43
18.26
19.61
19.86
19.68
19.85
20.95
23.31
26.98
31.72
37.11
42.55
47.30
50.57
51.65
50.14
46.03
39.79
32.23
24.25
16.58
9.66
3.59
-1.74
-6.38
-10.23
-13.01
-14.45
-14.43
-13.15
-11.11
-8.88
-6.93
-5.46
-4.44
-3.75
-3.38
-3.39
-3.95
-5.10
-6.67
-8.25
-9.36
-9.65
-9.06
-7.86
-6.45
-5.20
-4.26
-3.48
-2.52
-1.03
1.22
4.21
7.62
10.85
13.16
13.82
12.32
8.51
2.65
-4.59
-12.34
-19.68
-25.83
-30.24
-32.64
-33.08
-31.89
-29.59
-26.75
-23.82
-21.06
-18.57
-16.43
-14.82
-14.04
-14.33
-15.63
-17.53
-19.30
-20.20
-19.81
-18.19
-15.81
-13.33
-11.26
-9.84
-9.01
-8.56
-8.28
-8.05
-7.85
-7.73
-7.84
-8.36
-9.52
-11.54
-14.53
-18.49
-23.24
-28.47
-33.73
-38.42
-41.93
-43.74
-43.60
-41.66
-38.44
-34.61
-30.76
-27.09
-23.50
-19.69
-15.46
-10.97
-6.71
-3.29
-1.14
-0.33
-0.50
-1.13
-1.68
-1.82
-1.46
-0.70
0.25
1.15
1.76
1.89
1.40
0.29
-1.25
-2.87
-4.11
-4.59
-4.12
-2.82
-1.10
0.49
1.44
1.43
0.43
-1.33
-3.50
-5.73
-7.77
-9.50
-10.90
-11.98
-12.85
-13.71
-14.78
-16.34
-18.59
-21.63
-25.38
-29.59
-33.87
-37.77
-40.92
-43.12
-44.39
-44.92
-45.01
-44.90
-44.69
-44.35
-43.78
-42.85
-41.48
-39.60
-37.05
-33.56
-28.90
-23.02
-16.13
-8.68
-1.18
6.04
12.83
19.15
24.89
29.72
33.20
35.02
35.24
34.36
33.15
32.24
31.84
31.72
31.42
30.54
28.95
26.88
24.66
22.63
20.98
19.72
18.76
17.93
17.03
15.80
14.10
11.90
9.30
6.48
3.64
0.93
-1.48
-3.25
-3.89
-2.78
0.60
6.53
14.87
25.10
36.41
47.92
58.77
68.20
75.56
80.36
82.31
81.41
77.91
72.33
65.33
57.58
49.63
41.82
34.26
26.94
19.83
12.99
6.64
0.94
-4.09
-8.68
-13.22
-18.08
-23.44
-29.18
-34.95
-40.27
-44.69
-47.84
-49.39
-49.11
-46.86
-42.74
-37.11
-30.60
-23.91
-17.60
-11.97
-7.09
-2.96
0.37
2.77
4.07
4.35
3.94
3.38
3.21
3.71
4.74
5.82
6.34
5.89
4.40
2.12
-0.48
-2.98
-5.13
-6.88
-8.35
-9.73
-11.21
-13.00
-15.31
-18.27
-21.86
-25.82
-29.58
-32.47
-33.85
-33.35
-30.99
-27.05
-22.03
-16.46
-10.75
-5.23
-0.08
4.51
8.41
11.48
13.64
14.87
15.26
15.05
14.55
14.11
13.96
14.18
14.62
14.99
15.03
14.53
13.44
11.82
9.71
7.18
4.29
1.11
-2.26
-5.76
-9.44
-13.46
-18.04
-23.28
-28.96
-34.51
-39.04
-41.62
-41.49
-38.37
-32.54
-24.79
-16.14
-7.63
-0.01
6.44
11.75
16.20
20.01
23.21
25.69
27.32
28.13
28.41
28.66
29.37
30.89
33.25
36.17
39.22
41.94
44.00
45.28
45.85
45.84
45.43
44.70
43.72
42.50
41.04
39.33
37.32
34.97
32.23
29.13
25.70
21.99
18.01
13.74
9.20
4.61
0.39
-3.00
-5.18
-6.07
-5.81
-4.65
-2.77
-0.30
2.56
5.44
7.82
9.34
9.90
9.76
9.26
8.55
7.38
5.25
1.85
-2.59
-7.26
-11.04
-13.07
-13.18
-11.96
-10.35
-9.12
-8.35
-7.43
-5.37
-1.41
4.50
11.47
17.92
22.34
23.81
22.48
19.50
16.55
15.30
17.07
22.74
32.72
46.68
62.96
78.33
88.40
88.99
78.08
57.02
30.38
4.19
-16.53
-29.67
-36.30
-39.38
-41.84
-45.15
-49.13
-52.87
-55.89
-58.71
-62.53
-68.44
-76.65
-86.45
-96.40
-105.03
-111.23
-114.59
-115.35
-114.29
-112.43
-110.72
-109.85
-110.05
-111.20
-112.94
-114.92
-116.89
-118.74
-120.28
-121.11
-120.54
-117.77
-112.20
-103.75
-92.96
-80.89
-68.82
-57.76
-48.28
-40.29
-33.25
-26.33
-18.72
-9.84
0.60
12.68
26.30
41.34
57.52
74.32
90.84
105.95
118.65
128.43
135.62
141.15
146.12
151.14
155.93
159.41
160.24
157.50
151.10
141.78
130.63
118.58
106.14
93.48
80.69
68.12
56.35
46.01
37.46
30.46
24.38
18.36
11.85
4.91
-1.77
-7.20
-10.58
-11.62
-10.84
-9.26
-8.05
-8.02
-9.35
-11.48
-13.39
-13.92
-12.22
-8.14
-2.46
3.22
6.87
6.76
2.11
-6.54
-17.59
-29.04
-39.14
-46.82
-51.50
-52.74
-50.01
-42.84
-31.22
-16.15
0.47
16.30
29.44
39.02
45.29
49.14
51.42
52.50
52.21
50.32
46.81
42.16
37.13
32.42
28.38
24.94
21.76
18.57
15.29
12.10
9.22
6.75
4.62
2.66
0.79
-0.89
-2.13
-2.65
-2.34
-1.32
0.10
1.43
2.21
2.06
0.80
-1.56
-4.79
-8.50
-12.19
-15.46
-18.06
-20.04
-21.67
-23.39
-25.54
-28.22
-31.13
-33.60
-34.84
-34.14
-31.22
-26.41
-20.57
-14.88
-10.45
-8.01
-7.68
-9.03
-11.33
-13.87
-16.28
-18.56
-20.95
-23.62
-26.47
-28.88
-29.84
-28.04
-22.19
-11.40
4.54
24.76
47.28
69.22
87.34
98.83
102.05
97.03
85.41
69.99
53.81
39.44
28.34
20.73
15.79
12.20
8.68
4.47
-0.55
-5.88
-10.77
-14.45
-16.42
-16.52
-14.85
-11.70
-7.53
-2.93
1.44
4.95
7.24
8.42
9.12
10.37
13.23
18.29
25.32
33.18
39.89
43.14
41.02
32.81
19.53
3.82
-10.95
-22.04
-28.52
-31.65
-34.15
-38.85
-47.35
-59.39
-73.10
-85.94
-95.60
-100.82
-101.47
-98.40
-92.91
-86.22
-78.97
-70.98
-61.51
-49.90
-36.41
-22.52
-10.61
-3.07
-1.40
-5.64
-14.37
-24.82
-33.13
-34.91
-26.41
-6.23
23.34
56.20
84.25
100.47
101.85
90.45
72.14
53.56
39.23
30.26
25.11
21.52
18.23
15.40
13.92
14.24
15.65
16.55
15.24
10.92
4.10
-3.59
-10.13
-14.05
-14.98
-13.78
-11.99
-11.09
-11.71
-13.44
-15.08
-15.30
-13.39
-9.58
-4.94
-0.87
1.53
1.93
0.81
-0.93
-2.36
-2.96
-2.78
-2.23
-1.86
-2.01
-2.71
-3.70
-4.63
-5.15
-5.16
-4.70
-3.97
-3.25
-2.82
-2.84
-3.34
-4.21
-5.24
-6.27
-7.17
-7.99
-8.79
-9.55
-10.11
-10.20
-9.51
-7.91
-5.48
-2.50
0.67
3.70
6.43
8.76
10.67
12.07
12.85
12.88
12.12
10.70
8.93
7.20
5.87
5.10
4.81
4.70
4.40
3.62
2.28
0.54
-1.32
-3.01
-4.36
-5.42
-6.40
-7.64
-9.46
-12.00
-15.17
-18.65
-21.97
-24.72
-26.59
-27.50
-27.45
-26.57
-24.95
-22.74
-20.11
-17.33
-14.67
-12.33
-10.39
-8.72
-7.14
-5.57
-4.15
-3.25
-3.23
-4.22
-5.92
-7.76
-9.10
-9.60
-9.36
-8.75
-8.11
-7.48
-6.61
-5.16
-2.95
-0.14
2.86
5.62
7.90
9.75
11.39
13.13
15.14
17.49
20.05
22.54
24.59
25.88
26.32
26.15
25.94
26.47
28.37
31.89
36.75
42.31
47.80
52.57
56.21
58.27
58.17
55.13
48.38
37.67
23.81
8.78
-4.65
-13.97
-18.01
-17.62
-15.29
-14.30
-17.37
-25.96
-40.06
-58.57
-79.77
-101.61
-121.72
-137.41
-146.15
-146.26
-137.62
-121.77
-101.34
-79.00
-56.56
-34.67
-13.18
7.91
27.88
45.00
57.09
62.44
60.56
52.43
40.05
25.56
10.47
-4.57
-19.46
-33.97
-47.16
-57.41
-62.99
-62.96
-57.77
-49.31
-40.02
-32.01
-26.22
-22.29
-19.05
-15.36
-10.67
-5.35
-0.34
3.35
5.21
5.34
4.34
2.85
1.22
-0.58
-2.85
-5.76
-9.15
-12.48
-15.02
-16.13
-15.51
-13.26
-9.73
-5.37
-0.56
4.42
9.27
13.56
16.83
18.73
19.22
18.67
17.69
16.83
16.34
16.10
15.70
14.79
13.27
11.37
9.44
7.76
6.28
4.74
2.74
0.05
-3.36
-7.25
-11.31
-15.23
-18.75
-21.67
-23.82
-25.07
-25.44
-25.12
-24.34
-23.31
-21.99
-20.09
-17.33
-13.64
-9.46
-5.59
-2.94
-2.13
-3.13
-5.38
-8.01
-10.34
-12.16
-13.82
-15.94
-19.11
-23.57
-29.14
-35.33
-41.68
-47.92
-53.96
-59.83
-65.35
-70.19
-73.97
-76.57
-78.35
-80.08
-82.33
-84.78
-85.88
-83.28
-74.80
-59.52
-38.33
-13.33
13.36
40.69
69.12
100.00
134.40
172.18
211.63
250.05
284.42
312.02
330.56
338.21
333.68
316.73
288.81
253.17
214.49
177.79
147.27
125.30
112.14
106.31
105.32
106.53
107.82
107.99
106.86
105.11
103.91
104.20
106.15
108.69
109.80
107.24
99.60
86.93
70.71
53.15
36.23
21.06
7.92
-3.43
-13.15
-21.20
-27.57
-32.68
-37.53
-43.54
-51.97
-63.30
-77.11
-92.12
-106.59
-119.06
-128.45
-134.33
-137.01
-137.33
-136.41
-135.48
-135.64
-137.57
-141.14
-145.34
-148.53
-149.03
-145.95
-139.56
-131.20
-122.60
-115.04
-108.85
-103.49
-98.03
-91.77
-84.46
-76.17
-66.84
-56.02
-43.07
-27.68
-10.35
7.46
23.81
37.21
46.93
53.30
57.37
60.18
62.21
63.31
62.77
59.69
53.33
43.17
28.88
10.63
-10.68
-32.95
-53.01
-67.52
-74.41
-74.32
-71.04
-70.24
-77.05
-93.49
-117.21
-142.36
-162.09
-171.42
-169.18
-157.94
-142.51
-127.85
-117.64
-113.70
-116.25
-124.29
-135.74
-147.44
-155.26
-154.66
-141.78
-114.57
-73.55
-21.93
35.00
91.10
140.84
180.44
208.49
225.71
234.19
236.41
234.52
230.16
224.47
218.16
211.51
204.13
194.93
182.47
165.55
143.89
118.55
91.75
66.28
44.71
28.77
19.11
15.42
16.59
21.06
27.08
33.01
37.52
39.80
39.60
37.11
32.78
27.23
21.12
15.15
9.89
5.60
2.07
-1.44
-5.94
-12.26
-20.66
-30.70
-41.57
-52.58
-63.61
-74.98
-87.01
-99.36
-110.81
-119.61
-124.35
-124.78
-122.13
-118.69
-116.74
-117.70
-121.46
-126.65
-131.32
-133.80
-133.37
-130.36
-125.90
-121.33
-117.79
-115.89
-115.78
-117.06
-118.63
-118.41
-113.53
-101.09
-79.70
-50.79
-19.07
8.63
25.78
28.75
18.35
-0.49
-20.67
-35.58
-41.13
-36.62
-24.08
-6.80
12.08
30.69
48.45
65.71
82.83
99.58
114.94
127.39
135.80
139.89
140.44
138.83
136.13
132.61
127.78
120.94
111.88
101.28
90.54
81.13
74.04
69.35
66.50
64.73
63.55
62.98
63.57
65.88
70.22
76.27
82.82
87.88
89.09
84.64
74.29
59.79
44.49
32.00
24.65
22.47
23.57
25.30
25.75
24.59
22.74
21.45
21.48
22.82
25.06
27.92
31.36
35.19
38.65
40.32
38.66
32.86
23.32
11.53
-0.52
-11.24
-19.88
-26.42
-31.22
-34.57
-36.58
-37.35
-37.16
-36.49
-35.97
-35.98
-36.65
-37.84
-39.37
-41.15
-43.15
-45.28
-47.23
-48.49
-48.52
-46.91
-43.54
-38.62
-32.54
-25.84
-19.08
-12.79
-7.47
-3.42
-0.73
0.80
1.50
1.71
1.70
1.54
1.19
0.56
-0.43
-1.80
-3.44
-5.18
-6.83
-8.16
-9.07
-9.56
-9.80
-10.08
-10.72
-12.00
-14.07
-16.96
-20.55
-24.57
-28.61
-32.15
-34.60
-35.48
-34.45
-31.44
-26.69
-20.67
-13.95
-7.09
-0.53
5.37
10.35
14.23
16.85
18.17
18.34
17.71
16.77
15.99
15.69
15.93
16.58
17.41
18.25
19.01
19.64
20.09
20.24
19.91
18.96
17.32
15.02
12.14
8.81
5.17
1.48
-1.87
-4.41
-5.68
-5.34
-3.28
0.47
5.80
12.62
20.74
29.80
39.15
47.90
55.12
60.15
62.78
63.28
62.27
60.41
58.14
55.55
52.46
48.60
43.79
38.05
31.59
24.68
17.58
10.46
3.41
-3.51
-10.18
-16.41
-21.96
-26.68
-30.60
-33.98
-37.25
-40.79
-44.75
-48.95
-52.91
-56.04
-57.81
-57.93
-56.31
-53.06
-48.45
-42.85
-36.74
-30.60
-24.91
-20.01
-16.11
-13.23
-11.33
-10.34
-10.19
-10.79
-12.00
-13.68
-15.68
-17.92
-20.40
-23.15
-26.24
-29.67
-33.35
-37.16
-40.89
-44.36
-47.41
-50.00
-52.16
-53.96
-55.45
-56.67
-57.64
-58.36
-58.84
-59.01
-58.56
-56.93
-53.39
-47.30
-38.37
-26.84
-13.39
1.17
16.13
31.12
45.98
60.67
75.20
89.68
104.46
119.99
136.67
154.42
172.45
189.32
203.43
213.54
219.22
220.95
219.66
216.20
210.87
203.17
192.11
176.64
156.22
131.12
102.57
72.29
41.89
12.40
-15.98
-43.67
-71.05
-98.06
-124.02
-147.91
-169.26
-188.78
-208.32
-230.22
-256.02
-285.69
-317.71
-349.81
-379.79
-405.68
-425.44
-436.66
-436.98
-424.99
-401.20
-368.16
-329.46
-288.24
-246.00
-202.69
-157.86
-111.99
-66.94
-25.19
11.42
42.58
69.28
92.55
112.28
126.75
133.07
128.74
113.36
89.60
63.35
42.35
34.09
43.38
70.34
109.88
152.98
189.51
211.66
216.45
206.33
187.65
167.77
152.39
144.13
142.81
146.69
153.95
163.56
174.91
187.26
199.11
208.28
212.83
212.08
207.21
200.84
195.89
194.08
194.90
195.82
193.44
185.31
171.16
153.13
134.83
119.72
109.71
104.78
103.45
103.71
103.89
102.90
100.20
95.81
90.26
84.28
78.38
72.25
64.36
52.48
34.58
10.31
-18.31
-47.15
-71.45
-87.71
-95.05
-95.42
-92.58
-90.59
-92.51
-99.77
-112.28
-128.70
-146.98
-164.91
-180.70
-193.51
-203.79
-212.81
-221.84
-231.23
-239.75
-244.70
-242.81
-231.32
-208.88
-176.32
-136.70
-94.91
-56.92
-28.56
-14.06
-14.92
-29.33
-52.43
-77.42
-97.16
-105.80
-100.05
-79.75
-47.70
-8.98
30.38
64.57
89.20
101.99
103.00
94.42
80.11
64.80
53.00
47.98
50.84
60.40
73.73
87.28
98.01
104.01
104.49
99.40
89.07
74.24
56.41
37.96
21.84
10.53
5.00
4.22
5.69
6.68
5.58
2.56
-0.65
-1.80
0.72
7.16
16.31
26.06
34.33
39.65
41.57
40.57
37.74
34.32
31.59
30.62
32.14
36.26
42.28
48.58
52.97
53.30
48.29
37.87
23.04
5.10
-15.06
-37.18
-61.19
-86.24
-110.16
-129.64
-141.47
-143.99
-137.99
-126.46
-113.31
-101.59
-92.45
-85.02
-77.29
-67.55
-55.36
-41.68
-28.12
-15.95
-5.42
4.34
14.57
26.12
38.76
51.09
60.94
66.14
65.19
57.78
44.94
28.79
12.18
-2.06
-11.75
-15.98
-15.54
-12.86
-11.58
-15.53
-27.56
-48.17
-74.88
-102.53
-124.41
-134.00
-126.64
-100.73
-58.37
-5.07
51.34
102.45
141.20
163.72
170.08
164.00
151.18
137.14
125.38
116.70
109.75
102.29
92.45
79.28
62.64
42.97
21.16
-1.23
-21.84
-37.93
-47.26
-48.93
-44.21
-36.20
-28.76
-25.10
-26.65
-32.77
-41.32
-49.66
-55.75
-58.87
-59.63
-59.54
-60.14
-62.23
-65.60
-69.01
-70.80
-69.40
-63.86
-53.95
-40.06
-23.06
-4.13
15.29
33.60
49.24
60.99
68.33
71.56
71.71
70.09
67.70
64.68
60.29
53.41
43.36
30.67
17.07
4.83
-4.40
-10.43
-14.61
-19.04
-25.47
-34.49
-45.38
-56.73
-67.11
-75.54
-81.56
-84.99
-85.90
-84.70
-82.45
-80.85
-81.85
-86.94
-96.44
-109.20
-122.70
-133.80
-139.79
-139.37
-133.29
-124.16
-115.55
-110.39
-109.67
-111.86
-113.45
-110.46
-100.28
-82.79
-60.66
-38.44
-20.89
-11.28
-9.99
-13.91
-16.96
-11.70
8.05
44.64
94.80
149.96
198.70
230.48
239.37
225.93
196.71
161.58
130.25
109.33
101.17
104.42
115.70
131.27
147.88
162.85
173.77
178.39
175.15
163.82
145.85
124.13
101.90
81.53
63.96
48.77
35.04
22.30
11.01
2.37
-2.32
-2.31
2.08
9.53
17.89
24.87
28.63
28.19
23.74
16.45
8.02
0.14
-6.13
-10.60
-13.95
-17.27
-21.60
-27.34
-34.20
-41.24
-47.25
-51.29
-52.94
-52.53
-50.85
-48.96
-47.69
-47.45
-48.19
-49.47
-50.76
-51.62
-51.96
-51.96
-52.01
-52.48
-53.58
-55.28
-57.41
-59.74
-62.07
-64.36
-66.67
-69.16
-71.95
-75.04
-78.12
-80.59
-81.74
-81.01
-78.32
-74.16
-69.50
-65.45
-62.90
-62.21
-63.16
-65.08
-67.12
-68.44
-68.23
-65.78
-60.53
-52.30
-41.54
-29.51
-18.01
-8.77
-2.83
-0.03
0.78
1.12
1.97
3.36
4.50
4.47
2.98
0.68
-1.13
-1.23
0.83
4.58
8.96
13.04
16.50
19.63
22.94
26.59
30.03
32.11
31.49
27.14
18.70
6.53
-8.26
-23.99
-38.39
-48.88
-52.99
-48.98
-36.56
-17.14
6.44
30.66
52.25
68.94
79.92
85.71
87.75
87.84
87.55
87.73
88.33
88.49
87.07
83.32
77.41
70.41
63.83
58.93
56.07
54.78
54.13
53.44
52.55
51.78
51.41
51.30
50.74
48.81
44.83
38.84
31.59
24.14
17.33
11.37
5.87
0.16
-6.21
-13.14
-20.02
-26.04
-30.83
-34.77
-39.05
-45.22
-54.43
-66.66
-80.45
-93.19
-102.05
-105.06
-101.90
-94.05
-84.04
-74.35
-66.37
-60.10
-54.58
-48.85
-42.75
-37.03
-32.89
-31.19
-31.87
-34.00
-36.39
-38.32
-39.76
-41.11
-42.54
-43.60
-43.42
-41.41
-38.05
-34.95
-34.12
-36.80
-42.59
-49.42
-54.54
-55.91
-53.21
-47.81
-41.78
-36.63
-32.51
-28.41
-23.08
-16.10
-8.30
-1.35
3.16
4.64
3.79
2.19
1.50
2.79
6.40
12.09
19.52
28.38
38.35
48.82
58.91
67.55
73.91
77.64
78.88
78.04
75.44
71.26
65.67
59.15
52.66
47.46
44.64
44.58
46.67
49.44
51.12
50.33
46.51
39.95
31.52
22.12
12.49
3.06
-5.93
-14.38
-22.34
-30.00
-37.64
-45.33
-52.64
-58.64
-62.09
-62.07
-58.47
-52.22
-44.97
-38.39
-33.49
-30.29
-27.86
-24.95
-20.56
-14.45
-7.24
-0.10
5.68
9.17
9.94
8.03
3.94
-1.37
-6.24
-8.44
-5.58
3.87
19.54
38.71
56.91
69.62
74.03
70.16
60.51
48.62
37.20
27.14
17.70
7.72
-3.09
-13.54
-21.50
-25.12
-23.92
-19.19
-13.28
-8.55
-6.22
-6.02
-6.52
-5.90
-2.96
2.43
9.18
15.40
19.03
18.57
13.56
4.79
-5.87
-16.17
-24.38
-30.02
-34.05
-38.50
-45.52
-56.48
-71.50
-89.34
-107.59
-123.02
-132.13
-131.91
-120.84
-99.95
-72.99
-45.60
-23.17
-8.65
-1.21
3.17
9.65
21.87
40.21
61.94
82.85
99.45
110.47
116.96
121.16
125.05
129.34
133.41
136.16
136.86
135.77
133.85
132.12
130.94
129.71
127.20
122.33
114.79
105.23
95.04
85.72
78.51
74.01
72.22
72.60
74.32
76.47
78.28
79.23
78.95
77.20
73.68
68.17
60.65
51.51
41.47
31.38
21.82
12.90
4.35
-4.20
-12.89
-21.46
-29.40
-36.25
-41.71
-45.73
-48.52
-50.40
-51.76
-52.96
-54.18
-55.35
-56.18
-56.37
-55.79
-54.59
-53.09
-51.60
-50.16
-48.64
-46.91
-44.96
-43.05
-41.55
-40.71
-40.53
-40.68
-40.77
-40.52
-39.93
-39.26
-38.89
-39.17
-40.16
-41.58
-42.73
-42.80
-41.15
-37.65
-32.81
-27.55
-22.79
-18.97
-15.94
-13.19
-10.30
-7.26
-4.41
-2.08
-0.22
1.63
3.93
6.58
8.78
9.37
7.61
3.68
-1.49
-6.91
-12.24
-17.91
-24.62
-32.41
-40.27
-46.55
-50.01
-50.68
-49.97
-49.78
-51.41
-54.77
-58.62
-61.43
-62.24
-61.00
-58.26
-54.60
-50.26
-45.22
-39.51
-33.44
-27.49
-22.04
-17.17
-12.66
-8.36
-4.35
-1.04
1.17
2.15
2.11
1.35
0.03
-2.01
-5.00
-8.90
-13.15
-16.82
-19.00
-19.21
-17.62
-14.77
-11.23
-7.28
-2.86
2.20
7.92
14.10
20.42
26.59
32.54
38.28
43.82
49.07
53.89
58.12
61.70
64.67
67.17
69.43
71.58
73.65
75.47
76.68
76.90
75.85
73.55
70.26
66.37
62.20
57.72
52.64
46.50
39.03
30.35
21.03
12.05
