1653129155.00
64.000000
-0.00
-0.00
-0.00
-0.00
-0.00
-0.00
-0.00
-0.00
-0.00
-0.00
0.00
0.01
0.01
-0.00
-0.03
-0.05
-0.05
0.00
0.13
0.36
0.66
1.01
1.37
1.72
2.06
2.40
2.79
3.24
3.80
4.42
5.06
5.66
6.20
6.68
7.15
7.68
8.31
9.14
10.09
11.04
11.88
12.56
13.14
13.76
14.65
15.96
17.91
20.32
22.90
25.38
27.58
29.57
31.68
34.32
37.81
42.54
48.15
54.10
59.83
64.97
69.58
74.14
79.34
85.71
93.76
103.00
112.62
121.73
129.77
136.75
143.30
150.75
157.77
166.64
177.95
191.79
206.97
220.57
228.25
225.36
208.53
176.87
132.76
80.05
23.07
-34.94
-92.44
-149.16
-205.23
-260.37
-313.74
-363.87
-409.83
-450.91
-486.50
-515.74
-537.23
-549.22
-549.96
-538.37
-514.21
-478.68
-433.88
-382.45
-327.02
-269.84
-212.62
-156.64
-102.91
-52.31
-5.82
35.70
71.58
101.55
125.74
144.67
159.04
169.56
176.84
181.28
183.16
182.72
180.23
176.02
170.52
164.12
157.17
149.93
142.52
135.02
127.47
119.92
112.43
105.07
97.91
91.01
84.39
78.08
72.08
66.40
61.06
56.07
51.43
47.15
43.23
39.67
36.44
33.56
31.02
28.80
26.91
25.34
24.09
23.15
22.49
22.12
22.01
22.15
22.53
23.14
23.97
24.99
26.18
27.49
28.87
30.21
31.40
32.29
32.73
32.56
31.65
29.90
27.27
23.77
19.46
14.50
9.07
3.43
-2.17
-7.47
-12.24
-16.30
-19.51
-21.80
-23.16
-23.65
-23.36
-22.41
-20.94
-19.09
-16.98
-14.72
-12.38
-10.00
-7.63
-5.30
-3.00
-0.74
1.52
3.81
6.14
8.57
11.15
13.81
16.54
19.33
22.19
25.10
28.10
31.22
34.52
38.09
41.85
45.78
49.85
54.11
58.56
63.24
68.19
73.49
79.23
85.19
91.29
97.42
103.54
109.64
115.69
121.70
127.73
133.86
139.78
145.25
150.06
153.95
156.62
157.66
156.49
152.27
146.59
139.99
132.85
125.43
117.93
110.50
103.31
96.48
90.15
84.50
79.29
74.36
69.63
65.03
60.51
56.05
51.69
47.51
43.62
39.90
36.29
32.80
29.43
26.20
23.15
20.28
17.64
15.31
13.13
11.04
9.01
7.01
5.08
3.22
1.49
-0.04
-1.32
-2.37
-3.20
-3.81
-4.22
-4.46
-4.55
-4.51
-4.39
-4.20
-3.99
-3.81
-3.67
-3.58
-3.58
-3.64
-3.77
-3.95
-4.14
-4.35
-4.57
-4.81
-5.07
-5.34
-5.61
-5.85
-6.02
-6.14
-6.21
-6.29
-6.41
-6.66
-7.09
-7.71
-8.53
-9.49
-10.57
-11.74
-13.04
-14.47
-16.11
-17.95
-19.94
-22.00
-24.01
-25.89
-27.65
-29.38
-31.27
-33.51
-36.19
-39.30
-42.65
-46.01
-49.22
-52.30
-55.48
-59.13
-63.66
-69.27
-75.92
-83.30
-90.93
-98.47
-105.85
-113.35
-121.55
-131.02
-142.15
-154.88
-168.82
-183.34
-197.89
-212.19
-226.34
-240.76
-256.28
-274.04
-295.20
-320.43
-349.13
-378.97
-405.91
-425.16
-432.57
-425.95
-405.78
-374.69
-336.55
-295.20
-253.74
-214.41
-178.80
-148.17
-123.31
-104.38
-90.65
-80.70
-72.78
-65.41
-57.67
-49.29
-40.47
-31.61
-23.13
-15.25
-8.17
-1.98
3.24
7.44
10.61
12.86
14.42
15.56
16.55
17.48
18.28
18.80
18.89
18.49
17.76
16.99
16.33
15.60
13.91
9.84
1.98
-10.07
-25.00
-39.74
-50.35
-53.62
-48.38
-35.90
-19.27
-1.79
14.23
27.74
38.55
46.67
52.37
56.86
62.52
72.08
86.72
104.27
119.07
124.12
114.51
90.28
57.00
23.55
-1.57
-13.36
-11.57
0.30
17.29
35.00
50.74
63.36
72.54
78.03
79.53
76.48
68.60
56.33
40.92
24.32
8.59
-4.92
-15.91
-24.99
-32.99
-40.32
-46.92
-52.79
-58.70
-66.40
-77.93
-94.25
-113.97
-133.20
-146.69
-149.95
-141.17
-121.77
-95.57
-66.90
-39.08
-13.59
9.44
30.23
48.64
64.10
76.09
84.68
90.48
94.23
96.28
96.21
93.27
87.16
78.73
70.32
65.35
67.29
78.22
97.84
123.10
148.99
170.04
182.06
183.24
174.38
158.12
137.78
116.33
95.86
77.67
62.64
51.26
43.61
39.24
37.00
35.21
32.04
25.96
16.17
2.85
-12.79
-28.66
-42.37
-51.84
-55.99
-54.96
-50.03
-43.02
-35.61
-28.84
-22.95
-17.81
-13.29
-9.55
-6.94
-5.70
-5.58
-5.74
-5.15
-2.95
1.07
6.33
11.73
16.23
19.14
20.50
20.74
20.44
19.84
18.76
16.75
13.37
8.47
2.34
-4.38
-10.90
-16.60
-21.16
-24.70
-27.61
-30.44
-33.80
-38.18
-43.77
-50.31
-57.01
-62.58
-65.55
-64.63
-59.14
-49.26
-36.04
-21.07
-6.10
7.42
18.50
26.79
32.33
35.47
36.68
36.49
35.42
33.85
32.02
29.91
27.35
24.09
20.06
15.42
10.66
6.48
3.56
2.32
2.76
4.45
6.60
8.33
8.95
8.09
5.87
2.79
-0.46
-3.23
-5.28
-6.77
-8.24
-10.35
-13.60
-18.07
-23.36
-28.65
-32.78
-34.52
-32.74
-26.80
-16.63
-2.90
13.16
30.03
46.32
61.05
73.68
83.95
91.69
96.70
98.89
98.33
95.52
91.17
86.10
80.89
75.86
71.03
66.23
61.28
56.04
50.48
44.71
38.85
33.08
27.37
21.65
15.67
9.16
2.01
-5.65
-13.41
-20.79
-27.29
-32.73
-37.11
-40.64
-43.63
-46.34
-49.06
-52.10
-55.65
-59.58
-63.22
-65.40
-64.65
-59.68
-50.00
-36.21
-19.88
-3.09
12.28
24.98
34.57
41.19
45.20
47.00
46.83
45.06
42.18
38.85
35.82
33.65
32.67
32.77
33.62
34.76
35.87
36.78
37.48
38.03
38.42
38.57
38.25
37.22
35.28
32.30
28.30
23.43
17.97
12.29
6.79
1.78
-2.55
-6.31
-9.79
-13.44
-17.74
-22.99
-29.28
-36.20
-42.89
-48.08
-50.41
-48.90
-43.23
-33.98
-22.40
-10.12
1.36
10.95
18.12
22.86
25.45
26.38
26.14
25.20
23.90
22.50
21.18
20.12
19.52
19.57
20.47
22.22
24.64
27.26
29.51
30.82
30.83
29.42
26.76
23.18
19.10
14.90
10.86
7.12
3.66
0.47
-2.40
-4.79
-6.36
-6.88
-6.26
-4.80
-3.13
-2.18
-3.04
-6.72
-13.92
-24.68
-38.02
-51.74
-62.77
-67.90
-64.88
-53.41
-35.39
-14.35
5.80
22.02
32.98
39.05
41.71
42.61
42.98
43.31
43.45
42.99
41.44
38.61
34.59
29.84
25.07
21.04
18.52
18.03
19.69
23.16
27.51
31.44
33.39
31.92
26.19
16.35
3.87
-8.54
-17.55
-20.28
-15.49
-4.45
9.24
20.62
25.17
20.36
6.38
-14.37
-38.41
-62.69
-85.19
-104.85
-120.90
-132.25
-137.51
-135.67
-127.00
-113.78
-99.85
-89.51
-86.03
-90.54
-101.76
-116.73
-131.91
-144.28
-151.84
-153.82
-150.54
-143.16
-133.38
-123.07
-113.88
-106.85
-102.47
-100.79
-101.57
-104.33
-108.22
-111.83
-113.57
-112.16
-107.21
-99.48
-90.47
-81.67
-74.00
-67.68
-62.63
-58.78
-56.01
-53.68
-50.29
-43.63
-31.73
-13.87
8.77
33.58
57.73
79.60
99.41
118.67
138.90
160.34
181.49
199.76
212.68
218.68
217.46
209.72
196.81
180.92
165.31
154.45
153.32
165.78
192.75
231.17
274.54
315.03
346.17
364.91
371.85
369.94
362.52
351.65
337.64
319.87
297.90
272.37
244.91
217.58
191.95
168.60
147.36
127.70
109.20
91.73
75.32
59.74
44.42
28.54
11.27
-7.94
-29.15
-52.03
-75.97
-100.44
-125.27
-150.98
-178.70
-209.67
-244.24
-281.02
-316.60
-346.19
-365.23
-370.93
-363.46
-345.89
-323.03
-299.71
-279.46
-263.98
-253.41
-247.15
-244.64
-245.63
-249.95
-257.06
-265.54
-273.24
-277.74
-276.86
-269.34
-254.78
-233.44
-205.75
-172.16
-133.28
-90.16
-44.49
1.70
46.44
88.56
128.25
167.00
207.06
250.10
295.90
341.36
380.79
407.21
414.70
400.50
365.88
315.28
254.47
188.78
122.50
59.30
3.12
-41.87
-72.37
-87.56
-90.04
-84.99
-78.11
-73.28
-71.32
-70.35
-67.46
-60.39
-48.41
-32.35
-14.03
4.17
19.52
29.44
32.25
28.12
19.34
9.80
3.52
3.06
8.62
18.34
29.49
39.73
47.88
53.76
57.56
59.01
57.24
51.13
39.89
23.72
3.77
-18.12
-40.05
-60.51
-78.66
-93.90
-105.64
-112.98
-114.86
-110.56
-100.33
-85.48
-68.14
-50.64
-34.72
-21.23
-10.15
-1.01
6.78
13.74
20.11
25.93
31.11
35.52
39.01
41.56
43.28
44.43
45.38
46.53
48.20
50.58
53.77
57.85
62.81
68.63
75.00
81.44
87.20
91.62
94.20
94.96
94.33
93.04
91.73
90.72
89.81
88.39
85.86
81.96
77.10
72.37
69.21
68.91
72.06
78.34
86.55
94.97
101.99
106.37
107.48
105.13
99.38
90.24
77.67
61.61
42.31
20.47
-2.90
-26.69
-50.05
-72.50
-93.54
-112.09
-126.34
-134.19
-134.43
-128.15
-119.26
-113.58
-116.34
-129.74
-151.57
-176.22
-197.31
-210.52
-215.22
-213.75
-209.49
-204.76
-200.05
-194.62
-187.77
-179.74
-171.45
-163.85
-157.33
-152.06
-148.78
-149.87
-159.16
-180.62
-215.87
-262.21
-311.97
-354.20
-378.09
-376.59
-348.81
-299.77
-238.04
-172.63
-110.76
-57.22
-14.89
14.36
29.80
32.67
26.95
18.89
15.06
19.78
33.42
52.65
72.36
87.95
97.02
99.42
96.29
88.78
77.68
63.74
48.48
34.50
25.14
23.35
30.51
45.79
66.42
88.63
109.16
125.98
138.74
148.48
156.94
165.92
177.25
192.95
215.10
245.09
282.25
322.73
359.63
384.73
391.45
377.40
345.40
302.10
255.38
211.49
173.63
142.21
116.11
93.86
74.11
55.18
34.20
7.07
-30.59
-81.22
-143.24
-210.09
-271.25
-315.63
-335.49
-329.55
-303.06
-265.37
-225.77
-190.10
-159.48
-131.77
-104.14
-75.33
-46.23
-18.80
5.43
26.46
45.79
65.49
87.32
112.30
140.64
172.07
205.91
240.77
274.28
303.15
323.93
334.14
333.23
322.88
306.17
286.35
265.47
243.91
220.86
195.34
167.01
136.44
104.66
72.52
40.08
6.69
-28.66
-66.97
-108.74
-153.65
-200.47
-246.51
-287.44
-317.58
-331.39
-325.77
-302.05
-266.67
-229.85
-202.92
-194.83
-209.53
-244.83
-293.07
-343.40
-384.51
-407.62
-408.35
-387.48
-350.06
-303.44
-254.81
-209.57
-170.54
-138.36
-112.41
-91.52
-74.22
-58.53
-42.14
-23.18
-0.98
23.05
45.79
63.38
72.92
74.00
69.06
62.50
58.90
61.31
70.27
84.12
100.38
117.06
133.18
148.34
162.09
173.63
181.99
186.69
187.73
185.28
179.26
169.13
154.21
134.42
110.73
85.07
59.67
36.30
16.01
-0.64
-12.82
-19.17
-17.91
-7.65
11.62
38.18
68.71
99.11
125.69
146.33
160.98
171.31
179.61
187.39
194.41
198.57
196.77
186.33
166.15
137.40
103.35
68.49
37.48
14.03
0.26
-3.60
1.01
11.56
25.04
38.67
50.35
58.81
63.69
65.23
64.04
60.86
56.39
51.11
45.38
39.41
33.38
27.56
22.15
17.29
13.04
9.50
6.87
5.50
5.67
7.33
9.81
11.89
12.16
9.53
3.78
-4.42
-13.74
-22.87
-31.06
-38.50
-46.05
-54.77
-65.13
-76.52
-87.22
-94.89
-97.37
-93.50
-83.47
-68.76
-51.50
-33.82
-17.32
-2.87
9.12
18.45
24.87
28.25
28.58
26.31
22.29
17.62
13.32
10.04
7.98
6.95
6.74
7.24
8.52
10.67
13.54
16.58
18.94
19.74
18.46
15.14
10.34
4.89
-0.45
-5.24
-9.42
-13.24
-17.09
-21.46
-26.83
-33.57
-41.62
-50.32
-58.19
-63.26
-63.61
-58.03
-46.65
-30.86
-12.96
4.65
20.19
32.72
42.14
48.67
52.56
53.91
52.80
49.54
44.83
39.62
34.97
31.67
30.01
29.69
30.02
30.30
30.14
29.67
29.25
29.23
29.55
29.66
28.68
25.92
21.17
14.85
7.82
1.01
-5.08
-10.48
-15.73
-21.65
-28.99
-38.15
-48.90
-60.27
-70.65
-78.04
-80.70
-77.55
-68.56
-54.82
-38.14
-20.52
-3.64
11.37
23.92
33.70
40.53
44.34
45.21
43.59
40.20
35.96
31.65
27.81
24.59
21.94
19.78
18.11
17.06
16.69
16.86
17.15
16.98
15.72
13.00
8.79
3.35
-2.79
-9.10
-15.16
-20.71
-25.75
-30.51
-35.43
-41.09
-47.95
-56.09
-64.83
-72.72
-77.67
-77.68
-71.58
-59.52
-43.04
-24.55
-6.61
8.84
20.78
29.14
34.39
37.17
38.03
37.37
35.45
32.61
29.31
26.06
23.33
21.39
20.22
19.51
18.88
18.02
16.92
15.80
14.98
14.62
14.66
14.66
14.11
12.53
9.62
5.39
0.07
-6.00
-12.45
-19.06
-25.81
-32.98
-40.98
-50.21
-60.66
-71.63
-81.72
-88.98
-91.57
-88.29
-79.06
-64.92
-47.76
-29.84
-13.16
0.84
11.49
18.72
22.90
24.63
24.55
23.36
21.73
20.35
19.85
20.72
23.18
27.14
32.22
37.85
43.59
49.17
54.51
59.52
63.98
67.37
69.01
68.26
64.76
58.71
50.74
41.79
32.73
24.16
16.35
9.26
2.62
-3.97
-10.96
-18.79
-27.65
-37.33
-46.94
-54.95
-59.54
-59.12
-52.99
-41.56
-26.40
-9.67
6.49
20.52
31.73
40.14
46.21
50.41
53.01
54.04
53.41
51.20
47.72
43.59
39.58
36.41
34.49
33.79
33.89
34.17
34.09
33.32
31.84
29.68
26.82
22.98
17.76
10.83
2.16
-7.82
-18.33
-28.37
-37.15
-44.30
-49.97
-54.79
-59.58
-65.14
-71.97
-80.12
-89.05
-97.69
-104.52
-107.85
-106.28
-99.11
-86.62
-70.07
-51.43
-32.81
-15.91
-1.78
9.27
17.36
22.84
25.97
26.96
26.07
23.78
20.85
18.12
16.34
15.83
16.47
17.76
19.04
19.85
20.03
19.71
19.11
18.34
17.26
15.51
12.69
8.56
3.19
-3.04
-9.56
-15.85
-21.55
-26.59
-31.15
-35.54
-40.15
-45.34
-51.38
-58.31
-65.74
-72.68
-77.59
-78.77
-74.88
-65.46
-51.28
-34.08
-16.15
0.42
14.17
24.51
31.51
35.66
37.51
37.50
36.02
33.48
30.42
27.42
25.07
23.78
23.66
24.55
26.00
27.51
28.68
29.30
29.36
28.95
28.17
26.87
24.81
21.56
16.88
10.83
3.85
-3.32
-9.99
-15.70
-20.52
-24.89
-29.54
-35.11
-41.91
-49.88
-58.40
-66.40
-72.51
-75.24
-73.34
-66.19
-54.13
-38.43
-21.07
-4.08
10.85
22.79
31.53
37.29
40.44
41.21
39.85
36.69
32.30
27.52
23.19
19.97
18.06
17.25
17.02
16.79
16.14
15.05
13.73
12.45
11.39
10.40
8.97
6.52
2.57
-2.91
-9.46
-16.28
-22.52
-27.65
-31.74
-35.40
-39.46
-44.71
-51.58
-59.90
-68.93
-77.38
-83.61
-85.82
-82.55
-73.06
-57.65
-37.76
-15.63
6.29
25.91
41.97
53.98
62.04
66.42
67.27
64.71
59.16
51.54
43.38
36.43
32.09
30.90
32.33
35.07
37.62
38.91
38.55
36.78
33.99
30.46
26.25
21.24
15.52
9.46
3.71
-1.04
-4.32
-6.06
-6.68
-7.06
-8.26
-11.30
-16.80
-24.76
-34.53
-44.85
-54.12
-60.78
-63.44
-61.22
-53.85
-41.80
-26.33
-9.30
7.19
21.25
31.73
38.39
41.81
42.93
42.64
41.49
39.61
37.03
33.77
30.00
25.95
21.78
17.52
13.23
9.06
5.43
2.93
2.09
3.02
5.31
8.02
10.03
10.50
9.12
6.22
2.46
-1.46
-5.18
-8.74
-12.60
-17.25
-23.01
-29.83
-37.25
-44.33
-49.88
-52.59
-51.35
-45.69
-35.89
-23.15
-9.19
4.14
15.43
23.93
29.55
32.65
33.65
32.92
30.73
27.40
23.44
19.48
16.17
13.97
13.05
13.26
14.28
15.72
17.18
18.38
18.90
18.26
15.92
11.51
5.06
-2.86
-11.27
-19.05
-25.35
-29.97
-33.36
-36.46
-40.25
-45.42
-52.01
-59.30
-65.89
-70.00
-69.94
-64.66
-54.14
-39.51
-22.67
-5.84
9.08
20.89
29.18
34.19
36.43
36.57
35.23
33.01
30.42
27.87
25.61
23.68
22.01
20.47
19.04
17.78
16.86
16.35
16.21
16.13
15.63
14.25
11.66
7.81
2.87
-2.82
-8.89
-15.11
-21.44
-28.13
-35.52
-43.95
-53.38
-63.22
-72.19
-78.50
-80.30
-76.25
-66.05
-50.62
-31.89
-12.28
5.93
21.12
32.53
40.12
44.33
45.72
44.84
42.11
37.99
32.96
27.53
22.30
17.77
14.41
12.42
11.82
12.32
13.46
14.59
15.05
14.34
12.09
8.24
2.91
-3.55
-10.75
-18.25
-25.67
-32.76
-39.52
-46.24
-53.41
-61.41
-70.15
-78.78
-85.63
-88.68
-86.17
-77.33
-62.80
-44.36
-24.52
-5.70
10.36
22.80
31.59
37.26
40.53
42.03
42.30
41.69
40.44
38.69
36.62
34.40
32.14
29.97
27.90
25.93
24.03
22.08
19.92
17.26
13.79
9.25
3.62
-2.86
-9.71
-16.44
-22.71
-28.52
-34.26
-40.57
-48.10
-57.23
-67.68
-78.38
-87.48
-92.77
-92.32
-85.06
-71.22
-52.32
-30.76
-9.13
10.43
26.61
38.97
47.79
53.64
57.14
58.76
58.88
57.75
55.74
53.20
50.49
47.88
45.48
43.26
41.18
39.21
37.40
35.79
34.23
32.39
29.68
25.52
19.58
11.95
3.22
-5.76
-14.13
-21.37
-27.51
-33.17
-39.40
-47.22
-57.18
-68.96
-81.10
-91.22
-96.72
-95.43
-86.36
-70.08
-48.55
-24.56
-1.00
19.85
36.73
49.31
58.07
63.73
66.97
68.24
67.75
65.75
62.63
59.08
55.93
53.89
53.17
53.54
54.36
54.95
54.84
53.93
52.35
50.30
47.85
44.78
40.74
35.48
28.93
21.37
13.27
5.23
-2.29
-9.09
-15.27
-21.21
-27.39
-34.30
-42.35
-51.73
-62.34
-73.62
-84.47
-93.21
-97.75
-96.18
-87.31
-71.17
-49.27
-24.18
1.08
23.86
42.42
56.16
65.28
70.44
72.39
71.79
69.19
65.23
60.60
56.02
52.18
49.53
48.29
48.35
49.40
51.02
52.76
54.25
55.11
55.04
53.78
51.15
47.09
41.68
35.10
27.55
19.25
10.40
1.21
-8.05
-17.02
-25.30
-32.52
-38.46
-43.20
-47.11
-50.87
-55.30
-61.09
-68.45
-76.79
-84.62
-89.75
-89.88
-83.34
-69.73
-50.13
-26.90
-2.95
19.02
37.10
50.48
59.28
64.16
65.90
65.21
62.59
58.54
53.58
48.33
43.38
39.21
35.98
33.59
31.79
30.28
28.93
27.77
26.89
26.24
25.54
24.28
21.92
18.13
13.00
7.06
1.05
-4.42
-9.04
-12.99
-16.75
-20.83
-25.58
-31.18
-37.57
-44.49
-51.49
-57.70
-62.08
-63.71
-62.21
-57.99
-52.11
-45.63
-39.05
-32.01
-23.56
-12.78
0.37
14.92
29.08
41.00
49.46
54.15
55.56
54.58
52.06
48.61
44.71
40.68
36.92
33.77
31.49
30.12
29.52
29.41
29.55
29.95
30.88
32.75
35.83
40.07
44.89
49.27
52.06
52.23
49.13
42.52
32.53
19.65
4.65
-11.36
-27.03
-41.06
-52.63
-61.73
-69.37
-77.19
-86.93
-99.72
-115.69
-133.92
-152.60
-169.62
-182.94
-191.07
-193.22
-189.51
-180.97
-169.43
-157.02
-145.38
-134.91
-124.37
-111.56
-94.75
-74.20
-52.82
-35.32
-26.02
-26.49
-34.48
-44.60
-50.79
-48.85
-37.87
-19.88
1.81
24.41
46.64
68.30
89.32
108.77
124.56
134.17
135.65
128.52
114.01
94.67
73.40
52.44
32.84
14.41
-3.61
-21.79
-39.74
-56.15
-69.08
-76.86
-78.71
-75.00
-67.09
-56.59
-44.71
-31.76
-17.23
0.03
21.24
47.28
78.32
113.55
151.03
187.59
219.26
241.96
252.41
249.15
233.02
206.93
174.97
141.24
108.94
80.05
55.51
35.72
20.93
11.28
6.63
6.25
8.73
12.17
14.88
15.80
14.83
12.68
10.27
8.30
6.73
5.00
2.31
-1.81
-7.28
-13.46
-19.46
-24.67
-28.98
-32.71
-36.42
-40.58
-45.32
-50.52
-56.05
-61.94
-68.56
-76.28
-85.17
-94.50
-102.64
-107.28
-106.17
-98.00
-83.01
-63.03
-40.90
-19.60
-1.38
12.61
22.29
28.25
31.26
32.09
31.35
29.61
27.45
25.45
24.04
23.41
23.45
23.83
24.15
24.09
23.55
22.60
21.40
20.06
18.43
16.24
13.16
9.02
3.93
-1.67
-7.20
-12.08
-15.94
-18.61
-20.19
-20.95
-21.30
-21.74
-22.77
-24.96
-28.77
-34.46
-41.99
-50.78
-59.68
-66.96
-70.68
-69.19
-61.66
-48.46
-31.08
-11.75
7.19
23.94
37.43
47.33
53.78
57.09
57.69
56.04
52.75
48.55
44.27
40.66
38.24
37.25
37.63
39.14
41.38
43.92
46.31
48.18
49.09
48.74
46.87
43.39
38.38
32.15
25.13
17.90
11.07
5.16
0.47
-3.02
-5.72
-8.34
-11.68
-16.48
-23.22
-31.99
-42.35
-53.33
-63.44
-70.86
-73.83
-71.16
-62.63
-49.18
-32.64
-15.28
0.84
14.30
24.38
30.92
34.09
34.19
31.65
27.08
21.35
15.48
10.43
6.79
4.73
3.92
3.77
3.76
3.56
3.12
2.55
1.94
1.15
-0.20
-2.57
-6.39
-11.71
-18.17
-25.13
-31.90
-38.05
-43.60
-48.89
-54.44
-60.80
-68.25
-76.77
-85.96
-94.97
-102.51
-106.98
-106.81
-100.96
-89.31
-72.59
-52.06
-28.91
-3.85
22.71
50.25
77.54
102.48
122.52
135.53
140.43
137.61
128.62
115.58
100.57
85.24
70.68
57.63
46.52
37.59
30.80
25.90
22.27
19.12
15.51
10.57
3.76
-5.06
-15.41
-26.35
-36.69
-45.33
-51.63
-55.61
-57.95
-59.66
-61.73
-64.49
-67.39
-68.95
-67.27
-60.51
-47.59
-28.48
-4.28
23.20
51.80
79.44
104.36
125.06
140.45
149.83
153.11
150.79
143.97
134.02
122.22
109.51
96.34
82.81
68.90
54.78
40.95
28.17
17.25
8.74
2.58
-1.91
-5.88
-10.63
-17.13
-25.67
-35.84
-46.64
-56.89
-65.65
-72.41
-77.30
-80.97
-84.34
-88.23
-93.14
-98.89
-104.56
-108.64
-109.31
-105.04
-95.02
-79.56
-60.05
-38.55
-17.30
1.85
17.77
29.99
38.53
43.59
45.48
44.68
41.96
38.35
34.98
32.77
32.01
32.40
33.18
33.53
32.94
31.42
29.31
27.02
24.68
22.06
18.72
14.22
8.42
1.47
-6.14
-13.80
-20.94
-27.15
-32.23
-36.23
-39.49
-42.58
-46.18
-50.75
-56.28
-62.01
-66.58
-68.34
-65.83
-58.42
-46.50
-31.40
-14.98
0.85
14.74
26.00
34.53
40.54
44.31
46.00
45.73
43.78
40.73
37.39
34.61
32.96
32.48
32.77
33.14
32.92
31.83
29.96
27.69
25.49
23.53
21.71
19.62
16.76
12.81
7.82
2.21
-3.36
-8.28
-12.27
-15.39
-18.02
-20.63
-23.63
-27.30
-31.84
-37.28
-43.38
-49.42
-54.16
-56.05
-53.71
-46.45
-34.64
-19.70
-3.65
11.48
24.17
33.64
39.85
43.16
44.08
43.09
40.64
37.22
33.43
29.90
27.18
25.58
25.10
25.42
26.04
26.51
26.55
26.05
25.04
23.56
21.61
19.09
15.92
12.08
7.69
2.91
-2.17
-7.55
-13.28
-19.37
-25.70
-31.94
-37.67
-42.56
-46.47
-49.53
-52.08
-54.59
-57.54
-61.29
-65.88
-70.85
-75.15
-77.22
-75.50
-68.98
-57.67
-42.73
-26.04
-9.56
5.30
17.94
28.41
37.04
43.96
49.09
52.19
53.29
52.75
51.35
49.89
48.90
48.39
47.86
46.70
44.52
41.46
38.17
35.48
33.96
33.57
33.58
32.86
30.46
26.05
20.12
13.82
8.40
4.69
2.82
2.16
1.69
0.46
-2.10
-6.04
-10.95
-15.98
-19.91
-21.27
-18.78
-12.00
-1.88
9.08
17.50
20.36
16.32
6.65
-5.09
-14.40
-17.61
-13.34
-2.95
10.31
22.75
31.74
36.55
38.20
38.51
39.15
40.78
43.07
45.18
46.40
46.54
45.75
44.23
41.90
38.51
34.02
28.89
24.04
20.55
19.01
19.19
20.05
20.16
18.30
13.80
6.62
-2.66
-13.06
-23.32
-32.16
-38.57
-42.18
-43.48
-43.65
-44.16
-46.07
-49.68
-54.49
-59.43
-63.51
-66.14
-67.49
-68.27
-69.54
-72.19
-76.70
-82.82
-89.53
-95.21
-97.98
-96.27
-89.18
-76.95
-60.76
-42.48
-24.13
-7.40
6.53
17.19
24.51
28.73
30.22
29.38
26.75
22.96
18.73
14.70
11.38
8.98
7.51
6.83
6.72
7.05
7.69
8.55
9.38
9.89
9.75
8.66
6.56
3.66
0.43
-2.51
-4.50
-5.12
-4.26
-2.33
-0.10
1.52
1.82
0.47
-2.33
-5.95
-9.59
-12.59
-14.67
-16.02
-17.20
-18.94
-21.87
-26.15
-31.26
-35.99
-38.66
-37.60
-31.78
-21.24
-7.20
8.29
22.99
35.05
43.53
48.37
50.14
49.58
47.36
43.90
39.60
34.95
30.58
27.09
24.84
23.75
23.48
23.59
23.89
24.56
25.95
28.25
31.22
34.20
36.36
37.08
36.23
34.19
31.58
29.04
26.89
25.11
23.38
21.25
18.34
14.44
9.61
4.15
-1.50
-6.87
-11.56
-15.48
-18.78
-21.89
-25.42
-29.83
-35.19
-41.02
-46.18
-49.12
-48.46
-43.41
-34.31
-22.43
-9.61
2.37
12.43
20.29
26.29
30.94
34.56
37.02
37.96
37.04
34.27
29.93
24.62
18.90
13.33
8.27
3.91
0.30
-2.58
-4.81
-6.53
-7.86
-8.93
-9.86
-10.83
-12.01
-13.61
-15.73
-18.35
-21.22
-24.04
-26.62
-28.83
-30.79
-32.69
-34.69
-36.90
-39.44
-42.39
-45.82
-49.61
-53.24
-55.74
-55.80
-52.17
-44.24
-32.43
-18.07
-3.14
10.39
21.12
28.40
32.35
33.45
32.23
29.12
24.44
18.55
12.03
5.65
0.20
-3.71
-5.85
-6.42
-5.89
-4.82
-3.61
-2.45
-1.36
-0.41
0.21
0.21
-0.62
-2.15
-3.86
-4.89
-4.53
-2.43
1.02
4.91
7.99
9.11
7.46
2.68
-5.11
-15.42
-27.26
-39.18
-49.33
-55.79
-57.07
-52.60
-42.94
-29.64
-14.80
-0.46
11.92
21.58
28.39
32.57
34.48
34.46
32.86
30.04
26.46
22.62
18.99
16.03
14.10
13.43
14.06
15.85
18.49
21.51
24.41
26.72
28.04
28.04
26.45
23.13
18.21
12.05
5.28
-1.48
-7.78
-13.58
-19.25
-25.43
-32.77
-41.59
-51.58
-61.61
-69.84
-74.17
-72.93
-65.58
-53.08
-37.63
-22.10
-9.02
0.12
5.05
6.38
5.09
2.08
-2.04
-6.83
-11.87
-16.63
-20.54
-23.16
-24.34
-24.18
-22.98
-21.12
-18.94
-16.80
-14.93
-13.54
-12.72
-12.51
-12.83
-13.56
-14.59
-15.85
-17.44
-19.63
-22.84
-27.67
-34.50
-43.41
-53.77
-64.21
-72.66
-76.94
-75.39
-67.42
-53.76
-36.16
-16.87
2.05
19.16
33.71
45.39
54.10
59.79
62.50
62.63
60.99
58.66
56.74
55.96
56.48
57.89
59.48
60.58
60.84
60.32
59.40
58.62
58.53
59.42
61.20
63.17
63.87
61.39
53.88
40.50
22.05
1.09
-18.80
-34.30
-43.66
-47.36
-47.78
-48.06
-50.61
-55.99
-62.65
-67.57
-67.51
-60.41
-46.16
-26.58
-4.73
16.14
33.32
44.96
50.10
48.67
41.70
31.53
21.69
15.96
16.96
24.91
37.33
50.04
58.97
61.88
58.87
51.92
43.45
35.18
27.67
20.68
13.91
7.41
1.59
-3.22
-7.11
-10.70
-14.77
-19.85
-25.94
-32.47
-38.62
-43.72
-47.45
-50.05
-52.13
-54.38
-57.42
-61.69
-67.29
-74.04
-81.30
-87.86
-92.08
-92.26
-87.13
-76.39
-60.86
-42.31
-22.94
-4.75
10.84
23.12
31.93
37.43
40.04
40.31
38.91
36.56
33.98
31.72
30.07
29.11
28.73
28.70
28.81
28.85
28.66
28.18
27.39
26.31
25.01
23.54
21.87
19.92
17.53
14.54
10.80
6.30
1.11
-4.56
-10.38
-16.06
-21.31
-26.04
-30.31
-34.45
-38.91
-44.15
-50.53
-58.01
-65.97
-73.17
-77.87
-78.26
-73.05
-61.98
-46.08
-27.31
-8.11
9.45
24.09
35.39
43.59
49.24
52.82
54.82
55.64
55.74
55.59
55.49
55.48
55.34
54.77
53.45
51.29
48.41
45.02
41.39
37.65
33.84
29.93
25.90
21.80
17.69
13.59
9.40
4.94
-0.01
-5.52
-11.49
-17.59
-23.34
-28.34
-32.37
-35.55
-38.24
-41.09
-44.70
-49.52
-55.56
-62.29
-68.53
-72.65
-72.94
-68.15
-58.03
-43.41
-26.10
-8.32
7.95
21.47
31.92
39.67
45.39
49.50
52.13
53.10
52.22
49.64
45.88
41.73
37.96
35.08
33.19
32.08
31.39
30.74
29.93
28.83
27.36
25.55
23.42
21.07
18.55
15.82
12.73
9.10
4.70
-0.46
-6.14
-11.84
-16.84
-20.46
-22.27
-22.48
-21.96
-22.20
-24.75
-30.61
-39.66
-50.53
-60.77
-67.62
-68.80
-63.14
-50.86
-33.45
-13.23
7.18
25.27
39.22
47.97
51.34
49.88
44.75
37.57
30.15
24.37
21.70
22.84
27.46
34.14
40.73
45.02
45.36
41.25
33.34
23.14
12.55
3.35
-3.18
-6.36
-6.26
-3.60
0.34
4.01
5.93
5.06
1.04
-5.74
-14.31
-23.49
-32.18
-39.63
-45.47
-49.68
-52.37
-53.52
-53.02
-50.50
-45.63
-38.31
-28.92
-18.24
-7.40
2.43
10.44
16.33
20.40
23.24
25.36
26.91
27.68
27.30
25.54
22.61
19.15
15.95
13.66
12.48
12.20
12.53
13.25
14.41
16.20
18.66
21.42
23.66
24.32
22.48
17.82
10.69
2.06
-6.81
-14.80
-21.20
-25.89
-29.20
-31.84
-34.63
-38.28
-43.26
-49.64
-56.90
-63.90
-68.97
-70.38
-66.91
-58.29
-45.45
-30.26
-14.94
-1.47
8.94
15.99
20.08
21.97
22.42
21.97
20.94
19.56
18.01
16.55
15.46
14.94
15.15
16.14
17.91
20.42
23.59
27.14
30.55
33.08
33.85
32.16
27.65
20.52
11.51
1.87
-7.05
-14.03
-18.38
-20.14
-20.14
-19.78
-20.69
-24.27
-31.18
-41.06
-52.50
-63.24
-70.72
-72.75
-68.23
-57.41
-41.81
-23.72
-5.43
11.31
25.50
36.79
45.17
50.62
53.12
52.74
49.82
45.06
39.37
33.61
28.40
24.06
20.59
17.94
16.06
15.02
14.88
15.52
16.59
17.45
17.35
15.67
12.12
6.91
0.58
-6.11
-12.50
-18.26
-23.46
-28.53
-34.04
-40.61
-48.52
-57.66
-67.25
-75.98
-82.10
-83.91
-80.27
-70.95
-56.78
-39.43
-21.00
-3.37
12.08
24.65
34.11
40.54
44.13
45.09
43.81
40.85
36.95
32.92
29.40
26.75
25.01
23.95
23.27
22.73
22.29
21.94
21.60
21.05
19.88
17.60
13.93
8.94
3.06
-2.94
-8.38
-12.86
-16.44
-19.64
-23.31
-28.37
-35.46
-44.63
-55.12
-65.30
-72.84
-75.41
-71.36
-60.34
-43.57
-23.52
-3.15
14.90
29.02
38.75
44.56
47.44
48.40
48.26
47.56
46.67
45.87
45.42
45.46
45.99
46.80
47.55
47.92
47.68
46.79
45.24
43.03
39.93
35.58
29.63
21.88
12.54
2.24
-8.16
-17.81
-26.18
-33.17
-39.15
-44.76
-50.69
-57.47
-65.23
-73.64
-81.73
-88.03
-90.87
-88.89
-81.50
-69.15
-53.21
-35.52
-17.77
-1.10
13.94
27.16
38.32
47.12
53.12
56.14
56.44
54.63
51.59
48.06
44.52
41.12
37.87
34.79
32.07
29.98
28.77
28.43
28.59
28.59
27.66
25.18
20.92
15.09
8.26
1.21
-5.50
-11.51
-16.85
-21.91
-27.27
-33.50
-41.00
-49.66
-58.78
-67.06
-72.77
-74.25
-70.37
-61.01
-47.14
-30.54
-13.29
2.77
16.50
27.43
35.70
41.65
45.55
47.53
47.62
45.93
42.80
38.82
34.73
31.17
28.44
26.51
25.06
23.70
22.24
20.72
19.34
18.24
17.34
16.24
14.43
11.52
7.40
2.30
-3.22
-8.55
-13.18
-16.96
-20.03
-22.84
-26.01
-30.17
-35.85
-43.26
-52.12
-61.50
-69.85
-75.19
-75.72
-70.36
-59.20
-43.51
-25.46
-7.42
8.75
21.99
32.10
39.39
44.30
47.13
48.04
47.13
44.68
41.23
37.53
34.34
32.23
31.39
31.63
32.50
33.47
34.16
34.34
34.01
33.20
31.95
30.18
27.74
24.46
20.22
15.01
9.02
2.59
-3.81
-9.76
-14.97
-19.46
-23.42
-27.20
-31.16
-35.68
-41.11
-47.64
-55.09
-62.74
-69.22
-72.78
-71.79
-65.37
-53.73
-38.24
-20.93
-3.83
11.53
24.34
34.41
41.90
47.05
50.08
51.22
50.78
49.21
46.98
44.51
42.14
40.11
38.48
37.31
36.43
35.65
34.64
33.14
30.91
27.96
24.41
20.51
16.48
12.46
8.48
4.49
0.43
-3.73
-8.02
-12.42
-16.82
-21.08
-25.00
-28.43
-31.36
-34.04
-36.88
-40.42
-45.14
-51.15
-58.03
-64.62
-69.29
-70.31
-66.35
-57.00
-42.95
-25.88
-7.98
8.67
22.61
33.18
40.45
44.99
47.39
48.09
47.31
45.21
42.05
38.29
34.52
31.31
29.08
27.85
27.45
27.58
27.90
28.15
28.09
27.48
26.08
23.75
20.50
16.54
12.23
7.89
3.77
-0.12
-3.91
-7.75
-11.65
-15.58
-19.32
-22.69
-25.69
-28.39
-31.04
-33.96
-37.51
-41.99
-47.51
-53.80
-60.01
-64.76
-66.35
-63.29
-54.96
-41.83
-25.49
-8.20
7.89
21.24
31.21
37.98
42.10
44.15
44.52
43.41
41.06
37.89
34.57
31.78
30.02
29.48
29.89
30.75
31.57
32.06
32.21
32.17
32.01
31.58
30.51
28.41
25.11
20.74
15.78
10.77
6.14
2.01
-1.83
-5.77
-10.17
-15.11
-20.43
-25.68
-30.35
-34.07
-36.78
-38.79
-40.71
-43.27
-47.10
-52.47
-59.14
-66.19
-72.11
-75.12
-73.60
-66.69
-54.61
-38.75
-21.19
-4.14
10.69
22.41
30.83
36.27
39.16
39.90
38.85
36.49
33.46
30.44
28.08
26.75
26.51
27.15
28.37
29.87
31.50
33.14
34.69
35.92
36.44
35.88
34.00
30.86
26.80
22.32
17.97
14.09
10.80
7.96
5.21
2.17
-1.47
-5.78
-10.56
-15.41
-19.87
-23.65
-26.81
-29.76
-33.15
-37.65
-43.59
-50.76
-58.19
-64.36
-67.50
-66.09
-59.46
-47.98
-33.06
-16.74
-1.08
12.32
22.65
29.81
34.19
36.26
36.40
34.89
32.01
28.22
24.13
20.47
17.91
16.84
17.22
18.68
20.60
22.35
23.46
23.67
22.99
21.53
19.44
16.81
13.65
9.93
5.66
0.92
-4.13
-9.32
-14.55
-19.75
-24.83
-29.67
-34.11
-38.04
-41.51
-44.80
-48.38
-52.80
-58.31
-64.61
-70.64
-74.78
-75.28
-70.81
-61.03
-46.74
-29.67
-11.95
4.44
18.17
28.62
35.79
40.01
41.76
41.51
39.68
36.74
33.24
29.74
26.93
25.31
25.09
26.05
27.57
28.93
29.53
29.16
27.97
26.34
24.54
22.61
20.28
17.14
12.87
7.43
1.08
-5.62
-12.05
-17.73
-22.46
-26.31
-29.63
-32.88
-36.56
-41.08
-46.58
-52.84
-59.13
-64.22
-66.61
-64.92
-58.45
-47.46
-33.17
-17.39
-2.02
11.52
22.43
30.52
35.95
39.00
39.91
38.96
36.52
33.11
29.38
25.91
23.17
21.32
20.24
19.60
18.95
17.96
16.54
14.82
13.10
11.59
10.25
8.72
6.50
3.13
-1.53
-7.15
-13.10
-18.72
-23.61
-27.76
-31.53
-35.48
-40.11
-45.74
-52.33
-59.48
-66.28
-71.42
-73.35
-70.68
-62.69
-49.71
-33.19
-15.31
1.67
16.01
26.87
34.26
38.69
40.68
40.67
38.90
35.74
31.75
27.72
24.48
22.59
22.17
22.84
23.99
25.01
25.57
25.72
25.66
25.58
25.36
24.62
22.79
19.47
14.61
8.53
1.92
-4.45
-10.07
-14.78
-18.87
-22.96
-27.79
-33.97
-41.77
-50.85
-60.22
-68.35
-73.48
-74.09
-69.29
-59.18
-44.87
-28.19
-11.16
4.47
17.56
27.68
34.87
39.42
41.60
41.69
39.99
37.09
33.71
30.70
28.69
27.95
28.20
28.91
29.52
29.69
29.42
28.96
28.48
27.92
26.96
25.10
21.90
17.26
11.40
4.89
-1.61
-7.60
-12.95
-17.96
-23.20
-29.29
-36.61
-45.17
-54.44
-63.41
-70.65
-74.58
-73.87
-67.84
-56.79
-42.01
-25.38
-8.93
5.70
17.62
26.64
32.98
37.02
39.04
39.25
37.95
35.64
33.00
30.78
29.53
29.47
30.41
31.86
33.23
34.04
34.04
33.26
31.87
30.06
27.92
25.38
22.25
18.33
13.60
8.23
2.64
-2.65
-7.25
-11.06
-14.35
-17.64
-21.52
-26.48
-32.79
-40.29
-48.30
-55.67
-60.82
-62.16
-58.53
-49.67
-36.43
-20.53
-4.13
10.88
23.25
32.58
39.11
43.34
45.71
46.49
45.85
44.00
41.26
38.22
35.48
33.58
32.81
33.08
33.97
34.90
35.31
34.91
33.67
31.86
29.77
27.56
25.18
22.37
18.84
14.44
9.30
3.72
-1.86
-7.09
-11.75
-15.78
-19.31
-22.61
-26.05
-29.96
-34.69
-40.44
-47.12
-54.19
-60.63
-65.10
-66.09
-62.46
-53.81
-40.73
-24.68
-7.69
8.29
21.86
32.37
39.91
44.89
47.78
48.95
48.66
47.21
45.04
42.72
40.78
39.53
39.02
38.96
38.98
38.75
38.09
36.92
35.20
32.90
30.04
26.61
22.69
18.44
14.06
9.77
5.63
1.60
-2.46
-6.65
-11.04
-15.51
-19.87
-23.86
-27.32
-30.29
-33.06
-36.13
-40.08
-45.32
-51.94
-59.52
-67.04
-72.97
-75.61
-73.55
-66.20
-54.00
-38.39
-21.38
-4.92
9.56
21.40
30.59
37.49
42.40
45.44
46.65
46.12
44.26
41.75
39.34
37.61
36.80
36.74
37.06
37.40
37.53
37.44
37.25
37.00
36.60
35.79
34.24
31.72
28.26
24.17
19.90
15.89
12.26
8.82
5.07
0.49
-5.17
-11.74
-18.63
-25.05
-30.38
-34.40
-37.41
-40.12
-43.40
-47.96
-54.06
-61.33
-68.66
-74.48
-76.99
-74.78
-67.27
-54.89
-39.08
-21.79
-4.99
9.77
21.65
30.42
36.25
39.55
40.79
40.43
38.96
36.92
34.91
33.45
32.90
33.36
34.68
36.50
38.43
40.10
41.37
42.16
42.47
42.29
41.48
39.88
37.32
33.75
29.32
24.35
19.33
14.70
10.76
7.43
4.43
1.29
-2.43
-6.82
-11.76
-16.80
-21.49
-25.52
-28.87
-31.85
-34.93
-38.62
-43.28
-49.02
-55.60
-62.30
-68.03
-71.41
-71.11
-66.25
-56.78
-43.55
-28.20
-12.65
1.41
12.85
21.27
26.84
30.00
31.25
31.05
29.76
27.78
25.60
23.72
22.57
22.40
23.11
24.32
25.52
26.31
26.56
26.46
26.28
26.19
26.07
25.49
24.03
21.47
17.96
13.93
9.92
6.31
3.28
0.64
-1.94
-4.83
-8.35
-12.55
-17.18
-21.79
-25.87
-29.02
-31.30
-33.17
-35.45
-38.94
-44.11
-50.76
-57.96
-64.17
-67.62
-66.77
-60.79
-49.91
-35.40
-19.21
-3.33
10.65
21.87
30.15
35.77
39.10
40.46
40.08
38.32
35.63
32.60
29.80
27.65
26.30
25.68
25.56
25.65
25.79
25.86
25.82
25.62
25.17
24.23
22.50
19.79
16.08
11.69
7.15
3.07
-0.17
-2.56
-4.54
-6.72
-9.58
-13.21
-17.28
-21.30
-24.82
-27.77
-30.44
-33.35
-37.05
-41.94
-48.16
-55.47
-63.16
-70.02
-74.43
-74.79
-70.06
-60.15
-46.15
-29.99
-13.83
0.58
12.25
20.97
27.06
30.93
32.95
33.37
32.42
30.49
28.08
25.76
24.00
23.03
22.88
23.41
24.39
25.62
26.93
28.12
28.99
29.19
28.43
26.51
23.51
19.67
15.40
11.09
6.92
2.90
-1.11
-5.24
-9.47
-13.67
-17.59
-21.01
-23.78
-25.98
-27.84
-29.82
-32.51
-36.48
-42.20
-49.52
-57.64
-65.02
-69.77
-70.12
-65.11
-54.90
-40.72
-24.56
-8.52
5.67
17.03
25.28
30.68
33.75
35.00
34.93
33.86
32.09
29.96
27.79
25.95
24.70
24.22
24.48
25.33
26.47
27.55
28.24
28.21
27.31
25.47
22.85
19.65
16.17
12.57
8.90
5.07
0.94
-3.57
-8.37
-13.27
-17.98
-22.29
-26.13
-29.62
-33.03
-36.76
-41.23
-46.82
-53.63
-61.31
-68.87
-74.70
-77.00
-74.28
-66.00
-52.78
-36.32
-18.87
-2.53
11.28
21.99
29.75
35.13
38.65
40.67
41.38
40.94
39.65
37.96
36.40
35.41
35.24
35.84
36.98
38.29
39.40
40.02
39.93
38.95
36.99
34.04
30.22
25.71
20.80
15.69
10.47
5.20
-0.16
-5.55
-10.88
-15.99
-20.71
-24.98
-28.86
-32.55
-36.29
-40.41
-45.19
-50.85
-57.24
-63.69
-68.96
-71.42
-69.56
-62.47
-50.36
-34.51
-16.96
0.13
15.01
26.71
35.06
40.34
43.09
43.78
42.74
40.28
36.77
32.73
28.78
25.57
23.55
22.84
23.19
24.06
24.88
25.20
24.75
23.49
21.43
18.66
15.23
11.29
7.01
2.57
-1.95
-6.61
-11.60
-17.05
-22.76
-28.16
-32.40
-34.67
-34.50
-31.97
-27.69
-22.58
-17.57
-13.28
-9.69
-6.03
-0.92
7.28
19.88
37.16
58.00
79.99
99.82
114.12
120.21
116.61
103.14
80.92
51.85
18.33
-17.04
-51.86
-84.08
-112.22
-135.39
-153.35
-166.45
-175.42
-181.17
-184.53
-186.01
-185.80
-183.88
-180.24
-174.98
-168.33
-160.53
-151.86
-142.52
-132.76
-122.80
-112.77
-102.57
-91.81
-79.86
-66.08
-50.16
-32.28
-13.08
6.50
25.63
43.74
60.64
76.38
91.14
105.11
118.53
131.74
145.10
158.87
173.02
187.21
200.81
213.29
224.19
233.22
240.04
244.14
244.98
242.19
235.94
227.07
217.00
207.15
198.34
190.36
181.74
170.07
152.45
126.26
89.98
43.98
-9.10
-64.48
-116.24
-158.80
-188.43
-204.19
-207.95
-203.36
-194.45
-184.38
-174.85
-166.35
-158.85
-152.40
-147.44
-144.61
-144.29
-146.18
-149.07
-151.08
-150.15
-144.72
-134.24
-119.21
-101.01
-81.23
-61.29
-42.13
-24.29
-8.09
6.09
17.83
26.80
32.99
36.77
38.81
39.83
40.48
41.13
41.90
42.81
43.77
44.77
45.75
46.66
47.40
47.81
47.71
46.82
44.93
41.96
38.01
33.41
28.46
23.43
18.37
13.19
7.82
2.25
-3.34
-8.78
-13.95
-19.01
-24.27
-30.21
-37.22
-45.47
-54.71
-64.22
-72.77
-78.80
-80.82
-77.84
-69.78
-57.54
-42.76
-27.36
-12.97
-0.63
9.32
16.97
22.53
26.12
27.65
26.99
24.18
19.64
14.21
9.07
5.37
3.89
4.78
7.49
11.17
15.12
19.17
23.88
30.29
39.28
50.99
64.47
77.91
89.23
96.89
100.47
100.38
97.72
93.62
89.25
85.74
84.21
85.53
89.76
95.70
100.99
102.86
99.44
90.72
78.80
67.05
58.86
56.20
59.08
65.73
73.34
79.03
80.71
77.55
70.23
60.91
52.74
49.28
53.67
67.79
91.60
122.85
157.51
190.29
215.98
230.45
231.65
220.00
198.15
170.03
139.71
110.21
82.73
56.82
31.15
4.62
-22.70
-49.49
-73.79
-94.02
-109.70
-121.68
-131.40
-140.11
-148.09
-154.56
-158.15
-157.66
-152.71
-143.93
-132.68
-120.59
-109.24
-100.05
-94.25
-92.82
-96.01
-103.02
-111.67
-118.93
-121.57
-117.26
-105.31
-86.73
-64.00
-40.21
-18.38
-0.84
11.13
17.44
19.07
17.68
15.19
13.03
11.96
12.08
13.20
15.09
17.72
21.12
25.15
29.51
33.77
37.51
40.42
42.29
42.97
42.41
40.68
38.04
34.85
31.40
27.80
23.90
19.49
14.54
9.42
4.75
1.22
-0.90
-1.89
-2.47
-3.54
-5.79
-9.52
-14.77
-21.36
-28.91
-36.77
-43.90
-48.97
-50.65
-48.13
-41.51
-31.93
-21.17
-10.99
-2.62
3.56
7.93
11.14
13.71
15.79
17.20
17.78
17.58
16.92
16.39
16.51
17.52
19.39
21.86
24.59
27.32
29.88
32.11
33.85
34.81
34.60
32.89
29.47
24.43
18.07
10.81
3.08
-4.78
-12.50
-19.86
-26.67
-32.75
-37.99
-42.38
-46.03
-49.10
-51.85
-54.56
-57.60
-61.20
-65.29
-69.26
-71.88
-71.59
-67.08
-57.79
-44.26
-28.07
-11.30
4.03
16.50
25.54
31.20
34.01
34.63
33.81
32.19
30.30
28.56
27.11
25.89
24.69
23.26
21.38
18.95
15.93
12.36
8.33
3.96
-0.59
-5.15
-9.58
-13.86
-18.06
-22.36
-26.85
-31.48
-35.99
-39.98
-43.08
-45.14
-46.27
-46.80
-47.18
-47.87
-49.37
-52.11
-56.31
-61.80
-67.82
-72.93
-75.43
-73.87
-67.65
-57.28
-44.21
-30.13
-16.48
-4.05
6.87
16.10
23.33
28.06
30.03
29.46
27.27
24.68
22.82
22.20
22.72
23.91
25.27
26.64
28.12
29.89
31.96
34.04
35.51
35.76
34.42
31.46
27.17
22.06
16.67
11.35
6.24
1.31
-3.53
-8.36
-13.21
-18.16
-23.45
-29.48
-36.61
-44.87
-53.70
-61.80
-67.41
-68.77
-64.60
-54.64
-39.66
-21.31
-1.67
17.20
33.64
46.52
55.19
59.40
59.25
55.11
47.72
38.11
27.39
16.67
6.83
-1.52
-7.99
-12.40
-14.73
-15.06
-13.71
-11.14
-7.99
-5.02
-3.03
-2.71
-4.38
-7.85
-12.33
-16.76
-20.08
-21.81
-22.20
-22.10
-22.69
-24.91
-29.32
-35.96
-44.59
-54.83
-66.19
-78.05
-89.35
-98.70
-104.47
-105.27
-100.43
-90.28
-76.09
-59.63
-42.70
-26.65
-12.22
0.41
11.34
20.83
29.31
37.21
45.15
53.66
62.97
72.78
82.11
89.48
93.31
92.52
87.02
77.88
67.14
57.14
49.89
46.52
47.08
50.56
55.21
58.84
59.24
54.90
45.45
32.16
17.71
5.26
-2.69
-5.28
-3.64
-0.24
2.17
1.61
-2.34
-8.63
-15.06
-18.99
-18.20
-11.66
-0.07
14.19
27.59
36.81
39.87
36.89
29.87
21.67
14.70
10.06
7.51
5.99
4.54
2.83
1.18
0.18
0.15
0.91
1.94
2.72
2.91
2.58
1.89
0.87
-0.73
-3.38
-7.52
-13.27
-20.22
-27.51
-34.10
-39.16
-42.38
-44.06
-45.08
-46.51
-49.24
-53.73
-59.91
-67.42
-75.77
-84.61
-93.78
-103.05
-111.84
-118.90
-122.60
-121.34
-114.28
-101.83
-85.55
-67.63
-50.13
-34.36
-20.82
-9.56
-0.63
5.71
9.02
9.09
6.13
0.89
-5.64
-12.51
-18.96
-24.43
-28.44
-30.72
-31.07
-29.52
-26.31
-21.83
-16.41
-10.22
-3.30
4.38
12.60
20.90
28.38
34.04
36.99
36.75
33.45
27.79
20.87
13.83
7.51
2.22
-2.18
-6.20
-10.39
-15.01
-19.92
-24.36
-27.02
-26.35
-20.91
-9.77
7.17
29.15
54.70
81.64
107.45
129.41
145.17
153.06
152.74
145.27
133.00
119.08
106.45
97.28
92.43
91.51
93.24
95.94
97.98
97.99
95.26
89.73
82.19
74.06
66.90
61.86
58.98
57.00
53.66
46.61
34.53
17.99
-0.67
-18.35
-32.49
-42.20
-48.34
-52.82
-57.34
-62.68
-68.64
-74.69
-80.75
-87.35
-95.31
-104.87
-115.07
-123.88
-128.89
-128.38
-121.91
-110.44
-95.75
-79.74
-63.89
-48.99
-35.30
-22.74
-11.38
-1.44
6.57
12.08
14.73
14.70
12.79
10.27
8.38
7.91
8.81
10.26
11.00
9.94
6.60
1.26
-5.18
-11.56
-16.65
-19.48
-19.41
-16.28
-10.45
-2.73
5.89
14.61
23.14
31.75
40.94
51.06
61.96
72.85
82.57
89.97
94.29
95.43
93.93
90.80
87.28
84.57
83.43
84.08
86.15
88.76
90.84
91.44
89.92
86.13
80.26
72.72
64.08
54.93
45.90
37.56
30.32
24.28
19.08
14.01
8.27
1.29
-6.91
-15.65
-23.83
-30.35
-34.56
-36.49
-36.75
-36.27
-35.85
-36.00
-36.75
-37.84
-38.93
-39.70
-40.09
-40.16
-40.15
-40.41
-41.30
-43.13
-46.11
-50.17
-54.82
-59.09
-61.65
-61.14
-56.75
-48.42
-37.02
-24.01
-10.94
1.02
11.26
19.67
26.40
31.43
34.63
35.79
34.84
32.04
28.05
23.73
19.90
17.16
15.62
15.00
14.74
14.30
13.35
11.89
10.22
8.76
7.80
7.38
7.20
6.71
5.33
2.69
-1.30
-6.34
-11.96
-17.64
-23.00
-27.84
-32.32
-36.83
-41.84
-47.78
-54.67
-61.98
-68.60
-72.93
-73.31
-68.54
-58.33
-43.58
-26.20
-8.61
6.99
19.22
27.77
33.20
36.42
38.22
38.94
38.56
36.99
34.37
31.18
28.03
25.53
24.05
23.63
24.20
25.49
27.23
29.09
30.60
31.40
31.14
29.73
27.28
24.04
20.34
16.33
12.09
7.53
2.49
-3.10
-9.11
-15.11
-20.49
-24.63
-27.19
-28.40
-29.18
-30.92
-35.17
-43.01
-54.50
-68.40
-82.31
-93.30
-98.76
-97.30
-89.13
-75.86
-59.91
-43.60
-28.62
-15.76
-5.13
3.44
10.11
14.92
17.87
19.06
18.70
17.01
14.14
10.21
5.34
-0.07
-5.26
-9.26
-11.11
-10.25
-6.81
-1.56
4.36
9.86
14.21
17.25
19.25
20.65
21.83
22.92
23.84
24.44
24.64
24.58
24.63
25.18
26.54
28.72
31.41
34.05
36.02
36.77
36.10
34.21
31.79
29.84
29.65
32.27
38.32
47.63
59.25
71.73
83.55
93.52
101.04
105.97
108.40
108.30
105.39
99.32
89.93
77.53
62.92
47.34
32.16
18.57
7.40
-1.11
-7.37
-12.29
-16.95
-22.22
-28.38
-35.05
-41.57
-47.23
-51.75
-55.25
-58.14
-60.71
-63.00
-64.86
-66.27
-67.61
-69.54
-72.84
-77.86
-84.33
-91.33
-97.66
-102.31
-104.80
-105.43
-104.97
-104.53
-105.09
-107.26
-111.12
-116.11
-121.08
-124.44
-124.52
-119.94
-109.98
-94.81
-75.30
-52.88
-29.14
-5.60
16.49
36.14
52.64
65.55
74.67
80.15
82.45
82.24
80.32
77.41
74.00
70.32
66.40
62.27
58.03
53.96
50.42
47.60
45.44
43.63
41.66
39.17
35.98
32.16
27.98
23.73
19.63
15.75
11.99
8.10
3.75
-1.36
-7.36
-14.11
-21.23
-28.23
-34.57
-40.02
-44.58
-48.58
-52.53
-56.97
-62.38
-68.80
-75.74
-81.96
-85.78
-85.43
-79.68
-68.43
-52.75
-34.58
-16.11
0.87
15.42
27.26
36.59
43.64
48.51
51.16
51.66
50.35
47.85
44.92
42.23
40.22
38.93
38.15
37.55
36.82
35.89
34.79
33.61
32.35
30.78
28.50
25.10
20.43
14.70
8.52
2.61
-2.41
-6.31
-9.29
-11.86
-14.59
-17.79
-21.52
-25.51
-29.38
-32.76
-35.49
-37.65
-39.60
-41.88
-45.13
-49.87
-56.29
-63.97
-71.81
-78.17
-81.17
-79.29
-71.84
-59.34
-43.25
-25.70
-8.72
6.14
18.07
26.94
32.95
36.44
37.68
36.98
34.70
31.43
27.82
24.49
21.86
20.12
19.27
19.15
19.63
20.64
22.11
23.95
25.97
27.86
29.16
29.47
28.50
26.28
23.11
19.55
16.19
13.41
11.22
9.21
6.83
3.58
-0.65
-5.57
-10.68
-15.44
-19.69
-23.61
-27.75
-32.79
-39.34
-47.67
-57.61
-68.38
-78.52
-86.19
-89.44
-86.87
-78.02
-63.69
-45.70
-26.30
-7.68
8.66
22.02
32.35
39.91
44.96
47.70
48.32
47.22
44.94
42.22
39.73
37.87
36.74
36.12
35.72
35.25
34.61
33.72
32.57
30.99
28.84
26.07
22.89
19.72
17.07
15.27
14.30
13.72
12.87
11.01
7.70
2.77
-3.50
-10.66
-18.13
-25.35
-31.98
-37.78
-42.88
-47.60
-52.37
-57.60
-63.26
-68.73
-72.85
-74.16
-71.45
-64.22
-53.05
-39.46
-25.49
-12.96
-3.00
4.12
8.74
11.47
12.75
12.79
11.67
9.42
6.35
2.90
-0.36
-3.09
-5.11
-6.48
-7.36
-7.89
-8.18
-8.31
-8.43
-8.72
-9.46
-10.87
-12.98
-15.55
-18.10
-20.10
-21.18
-21.24
-20.49
-19.35
-18.30
-17.75
-17.92
-18.83
-20.32
-22.14
-24.12
-26.20
-28.59
-31.71
-36.05
-41.92
-49.16
-56.97
-63.91
-68.25
-68.47
-63.63
-53.77
-39.85
-23.41
-6.09
10.76
26.29
40.05
51.74
61.06
67.63
71.21
71.88
70.19
67.08
63.64
60.80
59.10
58.63
59.14
60.21
61.52
62.80
63.93
64.74
65.00
64.50
63.20
61.26
59.03
56.91
55.08
53.39
51.31
48.14
43.32
36.63
28.24
18.62
8.40
-1.84
-11.68
-20.83
-29.24
-37.02
-44.33
-51.32
-57.79
-63.03
-65.88
-64.99
-59.39
-48.95
-34.63
-18.11
-1.31
14.37
28.24
40.30
50.74
59.54
66.35
70.68
72.49
72.37
71.48
70.98
71.46
72.72
73.88
74.01
72.63
70.01
66.91
64.13
62.08
60.65
59.42
57.97
56.10
53.69
50.47
45.85
38.95
29.14
16.32
1.22
-14.83
-30.32
-44.19
-56.00
-66.03
-74.95
-83.50
-92.29
-101.64
-111.53
-121.38
-130.06
-136.00
-137.47
-133.19
-122.71
-106.62
-86.38
-63.95
-41.20
-19.66
-0.31
16.37
30.11
40.87
48.63
53.50
55.81
56.10
55.18
53.90
53.04
53.00
53.77
54.95
56.00
56.40
55.81
54.05
51.16
47.31
42.76
37.87
32.92
28.01
23.10
17.90
12.14
5.61
-1.60
-9.18
-16.64
-23.58
-29.86
-35.67
-41.57
-48.28
-56.43
-66.36
-77.83
-89.98
-101.36
-110.13
-114.44
-112.78
-104.40
-89.49
-69.30
-45.79
-21.19
2.48
23.90
42.48
58.16
71.14
81.53
89.29
94.37
96.84
96.97
95.29
92.34
88.56
84.36
80.04
75.87
72.12
68.88
66.01
63.15
59.83
55.66
50.50
44.47
37.94
31.32
24.94
18.91
13.07
7.02
0.29
-7.40
-15.95
-24.89
-33.49
-41.09
-47.36
-52.44
-56.84
-61.38
-66.80
-73.56
-81.55
-89.86
-96.82
-100.28
-98.22
-89.55
-74.61
-55.21
-34.04
-13.83
3.54
17.28
27.57
35.04
40.32
43.79
45.67
46.22
45.84
45.03
44.27
43.83
43.78
44.04
44.46
44.97
45.53
46.19
47.08
48.34
49.96
51.68
53.08
53.55
52.56
49.88
45.61
40.19
34.19
28.21
22.60
17.52
13.00
8.93
5.23
1.60
-2.38
-7.43
-14.42
-24.08
-36.63
-51.68
-68.21
-84.86
-100.30
-113.31
-122.86
-127.93
-127.61
-121.27
-109.05
-92.05
-72.17
-51.68
-32.50
-15.71
-1.61
9.91
18.96
25.32
28.63
28.84
26.41
22.38
18.05
14.51
12.28
11.27
10.99
10.88
10.55
9.85
8.80
7.36
5.45
2.98
-0.13
-3.83
-8.01
-12.50
-17.26
-22.28
-27.62
-33.28
-39.11
-44.77
-49.81
-53.72
-56.14
-56.99
-56.52
-55.31
-54.16
-53.99
-55.50
-58.98
-63.99
-69.30
-72.99
-72.88
-67.22
-55.23
-37.48
-15.72
7.72
30.57
51.16
68.62
82.66
93.26
100.42
104.12
104.53
102.19
98.00
93.14
88.71
85.43
83.50
82.69
82.53
82.71
83.12
83.88
85.08
86.53
87.71
87.83
86.17
82.39
76.61
69.35
61.20
52.53
43.45
33.72
23.03
11.15
-1.95
-16.08
-30.74
-45.39
-59.42
-72.43
-84.32
-95.35
-106.08
-117.21
-129.16
-141.79
-154.17
-164.58
-170.86
-171.01
-163.83
-149.40
-129.12
-105.35
-80.70
-57.33
-36.45
-18.40
-2.95
10.17
21.06
29.58
35.58
39.14
40.76
41.17
41.20
41.43
42.16
43.44
45.23
47.47
50.07
52.75
54.91
55.69
54.29
50.41
44.72
38.81
34.77
34.28
37.86
44.44
51.68
56.87
57.91
54.02
45.77
34.62
22.05
8.97
-4.43
-18.43
-33.30
-48.90
-64.53
-79.02
-90.92
-98.80
-101.48
-98.23
-88.89
-73.99
-54.69
-32.74
-10.24
10.74
28.48
41.92
50.77
55.39
56.61
55.26
52.11
47.75
42.69
37.47
32.66
28.79
26.14
24.74
24.24
24.08
23.55
22.01
18.93
13.93
6.91
-2.00
-12.42
-23.79
-35.47
-46.84
-57.36
-66.80
-75.27
-83.27
-91.53
-100.76
-111.36
-123.20
-135.74
-148.59
-161.86
-176.01
-191.36
-207.15
-220.68
-227.81
-224.04
-206.01
-172.76
-126.08
-70.22
-11.07
44.87
91.43
123.92
139.92
139.88
126.98
106.12
82.49
60.24
42.03
29.24
22.46
21.95
27.48
38.08
52.07
67.30
81.85
94.63
105.37
114.26
121.64
127.44
131.14
132.17
130.24
125.60
119.01
111.45
103.69
96.06
88.39
80.26
71.30
61.45
51.01
40.48
30.33
20.74
11.55
2.24
-7.83
-19.11
-31.60
-44.66
-56.94
-66.58
-71.58
-70.50
-62.89
-49.59
-32.46
-13.88
3.92
19.41
31.88
41.29
47.92
52.03
53.87
53.76
52.21
49.98
47.90
46.68
46.69
47.94
50.07
52.64
55.29
57.81
60.13
62.08
63.22
62.77
59.77
53.39
43.33
30.06
14.74
-1.02
-15.75
-28.50
-38.98
-47.46
-54.43
-60.26
-65.05
-68.78
-71.35
-72.88
-73.75
-74.60
-76.18
-79.18
-83.98
-90.58
-98.36
-106.02
-111.74
-113.51
-109.60
-99.24
-82.86
-61.96
-38.73
-15.41
6.22
25.02
40.34
51.90
59.51
63.14
63.20
60.54
56.47
52.42
49.49
48.09
47.92
48.28
48.44
48.09
47.36
46.63
46.24
46.22
46.26
45.94
44.89
43.02
40.51
37.62
34.60
31.57
28.42
24.84
20.45
14.77
7.44
-1.76
-12.73
-25.00
-37.74
-49.90
-60.39
-68.21
-72.68
-73.60
-71.15
-65.77
-57.67
-46.69
-32.34
-14.29
7.03
30.08
52.40
71.57
86.12
96.14
102.98
108.42
113.62
118.54
122.05
122.66
119.18
111.13
98.60
82.15
62.72
41.72
21.08
2.98
-10.73
-19.20
-22.86
-23.21
-22.19
-21.30
-21.19
-21.58
-21.56
-20.25
-17.04
-11.95
-5.51
1.32
7.44
11.80
13.64
12.56
8.52
1.76
-7.39
-18.49
-31.07
-44.56
-58.37
-71.88
-84.48
-95.53
-104.13
-109.15
-109.33
-103.71
-92.02
-75.14
-54.91
-33.73
-13.91
2.95
16.09
25.44
31.38
34.27
34.54
32.53
28.84
24.18
19.41
15.33
12.46
10.99
10.74
11.32
12.23
13.01
13.31
12.98
11.98
10.38
8.30
5.78
2.81
-0.66
-4.71
-9.34
-14.38
-19.56
-24.56
-29.06
-32.88
-35.98
-38.51
-40.77
-43.21
-46.34
-50.62
-56.09
-62.18
-67.65
-70.73
-69.71
-63.50
-52.15
-36.83
-19.52
-2.35
12.93
25.27
34.32
40.11
42.87
42.90
40.57
36.48
31.47
26.50
22.42
19.74
18.57
18.58
19.21
19.88
20.20
20.04
19.54
18.93
18.34
17.65
16.54
14.52
11.26
6.71
1.20
-4.65
-10.26
-15.26
-19.65
-23.81
-28.35
-33.89
-40.89
-49.40
-59.02
-68.72
-77.03
-82.24
-82.82
-77.88
-67.38
-52.38
-34.56
-15.98
1.46
16.37
27.94
35.94
40.47
41.85
40.47
36.89
31.82
26.20
21.03
17.19
15.07
14.48
14.73
14.96
14.53
13.39
11.90
10.65
9.99
9.77
9.32
7.81
4.55
-0.65
-7.37
-14.86
-22.26
-29.00
-34.93
-40.35
-45.90
-52.37
-60.41
-70.30
-81.67
-93.35
-103.42
-109.67
-110.15
-103.80
-90.90
-73.00
-52.52
-32.10
-13.83
1.23
13.22
23.14
32.31
41.73
51.64
61.62
70.85
78.77
85.28
90.76
95.64
100.02
103.52
105.47
105.41
103.18
99.04
93.25
85.93
77.09
66.85
55.80
44.89
35.13
26.95
20.04
13.26
5.28
-4.75
-16.90
-30.45
-44.35
-57.67
-69.94
-81.00
-90.66
-98.36
-103.11
-103.74
-99.41
-90.04
-76.54
-60.64
-44.32
-29.28
-16.54
-6.28
1.84
8.28
13.37
17.14
19.54
20.62
20.75
20.54
20.70
21.64
23.42
25.69
27.92
29.63
30.58
30.82
30.53
29.94
29.16
28.13
26.69
24.63
21.79
18.05
13.50
8.32
2.87
-2.55
-7.65
-12.29
-16.50
-20.41
-24.22
-28.19
-32.67
-38.02
-44.47
-51.86
-59.33
-65.38
-68.13
-65.85
-57.76
-44.27
-26.98
-8.23
9.69
25.13
37.31
46.22
52.31
55.99
57.52
57.04
54.80
51.28
47.25
43.61
41.17
40.47
41.61
44.25
47.82
51.67
55.17
57.90
59.61
60.15
59.51
57.67
54.67
50.64
45.82
40.49
34.99
29.57
24.39
19.54
15.02
10.88
6.99
3.13
-1.22
-6.74
-14.15
-23.91
-35.91
-49.31
-62.49
-73.42
-80.16
-81.50
-77.24
-68.35
-56.55
-43.70
-31.37
-20.44
-11.32
-4.08
1.24
4.60
6.08
6.08
5.40
4.93
5.50
7.49
10.74
14.78
18.97
22.94
26.58
30.14
33.98
38.33
43.12
47.96
52.31
55.64
57.71
58.57
58.59
58.20
57.67
57.01
55.98
54.25
51.41
47.17
41.27
33.61
24.29
13.62
2.14
-9.62
-21.27
-32.88
-44.72
-56.97
-69.24
-80.31
-88.41
-91.71
-89.11
-80.61
-67.43
-51.49
-34.86
-19.18
-5.51
5.65
14.07
19.70
22.64
23.23
22.16
20.32
18.64
17.84
18.19
19.51
21.34
23.24
24.95
26.56
28.27
30.22
32.26
34.00
34.88
34.44
32.53
29.31
25.16
20.55
15.76
10.98
6.20
1.36
-3.64
-8.77
-13.89
-18.69
-22.79
-25.90
-28.02
-29.45
-30.83
-32.97
-36.56
-42.00
-49.24
-57.56
-65.71
-71.94
-74.41
-71.70
-63.35
-50.11
-33.77
-16.65
-0.85
12.26
22.17
29.10
33.54
35.87
36.32
35.02
32.31
28.80
25.33
22.65
21.23
21.06
21.69
22.63
23.48
24.14
24.85
25.79
27.01
28.23
28.98
28.75
27.26
24.57
21.04
17.21
13.53
10.21
7.14
4.00
0.42
-3.84
-8.70
-13.85
-18.80
-23.16
-26.77
-29.76
-32.51
-35.57
-39.56
-44.98
-52.07
-60.55
-69.43
-77.13
-81.62
-81.15
-74.69
-62.52
-46.08
-27.60
-9.44
6.66
19.73
29.66
36.75
41.42
43.97
44.63
43.70
41.67
39.26
37.18
35.94
35.70
36.19
36.99
37.68
38.04
38.11
37.97
37.67
37.06
35.80
33.59
30.30
26.11
21.44
16.82
12.67
9.15
6.02
2.86
-0.76
-5.13
-10.28
-15.89
-21.52
-26.75
-31.34
-35.39
-39.25
-43.51
-48.76
-55.41
-63.42
-72.16
-80.29
-86.05
-87.62
-83.74
-74.10
-59.60
-42.05
-23.65
-6.44
8.21
19.67
27.97
33.47
36.66
37.97
37.84
36.69
34.98
33.17
31.65
30.61
30.10
30.00
30.17
30.41
30.59
30.60
30.31
29.55
28.18
26.12
23.46
20.35
17.05
13.70
10.31
6.85
3.21
-0.70
-4.82
-9.01
-13.06
-16.77
-20.06
-23.08
-26.13
-29.63
-34.02
-39.57
-46.24
-53.45
-60.08
-64.58
-65.37
-61.34
-52.29
-39.09
-23.45
-7.46
7.07
19.00
27.94
34.03
37.65
39.16
38.83
37.02
34.15
30.84
27.78
25.52
24.40
24.41
25.28
26.59
27.93
29.00
29.59
29.59
28.94
27.61
25.58
22.91
19.68
15.98
11.89
7.42
2.61
-2.49
-7.77
-13.07
-18.22
-23.15
-27.88
-32.53
-37.29
-42.36
-47.99
-54.33
-61.29
-68.28
-74.15
-77.31
-76.18
-69.75
-58.07
-42.38
-24.73
-7.43
7.65
19.48
27.88
33.26
36.27
37.47
37.24
35.90
33.79
31.32
29.01
27.32
26.52
26.65
27.52
28.74
29.94
30.81
31.09
30.65
29.45
27.51
24.83
21.52
17.62
13.23
8.48
3.46
-1.68
-6.82
-11.78
-16.43
-20.61
-24.28
-27.51
-30.51
-33.64
-37.36
-42.08
-48.02
-55.00
-62.22
-68.27
-71.38
-69.96
-63.15
-51.13
-35.24
-17.53
-0.14
15.20
27.51
36.52
42.49
45.87
47.16
46.80
45.17
42.64
39.67
36.70
34.15
32.34
31.38
31.21
31.64
32.39
33.17
33.77
33.93
33.41
32.02
29.65
26.39
22.46
18.19
13.85
9.46
4.85
-0.17
-5.72
-11.70
-17.72
-23.35
-28.27
-32.46
-36.25
-40.12
-44.65
-50.23
-57.02
-64.68
-72.34
-78.61
-81.82
-80.48
-73.77
-61.95
-46.33
-28.94
-11.93
3.01
14.99
23.84
29.91
33.69
35.61
35.98
35.16
33.56
31.67
29.97
28.78
28.20
28.14
28.45
28.97
29.64
30.47
31.40
32.21
32.56
32.05
30.38
27.57
23.87
19.75
15.64
11.80
8.19
4.56
0.60
-3.90
-8.90
-14.09
-19.07
-23.48
-27.20
-30.46
-33.75
-37.74
-42.99
-49.72
-57.54
-65.43
-71.83
-75.01
-73.60
-67.05
-55.90
-41.60
-26.08
-11.23
1.63
11.86
19.43
24.56
27.53
28.50
27.65
25.25
21.84
18.14
14.91
12.80
12.11
12.84
14.63
16.98
19.38
21.42
22.95
23.95
24.61
25.15
25.87
26.93
28.43
30.40
32.75
35.36
37.94
40.13
41.52
41.67
40.32
37.46
33.43
28.76
24.03
19.68
15.85
12.33
8.70
4.51
-0.54
-6.39
-12.68
-18.81
-24.20
-28.52
-31.84
-34.56
-37.37
-41.02
-46.07
-52.70
-60.53
-68.51
-75.02
-78.21
-76.48
-69.05
-56.32
-39.72
-21.40
-3.59
11.96
24.36
33.40
39.44
42.96
44.41
44.19
42.73
40.57
38.32
36.63
35.89
36.18
37.21
38.51
39.60
40.21
40.28
39.93
39.24
38.19
36.62
34.32
31.14
27.14
22.62
18.03
13.83
10.31
7.52
5.24
3.05
0.51
-2.71
-6.70
-11.30
-16.14
-20.79
-24.95
-28.47
-31.53
-34.54
-38.11
-42.87
-49.21
-56.96
-65.29
-72.69
-77.27
-77.30
-71.79
-60.86
-45.76
-28.49
-11.20
4.31
16.97
26.42
32.84
36.68
38.49
38.79
38.08
36.86
35.63
34.76
34.53
35.06
36.18
37.64
39.04
40.08
40.54
40.39
39.69
38.52
36.87
34.63
31.64
27.82
23.29
18.37
13.57
9.35
5.98
3.40
1.24
-1.04
-3.96
-7.78
-12.48
-17.70
-22.96
-27.79
-31.95
-35.47
-38.65
-42.02
-46.19
-51.61
-58.41
-66.18
-73.86
-79.82
-82.21
-79.52
-71.05
-57.27
-39.79
-20.89
-2.87
12.57
24.60
33.22
38.90
42.25
43.66
43.43
41.82
39.29
36.51
34.28
33.13
33.29
34.55
36.38
38.17
39.47
40.10
40.08
39.54
38.55
37.03
34.79
31.60
27.36
22.15
16.33
10.45
5.08
0.63
-2.90
-5.86
-8.82
-12.33
-16.58
-21.38
-26.20
-30.51
-33.92
-36.48
-38.57
-40.70
-43.36
-46.95
-51.70
-57.53
-63.98
-70.01
-74.13
-74.68
-70.36
-60.78
-46.64
-29.65
-11.97
4.34
17.88
28.03
34.87
38.95
40.88
41.25
40.42
38.66
36.25
33.54
30.98
29.02
27.96
27.78
28.28
29.04
29.79
30.39
30.90
31.37
31.62
31.29
29.91
27.15
23.06
18.13
13.06
8.57
5.03
2.33
0.04
-2.46
-5.62
-9.60
-14.17
-18.92
-23.34
-27.10
-30.15
-32.76
-35.43
-38.78
-43.37
-49.48
-56.84
-64.51
-70.97
-74.43
-73.39
-67.09
-55.87
-41.02
-24.43
-8.12
6.31
17.88
26.32
31.73
34.50
35.04
33.78
31.28
28.17
25.12
22.75
21.47
21.30
21.94
22.93
23.89
24.66
25.26
25.85
26.42
26.77
26.51
25.23
22.66
18.86
14.15
8.97
3.79
-1.07
-5.51
-9.62
-13.56
-17.49
-21.39
-25.07
-28.27
-30.69
-32.27
-33.31
-34.42
-36.31
-39.64
-44.61
-50.79
-57.10
-61.93
-63.52
-60.49
-52.30
-39.49
-23.55
-6.53
9.56
23.25
33.81
41.22
45.80
47.99
48.18
46.67
43.84
40.26
36.61
33.54
31.53
30.69
30.82
31.49
32.26
32.84
33.17
33.21
32.93
32.14
30.54
27.89
24.15
19.54
14.53
9.64
5.23
1.35
-2.13
-5.52
-9.05
-12.79
-16.63
-20.26
-23.44
-26.09
-28.45
-30.98
-34.37
-39.20
-45.71
-53.61
-61.92
-69.07
-73.31
-73.12
-67.70
-57.31
-43.14
-27.04
-10.99
3.39
15.16
24.06
30.28
34.26
36.42
37.08
36.57
35.26
33.62
32.12
31.06
30.54
30.41
30.39
30.23
29.81
29.13
28.26
27.24
26.00
24.41
22.40
19.98
17.29
14.56
11.99
9.73
7.76
5.90
3.82
1.18
-2.23
-6.39
-11.02
-15.72
-20.12
-24.08
-27.84
-31.87
-36.81
-43.09
-50.69
-58.84
-66.14
-70.77
-71.04
-65.89
-55.37
-40.68
-23.80
-6.94
8.18
20.51
29.83
36.37
40.57
42.76
43.19
42.13
40.03
37.51
35.18
33.49
32.57
32.24
32.20
32.17
32.04
31.88
31.76
31.66
31.32
30.34
28.29
25.02
20.63
15.55
10.23
5.06
0.21
-4.36
-8.81
-13.27
-17.74
-22.11
-26.13
-29.58
-32.38
-34.65
-36.75
-39.29
-42.91
-48.11
-54.96
-62.90
-70.65
-76.48
-78.62
-75.80
-67.72
-55.19
-39.92
-23.98
-9.20
3.24
12.88
19.83
24.49
27.31
28.66
28.94
28.59
28.07
27.74
27.76
28.08
28.41
28.52
28.35
28.03
27.81
27.79
27.78
27.27
25.63
22.42
17.67
11.90
5.89
0.43
-4.08
-7.77
-11.17
-15.14
-20.50
-27.87
-37.34
-48.26
-59.11
-67.60
-71.48
-69.36
-61.64
-50.53
-39.41
-31.44
-28.19
-29.14
-32.02
-34.08
-33.23
-28.76
-21.31
-12.13
-2.58
6.40
14.23
20.43
24.50
26.02
24.76
21.02
15.70
10.12
5.80
3.85
4.73
8.04
12.81
17.87
22.40
26.19
29.49
32.77
36.39
40.39
44.60
48.77
52.74
56.36
59.56
62.15
63.88
64.52
63.90
61.94
58.63
53.94
47.99
41.00
33.42
25.80
18.61
12.07
6.07
0.08
-6.57
-14.51
-24.05
-34.87
-45.93
-55.68
-62.33
-64.40
-61.20
-53.14
-41.60
-28.50
-15.69
-4.47
4.59
11.55
16.73
20.40
22.60
23.25
22.36
20.33
17.81
15.62
14.43
14.46
15.49
17.11
18.83
20.35
21.61
22.66
23.43
23.78
23.41
22.08
19.77
16.75
13.44
10.31
7.64
5.48
3.53
1.38
-1.44
-5.18
-9.70
-14.62
-19.29
-23.17
-25.99
-27.90
-29.54
-31.69
-35.08
-40.03
-46.22
-52.69
-57.99
-60.53
-58.99
-52.65
-41.72
-27.16
-10.56
6.29
21.81
34.92
45.15
52.53
57.41
60.18
61.19
60.65
58.74
55.69
51.80
47.35
42.54
37.45
32.05
26.34
20.46
14.79
9.79
5.85
3.13
1.42
0.28
-0.88
-2.54
-4.98
-8.14
-11.64
-14.95
-17.55
-19.06
-19.49
-19.17
-18.69
-18.66
-19.49
-21.23
-23.65
-26.30
-28.87
-31.31
-33.86
-36.99
-41.08
-46.27
-52.25
-58.21
-62.96
-65.23
-63.89
-58.38
-48.84
-36.12
-21.57
-6.66
7.28
19.36
29.10
36.41
41.35
44.15
45.06
44.43
42.74
40.55
38.48
37.03
36.43
36.63
37.21
37.67
37.51
36.50
34.63
32.04
28.96
25.50
21.71
17.55
13.10
8.56
4.20
0.23
-3.30
-6.59
-9.94
-13.66
-17.78
-22.12
-26.27
-29.84
-32.65
-34.83
-36.84
-39.32
-42.92
-48.14
-55.02
-63.02
-70.92
-76.94
-79.25
-76.48
-68.26
-55.41
-39.67
-23.13
-7.64
5.65
16.28
24.31
29.97
33.55
35.28
35.48
34.62
33.26
31.95
31.03
30.68
30.85
31.41
32.21
33.12
34.05
34.88
35.47
35.62
35.10
33.72
31.41
28.31
24.70
20.94
17.27
13.72
10.09
6.09
1.51
-3.61
-8.95
-14.10
-18.75
-22.87
-26.75
-30.93
-36.00
-42.41
-50.37
-59.60
-69.29
-78.04
-84.07
-85.66
-81.66
-71.95
-57.51
-40.25
-22.32
-5.68
8.44
19.56
27.80
33.51
37.16
39.15
39.92
39.92
39.56
39.23
39.14
39.31
39.63
39.92
40.05
39.94
39.59
39.01
38.17
36.91
34.94
32.00
27.94
22.91
17.34
11.84
7.05
3.30
0.56
-1.56
-3.61
-6.04
-9.08
-12.65
-16.52
-20.46
-24.33
-28.21
-32.29
-36.94
-42.52
-49.27
-57.01
-64.94
-71.62
-75.22
-74.09
-67.32
-55.21
-39.24
-21.56
-4.43
10.48
22.31
30.87
36.44
39.35
39.96
38.63
35.89
32.41
28.97
26.22
24.55
24.02
24.43
25.47
26.81
28.20
29.45
30.35
30.67
30.22
28.84
26.55
23.53
20.03
16.21
12.18
7.84
3.12
-2.01
-7.35
-12.58
-17.35
-21.42
-24.83
-27.83
-30.90
-34.64
-39.50
-45.69
-52.92
-60.35
-66.52
-69.78
-68.65
-62.31
-51.05
-36.15
-19.64
-3.58
10.36
21.35
29.33
34.74
38.14
39.97
40.56
40.16
39.06
37.64
36.33
35.43
35.10
35.31
35.88
36.64
37.50
38.30
38.91
39.09
38.53
37.00
34.43
30.92
26.76
22.28
17.67
13.07
8.48
3.94
-0.52
-4.84
-9.00
-13.04
-17.03
-21.01
-25.04
-29.19
-33.71
-38.99
-45.46
-53.22
-61.77
-69.79
-75.49
-76.97
-73.00
-63.45
-49.37
-32.71
-15.63
0.11
13.43
24.00
31.99
37.73
41.54
43.63
44.19
43.47
41.82
39.74
37.71
36.11
35.10
34.66
34.59
34.71
34.84
34.89
34.74
34.19
32.96
30.78
27.53
23.39
18.76
14.12
9.80
5.80
1.90
-2.27
-6.95
-12.11
-17.40
-22.31
-26.35
-29.25
-31.11
-32.38
-33.80
-36.13
-40.02
-45.64
-52.51
-59.45
-64.77
-66.70
-63.99
-56.28
-44.26
-29.42
-13.63
1.36
14.27
24.41
31.61
36.01
37.94
37.78
36.06
33.41
30.52
28.04
26.45
25.95
26.37
27.41
28.66
29.83
30.77
31.40
31.64
31.33
30.20
27.97
24.53
20.02
14.85
9.58
4.72
0.56
-2.89
-5.95
-8.99
-12.35
-16.17
-20.34
-24.51
-28.33
-31.53
-34.11
-36.41
-38.99
-42.50
-47.41
-53.70
-60.66
-67.00
-70.98
-71.00
-66.10
-56.27
-42.57
-26.83
-11.00
3.29
15.09
24.14
30.61
34.86
37.20
37.93
37.37
35.96
34.22
32.65
31.57
31.08
31.06
31.31
31.61
31.87
32.08
32.24
32.31
32.14
31.49
30.12
27.85
24.68
20.79
16.47
12.08
7.90
4.09
0.60
-2.73
-6.08
-9.60
-13.26
-16.90
-20.26
-23.09
-25.35
-27.21
-29.12
-31.67
-35.45
-40.82
-47.69
-55.34
-62.51
-67.56
-68.87
-65.34
-56.83
-44.20
-29.15
-13.68
0.49
12.23
21.15
27.42
31.44
33.61
34.25
33.64
32.13
30.15
28.18
26.66
25.87
25.93
26.74
28.11
29.70
31.20
32.41
33.20
33.53
33.40
32.75
31.41
29.23
26.10
22.15
17.82
13.64
10.04
7.14
4.61
1.87
-1.66
-6.25
-11.66
-17.32
-22.53
-26.79
-30.05
-32.71
-35.45
-39.04
-44.02
-50.46
-57.82
-64.91
-70.08
-71.68
-68.56
-60.42
-48.02
-32.93
-17.16
-2.51
9.75
19.11
25.57
29.50
31.32
31.46
30.27
28.16
25.59
23.02
20.86
19.38
18.63
18.56
19.03
19.81
20.73
21.56
22.13
22.25
21.79
20.68
18.97
16.78
14.26
11.64
9.03
6.47
3.91
1.17
-1.91
-5.40
-9.25
-13.25
-17.09
-20.52
-23.48
-26.14
-28.89
-32.25
-36.70
-42.49
-49.36
-56.36
-62.05
-64.71
-62.91
-56.06
-44.60
-29.96
-14.07
1.17
14.34
24.64
31.80
35.98
37.46
36.70
34.24
30.74
26.96
23.62
21.28
20.24
20.52
21.83
23.69
25.59
27.10
27.94
28.02
27.37
26.06
24.11
21.52
18.24
14.21
9.45
4.06
-1.78
-7.84
-13.89
-19.65
-24.97
-29.69
-33.80
-37.43
-40.89
-44.62
-49.09
-54.61
-61.00
-67.46
-72.57
-74.60
-72.10
-64.39
-51.92
-36.13
-19.07
-2.77
11.21
22.05
29.66
34.39
36.78
37.40
36.78
35.38
33.61
31.85
30.40
29.48
29.24
29.73
30.86
32.48
34.31
36.07
37.45
38.17
38.13
37.28
35.72
33.51
30.62
26.95
22.35
16.77
10.35
3.44
-3.52
-10.09
-16.00
-21.22
-25.85
-30.08
-34.15
-38.38
-43.15
-48.72
-55.01
-61.34
-66.36
-68.39
-65.90
-58.22
-45.74
-30.01
-13.10
2.97
16.75
27.60
35.48
40.74
43.83
45.18
45.20
44.33
43.02
41.70
40.68
40.14
40.09
40.44
41.05
41.77
42.44
42.89
42.94
42.37
40.98
38.54
35.03
30.56
25.48
20.28
15.44
11.26
7.75
4.56
1.24
-2.57
-6.97
-11.69
-16.32
-20.47
-24.01
-27.13
-30.25
-33.91
-38.49
-44.14
-50.52
-56.78
-61.57
-63.38
-60.91
-53.62
-41.96
-27.38
-11.85
2.70
14.90
24.18
30.62
34.63
36.67
37.11
36.27
34.55
32.48
30.61
29.38
28.96
29.26
29.97
30.75
31.33
31.50
31.18
30.29
28.80
26.72
24.10
21.04
17.68
14.18
10.65
7.12
3.58
-0.13
-4.14
-8.51
-13.16
-17.83
-22.20
-25.90
-28.82
-31.09
-33.10
-35.37
-38.41
-42.57
-47.76
-53.35
-58.12
-60.45
-58.84
-52.45
-41.51
-27.35
-11.96
2.60
14.79
23.93
29.99
33.35
34.42
33.61
31.26
27.84
24.01
20.50
17.90
16.58
16.51
17.44
18.92
20.55
22.00
23.03
23.50
23.36
22.61
21.30
19.54
17.42
15.01
12.30
9.23
5.68
1.59
-3.02
-7.95
-12.91
-17.59
-21.77
-25.44
-28.77
-32.22
-36.26
-41.28
-47.38
-54.16
-60.68
-65.53
-67.16
-64.29
-56.46
-44.18
-28.85
-12.44
3.12
16.40
26.63
33.70
37.93
39.77
39.63
37.89
34.93
31.24
27.39
23.94
21.35
19.85
19.40
19.74
20.58
21.59
22.58
23.34
23.67
23.35
22.18
20.06
17.05
13.33
9.09
4.51
-0.30
-5.24
-10.22
-15.03
-19.49
-23.39
-26.65
-29.33
-31.71
-34.19
-37.21
-41.11
-45.97
-51.43
-56.59
-60.12
-60.52
-56.67
-48.21
-35.78
-20.93
-5.60
8.36
19.76
28.09
33.43
36.17
36.71
35.42
32.74
29.20
25.43
22.05
19.55
18.17
17.95
18.74
20.26
22.12
23.87
25.02
25.23
24.36
22.45
19.71
16.38
12.62
8.53
4.16
-0.42
-5.13
-9.95
-14.76
-19.53
-24.11
-28.38
-32.19
-35.52
-38.55
-41.61
-45.20
-49.65
-55.01
-60.69
-65.59
-68.20
-67.12
-61.44
-51.17
-37.30
-21.55
-5.86
8.13
19.38
27.65
33.14
36.35
37.74
37.66
36.45
34.45
32.14
30.05
28.59
27.98
28.14
28.81
29.67
30.48
31.04
31.17
30.73
29.52
27.41
24.35
20.53
16.21
11.74
7.31
2.94
-1.53
-6.24
-11.19
-16.18
-20.86
-24.97
-28.38
-31.23
-33.82
-36.56
-39.92
-44.28
-49.84
-56.33
-62.90
-68.12
-70.31
-68.01
-60.59
-48.53
-33.35
-17.08
-1.70
11.41
21.61
28.94
33.82
36.70
37.89
37.70
36.42
34.50
32.49
30.93
30.18
30.32
31.16
32.31
33.45
34.35
34.97
35.29
35.25
34.69
33.35
31.01
27.65
23.49
18.95
14.52
10.47
6.89
3.56
0.14
-3.66
-7.92
-12.45
-16.91
-20.92
-24.33
-27.34
-30.43
-34.31
-39.59
-46.54
-54.76
-63.15
-70.05
-73.62
-72.35
-65.51
-53.49
-37.63
-19.96
-2.54
12.93
25.44
34.68
40.83
44.28
45.50
44.95
43.14
40.69
38.28
36.47
35.58
35.56
36.04
36.59
36.90
36.89
36.67
36.37
35.93
35.08
33.46
30.83
27.23
22.98
18.56
14.30
10.36
6.61
2.78
-1.35
-5.86
-10.62
-15.36
-19.78
-23.63
-26.87
-29.68
-32.47
-35.86
-40.42
-46.51
-53.91
-61.78
-68.59
-72.54
-72.06
-66.25
-55.33
-40.50
-23.64
-6.72
8.66
21.56
31.61
38.85
43.50
45.82
46.10
44.77
42.46
39.89
37.73
36.42
36.01
36.22
36.65
36.95
36.99
36.85
36.74
36.70
36.57
36.01
34.58
32.03
28.34
23.81
18.90
14.09
9.67
5.68
1.87
-2.10
-6.49
-11.32
-16.30
-20.98
-24.91
-27.84
-29.85
-31.39
-33.13
-35.82
-40.04
-45.93
-53.10
-60.39
-66.11
-68.46
-66.03
-58.43
-46.34
-31.40
-15.60
-0.79
11.80
21.64
28.70
33.22
35.55
36.04
35.11
33.31
31.21
29.42
28.41
28.45
29.51
31.38
33.68
35.97
37.93
39.35
40.15
40.33
39.88
38.74
36.71
33.62
29.47
24.50
19.28
14.41
10.44
7.43
5.13
3.00
0.53
-2.55
-6.15
-9.99
-13.73
-17.23
-20.57
-24.02
-27.92
-32.64
-38.48
-45.54
-53.59
-61.93
-69.28
-74.06
-74.69
-70.17
-60.46
-46.60
-30.43
-14.02
0.85
13.14
22.52
29.20
33.57
35.94
36.56
35.63
33.55
30.83
28.12
26.03
24.89
24.75
25.37
26.44
27.72
29.11
30.55
32.01
33.23
33.84
33.42
31.75
28.92
25.28
21.35
17.52
13.97
10.53
6.89
2.77
-1.95
-7.09
-12.29
-17.09
-21.19
-24.55
-27.47
-30.58
-34.62
-40.19
-47.47
-55.97
-64.54
-71.50
-75.08
-73.87
-67.36
-56.08
-41.60
-25.94
-11.12
1.36
10.80
17.21
21.03
22.83
23.11
22.25
20.56
18.47
16.53
15.27
15.09
16.12
18.11
20.68
23.41
26.08
28.64
31.09
33.30
34.90
35.37
34.27
31.46
27.20
22.08
16.74
11.69
7.17
3.07
-0.81
-4.74
-8.80
-12.99
-17.11
-21.01
-24.58
-27.83
-30.92
-34.20
-38.09
-42.98
-49.05
-56.01
-62.95
-68.41
-70.68
-68.35
-60.79
-48.52
-33.06
-16.51
-0.88
12.39
22.65
29.86
34.34
36.47
36.58
35.06
32.39
29.26
26.42
24.41
23.51
23.64
24.42
25.46
26.42
27.21
27.85
28.38
28.71
28.51
27.40
25.04
21.42
16.90
12.07
7.56
3.76
0.69
-1.98
-4.75
-8.00
-11.84
-16.08
-20.33
-24.24
-27.59
-30.46
-33.10
-35.96
-39.58
-44.30
-50.23
-56.94
-63.41
-68.17
-69.55
-66.26
-57.79
-44.74
-28.65
-11.56
4.54
18.25
28.88
36.39
41.10
43.44
43.76
42.44
39.93
36.82
33.78
31.29
29.59
28.61
28.06
27.72
27.49
27.43
27.58
27.87
27.92
27.30
25.63
22.81
19.07
14.83
10.53
6.40
2.52
-1.23
-5.02
-8.94
-13.00
-17.08
-21.01
-24.57
-27.64
-30.25
-32.63
-35.17
-38.29
-42.42
-47.74
-53.96
-60.31
-65.39
-67.60
-65.50
-58.29
-46.22
-30.56
-13.31
3.42
17.93
29.28
37.25
42.13
44.36
44.38
42.55
39.29
35.19
31.00
27.50
25.25
24.45
24.87
26.07
27.55
28.95
30.09
30.88
31.20
30.81
29.39
26.74
22.89
18.13
12.95
7.79
2.89
-1.79
-6.47
-11.31
-16.39
-21.45
-26.10
-29.96
-32.80
-34.75
-36.30
-38.14
-41.03
-45.55
-51.76
-59.02
-65.97
-70.73
-71.49
-67.06
-57.34
-43.37
-27.09
-10.63
4.18
16.21
25.18
31.32
35.22
37.41
38.34
38.26
37.37
35.93
34.16
32.40
30.96
30.01
29.59
29.56
29.72
29.85
29.71
29.07
27.69
25.39
22.16
18.10
13.44
8.43
3.27
-1.96
-7.24
-12.53
-17.74
-22.66
-27.14
-31.07
-34.44
-37.36
-40.00
-42.63
-45.62
-49.40
-54.22
-59.95
-65.80
-70.35
-71.88
-68.90
-60.76
-47.96
-31.99
-14.93
1.24
15.11
26.04
34.00
39.30
42.35
43.46
42.89
40.99
38.19
35.10
32.35
30.48
29.78
30.14
31.19
32.32
33.00
32.90
31.98
30.45
28.56
26.46
24.10
21.28
17.74
13.35
8.22
2.67
-2.88
-8.09
-12.68
-16.69
-20.33
-23.99
-28.16
-33.28
-39.61
-47.10
-55.17
-62.60
-67.79
-69.03
-65.10
-55.73
-41.85
-25.30
-8.35
6.97
19.39
28.56
34.80
38.77
41.07
42.03
41.82
40.58
38.62
36.45
34.73
34.01
34.49
35.91
37.66
39.01
39.43
38.76
37.19
35.09
32.78
30.26
27.29
23.54
18.81
13.13
6.87
0.50
-5.49
-10.76
-15.21
-18.92
-22.16
-25.32
-28.92
-33.42
-39.16
-46.15
-53.84
-61.10
-66.39
-68.14
-65.19
-57.21
-44.96
-29.96
-14.13
0.78
13.60
23.80
31.36
36.54
39.61
40.76
40.14
38.06
34.95
31.53
28.49
26.41
25.55
25.77
26.61
27.49
27.94
27.72
26.87
25.58
24.02
22.22
20.04
17.29
13.77
9.48
4.58
-0.59
-5.65
-10.28
-14.27
-17.62
-20.49
-23.23
-26.31
-30.25
-35.42
-41.84
-49.06
-56.02
-61.26
-63.21
-60.68
-53.27
-41.58
-27.00
-11.39
3.45
16.14
25.96
32.80
36.88
38.68
38.58
36.97
34.28
31.05
27.90
25.45
24.16
24.15
25.09
26.38
27.34
27.50
26.72
25.22
23.35
21.41
19.53
17.68
15.70
13.50
11.07
8.34
5.30
1.83
-2.10
-6.41
-10.81
-14.95
-18.55
-21.54
-24.20
-27.04
-30.63
-35.37
-41.26
-47.69
-53.47
-57.08
-57.06
-52.59
-43.68
-31.38
-17.30
-3.21
9.46
19.92
27.98
33.90
38.05
40.83
42.44
43.04
42.83
42.13
41.25
40.47
39.94
39.60
39.30
38.84
38.19
37.40
36.63
35.90
35.10
33.97
32.20
29.67
26.43
22.72
18.82
14.99
11.36
7.88
4.37
0.61
-3.58
-8.21
-13.10
-17.89
-22.31
-26.21
-29.81
-33.58
-38.15
-43.98
-51.06
-58.73
-65.72
-70.37
-71.15
-67.13
-58.31
-45.63
-30.77
-15.58
-1.63
10.15
19.49
26.58
31.74
35.22
37.15
37.63
36.95
35.59
34.17
33.29
33.23
33.93
35.00
36.03
36.65
36.80
36.64
36.31
35.87
35.09
33.62
31.16
27.55
22.99
17.90
12.82
8.16
4.06
0.37
-3.22
-7.02
-11.25
-15.86
-20.57
-24.97
-28.66
-31.45
-33.39
-34.86
-36.41
-38.76
-42.46
-47.70
-54.22
-61.05
-66.71
-69.53
-68.14
-61.89
-51.14
-37.15
-21.71
-6.64
6.64
17.43
25.56
31.26
34.91
36.84
37.37
36.77
35.41
33.72
32.19
31.17
30.84
31.10
31.63
32.09
32.24
32.04
31.58
31.06
30.47
29.68
28.39
26.27
23.18
19.25
14.80
10.29
6.13
2.49
-0.73
-3.81
-7.05
-10.68
-14.66
-18.77
-22.66
-26.00
-28.66
-30.80
-32.80
-35.27
-38.77
-43.67
-49.95
-57.02
-63.76
-68.70
-70.33
-67.55
-60.06
-48.44
-34.03
-18.57
-3.72
9.27
19.71
27.43
32.66
35.74
37.06
37.01
35.95
34.29
32.47
30.96
30.11
30.13
30.87
31.98
33.02
33.68
33.90
33.82
33.69
33.60
33.40
32.70
31.02
28.07
23.89
18.85
13.61
8.78
4.71
1.39
-1.51
-4.50
-7.95
-11.97
-16.38
-20.75
-24.66
-27.85
-30.33
-32.38
-34.48
-37.15
-40.91
-46.09
-52.58
-59.74
-66.28
-70.48
-70.65
-65.68
-55.50
-41.18
-24.64
-8.03
6.85
18.92
27.87
33.89
37.37
38.70
38.18
36.12
32.95
29.20
25.55
22.57
20.69
20.02
20.37
21.39
22.65
23.84
24.75
25.33
25.56
25.37
24.61
23.05
20.49
16.86
12.32
7.27
2.25
-2.18
-5.69
-8.28
-10.27
-12.13
-14.34
-17.19
-20.63
-24.33
-27.94
-31.15
-33.93
-36.52
-39.32
-42.86
-47.52
-53.48
-60.57
-68.13
-74.98
-79.54
-80.21
-75.78
-65.96
-51.55
-34.25
-16.22
0.57
14.71
25.59
33.23
38.00
40.38
40.82
39.80
37.81
35.45
33.37
32.09
31.86
32.68
34.22
36.05
37.75
39.00
39.66
39.63
38.80
36.97
34.03
29.90
24.80
19.14
13.53
8.48
4.32
1.02
-1.81
-4.66
-7.93
-11.68
-15.64
-19.39
-22.53
-24.99
-27.04
-29.25
-32.25
-36.63
-42.62
-50.01
-57.98
-65.16
-69.79
-70.18
-65.27
-55.04
-40.56
-23.73
-6.67
8.75
21.27
30.37
36.01
38.52
38.37
36.21
32.75
28.76
24.97
21.97
20.12
19.54
20.14
21.64
23.67
25.85
27.78
29.16
29.78
29.46
28.16
25.90
22.81
19.15
15.22
11.25
7.36
3.49
-0.61
-5.17
-10.30
-15.84
-21.49
-26.82
-31.57
-35.68
-39.41
-43.24
-47.75
-53.39
-60.17
-67.51
-74.11
-78.17
-77.95
-72.26
-61.11
-45.67
-28.03
-10.46
5.21
17.91
27.45
34.06
38.18
40.15
40.28
38.91
36.55
33.84
31.45
29.92
29.47
30.01
31.21
32.61
33.86
34.74
35.15
35.04
34.32
32.87
30.52
27.25
23.21
18.73
14.16
9.81
5.74
1.81
-2.27
-6.71
-11.53
-16.47
-21.12
-25.16
-28.45
-31.31
-34.36
-38.42
-44.13
-51.63
-60.27
-68.58
-74.58
-76.30
-72.39
-62.69
-48.21
-30.91
-13.07
3.34
17.01
27.48
34.85
39.50
41.89
42.47
41.61
39.77
37.43
35.09
33.18
31.98
31.54
31.73
32.34
33.07
33.67
33.97
33.80
33.07
31.71
29.70
27.10
23.97
20.38
16.40
12.07
7.45
2.61
-2.36
-7.32
-12.15
-16.70
-20.88
-24.70
-28.30
-31.99
-36.27
-41.56
-48.07
-55.46
-62.69
-68.17
-70.10
-67.01
-58.32
-44.57
-27.31
-8.77
8.81
23.66
34.83
42.16
46.05
47.26
46.60
44.73
42.18
39.36
36.65
34.33
32.65
31.76
31.62
32.04
32.69
33.15
33.04
32.12
30.31
27.74
24.67
21.40
18.14
14.94
11.69
8.16
4.16
-0.37
-5.33
-10.52
-15.72
-20.80
-25.70
-30.38
-34.95
-39.57
-44.57
-50.29
-56.94
-64.29
-71.44
-76.81
-78.54
-75.10
-65.91
-51.64
-34.06
-15.54
1.70
16.12
27.07
34.66
39.40
41.93
42.70
42.08
40.37
38.00
35.46
33.26
31.77
31.05
30.95
31.10
31.19
31.03
30.61
30.01
29.25
28.19
26.53
24.03
20.53
16.09
10.97
5.46
-0.15
-5.61
-10.72
-15.34
-19.35
-22.78
-25.74
-28.52
-31.51
-35.10
-39.56
-45.01
-51.24
-57.60
-63.01
-66.03
-65.25
-59.67
-49.18
-34.69
-17.96
-1.10
14.03
26.23
35.14
40.95
44.15
45.24
44.62
42.62
39.73
36.54
33.67
31.66
30.78
30.94
31.81
32.92
33.84
34.28
34.09
33.18
31.55
29.15
25.99
22.16
17.83
13.27
8.64
3.97
-0.89
-6.10
-11.79
-17.85
-23.93
-29.56
-34.33
-38.09
-41.00
-43.62
-46.69
-50.94
-56.76
-63.88
-71.23
-77.04
-79.30
-76.44
-67.84
-54.19
-37.28
-19.35
-2.52
11.84
23.18
31.64
37.62
41.51
43.62
44.17
43.50
42.03
40.24
38.53
37.09
35.93
34.96
34.08
33.30
32.71
32.40
32.36
32.41
32.26
31.55
30.01
27.53
24.24
20.49
16.67
13.11
9.89
6.83
3.57
-0.20
-4.61
-9.50
-14.51
-19.22
-23.41
-27.11
-30.71
-34.87
-40.26
-47.34
-56.00
-65.42
-74.04
-79.82
-80.85
-76.02
-65.41
-50.31
-32.83
-15.17
0.95
14.53
25.29
33.36
38.95
42.29
43.61
43.31
41.93
40.03
38.12
36.50
35.29
34.48
33.99
33.75
33.68
33.73
33.82
33.81
33.48
32.52
30.67
27.87
24.27
20.27
16.33
12.79
9.64
6.61
3.31
-0.53
-4.91
-9.57
-14.16
-18.41
-22.25
-25.85
-29.57
-33.87
-39.22
-45.97
-54.06
-62.83
-70.91
-76.39
-77.38
-72.57
-61.81
-46.22
-27.86
-9.14
7.90
21.94
32.54
39.79
44.09
45.87
45.49
43.42
40.28
36.83
33.82
31.81
30.96
31.07
31.73
32.57
33.41
34.29
35.33
36.44
37.29
37.26
35.82
32.70
28.11
22.66
17.15
12.14
7.80
3.86
-0.16
-4.68
-9.81
-15.32
-20.79
-25.80
-30.14
-33.90
-37.40
-41.15
-45.69
-51.46
-58.61
-66.64
-74.38
-80.02
-81.64
-77.83
-68.22
-53.73
-36.30
-18.21
-1.48
12.61
23.61
31.63
37.00
40.09
41.23
40.75
39.15
36.95
34.76
33.04
32.05
31.81
32.09
32.65
33.25
33.78
34.23
34.63
34.89
34.73
33.81
31.78
28.53
24.25
19.42
14.51
9.83
5.41
0.98
-3.72
-8.86
-14.25
-19.53
-24.26
-28.18
-31.33
-34.02
-36.81
-40.30
-45.02
-51.24
-58.72
-66.56
-73.13
-76.55
-75.10
-67.92
-55.33
-38.90
-20.88
-3.57
11.25
22.69
30.67
35.63
38.16
38.83
38.09
36.35
34.06
31.72
29.79
28.59
28.18
28.41
29.07
29.94
30.88
31.81
32.62
33.09
32.96
31.94
29.90
26.90
23.20
19.13
15.07
11.23
7.71
4.39
0.96
-2.89
-7.32
-12.35
-17.69
-22.96
-27.80
-32.08
-35.93
-39.82
-44.32
-49.91
-56.63
-63.86
-70.30
-74.21
-73.89
-68.28
-57.36
-42.25
-24.92
-7.61
7.83
20.26
29.32
35.20
38.38
39.34
38.54
36.43
33.55
30.51
27.87
26.05
25.30
25.56
26.61
28.14
29.86
31.49
32.78
33.44
33.24
31.97
29.58
26.20
22.05
17.44
12.62
7.67
2.57
-2.77
-8.37
-14.09
-19.65
-24.72
-29.01
-32.51
-35.39
-38.08
-41.16
-45.20
-50.55
-57.07
-63.95
-69.69
-72.43
-70.50
-63.04
-50.41
-34.12
-16.41
0.53
15.01
26.26
34.22
39.30
42.05
42.90
42.29
40.62
38.41
36.21
34.55
33.72
33.76
34.48
35.52
36.58
37.43
37.92
37.91
37.20
35.54
32.74
28.81
24.05
18.95
13.99
9.50
5.52
1.77
-2.13
-6.50
-11.44
-16.82
-22.26
-27.39
-31.92
-35.80
-39.27
-42.78
-46.93
-52.19
-58.71
-66.09
-73.15
-78.14
-79.11
-74.59
-64.10
-48.48
-29.66
-10.12
7.84
22.64
33.65
41.01
45.29
47.15
47.10
45.59
43.04
39.92
36.83
34.26
32.54
31.72
31.63
32.01
32.63
33.34
34.03
34.59
34.75
34.15
32.52
29.66
25.69
20.90
15.71
10.49
5.49
0.76
-3.82
-8.39
-13.10
-17.90
-22.62
-26.96
-30.67
-33.68
-36.23
-38.85
-42.19
-46.81
-52.78
-59.50
-65.67
-69.50
-69.22
-63.64
-52.61
-37.14
-19.14
-0.90
15.51
28.73
38.26
44.23
47.18
47.71
46.32
43.50
39.75
35.69
31.97
29.15
27.51
27.03
27.45
28.38
29.45
30.42
31.16
31.55
31.43
30.60
28.90
26.27
22.81
18.76
14.34
9.72
4.96
0.05
-4.99
-10.04
-14.92
-19.41
-23.40
-26.96
-30.36
-33.98
-38.26
-43.61
-50.21
-57.80
-65.59
-72.19
-75.86
-75.00
-68.71
-57.15
-41.61
-24.12
-6.84
8.43
20.63
29.48
35.22
38.35
39.41
38.90
37.29
35.11
32.84
30.97
29.89
29.77
30.63
32.24
34.28
36.30
37.87
38.53
37.97
36.04
32.72
28.26
23.01
17.36
11.71
6.29
1.17
-3.68
-8.43
-13.26
-18.22
-23.16
-27.83
-31.89
-35.16
-37.70
-39.88
-42.36
-45.96
-51.32
-58.58
-67.15
-75.54
-81.68
-83.41
-79.27
-69.01
-53.77
-35.68
-17.25
-0.59
13.10
23.46
30.71
35.33
37.70
38.09
36.77
34.12
30.71
27.17
24.10
21.79
20.31
19.43
18.83
18.24
17.49
16.58
15.69
15.14
15.21
16.20
18.24
21.32
25.24
29.67
34.34
39.02
43.64
48.28
53.09
58.15
63.40
68.49
72.76
75.36
75.35
71.98
64.82
53.84
39.46
22.57
4.45
-13.28
-28.87
-40.67
-47.50
-48.92
-45.35
-38.03
-28.67
-19.02
-10.40
-3.51
1.52
4.90
6.89
7.54
6.78
4.56
1.11
-3.07
-7.18
-10.50
-12.54
-13.32
-13.18
-12.73
-12.54
-13.04
-14.44
-16.71
-19.68
-23.09
-26.65
-30.15
-33.45
-36.59
-39.73
-43.16
-47.15
-51.77
-56.78
-61.61
-65.62
-68.34
-69.84
-70.83
-72.41
-75.58
-80.72
-87.23
-93.55
-97.56
-97.33
-91.58
-80.18
-64.07
-45.03
-25.14
-6.34
9.92
22.85
32.25
38.33
41.47
42.22
41.12
38.81
35.95
33.16
31.01
29.80
29.59
30.21
31.37
32.73
33.95
34.81
35.10
34.66
33.40
31.30
28.39
24.71
20.29
15.15
9.34
2.98
-3.67
-10.31
-16.55
-22.16
-27.05
-31.34
-35.30
-39.32
-43.89
-49.44
-56.23
-64.11
-72.33
-79.42
-83.52
-82.87
-76.42
-64.31
-47.84
-29.13
-10.48
6.30
20.20
31.01
38.98
44.53
47.95
49.50
49.46
48.22
46.32
44.37
42.87
42.12
42.19
42.95
44.16
45.57
46.94
48.11
48.82
48.81
47.81
45.65
42.29
37.92
32.79
27.19
21.29
15.11
8.57
1.67
-5.46
-12.54
-19.22
-25.25
-30.57
-35.36
-40.09
-45.45
-52.00
-59.98
-68.89
-77.37
-83.35
-84.67
-79.79
-68.38
-51.59
-31.66
-11.26
7.38
22.88
34.85
43.55
49.42
52.82
53.98
53.08
50.49
46.82
42.86
39.36
36.82
35.36
34.73
34.57
34.47
34.23
33.69
32.79
31.43
29.55
27.24
24.84
22.93
22.16
23.04
25.64
29.56
33.99
37.97
40.67
41.54
40.46
37.58
33.37
28.41
23.27
18.35
13.73
9.28
4.67
-0.37
-5.89
-11.67
-17.25
-22.28
-26.56
-30.27
-33.79
-37.73
-42.58
-48.70
-56.03
-63.91
-71.05
-75.63
-75.87
-70.43
-59.08
-42.83
-23.74
-4.32
13.15
27.22
37.43
44.08
47.85
49.35
49.03
47.26
44.45
41.23
38.39
36.64
36.37
37.46
39.36
41.34
42.80
43.36
42.97
41.68
39.61
36.77
33.21
28.94
24.10
18.92
13.63
8.47
3.55
-1.11
-5.59
-9.97
-14.32
-18.60
-22.78
-26.82
-30.75
-34.82
-39.44
-45.02
-51.76
-59.27
-66.47
-71.66
-72.98
-69.02
-59.33
-44.75
-27.12
-8.80
8.11
22.25
33.11
40.85
45.97
48.90
49.92
49.25
47.14
44.00
40.47
37.19
34.66
33.12
32.48
32.45
32.74
33.09
33.34
33.36
32.96
31.90
29.95
27.02
23.19
18.75
14.07
9.49
5.16
1.09
-2.84
-6.76
-10.74
-14.72
-18.56
-22.12
-25.41
-28.61
-32.13
-36.51
-42.19
-49.37
-57.67
-66.01
-72.77
-76.10
-74.50
-67.33
-55.09
-39.34
-22.22
-5.84
8.27
19.34
27.33
32.61
35.66
36.93
36.79
35.60
33.80
31.91
30.44
29.75
29.93
30.84
32.17
33.60
34.93
36.06
36.98
37.58
37.70
37.09
35.52
32.91
29.39
25.22
20.69
16.04
11.36
6.56
1.53
-3.84
-9.55
-15.38
-21.05
-26.30
-31.00
-35.27
-39.47
-44.10
-49.61
-56.23
-63.64
-70.87
-76.41
-78.47
-75.62
-67.23
-53.87
-37.11
-19.07
-1.86
12.96
24.59
32.90
38.15
40.78
41.25
40.01
37.62
34.69
31.90
29.83
28.84
29.01
30.04
31.47
32.75
33.55
33.75
33.44
32.72
31.55
29.76
27.11
23.57
19.37
14.97
10.88
7.41
4.46
1.64
-1.57
-5.47
-10.03
-14.85
-19.49
-23.61
-27.22
-30.68
-34.58
-39.52
-45.85
-53.45
-61.61
-69.13
-74.33
-75.58
-71.66
-62.26
-48.15
-31.05
-13.18
3.41
17.25
27.69
34.74
38.77
40.19
39.43
36.92
33.20
28.99
25.08
22.20
20.80
20.94
22.36
24.59
27.06
29.24
30.74
31.31
30.79
29.18
26.51
22.92
18.63
13.84
8.80
3.65
-1.53
-6.75
-12.08
-17.49
-22.86
-27.98
-32.64
-36.70
-40.23
-43.55
-47.15
-51.56
-57.07
-63.48
-69.95
-75.02
-76.92
-74.15
-66.02
-52.97
-36.56
-18.97
-2.38
11.63
22.35
29.88
34.70
37.36
38.28
37.79
36.21
33.99
31.66
29.77
28.67
28.39
28.77
29.53
30.40
31.23
31.88
32.23
32.10
31.28
29.59
26.98
23.61
19.67
15.38
10.93
6.37
1.75
-2.91
-7.58
-12.27
-16.92
-21.52
-26.01
-30.32
-34.51
-38.84
-43.74
-49.65
-56.71
-64.42
-71.52
-76.23
-76.81
-72.12
-62.13
-47.93
-31.41
-14.69
0.46
12.96
22.42
28.96
32.96
34.84
35.06
34.05
32.29
30.32
28.61
27.57
27.39
28.07
29.43
31.18
33.03
34.70
35.93
36.53
36.35
35.25
33.13
29.97
25.87
21.00
15.62
9.99
4.30
-1.30
-6.76
-12.07
-17.21
-22.16
-26.87
-31.26
-35.39
-39.43
-43.76
-48.80
-54.87
-61.79
-68.69
-74.03
-76.02
-73.19
-64.96
-51.91
-35.61
-18.19
-1.70
12.36
23.21
30.74
35.29
37.28
37.16
35.31
32.20
28.43
24.74
21.87
20.37
20.46
21.89
24.10
26.40
28.24
29.35
29.66
29.21
28.10
26.37
23.97
20.86
17.03
12.48
7.34
1.80
-3.92
-9.48
-14.61
-19.12
-22.99
-26.38
-29.68
-33.37
-37.95
-43.75
-50.71
-58.24
-65.11
-69.65
-70.19
-65.62
-55.74
-41.48
-24.61
-7.24
8.74
22.12
32.39
39.65
44.22
46.46
46.67
45.18
42.46
39.18
36.09
33.87
32.92
33.22
34.44
36.06
37.54
38.54
38.89
38.52
37.45
35.64
33.10
29.89
26.03
21.68
16.91
11.78
6.33
0.65
-5.14
-10.80
-16.11
-20.90
-25.18
-29.14
-33.17
-37.79
-43.44
-50.36
-58.26
-66.21
-72.65
-75.74
-73.85
-66.19
-53.19
-36.40
-18.05
-0.40
14.84
26.81
35.41
41.06
44.28
45.56
45.28
43.75
41.41
38.69
36.15
34.26
33.33
33.44
34.35
35.70
37.04
38.08
38.66
38.73
38.26
37.14
35.26
32.46
28.72
24.16
18.99
13.46
7.86
2.33
-3.05
-8.21
-13.16
-17.94
-22.62
-27.36
-32.40
-38.05
-44.63
-52.20
-60.35
-68.09
-73.87
-75.98
-73.16
-64.99
-52.15
-36.22
-19.18
-2.91
11.20
22.47
30.67
35.89
38.38
38.47
36.55
33.26
29.41
25.82
23.18
21.84
21.71
22.42
23.49
24.50
25.22
25.48
25.14
24.05
22.06
19.18
15.59
11.61
7.52
3.51
-0.42
-4.36
-8.37
-12.40
-16.34
-20.06
-23.53
-26.79
-29.99
-33.37
-37.19
-41.78
-47.42
-54.25
-61.97
-69.68
-75.85
-78.67
-76.60
-68.94
-56.18
-39.88
-22.24
-5.35
9.31
21.06
29.89
36.14
40.15
42.18
42.50
41.45
39.53
37.36
35.45
34.15
33.56
33.62
34.13
34.88
35.60
36.07
36.05
35.34
33.79
31.38
28.20
24.42
20.29
16.04
11.80
7.61
3.38
-1.02
-5.66
-10.44
-15.16
-19.56
-23.45
-26.86
-30.07
-33.57
-37.95
-43.68
-50.78
-58.67
-66.15
-71.53
-73.08
-69.59
-60.75
-47.34
-31.06
-14.03
1.77
14.95
24.89
31.59
35.46
37.01
36.66
34.81
31.87
28.41
25.10
22.58
21.33
21.50
22.88
25.02
27.33
29.31
30.61
31.11
30.82
29.83
28.22
26.02
23.17
19.58
15.12
9.77
3.63
-3.03
-9.83
-16.36
-22.24
-27.27
-31.50
-35.17
-38.72
-42.69
-47.52
-53.29
-59.68
-65.69
-69.90
-70.77
-67.10
-58.44
-45.41
-29.43
-12.43
3.79
17.89
29.19
37.61
43.37
46.76
48.02
47.41
45.27
42.13
38.65
35.53
33.23
31.95
31.55
31.69
32.02
32.29
32.38
32.24
31.75
30.69
28.85
26.10
22.55
18.46
14.16
9.79
5.36
0.70
-4.38
-9.88
-15.59
-21.13
-26.14
-30.48
-34.30
-37.98
-42.08
-47.17
-53.59
-61.13
-68.97
-75.58
-79.21
-78.23
-71.81
-60.21
-44.78
-27.52
-10.55
4.52
16.83
26.26
33.13
37.95
41.08
42.75
43.11
42.38
40.90
39.10
37.40
36.11
35.33
34.94
34.80
34.70
34.55
34.26
33.66
32.52
30.49
27.33
22.92
17.40
11.10
4.44
-2.19
-8.60
-14.78
-20.87
-27.10
-33.61
-40.41
-47.37
-54.28
-61.01
-67.59
-74.41
-81.89
-90.39
-99.77
-109.19
-117.07
-121.39
-120.33
-112.81
-99.00
-80.23
-58.64
-36.51
-15.68
2.77
18.43
31.39
41.89
50.09
56.13
60.16
62.46
63.54
64.04
64.60
65.66
67.37
69.61
71.96
73.92
75.03
75.11
74.12
72.18
69.49
66.20
62.42
58.18
53.48
48.26
42.48
36.08
29.16
21.88
14.53
7.37
0.61
-5.78
-12.05
-18.59
-25.86
-34.20
-43.66
-53.76
-63.38
-70.92
-74.54
-72.84
-65.34
-52.75
-36.84
-19.97
-4.39
8.37
17.69
23.76
27.21
28.74
28.88
27.95
26.18
23.82
21.27
18.96
17.40
16.89
17.59
19.32
21.79
24.60
27.31
29.62
31.22
31.99
31.83
30.76
28.91
26.49
23.69
20.73
17.67
14.46
11.06
7.46
3.69
-0.12
-3.81
-7.28
-10.53
-13.70
-17.11
-21.12
-26.15
-32.46
-39.88
-47.64
-54.33
-58.10
-57.25
-50.83
-39.05
-23.33
-5.90
10.94
25.42
36.62
44.49
49.52
52.25
53.23
52.83
51.41
49.45
47.43
45.73
44.57
43.90
43.46
42.99
42.27
41.18
39.73
37.90
35.59
32.69
29.11
24.89
20.26
15.44
10.69
6.12
1.64
-2.90
-7.60
-12.42
-17.17
-21.56
-25.38
-28.64
-31.44
-34.10
-36.96
-40.40
-44.72
-50.02
-55.96
-61.65
-65.70
-66.44
-62.60
-53.80
-40.77
-25.26
-9.45
4.77
16.18
24.39
29.55
31.95
31.85
29.45
25.11
19.55
13.87
9.25
6.54
6.06
7.44
9.87
12.51
14.66
15.98
16.41
16.04
14.97
13.23
10.81
7.64
3.74
-0.88
-6.05
-11.45
-16.69
-21.35
-25.15
-28.03
-30.19
-32.07
-34.16
-36.98
-40.85
-45.81
-51.49
-56.89
-60.60
-61.06
-57.02
-48.06
-34.85
-18.90
-2.30
13.03
25.70
35.15
41.35
44.62
45.29
43.67
40.15
35.35
30.10
25.37
22.01
20.45
20.64
22.05
23.91
25.50
26.33
26.29
25.56
24.39
22.87
20.88
18.03
13.91
8.34
1.55
-5.83
-12.99
-19.35
-24.68
-29.25
-33.55
-38.15
-43.40
-49.50
-56.43
-63.94
-71.45
-77.91
-81.83
-81.74
-76.60
-66.33
-51.97
-35.37
-18.65
-3.60
8.67
17.84
23.98
27.36
28.23
26.80
23.53
19.16
14.68
11.15
9.35
9.55
11.46
14.41
17.63
20.52
22.79
24.36
25.24
25.32
24.31
21.85
17.72
11.96
5.01
-2.37
-9.30
-15.13
-19.59
-22.95
-25.83
-29.04
-33.37
-39.25
-46.67
-54.99
-62.92
-68.72
-70.58
-67.13
-57.89
-43.59
-25.99
-7.41
9.95
24.53
35.61
43.28
47.99
50.23
50.37
48.71
45.65
41.76
37.78
34.40
32.04
30.72
30.18
29.95
29.69
29.23
28.61
27.91
27.12
26.04
24.29
21.48
17.31
11.79
5.19
-1.90
-8.83
-15.01
-20.13
-24.25
-27.81
-31.47
-35.92
-41.63
-48.60
-56.22
-63.24
-67.98
-68.71
-64.24
-54.36
-39.97
-22.91
-5.45
10.42
23.40
32.97
39.30
42.83
44.06
43.42
41.35
38.37
35.09
32.08
29.79
28.34
27.59
27.14
26.53
25.42
23.70
21.52
19.20
17.06
15.18
13.36
11.13
7.89
3.23
-2.86
-9.98
-17.38
-24.26
-30.07
-34.74
-38.65
-42.48
-46.97
-52.59
-59.37
-66.78
-73.71
-78.65
-80.00
-76.48
-67.56
-53.71
-36.39
-17.67
0.35
16.09
28.70
38.03
44.27
47.66
48.46
46.94
43.61
39.32
35.03
31.64
29.70
29.23
29.85
30.89
31.71
31.84
31.10
29.58
27.46
24.99
22.22
18.99
15.00
9.98
3.86
-3.10
-10.35
-17.34
-23.64
-29.18
-34.24
-39.35
-45.07
-51.80
-59.64
-68.13
-76.24
-82.40
-84.80
-81.92
-73.03
-58.53
-39.96
-19.59
0.25
17.71
31.73
42.05
48.88
52.56
53.45
51.85
48.22
43.29
38.03
33.52
30.56
29.50
30.12
31.80
33.82
35.55
36.75
37.41
37.69
37.66
37.16
35.83
33.26
29.19
23.58
16.74
9.30
1.92
-4.84
-10.71
-15.79
-20.50
-25.39
-31.06
-37.89
-45.89
-54.55
-62.74
-68.85
-71.13
-68.26
-59.77
-46.38
-29.74
-12.08
4.51
18.53
29.28
36.78
41.43
43.69
43.95
42.55
39.84
36.31
32.56
29.26
26.89
25.72
25.69
26.47
27.63
28.74
29.50
29.87
29.85
29.42
28.45
26.65
23.68
19.34
13.72
7.19
0.39
-6.06
-11.69
-16.37
-20.26
-23.80
-27.50
-31.91
-37.35
-43.82
-50.83
-57.32
-61.77
-62.63
-58.79
-49.94
-36.80
-20.88
-4.12
11.63
25.04
35.40
42.52
46.45
47.45
45.82
42.06
36.90
31.27
26.17
22.38
20.32
19.92
20.69
21.91
22.91
23.24
22.74
21.62
20.12
18.55
16.95
15.12
12.63
9.09
4.35
-1.36
-7.51
-13.49
-18.84
-23.47
-27.66
-31.96
-36.88
-42.81
-49.79
-57.55
-65.32
-71.90
-75.77
-75.43
-69.89
-59.03
-43.80
-25.99
-7.76
8.96
22.85
33.32
40.41
44.53
46.16
45.80
43.92
41.02
37.66
34.44
31.95
30.56
30.41
31.24
32.63
33.98
34.86
35.01
34.34
32.94
30.85
28.12
24.70
20.53
15.63
10.14
4.30
-1.57
-7.12
-12.04
-16.21
-19.75
-22.97
-26.36
-30.47
-35.71
-42.31
-50.10
-58.52
-66.52
-72.64
-75.30
-73.18
-65.72
-53.30
-37.39
-20.02
-3.31
11.06
22.22
30.00
34.77
36.99
37.13
35.62
32.85
29.40
25.91
23.09
21.44
21.21
22.25
24.17
26.43
28.49
29.91
30.44
30.03
28.73
26.62
23.75
20.10
15.62
10.32
4.36
-1.93
-8.15
-13.88
-18.90
-23.13
-26.65
-29.71
-32.62
-35.78
-39.60
-44.38
-50.05
-56.08
-61.38
-64.43
-63.74
-58.25
-47.84
-33.42
-16.74
0.10
15.27
27.52
36.41
42.04
44.86
45.28
43.73
40.61
36.52
32.21
28.47
25.93
24.88
25.18
26.46
28.17
29.82
31.08
31.72
31.61
30.73
29.16
27.05
24.56
21.79
18.76
15.31
11.27
6.55
1.22
-4.51
-10.33
-15.96
-21.28
-26.36
-31.41
-36.74
-42.67
-49.46
-57.20
-65.54
-73.58
-79.84
-82.57
-80.21
-72.05
-58.54
-41.30
-22.61
-4.82
10.37
22.16
30.56
36.07
39.31
40.73
40.65
39.29
37.01
34.32
31.79
29.94
29.07
29.13
29.84
30.79
31.59
32.01
31.90
31.16
29.72
27.48
24.41
20.58
16.13
11.28
6.19
1.01
-4.20
-9.37
-14.43
-19.27
-23.84
-28.12
-32.19
-36.20
-40.42
-45.17
-50.77
-57.34
-64.61
-71.73
-77.21
-79.28
-76.38
-67.81
-54.07
-36.78
-18.21
-0.60
14.44
26.15
34.54
39.96
42.83
43.53
42.36
39.79
36.42
33.00
30.20
28.52
28.15
28.90
30.46
32.36
34.18
35.54
36.09
35.53
33.66
30.47
26.16
21.05
15.55
10.00
4.60
-0.57
-5.54
-10.34
-14.89
-19.07
-22.74
-25.82
-28.42
-30.83
-33.54
-37.15
-42.26
-49.22
-57.83
-67.17
-75.50
-80.65
-80.59
-74.16
-61.61
-44.50
-25.35
-6.74
9.37
22.04
31.24
37.47
41.40
43.50
44.12
43.49
41.89
39.69
37.36
35.33
33.90
33.23
33.25
33.78
34.54
35.24
35.55
35.19
33.90
31.53
28.10
23.77
18.80
13.52
8.15
2.81
-2.50
-7.82
-13.16
-18.40
-23.34
-27.75
-31.48
-34.61
-37.43
-40.46
-44.28
-49.29
-55.55
-62.43
-68.70
-72.68
-72.64
-67.40
-56.72
-41.50
-23.56
-5.14
11.70
25.57
35.88
42.69
46.52
47.95
47.53
45.74
43.02
39.86
36.81
34.36
32.90
32.55
33.19
34.50
36.01
37.35
38.21
38.43
37.91
36.58
34.37
31.21
27.10
22.14
16.54
10.56
4.40
-1.80
-7.94
-13.93
-19.70
-25.07
-30.00
-34.50
-38.84
-43.42
-48.79
-55.31
-63.02
-71.29
-78.81
-83.82
-84.52
-79.66
-69.10
-53.81
-35.74
-17.14
-0.04
14.24
25.12
32.68
37.41
39.89
40.64
40.12
38.71
36.78
34.81
33.25
32.48
32.72
33.92
35.82
38.00
40.01
41.49
42.20
41.96
40.69
38.33
34.90
30.51
25.35
19.69
13.73
7.70
1.70
-4.22
-9.94
-15.30
-20.11
-24.22
-27.69
-30.83
-34.15
-38.29
-43.78
-50.80
-58.96
-67.22
-73.92
-77.19
-75.42
-67.83
-54.79
-37.77
-19.00
-0.73
15.19
27.79
36.85
42.74
46.05
47.36
47.19
45.96
44.04
41.79
39.55
37.62
36.20
35.45
35.37
35.83
36.54
37.11
37.14
36.30
34.47
31.67
28.11
24.02
19.58
14.91
10.10
5.19
0.27
-4.55
-9.16
-13.44
-17.30
-20.78
-23.92
-26.81
-29.58
-32.56
-36.19
-40.94
-47.04
-54.25
-61.64
-67.60
-70.29
-68.13
-60.43
-47.70
-31.55
-14.16
2.37
16.51
27.51
35.29
40.18
42.61
42.96
41.65
39.17
36.16
33.32
31.23
30.24
30.37
31.45
33.20
35.31
37.49
39.48
41.00
41.72
41.33
39.60
36.51
32.20
26.95
21.08
14.88
8.53
2.20
-4.12
-10.42
-16.71
-22.86
-28.66
-33.83
-38.17
-41.69
-44.72
-47.93
-52.02
-57.51
-64.32
-71.62
-77.90
-81.24
-79.98
-73.18
-61.07
-45.00
-27.01
-9.26
6.54
19.45
29.23
36.14
40.60
43.00
43.66
42.97
41.45
39.72
38.30
37.54
37.43
37.69
37.98
38.05
37.88
37.64
37.54
37.55
37.37
36.51
34.45
30.92
26.03
20.24
14.20
8.53
3.54
-0.79
-4.80
-8.89
-13.35
-18.13
-22.92
-27.24
-30.67
-33.09
-34.75
-36.28
-38.44
-42.01
-47.43
-54.65
-62.86
-70.52
-75.69
-76.49
-71.69
-61.17
-46.00
-28.13
-9.84
6.90
20.85
31.50
38.98
43.64
45.88
46.10
44.74
42.35
39.63
37.22
35.61
34.96
35.09
35.65
36.29
36.81
37.14
37.28
37.08
36.31
34.65
31.87
27.94
23.15
17.92
12.68
7.75
3.24
-0.93
-4.90
-8.84
-12.88
-17.02
-21.13
-25.03
-28.47
-31.30
-33.59
-35.59
-37.85
-41.02
-45.69
-52.04
-59.62
-67.21
-72.92
-74.72
-71.09
-61.58
-47.11
-29.61
-11.57
4.87
18.37
28.47
35.36
39.50
41.27
40.95
38.88
35.64
32.05
28.97
27.11
26.71
27.64
29.40
31.46
33.46
35.24
36.76
37.97
38.74
38.84
38.07
36.40
34.05
31.39
28.79
26.45
24.30
22.03
19.16
15.32
10.26
4.01
-3.11
-10.67
-18.28
-25.83
-33.51
-41.82
-51.22
-61.86
-73.24
-84.07
-92.59
-96.84
-95.43
-87.92
-75.03
-58.43
-40.26
-22.56
-6.85
6.01
15.84
22.80
27.31
29.77
30.60
30.17
28.84
26.98
24.95
23.14
21.87
21.36
21.66
22.66
24.17
25.88
27.51
28.81
29.58
29.63
28.83
27.10
24.45
20.98
16.78
12.03
6.88
1.49
-3.95
-9.23
-14.21
-18.82
-23.12
-27.36
-31.83
-36.95
-43.02
-50.06
-57.64
-64.76
-69.92
-71.48
-68.19
-59.70
-46.78
-31.15
-14.92
0.06
12.65
22.48
29.69
34.57
37.31
38.01
36.79
34.06
30.46
26.79
23.76
21.82
21.05
21.28
22.13
23.14
23.95
24.31
24.11
23.35
21.97
19.89
16.89
12.77
7.45
1.07
-5.94
-12.97
-19.40
-24.84
-29.18
-32.69
-35.80
-39.12
-43.20
-48.43
-54.93
-62.28
-69.48
-75.06
-77.31
-74.84
-67.03
-54.38
-38.40
-21.18
-4.72
9.57
21.06
29.75
35.86
39.47
40.53
39.01
35.16
29.72
23.75
18.35
14.31
11.85
10.62
9.93
9.03
7.36
4.69
1.16
-2.86
-6.85
-10.28
-12.84
-14.49
-15.55
-16.59
-18.06
-20.14
-22.39
-23.93
-23.69
-20.88
-15.37
-7.86
0.26
7.36
12.06
13.70
12.51
9.52
6.33
4.57
5.50
9.63
16.62
25.45
34.79
43.38
50.37
55.34
58.22
59.04
57.84
54.66
49.72
43.57
37.01
31.01
26.31
23.32
21.94
21.73
22.16
22.87
23.71
24.68
25.68
26.27
25.57
22.49
16.11
6.13
-6.82
-21.27
-35.35
-47.30
-56.04
-61.32
-63.75
-64.36
-64.39
-64.91
-66.73
-70.20
-75.09
-80.57
-85.21
-87.19
-84.89
-77.32
-64.52
-47.68
-28.75
-9.85
7.23
21.38
32.22
39.90
44.69
46.98
47.09
45.44
42.63
39.36
36.37
34.21
33.17
33.15
33.81
34.64
35.19
35.12
34.27
32.65
30.36
27.45
23.86
19.45
14.02
7.51
0.11
-7.75
-15.47
-22.49
-28.51
-33.63
-38.25
-43.02
-48.55
-55.21
-63.03
-71.43
-79.23
-84.83
-86.51
-82.91
-73.56
-59.07
-41.05
-21.67
-3.06
13.18
26.22
36.00
42.87
47.31
49.71
50.38
49.57
47.71
45.36
43.17
41.72
41.35
42.02
43.34
44.76
45.72
45.87
45.09
43.48
41.25
38.56
35.45
31.84
27.57
22.48
16.65
10.32
3.97
-1.88
-6.83
-10.81
-14.12
-17.33
-21.14
-26.09
-32.46
-40.18
-48.74
-57.20
-64.19
-68.12
-67.50
-61.49
-50.22
-34.87
-17.45
-0.19
15.11
27.42
36.59
42.99
47.19
49.66
50.61
50.17
48.53
46.06
43.36
41.05
39.60
39.17
39.60
40.47
41.28
41.64
41.35
40.37
38.78
36.70
34.22
31.43
28.36
25.04
21.38
17.27
12.61
7.37
1.73
-4.03
-9.50
-14.40
-18.67
-22.55
-26.58
-31.35
-37.42
-44.93
-53.40
-61.60
-67.68
-69.69
-66.09
-56.45
-41.57
-23.39
-4.33
13.33
27.96
38.82
45.87
49.57
50.52
49.41
46.89
43.74
40.69
38.35
37.13
37.10
38.07
39.57
41.05
42.07
42.28
41.59
40.02
37.67
34.62
30.93
26.61
21.76
16.51
11.08
5.71
0.50
-4.52
-9.36
-14.04
-18.46
-22.49
-25.92
-28.72
-31.00
-33.05
-35.29
-38.21
-42.18
-47.23
-52.91
-58.14
-61.43
-61.21
-56.37
-46.75
-33.21
-17.47
-1.52
12.86
24.56
33.08
38.49
41.07
41.15
39.11
35.45
30.94
26.48
23.03
21.26
21.37
23.06
25.59
28.15
30.11
31.11
31.15
30.41
29.08
27.27
25.00
22.20
18.85
14.99
10.69
6.06
1.30
-3.41
-7.89
-11.96
-15.60
-18.96
-22.41
-26.51
-31.87
-38.95
-47.83
-57.96
-68.04
-76.22
-80.47
-79.18
-71.72
-58.78
-42.20
-24.53
-8.22
4.98
14.39
20.22
23.25
24.27
23.90
22.44
20.05
16.93
13.48
10.18
7.50
5.76
4.92
4.68
4.61
4.32
3.61
2.54
1.30
0.11
-0.90
-1.74
-2.55
-3.53
-4.91
-6.84
-9.40
-12.56
-16.11
-19.71
-22.99
-25.66
-27.64
-29.12
-30.52
-32.39
-35.19
-39.04
-43.54
-47.72
-50.15
-49.29
-44.01
-33.97
-19.80
-3.05
14.27
30.20
43.35
53.11
59.58
63.30
64.80
64.51
62.60
59.28
54.82
49.84
45.10
41.30
38.79
37.50
36.95
36.53
35.78
34.46
32.57
30.21
27.36
23.93
19.75
14.68
8.70
1.92
-5.33
-12.69
-19.74
-26.15
-31.74
-36.53
-40.69
-44.53
-48.39
-52.61
-57.46
-63.03
-69.07
-74.87
-79.25
-80.80
-78.25
-70.92
-59.10
-43.95
-27.19
-10.62
4.32
16.72
26.08
32.20
35.03
34.73
31.74
26.91
21.39
16.43
13.03
11.78
12.67
15.20
18.54
21.86
24.55
26.35
27.30
27.47
26.89
25.34
22.52
18.26
12.67
6.18
-0.57
-6.96
-12.64
-17.56
-21.99
-26.36
-31.20
-37.02
-44.22
-52.92
-62.81
-72.90
-81.50
-86.57
-86.31
-79.72
-67.10
-49.92
-30.45
-11.01
6.58
21.23
32.59
40.68
45.69
47.86
47.51
45.18
41.62
37.74
34.39
32.15
31.17
31.23
31.80
32.33
32.41
31.91
30.93
29.75
28.55
27.34
25.91
23.85
20.76
16.37
10.69
4.00
-3.20
-10.38
-17.13
-23.36
-29.17
-34.96
-41.18
-48.21
-56.13
-64.53
-72.45
-78.46
-80.94
-78.62
-70.94
-58.35
-42.19
-24.45
-7.16
8.07
20.22
28.95
34.26
36.46
35.99
33.46
29.68
25.58
22.10
19.94
19.34
20.03
21.45
22.98
24.25
25.20
26.02
26.91
27.80
28.30
27.79
25.70
21.81
16.32
9.84
3.05
-3.43
-9.37
-14.80
-20.11
-25.80
-32.43
-40.38
-49.60
-59.31
-67.97
-73.53
-73.99
-68.12
-56.00
-39.12
-19.87
-0.79
16.10
29.72
39.79
46.47
49.98
50.54
48.39
44.08
38.52
32.88
28.32
25.68
25.17
26.42
28.64
30.99
32.87
34.07
34.68
34.91
34.83
34.22
32.65
29.67
25.04
18.88
11.68
4.18
-2.96
-9.28
-14.66
-19.34
-23.79
-28.60
-34.24
-40.97
-48.57
-56.31
-62.89
-66.61
-65.90
-59.75
-48.23
-32.52
-14.64
3.13
18.95
31.72
41.09
47.17
50.21
50.42
48.08
43.67
38.00
32.13
27.17
23.95
22.80
23.49
25.35
27.52
29.24
30.06
29.93
29.07
27.83
26.39
24.63
22.23
18.77
14.08
8.33
2.05
-4.09
-9.56
-14.18
-18.18
-21.97
-25.98
-30.50
-35.71
-41.73
-48.51
-55.71
-62.46
-67.34
-68.72
-65.24
-56.45
-42.95
-26.37
-8.80
7.79
21.96
32.95
40.52
44.72
45.81
44.11
40.15
34.72
28.81
23.52
19.81
18.21
18.65
20.57
23.13
25.46
27.02
27.65
27.53
26.88
25.83
24.22
21.70
17.87
12.60
6.10
-1.09
-8.21
-14.66
-20.06
-24.42
-28.08
-31.56
-35.40
-40.02
-45.62
-52.02
-58.55
-64.01
-66.84
-65.56
-59.24
-47.92
-32.67
-15.36
1.94
17.46
30.08
39.36
45.35
48.36
48.75
46.94
43.47
39.05
34.49
30.58
27.83
26.36
25.94
26.04
26.08
25.67
24.70
23.33
21.83
20.35
18.83
16.96
14.39
10.81
6.23
0.87
-4.81
-10.36
-15.46
-19.98
-24.03
-27.90
-31.96
-36.66
-42.32
-49.01
-56.35
-63.43
-68.93
-71.31
-69.32
-62.43
-51.05
-36.48
-20.61
-5.33
7.91
18.30
25.60
29.92
31.50
30.57
27.45
22.74
17.42
12.61
9.40
8.36
9.41
11.90
14.91
17.65
19.76
21.22
22.24
22.93
23.15
22.44
20.38
16.64
11.29
4.74
-2.36
-9.33
-15.58
-20.82
-25.09
-28.69
-32.09
-35.84
-40.39
-45.88
-51.95
-57.59
-61.32
-61.57
-57.13
-47.74
-34.21
-18.21
-1.74
13.40
26.02
35.63
42.16
45.78
46.61
44.82
40.82
35.38
29.49
24.19
20.24
17.91
17.01
16.96
17.15
17.20
16.99
16.65
16.33
16.02
15.49
14.32
12.02
8.26
3.06
-3.21
-9.96
-16.54
-22.44
-27.44
-31.68
-35.58
-39.71
-44.61
-50.61
-57.58
-64.77
-70.84
-74.19
-73.28
-67.27
-56.30
-41.50
-24.70
-7.91
7.22
19.68
29.10
35.60
39.46
41.00
40.46
38.15
34.54
30.36
26.46
23.59
22.23
22.34
23.45
24.91
26.17
26.94
27.28
27.39
27.37
27.07
26.11
24.00
20.40
15.30
9.04
2.20
-4.52
-10.57
-15.69
-19.91
-23.52
-26.97
-30.72
-35.20
-40.70
-47.16
-54.05
-60.26
-64.24
-64.41
-59.68
-49.89
-35.99
-19.78
-3.34
11.50
23.71
33.01
39.64
44.04
46.55
47.31
46.38
43.92
40.33
36.21
32.30
29.21
27.35
26.73
27.08
27.92
28.74
29.12
28.84
27.84
26.18
23.93
21.11
17.68
13.55
8.77
3.49
-2.05
-7.55
-12.78
-17.65
-22.19
-26.45
-30.58
-34.68
-38.97
-43.78
-49.55
-56.56
-64.55
-72.56
-78.82
-81.33
-78.44
-69.55
-55.38
-37.73
-18.94
-1.10
14.37
26.87
36.31
42.89
46.81
48.28
47.66
45.53
42.69
39.92
37.90
36.93
36.93
37.59
38.52
39.49
40.35
41.04
41.41
41.17
39.96
37.44
33.58
28.65
23.19
17.81
12.88
8.48
4.37
0.24
-4.17
-8.91
-13.81
-18.56
-22.92
-26.80
-30.33
-33.83
-37.81
-42.80
-49.18
-56.92
-65.33
-73.00
-78.02
-78.54
-73.40
-62.54
-47.12
-29.21
-11.10
5.29
18.82
29.12
36.34
40.83
42.97
43.12
41.68
39.23
36.43
33.93
32.19
31.41
31.50
32.22
33.32
34.59
35.89
37.02
37.70
37.57
36.28
33.67
29.83
25.16
20.24
15.60
11.57
8.17
5.10
1.94
-1.72
-6.02
-10.86
-15.82
-20.51
-24.70
-28.47
-32.17
-36.40
-41.74
-48.59
-56.85
-65.86
-74.23
-80.12
-81.66
-77.51
-67.43
-52.33
-34.18
-15.28
2.31
17.20
28.85
37.30
42.86
45.91
46.75
45.80
43.67
41.13
38.92
37.60
37.34
37.88
38.79
39.66
40.25
40.53
40.59
40.43
39.90
38.72
36.56
33.29
28.98
23.94
18.65
13.59
9.04
5.05
1.35
-2.49
-6.74
-11.44
-16.30
-20.84
-24.69
-27.74
-30.29
-32.91
-36.29
-40.91
-46.97
-54.22
-61.84
-68.55
-72.74
-72.80
-67.70
-57.39
-42.88
-26.01
-8.91
6.63
19.47
29.23
36.08
40.42
42.64
43.10
42.12
40.16
37.78
35.60
34.12
33.65
34.14
35.22
36.43
37.37
37.82
37.83
37.52
36.96
36.01
34.31
31.50
27.46
22.38
16.82
11.47
6.89
3.25
0.37
-2.24
-5.07
-8.41
-12.21
-16.14
-19.76
-22.67
-24.70
-26.04
-27.22
-29.00
-32.20
-37.42
-44.68
-53.25
-61.65
-67.94
-70.20
-67.13
-58.44
-45.08
-28.85
-11.94
3.65
16.57
26.21
32.60
36.10
37.13
36.11
33.51
29.93
26.09
22.73
20.38
19.31
19.45
20.50
22.12
23.99
25.90
27.71
29.20
30.16
30.31
29.45
27.48
24.43
20.50
16.02
11.39
6.95
2.82
-1.09
-5.06
-9.39
-14.18
-19.29
-24.34
-28.93
-32.83
-36.12
-39.25
-42.87
-47.66
-53.97
-61.64
-69.77
-76.82
-80.87
-80.14
-73.68
-61.72
-45.61
-27.50
-9.64
6.18
18.93
28.39
34.80
38.55
40.07
39.76
38.07
35.54
32.76
30.30
28.53
27.62
27.46
27.81
28.42
29.11
29.87
30.73
31.67
32.48
32.78
32.07
30.00
26.49
21.86
16.68
11.49
6.67
2.23
-2.03
-6.43
-11.15
-16.16
-21.19
-25.89
-29.98
-33.40
-36.38
-39.40
-43.09
-48.06
-54.59
-62.44
-70.59
-77.36
-80.74
-79.05
-71.51
-58.52
-41.63
-23.04
-5.00
10.77
23.32
32.45
38.43
41.76
42.96
42.50
40.86
38.52
36.07
33.97
32.56
31.92
31.85
32.08
32.33
32.46
32.54
32.66
32.86
32.97
32.63
31.46
29.23
25.96
21.93
17.53
13.12
8.85
4.66
0.39
-4.18
-9.11
-14.26
-19.31
-23.90
-27.78
-30.89
-33.49
-36.08
-39.36
-43.95
-50.19
-57.85
-65.97
-72.95
-76.85
-76.05
-69.73
-58.23
-43.00
-26.11
-9.66
4.75
16.33
24.90
30.69
34.03
35.23
34.62
32.61
29.76
26.76
24.28
22.83
22.70
23.86
25.98
28.55
31.06
33.03
34.15
34.22
33.19
31.04
27.85
23.81
19.19
14.33
9.47
4.74
0.11
-4.54
-9.22
-13.88
-18.34
-22.45
-26.10
-29.40
-32.61
-36.15
-40.50
-46.04
-52.83
-60.30
-67.28
-72.03
-72.79
-68.26
-58.22
-43.61
-26.30
-8.55
7.66
21.01
31.01
37.75
41.65
43.20
42.89
41.18
38.62
35.78
33.26
31.48
30.70
30.89
31.87
33.29
34.77
35.95
36.56
36.39
35.34
33.39
30.59
27.11
23.14
18.90
14.61
10.37
6.19
1.99
-2.39
-7.02
-11.90
-16.88
-21.83
-26.62
-31.32
-36.17
-41.53
-47.82
-55.17
-63.26
-71.08
-77.07
-79.41
-76.60
-68.01
-54.16
-36.70
-17.85
0.21
15.88
28.33
37.40
43.34
46.52
47.41
46.46
44.23
41.32
38.32
35.75
33.93
32.99
32.82
33.24
33.96
34.76
35.49
35.98
36.05
35.44
33.87
31.13
27.27
22.60
17.60
12.70
8.11
3.76
-0.61
-5.23
-10.17
-15.25
-20.13
-24.54
-28.34
-31.72
-35.05
-38.89
-43.72
-49.77
-56.75
-63.73
-69.18
-71.29
-68.53
-60.25
-46.96
-30.28
-12.42
4.50
18.91
30.10
38.05
43.13
45.80
46.46
45.43
43.13
40.08
36.97
34.48
33.13
33.03
33.91
35.26
36.44
37.09
37.16
36.83
36.28
35.54
34.34
32.28
29.14
24.93
20.16
15.48
11.44
8.23
5.56
2.83
-0.53
-4.80
-9.84
-15.16
-20.16
-24.44
-27.91
-30.93
-34.17
-38.36
-44.09
-51.54
-60.25
-69.05
-76.22
-79.82
-78.30
-70.94
-58.20
-41.53
-23.05
-4.96
11.00
23.79
33.11
39.15
42.38
43.34
42.55
40.55
37.95
35.38
33.40
32.37
32.30
32.93
33.83
34.61
35.10
35.29
35.26
34.93
34.10
32.40
29.60
25.72
21.11
16.33
11.90
8.09
4.79
1.65
-1.79
-5.83
-10.50
-15.52
-20.49
-25.03
-28.92
-32.20
-35.19
-38.38
-42.42
-47.76
-54.54
-62.25
-69.68
-75.05
-76.51
-72.68
-63.23
-49.03
-31.93
-14.22
2.12
15.75
26.22
33.70
38.61
41.39
42.35
41.71
39.81
37.15
34.38
32.13
30.84
30.59
31.12
32.00
32.80
33.37
33.73
34.08
34.53
34.92
34.90
33.99
31.81
28.28
23.65
18.38
12.96
7.82
3.07
-1.43
-5.97
-10.77
-15.91
-21.16
-26.13
-30.47
-34.01
-36.87
-39.44
-42.34
-46.15
-51.36
-58.06
-65.79
-73.46
-79.43
-81.87
-79.31
-71.20
-58.10
-41.61
-23.81
-6.64
8.52
21.01
30.68
37.65
42.01
43.94
43.67
41.72
38.81
35.73
33.11
31.31
30.40
30.25
30.76
31.89
33.66
36.05
38.79
41.42
43.27
43.71
42.35
39.13
34.38
28.65
22.55
16.53
10.82
5.41
0.13
-5.19
-10.60
-16.02
-21.18
-25.80
-29.67
-32.81
-35.47
-38.15
-41.47
-45.98
-51.93
-59.01
-66.21
-71.95
-74.46
-72.26
-64.79
-52.56
-37.11
-20.51
-4.69
8.95
19.76
27.68
32.98
35.96
36.83
35.83
33.30
29.80
26.02
22.72
20.50
19.65
20.13
21.58
23.46
25.22
26.46
26.95
26.71
25.87
24.59
22.95
20.91
18.33
15.07
11.05
6.31
1.03
-4.51
-10.09
-15.52
-20.71
-25.62
-30.31
-34.92
-39.74
-45.16
-51.45
-58.56
-65.75
-71.65
-74.46
-72.57
-65.23
-52.79
-36.76
-19.27
-2.44
12.15
23.72
32.13
37.67
40.76
41.80
41.15
39.22
36.48
33.48
30.72
28.59
27.25
26.68
26.71
27.10
27.65
28.20
28.58
28.54
27.85
26.30
23.83
20.48
16.42
11.87
7.01
1.96
-3.20
-8.40
-13.54
-18.50
-23.12
-27.29
-30.97
-34.30
-37.59
-41.34
-46.14
-52.31
-59.70
-67.37
-73.73
-76.86
-75.19
-68.03
-55.87
-40.29
-23.36
-7.02
7.38
19.19
28.27
34.72
38.71
40.45
40.27
38.67
36.31
33.88
31.95
30.90
30.81
31.57
32.95
34.66
36.41
37.97
39.15
39.76
39.59
38.39
35.99
32.39
27.81
22.61
17.16
11.67
6.18
0.57
-5.25
-11.16
-16.84
-21.88
-25.99
-29.20
-31.92
-34.77
-38.44
-43.42
-49.88
-57.49
-65.36
-72.04
-75.78
-75.00
-68.74
-57.13
-41.45
-23.76
-6.31
9.13
21.63
31.03
37.67
41.97
44.24
44.67
43.46
41.02
37.98
35.10
32.99
31.94
31.82
32.27
32.89
33.45
33.91
34.36
34.80
35.04
34.77
33.65
31.53
28.59
25.16
21.63
18.25
14.99
11.65
8.01
3.89
-0.68
-5.44
-10.01
-14.11
-17.66
-20.97
-24.57
-29.17
-35.30
-43.10
-52.07
-61.08
-68.52
-72.63
-71.99
-65.91
-54.63
-39.42
-22.14
-4.86
10.63
23.15
32.24
38.00
40.89
41.47
40.28
37.85
34.69
31.36
28.39
26.32
25.45
25.80
27.06
28.70
30.15
30.94
30.85
29.90
28.27
26.11
23.53
20.48
16.84
12.60
7.79
2.64
-2.52
-7.40
-11.81
-15.70
-19.17
-22.40
-25.64
-29.11
-33.09
-37.86
-43.62
-50.32
-57.41
-63.77
-67.85
-68.05
-63.30
-53.50
-39.64
-23.47
-7.03
7.99
20.56
30.28
37.23
41.61
43.58
43.33
41.14
37.54
33.25
29.08
25.73
23.58
22.67
22.73
23.29
23.92
24.30
24.25
23.80
22.98
21.84
20.29
18.22
15.47
11.96
7.66
2.72
-2.62
-8.09
-13.43
-18.44
-23.09
-27.42
-31.61
-35.99
-40.95
-46.83
-53.72
-61.31
-68.66
-74.34
-76.66
-74.21
-66.40
-53.78
-37.90
-20.92
-4.89
8.75
19.49
27.52
33.34
37.49
40.17
41.44
41.31
40.06
38.17
36.33
35.09
34.72
35.12
35.90
36.57
36.76
36.37
35.50
34.25
32.72
30.82
28.37
25.20
21.18
16.29
10.63
4.47
-1.90
-8.14
-13.98
-19.28
-24.07
-28.51
-32.81
-37.24
-41.98
-47.18
-52.77
-58.39
-63.24
-66.14
-65.81
-61.23
-52.10
-39.09
-23.68
-7.80
6.70
18.53
27.16
32.71
35.74
36.93
36.88
35.99
34.52
32.69
30.70
28.83
27.35
26.46
26.27
26.71
27.54
28.40
29.00
29.10
28.62
27.57
25.97
23.87
21.22
17.99
14.18
9.83
5.10
0.21
-4.68
-9.42
-13.94
-18.20
-22.19
-25.95
-29.57
-33.33
-37.57
-42.63
-48.55
-54.89
-60.62
-64.25
-64.31
-59.79
-50.56
-37.49
-22.23
-6.68
7.45
19.03
27.65
33.41
36.69
37.84
37.20
35.05
31.86
28.24
24.94
22.59
21.53
21.72
22.77
24.17
25.41
26.14
26.18
25.51
24.21
22.40
20.17
17.59
14.66
11.32
7.53
3.32
-1.22
-5.89
-10.48
-14.86
-18.89
-22.52
-25.77
-28.79
-31.92
-35.66
-40.53
-46.84
-54.37
-62.20
-68.75
-72.19
-70.92
-64.19
-52.40
-36.95
-19.91
-3.37
11.06
22.51
30.77
36.15
39.05
39.92
39.21
37.33
34.82
32.23
29.99
28.41
27.59
27.53
28.21
29.55
31.45
33.70
35.94
37.70
38.50
37.97
35.97
32.67
28.43
23.65
18.70
13.77
8.83
3.72
-1.70
-7.49
-13.44
-19.20
-24.41
-28.79
-32.35
-35.38
-38.38
-41.97
-46.70
-52.75
-59.81
-66.82
-72.15
-73.97
-70.84
-62.23
-48.87
-32.49
-15.32
0.61
14.03
24.51
32.24
37.62
41.02
42.57
42.40
40.77
38.19
35.40
33.09
31.70
31.33
31.72
32.50
33.36
34.15
34.91
35.68
36.37
36.70
36.28
34.82
32.20
28.67
24.68
20.71
17.14
13.98
11.03
7.90
4.29
0.01
-4.80
-9.83
-14.68
-18.99
-22.59
-25.53
-28.15
-30.94
-34.49
-39.32
-45.66
-53.23
-61.16
-68.00
-72.04
-71.74
-66.21
-55.59
-41.02
-24.34
-7.66
7.39
19.76
29.13
35.70
39.83
41.88
42.19
41.08
38.97
36.47
34.17
32.57
31.86
31.89
32.31
32.73
32.86
32.64
32.25
31.88
31.61
31.26
30.44
28.75
25.91
21.98
17.31
12.48
7.95
3.95
0.39
-3.07
-6.77
-10.85
-15.23
-19.55
-23.48
-26.77
-29.41
-31.64
-33.88
-36.61
-40.29
-45.22
-51.37
-58.26
-64.86
-69.66
-71.06
-67.82
-59.53
-46.85
-31.32
-14.91
0.52
13.64
23.77
30.78
34.82
36.18
35.21
32.43
28.54
24.44
21.01
18.86
18.23
18.92
20.46
22.32
24.15
25.80
27.23
28.39
29.10
29.07
28.06
25.98
22.97
19.37
15.47
11.42
7.22
2.74
-2.04
-7.03
-11.99
-16.68
-20.90
-24.66
-28.13
-31.60
-35.39
-39.84
-45.26
-51.79
-59.17
-66.54
-72.41
-74.96
-72.64
-64.87
-52.25
-36.49
-19.82
-4.25
8.93
19.30
27.01
32.38
35.62
36.83
36.18
34.07
31.14
28.09
25.49
23.63
22.60
22.35
22.82
23.96
25.66
27.68
29.57
30.87
31.13
30.14
27.92
24.75
20.98
16.89
12.64
8.19
3.44
-1.69
-7.17
-12.80
-18.36
-23.59
-28.33
-32.67
-36.78
-40.97
-45.63
-51.12
-57.59
-64.88
-72.16
-78.04
-80.83
-78.98
-71.69
-59.26
-43.07
-25.14
-7.57
8.06
20.88
30.66
37.54
41.78
43.63
43.38
41.51
38.68
35.66
33.18
31.68
31.26
31.73
32.75
33.94
35.02
35.74
35.98
35.60
34.47
32.48
29.63
25.99
21.74
17.11
12.27
7.31
2.25
-2.91
-8.14
-13.31
-18.20
-22.56
-26.23
-29.24
-31.81
-34.39
-37.52
-41.77
-47.47
-54.51
-62.10
-68.75
-72.62
-72.01
-65.90
-54.44
-38.94
-21.52
-4.41
10.58
22.47
31.09
36.77
39.99
41.17
40.55
38.40
35.14
31.35
27.71
24.85
23.13
22.57
22.88
23.62
24.37
24.77
24.68
24.04
22.90
21.32
19.33
16.94
14.05
10.61
6.53
1.91
-3.03
-7.98
-12.59
-16.71
-20.34
-23.70
-27.11
-30.86
-35.22
-40.35
-46.27
-52.74
-59.12
-64.17
-66.37
-64.25
-56.99
-44.86
-29.19
-12.04
4.51
18.84
30.16
38.31
43.47
45.92
45.90
43.70
39.82
34.99
30.10
25.99
23.31
22.31
22.90
24.65
26.97
29.26
31.07
32.17
32.54
32.24
31.30
29.68
27.22
23.82
19.38
13.93
7.62
0.69
-6.55
-13.79
-20.69
-27.02
-32.72
-37.91
-42.89
-48.15
-54.11
-60.97
-68.47
-75.72
-81.23
-83.29
-80.47
-72.17
-58.93
-42.33
-24.55
-7.68
6.77
18.08
26.20
31.49
34.38
35.16
34.04
31.33
27.55
23.49
20.09
18.18
18.25
20.23
23.60
27.56
31.31
34.24
36.06
36.71
36.23
34.78
32.49
29.48
25.88
21.79
17.31
12.50
7.53
2.57
-2.21
-6.69
-10.85
-14.80
-18.78
-23.05
-27.87
-33.46
-39.78
-46.44
-52.54
-56.79
-57.73
-54.31
-46.20
-34.05
-19.35
-3.97
10.38
22.50
31.82
38.32
42.21
43.83
43.53
41.72
38.88
35.54
32.23
29.32
26.99
25.25
24.02
23.19
22.69
22.46
22.34
22.02
21.07
19.00
15.50
10.56
4.52
-2.04
-8.59
-14.82
-20.81
-26.93
-33.67
-41.49
-50.64
-61.01
-72.12
-83.12
-92.81
-100.03
-104.05
-104.98
-103.72
-101.70
-100.03
-98.97
-97.67
-94.57
-88.13
-77.42
-62.56
-44.53
-24.93
-5.62
11.54
25.06
34.09
38.78
40.41
41.02
42.87
47.81
56.89
70.36
88.10
109.82
135.18
163.55
193.80
224.27
253.06
278.73
300.69
319.31
335.26
348.58
357.61
358.85
348.06
322.30
281.71
230.22
174.41
121.07
74.72
36.32
3.84
-25.66
-54.11
-81.68
-106.96
-128.11
-143.74
-152.88
-154.46
-147.00
-129.42
-102.44
-70.32
-40.47
-21.65
-20.62
-39.34
-73.57
-114.23
-150.82
-175.25
-185.08
-183.16
-175.32
-167.23
-162.05
-159.95
-159.35
-158.90
-158.82
-161.83
-171.33
-189.63
-216.48
-249.00
-282.72
-313.07
-336.59
-345.71
-334.82
-300.88
-244.89
-172.08
-90.26
-7.39
70.10
137.41
191.36
229.55
251.56
259.36
257.01
249.58
241.50
235.41
231.55
228.25
222.59
212.27
196.58
176.59
155.34
133.98
112.34
89.01
61.95
28.81
-12.14
-61.56
-117.34
-175.42
-229.70
-272.75
-297.35
-299.16
-279.08
-243.38
-201.60
-162.58
-133.03
-112.16
-96.32
-81.63
-65.98
-49.83
-35.02
-23.11
-13.67
-5.09
4.61
16.12
28.58
40.06
48.42
52.62
53.39
53.50
56.29
64.53
79.20
99.47
123.29
148.36
173.18
194.58
211.57
223.99
232.21
236.41
236.48
231.75
220.94
202.35
174.57
138.22
96.30
54.57
20.48
1.35
2.11
23.37
60.71
105.70
148.32
179.20
191.99
184.49
158.37
117.99
68.73
15.33
-38.86
-91.68
-141.71
-187.34
-226.38
-256.33
-275.23
-282.65
-280.12
-270.50
-256.84
-241.12
-223.63
-203.43
-179.75
-153.21
-126.36
-103.01
-86.59
-78.85
-79.18
-85.08
-93.28
-100.84
-105.69
-106.71
-103.50
-95.99
-84.35
-69.05
-50.94
-31.33
-11.74
6.23
21.24
32.51
39.89
43.80
45.06
44.67
43.57
42.50
41.99
42.22
43.11
44.38
45.66
46.64
47.18
47.37
47.38
47.35
47.14
46.38
44.48
40.93
35.50
28.32
19.90
10.96
2.20
-5.87
-13.01
-19.34
-25.18
-31.00
-37.38
-44.75
-53.29
-62.54
-71.22
-77.35
-78.80
-74.01
-62.56
-45.52
-25.02
-3.60
16.58
34.11
48.48
59.69
67.92
73.35
76.16
76.61
75.09
72.24
68.73
65.32
62.59
60.86
60.13
60.02
60.01
59.62
58.64
57.13
55.36
53.53
51.60
49.28
46.14
41.88
36.42
30.03
23.25
16.65
10.72
5.64
1.32
-2.67
-6.84
-11.67
-17.48
-24.29
-31.77
-39.22
-45.61
-49.67
-50.20
-46.32
-37.84
-25.51
-10.83
4.20
17.71
28.46
36.05
40.81
43.37
44.29
43.81
42.03
39.07
35.31
31.47
28.40
26.77
26.86
28.49
31.06
33.91
36.40
38.10
38.77
38.26
36.51
33.60
29.85
25.76
22.07
19.38
17.93
17.42
17.09
15.95
13.29
8.88
2.90
-4.20
-12.08
-20.59
-29.65
-38.91
-47.46
-53.89
-56.62
-54.46
-47.10
-35.36
-20.95
-5.87
8.05
19.63
28.41
34.48
38.18
39.86
39.69
37.81
34.51
30.26
25.81
21.91
19.16
17.78
17.63
18.25
19.15
19.93
20.43
20.64
20.62
20.38
19.88
18.99
17.57
15.50
12.68
9.10
4.87
0.33
-4.22
-8.42
-12.07
-15.26
-18.24
-21.47
-25.36
-30.16
-35.75
-41.68
-47.09
-50.88
-51.91
-49.41
-43.21
-33.82
-22.44
-10.56
0.40
9.42
16.05
20.35
22.75
23.66
23.42
22.29
20.48
18.33
16.27
14.77
14.18
14.70
16.19
18.36
20.81
23.16
25.09
26.41
27.01
26.85
25.97
24.41
22.22
19.35
15.85
11.81
7.36
2.76
-1.76
-5.95
-9.66
-12.80
-15.41
-17.65
-19.82
-22.36
-25.70
-30.06
-35.22
-40.41
-44.45
-46.04
-44.22
-38.67
-29.96
-19.22
-7.96
2.48
11.06
17.29
21.08
22.74
22.69
21.43
19.47
17.25
15.09
13.35
12.23
11.95
12.52
13.77
15.50
17.34
19.03
20.30
21.02
21.07
20.40
18.95
16.81
14.24
11.49
8.79
6.19
3.66
1.06
-1.77
-4.89
-8.23
-11.69
-15.13
-18.53
-21.99
-25.69
-29.80
-34.39
-39.26
-43.92
-47.49
-48.90
-47.22
-41.89
-33.15
-21.93
-9.77
1.74
11.29
18.18
22.29
23.98
23.76
22.06
19.30
15.88
12.29
9.09
6.75
5.61
5.74
6.89
8.69
10.67
12.50
13.98
15.08
15.85
16.30
16.47
16.30
15.70
14.58
12.85
10.47
7.46
3.91
0.03
-3.97
-7.88
-11.65
-15.29
-18.96
-22.81
-26.94
-31.40
-36.06
-40.62
-44.52
-46.98
-47.15
-44.33
-38.33
-29.52
-18.93
-7.88
2.25
10.36
15.92
18.95
19.89
19.40
18.11
16.44
14.60
12.65
10.61
8.67
7.06
6.04
5.71
6.01
6.64
7.29
7.69
7.66
7.21
6.40
5.40
4.33
3.27
2.16
0.94
-0.53
-2.31
-4.38
-6.67
-9.06
-11.38
-13.57
-15.66
-17.67
-19.70
-21.87
-24.35
-27.32
-30.83
-34.60
-38.02
-40.12
-39.84
-36.45
-29.85
-20.69
-10.30
-0.18
8.36
14.60
18.53
20.55
21.20
20.93
20.05
18.66
16.98
15.23
13.68
12.60
12.14
12.28
12.97
14.11
15.50
16.93
18.07
18.57
18.16
16.68
14.17
10.80
6.83
2.58
-1.69
-5.70
-9.27
-12.17
-14.36
-15.93
-17.04
-17.93
-18.87
-20.10
-21.76
-23.96
-26.70
-29.94
-33.73
-37.88
-42.08
-45.74
-48.00
-47.96
-45.06
-39.36
-31.64
-23.28
-15.63
-9.72
-5.89
-3.85
-2.99
-2.71
-2.68
-2.70
-2.60
-1.98
-0.38
2.58
7.05
12.68
18.87
24.89
30.24
34.69
38.20
40.81
42.44
42.99
42.28
40.36
37.44
33.90
30.10
26.26
22.45
18.56
14.51
10.26
5.92
1.71
-2.13
-5.50
-8.44
-11.16
-13.96
-17.12
-20.80
-24.92
-29.04
-32.42
-34.15
-33.42
-29.81
-23.50
-15.27
-6.23
2.44
9.87
15.62
19.58
21.85
22.57
21.84
19.83
16.88
13.53
10.44
8.19
7.12
7.18
8.03
9.17
10.18
10.89
11.28
11.39
11.27
10.84
10.01
8.79
7.25
5.54
3.77
1.94
0.03
-2.05
-4.27
-6.53
-8.68
-10.68
-12.61
-14.69
-17.20
-20.35
-24.22
-28.64
-33.23
-37.34
-40.12
-40.74
-38.60
-33.53
-25.91
-16.60
-6.80
2.34
9.95
15.61
19.37
21.54
22.46
22.40
21.57
20.06
18.10
16.02
14.16
12.87
12.28
12.25
12.49
12.70
12.67
12.35
11.86
11.36
10.92
10.57
10.21
9.70
8.95
7.92
6.58
4.84
2.62
-0.21
-3.59
-7.33
-11.07
-14.42
-17.17
-19.40
-21.43
-23.74
-26.68
-30.31
-34.23
-37.66
-39.63
-39.30
-36.19
-30.38
-22.55
-13.76
-5.06
2.71
9.14
14.16
17.82
20.21
21.41
21.53
20.77
19.50
18.13
16.97
16.22
15.83
15.61
15.37
14.98
14.44
13.84
13.27
12.78
12.36
11.91
11.25
10.24
8.79
6.91
4.66
2.12
-0.64
-3.57
-6.58
-9.48
-12.08
-14.11
-15.49
-16.28
-16.79
-17.46
-18.66
-20.62
-23.26
-26.26
-28.97
-30.64
-30.44
-27.84
-22.77
-15.70
-7.61
0.36
7.20
12.31
15.61
17.40
18.10
18.03
17.37
16.17
14.57
12.81
11.27
10.22
9.78
9.86
10.24
10.68
11.06
11.40
11.76
12.15
12.44
12.38
11.76
10.48
8.61
6.32
3.86
1.36
-1.09
-3.51
-6.02
-8.69
-11.49
-14.27
-16.79
-18.77
-20.09
-20.82
-21.26
-21.88
-23.02
-24.80
-26.87
-28.51
-28.82
-27.15
-23.21
-17.27
-10.00
-2.28
5.02
11.30
16.16
19.50
21.37
21.96
21.43
19.91
17.56
14.55
11.23
8.08
5.58
4.03
3.44
3.56
3.98
4.40
4.68
4.84
5.01
5.18
5.22
4.92
4.09
2.68
0.79
-1.35
-3.56
-5.62
-7.42
-8.93
-10.23
-11.40
-12.56
-13.82
-15.30
-17.11
-19.37
-22.10
-25.14
-28.03
-30.15
-30.71
-29.10
-25.07
-18.89
-11.28
-3.29
4.07
10.04
14.27
16.82
17.97
18.11
17.57
16.60
15.41
14.22
13.25
12.66
12.49
12.65
13.00
13.38
13.70
13.93
14.01
13.85
13.31
12.28
10.70
8.62
6.21
3.54
0.67
-2.41
-5.64
-8.90
-11.95
-14.47
-16.30
-17.40
-17.95
-18.20
-18.55
-19.34
-20.81
-23.12
-26.20
-29.64
-32.73
-34.56
-34.16
-30.95
-24.96
-16.90
-7.93
0.65
7.81
13.09
16.49
18.46
19.54
20.11
20.33
20.20
19.66
18.69
17.48
16.27
15.34
14.91
14.99
15.49
16.14
16.69
16.97
16.81
16.13
14.86
13.04
10.68
7.93
4.99
2.03
-0.74
-3.22
-5.42
-7.37
-9.14
-10.75
-12.12
-13.19
-13.98
-14.58
-15.28
-16.41
-18.28
-20.98
-24.28
-27.53
-29.80
-30.14
-27.81
-22.67
-15.17
-6.30
2.67
10.57
16.64
20.62
22.63
23.14
22.63
21.50
19.96
18.15
16.09
13.90
11.76
9.86
8.43
7.57
7.28
7.45
7.96
8.56
9.07
9.26
9.01
8.32
7.27
6.02
4.64
3.16
1.54
-0.22
-2.01
-3.67
-5.05
-6.16
-7.10
-8.04
-9.08
-10.23
-11.40
-12.59
-13.95
-15.76
-18.32
-21.71
-25.57
-29.07
-31.11
-30.70
-27.31
-21.13
-12.98
-4.03
4.56
11.96
17.76
21.86
24.32
25.22
24.70
23.05
20.65
18.02
15.57
13.63
12.35
11.70
11.57
11.76
12.11
12.39
12.50
12.35
11.95
11.33
10.52
9.54
8.41
7.21
6.06
5.01
4.03
2.97
1.62
-0.14
-2.27
-4.70
-7.27
-9.90
-12.46
-15.00
-17.54
-20.22
-23.17
-26.45
-30.00
-33.42
-36.00
-36.86
-35.26
-30.96
-24.23
-15.89
-6.92
1.69
9.19
15.18
19.49
22.16
23.34
23.26
22.24
20.65
18.86
17.17
15.75
14.71
14.09
13.81
13.79
13.89
13.95
13.83
13.38
12.53
11.21
9.48
7.48
5.41
3.48
1.81
0.43
-0.78
-2.00
-3.47
-5.28
-7.43
-9.79
-12.10
-14.12
-15.67
-16.72
-17.50
-18.38
-19.77
-21.99
-25.02
-28.39
-31.22
-32.40
-30.95
-26.45
-19.20
-10.16
-0.72
7.77
14.45
19.01
21.66
22.86
23.02
22.46
21.30
19.67
17.71
15.66
13.74
12.11
10.84
9.90
9.21
8.69
8.33
8.07
7.87
7.62
7.17
6.45
5.42
4.21
2.98
1.93
1.15
0.57
0.04
-0.68
-1.72
-3.13
-4.86
-6.79
-8.79
-10.82
-12.85
-14.93
-17.18
-19.77
-22.83
-26.27
-29.72
-32.52
-33.85
-33.00
-29.61
-23.88
-16.45
-8.27
-0.34
6.60
12.00
15.68
17.70
18.30
17.83
16.65
15.06
13.34
11.72
10.39
9.57
9.39
9.93
11.08
12.68
14.43
16.04
17.32
18.13
18.42
18.13
17.18
15.49
13.04
9.99
6.65
3.44
0.70
-1.42
-3.02
-4.39
-5.79
-7.32
-8.88
-10.31
-11.45
-12.35
-13.20
-14.33
-16.03
-18.46
-21.63
-25.30
-28.97
-31.91
-33.24
-32.21
-28.50
-22.33
-14.48
-6.06
1.81
8.31
13.07
16.12
17.72
18.14
17.64
16.42
14.66
12.68
10.83
9.48
8.87
9.04
9.82
10.89
11.92
12.64
12.95
12.82
12.32
11.52
10.49
9.27
7.91
6.48
4.99
3.46
1.85
0.07
-1.93
-4.13
-6.40
-8.54
-10.37
-11.79
-12.88
-13.90
-15.20
-17.15
-20.01
-23.84
-28.41
-33.09
-36.84
-38.54
-37.31
-32.85
-25.70
-16.94
-7.92
0.24
6.90
11.88
15.33
17.44
18.41
18.32
17.36
15.83
14.12
12.65
11.76
11.60
12.14
13.28
14.75
16.32
17.80
19.05
19.94
20.31
19.96
18.75
16.71
13.99
10.89
7.74
4.79
2.21
-0.01
-1.91
-3.61
-5.19
-6.76
-8.37
-10.04
-11.79
-13.59
-15.49
-17.57
-20.08
-23.30
-27.52
-32.65
-38.13
-42.87
-45.51
-44.87
-40.39
-32.46
-22.27
-11.38
-1.28
7.14
13.58
18.22
21.34
23.19
23.92
23.65
22.60
21.10
19.53
18.20
17.31
16.90
16.87
17.03
17.21
17.30
17.28
17.22
17.17
17.11
16.89
16.30
15.10
13.22
10.83
8.18
5.56
3.16
0.93
-1.29
-3.78
-6.67
-9.91
-13.23
-16.25
-18.64
-20.33
-21.51
-22.64
-24.24
-26.65
-29.83
-33.21
-35.88
-36.75
-35.02
-30.37
-23.15
-14.24
-4.79
4.07
11.49
16.97
20.42
22.04
22.14
21.13
19.37
17.18
14.85
12.66
10.88
9.75
9.45
10.01
11.31
13.10
15.04
16.83
18.21
19.00
19.09
18.45
17.17
15.39
13.29
11.07
8.87
6.70
4.52
2.25
-0.13
-2.55
-4.82
-6.83
-8.55
-10.16
-11.98
-14.34
-17.45
-21.29
-25.57
-29.78
-33.23
-35.18
-34.93
-32.04
-26.50
-18.83
-10.02
-1.27
6.33
12.11
15.93
18.01
18.69
18.34
17.23
15.58
13.69
11.91
10.60
10.06
10.41
11.53
13.11
14.73
15.91
16.26
15.67
14.17
12.00
9.39
6.52
3.42
0.11
-3.35
-6.74
-9.74
-12.07
-13.59
-14.43
-14.87
-15.28
-15.97
-17.15
-19.02
-21.69
-25.21
-29.23
-33.12
-35.90
-36.48
-34.09
-28.55
-20.40
-10.72
-0.91
7.87
14.85
19.72
22.58
23.65
23.24
21.59
19.09
16.15
13.31
11.11
9.99
10.16
11.49
13.61
16.02
18.18
19.70
20.45
20.46
19.82
18.62
16.72
14.00
10.36
5.81
0.63
-4.74
-9.79
-14.08
-17.38
-19.73
-21.44
-22.96
-24.81
-27.35
-30.73
-34.80
-39.16
-43.11
-45.77
-46.25
-43.87
-38.37
-30.06
-19.91
-9.24
0.59
8.64
14.51
18.32
20.59
21.80
22.35
22.37
21.89
20.97
19.84
18.85
18.35
18.54
19.39
20.64
21.92
22.87
23.28
23.09
22.35
21.13
19.47
17.35
14.79
11.80
8.47
4.95
1.36
-2.10
-5.31
-8.15
-10.60
-12.79
-14.98
-17.51
-20.74
-24.87
-29.86
-35.29
-40.39
-44.13
-45.46
-43.59
-38.24
-29.87
-19.49
-8.45
1.85
10.41
16.69
20.70
22.81
23.46
23.04
21.76
19.82
17.42
14.97
13.01
12.01
12.23
13.52
15.42
17.29
18.57
18.97
18.48
17.35
15.84
14.12
12.19
9.93
7.24
4.10
0.61
-2.97
-6.34
-9.31
-11.74
-13.65
-15.15
-16.52
-18.03
-19.99
-22.65
-26.10
-30.17
-34.28
-37.50
-38.80
-37.27
-32.55
-24.96
-15.46
-5.36
4.07
11.94
17.86
21.94
24.52
26.01
26.72
26.79
26.33
25.51
24.56
23.79
23.45
23.60
24.12
24.71
25.00
24.77
23.89
22.33
20.19
17.58
14.67
11.73
9.09
7.06
5.77
5.05
4.51
3.58
1.89
-0.73
-4.11
-7.92
-11.81
-15.61
-19.30
-22.96
-26.74
-30.74
-34.95
-39.13
-42.73
-44.91
-44.74
-41.51
-35.03
-25.81
-14.88
-3.56
7.01
16.00
23.02
28.00
31.06
32.39
32.28
31.10
29.26
27.16
25.16
23.49
22.33
21.72
21.67
22.07
22.81
23.74
24.67
25.43
25.81
25.64
24.76
23.09
20.62
17.48
13.85
10.05
6.42
3.27
0.78
-1.12
-2.69
-4.31
-6.29
-8.73
-11.49
-14.29
-16.86
-19.05
-21.04
-23.14
-25.79
-29.26
-33.56
-38.21
-42.34
-44.75
-44.34
-40.47
-33.22
-23.49
-12.73
-2.45
6.15
12.53
16.71
19.17
20.44
20.93
20.88
20.35
19.48
18.47
17.68
17.45
18.03
19.39
21.26
23.21
24.88
26.12
26.98
27.63
28.16
28.47
28.33
27.46
25.72
23.20
20.15
16.96
13.94
11.21
8.72
6.25
3.56
0.48
-2.99
-6.69
-10.27
-13.36
-15.66
-17.10
-17.85
-18.34
-19.15
-20.79
-23.58
-27.45
-31.89
-36.03
-38.76
-39.09
-36.39
-30.62
-22.39
-12.78
-3.12
5.41
12.00
16.34
18.59
19.08
18.27
16.54
14.26
11.77
9.51
7.86
7.10
7.32
8.34
9.86
11.52
13.07
14.36
15.36
15.93
15.92
15.12
13.34
10.67
7.37
3.85
0.49
-2.48
-5.01
-7.20
-9.16
-10.96
-12.56
-13.86
-14.80
-15.38
-15.74
-16.12
-16.85
-18.35
-21.12
-25.40
-31.09
-37.47
-43.27
-46.92
-47.12
-43.26
-35.65
-25.48
-14.22
-3.29
6.37
14.32
20.37
24.46
26.60
26.82
25.40
22.80
19.60
16.34
13.44
11.18
9.78
9.37
10.00
11.53
13.57
15.61
17.14
17.92
17.88
17.14
15.82
13.95
11.52
8.61
5.47
2.48
0.01
-1.78
-3.08
-4.31
-5.85
-7.88
-10.26
-12.73
-15.00
-17.05
-19.12
-21.60
-24.81
-28.85
-33.42
-37.85
-41.19
-42.43
-40.77
-35.90
-28.25
-18.87
-9.17
-0.45
6.41
11.18
14.07
15.48
15.70
14.83
12.83
9.79
6.11
2.53
-0.08
-1.04
-0.02
2.79
6.77
11.07
14.86
17.61
19.04
19.21
18.31
16.57
14.16
11.21
7.76
3.85
-0.43
-4.83
-9.06
-12.78
-15.72
-17.78
-19.08
-20.01
-21.00
-22.46
-24.63
-27.52
-30.86
-34.08
-36.40
-36.88
-34.67
-29.30
-20.91
-10.31
1.16
12.01
20.97
27.28
30.82
31.93
31.23
29.33
26.74
23.89
21.19
19.03
17.73
17.51
18.33
19.83
21.47
22.59
22.79
22.03
20.61
19.02
17.74
16.98
16.61
16.26
15.45
13.85
11.35
8.13
4.48
0.68
-3.03
-6.59
-10.01
-13.36
-16.73
-20.21
-23.91
-27.93
-32.28
-36.75
-40.69
-43.13
-43.03
-39.59
-32.72
-23.12
-12.15
-1.34
7.99
15.15
20.05
23.00
24.38
24.40
23.15
20.69
17.32
13.62
10.33
8.13
7.41
8.11
9.79
11.83
13.59
14.67
14.93
14.44
13.37
11.96
10.34
8.58
6.66
4.49
1.97
-0.87
-3.93
-6.90
-9.52
-11.57
-13.07
-14.22
-15.39
-17.00
-19.36
-22.64
-26.79
-31.46
-35.93
-39.18
-40.11
-37.80
-32.01
-23.28
-12.87
-2.32
7.06
14.53
19.95
23.59
25.70
26.44
25.82
23.91
21.00
17.68
14.66
12.53
11.56
11.65
12.34
13.13
13.61
13.60
13.23
12.70
12.23
11.86
11.44
10.74
9.48
7.55
4.97
1.96
-1.15
-4.04
-6.52
-8.63
-10.59
-12.73
-15.35
-18.65
-22.72
-27.48
-32.61
-37.46
-41.04
-42.23
-40.12
-34.43
-25.67
-15.02
-3.96
6.17
14.53
20.77
24.85
26.86
27.01
25.53
22.86
19.64
16.48
13.89
12.04
10.88
10.25
10.02
10.14
10.63
11.47
12.54
13.63
14.47
14.78
14.33
12.91
10.43
6.94
2.75
-1.61
-5.51
-8.43
-10.13
-10.79
-10.89
-11.04
-11.82
-13.60
-16.48
-20.22
-24.20
-27.45
-28.84
-27.38
-22.54
-14.55
-4.33
6.74
17.21
25.96
32.40
36.42
38.23
38.16
36.51
33.60
29.82
25.69
21.85
18.85
17.09
16.56
17.01
17.94
18.98
19.91
20.75
21.55
22.22
22.52
22.06
20.50
17.73
13.94
9.60
5.19
1.16
-2.30
-5.27
-7.97
-10.73
-13.86
-17.60
-22.02
-27.01
-32.13
-36.60
-39.36
-39.38
-35.97
-29.13
-19.72
-9.14
0.99
9.43
15.53
19.24
20.88
20.85
19.45
16.91
13.62
10.05
6.86
4.59
3.46
3.37
3.99
4.86
5.68
6.28
6.62
6.70
6.48
5.85
4.68
2.86
0.40
-2.58
-5.79
-8.84
-11.43
-13.37
-14.80
-16.11
-17.75
-20.15
-23.47
-27.53
-31.70
-35.10
-36.61
-35.31
-30.68
-22.89
-12.80
-1.78
8.71
17.48
23.89
27.82
29.43
29.00
26.77
23.08
18.38
13.34
8.69
4.97
2.49
1.10
0.48
0.29
0.25
0.32
0.51
0.80
1.02
0.93
0.21
-1.33
-3.71
-6.79
-10.19
-13.50
-16.33
-18.55
-20.27
-21.90
-24.01
-27.02
-31.07
-35.74
-40.14
-43.05
-43.30
-40.07
-33.23
-23.49
-12.21
-1.05
8.54
15.64
20.11
22.34
22.94
22.45
21.18
19.26
16.84
14.21
11.80
10.01
9.08
8.92
9.24
9.65
9.95
10.13
10.34
10.66
10.93
10.75
9.67
7.40
4.01
-0.11
-4.34
-8.15
-11.27
-13.78
-15.99
-18.36
-21.33
-25.25
-30.24
-36.03
-41.94
-46.82
-49.31
-48.26
-43.20
-34.60
-23.73
-12.22
-1.52
7.51
14.72
20.33
24.61
27.60
29.12
29.01
27.37
24.62
21.48
18.70
16.82
16.08
16.33
17.19
18.22
19.02
19.37
19.23
18.65
17.71
16.39
14.59
12.15
8.99
5.20
1.00
-3.23
-7.14
-10.54
-13.50
-16.26
-19.28
-23.06
-28.03
-34.36
-41.79
-49.54
-56.39
-60.90
-61.74
-58.18
-50.24
-38.82
-25.37
-11.54
1.22
11.95
20.23
26.07
29.75
31.59
31.88
30.90
29.02
26.68
24.47
22.93
22.39
22.89
24.14
25.66
26.98
27.79
27.98
27.61
26.79
25.62
24.10
22.20
19.88
17.02
13.53
9.40
4.72
-0.26
-5.23
-9.83
-13.83
-17.16
-19.98
-22.57
-25.27
-28.39
-32.07
-36.08
-39.80
-42.24
-42.25
-38.93
-32.01
-22.05
-10.30
1.63
12.32
20.85
26.94
30.84
32.93
33.57
32.97
31.29
28.74
25.72
22.74
20.36
19.00
18.79
19.59
20.99
22.61
24.16
25.46
26.42
27.00
27.11
26.61
25.43
23.58
21.21
18.49
15.54
12.33
8.75
4.69
0.16
-4.69
-9.53
-14.02
-17.90
-21.11
-23.83
-26.42
-29.34
-33.03
-37.65
-42.94
-48.15
-52.08
-53.43
-51.05
-44.49
-34.20
-21.42
-7.81
4.97
15.72
23.96
29.75
33.49
35.60
36.33
35.75
33.97
31.27
28.18
25.34
23.38
22.59
22.88
23.87
25.09
26.25
27.24
28.15
28.99
29.58
29.55
28.50
26.21
22.78
18.68
14.51
10.83
7.93
5.69
3.75
1.59
-1.20
-4.76
-8.85
-13.05
-16.86
-20.02
-22.51
-24.60
-26.66
-29.04
-32.03
-35.78
-40.19
-44.79
-48.72
-50.77
-49.74
-44.86
-36.16
-24.51
-11.44
1.41
12.67
21.57
27.89
31.79
33.52
33.39
31.68
28.77
25.20
21.57
18.49
16.41
15.47
15.51
16.15
16.97
17.65
18.08
18.28
18.37
18.47
18.55
18.43
17.81
16.39
14.02
10.87
7.36
4.01
1.28
-0.71
-2.23
-3.76
-5.80
-8.60
-12.00
-15.49
-18.45
-20.44
-21.45
-21.80
-22.20
-23.35
-25.78
-29.69
-34.86
-40.70
-46.28
-50.45
-52.02
-50.06
-44.21
-34.87
-23.14
-10.59
1.24
11.23
18.87
24.20
27.60
29.44
29.97
29.34
27.73
25.51
23.23
21.48
20.66
20.82
21.66
22.59
23.05
22.65
21.24
18.99
16.23
13.33
10.64
8.42
6.81
5.87
5.61
5.98
6.85
8.01
9.15
9.91
10.01
9.24
7.67
5.52
3.16
0.90
-1.04
-2.61
-3.92
-5.04
-6.11
-7.20
-8.44
-10.03
-12.19
-15.05
-18.51
-22.27
-25.81
-28.73
-30.87
-32.37
-33.69
-35.37
-37.82
-41.24
-45.50
-50.08
-54.09
-56.33
-55.64
-51.16
-42.77
-31.20
-17.87
-4.49
7.40
16.85
23.51
27.55
29.36
29.38
28.01
25.62
22.54
19.26
16.18
13.70
12.08
11.44
11.79
13.04
15.06
17.67
20.65
23.66
26.32
28.20
28.87
28.06
25.72
22.07
17.54
12.71
8.15
4.36
1.61
-0.05
-0.89
-1.35
-1.94
-3.09
-5.02
-7.69
-10.81
-14.05
-17.15
-20.04
-22.89
-26.02
-29.87
-34.76
-40.79
-47.59
-54.25
-59.41
-61.53
-59.42
-52.68
-41.89
-28.48
-14.31
-1.06
10.11
18.75
24.99
29.15
31.60
32.57
32.21
30.72
28.43
25.78
23.31
21.45
20.43
20.21
20.53
21.05
21.48
21.66
21.53
21.08
20.31
19.16
17.58
15.54
13.13
10.53
7.93
5.55
3.57
2.04
0.84
-0.28
-1.62
-3.46
-5.94
-9.02
-12.49
-16.08
-19.49
-22.56
-25.25
-27.66
-30.08
-32.87
-36.39
-40.87
-46.20
-51.82
-56.66
-59.37
-58.70
-53.95
-45.24
-33.49
-20.30
-7.34
3.89
12.63
18.71
22.42
24.22
24.51
23.56
21.63
19.10
16.56
14.63
13.76
13.99
14.95
16.14
17.16
17.93
18.70
19.81
21.41
23.29
24.95
25.85
25.65
24.39
22.46
20.35
18.43
16.78
15.20
13.26
10.54
6.82
2.16
-3.08
-8.34
-13.09
-16.97
-19.92
-22.25
-24.47
-27.19
-30.98
-36.11
-42.36
-48.94
-54.54
-57.63
-56.87
-51.59
-42.08
-29.47
-15.46
-1.78
10.22
19.80
26.78
31.39
33.98
34.85
34.30
32.65
30.30
27.75
25.49
23.90
23.11
22.99
23.35
23.92
24.62
25.38
26.16
26.73
26.77
25.93
24.00
21.02
17.27
13.17
9.08
5.27
1.77
-1.54
-4.88
-8.44
-12.34
-16.49
-20.63
-24.37
-27.37
-29.47
-30.84
-31.96
-33.46
-35.89
-39.49
-43.99
-48.52
-51.79
-52.39
-49.15
-41.67
-30.41
-16.66
-2.24
11.00
21.69
29.24
33.68
35.59
35.61
34.28
31.94
28.80
25.15
21.39
18.07
15.75
14.81
15.25
16.73
18.67
20.49
21.76
22.25
21.93
20.88
19.23
17.14
14.69
11.94
8.94
5.65
2.06
-1.82
-5.85
-9.85
-13.56
-16.84
-19.63
-22.12
-24.62
-27.51
-31.19
-35.78
-41.04
-46.20
-50.02
-51.04
-48.12
-40.88
-29.90
-16.64
-3.01
9.28
19.07
25.96
30.16
32.11
32.28
31.06
28.83
26.00
23.05
20.39
18.33
17.04
16.52
16.75
17.60
18.94
20.50
21.94
22.91
23.15
22.58
21.35
19.63
17.60
15.26
12.44
8.92
4.62
-0.38
-5.71
-10.90
-15.47
-19.25
-22.39
-25.24
-28.36
-32.12
-36.68
-41.87
-47.14
-51.60
-54.15
-53.69
-49.33
-40.92
-29.02
-14.96
-0.56
12.49
22.98
30.45
35.09
37.46
