1653560542.00
64.000000
-0.00
-0.00
-0.00
-0.00
-0.00
-0.00
-0.00
-0.00
-0.00
-0.00
0.00
0.01
0.01
-0.00
-0.03
-0.05
-0.05
0.00
0.13
0.36
0.66
1.01
1.37
1.72
2.06
2.40
2.79
3.24
3.80
4.42
5.06
5.66
6.20
6.68
7.15
7.68
8.31
9.14
10.09
11.04
11.88
12.56
13.14
13.76
14.65
15.96
17.91
20.32
22.90
25.38
27.58
29.57
31.68
34.32
37.81
42.54
48.15
54.10
59.83
64.97
69.58
74.14
79.34
85.71
93.76
103.00
112.62
121.73
129.77
136.75
143.30
150.75
157.77
166.64
177.95
191.79
206.97
220.57
228.25
225.36
208.53
176.87
132.76
80.05
23.07
-34.94
-92.44
-149.16
-205.23
-260.37
-313.74
-363.87
-409.83
-450.91
-486.50
-515.74
-537.23
-549.22
-549.96
-538.37
-514.21
-478.67
-433.88
-382.45
-327.02
-269.84
-212.63
-156.66
-102.95
-52.37
-5.91
35.57
71.42
101.35
125.52
144.41
158.73
169.17
176.34
180.64
182.36
181.77
179.15
174.86
169.29
162.83
155.80
148.42
140.83
133.12
125.36
117.63
109.99
102.50
95.19
88.05
81.09
74.30
67.76
61.54
55.73
50.37
45.41
40.74
36.23
31.78
27.38
23.15
19.28
15.95
13.23
11.01
9.04
7.00
4.69
2.09
-0.56
-2.89
-4.56
-5.45
-5.73
-5.87
-6.39
-7.65
-9.66
-12.03
-14.17
-15.60
-16.08
-15.82
-15.32
-15.12
-15.67
-17.24
-19.99
-23.79
-27.98
-31.20
-31.59
-27.48
-18.26
-5.01
9.71
22.78
31.81
36.06
36.43
34.73
32.57
30.67
28.88
26.76
24.15
21.41
19.17
17.81
17.23
16.88
16.13
14.53
12.14
9.39
6.87
5.11
4.40
4.73
5.87
7.45
8.97
10.05
10.41
10.04
9.15
8.07
7.11
6.43
5.98
5.61
5.20
4.79
4.56
4.70
5.34
6.43
7.77
9.10
10.21
11.08
11.80
12.57
13.50
14.56
15.54
16.16
16.16
15.40
13.91
11.83
9.34
6.64
3.69
0.52
-2.80
-6.11
-9.23
-11.98
-14.22
-15.87
-16.93
-17.48
-17.62
-17.50
-17.29
-17.07
-16.92
-16.80
-16.58
-16.09
-15.13
-13.51
-11.22
-8.45
-5.63
-3.24
-1.70
-1.11
-1.25
-1.73
-2.14
-2.32
-2.31
-2.29
-2.38
-2.52
-2.51
-2.19
-1.53
-0.75
-0.15
0.03
-0.26
-0.84
-1.40
-1.62
-1.39
-0.78
-0.09
0.37
0.39
-0.04
-0.72
-1.43
-1.97
-2.28
-2.44
-2.60
-2.86
-3.21
-3.59
-3.92
-4.17
-4.45
-4.92
-5.62
-6.61
-7.85
-9.29
-10.84
-12.39
-13.76
-14.60
-14.53
-13.21
-10.60
-6.98
-2.91
0.97
4.17
6.58
8.33
9.71
10.93
12.01
12.78
13.05
12.74
11.94
10.91
9.94
9.23
8.87
8.80
8.94
9.15
9.34
9.40
9.22
8.76
7.99
6.98
5.86
4.76
3.74
2.78
1.77
0.57
-0.89
-2.60
-4.42
-6.16
-7.65
-8.81
-9.66
-10.35
-11.08
-12.06
-13.46
-15.30
-17.41
-19.37
-20.60
-20.56
-18.90
-15.68
-11.36
-6.68
-2.40
0.98
3.29
4.72
5.61
6.31
7.03
7.83
8.69
9.54
10.34
11.05
11.64
12.06
12.31
12.45
12.57
12.76
13.04
13.38
13.66
13.76
13.56
13.03
12.18
11.05
9.70
8.19
6.62
5.08
3.69
2.54
1.69
1.12
0.73
0.36
-0.17
-1.02
-2.23
-3.71
-5.28
-6.70
-7.85
-8.70
-9.40
-10.17
-11.24
-12.78
-14.86
-17.43
-20.30
-23.13
-25.40
-26.58
-26.14
-23.87
-19.92
-14.86
-9.48
-4.60
-0.77
1.88
3.55
4.65
5.59
6.56
7.58
8.52
9.25
9.75
10.10
10.44
10.85
11.31
11.76
12.10
12.31
12.38
12.37
12.27
12.04
11.63
10.96
10.06
9.02
7.97
7.02
6.24
5.62
5.06
4.46
3.75
2.93
2.08
1.33
0.77
0.39
0.10
-0.28
-0.86
-1.67
-2.68
-3.78
-4.92
-6.05
-7.20
-8.40
-9.71
-11.17
-12.85
-14.77
-16.81
-18.70
-20.01
-20.27
-19.20
-16.78
-13.35
-9.49
-5.80
-2.72
-0.40
1.30
2.64
3.86
5.07
6.23
7.27
8.16
9.00
9.90
10.92
11.99
12.91
13.46
13.53
13.22
12.76
12.41
12.34
12.53
12.86
13.14
13.19
12.91
12.25
11.22
9.97
8.68
7.59
6.82
6.36
6.04
5.61
4.87
3.78
2.47
1.17
0.07
-0.74
-1.37
-2.00
-2.81
-3.88
-5.17
-6.57
-7.92
-9.15
-10.20
-11.13
-12.02
-12.98
-14.17
-15.68
-17.53
-19.54
-21.34
-22.48
-22.52
-21.26
-18.77
-15.39
-11.57
-7.72
-4.12
-0.98
1.60
3.53
4.79
5.44
5.67
5.77
6.00
6.54
7.37
8.38
9.35
10.11
10.58
10.73
10.65
10.46
10.28
10.18
10.12
10.02
9.76
9.24
8.44
7.46
6.43
5.50
4.72
4.09
3.53
2.98
2.44
1.89
1.35
0.77
0.04
-0.92
-2.16
-3.60
-5.10
-6.46
-7.58
-8.41
-9.08
-9.73
-10.53
-11.64
-13.18
-15.19
-17.56
-19.98
-21.93
-22.83
-22.21
-19.93
-16.28
-11.89
-7.50
-3.73
-0.88
1.10
2.45
3.50
4.48
5.50
6.58
7.71
8.88
10.05
11.21
12.24
13.03
13.49
13.59
13.38
12.99
12.57
12.20
11.89
11.59
11.21
10.68
9.96
9.11
8.18
7.30
6.51
5.84
5.24
4.61
3.88
2.99
1.99
0.96
0.04
-0.65
-1.04
-1.21
-1.35
-1.72
-2.54
-3.93
-5.78
-7.82
-9.73
-11.24
-12.29
-13.00
-13.65
-14.56
-15.95
-17.87
-20.13
-22.32
-23.90
-24.38
-23.44
-21.06
-17.53
-13.33
-9.02
-5.06
-1.74
0.84
2.71
3.96
4.73
5.16
5.41
5.66
6.04
6.63
7.45
8.43
9.46
10.41
11.15
11.62
11.78
11.71
11.51
11.33
11.24
11.27
11.31
11.23
10.93
10.40
9.73
9.08
8.53
8.06
7.52
6.75
5.68
4.39
3.03
1.79
0.73
-0.20
-1.14
-2.22
-3.49
-4.96
-6.53
-8.14
-9.72
-11.21
-12.52
-13.62
-14.52
-15.37
-16.44
-17.98
-20.14
-22.77
-25.41
-27.39
-28.04
-26.93
-24.03
-19.74
-14.77
-9.88
-5.69
-2.51
-0.31
1.17
2.28
3.32
4.42
5.58
6.71
7.72
8.57
9.30
9.93
10.48
10.90
11.14
11.18
11.06
10.92
10.84
10.86
10.94
10.99
10.89
10.59
10.12
9.53
8.93
8.37
7.88
7.41
6.86
6.13
5.19
4.11
3.07
2.20
1.58
1.11
0.56
-0.29
-1.51
-3.06
-4.76
-6.44
-7.98
-9.33
-10.52
-11.59
-12.67
-13.95
-15.69
-18.10
-21.09
-24.23
-26.75
-27.85
-26.97
-24.05
-19.58
-14.39
-9.33
-5.04
-1.81
0.41
1.88
2.97
3.99
5.16
6.53
8.01
9.44
10.65
11.58
12.20
12.60
12.89
13.16
13.47
13.86
14.37
14.99
15.66
16.25
16.55
16.43
15.81
14.77
13.48
12.18
11.03
10.13
9.46
8.89
8.27
7.44
6.36
5.10
3.79
2.63
1.74
1.13
0.70
0.24
-0.45
-1.52
-2.99
-4.81
-6.80
-8.80
-10.64
-12.23
-13.61
-14.91
-16.38
-18.29
-20.78
-23.73
-26.73
-29.06
-30.01
-29.05
-26.08
-21.51
-16.08
-10.63
-5.83
-2.01
0.83
2.90
4.49
5.79
6.94
8.02
9.11
10.27
11.51
12.76
13.89
14.77
15.33
15.61
15.73
15.86
16.13
16.60
17.17
17.66
17.88
17.63
16.87
15.63
14.09
12.50
11.13
10.14
9.55
9.23
8.95
8.45
7.58
6.31
4.79
3.21
1.78
0.59
-0.38
-1.26
-2.23
-3.41
-4.86
-6.54
-8.34
-10.11
-11.76
-13.29
-14.76
-16.33
-18.16
-20.42
-23.17
-26.25
-29.27
-31.59
-32.54
-31.58
-28.57
-23.83
-18.10
-12.26
-7.02
-2.82
0.33
2.63
4.40
5.86
7.15
8.31
9.33
10.29
11.26
12.31
13.44
14.57
15.55
16.27
16.68
16.84
16.84
16.77
16.67
16.47
16.06
15.35
14.34
13.12
11.86
10.69
9.70
8.85
8.03
7.11
5.98
4.68
3.31
2.05
1.00
0.15
-0.61
-1.48
-2.58
-3.95
-5.53
-7.16
-8.71
-10.14
-11.51
-12.97
-14.70
-16.81
-19.35
-22.17
-24.95
-27.19
-28.31
-27.79
-25.42
-21.39
-16.27
-10.88
-5.93
-1.90
1.10
3.24
4.84
6.17
7.39
8.55
9.62
10.61
11.50
12.29
12.99
13.55
13.97
14.29
14.60
14.99
15.50
16.10
16.70
17.14
17.29
17.01
16.27
15.11
13.67
12.16
10.83
9.86
9.32
9.07
8.89
8.53
7.81
6.77
5.54
4.30
3.15
2.06
0.89
-0.54
-2.32
-4.46
-6.79
-9.09
-11.15
-12.86
-14.25
-15.47
-16.75
-18.30
-20.26
-22.63
-25.30
-27.96
-30.16
-31.32
-30.92
-28.66
-24.61
-19.29
-13.52
-8.16
-3.80
-0.63
1.54
3.11
4.43
5.71
6.99
8.17
9.18
10.06
10.93
11.91
13.06
14.30
15.44
16.28
16.70
16.71
16.47
16.17
15.98
15.95
16.03
16.07
15.87
15.26
14.14
12.54
10.59
8.55
6.63
5.01
3.71
2.62
1.60
0.54
-0.60
-1.81
-3.06
-4.38
-5.81
-7.37
-9.02
-10.67
-12.25
-13.78
-15.44
-17.45
-20.01
-23.04
-26.17
-28.75
-30.04
-29.49
-26.97
-22.81
-17.68
-12.38
-7.56
-3.61
-0.62
1.56
3.18
4.49
5.72
6.99
8.34
9.72
11.02
12.12
12.98
13.64
14.17
14.62
14.97
15.19
15.27
15.26
15.27
15.36
15.48
15.46
15.11
14.27
12.91
11.18
9.32
7.57
6.14
5.06
4.27
3.57
2.79
1.73
0.35
-1.37
-3.31
-5.35
-7.33
-9.09
-10.56
-11.73
-12.81
-14.09
-15.94
-18.59
-21.96
-25.58
-28.68
-30.42
-30.15
-27.67
-23.29
-17.69
-11.76
-6.27
-1.73
1.69
4.14
5.93
7.39
8.79
10.19
11.55
12.76
13.72
14.40
14.86
15.21
15.50
15.74
15.89
15.92
15.83
15.72
15.67
15.75
15.90
16.01
15.92
15.52
14.80
13.81
12.67
11.46
10.23
8.95
7.60
6.19
4.75
3.32
1.95
0.58
-0.85
-2.46
-4.29
-6.29
-8.34
-10.29
-11.99
-13.42
-14.67
-15.91
-17.40
-19.36
-21.95
-25.16
-28.69
-31.91
-34.01
-34.21
-32.08
-27.73
-21.86
-15.46
-9.49
-4.56
-0.84
1.91
4.06
5.95
7.76
9.55
11.31
12.99
14.57
15.97
17.15
18.04
18.62
18.91
19.01
19.01
19.02
19.09
19.24
19.41
19.54
19.51
19.21
18.56
17.55
16.26
14.83
13.47
12.33
11.49
10.87
10.33
9.65
8.69
7.43
5.95
4.43
3.03
1.80
0.69
-0.49
-1.94
-3.80
-6.04
-8.52
-10.98
-13.16
-14.92
-16.27
-17.35
-18.43
-19.80
-21.73
-24.36
-27.58
-31.00
-33.99
-35.83
-35.92
-33.99
-30.17
-24.99
-19.16
-13.43
-8.35
-4.20
-0.98
1.53
3.64
5.60
7.56
9.49
11.27
12.83
14.18
15.39
16.56
17.67
18.61
19.25
19.52
19.48
19.29
19.12
19.08
19.12
19.14
18.96
18.48
17.62
16.41
14.97
13.46
12.03
10.77
9.68
8.63
7.52
6.25
4.86
3.40
1.92
0.39
-1.31
-3.24
-5.43
-7.76
-10.06
-12.15
-13.95
-15.53
-17.10
-18.93
-21.29
-24.24
-27.55
-30.64
-32.76
-33.21
-31.60
-28.00
-22.98
-17.33
-11.86
-7.11
-3.30
-0.35
1.98
3.95
5.76
7.50
9.15
10.63
11.88
12.87
13.67
14.39
15.09
15.78
16.35
16.74
16.92
17.00
17.11
17.34
17.60
17.68
17.34
16.41
14.89
12.96
10.93
9.07
7.51
6.21
5.00
3.63
1.92
-0.19
-2.57
-5.02
-7.29
-9.25
-10.90
-12.38
-13.87
-15.58
-17.64
-20.12
-22.99
-25.97
-28.61
-30.27
-30.33
-28.41
-24.61
-19.46
-13.80
-8.41
-3.79
-0.06
2.95
5.49
7.72
9.65
11.18
12.28
13.02
13.61
14.30
15.25
16.47
17.78
18.94
19.71
20.01
19.87
19.43
18.85
18.23
17.61
16.99
16.31
15.52
14.54
13.29
11.73
9.90
7.92
5.98
4.22
2.67
1.25
-0.24
-1.93
-3.86
-5.88
-7.82
-9.52
-10.97
-12.30
-13.72
-15.45
-17.62
-20.31
-23.45
-26.86
-30.17
-32.78
-34.05
-33.43
-30.70
-26.13
-20.40
-14.40
-8.86
-4.17
-0.31
2.96
5.92
8.69
11.21
13.34
14.97
16.11
16.89
17.45
17.92
18.34
18.68
18.89
18.96
18.91
18.85
18.84
18.92
19.02
19.01
18.74
18.11
17.15
15.93
14.60
13.23
11.86
10.45
8.93
7.25
5.40
3.42
1.43
-0.40
-1.91
-3.04
-3.91
-4.82
-6.10
-7.92
-10.21
-12.64
-14.77
-16.36
-17.42
-18.28
-19.38
-21.10
-23.62
-26.83
-30.35
-33.63
-36.00
-36.83
-35.68
-32.43
-27.38
-21.22
-14.80
-8.94
-4.15
-0.57
2.01
3.97
5.69
7.41
9.22
11.04
12.79
14.37
15.72
16.85
17.75
18.42
18.89
19.18
19.38
19.54
19.70
19.82
19.82
19.63
19.15
18.37
17.33
16.12
14.85
13.64
12.56
11.63
10.78
9.87
8.75
7.34
5.66
3.89
2.27
1.01
0.18
-0.41
-1.08
-2.17
-3.85
-6.06
-8.49
-10.76
-12.64
-14.09
-15.29
-16.56
-18.21
-20.45
-23.32
-26.65
-30.01
-32.77
-34.20
-33.66
-30.86
-26.02
-19.86
-13.33
-7.34
-2.47
1.10
3.55
5.27
6.61
7.84
9.11
10.44
11.77
13.04
14.18
15.15
15.94
16.57
17.02
17.28
17.34
17.25
17.07
16.90
16.78
16.66
16.42
15.93
15.11
14.00
12.68
11.24
9.70
8.07
6.38
4.70
3.15
1.81
0.67
-0.41
-1.58
-2.99
-4.63
-6.41
-8.20
-9.89
-11.49
-13.04
-14.61
-16.27
-18.11
-20.19
-22.54
-25.09
-27.53
-29.37
-29.97
-28.84
-25.80
-21.10
-15.40
-9.52
-4.18
0.18
3.47
5.86
7.62
8.97
10.03
10.88
11.58
12.24
12.97
13.84
14.82
15.79
16.61
17.16
17.46
17.56
17.56
17.50
17.34
17.02
16.46
15.60
14.49
13.20
11.80
10.39
9.00
7.67
6.36
5.05
3.71
2.37
1.05
-0.21
-1.40
-2.61
-3.95
-5.52
-7.30
-9.16
-10.85
-12.20
-13.12
-13.78
-14.49
-15.61
-17.40
-19.95
-23.08
-26.37
-29.22
-30.94
-30.96
-28.96
-25.04
-19.66
-13.59
-7.68
-2.61
1.24
3.91
5.70
7.08
8.41
9.86
11.37
12.74
13.76
14.38
14.66
14.80
14.97
15.26
15.62
15.99
16.31
16.56
16.72
16.76
16.56
16.02
15.10
13.88
12.52
11.20
10.04
9.05
8.17
7.30
6.38
5.38
4.30
3.14
1.91
0.63
-0.72
-2.11
-3.54
-5.03
-6.55
-8.11
-9.65
-11.16
-12.61
-14.04
-15.51
-17.15
-19.06
-21.31
-23.81
-26.32
-28.36
-29.36
-28.79
-26.39
-22.29
-17.04
-11.43
-6.22
-1.93
1.30
3.64
5.44
7.03
8.60
10.14
11.54
12.66
13.46
14.00
14.41
14.81
15.25
15.65
15.90
15.90
15.66
15.27
14.86
14.53
14.22
13.82
13.19
12.26
11.13
9.94
8.84
7.91
7.07
6.21
5.18
3.96
2.67
1.45
0.45
-0.29
-0.87
-1.49
-2.33
-3.48
-4.92
-6.51
-8.09
-9.55
-10.85
-12.11
-13.46
-15.11
-17.17
-19.65
-22.45
-25.26
-27.63
-29.00
-28.85
-26.86
-23.06
-17.91
-12.19
-6.76
-2.32
0.82
2.78
3.93
4.73
5.51
6.39
7.32
8.19
8.89
9.45
9.91
10.38
10.88
11.38
11.74
11.84
11.63
11.19
10.70
10.34
10.21
10.21
10.14
9.76
8.95
7.77
6.39
5.06
3.89
2.90
2.02
1.13
0.15
-0.98
-2.26
-3.67
-5.15
-6.63
-7.99
-9.15
-10.07
-10.81
-11.53
-12.47
-13.88
-15.88
-18.38
-21.02
-23.23
-24.36
-23.95
-21.87
-18.38
-14.06
-9.56
-5.43
-1.99
0.71
2.76
4.31
5.54
6.55
7.44
8.26
9.07
9.88
10.69
11.42
12.01
12.39
12.49
12.35
12.04
11.66
11.29
10.95
10.58
10.07
9.31
8.22
6.79
5.09
3.26
1.51
0.01
-1.13
-1.95
-2.67
-3.52
-4.67
-6.13
-7.73
-9.24
-10.47
-11.37
-12.00
-12.48
-12.95
-13.55
-14.40
-15.70
-17.59
-20.05
-22.81
-25.31
-26.81
-26.65
-24.52
-20.55
-15.34
-9.71
-4.47
-0.17
3.06
5.38
7.14
8.65
10.04
11.31
12.35
13.09
13.56
13.84
14.09
14.37
14.68
14.93
15.02
14.92
14.65
14.30
13.94
13.56
13.15
12.63
11.98
11.18
10.31
9.42
8.59
7.88
7.29
6.80
6.34
5.82
5.16
4.31
3.26
1.99
0.52
-1.16
-3.01
-4.92
-6.76
-8.38
-9.72
-10.81
-11.80
-12.86
-14.16
-15.81
-17.84
-20.17
-22.59
-24.66
-25.83
-25.62
-23.76
-20.40
-16.04
-11.36
-6.99
-3.32
-0.45
1.73
3.39
4.73
5.86
6.88
7.87
8.88
9.92
10.92
11.79
12.43
12.83
13.02
13.10
13.15
13.19
13.18
13.05
12.80
12.43
11.99
11.49
10.86
9.97
8.75
7.23
5.59
4.11
2.96
2.17
1.56
0.89
-0.02
-1.21
-2.58
-3.97
-5.25
-6.37
-7.39
-8.42
-9.57
-10.91
-12.45
-14.16
-16.03
-18.01
-20.06
-22.02
-23.63
-24.43
-23.98
-21.99
-18.51
-14.01
-9.18
-4.75
-1.15
1.52
3.49
5.06
6.42
7.63
8.62
9.34
9.83
10.24
10.70
11.27
11.90
12.46
12.78
12.79
12.47
11.96
11.41
11.00
10.80
10.79
10.81
10.68
10.21
9.34
8.13
6.76
5.44
4.33
3.49
2.83
2.16
1.31
0.13
-1.35
-3.01
-4.63
-6.05
-7.19
-8.15
-9.10
-10.27
-11.86
-13.93
-16.41
-19.03
-21.34
-22.80
-22.92
-21.43
-18.40
-14.25
-9.61
-5.16
-1.38
1.50
3.55
4.95
5.95
6.75
7.47
8.16
8.88
9.61
10.37
11.11
11.79
12.34
12.68
12.79
12.69
12.47
12.23
12.04
11.93
11.84
11.65
11.23
10.49
9.43
8.12
6.67
5.23
3.92
2.82
1.91
1.11
0.25
-0.78
-2.04
-3.44
-4.83
-6.08
-7.10
-7.94
-8.71
-9.53
-10.51
-11.71
-13.18
-14.98
-17.10
-19.38
-21.47
-22.84
-22.98
-21.56
-18.62
-14.59
-10.10
-5.78
-2.06
0.91
3.22
5.05
6.55
7.82
8.87
9.72
10.36
10.86
11.29
11.69
12.12
12.53
12.90
13.18
13.34
13.39
13.40
13.42
13.46
13.48
13.36
12.99
12.27
11.22
9.94
8.56
7.24
6.05
5.01
4.09
3.27
2.51
1.80
1.12
0.43
-0.29
-1.09
-1.98
-2.96
-4.01
-5.09
-6.16
-7.18
-8.10
-8.91
-9.72
-10.66
-11.95
-13.76
-16.12
-18.84
-21.52
-23.59
-24.49
-23.83
-21.49
-17.76
-13.22
-8.59
-4.47
-1.22
1.17
2.89
4.23
5.42
6.53
7.56
8.48
9.28
9.95
10.53
10.97
11.22
11.26
11.13
10.94
10.81
10.81
10.92
11.02
11.00
10.82
10.49
10.10
9.70
9.29
8.80
8.17
7.34
6.33
5.24
4.16
3.17
2.30
1.55
0.89
0.27
-0.38
-1.13
-2.09
-3.31
-4.80
-6.47
-8.18
-9.81
-11.25
-12.54
-13.80
-15.22
-16.93
-18.95
-21.08
-22.94
-24.04
-23.88
-22.20
-19.03
-14.76
-10.05
-5.60
-1.96
0.64
2.32
3.40
4.29
5.26
6.39
7.62
8.81
9.85
10.70
11.36
11.86
12.20
12.35
12.25
11.89
11.32
10.64
10.04
9.64
9.46
9.46
9.50
9.43
9.17
8.73
8.15
7.51
6.86
6.16
5.36
4.42
3.31
2.06
0.73
-0.61
-1.92
-3.16
-4.31
-5.33
-6.18
-6.86
-7.45
-8.09
-8.95
-10.15
-11.72
-13.53
-15.26
-16.53
-16.95
-16.26
-14.43
-11.69
-8.48
-5.32
-2.64
-0.68
0.58
1.35
1.87
2.32
2.76
3.13
3.40
3.60
3.85
4.32
5.03
5.90
6.69
7.17
7.27
7.09
6.86
6.72
6.69
6.63
6.30
5.56
4.45
3.13
1.82
0.71
-0.16
-0.85
-1.46
-2.09
-2.78
-3.51
-4.23
-4.92
-5.58
-6.22
-6.90
-7.69
-8.67
-9.94
-11.52
-13.37
-15.30
-16.97
-17.98
-17.93
-16.64
-14.15
-10.78
-7.03
-3.42
-0.37
1.87
3.27
3.98
4.26
4.40
4.60
4.98
5.51
6.09
6.61
7.07
7.51
7.97
8.45
8.86
9.10
9.12
8.97
8.78
8.63
8.47
8.18
7.56
6.52
5.14
3.62
2.18
0.93
-0.17
-1.23
-2.34
-3.53
-4.71
-5.79
-6.74
-7.62
-8.52
-9.54
-10.76
-12.21
-13.94
-15.94
-18.05
-19.97
-21.20
-21.25
-19.83
-17.04
-13.34
-9.44
-5.98
-3.33
-1.46
-0.09
1.16
2.53
4.12
5.82
7.50
9.03
10.32
11.33
12.03
12.39
12.41
12.16
11.73
11.26
10.88
10.66
10.63
10.74
10.88
10.93
10.79
10.41
9.85
9.18
8.48
7.72
6.84
5.81
4.67
3.55
2.56
1.72
0.95
0.09
-0.98
-2.25
-3.59
-4.86
-5.93
-6.83
-7.66
-8.54
-9.59
-10.85
-12.37
-14.16
-16.21
-18.38
-20.43
-21.98
-22.64
-22.08
-20.16
-17.02
-13.10
-8.99
-5.27
-2.35
-0.29
1.10
2.19
3.26
4.40
5.53
6.50
7.27
7.92
8.61
9.43
10.37
11.30
12.09
12.69
13.14
13.54
13.95
14.32
14.57
14.55
14.15
13.30
12.06
10.55
8.97
7.56
6.48
5.81
5.47
5.23
4.85
4.16
3.14
1.92
0.70
-0.38
-1.25
-2.03
-2.85
-3.88
-5.11
-6.46
-7.76
-8.90
-9.85
-10.70
-11.64
-12.79
-14.27
-16.11
-18.26
-20.59
-22.79
-24.43
-25.00
-24.11
-21.69
-18.01
-13.67
-9.37
-5.68
-2.81
-0.72
0.87
2.24
3.58
4.92
6.21
7.40
8.49
9.54
10.61
11.71
12.73
13.57
14.12
14.38
14.47
14.51
14.60
14.74
14.87
14.87
14.72
14.44
14.06
13.66
13.22
12.72
12.12
11.46
10.80
10.24
9.79
9.42
9.01
8.42
7.60
6.56
5.39
4.21
3.10
2.08
1.12
0.14
-0.89
-2.01
-3.20
-4.43
-5.68
-6.92
-8.19
-9.51
-10.93
-12.52
-14.33
-16.44
-18.86
-21.54
-24.26
-26.64
-28.15
-28.31
-26.85
-23.82
-19.68
-15.11
-10.82
-7.30
-4.70
-2.87
-1.41
-0.02
1.48
3.05
4.53
5.80
6.85
7.81
8.84
10.04
11.33
12.52
13.42
13.93
14.13
14.21
14.34
14.57
14.80
14.83
14.51
13.79
12.74
11.54
10.40
9.44
8.66
7.97
7.24
6.37
5.34
4.20
3.03
1.91
0.84
-0.26
-1.44
-2.77
-4.21
-5.70
-7.15
-8.50
-9.81
-11.17
-12.71
-14.49
-16.54
-18.78
-20.98
-22.80
-23.81
-23.60
-21.95
-18.94
-14.99
-10.68
-6.63
-3.26
-0.67
1.24
2.68
3.86
4.89
5.88
6.90
8.04
9.33
10.71
12.04
13.16
13.93
14.33
14.40
14.27
14.09
13.96
13.95
14.05
14.19
14.23
14.06
13.62
12.95
12.19
11.45
10.83
10.33
9.89
9.41
8.79
7.97
6.91
5.63
4.20
2.74
1.38
0.23
-0.66
-1.36
-2.01
-2.79
-3.82
-5.12
-6.62
-8.15
-9.57
-10.80
-11.90
-12.98
-14.24
-15.79
-17.65
-19.68
-21.59
-22.95
-23.34
-22.48
-20.30
-17.04
-13.12
-9.09
-5.42
-2.40
-0.10
1.55
2.74
3.68
4.55
5.43
6.40
7.41
8.44
9.40
10.24
10.92
11.44
11.81
12.10
12.38
12.72
13.11
13.48
13.69
13.57
13.06
12.22
11.18
10.11
9.11
8.19
7.32
6.49
5.68
4.90
4.13
3.30
2.35
1.24
0.02
-1.21
-2.37
-3.46
-4.52
-5.62
-6.75
-7.85
-8.83
-9.68
-10.52
-11.55
-12.99
-14.92
-17.26
-19.73
-21.92
-23.41
-23.84
-22.98
-20.81
-17.52
-13.53
-9.36
-5.54
-2.42
-0.13
1.42
2.46
3.27
4.03
4.85
5.75
6.69
7.63
8.51
9.29
9.92
10.37
10.63
10.76
10.87
11.07
11.45
12.00
12.60
13.03
13.07
12.60
11.67
10.44
9.19
8.08
7.18
6.46
5.83
5.20
4.56
3.88
3.13
2.28
1.29
0.17
-1.05
-2.31
-3.60
-4.90
-6.19
-7.47
-8.69
-9.85
-11.01
-12.28
-13.79
-15.63
-17.79
-20.13
-22.41
-24.26
-25.28
-25.12
-23.60
-20.83
-17.13
-13.08
-9.23
-5.96
-3.42
-1.47
0.12
1.61
3.14
4.73
6.30
7.76
9.01
10.03
10.80
11.36
11.75
12.02
12.22
12.40
12.62
12.91
13.31
13.76
14.17
14.40
14.29
13.82
13.04
12.10
11.21
10.47
9.95
9.54
9.11
8.48
7.56
6.36
5.00
3.65
2.48
1.55
0.79
0.03
-0.92
-2.17
-3.72
-5.42
-7.11
-8.66
-10.00
-11.18
-12.28
-13.43
-14.75
-16.35
-18.30
-20.54
-22.85
-24.81
-25.94
-25.78
-24.11
-21.03
-16.93
-12.42
-8.12
-4.53
-1.87
-0.07
1.13
2.06
3.00
4.07
5.22
6.34
7.31
8.07
8.63
9.06
9.42
9.78
10.15
10.53
10.92
11.29
11.62
11.91
12.17
12.36
12.42
12.23
11.71
10.81
9.63
8.36
7.21
6.30
5.60
4.93
4.09
2.93
1.43
-0.32
-2.18
-4.01
-5.71
-7.24
-8.61
-9.86
-11.08
-12.35
-13.82
-15.59
-17.75
-20.24
-22.82
-25.07
-26.47
-26.52
-24.98
-21.88
-17.61
-12.73
-7.84
-3.47
0.08
2.72
4.55
5.81
6.77
7.64
8.56
9.54
10.54
11.46
12.22
12.82
13.25
13.57
13.80
14.01
14.21
14.44
14.69
14.94
15.11
15.11
14.84
14.23
13.28
12.08
10.78
9.54
8.44
7.52
6.69
5.88
5.02
4.13
3.21
2.28
1.28
0.07
-1.46
-3.31
-5.33
-7.25
-8.86
-10.04
-10.93
-11.80
-12.98
-14.74
-17.15
-20.07
-23.20
-26.11
-28.28
-29.23
-28.59
-26.26
-22.47
-17.76
-12.81
-8.23
-4.42
-1.46
0.78
2.54
4.01
5.27
6.38
7.35
8.24
9.16
10.16
11.22
12.26
13.19
13.95
14.60
15.23
15.91
16.62
17.25
17.63
17.61
17.16
16.32
15.24
14.08
12.97
11.97
11.06
10.19
9.26
8.21
7.02
5.71
4.32
2.88
1.40
-0.14
-1.77
-3.48
-5.20
-6.84
-8.34
-9.71
-11.00
-12.35
-13.90
-15.80
-18.17
-21.05
-24.33
-27.66
-30.50
-32.24
-32.34
-30.56
-27.08
-22.42
-17.27
-12.25
-7.75
-3.94
-0.73
2.00
4.39
6.57
8.58
10.43
12.12
13.60
14.85
15.86
16.69
17.37
17.96
18.48
18.94
19.33
19.66
19.96
20.24
20.45
20.49
20.22
19.55
18.48
17.15
15.75
14.46
13.38
12.48
11.67
10.81
9.83
8.72
7.50
6.22
4.91
3.60
2.26
0.88
-0.56
-2.12
-3.85
-5.77
-7.82
-9.94
-11.99
-13.88
-15.60
-17.23
-18.99
-21.08
-23.68
-26.70
-29.81
-32.38
-33.69
-33.15
-30.52
-26.03
-20.35
-14.34
-8.81
-4.24
-0.75
1.84
3.87
5.67
7.42
9.21
11.01
12.82
14.56
16.22
17.72
18.96
19.84
20.32
20.44
20.34
20.22
20.23
20.39
20.58
20.60
20.26
19.48
18.36
17.09
15.86
14.79
13.89
13.11
12.39
11.66
10.90
10.03
8.98
7.67
6.14
4.50
2.95
1.62
0.55
-0.39
-1.43
-2.78
-4.55
-6.69
-9.02
-11.25
-13.13
-14.53
-15.48
-16.22
-17.13
-18.62
-20.96
-24.08
-27.60
-30.77
-32.75
-32.86
-30.80
-26.76
-21.34
-15.42
-9.84
-5.21
-1.73
0.72
2.50
3.98
5.44
6.99
8.57
10.11
11.51
12.75
13.82
14.70
15.37
15.81
16.03
16.07
16.00
15.88
15.79
15.76
15.80
15.89
15.94
15.82
15.41
14.62
13.45
12.01
10.46
8.98
7.70
6.65
5.82
5.12
4.41
3.48
2.19
0.46
-1.67
-4.00
-6.32
-8.46
-10.34
-11.97
-13.46
-14.96
-16.60
-18.50
-20.72
-23.22
-25.81
-28.08
-29.50
-29.52
-27.79
-24.31
-19.49
-14.05
-8.78
-4.30
-0.87
1.60
3.47
5.07
6.61
8.11
9.50
10.70
11.76
12.78
13.85
14.99
16.12
17.07
17.72
18.00
17.95
17.72
17.47
17.32
17.31
17.33
17.19
16.72
15.83
14.62
13.34
12.26
11.55
11.11
10.68
9.91
8.62
6.86
4.92
3.17
1.88
1.06
0.51
-0.13
-1.19
-2.81
-4.89
-7.17
-9.31
-11.08
-12.43
-13.52
-14.57
-15.83
-17.47
-19.58
-22.14
-25.01
-27.85
-30.10
-31.12
-30.37
-27.67
-23.33
-18.03
-12.64
-7.85
-4.03
-1.16
0.99
2.72
4.29
5.85
7.44
9.07
10.66
12.12
13.32
14.18
14.70
14.93
14.97
14.93
14.90
14.99
15.25
15.71
16.27
16.72
16.82
16.38
15.38
13.98
12.51
11.23
10.32
9.73
9.27
8.73
7.96
6.95
5.77
4.56
3.44
2.49
1.71
1.08
0.47
-0.25
-1.22
-2.49
-4.04
-5.76
-7.50
-9.14
-10.62
-11.95
-13.22
-14.57
-16.15
-18.12
-20.55
-23.38
-26.35
-28.95
-30.54
-30.53
-28.61
-24.88
-19.85
-14.28
-8.94
-4.39
-0.86
1.66
3.35
4.45
5.17
5.73
6.33
7.09
8.06
9.15
10.21
11.10
11.80
12.37
12.92
13.52
14.15
14.72
15.14
15.34
15.32
15.07
14.56
13.76
12.62
11.22
9.68
8.19
6.88
5.77
4.77
3.76
2.68
1.58
0.55
-0.34
-1.14
-1.99
-3.07
-4.45
-6.08
-7.77
-9.36
-10.76
-12.04
-13.40
-15.05
-17.13
-19.68
-22.59
-25.63
-28.43
-30.50
-31.29
-30.36
-27.56
-23.13
-17.69
-12.06
-7.01
-3.00
-0.12
1.87
3.35
4.66
5.99
7.33
8.61
9.73
10.67
11.48
12.22
12.95
13.64
14.20
14.54
14.64
14.55
14.40
14.30
14.27
14.24
14.07
13.66
12.98
12.11
11.12
10.07
8.89
7.50
5.87
4.10
2.41
1.06
0.14
-0.41
-0.82
-1.38
-2.25
-3.49
-4.97
-6.53
-8.05
-9.48
-10.86
-12.28
-13.85
-15.68
-17.89
-20.46
-23.25
-25.83
-27.65
-28.08
-26.70
-23.44
-18.64
-13.05
-7.49
-2.71
0.88
3.25
4.69
5.60
6.33
7.08
7.88
8.68
9.42
10.08
10.71
11.32
11.92
12.46
12.90
13.17
13.29
13.27
13.18
13.05
12.87
12.59
12.12
11.41
10.48
9.41
8.34
7.39
6.66
6.14
5.76
5.36
4.82
4.01
2.87
1.40
-0.34
-2.22
-4.11
-5.91
-7.57
-9.13
-10.64
-12.21
-13.93
-15.94
-18.35
-21.21
-24.38
-27.51
-30.04
-31.30
-30.83
-28.48
-24.52
-19.57
-14.34
-9.44
-5.22
-1.80
0.87
2.92
4.54
5.92
7.26
8.68
10.25
11.86
13.33
14.47
15.14
15.37
15.27
15.07
14.92
14.95
15.15
15.46
15.76
15.95
15.94
15.69
15.18
14.42
13.47
12.44
11.42
10.47
9.59
8.71
7.71
6.50
5.06
3.46
1.85
0.37
-0.91
-2.06
-3.25
-4.64
-6.31
-8.22
-10.19
-11.98
-13.46
-14.66
-15.73
-16.91
-18.45
-20.48
-22.98
-25.75
-28.40
-30.38
-31.07
-30.01
-27.03
-22.43
-16.85
-11.14
-6.04
-2.01
0.89
2.87
4.28
5.43
6.51
7.61
8.71
9.76
10.72
11.53
12.23
12.84
13.43
14.00
14.50
14.85
14.95
14.76
14.33
13.73
13.05
12.32
11.55
10.72
9.79
8.78
7.76
6.77
5.87
5.03
4.23
3.38
2.38
1.18
-0.26
-1.91
-3.72
-5.58
-7.41
-9.12
-10.73
-12.33
-14.09
-16.23
-18.89
-22.00
-25.22
-27.96
-29.51
-29.30
-27.15
-23.33
-18.52
-13.54
-9.06
-5.42
-2.64
-0.53
1.14
2.54
3.79
4.98
6.22
7.56
9.01
10.48
11.82
12.91
13.70
14.24
14.65
15.04
15.50
16.02
16.55
16.98
17.18
17.09
16.70
16.05
15.25
14.37
13.43
12.38
11.18
9.83
8.36
6.87
5.47
4.20
3.07
2.01
0.93
-0.29
-1.73
-3.39
-5.22
-7.10
-8.91
-10.55
-12.05
-13.51
-15.05
-16.86
-19.03
-21.57
-24.40
-27.23
-29.63
-31.04
-30.92
-28.94
-25.20
-20.18
-14.68
-9.51
-5.22
-1.99
0.38
2.26
3.99
5.72
7.44
9.06
10.48
11.71
12.84
13.98
15.17
16.39
17.49
18.32
18.74
18.75
18.44
18.02
17.64
17.41
17.30
17.18
16.89
16.31
15.40
14.26
13.04
11.87
10.81
9.81
8.77
7.59
6.25
4.85
3.52
2.37
1.36
0.36
-0.84
-2.32
-4.02
-5.79
-7.41
-8.75
-9.82
-10.73
-11.64
-12.67
-13.90
-15.40
-17.26
-19.54
-22.19
-25.00
-27.50
-29.10
-29.20
-27.45
-23.91
-19.08
-13.74
-8.68
-4.46
-1.24
1.18
3.19
5.13
7.12
9.04
10.67
11.85
12.59
13.03
13.40
13.84
14.41
15.03
15.60
16.00
16.20
16.19
16.04
15.78
15.48
15.13
14.67
14.03
13.10
11.87
10.39
8.78
7.21
5.80
4.55
3.41
2.24
0.95
-0.47
-1.97
-3.41
-4.69
-5.78
-6.77
-7.80
-9.05
-10.68
-12.72
-15.20
-18.04
-21.04
-23.94
-26.28
-27.52
-27.20
-25.14
-21.50
-16.82
-11.84
-7.26
-3.51
-0.70
1.34
2.90
4.26
5.57
6.82
7.95
8.86
9.53
10.02
10.46
10.96
11.58
12.29
12.95
13.43
13.61
13.50
13.18
12.78
12.37
11.90
11.25
10.23
8.73
6.75
4.43
2.02
-0.24
-2.15
-3.67
-4.83
-5.80
-6.73
-7.78
-9.11
-10.82
-13.06
-15.86
-19.08
-22.34
-24.99
-26.29
-25.66
-22.93
-18.52
-13.21
-7.99
-3.59
-0.31
2.01
3.79
5.47
7.29
9.23
11.06
12.56
13.60
14.21
14.51
14.64
14.67
14.60
14.40
14.05
13.62
13.21
12.92
12.72
12.49
12.01
11.06
9.53
7.47
5.07
2.63
0.43
-1.34
-2.66
-3.66
-4.63
-5.87
-7.65
-10.08
-13.06
-16.31
-19.40
-21.83
-23.11
-22.89
-21.06
-17.78
-13.49
-8.81
-4.31
-0.38
2.86
5.54
7.86
9.96
11.87
13.52
14.84
15.78
16.40
16.76
16.92
16.91
16.78
16.59
16.46
16.52
16.83
17.36
17.98
18.47
18.60
18.18
17.14
15.55
13.64
11.72
10.09
8.94
8.24
7.82
7.40
6.72
5.68
4.34
2.85
1.41
0.13
-1.01
-2.15
-3.45
-5.04
-6.89
-8.88
-10.81
-12.54
-14.03
-15.35
-16.65
-18.10
-19.85
-21.99
-24.48
-27.15
-29.61
-31.30
-31.63
-30.18
-26.91
-22.19
-16.76
-11.42
-6.77
-3.05
-0.20
2.08
4.02
5.79
7.36
8.69
9.70
10.41
10.89
11.27
11.66
12.10
12.55
12.93
13.12
13.07
12.80
12.42
12.08
11.88
11.80
11.72
11.51
11.00
10.17
9.08
7.91
6.82
5.92
5.21
4.55
3.78
2.74
1.42
-0.11
-1.67
-3.08
-4.23
-5.11
-5.83
-6.56
-7.47
-8.73
-10.46
-12.69
-15.33
-18.15
-20.74
-22.58
-23.14
-22.03
-19.19
-14.94
-9.94
-4.98
-0.76
2.33
4.26
5.27
5.75
6.03
6.36
6.86
7.57
8.45
9.43
10.37
11.13
11.60
11.70
11.46
10.99
10.41
9.82
9.28
8.80
8.29
7.67
6.84
5.79
4.55
3.20
1.83
0.45
-0.94
-2.37
-3.81
-5.16
-6.35
-7.35
-8.25
-9.22
-10.43
-12.01
-13.98
-16.34
-18.95
-21.61
-23.96
-25.54
-25.81
-24.44
-21.41
-17.08
-12.11
-7.22
-2.93
0.54
3.29
5.54
7.52
9.33
10.98
12.40
13.57
14.44
15.06
15.45
15.66
15.66
15.48
15.11
14.63
14.14
13.71
13.40
13.14
12.79
12.22
11.35
10.19
8.83
7.44
6.13
5.01
4.13
3.49
3.02
2.59
1.98
1.00
-0.48
-2.40
-4.58
-6.74
-8.63
-10.12
-11.23
-12.13
-13.08
-14.38
-16.27
-18.81
-21.84
-24.92
-27.39
-28.52
-27.80
-25.07
-20.66
-15.27
-9.78
-4.95
-1.23
1.32
2.97
4.15
5.25
6.49
7.90
9.36
10.68
11.75
12.53
13.07
13.42
13.66
13.81
13.91
14.00
14.09
14.15
14.13
13.92
13.48
12.82
12.02
11.17
10.36
9.61
8.88
8.08
7.12
5.91
4.47
2.89
1.38
0.15
-0.68
-1.17
-1.55
-2.14
-3.16
-4.64
-6.38
-8.11
-9.60
-10.80
-11.82
-12.85
-14.14
-15.82
-17.93
-20.36
-22.79
-24.75
-25.70
-25.20
-23.09
-19.56
-15.13
-10.48
-6.22
-2.74
-0.10
1.82
3.29
4.56
5.76
6.96
8.13
9.19
10.08
10.73
11.13
11.34
11.43
11.50
11.57
11.66
11.79
11.94
12.07
12.12
11.98
11.53
10.71
9.60
8.37
7.31
6.61
6.31
6.21
6.01
5.43
4.35
2.90
1.33
-0.08
-1.20
-2.06
-2.80
-3.57
-4.48
-5.55
-6.76
-8.09
-9.49
-10.94
-12.36
-13.76
-15.20
-16.87
-18.97
-21.53
-24.30
-26.64
-27.80
-27.14
-24.44
-20.03
-14.69
-9.31
-4.64
-1.06
1.46
3.18
4.43
5.49
6.52
7.59
8.70
9.82
10.87
11.79
12.46
12.85
12.93
12.77
12.49
12.21
12.01
11.89
11.81
11.70
11.49
11.19
10.81
10.41
9.99
9.54
8.99
8.27
7.32
6.17
4.91
3.67
2.56
1.61
0.75
-0.13
-1.14
-2.32
-3.60
-4.88
-6.06
-7.09
-8.02
-8.91
-9.85
-10.95
-12.29
-13.97
-15.99
-18.27
-20.50
-22.23
-22.96
-22.33
-20.23
-16.89
-12.84
-8.66
-4.84
-1.69
0.74
2.57
3.93
4.94
5.69
6.22
6.60
6.96
7.45
8.16
9.11
10.18
11.15
11.81
12.01
11.79
11.31
10.78
10.39
10.16
9.98
9.70
9.15
8.32
7.27
6.15
5.04
3.96
2.89
1.80
0.74
-0.21
-0.97
-1.57
-2.09
-2.68
-3.46
-4.42
-5.48
-6.52
-7.46
-8.30
-9.06
-9.82
-10.63
-11.57
-12.73
-14.16
-15.81
-17.49
-18.84
-19.40
-18.77
-16.73
-13.45
-9.35
-5.07
-1.16
2.00
4.33
5.94
7.01
7.70
8.08
8.22
8.19
8.12
8.18
8.44
8.89
9.41
9.90
10.29
10.60
10.86
11.09
11.23
11.22
11.00
10.53
9.81
8.89
7.81
6.68
5.57
4.53
3.61
2.76
1.97
1.18
0.38
-0.44
-1.30
-2.24
-3.27
-4.37
-5.42
-6.32
-7.01
-7.53
-8.07
-8.89
-10.19
-12.03
-14.24
-16.45
-18.21
-19.06
-18.76
-17.26
-14.76
-11.58
-8.07
-4.57
-1.34
1.44
3.61
5.10
5.93
6.24
6.25
6.20
6.27
6.54
6.98
7.50
8.00
8.39
8.62
8.68
8.58
8.40
8.19
7.99
7.79
7.54
7.17
6.68
6.06
5.34
4.54
3.68
2.80
1.93
1.05
0.15
-0.83
-1.95
-3.20
-4.51
-5.74
-6.74
-7.48
-7.99
-8.45
-9.05
-9.98
-11.37
-13.20
-15.28
-17.20
-18.45
-18.50
-17.03
-14.11
-10.18
-5.95
-2.11
0.90
3.00
4.39
5.32
6.01
6.49
6.70
6.65
6.40
6.16
6.14
6.43
6.95
7.52
7.91
8.01
7.85
7.53
7.24
7.05
6.94
6.79
6.45
5.82
4.91
3.83
2.73
1.75
0.94
0.24
-0.47
-1.33
-2.37
-3.51
-4.59
-5.43
-5.96
-6.29
-6.66
-7.33
-8.47
-10.10
-12.04
-14.07
-15.89
-17.23
-17.83
-17.43
-15.93
-13.37
-10.05
-6.48
-3.18
-0.56
1.25
2.30
2.85
3.16
3.43
3.74
4.05
4.32
4.49
4.59
4.69
4.89
5.20
5.57
5.83
5.84
5.57
5.14
4.76
4.57
4.59
4.63
4.42
3.73
2.53
0.98
-0.65
-2.09
-3.21
-4.03
-4.70
-5.43
-6.33
-7.47
-8.83
-10.38
-12.11
-13.95
-15.75
-17.17
-17.80
-17.25
-15.36
-12.30
-8.56
-4.76
-1.42
1.19
3.07
4.37
5.26
5.78
5.95
5.78
5.39
4.97
4.69
4.65
4.82
5.11
5.45
5.79
6.12
6.41
6.55
6.41
5.89
5.00
3.84
2.52
1.16
-0.20
-1.53
-2.78
-3.86
-4.74
-5.45
-6.13
-7.02
-8.36
-10.30
-12.81
-15.59
-18.09
-19.65
-19.69
-17.93
-14.55
-10.17
-5.63
-1.68
1.24
3.13
4.27
5.03
5.66
6.27
6.81
7.25
7.62
7.95
8.29
8.66
9.02
9.35
9.65
9.95
10.22
10.39
10.38
10.13
9.69
9.15
8.60
8.08
7.55
6.91
6.07
4.98
3.68
2.25
0.76
-0.72
-2.15
-3.52
-4.82
-6.10
-7.44
-8.94
-10.72
-12.77
-14.97
-17.02
-18.52
-19.03
-18.24
-16.10
-12.79
-8.76
-4.48
-0.44
3.07
5.89
8.01
9.49
10.41
10.87
11.02
11.04
11.11
11.36
11.86
12.56
13.34
14.03
14.52
14.73
14.70
14.51
14.24
13.92
13.51
12.92
12.05
10.90
9.54
8.13
6.86
5.85
5.10
4.47
3.77
2.80
1.48
-0.12
-1.80
-3.37
-4.69
-5.80
-6.84
-8.04
-9.58
-11.57
-13.99
-16.64
-19.20
-21.19
-22.12
-21.60
-19.53
-16.15
-12.03
-7.83
-4.09
-1.06
1.26
3.10
4.66
6.04
7.22
8.14
8.78
9.22
9.56
9.93
10.36
10.84
11.28
11.59
11.72
11.66
11.45
11.19
10.95
10.74
10.50
10.14
9.59
8.86
8.03
7.19
6.37
5.53
4.54
3.29
1.72
-0.09
-1.98
-3.73
-5.17
-6.23
-7.02
-7.77
-8.80
-10.37
-12.56
-15.20
-17.88
-20.03
-21.11
-20.77
-18.98
-16.04
-12.43
-8.71
-5.34
-2.56
-0.40
1.29
2.74
4.10
5.40
6.61
7.65
8.52
9.26
9.91
10.55
11.13
11.61
11.92
12.05
12.05
12.01
11.97
11.90
11.69
11.22
10.44
9.40
8.21
7.01
5.95
5.07
4.34
3.64
2.83
1.78
0.38
-1.33
-3.26
-5.17
-6.84
-8.07
-8.87
-9.41
-10.03
-11.08
-12.83
-15.25
-18.04
-20.62
-22.33
-22.64
-21.31
-18.46
-14.56
-10.22
-6.05
-2.42
0.51
2.81
4.71
6.38
7.95
9.44
10.75
11.81
12.54
12.98
13.23
13.42
13.64
13.91
14.12
14.14
13.88
13.36
12.68
12.03
11.51
11.13
10.76
10.21
9.33
8.09
6.62
5.10
3.79
2.80
2.14
1.71
1.33
0.81
0.02
-1.11
-2.57
-4.31
-6.16
-7.95
-9.51
-10.76
-11.73
-12.61
-13.65
-15.08
-17.02
-19.35
-21.75
-23.76
-24.84
-24.59
-22.81
-19.64
-15.47
-10.87
-6.43
-2.59
0.42
2.63
4.21
5.42
6.44
7.40
8.29
9.07
9.68
10.15
10.57
11.06
11.68
12.39
13.04
13.46
13.54
13.27
12.77
12.17
11.57
10.97
10.30
9.52
8.62
7.67
6.75
5.91
5.15
4.43
3.67
2.84
1.88
0.75
-0.58
-2.12
-3.83
-5.61
-7.29
-8.71
-9.80
-10.61
-11.31
-12.19
-13.53
-15.49
-18.02
-20.80
-23.26
-24.78
-24.84
-23.21
-20.03
-15.78
-11.11
-6.68
-2.94
-0.04
2.11
3.78
5.27
6.76
8.25
9.64
10.78
11.55
12.00
12.25
12.47
12.75
13.04
13.24
13.27
13.15
13.01
13.01
13.18
13.41
13.45
13.11
12.31
11.19
10.00
8.98
8.27
7.86
7.62
7.42
7.11
6.59
5.82
4.79
3.60
2.39
1.30
0.43
-0.30
-1.06
-2.04
-3.35
-4.93
-6.58
-8.07
-9.24
-10.12
-10.86
-11.74
-12.98
-14.71
-16.87
-19.24
-21.45
-23.03
-23.59
-22.84
-20.76
-17.53
-13.59
-9.50
-5.79
-2.81
-0.71
0.69
1.70
2.68
3.85
5.22
6.61
7.79
8.61
9.11
9.43
9.80
10.33
11.04
11.80
12.49
13.00
13.31
13.45
13.52
13.56
13.60
13.62
13.62
13.59
13.60
13.75
14.07
14.54
14.99
15.19
14.91
14.10
12.84
11.35
9.89
8.60
7.48
6.39
5.17
3.67
1.83
-0.32
-2.64
-5.00
-7.25
-9.29
-11.12
-12.85
-14.67
-16.78
-19.29
-22.09
-24.83
-26.94
-27.83
-27.08
-24.61
-20.82
-16.39
-12.08
-8.49
-5.83
-4.00
-2.68
-1.56
-0.45
0.65
1.65
2.50
3.16
3.70
4.18
4.67
5.17
5.68
6.18
6.67
7.16
7.63
8.05
8.35
8.42
8.21
7.72
7.05
6.30
5.58
4.89
4.20
3.44
2.63
1.83
1.20
0.79
0.60
0.48
0.24
-0.28
-1.11
-2.18
-3.34
-4.44
-5.39
-6.18
-6.87
-7.62
-8.56
-9.85
-11.56
-13.68
-16.09
-18.52
-20.59
-21.91
-22.12
-21.06
-18.75
-15.45
-11.62
-7.79
-4.41
-1.79
0.05
1.29
2.23
3.12
4.09
5.15
6.18
7.11
7.95
8.76
9.63
10.58
11.52
12.32
12.87
13.16
13.27
13.32
13.41
13.53
13.59
13.44
12.98
12.23
11.26
10.23
9.25
8.39
7.58
6.75
5.84
4.84
3.82
2.87
2.01
1.22
0.41
-0.53
-1.67
-3.03
-4.55
-6.11
-7.61
-8.96
-10.10
-11.09
-12.07
-13.22
-14.74
-16.71
-19.07
-21.58
-23.87
-25.49
-26.07
-25.34
-23.26
-20.03
-16.04
-11.78
-7.77
-4.38
-1.74
0.21
1.70
3.01
4.36
5.85
7.44
8.96
10.28
11.25
11.86
12.19
12.35
12.42
12.45
12.42
12.36
12.32
12.41
12.67
13.06
13.41
13.51
13.19
12.45
11.43
10.34
9.37
8.62
8.07
7.65
7.26
6.83
6.28
5.56
4.60
3.44
2.14
0.85
-0.30
-1.26
-2.09
-2.95
-4.00
-5.34
-6.90
-8.54
-10.04
-11.25
-12.16
-12.90
-13.70
-14.83
-16.45
-18.56
-20.92
-23.10
-24.57
-24.89
-23.80
-21.34
-17.88
-13.93
-10.04
-6.62
-3.86
-1.69
0.04
1.56
3.02
4.44
5.81
7.06
8.16
9.14
10.07
11.04
12.14
13.39
14.76
16.19
17.58
18.82
19.80
20.45
20.73
20.64
20.18
19.31
18.02
16.32
14.28
12.09
9.98
8.07
6.37
4.76
3.07
1.23
-0.72
-2.63
-4.32
-5.74
-6.95
-8.12
-9.44
-11.00
-12.79
-14.68
-16.50
-18.11
-19.48
-20.66
-21.81
-23.07
-24.47
-25.88
-26.99
-27.40
-26.74
-24.83
-21.75
-17.83
-13.54
-9.35
-5.57
-2.34
0.37
2.66
4.59
6.17
7.33
8.08
8.50
8.81
9.24
9.96
10.97
12.08
13.05
13.68
13.94
13.92
13.79
13.69
13.65
13.63
13.56
13.41
13.14
12.75
12.24
11.57
10.72
9.68
8.49
7.23
5.99
4.87
3.90
3.09
2.40
1.78
1.18
0.58
-0.07
-0.87
-1.95
-3.43
-5.32
-7.50
-9.69
-11.61
-13.11
-14.26
-15.32
-16.62
-18.39
-20.65
-23.17
-25.55
-27.30
-27.96
-27.21
-24.99
-21.48
-17.14
-12.58
-8.38
-4.93
-2.36
-0.50
0.95
2.32
3.86
5.66
7.64
9.61
11.36
12.74
13.71
14.33
14.74
15.08
15.44
15.85
16.30
16.75
17.13
17.38
17.43
17.21
16.72
15.98
15.07
14.10
13.18
12.38
11.73
11.21
10.76
10.28
9.69
8.92
7.97
6.90
5.82
4.79
3.87
3.04
2.23
1.41
0.50
-0.56
-1.82
-3.29
-4.93
-6.62
-8.25
-9.74
-11.09
-12.40
-13.78
-15.34
-17.22
-19.47
-22.04
-24.72
-27.10
-28.66
-28.87
-27.44
-24.46
-20.35
-15.76
-11.32
-7.47
-4.37
-1.94
-0.02
1.61
3.04
4.34
5.54
6.66
7.78
8.95
10.22
11.57
12.90
14.08
14.95
15.42
15.53
15.43
15.32
15.39
15.66
16.01
16.20
16.02
15.35
14.28
13.00
11.70
10.51
9.40
8.30
7.12
5.86
4.64
3.59
2.80
2.23
1.72
1.05
0.06
-1.31
-2.97
-4.75
-6.47
-8.00
-9.32
-10.48
-11.64
-12.96
-14.62
-16.76
-19.36
-22.25
-25.04
-27.20
-28.19
-27.64
-25.49
-21.99
-17.65
-13.05
-8.70
-4.95
-1.88
0.58
2.62
4.41
6.07
7.63
9.07
10.33
11.41
12.36
13.25
14.17
15.13
16.09
16.96
17.62
18.02
18.14
18.05
17.82
17.48
17.05
16.52
15.88
15.11
14.20
13.19
12.10
11.00
9.93
8.97
8.10
7.29
6.47
5.59
4.65
3.71
2.85
2.08
1.37
0.64
-0.26
-1.40
-2.81
-4.44
-6.20
-7.96
-9.63
-11.14
-12.51
-13.79
-15.09
-16.55
-18.30
-20.46
-23.00
-25.73
-28.24
-29.93
-30.26
-28.88
-25.86
-21.65
-16.97
-12.51
-8.71
-5.69
-3.30
-1.30
0.52
2.24
3.84
5.27
6.54
7.73
8.95
10.29
11.73
13.14
14.34
15.18
15.60
15.68
15.61
15.54
15.60
15.75
15.83
15.68
15.17
14.32
13.19
11.95
10.70
9.52
8.39
7.27
6.12
4.95
3.85
2.90
2.16
1.55
0.92
0.09
-1.10
-2.66
-4.52
-6.47
-8.35
-10.02
-11.43
-12.67
-13.91
-15.36
-17.24
-19.62
-22.35
-25.01
-26.99
-27.62
-26.45
-23.43
-18.98
-13.88
-8.99
-4.91
-1.88
0.29
2.02
3.71
5.51
7.34
9.01
10.35
11.41
12.31
13.27
14.33
15.40
16.24
16.69
16.70
16.45
16.20
16.15
16.38
16.72
16.92
16.79
16.23
15.36
14.34
13.37
12.53
11.82
11.19
10.56
9.88
9.15
8.34
7.43
6.42
5.35
4.26
3.24
2.30
1.42
0.50
-0.59
-1.97
-3.64
-5.56
-7.57
-9.51
-11.24
-12.70
-13.94
-15.09
-16.35
-17.92
-19.94
-22.42
-25.14
-27.66
-29.41
-29.80
-28.48
-25.43
-21.08
-16.12
-11.30
-7.21
-4.08
-1.79
-0.00
1.63
3.29
5.00
6.63
8.05
9.24
10.28
11.27
12.29
13.28
14.13
14.70
14.93
14.85
14.58
14.25
13.99
13.90
14.01
14.29
14.61
14.79
14.64
14.04
13.04
11.79
10.53
9.45
8.59
7.86
7.11
6.19
5.09
3.90
2.75
1.73
0.82
-0.05
-1.01
-2.13
-3.41
-4.80
-6.25
-7.70
-9.15
-10.65
-12.22
-13.88
-15.66
-17.63
-19.83
-22.19
-24.49
-26.32
-27.16
-26.55
-24.30
-20.58
-15.92
-10.98
-6.42
-2.66
0.17
2.17
3.57
4.64
5.61
6.63
7.80
9.14
10.59
12.02
13.27
14.21
14.75
14.94
14.91
14.85
14.91
15.13
15.45
15.72
15.77
15.50
14.87
13.92
12.73
11.42
10.14
9.05
8.21
7.57
6.97
6.18
5.06
3.65
2.16
0.88
-0.01
-0.55
-0.98
-1.63
-2.69
-4.16
-5.84
-7.48
-8.93
-10.20
-11.42
-12.77
-14.37
-16.29
-18.50
-20.96
-23.54
-25.98
-27.86
-28.64
-27.86
-25.37
-21.39
-16.55
-11.63
-7.30
-3.88
-1.33
0.63
2.35
3.99
5.59
7.07
8.36
9.47
10.45
11.36
12.16
12.78
13.13
13.17
12.99
12.71
12.49
12.42
12.53
12.78
13.08
13.33
13.39
13.15
12.52
11.51
10.22
8.87
7.63
6.63
5.88
5.28
4.67
3.87
2.77
1.34
-0.37
-2.22
-4.01
-5.55
-6.75
-7.61
-8.34
-9.22
-10.57
-12.58
-15.29
-18.52
-21.86
-24.77
-26.60
-26.83
-25.20
-21.83
-17.24
-12.15
-7.33
-3.31
-0.31
1.78
3.22
4.32
5.29
6.27
7.28
8.33
9.37
10.34
11.19
11.86
12.37
12.73
12.99
13.17
13.25
13.20
13.05
12.80
12.47
12.02
11.38
10.43
9.17
7.70
6.21
4.91
3.92
3.15
2.43
1.49
0.13
-1.69
-3.84
-6.03
-7.99
-9.50
-10.55
-11.31
-12.06
-13.09
-14.61
-16.68
-19.19
-21.87
-24.31
-25.97
-26.31
-24.98
-21.98
-17.70
-12.86
-8.21
-4.32
-1.40
0.70
2.29
3.69
5.11
6.59
8.06
9.43
10.65
11.75
12.79
13.78
14.71
15.47
15.92
16.02
15.85
15.62
15.56
15.78
16.17
16.46
16.31
15.52
14.17
12.54
11.00
9.82
9.06
8.55
8.03
7.28
6.24
4.99
3.69
2.48
1.41
0.38
-0.74
-2.10
-3.75
-5.65
-7.67
-9.67
-11.54
-13.21
-14.64
-15.85
-16.87
-17.81
-18.87
-20.29
-22.21
-24.53
-26.86
-28.54
-28.88
-27.43
-24.19
-19.62
-14.49
-9.57
-5.42
-2.25
0.05
1.76
3.21
4.63
6.10
7.62
9.10
10.48
11.71
12.81
13.81
14.70
15.46
16.01
16.31
16.36
16.23
15.99
15.70
15.34
14.83
14.09
13.08
11.83
10.50
9.23
8.17
7.35
6.73
6.21
5.68
5.09
4.41
3.64
2.80
1.92
1.04
0.22
-0.56
-1.36
-2.26
-3.36
-4.64
-6.00
-7.27
-8.33
-9.18
-9.93
-10.84
-12.14
-13.98
-16.37
-19.15
-22.03
-24.56
-26.24
-26.63
-25.42
-22.62
-18.55
-13.78
-8.99
-4.76
-1.41
1.02
2.73
4.01
5.10
6.12
7.06
7.90
8.66
9.43
10.29
11.25
12.23
13.07
13.67
14.03
14.26
14.48
14.76
15.09
15.33
15.36
15.08
14.47
13.60
12.60
11.60
10.69
9.93
9.25
8.54
7.66
6.57
5.34
4.10
2.98
2.01
1.10
0.10
-1.10
-2.52
-4.09
-5.69
-7.23
-8.68
-10.03
-11.28
-12.47
-13.69
-15.11
-16.99
-19.47
-22.53
-25.83
-28.79
-30.75
-31.17
-29.82
-26.86
-22.79
-18.26
-13.88
-10.12
-7.16
-4.93
-3.23
-1.80
-0.44
0.95
2.41
3.90
5.41
6.91
8.35
9.66
10.74
11.55
12.07
12.39
12.65
13.00
13.49
14.10
14.72
15.15
15.22
14.85
14.03
12.92
11.71
10.61
9.75
9.13
8.63
8.06
7.29
6.27
5.13
4.08
3.26
2.69
2.17
1.36
-0.00
-2.02
-4.49
-7.05
-9.28
-10.94
-12.10
-13.03
-14.09
-15.60
-17.68
-20.24
-22.99
-25.49
-27.15
-27.47
-26.09
-23.02
-18.65
-13.64
-8.74
-4.54
-1.32
0.98
2.61
3.88
5.01
6.15
7.31
8.50
9.67
10.79
11.81
12.71
13.47
14.10
14.58
14.92
15.12
15.21
15.23
15.20
15.10
14.89
14.48
13.81
12.90
11.87
10.85
10.02
9.40
8.94
8.49
7.90
7.07
5.99
4.78
3.58
2.55
1.75
1.15
0.65
0.05
-0.80
-2.04
-3.66
-5.55
-7.49
-9.25
-10.67
-11.75
-12.71
-13.87
-15.55
-17.87
-20.66
-23.43
-25.53
-26.35
-25.50
-22.96
-19.06
-14.38
-9.57
-5.20
-1.65
0.98
2.83
4.16
5.22
6.20
7.15
8.05
8.88
9.69
10.58
11.63
12.81
13.99
14.96
15.52
15.64
15.39
14.93
14.42
13.93
13.42
12.85
12.15
11.33
10.42
9.44
8.39
7.27
6.07
4.88
3.75
2.74
1.79
0.79
-0.44
-1.96
-3.65
-5.30
-6.67
-7.66
-8.36
-9.02
-9.89
-11.14
-12.80
-14.82
-17.07
-19.35
-21.38
-22.72
-22.91
-21.62
-18.81
-14.81
-10.22
-5.73
-1.83
1.24
3.53
5.23
6.50
7.44
8.05
8.38
8.51
8.65
8.98
9.63
10.54
11.56
12.45
13.04
13.28
13.25
13.06
12.85
12.70
12.60
12.47
12.17
11.59
10.61
9.24
7.57
5.77
4.03
2.45
1.03
-0.34
-1.77
-3.29
-4.85
-6.30
-7.55
-8.59
-9.55
-10.61
-11.96
-13.71
-15.89
-18.41
-21.09
-23.63
-25.63
-26.62
-26.19
-24.11
-20.49
-15.72
-10.46
-5.39
-1.06
2.26
4.60
6.19
7.33
8.27
9.15
10.01
10.84
11.65
12.41
13.13
13.80
14.36
14.76
14.91
14.77
14.35
13.75
13.12
12.59
12.27
12.14
12.10
12.01
11.68
11.06
10.13
9.00
7.76
6.47
5.17
3.87
2.63
1.49
0.52
-0.27
-0.96
-1.70
-2.62
-3.81
-5.23
-6.74
-8.21
-9.51
-10.67
-11.82
-13.15
-14.90
-17.20
-19.99
-22.96
-25.59
-27.28
-27.50
-26.00
-22.90
-18.62
-13.79
-9.08
-4.98
-1.79
0.45
1.92
2.90
3.69
4.54
5.50
6.53
7.50
8.35
9.08
9.77
10.49
11.24
11.93
12.42
12.64
12.60
12.43
12.26
12.17
12.18
12.17
12.05
11.70
11.08
10.17
9.01
7.70
6.33
5.01
3.84
2.85
2.03
1.27
0.43
-0.63
-1.96
-3.54
-5.23
-6.85
-8.27
-9.46
-10.51
-11.58
-12.87
-14.53
-16.63
-19.13
-21.76
-24.11
-25.66
-25.86
-24.43
-21.42
-17.25
-12.56
-8.02
-4.08
-0.95
1.41
3.17
4.49
5.53
6.39
7.19
8.02
8.99
10.13
11.38
12.59
13.58
14.22
14.47
14.44
14.31
14.24
14.27
14.27
14.07
13.49
12.53
11.36
10.23
9.31
8.67
8.22
7.80
7.31
6.69
5.92
5.01
3.98
2.89
1.80
0.81
-0.02
-0.78
-1.60
-2.68
-4.11
-5.85
-7.76
-9.64
-11.34
-12.85
-14.26
-15.72
-17.37
-19.30
-21.48
-23.70
-25.59
-26.67
-26.47
-24.72
-21.43
-16.98
-11.99
-7.18
-3.13
-0.10
1.95
3.32
4.34
5.29
6.23
7.13
7.95
8.70
9.49
10.40
11.44
12.49
13.37
13.91
14.11
14.09
14.03
14.12
14.42
14.85
15.23
15.32
14.96
14.09
12.78
11.21
9.62
8.19
7.00
6.04
5.20
4.42
3.61
2.77
1.88
0.94
-0.02
-0.94
-1.78
-2.53
-3.25
-4.04
-5.02
-6.23
-7.62
-9.08
-10.45
-11.67
-12.75
-13.84
-15.13
-16.78
-18.86
-21.29
-23.80
-25.96
-27.26
-27.24
-25.66
-22.56
-18.31
-13.48
-8.71
-4.54
-1.29
0.99
2.45
3.37
3.98
4.47
4.92
5.38
5.90
6.57
7.46
8.53
9.71
10.80
11.62
12.10
12.27
12.27
12.21
12.16
12.06
11.82
11.34
10.57
9.55
8.31
6.96
5.56
4.20
2.95
1.85
0.92
0.13
-0.64
-1.52
-2.59
-3.89
-5.33
-6.77
-8.00
-8.92
-9.55
-10.05
-10.70
-11.78
-13.48
-15.80
-18.52
-21.27
-23.53
-24.77
-24.58
-22.75
-19.44
-15.11
-10.41
-6.01
-2.35
0.37
2.25
3.54
4.48
5.25
5.97
6.72
7.60
8.63
9.80
10.97
12.01
12.78
13.29
13.63
13.92
14.24
14.59
14.89
15.02
14.90
14.50
13.84
12.98
11.99
10.95
9.92
8.94
8.04
7.21
6.39
5.53
4.56
3.45
2.19
0.83
-0.57
-1.96
-3.31
-4.64
-5.96
-7.26
-8.50
-9.66
-10.69
-11.62
-12.51
-13.47
-14.62
-16.13
-18.09
-20.45
-22.94
-25.04
-26.08
-25.54
-23.23
-19.42
-14.76
-10.01
-5.77
-2.33
0.34
2.41
4.04
5.35
6.36
7.12
7.73
8.31
8.96
9.70
10.51
11.31
12.02
12.57
12.95
13.17
13.28
13.31
13.29
13.17
12.87
12.36
11.62
10.74
9.83
9.03
8.38
7.87
7.44
7.01
6.53
5.97
5.32
4.58
3.70
2.71
1.62
0.48
-0.67
-1.81
-2.96
-4.16
-5.44
-6.80
-8.18
-9.52
-10.76
-11.93
-13.13
-14.55
-16.40
-18.82
-21.75
-24.84
-27.55
-29.21
-29.27
-27.49
-24.08
-19.59
-14.78
-10.36
-6.75
-4.05
-2.07
-0.47
1.02
2.56
4.16
5.81
7.46
9.09
10.68
12.14
13.34
14.15
14.51
14.53
14.40
14.34
14.48
14.79
15.17
15.43
15.44
15.15
14.59
13.84
13.04
12.25
11.54
10.91
10.30
9.65
8.81
7.71
6.34
4.77
3.14
1.61
0.28
-0.86
-1.92
-3.04
-4.34
-5.83
-7.39
-8.85
-10.07
-11.07
-11.99
-13.09
-14.63
-16.74
-19.38
-22.27
-24.96
-26.85
-27.37
-26.17
-23.27
-19.05
-14.17
-9.40
-5.32
-2.17
0.10
1.78
3.15
4.46
5.79
7.16
8.55
9.90
11.17
12.27
13.15
13.78
14.18
14.46
14.71
15.00
15.36
15.74
16.05
16.20
16.12
15.74
15.01
13.96
12.67
11.30
10.05
9.08
8.42
7.95
7.46
6.72
5.62
4.25
2.83
1.63
0.83
0.43
0.20
-0.13
-0.84
-2.01
-3.57
-5.35
-7.15
-8.84
-10.37
-11.77
-13.14
-14.65
-16.43
-18.61
-21.15
-23.78
-26.03
-27.33
-27.21
-25.49
-22.35
-18.24
-13.77
-9.49
-5.78
-2.79
-0.48
1.36
2.93
4.44
5.97
7.52
9.03
10.39
11.53
12.45
13.16
13.74
14.24
14.70
15.17
15.64
16.11
16.51
16.78
16.84
16.62
16.12
15.33
14.33
13.20
12.06
11.02
10.17
9.53
9.05
8.61
8.08
7.32
6.32
5.14
3.92
2.79
1.84
1.03
0.24
-0.67
-1.81
-3.18
-4.73
-6.39
-8.07
-9.75
-11.40
-12.96
-14.39
-15.69
-17.01
-18.57
-20.64
-23.30
-26.32
-29.14
-30.97
-31.11
-29.18
-25.33
-20.14
-14.50
-9.23
-4.90
-1.71
0.52
2.16
3.54
4.88
6.23
7.57
8.88
10.13
11.34
12.45
13.35
13.90
14.04
13.83
13.48
13.27
13.39
13.91
14.70
15.50
16.03
16.06
15.50
14.41
12.96
11.35
9.81
8.49
7.45
6.68
6.13
5.68
5.24
4.72
4.05
3.19
2.12
0.83
-0.71
-2.51
-4.59
-6.91
-9.37
-11.80
-14.05
-16.02
-17.75
-19.45
-21.42
-23.95
-27.18
-30.93
-34.74
-37.94
-39.85
-40.03
-38.43
-35.42
-31.67
-27.91
-24.72
-22.42
-21.03
-20.40
-20.34
-20.64
-21.12
-21.63
-21.93
-21.82
-21.06
-19.52
-17.10
-13.82
-9.70
-4.82
0.71
6.78
13.19
19.73
26.11
32.03
37.19
41.31
44.25
45.91
46.37
45.78
44.35
42.36
40.01
37.46
34.76
31.88
28.78
25.43
21.87
18.24
14.73
11.50
8.66
6.23
4.10
2.10
-0.00
-2.45
-5.39
-8.83
-12.56
-16.15
-19.01
-20.58
-20.49
-18.74
-15.68
-11.92
-8.11
-4.72
-1.91
0.35
2.27
4.01
5.65
7.18
8.57
9.79
10.90
11.98
13.11
14.32
15.50
16.48
17.08
17.19
16.89
16.40
16.00
15.90
16.13
16.52
16.82
16.79
16.32
15.45
14.30
12.98
11.61
10.22
8.81
7.43
6.13
4.94
3.89
2.99
2.21
1.54
0.93
0.32
-0.40
-1.32
-2.53
-4.06
-5.84
-7.76
-9.66
-11.39
-12.89
-14.17
-15.36
-16.67
-18.34
-20.56
-23.35
-26.49
-29.55
-31.93
-33.03
-32.45
-30.07
-26.19
-21.36
-16.29
-11.63
-7.81
-4.94
-2.85
-1.21
0.32
1.98
3.84
5.82
7.76
9.54
11.10
12.48
13.76
14.95
15.99
16.80
17.33
17.60
17.72
17.81
17.90
17.89
17.67
17.15
16.39
15.50
14.65
13.90
13.18
12.35
11.30
10.00
8.54
7.07
5.71
4.52
3.49
2.56
1.69
0.86
0.01
-0.93
-2.07
-3.48
-5.17
-7.04
-8.91
-10.59
-11.99
-13.18
-14.36
-15.78
-17.65
-20.03
-22.86
-25.87
-28.67
-30.75
-31.60
-30.84
-28.35
-24.40
-19.56
-14.57
-10.05
-6.36
-3.53
-1.38
0.39
1.98
3.51
4.99
6.38
7.63
8.71
9.65
10.47
11.23
11.96
12.64
13.21
13.57
13.69
13.59
13.37
13.08
12.73
12.25
11.58
10.71
9.69
8.65
7.71
6.92
6.28
5.72
5.19
4.62
3.98
3.19
2.23
1.02
-0.47
-2.23
-4.20
-6.22
-8.11
-9.70
-10.92
-11.89
-12.89
-14.30
-16.40
-19.27
-22.70
-26.19
-29.06
-30.61
-30.39
-28.24
-24.45
-19.61
-14.47
-9.70
-5.67
-2.42
0.24
2.63
4.95
7.22
9.33
11.13
12.56
13.69
14.70
15.74
16.90
18.14
19.36
20.44
21.37
22.16
22.85
23.44
23.88
24.04
23.87
23.35
22.56
21.62
20.65
19.70
18.77
17.84
16.87
15.81
14.63
13.29
11.74
10.01
8.13
6.20
4.31
2.52
0.88
-0.59
-1.90
-3.05
-4.07
-5.05
-6.08
-7.23
-8.53
-9.92
-11.31
-12.60
-13.76
-14.80
-15.80
-16.84
-18.06
-19.59
-21.60
-24.19
-27.29
-30.57
-33.38
-35.00
-34.77
-32.46
-28.30
-22.96
-17.30
-12.04
-7.59
-3.99
-1.08
1.37
3.50
5.33
6.86
8.09
9.08
9.92
10.67
11.39
12.04
12.57
12.95
13.15
13.20
13.16
13.13
13.18
13.37
13.61
13.76
13.64
13.10
12.13
10.86
9.48
8.19
7.06
6.02
4.90
3.56
1.91
0.02
-1.94
-3.78
-5.39
-6.77
-8.07
-9.49
-11.22
-13.41
-16.12
-19.31
-22.76
-26.11
-28.81
-30.27
-29.98
-27.73
-23.72
-18.53
-12.97
-7.77
-3.45
-0.14
2.30
4.17
5.78
7.35
8.94
10.54
12.03
13.30
14.32
15.08
15.69
16.23
16.80
17.39
17.96
18.43
18.73
18.81
18.65
18.25
17.57
16.62
15.41
14.03
12.57
11.14
9.81
8.58
7.39
6.16
4.82
3.31
1.68
-0.01
-1.68
-3.29
-4.86
-6.47
-8.17
-9.97
-11.84
-13.73
-15.69
-17.87
-20.48
-23.55
-26.85
-29.76
-31.49
-31.34
-29.05
-24.85
-19.44
-13.70
-8.38
-3.92
-0.38
2.40
4.69
6.69
8.50
10.12
11.50
12.60
13.46
14.15
14.75
15.35
15.93
16.46
16.89
17.25
17.61
18.06
18.64
19.28
19.81
20.05
19.90
19.37
18.60
17.69
16.78
15.89
15.03
14.21
13.37
12.48
11.45
10.24
8.88
7.50
6.26
5.28
4.53
3.76
2.66
0.97
-1.36
-4.13
-6.97
-9.52
-11.60
-13.25
-14.65
-16.06
-17.68
-19.64
-22.06
-24.95
-28.19
-31.38
-33.89
-35.00
-34.14
-31.19
-26.51
-20.87
-15.15
-10.04
-5.89
-2.75
-0.43
1.35
2.83
4.21
5.64
7.17
8.78
10.37
11.80
12.96
13.83
14.41
14.72
14.79
14.64
14.34
14.01
13.76
13.62
13.52
13.28
12.76
11.86
10.65
9.29
7.94
6.69
5.53
4.39
3.19
1.90
0.57
-0.75
-2.05
-3.29
-4.50
-5.68
-6.87
-8.14
-9.60
-11.39
-13.64
-16.34
-19.26
-21.94
-23.74
-24.07
-22.59
-19.41
-15.00
-10.08
-5.35
-1.28
1.94
4.38
6.22
7.63
8.69
9.45
9.93
10.18
10.26
10.27
10.32
10.48
10.81
11.26
11.71
12.03
12.10
11.92
11.57
11.17
10.75
10.29
9.67
8.76
7.47
5.81
3.87
1.82
-0.19
-2.04
-3.67
-5.08
-6.34
-7.52
-8.76
-10.13
-11.76
-13.73
-16.05
-18.62
-21.15
-23.21
-24.24
-23.77
-21.60
-17.84
-13.00
-7.77
-2.84
1.29
4.42
6.66
8.25
9.49
10.62
11.72
12.77
13.67
14.33
14.73
14.93
15.00
15.03
15.05
15.04
14.94
14.69
14.30
13.82
13.31
12.83
12.37
11.88
11.28
10.51
9.53
8.37
7.09
5.72
4.31
2.91
1.57
0.33
-0.78
-1.79
-2.80
-3.91
-5.18
-6.56
-7.93
-9.21
-10.36
-11.47
-12.69
-14.17
-16.02
-18.24
-20.81
-23.58
-26.31
-28.54
-29.76
-29.44
-27.33
-23.54
-18.60
-13.25
-8.23
-4.01
-0.73
1.75
3.72
5.42
7.04
8.60
10.09
11.47
12.73
13.85
14.80
15.55
16.02
16.15
15.96
15.53
15.01
14.56
14.30
14.25
14.30
14.32
14.15
13.68
12.93
11.97
10.92
9.91
8.99
8.12
7.24
6.23
5.04
3.73
2.42
1.26
0.35
-0.33
-0.91
-1.59
-2.61
-4.02
-5.78
-7.65
-9.39
-10.87
-12.09
-13.24
-14.53
-16.14
-18.10
-20.36
-22.82
-25.29
-27.51
-29.08
-29.52
-28.41
-25.63
-21.46
-16.51
-11.57
-7.26
-3.86
-1.34
0.58
2.17
3.63
5.05
6.47
7.90
9.39
10.94
12.45
13.79
14.81
15.42
15.64
15.58
15.40
15.25
15.22
15.31
15.42
15.42
15.16
14.52
13.50
12.16
10.68
9.26
8.11
7.37
7.06
7.06
7.10
6.90
6.22
5.04
3.52
1.97
0.66
-0.30
-1.04
-1.81
-2.84
-4.20
-5.83
-7.52
-9.10
-10.49
-11.66
-12.68
-13.63
-14.64
-15.85
-17.41
-19.44
-21.91
-24.59
-27.05
-28.72
-29.10
-27.86
-25.06
-21.07
-16.46
-11.84
-7.68
-4.18
-1.36
0.90
2.74
4.25
5.52
6.63
7.62
8.52
9.32
9.96
10.39
10.66
10.89
11.20
11.69
12.33
12.97
13.45
13.62
13.46
13.03
12.45
11.82
11.17
10.48
9.71
8.82
7.83
6.74
5.58
4.38
3.16
1.97
0.87
-0.09
-0.89
-1.57
-2.24
-3.07
-4.18
-5.59
-7.23
-8.95
-10.56
-11.98
-13.22
-14.41
-15.75
-17.44
-19.55
-21.95
-24.28
-26.02
-26.60
-25.61
-22.97
-18.96
-14.19
-9.38
-5.12
-1.76
0.66
2.30
3.44
4.32
5.15
6.05
7.10
8.27
9.50
10.69
11.70
12.46
12.94
13.18
13.25
13.23
13.17
13.09
12.98
12.79
12.48
12.03
11.43
10.73
9.95
9.13
8.26
7.31
6.29
5.23
4.17
3.13
2.13
1.17
0.26
-0.59
-1.34
-2.04
-2.79
-3.73
-4.95
-6.42
-7.97
-9.40
-10.54
-11.37
-12.06
-12.86
-14.05
-15.79
-18.05
-20.58
-22.94
-24.59
-25.06
-24.06
-21.59
-17.99
-13.78
-9.57
-5.81
-2.79
-0.56
1.02
2.16
3.09
3.95
4.88
5.87
6.90
7.94
8.97
10.00
11.01
11.94
12.66
13.08
13.17
13.02
12.80
12.67
12.69
12.77
12.72
12.37
11.63
10.58
9.44
8.41
7.62
7.01
6.40
5.58
4.46
3.13
1.80
0.69
-0.11
-0.71
-1.35
-2.21
-3.36
-4.67
-5.96
-7.07
-7.99
-8.85
-9.81
-10.95
-12.31
-13.85
-15.63
-17.71
-20.11
-22.64
-24.86
-26.18
-26.05
-24.19
-20.75
-16.23
-11.34
-6.73
-2.87
0.07
2.11
3.42
4.20
4.62
4.80
4.88
4.98
5.24
5.80
6.70
7.93
9.33
10.67
11.71
12.31
12.46
12.30
12.03
11.81
11.71
11.61
11.35
10.75
9.73
8.35
6.82
5.40
4.27
3.50
2.99
2.51
1.82
0.74
-0.77
-2.61
-4.56
-6.40
-7.96
-9.18
-10.17
-11.12
-12.27
-13.79
-15.77
-18.13
-20.62
-22.85
-24.34
-24.67
-23.58
-21.07
-17.47
-13.29
-9.09
-5.28
-2.05
0.64
2.89
4.82
6.44
7.72
8.65
9.31
9.83
10.38
11.02
11.71
12.33
12.75
12.94
13.01
13.11
13.34
13.70
14.03
14.13
13.87
13.24
12.37
11.42
10.54
9.78
9.11
8.46
7.77
6.98
6.08
5.09
4.07
3.09
2.20
1.40
0.65
-0.15
-1.11
-2.29
-3.70
-5.29
-6.98
-8.67
-10.28
-11.80
-13.26
-14.80
-16.61
-18.83
-21.49
-24.37
-27.00
-28.75
-29.06
-27.57
-24.34
-19.79
-14.63
-9.59
-5.26
-1.94
0.41
2.05
3.34
4.57
5.91
7.35
8.78
10.07
11.18
12.12
12.95
13.72
14.38
14.88
15.17
15.25
15.23
15.20
15.24
15.30
15.24
14.88
14.12
13.00
11.67
10.38
9.34
8.66
8.29
8.08
7.79
7.26
6.45
5.40
4.29
3.23
2.29
1.40
0.41
-0.83
-2.37
-4.18
-6.11
-7.99
-9.72
-11.24
-12.60
-13.86
-15.08
-16.34
-17.71
-19.31
-21.21
-23.34
-25.40
-26.90
-27.26
-26.02
-23.11
-18.86
-13.95
-9.07
-4.82
-1.42
1.16
3.15
4.76
6.12
7.26
8.13
8.71
9.07
9.36
9.74
10.32
11.08
11.90
12.58
13.04
13.27
13.42
13.67
14.11
14.72
15.31
15.68
15.66
15.26
14.54
13.62
12.59
11.49
10.34
9.17
8.01
6.90
5.83
4.81
3.81
2.83
1.80
0.66
-0.68
-2.26
-4.06
-5.98
-7.88
-9.62
-11.17
-12.59
-14.08
-15.89
-18.21
-21.05
-24.22
-27.24
-29.49
-30.36
-29.45
-26.71
-22.51
-17.48
-12.33
-7.63
-3.75
-0.77
1.42
3.02
4.28
5.44
6.67
8.06
9.61
11.21
12.74
14.08
15.19
16.09
16.84
17.52
18.12
18.63
19.03
19.29
19.41
19.38
19.19
18.77
18.10
17.17
16.02
14.74
13.44
12.21
11.12
10.19
9.40
8.65
7.82
6.83
5.62
4.24
2.83
1.52
0.40
-0.55
-1.45
-2.42
-3.56
-4.89
-6.36
-7.89
-9.40
-10.84
-12.21
-13.53
-14.91
-16.52
-18.52
-21.01
-23.88
-26.75
-28.99
-29.95
-29.18
-26.60
-22.53
-17.60
-12.48
-7.70
-3.63
-0.36
2.14
4.00
5.37
6.40
7.26
8.08
8.94
9.84
10.77
11.66
12.46
13.15
13.73
14.22
14.67
15.12
15.54
15.88
16.02
15.86
15.37
14.59
13.62
12.56
11.50
10.52
9.63
8.85
8.13
7.40
6.57
5.60
4.50
3.37
2.29
1.31
0.40
-0.55
-1.64
-2.94
-4.45
-6.12
-7.87
-9.62
-11.25
-12.67
-13.85
-14.90
-16.04
-17.55
-19.56
-21.95
-24.29
-25.92
-26.23
-24.83
-21.75
-17.38
-12.31
-7.19
-2.52
1.37
4.38
6.52
7.98
8.96
9.74
10.52
11.40
12.38
13.39
14.36
15.22
15.99
16.68
17.30
17.85
18.29
18.64
18.97
19.33
19.69
19.95
19.94
19.51
18.63
17.39
15.99
14.61
13.35
12.19
11.04
9.79
8.44
7.04
5.70
4.48
3.38
2.30
1.11
-0.27
-1.90
-3.76
-5.76
-7.83
-9.86
-11.79
-13.59
-15.25
-16.85
-18.51
-20.41
-22.70
-25.41
-28.31
-30.91
-32.55
-32.61
-30.75
-27.05
-22.05
-16.53
-11.28
-6.86
-3.52
-1.15
0.49
1.69
2.67
3.53
4.32
5.06
5.78
6.50
7.24
8.01
8.78
9.54
10.29
11.00
11.67
12.28
12.82
13.23
13.47
13.47
13.21
12.71
12.02
11.21
10.34
9.45
8.51
7.51
6.43
5.28
4.07
2.80
1.47
0.11
-1.27
-2.57
-3.72
-4.70
-5.58
-6.47
-7.54
-8.86
-10.41
-12.04
-13.56
-14.79
-15.72
-16.50
-17.40
-18.72
-20.62
-23.13
-26.03
-28.96
-31.46
-33.02
-33.24
-31.86
-28.89
-24.63
-19.63
-14.53
-9.87
-5.95
-2.82
-0.30
1.81
3.72
5.52
7.24
8.84
10.30
11.57
12.66
13.60
14.44
15.23
16.00
16.75
17.43
17.99
18.41
18.66
18.74
18.64
18.33
17.78
16.99
15.99
14.90
13.85
12.97
12.32
11.81
11.26
10.48
9.35
7.94
6.46
5.16
4.20
3.55
2.98
2.24
1.13
-0.39
-2.22
-4.19
-6.15
-8.02
-9.73
-11.28
-12.70
-14.07
-15.54
-17.32
-19.57
-22.32
-25.35
-28.17
-30.14
-30.60
-29.18
-25.86
-21.10
-15.63
-10.24
-5.55
-1.79
1.07
3.27
5.05
6.52
7.73
8.68
9.43
10.10
10.82
11.64
12.50
13.31
13.93
14.33
14.57
14.77
15.07
15.50
15.99
16.39
16.49
16.16
15.40
14.30
13.05
11.82
10.69
9.67
8.71
7.72
6.67
5.57
4.44
3.31
2.16
0.98
-0.22
-1.47
-2.77
-4.13
-5.55
-7.00
-8.46
-9.87
-11.23
-12.64
-14.23
-16.18
-18.62
-21.50
-24.57
-27.28
-29.02
-29.19
-27.48
-24.02
-19.31
-14.13
-9.21
-5.03
-1.72
0.85
2.96
4.85
6.63
8.32
9.90
11.31
12.49
13.40
14.01
14.36
14.54
14.65
14.78
15.01
15.31
15.69
16.15
16.67
17.21
17.67
17.90
17.81
17.34
16.52
15.45
14.22
12.94
11.65
10.36
9.04
7.64
6.18
4.75
3.50
2.61
2.14
1.99
1.89
1.54
0.68
-0.74
-2.60
-4.71
-6.82
-8.80
-10.53
-11.99
-13.16
-14.13
-15.05
-16.18
-17.77
-19.92
-22.48
-24.97
-26.72
-27.11
-25.75
-22.68
-18.37
-13.51
-8.84
-4.92
-1.96
0.14
1.64
2.87
4.08
5.41
6.87
8.39
9.87
11.23
12.41
13.41
14.25
14.96
15.54
15.94
16.09
15.99
15.68
15.31
15.03
14.90
14.86
14.71
14.27
13.39
12.13
10.68
9.28
8.12
7.22
6.48
5.75
4.92
3.98
2.99
2.08
1.35
0.84
0.49
0.11
-0.50
-1.55
-3.11
-5.08
-7.20
-9.18
-10.75
-11.84
-12.57
-13.17
-13.96
-15.17
-16.95
-19.26
-21.87
-24.37
-26.23
-26.92
-26.04
-23.49
-19.55
-14.80
-10.00
-5.82
-2.67
-0.60
0.65
1.52
2.43
3.58
4.95
6.37
7.65
8.72
9.61
10.43
11.24
12.00
12.56
12.79
12.67
12.29
11.83
11.46
11.25
11.19
11.16
11.05
10.78
10.34
9.72
8.92
7.95
6.80
5.55
4.30
3.18
2.26
1.53
0.88
0.13
-0.82
-2.00
-3.30
-4.58
-5.78
-6.93
-8.17
-9.65
-11.44
-13.50
-15.74
-18.03
-20.22
-22.12
-23.41
-23.73
-22.77
-20.45
-16.96
-12.81
-8.56
-4.74
-1.61
0.82
2.68
4.16
5.35
6.28
6.94
7.31
7.46
7.54
7.72
8.14
8.82
9.69
10.59
11.36
11.88
12.16
12.25
12.26
12.24
12.18
12.02
11.66
11.06
10.29
9.47
8.75
8.20
7.78
7.37
6.80
5.99
4.95
3.75
2.49
1.22
-0.04
-1.32
-2.62
-3.92
-5.18
-6.35
-7.41
-8.35
-9.18
-9.95
-10.76
-11.78
-13.19
-15.11
-17.53
-20.20
-22.68
-24.42
-24.96
-24.00
-21.60
-18.06
-13.91
-9.70
-5.89
-2.74
-0.32
1.51
2.94
4.18
5.37
6.52
7.59
8.57
9.49
10.42
11.43
12.51
13.55
14.38
14.83
14.83
14.47
13.93
13.41
13.08
12.96
12.98
12.97
12.77
12.24
11.36
10.23
9.03
7.94
7.09
6.50
6.14
5.88
5.61
5.24
4.70
3.95
2.98
1.83
0.59
-0.65
-1.79
-2.80
-3.73
-4.70
-5.78
-7.02
-8.34
-9.64
-10.79
-11.74
-12.54
-13.29
-14.13
-15.22
-16.68
-18.53
-20.65
-22.75
-24.37
-24.99
-24.26
-22.04
-18.58
-14.40
-10.11
-6.28
-3.21
-0.92
0.70
1.90
2.85
3.66
4.41
5.13
5.89
6.73
7.64
8.57
9.43
10.18
10.82
11.39
11.91
12.38
12.72
12.89
12.88
12.73
12.47
12.11
11.57
10.75
9.67
8.46
7.34
6.51
6.00
5.67
5.25
4.53
3.44
2.09
0.74
-0.39
-1.19
-1.72
-2.13
-2.64
-3.38
-4.39
-5.60
-6.90
-8.15
-9.26
-10.20
-11.00
-11.75
-12.56
-13.57
-14.91
-16.65
-18.74
-20.95
-22.84
-23.90
-23.67
-21.94
-18.83
-14.79
-10.45
-6.38
-2.96
-0.32
1.62
3.03
4.07
4.90
5.61
6.29
7.01
7.80
8.65
9.50
10.28
10.87
11.25
11.39
11.33
11.18
11.05
11.08
11.32
11.74
12.20
12.48
12.40
11.91
11.08
10.11
9.18
8.41
7.79
7.20
6.53
5.69
4.70
3.63
2.56
1.54
0.56
-0.39
-1.34
-2.26
-3.18
-4.13
-5.24
-6.59
-8.24
-10.11
-12.03
-13.84
-15.42
-16.87
-18.39
-20.22
-22.44
-24.85
-27.01
-28.32
-28.29
-26.66
-23.56
-19.42
-14.85
-10.45
-6.61
-3.50
-1.08
0.80
2.33
3.66
4.84
5.90
6.86
7.75
8.63
9.55
10.51
11.44
12.18
12.60
12.62
12.31
11.85
11.47
11.31
11.40
11.62
11.81
11.82
11.61
11.22
10.75
10.29
9.87
9.48
9.02
8.38
7.47
6.27
4.89
3.51
2.31
1.38
0.64
-0.11
-1.12
-2.49
-4.20
-6.09
-7.97
-9.67
-11.12
-12.33
-13.37
-14.38
-15.55
-17.10
-19.14
-21.61
-24.16
-26.23
-27.23
-26.77
-24.79
-21.57
-17.61
-13.48
-9.62
-6.27
-3.51
-1.25
0.62
2.24
3.67
4.99
6.25
7.50
8.78
10.10
11.41
12.62
13.60
14.29
14.68
14.87
14.97
15.08
15.20
15.29
15.29
15.15
14.84
14.37
13.76
13.04
12.28
11.53
10.86
10.28
9.78
9.26
8.62
7.79
6.75
5.59
4.45
3.47
2.68
2.04
1.41
0.67
-0.27
-1.39
-2.63
-3.92
-5.22
-6.55
-7.93
-9.37
-10.88
-12.47
-14.19
-16.14
-18.44
-21.10
-23.99
-26.77
-28.93
-29.96
-29.44
-27.24
-23.60
-19.02
-14.16
-9.59
-5.70
-2.60
-0.23
1.59
3.02
4.20
5.24
6.22
7.23
8.29
9.37
10.42
11.35
12.13
12.78
13.33
13.80
14.16
14.42
14.59
14.68
14.71
14.62
14.31
13.71
12.82
11.74
10.63
9.66
8.87
8.24
7.66
6.98
6.13
5.08
3.85
2.51
1.11
-0.33
-1.82
-3.40
-5.06
-6.79
-8.51
-10.11
-11.54
-12.83
-14.08
-15.47
-17.15
-19.18
-21.41
-23.53
-25.08
-25.58
-24.68
-22.28
-18.63
-14.24
-9.67
-5.45
-1.86
1.03
3.33
5.18
6.76
8.16
9.45
10.65
11.77
12.76
13.61
14.33
14.95
15.51
16.02
16.45
16.72
16.78
16.64
16.36
16.04
15.72
15.40
15.01
14.46
13.72
12.81
11.78
10.67
9.48
8.22
6.91
5.62
4.41
3.37
2.48
1.64
0.67
-0.60
-2.26
-4.26
-6.42
-8.48
-10.20
-11.52
-12.53
-13.50
-14.70
-16.39
-18.66
-21.47
-24.55
-27.45
-29.58
-30.34
-29.27
-26.26
-21.67
-16.18
-10.64
-5.79
-2.03
0.61
2.37
3.62
4.68
5.77
6.98
8.30
9.62
10.86
11.91
12.79
13.54
14.24
14.91
15.54
16.07
16.52
16.95
17.42
17.92
18.31
18.34
17.81
16.65
15.04
13.32
11.85
10.90
10.49
10.43
10.42
10.16
9.47
8.35
6.97
5.55
4.30
3.28
2.40
1.48
0.30
-1.24
-3.08
-5.03
-6.85
-8.40
-9.65
-10.75
-11.91
-13.32
-15.11
-17.32
-19.90
-22.71
-25.48
-27.80
-29.15
-29.03
-27.16
-23.62
-18.93
-13.85
-9.11
-5.23
-2.33
-0.20
1.45
2.90
4.26
5.52
6.69
7.82
9.02
10.39
11.91
13.42
14.67
15.46
15.74
15.69
15.59
15.70
16.13
16.79
17.44
17.82
17.76
17.24
16.38
15.33
14.25
13.25
12.34
11.50
10.66
9.75
8.73
7.62
6.49
5.44
4.60
4.00
3.60
3.26
2.83
2.16
1.23
0.08
-1.21
-2.61
-4.11
-5.70
-7.38
-9.06
-10.65
-12.10
-13.44
-14.83
-16.46
-18.51
-21.02
-23.86
-26.69
-28.97
-30.17
-29.85
-27.88
-24.48
-20.15
-15.51
-11.07
-7.16
-3.88
-1.19
1.00
2.75
4.14
5.24
6.15
6.94
7.69
8.48
9.34
10.32
11.36
12.37
13.15
13.55
13.54
13.23
12.83
12.52
12.38
12.31
12.13
11.67
10.89
9.86
8.72
7.58
6.48
5.35
4.10
2.68
1.09
-0.59
-2.22
-3.67
-4.89
-5.92
-6.85
-7.82
-8.98
-10.44
-12.30
-14.56
-17.14
-19.78
-22.06
-23.49
-23.60
-22.12
-19.13
-15.01
-10.39
-5.93
-2.13
0.75
2.75
4.10
5.08
5.94
6.81
7.70
8.61
9.50
10.40
11.32
12.27
13.19
14.02
14.65
15.03
15.15
15.09
14.90
14.69
14.45
14.16
13.71
13.01
12.00
10.74
9.35
8.02
6.90
6.02
5.30
4.57
3.64
2.44
0.95
-0.73
-2.50
-4.28
-6.02
-7.70
-9.29
-10.75
-12.07
-13.32
-14.63
-16.20
-18.20
-20.68
-23.49
-26.27
-28.47
-29.55
-29.08
-26.96
-23.39
-18.87
-14.05
-9.51
-5.67
-2.66
-0.39
1.39
2.94
4.45
5.97
7.48
8.91
10.18
11.25
12.16
12.97
13.73
14.45
15.11
15.65
16.03
16.25
16.31
16.20
15.92
15.43
14.71
13.79
12.75
11.68
10.68
9.76
8.93
8.10
7.23
6.31
5.36
4.41
3.44
2.40
1.21
-0.17
-1.71
-3.30
-4.79
-6.09
-7.22
-8.25
-9.34
-10.60
-12.11
-13.94
-16.13
-18.70
-21.57
-24.40
-26.68
-27.78
-27.26
-25.02
-21.39
-17.03
-12.63
-8.68
-5.39
-2.71
-0.45
1.56
3.36
4.98
6.37
7.54
8.55
9.45
10.33
11.18
11.99
12.66
13.13
13.39
13.48
13.51
13.54
13.61
13.64
13.59
13.43
13.19
12.92
12.62
12.23
11.62
10.66
9.33
7.70
5.96
4.28
2.77
1.43
0.18
-1.08
-2.44
-3.91
-5.47
-7.03
-8.53
-9.89
-11.12
-12.28
-13.50
-14.97
-16.85
-19.21
-21.92
-24.61
-26.71
-27.66
-27.02
-24.73
-21.08
-16.64
-12.07
-7.87
-4.31
-1.41
0.96
2.99
4.80
6.49
8.10
9.69
11.28
12.82
14.25
15.46
16.37
16.98
17.34
17.57
17.77
18.02
18.34
18.69
19.00
19.19
19.19
18.94
18.42
17.66
16.69
15.64
14.59
13.66
12.86
12.17
11.52
10.83
10.08
9.27
8.43
7.59
6.71
5.74
4.66
3.49
2.29
1.15
0.13
-0.80
-1.73
-2.78
-4.08
-5.62
-7.32
-9.02
-10.55
-11.84
-12.88
-13.82
-14.88
-16.26
-18.10
-20.43
-23.09
-25.77
-28.00
-29.25
-29.07
-27.22
-23.83
-19.35
-14.51
-10.02
-6.41
-3.81
-2.07
-0.82
0.33
1.59
3.02
4.54
6.04
7.47
8.82
10.10
11.31
12.37
13.18
13.70
13.96
14.03
14.06
14.13
14.24
14.32
14.24
13.92
13.36
12.61
11.78
10.90
9.97
8.93
7.76
6.51
5.31
4.26
3.40
2.61
1.71
0.53
-0.97
-2.68
-4.43
-6.03
-7.42
-8.67
-9.92
-11.29
-12.89
-14.81
-17.07
-19.63
-22.28
-24.63
-26.19
-26.49
-25.26
-22.59
-18.85
-14.64
-10.56
-7.04
-4.27
-2.22
-0.67
0.66
2.00
3.46
5.05
6.67
8.19
9.54
10.75
11.86
12.90
13.85
14.68
15.31
15.74
15.96
16.00
15.83
15.45
14.81
13.93
12.91
11.90
11.07
10.52
10.24
10.09
9.84
9.24
8.15
6.56
4.64
2.67
0.95
-0.39
-1.34
-2.10
-2.85
-3.78
-4.95
-6.30
-7.73
-9.15
-10.53
-11.90
-13.36
-15.02
-16.98
-19.24
-21.70
-24.11
-26.12
-27.28
-27.25
-25.82
-23.10
-19.42
-15.33
-11.40
-8.05
-5.48
-3.60
-2.14
-0.76
0.84
2.82
5.14
7.65
10.10
12.26
13.97
15.17
15.89
16.23
16.32
16.26
16.12
15.94
15.75
15.58
15.43
15.29
15.11
14.80
14.29
13.52
12.51
11.30
9.97
8.61
7.31
6.11
5.03
4.09
3.27
2.54
1.84
1.11
0.23
-0.85
-2.19
-3.74
-5.35
-6.86
-8.10
-9.01
-9.71
-10.44
-11.47
-12.91
-14.62
-16.23
-17.23
-17.20
-15.95
-13.58
-10.45
-7.01
-3.69
-0.77
1.65
3.59
5.11
6.30
7.17
7.74
8.01
8.06
8.04
8.07
8.28
8.65
9.06
9.39
9.58
9.67
9.79
10.05
10.47
10.93
11.22
11.11
10.51
9.45
8.10
6.69
5.42
4.35
3.44
2.50
1.38
-0.01
-1.60
-3.25
-4.79
-6.13
-7.27
-8.28
-9.25
-10.29
-11.47
-12.89
-14.59
-16.50
-18.40
-19.89
-20.50
-19.83
-17.75
-14.47
-10.49
-6.45
-2.91
-0.18
1.77
3.22
4.48
5.75
7.03
8.13
8.89
9.27
9.38
9.45
9.60
9.82
9.94
9.84
9.52
9.16
8.93
8.92
9.05
9.08
8.78
8.07
7.05
5.91
4.83
3.91
3.13
2.43
1.72
0.97
0.13
-0.80
-1.80
-2.83
-3.85
-4.82
-5.74
-6.67
-7.69
-8.93
-10.50
-12.48
-14.82
-17.31
-19.52
-20.92
-21.03
-19.63
-16.86
-13.20
-9.31
-5.77
-2.97
-0.98
0.36
1.30
2.11
2.93
3.82
4.75
5.64
6.41
7.01
7.43
7.71
7.86
7.91
7.88
7.78
7.66
7.53
7.42
7.30
7.11
6.81
6.39
5.87
5.27
4.61
3.84
2.90
1.73
0.38
-1.02
-2.32
-3.39
-4.22
-4.94
-5.78
-6.97
-8.63
-10.77
-13.20
-15.63
-17.68
-18.95
-19.14
-18.09
-15.90
-12.91
-9.60
-6.50
-3.92
-1.94
-0.40
0.95
2.30
3.71
5.03
6.10
6.80
7.16
7.27
7.31
7.43
7.68
8.06
8.48
8.84
9.09
9.18
9.21
9.24
9.30
9.36
9.31
9.04
8.54
7.87
7.16
6.55
6.09
5.76
5.46
5.09
4.54
3.75
2.68
1.31
-0.32
-2.09
-3.86
-5.45
-6.73
-7.67
-8.37
-9.05
-9.94
-11.23
-12.94
-14.90
-16.73
-18.01
-18.33
-17.46
-15.46
-12.64
-9.49
-6.53
-4.14
-2.46
-1.39
-0.67
-0.04
0.68
1.53
2.42
3.24
3.94
4.57
5.24
6.04
6.97
7.94
8.83
9.52
9.99
10.31
10.57
10.82
10.99
10.96
10.58
9.81
8.76
7.58
6.45
5.45
4.60
3.85
3.15
2.48
1.83
1.23
0.69
0.20
-0.27
-0.76
-1.32
-2.00
-2.85
-3.87
-5.04
-6.28
-7.48
-8.53
-9.37
-9.97
-10.43
-10.92
-11.68
-12.90
-14.62
-16.61
-18.45
-19.56
-19.51
-18.11
-15.51
-12.14
-8.57
-5.31
-2.69
-0.77
0.57
1.53
2.33
3.10
3.88
4.69
5.51
6.35
7.17
7.95
8.61
9.09
9.34
9.39
9.27
9.06
8.82
8.61
8.49
8.49
8.59
8.70
8.68
8.43
7.91
7.20
6.40
5.66
4.97
4.30
3.57
2.72
1.81
0.94
0.22
-0.30
-0.68
-1.04
-1.55
-2.28
-3.23
-4.31
-5.37
-6.26
-6.90
-7.34
-7.69
-8.07
-8.59
-9.26
-10.06
-11.02
-12.21
-13.75
-15.59
-17.52
-19.07
-19.69
-18.99
-16.92
-13.78
-10.15
-6.62
-3.63
-1.37
0.20
1.24
1.91
2.38
2.76
3.10
3.47
3.91
4.49
5.20
6.00
6.77
7.36
7.66
7.67
7.51
7.36
7.40
7.65
7.99
8.19
8.08
7.56
6.72
5.74
4.80
4.01
3.38
2.86
2.37
1.88
1.38
0.90
0.46
0.04
-0.42
-0.97
-1.66
-2.48
-3.36
-4.18
-4.84
-5.32
-5.68
-6.07
-6.64
-7.54
-8.85
-10.59
-12.65
-14.82
-16.67
-17.77
-17.70
-16.33
-13.87
-10.80
-7.72
-5.06
-2.98
-1.36
0.05
1.43
2.76
3.90
4.72
5.17
5.42
5.67
6.09
6.72
7.43
8.02
8.36
8.44
8.35
8.25
8.23
8.32
8.40
8.32
7.90
7.08
5.93
4.59
3.27
2.15
1.31
0.75
0.39
0.08
-0.30
-0.83
-1.56
-2.47
-3.53
-4.66
-5.78
-6.81
-7.69
-8.43
-9.12
-9.90
-10.92
-12.30
-14.09
-16.15
-18.17
-19.76
-20.47
-20.00
-18.27
-15.46
-11.98
-8.30
-4.84
-1.89
0.41
2.07
3.14
3.75
4.04
4.20
4.39
4.72
5.21
5.76
6.30
6.72
7.01
7.22
7.45
7.74
8.13
8.60
9.08
9.50
9.77
9.84
9.65
9.17
8.37
7.32
6.12
4.88
3.75
2.76
1.89
1.01
-0.00
-1.25
-2.70
-4.22
-5.65
-6.87
-7.89
-8.88
-10.07
-11.73
-13.94
-16.61
-19.37
-21.69
-22.98
-22.82
-21.06
-17.92
-13.93
-9.75
-5.95
-2.82
-0.41
1.43
2.88
4.08
5.05
5.79
6.33
6.74
7.12
7.55
8.06
8.58
9.07
9.49
9.81
10.06
10.25
10.39
10.42
10.28
9.90
9.23
8.31
7.23
6.10
4.98
3.83
2.60
1.24
-0.22
-1.65
-2.85
-3.73
-4.36
-4.94
-5.77
-7.07
-8.94
-11.27
-13.83
-16.28
-18.24
-19.34
-19.26
-17.83
-15.11
-11.44
-7.32
-3.35
0.03
2.60
4.38
5.59
6.48
7.28
8.06
8.82
9.53
10.16
10.77
11.40
12.12
12.93
13.80
14.65
15.41
16.01
16.42
16.64
16.72
16.72
16.69
16.59
16.27
15.56
14.32
12.62
10.68
8.87
7.46
6.53
5.89
5.24
4.34
3.12
1.72
0.35
-0.80
-1.64
-2.20
-2.57
-2.89
-3.29
-3.99
-5.18
-7.00
-9.42
-12.15
-14.71
-16.55
-17.24
-16.69
-15.15
-13.14
-11.22
-9.82
-9.06
-8.79
-8.71
-8.48
-7.88
-6.84
-5.42
-3.77
-2.00
-0.22
1.51
3.15
4.68
6.07
7.34
8.49
9.55
10.52
11.41
12.17
12.75
13.06
13.05
12.67
11.92
10.86
9.57
8.16
6.73
5.37
4.16
3.13
2.29
1.60
0.95
0.20
-0.77
-1.98
-3.37
-4.75
-5.91
-6.71
-7.14
-7.39
-7.78
-8.71
-10.46
-13.06
-16.20
-19.32
-21.72
-22.80
-22.23
-20.06
-16.65
-12.51
-8.23
-4.28
-0.99
1.48
3.15
4.16
4.78
5.22
5.68
6.19
6.75
7.36
8.02
8.76
9.62
10.58
11.54
12.40
13.04
13.41
13.51
13.45
13.31
13.16
12.99
12.69
12.11
11.18
9.91
8.49
7.17
6.17
5.53
5.13
4.73
4.14
3.24
2.09
0.82
-0.44
-1.58
-2.64
-3.67
-4.75
-5.93
-7.22
-8.62
-10.16
-11.91
-13.92
-16.14
-18.33
-20.04
-20.76
-20.07
-17.89
-14.50
-10.46
-6.41
-2.83
0.04
2.24
3.97
5.40
6.66
7.77
8.66
9.30
9.70
9.96
10.24
10.67
11.29
12.04
12.79
13.44
13.96
14.41
14.86
15.28
15.54
15.42
14.83
13.82
12.63
11.55
10.80
10.40
10.17
9.82
9.14
8.03
6.59
5.02
3.51
2.22
1.17
0.22
-0.76
-1.93
-3.32
-4.89
-6.55
-8.18
-9.70
-11.08
-12.31
-13.42
-14.49
-15.67
-17.20
-19.23
-21.73
-24.34
-26.44
-27.34
-26.53
-23.93
-19.91
-15.17
-10.46
-6.37
-3.16
-0.82
0.85
2.11
3.14
4.04
4.82
5.47
6.02
6.54
7.13
7.86
8.76
9.74
10.66
11.39
11.87
12.16
12.37
12.58
12.82
12.97
12.88
12.40
11.47
10.15
8.65
7.20
5.99
5.08
4.39
3.72
2.85
1.62
0.01
-1.92
-4.00
-6.05
-7.92
-9.52
-10.89
-12.13
-13.41
-14.90
-16.74
-18.95
-21.35
-23.61
-25.22
-25.69
-24.67
-22.09
-18.22
-13.63
-8.98
-4.86
-1.58
0.85
2.66
4.13
5.48
6.80
8.06
9.24
10.30
11.29
12.27
13.26
14.26
15.19
15.96
16.50
16.78
16.85
16.77
16.62
16.44
16.20
15.85
15.33
14.59
13.61
12.44
11.08
9.57
7.95
6.30
4.72
3.34
2.24
1.45
0.92
0.47
-0.06
-0.85
-2.00
-3.50
-5.22
-6.97
-8.58
-9.95
-11.16
-12.40
-13.96
-16.03
-18.69
-21.79
-24.94
-27.60
-29.19
-29.27
-27.63
-24.44
-20.13
-15.32
-10.63
-6.51
-3.15
-0.50
1.61
3.35
4.84
6.12
7.23
8.22
9.14
10.07
11.04
12.04
13.05
14.09
15.12
16.10
16.93
17.49
17.69
17.50
16.97
16.23
15.37
14.48
13.60
12.76
11.95
11.14
10.27
9.26
8.07
6.75
5.44
4.26
3.28
2.44
1.57
0.50
-0.83
-2.42
-4.19
-6.05
-7.95
-9.84
-11.68
-13.41
-15.03
-16.60
-18.30
-20.27
-22.53
-24.90
-26.95
-28.15
-28.05
-26.44
-23.38
-19.20
-14.40
-9.50
-5.00
-1.23
1.62
3.58
4.80
5.53
6.01
6.47
7.04
7.81
8.78
9.89
11.01
11.96
12.56
12.77
12.64
12.40
12.25
12.34
12.65
13.00
13.14
12.84
12.03
10.76
9.23
7.67
6.28
5.15
4.22
3.34
2.32
1.06
-0.43
-2.04
-3.62
-5.06
-6.33
-7.45
-8.53
-9.67
-11.05
-12.83
-15.17
-18.06
-21.28
-24.33
-26.55
-27.33
-26.38
-23.78
-19.95
-15.49
-11.01
-6.97
-3.59
-0.94
1.05
2.54
3.70
4.73
5.77
6.92
8.22
9.65
11.16
12.63
13.97
15.04
15.82
16.34
16.69
17.00
17.32
17.65
17.90
18.00
17.87
17.53
17.04
16.49
15.93
15.37
14.77
14.09
13.32
12.49
11.66
10.86
10.09
9.29
8.29
6.99
5.31
3.31
1.20
-0.78
-2.37
-3.48
-4.17
-4.65
-5.21
-6.09
-7.37
-9.00
-10.80
-12.56
-14.18
-15.65
-17.04
-18.48
-20.14
-22.17
-24.66
-27.57
-30.63
-33.35
-35.04
-35.13
-33.27
-29.55
-24.51
-18.92
-13.55
-8.92
-5.22
-2.30
0.09
2.22
4.22
6.08
7.74
9.14
10.28
11.23
12.07
12.88
13.63
14.29
14.81
15.16
15.40
15.59
15.73
15.79
15.66
15.23
14.47
13.47
12.39
11.37
10.51
9.75
9.01
8.20
7.31
6.41
5.56
4.73
3.80
2.63
1.13
-0.65
-2.56
-4.42
-6.13
-7.69
-9.17
-10.64
-12.17
-13.83
-15.76
-18.15
-21.13
-24.59
-28.10
-30.88
-32.11
-31.15
-27.90
-22.80
-16.71
-10.60
-5.26
-1.10
1.88
3.96
5.54
6.94
8.36
9.81
11.24
12.54
13.68
14.67
15.55
16.37
17.12
17.79
18.37
18.88
19.37
19.92
20.53
21.15
21.64
21.84
21.59
20.77
19.39
17.56
15.50
13.44
11.54
9.81
8.16
6.45
4.65
2.83
1.16
-0.25
-1.43
-2.57
-3.93
-5.64
-7.67
-9.83
-11.89
-13.74
-15.42
-17.14
-19.17
-21.73
-24.82
-28.22
-31.43
-33.79
-34.63
-33.50
-30.34
-25.57
-19.94
-14.30
-9.36
-5.47
-2.56
-0.30
1.78
4.01
6.53
9.22
11.82
14.10
15.94
17.39
18.60
19.68
20.64
21.36
21.78
21.90
21.90
21.98
22.25
22.61
22.82
22.57
21.71
20.31
18.66
17.08
15.81
14.83
13.96
12.91
11.52
9.81
7.98
6.28
4.88
3.72
2.60
1.25
-0.50
-2.66
-5.06
-7.48
-9.68
-11.56
-13.14
-14.59
-16.18
-18.18
-20.82
-24.15
-27.93
-31.70
-34.74
-36.36
-36.02
-33.53
-29.12
-23.38
-17.11
-11.11
-5.98
-1.99
0.94
3.10
4.88
6.55
8.24
9.93
11.55
13.05
14.43
15.71
16.89
17.94
18.82
19.49
20.02
20.48
20.92
21.33
21.57
21.50
21.03
20.15
18.95
17.59
16.22
14.95
13.79
12.71
11.59
10.34
8.93
7.41
5.92
4.59
3.49
2.55
1.58
0.37
-1.25
-3.25
-5.49
-7.72
-9.77
-11.56
-13.13
-14.64
-16.30
-18.33
-20.92
-24.09
-27.69
-31.23
-34.02
-35.26
-34.36
-31.14
-25.97
-19.66
-13.19
-7.39
-2.75
0.70
3.19
5.14
6.88
8.60
10.33
12.00
13.52
14.80
15.82
16.62
17.29
17.91
18.56
19.23
19.83
20.24
20.36
20.14
19.64
18.98
18.29
17.64
17.03
16.38
15.60
14.61
13.41
12.03
10.58
9.16
7.82
6.61
5.48
4.33
3.02
1.43
-0.47
-2.61
-4.81
-6.86
-8.66
-10.19
-11.57
-12.98
-14.58
-16.51
-18.84
-21.59
-24.64
-27.68
-30.17
-31.43
-30.85
-28.16
-23.59
-17.85
-11.88
-6.56
-2.37
0.67
2.86
4.61
6.20
7.69
9.02
10.11
10.97
11.71
12.46
13.30
14.18
14.98
15.53
15.80
15.84
15.81
15.85
16.01
16.19
16.17
15.70
14.59
12.84
10.65
8.34
6.29
4.74
3.73
3.11
2.59
1.87
0.75
-0.84
-2.79
-4.88
-6.85
-8.48
-9.69
-10.59
-11.46
-12.67
-14.53
-17.12
-20.23
-23.34
-25.73
-26.68
-25.71
-22.77
-18.22
-12.78
-7.29
-2.44
1.32
3.92
5.52
6.43
7.00
7.43
7.89
8.43
9.03
9.66
10.25
10.74
11.11
11.35
11.48
11.52
11.53
11.54
11.59
11.67
11.70
11.52
10.97
9.94
8.48
6.78
5.15
3.84
2.92
2.21
1.37
0.07
-1.79
-4.04
-6.31
-8.20
-9.51
-10.34
-11.01
-11.93
-13.41
-15.60
-18.40
-21.53
-24.53
-26.82
-27.83
-27.11
-24.54
-20.34
-15.15
-9.75
-4.86
-0.95
1.87
3.80
5.17
6.27
7.29
8.27
9.20
10.08
10.92
11.78
12.71
13.67
14.59
15.35
15.90
16.25
16.48
16.63
16.71
16.61
16.25
15.56
14.61
13.55
12.51
11.52
10.56
9.48
8.20
6.71
5.11
3.55
2.16
0.93
-0.21
-1.41
-2.77
-4.31
-5.97
-7.60
-9.10
-10.41
-11.53
-12.56
-13.60
-14.79
-16.28
-18.21
-20.59
-23.23
-25.67
-27.25
-27.31
-25.51
-21.97
-17.25
-12.16
-7.50
-3.72
-0.93
1.06
2.52
3.65
4.56
5.28
5.89
6.55
7.42
8.58
9.96
11.35
12.49
13.22
13.52
13.53
13.42
13.34
13.32
13.30
13.21
12.97
12.56
11.93
11.08
9.99
8.69
7.32
6.00
4.83
3.85
2.98
2.14
1.29
0.40
-0.53
-1.50
-2.60
-3.90
-5.41
-7.05
-8.68
-10.15
-11.40
-12.54
-13.74
-15.24
-17.17
-19.55
-22.16
-24.62
-26.39
-26.97
-26.05
-23.58
-19.87
-15.43
-10.88
-6.73
-3.30
-0.66
1.28
2.72
3.88
4.92
5.95
6.97
7.94
8.80
9.52
10.14
10.76
11.42
12.11
12.73
13.18
13.38
13.36
13.25
13.15
13.14
13.15
13.07
12.78
12.22
11.46
10.63
9.86
9.21
8.69
8.22
7.72
7.13
6.41
5.61
4.77
3.90
3.03
2.11
1.13
0.07
-1.04
-2.13
-3.17
-4.17
-5.18
-6.27
-7.47
-8.73
-9.94
-11.01
-11.87
-12.60
-13.34
-14.29
-15.65
-17.49
-19.72
-22.07
-24.09
-25.24
-25.11
-23.49
-20.50
-16.57
-12.36
-8.49
-5.40
-3.25
-1.87
-0.94
-0.14
0.76
1.85
3.09
4.42
5.76
7.08
8.34
9.49
10.51
11.37
12.10
12.69
13.15
13.46
13.58
13.51
13.28
12.90
12.39
11.74
10.92
9.95
8.89
7.84
6.88
6.03
5.30
4.68
4.16
3.74
3.36
2.96
2.43
1.71
0.81
-0.19
-1.16
-1.98
-2.63
-3.19
-3.81
-4.65
-5.77
-7.11
-8.51
-9.78
-10.74
-11.35
-11.69
-11.99
-12.45
-13.27
-14.53
-16.17
-17.99
-19.68
-20.86
-21.16
-20.34
-18.37
-15.47
-12.04
-8.55
-5.43
-2.92
-1.07
0.25
1.22
2.05
2.85
3.65
4.46
5.27
6.08
6.90
7.74
8.53
9.22
9.73
10.04
10.17
10.18
10.14
10.08
9.97
9.81
9.58
9.28
8.91
8.45
7.86
7.11
6.21
5.20
4.14
3.10
2.07
1.02
-0.07
-1.16
-2.19
-3.06
-3.70
-4.16
-4.57
-5.05
-5.73
-6.60
-7.61
-8.66
-9.68
-10.68
-11.70
-12.83
-14.17
-15.78
-17.65
-19.61
-21.31
-22.27
-22.06
-20.44
-17.52
-13.77
-9.80
-6.20
-3.36
-1.36
-0.07
0.75
1.32
1.79
2.26
2.77
3.33
3.97
4.75
5.69
6.77
7.91
8.94
9.72
10.19
10.41
10.50
10.58
10.70
10.76
10.61
10.16
9.40
8.46
7.51
6.69
6.01
5.39
4.70
3.85
2.80
1.62
0.43
-0.65
-1.54
-2.22
-2.75
-3.27
-3.90
-4.73
-5.77
-6.92
-8.05
-9.02
-9.84
-10.57
-11.43
-12.62
-14.30
-16.47
-18.92
-21.25
-22.94
-23.54
-22.74
-20.56
-17.29
-13.47
-9.63
-6.24
-3.55
-1.59
-0.22
0.78
1.61
2.46
3.41
4.50
5.72
7.04
8.41
9.73
10.90
11.78
12.29
12.43
12.35
12.24
12.26
12.47
12.74
12.87
12.64
11.94
10.86
9.57
8.30
7.19
6.28
5.52
4.85
4.24
3.66
3.11
2.55
1.92
1.16
0.24
-0.82
-1.99
-3.22
-4.48
-5.74
-6.96
-8.10
-9.11
-10.00
-10.79
-11.60
-12.57
-13.85
-15.58
-17.77
-20.26
-22.69
-24.55
-25.30
-24.58
-22.38
-18.99
-14.99
-10.94
-7.29
-4.21
-1.67
0.40
2.08
3.39
4.38
5.14
5.83
6.61
7.59
8.76
9.99
11.13
12.05
12.69
13.08
13.26
13.31
13.30
13.31
13.37
13.52
13.74
13.96
14.07
14.01
13.72
13.22
12.57
11.83
11.06
10.24
9.35
8.34
7.22
6.02
4.80
3.61
2.50
1.48
0.50
-0.54
-1.71
-3.11
-4.71
-6.41
-8.04
-9.42
-10.48
-11.23
-11.81
-12.40
-13.26
-14.60
-16.58
-19.16
-22.10
-24.90
-26.95
-27.64
-26.64
-23.95
-19.99
-15.41
-10.91
-7.02
-3.95
-1.67
0.03
1.41
2.63
3.78
4.91
6.03
7.16
8.36
9.64
10.96
12.23
13.34
14.23
14.90
15.40
15.81
16.17
16.47
16.62
16.51
16.07
15.27
14.18
12.91
11.58
10.33
9.19
8.16
7.18
6.19
5.18
4.22
3.37
2.71
2.20
1.69
1.01
0.03
-1.27
-2.78
-4.31
-5.75
-7.06
-8.32
-9.67
-11.27
-13.27
-15.70
-18.50
-21.37
-23.84
-25.34
-25.33
-23.57
-20.20
-15.72
-10.82
-6.22
-2.37
0.54
2.57
3.95
4.96
5.85
6.79
7.89
9.14
10.47
11.76
12.91
13.84
14.54
15.09
15.53
15.91
16.19
16.34
16.33
16.16
15.86
15.45
14.91
14.21
13.32
12.30
11.26
10.35
9.66
9.19
8.85
8.49
8.04
7.47
6.80
6.04
5.16
4.11
2.87
1.45
-0.07
-1.61
-3.13
-4.61
-6.04
-7.38
-8.62
-9.75
-10.85
-12.08
-13.64
-15.74
-18.43
-21.56
-24.71
-27.29
-28.70
-28.50
-26.57
-23.18
-18.90
-14.40
-10.24
-6.74
-3.98
-1.84
-0.12
1.36
2.75
4.19
5.73
7.38
9.06
10.63
11.96
12.96
13.64
14.10
14.46
14.85
15.33
15.91
16.52
17.06
17.42
17.53
17.37
16.97
16.42
15.77
15.05
14.27
13.44
12.53
11.49
10.27
8.80
7.07
5.18
3.33
1.77
0.67
0.02
-0.38
-0.80
-1.53
-2.67
-4.19
-5.92
-7.64
-9.16
-10.38
-11.30
-12.04
-12.79
-13.83
-15.37
-17.56
-20.31
-23.25
-25.83
-27.39
-27.39
-25.63
-22.28
-17.89
-13.18
-8.80
-5.13
-2.27
-0.06
1.73
3.28
4.66
5.90
6.97
7.90
8.74
9.58
10.45
11.36
12.22
12.93
13.38
13.53
13.44
13.27
13.25
13.47
13.90
14.33
14.45
14.00
12.94
11.42
9.76
8.25
7.07
6.22
5.57
4.94
4.17
3.21
2.07
0.79
-0.59
-2.04
-3.55
-5.08
-6.58
-7.98
-9.31
-10.68
-12.28
-14.34
-16.91
-19.78
-22.45
-24.23
-24.51
-23.01
-19.92
-15.79
-11.36
-7.25
-3.80
-1.08
1.03
2.71
4.08
5.21
6.12
6.88
7.61
8.40
9.35
10.46
11.67
12.85
13.88
14.71
15.34
15.85
16.33
16.81
17.24
17.53
17.58
17.33
16.81
16.07
15.16
14.12
12.97
11.71
10.38
9.02
7.70
6.42
5.20
4.03
2.90
1.83
0.83
-0.08
-0.92
-1.71
-2.51
-3.41
-4.46
-5.69
-7.04
-8.40
-9.63
-10.62
-11.35
-11.88
-12.37
-13.03
-14.09
-15.69
-17.86
-20.42
-22.93
-24.78
-25.37
-24.27
-21.47
-17.40
-12.80
-8.46
-4.98
-2.59
-1.10
-0.13
0.77
1.88
3.28
4.89
6.55
8.11
9.49
10.66
11.58
12.24
12.64
12.79
12.73
12.58
12.43
12.37
12.43
12.58
12.72
12.75
12.58
12.19
11.64
11.01
10.40
9.82
9.28
8.73
8.13
7.48
6.77
5.98
5.09
4.06
2.91
1.71
0.60
-0.35
-1.16
-1.96
-2.94
-4.20
-5.73
-7.33
-8.79
-9.95
-10.83
-11.59
-12.45
-13.60
-15.14
-17.04
-19.18
-21.31
-23.05
-23.95
-23.61
-21.81
-18.69
-14.69
-10.44
-6.51
-3.26
-0.78
1.01
2.30
3.24
3.96
4.53
5.07
5.65
6.34
7.14
8.04
8.96
9.82
10.55
11.09
11.40
11.52
11.52
11.46
11.37
11.23
11.01
10.68
10.24
9.67
8.95
8.05
6.93
5.63
4.28
3.04
2.05
1.34
0.81
0.26
-0.51
-1.58
-2.89
-4.30
-5.61
-6.70
-7.53
-8.17
-8.74
-9.39
-10.26
-11.46
-13.07
-15.09
-17.41
-19.74
-21.64
-22.64
-22.37
-20.73
-17.90
-14.36
-10.68
-7.32
-4.55
-2.38
-0.67
0.80
2.23
3.68
5.15
6.57
7.85
8.94
9.83
10.57
11.22
11.82
12.34
12.76
13.01
13.13
13.17
13.24
13.42
13.65
13.74
13.48
12.71
11.43
9.85
8.26
6.91
5.94
5.33
4.98
4.78
4.63
4.47
4.22
3.86
3.36
2.77
2.15
1.52
0.84
-0.03
-1.19
-2.64
-4.31
-5.96
-7.41
-8.53
-9.39
-10.16
-11.08
-12.36
-14.10
-16.30
-18.82
-21.38
-23.59
-24.97
-25.08
-23.67
-20.80
-16.88
-12.58
-8.60
-5.42
-3.18
-1.70
-0.58
0.51
1.78
3.18
4.59
5.89
7.03
8.01
8.85
9.58
10.15
10.58
10.89
11.12
11.35
11.58
11.78
11.89
11.86
11.66
11.32
10.87
10.36
9.84
9.33
8.84
8.40
7.98
7.59
7.20
6.77
6.26
5.66
4.95
4.16
3.30
2.39
1.43
0.43
-0.62
-1.72
-2.82
-3.92
-4.99
-6.06
-7.18
-8.33
-9.48
-10.54
-11.44
-12.20
-12.94
-13.84
-15.12
-16.87
-18.95
-21.03
-22.59
-23.14
-22.36
-20.21
-16.97
-13.14
-9.28
-5.85
-3.07
-0.95
0.65
1.89
2.91
3.75
4.45
5.07
5.70
6.46
7.39
8.44
9.49
10.34
10.88
11.04
10.93
10.70
10.50
10.43
10.44
10.41
10.18
9.62
8.72
7.61
6.46
5.43
4.62
4.06
3.68
3.39
3.09
2.70
2.18
1.53
0.81
0.09
-0.57
-1.17
-1.77
-2.48
-3.37
-4.41
-5.52
-6.59
-7.55
-8.45
-9.44
-10.70
-12.40
-14.58
-17.13
-19.79
-22.12
-23.66
-24.00
-22.94
-20.56
-17.24
-13.49
-9.88
-6.79
-4.37
-2.53
-1.06
0.25
1.56
2.92
4.30
5.67
6.96
8.15
9.23
10.18
11.02
11.77
12.47
13.13
13.76
14.32
14.75
14.94
14.84
14.42
13.74
12.88
11.91
10.88
9.84
8.88
8.09
7.54
7.17
6.83
6.31
5.47
4.36
3.13
2.05
1.26
0.75
0.28
-0.45
-1.62
-3.26
-5.15
-7.02
-8.62
-9.84
-10.74
-11.47
-12.18
-13.03
-14.11
-15.49
-17.18
-19.13
-21.11
-22.73
-23.52
-23.09
-21.31
-18.36
-14.68
-10.87
-7.45
-4.74
-2.80
-1.46
-0.48
0.41
1.37
2.44
3.54
4.58
5.42
6.04
6.49
6.86
7.25
7.69
8.15
8.61
9.06
9.52
10.04
10.61
11.14
11.48
11.50
11.13
10.44
9.57
8.65
7.77
6.93
6.07
5.22
4.43
3.78
3.29
2.88
2.36
1.53
0.32
-1.22
-2.92
-4.59
-6.10
-7.42
-8.63
-9.82
-11.12
-12.68
-14.60
-16.88
-19.37
-21.66
-23.25
-23.64
-22.59
-20.17
-16.80
-13.08
-9.57
-6.65
-4.39
-2.67
-1.23
0.16
1.62
3.18
4.79
6.37
7.89
9.32
10.66
11.87
12.92
13.77
14.41
14.87
15.24
15.59
15.92
16.19
16.29
16.08
15.44
14.34
12.86
11.18
9.57
8.25
7.36
6.88
6.68
6.54
6.23
5.65
4.80
3.82
2.92
2.27
1.93
1.78
1.58
1.13
0.31
-0.81
-2.02
-3.09
-3.89
-4.40
-4.74
-5.02
-5.38
-5.91
-6.72
-7.92
-9.56
-11.54
-13.53
-14.99
-15.35
-14.19
-11.44
-7.40
-2.68
2.07
6.27
9.66
12.21
14.10
15.55
16.71
17.64
18.36
18.86
19.20
19.43
19.60
19.67
19.58
19.23
18.61
17.83
17.05
16.46
16.11
15.91
15.63
15.03
13.97
12.51
10.84
9.22
7.80
6.59
5.42
4.06
2.34
0.26
-2.10
-4.53
-6.90
-9.11
-11.15
-13.06
-14.89
-16.66
-18.48
-20.45
-22.62
-24.85
-26.75
-27.74
-27.23
-24.96
-21.16
-16.53
-12.00
-8.34
-5.91
-4.53
-3.74
-3.08
-2.32
-1.49
-0.80
-0.40
-0.24
-0.14
0.15
0.78
1.72
2.77
3.72
4.39
4.78
5.03
5.29
5.66
6.05
6.25
6.05
5.34
4.17
2.73
1.21
-0.29
-1.80
-3.37
-5.03
-6.70
-8.24
-9.51
-10.49
-11.30
-12.10
-13.08
-14.32
-15.89
-17.76
-19.88
-22.05
-23.92
-24.98
-24.71
-22.78
-19.22
-14.48
-9.29
-4.43
-0.47
2.40
4.32
5.59
6.47
7.05
7.33
7.26
6.91
6.50
6.26
6.39
6.86
7.49
8.03
8.28
8.24
8.08
8.01
8.14
8.42
8.64
8.57
8.10
7.27
6.32
5.46
4.86
4.48
4.18
3.77
3.12
2.24
1.18
0.02
-1.19
-2.45
-3.79
-5.18
-6.56
-7.88
-9.12
-10.34
-11.72
-13.49
-15.83
-18.77
-22.11
-25.44
-28.13
-29.53
-29.18
-26.90
-22.92
-17.80
-12.28
-7.06
-2.63
0.79
3.32
5.20
6.76
8.21
9.64
11.03
12.31
13.42
14.31
15.02
15.54
15.89
16.12
16.29
16.55
17.00
17.70
18.59
19.49
20.19
20.52
20.40
19.90
19.10
18.16
17.17
16.20
15.31
14.47
13.65
12.76
11.69
10.40
8.92
7.34
5.82
4.45
3.20
1.97
0.63
-0.89
-2.55
-4.30
-6.06
-7.79
-9.53
-11.32
-13.23
-15.37
-17.88
-20.83
-24.13
-27.44
-30.10
-31.39
-30.72
-27.90
-23.28
-17.57
-11.59
-6.06
-1.37
2.36
5.17
7.19
8.60
9.53
10.18
10.68
11.16
11.64
12.11
12.52
12.86
13.12
13.36
13.65
14.00
14.44
14.90
15.28
15.46
15.32
14.84
14.06
13.10
12.12
11.19
10.34
9.49
8.51
7.30
5.85
4.25
2.69
1.31
0.20
-0.70
-1.48
-2.28
-3.17
-4.14
-5.15
-6.11
-6.98
-7.74
-8.48
-9.34
-10.50
-12.15
-14.32
-16.86
-19.38
-21.32
-22.13
-21.37
-18.95
-15.11
-10.40
-5.46
-0.92
2.81
5.57
7.42
8.61
9.38
9.95
10.41
10.76
10.95
11.03
11.08
11.26
11.73
12.51
13.49
14.45
15.17
15.54
15.59
15.45
15.30
15.18
15.05
14.77
14.22
13.35
12.17
10.76
9.16
7.42
5.57
3.66
1.78
-0.02
-1.70
-3.27
-4.74
-6.04
-7.09
-7.81
-8.23
-8.53
-9.03
-10.02
-11.72
-14.07
-16.85
-19.63
-21.98
-23.51
-23.89
-22.94
-20.64
-17.17
-12.88
-8.28
-3.88
-0.09
2.85
4.89
6.16
6.83
7.13
7.26
7.42
7.81
8.51
9.56
10.79
11.94
12.63
12.59
11.73
10.23
8.51
7.05
6.19
5.99
6.23
6.55
6.58
6.13
5.23
4.00
2.57
1.02
-0.68
-2.54
-4.56
-6.65
-8.72
-10.67
-12.44
-14.01
-15.45
-16.84
-18.31
-19.99
-22.02
-24.43
-27.20
-30.13
-32.87
-35.00
-36.10
-35.87
-34.27
-31.50
-27.95
-24.12
-20.44
-17.10
-14.12
-11.42
-8.95
-6.74
-4.95
-3.68
-2.91
-2.48
-2.13
-1.65
-0.93
0.01
1.13
2.44
4.00
5.86
7.96
10.14
12.10
13.60
14.52
14.89
14.83
14.49
13.95
13.23
12.27
11.01
9.42
7.60
5.73
4.06
2.81
2.09
1.80
1.69
1.40
0.59
-0.88
-2.96
-5.37
-7.70
-9.48
-10.29
-9.87
-8.17
-5.35
-1.77
2.08
5.74
8.80
11.04
12.41
13.05
13.20
13.14
13.14
13.30
13.61
13.89
13.97
13.77
13.37
12.96
12.76
12.89
13.30
13.82
14.27
14.51
14.54
14.39
14.10
13.59
12.75
11.51
9.83
7.80
5.59
3.34
1.17
-0.90
-2.87
-4.75
-6.52
-8.09
-9.40
-10.48
-11.45
-12.50
-13.77
-15.24
-16.67
-17.67
-17.78
-16.69
-14.35
-10.99
-7.06
-3.10
0.44
3.28
5.33
6.70
7.57
8.18
8.66
9.10
9.55
10.01
10.55
11.23
12.03
12.87
13.59
14.05
14.14
13.88
13.31
12.50
11.45
10.19
8.71
7.07
5.32
3.53
1.73
-0.01
-1.59
-2.91
-3.89
-4.51
-4.87
-5.17
-5.61
-6.38
-7.58
-9.18
-11.01
-12.72
-13.83
-13.86
-12.53
-9.88
-6.31
-2.42
1.21
4.20
6.45
8.08
9.26
10.12
10.68
10.88
10.66
10.01
9.04
7.89
6.76
5.82
5.14
4.68
4.34
4.00
3.59
3.14
2.69
2.27
1.85
1.34
0.61
-0.39
-1.64
-3.10
-4.66
-6.27
-7.88
-9.49
-11.11
-12.72
-14.32
-15.90
-17.45
-19.01
-20.67
-22.46
-24.38
-26.30
-27.87
-28.63
-28.13
-26.12
-22.67
-18.24
-13.51
-9.15
-5.62
-3.02
-1.21
0.08
1.05
1.78
2.27
2.52
2.66
2.92
3.56
4.78
6.64
8.98
11.54
13.94
15.81
16.88
17.04
16.37
15.10
13.50
11.78
10.02
8.18
6.21
4.17
2.20
0.50
-0.87
-2.09
-3.45
-5.32
-7.84
-10.94
-14.27
-17.43
-20.07
-21.92
-22.77
-22.44
-20.83
-17.98
-14.18
-9.95
-5.91
-2.54
-0.10
1.48
2.48
3.18
3.78
4.36
4.87
5.26
5.49
5.57
5.52
5.39
5.25
5.16
5.20
5.43
5.86
6.48
7.15
7.74
8.10
8.15
7.88
7.32
6.48
5.30
3.73
1.79
-0.38
-2.51
-4.32
-5.63
-6.48
-7.12
-7.93
-9.25
-11.32
-14.13
-17.47
-20.86
-23.71
-25.38
-25.41
-23.65
-20.37
-16.14
-11.66
-7.50
-4.00
-1.19
1.05
2.89
4.45
5.78
6.92
7.92
8.83
9.73
10.61
11.41
12.02
12.36
12.43
12.29
12.08
11.92
11.91
12.05
12.27
12.46
12.51
12.31
11.77
10.85
9.58
8.10
6.56
5.13
3.87
2.72
1.51
0.08
-1.60
-3.46
-5.30
-6.96
-8.34
-9.52
-10.71
-12.17
-14.12
-16.65
-19.66
-22.79
-25.56
-27.36
-27.70
-26.33
-23.30
-18.96
-13.87
-8.67
-3.86
0.20
3.37
5.70
7.32
8.38
9.06
9.47
9.72
9.93
10.21
10.65
11.27
11.98
12.69
13.30
13.76
14.13
14.47
14.80
15.08
15.18
15.00
14.47
13.57
12.34
10.84
9.10
7.21
5.26
3.36
1.56
-0.20
-2.02
-4.04
-6.30
-8.72
-11.15
-13.47
-15.67
-17.86
-20.19
-22.65
-25.00
-26.69
-27.05
-25.56
-22.09
-17.02
-11.15
-5.37
-0.41
3.37
6.01
7.77
8.91
9.64
10.01
10.13
10.13
10.24
10.62
11.34
12.28
13.20
13.90
14.30
14.49
14.67
15.02
15.57
16.14
16.44
16.19
15.26
13.72
11.83
9.91
8.16
6.61
5.12
3.50
1.64
-0.39
-2.44
-4.30
-5.86
-7.13
-8.25
-9.41
-10.77
-12.46
-14.52
-16.93
-19.58
-22.21
-24.41
-25.64
-25.39
-23.34
-19.58
-14.57
-9.10
-3.96
0.27
3.41
5.63
7.24
8.52
9.59
10.39
10.91
11.20
11.49
12.03
12.93
14.13
15.38
16.40
17.05
17.37
17.46
17.48
17.44
17.28
16.84
16.01
14.72
13.03
11.11
9.22
7.62
6.46
5.74
5.25
4.63
3.57
1.90
-0.33
-2.87
-5.38
-7.59
-9.35
-10.72
-11.92
-13.26
-15.13
-17.77
-21.17
-24.95
-28.44
-30.80
-31.33
-29.70
-26.03
-20.90
-15.08
-9.34
-4.21
0.03
3.40
5.99
7.96
9.42
10.42
11.05
11.38
11.57
11.77
12.14
12.72
13.46
14.23
14.87
15.24
15.32
15.15
14.83
14.44
14.03
13.56
12.93
12.05
10.84
9.31
7.58
5.79
4.10
2.59
1.24
-0.05
-1.39
-2.85
-4.40
-5.98
-7.51
-8.99
-10.45
-12.01
-13.78
-15.86
-18.31
-21.14
-24.23
-27.31
-29.90
-31.41
-31.27
-29.17
-25.23
-19.98
-14.25
-8.83
-4.25
-0.64
2.15
4.37
6.16
7.47
8.18
8.27
7.86
7.29
6.89
6.88
7.28
7.88
8.41
8.67
8.66
8.51
8.45
8.70
9.33
10.28
11.39
12.45
13.31
13.87
14.11
13.98
13.44
12.42
10.93
9.00
6.76
4.35
1.87
-0.62
-3.16
-5.83
-8.73
-11.92
-15.34
-18.73
-21.64
-23.47
-23.66
-21.93
-18.41
-13.67
-8.51
-3.69
0.28
3.29
5.51
7.16
8.41
9.24
9.57
9.32
8.58
7.59
6.72
6.22
6.18
6.45
6.74
6.82
6.63
6.36
6.26
6.57
7.31
8.30
9.20
9.66
9.40
8.27
6.34
3.83
1.11
-1.42
-3.43
-4.80
-5.66
-6.36
-7.31
-8.84
-11.08
-13.94
-17.07
-19.92
-21.84
-22.22
-20.70
-17.34
-12.58
-7.18
-1.92
2.64
6.31
9.19
11.53
13.52
15.24
16.60
17.55
18.08
18.29
18.35
18.41
18.55
18.78
19.03
19.23
19.36
19.45
19.54
19.63
19.61
19.32
18.53
17.10
15.00
12.33
9.32
6.21
3.23
0.52
-1.83
-3.84
-5.59
-7.26
-9.09
-11.32
-14.06
-17.21
-20.39
-23.02
-24.50
-24.32
-22.34
-18.77
-14.15
-9.14
-4.36
-0.19
3.26
6.05
8.29
10.03
11.19
11.74
11.70
11.29
10.84
10.65
10.89
11.46
12.09
12.47
12.44
12.04
11.46
10.91
10.44
9.95
9.18
7.93
6.14
3.96
1.68
-0.43
-2.24
-3.80
-5.29
-6.95
-8.94
-11.35
-14.17
-17.26
-20.36
-23.01
-24.68
-24.85
-23.29
-20.14
-15.90
-11.27
-6.86
-3.01
0.22
2.95
5.24
7.06
8.27
8.77
8.63
8.09
7.50
7.16
7.23
7.67
8.35
9.12
9.86
10.51
11.02
11.32
11.27
10.74
9.66
8.06
6.08
3.94
1.82
-0.14
-1.93
-3.61
-5.35
-7.33
-9.76
-12.71
-16.11
-19.56
-22.44
-24.02
-23.69
-21.22
-16.83
-11.16
-5.05
0.72
5.62
9.46
12.32
14.39
15.91
17.00
17.70
18.00
17.92
17.57
17.11
16.74
16.56
16.58
16.67
16.64
16.37
15.83
15.11
14.33
13.54
12.70
11.68
10.34
8.55
6.33
3.74
0.98
-1.72
-4.11
-6.02
-7.43
-8.55
-9.72
-11.40
-13.93
-17.39
-21.46
-25.47
-28.57
-29.94
-29.05
-25.88
-20.87
-14.83
-8.66
-3.08
1.53
5.12
7.89
10.11
11.98
13.62
15.04
16.20
17.06
17.57
17.74
17.63
17.36
17.04
16.77
16.52
16.22
15.80
15.24
14.56
13.82
13.01
12.01
10.71
9.00
6.90
4.58
2.27
0.17
-1.62
-3.11
-4.37
-5.49
-6.51
-7.51
-8.59
-9.97
-11.88
-14.46
-17.63
-21.00
-23.91
-25.59
-25.47
-23.31
-19.39
-14.36
-9.03
-4.14
-0.09
3.03
5.43
7.37
9.08
10.60
11.88
12.83
13.42
13.77
14.06
14.50
15.21
16.13
17.10
17.92
18.47
18.75
18.83
18.78
18.54
18.01
17.06
15.62
13.81
11.85
9.98
8.38
7.07
5.94
4.87
3.78
2.66
1.58
0.58
-0.36
-1.35
-2.51
-3.92
-5.58
-7.38
-9.14
-10.75
-12.15
-13.41
-14.70
-16.23
-18.23
-20.80
-23.87
-27.12
-29.98
-31.79
-31.95
-30.15
-26.52
-21.58
-16.13
-10.97
-6.66
-3.39
-1.01
0.81
2.40
3.97
5.51
6.95
8.17
9.15
9.92
10.58
11.18
11.73
12.18
12.51
12.68
12.75
12.78
12.89
13.09
13.35
13.56
13.54
13.12
12.21
10.85
9.17
7.38
5.71
4.25
3.02
1.91
0.78
-0.48
-1.88
-3.36
-4.76
-6.00
-7.06
-8.03
-9.05
-10.31
-11.93
-13.97
-16.40
-19.10
-21.78
-24.06
-25.47
-25.55
-24.03
-20.91
-16.57
-11.60
-6.71
-2.45
0.88
3.25
4.83
5.82
6.39
6.63
6.60
6.44
6.34
6.56
7.26
8.42
9.89
11.34
12.47
13.12
13.27
13.09
12.81
12.60
12.53
12.53
12.43
12.02
11.16
9.83
8.14
6.31
4.61
3.25
2.27
1.57
0.88
-0.08
-1.47
-3.24
-5.21
-7.07
-8.65
-9.91
-10.98
-12.07
-13.34
-14.90
-16.73
-18.80
-21.06
-23.37
-25.47
-26.94
-27.28
-26.09
-23.24
-18.98
-13.91
-8.79
-4.32
-0.92
1.36
2.74
3.64
4.43
5.33
6.37
7.41
8.30
8.93
9.32
9.57
9.76
9.94
10.10
10.20
10.20
10.12
10.03
10.02
10.11
10.26
10.36
10.26
9.90
9.29
8.56
7.86
7.31
6.91
6.53
5.98
5.14
4.03
2.83
1.77
1.03
0.59
0.24
-0.35
-1.45
-3.14
-5.29
-7.64
-9.88
-11.82
-13.43
-14.79
-16.02
-17.29
-18.72
-20.43
-22.45
-24.66
-26.74
-28.13
-28.27
-26.76
-23.58
-19.16
-14.24
-9.59
-5.81
-3.11
-1.35
-0.15
0.88
2.02
3.37
4.85
6.34
7.71
8.89
9.90
10.73
11.38
11.83
12.06
12.14
12.17
12.30
12.61
13.05
13.46
13.64
13.38
12.61
11.43
10.03
8.70
7.68
7.07
6.81
6.66
6.35
5.67
4.55
3.10
1.49
-0.07
-1.45
-2.60
-3.59
-4.54
-5.60
-6.88
-8.38
-10.00
-11.56
-12.86
-13.82
-14.49
-15.08
-15.86
-17.09
-18.89
-21.14
-23.56
-25.68
-26.97
-26.96
-25.39
-22.30
-18.01
-13.14
-8.36
-4.25
-1.14
0.94
2.22
3.04
3.75
4.54
5.45
6.38
7.19
7.79
8.21
8.58
9.07
9.76
10.66
11.65
12.58
13.33
13.87
14.19
14.32
14.24
13.90
13.25
12.28
11.12
9.90
8.77
7.82
7.02
6.30
5.55
4.72
3.80
2.84
1.87
0.90
-0.08
-1.16
-2.37
-3.73
-5.21
-6.75
-8.28
-9.75
-11.13
-12.39
-13.54
-14.69
-16.03
-17.77
-20.05
-22.78
-25.60
-27.95
-29.21
-28.89
-26.85
-23.25
-18.55
-13.39
-8.37
-4.02
-0.66
1.62
2.94
3.60
3.96
4.34
4.94
5.82
6.92
8.13
9.34
10.45
11.40
12.17
12.74
13.15
13.42
13.58
13.63
13.57
13.40
13.09
12.64
12.03
11.27
10.34
9.27
8.10
6.86
5.65
4.55
3.63
2.96
2.51
2.21
1.88
1.33
0.38
-1.00
-2.75
-4.66
-6.57
-8.36
-10.03
-11.65
-13.28
-15.02
-16.94
-19.11
-21.54
-24.03
-26.18
-27.40
-27.12
-25.05
-21.32
-16.51
-11.43
-6.81
-3.11
-0.42
1.44
2.75
3.76
4.56
5.18
5.60
5.91
6.21
6.71
7.53
8.68
10.05
11.41
12.57
13.39
13.85
13.99
13.92
13.64
13.17
12.44
11.46
10.27
8.96
7.68
6.52
5.52
4.61
3.64
2.46
0.95
-0.85
-2.78
-4.61
-6.15
-7.33
-8.29
-9.27
-10.57
-12.39
-14.83
-17.78
-20.96
-23.86
-25.90
-26.52
-25.39
-22.55
-18.39
-13.53
-8.63
-4.18
-0.42
2.63
5.03
6.87
8.23
9.21
9.90
10.47
11.04
11.69
12.43
13.23
14.04
14.77
15.36
15.72
15.79
15.58
15.13
14.56
13.96
13.43
12.97
12.54
12.02
11.30
10.31
9.03
7.58
6.12
4.83
3.76
2.86
1.91
0.70
-0.87
-2.73
-4.65
-6.38
-7.79
-8.96
-10.14
-11.64
-13.65
-16.16
-18.95
-21.67
-23.89
-25.18
-25.21
-23.78
-20.90
-16.84
-12.04
-7.11
-2.62
1.05
3.79
5.74
7.18
8.40
9.54
10.62
11.55
12.22
12.64
12.90
13.19
13.64
14.28
15.03
15.70
16.19
16.47
16.61
16.70
16.80
16.82
16.61
16.03
15.01
13.64
12.13
10.69
9.50
8.56
7.81
7.10
6.34
5.47
4.51
3.52
2.50
1.45
0.32
-0.93
-2.31
-3.81
-5.36
-6.86
-8.18
-9.20
-9.84
-10.16
-10.39
-10.77
-11.50
-12.51
-13.48
-13.91
-13.38
-11.74
-9.21
-6.26
-3.44
-1.14
0.51
1.61
2.40
3.08
3.73
4.37
4.97
5.58
6.33
7.38
8.85
10.72
12.80
14.80
16.40
17.47
18.00
18.15
18.09
17.92
17.64
17.17
16.48
15.57
14.55
13.53
12.55
11.56
10.47
9.21
7.79
6.28
4.76
3.30
1.89
0.46
-1.10
-2.89
-5.00
-7.41
-10.03
-12.68
-15.13
-17.19
-18.73
-19.80
-20.53
-21.13
-21.77
-22.60
-23.70
-25.08
-26.62
-28.06
-28.97
-28.80
-27.15
-23.92
-19.38
-14.20
-9.15
-4.83
-1.52
0.86
2.62
4.07
5.40
6.66
7.78
8.72
9.44
9.97
10.31
10.53
10.64
10.68
10.68
10.65
10.63
10.63
10.66
10.68
10.66
10.51
10.15
9.53
8.67
7.66
6.63
5.67
4.82
4.06
3.31
2.49
1.57
0.55
-0.50
-1.50
-2.39
-3.17
-3.95
-4.84
-5.89
-7.07
-8.21
-9.16
-9.83
-10.34
-10.94
-11.92
-13.48
-15.61
-18.07
-20.40
-22.12
-22.78
-22.14
-20.21
-17.23
-13.62
-9.86
-6.35
-3.38
-1.02
0.77
2.14
3.26
4.26
5.21
6.11
6.97
7.81
8.64
9.49
10.34
11.12
11.79
12.31
12.69
12.99
13.24
13.41
13.45
13.28
12.87
12.22
11.43
10.59
9.77
9.01
8.31
7.65
7.01
6.37
5.72
4.99
4.11
3.09
1.98
0.91
-0.00
-0.67
-1.14
-1.56
-2.08
-2.85
-3.89
-5.11
-6.40
-7.65
-8.84
-10.02
-11.29
-12.74
-14.41
-16.26
-18.14
-19.86
-21.14
-21.65
-21.11
-19.34
-16.40
-12.57
-8.37
-4.40
-1.14
1.15
2.52
3.28
3.77
4.29
4.96
5.73
6.47
7.07
7.50
7.78
7.98
8.17
8.39
8.67
9.00
9.38
9.74
10.01
10.10
9.87
9.30
8.39
7.26
6.09
5.05
4.27
3.78
3.53
3.36
3.12
2.72
2.17
1.57
1.05
0.67
0.37
0.02
-0.54
-1.38
-2.47
-3.65
-4.79
-5.82
-6.79
-7.85
-9.12
-10.69
-12.59
-14.74
-16.96
-18.96
-20.38
-20.83
-20.01
-17.90
-14.71
-10.92
-7.12
-3.79
-1.19
0.64
1.88
2.73
3.37
3.91
4.38
4.83
5.29
5.77
6.28
6.78
7.23
7.57
7.86
8.13
8.45
8.82
9.17
9.35
9.24
8.76
7.91
6.84
5.71
4.71
3.93
3.34
2.81
2.18
1.34
0.24
-1.04
-2.39
-3.71
-4.92
-6.00
-6.98
-7.92
-8.91
-10.06
-11.51
-13.29
-15.34
-17.38
-19.02
-19.78
-19.34
-17.56
-14.63
-10.97
-7.12
-3.58
-0.67
1.51
3.04
4.14
4.99
5.73
6.40
6.98
7.45
7.79
8.07
8.36
8.71
9.11
9.45
9.63
9.64
9.54
9.54
9.76
10.22
10.75
11.10
11.04
10.49
9.52
8.33
7.10
5.92
4.82
3.77
2.76
1.83
0.98
0.20
-0.60
-1.56
-2.79
-4.29
-5.96
-7.61
-9.05
-10.17
-10.99
-11.64
-12.34
-13.33
-14.75
-16.60
-18.73
-20.81
-22.46
-23.25
-22.87
-21.19
-18.34
-14.71
-10.85
-7.33
-4.51
-2.49
-1.10
-0.02
1.02
2.16
3.33
4.41
5.27
5.93
6.47
7.04
7.75
8.61
9.54
10.39
11.05
11.47
11.69
11.83
11.99
12.20
12.40
12.45
12.22
11.61
10.70
9.62
8.58
7.72
7.09
6.60
6.04
5.24
4.09
2.61
0.92
-0.77
-2.31
-3.62
-4.70
-5.59
-6.34
-7.04
-7.84
-8.91
-10.51
-12.79
-15.72
-19.00
-22.06
-24.20
-24.87
-23.77
-21.04
-17.17
-12.80
-8.56
-4.86
-1.88
0.47
2.31
3.80
4.98
5.89
6.58
7.13
7.73
8.51
9.55
10.77
12.02
13.10
13.88
14.31
14.45
14.42
14.29
14.13
13.95
13.78
13.60
13.41
13.13
12.67
11.94
10.93
9.73
8.46
7.27
6.25
5.41
4.70
4.06
3.42
2.73
1.93
0.98
-0.14
-1.45
-2.94
-4.59
-6.36
-8.15
-9.88
-11.44
-12.81
-14.04
-15.33
-16.89
-18.91
-21.42
-24.20
-26.81
-28.69
-29.31
-28.33
-25.71
-21.75
-17.00
-12.10
-7.60
-3.82
-0.81
1.54
3.40
4.90
6.08
7.01
7.80
8.59
9.54
10.71
12.05
13.40
14.57
15.46
16.05
16.42
16.64
16.74
16.70
16.45
15.97
15.26
14.37
13.37
12.34
11.35
10.46
9.69
9.05
8.53
8.11
7.75
7.39
6.94
6.33
5.54
4.62
3.67
2.82
2.09
1.37
0.49
-0.72
-2.28
-4.07
-5.84
-7.37
-8.57
-9.60
-10.71
-12.21
-14.35
-17.16
-20.46
-23.88
-26.88
-28.91
-29.47
-28.33
-25.58
-21.66
-17.12
-12.59
-8.47
-4.97
-2.10
0.25
2.20
3.84
5.20
6.34
7.27
8.06
8.76
9.45
10.18
10.98
11.85
12.72
13.53
14.20
14.69
15.03
15.27
15.44
15.54
15.55
15.40
14.99
14.28
13.27
12.04
10.71
9.43
8.22
7.08
5.89
4.63
3.35
2.20
1.33
0.78
0.42
-0.04
-0.84
-2.12
-3.83
-5.76
-7.66
-9.38
-10.84
-12.10
-13.32
-14.70
-16.42
-18.60
-21.21
-23.98
-26.45
-28.02
-28.15
-26.55
-23.29
-18.84
-13.85
-9.04
-4.94
-1.79
0.45
2.03
3.21
4.16
4.95
5.58
6.07
6.50
7.03
7.78
8.78
9.91
11.00
11.93
12.68
13.30
13.92
14.52
14.99
15.09
14.65
13.61
12.09
10.32
8.59
7.09
5.86
4.85
3.86
2.73
1.36
-0.25
-1.97
-3.63
-5.08
-6.29
-7.31
-8.36
-9.66
-11.44
-13.82
-16.74
-19.92
-22.89
-25.04
-25.81
-24.81
-22.04
-17.86
-12.93
-8.00
-3.70
-0.38
1.94
3.50
4.69
5.85
7.15
8.55
9.90
11.00
11.76
12.26
12.67
13.18
13.85
14.59
15.22
15.60
15.68
15.53
15.32
15.20
15.19
15.16
14.89
14.13
12.76
10.84
8.64
6.53
4.84
3.74
3.12
2.69
2.08
1.00
-0.57
-2.46
-4.35
-6.02
-7.38
-8.56
-9.76
-11.21
-13.06
-15.32
-17.95
-20.78
-23.50
-25.68
-26.82
-26.51
-24.59
-21.20
-16.84
-12.18
-7.84
-4.22
-1.41
0.73
2.49
4.11
5.76
7.46
9.15
10.78
12.32
13.73
14.98
16.00
16.71
17.04
17.00
16.69
16.26
15.86
15.59
15.45
15.37
15.21
14.86
14.26
13.42
12.44
11.46
10.58
9.81
9.10
8.33
7.40
6.28
5.02
3.70
2.34
0.92
-0.63
-2.34
-4.15
-5.92
-7.52
-8.89
-10.07
-11.19
-12.42
-13.89
-15.71
-17.91
-20.43
-23.05
-25.41
-26.96
-27.16
-25.63
-22.36
-17.73
-12.44
-7.26
-2.82
0.58
2.92
4.41
5.34
5.99
6.54
7.15
7.87
8.76
9.85
11.11
12.51
13.93
15.24
16.31
17.02
17.35
17.31
17.00
16.49
15.87
15.19
14.44
13.59
12.61
11.47
10.19
8.86
7.60
6.52
5.64
4.89
4.11
3.14
1.87
0.33
-1.40
-3.19
-4.95
-6.67
-8.37
-10.13
-11.99
-14.01
-16.24
-18.79
-21.67
-24.76
-27.65
-29.78
-30.51
-29.43
-26.51
-22.17
-17.15
-12.21
-7.91
-4.43
-1.68
0.63
2.76
4.82
6.78
8.56
10.08
11.36
12.50
13.59
14.69
15.73
16.61
17.23
17.58
17.77
17.93
18.19
18.55
18.92
19.12
19.03
18.62
17.95
17.13
16.29
15.48
14.74
14.06
13.46
12.95
12.55
12.18
11.74
11.10
10.18
9.02
7.70
6.35
5.03
3.76
2.45
1.06
-0.47
-2.13
-3.88
-5.68
-7.46
-9.16
-10.72
-12.09
-13.30
-14.44
-15.71
-17.34
-19.52
-22.27
-25.37
-28.34
-30.51
-31.22
-30.08
-27.09
-22.72
-17.68
-12.75
-8.49
-5.11
-2.52
-0.46
1.35
3.12
4.96
6.87
8.83
10.80
12.69
14.43
15.93
17.13
17.98
18.50
18.73
18.75
18.64
18.49
18.33
18.16
17.97
17.70
17.32
16.79
16.07
15.16
14.11
13.02
11.97
11.04
10.22
9.46
8.73
8.03
7.38
6.82
6.31
5.74
5.00
3.99
2.75
1.41
0.13
-1.04
-2.15
-3.35
-4.76
-6.40
-8.18
-9.91
-11.46
-12.78
-13.91
-14.97
-16.12
-17.49
-19.21
-21.29
-23.62
-25.90
-27.66
-28.40
-27.75
-25.63
-22.30
-18.26
-14.09
-10.26
-7.06
-4.54
-2.60
-1.04
0.37
1.78
3.28
4.86
6.40
7.76
8.82
9.53
9.95
10.14
10.19
10.15
10.04
9.91
9.80
9.78
9.88
10.04
10.17
10.14
9.88
9.35
8.58
7.61
6.50
5.31
4.06
2.84
1.71
0.69
-0.20
-1.01
-1.83
-2.75
-3.84
-5.05
-6.33
-7.57
-8.73
-9.81
-10.94
-12.32
-14.11
-16.34
-18.84
-21.21
-22.93
-23.56
-22.81
-20.72
-17.57
-13.84
-10.04
-6.56
-3.64
-1.28
0.63
2.27
3.81
5.31
6.77
8.13
9.30
10.21
10.85
11.25
11.49
11.65
11.82
12.04
12.36
12.78
13.30
13.88
14.45
14.90
15.08
14.86
14.15
12.95
11.34
9.53
7.72
6.12
4.82
3.79
2.92
2.06
1.15
0.18
-0.80
-1.75
-2.68
-3.68
-4.83
-6.16
-7.65
-9.22
-10.80
-12.42
-14.16
-16.12
-18.28
-20.42
-22.13
-22.90
-22.33
-20.31
-17.10
-13.26
-9.45
-6.21
-3.76
-2.01
-0.66
0.62
2.04
3.63
5.26
6.75
7.97
8.82
9.34
9.58
9.64
9.60
9.51
9.46
9.54
9.82
10.33
10.97
11.57
11.92
11.91
11.55
10.93
10.19
9.41
8.57
7.62
6.54
5.40
4.30
3.36
2.55
1.76
0.82
-0.40
-1.90
-3.55
-5.16
-6.61
-7.85
-8.95
-10.02
-11.18
-12.49
-14.02
-15.78
-17.81
-20.03
-22.21
-23.97
-24.85
-24.47
-22.73
-19.85
-16.29
-12.60
-9.16
-6.15
-3.50
-1.11
1.11
3.09
4.71
5.83
6.45
6.73
6.90
7.17
7.62
8.21
8.82
9.31
9.63
9.81
9.93
10.05
10.18
10.26
10.23
9.98
9.48
8.74
7.83
6.85
5.95
5.21
4.63
4.09
3.39
2.31
0.76
-1.19
-3.26
-5.14
-6.61
-7.66
-8.49
-9.41
-10.69
-12.49
-14.81
-17.52
-20.35
-22.95
-24.88
-25.71
-25.11
-22.98
-19.58
-15.41
-11.10
-7.18
-3.95
-1.44
0.49
2.08
3.51
4.88
6.22
7.50
8.67
9.72
10.67
11.59
12.48
13.34
14.07
14.59
14.84
14.87
14.82
14.83
14.98
15.24
15.49
15.57
15.39
14.91
14.19
13.28
12.27
11.26
10.31
9.51
8.81
8.14
7.36
6.36
5.17
3.88
2.70
1.77
1.09
0.55
-0.08
-0.97
-2.20
-3.69
-5.27
-6.81
-8.21
-9.47
-10.64
-11.80
-13.01
-14.38
-16.05
-18.18
-20.85
-23.95
-27.09
-29.66
-30.98
-30.55
-28.29
-24.54
-19.98
-15.33
-11.11
-7.54
-4.58
-2.05
0.20
2.21
3.94
5.41
6.64
7.76
8.88
10.07
11.31
12.51
13.56
14.36
14.87
15.11
15.18
15.21
15.29
15.43
15.55
15.49
15.13
14.40
13.40
12.29
11.24
10.36
9.66
9.08
8.55
7.98
7.32
6.55
5.67
4.71
3.73
2.80
1.98
1.25
0.52
-0.36
-1.51
-3.00
-4.82
-6.85
-8.89
-10.76
-12.32
-13.54
-14.54
-15.53
-16.78
-18.44
-20.52
-22.75
-24.71
-25.92
-25.95
-24.63
-22.05
-18.54
-14.58
-10.63
-7.07
-4.11
-1.77
0.02
1.40
2.54
3.59
4.66
5.79
6.94
8.02
8.93
9.64
10.15
10.54
10.90
11.30
11.76
12.28
12.83
13.35
13.80
14.08
14.14
13.92
13.44
12.78
12.01
11.21
10.41
9.58
8.64
7.59
6.45
5.29
4.17
3.12
2.08
0.97
-0.32
-1.83
-3.49
-5.18
-6.74
-8.07
-9.17
-10.17
-11.27
-12.71
-14.64
-17.09
-19.84
-22.49
-24.54
-25.47
-24.97
-22.99
-19.81
-15.93
-11.87
-8.11
-4.92
-2.38
-0.45
1.02
2.21
3.26
4.27
5.31
6.42
7.60
8.83
10.05
11.22
12.28
13.16
13.84
14.28
14.53
14.67
14.77
14.89
15.02
15.12
15.09
14.82
14.22
13.28
12.08
10.81
9.62
8.63
7.81
7.05
6.16
5.06
3.80
2.55
1.56
0.96
0.71
0.61
0.35
-0.29
-1.38
-2.80
-4.33
-5.77
-7.04
-8.17
-9.29
-10.51
-11.91
-13.52
-15.37
-17.48
-19.85
-22.32
-24.54
-25.99
-26.17
-24.76
-21.80
-17.73
-13.21
-8.89
-5.24
-2.41
-0.28
1.38
2.82
4.14
5.36
6.48
7.49
8.41
9.32
10.24
11.15
11.96
12.54
12.85
12.88
12.78
12.67
12.68
12.80
12.92
12.88
12.52
11.84
10.93
9.98
9.16
8.56
8.15
7.80
7.39
6.82
6.13
5.40
4.66
3.91
3.09
2.08
0.85
-0.61
-2.22
-3.86
-5.44
-6.85
-8.08
-9.13
-10.12
-11.22
-12.60
-14.42
-16.65
-19.06
-21.20
-22.55
-22.68
-21.38
-18.77
-15.17
-11.12
-7.15
-3.69
-1.00
0.89
2.12
2.92
3.57
4.28
5.15
6.16
7.24
8.26
9.14
9.85
10.39
10.77
11.03
11.21
11.34
11.42
11.39
11.15
10.63
9.76
8.55
7.11
5.57
4.10
2.79
1.73
0.89
0.21
-0.44
-1.18
-2.15
-3.38
-4.82
-6.34
-7.79
-9.09
-10.31
-11.64
-13.30
-15.43
-17.99
-20.66
-22.95
-24.28
-24.18
-22.46
-19.27
-15.06
-10.47
-6.13
-2.46
0.40
2.55
4.23
5.65
6.92
8.08
9.08
9.89
10.55
11.14
11.75
12.41
13.05
13.55
13.74
13.56
13.07
12.50
12.09
11.99
12.12
12.22
11.97
11.24
10.12
8.89
7.87
7.15
6.58
5.88
4.81
3.36
1.76
0.38
-0.53
-0.96
-1.18
-1.59
-2.49
-3.98
-5.92
-7.98
-9.84
-11.29
-12.34
-13.12
-13.88
-14.86
-16.25
-18.08
-20.21
-22.31
-23.93
-24.56
-23.84
-21.60
-18.02
-13.58
-8.92
-4.69
-1.32
1.05
2.56
3.56
4.41
5.39
6.58
7.90
9.18
10.26
11.08
11.67
12.14
12.54
12.93
13.28
13.57
13.79
13.92
13.97
13.95
13.81
13.51
13.00
12.32
11.56
10.84
10.27
9.89
9.62
9.33
8.88
8.23
7.44
6.67
6.10
5.80
5.70
5.64
5.42
4.91
4.09
3.04
1.91
0.77
-0.34
-1.53
-2.92
-4.57
-6.47
-8.52
-10.54
-12.39
-13.96
-15.31
-16.57
-17.95
-19.62
-21.64
-23.85
-25.91
-27.35
-27.68
-26.62
-24.15
-20.56
-16.35
-12.07
-8.18
-4.94
-2.41
-0.50
0.97
2.15
3.19
4.17
5.16
6.20
7.28
8.37
9.40
10.29
10.95
11.33
11.45
11.42
11.39
11.49
11.78
12.18
12.54
12.70
12.54
12.05
11.32
10.42
9.38
8.22
6.93
5.56
4.22
3.01
2.01
1.20
0.53
-0.13
-0.85
-1.65
-2.53
-3.46
-4.42
-5.37
-6.33
-7.31
-8.34
-9.53
-11.07
-13.09
-15.67
-18.64
-21.60
-23.97
-25.15
-24.75
-22.72
-19.36
-15.24
-10.93
-6.89
-3.37
-0.44
1.92
3.78
5.20
6.24
6.99
7.56
8.07
8.60
9.19
9.84
10.49
11.06
11.49
11.75
11.83
11.77
11.65
11.53
11.50
11.57
11.70
11.77
11.63
11.15
10.30
9.17
7.96
6.86
5.97
5.24
4.55
3.74
2.75
1.66
0.56
-0.44
-1.37
-2.32
-3.39
-4.65
-6.02
-7.37
-8.55
-9.54
-10.44
-11.49
-12.92
-14.90
-17.44
-20.30
-23.06
-25.19
-26.16
-25.66
-23.62
-20.34
-16.32
-12.13
-8.29
-5.06
-2.47
-0.41
1.30
2.79
4.14
5.37
6.53
7.67
8.85
10.07
11.26
12.35
13.27
14.04
14.70
15.30
15.78
16.04
15.96
15.52
14.82
14.04
13.31
12.68
12.07
11.40
10.68
9.99
9.50
9.26
9.18
9.05
8.65
7.86
6.78
5.58
4.43
3.43
2.52
1.59
0.54
-0.65
-1.98
-3.38
-4.82
-6.26
-7.70
-9.10
-10.45
-11.75
-13.06
-14.54
-16.34
-18.54
-21.06
-23.57
-25.50
-26.25
-25.36
-22.71
-18.65
-13.84
-9.05
-4.92
-1.77
0.42
1.94
3.11
4.21
5.36
6.54
7.64
8.55
9.23
9.71
10.11
10.53
11.03
11.59
12.11
12.52
12.75
12.81
12.75
12.59
12.33
11.97
11.50
10.94
10.35
9.78
9.26
8.73
8.11
7.31
6.27
5.02
3.69
2.42
1.36
0.56
-0.02
-0.51
-1.10
-1.94
-3.03
-4.30
-5.60
-6.77
-7.75
-8.60
-9.46
-10.51
-11.92
-13.76
-16.01
-18.50
-20.93
-22.88
-23.91
-23.61
-21.83
-18.71
-14.69
-10.38
-6.40
-3.16
-0.75
0.99
2.34
3.59
4.85
6.14
7.34
8.34
9.09
9.61
9.98
10.31
10.68
11.16
11.78
12.50
13.24
13.86
14.26
14.36
14.19
13.86
13.45
13.03
12.58
12.01
11.26
10.29
9.12
7.82
6.46
5.10
3.85
2.82
2.11
1.75
1.59
1.38
0.78
-0.41
-2.18
-4.27
-6.29
-7.95
-9.15
-10.04
-10.91
-12.07
-13.74
-15.95
-18.52
-21.12
-23.27
-24.47
-24.29
-22.58
-19.49
-15.49
-11.22
-7.29
-4.08
-1.70
-0.06
1.02
1.73
2.22
2.64
3.15
3.90
4.96
6.31
7.80
9.23
10.42
11.29
11.81
12.04
12.08
12.02
11.93
11.87
11.83
11.77
11.61
11.30
10.81
10.11
9.21
8.11
6.83
5.46
4.16
3.09
2.33
1.82
1.34
0.63
-0.50
-2.03
-3.72
-5.28
-6.49
-7.33
-8.00
-8.84
-10.17
-12.20
-14.89
-18.00
-21.07
-23.54
-24.87
-24.70
-22.94
-19.80
-15.78
-11.43
-7.24
-3.53
-0.46
1.96
3.78
5.10
6.06
6.81
7.56
8.43
9.44
10.55
11.59
12.40
12.84
12.88
12.60
12.16
11.73
11.46
11.40
11.47
11.52
11.39
11.02
10.43
9.69
8.88
8.00
7.03
5.95
4.82
3.72
2.78
2.09
1.62
1.30
0.93
0.38
-0.50
-1.69
-3.16
-4.76
-6.33
-7.75
-8.95
-10.01
-11.04
-12.24
-13.76
-15.66
-17.80
-19.85
-21.37
-21.88
-21.04
-18.78
-15.33
-11.18
-6.97
-3.29
-0.51
1.29
2.32
2.94
3.46
4.06
4.74
5.43
6.07
6.69
7.37
8.17
9.06
9.93
10.65
11.12
11.35
11.37
11.27
11.07
10.80
10.48
10.14
9.85
9.60
9.38
9.13
8.79
8.30
7.62
6.72
5.61
4.31
2.95
1.64
0.48
-0.50
-1.41
-2.39
-3.60
-5.07
-6.77
-8.51
-10.09
-11.33
-12.19
-12.84
-13.55
-14.69
-16.47
-18.83
-21.35
-23.36
-24.17
-23.34
-20.85
-17.07
-12.65
-8.22
-4.27
-1.03
1.49
3.37
4.74
5.73
6.47
7.09
7.70
8.40
9.20
10.03
10.78
11.35
11.67
11.76
11.73
11.77
12.00
12.49
13.20
13.97
14.61
14.99
15.02
14.70
14.08
13.21
12.14
10.94
9.72
8.63
7.73
7.01
6.34
5.52
4.44
3.15
1.84
0.76
0.02
-0.48
-0.99
-1.82
-3.13
-4.85
-6.72
-8.43
-9.76
-10.67
-11.30
-11.92
-12.78
-14.06
-15.83
-18.01
-20.34
-22.40
-23.71
-23.83
-22.52
-19.85
-16.22
-12.21
-8.40
-5.20
-2.77
-1.00
0.34
1.49
2.62
3.77
4.94
6.07
7.16
8.18
9.12
9.98
10.71
11.28
11.71
12.05
12.36
12.72
13.11
13.49
13.73
13.72
13.39
12.77
11.92
10.97
10.04
9.23
8.56
7.96
7.35
6.59
5.58
4.34
2.97
1.63
0.47
-0.46
-1.18
-1.82
-2.48
-3.24
-4.08
-4.98
-5.93
-6.90
-7.87
-8.80
-9.67
-10.50
-11.42
-12.61
-14.27
-16.41
-18.81
-20.98
-22.36
-22.50
-21.21
-18.61
-15.09
-11.14
-7.25
-3.81
-1.07
0.91
2.23
3.06
3.65
4.19
4.77
5.42
6.12
6.86
7.66
8.55
9.45
10.25
10.82
11.15
11.31
11.43
11.65
11.95
12.21
12.22
11.85
11.09
10.05
8.91
7.82
6.90
6.17
5.59
5.10
4.62
4.09
3.45
2.69
1.84
0.92
-0.04
-1.05
-2.12
-3.25
-4.41
-5.58
-6.73
-7.89
-9.11
-10.43
-11.83
-13.28
-14.79
-16.41
-18.22
-20.18
-22.00
-23.22
-23.27
-21.84
-18.96
-15.10
-10.96
-7.17
-4.11
-1.80
-0.07
1.33
2.57
3.75
4.87
5.96
7.03
8.05
8.98
9.75
10.32
10.69
10.93
11.10
11.23
11.31
11.35
11.36
11.39
11.51
11.73
11.96
12.06
11.90
11.43
10.72
9.90
9.12
8.45
7.83
7.14
6.31
5.33
4.29
3.34
2.58
2.00
1.56
1.09
0.47
-0.38
-1.50
-2.86
-4.40
-5.97
-7.47
-8.81
-9.94
-10.91
-11.84
-12.93
-14.35
-16.24
-18.58
-21.12
-23.41
-24.90
-25.07
-23.67
-20.75
-16.78
-12.41
-8.36
-5.12
-2.90
-1.54
-0.69
0.04
0.93
2.06
3.34
4.66
5.94
7.18
8.43
9.69
10.84
11.72
12.24
12.42
12.47
12.64
13.07
13.71
14.30
14.59
14.41
13.80
12.94
12.06
11.26
10.55
9.83
9.00
8.01
6.87
5.65
4.40
3.18
1.99
0.84
-0.28
-1.40
-2.57
-3.86
-5.31
-6.90
-8.51
-10.00
-11.23
-12.15
-12.87
-13.64
-14.75
-16.43
-18.72
-21.32
-23.70
-25.20
-25.27
-23.65
-20.47
-16.21
-11.55
-7.12
-3.36
-0.43
1.77
3.46
4.87
6.17
7.39
8.51
9.44
10.12
10.50
10.61
10.50
10.29
10.10
10.01
10.08
10.24
10.44
10.57
10.59
10.49
10.33
10.12
9.85
9.46
8.86
8.00
6.91
5.69
4.46
3.32
2.34
1.50
0.73
-0.04
-0.89
-1.84
-2.89
-3.98
-5.04
-6.03
-6.98
-7.95
-9.06
-10.40
-12.03
-13.96
-16.18
-18.57
-20.91
-22.83
-23.89
-23.72
-22.16
-19.37
-15.77
-11.96
-8.42
-5.43
-3.03
-1.06
0.66
2.21
3.57
4.68
5.53
6.19
6.78
7.44
8.26
9.23
10.28
11.32
12.26
13.03
13.60
13.99
14.23
14.35
14.34
14.15
13.76
13.15
12.41
11.63
10.93
10.35
9.82
9.20
8.39
7.35
6.19
5.03
3.99
3.08
2.22
1.29
0.19
-1.07
-2.41
-3.76
-5.08
-6.41
-7.83
-9.40
-11.15
-13.07
-15.20
-17.59
-20.25
-23.09
-25.77
-27.80
-28.61
-27.80
-25.30
-21.39
-16.66
-11.82
-7.51
-4.13
-1.80
-0.34
0.62
1.49
2.54
3.85
5.27
6.58
7.62
8.43
9.17
10.02
11.02
12.06
12.95
13.52
13.73
13.70
13.59
13.48
13.37
13.16
12.72
11.99
11.00
9.85
8.66
7.55
6.59
5.78
5.07
4.35
3.52
2.46
1.14
-0.42
-2.11
-3.78
-5.29
-6.57
-7.67
-8.74
-10.01
-11.69
-13.89
-16.59
-19.64
-22.71
-25.36
-27.04
-27.27
-25.78
-22.61
-18.24
-13.38
-8.81
-5.06
-2.25
-0.17
1.58
3.35
5.27
7.25
9.08
10.60
11.74
12.57
13.22
13.81
14.39
14.95
15.47
15.95
16.39
16.81
17.16
17.38
17.37
17.10
16.56
15.79
14.84
13.77
12.63
11.49
10.40
9.41
8.53
7.70
6.85
5.92
4.89
3.82
2.80
1.85
0.96
-0.01
-1.21
-2.75
-4.63
-6.72
-8.81
-10.69
-12.27
-13.56
-14.75
-16.05
-17.66
-19.73
-22.21
-24.90
-27.41
-29.24
-29.83
-28.82
-26.14
-22.11
-17.31
-12.46
-8.09
-4.45
-1.52
0.89
3.01
4.92
6.65
8.17
9.50
10.74
12.00
13.32
14.64
15.85
16.83
17.54
17.99
18.26
18.37
18.37
18.30
18.18
18.07
17.99
17.87
17.59
17.04
16.17
15.06
13.83
12.62
11.50
10.47
9.46
8.46
7.49
6.60
5.79
5.02
4.22
3.31
2.26
1.08
-0.22
-1.63
-3.24
-5.08
-7.10
-9.17
-11.06
-12.60
-13.72
-14.58
-15.46
-16.68
-18.48
-20.92
-23.82
-26.81
-29.33
-30.79
-30.69
-28.78
-25.15
-20.29
-14.96
-9.94
-5.80
-2.76
-0.65
0.92
2.39
4.01
5.81
7.63
9.28
10.64
11.71
12.60
13.42
14.22
15.00
15.70
16.29
16.77
17.20
17.62
18.08
18.53
18.88
18.97
18.69
17.99
16.91
15.61
14.32
13.24
12.47
11.96
11.51
10.90
9.95
8.62
7.00
5.29
3.71
2.41
1.42
0.63
-0.11
-0.98
-2.06
-3.33
-4.71
-6.07
-7.31
-8.43
-9.48
-10.55
-11.73
-13.13
-14.81
-16.85
-19.24
-21.87
-24.44
-26.49
-27.47
-26.93
-24.68
-20.91
-16.15
-11.14
-6.53
-2.79
-0.03
1.87
3.19
4.18
5.00
5.72
6.40
7.11
7.97
9.05
10.32
11.65
12.89
13.89
14.60
15.08
15.47
15.87
16.27
16.58
16.65
16.34
15.60
14.50
13.19
11.84
10.60
9.52
8.58
7.69
6.76
5.77
4.80
3.94
3.26
2.73
2.24
1.61
0.72
-0.48
-1.95
-3.55
-5.13
-6.59
-7.91
-9.14
-10.40
-11.84
-13.63
-15.85
-18.45
-21.19
-23.64
-25.26
-25.53
-24.17
-21.26
-17.19
-12.59
-8.10
-4.22
-1.21
0.92
2.31
3.17
3.72
4.12
4.48
4.85
5.28
5.80
6.42
7.16
7.99
8.82
9.51
9.98
10.15
10.08
9.81
9.41
8.88
8.21
7.39
6.45
5.44
4.37
3.18
1.81
0.22
-1.52
-3.28
-4.90
-6.27
-7.43
-8.52
-9.73
-11.21
-13.03
-15.12
-17.32
-19.36
-20.86
-21.48
-20.91
-19.04
-15.97
-12.04
-7.72
-3.51
0.18
3.13
5.27
6.71
7.63
8.18
8.54
8.81
9.08
9.41
9.84
10.33
10.84
11.26
11.51
11.61
11.62
11.67
11.83
12.09
12.30
12.27
11.83
10.91
9.59
8.05
6.48
5.07
3.88
2.85
1.84
0.66
-0.77
-2.46
-4.26
-6.00
-7.53
-8.87
-10.13
-11.57
-13.44
-15.90
-18.88
-22.05
-24.82
-26.54
-26.63
-24.88
-21.48
-17.00
-12.18
-7.70
-4.00
-1.17
0.96
2.66
4.19
5.70
7.17
8.51
9.63
10.47
11.11
11.66
12.22
12.82
13.40
13.83
14.09
14.17
14.15
14.10
14.03
13.88
13.55
13.01
12.25
11.33
10.33
9.33
8.37
7.51
6.77
6.11
5.47
4.73
3.77
2.47
0.79
-1.24
-3.47
-5.70
-7.74
-9.47
-10.88
-12.08
-13.26
-14.60
-16.28
-18.37
-20.85
-23.54
-26.04
-27.84
-28.37
-27.21
-24.32
-20.02
-14.98
-9.95
-5.55
-2.06
0.53
2.45
3.97
5.31
6.63
7.99
9.43
10.93
12.47
13.95
15.23
16.15
16.62
16.70
16.55
16.45
16.59
17.00
17.52
17.86
17.74
17.02
15.76
14.19
12.60
11.24
10.25
9.64
9.30
9.04
8.65
7.97
6.95
5.68
4.34
3.09
2.02
1.09
0.18
-0.85
-2.09
-3.60
-5.33
-7.24
-9.23
-11.15
-12.85
-14.17
-15.09
-15.79
-16.55
-17.74
-19.56
-21.95
-24.52
-26.64
-27.63
-27.01
-24.64
-20.80
-16.13
-11.38
-7.24
-4.07
-1.93
-0.58
0.36
1.22
2.21
3.40
4.79
6.32
7.92
9.50
10.94
12.14
13.02
13.62
14.03
14.37
14.74
15.13
15.46
15.63
15.57
15.26
14.76
14.08
13.26
12.31
11.25
10.15
9.12
8.21
7.44
6.75
6.03
5.22
4.34
3.46
2.71
2.07
1.48
0.76
-0.26
-1.66
-3.38
-5.23
-7.00
-8.50
-9.68
-10.62
-11.49
-12.54
-14.00
-16.00
-18.52
-21.39
-24.21
-26.48
-27.63
-27.22
-25.09
-21.45
-16.85
-12.03
-7.66
-4.17
-1.66
0.03
1.20
2.14
3.03
3.95
4.90
5.91
6.99
8.16
9.35
10.48
11.43
12.11
12.50
12.67
12.77
12.92
13.21
13.63
14.04
14.24
14.06
13.46
12.51
11.37
10.20
9.12
8.15
7.25
6.36
5.45
4.51
3.54
2.55
1.54
0.48
-0.64
-1.83
-3.08
-4.37
-5.65
-6.88
-8.01
-8.97
-9.79
-10.56
-11.43
-12.60
-14.24
-16.46
-19.16
-22.04
-24.56
-26.08
-26.09
-24.36
-21.08
-16.80
-12.21
-7.95
-4.40
-1.67
0.33
1.78
2.83
3.60
4.20
4.75
5.39
6.18
7.12
8.11
9.02
9.71
10.14
10.38
10.58
10.88
11.32
11.84
12.30
12.55
12.55
12.32
11.90
11.29
10.45
9.31
7.90
6.33
4.80
3.50
2.54
1.85
1.26
0.58
-0.35
-1.57
-3.02
-4.58
-6.12
-7.56
-8.85
-10.05
-11.23
-12.52
-14.06
-15.95
-18.21
-20.73
-23.24
-25.30
-26.42
-26.18
-24.42
-21.32
-17.35
-13.14
-9.21
-5.84
-3.08
-0.79
1.19
2.93
4.47
5.80
6.98
8.09
9.20
10.36
11.49
12.50
13.28
13.79
14.08
14.21
14.29
14.38
14.49
14.58
14.60
14.49
14.21
13.76
13.17
12.48
11.72
10.95
10.20
9.44
8.60
7.59
6.34
4.91
3.44
2.10
1.00
0.09
-0.81
-1.92
-3.38
-5.19
-7.21
-9.22
-11.04
-12.56
-13.80
-14.85
-15.89
-17.13
-18.75
-20.83
-23.22
-25.51
-27.14
-27.55
-26.38
-23.66
-19.82
-15.50
-11.36
-7.86
-5.11
-2.97
-1.19
0.46
2.08
3.67
5.19
6.60
7.90
9.09
10.15
11.02
11.66
12.04
12.21
12.28
12.35
12.50
12.70
12.91
13.06
13.17
13.23
13.26
13.21
12.96
12.41
11.54
10.38
9.04
7.68
6.39
5.22
4.19
3.27
2.41
1.54
0.54
-0.71
-2.27
-4.14
-6.22
-8.33
-10.33
-12.20
-13.99
-15.90
-18.13
-20.76
-23.61
-26.27
-28.13
-28.63
-27.43
-24.57
-20.43
-15.61
-10.77
-6.43
-2.88
-0.15
1.90
3.53
4.99
6.42
7.88
9.33
10.68
11.90
12.98
13.97
14.87
15.68
16.33
16.76
16.95
16.99
17.01
17.13
17.36
17.60
17.62
17.21
16.30
15.00
13.61
12.42
11.62
11.13
10.73
10.13
9.14
7.79
6.29
4.87
3.71
2.81
2.03
1.19
0.12
-1.24
-2.87
-4.63
-6.36
-7.94
-9.28
-10.38
-11.34
-12.34
-13.57
-15.25
-17.53
-20.40
-23.61
-26.63
-28.78
-29.36
-27.97
-24.68
-20.06
-14.94
-10.14
-6.17
-3.16
-0.90
0.89
2.46
3.91
5.22
6.37
7.37
8.28
9.15
9.98
10.73
11.33
11.74
11.97
12.12
12.30
12.64
13.16
13.80
14.39
14.73
14.71
14.30
13.60
12.77
11.95
11.21
10.56
9.95
9.31
8.64
7.94
7.23
6.55
5.88
5.14
4.25
3.08
1.57
-0.29
-2.36
-4.42
-6.24
-7.70
-8.82
-9.84
-11.05
-12.74
-15.02
-17.81
-20.81
-23.61
-25.73
-26.78
-26.46
-24.68
-21.60
-17.59
-13.22
-9.05
-5.50
-2.74
-0.69
0.88
2.21
3.46
4.71
5.91
7.05
8.11
9.10
10.00
10.79
11.46
12.01
12.51
13.00
13.45
13.77
13.83
13.50
12.81
11.87
10.82
9.83
8.93
8.08
7.16
6.05
4.72
3.22
1.62
0.05
-1.47
-2.91
-4.35
-5.87
-7.54
-9.40
-11.51
-13.88
-16.47
-19.12
-21.49
-23.11
-23.49
-22.27
-19.46
-15.44
-10.84
-6.40
-2.62
0.27
2.40
4.03
5.42
6.69
7.82
8.73
9.38
9.81
10.13
10.42
10.67
10.81
10.77
10.53
10.13
9.73
9.40
9.13
8.83
8.34
7.54
6.41
5.04
3.59
2.23
1.07
0.12
-0.73
-1.65
-2.86
-4.51
-6.63
-9.05
-11.50
-13.68
-15.44
-16.86
-18.25
-20.00
-22.46
-25.75
-29.69
-33.83
-37.57
-40.29
-41.53
-41.11
-39.12
-36.00
-32.31
-28.69
-25.60
-23.28
-21.66
-20.44
-19.20
-17.54
-15.18
-11.99
-7.98
-3.23
2.18
8.15
14.56
21.18
27.69
33.66
38.74
42.71
45.55
47.42
48.52
48.97
48.79
47.94
46.40
44.27
41.76
39.13
36.55
34.08
31.64
29.15
26.57
23.99
21.58
19.48
17.71
16.13
14.45
12.43
9.99
7.24
4.50
2.10
0.26
-1.01
-1.91
-2.73
-3.76
-5.15
-6.87
-8.75
-10.56
-12.14
-13.49
-14.72
-16.04
-17.62
-19.55
-21.77
-24.08
-26.19
-27.73
-28.31
-27.60
-25.44
-21.95
-17.53
-12.78
-8.37
-4.78
-2.17
-0.38
0.98
2.31
3.83
5.49
7.07
8.30
9.04
9.37
9.52
9.77
10.27
11.01
11.85
12.61
13.18
13.55
13.76
13.81
13.70
13.39
12.87
12.20
11.45
10.70
9.94
9.13
8.19
7.09
5.87
4.63
3.42
2.29
1.17
-0.01
-1.30
-2.72
-4.22
-5.73
-7.21
-8.68
-10.17
-11.80
-13.67
-15.86
-18.39
-21.14
-23.85
-26.12
-27.48
-27.54
-26.13
-23.39
-19.75
-15.80
-12.07
-8.92
-6.45
-4.53
-2.95
-1.55
-0.29
0.75
1.44
1.72
1.60
1.18
0.64
0.18
0.10
0.73
2.49
5.71
10.43
16.30
22.58
28.35
32.89
35.89
37.50
38.12
38.07
37.34
35.72
32.92
28.97
24.27
19.57
15.61
12.88
11.46
11.11
11.41
12.04
12.77
13.47
13.98
14.11
13.61
12.33
10.31
7.77
5.04
2.48
0.28
-1.44
-2.61
-3.15
-2.89
-1.63
0.76
4.30
8.89
14.16
19.55
24.22
27.17
27.48
24.60
18.56
10.04
0.11
-10.00
-19.15
-26.49
-31.45
-33.77
-33.55
-31.25
-27.61
-23.46
-19.41
-15.70
-12.18
-8.54
-4.57
-0.38
3.56
6.61
8.25
8.28
6.90
4.70
2.35
0.42
-0.91
-1.78
-2.55
-3.57
-4.99
-6.70
-8.40
-9.84
-10.88
-11.53
-11.87
-11.94
-11.73
-11.27
-10.68
-10.25
-10.34
-11.25
-13.06
-15.59
-18.50
-21.49
-24.35
-27.11
-29.77
-32.27
-34.26
-35.23
-34.70
-32.41
-28.52
-23.58
-18.33
-13.44
-9.32
-6.03
-3.38
-1.08
1.05
3.07
4.90
6.50
7.86
9.09
10.31
11.57
12.81
13.85
14.51
14.69
14.44
13.92
13.38
12.96
12.77
12.75
12.77
12.67
12.33
11.70
10.86
9.93
9.08
8.46
8.08
7.85
7.60
7.15
6.38
5.30
4.02
2.71
1.53
0.54
-0.29
-1.10
-2.02
-3.07
-4.17
-5.18
-5.94
-6.44
-6.81
-7.25
-7.98
-9.12
-10.69
-12.61
-14.73
-16.86
-18.70
-19.86
-19.97
-18.83
-16.49
-13.31
-9.81
-6.53
-3.78
-1.63
0.04
1.42
2.66
3.86
5.04
6.20
7.30
8.28
9.07
9.58
9.82
9.84
9.77
9.77
9.92
10.24
10.64
10.95
11.02
10.74
10.09
9.20
8.23
7.37
6.74
6.32
6.01
5.70
5.28
4.76
4.12
3.37
2.50
1.48
0.36
-0.78
-1.77
-2.51
-3.03
-3.49
-4.17
-5.29
-6.90
-8.85
-10.83
-12.50
-13.65
-14.32
-14.70
-15.15
-15.95
-17.25
-18.96
-20.72
-22.09
-22.59
-21.90
-19.96
-17.03
-13.55
-10.05
-6.96
-4.51
-2.71
-1.45
-0.56
0.10
0.63
1.10
1.63
2.28
3.07
3.93
4.76
5.42
5.84
6.05
6.15
6.28
6.52
6.92
7.38
7.73
7.82
7.57
7.01
6.32
5.75
5.49
5.60
5.93
6.22
6.18
5.65
4.66
3.37
2.03
0.85
-0.05
-0.70
-1.20
-1.73
-2.43
-3.38
-4.56
-5.85
-7.13
-8.27
-9.26
-10.24
-11.39
-12.91
-14.84
-16.98
-18.93
-20.22
-20.46
-19.52
-17.52
-14.76
-11.56
-8.24
-5.03
-2.14
0.27
2.08
3.32
4.13
4.72
5.28
5.87
6.41
6.79
6.97
7.00
7.01
7.11
7.35
7.65
7.96
8.23
8.45
8.67
8.88
9.01
8.99
8.75
8.29
7.65
6.91
6.12
5.33
4.56
3.86
3.25
2.77
2.39
2.01
1.49
0.67
-0.51
-2.00
-3.65
-5.21
-6.52
-7.47
-8.15
-8.71
-9.34
-10.22
-11.47
-13.13
-15.12
-17.22
-19.06
-20.20
-20.21
-18.85
-16.15
-12.43
-8.21
-4.05
-0.44
2.33
4.14
5.05
5.24
4.99
4.59
4.28
4.23
4.52
5.21
6.25
7.53
8.83
9.89
10.48
10.53
10.18
9.72
9.45
9.45
9.59
9.56
9.11
8.20
7.03
5.91
5.09
4.58
4.19
3.62
2.65
1.27
-0.33
-1.87
-3.12
-4.02
-4.70
-5.40
-6.36
-7.71
-9.45
-11.49
-13.62
-15.61
-17.18
-18.02
-17.85
-16.54
-14.14
-10.97
-7.49
-4.21
-1.48
0.52
1.85
2.70
3.31
3.87
4.49
5.18
5.91
6.69
7.49
8.34
9.19
9.95
10.46
10.62
10.41
9.95
9.47
9.18
9.17
9.36
9.53
9.47
9.08
8.40
7.58
6.79
6.10
5.51
4.93
4.28
3.46
2.43
1.18
-0.25
-1.77
-3.23
-4.50
-5.50
-6.22
-6.81
-7.47
-8.44
-9.91
-11.96
-14.49
-17.18
-19.56
-21.08
-21.29
-19.96
-17.24
-13.56
-9.55
-5.80
-2.68
-0.30
1.43
2.70
3.64
4.33
4.81
5.13
5.41
5.75
6.26
6.90
7.60
8.26
8.81
9.28
9.72
10.21
10.73
11.22
11.53
11.54
11.16
10.36
9.23
7.95
6.72
5.70
4.97
4.41
3.86
3.13
2.14
0.92
-0.35
-1.47
-2.31
-2.85
-3.27
-3.79
-4.71
-6.22
-8.36
-11.00
-13.85
-16.49
-18.46
-19.36
-18.93
-17.11
-14.11
-10.38
-6.46
-2.91
-0.11
1.85
3.13
4.05
4.92
5.89
6.93
7.90
8.67
9.18
9.54
9.90
10.41
11.09
11.84
12.47
12.82
12.84
12.64
12.39
12.27
12.35
12.52
12.58
12.31
11.63
10.62
9.50
8.55
7.96
7.74
7.74
7.68
7.30
6.50
5.35
4.06
2.86
1.90
1.16
0.48
-0.33
-1.39
-2.69
-4.13
-5.56
-6.88
-8.07
-9.19
-10.36
-11.65
-13.17
-14.97
-17.06
-19.34
-21.55
-23.26
-24.02
-23.45
-21.45
-18.26
-14.39
-10.45
-6.99
-4.26
-2.25
-0.67
0.79
2.39
4.17
6.03
7.77
9.22
10.33
11.14
11.72
12.14
12.40
12.50
12.44
12.29
12.15
12.12
12.25
12.50
12.78
12.98
12.98
12.75
12.25
11.56
10.74
9.96
9.34
8.97
8.85
8.88
8.94
8.87
8.57
7.98
7.07
5.85
4.39
2.81
1.33
0.13
-0.62
-0.91
-0.91
-0.95
-1.37
-2.39
-3.98
-5.87
-7.71
-9.19
-10.22
-10.90
-11.48
-12.19
-13.19
-14.54
-16.20
-18.00
-19.71
-20.96
-21.33
-20.53
-18.50
-15.46
-11.89
-8.35
-5.27
-2.86
-1.14
0.07
0.97
1.76
2.58
3.54
4.62
5.74
6.76
7.57
8.14
8.55
8.94
9.42
10.03
10.69
11.29
11.73
11.97
12.02
11.92
11.68
11.31
10.79
10.10
9.27
8.35
7.45
6.67
6.11
5.80
5.65
5.49
5.13
4.50
3.66
2.79
2.13
1.80
1.74
1.72
1.47
0.76
-0.42
-1.86
-3.24
-4.26
-4.76
-4.83
-4.71
-4.69
-4.96
-5.67
-6.88
-8.68
-11.10
-14.02
-17.03
-19.47
-20.60
-19.96
-17.56
-13.98
-10.11
-6.77
-4.40
-2.95
-2.02
-1.17
-0.12
1.14
2.42
3.51
4.29
4.78
5.11
5.44
5.84
6.31
6.76
7.12
7.35
7.49
7.58
7.66
7.67
7.51
7.11
6.43
5.53
4.57
3.71
3.10
2.79
2.71
2.71
2.59
2.25
1.65
0.87
0.08
-0.53
-0.87
-0.97
-0.97
-1.06
-1.38
-1.96
-2.75
-3.61
-4.41
-5.10
-5.69
-6.24
-6.81
-7.48
-8.29
-9.30
-10.56
-12.11
-13.88
-15.70
-17.25
-18.15
-18.11
-16.98
-14.89
-12.17
-9.26
-6.54
-4.26
-2.46
-1.08
0.01
0.91
1.69
2.38
3.00
3.58
4.17
4.79
5.42
6.02
6.49
6.80
6.95
7.02
7.14
7.37
7.73
8.17
8.58
8.87
8.98
8.85
8.50
7.96
7.32
6.67
6.08
5.56
5.06
4.48
3.73
2.83
1.88
1.04
0.39
-0.04
-0.38
-0.83
-1.53
-2.55
-3.80
-5.12
-6.33
-7.34
-8.17
-8.94
-9.81
-10.88
-12.18
-13.67
-15.23
-16.68
-17.76
-18.19
-17.73
-16.25
-13.85
-10.85
-7.68
-4.81
-2.50
-0.85
0.30
1.14
1.90
2.65
3.41
4.11
4.70
5.18
5.63
6.16
6.82
7.59
8.36
8.95
9.28
9.34
9.24
9.14
9.14
9.25
9.35
9.29
8.92
8.20
7.19
6.03
4.88
3.89
3.14
2.65
2.35
2.12
1.87
1.53
1.11
0.63
0.10
-0.54
-1.40
-2.57
-4.06
-5.71
-7.29
-8.55
-9.40
-9.93
-10.39
-11.03
-12.07
-13.54
-15.38
-17.41
-19.39
-21.01
-21.92
-21.78
-20.40
-17.84
-14.41
-10.63
-7.05
-4.08
-1.85
-0.29
0.85
1.80
2.75
3.77
4.84
5.90
6.87
7.68
8.32
8.79
9.14
9.45
9.73
9.99
10.21
10.40
10.55
10.69
10.81
10.90
10.91
10.79
10.51
10.07
9.52
8.91
8.30
7.69
7.05
6.31
5.43
4.41
3.33
2.31
1.44
0.79
0.30
-0.11
-0.58
-1.23
-2.09
-3.15
-4.34
-5.56
-6.70
-7.74
-8.72
-9.70
-10.78
-12.03
-13.49
-15.19
-17.12
-19.17
-21.14
-22.67
-23.35
-22.86
-21.11
-18.28
-14.81
-11.19
-7.83
-4.95
-2.55
-0.53
1.25
2.85
4.32
5.60
6.61
7.33
7.77
8.05
8.31
8.70
9.27
9.93
10.52
10.86
10.88
10.63
10.27
10.00
9.88
9.87
9.83
9.57
8.98
8.08
6.98
5.83
4.76
3.83
3.01
2.22
1.41
0.51
-0.49
-1.62
-2.87
-4.25
-5.69
-7.14
-8.53
-9.89
-11.30
-12.90
-14.82
-17.09
-19.56
-21.92
-23.71
-24.42
-23.72
-21.52
-18.08
-13.90
-9.64
-5.84
-2.81
-0.53
1.22
2.71
4.13
5.54
6.87
8.07
9.17
10.23
11.33
12.47
13.57
14.49
15.10
15.38
15.41
15.37
15.40
15.61
15.94
16.26
16.36
16.04
15.26
14.10
12.77
11.53
10.59
9.99
9.65
9.37
8.98
8.34
7.43
6.31
5.12
3.97
2.97
2.17
1.52
0.87
0.06
-1.07
-2.56
-4.34
-6.26
-8.15
-9.87
-11.36
-12.65
-13.85
-15.18
-16.82
-18.92
-21.47
-24.21
-26.70
-28.37
-28.72
-27.48
-24.68
-20.68
-16.08
-11.54
-7.58
-4.50
-2.26
-0.63
0.70
1.99
3.36
4.79
6.21
7.55
8.79
9.92
10.94
11.81
12.51
13.06
13.53
13.97
14.45
14.94
15.41
15.75
15.86
15.69
15.19
14.41
13.45
12.43
11.44
10.53
9.66
8.76
7.78
6.75
5.75
4.86
4.08
3.31
2.37
1.12
-0.48
-2.35
-4.23
-5.94
-7.36
-8.51
-9.60
-10.84
-12.47
-14.60
-17.23
-20.21
-23.22
-25.77
-27.29
-27.28
-25.50
-22.11
-17.64
-12.86
-8.50
-5.04
-2.51
-0.69
0.82
2.34
3.97
5.65
7.24
8.62
9.81
10.89
12.00
13.19
14.46
15.69
16.75
17.57
18.17
18.61
18.96
19.22
19.26
18.97
18.25
17.12
15.77
14.45
13.37
12.65
12.21
11.85
11.33
10.48
9.25
7.74
6.12
4.60
3.30
2.22
1.22
0.12
-1.26
-3.02
-5.08
-7.27
-9.35
-11.11
-12.49
-13.62
-14.76
-16.21
-18.20
-20.80
-23.86
-27.01
-29.73
-31.45
-31.74
-30.38
-27.49
-23.50
-19.04
-14.71
-10.94
-7.82
-5.19
-2.75
-0.23
2.43
5.14
7.70
9.93
11.76
13.24
14.47
15.55
16.53
17.41
18.18
18.85
19.42
19.91
20.32
20.63
20.84
20.89
20.76
20.40
19.77
18.93
17.96
16.98
16.09
15.29
14.55
13.78
12.93
11.99
11.04
10.11
9.24
8.40
7.53
6.56
5.45
4.22
2.89
1.53
0.19
-1.15
-2.55
-4.12
-5.94
-8.00
-10.18
-12.27
-14.04
-15.44
-16.57
-17.74
-19.29
-21.49
-24.36
-27.63
-30.77
-33.11
-34.03
-33.12
-30.37
-26.11
-21.00
-15.80
-11.16
-7.47
-4.75
-2.79
-1.22
0.30
1.96
3.81
5.78
7.76
9.62
11.26
12.60
13.58
14.19
14.51
14.70
14.95
15.42
16.12
16.92
17.55
17.78
17.51
16.82
15.88
14.90
13.98
13.13
12.34
11.55
10.78
10.00
9.19
8.25
7.12
5.78
4.30
2.77
1.27
-0.19
-1.68
-3.24
-4.90
-6.63
-8.37
-10.10
-11.87
-13.78
-16.03
-18.77
-22.00
-25.51
-28.77
-31.08
-31.74
-30.35
-26.91
-21.92
-16.16
-10.52
-5.67
-1.91
0.81
2.80
4.43
5.99
7.61
9.29
10.92
12.40
13.66
14.69
15.51
16.16
16.67
17.08
17.43
17.79
18.18
18.60
18.96
19.17
19.15
18.85
18.28
17.49
16.55
15.53
14.55
13.65
12.88
12.18
11.43
10.48
9.23
7.68
5.99
4.38
3.03
2.00
1.14
0.17
-1.15
-2.97
-5.21
-7.69
-10.15
-12.37
-14.28
-15.92
-17.46
-19.11
-21.12
-23.63
-26.63
-29.81
-32.61
-34.30
-34.25
-32.13
-28.07
-22.62
-16.59
-10.78
-5.79
-1.86
1.05
3.19
4.91
6.51
8.15
9.91
11.73
13.46
14.99
16.23
17.18
17.92
18.53
19.07
19.56
19.98
20.30
20.51
20.61
20.57
20.35
19.86
19.06
17.95
16.63
15.29
14.11
13.19
12.51
11.94
11.29
10.43
9.36
8.15
6.96
5.88
4.93
4.03
3.04
1.88
0.52
-0.96
-2.53
-4.16
-5.89
-7.77
-9.78
-11.83
-13.74
-15.36
-16.60
-17.54
-18.44
-19.66
-21.51
-24.13
-27.27
-30.39
-32.69
-33.38
-32.02
-28.63
-23.76
-18.21
-12.80
-8.11
-4.35
-1.46
0.77
2.55
4.06
5.41
6.68
7.95
9.24
10.54
11.81
12.99
14.05
14.98
15.77
16.39
16.81
16.99
16.95
16.74
16.45
16.10
15.69
15.16
14.47
13.61
12.66
11.73
10.91
10.19
9.48
8.68
7.69
6.50
5.20
3.88
2.64
1.44
0.22
-1.13
-2.71
-4.52
-6.50
-8.53
-10.47
-12.25
-13.86
-15.42
-17.16
-19.33
-22.12
-25.47
-29.02
-32.08
-33.84
-33.61
-31.14
-26.69
-21.01
-15.05
-9.64
-5.26
-1.97
0.47
2.43
4.20
5.92
7.59
9.16
10.60
11.90
13.07
14.12
15.03
15.79
16.37
16.79
17.10
17.40
17.76
18.21
18.70
19.09
19.22
18.95
18.25
17.21
15.98
14.79
13.80
13.09
12.64
12.30
11.93
11.40
10.64
9.66
8.52
7.30
6.04
4.77
3.46
2.04
0.41
-1.48
-3.64
-6.01
