1651140688.00
64.000000
-0.00
-0.00
-0.00
-0.00
-0.00
-0.00
-0.00
-0.00
-0.00
-0.00
0.00
0.01
0.01
-0.00
-0.03
-0.05
-0.05
0.00
0.13
0.36
0.66
1.01
1.37
1.72
2.06
2.40
2.79
3.24
3.80
4.42
5.06
5.66
6.20
6.68
7.15
7.68
8.31
9.14
10.09
11.04
11.88
12.56
13.14
13.76
14.65
15.96
17.91
20.32
22.90
25.38
27.58
29.57
31.68
34.32
37.81
42.54
48.15
54.10
59.83
64.97
69.58
74.14
79.34
85.71
93.76
103.00
112.62
121.73
129.77
136.75
143.30
150.75
157.77
166.64
177.95
191.79
206.97
220.57
228.25
225.36
208.53
176.87
132.76
80.05
23.07
-34.94
-92.44
-149.16
-205.23
-260.37
-313.74
-363.87
-409.83
-450.91
-486.50
-515.74
-537.23
-549.22
-549.96
-538.37
-514.21
-478.67
-433.88
-382.45
-327.02
-269.84
-212.63
-156.66
-102.95
-52.37
-5.90
35.58
71.43
101.35
125.50
144.38
158.69
169.15
176.37
180.75
182.57
182.07
179.51
175.23
169.65
163.18
156.15
148.81
141.30
133.69
126.02
118.33
110.69
103.16
95.80
88.68
81.83
75.25
68.95
62.95
57.25
51.86
46.78
42.03
37.59
33.45
29.61
26.07
22.81
19.83
17.11
14.67
12.48
10.54
8.83
7.35
6.07
4.97
4.05
3.27
2.62
2.09
1.65
1.30
1.01
0.79
0.61
0.48
0.37
0.29
0.24
0.20
0.18
0.17
0.18
0.19
0.21
0.24
0.27
0.31
0.35
0.39
0.43
0.48
0.53
0.57
0.62
0.68
0.74
0.80
0.87
0.94
1.02
1.11
1.21
1.32
1.44
1.60
1.77
1.97
2.17
2.36
2.54
2.70
2.87
3.08
3.36
3.72
4.15
4.62
5.10
5.57
6.03
6.52
7.07
7.71
8.44
9.25
10.07
10.84
11.53
12.16
12.81
13.57
14.54
15.73
17.05
18.33
19.34
19.92
20.00
19.60
18.83
17.81
16.47
14.63
11.97
8.20
3.20
-2.82
-9.33
-15.65
-21.16
-25.56
-28.95
-31.76
-34.55
-37.66
-41.04
-44.25
-46.66
-47.82
-47.66
-46.60
-45.34
-44.65
-45.08
-46.98
-50.39
-55.01
-59.87
-63.25
-63.01
-57.38
-45.80
-29.62
-11.74
4.42
16.21
22.70
24.71
23.91
21.89
19.29
16.01
11.75
6.82
2.30
-0.24
0.57
5.25
13.28
23.25
33.33
41.91
48.05
51.48
52.41
51.24
48.24
43.54
37.29
29.81
21.76
14.13
7.83
3.49
1.22
0.70
1.37
2.71
4.47
6.16
7.72
9.26
10.83
12.47
14.11
15.66
16.99
17.97
18.57
18.88
19.06
19.26
19.53
19.84
20.02
19.82
19.05
17.62
15.64
13.38
11.09
9.02
7.27
5.79
4.45
3.05
1.50
-0.25
-2.19
-4.29
-6.58
-9.17
-12.17
-15.65
-19.56
-23.72
-27.91
-31.89
-35.56
-38.94
-42.14
-45.33
-48.66
-52.19
-55.88
-59.62
-63.23
-66.62
-69.81
-73.06
-76.77
-81.34
-86.98
-93.52
-100.35
-106.43
-110.48
-111.24
-107.66
-99.15
-85.78
-68.22
-47.74
-25.97
-4.57
14.99
31.68
44.91
54.54
60.78
64.09
65.08
64.44
62.91
61.10
59.52
58.37
57.65
57.12
56.50
55.64
54.56
53.46
52.59
52.08
51.83
51.50
50.66
49.02
46.53
43.46
40.22
37.28
34.96
33.31
32.15
31.09
29.67
27.55
24.58
20.85
16.64
12.29
7.99
3.72
-0.80
-6.00
-12.18
-19.42
-27.42
-35.62
-43.42
-50.44
-56.68
-62.49
-68.48
-75.32
-83.48
-92.97
-103.17
-112.65
-119.32
-120.90
-115.58
-102.72
-83.27
-59.60
-34.73
-11.48
8.39
24.33
36.78
46.54
54.25
60.18
64.38
66.96
68.26
68.87
69.38
70.14
71.13
72.08
72.69
72.81
72.61
72.42
72.59
73.22
74.11
74.92
75.25
74.95
74.08
72.98
71.97
71.28
70.90
70.58
69.93
68.57
66.24
62.88
58.60
53.70
48.49
43.22
37.92
32.50
26.79
20.70
14.34
8.01
2.09
-3.14
-7.62
-11.53
-15.23
-18.97
-22.87
-26.83
-30.68
-34.43
-38.35
-42.97
-48.88
-56.40
-65.31
-74.80
-83.61
-90.35
-93.80
-93.23
-88.45
-79.80
-68.03
-54.18
-39.38
-24.70
-10.95
1.38
12.06
21.04
28.25
33.57
36.88
38.22
37.93
36.56
34.74
32.96
31.51
30.41
29.65
29.23
29.21
29.67
30.54
31.58
32.38
32.51
31.66
29.74
26.91
23.51
19.91
16.37
12.99
9.70
6.31
2.72
-1.07
-4.89
-8.53
-11.82
-14.74
-17.40
-20.04
-22.86
-25.92
-29.17
-32.42
-35.49
-38.31
-41.00
-43.89
-47.40
-51.97
-57.75
-64.53
-71.50
-77.36
-80.49
-79.34
-72.91
-61.07
-44.73
-25.63
-5.91
12.44
28.08
40.45
49.71
56.37
60.97
63.90
65.34
65.43
64.43
62.70
60.63
58.51
56.39
54.15
51.62
48.78
45.79
42.95
40.52
38.51
36.73
34.84
32.53
29.68
26.35
22.75
19.11
15.59
12.26
9.15
6.28
3.66
1.20
-1.21
-3.73
-6.42
-9.26
-12.13
-14.85
-17.28
-19.41
-21.32
-23.14
-25.00
-26.99
-29.12
-31.35
-33.60
-35.82
-38.00
-40.11
-42.20
-44.31
-46.54
-49.02
-51.89
-55.25
-59.04
-63.00
-66.63
-69.23
-70.04
-68.38
-63.79
-56.15
-45.74
-33.23
-19.52
-5.66
7.42
19.07
28.90
36.78
42.68
46.60
48.60
48.87
47.80
45.93
43.84
41.94
40.36
38.97
37.53
35.90
34.09
32.29
30.67
29.24
27.87
26.32
24.41
22.14
19.71
17.33
15.16
13.20
11.34
9.44
7.40
5.24
3.06
1.00
-0.83
-2.35
-3.59
-4.69
-5.83
-7.21
-8.93
-10.95
-13.12
-15.25
-17.28
-19.25
-21.27
-23.47
-25.85
-28.35
-30.86
-33.27
-35.56
-37.73
-39.87
-42.15
-44.76
-47.94
-51.76
-56.00
-60.05
-62.98
-63.68
-61.32
-55.49
-46.46
-35.06
-22.41
-9.68
2.25
12.79
21.70
28.93
34.51
38.45
40.84
41.78
41.57
40.55
39.11
37.54
35.98
34.45
32.92
31.40
29.95
28.68
27.70
27.01
26.51
26.00
25.20
23.92
22.03
19.59
16.76
13.80
10.93
8.30
5.96
3.85
1.89
-0.02
-1.92
-3.86
-5.84
-7.87
-9.96
-12.07
-14.13
-16.10
-17.98
-19.85
-21.83
-24.05
-26.57
-29.30
-32.05
-34.64
-37.01
-39.34
-41.97
-45.27
-49.35
-53.93
-58.29
-61.45
-62.39
-60.32
-54.91
-46.34
-35.29
-22.76
-9.90
2.33
13.23
22.46
30.01
36.00
40.53
43.68
45.48
45.99
45.40
44.01
42.17
40.20
38.29
36.52
34.87
33.29
31.78
30.35
28.98
27.65
26.29
24.83
23.25
21.58
19.91
18.32
16.85
15.43
13.96
12.37
10.64
8.89
7.21
5.65
4.17
2.59
0.78
-1.27
-3.42
-5.44
-7.15
-8.52
-9.68
-10.89
-12.43
-14.45
-16.96
-19.79
-22.71
-25.48
-27.88
-29.88
-31.57
-33.20
-35.13
-37.67
-41.00
-45.01
-49.29
-53.16
-55.79
-56.36
-54.21
-49.06
-41.06
-30.85
-19.39
-7.77
3.05
12.36
19.87
25.55
29.54
32.03
33.24
33.46
32.97
32.09
31.07
30.02
28.98
27.92
26.87
25.85
24.93
24.09
23.31
22.53
21.72
20.91
20.11
19.30
18.38
17.17
15.54
13.46
11.05
8.53
6.11
3.97
2.13
0.52
-0.94
-2.34
-3.70
-5.00
-6.19
-7.26
-8.26
-9.28
-10.40
-11.70
-13.17
-14.79
-16.53
-18.34
-20.24
-22.20
-24.18
-26.13
-28.04
-29.90
-31.78
-33.81
-36.15
-38.95
-42.30
-46.14
-50.14
-53.69
-55.93
-55.98
-53.17
-47.30
-38.70
-28.16
-16.72
-5.38
5.08
14.19
21.72
27.70
32.25
35.57
37.88
39.31
39.95
39.86
39.12
37.89
36.43
35.00
33.83
33.01
32.54
32.30
32.12
31.84
31.27
30.30
28.85
26.94
24.69
22.28
19.93
17.77
15.80
13.94
12.10
10.20
8.29
6.48
4.83
3.30
1.82
0.27
-1.40
-3.15
-4.91
-6.63
-8.35
-10.16
-12.19
-14.42
-16.78
-19.09
-21.19
-23.03
-24.67
-26.26
-27.94
-29.80
-31.89
-34.26
-37.00
-40.23
-43.95
-47.87
-51.38
-53.61
-53.65
-50.88
-45.17
-36.90
-26.83
-15.90
-5.00
5.14
14.01
21.35
27.07
31.26
34.06
35.64
36.16
35.79
34.74
33.27
31.68
30.18
28.89
27.76
26.72
25.68
24.65
23.68
22.80
21.97
21.08
20.02
18.71
17.16
15.44
13.67
11.92
10.24
8.61
7.01
5.40
3.72
1.92
-0.03
-2.14
-4.36
-6.58
-8.71
-10.70
-12.57
-14.36
-16.13
-17.89
-19.67
-21.50
-23.45
-25.60
-27.99
-30.55
-33.16
-35.63
-37.89
-40.06
-42.44
-45.47
-49.54
-54.76
-60.75
-66.61
-71.00
-72.42
-69.63
-62.03
-49.85
-34.17
-16.63
1.01
17.23
31.01
41.91
49.89
55.19
58.15
59.19
58.78
57.44
55.69
54.00
52.68
51.87
51.47
51.22
50.82
49.99
48.61
46.76
44.64
42.49
40.39
38.26
35.90
33.09
29.81
26.21
22.59
19.27
16.47
14.27
12.60
11.30
10.16
8.98
7.60
5.95
4.09
2.17
0.29
-1.53
-3.39
-5.41
-7.64
-10.01
-12.38
-14.67
-16.94
-19.39
-22.13
-25.12
-28.06
-30.57
-32.41
-33.67
-34.82
-36.48
-39.09
-42.63
-46.56
-49.96
-51.81
-51.33
-48.11
-42.25
-34.28
-25.02
-15.46
-6.53
1.02
6.80
10.78
13.26
14.68
15.58
16.37
17.32
18.52
19.91
21.28
22.36
22.95
22.94
22.39
21.60
20.87
20.53
20.64
21.11
21.69
22.04
21.89
21.10
19.64
17.69
15.51
13.39
11.57
10.15
9.07
8.10
7.03
5.68
4.08
2.35
0.68
-0.83
-2.24
-3.71
-5.44
-7.51
-9.90
-12.49
-15.10
-17.58
-19.84
-21.83
-23.66
-25.55
-27.79
-30.62
-34.03
-37.57
-40.43
-41.57
-40.18
-35.92
-29.09
-20.54
-11.36
-2.54
5.24
11.63
16.55
20.06
22.29
23.40
23.62
23.17
22.31
21.26
20.18
19.17
18.19
17.22
16.21
15.19
14.28
13.68
13.53
13.83
14.40
14.86
14.79
13.89
12.09
9.59
6.76
3.95
1.43
-0.74
-2.60
-4.26
-5.87
-7.57
-9.46
-11.60
-13.95
-16.47
-19.07
-21.74
-24.55
-27.69
-31.31
-35.42
-39.72
-43.51
-45.85
-45.83
-42.85
-36.91
-28.67
-19.27
-10.06
-2.16
3.84
8.01
10.94
13.39
15.96
18.79
21.57
23.71
24.76
24.57
23.42
21.79
20.10
18.53
17.02
15.44
13.71
11.98
10.47
9.35
8.61
8.05
7.35
6.23
4.54
2.26
-0.49
-3.51
-6.57
-9.48
-12.07
-14.29
-16.21
-17.98
-19.82
-21.95
-24.53
-27.68
-31.45
-35.83
-40.65
-45.51
-49.65
-52.12
-51.96
-48.57
-41.90
-32.60
-21.76
-10.63
-0.26
8.71
16.10
22.00
26.66
30.27
32.90
34.56
35.24
34.98
33.99
32.53
30.91
29.37
27.99
26.71
25.42
24.02
22.52
21.00
19.55
18.18
16.73
14.96
12.68
9.78
6.35
2.61
-1.18
-4.84
-8.25
-11.39
-14.30
-17.06
-19.80
-22.77
-26.22
-30.40
-35.29
-40.50
-45.20
-48.33
-48.90
-46.35
-40.78
-32.85
-23.54
-13.77
-4.20
4.90
13.42
21.21
28.01
33.44
37.14
38.97
39.10
37.99
36.30
34.67
33.51
32.97
32.88
32.88
32.59
31.72
30.20
28.13
25.63
22.80
19.67
16.27
12.71
9.22
6.10
3.58
1.70
0.24
-1.18
-3.00
-5.60
-9.15
-13.52
-18.38
-23.27
-27.77
-31.71
-35.26
-38.87
-43.04
-48.05
-53.66
-59.13
-63.33
-65.10
-63.60
-58.57
-50.41
-40.02
-28.63
-17.37
-7.13
1.64
8.89
14.78
19.57
23.46
26.61
29.08
30.96
32.34
33.28
33.77
33.80
33.40
32.68
31.88
31.31
31.21
31.63
32.39
33.07
33.19
32.37
30.45
27.53
23.85
19.69
15.15
10.17
4.61
-1.58
-8.21
-14.89
-21.08
-26.40
-30.77
-34.46
-38.02
-41.92
-46.36
-51.02
-55.15
-57.70
-57.66
-54.36
-47.71
-38.20
-26.80
-14.71
-3.10
7.20
15.73
22.46
27.59
31.51
34.58
37.13
39.37
41.41
43.20
44.56
45.25
45.03
43.82
41.74
39.08
36.15
33.20
30.31
27.47
24.62
21.76
18.90
16.01
12.96
9.48
5.37
0.58
-4.64
-9.83
-14.46
-18.22
-21.18
-23.74
-26.56
-30.20
-35.00
-40.92
-47.56
-54.25
-60.08
-64.04
-65.11
-62.43
-55.61
-44.86
-31.10
-15.69
-0.17
14.21
26.69
37.00
45.20
51.44
55.85
58.48
59.45
59.03
57.62
55.67
53.52
51.36
49.24
47.19
45.23
43.43
41.83
40.41
39.08
37.67
36.07
34.16
32.00
29.64
27.19
24.71
22.29
19.93
17.67
15.52
13.50
11.60
9.81
8.07
6.36
4.65
2.96
1.38
-0.05
-1.29
-2.45
-3.68
-5.14
-6.90
-8.89
-10.91
-12.77
-14.35
-15.71
-17.02
-18.50
-20.32
-22.52
-25.02
-27.62
-30.16
-32.51
-34.62
-36.57
-38.50
-40.65
-43.29
-46.60
-50.57
-54.87
-58.84
-61.51
-61.96
-59.47
-53.84
-45.44
-35.06
-23.75
-12.44
-1.87
7.54
15.57
22.14
27.19
30.72
32.75
33.44
33.10
32.13
30.95
29.84
28.94
28.20
27.51
26.74
25.91
25.10
24.52
24.28
24.44
24.88
25.31
25.46
25.07
24.05
22.47
20.52
18.42
16.39
14.53
12.87
11.35
9.84
8.22
6.39
4.31
2.01
-0.40
-2.75
-4.83
-6.47
-7.61
-8.29
-8.73
-9.24
-10.17
-11.77
-14.16
-17.25
-20.78
-24.42
-27.89
-31.00
-33.73
-36.19
-38.64
-41.41
-44.82
-49.00
-53.69
-58.22
-61.56
-62.62
-60.59
-55.16
-46.64
-35.80
-23.68
-11.29
0.49
11.00
19.87
26.90
32.15
35.83
38.23
39.67
40.47
40.80
40.79
40.48
39.84
38.89
37.70
36.41
35.22
34.30
33.73
33.39
33.07
32.54
31.61
30.30
28.75
27.15
25.67
24.33
23.01
21.54
19.80
17.79
15.57
13.31
11.11
8.99
6.94
4.90
2.82
0.62
-1.76
-4.46
-7.55
-11.04
-14.79
-18.54
-21.99
-24.86
-27.05
-28.63
-29.82
-30.96
-32.39
-34.41
-37.16
-40.56
-44.18
-47.33
-49.10
-48.70
-45.64
-39.97
-32.30
-23.59
-14.87
-6.97
-0.45
4.51
7.92
9.92
10.72
10.63
9.97
9.08
8.19
7.44
6.86
6.38
5.97
5.57
5.11
4.49
3.55
2.11
0.11
-2.37
-5.12
-7.86
-10.38
-12.63
-14.70
-16.74
-18.86
-21.05
-23.21
-25.26
-27.24
-29.37
-32.04
-35.61
-40.21
-45.63
-51.28
-56.37
-60.19
-62.47
-63.61
-64.71
-67.13
-72.07
-79.92
-89.92
-100.10
-107.71
-109.95
-104.79
-91.61
-71.42
-46.46
-19.46
7.23
32.19
54.94
75.51
93.74
108.88
119.72
125.13
124.79
119.61
111.66
103.79
99.17
100.87
111.27
131.14
158.68
189.00
214.79
228.42
224.50
201.98
164.40
118.34
70.86
27.25
-9.81
-39.69
-62.64
-78.97
-89.09
-94.02
-95.85
-97.34
-100.98
-107.87
-117.16
-126.22
-131.75
-130.94
-122.63
-107.66
-88.59
-68.57
-50.35
-35.37
-23.62
-14.09
-5.57
2.72
10.98
19.02
26.80
34.53
42.59
51.10
59.57
66.89
71.78
73.41
71.83
68.01
63.42
59.47
57.04
56.33
56.99
58.44
60.06
61.46
62.43
62.88
62.82
62.18
60.74
58.30
54.71
50.16
45.21
40.70
37.39
35.60
34.99
34.72
33.87
31.89
28.82
25.14
21.46
18.04
14.72
10.99
6.43
1.01
-4.67
-9.53
-12.34
-12.15
-8.73
-2.69
4.55
11.06
14.89
14.75
10.39
2.80
-6.11
-14.24
-20.17
-23.83
-26.56
-30.56
-37.81
-49.13
-63.77
-79.59
-93.88
-104.19
-108.86
-107.26
-99.68
-87.32
-72.18
-56.70
-43.19
-32.89
-25.33
-18.38
-9.28
3.88
21.01
39.86
57.16
70.22
78.24
82.46
85.15
88.09
91.44
93.61
92.10
84.89
71.40
52.76
31.32
9.63
-10.26
-27.11
-40.32
-49.45
-53.97
-53.33
-47.38
-36.92
-23.86
-11.00
-1.24
3.31
2.04
-3.97
-12.39
-20.49
-26.12
-28.30
-27.44
-24.90
-22.26
-20.66
-20.38
-20.93
-21.47
-21.39
-20.56
-19.31
-18.11
-17.09
-15.89
-13.90
-10.61
-6.04
-0.84
3.90
7.15
8.30
7.36
4.81
1.28
-2.73
-6.96
-11.31
-15.66
-19.74
-23.15
-25.51
-26.65
-26.64
-25.65
-23.81
-21.03
-17.12
-11.98
-5.88
0.42
5.72
8.84
8.97
6.05
0.79
-5.51
-11.48
-16.06
-18.78
-19.79
-19.60
-18.86
-18.24
-18.34
-19.49
-21.47
-23.27
-23.09
-18.95
-9.73
3.93
19.17
31.77
37.65
34.46
22.36
3.60
-18.70
-41.73
-63.25
-81.17
-92.98
-95.98
-88.56
-71.64
-49.20
-27.14
-10.85
-2.93
-2.36
-5.67
-9.18
-11.02
-11.55
-12.46
-15.03
-19.12
-23.36
-26.08
-26.40
-24.48
-21.21
-17.39
-13.47
-9.54
-5.70
-2.27
0.23
1.36
1.03
-0.44
-2.28
-3.64
-3.79
-2.45
0.09
3.09
5.63
6.97
6.90
5.76
4.14
2.44
0.59
-1.94
-5.63
-10.53
-16.05
-21.26
-25.32
-27.96
-29.42
-30.13
-30.17
-29.10
-26.34
-21.56
-15.15
-8.07
-1.47
3.93
8.04
11.32
14.24
17.02
19.49
21.39
22.58
23.14
23.14
22.38
20.33
16.50
11.02
4.91
-0.11
-2.38
-1.15
3.00
8.34
12.70
14.51
13.47
10.56
7.66
6.60
8.66
14.09
22.15
31.34
39.79
45.63
47.31
44.05
36.06
24.60
11.86
0.47
-7.15
-9.52
-6.57
0.34
8.82
16.33
20.87
21.61
18.93
14.07
8.66
4.19
1.70
1.65
3.81
7.23
10.47
11.90
10.22
5.00
-3.10
-12.53
-21.43
-28.25
-32.15
-32.90
-30.64
-25.54
-17.92
-8.46
1.48
9.98
15.16
15.80
11.95
4.78
-3.91
-12.40
-19.53
-24.77
-27.92
-28.93
-27.72
-24.47
-19.71
-14.33
-9.26
-5.15
-2.07
0.34
2.50
4.64
6.58
8.01
8.77
9.04
9.28
9.82
10.55
10.77
9.42
5.58
-0.95
-9.51
-18.71
-27.02
-33.26
-36.88
-37.84
-36.35
-32.66
-27.12
-20.31
-13.17
-6.78
-1.86
1.57
4.19
6.94
10.30
13.90
16.66
17.47
16.00
12.98
9.85
8.05
8.24
10.13
12.81
15.44
17.50
18.89
19.65
19.68
18.89
17.29
15.21
13.21
11.82
11.18
11.03
10.80
9.98
8.32
5.85
2.73
-0.84
-4.61
-8.25
-11.40
-13.81
-15.53
-16.97
-18.73
-21.21
-24.34
-27.50
-29.75
-30.23
-28.56
-25.05
-20.50
-15.93
-12.11
-9.44
-7.89
-7.18
-6.97
-6.99
-7.00
-6.83
-6.32
-5.33
-3.79
-1.71
0.77
3.47
6.17
8.60
10.55
11.79
12.22
11.81
10.65
8.78
6.23
3.04
-0.65
-4.48
-7.82
-9.95
-10.34
-8.92
-6.21
-3.17
-0.86
0.01
-0.70
-2.61
-4.97
-7.04
-8.35
-8.76
-8.33
-7.30
-5.92
-4.35
-2.66
-0.80
1.37
3.99
7.13
10.71
14.43
17.87
20.66
22.53
23.38
23.22
22.14
20.25
17.73
14.84
11.92
9.27
7.18
5.77
5.01
4.75
4.76
4.84
4.75
4.25
3.08
1.08
-1.73
-5.09
-8.52
-11.56
-13.93
-15.67
-17.05
-18.36
-19.67
-20.77
-21.22
-20.62
-18.85
-16.11
-12.88
-9.69
-6.87
-4.42
-2.11
0.37
3.08
5.73
7.77
8.69
8.33
7.15
6.07
6.10
7.82
11.03
14.85
18.06
19.60
19.00
16.43
12.54
8.14
3.90
0.30
-2.40
-4.03
-4.43
-3.55
-1.56
1.05
3.54
5.12
5.29
3.98
1.55
-1.49
-4.71
-7.95
-11.15
-14.14
-16.46
-17.45
-16.58
-13.87
-9.90
-5.72
-2.34
-0.23
0.78
1.34
2.13
3.52
5.45
7.56
9.56
11.38
13.20
15.22
17.35
19.13
19.84
18.82
15.86
11.32
6.06
1.15
-2.56
-4.61
-5.08
-4.41
-3.16
-1.85
-0.86
-0.35
-0.41
-1.04
-2.14
-3.51
-4.90
-6.05
-6.77
-7.10
-7.23
-7.44
-7.96
-8.77
-9.67
-10.31
-10.42
-9.90
-8.95
-7.93
-7.23
-6.99
-6.95
-6.50
-4.85
-1.43
3.73
9.81
15.40
18.98
19.56
17.11
12.56
7.43
3.20
0.74
0.15
0.89
2.13
3.18
3.67
3.56
3.05
2.38
1.75
1.25
0.87
0.55
0.20
-0.26
-0.70
-0.92
-0.68
0.15
1.42
2.72
3.52
3.35
1.94
-0.70
-4.25
-8.26
-12.18
-15.51
-17.82
-18.82
-18.39
-16.65
-13.86
-10.41
-6.67
-2.97
0.44
3.39
5.80
7.73
9.34
10.86
12.41
14.01
15.52
16.68
17.24
17.06
16.15
14.60
12.55
10.12
7.45
4.70
2.17
0.26
-0.63
-0.30
1.18
3.34
5.39
6.56
6.32
4.64
1.95
-1.05
-3.63
-5.31
-5.94
-5.65
-4.76
-3.66
-2.78
-2.49
-3.01
-4.31
-5.95
-7.20
-7.36
-6.09
-3.81
-1.57
-0.58
-1.54
-4.18
-7.20
-8.86
-7.80
-3.72
2.40
8.80
13.68
15.87
15.18
12.21
7.88
3.03
-1.71
-5.88
-9.04
-10.72
-10.61
-8.71
-5.55
-2.00
0.92
2.52
2.61
1.51
-0.15
-1.77
-3.02
-3.87
-4.45
-4.91
-5.24
-5.40
-5.32
-5.07
-4.87
-5.02
-5.82
-7.38
-9.62
-12.23
-14.82
-16.92
-18.15
-18.22
-16.95
-14.30
-10.42
-5.58
-0.24
5.06
9.73
13.30
15.55
16.50
16.42
15.68
14.68
13.70
12.91
12.31
11.86
11.37
10.69
9.61
8.08
6.18
4.22
2.63
1.78
1.84
2.64
3.76
4.69
5.03
4.60
3.45
1.71
-0.46
-2.88
-5.38
-7.68
-9.45
-10.40
-10.53
-10.10
-9.63
-9.61
-10.37
-11.77
-13.36
-14.55
-14.81
-13.87
-11.74
-8.56
-4.56
0.04
4.93
9.64
13.64
16.43
17.75
17.66
16.60
15.10
13.66
12.50
11.60
10.70
9.62
8.30
6.87
5.54
4.55
4.05
4.09
4.64
5.57
6.71
7.86
8.81
9.38
9.44
8.98
8.04
6.73
5.18
3.60
2.16
1.07
0.41
0.09
-0.17
-0.77
-2.07
-4.22
-7.00
-9.94
-12.39
-13.80
-13.89
-12.72
-10.62
-8.03
-5.39
-3.05
-1.26
-0.20
0.02
-0.57
-1.77
-3.17
-4.30
-4.79
-4.59
-3.99
-3.54
-3.75
-4.82
-6.50
-8.26
-9.50
-9.87
-9.37
-8.35
-7.22
-6.29
-5.63
-5.25
-5.12
-5.25
-5.65
-6.24
-6.82
-7.22
-7.39
-7.49
-7.71
-8.12
-8.52
-8.52
-7.73
-6.02
-3.59
-0.78
2.14
5.11
8.24
11.55
14.79
17.43
18.92
18.97
17.81
16.03
14.34
13.21
12.73
12.63
12.52
12.12
11.33
10.28
9.10
7.91
6.75
5.61
4.55
3.66
2.97
2.41
1.85
1.08
-0.01
-1.36
-2.80
-4.09
-5.07
-5.85
-6.71
-8.04
-10.19
-13.14
-16.50
-19.50
-21.29
-21.23
-19.20
-15.63
-11.30
-7.00
-3.16
0.24
3.47
6.88
10.48
13.96
16.83
18.59
19.12
18.64
17.78
17.17
17.27
18.02
18.92
19.17
18.13
15.59
11.98
8.18
5.16
3.54
3.35
4.06
4.91
5.27
4.92
3.99
2.85
1.73
0.62
-0.71
-2.46
-4.70
-7.25
-9.78
-12.03
-13.91
-15.45
-16.80
-17.95
-18.90
-19.57
-20.04
-20.51
-21.22
-22.22
-23.23
-23.69
-22.90
-20.40
-16.11
-10.49
-4.20
2.03
7.71
12.59
16.59
19.63
21.59
22.39
22.08
20.98
19.57
18.31
17.51
17.17
17.14
17.20
17.15
16.92
16.46
15.76
14.78
13.50
11.97
10.33
8.73
7.31
6.15
5.17
4.25
3.18
1.83
0.17
-1.61
-3.26
-4.55
-5.35
-5.72
-5.82
-5.79
-5.75
-5.75
-5.91
-6.45
-7.65
-9.69
-12.54
-15.87
-19.13
-21.73
-23.31
-23.73
-23.12
-21.75
-19.87
-17.64
-15.13
-12.33
-9.25
-5.90
-2.32
1.45
5.33
9.25
13.00
16.26
18.68
19.97
20.10
19.37
18.26
17.28
16.66
16.31
15.93
15.25
14.25
13.19
12.44
12.24
12.58
13.17
13.66
13.78
13.46
12.76
11.78
10.52
8.91
6.88
4.51
2.05
-0.08
-1.39
-1.57
-0.59
1.22
3.20
4.60
4.82
3.59
1.07
-2.17
-5.46
-8.17
-9.97
-10.93
-11.46
-12.16
-13.57
-16.00
-19.30
-22.99
-26.25
-28.28
-28.45
-26.56
-22.81
-17.75
-12.07
-6.43
-1.34
2.93
6.24
8.63
10.18
11.09
11.59
11.89
12.17
12.48
12.79
13.01
13.01
12.71
12.09
11.21
10.22
9.25
8.46
7.88
7.50
7.21
6.89
6.45
5.91
5.35
4.91
4.62
4.39
4.05
3.40
2.36
0.95
-0.69
-2.40
-4.05
-5.57
-6.89
-7.96
-8.68
-9.04
-9.14
-9.15
-9.32
-9.81
-10.63
-11.63
-12.57
-13.24
-13.60
-13.81
-14.13
-14.79
-15.85
-17.10
-18.12
-18.41
-17.58
-15.45
-12.05
-7.66
-2.58
2.83
8.17
13.02
16.88
19.35
20.21
19.61
17.96
15.92
14.10
12.92
12.47
12.60
13.01
13.42
13.66
13.69
13.54
13.23
12.78
12.13
11.31
10.39
9.53
8.90
8.65
8.77
9.09
9.27
8.99
8.03
6.38
4.30
2.15
0.34
-0.86
-1.33
-1.15
-0.58
0.01
0.15
-0.56
-2.34
-5.09
-8.33
-11.40
-13.67
-14.80
-14.95
-14.69
-14.75
-15.73
-17.80
-20.71
-23.88
-26.57
-28.13
-28.06
-26.09
-22.27
-16.98
-10.87
-4.76
0.63
4.93
8.19
10.77
13.04
15.14
16.92
18.07
18.43
18.15
17.63
17.34
17.46
17.82
17.97
17.50
16.26
14.41
12.38
10.65
9.49
8.89
8.67
8.61
8.59
8.62
8.76
8.95
9.02
8.65
7.61
5.85
3.63
1.45
-0.16
-0.84
-0.54
0.50
1.81
2.94
3.53
3.42
2.58
1.12
-0.78
-2.94
-5.18
-7.30
-9.09
-10.38
-11.03
-11.04
-10.57
-9.99
-9.77
-10.38
-12.08
-14.77
-17.95
-20.90
-22.83
-23.23
-21.96
-19.21
-15.43
-11.08
-6.57
-2.21
1.76
5.07
7.51
9.02
9.74
10.02
10.25
10.73
11.51
12.37
13.00
13.14
12.68
11.75
10.61
9.60
8.99
8.88
9.18
9.65
9.97
9.90
9.33
8.36
7.23
6.16
5.30
4.64
4.10
3.56
2.91
2.04
0.93
-0.39
-1.78
-2.99
-3.69
-3.71
-3.09
-2.25
-1.78
-2.27
-3.99
-6.83
-10.24
-13.51
-16.00
-17.30
-17.26
-16.06
-14.03
-11.70
-9.65
-8.51
-8.74
-10.54
-13.65
-17.36
-20.63
-22.43
-22.02
-19.22
-14.38
-8.33
-2.05
3.55
7.80
10.38
11.39
11.25
10.63
10.21
10.52
11.65
13.33
14.97
16.00
16.04
15.05
13.28
11.16
9.12
7.53
6.69
6.73
7.60
9.05
10.62
11.86
12.43
12.24
11.45
10.31
8.99
7.55
5.94
4.09
2.10
0.21
-1.27
-2.07
-2.09
-1.45
-0.43
0.61
1.28
1.31
0.52
-1.10
-3.43
-6.18
-8.94
-11.29
-12.92
-13.76
-13.97
-13.94
-14.08
-14.71
-15.96
-17.73
-19.75
-21.61
-22.85
-23.05
-21.84
-19.09
-14.89
-9.62
-3.86
1.78
6.76
10.72
13.50
15.08
15.61
15.33
14.60
13.82
13.34
13.35
13.83
14.57
15.30
15.79
15.94
15.75
15.35
14.82
14.23
13.55
12.71
11.69
10.48
9.22
8.05
7.12
6.45
5.91
5.28
4.30
2.84
1.01
-0.90
-2.48
-3.43
-3.68
-3.45
-3.09
-3.05
-3.58
-4.75
-6.39
-8.22
-9.97
-11.51
-12.78
-13.90
-15.05
-16.47
-18.32
-20.60
-23.04
-25.10
-26.12
-25.60
-23.37
-19.73
-15.29
-10.70
-6.41
-2.56
0.93
4.14
6.97
9.19
10.57
11.04
10.71
9.78
8.41
6.63
4.39
1.79
-0.87
-3.12
-4.51
-4.79
-3.98
-2.38
-0.41
1.55
3.14
4.02
3.96
2.85
0.83
-1.67
-4.06
-5.74
-6.33
-5.82
-4.46
-2.71
-1.00
0.39
1.27
1.57
1.22
0.17
-1.55
-3.83
-6.38
-8.81
-10.74
-11.92
-12.21
-11.62
-10.24
-8.15
-5.46
-2.35
0.92
4.06
6.82
9.10
10.96
12.51
13.86
14.96
15.70
15.90
15.56
14.83
13.96
13.20
12.66
12.22
11.61
10.65
9.30
7.86
6.72
6.20
6.35
6.87
7.30
7.22
6.51
5.33
4.02
2.87
2.00
1.26
0.38
-0.91
-2.76
-5.13
-7.89
-10.78
-13.58
-16.06
-18.10
-19.71
-21.02
-22.20
-23.39
-24.58
-25.60
-26.13
-25.79
-24.24
-21.31
-17.08
-11.87
-6.21
-0.71
4.08
7.86
10.59
12.53
14.04
15.42
16.78
18.01
18.89
19.23
19.03
18.43
17.63
16.79
15.92
14.92
13.61
11.92
9.99
8.12
6.71
6.08
6.34
7.31
8.61
9.77
10.46
10.54
10.03
9.08
7.73
5.91
3.49
0.41
-3.12
-6.57
-9.21
-10.41
-9.96
-8.21
-5.96
-4.25
-3.88
-5.25
-8.30
-12.71
-18.00
-23.59
-28.72
-32.43
-33.68
-31.75
-26.64
-19.24
-11.09
-3.79
1.61
4.96
6.90
8.30
9.81
11.52
13.10
14.18
14.60
14.62
14.66
15.07
15.77
16.34
16.20
14.96
12.74
10.11
7.83
6.56
6.52
7.49
8.90
10.06
10.41
9.64
7.77
5.03
1.82
-1.40
-4.23
-6.43
-7.90
-8.71
-8.95
-8.77
-8.33
-7.88
-7.80
-8.46
-10.18
-12.97
-16.56
-20.38
-23.77
-26.16
-27.09
-26.35
-23.93
-20.07
-15.15
-9.74
-4.43
0.28
4.13
7.07
9.28
11.03
12.64
14.31
16.22
18.36
20.58
22.55
23.86
24.15
23.26
21.29
18.57
15.60
12.84
10.71
9.34
8.76
8.77
9.09
9.42
9.53
9.26
8.65
7.76
6.69
5.44
3.91
2.00
-0.30
-2.81
-5.12
-6.79
-7.43
-6.96
-5.60
-3.92
-2.63
-2.28
-3.13
-5.07
-7.64
-10.28
-12.52
-14.08
-14.96
-15.36
-15.56
-15.85
-16.47
-17.49
-18.78
-19.99
-20.53
-19.77
-17.28
-13.03
-7.49
-1.44
4.30
9.13
12.82
15.44
17.29
18.62
19.66
20.59
21.52
22.49
23.39
23.94
23.81
22.80
20.98
18.75
16.61
14.96
13.81
12.79
11.40
9.27
6.42
3.25
0.29
-2.04
-3.63
-4.65
-5.41
-6.11
-6.86
-7.65
-8.44
-9.21
-9.98
-10.69
-11.25
-11.57
-11.67
-11.76
-12.19
-13.28
-15.15
-17.61
-20.15
-22.18
-23.18
-22.92
-21.48
-19.28
-16.86
-14.80
-13.58
-13.48
-14.42
-16.04
-17.65
-18.47
-17.81
-15.38
-11.36
-6.40
-1.32
3.21
6.85
9.71
12.12
14.43
16.72
18.87
20.59
21.64
21.88
21.29
19.82
17.44
14.15
10.16
5.90
1.96
-1.10
-2.95
-3.58
-3.26
-2.35
-1.19
0.02
1.16
2.14
2.89
3.37
3.60
3.67
3.68
3.71
3.69
3.48
2.84
1.64
-0.06
-1.97
-3.67
-4.73
-4.99
-4.58
-3.93
-3.55
-3.82
-4.88
-6.59
-8.59
-10.44
-11.72
-12.10
-11.41
-9.74
-7.46
-5.08
-3.15
-1.96
-1.49
-1.36
-1.06
-0.16
1.55
3.97
6.78
9.60
12.08
13.98
15.19
15.64
15.35
14.34
12.71
10.65
8.46
6.45
4.92
4.00
3.65
3.64
3.68
3.52
3.04
2.26
1.36
0.54
-0.02
-0.21
-0.09
0.19
0.42
0.38
-0.08
-0.99
-2.24
-3.62
-4.91
-5.93
-6.64
-7.13
-7.60
-8.30
-9.36
-10.80
-12.55
-14.50
-16.57
-18.68
-20.67
-22.24
-22.98
-22.51
-20.63
-17.47
-13.47
-9.16
-5.07
-1.52
1.44
3.91
6.08
8.12
10.10
11.96
13.56
14.72
15.35
15.46
15.20
14.77
14.27
13.75
13.18
12.60
12.07
11.74
11.70
11.89
12.12
12.19
11.94
11.41
10.80
10.30
9.99
9.74
9.29
8.38
6.91
5.04
3.05
1.31
0.05
-0.63
-0.84
-0.82
-0.84
-1.17
-2.01
-3.49
-5.53
-7.89
-10.15
-11.86
-12.78
-12.98
-13.02
-13.62
-15.44
-18.60
-22.54
-26.14
-28.18
-27.84
-24.99
-20.25
-14.66
-9.28
-4.77
-1.42
0.86
2.30
3.17
3.72
4.21
4.84
5.78
7.01
8.36
9.51
10.15
10.07
9.31
8.11
6.91
6.19
6.30
7.38
9.25
11.46
13.42
14.62
14.81
14.01
12.54
10.77
9.05
7.54
6.30
5.25
4.38
3.67
3.15
2.79
2.47
2.07
1.51
0.75
-0.16
-1.13
-2.11
-3.11
-4.16
-5.30
-6.56
-7.93
-9.37
-10.90
-12.52
-14.20
-15.91
-17.53
-18.89
-19.83
-20.17
-19.82
-18.79
-17.16
-15.04
-12.56
-9.79
-6.80
-3.62
-0.38
2.80
5.75
8.38
10.63
12.51
14.02
15.07
15.55
15.34
14.41
12.89
11.08
9.36
8.11
7.58
7.80
8.55
9.48
10.17
10.31
9.78
8.67
7.24
5.82
4.69
4.00
3.70
3.59
3.38
2.80
1.73
0.24
-1.44
-2.94
-3.90
-4.07
-3.35
-1.82
0.27
2.49
4.35
5.32
5.05
3.40
0.55
-3.05
-6.84
-10.21
-12.77
-14.33
-15.04
-15.24
-15.50
-16.32
-18.00
-20.45
-23.18
-25.47
-26.59
-26.17
-24.19
-21.02
-17.20
-13.26
-9.54
-6.18
-3.11
-0.23
2.60
5.42
8.20
10.78
12.93
14.46
15.26
15.36
14.88
13.98
12.80
11.49
10.21
9.23
8.87
9.31
10.47
11.96
13.13
13.36
12.29
10.04
7.15
4.40
2.38
1.38
1.27
1.66
2.17
2.50
2.59
2.49
2.25
1.83
1.17
0.16
-1.25
-2.98
-4.88
-6.72
-8.26
-9.37
-10.09
-10.59
-11.20
-12.18
-13.63
-15.43
-17.24
-18.57
-18.99
-18.25
-16.37
-13.67
-10.59
-7.54
-4.72
-2.09
0.57
3.41
6.40
9.29
11.65
13.15
13.73
13.62
13.19
12.79
12.55
12.42
12.24
11.92
11.47
11.04
10.75
10.64
10.62
10.55
10.24
9.64
8.76
7.69
6.62
5.68
5.01
4.60
4.34
4.03
3.50
2.69
1.71
0.76
0.02
-0.52
-1.03
-1.71
-2.63
-3.66
-4.56
-5.20
-5.67
-6.39
-7.81
-10.18
-13.37
-16.83
-19.86
-21.88
-22.63
-22.20
-20.94
-19.22
-17.26
-15.10
-12.64
-9.75
-6.40
-2.68
1.15
4.81
8.03
10.64
12.54
13.72
14.22
14.08
13.42
12.35
11.03
9.63
8.27
7.07
6.12
5.49
5.26
5.42
5.91
6.57
7.18
7.54
7.49
6.98
6.06
4.75
3.12
1.25
-0.74
-2.65
-4.24
-5.32
-5.87
-6.00
-5.95
-5.94
-6.13
-6.58
-7.38
-8.63
-10.48
-12.97
-15.90
-18.75
-20.86
-21.61
-20.75
-18.40
-15.03
-11.15
-7.16
-3.26
0.52
4.15
7.47
10.23
12.20
13.27
13.55
13.29
12.78
12.24
11.73
11.19
10.51
9.58
8.35
6.87
5.28
3.82
2.75
2.31
2.57
3.45
4.66
5.80
6.49
6.45
5.57
3.94
1.80
-0.53
-2.77
-4.70
-6.23
-7.43
-8.44
-9.46
-10.62
-11.93
-13.31
-14.52
-15.33
-15.54
-14.99
-13.66
-11.60
-8.98
-6.00
-2.84
0.38
3.61
6.80
9.83
12.45
14.35
15.24
15.07
14.01
12.50
11.06
10.04
9.54
9.38
9.27
9.02
8.65
8.34
8.29
8.56
8.98
9.23
8.96
8.02
6.50
4.65
2.73
0.89
-0.93
-2.86
-4.93
-7.03
-8.94
-10.41
-11.33
-11.82
-12.17
-12.69
-13.61
-14.99
-16.73
-18.55
-20.10
-20.96
-20.71
-19.04
-15.88
-11.43
-6.24
-0.98
3.72
7.45
10.10
11.80
12.77
13.22
13.30
13.12
12.83
12.63
12.70
13.04
13.50
13.75
13.54
12.78
11.66
10.54
9.69
9.23
9.06
8.95
8.67
8.18
7.51
6.77
6.01
5.19
4.23
3.09
1.81
0.52
-0.59
-1.36
-1.70
-1.66
-1.38
-1.11
-1.10
-1.53
-2.46
-3.81
-5.42
-7.10
-8.64
-9.96
-11.01
-11.82
-12.50
-13.21
-14.12
-15.36
-16.96
-18.77
-20.45
-21.54
-21.57
-20.26
-17.59
-13.82
-9.43
-4.89
-0.55
3.41
6.90
9.85
12.15
13.66
14.34
14.31
13.84
13.20
12.63
12.20
11.84
11.48
11.10
10.76
10.61
10.77
11.28
12.02
12.77
13.28
13.38
13.00
12.23
11.20
10.02
8.70
7.20
5.53
3.80
2.25
1.12
0.54
0.48
0.73
1.02
1.14
0.95
0.39
-0.53
-1.77
-3.18
-4.54
-5.60
-6.19
-6.34
-6.28
-6.33
-6.74
-7.56
-8.65
-9.83
-10.95
-12.03
-13.19
-14.54
-16.13
-17.85
-19.50
-20.89
-21.80
-22.07
-21.56
-20.21
-18.02
-15.12
-11.73
-8.08
-4.36
-0.65
2.98
6.46
9.64
12.29
14.22
15.37
15.81
15.77
15.44
14.93
14.22
13.22
11.92
10.44
9.02
7.94
7.38
7.36
7.80
8.47
9.18
9.78
10.13
10.13
9.68
8.75
7.41
5.86
4.40
3.26
2.59
2.31
2.26
2.22
2.08
1.83
1.55
1.29
1.02
0.61
-0.07
-1.08
-2.35
-3.70
-4.98
-6.10
-7.06
-7.93
-8.73
-9.44
-10.00
-10.37
-10.62
-10.91
-11.50
-12.60
-14.33
-16.55
-18.94
-20.93
-21.94
-21.56
-19.67
-16.59
-12.86
-9.09
-5.68
-2.76
-0.16
2.31
4.80
7.24
9.45
11.25
12.48
13.14
13.33
13.17
12.77
12.18
11.44
10.55
9.61
8.78
8.28
8.30
8.84
9.69
10.46
10.78
10.52
9.83
9.13
8.80
8.97
9.46
9.86
9.75
8.94
7.50
5.74
4.02
2.59
1.59
1.07
0.96
1.11
1.20
0.83
-0.34
-2.44
-5.27
-8.35
-11.08
-13.02
-14.00
-14.19
-13.99
-13.88
-14.22
-15.20
-16.82
-18.89
-21.13
-23.16
-24.63
-25.22
-24.70
-23.01
-20.22
-16.58
-12.43
-8.20
-4.25
-0.83
1.95
4.17
5.98
7.51
8.78
9.71
10.16
10.05
9.41
8.44
7.44
6.72
6.47
6.74
7.42
8.31
9.18
9.82
10.09
9.91
9.31
8.43
7.49
6.70
6.18
5.88
5.58
5.01
4.01
2.64
1.17
-0.06
-0.76
-0.80
-0.30
0.45
1.11
1.33
0.87
-0.32
-2.11
-4.17
-6.12
-7.63
-8.60
-9.14
-9.55
-10.14
-11.13
-12.49
-14.04
-15.53
-16.70
-17.38
-17.37
-16.49
-14.53
-11.41
-7.25
-2.39
2.62
7.28
11.20
14.11
15.88
16.47
15.85
14.15
11.69
9.00
6.70
5.24
4.76
5.03
5.59
5.96
5.88
5.40
4.78
4.29
4.11
4.24
4.52
4.76
4.88
4.94
5.08
5.38
5.75
5.97
5.77
5.01
3.75
2.28
0.97
0.09
-0.28
-0.29
-0.21
-0.35
-0.96
-2.14
-3.86
-5.92
-8.01
-9.74
-10.81
-11.14
-10.93
-10.65
-10.84
-11.86
-13.77
-16.20
-18.50
-19.94
-19.99
-18.42
-15.45
-11.57
-7.39
-3.44
-0.03
2.74
4.95
6.73
8.14
9.19
9.86
10.13
10.06
9.75
9.31
8.86
8.42
8.00
7.56
7.12
6.76
6.62
6.82
7.40
8.26
9.18
9.93
10.35
10.39
10.07
9.44
8.51
7.29
5.84
4.36
3.09
2.24
1.88
1.87
1.98
1.95
1.60
0.82
-0.39
-2.04
-4.04
-6.25
-8.44
-10.37
-11.87
-12.93
-13.73
-14.57
-15.71
-17.26
-19.07
-20.79
-21.93
-22.03
-20.83
-18.37
-14.96
-11.08
-7.22
-3.65
-0.43
2.57
5.46
8.24
10.72
12.58
13.60
13.71
13.08
12.03
10.94
10.05
9.48
9.23
9.28
9.58
10.07
10.65
11.16
11.41
11.25
10.65
9.75
8.79
7.96
7.37
6.92
6.35
5.46
4.16
2.62
1.10
-0.06
-0.67
-0.70
-0.26
0.42
1.12
1.54
1.39
0.42
-1.46
-4.07
-6.93
-9.44
-11.07
-11.68
-11.53
-11.21
-11.32
-12.26
-13.97
-16.07
-17.94
-19.02
-18.93
-17.61
-15.22
-12.06
-8.40
-4.46
-0.37
3.68
7.41
10.42
12.37
13.10
12.77
11.76
10.56
9.53
8.76
8.15
7.53
6.80
6.05
5.46
5.21
5.36
5.79
6.30
6.64
6.66
6.35
5.79
5.16
4.58
4.05
3.45
2.63
1.52
0.17
-1.19
-2.26
-2.84
-2.85
-2.40
-1.71
-1.00
-0.45
-0.18
-0.26
-0.78
-1.76
-3.18
-4.91
-6.69
-8.28
-9.50
-10.36
-11.06
-11.92
-13.21
-15.02
-17.19
-19.30
-20.81
-21.22
-20.23
-17.78
-14.11
-9.58
-4.60
0.44
5.20
9.41
12.82
15.25
16.64
17.08
16.87
16.37
15.95
15.79
15.86
15.96
15.78
15.12
13.98
12.62
11.41
10.69
10.53
10.74
10.87
10.50
9.39
7.61
5.50
3.47
1.82
0.65
-0.11
-0.64
-1.09
-1.52
-1.91
-2.17
-2.26
-2.23
-2.19
-2.26
-2.60
-3.36
-4.61
-6.31
-8.35
-10.62
-13.05
-15.56
-18.05
-20.39
-22.51
-24.45
-26.28
-28.23
-30.66
-33.89
-37.89
-42.22
-46.15
-49.00
-50.34
-49.71
-47.21
-43.60
-40.10
-37.87
-37.65
-39.67
-43.75
-49.41
-55.04
-59.19
-61.35
-62.04
-62.15
-62.46
-63.38
-64.95
-66.92
-67.10
-63.44
-54.92
-41.83
-25.03
-5.41
15.99
37.82
58.53
78.86
99.58
120.41
139.93
156.52
169.11
177.21
180.68
167.12
130.64
75.26
13.07
-44.30
-91.05
-126.61
-152.97
-172.68
-187.16
-195.87
-197.63
-192.29
-181.32
-166.74
-150.15
-132.25
-112.65
-92.86
-71.51
-46.91
-18.45
13.07
46.32
80.11
113.57
145.88
175.87
203.09
226.44
243.93
253.57
254.74
248.74
238.13
225.26
211.25
196.67
181.70
166.99
154.18
145.42
141.81
142.10
142.45
137.84
124.68
102.03
71.76
37.42
2.88
-28.72
-55.30
-75.89
-90.50
-100.02
-106.14
-110.83
-115.60
-120.85
-125.95
-129.78
-131.57
-131.19
-128.96
-125.04
-119.07
-110.45
-98.86
-84.90
-70.04
-56.16
-44.78
-36.58
-31.39
-28.56
-27.54
-28.19
-30.70
-35.16
-41.02
-46.82
-50.43
-49.75
-43.49
-31.89
-16.66
-0.41
14.23
25.44
32.46
35.49
35.14
32.18
27.29
21.27
15.14
10.14
7.44
7.88
11.63
18.02
25.74
33.08
38.52
41.14
41.01
39.16
37.12
36.27
37.19
39.49
42.14
44.13
45.03
45.17
45.25
45.80
46.95
48.41
49.86
51.14
52.34
53.56
54.70
55.44
55.47
54.66
53.17
51.19
48.62
44.98
39.64
32.24
22.96
12.63
2.30
-7.18
-15.38
-22.33
-28.20
-33.07
-36.84
-39.31
-40.42
-40.35
-39.52
-38.47
-37.67
-37.39
-37.67
-38.33
-39.02
-39.31
-38.79
-37.22
-34.55
-31.03
-27.12
-23.40
-20.39
-18.35
-17.30
-16.96
-16.99
-17.12
-17.32
-17.74
-18.61
-19.97
-21.63
-23.22
-24.37
-25.04
-25.55
-26.41
-27.98
-30.21
-32.46
-33.69
-32.91
-29.63
-24.07
-17.09
-9.80
-3.03
2.93
8.28
13.40
18.43
23.08
26.67
28.47
28.09
25.69
21.91
17.70
13.93
11.11
9.28
8.10
7.08
5.89
4.50
3.21
2.41
2.34
2.88
3.71
4.35
4.49
4.01
2.98
1.43
-0.60
-3.13
-6.03
-9.04
-11.86
-14.32
-16.52
-18.79
-21.47
-24.81
-28.68
-32.68
-36.21
-38.60
-39.28
-37.88
-34.34
-28.91
-22.17
-14.88
-7.81
-1.56
3.56
7.57
10.66
13.12
15.22
17.08
18.75
20.14
21.12
21.56
21.43
20.86
20.12
19.53
19.32
19.55
20.07
20.63
21.00
21.13
21.12
21.15
21.30
21.42
21.17
20.25
18.61
16.47
14.26
12.22
10.26
8.03
5.16
1.66
-2.04
-5.20
-7.20
-7.92
-7.82
-7.68
-8.16
-9.45
-11.27
-13.06
-14.41
-15.21
-15.73
-16.39
-17.48
-19.15
-21.36
-24.07
-27.20
-30.63
-34.06
-36.93
-38.51
-38.10
-35.36
-30.47
-24.12
-17.28
-10.83
-5.31
-0.80
2.92
6.19
9.22
12.06
14.54
16.51
17.94
18.94
19.71
20.41
21.06
21.51
21.57
21.07
20.09
18.86
17.69
16.81
16.20
15.69
15.03
14.09
12.98
11.97
11.35
11.17
11.24
11.18
10.71
9.82
8.81
8.04
7.73
7.74
7.68
7.18
6.12
4.71
3.27
2.08
1.10
0.11
-1.16
-2.75
-4.46
-6.01
-7.18
-8.06
-8.92
-10.07
-11.61
-13.38
-15.05
-16.35
-17.30
-18.23
-19.65
-21.95
-25.12
-28.62
-31.57
-33.09
-32.63
-30.17
-26.16
-21.25
-16.00
-10.79
-5.77
-1.03
3.27
6.92
9.71
11.59
12.69
13.31
13.74
14.17
14.67
15.18
15.64
16.02
16.33
16.61
16.89
17.16
17.35
17.41
17.29
16.97
16.51
15.97
15.41
14.84
14.22
13.50
12.62
11.57
10.34
8.93
7.32
5.58
3.84
2.32
1.17
0.43
-0.11
-0.76
-1.79
-3.28
-5.03
-6.76
-8.29
-9.63
-11.03
-12.72
-14.85
-17.33
-19.96
-22.55
-24.94
-26.96
-28.33
-28.66
-27.57
-24.85
-20.62
-15.34
-9.66
-4.27
0.34
3.97
6.70
8.72
10.21
11.25
11.87
12.07
11.97
11.82
11.85
12.19
12.76
13.35
13.73
13.84
13.80
13.87
14.19
14.69
15.05
14.87
13.89
12.15
10.00
7.93
6.31
5.32
4.77
4.34
3.70
2.65
1.26
-0.25
-1.60
-2.54
-3.05
-3.28
-3.54
-4.18
-5.40
-7.20
-9.33
-11.35
-12.82
-13.47
-13.42
-13.03
-12.89
-13.40
-14.74
-16.75
-19.08
-21.30
-23.02
-23.90
-23.59
-21.75
-18.21
-13.11
-7.03
-0.88
4.42
8.22
10.45
11.52
12.03
12.45
12.94
13.40
13.66
13.69
13.68
13.84
14.29
14.94
15.49
15.66
15.36
14.74
14.13
13.80
13.85
14.09
14.15
13.69
12.48
10.59
8.28
5.92
3.87
2.32
1.36
0.90
0.78
0.82
0.75
0.46
-0.09
-0.84
-1.65
-2.45
-3.35
-4.47
-5.91
-7.59
-9.21
-10.54
-11.47
-12.21
-13.16
-14.70
-16.99
-19.87
-22.96
-25.78
-27.87
-28.83
-28.34
-26.21
-22.52
-17.63
-12.15
-6.76
-1.98
1.91
4.91
7.14
8.76
9.91
10.71
11.37
12.03
12.79
13.59
14.26
14.65
14.71
14.53
14.26
14.05
13.94
13.88
13.76
13.48
13.00
12.40
11.76
11.12
10.41
9.48
8.21
6.64
5.01
3.64
2.74
2.29
1.99
1.41
0.26
-1.47
-3.49
-5.38
-6.85
-7.82
-8.45
-8.98
-9.68
-10.70
-12.12
-13.94
-16.11
-18.50
-20.87
-22.88
-24.13
-24.23
-22.92
-20.14
-16.11
-11.31
-6.39
-1.94
1.64
4.29
6.22
7.74
9.06
10.21
11.04
11.38
11.20
10.66
10.10
9.89
10.22
11.06
12.19
13.27
14.05
14.39
14.29
13.87
13.21
12.38
11.40
10.32
9.24
8.28
7.53
6.97
6.47
5.85
5.00
3.92
2.78
1.76
0.97
0.37
-0.23
-1.08
-2.39
-4.19
-6.40
-8.82
-11.20
-13.30
-15.00
-16.33
-17.47
-18.79
-20.61
-23.09
-26.05
-28.97
-31.14
-31.87
-30.81
-27.96
-23.70
-18.62
-13.31
-8.22
-3.62
0.33
3.58
6.10
7.95
9.23
10.11
10.75
11.28
11.76
12.20
12.55
12.78
12.87
12.90
12.99
13.27
13.80
14.54
15.30
15.82
15.91
15.50
14.69
13.69
12.72
11.85
11.06
10.30
9.49
8.65
7.85
7.09
6.37
5.60
4.70
3.67
2.56
1.50
0.61
-0.08
-0.64
-1.26
-2.12
-3.37
-4.97
-6.74
-8.43
-9.86
-11.02
-12.10
-13.40
-15.16
-17.51
-20.33
-23.34
-26.10
-28.19
-29.18
-28.84
-27.11
-24.17
-20.34
-16.02
-11.53
-7.16
-3.14
0.37
3.27
5.54
7.28
8.66
9.81
10.80
11.59
12.11
12.39
12.51
12.58
12.65
12.67
12.60
12.43
12.31
12.44
12.93
13.70
14.47
14.92
14.87
14.35
13.50
12.51
11.46
10.37
9.23
8.09
7.04
6.13
5.32
4.47
3.46
2.24
0.87
-0.48
-1.71
-2.82
-3.90
-5.11
-6.54
-8.17
-9.89
-11.59
-13.14
-14.57
-15.98
-17.59
-19.52
-21.78
-24.14
-26.19
-27.45
-27.54
-26.29
-23.72
-20.07
-15.68
-10.96
-6.32
-2.14
1.32
3.97
5.91
7.35
8.50
9.39
9.96
10.12
9.89
9.51
9.30
9.52
10.22
11.18
12.08
12.65
12.81
12.72
12.53
12.35
12.11
11.65
10.90
9.91
8.86
7.99
7.37
6.90
6.31
5.34
3.88
2.03
0.06
-1.73
-3.19
-4.33
-5.31
-6.26
-7.24
-8.21
-9.09
-9.90
-10.82
-12.13
-14.08
-16.66
-19.59
-22.32
-24.21
-24.76
-23.77
-21.34
-17.82
-13.70
-9.46
-5.46
-1.93
1.08
3.59
5.64
7.23
8.31
8.86
8.97
8.81
8.66
8.76
9.21
9.97
10.87
11.70
12.37
12.83
13.13
13.27
13.19
12.84
12.23
11.43
10.63
9.98
9.53
9.15
8.61
7.74
6.49
5.05
3.66
2.52
1.63
0.80
-0.22
-1.62
-3.39
-5.34
-7.25
-8.96
-10.45
-11.79
-13.17
-14.79
-16.82
-19.35
-22.29
-25.38
-28.18
-30.16
-30.82
-29.84
-27.14
-22.94
-17.67
-11.96
-6.46
-1.75
1.82
4.23
5.79
6.91
7.94
9.00
10.00
10.75
11.19
11.44
11.77
12.38
13.32
14.40
15.37
16.00
16.28
16.36
16.40
16.47
16.49
16.25
15.60
14.52
13.19
11.82
10.63
9.68
8.87
8.05
7.06
5.85
4.46
2.97
1.50
0.14
-1.06
-2.02
-2.70
-3.13
-3.50
-4.05
-5.04
-6.56
-8.50
-10.55
-12.41
-13.90
-15.08
-16.24
-17.73
-19.84
-22.65
-25.95
-29.24
-31.87
-33.21
-32.83
-30.61
-26.81
-21.90
-16.47
-11.05
-6.02
-1.68
1.85
4.53
6.51
8.02
9.32
10.60
11.88
13.07
14.01
14.65
15.05
15.36
15.70
16.12
16.55
16.93
17.22
17.40
17.48
17.45
17.20
16.64
15.70
14.40
12.91
11.47
10.29
9.47
8.96
8.64
8.38
8.10
7.78
7.43
7.04
6.60
6.13
5.68
5.29
4.91
4.39
3.55
2.28
0.67
-1.04
-2.57
-3.75
-4.60
-5.30
-6.03
-6.86
-7.77
-8.69
-9.60
-10.59
-11.76
-13.20
-14.90
-16.76
-18.69
-20.72
-22.92
-25.36
-27.90
-30.11
-31.31
-30.81
-28.21
-23.67
-17.91
-11.96
-6.69
-2.52
0.67
3.30
5.75
8.09
10.15
11.65
12.51
12.91
13.17
13.51
13.91
14.20
14.21
13.99
13.73
13.70
13.97
14.40
14.73
14.76
14.49
14.07
13.70
13.47
13.28
13.02
12.60
12.09
11.60
11.13
10.52
9.57
8.18
6.57
5.23
4.58
4.75
5.38
5.82
5.49
4.26
2.50
0.85
-0.19
-0.56
-0.66
-1.05
-2.09
-3.78
-5.76
-7.65
-9.24
-10.56
-11.88
-13.40
-15.20
-17.22
-19.37
-21.59
-23.96
-26.50
-29.11
-31.44
-32.94
-33.03
-31.32
-27.81
-22.90
-17.34
-11.91
-7.23
-3.54
-0.66
1.80
4.23
6.78
9.30
11.44
12.87
13.52
13.60
13.56
13.81
14.50
15.46
16.38
17.03
17.37
17.64
18.09
18.85
19.74
20.42
20.56
19.96
18.77
17.28
15.85
14.69
13.80
13.03
12.20
11.26
10.27
9.40
8.78
8.40
8.16
7.85
7.35
6.66
5.91
5.20
4.60
4.03
3.36
2.48
1.40
0.19
-0.97
-2.01
-2.90
-3.74
-4.62
-5.65
-6.85
-8.21
-9.65
-11.10
-12.50
-13.83
-15.13
-16.52
-18.11
-20.04
-22.39
-25.15
-28.08
-30.76
-32.57
-32.93
-31.46
-28.21
-23.59
-18.31
-13.12
-8.58
-4.92
-2.08
0.18
2.08
3.76
5.25
6.58
7.77
8.88
9.94
10.93
11.80
12.47
12.95
13.33
13.75
14.31
14.98
15.65
16.13
16.35
16.36
16.31
16.30
16.27
16.03
15.37
14.24
12.81
11.39
10.26
9.49
8.92
8.27
7.39
6.33
5.26
4.40
3.81
3.35
2.84
2.14
1.27
0.32
-0.64
-1.67
-2.92
-4.53
-6.44
-8.46
-10.33
-11.83
-12.95
-13.87
-14.84
-16.17
-18.03
-20.44
-23.21
-25.90
-27.92
-28.70
-27.81
-25.18
-21.15
-16.27
-11.18
-6.39
-2.14
1.51
4.59
7.10
8.99
10.22
10.81
10.92
10.79
10.73
10.91
11.36
11.95
12.51
12.94
13.28
13.68
14.27
15.06
15.86
16.40
16.44
15.95
15.11
14.18
13.31
12.55
11.78
10.87
9.83
8.77
7.84
7.14
6.55
5.88
4.92
3.65
2.18
0.78
-0.35
-1.17
-1.76
-2.33
-3.03
-3.90
-4.92
-6.00
-7.10
-8.26
-9.54
-10.97
-12.49
-13.98
-15.28
-16.35
-17.30
-18.45
-20.14
-22.56
-25.57
-28.64
-30.96
-31.75
-30.53
-27.30
-22.53
-16.93
-11.22
-5.90
-1.26
2.55
5.53
7.66
9.02
9.75
10.07
10.21
10.32
10.47
10.65
10.85
11.09
11.44
11.97
12.66
13.44
14.11
14.57
14.75
14.70
14.54
14.34
14.05
13.56
12.77
11.74
10.68
9.89
9.56
9.58
9.64
9.33
8.39
6.86
5.04
3.31
1.99
1.12
0.55
0.00
-0.72
-1.71
-2.90
-4.19
-5.50
-6.87
-8.33
-9.89
-11.46
-12.85
-13.96
-14.80
-15.62
-16.80
-18.68
-21.36
-24.62
-27.90
-30.55
-31.93
-31.66
-29.65
-26.06
-21.28
-15.84
-10.32
-5.23
-0.95
2.38
4.79
6.44
7.54
8.26
8.74
9.07
9.33
9.62
10.00
10.48
11.02
11.56
12.01
12.38
12.77
13.26
13.89
14.58
15.11
15.27
14.92
14.13
13.07
11.99
11.07
10.34
9.71
9.03
8.19
7.15
5.98
4.82
3.77
2.89
2.16
1.51
0.85
0.17
-0.57
-1.41
-2.49
-3.95
-5.84
-8.03
-10.17
-11.90
-13.01
-13.65
-14.23
-15.30
-17.19
-19.85
-22.87
-25.62
-27.50
-28.09
-27.18
-24.78
-21.06
-16.34
-11.08
-5.85
-1.18
2.55
5.21
6.97
8.10
8.93
9.62
10.23
10.70
10.98
11.06
11.03
10.99
11.03
11.20
11.49
11.87
12.34
12.82
13.26
13.54
13.59
13.36
12.88
12.21
11.42
10.55
9.65
8.74
7.87
7.07
6.30
5.50
4.56
3.46
2.20
0.95
-0.15
-1.02
-1.72
-2.41
-3.36
-4.72
-6.49
-8.52
-10.51
-12.23
-13.60
-14.73
-15.86
-17.22
-18.92
-20.94
-23.18
-25.49
-27.69
-29.45
-30.33
-29.84
-27.64
-23.76
-18.65
-13.07
-7.78
-3.31
0.16
2.82
4.89
6.58
7.96
9.04
9.88
10.58
11.27
12.01
12.76
13.43
13.96
14.34
14.66
14.98
15.35
15.69
15.91
15.94
15.76
15.42
15.01
14.55
14.04
13.43
12.70
11.91
11.19
10.64
10.30
10.07
9.75
9.15
8.18
6.93
5.54
4.20
3.00
1.92
0.87
-0.21
-1.39
-2.66
-4.03
-5.55
-7.26
-9.22
-11.33
-13.43
-15.26
-16.66
-17.64
-18.51
-19.74
-21.76
-24.65
-28.01
-31.06
-32.83
-32.64
-30.32
-26.21
-21.01
-15.45
-10.07
-5.12
-0.76
2.89
5.65
7.41
8.23
8.41
8.44
8.74
9.51
10.66
11.88
12.85
13.40
13.57
13.56
13.59
13.72
13.92
14.09
14.14
14.11
14.03
13.93
13.81
13.60
13.27
12.80
12.22
11.56
10.85
10.12
9.39
8.66
7.98
7.29
6.54
5.65
4.58
3.40
2.24
1.20
0.30
-0.61
-1.79
-3.41
-5.47
-7.70
-9.76
-11.38
-12.52
-13.44
-14.49
-15.94
-17.87
-20.12
-22.48
-24.73
-26.66
-28.03
-28.45
-27.49
-24.87
-20.63
-15.26
-9.57
-4.39
-0.27
2.68
4.70
6.21
7.46
8.52
9.28
9.61
9.60
9.50
9.66
10.25
11.24
12.30
13.12
13.55
13.70
13.88
14.37
15.17
15.97
16.31
15.91
14.79
13.32
11.97
11.03
10.49
10.08
9.45
8.43
7.08
5.64
4.33
3.25
2.38
1.59
0.77
-0.15
-1.20
-2.45
-3.90
-5.52
-7.20
-8.76
-10.08
-11.20
-12.29
-13.71
-15.77
-18.62
-22.15
-25.95
-29.37
-31.67
-32.26
-30.81
-27.44
-22.65
-17.15
-11.68
-6.77
-2.65
0.66
3.32
5.49
7.29
8.81
10.10
11.18
12.08
12.81
13.36
13.77
14.16
14.63
15.30
16.15
17.06
17.84
18.33
18.46
18.28
17.88
17.38
16.85
16.29
15.68
15.02
14.32
13.60
12.87
12.14
11.40
10.64
9.86
8.99
7.97
6.74
5.34
3.93
2.70
1.83
1.29
0.88
0.29
-0.75
-2.26
-4.05
-5.82
-7.35
-8.65
-9.90
-11.37
-13.15
-15.18
-17.29
-19.35
-21.43
-23.73
-26.42
-29.41
-32.25
-34.21
-34.51
-32.71
-28.85
-23.51
-17.51
-11.68
-6.56
-2.37
0.94
3.53
5.55
7.07
8.18
9.02
9.75
10.51
11.38
12.31
13.17
13.87
14.34
14.61
14.75
14.88
15.06
15.25
15.42
15.47
15.39
15.18
14.91
14.54
14.00
13.22
12.17
10.97
9.86
9.03
8.56
8.31
7.99
7.33
6.23
4.81
3.32
2.01
0.96
0.04
-0.91
-2.02
-3.31
-4.67
-5.99
-7.23
-8.43
-9.68
-11.05
-12.57
-14.27
-16.22
-18.50
-21.12
-23.88
-26.32
-27.80
-27.76
-25.96
-22.61
-18.31
-13.76
-9.46
-5.63
-2.16
1.08
4.12
6.78
8.78
9.91
10.24
10.03
9.65
9.41
9.46
9.78
10.27
10.84
11.46
12.14
12.91
13.72
14.56
15.34
15.99
16.41
16.49
16.11
15.27
14.00
12.44
10.73
8.95
7.11
5.18
3.18
1.23
-0.52
-1.97
-3.11
-4.08
-5.09
-6.31
-7.77
-9.40
-11.12
-12.88
-14.69
-16.50
-18.10
-19.11
-19.10
-17.80
-15.26
-11.86
-8.22
-4.92
-2.25
-0.18
1.60
3.39
5.34
7.30
8.97
10.04
10.39
10.13
9.54
8.93
8.51
8.33
8.29
8.29
8.28
8.32
8.54
9.02
9.74
10.54
11.18
11.44
11.21
10.51
9.48
8.26
6.94
5.52
3.97
2.28
0.52
-1.18
-2.77
-4.29
-5.88
-7.73
-9.89
-12.28
-14.66
-16.76
-18.48
-19.88
-21.26
-22.94
-25.16
-27.88
-30.74
-33.16
-34.45
-34.05
-31.71
-27.62
-22.29
-16.41
-10.58
-5.22
-0.51
3.51
6.78
9.27
10.96
11.94
12.41
12.69
13.00
13.47
14.09
14.77
15.44
16.03
16.54
16.96
17.28
17.53
17.75
17.99
18.23
18.41
18.35
17.91
16.96
15.58
13.94
12.31
10.90
9.79
8.91
8.07
7.15
6.09
4.95
3.89
2.97
2.19
1.46
0.60
-0.50
-1.87
-3.49
-5.25
-6.99
-8.59
-9.98
-11.20
-12.39
-13.78
-15.56
-17.83
-20.57
-23.53
-26.35
-28.54
-29.63
-29.26
-27.26
-23.78
-19.28
-14.36
-9.66
-5.58
-2.28
0.37
2.56
4.48
6.15
7.52
8.55
9.29
9.88
10.56
11.44
12.51
13.56
14.34
14.69
14.68
14.56
14.62
15.02
15.65
16.19
16.29
15.74
14.65
13.28
11.91
10.74
9.77
8.94
8.22
7.63
7.28
7.21
7.37
7.56
7.54
7.12
6.26
5.02
3.59
2.18
0.89
-0.25
-1.37
-2.63
-4.11
-5.80
-7.54
-9.13
-10.41
-11.34
-12.02
-12.62
-13.38
-14.56
-16.37
-18.91
-22.04
-25.35
-28.20
-29.91
-29.97
-28.27
-25.03
-20.75
-15.95
-11.07
-6.40
-2.10
1.64
4.68
6.90
8.29
9.00
9.27
9.41
9.63
10.09
10.76
11.56
12.30
12.84
13.08
12.99
12.70
12.36
12.15
12.11
12.15
12.03
11.54
10.62
9.41
8.22
7.36
6.91
6.77
6.69
6.48
6.15
5.87
5.77
5.84
5.81
5.37
4.40
3.05
1.71
0.70
0.16
-0.12
-0.49
-1.25
-2.48
-3.99
-5.50
-6.83
-7.93
-8.93
-9.98
-11.25
-12.81
-14.78
-17.19
-20.06
-23.17
-26.09
-28.21
-28.90
-27.84
-25.06
-20.99
-16.25
-11.43
-6.97
-3.09
0.08
2.55
4.36
5.64
6.58
7.39
8.23
9.11
9.91
10.52
10.89
11.12
11.37
11.83
12.51
13.32
14.07
14.63
14.91
14.95
14.78
14.46
13.98
13.34
12.56
11.69
10.81
9.96
9.20
8.52
7.93
7.42
6.93
6.44
5.86
5.14
4.24
3.21
2.14
1.16
0.34
-0.36
-1.05
-1.88
-3.01
-4.45
-6.10
-7.78
-9.32
-10.66
-11.89
-13.20
-14.79
-16.77
-19.10
-21.63
-24.15
-26.43
-28.19
-29.10
-28.83
-27.12
-23.94
-19.54
-14.47
-9.36
-4.79
-1.13
1.56
3.44
4.76
5.80
6.73
7.62
8.44
9.13
9.62
9.92
10.12
10.31
10.56
10.88
11.23
11.57
11.94
12.42
13.05
13.77
14.37
14.56
14.13
13.06
11.57
10.02
8.77
7.99
7.63
7.43
7.09
6.39
5.29
3.92
2.51
1.23
0.20
-0.65
-1.41
-2.17
-2.99
-3.86
-4.77
-5.74
-6.74
-7.72
-8.58
-9.25
-9.80
-10.46
-11.54
-13.36
-15.98
-19.19
-22.47
-25.17
-26.71
-26.71
-25.08
-21.97
-17.77
-12.93
-7.99
-3.41
0.47
3.47
5.58
6.94
7.71
8.09
8.20
8.17
8.06
7.97
8.01
8.24
8.73
9.42
10.23
10.99
11.54
11.78
11.70
11.38
10.97
10.61
10.39
10.30
10.24
10.03
9.53
8.68
7.52
6.23
4.98
3.87
2.90
1.98
0.97
-0.20
-1.50
-2.83
-4.06
-5.12
-6.03
-6.91
-7.89
-9.08
-10.53
-12.27
-14.31
-16.65
-19.23
-21.85
-24.16
-25.63
-25.79
-24.30
-21.17
-16.79
-11.77
-6.79
-2.40
1.16
3.86
5.86
7.33
8.44
9.28
9.87
10.25
10.45
10.54
10.60
10.69
10.86
11.16
11.59
12.15
12.74
13.26
13.57
13.54
13.13
12.34
11.30
10.16
9.08
8.16
7.40
6.70
5.92
4.93
3.73
2.41
1.13
0.04
-0.84
-1.59
-2.38
-3.34
-4.49
-5.73
-6.93
-8.00
-8.95
-9.88
-10.92
-12.24
-13.96
-16.16
-18.79
-21.66
-24.41
-26.53
-27.53
-27.04
-24.96
-21.49
-17.03
-12.14
-7.36
-3.06
0.51
3.32
5.44
7.00
8.12
8.87
9.36
9.69
10.04
10.50
11.13
11.80
12.35
12.66
12.75
12.79
12.95
13.31
13.77
14.14
14.17
13.79
13.07
12.15
11.18
10.18
9.10
7.87
6.55
5.26
4.14
3.28
2.61
1.95
1.15
0.10
-1.14
-2.48
-3.82
-5.13
-6.44
-7.77
-9.05
-10.15
-10.98
-11.61
-12.26
-13.30
-15.06
-17.64
-20.87
-24.19
-26.88
-28.24
-27.82
-25.55
-21.76
-16.99
-11.91
-7.03
-2.77
0.73
3.42
5.37
6.76
7.79
8.70
9.68
10.76
11.80
12.57
12.91
12.81
12.44
12.09
11.98
12.19
12.59
13.01
13.30
13.47
13.56
13.62
13.55
13.19
12.37
11.06
9.44
7.78
6.33
5.21
4.38
3.66
2.88
1.89
0.64
-0.88
-2.59
-4.37
-6.07
-7.52
-8.65
-9.50
-10.24
-11.18
-12.62
-14.73
-17.44
-20.37
-22.94
-24.45
-24.37
-22.48
-18.98
-14.44
-9.56
-4.96
-1.03
2.16
4.72
6.77
8.45
9.76
10.69
11.27
11.55
11.65
11.70
11.78
11.91
12.11
12.38
12.78
13.31
13.93
14.53
14.93
14.98
14.64
13.94
13.01
11.99
10.99
10.05
9.15
8.27
7.37
6.44
5.48
4.47
3.43
2.40
1.38
0.39
-0.60
-1.68
-2.94
-4.44
-6.19
-8.11
-10.06
-11.91
-13.60
-15.11
-16.52
-17.94
-19.50
-21.34
-23.58
-26.22
-29.01
-31.48
-32.99
-33.01
-31.30
-28.04
-23.76
-19.14
-14.77
-11.02
-7.98
-5.62
-3.85
-2.62
-1.86
-1.38
-0.95
-0.19
1.17
3.25
5.95
8.93
11.77
14.12
15.83
16.98
17.77
18.42
19.00
19.47
19.70
19.64
19.35
19.00
18.75
18.68
18.79
18.94
19.05
19.02
18.87
18.58
18.10
17.34
16.26
14.85
13.22
11.54
9.96
8.58
7.43
6.45
5.53
4.62
3.71
2.83
2.02
1.26
0.51
-0.33
-1.34
-2.49
-3.69
-4.82
-5.78
-6.61
-7.43
-8.47
-9.83
-11.55
-13.53
-15.76
-18.22
-20.94
-23.81
-26.42
-28.21
-28.58
-27.19
-24.09
-19.74
-14.80
-9.94
-5.55
-1.79
1.39
4.10
6.38
8.14
9.31
9.85
9.86
9.63
9.48
9.69
10.28
11.12
11.96
12.62
13.13
13.64
14.29
15.09
15.85
16.27
16.12
15.39
14.27
13.04
11.97
11.18
10.62
10.11
9.44
8.47
7.20
5.74
4.32
3.11
2.20
1.51
0.90
0.20
-0.66
-1.61
-2.60
-3.56
-4.51
-5.48
-6.47
-7.46
-8.39
-9.32
-10.43
-11.97
-14.17
-17.03
-20.26
-23.33
-25.58
-26.48
-25.71
-23.25
-19.40
-14.67
-9.68
-5.02
-1.13
1.86
4.05
5.70
7.06
8.23
9.17
9.78
10.00
9.94
9.79
9.76
10.00
10.49
11.16
11.90
12.61
13.23
13.72
14.03
14.14
14.07
13.85
13.51
13.09
12.61
12.02
11.32
10.49
9.60
8.71
7.91
7.25
6.74
6.35
5.98
5.58
5.03
4.26
3.26
2.08
0.81
-0.45
-1.63
-2.72
-3.72
-4.63
-5.47
-6.30
-7.21
-8.29
-9.61
-11.08
-12.56
-13.89
-15.03
-16.10
-17.38
-19.14
-21.46
-24.13
-26.63
-28.33
-28.68
-27.38
-24.51
-20.42
-15.65
-10.77
-6.27
-2.47
0.50
2.69
4.27
5.39
6.20
6.76
7.08
7.21
7.21
7.24
7.46
7.99
8.83
9.91
11.03
12.01
12.73
13.14
13.29
13.25
13.06
12.71
12.18
11.45
10.60
9.73
8.94
8.32
7.79
7.26
6.62
5.82
4.91
3.96
3.05
2.23
1.50
0.89
0.41
0.05
-0.25
-0.67
-1.38
-2.49
-4.00
-5.73
-7.43
-8.84
-9.85
-10.44
-10.76
-11.01
-11.43
-12.21
-13.49
-15.25
-17.26
-19.08
-20.20
-20.26
-19.15
-17.08
-14.47
-11.80
-9.40
-7.42
-5.78
-4.33
-2.89
-1.35
0.32
2.04
3.67
5.05
6.09
6.79
7.28
7.69
8.16
8.72
9.34
9.98
10.60
11.21
11.79
12.25
12.46
12.32
11.76
10.86
9.77
8.68
7.72
6.89
6.14
5.37
4.54
3.68
2.87
2.18
1.59
1.00
0.23
-0.85
-2.32
-4.05
-5.86
-7.51
-8.88
-10.04
-11.22
-12.73
-14.81
-17.51
-20.61
-23.65
-26.00
-27.07
-26.48
-24.16
-20.41
-15.77
-10.88
-6.32
-2.46
0.55
2.71
4.13
4.92
5.23
5.18
5.02
4.94
5.16
5.86
7.05
8.64
10.43
12.18
13.66
14.78
15.52
15.98
16.19
16.18
15.95
15.52
14.95
14.34
13.69
12.95
12.02
10.84
9.45
7.98
6.59
5.34
4.18
2.99
1.69
0.25
-1.29
-2.86
-4.42
-5.98
-7.56
-9.22
-11.06
-13.17
-15.67
-18.53
-21.62
-24.62
-27.04
-28.42
-28.38
-26.83
-23.91
-20.05
-15.79
-11.72
-8.27
-5.73
-4.18
-3.56
-3.71
-4.43
-5.54
-6.86
-8.14
-9.13
-9.57
-9.25
-8.12
-6.29
-4.11
-2.00
-0.38
0.52
0.72
0.49
0.17
0.06
0.19
0.39
0.37
-0.14
-1.17
-2.59
-4.10
-5.46
-6.62
-7.75
-9.19
-11.30
-14.25
-18.05
-22.50
-27.32
-32.20
-36.83
-40.93
-44.20
-46.42
-47.45
-47.32
-46.16
-44.15
-41.37
-37.74
-33.06
-27.21
-20.35
-13.00
-5.96
-0.01
4.47
7.75
10.67
14.27
19.24
25.55
32.31
38.11
41.63
42.11
39.66
35.01
29.13
22.79
16.31
9.75
3.05
-3.59
-9.73
-14.80
-18.44
-20.71
-22.11
-23.35
-25.11
-27.71
-31.10
-34.94
-38.82
-42.38
-45.39
-47.70
-49.17
-49.64
-48.95
-46.99
-43.71
-39.17
-33.45
-26.71
-19.20
-11.26
-3.33
4.29
11.51
18.63
26.20
34.79
44.65
55.52
66.71
77.39
86.93
95.15
102.19
108.21
113.09
116.35
117.29
115.43
110.73
103.63
94.96
85.59
76.26
67.37
59.01
51.01
43.07
34.89
26.41
17.81
9.60
2.34
-3.51
-7.84
-10.90
-13.14
-14.96
-16.54
-17.90
-18.99
-19.87
-20.77
-21.92
-23.37
-24.90
-26.02
-26.31
-25.64
-24.39
-23.24
-22.92
-23.72
-25.35
-27.07
-28.07
-27.99
-27.10
-26.23
-26.32
-28.01
-31.43
-36.18
-41.65
-47.25
-52.52
-57.10
-60.57
-62.48
-62.47
-60.47
-56.68
-51.48
-45.05
-37.25
-27.70
-16.11
-2.75
11.41
24.79
35.76
43.30
47.45
49.21
50.11
51.45
53.73
56.59
59.08
60.38
60.15
58.63
56.29
53.33
49.50
44.22
37.17
28.60
19.53
11.36
5.24
1.53
-0.34
-1.60
-3.44
-6.43
-10.21
-13.60
-15.20
-14.02
-9.88
-3.54
3.67
10.34
15.41
18.32
18.97
17.51
14.29
9.79
4.66
-0.32
-4.37
-6.94
-7.83
-7.22
-5.53
-3.30
-0.97
1.20
3.12
4.96
6.89
9.00
11.18
13.06
14.18
14.17
13.01
11.07
9.06
7.65
7.23
7.74
8.76
9.70
10.09
9.73
8.64
6.95
4.85
2.48
0.07
-2.08
-3.63
-4.28
-3.93
-2.72
-0.98
0.90
2.59
3.89
4.69
5.01
4.92
4.54
3.94
3.18
2.22
0.91
-0.91
-3.31
-6.16
-9.16
-11.81
-13.64
-14.35
-13.85
-12.33
-10.23
-8.13
-6.59
-6.10
-6.92
-9.11
-12.48
-16.60
-20.83
-24.40
-26.57
-26.82
-25.06
-21.73
-17.65
-13.77
-10.76
-8.84
-7.72
-6.87
-5.76
-4.09
-1.87
0.69
3.29
5.65
7.54
8.78
9.30
9.11
8.42
7.59
7.05
7.12
7.91
9.28
10.90
12.39
13.44
13.92
13.89
13.54
13.07
12.68
12.52
12.67
13.14
13.89
14.80
15.75
16.62
17.36
17.97
18.44
18.72
18.70
18.27
17.32
15.82
13.87
11.60
9.27
7.11
5.37
4.18
3.54
3.33
3.34
3.40
3.41
3.36
3.23
2.93
2.26
0.99
-0.99
-3.55
-6.31
-8.76
-10.38
-10.88
-10.20
-8.56
-6.33
-3.93
-1.71
0.03
1.15
1.63
1.57
1.15
0.61
0.11
-0.23
-0.43
-0.53
-0.56
-0.52
-0.33
0.09
0.75
1.60
2.51
3.37
4.11
4.76
5.36
5.97
6.60
7.17
7.58
7.72
7.50
6.92
6.07
5.09
4.18
3.48
3.06
2.84
2.63
2.23
1.52
0.56
-0.43
-1.19
-1.55
-1.57
-1.48
-1.53
-1.88
-2.50
-3.25
-3.97
-4.58
-5.14
-5.73
-6.39
-7.11
-7.81
-8.49
-9.33
-10.57
-12.48
-15.13
-18.25
-21.29
-23.50
-24.26
-23.30
-20.82
-17.45
-13.97
-10.99
-8.81
-7.33
-6.23
-5.18
-4.04
-2.87
-1.86
-1.15
-0.76
-0.59
-0.43
-0.12
0.41
1.13
1.91
2.67
3.35
3.99
4.62
5.23
5.78
6.17
6.33
6.23
5.95
5.63
5.38
5.25
5.21
5.15
5.00
4.71
4.33
3.90
3.47
3.04
2.57
2.00
1.30
0.49
-0.33
-1.01
-1.47
-1.75
-2.02
-2.49
-3.36
-4.65
-6.22
-7.83
-9.19
-10.18
-10.80
-11.21
-11.65
-12.35
-13.52
-15.24
-17.46
-19.95
-22.29
-24.02
-24.70
-24.15
-22.46
-19.98
-17.15
-14.34
-11.77
-9.47
-7.43
-5.61
-4.06
-2.82
-1.93
-1.29
-0.76
-0.17
0.60
1.52
2.51
3.42
4.16
4.73
5.19
5.62
6.05
6.49
6.88
7.17
7.33
7.33
7.14
6.76
6.22
5.64
5.16
4.89
4.85
4.94
4.99
4.84
4.46
3.95
3.49
3.17
2.98
2.76
2.30
1.42
0.11
-1.47
-3.10
-4.52
-5.57
-6.22
-6.55
-6.75
-7.04
-7.63
-8.71
-10.30
-12.34
-14.61
-16.82
-18.61
-19.66
-19.70
-18.59
-16.43
-13.51
-10.34
-7.36
-4.86
-2.87
-1.15
0.54
2.29
3.95
5.19
5.76
5.61
5.01
4.34
3.96
4.00
4.39
4.93
5.42
5.79
6.08
6.37
6.71
7.09
7.39
7.49
7.27
6.74
5.98
5.20
4.56
4.17
4.00
3.94
3.82
3.48
2.84
1.87
0.66
-0.63
-1.88
-2.97
-3.89
-4.68
-5.42
-6.17
-6.96
-7.84
-8.93
-10.46
-12.59
-15.27
-18.14
-20.55
-21.77
-21.31
-19.14
-15.72
-11.80
-8.04
-4.87
-2.33
-0.23
1.66
3.39
4.88
5.94
6.45
6.47
6.20
5.89
5.76
5.87
6.14
6.41
6.54
6.48
6.32
6.26
6.49
7.08
7.94
8.80
9.38
9.44
8.98
8.12
7.08
6.00
4.97
3.98
3.06
2.28
1.73
1.43
1.23
0.88
0.13
-1.12
-2.74
-4.45
-5.94
-7.03
-7.74
-8.31
-9.04
-10.22
-11.95
-14.15
-16.54
-18.70
-20.21
-20.71
-20.00
-18.10
-15.25
-11.82
-8.24
-4.88
-1.96
0.41
2.26
3.68
4.72
5.42
5.80
5.95
5.97
6.02
6.19
6.46
6.74
6.93
7.04
7.19
7.54
8.20
9.12
10.05
10.71
10.92
10.72
10.31
9.91
9.66
9.53
9.43
9.22
8.83
8.20
7.23
5.90
4.17
2.14
0.01
-2.02
-3.83
-5.39
-6.72
-7.85
-8.71
-9.21
-9.35
-9.34
-9.53
-10.35
-12.09
-14.73
-17.92
-21.02
-23.36
-24.39
-23.92
-22.11
-19.38
-16.15
-12.81
-9.51
-6.32
-3.30
-0.54
1.79
3.58
4.88
5.83
6.64
7.41
8.14
8.73
9.12
9.37
9.60
9.94
10.41
10.90
11.30
11.50
11.51
11.39
11.25
11.10
10.94
10.69
10.27
9.65
8.81
7.78
6.63
5.46
4.39
3.47
2.67
1.90
1.06
0.11
-0.90
-1.86
-2.69
-3.44
-4.33
-5.69
-7.77
-10.61
-13.92
-17.13
-19.56
-20.63
-20.04
-17.94
-14.79
-11.22
-7.80
-4.78
-2.15
0.27
2.62
4.83
6.64
7.82
8.26
8.17
7.96
8.04
8.59
9.46
10.31
10.80
10.80
10.42
9.94
9.59
9.45
9.47
9.53
9.52
9.41
9.16
8.70
7.97
6.93
5.66
4.33
3.14
2.25
1.71
1.43
1.27
1.08
0.69
0.07
-0.79
-1.81
-2.86
-3.84
-4.72
-5.60
-6.69
-8.27
-10.55
-13.54
-16.93
-20.20
-22.72
-24.02
-23.91
-22.48
-20.03
-16.86
-13.25
-9.39
-5.52
-1.94
1.01
3.08
4.23
4.66
4.74
4.85
5.23
5.90
6.74
7.62
8.51
9.39
10.27
11.14
11.86
12.30
12.35
12.05
11.54
11.03
10.66
10.44
10.22
9.82
9.18
8.41
7.82
7.71
8.20
9.15
10.22
10.98
11.10
10.53
9.37
7.86
6.20
4.46
2.68
0.82
-1.08
-2.95
-4.65
-6.10
-7.23
-8.07
-8.72
-9.30
-9.99
-11.00
-12.56
-14.82
-17.73
-20.96
-23.90
-25.81
-26.04
-24.30
-20.75
-15.96
-10.71
-5.78
-1.70
1.27
3.14
4.14
4.58
4.81
5.12
5.66
6.43
7.32
8.14
8.83
9.49
10.28
11.37
12.69
13.97
14.72
14.56
13.42
11.62
9.74
8.34
7.71
7.73
8.01
8.17
8.04
7.75
7.52
7.48
7.55
7.45
6.99
6.14
5.09
4.12
3.36
2.70
1.88
0.59
-1.27
-3.59
-6.07
-8.42
-10.49
-12.39
-14.33
-16.60
-19.27
-22.22
-25.03
-27.10
-27.90
-27.14
-24.93
-21.86
-18.84
-16.75
-16.19
-17.21
-19.30
-21.50
-22.74
-22.06
-18.87
-13.10
-5.17
4.00
13.18
21.09
26.81
30.07
31.44
32.12
33.39
36.09
40.25
45.09
49.61
52.95
54.85
55.58
55.59
55.13
54.12
52.15
48.85
44.14
38.32
32.00
25.87
20.54
16.33
13.31
11.36
10.18
9.47
8.86
7.97
6.41
3.89
0.36
-3.95
-8.48
-12.53
-15.40
-16.63
-16.09
-13.99
-10.80
-7.12
-3.53
-0.42
2.04
3.96
5.65
7.43
9.51
11.86
14.16
15.92
16.53
15.48
12.39
7.24
0.39
-7.41
-15.20
-21.99
-27.12
-30.30
-31.69
-31.75
-31.06
-30.13
-29.23
-28.44
-27.65
-26.71
-25.55
-24.28
-23.14
-22.38
-22.17
-22.54
-23.46
-24.91
-26.92
-29.53
-32.69
-36.18
-39.65
-42.77
-45.37
-47.56
-49.59
-51.70
-53.83
-55.56
-56.22
-55.11
-51.80
-46.37
-39.36
-31.61
-23.99
-17.14
-11.34
-6.59
-2.75
0.40
3.04
5.36
7.54
9.73
11.95
14.05
15.81
17.02
17.62
17.74
17.62
17.47
17.40
17.42
17.57
17.95
18.68
19.80
21.15
22.37
23.07
23.01
22.26
21.09
19.92
19.01
18.42
17.99
17.50
16.72
15.59
14.12
12.43
10.64
8.82
7.04
5.30
3.62
2.00
0.45
-1.01
-2.34
-3.54
-4.60
-5.59
-6.63
-7.83
-9.31
-11.12
-13.20
-15.42
-17.56
-19.38
-20.64
-21.07
-20.42
-18.55
-15.48
-11.47
-7.02
-2.73
0.91
3.67
5.66
7.15
8.44
9.65
10.74
11.57
12.01
12.08
11.87
11.56
11.26
11.04
10.94
11.00
11.28
11.75
12.38
13.02
13.52
13.74
13.61
13.12
12.30
11.24
10.04
8.88
7.89
7.15
6.62
6.10
5.45
4.59
3.57
2.58
1.78
1.19
0.72
0.16
-0.66
-1.78
-3.09
-4.42
-5.58
-6.49
-7.20
-7.82
-8.54
-9.57
-11.09
-13.19
-15.76
-18.52
-20.93
-22.40
-22.47
-20.95
-18.08
-14.38
-10.45
-6.78
-3.60
-0.88
1.49
3.55
5.25
6.50
7.21
7.48
7.52
7.62
7.99
8.68
9.59
10.52
11.25
11.66
11.76
11.66
11.55
11.54
11.65
11.78
11.79
11.59
11.22
10.82
10.56
10.49
10.57
10.62
10.48
10.11
9.52
8.80
8.07
7.36
6.73
6.17
5.69
5.27
4.86
4.35
3.64
2.67
1.43
-0.01
-1.55
-3.07
-4.52
-5.83
-6.99
-7.99
-8.88
-9.71
-10.53
-11.44
-12.54
-13.97
-15.80
-18.03
-20.44
-22.65
-24.15
-24.51
-23.51
-21.22
-18.00
-14.36
-10.73
-7.41
-4.49
-1.98
0.19
2.05
3.59
4.78
5.62
6.11
6.36
6.49
6.59
6.76
6.99
7.28
7.62
8.05
8.62
9.32
10.08
10.74
11.16
11.26
11.10
10.82
10.57
10.44
10.39
10.29
10.03
9.57
8.93
8.17
7.34
6.45
5.50
4.55
3.68
2.98
2.46
2.09
1.77
1.42
1.00
0.51
-0.03
-0.64
-1.33
-2.06
-2.73
-3.22
-3.45
-3.45
-3.44
-3.69
-4.42
-5.71
-7.45
-9.40
-11.26
-12.75
-13.61
-13.69
-12.90
-11.24
-8.86
-6.00
-2.97
-0.06
2.48
4.52
6.01
7.02
7.67
8.05
8.24
8.24
8.07
7.81
7.56
7.47
7.63
8.01
8.44
8.72
8.73
8.49
8.15
7.89
7.81
7.82
7.71
7.27
6.40
5.18
3.84
2.67
1.87
1.47
1.35
1.30
1.12
0.69
-0.00
-0.92
-2.01
-3.25
-4.61
-6.06
-7.48
-8.77
-9.81
-10.58
-11.22
-11.94
-13.03
-14.65
-16.76
-19.09
-21.18
-22.51
-22.67
-21.45
-18.95
-15.49
-11.57
-7.65
-4.08
-1.07
1.33
3.17
4.51
5.42
5.99
6.25
6.31
6.28
6.28
6.41
6.74
7.22
7.79
8.37
8.91
9.41
9.88
10.28
10.55
10.63
10.54
10.35
10.21
10.16
10.11
9.87
9.23
8.12
6.64
5.05
3.61
2.46
1.64
1.07
0.71
0.49
0.34
0.09
-0.44
-1.38
-2.70
-4.20
-5.60
-6.71
-7.47
-8.07
-8.75
-9.73
-11.16
-13.08
-15.47
-18.18
-20.90
-23.13
-24.26
-23.82
-21.68
-18.14
-13.86
-9.56
-5.80
-2.81
-0.55
1.18
2.52
3.50
4.11
4.36
4.40
4.38
4.49
4.77
5.16
5.58
5.95
6.29
6.69
7.24
8.01
8.96
9.95
10.77
11.26
11.30
10.86
10.03
8.98
7.94
7.09
6.56
6.32
6.21
6.04
5.63
4.92
3.97
2.91
1.90
1.06
0.44
-0.01
-0.40
-0.90
-1.64
-2.68
-3.91
-5.18
-6.33
-7.31
-8.21
-9.21
-10.50
-12.10
-13.95
-15.89
-17.72
-19.21
-20.11
-20.14
-19.03
-16.68
-13.25
-9.16
-4.98
-1.21
1.89
4.35
6.32
7.93
9.17
9.94
10.21
10.02
9.61
9.21
8.98
8.87
8.77
8.54
8.20
7.95
8.01
8.50
9.29
10.15
10.82
11.14
11.13
10.92
10.60
10.17
9.55
8.64
7.44
6.06
4.74
3.65
2.86
2.29
1.80
1.20
0.40
-0.61
-1.77
-2.99
-4.23
-5.45
-6.64
-7.78
-8.87
-9.99
-11.27
-12.88
-14.92
-17.33
-19.78
-21.73
-22.62
-22.08
-20.05
-16.83
-12.96
-9.01
-5.37
-2.24
0.43
2.68
4.58
6.05
7.05
7.52
7.54
7.31
7.06
6.97
7.08
7.30
7.49
7.56
7.56
7.68
8.07
8.80
9.75
10.63
11.14
11.11
10.65
9.98
9.39
9.04
8.86
8.66
8.24
7.49
6.48
5.33
4.18
3.13
2.19
1.41
0.79
0.34
-0.01
-0.35
-0.84
-1.57
-2.54
-3.70
-4.92
-6.07
-7.08
-7.95
-8.84
-9.97
-11.59
-13.86
-16.68
-19.70
-22.35
-24.01
-24.26
-22.97
-20.31
-16.66
-12.53
-8.36
-4.53
-1.28
1.29
3.22
4.64
5.74
6.65
7.39
7.95
8.30
8.50
8.65
8.91
9.36
10.00
10.68
11.27
11.62
11.74
11.70
11.61
11.52
11.38
11.11
10.60
9.86
9.05
8.31
7.81
7.53
7.27
6.80
5.91
4.65
3.22
1.95
1.08
0.67
0.57
0.50
0.25
-0.28
-1.04
-1.93
-2.87
-3.81
-4.77
-5.73
-6.66
-7.49
-8.17
-8.73
-9.25
-9.89
-10.88
-12.39
-14.46
-16.89
-19.26
-21.00
-21.56
-20.66
-18.36
-15.01
-11.17
-7.37
-3.95
-1.07
1.31
3.25
4.84
6.10
7.06
7.77
8.29
8.73
9.15
9.54
9.87
10.07
10.15
10.24
10.46
10.90
11.51
12.09
12.43
12.41
12.06
11.55
11.03
10.58
10.18
9.75
9.26
8.72
8.22
7.77
7.30
6.69
5.84
4.75
3.58
2.57
1.88
1.53
1.35
1.06
0.51
-0.34
-1.35
-2.36
-3.30
-4.18
-5.10
-6.10
-7.12
-8.06
-8.85
-9.52
-10.22
-11.20
-12.60
-14.52
-16.82
-19.23
-21.32
-22.62
-22.75
-21.50
-18.93
-15.35
-11.27
-7.27
-3.80
-1.09
0.85
2.23
3.31
4.23
5.05
5.72
6.14
6.31
6.32
6.34
6.55
7.05
7.82
8.76
9.72
10.61
11.35
11.95
12.40
12.68
12.74
12.53
12.02
11.28
10.45
9.67
9.07
8.68
8.43
8.18
7.79
7.21
6.47
5.68
4.96
4.32
3.75
3.12
2.33
1.33
0.28
-0.64
-1.25
-1.54
-1.69
-2.03
-2.83
-4.12
-5.71
-7.21
-8.35
-9.04
-9.47
-9.93
-10.70
-11.93
-13.62
-15.67
-17.93
-20.19
-22.15
-23.38
-23.41
-21.96
-19.05
-15.05
-10.56
-6.26
-2.64
0.05
1.83
2.86
3.34
3.42
3.25
3.01
2.86
2.97
3.42
4.11
4.87
5.49
5.87
6.04
6.16
6.40
6.87
7.57
8.42
9.25
9.92
10.33
10.39
10.12
9.59
8.94
8.33
7.84
7.46
7.06
6.51
5.70
4.66
3.52
2.44
1.58
1.00
0.69
0.55
0.42
0.11
-0.54
-1.61
-3.02
-4.53
-5.88
-6.85
-7.44
-7.78
-8.11
-8.59
-9.31
-10.31
-11.62
-13.25
-15.11
-16.90
-18.14
-18.26
-16.92
-14.13
-10.34
-6.26
-2.57
0.30
2.29
3.58
4.48
5.28
6.08
6.88
7.52
7.87
7.86
7.54
7.09
6.73
6.66
6.92
7.43
8.00
8.49
8.86
9.22
9.68
10.25
10.80
11.11
11.04
10.61
10.00
9.40
8.85
8.26
7.41
6.21
4.73
3.25
2.08
1.36
1.01
0.74
0.23
-0.70
-2.02
-3.54
-5.00
-6.19
-7.06
-7.70
-8.34
-9.23
-10.53
-12.33
-14.54
-16.93
-19.19
-20.94
-21.86
-21.72
-20.48
-18.27
-15.36
-12.04
-8.56
-5.12
-1.89
1.00
3.35
5.06
6.12
6.67
6.97
7.22
7.55
7.91
8.17
8.24
8.17
8.10
8.19
8.55
9.12
9.78
10.40
10.88
11.22
11.37
11.32
10.96
10.26
9.29
8.19
7.15
6.31
5.69
5.18
4.68
4.06
3.32
2.48
1.62
0.79
-0.01
-0.77
-1.54
-2.35
-3.27
-4.36
-5.61
-6.93
-8.17
-9.17
-9.92
-10.56
-11.37
-12.66
-14.55
-16.92
-19.35
-21.26
-22.20
-21.89
-20.42
-18.08
-15.24
-12.19
-9.16
-6.29
-3.70
-1.52
0.19
1.45
2.41
3.22
4.03
4.86
5.65
6.29
6.73
7.03
7.32
7.78
8.45
9.28
10.07
10.64
10.90
10.91
10.87
10.90
11.07
11.22
11.19
10.84
10.18
9.38
8.66
8.16
7.93
7.86
7.83
7.73
7.50
7.09
6.50
5.80
5.06
4.37
3.79
3.28
2.73
1.99
1.00
-0.20
-1.47
-2.64
-3.61
-4.39
-5.07
-5.79
-6.68
-7.83
-9.33
-11.21
-13.50
-16.14
-18.90
-21.37
-23.01
-23.36
-22.16
-19.52
-15.84
-11.73
-7.76
-4.33
-1.57
0.58
2.29
3.68
4.80
5.64
6.17
6.44
6.55
6.70
7.05
7.72
8.70
9.88
11.03
11.91
12.38
12.43
12.15
11.75
11.41
11.24
11.21
11.22
11.13
10.87
10.41
9.83
9.19
8.59
8.04
7.52
6.99
6.40
5.71
4.94
4.15
3.45
2.91
2.53
2.23
1.83
1.20
0.27
-0.92
-2.19
-3.37
-4.38
-5.30
-6.27
-7.48
-8.98
-10.72
-12.56
-14.37
-16.10
-17.75
-19.23
-20.31
-20.64
-19.84
-17.81
-14.77
-11.28
-8.00
-5.38
-3.51
-2.14
-0.87
0.57
2.14
3.56
4.51
4.84
4.70
4.46
4.52
5.04
5.94
6.93
7.71
8.19
8.47
8.77
9.25
9.84
10.33
10.50
10.24
9.67
9.03
8.55
8.32
8.27
8.19
7.96
7.51
6.93
6.36
5.89
5.56
5.31
5.05
4.72
4.30
3.85
3.46
3.17
2.98
2.76
2.35
1.61
0.53
-0.79
-2.15
-3.38
-4.40
-5.23
-5.95
-6.66
-7.46
-8.45
-9.83
-11.73
-14.18
-16.97
-19.64
-21.56
-22.24
-21.44
-19.33
-16.37
-13.14
-10.12
-7.56
-5.57
-4.03
-2.80
-1.70
-0.60
0.60
1.90
3.22
4.41
5.35
5.93
6.18
6.21
6.21
6.35
6.76
7.43
8.30
9.23
10.07
10.67
10.95
10.90
10.59
10.13
9.63
9.16
8.78
8.48
8.24
8.00
7.65
7.07
6.16
4.94
3.50
2.12
1.06
0.48
0.39
0.57
0.72
0.58
0.06
-0.79
-1.76
-2.66
-3.34
-3.76
-3.96
-4.04
-4.09
-4.26
-4.76
-5.80
-7.53
-9.87
-12.46
-14.76
-16.15
-16.26
-15.01
-12.68
-9.77
-6.81
-4.18
-2.07
-0.49
0.67
1.56
2.32
3.04
3.79
4.52
5.16
5.64
5.95
6.16
6.40
6.79
7.35
8.00
8.57
8.94
9.09
9.12
9.12
9.14
9.07
8.76
8.10
7.14
6.11
5.27
4.78
4.62
4.55
4.33
3.80
3.01
2.13
1.39
0.88
0.59
0.41
0.20
-0.17
-0.80
-1.71
-2.88
-4.19
-5.44
-6.43
-7.07
-7.42
-7.68
-8.13
-9.01
-10.45
-12.44
-14.85
-17.37
-19.59
-21.04
-21.28
-20.10
-17.60
-14.20
-10.48
-7.02
-4.18
-2.07
-0.57
0.57
1.55
2.55
3.61
4.70
5.72
6.50
6.94
7.00
6.78
6.46
6.27
6.37
6.80
7.49
8.31
9.09
9.68
9.98
9.97
9.69
9.24
8.75
8.33
8.02
7.83
7.65
7.36
6.88
6.17
5.27
4.32
3.45
2.77
2.29
1.91
1.50
0.98
0.33
-0.35
-0.88
-1.20
-1.33
-1.41
-1.66
-2.19
-3.02
-4.04
-5.14
-6.24
-7.34
-8.45
-9.62
-10.87
-12.28
-13.93
-15.93
-18.23
-20.57
-22.48
-23.38
-22.82
-20.74
-17.49
-13.67
-9.92
-6.63
-3.91
-1.70
0.16
1.74
3.04
4.04
4.76
5.32
5.84
6.38
6.94
7.44
7.84
8.18
8.55
9.08
9.82
10.73
11.73
12.67
13.53
14.32
15.11
15.90
16.50
16.62
15.95
14.37
12.05
9.36
6.73
4.45
2.62
1.16
0.02
-0.79
-1.18
-1.14
-0.77
-0.35
-0.15
-0.35
-0.94
-1.79
-2.73
-3.67
-4.49
-5.08
-5.37
-5.34
-5.14
-5.09
-5.53
-6.71
-8.64
-11.02
-13.46
-15.51
-16.83
-17.14
-16.30
-14.33
-11.43
-7.99
-4.57
-1.63
0.57
2.06
3.10
3.98
4.89
5.79
6.54
6.97
7.04
6.86
6.59
6.32
6.05
5.69
5.19
4.64
4.24
4.21
4.69
5.63
6.78
7.83
8.54
8.80
8.61
8.07
7.33
6.51
5.75
5.18
4.82
4.58
4.31
3.81
2.98
1.87
0.68
-0.39
-1.21
-1.81
-2.29
-2.76
-3.27
-3.76
-4.20
-4.59
-4.99
-5.53
-6.30
-7.38
-8.86
-10.73
-12.97
-15.37
-17.56
-19.06
-19.44
-18.47
-16.28
-13.29
-10.06
-7.05
-4.48
-2.38
-0.61
0.94
2.33
3.53
4.45
5.07
5.38
5.46
5.47
5.54
5.77
6.14
6.54
6.85
6.98
6.96
6.93
7.06
7.43
7.92
8.30
8.34
7.94
7.21
6.44
5.88
5.67
5.74
5.89
5.93
5.78
5.44
4.99
4.43
3.78
3.01
2.17
1.36
0.68
0.15
-0.30
-0.82
-1.54
-2.50
-3.60
-4.70
-5.61
-6.27
-6.72
-7.07
-7.52
-8.30
-9.57
-11.41
-13.71
-16.19
-18.35
-19.69
-19.80
-18.55
-16.17
-13.13
-9.96
-7.09
-4.67
-2.68
-0.96
0.54
1.77
2.62
3.07
3.18
3.16
3.19
3.41
3.83
4.36
4.90
5.40
5.85
6.29
6.78
7.35
8.03
8.75
9.42
9.93
10.19
10.21
10.05
9.81
9.56
9.31
8.98
8.53
7.89
7.08
6.13
5.11
4.08
3.15
2.41
1.92
1.62
1.41
1.10
0.56
-0.22
-1.13
-1.98
-2.64
-3.08
-3.41
-3.84
-4.65
-6.09
-8.26
-11.03
-14.02
-16.63
-18.25
-18.47
-17.25
-14.86
-11.87
-8.82
-6.14
-3.97
-2.26
-0.85
0.42
1.66
2.83
3.85
4.62
5.08
5.25
5.22
5.10
4.97
4.86
4.85
5.01
5.47
6.30
7.48
8.80
9.98
10.72
10.85
10.35
9.41
8.31
7.34
6.71
6.49
6.58
6.83
7.01
6.97
6.62
5.98
5.08
4.01
2.93
1.96
1.23
0.78
0.55
0.34
-0.05
-0.78
-1.81
-3.03
-4.26
-5.37
-6.30
-7.10
-7.83
-8.57
-9.42
-10.48
-11.86
-13.60
-15.59
-17.54
-19.04
-19.69
-19.26
-17.77
-15.43
-12.60
-9.66
-6.87
-4.44
-2.46
-0.93
0.21
1.10
1.88
2.66
3.48
4.29
4.99
5.50
5.81
5.96
6.03
6.10
6.18
6.30
6.49
6.80
7.25
7.81
8.39
8.86
9.14
9.19
9.03
8.70
8.25
7.72
7.15
6.59
6.12
5.75
5.47
5.23
5.01
4.83
4.79
4.92
5.17
5.35
5.27
4.79
3.99
3.07
2.30
1.81
1.56
1.29
0.74
-0.29
-1.80
-3.59
-5.36
-6.78
-7.69
-8.07
-8.05
-7.94
-8.09
-8.87
-10.47
-12.81
-15.55
-18.12
-19.93
-20.54
-19.82
-17.97
-15.37
-12.46
-9.58
-6.96
-4.70
-2.85
-1.40
-0.35
0.36
0.79
1.04
1.24
1.47
1.81
2.28
2.84
3.46
4.15
4.96
5.97
7.17
8.48
9.69
10.64
11.18
11.38
11.37
11.30
11.21
11.05
10.65
9.92
8.90
7.76
6.72
5.92
5.36
4.93
4.44
3.78
2.96
2.11
1.36
0.83
0.52
0.42
0.41
0.42
0.35
0.17
-0.16
-0.66
-1.27
-1.98
-2.71
-3.39
-3.93
-4.23
-4.29
-4.20
-4.24
-4.74
-5.97
-7.96
-10.37
-12.61
-13.99
-14.08
-12.85
-10.66
-8.02
-5.40
-3.04
-0.97
0.85
2.41
3.63
4.42
4.82
4.99
5.13
5.37
5.68
5.91
5.93
5.69
5.33
5.02
4.93
5.17
5.68
6.39
7.15
7.82
8.27
8.46
8.41
8.23
8.03
7.85
7.68
7.41
6.98
6.36
5.61
4.83
4.10
3.44
2.83
2.24
1.70
1.22
0.77
0.31
-0.27
-1.07
-2.09
-3.32
-4.69
-6.15
-7.67
-9.16
-10.50
-11.52
-12.12
-12.39
-12.65
-13.35
-14.80
-16.94
-19.30
-21.09
-21.64
-20.66
-18.34
-15.24
-11.99
-9.00
-6.38
-4.05
-1.95
-0.13
1.24
2.00
2.22
2.08
1.93
2.03
2.43
3.01
3.55
3.91
4.08
4.25
4.62
5.25
6.09
6.88
7.41
7.53
7.34
7.05
6.92
7.05
7.41
7.79
7.98
7.86
7.46
6.90
6.28
5.68
5.06
4.42
3.79
3.25
2.93
2.83
2.85
2.81
2.54
1.92
0.97
-0.21
-1.54
-2.96
-4.39
-5.70
-6.72
-7.29
-7.40
-7.26
-7.23
-7.72
-9.00
-11.10
-13.71
-16.38
-18.63
-20.07
-20.46
-19.74
-17.98
-15.42
-12.38
-9.26
-6.40
-4.05
-2.23
-0.85
0.28
1.30
2.24
3.02
3.47
3.55
3.31
2.97
2.79
3.01
3.69
4.72
5.87
6.90
7.65
8.13
8.46
8.77
9.10
9.42
9.63
9.64
9.44
9.11
8.78
8.53
8.39
8.26
7.98
7.42
6.50
5.32
4.05
2.93
2.12
1.69
1.57
1.57
1.47
1.11
0.49
-0.30
-1.09
-1.76
-2.27
-2.71
-3.20
-3.83
-4.60
-5.45
-6.39
-7.50
-8.91
-10.68
-12.65
-14.46
-15.60
-15.65
-14.51
-12.39
-9.77
-7.09
-4.64
-2.46
-0.45
1.51
3.40
5.09
6.42
7.26
7.61
7.53
7.17
6.66
6.12
5.71
5.56
5.78
6.40
7.32
8.38
9.35
10.02
10.29
10.10
9.52
8.69
7.78
6.96
6.36
6.05
6.01
6.14
6.30
6.34
6.17
5.78
5.21
4.58
3.99
3.54
3.23
2.99
2.68
2.13
1.22
-0.04
-1.56
-3.15
-4.59
-5.70
-6.44
-6.87
-7.20
-7.70
-8.67
-10.29
-12.59
-15.34
-18.09
-20.21
-21.12
-20.45
-18.23
-14.82
-10.81
-6.81
-3.27
-0.39
1.76
3.26
4.15
4.49
4.45
4.25
4.16
4.38
4.91
5.59
6.17
6.46
6.43
6.20
5.94
5.77
5.78
5.98
6.39
6.97
7.62
8.17
8.40
8.17
7.52
6.64
5.80
5.22
4.92
4.79
4.63
4.29
3.73
2.99
2.14
1.24
0.28
-0.73
-1.75
-2.74
-3.63
-4.43
-5.17
-5.91
-6.69
-7.42
-8.00
-8.36
-8.50
-8.62
-8.96
-9.83
-11.38
-13.52
-15.93
-18.10
-19.49
-19.68
-18.52
-16.15
-12.97
-9.49
-6.15
-3.23
-0.81
1.12
2.66
3.82
4.59
4.97
4.99
4.75
4.38
4.02
3.74
3.58
3.53
3.62
3.87
4.34
5.01
5.83
6.68
7.46
8.05
8.39
8.43
8.16
7.63
6.94
6.23
5.62
5.16
4.82
4.49
4.04
3.45
2.79
2.18
1.72
1.43
1.23
0.94
0.45
-0.33
-1.35
-2.52
-3.71
-4.80
-5.75
-6.61
-7.51
-8.57
-9.94
-11.67
-13.70
-15.86
-17.87
-19.39
-20.10
-19.75
-18.26
-15.73
-12.50
-8.98
-5.55
-2.49
0.07
2.18
3.87
5.15
5.97
6.25
6.07
5.58
5.08
4.77
4.77
5.01
5.33
5.61
5.81
5.97
6.14
6.36
6.58
6.78
6.91
6.98
7.03
7.10
7.22
7.42
7.69
8.04
8.45
8.85
9.18
9.36
9.34
9.11
8.69
8.13
7.45
6.70
5.91
5.12
4.41
3.83
3.44
3.22
3.04
2.72
2.10
1.06
-0.35
-1.97
-3.59
-5.02
-6.21
-7.19
-8.05
-8.97
-10.13
-11.65
-13.58
-15.75
-17.80
-19.26
-19.70
-18.87
-16.84
-13.93
-10.60
-7.34
-4.42
-1.96
0.09
1.77
3.17
4.29
5.18
5.89
6.46
6.94
7.36
7.68
7.89
7.97
7.98
7.99
8.13
8.49
9.11
9.91
10.77
11.48
11.88
11.85
11.38
10.62
9.75
8.95
8.32
7.83
7.37
6.86
6.24
5.56
4.90
4.29
3.74
3.20
2.62
2.00
1.43
0.99
0.73
0.60
0.46
0.13
-0.55
-1.63
-3.06
-4.72
-6.43
-8.04
-9.42
-10.56
-11.51
-12.47
-13.70
-15.42
-17.69
-20.30
-22.82
-24.67
-25.32
-24.53
-22.34
-19.09
-15.28
-11.38
-7.76
-4.59
-1.90
0.38
2.30
3.92
5.23
6.22
6.93
7.41
7.77
8.10
8.43
8.78
9.08
9.30
9.48
9.69
10.04
10.55
11.16
11.72
12.05
12.04
11.67
11.05
10.36
9.73
9.29
9.04
8.94
8.88
8.74
8.45
7.94
7.24
6.39
5.48
4.60
3.83
3.22
2.77
2.48
2.29
2.13
1.90
1.47
0.73
-0.36
-1.73
-3.19
-4.51
-5.49
-6.09
-6.46
-6.87
-7.63
-8.97
-10.91
-13.25
-15.66
-17.73
-19.10
-19.51
-18.85
-17.14
-14.57
-11.42
-8.02
-4.68
-1.64
1.01
3.25
5.12
6.66
7.85
8.64
8.99
8.96
8.68
8.36
8.19
8.26
8.56
8.99
9.46
9.89
10.30
10.70
11.07
11.34
11.44
11.34
11.04
10.59
10.09
9.55
8.96
8.28
7.51
6.67
5.89
5.29
4.97
4.96
5.19
5.47
5.65
5.56
5.13
4.40
3.45
2.33
1.09
-0.27
-1.76
-3.30
-4.79
-6.10
-7.19
-8.10
-9.00
-10.07
-11.50
-13.41
-15.81
-18.54
-21.32
-23.69
-25.16
-25.34
-24.07
-21.51
-18.09
-14.33
-10.65
-7.31
-4.39
-1.90
0.13
1.69
2.82
3.68
4.46
5.36
6.41
7.48
8.40
8.99
9.25
9.30
9.32
9.45
9.70
10.04
10.36
10.65
10.90
11.15
11.37
11.53
11.54
11.36
10.99
10.47
9.86
9.18
8.40
7.51
6.54
5.59
4.83
4.35
4.14
4.06
3.90
3.46
2.67
1.58
0.37
-0.77
-1.72
-2.44
-2.98
-3.42
-3.94
-4.59
-5.47
-6.54
-7.68
-8.74
-9.56
-10.07
-10.36
-10.61
-11.10
-12.12
-13.79
-16.03
-18.51
-20.72
-22.11
-22.29
-21.11
-18.74
-15.54
-11.98
-8.43
-5.16
-2.30
0.10
2.03
3.50
4.59
5.43
6.15
6.90
7.69
8.47
9.13
9.58
9.81
9.91
10.02
10.24
10.63
11.16
11.75
12.32
12.82
13.19
13.37
13.25
12.75
11.89
10.86
9.93
9.35
9.17
9.24
9.25
8.93
8.21
7.25
6.33
5.67
5.32
5.16
5.00
4.68
4.14
3.44
2.69
1.94
1.18
0.34
-0.60
-1.66
-2.80
-3.94
-5.02
-5.99
-6.91
-7.96
-9.36
-11.31
-13.83
-16.65
-19.25
-21.05
-21.55
-20.60
-18.42
-15.50
-12.37
-9.44
-6.83
-4.50
-2.38
-0.49
1.04
2.05
2.53
2.64
2.66
2.82
3.20
3.69
4.13
4.37
4.44
4.52
4.83
5.53
6.61
7.91
9.23
10.34
11.07
11.33
11.15
10.62
9.88
9.09
8.40
7.87
7.50
7.22
6.92
6.52
5.97
5.26
4.44
3.59
2.77
2.05
1.43
0.87
0.29
-0.39
-1.22
-2.24
-3.42
-4.71
-6.06
-7.39
-8.62
-9.71
-10.64
-11.48
-12.37
-13.50
-15.00
-16.85
-18.81
-20.45
-21.32
-21.06
-19.58
-17.10
-14.02
-10.77
-7.66
-4.83
-2.32
-0.15
1.60
2.85
3.57
3.84
3.85
3.80
3.84
4.02
4.31
4.67
5.10
5.62
6.27
7.03
7.82
8.55
9.16
9.69
10.17
10.61
10.92
10.98
10.67
9.98
9.00
7.96
7.09
6.52
6.25
6.14
5.97
5.57
4.88
3.98
3.01
2.11
1.35
0.68
0.02
-0.71
-1.52
-2.35
-3.13
-3.80
-4.35
-4.82
-5.27
-5.78
-6.38
-7.17
-8.29
-9.85
-11.95
-14.50
-17.19
-19.62
-21.29
-21.86
-21.20
-19.41
-16.84
-13.86
-10.83
-7.93
-5.21
-2.68
-0.34
1.70
3.34
4.53
5.34
5.93
6.52
7.20
7.96
8.66
9.13
9.33
9.32
9.30
9.43
9.82
10.44
11.19
11.88
12.32
12.36
11.97
11.24
10.33
9.42
8.67
8.12
7.76
7.49
7.26
6.98
6.61
6.05
5.25
4.22
3.06
1.94
0.98
0.16
-0.66
-1.72
-3.13
-4.80
-6.46
-7.80
-8.69
-9.29
-9.95
-11.15
-13.08
-15.65
-18.33
-20.50
-21.64
-21.52
-20.24
-18.12
-15.53
-12.74
-9.93
-7.16
-4.53
-2.16
-0.12
1.52
2.79
3.77
4.58
5.27
5.90
6.46
6.96
7.45
7.97
8.57
9.22
9.88
10.47
10.95
11.32
11.61
11.84
11.94
11.80
11.33
10.51
9.47
8.47
7.73
7.39
7.45
7.74
8.03
8.07
7.70
6.85
5.56
4.00
2.39
0.97
-0.06
-0.62
-0.79
-0.74
-0.72
-0.97
-1.61
-2.64
-3.89
-5.16
-6.27
-7.19
-8.05
-9.08
-10.55
-12.56
-15.02
-17.67
-20.09
-21.88
-22.71
-22.40
-20.99
-18.68
-15.81
-12.79
-9.94
-7.43
-5.31
-3.51
-1.95
-0.59
0.56
1.50
2.23
2.83
3.40
4.04
4.83
5.79
6.89
8.05
9.18
10.18
10.96
11.52
11.86
12.02
12.06
12.00
11.89
11.75
11.58
11.35
11.00
10.45
9.65
8.64
7.53
6.47
5.58
4.93
4.50
4.25
4.09
3.96
3.79
3.54
3.20
2.77
2.30
1.82
1.31
0.72
-0.04
-1.05
-2.29
-3.67
-5.04
-6.24
-7.18
-7.82
-8.23
-8.49
-8.77
-9.27
-10.21
-11.70
-13.71
-15.93
-17.90
-19.08
-19.09
-17.86
-15.64
-12.91
-10.15
-7.68
-5.56
-3.70
-1.98
-0.36
1.13
2.39
3.38
4.10
4.63
4.99
5.14
5.06
4.75
4.39
4.26
4.62
5.59
7.05
8.68
10.11
11.08
11.54
11.62
11.54
11.47
11.49
11.58
11.65
11.63
11.49
11.22
10.85
10.44
10.03
9.66
9.30
8.87
8.32
7.63
6.87
6.20
5.75
5.51
5.33
4.89
3.97
2.49
0.62
-1.30
-2.96
-4.22
-5.17
-6.00
-6.91
-8.02
-9.37
-11.04
-13.10
-15.56
-18.25
-20.79
-22.62
-23.25
-22.44
-20.31
-17.22
-13.67
-10.10
-6.81
-3.97
-1.63
0.19
1.54
2.49
3.17
3.70
4.18
4.72
5.39
6.21
7.11
8.01
8.74
9.23
9.46
9.53
9.61
9.83
10.24
10.79
11.38
11.87
12.12
12.05
11.63
10.94
10.12
9.30
8.59
7.99
7.46
6.94
6.36
5.75
5.14
4.61
4.17
3.80
3.43
3.02
2.54
2.00
1.44
0.92
0.49
0.08
-0.43
-1.20
-2.34
-3.85
-5.57
-7.28
-8.79
-9.99
-10.93
-11.78
-12.76
-14.11
-15.96
-18.26
-20.70
-22.79
-23.99
-23.91
-22.51
-20.10
-17.18
-14.21
-11.44
-8.90
-6.53
-4.31
-2.35
-0.77
0.37
1.18
1.83
2.49
3.20
3.90
4.49
4.95
5.33
5.74
6.23
6.80
7.40
8.03
8.72
9.52
10.43
11.29
11.88
11.94
11.37
10.28
8.94
7.75
7.00
6.78
6.93
7.20
7.32
7.17
6.75
6.10
5.31
4.42
3.45
2.45
1.52
0.74
0.14
-0.29
-0.66
-1.10
-1.71
-2.49
-3.45
-4.49
-5.54
-6.45
-7.13
-7.57
-7.86
-8.27
-9.04
-10.37
-12.23
-14.37
-16.38
-17.79
-18.24
-17.58
-15.89
-13.43
-10.53
-7.52
-4.63
-2.02
0.25
2.14
3.67
4.83
5.66
6.17
6.43
6.51
6.49
6.46
6.52
6.72
7.06
7.50
7.97
8.39
8.79
9.19
9.68
10.21
10.66
10.82
10.54
9.82
8.82
7.81
6.97
6.37
5.90
5.42
4.84
4.19
3.56
3.00
2.49
1.87
1.02
-0.11
-1.43
-2.76
-3.96
-4.90
-5.61
-6.15
-6.57
-6.95
-7.38
-8.00
-9.06
-10.75
-13.09
-15.88
-18.60
-20.65
-21.50
-20.93
-19.11
-16.43
-13.38
-10.33
-7.44
-4.73
-2.24
-0.02
1.81
3.12
3.89
4.26
4.39
4.49
4.71
5.08
5.60
6.19
6.73
7.09
7.25
7.23
7.17
7.21
7.46
7.85
8.23
8.39
8.16
7.51
6.59
5.63
4.88
4.46
4.36
4.45
4.45
4.12
3.34
2.14
0.79
-0.37
-1.07
-1.25
-1.11
-0.99
-1.19
-1.88
-2.98
-4.25
-5.48
-6.56
-7.48
-8.34
-9.25
-10.38
-11.87
-13.85
-16.30
-19.00
-21.47
-23.13
-23.49
-22.32
-19.80
-16.37
-12.57
-8.88
-5.63
-2.97
-0.92
0.61
1.78
2.79
3.78
4.83
5.87
6.79
7.49
7.97
8.27
8.51
8.74
9.01
9.28
9.59
9.95
10.41
10.87
11.21
11.27
10.97
10.38
9.66
8.95
8.31
7.67
6.97
6.21
5.51
5.02
4.85
4.97
5.23
5.42
5.37
5.03
4.50
3.89
3.31
2.80
2.35
1.86
1.21
0.33
-0.81
-2.16
-3.55
-4.79
-5.74
-6.38
-6.88
-7.51
-8.60
-10.38
-12.90
-15.93
-19.00
-21.51
-22.91
-22.86
-21.33
-18.59
-15.10
-11.39
-7.84
-4.69
-2.03
0.14
1.83
3.00
3.65
3.88
3.89
3.94
4.24
4.85
5.67
6.52
7.22
7.73
8.15
8.61
9.25
10.06
10.93
11.67
12.13
12.28
12.14
11.77
11.27
10.66
9.93
9.13
8.33
7.70
7.35
7.34
7.58
7.90
8.08
7.98
7.56
6.88
6.04
5.22
4.55
4.17
4.13
4.35
4.64
4.76
4.52
3.91
3.00
1.90
0.65
-0.78
-2.43
-4.29
-6.17
-7.84
-9.12
-10.01
-10.75
-11.72
-13.23
-15.39
-18.04
-20.77
-23.04
-24.30
-24.16
-22.55
-19.69
-16.09
-12.36
-9.05
-6.41
-4.41
-2.82
-1.35
0.16
1.72
3.19
4.40
5.27
5.86
6.28
6.71
7.23
7.83
8.46
9.00
9.39
9.63
9.81
10.05
10.44
11.00
11.60
12.11
12.40
12.42
12.23
11.94
11.64
11.39
11.16
10.88
10.51
10.02
9.41
8.67
7.80
6.84
5.88
5.10
4.61
4.43
4.45
4.45
4.21
3.60
2.58
1.27
-0.19
-1.66
-3.05
-4.28
-5.31
-6.10
-6.63
-6.95
-7.13
-7.30
-7.58
-8.06
-8.78
-9.76
-10.99
-12.45
-14.12
-15.88
-17.50
-18.70
-19.14
-18.61
-17.07
-14.69
-11.82
-8.80
-5.92
-3.40
-1.34
0.24
1.38
2.20
2.87
3.59
4.44
5.43
6.44
7.34
8.08
8.62
9.06
9.44
9.82
10.17
10.46
10.68
10.86
11.04
11.23
11.41
11.48
11.35
11.02
10.52
10.01
9.59
9.30
9.07
8.78
8.32
7.69
6.97
6.28
5.73
5.35
5.08
4.87
4.61
4.23
3.63
2.76
1.61
0.31
-0.95
-2.00
-2.75
-3.27
-3.70
-4.16
-4.63
-5.01
-5.21
-5.25
-5.35
-5.82
-6.96
-8.85
-11.33
-13.98
-16.25
-17.67
-17.91
-16.91
-14.89
-12.26
-9.49
-7.00
-5.00
-3.49
-2.32
-1.30
-0.28
0.78
1.81
2.71
3.39
3.84
4.08
4.21
4.29
4.40
4.57
4.84
5.22
5.70
6.23
6.72
7.04
7.09
6.85
6.39
5.90
5.58
5.57
5.87
6.34
6.76
6.96
6.85
6.48
5.94
5.33
4.71
4.11
3.50
2.90
2.36
1.94
1.67
1.54
1.41
1.17
0.67
-0.09
-1.07
-2.15
-3.22
-4.21
-5.11
-5.88
-6.52
-6.99
-7.39
-7.86
-8.69
-10.09
-12.14
-14.65
-17.16
-19.13
-20.09
-19.81
-18.38
-16.11
-13.42
-10.72
-8.32
-6.41
-5.03
-4.10
-3.45
-2.86
-2.18
-1.33
-0.40
0.47
1.19
1.70
2.11
2.53
3.08
3.84
4.78
5.85
6.97
8.03
8.91
9.53
9.81
9.78
9.53
9.18
8.86
8.64
8.49
8.32
8.00
7.45
6.70
5.83
5.00
4.31
3.74
3.25
2.75
2.23
1.74
1.34
0.99
0.59
-0.04
-0.95
-2.08
-3.25
-4.29
-5.11
-5.76
-6.33
-6.90
-7.46
-8.01
-8.55
-9.20
-10.16
-11.63
-13.66
-16.02
-18.28
-19.88
-20.33
-19.40
-17.22
-14.23
-10.97
-7.96
-5.47
-3.54
-2.05
-0.86
0.16
1.05
1.84
2.55
3.23
3.92
4.60
5.21
5.69
6.05
6.34
6.66
7.14
7.81
8.67
9.60
10.44
11.05
11.35
11.39
11.26
11.02
10.69
10.23
9.58
8.74
7.83
6.96
6.25
5.68
5.16
4.55
3.79
2.90
2.03
1.30
0.67
0.01
-0.86
-2.04
-3.42
-4.76
-5.80
-6.43
-6.75
-7.04
-7.61
-8.71
-10.41
-12.61
-15.07
-17.46
-19.38
-20.44
-20.32
-18.89
-16.28
-12.90
-9.27
-5.88
-3.04
-0.82
0.88
2.22
3.30
4.13
4.65
4.79
4.61
4.22
3.82
3.61
3.72
4.16
4.87
5.72
6.56
7.22
7.56
7.49
7.07
6.45
5.88
5.56
5.53
5.71
5.91
5.94
5.73
5.34
4.87
4.41
3.95
3.43
2.76
1.98
1.17
0.49
0.03
-0.21
-0.33
-0.50
-0.86
-1.50
-2.40
-3.46
-4.53
-5.45
-6.13
-6.54
-6.79
-7.12
-7.85
-9.28
-11.56
-14.49
-17.57
-20.13
-21.55
-21.50
-20.11
-17.80
-15.10
-12.41
-9.90
-7.54
-5.28
-3.09
-1.09
0.59
1.85
2.70
3.26
3.66
4.03
4.48
5.04
5.76
6.58
7.42
8.17
8.73
9.08
9.27
9.39
9.53
9.70
9.88
10.01
10.02
9.89
9.63
9.35
9.14
9.05
9.03
8.98
8.71
8.09
7.12
5.91
4.67
3.60
2.80
2.26
1.88
1.55
1.18
0.71
0.12
-0.57
-1.35
-2.16
-2.90
-3.56
-4.13
-4.67
-5.32
-6.20
-7.48
-9.26
-11.48
-13.94
-16.23
-17.88
-18.42
-17.62
-15.54
-12.50
-9.01
-5.55
-2.43
0.23
2.48
4.38
5.95
7.12
7.82
8.01
7.80
7.37
6.97
6.79
6.90
7.25
7.71
8.19
8.67
9.19
9.84
10.63
11.49
12.19
12.45
12.10
11.13
9.74
8.30
7.09
6.27
5.73
5.21
4.48
3.43
2.19
0.99
0.10
-0.36
-0.43
-0.32
-0.29
-0.57
-1.26
-2.30
-3.56
-4.86
-6.10
-7.24
-8.32
-9.44
-10.74
-12.34
-14.31
-16.63
-19.03
-21.07
-22.23
-22.04
-20.36
-17.40
-13.70
-9.95
-6.67
-4.08
-2.09
-0.44
1.10
2.60
3.95
5.02
5.73
6.17
6.49
6.86
7.33
7.84
8.23
8.42
8.42
8.37
8.45
8.73
9.21
9.78
10.32
10.74
10.95
10.93
10.64
10.11
9.41
8.66
8.01
7.53
7.19
6.87
6.42
5.75
4.87
3.88
2.86
1.87
0.91
0.02
-0.79
-1.44
-1.92
-2.34
-2.85
-3.63
-4.76
-6.12
-7.49
-8.60
-9.30
-9.61
-9.73
-9.98
-10.67
-11.94
-13.80
-15.96
-18.05
-19.58
-20.14
-19.50
-17.66
-14.89
-11.63
-8.41
-5.62
-3.51
-2.06
-1.08
-0.31
0.48
1.37
2.30
3.14
3.75
4.11
4.30
4.49
4.83
5.37
6.09
6.87
7.60
8.21
8.70
9.06
9.30
9.39
9.34
9.14
8.84
8.48
8.09
7.69
7.26
6.81
6.38
5.97
5.64
5.38
5.19
5.03
4.89
4.78
4.68
4.57
4.44
4.24
3.99
3.71
3.40
3.03
2.55
1.87
0.99
-0.04
-1.11
-2.13
-3.09
-4.14
-5.49
-7.35
-9.74
-12.44
-14.96
-16.79
-17.52
-17.00
-15.40
-13.12
-10.56
-8.06
-5.73
-3.60
-1.65
0.06
1.48
2.56
3.34
3.93
4.45
4.95
5.43
5.84
6.14
6.36
6.53
6.72
6.93
7.13
7.28
7.39
7.50
7.68
7.97
8.35
8.74
9.06
9.27
9.37
9.41
9.46
9.48
9.39
9.04
8.29
7.18
5.86
4.59
3.60
2.95
2.52
2.09
1.43
0.41
-0.94
-2.48
-4.03
-5.41
-6.54
-7.43
-8.16
-8.80
-9.48
-10.33
-11.48
-13.07
-15.11
-17.45
-19.68
-21.27
-21.69
-20.65
-18.24
-14.97
-11.49
-8.47
-6.19
-4.61
-3.37
-2.07
-0.46
1.42
3.31
4.89
5.93
6.42
6.50
6.47
6.54
6.82
7.31
7.94
8.66
9.43
10.19
10.83
11.22
11.26
10.88
10.19
9.33
8.52
7.93
7.62
7.58
7.70
7.83
7.85
7.68
7.32
6.85
6.34
5.85
5.35
4.82
4.24
3.60
2.97
2.39
1.89
1.41
0.84
0.05
-0.98
-2.19
-3.37
-4.34
-4.97
-5.32
-5.66
-6.37
-7.80
-10.08
-13.02
-16.07
-18.55
-19.85
-19.69
-18.17
-15.75
-12.98
-10.33
-8.03
-6.09
-4.35
-2.70
-1.14
0.24
1.31
2.01
2.40
2.60
2.77
3.02
3.34
3.68
3.96
4.17
4.38
4.71
5.21
5.86
6.52
7.06
7.38
7.46
7.39
7.26
7.12
6.98
6.80
6.54
6.24
5.93
5.67
5.48
5.38
5.35
5.39
5.44
5.48
5.41
5.15
4.69
4.07
3.37
2.67
2.00
1.27
0.40
-0.69
-1.96
-3.27
-4.43
-5.31
-5.89
-6.30
-6.81
-7.68
-9.11
-11.13
-13.52
-15.90
-17.77
-18.65
-18.30
-16.76
-14.38
-11.60
-8.88
-6.47
-4.44
-2.72
-1.16
0.30
1.68
2.91
3.91
4.59
4.92
4.95
4.80
4.69
4.84
5.36
6.23
7.26
8.20
8.89
9.28
9.52
9.75
10.08
10.45
10.66
10.53
9.89
8.82
7.54
6.34
5.51
5.16
5.21
5.44
5.58
5.45
4.97
4.23
3.35
2.48
1.69
0.99
0.36
-0.19
-0.69
-1.15
-1.65
-2.28
-3.11
-4.13
-5.26
-6.40
-7.43
-8.30
-9.04
-9.76
-10.65
-11.92
-13.72
-16.02
-18.49
-20.57
-21.64
-21.20
-19.18
-15.98
-12.32
-8.94
-6.30
-4.42
-3.00
-1.69
-0.29
1.06
2.07
2.55
2.53
2.37
2.52
3.22
4.39
5.61
6.44
6.62
6.31
5.95
6.04
6.83
8.19
9.70
10.85
11.32
11.09
10.38
9.51
8.73
8.10
7.59
7.12
6.69
6.39
6.28
6.35
6.43
6.26
5.63
4.50
3.08
1.71
0.70
0.15
-0.04
-0.15
-0.39
-0.87
-1.49
-2.11
-2.64
-3.10
-3.59
-4.22
-5.03
-5.94
-6.87
-7.72
-8.57
-9.55
-10.86
-12.62
-14.74
-16.92
-18.70
-19.58
-19.29
-17.84
-15.56
-12.90
-10.27
-7.88
-5.76
-3.82
-2.05
-0.51
0.63
1.27
1.46
1.35
1.22
1.25
1.52
1.99
2.57
3.19
3.89
4.72
5.70
6.78
7.83
8.76
9.50
10.09
10.60
11.08
11.47
11.66
11.59
11.27
10.80
10.33
9.98
9.78
9.65
9.46
9.12
8.57
7.89
7.24
6.73
6.41
6.20
5.88
5.29
4.32
3.01
1.55
0.11
-1.19
-2.33
-3.36
-4.36
-5.39
-6.51
-7.78
-9.34
-11.26
-13.48
-15.77
-17.72
-18.91
-19.00
-17.93
-15.87
-13.16
-10.19
-7.21
-4.39
-1.80
0.47
2.32
3.64
4.37
4.59
4.52
4.43
4.54
4.90
5.38
5.79
5.99
5.99
5.96
6.11
6.56
7.24
7.99
8.55
8.80
8.69
8.36
7.96
7.61
7.42
7.38
7.43
7.47
7.39
7.12
6.65
6.04
5.34
4.62
3.91
3.22
2.56
1.91
1.25
0.53
-0.30
-1.32
-2.52
-3.83
-5.13
-6.28
-7.17
-7.79
-8.21
-8.58
-9.09
-9.91
-11.20
-12.98
-15.14
-17.43
-19.44
-20.74
-20.97
-20.02
-17.98
-15.17
-11.98
-8.77
-5.79
-3.13
-0.84
1.10
2.68
3.91
4.80
5.43
5.95
6.45
7.00
7.57
8.03
8.26
8.23
8.03
7.89
8.07
8.72
9.79
10.98
11.93
12.34
12.11
11.38
10.45
9.62
9.02
8.64
8.33
7.95
7.43
6.78
6.03
5.24
4.48
3.79
3.26
2.92
2.74
2.64
2.48
2.15
1.60
0.90
0.15
-0.56
-1.19
-1.80
-2.45
-3.17
-3.91
-4.60
-5.23
-5.82
-6.44
-7.17
-8.01
-8.95
-10.01
-11.33
-13.07
-15.27
-17.78
-20.12
-21.73
-22.10
-21.06
-18.83
-15.92
-12.86
-10.01
-7.50
-5.32
-3.45
-1.90
-0.67
0.25
0.94
1.53
2.13
2.80
3.54
4.32
5.07
5.73
6.23
6.59
6.89
7.28
7.92
8.86
10.01
11.11
11.91
12.24
12.13
11.73
11.29
10.95
10.70
10.47
10.15
9.76
9.37
9.12
9.04
9.03
8.92
8.55
7.87
6.97
5.98
5.03
4.14
3.29
2.45
1.58
0.75
-0.02
-0.68
-1.21
-1.58
-1.80
-1.87
-1.89
-1.99
-2.39
-3.32
-4.89
-7.07
-9.65
-12.23
-14.39
-15.67
-15.76
-14.58
-12.31
-9.36
-6.19
-3.19
-0.56
1.70
3.66
5.40
6.87
7.85
8.12
7.52
6.15
4.33
2.54
1.19
0.50
0.45
0.83
1.40
1.93
2.34
2.60
2.76
2.89
3.08
3.42
3.98
4.73
5.60
6.41
7.00
7.27
7.19
6.85
6.35
5.77
5.17
4.55
3.92
3.28
2.63
1.96
1.17
0.15
-1.18
-2.76
-4.46
-6.08
-7.45
-8.59
-9.61
-10.74
-12.17
-14.02
-16.26
-18.73
-21.12
-22.98
-23.84
-23.33
-21.36
-18.26
-14.61
-11.05
-8.01
-5.63
-3.75
-2.15
-0.67
0.75
2.12
3.41
4.64
5.79
6.77
7.47
7.84
7.90
7.77
7.62
7.56
7.62
7.81
8.11
8.49
8.92
9.28
9.43
9.26
8.69
7.81
6.72
5.50
4.19
2.79
1.30
-0.17
-1.46
-2.40
-2.86
-2.85
-2.52
-2.07
-1.76
-1.71
-1.94
-2.35
-2.81
-3.21
-3.58
-4.05
-4.84
-6.18
-8.17
-10.74
-13.61
-16.29
-18.23
-18.97
-18.32
-16.38
-13.60
-10.54
-7.72
-5.40
-3.64
-2.25
-1.03
0.17
1.36
2.49
3.50
4.37
5.16
5.93
6.70
7.43
8.04
8.45
8.63
8.67
8.69
8.85
9.23
9.80
10.39
10.81
10.90
10.61
10.03
9.36
8.77
8.34
7.99
7.54
6.76
5.56
3.97
2.23
0.59
-0.73
-1.66
-2.31
-2.91
-3.74
-5.01
-6.81
-9.06
-11.52
-13.80
-15.46
-16.13
-15.63
-13.98
-11.43
-8.36
-5.13
-2.08
0.57
2.69
4.24
5.22
5.70
5.72
5.38
4.79
4.09
3.43
3.00
2.94
3.36
4.24
5.47
6.88
8.30
9.59
10.67
11.45
11.88
11.91
11.56
10.89
10.03
9.10
8.18
7.27
6.30
5.20
3.89
2.35
0.63
-1.22
-3.12
-5.00
-6.77
-8.36
-9.80
-11.21
-12.79
-14.70
-16.95
-19.30
-21.33
-22.56
-22.67
-21.59
-19.47
-16.67
-13.56
-10.46
-7.61
-5.19
-3.28
-1.86
-0.80
0.15
1.21
2.47
3.88
5.24
6.36
7.17
7.74
8.26
8.90
9.70
10.58
11.40
12.05
12.50
12.75
12.83
12.69
12.30
11.62
10.71
9.72
8.84
8.22
7.87
7.69
7.43
6.90
5.96
4.69
3.27
1.94
0.89
0.14
-0.46
-1.15
-2.13
-3.45
-5.00
-6.58
-8.01
-9.24
-10.39
-11.65
-13.22
-15.20
-17.57
-20.13
-22.57
-24.48
-25.42
-25.08
-23.35
-20.41
-16.70
-12.78
-9.14
-6.06
-3.58
-1.58
0.08
1.50
2.71
3.69
4.48
5.14
5.77
6.42
7.10
7.74
8.28
8.75
9.23
9.83
10.66
11.69
12.81
13.83
14.54
14.82
14.65
14.10
13.34
12.49
11.71
11.08
10.64
10.38
10.24
10.17
10.10
9.97
9.76
9.44
9.00
8.45
7.79
7.08
6.31
5.51
4.72
3.99
3.38
2.89
2.51
2.14
1.66
0.97
0.09
-0.94
-2.03
-3.12
-4.23
-5.37
-6.59
-7.84
-9.09
-10.33
-11.63
-13.10
-14.87
-16.96
-19.21
-21.30
-22.76
-23.17
-22.26
-20.06
-16.88
-13.20
-9.55
-6.30
-3.61
-1.42
0.41
2.02
3.46
4.71
5.71
6.45
7.00
7.46
7.90
8.33
8.68
8.94
9.11
9.29
9.65
10.28
11.22
12.34
13.40
14.14
14.39
14.11
13.44
12.64
11.92
11.36
10.91
10.40
9.71
8.87
8.02
7.34
6.94
6.79
6.73
6.55
6.12
5.38
4.32
2.97
1.41
-0.21
-1.72
-2.93
-3.75
-4.22
-4.53
-4.92
-5.61
-6.63
-7.95
-9.45
-11.00
-12.56
-14.15
-15.85
-17.76
-19.87
-22.01
-23.81
-24.79
-24.47
-22.65
-19.54
-15.67
-11.72
-8.22
-5.32
-2.90
-0.67
1.58
3.83
5.85
7.41
8.41
8.95
9.26
9.54
9.88
10.27
10.58
10.75
10.78
10.75
10.74
10.82
10.98
11.21
11.47
11.72
11.92
12.01
11.95
11.75
11.46
11.13
10.80
10.41
9.92
9.33
8.68
8.06
7.55
7.14
6.75
6.24
5.52
4.57
3.44
2.21
0.97
-0.21
-1.25
-2.08
-2.65
-3.04
-3.40
-3.95
-4.83
-6.04
-7.45
-8.86
-10.07
-11.01
-11.72
-12.35
-13.05
-14.01
-15.36
-17.13
-19.17
-21.11
-22.41
-22.58
-21.33
-18.74
-15.22
-11.38
-7.82
-4.88
-2.61
-0.84
0.65
2.08
3.52
4.93
6.18
7.15
7.80
8.17
8.37
8.52
8.68
8.85
9.03
9.22
9.51
9.97
10.63
11.38
12.06
12.50
12.63
12.52
12.31
12.16
12.06
11.90
11.52
10.86
9.97
9.00
8.12
7.43
6.87
6.38
5.83
5.18
4.42
3.59
2.73
1.88
1.07
0.27
-0.57
-1.57
-2.78
-4.20
-5.68
-7.03
-8.06
-8.76
-9.25
-9.82
-10.73
-12.18
-14.18
-16.55
-18.96
-20.98
-22.21
-22.30
-21.13
-18.75
-15.48
-11.77
-8.14
-4.99
-2.56
-0.81
0.47
1.60
2.79
4.06
5.25
6.13
6.59
6.66
6.59
6.63
6.96
7.55
8.23
8.75
8.98
8.96
8.82
8.75
8.85
9.10
9.34
9.37
9.08
8.46
7.69
6.99
6.54
6.37
6.36
6.33
6.12
5.70
5.15
4.58
4.09
3.73
3.49
3.35
3.23
3.03
2.61
1.87
0.81
-0.47
-1.77
-2.92
-3.84
-4.59
-5.27
-6.02
-6.86
-7.75
-8.62
-9.41
-10.14
-10.96
-12.03
-13.52
-15.46
-17.71
-19.94
-21.69
-22.52
-22.12
-20.42
-17.63
-14.15
-10.48
-7.08
-4.28
-2.21
-0.82
0.08
0.67
1.12
1.48
1.80
2.10
2.47
2.96
3.58
4.26
4.84
5.23
5.43
5.61
5.95
6.57
7.43
8.32
9.00
9.30
9.20
8.80
8.23
7.61
6.98
6.34
5.73
5.19
4.80
4.58
4.45
4.31
4.05
3.63
3.10
2.54
2.05
1.68
1.40
1.17
0.93
0.64
0.25
-0.30
-1.11
-2.19
-3.46
-4.72
-5.78
-6.54
-7.11
-7.72
-8.63
-9.96
-11.65
-13.45
-15.13
-16.54
-17.59
-18.23
-18.34
-17.69
-16.13
-13.67
-10.62
-7.38
-4.39
-1.87
0.14
1.72
2.94
3.79
4.27
4.46
4.55
4.81
5.38
6.26
7.17
7.83
8.07
7.96
7.77
7.81
8.21
8.90
9.61
10.07
10.14
9.87
9.40
8.86
8.27
7.59
6.77
5.89
5.10
4.60
4.46
4.58
4.70
4.57
4.03
3.11
2.00
0.94
0.13
-0.40
-0.74
-1.01
-1.35
-1.88
-2.66
-3.74
-5.07
-6.59
-8.16
-9.69
-11.12
-12.55
-14.10
-15.85
-17.71
-19.37
-20.43
-20.47
-19.32
-17.09
-14.15
-10.94
-7.88
-5.22
-3.04
-1.34
-0.05
0.91
1.62
2.17
2.68
3.23
3.85
4.50
5.08
5.53
5.86
6.13
6.47
6.99
7.68
8.47
9.24
9.87
10.30
10.51
10.58
10.57
10.52
10.38
10.11
9.62
8.92
8.07
7.23
6.55
6.05
5.63
5.05
4.17
2.92
1.49
0.19
-0.72
-1.14
-1.23
-1.29
-1.63
-2.42
-3.58
-4.87
-6.05
-6.98
-7.72
-8.50
-9.56
-11.01
-12.84
-14.90
-16.98
-18.87
-20.37
-21.26
-21.35
-20.47
-18.64
-16.09
-13.20
-10.38
-7.92
-5.87
-4.11
-2.49
-0.91
0.58
1.82
2.75
3.36
3.78
4.17
4.66
5.27
5.91
6.50
6.98
7.41
7.86
8.44
9.16
9.94
10.61
10.95
10.87
10.42
9.79
9.20
8.83
8.69
8.66
8.56
8.23
7.63
6.82
5.93
5.09
4.42
3.94
3.64
3.36
2.96
2.28
1.28
0.07
-1.21
-2.39
-3.40
-4.29
-5.17
-6.08
-7.00
-7.77
-8.30
-8.58
-8.84
-9.45
-10.76
-12.87
-15.53
-18.15
-19.97
-20.38
-19.14
-16.47
-12.93
-9.20
-5.80
-2.93
-0.57
1.41
3.10
4.47
5.47
6.07
6.37
6.56
6.80
7.17
7.58
7.93
8.11
8.18
8.25
8.51
9.07
9.89
10.80
11.55
11.94
11.89
11.47
10.80
10.08
9.45
9.00
8.77
8.71
8.69
8.58
8.24
7.64
6.84
6.01
5.34
4.92
4.71
4.55
4.22
3.60
2.69
1.62
0.54
-0.47
-1.40
-2.30
-3.20
-4.10
-4.99
-5.84
-6.69
-7.62
-8.71
-10.03
-11.65
-13.59
-15.85
-18.32
-20.77
-22.85
-24.10
-24.16
-22.85
-20.30
-16.88
-13.06
-9.23
-5.66
-2.45
0.35
2.72
4.60
5.97
6.87
7.41
7.70
7.83
7.83
7.72
7.55
7.41
7.45
7.80
8.51
9.50
10.55
11.40
11.81
11.69
11.10
10.24
9.34
8.57
8.02
7.70
7.55
7.52
7.51
7.44
7.18
6.70
6.00
5.19
4.42
3.80
3.38
3.12
2.92
2.69
2.37
1.93
1.42
0.92
0.45
0.02
-0.48
-1.19
-2.21
-3.52
-4.97
-6.34
-7.39
-8.02
-8.30
-8.48
-8.88
-9.77
-11.35
-13.57
-16.24
-18.98
-21.32
-22.82
-23.17
-22.27
-20.22
-17.32
-13.96
-10.50
-7.32
-4.64
-2.56
-1.07
-0.04
0.72
1.39
2.10
2.92
3.83
4.77
5.66
6.38
6.90
7.22
7.42
7.60
7.85
8.22
8.69
9.21
9.67
10.01
10.19
10.22
10.17
10.06
9.92
9.71
9.34
8.73
7.90
6.96
6.13
5.59
5.43
5.55
5.71
5.63
5.11
4.14
2.85
1.50
0.35
-0.43
-0.83
-0.95
-1.00
-1.19
-1.67
-2.43
-3.35
-4.26
-5.07
-5.81
-6.66
-7.79
-9.36
-11.34
-13.54
-15.68
-17.45
-18.57
-18.88
-18.32
-16.88
-14.69
-11.94
-8.87
-5.80
-3.02
-0.75
0.94
2.15
3.09
3.95
4.81
5.62
6.23
6.54
6.60
6.60
6.74
7.12
7.70
8.30
8.79
9.14
9.49
9.99
10.71
11.53
12.23
12.58
12.50
12.06
11.51
11.00
10.58
10.14
9.50
8.57
7.35
6.01
4.75
3.73
2.99
2.48
2.02
1.43
0.53
-0.75
-2.37
-4.17
-5.91
-7.38
-8.49
-9.31
-10.00
-10.78
-11.79
-13.12
-14.82
-16.84
-19.07
-21.18
-22.72
-23.21
-22.28
-19.93
-16.51
-12.62
-8.85
-5.64
-3.11
-1.17
0.36
1.64
2.70
3.49
3.98
4.19
4.21
4.16
4.16
4.20
4.26
4.27
4.25
4.26
4.43
4.91
5.71
6.75
7.77
8.53
8.87
8.77
8.35
7.79
7.23
6.81
6.59
6.60
6.83
7.17
7.47
7.49
7.09
6.25
5.10
3.92
2.97
2.36
2.05
1.81
1.44
0.79
-0.15
-1.22
-2.23
-3.07
-3.71
-4.33
-5.19
-6.56
-8.61
-11.31
-14.41
-17.51
-20.13
-21.85
-22.36
-21.58
-19.58
-16.67
-13.24
-9.73
-6.48
-3.70
-1.40
0.50
2.10
3.47
4.62
5.54
6.23
6.75
7.21
7.66
8.11
8.50
8.76
8.92
9.06
9.37
9.92
10.67
11.47
12.11
12.42
12.39
12.06
11.53
10.86
10.09
9.25
8.40
7.67
7.15
6.92
6.87
6.85
6.68
6.25
5.54
4.64
3.70
2.80
2.03
1.35
0.73
0.15
-0.42
-1.02
-1.68
-2.48
-3.45
-4.59
-5.78
-6.90
-7.87
-8.70
-9.52
-10.54
-11.97
-13.94
-16.39
-19.03
-21.40
-22.98
-23.33
-22.24
-19.82
-16.41
-12.51
-8.57
-4.89
-1.64
1.12
3.36
5.02
6.06
6.47
6.34
5.87
5.28
4.82
4.64
4.80
5.22
5.75
6.20
6.50
6.71
6.98
7.53
8.49
9.81
11.24
12.43
13.04
12.95
12.25
11.24
10.26
9.56
9.21
9.07
8.97
8.71
8.28
7.71
7.12
6.52
5.89
5.12
4.19
3.15
2.14
1.32
0.67
0.05
-0.77
-2.02
-3.71
-5.63
-7.51
-9.10
-10.37
-11.52
-12.88
-14.74
-17.19
-20.05
-22.88
-25.09
-26.16
-25.76
-23.84
-20.70
-16.81
-12.73
-8.85
-5.38
-2.33
0.36
2.68
4.58
5.93
6.70
6.95
6.90
6.79
6.82
7.09
7.59
8.29
9.14
10.09
11.12
12.14
13.02
13.61
13.83
13.72
13.42
13.13
12.96
12.90
12.80
12.46
11.76
10.71
9.41
8.05
6.81
5.76
4.96
4.36
3.94
3.65
3.46
3.29
3.04
2.64
2.04
1.24
0.28
-0.77
-1.84
-2.85
-3.82
-4.77
-5.80
-6.99
-8.34
-9.77
-11.13
-12.36
-13.49
-14.67
-16.15
-18.09
-20.45
-22.95
-25.12
-26.44
-26.54
-25.25
-22.70
-19.21
-15.18
-11.04
-7.13
-3.70
-0.84
1.42
3.14
4.40
5.29
5.90
6.34
6.68
7.02
7.43
7.94
8.53
9.19
9.86
10.48
11.02
11.46
11.76
11.95
12.03
11.99
11.87
11.71
11.51
11.33
11.20
11.14
11.13
11.12
11.03
10.76
10.25
9.49
8.53
7.54
6.61
5.83
5.21
4.69
4.20
3.69
3.14
2.51
1.77
0.82
-0.38
-1.78
-3.22
-4.52
-5.51
-6.16
-6.62
-7.12
-7.98
-9.41
-11.53
-14.23
-17.25
-20.12
-22.30
-23.25
-22.70
-20.69
-17.57
-13.88
-10.12
-6.60
-3.43
-0.62
1.85
3.92
5.48
6.49
7.02
7.23
7.34
7.55
7.94
8.55
9.30
10.06
10.68
11.06
11.17
11.08
10.97
11.00
11.31
11.85
12.49
12.98
13.09
12.75
11.97
10.94
9.87
8.97
8.36
8.01
7.79
7.51
6.95
6.01
4.70
3.16
1.63
0.29
-0.76
-1.59
-2.35
-3.16
-4.08
-5.04
-5.95
-6.73
-7.40
-8.04
-8.77
-9.64
-10.73
-12.09
-13.82
-16.02
-18.69
-21.62
-24.37
-26.37
-27.09
-26.28
-23.98
-20.58
-16.60
-12.53
-8.70
-5.36
-2.60
-0.49
0.99
1.95
2.62
3.26
4.14
5.37
6.88
8.47
9.87
10.90
11.53
11.87
12.14
12.50
13.01
13.62
14.18
14.59
14.79
14.79
14.67
14.46
14.17
13.81
13.34
12.75
12.00
11.08
9.97
8.78
7.66
6.76
6.18
5.88
5.65
5.29
4.66
3.78
2.81
1.95
1.33
0.99
0.80
0.59
0.15
-0.68
-1.94
-3.53
-5.19
-6.66
-7.79
-8.66
-9.50
-10.64
-12.27
-14.41
-16.86
-19.37
-21.73
-23.81
-25.53
-26.71
-27.05
-26.22
-24.07
-20.71
-16.63
-12.45
-8.75
-5.78
-3.51
-1.64
0.09
1.81
3.42
4.75
5.69
6.30
6.74
7.19
7.71
8.21
8.59
8.82
9.02
9.45
10.27
11.52
12.93
14.12
14.74
14.61
13.80
12.58
11.30
10.25
9.57
9.24
9.15
9.07
8.82
8.26
7.38
6.29
5.14
4.11
3.34
2.84
2.54
2.28
1.88
1.18
0.13
-1.18
-2.59
-3.93
-5.07
-5.98
-6.81
-7.77
-9.10
-10.96
-13.34
-16.07
-18.82
-21.14
-22.57
-22.76
-21.51
-18.92
-15.34
-11.27
-7.24
-3.63
-0.61
1.88
3.97
5.79
7.33
8.46
9.08
9.18
8.95
8.71
8.71
9.09
9.75
10.42
10.87
10.96
10.78
10.50
10.30
10.24
10.19
9.98
9.45
8.60
7.55
6.53
5.68
5.08
4.66
4.33
4.00
3.65
3.29
2.88
2.37
1.68
0.81
-0.15
-1.07
-1.86
-2.55
-3.37
-4.63
-6.60
-9.35
-12.73
-16.39
-19.90
-22.81
-24.76
-25.51
-24.94
-23.17
-20.47
-17.25
-13.90
-10.68
-7.71
-5.00
-2.53
-0.32
1.57
3.11
4.37
5.46
6.46
7.42
8.26
8.90
9.35
9.68
10.04
10.50
11.00
11.39
11.50
11.27
10.79
10.23
9.74
9.38
9.08
8.75
8.30
7.72
7.00
6.09
4.92
3.41
1.60
-0.31
-2.08
-3.46
-4.41
-5.13
-5.97
-7.33
-9.44
-12.28
-15.56
-18.84
-21.55
-23.26
-23.66
-22.71
-20.59
-17.65
-14.25
-10.69
-7.18
-3.87
-0.85
1.77
3.86
5.37
6.29
6.73
6.88
6.88
6.91
7.03
7.26
7.60
8.00
8.40
8.78
9.13
9.48
9.83
10.18
10.41
10.40
10.02
9.21
8.02
6.61
5.15
3.77
2.48
1.24
-0.04
-1.37
-2.67
-3.82
-4.78
-5.64
-6.59
-7.89
-9.73
-12.14
-15.02
-18.08
-20.96
-23.22
-24.47
-24.42
-22.95
-20.25
-16.68
-12.72
-8.76
-5.06
-1.70
1.33
4.00
6.23
7.90
8.97
9.51
9.67
9.65
9.59
9.53
9.47
9.40
9.40
9.57
9.99
10.63
11.33
11.87
12.03
11.76
11.17
10.44
9.73
9.07
8.33
7.34
5.98
4.28
2.42
0.61
-1.01
-2.48
-3.97
-5.65
-7.64
-9.95
-12.46
-15.05
-17.56
-19.84
-21.64
-22.65
-22.52
-21.03
-18.22
-14.37
-9.97
-5.53
-1.42
2.13
5.05
7.33
9.00
10.08
10.67
10.89
10.93
10.95
11.06
11.33
11.70
12.10
12.45
12.71
12.89
13.04
13.12
13.06
12.71
11.94
10.75
9.22
7.52
5.82
4.22
2.72
1.26
-0.15
-1.43
-2.47
-3.22
-3.75
-4.29
-5.13
-6.56
-8.73
-11.57
-14.78
-17.87
-20.26
-21.44
-21.12
-19.28
-16.23
-12.46
-8.55
-4.94
-1.87
0.65
2.77
4.61
6.18
7.45
8.34
8.93
9.35
9.79
10.35
11.00
11.58
11.94
12.03
11.94
11.83
11.81
11.91
12.02
12.07
11.97
11.69
11.23
10.54
9.62
8.43
7.02
5.47
3.84
2.20
0.59
-0.99
-2.53
-4.09
-5.73
-7.57
-9.73
-12.20
-14.85
-17.34
-19.27
-20.24
-20.05
-18.72
-16.43
-13.50
-10.24
-6.90
-3.67
-0.69
1.99
4.33
6.34
8.07
9.55
10.76
11.66
12.25
12.60
12.85
13.16
13.64
14.30
15.05
15.75
16.27
16.57
16.66
16.63
16.53
16.31
15.89
15.15
14.05
12.70
11.37
10.38
9.92
9.96
10.24
10.38
10.10
9.36
8.39
7.54
7.12
7.15
7.38
7.39
6.80
5.53
3.74
1.78
-0.02
-1.49
-2.62
-3.47
-4.09
-4.44
-4.47
-4.25
-4.01
-4.04
-4.54
-5.53
-6.79
-8.03
-9.01
-9.72
-10.29
-10.91
-11.65
-12.46
-13.18
-13.72
-14.14
-14.65
-15.56
-17.05
-19.10
-21.39
-23.37
-24.45
-24.15
-22.38
-19.40
-15.76
-12.06
-8.73
-5.90
-3.39
-0.98
1.49
3.98
6.25
8.04
9.17
9.64
9.59
9.26
8.85
8.55
8.43
8.51
8.78
9.20
9.80
10.53
11.36
12.20
12.92
13.41
13.65
13.66
13.55
13.38
13.15
12.81
12.35
11.77
11.10
10.36
9.52
8.53
7.36
6.08
4.81
3.65
2.65
1.76
0.92
0.12
-0.63
-1.28
-1.86
-2.48
-3.30
-4.42
-5.81
-7.31
-8.72
-9.92
-10.98
-12.11
-13.58
-15.55
-17.98
-20.62
-23.06
-24.83
-25.59
-25.18
-23.64
-21.19
-18.11
-14.71
-11.26
-7.97
-4.99
-2.40
-0.23
1.55
2.97
4.01
4.70
5.09
5.29
5.42
5.64
5.97
6.42
6.94
7.45
7.96
8.50
9.10
9.77
10.49
11.23
11.90
12.46
12.80
12.80
12.40
11.60
10.56
9.55
8.77
8.33
8.12
7.93
7.53
6.86
6.02
5.22
4.61
4.18
3.75
3.11
2.11
0.86
-0.44
-1.56
-2.42
-3.14
-3.92
-4.93
-6.17
-7.49
-8.67
-9.59
-10.32
-11.10
-12.19
-13.85
-16.10
-18.80
-21.59
-24.03
-25.59
-25.86
-24.64
-22.03
-18.45
-14.44
-10.56
-7.21
-4.53
-2.46
-0.84
0.55
1.83
3.04
4.10
4.90
5.33
5.41
5.26
5.11
5.13
5.42
5.92
6.48
6.96
7.34
7.69
8.10
8.64
9.24
9.73
9.97
9.90
9.61
9.26
8.98
8.79
8.58
8.21
7.62
6.89
6.15
5.53
5.01
4.52
3.95
3.28
2.64
2.13
1.81
1.55
1.10
0.23
-1.11
-2.73
-4.37
-5.80
-6.97
-8.01
-9.15
-10.61
-12.47
-14.66
-16.89
-18.82
-20.05
-20.32
-19.50
-17.75
-15.35
-12.64
-9.88
-7.15
-4.44
-1.72
0.92
3.33
5.27
6.56
7.18
7.28
7.09
6.87
6.79
6.95
7.36
7.99
8.79
9.68
10.60
11.44
12.08
12.47
12.56
12.41
12.13
11.83
11.58
11.32
10.91
10.15
8.96
7.39
5.60
3.84
2.28
0.99
-0.09
-1.03
-1.96
-2.88
-3.80
-4.70
-5.63
-6.66
-7.87
-9.36
-11.16
-13.25
-15.55
-17.92
-20.13
-21.92
-22.99
-23.07
-22.04
-19.90
-16.86
-13.29
-9.68
-6.42
-3.75
-1.65
0.08
1.69
3.30
4.86
6.17
7.04
7.41
7.39
7.24
7.20
7.41
7.82
8.28
8.65
8.83
8.82
8.71
8.57
8.49
8.51
8.62
8.78
8.90
8.88
8.64
8.17
7.51
6.78
6.07
5.42
4.75
3.89
2.64
0.95
-1.01
-2.94
-4.50
-5.49
-5.99
-6.28
-6.76
-7.71
-9.24
-11.26
-13.52
-15.71
-17.50
-18.58
-18.68
-17.64
-15.53
-12.60
-9.23
-5.84
-2.76
-0.16
1.88
3.39
4.41
5.01
5.29
5.39
5.47
5.70
6.16
6.84
7.63
8.39
9.00
9.44
9.74
10.01
10.34
10.75
11.20
11.54
11.65
11.42
10.85
9.99
8.94
7.86
6.83
5.93
5.11
4.30
3.40
2.34
1.11
-0.23
-1.62
-2.94
-4.12
-5.10
-5.87
-6.48
-7.06
-7.75
-8.78
-10.25
-12.23
-14.57
-16.93
-18.90
-20.02
-19.99
-18.75
-16.52
-13.69
-10.65
-7.72
-5.03
-2.58
-0.31
1.82
3.77
5.40
6.60
7.33
7.62
7.63
7.54
7.52
7.63
7.87
8.20
8.57
8.94
9.31
9.66
9.98
10.19
10.22
9.99
9.48
8.72
7.76
6.69
5.62
4.63
3.74
2.91
2.06
1.06
-0.13
-1.53
-3.04
-4.55
-5.89
-7.01
-7.97
-8.94
-10.18
-11.91
-14.20
-16.92
-19.75
-22.20
-23.77
-24.07
-22.89
-20.30
-16.63
-12.36
-8.00
-4.00
-0.64
2.03
4.05
5.53
6.59
7.26
7.63
7.79
7.88
8.04
8.35
8.80
9.28
9.71
10.05
10.33
10.65
11.06
11.54
11.97
12.20
12.09
11.61
10.75
9.59
8.25
6.88
5.67
4.76
4.20
3.96
3.89
3.79
3.50
2.92
2.01
0.76
-0.75
-2.38
-3.96
-5.26
-6.18
-6.72
-7.04
-7.40
-8.09
-9.36
-11.36
-14.08
-17.32
-20.65
-23.49
-25.24
-25.41
-23.89
-20.90
-16.96
-12.74
-8.80
-5.44
-2.72
-0.53
1.30
2.86
4.15
5.09
5.63
5.80
5.75
5.70
5.88
6.37
7.14
8.01
8.82
9.43
9.82
10.09
10.35
10.67
11.03
11.34
11.43
11.19
10.55
9.60
8.48
7.38
6.44
5.68
5.01
4.24
3.25
2.02
0.72
-0.44
-1.29
-1.86
-2.37
-3.07
-4.14
-5.50
-6.94
-8.20
-9.23
-10.18
-11.42
-13.19
-15.57
-18.29
-20.89
-22.83
-23.72
-23.36
-21.75
-19.08
-15.60
-11.66
-7.61
-3.84
-0.65
1.79
3.46
4.52
5.25
5.90
6.62
7.43
8.27
9.09
9.82
10.50
11.10
11.57
11.79
11.68
11.24
10.69
10.29
10.30
10.78
11.56
12.25
12.47
12.00
10.88
9.40
7.95
6.85
6.17
5.78
5.37
4.61
3.33
1.55
-0.54
-2.62
-4.38
-5.64
-6.39
-6.78
-7.11
-7.70
-8.81
-10.63
-13.13
-16.11
-19.15
-21.69
-23.18
-23.13
-21.37
-18.10
-13.82
-9.25
-5.08
-1.77
0.58
2.14
3.22
4.05
4.75
5.33
5.79
6.19
6.63
7.17
7.82
8.50
9.13
9.66
10.17
10.77
11.48
12.21
12.74
12.86
12.49
11.73
10.79
9.86
9.03
8.24
7.40
6.47
5.50
4.59
3.84
3.24
2.68
2.03
1.20
0.21
-0.85
-1.88
-2.82
-3.72
-4.65
-5.68
-6.91
-8.41
-10.30
-12.65
-15.42
-18.39
-21.10
-23.00
-23.59
-22.61
-20.18
-16.70
-12.76
-8.94
-5.63
-2.99
-0.96
0.64
2.00
3.27
4.47
5.56
6.48
7.20
7.72
8.12
8.48
8.82
9.16
9.47
9.73
9.94
10.18
10.48
10.88
11.30
11.58
11.59
11.20
10.46
9.49
8.47
7.50
6.59
5.69
4.74
3.73
2.77
1.98
1.44
1.13
0.91
0.57
-0.03
-0.94
-2.08
-3.27
-4.37
-5.32
-6.17
-7.06
-8.16
-9.60
-11.45
-13.69
-16.23
-18.86
-21.30
-23.16
-24.03
-23.62
-21.81
-18.79
-14.98
-10.88
-6.99
-3.61
-0.80
1.47
3.33
4.85
6.07
6.98
7.65
8.16
8.63
9.14
9.71
10.31
10.87
11.38
11.82
12.19
12.49
12.70
12.82
12.81
12.65
12.27
11.65
10.82
9.91
9.13
8.60
8.35
8.19
7.86
7.18
6.12
4.88
3.74
2.94
2.48
2.17
1.73
0.95
-0.19
-1.59
-3.03
-4.38
-5.63
-6.85
-8.18
-9.77
-11.71
-14.01
-16.54
-18.99
-20.91
-21.80
-21.34
-19.46
-16.48
-12.91
-9.26
-5.89
-2.91
-0.32
1.87
3.60
4.78
5.46
5.82
6.17
6.79
7.77
8.98
10.14
10.96
11.31
11.26
11.00
10.76
10.68
10.75
10.89
10.95
10.87
10.60
10.21
9.74
9.23
8.68
8.07
7.32
6.42
5.38
4.25
3.16
2.23
1.52
1.03
0.60
0.06
-0.74
-1.84
-3.15
-4.48
-5.68
-6.68
-7.53
-8.40
-9.47
-10.94
-12.93
-15.44
-18.31
-21.17
-23.49
-24.73
-24.52
-22.79
-19.83
-16.13
-12.25
-8.60
-5.36
-2.57
-0.21
1.73
3.27
4.38
5.15
5.63
5.91
6.04
6.06
6.11
6.30
6.77
7.61
8.74
10.00
11.14
11.92
12.25
12.16
11.80
11.35
10.95
10.64
10.36
9.98
9.41
8.60
7.63
6.61
5.66
4.85
4.11
3.38
2.57
1.62
0.55
-0.60
-1.81
-3.03
-4.26
-5.47
-6.65
-7.80
-8.95
-10.20
-11.75
-13.74
-16.20
-18.93
-21.47
-23.23
-23.67
-22.51
-19.80
-15.92
-11.42
-6.90
-2.82
0.55
3.09
4.84
5.94
6.57
6.89
6.99
6.92
6.70
6.40
6.16
6.14
6.42
6.96
7.59
8.14
8.52
8.77
9.00
9.32
9.77
10.27
10.67
10.80
10.55
9.94
9.11
8.27
7.61
7.22
6.99
6.64
5.88
4.55
2.80
0.99
-0.43
-1.22
-1.48
-1.59
-2.02
-3.10
-4.93
-7.40
-10.28
-13.34
-16.37
-19.09
-21.14
-22.07
-21.57
-19.58
-16.37
-12.52
-8.66
-5.29
-2.59
-0.47
1.34
3.03
4.67
6.14
7.29
8.00
8.32
8.39
8.36
8.35
8.36
8.39
8.46
8.62
8.95
9.44
10.02
10.54
10.87
10.92
10.66
10.11
9.28
8.20
6.93
5.57
4.26
3.08
2.05
1.10
0.07
-1.13
-2.51
-3.98
-5.41
-6.70
-7.87
-9.03
-10.39
-12.10
-14.24
-16.73
-19.25
-21.36
-22.54
-22.39
-20.79
-17.89
-14.17
-10.18
-6.37
-2.99
-0.09
2.39
4.50
6.23
7.49
8.29
8.68
8.81
8.82
8.80
8.75
8.65
8.50
8.39
8.38
8.53
8.86
9.34
9.91
10.44
10.78
10.75
10.23
9.24
7.89
6.47
5.22
4.34
3.82
3.50
3.12
2.48
1.45
0.03
-1.65
-3.44
-5.15
-6.64
-7.82
-8.76
-9.64
-10.79
-12.49
-14.89
-17.87
-20.98
-23.60
-25.10
-25.06
-23.43
-20.45
-16.63
-12.52
-8.59
-5.12
-2.23
0.05
1.81
3.15
4.23
5.20
6.20
7.26
8.38
9.47
10.45
11.31
12.04
12.65
13.08
13.27
13.18
12.86
12.47
12.21
12.16
12.28
12.36
12.21
11.65
10.70
9.45
8.08
6.70
5.37
4.07
2.77
1.40
-0.09
-1.73
-3.51
-5.33
-7.06
-8.50
-9.54
-10.22
-10.68
-11.23
-12.12
-13.50
-15.39
-17.62
-19.88
-21.78
-22.95
-23.05
-21.89
-19.43
-15.87
-11.54
-6.90
-2.45
1.41
4.41
6.46
7.68
8.32
8.69
9.06
9.54
10.11
10.63
11.00
11.19
11.25
11.28
11.32
11.40
11.51
11.67
11.93
12.34
12.84
13.29
13.45
13.13
12.28
11.03
9.61
8.29
7.20
6.37
5.70
5.07
4.37
3.49
2.38
1.00
-0.60
-2.31
-3.97
-5.43
-6.75
-8.14
-9.93
-12.40
-15.52
-18.91
-21.92
-23.82
-24.11
-22.68
-19.82
-16.01
-11.80
-7.60
-3.66
-0.11
2.94
5.44
7.32
8.59
9.34
9.75
10.00
10.21
10.41
10.58
10.65
10.64
10.60
10.64
10.84
11.19
11.55
11.78
11.72
11.41
10.97
10.60
10.44
10.46
10.54
10.51
10.26
9.78
9.13
8.31
7.29
6.01
4.48
2.83
1.28
0.05
-0.83
-1.52
-2.31
-3.46
-5.06
-6.98
-8.93
-10.64
-12.01
-13.16
-14.43
-16.18
-18.63
-21.72
-25.06
-28.02
-29.88
-30.13
-28.60
-25.50
-21.38
-16.85
-12.40
-8.32
-4.67
-1.39
1.56
4.13
6.20
7.71
8.66
9.23
9.63
10.04
10.50
10.93
11.20
11.25
11.14
11.01
11.05
11.35
11.89
12.53
13.09
13.45
13.58
13.48
13.18
12.65
11.83
10.66
9.15
7.43
5.75
4.37
3.42
2.93
2.75
2.66
2.46
2.04
1.35
0.41
-0.73
-2.01
-3.36
-4.69
-5.93
-7.06
-8.09
-9.14
-10.35
-11.90
-13.92
-16.43
-19.32
-22.28
-24.84
-26.49
-26.86
-25.77
-23.37
-19.98
-16.08
-12.05
-8.16
-4.58
-1.38
1.35
3.53
5.14
6.23
6.97
7.61
8.32
9.20
10.18
11.15
11.93
12.40
12.52
12.37
12.06
11.75
11.55
11.54
11.70
11.92
12.06
11.96
11.52
10.76
9.79
8.78
7.87
7.11
6.44
5.73
4.87
3.75
2.40
0.85
-0.81
-2.50
-4.14
-5.66
-7.01
-8.20
-9.37
-10.70
-12.45
-14.70
-17.27
-19.71
-21.35
-21.64
-20.27
-17.41
-13.53
-9.31
-5.33
-1.93
0.79
2.93
4.63
6.00
7.09
7.94
8.54
8.96
9.27
9.53
9.78
9.99
10.15
10.23
10.24
10.26
10.32
10.49
10.75
11.03
11.20
11.14
10.81
10.23
9.56
8.93
8.38
7.87
7.24
6.35
5.13
3.64
2.01
0.41
-1.03
-2.28
-3.37
-4.34
-5.22
-6.00
-6.73
-7.51
-8.53
-10.01
-12.10
-14.77
-17.82
-20.86
-23.43
-25.14
-25.71
-25.06
-23.26
-20.49
-17.00
-13.10
-9.10
-5.29
-1.89
0.99
3.32
5.14
6.50
7.47
8.09
8.47
8.73
9.02
9.43
9.94
10.44
10.82
11.00
11.00
10.94
10.93
11.01
11.11
11.10
10.89
10.46
9.88
9.27
8.72
8.25
7.83
7.42
6.98
6.51
6.03
5.53
4.97
4.30
3.49
2.53
1.45
0.30
-0.85
-1.95
-2.97
-3.96
-4.98
-6.11
-7.43
-9.03
-11.04
-13.54
-16.49
-19.65
-22.53
-24.55
-25.17
-24.09
-21.45
-17.72
-13.53
-9.47
-5.91
-2.93
-0.47
1.56
3.26
4.67
5.81
6.75
7.57
8.33
9.02
9.60
10.00
10.20
10.26
10.26
10.33
10.54
10.89
11.40
12.02
12.69
13.29
13.65
13.63
13.16
12.35
11.39
10.49
9.76
9.14
8.51
7.74
6.82
5.84
4.89
4.05
3.27
2.45
1.51
0.43
-0.76
-1.98
-3.15
-4.25
-5.27
-6.30
-7.51
-9.09
-11.21
-13.89
-16.91
-19.85
-22.20
-23.50
-23.52
-22.30
-20.08
-17.17
-13.89
-10.47
-7.08
-3.85
-0.89
1.69
3.83
5.49
6.68
7.42
7.79
7.90
7.89
7.91
8.11
8.49
8.99
9.51
9.93
10.23
10.49
10.78
11.13
11.46
11.62
11.47
10.98
10.30
9.61
9.06
8.67
8.26
7.64
6.67
5.37
3.95
2.65
1.65
0.93
0.32
-0.39
-1.41
-2.80
-4.51
-6.42
-8.34
-10.12
-11.64
-12.89
-13.99
-15.11
-16.46
-18.16
-20.16
-22.22
-23.94
-24.88
-24.65
-23.06
-20.15
-16.24
-11.79
-7.35
-3.35
-0.07
2.45
4.27
5.49
6.20
6.54
6.66
6.77
7.03
7.49
8.05
8.50
8.68
8.54
8.22
7.98
8.05
8.52
9.33
10.26
11.03
11.41
11.28
10.65
9.67
8.52
7.39
6.38
5.54
4.80
4.10
3.43
2.79
2.27
1.90
1.68
1.50
1.23
0.71
-0.13
-1.26
-2.55
-3.84
-4.96
-5.87
-6.62
-7.33
-8.19
-9.42
-11.20
-13.68
-16.82
-20.35
-23.74
-26.29
-27.34
-26.50
-23.82
-19.81
-15.19
-10.68
-6.74
-3.52
-0.93
1.18
2.92
4.32
5.36
6.07
6.54
6.88
7.21
7.58
7.99
8.41
8.87
9.38
9.95
10.55
11.11
11.55
11.81
11.88
11.80
11.59
11.26
10.80
10.20
9.44
8.56
7.54
6.40
5.18
3.95
2.81
1.87
1.12
0.52
-0.05
-0.69
-1.40
-2.13
-2.77
-3.30
-3.78
-4.29
-4.99
-5.94
-7.19
-8.78
-10.78
-13.19
-15.89
-18.54
-20.61
-21.60
-21.17
-19.31
-16.33
-12.68
-8.83
-5.15
-1.83
1.03
3.37
5.17
6.40
7.11
7.42
7.47
7.40
7.35
7.42
7.66
8.07
8.59
9.09
9.53
9.87
10.15
10.43
10.75
11.05
11.24
11.17
10.73
9.88
8.70
7.35
6.08
5.08
4.44
4.11
3.87
3.46
2.63
1.30
-0.42
-2.30
-4.07
-5.57
-6.77
-7.80
-8.91
-10.27
-12.03
-14.17
-16.56
-19.01
-21.25
-22.98
-23.86
-23.60
-22.01
-19.16
-15.32
-10.97
-6.60
-2.64
0.66
3.21
5.06
6.36
7.28
7.94
8.39
8.65
8.68
8.53
8.30
8.16
8.23
8.57
9.14
9.79
10.43
10.99
11.47
11.88
12.21
12.44
12.57
12.61
12.60
12.56
12.44
12.13
11.49
10.46
9.07
7.44
5.79
4.29
3.09
2.17
1.41
0.68
-0.17
-1.18
-2.35
-3.62
-4.93
-6.22
-7.42
-8.48
-9.39
-10.25
-11.33
-12.94
-15.28
-18.30
-21.55
-24.36
-26.02
-26.06
-24.37
-21.24
-17.21
-12.86
-8.71
-5.08
-2.16
0.06
1.71
2.95
3.97
4.87
5.69
6.41
7.03
7.56
8.03
8.48
8.97
9.48
9.99
10.49
10.96
11.45
11.93
12.37
12.70
12.81
12.67
12.31
11.84
11.39
11.00
10.57
9.96
9.05
7.81
6.39
5.00
3.84
3.01
2.44
1.99
1.48
0.79
-0.11
-1.18
-2.36
-3.58
-4.80
-6.00
-7.18
-8.36
-9.60
-10.99
-12.61
-14.57
-16.88
-19.43
-21.93
-23.99
-25.19
-25.17
-23.78
-21.11
-17.45
-13.24
-8.94
-4.90
-1.37
1.57
3.97
5.87
7.32
8.30
8.84
8.98
8.89
8.78
8.86
9.27
10.00
10.90
11.76
12.40
12.73
12.77
12.64
12.46
12.35
12.39
12.53
12.69
12.71
12.46
11.79
10.67
9.16
7.40
5.63
4.10
2.98
2.34
2.06
1.85
1.42
0.55
-0.81
-2.50
-4.22
-5.73
-6.92
-7.91
-8.99
-10.46
-12.58
-15.35
-18.56
-21.79
-24.48
-26.08
-26.22
-24.73
-21.81
-17.86
-13.42
-8.98
-4.90
-1.32
1.72
4.25
6.29
7.79
8.75
9.20
9.26
9.09
8.85
8.69
8.73
9.04
9.68
10.64
11.80
12.97
13.93
14.55
14.76
14.65
14.34
13.90
13.38
12.76
12.02
11.20
10.42
9.80
9.43
9.26
9.12
8.83
8.19
7.13
5.73
4.17
2.65
1.34
0.32
-0.43
-1.02
-1.58
-2.23
-3.06
-4.10
-5.34
-6.72
-8.18
-9.64
-11.05
-12.40
-13.76
-15.23
-16.99
-19.15
-21.67
-24.27
-26.42
-27.51
-27.03
-24.81
-21.08
-16.42
-11.52
-7.00
-3.20
-0.19
2.16
4.05
5.59
6.82
7.68
8.14
8.30
8.33
8.46
8.84
9.46
10.18
10.81
11.20
11.36
11.41
11.50
11.73
12.09
12.45
12.65
12.57
12.16
11.50
10.74
10.01
9.46
9.12
8.93
8.75
8.46
7.95
7.27
6.48
5.69
4.96
4.24
3.51
2.73
1.97
1.33
0.88
0.57
0.23
-0.39
-1.42
-2.83
-4.45
-6.03
-7.42
-8.63
-9.75
-10.92
-12.23
-13.71
-15.37
-17.25
-19.38
-21.67
-23.88
-25.60
-26.34
-25.75
-23.74
-20.58
-16.74
-12.73
-8.96
-5.66
-2.87
-0.52
1.48
3.22
4.76
6.10
7.19
8.02
8.59
8.94
9.18
9.41
9.71
10.13
10.68
11.34
12.09
12.87
13.59
14.12
14.35
14.25
13.90
13.47
13.10
12.83
12.54
12.04
11.14
9.87
8.42
7.03
5.90
5.06
4.38
3.67
2.83
1.90
0.98
0.12
-0.72
-1.72
-2.98
-4.49
-6.03
-7.33
-8.24
-8.79
-9.31
-10.22
-11.83
-14.26
-17.30
-20.55
-23.49
-25.64
-26.63
-26.25
-24.46
-21.39
-17.35
-12.74
-8.03
-3.63
0.11
3.03
5.11
6.46
7.27
7.77
8.15
8.55
9.00
9.44
9.74
9.89
9.92
9.98
10.21
10.69
11.35
12.02
12.54
12.81
12.85
12.74
12.56
12.30
11.89
11.27
10.41
9.37
8.28
7.28
6.44
5.80
5.34
5.02
4.78
4.53
4.20
3.73
3.14
2.44
1.69
0.84
-0.15
-1.36
-2.78
-4.33
-5.85
-7.15
-8.16
-8.91
-9.49
-10.09
-10.85
-11.93
-13.48
-15.60
-18.27
-21.28
-24.21
-26.48
-27.54
-26.98
-24.74
-21.10
-16.59
-11.80
-7.24
-3.21
0.16
2.88
4.99
6.53
7.52
7.96
7.96
7.70
7.40
7.32
7.59
8.24
9.15
10.14
11.03
11.68
12.09
12.32
12.47
12.60
12.74
12.85
12.87
12.76
12.44
11.89
11.10
10.14
9.12
8.17
7.38
6.71
6.12
5.52
4.90
4.26
3.62
2.94
2.16
1.25
0.22
-0.82
-1.78
-2.60
-3.40
-4.33
-5.48
-6.81
-8.13
-9.22
-9.97
-10.43
-10.81
-11.37
-12.37
-13.94
-16.07
-18.58
-21.10
-23.17
-24.29
-24.07
-22.35
-19.28
-15.28
-10.93
-6.77
-3.19
-0.29
2.02
3.93
5.57
6.96
8.03
8.76
9.18
9.43
9.63
9.79
9.87
9.76
9.42
8.95
8.54
8.38
8.56
9.06
9.72
10.33
10.71
10.74
10.46
9.92
9.29
8.70
8.25
7.87
7.51
7.00
6.30
5.42
4.45
3.49
2.65
2.01
1.63
1.49
1.46
1.32
0.82
-0.22
-1.80
-3.75
-5.75
-7.51
-8.85
-9.87
-10.85
-12.12
-13.95
-16.37
-19.15
-21.85
-23.93
-24.92
-24.57
-22.85
-19.98
-16.32
-12.25
-8.15
-4.30
-0.93
1.82
3.86
5.22
5.99
6.38
6.58
6.75
6.97
7.28
7.65
8.08
8.57
9.14
9.76
10.39
10.94
11.37
11.65
11.79
11.86
11.90
11.88
11.74
11.40
10.83
10.07
9.28
8.62
8.17
7.92
7.66
7.16
6.23
4.86
3.25
1.68
0.43
-0.39
-0.88
-1.27
-1.81
-2.62
-3.65
-4.77
-5.84
-6.82
-7.80
-8.92
-10.31
-11.97
-13.86
-15.90
-18.09
-20.45
-22.88
-25.12
-26.71
-27.12
-25.97
-23.27
-19.42
-15.07
-10.86
-7.20
-4.20
-1.76
0.27
1.99
3.35
4.35
5.02
5.48
5.86
6.28
6.78
7.36
7.99
8.62
9.19
9.65
9.97
10.18
10.39
10.73
11.24
11.81
12.25
12.35
12.00
11.28
10.35
9.40
8.56
7.77
6.97
6.05
5.01
3.87
2.73
1.67
0.74
-0.02
-0.68
-1.33
-2.11
-3.14
-4.40
-5.75
-6.96
-7.83
-8.32
-8.62
-9.06
-9.98
-11.61
-13.93
-16.66
-19.38
-21.62
-22.95
-23.11
-21.99
-19.71
-16.55
-12.83
-8.95
-5.18
-1.74
1.19
3.55
5.32
6.57
7.42
7.98
8.31
8.44
8.38
8.18
7.99
8.01
8.39
9.18
10.24
11.32
12.14
12.54
12.51
12.15
11.66
11.16
10.71
10.24
9.70
9.04
8.28
7.46
6.65
5.87
5.09
4.25
3.35
2.34
1.23
0.03
-1.25
-2.60
-3.96
-5.30
-6.56
-7.77
-9.00
-10.39
-12.05
-14.07
-16.45
-19.05
-21.67
-23.96
-25.48
-25.85
-24.80
-22.33
-18.74
-14.54
-10.30
-6.48
-3.29
-0.76
1.24
2.85
4.16
5.19
5.94
6.40
6.67
6.89
7.21
7.71
8.39
9.16
9.93
10.66
11.40
12.20
13.06
13.92
14.59
14.91
14.78
14.25
13.46
12.61
11.85
11.25
10.80
10.44
10.05
9.53
8.79
7.77
6.53
5.19
3.92
2.81
1.87
0.99
0.04
-1.10
-2.41
-3.85
-5.34
-6.80
-8.26
-9.74
-11.26
-12.82
-14.40
-16.02
-17.76
-19.67
-21.70
-23.67
-25.22
-25.93
-25.47
-23.68
-20.67
-16.75
-12.39
-8.09
-4.22
-0.98
1.57
3.50
4.89
5.81
6.34
6.55
6.64
6.81
7.26
8.10
9.19
10.32
11.23
11.75
11.97
12.09
12.37
12.95
13.75
14.53
15.01
15.03
14.61
13.94
13.27
12.77
12.44
12.15
11.75
11.15
10.36
9.50
8.69
7.94
7.24
6.48
5.65
4.75
3.82
2.91
2.05
1.25
0.50
-0.16
-0.74
-1.29
-1.93
-2.77
-3.88
-5.23
-6.67
-8.05
-9.23
-10.20
-11.04
-11.88
-12.86
-14.14
-15.82
-17.97
-20.51
-23.15
-25.46
-26.87
-26.92
-25.39
-22.40
-18.40
-13.98
-9.68
-5.88
-2.72
-0.19
1.80
3.35
4.59
5.61
6.51
7.38
8.24
9.07
9.83
10.45
10.92
11.26
11.54
11.81
12.14
12.59
13.12
13.68
14.17
14.50
14.62
14.58
14.48
14.37
14.30
14.22
14.02
13.60
12.82
11.67
10.22
8.66
7.30
6.37
5.95
5.93
6.03
5.93
5.46
4.61
3.51
2.36
1.30
0.37
-0.43
-1.16
-1.84
-2.58
-3.45
-4.58
-6.00
-7.65
-9.36
-10.91
-12.13
-13.02
-13.74
-14.60
-15.87
-17.73
-20.10
-22.62
-24.80
-26.13
-26.24
-25.01
-22.60
-19.36
-15.67
-11.91
-8.36
-5.19
-2.51
-0.33
1.38
2.69
3.69
4.48
5.12
5.63
6.00
6.20
6.22
6.11
5.97
5.93
6.09
6.44
6.91
7.36
7.69
7.81
7.73
7.55
7.36
7.30
7.49
8.00
8.85
9.91
10.99
11.83
12.28
12.28
11.94
11.43
10.91
10.44
10.02
9.65
9.34
9.11
8.92
8.69
8.31
7.72
6.99
6.26
5.72
5.43
5.36
5.35
5.24
4.92
4.36
3.64
2.76
1.79
0.73
-0.34
-1.36
-2.27
-3.09
-3.94
-5.01
-6.44
-8.23
-10.18
-11.97
-13.35
-14.26
-14.92
-15.76
-17.17
-19.30
-21.93
-24.53
-26.44
-27.12
-26.31
-24.12
-20.88
-17.06
-13.10
-9.33
-5.98
-3.12
-0.79
1.05
2.44
3.48
4.24
4.84
5.35
5.80
6.23
6.65
7.10
7.65
8.32
9.07
9.80
10.37
10.73
10.93
11.07
11.29
11.63
12.02
12.38
12.58
12.59
12.42
12.12
11.71
11.23
10.71
10.16
9.61
9.06
8.48
7.88
7.25
6.63
6.01
5.38
4.67
3.86
2.95
2.00
1.09
0.21
-0.68
-1.71
-2.98
-4.42
-5.88
-7.10
-7.85
-8.10
-8.02
-7.96
-8.34
-9.47
-11.46
-14.15
-17.10
-19.74
-21.50
-21.94
-20.93
-18.66
-15.55
-12.13
-8.85
-5.94
-3.43
-1.21
0.78
2.55
3.99
5.00
5.54
5.69
5.66
5.64
5.83
6.30
7.00
7.82
8.62
9.32
9.86
10.29
10.64
10.94
11.20
11.40
11.50
11.48
11.30
10.97
10.50
9.90
9.17
8.32
7.37
6.34
5.27
4.23
3.31
2.54
1.92
1.38
0.81
0.12
-0.72
-1.72
-2.82
-3.98
-5.18
-6.39
-7.60
-8.74
-9.73
-10.53
-11.20
-11.95
-13.07
-14.79
-17.17
-19.94
-22.58
-24.43
-24.96
-23.94
-21.48
-18.00
-14.00
-9.88
-5.98
-2.48
0.44
2.68
4.16
4.97
5.31
5.48
5.75
6.25
6.96
7.73
8.41
8.92
9.31
9.67
10.12
10.69
11.33
11.91
12.28
12.37
12.19
11.80
11.30
10.76
10.18
9.53
8.77
7.93
7.11
6.44
5.99
5.76
5.63
5.42
4.98
4.29
3.40
2.47
1.63
0.94
0.33
-0.38
-1.33
-2.54
-3.87
-5.09
-5.99
-6.56
-6.93
-7.38
-8.16
-9.43
-11.14
-13.20
-15.46
-17.87
-20.33
-22.63
-24.45
-25.34
-24.92
-23.10
-20.08
-16.34
-12.46
-8.89
-5.84
-3.30
-1.18
0.63
2.13
3.30
4.11
4.63
4.99
5.37
5.86
6.52
7.27
7.96
8.47
8.72
8.79
8.86
9.10
9.61
10.28
10.90
11.20
11.06
10.54
9.85
9.25
8.92
8.85
8.94
9.02
8.94
8.61
7.98
7.11
6.06
5.00
4.03
3.19
2.36
1.40
0.12
-1.51
-3.36
-5.16
-6.65
-7.69
-8.33
-8.81
-9.44
-10.51
-12.21
-14.52
-17.18
-19.78
-21.76
-22.63
-22.13
-20.21
-17.15
-13.35
-9.25
-5.26
-1.66
1.33
3.58
5.07
5.95
6.42
6.76
7.15
7.64
8.17
8.61
8.90
9.06
9.16
9.28
9.44
9.70
10.06
10.51
11.03
11.54
11.90
11.99
11.70
10.98
9.89
8.61
7.34
6.24
5.40
4.74
4.14
3.45
2.58
1.55
0.44
-0.71
-1.88
-3.13
-4.47
-5.83
-7.13
-8.28
-9.35
-10.53
-12.08
-14.17
-16.77
-19.59
-22.16
-23.94
-24.50
-23.62
-21.31
-17.84
-13.68
-9.38
-5.43
-2.17
0.28
2.00
3.19
4.08
4.80
5.43
5.95
6.34
6.62
6.89
7.26
7.82
8.66
9.76
11.02
12.33
13.54
14.54
15.28
15.78
16.05
16.13
15.99
15.59
14.88
13.85
12.58
11.22
9.94
8.87
8.01
7.27
6.53
5.64
4.58
3.44
2.34
1.40
0.61
-0.18
-1.14
-2.40
-3.95
-5.64
-7.26
-8.65
-9.80
-10.80
-11.81
-12.99
-14.46
-16.25
-18.36
-20.68
-22.99
-24.94
-26.07
-25.98
-24.44
-21.54
-17.70
-13.52
-9.60
-6.37
-3.98
-2.30
-1.08
-0.01
1.05
2.16
3.21
4.11
4.80
5.31
5.74
6.18
6.66
7.18
7.65
8.02
8.33
8.64
9.00
9.37
9.67
9.76
9.49
8.89
8.06
7.12
6.21
5.41
4.72
4.11
3.52
2.86
2.03
0.94
-0.46
-2.11
-3.90
-5.68
-7.41
-9.10
-10.86
-12.77
-14.92
-17.30
-19.97
-22.98
-26.37
-30.10
-33.97
-37.57
-40.44
-42.19
-42.72
-42.23
-41.21
-40.21
-39.59
-39.40
-39.40
-39.26
-38.79
-38.04
-37.28
-36.76
-36.45
-36.01
-34.95
-32.99
-30.27
-27.46
-25.29
-24.25
-24.22
-24.62
-24.74
-24.21
-23.07
-21.58
-19.79
-17.26
-13.18
-6.84
1.84
12.13
22.71
32.25
39.98
45.91
50.60
54.71
58.63
62.31
65.41
67.56
68.54
68.40
67.25
65.23
62.42
58.97
55.18
51.58
48.89
47.75
48.53
51.06
54.64
58.21
60.76
61.72
61.17
59.81
58.72
58.83
60.47
63.24
66.05
67.72
67.52
65.68
63.32
61.97
62.92
66.50
72.16
78.81
85.65
92.46
99.33
105.99
111.55
114.82
115.21
113.39
110.96
109.09
107.17
102.42
91.36
72.27
47.11
21.46
2.19
-6.06
-3.33
5.64
13.82
15.20
7.18
-9.46
-32.32
-59.40
-90.08
-124.26
-160.65
-195.60
-223.68
-239.83
-241.93
-232.16
-216.27
-201.20
