1653117411.00
64.000000
-0.00
-0.00
-0.00
-0.00
-0.00
-0.00
-0.00
-0.00
-0.00
-0.00
0.00
0.01
0.01
-0.00
-0.03
-0.05
-0.05
0.00
0.13
0.36
0.66
1.01
1.37
1.72
2.06
2.40
2.79
3.24
3.80
4.42
5.06
5.66
6.20
6.68
7.15
7.68
8.31
9.14
10.09
11.04
11.88
12.56
13.14
13.76
14.65
15.96
17.91
20.32
22.90
25.38
27.58
29.57
31.68
34.32
37.81
42.54
48.15
54.10
59.83
64.97
69.58
74.14
79.34
85.71
93.76
103.00
112.62
121.73
129.77
136.75
143.30
150.75
157.77
166.64
177.95
191.79
206.97
220.57
228.25
225.36
208.53
176.87
132.76
80.05
23.07
-34.95
-92.44
-149.16
-205.23
-260.35
-313.71
-363.83
-409.81
-450.94
-486.62
-515.97
-537.57
-549.64
-550.41
-538.82
-514.64
-479.10
-434.34
-382.99
-327.67
-270.60
-213.47
-157.52
-103.79
-53.19
-6.75
34.62
70.25
99.91
123.81
142.54
156.83
167.36
174.64
178.94
180.43
179.34
176.06
171.10
165.08
158.49
151.59
144.39
136.75
128.51
119.69
110.53
101.48
92.97
85.25
78.24
71.60
64.84
57.61
49.86
41.93
34.37
27.68
22.11
17.54
13.57
9.71
5.58
0.84
-4.77
-11.29
-18.28
-24.44
-27.76
-26.15
-18.46
-5.29
10.91
26.65
38.75
45.47
46.93
44.67
40.62
36.30
32.53
29.63
27.66
26.81
27.13
28.38
30.01
31.16
31.06
29.19
25.71
21.53
18.00
16.35
17.01
19.35
21.78
22.55
20.60
16.11
10.36
5.05
1.42
-0.24
-0.55
-0.49
-0.77
-1.57
-2.57
-3.35
-3.69
-3.69
-3.65
-3.83
-4.39
-5.15
-5.81
-6.07
-5.86
-5.32
-4.80
-4.61
-4.89
-5.52
-6.16
-6.46
-6.23
-5.50
-4.51
-3.57
-2.94
-2.72
-2.83
-3.09
-3.24
-3.03
-2.21
-0.62
1.80
4.92
8.48
12.07
15.32
17.92
19.73
20.71
20.94
20.49
19.42
17.77
15.59
12.94
10.03
6.93
3.81
0.84
-1.84
-4.21
-6.31
-8.21
-9.94
-11.44
-12.62
-13.39
-13.74
-13.80
-13.70
-13.58
-13.51
-13.44
-13.34
-13.15
-12.81
-12.34
-11.74
-11.04
-10.31
-9.58
-8.89
-8.24
-7.58
-6.83
-5.92
-4.84
-3.69
-2.64
-1.82
-1.37
-1.33
-1.68
-2.31
-3.01
-3.45
-3.29
-2.26
-0.27
2.43
5.38
7.99
9.75
10.42
10.08
9.05
7.75
6.47
5.33
4.31
3.27
2.15
0.95
-0.21
-1.24
-2.10
-2.89
-3.81
-5.05
-6.55
-8.20
-9.81
-11.26
-12.51
-13.65
-14.80
-16.00
-17.14
-17.95
-18.18
-17.63
-16.26
-14.24
-11.81
-9.26
-6.78
-4.46
-2.30
-0.27
1.63
3.31
4.64
5.46
5.70
5.38
4.56
3.25
1.33
-1.47
-5.47
-10.94
-17.88
-26.04
-34.89
-43.66
-51.52
-57.53
-60.90
-61.03
-57.71
-51.30
-42.59
-32.72
-22.89
-14.07
-6.86
-1.42
2.39
4.90
6.48
7.43
7.99
8.32
8.55
8.81
9.25
10.04
11.31
13.10
15.36
17.95
20.69
23.49
26.35
29.33
32.48
35.77
39.07
42.22
45.12
47.76
50.11
52.02
53.08
52.67
50.17
45.28
38.27
29.97
21.48
13.80
7.46
2.46
-1.63
-5.37
-9.22
-13.47
-18.28
-23.73
-29.73
-35.88
-41.38
-45.11
-45.95
-43.22
-37.02
-28.26
-18.37
-8.81
-0.59
5.85
10.59
13.87
15.87
16.57
15.92
13.99
11.11
7.92
5.15
3.51
3.51
5.35
8.95
13.91
19.63
25.33
30.30
33.97
36.17
37.07
37.17
37.12
37.51
38.66
40.48
42.42
43.51
42.73
39.28
32.99
24.40
14.58
4.78
-3.96
-11.11
-16.60
-20.67
-23.64
-25.83
-27.50
-29.02
-30.84
-33.38
-36.87
-41.16
-45.66
-49.43
-51.41
-50.75
-47.04
-40.49
-31.81
-22.05
-12.21
-3.03
5.11
12.15
18.12
23.07
26.92
29.55
30.94
31.28
30.91
30.30
29.82
29.60
29.59
29.55
29.24
28.55
27.50
26.23
24.88
23.51
22.11
20.63
19.02
17.30
15.48
13.58
11.57
9.41
7.13
4.82
2.57
0.50
-1.39
-3.19
-5.07
-7.15
-9.49
-12.01
-14.58
-17.07
-19.46
-21.82
-24.34
-27.17
-30.39
-33.92
-37.54
-40.90
-43.58
-45.11
-45.09
-43.25
-39.50
-34.03
-27.26
-19.79
-12.28
-5.27
0.85
5.93
9.90
12.75
14.51
15.26
15.22
14.76
14.37
14.46
15.22
16.55
18.08
19.43
20.35
20.81
20.97
21.03
21.03
20.88
20.34
19.26
17.62
15.61
13.50
11.53
9.75
8.05
6.28
4.27
2.00
-0.38
-2.74
-4.91
-6.91
-8.87
-10.98
-13.42
-16.28
-19.55
-23.11
-26.77
-30.24
-33.15
-34.99
-35.24
-33.50
-29.73
-24.21
-17.62
-10.73
-4.21
1.51
6.32
10.26
13.37
15.66
17.11
17.73
17.70
17.28
16.76
16.37
16.21
16.23
16.33
16.40
16.38
16.27
16.06
15.76
15.38
14.85
14.10
13.04
11.59
9.73
7.51
5.10
2.70
0.51
-1.39
-3.13
-4.90
-6.97
-9.45
-12.29
-15.27
-18.12
-20.63
-22.76
-24.67
-26.62
-28.88
-31.62
-34.91
-38.60
-42.33
-45.55
-47.53
-47.59
-45.25
-40.40
-33.40
-24.99
-16.09
-7.57
-0.08
6.09
10.93
14.63
17.43
19.50
20.97
21.94
22.52
22.88
23.23
23.69
24.27
24.86
25.23
25.24
24.87
24.28
23.67
23.15
22.66
21.98
20.87
19.20
17.06
14.65
12.21
9.85
7.59
5.40
3.21
1.01
-1.24
-3.58
-6.09
-8.76
-11.50
-14.10
-16.38
-18.30
-20.03
-21.89
-24.23
-27.25
-30.95
-35.06
-39.11
-42.48
-44.47
-44.48
-42.12
-37.35
-30.53
-22.37
-13.69
-5.28
2.32
8.87
14.31
18.69
22.07
24.52
26.14
27.08
27.59
27.89
28.16
28.45
28.71
28.83
28.79
28.60
28.37
28.18
28.03
27.82
27.39
26.61
25.43
23.90
22.14
20.28
18.44
16.63
14.86
13.07
11.20
9.21
7.06
4.73
2.24
-0.38
-3.08
-5.78
-8.41
-10.90
-13.22
-15.37
-17.40
-19.37
-21.38
-23.52
-25.87
-28.55
-31.58
-34.82
-37.91
-40.27
-41.22
-40.19
-36.97
-31.78
-25.27
-18.29
-11.62
-5.82
-1.15
2.38
4.89
6.49
7.25
7.26
6.61
5.50
4.17
2.87
1.83
1.20
1.05
1.38
2.11
3.14
4.34
5.62
6.89
8.14
9.34
10.48
11.51
12.32
12.76
12.72
12.17
11.25
10.17
9.19
8.44
7.91
7.42
6.73
5.66
4.20
2.49
0.73
-0.97
-2.68
-4.58
-6.89
-9.80
-13.39
-17.62
-22.40
-27.45
-32.32
-36.35
-38.79
-39.02
-36.76
-32.17
-25.84
-18.55
-11.06
-3.91
2.59
8.31
13.17
17.13
20.10
22.09
23.22
23.73
23.98
24.31
24.94
25.86
26.81
27.42
27.33
26.36
24.56
22.25
19.77
17.42
15.33
13.42
11.56
9.62
7.52
5.30
2.99
0.62
-1.82
-4.36
-7.05
-9.87
-12.72
-15.38
-17.62
-19.23
-20.06
-20.17
-19.72
-18.99
-18.28
-17.82
-17.78
-18.22
-19.13
-20.30
-21.32
-21.66
-20.76
-18.35
-14.56
-9.92
-5.20
-1.08
2.07
4.26
5.79
7.01
8.15
9.28
10.37
11.35
12.22
13.01
13.73
14.40
15.00
15.52
15.96
16.35
16.72
17.13
17.64
18.23
18.84
19.32
19.55
19.46
19.15
18.78
18.53
18.45
18.40
18.11
17.32
15.86
13.73
11.07
8.09
5.05
2.15
-0.41
-2.52
-4.19
-5.56
-6.81
-8.15
-9.67
-11.33
-13.02
-14.61
-16.05
-17.39
-18.79
-20.44
-22.51
-25.09
-28.02
-30.97
-33.34
-34.45
-33.72
-30.90
-26.13
-19.99
-13.31
-6.89
-1.35
3.08
6.45
9.00
10.94
12.37
13.27
13.62
13.44
12.94
12.42
12.20
12.43
13.10
13.97
14.80
15.38
15.64
15.66
15.55
15.43
15.35
15.30
15.27
15.28
15.36
15.53
15.77
16.02
16.20
16.23
16.05
15.57
14.73
13.40
11.49
8.94
5.71
1.88
-2.48
-7.22
-12.23
-17.37
-22.59
-27.82
-33.02
-38.07
-42.72
-46.58
-49.10
-49.76
-48.22
-44.53
-39.11
-32.69
-26.13
-20.11
-15.08
-11.14
-8.18
-5.99
-4.39
-3.25
-2.46
-1.94
-1.53
-1.05
-0.26
1.06
3.15
6.11
9.89
14.29
18.95
23.48
27.47
30.68
32.93
34.20
34.51
33.98
32.79
31.13
29.20
27.11
24.87
22.35
19.33
15.64
11.25
6.31
1.16
-3.78
-8.17
-11.82
-14.81
-17.40
-19.98
-22.92
-26.48
-30.64
-35.11
-39.32
-42.50
-43.85
-42.81
-39.19
-33.20
-25.48
-16.80
-7.95
0.47
8.03
14.49
19.75
23.78
26.66
28.51
29.54
29.96
29.91
29.50
28.80
27.86
26.73
25.51
24.29
23.17
22.18
21.29
20.37
19.28
17.84
15.97
13.65
10.98
8.11
5.18
2.33
-0.40
-2.98
-5.44
-7.80
-10.09
-12.34
-14.54
-16.65
-18.54
-20.09
-21.16
-21.65
-21.58
-21.06
-20.35
-19.79
-19.71
-20.25
-21.29
-22.41
-22.96
-22.35
-20.18
-16.47
-11.58
-6.07
-0.52
4.58
8.93
12.34
14.74
16.18
16.79
16.83
16.57
16.22
15.89
15.57
15.19
14.70
14.11
13.48
12.91
12.46
12.13
11.85
11.46
10.82
9.82
8.47
6.86
5.13
3.40
1.73
0.11
-1.49
-3.13
-4.82
-6.56
-8.31
-10.02
-11.60
-12.94
-13.98
-14.74
-15.41
-16.25
-17.56
-19.47
-21.83
-24.19
-25.85
-26.11
-24.49
-20.84
-15.47
-8.98
-2.09
4.56
10.51
15.60
19.81
23.23
25.96
28.03
29.41
30.04
29.79
28.50
26.04
22.34
17.47
11.65
5.24
-1.37
-7.83
-13.83
-19.16
-23.69
-27.34
-30.11
-32.08
-33.40
-34.29
-34.91
-35.43
-35.89
-36.27
-36.54
-36.63
-36.55
-36.29
-35.92
-35.53
-35.22
-35.16
-35.52
-36.36
-37.54
-38.60
-38.81
-37.37
-33.65
-27.50
-19.30
-9.91
-0.31
8.66
16.46
22.91
28.05
32.00
34.87
36.73
37.66
37.78
37.24
36.23
34.91
33.43
31.94
30.51
29.19
27.94
26.62
25.06
23.13
20.77
18.10
15.33
12.68
10.31
8.17
6.12
3.90
1.33
-1.67
-5.10
-8.89
-12.92
-17.10
-21.31
-25.48
-29.61
-33.80
-38.24
-43.06
-48.21
-53.32
-57.69
-60.52
-61.11
-59.05
-54.34
-47.37
-38.73
-29.16
-19.37
-9.92
-1.21
6.60
13.49
19.53
24.79
29.27
32.90
35.61
37.32
38.01
37.76
36.67
34.91
32.70
30.32
28.04
26.04
24.36
22.91
21.52
20.06
18.44
16.70
14.93
13.21
11.58
10.02
8.47
6.88
5.24
3.61
2.09
0.77
-0.30
-1.15
-1.85
-2.55
-3.39
-4.53
-6.09
-8.08
-10.39
-12.71
-14.64
-15.70
-15.51
-13.88
-10.86
-6.73
-1.86
3.39
8.70
13.83
18.55
22.69
26.08
28.64
30.38
31.46
32.14
32.73
33.49
34.60
36.08
37.82
39.64
41.35
42.85
44.14
45.31
46.41
47.41
48.17
48.46
48.06
46.84
44.78
41.92
38.26
33.78
28.44
22.24
15.36
8.14
1.05
-5.47
-11.12
-15.79
-19.61
-22.85
-25.78
-28.69
-31.80
-35.25
-39.05
-42.99
-46.63
-49.34
-50.48
-49.64
-46.79
-42.33
-36.95
-31.39
-26.25
-21.79
-18.06
-14.99
-12.51
-10.62
-9.34
-8.58
-8.14
-7.80
-7.31
-6.54
-5.40
-3.87
-1.93
0.42
3.06
5.75
8.12
9.75
10.34
9.80
8.26
6.13
3.84
1.87
0.53
-0.07
-0.07
0.16
0.03
-1.13
-3.96
-8.89
-16.10
-25.33
-36.02
-47.27
-58.09
-67.49
-74.74
-79.41
-81.42
-80.94
-78.29
-73.81
-67.82
-60.67
-52.79
-44.68
-36.90
-29.95
-24.13
-19.54
-16.06
-13.47
-11.47
-9.83
-8.34
-6.79
-4.97
-2.67
0.21
3.61
7.29
10.88
14.00
16.37
17.94
18.83
19.23
19.31
19.13
18.63
17.73
16.38
14.64
12.64
10.53
8.41
6.30
4.14
1.78
-0.92
-4.09
-7.76
-11.79
-15.79
-19.19
-21.26
-21.30
-18.83
-13.72
-6.25
2.92
12.96
23.04
32.52
41.01
48.34
54.47
59.36
63.03
65.56
67.12
67.99
68.47
68.78
69.01
69.08
68.86
68.24
67.24
66.00
64.67
63.32
61.85
60.03
57.60
54.41
50.54
46.26
41.95
37.88
34.11
30.49
26.79
22.85
18.67
14.43
10.30
6.38
2.62
-1.11
-4.92
-8.82
-12.74
-16.53
-20.08
-23.25
-25.91
-27.84
-28.75
-28.35
-26.52
-23.41
-19.40
-15.06
-10.92
-7.36
-4.52
-2.37
-0.83
0.18
0.71
0.81
0.63
0.40
0.40
0.78
1.52
2.47
3.38
4.11
4.62
5.00
5.32
5.59
5.70
5.54
5.02
4.19
3.17
2.14
1.20
0.36
-0.49
-1.50
-2.81
-4.46
-6.40
-8.52
-10.69
-12.82
-14.94
-17.12
-19.51
-22.16
-25.01
-27.78
-30.04
-31.28
-31.08
-29.22
-25.78
-21.17
-16.00
-10.90
-6.35
-2.58
0.41
2.75
4.53
5.78
6.47
6.63
6.35
5.79
5.14
4.52
4.00
3.57
3.27
3.15
3.23
3.53
3.94
4.30
4.45
4.28
3.79
3.06
2.21
1.34
0.50
-0.30
-1.09
-1.91
-2.80
-3.77
-4.81
-5.91
-7.06
-8.26
-9.57
-11.01
-12.61
-14.35
-16.05
-17.46
-18.18
-17.87
-16.29
-13.45
-9.58
-5.10
-0.52
3.68
7.20
9.85
11.62
12.56
12.81
12.50
11.78
10.82
9.78
8.78
7.91
7.17
6.50
5.79
4.97
4.01
2.95
1.88
0.88
-0.01
-0.78
-1.48
-2.15
-2.81
-3.48
-4.18
-4.94
-5.75
-6.61
-7.46
-8.28
-9.03
-9.76
-10.57
-11.55
-12.78
-14.29
-16.04
-17.85
-19.45
-20.44
-20.44
-19.21
-16.73
-13.24
-9.13
-4.84
-0.72
2.99
6.12
8.51
10.08
10.80
10.81
10.38
9.85
9.50
9.48
9.81
10.39
11.08
11.77
12.34
12.70
12.79
12.65
12.34
11.95
11.51
10.97
10.22
9.16
7.77
6.13
4.38
2.60
0.81
-1.05
-3.09
-5.37
-7.89
-10.57
-13.28
-15.87
-18.12
-19.80
-20.70
-20.71
-19.88
-18.49
-16.86
-15.28
-13.87
-12.52
-11.01
-9.20
-7.11
-5.02
-3.23
-1.98
-1.22
-0.72
-0.10
0.91
2.43
4.35
6.44
8.39
9.93
10.90
11.20
10.87
10.00
8.72
7.15
5.38
3.50
1.58
-0.23
-1.82
-3.07
-3.99
-4.69
-5.38
-6.27
-7.52
-9.14
-11.01
-12.83
-14.23
-14.80
-14.25
-12.43
-9.48
-5.73
-1.60
2.45
6.03
8.88
10.87
11.96
12.25
11.89
11.11
10.11
9.03
7.94
6.88
5.87
4.94
4.14
3.44
2.81
2.18
1.54
0.93
0.41
0.01
-0.34
-0.80
-1.57
-2.77
-4.39
-6.28
-8.20
-9.95
-11.37
-12.45
-13.28
-14.03
-14.94
-16.20
-17.92
-20.08
-22.47
-24.79
-26.58
-27.44
-27.00
-25.15
-22.01
-17.94
-13.46
-9.09
-5.22
-2.05
0.42
2.28
3.64
4.60
5.21
5.55
5.73
5.85
6.02
6.25
6.55
6.84
7.05
7.15
7.12
7.01
6.88
6.78
6.71
6.61
6.36
5.90
5.20
4.34
3.44
2.58
1.81
1.09
0.34
-0.49
-1.46
-2.56
-3.78
-5.14
-6.70
-8.48
-10.47
-12.45
-14.04
-14.77
-14.20
-12.13
-8.69
-4.32
0.39
4.88
8.80
11.98
14.45
16.24
17.34
17.72
17.38
16.40
15.00
13.44
11.95
10.67
9.65
8.82
8.11
7.46
6.85
6.29
5.81
5.39
5.04
4.73
4.47
4.23
4.01
3.72
3.29
2.61
1.69
0.57
-0.60
-1.70
-2.70
-3.63
-4.64
-5.83
-7.28
-8.96
-10.77
-12.53
-14.03
-15.01
-15.18
-14.28
-12.23
-9.20
-5.62
-2.05
0.99
3.19
4.56
5.34
5.78
6.04
6.13
5.98
5.55
4.92
4.28
3.81
3.57
3.49
3.41
3.18
2.78
2.30
1.86
1.48
1.09
0.52
-0.38
-1.61
-3.07
-4.51
-5.76
-6.72
-7.46
-8.16
-9.00
-10.14
-11.63
-13.42
-15.40
-17.33
-18.89
-19.73
-19.48
-17.93
-15.12
-11.31
-6.99
-2.67
1.24
4.49
7.04
8.97
10.34
11.19
11.53
11.41
10.96
10.41
9.95
9.68
9.53
9.34
8.90
8.14
7.14
6.06
5.09
4.26
3.49
2.56
1.31
-0.30
-2.14
-4.02
-5.76
-7.28
-8.61
-9.89
-11.29
-12.93
-14.86
-17.05
-19.35
-21.48
-23.04
-23.57
-22.64
-20.03
-15.77
-10.20
-3.87
2.58
8.54
13.54
17.30
19.74
20.97
21.28
21.03
20.59
20.27
20.21
20.42
20.76
21.02
21.00
20.56
19.64
18.30
16.65
14.78
12.77
10.64
8.41
6.10
3.79
1.58
-0.48
-2.35
-4.12
-5.90
-7.83
-9.94
-12.25
-14.72
-17.31
-20.04
-22.89
-25.76
-28.34
-30.13
-30.58
-29.27
-26.09
-21.34
-15.59
-9.53
-3.74
1.38
5.63
8.90
11.12
12.36
12.80
12.77
12.70
12.95
13.71
14.95
16.47
18.00
19.35
20.44
21.28
21.94
22.49
22.97
23.35
23.57
23.57
23.29
22.74
22.03
21.32
20.76
20.41
20.17
19.84
19.15
17.92
16.15
13.97
11.61
9.32
7.30
5.65
4.46
3.70
3.33
3.24
3.37
3.69
4.30
5.32
6.80
8.60
10.37
11.59
11.79
10.65
8.15
4.52
0.20
-4.26
-8.35
-11.62
-13.81
-14.84
-14.89
-14.32
-13.58
-13.09
-13.13
-13.88
-15.35
-17.44
-19.95
-22.61
-25.05
-26.97
-28.12
-28.45
-28.08
-27.28
-26.39
-25.68
-25.35
-25.44
-25.88
-26.47
-26.92
-26.91
-26.14
-24.34
-21.42
-17.46
-12.77
-7.76
-2.95
1.21
4.43
6.60
7.80
8.26
8.28
8.10
7.90
7.79
7.81
7.96
8.23
8.61
9.04
9.44
9.71
9.80
9.73
9.60
9.58
9.72
9.97
10.11
9.86
8.97
7.38
5.21
2.72
0.21
-2.08
-4.06
-5.78
-7.39
-9.08
-10.98
-13.14
-15.42
-17.54
-19.09
-19.63
-18.79
-16.47
-12.81
-8.20
-3.15
1.84
6.39
10.22
13.15
15.02
15.73
15.27
13.77
11.60
9.22
7.04
5.31
4.03
3.03
2.09
1.07
-0.02
-1.09
-2.03
-2.80
-3.44
-4.07
-4.85
-5.89
-7.20
-8.73
-10.34
-11.91
-13.34
-14.64
-15.85
-17.08
-18.43
-19.98
-21.81
-23.92
-26.25
-28.53
-30.30
-30.92
-29.75
-26.38
-20.86
-13.75
-5.94
1.64
8.30
13.73
17.96
21.13
23.35
24.66
25.11
24.86
24.21
23.49
22.96
22.70
22.61
22.47
22.11
21.44
20.50
19.39
18.19
16.96
15.71
14.38
12.96
11.41
9.79
8.17
6.66
5.34
4.25
3.36
2.65
2.06
1.56
1.08
0.51
-0.26
-1.31
-2.66
-4.21
-5.77
-7.10
-7.91
-7.95
-7.07
-5.24
-2.60
0.56
3.87
6.99
9.65
11.74
13.24
14.22
14.74
14.83
14.53
13.87
12.95
11.94
11.04
10.41
10.14
10.19
10.36
10.40
10.10
9.35
8.22
6.88
5.54
4.39
3.49
2.81
2.22
1.57
0.71
-0.43
-1.83
-3.44
-5.18
-7.01
-8.90
-10.83
-12.82
-14.88
-17.03
-19.31
-21.75
-24.26
-26.58
-28.22
-28.60
-27.25
-24.03
-19.23
-13.48
-7.56
-2.11
2.52
6.30
9.31
11.62
13.19
13.92
13.79
12.97
11.80
10.65
9.78
9.23
8.84
8.34
7.51
6.28
4.71
3.00
1.36
-0.03
-1.14
-2.10
-3.14
-4.52
-6.37
-8.69
-11.29
-13.94
-16.42
-18.65
-20.69
-22.63
-24.61
-26.70
-28.99
-31.46
-34.03
-36.39
-38.11
-38.58
-37.28
-33.89
-28.50
-21.54
-13.72
-5.73
1.79
8.48
14.16
18.79
22.38
24.97
26.62
27.47
27.75
27.76
27.76
27.92
28.25
28.64
28.94
29.10
29.15
29.22
29.42
29.74
30.06
30.21
30.06
29.57
28.84
27.96
27.00
25.94
24.71
23.25
21.56
19.71
17.81
15.95
14.19
12.48
10.72
8.70
6.11
2.56
-2.29
-8.52
-15.83
-23.46
-30.40
-35.64
-38.57
-39.04
-37.41
-34.32
-30.42
-26.23
-22.13
-18.34
-15.03
-12.28
-10.06
-8.20
-6.45
-4.58
-2.45
-0.04
2.55
5.22
7.84
10.36
12.71
14.87
16.81
18.50
19.89
20.94
21.59
21.79
21.49
20.68
19.39
17.71
15.73
13.54
11.18
8.65
5.93
3.02
-0.05
-3.23
-6.46
-9.71
-12.95
-16.17
-19.28
-22.20
-24.79
-26.96
-28.65
-29.75
-30.14
-29.62
-28.04
-25.37
-21.78
-17.68
-13.59
-9.96
-7.06
-4.91
-3.36
-2.22
-1.34
-0.70
-0.32
-0.23
-0.40
-0.73
-1.16
-1.60
-2.02
-2.37
-2.59
-2.62
-2.42
-2.08
-1.73
-1.58
-1.73
-2.18
-2.83
-3.56
-4.28
-5.06
-6.01
-7.20
-8.60
-10.05
-11.32
-12.27
-12.92
-13.47
-14.22
-15.38
-17.02
-19.03
-21.19
-23.26
-24.99
-26.20
-26.64
-26.01
-24.02
-20.55
-15.73
-9.99
-3.96
1.72
6.58
10.44
13.35
15.44
16.87
17.71
18.01
17.87
17.47
17.02
16.70
16.56
16.55
16.51
16.31
15.90
15.29
14.59
13.85
13.07
12.21
11.19
10.02
8.73
7.43
6.23
5.15
4.15
3.18
2.20
1.23
0.32
-0.48
-1.17
-1.79
-2.45
-3.26
-4.30
-5.57
-7.05
-8.63
-10.13
-11.25
-11.66
-11.04
-9.21
-6.26
-2.54
1.41
5.07
8.03
10.14
11.46
12.15
12.37
12.21
11.64
10.67
9.34
7.85
6.43
5.27
4.49
4.04
3.80
3.63
3.46
3.30
3.18
3.14
3.19
3.26
3.29
3.25
3.13
2.96
2.72
2.38
1.86
1.05
-0.08
-1.55
-3.30
-5.27
-7.38
-9.66
-12.08
-14.62
-17.08
-19.12
-20.28
-20.18
-18.63
-15.71
-11.76
-7.24
-2.55
2.05
6.41
10.40
13.81
16.42
18.06
18.70
18.57
18.04
17.48
17.12
16.98
16.89
16.59
15.91
14.79
13.31
11.64
9.93
8.30
6.72
5.16
3.50
1.64
-0.47
-2.77
-5.14
-7.37
-9.29
-10.83
-12.05
-13.17
-14.49
-16.23
-18.51
-21.21
-24.02
-26.49
-28.05
-28.15
-26.44
-22.83
-17.63
-11.48
-5.17
0.55
5.26
8.84
11.47
13.41
14.89
16.04
16.92
17.59
18.12
18.54
18.83
18.85
18.44
17.46
15.83
13.66
11.14
8.51
6.01
3.82
2.00
0.53
-0.68
-1.83
-3.07
-4.50
-6.15
-7.97
-9.89
-11.91
-14.09
-16.62
-19.66
-23.35
-27.75
-32.70
-37.89
-42.81
-46.86
-49.37
-49.84
-48.03
-44.08
-38.44
-31.81
-24.91
-18.39
-12.73
-8.22
-5.00
-3.03
-2.10
-1.82
-1.71
-1.26
-0.09
2.04
5.16
9.13
13.66
18.38
22.84
26.63
29.47
31.29
32.24
32.60
32.67
32.62
32.47
32.09
31.35
30.20
28.64
26.79
24.74
22.60
20.44
18.29
16.21
14.21
12.32
10.55
8.90
7.38
5.99
4.76
3.67
2.73
1.94
1.34
0.99
0.99
1.34
1.98
2.73
3.38
3.78
3.91
3.82
3.67
3.56
3.54
3.55
3.51
3.35
3.04
2.62
2.17
1.77
1.48
1.31
1.20
1.09
0.96
0.79
0.61
0.42
0.22
-0.02
-0.36
-0.78
-1.29
-1.85
-2.45
-3.10
-3.84
-4.69
-5.66
-6.72
-7.84
-8.98
-10.11
-11.24
-12.34
-13.38
-14.30
-14.98
-15.24
-14.91
-13.88
-12.18
-9.94
-7.41
-4.81
-2.32
-0.05
1.93
3.50
4.58
5.08
5.02
4.52
3.81
3.11
2.60
2.37
2.42
2.73
3.20
3.70
4.07
4.12
3.77
3.05
2.11
1.17
0.37
-0.27
-0.88
-1.69
-2.85
-4.44
-6.40
-8.61
-10.94
-13.29
-15.62
-17.93
-20.25
-22.59
-24.98
-27.42
-29.79
-31.86
-33.27
-33.55
-32.31
-29.34
-24.73
-18.86
-12.27
-5.56
0.80
6.45
11.13
14.68
16.98
18.06
18.15
17.62
16.92
16.42
16.25
16.33
16.44
16.41
16.19
15.89
15.65
15.56
15.58
15.56
15.36
14.90
14.22
13.41
12.55
11.63
10.56
9.20
7.47
5.39
3.05
0.55
-2.05
-4.76
-7.66
-10.84
-14.32
-18.09
-22.05
-26.10
-30.12
-33.93
-37.22
-39.55
-40.39
-39.31
-36.15
-31.12
-24.76
-17.76
-10.75
-4.15
1.83
7.11
11.63
15.29
18.03
19.89
21.08
21.89
22.63
23.48
24.43
25.33
26.00
26.33
26.28
25.93
25.36
24.63
23.71
22.51
20.95
19.01
16.82
14.58
12.54
10.83
9.44
8.20
6.87
5.22
3.16
0.78
-1.74
-4.15
-6.29
-8.15
-9.86
-11.63
-13.68
-16.21
-19.27
-22.78
-26.48
-29.88
-32.33
-33.14
-31.81
-28.22
-22.69
-15.93
-8.76
-1.88
4.28
9.55
13.94
17.46
20.09
21.82
22.74
23.09
23.21
23.42
23.85
24.45
25.00
25.19
24.87
24.03
22.85
21.56
20.32
19.11
17.75
16.02
13.78
11.06
8.09
5.19
2.65
0.62
-0.89
-2.04
-3.03
-4.05
-5.19
-6.42
-7.70
-8.93
-10.05
-11.07
-12.06
-13.13
-14.44
-16.17
-18.42
-21.18
-24.13
-26.73
-28.30
-28.28
-26.41
-22.89
-18.26
-13.20
-8.32
-3.98
-0.34
2.62
4.91
6.60
7.76
8.54
9.16
9.90
10.96
12.44
14.32
16.42
18.50
20.28
21.52
22.08
21.91
21.08
19.71
17.97
15.98
13.85
11.64
9.41
7.20
5.01
2.81
0.55
-1.80
-4.18
-6.46
-8.53
-10.32
-11.85
-13.26
-14.70
-16.31
-18.24
-20.53
-23.19
-25.98
-28.44
-29.89
-29.62
-27.18
-22.64
-16.62
-10.06
-3.93
1.15
5.01
7.75
9.58
10.62
10.90
10.46
9.51
8.38
7.49
7.14
7.44
8.32
9.62
11.19
12.91
14.74
16.60
18.41
19.99
21.19
21.86
21.94
21.44
20.45
19.11
17.56
15.81
13.81
11.42
8.50
5.04
1.16
-2.88
-6.83
-10.51
-13.92
-17.20
-20.55
-24.15
-28.07
-32.12
-35.88
-38.68
-39.74
-38.41
-34.40
-27.92
-19.68
-10.68
-1.89
6.03
12.71
18.04
22.02
24.60
25.72
25.48
24.16
22.24
20.25
18.56
17.30
16.35
15.51
14.65
13.76
12.99
12.48
12.28
12.34
12.51
12.62
12.58
12.38
12.11
11.84
11.53
11.06
10.23
8.81
6.73
4.06
1.00
-2.20
-5.39
-8.52
-11.64
-14.81
-18.03
-21.29
-24.56
-27.88
-31.21
-34.31
-36.70
-37.64
-36.43
-32.68
-26.57
-18.82
-10.54
-2.76
3.75
8.68
12.08
14.18
15.21
15.34
14.76
13.69
12.42
11.28
10.50
10.20
10.35
10.80
11.35
11.86
12.21
12.38
12.41
12.33
12.18
11.92
11.47
10.74
9.65
8.16
6.29
4.10
1.64
-1.01
-3.81
-6.67
-9.54
-12.39
-15.22
-18.09
-21.11
-24.45
-28.14
-32.11
-35.97
-39.10
-40.73
-40.16
-37.04
-31.48
-24.03
-15.56
-6.97
0.99
7.88
13.47
17.74
20.68
22.36
22.91
22.52
21.49
20.21
19.03
18.23
17.90
18.00
18.34
18.74
19.06
19.29
19.47
19.64
19.83
19.98
20.01
19.85
19.47
18.86
17.99
16.76
15.05
12.72
9.75
6.22
2.39
-1.49
-5.22
-8.76
-12.24
-15.87
-19.83
-24.20
-28.92
-33.73
-38.22
-41.81
-43.84
-43.73
-41.11
-36.04
-29.05
-20.99
-12.84
-5.37
0.99
6.16
10.30
13.59
16.19
18.13
19.47
20.29
20.75
21.05
21.39
21.92
22.66
23.58
24.54
25.38
25.90
25.97
25.52
24.54
23.11
21.34
19.39
17.39
15.42
13.47
11.43
9.16
6.53
3.53
0.29
-2.99
-6.08
-8.89
-11.47
-14.01
-16.73
-19.84
-23.42
-27.42
-31.58
-35.43
-38.32
-39.55
-38.61
-35.32
-29.95
-23.17
-15.79
-8.59
-2.11
3.38
7.79
11.12
13.42
14.80
15.46
15.65
15.66
15.73
15.97
16.41
16.98
17.62
18.27
18.87
19.35
19.62
19.58
19.17
18.38
17.24
15.78
14.05
12.08
9.92
7.60
5.18
2.71
0.22
-2.27
-4.75
-7.21
-9.61
-11.90
-14.06
-16.13
-18.26
-20.63
-23.36
-26.40
-29.36
-31.60
-32.31
-30.86
-27.01
-21.05
-13.74
-6.00
1.32
7.70
12.99
17.23
20.51
22.83
24.07
24.19
23.27
21.58
19.50
17.37
15.35
13.36
11.22
8.76
5.98
3.06
0.33
-1.91
-3.53
-4.62
-5.44
-6.27
-7.29
-8.55
-9.96
-11.32
-12.45
-13.20
-13.52
-13.51
-13.32
-13.22
-13.47
-14.31
-15.91
-18.26
-21.13
-24.01
-26.19
-26.89
-25.45
-21.60
-15.52
-7.92
0.24
8.01
14.64
19.76
23.30
25.43
26.37
26.34
25.54
24.19
22.54
20.95
19.72
19.07
19.04
19.42
19.83
19.89
19.30
18.01
16.16
14.04
11.90
9.82
7.72
5.40
2.66
-0.55
-4.06
-7.59
-10.76
-13.31
-15.17
-16.51
-17.62
-18.85
-20.48
-22.68
-25.47
-28.70
-32.03
-34.94
-36.76
-36.89
-34.92
-30.85
-25.13
-18.50
-11.83
-5.84
-0.97
2.70
5.30
7.05
8.14
8.72
8.89
8.79
8.65
8.70
9.17
10.10
11.36
12.66
13.72
14.31
14.38
14.04
13.43
12.71
11.90
10.94
9.68
8.01
5.90
3.42
0.73
-1.95
-4.43
-6.62
-8.56
-10.42
-12.43
-14.79
-17.63
-20.96
-24.62
-28.31
-31.53
-33.65
-34.07
-32.35
-28.42
-22.64
-15.64
-8.19
-0.96
5.64
11.36
16.09
19.75
22.21
23.40
23.40
22.43
20.89
19.22
17.77
16.73
16.08
15.69
15.43
15.23
15.10
15.09
15.19
15.28
15.13
14.52
13.32
11.58
9.51
7.35
5.33
3.50
1.78
-0.01
-2.12
-4.72
-7.89
-11.65
-15.94
-20.68
-25.74
-30.85
-35.55
-39.20
-41.13
-40.80
-38.06
-33.24
-27.11
-20.66
-14.91
-10.70
-8.61
-8.86
-11.34
-15.49
-20.33
-24.46
-26.36
-24.84
-19.57
-11.31
-1.84
6.60
12.11
13.76
11.82
7.46
2.08
-3.27
-8.18
-12.73
-17.15
-21.48
-25.47
-28.83
-31.46
-33.60
-35.81
-38.72
-42.77
-48.01
-54.05
-60.24
-65.79
-69.99
-72.29
-72.34
-70.00
-65.35
-58.64
-50.30
-40.87
-31.00
-21.30
-12.33
-4.54
1.82
6.73
10.43
13.43
16.41
20.08
24.87
30.80
37.38
43.72
48.85
52.05
53.09
52.28
50.31
47.91
45.55
43.33
40.99
38.11
34.45
30.03
25.24
20.62
16.61
13.38
10.69
8.04
4.82
0.55
-4.96
-11.49
-18.49
-25.12
-30.37
-33.29
-33.13
-29.58
-22.78
-13.31
-2.02
10.22
22.60
34.48
45.25
54.39
61.43
66.09
68.37
68.60
67.42
65.52
63.56
61.93
60.75
59.88
59.04
57.97
56.52
54.71
52.74
50.87
49.29
47.93
46.47
44.28
40.72
35.23
27.67
18.34
7.97
-2.52
-12.25
-20.68
-27.72
-33.63
-38.85
-43.78
-48.61
-53.27
-57.52
-61.00
-63.27
-63.87
-62.33
-58.15
-51.10
-41.28
-29.21
-15.68
-1.55
12.37
25.32
36.67
46.02
53.17
58.16
61.24
62.84
63.44
63.43
63.00
62.23
61.36
60.61
60.04
59.42
58.32
56.23
52.80
47.98
42.13
36.52
32.32
30.10
29.60
30.00
30.48
30.43
29.53
27.71
26.20
25.96
27.14
28.98
30.54
31.33
31.34
30.76
29.74
30.23
33.63
40.04
48.17
56.48
64.22
71.53
78.94
86.94
98.07
113.93
134.07
156.06
176.82
193.91
205.58
210.37
192.28
143.43
68.67
-15.30
-90.52
-146.80
-182.82
-202.58
-211.73
-215.20
-213.69
-206.80
-194.88
-179.98
-164.93
-151.90
-142.01
-135.44
-131.82
-128.55
-123.30
-115.16
-105.00
-94.51
-85.14
-77.77
-72.81
-70.44
-69.36
-68.45
-67.31
-66.34
-65.78
-64.85
-62.35
-56.19
-45.43
-30.12
-12.33
4.42
16.30
20.90
18.34
10.88
1.80
-6.30
-11.88
-14.94
-16.46
-17.64
-19.14
-20.85
-22.53
-24.28
-26.80
-30.43
-34.95
-39.53
-43.05
-44.70
-44.20
-42.13
-39.51
-37.38
-35.28
-32.10
-26.78
-18.92
-9.96
-1.11
6.81
13.34
17.94
21.57
25.77
32.34
42.95
58.59
78.72
100.07
117.10
123.70
118.32
103.98
86.99
74.03
69.74
75.51
89.55
108.66
121.62
121.65
109.27
91.69
76.31
66.12
59.87
54.09
48.37
38.98
26.09
12.04
-0.38
-9.39
-14.49
-16.19
-16.18
-15.31
-14.58
-12.76
-8.19
0.11
11.59
24.43
36.23
44.54
47.39
43.06
31.97
15.48
-4.68
-26.87
-49.37
-70.22
-87.41
-99.26
-105.23
-105.33
-100.70
-93.58
-86.71
-82.43
-81.93
-85.10
-90.73
-97.24
-102.68
-105.28
-103.72
-97.36
-86.32
-71.52
-54.55
-37.25
-21.46
-8.41
1.35
7.98
12.04
14.26
15.29
15.63
15.64
15.55
15.55
15.86
16.64
17.99
19.84
21.99
24.04
25.57
26.22
25.79
24.35
22.22
19.78
17.41
15.24
13.19
11.00
8.40
5.29
1.83
-1.63
-4.66
-6.97
-8.56
-9.71
-10.90
-12.66
-15.42
-19.41
-24.54
-30.39
-36.23
-41.03
-43.73
-43.49
-39.93
-33.37
-24.63
-14.86
-5.15
3.77
11.58
18.30
24.09
29.11
33.46
37.18
40.31
42.92
45.11
46.97
48.56
49.88
50.85
51.26
50.91
49.64
47.41
44.42
40.96
37.29
33.50
29.50
25.04
19.97
14.37
8.65
3.43
-0.69
-3.38
-4.76
-5.36
-5.95
-7.28
-9.85
-13.82
-19.00
-24.96
-31.09
-36.69
-41.01
-43.36
-43.22
-40.44
-35.32
-28.61
-21.29
-14.33
-8.41
-3.82
-0.44
2.02
3.88
5.33
6.41
7.09
7.38
7.36
7.21
7.08
7.00
6.94
6.76
6.43
6.00
5.62
5.33
5.02
4.35
3.01
0.87
-1.85
-4.73
-7.29
-9.36
-11.05
-12.74
-14.79
-17.40
-20.53
-23.98
-27.43
-30.39
-32.30
-32.50
-30.49
-26.11
-19.68
-11.93
-3.76
4.05
10.96
16.71
21.17
24.24
25.83
26.01
25.05
23.42
21.64
20.15
19.10
18.44
17.96
17.49
16.95
16.40
15.94
15.63
15.36
14.88
13.86
12.09
9.51
6.32
2.90
-0.41
-3.37
-5.96
-8.36
-10.84
-13.67
-17.02
-20.95
-25.30
-29.69
-33.51
-35.92
-36.15
-33.68
-28.52
-21.22
-12.78
-4.28
3.42
9.84
14.91
18.71
21.34
22.86
23.29
22.83
21.82
20.73
19.91
19.49
19.30
19.02
18.36
17.25
15.85
14.45
13.29
12.41
11.60
10.55
8.97
6.73
3.90
0.75
-2.42
-5.34
-7.88
-10.04
-12.00
-14.05
-16.54
-19.75
-23.70
-28.07
-32.16
-35.07
-35.92
-34.23
-29.98
-23.66
-16.08
-8.08
-0.40
6.50
12.34
16.94
20.16
21.90
22.19
21.27
19.58
17.66
15.99
14.83
14.15
13.69
13.13
12.22
10.94
9.42
7.87
6.41
5.05
3.64
1.91
-0.39
-3.48
-7.35
-11.83
-16.60
-21.29
-25.64
-29.59
-33.33
-37.14
-41.29
-45.72
-50.01
-53.27
-54.32
-52.01
-45.53
-34.78
-20.54
-4.47
11.22
24.27
33.01
36.76
35.91
31.66
25.40
18.20
10.59
2.67
-5.46
-13.34
-20.08
-24.60
-26.09
-24.27
-19.49
-12.56
-4.50
3.56
10.52
15.47
18.08
18.90
19.36
21.30
26.12
34.00
43.65
52.79
59.02
60.76
57.54
49.88
38.75
25.15
10.08
-5.26
-19.39
-30.66
-37.66
-39.74
-37.20
-31.10
-22.87
-13.79
-4.85
3.33
10.27
15.46
18.36
18.52
15.88
10.88
4.47
-2.21
-8.13
-12.75
-16.03
-18.35
-20.19
-21.91
-23.58
-25.17
-26.64
-28.12
-29.90
-32.25
-35.17
-38.31
-41.05
-42.75
-43.06
-42.07
-40.24
-38.11
-36.06
-34.13
-32.00
-29.24
-25.47
-20.53
-14.41
-7.20
1.04
10.31
20.68
32.17
44.71
58.01
71.53
84.41
95.53
103.76
108.25
108.67
105.36
99.14
91.10
82.29
73.58
65.55
58.63
53.00
48.56
44.90
41.37
37.32
32.31
26.31
19.58
12.58
5.70
-0.79
-6.64
-11.57
-15.17
-17.03
-16.90
-14.89
-11.45
-7.30
-3.16
0.40
3.03
4.45
4.41
2.64
-0.94
-5.96
-11.55
-16.44
-19.41
-19.85
-17.98
-14.83
-11.73
-9.79
-9.48
-10.63
-12.69
-15.12
-17.66
-20.27
-23.01
-25.76
-28.16
-29.59
-29.34
-26.89
-22.04
-15.16
-7.08
1.02
7.88
12.52
14.46
13.76
10.85
6.38
0.91
-5.08
-11.22
-17.18
-22.63
-27.39
-31.47
-35.18
-38.96
-43.20
-48.04
-53.26
-58.41
-62.98
-66.54
-68.83
-69.72
-69.09
-66.81
-62.70
-56.68
-48.80
-39.27
-28.49
-16.98
-5.28
6.07
16.58
25.78
33.25
38.63
41.71
42.51
41.44
39.26
36.90
35.22
34.67
35.17
36.26
37.31
37.80
37.52
36.51
34.93
32.93
30.57
27.89
25.00
22.12
19.59
17.68
16.54
16.09
16.05
15.94
15.27
13.66
10.95
7.23
2.87
-1.67
-5.87
-9.30
-11.67
-12.77
-12.55
-11.08
-8.58
-5.46
-2.18
0.79
3.11
4.67
5.52
5.85
5.86
5.79
5.85
6.24
7.08
8.36
9.82
11.08
11.69
11.34
10.01
7.97
5.68
3.66
2.24
1.48
1.10
0.66
-0.31
-2.10
-4.69
-7.76
-10.77
-13.24
-14.84
-15.57
-15.68
-15.60
-15.76
-16.48
-17.82
-19.59
-21.35
-22.49
-22.32
-20.32
-16.19
-10.07
-2.50
5.66
13.37
19.74
24.18
26.52
26.97
25.98
24.04
21.57
18.85
16.07
13.37
10.84
8.56
6.52
4.72
3.15
1.84
0.93
0.50
0.59
1.02
1.49
1.64
1.17
-0.03
-1.87
-4.07
-6.33
-8.40
-10.17
-11.66
-12.95
-14.22
-15.58
-17.13
-18.86
-20.62
-22.18
-23.20
-23.36
-22.45
-20.44
-17.49
-13.94
-10.16
-6.57
-3.53
-1.30
-0.03
0.26
-0.24
-1.22
-2.33
-3.26
-3.89
-4.26
-4.51
-4.82
-5.29
-5.94
-6.72
-7.59
-8.53
-9.56
-10.66
-11.80
-12.95
-14.12
-15.41
-16.91
-18.70
-20.73
-22.81
-24.67
-25.97
-26.46
-26.05
-24.82
-23.03
-21.10
-19.50
-18.65
-18.89
-20.38
-23.02
-26.48
-30.22
-33.58
-35.89
-36.63
-35.53
-32.61
-28.17
-22.69
-16.78
-11.02
-5.95
-2.01
0.43
1.12
0.02
-2.63
-6.23
-9.82
-12.33
-12.77
-10.58
-5.82
0.92
8.67
16.40
23.22
28.56
32.14
33.93
34.09
32.91
30.78
28.13
25.33
22.64
20.15
17.79
15.39
12.71
9.56
5.90
1.82
-2.41
-6.54
-10.33
-13.71
-16.61
-18.95
-20.46
-20.73
-19.39
-16.30
-11.73
-6.30
-0.81
4.07
8.03
11.11
13.57
15.69
17.54
18.99
19.73
19.52
18.31
16.35
14.09
12.07
10.71
10.22
10.56
11.50
12.64
13.53
13.75
13.01
11.28
8.89
6.51
4.92
4.77
6.21
8.84
11.80
14.10
15.02
14.31
12.27
9.56
6.86
4.65
2.93
1.27
-1.14
-5.20
-11.52
-20.06
-29.84
-39.00
-45.20
-46.37
-41.47
-30.88
-16.36
-0.42
14.46
26.55
35.14
40.32
42.63
42.61
40.70
37.30
32.97
28.44
24.50
21.76
20.37
20.07
20.24
20.30
19.89
19.04
18.07
17.36
17.11
17.26
17.50
17.41
16.73
15.41
13.59
11.51
9.37
7.23
5.07
2.84
0.59
-1.56
-3.50
-5.25
-6.97
-8.92
-11.33
-14.24
-17.53
-20.98
-24.40
-27.67
-30.58
-32.76
-33.60
-32.42
-28.79
-22.85
-15.30
-7.30
-0.00
5.72
9.50
11.45
11.90
11.21
9.66
7.43
4.75
1.93
-0.59
-2.39
-3.16
-2.87
-1.79
-0.36
0.95
1.83
2.24
2.28
2.14
1.91
1.61
1.21
0.70
0.19
-0.19
-0.33
-0.25
-0.10
-0.14
-0.57
-1.45
-2.66
-3.99
-5.23
-6.34
-7.43
-8.71
-10.42
-12.70
-15.56
-18.80
-22.00
-24.50
-25.53
-24.38
-20.67
-14.54
-6.68
1.84
9.93
16.75
21.92
25.38
27.27
27.73
26.78
24.40
20.69
15.87
10.39
4.72
-0.63
-5.28
-8.93
-11.39
-12.62
-12.76
-12.10
-11.13
-10.44
-10.55
-11.87
-14.52
-18.24
-22.42
-26.07
-28.07
-27.41
-23.54
-16.60
-7.45
2.58
12.15
20.22
26.30
30.37
32.61
33.22
32.28
29.82
26.01
21.16
15.71
10.09
4.58
-0.69
-5.60
-9.88
-13.07
-14.58
-13.93
-11.00
-6.12
-0.04
6.23
11.84
16.20
19.13
20.74
21.31
21.14
20.42
19.32
17.93
16.40
14.90
13.58
12.53
11.75
11.15
10.63
10.07
9.46
8.85
8.31
7.88
7.54
7.17
6.62
5.79
4.67
3.28
1.74
0.08
-1.70
-3.62
-5.68
-7.81
-9.86
-11.62
-12.91
-13.67
-13.99
-14.10
-14.34
-15.09
-16.61
-18.97
-21.92
-24.88
-27.06
-27.69
-26.31
-22.89
-17.91
-12.10
-6.24
-0.90
3.62
7.19
9.80
11.41
12.05
11.82
10.96
9.82
8.74
7.95
7.49
7.27
7.17
7.10
7.07
7.13
7.27
7.34
7.16
6.53
5.41
3.89
2.18
0.47
-1.11
-2.62
-4.16
-5.84
-7.71
-9.74
-11.82
-13.84
-15.73
-17.50
-19.21
-21.01
-23.08
-25.58
-28.50
-31.58
-34.29
-35.82
-35.39
-32.47
-27.01
-19.54
-11.00
-2.40
5.42
12.01
17.34
21.55
24.81
27.21
28.75
29.46
29.46
28.91
27.93
26.58
24.81
22.58
19.93
16.99
13.95
10.98
8.18
5.57
3.13
0.80
-1.48
-3.73
-5.97
-8.20
-10.36
-12.38
-14.16
-15.68
-16.98
-18.17
-19.35
-20.61
-21.91
-23.19
-24.37
-25.43
-26.52
-27.88
-29.76
-32.28
-35.24
-38.07
-39.92
-39.95
-37.53
-32.56
-25.47
-17.05
-8.27
0.04
7.31
13.25
17.76
20.92
22.85
23.78
23.95
23.62
23.02
22.36
21.75
21.29
21.02
20.92
20.96
21.04
21.13
21.19
21.17
20.97
20.40
19.22
17.30
14.67
11.63
8.59
5.94
3.85
2.19
0.63
-1.20
-3.51
-6.32
-9.45
-12.67
-15.84
-18.94
-22.12
-25.64
-29.79
-34.75
-40.52
-46.75
-52.74
-57.54
-60.20
-60.06
-56.96
-51.36
-44.12
-36.28
-28.77
-22.15
-16.71
-12.47
-9.38
-7.37
-6.36
-6.23
-6.76
-7.67
-8.60
-9.17
-8.98
-7.72
-5.23
-1.60
2.82
7.47
11.73
15.09
17.36
18.71
19.54
20.32
21.38
22.79
24.33
25.64
26.40
26.51
26.15
25.70
25.60
26.14
27.27
28.63
29.62
29.60
28.04
24.69
19.68
13.57
7.28
1.93
-1.42
-2.08
0.06
4.51
10.37
16.62
22.43
27.28
30.93
33.36
34.59
34.70
33.79
32.10
29.97
27.83
26.00
24.60
23.56
22.62
21.49
20.04
18.31
16.51
14.85
13.40
12.09
10.71
9.11
7.25
5.24
3.24
1.33
-0.53
-2.49
-4.73
-7.32
-10.20
-13.21
-16.15
-18.87
-21.37
-23.73
-26.15
-28.80
-31.69
-34.60
-36.99
-38.15
-37.32
-34.05
-28.30
-20.56
-11.71
-2.75
5.46
12.39
17.87
22.03
25.12
27.41
29.17
30.61
31.88
32.95
33.69
33.85
33.19
31.60
29.22
26.38
23.49
20.89
18.75
17.07
15.70
14.48
13.25
11.88
10.24
8.29
6.08
3.71
1.42
-0.62
-2.35
-3.81
-5.17
-6.60
-8.20
-10.03
-12.11
-14.40
-16.86
-19.41
-21.95
-24.40
-26.68
-28.69
-30.31
-31.35
-31.52
-30.60
-28.49
-25.32
-21.42
-17.17
-12.86
-8.62
-4.46
-0.42
3.36
6.63
9.11
10.66
11.38
11.53
11.51
11.64
12.07
12.77
13.57
14.24
14.63
14.72
14.55
14.19
13.68
12.94
11.85
10.32
8.36
6.14
3.88
1.76
-0.12
-1.83
-3.53
-5.38
-7.48
-9.73
-11.94
-13.82
-15.09
-15.57
-15.26
-14.34
-13.21
-12.37
-12.34
-13.45
-15.77
-19.04
-22.61
-25.60
-27.07
-26.29
-22.99
-17.44
-10.40
-2.90
4.07
9.83
14.08
16.88
18.44
19.04
18.93
18.34
17.53
16.81
16.44
16.55
17.08
17.77
18.35
18.60
18.48
18.11
17.71
17.45
17.36
17.26
16.91
16.04
14.48
12.29
9.71
7.08
4.72
2.73
0.98
-0.85
-3.07
-5.80
-8.90
-12.02
-14.83
-17.14
-19.04
-20.75
-22.57
-24.71
-27.32
-30.46
-34.10
-38.00
-41.60
-44.03
-44.35
-41.85
-36.40
-28.56
-19.38
-10.04
-1.46
5.88
11.95
16.92
20.98
24.17
26.45
27.75
28.19
27.99
27.52
27.12
26.98
27.09
27.19
27.01
26.33
25.16
23.71
22.32
21.22
20.49
19.95
19.31
18.31
16.80
14.85
12.60
10.27
7.99
5.77
3.58
1.33
-1.03
-3.49
-5.99
-8.46
-10.83
-13.03
-15.07
-16.95
-18.77
-20.64
-22.78
-25.40
-28.69
-32.72
-37.27
-41.78
-45.37
-47.03
-45.93
-41.71
-34.65
-25.67
-16.02
-6.90
0.88
6.98
11.44
14.49
16.34
17.19
17.19
16.57
15.63
14.69
13.99
13.65
13.62
13.76
13.92
13.98
13.90
13.76
13.69
13.77
13.96
14.07
13.85
13.06
11.60
9.64
7.45
5.39
3.65
2.23
0.92
-0.59
-2.55
-5.01
-7.77
-10.53
-12.97
-14.92
-16.43
-17.76
-19.28
-21.28
-23.97
-27.35
-31.25
-35.29
-38.84
-41.11
-41.27
-38.74
-33.42
-25.84
-17.00
-8.06
0.04
6.80
12.12
16.21
19.23
21.30
22.43
22.64
22.11
21.12
20.04
19.18
18.76
18.82
19.26
19.85
20.38
20.64
20.58
20.23
19.72
19.15
18.53
17.79
16.80
15.49
13.90
12.19
10.58
9.25
8.24
7.43
6.61
5.56
4.14
2.42
0.59
-1.11
-2.47
-3.45
-4.15
-4.87
-5.95
-7.73
-10.44
-14.05
-18.24
-22.34
-25.47
-26.74
-25.54
-21.71
-15.67
-8.28
-0.59
6.43
12.11
16.17
18.62
19.69
19.62
18.70
17.16
15.26
13.28
11.46
9.97
8.89
8.18
7.75
7.50
7.37
7.33
7.36
7.42
7.39
7.20
6.74
6.00
4.97
3.65
2.03
0.11
-2.12
-4.67
-7.47
-10.46
-13.56
-16.67
-19.67
-22.45
-24.92
-27.11
-29.14
-31.20
-33.53
-36.32
-39.63
-43.25
-46.69
-49.14
-49.68
-47.55
-42.42
-34.62
-25.08
-15.03
-5.61
2.43
8.83
13.66
17.14
19.38
20.40
20.25
19.16
17.54
15.93
14.77
14.24
14.23
14.45
14.59
14.51
14.25
13.97
13.75
13.56
13.16
12.29
10.78
8.72
6.38
4.08
2.02
0.19
-1.61
-3.61
-5.91
-8.45
-11.03
-13.44
-15.55
-17.37
-18.94
-20.39
-21.87
-23.59
-25.85
-28.87
-32.63
-36.68
-40.13
-41.82
-40.80
-36.65
-29.68
-20.85
-11.42
-2.51
5.17
11.38
16.23
19.90
22.52
24.16
24.85
24.74
24.08
23.20
22.38
21.78
21.47
21.39
21.48
21.65
21.83
21.95
21.94
21.73
21.24
20.46
19.37
17.95
16.23
14.26
12.15
10.03
8.02
6.21
4.57
2.98
1.27
-0.72
-3.08
-5.74
-8.51
-11.14
-13.41
-15.25
-16.78
-18.25
-20.01
-22.33
-25.42
-29.29
-33.70
-38.14
-41.79
-43.70
-42.98
-39.15
-32.36
-23.39
-13.47
-3.87
4.45
11.10
16.20
20.11
23.22
25.69
27.47
28.44
28.56
28.00
27.07
26.13
25.44
25.11
25.06
25.17
25.32
25.43
25.44
25.32
25.02
24.45
23.57
22.34
20.74
18.80
16.59
14.25
11.99
9.98
8.31
6.89
5.55
4.03
2.17
-0.08
-2.60
-5.23
-7.80
-10.23
-12.50
-14.64
-16.71
-18.77
-20.92
-23.30
-26.05
-29.27
-32.86
-36.46
-39.40
-40.84
-40.00
-36.44
-30.22
-22.01
-12.83
-3.78
4.30
10.98
16.18
20.05
22.72
24.28
24.85
24.59
23.82
22.91
22.14
21.64
21.37
21.15
20.79
20.21
19.44
18.57
17.72
16.92
16.10
15.12
13.79
11.97
9.61
6.83
3.87
1.02
-1.49
-3.57
-5.33
-6.96
-8.64
-10.48
-12.46
-14.44
-16.29
-17.95
-19.43
-20.89
-22.54
-24.63
-27.35
-30.65
-34.20
-37.35
-39.28
-39.20
-36.65
-31.67
-24.78
-16.79
-8.59
-0.89
5.84
11.42
15.78
18.93
20.92
21.86
21.96
21.54
20.88
20.22
19.68
19.24
18.78
18.19
17.42
16.51
15.61
14.88
14.43
14.23
14.08
13.70
12.86
11.47
9.63
7.61
5.69
4.05
2.70
1.50
0.25
-1.21
-2.91
-4.81
-6.81
-8.83
-10.84
-12.88
-15.00
-17.28
-19.80
-22.65
-25.89
-29.45
-33.10
-36.32
-38.43
-38.71
-36.63
-32.14
-25.63
-17.91
-9.90
-2.36
4.22
9.64
13.87
16.91
18.77
19.49
19.25
18.41
17.45
16.82
16.75
17.24
18.05
18.90
19.55
19.94
20.17
20.35
20.58
20.81
20.85
20.51
19.60
18.13
16.23
14.18
12.24
10.57
9.13
7.71
6.07
4.00
1.49
-1.35
-4.34
-7.30
-10.12
-12.75
-15.19
-17.48
-19.72
-22.13
-24.97
-28.38
-32.20
-35.91
-38.63
-39.43
-37.65
-33.21
-26.63
-18.79
-10.68
-3.06
3.59
9.07
13.30
16.28
18.03
18.71
18.55
17.90
17.13
16.51
16.19
16.19
16.43
16.74
16.93
16.81
16.29
15.38
14.18
12.82
11.35
9.76
7.93
5.78
3.30
0.58
-2.25
-5.06
-7.79
-10.39
-12.86
-15.14
-17.17
-18.95
-20.56
-22.18
-24.05
-26.36
-29.14
-32.22
-35.19
-37.48
-38.42
-37.43
-34.22
-28.89
-21.94
-14.20
-6.53
0.38
6.20
10.88
14.58
17.48
19.61
20.90
21.33
20.97
20.10
19.10
18.35
18.12
18.43
19.13
19.99
20.74
21.20
21.30
21.03
20.44
19.62
18.60
17.37
15.90
14.14
12.07
9.71
7.13
4.40
1.60
-1.23
-4.04
-6.83
-9.58
-12.31
-15.13
-18.21
-21.72
-25.70
-29.95
-33.92
-36.85
-37.93
-36.58
-32.68
-26.62
-19.14
-11.10
-3.22
4.04
10.48
16.01
20.56
24.00
26.21
27.17
27.08
26.29
25.25
24.36
23.86
23.78
23.98
24.23
24.33
24.15
23.67
22.94
21.99
20.81
19.35
17.57
15.51
13.28
11.04
8.95
7.07
5.33
3.61
1.74
-0.34
-2.62
-4.99
-7.33
-9.53
-11.60
-13.66
-15.89
-18.51
-21.62
-25.11
-28.59
-31.41
-32.80
-32.11
-29.07
-23.88
-17.19
-9.89
-2.85
3.35
8.42
12.39
15.38
17.59
19.14
20.12
20.61
20.74
20.61
20.36
20.10
19.90
19.79
19.78
19.84
19.95
20.07
20.16
20.12
19.80
19.03
17.68
15.74
13.38
10.87
8.55
6.61
5.03
3.64
2.16
0.36
-1.84
-4.35
-6.97
-9.52
-11.90
-14.12
-16.30
-18.57
-21.05
-23.80
-26.71
-29.47
-31.59
-32.47
-31.56
-28.59
-23.71
-17.48
-10.68
-4.06
1.85
6.83
10.88
14.05
16.38
17.89
18.63
18.72
18.42
17.99
17.69
17.62
17.77
17.99
18.10
17.91
17.29
16.16
14.47
12.28
9.64
6.69
3.56
0.36
-2.80
-5.87
-8.84
-11.72
-14.51
-17.23
-19.83
-22.24
-24.42
-26.33
-28.03
-29.65
-31.40
-33.53
-36.19
-39.33
-42.59
-45.32
-46.67
-45.90
-42.60
-36.85
-29.19
-20.46
-11.48
-2.88
4.98
11.95
17.91
22.75
26.31
28.53
29.46
29.35
28.51
27.27
25.88
24.49
23.15
21.89
20.71
19.61
18.59
17.61
16.60
15.51
14.27
12.88
11.36
9.72
7.96
6.05
3.99
1.80
-0.43
-2.59
-4.59
-6.41
-8.15
-9.89
-11.71
-13.65
-15.69
-17.89
-20.37
-23.22
-26.41
-29.63
-32.28
-33.65
-33.10
-30.33
-25.49
-19.09
-11.91
-4.70
1.94
7.66
12.30
15.87
18.44
20.08
20.88
20.97
20.53
19.82
19.12
18.71
18.68
18.96
19.32
19.51
19.40
19.04
18.63
18.33
18.17
17.91
17.26
15.97
14.06
11.75
9.38
7.23
5.33
3.55
1.65
-0.48
-2.85
-5.29
-7.61
-9.71
-11.58
-13.34
-15.13
-17.09
-19.34
-21.92
-24.82
-28.02
-31.35
-34.51
-37.02
-38.22
-37.51
-34.50
-29.24
-22.24
-14.34
-6.40
0.88
7.14
12.21
16.10
18.82
20.39
20.95
20.78
20.26
19.77
19.51
19.48
19.60
19.72
19.78
19.80
19.79
19.70
19.41
18.80
17.81
16.51
15.01
13.50
12.09
10.85
9.74
8.67
7.53
6.23
4.72
3.03
1.25
-0.47
-2.03
-3.38
-4.53
-5.58
-6.61
-7.68
-8.82
-10.03
-11.33
-12.77
-14.39
-16.25
-18.39
-20.77
-23.27
-25.65
-27.50
-28.30
-27.61
-25.17
-21.10
-15.85
-10.13
-4.63
0.11
3.85
6.59
8.48
9.69
10.38
10.60
10.42
9.90
9.16
8.36
7.68
7.23
7.03
6.96
6.89
6.68
6.32
5.89
5.53
5.34
5.27
5.16
4.79
3.97
2.68
1.04
-0.71
-2.35
-3.69
-4.72
-5.56
-6.37
-7.33
-8.53
-9.97
-11.53
-13.06
-14.39
-15.48
-16.41
-17.38
-18.68
-20.57
-23.16
-26.42
-30.07
-33.68
-36.70
-38.53
-38.67
-36.77
-32.83
-27.18
-20.45
-13.35
-6.51
-0.36
4.90
9.23
12.64
15.14
16.76
17.56
17.60
17.05
16.08
14.93
13.88
13.22
13.13
13.66
14.62
15.71
16.57
16.98
16.85
16.25
15.29
14.07
12.66
11.10
9.47
7.84
6.26
4.73
3.22
1.71
0.25
-1.05
-2.10
-2.84
-3.33
-3.73
-4.20
-4.83
-5.67
-6.76
-8.17
-10.04
-12.54
-15.72
-19.47
-23.51
-27.46
-30.84
-33.21
-34.14
-33.29
-30.40
-25.51
-18.89
-11.19
-3.17
4.41
11.12
16.95
22.29
27.71
33.62
40.06
46.63
52.59
57.18
59.84
60.40
59.02
56.05
51.89
46.94
41.62
36.33
31.52
27.49
24.37
22.05
20.24
18.63
16.95
15.05
12.87
10.37
7.50
4.22
0.47
-3.74
-8.32
-13.13
-18.00
-22.80
-27.40
-31.71
-35.66
-39.22
-42.46
-45.53
-48.66
-52.05
-55.72
-59.48
-62.97
-65.86
-67.96
-69.17
-69.43
-68.51
-65.98
-61.35
-54.40
-45.38
-35.04
-24.47
-14.63
-6.16
0.77
6.34
10.81
14.34
17.01
18.85
19.98
20.66
21.21
21.97
23.13
24.71
26.55
28.36
29.86
30.90
31.47
31.69
31.75
31.73
31.56
31.10
30.16
28.70
26.88
24.95
23.25
21.99
21.26
21.00
21.05
21.20
21.24
20.99
20.37
19.46
18.41
17.39
16.51
15.73
14.87
13.73
12.10
9.78
6.65
2.70
-1.89
-6.69
-11.03
-14.15
-15.42
-14.63
-12.04
-8.26
-4.10
-0.21
2.99
5.35
6.88
7.64
7.75
7.34
6.61
5.82
5.18
4.76
4.41
3.79
2.62
0.76
-1.55
-3.74
-5.19
-5.36
-4.19
-2.07
0.21
1.73
1.82
0.20
-2.85
-6.76
-10.86
-14.75
-18.32
-21.66
-24.82
-27.64
-29.74
-30.82
-30.84
-30.11
-29.11
-28.31
-28.09
-28.83
-31.14
-35.75
-43.25
-53.39
-64.69
-74.50
-79.76
-78.06
-68.59
-52.55
-32.65
-12.28
5.66
19.36
28.40
33.37
35.31
35.17
33.40
30.06
25.09
18.67
11.47
4.45
-1.48
-5.90
-8.88
-10.69
-11.27
-9.95
-5.78
1.79
12.07
23.04
32.04
36.93
37.05
33.27
27.22
20.23
12.65
3.97
-6.34
-18.10
-30.12
-40.72
-48.42
-52.51
-53.07
-50.49
-45.17
-37.41
-27.68
-16.91
-6.45
2.33
8.71
12.88
15.94
19.36
24.31
31.24
39.91
49.79
60.49
71.92
84.17
97.08
109.98
121.77
131.33
137.96
141.73
143.35
143.89
144.28
145.08
146.20
147.01
146.34
142.63
134.02
118.80
95.90
65.39
28.76
-11.22
-50.96
-86.94
-116.47
-138.24
-152.42
-160.28
-163.59
-164.03
-162.81
-160.56
-157.55
-153.90
-149.72
-145.25
-140.79
-136.64
-133.10
-130.42
-128.75
-128.02
-127.86
-127.39
-125.47
-121.06
-113.48
-102.78
-89.67
-75.30
-60.87
-47.30
-35.08
-24.30
-14.85
-6.54
0.76
7.03
12.20
16.14
18.78
20.26
21.00
21.62
22.90
25.46
29.62
35.28
42.01
49.29
56.68
63.93
70.97
77.78
84.39
90.79
96.99
102.96
108.51
113.17
116.14
116.44
113.26
106.26
95.67
82.32
67.34
51.89
36.93
23.14
10.86
0.14
-9.20
-17.51
-25.13
-32.29
-38.83
-44.26
-47.74
-48.49
-46.06
-40.63
-33.01
-24.37
-15.88
-8.37
-2.15
2.91
7.09
10.60
13.54
15.89
17.70
19.10
20.33
21.55
22.83
24.04
24.98
25.45
25.36
24.72
23.67
22.37
20.96
19.54
18.18
16.99
16.17
16.00
16.78
18.70
21.74
25.54
29.50
32.91
35.17
35.96
35.35
33.80
32.03
30.77
30.59
31.62
33.54
35.71
37.44
38.24
38.02
37.10
36.03
35.34
35.38
36.18
37.57
39.28
41.04
42.66
43.95
44.67
44.51
43.14
40.35
36.17
30.93
25.17
19.46
14.20
9.47
5.10
0.82
-3.52
-7.83
-11.87
-15.35
-18.18
-20.48
-22.56
-24.75
-27.24
-30.02
-32.94
-35.79
-38.44
-40.80
-42.86
-44.59
-46.01
-47.15
-48.14
-49.12
-50.19
-51.41
-52.71
-54.01
-55.27
-56.52
-57.85
-59.31
-60.80
-62.06
-62.71
-62.37
-60.79
-57.94
-53.98
-49.21
-44.01
-38.71
-33.62
-29.02
-25.14
-22.14
-20.10
-19.00
-18.67
-18.93
-19.57
-20.40
-21.21
-21.71
-21.59
-20.58
-18.54
-15.60
-12.12
-8.55
-5.35
-2.87
-1.29
-0.64
-0.86
-1.78
-3.17
-4.73
-6.16
-7.32
-8.24
-9.18
-10.53
-12.58
-15.41
-18.70
-21.83
-23.95
-24.32
-22.51
-18.52
-12.80
-6.03
1.09
8.06
14.64
20.82
26.64
32.06
36.90
40.87
43.69
45.20
45.52
45.02
44.25
43.84
44.35
46.06
48.94
52.58
56.26
59.11
60.31
59.35
56.16
51.14
44.94
38.28
31.70
25.48
19.72
14.42
9.58
5.22
1.30
-2.29
-5.75
-9.32
-13.14
-17.22
-21.44
-25.61
-29.50
-32.83
-35.32
-36.64
-36.54
-34.85
-31.53
-26.67
-20.53
-13.55
-6.30
0.54
6.35
10.65
13.25
14.24
13.96
12.85
11.36
9.85
8.66
7.97
7.82
8.10
8.58
8.97
9.07
8.83
8.35
7.78
7.23
6.72
6.16
5.42
4.38
3.01
1.36
-0.47
-2.36
-4.28
-6.27
-8.48
-11.04
-13.98
-17.14
-20.22
-22.90
-25.02
-26.68
-28.20
-30.08
-32.78
-36.60
-41.58
-47.46
-53.65
-59.30
-63.49
-65.33
-64.28
-60.26
-53.69
-45.36
-36.21
-27.12
-18.74
-11.46
-5.45
-0.76
2.65
4.94
6.40
7.44
8.49
9.89
11.78
14.07
16.45
18.61
20.32
21.54
22.36
22.97
23.46
23.81
23.92
23.67
23.02
22.09
21.06
20.15
19.50
19.07
18.68
18.11
17.19
15.94
14.50
13.12
11.98
11.14
10.56
10.15
9.88
9.77
9.91
10.30
10.86
11.44
11.90
12.20
12.38
12.54
12.79
13.11
13.44
13.67
13.74
13.63
13.42
13.24
13.20
13.34
13.56
13.66
13.43
12.81
11.91
11.03
10.45
10.33
10.60
11.10
11.65
12.21
12.88
13.75
14.84
15.93
16.66
16.63
15.50
13.15
9.68
5.43
0.89
-3.35
-6.76
-9.00
-9.96
-9.77
-8.80
-7.51
-6.39
-5.90
-6.32
-7.78
-10.14
-13.11
-16.36
-19.65
-22.91
-26.23
-29.66
-33.06
-36.05
-38.06
-38.59
-37.48
-34.98
-31.66
-28.15
-24.87
-21.93
-19.13
-16.18
-12.91
-9.29
-5.44
-1.54
2.26
5.82
8.97
11.56
13.56
15.21
17.06
19.78
23.84
29.16
35.02
40.38
44.28
46.24
46.33
44.87
42.04
37.62
31.17
22.37
11.57
-0.10
-10.99
-19.56
-24.97
-27.33
-27.54
-26.73
-25.71
-24.71
-23.51
-21.83
-19.76
-17.91
-17.23
-18.53
-22.13
-27.75
-34.63
-41.88
-48.68
-54.35
-58.31
-60.02
-59.06
-55.29
-48.96
-40.71
-31.38
-21.81
-12.69
-4.51
2.41
7.86
11.74
14.18
15.51
16.22
16.80
17.62
18.80
20.29
21.84
23.22
24.24
24.82
25.01
24.91
24.62
24.19
23.56
22.57
21.03
18.74
15.65
11.87
7.72
3.63
-0.01
-2.98
-5.30
-7.21
-9.04
-11.04
-13.38
-16.06
-18.98
-22.01
-25.06
-28.13
-31.29
-34.65
-38.27
-42.10
-45.82
-48.90
-50.65
-50.40
-47.70
-42.51
-35.12
-26.13
-16.23
-6.08
3.76
12.82
20.74
27.24
32.13
35.42
37.30
38.14
38.42
38.57
38.91
39.54
40.36
41.16
41.69
41.78
41.37
40.50
39.30
37.91
36.50
35.16
33.88
32.53
30.91
28.80
26.09
22.85
19.34
15.92
12.89
10.43
8.50
6.88
5.27
3.45
1.32
-1.08
-3.62
-6.15
-8.59
-10.93
-13.25
-15.67
-18.28
-21.19
-24.50
-28.20
-32.13
-35.85
-38.65
-39.69
-38.25
-34.01
-27.28
-18.85
-9.82
-1.23
6.19
12.11
16.53
19.63
21.55
22.42
22.33
21.48
20.17
18.81
17.80
17.38
17.56
18.14
18.74
19.01
18.74
17.86
16.50
14.86
13.22
11.86
11.03
11.00
11.89
13.71
16.21
19.06
21.86
24.37
26.48
28.21
29.56
30.38
30.37
29.22
26.73
22.91
18.02
12.48
6.68
0.88
-4.91
-11.00
-17.90
-26.19
-36.26
-47.99
-60.47
-72.00
-80.29
-83.03
-78.64
-66.75
-48.45
-26.13
-2.81
18.50
35.41
46.56
51.58
50.97
45.80
37.43
27.29
16.69
6.70
-1.91
-8.68
-13.52
-16.59
-18.28
-19.08
-19.39
-19.49
-19.42
-19.15
-18.60
-17.89
-17.23
-16.96
-17.36
-18.52
-20.34
-22.52
-24.71
-26.61
-28.05
-29.07
-29.88
-30.83
-32.28
-34.57
-37.86
-42.15
-47.18
-52.43
-57.16
-60.44
-61.39
-59.33
-54.03
-45.83
-35.56
-24.32
-13.25
-3.19
5.37
12.27
17.56
21.37
23.86
25.27
25.97
26.43
27.17
28.63
31.03
34.28
37.99
41.62
44.65
46.66
47.48
47.08
45.52
42.87
39.20
34.62
29.36
23.84
18.58
14.05
10.49
7.78
5.52
3.21
0.50
-2.57
-5.60
-8.01
-9.27
-9.19
-7.98
-6.21
-4.61
-3.85
-4.29
-5.88
-8.14
-10.25
-11.26
-10.41
-7.35
-2.23
4.37
11.63
18.72
25.05
30.24
34.18
36.90
38.54
39.29
39.35
38.94
38.22
37.33
36.38
35.52
34.82
34.38
34.16
34.05
33.87
33.44
32.62
31.37
29.67
27.48
24.78
21.53
17.73
13.48
8.95
4.37
-0.05
-4.14
-7.88
-11.35
-14.70
-18.05
-21.46
-24.86
-28.13
-31.14
-33.90
-36.56
-39.44
-42.92
-47.29
-52.53
-58.23
-63.60
-67.61
-69.33
-68.16
-64.07
-57.57
-49.51
-40.82
-32.23
-24.17
-16.83
-10.27
-4.57
0.16
3.88
6.64
8.75
10.65
12.82
15.56
18.83
22.29
25.45
27.93
29.63
30.76
31.72
32.79
33.98
34.99
35.41
34.93
33.52
31.42
28.99
26.50
24.04
21.55
18.93
16.18
13.36
10.65
8.19
6.07
4.28
2.79
1.55
0.50
-0.42
-1.37
-2.61
-4.44
-7.08
-10.56
-14.59
-18.56
-21.71
-23.23
-22.62
-19.76
-14.98
-8.91
-2.31
4.14
9.95
14.82
18.56
21.04
22.22
22.21
21.28
19.89
18.51
17.53
17.13
17.28
17.75
18.28
18.58
18.42
17.71
16.45
14.84
13.14
11.64
10.44
9.46
8.41
6.89
4.54
1.14
-3.36
-8.83
-14.96
-21.35
-27.47
-32.79
-36.88
-39.58
-41.01
-41.65
-42.09
-42.97
-44.71
-47.43
-50.88
-54.46
-57.34
-58.62
-57.55
-53.75
-47.30
-38.77
-29.05
-19.10
-9.73
-1.43
5.60
11.35
15.86
19.19
21.35
22.47
22.80
22.69
22.50
22.52
22.82
23.36
23.98
24.54
24.94
25.17
25.21
25.06
24.67
23.94
22.73
20.93
18.47
15.44
12.12
8.92
6.27
4.39
3.27
2.57
1.80
0.50
-1.54
-4.27
-7.45
-10.77
-14.04
-17.21
-20.37
-23.72
-27.44
-31.67
-36.35
-41.20
-45.65
-48.89
-50.04
-48.41
-43.73
-36.33
-27.00
-16.85
-6.90
2.09
9.72
15.94
20.84
24.55
27.16
28.75
29.47
29.60
29.43
29.27
29.30
29.49
29.72
29.82
29.71
29.38
28.96
28.54
28.13
27.64
26.90
25.75
24.10
21.97
19.46
16.74
13.94
11.20
8.60
6.19
3.98
1.87
-0.22
-2.42
-4.78
-7.34
-10.07
-12.88
-15.69
-18.38
-20.87
-23.19
-25.49
-28.03
-31.19
-35.19
-39.98
-45.07
-49.60
-52.50
-52.77
-49.86
-43.80
-35.18
-25.02
-14.45
-4.40
4.52
12.09
18.33
23.34
27.14
29.69
30.98
31.15
30.57
29.74
29.16
29.10
29.61
30.49
31.45
32.29
32.87
33.19
33.22
32.95
32.30
31.22
29.68
27.64
25.11
22.11
18.69
14.96
11.09
7.25
3.57
0.10
-3.23
-6.54
-9.94
-13.46
-17.01
-20.45
-23.57
-26.24
-28.43
-30.23
-31.84
-33.54
-35.64
-38.42
-42.03
-46.36
-50.99
-55.16
-57.89
-58.29
-55.82
-50.43
-42.64
-33.34
-23.51
-13.95
-5.22
2.43
8.87
14.01
17.76
20.06
21.02
20.99
20.43
19.87
19.66
19.92
20.52
21.21
21.79
22.12
22.20
22.06
21.73
21.22
20.49
19.56
18.44
17.14
15.67
14.01
12.20
10.29
8.44
6.84
5.66
4.96
4.62
4.37
3.91
3.01
1.60
-0.20
-2.22
-4.38
-6.75
-9.55
-12.95
-16.91
-21.01
-24.42
-26.10
-25.11
-20.91
-13.58
-3.82
7.12
17.86
27.14
34.14
38.52
40.48
40.56
39.58
38.46
38.05
38.95
41.36
45.01
49.16
52.84
55.11
55.23
52.94
48.31
41.78
33.98
25.60
17.31
9.61
2.76
-3.23
-8.59
-13.62
-18.52
-23.30
-27.80
-31.76
-35.01
-37.61
-39.77
-41.83
-44.01
-46.36
-48.71
-50.80
-52.45
-53.64
-54.56
-55.54
-56.93
-58.94
-61.51
-64.23
-66.37
-67.08
-65.56
-61.41
-54.71
-46.02
-36.13
-25.83
-15.62
-5.74
3.73
12.62
20.54
26.94
31.35
33.63
34.13
33.58
32.97
33.21
35.05
38.88
44.71
52.17
60.46
68.44
74.84
78.49
78.62
75.07
68.23
58.88
47.99
36.51
25.21
14.66
5.24
-2.90
-9.78
-15.60
-20.65
-25.29
-29.73
-34.07
-38.22
-41.97
-45.07
-47.40
-48.99
-50.05
-50.94
-52.01
-53.54
-55.59
-58.02
-60.41
-62.18
-62.64
-61.12
-57.09
-50.29
-40.78
-29.01
-15.79
-2.19
10.62
21.59
30.01
35.67
38.82
40.08
40.19
39.83
39.46
39.30
39.40
39.69
39.99
40.10
39.85
39.18
38.27
37.44
37.09
37.44
38.37
39.40
39.82
38.97
36.49
32.49
27.47
22.14
17.17
12.96
9.58
6.74
3.96
0.78
-3.15
-7.92
-13.40
-19.26
-25.12
-30.62
-35.50
-39.59
-42.92
-45.64
-47.99
-50.23
-52.48
-54.63
-56.28
-56.88
-55.82
-52.68
-47.37
-40.23
-31.90
-23.16
-14.76
-7.21
-0.80
4.41
8.44
11.30
13.08
13.90
13.96
13.54
12.96
12.48
12.25
12.25
12.38
12.48
12.40
12.08
11.52
10.78
9.91
8.88
7.62
6.05
4.13
1.87
-0.65
-3.39
-6.33
-9.44
-12.50
-15.02
-16.28
-15.48
-12.13
-6.28
1.35
9.62
17.31
23.48
27.67
29.85
30.18
28.85
25.94
21.55
15.94
9.65
3.45
-1.87
-5.73
-7.97
-8.79
-8.61
-7.80
-6.58
-4.97
-2.95
-0.58
1.84
3.89
5.14
5.37
4.68
3.42
2.07
1.10
0.75
1.01
1.70
2.55
3.29
3.81
4.08
4.17
4.14
4.01
3.74
3.29
2.64
1.85
1.00
0.18
-0.58
-1.36
-2.29
-3.47
-4.98
-6.77
-8.75
-10.79
-12.84
-14.90
-17.08
-19.55
-22.43
-25.79
-29.59
-33.58
-37.35
-40.29
-41.73
-41.05
-37.91
-32.37
-24.93
-16.39
-7.66
0.52
7.66
13.59
18.30
21.85
24.27
25.61
25.95
25.53
24.65
23.65
22.80
22.22
21.86
21.59
21.25
20.76
20.10
19.35
18.60
17.87
17.13
16.25
15.11
13.67
11.97
10.17
8.42
6.75
5.11
3.41
1.60
-0.25
-1.93
-3.20
-3.89
-3.99
-3.68
-3.31
-3.30
-4.03
-5.83
-8.83
-12.96
-17.86
-22.96
-27.50
-30.75
-32.08
-31.18
-28.10
-23.20
-17.09
-10.43
-3.85
2.18
7.35
11.43
14.30
15.90
16.30
15.71
14.46
12.95
11.53
10.46
9.86
9.69
9.86
10.22
10.64
11.03
11.31
11.41
11.26
10.83
10.12
9.17
8.02
6.75
5.41
3.99
2.46
0.75
-1.20
-3.41
-5.83
-8.33
-10.78
-13.02
-15.03
-16.86
-18.69
-20.76
-23.24
-26.22
-29.56
-32.95
-35.84
-37.61
-37.67
-35.59
-31.30
-25.11
-17.61
-9.57
-1.72
5.40
11.47
16.39
20.15
22.76
24.28
24.80
24.63
24.25
24.28
25.24
27.37
30.43
33.80
36.76
38.74
39.58
39.51
38.96
38.22
37.36
36.20
34.48
32.06
29.08
25.84
22.79
20.39
19.04
18.98
20.25
22.52
25.13
27.16
27.63
25.83
21.54
15.02
6.95
-1.89
-10.72
-18.85
-25.68
-30.63
-33.30
-33.56
-31.67
-28.24
-24.04
-19.71
-15.65
-11.92
-8.43
-5.03
-1.64
1.73
4.96
7.91
10.33
11.91
12.34
11.39
9.11
5.82
2.06
-1.55
-4.55
-6.74
-8.15
-9.01
-9.53
-9.94
-10.40
-11.09
-12.22
-14.03
-16.70
-20.26
-24.52
-29.01
-33.05
-35.79
-36.52
-34.82
-30.82
-25.22
-19.14
-13.83
-10.17
-8.51
-8.57
-9.75
-11.42
-13.16
-14.83
-16.46
-17.99
-19.21
-19.75
-19.18
-17.25
-13.97
-9.59
-4.48
1.02
6.68
12.33
17.79
22.69
26.54
28.84
29.30
28.03
25.57
22.66
19.98
17.95
16.63
15.89
15.51
15.35
15.30
15.20
14.71
13.41
10.96
7.34
2.96
-1.37
-4.79
-6.66
-6.88
-5.93
-4.65
-3.96
-4.50
-6.45
-9.53
-13.13
-16.52
-19.08
-20.44
-20.59
-19.84
-18.72
-17.86
-17.73
-18.52
-19.94
-21.35
-21.88
-20.80
-17.79
-13.12
-7.53
-1.97
2.75
6.22
8.52
10.02
11.21
12.47
13.94
15.62
17.38
19.11
20.74
22.24
23.64
25.00
26.37
27.71
28.95
29.88
30.26
29.93
28.84
27.12
25.03
22.81
20.62
18.44
16.15
13.61
10.75
7.64
4.37
1.04
-2.33
-5.75
-9.12
-12.13
-14.24
-14.88
-13.70
-10.78
-6.64
-1.98
2.68
7.17
11.70
16.52
21.60
26.51
30.59
33.24
34.24
33.80
32.38
30.40
28.08
25.37
22.13
18.23
13.71
8.63
3.09
-2.83
-9.01
-15.25
-21.22
-26.52
-30.82
-33.94
-35.99
-37.35
-38.59
-40.33
-43.08
-47.11
-52.32
-58.34
-64.59
-70.50
-75.68
-80.12
-84.22
-88.70
-94.25
-101.12
-108.75
-115.57
-119.33
-117.79
-109.61
-94.90
-75.43
-54.00
-33.63
-16.70
-4.52
2.63
5.19
3.92
-0.22
-6.06
-12.21
-17.15
-19.63
-18.93
-15.16
-9.12
-1.97
5.21
11.75
17.47
22.51
27.06
31.14
34.54
36.93
38.12
38.15
37.33
36.15
35.07
34.31
33.91
33.72
33.51
33.13
32.50
31.57
30.30
28.68
26.70
24.42
21.92
19.34
16.81
14.37
12.00
9.60
7.09
4.41
1.54
-1.49
-4.63
-7.85
-11.13
-14.48
-17.92
-21.52
-25.39
-29.60
-34.15
-38.88
-43.43
-47.34
-50.08
-51.22
-50.50
-47.85
-43.43
-37.51
-30.50
-22.90
-15.25
-8.11
-1.98
2.78
5.99
7.72
8.29
8.19
7.94
7.98
8.48
9.40
10.47
11.34
11.72
11.56
11.15
11.27
13.05
17.75
26.32
39.00
55.10
73.04
90.73
106.10
117.61
124.54
126.89
125.22
120.32
113.01
104.03
94.09
83.83
73.82
64.46
55.89
47.97
40.32
32.56
24.52
16.35
8.51
1.58
-3.98
-8.02
-10.73
-12.50
-13.70
-14.61
-15.31
-15.84
-16.19
-16.36
-16.30
-15.94
-15.15
-13.92
-12.34
-10.64
-9.11
-7.94
-7.18
-6.71
-6.37
-6.03
-5.66
-5.29
-4.95
-4.67
-4.44
-4.28
-4.21
-4.26
-4.44
-4.74
-5.08
-5.35
-5.51
-5.54
-5.51
-5.55
-5.80
-6.35
-7.16
-8.07
-8.76
-8.82
-7.80
-5.45
-1.80
2.68
7.17
10.71
12.52
12.29
10.23
6.96
3.19
-0.54
-4.00
-7.20
-10.20
-12.98
-15.35
-17.04
-17.83
-17.68
-16.74
-15.26
-13.51
-11.64
-9.72
-7.70
-5.62
-3.61
-1.95
-0.96
-0.88
-1.74
-3.31
-5.19
-6.95
-8.31
-9.20
-9.73
-10.12
-10.55
-11.06
-11.61
-12.08
-12.34
-12.40
-12.34
-12.35
-12.62
-13.30
-14.46
-16.06
-17.94
-19.91
-21.82
-23.65
-25.49
-27.52
-29.90
-32.73
-36.01
-39.65
-43.57
-47.62
-51.63
-55.27
-58.00
-59.12
-57.85
-53.60
-46.16
-35.83
-23.43
-10.09
2.96
14.66
24.24
31.33
35.91
38.49
40.17
42.49
47.05
54.83
65.63
77.86
88.99
96.41
98.42
94.67
86.12
74.38
61.09
47.51
34.39
22.29
11.62
2.78
-4.04
-8.98
-12.49
-15.25
-17.89
-20.86
-24.22
-27.73
-30.98
-33.60
-35.52
-36.96
-38.42
-40.45
-43.46
-47.48
-52.17
-56.81
-60.52
-62.41
-61.83
-58.51
-52.64
-44.81
-35.84
-26.55
-17.64
-9.56
-2.63
2.97
7.15
9.88
11.34
11.92
12.13
12.45
13.21
14.48
16.07
17.73
19.22
20.43
21.39
22.10
22.52
22.56
22.16
21.31
20.16
18.88
17.61
16.41
15.21
13.89
12.35
10.52
8.46
6.24
3.96
1.76
-0.29
-2.12
-3.73
-5.21
-6.72
-8.50
-10.74
-13.56
-16.86
-20.30
-23.34
-25.34
-25.75
-24.24
-20.84
-15.92
-10.06
-3.90
2.02
7.39
12.03
15.82
18.64
20.34
20.84
20.27
19.01
17.60
16.58
16.25
16.61
17.39
18.21
18.78
19.05
19.09
19.04
18.97
18.78
18.31
17.38
15.87
13.81
11.35
8.67
5.98
3.41
0.99
-1.31
-3.57
-5.85
-8.15
-10.41
-12.56
-14.56
-16.47
-18.41
-20.55
-23.05
-25.97
-29.22
-32.55
-35.47
-37.37
-37.60
-35.70
-31.53
-25.38
-17.89
-9.84
-1.95
5.27
11.57
16.83
20.98
23.95
25.70
26.33
26.10
25.42
24.71
24.30
24.30
24.67
25.20
25.71
26.03
26.09
25.85
25.33
24.54
23.52
22.32
21.02
19.68
18.36
17.10
15.85
14.57
13.16
11.54
9.64
7.47
5.14
2.79
0.59
-1.38
-3.17
-4.98
-7.14
-9.93
-13.50
-17.70
-22.06
-25.85
-28.29
-28.75
-27.02
-23.29
-18.15
-12.38
-6.67
-1.55
2.75
6.14
8.67
10.39
11.36
11.65
11.42
10.87
10.24
9.71
9.40
9.31
9.38
9.52
9.67
9.80
9.88
9.89
9.76
9.37
8.63
7.50
6.04
4.41
2.77
1.19
-0.37
-2.06
-4.02
-6.28
-8.74
-11.18
-13.38
-15.24
-16.80
-18.22
-19.71
-21.47
-23.57
-26.03
-28.70
-31.21
-33.04
-33.55
-32.20
-28.73
-23.36
-16.67
-9.48
-2.53
3.64
8.81
12.99
16.23
18.58
20.07
20.78
20.85
20.54
20.11
19.73
19.51
19.45
19.49
19.59
19.68
19.73
19.65
19.35
18.69
17.56
15.90
13.79
11.43
9.05
6.89
5.00
3.28
1.50
-0.54
-2.91
-5.48
-8.03
-10.34
-12.34
-14.12
-15.83
-17.54
-19.29
-21.05
-22.86
-24.82
-27.03
-29.41
-31.56
-32.78
-32.34
-29.75
-25.02
-18.72
-11.71
-4.85
1.22
6.25
10.14
12.88
14.33
14.36
12.97
10.46
7.45
4.71
2.93
2.46
3.29
5.09
7.43
9.94
12.40
14.70
16.77
18.55
19.93
20.84
21.25
21.18
20.69
19.86
18.77
17.57
16.49
15.81
15.78
16.48
17.73
19.05
19.79
19.31
17.21
13.42
8.18
1.93
-4.85
-11.75
-18.45
-24.72
-30.31
-34.93
-38.25
-39.96
-39.85
-37.88
-34.22
-29.22
-23.42
-17.34
-11.47
-6.17
-1.66
1.95
4.62
6.34
7.20
7.35
7.07
6.67
6.47
6.64
7.21
8.06
8.97
9.73
10.19
10.29
10.04
9.52
8.82
8.05
7.32
6.68
6.08
5.40
4.51
3.31
1.79
0.07
-1.68
-3.35
-4.87
-6.28
-7.64
-9.01
-10.45
-12.00
-13.75
-15.79
-18.21
-20.95
-23.74
-26.09
-27.36
-27.01
-24.73
-20.62
-15.17
-9.11
-3.17
2.14
6.56
10.07
12.78
14.77
16.07
16.70
16.72
16.29
15.62
14.95
14.44
14.14
13.93
13.68
13.24
12.58
11.81
11.04
10.42
9.95
9.52
8.93
8.02
6.72
5.09
3.24
1.28
-0.76
-2.91
-5.18
-7.50
-9.74
-11.69
-13.22
-14.31
-15.09
-15.74
-16.49
-17.48
-18.84
-20.62
-22.79
-25.13
-27.21
-28.47
-28.29
-26.28
-22.42
-17.06
-10.83
-4.42
1.58
6.81
11.10
14.41
16.76
18.20
18.85
18.86
18.49
17.97
17.48
17.12
16.90
16.73
16.55
16.30
15.99
15.66
15.33
14.95
14.44
13.68
12.59
11.16
9.46
7.63
5.78
3.98
2.21
0.44
-1.35
-3.17
-4.98
-6.73
-8.41
-10.05
-11.67
-13.34
-15.12
-17.05
-19.20
-21.63
-24.31
-27.11
-29.65
-31.38
-31.66
-30.02
-26.31
-20.84
-14.26
-7.39
-0.90
4.76
9.41
13.03
15.66
17.35
18.20
18.40
18.21
17.92
17.74
17.75
17.89
18.06
18.13
18.05
17.77
17.31
16.73
16.11
15.52
14.94
14.26
13.33
11.97
10.20
8.14
6.06
4.21
2.68
1.41
0.18
-1.22
-2.88
-4.77
-6.71
-8.55
-10.21
-11.71
-13.17
-14.76
-16.57
-18.67
-21.07
-23.66
-26.23
-28.40
-29.66
-29.49
-27.52
-23.70
-18.35
-12.13
-5.78
0.05
4.97
8.86
11.76
13.78
15.04
15.63
15.71
15.47
15.12
14.83
14.66
14.58
14.56
14.53
14.48
14.39
14.28
14.12
13.89
13.50
12.87
11.87
10.43
8.53
6.27
3.85
1.49
-0.66
-2.51
-4.13
-5.66
-7.26
-9.02
-10.97
-13.04
-15.16
-17.30
-19.50
-21.87
-24.49
-27.34
-30.11
-32.32
-33.38
-32.82
-30.44
-26.36
-20.96
-14.80
-8.38
-2.18
3.46
8.26
12.03
14.70
16.31
17.03
17.14
16.92
16.60
16.31
16.10
15.98
15.92
15.89
15.80
15.61
15.27
14.80
14.22
13.58
12.88
12.07
11.06
9.80
8.30
6.61
4.79
2.87
0.82
-1.40
-3.74
-6.10
-8.33
-10.34
-12.17
-13.95
-15.85
-18.01
-20.49
-23.28
-26.25
-29.16
-31.59
-32.95
-32.66
-30.33
-25.95
-19.94
-13.05
-6.10
0.29
5.81
10.41
14.13
17.01
19.00
20.06
20.27
19.87
19.22
18.68
18.44
18.52
18.75
18.88
18.74
18.25
17.45
16.46
15.36
14.15
12.80
11.25
9.54
7.78
6.10
4.59
3.21
1.85
0.35
-1.39
-3.37
-5.51
-7.70
-9.80
-11.80
-13.69
-15.51
-17.32
-19.17
-21.17
-23.38
-25.82
-28.38
-30.73
-32.41
-32.84
-31.57
-28.38
-23.43
-17.19
-10.33
-3.54
2.63
7.89
12.13
15.38
17.72
19.24
20.03
20.26
20.15
19.96
19.91
20.10
20.47
20.80
20.84
20.47
19.72
18.78
17.89
17.17
16.55
15.83
14.79
13.34
11.57
9.73
8.02
6.52
5.18
3.82
2.28
0.47
-1.58
-3.80
-6.02
-8.13
-10.06
-11.82
-13.54
-15.36
-17.44
-19.85
-22.54
-25.35
-27.98
-30.09
-31.24
-31.01
-29.09
-25.36
-20.04
-13.64
-6.90
-0.53
4.90
9.14
12.15
14.09
15.18
15.62
15.63
15.38
15.03
14.70
14.42
14.18
13.94
13.66
13.34
12.99
12.65
12.31
11.89
11.29
10.39
9.13
7.50
5.59
3.54
1.53
-0.34
-2.06
-3.76
-5.60
-7.70
-10.05
-12.56
-15.06
-17.49
-19.87
-22.34
-25.05
-28.06
-31.29
-34.57
-37.66
-40.22
-41.87
-42.11
-40.44
-36.51
-30.36
-22.45
-13.59
-4.73
3.39
10.34
16.09
20.79
24.60
27.55
29.55
30.53
30.58
30.05
29.45
29.33
30.09
31.88
34.60
37.95
41.51
44.85
47.48
48.97
48.91
46.99
43.18
37.71
31.08
23.91
16.78
10.11
4.08
-1.27
-5.99
-10.13
-13.75
-16.86
-19.56
-21.98
-24.28
-26.64
-29.19
-31.98
-34.90
-37.71
-40.01
-41.29
-41.09
-39.07
-35.23
-29.82
-23.37
-16.47
-9.69
-3.48
1.90
6.25
9.52
11.71
12.95
13.51
13.76
14.05
14.58
15.37
16.22
16.85
17.04
16.76
16.14
15.43
14.81
14.31
13.82
13.14
12.13
10.74
9.04
7.14
5.19
3.34
1.71
0.43
-0.47
-1.02
-1.38
-1.74
-2.25
-2.99
-3.90
-4.96
-6.16
-7.61
-9.44
-11.74
-14.49
-17.55
-20.72
-23.76
-26.35
-28.16
-28.78
-27.88
-25.29
-21.18
-16.01
-10.43
-5.07
-0.39
3.40
6.32
8.45
9.88
10.74
11.16
11.34
11.50
11.79
12.23
12.73
13.15
13.40
13.44
13.36
13.22
13.05
12.81
12.43
11.84
11.01
9.98
8.83
7.66
6.52
5.40
4.22
2.84
1.14
-0.94
-3.32
-5.83
-8.20
-10.24
-11.81
-13.00
-14.01
-15.09
-16.51
-18.42
-20.83
-23.58
-26.33
-28.58
-29.73
-29.28
-26.93
-22.72
-17.02
-10.48
-3.78
2.49
7.97
12.50
16.05
18.67
20.40
21.28
21.41
20.96
20.16
19.27
18.55
18.13
18.06
18.18
18.29
18.17
17.70
16.90
15.94
14.96
14.02
13.02
11.81
10.28
8.44
6.42
4.43
2.64
1.05
-0.43
-1.96
-3.58
-5.27
-6.90
-8.35
-9.59
-10.69
-11.80
-13.05
-14.56
-16.40
-18.59
-21.08
-23.77
-26.43
-28.75
-30.34
-30.85
-30.00
-27.70
-24.03
-19.25
-13.74
-7.97
-2.44
2.41
6.26
8.99
10.65
11.45
11.65
11.54
11.34
11.18
11.11
11.13
11.21
11.32
11.39
11.37
11.16
10.65
9.79
8.59
7.21
5.85
4.71
3.86
3.18
2.42
1.34
-0.16
-2.03
-4.05
-6.01
-7.79
-9.42
-11.05
-12.82
-14.82
-17.06
-19.52
-22.18
-25.02
-27.91
-30.57
-32.53
-33.21
-32.12
-29.01
-24.06
-17.78
-10.95
-4.33
1.45
6.04
9.36
11.49
12.66
13.19
13.48
13.99
15.11
17.09
19.94
23.36
26.87
29.95
32.17
33.32
33.38
32.45
30.67
28.17
25.10
21.58
17.80
13.98
10.36
7.09
4.23
1.68
-0.70
-3.10
-5.58
-8.08
-10.46
-12.56
-14.32
-15.85
-17.37
-19.17
-21.46
-24.33
-27.65
-31.04
-33.96
-35.80
-35.97
-34.13
-30.28
-24.71
-18.01
-10.89
-3.96
2.31
7.66
11.98
15.24
17.48
18.75
19.18
19.00
18.51
18.01
17.68
17.56
17.59
17.62
17.57
17.42
17.20
16.96
16.68
16.27
15.63
14.69
13.44
11.92
10.23
8.46
6.70
5.05
3.56
2.23
0.97
-0.39
-2.03
-3.97
-6.15
-8.35
-10.33
-11.98
-13.33
-14.58
-16.02
-17.84
-20.16
-22.93
-25.96
-28.93
-31.42
-32.91
-32.90
-31.00
-27.11
-21.49
-14.71
-7.50
-0.56
5.62
10.77
14.82
17.78
19.72
20.72
20.96
20.69
20.21
19.79
19.61
19.70
19.95
20.16
20.14
19.82
19.21
18.44
17.67
16.96
16.27
15.44
14.28
12.70
10.72
8.50
6.27
4.21
2.41
0.84
-0.61
-2.10
-3.70
-5.45
-7.35
-9.34
-11.34
-13.30
-15.17
-16.98
-18.77
-20.68
-22.83
-25.36
-28.29
-31.45
-34.42
-36.56
-37.17
-35.67
-31.85
-26.01
-18.82
-11.17
-3.83
2.71
8.25
12.76
16.23
18.61
19.84
20.00
19.38
18.41
17.55
17.09
17.06
17.30
17.57
17.69
17.59
17.33
17.00
16.68
16.32
15.80
14.97
13.70
12.02
10.07
8.12
6.42
5.06
3.95
2.82
1.41
-0.46
-2.75
-5.28
-7.82
-10.17
-12.30
-14.30
-16.30
-18.46
-20.88
-23.65
-26.74
-30.02
-33.13
-35.53
-36.58
-35.76
-32.88
-28.10
-21.94
-15.04
-7.99
-1.22
4.96
10.31
14.63
17.72
19.56
20.31
20.34
20.09
19.97
20.25
20.98
22.04
23.25
24.38
25.24
25.71
25.74
25.36
24.64
23.71
22.69
21.67
20.66
19.56
18.21
16.49
14.29
11.63
8.56
5.21
1.70
-1.83
-5.30
-8.61
-11.74
-14.69
-17.60
-20.65
-24.06
-28.01
-32.54
-37.51
-42.56
-47.08
-50.37
-51.75
-50.81
-47.56
-42.40
-36.03
-29.21
-22.54
-16.42
-11.04
-6.50
-2.88
-0.27
1.36
2.10
2.21
2.01
1.79
1.75
1.98
2.50
3.29
4.35
5.67
7.16
8.67
9.96
10.83
11.20
11.16
10.97
10.88
11.01
11.31
11.56
11.50
10.95
9.89
8.43
6.71
4.78
2.63
0.18
-2.56
-5.50
-8.46
-11.24
-13.73
-15.98
-18.16
-20.56
-23.41
-26.79
-30.46
-33.81
-36.02
-36.22
-33.76
-28.42
-20.47
-10.64
0.13
10.85
20.73
29.25
36.19
41.62
45.88
49.50
53.03
56.88
61.04
65.02
67.96
68.93
67.32
63.10
56.82
49.45
41.98
35.17
29.41
24.75
21.04
18.10
15.68
13.56
11.52
9.37
7.06
4.63
2.25
0.06
-1.83
-3.46
-4.97
-6.56
-8.42
-10.69
-13.42
-16.58
-20.09
-23.79
-27.53
-31.17
-34.66
-38.09
-41.73
-45.89
-50.78
-56.23
-61.64
-66.00
-68.16
-67.20
-62.62
-54.55
-43.70
-31.19
-18.35
-6.49
3.32
10.40
14.62
16.32
16.20
15.06
13.60
12.22
11.10
10.25
9.59
9.06
8.61
8.15
7.63
6.96
6.15
5.23
4.26
3.26
2.25
1.16
0.00
-1.22
-2.42
-3.53
-4.50
-5.39
-6.27
-7.25
-8.37
-9.58
-10.82
-12.06
-13.33
-14.76
-16.54
-18.87
-21.90
-25.67
-30.02
-34.58
-38.75
-41.73
-42.72
-41.08
-36.54
-29.32
-20.07
-9.75
0.66
10.36
18.82
25.83
31.38
35.53
38.36
40.00
40.65
40.56
40.06
39.42
38.79
38.19
37.58
36.91
36.23
35.64
35.22
34.98
34.78
34.35
33.42
31.77
29.31
26.16
22.54
18.81
15.20
11.85
8.64
5.34
1.69
-2.37
-6.73
-11.06
-14.98
-18.27
-20.89
-23.04
-25.04
-27.20
-29.78
-32.87
-36.34
-39.83
-42.69
-44.17
-43.55
-40.42
-34.83
-27.27
-18.55
-9.48
-0.70
7.46
14.93
21.68
27.63
32.60
36.33
38.68
39.71
39.71
39.17
38.55
38.20
38.20
38.38
38.47
38.26
37.68
36.80
35.80
34.74
33.62
32.30
30.61
28.51
26.01
23.24
20.34
17.46
14.71
12.12
9.74
7.49
5.30
3.04
0.65
-1.82
-4.28
-6.63
-8.85
-11.00
-13.19
-15.43
-17.62
-19.58
-21.11
-22.06
-22.30
-21.60
-19.67
-16.18
-11.01
-4.44
2.84
9.92
15.92
20.33
23.07
24.39
24.65
24.15
23.03
21.33
19.05
16.29
13.16
9.82
6.46
3.26
0.43
-1.88
-3.56
-4.66
-5.35
-5.86
-6.37
-6.97
-7.55
-7.94
-7.96
-7.54
-6.85
-6.24
-6.07
-6.53
-7.59
-8.96
-10.23
-11.11
-11.52
-11.56
-11.49
-11.53
-11.88
-12.70
-14.13
-16.25
-18.84
-21.32
-22.85
-22.74
-20.95
-18.32
-16.39
-16.64
-19.75
-25.15
-31.20
-35.94
-37.92
-36.72
-32.89
-27.51
-21.55
-15.58
-9.78
-4.19
1.08
5.78
9.67
12.68
15.02
17.10
19.33
21.90
24.78
27.71
30.34
32.53
34.40
36.44
39.26
43.28
48.38
53.71
57.83
59.14
56.46
49.47
38.94
26.44
13.79
2.50
-6.61
-13.46
-18.49
-22.31
-25.42
-28.09
-30.37
-32.28
-33.80
-35.05
-36.12
-37.17
-38.34
-39.82
-41.78
-44.31
-47.21
-50.00
-51.87
-52.02
-49.91
-45.58
-39.58
-32.77
-25.95
-19.55
-13.63
-8.09
-2.89
1.76
5.53
8.16
9.73
10.66
11.63
13.19
15.62
18.82
22.45
26.14
29.70
33.13
36.56
40.07
43.62
47.05
50.17
52.89
55.11
56.62
56.91
55.18
50.61
42.75
31.91
19.18
6.17
-5.57
-15.06
-22.02
-26.81
-30.04
-32.22
-33.68
-34.65
-35.44
-36.47
-38.21
-40.97
-44.67
-48.79
-52.41
-54.50
-54.17
-51.04
-45.31
-37.70
-29.19
-20.68
-12.80
-5.78
0.36
5.67
10.12
13.60
16.03
17.47
18.17
18.47
18.67
18.95
19.32
19.66
19.87
19.91
19.78
19.55
19.27
18.97
18.59
18.09
17.40
16.47
15.29
13.89
12.32
10.64
8.89
7.03
5.02
2.77
0.30
-2.29
-4.85
-7.23
-9.37
-11.30
-13.18
-15.12
-17.22
-19.51
-22.00
-24.69
-27.56
-30.48
-33.11
-34.93
-35.37
-34.01
-30.72
-25.73
-19.57
-12.83
-6.11
0.18
5.73
10.31
13.77
16.02
17.12
17.31
16.94
16.41
15.99
15.82
15.83
15.88
15.83
15.62
15.24
14.72
14.11
13.41
12.62
11.74
10.81
9.85
8.82
7.61
6.14
4.33
2.22
-0.07
-2.37
-4.57
-6.61
-8.53
-10.39
-12.27
-14.23
-16.28
-18.49
-20.88
-23.53
-26.44
-29.42
-32.06
-33.78
-34.03
-32.41
-28.92
-23.88
-17.89
-11.56
-5.35
0.45
5.69
10.23
13.89
16.51
18.04
18.58
18.47
18.09
17.80
17.76
17.95
18.21
18.35
18.25
17.90
17.34
16.64
15.80
14.76
13.47
11.91
10.15
8.31
6.51
4.85
3.30
1.81
0.26
-1.45
-3.33
-5.38
-7.56
-9.81
-12.06
-14.22
-16.24
-18.07
-19.71
-21.28
-22.95
-24.94
-27.30
-29.86
-32.15
-33.49
-33.22
-30.89
-26.51
-20.47
-13.48
-6.32
0.35
6.16
10.98
14.87
17.93
20.23
21.74
22.48
22.50
21.98
21.19
20.40
19.80
19.42
19.18
19.01
18.88
18.76
18.64
18.41
17.89
16.92
15.46
13.64
11.73
9.96
8.44
7.06
5.59
3.81
1.67
-0.69
-3.06
-5.25
-7.22
-9.09
-11.03
-13.17
-15.53
-18.11
-20.89
-23.93
-27.22
-30.60
-33.61
-35.60
-35.92
-34.23
-30.66
-25.76
-20.33
-15.03
-10.22
-5.98
-2.20
1.12
3.80
5.55
6.23
5.93
5.09
4.36
4.35
5.41
7.52
10.35
13.38
16.21
18.62
20.63
22.41
24.12
25.81
27.31
28.37
28.76
28.36
27.26
25.66
23.86
22.13
20.76
20.01
20.08
20.88
21.98
22.57
21.65
18.39
12.42
4.06
-5.90
-16.44
-26.61
-35.67
-43.08
-48.42
-51.31
-51.52
-49.03
-44.18
-37.61
-30.12
-22.50
-15.35
-8.99
-3.52
1.15
5.10
8.38
10.98
12.81
13.85
14.19
14.07
13.84
13.82
14.21
15.00
15.99
16.91
17.50
17.63
17.33
16.70
15.93
15.16
14.47
13.86
13.25
12.47
11.36
9.75
7.59
4.97
2.10
-0.78
-3.46
-5.79
-7.79
-9.57
-11.37
-13.49
-16.17
-19.50
-23.24
-26.82
-29.47
-30.50
-29.52
-26.62
-22.29
-17.20
-11.97
-7.06
-2.69
1.04
4.09
6.45
8.10
9.04
9.36
9.14
8.54
7.72
6.89
6.21
5.85
5.82
6.07
6.49
6.91
7.16
7.08
6.55
5.53
4.09
2.41
0.75
-0.66
-1.78
-2.75
-3.83
-5.24
-7.07
-9.20
-11.45
-13.61
-15.63
-17.55
-19.51
-21.65
-24.08
-26.83
-29.85
-32.93
-35.62
-37.32
-37.41
-35.49
-31.54
-25.91
-19.22
-12.09
-5.07
1.54
7.47
12.53
16.49
19.13
20.39
20.41
19.58
18.41
17.41
16.91
17.04
17.69
18.61
19.52
20.20
20.55
20.56
20.29
19.76
19.00
17.98
16.69
15.13
13.34
11.38
9.29
7.07
4.72
2.22
-0.37
-2.96
-5.42
-7.67
-9.69
-11.53
-13.34
-15.28
-17.54
-20.29
-23.56
-27.18
-30.69
-33.42
-34.64
-33.79
-30.70
-25.56
-18.96
-11.60
-4.21
2.65
8.58
13.39
17.02
19.58
21.25
22.24
22.73
22.88
22.75
22.40
21.90
21.34
20.81
20.40
20.11
19.88
19.57
19.01
18.11
16.85
15.35
13.77
12.28
10.89
9.52
7.97
6.07
3.81
1.37
-1.02
-3.19
-5.11
-6.91
-8.76
-10.83
-13.14
-15.64
-18.31
-21.15
-24.18
-27.25
-30.07
-32.08
-32.73
-31.60
-28.58
-23.90
-18.03
-11.50
-4.81
1.67
7.61
12.75
16.81
19.62
21.14
21.57
21.24
20.57
19.91
19.46
19.23
19.12
18.98
18.70
18.21
17.52
16.63
15.54
14.23
12.67
10.88
8.90
6.85
4.84
2.94
1.12
-0.70
-2.66
-4.84
-7.21
-9.65
-11.95
-13.96
-15.69
-17.27
-18.96
-21.02
-23.61
-26.69
-30.01
-33.08
-35.30
-36.09
-35.03
-32.02
-27.29
-21.32
-14.70
-7.99
-1.62
4.09
8.90
12.65
15.27
16.82
17.52
17.68
17.62
17.59
17.75
18.18
18.89
19.81
20.73
21.35
21.30
20.31
18.38
15.78
12.94
10.26
7.96
6.09
4.54
3.23
2.12
1.17
0.14
-1.40
-4.01
-8.08
-13.62
-20.10
-26.54
-31.86
-35.22
-36.31
-35.40
-33.20
-30.66
-28.64
-27.75
-28.20
-29.70
-31.54
-32.71
-32.17
-29.20
-23.67
-16.18
-7.87
-0.11
5.96
9.80
11.52
11.82
11.55
11.45
11.89
12.79
13.82
14.59
14.82
14.40
13.39
11.86
9.88
7.59
5.31
3.68
3.68
6.32
12.28
21.46
32.76
44.28
53.81
59.55
60.63
57.27
50.56
41.92
32.58
23.32
14.47
6.06
-1.84
-9.08
-15.41
-20.65
-24.77
-27.96
-30.61
-33.15
-35.99
-39.41
-43.52
-48.19
-53.04
-57.40
-60.44
-61.30
-59.30
-54.19
-46.22
-36.12
-24.91
-13.62
-3.07
6.23
14.13
20.62
25.78
29.72
32.53
34.33
35.30
35.61
35.41
34.83
33.96
32.93
31.87
30.90
30.08
29.40
28.73
27.94
26.88
25.45
23.54
21.09
18.07
14.51
10.49
6.11
1.46
-3.40
-8.39
-13.32
-17.93
-21.95
-25.17
-27.65
-29.65
-31.61
-33.95
-36.92
-40.41
-44.02
-47.01
-48.52
-47.73
-44.06
-37.42
-28.18
-17.13
-5.27
6.47
17.39
27.05
35.24
41.86
46.87
50.33
52.40
53.37
53.59
53.30
52.58
51.39
49.63
47.30
44.58
41.77
39.09
36.58
33.98
30.82
26.61
21.11
14.46
7.19
0.02
-6.36
-11.60
-15.74
-19.18
-22.40
-25.80
-29.51
-33.39
-37.17
-40.57
-43.33
-45.18
-45.84
-45.16
-43.37
-41.15
-39.45
-39.00
-39.81
-40.89
-40.47
-36.71
-28.53
-16.15
-1.12
14.26
27.74
37.78
43.85
46.30
45.94
43.71
40.42
36.72
33.11
29.95
27.55
26.01
25.25
24.96
24.77
24.31
23.38
22.03
20.51
19.17
18.32
18.10
18.39
18.89
19.18
18.89
17.84
16.05
13.75
11.22
8.64
6.02
3.25
0.14
-3.32
-6.97
-10.49
-13.48
-15.72
-17.24
-18.29
-19.32
-20.71
-22.72
-25.33
-28.23
-30.92
-32.70
-32.94
-31.19
-27.38
-21.90
-15.45
-8.85
-2.73
2.64
7.29
11.45
15.31
18.91
22.18
24.96
27.17
28.79
29.91
30.63
31.09
31.40
31.68
32.02
32.46
33.01
33.63
34.27
34.82
35.18
35.23
34.82
33.83
32.14
29.73
26.71
23.43
20.40
18.26
17.45
18.06
19.63
21.28
21.96
20.88
17.72
12.79
6.75
0.32
-5.99
-12.13
-18.33
-24.99
-32.42
-40.57
-49.01
-56.95
-63.47
-67.74
-69.30
-68.13
-64.65
-59.52
-53.37
-46.71
-39.86
-33.08
-26.64
-20.91
-16.26
-12.89
-10.74
-9.45
-8.53
-7.51
-6.02
-3.77
-0.41
4.47
11.23
19.97
30.17
40.70
50.04
56.70
59.72
58.88
54.72
48.14
40.15
31.60
23.18
15.44
8.78
3.49
-0.45
-3.35
-5.73
-8.12
-10.87
-13.98
-17.21
-20.24
-22.84
-24.96
-26.81
-28.60
-30.52
-32.57
-34.56
-36.16
-36.91
-36.39
-34.31
-30.60
-25.54
-19.66
-13.65
-8.18
-3.63
-0.15
2.40
4.28
5.74
6.99
8.10
9.08
9.83
10.16
9.85
8.77
7.00
4.94
3.10
1.96
1.56
1.45
0.84
-1.04
-4.47
-9.10
-14.00
-18.07
-20.46
-20.89
-19.68
-17.51
-15.16
-13.26
-12.25
-12.35
-13.62
-15.97
-19.17
-22.89
-26.72
-30.35
-33.66
-36.83
-40.14
-43.80
-47.69
-51.27
-53.63
-53.78
-51.04
-45.24
-36.82
-26.73
-16.14
-6.25
2.04
8.13
11.92
13.67
13.96
13.51
12.97
12.82
13.30
14.38
15.75
16.92
17.27
16.37
14.11
10.88
7.42
4.50
2.56
1.47
0.56
-1.06
-4.01
-8.38
-13.71
-19.18
-23.95
-27.42
-29.33
-29.75
-28.94
-27.27
-25.13
-22.76
-20.24
-17.39
-13.77
-8.75
-1.68
7.97
20.41
35.44
52.43
70.44
88.45
105.55
121.20
135.15
147.40
157.90
166.33
171.94
173.68
170.29
160.55
143.43
118.42
85.99
47.98
7.65
-30.74
-63.10
-86.60
-100.51
-106.20
-106.25
-103.35
-99.30
-94.87
-90.15
-85.12
-80.13
-75.70
-72.26
-69.83
-68.06
-66.46
-64.76
-62.96
-61.34
-60.18
-59.56
-59.27
-58.92
-58.09
-56.54
-54.24
-51.42
-48.39
-45.40
-42.36
-38.79
-33.80
-26.37
-15.72
-1.76
14.77
32.37
49.15
63.38
73.78
79.80
81.54
79.49
74.40
67.06
58.26
48.69
38.96
29.50
20.62
12.58
5.64
0.08
-3.81
-5.93
-6.42
-5.71
-4.46
-3.35
-2.91
-3.41
-4.88
-7.19
-10.17
-13.57
-17.16
-20.65
-23.76
-26.20
-27.77
-28.38
-28.07
-27.01
-25.42
-23.38
-20.77
-17.19
-12.20
-5.51
2.79
12.20
21.97
31.38
39.89
47.18
53.09
57.46
60.12
60.92
59.88
57.21
53.28
48.57
43.52
38.50
33.75
29.32
25.13
20.94
16.52
11.77
6.75
1.70
-3.10
-7.38
-10.94
-13.69
-15.63
-16.90
-17.75
-18.55
-19.59
-21.05
-22.94
-25.09
-27.27
-29.27
-30.96
-32.26
-33.17
-33.75
-34.15
-34.62
-35.38
-36.52
-37.87
-38.99
-39.25
-38.03
-34.87
-29.56
-22.19
-13.07
-2.69
8.34
19.30
29.47
38.12
44.67
48.79
50.45
50.00
48.09
45.46
42.80
40.50
38.63
37.00
35.36
33.55
31.60
29.64
27.78
26.03
24.32
22.55
20.71
18.89
17.21
15.76
14.52
13.42
12.30
11.09
9.72
8.20
6.56
4.82
2.98
1.08
-0.86
-2.74
-4.50
-6.04
-7.28
-8.21
-8.82
-9.15
-9.25
-9.15
-8.86
-8.31
-7.46
-6.34
-5.02
-3.66
-2.43
-1.49
-0.90
-0.68
-0.79
-1.11
-1.59
-2.16
-2.76
-3.36
-3.96
-4.53
-5.05
-5.49
-5.83
-6.03
-6.10
-6.05
-5.90
-5.65
-5.31
-4.91
-4.56
-4.38
-4.51
-5.01
-5.85
-6.91
-8.00
-8.97
-9.74
-10.32
-10.78
-11.24
-11.78
-12.45
-13.19
-13.81
-14.09
-13.80
-12.85
-11.37
-9.67
-8.18
-7.25
-7.08
-7.65
-8.76
-10.13
-11.47
-12.53
-13.20
-13.45
-13.40
-13.24
-13.19
-13.33
-13.57
-13.57
-12.95
-11.48
-9.22
-6.55
-4.08
-2.40
-1.80
-2.27
-3.55
-5.31
-7.39
-9.76
-12.52
-15.68
-19.10
-22.49
-25.54
-27.92
-29.41
-29.75
-28.72
-26.16
-22.09
-16.82
-10.91
-5.05
0.18
4.45
7.68
9.96
11.45
12.22
12.38
12.05
11.40
10.64
9.89
9.07
7.97
6.31
3.94
0.93
-2.42
-5.70
-8.55
-10.73
-12.23
-13.21
-13.93
-14.64
-15.65
-17.17
-19.40
-22.34
-25.75
-29.06
-31.43
-31.88
-29.63
-24.30
-16.14
-5.99
4.89
15.16
23.74
29.98
33.73
35.24
34.94
33.32
30.85
27.90
24.80
21.77
18.91
16.26
13.78
11.44
9.21
7.09
5.06
3.05
0.99
-1.19
-3.50
-5.92
-8.42
-10.95
-13.48
-15.99
-18.47
-20.92
-23.40
-26.03
-28.98
-32.31
-35.86
-39.18
-41.58
-42.30
-40.76
-36.80
-30.71
-23.12
-14.82
-6.58
0.94
7.28
12.11
15.31
17.00
17.61
17.66
17.64
17.66
17.37
16.05
12.94
7.59
0.11
-8.86
-18.25
-26.93
-33.80
-38.00
-38.98
-36.64
-31.45
-24.47
-17.19
-11.20
-7.76
-7.46
-10.13
-15.05
-21.23
-27.72
-33.78
-38.87
-42.53
-44.36
-43.98
-41.14
-35.80
-28.26
-19.02
-8.72
2.10
13.09
24.02
34.68
44.73
53.61
60.74
65.71
68.62
70.11
71.04
72.09
73.27
73.82
72.49
68.17
60.46
49.98
38.16
26.67
16.83
9.29
4.07
0.86
-0.70
-0.88
0.04
1.66
3.49
5.05
6.10
6.73
7.32
8.32
10.03
12.48
15.43
18.48
21.22
23.40
24.99
26.22
27.49
29.21
31.63
34.73
38.17
41.43
43.91
45.20
45.12
43.79
41.50
38.62
35.51
32.43
29.51
26.79
24.18
21.61
18.95
16.11
13.01
9.64
6.07
2.46
-0.97
-3.99
-6.40
-8.17
-9.43
-10.40
-11.41
-12.68
-14.34
-16.33
-18.46
-20.49
-22.25
-23.67
-24.78
-25.72
-26.66
-27.75
-29.13
-30.80
-32.59
-34.15
-34.96
-34.51
-32.44
-28.71
-23.66
-17.87
-12.02
-6.68
-2.27
1.03
3.18
4.31
4.60
4.35
3.85
3.37
3.04
2.83
2.67
2.44
2.07
1.57
0.95
0.25
-0.51
-1.30
-2.07
-2.77
-3.41
-4.08
-4.91
-6.03
-7.47
-9.14
-10.88
-12.60
-14.29
-16.05
-18.03
-20.37
-23.04
-25.94
-28.77
-31.13
-32.48
-32.29
-30.14
-25.93
-19.96
-12.93
-5.73
0.83
6.20
10.24
13.04
14.83
15.79
15.99
15.52
14.53
13.31
12.18
11.40
11.05
11.00
11.00
10.84
10.39
9.73
9.00
8.33
7.71
6.97
5.88
4.22
1.93
-0.84
-3.80
-6.65
-9.22
-11.54
-13.80
-16.28
-19.17
-22.56
-26.44
-30.71
-35.12
-39.24
-42.41
-43.82
-42.80
-39.04
-32.78
-24.78
-16.03
-7.49
0.19
6.70
11.99
16.07
18.99
20.80
21.67
21.88
21.84
21.87
22.17
22.72
23.34
23.75
23.77
23.28
22.33
21.06
19.66
18.28
16.95
15.55
13.89
11.76
9.13
6.12
3.02
0.12
-2.46
-4.79
-7.17
-9.83
-12.93
-16.45
-20.32
-24.48
-28.83
-33.16
-36.96
-39.47
-39.82
-37.37
-31.97
-24.11
-14.78
-5.11
3.91
11.66
17.90
22.62
25.86
27.64
27.97
26.96
24.91
22.32
19.72
17.58
16.09
15.14
14.43
13.64
12.55
11.16
9.65
8.28
7.23
6.57
6.17
5.72
4.89
3.44
1.27
-1.44
-4.42
-7.33
-9.94
-12.23
-14.38
-16.69
-19.48
-22.98
-27.12
-31.56
-35.59
-38.34
-38.92
-36.74
-31.75
-24.39
-15.53
-6.18
2.78
10.76
17.42
22.66
26.41
28.65
29.43
28.95
27.59
25.87
24.30
23.27
22.86
22.92
23.11
23.09
22.66
21.81
20.74
19.64
18.65
17.71
16.65
15.20
13.20
10.60
7.50
4.10
0.59
-2.86
-6.13
-9.13
-11.88
-14.47
-17.10
-20.07
-23.67
-28.02
-32.96
-37.97
-42.17
-44.55
-44.25
-40.83
-34.44
-25.76
-15.85
-5.80
3.55
11.68
18.41
23.68
27.54
30.01
31.19
31.31
30.69
29.73
28.75
27.90
27.22
26.62
26.04
25.47
24.93
24.39
23.74
22.83
21.53
19.80
17.71
15.42
13.05
10.67
8.25
5.73
3.07
0.27
-2.61
-5.50
-8.36
-11.16
-13.92
-16.70
-19.58
-22.72
-26.28
-30.37
-34.94
-39.61
-43.69
-46.23
-46.35
-43.49
-37.67
-29.48
-19.92
-10.12
-1.02
6.71
12.74
16.96
19.42
20.31
19.95
18.80
17.37
16.10
15.30
15.06
15.25
15.63
15.91
15.90
15.52
14.82
13.92
12.95
11.95
10.89
9.65
8.12
6.18
3.78
0.98
-2.09
-5.26
-8.34
-11.24
-13.98
-16.70
-19.59
-22.86
-26.68
-31.12
-36.09
-41.30
-46.13
-49.68
-50.99
-49.24
-44.17
-36.14
-26.12
-15.32
-4.87
4.48
12.39
18.80
23.72
27.17
29.13
29.74
29.30
28.32
27.32
26.68
26.56
26.85
27.28
27.60
27.60
27.20
26.39
25.22
23.69
21.84
19.71
17.37
14.91
12.43
9.94
7.36
4.56
1.46
-1.92
-5.42
-8.83
-11.96
-14.79
-17.44
-20.18
-23.28
-26.97
-31.31
-36.18
-41.15
-45.50
-48.29
-48.58
-45.73
-39.64
-30.90
-20.55
-9.77
0.44
9.48
17.06
23.12
27.60
30.45
31.72
31.65
30.72
29.51
28.52
27.99
27.86
27.89
27.82
27.52
27.02
26.46
25.92
25.37
24.68
23.65
22.16
20.20
17.89
15.39
12.88
10.48
8.22
6.05
3.86
1.51
-1.09
-3.99
-7.13
-10.38
-13.58
-16.59
-19.37
-21.99
-24.63
-27.54
-30.96
-35.02
-39.59
-44.20
-48.04
-50.10
-49.50
-45.82
-39.23
-30.52
-20.78
-11.07
-2.12
5.70
12.30
17.66
21.73
24.46
25.88
26.20
25.84
25.24
24.79
24.67
24.86
25.21
25.51
25.63
25.47
25.05
24.39
23.54
22.53
21.37
20.05
18.54
16.85
14.97
12.95
10.83
8.64
6.38
4.00
1.45
-1.29
-4.20
-7.16
-10.00
-12.60
-14.90
-16.98
-19.01
-21.18
-23.72
-26.74
-30.30
-34.25
-38.17
-41.38
-43.02
-42.26
-38.63
-32.22
-23.69
-14.10
-4.57
4.04
11.27
16.99
21.26
24.17
25.81
26.29
25.85
24.86
23.73
22.81
22.28
22.12
22.20
22.31
22.30
22.11
21.78
21.36
20.86
20.21
19.27
17.90
16.02
13.72
11.17
8.62
6.28
4.22
2.39
0.62
-1.25
-3.35
-5.71
-8.29
-10.95
-13.51
-15.83
-17.84
-19.60
-21.27
-23.11
-25.36
-28.19
-31.53
-35.05
-38.11
-39.91
-39.61
-36.72
-31.25
-23.79
-15.29
-6.78
0.93
7.40
12.51
16.28
18.74
19.94
19.98
19.17
17.94
16.76
15.94
15.54
15.41
15.34
15.19
14.95
14.70
14.49
14.26
13.86
13.16
12.08
10.65
8.98
7.20
5.38
3.51
1.55
-0.59
-2.93
-5.44
-8.02
-10.54
-12.90
-15.07
-17.12
-19.21
-21.52
-24.25
-27.53
-31.32
-35.33
-38.93
-41.27
-41.47
-38.94
-33.67
-26.25
-17.69
-9.10
-1.28
5.37
10.80
15.08
18.27
20.35
21.32
21.28
20.53
19.49
18.52
17.89
17.63
17.65
17.77
17.81
17.66
17.28
16.67
15.85
14.83
13.62
12.19
10.57
8.76
6.77
4.56
2.11
-0.61
-3.55
-6.61
-9.65
-12.56
-15.27
-17.79
-20.23
-22.77
-25.59
-28.87
-32.61
-36.59
-40.27
-42.90
-43.69
-42.06
-37.85
-31.33
-23.17
-14.21
-5.28
2.94
9.97
15.58
19.73
22.53
24.20
24.99
25.15
24.92
24.48
24.02
23.65
23.40
23.23
23.03
22.71
22.20
21.50
20.62
19.54
18.27
16.78
15.14
13.43
11.70
9.90
7.88
5.47
2.58
-0.71
-4.20
-7.62
-10.78
-13.63
-16.28
-18.91
-21.74
-24.95
-28.65
-32.79
-37.09
-41.03
-43.83
-44.71
-43.06
-38.72
-31.98
-23.56
-14.33
-5.14
3.37
10.77
16.80
21.31
24.26
25.77
26.16
25.84
25.30
24.88
24.72
24.80
24.95
25.03
24.92
24.65
24.25
23.75
23.11
22.27
21.11
19.61
17.77
15.68
13.47
11.25
9.07
6.92
4.69
2.26
-0.45
-3.42
-6.53
-9.62
-12.54
-15.25
-17.81
-20.41
-23.31
-26.72
-30.71
-35.08
-39.33
-42.69
-44.34
-43.61
-40.21
-34.30
-26.49
-17.63
-8.61
-0.20
7.07
12.92
17.25
20.18
21.90
22.68
22.77
22.39
21.71
20.90
20.12
19.54
19.28
19.33
19.56
19.76
19.69
19.22
18.32
17.08
15.60
13.93
12.05
9.86
7.35
4.52
1.53
-1.45
-4.25
-6.83
-9.25
-11.65
-14.15
-16.80
-19.61
-22.61
-25.85
-29.42
-33.30
-37.21
-40.55
-42.46
-42.16
-39.21
-33.67
-26.20
-17.70
-9.07
-0.97
6.26
12.46
17.54
21.41
23.94
25.15
25.22
24.54
23.55
22.66
22.10
21.94
22.07
22.30
22.48
22.46
22.21
21.71
20.95
19.88
18.42
16.51
14.16
11.51
8.78
6.17
3.75
1.42
-1.05
-3.86
-7.10
-10.59
-14.07
-17.24
-19.99
-22.43
-24.83
-27.55
-30.88
-34.88
-39.31
-43.65
-47.09
-48.76
-47.94
-44.31
-38.05
-29.81
-20.49
-10.96
-1.92
6.21
13.24
19.04
23.50
26.57
28.30
28.94
28.90
28.63
28.47
28.54
28.74
28.88
28.78
28.41
27.84
27.25
26.70
26.21
25.68
24.96
23.88
22.35
20.31
17.81
14.98
12.03
9.22
6.69
4.48
2.42
0.25
-2.24
-5.14
-8.34
-11.63
-14.77
-17.63
-20.22
-22.65
-25.15
-27.99
-31.43
-35.61
-40.38
-45.22
-49.25
-51.41
-50.84
-47.14
-40.58
-31.99
-22.42
-12.87
-3.97
3.97
10.85
16.64
21.26
24.61
26.67
27.62
27.78
27.59
27.44
27.58
28.01
28.61
29.16
29.50
29.58
29.43
29.12
28.64
27.95
26.92
25.47
23.60
21.40
19.00
16.56
14.14
11.77
9.39
6.97
4.47
1.91
-0.68
-3.28
-5.88
-8.48
-11.07
-13.61
-16.03
-18.34
-20.59
-22.95
-25.64
-28.89
-32.79
-37.22
-41.76
-45.67
-48.07
-48.15
-45.45
-40.05
-32.53
-23.80
-14.78
-6.19
1.55
8.27
13.83
18.14
21.08
22.63
22.99
22.54
21.79
21.19
21.02
21.32
21.90
22.52
22.91
22.96
22.65
22.10
21.41
20.64
19.74
18.60
17.12
15.26
13.09
10.73
8.31
5.89
3.43
0.87
-1.88
-4.83
-7.90
-10.94
-13.83
-16.51
-19.07
-21.63
-24.33
-27.32
-30.70
-34.49
-38.63
-42.84
-46.55
-48.96
-49.21
-46.71
-41.35
-33.59
-24.33
-14.57
-5.15
3.42
10.92
17.27
22.38
26.14
28.49
29.52
29.53
29.00
28.40
28.05
28.06
28.33
28.62
28.74
28.60
28.22
27.73
27.19
26.60
25.82
24.65
22.95
20.69
17.97
15.04
12.15
9.51
7.17
4.99
2.76
0.20
-2.77
-6.08
-9.47
-12.66
-15.43
-17.79
-19.92
-22.09
-24.58
-27.55
-31.11
-35.23
-39.75
-44.24
-48.01
-50.16
-49.85
-46.61
-40.51
-32.26
-22.87
-13.40
-4.62
3.10
9.68
15.14
19.49
22.66
24.63
25.53
25.68
25.51
25.37
25.47
25.76
26.09
26.30
26.33
26.22
26.06
25.90
25.68
25.25
24.46
23.23
21.52
19.43
17.06
14.55
12.06
9.64
7.34
5.12
2.86
0.50
-2.02
-4.67
-7.31
-9.84
-12.15
-14.21
-16.09
-17.90
-19.79
-21.96
-24.58
-27.79
-31.59
-35.77
-39.82
-43.05
-44.68
-44.06
-40.85
-35.19
-27.64
-19.03
-10.24
-1.99
5.27
11.30
16.05
19.54
21.84
23.07
23.41
23.19
22.77
22.47
22.50
22.83
23.28
23.62
23.68
23.41
22.93
22.36
21.79
21.20
20.42
19.30
17.74
15.77
13.59
11.38
9.34
7.51
5.82
4.13
2.33
0.35
-1.79
-4.02
-6.29
-8.58
-10.91
-13.30
-15.75
-18.23
-20.71
-23.24
-25.90
-28.84
-32.13
-35.68
-39.13
-41.85
-43.09
-42.15
-38.73
-32.99
-25.57
-17.35
-9.23
-1.83
4.55
9.80
13.92
16.88
18.67
19.37
19.24
18.68
18.09
17.74
17.70
17.87
18.12
18.33
18.44
18.43
18.26
17.85
17.10
15.98
14.55
12.90
11.15
9.39
7.64
5.86
4.01
2.03
-0.16
-2.56
-5.19
-7.96
-10.77
-13.49
-16.06
-18.50
-21.00
-23.82
-27.18
-31.12
-35.30
-39.01
-41.33
-41.41
-38.79
-33.56
-26.35
-18.09
-9.70
-1.85
5.10
11.03
15.92
19.73
22.41
23.96
24.52
24.38
23.88
23.36
23.00
22.80
22.65
22.41
22.00
21.50
21.01
20.65
20.37
20.00
19.29
18.04
16.22
13.99
11.60
9.25
7.06
4.93
2.69
0.14
-2.77
-5.93
-9.11
-12.05
-14.56
-16.65
-18.54
-20.58
-23.14
-26.42
-30.43
-34.90
-39.33
-43.07
-45.42
-45.78
-43.73
-39.24
-32.61
-24.51
-15.77
-7.19
0.64
7.37
12.91
17.27
20.48
22.63
23.82
24.23
24.15
23.87
23.66
23.61
23.67
23.67
23.47
23.01
22.40
21.78
21.32
21.03
20.79
20.35
19.45
17.94
15.80
13.17
10.34
7.59
5.17
3.17
1.50
-0.06
-1.80
-3.92
-6.47
-9.31
-12.17
-14.80
-17.09
-19.07
-20.94
-22.96
-25.39
-28.40
-32.06
-36.19
-40.35
-43.83
-45.79
-45.52
-42.61
-37.14
-29.66
-20.99
-12.00
-3.43
4.22
10.67
15.81
19.63
22.22
23.78
24.56
24.86
24.96
25.04
25.21
25.45
25.69
25.83
25.80
25.63
25.37
25.07
24.75
24.36
23.79
22.94
21.73
20.13
18.14
15.83
13.32
10.77
8.33
6.13
4.17
2.36
0.53
-1.47
-3.70
-6.10
-8.55
-10.97
-13.33
-15.69
-18.15
-20.80
-23.73
-27.02
-30.72
-34.78
-38.92
-42.62
-45.11
-45.61
-43.63
-39.12
-32.54
-24.69
-16.46
-8.56
-1.44
4.72
9.81
13.77
16.55
18.20
18.89
18.96
18.81
18.72
18.82
19.05
19.29
19.43
19.46
19.46
19.51
19.59
19.61
19.43
18.93
18.08
16.86
15.32
13.48
11.35
8.99
6.44
3.77
1.03
-1.77
-4.63
-7.52
-10.35
-13.02
-15.43
-17.63
-19.83
-22.37
-25.60
-29.67
-34.38
-39.08
-42.83
-44.62
-43.68
-39.79
-33.26
-24.88
-15.68
-6.57
1.76
8.94
14.87
19.56
23.06
25.44
26.80
27.31
27.23
26.87
26.46
26.15
25.95
25.78
25.54
25.15
24.62
23.98
23.25
22.42
21.44
20.22
18.71
16.91
14.89
12.78
10.71
8.70
6.70
4.54
2.08
-0.74
-3.78
-6.83
-9.65
-12.12
-14.30
-16.40
-18.64
-21.25
-24.36
-27.98
-31.99
-36.05
-39.58
-41.84
-42.07
-39.80
-34.98
-28.05
-19.84
-11.28
-3.16
4.04
10.12
15.06
18.89
21.64
23.35
24.12
24.16
23.74
23.16
22.64
22.32
22.21
22.26
22.37
22.47
22.50
22.43
22.22
21.86
21.31
20.50
19.38
17.88
16.03
13.88
11.58
9.27
7.05
4.90
2.74
0.39
-2.27
-5.22
-8.32
-11.33
-14.01
-16.25
-18.16
-20.01
-22.13
-24.81
-28.23
-32.36
-36.96
-41.52
-45.28
-47.39
-47.08
-43.95
-38.17
-30.40
-21.63
-12.86
-4.81
2.15
7.94
12.63
16.26
18.86
20.46
21.19
21.30
21.12
20.96
21.02
21.37
21.93
22.55
23.05
23.32
23.36
23.22
22.94
22.51
21.86
20.89
19.58
17.95
16.08
14.05
11.93
9.77
7.64
5.61
3.74
2.04
0.45
-1.17
-2.99
-5.08
-7.41
-9.86
-12.23
-14.42
-16.38
-18.21
-20.07
-22.16
-24.63
-27.58
-30.96
-34.59
-38.11
-40.92
-42.31
-41.56
-38.24
-32.36
-24.45
-15.44
-6.38
1.93
8.98
14.67
19.07
22.29
24.39
25.45
25.64
25.31
24.91
24.82
25.20
25.94
26.73
27.23
27.27
26.85
26.10
25.19
24.17
23.02
21.62
19.90
17.87
15.58
13.12
10.58
8.03
5.52
3.12
0.86
-1.22
-3.15
-4.98
-6.76
-8.47
-10.04
-11.38
-12.42
-13.20
-13.81
-14.42
-15.20
-16.22
-17.55
-19.15
-20.95
-22.78
-24.32
-25.18
-24.92
-23.21
-19.95
-15.40
-10.02
-4.44
0.79
5.28
8.87
11.53
13.33
14.38
14.81
14.77
14.45
14.05
13.77
13.74
14.03
14.54
15.11
15.51
15.56
15.18
14.41
13.38
12.22
11.02
9.75
8.36
6.77
4.95
2.96
0.87
-1.26
-3.37
-5.48
-7.64
-9.95
-12.47
-15.28
-18.33
-21.49
-24.57
-27.39
-29.87
-32.08
-34.20
-36.44
-38.98
-41.92
-45.25
-48.89
-52.57
-55.85
-58.08
-58.53
-56.59
-52.01
-45.03
-36.37
-27.01
-17.95
-9.98
-3.51
1.37
4.77
6.93
8.08
8.44
8.26
7.85
7.53
7.66
8.40
9.74
11.46
13.22
14.77
16.01
17.01
17.94
18.83
19.63
20.09
20.03
19.35
18.13
16.57
14.87
13.13
11.32
9.33
6.97
4.07
0.48
-3.86
-8.90
-14.48
-20.29
-25.98
-31.25
-35.99
-40.25
-44.31
-48.40
-52.67
-56.96
-60.80
-63.51
-64.32
-62.66
-58.26
-51.25
-42.11
-31.51
-20.25
-9.04
1.51
10.93
18.89
25.21
29.85
32.91
34.66
35.46
35.75
35.90
36.22
36.82
37.69
38.66
39.51
39.99
39.89
39.08
37.54
35.38
32.84
30.26
27.96
26.10
24.67
23.53
22.45
21.29
20.06
18.87
17.81
16.92
16.11
15.26
14.29
13.28
12.42
11.85
11.57
11.32
10.64
9.08
6.31
2.26
-2.86
-8.64
-14.54
-19.89
-24.02
-26.27
-26.16
-23.56
-18.75
-12.39
-5.33
1.61
7.88
13.29
17.91
21.89
25.30
28.10
30.21
31.60
32.41
32.89
33.32
33.77
34.16
34.28
33.95
33.22
32.27
31.34
30.49
29.55
28.16
25.92
22.63
18.42
13.70
9.03
4.91
1.67
-0.68
-2.39
-3.91
-5.73
-8.25
-11.66
-15.93
-20.79
-25.89
-30.90
-35.57
-39.81
-43.60
-46.99
-50.00
-52.60
-54.67
-55.96
-56.14
-54.82
-51.69
-46.60
-39.66
-31.28
-22.05
-12.65
-3.69
4.35
11.14
16.47
20.29
22.64
23.77
24.06
23.94
23.83
24.01
24.60
25.54
26.66
27.75
28.63
29.15
29.22
28.82
28.01
26.86
25.46
23.80
21.80
19.36
16.42
13.02
9.35
5.67
2.21
-0.92
-3.80
-6.64
-9.72
-13.26
-17.38
-22.02
-26.98
-31.90
-36.26
-39.48
-40.95
-40.22
-37.10
-31.77
-24.72
-16.66
-8.38
-0.52
6.43
12.22
16.74
19.98
21.99
22.88
22.82
22.05
20.87
19.58
18.41
17.52
16.95
16.65
16.55
16.54
16.48
16.26
15.76
14.90
13.69
12.21
10.61
9.11
7.86
6.98
6.40
5.98
5.49
4.74
3.64
2.21
0.57
-1.14
-2.87
-4.60
-6.39
-8.28
-10.27
-12.31
-14.30
-16.05
-17.30
-17.72
-17.02
-15.05
-11.88
-7.80
-3.28
1.22
5.33
8.86
11.75
14.03
15.80
17.18
18.28
19.26
20.24
21.29
22.42
23.55
24.54
25.24
25.55
25.41
24.87
24.08
23.24
22.52
21.97
21.48
20.84
19.79
18.18
16.00
13.45
10.77
8.20
5.87
3.78
1.81
-0.14
-2.17
-4.30
-6.51
-8.78
-11.05
-13.26
-15.35
-17.18
-18.61
-19.45
-19.57
-18.94
-17.62
-15.81
-13.75
-11.65
-9.69
-7.96
-6.49
-5.30
-4.35
-3.57
-2.88
-2.19
-1.46
-0.68
0.10
0.85
1.56
2.23
2.90
3.60
4.31
5.01
5.62
6.10
6.40
6.54
6.55
6.47
6.33
6.08
5.65
4.94
3.88
2.49
0.87
-0.86
-2.63
-4.44
-6.37
-8.52
-10.93
-13.51
-16.11
-18.55
-20.68
-22.44
-23.81
-24.70
-24.98
-24.45
-22.98
-20.58
-17.51
-14.16
-10.93
-8.14
-5.87
-4.06
-2.57
-1.29
-0.18
0.77
1.57
2.23
2.80
3.32
3.80
4.26
4.70
5.12
5.52
5.87
6.11
6.17
6.01
5.61
4.96
4.13
3.18
2.18
1.18
0.22
-0.74
-1.73
-2.82
-4.01
-5.32
-6.70
-8.09
-9.48
-10.89
-12.36
-13.95
-15.70
-17.52
-19.27
-20.69
-21.47
-21.38
-20.27
-18.20
-15.41
-12.28
-9.18
-6.41
-4.14
-2.41
-1.18
-0.41
-0.02
0.09
0.04
0.03
0.19
0.57
1.04
1.36
1.29
0.71
-0.31
-1.54
-2.70
-3.60
-4.25
-4.80
-5.42
-6.23
-7.16
-8.02
-8.62
-8.86
-8.80
-8.63
-8.56
-8.76
-9.29
-10.13
-11.23
-12.51
-13.83
-14.98
-15.66
-15.52
-14.31
-11.94
-8.54
-4.44
-0.11
3.99
7.47
10.03
11.57
12.12
11.85
11.03
9.95
8.86
7.95
7.29
6.88
6.65
6.50
6.27
5.86
5.19
4.30
3.34
2.52
2.05
1.99
2.26
2.61
2.74
2.43
1.60
0.39
-1.00
-2.34
-3.53
-4.59
-5.68
-6.96
-8.61
-10.67
-13.14
-15.88
-18.63
-21.03
-22.58
-22.80
-21.35
-18.21
-13.73
-8.51
-3.24
1.55
5.59
8.87
11.48
13.53
15.06
16.09
16.67
16.92
17.00
17.04
17.09
17.11
17.06
16.89
16.64
16.35
16.05
15.69
15.21
14.49
13.51
12.28
10.88
9.41
7.93
6.42
4.87
3.24
1.56
-0.14
-1.81
-3.42
-5.01
-6.63
-8.37
-10.31
-12.52
-15.03
-17.82
-20.69
-23.30
-25.11
-25.55
-24.18
-20.86
-15.89
-9.89
-3.67
2.05
6.81
10.45
13.07
14.85
15.99
16.61
16.87
16.91
16.94
17.15
17.62
18.29
19.00
19.54
19.76
19.62
19.20
18.61
17.97
17.32
16.70
16.06
15.32
14.39
13.12
11.34
8.93
5.81
2.02
-2.34
-7.10
-12.07
-16.97
-21.56
-25.58
-28.89
-31.54
-33.77
-35.90
-38.19
-40.66
-42.95
-44.45
-44.44
-42.41
-38.28
-32.42
-25.54
-18.45
-11.83
-6.09
-1.34
2.50
5.59
8.09
10.11
11.70
12.87
13.60
13.88
13.76
13.41
13.09
13.02
13.34
13.99
14.83
15.70
16.56
17.46
18.40
19.25
19.64
19.17
17.55
14.89
11.64
8.44
5.81
3.94
2.68
1.62
0.40
-1.23
-3.34
-5.88
-8.76
-11.82
-14.79
-17.28
-18.73
-18.60
-16.53
-12.53
-6.99
-0.64
5.72
11.43
16.12
19.70
22.25
23.87
24.60
24.46
23.53
22.07
20.47
19.13
18.28
17.93
17.88
17.87
17.69
17.29
16.70
16.04
15.33
14.57
13.69
12.64
11.42
10.07
8.66
7.27
5.86
4.37
2.66
0.65
-1.67
-4.23
-6.91
-9.62
-12.39
-15.29
-18.44
-21.89
-25.48
-28.83
-31.38
-32.50
-31.71
-28.82
-24.04
-17.94
-11.30
-4.90
0.73
5.36
9.07
12.10
14.68
16.95
18.88
20.37
21.32
21.69
21.55
21.04
20.37
19.77
19.40
19.41
19.82
20.50
21.17
21.39
20.75
18.95
15.96
12.06
7.75
3.53
-0.24
-3.54
-6.62
-9.83
-13.40
-17.37
-21.52
-25.53
-29.18
-32.45
-35.56
-38.84
-42.67
-47.39
-53.29
-60.42
-68.51
-76.73
-83.75
-88.00
-88.12
-83.44
-74.22
-61.51
-46.82
-31.66
-17.18
-4.22
6.71
15.27
21.29
24.86
26.48
26.96
27.25
28.14
29.96
32.49
35.04
36.74
36.82
34.94
31.22
26.24
20.76
15.53
11.06
7.63
5.21
3.63
2.59
1.77
0.86
-0.42
-2.18
-4.40
-6.83
-9.08
-10.69
-11.30
-10.80
-9.38
-7.53
-5.94
-5.25
-5.91
-8.00
-11.17
-14.68
-17.57
-18.90
-18.06
-14.98
-10.22
-4.78
0.24
3.99
6.19
7.04
7.09
6.82
6.51
6.13
5.58
4.81
3.99
3.40
3.30
3.78
4.74
5.93
7.15
8.32
9.50
10.79
12.22
13.66
14.85
15.47
15.32
14.36
12.79
10.90
9.00
7.25
5.65
4.04
2.24
0.07
-2.52
-5.53
-8.86
-12.40
-16.10
-19.97
-24.18
-29.03
-34.85
-41.81
-49.72
-57.89
-65.12
-69.95
-71.04
-67.48
-59.05
-46.35
-30.64
-13.67
2.71
16.90
27.82
35.08
38.95
40.12
39.46
37.77
35.62
33.35
31.13
29.03
27.13
25.57
24.52
24.20
24.77
26.22
28.31
30.61
32.62
33.94
34.39
33.98
32.91
31.51
30.22
29.63
30.36
32.84
37.02
42.22
47.30
51.06
52.71
52.13
49.78
46.25
41.80
36.10
28.42
18.11
5.08
-9.92
-25.36
-39.34
-49.99
-55.96
-56.65
-52.34
-44.10
-33.53
-22.40
-12.25
-4.00
2.10
6.47
9.87
13.06
16.58
20.59
24.95
29.28
33.13
36.12
38.03
38.83
38.70
37.95
36.92
35.86
34.93
34.13
33.44
32.75
31.95
30.92
29.55
27.80
25.76
23.64
21.67
20.03
18.67
17.42
16.02
14.35
12.43
10.50
8.81
7.52
6.58
5.83
5.06
4.13
3.05
1.88
0.76
-0.25
-1.09
-1.76
-2.30
-2.71
-3.04
-3.24
-3.25
-2.91
-2.10
-0.73
1.18
3.51
6.05
8.53
10.69
12.31
13.20
13.26
12.47
10.94
8.88
6.59
4.37
2.46
0.98
-0.09
-0.90
-1.69
-2.71
-4.18
-6.18
-8.64
-11.34
-13.95
-16.20
-17.94
-19.23
-20.30
-21.38
-22.62
-24.03
-25.45
-26.74
-27.82
-28.74
-29.62
-30.58
-31.67
-32.89
-34.18
-35.45
-36.66
-37.75
-38.73
-39.65
-40.65
-41.89
-43.48
-45.35
-47.22
-48.57
-48.76
-47.27
-43.79
-38.38
-31.46
-23.71
-15.87
-8.68
-2.70
1.75
4.60
6.01
6.33
5.95
5.28
4.63
4.19
4.04
4.20
4.64
5.29
6.05
6.78
7.33
7.59
7.47
7.01
6.30
5.50
4.71
3.95
3.16
2.16
0.85
-0.84
-2.81
-4.85
-6.77
-8.44
-9.87
-11.24
-12.80
-14.75
-17.21
-20.13
-23.37
-26.74
-29.97
-32.75
-34.62
-35.10
-33.76
-30.39
-25.18
-18.67
-11.65
-4.88
1.10
6.06
9.99
12.98
15.05
16.22
16.54
16.17
15.41
14.60
14.04
13.85
13.97
14.20
14.35
14.30
14.01
13.55
13.00
12.40
11.79
11.10
10.28
9.25
7.93
6.27
4.20
1.68
-1.22
-4.38
-7.58
-10.59
-13.23
-15.48
-17.46
-19.40
-21.62
-24.40
-27.83
-31.72
-35.55
-38.49
-39.64
-38.27
-34.08
-27.34
-18.79
-9.46
-0.37
7.70
14.30
19.25
22.54
24.31
24.73
24.12
22.87
21.40
20.05
19.02
18.29
17.77
17.26
16.62
15.81
14.81
13.66
12.39
11.01
9.58
8.15
6.78
5.51
4.32
3.09
1.67
-0.11
-2.30
-4.88
-7.69
-10.52
-13.19
-15.62
-17.85
-20.01
-22.32
-24.99
-28.20
-31.94
-35.94
-39.58
-41.97
-42.17
-39.50
-33.79
-25.57
-15.87
-5.95
3.11
10.65
16.47
20.69
23.55
25.26
26.00
25.92
25.24
24.28
23.35
22.70
22.45
22.58
22.90
23.16
23.14
22.67
21.76
20.51
19.14
17.81
16.57
15.32
13.85
11.96
9.57
6.77
3.75
0.72
-2.19
-4.95
-7.56
-10.05
-12.41
-14.70
-17.07
-19.76
-23.03
-26.97
-31.31
-35.40
-38.28
-38.97
-36.81
-31.68
-24.09
-15.00
-5.53
3.33
10.94
16.97
21.36
24.19
25.61
25.85
25.26
24.29
23.38
22.86
22.87
23.27
23.79
24.17
24.21
23.92
23.39
22.79
22.17
21.51
20.65
19.43
17.76
15.67
13.32
10.89
8.46
6.05
3.56
0.91
-1.91
-4.79
-7.59
-10.24
-12.72
-15.14
-17.68
-20.50
-23.74
-27.43
-31.44
-35.44
-38.82
-40.81
-40.63
-37.79
-32.21
-24.38
-15.22
-5.82
2.75
9.75
14.78
17.83
19.14
19.13
18.26
16.95
15.54
14.27
13.33
12.80
12.68
12.85
13.08
13.06
12.60
11.63
10.30
8.86
7.52
6.31
5.09
3.62
1.72
-0.66
-3.45
-6.46
-9.46
-12.26
-14.70
-16.76
-18.53
-20.25
-22.28
-24.93
-28.36
-32.39
-36.47
-39.77
-41.36
-40.47
-36.71
-30.22
-21.64
-12.00
-2.38
6.25
13.25
18.37
21.61
23.17
23.34
22.45
20.85
18.94
17.05
15.45
14.26
13.46
12.88
12.35
11.69
10.86
9.87
8.82
7.82
6.86
5.87
4.64
2.97
0.74
-2.03
-5.14
-8.27
-11.11
-13.44
-15.29
-16.95
-18.89
-21.62
-25.51
-30.54
-36.25
-41.70
-45.71
-47.19
-45.47
-40.45
-32.73
-23.31
-13.33
-3.78
4.69
11.76
17.36
21.50
24.21
25.56
25.71
24.96
23.74
22.48
21.54
21.07
20.99
21.09
21.12
20.92
20.46
19.80
19.02
18.13
17.04
15.59
13.64
11.14
8.14
4.84
1.48
-1.72
-4.61
-7.21
-9.68
-12.31
-15.40
-19.19
-23.76
-28.94
-34.25
-38.87
-41.81
-42.13
-39.22
-33.10
-24.40
-14.27
-3.98
5.39
13.23
19.42
24.13
27.60
29.97
31.25
31.46
30.72
29.38
27.90
26.72
26.05
25.87
25.90
25.81
25.35
24.48
23.29
21.94
20.54
19.07
17.43
15.49
13.12
10.31
7.09
3.61
0.02
-3.53
-6.97
-10.25
-13.37
-16.34
-19.23
-22.20
-25.53
-29.51
-34.28
-39.57
-44.65
-48.37
-49.51
-47.29
-41.66
-33.30
-23.46
-13.39
-4.02
4.18
11.11
16.76
21.03
23.77
24.91
24.69
23.66
22.47
21.72
21.66
22.18
22.91
23.45
23.52
23.05
22.17
21.09
19.97
18.89
17.75
16.41
14.69
12.42
9.57
6.21
2.54
-1.21
-4.84
-8.22
-11.35
-14.36
-17.42
-20.70
-24.39
-28.65
-33.53
-38.82
-44.02
-48.24
-50.45
-49.80
-45.87
-38.94
-29.84
-19.71
-9.61
-0.23
8.11
15.31
21.35
26.11
29.48
31.39
31.97
31.57
30.68
29.73
29.09
28.87
29.03
29.40
29.81
30.12
30.23
30.07
29.53
28.51
26.90
24.68
21.94
18.90
15.80
12.84
10.06
7.38
4.59
1.52
-1.90
-5.56
-9.26
-12.83
-16.15
-19.33
-22.58
-26.20
-30.44
-35.37
-40.79
-46.10
-50.40
-52.58
-51.73
-47.38
-39.76
-29.78
-18.74
-7.89
1.85
10.07
16.74
22.00
25.98
28.72
30.29
30.84
30.71
30.31
29.97
29.88
30.03
30.27
30.41
30.38
30.20
29.91
29.57
29.12
28.41
27.24
25.47
23.09
20.23
17.15
14.11
11.30
8.73
6.27
3.73
0.94
-2.16
-5.50
-8.90
-12.21
-15.30
-18.16
-20.88
-23.66
-26.79
-30.51
-34.95
-39.94
-44.88
-48.83
-50.69
-49.58
-45.10
-37.58
-27.86
-17.14
-6.53
3.11
11.28
17.79
22.65
25.93
27.78
28.42
28.16
27.39
26.55
25.99
25.96
26.45
27.24
27.97
28.31
28.07
27.33
26.32
25.30
24.41
23.55
22.49
20.96
18.84
16.24
13.40
10.59
7.94
5.46
3.03
0.49
-2.21
-5.05
-7.93
-10.73
-13.39
-15.92
-18.39
-20.92
-23.61
-26.58
-29.93
-33.75
-37.96
-42.18
-45.73
-47.66
-47.06
-43.39
-36.75
-27.86
-17.87
-7.96
1.02
8.62
14.78
19.58
23.07
25.28
26.24
26.13
25.30
24.20
23.26
22.73
22.63
22.78
22.92
22.80
22.34
21.59
20.75
20.02
19.48
19.04
18.40
17.29
15.55
13.25
10.69
8.19
6.00
4.08
2.23
0.16
-2.32
-5.20
-8.26
-11.24
-13.95
-16.30
-18.40
-20.39
-22.47
-24.78
-27.50
-30.79
-34.72
-39.13
-43.56
-47.18
-48.95
-47.98
-43.84
-36.78
-27.67
-17.72
-8.10
0.38
7.37
12.84
16.91
19.68
21.23
21.69
21.27
20.35
19.32
18.52
18.13
18.16
18.45
18.80
19.03
19.06
18.86
18.47
17.94
17.25
16.31
14.98
13.20
11.00
8.55
6.06
3.66
1.33
-1.05
-3.63
-6.44
-9.39
-12.29
-14.95
-17.33
-19.51
-21.69
-24.12
-27.01
-30.51
-34.64
-39.19
-43.61
-47.09
-48.67
-47.55
-43.36
-36.38
-27.36
-17.39
-7.49
1.52
9.22
15.40
20.11
23.45
25.58
26.72
27.19
27.33
27.44
27.72
28.20
28.76
29.21
29.39
29.26
28.91
28.46
28.02
27.54
26.89
25.86
24.27
22.06
19.27
16.11
12.81
9.62
6.64
3.82
0.94
-2.25
-5.93
-10.05
-14.30
-18.31
-21.72
-24.42
-26.56
-28.52
-30.74
-33.61
-37.29
-41.60
-45.99
-49.58
-51.37
-50.48
-46.47
-39.54
-30.39
-20.09
-9.73
-0.16
8.06
14.67
19.57
22.84
24.64
25.31
25.27
24.96
24.73
24.80
25.16
25.69
26.22
26.55
26.60
26.35
25.85
25.17
24.40
23.55
22.54
21.27
19.65
17.61
15.23
12.59
9.84
7.07
4.32
1.54
-1.30
-4.21
-7.17
-10.12
-12.99
-15.76
-18.45
-21.14
-24.00
-27.22
-30.96
-35.11
-39.27
-42.66
-44.33
-43.44
-39.58
-32.97
-24.38
-14.92
-5.65
2.66
9.67
15.31
19.66
22.78
24.66
25.36
25.07
24.17
23.12
22.32
21.94
21.89
21.91
21.76
21.34
20.76
20.23
19.90
19.78
19.64
19.18
18.13
16.41
14.17
11.74
9.41
7.36
5.50
3.60
1.38
-1.26
-4.22
-7.22
-9.96
-12.30
-14.30
-16.21
-18.32
-20.88
-23.99
-27.62
-31.57
-35.39
-38.41
-39.84
-38.95
-35.34
-29.17
-21.08
-12.04
-3.08
5.00
11.72
16.88
20.47
22.59
23.43
23.29
22.54
21.58
20.70
20.04
19.57
19.14
18.66
18.09
17.51
17.02
16.67
16.40
16.01
15.28
14.03
12.26
10.13
7.88
5.76
3.85
2.12
0.42
-1.41
-3.44
-5.66
-8.00
-10.38
-12.75
-15.12
-17.51
-19.95
-22.50
-25.23
-28.26
-31.59
-35.06
-38.18
-40.22
-40.41
-38.16
-33.32
-26.27
-17.80
-8.92
-0.58
6.51
11.99
15.84
18.21
19.35
19.53
19.00
18.02
16.85
15.72
14.80
14.16
13.71
13.30
12.73
11.90
10.85
9.70
8.60
7.59
6.64
5.55
4.11
2.14
-0.39
-3.38
-6.61
-9.88
-13.05
-16.08
-19.05
-22.05
-25.16
-28.47
-32.03
-35.93
-40.24
-44.97
-49.97
-54.82
-58.88
-61.46
-62.01
-60.35
-56.72
-51.63
-45.68
-39.30
-32.68
-25.82
-18.72
-11.51
-4.50
1.92
7.43
11.94
15.55
18.50
20.96
22.94
24.35
25.03
24.87
23.83
21.89
18.95
14.81
9.30
2.46
-5.34
-13.33
-20.57
-26.26
-29.92
-31.53
-31.43
-30.07
-27.96
-25.61
-23.58
-22.48
-22.91
-25.21
-29.26
-34.33
-39.20
-42.45
-42.88
-39.92
-33.78
-25.35
-15.88
-6.54
1.86
8.99
14.89
19.75
23.70
26.79
29.05
30.62
31.82
33.01
34.50
36.36
38.37
40.20
41.55
42.39
43.01
43.81
45.05
46.68
48.28
49.31
49.37
48.48
47.07
45.71
44.86
44.66
44.93
45.37
45.71
45.81
45.60
45.02
43.94
42.21
39.73
36.57
32.98
29.36
26.23
24.11
23.42
24.31
26.56
29.68
33.01
35.95
38.17
39.62
40.41
40.71
40.58
39.94
38.68
36.74
34.15
31.10
27.89
24.84
22.17
19.97
18.13
16.45
14.73
12.85
10.83
8.78
6.82
4.98
3.20
1.43
-0.38
-2.17
-3.87
-5.44
-6.91
-8.41
-10.05
-11.95
-14.11
-16.45
-18.82
-21.06
-23.04
-24.69
-25.97
-26.92
-27.55
-27.86
-27.74
-27.05
-25.66
-23.56
-20.85
-17.78
-14.66
-11.74
-9.18
-7.02
-5.27
-3.92
-2.99
-2.50
-2.39
-2.53
-2.71
-2.77
-2.60
-2.25
-1.83
-1.44
-1.18
-1.05
-1.03
-1.13
-1.37
-1.78
-2.38
-3.15
-4.01
-4.92
-5.84
-6.80
-7.83
-9.04
-10.50
-12.28
-14.37
-16.73
-19.23
-21.71
-24.06
-26.22
-28.26
-30.32
-32.51
-34.90
-37.44
-40.00
-42.32
-44.15
-45.24
-45.49
-44.98
-43.92
-42.61
-41.34
-40.30
-39.56
-39.13
-39.02
-39.18
-39.48
-39.62
-39.21
-37.85
-35.37
-31.91
-27.85
-23.62
-19.47
-15.40
-11.26
-6.98
-2.70
1.22
4.33
6.32
7.15
7.03
6.32
5.35
4.36
3.56
3.04
2.90
3.08
3.36
3.38
2.62
0.68
-2.61
-7.01
-11.87
-16.28
-19.27
-20.10
-18.51
-14.70
-9.30
-3.10
3.19
9.02
14.09
18.25
21.44
23.62
24.86
25.30
25.17
24.77
24.41
24.28
24.49
24.97
25.54
25.96
26.00
25.51
24.49
23.08
21.45
19.72
17.94
16.00
13.82
11.38
8.74
6.03
3.35
0.65
-2.19
-5.30
-8.68
-12.19
-15.62
-18.88
-22.15
-25.90
-30.70
-36.89
-44.23
-51.83
-58.31
-62.23
-62.60
-59.19
-52.61
-44.02
-34.76
-26.03
-18.72
-13.50
-10.84
-10.96
-13.60
-17.90
-22.44
-25.62
-26.24
-23.92
-19.19
-13.09
-6.64
-0.38
5.73
11.99
18.54
25.08
30.96
35.53
38.48
40.05
40.83
41.43
42.19
43.02
43.54
43.31
42.14
40.14
37.66
35.10
32.68
30.34
27.88
25.00
21.58
17.66
13.40
8.95
4.44
-0.06
-4.34
-7.96
-10.25
-10.50
-8.21
-3.37
3.50
11.49
19.58
26.97
33.23
38.24
42.10
44.92
46.74
47.55
47.42
46.58
45.35
44.10
43.03
42.20
41.42
40.49
39.28
37.78
36.10
34.34
32.47
30.36
27.82
24.70
21.03
17.01
12.92
9.05
5.57
2.46
-0.45
-3.42
-6.68
-10.37
-14.48
-18.87
-23.34
-27.70
-31.85
-35.82
-39.75
-43.89
-48.50
-53.72
-59.44
-65.17
-69.99
-72.76
-72.42
-68.38
-60.74
-50.35
-38.43
-26.28
-14.89
-4.81
3.69
10.57
15.80
19.41
21.55
22.56
22.90
23.07
23.43
24.17
25.27
26.58
27.88
28.99
29.79
30.21
30.29
30.13
29.86
29.54
29.19
28.73
28.07
27.20
26.14
24.95
23.59
21.95
19.86
17.17
13.92
10.33
6.69
3.30
0.23
-2.66
-5.64
-9.02
-12.97
-17.48
-22.31
-26.93
-30.64
-32.55
-31.85
-28.02
-21.10
-11.79
-1.32
8.90
17.65
24.19
28.30
30.16
30.06
28.34
25.31
21.39
17.18
13.39
10.62
9.21
9.09
9.88
11.06
12.23
13.12
13.61
13.57
12.85
11.27
8.75
5.44
1.67
-2.07
-5.33
-7.84
-9.59
-10.82
-11.94
-13.39
-15.48
-18.32
-21.75
-25.40
-28.84
-31.67
-33.69
-34.89
-35.52
-35.95
-36.52
-37.35
-38.24
-38.58
-37.60
-34.61
-29.27
-21.78
-12.82
-3.30
5.94
14.29
21.48
27.38
31.97
35.24
37.25
38.25
38.65
38.96
39.57
40.69
42.25
44.01
45.76
47.33
48.67
49.78
50.64
51.17
51.24
50.75
49.56
47.55
44.60
40.59
35.52
29.55
23.02
16.34
9.83
3.62
-2.33
-8.15
-13.90
-19.45
-24.52
-28.84
-32.27
-34.82
-36.61
-37.67
-37.89
-37.00
-34.75
-31.06
-26.16
-20.59
-14.99
-9.93
-5.79
-2.71
-0.69
0.36
0.55
0.01
-1.10
-2.56
-4.15
-5.66
-6.90
-7.78
-8.30
-8.53
-8.59
-8.62
-8.72
-8.93
-9.23
-9.52
-9.75
-9.93
-10.13
-10.50
-11.16
-12.19
-13.54
-15.08
-16.61
-18.01
-19.19
-20.21
-21.22
-22.40
-23.88
-25.73
-27.86
-30.04
-31.88
-32.84
-32.42
-30.26
-26.33
-20.98
-14.85
-8.69
-3.10
1.52
5.09
7.65
9.33
10.17
10.23
9.62
8.54
7.32
6.29
5.65
5.44
5.55
5.78
5.96
6.03
5.99
5.87
5.69
5.37
4.83
3.99
2.81
1.32
-0.42
-2.34
-4.31
-6.22
-7.96
-9.51
-10.92
-12.35
-14.01
-16.04
-18.54
-21.49
-24.84
-28.44
-32.04
-35.22
-37.45
-38.14
-36.86
-33.54
-28.45
-22.20
-15.52
-9.02
-3.12
2.00
6.28
9.66
12.09
13.49
13.88
13.39
12.32
11.04
9.92
9.24
9.07
9.27
9.55
9.61
9.25
8.46
7.37
6.19
5.04
3.92
2.65
1.05
-1.00
-3.46
-6.09
-8.66
-11.02
-13.17
-15.28
-17.53
-20.07
-23.01
-26.40
-30.25
-34.45
-38.75
-42.61
-45.31
-46.15
-44.65
-40.75
-34.88
-27.74
-20.14
-12.72
-5.85
0.29
5.65
10.17
13.80
16.45
18.16
19.08
19.52
19.88
20.47
21.47
22.80
24.17
25.28
25.89
25.95
25.57
24.99
24.37
23.82
23.34
22.84
22.19
21.22
19.74
17.63
14.90
11.74
8.46
5.39
2.70
0.36
-1.84
-4.17
-6.87
-10.05
-13.71
-17.69
-21.69
-25.22
-27.65
-28.36
-26.95
-23.39
-18.09
-11.77
-5.16
1.13
6.73
11.46
15.22
17.92
19.55
20.18
20.10
19.67
19.24
19.04
19.11
19.37
19.69
19.96
20.13
20.19
20.09
19.79
19.23
18.35
17.08
15.40
13.31
10.89
8.32
5.84
3.63
1.75
0.07
-1.67
-3.76
-6.31
-9.27
-12.40
-15.45
-18.28
-20.91
-23.48
-26.20
-29.23
-32.65
-36.39
-40.19
-43.60
-46.00
-46.74
-45.32
-41.61
-35.85
-28.61
-20.56
-12.34
-4.38
3.01
9.60
15.16
19.48
22.47
24.20
24.95
25.15
25.24
25.53
26.14
26.99
27.88
28.56
28.88
28.80
28.40
27.78
26.99
25.99
24.70
23.01
20.97
18.69
16.39
14.32
12.57
11.13
9.75
8.14
6.04
3.34
0.11
-3.38
-6.82
-9.92
-12.50
-14.56
-16.24
-17.78
-19.49
-21.67
-24.52
-28.05
-31.95
-35.58
-38.11
-38.70
-36.80
-32.31
-25.58
-17.35
-8.53
0.06
7.79
14.28
19.35
22.96
25.15
26.05
25.91
25.11
24.12
23.36
23.07
23.26
23.75
24.24
24.46
24.31
23.83
23.13
22.31
21.44
20.47
19.34
17.97
16.37
14.57
12.66
10.71
8.72
6.62
4.29
1.68
-1.16
-4.04
-6.74
-9.13
-11.21
-13.13
-15.10
-17.28
-19.81
-22.73
-26.06
-29.70
-33.32
-36.36
-38.10
-37.89
-35.35
-30.62
-24.23
-16.97
-9.63
-2.82
3.10
7.91
11.51
13.83
14.96
15.07
14.47
13.56
12.70
12.17
12.09
12.43
13.00
13.54
13.82
13.71
13.24
12.59
11.97
11.44
10.89
10.04
8.61
6.48
3.79
0.86
-1.99
-4.56
-6.89
-9.18
-11.60
-14.23
-17.02
-19.91
-22.90
-26.15
-29.76
-33.63
-37.33
-40.14
-41.22
-39.99
-36.31
-30.52
-23.37
-15.67
-8.12
-1.16
4.99
10.26
14.59
17.90
20.08
21.12
21.13
20.37
19.22
18.07
17.24
16.84
16.78
16.81
16.70
16.29
15.56
14.59
13.41
12.02
10.33
8.32
6.00
3.49
0.85
-1.94
-5.06
-8.70
-13.01
-17.97
-23.42
-29.11
-34.85
-40.58
-46.38
-52.40
-58.72
-65.26
-71.65
-77.17
-80.90
-81.89
-79.49
-73.56
-64.54
-53.35
-41.12
-28.92
-17.54
-7.46
1.10
8.04
13.34
17.06
19.34
20.49
20.93
21.16
21.62
22.59
24.13
26.03
27.93
29.38
29.99
29.50
27.86
25.19
21.82
18.16
14.64
11.60
9.23
7.50
6.23
5.15
4.02
2.66
1.02
-0.89
-3.03
-5.33
-7.77
-10.34
-13.06
-16.01
-19.27
-22.87
-26.67
-30.28
-33.04
-34.14
-32.90
-28.96
-22.54
-14.30
-5.21
3.81
12.06
19.17
25.00
29.54
32.82
34.91
35.93
36.08
35.62
34.87
34.11
33.58
33.43
33.71
34.34
35.16
35.98
36.62
37.02
37.17
37.09
36.72
35.96
34.68
32.85
30.62
28.23
25.95
23.95
22.16
20.40
18.42
16.13
13.59
11.00
8.52
6.19
3.86
1.29
-1.73
-5.31
-9.40
-13.69
-17.66
-20.56
-21.53
-19.84
-15.17
-7.81
1.39
11.23
20.54
28.53
34.85
39.48
42.51
43.96
43.74
41.81
38.26
33.46
27.86
22.04
16.44
11.45
7.31
4.21
2.26
1.45
1.68
2.64
3.91
4.99
5.48
5.16
4.11
2.63
1.07
-0.33
-1.59
-2.93
-4.70
-7.14
-10.29
-13.98
-17.90
-21.74
-25.30
-28.50
-31.37
-34.06
-36.71
-39.47
-42.41
-45.40
-48.13
-50.06
-50.58
-49.19
-45.66
-40.13
-33.02
-24.93
-16.42
-7.89
0.43
8.45
16.15
23.43
30.20
36.28
41.47
45.58
48.47
50.07
50.47
49.92
48.76
47.32
45.77
44.15
42.36
40.33
38.11
35.90
33.90
32.27
30.98
29.82
28.54
26.93
24.96
22.68
20.17
17.48
14.54
11.24
7.49
3.26
-1.45
-6.64
-12.36
-18.63
-25.32
-32.06
-38.16
-42.79
-45.23
-45.09
-42.43
-37.76
-31.79
-25.25
-18.71
-12.52
-6.90
-2.01
1.98
4.95
6.90
7.94
8.33
8.36
8.27
8.19
8.10
7.95
7.65
7.20
6.64
6.03
5.41
4.74
3.92
2.83
1.44
-0.27
-2.27
-4.58
-7.23
-10.25
-13.56
-16.95
-20.08
-22.66
-24.58
-25.92
-26.94
-27.90
-28.93
-30.02
-31.08
-32.06
-32.93
-33.61
-33.90
-33.45
-31.86
-28.84
-24.38
-18.79
-12.61
-6.46
-0.85
3.92
7.71
10.57
12.61
14.01
14.96
15.64
16.18
16.63
17.02
17.30
17.47
17.56
17.66
17.84
18.14
18.45
18.58
18.27
17.34
15.74
13.58
11.05
8.38
5.73
3.19
0.74
-1.63
-4.00
-6.43
-8.98
-11.67
-14.46
-17.25
-19.94
-22.47
-24.94
-27.62
-30.79
-34.64
-39.11
-43.77
-47.91
-50.65
-51.26
-49.30
-44.80
-38.23
-30.33
-21.92
-13.68
-6.10
0.59
6.28
10.95
14.60
17.30
19.19
20.51
21.53
22.51
23.60
24.82
26.08
27.25
28.19
28.79
29.03
28.92
28.45
27.60
26.33
24.66
22.63
20.37
18.04
15.76
13.61
11.55
9.48
7.24
4.71
1.82
-1.37
-4.69
-7.95
-10.98
-13.69
-16.18
-18.64
-21.36
-24.63
-28.57
-33.12
-37.88
-42.15
-45.04
-45.66
-43.47
-38.45
-31.15
-22.56
-13.73
-5.50
1.64
7.52
12.15
15.57
17.78
18.89
19.12
18.84
18.48
18.37
18.63
19.16
19.74
20.15
20.29
20.19
19.96
19.74
19.55
19.34
18.97
18.30
17.22
15.70
13.86
11.86
9.86
7.97
6.15
4.28
2.21
-0.16
-2.81
-5.59
-8.31
-10.78
-12.94
-14.86
-16.71
-18.74
-21.19
-24.25
-27.99
-32.26
-36.61
-40.28
-42.40
-42.18
-39.17
-33.46
-25.60
-16.45
-6.95
2.17
10.40
17.41
23.03
27.13
29.71
30.89
30.99
30.42
29.58
28.79
28.16
27.69
27.29
26.90
26.44
25.82
24.97
23.81
22.30
20.45
18.34
16.09
13.81
11.56
9.33
7.05
4.67
2.13
-0.55
-3.24
-5.83
-8.20
-10.33
-12.29
-14.20
-16.21
-18.38
-20.79
-23.46
-26.41
-29.56
-32.64
-35.16
-36.45
-35.87
-33.03
-28.00
-21.27
-13.68
-6.07
0.88
6.78
11.50
15.06
17.52
18.92
19.29
18.78
17.63
16.19
14.83
13.82
13.26
13.07
13.05
12.97
12.69
12.14
11.36
10.39
9.28
8.03
6.61
5.00
3.20
1.23
-0.91
-3.21
-5.61
-8.06
-10.48
-12.81
-15.03
-17.21
-19.43
-21.85
-24.59
-27.79
-31.49
-35.63
-39.91
-43.74
-46.35
-46.94
-45.00
-40.46
-33.78
-25.78
-17.38
-9.36
-2.20
3.90
8.94
12.98
16.11
18.40
19.93
20.83
21.28
21.51
21.79
22.33
23.25
24.54
26.06
27.58
28.91
29.91
30.55
30.83
30.73
30.19
29.08
27.31
24.88
21.89
18.51
14.91
11.17
7.28
3.23
-0.96
-5.18
-9.31
-13.32
-17.35
-21.60
-26.28
-31.35
-36.44
-40.82
-43.62
-44.08
-41.81
-36.94
-30.06
-22.00
-13.62
-5.60
1.63
7.82
12.75
16.28
18.24
18.65
17.77
16.09
14.28
12.89
12.25
12.34
12.86
13.40
13.63
13.41
12.78
11.88
10.84
9.71
8.44
6.91
5.02
2.70
-0.04
-3.11
-6.34
-9.52
-12.46
-15.06
-17.34
-19.45
-21.65
-24.21
-27.33
-31.08
-35.35
-39.79
-43.82
-46.70
-47.66
-46.12
-41.86
-35.16
-26.71
-17.43
-8.19
0.38
7.91
14.28
19.40
23.19
25.58
26.61
26.50
25.68
24.67
23.88
23.51
23.55
23.77
23.94
23.92
23.67
23.22
22.62
21.87
20.87
19.51
17.65
15.23
12.30
8.99
5.50
2.04
-1.25
-4.34
-7.26
-10.13
-13.06
-16.17
-19.61
-23.49
-27.86
-32.55
-37.08
-40.65
-42.38
-41.58
-38.02
-32.02
-24.38
-16.04
-7.85
-0.37
6.14
11.56
15.78
18.72
20.32
20.70
20.13
19.05
17.90
16.98
16.38
16.02
15.69
15.22
14.54
13.69
12.78
11.86
10.92
9.83
8.40
6.47
4.01
1.08
-2.14
-5.46
-8.73
-11.89
-14.99
-18.19
-21.68
-25.64
-30.06
-34.68
-38.94
-42.04
-43.14
-41.67
-37.51
-31.04
-23.04
-14.34
-5.67
2.50
9.89
16.24
21.34
24.93
26.96
27.60
27.27
26.48
25.69
25.13
24.78
24.49
24.09
23.55
22.95
22.39
21.89
21.35
20.51
19.13
17.05
14.24
10.85
7.13
3.36
-0.22
-3.49
-6.44
-9.24
-12.21
-15.72
-20.07
-25.29
-30.99
-36.35
-40.31
-41.89
-40.49
-36.10
-29.26
-20.86
-11.88
-3.10
5.02
12.20
18.35
23.36
27.14
29.62
30.83
30.95
30.29
29.26
28.22
27.44
26.98
26.73
26.46
25.97
25.16
24.08
22.89
21.70
20.53
19.25
17.66
15.56
12.91
9.77
6.35
2.88
-0.41
-3.43
-6.17
-8.75
-11.36
-14.20
-17.46
-21.24
-25.52
-30.03
-34.24
-37.37
-38.58
-37.19
-32.96
-26.18
-17.58
-8.13
1.29
9.99
17.61
23.92
28.81
32.21
34.19
34.99
35.08
35.02
35.26
35.98
37.06
38.16
38.88
38.96
38.32
37.09
35.41
33.41
31.12
28.48
25.45
22.02
18.25
14.28
10.26
6.31
2.44
-1.40
-5.28
-9.28
-13.36
-17.40
-21.23
-24.68
-27.73
-30.44
-33.02
-35.71
-38.74
-42.21
-46.05
-49.86
-52.96
-54.45
-53.48
-49.54
-42.69
-33.57
-23.23
-12.77
-3.07
5.39
12.45
18.11
22.36
25.22
26.70
27.04
26.61
25.90
25.37
25.25
25.54
26.05
26.48
26.59
26.28
25.62
24.72
23.76
22.77
21.70
20.40
18.71
16.56
13.99
11.14
8.22
5.39
2.70
0.12
-2.45
-5.13
-7.94
-10.78
-13.56
-16.16
-18.61
-21.01
-23.61
-26.68
-30.41
-34.78
-39.40
-43.57
-46.33
-46.81
-44.45
-39.22
-31.66
-22.70
-13.34
-4.44
3.44
10.09
15.44
19.52
22.36
24.00
24.60
24.38
23.70
22.90
22.25
21.84
21.63
21.49
21.26
20.91
20.48
20.08
19.75
19.45
18.99
18.13
16.70
14.71
12.33
9.84
7.51
5.43
3.51
1.55
-0.66
-3.20
-6.00
-8.85
-11.56
-14.03
-16.27
-18.39
-20.53
-22.84
-25.46
-28.53
-32.04
-35.84
-39.46
-42.21
-43.32
-42.17
-38.55
-32.70
-25.26
-17.03
-8.79
-1.10
5.66
11.26
15.52
18.35
19.78
20.02
19.46
18.57
17.77
17.31
17.25
17.48
17.81
18.07
18.17
18.07
17.72
17.10
16.16
14.88
13.28
11.47
9.55
7.61
5.66
3.65
1.45
-1.02
-3.76
-6.74
-9.80
-12.84
-15.80
-18.69
-21.63
-24.79
-28.30
-32.22
-36.40
-40.44
-43.72
-45.52
-45.18
-42.33
-37.00
-29.63
-20.98
-11.90
-3.16
4.68
11.29
16.55
20.43
22.97
24.28
24.54
24.03
23.14
22.24
21.63
21.43
21.59
21.91
22.19
22.24
21.97
21.34
20.32
18.95
17.29
15.42
13.42
11.34
9.13
6.73
4.07
1.14
-1.96
-5.09
-8.11
-10.96
-13.62
-16.18
-18.77
-21.56
-24.73
-28.38
-32.47
-36.69
-40.42
-42.87
-43.26
-41.09
-36.33
-29.46
-21.24
-12.56
-4.17
3.43
9.99
15.37
19.54
22.47
24.20
24.89
24.80
24.24
23.51
22.81
22.22
21.75
21.39
21.15
21.06
21.07
21.08
20.90
20.29
19.13
17.44
15.38
13.18
11.02
8.93
6.82
4.55
2.04
-0.72
-3.60
-6.48
-9.24
-11.84
-14.32
-16.71
-19.05
-21.40
-23.88
-26.70
-30.02
-33.74
-37.41
-40.18
-41.02
-39.13
-34.29
-26.94
-18.10
-8.92
-0.35
7.12
13.36
18.44
22.43
25.31
27.04
27.65
27.34
26.42
25.20
23.94
22.78
21.79
20.99
20.37
19.89
19.46
18.97
18.29
17.38
16.21
14.82
13.25
11.49
9.54
7.39
5.07
2.66
0.21
-2.25
-4.71
-7.18
-9.61
-11.93
-14.10
-16.15
-18.25
-20.64
-23.52
-26.93
-30.66
-34.19
-36.82
-37.82
-36.59
-32.89
-26.91
-19.26
-10.81
-2.52
4.87
10.92
15.52
18.79
20.87
21.91
21.99
21.28
20.00
18.50
17.10
16.05
15.41
15.10
14.94
14.73
14.35
13.72
12.88
11.89
10.79
9.60
8.30
6.83
5.12
3.14
0.88
-1.62
-4.28
-7.00
-9.67
-12.23
-14.68
-17.12
-19.69
-22.56
-25.86
-29.61
-33.64
-37.49
-40.50
-41.88
-41.03
-37.66
-32.02
-24.79
-16.84
-9.00
-1.84
4.37
9.54
13.59
16.47
18.12
18.62
18.22
17.35
16.41
15.71
15.38
15.38
15.60
15.87
16.05
16.04
15.78
15.26
14.52
13.58
12.45
11.06
9.35
7.25
4.80
2.09
-0.70
-3.46
-6.11
-8.69
-11.28
-13.98
-16.90
-20.17
-23.88
-28.05
-32.46
-36.64
-39.86
-41.30
-40.36
-36.83
-30.99
-23.51
-15.23
-6.92
0.83
7.63
13.22
17.45
20.27
21.74
22.10
21.67
20.86
20.01
19.36
18.96
18.78
18.67
18.50
18.19
17.75
17.24
16.71
16.16
15.48
14.55
13.27
11.57
9.49
7.13
4.58
1.94
-0.73
-3.40
-6.05
-8.70
-11.39
-14.25
-17.41
-20.98
-25.00
-29.27
-33.39
-36.74
-38.62
-38.46
-35.99
-31.36
-25.07
-17.82
-10.29
-3.03
3.64
9.50
14.41
18.20
20.81
22.23
22.61
22.24
21.44
20.49
19.61
18.91
18.46
18.26
18.27
18.42
18.54
18.46
17.98
17.01
15.58
13.80
11.86
9.91
8.02
6.18
4.29
2.26
0.07
-2.30
-4.77
-7.30
-9.82
-12.30
-14.72
-17.11
-19.56
-22.26
-25.35
-28.87
-32.57
-35.82
-37.79
-37.63
-34.87
-29.53
-22.25
-13.98
-5.72
1.74
8.01
12.95
16.65
19.23
20.85
21.68
21.89
21.66
21.20
20.68
20.25
20.05
20.13
20.45
20.84
21.09
20.97
20.39
19.40
18.10
16.66
15.16
13.59
11.90
9.99
7.85
5.49
2.98
0.39
-2.23
-4.85
-7.46
-10.04
-12.59
-15.09
-17.58
-20.18
-23.05
-26.30
-29.86
-33.38
-36.21
-37.57
-36.81
-33.64
-28.28
-21.34
-13.63
-5.95
1.13
7.28
12.34
16.23
18.93
20.45
20.94
20.68
20.03
19.37
19.01
19.07
19.54
20.26
21.06
21.76
22.23
22.39
22.16
21.44
20.21
18.48
16.38
14.11
11.87
9.76
7.73
5.61
3.25
0.63
-2.11
-4.75
-7.12
-9.23
-11.25
-13.41
-15.91
-18.81
-22.05
-25.47
-28.81
-31.72
-33.73
-34.31
-33.01
-29.63
-24.36
-17.72
-10.47
-3.39
2.96
8.22
12.27
15.14
16.90
17.65
17.59
16.99
16.16
15.44
15.04
15.03
15.31
15.69
15.97
16.04
15.87
15.46
14.86
14.05
13.06
11.88
10.56
9.08
7.41
5.52
3.39
1.07
-1.33
-3.72
-6.09
-8.51
-11.09
-13.87
-16.80
-19.79
-22.81
-25.89
-29.03
-32.09
-34.63
-36.02
-35.66
-33.26
-28.95
-23.28
-16.92
-10.47
-4.28
1.41
6.44
10.57
13.54
15.19
15.58
15.00
13.91
12.77
11.93
11.55
11.58
11.91
12.34
12.71
12.90
12.88
12.62
12.17
11.54
10.73
9.70
8.36
6.60
4.33
1.57
-1.61
-5.02
-8.47
-11.84
-15.18
-18.64
-22.48
-26.79
-31.39
-35.75
-39.05
-40.45
-39.41
-35.82
-30.09
-22.93
-15.11
-7.27
0.18
6.99
12.93
17.78
21.33
23.50
24.40
24.38
23.83
23.13
22.45
21.83
21.17
20.38
19.44
18.40
17.35
16.34
15.38
14.41
13.36
12.13
10.60
8.67
6.27
3.41
0.18
-3.21
-6.54
-9.65
-12.49
-15.19
-18.00
-21.19
-24.95
-29.20
-33.54
-37.28
-39.61
-39.83
-37.59
-32.99
-26.55
-19.05
-11.28
-3.88
2.76
8.45
13.14
16.85
19.62
21.52
22.64
23.13
23.18
22.97
22.64
22.32
22.05
21.86
21.75
21.72
21.77
21.82
21.79
21.57
21.06
20.17
18.87
17.16
15.07
12.67
10.06
7.34
4.62
1.89
-0.84
-3.60
-6.41
-9.30
-12.35
-15.69
-19.47
-23.76
-28.46
-33.19
-37.32
-40.12
-40.97
-39.49
-35.69
-29.95
-22.86
-15.13
-7.41
-0.21
6.13
11.39
15.44
18.24
19.83
20.40
20.23
19.72
19.25
19.11
19.41
20.06
20.89
21.68
22.29
22.67
22.82
22.70
22.21
21.23
19.66
17.53
15.04
12.42
9.89
7.52
5.28
3.06
0.79
-1.53
-3.83
-6.02
-8.09
-10.06
-11.98
-13.93
-15.96
-18.11
-20.44
-23.05
-26.01
-29.28
-32.65
-35.66
-37.69
-38.07
-36.34
-32.38
-26.48
-19.29
-11.58
-4.08
2.70
8.47
13.12
16.58
18.82
19.88
19.91
19.23
18.30
17.55
17.30
17.62
18.35
19.17
19.80
20.07
19.99
19.67
19.25
18.79
18.25
17.48
16.33
14.74
12.78
10.62
8.51
6.61
4.95
3.40
1.74
-0.25
-2.61
-5.24
-7.92
-10.40
-12.56
-14.46
-16.29
-18.32
-20.76
-23.71
-27.12
-30.76
-34.25
-37.07
-38.63
-38.39
-36.04
-31.60
-25.45
-18.22
-10.63
-3.35
3.16
8.62
12.89
15.97
17.94
18.97
19.31
19.17
18.77
18.23
17.67
17.19
16.89
16.85
17.09
17.52
17.99
18.34
18.44
18.19
17.52
16.41
14.87
12.98
10.88
8.81
6.92
5.29
3.80
2.24
0.43
-1.69
-4.08
-6.61
-9.17
-11.73
-14.31
-16.92
-19.55
-22.21
-24.97
-27.94
-31.21
-34.63
-37.77
-39.92
-40.36
-38.56
-34.44
-28.37
-21.04
-13.29
-5.82
0.83
6.37
10.68
13.80
15.81
16.85
17.13
16.87
16.34
15.79
15.45
15.41
15.69
16.19
16.77
17.29
17.62
17.70
17.49
17.02
16.33
15.47
14.48
13.38
12.15
10.74
9.09
7.12
4.82
2.17
-0.73
-3.76
-6.73
-9.51
-12.06
-14.47
-16.92
-19.67
-22.87
-26.52
-30.37
-33.91
-36.47
-37.39
-36.22
-32.85
-27.57
-20.93
-13.65
-6.37
0.45
6.48
11.53
15.47
18.24
19.82
20.34
20.04
19.25
18.35
17.65
17.36
17.50
17.93
18.38
18.59
18.37
17.69
16.64
15.40
14.11
12.86
11.66
10.47
9.22
7.82
6.19
4.29
2.07
-0.45
-3.18
-6.01
-8.78
-11.42
-13.91
-16.33
-18.84
-21.64
-24.89
-28.57
-32.44
-35.99
-38.50
-39.27
-37.82
-34.02
-28.18
-20.93
-13.06
-5.31
1.75
7.75
12.54
16.09
18.49
19.84
20.33
20.16
19.54
18.72
17.90
17.25
16.89
16.86
17.09
17.49
17.90
18.15
18.08
17.60
16.63
15.21
13.41
11.35
9.17
6.96
4.74
2.47
0.06
-2.57
-5.42
-8.42
-11.47
-14.44
-17.25
-19.94
-22.61
-25.49
-28.78
-32.53
-36.57
-40.36
-43.18
-44.22
-42.93
-39.15
-33.20
-25.71
-17.46
-9.17
-1.38
5.48
11.15
15.48
18.44
20.19
21.03
21.35
21.49
21.70
22.11
22.74
23.53
24.42
25.30
26.09
26.74
27.26
27.70
28.07
28.31
28.29
27.91
27.10
25.99
24.74
23.49
22.23
20.78
18.88
16.37
13.25
9.79
6.38
3.42
1.13
-0.52
-1.77
-3.02
-4.57
-6.59
-9.03
-11.69
-14.32
-16.81
-19.17
-21.60
-24.34
-27.59
-31.41
-35.67
-39.96
-43.64
-45.91
-46.05
-43.59
-38.55
-31.42
-23.04
-14.36
-6.16
1.07
7.13
12.01
15.73
18.36
19.95
20.59
20.50
19.96
19.28
18.70
18.35
18.25
18.34
18.50
18.66
18.74
18.70
18.54
18.23
17.74
16.97
15.80
14.14
11.99
9.46
6.72
3.96
1.31
-1.20
-3.61
-5.96
-8.30
-10.63
-13.03
-15.65
-18.69
-22.30
-26.42
-30.72
-34.56
-37.20
-37.95
-36.40
-32.56
-26.80
-19.78
-12.22
-4.79
2.02
7.90
12.68
16.23
18.50
19.50
19.39
18.51
17.33
16.30
15.75
15.74
16.11
16.53
16.73
16.54
15.99
15.19
14.28
13.31
12.28
11.17
9.93
8.52
6.86
4.85
2.41
-0.42
-3.50
-6.60
-9.47
-11.99
-14.22
-16.35
-18.68
-21.47
-24.84
-28.67
-32.53
-35.77
-37.65
-37.55
-35.22
-30.80
-24.84
-18.00
-10.91
-4.04
2.32
7.92
12.51
15.84
17.78
18.43
18.14
17.43
16.81
16.59
16.85
17.43
18.04
18.41
18.40
18.00
17.29
16.40
15.40
14.25
12.83
10.99
8.61
5.73
2.51
-0.82
-4.05
-7.08
-9.94
-12.77
-15.70
-18.88
-22.41
-26.36
-30.70
-35.16
-39.16
-41.85
-42.39
-40.18
-35.20
-28.04
-19.68
-11.12
-3.12
3.98
10.17
15.51
19.96
23.35
25.51
26.40
26.24
25.41
24.40
23.54
22.98
22.65
22.34
21.89
21.24
20.45
19.63
18.87
18.16
17.40
16.40
15.01
13.11
10.71
7.94
4.98
2.04
-0.77
-3.43
-6.06
-8.84
-11.93
-15.44
-19.40
-23.73
-28.21
-32.41
-35.72
-37.40
-36.81
-33.62
-28.01
-20.61
-12.36
-4.21
3.13
9.29
14.20
17.96
20.69
22.42
23.18
23.01
22.12
20.79
19.43
18.36
17.82
17.79
18.06
18.34
18.36
18.00
17.31
16.47
15.62
14.81
13.91
12.75
11.14
9.03
6.55
3.90
1.30
-1.14
-3.46
-5.82
-8.40
-11.31
-14.55
-18.08
-21.87
-25.88
-30.01
-33.92
-37.01
-38.50
-37.68
-34.24
-28.40
-20.89
-12.69
-4.68
2.56
8.75
13.77
17.54
20.01
21.18
21.26
20.66
19.83
19.12
18.68
18.42
18.23
18.04
17.89
17.83
17.92
18.08
18.16
17.97
17.38
16.37
14.96
13.27
11.38
9.38
7.28
5.06
2.71
0.19
-2.48
-5.24
-8.02
-10.76
-13.46
-16.20
-19.08
-22.28
-25.93
-29.97
-34.12
-37.77
-40.10
-40.34
-38.01
-33.14
-26.28
-18.27
-10.00
-2.20
4.71
10.55
15.26
18.84
21.26
22.58
22.95
22.63
21.98
21.34
20.95
20.90
21.12
21.43
21.65
21.65
21.42
21.00
20.44
19.72
18.81
17.70
16.42
15.09
13.82
12.66
11.54
10.28
8.73
6.84
4.66
2.36
0.07
-2.12
-4.24
-6.34
-8.52
-10.88
-13.60
-16.81
-20.56
-24.65
-28.51
-31.36
-32.35
-30.95
-27.14
-21.48
-14.82
-8.10
-2.00
3.10
7.08
9.99
11.86
12.73
12.66
11.77
10.34
8.74
7.34
6.47
6.24
6.55
7.11
7.56
7.64
7.27
6.58
5.77
5.04
4.48
4.06
3.74
3.45
3.14
2.68
1.85
0.43
-1.72
-4.53
-7.68
-10.75
-13.38
-15.44
-17.06
-18.57
-20.37
-22.78
-25.89
-29.54
-33.23
-36.22
-37.68
-36.96
-33.79
-28.38
-21.40
-13.75
-6.30
0.33
5.81
10.06
13.16
15.22
16.35
16.67
16.35
15.62
14.73
13.93
13.33
12.91
12.58
12.17
11.55
10.69
9.64
8.53
7.47
6.55
5.72
4.86
3.78
2.33
0.48
-1.66
-3.88
-5.96
-7.75
-9.22
-10.44
-11.53
-12.64
-13.93
-15.63
-17.92
-20.75
-23.74
-26.16
-27.08
-25.81
-22.07
-16.25
-9.15
-1.71
5.30
11.47
16.65
20.81
23.89
25.79
26.47
26.00
24.74
23.16
21.74
20.83
20.49
20.53
20.65
20.54
20.05
19.24
18.26
17.29
16.36
15.32
13.95
12.02
9.48
6.41
3.04
-0.38
-3.70
-6.88
-10.01
-13.23
-16.70
-20.58
-25.00
-29.98
-35.35
-40.62
-45.05
-47.73
-47.91
-45.21
-39.77
-32.25
-23.55
-14.60
-6.07
1.60
8.22
13.69
17.91
20.76
22.25
22.58
22.14
21.44
20.92
20.81
21.03
21.29
21.27
20.77
19.80
18.58
17.36
16.28
15.30
14.22
12.76
10.74
8.13
5.09
1.88
-1.22
-4.01
-6.46
-8.66
-10.84
-13.27
-16.20
-19.78
-23.97
-28.47
-32.65
-35.70
-36.80
-35.36
-31.30
-25.02
-17.33
-9.16
-1.39
5.39
10.83
14.81
17.40
18.73
19.03
18.56
17.65
16.61
15.75
15.29
15.29
15.66
16.15
16.47
16.38
15.81
14.87
13.76
12.67
11.68
10.69
9.53
7.97
5.93
3.44
0.70
-2.07
-4.67
-7.07
-9.37
-11.74
-14.39
-17.48
-21.08
-25.19
-29.57
-33.77
-37.10
-38.75
-38.10
-34.90
-29.42
-22.36
-14.64
-7.08
-0.27
5.47
10.01
13.29
15.30
16.08
15.83
14.88
13.66
12.59
11.90
11.59
11.46
11.22
10.67
9.77
8.67
7.57
6.61
5.75
4.85
3.70
2.17
0.24
-1.96
-4.25
-6.49
-8.57
-10.48
-12.28
-14.10
-16.15
-18.66
-21.79
-25.56
-29.66
-33.45
-36.04
-36.62
-34.66
-30.16
-23.65
-16.03
-8.21
-0.88
5.55
10.95
15.26
18.42
20.37
21.16
20.99
20.27
19.43
18.85
18.68
18.85
19.15
19.33
19.27
18.98
18.62
18.34
18.22
18.18
17.97
17.31
16.01
14.02
11.45
8.51
5.39
2.20
-1.00
-4.21
-7.47
-10.86
-14.53
-18.63
-23.14
-27.79
-31.92
-34.67
-35.22
-33.11
-28.44
-21.82
-14.15
-6.32
0.97
7.38
12.76
17.11
20.42
22.61
23.66
23.60
22.67
21.25
19.81
18.72
18.14
17.96
17.87
17.59
16.92
15.91
14.74
13.60
12.53
11.42
10.03
8.15
5.70
2.76
-0.45
-3.69
-6.78
-9.61
-12.16
-14.47
-16.67
-18.96
-21.60
-24.83
-28.67
-32.82
-36.57
-38.97
-39.14
-36.56
-31.31
-24.00
-15.57
-6.95
1.12
8.19
14.06
18.64
21.90
23.88
24.74
24.72
24.15
23.33
22.46
21.68
21.02
20.50
20.09
19.73
19.35
18.84
18.17
17.34
16.44
15.48
14.41
13.05
11.21
8.80
5.91
2.76
-0.38
-3.30
-5.94
-8.38
-10.74
-13.13
-15.66
-18.43
-21.59
-25.20
-29.17
-33.09
-36.21
-37.72
-36.91
-33.54
-27.90
-20.71
-12.88
-5.18
1.85
8.03
13.32
17.70
21.12
23.50
24.81
25.13
24.67
23.73
22.64
21.65
20.94
20.55
20.43
20.43
20.41
20.19
19.70
18.88
17.74
16.32
14.67
12.85
10.90
8.85
6.69
4.37
1.86
-0.85
-3.69
-6.53
-9.21
-11.61
-13.73
-15.72
-17.87
-20.48
-23.75
-27.57
-31.51
-34.81
-36.62
-36.30
-33.57
-28.69
-22.25
-15.06
-7.81
-1.02
5.05
10.22
14.41
17.48
19.34
20.02
19.65
18.58
17.22
15.95
15.09
14.73
14.80
15.12
15.46
15.64
15.57
15.26
14.71
13.95
12.92
11.57
9.85
7.75
5.34
2.71
0.04
-2.51
-4.82
-6.84
-8.67
-10.48
-12.53
-15.02
-18.09
-21.74
-25.79
-29.91
-33.64
-36.40
-37.63
-36.90
-34.03
-29.16
-22.74
-15.41
-7.81
-0.49
