1650264663.00
64.000000
-0.00
-0.00
-0.00
-0.00
-0.00
-0.00
-0.00
-0.00
-0.00
-0.00
0.00
0.01
0.01
-0.00
-0.03
-0.05
-0.05
0.00
0.13
0.36
0.66
1.01
1.37
1.72
2.06
2.40
2.79
3.24
3.80
4.42
5.06
5.66
6.20
6.68
7.15
7.68
8.31
9.14
10.09
11.04
11.88
12.56
13.14
13.76
14.65
15.96
17.91
20.32
22.90
25.38
27.58
29.57
31.68
34.32
37.81
42.54
48.15
54.10
59.83
64.97
69.58
74.14
79.34
85.71
93.76
103.00
112.62
121.73
129.77
136.75
143.30
150.75
157.77
166.64
177.95
191.79
206.97
220.57
228.25
225.36
208.53
176.86
132.76
80.06
23.10
-34.90
-92.41
-149.17
-205.33
-260.58
-314.07
-364.30
-410.32
-451.41
-487.00
-516.24
-537.76
-549.83
-550.67
-539.19
-515.11
-479.61
-434.79
-383.33
-327.90
-270.81
-213.80
-158.10
-104.67
-54.29
-7.88
33.66
69.59
99.49
123.38
141.72
155.28
164.95
171.56
175.67
177.52
177.17
174.59
169.83
163.21
155.26
146.67
138.10
129.96
122.33
114.91
107.25
98.93
89.82
80.21
70.66
61.79
54.03
47.45
41.73
36.36
30.79
24.53
17.20
8.71
-0.42
-8.85
-14.47
-15.08
-9.33
2.44
18.02
34.08
47.38
55.96
59.63
59.56
57.38
54.28
50.70
46.57
41.80
36.71
31.96
28.23
25.85
24.62
23.88
22.81
20.84
17.89
14.36
10.93
8.14
6.19
4.99
4.41
4.47
5.30
6.91
8.92
10.52
10.85
9.46
6.59
3.09
-0.07
-2.28
-3.53
-4.25
-4.89
-5.59
-6.17
-6.36
-6.07
-5.55
-5.15
-5.07
-5.25
-5.40
-5.12
-4.21
-2.76
-1.11
0.32
1.24
1.57
1.48
1.26
1.15
1.24
1.43
1.56
1.47
1.12
0.63
0.17
-0.05
0.09
0.60
1.36
2.21
3.04
3.79
4.49
5.19
5.90
6.59
7.18
7.62
7.92
8.11
8.24
8.27
8.07
7.49
6.41
4.83
2.87
0.61
-1.82
-4.30
-6.68
-8.81
-10.50
-11.58
-11.96
-11.68
-10.87
-9.80
-8.71
-7.84
-7.31
-7.13
-7.19
-7.35
-7.52
-7.69
-7.86
-8.09
-8.35
-8.57
-8.63
-8.44
-7.98
-7.33
-6.59
-5.88
-5.26
-4.81
-4.54
-4.49
-4.63
-4.91
-5.30
-5.74
-6.23
-6.78
-7.40
-8.11
-8.81
-9.41
-9.84
-10.14
-10.44
-10.84
-11.41
-12.17
-13.05
-13.91
-14.58
-14.89
-14.65
-13.72
-11.89
-9.12
-5.51
-1.34
3.06
7.40
11.56
15.68
19.29
22.25
24.56
26.22
27.23
27.65
27.55
27.05
26.24
25.12
23.70
21.89
19.62
16.90
13.87
10.77
7.79
5.05
2.47
0.01
-2.38
-4.68
-6.79
-8.57
-9.89
-10.68
-10.93
-10.71
-10.11
-9.33
-8.59
-8.09
-7.93
-8.07
-8.33
-8.49
-8.31
-7.60
-6.27
-4.31
-1.84
0.94
3.79
6.45
8.75
10.59
12.02
13.09
13.84
14.22
14.15
13.54
12.41
10.88
9.19
7.63
6.41
5.64
5.28
5.25
5.41
5.67
5.94
6.15
6.19
5.98
5.49
4.73
3.79
2.78
1.78
0.86
0.03
-0.70
-1.36
-2.01
-2.74
-3.70
-5.05
-6.89
-9.24
-11.93
-14.67
-17.05
-18.67
-19.23
-18.66
-17.09
-14.83
-12.26
-9.70
-7.36
-5.35
-3.68
-2.37
-1.40
-0.77
-0.43
-0.32
-0.36
-0.48
-0.59
-0.64
-0.63
-0.57
-0.53
-0.62
-0.89
-1.36
-2.00
-2.72
-3.47
-4.26
-5.12
-6.10
-7.17
-8.28
-9.33
-10.26
-11.07
-11.81
-12.55
-13.36
-14.22
-15.12
-16.05
-17.04
-18.11
-19.23
-20.25
-20.91
-20.90
-20.00
-18.18
-15.62
-12.61
-9.43
-6.29
-3.29
-0.51
1.99
4.12
5.80
7.04
7.93
8.64
9.29
9.96
10.66
11.33
11.93
12.45
12.91
13.36
13.87
14.47
15.16
15.92
16.64
17.18
17.41
17.28
16.82
16.20
15.56
15.03
14.58
14.08
13.30
12.04
10.20
7.74
4.78
1.56
-1.65
-4.49
-6.65
-7.91
-8.18
-7.56
-6.28
-4.70
-3.20
-2.08
-1.53
-1.56
-2.06
-2.83
-3.70
-4.54
-5.33
-6.05
-6.70
-7.18
-7.39
-7.22
-6.71
-5.98
-5.20
-4.49
-3.82
-3.10
-2.25
-1.30
-0.45
0.05
-0.02
-0.65
-1.70
-2.88
-3.98
-4.92
-5.77
-6.65
-7.65
-8.78
-10.05
-11.41
-12.80
-14.08
-14.98
-15.21
-14.50
-12.76
-10.15
-6.98
-3.60
-0.24
3.03
6.25
9.47
12.71
15.91
18.98
21.78
24.20
26.08
27.27
27.69
27.37
26.47
25.24
23.94
22.74
21.71
20.86
20.14
19.50
18.87
18.17
17.35
16.38
15.32
14.27
13.36
12.57
11.82
10.85
9.43
7.37
4.63
1.34
-2.29
-5.98
-9.51
-12.64
-15.21
-17.05
-18.06
-18.17
-17.44
-16.02
-14.15
-12.08
-10.04
-8.17
-6.54
-5.18
-4.07
-3.19
-2.52
-1.98
-1.51
-1.02
-0.47
0.12
0.71
1.23
1.65
1.99
2.27
2.48
2.54
2.34
1.75
0.73
-0.67
-2.29
-3.94
-5.44
-6.66
-7.55
-8.15
-8.56
-8.97
-9.60
-10.64
-12.18
-14.14
-16.30
-18.26
-19.58
-19.85
-18.86
-16.61
-13.31
-9.36
-5.22
-1.27
2.24
5.20
7.59
9.42
10.67
11.33
11.42
11.06
10.50
10.05
9.96
10.34
11.09
11.94
12.61
12.90
12.79
12.41
11.95
11.53
11.15
10.69
10.05
9.16
8.08
6.91
5.72
4.53
3.28
1.88
0.30
-1.48
-3.40
-5.46
-7.66
-10.00
-12.42
-14.70
-16.46
-17.36
-17.12
-15.73
-13.40
-10.49
-7.41
-4.44
-1.78
0.53
2.48
4.09
5.38
6.35
7.01
7.33
7.29
6.89
6.19
5.29
4.36
3.53
2.95
2.63
2.55
2.59
2.60
2.43
1.95
1.11
-0.07
-1.48
-2.97
-4.37
-5.51
-6.33
-6.83
-7.15
-7.47
-8.00
-8.88
-10.13
-11.66
-13.27
-14.74
-15.82
-16.24
-15.80
-14.39
-12.04
-8.99
-5.58
-2.21
0.83
3.43
5.60
7.43
8.94
10.07
10.72
10.82
10.41
9.66
8.87
8.29
8.12
8.36
8.89
9.50
9.99
10.24
10.24
10.07
9.83
9.51
9.08
8.46
7.57
6.47
5.24
4.00
2.80
1.58
0.24
-1.37
-3.32
-5.64
-8.25
-11.01
-13.66
-15.86
-17.28
-17.62
-16.79
-14.94
-12.37
-9.46
-6.53
-3.71
-1.04
1.50
3.85
5.85
7.32
8.17
8.43
8.28
7.96
7.65
7.46
7.38
7.32
7.22
7.01
6.68
6.29
5.90
5.59
5.35
5.10
4.66
3.87
2.67
1.18
-0.33
-1.57
-2.37
-2.76
-2.94
-3.22
-3.87
-5.00
-6.59
-8.49
-10.49
-12.29
-13.58
-14.10
-13.64
-12.16
-9.84
-7.00
-4.00
-1.18
1.25
3.25
4.87
6.22
7.33
8.22
8.84
9.13
9.10
8.81
8.37
7.91
7.58
7.48
7.63
7.96
8.31
8.49
8.42
8.13
7.73
7.35
7.00
6.59
5.94
4.91
3.53
1.92
0.31
-1.17
-2.48
-3.68
-4.90
-6.23
-7.76
-9.54
-11.57
-13.77
-15.94
-17.74
-18.83
-18.95
-18.02
-16.19
-13.72
-10.91
-8.02
-5.20
-2.60
-0.30
1.57
2.96
3.86
4.34
4.51
4.54
4.53
4.57
4.72
5.03
5.51
6.14
6.86
7.55
8.14
8.56
8.82
8.97
9.05
9.08
9.01
8.76
8.28
7.58
6.72
5.83
4.96
4.12
3.23
2.23
1.03
-0.40
-2.10
-4.09
-6.35
-8.80
-11.23
-13.36
-14.83
-15.38
-14.88
-13.41
-11.23
-8.71
-6.24
-4.11
-2.42
-1.17
-0.18
0.70
1.54
2.29
2.84
3.04
2.86
2.40
1.81
1.29
0.94
0.76
0.69
0.68
0.67
0.65
0.61
0.53
0.42
0.26
0.02
-0.33
-0.83
-1.52
-2.38
-3.37
-4.38
-5.29
-6.01
-6.56
-7.03
-7.60
-8.39
-9.45
-10.75
-12.17
-13.57
-14.77
-15.59
-15.80
-15.17
-13.59
-11.15
-8.09
-4.84
-1.80
0.74
2.69
4.13
5.20
5.99
6.54
6.80
6.78
6.54
6.17
5.83
5.62
5.60
5.74
5.95
6.12
6.18
6.11
5.97
5.81
5.71
5.62
5.45
5.07
4.39
3.42
2.28
1.11
0.08
-0.75
-1.42
-2.05
-2.77
-3.74
-5.04
-6.70
-8.66
-10.75
-12.69
-14.13
-14.74
-14.31
-12.86
-10.63
-7.97
-5.25
-2.77
-0.62
1.17
2.66
3.89
4.84
5.44
5.64
5.43
4.93
4.31
3.77
3.45
3.38
3.49
3.66
3.84
4.01
4.21
4.52
4.92
5.36
5.71
5.86
5.75
5.42
4.93
4.34
3.70
3.00
2.22
1.34
0.30
-0.97
-2.58
-4.63
-7.12
-9.87
-12.52
-14.63
-15.85
-16.07
-15.44
-14.29
-12.96
-11.66
-10.44
-9.29
-8.25
-7.44
-7.02
-7.08
-7.54
-8.22
-8.84
-9.20
-9.27
-9.10
-8.80
-8.41
-7.91
-7.19
-6.10
-4.56
-2.52
0.03
3.07
6.54
10.34
14.34
18.39
22.32
26.02
29.39
32.37
34.89
36.80
37.91
38.03
37.02
34.90
31.88
28.33
24.70
21.38
18.61
16.44
14.77
13.41
12.22
11.10
10.14
9.47
9.24
9.47
9.97
10.36
10.24
9.37
7.78
5.75
3.65
1.77
0.21
-1.10
-2.29
-3.42
-4.40
-5.07
-5.30
-5.01
-4.30
-3.35
-2.36
-1.52
-0.99
-0.84
-1.12
-1.82
-2.95
-4.54
-6.62
-9.23
-12.40
-16.12
-20.32
-24.76
-29.10
-32.85
-35.52
-36.68
-35.97
-33.28
-28.74
-22.81
-16.21
-9.80
-4.33
-0.24
2.44
3.98
4.74
4.98
4.74
4.01
2.89
1.70
0.92
0.93
1.79
3.17
4.57
5.47
5.64
5.14
4.25
3.32
2.58
2.12
1.79
1.34
0.45
-1.15
-3.56
-6.63
-10.03
-13.31
-16.11
-18.22
-19.68
-20.65
-21.27
-21.52
-21.24
-20.17
-18.12
-15.07
-11.26
-7.13
-3.13
0.35
3.15
5.37
7.23
8.98
10.69
12.24
13.46
14.18
14.46
14.53
14.71
15.23
16.08
17.04
17.81
18.25
18.43
18.63
19.09
19.89
20.82
21.47
21.48
20.67
19.13
17.09
14.77
12.22
9.39
6.23
2.76
-0.82
-4.28
-7.51
-10.59
-13.72
-17.03
-20.46
-23.64
-26.11
-27.52
-27.82
-27.26
-26.26
-25.19
-24.14
-22.97
-21.43
-19.33
-16.67
-13.63
-10.47
-7.36
-4.33
-1.24
2.00
5.42
8.83
11.93
14.40
16.03
16.81
16.89
16.48
15.76
14.81
13.62
12.13
10.34
8.27
6.06
3.92
2.05
0.60
-0.34
-0.83
-0.98
-0.95
-0.91
-0.98
-1.25
-1.73
-2.33
-2.82
-2.86
-2.13
-0.39
2.31
5.70
9.28
12.60
15.33
17.41
18.94
20.07
20.86
21.28
21.19
20.48
19.12
17.23
15.01
12.71
10.52
8.55
6.82
5.25
3.78
2.35
1.02
-0.17
-1.14
-1.90
-2.54
-3.21
-4.01
-4.98
-6.04
-7.08
-8.02
-8.93
-9.99
-11.42
-13.41
-16.00
-19.05
-22.25
-25.20
-27.45
-28.62
-28.53
-27.28
-25.19
-22.77
-20.54
-18.86
-17.82
-17.26
-16.90
-16.44
-15.78
-14.94
-14.07
-13.28
-12.55
-11.72
-10.57
-8.95
-6.84
-4.34
-1.55
1.46
4.69
8.11
11.59
14.83
17.53
19.45
20.53
20.94
20.91
20.64
20.21
19.57
18.61
17.26
15.50
13.37
10.91
8.15
5.13
1.92
-1.32
-4.30
-6.68
-8.16
-8.62
-8.17
-7.18
-6.15
-5.55
-5.65
-6.44
-7.73
-9.30
-10.98
-12.82
-14.94
-17.51
-20.62
-24.21
-28.13
-32.17
-36.13
-39.85
-43.29
-46.47
-49.53
-52.59
-55.79
-59.19
-62.79
-66.48
-70.13
-73.56
-76.62
-79.14
-81.01
-82.20
-82.78
-82.92
-82.91
-82.93
-82.90
-82.30
-80.15
-75.39
-67.31
-55.95
-41.98
-26.39
-9.94
7.05
24.49
42.15
59.44
75.50
89.58
101.41
111.28
119.72
127.09
133.45
138.57
142.20
144.14
144.20
142.16
137.76
131.05
122.59
113.46
104.85
97.55
91.64
86.56
81.51
75.91
69.61
62.80
55.71
48.41
40.77
32.57
23.74
14.43
5.05
-3.84
-11.67
-18.02
-22.73
-25.89
-27.75
-28.61
-28.71
-28.20
-27.22
-25.89
-24.39
-22.92
-21.62
-20.54
-19.66
-18.87
-18.07
-17.21
-16.26
-15.28
-14.25
-13.19
-12.00
-10.55
-8.76
-6.58
-4.11
-1.60
0.64
2.32
3.33
3.74
3.79
3.72
3.72
3.86
4.13
4.56
5.18
5.98
6.84
7.52
7.68
7.03
5.50
3.29
0.77
-1.60
-3.49
-4.76
-5.43
-5.65
-5.58
-5.35
-5.02
-4.63
-4.19
-3.78
-3.48
-3.40
-3.62
-4.10
-4.76
-5.43
-5.96
-6.27
-6.34
-6.22
-5.99
-5.72
-5.49
-5.38
-5.39
-5.45
-5.44
-5.21
-4.62
-3.66
-2.48
-1.30
-0.41
-0.04
-0.37
-1.51
-3.44
-6.01
-8.99
-12.11
-15.09
-17.72
-19.88
-21.53
-22.68
-23.30
-23.40
-23.06
-22.46
-21.83
-21.30
-20.87
-20.45
-19.93
-19.20
-18.15
-16.89
-15.58
-14.37
-13.15
-11.70
-9.75
-7.09
-3.62
0.86
6.21
12.01
17.86
23.64
29.35
35.02
40.62
46.00
51.32
56.31
60.60
64.23
68.00
72.87
79.44
87.44
95.63
102.60
106.32
104.84
97.09
83.39
64.81
42.76
18.62
-9.28
-38.38
-64.03
-82.75
-94.19
-99.96
-102.22
-102.47
-101.47
-99.56
-96.34
-91.95
-86.94
-82.95
-79.57
-76.34
-73.00
-69.49
-65.85
-61.73
-57.18
-52.64
-48.68
-45.38
-42.79
-40.76
-38.70
-36.23
-32.86
-28.53
-23.63
-18.73
-14.13
-10.03
-6.45
-3.21
-0.13
3.07
6.40
9.52
11.99
13.59
14.25
14.22
13.96
13.98
14.70
16.21
18.24
20.37
22.18
23.43
24.04
24.06
23.54
22.45
20.71
18.22
14.97
11.08
6.81
2.47
-1.65
-5.38
-8.70
-11.71
-14.60
-17.56
-20.65
-23.87
-27.08
-30.13
-32.92
-35.38
-37.52
-39.36
-40.87
-41.97
-42.47
-42.16
-40.83
-38.39
-34.90
-30.56
-25.70
-20.69
-15.77
-10.99
-6.12
-0.82
5.24
12.24
20.05
28.31
36.55
44.34
51.34
57.35
62.22
65.80
67.96
68.66
68.02
66.32
63.98
61.35
58.69
56.08
53.50
50.87
48.20
45.53
42.92
40.43
38.08
35.85
33.68
31.56
29.45
27.34
25.22
23.04
20.81
18.55
16.39
14.47
12.95
11.86
11.05
10.22
8.96
6.95
4.09
0.59
-3.08
-6.35
-8.74
-10.01
-10.24
-9.69
-8.72
-7.62
-6.57
-5.64
-4.78
-3.95
-3.12
-2.31
-1.59
-1.02
-0.66
-0.47
-0.35
-0.15
0.19
0.63
1.06
1.33
1.36
1.16
0.84
0.49
0.18
-0.13
-0.48
-0.92
-1.48
-2.18
-2.97
-3.79
-4.55
-5.18
-5.68
-6.16
-6.74
-7.58
-8.73
-10.20
-11.90
-13.72
-15.48
-16.94
-17.80
-17.78
-16.71
-14.67
-11.95
-8.97
-6.09
-3.51
-1.21
0.87
2.81
4.54
5.92
6.82
7.19
7.16
6.93
6.72
6.67
6.82
7.09
7.36
7.51
7.46
7.23
6.88
6.48
6.07
5.59
4.90
3.84
2.38
0.63
-1.14
-2.67
-3.77
-4.50
-5.08
-5.77
-6.73
-7.94
-9.23
-10.40
-11.33
-11.94
-12.19
-11.93
-10.91
-8.82
-5.44
-0.74
5.01
11.39
17.85
23.92
29.25
33.60
36.83
38.84
39.57
39.06
37.47
35.08
32.27
29.40
26.76
24.51
22.68
21.28
20.27
19.60
19.19
18.92
18.63
18.17
17.44
16.38
14.95
13.13
10.88
8.17
5.02
1.54
-2.15
-5.94
-9.80
-13.83
-18.19
-22.95
-27.97
-32.89
-37.21
-40.42
-42.24
-42.70
-42.11
-40.88
-39.38
-37.81
-36.19
-34.43
-32.46
-30.24
-27.86
-25.48
-23.27
-21.39
-19.93
-18.84
-17.94
-17.01
-15.84
-14.35
-12.59
-10.68
-8.74
-6.83
-4.98
-3.20
-1.58
-0.29
0.48
0.62
0.19
-0.66
-1.72
-2.80
-3.85
-4.91
-6.04
-7.29
-8.62
-10.01
-11.41
-12.78
-14.06
-15.11
-15.65
-15.39
-14.09
-11.68
-8.31
-4.30
-0.04
4.15
8.03
11.54
14.68
17.47
19.89
21.84
23.22
23.97
24.11
23.83
23.34
22.83
22.40
22.00
21.51
20.78
19.74
18.40
16.86
15.18
13.41
11.57
9.64
7.62
5.53
3.44
1.46
-0.25
-1.60
-2.52
-3.09
-3.48
-3.97
-4.82
-6.23
-8.24
-10.66
-13.11
-15.10
-16.15
-15.97
-14.52
-12.07
-9.10
-6.13
-3.54
-1.53
-0.16
0.62
0.78
0.25
-1.06
-3.19
-6.02
-9.28
-12.68
-15.98
-19.13
-22.16
-25.17
-28.12
-30.83
-32.94
-34.09
-33.98
-32.50
-29.78
-26.06
-21.70
-17.03
-12.37
-8.00
-4.15
-0.99
1.42
3.17
4.42
5.33
6.01
6.40
6.30
5.46
3.72
1.11
-2.11
-5.50
-8.60
-11.04
-12.64
-13.36
-13.33
-12.74
-11.82
-10.84
-10.01
-9.45
-9.13
-8.87
-8.39
-7.40
-5.77
-3.50
-0.81
1.97
4.50
6.56
8.10
9.24
10.23
11.32
12.67
14.28
16.04
17.74
19.17
20.18
20.68
20.71
20.35
19.79
19.18
18.62
18.07
17.45
16.59
15.34
13.58
11.22
8.26
4.86
1.31
-1.94
-4.38
-5.67
-5.71
-4.73
-3.16
-1.45
0.05
1.17
1.89
2.23
2.21
1.87
1.33
0.74
0.25
-0.07
-0.25
-0.39
-0.58
-0.82
-1.03
-1.15
-1.16
-1.15
-1.20
-1.40
-1.71
-2.07
-2.42
-2.78
-3.24
-3.87
-4.66
-5.53
-6.37
-7.13
-7.90
-8.86
-10.21
-12.08
-14.42
-17.04
-19.60
-21.70
-22.99
-23.21
-22.23
-20.13
-17.16
-13.71
-10.21
-7.04
-4.42
-2.37
-0.76
0.59
1.84
3.03
4.19
5.30
6.40
7.51
8.65
9.77
10.75
11.53
12.08
12.40
12.52
12.35
11.76
10.58
8.74
6.35
3.64
0.90
-1.66
-4.02
-6.24
-8.43
-10.65
-12.89
-15.06
-17.09
-18.93
-20.52
-21.74
-22.35
-22.04
-20.52
-17.72
-13.81
-9.21
-4.43
0.07
3.96
7.10
9.49
11.19
12.30
12.93
13.22
13.29
13.24
13.13
12.98
12.78
12.55
12.28
12.00
11.65
11.16
10.43
9.37
8.01
6.46
4.90
3.48
2.25
1.15
0.03
-1.24
-2.73
-4.41
-6.22
-8.10
-9.95
-11.63
-12.92
-13.54
-13.21
-11.82
-9.48
-6.52
-3.42
-0.59
1.71
3.48
4.86
6.04
7.11
8.07
8.77
9.14
9.18
9.07
9.04
9.33
10.03
11.11
12.37
13.56
14.48
15.02
15.18
15.03
14.70
14.32
14.00
13.80
13.68
13.55
13.26
12.70
11.85
10.78
9.65
8.63
7.86
7.43
7.43
7.90
8.85
10.21
11.85
13.59
15.24
16.66
17.77
18.43
18.44
17.57
15.62
12.58
8.64
4.22
-0.25
-4.44
-8.20
-11.55
-14.55
-17.20
-19.39
-20.95
-21.80
-21.99
-21.79
-21.56
-21.62
-22.12
-23.01
-24.06
-25.06
-25.87
-26.51
-27.16
-28.02
-29.24
-30.83
-32.61
-34.23
-35.28
-35.33
-34.11
-31.55
-27.85
-23.40
-18.70
-14.19
-10.15
-6.70
-3.74
-1.09
1.50
4.28
7.47
11.26
15.70
20.78
26.35
32.25
38.29
44.29
50.10
55.55
60.42
64.44
67.33
68.88
69.02
67.86
65.67
62.79
59.54
56.11
52.58
48.86
44.80
40.29
35.27
29.71
23.61
16.98
9.86
2.35
-5.35
-12.91
-20.00
-26.35
-31.82
-36.37
-40.04
-42.80
-44.61
-45.40
-45.20
-44.14
-42.47
-40.41
-38.14
-35.68
-33.00
-30.03
-26.78
-23.38
-20.00
-16.83
-13.99
-11.51
-9.40
-7.62
-6.21
-5.20
-4.70
-4.76
-5.36
-6.39
-7.69
-9.06
-10.35
-11.47
-12.40
-13.23
-14.07
-15.07
-16.27
-17.60
-18.85
-19.66
-19.64
-18.50
-16.14
-12.74
-8.75
-4.64
-0.81
2.56
5.49
8.12
10.53
12.69
14.48
15.78
16.57
16.96
17.12
17.14
17.05
16.77
16.21
15.34
14.23
13.03
11.90
10.96
10.24
9.73
9.35
9.03
8.69
8.28
7.78
7.16
6.41
5.49
4.43
3.25
1.99
0.61
-0.98
-2.89
-5.15
-7.61
-9.96
-11.77
-12.72
-12.66
-11.73
-10.23
-8.49
-6.74
-5.08
-3.52
-2.08
-0.81
0.18
0.79
1.02
0.95
0.74
0.56
0.55
0.75
1.12
1.54
1.89
2.10
2.22
2.39
2.73
3.29
3.96
4.53
4.73
4.40
3.50
2.16
0.58
-1.05
-2.65
-4.20
-5.73
-7.26
-8.78
-10.27
-11.70
-13.09
-14.39
-15.50
-16.23
-16.29
-15.43
-13.52
-10.60
-6.89
-2.73
1.53
5.61
9.28
12.42
14.95
16.87
18.23
19.21
19.99
20.72
21.45
22.12
22.63
22.88
22.83
22.49
21.89
21.02
19.84
18.34
16.56
14.59
12.55
10.48
8.35
6.05
3.49
0.68
-2.34
-5.47
-8.67
-11.99
-15.52
-19.33
-23.40
-27.62
-31.70
-35.34
-38.23
-40.14
-41.00
-40.89
-40.02
-38.69
-37.15
-35.57
-34.01
-32.44
-30.77
-28.89
-26.69
-24.14
-21.26
-18.13
-14.92
-11.84
-9.03
-6.59
-4.56
-2.96
-1.78
-1.09
-0.88
-1.14
-1.75
-2.46
-2.98
-3.00
-2.33
-0.97
0.95
3.19
5.51
7.80
10.03
12.23
14.34
16.24
17.67
18.36
18.15
17.00
15.08
12.72
10.27
8.03
6.17
4.74
3.71
3.00
2.53
2.26
2.12
2.05
1.96
1.75
1.34
0.68
-0.21
-1.23
-2.25
-3.11
-3.70
-4.01
-4.13
-4.23
-4.47
-4.85
-5.25
-5.45
-5.27
-4.70
-3.91
-3.18
-2.74
-2.69
-2.94
-3.31
-3.61
-3.78
-3.88
-4.02
-4.29
-4.74
-5.33
-6.02
-6.75
-7.44
-7.99
-8.21
-7.92
-6.92
-5.18
-2.83
-0.15
2.51
4.87
6.86
8.54
10.08
11.62
13.17
14.64
15.92
16.93
17.73
18.45
19.22
20.08
21.01
21.91
22.69
23.28
23.67
23.80
23.62
23.06
22.10
20.83
19.39
17.94
16.58
15.34
14.17
12.99
11.74
10.41
8.93
7.23
5.21
2.81
0.13
-2.55
-4.82
-6.21
-6.43
-5.44
-3.45
-0.85
1.93
4.57
6.90
8.87
10.51
11.83
12.82
13.45
13.72
13.64
13.33
12.88
12.40
11.96
11.52
11.03
10.41
9.66
8.88
8.19
7.67
7.24
6.70
5.79
4.35
2.42
0.18
-2.10
-4.27
-6.28
-8.23
-10.20
-12.24
-14.32
-16.36
-18.37
-20.32
-22.13
-23.63
-24.49
-24.45
-23.37
-21.37
-18.76
-15.93
-13.20
-10.71
-8.44
-6.36
-4.45
-2.80
-1.50
-0.63
-0.19
-0.11
-0.25
-0.52
-0.84
-1.23
-1.76
-2.52
-3.54
-4.79
-6.14
-7.40
-8.37
-8.95
-9.12
-8.94
-8.55
-8.06
-7.60
-7.32
-7.37
-7.88
-8.95
-10.57
-12.65
-15.07
-17.65
-20.19
-22.45
-24.14
-24.96
-24.67
-23.20
-20.62
-17.17
-13.17
-8.92
-4.67
-0.54
3.42
7.23
10.88
14.33
17.51
20.30
22.61
24.37
25.61
26.46
27.13
27.79
28.52
29.13
29.23
28.37
26.21
22.74
18.30
13.48
8.85
4.75
1.22
-1.93
-4.92
-7.84
-10.61
-13.06
-15.06
-16.65
-17.99
-19.31
-20.77
-22.38
-23.92
-25.08
-25.50
-24.94
-23.32
-20.72
-17.34
-13.42
-9.17
-4.79
-0.46
3.69
7.54
11.03
14.16
16.92
19.28
21.18
22.52
23.29
23.52
23.29
22.68
21.65
20.11
17.93
15.08
11.69
8.02
4.42
1.19
-1.48
-3.56
-5.17
-6.48
-7.67
-8.81
-9.89
-10.76
-11.25
-11.20
-10.62
-9.64
-8.53
-7.57
-6.95
-6.65
-6.51
-6.31
-5.86
-5.08
-3.98
-2.57
-0.84
1.26
3.74
6.51
9.36
11.98
14.10
15.56
16.33
16.50
16.16
15.40
14.31
12.98
11.58
10.29
9.28
8.65
8.35
8.24
8.07
7.64
6.85
5.71
4.30
2.76
1.15
-0.51
-2.23
-4.02
-5.84
-7.61
-9.24
-10.73
-12.11
-13.54
-15.21
-17.26
-19.65
-22.17
-24.37
-25.74
-25.86
-24.57
-22.00
-18.55
-14.69
-10.81
-7.11
-3.65
-0.42
2.58
5.32
7.76
9.88
11.74
13.38
14.82
16.05
17.02
17.74
18.25
18.65
19.00
19.35
19.65
19.81
19.71
19.25
18.35
16.99
15.21
13.12
10.89
8.74
6.83
5.23
3.84
2.44
0.81
-1.22
-3.67
-6.39
-9.15
-11.58
-13.32
-14.02
-13.44
-11.53
-8.51
-4.83
-1.01
2.49
5.44
7.85
9.88
11.66
13.22
14.46
15.24
15.52
15.36
14.96
14.54
14.22
14.01
13.80
13.48
13.00
12.41
11.83
11.32
10.91
10.45
9.74
8.58
6.88
4.74
2.42
0.24
-1.56
-2.91
-3.94
-4.93
-6.16
-7.80
-9.87
-12.21
-14.56
-16.56
-17.85
-18.15
-17.30
-15.37
-12.64
-9.49
-6.30
-3.29
-0.52
2.08
4.55
6.84
8.77
10.16
10.87
10.91
10.38
9.47
8.36
7.21
6.19
5.38
4.83
4.50
4.33
4.24
4.21
4.26
4.46
4.80
5.20
5.49
5.51
5.21
4.64
4.04
3.64
3.57
3.73
3.82
3.49
2.47
0.71
-1.61
-4.10
-6.31
-7.83
-8.35
-7.74
-5.99
-3.17
0.52
4.83
9.45
14.16
18.80
23.26
27.32
30.80
33.56
35.45
36.27
35.84
34.05
30.95
26.88
22.20
17.51
13.44
10.17
7.19
3.50
-1.96
-9.69
-19.42
-30.55
-41.95
-52.47
-61.42
-68.79
-75.09
-80.83
-86.22
-91.05
-95.26
-98.24
-99.15
-97.14
-91.79
-83.07
-71.26
-56.91
-38.80
-18.53
0.42
14.77
23.50
27.86
29.97
31.50
33.03
34.85
35.65
34.49
31.35
26.96
22.26
18.03
14.68
12.39
10.77
9.51
8.82
9.23
11.14
14.35
18.07
21.37
23.68
25.09
26.08
27.50
30.03
33.81
38.36
42.85
46.64
49.50
51.59
53.12
54.32
55.26
55.90
56.19
56.17
56.06
56.13
56.60
57.47
58.66
60.00
61.31
62.34
62.83
62.56
61.49
59.80
57.85
55.99
54.24
52.27
49.33
44.69
37.87
28.90
18.28
6.72
-5.14
-16.93
-28.55
-39.99
-51.17
-61.88
-71.80
-80.72
-88.56
-95.43
-101.53
-107.01
-111.89
-116.06
-119.34
-121.59
-122.79
-123.03
-122.52
-121.44
-119.89
-117.81
-115.01
-111.28
-106.47
-100.54
-93.58
-85.70
-77.09
-68.06
-59.06
-50.84
-44.24
-39.91
-38.00
-37.89
-38.25
-37.45
-33.97
-26.81
-15.76
-1.57
14.36
30.38
45.05
57.59
67.85
76.24
83.36
89.57
94.48
97.20
96.83
92.90
85.76
76.11
64.88
53.07
41.37
29.88
18.62
7.98
-1.16
-7.39
-10.13
-9.50
-6.21
-1.35
3.48
7.13
9.38
10.84
12.85
15.50
18.18
20.07
20.26
17.47
10.84
0.34
-13.24
-28.06
-43.44
-59.14
-74.87
-85.18
-85.69
-75.70
-58.87
-44.89
-34.73
-27.64
-22.95
-18.55
-13.97
-9.97
-7.42
-6.57
-6.82
-6.31
-4.42
-1.10
3.44
8.59
13.30
16.79
18.96
20.40
22.42
25.25
28.59
32.11
35.42
37.98
39.41
39.53
38.45
36.80
34.80
32.64
30.66
29.02
27.58
25.97
23.80
20.81
17.12
12.76
7.86
2.76
-2.12
-6.29
-9.35
-10.99
-11.16
-10.00
-7.95
-5.54
-3.21
-1.25
0.24
1.28
2.00
2.54
3.05
3.61
4.23
4.85
5.34
5.59
5.55
5.26
4.84
4.41
4.02
3.70
3.42
3.16
2.93
2.81
2.82
2.88
2.81
2.46
1.70
0.57
-0.82
-2.32
-3.75
-4.98
-5.99
-6.88
-7.85
-9.09
-10.72
-12.69
-14.82
-16.62
-17.59
-17.45
-16.21
-14.21
-11.88
-9.67
-7.95
-6.98
-6.44
-5.90
-5.10
-4.06
-3.12
-2.70
-3.31
-5.37
-9.21
-13.96
-18.44
-21.69
-23.40
-23.77
-23.22
-22.21
-21.13
-20.40
-18.84
-15.18
-8.94
-0.73
8.35
17.42
26.12
34.68
43.16
53.49
67.16
84.29
103.54
123.13
141.89
159.50
176.28
182.65
172.42
146.00
111.19
77.34
49.97
30.06
15.99
8.02
3.23
1.58
3.57
8.79
15.40
21.10
24.41
23.32
17.92
8.76
-1.62
-10.85
-17.63
-21.93
-24.40
-25.64
-26.03
-25.68
-25.24
-24.51
-23.61
-23.11
-23.91
-26.57
-30.77
-35.46
-39.24
-41.38
-41.29
-39.11
-35.52
-31.50
-27.88
-25.07
-23.08
-21.50
-19.90
-17.69
-14.51
-10.45
-6.01
-1.90
1.24
3.00
3.27
2.07
-0.39
-3.73
-7.45
-11.02
-13.98
-16.13
-17.51
-18.38
-19.03
-19.68
-20.40
-21.12
-21.70
-22.03
-22.06
-21.81
-21.36
-20.82
-20.37
-20.16
-20.28
-20.70
-21.25
-21.71
-21.78
-21.27
-20.15
-18.63
-17.14
-16.23
-16.28
-17.35
-19.01
-20.60
-21.53
-21.67
-21.40
-21.40
-22.18
-23.76
-25.66
-27.23
-28.15
-28.52
-28.68
-28.82
-28.66
-27.61
-25.25
-21.70
-17.73
-14.32
-12.03
-10.64
-9.20
-6.67
-2.50
2.97
8.67
13.41
16.40
17.61
17.65
17.45
17.81
19.22
21.80
25.42
29.89
35.00
40.43
45.75
50.29
53.35
54.35
53.15
50.10
46.08
42.17
39.35
38.18
38.58
39.88
40.98
40.69
38.05
32.56
24.38
14.23
3.16
-7.76
-17.76
-26.53
-34.16
-40.99
-47.35
-53.44
-59.23
-64.49
-68.76
-71.32
-71.23
-67.57
-59.80
-48.12
-33.65
-18.13
-3.33
9.60
20.41
29.62
37.88
45.46
51.98
56.63
58.67
57.92
54.85
50.32
45.20
39.97
34.70
29.15
23.09
16.41
9.27
1.91
-5.36
-12.34
-18.86
-24.86
-30.17
-34.58
-37.75
-39.34
-39.18
-37.33
-34.09
-29.83
-24.85
-19.24
-12.96
-5.97
1.58
9.35
16.82
23.50
28.92
32.67
34.38
33.73
30.68
25.59
19.32
12.94
7.45
3.36
0.61
-1.34
-3.08
-5.00
-7.17
-9.52
-11.94
-14.54
-17.44
-20.68
-23.98
-26.83
-28.66
-29.16
-28.46
-27.04
-25.53
-24.38
-23.76
-23.53
-23.47
-23.43
-23.46
-23.70
-24.28
-25.19
-26.21
-26.97
-27.08
-26.24
-24.34
-21.47
-17.93
-14.11
-10.39
-7.04
-4.22
-1.96
-0.28
0.82
1.28
1.03
0.18
-1.05
-2.29
-3.29
-3.96
-4.36
-4.67
-5.00
-5.36
-5.65
-5.79
-5.80
-5.93
-6.34
-6.95
-7.39
-7.24
-6.25
-4.55
-2.61
-1.05
-0.75
-2.18
-5.31
-9.66
-14.69
-19.92
-24.92
-29.30
-32.73
-35.69
-38.61
-41.62
-44.57
-47.34
-50.02
-52.75
-55.62
-58.61
-62.66
-68.23
-75.08
-82.45
-89.70
-96.68
-103.22
-108.98
-113.36
-116.97
-119.95
-121.75
-121.29
-117.72
-110.97
-101.07
-88.09
-63.57
-24.49
25.81
79.26
128.36
169.00
199.51
219.28
227.74
224.88
210.56
186.69
157.36
127.79
103.60
86.45
76.90
74.38
77.19
81.75
84.55
83.22
77.00
66.29
51.83
34.83
16.49
-1.92
-18.89
-31.73
-37.32
-33.26
-19.28
2.03
26.36
48.90
65.98
75.72
78.46
76.06
70.84
64.63
58.36
52.43
46.94
41.96
37.41
33.15
28.61
23.01
15.54
5.70
-6.24
-19.35
-32.38
-44.19
-54.11
-61.90
-67.53
-71.00
-72.24
-71.24
-68.29
-63.97
-59.00
-54.01
-49.30
-44.76
-39.97
-34.52
-28.16
-20.97
-13.34
-5.75
1.36
7.79
13.53
18.73
23.49
27.79
31.50
34.52
36.88
38.79
40.48
41.99
43.06
43.06
41.26
37.10
30.44
21.68
11.58
1.03
-9.30
-19.12
-28.49
-37.77
-47.30
-57.25
-67.56
-77.95
-88.04
-97.51
-106.19
-114.09
-121.31
-127.88
-133.67
-138.31
-141.31
-142.13
-140.43
-136.10
-129.34
-120.47
-109.80
-97.43
-83.23
-66.81
-47.66
-25.32
0.35
28.91
59.11
89.01
116.22
138.43
153.95
162.15
163.57
159.64
152.22
143.00
133.10
122.96
112.56
101.68
90.25
78.45
66.73
55.59
45.37
36.08
27.35
18.56
9.14
-1.11
-11.91
-22.56
-32.30
-40.73
-48.02
-54.70
-61.14
-67.08
-71.52
-73.11
-70.90
-64.78
-55.57
-44.62
-33.22
-22.39
-12.86
-5.22
0.02
2.63
2.88
1.65
0.07
-0.89
-0.73
0.51
2.56
5.21
8.58
12.91
18.38
24.89
32.04
39.04
44.79
48.02
47.80
44.17
38.27
32.02
27.21
24.63
23.68
22.71
20.10
15.38
9.88
6.01
5.92
10.24
17.68
25.62
31.24
32.78
30.31
26.13
23.29
24.17
29.53
38.67
50.05
61.78
71.87
78.20
79.90
76.19
66.35
50.45
30.27
9.29
-8.71
-21.23
-28.06
-28.76
-24.07
-15.83
-6.41
2.38
9.98
16.77
23.48
30.79
41.90
59.20
82.57
109.33
135.86
159.73
180.23
197.61
196.61
168.41
117.41
59.56
10.09
-24.72
-45.71
-57.03
-62.79
-67.58
-70.84
-70.59
-65.85
-58.05
-51.47
-50.90
-59.65
-78.74
-106.75
-137.81
-164.99
-183.32
-185.05
-168.35
-139.64
-110.04
-87.72
-74.53
-66.34
-58.16
-47.38
-34.56
-22.83
-14.77
-10.68
-8.92
-7.60
-4.98
-0.56
5.00
10.48
14.03
14.64
12.76
9.79
7.13
5.75
5.89
7.07
8.50
8.82
7.12
3.45
-1.32
-6.12
-10.07
-12.77
-14.11
-14.19
-13.52
-12.67
-12.03
-11.68
-11.51
-11.29
-10.68
-9.53
-7.57
-5.03
-2.40
-0.16
1.46
2.53
3.32
4.13
5.13
6.21
7.02
7.16
6.42
4.85
2.79
0.74
-0.81
-1.52
-1.28
-0.22
1.34
3.05
4.58
5.71
6.37
6.59
6.46
6.03
5.29
4.17
2.67
0.89
-1.01
-2.85
-4.55
-6.16
-7.80
-9.61
-11.60
-13.61
-15.40
-16.66
-17.17
-16.90
-15.95
-14.52
-12.86
-11.22
-9.78
-8.67
-7.95
-7.62
-7.58
-7.69
-7.78
-7.71
-7.41
-6.91
-6.30
-5.66
-5.05
-4.43
-3.67
-2.56
-0.90
1.44
4.50
8.12
11.99
15.69
18.80
21.02
22.21
22.46
21.98
21.06
19.97
18.87
17.85
16.85
15.83
14.71
13.52
12.29
11.12
10.09
9.21
8.43
7.63
6.70
5.56
4.19
2.62
0.94
-0.77
-2.44
-4.01
-5.46
-6.79
-8.05
-9.32
-10.71
-12.27
-14.01
-15.81
-17.39
-18.42
-18.56
-17.57
-15.47
-12.43
-8.82
-5.10
-1.70
1.01
2.84
3.71
3.75
3.19
2.34
1.46
0.69
0.06
-0.50
-1.09
-1.79
-2.62
-3.54
-4.50
-5.47
-6.43
-7.34
-8.19
-8.93
-9.55
-9.99
-10.28
-10.42
-10.40
-10.24
-9.95
-9.57
-9.17
-8.81
-8.51
-8.19
-7.66
-6.68
-5.06
-2.75
0.11
3.25
6.39
9.29
11.84
14.03
15.84
17.23
18.08
18.32
17.95
17.10
16.02
14.98
14.19
13.71
13.46
13.28
12.99
12.49
11.75
10.80
9.69
8.45
7.10
5.68
4.23
2.80
1.45
0.19
-1.04
-2.34
-3.90
-5.84
-8.21
-10.88
-13.52
-15.67
-16.83
-16.64
-14.97
-11.98
-8.07
-3.77
0.42
4.11
7.09
9.34
10.94
12.06
12.83
13.34
13.64
13.74
13.67
13.48
13.26
13.09
12.98
12.90
12.77
12.46
11.91
11.13
10.17
9.11
8.00
6.83
5.54
4.07
2.41
0.64
-1.13
-2.78
-4.29
-5.78
-7.48
-9.56
-12.03
-14.67
-16.99
-18.47
-18.66
-17.38
-14.77
-11.21
-7.20
-3.17
0.63
4.11
7.31
10.23
12.83
14.93
16.35
16.99
16.90
16.36
15.72
15.31
15.25
15.45
15.68
15.69
15.37
14.77
14.07
13.42
12.84
12.25
11.47
10.40
9.06
7.58
6.10
4.72
3.39
1.98
0.39
-1.41
-3.34
-5.31
-7.27
-9.25
-11.30
-13.45
-15.54
-17.34
-18.52
-18.78
-17.96
-16.06
-13.21
-9.65
-5.68
-1.64
2.15
5.41
7.95
9.74
10.85
11.46
11.79
12.04
12.35
12.76
13.23
13.66
13.94
13.97
13.71
13.24
12.69
12.21
11.87
11.67
11.46
11.07
10.37
9.33
8.07
6.75
5.55
4.57
3.75
2.95
1.98
0.76
-0.68
-2.18
-3.57
-4.71
-5.59
-6.36
-7.20
-8.32
-9.79
-11.58
-13.55
-15.50
-17.21
-18.43
-18.92
-18.49
-17.07
-14.72
-11.71
-8.41
-5.16
-2.22
0.34
2.59
4.65
6.59
8.36
9.83
10.83
11.32
11.37
11.17
10.93
10.76
10.66
10.52
10.23
9.71
8.97
8.06
7.10
6.18
5.40
4.79
4.35
4.03
3.77
3.50
3.25
3.06
3.01
3.14
3.41
3.69
3.87
3.86
3.67
3.35
3.00
2.65
2.26
1.76
1.07
0.13
-1.07
-2.49
-4.08
-5.78
-7.54
-9.27
-10.80
-11.94
-12.46
-12.21
-11.18
-9.52
-7.49
-5.38
-3.43
-1.78
-0.49
0.44
1.06
1.39
1.50
1.45
1.30
1.11
0.93
0.75
0.57
0.38
0.18
-0.02
-0.21
-0.32
-0.30
-0.10
0.28
0.78
1.29
1.67
1.84
1.75
1.49
1.17
0.88
0.68
0.53
0.36
0.09
-0.31
-0.84
-1.52
-2.35
-3.35
-4.53
-5.86
-7.29
-8.79
-10.39
-12.15
-14.13
-16.33
-18.66
-20.91
-22.84
-24.25
-25.03
-25.17
-24.74
-23.80
-22.41
-20.57
-18.33
-15.71
-12.82
-9.75
-6.62
-3.51
-0.41
2.68
5.82
8.99
12.10
14.98
17.38
19.10
20.08
20.39
20.26
19.93
19.57
19.21
18.80
18.24
17.49
16.59
15.63
14.66
13.67
12.62
11.49
10.30
9.16
8.13
7.22
6.34
5.36
4.15
2.69
1.08
-0.53
-2.00
-3.27
-4.35
-5.34
-6.36
-7.51
-8.83
-10.33
-11.97
-13.66
-15.28
-16.61
-17.42
-17.50
-16.73
-15.14
-12.95
-10.47
-8.02
-5.85
-4.01
-2.41
-0.92
0.57
2.05
3.43
4.54
5.32
5.76
5.94
5.99
6.02
6.11
6.29
6.57
6.92
7.26
7.50
7.56
7.40
7.09
6.71
6.35
6.04
5.73
5.34
4.81
4.10
3.26
2.34
1.36
0.33
-0.72
-1.79
-2.84
-3.86
-4.86
-5.86
-6.84
-7.80
-8.71
-9.59
-10.50
-11.56
-12.84
-14.37
-16.05
-17.67
-19.00
-19.79
-19.93
-19.34
-18.05
-16.15
-13.79
-11.17
-8.48
-5.94
-3.70
-1.80
-0.23
1.04
2.02
2.68
3.01
3.04
2.89
2.69
2.57
2.55
2.58
2.54
2.31
1.88
1.30
0.64
-0.02
-0.65
-1.28
-1.90
-2.52
-3.12
-3.65
-4.03
-4.18
-3.99
-3.41
-2.45
-1.17
0.30
1.83
3.31
4.66
5.80
6.65
7.17
7.34
7.18
6.75
6.05
5.07
3.75
2.07
0.04
-2.21
-4.49
-6.52
-8.01
-8.72
-8.50
-7.38
-5.53
-3.29
-0.99
1.10
2.86
4.29
5.47
6.44
7.17
7.61
7.71
7.48
7.03
6.48
5.93
5.43
4.96
4.48
3.97
3.49
3.10
2.84
2.70
2.57
2.30
1.76
0.88
-0.31
-1.66
-3.00
-4.15
-5.05
-5.73
-6.26
-6.77
-7.27
-7.71
-7.96
-7.91
-7.58
-7.07
-6.60
-6.33
-6.34
-6.54
-6.78
-6.91
-6.85
-6.59
-6.14
-5.42
-4.28
-2.56
-0.19
2.75
6.04
9.36
12.44
15.09
17.23
18.87
20.03
20.74
21.02
20.89
20.42
19.71
18.91
18.19
17.67
17.41
17.32
17.20
16.83
16.07
14.95
13.60
12.22
10.93
9.73
8.50
7.10
5.46
3.63
1.70
-0.22
-2.06
-3.82
-5.52
-7.14
-8.62
-9.87
-10.86
-11.62
-12.23
-12.83
-13.52
-14.34
-15.24
-16.09
-16.67
-16.74
-16.06
-14.54
-12.23
-9.33
-6.15
-3.03
-0.23
2.09
3.90
5.27
6.28
6.98
7.43
7.65
7.67
7.56
7.44
7.40
7.54
7.85
8.28
8.68
8.93
8.96
8.76
8.38
7.84
7.16
6.32
5.31
4.17
3.00
1.92
1.01
0.25
-0.47
-1.28
-2.27
-3.44
-4.72
-5.98
-7.12
-8.10
-8.97
-9.83
-10.79
-11.97
-13.39
-14.93
-16.35
-17.34
-17.60
-16.99
-15.56
-13.53
-11.17
-8.71
-6.26
-3.87
-1.55
0.65
2.64
4.28
5.49
6.22
6.55
6.56
6.38
6.18
6.07
6.16
6.45
6.89
7.34
7.69
7.84
7.79
7.58
7.27
6.92
6.56
6.18
5.80
5.41
5.03
4.63
4.19
3.68
3.08
2.40
1.64
0.83
-0.03
-0.92
-1.81
-2.66
-3.47
-4.24
-5.05
-5.98
-7.10
-8.39
-9.69
-10.75
-11.29
-11.12
-10.18
-8.61
-6.65
-4.58
-2.62
-0.87
0.69
2.11
3.43
4.60
5.53
6.11
6.32
6.22
5.98
5.77
5.70
5.81
6.01
6.20
6.29
6.26
6.14
5.99
5.83
5.62
5.31
4.85
4.24
3.57
2.93
2.45
2.16
2.02
1.93
1.72
1.26
0.48
-0.59
-1.85
-3.16
-4.40
-5.46
-6.33
-7.07
-7.82
-8.74
-9.92
-11.38
-12.98
-14.48
-15.66
-16.35
-16.49
-16.13
-15.35
-14.26
-12.99
-11.70
-10.53
-9.61
-8.98
-8.62
-8.46
-8.38
-8.36
-8.37
-8.44
-8.55
-8.64
-8.59
-8.28
-7.65
-6.67
-5.38
-3.78
-1.90
0.29
2.76
5.41
8.08
10.53
12.57
14.10
15.14
15.79
16.12
16.13
15.79
15.06
14.00
12.80
11.68
10.86
10.41
10.32
10.42
10.56
10.58
10.35
9.79
8.86
7.59
6.09
4.57
3.28
2.41
2.05
2.15
2.57
3.19
3.90
4.67
5.46
6.18
6.71
6.95
6.85
6.48
5.99
5.51
5.15
4.89
4.68
4.42
4.09
3.69
3.26
2.83
2.40
1.97
1.48
0.92
0.24
-0.56
-1.46
-2.41
-3.33
-4.13
-4.76
-5.22
-5.57
-5.97
-6.60
-7.62
-9.09
-10.90
-12.84
-14.59
-15.93
-16.73
-17.08
-17.15
-17.12
-17.06
-16.85
-16.32
-15.24
-13.56
-11.34
-8.80
-6.19
-3.74
-1.55
0.36
1.99
3.38
4.54
5.47
6.15
6.61
6.86
6.89
6.75
6.48
6.15
5.82
5.52
5.21
4.86
4.47
4.09
3.81
3.71
3.78
3.95
4.10
4.15
4.10
4.05
4.10
4.32
4.67
5.05
5.32
5.42
5.35
5.15
4.89
4.58
4.17
3.58
2.75
1.60
0.11
-1.70
-3.75
-5.89
-7.91
-9.56
-10.64
-11.07
-10.87
-10.21
-9.29
-8.25
-7.21
-6.21
-5.25
-4.40
-3.71
-3.21
-2.89
-2.62
-2.28
-1.73
-0.96
-0.01
0.99
1.95
2.79
3.54
4.24
4.96
5.67
6.30
6.72
6.83
6.59
6.05
5.33
4.52
3.71
2.90
2.05
1.13
0.13
-0.91
-1.95
-2.97
-3.95
-4.91
-5.85
-6.74
-7.54
-8.24
-8.87
-9.51
-10.25
-11.14
-12.18
-13.29
-14.33
-15.09
-15.35
-14.97
-13.90
-12.27
-10.32
-8.31
-6.45
-4.85
-3.52
-2.38
-1.39
-0.48
0.36
1.13
1.81
2.39
2.82
3.08
3.19
3.23
3.31
3.52
3.90
4.39
4.89
5.27
5.48
5.54
5.51
5.48
5.49
5.50
5.43
5.19
4.74
4.13
3.46
2.86
2.39
2.06
1.74
1.32
0.74
0.02
-0.74
-1.47
-2.17
-2.95
-3.95
-5.25
-6.78
-8.27
-9.38
-9.79
-9.36
-8.16
-6.40
-4.38
-2.32
-0.38
1.37
2.87
4.10
5.05
5.77
6.34
6.85
7.34
7.77
8.05
8.09
7.89
7.58
7.33
7.31
7.56
8.02
8.48
8.74
8.67
8.28
7.66
6.98
6.33
5.73
5.13
4.49
3.81
3.10
2.42
1.75
1.00
0.09
-1.01
-2.22
-3.38
-4.35
-5.09
-5.73
-6.45
-7.42
-8.64
-9.98
-11.17
-11.95
-12.14
-11.72
-10.78
-9.47
-7.98
-6.41
-4.84
-3.28
-1.72
-0.19
1.28
2.64
3.83
4.81
5.57
6.12
6.46
6.65
6.73
6.75
6.76
6.81
6.89
6.99
7.06
7.07
7.01
6.89
6.69
6.40
6.00
5.45
4.82
4.16
3.56
3.03
2.53
1.96
1.26
0.46
-0.34
-0.98
-1.38
-1.59
-1.77
-2.15
-2.88
-4.01
-5.42
-6.88
-8.10
-8.85
-8.97
-8.42
-7.27
-5.65
-3.73
-1.70
0.24
1.92
3.19
4.01
4.46
4.70
4.92
5.22
5.59
5.89
6.00
5.87
5.59
5.32
5.22
5.31
5.50
5.61
5.51
5.19
4.73
4.27
3.90
3.61
3.33
2.99
2.53
1.95
1.29
0.62
-0.01
-0.54
-0.98
-1.35
-1.71
-2.12
-2.64
-3.25
-3.94
-4.63
-5.32
-6.04
-6.84
-7.78
-8.81
-9.78
-10.52
-10.86
-10.71
-10.09
-9.08
-7.79
-6.30
-4.69
-3.02
-1.43
-0.05
1.06
1.88
2.48
3.00
3.49
3.97
4.37
4.62
4.70
4.66
4.59
4.56
4.57
4.59
4.55
4.41
4.15
3.81
3.42
2.99
2.53
2.02
1.48
0.92
0.38
-0.13
-0.62
-1.12
-1.70
-2.40
-3.22
-4.14
-5.10
-6.05
-6.97
-7.84
-8.67
-9.47
-10.25
-10.98
-11.61
-12.03
-12.14
-11.88
-11.27
-10.36
-9.24
-7.97
-6.60
-5.10
-3.50
-1.82
-0.11
1.56
3.11
4.47
5.53
6.24
6.60
6.70
6.70
6.76
6.97
7.29
7.62
7.82
7.81
7.60
7.26
6.90
6.58
6.33
6.12
5.92
5.66
5.32
4.88
4.35
3.77
3.16
2.53
1.86
1.16
0.42
-0.36
-1.16
-1.93
-2.65
-3.30
-3.89
-4.49
-5.14
-5.87
-6.65
-7.37
-7.90
-8.11
-7.93
-7.31
-6.30
-4.98
-3.44
-1.83
-0.30
1.01
2.01
2.68
3.09
3.32
3.46
3.61
3.82
4.14
4.56
5.00
5.38
5.59
5.62
5.52
5.40
5.34
5.35
5.37
5.30
5.06
4.66
4.12
3.51
2.85
2.15
1.42
0.71
0.07
-0.46
-0.91
-1.38
-1.97
-2.75
-3.67
-4.62
-5.46
-6.13
-6.66
-7.16
-7.75
-8.46
-9.25
-9.97
-10.45
-10.54
-10.21
-9.49
-8.49
-7.34
-6.15
-4.99
-3.87
-2.79
-1.74
-0.73
0.21
1.01
1.63
2.07
2.41
2.74
3.15
3.67
4.25
4.77
5.13
5.24
5.09
4.77
4.39
4.09
3.93
3.95
4.07
4.15
4.04
3.68
3.09
2.40
1.78
1.33
1.04
0.78
0.42
-0.15
-0.90
-1.76
-2.60
-3.36
-4.04
-4.67
-5.33
-6.07
-6.94
-7.91
-8.93
-9.93
-10.77
-11.32
-11.46
-11.14
-10.38
-9.26
-7.84
-6.20
-4.42
-2.61
-0.89
0.61
1.78
2.61
3.16
3.59
4.06
4.65
5.33
6.02
6.59
6.98
7.21
7.34
7.43
7.51
7.57
7.56
7.46
7.24
6.93
6.55
6.09
5.51
4.78
3.93
3.05
2.24
1.55
1.00
0.51
-0.00
-0.64
-1.43
-2.34
-3.26
-4.10
-4.78
-5.27
-5.65
-6.04
-6.56
-7.33
-8.37
-9.61
-10.88
-11.97
-12.64
-12.74
-12.19
-11.03
-9.39
-7.48
-5.54
-3.76
-2.26
-1.07
-0.08
0.82
1.72
2.65
3.56
4.36
4.99
5.43
5.70
5.88
6.03
6.19
6.37
6.57
6.75
6.90
7.03
7.14
7.21
7.19
7.01
6.66
6.15
5.54
4.92
4.35
3.84
3.38
2.92
2.45
1.94
1.35
0.62
-0.27
-1.30
-2.36
-3.34
-4.13
-4.74
-5.30
-5.98
-6.92
-8.11
-9.35
-10.37
-10.92
-10.88
-10.24
-9.16
-7.78
-6.24
-4.63
-3.01
-1.43
0.05
1.36
2.45
3.32
4.00
4.53
5.00
5.44
5.88
6.30
6.63
6.81
6.84
6.77
6.71
6.75
6.89
7.01
6.98
6.69
6.18
5.58
5.03
4.65
4.42
4.25
4.02
3.65
3.15
2.57
1.96
1.33
0.64
-0.16
-1.13
-2.28
-3.55
-4.82
-5.96
-6.87
-7.56
-8.10
-8.64
-9.31
-10.18
-11.16
-12.05
-12.60
-12.59
-11.93
-10.69
-9.07
-7.28
-5.49
-3.79
-2.19
-0.70
0.66
1.82
2.72
3.34
3.75
4.05
4.37
4.77
5.30
5.93
6.64
7.37
8.04
8.52
8.72
8.62
8.30
7.90
7.56
7.37
7.29
7.25
7.15
6.92
6.59
6.17
5.71
5.16
4.51
3.72
2.83
1.98
1.30
0.86
0.62
0.42
0.06
-0.61
-1.59
-2.77
-3.97
-5.06
-5.96
-6.65
-7.06
-7.13
-6.76
-5.95
-4.77
-3.41
-2.07
-0.88
0.09
0.85
1.43
1.84
2.08
2.17
2.19
2.22
2.37
2.69
3.18
3.74
4.27
4.65
4.83
4.83
4.71
4.57
4.46
4.35
4.19
3.92
3.53
3.04
2.55
2.12
1.81
1.59
1.43
1.24
0.97
0.59
0.08
-0.54
-1.27
-2.06
-2.84
-3.57
-4.20
-4.75
-5.30
-5.93
-6.74
-7.72
-8.78
-9.73
-10.38
-10.59
-10.29
-9.53
-8.39
-7.01
-5.51
-4.03
-2.68
-1.54
-0.65
0.03
0.59
1.11
1.62
2.10
2.44
2.60
2.58
2.51
2.54
2.80
3.31
3.99
4.73
5.40
5.88
6.12
6.07
5.73
5.15
4.41
3.67
3.04
2.58
2.26
2.00
1.68
1.24
0.69
0.08
-0.55
-1.22
-1.95
-2.74
-3.55
-4.29
-4.87
-5.26
-5.51
-5.75
-6.14
-6.78
-7.68
-8.70
-9.65
-10.31
-10.52
-10.26
-9.59
-8.66
-7.64
-6.68
-5.86
-5.23
-4.79
-4.56
-4.52
-4.66
-4.91
-5.24
-5.60
-6.01
-6.54
-7.19
-7.94
-8.64
-9.13
-9.27
-9.02
-8.44
-7.62
-6.63
-5.40
-3.83
-1.84
0.55
3.21
5.92
8.42
10.54
12.17
13.26
13.82
13.87
13.47
12.76
11.89
11.03
10.27
9.58
8.85
7.94
6.76
5.33
3.77
2.27
0.96
-0.08
-0.88
-1.43
-1.77
-1.85
-1.64
-1.16
-0.46
0.38
1.28
2.20
3.14
4.10
5.05
5.94
6.69
7.23
7.51
7.55
7.37
7.03
6.61
6.18
5.81
5.52
5.31
5.16
5.03
4.89
4.74
4.53
4.23
3.75
3.07
2.20
1.21
0.23
-0.64
-1.34
-1.88
-2.34
-2.77
-3.25
-3.80
-4.39
-4.97
-5.48
-5.89
-6.18
-6.40
-6.59
-6.85
-7.22
-7.68
-8.17
-8.56
-8.77
-8.69
-8.31
-7.60
-6.56
-5.22
-3.62
-1.86
-0.08
1.60
3.09
4.39
5.56
6.66
7.69
8.57
9.19
9.49
9.51
9.36
9.16
9.01
8.90
8.80
8.67
8.51
8.36
8.24
8.15
8.00
7.70
7.16
6.41
5.56
4.74
4.07
3.58
3.24
2.95
2.61
2.14
1.51
0.75
-0.13
-1.09
-2.09
-3.12
-4.15
-5.14
-6.09
-6.99
-7.86
-8.74
-9.64
-10.53
-11.37
-12.13
-12.71
-13.07
-13.12
-12.81
-12.10
-11.00
-9.59
-8.01
-6.44
-5.00
-3.78
-2.76
-1.90
-1.17
-0.58
-0.14
0.17
0.43
0.74
1.21
1.81
2.42
2.88
3.07
2.99
2.77
2.62
2.68
2.93
3.28
3.54
3.60
3.45
3.17
2.87
2.60
2.31
1.90
1.31
0.60
-0.06
-0.48
-0.57
-0.42
-0.29
-0.46
-1.07
-2.08
-3.31
-4.49
-5.48
-6.27
-6.98
-7.77
-8.72
-9.82
-10.95
-11.96
-12.66
-12.88
-12.53
-11.60
-10.17
-8.44
-6.64
-4.99
-3.63
-2.58
-1.79
-1.18
-0.68
-0.24
0.12
0.38
0.59
0.78
1.00
1.26
1.50
1.67
1.73
1.72
1.71
1.82
2.09
2.48
2.85
3.05
3.03
2.80
2.50
2.24
2.08
1.99
1.89
1.73
1.51
1.26
1.05
0.90
0.76
0.57
0.26
-0.16
-0.65
-1.14
-1.58
-1.99
-2.44
-3.03
-3.81
-4.76
-5.75
-6.56
-6.97
-6.79
-6.00
-4.68
-3.01
-1.24
0.47
2.01
3.39
4.61
5.69
6.62
7.35
7.89
8.26
8.55
8.85
9.20
9.61
9.99
10.24
10.29
10.12
9.77
9.33
8.92
8.62
8.47
8.44
8.44
8.36
8.10
7.60
6.85
5.89
4.82
3.73
2.75
1.97
1.44
1.11
0.84
0.48
-0.09
-0.90
-1.86
-2.84
-3.71
-4.45
-5.16
-5.98
-7.05
-8.41
-10.00
-11.66
-13.18
-14.37
-15.06
-15.15
-14.64
-13.57
-12.07
-10.27
-8.29
-6.23
-4.19
-2.28
-0.56
0.90
2.05
2.90
3.51
3.91
4.20
4.42
4.64
4.92
5.30
5.82
6.43
7.07
7.61
7.96
8.07
7.97
7.71
7.41
7.14
6.94
6.76
6.54
6.22
5.78
5.27
4.74
4.26
3.83
3.36
2.73
1.85
0.74
-0.49
-1.63
-2.51
-3.07
-3.45
-3.86
-4.51
-5.47
-6.68
-7.98
-9.20
-10.23
-11.01
-11.52
-11.71
-11.48
-10.74
-9.48
-7.77
-5.81
-3.81
-1.97
-0.35
1.01
2.17
3.15
3.96
4.60
5.12
5.56
6.00
6.44
6.87
7.19
7.30
7.14
6.77
6.30
5.85
5.51
5.30
5.19
5.14
5.12
5.11
5.07
4.91
4.53
3.87
2.98
1.96
0.95
0.07
-0.64
-1.23
-1.78
-2.37
-3.01
-3.70
-4.42
-5.19
-6.04
-7.04
-8.22
-9.54
-10.90
-12.10
-12.94
-13.21
-12.80
-11.73
-10.17
-8.36
-6.53
-4.83
-3.33
-2.00
-0.81
0.21
1.01
1.58
1.95
2.26
2.64
3.16
3.79
4.44
5.00
5.47
5.91
6.41
7.03
7.72
8.39
8.94
9.30
9.48
9.50
9.42
9.25
8.99
8.59
8.06
7.39
6.62
5.82
5.06
4.36
3.73
3.10
2.38
1.47
0.28
-1.21
-2.97
-4.89
-6.79
-8.42
-9.52
-9.85
-9.32
-8.02
-6.21
-4.25
-2.44
-0.95
0.26
1.32
2.36
3.43
4.49
5.44
6.17
6.67
6.96
7.11
7.17
7.16
7.09
6.97
6.83
6.70
6.62
6.60
6.61
6.60
6.49
6.22
5.74
5.07
4.23
3.29
2.29
1.31
0.42
-0.33
-0.93
-1.39
-1.80
-2.26
-2.85
-3.59
-4.45
-5.39
-6.34
-7.24
-8.03
-8.62
-8.92
-8.83
-8.34
-7.46
-6.26
-4.81
-3.17
-1.38
0.47
2.31
4.01
5.43
6.47
7.11
7.39
7.40
7.27
7.14
7.14
7.31
7.62
7.99
8.29
8.41
8.33
8.10
7.81
7.53
7.32
7.15
6.96
6.69
6.31
5.77
5.08
4.25
3.29
2.24
1.15
0.08
-0.90
-1.80
-2.64
-3.47
-4.37
-5.36
-6.42
-7.52
-8.55
-9.45
-10.15
-10.56
-10.62
-10.25
-9.41
-8.14
-6.51
-4.72
-2.93
-1.30
0.10
1.29
2.30
3.18
3.94
4.53
4.91
5.05
5.00
4.85
4.72
4.72
4.92
5.26
5.64
5.93
6.00
5.79
5.34
4.76
4.19
3.75
3.47
3.33
3.25
3.15
2.97
2.66
2.22
1.63
0.90
0.05
-0.87
-1.80
-2.66
-3.41
-4.00
-4.41
-4.63
-4.71
-4.75
-4.90
-5.29
-5.97
-6.85
-7.75
-8.40
-8.63
-8.40
-7.77
-6.90
-5.95
-4.98
-4.01
-3.04
-2.05
-1.03
0.01
1.06
2.09
3.00
3.67
3.99
3.96
3.68
3.39
3.31
3.56
4.07
4.62
4.97
4.96
4.59
3.99
3.36
2.84
2.48
2.22
2.00
1.75
1.44
1.08
0.68
0.24
-0.26
-0.82
-1.44
-2.11
-2.81
-3.51
-4.17
-4.73
-5.11
-5.28
-5.27
-5.21
-5.25
-5.52
-6.03
-6.72
-7.41
-7.93
-8.17
-8.05
-7.56
-6.73
-5.60
-4.26
-2.84
-1.47
-0.24
0.85
1.83
2.75
3.61
4.37
4.98
5.39
5.63
5.75
5.82
5.86
5.85
5.75
5.53
5.18
4.75
4.32
3.99
3.80
3.77
3.85
3.91
3.84
3.58
3.16
2.68
2.24
1.88
1.59
1.28
0.89
0.41
-0.10
-0.59
-1.06
-1.55
-2.13
-2.83
-3.63
-4.43
-5.16
-5.79
-6.37
-6.96
-7.59
-8.17
-8.57
-8.66
-8.37
-7.78
-7.04
-6.26
-5.54
-4.86
-4.19
-3.49
-2.77
-2.04
-1.35
-0.70
-0.11
0.41
0.86
1.22
1.48
1.66
1.79
1.92
2.08
2.29
2.55
2.84
3.10
3.30
3.39
3.37
3.23
3.01
2.75
2.47
2.18
1.87
1.50
1.04
0.47
-0.16
-0.79
-1.34
-1.73
-1.96
-2.07
-2.13
-2.20
-2.26
-2.29
-2.24
-2.18
-2.20
-2.43
-2.96
-3.73
-4.58
-5.33
-5.82
-6.03
-5.96
-5.68
-5.23
-4.60
-3.84
-3.03
-2.28
-1.70
-1.30
-1.02
-0.77
-0.49
-0.17
0.16
0.45
0.68
0.84
0.92
0.89
0.72
0.44
0.13
-0.10
-0.13
0.06
0.39
0.71
0.87
0.77
0.42
-0.04
-0.47
-0.75
-0.85
-0.86
-0.89
-1.06
-1.43
-1.96
-2.54
-3.05
-3.45
-3.76
-4.08
-4.52
-5.11
-5.79
-6.48
-7.07
-7.60
-8.18
-8.98
-10.11
-11.51
-13.01
-14.37
-15.44
-16.15
-16.53
-16.56
-16.14
-15.14
-13.46
-11.16
-8.47
-5.68
-3.01
-0.55
1.75
3.93
5.98
7.74
9.07
9.90
10.30
10.48
10.63
10.88
11.24
11.67
12.09
12.43
12.67
12.81
12.91
13.01
13.16
13.38
13.65
13.84
13.88
13.71
13.36
12.94
12.52
12.12
11.64
10.96
10.00
8.73
7.23
5.56
3.79
1.95
0.06
-1.79
-3.53
-5.05
-6.34
-7.43
-8.46
-9.53
-10.77
-12.18
-13.71
-15.23
-16.63
-17.78
-18.56
-18.88
-18.64
-17.81
-16.46
-14.71
-12.81
-10.98
-9.42
-8.25
-7.45
-6.94
-6.58
-6.26
-5.91
-5.50
-5.08
-4.71
-4.47
-4.42
-4.58
-4.92
-5.39
-5.92
-6.44
-6.91
-7.30
-7.61
-7.86
-8.04
-8.19
-8.27
-8.25
-8.07
-7.65
-6.94
-5.90
-4.55
-2.95
-1.16
0.76
2.78
4.85
6.89
8.77
10.29
11.30
11.67
11.41
10.63
9.48
8.12
6.64
5.07
3.43
1.72
0.04
-1.41
-2.38
-2.60
-1.98
-0.61
1.22
3.14
4.80
6.02
6.82
7.29
7.58
7.74
7.74
7.55
7.19
6.79
6.48
6.38
6.49
6.71
6.91
6.97
6.89
6.73
6.61
6.59
6.64
6.68
6.59
6.32
5.89
5.41
4.98
4.64
4.35
4.02
3.59
3.03
2.39
1.72
1.06
0.43
-0.19
-0.79
-1.36
-1.93
-2.55
-3.32
-4.30
-5.46
-6.72
-7.99
-9.21
-10.38
-11.52
-12.59
-13.44
-13.85
-13.60
-12.60
-10.95
-8.85
-6.57
-4.34
-2.29
-0.42
1.28
2.87
4.36
5.68
6.76
7.49
7.88
8.01
8.10
8.34
8.81
9.48
10.16
10.68
10.92
10.93
10.83
10.72
10.61
10.43
10.11
9.61
9.00
8.38
7.84
7.37
6.90
6.36
5.72
5.02
4.34
3.75
3.22
2.70
2.14
1.49
0.81
0.16
-0.43
-1.03
-1.75
-2.73
-4.01
-5.53
-7.12
-8.52
-9.52
-10.00
-9.94
-9.39
-8.44
-7.21
-5.79
-4.31
-2.86
-1.53
-0.32
0.81
1.91
2.97
3.90
4.62
5.02
5.12
5.01
4.84
4.74
4.78
4.98
5.32
5.74
6.17
6.54
6.80
6.93
6.92
6.83
6.68
6.45
6.13
5.71
5.25
4.83
4.54
4.37
4.24
3.97
3.41
2.52
1.37
0.15
-0.93
-1.75
-2.32
-2.72
-3.13
-3.66
-4.38
-5.28
-6.31
-7.45
-8.66
-9.89
-10.99
-11.75
-11.93
-11.37
-10.11
-8.30
-6.24
-4.19
-2.29
-0.58
0.98
2.42
3.67
4.62
5.16
5.27
5.03
4.63
4.29
4.19
4.36
4.70
5.01
5.15
5.05
4.81
4.59
4.48
4.49
4.48
4.30
3.86
3.20
2.44
1.77
1.30
1.03
0.87
0.68
0.33
-0.25
-1.06
-2.01
-3.01
-3.94
-4.73
-5.39
-6.02
-6.75
-7.73
-9.01
-10.53
-12.12
-13.55
-14.60
-15.15
-15.15
-14.60
-13.57
-12.09
-10.26
-8.23
-6.20
-4.36
-2.85
-1.68
-0.77
-0.04
0.61
1.16
1.59
1.89
2.10
2.28
2.52
2.87
3.37
4.06
4.98
6.16
7.58
9.12
10.61
11.90
12.85
13.40
13.56
13.37
12.91
12.25
11.51
10.78
10.14
9.60
9.12
8.63
8.02
7.24
6.25
5.05
3.70
2.22
0.66
-0.95
-2.61
-4.33
-6.09
-7.79
-9.30
-10.47
-11.15
-11.23
-10.69
-9.56
-7.94
-5.97
-3.81
-1.63
0.44
2.29
3.91
5.29
6.47
7.47
8.28
8.93
9.45
9.93
10.41
10.88
11.26
11.44
11.33
10.95
10.44
9.99
9.76
9.77
9.91
9.99
9.75
9.06
7.89
6.38
4.77
3.30
2.08
1.13
0.33
-0.45
-1.29
-2.16
-3.01
-3.77
-4.47
-5.19
-6.01
-6.96
-7.99
-9.04
-10.10
-11.24
-12.58
-14.19
-16.01
-17.78
-19.14
-19.75
-19.42
-18.13
-16.10
-13.63
-11.02
-8.47
-6.06
-3.78
-1.64
0.31
1.94
3.11
3.78
4.03
4.07
4.14
4.39
4.83
5.28
5.50
5.34
4.81
4.07
3.40
3.03
3.06
3.44
4.01
4.65
5.33
6.10
7.04
8.18
9.43
10.61
11.55
12.15
12.43
12.48
12.46
12.41
12.34
12.17
11.78
11.11
10.14
8.90
7.47
5.91
4.25
2.50
0.62
-1.39
-3.45
-5.42
-7.07
-8.22
-8.73
-8.59
-7.88
-6.75
-5.33
-3.78
-2.20
-0.71
0.64
1.79
2.70
3.36
3.74
3.83
3.62
3.16
2.53
1.85
1.21
0.64
0.11
-0.41
-0.97
-1.54
-2.11
-2.71
-3.41
-4.28
-5.34
-6.48
-7.54
-8.33
-8.81
-9.07
-9.27
-9.63
-10.24
-11.06
-11.97
-12.81
-13.48
-13.94
-14.22
-14.37
-14.48
-14.59
-14.77
-15.08
-15.55
-16.18
-16.87
-17.44
-17.62
-17.16
-15.90
-13.83
-11.10
-7.95
-4.61
-1.31
1.79
4.58
6.90
8.70
9.93
10.66
10.98
10.94
10.56
9.78
8.57
7.00
5.25
3.58
2.23
1.37
1.03
1.12
1.48
1.91
2.25
2.43
2.42
2.25
1.98
1.61
1.12
0.50
-0.27
-1.12
-1.98
-2.76
-3.43
-4.00
-4.53
-5.06
-5.62
-6.21
-6.82
-7.47
-8.21
-9.11
-10.21
-11.50
-12.88
-14.15
-15.02
-15.25
-14.66
-13.24
-11.17
-8.74
-6.29
-4.08
-2.25
-0.76
0.50
1.66
2.78
3.80
4.65
5.28
5.71
6.02
6.36
6.80
7.34
7.94
8.57
9.22
9.93
10.72
11.55
12.31
12.88
13.13
13.02
12.55
11.78
10.82
9.79
8.78
7.86
6.98
6.06
5.00
3.73
2.28
0.76
-0.72
-2.11
-3.41
-4.70
-6.01
-7.37
-8.75
-10.13
-11.46
-12.63
-13.47
-13.78
-13.37
-12.19
-10.34
-8.03
-5.50
-2.88
-0.24
2.42
5.05
7.57
9.85
11.81
13.44
14.76
15.82
16.61
17.10
17.25
17.08
16.68
16.16
15.59
14.98
14.26
13.35
12.21
10.89
9.49
8.13
6.89
5.76
4.64
3.45
2.13
0.73
-0.64
-1.85
-2.80
-3.51
-4.03
-4.48
-4.92
-5.39
-5.86
-6.28
-6.66
-7.05
-7.53
-8.20
-9.10
-10.20
-11.38
-12.45
-13.21
-13.48
-13.15
-12.17
-10.65
-8.74
-6.67
-4.67
-2.88
-1.38
-0.16
0.79
1.48
1.91
2.07
2.01
1.82
1.67
1.69
1.96
2.43
3.03
3.64
4.24
4.86
5.53
6.22
6.85
7.28
7.42
7.26
6.91
6.49
6.12
5.83
5.55
5.19
4.64
3.86
2.81
1.54
0.13
-1.27
-2.54
-3.56
-4.32
-4.93
-5.53
-6.31
-7.37
-8.69
-10.12
-11.42
-12.32
-12.61
-12.18
-11.09
-9.54
-7.76
-5.99
-4.33
-2.79
-1.34
0.08
1.41
2.59
3.53
4.27
4.89
5.55
6.37
7.34
8.39
9.40
10.28
11.04
11.71
12.35
12.97
13.50
13.83
13.84
13.45
12.64
11.46
10.01
8.46
6.93
5.52
4.23
3.00
1.78
0.54
-0.69
-1.85
-2.91
-3.87
-4.79
-5.69
-6.57
-7.44
-8.30
-9.18
-10.16
-11.25
-12.42
-13.55
-14.46
-15.04
-15.19
-14.91
-14.24
-13.19
-11.80
-10.11
-8.16
-6.04
-3.81
-1.52
0.79
3.10
5.32
7.38
9.16
10.62
11.75
12.61
13.26
13.77
14.14
14.39
14.54
14.67
14.86
15.13
15.46
15.80
16.08
16.27
16.43
16.63
16.91
17.23
17.46
17.38
16.79
15.55
13.67
11.29
8.66
6.04
3.63
1.49
-0.46
-2.38
-4.46
-6.82
-9.45
-12.20
-14.85
-17.11
-18.74
-19.61
-19.73
-19.20
-18.18
-16.82
-15.20
-13.33
-11.20
-8.86
-6.44
-4.17
-2.31
-1.06
-0.48
-0.45
-0.73
-1.03
-1.13
-0.98
-0.66
-0.36
-0.28
-0.49
-0.97
-1.57
-2.17
-2.69
-3.16
-3.65
-4.22
-4.89
-5.59
-6.24
-6.78
-7.17
-7.45
-7.67
-7.84
-7.93
-7.87
-7.60
-7.09
-6.45
-5.87
-5.58
-5.76
-6.45
-7.50
-8.63
-9.48
-9.76
-9.33
-8.27
-6.77
-5.05
-3.29
-1.55
0.15
1.81
3.37
4.75
5.84
6.60
7.07
7.34
7.53
7.70
7.85
7.97
8.05
8.13
8.23
8.37
8.47
8.48
8.32
7.97
7.44
6.72
5.81
4.63
3.18
1.46
-0.42
-2.33
-4.16
-5.85
-7.45
-8.99
-10.52
-12.07
-13.60
-15.16
-16.79
-18.57
-20.51
-22.52
-24.38
-25.82
-26.59
-26.57
-25.76
-24.31
-22.37
-20.06
-17.42
-14.43
-11.06
-7.32
-3.26
1.07
5.57
10.16
14.68
18.93
22.68
25.71
27.86
29.11
29.52
29.25
28.50
27.44
26.20
24.91
23.60
22.30
20.99
19.65
18.25
16.75
15.14
13.38
11.44
9.32
7.02
4.63
2.21
-0.14
-2.37
-4.44
-6.32
-8.02
-9.50
-10.72
-11.61
-12.08
-12.08
-11.59
-10.66
-9.41
-7.95
-6.38
-4.78
-3.24
-1.85
-0.71
0.11
0.60
0.82
0.91
1.00
1.14
1.34
1.56
1.78
1.96
2.09
2.14
2.08
1.88
1.56
1.18
0.77
0.38
-0.04
-0.55
-1.20
-2.02
-2.98
-4.04
-5.12
-6.21
-7.35
-8.56
-9.82
-11.06
-12.09
-12.71
-12.75
-12.14
-10.95
-9.34
-7.49
-5.54
-3.61
-1.75
0.01
1.60
2.95
4.00
4.75
5.28
5.73
6.22
6.79
7.38
7.82
7.96
7.74
7.27
6.72
6.29
6.06
5.97
5.84
5.52
4.92
4.12
3.25
2.47
1.82
1.26
0.69
0.00
-0.83
-1.79
-2.81
-3.87
-4.98
-6.14
-7.32
-8.43
-9.32
-9.86
-9.94
-9.56
-8.74
-7.54
-6.01
-4.24
-2.35
-0.46
1.30
2.83
4.08
5.05
5.74
6.18
6.43
6.56
6.64
6.69
6.68
6.58
6.39
6.19
6.08
6.11
6.24
6.37
6.35
6.07
5.55
4.87
4.14
3.45
2.84
2.33
1.94
1.68
1.53
1.48
1.46
1.42
1.34
1.24
1.14
1.02
0.81
0.42
-0.27
-1.34
-2.77
-4.44
-6.10
-7.44
-8.18
-8.11
-7.20
-5.54
-3.36
-0.91
1.55
3.79
5.65
7.03
7.92
8.38
8.56
8.64
8.76
8.99
9.32
9.70
10.06
10.38
10.66
10.88
11.02
11.02
10.80
10.34
9.66
8.89
8.14
7.50
6.98
6.47
5.86
5.09
4.15
3.13
2.14
1.24
0.44
-0.29
-1.02
-1.77
-2.53
-3.28
-4.01
-4.75
-5.54
-6.40
-7.35
-8.37
-9.44
-10.55
-11.66
-12.68
-13.44
-13.76
-13.46
-12.51
-11.00
-9.14
-7.12
-5.10
-3.16
-1.35
0.23
1.43
2.11
2.27
2.04
1.69
1.45
1.42
1.55
1.71
1.81
1.82
1.81
1.82
1.82
1.70
1.37
0.87
0.34
-0.02
-0.09
0.08
0.31
0.39
0.19
-0.29
-0.91
-1.53
-2.07
-2.52
-2.93
-3.39
-3.91
-4.51
-5.12
-5.68
-6.15
-6.49
-6.78
-7.12
-7.64
-8.41
-9.34
-10.22
-10.77
-10.77
-10.14
-8.95
-7.40
-5.68
-3.95
-2.31
-0.80
0.51
1.57
2.37
2.95
3.38
3.79
4.22
4.70
5.17
5.54
5.73
5.72
5.51
5.15
4.75
4.43
4.28
4.36
4.60
4.88
5.06
5.04
4.77
4.32
3.74
3.12
2.48
1.83
1.15
0.45
-0.24
-0.91
-1.56
-2.23
-2.98
-3.84
-4.82
-5.85
-6.86
-7.79
-8.61
-9.33
-9.96
-10.48
-10.84
-10.91
-10.60
-9.86
-8.74
-7.37
-5.94
-4.58
-3.34
-2.19
-1.08
0.01
1.01
1.81
2.33
2.56
2.59
2.59
2.70
3.01
3.45
3.88
4.19
4.30
4.24
4.09
3.95
3.88
3.87
3.84
3.71
3.40
2.90
2.28
1.65
1.12
0.72
0.38
-0.03
-0.62
-1.41
-2.30
-3.15
-3.88
-4.50
-5.15
-5.97
-7.06
-8.36
-9.74
-11.02
-12.03
-12.74
-13.12
-13.21
-13.00
-12.50
-11.67
-10.49
-8.99
-7.21
-5.28
-3.30
-1.37
0.44
2.07
3.47
4.60
5.39
5.88
6.17
6.44
6.86
7.51
8.31
9.10
9.71
10.06
10.21
10.27
10.32
10.34
10.24
9.90
9.33
8.64
7.96
7.41
6.94
6.41
5.63
4.49
3.06
1.56
0.22
-0.77
-1.43
-1.95
-2.60
-3.58
-4.94
-6.61
-8.37
-10.01
-11.35
-12.26
-12.68
-12.57
-11.94
-10.86
-9.40
-7.70
-5.88
-4.01
-2.19
-0.50
0.99
2.17
2.96
3.37
3.45
3.35
3.19
3.09
3.09
3.18
3.32
3.47
3.65
3.87
4.14
4.44
4.70
4.87
4.87
4.63
4.13
3.39
2.47
1.51
0.63
-0.08
-0.59
-0.99
-1.38
-1.91
-2.62
-3.48
-4.43
-5.40
-6.36
-7.33
-8.35
-9.42
-10.52
-11.55
-12.43
-13.05
-13.30
-13.11
-12.42
-11.20
-9.51
-7.50
-5.35
-3.28
-1.40
0.26
1.73
3.05
4.26
5.32
6.15
6.69
6.89
6.79
6.49
6.12
5.86
5.83
6.05
6.48
6.99
7.44
7.71
7.75
7.61
7.35
7.06
6.77
6.46
6.11
5.68
5.17
4.56
3.79
2.83
1.65
0.35
-0.94
-2.05
-2.91
-3.57
-4.21
-5.06
-6.28
-7.86
-9.66
-11.41
-12.83
-13.66
-13.73
-12.99
-11.47
-9.36
-6.92
-4.49
-2.31
-0.56
0.77
1.75
2.52
3.15
3.71
4.20
4.62
4.98
5.33
5.69
6.11
6.56
7.03
7.48
7.88
8.17
8.32
8.31
8.16
7.90
7.56
7.18
6.72
6.15
5.43
4.57
3.63
2.68
1.80
1.00
0.22
-0.65
-1.67
-2.90
-4.29
-5.77
-7.22
-8.50
-9.42
-9.80
-9.51
-8.55
-7.06
-5.33
-3.62
-2.10
-0.75
0.54
1.91
3.37
4.82
6.07
6.96
7.46
7.63
7.58
7.40
7.18
6.96
6.82
6.86
7.16
7.68
8.29
8.78
8.95
8.73
8.21
7.55
6.90
6.29
5.67
4.97
4.16
3.33
2.62
2.11
1.79
1.54
1.15
0.48
-0.53
-1.81
-3.25
-4.70
-6.05
-7.19
-8.04
-8.49
-8.47
-7.92
-6.87
-5.40
-3.68
-1.93
-0.32
1.03
2.14
3.10
3.99
4.84
5.63
6.26
6.67
6.90
7.06
7.25
7.54
7.86
8.07
8.07
7.83
7.41
6.93
6.47
6.04
5.60
5.12
4.58
3.99
3.38
2.76
2.08
1.34
0.56
-0.21
-0.89
-1.48
-2.07
-2.76
-3.64
-4.68
-5.82
-6.92
-7.94
-8.92
-9.97
-11.17
-12.50
-13.83
-14.92
-15.53
-15.46
-14.65
-13.12
-11.05
-8.66
-6.19
-3.85
-1.75
0.07
1.63
2.96
4.04
4.86
5.39
5.69
5.82
5.91
6.05
6.27
6.56
6.86
7.11
7.27
7.35
7.35
7.26
7.05
6.66
6.06
5.29
4.43
3.57
2.83
2.26
1.88
1.65
1.50
1.34
1.10
0.72
0.21
-0.39
-1.01
-1.57
-2.09
-2.59
-3.16
-3.90
-4.84
-5.99
-7.28
-8.62
-9.83
-10.76
-11.26
-11.22
-10.65
-9.59
-8.18
-6.54
-4.77
-2.96
-1.18
0.49
1.94
3.10
3.93
4.47
4.79
4.98
5.09
5.18
5.23
5.29
5.36
5.46
5.61
5.80
5.97
6.10
6.13
6.04
5.80
5.39
4.79
4.03
3.17
2.30
1.53
0.93
0.51
0.22
-0.06
-0.44
-0.96
-1.61
-2.33
-3.06
-3.76
-4.48
-5.30
-6.26
-7.38
-8.59
-9.83
-11.06
-12.25
-13.37
-14.34
-15.01
-15.19
-14.73
-13.56
-11.77
-9.61
-7.37
-5.34
-3.63
-2.24
-1.05
0.04
1.07
1.98
2.66
3.09
3.31
3.48
3.72
4.09
4.51
4.84
4.99
4.96
4.88
4.89
5.09
5.42
5.73
5.81
5.51
4.85
3.96
3.02
2.20
1.57
1.11
0.72
0.35
-0.03
-0.40
-0.74
-1.08
-1.50
-2.06
-2.81
-3.71
-4.69
-5.66
-6.53
-7.30
-7.96
-8.55
-9.12
-9.63
-10.03
-10.22
-10.05
-9.43
-8.29
-6.63
-4.54
-2.13
0.41
2.90
5.16
7.04
8.45
9.39
9.95
10.26
10.45
10.61
10.80
11.01
11.20
11.32
11.34
11.22
10.97
10.59
10.14
9.67
9.22
8.80
8.34
7.78
7.06
6.20
5.29
4.45
3.75
3.23
2.82
2.38
1.80
0.99
-0.03
-1.20
-2.40
-3.52
-4.50
-5.30
-5.98
-6.65
-7.45
-8.47
-9.76
-11.22
-12.66
-13.85
-14.59
-14.75
-14.29
-13.25
-11.74
-9.91
-7.94
-5.98
-4.18
-2.61
-1.28
-0.12
0.91
1.81
2.55
3.11
3.50
3.79
4.08
4.42
4.79
5.11
5.33
5.46
5.56
5.76
6.09
6.51
6.90
7.11
7.04
6.66
6.04
5.25
4.35
3.39
2.38
1.38
0.45
-0.37
-1.06
-1.66
-2.26
-2.93
-3.74
-4.71
-5.79
-6.89
-7.92
-8.81
-9.59
-10.34
-11.16
-12.12
-13.15
-14.06
-14.55
-14.35
-13.36
-11.68
-9.53
-7.20
-4.89
-2.65
-0.45
1.70
3.75
5.58
7.06
8.14
8.88
9.41
9.87
10.34
10.81
11.20
11.43
11.48
11.40
11.29
11.28
11.42
11.71
12.02
12.20
12.13
11.74
11.08
10.24
9.30
8.27
7.12
5.83
4.43
3.03
1.79
0.80
0.02
-0.67
-1.48
-2.55
-3.88
-5.36
-6.79
-8.04
-9.08
-10.04
-11.08
-12.31
-13.70
-15.01
-15.93
-16.20
-15.72
-14.60
-13.08
-11.40
-9.67
-7.90
-6.02
-4.01
-1.96
-0.04
1.56
2.73
3.44
3.81
3.95
4.02
4.10
4.24
4.44
4.67
4.92
5.19
5.46
5.73
5.96
6.11
6.11
5.93
5.57
5.07
4.50
3.93
3.40
2.92
2.42
1.82
1.10
0.25
-0.63
-1.42
-2.03
-2.45
-2.71
-2.95
-3.31
-3.89
-4.72
-5.75
-6.86
-7.88
-8.65
-9.04
-8.98
-8.47
-7.53
-6.23
-4.64
-2.84
-0.91
1.01
2.76
4.27
5.52
6.61
7.69
8.82
9.96
10.95
11.63
11.90
11.86
11.68
11.57
11.64
11.81
11.97
12.00
11.88
11.64
11.37
11.06
10.64
10.05
9.26
8.33
7.34
6.35
5.36
4.32
3.18
1.92
0.58
-0.81
-2.20
-3.60
-4.99
-6.34
-7.63
-8.82
-9.93
-10.99
-12.05
-13.05
-13.91
-14.45
-14.54
-14.12
-13.25
-12.03
-10.59
-9.01
-7.31
-5.51
-3.64
-1.80
-0.10
1.32
2.38
3.08
3.52
3.85
4.19
4.60
5.02
5.34
5.47
5.44
5.35
5.33
5.46
5.70
5.89
5.86
5.51
4.85
3.99
3.05
2.09
1.13
0.14
-0.89
-1.95
-2.98
-3.96
-4.86
-5.67
-6.36
-6.90
-7.34
-7.75
-8.23
-8.90
-9.75
-10.72
-11.62
-12.27
-12.51
-12.27
-11.52
-10.29
-8.65
-6.66
-4.47
-2.22
-0.09
1.84
3.50
4.92
6.12
7.10
7.84
8.32
8.55
8.58
8.48
8.33
8.17
7.99
7.80
7.59
7.38
7.16
6.92
6.62
6.20
5.61
4.87
4.00
3.07
2.20
1.49
1.00
0.74
0.59
0.40
0.00
-0.70
-1.69
-2.85
-4.03
-5.06
-5.86
-6.42
-6.84
-7.27
-7.89
-8.83
-10.09
-11.51
-12.81
-13.70
-13.94
-13.45
-12.32
-10.69
-8.77
-6.71
-4.63
-2.61
-0.72
1.00
2.50
3.76
4.77
5.54
6.08
6.45
6.73
6.99
7.25
7.51
7.70
7.80
7.79
7.73
7.63
7.52
7.36
7.09
6.67
6.08
5.36
4.59
3.87
3.29
2.89
2.63
2.39
2.00
1.33
0.34
-0.91
-2.28
-3.59
-4.74
-5.67
-6.46
-7.20
-8.01
-8.95
-10.03
-11.22
-12.41
-13.50
-14.35
-14.86
-14.94
-14.52
-13.58
-12.11
-10.17
-7.88
-5.41
-2.98
-0.83
0.85
1.97
2.56
2.81
2.94
3.14
3.45
3.82
4.13
4.34
4.52
4.80
5.28
5.90
6.44
6.65
6.33
5.54
4.50
3.54
2.90
2.63
2.59
2.54
2.27
1.70
0.88
-0.04
-0.96
-1.77
-2.50
-3.19
-3.92
-4.69
-5.46
-6.18
-6.78
-7.29
-7.73
-8.16
-8.56
-8.80
-8.71
-8.11
-6.95
-5.32
-3.41
-1.44
0.47
2.35
4.30
6.38
8.57
10.68
12.49
13.84
14.70
15.16
15.38
15.48
15.53
15.56
15.61
15.74
15.99
16.36
16.75
17.03
17.06
16.77
16.19
15.43
14.61
13.79
12.99
12.15
11.21
10.09
8.74
7.14
5.34
3.42
1.49
-0.33
-1.97
-3.40
-4.68
-5.90
-7.14
-8.47
-9.90
-11.43
-12.95
-14.34
-15.41
-15.99
-15.93
-15.18
-13.83
-12.10
-10.26
-8.53
-7.03
-5.75
-4.59
-3.47
-2.35
-1.28
-0.33
0.41
0.93
1.29
1.57
1.88
2.30
2.85
3.53
4.28
5.01
5.61
5.98
6.05
5.87
5.54
5.18
4.91
4.74
4.59
4.35
3.95
3.39
2.75
2.08
1.42
0.69
-0.16
-1.16
-2.22
-3.21
-4.02
-4.66
-5.26
-6.02
-7.11
-8.55
-10.21
-11.82
-13.09
-13.80
-13.86
-13.30
-12.27
-10.90
-9.31
-7.57
-5.73
-3.88
-2.12
-0.64
0.48
1.18
1.54
1.67
1.71
1.72
1.71
1.67
1.62
1.59
1.60
1.66
1.69
1.60
1.36
1.01
0.67
0.48
0.57
0.92
1.45
2.01
2.48
2.82
3.01
3.10
3.14
3.10
2.96
2.68
2.24
1.68
1.10
0.54
0.02
-0.53
-1.22
-2.16
-3.36
-4.76
-6.22
-7.59
-8.74
-9.55
-9.93
-9.80
-9.15
-7.98
-6.40
-4.58
-2.71
-0.98
0.53
1.77
2.75
3.54
4.14
4.56
4.76
4.71
4.43
4.04
3.71
3.60
3.81
4.29
4.85
5.26
5.36
5.10
4.63
4.14
3.82
3.76
3.87
3.99
3.90
3.51
2.86
2.11
1.45
1.05
0.92
0.96
1.01
0.90
0.57
0.08
-0.51
-1.14
-1.81
-2.60
-3.55
-4.62
-5.63
-6.38
-6.68
-6.49
-5.93
-5.13
-4.24
-3.30
-2.28
-1.16
0.06
1.27
2.37
3.26
3.95
4.49
4.95
5.38
5.76
6.08
6.29
6.36
6.31
6.14
5.88
5.62
5.41
5.32
5.34
5.43
5.50
5.51
5.39
5.10
4.62
3.92
3.01
1.94
0.82
-0.21
-1.07
-1.75
-2.34
-2.98
-3.81
-4.85
-6.04
-7.26
-8.40
-9.43
-10.37
-11.29
-12.24
-13.23
-14.19
-15.00
-15.54
-15.69
-15.37
-14.55
-13.25
-11.58
-9.69
-7.78
-6.05
-4.63
-3.54
-2.73
-2.09
-1.50
-0.91
-0.32
0.22
0.71
1.16
1.62
2.13
2.70
3.31
3.90
4.44
4.95
5.45
5.97
6.52
7.06
7.54
7.87
8.04
8.04
7.91
7.70
7.46
7.20
6.87
6.39
5.68
4.65
3.33
1.82
0.28
-1.12
-2.30
-3.29
-4.20
-5.20
-6.34
-7.60
-8.82
-9.82
-10.46
-10.63
-10.34
-9.60
-8.49
-7.06
-5.41
-3.68
-2.03
-0.60
0.49
1.24
1.71
2.02
2.25
2.45
2.56
2.53
2.33
1.99
1.63
1.45
1.57
2.04
2.78
3.62
4.38
4.97
5.36
5.59
5.70
5.71
5.61
5.37
5.02
4.61
4.22
3.89
3.61
3.30
2.90
2.39
1.76
1.02
0.13
-0.98
-2.39
-4.07
-5.91
-7.74
-9.34
-10.58
-11.39
-11.74
-11.65
-11.11
-10.11
-8.64
-6.77
-4.61
-2.31
-0.04
2.09
4.00
5.63
6.94
7.87
8.38
8.44
8.12
7.53
6.86
6.29
5.90
5.65
5.42
5.09
4.61
4.01
3.40
2.82
2.31
1.80
1.25
0.63
-0.03
-0.65
-1.16
-1.55
-1.90
-2.33
-2.92
-3.68
-4.50
-5.22
-5.71
-5.96
-6.08
-6.26
-6.69
-7.48
-8.59
-9.88
-11.17
-12.29
-13.11
-13.47
-13.25
-12.31
-10.59
-8.16
-5.27
-2.22
0.65
3.15
5.22
6.90
8.28
9.41
10.29
10.92
11.31
11.51
11.56
11.51
11.37
11.16
10.93
10.75
10.65
10.63
10.63
10.53
10.26
9.80
9.16
8.40
7.60
6.79
6.01
5.26
4.51
3.70
2.80
1.77
0.64
-0.54
-1.73
-2.87
-3.93
-4.90
-5.80
-6.63
-7.47
-8.39
-9.54
-10.99
-12.72
-14.54
-16.10
-17.02
-17.04
-16.09
-14.36
-12.16
-9.84
-7.61
-5.57
-3.71
-1.98
-0.38
1.06
2.30
3.34
4.20
4.87
5.34
5.61
5.70
5.71
5.77
5.95
6.29
6.71
7.09
7.37
7.57
7.74
7.90
8.01
7.94
7.59
6.94
6.08
5.18
4.41
3.84
3.47
3.22
3.00
2.74
2.36
1.81
1.06
0.15
-0.81
-1.71
-2.44
-3.02
-3.54
-4.18
-5.07
-6.25
-7.63
-9.02
-10.16
-10.83
-10.86
-10.20
-8.86
-6.99
-4.79
-2.49
-0.29
1.65
3.31
4.71
5.91
6.93
7.79
8.44
8.87
9.09
9.17
9.17
9.15
9.14
9.15
9.18
9.25
9.39
9.58
9.76
9.79
9.57
9.02
8.19
7.20
6.21
5.35
4.64
4.04
3.49
2.92
2.31
1.67
0.99
0.26
-0.54
-1.42
-2.32
-3.18
-3.94
-4.65
-5.37
-6.22
-7.24
-8.42
-9.62
-10.65
-11.30
-11.40
-10.87
-9.72
-8.04
-5.99
-3.75
-1.48
0.67
2.61
4.27
5.58
6.51
7.03
7.20
7.13
6.96
6.82
6.80
6.93
7.18
7.49
7.75
7.89
7.85
7.64
7.35
7.06
6.84
6.69
6.52
6.23
5.75
5.09
4.34
3.60
2.95
2.36
1.76
1.09
0.31
-0.55
-1.43
-2.30
-3.11
-3.88
-4.63
-5.35
-6.07
-6.83
-7.68
-8.66
-9.79
-10.97
-12.05
-12.77
-12.97
-12.55
-11.60
-10.30
-8.85
-7.41
-6.07
-4.84
-3.74
-2.76
-1.94
-1.26
-0.71
-0.25
0.12
0.42
0.62
0.76
0.90
1.10
1.44
1.88
2.36
2.75
2.94
2.85
2.51
1.99
1.45
1.00
0.72
0.60
0.53
0.40
0.13
-0.25
-0.68
-1.06
-1.38
-1.69
-2.07
-2.60
-3.23
-3.90
-4.53
-5.09
-5.62
-6.19
-6.87
-7.67
-8.52
-9.30
-9.83
-9.94
-9.48
-8.45
-6.97
-5.27
-3.60
-2.12
-0.83
0.36
1.56
2.76
3.85
4.66
5.11
5.23
5.20
5.20
5.34
5.63
5.97
6.31
6.64
7.01
7.47
7.97
8.39
8.56
8.38
7.86
7.09
6.22
5.36
4.56
3.79
3.00
2.13
1.15
0.07
-1.09
-2.25
-3.32
-4.23
-4.94
-5.49
-5.97
-6.49
-7.15
-7.96
-8.90
-9.88
-10.74
-11.36
-11.57
-11.28
-10.47
-9.20
-7.61
-5.85
-4.06
-2.30
-0.60
1.01
2.48
3.73
4.70
5.35
5.74
5.95
6.09
6.24
6.44
6.66
6.87
7.07
7.25
7.41
7.56
7.69
7.77
7.72
7.48
6.98
6.23
5.28
4.26
3.28
2.45
1.75
1.11
0.41
-0.41
-1.34
-2.31
-3.24
-4.08
-4.88
-5.68
-6.59
-7.65
-8.87
-10.25
-11.74
-13.23
-14.54
-15.42
-15.65
-15.08
-13.72
-11.73
-9.36
-6.90
-4.60
-2.61
-1.03
0.14
0.97
1.57
2.05
2.53
3.03
3.55
4.07
4.56
5.01
5.40
5.71
5.88
5.89
5.74
5.47
5.11
4.73
4.37
4.07
3.80
3.49
3.04
2.38
1.51
0.50
-0.48
-1.33
-2.00
-2.59
-3.24
-4.03
-4.94
-5.91
-6.82
-7.69
-8.62
-9.79
-11.29
-13.08
-14.98
-16.68
-17.87
-18.31
-17.85
-16.49
-14.35
-11.68
-8.77
-5.91
-3.27
-0.96
1.04
2.78
4.29
5.54
6.47
7.04
7.29
7.32
7.30
7.33
7.46
7.66
7.84
7.93
7.88
7.70
7.40
6.99
6.47
5.83
5.08
4.25
3.41
2.58
1.75
0.89
-0.05
-1.09
-2.18
-3.23
-4.14
-4.83
-5.33
-5.75
-6.27
-7.04
-8.18
-9.67
-11.39
-13.10
-14.50
-15.32
-15.34
-14.47
-12.75
-10.37
-7.61
-4.79
-2.18
0.09
2.01
3.68
5.18
6.56
7.77
8.75
9.51
10.08
10.56
11.03
11.50
11.96
12.33
12.55
12.61
12.53
12.36
12.17
11.96
11.75
11.46
11.01
10.28
9.24
7.94
6.50
5.09
3.79
2.63
1.55
0.48
-0.64
-1.83
-3.09
-4.44
-5.91
-7.53
-9.32
-11.21
-13.08
-14.78
-16.14
-16.96
-17.08
-16.39
-14.91
-12.74
-10.11
-7.26
-4.42
-1.75
0.72
2.98
5.02
6.78
8.18
9.17
9.81
10.25
10.67
11.22
11.90
12.62
13.21
13.58
13.69
13.61
13.46
13.32
13.20
13.04
12.76
12.30
11.67
10.91
10.12
9.36
8.62
7.84
6.95
5.90
4.72
3.49
2.33
1.27
0.34
-0.53
-1.39
-2.32
-3.35
-4.56
-6.01
-7.68
-9.42
-10.92
-11.82
-11.78
-10.67
-8.64
-6.06
-3.34
-0.83
1.35
3.22
4.91
6.47
7.90
9.09
9.92
10.32
10.32
10.00
9.53
9.06
8.73
8.58
8.54
8.51
8.34
7.99
7.51
7.03
6.65
6.36
6.07
5.63
4.96
4.07
3.07
2.04
1.06
0.10
-0.88
-1.88
-2.87
-3.84
-4.75
-5.62
-6.47
-7.30
-8.14
-9.01
-9.99
-11.20
-12.69
-14.36
-15.99
-17.24
-17.80
-17.48
-16.25
-14.30
-11.91
-9.37
-6.90
-4.65
-2.62
-0.79
0.86
2.28
3.41
4.20
4.69
5.01
5.31
5.70
6.16
6.60
6.91
7.04
7.05
7.04
7.11
7.29
7.50
7.66
7.68
7.54
7.29
7.01
6.74
6.51
6.26
5.92
5.44
4.81
4.06
3.26
2.43
1.59
0.69
-0.29
-1.35
-2.49
-3.69
-4.95
-6.26
-7.55
-8.69
-9.44
-9.56
-8.90
-7.45
-5.37
-2.93
-0.39
2.03
4.23
6.12
7.64
8.74
9.44
9.82
10.07
10.36
10.80
11.36
11.94
12.41
12.66
12.63
12.33
11.77
11.00
10.09
9.13
8.22
7.41
6.68
5.97
5.21
4.37
3.47
2.52
1.50
0.37
-0.87
-2.19
-3.48
-4.65
-5.68
-6.63
-7.59
-8.59
-9.61
-10.55
-11.39
-12.18
-13.04
-14.10
-15.36
-16.71
-17.89
-18.62
-18.70
-18.06
-16.76
-14.90
-12.63
-10.12
-7.55
-5.08
-2.82
-0.84
0.88
2.34
3.58
4.58
5.34
5.88
6.31
6.75
7.30
7.95
8.60
9.09
9.32
9.29
9.16
9.09
9.17
9.33
9.39
9.18
8.61
7.78
6.85
5.99
5.25
4.53
3.71
2.70
1.53
0.30
-0.87
-1.92
-2.90
-3.87
-4.86
-5.87
-6.83
-7.74
-8.63
-9.58
-10.72
-12.09
-13.63
-15.18
-16.53
-17.42
-17.73
-17.40
-16.51
-15.22
-13.71
-12.16
-10.71
-9.47
-8.51
-7.96
-7.90
-8.32
-9.08
-9.92
-10.50
-10.55
-10.01
-8.98
-7.74
-6.58
-5.69
-5.11
-4.73
-4.40
-4.00
-3.55
-3.14
-2.89
-2.85
-2.90
-2.87
-2.51
-1.72
-0.53
0.93
2.50
4.19
6.15
8.64
11.83
15.69
19.92
24.08
27.70
30.48
32.28
33.06
32.82
31.48
28.99
25.36
20.84
15.86
11.05
7.01
4.15
2.60
2.13
2.32
2.69
2.88
2.77
2.42
1.99
1.59
1.24
0.85
0.31
-0.44
-1.36
-2.36
-3.35
-4.30
-5.18
-6.00
-6.75
-7.38
-7.82
-8.01
-7.93
-7.58
-7.00
-6.24
-5.36
-4.44
-3.51
-2.63
-1.82
-1.17
-0.76
-0.71
-1.11
-2.01
-3.38
-5.11
-7.06
-9.12
-11.24
-13.45
-15.84
-18.50
-21.46
-24.67
-27.92
-30.94
-33.37
-34.87
-35.26
-34.47
-32.59
-29.81
-26.31
-22.24
-17.70
-12.77
-7.55
-2.21
3.07
8.10
12.71
16.77
20.20
22.94
24.98
26.41
27.30
27.76
27.89
27.70
27.20
26.41
25.39
24.23
23.02
21.79
20.48
19.01
17.32
15.44
13.47
11.53
9.68
7.93
6.18
4.34
2.34
0.27
-1.76
-3.57
-5.06
-6.24
-7.21
-8.11
-9.10
-10.28
-11.74
-13.49
-15.49
-17.58
-19.49
-20.87
-21.41
-20.96
-19.61
-17.59
-15.25
-12.84
-10.50
-8.25
-6.11
-4.10
-2.27
-0.64
0.76
1.96
2.99
3.82
4.41
4.75
4.87
4.91
5.04
5.39
5.97
6.73
7.49
8.10
8.46
8.52
8.32
7.93
7.42
6.82
6.15
5.42
4.62
3.75
2.78
1.66
0.39
-1.00
-2.41
-3.69
-4.67
-5.24
-5.39
-5.22
-4.96
-4.80
-4.91
-5.33
-6.03
-6.93
-7.91
-8.76
-9.25
-9.08
-7.98
-5.85
-2.72
1.14
5.45
9.91
14.36
18.67
22.66
26.08
28.57
29.79
29.55
27.90
25.11
21.60
17.79
14.04
10.55
7.44
4.71
2.36
0.36
-1.32
-2.72
-3.92
-5.01
-6.10
-7.20
-8.28
-9.25
-10.06
-10.69
-11.18
-11.62
-12.11
-12.67
-13.29
-13.90
-14.42
-14.82
-15.10
-15.28
-15.40
-15.46
-15.47
-15.44
-15.40
-15.40
-15.51
-15.81
-16.33
-17.00
-17.62
-17.90
-17.58
-16.49
-14.65
-12.24
-9.52
-6.74
-4.04
-1.48
0.93
3.15
5.08
6.60
7.70
8.41
8.87
9.21
9.53
9.87
10.22
10.58
10.99
11.52
12.20
13.09
14.17
15.35
16.53
17.61
18.50
19.14
19.46
19.44
18.98
18.02
16.51
14.49
12.08
9.44
6.74
4.11
1.61
-0.77
-3.04
-5.19
-7.20
-9.01
-10.59
-11.97
-13.20
-14.45
-15.83
-17.42
-19.15
-20.82
-22.13
-22.81
-22.65
-21.62
-19.80
-17.36
-14.49
-11.39
-8.24
-5.24
-2.56
-0.33
1.43
2.80
3.94
5.05
6.31
7.88
9.83
12.15
14.74
17.39
19.88
21.95
23.38
24.02
23.79
22.67
20.71
18.05
14.90
11.43
7.79
4.10
0.46
-3.01
-6.13
-8.71
-10.61
-11.85
-12.49
-12.67
-12.42
-11.72
-10.51
-8.79
-6.65
-4.30
-1.98
0.08
1.69
2.73
3.15
3.01
2.50
1.89
1.52
1.63
2.34
3.56
5.10
6.72
8.20
9.39
10.19
10.57
10.55
10.21
9.65
9.05
8.52
8.14
7.91
7.80
7.75
7.68
7.57
7.35
7.05
6.67
6.26
5.86
5.50
5.16
4.76
4.25
3.58
2.76
1.86
0.92
0.00
-0.89
-1.74
-2.57
-3.39
-4.19
-4.97
-5.73
-6.45
-7.14
-7.77
-8.34
-8.87
-9.42
-10.05
-10.84
-11.84
-13.02
-14.23
-15.26
-15.81
-15.64
-14.65
-12.93
-10.72
-8.35
-6.10
-4.11
-2.36
-0.77
0.75
2.22
3.57
4.67
5.48
5.97
6.25
6.40
6.54
6.69
6.83
6.90
6.84
6.66
6.42
6.19
6.04
5.98
5.91
5.69
5.23
4.51
3.60
2.65
1.77
0.95
0.14
-0.77
-1.77
-2.82
-3.82
-4.74
-5.59
-6.48
-7.49
-8.63
-9.86
-11.09
-12.31
-13.56
-14.89
-16.26
-17.53
-18.43
-18.72
-18.19
-16.85
-14.78
-12.18
-9.26
-6.25
-3.39
-0.90
1.04
2.42
3.32
3.98
4.61
5.36
6.23
7.15
8.00
8.71
9.27
9.70
10.01
10.21
10.31
10.32
10.28
10.20
10.05
9.75
9.24
8.51
7.63
6.68
5.75
4.86
3.95
2.96
1.88
0.75
-0.31
-1.25
-2.07
-2.88
-3.82
-4.95
-6.29
-7.77
-9.28
-10.69
-11.87
-12.67
-12.94
-12.56
-11.52
-9.88
-7.82
-5.50
-3.09
-0.69
1.65
3.83
5.77
7.36
8.50
9.19
9.48
9.47
9.29
9.09
8.98
9.01
9.19
9.43
9.59
9.57
9.31
8.84
8.25
7.63
6.99
6.31
5.52
4.60
3.57
2.52
1.50
0.48
-0.60
-1.83
-3.24
-4.73
-6.18
-7.43
-8.44
-9.31
-10.22
-11.37
-12.85
-14.56
-16.22
-17.45
-17.91
-17.39
-15.88
-13.54
-10.66
-7.55
-4.49
-1.68
0.78
2.84
4.49
5.77
6.73
7.46
8.05
8.61
9.24
9.98
10.78
11.59
12.28
12.81
13.14
13.30
13.34
13.26
13.06
12.73
12.25
11.65
10.95
10.17
9.29
8.26
7.07
5.74
4.35
2.98
1.66
0.37
-0.92
-2.28
-3.69
-5.15
-6.62
-8.11
-9.65
-11.31
-13.06
-14.80
-16.28
-17.24
-17.42
-16.73
-15.25
-13.20
-10.82
-8.33
-5.83
-3.37
-0.98
1.28
3.31
5.02
6.38
7.44
8.28
8.94
9.45
9.76
9.90
9.91
9.91
9.96
10.09
10.25
10.35
10.32
10.15
9.83
9.39
8.80
8.04
7.10
6.00
4.79
3.58
2.43
1.37
0.36
-0.64
-1.69
-2.77
-3.86
-4.86
-5.75
-6.51
-7.26
-8.09
-9.11
-10.34
-11.75
-13.20
-14.55
-15.61
-16.19
-16.07
-15.09
-13.22
-10.59
-7.49
-4.27
-1.24
1.42
3.65
5.48
6.96
8.14
9.07
9.81
10.42
10.97
11.47
11.85
12.05
12.06
11.93
11.75
11.61
11.53
11.42
11.20
10.78
10.19
9.52
8.87
8.29
7.73
7.13
6.41
5.56
4.61
3.62
2.64
1.66
0.68
-0.33
-1.39
-2.48
-3.64
-4.89
-6.24
-7.70
-9.22
-10.74
-12.21
-13.59
-14.82
-15.81
-16.41
-16.49
-15.92
-14.69
-12.91
-10.79
-8.57
-6.46
-4.60
-3.04
-1.73
-0.62
0.37
1.25
2.04
2.71
3.26
3.69
4.01
4.23
4.34
4.33
4.18
3.91
3.54
3.13
2.76
2.45
2.17
1.85
1.37
0.63
-0.39
-1.58
-2.76
-3.74
-4.43
-4.86
-5.14
-5.43
-5.82
-6.29
-6.73
-7.03
-7.12
-7.03
-6.91
-6.90
-7.12
-7.51
-7.91
-8.05
-7.71
-6.79
-5.35
-3.59
-1.72
0.13
1.92
3.70
5.51
7.30
8.90
10.14
10.89
11.13
10.99
10.71
10.45
10.32
10.27
10.21
10.07
9.82
9.52
9.21
8.89
8.50
7.96
7.24
6.41
5.56
4.79
4.10
3.42
2.63
1.72
0.72
-0.25
-1.09
-1.79
-2.42
-3.04
-3.70
-4.38
-5.08
-5.84
-6.76
-7.89
-9.19
-10.42
-11.26
-11.37
-10.65
-9.21
-7.35
-5.38
-3.50
-1.73
0.03
1.84
3.64
5.29
6.64
7.61
8.25
8.66
8.98
9.23
9.39
9.36
9.09
8.59
7.99
7.48
7.22
7.30
7.65
8.10
8.40
8.35
7.89
7.06
6.00
4.89
3.82
2.81
1.84
0.87
-0.15
-1.24
-2.45
-3.82
-5.31
-6.85
-8.34
-9.71
-10.94
-12.09
-13.23
-14.38
-15.42
-16.19
-16.48
-16.17
-15.28
-13.92
-12.22
-10.31
-8.30
-6.23
-4.17
-2.21
-0.45
0.97
1.95
2.46
2.56
2.41
2.25
2.29
2.65
3.33
4.21
5.11
5.86
6.38
6.63
6.63
6.45
6.11
5.63
4.97
4.11
2.98
1.58
-0.08
-1.89
-3.72
-5.40
-6.85
-8.03
-8.98
-9.78
-10.50
-11.16
-11.78
-12.38
-13.02
-13.75
-14.62
-15.59
-16.52
-17.18
-17.37
-16.96
-15.93
-14.35
-12.37
-10.10
-7.67
-5.21
-2.88
-0.84
0.79
1.96
2.71
3.12
3.31
3.37
3.38
3.42
3.56
3.88
4.39
5.02
5.63
6.08
6.25
6.14
5.83
5.43
5.04
4.72
4.41
4.07
3.60
2.93
2.01
0.84
-0.54
-2.04
-3.52
-4.81
-5.79
-6.39
-6.70
-6.92
-7.23
-7.77
-8.48
-9.17
-9.50
-9.24
-8.26
-6.61
-4.50
-2.15
0.26
2.63
4.92
7.08
9.10
10.87
12.32
13.36
13.96
14.14
14.01
13.70
13.43
13.33
13.46
13.76
14.08
14.22
14.04
13.50
12.70
11.77
10.83
9.93
9.03
8.06
6.94
5.64
4.20
2.70
1.21
-0.22
-1.59
-2.94
-4.32
-5.73
-7.15
-8.53
-9.85
-11.11
-12.37
-13.68
-15.02
-16.29
-17.28
-17.78
-17.62
-16.73
-15.16
-13.05
-10.61
-8.06
-5.59
-3.34
-1.37
0.29
1.66
2.78
3.64
4.26
4.66
4.89
5.05
5.25
5.56
6.02
6.58
7.13
7.57
7.82
7.79
7.48
6.98
6.38
5.79
5.26
4.79
4.26
3.58
2.68
1.58
0.41
-0.75
-1.81
-2.75
-3.66
-4.58
-5.58
-6.66
-7.81
-9.01
-10.24
-11.43
-12.46
-13.19
-13.41
-12.98
-11.87
-10.17
-8.06
-5.73
-3.35
-1.02
1.21
3.30
5.15
6.66
7.76
8.46
8.89
9.17
9.43
9.66
9.81
9.81
9.66
9.42
9.20
9.05
8.92
8.73
8.39
7.88
7.24
6.55
5.87
5.19
4.47
3.69
2.87
2.03
1.20
0.34
-0.59
-1.63
-2.77
-3.95
-5.10
-6.24
-7.41
-8.70
-10.12
-11.60
-12.98
-14.05
-14.64
-14.61
-13.92
-12.59
-10.68
-8.32
-5.68
-2.96
-0.36
1.95
3.87
5.38
6.48
7.23
7.68
7.88
7.86
7.68
7.39
7.08
6.86
6.79
6.87
7.02
7.13
7.08
6.83
6.40
5.88
5.33
4.75
4.08
3.24
2.23
1.11
-0.01
-1.02
-1.89
-2.65
-3.37
-4.14
-4.98
-5.90
-6.91
-7.98
-9.13
-10.36
-11.63
-12.82
-13.75
-14.20
-13.97
-12.97
-11.28
-9.10
-6.69
-4.29
-2.03
0.04
1.94
3.61
4.96
5.85
6.21
6.07
5.60
5.05
4.64
4.49
4.59
4.86
5.18
5.47
5.69
5.85
5.92
5.87
5.67
5.29
4.78
4.19
3.57
2.93
2.21
1.34
0.31
-0.83
-1.98
-3.01
-3.86
-4.59
-5.34
-6.28
-7.48
-8.88
-10.28
-11.40
-12.01
-11.99
-11.33
-10.09
-8.38
-6.30
-3.94
-1.42
1.09
3.40
5.34
6.80
7.81
8.45
8.88
9.21
9.50
9.74
9.91
9.99
10.02
10.05
10.10
10.16
10.14
9.95
9.55
8.96
8.26
7.54
6.83
6.09
5.27
4.30
3.15
1.85
0.51
-0.78
-1.91
-2.88
-3.73
-4.60
-5.59
-6.75
-8.04
-9.38
-10.68
-11.92
-13.13
-14.32
-15.40
-16.14
-16.27
-15.53
-13.85
-11.37
-8.40
-5.28
-2.31
0.38
2.71
4.65
6.17
7.20
7.77
7.95
7.92
7.90
8.05
8.43
8.99
9.59
10.08
10.35
10.38
10.18
9.86
9.52
9.26
9.11
9.04
8.91
8.60
8.04
7.28
6.43
5.61
4.86
4.11
3.20
2.00
0.49
-1.20
-2.84
-4.25
-5.33
-6.12
-6.75
-7.37
-8.11
-9.08
-10.35
-11.94
-13.72
-15.45
-16.81
-17.40
-16.99
-15.55
-13.27
-10.50
-7.60
-4.85
-2.40
-0.24
1.64
3.26
4.57
5.53
6.08
6.26
6.22
6.13
6.21
6.59
7.27
8.13
9.01
9.71
10.13
10.24
10.10
9.81
9.43
8.98
8.44
7.81
7.05
6.22
5.34
4.50
3.75
3.12
2.56
1.99
1.24
0.21
-1.15
-2.75
-4.40
-5.88
-7.08
-8.03
-8.92
-9.98
-11.41
-13.22
-15.29
-17.37
-19.19
-20.51
-21.18
-21.08
-20.23
-18.72
-16.79
-14.76
-12.95
-11.53
-10.51
-9.71
-8.89
-7.85
-6.52
-4.95
-3.23
-1.43
0.44
2.41
4.52
6.73
8.97
11.10
13.01
14.64
16.00
17.10
17.98
18.67
19.16
19.41
19.36
18.95
18.18
17.10
15.86
14.62
13.53
12.65
11.96
11.32
10.57
9.60
8.40
7.10
5.88
4.90
4.20
3.72
3.27
2.65
1.64
0.13
-1.87
-4.21
-6.63
-8.82
-10.47
-11.39
-11.52
-11.01
-10.15
-9.30
-8.75
-8.69
-9.14
-10.05
-11.33
-12.87
-14.54
-16.13
-17.40
-18.03
-17.76
-16.47
-14.15
-10.95
-7.08
-2.80
1.62
5.85
9.61
12.68
14.93
16.38
17.13
17.31
17.05
16.45
15.61
14.64
13.65
12.68
11.73
10.76
9.68
8.46
7.13
5.74
4.36
3.01
1.65
0.27
-1.11
-2.45
-3.68
-4.79
-5.80
-6.76
-7.65
-8.40
-8.81
-8.73
-8.05
-6.82
-5.20
-3.42
-1.67
-0.12
1.17
2.15
2.82
3.17
3.23
3.03
2.62
2.09
1.57
1.16
0.94
0.93
1.04
1.15
1.15
1.00
0.75
0.47
0.22
0.01
-0.22
-0.54
-0.96
-1.45
-1.91
-2.29
-2.59
-2.88
-3.23
-3.71
-4.29
-4.90
-5.49
-5.99
-6.46
-6.95
-7.57
-8.35
-9.30
-10.38
-11.52
-12.63
-13.54
-14.05
-13.97
-13.16
-11.61
-9.48
-7.01
-4.46
-1.98
0.38
2.60
4.66
6.45
7.82
8.69
9.05
9.06
8.96
8.93
9.08
9.33
9.54
9.59
9.44
9.18
8.96
8.88
8.93
8.95
8.76
8.25
7.41
6.39
5.37
4.49
3.81
3.27
2.77
2.20
1.50
0.65
-0.33
-1.41
-2.51
-3.60
-4.60
-5.50
-6.30
-7.06
-7.87
-8.81
-9.92
-11.20
-12.55
-13.79
-14.69
-15.01
-14.55
-13.25
-11.19
-8.58
-5.70
-2.81
-0.11
2.27
4.29
5.96
7.28
8.29
9.02
9.53
9.87
10.08
10.14
10.08
9.90
9.67
9.48
9.43
9.54
9.74
9.91
9.89
9.58
8.96
8.08
7.07
6.07
5.18
4.46
3.89
3.41
2.91
2.27
1.35
0.10
-1.41
-3.04
-4.55
-5.78
-6.65
-7.25
-7.78
-8.45
-9.41
-10.67
-12.14
-13.64
-14.93
-15.83
-16.14
-15.78
-14.69
-12.95
-10.69
-8.07
-5.31
-2.59
-0.08
2.07
3.78
5.02
5.84
6.33
6.59
6.70
6.73
6.71
6.66
6.62
6.65
6.79
7.02
7.31
7.56
7.66
7.52
7.15
6.59
5.95
5.31
4.71
4.11
3.48
2.77
1.99
1.17
0.33
-0.49
-1.29
-2.08
-2.84
-3.62
-4.45
-5.36
-6.33
-7.28
-8.13
-8.83
-9.41
-10.00
-10.71
-11.49
-12.12
-12.25
-11.60
-10.08
-7.87
-5.35
-2.83
-0.53
1.51
3.33
4.91
6.14
6.86
7.03
6.78
6.40
6.18
6.29
6.71
7.22
7.60
7.69
7.51
7.18
6.87
6.70
6.65
6.65
6.59
6.40
6.07
5.61
5.09
4.52
3.89
3.20
2.41
1.55
0.63
-0.31
-1.23
-2.12
-2.96
-3.74
-4.47
-5.18
-5.95
-6.86
-7.91
-9.06
-10.15
-11.00
-11.44
-11.35
-10.71
-9.54
-7.93
-5.98
-3.86
-1.77
0.15
1.78
3.12
4.18
5.00
5.60
5.97
6.13
6.16
6.18
6.29
6.55
6.89
7.23
7.42
7.41
7.16
6.74
6.19
5.61
5.06
4.58
4.16
3.78
3.36
2.86
2.28
1.65
0.98
0.34
-0.30
-0.95
-1.66
-2.47
-3.35
-4.31
-5.27
-6.21
-7.11
-8.00
-8.92
-9.88
-10.82
-11.58
-11.97
-11.83
-11.11
-9.88
-8.31
-6.61
-4.93
-3.37
-1.93
-0.60
0.61
1.70
2.63
3.42
4.09
4.66
5.16
5.58
5.89
6.05
6.06
5.94
5.78
5.60
5.45
5.33
5.22
5.09
4.95
4.77
4.56
4.31
4.03
3.71
3.32
2.80
2.10
1.23
0.24
-0.76
-1.65
-2.36
-2.90
-3.36
-3.84
-4.37
-4.93
-5.49
-6.04
-6.69
-7.52
-8.58
-9.79
-10.93
-11.71
-11.88
-11.34
-10.16
-8.55
-6.75
-4.92
-3.17
-1.52
0.03
1.38
2.43
3.05
3.21
2.99
2.61
2.30
2.24
2.49
2.98
3.53
3.99
4.20
4.13
3.84
3.44
3.08
2.83
2.70
2.62
2.50
2.24
1.87
1.46
1.10
0.82
0.56
0.22
-0.28
-0.96
-1.73
-2.53
-3.28
-4.00
-4.73
-5.49
-6.28
-7.05
-7.79
-8.51
-9.26
-10.11
-10.97
-11.66
-11.92
-11.51
-10.33
-8.52
-6.36
-4.20
-2.29
-0.73
0.51
1.57
2.55
3.49
4.36
5.07
5.56
5.81
5.85
5.76
5.67
5.67
5.82
6.12
6.51
6.89
7.15
7.22
7.05
6.68
6.14
5.49
4.82
4.19
3.65
3.20
2.80
2.40
1.93
1.36
0.67
-0.15
-1.06
-2.04
-3.03
-3.98
-4.83
-5.56
-6.18
-6.76
-7.39
-8.19
-9.19
-10.34
-11.51
-12.47
-13.01
-12.98
-12.28
-10.96
-9.11
-6.91
-4.58
-2.31
-0.28
1.40
2.73
3.74
4.49
5.07
5.47
5.69
5.76
5.71
5.62
5.60
5.72
6.00
6.39
6.82
7.19
7.42
7.46
7.31
6.96
6.48
5.93
5.39
4.90
4.46
4.05
3.60
3.10
2.53
1.92
1.29
0.66
0.01
-0.64
-1.29
-1.89
-2.39
-2.77
-3.05
-3.29
-3.59
-4.07
-4.84
-5.96
-7.41
-9.05
-10.61
-11.79
-12.34
-12.12
-11.16
-9.62
-7.72
-5.65
-3.54
-1.45
0.58
2.44
4.04
5.23
5.97
6.33
6.49
6.62
6.86
7.24
7.70
8.13
8.49
8.74
8.88
8.87
8.67
8.25
7.63
6.92
6.26
5.79
5.54
5.45
5.39
5.23
4.90
4.41
3.83
3.22
2.60
1.93
1.18
0.36
-0.47
-1.23
-1.84
-2.31
-2.68
-3.08
-3.59
-4.25
-5.06
-5.99
-7.00
-8.05
-9.10
-10.04
-10.76
-11.12
-10.99
-10.31
-9.07
-7.33
-5.23
-3.01
-0.87
0.98
2.44
3.52
4.32
4.93
5.42
5.81
6.07
6.18
6.15
6.05
5.92
5.76
5.57
5.32
5.01
4.73
4.53
4.47
4.52
4.60
4.62
4.51
4.25
3.90
3.50
3.13
2.79
2.47
2.12
1.62
0.93
-0.01
-1.12
-2.28
-3.34
-4.16
-4.68
-4.94
-5.03
-5.10
-5.27
-5.62
-6.19
-6.98
-7.92
-8.93
-9.82
-10.41
-10.48
-9.92
-8.72
-7.02
-5.04
-2.99
-0.99
0.89
2.64
4.22
5.52
6.41
6.85
6.89
6.74
6.62
6.68
6.93
7.20
7.32
7.18
6.83
6.43
6.16
6.13
6.31
6.58
6.74
6.69
6.42
6.00
5.56
5.19
4.90
4.66
4.39
4.02
3.50
2.79
1.88
0.80
-0.36
-1.48
-2.44
-3.16
-3.66
-4.04
-4.47
-5.08
-5.96
-7.08
-8.35
-9.61
-10.69
-11.46
-11.82
-11.74
-11.23
-10.34
-9.15
-7.77
-6.27
-4.76
-3.28
-1.85
-0.49
0.76
1.81
2.59
3.09
3.37
3.55
3.78
4.16
4.67
5.20
5.60
5.77
5.68
5.44
5.19
5.08
5.16
5.34
5.49
5.44
5.08
4.43
3.64
2.87
2.28
1.91
1.70
1.52
1.25
0.83
0.24
-0.47
-1.24
-1.99
-2.69
-3.29
-3.85
-4.42
-5.07
-5.84
-6.75
-7.76
-8.82
-9.88
-10.82
-11.51
-11.78
-11.47
-10.53
-8.99
-7.06
-4.99
-3.06
-1.45
-0.19
0.77
1.52
2.13
2.66
3.11
3.46
3.71
3.85
3.89
3.84
3.74
3.58
3.37
3.07
2.63
2.03
1.29
0.46
-0.41
-1.29
-2.22
-3.22
-4.30
-5.39
-6.44
-7.39
-8.31
-9.37
-10.70
-12.37
-14.29
-16.28
-18.12
-19.73
-21.11
-22.40
-23.70
-25.12
-26.68
-28.26
-29.66
-30.43
-30.01
-27.81
-23.43
-16.84
-8.47
0.92
10.43
19.34
27.15
33.67
38.86
42.74
45.33
46.69
46.93
46.26
44.97
43.29
41.42
39.42
37.30
35.01
32.53
29.87
27.11
24.41
21.89
19.64
17.62
15.66
13.57
11.21
8.63
6.00
3.56
1.46
-0.30
-1.86
-3.34
-4.82
-6.26
-7.57
-8.67
-9.58
-10.37
-11.15
-11.98
-12.93
-14.05
-15.38
-16.91
-18.51
-19.90
-20.77
-20.84
-20.07
-18.63
-16.86
-15.12
-13.65
-12.51
-11.64
-10.98
-10.46
-10.07
-9.83
-9.78
-9.89
-10.10
-10.33
-10.52
-10.64
-10.73
-10.86
-11.15
-11.64
-12.32
-13.01
-13.45
-13.34
-12.44
-10.72
-8.32
-5.51
-2.62
0.14
2.72
5.16
7.54
9.82
11.86
13.41
14.32
14.55
14.19
13.43
12.44
11.31
10.08
8.77
7.47
6.29
5.36
4.76
4.52
4.58
4.89
5.39
6.03
6.75
7.48
8.13
8.60
8.84
8.79
8.45
7.88
7.16
6.42
5.80
5.44
5.37
5.58
5.94
6.34
6.68
6.88
6.89
6.69
6.26
5.63
4.88
4.07
3.28
2.51
1.72
0.82
-0.21
-1.34
-2.45
-3.40
-4.10
-4.53
-4.79
-4.99
-5.31
-5.85
-6.64
-7.64
-8.70
-9.63
-10.21
-10.26
-9.69
-8.52
-6.86
-4.88
-2.79
-0.74
1.13
2.76
4.10
5.10
5.77
6.11
6.19
6.12
6.02
5.98
6.03
6.09
6.05
5.81
5.36
4.80
4.27
3.94
3.86
3.95
4.03
3.92
3.47
2.69
1.68
0.59
-0.46
-1.42
-2.31
-3.14
-3.92
-4.61
-5.16
-5.59
-5.99
-6.52
-7.31
-8.40
-9.66
-10.88
-11.84
-12.37
-12.42
-12.05
-11.32
-10.28
-8.96
-7.39
-5.62
-3.77
-2.03
-0.55
0.56
1.25
1.56
1.61
1.50
1.35
1.27
1.31
1.47
1.69
1.88
1.97
1.93
1.80
1.62
1.44
1.27
1.08
0.83
0.52
0.17
-0.20
-0.64
-1.17
-1.84
-2.65
-3.53
-4.37
-5.10
-5.70
-6.20
-6.69
-7.22
-7.79
-8.40
-8.99
-9.53
-9.92
-10.07
-9.84
-9.09
-7.76
-5.90
-3.67
-1.34
0.84
2.69
4.18
5.38
6.39
7.33
8.20
8.97
9.60
10.05
10.37
10.66
10.99
11.37
11.71
11.88
11.78
11.44
10.96
10.50
10.14
9.84
9.47
8.86
7.97
6.87
5.75
4.73
3.85
3.08
2.32
1.52
0.68
-0.15
-0.95
-1.74
-2.61
-3.62
-4.77
-5.98
-7.11
-7.99
-8.49
-8.51
-8.07
-7.21
-6.06
-4.76
-3.43
-2.15
-0.94
0.18
1.26
2.25
3.11
3.78
4.23
4.48
4.63
4.78
4.95
5.11
5.16
5.01
4.64
4.17
3.74
3.47
3.42
3.52
3.64
3.63
3.43
3.01
2.43
1.77
1.11
0.47
-0.11
-0.63
-1.10
-1.51
-1.88
-2.27
-2.73
-3.33
-4.08
-4.97
-5.91
-6.82
-7.60
-8.20
-8.59
-8.72
-8.56
-8.08
-7.30
-6.25
-5.04
-3.78
-2.57
-1.43
-0.37
0.64
1.59
2.43
3.12
3.58
3.81
3.81
3.65
3.43
3.27
3.25
3.41
3.71
4.04
4.27
4.28
4.03
3.59
3.11
2.69
2.40
2.24
2.15
2.05
1.86
1.53
1.03
0.34
-0.47
-1.29
-2.01
-2.57
-2.99
-3.36
-3.79
-4.35
-5.09
-5.99
-7.01
-8.08
-9.06
-9.79
-10.08
-9.80
-8.96
-7.73
-6.36
-5.08
-4.00
-3.08
-2.21
-1.30
-0.40
0.38
0.89
1.10
1.06
0.96
0.93
1.08
1.37
1.71
1.96
2.09
2.08
2.01
1.93
1.89
1.88
1.84
1.67
1.33
0.82
0.22
-0.38
-0.91
-1.41
-1.96
-2.63
-3.44
-4.29
-5.04
-5.58
-5.87
-5.99
-6.07
-6.25
-6.56
-7.01
-7.54
-8.13
-8.75
-9.35
-9.82
-10.05
-9.87
-9.21
-8.14
-6.79
-5.39
-4.08
-2.95
-1.96
-1.10
-0.35
0.26
0.69
1.00
1.27
1.62
2.09
2.62
3.09
3.40
3.53
3.56
3.64
3.89
4.36
5.01
5.74
6.43
6.99
7.34
7.46
7.35
7.07
6.69
6.28
5.89
5.51
5.14
4.75
4.32
3.81
3.17
2.38
1.42
0.34
-0.83
-2.05
-3.32
-4.65
-6.00
-7.30
-8.38
-9.04
-9.15
-8.68
-7.71
-6.45
-5.10
-3.84
-2.73
-1.75
-0.79
0.19
1.19
2.08
2.68
2.88
2.68
2.24
1.79
1.49
1.40
1.49
1.66
1.87
2.17
2.64
3.34
4.20
5.10
5.83
6.26
6.38
6.26
6.05
5.87
5.79
5.80
5.82
5.77
5.54
5.06
4.27
3.18
1.87
0.45
-0.97
-2.33
-3.64
-4.92
-6.23
-7.54
-8.78
-9.82
-10.55
-10.86
-10.70
-10.07
-9.02
-7.62
-5.99
-4.24
-2.50
-0.89
0.50
1.60
2.42
2.97
3.34
3.59
3.77
3.89
3.91
3.81
3.59
3.29
2.98
2.72
2.60
2.67
2.97
3.52
4.25
5.03
5.71
6.13
6.23
6.02
5.59
5.05
4.46
3.88
3.32
2.77
2.22
1.67
1.12
0.54
-0.08
-0.78
-1.62
-2.65
-3.85
-5.18
-6.46
-7.50
-8.12
-8.21
-7.76
-6.89
-5.78
-4.58
-3.40
-2.28
-1.22
-0.21
0.74
1.60
2.32
2.92
3.44
3.97
4.60
5.33
6.10
6.81
7.33
7.59
7.63
7.52
7.38
7.31
7.34
7.40
7.42
7.30
6.97
6.43
5.68
4.78
3.75
2.62
1.44
0.26
-0.83
-1.78
-2.57
-3.30
-4.07
-5.00
-6.11
-7.33
-8.54
-9.65
-10.64
-11.60
-12.58
-13.57
-14.43
-14.93
-14.83
-14.00
-12.47
-10.40
-8.04
-5.62
-3.28
-1.11
0.89
2.72
4.36
5.76
6.88
7.71
8.31
8.79
9.26
9.78
10.27
10.59
10.59
10.24
9.66
9.05
8.65
8.55
8.71
8.95
9.08
9.00
8.68
8.19
7.60
6.94
6.21
5.38
4.48
3.56
2.66
1.80
0.96
0.08
-0.90
-2.01
-3.20
-4.40
-5.53
-6.54
-7.44
-8.31
-9.22
-10.23
-11.30
-12.37
-13.29
-13.90
-14.05
-13.59
-12.49
-10.80
-8.67
-6.35
-4.07
-1.99
-0.20
1.32
2.58
3.60
4.38
4.96
5.40
5.78
6.17
6.60
7.08
7.53
7.89
8.13
8.22
8.19
8.08
7.97
7.88
7.79
7.66
7.40
6.98
6.41
5.75
5.08
4.46
3.88
3.31
2.72
2.08
1.41
0.71
0.01
-0.72
-1.52
-2.39
-3.33
-4.31
-5.27
-6.17
-6.98
-7.74
-8.54
-9.42
-10.42
-11.45
-12.34
-12.78
-12.52
-11.35
-9.30
-6.59
-3.57
-0.65
1.86
3.87
5.45
6.80
8.04
9.21
10.19
10.85
11.12
11.05
10.77
10.45
10.16
9.91
9.64
9.27
8.78
8.21
7.61
7.04
6.51
6.05
5.65
5.27
4.89
4.45
3.94
3.36
2.73
2.06
1.37
0.65
-0.07
-0.75
-1.32
-1.79
-2.18
-2.58
-3.11
-3.81
-4.67
-5.62
-6.57
-7.49
-8.36
-9.19
-9.95
-10.56
-10.92
-10.95
-10.57
-9.79
-8.62
-7.15
-5.50
-3.79
-2.12
-0.60
0.74
1.87
2.78
3.46
3.92
4.22
4.47
4.79
5.21
5.67
6.05
6.23
6.18
5.99
5.81
5.77
5.90
6.13
6.35
6.44
6.34
6.02
5.51
4.86
4.17
3.52
2.99
2.60
2.27
1.89
1.34
0.58
-0.35
-1.36
-2.33
-3.18
-3.87
-4.38
-4.76
-5.11
-5.58
-6.33
-7.45
-8.89
-10.46
-11.81
-12.64
-12.73
-12.03
-10.68
-8.92
-7.03
-5.23
-3.65
-2.34
-1.21
-0.15
0.91
1.97
2.97
3.76
4.23
4.33
4.14
3.83
3.58
3.52
3.70
4.08
4.53
4.94
5.23
5.33
5.24
5.01
4.64
4.14
3.52
2.80
2.06
1.42
0.97
0.74
0.66
0.54
0.22
-0.41
-1.31
-2.35
-3.31
-4.06
-4.54
-4.83
-5.11
-5.54
-6.24
-7.24
-8.49
-9.83
-11.13
-12.19
-12.85
-12.96
-12.42
-11.21
-9.47
-7.40
-5.30
-3.40
-1.86
-0.65
0.34
1.27
2.21
3.13
3.93
4.51
4.85
5.00
5.10
5.26
5.54
5.93
6.37
6.80
7.21
7.60
7.97
8.26
8.41
8.34
8.02
7.47
6.78
5.99
5.18
4.34
3.50
2.64
1.81
1.02
0.29
-0.38
-1.07
-1.82
-2.65
-3.55
-4.46
-5.34
-6.16
-6.98
-7.87
-8.86
-9.96
-11.06
-11.97
-12.50
-12.44
-11.69
-10.27
-8.32
-6.08
-3.83
-1.81
-0.16
1.10
2.04
2.74
3.28
3.68
3.98
4.20
4.43
4.72
5.06
5.39
5.66
5.83
5.94
6.02
6.13
6.26
6.35
6.37
6.29
6.13
5.89
5.56
5.10
4.51
3.82
3.09
2.35
1.61
0.80
-0.12
-1.16
-2.23
-3.21
-3.99
-4.59
-5.14
-5.81
-6.74
-7.96
-9.38
-10.78
-11.93
-12.60
-12.61
-11.88
-10.45
-8.46
-6.18
-3.91
-1.90
-0.25
1.07
2.15
3.09
3.90
4.53
4.93
5.12
5.17
5.22
5.35
5.58
5.84
6.06
6.20
6.31
6.45
6.66
6.92
7.17
7.29
7.21
6.89
6.36
5.72
5.05
4.43
3.87
3.31
2.70
1.95
1.03
-0.04
-1.15
-2.24
-3.22
-4.10
-4.93
-5.81
-6.85
-8.08
-9.48
-10.90
-12.12
-12.90
-12.99
-12.27
-10.74
-8.57
-6.02
-3.41
-0.99
1.09
2.81
4.23
5.46
6.56
7.55
8.40
9.09
9.61
9.99
10.27
10.48
10.65
10.80
10.92
11.05
11.21
11.40
11.56
11.57
11.31
10.73
9.83
8.73
7.56
6.41
5.30
4.19
3.00
1.70
0.33
-1.05
-2.36
-3.54
-4.60
-5.57
-6.51
-7.48
-8.52
-9.68
-10.98
-12.35
-13.73
-15.00
-16.03
-16.69
-16.87
-16.53
-15.68
-14.38
-12.74
-10.87
-8.86
-6.77
-4.65
-2.58
-0.67
0.98
2.28
3.26
3.98
4.53
4.99
5.37
5.62
5.69
5.61
5.41
5.18
5.01
4.86
4.66
4.30
3.70
2.90
2.02
1.23
0.64
0.23
-0.08
-0.41
-0.83
-1.33
-1.84
-2.31
-2.76
-3.20
-3.69
-4.22
-4.78
-5.29
-5.73
-6.09
-6.41
-6.77
-7.24
-7.89
-8.73
-9.70
-10.68
-11.48
-11.94
-11.90
-11.30
-10.15
-8.52
-6.54
-4.39
-2.25
-0.26
1.52
3.10
4.53
5.82
6.97
7.92
8.63
9.09
9.38
9.57
9.75
10.00
10.36
10.83
11.36
11.87
12.25
12.42
12.32
11.97
11.39
10.65
9.78
8.84
7.90
7.03
6.31
5.75
5.30
4.84
4.27
3.53
2.64
1.68
0.78
0.00
-0.68
-1.39
-2.28
-3.42
-4.70
-5.93
-6.85
-7.32
-7.34
-7.04
-6.54
-5.89
-5.00
-3.78
-2.20
-0.37
1.52
3.28
4.82
6.15
7.29
8.27
9.06
9.63
9.99
10.25
10.54
11.01
11.66
12.41
13.11
13.57
13.72
13.56
13.23
12.84
12.50
12.20
11.86
11.36
10.65
9.74
8.68
7.59
6.56
5.59
4.66
3.73
2.78
1.85
0.98
0.18
-0.58
-1.39
-2.35
-3.47
-4.72
-6.00
-7.23
-8.36
-9.40
-10.35
-11.18
-11.77
-12.01
-11.80
-11.16
-10.19
-9.08
-7.95
-6.87
-5.81
-4.74
-3.67
-2.69
-1.92
-1.50
-1.44
-1.67
-2.02
-2.34
-2.49
-2.43
-2.20
-1.84
-1.44
-1.04
-0.71
-0.45
-0.28
-0.13
0.02
0.22
0.43
0.60
0.68
0.65
0.55
0.44
0.38
0.39
0.43
0.41
0.26
-0.08
-0.59
-1.19
-1.78
-2.29
-2.67
-2.97
-3.24
-3.55
-3.94
-4.44
-5.08
-5.87
-6.80
-7.79
-8.69
-9.29
-9.42
-9.05
-8.26
-7.27
-6.27
-5.35
-4.50
-3.62
-2.64
-1.57
-0.54
0.32
0.89
1.19
1.31
1.41
1.62
1.96
2.43
2.97
3.56
4.14
4.67
5.08
5.28
5.24
4.99
4.65
4.31
4.03
3.83
3.65
3.45
3.20
2.91
2.61
2.31
2.03
1.79
1.61
1.47
1.32
1.09
0.67
0.02
-0.87
-1.92
-2.98
-3.96
-4.78
-5.45
-6.03
-6.57
-7.13
-7.73
-8.38
-9.07
-9.74
-10.32
-10.70
-10.79
-10.52
-9.89
-9.00
-7.97
-6.94
-5.97
-5.06
-4.19
-3.37
-2.63
-2.03
-1.58
-1.28
-1.04
-0.78
-0.45
-0.05
0.38
0.77
1.10
1.33
1.46
1.49
1.47
1.44
1.45
1.55
1.74
1.96
2.14
2.19
2.06
1.76
1.29
0.71
0.07
-0.55
-1.07
-1.45
-1.71
-1.93
-2.25
-2.76
-3.47
-4.28
-5.03
-5.61
-6.05
-6.47
-7.01
-7.69
-8.46
-9.18
-9.76
-10.20
-10.58
-10.90
-11.06
-10.84
-9.99
-8.44
-6.31
-3.93
-1.66
0.27
1.77
2.90
3.75
4.38
4.83
5.13
5.34
5.55
5.84
6.19
6.55
6.83
7.00
7.06
7.08
7.11
7.16
7.18
7.11
6.91
6.55
6.11
5.64
5.22
4.91
4.68
4.51
4.35
4.15
3.88
3.55
3.15
2.68
2.11
1.40
0.51
-0.56
-1.75
-2.99
-4.17
-5.23
-6.17
-7.04
-7.92
-8.91
-10.02
-11.23
-12.46
-13.57
-14.40
-14.81
-14.65
-13.86
-12.44
-10.53
-8.36
-6.18
-4.18
-2.46
-0.96
0.37
1.59
2.68
3.56
4.16
4.52
4.77
5.08
5.58
6.31
7.18
8.07
8.87
9.49
9.92
10.15
10.18
10.03
9.72
9.33
8.89
8.44
7.96
7.41
6.76
5.96
5.02
3.94
2.75
1.46
0.13
-1.18
-2.41
-3.54
-4.55
-5.48
-6.34
-7.15
-7.91
-8.68
-9.53
-10.53
-11.76
-13.21
-14.77
-16.31
-17.60
-18.44
-18.65
-18.13
-16.87
-14.94
-12.48
-9.71
-6.84
-4.10
-1.63
0.46
2.14
3.42
4.32
4.87
5.16
5.25
5.25
5.23
5.26
5.37
5.56
5.81
6.14
6.56
7.09
7.73
8.40
9.00
9.39
9.49
9.29
8.88
8.40
7.98
7.68
7.52
7.48
7.57
7.83
8.29
8.92
9.57
10.05
10.17
9.84
9.13
8.24
7.41
6.75
6.23
5.64
4.75
3.42
1.66
-0.32
-2.20
-3.66
-4.52
-4.71
-4.29
-3.38
-2.10
-0.55
1.18
2.94
4.55
5.85
6.73
7.16
7.20
6.99
6.65
6.30
6.01
5.78
5.60
5.42
5.24
5.10
5.09
5.30
5.75
6.37
7.01
7.51
7.75
7.73
7.56
7.37
7.25
7.19
7.11
6.92
6.55
6.03
5.41
4.73
3.99
3.18
2.23
1.16
-0.00
-1.17
-2.30
-3.40
-4.56
-5.85
-7.31
-8.85
-10.28
-11.35
-11.86
-11.68
-10.79
-9.29
-7.35
-5.17
-3.01
-1.07
0.46
1.54
2.19
2.54
2.75
2.92
3.12
3.34
3.56
3.74
3.86
3.89
3.85
3.73
3.55
3.33
3.06
2.68
2.09
1.21
-0.01
-1.51
-3.15
-4.77
-6.27
-7.67
-9.06
-10.56
-12.21
-13.93
-15.55
-16.84
-17.62
-17.80
-17.33
-16.25
-14.61
-12.54
-10.24
-7.91
-5.79
-4.00
-2.61
-1.54
-0.69
0.06
0.79
1.47
2.06
2.45
2.56
2.34
1.82
1.08
0.20
-0.75
-1.72
-2.60
-3.21
-3.30
-2.60
-0.94
1.67
5.00
8.70
12.40
15.81
18.78
21.26
23.23
24.64
25.36
25.26
24.23
22.27
19.55
16.35
13.00
9.76
6.72
3.87
1.13
-1.51
-3.93
-6.00
-7.59
-8.73
-9.58
-10.35
-11.22
-12.27
-13.45
-14.62
-15.62
-16.29
-16.50
-16.13
-15.12
-13.50
-11.44
-9.12
-6.78
-4.58
-2.59
-0.85
0.64
1.89
2.92
3.75
4.44
5.01
5.50
5.91
6.25
6.48
6.60
6.60
6.50
6.33
6.13
5.99
5.94
5.98
6.03
5.97
5.68
5.07
4.16
3.03
1.81
0.63
-0.43
-1.33
-2.08
-2.69
-3.22
-3.76
-4.37
-5.12
-6.06
-7.24
-8.66
-10.24
-11.85
-13.26
-14.21
-14.52
-14.10
-13.04
-11.50
-9.68
-7.74
-5.72
-3.63
-1.49
0.64
2.66
4.38
5.68
6.45
6.74
6.68
6.46
6.28
6.23
6.27
6.33
6.32
6.21
6.07
5.94
5.83
5.66
5.36
4.91
4.39
3.93
3.58
3.31
3.00
2.49
1.72
0.76
-0.28
-1.29
-2.19
-2.97
-3.64
-4.26
-4.88
-5.55
-6.36
-7.36
-8.54
-9.83
-11.07
-12.04
-12.55
-12.45
-11.67
-10.23
-8.27
-5.97
-3.56
-1.21
0.95
2.88
4.57
6.00
7.16
8.02
8.59
8.89
9.03
9.12
9.27
9.51
9.76
9.92
9.89
9.65
9.28
8.92
8.67
8.54
8.44
8.21
7.76
7.04
6.11
5.07
3.98
2.88
1.78
0.67
-0.41
-1.43
-2.35
-3.20
-4.01
-4.85
-5.76
-6.79
-7.92
-9.12
-10.32
-11.37
-12.11
-12.33
-11.89
-10.76
-9.03
-6.95
-4.82
-2.90
-1.35
-0.18
0.67
1.27
1.63
1.76
1.65
1.35
1.01
0.81
0.88
1.25
1.82
2.41
2.84
3.03
2.94
2.66
2.29
1.95
1.69
1.51
1.39
1.24
1.00
0.61
0.07
-0.61
-1.37
-2.19
-3.06
-3.96
-4.94
-5.96
-7.00
-7.95
-8.71
-9.17
-9.21
-8.77
-7.85
-6.47
-4.73
-2.76
-0.69
1.37
3.29
5.00
6.40
7.46
8.13
8.46
8.54
8.51
8.42
8.32
8.16
7.89
7.52
7.10
6.69
6.34
6.03
5.72
5.34
4.85
4.22
3.43
2.45
1.29
-0.02
-1.39
-2.73
-4.00
-5.21
-6.47
-7.86
-9.38
-10.94
-12.39
-13.55
-14.33
-14.69
-14.62
-14.07
-13.00
-11.38
-9.25
-6.72
-3.99
-1.26
1.32
3.61
5.57
7.16
8.37
9.22
9.75
10.06
10.25
10.42
10.56
10.61
10.47
10.04
9.32
8.44
7.65
7.23
7.41
8.27
9.74
11.61
13.64
15.60
17.31
18.69
19.61
20.01
19.78
18.88
17.30
15.11
12.42
9.40
6.22
3.07
0.16
-2.33
-4.26
-5.57
-6.28
-6.45
-6.13
-5.38
-4.28
-2.97
-1.64
-0.56
0.09
0.22
-0.06
-0.55
-1.03
-1.38
-1.63
-1.87
-2.17
-2.55
-2.91
-3.18
-3.29
-3.30
-3.27
-3.30
-3.44
-3.70
-4.03
-4.41
-4.78
-5.07
-5.20
-5.12
-4.80
-4.29
-3.71
-3.21
-2.95
-3.03
-3.52
-4.36
-5.44
-6.56
-7.56
-8.25
-8.54
-8.36
-7.72
-6.70
-5.37
-3.87
-2.28
-0.70
0.78
2.11
3.19
3.98
4.42
4.52
4.34
4.00
3.66
3.42
3.34
3.36
3.34
3.14
2.67
1.97
1.15
0.42
-0.09
-0.35
-0.49
-0.69
-1.13
-1.81
-2.63
-3.34
-3.80
-3.98
-4.00
-4.11
-4.51
-5.24
-6.21
-7.23
-8.13
-8.79
-9.23
-9.47
-9.53
-9.38
-8.96
-8.21
-7.13
-5.79
-4.32
-2.81
-1.38
-0.06
1.10
2.11
2.99
3.72
4.31
4.75
5.05
5.25
5.40
5.55
5.73
5.92
6.10
6.20
6.21
6.15
6.03
5.90
5.77
5.61
5.39
5.05
4.55
3.90
3.15
2.37
1.67
1.12
0.73
0.42
0.06
-0.45
-1.16
-1.99
-2.82
-3.52
-4.04
-4.40
-4.62
-4.74
-4.71
-4.47
-4.00
-3.34
-2.62
-1.96
-1.44
-1.05
-0.73
-0.40
-0.03
0.35
0.68
0.93
1.10
1.22
1.34
1.46
1.58
1.69
1.76
1.78
1.73
1.63
1.52
1.47
1.54
1.74
2.02
2.27
2.36
2.27
2.04
1.79
1.60
1.49
1.39
1.18
0.80
0.23
-0.45
-1.15
-1.78
-2.28
-2.65
-2.90
-3.12
-3.39
-3.76
-4.23
-4.72
-5.05
-5.11
-4.83
-4.27
-3.63
-3.08
-2.80
-2.84
-3.16
-3.64
-4.15
-4.55
-4.75
-4.73
-4.53
-4.21
-3.84
-3.45
-3.08
-2.75
-2.54
-2.48
-2.59
-2.83
-3.10
-3.27
-3.28
-3.10
-2.79
-2.43
-2.11
-1.92
-1.91
-2.09
-2.45
-2.87
-3.25
-3.47
-3.47
-3.28
-2.98
-2.66
-2.40
-2.25
-2.20
-2.26
-2.39
-2.57
-2.76
-2.92
-3.00
-2.99
-2.90
-2.76
-2.63
-2.56
-2.56
-2.62
-2.71
-2.81
-2.87
-2.89
-2.90
-2.94
-3.02
-3.16
-3.29
-3.34
-3.26
-3.02
-2.66
-2.25
-1.86
-1.50
-1.21
-1.00
-0.86
-0.82
-0.85
-0.89
-0.85
-0.65
-0.24
0.34
1.01
1.67
2.18
2.48
2.53
2.34
1.99
1.57
1.16
0.77
0.42
0.08
-0.20
-0.40
-0.47
-0.40
-0.26
-0.16
-0.27
-0.66
-1.32
-2.11
-2.84
-3.35
-3.59
-3.60
-3.53
-3.52
-3.65
-3.91
-4.19
-4.36
-4.33
-4.08
-3.67
-3.22
-2.80
-2.46
-2.15
-1.80
-1.36
-0.88
-0.47
-0.23
-0.21
-0.31
-0.36
-0.21
0.19
0.74
1.26
1.60
1.73
1.76
1.79
1.89
2.03
2.09
2.01
1.84
1.69
1.61
1.57
1.40
0.96
0.20
-0.73
-1.58
-2.18
-2.53
-2.78
-3.13
-3.70
-4.47
-5.29
-5.98
-6.39
-6.47
-6.20
-5.58
-4.67
-3.55
-2.38
-1.37
-0.68
-0.36
-0.34
-0.45
-0.55
-0.57
-0.49
-0.39
-0.30
-0.22
-0.11
0.05
0.28
0.52
0.74
0.91
1.04
1.19
1.35
1.54
1.70
1.80
1.80
1.70
1.52
1.27
1.00
0.76
0.59
0.50
0.43
0.32
0.07
-0.37
-1.00
-1.77
-2.63
-3.55
-4.53
-5.50
-6.37
-6.99
-7.19
-6.88
-6.09
-4.97
-3.68
-2.40
-1.20
-0.10
0.91
1.83
2.62
3.23
3.62
3.77
3.73
3.57
3.39
3.31
3.41
3.70
4.13
4.56
4.86
4.93
4.80
4.55
4.31
4.15
4.03
3.86
3.55
3.06
2.43
1.76
1.15
0.66
0.25
-0.14
-0.58
-1.13
-1.76
-2.46
-3.19
-3.99
-4.90
-5.96
-7.17
-8.40
-9.47
-10.12
-10.16
-9.53
-8.33
-6.74
-4.92
-2.98
-0.97
1.07
3.07
4.84
6.21
7.04
7.35
7.32
7.18
7.13
7.29
7.59
7.93
8.22
8.42
8.57
8.72
8.91
9.12
9.32
9.43
9.41
9.21
8.78
8.13
7.27
6.29
5.32
4.50
3.91
3.55
3.29
2.96
2.44
1.69
0.80
-0.10
-0.89
-1.53
-2.09
-2.69
-3.43
-4.34
-5.37
-6.38
-7.24
-7.80
-7.96
-7.61
-6.72
-5.28
-3.40
-1.25
0.97
3.03
4.79
6.21
7.31
8.19
8.87
9.35
9.54
9.38
8.88
8.12
7.29
6.57
6.05
5.76
5.63
5.59
5.64
5.76
5.96
6.16
6.24
6.04
5.52
4.77
3.98
3.34
2.95
2.75
2.51
1.99
1.01
-0.43
-2.15
-3.86
-5.34
-6.46
-7.30
-8.03
-8.86
-9.94
-11.32
-12.97
-14.77
-16.58
-18.23
-19.49
-20.13
-20.00
-19.08
-17.50
-15.53
-13.44
-11.45
-9.63
-7.94
-6.30
-4.64
-2.97
-1.34
0.19
1.60
2.98
4.38
5.88
7.44
8.96
10.31
11.42
12.30
13.05
13.80
14.62
15.48
16.26
16.85
17.16
17.18
16.99
16.66
16.28
15.93
15.64
15.43
15.24
15.05
14.80
14.49
14.16
13.87
13.64
13.37
12.87
11.96
10.51
8.59
6.46
4.43
2.81
1.71
1.11
0.84
0.70
0.58
0.47
0.39
0.39
0.45
0.48
0.40
0.07
-0.51
-1.30
-2.09
-2.67
-2.81
-2.42
-1.54
-0.38
0.80
1.79
2.49
2.92
3.21
3.45
3.72
4.06
4.48
4.97
5.50
5.96
6.16
5.92
5.12
3.80
2.12
0.34
-1.37
-2.93
-4.38
-5.80
-7.18
-8.37
-9.10
-9.06
-8.03
-5.93
-2.87
0.83
4.71
8.23
10.90
12.38
12.60
11.80
10.40
8.85
7.51
6.53
5.90
5.52
5.34
5.34
5.51
5.82
6.12
6.24
6.02
5.40
4.45
3.37
2.32
1.41
0.65
-0.01
-0.67
-1.34
-1.99
-2.59
-3.08
-3.46
-3.77
-4.03
-4.25
-4.45
-4.63
-4.81
-5.02
-5.27
-5.54
-5.80
-6.01
-6.13
-6.16
-6.14
-6.10
-6.11
-6.19
-6.40
-6.76
-7.27
-7.90
-8.58
-9.22
-9.77
-10.21
-10.61
-11.05
-11.58
-12.18
-12.66
-12.82
-12.48
-11.62
-10.42
-9.14
-8.06
-7.29
-6.77
-6.34
-5.87
-5.31
-4.75
-4.29
-4.00
-3.81
-3.59
-3.21
-2.67
-2.04
-1.49
-1.09
-0.81
-0.50
-0.00
0.78
1.74
2.68
3.36
3.67
3.64
3.47
3.36
3.42
3.62
3.84
3.95
3.87
3.64
3.30
2.93
2.56
2.20
1.86
1.52
1.18
0.78
0.24
-0.53
-1.56
-2.82
-4.17
-5.44
-6.45
-7.07
-7.27
-7.06
-6.51
-5.73
-4.82
-3.92
-3.07
-2.35
-1.75
-1.25
-0.82
-0.47
-0.23
-0.11
-0.13
-0.22
-0.31
-0.32
-0.25
-0.14
-0.03
0.08
0.23
0.46
0.77
1.13
1.42
1.56
1.52
1.29
0.94
0.55
0.17
-0.18
-0.49
-0.78
-1.07
-1.40
-1.77
-2.18
-2.59
-2.94
-3.26
-3.58
-3.99
-4.58
-5.35
-6.19
-6.96
-7.45
-7.56
-7.25
-6.59
-5.73
-4.77
-3.77
-2.73
-1.64
-0.50
0.62
1.61
2.34
2.73
2.82
2.72
2.60
2.59
2.73
3.00
3.32
3.59
3.74
3.74
3.60
3.35
3.05
2.78
2.61
2.54
2.53
2.45
2.17
1.60
0.72
-0.35
-1.47
-2.47
-3.26
-3.78
-4.09
-4.29
-4.50
-4.87
-5.52
-6.48
-7.66
-8.90
-9.98
-10.64
-10.73
-10.19
-9.05
-7.46
-5.63
-3.76
-2.05
-0.59
0.54
1.37
1.92
2.25
2.42
2.51
2.63
2.83
3.17
3.63
4.17
4.71
5.20
5.58
5.81
5.89
5.84
5.74
5.67
5.66
5.63
5.48
5.09
4.46
3.69
2.98
2.46
2.15
1.94
1.63
1.08
0.28
-0.65
-1.60
-2.47
-3.30
-4.16
-5.13
-6.22
-7.36
-8.41
-9.24
-9.76
-9.89
-9.56
-8.72
-7.37
-5.58
-3.54
-1.48
0.35
1.82
2.95
3.83
4.57
5.26
5.88
6.39
6.73
6.94
7.07
7.20
7.38
7.58
7.78
7.94
8.05
8.11
8.11
8.03
7.82
7.44
6.88
6.15
5.29
4.36
3.43
2.57
1.84
1.25
0.78
0.31
-0.26
-1.02
-1.95
-2.95
-3.92
-4.78
-5.56
-6.35
-7.24
-8.25
-9.32
-10.32
-11.14
-11.65
-11.76
-11.37
-10.41
-8.88
-6.87
-4.58
-2.25
-0.07
1.87
3.52
4.92
6.05
6.90
7.49
7.86
8.11
8.31
8.52
8.74
8.95
9.10
9.17
9.17
9.09
8.96
8.80
8.64
8.49
8.35
8.14
7.81
7.29
6.60
5.81
5.02
4.33
3.77
3.33
2.95
2.54
1.98
1.19
0.15
-1.11
-2.48
-3.80
-4.95
-5.91
-6.74
-7.59
-8.57
-9.71
-10.92
-11.98
-12.65
-12.72
-12.09
-10.79
-8.98
-6.89
-4.76
-2.76
-0.92
0.77
2.39
3.93
5.34
6.49
7.28
7.71
7.89
7.99
8.14
8.37
8.65
8.88
9.02
9.08
9.12
9.15
9.15
9.01
8.66
8.08
7.32
6.48
5.71
5.06
4.57
4.22
3.94
3.65
3.29
2.81
2.19
1.46
0.70
-0.03
-0.69
-1.31
-1.95
-2.68
-3.54
-4.54
-5.63
-6.78
-7.97
-9.18
-10.40
-11.58
-12.56
-13.14
-13.11
-12.37
-10.97
-9.10
-7.03
-4.97
-3.04
-1.22
0.54
2.24
3.79
5.03
5.82
6.13
6.09
5.91
5.83
5.95
6.23
6.55
6.78
6.86
6.82
6.74
6.72
6.77
6.85
6.88
6.78
6.52
6.07
5.45
4.68
3.80
2.85
1.93
1.11
0.46
-0.05
-0.48
-0.94
-1.52
-2.28
-3.19
-4.23
-5.35
-6.52
-7.74
-8.97
-10.22
-11.46
-12.68
-13.86
-14.98
-16.01
-16.87
-17.50
-17.83
-17.81
-17.39
-16.53
-15.21
-13.38
-11.02
-8.10
-4.69
-0.93
2.94
6.62
9.89
12.62
14.87
16.75
18.40
19.87
21.07
21.91
22.30
22.23
21.78
21.05
20.13
19.13
18.09
17.07
16.05
14.97
13.71
12.12
10.11
7.69
4.99
2.22
-0.45
-2.91
-5.16
-7.25
-9.24
-11.12
-12.80
-14.16
-15.09
-15.52
-15.39
-14.69
-13.42
-11.58
-9.24
-6.51
-3.63
-0.85
1.60
3.58
5.03
5.91
6.26
6.06
5.32
4.08
2.46
0.65
-1.12
-2.65
-3.80
-4.58
-5.08
-5.45
-5.79
-6.15
-6.51
-6.85
-7.11
-7.29
-7.35
-7.25
-6.93
-6.35
-5.50
-4.42
-3.14
-1.68
-0.03
1.79
3.69
5.52
7.11
8.33
9.16
9.57
9.57
9.13
8.20
6.82
5.11
3.30
1.61
0.13
-1.17
-2.50
-4.06
-5.98
-8.20
-10.47
-12.37
-13.48
-13.43
-12.05
-9.33
-5.50
-0.96
3.82
8.35
12.18
15.01
16.70
17.30
17.05
16.26
15.24
14.19
13.20
12.25
11.28
10.25
9.16
8.06
7.03
6.11
5.30
4.58
3.87
3.13
2.31
1.40
0.47
-0.38
-1.05
-1.50
-1.75
-1.91
-2.11
-2.43
-2.89
-3.45
-4.06
-4.67
-5.31
-5.98
-6.69
-7.41
-8.07
-8.65
-9.18
-9.77
-10.55
-11.60
-12.90
-14.31
-15.60
-16.56
-17.01
-16.89
-16.25
-15.21
-13.89
-12.38
-10.72
-8.91
-6.99
-5.07
-3.28
-1.77
-0.61
0.21
0.83
1.39
1.98
2.57
3.08
3.44
3.65
3.79
3.96
4.22
4.54
4.82
4.94
4.85
4.59
4.27
3.97
3.71
3.44
3.08
2.55
1.87
1.11
0.37
-0.30
-0.91
-1.53
-2.19
-2.91
-3.65
-4.35
-4.97
-5.59
-6.31
-7.28
-8.56
-10.08
-11.67
-13.11
-14.20
-14.78
-14.78
-14.18
-13.03
-11.41
-9.47
-7.37
-5.27
-3.31
-1.60
-0.22
0.78
1.41
1.74
1.92
2.09
2.37
2.81
3.38
3.97
4.49
4.81
4.89
4.76
4.51
4.30
4.25
4.37
4.55
4.63
4.45
3.98
3.32
2.60
1.90
1.25
0.57
-0.21
-1.13
-2.14
-3.17
-4.12
-4.94
-5.63
-6.23
-6.83
-7.54
-8.44
-9.56
-10.84
-12.11
-13.18
-13.83
-13.91
-13.36
-12.23
-10.60
-8.62
-6.42
-4.15
-1.92
0.16
2.01
3.60
4.97
6.18
7.29
8.34
9.27
10.06
10.69
11.20
11.67
12.13
12.57
12.95
13.22
13.39
13.51
13.62
13.73
13.80
13.75
13.56
13.20
12.72
12.16
11.52
10.78
9.91
8.89
7.74
6.53
5.34
4.25
3.27
2.35
1.44
0.45
-0.59
-1.63
-2.57
-3.37
-4.06
-4.75
-5.52
-6.35
-7.06
-7.34
-6.95
-5.80
-4.05
-2.00
-0.03
1.63
2.94
3.99
4.89
5.65
6.14
6.20
5.74
4.83
3.67
2.47
1.38
0.41
-0.48
-1.28
-1.87
-2.06
-1.71
-0.88
0.17
1.03
1.37
1.08
0.27
-0.76
-1.78
-2.66
-3.44
-4.20
-5.02
-5.85
-6.61
-7.24
-7.75
-8.21
-8.72
-9.36
-10.12
-10.94
-11.77
-12.55
-13.27
-13.91
-14.47
-14.94
-15.26
-15.35
-15.08
-14.31
-13.00
-11.21
-9.13
-6.97
-4.89
-2.95
-1.10
0.72
2.48
4.09
5.37
6.20
6.59
6.70
6.75
6.98
7.46
8.18
8.99
9.70
10.16
10.35
10.34
10.25
10.28
10.52
11.01
11.70
12.49
13.32
14.13
14.88
15.53
15.97
16.04
15.60
14.53
12.88
10.78
8.46
6.15
3.98
1.98
0.04
-1.97
-4.12
-6.38
-8.63
-10.70
-12.46
-13.86
-14.94
-15.76
-16.29
-16.46
-16.16
-15.34
-14.11
-12.67
-11.28
-10.12
-9.14
-8.16
-6.96
-5.49
-3.88
-2.43
-1.45
-1.03
-1.07
-1.25
-1.26
-0.88
-0.07
1.12
2.63
4.47
6.65
9.14
11.79
14.31
16.41
17.87
18.65
18.84
18.61
18.12
17.45
16.61
15.57
14.33
12.90
11.31
9.59
7.80
5.99
4.23
2.61
1.13
-0.21
-1.50
-2.79
-4.13
-5.50
-6.86
-8.14
-9.26
-10.09
-10.50
-10.40
-9.73
-8.53
-6.91
-5.04
-3.07
-1.15
0.59
2.03
3.05
3.59
3.67
3.40
2.92
2.38
1.84
1.30
0.74
0.14
-0.51
-1.16
-1.75
-2.24
-2.59
-2.84
-3.03
-3.27
-3.66
-4.24
-4.97
-5.74
-6.38
-6.78
-6.92
-6.86
-6.70
-6.46
-6.12
-5.61
-4.89
-4.07
-3.33
-2.88
-2.87
-3.29
-3.98
-4.68
-5.17
-5.29
-5.03
-4.45
-3.66
-2.76
-1.79
-0.73
0.45
1.75
3.15
4.58
5.92
7.10
8.05
8.75
9.22
9.46
9.53
9.47
9.34
9.20
9.09
9.01
8.96
8.87
8.70
8.43
8.08
7.69
7.33
6.99
6.65
6.26
5.75
5.07
4.20
3.15
1.96
0.65
-0.73
-2.12
-3.46
-4.68
-5.77
-6.80
-7.86
-9.09
-10.56
-12.28
-14.12
-15.92
-17.51
-18.74
-19.55
-19.90
-19.78
-19.20
-18.17
-16.73
-14.98
-13.02
-11.01
-9.10
-7.42
-6.06
-5.09
-4.46
-4.04
-3.60
-2.95
-1.94
-0.54
1.14
2.91
4.58
6.00
7.11
7.95
8.61
9.22
9.92
10.83
11.96
13.24
14.48
15.45
15.96
15.92
15.44
14.66
13.74
12.74
11.63
10.36
8.89
7.26
5.54
3.79
2.04
0.30
-1.36
-2.84
-3.92
-4.43
-4.26
-3.50
-2.33
-1.06
0.04
0.72
0.84
0.41
-0.47
-1.57
-2.71
-3.73
-4.59
-5.30
-5.84
-6.13
-6.05
-5.49
-4.46
-3.09
-1.64
-0.33
0.66
1.31
1.67
1.80
1.78
1.64
1.41
1.13
0.77
0.33
-0.26
-1.05
-2.05
-3.23
-4.49
-5.75
-6.92
-7.97
-8.88
-9.65
-10.27
-10.78
-11.25
-11.78
-12.45
-13.29
-14.16
-14.86
-15.13
-14.75
-13.68
-12.03
-10.01
-7.85
-5.72
-3.65
-1.65
0.32
2.24
4.01
5.54
6.71
7.44
7.76
7.77
7.63
7.52
7.59
7.86
8.23
8.53
8.62
8.45
8.15
7.86
7.72
7.71
7.66
7.37
6.74
5.79
4.71
3.68
2.84
2.18
1.60
0.99
0.28
-0.56
-1.48
-2.44
-3.40
-4.35
-5.25
-6.08
-6.91
-7.81
-8.90
-10.22
-11.69
-13.08
-14.12
-14.55
-14.21
-13.07
-11.24
-8.84
-6.07
-3.12
-0.18
2.50
4.72
6.29
7.19
7.47
7.31
6.94
6.59
6.40
6.43
6.58
6.75
6.81
6.74
6.56
6.35
6.17
6.02
5.85
5.62
5.31
4.94
4.59
4.25
3.91
3.47
2.91
2.24
1.53
0.84
0.21
-0.38
-0.91
-1.37
-1.69
-1.82
-1.78
-1.73
-1.85
-2.33
-3.22
-4.43
-5.79
-7.09
-8.16
-8.82
-8.92
-8.32
-6.94
-4.78
-1.99
1.16
4.41
7.53
10.37
12.88
15.04
16.82
18.18
19.09
19.54
19.59
19.33
18.87
18.33
17.77
17.24
16.70
16.07
15.25
14.14
12.68
10.86
8.75
6.45
4.10
1.81
-0.33
-2.26
-3.95
-5.41
-6.69
-7.86
-9.02
-10.25
-11.62
-13.17
-14.81
-16.44
-17.88
-19.00
-19.76
-20.25
-20.62
-21.03
-21.48
-21.88
-21.97
-21.52
-20.35
-18.43
-15.86
-12.84
-9.56
-6.21
-2.96
0.08
2.83
5.25
7.36
9.16
10.62
11.69
12.31
12.45
12.20
11.70
11.13
10.59
10.07
9.49
8.74
7.80
6.76
5.76
4.93
4.27
3.72
3.21
2.68
2.16
1.70
1.31
0.94
0.49
-0.12
-0.91
-1.81
-2.74
-3.62
-4.45
-5.25
-6.07
-6.96
-7.92
-8.94
-10.00
-11.07
-12.10
-12.98
-13.60
-13.82
-13.54
-12.73
-11.45
-9.82
-7.98
-6.06
-4.11
-2.18
-0.32
1.40
2.92
4.17
5.12
5.79
6.24
6.58
6.96
7.52
8.38
9.56
10.99
12.47
13.79
14.77
15.37
15.66
15.77
15.78
15.69
15.38
14.74
13.71
12.35
10.82
9.23
7.66
6.07
4.41
2.66
0.89
-0.74
-2.12
-3.20
-4.06
-4.86
-5.75
-6.82
-8.06
-9.42
-10.84
-12.29
-13.69
-14.93
-15.77
-15.96
-15.31
-13.84
-11.72
-9.27
-6.82
-4.60
-2.70
-1.11
0.23
1.35
2.25
2.89
3.29
3.50
3.66
3.85
4.14
4.51
4.88
5.15
5.27
5.30
5.35
5.54
5.86
6.22
6.42
6.28
5.78
5.01
4.18
3.48
2.95
2.50
1.96
1.19
0.19
-0.91
-1.95
-2.81
-3.45
-3.99
-4.53
-5.17
-5.95
-6.87
-7.86
-8.85
-9.77
-10.48
-10.85
-10.70
-9.90
-8.41
-6.34
-3.89
-1.40
0.84
2.57
3.75
4.46
4.90
5.23
5.56
5.85
6.04
6.07
5.95
5.79
5.68
5.66
5.72
5.74
5.61
5.29
4.82
4.32
3.91
3.66
3.56
3.54
3.52
3.44
3.27
2.96
2.43
1.57
0.33
-1.25
-3.03
-4.81
-6.41
-7.73
-8.73
-9.40
-9.73
-9.71
-9.36
-8.70
-7.77
-6.60
-5.18
-3.45
-1.43
0.88
3.33
5.82
8.20
10.38
12.30
13.83
14.85
15.24
14.97
14.08
12.76
11.19
9.53
7.89
6.33
4.90
3.63
2.56
1.68
0.97
0.35
-0.24
-0.83
-1.38
-1.88
-2.35
-2.85
-3.44
-4.16
-4.98
-5.80
-6.54
-7.18
-7.75
-8.35
-9.05
-9.87
-10.77
-11.68
-12.53
-13.34
-14.19
-15.18
-16.40
-17.83
-19.36
-20.76
-21.75
-22.09
-21.60
-20.26
-18.18
-15.58
-12.68
-9.69
-6.73
-3.85
-1.05
1.68
4.33
6.89
9.33
11.64
13.80
15.81
17.62
19.19
20.47
21.43
22.05
22.33
22.30
22.04
21.65
21.23
20.80
20.33
19.70
18.80
17.57
16.08
14.45
12.84
11.37
10.05
8.85
7.74
6.67
5.56
4.29
2.71
0.71
-1.72
-4.44
-7.28
-10.05
-12.64
-15.04
-17.23
-19.16
-20.71
-21.71
-22.02
-21.61
-20.54
-18.97
-17.08
-15.07
-13.09
-11.26
-9.65
-8.29
-7.14
-6.20
-5.43
-4.81
-4.31
-3.89
-3.45
-2.91
-2.20
-1.30
-0.26
0.83
1.80
2.48
2.73
2.49
1.81
0.87
-0.13
-1.00
-1.68
-2.18
-2.57
-2.91
-3.22
-3.51
-3.79
-4.09
-4.44
-4.80
-5.03
-4.94
-4.39
-3.39
-2.15
-0.97
-0.09
0.46
0.88
1.47
2.43
3.73
5.12
6.31
7.10
7.54
7.83
8.16
8.58
8.97
9.17
9.09
8.82
8.53
8.36
8.32
8.32
8.21
7.93
7.52
7.11
6.79
6.58
6.41
6.16
5.80
5.33
4.77
4.19
3.61
3.06
2.58
2.17
1.80
1.38
0.82
0.10
-0.71
-1.49
-2.13
-2.61
-3.06
-3.61
-4.38
-5.35
-6.44
-7.57
-8.71
-9.90
-11.13
-12.31
-13.21
-13.60
-13.28
-12.24
-10.61
-8.55
-6.23
-3.73
-1.15
1.38
3.69
5.58
6.93
7.75
8.17
8.32
8.31
8.19
7.95
7.64
7.37
7.29
7.50
7.97
8.56
9.06
9.28
9.15
8.73
8.08
7.30
6.41
5.45
4.49
3.62
2.93
2.45
2.05
1.58
0.87
-0.14
-1.37
-2.65
-3.83
-4.81
-5.60
-6.29
-7.00
-7.87
-8.96
-10.26
-11.66
-12.93
-13.82
-14.11
-13.68
-12.59
-11.00
-9.11
-7.08
-4.99
-2.87
-0.77
1.23
3.01
4.48
5.61
6.42
6.95
7.23
7.32
7.23
7.05
6.83
6.66
6.56
6.55
6.60
6.69
6.82
6.93
6.95
6.76
6.28
5.49
4.48
3.41
2.47
1.77
1.32
1.05
0.83
0.57
0.14
-0.52
-1.46
-2.65
-3.97
-5.26
-6.33
-7.10
-7.62
-8.07
-8.70
-9.69
-11.01
-12.42
-13.55
-14.03
-13.66
-12.44
-10.56
-8.32
-5.95
-3.65
-1.48
0.52
2.29
3.73
4.74
5.30
5.46
5.39
5.31
5.38
5.66
6.09
6.53
6.85
6.96
6.94
6.88
6.89
7.02
7.18
7.27
7.16
6.82
6.28
5.64
4.96
4.26
3.51
2.65
1.66
0.56
-0.58
-1.65
-2.58
-3.32
-3.86
-4.26
-4.58
-4.91
-5.36
-6.01
-6.91
-8.03
-9.28
-10.45
-11.31
-11.65
-11.34
-10.37
-8.81
-6.80
-4.52
-2.14
0.17
2.27
3.99
5.28
6.11
6.61
6.88
7.05
7.18
7.26
7.29
7.27
7.29
7.40
7.64
7.95
8.20
8.27
8.10
7.69
7.12
6.43
5.65
4.77
3.80
2.77
1.78
0.88
0.12
-0.55
-1.17
-1.80
-2.47
-3.20
-4.01
-4.89
-5.84
-6.84
-7.87
-8.93
-10.00
-11.07
-12.07
-12.89
-13.38
-13.35
-12.66
-11.25
-9.20
-6.67
-3.88
-1.06
1.59
3.93
5.85
7.32
8.32
8.88
9.04
8.89
8.47
7.87
7.16
6.43
5.75
5.18
4.73
4.39
4.08
3.78
3.48
3.19
2.91
2.58
2.17
1.66
1.08
0.57
0.27
0.30
0.67
1.32
2.09
2.82
3.37
3.65
3.60
3.17
2.34
1.12
-0.46
-2.31
-4.31
-6.37
-8.43
-10.42
-12.30
-13.97
-15.28
-16.06
-16.15
-15.54
-14.29
-12.57
-10.60
-8.55
-6.53
-4.60
-2.84
-1.30
-0.06
0.81
1.31
1.49
1.47
1.42
1.49
1.79
2.34
3.12
4.08
5.15
6.28
7.43
8.57
9.67
10.71
11.66
12.49
13.21
13.77
14.16
14.36
14.38
14.29
14.19
14.15
14.17
14.09
13.67
12.68
10.99
8.66
5.92
3.06
0.28
-2.34
-4.85
-7.33
-9.82
-12.28
-14.61
-16.69
-18.44
-19.80
-20.70
-21.02
-20.65
-19.50
-17.64
-15.23
-12.56
-9.93
-7.57
-5.64
-4.16
-3.07
-2.26
-1.63
-1.09
-0.60
-0.18
0.16
0.40
0.60
0.85
1.23
1.76
2.40
3.04
3.58
3.91
4.00
3.87
3.60
3.26
2.91
2.59
2.32
2.07
1.81
1.49
1.10
0.61
0.04
-0.60
-1.34
-2.18
-3.11
-4.10
-5.10
-6.07
-7.01
-8.00
-9.15
-10.52
-12.06
-13.59
-14.78
-15.31
-14.95
-13.67
-11.62
-9.10
-6.44
-3.91
-1.67
0.22
1.76
3.02
3.99
4.69
5.10
5.23
5.10
4.82
4.52
4.32
4.30
4.44
4.70
5.06
5.54
6.20
7.16
8.41
9.89
11.39
12.74
13.79
14.58
15.18
15.70
16.16
16.49
16.52
16.13
15.28
14.05
12.58
11.00
9.37
7.67
5.85
3.88
1.75
-0.50
-2.84
-5.21
-7.51
-9.58
-11.24
-12.31
-12.72
-12.48
-11.71
-10.55
-9.07
-7.34
-5.41
-3.39
-1.50
0.04
1.06
1.56
1.66
1.56
1.41
1.27
1.12
0.96
0.82
0.82
1.04
1.52
2.14
2.70
3.04
3.08
2.87
2.55
2.23
1.95
1.67
1.31
0.87
0.38
-0.07
-0.45
-0.79
-1.16
-1.65
-2.29
-3.04
-3.81
-4.52
-5.15
-5.74
-6.39
-7.22
-8.32
-9.70
-11.29
-12.88
-14.20
-14.98
-15.03
-14.30
-12.87
-10.91
-8.56
-5.96
-3.26
-0.64
1.70
3.61
5.03
6.02
6.73
7.30
7.77
8.08
8.17
8.02
7.72
7.43
7.31
7.39
7.62
7.86
8.01
8.01
7.86
7.59
7.21
6.73
6.13
5.43
4.63
3.78
2.90
1.99
1.05
0.06
-0.96
-1.95
-2.87
-3.64
-4.30
-4.90
-5.56
-6.36
-7.37
-8.58
-9.95
-11.38
-12.72
-13.80
-14.38
-14.27
-13.40
-11.78
-9.58
-7.04
-4.42
-1.92
0.35
2.32
3.97
5.27
6.20
6.76
7.02
7.06
7.02
7.06
7.25
7.62
8.08
8.48
8.70
8.70
8.52
8.27
8.00
7.69
7.28
6.68
5.88
4.95
4.01
3.13
2.32
1.49
0.56
-0.49
-1.59
-2.62
-3.45
-4.06
-4.53
-4.97
-5.56
-6.37
-7.44
-8.72
-10.11
-11.48
-12.63
-13.31
-13.31
-12.48
-10.82
-8.47
-5.72
-2.87
-0.19
2.17
4.14
5.77
7.05
7.99
8.56
8.76
8.63
8.29
7.89
7.62
7.60
7.87
8.36
8.90
9.31
9.44
9.22
8.68
7.93
7.11
6.33
5.66
5.13
4.71
4.32
3.85
3.21
2.32
1.14
-0.25
-1.72
-3.14
-4.41
-5.47
-6.36
-7.16
-7.97
-8.87
-9.93
-11.14
-12.37
-13.44
-14.09
-14.07
-13.23
-11.58
-9.24
-6.45
-3.52
-0.74
1.66
3.57
5.00
6.04
6.83
7.47
8.00
8.37
8.52
8.44
8.17
7.87
7.69
7.70
7.88
8.08
8.15
7.96
7.51
6.89
6.23
5.60
5.00
4.36
3.63
2.82
1.99
1.24
0.59
0.00
-0.63
-1.42
-2.38
-3.45
-4.48
-5.36
-6.08
-6.74
-7.53
-8.60
-9.99
-11.58
-13.13
-14.35
-15.00
-14.89
-13.94
-12.18
-9.70
-6.68
-3.41
-0.20
2.60
4.80
6.27
7.09
7.41
7.46
7.43
7.45
7.58
7.79
8.01
8.14
8.14
7.99
7.77
7.58
7.48
7.50
7.56
7.54
7.32
6.81
6.03
5.06
4.00
2.98
2.08
1.33
0.67
0.03
-0.70
-1.60
-2.67
-3.83
-4.95
-5.95
-6.77
-7.48
-8.22
-9.14
-10.33
-11.76
-13.27
-14.61
-15.51
-15.72
-15.15
-13.79
-11.80
-9.39
-6.76
-4.11
-1.56
0.80
2.89
4.65
6.00
6.92
7.42
7.57
7.51
7.35
7.22
7.18
7.25
7.41
7.60
7.76
7.83
7.74
7.44
6.93
6.27
5.54
4.82
4.17
3.60
3.04
2.44
1.76
0.99
0.14
-0.76
-1.69
-2.66
-3.66
-4.67
-5.62
-6.49
-7.28
-8.08
-8.98
-10.04
-11.19
-12.24
-12.89
-12.91
-12.16
-10.68
-8.64
-6.22
-3.63
-1.03
1.41
3.51
5.17
6.33
7.08
7.59
7.99
8.37
8.68
8.85
8.82
8.64
8.48
8.45
8.62
8.90
9.10
9.06
8.71
8.15
7.51
6.92
6.42
5.95
5.39
4.64
3.66
2.48
1.16
-0.23
-1.64
-3.04
-4.35
-5.54
-6.55
-7.37
-8.03
-8.63
-9.28
-10.12
-11.21
-12.52
-13.84
-14.86
-15.24
-14.76
-13.40
-11.37
-9.00
-6.64
-4.50
-2.61
-0.93
0.65
2.12
3.41
4.40
5.05
5.37
5.52
5.67
5.96
6.44
7.01
7.58
8.00
8.26
8.42
8.60
8.83
9.04
9.04
8.67
7.85
6.68
5.43
4.35
3.62
3.21
2.94
2.58
2.00
1.19
0.23
-0.74
-1.65
-2.50
-3.36
-4.29
-5.35
-6.55
-7.87
-9.23
-10.50
-11.56
-12.25
-12.41
-11.93
-10.78
-9.04
-6.86
-4.45
-2.01
0.29
2.35
4.09
5.51
6.59
7.35
7.82
8.01
7.95
7.71
7.34
6.96
6.66
6.51
6.51
6.61
6.67
6.56
6.21
5.63
4.90
4.11
3.32
2.55
1.80
1.05
0.33
-0.36
-1.05
-1.78
-2.63
-3.65
-4.83
-6.10
-7.37
-8.53
-9.55
-10.44
-11.27
-12.12
-13.07
-14.09
-15.04
-15.67
-15.67
-14.82
-13.08
-10.66
-7.91
-5.21
-2.79
-0.74
1.04
2.67
4.22
5.62
6.76
7.51
7.81
7.71
7.31
6.78
6.25
5.86
5.66
5.67
5.84
6.09
6.29
6.31
6.10
5.64
5.00
4.23
3.39
2.48
1.50
0.47
-0.54
-1.46
-2.23
-2.86
-3.42
-4.01
-4.72
-5.60
-6.65
-7.83
-9.09
-10.34
-11.45
-12.27
-12.58
-12.21
-11.09
-9.25
-6.89
-4.25
-1.55
1.01
3.35
5.38
7.03
8.20
8.82
8.87
8.50
7.94
7.47
7.28
7.42
7.80
8.25
8.62
8.83
8.87
8.73
8.42
7.92
7.26
6.49
5.67
4.85
4.04
3.17
2.17
1.03
-0.18
-1.37
-2.41
-3.28
-4.04
-4.82
-5.75
-6.93
-8.36
-9.97
-11.60
-13.03
-14.03
-14.37
-13.90
-12.61
-10.62
-8.20
-5.67
-3.31
-1.33
0.17
1.22
1.89
2.29
2.51
2.57
2.50
2.30
2.06
1.85
1.77
1.86
2.07
2.29
2.43
2.41
2.25
2.03
1.80
1.59
1.38
1.14
0.86
0.60
0.38
0.26
0.21
0.14
-0.03
-0.35
-0.82
-1.40
-2.04
-2.77
-3.63
-4.68
-5.90
-7.16
-8.21
-8.80
-8.71
-7.88
-6.39
-4.42
-2.18
0.16
2.42
4.47
6.19
7.48
8.31
8.75
8.94
9.03
9.13
9.27
9.43
9.56
9.64
9.68
9.67
9.61
9.40
8.98
8.31
7.45
6.48
5.49
4.50
3.50
2.41
1.23
-0.01
-1.22
-2.34
-3.36
-4.36
-5.42
-6.59
-7.83
-9.08
-10.29
-11.48
-12.71
-14.02
-15.43
-16.83
-18.03
-18.79
-18.85
-18.02
-16.19
-13.44
-9.97
-6.11
-2.24
1.39
4.66
7.58
10.23
12.63
14.74
16.42
17.57
18.17
18.29
18.13
17.88
17.66
17.51
17.38
17.15
16.72
16.05
15.17
14.18
13.21
12.34
11.64
11.12
10.78
10.61
10.63
10.82
11.15
11.53
11.86
12.04
11.97
11.58
10.86
9.84
8.58
7.16
5.57
3.76
1.68
-0.68
-3.24
-5.79
-8.12
-10.09
-11.67
-12.90
-13.81
-14.37
-14.53
-14.23
-13.54
-12.63
-11.69
-10.89
-10.24
-9.66
-9.07
-8.44
-7.78
-7.19
-6.68
-6.18
-5.51
-4.50
-3.07
-1.31
0.60
2.44
4.02
5.25
6.11
6.65
6.93
7.00
6.90
6.67
6.31
5.84
5.26
4.62
3.99
3.43
3.02
2.73
2.51
2.25
1.86
1.23
0.30
-0.97
-2.60
-4.47
-6.42
-8.21
-9.60
-10.44
-10.68
-10.35
-9.56
-8.47
-7.20
-5.89
-4.67
-3.60
-2.70
-1.90
-1.08
-0.20
0.72
1.56
2.15
2.42
2.36
2.09
1.78
1.56
1.51
1.63
1.89
2.28
2.78
3.36
3.93
4.36
4.49
4.23
3.61
2.76
1.88
1.12
0.58
0.25
0.07
-0.07
-0.30
-0.66
-1.18
-1.80
-2.45
-3.09
-3.67
-4.23
-4.80
-5.40
-6.02
-6.62
-7.13
-7.49
-7.64
-7.47
-6.85
-5.73
-4.09
-2.07
0.11
2.22
4.08
5.66
6.92
7.87
8.42
8.47
7.92
6.79
5.28
3.65
2.18
1.06
0.30
-0.20
-0.58
-0.96
-1.42
-1.99
-2.68
-3.50
-4.45
-5.49
-6.54
-7.51
-8.35
-9.08
-9.77
-10.49
-11.24
-11.98
-12.60
-13.08
-13.44
-13.79
-14.22
-14.78
-15.44
-16.16
-16.87
-17.56
-18.24
-18.96
-19.76
-20.66
-21.62
-22.50
-23.06
-23.00
-22.06
-20.10
-17.20
-13.58
-9.54
-5.37
-1.24
2.74
6.47
9.84
12.73
15.08
16.93
18.42
19.73
20.98
22.16
23.14
23.78
23.97
23.71
23.13
22.38
21.56
20.72
19.78
18.69
17.41
15.96
14.43
12.89
11.38
9.93
8.48
7.02
5.51
3.95
2.36
0.75
-0.79
-2.21
-3.45
-4.48
-5.34
-6.10
-6.90
-7.80
-8.86
-10.02
-11.21
-12.26
-13.00
-13.27
-12.91
-11.88
-10.24
-8.15
-5.83
-3.55
-1.50
0.21
1.56
2.57
3.26
3.67
3.84
3.82
3.69
3.54
3.44
3.40
3.41
3.43
3.43
3.40
3.37
3.35
3.35
3.33
3.26
3.07
2.70
2.15
1.40
0.50
-0.51
-1.57
-2.64
-3.68
-4.66
-5.54
-6.31
-6.95
-7.49
-7.98
-8.50
-9.14
-10.00
-11.12
-12.52
-14.13
-15.75
-17.11
-17.89
-17.80
-16.72
-14.72
-12.03
-9.00
-5.97
-3.19
-0.82
1.12
2.64
3.81
4.73
5.46
6.04
6.50
6.82
6.99
7.07
7.12
7.21
7.38
7.61
7.86
8.07
8.19
8.18
8.01
7.66
7.15
6.54
5.89
5.23
4.60
4.02
3.46
2.90
2.32
1.69
0.96
0.11
-0.92
-2.15
-3.56
-5.05
-6.55
-7.94
-9.17
-10.23
-11.12
-11.81
-12.22
-12.18
-11.53
-10.18
-8.19
-5.72
-3.05
-0.41
1.99
4.03
5.63
6.76
7.43
7.69
7.66
7.48
7.27
7.12
7.03
6.98
6.97
6.99
7.07
7.19
7.31
7.32
7.11
6.65
5.96
5.17
4.43
3.81
3.30
2.79
2.12
1.18
-0.03
-1.39
-2.72
-3.85
-4.74
-5.45
-6.16
-7.01
-8.09
-9.37
-10.73
-12.05
-13.15
-13.91
-14.19
-13.88
-12.90
-11.25
-9.02
-6.40
-3.64
-0.95
1.51
3.65
5.41
6.75
7.64
8.07
8.08
7.80
7.45
7.22
7.25
7.54
7.95
8.31
8.43
8.28
7.91
7.47
7.13
6.94
6.88
6.82
6.60
6.12
5.32
4.24
2.99
1.68
0.43
-0.68
-1.65
-2.52
-3.39
-4.35
-5.47
-6.77
-8.23
-9.76
-11.23
-12.45
-13.18
-13.20
-12.33
-10.58
-8.12
-5.28
-2.42
0.16
2.34
4.14
5.64
6.90
7.91
8.61
9.00
9.08
8.94
8.72
8.54
8.48
8.58
8.83
9.16
9.49
9.75
9.85
9.76
9.47
8.97
8.30
7.51
6.63
5.70
4.76
3.82
2.88
1.89
0.84
-0.31
-1.57
-2.95
-4.46
-6.08
-7.77
-9.46
-11.06
-12.46
-13.54
-14.14
-14.16
-13.47
-12.03
-9.86
-7.08
-3.94
-0.71
2.31
4.87
6.86
8.25
9.11
9.56
9.72
9.68
9.51
9.28
9.01
8.74
8.48
8.21
7.94
7.66
7.35
7.00
6.59
6.10
5.50
4.80
4.00
3.13
2.19
1.18
0.07
-1.13
-2.37
-3.54
-4.56
-5.37
-6.00
-6.59
-7.28
-8.19
-9.33
-10.62
-11.92
-13.08
-13.95
-14.40
-14.32
-13.58
-12.15
-10.06
-7.45
-4.52
-1.51
1.40
4.08
6.45
8.43
9.92
10.82
11.07
10.74
10.03
9.24
8.64
8.42
8.57
8.95
9.34
9.55
9.52
9.26
8.84
8.31
7.70
6.98
6.14
5.18
4.11
2.99
1.88
0.80
-0.22
-1.20
-2.20
-3.25
-4.42
-5.70
-7.04
-8.36
-9.59
-10.70
-11.71
-12.66
-13.51
-14.08
-14.16
-13.53
-12.10
-9.96
-7.33
-4.51
-1.77
0.69
2.79
4.48
5.69
6.42
6.67
6.53
6.15
5.68
5.27
4.97
4.78
4.68
4.65
4.67
4.74
4.84
4.96
5.09
5.22
5.33
5.33
5.10
4.53
3.55
2.23
0.78
-0.56
-1.65
-2.48
-3.22
-4.04
-5.04
-6.19
-7.33
-8.32
-9.12
-9.75
-10.24
-10.54
-10.45
-9.77
-8.32
-6.11
-3.37
-0.40
2.43
4.87
6.80
8.19
9.09
9.57
9.70
9.55
9.18
8.67
8.15
7.76
7.63
7.79
8.16
8.53
8.68
8.51
8.07
7.54
7.11
6.84
6.65
6.36
5.81
4.96
3.87
2.72
1.63
0.67
-0.22
-1.10
-2.03
-3.04
-4.17
-5.44
-6.89
-8.49
-10.12
-11.51
-12.34
-12.30
-11.25
-9.27
-6.65
-3.81
-1.13
1.15
2.94
4.32
5.40
6.25
6.89
7.32
7.53
7.57
7.48
7.32
7.13
6.92
6.68
6.43
6.18
5.93
5.66
5.34
4.92
4.41
3.81
3.17
2.51
1.81
1.02
0.11
-0.89
-1.93
-2.95
-3.89
-4.77
-5.63
-6.55
-7.61
-8.79
-10.03
-11.23
-12.32
-13.27
-14.03
-14.58
-14.81
-14.56
-13.65
-12.00
-9.66
-6.88
-4.03
-1.48
0.54
1.99
2.96
3.61
4.08
4.44
4.70
4.86
4.98
5.14
5.37
5.67
5.95
6.10
6.07
5.88
5.66
5.52
5.51
5.59
5.62
5.49
5.13
4.57
3.82
2.95
1.94
0.82
-0.36
-1.55
-2.62
-3.51
-4.23
-4.87
-5.58
-6.48
-7.63
-8.99
-10.48
-12.01
-13.46
-14.70
-15.54
-15.77
-15.23
-13.88
-11.83
-9.34
-6.70
-4.15
-1.81
0.25
2.00
3.36
4.26
4.70
4.81
4.82
4.97
5.38
6.04
6.80
7.50
8.09
8.61
9.15
9.76
10.37
10.84
11.06
10.95
10.50
9.77
8.83
7.74
6.58
5.41
4.27
3.16
2.05
0.90
-0.30
-1.52
-2.74
-3.93
-5.14
-6.43
-7.87
-9.46
-11.10
-12.65
-13.93
-14.81
-15.17
-14.94
-14.06
-12.54
-10.45
-7.99
-5.36
-2.79
-0.44
1.60
3.29
4.60
5.50
5.96
5.99
5.66
5.09
4.40
3.70
3.06
2.47
1.90
1.30
0.63
-0.17
-1.10
-2.10
-3.07
-3.89
-4.47
-4.85
-5.14
-5.48
-5.95
-6.55
-7.12
-7.53
-7.70
-7.65
-7.51
-7.38
-7.33
-7.28
-7.18
-7.00
-6.82
-6.79
-7.04
-7.60
-8.33
-8.93
-9.10
-8.58
-7.29
-5.29
-2.77
0.05
2.98
5.86
8.57
10.98
12.99
14.49
15.46
15.92
15.97
15.77
15.46
15.18
15.00
14.95
14.99
15.02
14.94
14.64
14.09
13.31
12.37
11.38
10.37
9.36
8.33
7.29
6.23
5.17
4.06
2.83
1.42
-0.19
-1.89
-3.51
-4.88
-5.98
-6.91
-7.87
-9.06
-10.58
-12.34
-14.16
-15.77
-16.94
-17.52
-17.44
-16.71
-15.37
-13.52
-11.30
-8.91
-6.54
-4.39
-2.61
-1.25
-0.34
0.19
0.44
0.52
0.53
0.59
0.78
1.13
1.59
2.09
2.54
2.90
3.22
3.57
4.00
4.48
4.89
5.09
4.99
4.58
3.92
3.10
2.14
1.03
-0.23
-1.63
-3.12
-4.60
-6.01
-7.35
-8.61
-9.79
-10.79
-11.43
-11.53
-10.99
-9.82
-8.17
-6.22
-4.11
-1.88
0.53
3.21
6.20
9.42
12.67
15.67
18.21
20.17
21.56
22.49
23.06
23.34
23.33
23.00
22.33
21.33
20.10
18.71
17.26
15.80
14.38
12.99
11.66
10.40
9.23
8.11
6.99
5.77
4.34
2.64
0.69
-1.38
-3.38
-5.18
-6.70
-7.98
-9.15
-10.30
-11.47
-12.60
-13.60
-14.42
-15.09
-15.70
-16.38
-17.18
-18.07
-18.98
-19.80
-20.46
-20.85
-20.86
-20.35
-19.17
-17.31
-14.87
-12.10
-9.30
-6.66
-4.21
-1.90
0.35
2.51
4.43
5.90
6.82
7.20
7.21
7.06
6.89
6.77
6.65
6.49
6.28
6.02
5.74
5.43
5.07
4.61
4.07
3.46
2.82
2.18
1.55
0.91
0.24
-0.44
-1.12
-1.79
-2.45
-3.12
-3.83
-4.55
-5.25
-5.88
-6.42
-6.94
-7.56
-8.41
-9.53
-10.89
-12.31
-13.55
-14.33
-14.43
-13.75
-12.31
-10.25
-7.77
-5.06
-2.27
0.43
2.94
5.10
6.80
7.97
8.65
8.96
9.09
9.18
9.27
9.36
9.40
9.38
9.33
9.28
9.23
9.13
8.95
8.67
8.31
7.94
7.58
7.23
6.81
6.25
5.48
4.50
3.38
2.23
1.14
0.18
-0.63
-1.32
-1.98
-2.65
-3.38
-4.18
-5.04
-5.99
-7.07
-8.35
-9.79
-11.30
-12.63
-13.49
-13.63
-12.93
-11.42
-9.31
-6.83
-4.21
-1.63
0.80
2.97
4.76
6.05
6.80
7.03
6.90
6.59
6.28
6.08
6.02
6.11
6.31
6.60
6.91
7.18
7.32
7.29
7.07
6.68
6.16
5.55
4.83
4.06
3.27
2.52
1.87
1.30
0.78
0.19
-0.53
-1.42
-2.45
-3.54
-4.61
-5.65
-6.63
-7.57
-8.50
-9.48
-10.59
-11.87
-13.25
-14.53
-15.41
-15.61
-14.93
-13.36
-11.08
-8.35
-5.43
-2.55
0.12
2.45
4.35
5.74
6.61
7.01
7.08
7.00
6.90
6.88
6.93
6.99
7.00
6.94
6.86
6.84
6.92
7.07
7.18
7.11
6.79
6.24
5.56
4.88
4.26
3.70
3.18
2.63
2.02
1.35
0.60
-0.24
-1.17
-2.17
-3.20
-4.19
-5.12
-5.99
-6.86
-7.80
-8.86
-10.07
-11.37
-12.67
-13.84
-14.70
-15.11
-14.96
-14.14
-12.66
-10.55
-7.91
-4.91
-1.77
1.28
4.00
6.21
7.80
8.80
9.38
9.73
10.00
10.27
10.52
10.71
10.74
10.60
10.33
10.00
9.73
9.56
9.52
9.56
9.58
9.51
9.27
8.80
8.12
7.26
6.26
5.19
4.11
3.08
2.07
1.07
0.03
-1.08
-2.20
-3.29
-4.26
-5.08
-5.76
-6.37
-7.02
-7.77
-8.69
-9.79
-11.04
-12.39
-13.67
-14.64
-15.02
-14.56
-13.16
-10.94
-8.18
-5.27
-2.50
-0.05
2.04
3.78
5.22
6.35
7.16
7.67
7.94
8.04
8.03
7.92
7.74
7.52
7.36
7.37
7.57
7.92
8.27
8.45
8.37
8.01
7.48
6.90
6.36
5.89
5.45
4.98
4.40
3.69
2.85
1.91
0.85
-0.31
-1.57
-2.88
-4.13
-5.24
-6.16
-6.94
-7.70
-8.60
-9.73
-11.01
-12.22
-13.05
-13.22
-12.63
-11.33
-9.47
-7.24
-4.80
-2.25
0.28
2.66
4.74
6.39
7.56
8.25
8.54
8.50
8.18
7.63
6.96
6.32
5.90
5.84
6.17
6.76
7.39
7.83
7.92
7.61
7.01
6.28
5.56
5.00
4.62
4.37
4.13
3.76
3.14
2.22
1.07
-0.18
-1.36
-2.35
-3.15
-3.83
-4.48
-5.21
-6.05
-6.99
-8.07
-9.33
-10.80
-12.41
-13.94
-15.06
-15.39
-14.69
-12.94
-10.39
-7.45
-4.52
-1.89
0.36
2.25
3.88
5.28
6.41
7.20
7.64
7.79
7.77
7.76
7.85
8.06
8.28
8.41
8.38
8.20
7.94
7.71
7.58
7.57
7.63
7.65
7.55
7.25
6.72
5.97
5.06
4.08
3.11
2.22
1.39
0.59
-0.24
-1.16
-2.16
-3.19
-4.18
-5.13
-6.06
-7.08
-8.28
-9.71
-11.34
-13.03
-14.55
-15.68
-16.20
-16.01
-15.11
-13.59
-11.60
-9.30
-6.81
-4.26
-1.74
0.66
2.80
4.56
5.85
6.66
7.09
7.29
7.43
7.62
7.91
8.27
8.68
9.07
9.40
9.62
9.70
9.61
9.34
8.94
8.47
7.97
7.41
6.73
5.91
4.97
4.02
3.14
2.35
1.56
0.61
-0.61
-2.06
-3.56
-4.90
-5.93
-6.70
-7.37
-8.14
-9.10
-10.23
-11.39
-12.49
-13.49
-14.41
-15.22
-15.78
-15.88
-15.26
-13.82
-11.63
-8.93
-6.07
-3.36
-0.98
1.02
2.69
4.09
5.22
6.06
6.60
6.82
6.79
6.62
6.45
6.38
6.48
6.74
7.12
7.52
7.83
7.95
7.86
7.55
7.09
6.53
5.92
5.28
4.60
3.89
3.17
2.48
1.82
1.20
0.60
-0.05
-0.82
-1.78
-2.89
-4.09
-5.22
-6.16
-6.85
-7.38
-7.97
-8.80
-9.98
-11.38
-12.70
-13.55
-13.64
-12.87
-11.35
-9.34
-7.09
-4.82
-2.65
-0.63
1.23
2.88
4.28
5.37
6.13
6.59
6.84
7.02
7.26
7.59
7.98
8.30
8.44
8.35
8.10
7.79
7.58
7.49
7.47
7.38
7.11
6.60
5.90
5.10
4.28
3.48
2.69
1.86
0.97
0.02
-0.94
-1.89
-2.77
-3.61
-4.45
-5.35
-6.34
-7.42
-8.59
-9.82
-11.12
-12.47
-13.78
-14.86
-15.45
-15.28
-14.20
-12.31
-9.87
-7.28
-4.84
-2.67
-0.68
1.28
3.28
5.22
6.86
7.99
8.56
8.77
8.95
9.37
10.10
10.96
11.64
11.91
11.75
11.32
10.86
10.51
10.27
10.06
9.76
9.40
9.03
8.74
8.51
8.25
7.83
7.16
6.20
5.01
3.66
2.21
0.73
-0.70
-1.97
-3.02
-3.86
-4.61
-5.45
-6.53
-7.93
-9.62
-11.48
-13.35
-15.07
-16.45
-17.26
-17.31
-16.46
-14.72
-12.31
-9.60
-7.00
-4.76
-2.97
-1.50
-0.15
1.22
2.58
3.80
4.68
5.13
5.18
4.99
4.75
4.59
4.48
4.33
3.99
3.39
2.53
1.51
0.42
-0.61
-1.56
-2.42
-3.22
-3.97
-4.67
-5.25
-5.66
-5.82
-5.70
-5.36
-4.91
-4.48
-4.22
-4.23
-4.53
-5.06
-5.71
-6.39
-7.00
-7.56
-8.09
-8.69
-9.40
-10.26
-11.19
-12.04
-12.60
-12.67
-12.08
-10.78
-8.84
-6.44
-3.79
-1.08
1.54
3.97
6.10
7.83
9.07
9.81
10.09
10.05
9.84
9.63
9.49
9.45
9.53
9.71
9.97
10.25
10.51
10.68
10.73
10.67
10.54
10.32
9.99
9.43
8.59
7.48
6.21
5.01
4.07
3.45
3.11
2.87
2.54
1.98
1.17
0.17
-0.98
-2.25
-3.61
-5.04
-6.50
-7.90
-9.20
-10.38
-11.42
-12.32
-12.99
-13.33
-13.21
-12.53
-11.28
-9.51
-7.32
-4.84
-2.24
0.31
2.63
4.53
5.87
6.60
6.75
6.49
6.08
5.78
5.78
6.15
6.84
7.67
8.45
9.03
9.34
9.44
9.37
9.20
8.92
8.50
7.89
7.09
6.13
5.10
4.05
3.03
2.04
1.05
0.02
-1.06
-2.17
-3.27
-4.32
-5.28
-6.13
-6.91
-7.70
-8.61
-9.74
-11.11
-12.59
-13.93
-14.82
-14.99
-14.30
-12.76
-10.52
-7.81
-4.87
-1.95
0.78
3.18
5.16
6.65
7.63
8.13
8.23
8.07
7.79
7.51
7.33
7.24
7.24
7.29
7.33
7.34
7.28
7.13
6.85
6.43
5.91
5.33
4.74
4.15
3.51
2.79
1.97
1.08
0.19
-0.65
-1.44
-2.19
-2.95
-3.72
-4.49
-5.29
-6.14
-7.14
-8.33
-9.69
-11.07
-12.21
-12.86
-12.84
-12.11
-10.73
-8.86
-6.68
-4.34
-1.97
0.32
2.45
4.36
6.02
7.37
8.34
8.90
9.05
8.90
8.58
8.25
7.97
7.77
7.59
7.44
7.33
7.31
7.41
7.55
7.60
7.40
6.86
6.02
4.99
3.93
2.97
2.16
1.43
0.70
-0.14
-1.11
-2.18
-3.30
-4.41
-5.49
-6.55
-7.59
-8.67
-9.81
-11.07
-12.43
-13.81
-15.03
-15.84
-16.01
-15.44
-14.15
-12.29
-10.04
-7.59
-5.07
-2.57
-0.21
1.94
3.76
5.24
6.40
7.27
7.92
8.38
8.64
8.74
8.72
8.63
8.55
8.50
8.50
8.51
8.47
8.34
8.07
7.63
7.04
6.31
5.52
4.70
3.94
3.25
2.64
2.06
1.45
0.78
0.05
-0.70
-1.50
-2.37
-3.41
-4.68
-6.16
-7.79
-9.45
-11.04
-12.45
-13.63
-14.46
-14.82
-14.54
-13.51
-11.75
-9.41
-6.72
-3.99
-1.50
0.59
2.20
3.38
4.24
4.94
5.61
6.30
6.97
7.51
7.83
7.88
7.75
7.60
7.59
7.82
8.23
8.67
8.94
8.89
8.53
7.93
7.24
6.56
5.91
5.26
4.55
3.75
2.83
1.81
0.73
-0.33
-1.33
-2.23
-3.06
-3.86
-4.75
-5.79
-7.02
-8.41
-9.91
-11.42
-12.82
-13.92
-14.50
-14.32
-13.25
-11.36
-8.90
-6.21
-3.63
-1.35
0.59
2.23
3.62
4.72
5.49
5.87
5.88
5.66
5.40
5.23
5.21
5.33
5.50
5.65
5.79
5.94
6.15
6.35
6.44
6.27
5.77
4.95
3.95
2.94
2.02
1.23
0.50
-0.21
-0.92
-1.59
-2.19
-2.73
-3.27
-3.89
-4.65
-5.55
-6.58
-7.72
-8.96
-10.21
-11.29
-11.94
-11.88
-10.93
-9.08
-6.56
-3.66
-0.74
1.93
4.21
6.01
7.34
8.18
8.57
8.59
8.36
7.99
7.61
7.27
7.00
6.77
6.55
6.32
6.07
5.78
5.47
5.16
4.90
4.74
4.66
4.58
4.37
3.91
3.16
2.21
1.22
0.38
-0.28
-0.79
-1.32
-2.00
-2.91
-4.00
-5.16
-6.32
-7.42
-8.51
-9.62
-10.75
-11.81
-12.65
-13.10
-13.03
-12.35
-11.10
-9.36
-7.28
-5.09
-3.01
-1.21
0.24
1.37
2.30
3.16
3.97
4.69
5.22
5.48
5.51
5.47
5.53
5.76
6.15
6.56
6.87
7.03
7.06
7.01
6.91
6.71
6.31
5.69
4.85
3.93
3.02
2.20
1.46
0.73
-0.05
-0.92
-1.88
-2.88
-3.87
-4.84
-5.80
-6.80
-7.92
-9.24
-10.74
-12.30
-13.64
-14.42
-14.35
-13.35
-11.52
-9.21
-6.76
-4.50
-2.58
-1.04
0.19
1.18
2.01
2.74
3.41
4.03
4.60
5.09
5.49
5.78
5.96
6.04
6.04
5.98
5.89
5.81
5.75
5.70
5.60
5.38
5.01
4.45
3.72
2.87
1.92
0.90
-0.17
-1.26
-2.32
-3.31
-4.19
-5.00
-5.79
-6.63
-7.57
-8.64
-9.83
-11.08
-12.32
-13.38
-14.08
-14.22
-13.68
-12.45
-10.63
-8.44
-6.09
-3.76
-1.54
0.57
2.55
4.39
5.96
7.12
7.76
7.88
7.63
7.29
7.12
7.33
7.90
8.66
9.37
9.82
9.92
9.71
9.29
8.72
8.02
7.18
6.20
5.15
4.13
3.23
2.48
1.83
1.17
0.43
-0.44
-1.43
-2.50
-3.66
-4.91
-6.29
-7.80
-9.39
-10.95
-12.34
-13.46
-14.16
-14.37
-13.99
-12.97
-11.36
-9.27
-6.88
-4.40
-2.02
0.13
1.96
3.44
4.56
5.35
5.82
6.05
6.08
5.99
5.88
5.82
5.86
5.99
6.11
6.13
5.98
5.70
5.40
5.22
5.20
5.31
5.39
5.29
4.86
4.07
2.94
1.55
0.04
-1.47
-2.86
-4.06
-5.06
-5.92
-6.73
-7.56
-8.49
-9.54
-10.67
-11.78
-12.66
-13.06
-12.72
-11.55
-9.63
-7.19
-4.57
-2.06
0.18
2.08
3.66
4.97
6.00
6.74
7.16
7.30
7.24
7.10
7.01
7.06
7.25
7.55
7.84
8.01
8.01
7.82
7.47
7.02
6.53
6.04
5.54
4.97
4.26
3.29
2.04
0.58
-0.94
-2.32
-3.44
-4.30
-5.04
-5.83
-6.83
-8.08
-9.49
-10.89
-12.07
-12.82
-12.99
-12.47
-11.26
-9.45
-7.21
-4.73
-2.20
0.27
2.57
4.60
6.23
7.35
7.90
7.94
7.67
7.34
7.16
7.22
7.50
7.85
8.17
8.39
8.53
8.59
8.58
8.46
8.18
7.72
7.09
6.32
5.46
4.51
3.45
2.30
1.07
-0.15
-1.31
-2.36
-3.32
-4.27
-5.33
-6.59
-8.06
-9.69
-11.32
-12.76
-13.81
-14.30
-14.10
-13.16
-11.50
-9.24
-6.61
-3.85
-1.21
1.16
3.20
4.93
6.38
7.58
8.51
9.18
9.61
9.84
9.92
9.90
9.83
9.74
9.68
9.66
9.64
9.57
9.34
8.90
8.24
7.44
6.59
5.75
4.90
3.97
2.90
1.67
0.34
-1.04
-2.37
-3.58
-4.65
-5.63
-6.59
-7.63
-8.87
-10.31
-11.90
-13.44
-14.67
-15.32
-15.21
-14.26
-12.54
-10.21
-7.51
-4.65
-1.85
0.74
3.03
4.99
6.65
8.02
9.14
9.98
10.52
10.77
10.74
10.48
10.09
9.70
9.42
9.32
9.39
9.51
9.54
9.32
8.79
7.96
6.93
5.83
4.77
3.81
2.92
2.05
1.14
0.17
-0.87
-2.00
-3.20
-4.46
-5.79
-7.15
-8.54
-9.96
-11.38
-12.74
-13.96
-14.93
-15.49
-15.55
-15.04
-13.97
-12.36
-10.27
-7.79
-5.06
-2.24
0.45
2.81
4.73
6.19
7.25
8.01
8.60
9.05
9.36
9.50
9.46
9.29
9.12
9.06
9.17
9.39
9.56
9.53
9.21
8.63
7.89
7.14
6.42
5.71
4.93
3.97
2.83
1.55
0.24
-1.01
-2.18
-3.31
-4.49
-5.79
-7.19
-8.59
-9.89
-10.98
-11.85
-12.58
-13.25
-13.91
-14.54
-15.00
-15.08
-14.59
-13.41
-11.53
-9.07
-6.25
-3.34
-0.58
1.89
4.00
5.73
7.07
7.98
8.45
8.53
8.35
8.14
8.08
8.28
8.74
9.32
9.89
10.27
10.39
10.20
9.74
9.07
8.32
7.60
7.01
6.52
6.07
5.54
4.81
3.89
2.83
1.72
0.66
-0.37
-1.42
-2.54
-3.75
-5.01
-6.23
-7.38
-8.44
-9.48
-10.55
-11.68
-12.82
-13.84
-14.57
-14.84
-14.49
-13.40
-11.57
-9.12
-6.29
-3.40
-0.73
1.58
3.49
5.07
6.38
7.42
8.14
8.48
8.47
8.27
8.12
8.21
8.63
9.26
9.88
10.28
10.34
10.08
9.62
9.05
8.41
7.68
6.82
5.84
4.81
3.81
2.85
1.90
0.89
-0.21
-1.37
-2.49
-3.51
-4.45
-5.39
-6.45
-7.69
-9.05
-10.44
-11.72
-12.83
-13.77
-14.60
-15.30
