1650346483.00
64.000000
-0.00
-0.00
-0.00
-0.00
-0.00
-0.00
-0.00
-0.00
-0.00
-0.00
0.00
0.01
0.01
-0.00
-0.03
-0.05
-0.05
0.00
0.13
0.36
0.66
1.01
1.37
1.72
2.06
2.40
2.79
3.24
3.80
4.42
5.06
5.66
6.20
6.68
7.15
7.68
8.31
9.14
10.09
11.04
11.88
12.56
13.14
13.76
14.65
15.96
17.91
20.32
22.90
25.38
27.58
29.57
31.68
34.32
37.81
42.54
48.15
54.10
59.83
64.97
69.58
74.14
79.34
85.71
93.76
103.00
112.62
121.73
129.77
136.75
143.30
150.75
157.77
166.64
177.95
191.79
206.97
220.57
228.25
225.36
208.53
176.87
132.76
80.05
23.07
-34.94
-92.44
-149.16
-205.23
-260.37
-313.74
-363.87
-409.83
-450.91
-486.50
-515.74
-537.23
-549.22
-549.96
-538.37
-514.21
-478.67
-433.88
-382.45
-327.02
-269.84
-212.63
-156.66
-102.95
-52.37
-5.90
35.58
71.43
101.35
125.50
144.38
158.69
169.15
176.37
180.75
182.57
182.07
179.51
175.23
169.65
163.18
156.15
148.81
141.30
133.69
126.02
118.33
110.69
103.16
95.80
88.68
81.83
75.25
68.95
62.95
57.25
51.86
46.78
42.03
37.59
33.45
29.61
26.07
22.81
19.83
17.11
14.67
12.48
10.54
8.83
7.35
6.07
4.97
4.05
3.27
2.62
2.09
1.65
1.29
1.01
0.79
0.62
0.50
0.41
0.31
0.21
0.10
-0.03
-0.13
-0.20
-0.22
-0.20
-0.16
-0.13
-0.13
-0.17
-0.24
-0.30
-0.32
-0.28
-0.20
-0.12
-0.09
-0.14
-0.29
-0.50
-0.68
-0.76
-0.70
-0.53
-0.35
-0.29
-0.45
-0.85
-1.39
-1.87
-2.10
-1.98
-1.60
-1.16
-0.96
-1.21
-1.96
-2.99
-3.93
-4.41
-4.23
-3.51
-2.66
-2.17
-2.42
-3.49
-5.03
-6.45
-7.24
-7.09
-6.15
-4.86
-3.78
-3.35
-3.90
-5.58
-8.30
-11.53
-14.11
-14.42
-10.80
-2.54
9.51
23.00
34.81
42.37
44.63
42.40
37.36
31.30
25.26
19.43
13.51
7.40
1.43
-3.64
-7.13
-8.82
-8.99
-8.25
-7.27
-6.50
-6.00
-5.59
-5.01
-4.10
-2.97
-1.85
-1.11
-0.99
-1.58
-2.69
-4.00
-5.13
-5.80
-5.94
-5.63
-5.08
-4.51
-4.06
-3.75
-3.51
-3.18
-2.72
-2.18
-1.68
-1.35
-1.28
-1.49
-1.87
-2.26
-2.51
-2.56
-2.48
-2.38
-2.43
-2.75
-3.28
-3.91
-4.43
-4.61
-4.28
-3.39
-1.91
0.09
2.46
4.99
7.44
9.56
11.20
12.32
12.80
12.69
12.06
11.05
9.72
8.19
6.53
4.82
3.15
1.57
0.15
-1.08
-2.09
-2.86
-3.36
-3.56
-3.48
-3.22
-2.97
-2.87
-3.03
-3.44
-4.00
-4.57
-5.11
-5.68
-6.45
-7.63
-9.32
-11.41
-13.61
-15.47
-16.58
-16.67
-15.74
-14.01
-11.85
-9.59
-7.47
-5.55
-3.82
-2.24
-0.83
0.31
1.07
1.37
1.27
0.89
0.35
-0.27
-0.95
-1.70
-2.51
-3.27
-3.89
-4.33
-4.70
-5.19
-6.00
-7.16
-8.57
-10.00
-11.23
-12.19
-12.95
-13.75
-14.73
-15.94
-17.29
-18.54
-19.40
-19.58
-18.83
-16.99
-14.00
-10.00
-5.31
-0.40
4.25
8.23
11.33
13.53
14.95
15.75
16.09
16.12
16.04
16.02
16.25
16.83
17.73
18.78
19.74
20.35
20.47
20.07
19.23
18.11
16.82
15.46
13.97
12.25
10.14
7.49
4.25
0.46
-3.76
-8.24
-12.78
-17.18
-21.23
-24.63
-27.10
-28.46
-28.65
-27.91
-26.56
-24.99
-23.47
-22.09
-20.85
-19.71
-18.65
-17.70
-16.85
-15.99
-14.96
-13.59
-11.79
-9.66
-7.41
-5.29
-3.49
-2.09
-1.06
-0.36
0.08
0.28
0.24
-0.03
-0.54
-1.27
-2.21
-3.34
-4.60
-5.94
-7.34
-8.92
-10.85
-13.26
-16.15
-19.29
-22.21
-24.38
-25.29
-24.63
-22.36
-18.65
-13.91
-8.73
-3.75
0.42
3.36
4.93
5.29
4.73
3.54
1.86
-0.27
-2.89
-6.02
-9.57
-13.42
-17.40
-21.29
-24.87
-27.79
-29.69
-30.20
-29.10
-26.34
-22.09
-16.68
-10.47
-3.88
2.64
8.65
13.68
17.38
19.60
20.48
20.33
19.63
18.79
18.23
18.28
19.25
21.33
24.54
28.63
33.10
37.38
40.94
43.49
44.98
45.50
45.24
44.36
43.00
41.36
39.62
37.94
36.35
34.78
33.11
31.24
29.14
26.86
24.53
22.24
20.04
17.90
15.80
13.68
11.53
9.29
6.90
4.25
1.19
-2.33
-6.29
-10.47
-14.52
-17.99
-20.46
-21.57
-21.16
-19.20
-15.83
-11.30
-6.01
-0.43
4.89
9.46
12.95
15.22
16.41
16.73
16.47
15.80
14.84
13.64
12.29
10.92
9.67
8.66
7.84
7.04
6.08
4.81
3.22
1.41
-0.46
-2.28
-4.05
-5.87
-7.86
-10.16
-12.81
-15.79
-19.01
-22.32
-25.45
-28.06
-29.69
-29.88
-28.26
-24.68
-19.34
-12.74
-5.55
1.53
7.93
13.36
17.68
20.93
23.19
24.55
25.11
24.96
24.28
23.25
22.07
20.88
19.73
18.62
17.44
16.04
14.24
11.87
8.86
5.28
1.31
-2.78
-6.77
-10.56
-14.23
-17.93
-21.85
-26.12
-30.74
-35.64
-40.58
-45.20
-48.96
-51.19
-51.24
-48.70
-43.55
-36.25
-27.60
-18.53
-9.83
-2.03
4.66
10.23
14.78
18.39
21.19
23.29
24.83
25.97
26.80
27.34
27.52
27.24
26.41
25.01
23.09
20.82
18.36
15.83
13.24
10.50
7.44
3.95
-0.02
-4.41
-9.06
-13.80
-18.48
-23.00
-27.23
-31.05
-34.24
-36.54
-37.63
-37.17
-34.92
-30.77
-24.88
-17.69
-9.91
-2.36
4.27
9.53
13.34
15.87
17.50
18.59
19.40
20.08
20.69
21.24
21.76
22.29
22.84
23.40
23.92
24.30
24.39
24.09
23.36
22.28
21.11
20.23
19.98
20.61
22.09
24.09
26.04
27.28
27.25
25.67
22.67
18.75
14.71
11.42
9.59
9.58
11.27
14.15
17.50
20.71
23.54
26.17
29.10
32.79
37.31
42.22
46.64
49.58
50.38
48.90
45.56
41.08
36.16
31.25
26.49
21.79
17.11
12.55
8.43
5.20
3.31
3.12
4.75
8.11
12.85
18.38
23.93
28.60
31.59
32.36
30.77
27.05
21.70
15.26
8.19
0.80
-6.59
-13.63
-19.91
-25.11
-29.07
-31.89
-33.82
-35.09
-35.79
-35.82
-35.04
-33.46
-31.36
-29.19
-27.47
-26.59
-26.62
-27.40
-28.62
-29.99
-31.33
-32.55
-33.62
-34.49
-35.09
-35.43
-35.67
-36.09
-37.00
-38.65
-41.06
-43.94
-46.73
-48.67
-48.96
-47.02
-42.71
-36.38
-28.86
-21.25
-14.57
-9.50
-6.28
-4.67
-4.19
-4.28
-4.47
-4.42
-3.90
-2.83
-1.16
1.01
3.55
6.22
8.79
11.01
12.72
13.81
14.28
14.22
13.77
13.10
12.32
11.49
10.67
9.87
9.14
8.57
8.23
8.11
8.14
8.12
7.81
7.08
5.85
4.24
2.41
0.50
-1.45
-3.53
-5.93
-8.78
-12.08
-15.62
-19.03
-21.95
-24.08
-25.30
-25.56
-24.87
-23.25
-20.77
-17.54
-13.77
-9.67
-5.36
-0.91
3.70
8.44
13.14
17.47
21.03
23.50
24.77
24.92
24.19
22.86
21.17
19.31
17.40
15.51
13.69
11.90
10.05
8.01
5.67
2.99
0.03
-3.06
-6.04
-8.74
-11.11
-13.26
-15.42
-17.82
-20.53
-23.35
-25.88
-27.52
-27.72
-26.13
-22.65
-17.54
-11.31
-4.61
1.90
7.67
12.36
15.89
18.38
20.10
21.34
22.29
23.05
23.64
24.04
24.23
24.19
23.87
23.21
22.13
20.56
18.54
16.15
13.54
10.85
8.14
5.39
2.51
-0.52
-3.71
-6.95
-10.15
-13.31
-16.47
-19.74
-23.21
-26.83
-30.41
-33.58
-35.87
-36.76
-35.83
-32.92
-28.13
-21.87
-14.81
-7.62
-0.91
4.97
9.83
13.65
16.44
18.27
19.24
19.57
19.51
19.30
19.07
18.77
18.29
17.51
16.43
15.15
13.84
12.56
11.26
9.79
7.99
5.80
3.32
0.73
-1.84
-4.36
-6.93
-9.74
-12.94
-16.58
-20.58
-24.70
-28.60
-31.81
-33.77
-33.97
-32.02
-27.86
-21.78
-14.39
-6.49
1.21
8.12
13.90
18.38
21.50
23.29
23.93
23.69
22.97
22.09
21.32
20.69
20.18
19.66
19.04
18.31
17.49
16.62
15.74
14.81
13.78
12.54
10.98
9.02
6.67
4.03
1.28
-1.46
-4.13
-6.81
-9.62
-12.59
-15.61
-18.37
-20.51
-21.61
-21.34
-19.50
-16.06
-11.23
-5.47
0.51
6.00
10.41
13.44
15.20
16.01
16.29
16.31
16.19
15.92
15.46
14.89
14.31
13.81
13.41
12.99
12.39
11.50
10.30
8.84
7.16
5.24
3.03
0.47
-2.41
-5.49
-8.59
-11.58
-14.34
-16.92
-19.41
-21.94
-24.59
-27.38
-30.17
-32.66
-34.36
-34.74
-33.30
-29.80
-24.31
-17.30
-9.48
-1.65
5.47
11.41
15.98
19.23
21.38
22.67
23.33
23.47
23.22
22.68
21.99
21.34
20.87
20.56
20.32
19.90
19.11
17.87
16.29
14.53
12.78
11.07
9.29
7.25
4.89
2.28
-0.34
-2.74
-4.81
-6.66
-8.57
-10.80
-13.50
-16.57
-19.72
-22.52
-24.52
-25.37
-24.78
-22.64
-19.04
-14.30
-8.96
-3.67
0.93
4.37
6.49
7.36
7.30
6.68
5.85
5.08
4.54
4.27
4.19
4.11
3.89
3.36
2.52
1.46
0.37
-0.57
-1.28
-1.79
-2.25
-2.83
-3.62
-4.66
-5.87
-7.17
-8.49
-9.85
-11.34
-13.07
-15.16
-17.69
-20.63
-23.83
-26.97
-29.55
-30.98
-30.73
-28.49
-24.33
-18.65
-12.15
-5.60
0.37
5.38
9.32
12.27
14.38
15.79
16.61
16.94
16.92
16.70
16.44
16.23
16.05
15.82
15.42
14.79
13.94
12.94
11.86
10.70
9.39
7.82
5.92
3.65
1.10
-1.59
-4.25
-6.83
-9.31
-11.74
-14.16
-16.56
-18.87
-20.96
-22.67
-23.81
-24.11
-23.33
-21.28
-17.96
-13.60
-8.63
-3.59
1.04
4.97
8.13
10.56
12.31
13.45
14.00
14.05
13.78
13.44
13.26
13.38
13.76
14.24
14.64
14.79
14.66
14.26
13.69
12.98
12.06
10.83
9.16
7.00
4.40
1.57
-1.29
-3.99
-6.48
-8.84
-11.23
-13.77
-16.52
-19.41
-22.26
-24.77
-26.56
-27.20
-26.36
-23.84
-19.70
-14.27
-8.10
-1.85
3.86
8.53
11.93
14.02
14.93
14.91
14.27
13.29
12.20
11.16
10.26
9.56
9.03
8.63
8.29
7.92
7.45
6.89
6.23
5.52
4.79
4.03
3.21
2.30
1.28
0.13
-1.11
-2.47
-4.05
-5.99
-8.41
-11.34
-14.62
-17.87
-20.60
-22.25
-22.40
-20.84
-17.63
-13.12
-7.84
-2.38
2.70
7.04
10.44
12.86
14.37
15.06
15.07
14.56
13.71
12.74
11.82
11.06
10.44
9.87
9.22
8.39
7.35
6.12
4.72
3.18
1.49
-0.37
-2.40
-4.57
-6.83
-9.15
-11.55
-14.11
-16.89
-19.84
-22.84
-25.64
-27.97
-29.56
-30.17
-29.57
-27.57
-24.10
-19.29
-13.52
-7.40
-1.62
3.25
6.88
9.23
10.45
10.79
10.53
9.95
9.29
8.77
8.49
8.44
8.42
8.19
7.53
6.35
4.66
2.58
0.26
-2.19
-4.68
-7.13
-9.48
-11.69
-13.73
-15.65
-17.56
-19.61
-21.95
-24.69
-27.83
-31.14
-34.20
-36.36
-36.89
-35.22
-31.12
-24.81
-16.90
-8.23
0.35
8.18
14.81
20.01
23.73
26.03
27.11
27.27
26.91
26.36
25.80
25.23
24.53
23.57
22.34
20.94
19.55
18.27
17.05
15.73
14.09
12.02
9.56
6.86
4.16
1.63
-0.65
-2.75
-4.90
-7.37
-10.37
-13.97
-18.04
-22.22
-25.99
-28.72
-29.79
-28.73
-25.36
-19.84
-12.71
-4.75
3.16
10.26
16.06
20.41
23.41
25.30
26.30
26.56
26.18
25.31
24.15
22.93
21.88
21.04
20.31
19.46
18.33
16.84
15.12
13.32
11.58
9.90
8.14
6.13
3.77
1.13
-1.64
-4.33
-6.80
-9.09
-11.36
-13.86
-16.82
-20.34
-24.32
-28.42
-32.03
-34.46
-35.02
-33.25
-29.01
-22.66
-14.87
-6.54
1.50
8.60
14.42
18.90
22.09
24.11
25.04
25.01
24.18
22.86
21.37
20.03
19.02
18.29
17.64
16.83
15.69
14.22
12.57
10.90
9.31
7.77
6.11
4.19
1.97
-0.42
-2.77
-4.91
-6.78
-8.56
-10.48
-12.82
-15.71
-19.11
-22.77
-26.34
-29.38
-31.41
-31.94
-30.58
-27.17
-21.84
-15.10
-7.74
-0.62
5.56
10.42
13.91
16.21
17.54
18.13
18.15
17.69
16.92
15.94
14.89
13.82
12.73
11.59
10.34
8.95
7.39
5.61
3.55
1.18
-1.54
-4.59
-7.93
-11.49
-15.22
-19.07
-23.00
-26.97
-31.01
-35.15
-39.47
-44.06
-48.91
-53.85
-58.45
-62.12
-64.20
-64.17
-61.81
-57.31
-51.16
-44.00
-36.46
-28.92
-21.57
-14.36
-7.19
0.06
7.46
14.97
22.48
29.80
36.68
42.83
47.99
51.97
54.67
56.09
56.31
55.45
53.63
50.99
47.66
43.76
39.43
34.84
30.15
25.52
21.01
16.60
12.17
7.55
2.59
-2.74
-8.35
-13.94
-19.08
-23.20
-25.69
-26.00
-23.80
-19.18
-12.63
-5.01
2.70
9.63
15.23
19.36
22.14
23.83
24.64
24.72
24.17
23.15
21.87
20.58
19.46
18.54
17.76
16.93
15.95
14.75
13.34
11.73
9.91
7.90
5.71
3.40
1.11
-1.09
-3.19
-5.28
-7.52
-10.09
-13.08
-16.52
-20.30
-24.23
-27.98
-31.05
-32.82
-32.71
-30.33
-25.71
-19.33
-12.00
-4.59
2.19
7.94
12.54
16.03
18.48
19.92
20.44
20.24
19.61
18.91
18.38
18.08
17.90
17.68
17.28
16.69
15.92
15.00
13.89
12.50
10.76
8.66
6.30
3.82
1.33
-1.15
-3.63
-6.16
-8.80
-11.61
-14.63
-17.94
-21.45
-24.95
-28.00
-30.02
-30.45
-28.90
-25.36
-20.14
-13.89
-7.36
-1.26
3.92
7.95
10.82
12.72
13.83
14.36
14.44
14.21
13.82
13.41
13.05
12.74
12.41
11.93
11.29
10.50
9.65
8.77
7.81
6.65
5.17
3.35
1.24
-1.00
-3.24
-5.39
-7.43
-9.45
-11.60
-13.99
-16.67
-19.47
-22.00
-23.70
-23.92
-22.25
-18.64
-13.50
-7.57
-1.62
3.75
8.22
11.72
14.21
15.68
16.11
15.57
14.29
12.69
11.20
10.11
9.53
9.33
9.32
9.28
9.07
8.60
7.80
6.64
5.15
3.43
1.64
-0.11
-1.76
-3.39
-5.20
-7.44
-10.31
-13.84
-17.84
-21.90
-25.45
-27.88
-28.65
-27.50
-24.43
-19.75
-13.96
-7.70
-1.61
3.76
8.05
11.08
12.85
13.53
13.33
12.53
11.37
10.08
8.86
7.88
7.20
6.82
6.55
6.13
5.26
3.75
1.62
-0.94
-3.60
-6.05
-8.17
-10.05
-11.98
-14.26
-17.13
-20.59
-24.42
-28.20
-31.37
-33.31
-33.48
-31.55
-27.49
-21.69
-14.87
-7.91
-1.53
3.80
8.03
11.39
14.25
16.92
19.50
21.93
24.07
25.77
26.97
27.65
27.83
27.48
26.51
24.79
22.25
18.94
15.06
10.93
6.89
3.12
-0.42
-3.92
-7.67
-11.92
-16.80
-22.27
-28.18
-34.15
-39.58
-43.68
-45.55
-44.51
-40.39
-33.67
-25.46
-17.05
-9.52
-3.33
1.67
5.95
9.92
13.60
16.66
18.63
19.26
18.73
17.57
16.41
15.68
15.39
15.25
14.87
13.95
12.45
10.50
8.28
5.92
3.41
0.67
-2.40
-5.85
-9.70
-13.89
-18.40
-23.16
-27.97
-32.40
-35.76
-37.15
-35.77
-31.24
-23.84
-14.47
-4.43
5.03
13.10
19.47
24.30
27.88
30.39
31.84
32.17
31.41
29.76
27.59
25.25
23.00
20.89
18.84
16.67
14.27
11.52
8.43
5.06
1.56
-1.91
-5.22
-8.34
-11.34
-14.38
-17.62
-21.21
-25.23
-29.68
-34.40
-38.95
-42.55
-44.22
-43.06
-38.57
-30.93
-20.97
-9.95
0.84
10.44
18.36
24.50
29.00
32.09
33.99
34.95
35.23
35.07
34.63
33.99
33.11
31.90
30.31
28.32
25.97
23.40
20.73
18.12
15.60
13.14
10.58
7.73
4.47
0.85
-2.95
-6.66
-10.13
-13.40
-16.77
-20.67
-25.36
-30.76
-36.20
-40.62
-42.76
-41.69
-37.08
-29.36
-19.59
-9.06
1.03
9.92
17.23
22.88
26.93
29.49
30.69
30.83
30.28
29.50
28.83
28.38
28.03
27.46
26.40
24.70
22.49
20.06
17.71
15.63
13.82
12.06
10.07
7.65
4.74
1.46
-1.97
-5.35
-8.55
-11.57
-14.49
-17.48
-20.74
-24.48
-28.79
-33.49
-38.03
-41.46
-42.71
-40.87
-35.58
-27.20
-16.73
-5.56
5.01
14.02
21.03
26.03
29.25
31.00
31.54
31.10
29.93
28.29
26.45
24.65
23.02
21.53
20.04
18.44
16.68
14.87
13.20
11.82
10.72
9.69
8.38
6.44
3.71
0.27
-3.56
-7.38
-10.81
-13.66
-15.97
-17.94
-19.93
-22.31
-25.33
-29.07
-33.26
-37.25
-40.11
-40.84
-38.72
-33.52
-25.68
-16.10
-5.93
3.78
12.28
19.17
24.28
27.62
29.27
29.43
28.46
26.83
25.09
23.65
22.69
22.11
21.62
20.91
19.81
18.33
16.66
15.04
13.61
12.33
10.98
9.28
7.02
4.20
1.02
-2.19
-5.12
-7.60
-9.67
-11.50
-13.41
-15.71
-18.68
-22.35
-26.47
-30.41
-33.23
-33.96
-31.90
-26.92
-19.54
-10.79
-1.86
6.26
12.96
17.98
21.35
23.17
23.60
22.82
21.18
19.12
17.16
15.71
14.93
14.71
14.70
14.50
13.84
12.66
11.16
9.66
8.42
7.56
6.97
6.36
5.42
3.93
1.88
-0.55
-3.07
-5.45
-7.59
-9.62
-11.83
-14.56
-18.02
-22.26
-27.01
-31.72
-35.62
-37.86
-37.69
-34.77
-29.25
-21.79
-13.40
-5.11
2.28
8.35
13.05
16.51
18.91
20.38
21.02
20.95
20.37
19.51
18.61
17.76
16.88
15.78
14.27
12.32
10.05
7.71
5.54
3.68
2.06
0.48
-1.31
-3.39
-5.63
-7.80
-9.70
-11.26
-12.61
-13.99
-15.65
-17.81
-20.42
-23.32
-26.35
-29.45
-32.49
-35.05
-36.44
-35.90
-33.00
-27.51
-19.77
-10.66
-1.49
6.39
12.05
15.14
15.75
14.31
11.91
9.83
8.96
9.32
10.19
10.71
10.33
9.03
7.17
5.91
6.64
10.38
17.49
27.82
40.98
56.14
71.48
80.45
76.72
57.86
27.78
-5.68
-35.14
-55.86
-65.58
-64.15
-53.07
-34.27
-10.56
14.19
36.06
51.12
56.18
49.81
32.57
6.62
-23.50
-51.90
-72.75
-81.94
-78.27
-63.48
-41.48
-15.71
8.66
27.45
38.52
41.63
37.83
28.61
15.74
1.27
-12.61
-23.99
-30.92
-32.23
-28.11
-20.20
-11.16
-3.56
0.98
2.07
0.26
-3.05
-6.36
-8.65
-9.70
-9.90
-9.91
-10.22
-10.96
-11.93
-12.51
-11.89
-9.41
-4.76
1.92
10.08
18.94
27.68
35.50
41.88
46.55
49.45
50.66
50.38
48.93
46.72
44.19
41.70
39.54
37.74
36.20
34.53
32.25
28.86
24.03
17.79
10.70
3.72
-2.05
-5.77
-7.32
-7.46
-7.60
-9.27
-13.52
-20.60
-29.94
-40.59
-51.63
-62.44
-72.61
-81.74
-89.32
-94.68
-97.33
-97.05
-94.10
-88.91
-81.95
-73.48
-63.63
-52.64
-40.95
-29.30
-18.49
-9.09
-1.21
5.45
11.40
17.05
22.51
27.58
31.97
35.48
38.02
39.49
39.66
38.18
34.81
29.69
23.51
17.34
12.24
8.82
7.01
6.23
5.74
5.04
4.06
3.13
2.66
2.98
4.14
5.88
7.78
9.38
10.33
10.58
10.43
10.46
11.25
13.23
16.47
20.70
25.53
30.56
35.55
40.37
44.85
48.73
51.61
53.15
53.17
51.76
49.22
45.98
42.40
38.79
35.26
31.80
28.27
24.45
20.12
15.14
9.52
3.41
-2.90
-9.16
-15.14
-20.72
-25.77
-30.16
-33.78
-36.54
-38.53
-39.95
-41.08
-42.08
-43.01
-43.73
-43.98
-43.47
-41.93
-39.25
-35.43
-30.69
-25.33
-19.81
-14.61
-10.14
-6.68
-4.29
-2.87
-2.17
-1.96
-2.02
-2.16
-2.22
-2.06
-1.56
-0.71
0.41
1.59
2.59
3.17
3.13
2.40
1.00
-0.92
-3.10
-5.27
-7.18
-8.74
-10.01
-11.17
-12.43
-13.85
-15.33
-16.62
-17.42
-17.51
-16.80
-15.35
-13.34
-10.90
-8.13
-5.11
-1.93
1.22
4.07
6.28
7.60
7.93
7.35
6.15
4.66
3.16
1.84
0.79
0.01
-0.57
-1.04
-1.48
-1.95
-2.50
-3.14
-3.87
-4.68
-5.62
-6.72
-7.99
-9.41
-10.97
-12.68
-14.62
-16.90
-19.61
-22.69
-25.83
-28.54
-30.27
-30.59
-29.27
-26.40
-22.24
-17.20
-11.68
-6.10
-0.82
3.81
7.55
10.26
12.00
12.95
13.36
13.44
13.35
13.19
13.04
13.00
13.14
13.46
13.82
13.98
13.73
12.93
11.65
10.09
8.50
7.06
5.84
4.76
3.68
2.41
0.78
-1.30
-3.82
-6.64
-9.38
-11.59
-12.82
-12.70
-11.13
-8.20
-4.17
0.53
5.51
10.33
14.62
18.11
20.62
22.13
22.72
22.56
21.88
20.90
19.81
18.72
17.66
16.67
15.78
15.07
14.67
14.63
14.92
15.33
15.57
15.34
14.45
12.86
10.60
7.75
4.32
0.30
-4.30
-9.39
-14.76
-20.16
-25.28
-29.83
-33.57
-36.28
-37.81
-38.03
-36.93
-34.57
-31.14
-26.96
-22.45
-18.08
-14.25
-11.18
-8.95
-7.44
-6.49
-5.95
-5.73
-5.74
-5.85
-5.85
-5.54
-4.81
-3.69
-2.38
-1.15
-0.28
0.10
-0.04
-0.60
-1.45
-2.47
-3.60
-4.83
-6.23
-7.91
-10.00
-12.59
-15.68
-19.08
-22.43
-25.22
-26.86
-26.76
-24.50
-19.90
-13.18
-4.92
3.95
12.36
19.32
24.18
26.68
27.02
25.65
23.10
19.84
16.21
12.48
8.91
5.84
3.58
2.31
2.02
2.44
3.21
3.95
4.46
4.70
4.74
4.61
4.27
3.54
2.26
0.25
-2.55
-6.18
-10.63
-15.93
-22.00
-28.60
-35.19
-41.00
-45.11
-46.65
-45.04
-40.16
-32.38
-22.49
-11.58
-0.74
9.11
17.39
23.87
28.63
31.87
33.79
34.54
34.25
33.04
31.13
28.82
26.35
23.93
21.61
19.31
16.95
14.46
11.85
9.16
6.45
3.77
1.12
-1.51
-4.08
-6.52
-8.77
-10.79
-12.70
-14.71
-17.11
-20.07
-23.49
-26.94
-29.62
-30.64
-29.29
-25.30
-18.96
-10.99
-2.36
6.00
13.36
19.24
23.43
25.95
26.93
26.70
25.61
24.06
22.41
20.90
19.70
18.82
18.22
17.77
17.28
16.52
15.34
13.71
11.82
9.95
8.42
7.41
6.93
6.78
6.63
6.10
4.85
2.60
-0.80
-5.34
-10.84
-16.90
-22.87
-27.96
-31.31
-32.20
-30.23
-25.47
-18.47
-10.21
-1.81
5.74
11.79
16.06
18.62
19.70
19.55
18.45
16.74
14.79
13.00
11.70
11.06
11.07
11.56
12.28
13.02
13.65
14.07
14.23
14.02
13.32
11.97
9.93
7.24
4.11
0.85
-2.27
-5.11
-7.72
-10.35
-13.28
-16.75
-20.76
-24.98
-28.83
-31.53
-32.32
-30.57
-26.05
-18.93
-9.87
0.14
9.97
18.62
25.40
30.01
32.59
33.51
33.20
32.08
30.45
28.49
26.36
24.16
21.99
19.86
17.73
15.56
13.35
11.13
9.01
7.10
5.37
3.71
1.88
-0.29
-2.88
-5.77
-8.72
-11.49
-13.93
-16.07
-18.11
-20.32
-22.98
-26.28
-30.25
-34.63
-38.88
-42.13
-43.47
-42.12
-37.85
-31.02
-22.52
-13.53
-5.12
2.05
7.75
12.10
15.36
17.78
19.50
20.60
21.19
21.40
21.35
21.17
20.90
20.56
20.15
19.68
19.16
18.59
17.89
16.88
15.36
13.15
10.20
6.66
2.84
-0.87
-4.19
-6.98
-9.37
-11.71
-14.39
-17.70
-21.75
-26.38
-31.16
-35.43
-38.40
-39.22
-37.26
-32.23
-24.43
-14.72
-4.36
5.36
13.45
19.44
23.37
25.59
26.52
26.48
25.72
24.44
22.93
21.46
20.27
19.39
18.69
17.95
17.03
15.93
14.78
13.73
12.84
12.04
11.13
9.88
8.12
5.78
2.92
-0.29
-3.64
-6.92
-10.04
-13.02
-16.06
-19.35
-23.01
-26.90
-30.54
-33.27
-34.34
-33.15
-29.46
-23.40
-15.55
-6.72
2.13
10.13
16.61
21.19
23.78
24.49
23.64
21.64
18.96
16.04
13.31
11.03
9.33
8.20
7.51
7.09
6.76
6.35
5.74
4.81
3.51
1.83
-0.13
-2.24
-4.40
-6.55
-8.74
-11.11
-13.80
-16.93
-20.49
-24.31
-28.05
-31.23
-33.24
-33.48
-31.44
-26.97
-20.34
-12.29
-3.83
4.05
10.61
15.50
18.72
20.50
21.08
20.66
19.42
17.59
15.49
13.46
11.81
10.63
9.84
9.24
8.58
7.70
6.51
4.95
2.98
0.51
-2.45
-5.82
-9.39
-12.90
-16.15
-19.12
-21.93
-24.82
-28.02
-31.58
-35.31
-38.73
-41.07
-41.45
-39.15
-33.82
-25.71
-15.61
-4.71
5.76
14.80
21.83
26.69
29.54
30.74
30.71
29.86
28.52
26.93
25.26
23.59
21.99
20.56
19.31
18.13
16.73
14.78
12.04
8.61
4.93
1.63
-0.71
-1.84
-1.93
-1.54
-1.39
-2.16
-4.35
-8.21
-13.77
-20.80
-28.71
-36.43
-42.60
-45.78
-44.97
-39.91
-31.32
-20.68
-9.75
-0.01
7.72
13.31
17.08
19.42
20.61
20.71
19.76
17.92
15.52
12.99
10.77
9.12
8.17
7.93
8.37
9.44
10.98
12.75
14.35
15.43
15.77
15.36
14.32
12.79
10.80
8.24
4.85
0.38
-5.36
-12.38
-20.38
-28.66
-36.15
-41.51
-43.54
-41.60
-35.81
-27.12
-16.96
-6.76
2.45
10.21
16.43
21.19
24.51
26.37
26.79
26.00
24.40
22.51
20.76
19.40
18.43
17.76
17.24
16.77
16.27
15.64
14.75
13.46
11.65
9.30
6.44
3.17
-0.40
-4.18
-8.04
-11.93
-15.90
-20.14
-24.86
-30.13
-35.62
-40.45
-43.33
-42.99
-38.65
-30.37
-19.12
-6.47
5.97
16.94
25.74
32.19
36.39
38.53
38.89
37.76
35.55
32.71
29.68
26.77
24.15
21.86
19.91
18.33
17.20
16.61
16.53
16.75
16.93
16.62
15.48
13.36
10.43
7.04
3.60
0.39
-2.51
-5.26
-8.16
-11.56
-15.78
-20.96
-26.92
-33.01
-38.15
-41.03
-40.46
-35.87
-27.58
-16.74
-4.98
6.08
15.34
22.32
27.06
29.87
31.05
30.90
29.66
27.68
25.35
23.03
20.98
19.32
18.02
17.03
16.30
15.76
15.29
14.75
13.96
12.75
11.08
8.96
6.50
3.79
0.94
-1.97
-4.87
-7.73
-10.59
-13.61
-16.99
-20.87
-25.10
-29.14
-32.10
-32.94
-30.81
-25.44
-17.29
-7.46
2.62
11.68
18.87
23.91
26.90
28.12
27.85
26.35
23.89
20.88
17.79
15.05
12.93
11.44
10.45
9.73
9.09
8.38
7.52
6.45
5.11
3.47
1.55
-0.63
-3.03
-5.60
-8.28
-11.01
-13.77
-16.63
-19.70
-23.10
-26.79
-30.48
-33.56
-35.19
-34.62
-31.39
-25.54
-17.66
-8.69
0.30
8.42
15.08
20.06
23.37
25.16
25.67
25.16
23.97
22.45
20.93
19.62
18.51
17.49
16.41
15.21
13.98
12.91
12.10
11.55
11.10
10.56
9.84
8.96
8.02
7.11
6.14
4.97
3.40
1.33
-1.17
-3.87
-6.44
-8.49
-9.46
-8.76
-5.80
-0.30
7.52
16.90
26.65
35.58
42.88
48.23
51.78
53.88
54.76
54.54
53.22
50.89
47.83
44.45
41.19
38.33
35.99
34.03
32.25
30.38
28.24
25.72
22.84
19.59
16.01
12.05
7.64
2.80
-2.41
-7.85
-13.46
-19.26
-25.42
-32.10
-39.30
-46.68
-53.57
-59.22
-62.97
-64.55
-64.10
-62.14
-59.31
-56.25
-53.41
-51.03
-49.19
-47.77
-46.61
-45.51
-44.32
-42.96
-41.43
-39.75
-37.92
-35.96
-33.88
-31.74
-29.58
-27.46
-25.32
-23.11
-20.85
-18.64
-16.75
-15.46
-15.01
-15.44
-16.61
-18.25
-20.12
-22.06
-24.08
-26.36
-29.16
-32.68
-36.90
-41.46
-45.68
-48.63
-49.43
-47.39
-42.28
-34.33
-24.24
-13.02
-1.75
8.53
17.08
23.50
27.79
30.20
31.13
30.98
30.12
28.86
27.50
26.30
25.42
24.90
24.65
24.43
24.02
23.18
21.83
19.90
17.44
14.55
11.34
7.96
4.55
1.19
-2.11
-5.44
-8.93
-12.73
-16.89
-21.36
-25.84
-29.84
-32.62
-33.37
-31.43
-26.52
-18.92
-9.49
0.57
10.00
17.85
23.66
27.45
29.50
30.19
29.81
28.65
26.92
24.94
22.97
21.26
19.89
18.83
17.94
17.08
16.11
14.96
13.58
11.94
9.98
7.68
5.01
2.02
-1.22
-4.61
-8.09
-11.69
-15.49
-19.66
-24.26
-29.18
-33.97
-37.90
-40.05
-39.60
-36.09
-29.61
-20.82
-10.78
-0.69
8.44
15.96
21.66
25.61
28.05
29.20
29.27
28.49
27.10
25.39
23.63
22.03
20.68
19.62
18.82
18.16
17.48
16.58
15.25
13.39
11.04
8.36
5.52
2.65
-0.23
-3.15
-6.16
-9.26
-12.45
-15.81
-19.48
-23.50
-27.70
-31.53
-34.14
-34.58
-32.17
-26.76
-18.87
-9.54
-0.01
8.59
15.56
20.65
24.04
26.03
26.97
27.08
26.46
25.24
23.57
21.67
19.81
18.15
16.74
15.47
14.19
12.75
11.06
9.11
6.94
4.57
2.06
-0.51
-3.04
-5.50
-7.88
-10.31
-12.97
-16.06
-19.69
-23.80
-28.15
-32.29
-35.58
-37.27
-36.67
-33.35
-27.32
-19.09
-9.57
0.19
9.25
16.96
23.00
27.31
29.95
31.13
31.08
30.11
28.54
26.66
24.69
22.76
20.97
19.34
17.81
16.25
14.43
12.15
9.30
5.94
2.34
-1.23
-4.54
-7.55
-10.39
-13.29
-16.44
-19.92
-23.74
-27.83
-32.04
-36.08
-39.41
-41.29
-40.93
-37.75
-31.65
-23.18
-13.37
-3.48
5.37
12.46
17.57
20.82
22.53
23.04
22.63
21.52
19.91
18.01
16.03
14.12
12.40
10.94
9.78
8.90
8.25
7.69
7.08
6.31
5.31
4.09
2.72
1.24
-0.35
-2.17
-4.37
-7.12
-10.55
-14.68
-19.45
-24.62
-29.77
-34.23
-37.19
-37.78
-35.41
-29.95
-21.94
-12.42
-2.67
6.14
13.31
18.62
22.26
24.51
25.56
25.53
24.52
22.73
20.53
18.33
16.41
14.79
13.28
11.62
9.67
7.52
5.40
3.56
2.08
0.82
-0.45
-2.00
-3.93
-6.18
-8.57
-10.96
-13.33
-15.81
-18.64
-22.03
-26.04
-30.41
-34.56
-37.63
-38.75
-37.26
-32.94
-26.12
-17.57
-8.28
0.74
8.68
15.08
19.78
22.87
24.61
25.31
25.24
24.64
23.71
22.56
21.31
20.01
18.67
17.30
15.94
14.65
13.50
12.52
11.66
10.74
9.57
8.00
5.99
3.62
1.03
-1.67
-4.43
-7.33
-10.53
-14.26
-18.62
-23.53
-28.57
-33.02
-35.96
-36.56
-34.35
-29.38
-22.26
-14.01
-5.75
1.57
7.38
11.56
14.31
16.02
17.07
17.72
18.11
18.24
18.07
17.58
16.78
15.79
14.80
13.99
13.58
13.60
13.96
14.41
14.63
14.38
13.54
12.16
10.39
8.37
6.21
3.96
1.63
-0.83
-3.45
-6.20
-8.97
-11.55
-13.56
-14.54
-14.06
-11.83
-7.86
-2.45
3.84
10.35
16.44
21.65
25.73
28.60
30.31
31.01
30.82
29.88
28.31
26.30
24.03
21.75
19.67
17.88
16.32
14.75
12.90
10.51
7.51
4.01
0.22
-3.61
-7.34
-10.91
-14.38
-17.79
-21.21
-24.67
-28.24
-31.94
-35.70
-39.26
-42.18
-43.97
-44.23
-42.78
-39.64
-35.01
-29.17
-22.47
-15.33
-8.26
-1.88
3.30
7.01
9.28
10.43
10.87
10.92
10.72
10.24
9.47
8.48
7.42
6.53
5.91
5.54
5.19
4.57
3.43
1.65
-0.68
-3.30
-5.87
-8.12
-9.96
-11.51
-13.10
-15.17
-18.07
-21.92
-26.52
-31.37
-35.77
-38.91
-40.05
-38.66
-34.49
-27.73
-18.99
-9.23
0.45
9.06
15.97
21.01
24.36
26.40
27.44
27.71
27.33
26.43
25.27
24.13
23.29
22.84
22.66
22.50
22.10
21.33
20.23
18.94
17.60
16.23
14.75
12.99
10.86
8.34
5.52
2.50
-0.72
-4.22
-8.16
-12.63
-17.46
-22.20
-26.06
-28.17
-27.80
-24.69
-19.14
-11.97
-4.24
3.04
9.12
13.71
16.88
19.06
20.93
23.19
26.15
29.43
31.73
31.14
25.73
14.48
-2.14
-22.10
-42.40
-60.08
-73.17
-81.20
-84.92
-85.69
-84.68
-82.43
-78.98
-74.29
-68.72
-63.16
-58.74
-56.40
-56.57
-59.11
-63.40
-68.51
-73.13
-75.61
-74.06
-66.90
-53.46
-34.40
-11.70
11.89
33.68
51.83
65.59
75.12
81.05
83.95
84.20
82.05
77.95
72.81
67.98
64.85
64.27
66.16
69.50
72.81
74.82
74.99
73.51
70.96
67.81
64.21
60.07
55.36
50.24
44.97
39.47
33.04
24.40
12.13
-4.61
-25.49
-48.78
-71.73
-91.27
-104.82
-110.88
-109.22
-100.72
-87.03
-70.15
-52.08
-34.59
-18.92
-5.62
5.50
15.14
24.05
32.61
40.42
46.42
49.27
48.05
42.77
34.47
24.88
15.80
8.51
3.46
0.50
-0.86
-1.00
-0.12
1.58
3.81
6.07
7.85
8.78
8.67
7.37
4.64
0.13
-6.35
-14.42
-22.75
-29.27
-31.72
-28.52
-19.46
-5.87
9.94
25.48
38.95
49.50
57.21
62.52
65.86
67.34
66.76
63.78
58.14
49.86
39.29
27.19
14.63
2.70
-7.71
-16.17
-22.60
-27.18
-30.10
-31.56
-31.84
-31.37
-30.69
-30.34
-30.57
-31.30
-32.19
-32.73
-32.48
-31.06
-28.22
-24.00
-18.90
-13.83
-9.85
-7.59
-6.86
-6.60
-5.42
-2.34
2.62
8.46
13.71
17.20
18.56
18.23
17.11
16.01
15.28
14.81
14.20
13.07
11.24
8.79
5.97
3.05
0.22
-2.49
-5.13
-7.75
-10.35
-12.89
-15.28
-17.48
-19.51
-21.46
-23.44
-25.56
-27.93
-30.62
-33.74
-37.25
-41.02
-44.63
-47.41
-48.48
-47.02
-42.53
-35.10
-25.44
-14.73
-4.27
4.90
12.23
17.66
21.38
23.71
24.89
25.11
24.61
23.66
22.58
21.64
20.97
20.57
20.37
20.28
20.30
20.47
20.77
21.11
21.22
20.70
19.23
16.64
13.01
8.65
3.92
-0.94
-5.91
-11.21
-17.11
-23.78
-31.05
-38.33
-44.66
-48.95
-50.25
-48.09
-42.63
-34.62
-25.24
-15.73
-7.18
-0.30
4.55
7.23
7.81
6.39
3.24
-1.17
-6.05
-10.31
-12.73
-12.26
-8.38
-1.29
8.06
18.28
27.96
36.08
42.20
46.40
49.09
50.72
51.57
51.79
51.34
50.13
47.96
44.50
39.38
32.32
23.45
13.53
3.92
-3.72
-7.93
-7.99
-4.17
2.33
9.89
16.92
22.37
25.74
27.06
26.58
24.66
21.65
17.96
14.05
10.38
7.38
5.25
4.05
3.58
3.59
3.74
3.76
3.46
2.73
1.57
0.04
-1.77
-3.75
-5.85
-8.08
-10.51
-13.35
-16.83
-21.21
-26.60
-32.80
-39.17
-44.64
-47.95
-47.93
-44.02
-36.43
-26.14
-14.62
-3.36
6.52
14.46
20.36
24.44
26.99
28.21
28.23
27.12
25.00
22.11
18.76
15.33
12.19
9.67
7.97
7.10
6.89
7.04
7.18
6.98
6.26
5.01
3.30
1.24
-1.13
-3.84
-6.96
-10.55
-14.64
-19.19
-24.06
-28.89
-33.03
-35.55
-35.44
-31.93
-24.89
-14.98
-3.54
7.85
17.81
25.51
30.78
33.84
35.05
34.70
33.05
30.33
26.90
23.21
19.73
16.79
14.58
13.11
12.24
11.76
11.39
10.86
9.92
8.43
6.39
3.94
1.25
-1.53
-4.32
-7.18
-10.16
-13.37
-16.83
-20.47
-24.02
-27.01
-28.76
-28.59
-26.03
-21.07
-14.23
-6.46
1.19
7.83
12.99
16.60
18.86
20.04
20.33
19.85
18.77
17.31
15.79
14.48
13.52
12.84
12.25
11.54
10.62
9.50
8.24
6.85
5.30
3.49
1.43
-0.76
-2.92
-4.96
-6.95
-9.19
-12.00
-15.58
-19.82
-24.23
-28.05
-30.46
-30.85
-28.95
-24.94
-19.31
-12.76
-6.00
0.29
5.57
9.47
11.79
12.59
12.10
10.70
8.82
6.83
5.03
3.61
2.63
2.09
1.83
1.66
1.36
0.75
-0.22
-1.49
-2.88
-4.23
-5.43
-6.54
-7.75
-9.26
-11.22
-13.62
-16.29
-18.93
-21.21
-22.78
-23.36
-22.74
-20.74
-17.32
-12.60
-6.96
-1.00
4.57
9.19
12.49
14.45
15.20
15.01
14.13
12.82
11.32
9.88
8.67
7.77
7.11
6.53
5.84
4.91
3.74
2.38
0.91
-0.63
-2.26
-4.00
-5.91
-8.02
-10.38
-13.02
-15.97
-19.17
-22.54
-25.82
-28.66
-30.58
-31.06
-29.69
-26.37
-21.31
-15.10
-8.51
-2.28
3.07
7.30
10.44
12.64
14.02
14.69
14.71
14.22
13.41
12.55
11.94
11.73
11.86
12.12
12.17
11.71
10.63
9.01
7.07
5.06
3.11
1.25
-0.60
-2.51
-4.45
-6.39
-8.25
-10.07
-11.96
-14.01
-16.14
-18.05
-19.22
-19.10
-17.30
-13.78
-8.87
-3.22
2.43
7.47
11.58
14.69
16.93
18.40
19.16
19.19
18.54
17.41
16.12
15.08
14.58
14.66
15.11
15.56
15.68
15.29
14.43
13.24
11.90
10.55
9.19
7.80
6.28
4.52
2.45
-0.05
-3.04
-6.59
-10.62
-14.93
-19.08
-22.47
-24.51
-24.77
-23.18
-20.05
-15.92
-11.42
-7.01
-2.94
0.70
3.86
6.42
8.20
9.03
8.87
7.87
6.36
4.72
3.29
2.24
1.63
1.38
1.33
1.28
1.06
0.59
-0.15
-1.08
-2.08
-3.10
-4.17
-5.42
-7.01
-9.08
-11.70
-14.84
-18.38
-22.12
-25.78
-28.90
-30.93
-31.27
-29.52
-25.61
-19.97
-13.36
-6.68
-0.74
3.94
7.14
8.95
9.57
9.27
8.37
7.15
5.90
4.83
4.06
3.63
3.46
3.37
3.16
2.67
1.86
0.81
-0.29
-1.23
-1.84
-2.09
-2.08
-1.99
-2.10
-2.63
-3.82
-5.84
-8.75
-12.49
-16.82
-21.30
-25.34
-28.27
-29.48
-28.58
-25.48
-20.53
-14.36
-7.79
-1.61
3.65
7.71
10.55
12.34
13.27
13.50
13.20
12.50
11.55
10.51
9.55
8.77
8.26
8.02
7.99
8.04
8.00
7.66
6.87
5.61
4.00
2.22
0.43
-1.39
-3.41
-5.91
-9.10
-13.04
-17.63
-22.64
-27.76
-32.61
-36.69
-39.36
-40.01
-38.22
-34.00
-27.81
-20.45
-12.77
-5.41
1.23
7.00
11.80
15.55
18.16
19.58
19.97
19.55
18.65
17.53
16.41
15.40
14.56
13.93
13.46
13.07
12.59
11.88
10.81
9.36
7.59
5.62
3.62
1.71
-0.05
-1.69
-3.35
-5.23
-7.56
-10.48
-13.97
-17.81
-21.57
-24.65
-26.43
-26.37
-24.22
-20.07
-14.37
-7.84
-1.23
4.78
9.77
13.56
16.18
17.73
18.36
18.19
17.37
16.10
14.60
13.09
11.76
10.69
9.88
9.27
8.81
8.44
8.10
7.73
7.22
6.48
5.45
4.13
2.54
0.80
-1.03
-2.95
-5.02
-7.43
-10.38
-13.99
-18.17
-22.54
-26.41
-28.99
-29.61
-27.88
-23.94
-18.34
-11.86
-5.35
0.55
5.47
9.26
11.97
13.69
14.51
14.54
13.92
12.90
11.75
10.73
10.01
9.62
9.46
9.35
9.16
8.85
8.48
8.14
7.85
7.49
6.87
5.77
4.12
2.00
-0.33
-2.63
-4.76
-6.83
-9.09
-11.89
-15.43
-19.62
-23.98
-27.78
-30.21
-30.61
-28.74
-24.74
-19.15
-12.66
-5.92
0.52
6.30
11.19
15.06
17.81
19.44
20.00
19.69
18.77
17.57
16.36
15.30
14.46
13.84
13.40
13.13
13.02
12.98
12.85
12.41
11.47
9.96
7.97
5.71
3.37
1.03
-1.29
-3.67
-6.18
-8.87
-11.78
-14.93
-18.29
-21.65
-24.52
-26.22
-26.11
-23.82
-19.46
-13.61
-7.06
-0.62
5.14
9.94
13.66
16.26
17.74
18.13
17.54
16.23
14.48
12.59
10.79
9.27
8.14
7.47
7.25
7.36
7.58
7.61
7.23
6.33
4.99
3.37
1.59
-0.28
-2.32
-4.58
-7.07
-9.69
-12.37
-15.11
-18.01
-21.16
-24.47
-27.56
-29.77
-30.38
-28.89
-25.25
-19.86
-13.42
-6.68
-0.26
5.42
10.14
13.74
16.12
17.27
17.30
16.47
15.15
13.69
12.39
11.36
10.56
9.86
9.15
8.39
7.59
6.80
5.98
5.01
3.75
2.15
0.28
-1.67
-3.46
-4.96
-6.20
-7.33
-8.58
-10.14
-12.19
-14.77
-17.82
-21.12
-24.21
-26.41
-27.06
-25.68
-22.16
-16.82
-10.35
-3.51
3.00
8.70
13.36
16.87
19.20
20.38
20.55
19.90
18.76
17.44
16.17
15.13
14.36
13.87
13.64
13.69
13.95
14.29
14.48
14.28
13.45
11.90
9.69
6.96
3.91
0.73
-2.45
-5.55
-8.54
-11.46
-14.46
-17.69
-21.17
-24.72
-27.84
-29.82
-29.95
-27.78
-23.30
-16.99
-9.64
-2.09
4.89
10.86
15.55
18.91
20.97
21.86
21.76
20.95
19.75
18.45
17.30
16.41
15.81
15.43
15.16
14.93
14.65
14.28
13.73
12.89
11.66
9.97
7.85
5.43
2.85
0.24
-2.38
-5.05
-7.84
-10.85
-14.16
-17.82
-21.75
-25.72
-29.23
-31.63
-32.23
-30.63
-26.82
-21.23
-14.57
-7.64
-1.10
4.65
9.38
13.03
15.59
17.10
17.65
17.39
16.49
15.18
13.67
12.18
10.91
10.03
9.61
9.61
9.84
10.06
9.98
9.41
8.25
6.55
4.44
2.02
-0.61
-3.40
-6.33
-9.38
-12.52
-15.80
-19.30
-23.14
-27.24
-31.32
-34.74
-36.75
-36.68
-34.22
-29.55
-23.20
-15.94
-8.52
-1.54
4.56
9.45
12.95
14.97
15.65
15.30
14.38
13.29
12.27
11.38
10.54
9.69
8.82
8.05
7.42
6.81
5.96
4.52
2.26
-0.81
-4.37
-7.99
-11.30
-14.15
-16.65
-19.04
-21.62
-24.66
-28.37
-32.88
-38.10
-43.54
-48.33
-51.28
-51.22
-47.47
-40.05
-29.79
-18.03
-6.20
4.57
13.61
20.67
25.78
29.07
30.75
31.07
30.38
29.11
27.64
26.28
25.18
24.35
23.70
23.14
22.59
22.00
21.38
20.76
20.13
19.48
18.73
17.78
16.54
14.94
12.98
10.70
8.13
5.31
2.19
-1.29
-5.19
-9.37
-13.46
-16.83
-18.77
-18.67
-16.30
-11.91
-6.13
0.22
6.42
11.97
16.62
20.30
23.00
24.71
25.44
25.22
24.16
22.48
20.45
18.40
16.63
15.40
14.84
14.89
15.38
16.00
16.40
16.30
15.52
14.00
11.83
9.20
6.35
3.54
0.92
-1.54
-4.02
-6.88
-10.42
-14.76
-19.68
-24.60
-28.73
-31.26
-31.60
-29.53
-25.29
-19.39
-12.57
-5.55
1.04
6.74
11.25
14.45
16.35
17.11
16.99
16.32
15.41
14.52
13.75
13.12
12.56
12.00
11.41
10.85
10.37
10.01
9.78
9.62
9.37
8.83
7.79
6.09
3.70
0.74
-2.48
-5.65
-8.54
-11.14
-13.71
-16.55
-19.85
-23.45
-26.83
-29.28
-30.14
-29.03
-25.91
-21.05
-14.91
-7.96
-0.70
6.40
12.88
18.25
22.14
24.29
24.74
23.75
21.80
19.48
17.35
15.78
14.93
14.73
14.99
15.44
15.79
15.77
15.10
13.59
11.18
7.97
4.25
0.41
-3.17
-6.25
-8.72
-10.67
-12.39
-14.23
-16.57
-19.62
-23.25
-26.98
-30.00
-31.42
-30.55
-27.12
-21.36
-13.95
-5.78
2.23
9.33
15.04
19.11
21.51
22.40
22.02
20.65
18.58
16.03
13.21
10.36
7.73
5.56
4.06
3.25
3.04
3.17
3.30
3.14
2.48
1.20
-0.66
-3.00
-5.64
-8.44
-11.31
-14.31
-17.60
-21.43
-26.02
-31.37
-37.12
-42.49
-46.36
-47.54
-45.11
-38.81
-29.16
-17.43
-5.20
6.05
15.33
22.28
27.01
29.85
31.12
31.00
29.65
27.28
24.35
21.39
18.98
17.49
17.00
17.32
18.10
18.92
19.45
19.50
18.98
17.92
16.36
14.36
12.03
9.44
6.64
3.65
0.40
-3.28
-7.62
-12.80
-18.79
-25.20
-31.19
-35.61
-37.34
-35.58
-30.23
-21.97
-12.05
-1.98
6.93
13.84
18.47
20.97
21.69
21.00
19.21
16.63
13.62
10.56
7.85
5.75
4.28
3.29
2.53
1.82
1.16
0.75
0.87
1.70
3.20
5.08
6.89
8.19
8.66
8.19
6.81
4.61
1.67
-1.92
-5.94
-9.95
-13.29
-15.21
-15.14
-12.84
-8.51
-2.71
3.84
10.43
16.45
21.43
25.04
27.05
27.46
26.51
24.64
22.40
20.29
18.58
17.32
16.42
15.75
15.22
14.75
14.21
13.42
12.17
10.34
7.96
5.18
2.26
-0.59
-3.25
-5.69
-7.99
-10.27
-12.73
-15.63
-19.21
-23.45
-28.01
-32.16
-34.96
-35.59
-33.58
-28.99
-22.32
-14.33
-5.84
2.37
9.64
15.50
19.62
21.97
22.76
22.39
21.32
19.92
18.43
16.95
15.54
14.23
13.09
12.11
11.26
10.41
9.43
8.19
6.68
4.90
2.92
0.85
-1.22
-3.25
-5.19
-7.11
-9.14
-11.52
-14.52
-18.30
-22.78
-27.51
-31.68
-34.32
-34.54
-31.79
-26.12
-18.14
-8.89
0.45
8.84
15.65
20.64
23.96
25.87
26.66
26.45
25.27
23.20
20.44
17.44
14.72
12.70
11.50
10.90
10.38
9.34
7.35
4.26
0.17
-4.63
-9.75
-14.77
-19.26
-22.94
-25.85
-28.46
-31.66
-36.45
-43.51
-52.81
-63.36
-73.44
-80.99
-84.28
-82.36
-75.31
-64.16
-50.44
-35.82
-21.65
-8.80
2.29
11.45
18.60
23.69
26.78
28.11
28.15
27.53
26.81
26.38
26.39
26.83
27.60
28.59
29.67
30.65
31.23
31.11
30.05
27.95
24.89
21.11
16.87
12.40
7.86
3.27
-1.49
-6.68
-12.65
-19.55
-27.11
-34.39
-39.96
-42.18
-39.87
-32.80
-21.83
-8.65
4.73
16.61
25.97
32.51
36.43
38.15
38.09
36.58
33.93
30.49
26.64
22.83
19.47
16.84
15.04
13.94
13.25
12.64
11.84
10.69
9.16
7.28
5.05
2.46
-0.50
-3.80
-7.31
-10.91
-14.52
-18.25
-22.38
-27.25
-33.10
-39.70
-46.26
-51.45
-53.69
-51.71
-45.00
-34.08
-20.38
-5.82
7.79
19.15
27.63
33.19
36.13
36.91
36.02
33.99
31.29
28.37
25.56
23.02
20.79
18.84
17.15
15.75
14.68
13.97
13.49
12.98
12.10
10.56
8.21
5.13
1.57
-2.14
-5.80
-9.35
-12.92
-16.76
-21.18
-26.43
-32.57
-39.28
-45.72
-50.62
-52.51
-50.23
-43.38
-32.55
-19.23
-5.32
7.41
17.79
25.41
30.43
33.29
34.42
34.11
32.60
30.10
26.92
23.41
19.91
16.70
13.96
11.75
10.10
8.97
8.30
7.97
7.78
7.48
6.76
5.38
3.22
0.33
-3.05
-6.54
-9.71
-12.25
-14.00
-15.04
-15.58
-15.87
-15.95
-15.60
-14.37
-11.70
-7.12
-0.48
7.98
17.63
27.59
36.98
45.07
51.49
56.18
59.29
61.07
61.79
61.69
61.12
60.44
60.02
60.03
60.35
60.54
60.02
58.28
55.13
50.68
45.26
39.17
32.51
25.22
17.22
8.53
-0.59
-9.76
-18.56
-26.67
-33.94
-40.34
-45.87
-50.48
-54.05
-56.39
-57.27
-56.49
-53.87
-49.30
-42.81
-34.61
-25.16
-15.14
-5.29
3.71
11.45
17.86
23.09
27.41
31.01
33.93
36.10
37.47
38.12
38.34
38.52
38.98
39.85
41.03
42.27
43.36
44.15
44.56
44.49
43.82
42.28
39.65
35.83
30.98
25.47
19.82
14.53
9.93
6.10
2.93
0.21
-2.18
-4.19
-5.65
-6.36
-6.32
-5.76
-5.12
-4.89
-5.38
-6.65
-8.52
-10.73
-13.14
-15.82
-19.01
-22.94
-27.62
-32.73
-37.62
-41.48
-43.63
-43.65
-41.55
-37.70
-32.72
-27.38
-22.42
-18.56
-16.28
-15.95
-17.71
-21.61
-27.60
-35.54
-45.17
-56.02
-67.51
-79.01
-89.97
-99.93
-108.38
-114.65
-117.93
-117.44
-112.80
-104.40
-93.33
-81.07
-69.02
-58.05
-48.45
-40.14
-33.01
-27.14
-22.73
-19.91
-18.51
-18.09
-18.05
-17.92
-17.47
-16.73
-15.93
-15.25
-14.75
-14.41
-14.16
-13.97
-13.97
-14.35
-15.33
-16.99
-19.27
-21.90
-24.56
-26.94
-28.96
-30.75
-32.66
-35.07
-38.20
-41.95
-45.82
-49.01
-50.60
-49.84
-46.24
-39.80
-30.97
-20.56
-9.51
1.23
10.93
19.01
25.06
28.91
30.58
30.27
28.40
25.58
22.43
19.47
16.84
14.36
11.76
8.73
5.12
0.97
-3.55
-8.27
-13.13
-18.28
-23.98
-30.12
-36.51
-43.03
-49.71
-56.57
-63.41
-69.61
-74.30
-76.49
-74.83
-68.49
-57.55
-42.94
-25.90
-7.53
11.32
29.66
46.19
60.52
72.51
82.28
90.19
96.95
103.27
109.41
114.81
118.49
121.29
125.00
131.63
142.48
157.83
177.07
199.40
224.44
243.10
248.17
236.41
209.64
171.79
126.34
76.35
25.84
-20.60
-59.31
-88.05
-107.42
-119.99
-129.43
-136.53
-140.03
-137.98
-129.33
-114.53
-94.58
-71.14
-45.98
-20.51
4.68
29.46
53.74
74.31
87.65
91.01
82.92
63.98
36.88
6.07
-23.84
-49.46
-69.63
-84.83
-96.12
-104.22
-109.09
-110.19
-107.12
-100.39
-91.45
-82.31
-74.50
-68.61
-64.25
-60.36
-55.91
-50.40
-44.26
-38.69
-35.19
-34.77
-37.44
-42.04
-46.38
-47.96
-44.87
-36.41
-23.36
-7.58
8.77
23.89
36.81
47.40
56.03
63.07
68.55
72.19
73.62
72.81
70.20
66.60
62.95
59.89
57.65
56.04
54.68
53.23
51.58
49.77
47.86
45.75
43.15
39.72
35.22
29.73
23.61
17.35
11.41
5.96
0.89
-4.20
-9.77
-16.20
-23.41
-30.82
-37.23
-41.13
-41.14
-36.55
-27.64
-15.73
-2.69
9.58
19.80
27.44
32.68
35.97
37.71
38.12
37.35
35.55
33.09
30.44
28.00
25.96
24.26
22.70
21.15
19.60
18.18
17.02
16.10
15.20
14.01
12.24
9.82
6.90
3.77
0.73
-2.07
-4.68
-7.35
-10.47
-14.33
-18.98
-24.02
-28.56
-31.42
-31.46
-27.98
-21.03
-11.40
-0.45
10.35
19.79
27.16
32.31
35.40
36.74
36.63
35.28
32.89
29.67
25.94
22.04
18.36
15.18
12.66
10.76
9.31
8.03
6.64
4.94
2.91
0.63
-1.78
-4.22
-6.74
-9.43
-12.45
-15.90
-19.83
-24.20
-28.87
-33.46
-37.37
-39.73
-39.68
-36.58
-30.38
-21.69
-11.66
-1.64
7.23
14.24
19.16
22.13
23.46
23.44
22.35
20.42
17.90
15.05
12.20
9.62
7.49
5.82
4.43
3.02
1.24
-1.09
-3.97
-7.22
-10.58
-13.88
-17.08
-20.32
-23.80
-27.68
-32.09
-37.05
-42.43
-47.93
-53.00
-56.81
-58.40
-56.93
-51.99
-43.79
-33.09
-21.06
-8.94
2.26
11.89
19.63
25.43
29.38
31.63
32.42
32.06
30.94
29.50
28.09
26.92
25.97
25.02
23.72
21.80
19.17
15.97
12.51
9.11
5.98
3.15
0.52
-2.11
-4.91
-8.00
-11.43
-15.12
-18.95
-22.74
-26.17
-28.80
-30.07
-29.32
-26.06
-20.17
-12.07
-2.69
6.73
15.05
21.52
25.88
28.31
29.19
28.86
27.60
25.59
23.06
20.28
17.58
15.23
13.32
11.81
10.52
9.22
7.73
5.96
3.96
1.80
-0.39
-2.55
-4.72
-6.98
-9.46
-12.27
-15.49
-19.17
-23.30
-27.80
-32.39
-36.50
-39.33
-39.99
-37.80
-32.53
-24.57
-14.88
-4.70
4.79
12.76
18.81
22.92
25.30
26.21
25.91
24.62
22.63
20.27
17.91
15.88
14.34
13.30
12.55
11.76
10.67
9.09
7.07
4.76
2.41
0.20
-1.84
-3.81
-5.89
-8.27
-11.06
-14.34
-18.12
-22.34
-26.82
-31.14
-34.59
-36.22
-35.19
-31.01
-23.80
-14.37
-3.96
6.08
14.66
21.24
25.75
28.48
29.79
29.97
29.14
27.35
24.72
21.48
18.04
14.85
12.28
10.46
9.26
8.38
7.50
6.43
5.14
3.75
2.35
0.98
-0.44
-2.08
-4.08
-6.55
-9.58
-13.24
-17.56
-22.45
-27.57
-32.19
-35.33
-35.97
-33.45
-27.74
-19.53
-10.04
-0.66
7.41
13.49
17.35
19.19
19.33
18.13
15.89
12.90
9.49
6.08
3.13
1.06
0.08
0.14
0.90
1.84
2.45
2.32
1.29
-0.59
-3.18
-6.25
-9.66
-13.32
-17.17
-21.11
-25.11
-29.17
-33.40
-37.88
-42.44
-46.57
-49.30
-49.52
-46.38
-39.69
-30.17
-19.22
-8.46
0.72
7.59
12.13
14.76
16.02
16.38
16.08
15.28
14.10
12.76
11.46
10.40
9.70
9.37
9.35
9.52
9.69
9.62
9.11
7.99
6.23
3.96
1.35
-1.37
-4.13
-6.96
-9.99
-13.38
-17.26
-21.71
-26.65
-31.79
-36.51
-39.81
-40.54
-37.72
-30.99
-20.85
-8.57
4.13
15.66
24.94
31.53
35.54
37.36
37.48
36.34
34.29
31.67
28.76
25.77
22.88
20.21
17.86
15.91
14.40
13.31
12.58
12.01
11.41
10.54
9.21
7.30
4.86
2.00
-1.07
-4.17
-7.20
-10.22
-13.41
-17.01
-21.27
-26.18
-31.37
-36.02
-39.01
-39.20
-35.85
-28.94
-19.27
-8.17
2.85
12.59
20.39
26.07
29.81
31.92
32.63
32.09
30.46
27.94
24.89
21.71
18.80
16.48
14.87
13.94
13.52
13.34
13.13
12.65
11.72
10.30
8.44
6.28
3.94
1.52
-0.98
-3.63
-6.55
-9.93
-13.89
-18.52
-23.63
-28.72
-32.88
-35.01
-34.08
-29.58
-21.77
-11.65
-0.71
9.51
17.87
23.77
27.16
28.31
27.62
25.49
22.33
18.52
14.47
10.56
7.12
4.40
2.54
1.55
1.30
1.50
1.84
1.98
1.70
0.91
-0.31
-1.81
-3.45
-5.16
-6.93
-8.88
-11.19
-14.02
-17.56
-21.92
-27.01
-32.48
-37.58
-41.24
-42.28
-39.74
-33.32
-23.51
-11.55
0.90
12.27
21.46
28.04
32.17
34.29
34.93
34.49
33.23
31.31
28.85
26.02
22.98
19.92
17.03
14.38
12.03
9.93
7.97
6.02
3.98
1.77
-0.67
-3.37
-6.34
-9.60
-13.11
-16.77
-20.43
-24.00
-27.50
-31.12
-35.04
-39.25
-43.29
-46.18
-46.67
-43.70
-36.84
-26.54
-14.09
-1.14
10.76
20.57
27.84
32.62
35.17
35.77
34.72
32.34
29.05
25.39
21.85
18.80
16.39
14.58
13.27
12.37
11.83
11.60
11.53
11.33
10.66
9.27
7.11
4.36
1.36
-1.62
-4.48
-7.35
-10.50
-14.25
-18.82
-24.29
-30.43
-36.63
-41.87
-44.84
-44.32
-39.59
-30.86
-19.27
-6.60
5.27
14.90
21.56
25.25
26.37
25.43
22.88
19.09
14.41
9.31
4.42
0.43
-2.06
-2.66
-1.39
1.38
5.01
8.75
11.94
14.16
15.25
15.25
14.27
12.46
9.95
6.85
3.31
-0.49
-4.44
-8.53
-12.92
-17.83
-23.36
-29.20
-34.54
-38.15
-38.80
-35.73
-29.02
-19.60
-9.01
1.15
9.73
16.17
20.50
23.06
24.25
24.31
23.39
21.61
19.15
16.33
13.53
11.10
9.29
8.14
7.50
7.12
6.71
6.07
5.10
3.80
2.20
0.30
-1.90
-4.39
-7.11
-9.95
-12.82
-15.77
-18.93
-22.53
-26.60
-30.85
-34.55
-36.71
-36.32
-32.82
-26.32
-17.64
-8.05
1.08
8.77
14.54
18.40
20.62
21.50
21.25
19.98
17.90
15.27
12.48
9.93
7.90
6.45
5.47
4.71
3.92
2.95
1.71
0.26
-1.32
-2.93
-4.51
-6.06
-7.62
-9.30
-11.22
-13.55
-16.47
-20.17
-24.69
-29.76
-34.70
-38.42
-39.69
-37.59
-31.86
-23.09
-12.52
-1.74
7.93
15.66
21.24
24.88
26.96
27.79
27.54
26.37
24.46
22.14
19.82
17.83
16.38
15.46
14.91
14.45
13.80
12.80
11.33
9.40
7.02
4.25
1.17
-2.10
-5.45
-8.75
-11.96
-15.16
-18.56
-22.41
-26.88
-31.85
-36.72
-40.50
-42.00
-40.25
-34.88
-26.30
-15.61
-4.28
6.29
15.08
21.60
25.78
27.82
28.00
26.66
24.13
20.81
17.11
13.39
9.94
6.92
4.36
2.26
0.61
-0.61
-1.45
-2.05
-2.66
-3.55
-4.92
-6.83
-9.17
-11.72
-14.28
-16.67
-18.84
-20.82
-22.72
-24.69
-26.84
-29.04
-30.81
-31.32
-29.61
-24.94
-17.23
-7.14
4.04
14.86
24.18
31.41
36.54
39.81
41.51
41.84
40.93
39.03
36.47
33.72
31.16
28.97
27.16
25.54
23.91
22.08
19.98
17.57
14.89
11.97
8.88
5.69
2.52
-0.50
-3.31
-5.91
-8.48
-11.29
-14.62
-18.59
-23.08
-27.56
-31.23
-33.16
-32.55
-28.99
-22.65
-14.26
-4.97
3.97
11.55
17.21
20.87
22.82
23.48
23.19
22.18
20.56
18.46
16.05
13.63
11.42
9.60
8.14
6.88
5.63
4.18
2.43
0.36
-1.99
-4.53
-7.18
-9.84
-12.48
-15.07
-17.65
-20.30
-23.17
-26.41
-30.15
-34.32
-38.58
-42.20
-44.19
-43.49
-39.43
-32.01
-21.99
-10.71
0.32
9.88
17.29
22.42
25.51
26.90
26.92
25.84
23.96
21.63
19.25
17.12
15.42
14.14
13.18
12.37
11.60
10.76
9.82
8.71
7.41
5.88
4.14
2.26
0.33
-1.60
-3.52
-5.52
-7.76
-10.42
-13.67
-17.56
-21.86
-25.96
-28.90
-29.53
-26.96
-20.89
-11.85
-1.05
9.94
19.75
27.51
32.94
36.28
37.87
38.05
36.99
34.85
31.83
28.26
24.58
21.17
18.32
16.12
14.50
13.23
12.07
10.79
9.26
7.45
5.40
3.15
0.74
-1.81
-4.42
-7.03
-9.55
-12.04
-14.69
-17.89
-21.98
-27.04
-32.61
-37.71
-41.03
-41.40
-38.17
-31.46
-22.13
-11.55
-1.20
7.73
14.53
19.02
21.42
22.16
21.66
20.20
17.98
15.17
12.02
8.93
6.31
4.50
3.58
3.39
3.60
3.86
3.97
3.86
3.58
3.15
2.56
1.72
0.55
-0.98
-2.86
-5.09
-7.71
-10.88
-14.72
-19.16
-23.78
-27.75
-29.99
-29.53
-25.87
-19.22
-10.53
-1.11
7.70
14.90
20.00
22.99
24.13
23.79
22.33
20.06
17.29
14.33
11.50
9.07
7.19
5.87
4.95
4.18
3.26
1.95
0.17
-2.00
-4.38
-6.78
-9.08
-11.31
-13.54
-15.89
-18.47
-21.41
-24.86
-28.97
-33.70
-38.63
-42.86
-45.18
-44.43
-39.97
-32.04
-21.70
-10.54
-0.12
8.43
14.62
18.54
20.56
21.06
20.31
18.46
15.65
12.14
8.32
4.71
1.80
-0.11
-1.00
-1.17
-1.14
-1.47
-2.52
-4.42
-7.05
-10.15
-13.44
-16.68
-19.69
-22.36
-24.64
-26.59
-28.52
-30.84
-33.91
-37.70
-41.52
-44.12
-44.01
-40.03
-31.86
-20.24
-6.66
7.10
19.54
29.78
37.58
43.08
46.52
48.07
47.81
45.86
42.57
38.50
34.35
30.82
28.35
27.09
26.84
27.21
27.79
28.25
28.33
27.91
26.88
25.15
22.70
19.54
15.75
11.44
6.68
1.50
-4.15
-10.37
-17.13
-24.12
-30.63
-35.58
-37.72
-36.08
-30.45
-21.49
-10.63
0.37
10.03
17.50
22.60
25.62
26.89
26.61
24.82
21.64
17.42
12.83
8.67
5.60
3.90
3.42
3.66
4.05
4.13
3.63
2.53
0.92
-1.11
-3.49
-6.22
-9.30
-12.74
-16.51
-20.60
-25.08
-30.09
-35.72
-41.74
-47.47
-51.70
-53.04
-50.37
-43.38
-32.75
-20.01
-7.02
4.61
13.96
20.78
25.33
27.95
28.96
28.52
26.83
24.20
21.14
18.26
16.16
15.28
15.73
17.28
19.41
21.40
22.55
22.36
20.65
17.52
13.30
8.38
3.05
-2.48
-8.14
-13.93
-19.95
-26.43
-33.70
-41.98
-51.04
-59.94
-67.05
-70.44
-68.56
-60.90
-48.20
-32.26
-15.31
0.68
14.40
25.26
33.13
38.13
40.48
40.58
39.09
36.88
34.91
33.90
34.21
35.83
38.45
41.66
45.07
48.40
51.32
53.47
54.36
53.50
50.56
45.52
38.70
30.79
22.54
14.60
7.33
0.69
-5.71
-12.43
-20.01
-28.64
-37.95
-46.90
-53.98
-57.60
-56.67
-51.02
-41.52
-29.85
-17.96
-7.43
0.82
6.64
10.40
12.70
14.14
15.23
16.42
18.12
20.57
23.82
27.60
31.38
34.53
36.46
36.79
35.43
32.58
28.63
24.09
19.46
15.09
11.18
7.71
4.52
1.39
-1.86
-5.40
-9.37
-13.94
-19.19
-25.03
-30.89
-35.79
-38.44
-37.66
-32.88
-24.44
-13.57
-2.00
8.60
17.13
23.18
26.93
28.75
28.93
27.60
24.83
20.86
16.16
11.42
7.28
4.20
2.31
1.47
1.37
1.63
1.91
1.92
1.49
0.52
-0.96
-2.81
-4.81
-6.78
-8.58
-10.21
-11.79
-13.60
-16.03
-19.40
-23.70
-28.37
-32.26
-33.93
-32.07
-26.11
-16.50
-4.64
7.50
18.00
25.42
29.10
29.06
25.88
20.33
13.24
5.38
-2.55
-9.86
-15.83
-19.71
-20.94
-19.24
-14.90
-8.73
-1.93
4.33
9.14
12.08
13.17
12.71
11.04
8.43
5.16
1.53
-2.13
-5.48
-8.38
-10.89
-13.26
-15.67
-17.97
-19.58
-19.57
-17.06
-11.61
-3.50
6.31
16.41
25.50
32.66
37.55
40.23
40.91
39.73
36.75
32.02
25.79
18.60
11.21
4.42
-1.13
-5.14
-7.69
-9.12
-9.89
-10.42
-10.98
-11.76
-12.84
-14.33
-16.36
-19.02
-22.30
-26.07
-30.04
-33.91
-37.33
-40.00
-41.54
-41.51
-39.40
-34.84
-27.79
-18.65
-8.29
2.19
11.79
19.79
25.92
30.19
32.82
34.06
34.15
33.32
31.83
29.96
27.96
25.99
24.06
22.07
19.91
17.52
14.94
12.34
9.88
7.65
5.55
3.36
0.89
-2.02
-5.32
-8.81
-12.27
-15.53
-18.57
-21.47
-24.42
-27.61
-31.06
-34.47
-37.11
-37.89
-35.71
-29.96
-20.80
-9.33
2.78
13.88
22.83
29.25
33.39
35.75
36.71
36.38
34.74
31.84
28.01
23.80
19.83
16.60
14.34
12.97
12.15
11.46
10.56
9.30
7.70
5.91
4.12
2.40
0.69
-1.19
-3.49
-6.43
-10.12
-14.62
-19.85
-25.57
-31.25
-36.02
-38.81
-38.58
-34.73
-27.38
-17.41
-6.21
4.78
14.44
22.19
27.89
31.61
33.40
33.21
31.08
27.21
22.13
16.61
11.45
7.27
4.34
2.52
1.38
0.44
-0.72
-2.29
-4.22
-6.30
-8.27
-10.01
-11.56
-13.15
-15.10
-17.73
-21.26
-25.74
-30.96
-36.43
-41.30
-44.50
-44.96
-41.94
-35.36
-25.92
-14.95
-4.03
5.51
12.90
17.99
21.05
22.50
22.63
21.56
19.37
16.18
12.32
8.30
4.67
1.92
0.28
-0.32
-0.17
0.26
0.51
0.24
-0.73
-2.37
-4.51
-6.89
-9.30
-11.61
-13.85
-16.14
-18.71
-21.85
-25.79
-30.57
-35.83
-40.70
-43.96
-44.32
-40.95
-33.85
-23.93
-12.73
-1.92
7.23
14.11
18.70
21.34
22.40
22.17
20.82
18.56
15.67
12.57
9.70
7.40
5.85
5.01
4.67
4.51
4.25
3.71
2.86
1.80
0.64
-0.49
-1.59
-2.69
-3.91
-5.41
-7.35
-9.96
-13.38
-17.62
-22.34
-26.79
-29.85
-30.35
-27.48
-21.16
-12.09
-1.66
8.60
17.35
23.84
27.92
29.84
30.02
28.86
26.61
23.48
19.70
15.58
11.50
7.84
4.90
2.80
1.51
0.86
0.58
0.42
0.11
-0.56
-1.72
-3.40
-5.60
-8.23
-11.22
-14.54
-18.22
-22.33
-26.94
-32.11
-37.74
-43.43
-48.40
-51.55
-51.67
-47.86
-39.94
-28.63
-15.42
-2.12
9.69
19.05
25.72
29.97
32.27
32.97
32.25
30.20
27.04
23.15
19.12
15.58
13.01
11.61
11.28
11.63
12.17
12.40
11.98
10.78
8.94
6.71
4.41
2.23
0.23
-1.73
-3.92
-6.64
-10.22
-14.82
-20.31
-26.01
-30.70
-32.96
-31.70
-26.78
-19.27
-11.19
-4.78
-1.75
-2.65
-6.88
-12.95
-19.01
-23.34
-24.60
-22.04
-15.63
-6.08
5.28
16.82
26.97
34.64
39.35
41.21
40.66
38.40
35.14
31.53
28.06
24.99
22.34
19.99
17.84
15.89
14.25
13.06
12.31
11.81
11.21
10.14
8.37
5.90
2.89
-0.41
-3.79
-7.16
-10.50
-13.87
-17.43
-21.40
-26.01
-31.23
-36.58
-41.04
-43.24
-41.93
-36.48
-27.21
-15.36
-2.63
9.25
19.09
26.34
30.98
33.29
33.61
32.29
29.68
26.21
22.35
18.55
15.16
12.38
10.23
8.65
7.50
6.66
6.01
5.43
4.81
4.02
2.97
1.62
-0.07
-2.09
-4.42
-7.03
-9.84
-12.76
-15.81
-19.09
-22.86
-27.26
-32.06
-36.50
-39.32
-39.14
-35.07
-27.08
-16.18
-4.07
7.45
17.00
23.95
28.32
30.52
31.03
30.17
28.19
25.32
21.86
18.20
14.79
12.01
10.13
9.17
8.92
9.04
9.09
8.78
7.97
6.66
4.98
3.00
0.73
-1.95
-5.09
-8.69
-12.68
-16.93
-21.43
-26.27
-31.61
-37.40
-43.15
-47.83
-50.16
-48.99
-43.89
-35.39
-24.89
-14.19
-4.87
2.14
6.69
9.17
10.08
9.88
8.81
7.13
5.22
3.59
2.78
3.16
4.74
7.23
10.12
12.82
14.88
16.02
16.17
15.43
14.03
12.31
10.62
9.32
8.65
8.66
9.18
9.74
9.70
8.31
5.01
-0.33
-7.10
-13.97
-19.14
-20.86
-18.04
-10.68
0.19
12.77
25.15
35.80
43.84
49.00
51.49
51.68
50.04
46.98
42.92
38.24
33.30
28.42
23.86
19.83
16.40
13.57
11.23
9.30
7.67
6.29
5.08
3.92
2.67
1.19
-0.60
-2.71
-5.12
-7.80
-10.74
-14.06
-17.88
-22.34
-27.41
-32.74
-37.56
-40.75
-41.10
-37.78
-30.69
-20.65
-9.18
1.97
11.37
18.28
22.65
24.91
25.67
25.38
24.26
22.39
19.84
16.80
13.65
10.83
8.80
7.78
7.71
8.26
8.93
9.26
8.99
8.13
6.88
5.49
4.07
2.51
0.59
-1.93
-5.17
-9.08
-13.57
-18.53
-23.81
-29.08
-33.67
-36.59
-36.85
-33.79
-27.56
-19.09
-9.87
-1.37
5.52
10.72
14.74
18.27
21.68
24.83
27.17
28.07
27.15
24.49
20.49
15.74
10.75
5.86
1.26
-2.93
-6.63
-9.73
-12.19
-14.11
-15.75
-17.47
-19.64
-22.46
-25.84
-29.48
-32.96
-36.04
-38.72
-41.22
-43.74
-46.07
-47.50
-46.96
-43.46
-36.58
-26.76
-15.20
-3.46
7.06
15.48
21.46
25.08
26.56
26.13
24.00
20.49
16.06
11.39
7.16
3.94
2.00
1.33
1.63
2.43
3.29
3.88
4.04
3.81
3.28
2.55
1.65
0.51
-1.00
-3.01
-5.58
-8.77
-12.64
-17.24
-22.57
-28.35
-33.88
-38.08
-39.77
-38.09
-32.93
-25.01
-15.71
-6.52
1.42
7.59
11.97
14.81
16.29
16.46
15.30
13.01
10.03
7.00
4.56
3.07
2.54
2.65
2.97
3.18
3.21
3.20
3.37
3.84
4.52
5.20
5.61
5.59
5.06
4.00
2.33
-0.12
-3.58
-8.12
-13.52
-19.13
-23.92
-26.78
-26.77
-23.50
-17.28
-9.02
-0.01
8.45
15.34
20.13
22.76
23.53
22.86
21.15
18.70
15.70
12.32
8.76
5.29
2.23
-0.17
-1.81
-2.79
-3.40
-3.96
-4.68
-5.64
-6.70
-7.72
-8.58
-9.32
-10.08
-11.07
-12.43
-14.25
-16.61
-19.55
-23.06
-26.89
-30.36
-32.42
-31.90
-27.89
-20.18
-9.48
2.83
15.03
25.68
33.91
39.53
42.79
44.16
44.09
42.93
40.97
38.50
35.84
33.27
31.03
29.20
27.70
26.34
24.89
23.18
21.15
18.86
16.45
14.04
11.67
9.26
6.65
3.68
0.30
-3.38
-7.20
-11.05
-15.04
-19.42
-24.37
-29.73
-34.81
-38.44
-39.38
-36.85
-30.91
-22.41
-12.80
-3.50
4.48
10.69
15.14
18.02
19.53
19.72
18.67
16.54
13.74
10.83
8.43
6.99
6.68
7.30
8.38
9.40
9.97
9.94
9.42
8.57
7.54
6.35
4.91
3.14
0.99
-1.47
-4.23
-7.32
-10.90
-14.99
-19.40
-23.52
-26.38
-26.99
-24.67
-19.40
-11.86
-3.22
5.23
12.46
17.90
21.40
23.16
23.46
22.57
20.73
18.20
15.26
12.26
9.59
7.55
6.33
5.85
5.84
5.94
5.80
5.23
4.20
2.78
1.09
-0.81
-2.85
-5.04
-7.35
-9.80
-12.46
-15.42
-18.87
-22.89
-27.44
-32.13
-36.27
-38.87
-38.96
-35.85
-29.48
-20.51
-10.17
0.08
8.99
15.84
20.47
23.12
24.14
23.84
22.46
20.22
17.47
14.61
12.04
10.03
8.64
7.73
7.11
6.59
6.09
5.57
4.98
4.22
3.14
1.61
-0.44
-2.94
-5.77
-8.69
-11.57
-14.34
-17.11
-20.13
-23.71
-28.05
-33.00
-37.91
-41.74
-43.28
-41.64
-36.57
-28.68
-19.20
-9.65
-1.28
5.20
9.65
12.32
13.57
13.69
12.79
10.93
8.27
5.12
1.91
-0.89
-2.91
-3.99
-4.21
-3.85
-3.23
-2.67
-2.43
-2.66
-3.48
-4.87
-6.77
-8.97
-11.20
-13.22
-14.90
-16.29
-17.65
-19.39
-21.82
-24.97
-28.41
-31.27
-32.44
-31.00
-26.55
-19.40
-10.49
-1.03
7.86
15.46
21.45
25.81
28.63
30.01
30.04
28.88
26.84
24.36
21.90
19.81
18.28
17.29
16.68
16.22
15.73
15.10
14.30
13.31
12.08
10.51
8.56
6.24
3.71
1.17
-1.20
-3.40
-5.57
-8.01
-11.07
-15.00
-19.81
-25.11
-30.09
-33.61
-34.52
-31.98
-25.88
-16.90
-6.37
4.17
13.43
20.65
25.65
28.63
29.96
29.96
28.89
26.99
24.56
21.91
19.34
17.07
15.18
13.71
12.62
11.92
11.58
11.54
11.61
11.56
11.12
10.12
8.53
6.40
3.88
1.06
-1.99
-5.27
-8.78
-12.63
-16.95
-21.95
-27.68
-33.83
-39.58
-43.69
-44.88
-42.30
-35.89
-26.46
-15.47
-4.46
5.38
13.41
19.50
23.80
26.49
27.71
27.57
26.27
24.20
21.89
19.85
18.40
17.61
17.25
17.04
16.72
16.24
15.70
15.24
14.89
14.48
13.68
12.11
9.57
6.12
2.07
-2.09
-5.93
-9.20
-11.94
-14.43
-17.10
-20.36
-24.45
-29.27
-34.34
-38.73
-41.33
-41.07
-37.38
-30.37
-20.91
-10.31
0.07
9.18
16.47
21.78
25.18
26.76
26.69
25.21
22.79
20.03
17.54
15.74
14.74
14.34
14.23
14.09
13.84
13.55
13.40
13.47
13.65
13.65
13.08
11.64
9.28
6.18
2.69
-0.81
-4.10
-7.12
-9.97
-12.86
-16.03
-19.74
-24.08
-28.91
-33.66
-37.37
-38.87
-37.20
-31.96
-23.54
-13.04
-1.88
8.57
17.39
24.13
28.73
31.35
32.17
31.45
29.51
26.75
23.58
20.32
17.15
14.08
11.10
8.23
5.63
3.47
1.88
0.78
-0.10
-1.17
-2.77
-5.05
-7.89
-11.00
-14.02
-16.70
-19.00
-21.09
-23.30
-26.02
-29.59
-34.12
-39.32
-44.46
-48.38
-49.78
-47.64
-41.55
-31.99
-20.16
-7.66
4.01
13.79
21.23
26.34
29.41
30.77
30.72
29.56
27.62
25.29
22.95
20.92
19.38
18.36
17.80
17.59
17.64
17.84
18.04
18.07
17.74
16.93
15.55
13.64
11.25
8.52
5.56
2.48
-0.68
-4.05
-7.90
-12.60
-18.43
-25.24
-32.28
-38.26
-41.65
-41.29
-36.81
-28.86
-18.86
-8.55
0.54
7.48
12.00
14.32
15.02
14.82
14.43
14.49
15.43
17.35
19.96
22.77
25.16
26.73
27.33
27.04
26.08
24.61
22.72
20.37
17.49
14.03
9.99
5.43
0.44
-4.82
-10.15
-15.30
-19.95
-23.87
-26.97
-29.44
-31.61
-33.73
-35.71
-37.00
-36.63
-33.67
-27.64
-18.84
-8.35
2.36
11.90
19.34
24.32
26.93
27.51
26.60
24.88
23.13
22.09
22.26
23.68
25.93
28.28
30.03
30.77
30.49
29.42
27.86
25.96
23.68
20.88
17.50
13.61
9.43
5.23
1.18
-2.72
-6.60
-10.65
-15.11
-20.20
-26.05
-32.62
-39.51
-45.79
-50.13
-51.02
-47.36
-38.87
-26.32
-11.38
3.89
17.61
28.51
36.09
40.47
42.12
41.59
39.36
35.86
31.50
26.81
22.32
18.54
15.78
14.07
13.20
12.76
12.36
11.73
10.73
9.35
7.60
5.49
3.02
0.25
-2.71
-5.73
-8.76
-11.82
-15.11
-18.92
-23.44
-28.57
-33.74
-37.94
-40.00
-38.90
-34.27
-26.49
-16.71
-6.43
2.94
10.44
15.69
18.77
20.01
19.79
18.40
16.10
13.14
9.85
6.56
3.61
1.27
-0.26
-1.01
-1.10
-0.81
-0.43
-0.23
-0.37
-0.86
-1.62
-2.56
-3.59
-4.74
-6.11
-7.83
-10.04
-12.88
-16.45
-20.76
-25.56
-30.27
-33.95
-35.51
-34.03
-29.13
-21.19
-11.34
-1.05
8.29
15.78
21.09
24.37
25.91
25.97
24.64
22.07
18.49
14.35
10.28
6.86
4.51
3.33
3.15
3.60
4.22
4.60
4.50
3.88
2.90
1.80
0.75
-0.18
-1.18
-2.51
-4.45
-7.22
-10.92
-15.55
-20.84
-26.25
-30.87
-33.52
-33.12
-29.08
-21.66
-11.95
-1.53
8.09
15.86
21.45
25.02
26.93
27.49
26.88
25.23
22.80
19.99
17.29
15.15
13.76
13.08
12.84
12.69
12.30
11.50
10.35
9.00
7.65
6.36
5.02
3.39
1.16
-1.91
-5.89
-10.72
-16.27
-22.25
-28.16
-33.24
-36.48
-36.90
-33.89
-27.55
-18.71
-8.73
0.96
9.29
15.73
20.25
23.03
24.23
23.91
22.07
18.91
14.83
10.44
6.39
3.19
1.10
0.05
-0.26
-0.26
-0.35
-0.75
-1.49
-2.42
-3.33
-4.10
-4.74
-5.42
-6.37
-7.88
-10.20
-13.48
-17.68
-22.42
-26.90
-30.01
-30.59
-27.91
-21.96
-13.54
-4.03
5.10
12.72
18.32
21.89
23.74
24.21
23.51
21.78
19.16
15.93
12.49
9.30
6.74
4.97
3.89
3.20
2.54
1.62
0.36
-1.13
-2.60
-3.88
-4.94
-5.90
-7.04
-8.58
-10.65
-13.28
-16.49
-20.27
-24.53
-28.89
-32.60
-34.63
-33.97
-30.07
-23.10
-14.01
-4.17
5.05
12.69
18.37
22.12
24.21
24.86
24.21
22.42
19.70
16.39
12.96
9.87
7.50
6.03
5.47
5.55
5.91
6.15
5.97
5.29
4.18
2.82
1.36
-0.20
-1.96
-4.05
-6.57
-9.54
-12.92
-16.70
-20.81
-25.01
-28.80
-31.36
-31.75
-29.30
-23.88
-16.07
-7.00
1.99
9.82
15.83
19.89
22.20
23.05
22.70
21.32
19.09
16.30
13.32
10.61
8.59
7.45
7.15
7.37
7.70
7.76
7.37
6.62
5.75
5.00
4.51
4.16
3.68
2.75
1.13
-1.24
-4.33
-8.07
-12.43
-17.28
-22.27
-26.69
-29.55
-29.81
-26.84
-20.68
-12.17
-2.64
6.48
14.06
19.58
22.99
24.60
24.82
23.99
22.37
20.17
17.60
14.89
12.32
10.16
8.59
7.65
7.24
7.16
7.18
7.11
6.83
6.26
5.34
4.04
2.29
0.13
-2.36
-5.07
-7.88
-10.80
-13.94
-17.48
-21.54
-25.94
-30.14
-33.24
-34.22
-32.31
-27.30
-19.75
-10.82
-1.92
5.70
11.37
14.98
16.90
17.61
17.52
16.83
15.62
13.99
12.08
10.13
8.40
7.05
6.14
5.62
5.37
5.27
5.16
4.91
4.40
3.56
2.40
0.93
-0.76
-2.63
-4.66
-6.82
-9.16
-11.75
-14.74
-18.28
-22.31
-26.43
-29.81
-31.33
-30.03
-25.49
-18.13
-9.07
0.24
8.55
15.15
19.91
23.08
24.98
25.77
25.48
24.08
21.72
18.71
15.54
12.63
10.31
8.70
7.72
7.18
6.82
6.39
5.71
4.71
3.43
1.96
0.39
-1.25
-3.01
-4.99
-7.34
-10.21
-13.68
-17.75
-22.18
-26.45
-29.75
-31.15
-29.87
-25.59
-18.68
-10.07
-1.06
7.21
13.97
18.97
22.34
24.30
25.05
24.64
23.10
20.56
17.27
13.65
10.17
7.22
5.04
3.63
2.84
2.33
1.75
0.83
-0.53
-2.23
-4.06
-5.81
-7.42
-8.99
-10.76
-12.98
-15.85
-19.49
-23.89
-28.78
-33.65
-37.61
-39.61
-38.78
-34.75
-27.93
-19.43
-10.66
-2.88
3.22
7.58
10.61
12.80
14.55
16.03
17.31
18.52
19.82
21.40
23.31
25.34
27.12
28.16
28.07
26.70
24.15
20.77
16.97
13.15
9.57
6.33
3.40
0.64
-2.15
-5.15
-8.56
-12.52
-17.09
-22.07
-26.96
-30.88
-32.82
-31.96
-27.99
-21.32
-12.99
-4.33
3.48
9.73
14.25
17.25
19.01
19.70
19.33
17.91
15.59
12.69
9.65
6.88
4.61
2.87
1.43
0.02
-1.63
-3.64
-5.94
-8.29
-10.42
-12.11
-13.27
-14.03
-14.64
-15.44
-16.73
-18.73
-21.56
-25.10
-28.95
-32.38
-34.36
-33.84
-30.10
-23.12
-13.67
-3.17
6.82
15.03
20.86
24.31
25.82
25.88
24.85
22.92
20.24
17.03
13.66
10.56
8.05
6.32
5.35
4.98
5.10
5.64
6.57
7.89
9.51
11.19
12.62
13.42
13.33
12.27
10.31
7.71
4.71
1.46
-1.94
-5.40
-8.61
-11.04
-11.97
-10.83
-7.41
-2.11
4.18
10.35
15.45
18.94
20.78
21.26
20.79
19.65
17.99
15.83
13.16
10.07
6.75
3.49
0.62
-1.63
-3.13
-3.90
-4.09
-3.93
-3.68
-3.55
-3.75
-4.41
-5.61
-7.38
-9.68
-12.37
-15.32
-18.38
-21.48
-24.54
-27.42
-29.85
-31.33
-31.27
-29.14
-24.69
-18.18
-10.33
-2.16
5.29
11.29
15.58
18.30
19.86
20.65
20.90
20.70
20.01
18.90
17.50
16.03
14.69
13.59
12.69
11.87
10.96
9.82
8.42
6.77
4.93
2.98
0.98
-1.05
-3.16
-5.45
-8.02
-10.95
-14.28
-17.97
-21.83
-25.49
-28.36
-29.73
-28.98
-25.83
-20.49
-13.72
-6.60
-0.16
4.91
8.41
10.54
11.68
12.17
12.18
11.69
10.64
8.97
6.77
4.31
1.94
0.00
-1.26
-1.84
-1.87
-1.59
-1.20
-0.85
-0.64
-0.66
-1.04
-1.90
-3.33
-5.31
-7.80
-10.76
-14.16
-17.93
-21.78
-25.16
-27.25
-27.25
-24.63
-19.47
-12.40
-4.46
3.19
9.68
14.47
17.45
18.77
18.70
17.50
15.39
12.59
9.37
6.05
3.01
0.64
-0.81
-1.29
-0.98
-0.26
0.47
0.87
0.80
0.30
-0.50
-1.45
-2.54
-3.87
-5.65
-8.06
-11.25
-15.19
-19.73
-24.53
-29.00
-32.36
-33.66
-32.10
-27.25
-19.34
-9.25
1.63
11.86
20.29
26.35
30.08
31.83
32.08
31.16
29.29
26.57
23.21
19.46
15.70
12.26
9.37
7.14
5.48
4.25
3.29
2.46
1.68
0.92
0.15
-0.66
-1.60
-2.80
-4.42
-6.58
-9.35
-12.77
-16.81
-21.38
-26.21
-30.79
-34.35
-35.95
-34.80
-30.58
-23.57
-14.70
-5.23
3.63
10.98
16.45
20.05
22.03
22.69
22.26
20.96
19.02
16.73
14.39
12.27
10.54
9.26
8.38
7.81
7.44
7.16
6.87
6.47
5.85
4.91
3.60
1.93
-0.06
-2.26
-4.61
-7.10
-9.82
-12.95
-16.62
-20.77
-25.00
-28.49
-30.23
-29.27
-25.15
-18.08
-8.96
0.87
10.12
17.81
23.45
26.98
28.60
28.64
27.42
25.30
22.65
19.79
17.00
14.38
11.94
9.64
7.47
5.50
3.90
2.80
2.27
2.19
2.27
2.16
1.51
0.15
-1.87
-4.33
-6.98
-9.64
-12.33
-15.20
-18.54
-22.56
-27.40
-32.92
-38.66
-43.87
-47.54
-48.72
-46.79
-41.80
-34.49
-26.14
-18.15
-11.66
-7.26
-5.05
-4.76
-5.99
-8.39
-11.61
-15.31
-19.04
-22.35
-24.77
-25.97
-25.74
-24.03
-20.88
-16.39
-10.71
-4.09
3.13
10.49
17.48
23.61
28.56
32.19
34.53
35.74
35.95
35.23
33.50
30.65
26.58
21.39
15.46
9.49
4.41
1.14
0.39
2.37
6.74
12.68
19.12
25.05
29.76
32.90
34.43
34.48
33.25
30.94
27.84
24.30
20.75
17.59
15.07
13.25
11.98
11.02
10.20
9.42
8.65
7.85
6.91
5.65
3.94
1.76
-0.74
-3.35
-5.85
-8.13
-10.21
-12.19
-14.24
-16.55
-19.28
-22.47
-25.88
-28.93
-30.74
-30.39
-27.28
-21.38
-13.32
-4.19
4.82
12.73
18.91
23.18
25.61
26.44
26.02
24.72
22.91
20.91
18.88
16.93
15.11
13.51
12.25
11.45
11.16
11.33
11.75
12.15
12.20
11.61
10.16
7.79
4.64
1.02
-2.61
-5.84
-8.43
-10.43
-12.18
-14.20
-16.97
-20.76
-25.46
-30.50
-34.93
-37.62
-37.59
-34.32
-27.99
-19.47
-10.02
-0.94
6.79
12.72
16.80
19.23
20.21
19.96
18.71
16.83
14.71
12.73
11.15
10.01
9.25
8.74
8.43
8.27
8.20
8.17
8.09
7.88
7.48
6.85
5.88
4.49
2.62
0.33
-2.19
-4.70
-7.01
-9.15
-11.35
-14.00
-17.42
-21.64
-26.28
-30.53
-33.33
-33.71
-31.13
-25.66
-18.00
-9.27
-0.69
6.79
12.62
16.66
19.07
20.11
20.02
19.02
17.32
15.20
12.96
10.90
9.24
8.04
7.20
6.59
6.07
5.58
5.13
4.75
4.35
3.79
2.85
1.38
-0.64
-3.07
-5.71
-8.31
-10.72
-12.90
-14.95
-17.06
-19.52
-22.50
-25.96
-29.44
-32.13
-33.05
-31.41
-26.96
-20.08
-11.75
-3.14
4.73
11.23
16.14
19.50
21.46
22.12
21.60
20.11
17.98
15.62
13.40
11.53
10.07
8.91
7.91
6.99
6.16
5.52
5.09
4.84
4.56
3.99
2.90
1.19
-1.01
-3.45
-5.85
-8.05
-10.09
-12.20
-14.63
-17.61
-21.21
-25.24
-29.26
-32.56
-34.30
-33.71
-30.34
-24.20
-15.91
-6.47
2.98
11.46
18.31
23.26
26.26
27.39
26.83
24.84
21.81
18.20
14.51
11.11
8.29
6.15
4.72
4.01
3.98
4.55
5.54
6.70
7.68
8.12
7.77
6.50
4.38
1.68
-1.23
-3.95
-6.21
-7.95
-9.39
-10.97
-13.22
-16.53
-20.97
-26.16
-31.24
-35.02
-36.34
-34.38
-28.94
-20.55
-10.33
0.28
9.96
17.74
23.17
26.25
27.28
26.68
24.90
22.41
19.65
17.09
15.06
13.73
13.02
12.66
12.36
11.89
11.26
10.58
10.01
9.54
8.99
8.09
6.57
4.38
1.65
-1.32
-4.23
-6.85
-9.11
-11.06
-12.86
-14.79
-17.14
-20.18
-23.95
-28.10
-31.87
-34.24
-34.27
-31.45
-25.91
-18.35
-9.84
-1.41
6.11
12.16
16.45
18.79
19.23
18.03
15.66
12.82
10.17
8.24
7.24
7.08
7.41
7.80
7.94
7.69
7.15
6.51
5.95
5.45
4.86
3.89
2.39
0.34
-2.04
-4.49
-6.80
-8.94
-11.02
-13.26
-15.84
-18.90
-22.51
-26.61
-30.94
-34.98
-37.92
-38.87
-37.19
-32.71
-25.89
-17.66
-9.14
-1.29
5.26
10.28
13.82
16.02
17.08
17.20
16.60
15.53
14.23
12.91
11.66
10.47
9.34
8.27
7.40
6.94
7.12
8.03
9.57
11.43
13.11
14.17
14.32
13.53
11.96
9.86
7.47
4.88
2.07
-1.05
-4.64
-8.76
-13.29
-17.78
-21.51
-23.55
-23.09
-19.77
-13.89
-6.34
1.65
8.94
14.78
18.93
21.53
22.87
23.21
22.68
21.37
19.45
17.18
14.91
12.99
11.68
11.09
11.14
11.65
12.33
12.92
13.23
13.09
12.42
11.15
9.23
6.67
3.57
0.10
-3.49
-7.01
-10.38
-13.74
-17.36
-21.48
-25.96
-30.21
-33.20
-33.75
-31.09
-25.12
-16.58
-6.72
3.09
11.82
18.94
24.36
28.17
30.46
31.30
30.78
29.18
26.92
24.47
22.22
20.39
19.01
18.05
17.38
16.95
16.64
16.36
15.95
15.24
14.05
12.22
9.65
6.36
2.49
-1.72
-5.99
-10.10
-13.97
-17.66
-21.40
-25.51
-30.26
-35.75
-41.68
-47.27
-51.29
-52.39
-49.56
-42.63
-32.38
-20.38
-8.45
1.91
9.92
15.48
18.90
20.56
20.76
19.73
17.77
15.35
12.96
11.02
9.70
8.94
8.55
8.36
8.28
8.31
8.43
8.57
8.56
8.19
7.29
5.78
3.70
1.18
-1.63
-4.60
-7.64
-10.80
-14.24
-18.19
-22.78
-27.91
-33.06
-37.29
-39.46
-38.59
-34.26
-26.82
-17.34
-7.24
2.16
9.99
15.92
20.00
22.46
23.46
23.11
21.50
18.88
15.68
12.44
9.65
7.67
6.60
6.32
6.58
7.11
7.66
8.05
8.12
7.74
6.85
5.47
3.71
1.75
-0.28
-2.34
-4.51
-6.94
-9.79
-13.19
-17.17
-21.63
-26.23
-30.29
-32.89
-33.09
-30.22
-24.23
-15.78
-6.03
3.67
12.14
18.71
23.15
25.55
26.17
25.31
23.31
20.58
17.53
14.57
11.97
9.85
8.20
6.94
5.97
5.25
4.69
4.14
3.32
1.92
-0.32
-3.50
-7.48
-11.93
-16.46
-20.78
-24.83
-28.79
-33.06
-38.13
-44.41
-52.03
-60.70
-69.53
-77.19
-82.17
-83.23
-79.94
-72.80
-63.23
-52.97
-43.57
-35.89
-30.01
-25.41
-21.37
-17.31
-12.98
-8.36
-3.53
1.41
6.43
11.48
16.44
21.13
25.38
29.08
32.30
35.17
37.90
40.61
43.34
45.95
48.17
49.59
49.78
48.34
45.09
40.07
33.52
25.79
17.22
8.15
-0.96
-9.37
-16.08
-20.07
-20.70
-18.07
-13.06
-6.98
-1.08
3.81
7.41
9.80
11.08
11.22
10.09
7.65
4.11
-0.04
-4.22
-7.89
-10.74
-12.59
-13.32
-12.79
-10.84
-7.30
-2.11
4.58
12.36
20.56
28.32
34.75
39.17
41.23
41.05
39.07
35.93
32.27
28.56
25.04
21.79
18.73
15.71
12.50
8.93
5.06
1.28
-1.65
-2.79
-1.37
2.89
9.60
17.84
26.46
34.38
40.82
45.38
47.95
48.58
47.46
44.92
41.48
37.81
34.58
32.32
31.19
30.96
31.10
30.99
30.20
28.65
26.62
24.59
22.92
21.67
20.54
19.06
16.85
13.81
10.21
6.49
3.08
0.20
-2.24
-4.60
-7.34
-10.94
-15.65
-21.37
-27.42
-32.57
-35.19
-33.73
-27.34
-16.25
-1.94
13.30
27.05
37.51
43.95
46.62
46.46
44.53
41.66
38.30
34.61
30.60
26.35
21.97
17.65
13.54
9.69
6.09
2.66
-0.62
-3.71
-6.45
-8.65
-10.17
-11.03
-11.46
-11.86
-12.72
-14.44
-17.30
-21.32
-26.31
-31.86
-37.32
-41.87
-44.64
-44.91
-42.32
-37.03
-29.69
-21.30
-12.87
-5.20
1.26
6.35
10.05
12.43
13.55
13.69
13.33
13.17
13.98
16.26
20.03
24.76
29.51
33.24
35.24
35.32
33.87
31.67
29.58
28.26
28.03
28.85
30.45
32.43
34.29
35.49
35.50
33.89
30.57
25.93
20.85
16.51
14.05
14.14
16.78
21.30
26.59
31.48
34.94
36.27
35.09
31.22
24.66
15.66
4.68
-7.49
-19.88
-31.45
-41.37
-49.12
-54.61
-58.12
-60.19
-61.45
-62.47
-63.63
-65.05
-66.59
-67.97
-68.86
-69.03
-68.38
-66.93
-64.78
-62.01
-58.77
-55.23
-51.69
-48.52
-45.94
-43.84
-41.69
-38.59
-33.58
-26.05
-16.04
-4.38
7.58
18.42
27.13
33.30
37.12
39.09
39.72
39.35
38.24
36.62
34.82
33.16
31.80
30.54
28.90
26.13
21.65
15.17
6.85
-2.76
-12.93
-22.90
-32.10
-40.16
-46.94
-52.50
-57.00
-60.71
-63.81
-66.31
-67.91
-68.06
-66.08
-61.50
-54.35
-45.19
-35.01
-24.85
-15.52
-7.40
-0.57
5.02
9.31
12.16
13.40
13.03
11.37
8.98
6.57
4.76
3.99
4.32
5.49
6.95
8.09
8.35
7.50
5.65
3.16
0.48
-2.06
-4.35
-6.54
-8.91
-11.75
-15.23
-19.38
-24.04
-28.78
-32.97
-35.81
-36.56
-34.74
-30.33
-23.82
-16.07
-7.99
-0.36
6.41
12.20
17.00
20.74
23.24
24.24
23.64
21.61
18.63
15.35
12.41
10.24
8.99
8.51
8.51
8.64
8.60
8.19
7.35
6.10
4.54
2.79
0.91
-1.12
-3.42
-6.16
-9.53
-13.65
-18.45
-23.57
-28.30
-31.68
-32.72
-30.75
-25.72
-18.27
-9.57
-0.92
6.66
12.60
16.85
19.66
21.37
22.16
22.11
21.23
19.60
17.45
15.11
12.96
11.36
10.44
10.17
10.29
10.50
10.50
10.14
9.38
8.24
6.77
4.92
2.60
-0.26
-3.64
-7.43
-11.47
-15.65
-19.98
-24.63
-29.67
-34.80
-39.29
-42.10
-42.34
-39.56
-34.08
-26.85
-19.19
-12.27
-6.86
-3.18
-1.11
-0.42
-0.92
-2.38
-4.62
-7.43
-10.66
-14.15
-17.74
-21.33
-24.87
-28.30
-31.20
-33.12
-33.75
-33.02
-31.10
-28.33
-25.25
-22.54
-20.72
-19.42
-18.06
-16.19
-13.91
-11.64
-9.93
-9.22
-9.75
-11.04
-11.25
-8.52
-1.87
8.35
20.93
34.54
48.21
61.24
73.74
87.20
102.79
120.54
139.17
156.94
172.63
185.90
196.79
197.97
184.59
156.93
121.04
84.39
51.98
25.88
7.77
-4.94
-14.36
-21.06
-25.34
-27.81
-29.48
-31.10
-32.85
-34.68
-36.89
-39.61
-42.27
-44.63
-47.09
-50.61
-56.03
-63.17
-70.74
-76.85
-79.23
-75.92
-66.38
-51.89
-34.95
-18.25
-3.73
7.72
15.74
20.36
21.79
20.10
15.41
8.13
-0.82
-10.22
-19.03
-26.81
-33.66
-39.94
-45.89
-51.40
-55.96
-58.87
-59.57
-57.81
-53.86
-48.33
-42.08
-36.10
-31.29
-28.30
-27.31
-27.97
-29.64
-31.70
-33.84
-36.11
-38.56
-40.87
-42.05
-40.63
-35.28
-25.38
-11.54
4.66
21.13
35.99
48.12
57.23
63.60
67.67
69.76
69.93
68.14
64.51
59.43
53.56
47.74
42.67
38.71
35.80
33.49
31.15
28.24
24.52
20.12
15.44
10.96
7.00
3.62
0.61
-2.35
-5.54
-9.13
-13.17
-17.69
-22.63
-27.78
-32.63
-36.32
-37.77
-36.09
-30.93
-22.67
-12.41
-1.63
8.28
16.31
22.02
25.44
26.87
26.68
25.20
22.69
19.39
15.58
11.65
8.05
5.21
3.39
2.63
2.72
3.29
3.97
4.47
4.62
4.29
3.38
1.77
-0.58
-3.64
-7.25
-11.16
-15.20
-19.35
-23.80
-28.89
-34.91
-41.82
-48.96
-55.14
-58.84
-58.77
-54.29
-45.77
-34.40
-21.83
-9.59
1.20
9.99
16.63
21.13
23.53
23.91
22.52
19.75
16.19
12.49
9.18
6.59
4.82
3.80
3.37
3.36
3.63
4.06
4.49
4.78
4.75
4.28
3.26
1.69
-0.34
-2.63
-5.04
-7.46
-10.01
-13.03
-16.89
-21.76
-27.28
-32.44
-35.81
-35.97
-32.11
-24.36
-13.72
-1.72
10.11
20.66
29.37
36.08
40.88
43.90
45.33
45.42
44.52
43.04
41.37
39.78
38.36
37.10
35.91
34.71
33.49
32.24
30.96
29.52
27.76
25.45
22.46
18.75
14.49
9.97
5.44
1.09
-3.12
-7.36
-11.94
-17.15
-23.07
-29.48
-35.67
-40.58
-43.03
-42.10
-37.46
-29.57
-19.54
-8.77
1.47
10.32
17.40
22.68
26.24
28.18
28.57
27.58
25.50
22.75
19.79
16.98
14.55
12.59
11.14
10.20
9.74
9.69
9.85
9.94
9.62
8.56
6.59
3.71
0.12
-3.87
-7.90
-11.72
-15.28
-18.70
-22.27
-26.25
-30.71
-35.30
-39.24
-41.47
-40.97
-37.13
-30.04
-20.44
-9.50
1.55
11.68
20.27
27.00
31.76
34.57
35.54
34.90
33.04
30.43
27.55
24.75
22.25
20.12
18.36
16.94
15.82
14.95
14.24
13.54
12.68
11.43
9.61
7.09
3.89
0.11
-4.04
-8.33
-12.58
-16.66
-20.57
-24.44
-28.54
-33.09
-38.08
-43.11
-47.26
-49.35
-48.28
-43.54
-35.39
-24.86
-13.37
-2.21
7.73
16.08
22.72
27.61
30.60
31.58
30.61
28.05
24.54
20.81
17.44
14.76
12.82
11.51
10.70
10.30
10.25
10.47
10.77
10.91
10.62
9.74
8.23
6.25
4.00
1.72
-0.49
-2.66
-4.99
-7.79
-11.36
-15.94
-21.49
-27.55
-33.28
-37.53
-39.20
-37.58
-32.63
-25.01
-15.89
-6.59
1.80
8.61
13.62
16.83
18.43
18.62
17.67
15.87
13.59
11.16
8.88
6.92
5.35
4.19
3.41
3.01
2.95
3.20
3.63
4.07
4.27
4.07
3.33
2.11
0.51
-1.31
-3.28
-5.43
-7.92
-10.92
-14.57
-18.88
-23.58
-28.15
-31.73
-33.35
-32.22
-27.98
-20.95
-12.07
-2.58
6.28
13.67
19.21
22.88
24.90
25.51
24.92
23.35
21.04
18.26
15.28
12.34
9.65
7.41
5.79
4.96
4.99
5.85
7.30
8.92
10.18
10.56
9.75
7.68
4.59
0.86
-3.13
-7.17
-11.27
-15.61
-20.43
-25.87
-31.81
-37.73
-42.78
-45.92
-46.25
-43.34
-37.43
-29.35
-20.32
-11.49
-3.65
2.84
7.93
11.76
14.42
15.97
16.46
16.01
14.83
13.23
11.52
10.03
9.01
8.64
8.98
9.91
11.18
12.48
13.48
13.90
13.62
12.59
10.88
8.61
5.94
3.06
0.14
-2.69
-5.41
-8.18
-11.27
-14.93
-19.13
-23.43
-26.93
-28.53
-27.30
-22.86
-15.57
-6.38
3.41
12.65
20.49
26.55
30.75
33.12
33.77
32.82
30.48
27.10
23.16
19.13
15.43
12.29
9.81
7.95
6.63
5.75
5.18
4.72
4.18
3.39
2.29
0.96
-0.49
-1.93
-3.38
-4.88
-6.56
-8.50
-10.79
-13.51
-16.69
-20.17
-23.51
-25.92
-26.45
-24.33
-19.31
-11.85
-3.04
5.81
13.56
19.50
23.44
25.53
26.05
25.21
23.15
19.98
15.89
11.22
6.42
1.98
-1.71
-4.45
-6.34
-7.64
-8.74
-9.91
-11.32
-12.91
-14.55
-16.09
-17.48
-18.76
-20.06
-21.53
-23.34
-25.60
-28.47
-32.05
-36.33
-41.02
-45.41
-48.40
-48.79
-45.64
-38.69
-28.51
-16.33
-3.64
8.23
18.41
26.50
32.39
36.14
37.87
37.79
36.23
33.63
30.52
27.34
24.48
22.29
21.05
21.01
22.21
24.46
27.31
30.13
32.31
33.40
33.26
31.96
29.76
26.92
23.68
20.14
16.34
12.18
7.48
2.03
-4.30
-11.33
-18.41
-24.49
-28.34
-28.98
-26.06
-20.09
-12.20
-3.82
3.80
9.94
14.40
17.32
18.96
19.46
18.88
17.28
14.84
11.86
8.78
5.99
3.78
2.23
1.27
0.71
0.32
-0.09
-0.65
-1.41
-2.37
-3.53
-4.86
-6.39
-8.15
-10.25
-12.85
-16.11
-20.19
-25.07
-30.43
-35.62
-39.69
-41.65
-40.73
-36.70
-29.97
-21.48
-12.43
-3.90
3.37
9.05
13.16
15.79
17.02
16.86
15.34
12.68
9.32
5.83
2.84
0.73
-0.37
-0.67
-0.56
-0.45
-0.59
-1.06
-1.75
-2.52
-3.24
-3.95
-4.77
-5.90
-7.50
-9.68
-12.48
-15.93
-20.00
-24.51
-29.00
-32.71
-34.69
-34.11
-30.54
-24.22
-15.99
-7.02
1.53
8.86
14.66
19.04
22.25
24.52
25.90
26.31
25.69
24.09
21.78
19.19
16.76
14.86
13.59
12.85
12.30
11.61
10.46
8.70
6.32
3.49
0.39
-2.76
-5.80
-8.65
-11.28
-13.77
-16.32
-19.19
-22.66
-26.81
-31.38
-35.69
-38.71
-39.38
-36.95
-31.26
-22.86
-12.83
-2.47
7.05
14.92
20.73
24.41
26.07
25.93
24.30
21.60
18.39
15.25
12.76
11.25
10.81
11.22
12.08
12.95
13.47
13.47
12.90
11.84
10.38
8.59
6.54
4.31
1.96
-0.43
-2.86
-5.47
-8.53
-12.35
-17.12
-22.70
-28.50
-33.48
-36.40
-36.20
-32.34
-25.06
-15.32
-4.55
5.82
14.69
21.51
26.22
29.04
30.29
30.26
29.19
27.38
25.19
23.08
21.41
20.37
19.85
19.59
19.23
18.55
17.54
16.38
15.27
14.27
13.32
12.18
10.70
8.89
6.99
5.30
4.07
3.36
2.98
2.61
1.91
0.73
-0.87
-2.68
-4.44
-6.03
-7.49
-9.07
-11.07
-13.81
-17.45
-21.98
-27.15
-32.44
-37.03
-39.99
-40.40
-37.70
-31.88
-23.55
-13.78
-3.79
5.40
13.07
18.90
22.81
24.87
25.24
24.21
22.18
19.70
17.31
15.45
14.38
14.11
14.50
15.26
16.15
16.94
17.48
17.63
17.32
16.43
14.92
12.76
10.01
6.78
3.21
-0.53
-4.32
-8.09
-11.90
-15.90
-20.32
-25.33
-30.82
-36.33
-40.98
-43.74
-43.79
-40.77
-35.02
-27.43
-19.13
-11.17
-4.31
1.10
4.94
7.30
8.32
8.26
7.55
6.73
6.38
6.91
8.45
10.82
13.63
16.42
18.91
21.00
22.79
24.39
25.81
26.82
27.11
26.37
24.53
21.72
18.32
14.73
11.24
7.91
4.62
1.15
-2.73
-7.20
-12.27
-17.79
-23.36
-28.30
-31.80
-33.10
-31.74
-27.77
-21.80
-14.84
-7.98
-2.10
2.29
5.11
6.54
6.91
6.57
5.85
5.04
4.43
4.30
4.81
6.02
7.84
10.03
12.26
14.23
15.71
16.59
16.89
16.68
16.04
15.01
13.61
11.79
9.52
6.74
3.43
-0.35
-4.47
-8.72
-12.99
-17.24
-21.57
-26.05
-30.55
-34.60
-37.48
-38.46
-37.07
-33.21
-27.11
-19.12
-9.62
1.03
12.29
23.33
33.04
40.44
45.12
47.62
49.33
51.93
56.66
63.62
71.72
79.17
84.26
86.19
85.34
82.93
80.35
78.43
77.08
75.59
73.13
69.26
64.15
58.39
52.55
46.84
41.08
34.76
27.32
18.26
7.17
-6.18
-21.61
-38.23
-54.22
-67.09
-74.34
-74.33
-66.99
-53.89
-37.69
-21.21
-6.60
4.98
13.27
18.52
21.04
21.16
19.25
15.93
12.03
8.46
5.90
4.61
4.34
4.39
3.93
2.20
-1.20
-6.23
-12.39
-18.90
-24.93
-29.86
-33.52
-36.18
-38.46
-40.98
-44.15
-47.96
-52.12
-56.19
-59.80
-62.65
-64.43
-64.81
-63.36
-59.77
-53.98
-46.37
-37.65
-28.71
-20.36
-13.18
-7.43
-3.09
-0.04
1.86
2.78
2.84
2.24
1.20
0.04
-0.97
-1.65
-1.99
-2.12
-2.27
-2.66
-3.46
-4.73
-6.49
-8.66
-11.08
-13.54
-15.77
-17.60
-19.01
-20.23
-21.69
-23.88
-27.21
-31.67
-36.78
-41.48
-44.48
-44.59
-41.22
-34.53
-25.45
-15.34
-5.55
2.93
9.59
14.32
17.28
18.69
18.80
17.83
16.10
13.96
11.77
9.84
8.36
7.36
6.80
6.51
6.32
6.12
5.86
5.56
5.23
4.88
4.46
3.85
2.88
1.36
-0.90
-4.01
-8.00
-12.79
-18.19
-23.89
-29.37
-33.89
-36.55
-36.54
-33.40
-27.28
-19.00
-9.84
-1.15
6.06
11.34
14.77
16.71
17.53
17.46
16.56
14.88
12.59
9.98
7.43
5.25
3.58
2.42
1.63
1.08
0.69
0.47
0.44
0.59
0.84
1.05
1.06
0.71
-0.10
-1.37
-3.11
-5.31
-8.05
-11.44
-15.47
-19.85
-23.92
-26.69
-27.20
-24.86
-19.69
-12.35
-3.93
4.44
11.89
17.97
22.55
25.67
27.36
27.67
26.67
24.56
21.73
18.60
15.63
13.14
11.27
10.00
9.23
8.81
8.53
8.22
7.70
6.81
5.49
3.72
1.60
-0.78
-3.30
-5.89
-8.51
-11.15
-13.88
-16.85
-20.26
-24.14
-28.22
-31.82
-34.00
-33.90
-31.06
-25.68
-18.56
-10.80
-3.42
2.93
8.01
11.90
14.78
16.79
17.98
18.38
18.07
17.26
16.20
15.17
14.35
13.84
13.61
13.61
13.79
14.11
14.53
14.94
15.18
15.01
14.20
12.64
10.31
7.40
4.12
0.69
-2.74
-6.13
-9.61
-13.30
-17.30
-21.44
-25.24
-27.93
-28.70
-27.00
-22.81
-16.66
-9.54
-2.46
3.77
8.74
12.38
14.76
15.99
16.13
15.31
13.80
12.04
10.46
9.35
8.74
8.43
8.09
7.46
6.49
5.29
4.05
2.92
1.93
1.03
0.11
-0.88
-1.93
-3.01
-4.05
-5.06
-6.12
-7.41
-9.18
-11.63
-14.71
-18.05
-20.91
-22.40
-21.76
-18.71
-13.53
-7.03
-0.22
5.96
10.90
14.34
16.30
17.01
16.75
15.80
14.48
13.06
11.76
10.75
10.09
9.78
9.72
9.77
9.75
9.53
9.10
8.48
7.70
6.73
5.40
3.56
1.13
-1.75
-4.78
-7.55
-9.78
-11.43
-12.74
-14.14
-16.09
-18.91
-22.60
-26.79
-30.70
-33.37
-33.88
-31.65
-26.69
-19.59
-11.33
-2.96
4.70
11.17
16.26
19.91
22.02
22.45
21.20
18.51
14.93
11.18
7.89
5.41
3.75
2.66
1.90
1.36
1.10
1.19
1.57
1.97
1.95
1.09
-0.84
-3.80
-7.57
-11.85
-16.37
-20.96
-25.48
-29.76
-33.65
-36.97
-39.64
-41.61
-42.81
-43.08
-42.13
-39.65
-35.49
-29.78
-22.99
-15.74
-8.60
-1.92
4.34
10.35
16.24
21.86
26.73
30.14
31.54
30.75
28.20
24.85
21.90
20.36
20.79
23.06
26.55
30.38
33.71
35.92
36.69
35.93
33.73
30.34
26.16
21.73
17.59
14.12
11.40
9.17
6.97
4.34
1.06
-2.73
-6.64
-10.20
-13.05
-15.15
-16.67
-17.93
-19.12
-20.21
-20.89
-20.64
-19.01
-15.70
-10.74
-4.50
2.44
9.40
15.80
21.17
25.27
28.00
29.46
29.85
29.44
28.57
27.54
26.52
25.54
24.52
23.33
21.85
20.15
18.40
16.83
15.67
15.01
14.80
14.79
14.67
14.08
12.77
10.66
7.86
4.66
1.42
-1.55
-4.14
-6.49
-8.99
-12.09
-16.08
-20.93
-26.12
-30.75
-33.81
-34.47
-32.40
-27.86
-21.60
-14.62
-7.86
-2.04
2.46
5.50
7.08
7.33
6.43
4.62
2.20
-0.50
-3.19
-5.70
-7.96
-10.03
-12.05
-14.10
-16.14
-17.95
-19.26
-19.81
-19.54
-18.68
-17.62
-16.84
-16.64
-17.08
-18.03
-19.21
-20.41
-21.53
-22.63
-23.88
-25.49
-27.56
-30.00
-32.46
-34.36
-35.04
-33.90
-30.63
-25.35
-18.55
-11.05
-3.78
2.43
7.01
9.73
10.64
10.10
8.61
6.74
5.07
4.05
4.01
5.11
7.33
10.48
14.23
18.12
21.61
24.18
25.44
25.23
23.73
21.50
19.30
17.97
18.05
19.65
22.31
25.14
27.02
26.97
24.31
19.07
11.91
4.18
-2.46
-6.43
-6.65
-2.84
4.46
14.09
24.67
34.92
43.90
51.09
56.29
59.58
61.15
61.25
60.19
58.23
55.61
52.58
49.36
46.12
42.96
39.80
36.43
32.54
27.87
22.28
15.80
8.67
1.23
-6.14
-13.11
-19.41
-24.89
-29.54
-33.46
-36.85
-39.91
-42.82
-45.60
-48.09
-49.87
-50.35
-48.95
-45.30
-39.40
-31.70
-22.95
-14.01
-5.56
1.99
8.44
13.71
17.62
19.94
20.45
19.11
16.23
12.46
8.66
5.64
3.96
3.75
4.76
6.51
8.40
9.96
10.85
10.94
10.22
8.75
6.68
4.13
1.23
-1.90
-5.16
-8.48
-11.80
-15.07
-18.22
-21.07
-23.35
-24.67
-24.62
-22.98
-19.80
-15.50
-10.71
-6.10
-2.14
0.97
3.34
5.16
6.56
7.54
7.97
7.75
6.90
5.58
4.07
2.67
1.58
0.89
0.59
0.61
0.88
1.33
1.93
2.76
3.95
5.77
8.51
12.35
17.30
23.02
28.92
34.25
38.39
41.14
42.95
44.93
48.54
55.15
65.43
79.12
95.04
111.48
126.87
140.25
151.46
160.96
169.35
176.86
183.18
187.46
188.71
186.28
180.05
170.55
158.65
145.34
131.37
117.25
103.16
89.10
74.90
60.39
45.55
30.72
16.65
4.38
-5.19
-11.83
-16.38
-20.78
-27.70
-39.59
-57.62
-80.91
-106.39
-129.60
-146.14
-153.26
-150.77
-140.95
-127.42
-113.64
-101.76
-92.37
-85.07
-79.44
-75.69
-74.63
-77.11
-83.29
-92.34
-102.66
-112.47
-120.56
-126.52
-130.69
-133.69
-135.95
-137.37
-137.46
-135.58
-131.34
-124.80
-116.42
-106.77
-96.44
-85.98
-75.90
-66.82
-59.39
-54.11
-51.06
-49.74
-48.98
-47.17
-42.75
-34.71
-23.07
-9.01
5.40
17.80
26.39
30.51
30.96
29.68
29.01
30.76
35.48
42.27
49.20
54.04
55.17
52.15
45.77
37.51
28.78
20.40
12.43
4.59
-3.23
-10.69
-17.12
-21.99
-25.43
-28.20
-31.37
-35.57
-40.59
-45.37
-48.51
-48.99
-46.64
-42.04
-36.23
-30.09
-24.14
-18.51
-13.18
-8.03
-2.93
2.29
7.88
13.98
20.38
26.52
31.58
34.75
35.67
34.51
31.98
28.99
26.26
24.14
22.50
20.95
19.07
16.67
13.81
10.69
7.55
4.54
1.75
-0.60
-2.11
-2.24
-0.54
2.99
7.75
12.58
16.15
17.44
16.04
12.31
7.10
1.45
-3.87
-8.52
-12.65
-16.72
-21.16
-26.17
-31.56
-36.90
-41.63
-45.44
-48.32
-50.62
-52.77
-55.14
-57.72
-60.19
-61.91
-62.14
-60.20
-55.56
-48.01
-37.71
-25.15
-11.18
3.20
16.99
29.44
40.11
48.77
55.07
58.39
57.73
52.10
40.93
24.52
4.19
-17.92
-39.44
-58.15
-72.36
-80.94
-83.22
-79.03
-68.82
-53.81
-35.96
-17.70
-1.37
11.32
19.62
23.78
24.68
23.49
21.23
18.53
15.63
12.39
8.65
4.36
-0.14
-4.29
-7.45
-9.26
-9.91
-10.05
-10.61
-12.26
-15.11
-18.61
-21.87
-24.12
-25.19
-25.52
-25.98
-27.47
-30.49
-35.15
-41.19
-48.20
-55.69
-63.01
-69.30
-73.37
-74.09
-70.68
-63.21
-52.70
-40.89
-29.79
-21.11
-15.87
-14.16
-15.36
-18.40
-22.20
-26.00
-29.55
-33.04
-36.82
-41.14
-45.87
-50.51
-54.40
-56.99
-58.08
-57.82
-56.61
-54.89
-53.03
-51.32
-50.02
-49.22
-48.79
-48.37
-47.44
-45.59
-42.79
-39.51
-36.55
-34.61
-33.88
-33.83
-33.28
-30.80
-25.22
-15.94
-3.07
12.69
30.35
48.78
66.94
83.97
99.24
112.33
122.96
131.00
136.36
139.05
139.27
137.47
134.27
130.31
126.04
121.58
116.73
111.13
104.52
96.82
88.18
78.77
68.75
58.21
47.26
36.18
25.50
15.94
8.28
3.17
0.89
1.29
3.87
7.86
12.46
16.88
20.31
21.84
20.58
15.87
7.69
-3.16
-15.10
-26.10
-34.26
-38.33
-37.91
-33.31
-25.39
-15.11
-3.46
8.65
20.46
31.35
40.89
48.80
54.76
58.31
58.72
55.25
47.51
35.82
21.38
6.09
-8.03
-19.39
-27.22
-31.56
-32.89
-31.79
-28.70
-24.04
-18.34
-12.30
-6.71
-2.13
1.20
3.35
4.37
4.19
2.61
-0.40
-4.40
-8.37
-10.99
-11.01
-7.74
-1.19
7.96
18.63
29.62
39.72
47.76
52.68
53.62
50.08
42.09
30.49
16.77
2.88
-9.18
-17.89
-22.43
-22.88
-19.89
-14.44
-7.51
0.05
7.48
13.99
18.66
20.52
18.71
12.67
2.46
-11.10
-26.38
-41.14
-53.01
-59.95
-60.75
-55.23
-44.21
-29.17
-11.89
5.87
22.56
36.85
47.56
53.68
54.49
49.91
40.75
28.82
16.68
7.07
2.14
2.76
8.37
17.22
27.10
36.06
42.89
47.08
48.54
47.08
42.32
33.85
21.70
6.68
-9.51
-24.64
-36.58
-43.94
-46.29
-44.09
-38.38
-30.35
-21.22
-12.18
-4.49
0.64
2.34
0.39
-4.48
-10.76
-16.49
-19.80
-19.47
-15.19
-7.53
2.30
12.92
23.04
31.69
38.14
41.79
42.02
38.31
30.52
19.17
5.64
-8.04
-19.57
-27.06
-29.41
-26.60
-19.46
-9.39
2.05
13.36
23.27
30.72
34.79
34.70
29.91
20.35
6.75
-9.24
-25.11
-37.95
-45.10
-44.98
-37.49
-24.11
-7.47
9.51
24.45
35.97
43.72
47.89
48.64
45.79
39.09
28.81
16.37
4.31
-4.43
-7.71
-5.16
1.72
10.29
18.05
23.55
26.51
27.06
24.93
19.19
8.74
-6.58
-25.20
-43.81
-58.37
-65.61
-64.24
-55.22
-41.13
-24.99
-9.16
5.12
17.70
28.97
39.35
48.82
56.75
62.00
63.29
59.67
51.02
38.32
23.52
9.12
-2.55
-9.82
-12.00
-9.26
-2.40
7.46
18.96
30.61
40.97
48.79
53.43
54.91
53.94
51.49
48.35
44.79
40.51
34.96
27.85
19.50
10.86
3.27
-2.05
-4.33
-3.41
0.40
6.66
15.02
25.32
37.45
51.11
65.73
80.44
94.33
106.63
116.95
125.21
131.53
136.04
138.83
139.94
139.52
137.82
135.15
131.64
127.09
120.88
112.19
100.35
85.22
67.32
47.74
27.74
8.46
-9.20
-24.51
-36.74
-45.35
-50.32
-52.46
-53.47
-55.34
-59.49
-66.11
-74.08
-81.63
-87.29
-90.54
-91.76
-91.77
-91.18
-90.20
-88.90
-87.54
-86.63
-86.63
-87.49
-88.42
-88.20
-85.68
-80.43
-72.91
-64.33
-56.23
-49.95
-46.26
-45.25
-46.38
-48.65
-50.95
-52.47
-53.00
-53.09
-53.78
-56.10
-60.54
-66.86
-74.10
-81.09
-86.92
-91.11
-93.66
-94.68
-94.15
-91.80
-87.32
-80.62
-72.09
-62.52
-52.81
-43.68
-35.39
-27.85
-20.82
-14.14
-7.89
-2.40
1.97
5.05
6.93
8.05
9.04
10.41
12.39
14.84
17.30
19.26
20.37
20.61
20.19
19.43
18.52
17.49
16.19
14.47
12.22
9.48
6.36
2.97
-0.67
-4.49
-8.33
-11.79
-14.33
-15.31
-14.32
-11.27
-6.56
-0.91
4.82
9.92
14.03
17.12
19.46
21.36
23.02
24.54
26.05
27.92
30.89
35.94
43.96
55.27
69.44
85.35
101.61
117.01
130.68
141.98
150.30
154.94
155.30
151.22
143.24
132.40
119.86
106.35
91.96
76.33
59.20
40.82
22.03
4.04
-12.04
-25.54
-36.39
-44.91
-51.59
-56.87
-61.02
-64.16
-66.38
-67.81
-68.57
-68.87
-68.82
-68.51
-67.98
-67.25
-66.40
-65.56
-64.86
-64.38
-64.08
-63.81
-63.33
-62.44
-61.05
-59.25
-57.27
-55.39
-53.81
-52.62
-51.76
-51.07
-50.39
-49.60
-48.66
-47.59
-46.41
-45.11
-43.65
-41.97
-40.01
-37.70
-35.02
-31.94
-28.51
-24.84
-21.08
-17.45
-14.11
-11.21
-8.79
-6.82
-5.22
-3.94
-2.94
-2.25
-1.87
-1.78
-1.86
-1.98
-2.03
-1.97
-1.82
-1.59
-1.30
-0.91
-0.42
0.16
0.68
0.99
0.96
0.54
-0.22
-1.20
-2.31
-3.52
-4.81
-6.22
-7.79
-9.53
-11.33
-13.02
-14.38
-15.17
-15.20
-14.30
-12.46
-9.83
-6.74
-3.71
-1.30
0.09
0.34
-0.28
-1.24
-2.01
-2.27
-1.98
-1.34
-0.61
0.13
0.90
1.79
2.81
3.85
4.73
5.32
5.61
5.68
5.65
5.56
5.38
5.02
4.43
3.64
2.75
1.88
1.10
0.35
-0.50
-1.59
-2.95
-4.44
-5.79
-6.69
-6.97
-6.62
-5.82
-4.86
-3.94
-3.16
-2.53
-1.96
-1.40
-0.84
-0.32
0.15
0.54
0.84
1.07
1.21
1.25
1.21
1.13
1.04
0.98
0.96
0.96
0.93
0.87
0.76
0.61
0.39
0.08
-0.33
-0.86
-1.48
-2.17
-2.88
-3.59
-4.31
-5.06
-5.85
-6.66
-7.33
-7.64
-7.32
-6.21
-4.31
-1.78
1.09
4.00
6.72
9.18
11.37
13.35
15.15
16.79
18.26
19.57
20.69
21.66
22.47
23.12
23.62
24.00
24.34
24.80
25.52
26.63
28.14
29.90
31.63
33.00
33.69
33.51
32.38
30.35
27.52
24.05
20.10
15.83
11.40
6.95
2.60
-1.54
-5.33
-8.60
-11.19
-12.97
-13.85
-13.82
-12.94
-11.36
-9.32
-7.16
-5.27
-4.01
-3.60
-4.07
-5.26
-6.96
-8.95
-11.09
-13.35
-15.72
-18.26
-20.91
-23.54
-25.93
-27.80
-28.94
-29.26
-28.87
-28.03
-27.07
-26.21
-25.58
-25.19
-24.99
-24.93
-24.98
-25.14
-25.44
-25.92
-26.62
-27.53
-28.55
-29.39
-29.63
-28.82
-26.68
-23.22
-18.74
-13.75
-8.74
-4.04
0.20
3.93
7.13
9.67
11.38
12.17
12.12
11.48
10.60
9.78
9.11
8.52
7.88
7.07
6.08
5.03
4.01
3.15
2.46
1.91
1.46
1.06
0.64
0.18
-0.39
-1.08
-1.88
-2.79
-3.78
-4.84
-5.93
-6.96
-7.83
-8.40
-8.58
-8.35
-7.67
-6.55
-4.94
-2.86
-0.39
2.28
4.87
7.10
8.80
9.92
10.57
10.88
10.95
10.83
10.55
10.19
9.87
9.74
9.85
10.18
10.54
10.67
10.37
9.57
8.32
6.82
5.33
4.04
3.06
2.34
1.71
0.94
-0.16
-1.67
-3.49
-5.37
-7.02
-8.17
-8.64
-8.38
-7.45
-5.98
-4.14
-2.09
0.02
2.06
3.96
5.64
7.06
8.14
8.78
8.93
8.62
7.99
7.28
6.70
6.40
6.34
6.38
6.29
5.92
5.22
4.27
3.15
1.99
0.76
-0.53
-1.93
-3.42
-4.98
-6.59
-8.25
-9.98
-11.83
-13.76
-15.70
-17.47
-18.87
-19.68
-19.69
-18.79
-16.97
-14.32
-11.07
-7.45
-3.76
-0.23
2.94
5.60
7.62
8.95
9.62
9.79
9.66
9.43
9.26
9.19
9.20
9.24
9.27
9.34
9.44
9.52
9.46
9.11
8.37
7.25
5.91
4.55
3.29
2.07
0.70
-1.09
-3.48
-6.45
-9.76
-13.02
-15.80
-17.74
-18.56
-18.12
-16.39
-13.48
-9.65
-5.28
-0.82
3.27
6.64
9.06
10.51
11.11
11.10
10.69
10.08
9.34
8.45
7.38
6.13
4.80
3.57
2.59
1.88
1.32
0.67
-0.29
-1.62
-3.27
-5.04
-6.80
-8.47
-10.05
-11.58
-13.09
-14.60
-16.21
-17.99
-19.96
-22.00
-23.80
-24.79
-24.39
-22.09
-17.67
-11.26
-3.41
5.11
13.37
20.54
26.04
29.64
31.47
31.94
31.53
30.69
29.67
28.60
27.52
26.41
25.25
24.02
22.65
21.08
19.25
17.18
14.89
12.48
10.03
7.55
4.97
2.14
-1.04
-4.57
-8.29
-11.97
-15.41
-18.54
-21.44
-24.34
-27.46
-30.87
-34.37
-37.51
-39.61
-39.99
-38.09
-33.74
-27.15
-18.97
-10.10
-1.49
6.10
12.18
16.61
19.52
21.17
21.91
22.06
21.88
21.57
21.25
20.92
20.53
19.94
19.08
17.95
16.69
15.49
14.53
13.85
13.36
12.81
11.94
10.57
8.65
6.23
3.39
0.18
-3.38
-7.27
-11.41
-15.68
-19.91
-23.89
-27.38
-30.04
-31.44
-31.17
-28.96
-24.84
-19.20
-12.72
-6.18
-0.23
4.72
8.54
11.29
13.05
13.89
13.92
13.27
12.26
11.26
10.63
10.54
10.94
11.60
12.24
12.67
12.83
12.76
12.58
12.33
12.04
11.73
11.39
11.07
10.78
10.50
10.16
9.72
9.11
8.28
7.13
5.59
3.66
1.47
-0.63
-2.20
-2.89
-2.53
-1.21
0.81
3.24
5.80
8.35
10.73
12.80
14.39
15.42
15.93
16.06
15.97
15.72
15.28
14.57
13.55
12.30
10.92
9.56
8.26
7.03
5.83
4.65
3.51
2.43
1.40
0.38
-0.65
-1.67
-2.62
-3.45
-4.13
-4.75
-5.46
-6.41
-7.73
-9.40
-11.23
-12.95
-14.18
-14.59
-14.03
-12.48
-10.13
-7.25
-4.11
-0.90
2.23
5.16
7.71
9.75
11.13
11.88
12.11
12.00
11.74
11.45
11.14
10.81
10.46
10.11
9.81
9.54
9.26
8.87
8.27
7.41
6.34
5.14
3.90
2.66
1.41
0.15
-1.09
-2.25
-3.26
-4.14
-4.99
-5.93
-7.03
-8.21
-9.20
-9.63
-9.21
-7.80
-5.50
-2.59
0.58
3.67
6.41
8.63
10.24
11.22
11.59
11.45
10.92
10.13
9.22
8.33
7.52
6.82
6.20
5.65
5.17
4.78
4.50
4.32
4.16
3.89
3.44
2.77
1.94
1.09
0.32
-0.32
-0.96
-1.76
-2.90
-4.41
-6.16
-7.83
-9.05
-9.55
-9.23
-8.18
-6.62
-4.76
-2.78
-0.78
1.20
3.10
4.87
6.46
7.82
8.88
9.53
9.68
9.26
8.34
7.09
5.76
4.56
3.57
2.76
1.99
1.16
0.16
-1.02
-2.34
-3.73
-5.09
-6.37
-7.58
-8.82
-10.30
-12.21
-14.66
-17.64
-20.97
-24.45
-27.90
-31.17
-34.12
-36.59
-38.38
-39.35
-39.46
-38.78
-37.40
-35.38
-32.68
-29.27
-25.18
-20.68
-16.19
-12.21
-9.15
-7.14
-6.06
-5.62
-5.48
-5.40
-5.20
-4.70
-3.66
-1.86
0.77
4.07
7.63
10.96
13.69
15.74
17.30
18.75
20.35
22.10
23.74
24.80
24.89
23.85
21.88
19.50
17.37
16.09
15.99
17.08
19.01
21.26
23.32
24.81
25.55
25.58
25.07
24.21
23.16
21.98
20.72
19.34
17.84
16.19
14.34
12.33
10.27
8.42
7.12
6.70
7.19
8.35
9.66
10.60
10.83
10.32
9.30
8.06
6.81
5.57
4.28
2.94
1.65
0.59
-0.01
0.04
0.83
2.38
4.65
7.52
10.76
14.06
17.09
19.58
21.40
22.55
23.08
23.04
22.43
21.26
19.59
17.60
15.51
13.56
11.89
10.47
9.20
7.91
6.45
4.71
2.66
0.36
-2.06
-4.36
-6.30
-7.74
-8.68
-9.36
-10.08
-11.13
-12.63
-14.51
-16.53
-18.35
-19.64
-20.14
-19.70
-18.29
-16.05
-13.26
-10.31
-7.53
-5.17
-3.30
-1.86
-0.77
-0.05
0.22
-0.04
-0.77
-1.80
-2.82
-3.60
-4.04
-4.21
-4.22
-4.10
-3.78
-3.09
-1.97
-0.57
0.78
1.67
1.79
1.06
-0.39
-2.31
-4.46
-6.66
-8.75
-10.51
-11.76
-12.30
-12.08
-11.21
-9.87
-8.26
-6.43
-4.36
-1.99
0.59
3.19
5.43
6.95
7.53
7.16
6.00
4.29
2.30
0.21
-1.85
-3.72
-5.28
-6.38
-6.94
-7.01
-6.78
-6.54
-6.57
-7.02
-7.91
-9.15
-10.68
-12.53
-14.83
-17.69
-21.00
-24.41
-27.34
-29.22
-29.65
-28.55
-26.16
-22.86
-19.05
-15.02
-10.98
-7.09
-3.53
-0.51
1.82
3.40
4.27
4.51
4.26
3.61
2.66
1.53
0.36
-0.73
-1.68
-2.49
-3.25
-4.04
-4.98
-6.10
-7.42
-8.96
-10.72
-12.70
-14.97
-17.63
-20.91
-25.02
-30.03
-35.66
-41.24
-45.76
-48.15
-47.63
-43.99
-37.70
-29.66
-20.96
-12.50
-4.85
1.75
7.25
11.65
14.90
16.90
17.63
17.16
15.74
13.72
11.51
9.53
8.16
7.68
8.24
9.74
11.80
13.80
15.02
14.88
13.04
9.55
4.72
-1.02
-7.28
-13.78
-20.38
-27.05
-33.78
-40.49
-46.96
-52.73
-57.11
-59.35
-58.86
-55.47
-49.55
-41.94
-33.65
-25.59
-18.37
-12.21
-7.10
-2.89
0.56
3.37
5.63
7.41
8.84
10.10
11.47
13.22
15.51
18.28
21.24
23.95
26.00
27.20
27.55
27.21
26.27
24.73
22.49
19.48
15.85
11.88
7.97
4.38
1.09
-2.22
-5.98
-10.49
-15.74
-21.27
-26.19
-29.45
-30.10
-27.61
-22.04
-14.05
-4.68
4.91
13.84
21.52
27.75
32.56
35.99
38.07
38.87
38.56
37.52
36.24
35.14
34.47
34.21
34.14
34.02
33.67
33.04
32.21
31.30
30.38
29.44
28.41
27.19
25.61
23.55
20.91
17.71
14.11
10.31
6.57
2.99
-0.46
-3.93
-7.63
-11.71
-16.18
-20.89
-25.49
-29.42
-31.95
-32.36
-30.10
-25.10
-17.76
-8.97
0.18
8.72
15.95
21.62
25.77
28.60
30.36
31.24
31.40
31.04
30.40
29.70
29.11
28.71
28.43
28.10
27.56
26.71
25.60
24.38
23.24
22.32
21.60
20.98
20.25
19.16
17.56
15.40
12.74
9.78
6.73
3.77
1.02
-1.56
-4.09
-6.76
-9.75
-13.20
-17.11
-21.30
-25.39
-28.74
-30.54
-30.10
-27.00
-21.40
-13.94
-5.66
2.39
9.40
14.97
19.04
21.75
23.29
23.85
23.61
22.88
22.00
21.37
21.21
21.55
22.18
22.77
23.00
22.73
22.00
21.02
19.98
19.01
18.10
17.13
15.96
14.49
12.70
10.66
8.46
6.19
3.90
1.60
-0.70
-2.97
-5.16
-7.30
-9.48
-11.86
-14.62
-17.88
-21.54
-25.31
-28.66
-30.98
-31.65
-30.25
-26.67
-21.18
-14.36
-7.04
-0.04
5.98
10.69
14.03
16.18
17.33
17.65
17.28
16.37
15.14
13.85
12.74
11.91
11.38
11.08
10.90
10.79
10.66
10.45
10.10
9.57
8.87
8.03
7.04
5.85
4.39
2.65
0.70
-1.29
-3.19
-4.96
-6.64
-8.35
-10.15
-12.03
-13.92
-15.81
-17.74
-19.85
-22.18
-24.57
-26.66
-27.91
-27.82
-26.04
-22.54
-17.58
-11.68
-5.46
0.49
5.67
9.79
12.75
14.64
15.62
15.92
15.73
15.19
14.46
13.66
12.90
12.29
11.83
11.50
11.17
10.76
10.23
9.63
9.04
8.53
8.07
7.55
6.82
5.77
4.37
2.68
0.82
-1.10
-2.98
-4.74
-6.33
-7.76
-9.08
-10.43
-11.94
-13.77
-15.92
-18.28
-20.57
-22.41
-23.36
-23.04
-21.19
-17.78
-13.05
-7.49
-1.76
3.53
7.91
11.20
13.43
14.77
15.38
15.33
14.66
13.44
11.84
10.06
8.37
6.93
5.81
4.96
4.31
3.79
3.31
2.83
2.28
1.58
0.70
-0.34
-1.47
-2.62
-3.75
-4.90
-6.13
-7.56
-9.22
-11.16
-13.31
-15.61
-17.98
-20.37
-22.75
-25.11
-27.43
-29.60
-31.48
-32.76
-33.07
-31.99
-29.21
-24.65
-18.56
-11.53
-4.30
2.43
8.16
12.63
15.83
17.80
18.62
18.42
17.47
16.14
14.85
13.95
13.54
13.52
13.65
13.73
13.65
13.46
13.23
13.02
12.79
12.43
11.76
10.62
8.90
6.54
3.56
0.10
-3.66
-7.47
-11.13
-14.56
-17.80
-21.09
-24.66
-28.64
-32.90
-36.95
-40.06
-41.42
-40.37
-36.69
-30.59
-22.72
-13.96
-5.22
2.69
9.24
14.16
17.45
19.32
20.07
20.03
19.49
18.61
17.52
16.24
14.83
13.38
11.98
10.74
9.72
8.94
8.37
7.97
7.65
7.27
6.68
5.66
4.04
1.73
-1.16
-4.33
-7.40
-10.02
-12.08
-13.76
-15.46
-17.64
-20.59
-24.24
-28.16
-31.62
-33.83
-34.11
-32.07
-27.74
-21.57
-14.33
-6.90
-0.07
5.65
10.05
13.21
15.30
16.50
16.97
16.85
16.31
15.52
14.64
13.72
12.73
11.56
10.14
8.47
6.70
5.00
3.57
2.47
1.62
0.80
-0.24
-1.67
-3.49
-5.51
-7.49
-9.29
-10.93
-12.62
-14.69
-17.39
-20.76
-24.59
-28.43
-31.71
-33.78
-34.04
-32.08
-27.74
-21.25
-13.23
-4.55
3.83
11.08
16.70
20.53
22.71
23.55
23.41
22.62
21.43
20.05
18.65
17.34
16.20
15.23
14.44
13.80
13.32
12.94
12.61
12.21
11.59
10.59
9.08
7.05
4.61
1.93
-0.79
-3.43
-5.93
-8.39
-10.99
-13.92
-17.32
-21.13
-25.01
-28.32
-30.24
-30.01
-27.19
-21.84
-14.54
-6.23
2.10
9.62
15.84
20.58
23.88
25.85
26.67
26.49
25.54
24.05
22.27
20.41
18.61
16.92
15.35
13.89
12.52
11.24
10.03
8.84
7.53
5.95
3.96
1.50
-1.37
-4.45
-7.48
-10.19
-12.45
-14.33
-16.08
-18.05
-20.53
-23.57
-26.92
-30.02
-32.15
-32.65
-31.08
-27.34
-21.66
-14.54
-6.62
1.42
8.92
15.32
20.21
23.45
25.14
25.58
25.20
24.41
23.53
22.72
22.02
21.37
20.71
19.98
19.14
18.19
17.14
16.07
15.02
14.00
12.98
11.93
10.78
9.55
8.22
6.74
5.03
2.95
0.44
-2.47
-5.60
-8.73
-11.62
-14.06
-15.86
-16.71
-16.22
-13.97
-9.70
-3.48
4.20
12.52
20.57
27.53
32.81
36.07
37.19
36.17
33.17
28.57
23.01
17.27
12.20
8.42
6.22
5.53
5.99
7.11
8.46
9.68
10.54
10.92
10.78
10.18
9.24
8.19
7.18
6.27
5.28
3.83
1.45
-2.26
-7.35
-13.49
-19.98
-25.98
-30.74
-33.82
-35.11
-34.82
-33.28
-30.89
-28.02
-25.04
-22.29
-20.12
-18.78
-18.38
-18.89
-20.11
-21.80
-23.68
-25.57
-27.32
-28.79
-29.87
-30.47
-30.49
-29.91
-28.73
-26.99
-24.72
-22.01
-19.04
-16.11
-13.59
-11.76
-10.69
-10.23
-10.08
-10.06
-10.23
-10.95
-12.61
-15.44
-19.16
-23.02
-26.02
-27.19
-25.92
-22.14
-16.20
-8.80
-0.73
7.21
14.37
20.25
24.58
27.24
28.32
28.03
26.65
24.52
21.91
19.14
16.47
14.17
12.43
11.26
10.54
10.01
9.37
8.43
7.11
5.49
3.65
1.72
-0.29
-2.39
-4.67
-7.19
-10.04
-13.32
-17.12
-21.46
-26.19
-30.89
-34.84
-37.13
-36.86
-33.49
-27.04
-18.13
-7.88
2.41
11.60
18.96
24.22
27.49
29.08
29.36
28.67
27.36
25.74
24.03
22.41
20.90
19.46
17.99
16.47
14.94
13.48
12.14
10.83
9.43
7.73
5.60
3.05
0.18
-2.84
-5.87
-8.87
-11.91
-15.18
-18.87
-23.07
-27.70
-32.36
-36.35
-38.79
-38.84
-35.95
-30.06
-21.74
-11.97
-1.93
7.35
15.19
21.33
25.78
28.67
30.17
30.40
29.58
28.02
26.16
24.43
23.12
22.32
21.87
21.52
21.05
20.33
19.37
18.17
16.71
14.90
12.65
9.92
6.78
3.38
-0.11
-3.59
-7.17
-11.05
-15.52
-20.72
-26.51
-32.30
-37.18
-40.08
-40.06
-36.63
-29.89
-20.57
-9.77
1.25
11.40
19.85
26.18
30.36
32.60
33.38
33.18
32.49
31.60
30.62
29.49
28.06
26.23
23.99
21.46
18.82
16.24
13.78
11.41
9.03
6.49
3.65
0.48
-2.99
-6.65
-10.36
-14.03
-17.66
-21.38
-25.41
-29.94
-34.98
-40.22
-45.00
-48.35
-49.28
-47.02
-41.31
-32.59
-21.84
-10.37
0.56
10.02
17.52
22.99
26.58
28.52
29.08
28.52
27.19
25.48
23.70
22.08
20.63
19.34
18.18
17.22
16.53
16.16
15.97
15.68
14.99
13.69
11.77
9.36
6.61
3.55
0.06
-4.02
-8.88
-14.61
-21.25
-28.79
-37.11
-45.83
-54.26
-61.35
-65.85
-66.70
-63.37
-56.04
-45.60
-33.31
-20.44
-7.93
3.57
13.66
22.00
28.22
32.07
33.52
32.92
30.95
28.39
25.93
23.97
22.59
21.68
21.09
20.76
20.68
20.85
21.18
21.45
21.34
20.53
18.83
16.30
13.16
9.76
6.36
3.06
-0.22
-3.74
-7.76
-12.48
-17.98
-24.11
-30.49
-36.41
-40.90
-42.93
-41.67
-36.79
-28.63
-18.16
-6.73
4.32
13.93
21.54
26.95
30.27
31.68
31.42
29.78
27.14
23.98
20.82
18.05
15.88
14.27
13.00
11.84
10.63
9.35
8.09
6.85
5.50
3.72
1.15
-2.42
-6.91
-11.92
-16.94
-21.57
-25.74
-29.71
-33.99
-39.07
-45.31
-52.73
-60.98
-69.31
-76.69
-81.97
-84.15
-82.69
-77.67
-69.76
-59.98
-49.42
-38.90
-28.87
-19.50
-10.81
-2.91
3.89
9.14
12.36
13.31
12.19
9.67
6.78
4.61
3.93
5.00
7.58
11.09
14.81
18.09
20.42
21.42
20.84
18.64
15.00
10.42
5.54
0.99
-2.81
-5.85
-8.49
-11.28
-14.63
-18.49
-22.20
-24.52
-24.04
-19.67
-11.05
1.25
15.87
31.13
45.37
57.34
66.30
71.99
74.54
74.31
71.82
67.72
62.67
57.28
52.04
47.26
43.09
39.60
36.73
34.45
32.65
31.19
29.90
28.52
26.78
24.45
21.41
17.71
13.50
9.06
4.64
0.40
-3.72
-7.97
-12.77
-18.56
-25.55
-33.52
-41.71
-48.87
-53.61
-54.85
-52.13
-45.82
-36.93
-26.82
-16.77
-7.70
-0.12
5.85
10.29
13.36
15.32
16.47
17.23
18.06
19.38
21.46
24.41
28.20
32.67
37.64
42.93
48.37
53.73
58.74
63.15
66.82
69.73
71.93
73.35
73.76
72.76
69.91
64.96
57.93
49.09
38.80
27.41
15.27
2.92
-8.76
-18.54
-25.09
-27.43
-25.42
-19.90
-12.44
-4.82
1.61
6.18
8.90
10.09
10.03
8.79
6.33
2.80
-1.37
-5.45
-8.80
-11.08
-12.42
-13.22
-13.98
-14.97
-16.29
-17.95
-19.94
-22.33
-25.14
-28.28
-31.54
-34.70
-37.63
-40.34
-42.90
-45.41
-47.92
-50.54
-53.48
-56.97
-61.02
-65.15
-68.30
-69.03
-66.02
-58.61
-47.11
-32.77
-17.33
-2.48
10.54
21.09
29.03
34.51
37.78
39.07
38.66
36.89
34.24
31.33
28.80
27.20
26.91
28.01
30.26
33.23
36.33
39.01
40.81
41.50
40.98
39.26
36.42
32.56
27.85
22.50
16.73
10.67
4.29
-2.59
-10.14
-18.29
-26.47
-33.62
-38.42
-39.69
-36.88
-30.26
-20.90
-10.33
-0.04
8.80
15.56
20.10
22.55
23.20
22.33
20.18
17.05
13.31
9.41
5.87
3.17
1.57
1.11
1.58
2.63
3.85
4.88
5.49
5.54
5.00
3.85
2.13
-0.12
-2.79
-5.79
-9.04
-12.57
-16.55
-21.18
-26.59
-32.55
-38.35
-42.90
-44.97
-43.61
-38.49
-30.11
-19.63
-8.54
1.79
10.38
16.81
21.03
23.21
23.56
22.27
19.56
15.77
11.39
6.99
3.11
0.07
-2.05
-3.43
-4.30
-4.83
-5.14
-5.26
-5.28
-5.41
-5.97
-7.21
-9.27
-12.05
-15.33
-18.82
-22.33
-25.82
-29.35
-32.97
-36.56
-39.69
-41.64
-41.50
-38.44
-32.01
-22.40
-10.44
2.61
15.40
26.85
36.33
43.60
48.70
51.74
52.88
52.36
50.53
47.83
44.74
41.71
39.12
37.28
36.40
36.50
37.42
38.74
39.90
40.37
39.74
37.79
34.49
29.95
24.40
18.17
11.75
5.68
0.38
-4.01
-7.76
-11.37
-15.32
-19.70
-24.04
-27.39
-28.63
-26.98
-22.28
-15.10
-6.58
2.01
9.54
15.34
19.16
21.08
21.31
20.05
17.47
13.72
9.04
3.81
-1.54
-6.53
-10.85
-14.40
-17.31
-19.86
-22.30
-24.72
-27.02
-28.99
-30.45
-31.42
-32.08
-32.79
-33.88
-35.61
-38.12
-41.45
-45.62
-50.46
-55.61
-60.34
-63.65
-64.50
-62.13
-56.41
-47.94
-37.86
-27.50
-18.06
-10.27
-4.44
-0.57
1.53
2.03
1.03
-1.35
-4.91
-9.32
-14.07
-18.61
-22.44
-25.32
-27.25
-28.49
-29.33
-29.97
-30.40
-30.44
-29.92
-28.72
-26.88
-24.51
-21.67
-18.35
-14.62
-10.67
-6.93
-3.85
-1.69
-0.19
1.39
4.12
8.91
16.12
25.37
35.69
45.89
54.93
62.21
67.51
70.89
72.48
72.40
70.76
67.71
63.49
58.45
52.98
47.48
42.23
37.41
32.98
28.76
24.47
19.88
14.93
9.72
4.46
-0.65
-5.58
-10.42
-15.38
-20.61
-26.18
-32.08
-38.24
-44.57
-50.85
-56.57
-60.92
-62.87
-61.60
-56.77
-48.75
-38.60
-27.66
-17.20
-8.08
-0.68
4.98
9.02
11.52
12.50
12.06
10.51
8.42
6.54
5.59
5.99
7.71
10.35
13.24
15.73
17.36
17.96
17.61
16.51
14.89
12.99
10.93
8.80
6.52
3.90
0.65
-3.58
-9.04
-15.76
-23.38
-31.09
-37.78
-42.29
-43.83
-42.31
-38.31
-32.84
-26.93
-21.23
-15.98
-11.20
-7.02
-3.86
-2.34
-2.85
-5.26
-8.79
-12.25
-14.55
-15.09
-13.92
-11.64
-8.99
-6.61
-4.85
-3.75
-3.22
-3.17
-3.60
-4.52
-6.01
-8.06
-10.66
-13.87
-17.85
-22.84
-29.00
-36.09
-43.30
-49.26
-52.36
-51.31
-45.59
-35.76
-23.33
-10.21
1.81
11.61
18.76
23.46
26.11
27.08
26.55
24.62
21.45
17.46
13.28
9.65
7.12
5.86
5.52
5.46
4.92
3.39
0.70
-3.03
-7.53
-12.62
-18.27
-24.57
-31.60
-39.39
-47.91
-57.16
-67.24
-78.16
-89.66
-100.92
-110.53
-116.78
-118.12
-113.78
-104.04
-90.16
-74.02
-57.55
-42.31
-29.19
-18.42
-9.70
-2.45
4.01
10.20
16.39
22.67
29.12
35.98
43.68
52.76
63.49
75.67
88.53
100.94
111.81
120.49
127.04
132.13
136.76
141.87
147.95
154.84
161.68
167.12
169.56
167.56
160.26
147.74
131.19
112.66
94.62
79.30
68.16
61.67
59.43
60.45
63.53
67.60
71.88
76.17
80.78
86.23
92.62
99.09
103.68
103.87
97.73
84.93
67.25
47.88
30.10
16.14
6.67
1.43
0.19
3.40
11.75
25.00
40.94
55.39
63.55
62.07
50.52
31.68
10.07
-10.20
-27.39
-42.47
-57.93
-75.70
-95.53
-114.56
-128.58
-134.05
-129.87
-118.00
-102.56
-88.05
-77.58
-72.09
-70.60
-71.49
-73.57
-76.59
-80.83
-86.31
-92.18
-96.81
-98.49
-96.31
-90.67
-83.19
-76.01
-71.01
-69.14
-70.34
-73.76
-78.20
-82.64
-86.50
-89.78
-93.05
-97.45
-104.49
-115.85
-132.98
-156.68
-186.47
-220.18
-253.71
-281.53
-297.80
-297.92
-280.05
-245.83
-199.87
-148.40
-97.33
-50.90
-11.16
21.63
48.04
68.75
84.24
94.95
101.57
105.06
106.38
106.22
104.92
102.60
99.44
95.87
92.46
89.64
87.57
86.04
84.69
83.18
81.31
78.96
76.05
72.44
68.00
62.66
56.43
49.28
41.03
31.35
20.08
7.56
-5.07
-15.94
-22.92
-24.32
-19.53
-9.26
4.69
20.02
34.62
47.03
56.56
63.17
67.15
68.83
68.50
66.43
62.95
58.48
53.52
48.59
44.08
40.27
37.29
35.15
33.79
33.06
32.73
32.49
31.99
30.88
28.91
25.98
22.16
17.70
12.87
7.89
2.84
-2.52
-8.56
-15.64
-23.79
-32.40
-40.22
-45.52
-46.67
-42.61
-33.32
-19.77
-3.68
13.02
28.64
42.05
52.70
60.51
65.68
68.52
69.37
68.62
66.74
64.24
61.73
59.71
58.55
58.37
59.07
60.41
62.08
63.87
65.68
67.56
69.56
71.61
73.49
74.78
74.99
73.68
70.50
65.13
57.12
45.92
31.14
12.96
-7.49
-28.08
-46.26
-59.85
-67.82
-70.56
-69.54
-66.53
-62.82
-58.88
-54.52
-49.40
-43.46
-37.21
-31.52
-27.33
-25.26
-25.38
-27.24
-29.99
-32.65
-34.47
-35.04
-34.39
-32.81
-30.74
-28.54
-26.47
-24.64
-22.95
-21.17
-18.91
-15.76
-11.39
-5.85
0.40
6.42
11.04
13.14
12.00
7.59
0.64
-7.43
-14.93
-20.25
-22.32
-20.84
-16.21
-9.39
-1.57
6.04
12.45
16.93
19.15
19.19
17.43
14.45
10.81
6.96
3.22
-0.12
-2.73
-4.15
-4.00
-2.08
1.47
6.18
11.33
16.09
19.69
21.51
21.19
18.65
14.11
8.02
0.94
-6.59
-14.13
-21.48
-28.64
-35.74
-42.86
-49.79
-55.83
-59.92
-60.78
-57.39
-49.33
-36.88
-20.94
-2.74
16.48
35.59
53.67
69.93
83.80
94.92
103.27
109.06
112.61
114.26
114.28
112.94
110.56
107.52
104.15
100.65
97.01
92.98
88.21
82.37
75.31
67.08
58.01
48.67
39.79
32.11
26.26
22.49
20.68
20.34
20.74
21.05
20.58
18.88
15.96
12.34
9.06
7.36
8.39
12.74
20.14
29.52
39.35
48.12
54.80
59.05
61.08
61.32
60.17
57.81
54.24
49.40
43.33
36.14
28.00
19.04
9.27
-1.37
-12.97
-25.55
-39.06
-53.34
-68.10
-82.99
-97.57
-111.42
-124.09
-135.29
-144.85
-152.89
-159.78
-166.20
-172.94
-180.74
-189.93
-200.21
-210.55
-219.39
-224.97
-225.83
-221.27
-211.52
-197.69
-181.45
-164.50
-148.19
-133.20
-119.62
-107.14
-95.40
-84.23
-73.64
-63.81
-54.82
-46.59
-38.83
-31.16
-23.30
-15.17
-6.92
1.14
8.64
15.27
20.88
25.49
29.24
32.34
34.88
36.81
37.86
37.69
35.94
32.37
26.94
19.85
11.65
3.24
-4.09
-8.93
-9.97
-6.53
1.28
12.52
25.68
39.14
51.48
61.75
69.42
74.31
76.44
76.03
73.42
69.17
63.90
58.28
52.85
47.99
43.94
40.75
38.40
36.79
35.75
35.07
34.43
33.42
31.61
28.68
24.54
19.42
13.77
8.17
3.02
-1.63
-6.20
-11.43
-18.07
-26.38
-35.80
-44.83
-51.39
-53.52
-50.13
-41.42
-28.89
-14.67
-0.77
11.57
22.07
31.09
39.04
45.84
50.83
52.97
51.45
46.25
38.40
29.80
22.64
18.56
18.01
19.95
22.15
21.95
17.20
7.10
-7.43
-23.77
-38.23
-47.28
-48.79
-43.11
-33.31
-24.22
-20.80
-26.14
-40.05
-58.91
-76.64
-86.65
-83.96
-66.86
-37.45
-0.87
36.34
68.49
92.41
108.13
118.25
126.20
134.46
143.46
151.71
157.08
158.14
155.16
149.90
144.68
140.97
138.55
135.67
129.86
119.25
103.55
84.04
62.93
42.24
22.93
4.89
-12.47
-29.42
-45.37
-59.02
-69.13
-75.33
-78.52
-80.61
-83.72
-89.18
-96.89
-105.20
-111.54
-113.40
-109.26
-99.16
-84.61
-67.94
-51.52
-37.01
-25.06
-15.55
-7.92
-1.75
3.05
6.25
7.48
6.67
4.12
0.64
-2.71
-4.96
-5.52
-4.32
-1.81
1.28
4.19
6.31
7.36
7.35
6.46
4.95
3.03
0.78
-1.87
-5.07
-9.01
-13.83
-19.60
-26.24
-33.37
-40.26
-45.83
-48.81
-48.07
-43.06
-33.99
-21.91
-8.36
5.05
16.92
26.38
33.02
36.83
38.06
37.10
34.51
30.87
26.75
22.65
18.88
15.66
13.10
11.27
10.18
9.77
9.87
10.17
10.27
9.80
8.54
6.45
3.66
0.36
-3.28
-7.18
-11.39
-15.98
-21.05
-26.66
-32.77
-39.06
-44.87
-49.20
-50.89
-48.99
-43.12
-33.74
-22.02
-9.56
2.14
12.02
19.65
25.09
28.62
30.52
30.98
30.08
27.96
24.88
21.26
17.57
14.24
11.52
9.43
7.85
6.53
5.25
3.82
2.12
0.06
-2.45
-5.51
-9.19
-13.47
-18.22
-23.16
-28.02
-32.62
-37.08
-41.76
-47.17
-53.57
-60.66
-67.41
-72.25
-73.60
-70.49
-62.92
-51.93
-39.16
-26.37
-14.94
-5.65
1.24
5.83
8.40
9.32
9.06
8.12
7.02
6.23
6.10
6.84
8.56
11.16
14.40
17.81
20.89
23.19
24.49
24.84
24.46
23.66
22.57
21.19
19.33
16.77
13.37
9.00
3.60
-2.93
-10.52
-18.81
-26.95
-33.57
-37.20
-36.62
-31.47
-22.31
-10.54
2.07
13.94
23.97
31.66
36.95
39.93
40.71
39.39
36.14
31.36
25.72
20.03
15.12
11.54
9.48
8.76
8.95
9.57
10.26
10.88
11.50
12.28
13.37
14.79
16.36
17.80
18.84
19.37
19.53
19.59
19.79
20.21
20.82
21.70
23.34
26.66
32.84
42.90
57.33
75.99
98.23
123.16
149.66
176.17
200.51
219.84
231.12
232.00
221.55
200.68
171.83
138.18
102.89
68.59
37.20
10.03
-12.11
-28.99
-41.01
-49.26
-55.20
-60.30
-65.67
-71.94
-79.27
-87.52
-96.39
-105.43
-114.11
-121.89
-128.42
-133.51
-137.07
-138.84
-138.23
-134.39
-126.60
-114.79
-99.87
-83.66
-68.26
-55.37
-45.78
-39.26
-35.00
-32.22
-30.63
-30.47
-32.30
-36.49
-42.93
-50.86
-59.17
-66.72
-72.72
-76.93
-79.53
-81.02
-81.89
-82.48
-82.96
-83.34
-83.65
-83.89
-84.17
-84.62
-85.46
-86.87
-89.05
-92.02
-95.43
-98.46
-99.70
-97.48
-90.29
-77.37
-59.04
-36.73
-12.68
10.66
31.13
47.29
58.43
64.54
66.06
63.80
58.74
52.04
44.83
38.15
32.73
28.94
26.73
25.63
24.96
24.03
22.31
19.70
16.42
12.98
9.87
7.35
5.39
3.64
1.65
-1.02
-4.64
-9.23
-14.61
-20.34
-25.75
-29.99
-32.18
-31.61
-27.95
-21.43
-12.75
-2.95
6.92
16.03
23.78
29.83
33.94
35.92
35.67
33.34
29.41
24.68
20.06
16.34
13.99
12.99
12.99
13.48
14.04
14.46
14.73
14.91
15.00
14.88
14.29
12.98
10.81
7.77
3.97
-0.40
-5.06
-9.62
-13.60
-16.46
-17.71
-17.10
-14.58
-10.36
-4.73
1.97
9.38
17.08
24.49
30.92
35.66
38.21
38.42
36.61
33.42
29.65
26.02
23.03
20.90
19.56
18.77
18.22
17.69
17.05
16.33
15.64
15.03
14.43
13.64
12.31
10.05
6.58
1.79
-4.05
-10.28
-15.86
-19.60
-20.48
-18.02
-12.41
-4.51
4.53
13.59
21.90
29.04
34.75
38.81
40.92
40.86
38.70
34.91
30.31
25.83
22.20
19.78
18.50
17.98
17.72
17.29
16.44
15.17
13.61
11.97
10.34
8.63
6.59
3.89
0.27
-4.35
-9.85
-15.86
-21.75
-26.69
-29.72
-29.99
-27.01
-20.89
-12.36
-2.59
7.15
15.90
23.11
28.59
32.31
34.24
34.32
32.63
29.51
25.60
21.69
18.49
16.37
15.33
15.03
15.02
14.89
14.44
13.65
12.61
11.41
10.10
8.61
6.85
4.72
2.12
-1.02
-4.72
-8.98
-13.66
-18.33
-22.25
-24.41
-23.85
-19.98
-12.90
-3.41
7.21
17.63
26.82
34.24
39.79
43.59
45.79
46.52
45.90
44.19
41.80
39.20
36.79
34.78
33.18
31.82
30.50
29.10
27.64
26.17
24.80
23.58
22.44
21.29
19.98
18.41
16.51
14.20
11.39
7.88
3.49
-1.79
-7.70
-13.55
-18.35
-21.05
-20.90
-17.72
-11.95
-4.50
3.57
11.34
18.19
23.70
27.54
29.33
28.77
25.82
20.88
14.80
8.67
3.49
-0.22
-2.41
-3.45
-3.80
-3.87
-3.85
-3.87
-4.06
-4.61
-5.72
-7.52
-9.99
-12.99
-16.35
-19.88
-23.48
-27.07
-30.53
-33.73
-36.59
-39.11
-41.47
-43.97
-46.83
-49.97
-52.86
-54.59
-54.11
-50.64
-44.01
-34.75
-23.91
-12.73
-2.26
6.83
14.26
19.94
23.87
26.01
26.44
25.43
23.46
21.18
19.17
17.76
17.03
16.79
16.76
16.74
16.64
16.52
16.39
16.20
15.79
14.92
13.39
11.12
8.13
4.62
0.86
-2.89
-6.43
-9.70
-12.74
-15.78
-19.06
-22.87
-27.33
-32.30
-37.27
-41.38
-43.69
-43.40
-40.25
-34.59
-27.31
-19.55
-12.36
-6.44
-2.10
0.66
1.97
2.07
1.25
-0.11
-1.60
-2.78
-3.35
-3.19
-2.31
-0.83
1.09
3.24
5.47
7.58
9.50
11.14
12.49
13.51
14.12
14.22
13.75
12.77
11.50
10.21
9.18
8.49
8.01
7.38
6.18
4.01
0.74
-3.42
-7.93
-11.95
-14.59
-15.14
-13.30
-9.31
-3.77
2.53
8.83
14.56
19.39
23.10
25.53
26.59
26.24
24.62
22.04
18.89
15.59
12.43
9.58
7.12
5.10
3.55
2.47
1.83
1.48
1.18
0.65
-0.34
-1.92
-4.08
-6.66
-9.48
-12.39
-15.32
-18.27
-21.26
-24.36
-27.62
-31.14
-35.03
-39.27
-43.60
-47.41
-49.83
-49.93
-47.10
-41.32
-33.21
-23.86
-14.43
-5.84
1.36
7.02
11.16
13.87
15.24
15.38
14.52
12.98
11.13
9.35
7.87
6.80
6.07
5.57
5.16
4.80
4.46
4.17
3.87
3.43
2.65
1.40
-0.37
-2.60
-5.10
-7.75
-10.48
-13.39
-16.65
-20.47
-24.94
-29.94
-35.02
-39.45
-42.37
-42.94
-40.68
-35.56
-28.10
-19.18
-9.83
-0.96
6.78
13.03
17.68
20.76
22.41
22.77
22.06
20.50
18.35
15.87
13.36
11.12
9.41
8.37
8.01
8.18
8.56
8.84
8.72
8.07
6.90
5.32
3.47
1.45
-0.73
-3.09
-5.68
-8.56
-11.86
-15.72
-20.24
-25.24
-30.19
-34.14
-36.01
-34.90
-30.48
-23.15
-13.89
-3.92
5.70
14.27
21.46
27.12
31.13
33.34
33.69
32.32
29.67
26.32
22.89
19.86
17.46
15.73
14.57
13.84
13.41
13.07
12.61
11.76
10.36
8.33
5.77
2.86
-0.21
-3.36
-6.62
-10.10
-13.97
-18.37
-23.35
-28.80
-34.31
-39.21
-42.56
-43.42
-41.14
-35.59
-27.30
-17.30
-6.81
3.03
11.43
18.01
22.65
25.45
26.52
26.05
24.24
21.42
18.05
14.62
11.65
9.47
8.20
7.72
7.71
7.82
7.75
7.38
6.68
5.70
4.49
3.04
1.29
-0.82
-3.34
-6.31
-9.81
-13.91
-18.60
-23.68
-28.62
-32.59
-34.60
-33.85
-29.99
-23.31
-14.66
-5.17
4.06
12.24
18.91
23.90
27.15
28.64
28.45
26.80
24.06
20.78
17.51
14.74
12.75
11.66
11.36
11.65
12.23
12.87
13.38
13.65
13.63
13.29
12.61
11.58
10.17
8.37
6.09
3.18
-0.53
-5.09
-10.24
-15.28
-19.11
-20.54
-18.63
-13.09
-4.47
5.94
16.38
25.01
30.24
31.04
27.06
18.64
6.78
-7.04
-21.11
-33.72
-43.49
-49.56
-51.72
-50.35
-46.26
-40.51
-34.14
-28.01
-22.66
-18.38
-15.20
-12.99
-11.61
-10.91
-10.76
-11.07
-11.84
-13.16
-15.17
-17.92
-21.20
-24.39
-26.51
-26.36
-23.01
-16.10
-6.06
6.08
19.01
31.61
43.16
53.33
61.94
68.76
73.45
75.73
75.58
73.38
69.88
65.95
62.37
59.68
58.12
57.71
58.38
60.00
62.44
65.61
69.45
73.98
79.27
85.30
91.84
98.20
103.16
105.18
102.82
95.35
83.19
67.85
51.34
35.42
21.01
8.21
-3.18
-13.02
-20.47
-24.26
-23.35
-17.49
-7.48
5.13
18.42
30.55
39.94
45.36
46.10
42.17
34.35
24.06
12.84
1.81
-8.58
-18.54
-28.44
-38.40
-48.04
-56.65
-63.50
-68.25
-71.15
-72.94
-74.66
-77.28
-81.40
-87.09
-93.83
-100.65
-106.35
-109.76
-109.98
-106.54
-99.45
-89.14
-76.44
-62.46
-48.49
-35.82
-25.58
-18.48
-14.66
-13.59
-14.24
-15.28
-15.54
-14.35
-11.59
-7.72
-3.44
0.61
4.17
7.46
11.06
15.59
21.35
28.08
34.95
40.78
44.42
45.15
42.87
38.11
31.94
25.80
21.24
19.64
21.80
27.59
35.83
44.47
51.17
53.97
51.87
44.90
33.89
20.00
4.24
-12.62
-29.88
-46.69
-61.97
-74.50
-83.36
-88.29
-89.85
-89.19
-87.59
-86.11
-85.27
-85.18
-85.81
-87.22
-89.66
-93.41
-98.62
-105.23
-112.94
-121.32
-129.72
-137.25
-142.67
-144.53
-141.55
-133.07
-119.46
-102.12
-83.14
-64.69
-48.41
-35.02
-24.27
-15.23
-6.85
1.73
10.85
20.45
30.21
39.83
49.14
58.09
66.63
74.57
81.62
87.37
91.48
93.80
94.42
93.53
91.34
87.93
83.17
76.72
68.24
57.44
44.33
29.21
12.72
-4.33
-20.91
-35.90
-48.17
-56.80
-61.36
-62.18
-60.37
-57.58
-55.39
-54.90
-56.35
-59.24
-62.63
-65.52
-67.16
-67.06
-64.85
-60.30
-53.25
-43.84
-32.57
-20.37
-8.39
2.21
10.53
16.10
18.82
18.90
16.67
12.51
6.94
0.75
-4.97
-8.94
-10.15
-8.23
-3.65
2.46
8.91
15.07
21.25
28.51
38.00
50.31
65.00
80.78
95.99
109.31
120.14
128.52
134.78
138.97
140.62
138.91
133.22
123.65
111.24
97.80
85.26
74.96
67.22
61.34
56.09
50.26
43.17
34.80
25.67
16.47
7.85
0.14
-6.68
-12.91
-19.00
-25.45
-32.61
-40.75
-50.07
-60.62
-72.26
-84.33
-95.59
-104.37
-109.03
-108.60
-103.19
-93.99
-82.74
-70.95
-59.35
-47.72
-35.25
-21.26
-5.67
10.76
26.65
40.52
51.21
58.27
61.91
62.86
62.10
60.48
58.51
56.22
53.19
48.64
41.68
31.59
18.04
1.28
-17.79
-37.69
-56.64
-72.85
-84.93
-92.12
-94.47
-92.74
-88.22
-82.27
-75.99
-69.90
-63.89
-57.31
-49.27
-39.00
-26.12
-10.65
7.02
26.38
46.85
67.69
87.85
105.77
119.45
127.02
127.34
120.71
109.06
95.51
83.44
75.37
72.27
73.49
77.33
81.84
85.52
87.55
87.56
85.42
80.96
74.17
65.32
55.20
44.84
35.18
26.64
18.97
11.37
2.93
-7.04
-18.70
-31.76
-45.54
-59.09
-71.32
-81.07
-87.29
-89.40
-87.53
-82.57
-75.86
-68.69
-61.89
-55.64
-49.71
-43.92
-38.47
-34.00
-31.26
-30.67
-31.99
-34.38
-36.76
-38.29
-38.76
-38.55
-38.40
-38.98
-40.65
-43.54
-47.69
-53.35
-60.94
-70.84
-83.09
-97.24
-112.43
-127.62
-141.91
-154.59
-165.14
-173.08
-177.94
-179.22
-176.48
-169.38
-157.63
-141.02
-119.59
-93.78
-64.62
-33.58
-2.45
27.13
53.83
76.70
95.18
108.91
117.86
122.25
122.76
120.30
115.98
110.75
105.29
100.03
95.22
91.10
87.87
85.71
84.51
83.97
83.54
82.71
81.15
78.92
76.33
73.76
71.46
69.28
66.78
63.35
58.50
52.07
44.35
36.06
28.27
22.17
18.81
18.79
22.10
27.99
35.21
42.29
47.99
51.65
53.23
53.17
52.07
50.33
48.06
45.15
41.55
37.43
33.28
29.67
27.00
25.23
23.87
22.16
19.42
15.32
10.00
3.97
-2.18
-8.08
-13.69
-19.25
-25.02
-31.01
-36.89
-41.98
-45.51
-46.83
-45.60
-41.71
-35.22
-26.34
-15.54
-3.71
7.86
17.70
24.69
28.43
29.47
28.92
27.99
27.32
26.86
26.03
24.23
21.31
17.68
14.14
11.40
9.70
8.82
8.29
7.84
7.64
8.34
10.66
14.95
20.88
27.60
34.17
40.02
45.25
50.43
56.06
62.15
67.93
72.15
73.57
71.54
66.28
58.88
51.02
44.54
41.04
41.58
46.32
54.35
63.77
72.03
76.73
76.35
70.72
60.95
48.77
35.80
22.98
10.53
-1.69
-13.64
-24.81
-34.47
-42.04
-47.60
-51.93
-56.17
-61.37
-67.90
-75.34
-82.68
-88.80
-92.98
-95.13
-95.77
-95.69
-95.57
-95.66
-95.81
-95.52
-94.21
-91.30
-86.39
-79.21
-69.80
-58.45
-45.76
-32.47
-19.32
-6.84
4.64
14.91
23.68
30.48
34.73
35.99
34.26
30.03
24.20
17.74
11.35
5.33
-0.35
-5.81
-11.07
-15.96
-20.12
-23.08
-24.41
-23.73
-20.87
-15.92
-9.36
-2.11
4.71
10.04
13.25
14.38
14.13
13.68
14.27
16.93
22.17
29.97
39.77
50.59
61.18
70.18
76.31
78.64
76.72
70.74
61.41
49.75
36.70
22.91
8.74
-5.70
-20.20
-34.28
-47.23
-58.29
-66.92
-73.05
-77.08
-79.71
-81.70
-83.50
-85.18
-86.47
-87.05
-86.80
-86.13
-85.84
-86.89
-89.97
-95.17
-101.94
-109.16
-115.48
-119.58
-120.34
-116.99
-109.18
-97.07
-81.43
-63.54
-44.95
-27.18
-11.33
2.04
12.83
21.25
27.56
32.00
34.84
36.37
36.98
37.09
37.02
36.97
36.94
36.83
36.48
35.75
34.58
32.92
30.77
28.13
25.01
21.46
17.53
13.30
8.85
4.23
-0.64
-5.92
-11.79
-18.26
-24.90
-30.81
-34.70
-35.34
-32.00
-24.77
-14.60
-3.00
8.43
18.48
26.46
32.21
35.85
37.65
37.88
36.81
34.77
32.11
29.19
26.33
23.79
21.76
20.36
19.68
19.69
20.27
21.12
21.88
22.21
21.87
20.79
19.05
16.87
14.44
11.97
9.55
7.23
4.84
2.08
-1.41
-5.85
-11.03
-16.11
-19.73
-20.36
-16.81
-8.79
2.92
16.62
30.27
42.15
51.33
57.84
62.38
65.75
68.35
69.88
69.55
66.48
60.31
51.38
40.74
29.66
19.20
9.92
1.90
-4.98
-10.77
-15.37
-18.65
-20.67
-21.78
-22.53
-23.49
-24.94
-26.86
-29.09
-31.57
-34.53
-38.35
-43.26
-48.98
-54.54
-58.46
-59.31
-56.17
-49.07
-38.89
-27.05
-14.94
-3.60
6.42
14.93
21.83
26.95
30.05
31.00
29.91
27.30
23.98
20.87
18.69
17.74
17.86
18.57
19.26
19.49
19.05
18.05
16.80
15.75
15.31
15.76
17.10
18.92
20.45
20.62
18.35
12.91
4.29
-6.65
-18.26
-28.53
-35.65
-38.57
-37.27
-32.68
-26.21
-19.31
-13.01
-7.86
-3.98
-1.33
0.20
0.75
0.58
0.08
-0.32
-0.32
0.15
0.85
1.36
1.20
0.05
-2.16
-5.27
-8.94
-12.83
-16.66
-20.32
-23.84
-27.34
-30.97
-34.89
-39.15
-43.81
-48.85
-54.09
-59.09
-63.05
-64.91
-63.59
-58.38
-49.22
-36.84
-22.49
-7.64
6.38
18.72
28.92
36.88
42.67
46.40
48.24
48.39
47.20
45.09
42.47
39.79
37.35
35.37
33.95
33.04
32.49
32.05
31.45
30.42
28.81
26.60
23.86
20.71
17.29
13.64
9.78
5.63
1.10
-3.97
-9.73
-16.18
-22.99
-29.39
-34.27
-36.41
-34.94
-29.63
-21.09
-10.54
0.55
10.85
19.49
26.13
30.77
33.65
34.99
35.07
34.11
32.39
30.20
27.81
25.46
23.32
21.48
19.97
18.82
18.05
17.64
17.47
17.33
16.92
15.93
14.13
11.44
8.00
4.06
-0.04
-4.04
-7.81
-11.40
-15.04
-19.06
-23.74
-29.14
-34.85
-40.04
-43.50
-44.12
-41.20
-34.77
-25.62
-14.98
-4.15
5.82
14.33
21.13
26.15
29.38
30.86
30.74
29.32
27.07
24.49
21.96
19.73
17.85
16.31
15.06
14.13
13.52
13.25
13.20
13.16
12.84
11.95
10.36
8.07
5.27
2.20
-0.90
-3.94
-6.99
-10.26
-14.05
-18.55
-23.69
-29.03
-33.77
-36.89
-37.49
-35.07
-29.71
-22.03
-13.04
-3.82
4.71
11.93
17.55
21.47
23.75
24.49
23.86
22.12
19.66
16.89
14.22
11.95
10.27
9.19
8.60
8.35
8.30
8.30
8.19
7.79
6.91
5.45
3.38
0.87
-1.85
-4.56
-7.16
-9.75
-12.58
-15.96
-20.11
-24.90
-29.78
-33.84
-36.05
-35.57
-32.07
-25.87
-17.77
-8.81
0.04
8.16
15.18
20.98
25.48
28.57
30.21
30.46
29.57
27.90
25.85
23.70
21.60
19.61
17.80
16.22
14.95
14.04
13.47
13.10
12.72
12.16
11.24
9.89
8.11
5.94
3.42
0.62
-2.39
-5.56
-8.86
-12.32
-16.12
-20.44
-25.38
-30.69
-35.64
-39.08
-39.75
-36.67
-29.60
-19.15
-6.54
6.72
19.38
30.60
40.05
47.67
53.49
57.50
59.61
59.78
58.07
54.71
50.09
44.73
39.22
34.18
30.13
27.48
26.42
26.89
28.63
31.21
34.08
36.70
38.57
39.34
38.82
36.99
33.96
29.83
24.68
18.48
11.25
3.16
-5.31
-13.27
-19.63
-23.35
-23.86
-21.34
-16.76
-11.58
-7.26
-4.87
-4.76
-6.66
-10.01
-14.22
-18.95
-24.04
-29.39
-34.80
-39.95
-44.45
-48.12
-51.03
-53.47
-55.82
-58.30
-60.84
-63.10
-64.65
-65.23
-64.90
-64.08
-63.33
-63.21
-64.09
-66.15
-69.40
-73.73
-78.82
-84.14
-88.97
-92.55
-94.32
-94.08
-91.97
-88.22
-82.93
-75.89
-66.80
-55.67
-43.19
-30.77
-20.26
-13.41
-11.23
-13.76
-20.00
-28.24
-36.49
-42.80
-45.56
-43.66
-36.64
-24.87
-9.59
7.27
23.52
37.29
47.54
54.22
58.03
59.98
60.98
61.53
61.83
61.91
61.71
61.12
59.86
57.44
53.41
47.54
40.11
31.82
23.62
16.37
10.67
6.83
4.93
5.00
7.06
11.13
17.15
24.90
33.87
43.37
52.54
60.57
66.82
70.90
72.73
72.39
70.11
66.29
61.57
56.88
53.18
51.20
51.07
52.23
53.70
54.52
54.22
53.03
51.67
50.99
51.59
53.55
56.37
59.07
60.41
59.18
54.60
46.67
36.31
25.20
15.17
7.55
2.54
-0.78
-4.11
-9.27
-17.58
-29.75
-45.92
-65.77
-88.30
-111.43
-132.11
-147.26
-155.10
-155.98
-151.81
-144.57
-134.66
-120.54
-100.06
-72.61
-40.59
-8.93
17.04
34.16
42.73
45.74
46.81
48.09
49.71
50.50
49.49
46.72
42.93
38.90
34.76
30.06
24.14
16.70
8.04
-1.10
-9.95
-17.92
-24.64
-29.92
-33.72
-36.14
-37.49
-38.22
-38.68
-38.94
-38.62
-37.08
-33.82
-28.82
-22.71
-16.42
-10.81
-6.29
-2.77
0.09
2.55
4.55
5.77
5.86
4.68
2.35
-0.89
-4.87
-9.74
-15.83
-23.47
-32.67
-42.85
-52.74
-60.57
-64.43
-62.86
-55.23
-42.04
-24.76
-5.54
13.27
29.57
41.79
49.00
50.90
47.76
40.37
29.95
17.96
5.96
-4.69
-12.93
-18.10
-20.04
-19.00
-15.69
-11.13
-6.41
-2.40
0.46
2.18
2.96
2.85
1.66
-1.08
-5.77
-12.46
-20.63
-29.32
-37.33
-43.53
-47.04
-47.26
-43.90
-36.92
-26.58
-13.49
1.39
16.91
31.85
45.11
55.83
63.43
67.60
68.31
65.82
60.67
53.63
45.50
36.91
28.12
18.93
8.95
-2.18
-14.40
-27.06
-38.95
-48.61
-54.69
-56.45
-53.98
-48.25
-40.79
-33.29
-27.02
-22.57
-19.72
-17.56
-14.86
-10.36
-3.13
7.20
20.28
35.11
50.27
64.30
75.98
84.52
89.51
90.74
88.18
82.09
73.26
63.12
53.52
46.21
42.24
41.60
43.29
45.80
47.66
47.85
45.98
42.09
36.47
29.37
20.97
11.37
0.67
-10.92
-22.86
-34.33
-44.18
-51.28
-54.70
-54.10
-49.81
-42.75
-34.17
-25.26
-16.89
-9.57
-3.48
1.28
4.64
6.53
6.97
6.11
4.30
1.96
-0.54
-2.97
-5.26
-7.44
-9.47
-11.22
-12.43
-12.90
-12.58
-11.64
-10.47
-9.47
-8.98
-9.13
-9.79
-10.52
-10.66
-9.42
-6.18
-0.66
6.84
15.45
23.98
31.26
36.57
39.77
41.26
41.60
41.25
40.27
38.40
35.26
30.68
24.82
18.22
11.50
5.13
-0.75
-6.28
-11.56
-16.40
-20.19
-22.12
-21.50
-18.19
-12.71
-6.05
0.55
6.06
9.73
11.04
9.68
5.49
-1.31
-9.99
-19.18
-27.17
-32.35
-33.80
-31.56
-26.56
-20.23
-13.98
-8.79
-5.10
-2.90
-1.92
-1.77
-1.97
-1.95
-1.11
1.09
4.91
10.22
16.51
22.97
28.65
32.71
34.44
33.51
29.89
23.94
16.34
7.91
-0.49
-8.24
-15.10
-21.34
-27.58
-34.48
-42.26
-50.40
-57.61
-62.25
-62.93
-59.11
-51.36
-41.05
-29.74
-18.66
-8.36
0.99
9.30
16.25
21.31
24.09
24.78
24.25
23.80
24.70
27.66
32.58
38.68
44.80
49.90
53.32
54.91
54.91
53.76
51.85
49.30
45.95
41.42
35.34
27.56
18.27
7.90
-2.88
-13.34
-22.62
-29.91
-34.50
-36.05
-34.82
-31.67
-27.84
-24.50
-22.44
-21.88
-22.66
-24.54
-27.45
-31.50
-36.84
-43.37
-50.67
-58.01
-64.44
-68.97
-70.67
-68.81
-63.10
-53.77
-41.69
-28.22
-14.93
-3.33
5.53
11.07
13.20
12.11
8.14
1.69
-6.75
-16.60
-27.20
-37.94
-48.31
-57.92
-66.45
-73.40
-78.10
-79.77
-77.69
-71.60
-61.89
-49.70
-36.67
-24.48
-14.37
-6.84
-1.56
2.41
6.24
10.92
16.96
24.36
32.67
41.29
49.71
57.59
64.86
71.54
77.55
82.50
85.70
86.17
83.09
76.04
65.26
51.60
36.23
20.29
4.64
-10.18
-23.77
-35.69
-45.46
-52.73
-57.57
-60.54
-62.40
-63.65
-64.03
-62.54
-57.79
-48.80
-35.48
-18.81
-0.40
18.02
35.10
50.08
62.60
72.57
80.11
85.50
89.03
90.67
89.80
85.15
75.35
59.66
38.75
14.76
-9.09
-29.46
-43.83
-50.99
-51.18
-45.67
-36.36
-25.32
-14.48
-5.31
1.26
4.93
5.86
4.42
0.97
-4.33
-11.37
-20.02
-29.80
-39.81
-48.80
-55.33
-58.15
-56.51
-50.41
-40.57
-28.23
-14.80
-1.54
10.61
21.06
29.43
35.47
39.01
40.04
38.85
36.03
32.34
28.52
25.10
22.30
20.06
18.17
16.39
14.51
12.33
9.69
6.47
2.63
-1.76
-6.49
-11.35
-16.13
-20.69
-25.07
-29.37
-33.85
-38.76
-44.24
-50.12
-55.79
-60.28
-62.45
-61.40
-56.79
-49.01
-39.05
-28.21
-17.77
-8.67
-1.42
3.87
7.38
9.43
10.33
10.35
9.74
8.69
7.47
6.36
5.62
5.45
5.87
6.73
7.81
8.90
9.85
10.57
10.99
11.00
10.51
9.48
7.98
6.22
4.38
2.55
0.62
-1.67
-4.60
-8.32
-12.72
-17.31
-21.33
-23.89
-24.23
-21.94
-17.11
-10.30
-2.35
5.81
13.41
19.94
25.15
28.92
31.23
32.11
31.65
30.12
27.91
25.57
23.59
22.28
21.72
21.73
21.98
22.14
22.00
21.50
20.73
19.84
18.97
18.24
17.71
17.43
17.39
17.59
17.99
18.53
19.15
19.73
20.15
20.25
19.89
18.98
17.57
15.82
13.98
12.25
10.70
9.24
7.63
5.54
2.73
-0.91
-5.17
-9.50
-13.12
-15.17
-14.99
-12.41
-7.74
-1.68
4.91
11.31
17.09
22.03
26.01
28.87
30.39
30.42
29.01
26.48
23.38
20.26
17.58
15.56
14.22
13.41
12.97
12.77
12.74
12.84
13.00
13.06
12.76
11.77
9.79
6.74
2.84
-1.43
-5.44
-8.74
-11.18
-13.04
-14.83
-17.06
-19.97
-23.36
-26.63
-28.87
-29.20
-26.94
-21.83
-14.05
-4.12
7.18
19.07
30.91
42.28
53.02
63.20
73.03
82.70
92.12
100.71
107.30
110.51
109.17
102.94
92.58
79.73
66.31
53.85
43.02
33.72
25.56
18.26
11.96
6.91
3.11
-0.03
-3.52
-8.40
-15.14
-23.36
-31.95
-39.53
-45.01
-47.96
-48.62
-47.70
-45.96
-44.06
-42.39
-41.12
-40.15
-39.10
-37.36
-34.23
-29.11
-21.64
-11.79
0.17
13.78
28.40
43.21
57.34
70.03
80.76
89.36
95.86
100.23
102.07
100.61
94.94
84.46
69.24
50.11
28.48
5.92
-16.18
-36.77
-55.16
-70.91
-83.78
-93.70
-100.84
-105.47
-107.91
-108.33
-106.67
-102.73
-96.40
-87.97
-78.27
-68.56
-60.20
-54.29
-51.37
-51.43
-54.06
-58.55
-63.98
-69.19
-72.85
-73.65
-70.74
-64.13
-54.70
-44.03
-33.74
-25.03
-18.38
-13.67
-10.53
-8.72
-8.22
-9.15
-11.53
-15.05
-19.10
-22.91
-25.83
-27.51
-27.98
-27.50
-26.40
-24.87
-22.95
-20.60
-17.88
-15.03
-12.48
-10.66
-9.86
-10.04
-10.89
-11.90
-12.66
-12.94
-12.76
-12.36
-12.05
-12.08
-12.62
-13.62
-14.81
-15.63
-15.34
-13.12
-8.35
-0.87
8.90
20.05
31.36
41.69
50.21
56.51
60.59
62.70
63.20
62.45
60.76
58.37
55.48
52.26
48.87
45.49
42.31
39.50
37.16
35.28
33.76
32.39
30.96
29.26
27.16
24.65
21.77
18.69
15.52
12.30
8.95
5.31
1.16
-3.70
-9.43
-16.16
-23.83
-32.22
-40.72
-48.45
-54.34
-57.43
-57.17
-53.52
-46.93
-38.14
-27.88
-16.79
-5.44
5.60
15.59
23.70
29.16
31.47
30.61
27.05
21.58
15.15
8.59
2.51
-2.74
-6.99
-10.19
-12.35
-13.59
-14.14
-14.34
-14.58
-15.11
-16.00
-17.09
-18.08
-18.74
-19.03
-19.17
-19.62
-20.86
-23.16
-26.40
-29.98
-32.91
-34.10
-32.65
-28.15
-20.81
-11.38
-0.89
9.59
19.23
27.55
34.36
39.69
43.64
46.28
47.65
47.79
46.82
44.98
42.59
40.00
37.46
35.06
32.72
30.24
27.45
24.24
20.60
16.61
12.42
8.15
3.87
-0.40
-4.69
-9.05
-13.51
-18.07
-22.74
-27.58
-32.63
-37.84
-42.95
-47.43
-50.54
-51.55
-49.99
-45.81
-39.44
-31.58
-23.05
-14.64
-6.99
-0.57
4.31
7.57
9.47
10.61
11.79
13.82
17.28
22.24
28.27
34.54
40.06
43.97
45.75
45.35
43.05
39.43
35.11
30.64
26.47
22.96
20.35
18.80
18.33
18.71
19.47
19.94
19.39
17.36
13.85
9.49
5.35
2.60
2.02
3.69
6.93
10.64
13.66
15.20
14.96
12.93
9.28
4.14
-2.34
-9.88
-17.99
-25.99
-33.18
-39.02
-43.23
-45.80
-46.92
-46.87
-45.94
-44.45
-42.64
-40.72
-38.79
-36.88
-35.05
-33.45
-32.33
-31.93
-32.37
-33.57
-35.23
-37.01
-38.69
-40.17
-41.40
-42.15
-41.89
-39.85
-35.27
-27.79
-17.69
-5.88
6.49
18.43
29.35
39.08
47.46
54.16
58.58
60.20
58.93
55.33
50.46
45.47
41.10
37.44
34.11
30.68
27.03
23.44
20.37
18.15
16.70
15.62
14.33
12.34
9.50
5.99
2.30
-0.93
-3.18
-4.16
-3.84
-2.35
0.23
4.01
9.37
16.75
26.57
38.89
53.42
69.42
85.83
101.39
114.82
125.02
131.16
132.85
130.12
123.43
113.68
102.15
90.30
79.52
70.68
63.77
57.91
51.67
43.72
33.37
20.85
7.09
-6.77
-19.89
-32.00
-43.29
-54.07
-64.45
-74.19
-82.77
-89.64
-94.43
-97.09
-97.67
-96.09
-91.81
-83.83
-71.16
-53.45
-31.57
-7.74
14.95
33.57
46.23
52.65
53.95
52.08
48.93
45.83
43.34
41.34
39.36
36.78
33.05
27.75
20.71
11.99
2.00
-8.47
-18.27
-26.04
-30.65
-31.60
-29.49
-25.84
-22.41
-20.12
-18.38
-15.11
-8.02
3.86
18.86
32.87
40.95
39.60
28.67
11.57
-6.14
-19.20
-24.82
-23.65
-19.08
-15.49
-16.53
-23.92
-37.36
-55.05
-74.58
-93.60
-110.13
-122.64
-129.99
-131.52
-127.16
-117.63
-104.40
-89.31
-73.97
-59.05
-44.11
-28.07
-10.19
8.84
26.55
39.34
44.03
39.42
27.11
11.08
-3.93
-14.15
-18.01
-16.21
-10.84
-4.26
1.82
6.48
9.42
10.55
9.80
7.22
3.25
-1.28
-5.26
-7.73
-8.24
-7.05
-5.02
-3.27
-2.79
-4.04
-6.87
-10.66
-14.54
-17.79
-20.09
-21.75
-23.70
-27.30
-33.86
-44.06
-57.40
-71.91
-84.45
-91.53
-90.43
-80.01
-61.19
-36.53
-9.50
16.37
38.26
54.26
63.56
66.37
63.77
57.44
49.28
40.92
33.30
26.50
19.94
12.67
4.04
-5.94
-16.44
-26.04
-33.19
-36.75
-36.44
-33.10
-28.75
-26.07
-27.46
-33.94
-44.47
-56.19
-65.65
-70.20
-69.02
-62.98
-53.73
-42.58
-29.91
-15.44
0.90
18.30
35.12
49.60
60.73
68.71
74.62
79.57
84.11
87.95
90.24
90.12
87.16
81.66
74.60
67.24
60.70
55.58
51.92
49.34
47.50
46.16
45.25
44.75
44.46
44.06
43.24
41.93
40.28
38.54
36.80
34.93
32.62
29.78
26.79
24.63
24.58
27.77
34.60
44.35
55.25
64.80
70.26
69.08
59.40
40.41
12.95
-20.21
-54.62
-85.01
-106.62
-116.52
-114.27
-101.66
-81.86
-58.27
-33.74
-10.27
11.07
29.88
46.36
60.98
74.18
85.76
94.51
98.50
95.70
84.84
66.08
41.05
12.43
-16.76
-43.73
-66.19
-82.49
-91.68
-93.66
-89.24
-80.03
-68.14
-55.70
-44.31
-34.82
-27.22
-20.86
-14.72
-7.77
0.73
10.88
22.11
33.27
43.08
50.58
55.48
58.05
58.78
57.96
55.50
51.27
45.56
39.51
35.02
34.06
37.83
46.10
57.30
69.04
78.89
84.79
85.20
79.14
66.36
47.78
25.79
4.00
-13.85
-25.12
-29.29
-28.00
-24.21
-20.93
-20.23
-23.03
-29.43
-39.17
-51.82
-66.67
-82.54
-97.88
-111.18
-121.39
-128.16
-131.64
-132.24
-130.30
-126.09
-119.96
-112.49
-104.46
-96.51
-88.96
-81.51
-73.46
-64.02
-52.61
-39.22
-24.41
-9.29
4.74
16.21
23.99
27.51
27.00
23.54
18.79
14.62
12.57
13.56
17.58
23.77
30.55
35.88
37.70
34.41
25.26
10.58
-8.32
-29.53
-51.08
-71.34
-89.25
-104.24
-116.11
-124.80
-130.45
-133.37
-134.14
-133.58
-132.67
-132.36
-133.36
-136.01
-140.12
-145.06
-149.74
-152.87
-153.06
-149.12
-140.30
-126.50
-108.42
-87.38
-65.00
-42.75
-21.55
