1653120111.00
64.000000
-0.00
-0.00
-0.00
-0.00
-0.00
-0.00
-0.00
-0.00
-0.00
-0.00
0.00
0.01
0.01
-0.00
-0.03
-0.05
-0.05
0.00
0.13
0.36
0.66
1.01
1.37
1.72
2.06
2.40
2.79
3.24
3.80
4.42
5.06
5.66
6.20
6.68
7.15
7.68
8.31
9.14
10.09
11.04
11.88
12.56
13.14
13.76
14.65
15.96
17.91
20.32
22.90
25.38
27.58
29.57
31.68
34.32
37.81
42.54
48.15
54.10
59.83
64.97
69.58
74.14
79.34
85.71
93.76
103.00
112.62
121.73
129.77
136.75
143.30
150.74
157.77
166.65
177.97
191.83
207.01
220.57
228.18
225.19
208.25
176.48
132.31
79.57
22.60
-35.41
-92.92
-149.69
-205.86
-261.11
-314.57
-364.75
-410.70
-451.74
-487.32
-516.61
-538.26
-550.50
-551.51
-540.14
-516.08
-480.51
-435.62
-384.16
-328.90
-272.15
-215.62
-160.40
-107.33
-57.09
-10.63
31.02
66.94
96.56
119.86
137.40
150.20
159.34
165.79
170.02
172.09
171.74
168.78
163.26
155.68
146.88
137.79
129.12
121.16
113.74
106.42
98.72
90.24
80.69
69.99
58.42
47.00
37.46
31.97
32.28
38.74
49.85
62.60
73.59
80.34
82.19
79.96
75.24
69.51
63.54
57.50
51.36
45.29
39.78
35.40
32.38
30.54
29.27
27.84
25.64
22.46
18.53
14.42
10.79
8.09
6.49
5.75
5.35
4.82
3.82
2.35
0.70
-0.79
-1.93
-2.75
-3.35
-3.73
-3.61
-2.65
-0.68
1.95
4.40
5.70
5.21
3.03
-0.09
-3.10
-5.23
-6.23
-6.41
-6.26
-6.09
-5.96
-5.68
-5.07
-4.10
-2.93
-1.73
-0.70
0.02
0.41
0.54
0.49
0.37
0.25
0.16
0.01
-0.28
-0.77
-1.40
-2.01
-2.36
-2.32
-1.89
-1.22
-0.54
-0.02
0.30
0.53
0.81
1.24
1.79
2.39
2.96
3.54
4.21
5.06
6.11
7.27
8.45
9.54
10.50
11.31
11.95
12.30
12.25
11.71
10.67
9.25
7.70
6.11
4.53
2.95
1.31
-0.47
-2.40
-4.38
-6.30
-8.01
-9.45
-10.56
-11.34
-11.83
-12.01
-11.88
-11.46
-10.80
-10.00
-9.20
-8.49
-7.92
-7.49
-7.15
-6.85
-6.54
-6.21
-5.90
-5.63
-5.38
-5.16
-4.94
-4.70
-4.48
-4.33
-4.28
-4.32
-4.41
-4.50
-4.57
-4.62
-4.66
-4.61
-4.35
-3.74
-2.73
-1.41
0.03
1.34
2.32
2.89
3.07
2.97
2.66
2.22
1.67
1.01
0.27
-0.52
-1.29
-1.96
-2.46
-2.77
-2.88
-2.87
-2.76
-2.59
-2.37
-2.14
-1.95
-1.87
-1.98
-2.26
-2.66
-3.06
-3.36
-3.55
-3.70
-3.91
-4.30
-4.88
-5.60
-6.33
-6.98
-7.44
-7.69
-7.66
-7.28
-6.46
-5.18
-3.46
-1.48
0.54
2.37
3.87
5.01
5.86
6.50
6.98
7.27
7.31
7.08
6.60
5.97
5.31
4.73
4.32
4.09
4.03
4.09
4.17
4.15
3.94
3.46
2.75
1.91
1.07
0.32
-0.33
-0.97
-1.68
-2.55
-3.61
-4.82
-6.13
-7.43
-8.55
-9.31
-9.53
-9.10
-8.06
-6.54
-4.73
-2.82
-0.96
0.76
2.21
3.33
4.02
4.30
4.26
4.10
3.98
3.99
4.11
4.25
4.32
4.29
4.20
4.16
4.29
4.62
5.14
5.74
6.32
6.79
7.08
7.23
7.30
7.39
7.63
8.13
8.94
10.00
11.21
12.36
13.27
13.81
13.91
13.65
13.13
12.51
11.94
11.52
11.33
11.35
11.47
11.53
11.32
10.63
9.36
7.50
5.18
2.56
-0.14
-2.77
-5.21
-7.39
-9.35
-11.17
-12.96
-14.83
-16.79
-18.75
-20.50
-21.78
-22.41
-22.30
-21.48
-20.09
-18.27
-16.20
-14.07
-12.13
-10.66
-9.90
-9.92
-10.56
-11.47
-12.25
-12.62
-12.49
-12.00
-11.39
-10.81
-10.29
-9.65
-8.70
-7.31
-5.49
-3.41
-1.28
0.73
2.52
4.05
5.32
6.29
6.91
7.10
6.86
6.27
5.53
4.87
4.43
4.29
4.34
4.44
4.47
4.41
4.36
4.40
4.57
4.75
4.77
4.45
3.70
2.62
1.40
0.25
-0.67
-1.33
-1.84
-2.34
-3.00
-3.92
-5.09
-6.46
-7.87
-9.14
-10.08
-10.54
-10.43
-9.71
-8.40
-6.60
-4.45
-2.13
0.15
2.19
3.85
5.05
5.82
6.25
6.46
6.57
6.66
6.76
6.91
7.14
7.48
7.94
8.45
8.89
9.08
8.89
8.31
7.46
6.57
5.88
5.52
5.43
5.44
5.32
4.93
4.26
3.45
2.64
1.95
1.37
0.80
0.14
-0.67
-1.61
-2.63
-3.70
-4.76
-5.75
-6.57
-7.05
-7.06
-6.50
-5.38
-3.79
-1.88
0.18
2.18
3.91
5.21
6.01
6.34
6.39
6.34
6.31
6.36
6.43
6.47
6.46
6.46
6.52
6.65
6.81
6.93
6.96
6.91
6.82
6.70
6.56
6.40
6.21
6.03
5.89
5.80
5.76
5.69
5.54
5.27
4.85
4.28
3.55
2.63
1.48
0.08
-1.55
-3.36
-5.24
-7.07
-8.69
-9.93
-10.62
-10.67
-10.03
-8.76
-7.02
-5.02
-2.99
-1.14
0.38
1.47
2.10
2.32
2.21
1.89
1.49
1.15
0.99
1.06
1.34
1.73
2.10
2.35
2.40
2.26
2.03
1.77
1.57
1.44
1.36
1.31
1.23
1.08
0.79
0.30
-0.43
-1.33
-2.32
-3.24
-4.03
-4.68
-5.28
-5.94
-6.73
-7.62
-8.49
-9.20
-9.58
-9.49
-8.87
-7.67
-5.95
-3.83
-1.55
0.65
2.56
4.07
5.20
6.01
6.58
6.91
6.99
6.78
6.33
5.74
5.15
4.74
4.58
4.69
4.96
5.25
5.40
5.30
4.98
4.51
4.02
3.60
3.26
2.92
2.48
1.88
1.10
0.20
-0.72
-1.59
-2.37
-3.05
-3.69
-4.36
-5.13
-6.07
-7.20
-8.52
-9.96
-11.42
-12.73
-13.70
-14.12
-13.83
-12.77
-11.05
-8.86
-6.48
-4.15
-2.07
-0.35
0.93
1.71
1.96
1.68
0.92
-0.18
-1.48
-2.83
-4.12
-5.26
-6.23
-7.06
-7.78
-8.48
-9.25
-10.12
-11.06
-11.95
-12.58
-12.80
-12.51
-11.69
-10.40
-8.70
-6.62
-4.16
-1.39
1.56
4.46
7.04
9.09
10.55
11.49
12.04
12.26
12.13
11.54
10.41
8.77
6.87
5.06
3.72
3.09
3.23
3.98
5.12
6.40
7.69
8.97
10.24
11.50
12.66
13.61
14.23
14.43
14.21
13.65
12.84
11.89
10.86
9.82
8.85
7.99
7.28
6.74
6.32
5.95
5.57
5.16
4.69
4.18
3.67
3.22
2.93
2.91
3.23
3.90
4.83
5.77
6.46
6.63
6.09
4.83
2.94
0.65
-1.77
-4.03
-5.93
-7.39
-8.49
-9.42
-10.36
-11.40
-12.47
-13.33
-13.73
-13.52
-12.76
-11.68
-10.57
-9.63
-8.89
-8.26
-7.63
-7.00
-6.46
-6.18
-6.24
-6.56
-6.92
-7.05
-6.78
-6.09
-5.10
-4.01
-3.03
-2.25
-1.72
-1.41
-1.25
-1.15
-1.02
-0.82
-0.53
-0.18
0.18
0.52
0.78
0.92
0.88
0.58
-0.01
-0.84
-1.81
-2.75
-3.52
-4.06
-4.45
-4.80
-5.25
-5.88
-6.65
-7.45
-8.06
-8.24
-7.73
-6.35
-4.06
-1.06
2.26
5.45
8.10
10.01
11.21
11.90
12.28
12.41
12.23
11.60
10.47
8.97
7.35
5.92
4.87
4.22
3.84
3.56
3.28
3.03
2.87
2.87
3.00
3.16
3.24
3.19
3.01
2.79
2.59
2.43
2.26
2.03
1.69
1.26
0.80
0.35
-0.05
-0.40
-0.68
-0.84
-0.82
-0.50
0.21
1.34
2.78
4.25
5.36
5.71
5.08
3.51
1.34
-0.90
-2.72
-3.85
-4.25
-4.08
-3.57
-2.85
-2.02
-1.11
-0.20
0.59
1.10
1.32
1.37
1.48
1.93
2.91
4.52
6.73
9.48
12.68
16.21
19.88
23.38
26.32
28.38
29.28
28.94
27.47
25.11
22.18
18.97
15.76
12.69
9.84
7.14
4.54
1.97
-0.52
-2.84
-4.85
-6.53
-7.96
-9.34
-10.94
-12.93
-15.31
-17.93
-20.49
-22.64
-24.10
-24.67
-24.28
-22.96
-20.84
-18.12
-15.04
-11.83
-8.71
-5.82
-3.25
-1.03
0.89
2.61
4.30
6.15
8.30
10.79
13.58
16.56
19.60
22.62
25.53
28.22
30.52
32.17
32.91
32.59
31.14
28.65
25.33
21.37
17.00
12.37
7.63
2.88
-1.75
-6.11
-10.09
-13.54
-16.46
-18.88
-20.92
-22.71
-24.32
-25.73
-26.89
-27.77
-28.39
-28.91
-29.48
-30.18
-30.95
-31.58
-31.80
-31.35
-30.07
-27.93
-25.01
-21.52
-17.67
-13.64
-9.61
-5.71
-2.05
1.24
4.04
6.26
7.89
9.03
9.87
10.64
11.53
12.67
14.06
15.64
17.26
18.70
19.75
20.18
19.88
18.86
17.25
15.27
13.17
11.12
9.24
7.61
6.24
5.11
4.16
3.26
2.29
1.14
-0.17
-1.52
-2.70
-3.58
-4.13
-4.43
-4.64
-4.81
-4.80
-4.38
-3.29
-1.37
1.28
4.38
7.50
10.25
12.33
13.60
14.04
13.75
12.88
11.61
10.12
8.58
7.11
5.84
4.84
4.18
3.95
4.12
4.67
5.47
6.39
7.35
8.29
9.17
9.89
10.28
10.13
9.25
7.60
5.28
2.58
-0.22
-2.89
-5.36
-7.65
-9.85
-12.00
-14.07
-16.01
-17.71
-19.13
-20.28
-21.22
-22.05
-22.84
-23.56
-24.06
-24.10
-23.41
-21.82
-19.34
-16.19
-12.74
-9.36
-6.36
-3.91
-2.04
-0.77
-0.16
-0.28
-1.18
-2.78
-4.83
-6.99
-8.91
-10.33
-11.20
-11.61
-11.70
-11.64
-11.52
-11.39
-11.30
-11.27
-11.34
-11.48
-11.60
-11.55
-11.20
-10.44
-9.28
-7.78
-6.06
-4.26
-2.51
-0.96
0.29
1.18
1.71
1.92
1.91
1.76
1.48
1.04
0.43
-0.30
-1.01
-1.41
-1.23
-0.27
1.47
3.85
6.58
9.42
12.17
14.76
17.14
19.25
20.95
22.00
22.19
21.42
19.74
17.37
14.62
11.84
9.30
7.20
5.64
4.57
3.86
3.33
2.79
2.15
1.42
0.69
-0.00
-0.70
-1.58
-2.82
-4.53
-6.59
-8.70
-10.52
-11.83
-12.62
-13.14
-13.69
-14.57
-15.94
-17.80
-20.02
-22.36
-24.53
-26.22
-27.11
-26.96
-25.66
-23.24
-19.90
-15.89
-11.54
-7.20
-3.19
0.24
2.92
4.85
6.16
7.05
7.69
8.23
8.72
9.20
9.67
10.15
10.63
11.07
11.39
11.52
11.43
11.21
10.98
10.87
10.99
11.30
11.71
12.10
12.41
12.67
12.99
13.44
13.96
14.34
14.19
13.10
10.74
7.03
2.19
-3.38
-9.09
-14.38
-18.84
-22.20
-24.37
-25.35
-25.20
-24.04
-22.01
-19.34
-16.29
-13.16
-10.22
-7.67
-5.65
-4.18
-3.22
-2.62
-2.20
-1.76
-1.19
-0.49
0.25
0.85
1.21
1.34
1.32
1.28
1.30
1.36
1.41
1.41
1.37
1.31
1.23
1.08
0.76
0.18
-0.65
-1.64
-2.60
-3.35
-3.79
-3.92
-3.87
-3.82
-3.99
-4.54
-5.49
-6.73
-8.00
-8.93
-9.22
-8.65
-7.17
-4.87
-1.96
1.32
4.70
7.91
10.73
13.00
14.70
15.96
17.07
18.32
19.99
22.16
24.63
26.87
28.20
27.88
25.46
20.87
14.57
7.33
0.04
-6.59
-12.11
-16.37
-19.32
-21.00
-21.44
-20.78
-19.25
-17.23
-15.08
-13.06
-11.25
-9.63
-8.15
-6.85
-5.84
-5.25
-5.13
-5.47
-6.11
-6.84
-7.40
-7.45
-6.67
-4.82
-1.80
2.24
6.93
11.78
16.33
20.23
23.38
25.78
27.53
28.76
29.64
30.42
31.38
32.74
34.46
36.17
37.13
36.46
33.43
27.74
19.71
10.13
0.02
-9.69
-18.31
-25.54
-31.30
-35.59
-38.46
-40.01
-40.39
-39.89
-38.88
-37.74
-36.73
-35.95
-35.37
-34.89
-34.42
-33.99
-33.66
-33.46
-33.28
-32.86
-31.84
-29.91
-26.95
-23.13
-18.81
-14.46
-10.47
-7.02
-4.11
-1.64
0.46
2.20
3.53
4.48
5.17
5.79
6.52
7.45
8.51
9.56
10.50
11.29
11.99
12.68
13.38
14.04
14.54
14.79
14.77
14.54
14.19
13.82
13.45
13.06
12.58
11.89
10.90
9.54
7.85
5.95
4.01
2.23
0.74
-0.42
-1.33
-2.11
-2.93
-3.94
-5.22
-6.73
-8.29
-9.58
-10.27
-10.07
-8.83
-6.64
-3.70
-0.31
3.27
6.83
10.16
13.06
15.36
16.93
17.78
18.04
17.89
17.46
16.82
15.96
14.87
13.56
12.13
10.67
9.29
8.05
6.99
6.13
5.53
5.21
5.21
5.48
5.93
6.45
6.90
7.16
7.18
6.96
6.55
6.07
5.59
5.17
4.84
4.57
4.33
4.14
4.00
3.95
4.02
4.22
4.52
4.83
5.04
4.98
4.45
3.30
1.47
-0.95
-3.63
-6.17
-8.08
-9.06
-8.99
-8.01
-6.43
-4.62
-2.84
-1.22
0.23
1.54
2.72
3.74
4.53
5.05
5.34
5.52
5.74
6.16
6.81
7.65
8.53
9.28
9.77
9.97
9.93
9.77
9.61
9.43
9.12
8.46
7.23
5.35
2.87
0.05
-2.77
-5.31
-7.35
-8.84
-9.82
-10.39
-10.61
-10.54
-10.22
-9.68
-9.01
-8.28
-7.55
-6.80
-5.98
-5.07
-4.11
-3.29
-2.89
-3.19
-4.36
-6.37
-8.96
-11.69
-14.04
-15.54
-15.80
-14.64
-12.08
-8.39
-4.06
0.33
4.22
7.17
9.03
9.80
9.67
8.83
7.48
5.77
3.93
2.20
0.87
0.25
0.49
1.61
3.42
5.57
7.67
9.37
10.46
10.88
10.76
10.34
9.87
9.56
9.52
9.83
10.49
11.50
12.82
14.37
15.97
17.39
18.40
18.77
18.35
17.02
14.75
11.54
7.53
2.97
-1.79
-6.34
-10.38
-13.72
-16.33
-18.24
-19.43
-19.84
-19.42
-18.21
-16.44
-14.42
-12.48
-10.81
-9.41
-8.09
-6.63
-4.89
-2.85
-0.60
1.68
3.85
5.79
7.43
8.76
9.75
10.36
10.48
9.96
8.67
6.54
3.68
0.32
-3.20
-6.54
-9.46
-11.80
-13.53
-14.66
-15.24
-15.41
-15.35
-15.33
-15.63
-16.45
-17.86
-19.71
-21.74
-23.64
-25.19
-26.31
-27.05
-27.54
-27.91
-28.29
-28.77
-29.36
-30.04
-30.69
-31.18
-31.30
-30.87
-29.77
-28.00
-25.66
-22.94
-20.08
-17.26
-14.62
-12.21
-10.04
-8.14
-6.51
-5.18
-4.12
-3.28
-2.56
-1.89
-1.22
-0.53
0.14
0.81
1.51
2.27
3.09
3.89
4.55
4.93
5.02
4.91
4.74
4.67
4.75
4.95
5.22
5.47
5.71
5.94
6.15
6.31
6.34
6.15
5.71
5.03
4.18
3.27
2.41
1.63
0.93
0.17
-0.78
-2.00
-3.44
-4.90
-6.07
-6.62
-6.32
-5.12
-3.16
-0.69
2.01
4.68
7.18
9.44
11.41
13.05
14.30
15.07
15.35
15.22
14.87
14.56
14.51
14.80
15.32
15.86
16.18
16.20
15.98
15.68
15.47
15.34
15.18
14.77
14.02
12.97
11.82
10.85
10.18
9.79
9.46
8.93
8.03
6.74
5.19
3.58
2.05
0.65
-0.62
-1.82
-2.95
-3.98
-4.90
-5.71
-6.53
-7.49
-8.69
-10.12
-11.58
-12.74
-13.27
-12.95
-11.75
-9.80
-7.35
-4.66
-1.94
0.63
2.94
4.92
6.51
7.69
8.44
8.82
8.87
8.69
8.37
8.01
7.70
7.50
7.47
7.62
7.96
8.48
9.08
9.69
10.19
10.49
10.55
10.34
9.88
9.18
8.31
7.35
6.40
5.55
4.76
3.96
3.04
1.95
0.80
-0.28
-1.15
-1.79
-2.37
-3.13
-4.31
-5.98
-8.06
-10.29
-12.32
-13.81
-14.50
-14.24
-13.03
-11.01
-8.42
-5.56
-2.70
-0.05
2.29
4.23
5.78
6.90
7.57
7.81
7.70
7.36
6.98
6.74
6.76
7.05
7.53
8.03
8.45
8.73
8.92
9.09
9.24
9.33
9.22
8.83
8.16
7.37
6.62
6.02
5.53
4.97
4.17
3.06
1.74
0.44
-0.64
-1.42
-2.04
-2.76
-3.81
-5.29
-7.08
-8.91
-10.48
-11.57
-12.09
-12.02
-11.37
-10.12
-8.24
-5.79
-2.95
-0.03
2.60
4.70
6.20
7.16
7.76
8.10
8.24
8.18
7.97
7.67
7.37
7.19
7.15
7.26
7.48
7.79
8.16
8.50
8.73
8.70
8.32
7.60
6.65
5.62
4.68
3.89
3.24
2.64
1.98
1.21
0.32
-0.64
-1.60
-2.51
-3.37
-4.27
-5.30
-6.57
-8.06
-9.63
-11.03
-11.97
-12.21
-11.65
-10.34
-8.44
-6.16
-3.71
-1.25
1.10
3.21
4.98
6.29
7.08
7.37
7.26
6.92
6.55
6.27
6.12
6.04
6.00
5.97
5.99
6.14
6.44
6.81
7.12
7.24
7.08
6.71
6.22
5.71
5.17
4.52
3.64
2.51
1.21
-0.10
-1.25
-2.16
-2.87
-3.49
-4.19
-5.10
-6.28
-7.71
-9.28
-10.80
-12.04
-12.73
-12.63
-11.64
-9.79
-7.27
-4.40
-1.50
1.13
3.29
4.87
5.86
6.33
6.43
6.32
6.15
6.02
5.94
5.88
5.79
5.64
5.45
5.28
5.16
5.14
5.24
5.42
5.63
5.74
5.62
5.12
4.21
2.94
1.48
0.04
-1.23
-2.26
-3.08
-3.77
-4.40
-5.08
-5.89
-6.92
-8.20
-9.67
-11.12
-12.26
-12.79
-12.51
-11.42
-9.65
-7.44
-5.05
-2.68
-0.48
1.45
3.06
4.32
5.28
5.98
6.48
6.80
6.91
6.77
6.38
5.81
5.24
4.83
4.73
4.92
5.31
5.75
6.08
6.23
6.20
6.03
5.71
5.25
4.66
3.95
3.18
2.40
1.61
0.82
-0.01
-0.89
-1.79
-2.67
-3.50
-4.32
-5.20
-6.23
-7.38
-8.56
-9.53
-10.04
-9.91
-9.08
-7.64
-5.75
-3.56
-1.15
1.41
4.06
6.66
8.95
10.69
11.72
12.02
11.73
11.06
10.22
9.32
8.44
7.66
7.07
6.74
6.69
6.84
7.02
7.10
7.01
6.80
6.60
6.57
6.82
7.40
8.29
9.36
10.47
11.42
12.06
12.35
12.34
12.18
12.01
11.90
11.79
11.52
10.89
9.78
8.21
6.33
4.44
2.93
2.20
2.55
4.05
6.49
9.34
11.86
13.32
13.17
11.13
7.24
1.84
-4.53
-11.20
-17.52
-22.92
-27.15
-30.20
-32.32
-33.82
-34.88
-35.48
-35.49
-34.76
-33.28
-31.22
-28.92
-26.66
-24.60
-22.70
-20.84
-18.91
-16.90
-14.94
-13.24
-11.94
-11.07
-10.48
-9.95
-9.20
-8.06
-6.51
-4.69
-2.88
-1.35
-0.27
0.30
0.44
0.35
0.23
0.27
0.62
1.38
2.58
4.26
6.40
8.89
11.54
14.08
16.23
17.75
18.51
18.48
17.79
16.61
15.17
13.67
12.21
10.81
9.40
7.86
6.11
4.13
1.97
-0.27
-2.47
-4.52
-6.35
-7.89
-9.13
-10.07
-10.74
-11.21
-11.52
-11.68
-11.65
-11.35
-10.77
-9.98
-9.12
-8.37
-7.89
-7.73
-7.92
-8.44
-9.31
-10.54
-12.13
-13.99
-15.90
-17.51
-18.45
-18.44
-17.37
-15.38
-12.76
-9.90
-7.09
-4.55
-2.36
-0.55
0.89
1.95
2.62
2.91
2.92
2.78
2.68
2.79
3.23
4.07
5.30
6.82
8.46
10.04
11.35
12.20
12.47
12.08
11.04
9.46
7.47
5.28
3.11
1.11
-0.60
-2.03
-3.22
-4.26
-5.19
-6.04
-6.77
-7.34
-7.82
-8.31
-8.99
-9.99
-11.29
-12.69
-13.79
-14.20
-13.64
-12.07
-9.65
-6.67
-3.46
-0.26
2.70
5.20
7.07
8.15
8.42
8.01
7.17
6.20
5.31
4.63
4.20
4.03
4.13
4.50
5.10
5.79
6.42
6.83
6.95
6.82
6.52
6.13
5.68
5.10
4.33
3.33
2.14
0.88
-0.35
-1.45
-2.40
-3.24
-4.03
-4.90
-5.95
-7.26
-8.80
-10.40
-11.79
-12.64
-12.70
-11.83
-10.10
-7.74
-5.05
-2.38
0.01
1.94
3.39
4.37
4.98
5.28
5.31
5.12
4.76
4.31
3.91
3.61
3.41
3.24
3.00
2.64
2.18
1.72
1.37
1.17
1.07
0.96
0.73
0.30
-0.32
-1.10
-1.97
-2.85
-3.70
-4.51
-5.29
-6.14
-7.15
-8.43
-9.99
-11.73
-13.42
-14.71
-15.29
-14.91
-13.50
-11.16
-8.14
-4.74
-1.26
2.04
5.00
7.51
9.48
10.89
11.71
11.99
11.81
11.37
10.89
10.57
10.50
10.65
10.87
10.98
10.88
10.57
10.16
9.73
9.32
8.87
8.28
7.52
6.64
5.70
4.74
3.75
2.66
1.44
0.15
-1.12
-2.28
-3.35
-4.44
-5.68
-7.10
-8.55
-9.72
-10.31
-10.11
-9.07
-7.31
-5.05
-2.56
-0.07
2.19
4.04
5.36
6.12
6.38
6.28
6.00
5.68
5.40
5.22
5.13
5.11
5.14
5.17
5.21
5.29
5.47
5.77
6.17
6.61
6.97
7.17
7.14
6.83
6.25
5.43
4.44
3.36
2.26
1.21
0.18
-0.89
-2.08
-3.43
-4.82
-6.03
-6.76
-6.75
-5.86
-4.11
-1.70
1.08
3.91
6.53
8.78
10.58
11.93
12.83
13.30
13.39
13.22
12.93
12.71
12.67
12.88
13.28
13.74
14.10
14.25
14.16
13.87
13.43
12.88
12.26
11.56
10.84
10.17
9.63
9.24
8.88
8.38
7.58
6.46
5.13
3.83
2.75
1.96
1.34
0.70
-0.07
-0.95
-1.70
-2.02
-1.63
-0.39
1.63
4.21
7.00
9.64
11.87
13.59
14.80
15.59
16.05
16.21
16.07
15.67
15.11
14.54
14.11
13.89
13.87
13.95
14.06
14.19
14.35
14.54
14.66
14.52
13.88
12.50
10.25
7.16
3.33
-1.02
-5.64
-10.26
-14.62
-18.49
-21.69
-24.12
-25.76
-26.67
-27.04
-27.01
-26.71
-26.13
-25.18
-23.73
-21.70
-19.19
-16.43
-13.76
-11.47
-9.72
-8.54
-7.84
-7.52
-7.54
-7.88
-8.45
-9.09
-9.54
-9.54
-8.99
-7.95
-6.67
-5.44
-4.50
-3.94
-3.73
-3.79
-4.00
-4.29
-4.59
-4.82
-4.89
-4.71
-4.27
-3.69
-3.12
-2.76
-2.75
-3.13
-3.83
-4.74
-5.70
-6.55
-7.18
-7.49
-7.41
-6.90
-5.99
-4.74
-3.28
-1.73
-0.18
1.32
2.72
3.97
4.93
5.47
5.52
5.07
4.29
3.41
2.64
2.13
1.87
1.78
1.75
1.70
1.62
1.56
1.53
1.54
1.57
1.60
1.62
1.66
1.71
1.75
1.73
1.59
1.33
0.95
0.49
-0.05
-0.67
-1.39
-2.12
-2.64
-2.65
-1.83
0.02
2.85
6.37
10.17
13.84
17.16
20.11
22.79
25.36
27.87
30.31
32.60
34.62
36.29
37.51
38.11
37.86
36.46
33.62
29.14
23.06
15.64
7.43
-0.90
-8.64
-15.27
-20.56
-24.54
-27.42
-29.39
-30.60
-31.05
-30.76
-29.79
-28.33
-26.65
-25.07
-23.90
-23.40
-23.69
-24.75
-26.37
-28.12
-29.45
-29.82
-28.88
-26.59
-23.22
-19.23
-15.14
-11.36
-8.06
-5.16
-2.40
0.60
4.20
8.59
13.71
19.12
24.12
27.78
29.21
27.78
23.32
16.17
7.13
-2.75
-12.39
-20.92
-27.81
-32.86
-36.16
-38.00
-38.77
-38.82
-38.46
-37.83
-36.95
-35.77
-34.21
-32.25
-29.97
-27.56
-25.22
-23.18
-21.66
-20.78
-20.56
-20.87
-21.35
-21.54
-20.97
-19.36
-16.68
-13.23
-9.42
-5.67
-2.22
0.82
3.52
5.95
8.18
10.20
12.03
13.70
15.26
16.80
18.37
20.01
21.75
23.62
25.60
27.61
29.55
31.22
32.46
33.17
33.38
33.26
33.03
32.89
32.93
33.06
33.10
32.83
32.04
30.64
28.64
26.18
23.54
21.08
19.11
17.76
16.92
16.17
14.91
12.59
8.87
3.79
-2.27
-8.70
-14.83
-20.09
-24.15
-26.87
-28.29
-28.59
-27.97
-26.69
-24.98
-23.10
-21.35
-19.98
-19.22
-19.12
-19.60
-20.40
-21.22
-21.79
-21.94
-21.60
-20.79
-19.54
-17.88
-15.89
-13.67
-11.37
-9.18
-7.27
-5.77
-4.69
-3.98
-3.52
-3.15
-2.74
-2.21
-1.59
-0.99
-0.57
-0.46
-0.70
-1.21
-1.85
-2.52
-3.16
-3.83
-4.58
-5.47
-6.48
-7.53
-8.56
-9.49
-10.26
-10.79
-10.93
-10.51
-9.38
-7.53
-5.08
-2.31
0.45
2.90
4.88
6.37
7.45
8.27
8.95
9.57
10.14
10.63
11.00
11.27
11.47
11.67
11.92
12.24
12.65
13.15
13.72
14.31
14.81
15.04
14.73
13.68
11.77
9.11
6.02
2.94
0.33
-1.51
-2.44
-2.52
-1.97
-1.09
-0.21
0.36
0.42
-0.13
-1.23
-2.73
-4.40
-6.11
-7.82
-9.61
-11.55
-13.64
-15.72
-17.49
-18.64
-18.89
-18.15
-16.51
-14.19
-11.47
-8.58
-5.59
-2.53
0.57
3.64
6.48
8.91
10.74
11.99
12.77
13.33
13.90
14.60
15.46
16.35
17.18
17.86
18.41
18.88
19.34
19.77
20.07
20.10
19.74
18.93
17.71
16.18
14.48
12.73
11.04
9.47
8.04
6.72
5.49
4.29
3.09
1.88
0.66
-0.57
-1.79
-3.01
-4.28
-5.61
-7.02
-8.52
-10.05
-11.52
-12.74
-13.48
-13.55
-12.82
-11.33
-9.26
-6.89
-4.45
-2.08
0.15
2.21
4.05
5.57
6.66
7.29
7.52
7.51
7.44
7.46
7.63
7.94
8.34
8.74
9.07
9.26
9.28
9.14
8.92
8.71
8.57
8.50
8.37
8.05
7.44
6.53
5.41
4.22
3.12
2.19
1.49
0.97
0.52
0.03
-0.58
-1.34
-2.21
-3.13
-4.10
-5.20
-6.50
-8.00
-9.54
-10.79
-11.38
-11.06
-9.80
-7.85
-5.57
-3.30
-1.27
0.49
2.00
3.26
4.22
4.79
4.88
4.54
3.91
3.24
2.73
2.51
2.57
2.81
3.11
3.42
3.74
4.12
4.59
5.11
5.57
5.90
6.02
5.94
5.69
5.30
4.80
4.19
3.48
2.70
1.90
1.08
0.21
-0.76
-1.85
-3.02
-4.23
-5.38
-6.46
-7.53
-8.66
-9.87
-11.05
-11.93
-12.20
-11.58
-10.03
-7.70
-4.92
-2.09
0.51
2.74
4.56
5.96
6.92
7.41
7.43
7.11
6.69
6.40
6.40
6.70
7.17
7.64
7.99
8.20
8.27
8.25
8.11
7.82
7.34
6.71
5.99
5.28
4.64
4.06
3.47
2.78
1.88
0.75
-0.55
-1.88
-3.10
-4.08
-4.80
-5.36
-5.91
-6.63
-7.62
-8.91
-10.38
-11.85
-13.09
-13.87
-13.99
-13.30
-11.75
-9.43
-6.55
-3.45
-0.45
2.19
4.34
6.03
7.30
8.22
8.79
8.98
8.80
8.34
7.73
7.14
6.68
6.42
6.33
6.42
6.66
7.04
7.47
7.83
7.95
7.73
7.14
6.24
5.19
4.08
3.01
2.00
1.09
0.30
-0.36
-0.89
-1.37
-1.91
-2.60
-3.56
-4.78
-6.21
-7.74
-9.26
-10.68
-11.94
-12.99
-13.73
-14.00
-13.59
-12.36
-10.31
-7.66
-4.77
-1.98
0.45
2.50
4.21
5.62
6.66
7.19
7.13
6.57
5.80
5.18
4.95
5.12
5.49
5.83
5.98
5.93
5.77
5.58
5.34
5.00
4.47
3.78
3.00
2.24
1.53
0.83
-0.03
-1.17
-2.64
-4.35
-6.12
-7.76
-9.18
-10.37
-11.45
-12.59
-13.93
-15.53
-17.34
-19.16
-20.74
-21.76
-21.92
-21.09
-19.32
-16.90
-14.26
-11.83
-9.90
-8.51
-7.49
-6.52
-5.32
-3.71
-1.71
0.51
2.75
4.85
6.73
8.43
10.00
11.50
12.87
14.00
14.76
15.07
14.94
14.47
13.78
12.97
12.03
10.94
9.67
8.25
6.77
5.36
4.11
3.06
2.18
1.39
0.60
-0.27
-1.31
-2.56
-4.02
-5.57
-6.98
-7.93
-8.13
-7.38
-5.68
-3.18
-0.17
2.98
5.94
8.44
10.36
11.70
12.52
12.95
13.06
12.88
12.41
11.69
10.84
10.02
9.43
9.15
9.15
9.31
9.43
9.40
9.18
8.83
8.40
7.90
7.29
6.45
5.32
3.89
2.23
0.48
-1.19
-2.67
-3.93
-5.01
-6.04
-7.19
-8.59
-10.24
-12.00
-13.59
-14.70
-15.09
-14.65
-13.46
-11.66
-9.44
-6.93
-4.25
-1.56
0.94
3.02
4.49
5.26
5.36
4.92
4.12
3.15
2.21
1.45
0.99
0.83
0.94
1.20
1.51
1.76
1.93
2.03
2.07
2.03
1.90
1.65
1.31
0.91
0.52
0.18
-0.11
-0.38
-0.71
-1.20
-1.90
-2.90
-4.23
-5.84
-7.63
-9.39
-10.81
-11.60
-11.55
-10.60
-8.89
-6.70
-4.34
-2.05
0.02
1.84
3.40
4.68
5.66
6.31
6.66
6.80
6.83
6.83
6.86
6.86
6.76
6.53
6.18
5.77
5.41
5.17
5.06
5.02
4.95
4.72
4.19
3.32
2.13
0.76
-0.58
-1.70
-2.52
-3.14
-3.78
-4.69
-6.00
-7.64
-9.36
-10.83
-11.76
-11.96
-11.37
-9.99
-7.89
-5.19
-2.09
1.12
4.08
6.46
8.07
8.88
9.02
8.68
8.02
7.15
6.17
5.16
4.23
3.51
3.05
2.86
2.83
2.89
2.97
3.08
3.26
3.50
3.76
3.87
3.72
3.21
2.35
1.21
-0.09
-1.44
-2.77
-4.03
-5.23
-6.43
-7.72
-9.14
-10.71
-12.38
-13.97
-15.23
-15.89
-15.71
-14.61
-12.65
-10.08
-7.22
-4.32
-1.55
1.03
3.43
5.59
7.37
8.57
9.08
8.92
8.34
7.67
7.19
7.04
7.18
7.50
7.85
8.19
8.53
8.86
9.15
9.29
9.19
8.77
8.06
7.14
6.14
5.19
4.37
3.67
3.05
2.42
1.64
0.65
-0.53
-1.84
-3.20
-4.59
-6.08
-7.80
-9.81
-12.03
-14.16
-15.81
-16.57
-16.24
-14.81
-12.47
-9.49
-6.16
-2.72
0.63
3.70
6.31
8.32
9.65
10.36
10.57
10.45
10.16
9.84
9.55
9.28
9.04
8.82
8.65
8.55
8.54
8.57
8.57
8.44
8.14
7.71
7.22
6.78
6.40
6.05
5.65
5.13
4.44
3.57
2.53
1.33
0.05
-1.22
-2.32
-3.15
-3.69
-4.09
-4.61
-5.49
-6.83
-8.53
-10.28
-11.70
-12.43
-12.22
-11.01
-8.84
-5.92
-2.49
1.15
4.78
8.24
11.56
14.83
18.20
21.67
25.04
27.96
30.00
30.82
30.34
28.74
26.40
23.78
21.24
18.97
17.00
15.23
13.53
11.77
9.84
7.72
5.40
2.93
0.43
-1.94
-4.03
-5.73
-6.99
-7.86
-8.47
-8.97
-9.48
-10.09
-10.80
-11.62
-12.54
-13.57
-14.73
-16.03
-17.49
-19.10
-20.84
-22.59
-24.16
-25.24
-25.52
-24.75
-22.90
-20.15
-16.85
-13.40
-10.07
-7.00
-4.22
-1.75
0.32
1.85
2.70
2.91
2.65
2.25
2.00
2.08
2.51
3.16
3.86
4.47
4.95
5.28
5.51
5.62
5.63
5.54
5.36
5.11
4.77
4.29
3.67
2.93
2.16
1.46
0.86
0.29
-0.35
-1.18
-2.21
-3.36
-4.52
-5.58
-6.52
-7.42
-8.32
-9.24
-10.15
-11.05
-11.97
-13.00
-14.19
-15.49
-16.70
-17.50
-17.53
-16.59
-14.66
-11.96
-8.85
-5.66
-2.64
0.11
2.53
4.56
6.07
6.94
7.14
6.78
6.12
5.45
5.02
4.90
5.03
5.24
5.41
5.47
5.43
5.35
5.30
5.33
5.45
5.59
5.67
5.59
5.28
4.72
3.97
3.15
2.37
1.74
1.26
0.89
0.51
0.01
-0.65
-1.47
-2.39
-3.35
-4.33
-5.34
-6.39
-7.42
-8.37
-9.15
-9.79
-10.42
-11.24
-12.37
-13.76
-15.14
-16.07
-16.16
-15.18
-13.16
-10.35
-7.11
-3.78
-0.63
2.14
4.38
5.95
6.77
6.85
6.35
5.56
4.80
4.33
4.24
4.48
4.85
5.16
5.29
5.25
5.15
5.11
5.22
5.43
5.60
5.59
5.35
4.92
4.39
3.85
3.30
2.70
2.00
1.20
0.35
-0.48
-1.30
-2.15
-3.05
-3.98
-4.86
-5.58
-6.11
-6.51
-6.94
-7.55
-8.46
-9.66
-11.08
-12.57
-13.94
-14.94
-15.32
-14.88
-13.55
-11.48
-8.95
-6.31
-3.85
-1.69
0.19
1.85
3.29
4.42
5.14
5.39
5.24
4.86
4.45
4.15
3.98
3.91
3.85
3.79
3.70
3.62
3.52
3.41
3.27
3.10
2.90
2.66
2.38
1.99
1.47
0.78
-0.06
-1.04
-2.10
-3.18
-4.23
-5.19
-5.98
-6.57
-6.94
-7.18
-7.45
-7.98
-8.94
-10.40
-12.18
-13.92
-15.14
-15.43
-14.57
-12.65
-10.00
-7.04
-4.15
-1.57
0.62
2.41
3.81
4.83
5.48
5.77
5.77
5.58
5.29
5.00
4.80
4.71
4.76
4.90
5.05
5.14
5.12
4.96
4.70
4.39
4.05
3.71
3.31
2.83
2.21
1.46
0.62
-0.27
-1.17
-2.07
-3.00
-3.96
-4.98
-6.08
-7.27
-8.54
-9.83
-10.95
-11.67
-11.70
-10.85
-9.15
-6.83
-4.24
-1.74
0.48
2.37
3.98
5.33
6.36
6.98
7.12
6.87
6.40
5.95
5.69
5.66
5.79
5.95
6.03
5.99
5.86
5.69
5.54
5.44
5.35
5.19
4.84
4.23
3.36
2.32
1.24
0.21
-0.74
-1.67
-2.66
-3.78
-5.02
-6.33
-7.65
-8.89
-9.93
-10.57
-10.56
-9.65
-7.70
-4.79
-1.19
2.70
6.42
9.63
12.15
13.91
14.95
15.34
15.23
14.78
14.15
13.54
13.07
12.82
12.76
12.86
13.03
13.19
13.27
13.25
13.15
13.06
13.05
13.19
13.45
13.79
14.10
14.32
14.45
14.56
14.75
15.11
15.65
16.35
17.17
18.10
19.11
20.13
20.98
21.41
21.20
20.31
18.92
17.43
16.28
15.81
16.13
17.08
18.34
19.53
20.35
20.70
20.66
20.52
20.64
21.33
22.66
24.37
25.95
26.86
26.72
25.63
24.09
22.88
22.76
24.16
27.00
30.71
34.32
36.64
36.56
33.24
26.35
16.24
3.89
-9.29
-21.84
-32.62
-41.07
-47.19
-51.42
-54.31
-56.29
-57.62
-58.41
-58.74
-58.77
-58.64
-58.49
-58.32
-57.97
-57.20
-55.75
-53.44
-50.24
-46.27
-41.76
-37.01
-32.30
-27.92
-24.08
-20.89
-18.38
-16.48
-15.03
-13.86
-12.79
-11.67
-10.40
-8.93
-7.23
-5.36
-3.38
-1.42
0.43
2.15
3.78
5.46
7.32
9.42
11.66
13.84
15.71
17.06
17.80
17.95
17.63
17.02
16.28
15.59
15.05
14.71
14.50
14.26
13.79
12.84
11.22
8.86
5.84
2.44
-0.91
-3.74
-5.62
-6.33
-5.90
-4.62
-2.89
-1.15
0.32
1.36
1.95
2.18
2.14
1.90
1.48
0.88
0.12
-0.77
-1.71
-2.58
-3.28
-3.75
-3.97
-4.02
-3.97
-3.90
-3.85
-3.81
-3.73
-3.56
-3.29
-2.94
-2.59
-2.34
-2.25
-2.32
-2.50
-2.71
-2.90
-3.13
-3.51
-4.21
-5.35
-6.95
-8.91
-11.08
-13.27
-15.34
-17.20
-18.81
-20.10
-20.96
-21.25
-20.86
-19.78
-18.12
-16.11
-13.99
-11.92
-9.99
-8.22
-6.68
-5.46
-4.69
-4.39
-4.47
-4.65
-4.61
-4.06
-2.97
-1.52
-0.09
0.88
1.10
0.54
-0.57
-1.83
-2.80
-3.19
-3.00
-2.43
-1.81
-1.43
-1.38
-1.58
-1.83
-1.99
-2.03
-2.08
-2.34
-2.98
-4.03
-5.42
-6.96
-8.44
-9.66
-10.47
-10.73
-10.35
-9.29
-7.56
-5.24
-2.49
0.49
3.43
6.12
8.33
9.94
10.94
11.38
11.43
11.28
11.19
11.39
12.09
13.44
15.44
18.01
20.93
23.94
26.81
29.40
31.64
33.51
34.93
35.80
35.94
35.26
33.71
31.39
28.45
25.02
21.12
16.63
11.34
5.07
-2.20
-10.25
-18.60
-26.60
-33.56
-38.93
-42.35
-43.72
-43.19
-41.08
-37.79
-33.70
-29.10
-24.20
-19.16
-14.19
-9.59
-5.67
-2.76
-0.98
-0.27
-0.39
-0.95
-1.63
-2.21
-2.63
-2.96
-3.32
-3.78
-4.39
-5.13
-5.98
-6.93
-7.99
-9.21
-10.60
-12.13
-13.69
-15.16
-16.43
-17.45
-18.21
-18.71
-19.01
-19.15
-19.23
-19.39
-19.78
-20.46
-21.31
-22.01
-22.15
-21.33
-19.34
-16.25
-12.38
-8.15
-4.01
-0.26
2.98
5.72
8.06
10.12
11.99
13.66
15.08
16.19
16.96
17.44
17.73
17.97
18.25
18.58
18.89
19.10
19.17
19.14
19.10
19.14
19.28
19.41
19.38
19.05
18.32
17.22
15.86
14.42
13.10
12.02
11.23
10.63
10.04
9.22
8.01
6.33
4.26
1.93
-0.53
-2.99
-5.29
-7.16
-8.25
-8.20
-6.76
-3.97
-0.19
4.03
8.07
11.47
13.98
15.56
16.29
16.34
15.89
15.17
14.46
14.02
14.04
14.52
15.26
16.00
16.51
16.68
16.60
16.45
16.39
16.41
16.36
16.04
15.27
14.07
12.59
11.08
9.72
8.59
7.61
6.58
5.27
3.53
1.29
-1.32
-4.10
-6.83
-9.41
-11.89
-14.41
-17.12
-19.98
-22.73
-24.93
-26.09
-25.90
-24.35
-21.73
-18.53
-15.29
-12.40
-10.10
-8.50
-7.60
-7.36
-7.71
-8.47
-9.37
-10.02
-10.07
-9.25
-7.55
-5.14
-2.38
0.34
2.72
4.58
5.88
6.65
6.92
6.72
6.08
5.09
3.87
2.60
1.40
0.33
-0.66
-1.67
-2.81
-4.11
-5.55
-7.08
-8.67
-10.31
-12.00
-13.71
-15.32
-16.69
-17.70
-18.24
-18.31
-17.91
-17.10
-15.88
-14.29
-12.36
-10.19
-7.94
-5.84
-4.08
-2.81
-1.99
-1.49
-1.13
-0.81
-0.53
-0.43
-0.68
-1.36
-2.46
-3.91
-5.57
-7.35
-9.13
-10.74
-11.94
-12.41
-11.95
-10.52
-8.34
-5.79
-3.35
-1.38
-0.08
0.54
0.58
0.21
-0.41
-1.15
-1.88
-2.47
-2.78
-2.71
-2.25
-1.45
-0.45
0.62
1.66
2.65
3.60
4.50
5.31
5.94
6.34
6.53
6.67
6.99
7.79
9.20
11.22
13.60
15.95
17.86
19.08
19.51
19.26
18.56
17.64
16.68
15.77
14.95
14.25
13.70
13.40
13.43
13.80
14.44
15.21
15.92
16.38
16.53
16.34
15.89
15.28
14.58
13.80
12.93
11.95
10.88
9.75
8.61
7.45
6.28
5.05
3.74
2.33
0.84
-0.70
-2.29
-3.94
-5.74
-7.78
-10.14
-12.78
-15.46
-17.79
-19.37
-19.84
-19.13
-17.37
-14.90
-12.06
-9.18
-6.45
-4.00
-1.89
-0.13
1.31
2.50
3.52
4.40
5.09
5.57
5.79
5.78
5.63
5.44
5.25
5.02
4.68
4.15
3.38
2.40
1.26
0.04
-1.21
-2.45
-3.64
-4.78
-5.85
-6.82
-7.68
-8.44
-9.12
-9.79
-10.51
-11.28
-12.05
-12.77
-13.40
-14.03
-14.82
-15.93
-17.38
-18.95
-20.18
-20.50
-19.50
-17.05
-13.44
-9.15
-4.79
-0.79
2.60
5.33
7.41
8.87
9.76
10.13
10.15
10.03
9.99
10.19
10.63
11.19
11.72
12.06
12.15
12.02
11.77
11.52
11.37
11.30
11.24
11.00
10.41
9.33
7.79
5.90
3.91
2.04
0.46
-0.82
-1.91
-3.03
-4.42
-6.19
-8.30
-10.55
-12.62
-14.19
-15.00
-14.98
-14.11
-12.50
-10.28
-7.60
-4.69
-1.79
0.84
2.99
4.61
5.77
6.59
7.20
7.64
7.91
8.02
8.02
7.98
7.97
7.97
7.88
7.66
7.30
6.89
6.57
6.36
6.23
5.99
5.51
4.72
3.69
2.56
1.45
0.39
-0.70
-1.98
-3.57
-5.56
-7.87
-10.36
-12.76
-14.77
-16.06
-16.39
-15.66
-13.92
-11.41
-8.47
-5.45
-2.61
-0.13
1.94
3.62
4.96
5.94
6.57
6.85
6.81
6.58
6.35
6.30
6.51
6.91
7.29
7.39
7.06
6.34
5.48
4.80
4.56
4.79
5.38
6.08
6.72
7.18
7.40
7.30
6.72
5.46
3.43
0.75
-2.28
-5.20
-7.58
-9.11
-9.61
-9.06
-7.49
-5.02
-1.81
1.89
5.82
9.73
13.43
16.75
19.58
21.80
23.33
24.16
24.31
23.88
23.03
21.94
20.82
19.87
19.22
18.87
18.71
18.53
18.13
17.42
16.41
15.17
13.75
12.08
9.96
7.21
3.77
-0.25
-4.58
-8.85
-12.81
-16.31
-19.30
-21.85
-24.01
-25.86
-27.44
-28.86
-30.13
-31.25
-32.03
-32.22
-31.52
-29.72
-26.82
-23.00
-18.60
-14.01
-9.54
-5.46
-1.96
0.80
2.69
3.68
3.84
3.45
2.84
2.36
2.22
2.48
3.04
3.71
4.35
4.86
5.26
5.57
5.83
6.06
6.23
6.27
6.12
5.72
5.05
4.14
3.05
1.86
0.65
-0.54
-1.68
-2.78
-3.85
-4.89
-5.94
-7.07
-8.35
-9.82
-11.42
-12.89
-13.89
-14.03
-13.10
-11.12
-8.41
-5.44
-2.62
-0.19
1.83
3.55
5.03
6.23
6.98
7.16
6.77
6.00
5.16
4.57
4.39
4.62
5.14
5.76
6.32
6.69
6.78
6.51
5.81
4.72
3.33
1.87
0.53
-0.49
-1.19
-1.67
-2.16
-2.86
-3.84
-5.04
-6.34
-7.59
-8.75
-9.87
-11.02
-12.24
-13.44
-14.41
-14.87
-14.56
-13.33
-11.18
-8.32
-5.06
-1.79
1.20
3.72
5.78
7.39
8.61
9.41
9.72
9.55
9.04
8.41
7.95
7.83
8.04
8.43
8.76
8.83
8.57
8.00
7.23
6.37
5.49
4.59
3.64
2.62
1.52
0.35
-0.85
-2.06
-3.26
-4.47
-5.71
-7.02
-8.45
-10.05
-11.84
-13.76
-15.66
-17.23
-18.13
-18.06
-16.92
-14.87
-12.30
-9.64
-7.24
-5.19
-3.33
-1.33
1.11
4.13
7.64
11.39
15.03
18.25
20.79
22.49
23.24
23.01
21.95
20.33
18.45
16.64
15.03
13.63
12.31
10.96
9.51
8.04
6.62
5.32
4.10
2.90
1.63
0.29
-1.05
-2.33
-3.56
-4.85
-6.35
-8.20
-10.38
-12.72
-14.89
-16.52
-17.31
-17.11
-15.91
-13.84
-11.11
-8.00
-4.78
-1.73
0.99
3.25
5.04
6.34
7.16
7.48
7.36
6.91
6.36
5.94
5.79
5.92
6.16
6.32
6.23
5.88
5.37
4.85
4.46
4.22
4.05
3.85
3.51
2.97
2.24
1.39
0.50
-0.37
-1.18
-1.97
-2.77
-3.64
-4.62
-5.73
-6.98
-8.37
-9.91
-11.57
-13.29
-14.90
-16.09
-16.55
-15.98
-14.28
-11.58
-8.24
-4.71
-1.38
1.54
4.02
6.12
7.83
9.06
9.71
9.76
9.39
8.90
8.61
8.67
9.05
9.56
10.01
10.30
10.45
10.53
10.54
10.44
10.14
9.60
8.84
7.93
6.94
5.89
4.79
3.64
2.50
1.48
0.67
0.11
-0.26
-0.51
-0.78
-1.15
-1.70
-2.47
-3.50
-4.71
-5.91
-6.79
-7.00
-6.23
-4.37
-1.54
1.94
5.64
9.18
12.23
14.65
16.36
17.35
17.68
17.42
16.69
15.68
14.59
13.65
12.97
12.55
12.30
12.03
11.62
11.05
10.48
10.11
10.13
10.49
10.91
10.91
9.97
7.83
4.57
0.57
-3.65
-7.69
-11.33
-14.59
-17.52
-20.17
-22.50
-24.51
-26.28
-27.97
-29.74
-31.58
-33.21
-34.18
-34.08
-32.68
-30.07
-26.60
-22.72
-18.84
-15.22
-11.99
-9.18
-6.80
-4.90
-3.47
-2.48
-1.80
-1.22
-0.51
0.53
1.92
3.56
5.23
6.70
7.84
8.74
9.65
10.88
12.66
14.95
17.48
19.83
21.62
22.67
23.04
22.94
22.59
22.09
21.45
20.61
19.57
18.37
17.07
15.62
13.85
11.58
8.71
5.39
1.98
-1.01
-3.18
-4.32
-4.49
-4.01
-3.23
-2.49
-1.95
-1.63
-1.48
-1.45
-1.53
-1.81
-2.36
-3.16
-4.15
-5.11
-5.83
-6.14
-5.99
-5.43
-4.64
-3.85
-3.26
-2.98
-2.96
-3.08
-3.18
-3.17
-3.08
-3.07
-3.33
-3.95
-4.90
-6.01
-7.11
-8.08
-8.93
-9.78
-10.74
-11.89
-13.20
-14.65
-16.22
-17.92
-19.74
-21.57
-23.18
-24.20
-24.32
-23.33
-21.29
-18.47
-15.28
-12.09
-9.16
-6.58
-4.34
-2.38
-0.70
0.69
1.78
2.59
3.21
3.79
4.48
5.39
6.50
7.75
8.99
10.09
10.99
11.71
12.33
12.88
13.36
13.63
13.53
12.94
11.86
10.40
8.77
7.12
5.49
3.80
1.89
-0.40
-3.19
-6.48
-10.16
-14.07
-17.91
-21.37
-24.19
-26.22
-27.52
-28.31
-28.85
-29.32
-29.75
-30.02
-29.95
-29.43
-28.47
-27.16
-25.66
-24.11
-22.57
-20.95
-19.07
-16.58
-13.04
-8.05
-1.41
6.77
16.01
25.55
34.57
42.37
48.46
52.66
54.99
55.59
54.71
52.71
50.04
47.13
44.26
41.43
38.34
34.53
29.59
23.43
16.33
8.95
2.12
-3.39
-7.07
-8.78
-8.75
-7.50
-5.68
-3.92
-2.56
-1.63
-0.86
0.18
1.84
4.21
7.01
9.77
11.91
12.92
12.55
10.81
7.99
4.64
1.42
-1.08
-2.50
-2.84
-2.45
-1.83
-1.46
-1.54
-2.03
-2.70
-3.36
-3.94
-4.51
-5.22
-6.16
-7.31
-8.58
-9.86
-11.14
-12.50
-14.02
-15.75
-17.61
-19.33
-20.54
-20.91
-20.20
-18.36
-15.56
-12.07
-8.26
-4.50
-1.10
1.67
3.63
4.73
5.02
4.70
4.05
3.38
2.97
2.95
3.28
3.76
4.12
4.14
3.71
2.95
2.08
1.33
0.87
0.71
0.73
0.75
0.59
0.09
-0.80
-2.12
-3.82
-5.78
-7.86
-9.86
-11.65
-13.19
-14.51
-15.69
-16.75
-17.62
-18.16
-18.18
-17.57
-16.27
-14.31
-11.77
-8.76
-5.43
-1.96
1.40
4.37
6.75
8.40
9.29
9.55
9.37
9.01
8.70
8.61
8.78
9.14
9.55
9.89
10.12
10.31
10.55
10.88
11.23
11.43
11.30
10.72
9.72
8.48
7.22
6.17
5.45
5.00
4.65
4.09
3.04
1.33
-0.99
-3.63
-6.16
-8.10
-9.08
-8.96
-7.82
-5.94
-3.69
-1.41
0.63
2.26
3.43
4.19
4.61
4.79
4.84
4.81
4.71
4.58
4.43
4.35
4.43
4.72
5.22
5.83
6.37
6.69
6.67
6.30
5.64
4.82
3.95
3.11
2.35
1.70
1.20
0.91
0.89
1.19
1.78
2.55
3.35
4.03
4.51
4.72
4.61
4.10
3.14
1.75
0.19
-1.11
-1.69
-1.21
0.34
2.66
5.28
7.75
9.83
11.50
12.85
13.96
14.85
15.47
15.75
15.68
15.22
14.36
13.06
11.32
9.18
6.80
4.45
2.38
0.79
-0.25
-0.81
-1.04
-1.13
-1.20
-1.37
-1.63
-1.97
-2.36
-2.78
-3.24
-3.78
-4.43
-5.16
-5.89
-6.53
-7.02
-7.31
-7.45
-7.52
-7.64
-7.95
-8.59
-9.69
-11.31
-13.43
-15.88
-18.36
-20.46
-21.80
-22.14
-21.42
-19.82
-17.61
-15.13
-12.69
-10.51
-8.77
-7.56
-6.93
-6.82
-7.05
-7.37
-7.55
-7.41
-6.92
-6.17
-5.30
-4.46
-3.75
-3.23
-2.91
-2.80
-2.87
-3.02
-3.16
-3.15
-2.95
-2.57
-2.11
-1.67
-1.36
-1.23
-1.26
-1.44
-1.77
-2.21
-2.71
-3.24
-3.78
-4.35
-5.04
-5.95
-7.13
-8.58
-10.22
-11.93
-13.62
-15.11
-16.21
-16.66
-16.23
-14.80
-12.46
-9.45
-6.13
-2.83
0.21
2.88
5.11
6.88
8.19
9.07
9.65
10.13
10.68
11.45
12.43
13.58
14.78
15.90
16.84
17.53
17.95
18.17
18.28
18.42
18.67
19.03
19.41
19.67
19.69
19.45
19.00
18.46
17.94
17.49
17.13
16.82
16.47
15.97
15.17
13.92
12.13
9.81
7.03
3.92
0.58
-2.96
-6.67
-10.45
-14.11
-17.31
-19.72
-21.06
-21.21
-20.20
-18.24
-15.64
-12.76
-9.97
-7.57
-5.69
-4.33
-3.31
-2.45
-1.56
-0.60
0.39
1.28
1.96
2.39
2.60
2.69
2.75
2.86
3.06
3.32
3.57
3.74
3.75
3.52
3.02
2.22
1.17
-0.06
-1.37
-2.65
-3.82
-4.85
-5.74
-6.52
-7.23
-7.88
-8.45
-8.94
-9.34
-9.75
-10.30
-11.15
-12.44
-14.21
-16.40
-18.87
-21.40
-23.75
-25.66
-26.87
-27.16
-26.40
-24.60
-21.97
-18.83
-15.57
-12.50
-9.77
-7.38
-5.29
-3.42
-1.77
-0.37
0.71
1.48
2.01
2.40
2.78
3.20
3.71
4.28
4.89
5.52
6.11
6.61
6.93
7.01
6.81
6.38
5.80
5.14
4.47
3.78
3.07
2.29
1.48
0.67
-0.10
-0.84
-1.55
-2.28
-3.07
-3.93
-4.91
-6.06
-7.45
-9.09
-10.93
-12.82
-14.48
-15.59
-15.87
-15.20
-13.60
-11.31
-8.62
-5.78
-2.94
-0.14
2.57
5.12
7.29
8.88
9.76
9.99
9.85
9.69
9.78
10.19
10.78
11.35
11.74
11.94
12.09
12.36
12.82
13.39
13.84
13.98
13.72
13.09
12.23
11.29
10.32
9.32
8.22
6.98
5.60
4.11
2.56
1.00
-0.54
-2.05
-3.51
-4.90
-6.23
-7.55
-8.94
-10.47
-12.16
-13.89
-15.42
-16.42
-16.56
-15.67
-13.76
-11.09
-7.99
-4.81
-1.79
0.93
3.30
5.27
6.79
7.78
8.26
8.31
8.09
7.82
7.67
7.75
8.05
8.52
9.04
9.49
9.76
9.79
9.56
9.10
8.48
7.76
6.99
6.24
5.53
4.87
4.22
3.51
2.66
1.61
0.34
-1.08
-2.57
-4.01
-5.34
-6.55
-7.71
-8.91
-10.24
-11.72
-13.27
-14.72
-15.80
-16.17
-15.56
-13.82
-11.04
-7.51
-3.69
-0.04
3.12
5.66
7.65
9.22
10.48
11.41
11.93
11.98
11.62
11.06
10.57
10.35
10.46
10.76
11.10
11.34
11.47
11.56
11.64
11.66
11.49
11.01
10.17
9.09
7.92
6.85
5.94
5.14
4.30
3.27
1.97
0.45
-1.17
-2.68
-3.96
-4.97
-5.83
-6.76
-7.97
-9.56
-11.39
-13.17
-14.51
-15.05
-14.56
-12.98
-10.44
-7.19
-3.55
0.12
3.50
6.38
8.66
10.34
11.48
12.16
12.41
12.31
12.00
11.64
11.42
11.42
11.57
11.72
11.71
11.48
11.15
10.89
10.80
10.83
10.78
10.39
9.51
8.19
6.64
5.11
3.77
2.70
1.85
1.14
0.52
-0.06
-0.64
-1.27
-2.00
-2.90
-4.00
-5.32
-6.82
-8.47
-10.20
-11.91
-13.46
-14.71
-15.52
-15.77
-15.37
-14.23
-12.35
-9.78
-6.72
-3.46
-0.28
2.56
4.90
6.69
7.90
8.55
8.73
8.52
8.10
7.64
7.26
7.03
6.94
6.93
6.97
7.01
7.05
7.02
6.85
6.47
5.84
5.06
4.26
3.58
3.10
2.79
2.54
2.23
1.77
1.18
0.50
-0.17
-0.78
-1.31
-1.74
-2.08
-2.35
-2.62
-3.02
-3.71
-4.79
-6.16
-7.58
-8.62
-8.88
-8.16
-6.45
-4.02
-1.24
1.55
4.15
6.50
8.60
10.46
12.03
13.19
13.85
14.00
13.73
13.22
12.65
12.16
11.81
11.60
11.51
11.53
11.65
11.84
12.03
12.16
12.13
11.92
11.49
10.85
9.97
8.84
7.48
5.96
4.37
2.78
1.21
-0.42
-2.19
-4.11
-6.09
-7.98
-9.65
-11.09
-12.43
-13.84
-15.43
-17.17
-18.82
-20.07
-20.64
-20.41
-19.42
-17.81
-15.77
-13.45
-10.96
-8.41
-5.96
-3.89
-2.42
-1.69
-1.66
-2.08
-2.63
-3.03
-3.16
-3.02
-2.70
-2.26
-1.69
-0.95
-0.07
0.84
1.57
1.96
1.94
1.60
1.06
0.48
-0.12
-0.77
-1.50
-2.32
-3.14
-3.88
-4.49
-5.06
-5.72
-6.59
-7.70
-8.95
-10.19
-11.32
-12.33
-13.34
-14.49
-15.82
-17.25
-18.55
-19.42
-19.66
-19.14
-17.87
-15.96
-13.58
-10.89
-8.06
-5.27
-2.69
-0.45
1.35
2.68
3.57
4.08
4.28
4.22
3.99
3.68
3.41
3.29
3.40
3.73
4.25
4.85
5.41
5.84
6.09
6.15
6.03
5.77
5.44
5.10
4.79
4.53
4.28
3.96
3.50
2.83
1.93
0.82
-0.44
-1.71
-2.88
-3.85
-4.65
-5.39
-6.26
-7.43
-8.95
-10.72
-12.44
-13.80
-14.47
-14.28
-13.19
-11.30
-8.79
-5.89
-2.87
-0.00
2.45
4.34
5.61
6.30
6.56
6.49
6.22
5.82
5.38
5.00
4.76
4.69
4.79
4.99
5.21
5.37
5.44
5.38
5.16
4.75
4.18
3.48
2.71
1.95
1.22
0.50
-0.21
-0.93
-1.62
-2.30
-2.98
-3.75
-4.67
-5.78
-7.04
-8.38
-9.75
-11.20
-12.79
-14.52
-16.29
-17.80
-18.70
-18.69
-17.64
-15.65
-13.00
-9.99
-6.94
-4.03
-1.41
0.82
2.60
3.91
4.79
5.37
5.81
6.27
6.84
7.52
8.26
8.98
9.57
10.01
10.27
10.36
10.29
10.05
9.62
8.99
8.22
7.38
6.58
5.85
5.15
4.43
3.58
2.61
1.59
0.61
-0.23
-0.90
-1.48
-2.10
-2.89
-3.95
-5.28
-6.87
-8.67
-10.58
-12.47
-14.11
-15.23
-15.56
-14.90
-13.24
-10.74
-7.74
-4.57
-1.55
1.17
3.54
5.57
7.28
8.63
9.61
10.19
10.42
10.43
10.40
10.49
10.81
11.35
12.00
12.61
13.07
13.30
13.33
13.24
13.08
12.85
12.49
11.89
10.98
9.81
8.48
7.15
5.96
4.92
3.97
2.97
1.84
0.54
-0.86
-2.23
-3.45
-4.42
-5.12
-5.66
-6.24
-7.10
-8.41
-10.18
-12.19
-14.07
-15.39
-15.81
-15.18
-13.56
-11.10
-8.05
-4.68
-1.25
1.99
4.81
7.04
8.60
9.47
9.73
9.50
8.93
8.21
7.55
7.09
6.91
6.96
7.16
7.39
7.56
7.69
7.80
7.91
7.98
7.93
7.69
7.21
6.54
5.75
4.91
4.06
3.15
2.12
0.92
-0.49
-2.05
-3.65
-5.17
-6.49
-7.55
-8.39
-9.08
-9.77
-10.60
-11.69
-13.09
-14.82
-16.79
-18.80
-20.56
-21.71
-21.90
-20.90
-18.67
-15.40
-11.46
-7.31
-3.34
0.16
3.01
5.18
6.70
7.66
8.14
8.21
7.93
7.43
6.86
6.42
6.29
6.58
7.29
8.31
9.46
10.58
11.56
12.35
12.91
13.22
13.26
13.01
12.51
11.86
11.11
10.30
9.42
8.45
7.36
6.19
5.01
3.88
2.86
1.93
1.07
0.21
-0.71
-1.74
-2.94
-4.33
-5.93
-7.66
-9.41
-10.94
-11.96
-12.22
-11.49
-9.74
-7.11
-3.90
-0.55
2.53
5.07
6.95
8.24
9.04
9.49
9.65
9.57
9.32
8.99
8.72
8.61
8.70
8.96
9.28
9.58
9.79
9.93
10.04
10.17
10.31
10.38
10.22
9.68
8.66
7.20
5.49
3.80
2.40
1.40
0.78
0.31
-0.24
-1.06
-2.18
-3.49
-4.82
-6.00
-6.96
-7.72
-8.38
-9.05
-9.83
-10.81
-12.03
-13.46
-14.98
-16.35
-17.26
-17.44
-16.73
-15.19
-13.05
-10.60
-8.14
-5.86
-3.82
-2.05
-0.62
0.36
0.82
0.72
0.23
-0.37
-0.79
-0.80
-0.39
0.32
1.12
1.86
2.50
3.13
3.86
4.71
5.60
6.34
6.78
6.85
6.66
6.41
6.27
6.32
6.48
6.55
6.31
5.58
4.36
2.73
0.89
-0.97
-2.69
-4.16
-5.39
-6.44
-7.46
-8.63
-10.09
-11.83
-13.72
-15.40
-16.48
-16.57
-15.44
-13.12
-9.85
-6.03
-2.10
1.57
4.72
7.19
8.98
10.14
10.79
11.05
11.02
10.76
10.35
9.83
9.31
8.90
8.69
8.74
9.03
9.50
10.03
10.52
10.85
10.94
10.72
10.17
9.33
8.31
7.24
6.23
5.33
4.52
3.70
2.77
1.65
0.33
-1.12
-2.59
-3.92
-5.02
-5.86
-6.52
-7.17
-8.03
-9.25
-10.87
-12.77
-14.65
-16.15
-16.92
-16.69
-15.39
-13.11
-10.08
-6.64
-3.18
-0.01
2.68
4.83
6.49
7.76
8.70
9.34
9.67
9.68
9.44
9.04
8.64
8.36
8.27
8.40
8.69
9.04
9.35
9.50
9.38
8.96
8.25
7.33
6.30
5.25
4.22
3.23
2.27
1.32
0.40
-0.48
-1.33
-2.17
-3.07
-4.08
-5.27
-6.66
-8.21
-9.92
-11.67
-13.35
-14.74
-15.61
-15.74
-14.97
-13.28
-10.82
-7.87
-4.75
-1.78
0.84
3.04
4.82
6.24
7.32
8.05
8.42
8.47
8.30
8.07
7.93
7.93
8.03
8.11
8.05
7.81
7.45
7.06
6.77
6.59
6.47
6.28
5.89
5.22
4.26
3.09
1.83
0.56
-0.64
-1.76
-2.81
-3.83
-4.81
-5.82
-6.90
-8.15
-9.67
-11.42
-13.25
-14.82
-15.72
-15.64
-14.51
-12.51
-10.01
-7.38
-4.87
-2.53
-0.31
1.83
3.82
5.49
6.64
7.19
7.16
6.75
6.19
5.70
5.42
5.36
5.46
5.61
5.73
5.76
5.70
5.55
5.34
5.10
4.81
4.46
4.00
3.39
2.62
1.70
0.68
-0.41
-1.55
-2.72
-3.90
-5.00
-5.94
-6.70
-7.40
-8.30
-9.65
-11.52
-13.71
-15.74
-17.06
-17.30
-16.35
-14.38
-11.69
-8.61
-5.37
-2.21
0.67
3.05
4.76
5.77
6.17
6.15
5.94
5.75
5.70
5.86
6.22
6.70
7.20
7.64
7.94
8.05
7.96
7.65
7.16
6.50
5.76
5.02
4.33
3.70
3.06
2.37
1.61
0.83
0.12
-0.48
-1.01
-1.57
-2.27
-3.18
-4.25
-5.46
-6.80
-8.29
-9.98
-11.81
-13.57
-14.92
-15.50
-15.04
-13.52
-11.14
-8.26
-5.22
-2.33
0.26
2.44
4.19
5.47
6.25
6.56
6.49
6.22
5.93
5.75
5.69
5.73
5.79
5.87
5.98
6.15
6.38
6.58
6.66
6.54
6.20
5.70
5.12
4.52
3.87
3.14
2.23
1.11
-0.22
-1.67
-3.11
-4.40
-5.44
-6.21
-6.83
-7.46
-8.26
-9.33
-10.63
-12.00
-13.24
-14.09
-14.31
-13.75
-12.32
-10.11
-7.34
-4.34
-1.44
1.10
3.18
4.83
6.08
6.96
7.44
7.47
7.10
6.47
5.81
5.36
5.27
5.54
6.03
6.54
6.91
7.06
7.01
6.80
6.45
5.96
5.32
4.53
3.66
2.78
1.94
1.12
0.26
-0.71
-1.79
-2.91
-4.03
-5.10
-6.16
-7.32
-8.69
-10.27
-11.97
-13.57
-14.81
-15.45
-15.30
-14.31
-12.52
-10.10
-7.27
-4.33
-1.51
0.98
3.04
4.65
5.83
6.62
7.04
7.14
6.96
6.61
6.23
5.99
5.98
6.23
6.67
7.18
7.61
7.89
7.97
7.86
7.54
7.02
6.34
5.56
4.80
4.19
3.78
3.51
3.21
2.68
1.75
0.41
-1.16
-2.71
-4.03
-5.05
-5.90
-6.82
-8.03
-9.61
-11.43
-13.17
-14.50
-15.10
-14.84
-13.72
-11.85
-9.39
-6.51
-3.39
-0.21
2.79
5.39
7.40
8.71
9.30
9.31
8.91
8.36
7.86
7.55
7.47
7.57
7.79
8.05
8.27
8.43
8.51
8.48
8.33
8.02
7.56
6.96
6.28
5.60
4.99
4.48
4.02
3.56
3.02
2.36
1.59
0.74
-0.15
-1.09
-2.08
-3.14
-4.30
-5.55
-6.87
-8.27
-9.75
-11.26
-12.65
-13.73
-14.24
-13.96
-12.77
-10.72
-7.97
-4.82
-1.60
1.37
3.86
5.74
6.98
7.62
7.76
7.52
7.08
6.61
6.25
6.15
6.32
6.71
7.20
7.66
8.04
8.31
8.46
8.45
8.23
7.76
7.10
6.33
5.57
4.86
4.18
3.47
2.67
1.78
0.81
-0.22
-1.37
-2.66
-4.08
-5.53
-6.86
-7.95
-8.80
-9.56
-10.41
-11.50
-12.76
-13.95
-14.72
-14.80
-14.02
-12.44
-10.27
-7.79
-5.27
-2.87
-0.67
1.32
3.13
4.72
6.04
7.02
7.60
7.80
7.69
7.41
7.06
6.69
6.32
5.98
5.72
5.64
5.83
6.27
6.80
7.19
7.20
6.71
5.77
4.58
3.37
2.34
1.57
1.01
0.57
0.13
-0.41
-1.06
-1.82
-2.63
-3.48
-4.36
-5.29
-6.35
-7.58
-8.99
-10.53
-12.07
-13.44
-14.40
-14.75
-14.30
-13.01
-10.98
-8.43
-5.66
-2.94
-0.42
1.80
3.72
5.28
6.43
7.11
7.32
7.19
6.89
6.65
6.60
6.76
7.06
7.41
7.70
7.86
7.88
7.73
7.43
6.99
6.43
5.78
5.00
4.08
3.02
1.92
0.89
0.08
-0.49
-0.89
-1.30
-1.81
-2.46
-3.14
-3.74
-4.22
-4.66
-5.23
-6.10
-7.36
-8.96
-10.74
-12.49
-13.93
-14.78
-14.76
-13.74
-11.76
-9.04
-5.99
-2.99
-0.36
1.78
3.41
4.62
5.48
6.04
6.36
6.53
6.68
6.88
7.20
7.58
7.90
8.02
7.87
7.49
7.02
6.63
6.46
6.52
6.66
6.68
6.40
5.78
4.89
3.89
2.89
1.95
1.00
-0.02
-1.13
-2.25
-3.27
-4.10
-4.76
-5.34
-5.98
-6.72
-7.54
-8.39
-9.24
-10.15
-11.19
-12.35
-13.48
-14.28
-14.43
-13.74
-12.20
-10.01
-7.48
-4.89
-2.44
-0.26
1.58
3.02
4.00
4.52
4.63
4.44
4.09
3.75
3.55
3.58
3.87
4.37
4.97
5.53
5.96
6.20
6.25
6.18
6.00
5.70
5.26
4.69
4.01
3.28
2.52
1.74
0.89
-0.05
-1.08
-2.11
-3.04
-3.82
-4.52
-5.29
-6.35
-7.80
-9.53
-11.26
-12.59
-13.22
-12.97
-11.93
-10.28
-8.22
-5.93
-3.52
-1.11
1.15
3.09
4.56
5.59
6.29
6.82
7.31
7.78
8.18
8.44
8.55
8.54
8.49
8.44
8.40
8.33
8.19
7.96
7.61
7.15
6.57
5.88
5.07
4.17
3.16
2.07
0.92
-0.21
-1.29
-2.27
-3.17
-4.03
-4.89
-5.80
-6.77
-7.80
-8.94
-10.22
-11.64
-13.07
-14.28
-14.93
-14.72
-13.53
-11.43
-8.69
-5.66
-2.63
0.16
2.59
4.59
6.09
7.06
7.50
7.46
7.09
6.56
6.03
5.62
5.43
5.46
5.70
6.11
6.61
7.11
7.51
7.71
7.65
7.33
6.79
6.11
5.37
4.62
3.89
3.16
2.37
1.52
0.61
-0.31
-1.20
-2.03
-2.84
-3.71
-4.67
-5.73
-6.85
-7.97
-9.08
-10.20
-11.38
-12.52
-13.40
-13.72
-13.23
-11.83
-9.69
-7.13
-4.50
-2.05
0.15
2.11
3.85
5.26
6.18
6.48
6.19
5.53
4.84
4.42
4.43
4.83
5.43
6.00
6.44
6.80
7.17
7.64
8.18
8.60
8.69
8.34
7.55
6.52
5.49
4.64
4.01
3.52
3.00
2.30
1.38
0.25
-1.00
-2.28
-3.53
-4.69
-5.70
-6.56
-7.29
-8.00
-8.87
-10.01
-11.39
-12.81
-13.86
-14.13
-13.37
-11.56
-8.99
-6.06
-3.16
-0.53
1.76
3.70
5.29
6.47
7.18
7.39
7.22
6.84
6.48
6.22
6.09
5.98
5.83
5.66
5.58
5.68
5.99
6.41
6.78
6.89
6.64
6.04
5.22
4.33
3.47
2.72
2.03
1.35
0.62
-0.20
-1.09
-2.00
-2.85
-3.60
-4.28
-4.91
-5.61
-6.44
-7.49
-8.77
-10.22
-11.75
-13.18
-14.27
-14.78
-14.49
-13.27
-11.19
-8.43
-5.34
-2.31
0.30
2.23
3.39
3.82
3.72
3.33
2.89
2.54
2.36
2.34
2.44
2.62
2.86
3.15
3.44
3.66
3.76
3.76
3.74
3.81
4.04
4.42
4.83
5.11
5.18
5.03
4.71
4.30
3.84
3.35
2.81
2.27
1.75
1.29
0.85
0.32
-0.38
-1.22
-1.98
-2.30
-1.77
-0.06
2.97
7.16
12.13
17.37
22.38
26.81
30.62
34.04
37.59
41.86
47.32
54.12
62.01
70.45
78.82
86.58
93.39
99.03
103.33
105.99
106.65
105.00
100.85
94.25
85.49
74.96
63.14
50.55
37.74
25.23
13.50
2.86
-6.53
-14.71
-21.86
-28.24
-34.15
-39.87
-45.55
-51.13
-56.28
-60.51
-63.34
-64.52
-64.19
-62.83
-61.12
-59.59
-58.42
-57.44
-56.20
-54.30
-51.54
-48.02
-44.04
-39.95
-36.00
-32.29
-28.81
-25.59
-22.72
-20.38
-18.72
-17.76
-17.36
-17.22
-17.03
-16.59
-15.85
-14.96
-14.20
-13.83
-14.02
-14.74
-15.83
-17.09
-18.35
-19.59
-20.87
-22.27
-23.87
-25.59
-27.33
-28.94
-30.35
-31.59
-32.77
-34.04
-35.57
-37.48
-39.80
-42.49
-45.45
-48.50
-51.47
-54.27
-56.84
-59.18
-61.26
-62.93
-63.97
-64.09
-62.99
-60.44
-56.27
-50.53
-43.48
-35.65
-27.84
-20.90
-15.51
-11.97
-10.06
-9.12
-8.25
-6.62
-3.66
0.75
6.31
12.40
18.23
23.07
26.42
28.06
28.13
26.96
24.93
22.43
19.81
17.47
15.88
15.48
16.51
18.86
22.07
25.47
28.46
30.67
32.02
32.57
32.39
31.45
29.58
26.69
22.91
18.60
14.33
10.67
8.00
6.39
5.56
4.98
4.01
2.21
-0.55
-4.04
-7.75
-11.08
-13.55
-14.87
-14.96
-13.94
-11.99
-9.34
-6.21
-2.82
0.68
4.16
7.59
10.97
14.28
17.48
20.46
23.08
25.22
26.80
27.80
28.29
28.41
28.29
28.09
27.93
27.86
27.88
27.96
28.01
27.94
27.63
26.96
25.80
24.05
21.65
18.65
15.18
11.41
7.55
3.68
-0.18
-4.09
-8.11
-12.22
-16.33
-20.21
-23.58
-26.15
-27.69
-28.10
-27.45
-25.94
-23.86
-21.48
-19.02
-16.57
-14.14
-11.73
-9.42
-7.32
-5.55
-4.19
-3.16
-2.31
-1.46
-0.45
0.77
2.21
3.79
5.43
7.03
8.50
9.76
10.77
11.49
11.91
12.05
11.93
11.56
11.00
10.29
9.54
8.85
8.26
7.76
7.30
6.79
6.17
5.41
4.54
3.63
2.83
2.32
2.28
2.83
3.98
5.53
7.17
8.58
9.50
9.83
9.67
9.26
8.87
8.74
8.99
9.68
10.73
12.01
13.39
14.72
15.89
16.81
17.37
17.50
17.14
16.31
15.12
13.71
12.20
10.62
8.86
6.80
4.41
1.82
-0.68
-2.81
-4.45
-5.74
-6.99
-8.51
-10.42
-12.57
-14.64
-16.28
-17.25
-17.51
-17.09
-16.04
-14.30
-11.77
-8.45
-4.43
0.01
4.55
8.92
12.92
16.43
19.34
21.56
23.01
23.73
23.86
23.63
23.27
22.92
22.65
22.45
22.33
22.28
22.29
22.27
22.09
21.57
20.59
19.13
17.29
15.23
13.14
11.16
9.41
7.98
6.90
6.14
5.60
5.15
4.63
3.90
2.88
1.49
-0.32
-2.59
-5.28
-8.20
-11.00
-13.17
-14.15
-13.49
-11.02
-6.89
-1.56
4.27
9.87
14.58
17.93
19.71
19.96
18.89
16.86
14.23
11.33
8.39
5.47
2.56
-0.40
-3.44
-6.47
-9.36
-12.01
-14.41
-16.68
-19.07
-21.79
-24.95
-28.46
-32.11
-35.60
-38.71
-41.30
-43.39
-45.04
-46.29
-47.13
-47.51
-47.40
-46.81
-45.88
-44.81
-43.79
-42.95
-42.35
-41.94
-41.67
-41.41
-41.03
-40.37
-39.21
-37.32
-34.52
-30.75
-26.10
-20.85
-15.41
-10.22
-5.70
-2.08
0.60
2.50
3.89
5.06
6.18
7.33
8.46
9.44
10.16
10.45
10.26
9.58
8.54
7.36
6.33
5.68
5.48
5.66
6.02
6.36
6.56
6.59
6.47
6.18
5.70
4.96
3.94
2.71
1.39
0.14
-0.97
-1.94
-2.83
-3.71
-4.71
-5.90
-7.36
-9.10
-11.00
-12.74
-13.89
-14.02
-12.86
-10.43
-7.02
-3.11
0.82
4.44
7.59
10.25
12.44
14.13
15.28
15.86
15.92
15.60
15.09
14.59
14.21
13.98
13.92
13.97
14.13
14.38
14.68
14.95
15.06
14.91
14.41
13.55
12.36
10.96
9.47
7.99
6.61
5.32
4.12
2.98
1.87
0.75
-0.43
-1.75
-3.24
-4.90
-6.70
-8.56
-10.42
-12.24
-13.90
-15.23
-15.97
-15.89
-14.86
-12.95
-10.41
-7.56
-4.61
-1.67
1.22
3.96
6.36
8.15
9.17
9.43
9.18
8.76
8.47
8.45
8.64
8.89
9.07
9.13
9.09
9.00
8.90
8.80
8.70
8.59
8.44
8.16
7.69
6.92
5.83
4.48
3.00
1.54
0.21
-0.95
-2.02
-3.11
-4.33
-5.75
-7.41
-9.27
-11.21
-13.02
-14.40
-15.05
-14.73
-13.36
-11.09
-8.22
-5.10
-2.05
0.74
3.20
5.30
7.04
8.40
9.34
9.87
10.03
9.89
9.56
9.18
8.84
8.62
8.56
8.60
8.64
8.61
8.46
8.20
7.88
7.54
7.14
6.59
5.80
4.72
3.38
1.91
0.46
-0.85
-1.98
-2.97
-3.93
-5.01
-6.34
-7.99
-9.88
-11.80
-13.41
-14.33
-14.28
-13.11
-10.92
-7.99
-4.72
-1.48
1.39
3.72
5.44
6.61
7.33
7.68
7.74
7.58
7.27
6.94
6.72
6.73
6.97
7.36
7.72
7.91
7.87
7.61
7.25
6.86
6.45
5.96
5.34
4.59
3.78
3.02
2.37
1.78
1.14
0.31
-0.81
-2.21
-3.83
-5.59
-7.42
-9.27
-11.06
-12.56
-13.51
-13.61
-12.70
-10.81
-8.19
-5.17
-2.06
0.90
3.61
6.00
8.02
9.57
10.56
10.96
10.83
10.34
9.72
9.20
8.92
8.86
8.94
9.01
8.97
8.78
8.51
8.27
8.14
8.10
8.00
7.66
6.90
5.66
4.03
2.17
0.34
-1.28
-2.62
-3.69
-4.56
-5.35
-6.20
-7.20
-8.45
-9.95
-11.57
-13.06
-14.09
-14.33
-13.59
-11.87
-9.39
-6.48
-3.46
-0.56
2.07
4.34
6.17
7.43
8.03
8.01
7.51
6.82
6.23
5.90
5.90
6.12
6.43
6.72
6.91
7.00
6.96
6.78
6.45
5.95
5.29
4.50
3.59
2.59
1.52
0.44
-0.63
-1.66
-2.68
-3.78
-5.07
-6.62
-8.39
-10.25
-11.97
-13.32
-14.14
-14.33
-13.86
-12.74
-10.97
-8.60
-5.73
-2.58
0.56
3.38
5.63
7.17
8.00
8.22
8.00
7.55
7.05
6.66
6.45
6.40
6.42
6.45
6.45
6.46
6.52
6.64
6.72
6.62
6.20
5.42
4.34
3.07
1.76
0.52
-0.59
-1.57
-2.46
-3.35
-4.36
-5.62
-7.23
-9.17
-11.30
-13.37
-15.05
-16.06
-16.18
-15.35
-13.61
-11.16
-8.24
-5.15
-2.10
0.74
3.30
5.52
7.33
8.64
9.34
9.42
9.00
8.31
7.63
7.21
7.11
7.27
7.54
7.76
7.84
7.78
7.61
7.36
7.04
6.65
6.15
5.54
4.77
3.83
2.69
1.34
-0.13
-1.61
-2.95
-4.09
-5.07
-6.05
-7.20
-8.65
-10.39
-12.22
-13.85
-14.98
-15.32
-14.77
-13.37
-11.28
-8.73
-5.94
-3.07
-0.25
2.44
4.87
6.87
8.30
9.06
9.17
8.79
8.14
7.47
6.94
6.65
6.61
6.79
7.11
7.52
7.88
8.11
8.10
7.82
7.30
6.63
5.95
5.30
4.71
4.07
3.29
2.28
1.02
-0.46
-2.05
-3.62
-5.07
-6.30
-7.34
-8.26
-9.21
-10.30
-11.50
-12.67
-13.54
-13.82
-13.32
-12.01
-9.96
-7.37
-4.47
-1.48
1.33
3.69
5.42
6.46
6.90
6.93
6.76
6.54
6.34
6.15
6.02
6.00
6.19
6.58
7.09
7.56
7.82
7.78
7.47
6.99
6.46
5.92
5.37
4.75
4.01
3.13
2.15
1.09
-0.01
-1.10
-2.16
-3.14
-4.04
-4.90
-5.83
-6.92
-8.22
-9.65
-11.02
-12.10
-12.66
-12.59
-11.84
-10.44
-8.44
-5.97
-3.22
-0.45
2.07
4.12
5.63
6.60
7.14
7.32
7.19
6.78
6.14
5.41
4.73
4.25
4.03
4.06
4.25
4.48
4.62
4.59
4.34
3.85
3.13
2.22
1.19
0.12
-0.93
-1.90
-2.82
-3.74
-4.73
-5.86
-7.17
-8.63
-10.19
-11.76
-13.23
-14.46
-15.27
-15.48
-14.95
-13.64
-11.60
-8.96
-5.95
-2.80
0.26
3.03
5.34
7.05
8.12
8.54
8.41
7.91
7.24
6.60
6.14
5.92
5.94
6.12
6.38
6.66
6.93
7.13
7.22
7.14
6.81
6.20
5.28
4.07
2.60
0.97
-0.70
-2.28
-3.66
-4.83
-5.82
-6.77
-7.82
-9.09
-10.60
-12.26
-13.86
-15.14
-15.78
-15.57
-14.37
-12.24
-9.38
-6.12
-2.86
0.10
2.54
4.45
5.88
6.91
7.57
7.86
7.81
7.50
7.11
6.81
6.75
6.90
7.14
7.32
7.34
7.23
7.06
6.92
6.79
6.59
6.17
5.44
4.40
3.17
1.90
0.75
-0.22
-1.01
-1.70
-2.43
-3.27
-4.28
-5.48
-6.85
-8.38
-10.05
-11.80
-13.45
-14.70
-15.20
-14.68
-13.05
-10.50
-7.38
-4.11
-1.00
1.84
4.40
6.66
8.57
9.96
10.67
10.65
10.04
9.11
8.21
7.59
7.36
7.45
7.69
7.94
8.10
8.16
8.16
8.12
8.03
7.83
7.45
6.85
6.06
5.12
4.09
2.99
1.79
0.47
-0.98
-2.50
-3.98
-5.35
-6.54
-7.64
-8.73
-9.95
-11.25
-12.47
-13.31
-13.48
-12.80
-11.29
-9.12
-6.53
-3.75
-0.96
1.67
3.99
5.85
7.12
7.74
7.77
7.35
6.67
5.96
5.38
5.03
4.98
5.20
5.56
5.91
6.12
6.13
5.98
5.74
5.48
5.14
4.62
3.83
2.79
1.60
0.45
-0.52
-1.29
-1.96
-2.67
-3.56
-4.68
-6.02
-7.51
-9.10
-10.70
-12.17
-13.31
-13.93
-13.82
-12.90
-11.18
-8.82
-6.03
-3.06
-0.14
2.53
4.81
6.61
7.92
8.72
9.03
8.89
8.38
7.64
6.85
6.21
5.81
5.71
5.83
6.03
6.20
6.29
6.27
6.15
5.95
5.62
5.14
4.48
3.65
2.66
1.55
0.35
-0.89
-2.14
-3.37
-4.58
-5.83
-7.19
-8.71
-10.37
-12.11
-13.78
-15.19
-16.13
-16.36
-15.75
-14.26
-11.98
-9.17
-6.09
-3.01
-0.08
2.61
4.99
6.97
8.41
9.22
9.41
9.08
8.47
7.82
7.32
7.04
7.00
7.16
7.50
7.99
8.56
9.09
9.40
9.34
8.89
8.14
7.26
6.43
5.73
5.09
4.37
3.42
2.20
0.79
-0.63
-1.92
-3.00
-3.91
-4.79
-5.78
-6.96
-8.37
-9.96
-11.61
-13.17
-14.45
-15.21
-15.21
-14.29
-12.40
-9.70
-6.48
-3.07
0.19
3.10
5.56
7.53
8.98
9.88
10.16
9.85
9.07
8.07
7.18
6.63
6.54
6.81
7.26
7.65
7.84
7.83
7.69
7.49
7.27
6.94
6.39
5.58
4.58
3.53
2.62
1.91
1.38
0.90
0.32
-0.44
-1.38
-2.47
-3.69
-5.01
-6.40
-7.81
-9.13
-10.32
-11.37
-12.34
-13.28
-14.10
-14.56
-14.33
-13.13
-10.87
-7.74
-4.20
-0.71
2.28
4.57
6.14
7.08
7.55
7.67
7.51
7.14
6.67
6.18
5.82
5.69
5.79
6.06
6.36
6.52
6.46
6.17
5.72
5.24
4.81
4.46
4.14
3.75
3.25
2.62
1.95
1.28
0.62
-0.08
-0.95
-2.08
-3.49
-5.10
-6.75
-8.30
-9.69
-11.00
-12.34
-13.78
-15.19
-16.27
-16.60
-15.83
-13.89
-10.99
-7.62
-4.25
-1.22
1.34
3.46
5.20
6.58
7.48
7.87
7.78
7.43
7.08
6.97
7.19
7.63
8.09
8.36
8.36
8.11
7.76
7.42
7.18
7.00
6.77
6.39
5.81
5.07
4.24
3.40
2.57
1.69
0.70
-0.44
-1.70
-3.01
-4.27
-5.45
-6.56
-7.67
-8.90
-10.29
-11.83
-13.41
-14.81
-15.77
-16.02
-15.37
-13.79
-11.42
-8.50
-5.35
-2.26
0.54
2.93
4.81
6.15
6.96
7.32
7.38
7.30
7.22
7.21
7.26
7.32
7.34
7.32
7.31
7.33
7.35
7.32
7.15
6.80
6.31
5.70
5.05
4.38
3.66
2.86
1.96
0.98
-0.04
-1.07
-2.07
-3.02
-3.92
-4.74
-5.49
-6.23
-7.08
-8.21
-9.70
-11.53
-13.45
-15.10
-16.09
-16.11
-15.07
-13.05
-10.30
-7.17
-3.98
-1.03
1.48
3.47
4.92
5.89
6.42
6.60
6.50
6.22
5.92
5.73
5.75
5.94
6.20
6.41
6.50
6.47
6.38
6.28
6.16
5.95
5.57
4.98
4.23
3.41
2.59
1.81
1.01
0.12
-0.90
-2.01
-3.12
-4.15
-5.06
-5.92
-6.82
-7.88
-9.15
-10.57
-12.01
-13.20
-13.89
-13.83
-12.91
-11.16
-8.75
-5.95
-3.03
-0.21
2.33
4.48
6.17
7.33
7.94
8.04
7.75
7.26
6.75
6.37
6.17
6.12
6.13
6.09
5.94
5.70
5.41
5.15
4.94
4.77
4.59
4.30
3.85
3.21
2.39
1.46
0.44
-0.65
-1.81
-3.03
-4.28
-5.53
-6.74
-7.94
-9.17
-10.52
-11.98
-13.41
-14.57
-15.15
-14.90
-13.70
-11.63
-8.93
-5.96
-3.01
-0.32
2.00
3.94
5.52
6.72
7.49
7.80
7.67
7.25
6.76
6.39
6.25
6.28
6.37
6.38
6.30
6.19
6.15
6.26
6.46
6.63
6.61
6.26
5.55
4.50
3.24
1.92
0.64
-0.52
-1.59
-2.62
-3.68
-4.84
-6.11
-7.49
-8.95
-10.42
-11.82
-13.02
-13.89
-14.26
-13.96
-12.90
-11.04
-8.49
-5.48
-2.33
0.66
3.25
5.32
6.83
7.77
8.16
8.01
7.41
6.55
5.72
5.18
5.11
5.52
6.21
6.89
7.28
7.25
6.84
6.24
5.67
5.26
5.01
4.76
4.33
3.59
2.56
1.36
0.16
-0.92
-1.80
-2.48
-3.05
-3.59
-4.22
-5.03
-6.08
-7.36
-8.78
-10.19
-11.43
-12.33
-12.69
-12.32
-11.09
-8.96
-6.09
-2.80
0.46
3.29
5.41
6.76
7.41
7.51
7.22
6.64
5.90
5.16
4.60
4.37
4.51
4.89
5.29
5.51
5.45
5.18
4.82
4.51
4.28
4.03
3.60
2.87
1.81
0.49
-0.91
-2.21
-3.28
-4.08
-4.69
-5.25
-5.93
-6.84
-8.02
-9.40
-10.86
-12.26
-13.42
-14.17
-14.34
-13.77
-12.39
-10.26
-7.57
-4.58
-1.58
1.17
3.53
5.43
6.83
7.73
8.14
8.12
7.80
7.36
7.01
6.92
7.16
7.63
8.15
8.52
8.60
8.39
8.01
7.63
7.36
7.17
6.96
6.55
5.81
4.72
3.34
1.84
0.41
-0.81
-1.76
-2.47
-3.07
-3.75
-4.66
-5.89
-7.43
-9.13
-10.77
-12.05
-12.72
-12.59
-11.57
-9.74
-7.29
-4.54
-1.84
0.47
2.19
3.22
3.58
3.38
2.74
1.83
0.85
0.02
-0.48
-0.57
-0.33
0.06
0.38
0.48
0.36
0.13
-0.05
-0.02
0.27
0.78
1.38
1.96
2.40
2.61
2.60
2.43
2.22
2.05
1.92
1.70
1.18
0.16
-1.43
-3.50
-5.77
-7.82
-9.26
-9.82
-9.39
-8.05
-6.02
-3.55
-0.91
1.74
4.25
6.53
8.45
9.88
10.73
10.93
10.57
9.79
8.84
7.97
7.36
7.06
7.01
7.07
7.07
6.91
6.59
6.20
5.84
5.56
5.27
4.82
4.06
2.92
1.48
-0.06
-1.51
-2.73
-3.68
-4.43
-5.12
-5.90
-6.87
-8.09
-9.55
-11.14
-12.71
-14.01
-14.80
-14.92
-14.30
-13.01
-11.20
-9.06
-6.79
-4.55
-2.50
-0.75
0.62
1.56
2.08
2.25
2.19
2.04
1.93
1.97
2.24
2.80
3.64
4.67
5.77
6.82
7.76
8.59
9.39
10.19
10.96
11.57
11.88
11.81
11.42
10.88
10.41
10.09
9.84
9.38
8.38
6.57
3.88
0.48
-3.23
-6.79
-9.74
-11.76
-12.67
-12.45
-11.17
-8.94
-5.98
-2.60
0.79
3.69
5.72
6.69
6.72
6.16
5.45
4.96
4.85
5.10
5.55
6.03
6.41
6.61
6.58
6.28
5.74
5.08
4.50
4.23
4.36
4.85
5.43
5.75
5.52
4.60
3.05
1.11
-0.96
-2.99
-4.95
-6.94
-9.06
-11.29
-13.42
-15.15
-16.10
-15.96
-14.56
-11.84
-7.87
-2.90
2.64
8.16
13.00
16.51
18.27
18.18
16.44
13.53
10.01
6.43
3.16
0.42
-1.76
-3.46
-4.80
-5.92
-6.90
-7.80
-8.62
-9.35
-9.92
-10.28
-10.39
-10.28
-10.03
-9.78
-9.60
-9.54
-9.51
-9.43
-9.19
-8.73
-8.12
-7.50
-7.07
-7.04
-7.53
-8.54
-9.82
-10.98
-11.57
-11.23
-9.81
-7.39
-4.23
-0.61
3.23
7.12
10.86
14.18
16.73
18.21
18.41
17.40
15.49
13.14
10.84
8.98
7.77
7.24
7.27
7.63
8.08
8.38
8.39
8.07
7.52
6.90
6.37
5.99
5.74
5.50
5.13
4.57
3.87
3.17
2.67
2.50
2.67
3.06
3.45
3.62
3.44
2.95
2.38
2.00
2.08
2.74
3.90
5.39
7.00
8.64
10.44
12.68
15.67
19.52
24.02
28.58
32.45
35.02
35.96
35.34
33.64
31.65
30.47
31.20
34.56
40.40
47.55
54.02
57.90
58.22
55.61
52.08
50.24
52.05
57.97
66.66
75.52
81.70
83.19
79.43
71.36
60.94
50.24
40.73
32.89
26.26
19.99
13.43
6.46
-0.53
-6.96
-12.38
-16.63
-19.70
-21.54
-21.96
-20.64
-17.43
-12.51
-6.57
-0.83
3.03
3.07
-2.84
-16.56
-39.00
-69.19
-103.59
-136.51
-161.61
-174.07
-172.52
-159.52
-140.42
-120.97
-105.14
-94.12
-86.86
-81.61
-77.26
-73.75
-71.51
-70.61
-70.19
-68.81
-65.12
-58.76
-50.50
-41.94
-34.79
-30.21
-28.29
-28.24
-28.76
-28.56
-26.83
-23.40
-18.56
-12.83
-6.62
-0.19
6.40
13.05
19.55
25.57
30.68
34.53
36.91
37.85
37.59
36.50
34.98
33.32
31.67
29.92
27.85
25.21
21.88
17.94
13.68
9.49
5.71
2.58
0.13
-1.74
-3.26
-4.64
-6.03
-7.43
-8.73
-9.75
-10.30
-10.31
-9.90
-9.31
-8.88
-8.96
-9.81
-11.55
-14.05
-17.00
-19.90
-22.19
-23.44
-23.45
-22.30
-20.29
-17.85
-15.36
-13.10
-11.29
-10.09
-9.59
-9.74
-10.32
-10.99
-11.35
-11.13
-10.27
-8.86
-7.07
-4.99
-2.56
0.29
3.59
7.17
10.73
13.91
16.42
18.16
19.17
19.61
19.56
19.06
18.03
16.35
13.91
10.68
6.74
2.28
-2.44
-7.03
-11.10
-14.24
-16.13
-16.58
-15.64
-13.52
-10.60
-7.33
-4.09
-1.22
1.10
2.73
3.60
3.67
3.05
1.93
0.64
-0.44
-0.99
-0.83
0.09
1.65
3.66
5.88
8.06
9.99
11.44
12.28
12.44
11.96
10.92
9.45
7.68
5.71
3.65
1.60
-0.37
-2.24
-4.04
-5.80
-7.43
-8.77
-9.49
-9.31
-8.05
-5.75
-2.65
0.91
4.61
8.24
11.67
14.80
17.52
19.66
21.07
21.71
21.62
20.98
20.03
19.01
18.15
17.56
17.29
17.29
17.49
17.79
18.10
18.38
18.61
18.78
18.92
19.01
19.02
18.95
18.81
18.68
18.63
18.70
18.77
18.66
18.10
16.94
15.31
13.58
12.34
12.13
13.24
15.57
18.71
22.14
25.37
28.11
30.24
31.73
32.57
32.77
32.37
31.49
30.31
29.00
27.65
26.29
24.89
23.44
22.04
20.86
20.10
19.86
20.05
20.36
20.31
19.41
17.34
14.05
9.80
5.02
0.17
-4.40
-8.47
-11.97
-14.90
-17.32
-19.33
-21.04
-22.53
-23.80
-24.73
-25.07
-24.57
-23.07
-20.58
-17.32
-13.64
-9.94
-6.57
-3.82
-1.87
-0.79
-0.46
-0.57
-0.74
-0.58
0.11
1.26
2.58
3.62
4.04
3.66
2.59
1.11
-0.47
-1.92
-3.20
-4.44
-5.79
-7.41
-9.30
-11.37
-13.43
-15.35
-17.06
-18.58
-20.03
-21.51
-23.04
-24.56
-25.87
-26.76
-27.00
-26.43
-24.96
-22.62
-19.54
-15.95
-12.12
-8.36
-4.91
-1.97
0.31
1.85
2.60
2.66
2.22
1.55
0.98
0.69
0.73
1.01
1.36
1.60
1.66
1.51
1.17
0.65
-0.02
-0.81
-1.66
-2.54
-3.45
-4.48
-5.70
-7.17
-8.83
-10.59
-12.35
-14.12
-15.95
-17.85
-19.69
-21.16
-21.83
-21.38
-19.68
-16.91
-13.50
-9.90
-6.50
-3.52
-1.06
0.87
2.26
3.12
3.49
3.46
3.11
2.58
1.97
1.39
0.92
0.62
0.51
0.53
0.57
0.55
0.44
0.28
0.11
-0.09
-0.43
-1.00
-1.83
-2.84
-3.88
-4.87
-5.83
-6.90
-8.23
-9.88
-11.70
-13.38
-14.56
-14.95
-14.41
-12.96
-10.72
-7.89
-4.72
-1.50
1.53
4.16
6.27
7.85
8.94
9.62
9.98
10.08
10.01
9.87
9.77
9.80
9.97
10.20
10.39
10.42
10.25
9.89
9.40
8.84
8.22
7.48
6.58
5.52
4.39
3.36
2.60
2.13
1.81
1.36
0.49
-0.93
-2.75
-4.53
-5.78
-6.05
-5.17
-3.26
-0.65
2.27
5.24
8.05
10.61
12.80
14.46
15.45
15.69
15.24
14.36
13.35
12.48
11.88
11.47
11.02
10.31
9.20
7.74
6.11
4.56
3.28
2.34
1.66
1.07
0.39
-0.50
-1.62
-2.91
-4.20
-5.34
-6.17
-6.60
-6.63
-6.36
-5.98
-5.72
-5.81
-6.38
-7.33
-8.34
-9.00
-8.87
-7.73
-5.65
-2.97
-0.14
2.43
4.58
6.34
7.87
9.31
10.62
11.66
12.26
12.35
12.03
11.57
11.25
11.22
11.46
11.78
11.97
11.89
11.54
10.97
10.25
9.35
8.23
6.85
5.32
3.83
2.60
1.72
1.14
0.65
0.04
-0.83
-1.91
-3.08
-4.21
-5.27
-6.37
-7.63
-9.09
-10.62
-11.95
-12.74
-12.73
-11.84
-10.19
-8.02
-5.59
-3.09
-0.71
1.44
3.23
4.56
5.37
5.69
5.68
5.53
5.44
5.55
5.90
6.44
7.02
7.50
7.75
7.78
7.62
7.36
7.05
6.63
5.98
4.96
3.51
1.67
-0.38
-2.44
-4.33
-5.97
-7.36
-8.49
-9.38
-10.01
-10.39
-10.63
-10.89
-11.39
-12.23
-13.35
-14.46
-15.16
-15.10
-14.08
-12.13
-9.51
-6.57
-3.62
-0.91
1.44
3.36
4.81
5.75
6.16
6.07
5.55
4.79
4.05
3.59
3.58
4.05
4.86
5.74
6.43
6.75
6.72
6.42
5.97
5.34
4.45
3.20
1.60
-0.19
-1.93
-3.41
-4.57
-5.50
-6.41
-7.45
-8.67
-10.07
-11.57
-13.14
-14.74
-16.28
-17.56
-18.33
-18.31
-17.34
-15.42
-12.76
-9.69
-6.58
-3.73
-1.33
0.52
1.80
2.59
2.98
3.13
3.16
3.19
3.29
3.49
3.76
4.07
4.35
4.57
4.69
4.73
4.72
4.66
4.53
4.25
3.76
3.04
2.14
1.18
0.27
-0.47
-1.03
-1.47
-1.93
-2.55
-3.49
-4.87
-6.70
-8.90
-11.20
-13.22
-14.48
-14.60
-13.40
-11.01
-7.80
-4.22
-0.72
2.44
5.11
7.24
8.78
9.67
9.92
9.59
8.93
8.23
7.80
7.79
8.19
8.85
9.57
10.19
10.65
10.94
11.09
11.12
10.97
10.54
9.75
8.53
6.92
5.06
3.16
1.40
-0.10
-1.37
-2.55
-3.83
-5.38
-7.27
-9.36
-11.41
-13.04
-13.94
-13.87
-12.80
-10.86
-8.29
-5.45
-2.66
-0.21
1.72
3.05
3.80
4.04
3.84
3.27
2.43
1.44
0.49
-0.23
-0.53
-0.38
0.15
0.84
1.48
1.88
1.97
1.81
1.46
1.02
0.49
-0.16
-0.95
-1.91
-3.01
-4.19
-5.42
-6.75
-8.24
-9.91
-11.67
-13.26
-14.34
-14.60
-13.85
-12.13
-9.67
-6.81
-3.87
-1.10
1.34
3.40
5.02
6.16
6.82
7.03
6.90
6.62
6.39
6.36
6.61
7.08
7.66
8.17
8.47
8.47
8.20
7.73
7.17
6.60
6.05
5.51
4.92
4.23
3.42
2.49
1.49
0.46
-0.56
-1.46
-2.11
-2.28
-1.77
-0.46
1.61
4.19
6.92
9.47
11.58
13.15
14.18
14.68
14.61
13.92
12.61
10.79
8.70
6.65
4.89
3.54
2.59
1.91
1.30
0.58
-0.38
-1.65
-3.21
-4.94
-6.68
-8.27
-9.63
-10.79
-11.86
-12.98
-14.25
-15.66
-17.13
-18.53
-19.66
-20.29
-20.15
-19.03
-16.80
-13.56
-9.58
-5.31
-1.18
2.44
5.40
7.68
9.36
10.54
11.29
11.68
11.79
11.74
11.59
11.41
11.16
10.79
10.28
9.65
8.97
8.33
7.71
7.07
6.31
5.38
4.29
3.11
1.88
0.63
-0.71
-2.22
-3.95
-5.89
-7.94
-9.90
-11.51
-12.48
-12.54
-11.57
-9.63
-6.99
-4.08
-1.31
1.01
2.78
4.03
4.83
5.23
5.23
4.86
4.20
3.42
2.74
2.31
2.16
2.25
2.42
2.56
2.59
2.48
2.25
1.95
1.59
1.16
0.62
-0.09
-0.97
-1.99
-3.06
-4.09
-5.09
-6.14
-7.33
-8.70
-10.12
-11.31
-11.89
-11.60
-10.36
-8.32
-5.78
-3.04
-0.33
2.22
4.54
6.57
8.17
9.23
9.64
9.40
8.63
7.57
6.49
5.62
5.02
4.61
4.19
3.61
2.79
1.82
0.91
0.21
-0.24
-0.60
-1.06
-1.82
-2.89
-4.16
-5.44
-6.58
-7.55
-8.38
-9.21
-10.13
-11.16
-12.34
-13.67
-15.13
-16.63
-17.96
-18.81
-18.85
-17.84
-15.75
-12.78
-9.27
-5.61
-2.13
0.94
3.46
5.34
6.55
7.15
7.25
7.02
6.68
6.42
6.37
6.56
6.95
7.42
7.79
7.96
7.89
7.65
7.35
7.11
6.95
6.83
6.64
6.27
5.65
4.78
3.68
2.45
1.19
0.03
-0.95
-1.75
-2.52
-3.43
-4.67
-6.29
-8.23
-10.27
-12.14
-13.55
-14.26
-14.12
-13.06
-11.16
-8.65
-5.85
-3.14
-0.82
0.95
2.20
3.09
3.77
4.37
4.89
5.27
5.48
5.54
5.57
5.71
6.04
6.51
6.99
7.28
7.30
7.01
6.45
5.67
4.68
3.44
1.93
0.21
-1.64
-3.49
-5.30
-7.09
-8.94
-10.97
-13.25
-15.80
-18.54
-21.35
-24.06
-26.53
-28.62
-30.20
-31.08
-31.09
-30.03
-27.86
-24.69
-20.79
-16.57
-12.40
-8.50
-4.98
-1.86
0.79
2.86
4.20
4.77
4.67
4.18
3.63
3.30
3.35
3.73
4.32
4.98
5.59
6.06
6.38
6.55
6.60
6.59
6.55
6.51
6.44
6.28
5.99
5.54
4.95
4.24
3.43
2.49
1.35
-0.03
-1.71
-3.67
-5.88
-8.28
-10.80
-13.31
-15.60
-17.45
-18.65
-19.10
-18.83
-18.01
-16.92
-15.83
-14.99
-14.60
-14.74
-15.45
-16.66
-18.26
-20.07
-21.92
-23.65
-25.20
-26.51
-27.59
-28.43
-29.05
-29.44
-29.59
-29.47
-29.04
-28.26
-27.06
-25.37
-23.02
-19.77
-15.24
-9.07
-1.05
8.63
19.27
29.77
38.92
45.72
49.71
51.02
50.24
48.08
45.20
42.02
38.85
35.97
33.63
32.09
31.49
31.75
32.62
33.78
34.92
35.84
36.44
36.67
36.47
35.76
34.47
32.62
30.36
27.92
25.52
23.26
21.11
18.96
16.68
14.28
11.95
10.02
8.81
8.53
9.21
10.70
12.77
15.19
17.72
20.18
22.33
23.99
25.00
25.35
25.10
24.41
23.38
22.05
20.38
18.28
15.77
12.97
10.16
7.66
5.83
4.98
5.32
6.90
9.59
13.03
16.64
19.77
21.78
22.25
20.99
18.13
14.00
9.09
3.95
-0.90
-5.00
-8.04
-9.86
-10.52
-10.23
-9.29
-7.98
-6.48
-4.90
-3.28
-1.67
-0.18
1.03
1.82
2.12
1.93
1.35
0.54
-0.41
-1.43
-2.60
-4.02
-5.81
-8.00
-10.55
-13.31
-16.11
-18.78
-21.18
-23.13
-24.44
-24.89
-24.32
-22.74
-20.34
-17.46
-14.45
-11.58
-8.95
-6.57
-4.48
-2.79
-1.65
-1.21
-1.50
-2.40
-3.67
-5.02
-6.21
-7.11
-7.71
-8.08
-8.33
-8.55
-8.81
-9.10
-9.40
-9.70
-9.99
-10.31
-10.70
-11.19
-11.82
-12.58
-13.44
-14.36
-15.28
-16.19
-17.10
-18.10
-19.29
-20.77
-22.54
-24.45
-26.21
-27.42
-27.72
-26.90
-24.94
-22.03
-18.46
-14.61
-10.75
-7.07
-3.72
-0.80
1.60
3.37
4.48
4.95
4.94
4.67
4.40
4.32
4.48
4.81
5.14
5.34
5.36
5.31
5.31
5.45
5.67
5.72
5.35
4.43
3.01
1.36
-0.26
-1.66
-2.88
-4.09
-5.48
-7.16
-9.07
-11.08
-13.01
-14.74
-16.09
-16.86
-16.81
-15.74
-13.62
-10.66
-7.24
-3.77
-0.55
2.33
4.90
7.21
9.26
10.94
12.14
12.77
12.92
12.73
12.38
12.01
11.65
11.32
11.00
10.67
10.33
10.01
9.66
9.25
8.73
8.01
7.05
5.84
4.42
2.92
1.50
0.30
-0.61
-1.32
-2.06
-3.10
-4.67
-6.81
-9.39
-12.11
-14.61
-16.54
-17.61
-17.61
-16.41
-14.04
-10.68
-6.70
-2.56
1.30
4.60
7.27
9.37
10.99
12.13
12.73
12.76
12.32
11.65
11.06
10.78
10.84
11.12
11.42
11.58
11.57
11.45
11.25
10.98
10.58
10.03
9.33
8.50
7.57
6.54
5.38
4.06
2.62
1.14
-0.26
-1.52
-2.61
-3.66
-4.81
-6.20
-7.94
-10.02
-12.31
-14.63
-16.70
-18.22
-18.89
-18.49
-16.88
-14.09
-10.28
-5.80
-1.10
3.41
7.38
10.63
13.15
15.02
16.35
17.26
17.89
18.35
18.83
19.52
20.56
22.02
23.85
25.94
28.14
30.35
32.52
34.62
36.61
38.37
39.84
40.98
41.91
42.80
43.81
44.95
46.05
46.79
46.85
46.09
44.56
42.43
39.94
37.23
34.41
31.57
28.84
26.36
24.19
22.28
20.42
18.46
16.42
14.62
13.56
13.74
15.39
18.38
22.28
26.51
30.59
34.18
37.10
39.26
40.60
41.16
41.11
40.80
40.67
41.08
42.01
43.02
43.32
42.04
38.64
33.10
25.98
18.18
10.60
3.93
-1.46
-5.49
-8.26
-10.08
-11.42
-12.92
-15.26
-18.90
-23.90
-29.90
-36.28
-42.39
-47.83
-52.46
-56.36
-59.67
-62.53
-65.03
-67.21
-69.14
-70.74
-71.77
-71.84
-70.52
-67.57
-63.13
-57.78
-52.38
-47.89
-45.01
-44.06
-44.92
-47.15
-50.17
-53.44
-56.55
-59.19
-61.17
-62.40
-62.82
-62.49
-61.51
-60.04
-58.25
-56.26
-54.16
-51.94
-49.59
-47.10
-44.49
-41.85
-39.31
-36.99
-35.01
-33.37
-32.02
-30.82
-29.67
-28.56
-27.55
-26.81
-26.44
-26.48
-26.81
-27.28
-27.70
-27.93
-27.84
-27.25
-25.90
-23.45
-19.64
-14.38
-7.89
-0.73
6.40
12.82
18.08
22.05
24.82
26.63
27.67
28.06
27.89
27.31
26.53
25.80
25.29
25.01
24.86
24.61
24.15
23.43
22.56
21.69
20.93
20.32
19.72
18.99
17.94
16.51
14.74
12.77
10.77
8.87
7.10
5.39
3.60
1.63
-0.59
-3.01
-5.46
-7.69
-9.42
-10.38
-10.34
-9.22
-7.07
-4.06
-0.47
3.38
7.10
10.33
12.76
14.18
14.57
14.05
12.89
11.40
9.86
8.44
7.22
6.19
5.30
4.47
3.65
2.79
1.87
0.89
-0.11
-1.08
-1.96
-2.69
-3.27
-3.75
-4.26
-4.92
-5.82
-6.94
-8.19
-9.47
-10.74
-12.05
-13.45
-14.88
-16.12
-16.79
-16.50
-15.03
-12.41
-8.94
-5.05
-1.13
2.55
5.86
8.76
11.20
13.06
14.22
14.62
14.32
13.55
12.62
11.86
11.50
11.61
12.11
12.81
13.49
13.97
14.17
14.09
13.77
13.26
12.59
11.77
10.81
9.69
8.40
6.93
5.27
3.43
1.42
-0.75
-3.05
-5.44
-7.80
-9.92
-11.44
-12.01
-11.33
-9.30
-6.14
-2.29
1.69
5.32
8.31
10.58
12.19
13.23
13.80
13.93
13.69
13.22
12.66
12.17
11.82
11.61
11.43
11.21
10.93
10.62
10.37
10.18
10.01
9.70
9.11
8.17
6.90
5.39
3.80
2.26
0.87
-0.34
-1.45
-2.58
-3.90
-5.52
-7.45
-9.48
-11.24
-12.23
-12.03
-10.43
-7.54
-3.74
0.40
4.34
7.73
10.41
12.43
13.89
14.91
15.54
15.80
15.71
15.29
14.63
13.79
12.88
12.00
11.26
10.73
10.39
10.17
9.90
9.43
8.66
7.59
6.31
4.93
3.51
2.09
0.64
-0.85
-2.38
-3.95
-5.55
-7.17
-8.87
-10.66
-12.54
-14.41
-16.07
-17.19
-17.42
-16.55
-14.54
-11.60
-8.11
-4.48
-1.06
1.91
4.31
6.11
7.29
7.90
8.01
7.79
7.41
7.01
6.71
6.57
6.61
6.79
7.07
7.34
7.52
7.47
7.13
6.51
5.68
4.75
3.80
2.86
1.90
0.90
-0.15
-1.20
-2.21
-3.19
-4.21
-5.43
-7.03
-9.09
-11.49
-13.90
-15.86
-16.89
-16.68
-15.15
-12.51
-9.12
-5.43
-1.83
1.41
4.17
6.39
8.05
9.13
9.60
9.52
9.02
8.36
7.82
7.59
7.71
8.06
8.41
8.59
8.52
8.25
7.87
7.45
6.91
6.12
4.97
3.43
1.63
-0.20
-1.83
-3.11
-4.05
-4.74
-5.36
-6.06
-6.93
-7.98
-9.19
-10.42
-11.44
-11.96
-11.67
-10.33
-7.93
-4.65
-0.90
2.85
6.18
8.80
10.59
11.55
11.78
11.42
10.69
9.81
9.02
8.45
8.18
8.15
8.30
8.49
8.65
8.69
8.57
8.28
7.82
7.22
6.52
5.74
4.89
3.94
2.87
1.69
0.49
-0.63
-1.59
-2.40
-3.17
-4.08
-5.32
-6.99
-9.02
-11.16
-13.00
-14.14
-14.22
-13.11
-10.88
-7.84
-4.37
-0.88
2.31
5.01
7.16
8.76
9.80
10.26
10.12
9.49
8.56
7.66
7.05
6.92
7.23
7.79
8.35
8.71
8.79
8.60
8.26
7.84
7.36
6.78
6.02
5.03
3.77
2.32
0.77
-0.71
-2.03
-3.14
-4.12
-5.11
-6.24
-7.59
-9.13
-10.78
-12.38
-13.78
-14.78
-15.16
-14.71
-13.31
-10.97
-7.92
-4.50
-1.13
1.86
4.26
6.04
7.24
7.94
8.22
8.11
7.72
7.19
6.75
6.59
6.81
7.34
7.98
8.50
8.70
8.54
8.10
7.51
6.90
6.31
5.73
5.09
4.31
3.40
2.37
1.31
0.29
-0.67
-1.60
-2.58
-3.73
-5.08
-6.63
-8.33
-10.07
-11.78
-13.31
-14.47
-14.97
-14.56
-13.12
-10.75
-7.78
-4.59
-1.54
1.18
3.52
5.46
6.94
7.87
8.15
7.81
7.03
6.08
5.29
4.81
4.70
4.85
5.09
5.27
5.30
5.16
4.92
4.62
4.30
3.95
3.51
2.91
2.11
1.15
0.10
-0.96
-1.96
-2.85
-3.66
-4.42
-5.21
-6.09
-7.16
-8.51
-10.16
-11.99
-13.71
-14.91
-15.20
-14.34
-12.36
-9.51
-6.19
-2.76
0.53
3.52
6.07
8.04
9.23
9.53
8.97
7.80
6.44
5.29
4.62
4.50
4.76
5.12
5.34
5.26
4.88
4.31
3.71
3.16
2.69
2.24
1.67
0.90
-0.12
-1.34
-2.63
-3.87
-4.99
-5.96
-6.88
-7.83
-8.89
-10.08
-11.40
-12.79
-14.17
-15.42
-16.34
-16.66
-16.11
-14.52
-11.91
-8.50
-4.66
-0.83
2.59
5.31
7.20
8.28
8.67
8.53
8.05
7.38
6.64
5.95
5.39
5.00
4.76
4.63
4.55
4.44
4.30
4.13
3.89
3.52
2.97
2.17
1.13
-0.06
-1.31
-2.55
-3.74
-4.88
-5.95
-6.95
-7.88
-8.83
-9.94
-11.36
-13.08
-14.92
-16.49
-17.35
-17.16
-15.81
-13.44
-10.37
-6.96
-3.56
-0.45
2.19
4.25
5.69
6.53
6.91
6.99
6.93
6.88
6.92
7.05
7.23
7.41
7.54
7.60
7.59
7.49
7.33
7.07
6.71
6.20
5.51
4.62
3.55
2.33
1.02
-0.33
-1.68
-2.97
-4.23
-5.46
-6.71
-8.03
-9.47
-11.04
-12.63
-14.02
-14.92
-15.04
-14.24
-12.55
-10.19
-7.42
-4.50
-1.61
1.14
3.63
5.72
7.26
8.14
8.36
8.05
7.40
6.64
5.96
5.51
5.36
5.50
5.84
6.21
6.46
6.48
6.27
5.86
5.31
4.60
3.76
2.84
1.93
1.16
0.60
0.20
-0.23
-0.93
-2.09
-3.72
-5.71
-7.78
-9.67
-11.17
-12.14
-12.47
-12.10
-10.98
-9.12
-6.69
-3.94
-1.15
1.45
3.72
5.61
7.12
8.20
8.76
8.72
8.11
7.10
5.98
5.06
4.57
4.58
4.98
5.57
6.12
6.46
6.50
6.22
5.66
4.89
3.97
2.95
1.83
0.62
-0.66
-1.98
-3.30
-4.60
-5.91
-7.28
-8.80
-10.48
-12.21
-13.70
-14.54
-14.36
-12.99
-10.53
-7.35
-3.94
-0.71
2.06
4.31
6.03
7.24
7.90
7.97
7.48
6.58
5.55
4.69
4.21
4.17
4.47
4.91
5.26
5.40
5.35
5.18
5.02
4.89
4.69
4.24
3.41
2.16
0.60
-1.04
-2.51
-3.72
-4.70
-5.65
-6.81
-8.35
-10.27
-12.34
-14.15
-15.21
-15.16
-13.86
-11.45
-8.32
-4.88
-1.51
1.56
4.23
6.42
8.03
8.97
9.21
8.84
8.11
7.31
6.72
6.47
6.59
7.00
7.60
8.25
8.80
9.13
9.14
8.79
8.15
7.31
6.39
5.40
4.37
3.28
2.19
1.18
0.31
-0.45
-1.22
-2.18
-3.44
-5.06
-6.96
-9.04
-11.11
-12.89
-14.03
-14.21
-13.16
-10.91
-7.74
-4.12
-0.57
2.56
5.15
7.24
8.91
10.15
10.89
11.05
10.68
9.96
9.17
8.58
8.31
8.34
8.55
8.77
8.89
8.88
8.74
8.51
8.19
7.79
7.28
6.67
5.95
5.15
4.31
3.41
2.44
1.35
0.07
-1.39
-2.97
-4.53
-5.92
-7.05
-7.97
-8.87
-9.96
-11.39
-13.06
-14.72
-15.95
-16.39
-15.80
-14.21
-11.78
-8.83
-5.63
-2.44
0.53
3.13
5.18
6.56
7.18
7.09
6.47
5.59
4.77
4.30
4.34
4.84
5.61
6.38
6.92
7.14
7.04
6.74
6.34
5.88
5.36
4.76
4.07
3.31
2.50
1.61
0.58
-0.61
-1.91
-3.19
-4.31
-5.16
-5.79
-6.36
-7.07
-8.11
-9.53
-11.23
-12.98
-14.42
-15.21
-15.05
-13.84
-11.65
-8.73
-5.42
-2.01
1.27
4.23
6.76
8.74
10.07
10.73
10.84
10.59
10.24
9.97
9.83
9.76
9.65
9.45
9.16
8.85
8.60
8.40
8.18
7.86
7.38
6.76
6.06
5.31
4.50
3.53
2.33
0.93
-0.55
-1.90
-2.98
-3.77
-4.37
-4.96
-5.71
-6.70
-7.93
-9.38
-10.99
-12.67
-14.22
-15.33
-15.66
-14.98
-13.23
-10.56
-7.32
-3.87
-0.54
2.45
4.99
7.01
8.45
9.25
9.45
9.15
8.56
7.91
7.40
7.17
7.20
7.41
7.71
8.00
8.26
8.48
8.65
8.67
8.47
7.97
7.16
6.10
4.94
3.81
2.81
1.93
1.13
0.31
-0.56
-1.46
-2.34
-3.14
-3.84
-4.51
-5.24
-6.15
-7.27
-8.64
-10.18
-11.80
-13.30
-14.46
-14.99
-14.65
-13.30
-11.03
-8.10
-4.88
-1.72
1.13
3.59
5.61
7.20
8.28
8.82
8.85
8.49
7.94
7.39
6.96
6.68
6.52
6.50
6.60
6.82
7.09
7.28
7.30
7.07
6.64
6.08
5.47
4.83
4.16
3.44
2.68
1.90
1.10
0.25
-0.68
-1.75
-2.91
-4.06
-5.06
-5.85
-6.46
-7.01
-7.70
-8.68
-10.02
-11.59
-13.17
-14.40
-15.01
-14.78
-13.70
-11.88
-9.53
-6.90
-4.22
-1.69
0.55
2.38
3.77
4.70
5.17
5.24
4.98
4.51
3.96
3.50
3.24
3.25
3.49
3.84
4.20
4.47
4.62
4.66
4.60
4.45
4.19
3.82
3.31
2.67
1.93
1.10
0.21
-0.71
-1.66
-2.63
-3.60
-4.56
-5.50
-6.44
-7.42
-8.50
-9.74
-11.10
-12.47
-13.63
-14.34
-14.39
-13.68
-12.23
-10.18
-7.73
-5.11
-2.50
-0.04
2.15
4.01
5.47
6.47
7.02
7.14
6.94
6.55
6.14
5.85
5.77
5.88
6.14
6.41
6.60
6.64
6.51
6.24
5.86
5.39
4.83
4.17
3.41
2.60
1.76
0.94
0.12
-0.72
-1.59
-2.50
-3.41
-4.27
-5.05
-5.80
-6.62
-7.61
-8.82
-10.12
-11.28
-11.96
-11.88
-10.91
-9.11
-6.71
-4.02
-1.32
1.19
3.41
5.28
6.72
7.61
7.87
7.48
6.55
5.33
4.08
3.01
2.21
1.65
1.22
0.83
0.46
0.11
-0.21
-0.48
-0.71
-0.89
-0.93
-0.72
-0.19
0.61
1.47
2.10
2.20
1.59
0.31
-1.44
-3.32
-4.99
-6.23
-6.99
-7.40
-7.67
-8.02
-8.52
-9.06
-9.43
-9.35
-8.65
-7.33
-5.47
-3.26
-0.81
1.81
4.56
7.31
9.86
11.91
13.19
13.57
13.14
12.10
10.73
9.31
8.02
7.02
6.36
6.05
5.99
6.05
6.05
5.85
5.45
4.93
4.42
4.03
3.76
3.54
3.21
2.65
1.81
0.68
-0.66
-2.11
-3.58
-4.99
-6.29
-7.48
-8.61
-9.79
-11.08
-12.51
-13.97
-15.25
-16.09
-16.27
-15.71
-14.48
-12.78
-10.84
-8.87
-7.03
-5.37
-3.96
-2.86
-2.13
-1.80
-1.83
-2.09
-2.42
-2.65
-2.65
-2.43
-2.03
-1.56
-1.13
-0.76
-0.46
-0.19
0.09
0.37
0.62
0.78
0.80
0.64
0.29
-0.27
-1.02
-1.93
-2.93
-3.94
-4.94
-5.98
-7.18
-8.62
-10.30
-12.04
-13.50
-14.30
-14.16
-13.00
-10.99
-8.44
-5.69
-2.97
-0.39
2.02
4.23
6.18
7.78
8.91
9.56
9.79
9.77
9.66
9.60
9.61
9.66
9.67
9.60
9.44
9.26
9.14
9.12
9.16
9.13
8.86
8.21
7.20
5.92
4.60
3.40
2.42
1.55
0.62
-0.52
-1.91
-3.44
-4.96
-6.34
-7.53
-8.50
-9.22
-9.57
-9.36
-8.49
-6.96
-4.94
-2.68
-0.42
1.67
3.49
4.92
5.88
6.31
6.26
5.88
5.40
5.06
4.98
5.15
5.49
5.88
6.25
6.53
6.69
6.69
6.47
5.99
5.29
4.46
3.61
2.83
2.14
1.50
0.82
0.06
-0.81
-1.73
-2.65
-3.52
-4.40
-5.40
-6.61
-8.01
-9.38
-10.35
-10.54
-9.76
-8.07
-5.80
-3.35
-1.03
1.02
2.82
4.42
5.77
6.73
7.16
7.05
6.53
5.86
5.27
4.88
4.68
4.61
4.58
4.60
4.67
4.79
4.90
4.91
4.77
4.45
4.01
3.49
2.90
2.21
1.40
0.49
-0.45
-1.31
-2.00
-2.53
-2.98
-3.47
-4.12
-5.00
-6.12
-7.39
-8.64
-9.61
-9.99
-9.54
-8.20
-6.12
-3.63
-1.13
1.07
2.85
4.22
5.21
5.87
6.18
6.13
5.81
5.40
5.08
4.99
5.11
5.33
5.49
5.46
5.20
4.77
4.30
3.87
3.55
3.28
2.95
2.42
1.61
0.54
-0.67
-1.83
-2.81
-3.55
-4.11
-4.62
-5.17
-5.85
-6.64
-7.58
-8.66
-9.86
-11.04
-11.96
-12.31
-11.81
-10.35
-8.07
-5.31
-2.45
0.15
2.27
3.86
4.95
5.63
5.96
6.00
5.85
5.57
5.28
5.05
4.90
4.83
4.83
4.85
4.87
4.88
4.85
4.78
4.67
4.47
4.12
3.56
2.78
1.84
0.88
0.06
-0.52
-0.90
-1.25
-1.76
-2.61
-3.83
-5.33
-6.91
-8.36
-9.46
-10.02
-9.91
-9.09
-7.62
-5.66
-3.44
-1.20
0.89
2.72
4.28
5.54
6.46
7.02
7.20
7.02
6.61
6.11
5.66
5.36
5.27
5.35
5.55
5.79
6.00
6.13
6.16
6.06
5.83
5.47
4.99
4.42
3.75
2.98
2.11
1.17
0.20
-0.73
-1.64
-2.59
-3.70
-5.07
-6.64
-8.18
-9.35
-9.83
-9.44
-8.21
-6.32
-4.05
-1.60
0.85
3.22
5.39
7.20
8.49
9.18
9.31
9.04
8.60
8.15
7.77
7.44
7.08
6.64
6.14
5.67
5.31
5.11
5.02
4.93
4.69
4.19
3.40
2.36
1.16
-0.09
-1.30
-2.40
-3.38
-4.22
-4.96
-5.69
-6.47
-7.38
-8.43
-9.61
-10.80
-11.84
-12.52
-12.62
-11.97
-10.54
-8.43
-5.91
-3.27
-0.77
1.43
3.23
4.62
5.58
6.12
6.29
6.19
6.02
5.95
6.08
6.39
6.73
6.92
6.85
6.49
5.97
5.45
5.04
4.76
4.52
4.24
3.83
3.31
2.74
2.14
1.54
0.86
0.04
-0.94
-2.04
-3.20
-4.31
-5.35
-6.35
-7.36
-8.44
-9.55
-10.57
-11.29
-11.51
-11.05
-9.90
-8.16
-6.07
-3.87
-1.78
0.08
1.67
2.98
3.97
4.61
4.85
4.73
4.35
3.85
3.38
3.00
2.73
2.55
2.41
2.32
2.28
2.31
2.36
2.41
2.41
2.35
2.21
1.99
1.64
1.09
0.28
-0.79
-2.07
-3.46
-4.85
-6.15
-7.31
-8.31
-9.13
-9.80
-10.35
-10.85
-11.34
-11.82
-12.18
-12.22
-11.73
-10.58
-8.75
-6.39
-3.75
-1.09
1.36
3.44
5.06
6.16
6.77
6.96
6.93
6.92
7.20
7.94
9.15
10.65
12.14
13.30
13.91
13.87
13.21
12.06
10.55
8.79
6.83
4.76
2.67
0.67
-1.07
-2.37
-3.09
-3.19
-2.75
-1.97
-1.16
-0.58
-0.39
-0.65
-1.25
-2.01
-2.72
-3.15
-3.14
-2.59
-1.51
0.05
2.01
4.37
7.26
11.00
15.86
21.91
28.77
35.54
41.05
44.28
44.79
42.92
39.62
35.94
32.61
29.78
27.17
24.42
21.41
18.34
15.56
13.23
11.21
9.12
6.56
3.42
-0.17
-3.83
-7.23
-10.20
-12.82
-15.33
-18.05
-21.27
-25.11
-29.50
-34.12
-38.42
-41.80
-43.65
-43.56
-41.44
-37.55
-32.40
-26.69
-21.11
-16.23
-12.36
-9.49
-7.37
-5.62
-3.88
-1.95
0.21
2.49
4.70
6.66
8.23
9.31
9.88
10.04
9.96
9.89
10.04
10.48
11.07
11.51
11.43
10.53
8.71
6.07
2.89
-0.46
-3.61
-6.27
-8.30
-9.73
-10.72
-11.50
-12.32
-13.36
-14.75
-16.48
-18.43
-20.36
-21.89
-22.58
-22.14
-20.49
-17.81
-14.53
-11.13
-7.99
-5.27
-3.00
-1.07
0.56
1.88
2.89
3.56
3.92
4.00
3.85
3.53
3.12
2.78
2.63
2.80
3.24
3.82
4.30
4.51
4.40
4.02
3.50
2.95
2.35
1.65
0.79
-0.19
-1.20
-2.06
-2.66
-2.99
-3.13
-3.25
-3.50
-3.99
-4.68
-5.44
-6.06
-6.28
-5.84
-4.50
-2.12
1.28
5.57
10.46
15.58
20.58
25.22
29.36
32.96
36.02
38.49
40.29
41.27
41.28
40.24
38.24
35.55
32.60
29.92
28.01
27.25
27.84
29.77
32.91
37.00
41.74
46.71
51.45
55.42
58.16
59.43
59.30
58.17
56.63
55.27
54.48
54.26
54.31
54.12
53.24
51.44
48.81
45.71
42.66
40.14
38.42
37.51
37.15
36.94
36.44
35.29
33.36
30.73
27.64
24.46
21.47
18.81
16.41
14.01
11.28
7.90
3.72
-1.24
-6.76
-12.48
-17.92
-22.70
-26.64
-29.82
-32.68
-35.79
-39.64
-44.44
-49.98
-55.76
-61.23
-66.01
-70.02
-73.38
-76.28
-78.84
-81.12
-83.20
-85.21
-87.39
-89.88
-92.59
-95.09
-96.72
-96.80
-94.92
-91.09
-85.76
-79.66
-73.57
-68.04
-63.31
-59.33
-55.88
-52.70
-49.68
-46.87
-44.46
-42.65
-41.55
-41.13
-41.19
-41.45
-41.60
-41.41
-40.71
-39.44
-37.64
-35.42
-32.94
-30.39
-27.93
-25.71
-23.84
-22.40
-21.40
-20.80
-20.52
-20.43
-20.44
-20.58
-20.92
-21.49
-22.14
-22.47
-21.92
-19.97
-16.37
-11.29
-5.20
1.21
7.39
12.93
17.66
21.48
24.33
26.09
26.70
26.27
25.03
23.40
21.73
20.27
19.02
17.83
16.51
14.93
13.13
11.24
9.48
7.98
6.70
5.50
4.18
2.61
0.80
-1.10
-2.93
-4.56
-6.04
-7.55
-9.35
-11.70
-14.72
-18.33
-22.29
-26.20
-29.61
-32.12
-33.41
-33.31
-31.87
-29.28
-25.87
-22.02
-18.13
-14.49
-11.31
-8.69
-6.60
-4.94
-3.54
-2.26
-1.00
0.25
1.45
2.54
3.51
4.42
5.34
6.32
7.32
8.19
8.76
8.86
8.43
7.53
6.27
4.84
3.40
2.09
0.95
-0.05
-1.06
-2.23
-3.69
-5.39
-7.10
-8.44
-9.00
-8.49
-6.80
-4.03
-0.44
3.62
7.78
11.71
15.10
17.73
19.50
20.46
20.83
20.90
20.94
21.10
21.41
21.76
22.03
22.17
22.17
22.13
22.16
22.28
22.46
22.53
22.33
21.72
20.68
19.32
17.77
16.19
14.62
13.03
11.35
9.44
7.24
4.72
1.94
-0.94
-3.67
-5.89
-7.24
-7.44
-6.37
-4.09
-0.89
2.87
6.78
10.48
13.65
16.07
17.67
18.47
18.67
18.49
18.18
17.91
17.74
17.64
17.55
17.43
17.28
17.14
17.06
17.09
17.20
17.36
17.46
17.35
16.89
15.96
14.54
12.72
10.69
8.65
6.78
5.10
3.54
1.92
0.07
-2.09
-4.49
-6.98
-9.28
-11.09
-12.13
-12.17
-11.09
-8.96
-5.99
-2.52
1.05
4.38
7.21
9.44
11.02
12.00
12.45
12.48
12.28
12.05
11.93
12.00
12.18
12.37
12.47
12.44
12.33
12.16
11.94
11.57
10.95
10.01
8.80
7.44
6.08
4.78
3.50
2.18
0.75
-0.77
-2.33
-3.84
-5.32
-6.86
-8.55
-10.36
-12.04
-13.16
-13.26
-12.00
-9.38
-5.73
-1.63
2.34
5.75
8.42
10.39
11.77
12.65
13.04
12.96
12.52
11.88
11.26
10.80
10.53
10.35
10.12
9.74
9.23
8.69
8.20
7.77
7.32
6.71
5.80
4.52
2.91
1.16
-0.56
-2.06
-3.30
-4.37
-5.44
-6.72
-8.36
-10.39
-12.68
-14.96
-16.83
-17.81
-17.54
-15.80
-12.70
-8.60
-4.05
0.34
4.11
7.00
8.96
10.10
10.60
10.64
10.40
10.06
9.76
9.62
9.69
9.96
10.36
10.77
11.08
11.23
11.20
11.01
10.69
10.26
9.64
8.75
7.51
5.88
3.95
1.90
-0.05
-1.73
-3.09
-4.22
-5.29
-6.47
-7.87
-9.53
-11.40
-13.37
-15.28
-16.91
-17.96
-18.09
-17.03
-14.71
-11.30
-7.23
-3.00
0.94
4.29
6.93
8.89
10.22
11.01
11.30
11.18
10.80
10.35
10.00
9.90
10.06
10.41
10.81
11.12
11.24
11.15
10.84
10.39
9.84
9.25
8.58
7.78
6.77
5.52
4.09
2.60
1.16
-0.15
-1.36
-2.57
-3.90
-5.41
-7.10
-8.91
-10.81
-12.70
-14.40
-15.67
-16.17
-15.64
-13.97
-11.30
-7.96
-4.32
-0.75
2.54
5.44
7.91
9.93
11.43
12.33
12.61
12.34
11.69
10.90
10.19
9.74
9.61
9.74
9.99
10.19
10.21
9.97
9.49
8.82
8.04
7.21
6.33
5.39
4.36
3.22
1.98
0.69
-0.58
-1.77
-2.84
-3.81
-4.70
-5.58
-6.49
-7.49
-8.65
-10.05
-11.73
-13.64
-15.56
-17.11
-17.89
-17.53
-15.91
-13.15
-9.58
-5.64
-1.75
1.79
4.78
7.12
8.78
9.73
9.99
9.65
8.87
7.87
6.90
6.13
5.70
5.55
5.59
5.68
5.70
5.64
5.50
5.33
5.12
4.86
4.54
4.14
3.62
2.93
2.02
0.84
-0.54
-2.04
-3.48
-4.75
-5.80
-6.63
-7.33
-7.99
-8.67
-9.45
-10.42
-11.61
-13.00
-14.38
-15.45
-15.84
-15.22
-13.47
-10.72
-7.31
-3.67
-0.24
2.70
5.02
6.75
7.96
8.74
9.09
9.04
8.65
8.03
7.38
6.87
6.57
6.46
6.38
6.21
5.92
5.57
5.27
5.10
5.05
5.05
4.97
4.75
4.31
3.64
2.70
1.48
0.03
-1.55
-3.07
-4.35
-5.28
-5.91
-6.41
-7.05
-8.06
-9.55
-11.41
-13.39
-15.14
-16.29
-16.59
-15.92
-14.35
-12.04
-9.26
-6.31
-3.46
-0.90
1.25
2.91
4.05
4.66
4.75
4.39
3.71
2.93
2.29
1.98
2.08
2.52
3.16
3.77
4.20
4.36
4.28
4.03
3.75
3.50
3.29
3.05
2.63
1.95
0.98
-0.18
-1.39
-2.48
-3.42
-4.31
-5.34
-6.70
-8.44
-10.44
-12.42
-14.02
-14.92
-14.93
-14.02
-12.28
-9.88
-7.04
-4.02
-1.07
1.57
3.68
5.15
5.96
6.21
6.08
5.76
5.40
5.07
4.80
4.56
4.34
4.18
4.09
4.08
4.06
3.93
3.60
3.05
2.38
1.72
1.14
0.61
0.01
-0.79
-1.85
-3.09
-4.38
-5.64
-6.83
-8.07
-9.45
-10.99
-12.56
-13.86
-14.54
-14.33
-13.10
-10.98
-8.22
-5.22
-2.32
0.21
2.25
3.76
4.76
5.26
5.32
5.01
4.47
3.87
3.35
3.02
2.87
2.85
2.85
2.81
2.68
2.45
2.10
1.62
1.01
0.31
-0.42
-1.12
-1.80
-2.49
-3.29
-4.28
-5.53
-7.04
-8.79
-10.68
-12.57
-14.20
-15.26
-15.43
-14.53
-12.58
-9.84
-6.67
-3.47
-0.48
2.18
4.48
6.38
7.82
8.70
8.98
8.71
8.06
7.27
6.57
6.10
5.95
6.06
6.32
6.58
6.71
6.61
6.23
5.56
4.63
3.48
2.21
0.88
-0.43
-1.65
-2.80
-3.94
-5.17
-6.58
-8.22
-10.05
-11.91
-13.55
-14.68
-14.99
-14.23
-12.33
-9.40
-5.74
-1.79
2.02
5.34
7.97
9.87
11.05
11.57
11.49
10.93
10.07
9.15
8.37
7.84
7.54
7.37
7.20
6.97
6.69
6.41
6.11
5.72
5.12
4.24
3.12
1.93
0.85
-0.01
-0.70
-1.35
-2.13
-3.17
-4.52
-6.11
-7.86
-9.58
-11.08
-12.08
-12.29
-11.51
-9.69
-6.98
-3.72
-0.32
2.87
5.61
7.82
9.47
10.58
11.14
11.16
10.70
9.87
8.92
8.08
7.52
7.26
7.20
7.17
7.05
6.83
6.56
6.30
6.09
5.83
5.40
4.72
3.75
2.57
1.30
0.03
-1.17
-2.30
-3.42
-4.56
-5.77
-7.06
-8.45
-9.93
-11.43
-12.74
-13.60
-13.66
-12.72
-10.76
-8.03
-4.89
-1.74
1.17
3.70
5.82
7.46
8.48
8.77
8.31
7.33
6.20
5.32
4.94
5.04
5.42
5.80
6.03
6.07
6.02
5.95
5.91
5.81
5.56
5.08
4.36
3.41
2.29
1.03
-0.33
-1.79
-3.28
-4.71
-6.00
-7.09
-8.04
-8.98
-10.03
-11.24
-12.46
-13.38
-13.61
-12.83
-10.94
-8.14
-4.81
-1.41
1.69
4.28
6.29
7.73
8.62
8.93
8.70
8.02
7.11
6.26
5.72
5.56
5.70
5.88
5.88
5.60
5.09
4.48
3.92
3.45
2.98
2.39
1.56
0.50
-0.72
-1.98
-3.13
-4.07
-4.75
-5.19
-5.50
-5.84
-6.37
-7.22
-8.42
-9.92
-11.54
-13.04
-14.10
-14.36
-13.57
-11.63
-8.70
-5.15
-1.49
1.82
4.48
6.41
7.74
8.63
9.20
9.48
9.44
9.08
8.47
7.76
7.16
6.83
6.83
7.10
7.48
7.78
7.81
7.46
6.75
5.78
4.72
3.72
2.87
2.12
1.38
0.55
-0.35
-1.25
-2.03
-2.64
-3.15
-3.74
-4.57
-5.73
-7.21
-8.88
-10.60
-12.18
-13.46
-14.18
-14.12
-13.07
-11.01
-8.16
-4.91
-1.69
1.12
3.39
5.12
6.41
7.33
7.90
8.11
7.97
7.62
7.23
6.95
6.87
6.94
7.06
7.14
7.15
7.12
7.11
7.11
7.02
6.75
6.22
5.43
4.44
3.36
2.29
1.26
0.28
-0.68
-1.61
-2.45
-3.15
-3.70
-4.14
-4.57
-5.12
-5.91
-7.03
-8.50
-10.23
-12.07
-13.73
-14.90
-15.23
-14.50
-12.66
-9.91
-6.62
-3.23
-0.12
2.49
4.55
6.11
7.22
7.93
8.22
8.09
7.61
6.92
6.23
5.73
5.53
5.60
5.82
6.05
6.14
6.05
5.80
5.45
5.02
4.53
3.99
3.37
2.71
2.02
1.28
0.44
-0.55
-1.71
-2.97
-4.18
-5.20
-5.91
-6.38
-6.75
-7.25
-8.03
-9.13
-10.41
-11.66
-12.67
-13.26
-13.31
-12.76
-11.58
-9.78
-7.46
-4.77
-1.92
0.87
3.43
5.63
7.38
8.58
9.13
9.02
8.36
7.36
6.38
5.71
5.52
5.78
6.26
6.67
6.78
6.51
5.95
5.25
4.56
3.90
3.26
2.57
1.80
0.99
0.17
-0.62
-1.42
-2.26
-3.16
-4.11
-5.03
-5.87
-6.61
-7.35
-8.20
-9.27
-10.58
-11.98
-13.25
-14.10
-14.28
-13.65
-12.21
-10.05
-7.31
-4.17
-0.82
2.54
5.72
8.52
10.74
12.26
13.02
13.09
12.65
11.94
11.25
10.75
10.50
10.44
10.42
10.29
9.98
9.45
8.75
7.92
7.04
6.17
5.33
4.55
3.79
3.02
2.20
1.27
0.20
-0.99
-2.32
-3.76
-5.24
-6.70
-8.09
-9.42
-10.74
-12.11
-13.59
-15.08
-16.34
-17.03
-16.85
-15.61
-13.35
-10.30
-6.83
-3.30
0.02
2.95
5.41
7.36
8.74
9.50
9.64
9.25
8.49
7.57
6.68
5.94
5.38
4.94
4.53
4.06
3.47
2.75
1.96
1.17
0.48
-0.08
-0.51
-0.90
-1.38
-2.04
-2.90
-3.84
-4.69
-5.31
-5.66
-5.84
-6.03
-6.40
-7.06
-8.01
-9.15
-10.34
-11.38
-12.05
-12.07
-11.23
-9.42
-6.73
-3.44
0.03
3.29
6.06
8.20
9.74
10.73
11.21
11.20
10.78
10.06
9.25
8.59
8.21
8.15
8.25
8.33
8.22
7.87
7.34
6.76
6.25
5.83
5.46
5.05
4.50
3.76
2.79
1.62
0.28
-1.15
-2.59
-3.95
-5.18
-6.27
-7.29
-8.34
-9.51
-10.80
-12.20
-13.56
-14.70
-15.38
-15.35
-14.41
-12.50
-9.77
-6.52
-3.16
-0.07
2.51
4.51
5.97
6.98
7.56
7.70
7.40
6.76
5.99
5.33
4.99
5.04
5.36
5.73
5.95
5.88
5.53
5.01
4.50
4.16
4.01
3.96
3.84
3.44
2.66
1.53
0.23
-0.94
-1.77
-2.13
-2.14
-2.09
-2.36
-3.26
-4.83
-6.85
-8.77
-9.98
-9.98
-8.64
-6.19
-3.20
-0.25
2.28
4.37
6.35
8.72
11.94
16.25
21.65
27.86
34.22
39.76
43.24
43.50
39.97
33.05
24.10
15.03
7.56
2.62
0.05
-1.04
-1.70
-2.60
-3.86
-5.24
-6.55
-7.80
-9.24
-11.06
-13.23
-15.47
-17.36
-18.64
-19.35
-19.82
-20.51
-21.73
-23.46
-25.27
-26.53
-26.63
-25.24
-22.44
-18.65
-14.47
-10.49
-7.08
-4.42
-2.48
-1.11
-0.17
0.49
0.97
1.33
1.56
1.66
1.63
1.48
1.26
1.05
0.93
0.92
1.04
1.25
1.47
1.58
1.48
1.13
0.53
-0.25
-1.11
-1.98
-2.82
-3.63
-4.44
-5.30
-6.28
-7.47
-8.94
-10.72
-12.70
-14.59
-16.03
-16.61
-16.02
-14.19
-11.31
-7.78
-4.08
-0.62
2.33
4.69
6.48
7.75
8.52
8.78
8.57
7.97
7.20
6.53
6.15
6.12
6.33
6.57
6.65
6.49
6.15
5.81
5.58
5.43
5.23
4.79
3.99
2.84
1.51
0.17
-1.03
-2.01
-2.84
-3.58
-4.39
-5.38
-6.67
-8.28
-10.09
-11.83
-13.12
-13.62
-13.10
-11.55
-9.21
-6.39
-3.44
-0.64
1.86
3.97
5.63
6.78
7.43
7.56
7.28
6.71
6.06
5.51
5.22
5.21
5.40
5.64
5.81
5.85
5.80
5.74
5.70
5.65
5.48
5.04
4.30
3.28
2.11
0.92
-0.19
-1.21
-2.14
-3.02
-3.91
-4.86
-5.94
-7.19
-8.59
-10.05
-11.35
-12.23
-12.40
-11.66
-9.96
-7.42
-4.32
-1.05
2.04
4.65
6.62
7.91
8.55
8.65
8.33
7.74
7.03
6.38
5.96
5.85
6.04
6.43
6.85
7.13
7.14
6.86
6.37
5.81
5.26
4.74
4.18
3.45
2.45
1.20
-0.16
-1.45
-2.52
-3.36
-4.05
-4.74
-5.57
-6.66
-8.02
-9.54
-11.04
-12.26
-12.91
-12.75
-11.70
-9.83
-7.33
-4.45
-1.45
1.48
4.13
6.29
7.76
8.40
8.27
7.56
6.63
5.79
5.25
5.01
4.98
5.03
5.09
5.16
5.27
5.38
5.43
5.30
4.94
4.34
3.57
2.72
1.84
0.92
-0.06
-1.09
-2.12
-3.12
-4.08
-5.08
-6.26
-7.75
-9.55
-11.51
-13.31
-14.57
-14.94
-14.24
-12.45
-9.77
-6.50
-3.01
0.39
3.47
6.08
8.13
9.58
10.39
10.59
10.27
9.62
8.90
8.33
8.07
8.12
8.33
8.51
8.50
8.27
7.86
7.37
6.86
6.29
5.57
4.60
3.37
1.93
0.40
-1.14
-2.65
-4.17
-5.72
-7.27
-8.81
-10.25
-11.55
-12.68
-13.58
-14.14
-14.20
-13.59
-12.16
-9.86
-6.78
-3.16
0.66
4.29
7.36
9.62
10.98
11.56
11.55
11.19
10.70
10.21
9.83
9.60
9.55
9.64
9.77
9.78
9.55
9.04
8.30
7.46
6.62
5.79
4.90
3.88
2.70
1.42
0.20
-0.82
-1.53
-1.95
-2.22
-2.61
-3.45
-5.04
-7.49
-10.62
-13.96
-16.82
-18.53
-18.60
-16.94
-13.83
-9.82
-5.53
-1.49
1.94
4.60
6.43
7.41
7.59
7.07
6.09
4.97
4.06
3.59
3.61
3.96
4.37
4.58
4.46
4.10
3.66
3.34
3.21
3.21
3.18
2.93
2.36
1.48
0.43
-0.59
-1.42
-1.99
-2.38
-2.77
-3.36
-4.31
-5.64
-7.29
-9.10
-10.85
-12.27
-13.07
-12.99
-11.90
-9.84
-7.07
-4.01
-1.08
1.41
3.34
4.77
5.83
6.59
7.05
7.11
6.76
6.05
5.19
4.39
3.86
3.64
3.67
3.84
4.02
4.14
4.20
4.21
4.18
4.07
3.83
3.41
2.78
1.92
0.87
-0.29
-1.45
-2.48
-3.28
-3.88
-4.40
-5.03
-5.94
-7.22
-8.78
-10.38
-11.70
-12.42
-12.28
-11.18
-9.15
-6.38
-3.19
0.09
3.16
5.80
7.90
9.44
10.46
11.00
11.17
11.04
10.72
10.30
9.80
9.24
8.61
7.93
7.29
6.73
6.27
5.87
5.43
4.88
4.18
3.35
2.43
1.44
0.35
-0.86
-2.21
-3.65
-5.08
-6.39
-7.54
-8.58
-9.60
-10.72
-11.94
-13.14
-14.05
-14.37
-13.85
-12.39
-10.10
-7.24
-4.12
-1.04
1.78
4.23
6.30
7.97
9.22
10.02
10.32
10.14
9.57
8.79
7.99
7.33
6.85
6.49
6.10
5.55
4.78
3.81
2.77
1.75
0.82
-0.06
-0.94
-1.91
-2.99
-4.16
-5.35
-6.48
-7.50
-8.40
-9.18
-9.87
-10.53
-11.23
-12.07
-13.11
-14.31
-15.47
-16.29
-16.45
-15.71
-14.02
-11.52
-8.49
-5.29
-2.19
0.57
2.87
4.62
5.75
6.26
6.19
5.70
5.01
4.36
3.95
3.87
4.08
4.42
4.75
4.93
4.94
4.84
4.73
4.72
4.87
5.15
5.49
5.75
5.79
5.53
4.96
4.16
3.24
2.33
1.50
0.79
0.16
-0.49
-1.22
-2.11
-3.19
-4.47
-5.88
-7.27
-8.41
-9.02
-8.85
-7.78
-5.86
-3.34
-0.52
2.34
5.04
7.49
9.61
11.26
12.24
12.38
11.65
10.25
8.62
7.24
6.47
6.40
6.87
7.52
8.04
8.26
8.21
8.01
7.74
7.42
6.97
6.27
5.28
4.05
2.67
1.25
-0.14
-1.49
-2.73
-3.83
-4.76
-5.51
-6.12
-6.68
-7.29
-8.06
-8.99
-10.02
-11.00
-11.70
-11.89
-11.37
-10.07
-8.04
-5.42
-2.41
0.81
4.01
6.99
9.54
11.47
12.70
13.29
13.39
13.25
13.05
12.88
12.73
12.49
12.02
11.24
10.15
8.79
7.25
5.58
3.79
1.89
-0.11
-2.12
-3.98
-5.49
-6.54
-7.14
-7.47
-7.78
-8.28
-9.04
-9.99
-10.93
-11.74
-12.35
-12.79
-13.11
-13.25
-13.05
-12.27
-10.72
-8.42
-5.55
-2.46
0.50
3.07
5.15
6.72
7.83
8.50
8.69
8.37
7.54
6.29
4.82
3.37
2.17
1.37
0.97
0.87
0.84
0.71
0.37
-0.18
-0.84
-1.50
-2.13
-2.79
-3.60
-4.64
-5.90
-7.26
-8.52
-9.57
-10.37
-11.10
-11.96
-13.14
-14.64
-16.23
-17.51
-18.06
-17.59
-16.08
-13.75
-10.93
-7.97
-5.09
-2.41
0.04
2.21
3.98
5.22
5.84
5.86
5.44
4.79
4.16
3.72
3.58
3.73
4.09
4.54
4.95
5.21
5.28
5.19
5.02
4.85
4.73
4.69
4.72
4.82
4.97
5.18
5.41
5.58
5.60
5.38
4.84
4.03
3.03
1.98
0.97
0.08
-0.72
-1.47
-2.22
-3.05
-3.99
-5.09
-6.34
-7.70
-9.03
-10.13
-10.73
-10.61
-9.65
-7.88
-5.48
-2.67
0.26
3.08
5.56
7.54
8.92
9.72
10.02
9.93
9.55
8.95
8.19
7.38
6.68
6.29
6.31
6.72
7.36
7.97
8.31
8.26
7.83
7.12
6.23
5.25
4.23
3.21
2.24
1.36
0.61
0.01
-0.48
-0.90
-1.36
-1.96
-2.72
-3.60
-4.42
-4.90
-4.83
-4.06
-2.61
-0.66
1.56
3.84
6.07
8.19
10.16
11.91
13.30
14.20
14.49
14.15
13.20
11.71
9.79
7.55
5.20
2.94
0.98
-0.54
-1.59
-2.24
-2.62
-2.85
-3.06
-3.33
-3.78
-4.47
-5.42
-6.57
-7.78
-8.88
-9.77
-10.45
-10.99
-11.51
-12.10
-12.81
-13.61
-14.41
-15.12
-15.55
-15.48
-14.70
-13.08
-10.68
-7.69
-4.47
-1.40
1.22
3.23
4.58
5.31
5.53
5.38
5.01
4.59
4.25
4.02
3.84
3.62
3.28
2.86
2.45
2.18
2.10
2.17
2.24
2.13
1.72
1.02
0.13
-0.82
-1.77
-2.71
-3.72
-4.89
-6.24
-7.70
-9.12
-10.31
-11.06
-11.24
-10.76
-9.61
-7.79
-5.42
-2.69
0.16
2.86
5.21
7.10
8.52
9.49
10.02
10.10
9.75
9.05
8.19
7.39
6.82
6.51
6.40
6.33
6.18
5.88
5.40
4.73
3.84
2.72
1.37
-0.13
-1.69
-3.24
-4.73
-6.17
-7.60
-9.09
-10.67
-12.35
-14.04
-15.50
-16.42
-16.48
-15.46
-13.41
-10.57
-7.36
-4.17
-1.30
1.12
3.10
4.66
5.86
6.71
7.20
7.36
7.22
6.86
6.34
5.74
5.16
4.67
4.34
4.16
4.11
4.08
3.98
3.68
3.12
2.27
1.16
-0.13
-1.50
-2.84
-4.10
-5.30
-6.55
-7.97
-9.62
-11.40
-13.09
-14.30
-14.67
-13.95
-12.07
-9.20
-5.69
-2.00
1.45
4.33
6.43
7.74
8.36
8.45
8.26
7.97
7.72
7.54
7.40
7.22
6.92
6.47
5.90
5.31
4.78
4.36
4.01
3.66
3.23
2.67
1.99
1.24
0.43
-0.42
-1.34
-2.38
-3.55
-4.85
-6.24
-7.61
-8.85
-9.79
-10.30
-10.29
-9.70
-8.52
-6.79
-4.60
-2.07
0.62
3.25
5.60
7.47
8.73
9.34
9.31
8.75
7.78
6.53
5.17
3.88
2.80
2.05
1.64
1.50
1.48
1.40
1.13
0.64
0.03
-0.58
-1.07
-1.42
-1.74
-2.17
-2.82
-3.67
-4.66
-5.70
-6.75
-7.83
-9.00
-10.23
-11.35
-12.07
-12.07
-11.15
-9.31
-6.75
-3.76
-0.68
2.27
4.93
7.20
9.01
10.27
10.93
11.03
10.67
10.05
9.43
9.02
8.90
9.02
9.24
9.35
9.23
8.90
8.49
8.15
7.98
7.94
7.89
7.64
7.08
6.20
5.12
4.01
3.05
2.38
2.03
1.90
1.76
1.29
0.15
-1.88
-4.76
-8.18
-11.58
-14.36
-15.99
-16.25
-15.24
-13.36
-11.08
-8.86
-6.92
-5.29
-3.86
-2.49
-1.09
0.32
1.64
2.82
3.90
5.05
6.54
8.60
11.31
14.53
17.92
21.04
23.52
25.22
26.33
27.30
28.75
31.24
35.06
40.05
45.62
50.89
55.06
57.74
59.18
60.20
61.88
65.17
70.55
77.81
86.04
93.79
99.40
101.44
99.28
93.34
85.09
76.51
69.39
64.65
62.15
61.02
60.21
59.00
57.20
54.89
52.15
48.83
44.63
39.25
32.57
24.80
16.34
7.69
-0.70
-8.57
-15.93
-23.15
-30.86
-39.72
-50.04
-61.54
-73.23
-83.70
-91.79
-97.16
-100.70
-104.45
-110.91
-122.19
-139.14
-160.94
-185.24
-208.45
-226.54
-235.86
-234.11
-221.02
-198.62
-170.71
-141.76
-115.55
-94.25
-78.24
-66.64
-58.19
-51.89
-47.10
-43.32
-39.87
-35.86
-30.55
-23.75
-15.96
-8.16
-1.38
3.69
6.99
9.00
10.49
12.13
14.23
16.65
18.93
20.50
21.04
20.55
19.36
17.96
16.77
15.95
15.41
14.88
14.03
12.68
10.86
8.89
7.26
6.48
6.90
8.59
11.31
14.61
18.01
21.13
23.77
25.87
27.45
28.53
29.12
29.23
28.91
28.30
27.52
26.72
25.99
25.37
24.86
24.44
24.05
23.66
23.18
22.59
21.85
20.94
19.83
18.53
17.03
15.37
13.56
11.63
9.57
7.39
5.14
2.94
0.94
-0.73
-2.10
-3.34
-4.67
-6.24
-7.99
-9.61
-10.67
-10.81
-9.85
-7.87
-5.16
-2.05
1.13
4.11
6.73
8.85
10.43
11.47
12.03
12.21
12.14
11.91
11.60
11.23
10.86
10.51
10.23
10.06
10.03
10.10
10.19
10.14
9.80
9.08
7.98
6.63
5.22
3.91
2.78
1.83
0.93
-0.05
-1.26
-2.81
-4.75
-7.02
-9.46
-11.76
-13.48
-14.23
-13.72
-11.94
-9.12
-5.66
-1.98
1.54
4.67
7.24
9.15
10.31
10.70
10.44
9.74
8.90
8.17
7.67
7.41
7.27
7.14
6.91
6.55
6.06
5.47
4.77
3.94
2.97
1.86
0.65
-0.58
-1.77
-2.88
-3.93
-4.96
-6.03
-7.20
-8.50
-9.95
-11.57
-13.31
-15.01
-16.38
-17.03
-16.59
-14.85
-11.89
-8.02
-3.74
0.51
4.42
7.90
11.02
13.88
16.55
18.98
21.06
22.72
23.90
24.65
25.03
25.14
25.05
24.81
24.48
24.08
23.65
23.17
22.65
22.05
21.39
20.68
19.96
19.27
18.63
18.10
17.72
17.55
17.60
17.80
17.97
17.86
17.25
16.00
14.21
12.15
10.31
9.16
9.05
10.09
12.07
14.53
16.92
18.66
19.36
18.75
16.75
13.42
8.98
3.72
-1.91
-7.46
-12.48
-16.60
-19.60
-21.37
-22.00
-21.69
-20.79
-19.72
-18.83
-18.41
-18.51
-19.06
-19.83
-20.60
-21.19
-21.50
-21.52
-21.28
-20.85
-20.32
-19.82
-19.44
-19.25
-19.28
-19.52
-19.87
-20.18
-20.22
-19.74
-18.48
-16.28
-13.12
-9.13
-4.56
0.30
5.26
10.12
14.69
18.67
21.65
23.29
23.41
22.12
19.81
16.99
14.08
11.32
8.78
6.44
4.39
2.82
1.96
2.02
2.98
4.61
6.51
8.19
9.25
9.46
8.76
7.27
5.20
2.81
0.34
-2.00
-4.12
-5.99
-7.67
-9.28
-10.93
-12.66
-14.39
-15.90
-16.90
-17.11
-16.36
-14.63
-12.07
-8.92
-5.48
-2.03
1.20
4.00
6.25
7.86
8.83
9.22
9.17
8.82
8.35
7.85
7.38
6.93
6.47
6.05
5.77
5.85
6.48
7.66
9.15
10.49
11.16
10.85
9.63
7.93
6.32
5.20
4.59
4.14
3.37
1.95
-0.15
-2.71
-5.35
-7.79
-9.83
-11.33
-12.13
-11.99
-10.75
-8.38
-5.09
-1.31
2.47
5.87
8.76
11.20
13.37
15.40
17.28
18.81
19.74
19.92
19.36
18.28
16.96
15.68
14.54
13.52
12.45
11.22
9.79
8.20
6.61
5.11
3.71
2.32
0.73
-1.24
-3.70
-6.62
-9.85
-13.19
-16.50
-19.78
-23.07
-26.42
-29.76
-32.89
-35.54
-37.50
-38.68
-39.05
-38.62
-37.32
-35.11
-32.03
-28.29
-24.25
-20.32
-16.78
-13.69
-10.96
-8.40
-5.95
-3.65
-1.60
0.18
1.87
3.70
5.90
8.49
11.23
13.72
15.59
16.65
16.99
16.89
16.67
16.59
16.76
17.10
17.47
17.73
17.73
17.40
16.71
15.69
14.47
13.21
12.10
11.20
10.43
9.53
8.18
6.19
3.59
0.72
-1.91
-3.82
-4.72
-4.55
-3.47
-1.69
0.62
3.27
6.08
8.78
11.06
12.67
13.50
13.65
13.36
12.97
12.75
12.82
13.16
13.61
13.94
13.95
13.53
12.68
11.49
10.09
8.57
6.96
5.21
3.31
1.27
-0.83
-2.86
-4.72
-6.37
-7.82
-9.14
-10.41
-11.71
-13.08
-14.52
-15.90
-17.07
-17.79
-17.87
-17.22
-15.84
-13.86
-11.47
-8.89
-6.31
-3.87
-1.70
0.10
1.46
2.35
2.78
2.84
2.64
2.32
1.97
1.64
1.31
0.94
0.50
-0.02
-0.58
-1.16
-1.77
-2.44
-3.20
-4.04
-4.92
-5.78
-6.64
-7.55
-8.60
-9.81
-11.15
-12.47
-13.60
-14.46
-15.10
-15.65
-16.19
-16.64
-16.71
-16.03
-14.39
-11.85
-8.78
-5.70
-3.03
-0.91
0.79
2.29
3.72
4.99
5.84
6.02
5.47
4.37
3.08
1.96
1.25
0.99
1.06
1.33
1.67
2.02
2.27
2.27
1.86
0.92
-0.50
-2.18
-3.80
-5.09
-5.99
-6.62
-7.26
-8.20
-9.60
-11.43
-13.52
-15.61
-17.39
-18.58
-18.95
-18.41
-16.96
-14.79
-12.12
-9.21
-6.28
-3.49
-0.98
1.13
2.70
3.66
3.98
3.78
3.28
2.75
2.43
2.48
2.95
3.73
4.65
5.51
6.17
6.57
6.70
6.67
6.56
6.47
6.41
6.34
6.15
5.70
4.87
3.58
1.86
-0.20
-2.34
-4.26
-5.57
-5.97
-5.32
-3.65
-1.22
1.57
4.34
6.77
8.74
10.23
11.36
12.19
12.77
13.07
13.04
12.65
11.96
11.11
10.28
9.62
9.15
8.79
8.39
7.83
7.09
6.24
5.43
4.74
4.19
3.67
3.05
2.23
1.15
-0.14
-1.55
-3.05
-4.64
-6.32
-8.08
-9.77
-11.13
-11.84
-11.63
-10.40
-8.28
-5.55
-2.53
0.45
3.18
5.50
7.32
8.58
9.27
9.40
9.07
8.42
7.59
6.76
6.02
5.44
5.02
4.73
4.52
4.38
4.28
4.25
4.26
4.25
4.12
3.77
3.15
2.26
1.14
-0.13
-1.49
-2.89
-4.29
-5.70
-7.13
-8.54
-9.85
-10.86
-11.31
-10.93
-9.60
-7.34
-4.40
-1.11
2.16
5.13
7.63
9.56
10.85
11.50
11.54
11.07
10.25
9.29
8.33
7.48
6.73
6.04
5.38
4.71
4.06
3.43
2.82
2.19
1.50
0.73
-0.09
-0.91
-1.69
-2.43
-3.20
-4.08
-5.11
-6.29
-7.55
-8.83
-10.04
-11.11
-11.93
-12.33
-12.08
-11.03
-9.13
-6.52
-3.51
-0.48
2.22
4.38
5.90
6.82
7.20
7.11
6.65
5.90
5.01
4.09
3.27
2.63
2.17
1.85
1.59
1.33
1.01
0.61
0.13
-0.43
-1.04
-1.67
-2.25
-2.77
-3.21
-3.66
-4.22
-5.01
-6.14
-7.61
-9.33
-11.06
-12.50
-13.32
-13.27
-12.23
-10.26
-7.59
-4.52
-1.38
1.54
4.10
6.19
7.78
8.83
9.28
9.11
8.33
7.08
5.57
4.09
2.90
2.16
1.88
1.92
2.05
2.04
1.75
1.13
0.23
-0.84
-1.94
-2.94
-3.73
-4.23
-4.47
-4.59
-4.82
-5.38
-6.44
-7.95
-9.72
-11.38
-12.55
-12.90
-12.22
-10.51
-7.91
-4.75
-1.42
1.69
4.28
6.18
7.39
8.01
8.23
8.21
8.10
7.98
7.88
7.75
7.52
7.13
6.57
5.91
5.25
4.72
4.39
4.23
4.11
3.82
3.17
2.09
0.64
-0.97
-2.50
-3.73
-4.62
-5.26
-5.86
-6.65
-7.77
-9.18
-10.70
-11.99
-12.69
-12.48
-11.24
-9.03
-6.14
-2.95
0.18
3.02
5.46
7.48
9.01
9.98
10.32
10.07
9.36
8.48
7.72
7.29
7.24
7.47
7.78
7.95
7.85
7.45
6.83
6.11
5.42
4.84
4.39
4.01
3.63
3.15
2.50
1.62
0.50
-0.81
-2.22
-3.56
-4.72
-5.62
-6.35
-7.04
-7.90
-9.00
-10.29
-11.49
-12.26
-12.29
-11.43
-9.73
-7.39
-4.64
-1.71
1.24
4.06
6.56
8.56
9.88
10.49
10.47
10.04
9.46
8.93
8.50
8.16
7.81
7.45
7.10
6.83
6.66
6.55
6.36
5.98
5.36
4.58
3.76
3.01
2.36
1.72
0.99
0.14
-0.79
-1.66
-2.37
-2.91
-3.32
-3.74
-4.28
-4.99
-5.88
-6.91
-8.09
-9.44
-10.97
-12.57
-14.02
-15.01
-15.16
-14.26
-12.32
-9.58
-6.44
-3.32
-0.53
1.80
3.63
5.01
5.93
6.38
6.37
5.99
5.43
4.91
4.59
4.53
4.65
4.84
4.98
5.06
5.10
5.13
5.19
5.24
5.20
5.04
4.75
4.33
3.79
3.09
2.19
1.11
-0.06
-1.16
-2.04
-2.65
-3.04
-3.36
-3.79
-4.46
-5.45
-6.75
-8.29
-9.93
-11.46
-12.59
-13.06
-12.65
-11.36
-9.30
-6.75
-4.01
-1.30
1.19
3.38
5.18
6.55
7.49
8.02
8.20
8.13
7.87
7.49
7.05
6.61
6.18
5.78
5.41
5.08
4.82
4.68
4.66
4.68
4.63
4.35
3.77
2.91
1.87
0.84
-0.07
-0.80
-1.39
-1.90
-2.40
-2.87
-3.28
-3.58
-3.83
-4.17
-4.77
-5.78
-7.19
-8.85
-10.44
-11.55
-11.88
-11.29
-9.79
-7.61
-5.00
-2.23
0.49
3.02
5.26
7.10
8.45
9.21
9.40
9.11
8.53
7.87
7.26
6.78
6.45
6.25
6.17
6.20
6.29
6.35
6.27
5.98
5.47
4.84
4.21
3.67
3.23
2.86
2.48
2.05
1.59
1.09
0.57
0.01
-0.60
-1.25
-1.89
-2.45
-2.90
-3.28
-3.72
-4.33
-5.21
-6.31
-7.41
-8.23
-8.44
-7.81
-6.19
-3.63
-0.31
3.45
7.32
10.97
14.19
16.88
19.03
20.74
22.12
23.32
24.46
25.62
26.84
28.05
29.18
30.20
31.20
32.37
33.97
36.20
39.06
42.40
45.87
49.12
51.79
53.63
54.51
54.39
53.35
51.49
48.89
45.55
41.42
36.40
30.45
23.71
16.56
9.56
3.31
-1.64
-4.99
-6.69
-6.91
-5.99
-4.35
-2.43
-0.65
0.56
0.85
-0.02
-2.08
-5.12
-8.72
-12.29
-15.31
-17.40
-18.50
-18.82
-18.72
-18.52
-18.33
-17.99
-17.16
-15.52
-12.95
-9.67
-6.17
-3.05
-0.78
0.51
1.06
1.43
2.26
4.12
7.24
11.43
15.96
19.66
21.24
19.62
14.33
5.74
-5.05
-16.58
-27.45
-36.73
-44.04
-49.40
-53.05
-55.17
-55.88
-55.29
-53.60
-51.14
-48.27
-45.33
-42.53
-40.01
-37.80
-35.94
-34.50
-33.54
-33.07
-33.06
-33.38
-33.87
-34.28
-34.42
-34.10
-33.24
-31.88
-30.15
-28.24
-26.32
-24.51
-22.79
-21.10
-19.32
-17.39
-15.35
-13.36
-11.60
-10.21
-9.21
-8.49
-7.91
-7.32
-6.72
-6.18
-5.85
-5.87
-6.31
-7.19
-8.41
-9.89
-11.49
-13.09
-14.58
-15.85
-16.77
-17.21
-16.99
-16.00
-14.21
-11.71
-8.73
-5.56
-2.46
0.40
2.94
5.13
6.92
8.21
8.96
9.15
8.88
8.35
7.79
7.42
7.35
7.58
8.02
8.49
8.85
8.97
8.83
8.47
7.97
7.37
6.67
5.88
4.98
4.05
3.18
2.47
1.91
1.43
0.94
0.30
-0.53
-1.56
-2.79
-4.22
-5.92
-7.93
-10.21
-12.56
-14.63
-16.05
-16.49
-15.80
-14.02
-11.34
-8.01
-4.30
-0.45
3.27
6.61
9.36
11.41
12.73
13.42
13.60
13.39
12.92
12.28
11.63
11.09
10.78
10.68
10.70
10.70
10.54
10.17
9.63
8.98
8.25
7.45
6.53
5.47
4.32
3.16
2.09
1.15
0.28
-0.61
-1.62
-2.79
-4.12
-5.56
-7.11
-8.79
-10.62
-12.55
-14.40
-15.90
-16.73
-16.65
-15.58
-13.62
-11.05
-8.20
-5.36
-2.69
-0.25
2.00
4.06
5.87
7.30
8.21
8.55
8.43
8.12
7.90
8.00
8.44
9.08
9.73
10.20
10.45
10.55
10.62
10.69
10.73
10.59
10.15
9.36
8.27
7.01
5.74
4.54
3.46
2.47
1.51
0.53
-0.51
-1.66
-2.96
-4.42
-6.03
-7.64
-9.03
-9.86
-9.84
-8.79
-6.69
-3.78
-0.44
2.90
5.91
8.38
10.26
11.58
12.36
12.61
12.39
11.78
10.96
10.13
9.42
8.88
8.47
8.14
7.85
7.62
7.44
7.30
7.13
6.82
6.33
5.65
4.81
3.81
2.65
1.34
-0.06
-1.47
-2.75
-3.83
-4.72
-5.53
-6.41
-7.49
-8.83
-10.38
-11.99
-13.39
-14.27
-14.31
-13.31
-11.24
-8.32
-4.97
-1.66
1.22
3.45
5.02
6.00
6.51
6.60
6.32
5.76
5.07
4.44
4.00
3.82
3.81
3.82
3.72
3.43
2.93
2.25
1.37
0.31
-0.93
-2.28
-3.63
-4.85
-5.88
-6.73
-7.47
-8.21
-9.04
-10.02
-11.21
-12.62
-14.23
-15.89
-17.32
-18.16
-18.08
-16.92
-14.78
-11.96
-8.88
-5.90
-3.24
-0.99
0.84
2.26
3.29
3.99
4.45
4.79
5.12
5.51
5.95
6.37
6.71
6.94
7.08
7.17
7.18
7.06
6.73
6.13
5.24
4.11
2.83
1.53
0.27
-0.96
-2.22
-3.61
-5.24
-7.13
-9.20
-11.28
-13.06
-14.22
-14.45
-13.55
-11.50
-8.46
-4.81
-1.04
2.36
5.06
6.97
8.21
8.99
9.55
9.98
10.28
10.42
10.40
10.26
10.08
9.95
9.88
9.79
9.62
9.32
8.86
8.27
7.60
6.82
5.92
4.86
3.65
2.34
1.02
-0.23
-1.39
-2.54
-3.85
-5.47
-7.44
-9.68
-11.91
-13.74
-14.76
-14.66
-13.33
-10.89
-7.71
-4.29
-1.08
1.59
3.63
5.11
6.22
7.08
7.73
8.17
8.38
8.41
8.37
8.38
8.52
8.77
9.03
9.20
9.19
9.01
8.72
8.38
7.98
7.46
6.71
5.64
4.26
2.65
0.96
-0.68
-2.22
-3.71
-5.24
-6.91
-8.83
-11.03
-13.47
-16.01
-18.37
-20.18
-21.17
-21.20
-20.34
-18.86
-17.07
-15.19
-13.35
-11.62
-10.06
-8.86
-8.23
-8.34
-9.22
-10.69
-12.46
-14.20
-15.65
-16.71
-17.37
-17.66
-17.61
-17.23
-16.51
-15.49
-14.28
-12.99
-11.71
-10.43
-9.04
-7.40
-5.45
-3.27
-1.05
0.97
2.66
4.08
5.38
6.73
8.16
9.48
10.38
10.59
9.96
8.59
6.76
4.83
3.12
1.89
1.31
1.50
2.54
4.44
7.11
10.36
13.88
17.26
20.07
21.95
22.75
22.54
21.64
20.49
19.46
18.80
18.53
18.57
18.80
19.15
19.60
20.14
20.70
21.22
21.62
21.88
22.00
21.97
21.76
21.41
21.00
20.78
21.06
22.07
23.89
26.29
28.84
31.04
32.49
33.01
32.69
31.87
30.97
30.45
30.66
31.76
33.60
35.72
37.45
38.06
36.99
34.03
29.33
23.38
16.76
9.98
3.31
-3.20
-9.60
-15.86
-21.85
-27.30
-31.97
-35.69
-38.43
-40.29
-41.38
-41.82
-41.64
-40.90
-39.66
-38.10
-36.42
-34.81
-33.40
-32.23
-31.23
-30.30
-29.33
-28.23
-26.99
-25.65
-24.28
-22.95
-21.76
-20.78
-20.10
-19.80
-19.87
-20.22
-20.59
-20.63
-20.01
-18.49
-16.00
-12.69
-8.85
-4.81
-0.89
2.70
5.85
8.49
10.65
12.33
13.57
14.36
14.75
14.75
14.49
14.10
13.77
13.64
13.73
13.92
14.08
14.07
13.85
13.47
13.03
12.53
11.92
11.10
9.99
8.63
7.13
5.65
4.29
3.06
1.89
0.66
-0.75
-2.44
-4.43
-6.69
-9.10
-11.43
-13.39
-14.70
-15.10
-14.48
-12.85
-10.35
-7.22
-3.75
-0.24
3.05
5.89
8.12
9.66
10.51
10.77
10.58
10.13
9.62
9.23
9.06
9.17
9.47
9.80
9.98
9.92
9.60
9.16
8.74
8.41
8.09
7.61
6.78
5.59
4.16
2.71
1.45
0.43
-0.44
-1.35
-2.44
-3.77
-5.32
-7.03
-8.85
-10.70
-12.48
-14.03
-15.12
-15.51
-14.98
-13.48
-11.06
-7.92
-4.36
-0.70
2.76
5.77
8.16
9.85
10.84
11.18
10.99
10.46
9.81
9.26
8.99
9.05
9.40
9.87
10.26
10.43
10.30
9.89
9.31
8.69
8.09
7.54
7.00
6.36
5.52
4.40
3.02
1.48
-0.06
-1.45
-2.63
-3.63
-4.56
-5.55
-6.66
-7.93
-9.34
-10.84
-12.31
-13.55
-14.23
-14.00
-12.61
-10.02
-6.50
-2.54
1.33
4.70
7.38
9.36
10.71
11.51
11.83
11.74
11.38
10.95
10.64
10.55
10.64
10.81
10.92
10.88
10.68
10.38
10.02
9.65
9.26
8.81
8.25
7.55
6.66
5.58
4.34
3.00
1.64
0.32
-0.92
-2.11
-3.28
-4.47
-5.72
-7.05
-8.48
-10.04
-11.71
-13.41
-14.98
-16.13
-16.55
-15.99
-14.35
-11.72
-8.39
-4.72
-1.04
2.37
5.32
7.67
9.33
10.24
10.44
10.07
9.34
8.54
7.90
7.59
7.65
8.00
8.48
8.89
9.09
9.01
8.68
8.20
7.70
7.22
6.76
6.24
5.59
4.83
4.00
3.22
2.57
2.10
1.75
1.38
0.80
-0.19
-1.71
-3.68
-5.90
-8.01
-9.67
-10.57
-10.53
-9.48
-7.46
-4.62
-1.18
2.56
6.27
9.73
12.77
15.35
17.49
19.20
20.43
21.15
21.34
21.08
20.53
19.86
19.18
18.46
17.58
16.31
14.46
11.86
8.48
4.42
-0.10
-4.74
-9.16
-13.04
-16.19
-18.58
-20.30
-21.58
-22.65
-23.68
-24.75
-25.79
-26.63
-27.08
-27.05
-26.59
-25.92
-25.28
-24.83
-24.59
-24.36
-23.86
-22.79
-20.98
-18.38
-15.06
-11.16
-6.87
-2.38
2.03
6.08
9.46
11.97
13.51
14.18
14.23
13.96
13.68
13.60
13.79
14.20
14.72
15.18
15.42
15.32
14.83
13.99
12.91
11.72
10.49
9.13
7.45
5.24
2.47
-0.63
-3.61
-5.98
-7.47
-8.15
-8.39
-8.68
-9.37
-10.54
-12.05
-13.60
-14.87
-15.63
-15.69
-14.95
-13.32
-10.80
-7.47
-3.53
0.77
5.18
9.45
13.35
16.65
19.09
20.45
20.59
19.55
17.54
14.89
11.97
9.12
6.57
4.40
2.69
1.46
0.72
0.47
0.60
0.96
1.35
1.62
1.66
1.42
0.92
0.15
-0.87
-2.07
-3.34
-4.54
-5.55
-6.40
-7.21
-8.26
-9.77
-11.89
-14.56
-17.51
-20.32
-22.53
-23.74
-23.72
-22.45
-20.12
-17.04
-13.64
-10.27
-7.25
-4.71
-2.67
-1.04
0.30
1.43
2.41
3.22
3.89
4.47
5.11
5.93
7.04
8.37
9.71
10.82
11.51
11.74
11.58
11.16
10.57
9.86
9.00
8.05
7.07
6.20
5.57
5.21
5.03
4.87
4.52
3.75
2.34
0.11
-3.09
-7.31
-12.44
-18.18
-24.00
-29.20
-32.98
-34.66
-33.84
-30.61
-25.56
-19.64
-13.88
-9.09
-5.68
-3.64
-2.76
-2.80
-3.59
-5.07
-7.12
-9.54
-11.95
-13.93
-15.08
-15.22
-14.36
-12.71
-10.57
-8.23
-5.91
-3.73
-1.77
-0.09
1.20
1.96
2.10
1.67
0.87
-0.01
-0.72
-1.18
-1.57
-2.21
-3.38
-5.24
-7.67
-10.36
-12.95
-15.05
-16.41
-16.87
-16.39
-15.00
-12.81
-10.02
-6.80
-3.36
0.18
3.67
6.90
9.64
11.67
12.89
13.36
13.31
13.05
12.82
12.79
13.03
13.57
14.45
15.64
17.08
18.57
19.90
20.87
21.42
21.58
21.38
20.83
19.92
18.58
16.88
14.96
13.03
11.26
9.72
8.32
6.90
5.26
3.17
0.48
-2.89
-6.90
-11.31
-15.69
-19.51
-22.26
-23.59
-23.42
-21.92
-19.44
-16.41
-13.24
-10.22
-7.50
-5.17
-3.22
-1.66
-0.47
0.35
0.92
1.35
1.84
2.57
3.61
4.95
6.39
7.72
8.75
9.43
9.81
10.03
10.18
10.27
10.18
9.79
9.00
7.87
6.52
5.10
3.72
2.37
1.00
-0.48
-2.08
-3.75
-5.42
-7.00
-8.50
-9.95
-11.42
-12.93
-14.41
-15.65
-16.37
-16.26
-15.13
-12.98
-10.05
-6.72
-3.40
-0.42
2.06
4.04
5.57
6.73
7.55
8.01
8.15
8.07
7.97
8.05
8.48
9.31
10.49
11.89
13.38
14.85
16.22
17.44
18.44
19.17
19.63
19.83
19.79
19.50
18.87
17.78
16.09
13.74
10.74
7.23
3.44
-0.37
-3.98
-7.22
-10.02
-12.37
-14.34
-16.01
-17.43
-18.62
-19.47
-19.77
-19.21
-17.45
-14.21
-9.40
-3.24
3.77
10.88
17.29
22.34
25.65
27.19
27.24
26.22
24.55
22.55
20.44
18.37
16.51
15.03
14.07
13.60
13.39
13.04
12.19
10.61
8.33
5.59
2.74
0.05
-2.36
-4.54
-6.64
-8.77
-10.98
-13.18
-15.23
-16.99
-18.40
-19.45
-20.23
-20.88
-21.58
-22.47
-23.63
-24.98
-26.31
-27.25
-27.42
-26.50
-24.41
-21.26
-17.38
-13.18
-9.03
-5.23
-1.91
0.83
2.97
4.50
5.44
5.89
6.01
6.00
6.01
6.15
6.42
6.77
7.11
7.38
7.57
7.69
7.76
7.77
7.67
7.45
7.14
6.75
6.31
5.74
4.94
3.80
2.34
0.70
-0.91
-2.28
-3.34
-4.17
-4.91
-5.77
-6.86
-8.23
-9.84
-11.54
-13.13
-14.35
-14.86
-14.40
-12.90
-10.44
-7.32
-3.88
-0.46
2.73
5.53
7.83
9.53
10.53
10.83
10.53
9.85
9.09
8.49
8.19
8.19
8.38
8.61
8.82
8.98
9.15
9.33
9.49
9.51
9.27
8.71
7.92
7.05
6.25
5.56
4.90
4.15
3.22
2.13
1.01
-0.04
-0.93
-1.74
-2.58
-3.54
-4.68
-5.94
-7.28
-8.62
-9.89
-10.98
-11.67
-11.70
-10.83
-8.93
-6.07
-2.50
1.38
5.19
8.58
11.38
13.56
15.20
16.40
17.30
17.96
18.44
18.78
19.02
19.14
19.13
18.94
18.50
17.80
16.90
15.89
14.83
13.76
12.63
11.38
9.99
8.50
7.02
5.66
4.47
3.40
2.31
1.05
-0.55
-2.61
-5.17
-8.15
-11.36
-14.55
-17.45
-19.82
-21.54
-22.66
-23.32
-23.77
-24.23
-24.84
-25.56
-26.15
-26.22
-25.38
-23.38
-20.20
-16.10
-11.54
-7.04
-2.99
0.38
3.00
4.94
6.31
7.22
7.73
7.90
7.81
7.55
7.16
6.68
6.06
5.27
4.30
3.22
2.14
1.20
0.46
-0.11
-0.63
-1.24
-2.00
-2.88
-3.80
-4.69
-5.51
-6.32
-7.17
-8.05
-8.87
-9.53
-9.91
-9.93
-9.62
-9.09
-8.52
-8.15
-8.19
-8.76
-9.83
-11.18
-12.46
-13.26
-13.30
-12.47
-10.87
-8.69
-6.20
-3.60
-1.06
1.30
3.39
5.14
6.48
7.41
7.96
8.18
8.20
8.12
8.05
8.02
7.99
7.87
7.59
7.15
6.64
6.20
5.94
5.87
5.90
5.91
5.80
5.53
5.14
4.66
4.07
3.35
2.48
1.52
0.56
-0.30
-1.04
-1.67
-2.29
-2.95
-3.67
-4.42
-5.16
-5.84
-6.41
-6.80
-6.90
-6.56
-5.67
-4.17
-2.11
0.38
3.10
5.85
8.47
10.83
12.85
14.51
15.82
16.77
17.34
17.59
17.61
17.57
17.66
18.00
18.55
19.14
19.58
19.75
19.76
19.86
20.37
21.50
23.30
25.66
28.35
31.04
33.32
34.70
34.63
32.69
28.77
23.16
16.56
9.74
3.36
-2.35
-7.46
-12.22
-16.76
-20.94
-24.43
-26.86
-28.07
-28.17
-27.45
-26.28
-24.89
-23.39
-21.80
-20.12
-18.45
-16.97
-15.86
-15.26
-15.13
-15.33
-15.61
-15.73
-15.54
-14.98
-14.15
-13.21
-12.32
-11.58
-11.00
-10.54
-10.13
-9.70
-9.19
-8.61
-8.01
-7.49
-7.18
-7.18
-7.50
-8.06
-8.68
-9.22
-9.58
-9.78
-9.97
-10.30
-10.86
-11.65
-12.55
-13.32
-13.71
-13.46
-12.44
-10.63
-8.19
-5.40
-2.58
0.00
2.23
4.09
5.65
6.97
8.02
8.78
9.23
9.41
9.43
9.40
9.42
9.48
9.54
9.53
9.42
9.19
8.91
8.68
8.52
8.39
8.14
7.55
6.46
4.81
2.74
0.50
-1.64
-3.50
-5.11
-6.58
-8.11
-9.85
-11.85
-14.08
-16.44
-18.73
-20.72
-22.05
-22.40
-21.53
-19.40
-16.25
-12.47
-8.57
-5.00
-2.02
0.24
1.85
2.91
3.53
3.77
3.68
3.32
2.82
2.36
2.05
1.96
2.03
2.15
2.23
2.24
2.21
2.16
2.04
1.75
1.20
0.40
-0.53
-1.41
-2.12
-2.64
-3.10
-3.63
-4.38
-5.41
-6.73
-8.29
-9.98
-11.59
-12.80
-13.21
-12.49
-10.54
-7.48
-3.72
0.28
4.08
7.44
10.27
12.57
14.32
15.49
16.08
16.18
16.01
15.92
16.19
16.95
18.10
19.40
20.55
21.38
21.87
22.11
22.24
22.33
22.40
22.42
22.35
22.12
21.69
20.94
19.77
18.09
15.88
13.15
9.98
6.48
2.77
-0.94
-4.39
-7.27
-9.31
-10.39
-10.58
-10.17
-9.52
-8.94
-8.57
-8.38
-8.17
-7.78
-7.16
-6.42
-5.77
-5.45
-5.56
-6.09
-6.85
-7.58
-8.07
-8.21
-8.01
-7.59
-7.11
-6.68
-6.38
-6.21
-6.18
-6.32
-6.64
-7.12
-7.65
-8.10
-8.33
-8.31
-8.11
-7.93
-7.93
-8.20
-8.73
-9.45
-10.33
-11.38
-12.65
-14.16
-15.81
-17.42
-18.71
-19.42
-19.33
-18.35
-16.50
-13.92
-10.84
-7.51
-4.21
-1.14
1.54
3.74
5.39
6.48
7.03
7.12
6.90
6.58
6.36
6.42
6.86
7.67
8.71
9.83
10.83
11.59
12.06
12.26
12.26
12.11
11.83
11.44
10.91
10.25
9.43
8.39
7.07
5.42
3.35
0.83
-2.14
-5.48
-9.05
-12.59
-15.78
-18.31
-19.90
-20.36
-19.64
-17.84
-15.14
-11.88
-8.44
-5.17
-2.32
0.06
2.15
4.17
6.29
8.41
10.21
11.26
11.29
10.43
9.21
8.43
8.80
10.67
13.93
18.10
22.56
26.75
30.21
32.61
33.73
33.51
32.07
29.79
27.25
25.05
23.65
23.15
23.34
23.71
23.79
23.35
22.54
21.90
22.08
23.48
26.03
29.05
31.60
32.77
32.12
29.76
26.19
21.99
17.58
13.14
8.70
4.39
0.43
-2.90
-5.38
-7.00
-7.91
-8.36
-8.57
-8.64
-8.57
-8.27
-7.63
-6.64
-5.37
-4.01
-2.79
-1.92
-1.50
-1.47
-1.66
-1.89
-2.11
-2.40
-2.99
-4.14
-6.03
-8.67
-11.87
-15.28
-18.46
-21.04
-22.85
-24.03
-24.96
-26.15
-28.07
-30.92
-34.57
-38.63
-42.56
-45.86
-48.16
-49.23
-49.03
-47.61
-45.11
-41.77
-37.90
-33.83
-29.83
-26.13
-22.87
-20.17
-18.12
-16.74
-15.99
-15.70
-15.61
-15.43
-14.88
-13.81
-12.14
-9.89
-7.08
-3.84
-0.30
3.31
6.70
9.58
11.77
13.21
14.04
14.48
14.76
15.04
15.33
15.52
15.46
15.06
14.33
13.40
12.37
11.28
10.07
8.64
6.86
4.69
2.11
-0.91
-4.41
-8.35
-12.49
-16.33
-19.22
-20.54
-19.98
-17.67
-14.15
-10.15
-6.31
-3.01
-0.33
1.77
3.35
4.42
4.98
5.07
4.86
4.62
4.62
5.04
5.86
6.91
7.93
8.67
9.00
8.92
8.52
8.01
7.54
7.17
6.87
6.54
6.07
5.38
4.49
3.42
2.20
0.82
-0.72
-2.39
-4.13
-5.85
-7.49
-9.06
-10.67
-12.42
-14.33
-16.19
-17.66
-18.32
-17.85
-16.15
-13.36
-9.82
-5.90
-1.95
1.79
5.14
7.98
10.15
11.58
12.29
12.39
12.15
11.85
11.73
11.92
12.39
13.06
13.77
14.41
14.92
15.28
15.51
15.58
15.44
15.03
14.33
13.39
12.30
11.22
10.22
9.36
8.58
7.84
7.11
6.42
5.76
5.13
4.43
3.56
2.43
1.01
-0.64
-2.39
-4.03
-5.30
-5.88
-5.50
-4.00
-1.42
1.99
5.80
9.55
12.84
15.47
17.38
18.61
19.24
19.39
19.18
18.76
18.31
17.91
17.55
17.17
16.63
15.92
15.12
14.45
14.11
14.23
14.77
15.58
16.45
17.31
18.18
19.21
20.58
22.33
24.37
26.41
28.04
28.79
28.26
26.19
22.61
17.93
12.89
8.41
5.29
3.94
4.23
5.54
6.96
7.68
7.16
5.28
2.21
-1.76
-6.37
-11.47
-16.97
-22.74
-28.56
-34.05
-38.81
-42.50
-44.91
-46.04
-46.02
-45.07
-43.43
-41.39
-39.25
-37.29
-35.74
-34.70
-34.14
-33.84
-33.51
-32.82
-31.49
-29.37
-26.46
-22.88
-18.92
-14.89
-11.09
-7.71
-4.88
-2.66
-1.09
-0.17
0.15
0.02
-0.34
-0.70
-0.97
-1.19
-1.50
-2.02
-2.79
-3.73
-4.70
-5.59
-6.43
-7.32
-8.35
-9.60
-11.05
-12.67
-14.39
-16.13
-17.74
-18.99
-19.61
-19.33
-18.05
-15.82
-12.86
-9.46
-5.89
-2.34
1.05
4.17
6.95
9.30
11.19
12.66
13.79
14.73
15.56
16.35
17.11
17.83
18.49
19.05
19.48
19.72
19.72
19.42
18.77
17.79
16.52
15.09
13.62
12.20
10.88
9.62
8.33
6.98
5.54
4.08
2.58
1.00
-0.80
-2.94
-5.43
-8.10
-10.58
-12.44
-13.36
-13.24
-12.22
-10.61
-8.71
-6.72
-4.75
-2.86
-1.13
0.28
1.21
1.60
1.56
1.32
1.17
1.32
1.79
2.48
3.20
3.80
4.24
4.50
4.58
4.45
4.08
3.44
2.58
1.58
0.55
-0.49
-1.55
-2.70
-3.99
-5.37
-6.78
-8.15
-9.48
-10.82
-12.23
-13.66
-14.88
-15.52
-15.24
-13.86
-11.43
-8.27
-4.76
-1.22
2.13
5.21
7.91
10.09
11.55
12.21
12.09
11.43
10.56
9.73
9.06
8.53
8.03
7.50
6.95
6.42
5.94
5.47
4.86
3.93
2.57
0.75
-1.40
-3.62
-5.64
-7.25
-8.35
-9.02
-9.46
-9.93
-10.62
-11.64
-12.92
-14.27
-15.40
-15.97
-15.70
-14.40
-12.10
-9.05
-5.63
-2.26
0.73
3.20
5.17
6.70
7.82
8.50
8.71
8.50
8.02
7.51
7.19
7.14
7.30
7.53
7.73
7.86
7.95
8.04
8.05
7.84
7.26
6.26
4.93
3.50
2.19
1.13
0.25
-0.59
-1.60
-2.90
-4.52
-6.39
-8.40
-10.41
-12.25
-13.67
-14.38
-14.12
-12.80
-10.52
-7.59
-4.43
-1.41
1.23
3.40
5.05
6.18
6.76
6.88
6.65
6.28
5.99
5.89
5.99
6.13
6.17
5.98
5.57
4.99
4.34
3.66
2.94
2.15
1.25
0.23
-0.89
-2.06
-3.26
-4.42
-5.48
-6.37
-7.08
-7.65
-8.19
-8.83
-9.65
-10.65
-11.63
-12.32
-12.40
-11.58
-9.72
-6.83
-3.10
1.18
5.64
9.91
13.73
16.96
19.54
21.51
22.96
24.02
24.87
25.77
26.98
28.65
30.80
33.25
35.67
37.72
39.20
40.01
40.23
39.93
39.13
37.82
35.99
33.71
31.15
28.56
26.13
23.98
22.01
20.06
17.84
15.18
11.98
8.33
4.54
1.04
-1.64
-3.06
-3.04
-1.71
0.47
2.90
5.00
6.35
6.80
6.36
5.16
3.35
1.11
-1.35
-3.82
-6.04
-7.81
-9.03
-9.74
-10.11
-10.38
-10.84
-11.70
-13.04
-14.81
-16.87
-19.02
-21.11
-23.08
-24.92
-26.70
-28.47
-30.29
-32.13
-33.94
-35.57
-36.94
-38.03
-38.86
-39.52
-40.00
-40.15
-39.69
-38.29
-35.78
-32.20
-27.86
-23.19
-18.60
-14.35
-10.58
-7.34
-4.66
-2.59
-1.19
-0.42
-0.19
-0.33
-0.65
-1.03
-1.39
-1.74
-2.14
-2.63
-3.21
-3.79
-4.24
-4.49
-4.49
-4.35
-4.22
-4.28
-4.63
-5.28
-6.18
-7.27
-8.52
-9.93
-11.52
-13.25
-15.00
-16.60
-17.80
-18.37
-18.11
-16.89
-14.72
-11.74
-8.25
-4.54
-0.93
2.33
5.09
7.24
8.73
9.55
9.76
9.50
8.94
8.25
7.60
7.13
6.90
6.93
7.15
7.42
7.55
7.42
6.98
6.32
5.56
4.80
4.05
3.25
2.32
1.21
-0.04
-1.41
-2.90
-4.59
-6.57
-8.83
-11.13
-13.01
-13.97
-13.61
-11.84
-8.94
-5.42
-1.80
1.52
4.38
6.78
8.75
10.28
11.32
11.82
11.81
11.41
10.78
10.09
9.46
8.94
8.56
8.35
8.32
8.47
8.71
8.91
8.89
8.48
7.65
6.45
5.01
3.48
1.97
0.53
-0.91
-2.39
-4.01
-5.76
-7.56
-9.22
-10.46
-10.99
-10.59
-9.21
-6.91
-3.96
-0.65
2.71
5.87
8.61
10.76
12.22
12.94
12.98
12.46
11.61
10.62
9.68
8.91
8.34
7.98
7.78
7.70
7.68
7.64
7.48
7.12
6.54
5.74
4.80
3.76
2.65
1.40
-0.07
-1.84
-3.90
-6.16
-8.41
-10.39
-11.83
-12.52
-12.32
-11.20
-9.23
-6.60
-3.57
-0.45
2.44
4.87
6.68
7.86
8.46
8.60
8.41
8.03
7.59
7.19
6.93
6.82
6.84
6.92
6.94
6.86
6.68
6.44
6.18
5.88
5.46
4.81
3.87
2.62
1.14
-0.47
-2.13
-3.80
-5.51
-7.23
-8.92
-10.40
-11.47
-11.86
-11.42
-10.06
-7.88
-5.10
-2.02
1.05
3.87
6.27
8.18
9.58
10.45
10.77
10.58
9.93
8.96
7.85
6.82
6.04
5.59
5.45
5.49
5.54
5.42
5.04
4.37
3.47
2.43
1.38
0.39
-0.52
-1.40
-2.30
-3.31
-4.47
-5.82
-7.39
-9.14
-10.98
-12.70
-13.98
-14.49
-13.94
-12.27
-9.65
-6.44
-3.08
0.09
2.84
5.09
6.81
7.95
8.48
8.39
7.78
6.88
6.00
5.42
5.27
5.54
6.05
6.59
6.96
7.06
6.84
6.31
5.51
4.49
3.32
2.11
0.94
-0.11
-1.06
-1.99
-3.07
-4.44
-6.15
-8.18
-10.34
-12.40
-14.03
-14.95
-14.94
-13.96
-12.07
-9.47
-6.43
-3.21
-0.04
2.90
5.51
7.68
9.36
10.50
11.08
11.15
10.84
10.32
9.80
9.44
9.33
9.40
9.47
9.36
8.96
8.34
7.68
7.16
6.85
6.62
6.24
5.50
4.29
2.74
1.05
-0.57
-2.02
-3.35
-4.68
-6.16
-7.86
-9.80
-11.90
-14.03
-15.97
-17.43
-18.11
-17.75
-16.28
-13.79
-10.53
-6.84
-3.03
0.61
3.88
6.58
8.61
9.91
10.55
10.68
10.54
10.35
10.26
10.33
10.51
10.73
10.94
11.09
11.16
11.08
10.79
10.23
9.40
8.34
7.20
6.08
5.05
4.09
3.15
2.18
1.17
0.13
-0.93
-2.02
-3.18
-4.43
-5.81
-7.34
-9.02
-10.84
-12.78
-14.71
-16.43
-17.60
-17.89
-17.07
-15.11
-12.19
-8.65
-4.90
-1.26
2.01
4.78
7.00
8.64
9.69
10.19
10.23
9.94
9.48
9.00
8.61
8.34
8.24
8.30
8.52
8.90
9.36
9.78
9.96
9.77
9.14
8.17
7.06
5.99
5.02
4.06
2.97
1.63
0.09
-1.49
-2.87
-3.94
-4.71
-5.34
-6.01
-6.85
-7.88
-9.08
-10.42
-11.87
-13.40
-14.88
-16.08
-16.66
-16.29
-14.77
-12.15
-8.72
-4.93
-1.23
2.01
4.59
6.48
7.70
8.32
8.39
7.99
7.28
6.47
5.81
5.52
5.66
6.09
6.57
6.83
6.73
6.32
5.81
5.41
5.24
5.20
5.08
4.68
3.93
2.93
1.82
0.69
-0.48
-1.76
-3.18
-4.66
-6.00
-7.07
-7.85
-8.52
-9.28
-10.32
-11.64
-13.11
-14.52
-15.65
-16.29
-16.23
-15.32
-13.51
-10.91
-7.77
-4.44
-1.21
1.71
4.23
6.34
8.03
9.28
10.08
10.49
10.60
10.54
10.45
10.40
10.41
10.45
10.48
10.44
10.31
10.10
9.85
9.63
9.45
9.29
9.02
8.50
7.59
6.25
4.52
2.58
0.62
-1.18
-2.73
-4.06
-5.29
-6.58
-8.04
-9.73
-11.61
-13.49
-15.11
-16.17
-16.38
-15.59
-13.82
-11.28
-8.28
-5.17
-2.27
0.26
2.34
3.97
5.16
5.94
6.37
6.50
6.42
6.23
6.02
5.84
5.73
5.67
5.66
5.67
5.68
5.65
5.56
5.37
5.06
4.58
3.85
2.82
1.45
-0.21
-2.04
-3.85
-5.47
-6.83
-7.93
-8.88
-9.82
-10.87
-12.10
-13.49
-14.95
-16.26
-17.09
-17.12
-16.09
-13.97
-10.94
-7.42
-3.84
-0.55
2.24
4.48
6.19
7.38
8.08
8.30
8.13
7.75
7.33
7.06
7.00
7.11
7.27
7.35
7.24
6.94
6.51
6.07
5.72
5.46
5.19
4.78
4.11
3.13
1.90
0.56
-0.72
-1.85
-2.80
-3.63
-4.43
-5.34
-6.43
-7.78
-9.38
-11.12
-12.82
-14.18
-14.90
-14.74
-13.56
-11.41
-8.48
-5.08
-1.56
1.75
4.61
6.87
8.48
9.41
9.72
9.48
8.83
7.97
7.10
6.44
6.12
6.15
6.43
6.79
7.03
7.04
6.80
6.37
5.85
5.32
4.78
4.16
3.34
2.28
1.04
-0.25
-1.44
-2.48
-3.44
-4.47
-5.74
-7.33
-9.24
-11.34
-13.49
-15.49
-17.14
-18.17
-18.35
-17.52
-15.69
-13.01
-9.78
-6.31
-2.86
0.38
3.28
5.68
7.44
8.44
8.69
8.32
7.56
6.73
6.08
5.77
5.84
6.22
6.76
7.34
7.83
8.14
8.21
8.00
7.50
6.72
5.68
4.45
3.11
1.73
0.37
-0.93
-2.18
-3.40
-4.64
-5.95
-7.39
-9.03
-10.89
-12.91
-14.88
-16.47
-17.32
-17.10
-15.68
-13.16
-9.83
-6.10
-2.35
1.15
4.26
6.88
8.96
10.42
11.18
11.27
10.80
10.03
9.24
8.69
8.49
8.63
8.93
9.19
9.21
8.95
8.44
7.83
7.28
6.89
6.64
6.38
5.90
5.02
3.70
2.07
0.39
-1.08
-2.22
-3.05
-3.77
-4.60
-5.73
-7.26
-9.18
-11.32
-13.42
-15.14
-16.11
-16.04
-14.82
-12.51
-9.38
-5.79
-2.11
1.34
4.38
6.90
8.85
10.20
10.94
11.12
10.82
10.20
9.50
8.95
8.70
8.77
9.05
9.34
9.46
9.31
8.92
8.41
7.96
7.69
7.55
7.39
7.00
6.22
5.08
3.70
2.31
1.04
-0.10
-1.18
-2.36
-3.67
-5.12
-6.64
-8.21
-9.85
-11.62
-13.51
-15.35
-16.81
-17.53
-17.19
-15.71
-13.19
-9.96
-6.39
-2.84
0.42
3.21
5.45
7.07
8.08
8.54
8.56
8.33
8.01
7.75
7.63
7.65
7.77
7.95
8.15
8.36
8.50
8.51
8.30
7.83
7.12
6.25
5.35
4.56
3.91
3.34
2.73
1.94
0.90
-0.34
-1.68
-2.98
-4.17
-5.23
-6.25
-7.34
-8.61
-10.10
-11.79
-13.52
-15.04
-16.03
-16.21
-15.37
-13.52
-10.86
-7.70
-4.39
-1.19
1.73
4.27
6.32
7.81
8.65
8.86
8.57
8.02
7.47
7.14
7.14
7.41
7.83
8.21
8.42
8.38
8.10
7.67
7.18
6.71
6.30
5.85
5.27
4.43
3.29
1.91
0.44
-0.93
-2.11
-3.07
-3.91
-4.75
-5.72
-6.88
-8.23
-9.79
-11.53
-13.40
-15.25
-16.82
-17.73
-17.62
-16.32
-13.92
-10.74
-7.24
-3.82
-0.72
2.00
4.34
6.30
7.79
8.72
9.11
9.07
8.88
8.78
8.92
9.28
9.69
9.98
10.06
9.93
9.69
9.45
9.25
9.08
8.89
8.64
8.28
7.78
7.09
6.11
4.77
3.05
1.01
-1.16
-3.28
-5.14
-6.65
-7.80
-8.72
-9.59
-10.59
-11.87
-13.49
-15.40
-17.37
-19.08
-20.10
-20.12
-18.96
-16.70
-13.60
-10.02
-6.29
-2.66
0.71
3.70
6.16
7.95
8.99
9.34
9.24
8.95
8.74
8.73
8.89
9.12
9.25
9.16
8.84
8.33
7.73
7.18
6.77
6.53
6.40
6.27
6.00
5.48
4.67
3.62
2.43
1.25
0.22
-0.62
-1.28
-1.87
-2.49
-3.23
-4.08
-5.01
-5.95
-6.96
-8.15
-9.69
-11.63
-13.85
-15.99
-17.57
-18.12
-17.35
-15.23
-12.02
-8.20
-4.27
-0.65
2.42
4.85
6.71
8.09
9.09
9.79
10.24
10.48
10.60
10.67
10.72
10.75
10.72
10.61
10.43
10.23
10.05
9.95
9.89
9.78
9.53
9.06
8.38
7.49
6.45
5.30
4.07
2.80
1.57
0.44
-0.53
-1.36
-2.10
-2.87
-3.77
-4.87
-6.20
-7.74
-9.43
-11.19
-12.93
-14.49
-15.69
-16.27
-16.00
-14.72
-12.44
-9.36
-5.81
-2.13
1.36
4.47
7.10
9.21
10.73
11.63
11.91
11.63
10.98
10.15
9.38
8.80
8.48
8.41
8.50
8.59
8.53
8.16
7.45
6.45
5.33
4.28
3.42
2.75
2.17
1.53
0.72
-0.31
-1.47
-2.67
-3.83
-4.92
-5.95
-6.96
-7.94
-8.83
-9.61
-10.32
-11.10
-12.10
-13.41
-14.87
-16.10
-16.62
-16.07
-14.35
-11.69
-8.52
-5.23
-2.06
0.93
3.78
6.47
8.81
10.59
11.61
11.85
11.48
10.78
10.01
9.36
8.86
8.44
7.99
7.40
6.65
5.79
4.92
4.14
3.50
2.97
2.43
1.76
0.87
-0.25
-1.54
-2.86
-4.10
-5.18
-6.10
-6.95
-7.82
-8.84
-10.07
-11.51
-13.10
-14.75
-16.33
-17.68
-18.64
-19.01
-18.66
-17.49
-15.54
-12.96
-10.04
-7.06
-4.32
-2.01
-0.25
0.96
1.64
1.88
1.75
1.37
0.87
0.35
-0.09
-0.39
-0.54
-0.54
-0.39
-0.11
0.27
0.74
1.21
1.61
1.82
1.74
1.29
0.48
-0.61
-1.83
-2.98
-3.88
-4.43
-4.64
-4.60
-4.51
-4.60
-5.05
-5.96
-7.24
-8.66
-9.83
-10.40
-10.10
-8.87
-6.85
-4.31
-1.52
1.30
4.02
6.50
8.63
10.28
11.32
11.70
11.55
11.07
10.52
10.13
9.98
10.05
10.19
10.27
10.18
9.95
9.65
9.35
9.08
8.74
8.19
7.29
6.03
4.48
2.82
1.23
-0.18
-1.37
-2.39
-3.30
-4.17
-5.08
-6.08
-7.27
-8.73
-10.41
-12.15
-13.64
-14.47
-14.32
-13.02
-10.66
-7.55
-4.09
-0.69
2.39
4.96
6.98
8.44
9.36
9.78
9.79
9.50
9.10
8.75
8.57
8.59
8.72
8.79
8.67
8.30
7.70
7.04
6.43
5.96
5.62
5.28
4.80
4.06
3.03
1.76
0.39
-0.94
-2.13
-3.11
-3.90
-4.62
-5.40
-6.40
-7.71
-9.32
-11.11
-12.80
-14.07
-14.58
-14.11
-12.62
-10.26
-7.35
-4.22
-1.14
1.74
4.34
6.59
8.37
9.54
10.02
9.85
9.26
8.57
8.05
7.86
7.94
8.12
8.23
8.16
7.92
7.57
7.17
6.72
6.17
5.47
4.62
3.67
2.71
1.79
0.93
0.10
-0.77
-1.73
-2.83
-4.04
-5.31
-6.55
-7.72
-8.85
-10.02
-11.29
-12.64
-13.91
-14.81
-15.00
-14.25
-12.50
-9.91
-6.77
-3.46
-0.28
2.56
4.94
6.84
8.25
9.17
9.63
9.70
9.50
9.19
8.91
8.77
8.83
9.01
9.21
9.27
9.11
8.69
8.10
7.46
6.87
6.39
5.96
5.49
4.84
3.96
2.82
1.53
0.20
-1.06
-2.20
-3.26
-4.32
-5.50
-6.87
-8.50
-10.38
-12.41
-14.44
-16.21
-17.44
-17.84
-17.18
-15.41
-12.66
-9.23
-5.52
-1.91
1.32
4.02
6.18
7.83
9.08
10.00
10.69
11.22
11.58
11.74
11.65
11.28
10.66
9.88
9.06
8.31
7.67
7.17
6.78
6.42
6.00
5.43
4.61
3.51
2.21
0.82
-0.54
-1.78
-2.93
-4.06
-5.24
-6.49
-7.80
-9.13
-10.47
-11.87
-13.34
-14.83
-16.17
-17.08
-17.23
-16.41
-14.55
-11.80
-8.46
-4.87
-1.34
1.93
4.78
7.12
8.85
9.90
10.29
10.14
9.68
9.16
8.82
8.77
9.00
9.35
9.67
9.80
9.67
9.29
8.72
8.04
7.32
6.62
5.93
5.25
4.55
3.75
2.83
1.74
0.50
-0.86
-2.23
-3.55
-4.76
-5.88
-6.94
-8.06
-9.32
-10.77
-12.38
-14.04
-15.49
-16.45
-16.64
-15.90
-14.19
-11.63
-8.44
-4.90
-1.24
2.30
5.51
8.21
10.28
11.67
12.42
12.64
12.48
12.07
11.53
10.93
10.32
9.73
9.21
8.74
8.31
7.85
7.27
6.50
5.48
4.23
2.85
1.45
0.14
-1.03
-2.12
-3.23
-4.43
-5.73
-7.03
-8.20
-9.17
-9.96
-10.65
-11.32
-11.99
-12.67
-13.35
-14.11
-15.04
-16.19
-17.43
-18.43
-18.78
-18.14
-16.42
-13.77
-10.56
-7.18
-3.92
-0.97
1.57
3.65
5.18
6.12
6.48
6.38
6.01
5.59
5.31
5.26
5.45
5.80
6.20
6.50
6.62
6.53
6.29
6.01
5.79
5.63
5.46
5.09
4.37
3.24
1.81
0.33
-0.95
-1.84
-2.36
-2.71
-3.14
-3.86
-4.94
-6.33
-7.91
-9.56
-11.17
-12.59
-13.58
-13.88
-13.23
-11.53
-8.91
-5.68
-2.26
1.00
3.88
6.28
8.21
9.67
10.62
11.07
11.06
10.70
10.19
9.71
9.40
9.32
9.45
9.68
9.93
10.11
10.20
10.22
10.18
10.09
9.92
9.61
9.07
8.32
7.43
6.55
5.80
5.22
4.69
4.04
3.07
1.68
-0.12
-2.24
-4.53
-6.85
-9.08
-11.06
-12.63
-13.58
-13.71
-12.93
-11.23
-8.79
-5.88
-2.87
-0.06
2.31
4.17
5.57
6.60
7.32
7.71
7.71
7.25
6.35
5.10
3.68
2.26
0.96
-0.16
-1.11
-1.91
-2.58
-3.14
-3.65
-4.18
-4.82
-5.59
-6.41
-7.14
-7.56
-7.59
-7.28
-6.85
-6.58
-6.71
-7.35
-8.50
-10.06
-11.88
-13.76
-15.41
-16.45
-16.44
-15.09
-12.36
-8.53
-4.14
0.23
4.12
7.30
9.73
11.44
12.48
12.87
12.66
12.01
11.15
10.37
9.88
9.74
9.87
10.06
10.09
9.82
9.21
8.34
7.33
6.35
5.49
4.79
4.25
3.81
3.38
2.86
2.20
1.35
0.34
-0.79
-1.98
-3.16
-4.34
-5.57
-6.95
-8.56
-10.40
-12.31
-14.02
-15.14
-15.30
-14.30
-12.15
-9.12
-5.63
-2.18
0.83
3.17
4.82
5.94
6.74
7.39
7.97
8.48
8.88
9.19
9.44
9.71
9.98
10.18
10.21
10.02
9.71
9.46
9.46
9.72
10.09
10.23
9.86
8.83
7.22
5.31
3.38
1.63
0.09
-1.28
-2.60
-3.92
-5.27
-6.68
-8.22
-9.92
-11.74
-13.48
-14.83
-15.40
-14.95
-13.36
-10.76
-7.45
-3.77
-0.08
3.35
6.32
8.73
10.50
11.62
12.10
12.03
11.51
10.70
9.80
8.99
8.39
8.04
7.85
7.67
7.38
6.94
6.42
5.93
5.60
5.38
5.16
4.74
3.95
2.74
1.23
-0.37
-1.86
-3.14
-4.26
-5.35
-6.54
-7.85
-9.23
-10.57
-11.79
-12.91
-13.93
-14.83
-15.49
-15.68
-15.15
-13.74
-11.46
-8.51
-5.22
-1.93
1.08
3.63
5.66
7.17
8.15
8.66
8.78
8.63
8.39
8.22
8.23
8.39
8.63
8.79
8.75
8.47
7.98
7.36
6.68
5.98
5.23
4.42
3.57
2.71
1.85
0.98
0.06
-0.94
-2.02
-3.15
-4.25
-5.26
-6.19
-7.09
-8.05
-9.13
-10.37
-11.69
-12.96
-13.97
-14.47
-14.21
-13.07
-11.10
-8.50
-5.62
-2.78
-0.19
2.11
