1653293218.00
64.000000
-0.00
-0.00
-0.00
-0.00
-0.00
-0.00
-0.00
-0.00
-0.00
-0.00
0.00
0.01
0.01
-0.00
-0.03
-0.05
-0.05
0.00
0.13
0.36
0.66
1.01
1.37
1.72
2.06
2.40
2.79
3.24
3.80
4.42
5.06
5.66
6.20
6.68
7.15
7.68
8.31
9.14
10.09
11.04
11.88
12.56
13.14
13.76
14.65
15.96
17.91
20.32
22.90
25.38
27.58
29.57
31.68
34.32
37.81
42.54
48.15
54.11
59.83
64.97
69.58
74.14
79.35
85.73
93.80
103.05
112.64
121.68
129.60
136.44
142.85
150.17
157.12
165.96
177.25
191.08
206.21
219.72
227.27
224.27
207.36
175.68
131.59
78.91
21.91
-36.24
-93.99
-151.04
-207.44
-262.80
-316.25
-366.33
-412.24
-453.42
-489.41
-519.36
-541.76
-554.67
-556.09
-544.79
-520.62
-485.01
-440.41
-389.73
-335.68
-280.32
-224.94
-170.37
-117.36
-66.85
-20.22
21.06
55.87
83.77
105.19
121.24
133.26
142.38
149.24
153.85
155.90
154.99
150.75
143.09
132.44
120.05
108.14
99.59
97.09
102.07
113.88
129.81
145.98
158.70
165.73
166.64
162.42
154.63
144.59
133.14
120.76
107.91
95.21
83.35
72.89
64.19
57.00
50.82
45.11
39.50
33.91
28.52
23.64
19.56
16.38
13.91
11.79
9.66
7.27
4.61
1.89
-0.63
-2.70
-4.23
-5.27
-5.89
-6.21
-6.35
-6.43
-6.61
-7.04
-7.79
-8.79
-9.83
-10.60
-10.66
-9.54
-6.91
-2.78
2.32
7.39
11.24
12.90
12.10
9.33
5.61
2.01
-0.79
-2.66
-3.84
-4.59
-4.99
-4.92
-4.29
-3.26
-2.21
-1.57
-1.58
-2.18
-3.12
-4.12
-5.05
-5.99
-7.05
-8.26
-9.49
-10.47
-10.92
-10.64
-9.55
-7.63
-4.94
-1.67
1.77
4.79
6.70
7.05
5.89
3.76
1.56
0.14
-0.05
0.97
2.80
4.93
6.95
8.64
9.87
10.50
10.40
9.47
7.84
5.80
3.77
2.07
0.91
0.30
0.22
0.50
0.94
1.30
1.30
0.69
-0.60
-2.46
-4.62
-6.72
-8.47
-9.70
-10.33
-10.41
-10.05
-9.42
-8.78
-8.33
-8.25
-8.56
-9.14
-9.77
-10.17
-10.05
-9.11
-7.18
-4.28
-0.68
3.07
6.33
8.56
9.51
9.26
8.16
6.61
4.95
3.38
2.01
0.84
-0.11
-0.81
-1.29
-1.59
-1.76
-1.84
-1.83
-1.71
-1.51
-1.26
-1.06
-1.02
-1.28
-1.90
-2.87
-4.07
-5.22
-6.08
-6.47
-6.41
-6.10
-5.86
-6.06
-6.98
-8.72
-11.00
-13.40
-15.37
-16.30
-15.72
-13.38
-9.35
-4.05
1.89
7.72
12.81
16.70
19.19
20.31
20.24
19.25
17.64
15.70
13.66
11.69
9.92
8.45
7.35
6.63
6.23
6.00
5.73
5.23
4.35
3.12
1.63
0.06
-1.44
-2.81
-4.09
-5.41
-6.94
-8.87
-11.32
-14.31
-17.66
-20.96
-23.59
-24.88
-24.28
-21.57
-16.97
-11.09
-4.74
1.29
6.45
10.48
13.39
15.24
16.14
16.12
15.23
13.68
11.79
10.02
8.74
8.14
8.14
8.45
8.72
8.69
8.26
7.46
6.43
5.25
3.98
2.62
1.15
-0.47
-2.23
-4.16
-6.32
-8.79
-11.63
-14.81
-18.12
-21.18
-23.44
-24.35
-23.50
-20.76
-16.32
-10.67
-4.50
1.50
6.76
10.87
13.67
15.19
15.60
15.17
14.19
12.94
11.62
10.42
9.48
8.87
8.58
8.53
8.55
8.43
8.02
7.26
6.18
4.92
3.56
2.18
0.77
-0.74
-2.39
-4.20
-6.19
-8.37
-10.75
-13.32
-16.00
-18.53
-20.51
-21.44
-20.89
-18.62
-14.74
-9.67
-4.02
1.55
6.51
10.56
13.64
15.76
17.03
17.52
17.34
16.64
15.63
14.57
13.65
13.01
12.69
12.64
12.80
13.07
13.34
13.44
13.21
12.55
11.43
10.01
8.53
7.24
6.30
5.73
5.41
5.12
4.63
3.80
2.59
1.12
-0.39
-1.60
-2.19
-1.84
-0.37
2.34
6.34
11.65
18.27
26.11
34.89
44.09
52.97
60.65
66.37
69.81
71.19
71.30
71.19
71.81
73.51
75.92
78.18
79.19
78.04
74.14
67.20
57.26
44.84
31.00
17.26
5.01
-5.18
-14.13
-23.86
-36.70
-54.00
-75.31
-98.43
-120.50
-139.29
-154.06
-165.43
-174.36
-180.97
-184.13
-181.92
-172.90
-157.18
-136.80
-115.03
-95.08
-78.87
-66.53
-56.74
-47.84
-38.83
-29.79
-21.67
-15.52
-11.77
-9.96
-8.94
-7.53
-5.02
-1.45
2.57
6.28
9.18
11.21
12.69
14.01
15.34
16.55
17.30
17.37
16.84
16.09
15.69
16.10
17.43
19.46
21.68
23.58
24.83
25.35
25.35
25.12
25.00
25.21
25.82
26.76
27.84
28.90
29.84
30.75
31.82
33.24
35.00
36.85
38.34
38.98
38.46
36.76
34.17
31.11
28.03
25.28
23.10
21.65
21.13
21.72
23.40
25.81
28.15
29.19
27.72
22.96
15.03
4.95
-5.66
-15.13
-22.39
-27.17
-29.95
-31.53
-32.60
-33.52
-34.38
-35.14
-35.78
-36.24
-36.39
-35.86
-34.18
-30.89
-25.89
-19.50
-12.43
-5.56
0.36
4.93
8.12
10.17
11.40
12.09
12.44
12.56
12.58
12.61
12.75
13.07
13.55
14.17
14.87
15.57
16.14
16.40
16.14
15.19
13.46
11.03
8.13
5.05
2.05
-0.73
-3.26
-5.61
-7.93
-10.37
-13.09
-16.20
-19.72
-23.44
-26.97
-29.69
-30.91
-30.08
-26.97
-21.83
-15.28
-8.19
-1.40
4.48
9.19
12.68
15.07
16.49
17.07
16.97
16.44
15.80
15.32
15.17
15.29
15.48
15.53
15.29
14.77
14.11
13.49
12.98
12.57
12.08
11.28
9.98
8.09
5.69
2.98
0.24
-2.30
-4.57
-6.66
-8.79
-11.22
-14.10
-17.43
-21.07
-24.72
-27.96
-30.27
-31.09
-29.94
-26.64
-21.37
-14.71
-7.51
-0.58
5.45
10.28
13.92
16.48
18.09
18.86
18.89
18.37
17.56
16.76
16.21
16.02
16.14
16.43
16.73
16.91
16.87
16.55
15.89
14.88
13.50
11.74
9.63
7.24
4.69
2.11
-0.35
-2.59
-4.61
-6.52
-8.55
-10.94
-13.89
-17.40
-21.20
-24.73
-27.23
-27.99
-26.54
-22.82
-17.23
-10.54
-3.60
2.82
8.25
12.53
15.68
17.86
19.17
19.71
19.56
18.86
17.80
16.61
15.47
14.49
13.68
12.99
12.40
11.91
11.56
11.32
11.10
10.73
9.97
8.63
6.63
4.04
1.06
-1.98
-4.79
-7.22
-9.29
-11.24
-13.37
-15.99
-19.19
-22.78
-26.34
-29.21
-30.72
-30.31
-27.74
-23.10
-16.88
-9.78
-2.57
4.04
9.58
13.78
16.56
17.98
18.19
17.41
15.93
14.10
12.28
10.79
9.83
9.43
9.49
9.76
9.97
9.89
9.38
8.44
7.15
5.61
3.88
1.97
-0.12
-2.40
-4.80
-7.26
-9.77
-12.41
-15.35
-18.74
-22.55
-26.47
-29.91
-32.09
-32.35
-30.34
-26.16
-20.36
-13.72
-7.04
-0.98
4.00
7.66
9.90
10.75
10.37
9.01
7.02
4.75
2.45
0.30
-1.61
-3.18
-4.28
-4.77
-4.60
-3.92
-3.05
-2.47
-2.67
-3.99
-6.53
-10.13
-14.44
-19.03
-23.49
-27.45
-30.67
-33.06
-34.69
-35.73
-36.31
-36.47
-36.07
-34.75
-32.05
-27.56
-21.09
-12.86
-3.55
5.88
14.39
21.23
26.06
29.03
30.53
30.98
30.67
29.67
28.00
25.81
23.42
21.24
19.64
18.79
18.58
18.78
19.06
19.28
19.43
19.56
19.69
19.63
19.07
17.72
15.51
12.73
9.97
7.90
6.95
6.99
7.35
6.95
4.81
0.51
-5.55
-12.17
-17.79
-21.04
-21.25
-18.54
-13.73
-7.79
-1.58
4.31
9.51
13.69
16.50
17.68
17.26
15.67
13.63
11.87
10.88
10.75
11.24
11.92
12.45
12.65
12.48
12.00
11.23
10.18
8.87
7.37
5.82
4.41
3.26
2.34
1.45
0.26
-1.52
-4.07
-7.34
-11.14
-15.11
-18.83
-21.86
-23.75
-24.10
-22.70
-19.56
-15.03
-9.71
-4.33
0.44
4.14
6.59
7.83
8.05
7.48
6.36
4.97
3.63
2.68
2.38
2.84
3.88
5.17
6.26
6.81
6.67
5.92
4.75
3.39
1.98
0.55
-0.87
-2.25
-3.44
-4.22
-4.35
-3.66
-2.13
0.05
2.46
4.54
5.68
5.49
3.93
1.50
-0.92
-2.22
-1.45
1.86
7.54
14.81
22.56
29.71
35.48
39.62
42.41
44.63
47.30
51.43
57.73
66.29
76.49
87.08
96.55
103.56
107.36
107.92
105.80
101.91
97.08
91.94
86.77
81.68
76.69
71.73
66.64
61.13
54.81
47.32
38.54
28.65
18.06
7.29
-3.16
-12.73
-20.68
-26.16
-28.37
-26.98
-22.47
-15.97
-9.12
-3.19
1.42
5.25
9.32
14.79
22.63
33.53
47.76
64.80
83.50
102.09
118.38
130.08
135.30
132.98
123.28
107.64
88.18
67.96
50.35
38.14
32.38
31.96
34.08
35.40
33.17
24.77
9.70
-10.47
-33.04
-55.70
-77.20
-97.03
-114.65
-129.42
-143.28
-157.59
-172.33
-186.51
-199.64
-212.33
-225.66
-240.26
-256.43
-278.03
-306.64
-339.78
-371.70
-396.77
-412.07
-417.70
-415.80
-410.23
-410.48
-422.94
-447.51
-477.94
-505.85
-524.20
-528.29
-515.54
-451.59
-325.88
-158.34
10.44
146.09
235.55
283.43
301.11
304.44
303.36
297.40
285.10
267.90
250.67
238.37
232.82
233.08
236.81
240.70
237.98
224.97
203.14
177.96
155.04
137.37
125.06
116.79
110.50
102.27
90.22
75.43
61.01
49.76
42.76
39.55
39.15
40.27
40.71
39.18
35.71
31.37
27.31
24.05
21.60
19.72
18.00
15.68
12.31
7.93
2.94
-2.14
-6.95
-11.19
-14.65
-17.21
-18.95
-20.11
-21.13
-22.37
-24.08
-26.20
-28.55
-30.91
-33.18
-35.46
-37.92
-40.70
-43.67
-46.46
-48.47
-49.07
-47.80
-44.53
-39.43
-32.89
-25.36
-17.18
-8.61
0.15
8.87
17.22
24.82
31.39
36.79
41.09
44.51
47.30
49.63
51.61
53.31
54.83
56.27
57.74
59.20
60.50
61.34
61.47
60.70
59.02
56.55
53.44
49.84
45.86
41.58
37.06
32.36
27.49
22.42
17.07
11.46
5.73
0.26
-4.39
-7.58
-8.79
-7.76
-4.53
0.52
6.81
13.67
20.41
26.48
31.52
35.32
37.87
39.25
39.62
39.17
38.09
36.58
34.82
32.94
31.02
29.12
27.22
25.24
23.13
20.83
18.30
15.54
12.55
9.33
5.89
2.23
-1.56
-5.40
-9.16
-12.81
-16.35
-19.81
-23.12
-26.00
-27.99
-28.54
-27.26
-24.01
-18.98
-12.55
-5.19
2.63
10.47
17.79
24.09
28.90
31.97
33.36
33.39
32.51
31.15
29.56
27.90
26.23
24.63
23.17
21.85
20.60
19.21
17.48
15.26
12.54
9.43
6.18
3.05
0.23
-2.24
-4.48
-6.68
-9.05
-11.72
-14.67
-17.77
-20.77
-23.32
-25.07
-25.64
-24.72
-22.11
-17.88
-12.36
-6.13
0.12
5.75
10.30
13.53
15.43
16.17
15.98
15.11
13.83
12.30
10.72
9.24
8.01
7.17
6.74
6.64
6.68
6.60
6.16
5.27
3.97
2.42
0.74
-1.05
-3.04
-5.38
-8.19
-11.46
-14.96
-18.31
-20.99
-22.54
-22.55
-20.87
-17.59
-13.05
-7.75
-2.23
2.99
7.53
11.11
13.58
14.91
15.17
14.51
13.22
11.63
10.07
8.77
7.82
7.17
6.68
6.16
5.50
4.64
3.61
2.43
1.15
-0.20
-1.61
-3.06
-4.56
-6.15
-7.91
-9.97
-12.43
-15.28
-18.34
-21.21
-23.35
-24.17
-23.26
-20.44
-15.90
-10.13
-3.82
2.32
7.71
11.98
15.04
16.96
17.90
18.07
17.59
16.56
15.10
13.40
11.70
10.29
9.34
8.88
8.72
8.60
8.24
7.52
6.46
5.24
4.00
2.85
1.71
0.44
-1.14
-3.14
-5.60
-8.49
-11.76
-15.33
-19.03
-22.57
-25.50
-27.26
-27.41
-25.71
-22.29
-17.62
-12.33
-7.06
-2.28
1.72
4.82
7.01
8.27
8.65
8.24
7.21
5.83
4.41
3.24
2.50
2.21
2.22
2.28
2.10
1.52
0.48
-0.92
-2.48
-4.03
-5.43
-6.66
-7.80
-9.07
-10.66
-12.77
-15.46
-18.57
-21.77
-24.56
-26.36
-26.67
-25.24
-22.09
-17.53
-12.10
-6.43
-1.08
3.52
7.10
9.56
10.88
11.15
10.52
9.24
7.67
6.14
4.93
4.17
3.77
3.53
3.24
2.73
1.93
0.90
-0.29
-1.55
-2.81
-4.08
-5.43
-6.95
-8.78
-11.01
-13.69
-16.72
-19.89
-22.82
-25.05
-26.13
-25.70
-23.63
-20.04
-15.33
-10.05
-4.75
0.09
4.19
7.46
9.94
11.69
12.76
13.16
12.93
12.16
11.07
9.92
8.96
8.37
8.19
8.33
8.60
8.78
8.70
8.29
7.53
6.44
5.05
3.37
1.43
-0.72
-3.01
-5.36
-7.78
-10.35
-13.17
-16.31
-19.60
-22.65
-24.86
-25.61
-24.52
-21.53
-17.01
-11.56
-5.93
-0.75
3.55
6.76
8.85
9.88
9.95
9.19
7.80
6.03
4.21
2.66
1.58
1.02
0.81
0.62
0.11
-0.96
-2.61
-4.61
-6.50
-7.78
-8.04
-7.12
-5.14
-2.50
0.29
2.76
4.55
5.47
5.42
4.33
2.18
-0.94
-4.75
-8.73
-12.20
-14.51
-15.23
-14.30
-12.02
-8.90
-5.50
-2.30
0.41
2.48
3.88
4.63
4.81
4.53
3.91
3.11
2.28
1.63
1.31
1.46
2.12
3.24
4.76
6.61
8.82
11.39
14.27
17.20
19.78
21.51
21.99
21.03
18.73
15.48
11.79
8.09
4.68
1.58
-1.36
-4.35
-7.57
-11.05
-14.67
-18.16
-21.17
-23.26
-24.02
-23.13
-20.46
-16.09
-10.41
-3.98
2.52
8.51
13.54
17.47
20.30
22.20
23.33
23.82
23.74
23.17
22.28
21.32
20.61
20.35
20.55
20.99
21.32
21.22
20.58
19.45
18.03
16.49
14.91
13.28
11.54
9.66
7.67
5.61
3.48
1.28
-1.00
-3.34
-5.61
-7.69
-9.48
-10.96
-12.23
-13.45
-14.87
-16.72
-19.20
-22.34
-25.91
-29.44
-32.27
-33.78
-33.63
-31.84
-28.80
-25.08
-21.27
-17.82
-14.93
-12.58
-10.59
-8.64
-6.37
-3.47
0.23
4.71
9.73
14.94
19.94
24.36
27.89
30.30
31.43
31.25
29.87
27.56
24.70
21.68
18.77
16.09
13.58
11.09
8.45
5.57
2.50
-0.60
-3.51
-6.04
-8.07
-9.65
-11.01
-12.48
-14.40
-16.97
-20.11
-23.47
-26.45
-28.36
-28.62
-26.91
-23.25
-18.04
-11.89
-5.56
0.24
4.97
8.26
9.99
10.20
9.10
6.98
4.24
1.39
-1.04
-2.57
-2.90
-2.02
-0.12
2.46
5.34
8.24
10.98
13.44
15.53
17.15
18.18
18.52
18.07
16.82
14.79
12.12
9.01
5.70
2.40
-0.75
-3.74
-6.63
-9.50
-12.42
-15.44
-18.54
-21.67
-24.62
-27.06
-28.52
-28.52
-26.77
-23.23
-18.26
-12.46
-6.54
-1.09
3.52
7.19
9.97
11.96
13.25
13.88
13.93
13.48
12.72
11.85
11.04
10.40
9.95
9.65
9.44
9.26
9.05
8.75
8.30
7.63
6.70
5.49
4.01
2.31
0.46
-1.44
-3.31
-5.11
-6.82
-8.53
-10.33
-12.36
-14.74
-17.57
-20.83
-24.35
-27.75
-30.48
-31.93
-31.61
-29.33
-25.27
-19.93
-13.92
-7.84
-2.13
2.92
7.11
10.32
12.42
13.41
13.38
12.62
11.52
10.49
9.89
9.85
10.31
10.98
11.53
11.66
11.26
10.38
9.19
7.88
6.57
5.31
4.06
2.78
1.40
-0.13
-1.88
-3.86
-6.02
-8.26
-10.43
-12.46
-14.35
-16.25
-18.33
-20.77
-23.65
-26.92
-30.32
-33.42
-35.65
-36.36
-35.09
-31.66
-26.29
-19.62
-12.42
-5.48
0.70
5.83
9.88
12.89
14.89
15.91
16.00
15.35
14.27
13.16
12.37
12.16
12.57
13.47
14.62
15.71
16.45
16.68
16.36
15.58
14.47
13.13
11.59
9.84
7.80
5.46
2.85
0.08
-2.74
-5.48
-8.08
-10.46
-12.62
-14.61
-16.53
-18.59
-20.99
-23.87
-27.15
-30.50
-33.35
-35.03
-34.94
-32.72
-28.36
-22.20
-14.89
-7.18
0.17
6.57
11.67
15.31
17.55
18.52
18.46
17.65
16.42
15.10
13.98
13.23
12.85
12.76
12.79
12.86
12.93
12.96
12.89
12.53
11.67
10.16
8.00
5.42
2.74
0.23
-2.00
-4.05
-6.14
-8.49
-11.25
-14.39
-17.81
-21.25
-24.37
-26.69
-27.69
-26.90
-24.06
-19.28
-13.01
-5.93
1.20
7.76
13.33
17.70
20.78
22.55
23.09
22.61
21.48
20.13
19.00
18.33
18.16
18.30
18.49
18.48
18.18
17.61
16.89
16.08
15.22
14.24
13.03
11.48
9.55
7.27
4.74
2.14
-0.42
-2.84
-5.15
-7.42
-9.78
-12.36
-15.27
-18.61
-22.30
-26.09
-29.45
-31.69
-32.11
-30.25
-26.11
-20.11
-13.02
-5.71
1.08
6.86
11.35
14.44
16.09
16.30
15.20
13.01
10.14
7.04
4.10
1.60
-0.28
-1.40
-1.56
-0.51
1.91
5.64
10.23
14.90
18.77
21.12
21.63
20.46
18.10
15.14
12.01
8.88
5.71
2.32
-1.46
-5.70
-10.33
-15.07
-19.50
-23.05
-25.13
-25.30
-23.38
-19.56
-14.32
-8.31
-2.17
3.56
8.56
12.62
15.61
17.46
18.16
17.85
16.76
15.25
13.65
12.21
11.05
10.16
9.49
9.01
8.71
8.55
8.45
8.25
7.69
6.57
4.76
2.30
-0.61
-3.68
-6.60
-9.19
-11.42
-13.45
-15.54
-17.94
-20.75
-23.75
-26.46
-28.24
-28.48
-26.81
-23.21
-18.00
-11.75
-5.10
1.37
7.18
11.99
15.59
17.90
18.98
19.03
18.38
17.42
16.50
15.83
15.44
15.26
15.13
14.93
14.62
14.25
13.88
13.56
13.20
12.65
11.69
10.14
7.96
5.24
2.23
-0.80
-3.61
-6.09
-8.31
-10.45
-12.75
-15.43
-18.61
-22.21
-25.87
-29.05
-31.05
-31.22
-29.18
-24.95
-18.98
-12.00
-4.84
1.80
7.42
11.80
14.90
16.81
17.68
17.71
17.13
16.22
15.22
14.34
13.68
13.24
12.93
12.60
12.15
11.60
10.99
10.42
9.87
9.18
8.10
6.44
4.18
1.50
-1.26
-3.79
-5.90
-7.60
-9.09
-10.68
-12.67
-15.28
-18.54
-22.23
-25.83
-28.62
-29.86
-29.04
-26.03
-21.19
-15.19
-8.79
-2.62
2.93
7.65
11.46
14.25
15.97
16.59
16.25
15.27
14.05
12.97
12.27
11.93
11.80
11.67
11.42
11.06
10.69
10.36
10.00
9.39
8.28
6.51
4.13
1.36
-1.45
-4.04
-6.27
-8.16
-9.84
-11.49
-13.26
-15.31
-17.67
-20.22
-22.60
-24.23
-24.46
-22.74
-18.92
-13.29
-6.49
0.67
7.47
13.39
18.15
21.61
23.73
24.53
24.10
22.70
20.72
18.60
16.70
15.24
14.23
13.54
12.95
12.30
11.51
10.65
9.83
9.13
8.53
7.83
6.76
5.06
2.66
-0.31
-3.54
-6.62
-9.27
-11.44
-13.30
-15.18
-17.45
-20.30
-23.70
-27.34
-30.68
-33.09
-33.98
-32.94
-29.88
-25.03
-18.88
-12.08
-5.32
0.86
6.08
10.16
13.09
14.96
15.89
16.07
15.70
15.03
14.32
13.79
13.52
13.47
13.51
13.50
13.37
13.10
12.66
11.98
10.94
9.44
7.53
5.38
3.30
1.50
0.03
-1.29
-2.80
-4.80
-7.47
-10.80
-14.58
-18.47
-22.01
-24.65
-25.79
-24.94
-21.84
-16.68
-10.03
-2.79
4.14
10.10
14.86
18.61
21.79
24.84
28.00
31.23
34.21
36.53
37.74
37.48
35.49
31.64
25.99
18.82
10.67
2.31
-5.55
-12.35
-17.96
-22.69
-27.16
-31.98
-37.46
-43.30
-48.63
-52.23
-52.93
-50.10
-43.89
-35.38
-26.28
-18.47
-13.45
-11.95
-13.72
-17.70
-22.40
-26.32
-28.25
-27.44
-23.58
-16.77
-7.51
3.35
14.60
24.91
33.12
38.58
41.28
41.74
40.69
38.71
36.03
32.55
28.00
22.20
15.19
7.37
-0.39
-6.84
-10.51
-10.16
-5.30
3.38
14.04
24.22
31.61
34.93
34.18
30.41
25.03
19.20
13.48
8.02
2.87
-1.73
-5.40
-7.75
-8.74
-8.62
-7.94
-7.18
-6.70
-6.63
-6.98
-7.74
-8.87
-10.21
-11.38
-11.81
-10.91
-8.35
-4.28
0.64
5.46
9.25
11.36
11.67
10.44
8.13
5.16
1.78
-1.91
-5.86
-9.91
-13.78
-17.13
-19.76
-21.63
-22.92
-23.97
-25.06
-26.43
-28.20
-30.37
-32.84
-35.30
-37.13
-37.44
-35.30
-30.08
-21.85
-11.47
-0.35
9.99
18.45
24.57
28.54
30.81
31.86
31.95
31.19
29.68
27.64
25.41
23.29
21.45
19.84
18.29
16.60
14.70
12.68
10.77
9.26
8.36
8.13
8.41
8.84
8.97
8.38
6.88
4.54
1.70
-1.20
-3.74
-5.72
-7.13
-8.20
-9.24
-10.63
-12.69
-15.59
-19.29
-23.42
-27.26
-29.93
-30.60
-28.74
-24.40
-18.15
-10.94
-3.78
2.52
7.51
11.10
13.44
14.77
15.33
15.32
14.92
14.30
13.59
12.91
12.33
11.85
11.49
11.19
10.92
10.63
10.21
9.57
8.64
7.40
5.86
4.08
2.12
0.00
-2.26
-4.66
-7.17
-9.79
-12.51
-15.39
-18.44
-21.56
-24.43
-26.56
-27.36
-26.37
-23.45
-18.84
-13.14
-7.07
-1.30
3.75
7.91
11.20
13.71
15.49
16.55
16.86
16.50
15.67
14.70
13.91
13.47
13.37
13.37
13.16
12.52
11.41
10.03
8.67
7.58
6.82
6.27
5.61
4.50
2.70
0.21
-2.75
-5.79
-8.50
-10.63
-12.14
-13.26
-14.45
-16.22
-19.06
-23.20
-28.48
-34.26
-39.46
-42.66
-42.48
-38.02
-29.15
-16.75
-2.52
11.46
23.32
31.84
36.69
38.24
37.27
34.59
30.87
26.62
22.27
18.26
14.94
12.48
10.79
9.53
8.29
6.83
5.15
3.47
2.07
1.06
0.29
-0.55
-1.75
-3.42
-5.43
-7.44
-9.16
-10.44
-11.40
-12.32
-13.55
-15.30
-17.64
-20.45
-23.43
-26.17
-28.14
-28.81
-27.75
-24.80
-20.16
-14.36
-8.08
-2.01
3.36
7.79
11.16
13.49
14.81
15.18
14.78
13.88
12.87
12.07
11.72
11.82
12.22
12.61
12.74
12.44
11.70
10.63
9.41
8.18
6.96
5.69
4.25
2.49
0.39
-2.02
-4.64
-7.45
-10.51
-13.97
-17.89
-22.12
-26.10
-29.09
-30.32
-29.30
-26.05
-21.05
-15.04
-8.75
-2.69
2.83
7.63
11.57
14.49
16.29
17.01
16.83
16.08
15.08
14.06
13.12
12.26
11.45
10.72
10.12
9.70
9.38
8.99
8.29
7.07
5.26
3.00
0.54
-1.83
-3.94
-5.78
-7.50
-9.32
-11.47
-14.06
-17.10
-20.44
-23.77
-26.58
-28.29
-28.29
-26.15
-21.73
-15.26
-7.36
1.12
9.24
16.18
21.44
24.81
26.40
26.50
25.46
23.63
21.27
18.59
15.76
12.93
10.22
7.74
5.60
3.95
3.03
3.10
4.37
6.80
10.11
13.72
16.95
19.12
19.72
18.47
15.26
10.22
3.63
-4.02
-12.13
-20.01
-27.04
-32.71
-36.61
-38.46
-38.05
-35.32
-30.48
-24.06
-16.83
-9.66
-3.28
1.86
5.64
8.19
9.71
10.41
10.45
9.97
9.15
8.18
7.26
6.57
6.16
5.99
5.95
5.95
5.92
5.90
5.89
5.81
5.55
4.93
3.82
2.23
0.27
-1.88
-4.12
-6.44
-8.97
-11.87
-15.23
-18.88
-22.38
-25.14
-26.50
-25.99
-23.48
-19.20
-13.66
-7.53
-1.43
4.16
8.92
12.68
15.38
17.02
17.69
17.55
16.87
15.92
14.96
14.18
13.63
13.29
13.05
12.81
12.48
11.99
11.23
10.12
8.59
6.62
4.31
1.80
-0.73
-3.12
-5.32
-7.34
-9.32
-11.43
-13.87
-16.79
-20.20
-23.85
-27.21
-29.59
-30.27
-28.84
-25.28
-19.97
-13.58
-6.84
-0.36
5.46
10.35
14.19
16.91
18.54
19.16
19.00
18.34
17.49
16.68
16.06
15.67
15.47
15.36
15.23
15.02
14.71
14.26
13.66
12.83
11.68
10.13
8.17
5.89
3.45
1.02
-1.25
-3.31
-5.24
-7.22
-9.47
-12.19
-15.47
-19.24
-23.14
-26.62
-28.98
-29.58
-28.09
-24.58
-19.48
-13.44
-7.15
-1.14
4.22
8.73
12.26
14.69
16.04
16.43
16.12
15.43
14.67
14.03
13.57
13.24
12.96
12.64
12.25
11.80
11.29
10.71
10.01
9.15
8.09
6.82
5.36
3.75
1.98
0.02
-2.19
-4.71
-7.58
-10.79
-14.28
-17.87
-21.25
-23.95
-25.42
-25.18
-22.99
-18.96
-13.56
-7.51
-1.53
3.81
8.22
11.59
13.97
15.43
16.06
15.96
15.30
14.26
13.06
11.91
10.98
10.35
10.03
9.98
10.02
9.98
9.63
8.81
7.43
5.53
3.20
0.58
-2.15
-4.86
-7.43
-9.86
-12.23
-14.72
-17.53
-20.74
-24.23
-27.62
-30.27
-31.44
-30.58
-27.45
-22.31
-15.76
-8.63
-1.70
4.49
9.68
13.80
16.89
19.01
20.26
20.81
20.89
20.77
20.66
20.61
20.55
20.31
19.80
19.00
18.01
16.91
15.72
14.37
12.74
10.77
8.44
5.86
3.14
0.40
-2.30
-4.94
-7.58
-10.32
-13.30
-16.66
-20.39
-24.28
-27.78
-30.16
-30.67
-28.82
-24.63
-18.64
-11.71
-4.81
1.28
6.13
9.58
11.72
12.74
12.87
12.38
11.51
10.48
9.47
8.61
7.99
7.68
7.73
8.09
8.62
9.05
9.10
8.52
7.25
5.39
3.19
0.92
-1.24
-3.24
-5.16
-7.17
-9.45
-12.15
-15.36
-18.99
-22.77
-26.20
-28.63
-29.40
-28.07
-24.54
-19.13
-12.49
-5.42
1.35
7.23
11.94
15.34
17.46
18.41
18.36
17.55
16.25
14.80
13.49
12.53
11.98
11.76
11.70
11.61
11.32
10.78
10.03
9.08
7.95
6.55
4.83
2.74
0.34
-2.24
-4.83
-7.34
-9.77
-12.26
-15.06
-18.35
-22.08
-25.94
-29.30
-31.39
-31.56
-29.44
-25.14
-19.18
-12.33
-5.33
1.21
6.97
11.81
15.69
18.57
20.45
21.37
21.50
21.10
20.50
19.93
19.55
19.31
19.10
18.77
18.22
17.43
16.49
15.45
14.37
13.22
11.91
10.38
8.57
6.48
4.19
1.76
-0.72
-3.19
-5.58
-7.89
-10.18
-12.62
-15.40
-18.62
-22.21
-25.81
-28.87
-30.78
-31.00
-29.22
-25.46
-20.05
-13.57
-6.72
-0.21
5.40
9.77
12.85
14.78
15.79
16.09
15.84
15.20
14.34
13.49
12.86
12.58
12.61
12.77
12.80
12.48
11.69
10.45
8.87
7.07
5.15
3.18
1.21
-0.71
-2.55
-4.32
-6.07
-7.95
-10.11
-12.70
-15.79
-19.29
-22.90
-26.11
-28.28
-28.76
-27.12
-23.32
-17.73
-11.08
-4.20
2.18
7.62
11.96
15.20
17.43
18.73
19.17
18.90
18.14
17.18
16.26
15.52
14.91
14.30
13.58
12.75
11.94
11.30
10.90
10.66
10.34
9.67
8.50
6.80
4.69
2.38
0.08
-2.07
-3.94
-5.49
-6.72
-7.75
-8.80
-10.13
-11.95
-14.26
-16.76
-18.81
-19.67
-18.63
-15.33
-9.88
-2.82
5.09
13.02
20.27
26.30
30.67
32.99
33.01
30.72
26.50
21.12
15.57
10.72
7.09
4.69
3.13
1.88
0.49
-1.19
-3.14
-5.17
-7.13
-8.97
-10.72
-12.45
-14.24
-16.10
-18.05
-20.07
-22.16
-24.33
-26.58
-28.90
-31.33
-33.94
-36.79
-39.92
-43.25
-46.49
-49.14
-50.64
-50.50
-48.46
-44.59
-39.29
-33.14
-26.75
-20.70
-15.44
-11.32
-8.59
-7.36
-7.59
-8.99
-10.98
-12.76
-13.39
-12.03
-8.09
-1.48
7.34
17.41
27.48
36.30
42.92
46.87
48.15
47.14
44.35
40.33
35.57
30.53
25.65
21.35
17.96
15.55
13.93
12.63
11.13
9.06
6.50
3.96
2.22
2.04
3.81
7.36
12.03
16.95
21.32
24.65
26.74
27.60
27.25
25.71
23.07
19.56
15.66
11.95
8.95
6.96
6.02
5.96
6.48
7.32
8.22
9.01
9.51
9.60
9.15
8.10
6.42
4.13
1.31
-1.97
-5.68
-9.85
-14.56
-19.92
-25.93
-32.42
-39.03
-45.27
-50.57
-54.44
-56.45
-56.37
-54.19
-50.14
-44.68
-38.43
-32.00
-25.89
-20.40
-15.63
-11.53
-7.97
-4.83
-1.98
0.69
3.35
6.14
9.25
12.83
16.92
21.38
25.87
29.91
33.02
34.85
35.30
34.48
32.68
30.19
27.21
23.89
20.27
16.38
12.18
7.64
2.72
-2.61
-8.22
-13.81
-18.87
-22.74
-24.79
-24.61
-22.14
-17.73
-12.04
-5.86
0.09
5.27
9.37
12.34
14.18
15.01
14.98
14.30
13.22
12.02
10.95
10.14
9.61
9.26
8.99
8.65
8.15
7.43
6.48
5.34
4.12
2.94
1.86
0.89
-0.09
-1.28
-2.91
-5.17
-8.08
-11.42
-14.77
-17.48
-18.90
-18.52
-16.21
-12.22
-7.12
-1.56
3.91
8.98
13.53
17.47
20.66
22.90
24.02
24.03
23.18
21.87
20.53
19.48
18.84
18.50
18.22
17.74
16.84
15.48
13.71
11.68
9.53
7.35
5.05
2.46
-0.62
-4.32
-8.60
-13.28
-18.13
-22.94
-27.55
-31.78
-35.32
-37.77
-38.66
-37.64
-34.60
-29.67
-23.11
-15.21
-6.24
3.44
13.21
22.19
29.40
34.04
35.84
35.13
32.66
29.31
25.79
22.54
19.76
17.54
15.95
14.93
14.31
13.73
12.81
11.29
9.16
6.63
4.05
1.71
-0.30
-2.07
-3.83
-5.87
-8.43
-11.59
-15.17
-18.71
-21.52
-22.89
-22.26
-19.55
-15.16
-9.84
-4.45
0.38
4.34
7.46
9.87
11.63
12.69
12.96
12.45
11.36
10.04
8.83
7.89
7.17
6.52
5.79
4.98
4.20
3.56
3.05
2.48
1.58
0.17
-1.73
-3.94
-6.15
-8.14
-9.84
-11.37
-12.92
-14.62
-16.42
-18.06
-19.14
-19.22
-17.99
-15.37
-11.55
-6.91
-1.98
2.76
6.90
10.19
12.47
13.66
13.76
12.90
11.31
9.32
7.33
5.62
4.34
3.45
2.83
2.33
1.87
1.48
1.23
1.13
1.14
1.15
1.03
0.69
0.06
-0.92
-2.32
-4.23
-6.68
-9.65
-13.03
-16.61
-20.07
-23.02
-25.00
-25.58
-24.48
-21.67
-17.46
-12.42
-7.22
-2.43
1.64
4.86
7.18
8.55
8.91
8.27
6.85
5.13
3.70
3.06
3.37
4.37
5.50
6.09
5.73
4.41
2.53
0.74
-0.42
-0.73
-0.41
0.04
0.05
-0.68
-2.12
-3.95
-5.80
-7.45
-8.97
-10.59
-12.59
-15.06
-17.83
-20.48
-22.42
-23.06
-21.97
-18.98
-14.23
-8.19
-1.57
4.84
10.26
14.09
16.03
16.13
14.77
12.54
10.05
7.74
5.82
4.26
2.93
1.71
0.55
-0.53
-1.54
-2.55
-3.65
-4.91
-6.29
-7.63
-8.73
-9.47
-9.85
-10.01
-10.18
-10.57
-11.34
-12.56
-14.25
-16.43
-19.10
-22.20
-25.47
-28.49
-30.66
-31.37
-30.23
-27.19
-22.54
-16.87
-10.83
-5.03
0.11
4.36
7.64
9.98
11.40
11.99
11.85
11.20
10.30
9.44
8.85
8.63
8.74
8.99
9.17
9.09
8.66
7.87
6.78
5.48
4.07
2.64
1.26
-0.11
-1.54
-3.23
-5.40
-8.30
-12.08
-16.71
-21.91
-27.11
-31.56
-34.42
-35.04
-33.11
-28.81
-22.70
-15.53
-8.04
-0.73
6.10
12.25
17.53
21.69
24.51
25.92
26.14
25.60
24.87
24.45
24.56
25.15
25.91
26.49
26.60
26.18
25.28
24.05
22.58
20.90
18.91
16.48
13.49
9.84
5.52
0.63
-4.62
-9.89
-14.80
-19.03
-22.44
-25.20
-27.71
-30.45
-33.68
-37.27
-40.57
-42.65
-42.54
-39.61
-33.76
-25.43
-15.43
-4.67
6.03
16.03
24.88
32.22
37.81
41.54
43.49
43.97
43.43
42.36
41.18
40.11
39.15
38.17
36.95
35.35
33.29
30.81
28.00
24.94
21.71
18.36
14.94
11.56
8.33
5.39
2.80
0.53
-1.51
-3.52
-5.73
-8.34
-11.48
-15.13
-19.02
-22.65
-25.33
-26.34
-25.19
-21.80
-16.53
-10.16
-3.56
2.47
7.45
11.20
13.76
15.23
15.76
15.48
14.57
13.29
11.95
10.84
10.13
9.86
9.89
10.04
10.12
10.00
9.65
9.10
8.40
7.60
6.66
5.50
3.99
2.04
-0.32
-2.97
-5.65
-8.16
-10.35
-12.25
-14.01
-15.89
-18.13
-20.86
-24.03
-27.37
-30.40
-32.52
-33.14
-31.80
-28.37
-23.05
-16.41
-9.20
-2.22
3.87
8.67
12.07
14.19
15.29
15.66
15.58
15.27
14.90
14.58
14.35
14.15
13.83
13.23
12.24
10.87
9.26
7.59
6.05
4.71
3.53
2.45
1.34
0.14
-1.16
-2.56
-4.04
-5.64
-7.36
-9.21
-11.16
-13.18
-15.30
-17.53
-19.90
-22.26
-24.24
-25.23
-24.62
-21.98
-17.35
-11.34
-4.85
1.19
6.16
9.93
12.68
14.66
15.98
16.56
16.26
15.12
13.36
11.41
9.66
8.35
7.47
6.91
6.49
6.04
5.45
4.64
3.55
2.18
0.57
-1.22
-3.09
-5.03
-7.02
-9.08
-11.22
-13.49
-16.04
-19.01
-22.50
-26.34
-30.00
-32.70
-33.59
-32.09
-28.14
-22.21
-15.16
-7.89
-1.11
4.77
9.61
13.44
16.25
18.01
18.73
18.52
17.62
16.33
14.99
13.83
13.00
12.46
12.15
11.90
11.57
11.01
10.11
8.84
7.23
5.39
3.41
1.38
-0.69
-2.80
-5.00
-7.27
-9.65
-12.20
-15.07
-18.39
-22.15
-26.01
-29.32
-31.21
-30.92
-28.12
-23.01
-16.32
-9.00
-1.95
4.25
9.32
13.26
16.09
17.88
18.65
18.51
17.66
16.41
15.06
13.87
12.99
12.46
12.23
12.20
12.27
12.29
12.06
11.39
10.15
8.29
5.89
3.14
0.26
-2.57
-5.17
-7.48
-9.54
-11.54
-13.80
-16.65
-20.27
-24.45
-28.56
-31.58
-32.49
-30.60
-25.85
-18.90
-10.89
-3.03
3.75
8.98
12.68
15.04
16.29
16.54
15.83
14.25
12.12
9.93
8.26
7.49
7.70
8.59
9.64
10.35
10.42
9.83
8.77
7.50
6.18
4.79
3.21
1.26
-1.17
-4.16
-7.67
-11.63
-15.89
-20.15
-23.93
-26.56
-27.37
-25.87
-21.98
-16.10
-9.05
-1.80
4.85
10.45
14.91
18.36
20.91
22.53
23.07
22.44
20.76
18.43
16.01
14.01
12.74
12.16
12.03
11.96
11.63
10.82
9.44
7.58
5.39
3.02
0.55
-1.98
-4.62
-7.43
-10.42
-13.55
-16.71
-19.76
-22.50
-24.60
-25.63
-25.06
-22.50
-17.85
-11.46
-4.12
3.19
9.57
14.40
17.53
19.11
19.46
18.93
17.77
16.17
14.30
12.39
10.69
9.47
8.89
8.96
9.53
10.27
10.86
10.99
10.51
9.36
7.57
5.26
2.55
-0.46
-3.67
-7.00
-10.38
-13.81
-17.27
-20.77
-24.26
-27.54
-30.24
-31.80
-31.59
-29.12
-24.22
-17.21
-8.89
-0.24
7.75
14.37
19.26
22.33
23.65
23.39
21.77
19.12
15.89
12.58
9.69
7.56
6.31
5.85
5.92
6.16
6.22
5.83
4.90
3.52
1.88
0.18
-1.48
-3.19
-5.13
-7.49
-10.39
-13.81
-17.55
-21.31
-24.65
-27.04
-27.91
-26.85
-23.73
-18.83
-12.75
-6.28
-0.11
5.29
9.68
12.99
15.21
16.28
16.24
15.23
13.57
11.70
9.99
8.69
7.88
7.47
7.30
7.22
7.07
6.67
5.83
4.43
2.45
0.04
-2.53
-4.93
-6.91
-8.41
-9.52
-10.46
-11.43
-12.63
-14.14
-15.97
-17.98
-19.90
-21.29
-21.63
-20.48
-17.59
-13.10
-7.49
-1.48
4.23
9.12
12.99
15.86
17.93
19.35
20.20
20.46
20.14
19.35
18.29
17.23
16.40
15.86
15.53
15.27
14.99
14.66
14.35
14.08
13.77
13.26
12.39
11.03
9.22
7.07
4.76
2.47
0.34
-1.56
-3.17
-4.54
-5.76
-6.98
-8.39
-10.11
-12.30
-15.01
-18.24
-21.81
-25.30
-28.10
-29.47
-28.83
-25.96
-21.13
-15.03
-8.54
-2.43
2.80
7.01
10.28
12.75
14.45
15.38
15.50
14.91
13.87
12.78
12.02
11.80
12.09
12.61
13.03
13.10
12.74
12.09
11.42
10.93
10.69
10.57
10.31
9.64
8.38
6.54
4.24
1.71
-0.82
-3.19
-5.29
-7.13
-8.79
-10.45
-12.37
-14.82
-17.98
-21.77
-25.70
-28.92
-30.32
-28.93
-24.30
-16.68
-7.06
3.18
12.65
20.33
25.70
28.73
29.61
28.70
26.38
23.09
19.39
15.82
12.87
10.76
9.48
8.79
8.37
8.01
7.59
7.12
6.65
6.17
5.59
4.79
3.67
2.23
0.59
-1.06
-2.55
-3.80
-4.83
-5.77
-6.75
-7.86
-9.11
-10.43
-11.72
-12.91
-13.98
-15.01
-16.13
-17.54
-19.41
-21.81
-24.69
-27.77
-30.58
-32.50
-32.96
-31.56
-28.27
-23.43
-17.67
-11.66
-5.95
-0.86
3.52
7.20
10.22
12.58
14.30
15.46
16.26
16.95
17.76
18.80
20.00
21.19
22.11
22.59
22.54
22.05
21.25
20.28
19.12
17.69
15.81
13.37
10.46
7.34
4.38
1.85
-0.16
-1.84
-3.57
-5.71
-8.51
-11.99
-15.94
-19.91
-23.37
-25.75
-26.58
-25.59
-22.82
-18.56
-13.36
-7.83
-2.52
2.16
6.02
8.98
11.05
12.26
12.69
12.47
11.80
10.93
10.08
9.41
8.94
8.64
8.42
8.24
8.09
7.97
7.84
7.55
6.92
5.77
3.99
1.63
-1.14
-4.01
-6.67
-8.91
-10.65
-12.03
-13.31
-14.80
-16.79
-19.47
-22.83
-26.64
-30.46
-33.59
-35.30
-34.93
-32.18
-27.19
-20.57
-13.17
-5.85
0.77
6.40
10.99
14.55
17.06
18.44
18.71
18.08
16.98
15.92
15.32
15.29
15.66
16.04
16.12
15.72
14.92
13.91
12.90
11.96
10.99
9.80
8.17
6.03
3.43
0.59
-2.21
-4.77
-7.02
-9.04
-11.08
-13.39
-16.16
-19.44
-23.04
-26.52
-29.26
-30.55
-29.81
-26.73
-21.51
-14.75
-7.38
-0.34
5.69
10.38
13.81
16.30
18.28
20.05
21.81
23.55
25.15
26.42
27.16
27.26
26.66
25.41
23.59
21.25
18.43
15.16
11.50
7.59
3.64
-0.16
-3.64
-6.75
-9.53
-12.08
-14.46
-16.76
-19.04
-21.40
-23.92
-26.56
-29.06
-30.93
-31.53
-30.33
-27.04
-21.83
-15.24
-7.99
-0.86
5.59
10.99
15.17
18.13
19.91
20.63
20.45
19.56
18.23
16.72
15.31
14.22
13.53
13.13
12.79
12.24
11.28
9.89
8.23
6.55
5.05
3.74
2.48
1.02
-0.86
-3.26
-6.21
-9.58
-13.15
-16.55
-19.23
-20.59
-20.14
-17.70
-13.53
-8.27
-2.68
2.61
7.26
11.16
14.30
16.61
17.90
18.00
16.89
14.84
12.32
9.89
7.98
6.81
6.30
6.17
6.03
5.56
4.60
3.15
1.36
-0.54
-2.40
-4.16
-5.88
-7.71
-9.77
-12.13
-14.84
-17.83
-20.92
-23.74
-25.76
-26.39
-25.13
-21.81
-16.62
-10.17
-3.25
3.33
8.96
13.24
16.05
17.41
17.49
16.55
14.94
13.07
11.30
9.92
9.07
8.71
8.64
8.64
8.52
8.20
7.69
7.04
6.30
5.42
4.32
2.93
1.22
-0.73
-2.81
-4.94
-7.12
-9.48
-12.17
-15.33
-18.99
-22.94
-26.78
-29.91
-31.71
-31.62
-29.39
-25.12
-19.29
-12.64
-5.95
0.15
5.32
9.45
12.57
14.76
15.99
16.26
15.64
14.34
12.71
11.13
9.87
8.99
8.40
7.90
7.37
6.75
6.09
5.40
4.65
3.75
2.58
1.08
-0.75
-2.81
-4.96
-7.11
-9.19
-11.24
-13.41
-15.91
-18.89
-22.35
-25.94
-29.03
-30.79
-30.51
-27.83
-22.93
-16.47
-9.37
-2.51
3.44
8.16
11.60
13.95
15.54
16.78
18.05
19.62
21.52
23.52
25.28
26.45
26.86
26.50
25.50
23.96
21.87
19.14
15.73
11.74
7.38
2.91
-1.45
-5.64
-9.68
-13.57
-17.28
-20.73
-23.92
-27.03
-30.33
-34.04
-38.17
-42.33
-45.81
-47.72
-47.31
-44.15
-38.34
-30.42
-21.35
-12.22
-4.00
2.61
7.35
10.38
12.09
12.90
13.10
12.82
12.16
11.33
10.70
10.68
11.59
13.43
15.87
18.34
20.23
21.13
20.92
19.81
18.23
16.76
15.96
16.28
17.91
20.71
24.19
27.55
29.93
30.53
28.89
25.03
19.46
13.13
7.22
2.74
0.32
-0.04
1.13
3.02
5.03
7.03
9.43
12.81
17.42
22.81
27.77
30.85
30.99
28.10
23.13
17.61
12.95
9.84
8.11
7.04
5.92
4.46
2.97
1.97
1.87
2.64
3.82
4.72
4.81
3.88
2.08
-0.20
-2.57
-4.74
-6.66
-8.42
-10.28
-12.54
-15.54
-19.54
-24.66
-30.75
-37.36
-43.80
-49.26
-53.08
-54.88
-54.66
-52.77
-49.78
-46.32
-42.88
-39.81
-37.21
-35.07
-33.28
-31.71
-30.19
-28.55
-26.60
-24.25
-21.47
-18.44
-15.38
-12.58
-10.19
-8.30
-6.90
-6.08
-6.03
-6.94
-8.80
-11.17
-13.12
-13.48
-11.26
-6.07
1.72
11.19
21.24
31.03
40.19
48.71
56.62
63.81
69.88
74.30
76.51
76.00
72.47
65.83
56.38
44.91
32.64
20.90
10.78
2.74
-3.42
-8.24
-12.25
-15.60
-18.04
-19.18
-18.87
-17.42
-15.58
-14.17
-13.74
-14.33
-15.54
-16.76
-17.61
-18.04
-18.36
-19.04
-20.42
-22.64
-25.53
-28.76
-31.91
-34.59
-36.48
-37.37
-37.15
-35.85
-33.62
-30.72
-27.43
-23.95
-20.34
-16.37
-11.59
-5.51
2.17
11.29
21.15
30.66
38.65
44.27
47.24
47.77
46.38
43.65
40.00
35.71
30.96
26.01
21.13
16.62
12.66
9.23
6.13
3.02
-0.44
-4.47
-9.06
-13.91
-18.42
-21.86
-23.51
-22.90
-19.98
-15.14
-9.08
-2.59
3.68
9.38
14.43
18.81
22.44
25.07
26.43
26.35
24.94
22.66
20.12
17.90
16.36
15.50
15.07
14.73
14.17
13.28
12.10
10.73
9.21
7.53
5.59
3.36
0.89
-1.62
-3.91
-5.80
-7.32
-8.75
-10.55
-13.08
-16.43
-20.21
-23.63
-25.79
-25.94
-23.81
-19.63
-14.03
-7.77
-1.56
4.13
9.01
12.93
15.80
17.58
18.29
18.06
17.12
15.78
14.33
13.00
11.91
11.12
10.60
10.30
10.12
9.96
9.68
9.14
8.24
6.91
5.18
3.13
0.92
-1.30
-3.38
-5.25
-6.93
-8.53
-10.27
-12.38
-15.00
-18.08
-21.32
-24.13
-25.80
-25.70
-23.53
-19.39
-13.81
-7.52
-1.29
4.30
8.90
12.33
14.54
15.56
15.56
14.81
13.71
12.60
11.71
11.09
10.62
10.15
9.58
8.91
8.17
7.35
6.36
5.10
3.51
1.62
-0.46
-2.57
-4.62
-6.56
-8.46
-10.48
-12.81
-15.59
-18.84
-22.32
-25.52
-27.74
-28.29
-26.75
-23.16
-17.96
-11.92
-5.78
-0.13
4.75
8.79
12.00
14.42
15.99
16.71
16.64
15.95
14.89
13.74
12.68
11.81
11.11
10.53
10.03
9.56
9.06
8.43
7.53
6.25
4.57
2.65
0.70
-1.08
-2.65
-4.18
-6.00
-8.37
-11.42
-15.07
-19.03
-22.92
-26.32
-28.85
-30.25
-30.45
-29.59
-27.96
-25.92
-23.65
-21.13
-18.15
-14.49
-10.20
-5.67
-1.54
1.56
3.31
3.88
3.93
4.43
6.37
10.37
16.50
24.07
31.87
38.49
42.75
44.10
42.60
38.82
33.47
27.13
20.18
12.89
5.53
-1.54
-7.99
-13.68
-18.68
-23.25
-27.54
-31.41
-34.36
-35.74
-34.95
-31.83
-26.71
-20.35
-13.74
-7.72
-2.83
0.79
3.27
4.88
5.85
6.30
6.28
5.85
5.12
4.28
3.55
3.10
2.98
3.13
3.40
3.66
3.78
3.64
3.15
2.26
0.98
-0.65
-2.49
-4.43
-6.39
-8.40
-10.58
-13.09
-16.10
-19.64
-23.57
-27.46
-30.65
-32.42
-32.15
-29.59
-24.98
-18.97
-12.39
-6.00
-0.26
4.62
8.62
11.78
14.07
15.50
16.06
15.90
15.22
14.32
13.47
12.83
12.48
12.33
12.24
12.03
11.60
10.88
9.87
8.58
7.00
5.11
2.96
0.64
-1.71
-3.99
-6.17
-8.34
-10.68
-13.36
-16.47
-19.96
-23.56
-26.80
-29.05
-29.71
-28.41
-25.11
-20.17
-14.23
-7.94
-1.84
3.73
8.59
12.62
15.69
17.71
18.71
18.88
18.56
18.07
17.67
17.42
17.26
17.06
16.72
16.22
15.54
14.69
13.68
12.47
11.02
9.30
7.32
5.13
2.84
0.61
-1.48
-3.42
-5.34
-7.49
-10.15
-13.53
-17.68
-22.40
-27.20
-31.36
-34.07
-34.64
-32.69
-28.32
-22.07
-14.77
-7.31
-0.37
5.65
10.62
14.54
17.44
19.30
20.16
20.11
19.39
18.35
17.34
16.58
16.16
16.03
16.06
16.14
16.19
16.18
16.06
15.78
15.30
14.58
13.60
12.36
10.82
8.91
6.57
3.75
0.45
-3.30
-7.43
-11.82
-16.16
-20.00
-22.75
-23.82
-22.83
-19.79
-15.05
-9.24
-3.02
3.06
8.69
13.70
18.01
21.52
24.07
25.55
26.02
25.68
24.91
24.03
23.22
22.38
21.25
19.52
17.06
13.96
10.52
7.11
4.01
1.37
-0.81
-2.56
-3.93
-4.90
-5.51
-5.86
-6.13
-6.59
-7.49
-9.01
-11.20
-14.01
-17.27
-20.86
-24.62
-28.40
-31.92
-34.77
-36.40
-36.24
-33.92
-29.37
-22.93
-15.25
-7.16
0.54
7.20
12.37
15.86
17.72
18.17
17.60
16.42
15.00
13.60
12.41
11.58
11.26
11.54
12.45
13.82
15.34
16.62
17.30
17.17
16.21
14.49
12.12
9.14
5.59
1.52
-2.85
-7.19
-11.17
-14.60
-17.55
-20.36
-23.38
-26.74
-30.14
-32.89
-34.18
-33.41
-30.52
-25.98
-20.61
-15.23
-10.41
-6.41
-3.24
-0.81
0.93
2.03
2.54
2.57
2.28
1.81
1.26
0.66
0.01
-0.68
-1.42
-2.19
-2.92
-3.48
-3.75
-3.61
-3.12
-2.48
-1.91
-1.53
-1.20
-0.57
0.72
2.72
4.99
6.70
7.00
5.51
2.57
-0.80
-3.18
-3.41
-0.91
4.16
11.01
18.65
26.16
32.93
38.64
43.17
46.49
48.59
49.51
49.32
48.18
46.24
43.58
40.25
36.26
31.70
26.83
21.96
17.38
13.17
9.17
5.03
0.43
-4.77
-10.48
-16.41
-22.24
-27.71
-32.67
-37.00
-40.54
-43.07
-44.42
-44.61
-43.90
-42.80
-41.78
-41.09
-40.48
-39.32
-36.79
-32.26
-25.54
-17.04
-7.60
1.75
10.08
16.86
21.96
25.62
28.32
30.47
32.31
33.81
34.76
34.91
34.14
32.55
30.37
27.83
25.03
21.93
18.44
14.53
10.38
6.33
2.74
-0.18
-2.39
-4.09
-5.60
-7.18
-9.02
-11.17
-13.62
-16.34
-19.34
-22.59
-25.97
-29.15
-31.62
-32.81
-32.26
-29.81
-25.70
-20.42
-14.59
-8.77
-3.32
1.50
5.51
8.55
10.52
11.43
11.48
11.00
10.41
9.96
9.79
9.80
9.87
9.86
9.77
9.64
9.57
9.60
9.70
9.77
9.69
9.35
8.72
7.80
6.70
5.47
4.18
2.84
1.37
-0.30
-2.25
-4.52
-7.12
-10.04
-13.21
-16.46
-19.45
-21.65
-22.46
-21.39
-18.28
-13.41
-7.46
-1.30
4.31
8.93
12.46
15.08
17.04
18.43
19.23
19.34
18.79
17.75
16.52
15.41
14.55
13.97
13.71
13.93
14.92
16.94
19.96
23.53
26.81
28.89
29.13
27.41
24.08
19.81
15.24
10.89
7.05
3.87
1.33
-0.82
-3.10
-6.28
-11.10
-17.92
-26.48
-35.77
-44.31
-50.62
-53.64
-52.99
-48.98
-42.37
-34.09
-25.08
-16.16
-8.11
-1.52
3.26
6.18
7.53
7.79
7.43
6.83
6.20
5.61
5.10
4.60
4.00
3.07
1.59
-0.60
-3.44
-6.69
-9.90
-12.62
-14.52
-15.48
-15.64
-15.31
-14.85
-14.61
-14.80
-15.52
-16.79
-18.55
-20.70
-23.00
-25.07
-26.39
-26.40
-24.69
-21.16
-16.09
-10.06
-3.84
1.90
6.65
10.25
12.72
14.26
15.07
15.33
15.18
14.76
14.21
13.65
13.17
12.81
12.51
12.21
11.81
11.19
10.25
8.92
7.22
5.25
3.24
1.46
0.13
-0.67
-1.04
-1.25
-1.66
-2.60
-4.32
-6.91
-10.26
-14.03
-17.68
-20.57
-22.09
-21.88
-19.89
-16.45
-12.17
-7.72
-3.70
-0.39
2.29
4.73
7.46
10.90
15.11
19.74
24.11
27.49
29.34
29.55
28.41
26.44
24.13
21.81
19.62
17.62
15.95
14.85
14.52
15.01
16.05
17.18
17.91
17.96
17.39
16.51
15.59
14.60
13.18
10.79
7.11
2.33
-2.73
-6.94
-9.19
-8.79
-5.66
-0.21
6.79
14.48
21.96
28.31
32.68
34.40
33.18
29.27
23.40
16.61
9.89
3.94
-0.90
-4.63
-7.44
-9.65
-11.66
-13.87
-16.55
-19.64
-22.70
-24.93
-25.61
-24.42
-21.77
-18.68
-16.35
-15.69
-16.90
-19.54
-22.79
-25.88
-28.29
-29.76
-30.18
-29.35
-27.06
-23.13
-17.69
-11.20
-4.35
2.13
7.72
12.21
15.61
18.05
19.57
20.12
19.64
18.10
15.64
12.59
9.43
6.69
4.85
4.11
4.30
4.80
4.65
2.89
-1.04
-6.99
-14.04
-20.88
-26.29
-29.54
-30.64
-30.13
-28.77
-27.26
-26.10
-25.68
-26.29
-28.02
-30.66
-33.46
-35.31
-35.03
-31.89
-25.92
-17.94
-9.20
-0.96
6.00
11.40
15.38
18.21
20.11
21.16
21.49
21.30
20.96
20.91
21.46
22.73
24.57
26.67
28.68
30.31
31.41
32.01
32.21
32.13
31.84
31.24
30.14
28.30
25.63
22.21
18.34
14.35
10.41
6.42
2.07
-2.95
-8.60
-14.31
-19.03
-21.60
-21.17
-17.55
-11.33
-3.64
4.19
10.95
15.84
18.52
19.07
17.94
15.80
13.42
11.50
10.58
10.80
12.04
13.88
15.82
17.41
18.32
18.42
17.70
16.29
14.34
12.01
9.43
6.61
3.50
-0.04
-4.08
-8.59
-13.37
-18.15
-22.72
-27.14
-31.71
-36.82
-42.54
-48.48
-53.76
-57.33
-58.48
-57.19
-54.12
-50.35
-46.89
-44.36
-42.86
-42.15
-41.88
-41.70
-41.19
-39.79
-36.80
-31.58
-23.86
-13.99
-2.97
7.78
16.91
23.47
27.17
28.29
27.46
25.34
22.47
19.20
15.77
12.40
9.27
6.49
4.01
1.66
-0.84
-3.72
-6.95
-10.20
-12.86
-14.19
-13.59
-10.82
-6.08
-0.01
6.53
12.68
17.84
21.70
24.25
25.64
26.05
25.68
24.73
23.44
22.07
20.87
20.05
19.69
19.73
20.04
20.49
20.91
21.24
21.45
21.57
21.60
21.43
20.75
19.02
15.63
10.10
2.38
-7.05
-17.33
-27.50
-36.86
-45.12
-52.27
-58.33
-63.11
-66.21
-67.21
-65.88
-62.27
-56.52
-48.67
-38.59
-26.23
-11.96
3.22
17.76
30.01
38.85
43.96
45.86
45.53
43.96
41.86
39.58
37.27
35.03
33.00
31.26
29.82
28.54
27.20
25.54
23.34
20.48
17.02
13.18
9.28
5.68
2.61
0.06
-2.26
-4.80
-7.99
-11.97
-16.54
-21.03
-24.61
-26.45
-26.07
-23.43
-18.97
-13.39
-7.49
-2.00
2.56
5.82
7.61
7.88
6.75
4.47
1.45
-1.80
-4.74
-6.92
-8.00
-7.74
-6.00
-2.71
2.13
8.31
15.36
22.54
28.95
33.73
36.30
36.49
34.51
30.83
25.99
20.48
14.69
8.91
3.36
-1.79
-6.53
-10.94
-15.18
-19.43
-23.73
-27.92
-31.61
-34.20
-35.05
-33.68
-29.92
-24.11
-16.98
-9.51
-2.60
3.19
7.72
11.17
13.81
15.85
17.29
18.06
18.14
17.70
17.13
16.88
17.26
18.35
19.82
21.08
21.43
20.20
17.03
11.97
5.51
-1.55
-8.22
-13.60
-17.07
-18.41
-17.84
-15.95
-13.54
-11.48
-10.46
-10.81
-12.35
-14.44
-16.19
-16.78
-15.83
-13.52
-10.49
-7.47
-5.00
-3.12
-1.54
0.18
2.30
4.77
7.33
9.68
11.67
13.35
14.83
16.19
17.33
18.06
18.19
17.69
16.73
15.62
14.66
14.07
13.87
13.97
14.17
14.27
14.12
13.67
12.94
12.00
10.91
9.68
8.31
6.75
5.01
3.08
1.00
-1.16
-3.38
-5.65
-7.99
-10.41
-12.88
-15.39
-17.92
-20.51
-23.28
-26.36
-29.82
-33.50
-37.02
-39.74
-40.96
-40.12
-37.02
-31.93
-25.51
-18.54
-11.77
-5.66
-0.38
4.10
7.86
10.93
13.26
14.80
15.56
15.70
15.49
15.24
15.11
15.08
14.98
14.60
13.93
13.23
13.00
13.75
15.73
18.75
22.17
25.15
26.85
26.63
24.09
19.06
11.60
2.04
-8.96
-20.33
-30.76
-38.84
-43.44
-43.98
-40.63
-34.26
-26.28
-18.19
-11.21
-5.95
-2.33
0.20
2.34
4.61
7.18
9.88
12.44
14.58
16.10
16.90
16.93
16.24
15.02
13.60
12.39
11.77
11.82
12.26
12.45
11.59
9.08
4.81
-0.64
-6.07
-10.03
-11.29
-9.33
-4.57
1.77
8.13
13.10
15.84
16.23
14.67
11.76
8.04
3.82
-0.78
-5.71
-10.89
-16.19
-21.35
-26.07
-30.00
-32.69
-33.73
-32.82
-29.92
-25.26
-19.36
-12.88
-6.43
-0.47
4.67
8.85
11.94
13.92
14.82
14.84
14.28
13.51
12.84
12.41
12.19
12.06
11.87
11.55
11.05
10.38
9.55
8.59
7.54
6.47
5.36
4.14
2.63
0.64
-1.88
-4.78
-7.76
-10.51
-12.84
-14.80
-16.62
-18.59
-20.98
-23.88
-27.22
-30.77
-34.12
-36.76
-38.13
-37.78
-35.47
-31.20
-25.19
-17.78
-9.35
-0.31
8.80
17.29
24.38
29.34
31.62
31.03
27.73
22.18
15.08
7.26
-0.30
-6.51
-10.31
-10.92
-8.07
-2.23
5.42
13.31
19.90
24.06
25.41
24.17
20.99
16.70
12.02
7.53
3.57
0.28
-2.49
-5.22
-8.62
-13.45
-20.17
-28.61
-37.83
-46.16
-51.64
-52.58
-48.13
-38.60
-25.36
-10.49
3.88
16.10
25.28
31.26
34.39
35.19
34.21
31.90
28.73
25.22
21.93
19.39
17.88
17.41
17.61
17.95
17.89
17.14
15.73
13.98
12.26
10.80
9.54
8.19
6.39
3.95
0.94
-2.31
-5.45
-8.24
-10.70
-13.02
-15.51
-18.41
-21.85
-25.82
-30.15
-34.46
-38.20
-40.64
-41.10
-39.21
-34.98
-28.92
-21.78
-14.37
-7.27
-0.80
4.89
9.72
13.56
16.24
17.69
18.06
17.68
17.01
16.49
16.33
16.52
16.87
17.12
17.11
16.81
16.33
15.78
15.15
14.34
13.17
11.48
9.26
6.63
3.81
1.03
-1.55
-3.87
-5.98
-8.03
-10.20
-12.73
-15.79
-19.42
-23.41
-27.27
-30.33
-31.91
-31.50
-28.96
-24.49
-18.59
-11.87
-4.97
1.59
7.38
12.09
15.55
17.73
18.78
18.98
18.65
18.09
17.43
16.73
15.98
15.17
14.32
13.50
12.79
12.25
11.87
11.52
11.03
10.16
8.73
6.67
4.07
1.18
-1.75
-4.50
-7.00
-9.33
-11.68
-14.29
-17.38
-21.03
-25.10
-29.16
-32.51
-34.31
-33.87
-30.90
-25.62
-18.71
-11.03
-3.40
3.62
9.76
14.90
19.00
22.01
23.90
24.73
24.71
24.14
23.33
22.58
22.03
21.69
21.51
21.35
21.12
20.75
20.22
19.51
18.61
17.48
16.05
14.24
12.06
9.59
7.00
4.44
2.04
-0.18
-2.33
-4.62
-7.29
-10.56
-14.54
-19.13
-23.93
-28.22
-31.18
-32.03
-30.42
-26.50
-20.93
-14.64
-8.48
-2.98
1.72
5.73
9.19
12.13
14.46
16.09
16.98
17.30
17.27
17.12
16.97
16.80
16.58
16.25
15.84
15.40
14.97
14.52
13.96
13.16
11.99
10.37
8.25
5.68
2.78
-0.29
-3.37
-6.34
-9.17
-11.95
-14.86
-18.10
-21.71
-25.52
-29.07
-31.74
-32.90
-32.10
-29.23
-24.54
-18.54
-11.90
-5.19
1.13
6.73
11.39
14.93
17.22
18.30
18.36
17.78
17.01
16.42
16.18
16.27
16.46
16.52
16.30
15.80
15.12
14.36
13.53
12.57
11.32
9.67
7.61
5.28
2.86
0.57
-1.51
-3.41
-5.28
-7.33
-9.78
-12.78
-16.32
-20.23
-24.10
-27.32
-29.18
-29.18
-27.13
-23.32
-18.34
-12.90
-7.55
-2.56
2.03
6.23
10.02
13.22
15.66
17.26
18.10
18.40
18.41
18.39
18.49
18.77
19.21
19.68
20.03
20.09
19.81
19.21
18.38
17.41
16.33
15.09
13.63
11.92
10.00
7.97
5.88
3.76
1.57
-0.78
-3.35
-6.14
-9.08
-12.03
-14.90
-17.67
-20.47
-23.54
-27.05
-30.89
-34.58
-37.29
-38.16
-36.64
-32.78
-27.16
-20.70
-14.26
-8.39
-3.23
1.27
5.18
8.45
10.91
12.44
13.09
13.13
12.92
12.80
12.96
13.35
13.77
14.01
13.92
13.50
12.87
12.21
11.65
11.22
10.84
10.35
9.58
8.41
6.80
4.83
2.63
0.34
-1.88
-3.94
-5.83
-7.59
-9.33
-11.22
-13.43
-16.13
-19.42
-23.24
-27.32
-31.15
-34.06
-35.36
-34.57
-31.59
-26.77
-20.81
-14.53
-8.58
-3.30
1.26
5.24
8.73
11.67
13.93
15.38
16.09
16.27
16.25
16.30
16.51
16.83
17.13
17.30
17.33
17.28
17.17
16.97
16.55
15.77
14.55
12.93
11.07
9.14
7.25
5.42
3.53
1.49
-0.74
-3.12
-5.49
-7.73
-9.75
-11.59
-13.33
-15.17
-17.33
-20.03
-23.43
-27.43
-31.65
-35.39
-37.79
-38.10
-35.97
-31.58
-25.60
-18.96
-12.51
-6.80
-1.99
2.02
5.43
8.34
10.69
12.39
13.41
13.91
14.18
14.55
15.23
16.23
17.37
18.43
19.24
19.77
20.12
20.42
20.79
21.27
21.87
22.48
22.96
23.09
22.61
21.37
19.35
16.77
13.95
11.17
8.53
5.80
2.49
-1.98
-8.11
-16.15
-25.89
-36.65
-47.27
-56.38
-62.64
-65.20
-63.86
-59.21
-52.33
-44.48
-36.70
-29.65
-23.55
-18.28
-13.57
-9.00
-4.15
1.33
7.54
14.29
21.05
27.14
31.97
35.24
36.98
37.52
37.21
36.27
34.63
31.99
27.99
22.48
15.65
8.07
0.58
-5.99
-11.07
-14.53
-16.68
-18.14
-19.60
-21.61
-24.41
-27.87
-31.54
-34.73
-36.72
-36.89
-34.93
-30.92
-25.34
-18.93
-12.48
-6.64
-1.77
2.07
5.03
7.35
9.25
10.82
12.08
13.05
13.81
14.50
15.35
16.61
18.49
21.12
24.42
28.14
31.88
35.16
37.59
38.96
39.32
38.88
37.91
36.63
35.14
33.40
31.35
28.96
26.23
23.13
19.54
15.14
9.51
2.25
-6.71
-16.91
-27.39
-36.79
-43.77
-47.37
-47.25
-43.78
-37.78
-30.22
-21.95
-13.63
-5.73
1.35
7.29
11.82
14.85
16.48
17.06
17.01
16.71
16.37
16.07
15.81
15.51
15.07
14.39
13.54
12.57
11.35
9.45
6.44
2.25
-2.65
-7.36
-10.81
-11.96
-10.65
-8.05
-6.39
-7.88
-13.45
-22.33
-32.46
-41.39
-46.79
-47.79
-45.22
-41.17
-37.67
-35.43
-33.90
-31.93
-28.33
-21.51
-10.33
5.91
26.93
51.50
77.44
101.39
119.19
122.61
106.56
73.44
33.77
-1.29
-26.58
-43.43
-56.00
-68.01
-79.06
-84.97
-81.78
-67.92
-45.86
-20.84
1.83
18.33
26.63
25.66
20.80
15.09
10.42
6.52
1.88
-4.63
-12.82
-21.21
-27.56
-29.61
-26.94
-20.48
-12.42
-5.05
0.35
3.77
6.05
8.35
11.67
15.79
19.96
23.07
24.31
23.62
21.67
19.41
17.71
17.12
17.36
17.90
18.12
17.65
16.45
14.82
13.15
11.77
10.86
10.19
9.51
8.49
6.91
4.70
1.99
-0.99
-3.91
-6.48
-8.57
-10.20
-11.53
-12.85
-14.45
-16.56
-19.23
-22.33
-25.51
-28.30
-30.17
-30.65
-29.47
-26.56
-22.11
-16.53
-10.36
-4.18
1.49
6.32
10.17
13.09
15.19
16.55
17.24
17.29
16.80
15.99
15.15
14.52
14.21
14.10
13.96
13.55
12.72
11.52
10.10
8.66
7.31
6.05
4.80
3.38
1.61
-0.61
-3.27
-6.17
-9.03
-11.63
-13.91
-16.03
-18.35
-21.22
-24.85
-29.18
-33.97
-38.83
-43.31
-46.92
-49.16
-49.52
-47.64
-43.43
-37.12
-29.24
-20.44
-11.39
-2.64
5.37
12.23
17.59
21.17
22.85
22.69
20.92
17.93
14.15
10.11
6.39
3.59
2.14
2.20
3.55
5.67
7.95
9.92
11.34
12.22
12.73
13.03
13.34
13.87
14.86
16.53
18.91
21.78
24.67
26.97
28.16
27.99
26.50
24.06
21.18
18.53
16.77
16.47
17.95
21.15
25.63
30.69
35.59
39.85
43.28
45.94
47.91
49.16
49.54
48.85
47.07
44.44
41.38
38.34
35.64
33.35
31.34
29.40
27.36
25.11
22.66
20.10
17.53
15.03
12.62
10.23
7.76
5.08
2.16
-0.92
-4.01
-6.92
-9.57
-11.96
-14.18
-16.35
-18.54
-20.83
-23.24
-25.80
-28.47
-31.10
-33.37
-34.83
-35.02
-33.67
-30.73
-26.52
-21.58
-16.56
-12.06
-8.41
-5.70
-3.76
-2.32
-1.15
-0.10
0.84
1.63
2.24
2.64
2.83
2.82
2.68
2.49
2.39
2.45
2.66
2.82
2.65
1.83
0.12
-2.50
-5.87
-9.70
-13.63
-17.33
-20.56
-23.23
-25.40
-27.22
-28.84
-30.31
-31.48
-32.05
-31.69
-30.15
-27.41
-23.63
-19.12
-14.22
-9.21
-4.31
0.28
4.33
7.64
10.05
11.54
12.24
12.39
12.31
12.24
12.33
12.59
12.90
13.08
12.95
12.39
11.39
10.07
8.59
7.12
5.72
4.36
2.94
1.36
-0.40
-2.25
-4.02
-5.60
-6.95
-8.18
-9.45
-10.97
-12.83
-15.03
-17.49
-20.02
-22.36
-24.14
-24.96
-24.43
-22.36
-18.82
-14.14
-8.87
-3.53
1.42
5.73
9.27
11.96
13.79
14.72
14.85
14.31
13.40
12.42
11.63
11.13
10.91
10.82
10.70
10.39
9.83
9.01
7.99
6.84
5.61
4.33
2.98
1.51
-0.13
-1.95
-3.93
-5.99
-8.06
-10.07
-11.99
-13.87
-15.84
-18.06
-20.71
-23.91
-27.56
-31.28
-34.43
-36.21
-35.96
-33.45
-28.91
-23.03
-16.67
-10.59
-5.27
-0.87
2.63
5.24
6.94
7.70
7.57
6.78
5.65
4.52
3.60
2.93
2.44
2.06
1.77
1.60
1.52
1.45
1.18
0.55
-0.56
-2.08
-3.90
-5.85
-7.85
-9.84
-11.84
-13.85
-15.89
-18.05
-20.44
-23.15
-26.15
-29.10
-31.43
-32.40
-31.46
-28.38
-23.42
-17.22
-10.57
-4.15
1.61
6.51
10.51
13.60
15.74
16.90
17.13
16.64
15.76
14.84
14.13
13.72
13.53
13.39
13.17
12.85
12.49
12.17
11.86
11.42
10.59
9.19
7.18
4.68
1.97
-0.68
-3.13
-5.32
-7.36
-9.40
-11.63
-14.27
-17.54
-21.52
-26.07
-30.65
-34.45
-36.52
-36.07
-32.85
-27.17
-19.83
-11.85
-4.12
2.78
8.60
13.34
17.07
19.81
21.57
22.37
22.35
21.75
20.89
20.06
19.45
19.11
18.96
18.83
18.56
18.09
17.43
16.65
15.81
14.84
13.61
11.95
9.77
7.14
4.27
1.47
-1.07
-3.32
-5.42
-7.66
-10.35
-13.66
-17.65
-22.17
-26.93
-31.41
-34.95
-36.86
-36.57
-33.82
-28.78
-22.02
-14.35
-6.62
0.56
6.79
11.90
15.82
18.51
19.92
20.15
19.42
18.10
16.64
15.38
14.56
14.19
14.21
14.49
14.89
15.27
15.49
15.40
14.91
13.96
12.59
10.86
8.86
6.69
4.43
2.18
-0.03
-2.23
-4.61
-7.40
-10.81
-14.86
-19.31
-23.59
-26.91
-28.47
-27.66
-24.28
-18.57
-11.23
-3.16
4.75
11.80
17.61
22.05
25.13
26.88
27.34
26.63
25.06
23.06
21.17
19.81
19.17
19.14
19.40
19.61
19.56
19.19
18.59
17.90
17.15
16.29
15.19
13.71
11.71
9.20
6.28
3.17
0.13
-2.61
-5.01
-7.17
-9.40
-12.02
-15.30
-19.28
-23.69
-28.01
-31.49
-33.34
-32.94
-29.99
-24.67
-17.57
-9.52
-1.42
6.05
12.47
17.66
21.57
24.18
25.52
25.67
24.88
23.55
22.12
20.95
20.23
19.93
19.85
19.75
19.40
18.69
17.60
16.19
14.58
12.88
11.18
9.52
7.88
6.15
4.23
2.05
-0.37
-2.93
-5.47
-7.90
-10.19
-12.46
-14.90
-17.73
-21.08
-24.93
-29.01
-32.81
-35.64
-36.80
-35.75
-32.32
-26.76
-19.69
-11.96
-4.38
2.41
8.06
12.40
15.38
17.00
17.35
16.62
15.23
13.65
12.34
11.56
11.26
11.22
11.13
10.81
10.25
9.62
9.08
8.65
8.20
7.49
6.34
4.69
2.65
0.41
-1.83
-3.96
-5.99
-8.01
-10.14
-12.47
-15.09
-18.04
-21.33
-24.81
-28.14
-30.72
-31.80
-30.74
-27.26
-21.63
-14.58
-7.10
-0.09
5.89
10.67
14.33
16.99
18.70
19.44
19.21
18.19
16.77
15.40
14.52
14.29
14.63
15.23
15.74
15.90
15.62
14.97
14.09
13.11
12.06
10.89
9.48
7.69
5.45
2.76
-0.24
-3.32
-6.21
-8.68
-10.66
-12.25
-13.68
-15.25
-17.25
-19.86
-23.13
-26.91
-30.79
-34.04
-35.82
-35.33
-32.17
-26.50
-19.06
-10.93
-3.16
3.53
8.85
12.80
15.56
17.25
17.98
17.84
17.04
15.91
14.84
14.14
13.99
14.37
15.11
15.93
16.57
16.80
16.50
15.66
14.35
12.72
10.93
9.12
7.37
5.68
3.92
1.98
-0.25
-2.78
-5.54
-8.37
-11.14
-13.76
-16.24
-18.66
-21.17
-23.90
-26.96
-30.29
-33.67
-36.61
-38.44
-38.49
-36.31
-31.83
-25.42
-17.79
-9.80
-2.23
4.33
9.56
13.36
15.80
17.03
17.28
16.82
15.92
14.84
13.83
13.08
12.72
12.79
13.23
13.89
14.52
14.87
14.74
14.07
12.93
11.55
10.10
8.67
7.20
5.49
3.37
0.80
-2.04
-4.89
-7.48
-9.72
-11.72
-13.77
-16.16
-19.08
-22.54
-26.41
-30.38
-34.04
-36.81
-38.08
-37.29
-34.14
-28.74
-21.64
-13.69
-5.78
1.37
7.37
12.11
15.68
18.18
19.72
20.35
20.19
19.39
18.22
16.97
15.94
15.31
15.14
15.37
15.74
15.98
15.80
15.04
13.70
11.91
9.89
7.78
5.60
3.26
0.67
-2.18
-5.13
-7.95
-10.42
-12.48
-14.21
-15.80
-17.46
-19.36
-21.61
-24.28
-27.41
-30.97
-34.81
-38.53
-41.58
-43.26
-42.95
-40.29
-35.29
-28.37
-20.27
-11.84
-3.85
3.18
8.96
13.39
16.42
18.10
18.58
18.17
17.34
16.60
16.32
16.62
17.36
18.24
18.97
19.38
19.43
19.22
18.84
18.37
17.76
16.92
15.68
13.90
11.53
8.66
5.55
2.46
-0.37
-2.87
-5.12
-7.37
-9.86
-12.77
-16.18
-19.96
-23.75
-26.95
-28.80
-28.60
-25.86
-20.60
-13.34
-4.97
3.49
11.20
17.67
22.74
26.45
28.90
30.19
30.36
29.55
28.01
26.09
24.18
22.62
21.58
21.08
20.96
20.99
20.92
20.60
19.99
19.16
18.21
17.22
16.15
14.91
13.36
11.41
9.03
6.28
3.29
0.21
-2.82
-5.62
-8.11
-10.28
-12.31
-14.50
-17.22
-20.69
-24.85
-29.26
-33.13
-35.55
-35.71
-33.15
-27.89
-20.47
-11.80
-2.94
5.18
11.93
17.08
20.71
23.07
24.39
24.85
24.56
23.68
22.43
21.15
20.12
19.53
19.38
19.51
19.69
19.74
19.55
19.05
18.22
17.05
15.53
13.73
11.75
9.72
7.72
5.75
3.72
1.56
-0.76
-3.20
-5.62
-7.93
-10.09
-12.15
-14.25
-16.55
-19.16
-22.07
-25.10
-27.81
-29.59
-29.75
-27.77
-23.52
-17.36
-10.06
-2.58
4.21
9.78
13.95
16.86
18.71
19.70
19.98
19.67
18.97
18.10
17.32
16.80
16.60
16.64
16.78
16.86
16.79
16.54
16.14
15.65
15.08
14.40
13.55
12.46
11.08
9.38
7.38
5.11
2.60
-0.05
-2.75
-5.38
-7.81
-10.00
-11.95
-13.75
-15.54
-17.50
-19.83
-22.69
-26.12
-29.94
-33.67
-36.56
-37.78
-36.69
-33.05
-27.17
-19.80
-11.90
-4.37
2.16
7.39
11.30
13.99
15.54
16.07
15.69
14.64
13.26
11.94
10.98
10.50
10.42
10.47
10.42
10.12
9.62
9.09
8.68
8.42
8.20
7.77
6.88
5.39
3.31
0.84
-1.77
-4.25
-6.42
-8.23
-9.78
-11.28
-13.00
-15.23
-18.15
-21.72
-25.61
-29.19
-31.63
-32.13
-30.23
-25.92
-19.75
-12.63
-5.53
0.77
5.87
9.70
12.46
14.36
15.53
16.01
15.77
14.91
13.65
12.37
11.47
11.23
11.69
12.63
13.67
14.42
14.64
14.28
13.44
12.27
10.88
9.31
7.57
5.65
3.58
1.44
-0.73
-2.90
-5.06
-7.21
-9.33
-11.39
-13.35
-15.25
-17.19
-19.34
-21.90
-24.96
-28.41
-31.86
-34.64
-35.99
-35.25
-32.14
-26.85
-20.05
-12.61
-5.40
0.95
6.13
10.08
12.86
14.56
15.27
15.11
14.32
13.26
12.31
11.77
11.75
12.12
12.62
12.95
12.92
12.52
11.85
11.08
10.26
9.36
8.19
6.61
4.55
2.12
-0.50
-3.08
-5.47
-7.64
-9.64
-11.57
-13.52
-15.58
-17.90
-20.63
-23.88
-27.59
-31.36
-34.52
-36.23
-35.79
-32.93
-27.86
-21.27
-14.06
-7.07
-0.88
4.23
8.23
11.20
13.18
14.20
14.28
13.59
12.41
11.15
10.22
9.87
10.08
10.64
11.22
11.53
11.47
11.12
10.68
10.27
9.91
9.42
8.56
7.11
5.03
2.44
-0.38
-3.17
-5.73
-7.99
-10.05
-12.09
-14.34
-17.02
-20.33
-24.33
-28.88
-33.51
-37.44
-39.75
-39.66
-36.80
-31.40
-24.14
-15.96
-7.79
-0.29
6.20
11.56
15.80
18.96
21.05
22.11
22.27
21.75
20.91
20.15
19.75
19.85
20.35
20.97
21.40
21.42
20.95
20.07
18.97
17.79
16.59
15.31
13.83
11.99
9.74
7.13
4.32
1.54
-1.01
-3.25
-5.27
-7.27
-9.54
-12.33
-15.75
-19.77
-24.08
-28.19
-31.40
-32.97
-32.30
-29.11
-23.58
-16.32
-8.22
-0.19
7.09
13.26
18.24
22.09
24.82
26.40
26.77
26.08
24.67
23.09
21.89
21.40
21.61
22.16
22.60
22.53
21.83
20.64
19.21
17.80
16.53
15.32
14.04
12.49
10.57
8.27
5.66
2.88
0.10
-2.58
-5.09
-7.46
-9.76
-12.14
-14.73
-17.69
-21.09
-24.81
-28.46
-31.40
-32.83
-32.06
-28.78
-23.21
-16.00
-8.09
-0.35
6.62
12.48
17.12
20.49
22.50
23.14
22.47
20.83
18.76
16.88
15.74
15.55
16.19
17.29
18.34
18.97
18.99
18.49
17.63
16.60
15.45
14.09
12.38
10.16
7.43
4.34
1.16
-1.79
-4.31
-6.38
-8.20
-10.08
-12.34
-15.18
-18.58
-22.33
-26.01
-29.10
-31.04
-31.29
-29.50
-25.62
-19.94
-13.11
-5.91
0.91
6.85
11.68
15.38
18.05
19.76
20.60
20.64
20.10
19.30
18.59
18.22
18.27
18.64
19.09
19.40
19.43
19.17
18.68
18.04
17.29
16.45
15.48
14.37
13.05
11.50
9.68
7.62
5.36
3.02
0.68
-1.61
-3.84
-6.04
-8.25
-10.42
-12.46
-14.29
-15.89
-17.40
-19.11
-21.34
-24.22
-27.58
-30.80
-33.03
-33.38
-31.31
-26.79
-20.34
-12.86
-5.31
1.51
7.12
11.32
14.11
15.59
15.93
15.40
14.37
13.23
12.35
11.92
11.91
12.10
12.21
12.04
11.56
10.87
10.13
9.45
8.79
8.09
7.20
6.07
4.70
3.12
1.39
-0.49
-2.48
-4.52
-6.54
-8.41
-10.06
-11.50
-12.83
-14.23
-15.90
-18.02
-20.67
-23.74
-26.93
-29.74
-31.51
-31.64
-29.77
-25.93
-20.57
-14.39
-8.14
-2.41
2.47
6.37
9.29
11.23
12.22
12.37
11.89
11.12
10.44
10.13
10.31
10.86
11.56
12.15
12.45
12.39
12.04
11.45
10.67
9.71
8.53
7.09
5.40
3.50
1.39
-0.91
-3.37
-5.93
-8.48
-10.86
-13.00
-14.93
-16.82
-18.87
-21.29
-24.08
-27.08
-29.89
-32.02
-32.92
-32.17
-29.53
-25.08
-19.20
-12.52
-5.79
0.30
5.36
9.29
12.23
14.42
16.02
17.03
17.39
17.10
16.28
15.24
14.30
13.72
13.58
13.82
14.27
14.74
15.05
15.08
14.74
14.00
12.89
11.49
9.92
8.25
6.51
4.67
2.65
0.37
-2.20
-5.01
-7.93
-10.80
-13.43
-15.71
-17.60
-19.18
-20.64
-22.22
-24.23
-26.87
-30.18
-33.90
-37.46
-40.03
-40.80
-39.17
-35.03
-28.77
-21.15
-13.12
-5.53
1.00
6.15
9.85
12.19
13.36
13.60
13.17
12.32
11.37
10.56
10.09
10.02
10.30
10.81
11.37
11.81
12.04
12.02
11.77
11.31
10.66
9.79
8.63
7.09
5.14
2.77
0.10
-2.68
-5.41
-7.94
-10.27
-12.47
-14.70
-17.16
-20.04
-23.46
-27.34
-31.38
-35.03
-37.55
-38.20
-36.44
-32.15
-25.64
-17.62
-9.01
-0.67
6.74
12.83
17.44
20.57
22.33
22.85
22.37
21.22
19.81
18.59
17.87
17.77
18.19
18.85
19.45
19.72
19.55
18.94
17.98
16.82
15.54
14.19
12.72
11.01
8.98
6.58
3.84
0.88
-2.14
-5.07
-7.80
-10.34
-12.79
-15.35
-18.32
-21.95
-26.31
-31.14
-35.76
-39.16
-40.32
-38.52
-33.65
-26.21
-17.19
-7.71
1.27
9.14
15.61
20.64
24.26
26.54
27.60
27.62
26.94
25.93
24.93
24.16
23.66
23.34
23.06
22.74
22.36
22.02
21.77
21.57
21.24
20.49
19.03
16.74
13.67
10.05
6.25
2.63
-0.57
-3.27
-5.57
-7.73
-10.07
-12.92
-16.51
-20.88
-25.76
-30.55
-34.42
-36.49
-36.06
-32.88
-27.19
-19.71
-11.36
-3.08
4.43
10.74
15.71
19.30
21.54
22.48
22.26
21.13
19.48
17.73
16.26
15.26
14.74
14.56
14.52
14.47
14.30
13.96
13.42
12.62
11.46
9.87
7.78
5.22
2.32
-0.75
-3.76
-6.54
-9.07
-11.44
-13.89
-16.73
-20.13
-24.00
-27.80
-30.71
-31.76
-30.22
-25.90
-19.25
-11.17
-2.73
5.17
11.97
17.47
21.65
24.49
25.97
26.10
25.05
23.20
21.07
19.21
17.99
17.53
17.65
18.03
18.32
18.28
17.82
16.96
15.76
14.22
12.28
9.87
7.00
3.79
0.52
-2.54
-5.17
-7.33
-9.16
-10.96
-13.07
-15.75
-19.09
-22.95
-26.95
-30.46
-32.76
-33.15
-31.23
-26.95
-20.70
-13.22
-5.35
2.12
8.64
13.90
17.82
20.44
21.84
22.15
21.63
20.58
19.37
18.37
17.75
17.52
17.50
17.44
17.10
16.39
15.38
14.23
13.11
12.11
11.14
10.01
8.48
6.40
3.84
1.03
-1.71
-4.13
-6.18
-8.05
-10.10
-12.66
-15.93
-19.88
-24.22
-28.41
-31.81
-33.72
-33.58
-31.07
-26.29
-19.70
-12.11
-4.40
2.63
8.46
12.84
15.80
17.47
18.09
17.90
17.21
16.26
15.27
14.34
13.52
12.81
12.20
11.72
11.37
11.14
10.97
10.76
10.36
9.60
8.34
6.48
4.06
1.28
-1.54
-4.03
-5.94
-7.27
-8.25
-9.32
-10.86
-13.15
-16.18
-19.75
-23.44
-26.69
-28.88
-29.41
-27.88
-24.24
-18.83
-12.34
-5.59
0.72
6.12
10.41
13.57
15.67
16.74
16.90
16.35
15.40
14.43
13.74
13.51
13.70
14.12
14.52
14.69
14.53
14.03
13.27
12.26
11.01
9.47
7.58
5.39
3.00
0.59
-1.71
-3.85
-5.92
-8.07
-10.50
-13.34
-16.66
-20.39
-24.26
-27.82
-30.45
-31.50
-30.44
-27.09
-21.76
-15.11
-8.04
-1.39
4.22
8.47
11.31
12.85
13.29
12.93
12.10
11.15
10.40
10.03
10.06
10.33
10.62
10.76
10.67
10.38
9.93
9.33
8.54
7.45
6.02
4.25
2.27
0.24
-1.70
-3.48
-5.17
-6.93
-8.93
-11.32
-14.18
-17.47
-21.03
-24.49
-27.29
-28.82
-28.50
-26.07
-21.65
-15.82
-9.40
-3.21
2.16
6.45
9.69
12.00
13.47
14.08
13.81
12.82
11.43
10.11
9.26
9.05
9.38
9.92
10.33
10.37
10.04
9.48
8.84
8.20
7.54
6.72
5.59
4.04
2.04
-0.31
-2.79
-5.16
-7.25
-9.02
-10.63
-12.35
-14.45
-17.07
-20.18
-23.56
-26.86
-29.68
-31.58
-32.11
-30.93
-27.83
-22.91
-16.59
-9.55
-2.53
3.85
9.22
13.46
16.66
18.96
20.49
21.39
21.78
21.85
21.79
21.75
21.83
22.03
22.28
22.47
22.49
22.23
21.65
20.71
19.44
17.87
16.09
14.18
12.21
10.24
8.30
6.37
4.41
2.35
0.15
-2.17
-4.55
-6.87
-9.00
-10.92
-12.68
-14.44
-16.40
-18.78
-21.70
-25.15
-28.90
-32.42
-35.00
-35.86
-34.43
-30.57
-24.68
-17.56
-10.16
-3.28
2.61
7.40
11.20
14.08
16.03
17.00
16.96
16.13
14.90
13.74
13.04
12.88
13.12
13.45
13.58
13.35
12.81
12.12
11.45
10.86
10.24
9.43
8.21
6.48
4.26
1.71
-0.93
-3.44
-5.67
-7.59
-9.28
-10.90
-12.60
-14.55
-16.87
-19.63
-22.77
-26.05
-28.98
-30.93
-31.29
-29.64
-25.93
-20.51
-14.00
-7.20
-0.76
4.85
9.41
12.84
15.14
16.37
16.62
16.12
15.23
14.36
13.85
13.86
14.28
14.82
15.16
15.06
14.48
13.54
12.43
11.32
10.26
9.20
8.02
6.54
4.65
2.33
-0.31
-3.03
-5.54
-7.66
-9.36
-10.85
-12.50
-14.67
-17.57
-21.14
-25.03
-28.64
-31.28
-32.31
-31.32
-28.24
-23.35
-17.21
-10.54
-4.05
1.77
6.65
10.58
13.67
16.06
17.81
18.89
19.27
18.98
18.18
17.14
16.20
15.63
15.51
15.76
16.16
16.47
16.52
16.23
15.62
14.72
13.57
12.19
10.62
8.87
6.98
4.97
2.85
0.62
-1.73
-4.13
-6.50
-8.73
-10.80
-12.71
-14.56
-16.51
-18.76
-21.50
-24.81
-28.55
-32.27
-35.24
-36.61
-35.70
-32.22
-26.47
-19.20
-11.40
-3.99
2.43
7.57
11.35
13.83
15.08
15.24
14.54
13.35
12.06
11.03
10.44
10.30
10.45
10.68
10.83
10.84
10.70
10.50
10.28
10.00
9.56
8.77
7.48
5.65
3.40
0.96
-1.38
-3.46
-5.25
-6.89
-8.65
-10.74
-13.36
-16.52
-20.10
-23.75
-26.95
-29.01
-29.28
-27.33
-23.15
-17.15
-10.10
-2.85
3.93
9.79
14.58
18.29
20.91
22.41
22.78
22.10
20.58
18.60
16.60
14.98
13.99
13.66
13.82
14.15
14.31
14.07
13.36
12.28
11.02
9.73
8.48
7.24
5.90
4.35
2.53
0.42
-1.95
-4.49
-7.13
-9.78
-12.36
-14.83
-17.20
-19.57
-22.06
-24.81
-27.84
-30.98
-33.81
-35.72
-36.01
-34.14
-29.94
-23.68
-16.02
-7.82
0.11
7.21
13.22
18.09
21.82
24.41
25.81
26.05
25.31
23.95
22.46
21.22
20.46
20.13
19.95
19.64
18.99
18.04
16.97
15.99
15.19
14.43
13.43
11.86
9.60
6.75
3.60
0.54
-2.17
-4.42
-6.28
-7.88
-9.37
-10.91
-12.68
-14.88
-17.71
-21.17
-24.98
-28.53
-31.00
-31.64
-30.00
-26.12
-20.50
-13.92
-7.19
-0.98
4.31
8.46
11.42
13.24
14.01
13.92
13.20
12.13
10.98
9.99
9.30
8.98
8.96
9.14
9.37
9.56
9.66
9.62
9.39
8.87
7.89
6.35
4.25
1.78
-0.77
-3.12
-5.14
-6.89
-8.63
-10.65
-13.22
-16.41
-20.10
-23.92
-27.31
-29.60
-30.16
-28.58
-24.80
-19.17
-12.38
-5.24
1.50
7.33
11.97
15.36
17.49
18.38
18.12
16.92
15.15
13.26
11.71
10.76
10.44
10.54
10.76
10.84
10.64
10.17
9.51
8.75
7.90
6.91
5.64
3.97
1.86
-0.57
-3.07
-5.40
-7.41
-9.18
-11.02
-13.28
-16.23
-19.89
-23.95
-27.87
-30.97
-32.60
-32.29
-29.84
-25.39
-19.41
-12.58
-5.63
0.84
6.42
10.96
14.39
16.68
17.84
17.93
17.15
15.87
14.48
13.32
12.55
12.13
11.95
11.84
11.76
11.71
11.70
11.71
11.62
11.24
10.38
8.88
6.67
3.83
0.53
-2.97
-6.38
-9.50
-12.25
-14.72
-17.14
-19.79
-22.94
-26.67
-30.82
-34.91
-38.20
-39.88
-39.29
-36.14
-30.65
-23.49
-15.54
-7.71
-0.63
5.36
10.17
13.87
16.54
18.27
19.14
19.30
18.95
18.33
17.64
17.02
16.51
16.10
15.75
15.43
15.13
14.77
14.25
13.39
12.07
10.25
7.98
5.40
2.67
-0.12
-2.97
-5.98
-9.29
-13.06
-17.33
-21.95
-26.51
-30.40
-32.85
-33.17
-30.94
-26.24
-19.57
-11.82
-3.97
3.16
9.07
13.59
16.79
18.81
19.81
19.92
19.28
18.16
16.85
15.68
14.85
14.41
14.26
14.23
14.18
14.05
13.82
13.48
12.93
12.06
10.72
8.88
6.60
4.06
1.44
-1.13
-3.62
-6.14
-8.86
-11.95
-15.48
-19.36
-23.29
-26.71
-28.96
-29.37
-27.56
-23.48
-17.54
-10.42
-2.94
4.21
10.51
15.64
19.44
21.83
22.80
22.51
21.26
19.56
17.93
16.81
16.40
16.60
17.12
17.61
17.80
17.59
17.04
16.29
15.44
14.47
13.27
11.69
9.68
7.25
4.56
1.81
-0.84
-3.28
-5.52
-7.68
-9.93
-12.49
-15.54
-19.17
-23.27
-27.44
-31.01
-33.16
-33.15
-30.61
-25.68
-18.98
-11.39
-3.81
3.10
8.97
13.65
17.10
19.30
20.26
20.09
19.08
17.67
16.31
15.37
14.99
15.05
15.30
15.48
15.39
14.98
14.31
13.49
12.57
11.54
10.28
8.66
6.64
4.27
1.71
-0.82
-3.12
-5.16
-7.03
-8.96
-11.21
-13.97
-17.30
-21.03
-24.80
-28.06
-30.15
-30.46
-28.56
-24.40
-18.36
-11.15
-3.64
3.38
9.40
14.22
17.91
20.57
22.30
23.17
23.22
22.63
21.68
20.69
19.94
19.59
19.61
19.81
20.01
20.00
19.68
19.02
18.05
16.82
15.39
13.80
12.09
10.33
8.58
6.91
5.31
3.72
2.02
0.09
-2.08
-4.41
-6.67
-8.68
-10.34
-11.75
-13.15
-14.83
-17.02
-19.85
-23.22
-26.84
-30.19
-32.63
-33.46
-32.18
-28.64
-23.16
-16.43
-9.33
-2.60
3.30
8.20
12.14
15.17
17.28
18.41
18.62
18.12
17.23
16.33
15.70
15.47
15.59
15.93
16.33
16.68
16.91
16.95
16.76
16.25
15.36
14.02
12.26
10.18
8.00
5.96
4.20
2.70
1.29
-0.30
-2.25
-4.57
-7.05
-9.41
-11.41
-12.95
-14.19
-15.41
-16.97
-19.13
-21.95
-25.29
-28.79
-31.88
-33.91
-34.24
-32.51
-28.67
-23.07
-16.39
-9.41
-2.86
2.77
7.26
10.54
12.67
13.73
13.82
13.10
11.87
10.51
9.42
8.86
8.90
9.39
10.01
10.47
10.57
10.30
9.75
9.05
8.28
7.44
6.46
5.25
3.77
1.97
-0.11
-2.40
-4.76
-6.99
-8.88
-10.33
-11.38
-12.28
-13.45
-15.25
-17.90
-21.32
-25.09
-28.52
-30.85
-31.43
-29.87
-26.20
-20.83
-14.45
-7.85
-1.75
3.39
7.37
10.22
12.06
13.02
13.21
12.77
11.89
10.87
10.04
9.66
9.83
10.45
11.27
12.03
12.53
12.69
12.57
12.25
11.78
11.13
10.23
8.94
7.16
4.87
2.15
-0.80
-3.73
-6.42
-8.70
-10.60
-12.24
-13.87
-15.73
-18.06
-20.97
-24.37
-28.00
-31.33
-33.72
-34.51
-33.25
-29.82
-24.54
-18.01
-10.98
-4.15
1.99
7.13
11.11
13.85
15.38
15.82
15.41
14.48
13.38
12.38
11.65
11.22
11.01
10.93
10.88
10.76
10.51
10.07
9.37
8.34
6.91
5.02
2.67
-0.05
-2.91
-5.66
-8.07
-10.05
-11.67
-13.16
-14.85
-17.05
-19.92
-23.42
-27.17
-30.54
-32.71
-32.95
-30.86
-26.49
-20.37
-13.33
-6.26
0.17
5.54
9.71
12.67
14.48
15.23
15.10
14.35
13.28
12.20
11.26
10.54
10.03
9.71
9.65
9.92
10.52
11.26
11.74
11.54
10.34
8.15
5.27
2.20
-0.64
-3.08
-5.19
-7.27
-9.63
-12.52
-16.08
-20.30
-25.00
-29.73
-33.79
-36.28
-36.37
-33.56
-27.93
-20.14
-11.22
-2.30
5.76
12.49
17.75
21.65
24.32
25.87
26.42
26.12
25.19
23.94
22.69
21.66
20.93
20.46
20.12
19.79
19.35
18.73
17.86
16.64
14.99
12.88
10.35
7.56
4.68
1.83
-0.95
-3.73
-6.63
-9.82
-13.42
-17.47
-21.87
-26.25
-29.99
-32.26
-32.30
-29.61
-24.24
-16.78
-8.20
0.46
8.33
14.89
19.99
23.67
26.02
27.15
27.15
26.17
24.46
22.39
20.39
18.84
17.92
17.62
17.72
17.90
17.89
17.54
16.89
16.00
14.91
13.56
11.83
9.62
7.00
4.14
1.27
-1.42
-3.93
-6.37
-8.96
-11.93
-15.43
-19.49
-23.91
-28.24
-31.75
-33.58
-32.99
-29.64
-23.78
-16.15
-7.78
0.36
7.59
13.55
18.15
21.35
23.12
23.46
22.59
20.91
18.98
17.34
16.30
15.88
15.83
15.88
15.79
15.52
15.14
14.72
14.21
13.46
12.28
10.52
8.21
5.53
2.67
-0.18
-2.92
-5.50
-7.97
-10.38
-12.89
-15.66
-18.86
-22.50
-26.25
-29.45
-31.24
-30.85
-27.90
-22.56
-15.51
-7.71
-0.10
6.63
12.13
16.34
19.35
21.28
22.22
22.24
21.45
20.07
18.46
17.06
16.23
16.15
16.66
17.39
17.91
17.93
17.39
16.48
15.46
14.48
13.51
12.36
10.83
8.83
6.41
3.74
1.01
-1.61
-4.02
-6.20
-8.16
-9.97
-11.73
-13.61
-15.81
-18.48
-21.70
-25.27
-28.78
-31.57
-32.93
-32.29
-29.40
-24.48
-18.09
-11.01
-4.00
2.38
7.76
11.99
15.05
16.93
17.73
17.61
16.79
15.59
14.32
13.22
12.46
12.13
12.21
12.60
13.13
13.55
13.67
13.33
12.56
11.45
10.17
8.84
7.51
6.14
4.63
2.92
0.99
-1.10
-3.25
-5.32
-7.25
-8.98
-10.59
-12.19
-13.97
-16.08
-18.65
-21.70
-25.14
-28.67
-31.79
-33.83
-34.10
-32.17
-27.97
-21.97
-15.02
-8.09
-2.02
2.74
6.14
8.37
9.76
10.49
10.66
10.34
9.64
8.80
8.11
7.80
7.91
8.31
8.70
8.86
8.67
8.20
7.61
7.04
6.51
5.95
5.18
4.07
2.55
0.67
-1.49
-3.79
-6.09
-8.31
-10.40
-12.39
-14.35
-16.40
-18.68
-21.30
-24.23
-27.24
-29.89
-31.53
-31.56
-29.58
-25.57
-19.93
-13.38
-6.73
-0.69
4.31
8.08
10.65
12.16
12.80
12.74
12.19
11.35
10.45
9.71
9.26
9.17
9.33
9.54
9.59
9.30
8.66
7.83
7.01
6.36
5.84
5.23
4.20
2.47
-0.02
-3.10
-6.37
-9.41
-11.94
-13.91
-15.56
-17.23
-19.26
-21.84
-24.96
-28.42
-31.82
-34.67
-36.44
-36.62
-34.87
-31.14
-25.73
-19.23
-12.40
-5.91
-0.25
4.34
7.81
10.23
11.68
12.27
12.16
11.58
10.86
10.28
10.04
10.18
10.55
10.99
11.30
11.41
11.34
11.12
10.78
10.24
9.37
8.01
6.08
3.62
0.78
-2.23
-5.18
-7.90
-10.38
-12.75
-15.25
-18.17
-21.66
-25.69
-29.90
-33.61
-36.04
-36.39
-34.19
-29.43
-22.57
-14.41
-5.85
2.32
9.57
15.62
20.37
23.76
25.79
26.54
26.23
25.24
24.03
23.05
22.57
22.66
23.17
23.83
24.31
24.40
24.00
23.20
22.12
20.88
19.56
18.09
16.37
14.27
11.75
8.85
5.70
2.49
-0.60
-3.47
-6.08
-8.52
-10.94
-13.54
-16.53
-20.04
-24.07
-28.39
-32.52
-35.73
-37.20
-36.23
-32.46
-26.03
-17.62
-8.26
0.94
9.04
15.48
20.04
22.80
23.96
23.83
22.76
21.18
19.53
18.22
17.50
17.35
17.55
17.77
17.75
17.41
16.83
16.17
15.52
14.80
13.83
12.42
10.50
8.15
5.58
3.00
0.50
-1.96
-4.53
-7.44
-10.83
-14.77
-19.13
-23.54
-27.43
-30.08
-30.77
-28.99
-24.66
-18.19
-10.38
-2.22
5.43
11.97
17.16
20.99
23.55
24.90
25.12
24.36
22.90
21.17
19.58
18.39
17.68
17.29
17.05
16.79
16.44
16.00
15.39
14.51
13.20
11.36
8.99
6.22
3.22
0.20
-2.68
-5.35
-7.82
-10.16
-12.57
-15.33
-18.67
-22.61
-26.83
-30.59
-32.95
-33.00
-30.20
-24.67
-17.08
-8.50
-0.05
7.42
13.48
18.04
21.21
23.13
23.88
23.58
22.43
20.79
19.16
18.01
17.59
17.81
18.32
18.69
18.56
17.87
16.77
15.55
14.44
13.45
12.44
11.17
9.42
7.14
4.44
1.52
-1.40
-4.16
-6.73
-9.18
-11.65
-14.33
-17.35
-20.81
-24.64
-28.59
-32.20
-34.81
-35.74
-34.44
-30.71
-24.83
-17.50
-9.66
-2.20
4.19
9.17
12.68
14.85
15.87
15.94
15.33
14.31
13.22
12.36
11.92
11.92
12.19
12.50
12.59
12.33
11.75
10.99
10.20
9.46
8.69
7.72
6.38
4.55
2.29
-0.23
-2.76
-5.11
-7.20
-9.06
-10.84
-12.78
-15.13
-18.04
-21.45
-25.03
-28.13
-29.95
-29.77
-27.21
-22.41
-16.01
-8.92
-2.06
3.89
8.63
12.16
14.64
16.22
17.01
17.10
16.59
15.70
14.70
13.84
13.32
13.21
13.44
13.87
14.29
14.53
14.46
14.05
13.32
12.36
11.24
10.01
8.63
7.01
5.03
2.68
0.06
-2.65
-5.19
-7.36
-9.10
-10.45
-11.58
-12.70
-14.06
-15.83
-18.10
-20.80
-23.60
-25.93
-27.05
-26.28
-23.24
-18.03
-11.29
-3.96
3.00
8.96
13.72
17.44
20.39
22.63
24.02
24.24
23.15
20.97
18.36
16.16
15.04
15.19
16.20
17.23
17.35
15.79
12.16
6.46
-0.97
-9.53
-18.49
-27.06
-34.48
-40.21
-43.97
-45.86
-46.24
-45.70
-44.89
-44.41
-44.73
-46.19
-48.91
-52.83
-57.67
-62.92
-67.96
-72.04
-74.49
-74.78
-72.57
-67.84
-60.76
-51.74
-41.27
-29.89
-18.13
-6.44
4.74
15.04
24.14
31.71
37.47
41.23
42.93
42.74
41.04
38.31
35.00
31.46
27.95
24.69
21.96
20.00
18.93
18.63
18.72
18.71
18.23
17.17
15.70
14.11
12.56
10.98
9.12
6.66
3.41
-0.61
-5.12
-9.65
-13.61
-16.40
-17.53
-16.73
-14.06
-9.88
-4.70
0.96
6.76
12.51
18.19
23.75
29.12
34.19
38.87
43.13
46.96
50.33
53.15
55.32
56.80
57.62
57.96
58.01
57.95
57.87
57.74
57.48
56.94
55.95
54.40
52.14
49.11
45.22
40.42
34.67
27.89
19.95
10.67
-0.14
-12.52
-26.18
-40.47
-54.46
-67.11
-77.52
-85.10
-89.56
-90.89
-89.23
-84.90
-78.34
-70.19
-61.19
-52.06
-43.40
-35.65
-29.11
-23.95
-20.25
-17.92
-16.70
-16.11
-15.67
-14.96
-13.79
-12.16
-10.23
-8.22
-6.34
-4.73
-3.43
-2.42
-1.62
-0.90
-0.15
0.64
1.43
2.13
2.64
2.97
3.22
3.59
4.32
5.53
7.20
9.11
10.90
12.16
12.62
12.17
10.91
9.08
7.06
5.31
4.34
4.63
6.49
9.95
14.71
20.17
25.63
30.53
34.55
37.63
39.81
41.16
41.67
41.31
40.12
38.28
36.13
34.05
32.44
31.61
31.73
32.80
34.52
36.39
37.77
38.05
36.87
34.28
30.65
26.57
22.54
18.84
15.47
12.26
9.03
5.65
2.07
-1.74
-5.80
-10.07
-14.44
-18.60
-22.09
-24.43
-25.26
-24.51
-22.36
-19.17
-15.34
-11.22
-7.07
-3.12
0.42
3.34
5.46
6.74
7.25
7.18
6.75
6.13
5.46
4.85
4.37
4.14
4.20
4.47
4.80
4.96
4.79
4.25
3.43
2.52
1.64
0.82
0.03
-0.83
-1.82
-2.99
-4.38
-6.04
-8.11
-10.70
-13.89
-17.64
-21.71
-25.68
-28.98
-31.03
-31.45
-30.11
-27.26
-23.40
-19.08
-14.79
-10.83
-7.33
-4.30
-1.70
0.55
2.62
4.72
7.06
9.73
12.66
15.62
18.29
20.33
21.56
21.91
21.47
20.42
18.98
17.34
15.65
13.94
12.16
10.22
8.02
5.55
2.86
0.02
-2.95
-6.10
-9.56
-13.50
-18.03
-23.16
-28.72
-34.38
-39.68
-44.09
-47.09
-48.33
-47.63
-45.05
-40.87
-35.50
-29.45
-23.23
-17.28
-11.87
-7.11
-2.98
0.61
3.71
6.33
8.49
10.25
11.73
13.11
14.51
15.95
17.36
18.60
19.56
20.14
20.27
19.88
18.91
17.36
15.32
12.96
10.52
8.13
5.87
3.69
1.51
-0.77
-3.26
-6.08
-9.32
-13.01
-16.98
-20.84
-23.96
-25.66
-25.44
-23.21
-19.31
-14.39
-9.19
-4.25
0.17
4.04
7.38
10.09
11.94
12.72
12.41
11.26
9.71
8.26
7.14
6.33
5.54
4.48
3.02
1.23
-0.64
-2.41
-4.04
-5.71
-7.70
-10.19
-13.13
-16.25
-19.18
-21.64
-23.51
-24.86
-25.77
-26.33
-26.55
-26.50
-26.33
-26.20
-26.21
-26.12
-25.38
-23.27
-19.19
-13.09
-5.50
2.58
10.05
16.19
20.77
23.98
26.14
27.46
27.92
27.41
25.96
23.85
21.59
19.70
18.46
17.85
17.54
17.15
16.39
15.23
13.84
12.49
11.42
10.67
10.12
9.50
8.55
7.11
5.15
2.78
0.18
-2.47
-5.08
-7.64
-10.21
-12.93
-15.96
-19.44
-23.36
-27.51
-31.39
-34.30
-35.55
-34.62
-31.45
-26.38
-20.10
-13.40
-6.96
-1.24
3.54
7.29
9.99
11.65
12.29
12.01
11.03
9.66
8.27
7.17
6.55
6.40
6.55
6.77
6.83
6.62
6.14
5.49
4.73
3.84
2.74
1.31
-0.51
-2.69
-5.10
-7.58
-10.02
-12.43
-14.96
-17.81
-21.11
-24.73
-28.23
-30.85
-31.78
-30.42
-26.65
-20.91
-14.10
-7.30
-1.43
2.90
5.48
6.41
6.05
5.02
4.15
4.35
6.33
10.29
15.74
21.61
26.64
29.84
30.84
29.89
27.61
24.61
21.21
17.47
13.37
8.96
4.51
0.37
-3.18
-6.08
-8.51
-10.82
-13.39
-16.48
-20.20
-24.41
-28.73
-32.58
-35.29
-36.24
-35.04
-31.59
-26.19
-19.36
-11.75
-4.03
3.27
9.72
15.01
18.93
21.39
22.48
22.47
21.77
20.90
20.23
19.95
19.94
19.96
19.72
19.08
18.12
17.08
16.15
15.43
14.85
14.19
13.23
11.80
9.82
7.33
4.43
1.31
-1.77
-4.58
-6.98
-9.00
-10.85
-12.86
-15.32
-18.39
-22.03
-26.00
-29.87
-33.08
-35.04
-35.21
-33.29
-29.29
-23.59
-16.80
-9.64
-2.74
3.47
8.70
12.77
15.57
17.05
17.35
16.81
15.91
15.12
14.76
14.87
15.27
15.63
15.72
15.39
14.70
13.77
12.74
11.64
10.47
9.11
7.50
5.60
3.47
1.17
-1.23
-3.74
-6.41
-9.34
-12.65
-16.38
-20.44
-24.61
-28.47
-31.45
-32.94
-32.46
-29.78
-25.03
-18.67
-11.39
-3.94
3.10
9.29
14.39
18.24
20.75
21.87
21.70
20.48
18.67
16.77
15.25
14.39
14.20
14.46
14.84
15.06
14.99
14.66
14.20
13.67
13.01
12.05
10.55
8.35
5.47
2.09
-1.53
-5.10
-8.35
-11.05
-13.02
-14.16
-14.57
-14.57
-14.62
-15.13
-16.18
-17.37
-17.92
-16.98
-14.03
-9.11
-2.82
3.95
10.43
16.15
20.99
25.03
28.29
30.69
32.03
32.19
31.23
29.41
27.16
24.85
22.65
20.49
18.14
15.38
12.15
8.63
5.12
1.90
-0.94
-3.49
-5.97
-8.53
-11.12
-13.46
-15.10
-15.66
-14.95
-13.09
-10.52
-7.87
-5.82
-4.95
-5.62
-7.86
-11.41
-15.69
-19.90
-23.21
-24.82
-24.22
-21.25
-16.18
-9.68
-2.62
4.13
9.89
14.33
17.43
19.41
20.55
21.14
21.42
21.59
21.79
22.10
22.43
22.58
22.26
21.23
19.47
17.19
14.72
12.38
10.34
8.54
6.81
4.90
2.65
-0.00
-3.03
-6.32
-9.72
-13.14
-16.54
-20.01
-23.71
-27.81
-32.29
-36.85
-40.87
-43.53
-44.08
-42.07
-37.54
-30.98
-23.15
-14.86
-6.80
0.56
6.92
12.05
15.82
18.22
19.39
19.71
19.63
19.59
19.83
20.40
21.15
21.85
22.27
22.28
21.87
21.14
20.24
19.32
18.44
17.53
16.44
14.97
12.96
10.41
7.45
4.34
1.33
-1.38
-3.74
-5.84
-7.86
-9.99
-12.42
-15.28
-18.63
-22.42
-26.36
-29.99
-32.63
-33.61
-32.46
-29.05
-23.74
-17.17
-10.17
-3.45
2.53
7.54
11.54
14.60
16.80
18.20
18.89
19.02
18.78
18.38
18.03
17.83
17.79
17.85
17.91
17.92
17.88
17.76
17.52
17.03
16.17
14.86
13.16
11.20
9.19
7.26
5.44
3.62
1.66
-0.55
-3.00
-5.58
-8.13
-10.49
-12.56
-14.36
-15.99
-17.70
-19.74
-22.34
-25.52
-29.09
-32.55
-35.23
-36.44
-35.65
-32.70
-27.79
-21.46
-14.42
-7.39
-0.94
4.56
8.92
12.10
14.15
15.22
15.50
15.31
14.96
14.71
14.69
14.81
14.90
14.77
14.35
13.71
13.03
12.41
11.85
11.18
10.16
8.57
6.33
3.54
0.42
-2.71
-5.57
-8.03
-10.12
-12.05
-14.10
-16.55
-19.53
-22.98
-26.70
-30.33
-33.44
-35.53
-36.12
-34.79
-31.39
-26.09
-19.39
-12.05
-4.84
1.65
7.13
11.55
14.95
17.40
18.92
19.53
19.34
18.62
17.72
16.98
16.62
16.66
16.97
17.34
17.60
17.68
17.56
17.28
16.87
16.31
15.54
14.44
12.91
10.87
8.31
5.35
2.15
-1.07
-4.21
-7.19
-10.06
-12.85
-15.64
-18.49
-21.50
-24.78
-28.37
-32.13
-35.66
-38.32
-39.38
-38.25
-34.76
-29.14
-22.03
-14.20
-6.40
0.83
7.18
12.48
16.60
19.46
21.06
21.50
21.09
20.23
19.31
18.61
18.20
17.96
17.71
17.28
16.62
15.79
14.92
14.08
13.28
12.45
11.42
10.00
8.07
5.63
2.86
0.04
-2.53
-4.68
-6.45
-8.06
-9.87
-12.17
-15.14
-18.74
-22.75
-26.78
-30.29
-32.67
-33.38
-32.01
-28.51
-23.19
-16.68
-9.75
-3.13
2.66
7.35
10.83
13.12
14.28
14.44
13.78
12.59
11.25
10.10
9.38
9.15
9.32
9.69
10.01
10.08
9.77
9.01
7.78
6.11
4.06
1.76
-0.65
-2.99
-5.14
-7.06
-8.87
-10.81
-13.20
-16.25
-19.99
-24.15
-28.13
-31.16
-32.46
-31.45
-27.94
-22.16
-14.67
-6.28
2.20
10.06
16.79
22.07
25.80
28.00
28.80
28.47
27.35
25.84
24.31
23.01
22.01
21.22
20.45
19.54
18.43
17.18
15.93
14.76
13.62
12.37
10.79
8.77
6.36
3.75
1.22
-1.00
-2.83
-4.33
-5.72
-7.27
-9.28
-11.92
-15.21
-18.93
-22.56
-25.43
-26.84
-26.23
-23.42
-18.62
-12.40
-5.52
1.27
7.40
12.54
16.59
19.54
21.48
22.46
22.59
22.02
21.00
19.82
18.77
18.04
17.70
17.68
17.82
17.97
18.01
17.91
17.65
17.18
16.43
15.25
13.53
11.25
8.49
5.47
2.46
-0.32
-2.77
-4.98
-7.18
-9.66
-12.64
-16.13
-19.86
-23.24
-25.55
-26.08
-24.39
-20.44
-14.65
-7.72
-0.48
6.25
11.84
15.91
18.29
19.11
18.68
17.48
16.02
14.69
13.70
13.04
12.52
11.90
11.03
9.85
8.40
6.80
5.10
3.29
1.25
-1.11
-3.86
-6.90
-10.06
-13.12
-15.92
-18.46
-20.87
-23.38
-26.20
-29.43
-32.98
-36.57
-39.70
-41.81
-42.35
-40.94
-37.54
-32.41
-26.11
-19.30
-12.60
-6.47
-1.22
2.97
5.99
7.76
8.32
7.87
6.77
5.48
4.44
3.95
4.05
4.59
5.28
5.86
6.15
6.12
5.81
5.27
4.51
3.48
2.11
0.39
-1.64
-3.93
-6.43
-9.14
-12.06
-15.13
-18.10
-20.55
-21.95
-21.81
-19.95
-16.50
-11.93
-6.81
-1.71
2.97
6.96
10.05
12.06
12.87
12.49
11.10
9.09
6.89
4.91
3.40
2.40
1.83
1.49
1.15
0.66
-0.03
-0.89
-1.80
-2.66
-3.45
-4.26
-5.28
-6.71
-8.71
-11.32
-14.44
-17.83
-21.13
-23.83
-25.40
-25.35
-23.45
-19.81
-14.86
-9.25
-3.61
1.52
5.85
9.20
11.49
12.70
12.84
12.06
10.65
9.00
7.51
6.42
5.81
5.56
5.46
5.30
4.90
4.16
3.11
1.78
0.32
-1.17
-2.61
-4.02
-5.53
-7.37
-9.78
-12.86
-16.56
-20.59
-24.48
-27.59
-29.31
-29.13
-26.84
-22.54
-16.69
-9.94
-2.94
3.76
9.84
15.11
19.48
22.87
25.22
26.57
27.07
26.98
26.59
26.11
25.68
25.34
25.09
24.94
24.91
25.00
25.17
25.33
25.36
25.13
24.54
23.52
22.09
20.34
18.43
16.50
14.68
13.01
11.49
10.04
8.60
7.12
5.59
4.06
2.56
1.13
-0.27
-1.73
-3.38
-5.30
-7.50
-9.88
-12.28
-14.55
-16.63
-18.64
-20.80
-23.40
-26.63
-30.55
-35.00
-39.51
-43.43
-45.94
-46.28
-43.99
-39.03
-31.86
-23.29
-14.26
-5.54
2.37
9.21
14.90
19.40
22.68
24.84
26.11
26.86
27.48
28.23
29.18
30.20
31.08
31.70
32.06
32.26
32.46
32.68
32.88
32.88
32.52
31.71
30.44
28.80
26.93
24.98
23.04
21.15
19.31
17.51
15.73
13.97
12.25
10.55
8.88
7.19
5.46
3.67
1.84
-0.03
-1.91
-3.76
-5.60
-7.50
-9.61
-12.10
-15.10
-18.64
-22.52
-26.32
-29.43
-31.22
-31.19
-29.15
-25.21
-19.79
-13.46
-6.82
-0.43
5.32
10.19
14.10
17.05
19.13
20.41
21.00
21.04
20.70
20.19
19.66
19.26
19.04
18.99
19.09
19.28
19.51
19.73
19.86
19.83
19.56
18.98
18.04
16.77
15.20
13.43
11.58
9.76
8.03
6.41
4.82
3.18
1.40
-0.56
-2.64
-4.74
-6.69
-8.37
-9.74
-10.88
-11.95
-13.18
-14.82
-17.02
-19.79
-22.95
-26.07
-28.61
-29.95
-29.62
-27.46
-23.65
-18.67
-13.20
-7.88
-3.24
0.43
3.02
4.60
5.34
5.50
5.34
5.06
4.83
4.73
4.78
4.96
5.21
5.49
5.74
5.93
6.06
6.15
6.20
6.19
6.05
5.68
5.01
4.02
2.71
1.14
-0.60
-2.45
-4.32
-6.15
-7.86
-9.41
-10.77
-11.99
-13.17
-14.44
-15.94
-17.73
-19.75
-21.72
-23.25
-23.84
-23.15
-21.04
-17.71
-13.56
-9.09
-4.75
-0.87
2.33
4.71
6.24
6.94
6.93
6.41
5.58
4.63
3.72
2.94
2.35
1.99
1.82
1.74
1.66
1.51
1.31
1.12
1.00
0.92
0.74
0.29
-0.55
-1.78
-3.28
-4.82
-6.22
-7.36
-8.27
-9.10
-10.03
-11.22
-12.77
-14.67
-16.87
-19.22
-21.55
-23.59
-25.05
-25.55
-24.80
-22.65
-19.23
-14.89
-10.16
-5.59
-1.61
1.51
3.69
4.96
5.41
5.23
4.65
3.91
3.26
2.86
2.75
2.87
3.05
3.13
3.02
2.75
2.38
1.96
1.48
0.84
-0.08
-1.37
-3.04
-4.96
-6.97
-8.92
-10.73
-12.38
-13.98
-15.63
-17.47
-19.63
-22.15
-24.91
-27.59
-29.69
-30.68
-30.13
-27.90
-24.17
-19.40
-14.16
-9.00
-4.34
-0.50
2.38
4.24
5.12
5.21
4.72
3.94
3.05
2.18
1.36
0.57
-0.17
-0.81
-1.24
-1.38
-1.26
-1.05
-1.01
-1.39
-2.34
-3.85
-5.75
-7.82
-9.90
-11.93
-13.95
-16.11
-18.49
-21.20
-24.25
-27.60
-31.08
-34.34
-36.83
-37.93
-37.09
-34.01
-28.79
-21.93
-14.18
-6.39
0.70
6.57
10.95
13.83
15.38
15.88
15.65
14.98
14.16
13.38
12.76
12.34
12.12
12.03
12.04
12.08
12.08
11.91
11.44
10.55
9.18
7.37
5.21
2.84
0.35
-2.21
-4.85
-7.57
-10.45
-13.57
-17.06
-20.95
-25.12
-29.15
-32.34
-33.90
-33.16
-29.81
-24.00
-16.32
-7.58
1.34
9.71
16.98
22.81
27.03
29.63
30.72
30.60
29.68
28.44
27.32
26.62
26.41
26.52
26.66
26.56
26.10
25.37
24.58
23.90
23.33
22.65
21.52
19.64
16.93
13.58
9.95
6.41
3.19
0.29
-2.47
-5.36
-8.66
-12.56
-17.10
-22.06
-26.94
-30.97
-33.22
-32.89
-29.57
-23.44
-15.18
-5.86
3.43
11.84
18.84
24.21
27.94
30.13
30.92
30.56
29.40
27.86
26.36
25.21
24.49
24.11
23.82
23.41
22.79
22.01
21.21
20.49
19.87
19.18
18.16
16.57
14.33
11.57
8.54
5.53
2.70
0.06
-2.51
-5.21
-8.23
-11.69
-15.58
-19.76
-23.87
-27.36
-29.52
-29.63
-27.20
-22.16
-14.91
-6.29
2.72
11.18
18.42
24.06
27.99
30.26
31.04
30.58
29.22
27.42
25.64
24.29
23.56
23.43
23.66
23.90
23.86
23.36
22.42
21.16
19.77
18.40
17.08
15.78
14.38
12.76
10.81
8.52
5.93
3.16
0.37
-2.33
-4.91
-7.40
-9.91
-12.57
-15.47
-18.66
-22.15
-25.80
-29.33
-32.25
-33.97
-33.85
-31.50
-26.86
-20.35
-12.66
-4.63
3.01
9.77
15.36
19.63
22.52
24.04
24.34
23.72
22.60
21.43
20.52
19.97
19.72
19.61
19.50
19.33
19.14
18.99
18.88
18.73
18.41
17.79
16.77
15.30
13.45
11.30
8.94
6.49
3.99
1.49
-0.99
-3.40
-5.73
-7.94
-10.04
-12.08
-14.15
-16.39
-18.96
-22.00
-25.53
-29.32
-32.87
-35.46
-36.34
-34.96
-31.16
-25.30
-18.11
-10.48
-3.23
3.07
8.13
11.91
14.47
15.95
16.56
16.54
16.16
15.68
15.32
15.15
15.18
15.34
15.55
15.74
15.82
15.71
15.35
14.67
13.66
12.41
11.05
9.70
8.40
7.09
5.58
3.71
1.42
-1.21
-3.93
-6.51
-8.75
-10.62
-12.22
-13.75
-15.43
-17.49
-20.06
-23.16
-26.54
-29.73
-32.03
-32.71
-31.25
-27.55
-21.94
-15.11
-7.83
-0.78
5.62
11.10
15.54
18.83
20.86
21.67
21.41
20.43
19.19
18.11
17.44
17.23
17.29
17.35
17.13
16.49
15.45
14.11
12.61
11.06
9.57
8.20
7.05
6.20
5.65
5.33
5.09
4.77
4.24
3.46
2.34
0.76
-1.46
-4.53
-8.60
-13.70
-19.73
-26.54
-33.90
-41.48
-48.73
-54.90
-59.19
-61.07
-60.49
-58.01
-54.57
-51.10
-48.21
-46.03
-44.39
-43.05
-41.97
-41.30
-41.17
-41.52
-42.02
-42.18
-41.55
-39.91
-37.26
-33.80
-29.73
-25.21
-20.35
-15.23
-10.07
-5.15
-0.76
2.88
5.80
8.19
10.31
12.36
14.26
15.67
16.08
15.08
12.59
8.96
4.94
1.43
-0.81
-1.33
-0.08
2.66
6.43
10.69
14.97
18.90
22.18
24.60
26.01
26.35
25.67
24.19
22.29
20.45
19.07
18.38
18.35
18.73
19.19
19.48
19.50
19.29
18.90
18.35
17.52
16.34
14.79
13.02
11.27
9.74
8.41
7.08
5.42
3.24
0.65
-1.86
-3.65
-4.11
-2.93
-0.20
3.71
8.25
12.94
17.36
21.23
24.30
26.42
27.50
27.61
26.95
25.78
24.35
22.79
21.15
19.43
17.61
15.71
13.74
11.72
9.65
7.51
5.28
2.96
0.61
-1.74
-4.09
-6.52
-9.21
-12.37
-16.11
-20.34
-24.69
-28.60
-31.39
-32.53
-31.74
-29.05
-24.76
-19.36
-13.37
-7.29
-1.56
3.47
7.53
10.45
12.24
13.02
13.05
12.69
12.30
12.13
12.31
12.78
13.41
14.03
14.52
14.81
14.90
14.77
14.42
13.77
12.78
11.33
9.27
6.36
2.48
-2.30
-7.58
-12.68
-16.81
-19.22
-19.43
-17.27
-12.98
-7.05
-0.15
6.88
13.12
17.73
20.24
20.63
19.31
16.94
14.13
11.40
8.90
6.47
3.95
1.53
-0.37
-1.28
-1.08
0.01
1.77
3.71
5.12
5.41
4.37
2.23
-0.46
-3.09
-5.11
-5.69
-4.82
-3.40
-2.69
-3.33
-4.79
-5.41
-3.22
3.40
15.60
32.44
50.86
66.54
75.62
75.74
66.66
49.95
24.87
-4.79
-32.18
-51.52
-61.85
-66.21
-68.96
-71.83
-74.39
-75.46
-73.81
-69.85
-65.16
-62.11
-62.44
-66.63
-73.96
-83.04
-91.80
-97.05
-95.71
-85.75
-66.90
-40.71
-10.46
19.66
45.54
64.41
75.73
80.42
79.84
75.22
67.64
58.17
48.00
38.27
29.89
23.43
18.77
15.23
12.00
8.69
5.53
3.22
2.38
3.33
5.86
9.31
12.76
15.35
16.56
16.34
14.97
12.90
10.64
8.60
7.01
5.92
5.21
4.66
4.10
3.48
2.82
2.25
1.88
1.76
1.82
1.91
1.83
1.36
0.36
-1.17
-3.07
-5.05
-6.76
-7.95
-8.59
-8.82
-8.91
-9.14
-9.76
-10.88
-12.56
-14.75
-17.30
-19.89
-22.07
-23.37
-23.41
-22.08
-19.53
-16.14
-12.39
-8.66
-5.22
-2.20
0.39
2.53
4.22
5.46
6.29
6.81
7.14
7.45
7.86
8.40
8.99
9.49
9.75
9.71
9.41
8.96
8.49
8.07
7.67
7.17
6.44
5.35
3.84
1.92
-0.31
-2.66
-4.94
-7.01
-8.85
-10.60
-12.49
-14.79
-17.70
-21.30
-25.53
-30.14
-34.72
-38.69
-41.45
-42.46
-41.40
-38.25
-33.32
-27.10
-20.16
-13.00
-6.03
0.48
6.32
11.35
15.43
18.52
20.66
22.03
22.94
23.69
24.52
25.50
26.50
27.30
27.69
27.63
27.28
26.93
26.89
27.35
28.31
29.62
31.01
32.16
32.79
32.74
31.92
30.40
28.36
26.00
23.49
20.92
18.27
15.47
12.44
9.14
5.53
1.60
-2.60
-6.87
-10.86
-14.02
-15.82
-15.89
-14.20
-11.11
-7.24
-3.25
0.34
3.30
5.59
7.28
8.43
9.06
9.17
8.86
8.28
7.64
7.13
6.83
6.76
6.85
7.05
7.31
7.60
7.82
7.84
7.53
6.85
5.80
4.52
3.14
1.77
0.45
-0.83
-2.15
-3.50
-4.91
-6.35
-7.88
-9.55
-11.48
-13.79
-16.54
-19.65
-22.91
-25.88
-28.03
-28.79
-27.73
-24.73
-20.05
-14.25
-8.03
-2.01
3.43
8.16
12.26
15.83
18.88
21.37
23.23
24.44
25.07
25.26
25.14
24.78
24.21
23.46
22.59
21.71
20.90
20.23
19.65
19.02
18.15
16.83
15.01
12.70
10.02
7.08
3.96
0.63
-2.91
-6.62
-10.37
-13.91
-16.97
-19.40
-21.22
-22.57
-23.71
-24.85
-26.14
-27.62
-29.29
-31.06
-32.76
-34.08
-34.57
-33.75
-31.26
-27.01
-21.32
-14.82
-8.31
-2.47
2.33
6.06
8.94
11.27
13.23
14.87
16.15
17.03
17.53
17.82
18.07
18.42
18.93
19.49
19.97
20.17
19.96
19.24
17.99
16.19
13.89
11.18
8.18
5.02
1.85
-1.25
-4.22
-7.06
-9.81
-12.44
-14.98
-17.40
-19.70
-21.84
-23.64
-24.77
-24.84
-23.53
-20.76
-16.80
-12.19
-7.54
-3.34
0.19
3.05
5.35
7.10
8.21
8.52
7.93
6.53
4.63
2.62
0.88
-0.37
-1.09
-1.41
-1.52
-1.58
-1.74
-2.06
-2.60
-3.41
-4.58
-6.20
-8.34
-11.03
-14.24
-17.89
-21.89
-26.12
-30.46
-34.71
-38.61
-41.69
-43.40
-43.16
-40.53
-35.45
-28.29
-19.81
-10.97
-2.68
4.36
9.85
13.78
16.36
17.88
18.59
18.66
18.24
17.47
16.49
15.52
14.69
14.09
13.71
13.45
13.21
12.91
12.55
12.13
11.59
10.85
9.81
8.41
6.67
4.72
2.69
0.62
-1.57
-4.10
-7.13
-10.71
-14.65
-18.52
-21.72
-23.67
-23.95
-22.37
-19.05
-14.33
-8.66
-2.57
3.43
8.93
13.59
17.19
19.68
21.08
21.48
21.02
19.85
18.18
16.23
14.22
12.31
10.53
8.84
7.16
5.49
3.94
2.69
1.85
1.37
1.01
0.46
-0.51
-1.94
-3.70
-5.54
-7.24
-8.69
-9.93
-11.05
-12.22
-13.56
-15.20
-17.21
-19.57
-22.04
-24.22
-25.55
-25.47
-23.61
-19.97
-14.90
-9.05
-3.14
2.23
6.73
10.27
12.92
14.74
15.75
16.00
15.59
14.75
13.81
13.06
12.70
12.76
13.12
13.55
13.86
13.82
13.31
12.26
10.70
8.77
6.67
4.57
2.59
0.73
-1.12
-3.15
-5.52
-8.35
-11.61
-15.12
-18.48
-21.17
-22.61
-22.37
-20.30
-16.62
-11.84
-6.62
-1.63
2.69
6.12
8.63
10.31
11.24
11.48
11.07
10.10
8.81
7.56
6.83
7.04
8.39
10.82
13.95
17.24
20.07
21.93
22.49
21.68
19.66
16.76
13.37
9.84
6.41
3.16
0.06
-3.05
-6.30
-9.85
-13.76
-17.90
-21.96
-25.36
-27.42
-27.53
-25.40
-21.14
-15.31
-8.71
-2.18
3.61
8.23
11.56
13.68
14.81
15.19
15.02
14.48
13.74
12.94
12.29
11.93
11.97
12.37
12.96
13.48
13.71
13.53
12.97
12.14
11.16
10.04
8.70
7.04
5.03
2.74
0.29
-2.21
-4.75
-7.47
-10.46
-13.74
-17.03
-19.90
-21.80
-22.31
-21.27
-18.82
-15.29
-11.12
-6.69
-2.35
1.67
5.11
7.79
9.53
10.27
10.05
9.07
7.60
5.95
4.37
3.04
2.07
1.53
1.47
1.88
2.68
3.72
4.77
5.63
6.18
6.46
6.63
6.85
7.20
7.56
7.71
7.33
6.21
4.29
1.68
-1.40
-4.65
-7.80
-10.58
-12.69
-13.93
-14.13
-13.31
-11.70
-9.69
-7.71
-6.08
-4.92
-4.16
-3.64
-3.21
-2.82
-2.46
-2.20
-2.05
-2.03
-2.15
-2.41
-2.81
-3.32
-3.84
-4.27
-4.50
-4.51
-4.33
-4.00
-3.57
-3.01
-2.29
-1.42
-0.46
0.44
1.07
1.21
0.70
-0.53
-2.36
-4.49
-6.48
-7.79
-7.98
-6.78
-4.24
-0.71
3.28
7.10
10.30
12.62
14.08
14.81
14.98
14.72
14.04
12.97
11.54
9.87
8.14
6.50
5.05
3.82
2.74
1.73
0.69
-0.46
-1.76
-3.22
-4.77
-6.35
-7.89
-9.34
-10.74
-12.12
-13.55
-15.13
-16.94
-19.13
-21.82
-25.03
-28.63
-32.27
-35.39
-37.37
-37.70
-36.07
-32.54
-27.45
-21.38
-14.93
-8.66
-2.88
2.29
6.89
11.06
14.89
18.35
21.29
23.59
25.14
26.01
26.40
26.54
26.61
26.67
26.60
26.19
25.19
23.38
20.64
16.95
12.42
7.26
1.79
-3.64
-8.75
-13.38
-17.50
-21.23
-24.72
-28.12
-31.48
-34.65
-37.31
-38.99
-39.20
-37.59
-34.08
-28.93
-22.66
-15.93
-9.37
-3.46
1.49
5.31
7.92
9.34
9.70
9.27
8.42
7.53
6.89
6.65
6.79
7.20
7.72
8.22
8.62
8.90
9.02
9.01
8.88
8.68
8.49
8.42
8.56
8.93
9.41
9.77
9.68
8.78
6.82
3.76
-0.20
-4.62
-8.93
-12.58
-15.18
-16.56
-16.71
-15.77
-13.90
-11.29
-8.20
-4.95
-1.93
0.57
2.37
3.48
4.09
4.42
4.69
5.02
5.50
6.18
7.13
8.37
9.89
11.69
13.71
15.94
18.30
20.68
22.87
24.57
25.54
25.61
24.79
23.27
21.29
19.07
16.74
14.27
11.54
8.37
4.63
0.29
-4.45
-9.17
-13.26
-16.11
-17.20
-16.34
-13.62
-9.48
-4.48
0.74
5.66
9.84
12.99
14.94
15.64
15.21
13.92
12.14
10.27
8.63
7.39
6.57
6.05
5.58
4.93
3.87
2.29
0.21
-2.19
-4.65
-6.88
-8.66
-9.95
-10.81
-11.42
-11.95
-12.53
-13.21
-14.05
-15.10
-16.46
-18.17
-20.16
-22.15
-23.62
-24.00
-22.81
-19.89
-15.50
-10.21
-4.71
0.39
4.76
8.30
11.04
13.04
14.30
14.80
14.62
13.95
13.08
12.27
11.70
11.40
11.29
11.25
11.17
10.98
10.63
10.08
9.29
8.26
7.02
5.60
4.00
2.19
0.17
-2.02
-4.27
-6.43
-8.35
-10.00
-11.41
-12.72
-14.11
-15.69
-17.48
-19.34
-20.93
-21.77
-21.34
-19.26
-15.44
-10.10
-3.80
2.76
8.91
14.16
18.22
20.97
22.44
22.70
21.91
20.31
18.25
16.14
14.37
13.19
12.65
12.66
13.03
13.59
14.22
14.84
15.36
15.64
15.50
14.84
13.66
12.05
10.20
8.24
6.24
4.24
2.24
0.23
-1.86
-4.15
-6.82
-9.95
-13.46
-16.97
-19.91
-21.61
-21.57
-19.63
-16.00
-11.20
-5.91
-0.74
3.78
7.34
9.74
10.93
10.99
10.11
8.63
6.91
5.29
4.01
3.19
2.85
2.97
3.48
4.27
5.18
6.01
6.59
6.81
6.65
6.20
5.55
4.78
3.96
3.05
1.95
0.49
-1.57
-4.38
-7.93
-11.92
-15.78
-18.76
-20.19
-19.63
-17.10
-13.01
-8.06
-3.03
1.42
4.87
7.14
8.30
8.53
8.12
7.33
6.34
5.28
4.19
3.09
2.04
1.13
0.49
0.18
0.16
0.27
0.32
0.20
-0.11
-0.55
-1.03
-1.57
-2.25
-3.18
-4.38
-5.80
-7.30
-8.87
-10.60
-12.70
-15.35
-18.52
-21.85
-24.71
-26.38
-26.30
-24.26
-20.48
-15.51
-10.06
-4.78
-0.15
3.59
6.35
8.17
9.12
9.34
8.99
8.29
7.47
6.68
5.98
5.38
4.83
4.35
4.00
3.87
3.98
4.24
4.41
4.27
3.71
2.79
1.73
0.77
0.05
-0.45
-0.93
-1.66
-2.87
-4.76
-7.41
-10.82
-14.83
-19.10
-23.04
-25.94
-27.11
-26.16
-23.09
-18.37
-12.72
-6.95
-1.72
2.55
5.70
7.76
8.88
9.26
9.11
8.65
8.06
7.50
7.08
6.83
6.75
6.78
6.88
7.05
7.31
7.74
8.35
9.08
9.69
9.92
9.49
8.31
6.48
4.25
1.90
-0.42
-2.70
-5.10
-7.84
-11.06
-14.82
-18.96
-23.17
-26.95
-29.71
-30.86
-30.03
-27.18
-22.64
-17.04
-11.09
-5.44
-0.50
3.52
6.59
8.74
10.03
10.54
10.42
9.88
9.16
8.57
8.36
8.71
9.60
10.83
12.12
13.23
14.06
14.71
15.37
16.13
16.88
17.37
17.25
16.37
14.77
12.67
10.30
7.79
5.10
2.10
-1.28
-5.00
-8.92
-12.85
-16.62
-20.13
-23.23
-25.69
-27.22
-27.46
-26.17
-23.33
-19.18
-14.16
-8.85
-3.78
0.63
4.16
6.75
8.45
9.40
9.72
9.55
9.06
8.42
7.79
7.30
6.94
6.61
6.13
5.33
4.09
2.40
0.31
-2.04
-4.50
-6.84
-8.81
-10.10
-10.47
-9.82
-8.21
-5.94
-3.42
-1.13
0.51
1.18
0.79
-0.51
-2.31
-3.97
-4.81
-4.31
-2.29
1.05
5.16
9.44
13.37
16.67
19.30
21.29
22.64
23.26
22.99
21.81
19.87
17.55
15.31
13.55
12.40
11.72
11.19
10.46
9.38
7.99
6.55
5.28
4.32
3.61
2.94
2.14
1.11
-0.04
-1.14
-2.04
-2.69
-3.21
-3.82
-4.73
-6.09
-7.93
-10.20
-12.79
-15.54
-18.21
-20.47
-21.94
-22.34
-21.60
-19.98
-17.92
-15.85
-14.00
-12.24
-10.25
-7.66
-4.35
-0.55
3.22
6.44
8.78
10.27
11.28
12.28
13.58
15.23
16.90
18.16
18.66
18.35
17.47
16.43
15.57
14.97
14.45
13.69
12.49
10.84
8.92
6.99
5.24
3.72
2.32
0.83
-1.00
-3.44
-6.67
-10.77
-15.60
-20.78
-25.72
-29.76
-32.32
-33.09
-32.00
-29.18
-24.87
-19.25
-12.51
-4.89
3.18
11.08
18.02
23.25
26.27
26.99
25.73
23.11
19.85
16.61
13.83
11.65
9.94
8.37
6.55
4.20
1.29
-1.97
-5.20
-8.11
-10.60
-12.76
-14.76
-16.75
-18.70
-20.55
-22.24
-23.81
-25.30
-26.63
-27.56
-27.68
-26.62
-24.27
-20.90
-17.15
-13.75
-11.17
-9.46
-8.21
-6.80
-4.76
-2.05
0.93
3.56
5.29
5.97
5.83
5.32
4.83
4.52
4.29
3.98
3.47
2.83
2.22
1.78
1.56
1.45
1.24
0.77
0.02
-0.88
-1.70
-2.28
-2.64
-3.00
-3.77
-5.33
-7.85
-11.13
-14.59
-17.42
-18.87
-18.46
-16.13
-12.21
-7.27
-1.90
3.39
8.25
12.41
15.67
17.87
18.95
19.02
18.37
17.39
16.45
15.71
15.12
14.38
13.10
11.02
8.12
4.64
0.99
-2.32
-4.84
-6.20
-6.14
-4.60
-1.77
1.83
5.41
8.13
9.34
8.79
6.66
3.38
-0.56
-4.81
-9.12
-13.22
-16.68
-18.97
-19.62
-18.45
-15.66
-11.79
-7.53
-3.48
0.03
2.91
5.21
6.96
8.08
8.43
7.95
6.73
5.20
4.01
3.86
5.25
8.29
12.58
17.32
21.52
24.19
24.59
22.41
17.80
11.37
3.98
-3.47
-10.26
-16.04
-20.84
-24.92
-28.58
-31.94
-34.91
-37.22
-38.56
-38.64
-37.33
-34.57
-30.45
-25.15
-18.97
-12.31
-5.64
0.54
5.78
9.79
12.49
14.01
14.73
15.13
15.79
17.22
19.84
23.83
29.06
35.11
41.31
46.93
51.31
54.08
55.14
54.61
52.76
49.83
46.07
41.71
37.01
32.18
27.36
22.54
17.60
12.42
7.08
1.95
-2.36
-5.13
-5.83
-4.26
-0.71
4.17
9.53
14.56
18.67
21.54
23.15
23.62
23.18
22.06
20.48
18.63
16.65
14.65
12.62
10.51
8.22
5.71
3.06
0.39
-2.14
-4.53
-6.87
-9.36
-12.18
-15.34
-18.74
-22.19
-25.52
-28.71
-31.85
-35.07
-38.48
-42.11
-45.91
-49.77
-53.53
-56.94
-59.63
-61.18
-61.14
-59.18
-55.22
-49.43
-42.24
-34.27
-26.24
-18.93
-13.08
-9.33
-8.04
-9.20
-12.29
-16.39
-20.28
-22.78
-22.91
-20.21
-14.73
-7.07
1.83
10.87
19.02
25.53
29.98
32.35
32.89
31.95
29.92
27.08
23.68
19.90
15.90
11.76
7.53
3.24
-0.94
-4.65
-7.26
-8.11
-6.66
-2.86
2.83
9.52
16.18
21.97
26.48
29.69
31.81
33.05
33.53
33.23
32.17
30.51
28.55
26.62
24.96
23.61
22.35
20.87
18.92
16.41
13.50
10.52
7.85
5.75
4.26
3.18
2.18
0.86
-1.05
-3.75
-7.28
-11.57
-16.39
-21.32
-25.70
-28.74
-29.74
-28.29
-24.46
-18.83
-12.25
-5.64
0.33
5.28
9.18
12.13
14.24
15.57
16.11
15.84
14.82
13.23
11.39
9.67
8.37
7.64
7.41
7.39
7.21
6.55
5.22
3.24
0.77
-1.97
-4.78
-7.50
-10.05
-12.42
-14.70
-17.06
-19.69
-22.73
-26.14
-29.62
-32.58
-34.25
-33.94
-31.24
-26.24
-19.50
-11.92
-4.45
2.10
7.28
10.93
13.08
13.80
13.20
11.45
8.87
5.93
3.20
1.13
-0.06
-0.44
-0.32
-0.07
0.02
-0.23
-0.88
-1.90
-3.22
-4.75
-6.40
-8.10
-9.81
-11.56
-13.46
-15.65
-18.29
-21.44
-25.00
-28.69
-31.92
-33.98
-34.13
-31.89
-27.26
-20.69
-13.04
-5.23
1.96
8.02
12.75
16.07
17.95
18.44
17.67
15.98
13.81
11.67
9.94
8.78
8.18
7.98
8.00
8.06
7.97
7.57
6.75
5.45
3.77
1.88
-0.01
-1.75
-3.31
-4.75
-6.21
-7.85
-9.80
-12.21
-15.14
-18.54
-22.10
-25.17
-26.94
-26.61
-23.77
-18.53
-11.59
-3.91
3.57
10.17
15.60
19.80
22.81
24.60
25.11
24.33
22.46
19.89
17.17
14.79
13.06
12.07
11.67
11.64
11.79
12.00
12.22
12.42
12.49
12.29
11.68
10.61
9.15
7.43
5.60
3.70
1.64
-0.74
-3.61
-7.12
-11.29
-16.01
-20.92
-25.44
-28.83
-30.35
-29.48
-26.14
-20.71
-13.95
-6.73
0.22
6.43
11.71
16.03
19.39
21.77
23.15
23.63
23.42
22.88
22.34
22.00
21.90
21.87
21.71
21.30
20.63
19.79
18.87
17.88
16.74
15.36
13.69
11.80
9.79
7.76
5.71
3.61
1.42
-0.84
-3.10
-5.24
-7.16
-8.84
-10.31
-11.69
-13.14
-14.86
-17.08
-19.99
-23.61
-27.75
-31.91
-35.31
-37.08
-36.49
-33.18
-27.33
-19.59
-10.88
-2.18
5.73
12.38
17.59
21.40
23.94
25.40
26.01
26.00
25.65
25.20
24.86
24.73
24.82
25.06
25.30
25.41
25.24
24.69
23.72
22.34
20.63
18.66
16.54
14.41
12.41
10.68
9.28
8.16
7.16
6.06
4.66
2.88
0.77
-1.55
-3.93
-6.32
-8.75
-11.34
-14.20
-17.47
-21.24
-25.58
-30.43
-35.48
-40.10
-43.41
-44.51
-42.82
-38.30
-31.51
-23.40
-15.03
-7.22
-0.47
5.09
9.47
12.76
15.04
16.44
17.15
17.46
17.65
17.95
18.39
18.87
19.22
19.31
19.13
18.71
18.15
17.44
16.46
15.07
13.16
10.75
8.00
5.13
2.33
-0.30
-2.76
-5.11
-7.41
-9.67
-11.86
-13.87
-15.61
-16.99
-18.00
-18.81
-19.72
-21.08
-23.13
-25.79
-28.59
-30.77
-31.48
-30.16
-26.63
-21.24
-14.64
-7.61
-0.88
5.08
9.97
13.72
16.35
17.92
18.56
18.42
17.69
16.66
15.62
14.87
14.56
14.68
15.05
15.36
15.36
14.88
13.94
12.65
11.11
9.39
7.50
5.46
3.28
1.08
-0.99
-2.76
-4.09
-4.91
-5.28
-5.34
-5.26
-5.20
-5.20
-5.24
-5.19
-4.96
-4.55
-4.04
-3.66
-3.66
-4.33
-5.90
-8.47
-11.90
-15.79
-19.41
-21.89
-22.45
-20.65
-16.53
-10.61
-3.65
3.55
10.33
16.26
21.08
24.65
26.89
27.84
27.65
26.62
25.09
23.40
21.84
20.59
19.72
19.20
18.89
18.61
18.24
17.70
17.05
16.39
15.72
14.99
14.03
12.72
11.04
9.12
7.16
5.34
3.69
2.05
0.23
-1.94
-4.45
-7.16
-9.82
-12.23
-14.28
-15.96
-17.40
-18.76
-20.30
-22.27
-24.87
-28.12
-31.76
-35.21
-37.68
-38.43
-36.99
-33.38
-28.09
-21.89
-15.59
-9.85
-5.03
-1.24
1.53
3.36
4.33
4.52
4.04
3.09
1.92
0.76
-0.20
-0.86
-1.21
-1.26
-1.02
-0.54
0.15
0.95
1.79
2.57
3.26
3.82
4.22
4.40
4.28
3.84
3.11
2.23
1.38
0.71
0.24
-0.13
-0.63
-1.49
-2.95
-5.15
-8.12
-11.72
-15.59
-19.13
-21.63
-22.43
-21.17
-17.87
-13.02
-7.31
-1.51
3.77
8.21
11.66
14.14
15.66
16.31
16.21
15.54
14.56
13.52
12.60
11.89
11.37
11.00
10.67
10.32
9.91
9.42
8.89
8.35
7.78
7.16
6.37
5.32
3.92
2.20
0.21
-1.91
-4.09
-6.29
-8.58
-11.09
-13.97
-17.33
-21.26
-25.75
-30.70
-35.84
-40.74
-44.83
-47.55
-48.48
-47.45
-44.66
-40.60
-35.93
-31.32
-27.24
-23.98
-21.58
-19.97
-19.08
-18.81
-19.07
-19.68
-20.36
-20.75
-20.52
-19.49
-17.71
-15.43
-12.96
-10.59
-8.43
-6.47
-4.62
-2.82
-1.12
0.35
1.45
2.10
2.28
2.04
1.45
0.61
-0.31
-1.13
-1.68
-1.93
-2.06
-2.40
-3.28
-4.84
-6.79
-8.50
-9.17
-8.09
-4.92
0.31
7.25
15.36
23.99
32.38
39.67
45.03
47.82
47.80
45.23
40.72
35.02
28.83
22.65
16.82
11.59
7.20
3.83
1.55
0.23
-0.38
-0.58
-0.64
-0.75
-1.04
-1.58
-2.39
-3.41
-4.50
-5.45
-6.16
-6.65
-7.16
-8.06
-9.70
-12.25
-15.61
-19.38
-22.83
-25.02
-24.98
-21.95
-15.70
-6.64
4.14
15.17
25.05
32.77
37.98
40.84
41.79
41.28
39.69
37.31
34.45
31.52
28.91
26.94
25.67
24.96
24.52
24.06
23.33
22.25
20.82
19.12
17.23
15.20
12.97
10.37
7.18
3.28
-1.27
-6.15
-10.87
-14.94
-18.04
-20.14
-21.47
-22.36
-23.10
-23.83
-24.54
-25.12
-25.46
-25.47
-25.02
-23.97
-22.15
-19.41
-15.75
-11.38
-6.65
-2.02
2.16
5.66
8.42
10.45
11.76
12.36
12.34
11.87
11.25
10.82
10.82
11.29
12.10
13.03
13.93
14.75
15.53
16.33
17.07
17.54
17.46
16.62
15.00
12.80
10.35
7.99
5.87
3.91
1.79
-0.90
-4.50
-9.24
-15.11
-21.87
-29.01
-35.74
-41.01
-43.81
-43.34
-39.36
-32.33
-23.22
-13.23
-3.35
5.82
14.16
21.73
28.57
34.50
39.19
42.34
43.84
43.89
42.84
41.10
38.88
36.18
32.83
28.72
23.96
18.97
14.33
10.57
7.85
5.97
4.33
2.32
-0.50
-4.22
-8.58
-13.17
-17.64
-21.79
-25.61
-29.18
-32.60
-35.87
-38.89
-41.43
-43.18
-43.71
-42.65
-39.69
-34.74
-27.95
-19.70
-10.52
-0.97
8.47
17.48
25.85
33.39
39.77
44.48
46.93
46.70
43.74
38.55
32.05
25.33
19.32
14.53
11.02
8.53
6.74
5.35
4.18
3.11
2.02
0.75
-0.88
-3.01
-5.68
-8.87
-12.45
-16.26
-20.08
-23.74
-27.04
-29.84
-32.07
-33.69
-34.77
-35.48
-36.00
-36.44
-36.70
-36.49
-35.35
-32.88
-28.94
-23.70
-17.64
-11.35
-5.36
-0.02
4.48
8.07
10.73
12.52
13.60
14.25
14.85
15.82
17.51
20.19
23.99
28.83
34.38
39.98
44.80
48.05
49.19
48.14
45.21
40.95
35.88
30.39
24.72
19.03
13.56
8.52
4.10
0.26
-3.20
-6.60
-10.21
-14.07
-17.94
-21.27
-23.38
-23.68
-21.83
-17.90
-12.36
-5.95
0.58
6.65
11.95
16.38
19.93
22.52
24.02
24.32
23.49
21.85
19.90
18.11
16.79
15.95
15.41
14.89
14.16
13.18
12.01
10.79
9.57
8.27
6.77
4.92
2.66
0.08
-2.67
-5.39
-7.93
-10.23
-12.32
-14.29
-16.22
-18.25
-20.49
-23.07
-26.02
-29.28
-32.50
-35.19
-36.67
-36.38
-34.01
-29.65
-23.77
-17.07
-10.29
-4.00
1.45
5.94
9.48
12.08
13.78
14.64
14.77
14.36
13.67
12.95
12.44
12.19
12.17
12.22
12.13
11.75
11.01
9.95
8.69
7.37
6.07
4.71
3.15
1.19
-1.25
-4.12
-7.23
-10.37
-13.43
-16.43
-19.50
-22.78
-26.32
-30.03
-33.73
-37.22
-40.35
-42.98
-44.93
-45.94
-45.68
-43.87
-40.46
-35.67
-30.05
-24.23
-18.74
-13.87
-9.63
-5.90
-2.58
0.32
2.77
4.86
6.84
9.11
11.98
15.49
19.27
22.76
25.40
26.93
27.47
27.32
26.77
25.90
24.53
22.42
19.47
15.86
11.99
8.34
5.25
2.72
0.50
-1.79
-4.50
-7.80
-11.63
-15.73
-19.69
-22.99
-25.09
-25.47
-23.82
-20.17
-14.92
-8.75
-2.43
3.47
8.62
12.96
16.51
19.29
21.20
22.15
22.12
21.26
19.91
18.52
17.42
16.79
16.58
16.53
16.34
15.79
14.84
13.60
12.26
11.00
9.86
8.73
7.45
5.86
3.94
1.81
-0.31
-2.21
-3.76
-5.05
-6.28
-7.75
-9.72
-12.28
-15.42
-18.94
-22.59
-26.06
-28.98
-30.94
-31.54
-30.41
-27.45
-22.81
-16.98
-10.63
-4.47
0.94
5.32
8.62
10.91
12.31
12.89
12.71
11.90
10.73
9.54
8.67
8.36
8.57
9.12
9.77
10.42
11.19
12.34
14.08
16.35
18.74
20.66
21.54
21.06
19.27
16.53
13.28
9.93
6.66
3.48
0.29
-3.06
-6.68
-10.60
-14.85
-19.39
-24.11
-28.80
-33.08
-36.39
-38.14
-37.82
-35.27
-30.76
-24.99
-18.83
-13.00
-7.87
-3.40
0.69
4.70
8.75
12.75
16.45
19.63
22.09
23.75
24.58
24.59
23.85
22.53
20.85
19.02
17.22
15.48
13.76
11.97
10.07
8.05
5.99
3.98
2.07
0.26
-1.56
-3.52
-5.80
-8.57
-11.93
-15.81
-19.91
-23.71
-26.53
-27.73
-26.86
-23.84
-18.99
-12.92
-6.38
-0.07
5.51
10.06
13.45
15.64
16.68
16.70
15.92
14.66
13.31
12.19
11.47
11.13
10.94
10.56
9.70
8.17
6.03
3.49
0.86
-1.61
-3.83
-5.84
-7.75
-9.64
-11.48
-13.12
-14.39
-15.18
-15.59
-15.86
-16.33
-17.30
-18.93
-21.14
-23.67
-26.04
-27.61
-27.66
-25.57
-20.98
-14.00
-5.24
4.29
13.48
21.38
27.49
31.67
34.09
34.96
34.52
32.98
30.62
27.84
25.13
22.88
21.33
20.43
19.93
19.48
18.81
17.79
16.49
15.06
13.64
12.24
10.77
9.07
6.99
4.53
1.83
-0.91
-3.50
-5.84
-8.01
-10.18
-12.59
-15.41
-18.75
-22.52
-26.43
-29.99
-32.58
-33.62
-32.71
-29.78
-25.15
-19.40
-13.23
-7.28
-2.03
2.27
5.53
7.78
9.09
9.58
9.40
8.72
7.76
6.74
5.81
5.08
4.55
4.15
3.74
3.21
2.44
1.32
-0.23
-2.24
-4.68
-7.43
-10.31
-13.19
-15.98
-18.69
-21.38
-24.18
-27.14
-30.25
-33.36
-36.15
-38.16
-38.85
-37.73
-34.58
-29.47
-22.88
-15.44
-7.79
-0.33
6.78
13.55
19.96
25.77
30.59
33.96
35.63
35.67
34.49
32.61
30.49
28.37
26.29
24.22
22.16
20.22
18.50
17.03
15.68
14.19
12.31
9.86
6.89
3.59
0.23
-2.95
-5.83
-8.47
-11.07
-13.92
-17.26
-21.19
-25.55
-29.92
-33.64
-35.93
-36.12
-33.84
-29.15
-22.59
-15.04
-7.47
-0.65
4.99
9.40
12.70
15.05
16.53
17.12
16.89
16.05
14.97
14.07
13.62
13.60
13.73
13.69
13.20
12.27
11.07
9.86
8.77
7.79
6.72
5.32
3.48
1.17
-1.41
-4.02
-6.40
-8.44
-10.18
-11.85
-13.81
-16.39
-19.79
-23.99
-28.63
-33.11
-36.69
-38.68
-38.61
-36.35
-32.17
-26.70
-20.73
-15.05
-10.29
-6.80
-4.67
-3.78
-3.85
-4.49
-5.21
-5.50
-4.93
-3.28
-0.62
2.68
6.13
9.28
11.86
13.83
15.31
16.42
17.23
17.78
18.08
18.20
18.26
18.40
18.68
18.99
19.08
18.60
17.16
14.46
10.36
4.97
-1.34
-7.94
-14.01
-18.66
-21.15
-21.02
-18.26
-13.30
-6.89
0.04
6.71
12.55
17.25
20.71
22.93
23.94
23.85
22.89
21.42
19.85
18.54
17.69
17.24
16.98
16.64
16.09
15.31
14.49
13.80
13.31
12.89
12.28
11.18
9.42
7.05
4.29
1.45
-1.27
-3.83
-6.34
-8.95
-11.81
-14.97
-18.46
-22.30
-26.47
-30.80
-34.87
-37.99
-39.30
-38.14
-34.27
-28.01
-20.19
-11.83
-3.87
3.11
8.86
13.42
16.86
19.25
20.57
20.86
20.27
19.17
18.01
17.22
17.05
17.44
18.08
18.53
18.47
17.76
16.53
14.99
13.36
11.77
10.35
9.19
8.42
8.06
7.98
7.88
7.40
6.25
4.43
2.20
-0.09
-2.20
-4.16
-6.25
-8.87
-12.34
-16.72
-21.73
-26.79
-31.17
-34.08
-34.92
-33.37
-29.54
-23.84
-16.95
-9.62
-2.51
3.87
9.24
13.42
16.39
18.22
19.08
19.25
19.03
18.71
18.49
18.44
18.51
18.59
18.53
18.26
17.75
17.01
16.08
14.96
13.60
11.94
9.91
7.49
4.76
1.86
-1.05
-3.86
-6.55
-9.20
-11.96
-14.97
-18.36
-22.11
-26.04
-29.74
-32.62
-34.01
-33.35
-30.41
-25.38
-18.86
-11.62
-4.46
2.01
7.42
11.60
14.47
16.07
16.54
16.11
15.15
14.04
13.10
12.52
12.30
12.34
12.47
12.58
12.63
12.65
12.67
12.69
12.61
12.23
11.32
9.73
7.46
4.69
1.73
-1.10
-3.62
-5.80
-7.78
-9.82
-12.17
-15.06
-18.57
-22.59
-26.75
-30.35
-32.55
-32.55
-29.93
-24.86
-18.07
-10.61
-3.52
2.54
7.33
10.96
13.63
15.47
16.50
16.73
16.30
15.49
14.68
14.15
13.98
14.01
13.95
13.57
12.80
11.76
10.64
9.60
8.59
7.41
5.79
3.53
0.65
-2.63
-5.98
-9.11
-11.90
-14.46
-17.03
-19.86
-23.09
-26.68
-30.46
-34.12
-37.29
-39.55
-40.46
-39.67
-36.98
-32.50
-26.65
-20.08
-13.56
-7.75
-3.11
0.17
2.17
3.11
3.28
2.98
2.46
1.91
1.46
1.22
1.22
1.44
1.81
2.17
2.37
2.24
1.69
0.73
-0.55
-1.99
-3.45
-4.80
-5.98
-6.96
-7.79
-8.54
-9.30
-10.14
-11.12
-12.16
-13.06
-13.40
-12.62
-10.14
-5.57
1.08
9.31
18.21
26.71
33.91
39.24
42.56
44.06
44.05
42.86
40.73
37.92
34.71
31.47
28.56
26.26
24.61
23.45
22.48
21.42
20.09
18.51
16.81
15.14
13.55
11.96
10.16
7.97
5.30
2.23
-1.03
-4.22
-7.13
-9.66
-11.87
-13.93
-16.10
-18.61
-21.64
-25.25
-29.36
-33.68
-37.69
-40.66
-41.83
-40.59
-36.75
-30.63
-22.97
-14.77
-6.92
0.03
5.88
10.65
14.44
17.25
19.06
19.90
19.94
19.54
19.11
18.92
19.08
19.45
19.81
19.94
19.70
19.08
18.15
16.99
15.67
14.17
12.45
10.42
8.02
5.24
2.15
-1.07
-4.19
-7.02
-9.45
-11.56
-13.53
-15.63
-18.11
-21.07
-24.45
-28.01
-31.33
-33.88
-35.12
-34.58
-31.98
-27.29
-20.81
-13.13
-4.97
2.92
9.91
15.59
19.78
22.46
23.75
23.89
23.17
21.96
20.65
19.61
19.09
19.13
19.61
20.22
20.59
20.50
19.89
18.92
17.81
16.75
15.74
14.60
13.05
10.94
8.29
5.31
2.34
-0.39
-2.80
-5.03
-7.33
-10.02
-13.37
-17.46
-22.11
-26.88
-31.05
-33.80
-34.41
-32.51
-28.18
-21.96
-14.60
-6.90
0.45
7.02
12.53
16.83
19.89
21.75
22.61
22.73
22.44
22.01
21.62
21.35
21.17
21.01
20.76
20.35
19.76
19.05
18.31
17.62
16.95
16.17
15.10
13.59
11.64
9.38
7.02
4.66
2.32
-0.15
-2.89
-5.95
-9.22
-12.52
-15.67
-18.62
-21.44
-24.32
-27.44
-30.95
-34.97
-39.51
-44.38
-49.16
-53.15
-55.47
-55.31
-52.27
-46.47
-38.62
-29.69
-20.64
-12.16
-4.61
1.88
7.26
11.45
14.37
16.01
16.59
16.48
16.15
16.03
16.33
17.06
18.03
18.98
19.69
20.05
20.01
19.58
18.73
17.46
15.85
14.18
12.90
12.53
13.47
15.71
18.80
22.00
24.47
25.64
25.38
23.88
21.53
18.69
15.49
11.89
7.82
3.33
-1.27
-5.46
-8.61
-10.16
-9.82
-7.62
-3.94
0.67
5.60
10.37
14.68
18.35
21.28
23.37
24.50
24.65
23.89
22.47
20.75
19.07
17.70
16.74
16.15
15.75
15.33
14.68
13.62
12.11
10.24
8.22
6.26
4.48
2.83
1.08
-1.02
-3.62
-6.66
-9.85
-12.86
-15.40
-17.42
-19.06
-20.60
-22.33
-24.47
-27.10
-30.16
-33.47
-36.65
-39.18
-40.43
-39.78
-36.85
-31.69
-24.78
-16.98
-9.23
-2.33
3.28
7.49
10.46
12.42
13.57
14.08
14.07
13.74
13.29
12.94
12.80
12.88
13.05
13.16
13.08
12.78
12.31
11.81
11.35
10.96
10.56
10.04
9.24
8.09
6.55
4.68
2.56
0.35
-1.82
-3.83
-5.63
-7.32
-9.06
-11.08
-13.59
-16.73
-20.53
-24.84
-29.34
-33.47
-36.52
-37.71
-36.48
-32.68
-26.69
-19.33
-11.57
-4.32
1.89
6.83
10.54
13.09
14.57
15.07
14.78
14.03
13.20
12.58
12.27
12.14
11.97
11.57
10.90
10.05
9.13
8.14
6.94
5.29
3.01
0.07
-3.38
-7.07
-10.74
-14.20
-17.40
-20.37
-23.24
-26.14
-29.26
-32.73
-36.55
-40.51
-44.04
-46.42
-46.83
-44.74
-40.04
-33.12
-24.78
-15.95
-7.48
0.03
6.19
10.75
13.57
14.55
13.78
11.59
8.56
5.44
2.90
1.37
0.91
1.24
1.89
2.45
2.70
2.67
2.52
2.41
2.36
2.25
1.86
1.01
-0.31
-1.99
-3.82
-5.64
-7.40
-9.22
-11.32
-13.95
-17.35
-21.59
-26.60
-32.08
-37.51
-42.19
-45.33
-46.21
-44.41
-39.90
-33.16
-24.99
-16.38
-8.18
-0.98
4.94
9.58
13.03
15.42
16.89
17.58
17.73
17.63
17.51
17.53
17.67
17.81
17.81
17.58
17.15
16.59
15.92
15.06
13.85
12.14
9.85
7.07
3.99
0.86
-2.12
-4.87
-7.43
-9.97
-12.70
-15.87
-19.66
-24.07
-28.81
-33.27
-36.56
-37.80
-36.30
-31.89
-24.97
-16.40
-7.28
1.40
8.94
15.05
19.69
23.01
25.14
26.20
26.32
25.74
24.75
23.71
22.90
22.44
22.25
22.15
21.92
21.43
20.67
19.65
18.41
16.93
15.15
12.96
10.30
7.18
3.69
-0.04
-3.89
-7.76
-11.70
-15.83
-20.38
-25.53
-31.26
-37.26
-42.92
-47.40
-49.93
-50.02
-47.58
-42.95
-36.70
-29.44
-21.76
-14.15
-7.00
-0.64
4.74
9.18
12.93
16.49
20.32
24.71
29.66
34.86
39.82
44.02
47.06
48.73
49.04
48.15
46.31
43.77
40.73
37.29
33.54
29.59
25.57
21.66
18.04
14.77
11.78
8.84
5.66
1.96
-2.44
-7.53
-13.09
-18.64
-23.46
-26.67
-27.49
-25.41
-20.41
-13.04
-4.25
4.88
13.40
20.68
26.43
30.61
33.31
34.69
34.92
34.29
33.10
31.72
30.46
29.50
28.87
28.40
27.84
26.92
25.51
23.61
21.37
18.95
16.44
13.77
10.77
7.32
3.39
-0.79
-4.91
-8.61
-11.71
-14.23
-16.46
-18.78
-21.57
-25.04
-29.11
-33.41
-37.23
-39.74
-40.12
-37.83
-32.80
-25.48
-16.70
-7.46
1.34
9.05
15.34
20.11
23.37
25.20
25.74
25.20
23.90
22.22
20.56
19.21
18.34
17.93
17.84
17.83
17.65
17.11
16.15
14.84
13.32
11.64
9.75
7.47
4.59
0.96
-3.37
-8.12
-12.92
-17.43
-21.38
-24.69
-27.42
-29.68
-31.70
-33.69
-35.85
-38.22
-40.54
-42.21
-42.30
-39.90
-34.42
-25.94
-15.30
-3.86
6.87
15.72
22.07
25.91
27.56
27.48
26.01
23.46
20.16
16.58
13.35
11.02
9.94
10.05
10.94
12.03
12.80
13.00
12.71
12.21
11.78
11.54
11.35
10.92
9.97
8.36
6.09
3.26
-0.07
-3.89
-8.32
-13.47
-19.37
-25.89
-32.68
-39.18
-44.68
-48.46
-49.97
-49.00
-45.74
-40.76
-34.76
-28.42
-22.18
-16.29
-10.83
-5.87
-1.54
1.98
4.61
6.37
7.49
8.35
9.39
10.96
13.18
15.88
18.64
20.99
22.61
23.55
24.21
25.08
26.56
28.64
30.95
32.94
34.15
34.39
33.72
32.30
30.21
27.39
23.67
18.96
13.31
6.90
-0.00
-7.14
-14.24
-20.95
-26.76
-31.08
-33.30
-33.12
-30.60
-26.23
-20.76
-14.96
-9.40
-4.42
-0.18
3.31
5.96
7.72
8.58
8.68
8.31
7.84
7.61
7.76
8.24
8.84
9.29
9.44
9.32
9.04
8.77
8.58
8.45
8.25
7.86
7.21
6.30
5.16
3.82
2.29
0.62
-1.09
-2.73
-4.27
-5.77
-7.41
-9.38
-11.84
-14.77
-18.06
-21.44
-24.59
-27.10
-28.55
-28.51
-26.71
-23.14
-18.10
-12.13
-5.90
0.01
5.24
9.66
13.28
16.14
18.24
19.53
19.97
19.65
18.76
17.61
16.53
15.76
15.39
15.36
15.47
15.47
15.15
14.42
13.29
11.87
10.31
8.72
7.09
5.28
3.09
0.36
-2.96
-6.69
-10.55
-14.22
-17.46
-20.23
-22.62
-24.80
-26.95
-29.15
-31.45
-33.72
-35.70
-36.90
-36.66
-34.33
-29.45
-22.02
-12.56
-2.03
8.40
17.67
25.02
30.11
32.90
33.65
32.77
30.78
28.19
25.49
23.01
20.89
19.10
17.55
16.10
14.66
13.20
11.70
10.14
8.50
6.73
4.78
2.62
0.23
-2.32
-4.88
-7.27
-9.34
-11.03
-12.41
-13.67
-15.07
-16.78
-18.86
-21.23
-23.64
-25.70
-26.92
-26.78
-24.88
-21.09
-15.63
-9.08
-2.22
4.22
9.78
14.29
17.80
20.42
22.20
23.14
23.24
22.61
21.48
20.11
18.65
17.16
15.55
13.74
11.70
9.49
7.22
4.99
2.81
0.64
-1.63
-4.14
-6.96
-10.11
-13.46
-16.81
-19.90
-22.56
-24.72
-26.46
-27.99
-29.57
-31.42
-33.66
-36.20
-38.75
-40.82
-41.89
-41.61
-39.97
-37.31
-34.18
-31.04
-28.16
-25.63
-23.38
-21.28
-19.12
-16.65
-13.52
-9.40
-4.06
2.40
9.48
16.46
22.59
27.31
30.35
31.60
31.14
29.33
26.66
23.63
20.74
18.26
16.16
14.12
11.61
8.17
4.06
-0.00
-3.28
-5.04
-4.90
-3.15
-0.80
0.45
-1.21
-6.18
-13.77
-22.63
-30.73
-36.15
-37.80
-35.74
-31.44
-26.87
-22.52
-18.16
-13.47
-7.78
-0.50
8.45
18.45
27.51
32.81
32.67
25.76
11.08
-10.41
-35.66
-60.31
-76.54
-77.96
-70.88
-62.36
-55.39
-53.15
-56.84
-65.28
-75.31
-82.86
-84.71
-79.13
-64.97
-43.37
-18.07
6.50
26.49
39.69
45.74
45.27
39.44
30.68
21.33
13.03
7.42
5.83
8.80
15.72
24.62
32.96
39.25
42.97
44.26
44.09
43.61
43.61
44.26
45.03
45.05
43.91
41.59
38.35
34.80
31.64
29.34
28.03
27.39
26.89
26.14
24.92
23.18
21.06
18.75
16.40
14.08
11.79
9.46
7.04
4.48
1.71
-1.32
-4.66
-8.27
-12.01
-15.53
-18.34
-19.80
-19.38
-16.82
-12.28
-6.35
0.09
6.16
11.24
15.10
17.77
19.37
19.96
19.50
18.01
15.79
13.48
11.83
11.42
12.33
14.07
15.84
16.91
16.95
16.10
14.79
13.44
12.19
10.93
9.42
7.50
5.20
2.68
0.13
-2.36
-4.85
-7.37
-9.93
-12.45
-14.85
-17.09
-19.22
-21.29
-23.21
-24.71
-25.30
-24.51
-22.07
-18.11
-13.10
-7.75
-2.74
1.46
4.68
6.99
8.56
9.57
10.17
10.51
10.76
11.09
11.63
12.45
13.52
14.74
15.97
17.09
18.03
18.71
19.10
19.16
18.84
18.11
16.97
15.50
13.82
12.06
10.31
8.55
6.61
4.28
1.48
-1.61
-4.50
-6.49
-6.97
-5.59
-2.43
2.02
7.09
12.08
16.44
19.75
21.68
22.00
20.53
17.34
12.81
7.61
2.60
-1.38
-3.71
-4.16
-2.87
-0.28
3.05
6.59
9.96
12.99
15.66
17.96
19.84
21.19
21.83
21.67
20.74
19.22
17.33
15.23
12.86
9.99
6.30
1.58
-4.07
-10.19
-16.03
-20.69
-23.43
-23.82
-21.82
-17.78
-12.19
-5.61
1.43
8.51
15.21
21.14
25.92
29.29
31.15
31.60
30.94
29.50
27.64
25.56
23.34
20.93
18.17
14.91
11.09
6.78
2.19
-2.38
-6.61
-10.22
-13.13
-15.36
-17.06
-18.45
-19.71
-20.96
-22.26
-23.63
-25.02
-26.30
-27.24
-27.49
-26.69
-24.60
-21.17
-16.66
-11.55
-6.38
-1.53
2.91
7.14
11.52
16.33
21.59
26.92
31.75
35.40
37.42
37.65
36.26
33.59
30.01
25.82
21.24
16.46
11.70
7.18
3.09
-0.56
-3.92
-7.22
-10.63
-14.14
-17.52
-20.44
-22.63
-24.03
-24.85
-25.48
-26.35
-27.81
-29.97
-32.73
-35.75
-38.48
-40.29
-40.58
-38.99
-35.54
-30.67
-25.11
-19.62
-14.71
-10.56
-7.05
-4.01
-1.36
0.83
2.45
3.51
4.19
4.80
5.60
6.64
7.78
8.71
9.21
9.17
8.73
8.08
7.45
6.97
6.62
6.33
5.96
5.42
4.65
3.70
2.63
1.55
0.53
-0.44
-1.46
-2.69
-4.32
-6.45
-9.09
-12.06
-15.00
-17.40
-18.69
-18.45
-16.51
-13.09
-8.72
-4.11
0.11
3.53
6.06
7.78
8.89
9.51
9.65
9.31
8.55
7.55
6.59
5.91
5.61
5.60
5.62
5.42
4.91
4.19
3.47
2.94
2.64
2.42
2.02
1.27
0.13
-1.26
-2.70
-4.06
-5.33
-6.63
-8.08
-9.74
-11.64
-13.76
-16.07
-18.49
-20.88
-22.92
-24.20
-24.26
-22.82
-19.91
-15.88
-11.31
-6.81
-2.83
0.42
2.94
4.83
6.15
6.87
6.96
6.42
5.40
4.19
3.14
2.51
2.40
2.71
3.20
3.60
3.72
3.51
3.03
2.41
1.71
0.96
0.07
-1.08
-2.57
-4.39
-6.47
-8.63
-10.73
-12.66
-14.38
-15.91
-17.37
-18.89
-20.63
-22.76
-25.39
-28.49
-31.87
-35.08
-37.52
-38.55
-37.68
-34.74
-29.93
-23.78
-17.05
-10.46
-4.55
0.39
4.30
7.26
9.33
10.56
11.02
10.83
10.24
9.57
9.14
9.11
9.46
10.01
10.52
10.82
10.87
10.72
10.44
10.05
9.55
8.91
8.14
7.24
6.18
4.90
3.25
1.19
-1.23
-3.84
-6.42
-8.80
-11.00
-13.13
-15.37
-17.89
-20.77
-24.02
-27.58
-31.24
-34.56
-36.95
-37.70
-36.27
-32.47
-26.55
-19.18
-11.19
-3.35
3.73
9.68
14.32
17.57
19.45
20.11
19.84
19.04
18.15
17.50
17.28
17.44
17.82
18.15
18.23
17.94
17.29
16.36
15.25
13.99
12.54
10.79
8.67
6.15
3.33
0.38
-2.51
-5.23
-7.71
-9.99
-12.13
-14.24
-16.44
-18.82
-21.46
-24.26
-26.93
-28.91
-29.55
-28.29
-24.83
-19.28
-12.10
-3.92
4.62
12.97
20.71
27.46
32.86
36.62
38.55
38.74
37.49
35.30
32.66
29.96
27.31
24.67
21.88
18.81
15.49
12.04
8.65
5.50
2.69
0.25
-1.90
-3.85
-5.71
-7.51
-9.22
-10.70
-11.71
-12.02
-11.47
-10.12
-8.24
-6.29
-4.84
-4.36
-5.05
-6.78
-9.06
-11.17
-12.35
-11.99
-9.80
-5.87
-0.62
5.30
11.19
16.41
20.51
23.24
24.61
24.86
24.36
23.48
22.52
21.53
20.40
18.87
16.69
13.72
9.97
5.71
1.34
-2.58
-5.45
-6.80
-6.38
-4.29
-1.01
2.73
6.15
8.61
9.75
9.46
7.70
4.45
-0.39
-6.82
-14.58
-23.03
-31.12
-37.73
-41.87
-43.04
-41.31
-37.21
-31.52
-25.04
-18.43
-12.18
-6.69
-2.29
0.75
2.24
2.23
1.06
-0.71
-2.39
-3.43
-3.50
-2.68
-1.29
0.18
1.32
1.89
1.93
1.67
1.51
1.84
2.94
4.88
7.45
10.26
12.86
14.81
15.86
15.89
14.89
12.91
10.05
6.51
2.64
-0.98
-3.68
-4.83
-4.08
-1.47
2.53
7.23
11.86
15.79
18.64
20.27
20.71
20.09
18.61
16.49
13.95
11.24
8.64
6.37
4.65
3.60
3.27
3.56
4.23
4.98
5.47
5.44
4.71
3.24
1.09
-1.60
-4.64
-7.86
-11.11
-14.31
-17.47
-20.64
-23.90
-27.33
-30.95
-34.67
-38.22
-41.14
-42.89
-42.92
-40.90
-36.84
-31.07
-24.13
-16.66
-9.19
-2.15
4.12
9.36
13.33
15.89
17.04
16.98
16.08
14.79
13.58
12.77
12.55
12.91
13.64
14.44
14.96
14.97
14.36
13.22
11.76
10.22
8.79
7.50
6.32
5.07
3.60
1.70
-0.76
-3.72
-6.85
-9.49
-10.82
-10.19
-7.40
-2.81
2.78
8.51
13.81
18.53
22.84
26.90
30.67
33.88
36.18
37.39
37.63
37.19
36.39
35.40
34.18
32.67
30.84
28.82
26.81
25.05
23.71
22.80
22.24
21.88
21.55
21.10
20.43
19.47
18.22
16.68
14.95
13.10
11.20
9.28
7.24
4.91
2.12
-1.24
-5.12
-9.30
-13.46
-17.35
-20.82
-23.94
-26.86
-29.77
-32.70
-35.51
-37.91
-39.53
-40.01
-39.09
-36.66
-32.81
-27.84
-22.32
-16.94
-12.40
-9.21
-7.55
-7.27
-7.97
-9.21
-10.60
-11.89
-12.94
-13.66
-13.97
-13.80
-13.19
-12.27
-11.23
-10.23
-9.35
-8.55
-7.71
-6.77
-5.73
-4.69
-3.83
-3.31
-3.25
-3.65
-4.42
-5.44
-6.59
-7.80
-9.06
-10.43
-11.94
-13.62
-15.46
-17.46
-19.65
-22.05
-24.64
-27.25
-29.44
-30.64
-30.27
-27.90
-23.41
-16.96
-8.97
-0.02
9.17
17.79
25.04
30.26
33.16
33.91
33.07
31.48
29.85
28.64
27.93
27.58
27.42
27.48
27.91
28.91
30.48
32.31
33.90
34.75
34.54
33.35
31.53
29.55
27.76
26.30
25.08
23.96
22.80
21.55
20.19
18.62
16.70
14.23
11.08
7.26
2.95
-1.57
-6.01
-10.23
-14.24
-18.16
-22.09
-25.92
-29.30
-31.69
-32.54
-31.54
-28.77
-24.70
-20.03
-15.41
-11.27
-7.70
-4.61
-1.89
0.42
2.14
3.10
3.24
2.78
2.09
1.57
1.42
1.67
2.20
2.89
3.74
4.78
6.03
7.35
8.46
9.07
9.03
8.38
7.31
6.06
4.75
3.41
1.95
0.31
-1.46
-3.26
-4.92
-6.34
-7.56
-8.71
-10.02
-11.67
-13.76
-16.17
-18.63
-20.73
-22.05
-22.23
-21.08
-18.61
-15.00
-10.55
-5.65
-0.65
4.12
8.40
11.94
14.57
16.13
16.62
16.17
15.16
14.05
13.29
13.15
13.58
14.27
14.83
14.93
14.43
13.38
11.98
10.43
8.88
7.44
6.18
5.12
4.22
3.36
2.34
0.95
-0.99
-3.49
-6.50
-9.80
-13.20
-16.52
-19.67
-22.60
-25.25
-27.46
-28.94
-29.33
-28.32
-25.75
-21.75
-16.69
-11.08
-5.38
0.09
5.21
9.93
14.15
17.70
20.37
22.06
22.88
23.12
23.12
23.15
23.28
23.37
23.20
22.62
21.63
20.34
18.94
17.60
16.34
15.10
13.76
12.23
10.48
8.58
6.62
4.70
2.83
0.91
-1.16
-3.47
-5.97
-8.49
-10.78
-12.69
-14.20
-15.51
-16.86
-18.43
-20.16
-21.70
-22.56
-22.26
-20.59
-17.66
-13.89
-9.79
-5.82
-2.29
0.67
2.96
4.48
5.08
4.65
3.27
1.25
-0.93
-2.75
-3.86
-4.21
-3.94
-3.32
-2.55
-1.74
-0.94
-0.20
0.36
0.61
0.45
-0.07
-0.82
-1.70
-2.70
-3.93
-5.53
-7.57
-9.94
-12.46
-14.97
-17.44
-19.94
-22.55
-25.14
-27.30
-28.43
-28.01
-25.76
-21.88
-16.93
-11.60
-6.50
-1.95
1.96
5.23
7.79
9.49
10.20
9.92
8.92
7.64
6.51
5.81
5.53
5.43
5.17
4.51
3.35
1.81
0.07
-1.68
-3.30
-4.75
-6.07
-7.31
-8.49
-9.61
-10.62
-11.48
-12.25
-13.03
-14.02
-15.41
-17.31
-19.74
-22.55
-25.47
-28.10
-30.01
-30.73
-29.89
-27.32
-23.13
-17.79
-11.94
-6.28
-1.30
2.81
6.14
8.93
11.29
13.19
14.42
14.83
14.43
13.49
12.36
11.35
10.53
9.79
8.90
7.76
6.51
5.44
4.84
4.79
5.08
5.27
4.90
3.74
1.84
-0.46
-2.75
-4.79
-6.58
-8.33
-10.33
-12.78
-15.70
-18.98
-22.40
-25.64
-28.35
-30.09
-30.49
-29.29
-26.50
-22.47
-17.78
-13.02
-8.59
-4.60
-0.94
2.55
5.89
8.92
11.34
12.88
13.50
13.40
12.98
12.60
12.48
12.62
12.90
13.15
13.31
13.41
13.47
13.48
13.28
12.67
11.50
9.76
7.58
5.20
2.85
0.60
-1.62
-3.98
-6.70
-9.96
-13.78
-18.00
-22.19
-25.73
-27.88
-27.98
-25.64
-20.95
-14.46
-7.03
0.38
6.97
12.31
16.28
19.00
20.70
21.64
22.00
21.95
21.59
21.05
20.46
19.91
19.49
19.18
18.95
18.74
18.55
18.41
18.40
18.57
18.91
19.27
19.38
18.97
17.79
15.81
13.17
10.17
7.21
4.57
2.39
0.61
-1.00
-2.69
-4.63
-6.90
-9.49
-12.36
-15.39
-18.35
-20.82
-22.19
-21.84
-19.33
-14.59
-7.95
-0.06
8.30
16.35
23.42
29.00
32.73
34.46
34.28
32.55
29.88
26.97
24.39
22.43
20.98
19.63
17.93
15.63
12.84
9.99
7.64
6.15
5.53
5.47
5.49
5.13
4.19
2.67
0.74
-1.35
-3.41
-5.32
-7.04
-8.62
-10.19
-11.92
-13.98
-16.38
-18.95
-21.30
-22.88
-23.14
-21.68
-18.39
-13.48
-7.39
-0.68
6.14
12.65
18.51
23.47
27.29
29.83
31.06
31.11
30.22
28.67
26.73
24.60
22.36
20.01
17.52
14.86
12.03
9.20
6.60
4.53
3.15
2.43
2.12
1.80
1.05
-0.36
-2.41
-4.89
-7.48
-9.92
-12.01
-13.69
-14.96
-15.92
-16.76
-17.71
-18.93
-20.37
-21.63
-22.11
-21.19
-18.53
-14.27
-8.97
-3.35
2.00
6.83
11.23
15.38
19.36
23.03
26.07
28.19
29.21
29.21
28.42
27.15
25.69
24.20
22.75
21.32
19.85
18.28
16.62
14.94
13.34
11.86
10.46
8.99
7.24
5.07
2.51
-0.25
-2.92
-5.29
-7.30
-9.08
-10.87
-12.89
-15.28
-18.02
-21.02
-24.14
-27.18
-29.83
-31.73
-32.40
-31.44
-28.56
-23.77
-17.36
-9.87
-2.02
5.39
11.65
16.24
18.89
19.68
18.95
17.23
15.06
12.90
11.00
9.42
8.13
7.01
6.03
5.19
4.51
3.98
3.47
2.83
1.95
0.80
-0.53
-1.86
-3.11
-4.27
-5.47
-6.92
-8.76
-11.07
-13.74
-16.54
-19.10
-21.00
-21.83
-21.28
-19.28
-15.98
-11.74
-7.01
-2.23
2.22
6.08
9.12
11.24
12.38
12.62
12.19
11.37
10.47
9.72
9.18
8.79
8.39
7.82
6.98
5.84
4.50
3.12
1.87
0.90
0.21
-0.30
-0.81
-1.51
-2.51
-3.80
-5.28
-6.87
-8.51
-10.25
-12.15
-14.32
-16.82
-19.70
-22.95
-26.42
-29.83
-32.68
-34.36
-34.34
-32.34
-28.47
-23.19
-17.17
-11.08
-5.46
-0.62
3.28
6.14
7.89
8.50
8.07
6.89
5.40
4.10
3.34
3.21
3.54
3.99
4.27
4.16
3.67
2.86
1.87
0.78
-0.40
-1.69
-3.11
-4.66
-6.31
-7.97
-9.58
-11.07
-12.49
-13.94
-15.60
-17.63
-20.12
-23.05
-26.23
-29.32
-31.84
-33.23
-32.95
-30.61
-26.16
-19.98
-12.83
-5.66
0.59
5.28
8.13
9.18
8.71
7.12
4.88
2.55
0.74
-0.02
0.55
2.30
4.72
7.04
8.56
8.87
7.97
6.22
4.11
2.03
0.16
-1.64
-3.67
-6.32
-9.87
-14.39
-19.61
-25.05
-30.11
-34.29
-37.32
-39.26
-40.38
-41.01
-41.37
-41.52
-41.28
-40.39
-38.62
-35.88
-32.21
-27.79
-22.81
-17.49
-11.99
-6.49
-1.19
3.68
7.83
11.03
13.18
14.43
15.14
15.79
16.85
18.53
20.78
23.32
25.80
27.98
29.83
31.47
33.07
34.75
36.47
38.14
39.63
40.80
41.52
41.58
40.79
38.99
36.15
32.44
28.18
23.74
19.47
15.51
11.83
8.18
4.27
-0.18
-5.25
-10.88
-16.86
-22.90
-28.69
-33.84
-37.93
-40.41
-40.84
-38.96
-34.86
-28.96
-21.81
-13.86
-5.36
3.54
12.56
21.11
28.30
33.23
35.31
34.58
31.67
27.62
23.43
19.86
17.21
15.49
14.52
14.10
14.10
14.46
15.14
16.03
16.97
17.70
17.97
17.59
16.53
14.93
13.03
11.08
9.20
7.36
5.45
3.34
0.95
-1.71
-4.64
-7.84
-11.27
-14.82
-18.18
-20.85
-22.25
-21.91
-19.58
-15.41
-9.85
-3.58
2.71
8.45
13.28
17.01
19.66
21.32
22.15
22.33
22.10
21.67
21.21
20.83
20.52
20.19
19.74
19.08
18.23
17.23
16.17
15.11
14.07
13.00
11.78
10.29
8.44
6.17
3.55
0.74
-2.04
-4.60
-6.81
-8.72
-10.46
-12.28
-14.44
-17.11
-20.26
-23.61
-26.60
-28.59
-28.97
-27.41
-23.92
-18.88
-12.86
-6.53
-0.46
4.93
9.36
12.66
14.83
15.91
16.08
15.63
14.89
14.18
13.75
13.65
13.79
13.93
13.84
13.38
12.58
11.59
10.58
9.66
8.83
7.99
7.03
5.83
4.33
2.52
0.44
-1.80
-4.06
-6.21
-8.16
-9.98
-11.83
-13.91
-16.37
-19.21
-22.28
-25.26
-27.70
-29.09
-29.01
-27.19
-23.67
-18.77
-13.06
-7.20
-1.80
2.75
6.29
8.86
10.56
11.53
11.89
11.73
11.21
10.48
9.75
9.18
8.87
8.76
8.73
8.59
8.23
7.65
6.90
6.08
5.22
4.27
3.13
1.76
0.20
-1.43
-2.99
-4.37
-5.55
-6.58
-7.47
-8.25
-8.93
-9.59
-10.38
-11.50
-13.15
-15.37
-17.94
-20.40
-22.14
-22.59
-21.46
-18.78
-14.94
-10.53
-6.11
-2.11
1.25
3.94
5.98
7.38
8.13
8.17
7.57
6.48
5.17
3.99
3.26
3.19
3.85
5.09
6.63
8.12
9.29
10.00
10.28
10.25
10.03
9.64
9.11
8.46
7.81
7.33
7.16
7.29
7.44
7.14
5.87
3.26
-0.83
-6.33
-12.98
-20.49
-28.56
-36.88
-45.04
-52.51
-58.64
-62.76
-64.34
-63.15
-59.29
-53.14
-45.21
-35.94
-25.70
-14.85
-3.89
6.43
15.23
21.72
25.47
26.65
25.89
24.06
21.95
20.06
18.58
17.47
16.65
16.08
15.71
15.47
15.26
14.92
14.33
13.45
12.33
11.06
9.74
8.43
7.10
5.68
4.09
2.31
0.39
-1.57
-3.48
-5.32
-7.16
-9.20
-11.66
-14.70
-18.35
-22.41
-26.41
-29.72
-31.65
-31.67
-29.52
-25.36
-19.68
-13.21
-6.73
-0.88
3.91
7.45
9.78
11.05
11.51
11.42
11.02
10.58
10.32
10.38
10.84
11.64
12.59
13.46
14.04
14.22
13.99
13.44
12.67
11.78
10.79
9.71
8.51
7.19
5.79
4.32
2.74
1.03
-0.87
-2.90
-4.97
-6.95
-8.74
-10.43
-12.22
-14.43
-17.29
-20.77
-24.50
-27.83
-29.96
-30.22
-28.23
-24.09
-18.28
-11.58
-4.79
1.43
6.71
10.94
14.21
16.69
18.56
19.95
20.99
21.77
22.38
22.86
23.18
23.26
23.08
22.71
22.30
22.01
21.93
21.99
22.00
21.72
20.97
19.74
18.15
16.35
14.48
12.53
10.42
8.10
5.56
2.92
0.32
-2.09
-4.25
-6.23
-8.16
-10.22
-12.59
-15.46
-19.01
-23.35
-28.39
-33.66
-38.29
-41.13
-41.07
-37.52
-30.71
-21.66
-11.91
-2.93
4.34
9.61
13.17
15.43
16.74
17.19
16.86
15.93
14.76
13.84
13.51
13.87
14.77
15.93
17.17
18.46
19.81
21.20
22.42
23.08
22.78
21.26
18.52
14.87
10.84
6.99
3.82
1.61
0.33
-0.24
-0.48
-0.70
-1.11
-1.76
-2.65
-3.85
-5.57
-8.15
-11.88
-16.88
-22.85
-29.17
-34.95
-39.32
-41.65
-41.74
-39.84
-36.54
-32.57
-28.59
-24.96
-21.77
-18.76
-15.51
-11.50
-6.32
0.17
7.75
15.81
23.46
29.81
34.19
36.42
36.78
35.89
34.46
33.03
31.90
31.12
30.62
30.31
30.13
30.06
30.05
30.02
29.83
29.34
28.44
27.02
25.04
22.38
19.03
15.00
10.45
5.70
1.13
-2.91
-6.17
-8.64
-10.50
-12.08
-13.75
-15.80
-18.29
-21.00
-23.39
-24.80
-24.60
-22.45
-18.42
-12.96
-6.74
-0.47
5.28
10.14
13.89
16.44
17.79
18.07
17.52
16.52
15.43
14.54
13.97
13.69
13.54
13.37
13.09
12.70
12.26
11.85
11.52
11.25
10.95
10.55
9.99
9.26
8.42
7.53
6.66
5.82
4.96
3.99
2.78
1.28
-0.52
-2.54
-4.65
-6.72
-8.64
-10.39
-12.05
-13.83
-15.96
-18.66
-21.97
-25.64
-29.14
-31.77
-32.80
-31.81
-28.77
-24.10
-18.51
-12.79
-7.56
-3.16
0.37
3.16
5.36
7.06
8.31
9.18
9.79
10.36
11.10
12.14
13.48
14.97
16.44
17.78
19.03
20.27
21.57
22.85
23.90
24.42
24.17
23.09
21.28
19.02
16.58
14.16
11.80
9.39
6.72
3.61
-0.00
-4.05
-8.35
-12.64
-16.69
-20.34
-23.52
-26.31
-28.87
-31.40
-34.09
-37.02
-40.00
-42.62
-44.26
-44.29
-42.27
-38.13
-32.20
-25.11
-17.63
-10.46
-4.14
1.04
4.99
7.74
9.42
10.19
10.23
9.75
8.96
8.09
7.37
6.98
7.02
7.50
8.28
9.16
9.87
10.19
10.01
9.29
8.09
6.54
4.74
2.79
0.78
-1.25
-3.26
-5.31
-7.48
-9.88
-12.57
-15.53
-18.63
-21.70
-24.59
-27.28
-29.88
-32.58
-35.56
-38.86
-42.29
-45.38
-47.49
-47.94
-46.25
-42.33
-36.49
-29.41
-21.86
-14.56
-8.00
-2.42
2.15
5.74
8.41
10.22
11.27
11.73
11.85
11.90
12.16
12.76
13.74
15.00
16.37
17.71
18.94
20.11
21.32
22.63
24.08
25.60
27.10
28.44
29.53
30.27
30.58
30.35
29.54
28.13
26.15
23.65
20.70
17.34
13.57
9.38
4.79
-0.09
-4.96
-9.35
-12.64
-14.22
-13.67
-10.93
-6.34
-0.57
5.60
11.45
16.45
20.30
22.90
24.27
24.55
23.96
22.82
21.48
20.26
19.38
18.86
18.56
18.23
17.63
16.64
15.26
13.64
11.96
10.36
8.85
7.30
5.45
3.05
-0.06
-3.87
-8.13
-12.45
-16.39
-19.53
-21.65
-22.77
-23.15
-23.22
-23.48
-24.30
-25.86
-27.98
-30.21
-31.86
-32.22
-30.77
-27.35
-22.24
-16.08
-9.67
-3.78
1.06
4.62
6.86
7.93
8.00
7.26
5.93
4.24
2.45
0.84
-0.39
-1.15
-1.43
-1.33
-1.04
-0.73
-0.58
-0.68
-1.02
-1.52
-2.05
-2.58
-3.13
-3.85
-4.96
-6.62
-8.90
-11.72
-14.90
-18.10
-20.89
-22.78
-23.28
-22.04
-18.98
-14.33
-8.67
-2.70
2.89
7.59
11.15
13.52
14.78
15.04
14.41
13.07
11.22
9.20
7.35
5.94
5.08
4.68
4.47
4.15
3.51
2.45
1.04
-0.61
-2.36
-4.19
-6.12
-8.23
-10.60
-13.35
-16.57
-20.31
-24.49
-28.85
-32.82
-35.69
-36.70
-35.30
-31.39
-25.35
-17.97
-10.18
-2.83
3.51
8.58
12.31
14.76
15.97
16.03
15.12
13.55
11.72
10.01
8.68
7.79
7.22
6.76
6.23
5.51
4.55
3.36
1.95
0.34
-1.47
-3.50
-5.78
-8.36
-11.26
-14.47
-17.96
-21.72
-25.76
-30.08
-34.52
-38.72
-42.02
-43.62
-42.77
-39.04
-32.52
-23.83
-13.97
-4.07
4.92
12.39
18.06
21.93
24.15
24.93
24.56
23.37
21.78
20.22
19.01
18.27
17.92
17.74
17.49
17.04
16.38
15.57
14.60
13.42
11.91
9.94
7.51
4.69
1.74
-1.07
-3.43
-5.22
-6.46
-7.42
-8.53
-10.26
-13.01
-16.89
-21.61
-26.46
-30.38
-32.27
-31.26
-27.08
-20.10
-11.27
-1.78
7.31
15.33
22.01
27.39
31.58
34.61
36.49
37.29
37.21
36.63
35.97
35.55
35.52
35.83
36.32
36.85
37.31
37.69
37.98
38.18
38.21
37.95
37.33
36.30
34.93
33.37
31.82
30.41
29.19
28.11
27.00
25.72
24.21
22.50
20.75
19.13
17.76
16.64
15.63
14.54
13.23
11.62
9.77
7.75
5.68
3.58
1.40
-0.90
-3.40
-6.11
-9.02
-12.05
-15.09
-18.01
-20.67
-23.04
-25.17
-27.27
-29.62
-32.50
-36.06
-40.21
-44.59
-48.57
-51.33
-52.04
-50.07
-45.23
-37.84
-28.68
-18.82
-9.33
-1.02
5.66
10.61
13.96
15.94
16.84
16.96
16.65
16.26
16.07
16.23
16.72
17.33
17.80
17.85
17.35
16.34
15.06
13.82
12.90
12.42
12.26
12.12
11.67
10.67
9.14
7.28
5.39
3.72
2.32
1.05
-0.30
-1.92
-3.87
-6.03
-8.19
-10.13
-11.75
-13.07
-14.28
-15.60
-17.24
-19.34
-21.92
-24.85
-27.81
-30.29
-31.68
-31.37
-29.01
-24.64
-18.69
-11.93
-5.18
0.88
5.87
9.69
12.40
14.13
15.03
15.23
14.94
14.39
13.82
13.41
13.20
13.13
13.07
12.93
12.67
12.35
12.08
11.92
11.85
11.70
11.24
10.29
8.81
6.96
5.00
3.14
1.48
-0.08
-1.73
-3.65
-5.87
-8.28
-10.65
-12.78
-14.60
-16.18
-17.68
-19.30
-21.24
-23.61
-26.50
-29.81
-33.25
-36.25
-38.09
-38.03
-35.65
-31.01
-24.68
-17.56
-10.60
-4.51
0.36
3.97
6.48
8.11
9.01
9.36
9.33
9.13
9.00
9.09
9.47
10.09
10.82
11.51
12.04
12.35
12.48
12.51
12.52
12.55
12.58
12.50
12.20
11.60
10.68
9.55
8.34
7.14
5.96
4.67
3.09
1.11
-1.28
-3.97
-6.75
-9.41
-11.84
-14.02
-16.03
-18.05
-20.30
-23.03
-26.47
-30.70
-35.53
-40.49
-44.84
-47.82
-48.87
-47.84
-44.99
-40.92
-36.33
-31.78
-27.66
-24.09
-21.18
-19.03
-17.85
-17.80
-18.88
-20.77
-22.76
-23.95
-23.49
-20.89
-16.23
-10.19
-3.92
1.26
4.18
4.10
0.95
-4.59
-11.24
-17.42
-21.67
-23.13
-21.78
-18.41
-14.28
-10.67
-8.38
-7.58
-7.90
-8.73
-9.56
-10.17
-10.64
-11.23
-12.29
-14.05
-16.62
-19.85
-23.31
-26.28
-27.90
-27.36
-24.21
-18.55
-11.00
-2.55
5.75
13.01
18.68
22.51
24.49
24.78
23.71
21.72
19.35
17.10
15.33
14.17
13.52
13.13
12.73
12.15
11.39
10.61
10.05
9.91
10.30
11.18
12.34
13.53
14.51
15.16
15.53
15.77
16.04
16.43
16.89
17.28
17.41
17.04
15.99
14.14
11.62
8.81
6.40
5.24
6.04
9.12
14.31
21.00
28.38
35.73
42.57
48.62
53.72
57.67
60.26
61.30
60.75
58.84
55.97
52.60
49.15
45.84
42.71
39.69
36.71
33.75
30.88
28.19
25.76
23.52
21.34
19.05
16.53
13.77
10.86
7.89
4.92
1.91
